19	19	4
60	61	8
10	13	5
179	179	18
78	79	10
27	28	4
96	97	11
119	119	10
65	136	10
150	150	16
143	155	3
76	76	24
86	86	21
149	149	16
140	140	12
145	145	15
169	170	21
169	169	13
117	117	6
10	10	12
106	108	4
160	164	2
75	75	11
52	52	7
37	37	21
96	98	2
25	25	15
154	154	12
55	55	12
156	156	13
38	38	15
65	65	9
147	147	8
80	80	18
81	81	10
111	111	10
88	88	5
116	116	10
44	103	1
65	67	6
124	125	2
124	124	11
80	81	9
134	134	20
61	62	4
173	173	7
66	136	2
134	172	3
89	89	16
101	101	11
5	5	4
153	153	18
162	162	12
164	164	5
64	105	4
154	170	4
128	128	5
82	83	7
40	40	10
76	77	6
108	108	28
157	157	8
32	33	12
76	108	1
62	87	2
115	116	3
175	175	9
88	94	7
109	109	8
103	104	11
97	97	7
83	83	6
166	166	2
93	122	4
35	36	6
63	106	1
118	118	15
35	35	13
143	143	3
66	66	11
32	32	24
164	170	4
132	132	17
2	4	6
177	177	7
15	15	11
5	9	1
137	137	22
2	3	6
89	90	4
156	170	2
24	24	10
161	173	1
122	122	9
148	148	14
160	161	2
153	154	7
62	62	7
16	16	13
138	138	7
3	3	9
71	71	6
126	131	5
98	98	3
126	127	3
127	127	8
23	23	24
90	90	14
134	135	6
26	26	7
168	168	16
139	139	17
135	135	25
43	43	14
141	141	19
23	24	3
108	110	1
27	27	12
163	164	11
120	120	15
125	125	21
86	87	5
41	41	22
74	75	4
131	151	6
31	32	4
167	167	23
115	115	18
122	148	3
13	13	8
64	65	7
63	63	3
49	50	6
131	132	7
154	173	4
5	7	3
66	153	1
142	156	2
119	148	3
60	60	15
112	114	5
52	53	3
159	159	9
84	84	2
161	161	2
50	51	6
107	107	21
91	92	1
19	20	11
163	163	10
126	126	20
38	112	3
109	110	3
32	34	1
145	149	1
158	158	15
171	172	3
107	108	3
165	168	5
160	160	9
74	82	2
136	136	6
73	73	15
33	33	18
16	19	4
142	145	1
74	74	12
44	44	10
72	72	18
131	131	10
176	176	23
91	91	5
79	80	6
104	104	4
106	107	5
171	171	17
10	35	3
6	6	6
1	1	11
151	154	4
56	56	11
167	168	1
106	106	16
10	40	6
114	114	13
71	122	3
58	58	4
172	177	4
44	109	2
122	123	8
77	77	12
75	76	3
170	170	3
99	99	6
152	170	6
87	87	22
154	155	4
79	79	9
57	58	1
138	149	4
30	30	9
170	171	5
178	178	3
21	21	1
3	17	2
62	73	1
17	17	3
129	131	2
105	108	1
94	94	12
61	61	10
6	7	4
43	44	3
161	165	3
31	31	6
121	121	8
42	42	6
116	117	2
73	85	1
153	170	2
24	50	3
68	68	8
3	4	3
36	36	9
142	152	1
97	98	4
37	160	2
53	53	12
36	108	2
157	158	7
78	153	1
96	96	15
174	174	4
55	57	3
147	174	2
137	138	3
29	29	6
107	109	3
18	19	2
51	51	4
91	93	3
110	110	4
159	160	3
14	14	12
72	77	1
139	140	6
4	4	8
81	150	5
143	156	3
166	168	3
119	121	2
130	130	13
117	119	4
138	142	1
112	112	18
45	46	3
85	150	5
30	31	7
132	133	11
82	82	12
59	59	13
7	7	2
39	39	7
40	41	3
167	169	4
177	178	7
88	89	8
80	138	3
152	155	3
17	19	1
54	55	5
24	31	2
56	57	3
42	44	2
42	115	1
145	146	3
127	129	3
127	130	3
74	105	3
41	151	2
8	8	4
101	103	1
62	64	6
85	126	2
89	104	5
13	14	5
6	131	4
67	95	2
120	121	2
128	130	2
144	156	4
172	172	10
132	168	6
129	129	7
11	13	4
161	162	2
147	160	1
16	17	5
55	56	1
159	165	1
166	167	4
100	116	2
5	8	2
24	25	3
133	133	12
43	110	2
83	123	1
32	106	1
2	9	2
59	61	2
155	155	13
22	23	5
79	138	2
121	122	2
133	134	2
105	106	3
33	102	3
50	111	3
142	142	1
166	169	1
34	34	2
78	78	5
81	146	4
104	105	7
150	170	5
131	149	4
165	166	8
4	8	7
14	23	1
68	135	3
145	148	4
152	152	6
4	9	1
131	146	1
84	85	4
56	168	2
91	102	1
171	175	5
1	2	3
64	102	1
131	145	2
62	81	3
20	20	4
2	10	2
65	78	2
180	180	2
6	17	2
81	138	2
147	148	1
129	144	2
141	157	1
5	6	5
54	56	2
123	123	10
175	176	2
102	102	4
127	156	1
105	105	5
103	106	2
84	86	3
9	9	1
4	5	3
144	145	2
66	137	2
102	115	2
160	162	4
75	79	3
62	63	9
9	40	1
26	101	1
93	97	2
39	40	2
50	52	3
121	123	1
88	124	1
172	173	3
45	45	7
67	67	10
83	126	3
128	131	3
7	9	4
64	85	5
122	124	1
148	149	5
57	57	3
95	95	6
67	74	1
77	78	2
151	169	2
150	151	3
12	12	10
154	156	3
28	28	9
104	107	1
44	99	1
146	146	11
59	62	1
97	99	4
95	96	3
81	82	2
155	170	4
111	112	2
92	93	5
108	109	6
0	0	7
61	134	1
54	54	4
163	166	1
138	140	1
63	67	1
109	111	1
11	11	2
109	112	2
132	177	2
26	27	1
151	153	1
141	142	1
65	151	1
172	174	3
138	146	2
149	150	1
111	113	2
88	106	1
113	113	2
165	165	8
3	24	1
65	66	5
82	159	2
87	146	2
70	72	3
51	59	1
98	106	5
165	169	3
8	9	4
83	84	6
83	86	1
151	151	5
18	35	1
178	179	1
121	166	1
14	22	3
65	85	2
93	93	3
53	54	4
161	174	5
117	118	1
49	58	1
110	111	2
85	85	1
10	39	1
99	100	1
58	59	2
67	125	1
3	7	1
62	67	1
78	138	1
80	149	2
64	64	5
113	162	3
166	170	1
80	153	2
42	43	2
153	173	1
143	153	3
50	56	1
160	163	1
133	149	1
144	144	1
166	174	1
130	131	5
2	7	1
89	94	1
61	136	2
80	96	1
59	60	2
61	63	1
178	180	4
2	2	3
9	10	1
104	106	1
157	173	3
82	85	1
9	11	2
99	116	1
75	82	2
52	55	2
36	37	1
161	166	1
17	18	1
26	102	1
28	29	3
92	92	1
2	112	2
63	64	2
116	122	1
150	169	4
64	80	1
37	38	6
53	55	2
172	175	3
41	114	1
158	159	4
163	165	1
139	149	2
24	32	1
162	163	1
109	115	1
33	42	1
0	107	2
138	139	3
153	165	1
94	95	2
44	45	2
18	18	1
87	88	1
129	147	2
7	8	1
142	149	1
65	138	3
95	123	1
28	30	1
162	172	1
155	156	1
135	136	1
14	39	1
50	57	1
42	101	1
127	128	3
123	124	1
162	169	1
2	111	2
103	103	1
36	107	2
131	133	1
15	22	2
166	176	1
92	119	1
144	158	2
7	20	1
65	79	1
39	113	2
129	134	1
10	14	1
43	51	1
176	177	1
132	149	1
148	159	1
61	73	1
67	68	1
50	50	2
2	16	1
72	73	2
65	83	1
64	101	1
125	126	1
40	151	1
15	23	2
94	97	2
66	68	1
63	81	1
75	78	2
142	154	1
141	154	1
164	174	1
61	98	1
117	121	1
102	105	1
64	152	2
143	145	1
167	170	1
132	167	1
118	119	1
