8	9	3
127	131	2
6	6	15
136	140	3
15	31	3
100	104	8
74	74	21
55	56	8
8	8	10
70	70	18
123	123	13
12	14	5
110	142	1
67	67	13
29	29	21
41	70	5
137	137	13
78	78	8
90	90	7
125	140	4
110	136	2
134	134	14
87	87	16
96	96	13
116	116	15
126	126	12
104	104	11
55	85	2
131	133	10
4	5	5
93	93	28
9	9	17
88	89	10
17	20	6
92	92	22
69	69	16
6	9	2
66	124	3
19	19	16
0	0	3
55	55	12
121	121	27
22	22	17
98	98	13
136	136	9
81	81	14
136	138	4
66	68	1
136	137	6
51	51	13
80	80	27
31	32	4
138	138	12
133	133	5
142	143	11
106	108	4
95	96	7
17	17	21
78	116	5
43	65	1
142	142	13
12	12	3
42	124	4
131	131	12
127	127	12
40	41	8
59	59	10
124	124	22
64	72	3
41	41	17
79	118	2
101	101	30
2	2	13
60	60	16
50	50	10
39	41	2
76	122	6
89	89	12
108	108	15
18	19	10
94	94	3
141	141	14
120	120	5
115	115	9
23	26	5
2	3	3
80	121	5
2	24	1
34	34	7
135	135	15
107	107	10
68	68	14
61	62	6
76	80	2
135	136	4
57	71	4
41	42	5
102	102	15
22	39	3
110	110	14
97	98	1
26	28	1
61	108	11
24	24	10
56	56	15
30	31	9
16	17	7
13	13	2
99	99	26
25	25	12
49	49	11
19	141	2
69	142	5
0	34	6
36	73	3
143	143	8
118	118	11
20	20	7
1	2	1
75	75	8
10	10	6
97	97	10
119	119	2
62	62	8
50	51	5
8	10	6
52	52	3
111	123	2
102	103	5
23	30	2
70	81	2
91	91	17
95	95	28
58	58	6
54	55	6
82	125	1
117	119	2
125	125	12
14	16	9
57	57	8
0	35	2
139	139	4
53	55	4
77	79	8
48	48	8
57	58	2
54	54	9
11	11	11
113	113	3
93	94	9
96	100	3
26	29	1
79	79	12
100	101	4
71	71	12
12	21	2
89	90	6
51	52	3
84	84	2
23	23	9
30	30	19
77	77	7
27	27	12
78	79	6
130	130	6
42	43	1
138	139	1
64	82	2
67	69	4
24	39	1
65	65	11
21	37	1
115	119	3
118	120	1
123	140	3
103	103	13
39	39	10
10	11	5
38	38	10
60	61	3
33	89	1
91	92	1
86	87	7
39	52	1
15	33	3
140	140	15
20	34	2
38	39	5
31	31	11
1	15	6
131	132	2
132	132	7
135	141	3
47	48	3
61	61	14
129	129	6
53	53	11
80	81	7
105	109	2
28	28	12
112	113	6
66	66	3
59	60	7
64	64	6
40	40	7
114	114	8
130	131	15
100	100	9
85	85	2
77	141	1
125	139	1
144	144	11
23	24	5
107	109	9
127	138	2
137	139	2
37	37	8
21	22	4
62	93	2
144	145	5
36	85	3
97	142	3
8	11	2
145	145	7
1	1	1
105	105	12
43	43	5
15	15	9
26	26	19
29	69	2
86	86	5
71	72	10
63	63	4
58	59	8
41	67	2
128	131	1
105	116	2
66	70	6
21	39	3
109	109	16
17	19	3
126	131	1
119	120	5
47	128	8
145	146	1
5	92	4
3	20	2
141	145	2
77	78	4
122	123	4
33	66	1
133	135	1
35	35	2
114	116	3
117	118	7
18	18	8
58	73	3
3	12	3
117	120	2
117	117	18
82	82	5
32	32	2
43	49	3
74	75	6
5	5	4
123	144	3
111	111	4
64	65	2
42	42	8
124	125	2
61	91	1
108	109	5
33	33	4
42	66	1
67	68	4
32	33	2
114	115	4
109	110	2
98	142	4
99	100	5
106	106	4
81	124	2
73	74	1
75	103	1
102	141	7
104	105	5
49	50	4
36	36	5
39	50	4
107	110	5
47	76	3
12	22	2
61	71	2
26	27	1
127	128	3
12	15	2
74	106	3
72	72	3
143	144	3
62	63	2
19	25	4
13	14	2
96	97	3
56	86	5
7	8	1
24	25	6
28	29	2
128	133	2
131	135	4
40	52	1
17	18	7
21	21	11
38	76	4
64	85	4
16	16	5
14	34	3
88	109	1
98	99	4
74	107	1
80	123	1
13	90	3
83	124	3
43	127	3
56	57	5
76	121	1
83	137	1
75	123	3
15	34	3
76	111	2
13	22	1
73	73	5
1	3	5
90	92	3
110	138	1
16	31	3
58	91	2
106	109	3
82	133	2
93	108	3
128	128	4
78	115	1
50	73	2
52	57	3
122	122	1
23	33	1
107	108	5
16	32	1
37	85	2
27	128	1
75	77	2
91	109	1
48	49	3
75	78	1
0	14	1
74	103	3
42	54	1
110	140	1
134	135	2
118	119	2
20	21	2
83	123	2
88	88	2
76	79	2
76	76	5
2	94	2
66	67	1
15	16	1
56	59	1
92	95	1
97	99	1
33	94	1
59	61	1
76	77	1
3	4	1
115	116	1
18	31	4
88	90	2
129	134	2
101	104	1
116	117	4
30	70	2
129	133	5
69	70	1
69	78	2
141	142	1
47	47	5
130	133	1
89	107	2
41	94	1
2	12	1
63	71	2
20	37	1
131	136	3
106	107	2
48	126	1
84	85	1
68	142	2
53	54	2
133	134	1
91	93	2
90	109	1
68	95	2
98	100	1
13	36	1
18	38	1
79	80	1
127	130	1
39	40	1
112	114	1
130	134	1
17	70	1
12	23	1
33	62	1
123	146	3
84	110	2
27	40	1
30	63	1
113	114	1
47	130	1
137	138	1
132	134	1
71	94	1
70	95	1
120	121	1
96	101	1
123	124	1
2	35	1
127	129	1
77	80	1
73	85	1
128	130	1
35	85	1
