26	30	2
72	72	6
120	120	27
6	6	27
92	92	8
142	142	20
123	125	5
18	18	20
166	167	4
54	55	7
183	183	33
15	15	28
55	55	10
22	22	24
119	120	5
21	21	12
24	24	15
173	178	4
33	36	4
165	166	5
40	40	22
54	54	20
154	154	29
148	149	3
11	22	1
90	91	14
170	170	13
163	164	7
100	100	26
66	140	3
31	35	2
41	42	17
95	95	20
188	189	5
5	5	11
48	48	21
29	29	12
77	123	2
19	20	5
3	3	30
101	101	20
84	85	5
122	173	5
43	43	9
25	26	5
99	99	27
137	137	13
116	116	16
62	62	5
52	91	2
68	123	1
53	169	2
175	175	14
4	4	19
68	69	3
141	141	21
171	172	3
47	47	24
110	111	10
61	61	17
86	86	23
14	14	8
152	153	1
153	155	6
45	45	15
2	2	17
109	109	13
82	121	2
11	11	8
39	39	18
140	140	39
13	27	1
16	19	2
104	106	8
56	56	20
57	57	18
131	131	16
97	97	7
141	143	5
63	63	4
177	178	12
62	63	8
44	46	1
87	88	3
134	137	3
141	151	7
10	10	3
117	149	4
169	169	27
57	59	3
56	131	1
150	151	3
156	182	3
134	135	7
161	161	11
103	104	4
109	110	15
83	84	15
93	94	10
48	141	1
2	43	4
105	105	13
41	41	24
86	88	5
169	170	13
59	60	7
172	172	7
55	60	5
19	19	12
68	81	4
167	168	10
164	164	10
0	7	3
76	128	4
157	157	6
127	128	17
110	113	8
153	154	3
42	42	20
108	108	13
174	175	6
158	158	7
154	155	17
151	151	30
63	173	2
103	103	33
58	66	1
92	93	15
187	187	22
65	65	10
111	111	10
148	148	11
117	159	5
149	153	2
12	12	25
184	184	22
125	126	4
48	56	3
80	80	14
78	79	6
169	180	5
24	34	6
98	99	2
90	90	21
21	22	14
18	23	3
75	76	8
105	106	8
109	148	1
107	107	29
54	170	5
103	105	4
89	89	18
58	59	7
67	71	1
174	174	23
182	182	19
123	123	22
0	4	5
110	110	20
87	87	13
153	153	21
149	149	10
138	138	11
56	90	1
167	167	15
121	122	1
189	189	13
74	75	8
37	37	7
113	113	25
53	53	20
96	96	16
141	159	1
135	135	7
92	105	4
122	135	2
103	113	1
44	49	3
76	76	23
159	159	17
106	106	13
9	35	1
16	16	13
52	53	7
127	127	6
188	188	11
134	134	9
179	179	9
20	20	22
13	13	12
78	124	2
119	119	15
133	133	8
159	183	5
13	86	5
88	88	21
25	25	19
12	35	6
58	64	1
165	165	19
122	122	3
107	108	6
131	132	4
146	146	12
3	41	4
6	88	2
83	83	21
124	124	11
148	152	4
9	9	7
41	44	2
13	20	1
133	143	3
67	67	16
185	185	16
19	21	11
14	23	4
112	112	15
38	38	13
140	141	5
64	64	10
102	102	12
25	35	6
34	34	4
1	1	14
32	34	3
180	180	7
129	129	17
28	29	12
125	125	14
98	100	4
45	46	1
110	157	3
156	157	3
103	186	6
27	27	17
117	117	16
139	139	22
52	52	8
85	85	21
186	186	35
64	81	2
15	25	6
132	132	8
8	13	4
152	152	15
118	118	10
173	173	12
80	81	2
47	152	2
162	162	8
169	171	3
142	164	4
163	163	19
46	47	3
186	188	2
48	113	12
82	82	14
114	187	1
118	149	4
71	72	5
115	115	16
40	41	6
88	125	6
139	140	9
107	121	5
84	84	17
146	147	7
161	162	3
161	163	4
96	103	1
126	128	5
89	154	10
120	121	6
77	77	31
155	155	8
154	157	8
134	136	1
70	71	3
106	108	4
13	21	3
36	36	4
150	157	3
59	59	6
17	19	6
174	176	3
185	186	18
9	10	7
26	36	1
69	71	4
94	94	10
31	31	5
115	156	3
157	182	2
178	190	1
61	62	4
48	114	2
6	8	2
10	11	8
143	143	3
115	154	4
170	171	4
59	61	6
118	146	5
68	68	14
109	111	5
143	165	1
31	33	4
181	181	16
102	112	3
11	32	3
130	130	13
85	174	2
156	156	5
142	143	10
35	35	10
124	125	5
18	45	1
101	112	1
27	30	3
124	131	2
7	7	16
66	66	7
172	179	2
46	46	10
146	148	2
7	8	9
114	114	24
77	90	1
56	126	1
126	126	10
99	100	7
97	98	1
75	75	13
156	174	2
166	174	1
33	33	15
1	2	4
91	91	12
15	21	6
104	104	8
67	81	3
31	32	9
15	16	3
179	181	5
182	183	13
89	131	1
175	176	4
160	160	8
91	96	6
95	96	7
4	6	4
190	190	11
176	176	12
14	21	3
38	47	3
28	28	5
157	183	2
12	37	5
15	111	4
180	186	2
3	8	3
145	145	6
177	177	12
33	35	7
128	129	3
118	147	8
84	91	7
4	8	1
151	166	5
79	79	5
12	13	2
53	54	4
179	180	4
80	123	2
179	187	5
81	81	9
42	44	6
0	0	10
60	60	15
34	35	5
44	44	8
71	71	14
166	166	12
88	182	3
143	144	2
40	45	2
5	6	2
65	67	3
106	107	7
104	107	4
121	121	12
32	32	3
148	151	5
35	85	3
23	23	7
18	19	6
157	158	3
66	174	3
30	30	9
141	152	2
183	184	7
184	185	7
17	17	8
169	189	5
34	36	5
181	186	3
56	124	1
81	120	3
140	152	4
61	63	6
147	147	6
60	128	2
159	160	5
168	168	13
47	48	1
16	17	4
158	174	1
85	120	3
171	171	3
21	111	4
49	49	5
176	177	7
27	32	1
172	173	4
158	162	1
78	78	12
94	98	1
182	188	1
166	168	2
155	165	4
116	169	7
56	57	6
20	21	3
96	98	5
102	111	4
72	74	3
132	183	1
80	179	1
98	98	5
18	48	1
178	178	1
57	96	3
139	143	2
55	90	2
2	3	12
35	36	3
31	37	5
78	170	2
36	37	3
12	36	6
60	61	3
86	180	4
138	139	4
61	84	1
65	68	1
78	171	3
187	189	1
168	171	1
84	129	1
71	80	1
55	84	1
10	22	3
114	166	1
26	35	2
26	32	4
159	163	4
88	126	2
58	60	1
34	94	2
87	90	2
88	183	1
62	75	2
57	99	2
141	153	4
94	97	3
94	104	1
150	150	7
122	174	5
154	159	1
154	189	1
157	165	2
0	1	3
0	5	2
155	156	1
128	128	3
70	76	1
136	136	2
118	169	1
53	55	4
70	75	3
70	70	11
48	112	1
96	104	2
126	127	6
79	80	7
94	96	2
17	24	3
39	43	3
37	38	1
180	181	4
123	174	5
133	134	4
171	180	1
32	35	1
161	165	2
108	109	4
128	132	6
130	145	2
93	93	9
20	44	2
159	165	1
9	88	2
35	86	1
9	86	2
63	64	3
102	108	1
56	127	2
79	81	1
91	103	1
160	161	6
130	184	1
143	163	1
6	7	3
48	89	1
102	104	1
15	22	1
10	12	6
106	121	1
7	13	1
136	137	1
118	150	3
90	186	3
113	140	1
40	47	2
18	24	1
114	154	2
40	43	2
171	178	1
119	170	2
112	120	3
170	189	1
8	8	5
32	33	3
126	129	1
133	138	1
84	87	3
39	42	1
124	126	2
70	73	2
114	122	3
82	83	1
181	188	3
4	5	3
147	148	2
87	122	1
151	152	1
17	18	3
155	169	3
113	114	5
141	142	1
178	179	4
171	179	2
133	137	2
90	95	1
11	12	1
169	181	3
84	176	2
149	152	2
12	86	1
54	125	2
103	187	1
12	33	2
144	162	2
54	96	1
173	174	2
38	43	1
115	116	2
71	73	2
175	179	1
26	26	2
82	179	1
40	106	1
72	75	1
87	181	1
115	155	1
14	19	3
149	150	1
10	23	2
71	76	1
58	58	4
131	185	1
113	186	1
74	74	3
100	101	2
130	132	1
117	118	2
31	34	1
54	123	1
65	171	2
177	190	1
85	87	2
68	78	2
11	13	1
61	91	1
28	42	2
103	106	3
33	34	2
13	17	1
44	47	1
39	103	2
77	127	2
115	169	1
108	112	1
121	179	1
115	188	1
114	148	2
73	73	5
48	53	1
20	26	1
16	25	1
37	86	1
38	39	5
133	185	1
155	160	1
68	75	3
85	180	2
112	119	3
52	54	1
157	166	1
95	99	2
8	9	2
97	99	2
0	14	3
164	165	1
114	119	1
67	76	1
137	139	4
116	119	3
107	110	1
130	131	1
89	90	1
54	155	1
107	112	2
55	61	1
145	162	2
25	30	3
178	182	1
6	110	1
16	21	1
144	163	1
20	23	1
24	26	1
78	81	1
3	42	2
76	77	1
26	31	1
106	123	3
14	108	1
103	190	2
76	78	1
17	140	1
158	159	3
154	184	1
106	110	2
29	31	1
160	176	1
80	82	2
177	180	1
81	123	3
7	28	1
83	85	1
157	160	1
33	38	1
84	178	1
135	136	1
12	14	2
187	190	1
16	112	1
24	28	1
68	80	3
122	179	3
165	173	1
82	123	1
138	154	2
148	150	1
115	121	1
69	80	1
39	104	1
49	112	1
63	77	1
26	33	1
114	149	1
155	164	1
13	26	1
81	87	1
86	87	1
103	108	1
114	136	2
16	110	1
25	33	2
9	69	1
89	185	1
54	169	1
92	102	1
54	57	1
159	182	1
70	79	1
48	167	1
169	188	1
64	91	1
41	53	1
114	155	1
102	103	1
26	27	2
17	48	1
116	120	1
116	160	1
53	59	1
153	174	1
117	155	1
35	81	1
85	178	1
42	43	1
13	22	1
158	165	1
