157	157	1
1	58	3
50	51	7
107	107	10
152	152	7
155	155	6
66	66	6
143	143	3
69	70	4
3	25	1
145	151	4
16	35	1
108	111	2
84	84	5
81	81	1
110	166	4
17	17	6
144	144	1
115	115	1
87	93	8
68	68	1
160	160	10
22	22	4
16	16	2
8	25	2
113	113	7
99	137	2
80	94	5
45	45	11
122	122	3
36	37	2
58	58	3
79	79	5
28	28	8
100	101	5
3	3	2
43	43	6
55	56	3
149	149	2
142	142	4
104	121	3
77	77	3
146	153	1
112	112	3
112	113	5
124	125	1
37	56	3
16	126	2
132	167	5
44	55	3
56	57	4
117	117	5
141	141	3
62	62	3
156	156	1
41	41	4
63	63	8
105	105	4
50	52	1
47	53	3
77	80	2
39	41	2
10	46	5
83	83	5
111	111	10
16	129	4
136	136	1
71	71	4
42	42	4
47	47	3
86	86	2
50	50	5
151	153	1
18	28	3
51	51	6
64	66	1
21	21	2
161	161	6
108	108	2
113	114	3
165	165	5
98	98	4
70	70	3
137	137	3
87	87	4
10	11	4
7	7	1
0	0	2
146	151	4
37	37	1
18	18	1
97	97	6
168	168	2
20	21	4
18	118	3
88	108	2
1	9	1
25	25	2
40	40	2
131	131	2
14	17	3
33	34	2
102	103	3
146	156	2
76	135	1
145	145	5
146	146	1
24	24	1
83	99	1
89	93	2
65	65	1
84	87	3
119	119	6
115	117	1
20	20	2
15	15	5
130	134	3
38	38	4
109	109	2
164	164	6
88	88	5
103	103	1
132	132	2
74	76	3
98	99	1
18	19	1
123	125	1
34	155	2
74	75	2
10	10	4
110	111	2
90	91	1
85	86	1
36	36	5
147	147	2
9	9	1
84	88	5
3	23	1
6	40	2
44	45	1
84	86	1
104	104	1
81	82	2
35	35	2
46	46	5
166	166	1
57	92	1
99	99	3
125	125	2
81	87	2
86	89	2
23	23	3
9	24	2
90	90	1
84	89	1
52	53	5
1	23	2
140	142	1
8	8	2
154	154	2
152	153	1
91	93	1
65	75	3
27	36	3
41	56	1
56	56	1
24	56	1
2	2	1
64	64	1
17	21	2
80	96	1
139	139	3
27	27	4
80	80	3
73	74	1
94	135	1
158	159	2
44	44	1
148	152	2
139	142	1
68	83	1
19	19	1
52	52	2
48	49	1
102	102	3
116	116	3
138	138	1
45	58	1
105	153	2
92	92	1
85	85	2
142	160	1
11	13	1
76	79	1
121	121	1
95	161	1
134	135	2
127	127	1
64	164	1
120	120	2
18	21	1
26	26	1
76	76	1
163	163	1
140	140	1
5	25	1
6	6	1
118	118	1
26	28	1
153	153	1
165	169	1
19	23	1
127	129	2
104	106	1
