154	155	4
20	41	1
6	7	5
171	171	18
203	203	8
213	213	15
220	220	15
20	20	9
216	216	9
45	45	14
25	25	6
234	234	3
29	29	6
22	22	11
10	20	2
205	205	9
3	3	6
230	230	11
209	209	10
233	241	1
175	227	2
193	193	13
170	198	3
3	5	3
61	67	5
19	19	8
232	232	7
107	107	6
93	117	1
205	206	1
155	155	9
176	177	4
109	109	4
14	15	2
205	208	2
237	237	11
8	26	1
96	97	7
69	69	7
45	54	3
230	231	7
178	221	1
57	58	10
211	211	7
31	31	8
105	105	6
183	183	7
224	224	7
201	202	6
77	78	2
164	164	8
152	152	11
114	116	1
190	190	2
231	231	4
28	28	8
92	92	6
115	117	7
199	199	6
75	76	5
91	93	5
113	114	9
160	213	2
110	110	7
222	230	3
211	213	2
62	100	1
116	117	5
172	172	6
238	238	11
118	118	8
244	244	6
76	78	5
60	79	3
38	38	8
112	112	16
229	229	11
7	7	4
64	65	5
180	225	3
58	58	10
202	202	8
181	181	9
156	212	2
218	219	3
114	114	8
207	207	4
113	113	4
95	95	4
191	191	4
52	52	8
179	179	7
208	208	9
81	82	13
65	66	3
68	70	7
38	52	3
46	46	10
154	154	7
215	218	2
160	160	8
99	99	7
43	43	10
55	55	9
37	38	9
6	12	3
172	173	4
184	184	7
55	80	4
32	33	2
167	171	1
227	227	5
174	174	15
80	80	9
13	13	1
4	5	11
61	61	10
54	54	10
215	215	7
199	203	1
161	161	9
151	152	2
233	237	1
108	108	5
108	109	4
51	51	6
103	103	5
68	68	5
225	225	5
217	218	3
53	53	8
210	210	8
15	51	3
244	245	2
168	168	5
90	90	1
35	35	6
210	211	3
6	27	3
39	39	6
238	239	5
60	60	3
93	95	9
206	206	8
87	89	5
75	75	3
164	171	2
44	45	8
78	78	3
9	9	10
50	160	2
66	69	2
85	85	6
71	71	13
233	234	2
223	225	2
26	26	9
16	16	5
221	221	9
80	81	1
185	185	11
47	47	12
159	169	1
32	32	5
185	194	1
12	42	3
247	248	5
214	214	2
149	149	8
212	212	11
204	204	11
65	65	12
162	162	6
21	21	2
193	194	2
158	158	7
236	236	7
171	185	5
162	174	1
54	56	2
8	8	3
38	43	3
42	42	7
4	4	3
82	83	4
49	157	2
34	34	6
200	201	4
43	45	3
222	223	2
18	18	4
162	163	2
50	50	4
171	179	1
183	185	4
179	227	3
6	6	13
20	31	3
11	11	8
203	204	4
106	106	6
196	196	4
170	170	8
226	226	4
115	115	6
96	103	1
247	247	4
235	237	2
77	77	5
89	89	2
157	157	6
14	14	8
70	70	6
6	10	2
79	79	1
246	246	8
107	108	2
246	247	2
108	111	3
63	118	2
98	98	2
223	223	5
189	245	3
24	24	10
6	53	1
94	94	8
15	15	8
192	192	9
111	112	1
98	103	1
233	233	11
197	197	4
160	162	2
179	184	1
241	241	8
198	198	2
71	74	2
82	82	6
151	151	6
173	175	4
84	85	3
228	229	3
240	241	7
76	76	4
171	172	1
31	32	1
91	91	8
5	5	3
90	152	2
164	174	3
240	240	14
178	178	7
156	168	2
167	167	7
227	228	3
57	57	4
60	61	2
177	177	11
102	102	8
36	36	5
154	156	1
224	232	2
201	201	8
27	27	4
228	228	6
36	37	6
222	225	1
145	146	1
248	248	4
156	156	4
165	165	9
153	153	8
224	230	1
54	117	3
154	228	4
171	198	3
34	49	1
95	96	5
84	84	3
234	237	3
33	67	1
87	87	3
35	50	2
163	171	2
146	146	7
20	92	5
93	93	7
197	198	3
12	12	4
229	231	1
239	239	5
7	79	1
189	189	4
66	71	1
73	73	4
100	101	2
186	186	3
72	73	2
114	115	3
199	212	1
44	44	7
5	12	2
38	39	3
69	70	1
193	245	3
202	237	3
113	115	2
224	231	3
236	237	4
104	104	3
8	10	1
166	166	6
192	193	9
62	62	3
117	118	2
48	48	8
237	239	2
239	240	4
193	196	5
32	147	2
170	171	7
187	187	1
189	190	2
22	25	3
45	46	1
101	101	3
93	94	4
19	88	1
98	102	4
99	101	1
12	226	3
212	213	2
231	232	5
67	67	5
192	223	3
96	96	8
39	40	5
63	66	2
57	79	2
71	118	3
39	52	3
117	117	1
67	68	3
159	159	2
155	183	1
58	64	1
178	180	2
167	168	1
23	23	10
198	199	1
163	183	2
61	78	2
195	195	1
220	221	1
30	30	12
158	159	4
20	30	1
59	63	1
78	79	1
197	207	1
59	59	3
119	119	3
180	180	2
17	17	3
184	188	1
63	64	3
12	21	1
217	217	2
71	77	1
195	196	2
189	194	2
163	163	11
213	214	4
34	47	2
198	202	2
34	51	1
72	72	2
163	165	3
97	97	4
215	217	1
69	225	1
103	104	1
192	232	4
53	54	1
61	63	2
90	91	1
37	37	6
200	236	3
51	52	2
37	39	1
145	149	1
224	225	2
145	145	2
2	2	1
68	71	1
39	43	1
167	181	1
33	33	4
175	175	6
111	111	3
242	243	1
218	218	3
171	175	1
1	1	1
153	158	1
116	147	1
234	235	3
169	209	3
57	75	1
109	110	1
116	116	3
100	100	2
167	172	1
182	182	1
100	115	3
219	220	3
62	118	4
81	83	2
47	149	1
245	245	5
118	120	2
109	111	1
207	208	2
199	200	1
150	213	2
61	62	2
157	165	2
8	9	2
53	62	1
4	12	1
180	182	2
147	147	1
84	86	1
72	202	1
17	32	1
87	88	3
229	230	1
192	221	1
59	62	1
10	11	1
238	240	5
66	66	1
194	194	3
219	219	3
10	10	5
9	10	2
169	169	4
63	63	3
150	150	5
28	37	2
232	241	2
180	226	1
153	180	2
242	242	1
63	68	1
219	221	3
29	30	3
56	58	2
242	244	1
23	31	1
176	176	1
187	188	1
232	240	1
93	197	2
198	231	1
158	160	1
166	167	2
216	217	1
120	120	1
234	236	1
19	92	1
93	114	1
146	147	1
173	173	2
18	19	1
34	35	1
41	41	2
86	86	1
9	62	1
30	146	2
157	158	2
9	77	1
197	221	1
168	206	1
167	210	1
70	92	2
105	106	1
38	110	1
171	188	3
181	182	3
164	215	3
223	224	4
157	161	2
11	12	1
243	244	1
200	200	1
168	169	1
235	235	3
165	167	2
96	107	3
60	64	1
232	233	1
24	82	1
158	164	1
49	50	1
74	75	1
28	33	1
90	217	3
65	235	1
187	190	1
93	153	1
226	227	1
46	47	1
177	221	1
188	188	2
222	222	1
96	99	3
97	98	1
48	147	2
167	214	1
40	40	2
82	84	1
88	88	2
25	226	1
49	49	2
81	81	1
41	43	1
0	0	1
178	179	2
243	243	1
28	32	1
1	2	1
48	116	1
89	90	1
