133	133	5
62	62	2
94	94	3
104	131	1
17	23	1
34	34	8
6	13	1
56	67	3
23	23	6
31	32	1
3	6	3
32	44	1
30	57	4
82	85	1
67	68	2
91	91	4
22	22	7
73	73	6
90	90	2
58	58	8
9	33	2
106	131	1
124	124	1
25	25	5
12	12	7
71	95	1
57	87	5
111	127	1
0	1	3
73	91	1
55	66	4
27	28	4
15	16	5
89	99	2
1	31	2
93	93	3
88	88	3
114	114	5
108	108	9
28	28	3
80	97	3
128	129	1
6	26	2
109	109	2
8	10	2
105	105	8
111	111	3
61	62	4
74	75	3
67	75	3
3	3	3
110	110	7
33	34	5
16	23	1
78	78	1
9	34	3
82	95	2
11	17	2
47	47	6
45	45	5
2	22	2
7	7	5
13	13	3
2	2	2
1	3	2
69	69	3
92	92	4
21	21	5
91	109	2
57	57	5
64	108	1
63	119	4
114	118	6
6	15	1
127	128	5
108	121	3
31	31	5
104	104	4
58	59	1
1	2	3
51	52	4
71	83	2
3	5	5
75	75	2
8	14	1
67	67	5
68	83	1
98	100	4
24	24	2
5	5	2
98	99	3
56	64	2
44	44	8
119	120	1
82	108	3
63	97	5
9	9	3
84	84	2
130	130	5
92	97	2
90	92	2
0	0	3
20	23	3
33	33	2
105	109	1
29	29	6
62	107	2
116	117	3
16	16	5
35	69	2
25	33	5
97	116	3
46	57	1
36	50	5
4	12	1
135	135	1
64	64	3
120	129	2
122	123	4
62	63	2
68	80	3
61	64	2
97	104	2
70	87	1
16	19	1
110	115	2
130	134	5
100	100	4
125	125	3
19	30	2
58	74	2
79	97	2
102	102	5
36	37	1
101	101	8
96	122	4
93	100	1
91	103	3
26	26	2
31	36	2
91	92	1
58	101	1
11	11	1
71	74	4
81	87	1
6	27	1
129	132	3
120	120	2
60	60	4
32	32	1
26	33	4
72	98	2
107	107	4
95	95	5
8	8	1
71	97	2
68	68	1
87	87	1
99	128	2
85	85	2
121	121	2
30	30	3
6	9	3
120	127	2
78	79	1
123	124	2
132	132	4
66	66	3
4	4	4
96	116	3
38	38	2
13	14	3
1	10	1
67	74	2
111	130	2
73	89	1
64	86	6
71	77	3
18	39	1
133	134	1
25	27	1
46	46	1
5	24	1
14	14	4
103	124	2
123	123	8
56	81	1
85	108	1
111	119	1
112	113	2
17	19	2
50	50	1
51	106	1
113	118	2
19	19	1
89	121	1
111	128	4
43	43	3
10	25	3
89	89	2
122	122	5
118	118	3
17	17	1
92	101	2
62	84	2
79	82	1
54	66	2
46	55	3
73	90	1
54	99	1
100	104	1
5	7	1
63	81	2
66	77	1
18	34	1
128	128	1
125	126	1
53	53	4
119	119	2
86	104	1
8	21	1
53	65	2
2	26	2
45	56	1
93	98	1
57	78	2
26	42	1
71	89	1
30	45	3
130	131	1
92	122	2
17	18	1
14	15	2
127	127	2
134	134	2
65	68	2
74	74	3
102	124	1
12	14	2
3	12	1
55	74	2
35	35	1
98	110	1
0	29	1
62	80	1
29	30	1
91	95	1
126	126	2
8	25	1
45	57	2
107	132	1
117	125	3
78	80	1
10	11	1
38	64	1
36	36	1
72	91	1
3	24	1
34	44	1
77	77	1
112	124	1
82	82	1
66	87	1
109	113	1
106	106	2
112	112	2
115	130	1
80	85	1
108	126	2
83	85	2
99	99	2
60	61	1
4	7	1
106	133	1
2	9	1
58	62	1
60	105	1
10	10	1
92	109	1
101	122	1
78	93	1
49	52	2
24	25	1
3	9	1
79	79	1
