33	33	8
63	63	15
59	60	10
53	70	3
95	95	21
60	60	13
66	67	14
36	36	5
20	21	2
73	77	2
59	76	5
90	91	3
22	88	5
79	87	14
46	46	9
66	70	4
100	100	12
112	113	5
39	67	4
58	58	5
62	62	8
49	51	3
112	112	10
44	45	6
71	71	11
34	36	3
79	79	3
108	108	13
34	35	9
40	41	2
63	64	11
113	113	14
21	21	2
28	28	7
43	43	2
103	105	2
30	31	4
99	99	18
47	48	5
107	107	14
72	73	5
88	91	4
86	86	13
37	37	9
50	50	13
98	98	13
106	106	8
52	52	10
102	102	21
76	76	16
87	92	2
66	66	4
26	26	13
73	74	3
78	81	1
27	27	8
47	47	7
75	109	1
24	43	6
96	96	5
101	101	8
20	20	6
74	75	9
56	57	12
68	70	3
93	94	2
37	40	4
53	53	11
38	38	2
102	103	17
75	75	7
57	57	11
97	97	4
48	49	6
28	29	2
46	50	2
99	106	1
48	48	3
67	67	8
100	105	4
56	56	16
20	28	1
78	78	17
59	59	13
78	109	5
90	90	10
63	66	4
36	67	4
28	75	1
73	75	4
70	70	8
74	74	8
72	72	14
83	83	19
25	27	3
89	91	2
19	22	1
45	45	9
39	39	2
49	49	1
64	65	3
95	100	5
87	87	8
68	68	10
23	59	4
65	65	8
57	58	1
94	95	4
52	71	3
97	107	4
113	114	6
80	94	6
99	101	4
81	81	16
71	73	1
85	85	3
93	93	9
51	51	12
103	104	8
49	58	1
105	109	4
32	32	16
51	104	4
37	39	1
85	86	2
22	87	2
77	77	18
22	89	10
54	57	7
49	90	2
68	71	4
68	69	4
69	69	4
75	77	3
22	77	1
26	27	7
109	109	6
61	62	3
73	73	9
56	58	2
25	111	2
97	103	3
82	85	4
110	110	7
39	40	6
96	97	11
67	68	4
42	44	3
87	88	5
33	34	5
104	104	4
93	95	6
22	81	3
101	103	1
103	103	4
89	89	6
94	94	6
23	52	6
35	36	2
114	115	2
20	112	5
55	55	2
61	61	4
30	30	7
51	91	1
44	53	2
92	111	2
57	68	2
42	42	2
56	68	1
69	77	4
35	35	12
68	86	3
24	25	2
34	34	5
62	64	2
71	77	1
113	115	3
114	114	2
84	84	5
24	24	4
58	63	2
53	71	3
50	73	1
24	89	2
21	28	1
38	74	2
94	98	2
42	43	4
49	50	4
37	43	2
53	54	1
101	102	4
44	44	5
46	47	4
41	41	3
80	80	5
22	22	2
91	92	9
83	85	3
75	76	3
54	54	7
29	62	3
49	56	1
69	70	1
102	104	1
53	91	1
26	79	2
105	107	5
55	56	2
91	91	6
76	77	4
103	106	3
77	108	4
50	51	3
49	53	2
29	29	6
53	59	2
64	64	1
82	83	1
51	52	2
62	63	5
93	96	2
50	113	2
28	76	1
105	108	2
31	31	6
106	107	2
111	111	3
52	88	1
92	92	4
23	23	1
40	40	1
28	73	2
33	66	1
86	87	4
50	80	2
60	74	2
54	55	4
38	39	2
109	110	2
62	67	2
83	84	1
52	87	1
104	107	1
34	38	2
97	98	2
88	88	2
78	93	1
55	70	2
84	85	4
46	52	2
81	82	4
63	65	1
64	70	1
105	105	2
92	110	1
61	73	1
98	105	2
66	68	1
20	27	1
58	59	2
98	100	2
51	53	1
96	104	1
32	33	2
50	107	2
22	23	3
77	78	4
100	101	3
56	90	1
112	115	1
47	56	1
67	70	1
61	67	1
57	69	3
54	58	1
76	79	1
65	67	1
46	51	1
27	45	1
19	19	2
90	107	2
25	25	1
49	52	2
95	96	1
58	93	2
96	106	1
44	46	1
58	65	1
32	64	1
47	53	1
105	106	1
79	110	1
63	71	1
25	26	1
36	37	1
