40	40	10
38	39	1
135	135	20
110	133	1
118	118	9
81	81	4
94	94	3
107	107	4
16	17	2
21	21	3
92	104	3
13	17	1
2	3	2
4	33	6
136	136	6
97	97	1
131	131	1
126	126	7
7	7	4
66	122	1
109	109	5
24	25	3
85	85	7
153	153	7
97	100	2
6	6	4
6	7	3
11	11	6
18	19	3
133	133	6
77	77	8
50	50	3
90	90	3
73	86	3
6	9	2
137	137	2
24	24	7
41	43	3
80	82	5
96	96	4
30	30	2
34	34	1
151	151	3
12	12	5
22	23	1
119	119	4
129	129	2
28	28	3
139	141	4
48	48	6
145	145	2
125	125	2
45	45	3
49	50	2
51	51	4
72	72	4
152	152	2
128	128	5
141	141	8
74	74	2
127	127	3
27	28	3
149	150	2
113	113	12
135	146	5
3	82	1
105	105	2
122	122	5
78	79	2
82	82	3
68	68	3
22	22	6
110	110	8
29	137	5
20	23	3
127	128	2
78	78	7
19	19	2
103	104	2
65	65	3
134	137	1
41	41	4
20	20	3
147	147	2
132	132	6
49	82	2
10	10	2
25	115	4
108	108	5
104	104	8
138	138	3
40	41	2
18	18	7
126	127	5
23	23	11
3	5	1
28	29	1
17	19	3
68	69	2
149	149	2
36	37	1
41	46	1
16	16	1
147	148	1
66	68	4
23	24	4
55	57	3
96	97	2
56	57	1
53	54	2
55	55	3
106	106	8
101	127	2
18	21	1
135	136	2
93	93	2
21	23	5
83	83	4
30	32	1
86	86	9
72	73	1
47	47	3
13	13	6
39	39	1
130	130	2
144	145	4
3	3	2
24	136	1
66	66	8
70	70	4
76	82	4
3	81	2
101	101	4
124	125	1
85	86	2
75	75	1
138	139	6
116	117	2
146	146	2
80	81	2
108	109	2
112	136	2
145	146	2
52	67	5
47	48	2
106	128	4
4	4	3
134	149	2
125	127	3
25	25	1
8	9	3
109	130	1
26	26	1
12	20	1
132	134	1
41	44	3
63	87	1
64	65	2
67	67	2
37	37	1
123	124	2
93	123	1
91	91	2
25	26	3
26	142	1
15	16	1
117	117	1
9	9	5
98	98	1
73	73	2
14	14	1
81	84	1
96	106	2
109	110	2
94	106	1
32	32	1
85	118	1
15	17	3
90	91	1
73	119	1
26	136	1
93	94	1
69	121	1
39	40	2
150	150	2
26	115	1
46	46	2
105	121	2
85	119	1
31	113	1
71	73	2
89	90	2
57	75	1
74	76	2
80	80	3
111	111	1
50	65	1
92	105	1
26	27	1
17	17	1
142	143	1
114	114	1
42	43	1
7	78	1
27	27	1
112	134	1
64	64	2
103	103	2
23	25	1
31	32	2
123	123	3
77	82	1
5	9	1
68	120	1
92	92	1
134	134	2
66	67	1
43	43	1
120	120	1
112	112	1
56	56	1
106	107	1
27	114	1
34	35	3
142	142	2
19	20	1
134	141	2
122	123	1
102	102	1
55	91	1
45	46	1
26	113	1
130	131	2
62	62	1
14	15	1
78	117	1
100	101	2
85	88	1
91	104	1
5	5	1
21	151	1
87	87	1
