83	83	5
77	107	2
32	32	3
134	134	4
8	8	1
111	111	6
118	118	3
96	96	5
20	20	3
94	103	1
112	112	2
81	85	4
64	64	5
40	40	3
57	67	2
16	16	1
56	56	6
57	61	2
17	18	1
59	65	1
47	47	3
67	68	2
87	87	2
113	114	1
51	62	2
37	40	5
72	72	4
1	8	2
103	106	4
11	11	3
89	94	3
64	74	5
79	80	1
66	74	1
35	35	2
105	112	1
59	59	2
63	70	1
14	14	1
115	115	1
107	107	2
61	66	1
121	134	1
105	111	5
117	117	4
24	35	2
109	109	1
109	110	1
12	23	2
113	113	3
116	130	4
37	43	2
63	72	1
129	129	4
81	128	3
90	90	2
112	113	2
22	23	3
78	78	2
72	78	3
124	131	2
110	119	2
5	6	5
88	88	1
76	76	1
110	117	2
77	77	1
8	14	2
69	81	2
72	73	1
94	95	1
19	19	1
8	9	4
112	120	1
3	3	3
27	27	2
87	90	2
19	27	1
26	37	2
57	60	2
126	131	1
46	46	6
16	17	2
0	0	1
21	33	2
86	86	1
101	104	1
82	82	5
40	50	2
55	55	2
6	6	2
94	94	4
11	27	1
87	108	1
105	106	5
8	11	1
23	23	2
15	15	3
131	133	3
1	3	3
61	61	2
76	99	1
132	132	1
5	15	1
115	126	1
21	21	2
26	86	1
128	128	1
110	122	1
62	68	2
8	29	1
112	121	1
131	131	2
88	89	1
75	75	1
68	68	2
68	69	1
104	104	1
122	125	1
130	131	2
57	57	1
43	60	1
98	108	1
129	134	2
123	129	1
60	70	1
106	117	1
22	22	3
120	120	1
124	124	4
116	120	1
3	9	1
81	84	2
7	16	2
91	91	1
92	102	2
89	98	2
63	63	1
123	125	1
12	12	2
45	45	2
75	79	1
65	65	1
94	102	2
77	87	1
71	73	2
39	39	1
44	57	1
86	95	1
98	106	1
72	77	2
32	39	1
79	79	2
111	123	1
76	87	1
9	33	1
101	101	1
18	45	1
125	126	1
30	32	1
97	101	1
0	6	1
106	106	3
80	81	1
36	36	2
25	31	1
36	37	1
79	83	2
92	92	1
15	25	3
106	112	1
5	25	1
34	34	2
8	21	3
115	128	1
81	96	1
72	76	1
44	44	1
28	38	1
76	77	1
2	2	1
18	29	1
84	86	1
75	82	1
112	124	1
101	122	1
99	109	1
39	42	1
120	122	1
99	99	1
