115	115	2
70	70	2
183	183	8
95	116	3
239	240	2
80	80	6
204	204	3
181	181	3
8	8	7
173	173	3
8	175	1
18	18	3
152	152	8
76	76	2
161	161	2
65	83	2
36	93	2
222	222	9
96	96	3
10	10	6
26	26	7
214	214	11
20	20	3
6	11	2
118	118	2
218	218	5
175	175	5
160	160	3
17	35	4
60	79	3
2	37	3
237	237	6
176	177	2
1	36	3
159	175	5
94	169	3
234	234	2
89	89	4
37	38	5
92	93	1
207	207	3
169	170	1
81	81	2
21	21	3
211	211	6
9	9	2
189	189	2
37	37	4
208	208	4
67	219	2
187	187	7
179	179	7
55	55	2
156	156	7
236	236	2
99	99	1
179	206	1
173	225	1
108	108	3
246	247	2
3	6	3
215	215	2
185	217	2
171	171	6
52	52	9
85	85	1
243	244	1
194	194	3
62	63	3
48	48	4
36	101	2
7	7	4
69	69	5
90	90	2
95	96	1
41	41	1
145	151	1
198	198	7
25	26	1
199	199	2
197	197	1
119	119	12
184	236	1
46	47	1
185	186	6
47	48	5
190	211	2
235	235	5
70	71	2
46	46	1
96	104	5
162	162	7
14	14	3
225	225	3
65	65	2
111	168	1
13	14	5
165	225	1
172	172	3
79	79	7
240	248	1
110	110	6
38	38	4
167	179	1
212	212	5
21	24	2
107	107	2
92	92	4
25	25	3
40	52	2
58	218	3
100	102	1
193	193	3
167	167	4
109	205	3
77	77	1
193	195	1
91	91	2
69	72	2
102	102	1
62	62	2
230	230	3
182	182	6
181	191	3
170	203	2
1	52	4
104	104	5
94	94	2
10	214	2
201	225	2
153	154	1
33	33	7
80	81	4
238	239	3
242	242	1
31	31	4
164	169	1
244	244	4
97	105	1
117	117	7
172	175	1
220	220	5
164	165	1
11	11	2
12	12	5
101	101	5
42	42	2
43	43	3
151	151	1
187	188	2
232	233	1
178	178	3
191	191	1
186	187	1
42	44	1
109	110	1
51	51	1
201	201	5
224	224	4
160	170	1
23	23	4
100	103	3
163	164	8
60	61	3
201	203	3
34	42	1
30	47	2
45	46	4
91	92	4
46	49	2
150	150	2
147	147	1
161	162	7
43	76	2
190	192	1
118	172	1
103	103	3
93	93	3
247	247	5
166	167	3
112	176	2
90	93	1
228	228	2
68	69	3
54	55	2
182	199	1
5	5	7
214	215	2
179	203	1
116	116	1
177	177	3
29	40	4
239	239	3
96	113	3
41	75	1
169	169	1
109	109	1
113	113	3
246	246	2
17	19	1
113	201	1
6	53	1
9	31	3
163	163	5
238	240	1
82	82	4
63	63	1
184	184	5
38	39	2
6	178	4
95	164	1
111	111	3
240	241	1
34	58	2
176	178	1
71	73	3
9	40	2
210	210	4
112	118	1
150	234	2
67	75	1
99	100	1
218	222	3
78	78	4
217	217	1
180	180	6
226	226	5
158	163	2
90	201	1
157	164	3
183	243	3
36	36	3
165	165	3
30	30	4
78	79	1
186	236	3
14	57	1
112	164	2
164	168	1
53	53	4
6	6	1
226	227	1
190	190	2
68	68	2
211	241	2
165	168	2
210	241	1
174	174	4
99	107	1
114	114	1
3	3	2
203	203	2
188	188	2
57	58	1
120	120	2
9	206	1
103	105	2
6	7	1
182	195	1
66	66	2
213	213	2
17	20	1
181	182	1
60	65	2
69	81	1
238	238	2
184	186	1
1	99	1
98	98	1
35	67	2
29	30	2
43	79	1
114	214	1
159	159	2
168	168	3
149	149	1
180	181	1
90	91	3
27	27	3
206	206	2
146	146	2
4	15	1
35	35	1
102	177	1
158	177	1
86	86	1
195	199	1
28	146	1
232	232	1
153	153	1
40	203	1
47	47	2
240	240	1
208	209	1
75	76	2
96	97	1
120	207	1
176	176	1
78	81	1
101	110	1
90	92	1
40	40	2
19	19	2
7	35	1
14	65	2
93	94	1
218	219	1
56	56	3
145	145	1
192	192	1
111	177	1
15	15	1
97	107	1
81	82	1
216	216	1
228	229	2
28	28	1
219	219	2
229	231	1
97	98	1
109	228	1
178	195	1
186	186	1
91	226	1
1	1	1
172	225	2
224	226	1
38	169	1
112	163	2
106	107	1
216	223	1
107	121	1
84	84	1
74	76	2
63	64	1
37	39	1
170	180	1
112	112	1
199	200	1
35	47	1
50	50	1
207	215	1
101	103	1
205	205	1
0	0	1
74	79	1
88	88	1
22	24	1
86	95	1
34	34	1
116	171	1
32	32	1
235	246	1
47	62	1
181	187	1
33	179	1
29	120	1
236	237	1
