49	49	15
57	57	15
23	44	1
4	6	9
21	21	16
77	77	13
6	6	17
46	57	2
56	74	1
49	54	4
28	42	1
2	4	4
58	59	14
29	29	13
22	31	4
7	7	14
53	57	1
42	67	4
9	9	23
63	63	15
74	75	2
38	39	3
74	74	23
61	61	13
56	56	21
69	69	12
27	27	13
31	31	17
42	42	20
60	60	15
30	43	4
19	19	22
41	42	1
71	74	4
53	53	10
19	53	1
70	70	13
34	34	18
22	22	17
54	54	15
22	23	5
9	14	3
20	33	3
76	76	7
46	46	16
45	54	7
28	28	15
7	25	3
36	36	22
50	53	5
31	44	1
64	65	3
23	34	8
43	46	2
2	2	21
35	36	13
71	71	12
20	20	26
4	4	18
63	64	10
26	26	36
19	44	3
53	56	2
5	5	12
30	30	22
18	35	5
25	26	7
24	43	9
52	52	30
53	59	2
37	37	11
66	66	25
75	75	11
18	18	4
47	47	13
72	73	14
24	24	13
75	78	7
35	35	20
14	15	4
59	60	9
18	34	1
58	58	17
3	14	3
73	75	5
20	28	5
18	19	10
38	62	6
48	53	3
64	64	23
24	44	3
73	73	23
63	66	9
61	62	5
42	43	4
14	20	6
65	70	2
55	55	34
14	14	3
48	50	2
23	24	9
48	48	33
25	25	18
20	32	2
11	11	12
59	59	14
60	62	3
12	12	21
36	37	6
13	13	10
38	43	2
40	48	2
6	7	6
30	41	2
53	54	5
7	11	4
31	33	8
45	45	13
25	32	1
34	35	4
1	21	2
68	73	1
51	51	12
41	47	2
35	48	3
0	0	18
72	72	12
3	20	5
1	5	3
49	51	3
71	72	4
67	67	8
40	60	1
65	65	3
39	39	11
39	40	9
73	74	4
27	33	2
39	41	7
57	75	2
6	10	2
54	71	2
62	62	8
0	75	1
1	1	14
68	70	4
46	47	5
29	50	4
15	27	2
73	76	3
54	59	5
75	76	7
48	74	4
54	70	4
43	44	5
44	44	9
29	35	2
52	55	3
32	37	2
5	12	2
2	10	2
40	45	1
27	44	3
46	52	6
32	32	5
19	73	2
40	40	23
42	44	3
28	38	1
0	9	2
26	27	2
51	52	2
30	52	2
54	55	10
60	71	1
43	43	10
40	62	1
45	46	1
62	63	3
10	10	9
24	25	6
37	38	1
40	43	2
51	68	1
18	74	1
33	34	1
28	35	3
0	5	1
65	66	8
23	23	14
41	41	4
29	30	6
27	28	2
33	33	20
62	66	1
52	59	4
31	63	3
44	57	1
3	3	17
31	56	3
3	7	1
62	76	5
58	60	2
53	60	2
2	3	4
5	6	5
52	54	12
64	70	1
20	21	1
35	37	5
60	77	2
45	68	1
50	62	2
62	64	1
41	48	1
50	50	7
62	75	1
25	43	4
19	20	1
30	47	2
49	69	1
44	77	1
13	66	2
41	61	5
0	1	3
32	42	1
39	51	1
30	54	3
27	39	1
52	77	1
36	49	4
56	58	1
31	57	7
4	5	3
45	50	2
37	39	2
26	29	2
23	55	1
21	32	3
44	46	2
18	44	1
69	70	2
25	42	2
26	55	3
30	36	2
39	62	2
68	68	8
32	33	4
49	50	5
28	36	1
24	28	2
52	66	1
67	73	3
45	47	5
19	29	2
58	76	5
52	53	3
7	9	1
25	39	5
20	34	3
68	71	2
2	9	1
38	38	10
61	77	1
23	53	1
29	41	4
5	15	2
58	62	4
1	6	1
51	77	3
9	11	1
8	8	7
42	45	1
38	57	1
10	11	5
10	13	3
21	33	1
22	43	2
7	8	3
3	77	1
28	45	2
32	57	3
70	71	2
30	58	1
34	58	1
50	51	4
66	73	1
47	48	2
48	55	1
48	49	1
52	58	1
57	58	2
21	68	1
24	45	2
45	49	1
48	52	2
72	75	3
30	53	1
72	76	1
70	75	3
39	53	1
0	74	3
20	40	1
67	75	2
62	72	2
48	76	1
73	77	1
22	35	3
30	68	5
67	68	4
3	4	2
23	37	2
67	70	2
13	19	2
58	75	2
33	59	1
22	40	3
54	73	2
51	62	1
41	71	1
35	43	1
69	73	1
49	55	2
45	51	2
57	67	3
47	49	3
52	57	1
47	61	1
19	46	2
29	57	2
50	66	1
36	55	2
22	49	1
30	62	2
59	75	1
68	69	2
24	35	1
29	73	1
40	41	1
47	52	1
43	48	1
51	74	1
75	77	2
37	40	3
29	42	1
71	75	2
41	45	2
19	68	1
55	56	2
44	62	4
59	72	1
19	23	5
22	45	1
28	29	1
9	12	1
36	68	2
72	77	1
34	61	1
1	8	3
58	69	1
29	34	3
33	47	1
25	28	1
0	76	2
2	11	2
23	26	2
20	22	1
50	54	1
66	72	1
18	27	1
48	54	2
23	35	1
24	27	1
37	73	1
47	56	1
56	57	1
71	73	1
35	49	1
55	65	2
27	30	1
63	67	1
63	65	1
55	57	2
50	56	1
67	69	1
43	45	1
68	72	1
52	68	1
22	37	1
62	67	1
23	46	1
23	48	1
11	12	1
8	9	2
34	62	1
30	56	1
51	71	1
42	71	1
56	73	2
33	41	1
70	73	1
76	77	1
36	38	1
22	34	1
39	44	1
