46	46	3
170	170	4
101	101	5
96	97	2
45	112	3
188	188	1
12	120	1
193	193	6
148	148	7
80	80	5
110	110	3
54	54	2
95	95	2
170	185	3
109	109	3
173	174	3
127	127	4
93	94	2
66	66	2
33	33	4
12	12	2
14	15	8
94	110	2
12	16	1
0	25	2
55	56	2
15	16	2
1	18	4
35	35	6
159	160	2
69	74	2
173	187	4
38	38	3
64	64	1
79	79	7
58	58	5
172	175	1
149	149	4
151	151	2
1	1	2
108	108	7
13	13	3
107	108	3
99	99	2
163	164	1
87	87	1
194	194	3
3	3	4
153	153	4
79	80	2
165	165	2
7	7	6
98	98	4
67	67	1
109	110	4
24	24	3
162	162	1
20	40	2
19	20	2
74	74	3
47	47	10
21	21	3
159	159	1
40	40	3
137	137	4
160	160	1
43	43	5
26	26	6
54	55	4
186	186	2
37	74	1
169	169	6
185	185	2
27	27	7
139	140	1
86	87	4
114	114	4
42	44	4
52	58	6
173	186	3
29	29	2
101	111	5
135	139	6
4	4	3
136	137	2
74	76	1
156	156	1
49	49	2
16	16	1
2	2	4
41	41	5
176	176	5
133	177	4
164	167	4
192	193	2
145	146	2
85	85	7
16	24	1
25	25	2
84	89	2
28	28	1
167	169	3
68	68	2
177	177	2
125	184	1
53	55	1
86	86	1
103	103	3
17	17	11
15	15	5
111	112	2
44	76	1
22	25	1
19	19	10
144	145	2
9	40	2
120	120	3
75	76	3
150	150	4
36	36	1
105	105	1
187	187	1
87	88	2
142	142	1
67	68	2
190	191	2
166	167	4
131	160	1
8	10	1
195	196	2
12	13	3
22	27	2
2	41	1
100	100	2
116	116	1
192	192	1
134	156	2
179	179	1
78	81	2
149	150	2
18	18	1
65	82	1
98	99	3
76	76	2
28	30	1
14	113	2
138	151	5
30	30	2
31	71	1
139	139	3
115	115	6
117	117	2
65	65	5
11	181	1
44	44	3
55	55	2
157	161	2
73	73	1
143	143	3
168	179	1
26	27	1
78	80	1
11	11	2
157	163	1
48	48	1
9	10	2
142	159	1
186	187	1
187	188	4
41	97	3
43	89	1
6	6	2
61	67	1
78	78	1
70	74	3
0	180	3
104	106	1
85	86	1
175	187	2
191	191	1
9	9	2
19	24	2
132	132	2
3	114	1
48	64	3
172	172	1
123	124	3
133	133	3
152	152	1
180	181	1
183	183	2
88	88	1
182	182	1
106	106	2
51	51	3
23	23	2
69	69	1
167	167	1
124	124	2
51	63	2
29	78	2
52	57	1
70	73	1
97	98	2
166	166	3
97	97	1
42	42	1
154	154	1
116	117	1
125	126	1
161	161	3
70	78	1
61	61	1
52	53	3
78	79	1
82	82	2
183	185	2
132	133	1
138	138	1
161	163	1
23	24	1
119	120	1
173	176	1
196	196	1
120	121	1
50	63	1
50	51	1
43	110	1
9	11	1
11	97	1
164	178	1
48	49	1
79	81	1
