98	99	1
10	15	2
107	107	3
16	16	1
119	119	10
37	37	2
102	113	6
136	136	3
84	85	1
115	115	10
116	117	4
83	93	6
22	22	7
24	25	9
3	3	6
15	15	8
130	130	4
26	26	2
22	24	5
101	115	1
122	122	13
102	102	5
30	30	5
77	78	9
21	22	4
1	1	8
20	26	3
118	119	2
7	7	7
73	73	13
75	75	5
36	36	2
16	18	9
10	10	7
107	124	2
35	35	5
114	123	2
5	6	3
12	13	6
71	71	8
111	111	6
100	100	3
78	78	4
120	120	5
114	114	6
117	117	5
113	118	3
139	139	4
124	124	2
0	1	3
94	94	4
79	79	5
83	84	4
128	128	5
80	88	3
28	28	3
23	24	7
18	18	6
90	91	3
112	113	6
116	123	5
125	126	2
25	25	5
127	130	1
108	125	2
90	90	2
101	101	1
72	73	7
20	20	9
81	88	4
93	94	6
109	109	3
31	32	4
123	123	8
103	103	9
4	7	2
118	118	7
21	21	4
84	84	5
105	105	4
4	4	9
74	74	4
126	126	2
23	23	7
96	127	2
2	2	4
17	18	1
12	12	3
125	125	2
24	24	5
19	25	4
91	91	3
75	76	4
109	111	3
96	97	5
78	88	1
17	17	7
6	8	2
112	123	1
82	82	3
86	129	1
12	14	1
77	77	3
83	83	4
76	76	3
93	93	12
0	0	3
99	100	3
89	89	4
127	127	7
20	21	1
81	90	3
27	27	2
81	81	4
135	135	5
22	44	1
102	103	5
108	108	3
114	124	1
36	37	2
32	32	6
113	114	2
9	9	3
19	19	3
27	38	1
34	34	2
28	31	2
116	116	8
7	18	1
38	38	4
2	11	3
97	97	1
7	19	1
83	86	3
89	91	2
112	112	4
104	104	1
100	101	2
88	88	1
117	122	2
0	11	1
120	121	1
121	121	3
13	14	3
110	110	4
116	124	1
102	112	1
115	116	2
97	127	1
75	77	2
129	129	5
114	115	1
14	14	3
22	23	2
102	104	2
9	18	1
107	108	2
112	116	2
35	36	1
29	29	3
86	86	1
96	96	1
98	98	3
10	12	3
79	92	1
80	80	1
99	126	1
100	125	1
131	131	2
11	12	1
12	15	1
0	2	3
32	38	1
34	35	1
26	72	1
140	140	1
6	6	1
117	118	2
96	118	1
132	132	3
29	31	1
79	80	1
96	123	1
136	139	1
134	134	1
85	85	1
121	128	1
28	30	2
99	99	1
28	73	1
31	31	1
86	87	1
82	84	1
5	5	1
5	8	1
104	107	1
