137	138	5
113	118	1
27	27	10
11	11	8
25	25	1
126	126	3
48	49	2
90	91	6
119	120	5
6	7	4
142	142	2
26	27	2
122	122	1
67	70	1
48	48	5
70	93	2
114	114	3
16	42	1
12	12	2
92	92	2
151	155	2
146	158	2
91	92	3
113	114	3
8	8	9
108	139	3
117	117	1
104	104	4
4	21	2
144	144	3
32	32	2
99	100	2
40	41	3
33	44	1
38	38	7
30	30	7
19	19	5
84	91	2
107	118	2
28	28	5
134	134	2
131	131	4
78	94	1
84	85	1
153	154	1
110	111	2
155	155	6
70	84	2
117	125	1
2	2	2
84	84	2
44	44	2
64	65	2
66	72	3
95	96	1
146	150	1
115	117	4
96	96	1
85	85	2
82	83	4
8	9	2
89	107	1
49	52	1
16	26	3
69	69	3
22	43	1
146	146	4
19	41	3
115	116	5
122	130	1
18	19	1
112	112	5
80	81	2
87	87	2
132	137	1
45	54	1
80	94	1
37	37	5
10	10	3
119	129	6
139	139	1
7	32	3
97	97	2
77	77	5
80	82	3
143	158	1
105	154	2
121	133	2
79	79	5
5	6	3
6	6	4
23	24	2
86	87	1
21	43	3
150	155	1
102	157	1
21	21	3
43	43	5
129	129	1
91	91	4
53	70	3
7	38	1
116	116	2
46	46	2
90	90	3
56	56	1
147	147	2
156	156	2
44	92	1
96	157	2
119	119	1
78	79	2
122	123	2
113	113	4
24	25	1
114	156	1
118	120	2
53	111	2
153	153	1
88	88	3
106	151	3
105	105	2
152	152	1
41	41	2
42	43	3
129	131	1
0	0	2
136	136	1
12	13	1
68	69	1
85	86	4
138	138	3
121	138	2
78	80	2
120	122	1
107	107	2
52	65	2
27	29	1
18	32	1
7	7	4
36	36	5
45	45	2
83	115	1
98	157	1
51	51	2
87	91	1
14	14	1
75	93	2
39	39	4
9	11	2
120	135	1
113	142	1
34	43	1
83	84	2
44	50	2
126	127	1
89	89	4
102	120	1
52	53	1
76	76	2
68	68	1
88	111	3
133	134	1
122	124	1
65	82	1
24	47	1
26	37	1
123	124	1
67	67	1
61	62	1
80	110	1
83	83	2
151	151	1
110	151	2
15	20	1
133	133	2
100	100	1
13	14	1
140	140	3
83	128	2
147	148	1
35	39	1
131	135	1
22	22	2
17	18	1
54	54	3
23	23	1
137	145	3
108	108	3
51	52	1
150	154	1
128	132	1
2	25	1
75	75	1
98	98	1
100	101	1
110	110	2
139	140	1
52	142	2
72	72	1
97	156	1
141	142	1
118	122	2
20	20	1
38	39	2
88	147	2
124	124	2
81	94	1
123	123	1
88	146	1
41	42	1
65	65	2
99	128	1
156	157	1
45	46	1
120	126	1
52	69	1
99	129	1
20	41	1
62	159	1
66	66	1
121	128	1
1	22	1
119	123	1
42	42	1
13	40	2
51	70	1
115	115	1
143	144	1
86	86	1
103	103	1
63	63	1
