48	49	7
73	73	11
71	71	32
84	84	17
68	68	26
77	77	26
50	50	7
48	48	12
60	61	5
46	46	7
72	72	16
100	100	4
28	32	1
101	101	10
33	33	16
79	79	28
73	75	3
22	80	4
76	76	15
37	37	14
24	24	13
40	40	12
80	80	22
81	84	3
32	32	5
68	72	5
66	66	21
63	69	1
65	65	31
83	86	4
91	91	4
87	87	19
92	92	10
39	39	12
90	90	7
34	34	8
89	89	6
64	64	31
83	84	6
94	94	10
43	44	6
50	51	2
96	96	13
74	74	29
29	29	3
52	52	6
99	99	11
99	100	4
52	54	5
68	69	7
25	25	13
59	59	11
69	71	4
63	63	30
84	88	3
102	102	3
26	26	8
85	87	3
83	85	8
55	55	7
98	98	10
88	89	3
91	101	1
71	72	3
83	83	16
97	97	8
41	41	1
75	75	19
20	48	2
74	76	5
63	64	9
36	36	4
67	67	26
45	45	6
60	60	3
70	70	8
50	101	4
58	58	4
86	86	12
27	27	11
44	44	15
70	71	4
91	92	8
85	85	14
88	88	21
64	71	3
57	57	2
95	95	19
62	63	10
61	61	12
93	99	1
34	86	3
97	98	7
70	73	5
35	35	2
51	51	5
47	47	9
43	43	5
44	101	1
52	53	3
90	93	4
73	74	6
82	82	5
67	72	4
41	90	3
36	37	6
78	78	7
40	90	1
23	24	3
94	100	3
49	49	9
81	81	11
53	53	16
52	60	2
69	70	5
34	35	3
81	82	3
82	87	2
41	93	4
31	31	3
54	54	6
54	60	4
30	79	1
22	22	6
66	74	2
76	77	4
86	87	12
25	26	2
85	86	2
27	33	3
38	39	2
22	23	2
67	68	2
65	66	6
24	25	4
74	75	11
56	56	6
38	87	1
67	78	5
33	87	2
84	87	1
66	68	5
77	78	1
28	28	5
38	38	3
35	36	4
94	95	1
92	101	4
68	70	6
90	91	2
36	38	2
62	62	4
40	41	2
87	88	5
42	43	2
27	29	1
96	98	3
29	80	3
92	93	5
100	101	2
93	93	4
46	47	3
33	81	4
80	81	2
52	61	5
55	56	3
69	69	3
52	63	1
23	80	3
93	94	4
58	59	1
26	27	2
47	48	2
48	50	1
40	42	1
29	79	2
49	50	2
44	45	2
33	84	1
40	89	2
56	57	2
95	97	2
66	67	1
39	89	1
34	87	2
62	89	1
41	99	1
57	58	1
63	79	3
33	80	1
