31	31	11
104	104	4
122	122	3
72	73	2
99	99	1
123	129	3
115	116	2
46	46	13
93	93	8
15	48	2
56	56	2
27	28	4
84	84	5
29	30	2
27	27	6
4	44	4
3	85	7
76	77	3
18	18	7
59	59	5
23	24	5
126	127	3
109	109	14
102	102	3
107	122	6
18	134	5
127	131	2
95	95	6
1	1	3
16	16	13
61	61	11
37	39	3
28	32	4
20	20	7
77	85	2
129	131	4
111	111	10
101	108	3
125	134	3
106	106	6
101	101	4
90	90	3
108	108	5
21	22	3
118	118	4
38	38	6
126	126	11
7	22	2
15	16	4
7	7	12
117	117	7
113	114	5
120	120	7
22	22	1
23	23	3
12	12	7
91	91	3
19	19	4
116	116	8
115	115	6
33	33	3
15	15	11
57	57	6
110	110	2
45	45	8
79	79	13
97	100	1
30	30	9
83	83	7
68	69	3
77	77	8
13	44	4
128	129	2
34	35	3
19	105	10
60	60	5
65	77	6
123	126	4
32	33	1
124	125	2
39	40	2
123	123	10
92	93	4
39	39	1
83	84	1
68	68	7
113	113	14
19	24	1
2	2	5
72	72	4
26	26	2
42	42	6
103	104	2
47	47	4
64	75	1
4	4	5
25	25	5
47	118	4
124	124	3
58	58	6
13	13	2
8	8	5
91	92	3
107	107	5
63	95	2
133	133	6
23	78	2
71	71	7
92	124	3
95	102	2
67	67	2
68	71	4
119	120	1
70	71	2
2	71	2
12	13	6
15	112	1
119	119	5
70	72	5
16	105	1
33	34	4
71	72	3
134	134	2
75	75	5
17	17	8
9	13	3
73	74	2
93	96	1
82	82	7
129	129	3
10	84	2
93	107	1
29	29	3
16	47	2
65	65	6
14	14	5
9	84	3
35	35	3
86	86	6
5	5	2
81	81	4
85	85	3
94	128	3
32	32	3
125	125	4
45	117	5
120	122	2
94	94	3
112	112	3
37	38	6
70	70	4
66	66	2
34	36	2
15	17	2
26	29	3
87	88	4
38	39	1
48	48	5
78	78	6
45	46	1
58	59	2
45	82	2
92	132	1
104	111	2
69	69	4
98	98	4
22	25	1
96	96	4
107	108	2
105	105	1
58	95	1
22	23	1
35	36	4
21	26	1
62	62	4
37	37	7
76	76	5
84	85	1
124	127	1
84	86	3
13	14	1
78	82	2
124	134	2
56	95	1
15	19	1
117	118	1
4	86	1
11	11	3
35	114	1
43	113	2
123	125	2
49	103	1
124	126	2
123	124	1
47	49	1
28	29	2
0	2	2
81	89	1
56	91	1
34	37	2
83	86	2
57	94	1
19	133	1
94	95	1
41	41	2
64	64	3
59	60	2
24	24	2
58	60	3
79	88	1
48	105	1
17	125	2
73	73	1
36	36	1
103	111	1
36	39	1
57	58	1
77	78	2
99	102	1
6	7	1
43	43	1
55	91	1
94	126	2
9	11	1
63	63	2
20	43	1
129	130	2
19	106	1
36	113	1
7	87	1
6	6	1
8	13	1
38	40	1
17	134	1
102	109	1
14	45	1
74	74	1
