89	90	7
76	77	4
46	46	5
60	61	3
68	68	15
81	81	3
94	94	2
63	63	36
61	61	16
64	64	22
51	74	1
22	22	5
70	70	17
71	71	15
58	60	5
62	62	18
74	75	10
57	57	21
59	59	7
67	67	23
65	65	24
34	34	9
89	89	26
86	86	11
60	60	8
77	77	24
88	88	14
91	91	6
41	41	16
35	53	7
51	51	9
69	69	16
45	100	1
44	44	14
82	82	3
85	85	15
40	57	2
48	49	5
93	100	2
20	38	5
56	57	4
99	99	10
74	74	22
30	30	2
23	45	2
93	93	4
66	66	10
39	39	4
52	52	5
38	38	8
62	72	1
71	72	2
85	87	3
102	102	12
56	56	9
35	37	1
96	99	1
45	47	4
41	42	9
26	26	4
80	81	12
25	25	11
27	27	2
42	42	8
101	101	3
69	71	8
73	100	3
88	98	4
75	85	3
28	28	6
83	83	8
73	73	15
72	73	7
43	43	10
80	80	18
94	95	3
77	80	6
32	51	3
29	29	6
44	50	4
37	37	3
58	58	3
75	75	23
69	70	8
72	72	15
92	95	2
26	91	1
74	86	1
78	78	13
94	96	2
68	69	8
101	102	2
73	85	4
37	94	1
45	45	3
30	52	3
65	66	7
90	90	5
26	28	4
87	88	7
40	40	3
45	85	4
73	74	4
85	86	3
68	86	1
75	90	2
46	48	3
84	84	6
40	41	2
45	46	1
39	40	2
23	49	1
53	53	6
87	87	8
67	71	1
63	65	1
55	56	3
32	96	1
76	76	11
75	77	1
57	78	1
99	100	1
54	54	6
33	33	5
48	59	3
80	83	1
77	78	2
55	55	2
46	47	3
24	24	7
75	86	2
81	89	2
50	50	8
100	100	5
95	95	1
31	31	2
74	90	1
55	72	2
68	70	1
38	39	2
66	67	2
47	47	2
49	49	3
24	101	4
22	26	3
35	36	1
67	68	7
30	72	2
92	92	7
33	34	2
30	35	2
36	37	2
50	51	3
48	48	7
52	53	2
25	28	3
88	89	2
83	84	3
91	96	2
89	93	1
51	52	2
35	35	3
47	48	1
79	79	5
63	64	1
51	78	2
66	68	1
26	27	4
52	57	1
42	56	1
31	33	2
57	58	1
87	101	2
86	92	2
96	97	2
79	80	2
51	56	3
72	74	1
32	32	1
97	98	3
21	23	2
64	65	1
20	20	2
64	69	1
37	38	1
40	59	1
79	84	1
98	98	5
64	83	1
87	97	2
86	88	2
27	92	1
49	50	2
67	77	1
27	91	2
31	32	1
76	89	1
80	82	2
36	36	1
23	26	1
53	54	1
57	70	1
20	21	1
94	97	1
75	76	1
92	100	1
22	46	1
81	83	1
32	97	1
91	92	1
67	74	1
