139	139	10
5	5	7
31	89	1
129	129	15
27	125	3
106	106	6
84	84	4
68	68	7
148	148	8
29	29	19
125	126	9
4	42	1
85	86	2
25	41	4
108	131	2
66	70	7
11	12	6
75	75	10
94	94	4
68	71	2
1	1	15
87	116	8
145	145	12
56	56	10
126	127	7
44	44	8
36	36	15
64	64	3
134	134	8
51	51	10
141	142	5
124	126	5
37	49	6
124	124	10
154	154	3
127	127	14
138	138	19
6	7	5
30	30	15
132	133	2
13	13	2
90	90	5
49	71	3
139	140	1
128	128	4
28	28	11
115	115	4
138	139	1
34	49	7
117	117	7
113	113	8
96	96	14
77	78	6
108	108	13
140	140	1
40	40	7
15	16	6
120	120	8
96	129	1
27	27	11
25	26	2
140	145	7
18	19	3
116	118	1
92	94	1
152	152	3
66	66	13
15	15	7
114	115	7
24	25	10
3	3	2
2	2	8
23	40	1
34	34	9
53	53	4
95	95	3
83	114	5
37	68	3
104	105	4
143	143	2
157	158	3
130	130	9
16	16	12
71	71	4
98	98	5
77	77	2
112	112	9
26	126	3
91	92	2
26	26	10
106	156	4
11	11	10
150	153	12
116	116	1
130	151	1
151	151	4
21	21	5
33	33	2
0	0	4
8	9	10
109	109	7
105	105	9
28	45	1
39	39	11
137	137	3
54	54	4
92	92	13
154	156	2
69	69	5
14	24	1
15	24	2
78	78	16
126	126	7
52	52	7
91	91	6
12	12	3
47	47	8
82	82	3
79	79	7
64	70	3
23	23	11
10	10	3
23	42	3
111	111	7
27	38	1
48	48	10
130	131	2
75	89	6
133	133	7
18	18	7
147	147	6
76	77	2
13	15	5
116	119	1
114	114	7
134	135	3
21	22	3
41	46	3
131	134	3
29	97	2
129	151	4
30	31	6
140	141	3
92	93	7
87	90	4
72	73	2
47	69	2
86	86	2
81	81	7
29	30	3
125	125	10
103	103	16
72	72	2
7	7	3
43	43	3
4	4	4
138	141	1
42	42	4
107	133	1
32	50	9
111	112	1
37	37	3
119	141	6
25	25	2
103	104	2
141	141	9
146	146	5
122	123	1
83	91	4
32	32	6
119	120	6
31	31	9
118	120	2
101	101	7
62	63	2
52	54	2
144	144	8
102	102	7
8	8	8
135	135	6
22	22	8
83	94	2
107	111	2
93	93	6
28	29	2
76	76	3
128	129	4
110	111	1
37	67	5
25	27	6
50	54	6
100	101	1
141	145	1
123	123	10
69	70	2
85	114	4
3	14	4
54	55	2
110	145	1
10	11	3
129	130	4
150	151	4
35	35	3
80	80	1
112	114	4
67	67	5
53	62	3
97	106	1
38	38	2
87	88	6
27	29	2
20	20	3
87	87	2
6	6	8
153	153	1
97	105	5
86	113	1
18	22	1
98	99	2
46	46	2
155	155	3
158	158	2
20	21	2
125	157	1
86	115	2
66	72	2
97	97	6
27	120	3
131	133	5
9	10	3
117	120	7
148	149	1
81	89	5
88	94	3
73	73	3
50	50	7
39	40	2
150	150	5
122	122	10
88	88	1
155	156	4
73	74	5
51	88	2
33	50	3
65	65	7
33	49	2
141	146	1
12	13	2
155	157	4
120	121	2
131	131	2
85	115	1
53	85	1
104	104	4
115	141	2
19	19	3
121	121	1
30	120	2
119	119	3
79	133	2
79	80	1
90	91	3
110	110	7
49	49	1
70	70	3
146	147	1
116	145	3
145	147	3
50	51	4
107	108	1
136	136	1
143	148	1
82	140	1
24	24	2
57	62	1
86	87	2
35	36	1
152	153	2
84	88	1
4	5	2
136	137	2
102	103	2
63	64	1
1	101	1
56	68	1
23	25	1
79	131	1
107	109	1
51	54	4
9	9	3
36	48	1
14	16	1
34	50	3
49	54	1
96	151	2
53	54	2
83	83	2
15	43	2
26	39	3
123	124	3
2	13	1
37	61	1
95	96	2
51	52	1
137	140	1
107	107	3
14	14	1
135	136	1
115	116	1
121	122	1
119	121	1
86	116	1
22	26	2
18	20	2
23	24	1
50	55	3
64	65	1
99	99	3
70	71	1
52	53	1
85	85	1
56	67	1
100	100	1
156	156	3
83	140	2
36	69	1
93	113	1
76	82	1
26	124	1
109	132	1
157	157	1
107	132	2
150	154	1
142	142	1
144	145	1
52	87	1
55	66	1
41	41	1
