25	25	7
49	58	3
69	69	5
50	57	1
9	56	3
52	58	1
57	57	4
6	6	5
60	72	3
53	58	4
47	47	10
30	31	9
77	77	11
2	6	4
88	88	4
80	83	3
53	67	1
1	16	1
24	30	2
71	73	5
20	31	1
14	17	1
82	82	5
1	17	3
76	83	2
63	63	3
65	65	6
85	85	2
19	21	5
81	84	1
76	77	6
66	73	1
27	27	3
20	64	3
62	62	11
72	82	3
79	79	6
90	90	1
46	63	3
4	15	4
49	65	4
62	71	2
53	57	2
74	89	4
10	74	1
64	73	4
86	86	2
0	0	9
20	20	10
79	83	1
5	24	2
65	68	5
10	10	11
7	8	4
19	19	4
27	33	4
80	80	2
81	82	8
54	66	1
22	29	3
47	61	10
77	78	4
64	81	3
68	76	4
60	67	2
27	31	1
4	13	2
66	80	2
17	27	1
63	67	2
57	59	2
21	51	5
7	7	6
15	15	3
78	79	3
73	73	6
28	28	2
71	71	5
72	87	1
17	17	8
64	85	4
6	7	5
62	77	2
53	54	4
66	70	4
4	7	2
5	7	4
56	65	3
53	64	5
49	50	3
77	79	3
76	88	9
0	1	2
55	55	4
9	9	5
66	77	3
66	67	3
84	86	5
81	89	3
19	27	3
4	4	8
48	52	3
64	71	3
3	3	8
83	83	6
30	30	4
57	61	2
17	22	1
81	81	4
78	86	5
46	46	5
81	86	5
87	87	7
68	68	4
68	84	2
52	64	3
62	64	2
82	85	1
2	12	5
72	73	4
48	50	5
29	29	1
1	1	7
24	24	1
60	68	6
3	11	3
16	23	1
48	53	1
8	10	1
56	56	7
8	8	4
84	84	1
9	22	6
69	88	1
19	25	1
81	83	3
61	67	2
19	20	5
47	56	1
25	33	1
22	22	3
64	69	5
58	58	3
21	21	3
12	19	4
64	74	2
61	70	1
49	49	4
11	51	1
6	9	4
58	64	2
0	9	2
74	75	2
17	19	4
55	60	1
46	52	1
48	49	1
16	24	1
1	6	2
85	86	2
67	83	3
76	76	2
86	88	3
89	89	5
6	8	1
1	13	4
67	86	1
71	85	2
74	74	4
81	87	4
68	73	2
31	31	3
55	59	2
50	50	3
62	75	1
48	58	1
3	10	1
67	73	4
21	26	2
80	82	1
14	15	1
26	26	2
14	27	4
49	51	3
25	47	1
7	54	1
19	30	2
60	76	1
78	82	1
72	72	3
75	78	1
73	74	1
27	28	2
79	82	4
77	82	4
78	80	1
69	82	1
59	67	1
83	89	1
60	84	3
23	26	2
68	71	2
29	31	3
57	60	1
75	75	1
31	34	2
85	87	1
7	19	2
18	24	1
78	78	2
3	5	4
73	86	1
56	60	1
59	71	1
13	14	3
46	51	2
22	32	1
2	5	1
83	85	2
5	5	1
52	75	1
69	79	1
59	62	2
74	79	2
50	51	1
64	64	2
47	53	1
53	53	1
75	80	1
9	24	2
3	4	1
47	48	1
58	66	1
88	89	2
12	12	2
63	75	2
53	56	2
59	84	2
60	60	2
67	67	1
47	58	1
60	65	1
59	60	1
11	11	1
54	55	2
83	88	1
2	10	1
70	72	1
79	80	2
81	85	1
77	83	1
54	54	2
14	16	1
46	48	1
61	61	3
21	65	1
63	78	1
76	78	2
6	20	1
9	11	2
87	90	2
25	27	1
68	83	1
6	22	1
7	12	1
