67	67	10
78	80	5
68	68	12
66	66	17
42	43	4
91	91	7
75	75	18
75	76	3
61	69	2
96	96	13
66	85	4
80	81	5
71	72	11
74	74	10
55	55	8
37	37	9
77	90	3
90	90	6
39	39	6
89	89	19
36	36	6
22	22	4
78	78	13
45	78	3
86	86	9
52	52	8
69	70	5
59	72	2
64	64	10
76	76	20
94	94	13
72	72	11
56	57	9
65	65	6
73	73	7
32	42	9
38	38	11
73	76	3
86	87	8
95	97	7
98	98	2
59	59	9
92	92	19
41	43	1
89	90	4
84	89	1
70	71	5
58	59	3
49	50	5
66	68	4
69	69	3
43	46	4
84	84	3
69	71	3
46	47	1
93	93	8
57	57	13
63	63	28
54	61	2
70	70	12
68	69	6
66	78	3
69	87	3
40	40	5
98	101	4
84	98	1
74	75	8
30	40	1
83	83	3
40	42	5
90	91	8
31	31	4
79	79	9
29	29	6
33	46	3
60	60	6
48	67	4
25	36	3
55	60	1
85	85	9
80	83	1
55	56	6
21	23	2
67	70	4
35	35	9
51	51	14
56	58	2
46	46	4
35	36	3
66	67	8
85	86	7
102	102	2
27	27	10
80	80	13
71	73	4
88	89	3
93	94	1
48	48	5
66	77	2
81	82	6
43	43	9
83	94	2
75	77	2
58	58	3
56	56	6
57	59	1
87	99	1
33	40	1
49	53	2
25	25	1
71	71	16
33	62	1
34	35	2
79	97	2
23	24	2
99	100	5
52	53	2
27	53	4
95	98	3
74	76	2
94	95	1
84	85	1
62	63	6
62	62	4
80	94	5
25	34	7
32	32	1
77	77	14
61	61	11
23	45	2
40	46	2
60	76	1
46	58	3
44	44	9
28	28	2
67	83	1
54	55	2
82	82	6
22	25	1
48	49	2
53	56	4
68	70	2
25	38	1
26	26	3
95	96	1
95	95	6
100	100	5
24	45	2
65	66	2
93	95	1
26	53	2
73	77	1
81	81	4
87	88	2
41	42	1
20	20	5
33	33	10
44	45	1
29	62	1
60	62	2
42	42	2
61	88	1
30	31	4
67	68	1
90	96	2
37	41	2
52	74	1
95	99	1
79	81	2
87	87	5
69	72	3
99	99	4
48	93	2
23	23	3
63	87	5
49	49	3
77	81	4
88	98	1
84	99	2
96	98	1
81	83	2
34	34	4
100	101	2
78	79	5
65	67	2
85	89	2
66	88	1
62	64	1
56	77	1
51	56	1
42	65	1
72	76	1
77	79	2
84	87	1
26	27	3
81	93	1
32	39	1
25	26	5
77	78	1
77	85	1
67	71	1
39	48	1
50	70	2
70	72	4
59	90	1
62	79	2
92	93	3
54	54	2
47	53	2
66	72	3
55	63	1
44	54	1
101	101	1
54	65	1
46	49	1
89	96	1
47	47	4
84	88	2
91	93	1
39	40	1
80	88	1
56	76	2
61	62	2
77	86	2
79	84	1
80	90	1
63	64	1
36	38	1
50	50	1
73	85	1
83	89	2
77	83	1
37	38	1
26	55	1
49	66	2
89	93	2
66	86	1
93	98	1
41	41	5
60	72	1
92	95	2
46	48	1
29	32	1
61	77	1
53	61	1
44	57	2
23	58	1
39	66	2
73	74	1
38	39	2
91	97	1
49	74	1
88	88	1
90	93	1
63	90	1
72	77	1
74	85	1
30	30	1
77	80	1
42	47	1
40	50	1
27	46	1
