52	79	2
211	217	2
133	133	4
234	235	3
135	135	4
117	122	3
115	121	1
55	84	4
40	40	6
192	196	5
53	57	2
134	134	4
0	20	4
170	187	3
139	142	5
184	195	2
131	131	5
51	53	2
43	45	1
12	26	2
19	19	3
212	223	2
134	138	1
162	165	2
84	85	5
55	55	2
202	204	2
228	233	3
218	218	4
176	179	2
195	195	5
78	80	5
96	96	3
32	33	2
170	172	2
62	62	7
21	40	2
213	241	4
159	198	3
69	70	2
230	230	5
43	43	7
116	118	3
103	106	1
146	146	5
12	60	6
13	13	2
82	82	1
7	13	4
231	233	2
65	67	7
199	205	1
59	59	2
20	20	2
64	64	1
230	234	3
3	24	2
107	107	6
129	137	1
204	204	3
148	150	8
156	158	4
119	133	4
65	65	1
57	60	1
57	57	2
41	51	3
86	89	2
61	61	2
33	48	3
8	14	2
120	120	2
129	140	2
182	191	1
11	11	1
231	237	5
153	178	1
166	175	3
204	212	2
40	56	3
161	172	3
172	182	1
64	83	4
2	2	4
106	121	2
2	20	6
24	39	2
177	177	10
4	4	3
36	47	1
7	7	1
44	44	1
116	123	1
56	62	2
206	206	4
19	21	2
220	220	4
137	137	3
232	232	1
223	237	2
21	47	2
118	118	3
86	86	2
142	142	5
98	100	1
15	19	3
2	12	1
187	188	1
20	39	2
40	46	4
210	210	1
48	59	3
220	227	2
232	241	3
101	101	1
97	113	4
198	198	3
36	36	1
45	45	2
73	73	2
147	148	9
149	151	3
155	155	10
99	99	5
105	105	1
21	29	1
141	143	3
219	219	2
225	239	2
175	175	1
189	189	1
154	168	1
81	81	3
75	115	2
22	36	1
39	39	3
29	29	2
161	171	1
14	34	4
188	188	2
17	17	1
32	51	1
105	114	4
103	103	5
210	223	3
98	114	1
122	139	4
217	217	3
74	74	3
204	207	2
207	207	1
191	193	2
226	226	2
180	183	1
213	213	4
7	30	1
106	106	1
134	137	1
208	216	1
223	227	1
39	50	2
177	179	2
95	96	2
170	170	3
108	109	1
217	222	1
66	79	2
22	22	2
205	205	4
160	160	3
197	202	1
216	216	3
97	97	5
34	41	2
185	188	3
43	66	2
113	114	2
114	117	2
220	238	1
222	240	4
26	39	2
147	147	2
198	204	2
173	173	6
129	129	2
176	193	1
208	208	4
215	225	5
197	241	2
120	134	1
127	128	3
117	138	5
18	19	1
139	147	3
222	222	2
232	234	4
171	172	2
34	35	1
205	208	2
25	25	2
148	173	4
157	157	3
2	31	3
69	69	3
103	119	2
187	204	3
178	180	5
149	149	3
28	225	2
121	129	3
148	164	1
204	219	1
19	39	2
68	84	3
46	73	1
213	216	2
6	10	1
153	153	3
105	125	2
109	127	1
225	233	2
31	31	4
68	68	1
101	104	3
234	236	2
23	23	2
4	15	3
81	84	4
13	14	1
7	28	1
3	11	1
220	242	2
189	197	2
179	179	1
220	230	1
61	63	1
177	181	4
190	205	4
16	17	1
85	98	4
12	25	2
18	21	1
223	226	2
206	221	2
103	105	2
21	36	1
169	170	1
234	238	4
15	15	1
112	112	1
163	172	2
223	241	1
222	239	3
237	237	1
130	130	1
81	103	1
53	55	1
79	79	4
220	233	1
231	240	2
0	10	3
72	82	1
210	211	1
158	158	2
219	231	1
209	209	2
42	42	2
103	125	2
155	173	3
184	210	1
85	85	1
140	141	2
10	10	1
11	14	1
142	143	1
214	214	1
162	162	2
127	151	1
195	211	6
182	187	1
19	31	1
67	67	1
197	206	1
36	40	1
127	133	3
1	12	1
14	15	2
217	218	5
6	7	1
5	5	1
69	78	1
12	14	1
224	225	1
143	143	1
138	138	3
188	204	1
55	56	1
154	154	1
214	218	3
131	137	1
97	106	2
27	56	1
88	113	1
70	70	6
57	74	3
53	53	2
230	242	1
129	133	2
190	190	3
154	172	1
15	16	2
38	56	1
149	153	1
122	123	2
118	179	1
201	201	1
124	145	1
174	174	2
71	75	1
179	193	2
23	25	1
137	144	2
78	79	1
221	222	3
182	182	2
3	30	1
185	185	1
51	51	1
109	109	1
206	210	1
162	173	3
65	68	1
88	89	2
169	186	3
89	95	2
202	207	1
107	108	1
135	193	1
68	74	1
183	184	1
192	209	2
209	210	2
240	240	1
35	35	1
99	100	1
142	155	1
191	191	1
14	14	1
148	153	2
98	108	1
121	135	2
24	44	2
242	242	1
212	212	1
86	100	1
161	175	1
56	56	1
193	193	2
24	63	1
171	191	3
16	23	1
0	14	3
211	226	3
28	43	1
132	139	1
193	222	1
202	202	1
16	16	1
126	126	1
27	31	2
6	12	1
127	127	1
1	1	3
221	235	3
13	21	1
224	237	1
8	8	2
82	86	1
131	136	2
67	68	1
143	181	1
147	161	1
206	234	2
160	202	1
187	196	1
98	99	2
38	38	1
117	136	1
164	175	2
106	108	1
124	124	1
218	223	1
206	207	1
151	154	1
173	190	1
147	159	1
220	235	1
220	240	1
30	30	2
225	229	1
48	48	1
121	121	1
144	158	1
239	239	1
86	88	1
164	164	1
78	78	2
190	191	2
129	130	1
1	36	1
183	196	1
128	136	1
10	15	1
17	52	1
201	203	1
27	62	1
