197	197	19
5	5	7
101	101	8
66	66	24
68	68	20
31	32	2
185	185	17
184	184	28
55	56	9
0	0	5
47	118	2
127	127	9
166	166	17
141	160	1
178	194	4
140	140	14
186	186	17
0	2	11
3	9	2
4	4	18
99	99	13
27	157	6
25	36	1
179	182	2
57	57	16
183	183	23
61	81	1
70	84	3
79	80	4
51	51	17
94	94	21
194	196	4
159	166	2
36	36	21
142	156	4
122	122	27
25	25	18
97	97	24
165	165	15
3	146	3
169	169	12
0	153	2
70	75	3
6	6	20
178	178	25
141	141	18
12	12	38
82	82	9
57	63	2
153	153	4
182	182	26
42	65	3
65	68	1
64	64	19
148	171	1
21	23	6
114	114	17
31	31	16
72	72	18
60	60	18
133	144	1
133	133	10
189	189	19
24	24	5
85	86	10
116	116	20
4	5	13
2	17	8
185	187	2
148	149	4
13	37	4
169	184	6
108	108	25
53	65	4
2	5	4
129	130	2
144	166	2
121	121	17
36	157	1
125	125	22
16	16	18
146	161	2
137	139	3
133	151	2
120	121	6
44	44	24
168	186	5
1	1	17
26	39	1
62	62	19
155	155	25
156	156	21
5	6	4
165	168	3
194	194	22
124	146	1
196	196	30
161	162	6
23	23	8
171	171	16
130	135	6
152	152	15
175	175	10
18	25	6
48	49	7
76	77	18
41	43	4
112	112	16
33	33	17
142	142	5
14	17	2
110	110	11
35	35	17
174	174	17
47	50	3
190	191	4
160	160	18
98	118	2
76	76	23
14	14	19
30	30	25
69	69	31
192	194	3
97	100	3
6	34	3
113	113	16
67	67	15
174	175	6
79	79	15
171	173	2
137	137	17
126	126	14
18	104	3
102	104	4
27	27	13
102	102	21
145	151	1
119	119	18
145	145	14
96	97	3
169	170	3
176	176	14
78	86	2
144	155	3
5	25	2
4	7	5
146	147	12
151	151	14
195	195	18
173	182	4
34	34	14
89	90	3
148	148	19
12	38	3
184	196	4
168	168	39
107	119	3
102	103	7
176	177	9
70	70	25
26	27	4
181	181	21
106	106	17
35	36	9
177	178	4
136	136	5
149	149	20
106	124	1
70	107	3
144	154	4
3	147	3
131	131	23
133	140	3
38	38	12
186	188	4
147	147	17
104	105	4
112	151	1
137	166	3
50	145	1
37	136	7
74	78	4
20	30	1
85	85	10
182	183	5
139	139	14
31	57	2
80	80	7
84	85	7
58	59	11
143	146	1
177	177	17
118	126	4
131	132	8
128	144	4
144	148	5
27	130	2
123	123	30
104	104	4
3	6	5
32	178	2
40	40	15
164	166	1
56	74	2
48	48	12
21	22	3
192	192	14
103	104	2
83	83	13
22	164	1
96	96	11
88	88	12
172	172	13
186	187	2
13	13	18
190	194	4
111	111	11
76	80	1
84	84	16
98	98	21
13	24	1
147	148	2
22	24	1
167	167	18
130	130	8
105	105	14
108	112	2
187	187	16
139	167	1
76	106	1
65	82	3
188	189	11
69	70	5
106	108	5
61	61	24
132	139	2
98	104	1
36	37	13
113	114	6
17	17	20
69	79	3
46	148	1
146	151	10
3	3	7
7	30	3
7	7	19
45	47	1
15	16	7
9	169	2
43	44	12
111	122	2
68	112	1
160	183	1
146	149	3
78	78	21
47	47	18
33	34	7
77	77	11
28	41	4
2	3	4
5	23	1
61	62	2
2	22	3
169	171	3
177	181	3
20	20	15
84	88	1
100	101	11
109	109	14
78	81	2
50	50	30
71	71	19
189	191	2
85	88	2
107	107	8
46	46	21
10	11	6
83	107	1
42	43	10
138	138	16
191	192	4
53	53	9
133	191	3
103	103	12
71	87	4
125	126	3
190	190	22
163	163	9
118	118	14
19	20	4
62	65	3
135	135	26
141	142	2
109	110	5
7	8	4
117	117	8
132	150	2
9	11	4
101	125	1
105	106	8
86	86	4
146	146	19
128	132	1
6	160	1
121	133	4
179	179	20
115	115	9
159	159	19
82	94	7
87	87	18
71	121	1
9	10	6
89	89	18
11	30	1
97	99	3
119	127	2
22	22	9
40	42	3
58	62	9
124	125	4
75	77	7
26	26	23
64	94	1
134	134	19
32	32	28
5	148	1
50	130	4
166	168	2
152	166	5
49	49	16
0	20	3
139	157	3
67	68	3
93	104	3
154	160	3
138	146	6
170	170	17
73	73	19
123	125	4
132	133	3
99	123	3
13	28	3
174	187	12
65	65	23
161	163	2
172	192	4
48	113	1
163	176	1
115	118	2
154	154	9
66	94	2
180	180	4
8	8	17
162	162	7
25	27	8
28	34	2
74	74	28
31	170	2
42	47	4
152	176	3
146	150	3
147	166	1
72	87	2
112	113	6
18	18	16
2	2	13
69	82	4
124	124	20
191	191	7
157	158	3
57	62	1
5	156	1
136	143	2
51	62	2
1	22	6
43	43	16
2	189	3
158	158	24
44	45	4
15	15	20
147	165	2
165	177	3
121	122	6
45	45	27
19	19	22
54	75	1
34	35	2
7	20	5
63	63	12
194	195	4
97	119	3
173	173	32
132	136	1
42	42	20
43	45	2
160	172	2
163	164	4
56	56	18
109	114	2
80	132	2
21	21	6
58	58	12
28	28	12
55	55	17
63	78	1
130	142	5
101	102	3
10	63	3
39	126	2
184	185	4
16	90	2
24	186	2
87	88	7
156	157	3
139	140	18
15	170	2
128	128	10
193	193	19
166	176	3
155	167	2
50	107	3
162	163	6
102	112	1
164	164	9
15	57	3
184	194	1
11	11	10
4	184	3
10	188	1
81	87	3
69	115	1
148	151	3
69	71	2
23	24	6
89	140	1
42	57	1
150	151	6
20	21	2
81	81	4
41	41	15
52	52	25
4	9	1
61	72	2
54	54	14
103	121	3
51	52	7
95	96	6
169	175	4
0	4	6
33	177	6
7	26	6
150	150	14
175	185	1
16	89	3
176	178	4
26	36	1
54	59	5
181	183	1
77	79	2
69	84	7
62	63	10
36	48	2
29	30	6
135	150	3
39	41	4
157	168	3
177	188	2
141	154	5
165	166	9
87	129	3
180	186	3
16	26	2
143	144	6
180	182	2
166	171	2
90	90	7
168	169	4
133	137	2
9	9	15
187	192	1
16	17	5
144	145	8
144	144	14
44	46	9
41	59	5
55	120	3
79	86	3
50	58	3
39	42	1
138	142	3
9	15	1
181	182	8
173	177	1
132	132	5
11	12	5
43	46	1
126	127	11
15	89	1
161	161	14
143	153	3
50	61	3
37	38	9
1	189	2
8	10	4
80	81	6
17	37	2
0	175	3
160	182	1
81	82	7
113	121	3
140	163	5
99	113	1
135	140	3
7	22	1
171	172	8
73	156	3
153	157	2
179	196	1
30	31	12
168	177	4
1	4	4
161	176	2
106	119	3
55	57	1
29	41	1
51	167	2
131	135	1
15	169	1
60	115	3
133	134	2
154	164	1
16	32	3
3	13	1
42	50	2
3	5	5
172	175	3
137	141	2
178	189	1
24	61	1
25	39	2
159	162	3
43	63	3
52	72	1
138	143	2
165	175	1
150	152	2
14	26	2
59	60	6
147	180	3
59	59	11
168	188	1
37	44	4
158	160	4
132	187	2
79	90	2
188	188	14
15	171	3
101	150	3
100	100	5
0	161	5
96	108	2
145	154	2
66	67	3
77	78	6
118	119	7
64	84	2
81	83	6
74	142	1
70	71	4
29	29	9
4	16	1
2	119	2
170	184	1
81	86	5
114	115	3
38	39	4
11	62	2
24	25	4
6	37	4
62	64	1
71	73	3
55	61	3
187	196	2
19	34	2
156	160	5
147	158	1
1	3	3
108	127	2
60	68	1
42	53	4
99	100	3
13	38	4
3	111	3
120	120	3
29	34	3
169	181	1
187	188	17
192	193	16
160	161	6
26	62	4
125	128	3
16	29	4
110	111	3
88	90	1
65	74	1
132	137	3
45	46	8
148	152	3
172	174	4
166	167	1
30	43	4
143	189	3
48	76	1
162	175	2
93	115	2
174	196	3
10	28	2
5	20	1
96	100	4
98	109	1
67	128	1
54	69	2
40	56	2
179	195	5
170	172	1
189	190	3
0	118	1
8	21	4
104	116	2
138	139	3
27	36	3
149	197	2
170	186	1
5	172	1
185	195	1
4	108	1
18	20	8
168	172	2
23	39	4
56	69	1
2	18	2
17	18	5
21	36	2
64	65	10
6	7	7
28	35	4
68	70	1
146	157	3
95	95	10
25	26	5
68	83	2
108	111	1
108	123	1
15	148	3
41	42	9
26	42	1
30	185	2
5	8	3
26	41	1
128	148	4
107	111	1
185	189	2
142	151	1
57	86	1
109	128	1
13	56	3
77	87	2
28	33	4
101	104	1
102	125	2
112	123	2
26	40	2
48	57	1
22	23	2
41	61	1
137	138	2
106	128	2
53	61	3
5	21	3
66	73	2
191	193	4
39	40	3
72	77	2
52	86	1
73	74	4
159	160	3
169	180	3
159	176	1
167	185	1
1	8	1
178	181	4
146	167	2
183	194	1
93	96	2
130	151	2
71	108	1
31	185	3
168	173	4
144	157	1
76	108	1
117	119	1
2	12	1
72	78	3
111	123	1
111	125	2
98	112	1
132	146	2
45	54	2
11	63	1
145	146	2
174	183	2
148	163	2
109	130	1
53	114	2
93	93	5
178	179	2
58	69	1
20	37	4
118	130	1
10	10	6
154	155	6
150	187	4
81	85	4
156	158	5
46	47	4
66	70	3
60	63	1
168	171	5
142	146	3
37	39	2
134	135	8
93	148	2
196	197	1
140	152	2
163	168	2
103	127	4
120	129	2
71	72	6
28	29	5
95	136	3
95	108	2
162	171	2
0	11	1
56	63	1
58	60	2
149	154	3
111	146	3
3	161	1
147	160	1
5	176	3
76	79	1
79	81	1
64	67	5
77	95	1
123	126	2
126	129	3
96	98	4
160	170	1
169	185	1
7	133	1
73	176	2
73	78	3
42	70	4
118	120	2
103	106	1
27	161	1
76	89	1
99	102	4
54	182	1
130	186	1
104	112	2
43	131	1
179	191	2
153	155	2
17	79	2
29	35	3
11	196	1
40	46	1
14	15	2
158	170	1
0	19	2
21	24	1
65	106	1
48	107	4
136	138	1
75	75	6
139	152	3
131	133	2
0	5	2
23	86	2
24	34	2
7	23	1
88	89	4
38	193	1
52	182	1
127	145	3
169	196	5
10	13	3
115	134	3
127	136	2
41	46	2
166	188	3
20	39	1
152	155	6
145	148	1
42	68	1
145	150	1
164	165	3
157	157	8
170	177	1
154	159	2
93	94	3
30	33	1
88	101	2
100	111	1
172	189	2
38	51	2
8	13	2
143	143	10
4	19	1
151	152	1
57	71	2
61	68	2
80	86	2
29	86	1
3	18	2
109	115	1
84	86	1
27	29	5
152	157	1
24	35	2
12	30	1
104	108	4
9	159	2
155	156	3
60	64	2
74	148	2
37	37	8
71	178	2
135	136	3
63	64	2
15	28	2
7	159	2
2	108	1
173	186	3
165	172	5
77	168	1
24	166	3
99	105	3
82	107	1
53	69	1
127	128	4
53	113	2
77	81	4
157	159	3
185	197	3
193	195	2
113	133	2
99	110	3
152	153	3
59	62	3
25	136	1
138	159	2
39	39	15
69	112	1
52	145	2
17	77	2
25	169	1
154	167	5
167	168	7
30	183	1
177	184	2
14	131	2
27	28	2
27	32	3
131	134	3
82	83	2
51	132	3
93	99	3
179	192	2
23	40	2
161	170	1
16	31	5
7	36	2
193	197	3
98	99	3
67	107	1
23	25	4
132	178	1
23	33	1
32	169	2
165	167	3
165	170	3
11	13	3
23	163	3
95	98	3
149	153	1
100	114	1
87	132	1
12	184	2
111	113	1
10	190	3
42	128	3
130	131	2
132	140	2
33	36	2
65	69	3
165	176	1
109	129	1
48	131	1
64	160	1
70	157	1
54	55	2
155	157	5
25	158	1
64	119	4
4	10	1
48	51	3
185	190	3
65	67	1
64	68	8
134	183	4
0	6	1
137	183	1
25	88	2
103	105	1
12	32	6
45	130	1
140	160	2
124	152	1
103	117	2
42	71	1
119	120	3
38	43	1
80	89	3
68	84	2
14	39	4
1	2	3
179	180	4
9	30	1
114	116	2
63	87	1
156	164	3
3	176	1
164	180	2
166	180	2
48	70	1
111	121	2
0	24	3
118	122	2
41	62	1
67	77	2
111	112	1
10	62	3
123	124	1
114	165	3
146	162	1
149	165	1
30	32	2
32	33	6
145	160	1
3	33	1
142	143	2
160	181	1
32	47	1
15	74	1
53	168	2
116	117	2
152	165	1
80	102	2
38	40	1
104	110	1
56	58	1
66	82	2
14	105	1
106	107	1
102	115	3
65	66	1
0	14	1
62	94	1
54	57	2
130	136	1
122	133	1
47	60	1
56	94	4
75	81	1
56	179	1
43	60	3
134	136	2
18	23	1
96	165	1
10	29	3
57	179	2
5	22	1
7	11	2
62	181	2
72	178	1
7	19	1
77	97	1
190	197	1
74	93	2
114	119	3
95	148	1
191	197	1
117	133	1
107	128	2
136	157	2
14	55	1
9	34	1
101	117	1
164	175	1
65	95	3
117	128	1
40	57	1
169	172	1
110	147	1
155	165	1
25	42	1
3	191	2
13	142	1
162	166	1
3	4	8
114	133	1
176	184	3
8	12	2
66	85	3
29	45	3
83	85	1
17	33	2
134	140	1
108	109	2
154	177	3
139	153	1
172	173	7
23	38	2
161	181	3
53	54	4
43	129	2
48	62	3
95	99	2
11	197	1
175	176	2
110	117	2
138	141	1
62	78	1
18	22	1
97	166	2
147	150	1
180	181	2
142	145	1
3	189	1
159	177	3
125	138	2
10	185	2
141	167	1
52	124	2
45	129	1
74	75	1
93	102	1
76	169	2
190	192	1
193	196	2
107	108	1
14	19	2
34	36	1
38	124	1
103	112	2
129	129	3
64	105	1
27	31	2
20	38	2
69	76	1
178	192	1
115	116	1
49	50	2
140	141	1
177	179	1
81	141	3
131	151	1
98	116	1
24	187	1
27	142	1
104	106	1
132	144	1
27	30	2
123	127	1
52	53	2
13	26	1
59	128	1
68	115	1
22	108	1
67	83	1
8	30	1
2	4	1
141	145	1
168	185	1
83	87	1
46	57	1
139	151	1
132	134	2
56	70	1
48	197	3
50	51	3
65	73	2
186	196	2
18	39	3
50	64	2
72	174	1
17	22	1
109	143	1
32	74	2
171	189	1
21	29	1
56	71	1
28	39	1
80	142	1
11	188	1
29	47	2
54	94	1
9	160	1
170	176	1
148	196	2
4	12	3
11	21	1
70	95	1
133	148	2
8	17	2
168	184	1
103	108	1
18	21	1
188	196	1
73	82	1
5	185	1
46	48	1
135	137	1
10	172	1
12	16	2
14	16	3
136	137	1
77	86	2
68	69	2
100	141	1
16	39	1
153	165	1
80	85	1
163	165	2
107	187	3
108	120	2
71	141	2
85	90	1
25	38	2
170	173	1
138	152	1
143	154	1
71	173	1
72	73	8
97	118	1
122	123	1
115	158	1
65	72	1
27	34	2
55	58	1
1	7	1
46	50	1
93	95	2
80	141	1
164	168	1
71	74	1
46	129	1
18	29	1
79	87	1
16	37	1
133	190	1
83	86	1
112	134	1
2	109	1
153	177	1
20	42	1
10	12	2
160	186	1
129	146	1
18	105	3
23	41	1
150	173	1
98	102	3
162	177	1
94	95	1
103	120	3
12	25	1
159	167	2
140	157	1
193	194	1
24	33	2
32	184	1
97	112	1
40	44	1
38	44	1
184	186	1
49	119	1
22	36	1
8	25	1
161	164	1
52	118	1
2	20	1
182	192	1
58	153	2
44	129	1
172	194	1
7	15	1
96	99	1
164	178	2
75	157	2
132	138	1
158	162	1
20	32	1
183	197	1
137	162	1
104	111	1
163	173	2
117	123	2
157	174	1
48	69	1
95	97	1
11	161	2
40	51	1
53	68	1
21	163	1
79	101	1
8	9	1
135	143	1
167	179	1
4	17	1
172	186	1
140	161	1
152	154	1
25	41	1
54	122	1
1	23	1
47	48	1
176	183	2
190	195	1
174	177	1
187	189	1
58	82	2
47	197	1
78	84	1
8	34	1
161	180	1
147	162	1
139	141	1
12	181	1
1	176	1
30	44	1
108	124	1
144	149	1
8	169	1
87	101	2
76	82	1
134	158	1
110	123	1
133	139	1
191	194	1
0	171	2
6	108	1
40	41	1
116	121	1
57	58	1
36	40	2
23	158	1
168	182	1
102	111	1
142	166	1
33	37	1
24	40	1
70	85	1
14	27	1
131	146	1
72	81	1
167	170	1
53	57	1
45	72	1
162	174	1
4	37	1
139	161	1
99	120	1
185	186	1
15	21	1
182	193	1
4	172	1
52	85	1
