128	128	7
8	8	1
111	111	1
78	78	10
76	80	5
55	55	7
107	108	3
110	110	5
96	96	6
108	108	9
23	24	7
64	93	1
57	57	4
30	30	5
39	40	5
105	105	2
117	131	2
68	68	2
145	145	4
77	77	4
148	148	2
28	29	1
48	48	2
75	75	3
113	114	4
67	67	2
62	103	3
49	49	5
119	119	4
139	139	11
121	121	8
45	46	4
84	84	4
28	28	12
113	113	6
37	37	3
11	27	4
118	118	7
81	81	4
116	130	5
97	97	3
116	116	3
11	11	5
149	150	4
31	32	1
86	105	4
90	90	1
61	62	3
9	9	6
69	72	3
31	31	13
10	10	7
38	38	3
72	72	4
14	14	20
5	5	6
19	19	2
42	42	16
107	107	6
103	103	9
46	46	1
29	29	3
12	13	1
153	153	4
12	27	6
99	99	8
69	69	7
119	120	5
15	15	2
50	50	2
109	110	3
120	127	1
26	26	3
124	127	2
134	134	7
96	97	3
143	144	1
36	37	2
25	25	3
41	41	8
111	113	3
98	98	7
22	22	7
43	44	4
101	101	10
125	148	2
25	26	2
4	5	3
120	120	9
150	152	2
70	70	5
38	40	1
67	73	1
141	141	7
127	127	5
151	151	5
152	152	2
16	16	5
137	137	11
115	116	2
112	114	2
147	147	4
95	95	11
134	136	2
21	22	4
39	39	14
148	149	3
123	123	4
70	72	4
57	58	1
136	136	4
88	88	7
43	43	8
88	104	3
83	83	6
53	53	5
68	69	4
28	30	2
123	124	2
76	77	2
144	148	2
64	94	8
93	122	2
35	35	6
86	86	5
12	25	2
15	20	5
69	71	1
14	25	2
67	102	4
66	66	3
106	106	4
48	50	5
130	131	1
45	45	4
51	103	2
32	32	1
79	79	4
65	65	4
112	112	5
41	42	2
47	47	7
71	71	4
17	18	2
52	52	3
13	13	5
112	113	3
12	12	6
144	144	1
51	51	3
20	20	4
69	75	5
93	93	1
42	43	1
109	109	5
61	74	1
62	63	3
114	114	2
151	152	2
150	150	6
119	127	3
40	40	9
124	149	2
138	138	5
131	131	5
7	8	1
117	118	2
76	90	2
135	135	3
111	118	1
86	87	1
78	139	1
34	34	1
154	154	2
100	100	3
129	129	4
153	154	2
20	25	2
126	126	3
94	95	3
77	79	6
114	115	2
27	27	2
24	24	6
85	86	3
136	137	2
11	12	2
14	57	1
63	63	2
21	21	1
64	65	1
82	82	2
4	9	1
6	9	1
49	50	5
147	149	1
102	102	2
24	27	3
106	107	1
6	8	2
23	23	5
31	34	3
87	87	4
146	148	1
95	98	4
27	29	1
122	123	2
78	79	1
80	80	1
138	139	1
112	117	2
68	103	2
61	63	1
85	85	3
55	56	1
84	85	1
76	76	2
122	122	4
115	115	4
20	21	1
147	150	3
75	126	1
77	109	4
129	130	1
84	109	1
116	131	2
131	132	3
38	39	1
26	27	1
83	106	1
140	140	2
10	27	2
121	122	1
124	125	1
64	102	2
74	74	4
4	4	1
7	9	1
150	151	2
82	142	2
110	111	2
80	105	1
64	64	1
63	84	1
63	86	1
90	93	1
52	62	1
73	73	1
126	127	1
87	105	1
8	10	1
99	100	1
56	57	1
149	149	1
12	26	1
138	146	1
33	34	2
56	86	2
73	75	1
102	103	1
144	145	1
82	83	1
134	145	1
49	69	1
81	82	1
36	36	1
114	130	1
77	107	1
