27	27	15
60	60	23
105	107	2
109	109	20
29	30	6
72	74	3
109	110	10
23	24	2
19	19	2
99	101	2
107	107	4
20	20	3
72	72	6
70	71	10
85	86	8
75	76	3
23	23	6
66	66	4
47	47	17
92	92	28
65	65	13
71	71	7
91	91	15
70	73	3
45	45	24
47	96	1
81	82	2
86	106	2
23	80	1
21	22	4
67	73	1
102	102	18
76	76	8
51	52	3
81	87	1
64	65	8
29	44	3
63	63	7
21	23	5
92	95	3
80	81	6
96	96	10
40	41	5
21	21	14
38	100	5
58	59	7
59	59	17
107	108	4
39	40	7
40	40	11
24	24	9
104	104	11
97	97	19
37	37	22
78	78	9
54	54	5
43	44	11
102	107	1
87	88	5
57	57	8
30	31	4
112	112	17
97	107	4
39	39	7
42	42	18
61	72	3
32	32	12
74	74	8
86	86	5
19	20	3
80	80	14
44	45	2
36	36	13
94	97	2
104	105	4
61	62	3
35	44	6
101	101	17
90	91	5
38	38	13
53	59	2
87	87	13
99	100	6
41	41	18
103	104	2
46	46	21
69	69	15
48	60	4
73	74	2
62	62	14
41	42	1
35	35	7
54	55	5
95	95	9
73	73	7
49	51	5
38	107	3
94	94	5
89	90	9
83	83	17
24	80	2
58	58	14
108	108	22
48	48	10
49	49	16
44	96	3
79	79	7
32	53	3
110	112	4
66	67	7
83	87	1
91	92	3
84	84	3
43	43	18
89	89	10
51	51	3
81	81	14
67	67	8
99	99	19
112	113	3
50	51	1
63	70	2
82	82	4
55	84	3
93	95	5
88	89	2
106	107	10
90	90	12
49	57	1
100	101	7
93	93	13
74	87	1
45	96	4
68	69	10
44	44	4
55	55	10
75	77	3
33	73	4
72	73	4
37	85	10
43	49	1
88	88	9
23	25	6
24	25	7
29	29	14
103	103	9
26	26	5
73	89	3
64	66	1
23	79	1
83	84	6
53	53	8
24	81	1
110	110	19
61	61	9
68	68	9
59	100	1
105	106	4
39	99	2
52	53	2
98	98	4
34	34	5
105	105	15
42	44	2
73	75	3
59	60	4
22	22	5
20	21	4
38	39	11
111	112	4
48	97	4
31	31	8
78	79	3
33	33	3
92	96	2
84	85	4
109	111	1
23	77	1
76	77	9
111	111	3
30	30	10
79	80	2
106	106	5
37	100	1
57	86	2
85	85	2
32	33	4
93	101	1
71	73	2
49	54	2
35	71	3
56	56	9
21	74	1
32	35	3
72	76	2
28	29	6
86	88	3
25	25	4
96	97	4
79	81	1
41	43	6
86	105	4
25	27	3
97	100	7
56	59	2
95	96	4
64	72	2
114	114	8
33	34	4
108	114	2
32	41	2
28	28	7
71	72	2
53	54	6
47	97	2
53	55	3
47	49	2
65	70	3
56	86	4
30	44	2
33	97	2
52	52	1
54	57	2
36	99	1
104	108	4
96	98	3
56	89	3
97	98	2
61	89	2
57	84	3
55	58	2
108	109	2
62	63	3
57	60	1
21	27	1
25	82	1
78	80	2
63	64	4
47	48	1
78	93	1
23	81	1
109	114	4
34	35	5
41	44	1
37	38	1
100	100	4
60	97	1
36	84	2
25	26	4
50	50	4
68	102	2
64	64	5
56	57	3
26	27	3
78	92	2
73	96	1
75	75	6
27	28	3
70	70	6
46	87	1
55	75	3
31	45	3
35	106	2
100	107	1
49	50	1
64	67	1
104	106	1
46	62	1
25	30	1
104	107	1
67	74	1
49	55	1
113	113	4
58	86	1
46	50	1
61	63	1
100	103	1
53	56	2
56	58	5
33	46	1
66	69	2
57	58	2
72	90	1
48	96	2
30	43	1
105	109	1
46	48	2
74	75	3
46	95	1
48	49	3
22	23	2
113	114	1
24	32	1
88	91	1
32	34	2
46	59	2
26	76	2
69	70	3
98	99	1
36	100	2
82	83	3
26	77	1
85	106	1
110	111	1
101	102	1
102	103	1
99	107	1
90	92	1
23	42	1
83	85	1
35	36	1
97	114	1
23	29	1
100	106	1
80	86	1
90	97	1
63	72	1
92	93	1
29	32	1
85	88	1
102	104	1
47	85	1
77	77	2
90	105	1
26	33	1
32	45	1
35	97	1
89	91	1
59	61	1
25	98	1
35	40	1
67	68	1
93	94	1
38	42	1
80	95	1
64	73	1
30	32	1
