83	83	18
30	30	5
77	77	1
71	129	1
25	25	1
47	47	5
96	96	3
66	66	6
95	95	5
111	117	2
129	129	11
74	74	4
21	21	3
103	103	5
33	33	3
13	13	5
100	100	3
2	2	2
43	43	2
85	117	2
95	96	6
41	43	2
65	65	3
42	42	1
29	29	13
81	81	4
111	111	4
146	146	8
131	131	11
17	17	7
76	77	2
128	128	4
137	137	5
54	55	4
26	26	3
79	81	1
18	18	4
38	39	6
19	19	6
22	22	10
20	20	5
23	23	6
35	37	1
24	153	2
149	149	2
67	68	2
119	120	2
68	68	4
106	107	2
117	117	2
64	65	3
109	109	1
139	139	1
113	114	2
85	86	4
11	11	7
123	123	4
104	104	2
96	100	1
97	98	2
144	154	1
44	48	6
14	14	8
4	4	1
25	26	1
96	97	4
104	121	1
144	144	3
68	69	3
135	135	1
114	117	5
123	124	3
49	49	2
62	68	1
48	53	1
12	13	3
93	94	2
48	49	2
98	98	1
13	14	2
113	113	2
52	52	1
78	81	1
71	71	2
154	154	1
118	118	1
143	145	1
48	48	1
136	137	3
124	124	1
30	31	3
80	81	5
26	27	1
40	41	3
4	5	4
54	54	4
94	94	5
110	110	1
9	9	5
102	102	2
99	100	2
10	11	3
53	53	3
28	29	3
10	10	1
46	46	1
15	16	4
122	123	5
108	108	2
87	87	2
93	93	1
67	76	1
8	8	2
6	36	1
136	136	1
104	105	1
74	76	1
49	68	1
29	76	2
47	152	1
17	18	4
41	41	4
55	55	1
122	122	8
53	68	2
27	27	2
130	130	2
39	39	7
97	97	3
82	82	2
33	34	2
150	150	1
49	52	2
132	132	1
40	40	1
133	133	3
142	145	2
82	83	1
83	84	2
6	6	1
57	63	1
39	40	2
46	47	1
42	43	2
134	134	4
9	30	1
92	93	1
73	74	2
85	85	2
24	24	3
53	54	1
121	121	2
68	70	2
149	150	2
96	99	1
126	126	1
63	63	1
111	132	2
62	62	3
91	93	1
100	102	1
112	112	3
63	121	1
119	119	2
153	153	1
67	67	3
100	101	1
110	130	2
41	42	1
148	148	1
34	37	1
83	88	2
75	105	2
15	15	1
27	55	1
111	118	1
106	106	1
28	28	1
78	78	1
9	51	1
117	131	1
