151	153	2
107	107	9
31	33	8
89	89	16
14	14	12
131	131	4
151	151	11
169	169	6
174	174	13
96	96	13
47	48	3
61	63	7
28	29	16
140	141	5
33	33	16
26	27	8
168	172	6
144	144	3
55	57	7
123	123	12
106	113	12
111	111	10
145	145	7
170	170	20
18	18	8
104	111	2
141	141	20
134	134	25
26	26	15
21	21	16
155	156	8
36	36	10
86	86	13
27	102	2
178	181	2
96	105	3
80	81	4
87	87	12
47	47	12
109	110	12
74	75	15
137	137	9
109	109	10
164	164	16
99	99	4
84	84	16
94	94	14
48	48	20
58	59	4
180	180	17
53	55	9
79	79	24
76	76	8
118	119	3
89	90	7
44	44	8
52	52	4
4	54	2
22	62	3
39	39	15
4	4	14
53	94	1
55	55	8
41	42	14
189	189	16
178	179	9
168	168	18
17	18	3
110	110	17
175	178	3
72	72	24
0	0	15
91	91	7
157	157	16
133	133	22
17	17	3
9	9	6
150	150	8
46	46	21
20	20	9
163	164	5
177	177	21
37	37	10
160	161	5
116	125	2
173	173	22
134	135	5
2	2	13
75	75	18
60	60	17
10	15	8
46	47	7
179	179	12
20	85	4
179	180	5
147	148	2
119	122	4
98	99	9
3	3	11
98	113	3
126	126	6
90	90	19
150	151	4
91	145	5
122	122	8
108	109	4
136	136	9
7	7	16
83	83	3
97	97	3
92	92	24
64	87	1
84	85	15
54	56	9
27	32	1
24	25	6
148	165	1
10	10	19
85	85	12
132	135	5
165	165	6
8	8	10
59	63	2
170	189	4
58	58	11
20	21	7
30	30	9
112	112	4
106	106	13
143	143	8
13	24	11
93	93	9
30	45	3
22	23	9
66	66	6
149	150	4
73	75	7
166	166	10
130	130	17
142	143	7
158	158	8
70	70	7
185	185	13
94	145	1
136	137	2
4	6	4
0	2	8
133	134	15
155	155	11
167	174	7
140	140	8
155	171	3
189	190	4
23	24	8
35	35	14
107	111	1
76	134	2
7	85	2
53	97	2
40	41	5
101	101	8
43	43	11
105	105	16
107	181	2
24	24	16
114	115	11
175	176	6
167	167	9
153	153	17
147	147	6
113	128	1
163	163	16
148	148	11
74	74	9
118	118	10
12	12	13
102	112	4
151	158	1
113	113	18
82	83	3
187	187	12
11	11	8
67	67	7
131	135	2
149	149	17
7	8	6
91	130	2
125	125	4
172	172	12
91	92	6
19	19	20
80	80	3
116	116	15
154	154	12
29	99	1
96	100	6
5	5	8
146	190	1
42	45	3
23	23	10
91	174	5
157	158	7
4	5	8
67	68	4
161	161	5
116	126	3
134	136	1
78	78	18
114	146	6
25	26	10
118	184	3
60	63	6
96	145	2
104	104	12
177	178	20
101	111	1
68	70	6
18	20	4
15	15	4
15	16	6
129	150	3
119	119	7
27	31	7
141	142	7
127	127	11
55	56	5
22	143	1
157	159	2
87	140	4
124	187	3
76	79	3
151	152	4
114	126	7
40	40	11
126	128	5
26	34	8
56	56	5
73	77	3
116	119	2
183	184	3
90	146	3
45	46	4
146	146	10
23	53	1
73	73	13
122	123	8
160	160	12
101	102	7
176	178	8
115	127	3
139	139	8
134	154	1
9	57	2
28	28	14
0	3	1
16	16	19
64	64	20
77	78	10
6	6	9
150	157	2
74	76	3
165	166	1
149	169	6
20	58	4
34	188	1
128	128	8
150	152	4
186	186	14
61	87	4
129	129	3
137	138	11
27	27	10
153	154	10
8	17	1
76	78	4
101	112	3
75	76	7
93	96	11
34	38	4
32	32	8
106	107	3
121	121	5
138	138	5
93	175	3
107	112	8
25	40	3
120	120	14
61	62	7
176	176	4
161	162	5
94	97	5
172	173	2
25	39	1
81	81	5
59	59	7
41	41	17
62	89	2
32	33	3
32	35	5
184	184	12
33	47	2
93	145	5
26	103	3
182	182	13
98	98	14
1	3	2
171	171	18
167	172	9
100	100	7
31	31	7
2	88	1
117	118	2
178	178	10
53	53	9
138	153	1
131	172	4
29	30	2
57	57	7
62	140	2
78	79	9
164	165	6
100	105	8
149	187	6
108	108	14
107	178	1
117	117	11
21	23	4
87	141	4
43	44	11
8	85	1
88	88	9
25	55	2
16	17	5
150	169	1
156	156	8
29	29	3
73	76	3
146	175	4
146	147	6
129	130	4
65	65	6
56	57	3
12	13	4
124	189	1
71	76	1
93	147	8
135	135	5
113	183	3
1	123	5
127	128	5
117	119	2
67	77	5
67	79	3
162	162	13
61	88	2
161	165	2
99	100	2
176	177	5
190	190	10
92	93	5
30	31	5
77	77	5
144	145	4
82	86	3
119	120	5
16	21	2
66	81	2
86	87	1
102	103	2
188	188	2
63	64	3
119	123	2
102	104	3
95	96	4
18	19	6
108	112	5
35	37	2
132	132	5
12	14	3
130	131	5
85	88	2
114	114	5
82	82	15
61	61	5
123	125	3
90	91	10
62	63	12
4	125	3
102	102	8
28	102	1
134	137	2
33	34	7
113	117	1
184	185	1
34	39	5
111	181	2
167	168	2
67	78	1
166	171	2
94	96	3
181	181	8
146	177	1
115	128	2
187	189	1
12	43	5
79	80	8
71	72	1
81	82	4
171	173	1
131	142	3
6	7	8
1	1	3
69	70	1
116	117	1
154	155	5
97	113	2
83	84	2
96	97	10
79	133	5
181	182	4
31	45	1
161	164	5
158	159	2
159	159	4
136	140	2
31	32	3
151	165	4
113	126	2
1	2	5
183	190	3
175	175	6
70	71	2
81	83	1
22	54	1
62	62	5
152	152	4
30	32	4
165	167	2
133	135	1
94	175	3
116	123	3
102	182	2
130	141	6
55	97	1
10	11	5
149	188	2
30	36	3
120	122	3
166	167	2
42	42	8
25	48	2
129	140	5
100	104	2
14	15	3
25	25	5
8	61	3
96	99	7
71	71	5
124	124	2
124	125	3
148	175	4
107	108	2
5	98	1
88	134	1
121	122	2
34	34	6
10	21	2
66	67	1
152	153	5
180	181	5
40	48	1
63	63	5
30	100	3
58	86	1
153	158	2
15	17	1
45	45	18
129	131	1
24	53	2
76	137	1
13	13	6
138	139	3
152	170	1
56	128	2
159	160	3
122	149	2
95	95	5
39	42	4
11	15	5
117	184	1
115	126	1
105	106	2
16	20	1
104	112	2
18	84	1
173	174	6
128	146	4
19	20	2
97	98	2
113	114	4
68	78	3
36	37	8
42	44	4
34	47	2
128	150	3
87	142	2
26	39	2
22	22	6
115	117	1
163	172	1
100	103	1
183	183	3
54	57	4
123	190	1
135	153	2
103	103	4
59	60	2
110	111	3
61	89	3
31	36	3
44	49	3
21	60	1
59	86	1
138	152	1
152	154	1
1	121	1
114	147	2
131	151	2
154	156	1
116	124	1
131	173	4
71	73	1
38	38	5
20	86	2
9	17	1
115	175	2
96	98	3
20	59	2
135	140	2
179	181	2
77	136	2
33	45	2
4	189	1
93	94	1
123	189	1
58	60	1
148	167	2
182	183	1
95	99	1
42	43	1
137	139	1
139	140	3
150	188	1
41	47	1
44	47	1
33	46	1
162	163	1
174	175	2
114	178	1
119	125	1
115	115	3
28	101	1
171	172	1
98	139	2
74	133	2
68	77	2
26	40	1
10	14	1
53	145	1
102	109	1
89	144	2
142	142	2
169	170	4
70	81	1
76	77	2
67	140	1
54	54	2
66	82	2
74	156	3
27	28	1
114	177	2
94	105	2
148	149	1
162	165	2
13	42	1
108	110	1
94	95	1
104	105	1
176	182	2
11	14	1
110	184	1
92	94	1
28	30	1
63	143	2
34	35	2
52	53	1
143	144	2
83	86	1
12	21	1
44	45	2
39	40	1
160	162	1
156	157	1
44	48	1
188	189	1
135	136	1
67	137	1
66	77	1
161	166	2
130	143	2
135	154	1
159	166	1
67	80	1
154	157	1
35	36	1
163	165	1
28	100	1
57	144	1
154	169	2
11	21	1
65	66	2
45	98	1
101	184	1
151	170	1
121	123	1
152	158	1
35	38	1
126	127	1
4	119	1
