50	52	3
15	15	19
37	38	5
35	35	13
17	17	14
50	57	4
33	34	3
45	46	9
5	6	5
6	7	8
53	54	5
51	51	12
52	52	12
30	30	11
57	57	13
22	22	7
45	45	13
13	13	12
49	49	16
13	48	1
36	36	14
28	55	5
16	16	12
20	53	1
42	42	12
11	13	3
18	18	14
29	29	12
46	46	21
0	0	7
11	11	9
15	18	2
35	38	6
23	23	8
29	57	3
35	43	3
10	10	10
35	47	2
27	29	2
19	19	16
19	21	3
37	45	1
21	21	11
38	38	17
56	57	6
20	20	10
31	58	6
16	28	4
34	54	4
41	41	17
44	44	6
1	24	2
14	14	29
16	44	4
34	36	3
32	32	23
3	3	17
32	33	3
16	17	5
55	55	15
46	49	5
10	45	1
39	39	15
16	42	3
31	32	5
40	40	19
58	58	19
7	7	2
15	44	1
37	50	2
53	53	10
48	48	28
2	2	10
28	28	3
41	44	3
4	4	11
40	43	3
8	10	2
16	18	3
31	33	4
36	55	2
43	45	7
46	47	1
57	58	5
33	46	5
31	52	2
17	22	2
43	43	10
21	57	1
34	34	13
56	56	5
5	5	8
50	50	22
8	8	5
24	57	2
40	55	3
31	34	3
29	30	4
41	42	3
11	49	1
45	50	3
31	35	2
12	12	14
54	54	7
12	30	1
33	35	4
43	53	3
37	37	8
30	31	7
7	12	2
17	18	4
54	56	1
0	48	1
19	52	1
6	19	3
40	52	2
16	46	4
13	14	7
47	47	13
1	11	1
47	48	2
39	40	3
6	57	5
47	49	1
37	52	7
19	45	2
29	56	2
4	6	2
34	47	1
35	36	1
9	23	3
4	40	1
41	50	3
41	47	3
5	7	1
17	34	2
56	59	4
21	58	1
9	20	3
9	11	1
19	20	1
31	31	9
33	33	3
40	41	3
15	16	6
23	24	2
42	48	3
10	30	1
13	43	2
44	45	5
34	50	1
9	9	8
9	10	4
36	45	3
42	43	1
4	5	2
1	1	5
0	43	1
6	6	5
20	22	2
43	44	2
46	50	1
6	11	4
1	3	2
13	42	2
24	24	2
51	52	2
5	8	4
12	44	3
49	50	1
3	21	1
50	51	5
28	29	4
4	11	2
14	15	7
14	18	4
33	55	2
24	29	2
14	39	2
4	23	2
33	47	3
53	56	1
5	11	1
32	56	3
37	53	1
52	53	1
40	42	1
36	37	1
14	17	1
34	37	2
7	8	1
36	40	1
38	55	1
18	19	3
42	44	1
47	50	1
10	23	2
1	4	1
0	4	1
13	15	2
36	38	1
12	57	1
0	13	1
2	3	2
4	13	2
38	46	1
14	46	1
38	56	1
6	58	1
33	51	1
11	44	1
22	54	1
14	36	1
34	35	1
49	51	1
40	48	1
10	11	1
4	24	1
0	2	1
39	54	1
1	2	1
