89	89	4
135	138	3
22	23	4
25	25	4
102	102	6
146	166	3
64	64	5
168	168	6
5	5	5
134	142	7
44	44	12
143	143	4
132	133	4
142	143	6
109	168	2
4	78	2
2	77	6
22	22	5
151	155	4
87	88	3
143	144	9
152	154	1
34	34	8
150	150	5
64	65	2
142	146	3
127	127	2
91	91	7
114	114	3
159	159	2
100	102	2
88	92	1
7	21	1
137	137	11
122	123	3
40	40	5
70	71	4
55	56	2
73	73	5
85	148	1
154	155	7
129	161	4
139	139	4
116	116	1
2	75	1
88	89	2
72	72	2
47	48	5
65	65	3
154	154	7
98	98	6
0	0	1
90	148	3
13	13	4
49	49	5
77	77	6
144	144	3
9	10	5
133	133	6
152	152	6
69	70	2
76	76	19
163	166	1
123	123	3
70	70	7
49	122	2
129	129	10
45	46	2
112	112	5
2	22	1
67	67	4
136	136	5
105	106	4
116	119	3
43	43	3
157	157	4
66	139	3
140	140	10
164	164	1
68	169	2
151	151	1
117	117	5
120	149	1
54	54	8
75	75	4
27	27	3
115	115	4
56	56	5
82	82	3
28	104	1
148	149	4
126	160	1
27	72	1
10	10	4
167	167	8
38	42	4
37	37	5
62	62	2
100	106	2
126	126	3
134	134	5
122	122	5
109	109	3
79	79	3
42	42	5
46	46	3
121	121	1
41	41	4
58	62	1
95	95	7
134	135	2
36	37	6
162	162	1
150	156	9
111	111	2
12	12	3
84	147	2
90	166	4
108	109	1
153	153	4
107	107	5
4	5	4
14	14	2
27	28	2
52	53	1
46	48	1
39	40	6
123	124	4
160	160	1
11	36	1
150	159	4
124	124	1
18	18	5
97	97	8
96	96	4
0	2	2
126	165	1
128	129	2
2	2	8
92	119	1
19	19	4
57	57	2
93	94	3
9	47	1
53	53	4
65	111	2
33	33	1
66	112	2
35	35	4
20	20	6
90	149	1
6	6	2
108	108	1
38	48	2
151	166	1
7	18	1
165	166	1
0	77	5
26	42	3
15	16	5
13	14	1
47	47	2
74	74	3
81	81	1
136	138	2
110	110	5
88	90	5
110	111	5
121	147	1
119	119	2
38	38	5
135	135	7
101	101	3
37	44	4
101	102	1
106	107	1
43	44	5
121	122	3
21	21	4
91	92	2
45	45	1
90	90	5
150	151	1
5	6	4
34	107	2
149	151	4
104	104	4
90	120	1
66	66	2
52	52	5
8	8	4
101	109	3
120	120	3
76	77	1
155	155	3
146	147	1
68	68	4
145	145	2
131	131	6
133	138	1
36	36	1
10	36	1
165	165	1
66	111	2
17	17	8
9	14	2
13	36	2
11	13	2
87	87	2
64	68	2
113	113	4
73	104	1
127	130	1
169	169	8
159	160	2
49	53	2
170	170	5
136	139	1
15	15	2
88	91	1
94	94	3
70	110	1
143	153	3
144	153	1
161	161	1
123	162	1
83	115	1
84	114	1
105	105	1
144	145	1
38	40	1
84	120	2
37	41	1
66	96	3
39	50	1
51	51	2
9	13	1
108	167	1
3	3	3
144	147	2
99	112	2
134	145	1
81	101	2
119	120	2
100	100	1
94	117	2
2	5	1
99	99	2
3	4	1
93	93	1
24	24	2
151	154	1
36	74	1
11	24	1
1	76	2
114	168	1
16	16	2
162	163	1
8	9	1
129	130	2
147	149	1
55	55	2
166	166	1
147	159	3
139	155	1
25	37	1
156	156	1
48	48	1
76	78	3
101	105	1
90	167	1
163	163	3
111	168	2
158	158	3
130	130	1
164	165	2
11	11	1
155	156	1
26	52	1
42	43	1
21	22	1
54	55	1
11	14	1
149	149	1
126	161	1
2	21	1
53	56	1
70	99	1
35	107	1
128	128	1
108	168	1
65	69	1
160	162	1
