119	140	2
74	100	5
85	85	7
10	10	5
127	128	2
129	129	5
91	91	5
76	76	3
12	16	6
130	130	5
102	102	3
70	86	2
108	108	6
80	117	7
85	103	2
18	18	5
118	143	4
11	11	2
66	80	4
60	60	4
80	80	2
74	99	2
144	144	5
82	83	2
19	19	2
75	75	4
5	99	3
109	144	1
57	57	2
66	66	2
19	24	4
22	22	1
71	72	1
118	142	2
55	55	6
79	79	2
21	43	1
10	95	2
53	76	3
109	109	3
112	113	2
36	55	2
19	21	3
128	128	1
122	132	4
27	27	3
49	51	4
78	78	2
15	15	2
13	20	3
119	125	7
59	61	3
54	54	3
120	138	1
81	81	8
4	4	1
58	59	1
70	70	1
121	123	4
29	29	5
71	83	4
73	73	5
0	13	6
40	41	2
13	14	4
62	63	3
39	40	3
38	38	1
87	87	4
136	137	1
104	105	2
110	110	1
77	78	1
122	122	3
56	56	5
56	57	1
29	30	3
12	96	1
132	138	2
49	50	3
61	63	1
2	8	6
53	83	2
33	48	3
60	61	4
72	73	1
20	20	3
17	17	2
69	113	2
51	51	2
21	24	3
87	99	4
26	29	4
97	98	2
37	89	5
121	122	3
43	43	2
96	96	3
130	134	1
121	142	4
119	126	4
123	123	3
126	126	1
63	63	5
132	132	3
62	62	1
34	34	1
66	112	2
8	10	3
31	31	2
18	23	1
123	137	2
8	14	1
86	90	1
3	3	3
87	103	2
55	76	2
67	67	2
70	108	4
67	116	2
88	99	1
81	100	2
41	41	3
125	125	1
5	5	6
72	72	2
106	107	3
121	128	3
134	135	3
80	111	2
141	141	3
104	104	5
9	9	1
72	103	3
13	13	1
0	46	1
71	71	2
101	101	1
2	3	1
24	24	2
19	20	2
55	75	1
51	52	1
1	1	3
138	138	1
92	93	4
107	107	2
57	58	1
23	23	2
84	84	1
49	49	6
98	99	1
59	59	1
88	90	1
87	102	1
93	94	2
125	136	1
118	118	3
100	100	2
1	2	1
89	89	1
118	126	4
64	65	2
73	104	1
105	106	1
120	123	1
79	81	1
146	146	1
107	117	1
16	17	2
53	53	3
69	69	3
100	109	1
96	97	1
118	140	2
32	47	1
119	119	1
48	52	1
26	26	2
53	56	1
117	117	2
68	68	1
71	141	1
111	111	1
37	38	1
93	93	1
80	108	1
81	99	1
27	28	2
127	132	1
65	80	1
42	42	1
14	96	1
109	110	3
138	139	3
105	105	1
67	130	2
86	99	1
86	87	1
142	143	1
120	128	1
13	15	1
77	77	1
105	121	2
135	136	1
32	32	1
35	35	1
75	76	1
54	61	2
142	142	1
113	114	1
145	145	1
8	8	1
55	56	1
