7	26	3
126	127	10
39	39	9
122	122	21
77	100	3
105	149	5
107	107	4
152	152	12
65	65	9
5	8	3
78	79	4
94	94	19
9	10	2
93	93	10
100	100	8
139	139	3
86	86	4
135	135	3
109	109	25
53	53	13
6	6	6
132	132	15
22	26	1
47	73	1
28	29	13
28	62	1
131	131	8
120	131	3
116	116	2
119	135	1
36	36	11
6	38	1
111	112	8
87	87	3
121	121	10
114	118	5
4	8	9
10	83	4
24	25	2
28	130	4
47	47	13
17	17	7
138	146	9
86	87	2
136	146	3
62	69	4
43	43	8
82	82	5
17	18	5
107	108	3
80	83	7
22	22	11
96	102	4
12	12	16
14	14	4
44	44	15
115	117	7
102	102	3
14	93	6
24	24	12
46	46	15
10	10	14
134	141	6
46	70	5
140	143	1
117	119	2
68	76	4
122	123	6
64	68	1
110	110	20
37	47	1
114	114	9
128	128	9
66	66	13
102	104	4
125	128	5
15	19	4
117	143	1
33	130	2
41	117	2
76	77	2
126	126	6
10	12	3
124	125	5
137	137	8
64	67	4
76	117	1
80	81	6
92	92	4
76	76	4
75	76	4
66	67	1
6	7	2
38	38	9
41	42	6
64	64	4
51	81	5
74	74	5
44	45	6
129	130	4
11	109	4
62	109	2
5	32	1
128	129	1
140	141	5
134	135	2
19	20	7
12	78	5
136	148	1
75	75	6
26	130	3
84	85	2
11	11	4
31	33	3
123	124	2
28	39	9
41	41	3
104	105	8
77	79	4
15	15	10
50	82	1
78	78	9
96	96	5
67	67	10
113	113	5
125	126	6
4	9	1
144	147	1
113	114	2
144	145	4
109	110	5
68	70	3
73	73	4
122	147	7
148	148	2
150	150	11
29	29	8
98	98	7
61	65	2
46	69	2
69	70	1
106	106	4
129	134	2
102	103	8
100	101	4
63	67	4
143	150	1
103	105	5
149	149	3
134	134	8
129	129	11
111	111	11
136	136	11
118	118	9
130	130	8
48	48	6
46	114	3
100	102	2
26	26	13
77	77	9
45	46	1
21	21	10
114	116	1
123	123	10
41	80	1
138	139	1
105	105	2
70	70	3
65	67	2
4	4	1
35	49	5
147	147	5
4	6	2
35	36	6
92	104	1
42	117	2
18	18	2
117	118	1
19	19	1
114	115	4
97	106	1
5	62	2
13	13	8
56	77	3
95	95	14
103	104	5
147	149	4
40	40	6
112	112	5
83	135	1
81	82	5
146	146	11
42	42	8
108	108	2
70	71	2
152	153	2
53	69	3
31	31	8
30	30	8
120	121	1
96	97	3
110	111	3
16	16	5
6	120	2
15	18	5
134	137	2
45	45	4
12	15	2
9	40	2
73	118	6
7	25	2
12	13	1
39	40	9
133	133	10
104	106	4
145	145	3
85	85	4
54	54	10
14	106	1
117	140	1
94	95	1
118	141	2
119	120	1
36	37	3
121	122	4
109	118	2
67	68	4
85	97	4
83	83	14
142	142	6
86	102	2
37	130	2
103	103	4
131	132	8
7	23	5
15	93	6
153	153	10
58	58	3
37	38	4
117	135	3
76	101	3
133	134	1
34	34	5
141	142	2
33	69	1
143	143	3
141	141	3
85	86	2
97	98	3
58	78	2
33	67	1
5	26	1
122	133	1
55	57	2
32	131	3
142	143	4
25	25	2
124	124	7
104	104	4
106	107	2
68	68	16
120	147	2
62	62	2
47	48	2
73	100	2
98	100	5
62	64	3
146	148	3
118	120	4
94	96	2
50	50	4
119	119	1
10	22	1
27	27	1
26	29	2
153	154	4
127	145	1
5	6	1
120	120	3
71	71	5
68	69	2
84	84	4
49	50	2
98	99	4
7	7	3
132	133	8
77	143	2
43	135	2
51	51	3
32	66	1
149	154	1
20	20	7
16	106	3
75	116	2
149	153	4
81	81	6
111	113	1
109	134	1
132	136	2
46	80	5
10	23	2
25	26	1
63	63	3
144	144	5
27	28	1
97	97	3
18	19	1
74	76	3
55	66	2
9	9	2
124	127	4
76	79	1
87	89	2
9	83	2
3	3	5
50	81	1
80	80	1
81	89	4
13	20	1
23	24	1
130	133	2
135	136	1
15	16	3
125	127	2
10	39	1
23	23	2
127	146	1
134	152	1
28	28	2
146	154	2
67	110	1
34	69	2
72	72	5
16	17	1
136	147	1
71	112	1
85	90	1
108	110	1
88	88	2
38	42	2
101	101	3
3	84	1
35	35	4
117	117	1
102	106	1
77	101	1
54	55	5
115	115	1
5	7	1
13	14	4
33	38	1
141	143	2
4	5	1
13	16	1
49	57	2
62	104	1
117	121	2
15	25	1
49	49	2
113	115	1
56	57	4
134	139	1
116	118	2
79	79	1
125	139	1
101	102	2
43	46	1
35	137	2
99	99	2
55	55	2
49	80	2
22	24	1
3	4	1
107	143	1
10	27	1
17	20	1
74	75	1
69	69	1
10	25	1
93	105	1
112	113	1
68	113	1
151	151	1
130	131	2
29	30	2
85	101	1
4	82	1
48	49	4
23	86	1
125	153	2
136	137	2
106	142	1
10	14	1
127	127	1
123	149	1
3	8	1
83	103	1
12	27	1
93	127	1
82	103	1
36	77	1
37	37	1
119	136	1
17	69	1
84	86	1
24	26	1
8	37	2
53	54	1
138	138	2
40	41	1
115	121	1
21	22	1
93	125	1
48	50	1
65	66	1
63	107	1
147	148	1
149	150	2
102	107	1
43	45	1
105	147	1
44	53	1
33	136	1
