71	71	6
67	67	16
61	62	4
90	90	4
36	36	13
76	76	7
68	88	4
77	77	10
65	65	10
37	37	12
41	41	8
41	67	3
33	64	4
47	48	6
99	99	5
48	48	13
51	51	2
70	70	11
96	97	5
56	56	8
62	70	4
48	49	2
97	97	15
53	53	4
55	56	1
72	73	4
54	70	1
45	59	4
90	91	1
89	89	7
50	51	4
71	72	2
92	92	3
50	50	9
84	96	3
43	43	5
71	77	7
93	94	1
95	96	4
79	79	12
39	39	12
40	41	3
73	73	16
75	75	12
35	35	10
77	78	8
29	45	2
57	57	7
72	72	15
83	83	8
74	75	1
55	55	13
33	33	6
27	35	4
40	40	11
45	66	3
82	82	9
33	40	6
68	68	12
66	66	13
88	88	7
62	63	4
69	84	5
93	93	3
22	46	2
59	61	2
56	98	2
59	62	3
101	101	7
86	86	5
64	64	13
68	73	4
46	47	9
73	74	8
86	87	6
31	48	3
43	56	4
95	95	9
55	72	2
69	69	7
38	44	2
68	79	6
61	85	5
96	96	10
77	88	2
54	89	1
62	65	5
45	45	1
52	52	5
81	82	2
49	50	2
46	63	3
68	70	2
87	87	5
47	47	4
85	85	7
91	91	7
77	83	4
83	88	1
78	85	3
25	26	4
89	93	1
102	102	2
65	67	2
24	24	8
80	80	10
59	89	4
72	74	1
68	84	4
44	44	14
62	62	9
25	25	10
81	81	3
70	80	1
77	85	5
54	55	3
63	64	1
57	66	2
53	55	4
34	78	2
40	44	2
26	26	6
58	59	2
76	77	4
34	76	1
77	87	2
60	60	4
84	84	7
85	88	2
22	22	7
39	47	5
94	94	7
38	76	1
74	74	2
34	36	1
37	38	2
35	38	3
62	79	2
78	78	9
89	95	1
24	26	1
25	47	1
70	84	3
42	42	15
44	61	6
38	38	3
73	75	3
63	63	5
87	91	3
98	99	2
71	81	2
41	44	2
23	25	1
100	100	3
65	72	2
84	89	1
62	73	2
57	59	1
41	42	1
25	58	1
49	96	2
87	88	2
30	67	1
34	34	6
56	57	2
66	87	7
59	59	3
58	58	3
46	48	1
53	101	1
88	89	4
85	86	1
35	36	2
26	59	3
91	92	3
98	98	2
46	46	5
65	69	2
83	84	3
62	99	3
22	26	3
64	65	3
69	83	3
67	69	3
20	98	3
28	28	1
57	58	2
27	27	2
48	55	1
48	56	1
79	80	2
31	43	1
99	100	1
43	72	4
53	54	2
24	46	1
83	100	2
36	37	1
65	86	2
55	57	3
42	43	5
43	44	1
68	69	1
38	41	1
34	35	2
61	61	3
55	89	1
24	25	1
69	101	1
41	77	1
93	95	1
48	65	2
62	74	1
29	29	2
59	69	1
53	59	1
86	88	1
57	72	3
31	32	2
20	20	1
51	52	1
94	95	1
44	45	1
77	89	2
78	88	1
84	98	3
41	71	2
49	53	2
49	98	1
34	64	1
27	40	1
49	49	1
46	62	1
65	83	1
31	31	1
83	86	1
53	62	1
64	73	1
76	95	1
42	65	1
23	45	1
74	76	1
