150	152	2
74	74	6
36	50	1
118	165	5
174	176	1
140	140	3
167	168	3
112	113	1
53	54	7
59	60	1
123	123	9
60	60	5
92	92	1
170	171	1
81	82	3
73	73	4
130	130	10
167	174	2
91	91	4
8	8	5
134	172	1
9	19	3
108	110	2
95	95	5
58	59	4
80	80	5
158	158	4
105	105	2
100	100	3
73	75	1
125	125	5
82	82	1
41	41	5
176	176	3
36	36	2
75	75	4
146	146	3
7	7	2
33	33	4
10	11	6
78	78	7
167	167	5
94	94	3
8	9	1
59	59	5
61	62	4
111	114	2
96	96	3
9	11	1
157	157	5
27	29	5
121	122	3
151	151	5
79	79	8
104	107	4
123	125	4
77	77	1
121	121	3
107	108	3
102	102	2
137	137	3
25	25	6
126	126	2
81	81	3
169	169	1
120	153	4
134	134	3
16	17	3
147	147	5
86	89	1
149	149	4
50	51	6
75	82	1
40	41	1
168	176	1
174	175	3
103	104	2
37	38	3
9	9	4
63	63	2
51	51	5
87	89	1
154	173	1
82	95	1
176	178	2
161	161	6
32	33	5
66	66	3
154	154	1
170	170	1
112	114	2
30	30	7
104	109	1
135	136	3
3	17	2
67	68	2
153	155	1
5	5	1
44	44	2
117	164	3
99	101	2
76	76	2
145	145	3
164	164	1
160	160	5
122	122	3
4	12	1
118	118	2
42	42	1
4	21	2
9	16	1
115	117	2
112	116	1
119	119	6
110	110	2
68	68	1
0	38	1
153	153	1
143	143	3
174	174	7
129	130	1
31	32	3
173	173	1
103	103	5
65	66	3
163	163	3
64	64	2
127	127	8
143	144	2
171	172	3
2	2	2
148	171	1
70	71	1
16	16	2
84	84	1
53	53	2
13	13	1
54	54	1
12	13	2
64	65	2
90	90	6
18	22	1
40	40	3
7	8	1
114	114	2
93	94	2
158	159	2
136	136	2
123	124	3
155	155	1
45	45	1
178	178	1
86	86	1
73	74	2
87	87	2
78	79	2
115	115	2
88	88	1
85	128	2
50	50	3
93	104	1
29	29	1
14	14	2
85	85	2
14	15	2
130	131	1
150	151	3
104	104	2
160	162	2
43	43	1
124	126	1
3	3	3
19	19	1
148	148	2
60	61	3
102	107	3
55	55	2
120	120	2
62	63	3
118	119	1
67	67	1
57	65	1
154	167	1
98	98	3
10	10	2
31	31	2
134	136	6
129	129	2
168	175	1
56	56	1
72	72	3
171	171	2
120	121	2
9	10	2
118	166	1
138	138	1
156	168	2
141	141	3
39	41	2
38	39	1
96	145	1
164	165	1
71	71	2
150	150	2
111	111	1
100	145	1
163	165	1
157	158	2
8	12	1
131	132	2
162	162	1
117	117	1
94	102	1
111	112	2
157	159	1
113	113	1
28	31	2
107	109	1
131	131	1
109	109	1
60	62	1
116	116	1
58	58	1
106	106	1
90	95	1
124	124	1
62	62	1
133	135	1
85	129	1
75	76	1
175	178	1
39	40	1
90	91	1
