93	93	19
91	91	7
30	30	17
49	49	8
63	63	4
6	8	4
44	44	5
131	131	10
124	124	5
1	2	8
24	25	11
105	105	9
14	15	1
84	84	4
114	114	17
71	71	10
101	101	8
95	95	4
48	48	11
21	22	6
33	34	5
111	148	3
123	124	5
147	148	3
75	106	1
78	79	4
86	86	10
104	104	20
54	54	17
35	37	2
13	16	6
119	120	4
42	43	6
124	125	5
39	39	11
99	99	6
9	10	7
46	46	5
69	69	8
41	41	22
144	144	11
79	79	12
122	127	4
47	47	10
77	77	17
148	148	4
84	91	3
32	33	10
154	154	16
26	26	15
20	20	8
157	157	13
22	23	9
125	126	3
8	40	2
92	143	3
133	133	12
88	120	2
38	141	5
4	4	7
83	84	8
152	152	6
13	14	11
48	49	2
87	95	3
73	129	3
140	145	4
55	55	5
116	148	1
37	37	12
106	106	14
133	134	4
88	88	6
32	32	7
67	121	3
80	108	1
8	10	3
87	87	9
0	0	6
18	39	2
67	132	2
137	137	11
36	36	13
121	122	3
82	85	1
78	78	13
108	135	1
131	134	3
34	35	1
7	43	3
25	27	1
130	130	14
129	129	13
152	153	2
134	135	3
107	107	14
150	151	1
113	114	2
47	49	2
123	123	10
92	106	1
127	127	16
22	22	8
142	143	3
24	106	4
93	136	3
115	115	5
156	156	13
88	150	1
136	136	5
15	16	7
8	8	13
79	105	2
5	5	7
83	83	12
110	147	3
23	39	2
84	112	1
42	42	9
140	140	7
118	118	18
17	18	3
53	54	4
131	132	7
9	9	11
11	56	4
1	1	12
39	40	7
157	158	9
64	64	5
43	43	13
107	144	3
18	21	1
23	23	9
53	53	3
85	86	6
108	108	5
17	84	2
71	98	3
89	89	2
25	25	7
81	81	8
142	142	13
123	146	2
15	40	3
19	19	8
112	112	8
51	52	8
91	99	2
36	37	1
44	45	4
155	158	8
127	129	8
37	41	2
94	95	4
132	132	4
129	130	4
156	157	3
14	14	4
72	75	2
100	100	4
8	120	2
31	31	19
46	55	2
95	97	4
3	107	1
127	128	7
79	80	6
52	53	5
20	21	2
91	97	2
92	98	3
92	92	4
17	17	13
150	150	8
77	78	4
125	125	5
111	111	14
6	6	8
153	158	2
116	117	8
30	36	4
15	15	5
7	7	8
137	157	2
147	147	17
110	148	2
130	156	1
117	117	14
29	29	12
67	68	11
144	149	1
40	41	3
143	144	4
80	80	7
82	120	3
44	103	1
4	12	1
158	158	10
28	105	1
13	13	9
139	139	6
92	97	7
63	65	3
155	155	22
21	21	12
141	141	11
8	9	1
94	96	4
143	143	9
38	41	3
98	98	15
113	113	17
134	134	14
145	146	1
67	67	12
110	111	4
30	31	6
149	149	5
51	51	3
50	50	6
110	110	3
45	104	1
144	150	2
41	51	1
10	11	1
11	11	7
141	142	11
33	33	9
146	146	4
12	12	4
24	24	7
16	16	6
62	62	8
138	138	6
82	83	6
130	131	6
103	103	9
144	146	1
69	132	3
145	145	5
80	82	4
70	157	1
95	123	3
129	156	6
75	75	7
18	19	4
86	118	1
146	149	3
85	85	8
109	109	8
112	121	1
97	99	2
27	27	7
90	90	11
109	110	4
41	42	5
75	77	2
151	151	8
88	89	4
31	32	3
34	34	10
3	29	1
3	3	6
111	112	6
121	121	9
19	40	2
35	35	5
69	70	3
153	154	1
56	56	3
33	40	1
137	138	12
79	82	1
122	122	8
76	76	2
107	134	2
6	24	3
70	70	11
95	133	2
67	70	1
116	116	12
12	14	7
38	40	4
2	2	6
94	125	2
126	126	10
7	8	8
107	108	1
11	12	3
70	71	1
26	27	5
25	26	3
139	140	7
119	119	7
106	107	8
54	56	4
118	120	1
49	55	2
48	50	3
66	66	5
22	38	1
96	98	2
105	106	4
97	131	2
128	129	4
68	68	11
84	85	7
10	10	4
92	99	2
130	134	2
21	132	3
0	3	4
86	93	3
155	156	3
46	49	2
132	133	6
81	122	3
67	69	6
123	126	2
135	137	6
112	113	2
18	18	8
140	141	9
17	20	1
35	36	2
128	128	4
154	155	4
43	142	1
135	135	6
134	136	2
153	153	9
22	108	3
90	100	1
138	139	1
91	92	6
135	136	2
97	97	7
124	144	1
80	87	1
54	55	6
152	157	6
13	18	4
24	26	2
120	121	7
3	4	4
10	14	1
16	41	1
95	96	2
125	134	2
47	154	3
136	143	1
94	94	10
56	57	2
144	145	3
28	28	6
18	41	4
0	65	1
73	73	8
103	104	3
80	81	1
124	126	3
23	24	3
51	55	1
138	157	2
73	74	1
97	126	1
52	52	2
63	68	1
14	20	2
68	156	4
89	105	2
66	106	1
19	20	3
1	17	1
18	46	1
71	154	1
2	3	2
25	29	1
50	51	2
63	64	3
103	135	1
63	117	1
86	87	8
77	92	1
98	121	3
152	155	2
45	45	5
102	102	2
94	127	1
88	121	2
18	31	3
75	102	1
5	6	1
98	111	3
4	62	1
96	96	2
90	99	4
99	107	1
89	100	1
101	102	4
64	65	1
4	43	1
90	91	1
71	73	3
85	144	2
1	3	1
79	121	2
42	110	5
65	65	3
72	72	1
115	146	2
42	80	4
44	148	2
36	39	1
83	94	2
4	46	2
61	134	1
107	112	2
118	119	1
110	134	2
136	137	1
121	123	2
75	87	1
68	70	1
129	131	1
102	142	2
82	82	3
37	38	2
68	71	3
124	134	1
30	102	1
1	5	4
71	72	1
138	156	2
8	12	1
20	34	1
98	129	1
86	91	1
49	52	1
77	102	1
95	122	1
8	11	1
31	34	1
9	154	3
19	37	1
4	5	1
100	104	2
38	38	2
94	99	1
11	13	1
62	63	2
45	46	2
11	16	2
92	93	1
81	82	3
31	45	1
80	122	1
84	86	4
7	36	1
46	61	2
87	96	1
16	17	1
72	100	3
99	156	1
41	55	1
21	24	1
93	144	1
141	143	1
57	57	2
99	101	1
97	136	2
9	155	1
126	127	1
19	21	1
86	122	1
122	126	1
87	88	2
40	40	3
29	30	2
133	135	1
43	122	3
120	120	2
99	157	1
115	116	1
87	122	1
140	147	2
39	140	1
101	152	1
16	18	1
96	149	1
146	147	1
96	97	1
0	2	1
52	55	1
106	108	1
65	71	1
12	39	1
15	43	1
94	97	1
92	133	1
138	142	1
136	138	1
104	106	1
92	134	1
6	44	1
