70	70	3
2	2	2
86	86	8
70	71	4
83	83	8
76	77	2
18	18	6
8	8	15
124	124	11
68	68	4
0	0	1
123	125	4
47	66	1
74	76	1
131	131	13
37	38	1
33	36	1
76	76	3
4	4	7
38	38	7
4	32	3
82	83	6
121	121	8
115	115	9
65	117	2
6	6	6
56	58	4
15	15	23
84	84	13
60	60	11
101	102	3
11	12	1
112	112	6
23	23	10
113	113	5
134	134	4
85	111	2
80	80	3
30	31	12
73	74	4
22	23	5
8	25	3
98	102	2
40	40	7
117	117	2
113	114	7
112	113	3
57	57	4
99	100	3
105	107	3
16	16	7
43	43	11
79	114	4
90	90	6
120	124	1
127	127	8
117	118	3
82	82	11
12	12	3
106	106	8
101	101	3
48	56	6
119	119	6
62	62	7
97	97	8
115	126	6
107	107	3
125	126	2
21	21	6
84	85	1
26	26	13
35	36	2
42	42	4
40	60	1
8	10	2
14	14	11
91	91	2
1	1	4
1	2	1
9	10	2
40	41	3
104	104	9
92	92	17
45	45	2
65	66	2
66	66	4
9	19	1
56	56	6
85	85	5
15	16	2
22	22	8
57	58	3
77	77	3
111	111	2
11	11	9
78	78	11
132	132	4
61	61	8
120	122	3
43	45	2
123	124	3
37	37	7
81	100	3
93	93	3
128	128	11
7	59	2
25	25	5
30	30	3
106	107	3
118	118	7
34	34	7
88	88	1
129	129	2
36	36	8
24	25	1
16	17	7
84	111	2
66	80	5
47	67	3
32	32	7
84	110	1
7	7	8
33	34	4
109	110	1
23	24	2
115	121	2
39	40	3
29	30	2
27	27	7
33	33	13
35	37	1
123	123	3
72	72	3
60	134	2
133	133	2
6	58	2
47	89	1
6	59	1
57	59	3
28	28	3
110	110	7
127	130	3
102	103	3
107	108	3
41	41	8
78	79	1
77	101	2
87	87	8
103	103	4
13	13	2
10	10	7
75	77	2
21	22	2
8	26	4
6	60	3
41	44	1
65	65	4
125	125	5
74	102	4
9	9	3
131	133	3
122	122	5
99	99	2
115	118	1
40	43	3
120	129	1
122	129	1
84	125	1
73	73	1
78	117	1
93	94	1
5	5	5
44	122	2
79	82	1
45	131	3
58	58	2
20	21	1
23	26	2
87	130	3
44	45	1
128	129	1
67	67	2
118	120	3
121	128	2
6	7	2
79	79	4
36	121	1
112	114	1
34	36	1
100	100	2
3	3	2
29	29	1
8	9	2
79	112	1
48	48	1
66	77	3
7	30	1
11	14	2
55	55	1
78	111	1
35	35	2
13	19	1
45	133	1
13	23	4
41	43	1
21	24	1
59	59	2
26	31	2
57	90	1
2	61	2
105	105	5
46	47	2
74	75	2
48	50	1
115	116	2
46	46	4
72	97	1
20	20	1
74	74	3
15	19	1
109	109	2
116	116	2
31	31	2
103	106	2
82	101	1
124	126	1
44	44	6
15	24	1
47	47	3
43	44	2
49	88	2
87	88	4
48	57	1
29	41	2
13	20	2
124	125	6
114	114	4
82	110	2
44	134	2
66	68	1
72	99	1
115	125	1
48	49	2
116	117	1
95	95	3
5	8	1
18	24	2
120	120	3
10	11	2
62	64	1
82	102	1
45	121	1
109	111	1
100	102	2
121	129	1
65	118	1
42	60	1
96	98	1
69	69	2
2	3	2
45	115	1
95	96	1
126	126	1
121	130	1
66	72	1
38	39	1
114	115	2
55	56	1
120	121	1
73	76	1
38	40	1
91	93	1
12	15	1
49	49	1
82	112	1
21	23	1
20	24	1
