91	93	3
78	86	4
67	69	7
36	36	3
101	107	2
53	54	10
28	30	2
31	31	5
76	77	5
98	98	8
79	79	17
50	56	3
94	94	9
78	79	5
59	62	1
56	56	14
98	99	14
74	78	3
22	23	2
34	34	9
60	60	8
104	105	4
60	61	3
76	78	3
36	37	1
81	85	3
93	95	8
68	69	5
20	24	3
66	66	19
48	48	14
101	101	14
58	58	10
30	30	10
28	29	2
68	78	3
97	107	3
85	86	5
49	49	11
81	81	10
87	90	6
61	68	5
20	20	11
86	87	6
88	88	15
56	58	7
52	52	6
99	102	6
39	39	9
28	28	8
21	23	7
34	41	4
96	97	3
54	57	2
64	64	3
70	74	3
80	80	21
64	65	2
88	90	4
35	36	2
39	42	5
22	22	10
61	64	2
91	91	9
81	83	3
97	99	6
41	47	2
61	61	5
102	102	6
89	93	4
97	98	7
21	21	7
31	32	14
23	23	7
25	26	3
37	38	3
92	94	2
94	95	3
73	73	5
96	96	4
67	67	6
72	73	4
79	81	4
47	56	4
89	90	3
78	78	8
46	46	9
97	97	9
54	56	5
93	94	5
37	40	2
95	95	10
87	88	8
95	99	2
33	33	10
40	40	8
99	99	12
104	104	4
66	67	2
95	96	8
79	85	1
77	77	11
39	41	4
27	27	8
34	36	4
40	45	2
85	85	17
43	43	8
29	29	6
61	62	5
45	45	5
86	86	10
105	105	7
62	62	9
54	55	3
84	84	14
44	48	2
32	33	1
92	93	2
25	25	3
29	30	3
44	65	1
63	63	7
24	25	1
38	38	5
71	71	10
76	76	2
69	70	1
85	89	4
100	102	7
102	103	4
65	66	4
69	69	7
74	74	9
43	44	3
62	63	3
73	74	7
49	50	7
67	68	5
51	51	5
38	40	1
77	85	2
87	87	6
100	101	3
84	85	3
38	41	2
47	48	5
44	68	3
46	48	2
44	47	2
92	92	3
41	42	2
63	64	1
42	45	1
72	75	1
106	107	5
89	89	5
103	103	8
44	46	2
83	85	3
41	44	2
82	82	5
80	82	1
41	41	1
42	42	11
65	65	4
59	59	6
47	47	5
53	53	5
83	84	11
66	68	1
74	75	3
57	58	9
62	64	1
31	44	1
37	37	7
59	60	4
54	54	2
76	81	8
99	100	3
72	72	4
40	41	6
80	81	5
70	72	4
90	90	12
39	40	2
50	50	6
52	54	1
69	72	5
57	57	3
30	31	4
88	91	1
74	76	2
55	55	2
89	91	3
86	90	7
53	57	1
55	56	4
56	73	3
44	44	5
21	24	1
95	97	4
56	59	5
31	33	3
101	102	5
69	73	4
58	59	4
26	26	2
75	75	4
71	72	3
25	27	2
107	107	1
57	59	1
93	93	3
47	49	1
100	100	6
105	107	1
19	20	2
38	39	2
80	84	3
35	35	4
33	34	1
22	24	3
60	63	2
95	98	3
58	62	1
78	80	3
84	87	5
71	76	2
27	28	9
42	43	3
68	68	6
82	85	2
55	64	1
82	83	2
75	76	4
32	32	3
58	67	2
56	80	3
27	30	2
46	49	1
30	32	1
26	27	2
69	77	2
52	53	2
45	67	1
81	86	3
53	58	4
45	46	4
24	35	1
35	39	1
60	62	3
68	75	1
69	75	1
59	64	3
98	100	1
54	58	1
77	78	1
78	85	1
87	91	1
61	73	1
50	55	2
51	52	2
50	51	1
90	92	1
23	24	1
83	83	2
67	70	2
79	80	1
49	55	2
92	95	1
42	47	1
60	68	3
79	82	1
103	105	2
61	74	1
106	106	3
43	47	1
87	89	1
90	93	1
82	84	1
70	73	1
59	63	1
70	79	1
