112	113	5
18	18	4
12	12	5
27	27	6
92	93	4
127	127	12
34	35	2
115	115	14
72	72	12
112	128	6
50	50	1
34	36	4
124	124	12
90	90	10
118	119	2
34	34	3
43	43	7
58	58	10
93	93	8
36	43	2
63	63	9
98	98	7
75	75	9
26	41	2
42	42	9
133	134	1
108	108	3
93	111	3
69	69	4
113	133	9
34	42	4
93	96	2
82	130	2
81	81	12
4	4	1
15	73	2
6	43	2
15	15	4
116	116	6
84	84	5
43	44	6
65	65	8
37	37	5
27	31	1
112	112	5
23	23	2
103	103	2
35	35	8
24	24	9
38	47	7
28	31	8
41	41	7
30	30	9
95	99	5
96	96	4
92	92	8
29	29	5
57	58	8
69	70	2
33	43	1
40	41	4
50	110	3
91	91	9
99	99	4
32	32	14
95	95	7
107	107	4
72	74	2
86	86	9
51	51	1
36	36	1
32	44	3
92	96	2
126	126	6
64	74	5
121	123	5
26	45	1
59	59	3
56	114	2
83	132	2
111	116	2
32	33	4
129	129	5
122	122	5
2	2	7
86	102	4
126	127	3
19	21	2
78	86	4
46	46	4
5	55	3
111	111	1
61	77	3
31	32	3
105	106	7
10	18	1
100	100	3
130	130	4
76	76	2
90	92	4
2	19	2
96	105	2
81	100	1
78	78	2
6	39	3
37	40	6
119	119	6
109	109	5
11	13	3
58	59	4
105	105	5
36	42	8
67	67	3
12	17	4
70	70	3
9	9	3
131	131	2
77	77	5
21	59	1
1	1	9
26	26	2
45	45	3
20	21	3
42	76	4
11	11	7
68	68	4
83	111	4
112	133	3
8	8	3
130	131	1
82	82	6
39	39	2
26	37	1
131	133	1
11	23	2
5	5	2
100	105	2
72	75	1
38	38	2
60	60	5
58	60	3
88	88	2
112	132	2
113	131	4
96	97	6
24	26	2
7	48	4
12	44	2
1	117	4
47	47	3
124	127	4
39	41	3
48	48	4
83	113	2
104	104	4
106	106	1
123	129	3
20	20	5
112	134	1
64	64	3
66	66	2
70	73	1
71	71	1
30	32	4
14	14	2
36	40	3
114	119	2
7	7	1
79	80	3
110	110	7
87	87	4
122	129	3
3	6	3
19	117	1
94	94	3
3	22	1
7	28	3
83	83	6
0	2	2
4	119	1
35	43	2
104	105	1
110	111	4
120	121	1
27	28	1
98	109	2
30	31	2
101	102	4
114	115	2
7	31	2
11	12	3
129	130	2
17	17	7
113	114	1
77	86	1
62	63	4
128	128	2
87	104	2
25	25	2
81	89	1
101	101	5
6	34	1
21	21	2
64	65	2
93	95	1
56	57	4
27	42	2
23	24	2
121	121	2
55	55	1
56	56	1
10	59	1
14	73	2
33	33	2
40	43	2
125	125	2
3	21	3
41	46	2
62	62	1
81	88	1
107	109	2
72	73	2
61	78	1
61	62	1
1	19	1
97	98	3
1	3	1
15	72	1
79	102	1
101	104	1
79	79	1
3	3	3
101	105	1
37	46	2
10	20	1
3	47	1
0	47	1
48	49	1
28	28	1
87	103	2
89	89	1
22	23	2
106	119	1
29	42	1
80	101	1
118	118	1
134	134	1
27	43	1
80	80	1
114	133	1
103	104	1
33	45	1
90	113	1
12	13	2
120	120	1
91	98	1
74	74	1
77	78	1
14	15	1
44	44	1
94	105	1
41	47	1
61	116	1
90	132	1
