8	11	6
172	172	1
44	44	3
39	39	13
133	133	7
155	155	6
10	10	7
173	173	1
2	41	1
115	116	4
74	76	3
68	68	2
10	11	1
116	116	6
27	27	4
145	145	6
175	175	3
36	39	1
88	96	3
125	125	9
80	80	2
184	184	6
128	128	9
74	74	4
100	100	3
143	146	3
183	183	3
170	170	8
107	107	5
70	70	15
35	35	2
30	68	2
181	181	4
156	156	5
137	137	3
23	23	5
25	25	5
40	55	2
78	78	4
149	149	3
122	122	4
24	27	2
95	99	3
71	77	2
151	152	9
21	28	4
33	64	2
101	101	5
167	168	4
79	80	4
87	87	4
190	190	1
168	168	5
161	162	4
182	182	4
9	9	11
137	138	2
20	20	2
94	99	1
164	166	3
138	138	12
38	39	1
136	136	7
60	60	4
13	13	15
189	189	8
70	101	2
120	120	4
180	180	6
172	173	5
174	174	6
5	5	8
48	48	18
57	58	3
46	50	2
187	187	3
51	51	1
42	42	6
79	79	10
81	82	1
115	152	3
177	177	8
29	29	14
38	38	5
117	117	3
61	61	2
41	41	4
157	161	2
33	33	4
155	181	2
112	112	9
65	65	2
159	159	9
190	191	1
141	141	6
7	7	4
135	186	4
193	194	1
31	68	5
12	12	6
121	121	3
131	131	2
71	71	8
63	63	3
20	40	2
61	78	3
14	14	5
193	193	1
195	196	1
78	80	3
99	99	6
147	147	3
96	96	3
178	178	4
89	89	2
39	40	5
134	134	6
112	130	1
32	32	4
109	111	3
67	67	8
74	96	1
136	183	1
179	179	2
46	46	4
95	95	1
119	194	2
109	109	7
122	196	2
117	118	2
37	38	3
29	31	2
97	97	2
113	125	4
113	113	5
22	43	3
0	0	4
114	116	2
6	10	2
186	187	2
73	73	4
148	148	2
69	69	13
176	177	3
29	30	6
41	99	1
30	30	5
18	19	1
17	37	4
106	106	2
11	11	5
23	197	2
1	2	2
188	188	4
167	167	4
165	165	4
127	127	7
169	169	6
31	31	10
72	72	4
108	108	3
77	77	5
75	76	2
55	55	4
9	43	1
45	45	6
171	171	3
55	57	2
57	57	3
187	188	4
50	50	3
162	162	2
24	24	4
2	40	3
114	115	4
52	53	1
76	76	5
61	68	3
115	115	3
157	157	2
94	107	2
12	56	2
112	195	1
12	13	1
100	101	1
104	190	1
139	139	1
125	126	1
159	160	2
135	141	2
132	132	4
84	84	4
94	94	2
111	111	6
81	83	3
62	64	2
143	143	2
31	32	2
194	194	6
142	162	6
3	4	3
94	118	4
152	152	1
1	79	2
93	93	4
136	138	2
49	49	5
33	61	3
123	123	1
15	15	3
144	144	4
150	150	5
56	57	4
59	60	4
119	119	4
60	68	2
80	81	4
10	101	1
160	160	3
123	124	2
81	81	2
9	98	2
144	145	3
17	19	2
43	43	1
89	122	1
56	56	1
126	182	2
175	176	1
140	141	1
118	176	1
178	179	1
186	186	3
124	125	1
52	52	2
45	46	4
54	54	2
113	114	2
66	67	1
88	88	2
129	131	1
157	158	2
79	81	2
118	118	3
64	65	4
134	135	2
18	18	1
16	16	7
149	150	1
39	44	2
182	183	1
33	78	1
71	72	1
148	160	2
19	19	2
197	197	1
64	64	1
6	6	1
17	17	1
4	111	1
8	8	4
185	185	2
66	81	1
47	47	2
13	50	3
8	9	2
163	163	4
97	98	1
8	12	1
66	66	8
161	161	2
183	185	1
22	28	1
73	138	2
16	17	3
1	1	3
135	135	2
46	54	1
122	124	2
82	82	1
34	36	2
102	102	1
96	97	4
151	151	1
114	150	2
5	25	1
161	163	3
9	10	1
153	153	2
67	68	1
14	15	2
137	197	2
72	88	1
139	140	1
89	98	2
63	66	1
130	131	1
73	137	2
11	46	4
114	151	2
4	24	2
40	40	1
50	51	3
17	18	1
59	59	1
32	33	2
173	174	1
16	18	2
142	146	4
116	137	3
5	8	1
63	64	1
103	191	1
110	111	2
184	185	2
21	21	1
121	122	1
71	82	2
97	138	1
85	85	2
94	100	1
107	111	1
69	100	1
53	54	1
153	173	1
153	167	1
102	103	1
98	98	1
62	62	1
60	62	1
70	76	1
53	53	1
170	183	1
128	129	1
48	49	1
94	122	1
37	37	1
148	149	1
126	126	1
47	50	1
82	83	1
107	108	1
179	180	1
75	75	1
