121	121	6
55	55	2
73	73	8
7	7	6
28	29	10
115	115	14
65	65	19
92	93	5
131	132	3
11	13	3
99	99	7
108	108	9
66	66	4
68	130	6
69	70	4
18	18	16
17	17	11
32	32	6
9	9	5
111	111	8
29	29	3
61	62	1
4	4	12
75	75	8
35	114	4
96	97	6
10	10	4
125	130	3
45	45	11
88	104	1
64	65	7
36	91	3
16	17	3
65	70	3
7	21	1
91	92	1
26	26	3
128	128	10
2	3	2
64	64	12
67	118	1
8	8	8
82	83	4
102	102	3
27	27	8
31	31	5
23	23	12
120	121	12
132	132	7
95	95	4
82	82	6
80	80	3
10	15	4
3	3	4
77	77	11
14	15	1
113	113	9
0	0	8
117	117	13
76	77	1
15	15	4
35	35	5
112	112	6
37	63	5
33	33	6
133	133	8
103	105	3
56	58	2
9	10	1
28	28	11
104	104	4
93	93	3
50	132	1
37	40	3
109	109	3
34	34	8
6	6	6
58	58	19
128	129	5
14	119	2
124	124	2
25	25	7
17	94	1
132	133	8
32	33	5
80	83	2
20	20	4
103	103	9
59	66	4
26	27	1
106	106	11
94	94	11
44	44	5
123	123	1
11	12	2
30	30	9
50	50	8
63	91	1
70	70	6
89	103	1
14	120	12
101	124	3
108	124	4
60	108	3
68	71	2
47	47	7
17	18	1
113	114	1
58	59	2
129	130	3
68	113	4
45	46	1
126	126	4
101	102	4
82	84	1
2	2	2
60	60	8
12	44	2
11	11	9
43	43	5
68	69	5
125	125	12
81	81	3
109	131	2
33	78	7
74	74	4
14	14	5
41	41	4
118	118	5
90	102	1
65	66	6
5	5	9
63	63	4
35	36	4
108	131	3
69	74	1
67	108	2
33	92	2
89	89	3
110	125	2
90	90	5
63	66	1
24	24	7
33	45	2
21	21	5
42	42	5
87	87	2
12	12	10
8	73	3
87	90	1
48	131	4
13	120	3
73	121	1
10	11	4
56	56	5
114	114	6
84	84	14
89	90	3
109	111	6
23	24	5
57	94	3
19	19	6
85	85	5
49	50	2
86	86	5
81	82	2
26	102	1
61	61	8
7	15	3
73	95	3
7	12	4
4	36	3
129	129	2
93	94	1
76	76	6
62	62	5
12	13	2
119	119	3
90	91	1
1	1	2
32	79	1
79	79	4
55	99	3
110	111	1
31	97	1
67	68	3
99	104	2
20	43	3
27	33	3
122	122	4
27	32	1
79	89	2
57	57	2
130	130	2
4	9	2
4	39	3
33	77	2
68	68	5
36	36	1
48	48	3
92	92	10
115	116	3
71	74	3
105	105	3
8	9	3
4	5	1
114	123	1
101	101	2
114	115	1
87	93	1
75	76	3
106	108	1
59	59	1
100	100	3
7	13	1
91	91	2
40	41	8
31	32	1
120	120	9
10	12	1
34	56	1
78	78	1
92	115	1
35	44	1
48	50	1
106	107	2
107	107	4
40	40	2
123	130	2
126	130	1
134	134	5
43	123	1
2	62	5
84	85	1
131	134	2
22	24	1
11	117	3
97	97	1
121	123	1
29	30	2
116	116	5
35	92	2
77	78	4
83	84	2
20	21	1
39	39	2
44	115	1
72	72	3
92	114	1
110	110	2
67	67	3
22	22	9
92	102	2
93	112	1
112	113	4
57	99	3
25	27	2
54	55	1
82	106	2
71	71	3
71	73	1
115	122	2
3	4	2
128	131	1
78	83	1
56	100	1
37	37	2
96	105	1
60	101	2
18	43	1
23	82	1
89	91	1
42	43	2
111	124	1
42	133	1
128	130	1
107	111	1
109	110	1
7	10	1
66	69	1
69	116	3
89	92	1
57	101	1
25	80	1
3	14	4
35	102	2
13	104	2
46	47	1
83	96	1
83	83	2
49	49	2
87	105	2
10	119	1
36	45	2
78	79	1
130	133	1
6	24	1
80	81	1
15	16	3
13	13	2
18	19	2
61	105	1
38	38	2
15	23	1
47	116	2
15	126	1
12	47	1
116	117	2
31	49	2
107	109	1
96	96	1
45	118	1
11	46	1
125	126	2
73	89	1
33	35	1
48	49	1
26	29	1
27	38	1
18	74	1
4	11	1
117	119	1
43	93	1
131	131	1
108	109	1
