45	59	2
19	19	19
64	64	14
3	4	7
27	28	9
18	18	7
53	54	2
77	77	24
36	37	4
11	12	2
38	38	11
68	68	16
49	53	1
10	10	9
13	13	11
45	47	3
24	24	21
3	9	1
40	41	2
57	70	3
32	67	2
52	55	2
44	45	4
37	37	14
2	4	1
73	73	17
33	33	11
43	45	8
56	74	2
71	76	2
10	13	3
42	42	22
32	33	1
5	10	5
33	53	1
47	47	9
5	5	17
8	8	4
58	58	8
54	54	10
32	32	8
60	60	10
29	29	19
22	22	9
68	70	2
55	59	2
23	24	4
57	69	1
69	69	19
31	72	4
44	44	12
30	30	8
58	59	3
12	13	3
12	12	14
73	74	1
7	7	16
42	43	2
56	56	10
55	55	6
72	72	21
53	53	10
65	68	1
23	23	10
63	64	5
28	28	18
50	50	7
32	37	3
36	38	4
57	57	11
23	31	2
73	75	5
57	77	4
58	73	4
30	33	4
74	74	11
5	9	2
27	31	5
26	26	20
64	65	4
50	65	2
35	36	8
3	6	2
3	3	14
48	48	14
34	38	2
41	43	5
70	73	4
29	30	7
53	70	2
39	40	3
40	63	1
71	71	6
55	67	1
29	44	4
19	30	1
49	49	8
63	63	9
1	1	12
11	11	7
11	14	1
13	43	3
40	40	13
5	44	2
67	67	8
51	51	11
43	43	9
27	38	4
66	69	2
20	20	9
9	9	18
70	75	3
62	62	6
6	6	11
72	73	4
45	45	11
11	13	2
24	41	2
14	14	3
19	22	1
15	53	1
42	51	3
21	21	9
56	77	1
28	56	1
38	39	5
64	66	2
22	23	6
19	58	5
65	65	10
13	45	2
62	64	3
26	27	6
53	55	1
41	41	10
57	58	3
61	61	12
6	7	14
36	36	12
66	66	10
20	33	3
57	59	6
4	4	5
62	63	1
75	75	8
12	20	3
47	51	2
55	57	5
54	55	9
36	43	4
71	73	2
22	29	2
42	58	1
55	56	4
24	25	2
27	27	6
34	34	4
38	65	1
69	76	4
68	71	1
2	2	11
47	49	1
37	38	2
61	62	2
4	13	2
20	21	1
2	6	4
68	69	1
25	26	6
57	72	2
64	70	1
7	8	4
13	14	3
27	29	1
25	25	16
35	58	3
41	44	1
28	40	2
69	70	4
33	38	1
39	39	14
59	59	8
3	13	2
30	77	2
9	50	1
21	57	1
0	0	8
9	10	3
35	35	3
14	30	1
32	52	2
9	13	1
70	71	5
3	8	1
46	46	9
51	63	2
52	77	2
18	19	2
6	13	1
60	61	1
5	7	3
76	76	4
21	22	1
35	53	1
56	57	1
38	43	3
48	50	6
31	32	2
48	51	2
76	77	5
2	3	9
23	34	2
39	42	2
66	68	3
48	52	1
19	20	2
37	62	1
31	31	5
53	73	2
30	34	3
10	42	1
67	71	1
11	46	1
75	76	2
51	68	1
50	51	4
59	63	2
29	76	1
28	47	3
52	52	3
2	26	2
70	70	3
25	27	1
41	45	1
32	57	1
21	33	1
58	69	1
1	2	3
29	31	1
34	35	3
44	46	1
49	52	2
61	66	1
9	60	4
42	44	2
28	30	1
2	9	1
7	14	1
21	30	2
56	62	2
68	75	1
72	74	3
7	50	1
67	75	2
43	47	2
10	12	1
53	61	1
3	12	1
11	41	1
61	64	2
49	50	1
6	10	1
12	45	1
48	60	1
55	69	1
8	9	1
55	68	1
34	48	2
52	53	2
12	46	1
55	62	2
55	66	1
47	65	1
54	75	1
51	52	1
44	48	1
52	60	1
5	11	2
35	37	1
58	61	1
24	69	2
61	63	1
42	59	2
39	47	1
13	42	1
58	74	1
20	30	1
40	65	1
33	37	1
30	39	1
69	72	1
71	72	1
2	10	1
19	28	1
