99	99	1
150	151	7
115	121	2
3	3	10
139	141	3
28	28	4
5	7	8
112	112	6
50	50	10
42	47	1
11	11	18
105	106	5
103	138	1
98	124	4
50	52	1
84	84	7
102	102	8
130	139	6
107	107	3
30	30	4
15	16	2
113	113	8
55	55	1
115	144	1
44	81	5
122	127	4
91	91	4
116	116	6
34	37	2
25	45	4
120	145	1
140	140	3
38	38	5
26	26	2
45	45	6
78	83	3
149	149	1
110	151	1
104	104	10
79	79	1
96	96	6
137	138	1
10	14	2
112	132	1
6	6	6
130	130	4
8	8	7
106	106	5
124	125	8
68	69	2
32	36	2
30	33	4
56	56	5
141	141	10
12	13	1
75	76	6
145	145	2
132	132	8
71	113	3
148	149	11
20	23	3
40	40	5
87	87	3
67	67	4
29	29	1
129	129	5
36	36	7
66	124	1
23	23	3
21	21	7
104	114	1
97	103	5
94	95	3
43	43	2
120	120	4
111	131	1
17	17	4
65	65	11
12	14	4
44	44	2
91	113	3
115	116	5
144	144	2
82	85	3
139	139	1
137	137	2
55	56	2
53	53	2
16	16	3
6	31	1
87	109	3
41	41	2
67	69	2
22	26	1
25	25	2
111	111	5
5	5	1
10	10	3
63	64	6
83	87	1
66	66	1
85	85	7
38	87	1
53	57	1
96	97	5
9	43	3
103	122	1
90	116	1
73	73	2
80	81	3
18	18	5
40	46	4
79	80	1
139	154	1
135	136	1
29	31	3
93	130	4
136	136	1
100	102	1
70	70	6
110	111	1
29	30	1
49	49	3
43	81	2
115	115	4
118	133	4
122	123	2
81	82	2
105	105	8
26	27	3
32	33	2
56	57	1
71	71	3
93	93	2
79	107	1
97	104	4
5	6	1
73	85	2
80	89	6
140	141	2
11	19	1
86	120	1
117	117	4
9	20	2
114	114	2
48	48	2
5	8	2
19	19	3
15	15	2
121	121	5
76	76	3
126	128	2
31	31	3
128	128	1
105	107	2
33	33	2
36	38	1
82	82	3
88	88	1
108	137	1
96	113	2
115	143	1
58	82	1
138	142	2
133	133	3
19	20	1
122	122	2
46	46	4
76	86	1
142	154	1
12	18	1
44	93	2
132	147	2
47	81	4
75	75	3
124	124	3
98	98	6
131	131	2
35	45	2
112	113	3
14	14	1
83	83	2
82	83	3
121	126	1
100	100	6
92	93	1
53	54	1
118	118	4
69	93	2
131	147	2
38	68	1
4	4	3
36	81	1
34	34	3
24	24	1
46	93	1
103	103	2
14	15	1
88	109	1
129	146	1
76	79	1
29	100	1
37	39	1
45	93	1
70	84	1
75	79	1
47	47	2
67	68	1
104	145	1
6	7	1
85	86	4
39	40	5
51	51	4
94	98	2
84	119	4
27	46	1
132	133	2
141	142	3
11	12	1
8	43	1
82	86	1
94	94	1
79	108	1
83	84	1
41	84	3
94	96	1
142	142	3
127	127	2
78	79	1
111	132	1
39	65	3
108	136	1
98	99	2
112	114	1
100	124	1
142	143	2
82	84	1
63	63	1
105	121	1
111	148	1
2	5	1
38	71	1
114	117	1
146	146	2
35	37	1
83	111	1
125	125	1
80	80	2
21	23	2
143	143	1
13	13	1
68	68	1
62	62	1
40	84	3
75	77	1
25	43	2
72	81	1
139	142	1
42	44	2
8	42	1
31	100	1
83	112	1
31	32	2
16	19	1
113	114	2
102	131	1
27	27	2
22	22	1
65	81	1
113	130	1
153	153	1
37	37	2
3	4	1
38	81	1
86	86	1
77	77	1
18	44	1
46	47	1
134	152	1
77	105	1
107	153	1
107	109	1
61	62	1
