15	16	2
20	36	4
11	11	7
137	137	1
110	110	3
13	13	8
122	122	4
34	34	2
133	135	1
116	116	8
51	51	1
125	125	7
37	55	1
1	2	3
138	140	1
110	121	5
20	20	1
102	102	2
56	57	1
74	75	4
8	8	3
111	111	6
25	51	2
92	92	2
139	139	5
107	107	5
14	20	7
90	90	5
136	136	8
57	57	5
27	27	2
120	120	4
87	112	2
124	137	1
112	112	7
25	25	10
109	129	1
113	113	5
1	4	1
73	82	1
97	98	2
125	126	1
138	139	1
87	88	3
33	34	5
40	40	3
121	122	4
136	137	1
138	138	3
14	14	1
59	69	1
54	68	2
39	39	1
120	136	1
128	128	3
59	103	1
29	29	3
119	119	3
70	70	1
35	36	3
100	102	1
68	97	1
130	130	1
88	94	2
120	137	1
114	114	3
30	32	2
38	38	2
26	39	1
83	84	5
78	78	1
81	81	4
134	135	1
53	54	3
4	4	3
56	56	2
43	43	2
93	93	4
79	79	3
65	65	3
87	94	1
121	135	3
53	53	9
0	1	1
68	71	1
60	60	1
63	63	2
6	31	2
16	16	6
61	61	2
131	131	3
77	77	3
42	43	1
71	71	4
36	41	2
120	124	1
55	56	1
57	81	5
8	75	1
128	129	2
20	51	3
14	15	1
106	106	6
18	22	6
82	83	1
95	95	1
15	15	2
26	26	3
98	101	1
2	3	5
77	78	3
81	82	2
109	118	1
114	115	2
27	42	1
72	72	4
86	95	1
17	18	1
88	89	1
74	96	1
131	142	1
20	21	1
108	109	1
108	108	2
30	30	3
69	69	3
0	36	1
14	17	2
121	123	2
80	80	1
132	132	2
54	54	3
84	88	1
143	143	1
135	135	2
120	128	1
58	58	2
96	96	2
64	64	1
98	104	2
12	28	1
12	29	1
6	6	3
125	136	1
55	55	1
67	67	1
37	37	1
69	98	2
69	70	1
76	76	1
115	115	2
2	2	2
110	120	2
70	81	2
89	89	1
48	48	4
35	35	3
88	88	1
131	132	2
110	116	1
26	38	1
99	99	1
97	97	3
22	49	2
112	115	2
133	133	1
9	9	1
17	19	1
8	9	1
92	93	1
65	66	1
73	73	2
105	105	1
49	49	1
140	140	1
13	31	1
17	17	1
71	82	1
41	41	3
54	70	1
121	125	1
23	23	1
42	42	1
89	90	1
13	19	1
21	21	1
68	69	2
103	105	1
135	136	1
73	96	1
122	123	1
33	36	1
22	141	1
39	101	1
82	82	1
22	22	1
