229	229	2
238	238	22
69	69	14
26	26	14
218	218	9
145	145	8
43	43	5
217	217	8
44	234	1
62	62	14
72	238	13
9	9	9
52	53	1
172	172	11
105	105	3
152	170	3
161	187	1
55	55	15
78	78	4
147	148	6
223	223	12
202	202	12
101	121	3
42	42	10
208	208	20
179	179	8
215	216	7
13	14	3
103	105	6
133	133	10
44	44	12
186	186	8
60	63	4
222	222	11
36	40	6
79	80	4
157	157	9
66	67	7
217	218	1
214	215	1
86	86	15
144	144	7
48	49	2
122	122	5
164	165	1
207	207	11
38	238	4
241	241	7
114	114	8
13	13	4
155	167	3
69	169	1
3	4	6
125	133	2
149	149	11
239	239	9
28	59	3
123	123	5
27	27	15
39	39	19
84	84	4
49	49	10
140	140	5
79	79	2
13	15	5
242	242	5
197	197	8
138	138	7
25	25	6
178	203	3
7	8	2
227	227	2
22	198	5
194	195	3
99	99	6
174	174	14
45	45	11
63	63	4
73	73	8
2	2	5
238	239	5
81	81	6
168	168	10
185	185	15
160	187	6
2	4	5
165	166	4
85	85	20
87	121	3
202	203	7
9	10	4
83	83	4
132	132	3
22	23	7
21	23	2
183	184	3
213	218	2
190	190	4
53	53	4
98	98	6
96	96	2
119	119	7
116	171	3
154	154	2
219	219	19
67	67	3
153	191	8
70	70	14
53	54	4
221	231	3
14	14	11
99	100	7
124	124	7
50	50	6
222	225	1
175	175	12
18	18	8
199	201	3
136	136	15
109	109	7
114	134	1
137	137	15
216	216	4
122	123	5
27	64	2
160	160	9
60	60	10
25	64	6
134	134	7
16	55	2
72	234	3
182	182	9
180	191	3
205	206	3
101	101	6
162	162	14
54	55	9
180	180	11
239	240	3
50	51	1
103	134	4
193	193	6
218	219	2
117	118	5
21	199	2
136	139	5
57	57	3
75	78	5
152	152	19
0	0	10
33	34	3
52	52	12
205	228	2
95	96	2
10	55	2
47	48	5
37	42	1
220	220	7
66	68	1
209	210	2
170	191	4
214	214	6
169	169	9
46	46	1
98	101	3
204	204	7
169	170	1
193	194	10
59	60	7
64	64	7
84	96	3
108	113	4
19	19	6
234	234	12
100	101	5
125	125	8
224	225	5
192	193	4
112	136	2
158	158	5
24	24	15
158	159	2
165	165	7
221	221	2
175	203	2
34	35	2
140	142	2
80	130	5
82	82	11
25	71	5
226	227	7
65	66	1
72	72	4
106	106	2
148	148	6
232	232	7
198	229	1
80	80	12
38	46	1
200	200	3
37	37	3
166	166	7
81	82	2
34	58	1
151	152	2
129	129	4
173	173	13
142	142	1
141	141	3
25	70	4
130	130	5
173	174	8
141	147	5
220	229	7
36	36	9
18	56	4
176	176	7
20	65	9
48	48	8
128	128	5
210	211	7
233	234	6
135	136	1
42	78	7
101	127	9
59	63	4
198	225	4
85	97	2
41	41	4
194	194	5
167	167	8
229	230	3
36	41	1
51	51	9
75	75	2
184	185	13
123	127	3
146	147	11
203	203	1
155	169	2
221	229	5
2	3	2
206	207	4
124	125	1
188	188	2
125	126	1
15	15	5
170	170	4
240	240	3
33	60	2
6	6	10
161	185	2
144	145	7
143	147	3
34	60	3
107	107	4
154	169	5
161	161	2
157	187	1
86	120	1
163	166	7
153	154	3
176	179	4
74	76	1
29	29	1
155	158	3
12	15	2
153	153	2
123	124	1
100	121	1
10	11	2
120	165	3
33	33	10
12	13	4
8	8	3
1	75	1
103	112	1
12	12	5
118	119	2
49	50	2
138	142	2
112	112	5
224	224	4
212	212	2
88	88	1
10	10	5
167	169	2
150	151	3
16	56	1
23	24	1
68	68	5
20	223	3
38	38	14
61	61	10
184	187	1
102	102	2
52	55	1
225	225	9
181	181	9
103	103	7
82	83	5
209	213	1
4	5	5
22	200	5
100	100	13
4	6	2
151	153	1
17	17	5
204	206	2
201	201	5
165	170	4
145	146	3
80	131	3
150	187	6
237	239	2
7	7	10
46	233	1
10	46	3
215	215	2
34	54	2
63	236	3
11	48	1
134	135	1
37	73	2
9	47	2
68	83	2
233	233	9
205	205	7
14	49	4
181	182	1
13	50	1
146	146	3
42	74	4
3	3	3
104	104	7
97	97	6
1	1	3
13	57	4
161	186	5
183	183	6
77	77	2
192	201	3
139	139	7
236	236	2
220	221	1
95	95	1
188	189	1
174	191	1
15	16	2
75	76	6
164	164	2
153	165	1
226	231	3
40	40	5
177	178	2
198	198	4
207	208	1
161	188	1
29	31	2
115	115	8
64	65	4
71	234	1
196	196	2
210	210	1
61	62	10
120	120	5
16	17	2
213	213	7
160	181	1
117	117	3
138	144	3
104	135	3
116	166	5
78	79	4
11	12	4
190	195	2
208	218	2
145	147	2
116	165	2
219	228	2
102	133	2
109	112	2
156	156	4
65	86	1
16	16	3
72	236	4
28	60	6
180	183	2
118	118	2
0	35	2
191	191	5
159	187	2
241	242	1
236	239	1
66	66	2
231	231	2
50	53	3
34	34	3
189	189	2
11	11	6
206	206	2
197	206	5
65	68	2
176	208	2
11	55	2
178	178	4
198	222	2
226	226	1
32	34	1
195	195	1
26	172	2
4	4	1
174	202	2
216	217	1
105	135	2
8	9	2
29	30	1
58	59	1
31	31	3
30	30	5
157	163	2
7	55	3
76	79	1
185	186	1
104	113	4
84	85	2
165	171	2
37	38	3
142	204	3
187	187	4
159	182	1
70	71	1
139	141	2
47	47	5
208	219	3
153	159	2
237	237	1
120	122	1
60	61	1
209	209	2
113	113	1
160	183	2
190	191	2
198	206	1
156	157	1
97	122	2
74	74	9
32	32	3
22	22	2
237	240	2
152	159	1
198	199	2
4	7	2
175	180	3
121	172	2
20	20	2
159	159	1
75	79	1
152	191	1
199	200	1
138	139	2
116	116	5
10	45	1
0	1	1
119	133	1
204	207	1
85	121	1
75	77	1
192	192	1
194	207	1
223	224	1
71	72	2
203	204	1
185	187	1
71	71	1
9	48	1
107	108	1
235	235	1
104	140	1
187	188	2
96	131	1
21	21	3
162	182	1
116	117	3
140	141	2
21	201	1
97	121	1
158	191	1
214	216	1
220	227	2
153	157	1
17	56	1
82	84	1
152	153	1
197	205	1
30	95	1
28	29	2
102	103	1
109	110	1
102	125	1
138	149	1
174	182	1
99	102	2
73	239	1
121	121	2
85	86	3
23	23	1
21	22	1
114	116	1
103	104	1
115	116	1
62	63	1
120	121	1
194	196	2
166	168	2
22	88	1
29	32	2
220	223	1
115	135	2
28	28	2
143	143	1
153	174	1
135	135	1
56	57	1
16	57	2
80	81	1
54	60	1
235	239	2
122	124	1
204	205	1
147	147	1
160	182	1
197	225	1
203	207	3
221	222	1
118	166	1
26	120	1
194	198	1
20	21	1
230	230	1
176	177	1
177	177	1
27	97	1
31	83	1
10	47	1
234	238	1
149	164	1
3	53	1
191	201	1
23	223	1
171	171	1
150	152	1
51	55	1
137	138	1
26	96	1
106	108	2
65	65	1
