125	131	1
93	94	1
66	66	1
140	143	2
72	73	1
39	39	2
92	92	4
21	22	1
96	96	5
133	133	2
31	41	2
110	110	1
114	114	2
101	101	4
34	34	2
128	128	5
104	105	7
86	86	4
109	110	2
108	108	4
72	72	1
58	59	3
134	134	13
126	127	2
43	52	1
3	3	4
96	121	2
142	143	2
123	124	7
12	12	1
58	92	2
80	80	2
33	33	2
32	54	3
142	142	2
23	24	3
92	94	1
90	90	5
111	111	1
6	6	4
73	75	1
102	133	3
78	86	2
140	140	5
50	51	2
61	61	4
53	53	3
124	124	6
58	58	3
71	72	5
69	69	8
104	104	5
27	28	3
20	20	6
32	32	3
135	136	6
13	13	4
32	41	2
78	78	3
101	102	3
82	100	1
62	89	1
94	110	2
82	82	4
68	70	5
62	102	1
53	138	9
138	138	4
118	119	5
10	10	2
61	63	2
9	9	4
71	71	3
60	60	2
8	8	8
23	23	5
89	89	3
30	30	6
80	81	1
84	84	1
95	96	2
3	12	2
4	4	8
21	25	2
22	22	5
133	134	2
2	14	1
121	131	3
32	33	6
63	63	5
94	95	3
57	89	1
116	116	4
29	30	3
1	3	4
55	55	8
129	132	2
93	110	5
90	91	4
12	24	1
40	40	1
50	50	3
94	94	1
52	53	6
69	70	1
15	15	1
39	40	5
93	109	1
38	38	3
54	54	1
49	49	1
17	17	3
2	2	2
78	79	3
68	115	6
138	139	1
107	107	1
31	54	1
123	123	3
3	4	3
42	48	4
3	145	1
27	27	2
19	20	3
83	84	1
74	74	11
30	31	1
51	139	2
36	36	4
32	40	4
139	139	1
22	23	1
122	123	5
18	18	1
35	35	2
136	136	1
35	36	7
52	84	3
98	98	5
31	33	1
118	118	4
74	75	3
76	77	1
95	121	1
31	31	4
68	73	1
83	83	1
94	120	1
112	112	3
48	48	2
13	17	4
141	141	11
28	28	1
8	11	5
4	5	4
8	13	1
75	81	2
49	50	2
99	100	1
111	119	2
99	101	1
70	72	1
88	88	2
82	89	2
120	120	5
72	80	1
67	67	3
26	27	1
29	59	2
144	145	2
92	103	1
105	105	4
0	0	1
75	80	2
92	93	1
77	85	2
81	81	3
21	21	6
30	41	2
92	104	1
86	88	4
82	138	1
76	76	1
56	57	1
70	98	3
129	129	2
61	102	4
25	25	4
8	77	3
19	19	2
119	119	1
6	77	1
93	104	1
43	43	1
99	99	2
17	18	2
52	139	1
81	137	3
91	91	1
64	64	3
12	13	1
115	115	2
30	104	2
31	32	1
100	100	2
1	1	3
24	24	1
55	57	3
33	47	1
71	97	1
57	92	1
125	125	2
82	88	2
42	42	3
106	106	1
56	56	1
19	24	1
35	39	2
144	144	4
17	23	2
68	68	1
18	37	1
58	135	2
141	142	2
85	85	1
103	134	1
67	73	1
95	95	2
57	90	1
127	127	1
93	93	1
73	73	1
87	87	2
41	48	1
14	14	2
91	92	1
14	34	1
70	99	3
38	39	3
19	21	1
105	106	1
20	21	1
109	109	2
63	135	1
57	57	1
13	16	1
116	117	1
26	26	2
97	123	1
32	36	1
5	5	1
61	134	1
89	135	1
95	120	2
135	135	2
17	19	1
131	131	2
56	59	1
41	42	2
128	130	1
73	74	1
59	59	1
50	88	1
11	60	1
102	123	1
56	104	1
65	65	1
