123	123	8
114	115	1
0	0	8
3	69	2
128	128	13
108	108	1
65	65	13
78	78	5
50	121	1
76	76	9
34	34	16
7	11	5
23	26	3
30	30	8
83	103	3
95	96	4
122	122	11
44	44	3
130	130	6
99	123	3
1	1	2
22	22	6
18	22	2
111	111	12
113	113	8
11	11	6
31	31	15
73	74	3
40	41	10
69	69	5
101	101	12
12	12	4
7	7	6
33	33	9
65	66	3
68	68	8
124	124	10
75	76	6
62	62	5
70	70	17
32	32	17
86	86	9
112	113	4
46	119	1
24	24	14
19	45	4
13	13	7
45	116	5
21	21	3
3	3	1
57	57	2
107	128	3
44	45	4
67	68	3
9	9	11
29	44	1
80	111	7
132	132	5
120	120	2
116	116	8
91	91	6
25	25	2
84	102	3
63	63	2
127	127	5
6	28	3
75	75	13
115	115	4
10	11	7
68	77	2
18	18	6
34	45	2
59	114	2
61	61	7
119	119	5
128	129	4
88	89	1
27	27	9
72	72	10
85	85	5
39	39	2
61	62	3
68	69	2
133	133	5
106	106	11
20	20	3
76	119	5
64	64	5
5	15	2
47	47	9
113	114	2
20	43	2
90	90	5
46	61	1
93	94	1
82	82	5
129	129	4
45	74	1
74	74	13
133	134	8
76	77	3
14	14	3
103	104	2
83	83	13
56	111	3
15	15	8
8	8	8
93	96	3
98	98	4
46	46	4
33	56	1
102	102	3
64	65	1
98	99	3
16	16	8
94	94	6
123	124	3
17	30	1
61	67	1
8	74	2
43	43	2
48	48	6
59	98	3
73	73	10
19	19	4
77	77	3
78	79	4
58	59	1
33	34	4
91	92	4
6	7	6
102	103	1
114	114	3
106	107	6
19	70	6
41	42	2
107	107	8
57	58	2
74	108	1
84	85	2
36	36	6
97	97	1
45	45	2
104	104	2
71	75	1
60	77	1
110	110	4
85	103	3
17	18	3
39	41	2
107	119	1
38	44	1
6	6	12
71	72	1
17	17	7
9	10	5
96	96	4
93	93	8
114	116	2
59	59	3
80	110	4
46	47	1
56	58	2
20	59	1
131	131	1
80	80	6
99	100	3
81	81	5
39	113	1
84	84	3
37	37	3
6	46	2
28	28	7
4	4	5
61	68	1
115	116	1
64	66	1
76	78	1
35	45	1
60	61	2
42	42	1
86	122	5
88	128	1
81	82	2
99	130	1
31	51	2
119	130	2
43	45	5
37	38	3
131	132	2
56	59	2
69	70	2
0	1	2
8	9	1
55	56	2
34	35	1
118	118	2
63	64	3
87	87	3
0	2	1
88	88	1
95	95	1
23	24	2
35	35	2
32	33	3
78	132	1
134	134	2
40	40	1
66	66	3
60	121	1
27	72	1
94	95	2
79	80	1
85	86	2
92	92	4
120	121	3
95	132	2
8	30	2
118	119	1
125	125	6
42	43	1
59	82	5
117	117	1
60	114	1
105	106	2
87	133	3
4	37	1
112	116	3
5	5	4
72	74	2
29	42	1
101	106	1
2	2	3
29	30	1
100	107	1
94	132	1
124	128	2
19	20	1
90	104	2
9	22	1
57	93	1
23	23	2
121	121	1
17	35	1
96	97	1
34	85	1
74	75	2
79	79	1
126	126	1
79	132	1
15	16	1
71	111	1
100	123	2
11	123	1
112	114	1
4	6	2
117	119	1
10	17	2
31	32	1
16	37	1
18	30	1
62	63	1
67	67	1
8	25	1
43	44	1
90	108	1
43	47	1
18	70	1
100	100	1
107	120	1
58	58	1
33	65	1
37	39	1
109	109	2
59	60	2
37	48	1
82	84	1
28	113	2
96	98	1
7	29	1
5	6	1
26	26	1
45	46	1
8	17	1
4	32	1
122	123	1
120	122	1
57	61	1
99	99	1
15	41	1
83	84	1
38	39	1
41	43	1
61	63	1
