60	60	9
23	24	7
58	58	5
171	171	7
23	23	6
116	117	4
143	143	7
17	17	6
45	45	14
38	38	11
163	164	3
42	148	1
115	118	3
13	14	6
71	73	4
54	54	2
35	35	5
182	182	6
106	106	6
97	97	9
184	184	8
122	149	4
31	31	23
149	150	1
67	68	3
132	132	9
154	154	3
118	118	12
41	41	12
100	100	13
77	78	2
20	21	2
150	150	7
177	177	5
58	59	4
194	194	8
2	2	5
64	65	8
12	12	12
136	136	7
48	48	5
66	66	6
129	129	3
193	193	6
126	126	2
24	24	12
42	43	4
189	189	5
128	128	1
155	155	4
93	143	2
46	46	12
147	147	16
193	194	4
117	118	2
127	128	2
29	147	3
51	52	1
151	151	4
47	47	7
158	192	3
35	36	2
16	16	7
42	42	13
5	8	2
166	166	5
142	142	8
114	115	2
97	99	2
113	113	2
20	20	2
29	29	12
20	23	1
44	44	9
107	107	10
65	65	5
140	140	5
165	165	8
39	39	10
146	146	3
115	115	3
135	135	17
19	19	10
17	33	2
101	104	2
31	32	1
108	114	1
14	33	6
28	28	2
63	63	1
116	116	3
105	105	5
37	39	3
187	187	3
59	60	1
81	82	1
4	4	8
171	172	3
11	11	9
82	82	2
156	167	4
196	197	6
29	34	3
45	46	3
69	69	14
47	48	5
15	15	5
140	141	9
6	6	3
143	144	4
37	38	5
24	25	1
3	3	3
141	141	10
57	57	6
64	64	4
145	145	6
107	172	3
10	13	3
16	17	1
85	85	3
0	3	3
76	76	6
1	1	8
141	142	1
94	95	3
130	131	1
109	111	2
62	63	4
80	80	3
90	90	4
6	7	1
50	50	8
179	179	10
130	130	5
99	100	3
22	22	8
119	120	4
88	88	7
52	52	6
169	169	3
192	193	2
169	174	5
50	51	2
183	183	12
67	67	8
112	112	6
111	111	6
112	115	1
4	39	2
167	167	2
182	183	6
154	155	10
83	83	5
102	176	5
121	142	12
70	70	7
34	35	1
153	153	7
108	108	6
105	106	7
46	62	3
196	196	5
55	55	7
124	124	3
194	195	5
43	43	16
94	145	2
122	122	3
159	159	5
127	127	6
37	37	5
178	178	10
133	133	1
152	152	4
72	72	4
110	114	3
156	162	2
65	66	1
27	27	2
14	14	2
99	159	4
25	26	3
0	0	5
190	191	2
13	13	7
29	30	4
68	68	2
46	68	4
79	82	3
120	121	2
40	148	3
123	123	3
166	167	4
27	78	2
138	138	4
154	187	4
96	97	5
88	89	2
139	140	3
195	196	5
162	185	1
181	181	6
138	139	3
136	138	2
129	132	1
9	10	2
109	109	5
118	119	1
107	108	7
56	56	7
158	158	7
173	177	1
26	26	2
168	168	1
40	40	4
28	76	3
84	84	2
115	120	1
188	189	1
2	41	1
61	61	2
41	42	2
149	149	3
73	73	3
9	9	5
29	31	1
2	39	3
134	134	1
3	4	1
16	50	1
101	101	1
172	172	2
30	30	3
157	158	3
186	186	1
78	78	2
8	8	2
36	36	6
167	172	1
123	126	4
137	137	5
185	185	5
10	10	5
25	25	5
106	108	2
48	49	7
32	32	4
100	120	2
149	159	2
69	70	2
170	170	2
77	77	3
81	81	1
161	161	2
175	175	1
1	3	1
17	18	3
0	2	1
133	141	1
103	103	3
178	179	3
195	195	2
33	37	1
163	163	2
121	143	1
79	79	3
110	110	1
113	138	2
7	7	2
22	26	4
98	99	2
114	114	1
33	33	2
54	56	2
122	128	1
156	156	3
53	53	1
127	150	2
185	186	2
99	157	3
1	4	1
54	55	1
191	191	3
164	164	2
36	37	1
17	50	2
74	76	4
156	168	1
10	11	3
180	180	2
96	96	1
23	25	1
84	86	2
41	149	1
168	169	1
80	81	1
120	120	2
18	18	3
135	139	1
123	148	1
142	144	1
113	114	1
126	127	1
76	77	3
122	158	2
51	51	1
116	120	1
67	69	2
94	121	1
154	182	2
165	166	1
148	148	1
82	88	1
25	79	2
1	39	1
38	39	2
123	145	1
34	34	3
27	28	1
175	178	1
154	181	2
0	1	1
152	153	1
99	99	1
104	106	2
60	62	1
145	146	1
156	184	1
21	21	1
144	144	1
164	167	1
162	164	1
130	132	1
104	104	2
151	152	1
113	118	1
42	123	1
61	62	1
75	89	1
188	188	1
151	170	1
