65	67	3
29	29	6
103	103	11
45	105	2
78	78	5
20	93	1
61	61	9
84	85	3
88	106	1
97	109	1
109	109	2
96	96	1
37	41	2
47	56	2
107	107	2
55	56	2
42	51	6
38	38	2
82	86	3
77	77	12
85	87	3
25	99	4
76	76	5
30	30	4
23	23	1
104	104	13
71	71	3
84	84	3
56	56	4
90	90	11
74	91	2
102	103	2
89	90	3
73	73	5
106	106	9
61	67	1
20	21	3
85	90	3
94	94	2
36	36	3
91	91	8
106	109	1
34	35	2
60	63	1
52	52	8
47	50	1
41	50	1
24	24	8
111	111	10
65	66	3
42	43	2
73	75	3
53	57	1
93	97	1
80	80	3
39	39	5
57	65	2
68	69	2
46	46	5
106	107	2
101	104	1
20	20	6
90	91	8
49	84	4
70	70	6
88	90	3
110	110	3
112	113	2
27	27	3
105	107	2
74	75	1
82	83	5
35	113	1
32	32	3
43	43	8
62	69	1
42	45	4
37	78	1
29	88	3
113	114	1
47	49	4
32	97	4
63	63	2
79	79	5
62	63	1
47	47	1
72	72	6
39	77	1
71	72	2
95	100	3
105	105	4
37	38	2
75	75	2
28	51	2
85	85	1
48	49	4
97	113	1
112	112	6
48	48	4
54	90	3
28	114	1
114	114	3
58	58	5
37	110	2
83	85	2
33	33	6
51	51	2
98	98	3
96	97	3
30	61	3
69	81	1
95	113	3
46	47	4
73	74	3
64	64	1
47	55	2
26	26	3
67	67	2
109	111	1
25	36	4
55	60	1
89	91	1
40	40	2
87	90	1
59	59	5
89	89	2
99	99	5
27	28	1
79	82	1
81	86	3
22	22	1
92	102	1
63	74	1
35	36	1
70	114	1
25	66	1
54	55	1
82	82	3
108	109	2
60	60	1
95	96	1
76	110	1
113	113	4
93	93	2
99	102	1
21	21	1
25	25	1
57	92	1
81	82	2
57	57	5
23	79	1
77	79	2
102	102	4
88	104	3
55	55	2
81	81	3
105	106	2
87	91	1
56	60	2
34	34	2
24	50	1
89	92	1
39	41	2
91	113	2
100	100	4
50	50	3
57	59	1
45	45	3
91	92	2
92	106	1
65	65	2
111	113	3
23	78	1
72	73	1
82	89	1
44	49	1
89	96	2
78	79	1
60	65	2
101	101	4
91	110	1
35	35	1
41	42	1
66	66	1
38	40	1
95	95	1
52	65	1
83	84	1
87	89	1
76	78	1
85	108	2
32	33	1
36	39	1
53	53	1
49	50	1
40	64	1
50	53	2
78	80	2
64	65	1
29	91	1
47	82	1
72	94	1
24	114	2
91	94	2
82	85	2
43	58	1
89	94	1
70	75	1
51	83	1
92	92	2
27	30	1
30	91	1
27	29	1
54	54	1
88	88	1
31	96	1
60	69	2
101	105	1
66	71	1
