157	157	17
150	150	19
127	127	14
172	173	4
64	64	7
104	106	1
134	134	6
36	37	4
139	139	14
37	37	10
27	27	23
126	126	10
86	86	7
7	9	1
14	14	5
67	67	9
176	176	14
131	131	14
154	154	14
93	93	19
112	113	10
115	116	7
79	80	7
87	88	3
166	166	20
43	43	11
10	11	4
20	21	5
58	58	5
16	43	13
61	61	11
76	76	12
86	91	4
87	87	5
5	5	21
8	10	5
106	106	17
26	26	13
102	103	3
86	87	1
117	118	12
162	162	12
17	43	6
40	40	19
58	61	4
85	85	6
122	123	4
7	7	7
73	74	5
65	125	4
152	152	6
90	142	4
32	32	18
74	74	10
167	168	7
85	101	3
156	156	12
145	145	18
53	53	13
94	94	8
179	180	5
140	141	7
172	172	7
80	101	1
158	158	12
41	41	11
60	60	7
86	106	3
50	54	1
33	33	11
33	53	4
66	66	20
51	51	22
79	79	13
101	101	2
3	3	5
23	23	11
24	26	3
105	109	1
97	98	6
151	151	10
25	25	5
168	168	14
168	169	10
108	108	7
161	161	17
39	39	10
94	96	14
65	65	5
178	178	4
142	142	10
159	160	13
19	19	2
159	170	5
108	163	3
121	121	10
30	66	2
120	120	16
21	21	21
15	37	5
167	167	9
81	91	2
1	1	6
18	18	6
19	45	5
50	50	4
84	84	8
9	10	4
86	100	1
31	31	17
83	83	3
117	117	4
172	176	6
174	174	7
92	93	1
83	136	6
82	89	2
81	114	3
104	122	4
170	176	2
109	153	2
134	135	5
25	26	6
99	99	7
115	115	3
68	68	10
165	166	14
2	2	4
82	82	8
146	147	8
53	54	3
139	141	6
85	86	10
104	105	3
153	154	6
104	104	12
43	44	8
42	43	2
95	96	7
73	73	18
169	169	21
17	17	6
78	80	3
92	92	10
98	99	5
88	88	4
54	54	5
118	119	7
7	10	2
121	122	9
153	153	12
14	37	6
103	103	11
98	100	4
108	109	8
63	63	11
89	141	3
119	119	12
84	128	2
158	160	3
131	132	3
78	113	2
22	30	4
170	170	10
15	15	7
94	95	7
132	132	19
173	173	9
72	124	3
81	82	6
39	40	5
100	100	10
118	118	9
123	125	7
144	145	3
158	159	5
24	25	9
125	125	5
14	36	2
151	152	1
8	8	7
38	38	16
62	62	17
42	42	11
141	141	4
139	142	1
96	96	2
31	32	1
144	144	7
109	154	6
12	20	3
77	77	7
130	131	4
160	161	8
116	116	5
56	56	22
123	124	3
180	180	5
105	105	7
102	104	6
8	46	2
18	19	6
62	63	4
90	90	10
9	45	1
24	24	10
36	36	8
57	58	4
16	17	4
110	115	2
124	124	14
41	42	3
70	71	2
147	148	2
12	21	5
122	122	14
57	57	8
1	2	4
61	62	6
31	135	4
106	110	2
138	138	8
129	129	8
78	78	2
20	20	6
40	41	4
18	41	3
32	33	2
29	29	9
102	129	3
116	117	2
88	137	2
81	83	4
65	66	9
142	143	2
144	179	1
151	154	2
78	105	1
10	10	6
163	163	1
29	30	8
38	39	3
4	4	4
44	44	7
81	81	8
130	130	1
16	16	8
150	151	3
80	112	4
12	19	4
97	97	3
30	30	8
80	80	8
49	50	7
149	149	3
36	38	1
133	133	17
35	36	4
171	172	3
29	135	3
160	160	6
140	140	6
65	123	2
109	163	2
55	55	5
108	115	4
106	131	2
148	148	3
157	158	7
111	111	4
59	60	3
89	89	4
135	135	10
108	165	2
12	12	8
12	13	4
91	92	4
76	144	5
109	130	1
13	13	8
0	1	5
110	110	7
80	82	1
75	75	9
112	112	6
59	62	4
26	27	2
6	6	9
13	18	5
177	178	3
128	128	7
147	147	10
9	9	13
14	18	3
21	51	2
52	52	2
106	119	2
133	138	3
27	137	1
124	126	3
109	111	4
22	23	1
136	136	4
32	54	4
17	41	1
39	41	1
71	71	4
81	84	2
177	177	3
76	133	1
113	113	2
170	175	2
155	156	5
90	95	2
56	57	4
27	28	1
28	28	8
159	159	5
14	15	1
59	61	5
78	90	3
125	127	1
117	164	1
5	6	9
162	166	4
80	102	3
23	54	3
107	107	7
78	79	5
86	97	1
107	117	1
84	88	1
73	121	1
123	123	4
83	126	3
8	11	2
82	83	4
98	98	3
128	129	5
120	125	3
147	177	1
83	134	2
15	18	1
65	68	2
175	176	1
30	32	2
101	102	3
163	164	4
72	72	5
123	129	4
95	95	4
7	44	1
135	136	3
88	89	4
78	142	5
159	161	3
4	6	1
91	91	2
111	112	2
21	25	1
93	95	1
11	11	4
120	121	2
72	73	2
59	59	1
78	133	4
66	67	2
35	35	8
80	111	3
115	118	4
126	127	4
114	114	3
83	135	6
169	170	4
168	171	1
45	45	1
106	114	1
84	100	4
96	98	2
167	172	1
55	56	2
141	142	2
171	176	2
114	115	2
125	126	1
19	20	2
102	102	5
74	75	1
154	156	1
17	39	2
171	171	4
92	96	2
146	173	1
157	159	2
169	171	1
51	52	1
165	165	4
179	179	4
52	54	1
105	106	5
84	97	1
2	3	1
103	128	3
102	128	3
137	137	2
80	113	1
7	11	1
129	130	1
105	130	1
36	51	2
13	20	3
84	136	3
82	84	1
55	57	3
107	109	1
107	164	1
109	109	2
133	134	3
12	45	1
127	128	1
86	98	1
41	43	1
138	141	2
10	45	3
152	154	1
23	52	4
164	167	2
87	89	3
58	60	1
177	179	2
90	99	1
0	0	3
22	22	1
111	149	1
107	130	1
119	121	2
33	50	1
15	38	3
29	31	2
46	46	1
45	46	1
64	66	1
60	61	1
88	100	1
49	49	2
152	153	1
155	155	1
87	90	2
93	113	2
136	137	2
143	143	3
113	114	2
27	136	1
109	110	2
160	162	2
164	164	2
55	67	1
134	137	1
30	56	1
108	129	1
102	127	1
77	78	1
22	36	1
164	166	1
166	167	1
89	91	1
161	166	1
143	144	1
