71	71	10
18	18	12
49	49	9
20	58	3
76	76	4
95	96	4
130	130	8
73	73	11
43	44	5
66	66	6
86	86	10
54	104	6
21	21	4
111	111	7
100	100	5
15	15	6
19	54	10
116	116	11
114	124	3
106	106	2
7	8	2
129	129	4
39	40	5
27	62	1
31	99	1
43	43	2
54	54	3
40	40	3
92	92	9
2	2	11
44	45	4
85	85	6
11	11	8
52	52	6
59	60	2
83	84	11
91	100	4
3	4	2
39	39	4
67	68	12
53	53	3
70	70	5
46	46	6
91	91	3
127	127	8
20	20	3
20	68	1
110	110	4
2	4	4
120	121	4
74	104	4
26	27	9
90	90	4
75	75	2
65	65	10
95	95	8
59	59	2
15	20	2
42	42	1
46	47	3
40	63	5
21	22	6
73	74	1
79	79	9
125	125	5
77	100	3
105	105	5
13	24	1
9	9	8
62	62	5
24	24	4
101	101	6
111	112	4
107	108	4
55	55	7
30	62	4
56	56	3
30	30	1
17	66	4
18	19	1
1	4	1
131	132	1
45	45	3
121	121	4
93	93	7
87	88	4
3	3	3
59	68	4
63	63	4
72	72	1
23	23	2
72	82	1
46	70	2
114	115	2
3	14	6
6	15	3
46	104	1
123	123	3
79	81	1
131	131	3
119	119	7
38	41	1
125	131	3
13	13	8
100	106	2
32	32	1
128	128	2
61	63	1
62	64	3
56	75	2
32	64	2
1	1	2
67	67	2
27	27	2
19	19	2
103	103	3
34	34	5
26	30	1
60	60	7
78	78	1
14	24	3
115	115	4
48	48	1
29	29	6
109	109	4
25	31	4
13	21	1
88	89	4
56	106	1
65	68	3
74	88	4
72	75	2
84	84	2
98	98	2
108	108	3
76	78	3
118	120	5
119	127	2
57	57	8
10	10	1
78	81	4
80	108	1
88	88	6
68	68	2
0	0	5
108	113	1
101	102	2
16	66	2
91	99	2
80	80	1
102	127	2
79	104	1
7	7	3
109	110	1
15	19	2
56	59	1
38	46	2
115	117	1
102	102	3
51	51	5
94	94	3
107	107	1
16	16	4
84	128	1
58	58	1
80	100	3
14	14	2
73	75	1
16	17	3
129	130	2
58	105	1
117	117	3
47	47	3
64	64	2
114	114	5
82	85	5
31	31	3
4	4	4
41	41	1
38	39	2
33	39	2
51	68	3
90	91	2
11	12	3
125	127	2
108	115	1
97	97	1
14	15	1
41	63	1
112	113	1
84	85	1
24	25	1
102	120	2
38	40	2
77	77	1
101	125	1
28	28	3
42	63	3
114	121	1
114	117	2
22	22	3
33	33	1
26	26	3
58	67	1
15	24	1
102	103	1
60	62	1
47	48	1
122	122	1
113	114	1
6	6	1
89	95	1
132	132	2
19	20	1
41	64	1
40	61	2
104	104	2
44	51	1
66	77	1
45	52	1
1	2	1
95	107	1
42	44	1
