102	121	1
112	114	4
44	44	5
107	110	1
96	96	3
60	60	4
118	122	3
132	141	3
121	154	5
103	103	3
27	27	12
3	4	5
15	15	5
11	25	5
82	83	1
146	151	1
128	131	1
136	136	9
83	85	2
139	139	5
120	120	2
63	63	11
179	180	2
73	84	5
71	156	2
163	164	5
172	174	2
142	143	4
82	82	7
21	21	6
3	5	4
88	88	2
39	39	8
80	80	3
67	67	4
78	78	4
12	12	2
170	170	2
56	56	4
55	134	2
62	62	11
133	133	4
148	148	2
111	111	6
32	32	4
85	85	3
19	20	3
178	178	5
127	127	3
51	51	7
126	150	1
153	155	2
74	141	2
36	36	7
95	102	5
20	20	5
155	155	2
19	26	1
108	164	3
115	131	5
128	130	2
3	39	4
23	58	7
41	41	10
16	24	4
142	142	7
109	133	2
100	101	3
92	92	8
88	89	4
54	54	3
50	50	2
126	127	1
129	129	3
165	165	1
88	96	2
84	84	2
80	98	1
26	27	1
66	66	4
97	174	1
145	145	2
144	144	2
54	100	2
172	172	2
18	18	3
5	5	5
108	132	1
53	180	1
95	161	7
81	81	4
160	160	3
11	11	5
21	42	1
6	6	4
159	159	4
61	61	4
17	18	1
31	31	4
10	13	2
19	19	11
97	97	3
89	131	2
90	92	1
101	143	1
119	122	1
3	3	2
92	93	1
2	3	1
45	45	1
37	38	2
123	123	4
17	23	2
41	42	1
147	152	2
125	126	4
26	26	10
20	38	2
23	39	3
158	158	2
18	71	8
39	40	1
86	86	2
68	88	4
65	65	2
104	104	1
138	138	4
12	13	4
99	101	1
95	95	2
17	22	2
66	71	2
17	17	5
81	100	2
73	73	5
53	53	2
152	152	1
12	32	2
0	2	2
143	178	2
5	15	2
22	107	4
124	124	3
90	90	3
5	6	3
119	119	5
40	41	1
105	124	1
147	175	1
20	44	1
154	156	4
117	118	2
74	158	2
18	23	1
39	56	2
88	147	1
164	164	2
2	6	2
142	174	2
45	109	3
15	86	2
122	122	1
75	76	5
25	25	4
2	5	4
142	177	4
2	44	1
101	174	4
12	24	4
22	23	4
10	10	1
76	159	4
81	92	4
6	13	4
99	99	1
93	107	2
91	151	3
1	3	1
52	116	3
43	44	1
81	90	1
157	158	3
92	134	2
72	88	2
81	155	1
75	75	8
128	128	1
12	45	1
44	58	1
172	180	1
97	145	2
143	143	1
8	8	3
115	116	3
62	137	1
147	161	4
106	106	4
116	129	1
130	163	2
172	173	1
140	140	3
22	32	1
87	87	3
74	74	3
5	40	1
38	39	1
14	18	5
10	26	3
11	29	6
147	147	1
20	21	1
73	82	1
174	174	2
149	149	7
173	173	2
60	61	3
72	73	2
40	56	1
57	57	4
132	133	2
102	127	2
105	153	1
121	121	3
68	168	2
2	2	3
33	33	4
118	119	5
102	103	2
52	52	3
29	29	3
11	63	4
89	149	1
130	131	1
157	157	2
151	151	1
171	171	5
137	137	3
99	100	1
76	79	4
103	119	1
163	163	5
90	94	2
35	36	2
77	85	2
163	166	3
146	146	1
101	101	4
98	114	3
113	113	2
43	43	1
10	61	1
141	141	2
92	115	1
93	93	4
30	31	2
158	159	2
15	25	2
167	173	1
116	180	1
122	127	1
84	152	1
162	162	3
53	116	1
60	62	1
38	43	1
66	68	2
176	177	2
117	117	1
132	132	3
169	169	3
55	56	2
79	79	1
160	167	1
107	107	3
71	71	1
94	94	3
7	55	2
64	64	1
154	154	1
72	86	3
8	9	1
5	13	2
96	112	1
71	77	1
58	128	1
146	176	1
78	179	1
110	110	2
107	125	2
32	44	1
50	51	1
58	127	1
38	38	3
75	77	1
171	172	1
146	153	1
164	166	1
10	60	1
61	78	1
90	93	2
15	73	1
1	2	1
13	13	3
37	144	1
22	22	1
118	118	1
10	19	3
167	167	2
119	125	1
154	172	1
65	169	1
114	121	1
144	164	1
126	126	1
6	12	2
53	78	1
79	94	1
4	7	2
54	99	1
77	79	2
4	4	3
101	102	1
153	153	1
136	137	1
177	178	1
72	156	1
97	101	1
102	122	3
78	117	1
37	143	1
106	164	1
10	25	1
115	130	2
8	13	1
105	105	1
130	135	2
112	162	2
19	84	1
91	101	1
40	40	1
74	157	1
139	140	1
0	1	1
60	118	1
4	5	1
134	134	1
35	35	1
20	79	1
133	145	1
93	131	1
86	142	1
100	122	1
126	129	1
98	161	1
