82	83	2
53	53	5
66	67	5
109	109	2
74	74	11
240	240	7
170	170	4
201	201	8
181	181	5
35	48	3
61	62	4
22	22	4
52	53	4
218	218	6
197	211	1
68	76	2
70	70	8
101	101	11
92	92	1
97	97	14
37	37	10
242	242	8
89	89	2
40	54	4
67	67	6
77	77	8
216	244	6
96	96	6
221	221	9
178	178	10
61	61	7
226	227	7
2	2	1
208	209	4
213	214	4
198	198	9
224	224	3
168	169	4
195	195	15
23	23	6
55	80	1
184	184	5
90	90	11
82	82	3
44	221	2
221	222	6
21	21	3
202	202	6
213	226	5
237	237	7
232	237	2
70	77	4
59	59	6
159	159	10
214	215	2
235	236	1
208	208	15
232	234	6
219	219	1
93	93	8
184	200	3
174	174	5
243	243	6
182	198	1
110	110	8
42	42	7
8	8	6
37	47	2
222	225	3
4	4	2
40	40	6
163	163	4
197	198	6
238	238	6
94	94	6
41	41	10
190	190	8
212	212	12
220	220	7
15	15	4
168	168	7
88	88	5
55	55	6
5	5	8
71	71	3
210	210	10
92	93	1
88	169	2
7	169	6
30	30	7
41	234	2
226	226	4
189	189	4
63	63	3
44	44	8
209	209	9
98	98	3
232	232	10
73	74	2
35	35	5
114	116	3
243	244	9
36	36	6
85	85	7
40	51	2
169	170	2
14	39	1
175	175	4
46	46	3
65	66	1
244	244	6
6	6	8
14	15	3
146	152	2
171	172	3
116	116	5
245	245	6
245	249	4
201	212	2
175	222	3
196	196	9
69	70	5
186	186	1
168	174	6
56	56	6
72	72	3
83	83	1
27	28	4
54	54	8
199	200	5
197	197	10
246	246	9
213	213	14
98	104	1
78	79	8
38	46	3
93	200	5
188	188	1
227	227	5
247	247	10
191	194	3
207	207	7
50	51	2
215	217	8
96	160	2
223	224	6
72	73	3
81	81	1
232	233	4
187	193	1
4	5	3
45	45	9
204	234	1
157	157	5
217	218	6
43	44	3
48	64	2
68	68	7
24	92	3
177	177	8
165	165	5
240	248	3
201	203	3
70	71	2
27	27	4
245	246	3
199	204	1
197	210	2
57	224	2
183	183	5
153	153	6
91	202	3
64	64	1
5	37	4
198	199	1
154	154	4
52	52	4
147	147	2
31	31	1
223	223	4
205	205	9
6	9	5
39	39	8
238	239	3
19	20	5
104	105	3
155	155	3
167	175	2
185	185	9
24	24	4
32	32	2
111	114	2
19	19	6
113	113	2
68	71	2
73	73	9
110	111	2
217	217	7
87	89	3
57	57	6
66	66	8
169	230	2
236	236	2
75	75	5
87	87	4
103	103	2
7	213	2
152	152	2
80	80	2
78	78	2
203	204	4
29	30	2
18	18	4
234	234	7
198	207	1
63	64	1
28	28	6
199	199	7
86	90	4
154	205	1
182	182	2
170	171	6
32	33	2
174	178	1
169	229	1
91	92	4
173	173	8
57	58	5
18	81	3
9	9	2
213	217	1
85	176	5
173	180	4
218	220	4
33	33	5
204	204	4
231	231	1
17	17	7
89	200	2
90	91	3
236	237	1
152	159	1
115	118	3
229	229	4
101	102	2
206	206	3
193	193	4
234	237	3
176	176	1
69	69	6
200	200	6
51	51	7
25	25	10
62	62	5
191	191	7
156	156	6
47	49	1
218	219	2
98	99	4
202	203	4
164	167	1
194	194	2
40	41	3
241	244	4
86	174	3
187	187	10
100	101	1
173	207	1
14	37	1
108	108	2
74	176	1
105	106	2
81	82	1
162	162	8
9	31	2
29	33	1
20	20	4
55	57	3
100	100	4
237	240	2
46	63	1
215	215	6
214	226	2
41	53	1
225	225	5
186	199	4
245	247	2
49	49	5
167	167	2
44	45	3
11	11	4
180	180	3
222	222	4
38	38	3
189	190	6
54	87	1
233	233	3
217	226	2
239	239	9
171	171	2
190	191	2
84	84	2
172	172	3
55	79	3
151	151	3
155	157	1
44	46	1
208	225	2
214	229	2
40	44	3
47	48	3
195	196	4
4	48	3
118	119	3
231	232	2
151	178	2
165	166	2
241	241	5
234	235	2
74	78	2
117	117	7
64	65	1
34	34	4
14	14	5
107	107	7
214	214	3
114	114	1
12	12	4
14	34	1
80	87	2
47	47	1
158	158	1
87	91	1
9	10	2
203	203	7
179	179	2
6	33	2
211	211	4
48	49	1
42	43	2
239	240	6
152	209	2
95	101	1
16	16	4
244	246	4
161	162	2
94	95	1
174	193	1
185	193	2
166	166	4
201	202	3
236	239	3
150	150	6
24	25	3
72	74	2
16	17	1
95	96	2
65	65	2
177	178	1
38	47	1
6	7	2
196	211	2
174	209	2
10	10	2
248	248	1
65	78	1
105	107	3
58	58	3
22	23	2
46	52	1
103	104	1
33	36	3
43	43	4
61	104	1
26	26	1
240	241	2
172	173	1
183	200	1
162	163	1
17	19	1
3	36	2
33	34	3
186	197	2
5	47	2
21	88	1
31	32	2
196	197	1
185	192	1
155	161	1
112	113	2
96	99	1
38	39	2
230	230	1
49	50	1
182	207	2
147	188	2
91	91	3
112	112	1
109	117	1
1	1	1
76	166	2
151	210	2
185	190	2
111	112	2
237	239	3
179	207	1
30	31	1
76	76	1
57	106	1
120	120	1
21	81	1
41	60	2
7	229	1
41	228	1
53	227	1
53	90	2
80	88	1
42	233	2
87	174	1
180	181	1
80	84	1
99	99	1
45	226	1
89	90	3
181	182	2
180	198	1
237	249	1
167	169	2
195	221	1
169	169	3
48	48	4
207	208	1
100	109	2
105	105	1
221	225	1
210	211	1
204	207	1
50	50	1
213	215	2
83	84	1
55	85	1
7	168	1
199	212	1
5	210	1
234	240	1
40	228	1
172	207	1
217	225	1
242	247	1
70	103	1
66	76	1
48	50	1
248	249	1
228	228	1
188	189	1
146	209	1
231	234	1
200	202	1
