62	62	22
45	50	2
27	27	9
63	63	18
98	98	14
79	79	16
76	77	4
85	85	16
88	88	18
77	77	22
20	97	4
65	65	14
67	101	1
66	66	7
69	69	28
45	51	1
20	79	1
72	72	29
80	82	1
39	39	3
33	94	5
34	95	4
74	74	22
20	86	3
50	50	9
63	64	8
91	91	4
53	86	3
67	67	25
56	57	1
76	76	13
57	57	10
44	44	14
87	87	19
79	80	6
34	94	2
55	61	7
38	39	2
63	73	6
93	93	10
101	101	11
92	102	4
31	31	7
60	88	4
26	26	6
94	95	5
92	92	17
99	100	4
66	67	8
47	98	2
42	50	9
52	96	6
33	33	8
73	73	27
35	94	2
78	78	16
61	61	9
89	89	18
83	93	4
48	101	3
83	84	13
89	102	1
53	53	21
59	60	1
71	71	9
70	70	14
85	88	2
55	55	2
97	101	9
81	81	9
51	63	3
22	22	5
59	59	11
100	100	9
85	87	4
56	56	10
29	29	10
62	68	2
53	85	2
59	76	3
88	89	2
97	97	10
38	38	10
81	82	7
77	78	2
35	36	1
32	32	2
94	96	1
86	88	5
86	93	1
80	80	27
87	88	4
69	78	2
30	93	1
80	81	5
24	24	6
40	40	17
47	101	3
69	74	4
90	90	3
53	87	1
39	40	2
41	91	4
75	75	11
83	83	8
22	88	1
69	89	6
49	50	6
24	79	1
71	73	3
41	44	1
52	53	2
99	101	6
21	87	2
61	89	5
47	47	6
84	90	3
84	87	5
25	25	7
35	35	9
46	46	8
95	95	3
76	78	4
93	94	1
91	92	5
82	82	5
86	89	4
22	56	1
64	64	11
61	62	2
34	34	12
89	96	1
94	94	5
24	25	3
27	89	1
37	37	4
25	26	1
46	47	2
72	73	4
29	40	2
84	100	6
25	80	2
86	87	4
48	99	4
100	101	3
65	74	2
58	75	11
27	36	3
92	93	8
75	78	2
41	41	6
48	48	5
40	72	2
70	79	2
31	93	1
31	32	1
71	74	1
22	23	1
75	77	1
50	55	3
59	83	4
52	52	5
46	48	2
23	23	3
54	55	4
42	42	10
82	101	1
70	71	3
44	65	5
49	58	3
83	94	2
46	100	3
53	59	2
28	28	4
48	100	4
92	96	1
86	86	6
96	96	7
58	58	6
33	95	2
46	50	2
58	59	4
20	22	1
48	91	5
48	92	2
102	102	3
55	82	3
54	54	3
49	49	4
37	68	2
63	88	1
69	70	1
62	89	1
25	27	1
42	71	1
64	65	1
84	84	2
62	74	1
83	87	2
20	81	2
45	45	2
47	48	2
29	94	3
57	58	1
25	100	2
60	69	1
31	33	2
65	66	3
63	72	3
84	85	1
68	68	13
79	83	4
68	69	4
65	68	1
62	69	1
81	83	3
99	99	4
27	29	1
20	80	2
46	70	1
45	99	2
43	43	3
51	70	2
30	30	4
60	61	2
59	87	1
80	85	4
23	31	1
36	36	1
60	84	1
52	58	5
64	74	4
72	74	2
41	65	1
22	68	2
22	69	1
91	102	1
20	88	1
29	93	1
53	56	1
63	81	1
46	99	1
74	76	4
32	68	1
74	90	1
64	78	1
95	96	1
46	101	1
29	42	1
22	80	1
32	33	1
36	38	2
92	98	2
73	75	1
33	93	2
27	28	1
84	102	1
77	88	1
42	43	1
48	81	1
20	20	1
89	95	1
54	62	1
51	51	1
27	96	1
61	70	1
79	90	1
68	70	1
