49	49	17
23	27	3
34	101	2
101	127	4
107	107	7
121	121	15
33	49	2
31	93	1
85	85	8
22	26	2
87	88	4
68	68	9
80	80	20
61	61	7
109	109	12
130	130	8
103	103	14
62	65	2
111	111	5
50	51	4
15	15	13
13	13	6
67	67	13
33	33	10
123	123	16
46	46	7
39	39	4
89	92	1
11	12	10
37	37	3
126	126	5
32	32	15
3	4	5
52	52	17
81	81	13
41	42	12
20	30	4
28	28	6
72	72	5
106	106	4
83	83	16
4	4	15
9	9	6
39	40	3
119	119	6
79	80	3
90	90	14
10	10	11
96	96	18
27	27	8
76	78	2
122	122	16
5	5	15
14	21	1
21	25	4
58	59	3
56	56	13
114	114	13
113	113	27
94	94	13
120	121	1
112	112	16
110	111	8
89	90	4
106	127	2
116	116	7
47	47	6
14	23	4
82	94	3
38	128	2
59	71	5
29	29	10
127	128	1
1	1	9
47	55	3
44	44	4
102	103	2
76	113	1
105	106	5
99	99	9
53	53	24
41	41	12
23	25	3
129	129	6
46	47	4
8	11	1
11	11	9
54	54	11
61	62	5
116	118	2
48	49	4
48	59	1
70	86	1
75	75	6
79	79	4
84	84	8
54	76	1
115	115	20
132	133	7
42	42	4
60	64	4
115	116	2
2	2	4
23	23	2
5	127	3
0	0	13
7	7	3
19	19	12
98	99	2
40	48	3
85	86	3
76	76	2
62	119	1
110	110	13
23	24	10
24	24	12
63	112	1
93	94	4
77	78	4
125	125	13
31	31	6
15	25	3
70	70	7
69	69	6
54	55	2
57	57	17
1	3	3
3	3	5
86	86	5
41	43	4
38	100	2
104	104	17
59	59	5
114	116	1
129	130	2
45	45	2
124	124	17
127	127	4
71	71	6
17	17	6
131	131	8
64	68	1
128	128	7
45	50	3
25	25	2
101	101	10
108	109	2
64	64	10
99	103	2
66	66	4
132	132	6
97	97	13
74	77	2
126	129	4
44	101	3
16	16	9
74	81	2
117	117	5
92	92	7
30	30	8
68	119	1
22	25	2
60	60	5
63	63	6
76	77	3
44	45	6
18	19	2
64	125	2
1	2	5
65	75	1
88	88	4
56	80	3
98	98	8
105	105	7
95	95	7
75	83	2
102	102	5
46	48	2
31	32	3
85	93	2
75	78	2
4	13	4
74	75	5
9	16	2
40	41	4
122	123	8
48	48	10
58	58	6
73	100	3
22	22	4
46	50	1
82	82	3
88	89	2
20	22	2
51	51	11
63	64	2
96	125	3
21	21	11
60	101	1
127	130	2
18	18	3
65	99	1
53	80	4
120	122	1
99	100	1
67	68	1
121	122	9
2	13	2
124	125	3
73	73	1
77	77	7
31	92	4
108	108	5
93	93	8
14	106	3
19	24	2
24	27	2
83	84	7
15	30	3
33	34	3
89	89	12
3	27	1
43	43	8
7	60	1
40	62	3
120	131	4
109	118	3
101	102	2
81	86	3
13	15	4
47	58	1
11	16	1
78	78	8
55	55	8
9	18	5
45	47	2
51	52	1
69	127	1
56	62	2
113	114	2
100	100	4
26	26	5
42	61	3
118	118	2
50	50	6
56	58	1
62	62	7
114	117	3
22	23	4
13	14	1
20	25	1
6	6	3
78	84	2
10	11	2
127	131	2
109	112	3
46	115	3
74	74	9
30	103	1
7	8	2
20	21	2
12	12	8
73	117	2
14	14	1
34	122	1
83	92	3
49	63	2
72	74	1
12	14	1
65	65	2
34	34	2
111	112	4
59	63	2
109	114	2
64	65	3
77	81	2
97	101	1
38	39	3
71	100	3
38	38	5
130	131	5
120	120	2
87	87	3
0	1	1
20	20	2
40	40	2
4	6	1
90	92	3
29	30	4
100	101	1
86	87	3
39	60	3
54	59	1
28	29	2
72	78	3
32	104	1
133	133	2
29	92	1
54	62	1
66	71	1
100	102	2
54	60	1
88	109	1
26	27	2
3	7	1
83	95	1
44	46	1
44	58	2
119	129	2
73	74	1
11	18	2
21	26	1
116	117	4
54	56	1
44	92	4
101	121	2
60	61	2
86	88	1
17	19	1
118	119	1
45	100	2
82	91	2
76	86	1
45	46	1
5	6	1
0	105	1
126	128	1
43	44	1
97	102	1
8	8	1
101	103	2
47	48	1
42	43	2
2	48	1
112	120	1
128	129	1
6	28	1
30	93	1
118	125	1
15	16	1
71	122	1
5	128	1
82	83	1
49	50	1
