91	92	3
68	68	4
74	81	3
175	175	2
159	159	2
90	123	3
37	42	2
155	160	8
21	38	1
53	53	4
154	154	5
30	30	9
8	8	4
129	130	1
157	175	3
24	120	1
187	187	4
172	172	1
173	174	5
168	168	6
57	57	5
45	45	5
154	155	4
73	73	5
5	5	4
54	54	6
181	181	4
94	94	15
33	37	1
36	36	9
38	38	6
145	174	1
180	181	3
0	90	3
152	152	10
121	121	9
165	166	2
13	13	6
122	122	12
179	179	8
127	127	5
125	125	2
133	133	7
42	44	7
4	4	2
22	23	7
7	7	10
29	30	7
86	86	3
106	106	4
156	159	1
188	188	1
27	27	4
62	65	5
62	62	2
120	120	4
98	98	3
44	47	4
16	16	2
130	130	4
111	111	4
34	36	1
73	92	1
74	74	3
161	161	4
127	128	3
144	144	4
158	158	4
141	141	2
181	182	1
175	188	1
116	116	4
123	123	6
61	61	5
94	95	3
100	100	3
17	17	5
14	22	2
167	167	2
101	101	5
145	145	7
100	101	4
85	85	6
87	87	1
104	165	1
63	140	3
186	186	3
41	41	6
89	89	7
176	176	5
39	82	1
58	121	2
90	91	3
127	129	3
24	25	5
20	21	3
157	157	3
134	135	6
154	158	1
182	183	3
156	156	2
151	151	4
10	11	2
40	41	2
71	71	12
96	124	4
56	56	4
185	186	1
188	190	2
37	37	7
151	170	6
8	9	2
23	23	2
46	46	3
110	110	3
25	77	2
63	134	3
163	164	6
146	146	8
16	17	3
26	30	3
0	0	2
91	91	3
32	32	3
149	149	1
75	75	6
24	24	2
11	11	3
20	20	3
14	31	1
103	103	2
173	173	6
10	10	4
76	103	2
147	147	2
134	134	10
107	107	2
2	2	11
149	150	1
148	148	6
103	122	3
60	60	5
6	6	6
44	44	3
31	31	2
147	190	1
104	105	2
154	157	3
119	119	6
140	140	4
165	165	6
143	143	6
1	1	3
32	37	3
35	35	1
47	52	3
164	164	3
97	125	2
136	137	1
46	47	5
184	184	7
108	109	1
99	99	7
75	76	9
62	139	3
67	68	3
25	114	1
40	40	2
138	138	1
77	77	2
9	10	1
149	152	3
21	39	2
150	150	7
177	179	1
175	189	2
61	125	3
140	141	6
180	180	5
17	18	2
79	85	1
178	178	2
136	136	6
136	138	2
80	86	1
135	136	4
189	189	3
82	82	4
14	32	2
160	161	2
131	131	2
163	163	4
131	135	3
177	177	5
139	140	2
15	15	4
28	30	3
25	131	1
96	98	4
61	64	1
118	119	2
70	70	4
179	180	1
115	116	3
64	64	3
68	69	2
24	44	2
93	93	7
142	142	1
160	160	2
190	190	2
7	8	2
11	12	2
28	28	2
187	188	1
43	45	1
112	112	3
79	86	1
137	137	2
138	139	3
92	93	1
126	126	1
115	115	5
155	173	1
15	16	2
189	190	2
72	73	4
26	26	5
83	83	1
117	118	1
161	163	2
83	117	3
148	149	1
48	48	2
76	88	1
19	19	3
34	35	1
118	118	2
42	42	1
63	64	5
161	162	1
90	129	2
81	82	1
185	185	1
68	140	1
77	78	3
79	79	3
76	76	2
117	117	4
53	54	2
184	189	1
148	151	3
147	148	3
96	96	2
89	90	3
168	169	1
124	124	3
62	67	2
134	138	1
63	63	3
139	141	2
21	21	3
81	81	2
70	112	1
84	84	1
176	188	2
130	131	2
65	65	2
166	166	3
176	177	2
22	25	1
71	106	3
24	46	1
81	86	1
18	18	1
13	14	1
153	153	2
60	133	1
26	29	1
25	54	2
171	171	4
97	97	2
44	45	3
57	60	2
9	9	2
114	114	1
135	135	3
14	30	1
143	144	1
26	27	1
15	17	1
27	32	1
104	104	2
149	171	1
3	3	1
47	47	1
105	107	1
132	133	2
139	139	2
116	118	1
84	85	1
36	37	1
105	105	1
152	153	1
39	39	1
159	160	1
13	30	2
61	62	1
19	116	1
72	72	2
59	60	1
149	157	1
88	100	1
121	122	1
37	40	1
6	7	1
183	184	1
34	37	1
155	157	1
78	87	1
33	35	1
166	167	1
78	78	1
93	94	1
113	113	1
43	44	1
38	40	1
39	84	1
27	55	1
96	97	1
58	58	1
155	155	1
