70	70	8
91	91	3
73	103	2
60	60	1
43	43	8
21	21	6
106	106	6
41	44	1
75	75	1
78	78	3
73	73	3
36	36	9
33	33	6
84	84	9
47	48	6
24	24	5
63	63	2
38	38	12
68	68	6
76	105	2
19	20	2
23	24	2
88	88	2
102	102	8
95	95	2
81	81	4
22	22	3
96	96	5
49	49	6
47	47	5
97	97	5
94	94	8
93	95	7
90	90	5
74	74	7
48	48	1
110	111	3
46	46	9
52	52	3
76	108	1
26	85	2
74	75	3
56	56	3
89	89	11
29	29	6
96	97	8
25	25	3
73	85	3
82	83	4
67	68	4
57	108	4
45	45	4
71	93	3
71	72	2
107	107	3
32	32	6
34	34	6
80	80	6
59	59	6
29	30	3
64	64	4
48	49	1
54	54	3
105	105	6
62	71	4
69	69	7
109	109	1
92	92	4
73	87	3
109	110	4
58	58	4
80	81	1
106	107	3
112	112	8
113	114	3
79	80	3
57	58	2
113	113	3
30	30	7
108	108	5
99	99	2
90	91	1
98	98	6
55	55	8
108	109	1
86	87	2
22	23	4
92	93	2
25	26	3
76	76	3
25	36	1
79	79	2
83	83	3
73	96	1
58	60	4
53	53	2
41	41	7
63	66	5
61	61	2
40	40	7
36	37	1
26	26	3
27	27	7
67	67	2
51	52	2
84	97	1
65	67	1
82	82	5
31	31	8
74	90	1
27	35	2
40	41	3
44	44	7
44	46	2
26	84	1
51	51	2
89	90	3
30	34	1
54	55	3
66	66	5
20	21	2
104	104	6
68	86	2
43	48	4
77	77	5
111	112	1
112	113	3
27	28	1
27	31	1
85	88	4
61	62	2
104	105	1
108	110	3
42	42	2
103	104	3
41	42	3
39	39	2
62	62	5
71	71	2
93	93	1
76	106	2
27	30	1
50	50	2
70	71	2
85	86	4
72	98	4
65	65	2
75	100	3
114	114	4
43	97	5
86	104	2
87	88	2
22	24	2
66	67	3
74	100	1
77	78	1
91	104	2
102	103	1
35	35	1
92	95	1
111	111	1
84	85	1
85	89	2
104	108	1
74	97	1
87	91	1
72	95	1
68	71	1
100	101	3
57	57	1
46	47	1
39	41	1
59	60	1
33	34	1
110	110	1
93	97	1
87	87	1
41	50	1
56	57	1
73	86	1
42	47	1
28	28	1
101	101	1
70	91	1
