43	47	2
25	52	2
89	91	2
21	21	10
154	154	2
124	124	5
89	89	8
22	23	5
134	134	18
27	27	13
103	103	26
153	153	6
100	100	7
119	119	4
2	2	11
36	36	7
20	20	8
128	130	6
118	119	2
136	136	7
28	28	10
126	126	12
15	15	9
88	88	8
128	128	7
53	55	1
50	50	10
114	114	3
155	155	20
104	104	7
76	89	1
78	78	5
135	136	2
48	48	7
50	51	4
25	25	8
53	53	3
71	135	1
31	31	9
13	14	16
124	125	4
81	82	1
16	16	7
29	29	9
84	85	1
30	31	3
34	86	3
157	158	10
149	149	12
111	111	11
11	12	5
129	129	5
24	24	25
91	121	2
99	99	13
93	153	2
77	78	6
154	155	6
37	37	1
130	131	7
3	19	2
82	83	2
33	86	3
11	11	7
140	140	9
83	84	4
139	139	9
124	126	5
71	71	4
49	49	5
120	120	3
32	32	1
50	53	4
69	69	11
98	98	12
107	138	3
138	140	3
131	131	10
73	73	10
3	3	11
40	46	1
146	146	9
150	150	1
53	63	7
132	134	2
79	80	4
43	43	7
28	30	7
67	67	11
148	149	1
137	137	3
25	26	2
23	23	7
90	91	3
40	40	7
63	63	4
76	77	4
92	92	9
84	84	10
79	79	10
7	7	6
150	151	4
33	35	3
68	68	14
147	147	1
133	133	7
151	151	4
36	83	3
94	118	3
93	117	7
47	48	5
87	88	7
80	80	9
158	159	4
65	65	5
105	105	5
97	97	14
83	83	13
123	124	14
100	143	1
137	139	3
52	52	5
10	10	9
106	106	7
126	139	3
52	53	3
6	11	3
46	46	5
138	139	3
37	40	5
140	141	1
80	82	1
17	17	5
96	150	2
105	106	2
63	71	1
70	70	10
3	4	4
17	18	3
43	51	5
144	144	6
51	51	4
111	112	2
110	110	2
88	89	9
95	96	5
18	18	4
130	130	8
153	154	3
74	74	2
144	145	3
45	45	11
45	50	4
75	75	7
2	18	9
76	76	3
142	142	7
50	55	1
75	91	1
44	45	2
145	145	6
66	71	2
121	122	5
148	148	8
137	138	7
8	8	4
116	141	2
117	141	1
94	97	3
86	87	1
128	129	6
32	35	1
116	116	12
8	33	3
68	69	4
157	157	3
5	5	1
98	99	2
22	22	6
118	118	6
53	70	2
14	14	3
3	17	1
132	132	2
23	24	1
30	30	5
66	67	2
134	135	6
77	77	4
96	96	7
0	0	5
90	90	7
3	43	3
82	82	8
26	26	8
44	44	5
146	147	3
127	127	4
62	62	2
91	91	10
117	117	5
126	140	2
138	138	2
87	89	3
146	149	1
20	24	1
100	148	1
108	117	3
103	143	1
24	47	2
75	120	1
102	102	3
7	39	3
102	103	4
108	108	8
81	81	5
129	130	1
131	132	1
33	34	3
128	131	1
124	138	3
107	107	13
19	19	4
142	152	3
156	158	3
37	56	2
41	46	1
135	135	2
12	12	3
20	23	2
38	38	4
146	150	1
61	136	3
20	47	1
107	116	1
9	30	1
42	42	7
94	95	4
55	55	4
143	143	4
53	54	3
21	22	2
51	52	5
126	138	2
3	8	2
103	153	1
33	33	3
115	138	2
32	33	2
135	137	3
129	131	1
40	41	3
85	85	3
75	123	1
46	55	1
20	50	2
112	112	5
104	154	1
99	101	1
121	121	5
43	45	4
19	20	1
15	16	3
2	16	3
110	111	1
85	86	2
101	101	2
64	64	2
75	82	3
16	18	1
110	115	2
113	113	4
86	86	2
69	70	4
41	41	10
7	8	3
12	13	1
152	152	3
55	71	1
125	125	3
122	122	2
141	141	4
156	156	5
87	87	3
158	158	6
5	6	2
111	113	1
125	135	1
38	85	3
93	142	1
12	15	2
70	71	1
0	1	4
116	117	3
92	121	3
35	35	2
106	141	3
3	9	1
65	71	1
131	133	2
93	118	2
57	58	1
33	85	1
92	120	2
48	53	1
48	54	2
135	138	4
72	133	4
94	152	2
0	26	1
134	143	2
36	85	2
133	134	2
16	17	1
47	47	8
73	74	2
93	93	4
50	54	1
156	157	3
34	34	2
76	119	3
125	126	1
12	29	1
116	118	1
118	120	4
20	21	1
109	109	5
10	31	1
29	30	1
1	2	2
87	90	1
49	70	2
100	101	2
77	79	3
25	51	1
9	9	3
86	88	1
108	109	5
15	17	3
54	61	1
132	133	1
26	27	2
40	56	1
32	79	1
84	88	1
121	157	1
10	17	1
92	93	1
91	122	1
1	1	1
9	10	2
16	29	1
8	41	1
152	153	1
72	72	3
108	113	3
127	146	1
125	134	3
28	79	1
142	153	2
93	95	2
125	139	2
36	39	1
139	140	3
99	100	3
27	28	1
47	54	1
35	86	1
7	38	1
11	29	2
13	13	2
23	25	1
65	136	1
10	123	1
92	140	1
5	50	1
46	63	1
105	121	1
18	19	1
92	122	3
37	38	2
36	40	1
7	31	1
38	39	1
43	46	1
114	115	1
80	81	2
49	50	1
149	150	1
64	71	1
36	82	1
78	80	1
73	135	1
144	148	1
95	95	2
46	49	2
94	94	1
8	9	1
36	37	1
113	114	1
143	144	1
28	29	1
