82	82	4
83	84	2
94	94	9
73	85	7
92	92	4
113	113	13
30	43	2
80	80	9
46	46	10
26	26	10
35	35	10
102	103	5
83	83	10
73	73	15
51	51	3
86	91	3
90	90	8
23	84	3
55	55	5
74	74	13
79	79	11
105	105	4
47	48	2
60	60	1
50	50	13
99	100	2
28	28	6
104	108	7
23	23	9
34	34	5
106	107	1
87	91	6
110	110	3
72	74	1
104	104	12
41	41	9
56	59	3
88	88	9
52	52	9
36	71	1
24	24	10
100	100	3
98	98	6
91	112	2
22	22	12
32	32	5
69	76	4
109	110	10
89	89	3
43	44	2
57	57	1
89	91	4
56	57	3
95	95	16
76	76	10
111	111	10
85	86	10
38	38	10
39	39	17
84	84	11
114	114	3
22	23	6
66	66	3
107	108	4
21	22	4
63	110	5
81	81	2
75	86	1
36	77	3
75	75	6
97	97	10
69	69	9
21	24	1
36	36	6
102	102	5
73	83	2
34	66	4
103	103	2
68	70	2
48	49	3
60	61	1
37	37	9
66	91	1
49	49	5
72	73	1
58	71	2
42	42	5
105	106	5
40	41	1
29	29	10
56	56	7
65	65	5
66	68	2
99	99	7
78	78	7
91	91	1
63	71	2
92	95	1
45	46	1
68	69	1
69	75	3
77	87	8
42	43	1
57	59	3
53	53	4
85	85	9
67	71	2
62	65	8
25	25	6
67	67	5
36	67	5
43	43	6
54	55	11
63	63	8
77	77	12
31	51	1
19	19	4
30	30	2
21	21	11
101	101	4
80	82	2
36	113	1
72	72	5
20	79	3
80	81	2
20	20	2
61	71	1
37	90	3
53	72	3
69	71	1
53	55	2
33	34	6
64	64	4
106	106	2
33	33	3
92	112	4
104	105	3
70	70	10
88	89	1
45	45	9
69	86	2
58	59	7
65	66	2
30	31	1
27	27	1
58	72	2
58	58	1
57	62	2
34	35	5
77	78	1
21	50	1
62	67	1
98	99	1
64	65	5
26	27	1
77	113	2
99	108	3
96	96	2
103	105	2
34	100	3
79	80	2
36	111	1
63	64	1
69	70	3
63	67	4
59	61	3
106	108	1
88	112	2
40	40	4
76	77	2
73	74	2
112	112	2
38	78	1
93	93	1
34	68	1
86	87	1
31	31	3
35	36	1
64	110	1
50	51	1
35	113	2
64	88	1
47	49	2
89	90	1
51	52	1
92	93	1
55	74	1
102	107	3
63	86	2
67	100	1
93	94	1
39	45	2
97	99	1
78	88	2
62	63	2
61	72	1
44	44	1
19	20	1
73	75	1
58	61	1
100	101	3
90	91	1
20	23	2
40	45	1
30	50	1
34	36	1
54	74	1
67	101	1
73	76	1
61	62	1
62	62	1
