19	19	1
12	12	7
152	154	2
91	91	1
100	100	3
0	1	1
0	25	2
101	101	7
84	84	1
102	103	2
142	142	4
62	86	3
99	99	6
81	81	3
86	86	5
131	131	2
110	110	2
137	137	6
153	153	5
90	100	4
105	105	5
39	88	2
10	10	5
82	82	3
108	108	5
144	144	4
68	68	5
38	38	4
113	113	5
51	56	2
96	97	1
61	64	1
111	111	6
65	110	2
40	40	7
72	124	4
80	82	3
93	93	6
156	157	9
28	28	8
47	52	3
40	64	3
29	29	4
87	87	5
11	25	2
31	31	3
104	107	5
15	15	9
135	157	1
109	142	1
45	97	4
93	95	1
102	127	1
76	77	2
42	42	3
32	34	3
43	86	1
116	118	3
113	156	4
46	54	3
90	101	1
136	144	1
91	101	1
9	14	3
8	34	1
132	133	1
98	98	1
15	57	1
7	47	1
7	7	7
83	83	1
92	97	2
77	77	7
14	20	2
89	90	3
95	95	4
104	104	6
23	23	6
92	95	2
70	135	1
123	123	2
72	116	5
147	147	2
103	105	5
139	140	2
65	104	1
111	112	1
9	11	2
121	122	1
4	57	3
84	113	1
62	62	1
109	111	1
146	146	9
14	14	6
111	155	2
63	98	3
92	93	2
33	33	1
2	16	4
18	27	3
5	5	2
82	84	3
125	152	3
22	23	2
8	8	1
64	94	5
22	26	1
76	76	1
151	151	3
120	122	3
138	140	2
127	146	3
117	117	2
131	132	1
26	26	3
129	129	1
149	150	2
36	37	3
44	94	1
47	47	1
152	152	4
118	119	5
116	148	2
27	27	2
120	120	1
138	138	4
134	135	1
93	140	2
81	82	1
4	4	1
73	73	3
2	2	5
53	53	3
69	111	2
132	132	1
154	155	1
135	135	3
73	74	2
104	111	3
110	114	1
4	9	1
50	52	1
131	139	1
51	53	1
101	102	1
38	39	1
63	65	2
137	138	5
139	139	3
116	116	8
11	11	1
68	71	1
148	148	2
109	110	1
3	51	2
82	113	1
15	17	4
1	1	3
6	80	1
28	30	3
6	6	2
34	34	2
44	44	3
69	69	2
105	106	1
25	27	1
134	134	1
108	124	1
14	49	2
155	155	1
118	118	5
67	68	2
41	43	1
78	78	2
11	20	1
41	54	1
3	50	3
3	3	2
156	156	1
6	45	3
125	127	3
48	48	1
75	75	2
3	11	2
136	137	1
17	30	2
143	143	1
104	109	1
94	95	2
72	72	1
49	49	3
136	136	1
89	101	2
18	20	1
57	57	2
148	154	1
96	96	1
57	62	1
116	117	3
93	115	2
124	155	1
126	135	1
65	116	1
92	92	3
28	29	2
68	135	2
112	158	1
85	85	1
121	132	2
135	136	1
109	109	2
140	140	2
104	105	1
45	45	1
85	120	2
108	157	2
35	52	1
67	67	2
73	89	2
9	10	1
89	89	2
46	46	1
45	53	1
87	90	1
25	25	1
55	56	3
104	108	1
8	16	1
6	47	1
141	141	2
70	70	1
88	98	1
14	61	1
140	141	1
44	143	1
108	110	1
16	16	1
67	147	2
53	54	1
64	86	1
110	147	1
17	17	2
154	156	1
64	93	1
124	125	1
128	128	1
129	130	1
66	69	1
133	147	1
66	139	1
78	149	1
10	11	1
69	147	1
65	130	1
102	102	1
80	80	1
6	113	1
79	79	1
49	54	1
