163	163	8
19	25	6
1	2	8
7	11	2
17	17	5
138	138	4
96	97	7
91	91	8
18	25	1
125	162	6
139	139	3
104	160	2
56	56	4
156	156	2
86	86	4
128	130	4
129	129	11
112	113	6
160	160	9
41	48	7
49	51	2
116	117	5
139	140	6
139	141	4
86	111	5
3	6	3
40	40	7
170	170	6
107	107	6
90	90	5
50	50	5
122	122	2
63	63	13
153	154	4
128	128	6
97	97	5
13	18	1
147	147	5
135	136	6
89	89	6
6	7	13
53	53	7
129	135	2
10	10	6
35	35	10
128	129	3
3	3	10
161	162	5
145	146	6
94	94	14
117	117	7
83	104	4
19	24	3
108	108	11
148	149	2
121	121	11
22	22	2
152	152	9
164	166	3
45	94	1
91	92	1
161	164	3
137	163	1
148	148	3
140	141	1
34	35	2
0	56	2
80	80	3
125	125	5
141	141	4
66	163	5
20	20	9
82	83	4
158	159	2
6	9	2
2	2	12
18	26	3
41	41	4
26	26	1
0	39	6
150	150	5
93	149	3
139	161	1
95	96	2
155	167	3
54	54	10
46	47	1
114	115	3
125	165	2
109	159	1
146	146	8
145	145	10
110	111	5
9	9	9
140	140	3
99	113	3
164	164	9
18	18	2
92	93	5
126	162	1
12	12	6
1	1	1
97	98	4
42	53	2
70	70	8
154	154	2
2	40	4
144	144	2
73	73	1
46	46	4
119	123	3
39	40	3
89	90	1
125	126	2
130	130	5
142	142	3
111	111	6
142	144	2
164	165	4
91	93	2
94	97	1
123	123	4
151	151	6
136	138	11
37	37	3
88	88	2
85	91	3
114	114	5
100	100	5
44	44	2
133	154	2
67	67	3
81	81	3
34	34	11
39	168	3
67	69	5
54	55	1
106	106	9
56	57	3
137	137	10
99	100	3
38	38	4
76	76	2
111	112	4
169	170	5
149	150	10
11	11	10
112	112	6
165	165	2
86	87	3
48	53	1
129	158	2
159	159	8
127	162	2
91	95	2
131	131	1
21	23	2
147	148	4
6	6	7
148	150	3
118	118	3
4	4	4
116	116	4
121	159	1
94	154	5
14	14	4
76	79	4
84	97	2
69	70	1
90	99	3
62	62	5
119	119	3
77	81	3
155	155	5
95	95	5
57	170	1
26	53	1
145	151	2
145	150	2
23	23	3
126	127	4
129	156	2
132	132	2
123	124	1
153	168	1
7	7	3
10	11	1
17	21	2
143	154	2
136	139	6
105	105	2
105	106	1
42	42	4
28	28	7
43	43	6
4	6	4
36	36	4
47	47	3
71	71	4
116	120	2
84	84	8
18	19	1
57	57	6
85	85	3
48	52	3
27	49	1
126	126	5
33	34	1
68	68	5
159	160	2
71	72	1
64	64	3
149	149	2
27	50	2
45	89	2
135	135	2
21	21	4
34	43	1
49	49	4
109	109	2
79	79	3
39	70	1
131	155	2
45	45	1
136	141	4
69	69	7
102	105	4
67	68	3
119	122	2
96	96	1
100	104	1
50	51	2
12	13	1
13	13	3
26	44	1
168	168	1
112	114	2
66	67	1
154	162	1
101	101	1
155	168	1
117	118	2
79	83	2
10	121	2
15	15	4
48	58	2
161	165	1
65	65	1
165	166	1
72	72	2
99	99	1
87	88	5
26	56	1
17	25	1
48	48	1
71	74	3
25	25	1
81	82	1
41	42	4
142	169	2
52	52	1
110	110	4
143	144	2
160	167	3
38	70	1
90	91	2
48	49	5
102	102	1
168	169	3
120	120	1
69	71	2
167	168	5
0	0	3
154	155	2
120	123	1
21	44	1
44	45	1
88	89	2
121	122	1
77	77	3
115	115	3
161	161	2
159	166	2
38	120	1
9	16	1
0	1	2
99	101	1
0	41	1
117	133	1
13	14	2
155	156	2
101	102	1
44	46	3
21	22	2
157	157	1
128	154	2
68	70	1
111	136	1
88	133	2
46	90	2
100	102	1
70	71	3
0	88	2
101	105	1
73	74	1
136	137	2
76	82	1
24	24	1
78	78	1
11	14	2
136	136	1
78	81	1
120	121	1
42	44	1
4	5	1
168	170	1
104	104	1
129	167	1
85	86	1
55	56	1
135	154	1
57	58	1
100	101	1
1	16	1
47	48	1
11	53	1
