130	140	1
83	84	2
105	106	3
31	73	3
74	74	8
32	32	10
95	96	9
37	37	4
0	0	2
81	81	3
141	141	6
23	23	3
72	72	8
71	71	9
117	121	2
14	68	2
41	41	4
131	131	13
120	122	1
36	37	1
76	77	5
115	115	2
31	31	3
20	20	6
29	29	14
130	130	2
103	103	7
54	105	5
135	135	2
78	78	6
40	41	2
61	61	5
112	113	8
126	140	1
106	106	4
71	72	2
123	124	5
58	58	4
117	118	4
98	103	3
108	108	4
19	20	1
80	80	4
38	38	10
58	80	1
144	145	3
127	127	6
102	104	1
82	82	6
113	113	4
13	73	3
103	125	6
136	137	5
1	1	4
27	27	13
55	55	11
17	17	8
74	75	1
6	6	6
66	66	6
129	129	4
59	60	1
94	94	3
136	139	6
9	9	7
65	66	1
42	42	4
104	104	7
119	126	2
26	26	8
37	61	2
95	131	1
101	101	6
2	2	2
119	119	7
13	14	2
22	22	11
142	142	3
69	69	6
51	51	3
128	130	2
66	67	3
104	135	7
54	55	2
132	133	5
2	3	3
140	140	9
110	110	10
16	26	1
124	124	5
10	10	9
118	119	4
3	3	1
129	140	3
25	25	3
95	134	2
105	105	1
69	70	3
110	111	1
8	8	4
138	138	7
109	110	6
42	43	4
121	122	2
59	59	4
130	131	1
53	53	2
62	81	3
62	64	3
117	117	5
89	89	8
96	138	1
16	18	3
146	146	1
19	19	4
75	75	15
57	128	1
97	97	5
137	139	3
143	145	2
15	15	6
91	91	10
73	73	1
118	126	2
63	63	2
14	31	4
39	39	6
98	101	1
16	16	7
75	76	4
142	143	2
1	35	4
59	61	4
85	85	2
16	27	4
56	81	2
142	144	3
56	56	7
67	68	3
91	135	1
4	4	8
79	83	1
99	100	1
15	27	3
111	111	1
144	144	5
23	26	2
64	64	6
21	21	6
87	126	1
89	91	1
99	99	5
56	127	5
17	18	1
93	93	4
73	74	3
1	37	1
83	83	5
130	133	5
135	139	3
36	36	1
52	52	2
58	59	1
57	98	1
125	125	5
57	57	4
115	117	1
114	114	2
47	47	3
125	126	1
123	123	7
120	120	2
94	135	3
68	69	2
98	98	4
90	123	5
118	118	1
55	127	1
90	125	1
85	86	2
1	84	2
115	116	3
82	85	2
134	134	4
126	126	2
88	125	4
76	76	2
112	112	3
133	133	8
5	34	2
137	137	5
130	139	1
34	34	3
0	1	2
128	129	1
38	42	2
70	70	2
4	5	1
72	73	6
48	48	1
123	130	1
79	79	5
54	54	1
92	92	3
77	108	2
64	65	2
49	49	1
18	18	1
24	24	3
112	114	1
58	60	1
95	95	2
41	61	1
143	143	1
43	63	2
38	40	2
145	145	1
133	140	1
28	28	1
12	75	2
40	40	3
143	144	1
60	61	1
90	90	1
120	121	1
77	77	2
63	81	2
30	30	10
56	122	5
116	117	1
87	141	3
65	65	3
102	102	3
40	61	1
72	74	2
31	33	1
69	71	1
122	126	2
132	132	2
14	15	2
16	17	2
114	116	2
99	101	2
96	96	1
118	125	1
123	125	2
33	33	1
30	67	1
50	50	2
109	109	3
12	12	1
63	104	1
11	11	2
18	19	1
116	116	2
84	85	2
62	62	1
30	72	1
93	94	1
35	35	1
136	136	1
22	27	1
89	133	1
132	137	2
95	133	1
127	128	1
33	34	2
97	98	1
62	63	1
55	106	1
31	32	1
138	139	1
116	121	1
61	62	1
14	32	1
128	131	1
