119	119	5
8	23	2
80	80	6
101	117	3
88	90	3
58	73	2
91	92	3
110	110	5
131	131	3
55	55	3
38	40	3
73	73	1
59	62	2
101	103	2
47	51	6
75	75	5
94	97	5
68	89	3
27	27	3
78	81	1
122	122	10
2	23	2
6	6	4
14	15	3
25	25	4
100	100	5
96	96	1
50	50	7
114	132	6
2	8	3
87	87	7
126	130	3
60	60	4
8	72	2
118	118	2
99	102	2
67	67	1
66	95	1
17	30	3
94	107	1
123	123	4
118	123	2
97	112	3
41	41	4
23	24	1
11	11	1
22	22	4
17	17	5
76	103	2
83	86	2
133	133	2
58	58	1
113	130	1
5	6	1
98	106	2
68	68	1
72	74	2
19	19	3
23	37	3
109	128	1
65	65	4
12	23	3
59	79	2
91	91	1
110	131	3
7	22	2
76	105	1
12	22	3
129	129	1
64	64	4
87	111	1
83	83	6
15	18	2
98	121	2
92	92	2
61	89	1
44	44	2
73	85	3
32	32	1
99	117	1
61	61	5
17	18	2
96	125	1
96	122	1
132	133	2
109	112	2
10	13	2
112	115	1
36	36	1
11	12	1
19	20	1
117	125	1
56	56	2
69	71	3
117	119	2
124	124	8
9	9	2
106	124	4
46	60	3
75	77	1
15	15	3
109	109	1
39	39	5
11	15	4
70	70	3
54	69	1
9	13	2
124	125	1
81	98	1
34	43	2
117	117	1
113	126	2
78	93	4
121	121	3
73	78	1
28	39	4
48	48	1
29	30	1
96	112	1
110	128	1
12	12	1
63	66	2
81	85	1
47	64	1
54	55	1
108	122	4
48	57	2
86	92	3
98	114	3
0	5	5
34	47	2
16	16	2
13	16	3
12	15	5
8	16	1
62	62	4
106	106	1
6	10	3
58	59	3
38	38	1
72	72	1
111	122	3
95	95	1
109	118	2
20	35	1
0	1	2
134	134	1
71	82	3
82	98	2
71	71	3
104	104	2
44	45	1
41	61	1
20	20	2
4	7	1
90	108	5
111	127	1
58	85	2
24	25	1
34	45	2
117	124	1
122	126	2
26	38	1
24	24	1
18	20	1
55	57	1
94	94	1
31	33	2
128	128	1
84	84	1
79	79	2
97	97	1
126	128	1
47	47	1
59	74	1
18	18	1
18	23	1
80	89	1
112	112	1
7	7	1
7	24	1
99	99	1
41	56	1
83	100	1
46	46	1
13	20	1
100	134	1
122	133	1
0	12	1
9	23	1
35	35	1
21	21	1
68	82	1
108	110	1
87	109	1
85	89	1
60	63	1
46	47	1
