68	68	1
38	38	1
58	58	1
124	125	1
95	125	4
15	15	6
77	77	7
40	40	2
87	87	10
150	150	6
134	134	7
159	159	4
3	3	3
23	54	1
40	41	1
89	89	4
27	28	2
91	179	6
127	127	9
98	99	5
18	19	3
167	167	2
147	147	2
123	124	6
37	118	1
66	134	1
68	93	4
174	174	5
114	114	6
35	35	3
119	119	1
63	81	3
123	123	1
14	14	3
172	172	4
37	123	2
24	24	4
75	75	8
27	27	2
65	65	9
101	101	1
9	9	2
110	112	4
159	160	5
152	153	5
0	0	2
22	23	2
178	178	3
7	18	1
52	114	2
95	95	3
166	171	1
156	156	2
22	106	1
98	98	2
157	159	1
150	176	2
131	131	5
121	121	2
139	139	3
112	112	4
4	44	2
123	141	4
149	179	4
106	106	2
114	118	1
21	21	3
129	130	2
112	113	1
61	61	7
92	92	3
125	126	1
71	135	1
85	98	2
104	104	3
163	163	4
173	174	1
43	43	2
66	67	2
173	173	3
97	110	4
37	37	3
111	111	2
135	135	4
59	60	1
115	115	4
73	73	2
17	18	1
169	169	2
9	11	3
168	168	3
138	149	1
91	91	1
67	67	1
110	111	1
64	81	1
86	86	5
58	61	2
83	83	5
74	74	1
90	90	1
32	32	2
157	157	1
169	170	2
80	80	1
144	176	1
55	130	3
140	140	5
111	169	1
168	170	3
76	76	2
64	64	2
125	125	1
10	44	2
62	62	1
155	156	1
111	113	2
63	86	3
177	177	4
143	144	5
152	152	1
24	26	1
165	165	1
99	99	1
130	130	6
164	164	3
1	44	3
13	13	1
7	7	1
65	93	2
42	43	1
139	171	1
149	149	1
73	74	2
41	41	2
132	132	1
22	44	1
161	161	1
141	141	3
57	100	1
1	10	1
156	161	2
11	11	2
98	101	4
149	150	2
145	145	1
55	131	1
96	96	2
71	91	1
97	97	1
104	105	3
78	78	2
140	141	1
118	118	2
137	137	2
79	80	1
12	17	2
59	61	1
108	108	1
5	16	1
84	84	1
51	87	1
120	120	2
52	52	1
151	154	1
33	33	2
105	107	1
138	139	1
83	99	2
117	117	2
61	62	1
56	131	1
103	104	2
10	43	1
148	148	1
67	149	1
3	18	1
123	142	1
110	110	1
19	22	1
124	124	1
143	176	1
2	2	4
109	110	1
4	13	1
