103	105	2
9	9	5
126	134	1
62	70	2
125	125	3
78	79	7
40	40	4
110	112	5
73	73	4
8	8	7
59	59	10
103	103	7
128	128	13
56	56	3
96	96	2
15	15	2
65	65	9
106	107	2
20	20	3
67	67	6
36	46	2
131	131	6
16	16	5
95	100	2
81	115	1
98	99	1
25	25	4
90	91	1
4	4	4
42	42	8
33	33	6
10	62	1
21	21	1
26	26	8
11	11	6
76	100	3
35	35	1
132	132	1
19	19	4
134	134	3
114	114	6
101	101	13
76	76	5
92	92	4
90	121	2
28	28	1
106	106	2
75	75	2
62	62	11
85	86	1
63	63	5
80	80	9
84	85	3
124	124	4
87	87	5
14	15	1
1	2	7
14	14	2
81	83	2
77	77	2
117	117	4
13	13	2
21	22	2
119	119	8
91	98	1
72	72	5
81	82	5
127	127	2
18	47	1
110	110	4
36	36	2
56	57	1
15	43	3
71	71	1
34	34	4
102	102	9
22	25	4
78	80	1
7	7	3
91	91	11
104	104	4
85	110	2
51	51	1
108	108	8
75	76	2
116	116	4
10	10	6
114	115	1
45	45	1
38	38	6
37	38	5
124	128	9
70	70	5
107	107	9
94	94	7
64	77	5
126	126	1
12	12	5
30	30	2
87	124	3
113	113	8
60	60	1
76	120	1
39	40	1
1	1	1
123	123	6
115	116	1
92	99	4
71	72	1
55	58	3
122	122	3
42	43	4
14	28	1
21	39	1
128	130	2
93	93	5
46	46	4
112	112	5
0	0	3
23	23	1
121	122	1
26	27	4
78	78	1
77	85	1
31	32	2
32	32	2
69	69	2
29	29	1
47	47	2
105	105	3
10	60	1
85	85	2
94	96	1
86	124	2
130	134	1
25	43	2
117	123	1
89	89	3
81	81	1
99	99	1
6	6	1
44	44	2
103	104	3
24	24	4
94	99	1
86	86	4
114	132	2
130	131	4
89	100	3
91	102	1
12	50	1
24	25	1
66	66	4
90	90	5
80	98	1
93	94	3
48	48	1
121	123	1
17	17	2
93	100	1
75	101	1
27	28	2
84	111	1
59	60	3
93	101	1
49	50	1
108	109	2
88	88	1
45	46	3
84	110	1
126	127	1
96	99	2
97	98	1
64	71	1
79	79	2
73	117	2
109	112	2
83	83	2
118	119	1
18	18	1
29	30	2
55	57	2
83	115	2
111	111	2
88	124	1
19	20	1
115	115	1
14	44	3
118	118	2
61	61	3
133	133	1
22	24	1
19	22	2
97	97	1
116	125	2
26	36	1
126	130	3
39	39	1
109	113	1
24	38	1
98	98	1
87	89	1
109	109	4
8	9	1
111	114	1
18	41	1
104	105	1
19	39	1
82	83	1
27	27	1
31	41	1
2	2	1
