48	49	10
5	5	16
33	34	6
55	55	7
3	7	1
16	16	2
40	42	6
33	33	6
50	52	8
23	23	9
57	58	10
4	7	5
0	1	12
1	2	2
5	8	7
58	58	6
30	31	8
16	22	4
3	4	1
49	53	3
3	3	11
50	53	5
19	24	2
19	19	9
43	52	2
53	53	1
12	12	4
41	46	3
48	48	6
0	2	2
13	14	3
13	13	1
44	44	8
17	19	3
28	28	11
14	14	9
22	22	4
48	53	7
17	20	5
6	9	3
31	32	7
35	39	2
2	2	6
20	20	4
11	15	1
21	24	4
12	14	4
8	8	2
45	45	4
39	41	5
11	11	8
17	18	5
30	33	1
40	41	2
31	38	3
32	32	3
51	53	2
51	56	2
35	36	4
13	17	1
16	21	4
41	41	2
51	59	1
10	11	5
28	38	2
4	9	7
5	10	4
40	44	2
54	55	4
16	18	3
40	40	11
9	11	1
36	36	6
1	1	7
10	15	3
57	57	4
7	8	3
51	51	7
18	18	6
10	16	11
29	29	6
32	37	2
45	46	4
34	35	6
50	51	11
31	35	2
6	8	4
34	34	10
4	4	5
1	5	1
38	45	2
29	31	2
52	55	1
38	38	9
35	40	1
11	16	4
10	23	2
54	59	1
28	35	1
18	20	2
51	52	7
28	33	2
16	17	3
35	37	2
54	56	2
29	30	4
19	23	1
43	43	4
8	10	3
49	54	2
47	52	4
2	3	2
2	7	1
30	30	3
7	7	14
55	56	4
52	52	5
34	39	2
37	38	3
7	12	3
30	37	1
44	45	6
0	0	2
52	53	6
32	36	1
46	46	6
37	53	2
10	10	3
12	22	5
46	51	2
14	15	3
15	19	2
38	48	2
48	52	1
32	33	3
37	39	6
8	11	1
31	40	1
4	13	1
31	39	2
2	9	1
30	32	3
42	43	2
19	20	4
3	6	2
42	48	2
4	5	4
23	24	1
47	50	1
14	24	2
15	16	3
50	55	1
40	43	2
6	10	1
56	56	3
33	36	2
15	15	2
5	7	1
45	50	1
9	13	1
41	44	2
36	38	1
42	42	3
37	37	3
32	40	2
46	47	2
43	45	3
7	10	3
1	3	1
11	13	1
35	38	1
34	37	1
54	54	3
39	39	4
15	17	1
47	47	2
22	23	3
41	42	1
9	9	3
35	35	1
15	18	1
27	29	1
28	29	1
51	54	1
5	6	3
7	15	1
43	44	1
50	50	2
41	47	1
0	4	1
39	40	1
11	12	1
49	51	1
12	15	2
38	42	2
20	21	2
48	50	1
31	36	1
31	31	1
17	22	1
56	58	1
