94	94	17
104	105	1
136	137	3
86	87	4
0	151	6
17	21	10
23	23	4
109	158	5
26	26	21
136	136	6
50	53	1
130	130	16
39	39	21
105	105	13
63	63	11
38	40	5
71	71	10
144	157	3
139	139	9
108	108	9
111	112	8
31	31	19
35	35	4
95	95	13
0	2	4
110	110	13
120	142	1
5	5	19
106	106	10
132	151	4
51	51	10
27	27	19
145	145	8
81	147	3
27	29	3
8	8	9
15	15	11
47	47	8
3	110	4
36	36	11
144	145	9
98	98	15
25	133	3
123	124	3
120	120	11
112	124	2
84	84	18
82	83	7
117	117	13
25	25	11
97	148	2
23	25	3
109	111	2
116	117	2
126	126	18
68	68	11
79	86	2
108	110	1
50	50	10
88	88	9
46	46	6
112	112	5
140	140	3
7	44	2
123	123	11
78	82	5
78	78	16
11	11	14
124	125	4
33	33	15
114	114	4
8	69	2
80	80	15
65	65	10
101	101	13
29	30	1
24	25	4
135	135	9
80	115	3
136	149	3
19	19	15
93	93	17
66	148	3
18	36	2
54	55	5
44	44	10
3	4	7
90	91	1
99	99	3
117	136	1
155	155	11
156	157	4
49	49	7
114	146	1
11	13	4
29	29	16
90	90	9
92	92	13
26	27	5
88	89	3
52	71	2
22	23	4
147	147	12
70	70	3
7	7	15
65	66	1
66	68	1
112	158	2
85	85	7
22	22	7
13	13	9
12	12	8
151	152	1
116	116	11
16	16	4
40	68	2
137	137	16
25	26	5
14	15	5
2	2	14
85	86	9
110	111	4
11	12	9
81	81	15
150	152	4
7	8	9
87	87	15
11	42	1
34	34	7
2	151	5
107	136	1
18	18	16
132	133	5
131	131	13
51	53	3
26	40	3
91	91	9
118	118	15
133	133	9
132	155	1
3	3	10
40	41	4
1	1	13
105	108	4
30	30	9
150	150	16
6	6	10
94	95	4
151	151	19
133	134	11
18	138	2
79	80	8
131	132	1
51	52	7
158	158	23
154	155	4
128	128	8
99	135	2
105	106	1
21	21	11
108	109	6
95	136	3
19	95	3
9	9	6
37	37	2
2	5	1
117	118	1
128	129	1
77	78	3
4	4	9
125	125	14
78	81	2
40	40	4
20	20	7
127	127	13
48	48	10
91	93	4
10	10	16
17	17	5
75	77	1
45	55	5
42	42	10
64	152	5
41	41	6
153	153	2
103	104	4
146	146	5
123	125	4
69	69	5
142	150	1
124	124	10
100	101	4
47	79	1
105	149	4
57	61	1
135	152	3
79	79	5
107	107	2
156	156	11
157	157	2
147	156	4
96	96	13
132	132	7
0	1	3
0	110	3
104	104	9
8	9	3
73	73	2
13	17	3
152	158	3
91	92	8
22	32	1
126	154	3
12	20	3
62	67	2
21	22	1
142	142	6
67	68	3
112	135	4
52	54	4
100	100	16
24	24	8
76	77	3
77	77	12
12	14	1
35	38	1
75	75	5
146	147	3
12	18	1
117	137	1
134	134	9
108	112	1
138	138	15
83	88	4
126	127	3
154	157	1
102	102	5
102	127	2
97	143	2
83	83	12
43	67	1
32	32	9
45	45	13
15	31	2
39	47	4
86	86	11
115	115	6
113	113	5
66	69	1
103	126	2
71	151	1
101	150	1
44	68	1
53	54	2
103	105	4
5	6	3
97	145	3
52	53	3
41	44	1
13	47	4
63	64	1
114	141	1
103	103	4
17	18	3
52	52	4
10	12	3
40	67	3
150	151	2
89	89	5
97	138	3
30	31	3
3	56	1
8	39	3
8	18	2
43	43	8
68	155	3
148	148	5
22	30	1
12	13	8
130	156	1
41	68	1
107	131	2
49	50	2
101	102	1
102	124	1
102	125	5
141	141	8
121	121	7
134	157	1
107	108	8
63	68	4
28	28	12
147	148	1
115	146	5
137	148	1
127	151	3
122	134	6
46	55	3
3	111	1
91	137	2
55	55	1
16	32	3
138	139	4
41	69	1
135	158	2
96	97	2
101	104	1
46	47	1
77	141	2
117	142	2
139	140	1
80	140	1
146	148	2
46	54	4
44	47	2
115	141	1
36	37	4
81	82	3
132	156	2
5	43	1
97	98	2
113	122	1
129	129	3
41	67	2
3	44	2
89	90	3
151	154	2
111	151	4
121	134	3
108	135	2
23	24	2
18	22	1
109	110	1
48	49	4
115	116	6
0	0	3
102	123	1
122	122	3
116	142	1
121	122	4
68	69	2
94	137	1
50	52	3
139	150	1
88	90	1
82	82	1
121	140	1
48	50	1
16	49	1
127	128	3
47	48	6
112	151	2
4	6	3
69	81	2
122	141	2
111	111	4
124	143	3
102	150	2
135	156	2
12	39	4
119	158	1
67	67	1
65	98	2
145	147	2
63	67	2
151	158	3
57	57	1
1	5	3
97	97	4
157	158	1
144	144	2
32	100	1
1	2	3
3	7	4
149	150	1
72	72	3
67	80	3
7	40	1
80	143	2
113	114	3
18	20	1
106	107	2
1	4	2
143	143	3
117	135	3
17	103	3
84	85	2
56	57	3
54	54	2
7	110	1
20	94	2
36	38	4
143	148	1
68	153	2
78	140	3
62	62	3
149	149	4
123	129	1
40	56	1
32	36	2
155	157	1
20	106	3
3	45	2
113	120	1
63	71	1
81	120	1
3	150	1
89	95	2
1	130	2
9	39	1
21	24	1
114	142	1
77	82	3
52	70	1
88	138	2
63	153	2
64	66	1
71	72	1
118	157	1
25	28	1
105	107	1
134	135	4
8	43	1
97	146	1
64	64	2
7	36	2
3	42	1
137	138	1
114	144	1
112	132	1
95	96	1
38	38	1
38	39	1
31	99	1
66	66	2
47	51	1
8	36	3
33	34	1
72	73	1
78	79	1
135	136	1
120	121	3
152	156	1
148	149	1
61	61	1
14	14	1
65	99	1
72	155	1
50	51	1
136	142	2
15	16	1
120	158	1
13	14	1
30	104	1
130	131	2
139	148	1
18	19	1
13	40	1
20	21	1
2	4	2
131	156	1
79	119	1
123	141	1
135	157	1
47	73	1
144	156	1
152	152	1
131	155	2
97	104	1
130	133	2
13	15	3
102	104	1
16	31	1
40	72	1
46	50	1
96	148	1
98	128	1
35	39	1
75	84	1
82	147	1
113	145	1
131	157	1
113	115	1
87	89	1
