0	10	1
7	8	10
107	107	7
164	164	6
96	98	1
3	6	1
55	55	1
30	31	4
122	122	3
12	12	4
87	118	1
89	89	2
153	172	3
12	59	3
140	141	2
56	56	2
75	75	4
53	54	2
178	178	2
136	136	4
36	36	3
145	148	1
40	40	6
57	63	2
64	117	1
168	168	5
161	161	8
1	3	4
58	62	3
145	147	2
128	128	5
114	114	2
27	27	8
87	87	4
125	132	5
151	151	4
57	57	5
13	16	4
71	71	2
130	130	4
5	6	1
165	166	3
126	126	2
24	24	2
144	147	5
23	23	4
92	94	2
167	167	8
113	146	2
124	125	11
133	133	3
141	142	2
149	149	3
19	19	3
7	7	1
12	14	2
8	9	3
111	111	2
41	41	10
155	155	2
116	116	2
166	166	7
179	179	8
121	121	12
20	21	3
81	81	5
129	140	3
159	159	2
139	139	11
81	84	3
143	146	2
45	45	5
63	63	3
147	147	4
35	35	3
108	108	3
100	102	1
174	175	5
9	9	4
141	141	8
140	140	1
113	113	4
85	85	4
112	112	6
148	148	1
98	98	9
159	160	6
104	160	1
60	60	3
64	64	1
56	59	1
10	10	3
133	134	3
4	4	5
154	154	6
63	66	4
65	67	2
111	113	3
38	38	1
16	16	1
152	153	4
132	142	1
96	96	2
145	146	1
33	39	1
80	80	1
96	97	3
93	93	4
54	58	1
154	174	2
88	89	1
4	5	1
43	43	7
91	92	1
124	124	2
29	29	4
82	82	2
13	14	1
65	66	4
36	38	3
172	172	1
112	124	1
109	143	2
146	148	3
36	37	1
97	97	2
61	61	3
94	98	4
162	162	2
124	130	1
33	33	4
78	78	9
50	52	1
105	105	4
131	131	2
91	91	1
29	30	1
157	157	7
155	173	1
123	123	3
64	65	3
177	178	1
104	104	1
86	88	2
173	173	2
2	8	1
132	133	2
134	135	1
0	31	2
0	0	2
51	51	5
21	21	1
132	132	4
61	64	1
129	130	2
107	109	1
29	42	3
176	176	2
76	77	2
5	5	4
80	89	2
165	165	3
10	11	2
174	174	3
104	105	1
30	30	2
120	120	3
155	156	2
102	102	3
175	176	2
119	119	1
30	38	1
110	110	1
128	129	1
28	28	1
152	152	5
21	31	2
137	137	2
52	53	1
1	1	2
94	94	2
65	65	3
143	143	1
161	174	1
144	148	1
142	143	2
153	153	2
77	77	3
14	14	1
88	88	1
112	119	2
163	174	1
2	2	2
149	165	1
90	90	1
54	54	3
169	169	1
18	18	2
132	141	2
73	73	4
19	121	3
144	153	1
100	100	2
118	118	1
113	114	1
68	68	2
39	39	3
7	11	2
25	30	1
95	104	2
158	158	1
90	115	1
111	112	3
163	164	1
99	99	1
0	34	2
11	21	2
150	150	1
33	38	1
6	11	1
75	83	1
156	173	2
31	31	2
117	118	1
72	72	1
106	111	1
128	130	1
13	13	1
6	6	2
108	166	1
61	63	1
144	150	1
3	10	1
105	106	2
143	147	1
27	32	1
142	142	1
109	109	1
148	153	1
83	83	1
139	141	1
2	3	1
127	127	1
26	26	1
11	11	1
112	131	1
52	54	1
109	144	1
6	7	1
11	12	1
108	109	1
