102	103	6
118	118	8
11	12	3
122	122	10
65	65	3
27	27	7
55	55	7
33	76	5
125	128	3
28	28	12
110	110	6
97	97	7
50	50	3
44	45	1
41	41	4
69	69	3
80	81	1
116	117	5
31	31	11
45	47	5
25	25	5
56	56	7
32	32	1
125	125	7
3	3	6
30	30	3
47	59	4
99	99	8
10	10	8
45	48	3
3	4	1
7	7	2
25	26	2
98	98	1
76	76	8
39	40	8
109	114	3
89	89	7
5	5	8
67	74	2
88	96	2
26	26	5
125	126	1
71	74	3
49	49	7
62	62	2
133	133	2
102	102	5
112	112	7
95	120	2
80	80	5
120	121	1
46	46	6
117	117	4
119	119	6
78	85	5
25	27	3
111	113	1
63	63	2
40	40	2
109	113	6
48	49	1
129	130	3
105	124	2
12	12	1
132	133	2
108	110	5
16	17	3
121	121	1
9	9	3
18	19	2
9	12	2
114	114	3
95	95	2
29	29	8
49	88	3
51	51	6
105	107	1
63	64	2
48	133	5
94	94	7
20	20	6
54	54	1
116	116	5
91	91	2
103	131	2
60	61	9
7	15	3
109	109	10
4	4	6
131	131	4
123	123	2
68	68	9
75	76	2
83	84	1
6	6	2
78	78	6
44	44	1
110	111	2
82	83	2
15	16	1
124	124	2
72	73	2
54	55	1
24	24	2
66	68	2
131	132	1
64	72	4
4	14	3
115	115	6
106	106	1
85	86	2
31	32	3
84	85	2
113	113	3
34	34	2
109	110	2
130	130	2
70	70	4
92	92	1
92	94	4
75	77	1
117	118	3
21	21	8
77	77	4
82	82	1
101	101	5
102	131	2
79	79	4
81	82	2
106	124	3
51	52	3
108	108	2
1	1	4
120	120	1
48	101	3
46	58	2
2	8	1
81	81	2
132	132	5
93	93	2
32	39	2
57	57	1
52	55	2
53	53	4
49	57	1
69	76	1
127	130	1
118	119	1
8	8	5
105	106	1
104	130	4
100	117	1
71	71	1
87	87	2
63	77	1
40	42	2
104	132	3
90	91	2
109	111	1
97	98	2
57	58	1
130	131	1
19	21	1
128	128	1
43	43	3
48	48	2
121	123	1
85	85	1
19	19	2
61	61	1
1	15	2
33	34	3
46	47	3
2	3	1
23	23	2
66	66	1
41	47	1
21	22	2
66	78	1
49	50	1
31	58	1
53	54	1
107	107	1
41	45	2
123	124	1
111	112	3
126	126	2
63	65	2
74	74	1
59	59	1
127	131	1
40	41	1
22	22	1
105	105	1
49	81	1
50	89	1
24	27	1
99	119	1
64	64	1
