73	91	2
116	116	2
184	184	5
44	54	1
203	203	3
31	31	5
114	114	15
20	20	2
154	154	2
216	217	4
176	177	1
180	227	1
23	23	2
177	177	6
172	172	3
202	202	8
15	45	2
199	199	9
93	94	3
240	240	9
236	236	4
9	26	3
188	188	4
112	112	5
56	56	7
41	41	4
246	246	3
40	40	2
117	117	7
199	216	2
222	222	3
171	177	4
87	88	8
28	28	7
120	120	1
81	81	6
210	210	10
47	47	5
48	49	2
82	82	1
95	95	9
3	7	4
230	230	1
108	109	2
118	119	4
50	50	7
232	236	4
174	175	6
167	169	2
4	7	2
5	29	5
104	105	5
244	249	3
16	16	4
22	22	1
145	145	9
160	161	3
180	223	1
178	205	4
232	232	4
69	69	19
59	87	1
209	209	12
204	204	1
44	55	1
54	55	2
18	18	1
34	34	9
179	179	5
73	73	6
144	145	2
2	2	3
105	105	2
30	119	2
65	65	9
94	116	2
85	91	1
59	88	2
196	196	9
212	212	3
39	39	5
50	66	3
79	79	3
172	194	1
149	149	1
205	206	1
41	52	3
94	94	10
88	91	4
160	184	1
80	80	5
182	182	4
8	9	4
174	182	1
64	64	4
1	1	3
155	156	2
104	104	5
107	107	6
49	49	6
115	115	2
190	190	3
178	217	2
170	195	2
202	235	4
27	28	7
160	160	6
162	186	1
36	36	8
220	225	1
32	61	1
168	168	3
99	99	6
22	218	5
212	213	2
194	196	2
52	68	2
0	0	1
76	76	3
11	19	5
202	204	1
245	246	3
189	192	2
152	166	3
219	219	2
245	245	4
75	75	2
150	168	2
54	77	2
68	68	6
181	196	2
53	54	3
44	56	2
200	201	1
15	229	2
83	83	4
231	231	2
159	159	4
63	63	3
96	97	6
158	172	3
247	247	6
32	32	6
118	118	9
195	195	10
74	79	4
176	176	6
175	175	2
163	183	2
238	238	1
57	57	2
151	151	3
47	58	3
214	214	3
10	173	1
189	207	1
47	59	2
44	44	1
91	92	4
161	178	2
233	235	3
109	109	10
213	213	1
161	179	3
171	197	2
175	193	1
48	67	5
16	29	4
38	38	4
190	198	2
194	198	1
229	229	8
214	240	4
180	180	2
51	51	5
243	243	2
24	24	2
8	8	1
5	113	1
62	62	1
214	235	2
15	15	3
208	228	2
20	24	1
98	98	2
55	55	3
179	196	1
206	226	1
240	241	4
188	207	2
155	168	2
216	238	2
225	226	3
70	70	7
23	24	3
204	205	2
109	151	2
157	167	1
3	3	8
227	239	2
146	146	1
204	230	1
81	102	1
174	199	1
218	218	1
207	211	1
95	114	5
173	189	2
78	78	2
22	23	5
181	206	7
80	81	1
204	207	1
227	227	3
189	190	3
77	77	2
29	29	1
236	245	1
248	248	3
58	58	4
117	118	2
117	162	1
204	226	4
9	9	4
35	36	1
58	77	2
33	33	5
25	28	2
19	19	8
194	194	3
182	222	1
33	41	1
54	57	4
220	221	1
183	183	2
217	217	2
228	237	3
211	211	1
48	51	1
221	221	6
59	59	4
182	196	1
68	70	1
173	174	1
20	22	1
6	19	2
108	108	6
216	216	4
197	198	1
34	39	1
113	113	9
224	225	4
97	97	2
34	35	1
187	188	1
62	64	2
103	103	1
178	206	3
244	244	5
6	6	2
111	111	3
163	163	4
170	170	7
72	109	4
168	169	5
153	153	3
155	155	5
69	88	1
171	171	3
9	19	3
237	237	4
13	13	2
166	166	1
20	23	1
14	37	1
184	219	2
20	21	5
94	96	3
157	180	2
198	202	4
4	37	1
209	228	4
101	103	1
161	161	3
75	76	1
14	14	3
234	234	4
208	224	1
157	163	1
227	231	2
169	169	1
194	195	1
22	47	1
21	21	3
3	154	4
220	220	5
102	103	2
72	76	4
49	71	2
72	72	1
158	194	1
175	183	1
241	241	3
11	11	4
162	162	7
156	173	1
170	171	3
81	85	2
197	197	1
185	185	1
156	165	2
144	177	1
183	223	2
93	113	1
236	237	1
178	193	1
33	172	2
169	177	2
76	77	1
96	96	2
15	230	1
42	42	3
156	164	1
71	71	4
56	79	6
78	99	1
208	208	2
190	221	1
243	246	1
47	56	1
204	222	1
91	91	1
185	205	4
200	200	7
176	185	4
28	29	1
29	30	1
181	181	4
242	245	2
111	112	2
158	177	2
201	208	1
20	34	2
163	166	1
79	99	1
50	59	3
106	106	2
169	170	1
94	110	1
184	228	1
183	184	2
20	37	1
222	223	2
69	70	3
244	245	1
206	209	1
65	66	1
239	239	1
70	79	2
84	84	3
54	56	1
62	91	2
158	196	2
12	14	1
157	181	1
29	52	2
195	225	4
233	233	1
221	248	1
205	227	2
176	198	1
195	196	2
95	97	2
189	189	1
15	37	2
74	105	3
107	110	2
215	215	2
78	79	1
46	79	1
156	172	1
211	212	1
66	76	1
51	68	1
150	150	2
93	93	2
67	67	6
60	60	1
50	52	1
168	192	1
86	87	1
247	248	1
212	233	1
158	180	1
215	216	2
92	92	2
70	106	1
10	10	1
45	45	1
48	57	1
235	236	1
207	207	1
116	118	1
90	98	2
63	89	1
45	46	1
57	77	1
206	228	1
53	53	2
22	170	1
229	237	1
181	195	1
51	67	1
61	95	1
25	50	1
13	14	2
49	50	1
46	46	2
162	178	1
89	89	1
101	101	1
26	28	2
67	70	1
25	25	1
213	215	1
201	201	3
210	212	1
66	66	1
82	88	1
119	119	1
7	7	1
11	216	1
177	195	1
184	223	1
156	174	1
190	193	1
243	248	2
84	100	1
38	39	1
61	61	2
85	112	1
230	234	1
64	89	1
91	93	1
159	174	1
193	194	2
54	60	4
198	198	1
72	73	1
199	210	1
210	237	1
178	185	2
156	170	1
90	91	1
10	172	1
36	47	1
32	57	1
151	153	2
166	167	1
18	34	1
179	202	1
177	196	1
93	115	1
228	232	2
207	208	1
170	172	2
183	192	1
191	191	1
102	102	1
29	46	1
52	53	1
28	32	1
231	233	1
226	226	1
207	239	1
69	80	1
13	15	1
