88	91	3
203	203	8
43	43	6
37	38	1
16	205	2
168	248	1
41	44	3
55	92	6
188	190	6
151	151	3
6	7	1
207	213	2
6	6	5
32	33	4
229	229	14
186	220	1
29	29	14
158	158	12
76	94	5
189	189	2
114	114	10
46	47	2
244	244	4
177	177	7
74	74	10
94	95	4
239	246	3
226	226	6
225	225	10
227	227	12
218	219	4
222	222	2
22	23	6
225	232	4
184	186	1
63	64	1
31	31	8
4	20	4
220	221	5
21	21	5
241	241	10
114	115	1
7	7	2
26	26	5
196	196	2
205	206	5
52	52	3
69	69	10
67	67	4
199	199	6
204	205	3
116	118	3
152	201	1
54	54	9
157	159	2
209	209	9
23	23	16
45	46	1
180	181	1
152	152	4
160	160	5
153	153	2
178	178	3
18	18	6
28	28	11
174	174	3
10	10	15
190	191	1
216	216	2
39	40	2
64	64	6
58	58	2
117	117	13
118	118	8
66	66	7
116	116	14
175	175	2
203	205	2
233	234	1
33	118	2
14	173	2
48	107	3
50	173	2
33	33	4
117	119	1
173	175	5
169	170	1
167	167	3
71	71	6
208	208	5
165	166	1
92	96	5
77	77	6
172	172	5
198	198	6
85	86	4
238	238	6
239	239	1
89	90	3
183	184	2
231	231	1
68	68	5
36	36	2
156	156	6
155	155	7
120	120	5
37	37	10
6	68	1
56	56	4
185	185	1
158	211	1
62	64	2
8	20	5
39	39	5
223	246	2
84	84	8
183	192	4
14	14	10
115	116	1
50	50	3
153	156	1
30	30	6
90	91	2
213	213	6
230	230	5
24	25	2
236	236	7
59	59	3
115	115	2
17	21	5
27	27	4
29	30	7
160	166	2
240	241	2
106	106	6
86	86	3
203	204	2
17	17	5
45	212	2
88	88	5
109	109	5
174	177	1
168	244	1
187	192	2
101	101	6
15	15	10
171	171	8
51	65	2
165	165	4
179	179	3
51	51	7
57	57	4
234	235	1
197	197	2
89	89	2
84	85	3
8	116	1
112	146	3
76	76	3
233	233	5
176	176	1
17	18	2
149	213	2
164	171	3
45	45	12
202	202	5
157	219	3
166	167	3
224	233	1
184	184	4
164	236	2
163	164	9
180	232	4
103	103	6
199	238	1
3	204	4
15	16	3
201	201	6
95	95	2
55	55	8
5	5	1
42	42	3
14	15	3
64	65	5
171	178	1
180	180	4
43	44	2
82	82	2
147	147	3
166	208	3
7	19	1
224	231	1
193	196	5
212	212	1
212	213	1
153	222	1
40	40	8
44	45	3
16	23	2
165	205	1
30	34	3
35	58	1
88	104	1
24	24	8
12	15	3
110	110	6
217	217	3
204	204	5
95	99	4
180	183	1
206	206	2
214	214	7
151	152	2
49	50	7
78	83	3
230	248	4
78	78	8
177	178	1
218	218	3
213	214	2
171	172	2
224	225	3
60	76	2
223	223	1
187	187	1
13	168	2
58	59	3
79	80	1
7	34	3
182	196	1
85	85	3
9	19	1
12	94	2
11	12	3
98	99	4
228	228	1
63	63	5
192	195	2
48	72	1
1	1	4
211	220	3
111	112	1
25	25	6
87	87	3
38	38	3
100	100	2
19	33	2
63	87	2
0	40	1
215	215	4
149	207	1
91	98	6
205	207	2
154	154	4
4	4	2
237	241	4
157	157	3
188	188	2
107	107	2
175	176	2
99	108	1
96	100	3
3	6	2
229	233	2
8	8	4
12	13	1
200	200	2
105	106	3
36	37	1
83	84	2
111	111	4
232	232	1
15	64	3
221	222	5
45	113	3
20	20	2
58	66	3
235	235	8
76	82	2
6	33	5
211	211	4
31	32	1
47	54	1
146	146	4
56	58	1
94	94	4
76	77	2
92	92	7
240	240	4
166	166	4
86	101	1
166	210	2
9	9	7
12	12	5
221	221	4
75	76	3
56	91	3
104	104	2
16	204	1
42	43	1
224	226	2
183	195	1
164	164	1
167	168	2
54	62	2
184	233	1
58	60	2
120	145	1
99	100	2
121	148	1
98	98	1
191	193	1
151	219	1
61	101	1
27	53	1
77	83	3
9	205	1
4	7	1
34	34	1
236	243	2
61	100	1
234	234	6
151	155	1
83	83	1
15	209	2
61	61	2
227	228	1
243	244	2
195	195	3
181	181	1
105	105	3
2	3	2
192	192	3
173	173	5
77	78	2
28	31	3
104	106	1
61	63	2
102	104	1
161	161	2
154	225	2
227	248	1
35	35	2
41	94	2
159	159	3
27	52	3
8	17	1
53	54	2
187	191	1
232	233	1
169	169	6
48	48	4
57	72	1
190	190	1
63	92	3
34	35	1
119	119	2
197	198	2
242	243	1
194	196	2
156	212	2
100	101	4
53	53	2
21	33	1
91	91	2
65	65	1
192	193	1
101	114	2
55	57	3
2	203	1
229	230	2
27	40	2
166	209	1
246	246	1
235	242	2
237	237	2
179	189	2
33	34	1
67	74	1
249	249	2
217	218	1
12	72	1
183	247	2
192	224	2
93	93	1
193	193	2
182	246	1
186	190	1
190	223	1
170	171	1
62	63	1
225	226	1
94	101	2
161	224	2
228	234	2
42	101	1
81	81	1
41	41	5
70	70	1
56	57	1
28	29	1
64	75	1
22	22	1
229	232	1
246	247	2
112	112	1
21	22	2
245	245	1
113	114	1
11	11	2
186	186	1
5	34	1
228	229	2
47	70	1
163	211	1
201	223	1
96	96	1
162	162	1
239	245	2
174	175	1
90	90	1
184	241	1
48	57	1
16	16	1
19	19	2
235	236	1
150	150	1
109	110	1
225	233	2
172	249	1
160	161	2
13	14	1
65	66	1
3	5	1
