29	30	3
121	122	4
78	86	4
147	147	9
30	48	2
104	104	6
10	11	4
29	29	9
81	81	13
78	79	9
18	32	1
50	51	4
1	3	3
110	111	5
53	54	6
144	144	8
125	125	11
75	75	4
106	107	7
83	83	10
119	120	15
71	71	13
85	86	11
87	87	5
100	100	12
82	82	19
40	40	13
41	42	9
79	79	13
8	35	3
0	1	7
13	27	2
22	23	7
86	97	3
54	54	9
52	52	11
142	145	2
95	108	2
146	146	10
20	22	2
0	0	7
45	48	4
48	48	10
108	135	2
5	29	10
95	95	12
37	65	2
139	147	1
81	82	10
131	132	5
145	146	4
22	24	2
90	90	5
54	55	4
66	72	3
157	158	2
28	39	2
80	80	9
100	101	1
123	133	3
115	115	7
104	105	3
17	33	2
78	78	8
4	4	2
112	113	11
38	39	2
13	13	21
46	48	3
84	86	4
38	38	7
42	43	3
141	142	4
37	37	2
114	114	25
129	130	4
140	148	2
17	17	13
42	42	13
111	117	3
96	97	4
145	145	10
46	49	2
35	35	7
117	117	12
33	115	3
88	88	7
16	17	1
89	92	3
36	36	9
40	42	5
93	93	16
49	50	8
115	116	2
98	98	5
30	50	7
136	136	10
118	118	19
26	42	1
24	26	12
64	67	2
106	135	2
14	14	7
34	50	1
13	15	2
43	48	2
9	9	12
2	3	7
141	144	5
7	7	13
90	91	5
1	1	6
12	12	8
20	20	9
123	123	16
30	30	9
43	43	17
3	53	3
41	45	3
106	149	4
10	94	4
77	80	4
13	66	3
91	94	3
28	28	2
27	27	1
11	11	9
6	6	8
88	90	4
31	32	12
106	106	6
97	103	5
88	94	3
38	45	5
82	107	1
155	158	6
97	113	9
75	76	2
121	134	3
94	94	14
25	26	8
4	56	2
30	32	8
3	4	10
122	134	3
49	54	3
132	133	12
109	111	2
144	147	6
4	78	1
108	111	5
87	114	1
25	25	4
10	14	8
139	141	1
24	24	3
9	36	1
142	142	2
65	65	11
3	3	5
34	36	3
6	12	3
106	116	1
29	38	5
127	127	15
7	62	2
83	106	4
22	22	5
84	84	7
150	150	7
16	46	2
67	71	10
16	16	3
116	116	3
69	69	6
107	111	8
108	110	1
73	73	3
126	126	7
92	92	11
122	122	17
105	112	9
140	141	9
64	68	2
67	68	3
67	70	7
10	90	2
138	149	2
23	23	7
68	71	1
86	86	10
42	50	2
19	19	12
152	154	3
125	126	16
134	135	7
132	132	8
12	13	12
6	76	7
30	38	2
156	157	1
23	24	13
87	89	2
138	138	6
21	21	10
107	108	3
93	94	3
5	5	4
50	95	1
91	91	12
128	132	1
41	41	9
135	135	5
46	46	7
70	71	5
72	73	4
55	55	6
97	104	6
45	55	2
40	41	3
152	156	3
119	119	19
106	154	2
92	93	5
33	34	1
17	19	5
2	2	9
157	157	5
141	141	9
37	38	6
32	53	5
48	61	1
84	85	5
67	67	8
148	148	8
101	138	9
89	89	7
44	66	1
51	51	9
109	110	9
139	139	10
106	155	2
47	48	7
34	35	6
6	11	3
79	81	4
126	127	9
46	47	1
18	18	15
26	28	2
109	109	9
105	106	8
99	100	5
70	98	4
82	83	2
95	113	3
99	99	7
3	5	3
9	97	4
70	70	8
108	108	8
7	55	3
131	148	2
111	122	3
87	95	1
9	10	1
26	27	2
135	136	1
5	6	8
27	28	4
101	107	1
143	146	1
5	67	1
77	79	2
13	14	5
70	99	4
47	51	2
68	101	2
133	134	4
11	35	3
55	76	1
55	92	4
67	73	7
65	71	2
7	8	2
4	53	4
118	119	1
31	31	5
106	109	3
73	74	3
15	15	10
95	96	2
153	154	2
156	156	6
9	94	1
77	77	1
111	121	2
11	12	8
117	118	5
4	79	2
110	110	5
102	103	4
137	138	8
68	69	4
111	111	10
32	32	5
130	130	5
32	51	8
0	2	2
137	137	9
145	148	1
95	97	1
9	145	6
144	146	7
144	145	5
111	112	3
8	11	4
57	63	2
151	151	14
146	147	4
66	77	2
136	144	2
39	49	1
113	139	3
29	43	4
103	104	3
39	39	4
139	148	2
154	155	1
131	131	2
55	56	3
152	152	3
26	30	1
57	57	3
122	123	4
17	18	5
90	94	1
36	38	4
121	128	1
28	29	2
140	140	7
81	83	3
137	150	2
114	115	4
124	124	5
50	50	4
124	125	11
131	134	6
12	66	2
31	34	7
69	91	3
1	78	4
10	104	1
47	49	1
106	137	3
105	105	10
27	37	4
6	28	2
18	42	1
141	146	1
10	10	5
121	124	1
112	112	9
102	104	2
66	71	2
33	35	7
128	128	5
134	145	2
85	85	6
76	91	5
12	99	1
70	101	6
82	84	4
51	52	5
6	10	1
155	156	4
72	75	1
133	133	4
107	135	5
141	157	3
30	31	6
133	148	3
130	131	2
52	53	6
7	92	3
142	156	2
14	15	3
107	107	5
56	85	2
28	44	3
120	120	5
35	56	1
70	79	2
119	121	4
98	99	1
103	103	2
77	88	1
127	132	5
77	78	2
31	42	1
53	109	1
97	98	5
68	70	1
21	22	3
11	98	2
8	15	3
143	144	7
144	148	3
131	133	3
155	155	9
1	2	3
2	35	2
139	150	4
122	135	2
16	39	1
124	126	5
120	121	4
34	49	7
45	46	5
15	27	1
104	138	1
145	150	2
77	86	1
134	144	1
33	51	1
38	51	2
6	80	2
23	29	2
129	131	2
81	86	3
149	149	3
67	91	4
51	95	1
5	37	2
129	129	3
71	72	1
88	89	5
39	40	2
56	56	1
63	63	1
120	129	1
94	95	4
158	158	1
83	84	5
65	155	1
49	49	8
80	81	2
33	33	4
8	8	1
96	96	5
33	114	1
11	70	1
37	39	2
62	62	1
72	72	3
107	116	3
82	91	1
140	142	1
3	79	4
89	95	3
42	48	4
125	127	3
134	134	9
66	69	4
35	57	1
8	93	3
116	117	1
77	90	2
136	137	3
42	45	1
12	102	1
52	54	3
8	14	2
18	19	4
2	77	8
123	135	2
62	63	4
68	68	4
4	54	2
152	155	3
121	121	9
40	43	2
2	78	4
105	107	3
79	86	1
109	132	2
122	133	4
99	102	1
27	30	1
113	114	7
77	84	1
30	96	1
119	137	3
24	25	2
46	54	1
45	45	2
34	57	2
97	97	6
45	56	2
152	153	4
112	136	3
32	33	3
23	40	4
14	36	2
139	140	4
26	26	3
80	86	2
9	11	2
99	101	2
134	136	1
151	153	1
28	38	1
20	21	1
46	65	1
107	112	4
153	153	3
69	90	2
96	103	1
7	10	3
103	136	3
95	114	1
66	67	3
37	48	2
71	73	1
81	88	1
36	37	3
64	64	2
80	84	1
123	124	1
48	50	1
34	114	1
112	137	2
33	50	3
50	54	1
8	62	1
72	99	3
11	141	1
33	38	1
82	105	2
47	47	1
38	44	1
8	9	1
64	149	1
54	56	2
100	102	1
147	150	1
113	118	1
112	117	2
17	21	1
44	44	2
141	148	1
29	96	1
9	96	1
26	39	1
63	64	1
108	109	3
141	145	1
19	20	2
79	82	1
129	141	3
109	115	3
113	113	2
89	98	1
96	98	1
80	82	1
111	118	1
66	66	2
38	41	3
9	12	1
25	27	2
53	53	1
101	101	2
30	51	1
138	150	1
93	96	1
40	45	1
83	87	1
30	41	1
28	43	1
11	69	1
153	156	1
48	51	1
7	57	1
35	141	2
26	38	1
120	122	2
36	52	1
69	79	1
34	34	1
48	49	1
134	137	1
18	27	1
25	28	1
15	19	1
91	92	1
114	139	1
25	45	1
105	149	1
113	137	1
79	109	1
