85	95	4
0	7	2
8	9	3
87	87	4
92	92	6
94	104	2
37	43	2
9	9	11
91	95	1
36	39	4
43	47	3
45	48	9
68	68	9
36	42	5
16	17	4
87	92	4
33	33	7
82	82	9
76	78	6
103	103	5
57	57	4
45	45	2
1	3	5
106	106	4
111	112	4
80	89	2
72	77	3
84	95	3
69	70	6
98	99	1
102	104	5
112	112	9
36	38	6
80	80	14
31	33	5
97	97	7
90	93	3
66	66	16
106	110	1
69	77	3
29	30	1
2	2	6
110	110	5
2	3	11
78	78	7
111	113	6
73	73	2
95	98	1
78	79	4
41	41	3
67	76	6
73	74	5
85	85	5
14	14	8
61	61	7
23	27	1
20	21	3
64	66	3
30	31	1
17	19	7
22	27	3
104	114	7
95	101	3
115	115	6
114	114	8
111	111	12
81	82	2
97	104	3
18	18	11
105	106	2
34	39	3
95	96	13
76	76	4
34	35	1
28	28	13
91	91	6
75	75	6
109	110	4
109	113	3
74	74	8
65	69	1
71	77	6
84	84	7
32	32	7
36	36	5
94	94	8
40	42	5
34	34	4
113	113	11
76	80	2
10	13	7
43	43	2
30	41	3
105	114	2
87	93	1
114	115	4
101	101	6
7	14	6
108	109	7
44	44	4
70	75	3
106	109	2
25	26	3
83	86	5
105	113	2
21	26	4
58	59	4
91	93	3
84	85	9
95	95	13
40	41	6
35	38	9
106	111	1
19	34	2
69	69	8
54	56	2
39	39	5
85	86	6
71	71	6
44	45	6
62	63	3
113	114	7
25	30	2
68	75	2
46	55	1
24	25	2
38	38	5
80	90	2
62	62	6
43	46	1
5	5	3
79	79	5
79	83	4
1	7	4
96	96	8
38	40	5
104	113	3
3	3	3
46	54	2
27	31	1
81	81	7
107	108	4
7	7	4
106	107	4
110	113	7
13	18	4
0	2	1
72	75	1
35	35	8
0	3	1
6	6	9
86	89	1
9	15	3
68	80	2
28	72	4
22	22	5
82	87	1
108	110	1
28	35	1
88	98	5
15	18	4
27	28	1
96	101	1
70	71	8
24	29	1
63	63	10
77	84	2
107	107	10
14	15	5
70	70	3
56	56	5
70	81	1
6	8	8
4	9	3
19	21	1
86	86	8
67	77	1
45	46	4
42	43	6
38	43	1
31	31	4
98	98	3
10	10	6
100	100	6
96	98	1
38	39	1
112	113	4
50	50	1
92	93	2
78	81	4
83	84	6
17	17	2
93	94	3
0	0	10
11	12	5
47	47	7
107	109	2
93	95	7
67	82	5
14	19	2
39	74	1
73	76	1
0	1	7
4	4	2
68	74	3
75	83	1
11	11	11
103	104	2
67	80	4
86	95	4
10	12	2
67	67	9
77	77	4
25	25	2
104	109	2
109	114	2
21	34	5
1	5	3
37	40	2
30	39	1
11	14	1
98	112	1
8	14	1
105	105	5
32	33	6
83	92	5
33	34	1
21	24	2
87	100	2
83	83	2
87	90	2
93	93	3
30	30	6
22	24	3
28	33	2
94	96	1
26	33	4
79	81	6
101	102	3
51	51	3
45	58	1
80	83	2
78	80	3
97	103	6
88	97	1
109	109	6
28	36	3
24	27	4
89	96	2
102	107	3
98	102	2
16	19	3
71	72	1
23	23	1
13	13	3
7	11	7
24	24	2
17	26	1
41	42	5
81	83	1
59	59	4
80	84	2
25	29	3
94	105	1
47	50	4
17	24	2
7	12	3
108	112	1
105	110	3
102	110	1
87	88	4
96	100	2
18	19	1
61	62	2
21	23	7
101	103	2
106	112	1
98	101	1
113	115	6
12	15	6
54	58	2
66	68	1
87	95	2
59	63	5
37	42	2
111	115	2
108	111	1
92	95	2
32	36	4
11	16	3
42	42	2
70	78	2
83	89	1
92	101	1
35	39	4
11	15	7
86	87	1
77	83	1
38	41	4
90	92	3
60	60	3
63	75	1
96	102	2
112	114	4
40	43	3
44	46	3
9	10	4
90	91	5
6	9	4
5	7	4
12	12	6
30	34	2
31	34	3
81	84	5
65	75	7
104	104	7
33	35	1
97	100	3
64	64	2
91	92	3
18	22	1
60	61	3
86	92	2
102	105	1
11	18	1
70	73	3
15	15	5
92	105	2
19	32	1
65	66	1
98	104	1
108	108	1
58	66	1
108	114	3
94	95	6
32	72	1
30	40	1
67	68	4
8	12	2
37	37	3
18	20	2
37	72	3
111	114	6
28	30	2
37	41	1
91	97	1
12	16	4
88	94	1
34	36	1
101	107	1
70	80	2
3	7	2
36	70	1
39	42	3
100	107	1
101	110	2
99	102	2
78	84	2
90	96	1
42	58	2
21	21	4
78	85	1
18	23	2
94	101	3
42	48	1
64	67	3
105	107	1
92	102	3
26	29	1
68	70	2
91	107	1
59	64	1
56	60	1
15	16	3
77	82	2
68	76	2
86	90	1
68	73	1
95	97	2
80	88	1
39	40	1
91	100	2
98	103	1
93	102	1
72	74	4
30	32	1
88	91	1
59	66	2
32	34	1
19	20	1
38	58	1
83	93	1
10	14	1
63	65	1
40	44	2
49	50	2
45	47	1
15	22	2
27	29	2
76	79	1
0	5	2
63	66	2
92	97	2
66	79	1
42	44	1
43	45	1
84	92	1
4	7	2
27	27	2
21	22	1
67	78	2
55	61	1
57	59	1
11	13	2
1	1	2
25	35	1
19	19	1
71	73	1
58	60	1
20	22	1
101	111	1
63	64	2
72	72	2
89	89	2
66	76	1
67	73	1
75	80	1
105	108	2
4	5	2
79	88	2
4	11	1
64	65	1
30	74	2
44	48	1
106	108	1
103	105	1
104	110	2
24	34	1
48	49	1
7	10	1
19	31	1
60	65	1
72	73	1
4	6	1
91	110	1
59	65	1
55	55	2
2	8	2
8	16	2
7	15	2
40	45	1
94	98	1
26	28	1
12	13	2
27	41	1
77	78	1
71	75	1
8	8	1
75	86	1
66	69	1
6	10	1
57	58	1
75	82	1
48	48	1
101	105	1
81	91	1
