73	96	2
106	106	8
115	115	9
18	18	6
75	75	7
58	58	6
71	91	5
112	112	11
118	118	5
87	88	5
62	88	4
22	22	5
10	10	3
70	71	11
26	27	1
49	49	7
49	68	1
11	44	3
109	110	2
15	16	4
4	5	5
71	71	7
92	92	16
33	33	3
45	63	6
8	76	2
59	59	8
53	53	8
128	129	4
65	65	12
66	67	2
80	81	3
116	116	12
69	69	15
3	3	11
7	7	2
53	54	10
52	52	11
103	103	5
117	117	11
42	44	5
69	71	4
8	8	2
94	95	1
17	17	16
126	127	6
19	19	12
121	124	4
67	67	3
79	81	5
74	91	1
56	56	10
63	64	3
109	111	1
16	55	1
40	90	6
99	99	8
72	72	10
123	123	6
58	87	1
97	99	3
7	9	3
60	60	4
32	120	5
19	20	3
90	90	2
93	94	3
93	93	11
30	30	7
108	109	4
31	31	15
98	98	8
73	73	8
113	113	9
12	12	10
32	32	4
38	68	2
0	1	2
105	106	5
17	121	1
106	110	4
111	111	10
4	4	8
125	125	7
114	114	16
54	54	10
72	73	3
2	2	15
6	6	6
129	129	6
104	104	6
25	25	5
120	120	6
6	7	9
40	43	3
47	47	10
94	94	14
38	39	4
51	54	2
16	18	4
15	48	4
91	91	6
105	105	13
2	30	3
64	65	6
80	80	6
48	48	15
124	126	1
11	11	7
115	116	8
92	93	3
51	51	5
29	29	14
69	70	2
80	85	6
70	90	2
1	1	8
131	131	5
23	23	12
81	94	2
68	68	3
85	85	2
12	77	1
110	110	8
44	44	9
46	67	9
50	50	8
13	13	7
108	108	13
84	84	2
28	28	9
46	63	2
77	77	10
76	77	2
81	81	5
112	113	4
132	133	4
9	10	4
96	97	3
100	105	2
13	14	1
86	86	7
56	58	1
76	76	9
27	28	5
48	49	2
15	62	2
91	99	3
127	127	4
8	9	5
24	24	8
125	126	1
120	125	1
68	99	2
17	18	2
74	74	4
95	106	1
82	83	4
17	24	1
95	95	6
14	14	4
21	92	3
133	133	3
46	46	5
39	130	3
113	119	2
50	81	1
66	66	4
79	79	5
131	132	3
124	124	12
101	101	3
82	82	12
7	10	3
6	8	3
77	78	2
15	23	4
41	77	1
17	22	2
78	80	2
30	31	5
89	89	13
88	88	5
82	95	1
109	112	3
15	93	2
79	85	2
107	107	4
91	92	1
49	50	1
17	26	1
62	66	3
43	82	4
65	75	4
96	96	3
102	103	3
57	57	13
85	86	5
98	133	2
45	45	4
58	60	1
83	83	7
21	21	2
39	72	3
132	132	3
47	66	2
104	111	4
100	100	2
16	32	7
48	60	5
41	41	4
99	100	2
61	62	3
15	15	4
5	98	2
68	71	2
65	73	2
6	97	1
4	97	1
14	15	5
3	81	2
60	61	3
62	95	2
121	122	2
110	112	2
40	40	2
84	86	4
61	61	4
89	131	2
56	57	5
64	64	8
78	78	4
0	133	2
31	32	3
102	102	4
20	33	1
42	42	5
100	101	1
97	97	6
101	102	4
58	65	1
33	34	1
39	39	4
18	21	2
114	116	2
119	119	5
45	46	5
27	27	5
21	23	2
94	110	1
114	117	1
109	132	1
24	31	3
58	59	4
13	46	3
67	122	2
18	19	2
44	46	1
121	121	1
5	5	4
16	16	6
62	64	3
55	55	1
75	76	1
97	98	1
122	123	5
109	109	6
18	20	1
13	22	2
71	90	1
91	96	3
124	125	3
9	30	1
128	128	1
104	105	4
28	29	5
32	78	1
50	52	3
116	117	2
65	66	5
117	119	2
26	26	8
96	98	2
106	107	2
98	99	1
93	109	1
40	74	1
24	25	3
122	122	2
63	65	4
77	96	1
127	128	2
87	87	5
104	109	2
62	87	2
25	122	1
34	47	1
22	124	1
38	99	1
29	30	2
0	0	2
62	62	2
39	71	1
14	43	1
49	54	1
46	47	4
70	70	2
34	34	1
117	118	3
11	45	1
16	21	5
3	21	1
114	115	3
38	90	2
70	73	1
103	108	1
111	118	1
109	125	1
38	48	2
43	43	3
79	80	2
108	120	1
61	76	2
41	90	3
67	70	1
49	62	1
111	113	1
125	127	1
22	23	1
5	6	1
82	84	2
119	127	1
1	125	1
86	87	1
6	33	2
121	123	2
89	90	1
64	67	1
95	101	1
25	121	1
21	22	1
87	101	1
126	126	1
118	119	1
51	52	1
16	59	1
17	25	1
5	97	1
101	105	1
32	79	1
68	98	1
