130	130	1
11	11	16
87	94	3
68	68	9
19	19	11
99	106	1
65	68	2
94	104	2
27	27	7
58	58	4
78	78	7
93	94	5
8	8	7
27	28	4
34	35	3
121	122	4
27	38	4
124	124	13
81	81	9
5	11	3
43	45	4
5	5	6
28	28	8
19	21	1
74	74	9
49	49	6
85	93	5
131	131	5
112	112	6
106	106	4
16	24	3
77	77	10
35	35	4
66	83	5
72	72	5
116	116	13
58	59	5
4	9	3
86	89	3
94	94	5
113	121	2
67	69	3
129	130	1
94	97	7
120	121	2
85	85	5
121	125	12
60	67	1
80	80	7
98	99	1
18	18	3
79	80	4
83	84	1
55	55	7
104	105	2
129	129	3
12	82	3
124	129	2
43	106	2
122	123	3
100	101	12
122	129	6
52	52	8
71	71	12
78	79	13
1	4	3
108	129	2
91	93	3
66	66	3
2	2	9
99	101	6
90	90	13
67	67	5
0	0	9
78	88	5
62	62	4
98	98	7
96	99	1
49	59	6
80	81	1
38	38	4
53	55	2
44	44	7
79	79	4
122	124	1
97	97	5
24	27	6
54	54	4
69	79	1
98	103	1
45	45	4
101	102	2
125	125	5
126	126	4
50	129	2
68	83	4
87	90	4
108	108	2
22	22	2
102	102	4
24	130	2
8	126	7
90	92	2
65	65	5
110	110	4
84	84	5
47	47	3
105	105	8
10	11	5
115	116	2
55	57	1
53	53	14
72	91	5
57	57	4
87	87	10
59	59	5
55	56	1
36	36	3
9	26	5
100	129	2
72	73	1
59	79	6
62	84	4
117	117	1
56	56	6
91	91	9
87	88	3
118	118	6
60	61	3
104	104	9
57	62	3
9	9	6
18	28	2
43	52	2
6	6	3
34	34	10
6	126	2
126	127	3
83	83	5
101	101	8
95	95	5
96	96	4
56	74	2
13	14	3
69	74	1
132	132	8
55	59	1
121	123	2
86	96	5
43	44	2
120	120	2
65	67	2
61	61	1
23	25	5
57	85	5
131	134	4
85	95	3
31	31	6
15	15	3
60	74	2
63	63	6
120	122	5
42	52	3
85	106	3
59	69	2
93	108	2
16	23	5
131	135	3
92	103	3
23	23	8
61	65	2
4	4	10
60	85	3
87	95	1
98	102	1
63	65	1
24	25	3
107	122	1
88	88	2
103	103	1
31	32	2
123	123	6
133	133	3
3	4	4
93	93	6
109	129	1
7	11	3
86	91	1
110	128	1
121	121	3
32	32	2
85	86	1
69	70	4
109	115	3
10	10	3
114	115	3
30	30	8
113	113	1
93	97	5
91	100	5
25	25	6
23	32	2
20	20	6
117	119	2
73	73	9
71	76	3
33	33	9
73	74	7
47	103	2
111	116	1
111	111	3
12	14	1
122	122	5
8	79	1
37	37	1
62	80	1
60	60	1
4	21	1
75	75	6
64	78	3
94	101	2
124	130	1
31	86	1
21	38	2
87	97	2
67	68	1
16	16	7
71	73	1
63	82	2
21	37	3
87	99	1
21	23	2
71	80	2
116	118	2
6	7	4
99	99	6
13	13	3
50	50	1
127	127	7
127	129	3
116	117	2
87	96	3
17	17	1
56	57	1
114	114	4
125	128	1
76	76	3
64	64	5
48	128	1
21	21	5
107	107	1
50	52	1
19	23	1
43	50	4
7	7	7
24	108	1
119	119	2
16	19	3
49	108	1
128	129	2
94	98	2
17	22	2
42	43	3
99	100	2
17	29	1
30	31	5
92	92	4
26	26	3
110	111	1
113	114	3
43	43	2
61	68	2
20	23	1
128	128	5
70	92	1
135	135	2
108	110	1
97	102	2
20	28	1
74	103	1
77	88	5
95	98	4
56	63	2
84	85	2
115	115	2
59	60	1
14	14	2
67	80	4
55	68	1
12	12	5
62	66	1
100	132	1
44	49	2
26	28	2
16	28	1
91	92	1
7	14	1
57	58	1
110	127	3
3	33	2
50	53	1
92	104	1
19	37	3
66	82	2
49	52	2
106	107	1
47	49	1
1	15	1
23	31	1
88	96	1
44	47	1
3	26	1
134	134	1
100	103	3
5	35	5
5	6	5
128	132	1
6	9	2
124	125	1
82	83	1
8	109	1
99	115	1
119	120	1
120	124	1
86	93	1
8	9	2
3	36	1
92	93	1
110	112	1
70	72	1
20	30	1
82	82	5
117	134	1
119	121	1
100	113	2
60	63	1
108	109	1
20	21	2
53	69	1
81	82	2
112	113	1
26	32	1
36	37	1
69	69	2
21	35	2
44	58	1
1	13	1
89	89	2
24	24	3
106	129	1
2	37	1
32	33	1
60	62	2
52	98	2
0	33	1
5	20	1
103	104	1
61	84	1
7	8	2
109	109	4
77	78	2
18	30	1
1	1	2
6	11	2
99	107	1
68	106	1
106	133	1
82	84	1
11	12	1
70	70	1
85	103	1
8	78	1
126	128	2
90	94	1
102	103	1
12	13	1
113	118	1
15	17	1
5	81	1
79	82	1
98	105	1
97	98	2
61	64	1
29	29	1
25	31	1
111	112	1
86	86	2
64	65	1
13	15	1
108	117	1
33	35	1
73	76	1
117	133	1
106	117	1
95	106	1
109	125	1
32	92	1
54	63	1
16	17	1
