11	12	2
23	23	9
23	51	6
122	124	4
13	14	3
72	73	3
111	111	6
13	13	7
45	47	4
64	95	2
99	99	7
107	107	6
53	53	7
91	92	12
5	6	4
44	44	4
94	95	2
61	61	6
95	95	3
15	15	6
68	86	2
50	50	3
115	115	7
52	52	7
43	43	6
10	34	3
101	104	3
46	49	4
93	93	4
116	125	3
49	49	17
25	25	5
76	76	9
81	81	3
38	39	1
5	5	8
4	5	13
3	3	2
34	34	1
41	42	15
83	83	1
20	22	2
66	68	7
92	92	5
27	27	7
75	77	2
127	129	3
18	18	3
90	90	6
101	101	4
42	111	4
15	33	3
78	78	8
120	131	2
111	114	4
0	2	2
40	40	5
69	73	2
47	47	1
2	3	1
61	67	2
85	86	2
111	112	2
23	49	3
51	53	2
117	117	1
97	97	2
66	72	3
30	30	6
79	79	6
106	107	4
7	8	2
107	110	2
125	125	3
0	0	5
18	49	2
8	11	1
79	84	4
129	129	7
126	126	8
77	77	5
118	125	1
18	21	2
86	95	3
70	70	3
116	116	6
113	113	6
54	54	6
57	59	2
78	127	1
132	132	4
60	62	4
126	130	2
26	26	8
108	108	3
107	108	3
17	17	4
89	91	1
48	114	1
113	117	4
128	129	4
16	16	4
51	51	6
69	72	2
4	4	18
81	88	2
8	8	12
2	5	2
14	15	1
62	62	4
55	59	1
17	53	6
110	111	1
94	94	6
6	6	1
40	42	2
63	63	9
83	86	4
109	109	9
43	44	5
55	55	4
12	54	4
88	88	4
53	56	3
69	69	6
127	128	2
121	122	1
112	113	3
15	16	1
82	86	1
10	10	3
39	39	8
59	68	1
79	82	5
99	127	1
124	125	2
67	71	3
18	19	4
28	29	1
14	16	6
6	46	4
101	133	1
120	122	4
86	87	7
124	124	5
88	91	4
105	105	4
98	98	4
22	22	6
84	85	4
118	118	8
71	72	4
87	87	2
129	132	5
49	114	2
110	110	3
59	59	1
42	43	4
87	132	1
87	131	1
2	8	4
103	103	4
42	42	1
66	66	4
106	120	2
1	8	4
29	30	1
106	106	4
12	13	1
65	66	1
73	74	4
70	71	3
108	109	1
123	132	1
48	54	4
51	52	4
17	118	2
90	91	3
73	73	6
43	47	3
72	75	1
95	96	2
25	47	3
9	9	1
85	85	8
31	33	2
65	75	3
78	80	1
60	63	3
122	122	3
44	56	2
38	38	3
126	131	2
100	100	3
10	13	3
98	100	3
53	54	4
52	62	4
75	75	7
81	87	1
89	90	3
128	128	5
101	102	1
124	130	6
66	67	3
76	97	4
33	33	1
1	1	2
128	131	2
18	20	3
131	131	2
26	30	2
130	130	2
45	45	5
57	57	2
123	123	2
66	70	2
7	7	2
127	130	1
62	64	4
8	9	1
102	103	3
114	114	4
108	128	2
82	102	3
26	45	1
26	29	2
25	28	2
50	51	3
76	77	5
40	44	3
127	127	3
124	126	3
26	28	2
47	48	4
83	85	1
19	19	3
87	97	1
130	133	1
56	57	3
54	65	1
103	109	2
41	48	2
96	96	2
9	25	1
47	101	2
1	2	4
119	119	4
59	63	3
65	65	1
52	104	1
108	110	3
109	111	3
52	54	3
46	47	1
28	28	1
74	74	3
29	95	2
71	71	3
118	119	2
64	64	2
71	74	1
95	101	1
67	68	1
91	91	3
70	73	1
46	57	2
91	93	1
10	12	1
17	85	1
131	132	2
55	57	1
59	65	1
52	53	1
74	77	2
31	32	1
31	87	1
0	42	1
74	97	1
133	133	1
0	41	1
112	112	2
1	31	3
29	29	1
130	131	3
39	41	1
89	93	2
102	102	3
54	62	1
59	66	1
21	22	2
53	57	1
25	29	1
59	62	1
100	101	1
61	62	1
82	105	1
18	85	1
19	22	1
24	24	2
119	131	1
11	11	1
94	101	1
54	55	1
120	121	1
16	21	1
78	79	1
10	116	1
48	48	1
126	128	1
32	32	1
88	89	1
64	65	1
9	11	1
106	116	1
59	70	1
21	21	1
