30	30	9
116	116	10
117	117	8
75	77	5
65	66	7
63	63	8
93	93	4
72	73	3
41	44	4
48	48	8
72	72	2
15	15	10
80	80	11
2	2	13
107	107	11
118	125	2
5	5	7
33	33	14
58	58	15
119	119	9
0	32	2
100	102	3
47	47	11
113	113	3
34	120	4
11	11	10
40	41	7
51	52	5
63	81	2
61	62	3
94	95	5
83	84	2
42	42	3
7	8	1
81	81	15
77	77	5
24	24	5
105	105	6
123	123	6
12	12	12
49	49	11
106	106	7
87	87	9
71	71	5
104	104	9
122	122	11
29	30	3
68	68	3
121	121	8
127	127	6
41	41	11
23	23	11
20	20	6
94	94	7
57	57	6
54	54	9
67	67	17
3	3	6
78	78	13
76	90	1
4	24	1
125	125	8
86	86	5
91	91	7
126	126	8
119	125	1
19	19	5
84	84	3
105	106	4
56	57	4
111	111	7
114	114	6
46	47	5
95	121	3
17	19	2
50	50	6
102	102	7
105	110	3
7	7	1
45	46	5
101	101	5
27	28	2
51	51	5
44	44	2
131	132	4
46	55	1
124	124	7
4	26	5
11	13	7
7	13	3
56	56	6
95	95	6
25	26	1
27	27	4
45	45	4
15	16	1
81	83	2
52	52	6
81	82	2
82	82	2
87	88	3
130	130	2
13	13	1
1	1	9
75	75	9
77	78	4
6	7	5
10	10	7
60	60	6
70	70	11
76	76	11
34	34	2
30	125	1
40	40	4
120	126	1
22	22	9
46	46	6
23	26	1
120	120	6
76	77	3
6	24	1
4	4	9
43	43	1
17	18	1
115	115	4
58	59	1
96	96	6
6	6	7
19	20	2
4	23	3
29	29	2
99	100	1
18	18	6
88	88	4
108	108	2
24	58	3
123	124	3
112	112	5
92	92	3
16	16	6
21	21	3
4	5	4
39	39	3
99	99	10
73	73	6
17	17	4
108	109	5
27	64	1
128	128	7
85	122	2
110	110	4
3	4	2
23	58	3
111	112	2
14	15	1
38	38	2
120	125	2
66	66	1
24	55	1
97	97	7
63	72	2
19	85	1
44	46	1
31	31	8
8	8	1
62	122	1
119	124	1
1	30	2
59	59	7
5	20	3
79	79	8
0	0	4
116	117	1
60	122	2
132	132	1
28	28	4
63	64	2
90	90	3
133	133	1
52	105	1
30	71	2
42	43	3
61	61	5
67	72	2
62	88	1
55	55	4
32	32	1
18	20	2
85	85	4
103	104	2
84	125	1
97	98	1
79	80	2
118	118	1
1	8	4
98	98	3
130	131	1
91	92	3
14	14	5
119	121	1
43	56	2
73	74	1
115	116	3
14	32	2
59	60	1
117	119	1
68	69	2
69	69	1
25	25	3
9	117	1
29	125	1
22	23	1
9	9	6
83	83	1
100	100	2
128	129	1
39	40	1
67	69	1
20	21	1
126	127	2
96	98	1
104	105	1
42	57	1
42	44	1
77	91	2
110	111	1
84	85	1
10	116	2
12	13	1
27	84	1
117	118	2
10	11	1
2	9	1
65	65	1
106	123	1
103	103	1
5	6	2
50	54	1
44	45	1
53	53	1
114	115	2
25	58	1
116	120	1
0	1	2
78	79	2
16	17	1
82	84	1
58	60	1
57	58	1
4	87	1
26	26	1
67	68	1
30	70	1
61	90	1
46	56	2
64	64	1
65	81	1
89	89	1
