11	11	6
127	127	10
28	29	2
130	130	4
116	116	5
113	114	1
128	128	4
35	35	8
132	133	4
42	42	6
47	47	3
101	101	6
31	31	3
6	6	3
78	78	5
46	46	3
13	13	1
74	85	3
111	111	13
115	115	6
72	118	2
44	44	3
113	116	2
109	109	1
92	92	5
73	74	4
20	21	2
105	105	8
18	18	4
17	17	6
66	66	4
119	119	12
91	92	4
6	8	2
36	40	4
37	103	4
88	99	3
97	98	1
6	7	4
45	45	4
93	120	2
68	68	3
107	107	7
75	76	4
94	94	2
7	7	1
87	88	1
32	32	7
59	60	1
23	23	8
85	85	3
22	22	7
122	122	4
112	112	6
32	33	2
15	16	3
36	103	4
128	129	5
108	110	1
87	87	4
69	69	4
2	23	4
76	76	6
56	105	2
126	127	2
56	56	5
83	84	3
17	24	4
63	64	5
7	24	1
110	110	4
99	99	4
4	5	1
15	15	8
98	98	3
73	75	1
24	24	3
69	119	3
93	93	3
121	123	1
121	131	4
74	74	10
73	73	8
121	122	2
83	83	4
55	55	2
30	30	4
37	41	1
99	100	4
78	79	3
125	125	6
104	104	4
129	130	1
117	117	4
15	39	4
29	29	10
130	131	2
36	37	4
41	42	4
13	17	3
14	26	2
126	126	3
37	38	2
113	113	3
20	20	5
25	25	1
67	72	2
94	95	3
0	0	1
100	100	2
58	59	2
134	134	4
105	107	3
71	71	2
79	79	13
104	106	1
109	133	1
21	21	6
64	64	3
19	19	8
101	102	1
29	49	1
43	43	1
82	83	1
123	123	1
108	109	2
57	72	1
90	90	8
64	65	2
112	113	1
9	9	1
36	43	2
67	67	4
65	65	1
133	133	4
86	86	1
33	33	4
118	118	3
36	44	3
31	32	1
27	29	3
48	49	1
117	118	2
20	22	1
129	129	4
22	23	2
10	10	6
107	108	1
84	84	1
95	95	2
82	82	1
96	96	3
26	26	2
17	18	1
38	38	3
2	2	1
132	132	2
15	26	2
37	59	1
15	25	1
54	55	1
41	41	4
5	8	1
79	80	1
97	97	3
8	9	1
40	40	1
27	27	2
70	119	1
101	110	2
19	21	1
68	77	1
108	108	1
8	8	2
13	24	1
104	105	1
60	60	1
39	43	1
70	76	2
77	78	1
85	95	3
12	12	3
23	25	2
45	46	1
62	62	4
41	43	1
33	34	1
36	87	2
102	102	1
3	4	1
75	75	1
106	106	1
63	63	1
67	70	1
67	73	3
59	59	2
124	124	1
84	87	1
19	20	2
130	133	1
92	122	1
120	120	1
2	19	1
89	89	1
16	16	1
0	20	1
81	81	1
72	72	2
8	12	1
86	100	1
30	39	1
76	77	1
2	3	1
3	3	1
101	103	1
36	36	1
29	30	1
