38	43	2
68	68	4
26	28	1
80	80	6
115	127	2
71	72	3
113	113	5
68	89	2
74	74	3
29	29	6
65	65	8
71	71	9
75	78	1
59	59	3
53	70	2
86	89	3
19	30	3
94	99	2
18	18	4
2	20	2
74	75	1
115	116	6
81	85	2
40	69	1
28	58	3
51	83	1
80	91	1
129	130	5
97	99	3
68	88	9
101	107	3
126	127	2
81	94	1
127	130	2
115	115	8
88	88	11
89	98	4
83	83	4
42	58	2
81	81	5
62	72	6
52	56	1
80	81	2
130	130	4
4	20	3
53	86	2
39	79	2
97	97	10
7	7	5
38	38	7
40	40	6
124	124	6
98	98	2
6	6	2
67	68	6
90	90	11
58	74	7
49	49	4
4	5	7
12	13	2
8	10	2
87	102	1
41	41	5
58	58	2
44	60	2
111	111	3
77	77	2
93	107	6
54	59	1
109	109	9
2	2	10
92	92	8
79	80	3
62	64	3
95	98	6
70	85	3
133	133	4
110	110	7
11	11	5
40	55	5
91	93	2
30	30	1
83	84	7
5	5	8
126	126	7
0	10	2
55	64	2
111	125	1
116	129	5
107	121	4
131	132	3
89	89	4
13	18	3
2	16	2
4	4	8
20	20	20
95	96	4
54	54	7
85	85	5
93	95	1
111	124	2
82	82	1
120	122	2
27	27	3
52	52	7
27	29	3
23	24	1
88	89	4
9	12	8
23	25	3
53	78	3
22	24	3
116	116	4
57	57	4
28	30	1
108	108	1
33	46	4
125	126	1
77	78	3
42	42	4
33	33	5
117	117	8
62	65	2
48	59	1
81	82	2
76	77	4
1	4	4
107	117	4
72	84	7
61	61	2
19	19	4
1	1	2
85	106	2
123	123	2
93	93	4
26	26	2
75	75	8
26	38	1
100	105	8
96	98	3
100	102	4
48	54	2
2	5	2
24	29	4
87	87	5
117	121	2
56	56	7
26	27	6
0	1	2
45	74	2
131	131	10
23	29	1
127	127	4
68	102	1
5	31	3
11	12	1
105	124	1
56	57	6
53	53	4
116	125	4
54	55	3
20	21	6
46	76	2
39	72	4
53	82	3
42	43	4
68	87	4
53	79	1
76	76	7
54	65	2
24	48	2
91	91	7
109	110	3
96	96	3
16	17	3
93	94	1
0	33	3
63	91	1
39	42	1
25	25	4
57	123	1
6	10	2
120	124	1
54	58	2
70	87	2
116	117	1
53	74	3
27	42	1
128	128	3
45	59	3
75	76	1
67	67	7
95	114	2
65	66	1
124	125	2
111	112	3
72	95	1
107	119	3
130	132	3
101	101	4
39	69	1
94	94	2
119	119	8
60	74	2
107	107	4
12	25	1
93	96	4
53	54	4
73	73	2
32	32	4
39	54	1
55	71	1
51	75	2
45	45	2
29	30	5
3	3	3
14	42	3
115	128	1
17	17	6
105	105	6
72	97	2
78	78	3
55	57	4
12	12	4
78	79	2
72	72	4
15	15	6
104	104	2
23	34	3
28	28	1
69	69	5
121	121	3
32	49	2
107	125	4
67	86	2
117	118	3
1	23	2
87	105	1
49	108	2
95	95	2
63	63	6
20	22	2
126	129	1
62	62	3
86	86	5
27	50	1
127	128	4
97	115	3
100	100	2
60	75	3
99	100	1
8	8	2
101	104	1
73	83	1
91	112	2
49	50	2
11	17	2
31	31	2
55	82	1
13	13	1
21	45	2
98	99	1
41	42	1
103	103	1
60	84	1
114	128	2
118	118	5
125	125	6
56	62	1
20	33	1
96	97	1
120	120	2
53	59	1
86	87	1
49	64	1
76	84	1
0	49	2
70	89	3
38	44	3
94	106	1
39	41	1
44	66	1
10	10	2
40	66	1
24	26	2
106	106	2
0	0	3
81	102	1
59	62	1
64	79	1
65	90	1
51	51	2
118	120	1
127	131	1
4	15	1
12	20	1
9	10	3
34	34	2
39	66	1
48	48	3
85	88	2
110	121	1
69	70	1
11	43	2
46	46	4
53	65	5
113	129	2
42	51	4
81	84	1
56	81	1
62	70	3
9	9	1
21	21	1
25	26	1
52	53	1
49	69	1
63	80	1
132	133	1
38	39	2
125	132	1
105	121	1
101	102	1
118	119	1
56	58	1
59	74	1
6	22	2
110	115	1
94	98	2
84	84	1
28	54	1
129	132	1
12	21	1
112	131	1
84	94	1
50	50	1
43	66	1
107	111	1
73	84	1
85	90	1
68	79	1
39	40	1
128	131	1
112	112	1
114	130	1
61	75	1
114	114	1
3	4	1
128	132	1
82	110	1
81	83	2
39	39	1
83	93	1
90	96	1
6	26	1
102	102	1
120	121	1
