182	182	9
135	135	1
103	103	3
83	83	8
119	119	4
24	24	10
183	183	1
76	76	3
116	120	5
144	144	6
95	129	1
35	35	8
40	41	1
109	109	13
25	35	2
5	6	4
84	84	6
160	160	7
78	78	9
177	177	20
6	6	11
172	172	13
91	91	8
161	161	3
154	154	14
15	121	2
81	81	5
87	109	4
95	95	10
155	155	7
33	33	6
159	160	9
116	116	10
75	75	15
41	47	1
87	88	3
163	163	4
58	58	4
89	89	8
121	170	2
14	28	1
58	146	1
98	98	4
82	82	15
14	14	11
85	85	5
179	180	2
177	179	3
16	120	2
109	166	7
5	30	3
22	151	1
94	95	3
80	160	9
44	44	6
43	48	1
131	131	9
146	148	3
19	19	9
104	104	11
139	139	4
1	2	5
59	59	10
128	149	7
1	83	1
148	148	10
65	66	5
108	108	7
64	64	17
138	143	7
34	34	5
126	126	7
124	124	7
34	35	1
175	175	4
89	99	1
71	71	5
173	181	1
169	169	13
138	138	5
16	20	3
82	110	1
146	146	8
47	47	3
131	134	4
173	175	6
123	123	3
111	153	2
24	28	3
14	16	3
70	70	4
99	99	4
67	67	1
15	15	2
169	170	3
145	145	12
7	24	2
79	167	3
55	55	5
93	93	6
113	113	4
181	183	2
86	86	8
63	143	2
28	28	9
77	99	1
122	123	3
26	26	15
174	174	5
183	187	3
115	115	8
106	106	7
115	151	4
110	110	6
18	43	2
120	120	7
101	113	2
8	15	2
11	11	3
188	188	7
114	171	5
41	41	7
125	125	13
94	154	4
104	105	3
60	60	4
2	2	6
18	18	13
66	66	6
39	39	4
161	162	6
107	107	8
10	10	5
174	176	2
66	67	6
70	131	6
115	116	2
158	158	7
20	20	14
58	59	8
100	100	2
38	39	3
145	185	6
70	73	3
48	48	2
102	165	4
21	21	7
76	102	4
0	0	3
176	176	3
74	74	3
124	131	4
46	46	6
159	159	8
15	35	1
36	44	1
63	63	8
114	154	1
90	120	4
65	65	5
186	186	3
62	114	3
52	101	3
167	168	1
54	54	5
129	146	2
184	184	8
44	46	2
155	167	3
132	133	1
83	157	1
32	34	1
8	8	4
98	99	1
77	92	3
90	90	2
99	137	6
15	77	2
21	23	3
117	117	5
181	181	5
167	169	1
57	58	2
17	17	3
16	16	4
164	164	3
52	52	1
3	5	2
128	150	2
127	148	1
5	90	1
53	56	2
94	127	1
94	94	4
41	48	5
106	179	7
111	111	6
6	97	2
72	72	3
116	133	3
17	91	2
147	147	3
96	100	3
171	171	2
26	37	2
25	25	2
80	80	1
155	170	4
63	68	3
32	32	2
134	149	3
56	56	11
40	40	3
36	37	8
122	125	4
153	155	1
76	83	1
21	22	4
75	163	3
101	101	6
13	13	1
153	153	7
101	104	2
77	151	2
117	118	1
189	189	2
179	179	1
189	190	1
19	31	2
147	149	1
16	17	2
144	182	2
166	166	3
127	128	1
34	63	2
104	106	2
5	15	1
92	93	2
150	150	4
8	9	3
146	147	5
128	128	3
19	32	1
187	188	6
117	138	2
6	7	5
53	112	1
151	151	4
30	35	5
22	22	10
92	138	2
177	181	4
156	156	11
185	188	3
10	38	1
152	152	5
160	163	5
117	182	1
30	30	1
87	87	2
40	48	2
117	176	3
59	146	2
181	182	2
164	165	3
120	153	1
88	99	1
114	172	1
27	28	1
100	129	1
118	135	1
9	54	2
58	60	2
1	10	1
95	111	2
95	128	2
96	96	9
36	36	1
79	79	3
12	12	4
105	105	4
171	172	2
72	93	1
133	133	3
118	118	3
65	143	2
156	157	1
110	111	1
9	9	2
172	173	3
78	79	4
165	165	1
22	24	1
30	31	2
185	185	7
18	20	2
29	29	5
90	152	2
90	91	1
107	108	2
142	143	1
175	180	2
55	56	1
48	70	2
62	62	2
136	136	2
126	150	1
48	68	2
187	187	1
39	76	1
78	81	2
77	77	6
170	175	3
67	86	1
124	125	3
12	32	1
30	32	1
143	178	1
37	37	3
140	140	3
173	173	3
85	124	4
165	166	1
172	175	1
161	173	1
149	149	1
184	187	8
130	133	3
178	178	3
185	189	1
39	40	6
157	157	4
73	117	1
115	176	2
102	102	4
168	168	3
69	70	5
99	100	1
101	103	2
17	68	1
3	64	2
141	141	4
88	88	6
31	31	3
5	5	2
62	123	2
23	23	2
115	177	1
54	55	1
151	152	5
142	142	3
166	167	1
132	132	2
108	110	1
73	73	1
53	53	1
87	165	2
106	107	1
27	32	3
94	189	1
134	137	1
57	57	2
120	154	1
92	96	1
149	186	1
80	120	1
3	115	3
102	125	1
116	187	2
122	122	2
188	190	3
61	61	1
38	38	3
76	103	3
161	163	5
80	150	2
184	186	2
190	190	7
95	167	2
15	150	1
125	149	1
91	151	2
140	141	2
4	82	3
0	52	2
70	132	2
77	83	3
130	173	1
69	69	1
122	176	1
97	98	3
71	119	1
45	45	5
89	97	1
97	97	4
109	130	1
129	129	1
178	179	1
17	70	1
162	164	1
112	112	1
176	177	4
139	181	3
28	29	1
33	48	2
176	189	1
4	6	1
175	190	1
114	177	1
7	120	1
13	54	1
109	110	2
19	20	1
58	113	1
94	137	1
114	114	1
183	190	2
7	9	1
13	36	2
184	185	1
13	31	2
34	36	1
14	15	2
118	121	2
116	176	2
53	135	2
71	117	1
95	152	1
168	169	1
100	179	1
153	182	3
47	48	1
20	25	1
131	147	1
115	142	1
154	169	1
67	148	1
86	122	1
33	34	1
22	76	1
1	151	1
0	10	1
80	83	2
66	70	1
151	164	1
166	169	1
143	147	2
130	188	1
33	116	1
27	30	1
113	128	1
187	189	1
170	170	1
138	139	1
75	82	1
121	126	1
8	40	1
74	94	1
16	92	1
143	185	1
11	21	1
80	167	1
25	31	1
167	174	1
72	75	1
160	169	1
154	157	1
65	142	1
159	162	1
137	152	1
77	91	1
152	153	1
