38	38	11
9	9	10
105	108	4
139	139	10
74	74	10
19	19	6
132	132	4
18	19	5
95	95	11
108	108	6
118	118	2
102	102	1
87	87	18
139	140	4
12	32	1
120	122	2
119	119	5
74	103	3
20	21	3
94	94	6
128	129	4
28	29	2
98	99	4
114	115	2
83	91	3
96	96	8
98	98	8
110	110	6
30	30	6
124	124	8
129	129	6
81	81	5
28	28	11
78	78	5
36	71	1
80	106	2
80	123	5
136	136	9
5	5	4
11	106	1
126	126	9
14	14	1
114	114	7
8	8	6
115	115	9
6	6	4
75	75	9
27	27	2
109	109	2
74	75	2
35	44	2
118	119	1
95	96	1
2	31	4
112	122	5
3	3	3
37	38	3
26	26	3
89	89	1
25	25	7
26	27	4
100	100	12
103	103	4
124	125	2
0	98	2
131	132	2
121	122	2
101	102	4
3	4	3
96	98	4
35	35	17
36	36	8
34	34	14
134	134	9
136	138	1
133	134	2
20	20	2
133	133	6
93	95	1
21	21	11
24	26	1
92	92	2
80	82	3
82	82	4
126	127	3
37	37	6
34	38	2
6	7	2
86	86	3
12	12	3
128	128	10
80	80	2
83	85	1
1	1	4
111	111	5
7	7	4
33	33	4
127	128	3
80	105	2
91	91	2
104	106	4
28	30	9
18	18	10
131	131	4
127	127	5
129	130	2
9	12	2
77	77	1
123	123	11
89	120	3
35	99	1
2	2	4
72	72	8
111	117	1
73	73	3
83	88	4
29	29	1
71	72	3
83	84	1
103	104	1
116	116	4
72	73	1
84	90	2
32	71	2
10	11	2
3	108	1
32	32	3
4	4	4
18	75	1
75	104	2
92	94	1
72	115	3
115	116	2
93	93	2
81	86	2
13	13	6
31	31	1
27	29	2
82	86	1
84	84	1
24	25	4
105	105	2
126	128	1
21	29	1
36	37	1
1	2	1
0	124	3
25	26	2
71	71	1
7	29	1
112	112	3
106	106	1
8	24	1
16	16	1
108	110	2
107	107	1
76	76	3
11	11	1
86	88	2
14	15	1
19	70	1
89	123	1
19	33	1
122	122	1
24	24	1
137	137	2
101	101	1
138	138	1
87	120	1
99	100	2
17	74	2
107	108	1
113	113	1
4	32	1
107	123	2
23	23	1
4	5	1
17	18	1
90	91	1
15	15	1
21	22	1
30	32	1
80	116	1
121	121	1
5	32	1
10	10	1
108	109	1
17	17	1
83	90	2
100	102	1
112	113	1
23	26	1
33	34	1
88	119	1
79	79	2
8	12	1
15	20	1
