125	125	10
51	51	9
65	65	4
143	144	1
108	108	4
96	96	4
144	144	13
85	85	6
28	28	3
16	18	3
142	142	9
138	138	13
97	97	16
24	25	3
128	129	3
126	129	5
124	124	11
130	130	8
1	1	8
99	99	6
30	30	11
66	66	6
57	58	5
53	62	4
87	88	5
29	40	6
122	122	8
54	54	4
49	49	5
103	127	5
66	67	4
23	51	6
52	52	4
67	67	3
38	38	11
112	137	3
89	89	2
31	31	3
42	42	7
28	29	2
41	41	7
92	96	2
29	29	9
123	123	3
79	79	6
107	107	5
63	63	1
119	119	12
36	40	2
73	73	9
72	72	7
59	59	6
19	19	9
126	130	1
110	110	7
58	58	8
93	93	2
135	136	4
32	32	4
4	4	7
84	84	6
105	105	3
22	28	4
110	111	4
76	77	2
28	40	5
76	76	3
75	81	3
95	97	5
53	61	1
136	136	8
11	11	4
137	138	2
56	56	4
145	145	8
20	20	3
12	12	3
54	55	4
83	83	6
16	16	4
137	137	7
133	133	10
126	126	4
55	55	8
81	81	9
82	83	2
60	60	3
25	35	2
20	28	4
142	144	3
6	6	4
27	27	6
90	129	5
50	50	7
80	82	3
14	14	7
134	134	1
131	131	13
40	40	5
99	100	3
126	127	2
141	141	12
55	61	6
25	25	7
121	121	3
8	8	6
69	74	1
99	101	3
35	35	4
132	132	9
87	87	3
80	118	5
13	13	5
110	112	2
1	10	2
104	105	5
92	93	7
20	21	6
22	25	2
113	113	4
108	110	3
0	13	1
103	103	3
23	23	5
18	18	5
114	116	1
124	125	6
2	2	5
78	79	3
126	131	4
88	88	5
15	15	7
100	101	5
53	53	2
80	81	3
9	9	4
115	116	2
18	19	1
115	115	5
87	89	2
5	5	3
79	80	1
17	21	1
76	79	1
107	111	3
135	135	2
131	132	1
69	69	4
140	140	3
80	80	2
101	101	2
118	118	1
9	89	2
59	60	5
72	73	2
0	0	2
29	30	1
10	10	7
90	91	3
57	57	4
34	34	3
109	120	1
17	17	1
61	61	3
18	26	2
97	98	4
88	90	1
22	22	5
146	146	4
32	34	3
68	69	3
17	22	1
12	22	1
56	60	2
67	81	2
120	120	5
64	65	1
104	104	6
51	62	1
129	129	3
118	119	2
142	143	1
92	92	2
106	106	6
39	39	2
134	135	1
137	139	3
75	82	1
112	112	1
35	50	1
116	117	6
55	56	5
48	48	5
38	39	4
105	106	3
103	133	3
139	139	2
117	117	3
94	94	1
111	111	1
70	70	2
105	107	1
33	34	2
81	86	1
67	68	2
4	5	1
101	102	7
31	32	4
67	84	2
91	101	1
95	95	3
41	42	2
68	68	3
116	116	7
100	100	1
17	19	4
139	140	2
125	127	2
49	50	2
62	62	3
54	72	3
108	109	2
65	66	5
20	27	1
92	95	3
19	20	3
33	33	4
75	75	5
109	110	2
26	26	1
87	91	1
123	124	1
81	82	1
37	39	3
43	43	2
30	31	1
32	33	1
58	59	3
102	130	2
92	94	2
8	68	1
90	90	2
78	78	1
132	133	1
104	132	1
9	68	1
54	59	1
36	49	1
102	103	1
30	42	1
37	49	2
127	127	1
109	109	2
133	134	2
14	16	1
144	145	1
64	64	1
3	3	1
71	71	1
76	80	1
37	38	1
88	89	2
14	15	2
122	123	1
99	104	1
51	52	1
50	53	1
61	62	1
47	48	1
