56	56	2
150	150	3
153	153	7
124	125	3
112	133	5
114	114	5
81	81	1
16	17	1
158	158	7
102	102	2
134	134	6
117	155	2
118	119	2
169	169	8
144	144	1
154	154	11
149	149	3
11	39	1
136	136	2
120	120	2
156	156	2
10	10	5
90	90	1
7	7	4
88	88	1
79	79	6
103	104	3
147	147	4
5	70	2
6	7	12
96	96	4
1	2	4
163	163	2
154	156	2
20	20	2
48	48	7
71	84	4
77	77	6
131	131	3
97	97	7
118	126	7
17	37	1
112	112	5
66	66	3
148	148	3
13	13	4
18	21	4
42	43	2
64	66	4
45	45	6
94	122	3
23	25	3
23	24	2
52	53	2
151	151	4
164	164	7
83	83	2
10	11	2
57	62	3
163	164	2
91	92	3
8	8	2
98	99	1
0	1	4
84	84	6
3	3	5
104	104	3
14	14	5
37	37	7
131	134	2
116	116	3
155	155	13
138	148	4
107	107	3
15	15	4
49	50	1
87	88	2
75	75	2
23	77	1
41	41	8
87	87	4
143	143	7
47	47	5
116	128	2
135	162	1
5	5	6
159	160	4
135	136	2
169	170	4
129	164	1
11	44	1
22	22	3
75	76	4
12	12	1
100	103	2
159	159	1
0	0	1
87	117	2
36	36	5
100	102	1
21	39	2
150	151	3
98	98	3
35	35	3
73	118	1
108	109	3
70	107	2
5	108	3
28	47	3
138	139	4
67	70	1
133	134	1
67	116	2
111	111	1
11	80	2
135	135	4
128	128	2
103	103	4
21	21	5
19	19	2
119	120	2
2	2	1
91	99	1
64	65	1
116	159	1
91	91	3
146	146	3
144	145	1
35	42	1
9	10	1
118	118	2
137	163	2
27	27	4
25	25	3
15	152	2
57	57	1
135	164	1
124	124	1
69	69	1
133	133	1
66	67	1
86	86	1
105	105	7
148	163	1
145	145	2
43	44	1
100	129	1
110	110	2
89	89	4
139	139	2
10	47	1
129	129	3
14	15	2
168	168	1
38	38	1
125	125	4
126	157	1
40	41	1
166	167	1
13	77	3
85	118	1
161	161	2
13	74	3
139	143	2
142	143	1
127	128	1
109	109	2
117	117	1
16	16	2
42	42	3
126	126	2
73	73	3
101	145	1
76	76	4
111	114	2
141	141	2
170	170	2
18	20	1
11	25	2
3	4	1
27	42	1
47	50	1
130	130	1
8	9	2
41	76	1
93	93	2
126	127	1
55	55	3
100	101	1
81	82	1
97	148	1
12	77	1
46	47	1
142	142	2
61	62	1
5	6	1
57	63	2
86	127	2
7	8	1
130	164	2
101	104	1
6	6	2
78	78	1
71	72	1
138	140	1
70	70	2
108	108	4
94	95	1
74	154	1
113	113	2
20	21	2
34	34	1
46	48	1
138	138	3
4	5	1
123	151	1
1	3	1
125	126	1
7	50	1
167	167	3
166	166	1
101	102	1
1	1	1
21	22	1
134	135	1
142	145	2
64	64	2
99	99	2
94	94	1
14	156	1
64	70	1
15	16	1
99	148	1
2	84	1
73	79	1
143	144	1
18	18	1
95	95	1
