130	130	3
153	153	14
92	92	7
42	48	6
103	127	7
28	28	2
79	80	7
96	96	3
56	56	13
122	122	1
68	82	3
120	120	7
134	135	4
37	39	2
41	41	2
119	119	10
38	38	8
131	131	7
40	40	2
99	99	2
107	107	3
105	105	13
75	75	5
140	141	2
35	38	3
46	46	1
108	126	4
154	154	2
104	108	3
72	154	2
100	100	5
87	87	2
93	93	7
111	116	7
5	5	6
126	126	10
152	152	11
49	69	1
27	27	2
131	151	1
17	17	10
61	64	1
117	117	3
19	19	18
132	132	1
139	139	5
116	116	5
29	30	1
149	149	7
104	105	2
151	151	3
63	63	2
29	29	3
123	123	3
153	154	1
128	128	9
42	42	4
13	13	6
70	70	4
109	109	4
94	94	2
150	150	9
69	69	11
109	129	2
24	24	3
39	39	5
112	113	3
74	74	5
106	107	2
131	141	2
85	85	3
83	83	7
4	4	4
145	145	1
72	72	8
15	17	1
113	114	11
84	84	5
20	24	3
75	76	1
38	39	1
109	154	4
37	38	2
97	98	1
37	37	3
137	137	10
148	149	1
121	121	2
50	50	1
7	22	2
53	54	4
47	48	1
129	130	1
67	67	7
8	8	7
127	127	9
114	114	4
124	125	2
26	26	3
110	110	5
78	78	5
117	124	5
80	81	2
118	118	3
20	22	3
142	142	3
95	99	2
49	49	2
112	114	2
43	43	4
131	150	1
17	18	4
3	4	7
98	99	2
86	86	1
108	108	1
47	49	3
150	151	4
30	30	3
95	95	2
65	65	10
121	122	4
108	129	2
44	44	1
104	104	5
45	45	7
147	147	4
47	47	4
62	62	1
101	102	3
14	14	1
10	10	4
88	88	2
124	124	7
16	19	1
4	6	1
22	22	3
111	112	4
54	54	1
97	97	2
24	25	1
15	15	4
32	32	6
64	64	1
30	31	1
104	122	3
94	95	3
16	16	1
86	91	1
136	136	4
108	109	2
76	128	3
111	111	3
77	77	6
27	31	5
103	104	4
37	54	1
82	82	3
8	9	2
6	8	3
126	127	1
84	86	1
40	41	1
102	122	3
116	124	2
133	134	1
94	99	1
113	113	1
11	11	4
35	36	3
83	88	1
118	119	1
22	23	2
129	129	5
148	148	1
70	71	1
13	14	1
68	68	2
7	7	3
144	148	1
144	144	1
57	57	2
71	71	1
103	103	4
94	151	1
145	146	1
9	9	2
141	141	3
86	87	2
46	50	1
71	153	1
81	81	1
55	55	2
74	77	1
106	106	1
69	71	1
137	138	3
66	66	3
34	34	6
15	18	2
125	125	1
74	109	1
150	152	2
65	66	1
7	26	1
7	25	1
31	32	2
102	103	1
20	21	1
3	3	1
144	149	1
22	24	1
97	105	1
112	112	1
85	91	2
98	105	1
55	58	1
42	43	1
123	126	1
32	33	1
52	54	1
117	118	2
26	31	1
68	81	1
135	135	1
131	132	1
125	126	2
92	93	1
36	38	1
31	31	1
51	51	1
99	100	1
33	151	1
21	24	2
146	146	1
85	86	1
137	140	1
116	117	1
