55	55	19
6	6	7
28	32	1
29	29	5
21	21	8
69	70	3
56	59	1
66	66	7
46	56	3
13	55	1
53	53	10
34	35	3
42	42	8
41	41	15
63	64	6
33	69	2
4	4	2
31	54	2
9	10	3
26	26	3
49	49	2
63	63	6
23	23	13
39	39	5
2	2	3
46	46	4
24	24	7
76	76	5
48	48	16
61	61	6
12	12	8
3	41	2
31	31	15
75	75	6
28	28	8
51	51	12
19	74	2
40	41	1
65	65	9
35	35	8
52	52	9
45	49	1
30	30	4
72	72	2
24	26	2
74	74	8
28	29	1
73	73	10
31	51	3
5	5	15
26	27	7
25	29	1
20	20	14
38	39	5
68	69	1
10	10	4
22	24	3
70	70	5
35	38	1
60	60	2
39	41	3
64	65	4
67	67	6
57	57	5
13	13	4
59	76	2
32	33	1
77	77	8
45	46	2
27	54	2
3	5	2
3	3	10
0	0	4
29	30	1
12	19	2
25	72	2
3	9	2
37	37	5
69	69	8
1	2	6
19	77	1
27	27	8
38	38	8
27	28	2
52	53	5
4	10	1
19	19	6
11	11	2
32	48	2
59	59	4
54	54	9
32	32	8
45	45	4
75	77	3
37	38	2
43	44	1
13	25	2
49	51	1
47	47	4
29	48	2
10	11	4
24	25	2
54	55	8
5	7	1
35	40	1
8	10	4
67	69	1
31	32	2
11	22	3
25	25	4
0	3	3
1	1	8
14	58	1
36	37	1
66	68	1
42	43	4
30	49	2
3	4	2
67	68	3
20	22	2
20	21	1
71	71	3
31	71	2
22	53	1
75	76	2
34	53	2
19	56	1
58	58	6
4	5	1
12	47	1
14	14	3
29	56	1
65	75	1
48	59	1
52	56	1
40	40	1
34	34	8
29	32	1
37	42	1
22	22	8
8	54	2
57	75	1
59	70	1
62	62	3
57	58	2
8	8	4
65	67	1
36	36	2
38	43	1
22	48	1
28	74	1
73	74	1
33	33	5
22	56	2
64	64	3
35	36	3
19	76	2
27	61	2
43	43	3
46	47	4
18	19	2
8	13	1
44	44	2
29	45	1
11	41	1
41	42	2
50	58	2
30	71	1
69	72	1
23	30	1
47	48	1
68	68	2
13	56	1
12	13	4
55	56	1
3	72	1
35	39	1
39	44	1
31	72	2
5	45	1
57	76	1
34	52	1
23	26	2
56	56	2
33	39	3
44	45	3
8	9	1
71	73	1
2	3	1
10	76	1
61	64	1
39	40	1
53	59	1
13	43	1
76	77	1
61	62	3
48	51	1
32	57	2
61	63	1
30	32	1
62	69	2
29	54	1
25	26	1
70	71	1
18	18	1
11	14	1
71	72	1
13	57	1
45	56	1
