2	110	8
15	16	1
88	184	3
174	174	5
178	178	13
40	40	1
55	56	6
115	117	3
114	114	9
39	39	11
181	182	6
39	41	2
222	223	2
82	82	9
158	158	9
73	73	2
106	107	5
120	120	7
221	221	10
165	165	11
90	90	6
224	225	3
102	109	3
160	160	9
102	104	1
170	170	9
158	159	6
112	112	7
85	86	1
84	85	1
71	103	1
120	151	1
97	97	7
171	171	7
85	101	2
195	196	1
5	5	13
18	47	4
22	23	1
203	203	12
68	68	10
89	89	5
102	102	5
200	201	6
37	37	3
94	94	8
110	112	1
183	183	16
4	152	1
93	211	4
194	195	2
24	24	4
153	153	9
221	222	1
110	110	10
33	153	3
197	198	11
71	71	9
208	209	10
213	213	14
182	182	1
144	145	4
75	75	6
88	94	1
18	19	1
4	118	2
57	57	2
23	23	8
71	200	1
35	35	7
10	10	7
230	234	3
220	223	2
55	55	4
214	214	15
162	162	2
154	154	6
198	199	12
109	200	1
222	222	7
185	185	3
21	29	2
213	239	2
70	189	2
50	95	2
169	169	4
187	199	3
108	108	2
66	97	1
52	52	7
172	172	8
199	201	8
205	205	5
165	166	5
212	212	10
239	239	9
220	220	9
184	185	7
115	115	12
201	201	10
231	231	3
7	7	10
179	180	5
36	36	12
72	72	9
53	53	4
169	170	3
36	37	2
2	7	1
56	56	5
117	118	2
168	168	3
7	8	3
2	3	4
230	230	7
81	82	5
101	101	12
94	95	5
52	116	2
15	15	2
156	156	11
208	213	3
9	9	5
117	117	5
113	113	4
204	204	11
71	72	1
177	177	7
28	29	6
155	156	2
67	67	6
85	85	4
207	208	5
109	109	5
116	116	9
111	111	6
234	234	5
106	106	4
229	229	4
81	81	4
92	92	7
69	70	3
22	22	16
184	224	5
218	218	7
21	21	7
63	112	3
6	11	4
178	180	3
78	78	6
161	161	7
32	35	3
191	191	5
62	118	4
29	31	3
3	3	4
40	41	4
154	179	1
66	66	7
191	240	7
78	114	1
6	10	3
223	223	11
84	84	3
246	246	4
191	200	2
100	100	9
163	163	4
220	221	2
192	192	4
83	83	4
238	238	8
175	175	5
60	61	4
118	119	8
11	11	16
4	4	7
171	172	1
51	51	2
18	178	2
42	42	4
8	8	9
216	217	10
146	146	7
52	54	2
95	95	6
235	235	8
14	14	6
167	167	7
7	31	2
159	246	2
89	94	2
152	152	8
162	163	3
18	18	4
209	209	6
1	1	2
182	238	2
216	216	8
200	200	4
43	43	3
99	99	5
35	39	3
231	241	6
64	64	8
157	157	8
12	12	5
111	180	1
146	147	9
33	34	4
63	240	2
45	46	1
58	58	7
198	200	4
64	66	2
175	177	1
105	106	3
238	239	2
176	176	5
103	103	2
61	61	3
26	45	1
155	155	4
232	232	5
221	223	1
192	223	2
89	90	10
173	173	7
184	184	3
88	88	5
50	50	6
206	206	2
205	212	2
222	226	4
163	164	4
160	168	1
193	193	10
227	229	1
225	225	14
72	73	4
6	6	9
158	211	4
41	41	5
189	189	5
228	228	4
199	199	10
241	241	4
208	208	2
77	77	3
22	25	1
18	20	4
151	151	6
65	67	4
38	40	2
245	246	3
19	20	2
42	47	3
88	183	2
2	2	6
15	57	3
90	172	1
247	247	5
3	109	2
65	65	12
158	212	5
219	219	3
234	235	6
243	244	4
237	237	7
43	44	5
91	210	4
193	194	2
198	198	8
150	150	14
90	119	1
192	197	2
171	175	3
50	116	2
16	16	5
243	243	6
67	68	3
90	101	1
109	113	2
213	235	2
173	176	2
86	86	6
160	161	1
110	111	3
2	35	2
8	12	3
9	10	1
227	227	7
236	237	2
9	17	4
0	1	1
80	81	2
26	117	2
74	78	2
236	236	10
167	246	4
173	174	1
104	104	1
33	35	3
224	224	9
26	32	2
33	33	2
91	91	3
197	225	4
14	18	1
44	44	2
109	110	2
80	199	1
96	96	2
164	164	3
25	25	5
159	160	3
245	245	7
145	145	4
244	244	6
47	173	1
79	79	4
27	27	2
87	87	5
213	214	5
1	33	2
221	244	2
117	226	1
23	55	1
48	49	3
10	18	1
152	153	2
218	219	4
164	165	1
5	7	1
36	83	1
197	197	6
169	176	3
46	46	7
48	48	7
201	202	1
187	187	1
189	190	4
161	238	4
1	2	3
190	191	2
166	166	5
93	94	2
162	165	1
226	226	3
209	214	2
119	119	5
181	181	3
63	214	1
38	38	4
217	218	3
26	26	5
169	226	1
15	172	1
185	219	3
76	76	3
154	155	3
63	63	6
54	54	2
196	231	2
6	8	2
233	233	12
114	226	1
31	32	3
86	246	2
87	208	1
215	215	1
74	242	1
18	26	2
12	13	1
186	187	3
202	202	2
179	179	10
160	238	2
194	194	5
107	234	2
236	238	2
20	20	2
162	166	2
83	242	1
39	40	3
59	59	4
62	182	2
70	71	1
3	4	2
12	56	3
32	32	4
31	31	1
145	182	1
96	109	3
240	240	1
19	19	4
6	28	2
225	226	2
82	223	1
76	78	1
92	96	1
188	188	2
78	79	2
87	88	3
30	30	2
0	0	1
229	230	3
227	244	3
8	150	1
196	196	3
116	117	2
146	180	2
217	240	1
80	82	2
161	239	2
31	61	1
5	50	1
248	248	1
35	61	2
13	13	2
19	35	1
49	50	2
228	230	2
144	180	3
26	85	2
14	201	1
47	47	5
172	173	3
231	233	2
54	193	3
81	83	2
3	51	1
24	112	1
95	97	1
164	173	1
215	218	2
180	180	2
4	5	1
62	62	4
176	177	1
106	115	2
69	69	3
203	204	1
210	211	1
148	229	1
33	55	3
54	117	2
101	105	1
91	218	2
4	149	1
68	71	2
209	210	2
61	62	3
98	100	1
67	108	1
55	173	1
14	35	1
17	18	1
45	45	3
111	112	1
49	173	2
165	210	1
95	96	2
172	200	1
2	51	1
44	45	1
159	159	1
38	234	1
150	151	1
192	199	4
78	108	3
69	83	1
177	178	3
96	97	1
217	217	2
72	84	1
195	195	2
51	52	2
71	199	1
154	157	1
58	105	1
49	118	1
78	115	1
53	54	1
239	245	1
70	70	2
65	66	1
101	102	1
52	53	1
5	14	1
167	168	1
36	76	1
74	74	2
198	226	1
173	175	2
38	39	1
79	80	1
13	221	1
90	94	1
8	9	1
186	218	2
180	226	1
42	43	2
108	119	1
75	76	2
72	75	1
29	29	2
155	204	2
29	30	1
211	211	1
194	196	1
93	97	1
68	70	1
28	28	2
180	181	2
43	45	1
42	60	2
190	190	2
107	107	1
55	87	1
150	154	2
241	242	1
179	182	1
25	51	1
14	15	1
31	42	1
57	58	1
232	233	1
153	176	1
115	228	1
93	93	1
214	215	1
55	60	1
24	25	1
23	54	2
19	149	1
213	244	1
162	168	1
2	19	1
175	176	1
71	83	1
171	201	1
