17	17	9
59	72	4
100	100	7
101	101	8
23	48	5
76	112	1
65	65	8
7	7	5
50	124	4
9	9	8
113	133	1
55	55	6
57	104	2
25	25	6
122	122	3
70	70	2
92	92	8
68	113	1
51	51	4
131	131	6
84	84	3
46	62	1
111	111	6
14	15	5
108	116	1
108	108	6
53	53	4
86	87	8
16	20	2
0	0	11
60	75	4
70	75	2
103	103	4
73	73	4
112	112	5
59	90	2
89	90	3
82	83	1
87	88	5
86	86	7
47	47	5
128	130	1
111	112	3
129	129	3
72	101	1
69	69	10
111	114	3
49	50	1
70	94	5
77	77	8
113	113	3
93	93	9
79	79	10
82	82	3
118	130	2
58	59	8
128	129	6
117	118	2
95	96	2
22	22	1
99	125	2
56	120	2
60	61	3
117	131	7
121	121	3
88	88	11
59	59	4
48	67	4
68	69	2
66	66	4
24	55	2
86	127	6
16	17	3
37	40	2
41	67	1
71	71	7
20	20	8
85	86	1
67	68	2
95	95	2
98	98	4
54	54	1
114	114	2
91	91	3
84	85	6
83	83	3
94	94	1
70	111	3
76	94	1
42	80	2
32	32	13
100	101	1
96	97	2
2	5	2
126	131	1
106	125	1
116	132	5
56	56	8
98	100	3
22	62	1
0	1	3
70	114	2
24	24	10
26	29	1
87	87	3
28	28	7
118	118	8
55	56	2
72	93	1
108	115	1
65	76	2
1	1	3
92	100	1
128	128	3
117	117	1
29	29	7
75	76	1
120	120	3
19	19	3
115	116	5
105	105	10
109	109	7
49	49	9
26	26	5
53	69	1
1	15	2
41	81	1
125	125	11
48	69	3
41	59	1
47	64	1
0	2	1
100	105	4
40	40	4
64	64	2
45	46	4
0	13	4
52	52	2
75	77	1
8	14	1
60	62	2
42	43	1
39	40	2
48	77	1
34	34	3
52	53	2
15	15	5
106	107	2
5	38	1
12	12	5
48	48	3
113	114	1
30	30	2
131	132	2
114	117	2
61	61	3
56	118	3
39	60	2
57	80	1
114	116	5
3	6	2
124	124	5
86	88	4
41	41	2
78	78	4
56	101	2
27	57	2
119	121	2
62	62	5
12	13	1
40	47	3
40	41	1
58	58	2
115	118	3
126	128	3
77	78	3
72	72	1
70	92	2
44	47	1
25	26	1
101	120	1
69	101	4
43	43	2
3	3	2
18	18	3
42	44	2
76	76	2
107	125	1
5	34	2
106	106	1
13	15	3
29	30	1
10	12	3
129	130	1
127	132	1
127	131	1
107	114	1
6	13	2
16	34	3
60	78	1
37	47	3
4	4	2
60	60	2
70	99	2
12	14	1
68	68	1
61	76	2
4	26	1
97	127	2
102	102	2
125	131	2
130	130	1
89	126	1
85	88	1
65	73	3
100	112	1
24	34	1
104	104	1
96	96	2
97	100	1
11	11	1
2	2	1
78	79	2
2	4	1
98	126	1
44	60	1
48	49	1
74	74	3
45	54	1
69	92	2
27	43	1
85	127	1
50	50	1
54	133	1
124	125	2
67	67	1
70	78	2
79	80	1
38	58	2
68	79	2
101	114	2
94	97	1
19	101	2
48	56	1
27	27	1
26	54	1
115	115	1
16	38	1
10	14	1
27	48	1
10	15	1
57	57	1
8	13	1
7	15	1
97	104	1
92	97	1
61	72	1
