27	27	6
163	163	3
152	153	6
42	42	4
109	127	5
96	96	5
169	169	11
89	89	7
133	133	4
136	136	4
189	190	4
29	29	1
115	116	1
81	81	8
170	170	2
126	126	2
161	162	1
197	197	3
68	68	1
40	41	1
136	138	4
182	182	3
13	13	6
87	88	1
95	147	2
81	95	4
36	36	4
46	46	5
44	45	4
35	35	3
28	28	3
140	140	1
88	99	3
10	10	4
138	138	1
23	23	3
30	32	3
100	100	5
110	110	2
123	123	2
178	178	2
86	87	3
171	171	8
107	108	2
115	115	3
56	79	2
172	181	2
146	148	4
59	60	3
15	15	6
78	78	3
128	128	4
152	152	5
111	111	2
127	127	2
83	83	3
17	17	5
132	133	2
156	156	1
148	163	4
125	126	4
100	101	2
45	45	2
9	9	1
37	38	3
94	98	5
184	184	2
1	1	2
175	175	4
162	162	7
123	124	1
129	129	3
134	135	3
99	99	8
164	166	1
83	84	1
26	27	2
149	149	1
80	80	1
190	191	1
98	162	1
110	111	7
57	57	4
48	49	2
186	188	4
180	180	3
70	70	2
69	69	6
182	185	4
6	6	1
137	169	1
188	188	7
26	26	12
73	93	2
141	141	1
22	25	1
161	161	1
183	183	2
158	158	1
196	196	8
179	179	5
96	97	1
19	19	4
32	32	2
177	188	5
52	52	4
38	38	1
141	158	3
34	34	4
44	44	2
116	175	2
189	189	3
46	47	2
72	72	5
142	142	4
154	154	4
184	185	2
108	110	1
118	121	1
108	129	7
11	11	2
20	21	1
194	194	11
47	47	3
8	8	2
14	14	3
167	167	5
90	90	4
104	104	1
97	140	3
7	8	2
122	137	2
142	147	1
62	62	6
185	186	1
98	98	3
144	144	4
39	39	2
176	176	6
84	85	2
73	75	1
187	188	2
24	24	2
123	172	2
85	85	3
81	83	1
136	137	1
173	173	2
63	63	7
195	195	2
39	40	1
115	117	6
74	74	1
121	121	3
153	153	1
29	30	3
33	51	2
151	151	1
25	25	1
137	138	1
162	163	2
53	53	4
94	95	3
49	49	1
48	48	1
68	93	2
190	190	2
63	95	1
86	86	2
5	5	1
113	114	1
66	68	1
77	77	1
105	105	1
121	160	1
116	179	1
65	65	4
109	111	3
144	147	1
147	152	2
74	90	3
113	113	3
187	187	1
55	55	1
41	42	3
36	51	1
181	181	1
64	64	3
105	106	1
112	120	2
177	177	2
139	140	4
117	117	1
173	174	1
172	172	3
88	88	3
164	165	2
148	148	1
170	171	1
82	82	2
164	192	1
2	2	3
135	135	1
164	164	4
67	67	2
176	177	1
31	31	2
80	84	1
18	18	1
52	53	1
4	5	1
123	137	2
17	27	1
107	107	3
174	174	3
135	136	1
50	50	2
165	166	1
73	73	1
165	167	1
35	37	1
146	163	1
196	197	1
185	187	1
58	59	1
192	192	1
108	108	1
120	120	1
74	83	1
119	128	2
177	178	1
166	168	1
18	19	1
71	72	1
160	160	1
139	139	1
158	161	1
21	26	1
191	191	3
60	60	3
112	113	1
141	157	1
56	57	1
73	77	1
134	134	4
172	174	1
31	38	2
65	94	1
124	134	1
146	147	1
173	175	1
146	146	1
77	80	1
51	51	1
38	39	1
9	11	1
43	43	2
52	78	2
64	65	1
31	32	1
43	44	1
18	20	2
19	20	1
157	157	1
21	21	1
182	183	1
40	40	1
68	69	1
0	0	1
56	63	1
112	114	1
