65	68	2
141	141	7
53	80	4
62	62	11
161	162	10
2	3	6
21	22	9
157	158	2
96	96	6
2	2	16
74	74	5
92	92	16
163	163	9
138	138	8
4	4	7
11	13	5
66	160	3
5	5	19
107	107	14
103	104	5
37	37	21
124	124	18
88	88	14
128	128	13
34	34	15
163	164	8
157	157	19
109	109	22
97	100	2
159	159	14
136	136	27
147	148	7
8	8	14
68	69	5
27	27	20
67	67	8
89	100	5
94	96	2
147	147	14
19	114	2
54	54	18
6	12	4
20	23	5
10	12	2
113	113	11
90	90	19
129	129	7
61	61	2
112	112	11
108	108	29
4	45	2
130	130	17
82	99	2
166	166	11
160	160	12
86	125	1
45	46	3
161	161	6
113	114	9
62	65	2
3	3	8
80	119	1
107	111	2
133	133	19
25	146	2
78	155	1
118	118	7
80	120	2
120	120	10
94	94	15
91	91	12
80	80	13
123	124	2
81	81	5
162	164	4
16	18	4
53	74	2
57	57	15
38	73	4
96	98	5
151	151	16
164	165	10
104	104	10
14	16	5
153	153	8
109	158	3
152	152	11
66	69	3
100	101	2
13	13	7
40	40	13
16	44	1
76	76	17
22	26	1
14	14	19
39	39	8
7	8	2
99	99	6
169	169	8
87	87	13
103	103	11
56	56	17
90	140	2
132	133	7
13	46	3
77	77	4
6	6	6
39	50	6
112	113	4
98	98	5
140	140	10
77	78	2
101	102	4
33	33	9
1	5	3
0	0	18
41	41	18
24	24	13
163	165	4
66	66	16
154	154	4
89	110	3
146	146	11
100	100	13
26	74	4
78	79	3
170	170	12
65	67	3
18	38	4
14	141	2
123	123	3
8	9	13
66	67	4
165	165	4
48	48	6
65	65	9
44	44	8
99	100	5
79	79	9
93	155	1
17	17	13
75	124	4
44	45	5
38	38	5
94	95	10
126	127	5
53	53	8
15	15	9
93	93	7
138	139	3
166	167	5
158	159	8
114	114	6
34	35	7
156	156	13
159	161	1
7	7	8
40	83	1
124	125	8
10	11	6
46	46	14
40	41	4
91	93	1
5	15	2
55	55	11
116	116	13
94	114	2
134	157	1
167	169	5
113	134	1
105	106	9
143	143	19
143	162	6
92	93	5
16	19	4
155	155	7
74	123	4
19	19	13
142	145	6
22	22	6
134	134	5
38	39	4
110	110	9
117	117	6
118	119	7
111	111	11
89	89	10
162	162	7
79	122	1
119	132	1
126	126	14
105	105	12
97	163	3
35	45	2
42	42	11
79	82	3
67	68	6
142	143	4
89	97	5
125	162	4
0	12	2
149	149	15
78	78	7
137	137	11
73	73	9
90	157	3
110	112	2
90	95	2
70	71	3
126	163	1
50	50	7
121	125	3
12	12	17
5	44	1
151	152	4
80	81	3
115	115	10
0	1	10
44	57	4
48	49	5
90	92	4
88	163	3
150	151	6
62	119	1
49	100	6
150	154	2
121	121	7
58	104	1
91	92	7
26	26	19
132	137	3
132	132	8
17	18	9
11	17	3
10	10	12
9	10	4
49	49	14
4	7	4
110	126	5
25	25	6
1	2	8
162	163	5
127	170	1
52	52	6
43	43	4
55	56	10
11	11	5
45	47	1
131	131	15
121	122	5
86	86	9
148	148	6
117	118	5
4	21	3
20	20	10
98	99	5
1	1	11
120	121	9
42	66	3
103	145	1
36	36	14
127	127	1
155	156	7
11	12	10
40	53	1
64	64	13
86	87	4
129	131	4
57	69	1
140	141	8
83	83	9
150	150	14
5	150	2
6	94	2
16	16	7
65	66	5
167	167	20
22	23	3
108	127	3
43	44	4
106	106	13
24	53	1
9	9	8
50	143	1
109	112	4
119	119	10
139	139	9
72	72	6
14	15	8
109	118	2
1	12	3
46	47	5
4	5	2
114	142	1
71	71	4
24	25	2
51	51	11
84	86	2
15	16	5
142	142	8
21	24	2
18	18	15
55	62	1
114	115	4
113	137	5
104	136	2
8	11	5
84	84	3
50	53	1
85	85	9
141	142	3
75	76	6
135	136	9
122	122	7
107	130	1
47	162	2
50	51	3
139	140	6
74	75	5
57	62	5
76	77	6
69	73	1
47	51	2
75	75	14
102	102	5
37	45	4
156	157	4
113	136	2
69	71	1
68	70	1
28	111	4
135	135	5
21	21	9
87	89	3
96	97	6
140	149	2
77	83	1
87	128	2
11	52	1
24	49	3
164	164	7
91	151	1
2	13	2
105	137	3
167	168	5
23	23	12
74	83	2
57	104	2
63	66	6
35	35	11
88	126	1
149	150	4
113	138	2
39	40	8
64	65	1
144	144	3
144	146	1
69	69	11
47	47	3
13	15	1
109	137	1
43	58	1
111	122	4
22	24	2
165	166	6
97	97	9
71	72	1
97	99	3
148	154	2
89	90	2
47	48	3
7	57	1
95	96	4
2	44	3
48	99	1
37	39	1
86	88	1
145	146	3
153	154	7
97	139	1
167	170	1
152	153	4
27	28	3
157	159	3
3	4	8
52	53	3
33	34	4
33	35	5
6	49	3
165	169	2
154	155	1
163	166	1
20	21	3
3	43	2
9	105	1
145	145	4
107	152	1
2	14	2
91	149	2
73	81	3
77	84	2
37	38	1
104	145	1
18	19	2
125	126	3
116	117	1
144	145	5
131	132	6
153	156	2
101	101	5
51	80	4
110	111	3
134	156	1
169	170	2
6	21	1
10	56	4
100	123	1
7	85	2
122	128	1
79	80	2
24	26	1
165	168	1
144	148	2
43	62	2
25	142	2
35	36	6
133	134	1
123	127	1
77	79	3
109	110	2
141	146	2
7	14	1
63	120	1
158	161	4
19	54	2
106	107	2
50	55	1
81	111	2
104	105	1
143	144	1
62	94	1
53	54	2
52	150	2
48	142	1
97	111	1
70	70	3
33	154	2
0	13	3
64	66	2
109	126	2
54	85	1
72	73	1
42	150	1
68	68	1
51	81	3
125	125	4
168	168	4
21	23	4
54	55	1
138	140	1
73	74	5
88	107	2
38	40	1
6	148	1
45	45	2
6	10	1
47	126	1
34	37	1
0	2	2
134	135	1
68	145	1
91	95	1
88	90	2
16	23	1
94	97	2
9	16	1
138	145	1
67	69	4
116	147	1
136	137	6
44	46	2
74	124	1
101	103	3
125	129	2
57	58	5
6	151	1
158	158	4
6	45	2
22	101	1
38	41	3
51	52	1
82	82	1
166	169	1
95	100	2
110	116	2
23	25	2
112	120	2
82	110	2
139	149	2
117	121	1
127	128	1
107	108	3
54	56	3
144	162	1
106	108	1
85	86	1
130	131	1
45	55	1
5	6	1
63	63	1
168	169	1
109	136	2
70	72	1
2	4	1
13	14	1
116	146	1
20	22	1
25	84	1
36	37	1
160	161	1
11	56	1
142	146	3
131	134	1
92	120	1
115	116	1
6	8	1
66	68	1
81	122	1
96	116	1
112	156	1
1	3	1
3	44	1
4	6	1
55	57	1
15	144	1
135	137	1
109	111	1
96	99	1
118	121	1
83	117	1
107	129	2
82	123	1
46	56	2
100	102	1
90	91	1
131	138	1
1	6	1
118	156	1
58	58	1
87	160	1
87	122	1
87	95	1
123	132	1
113	157	1
58	105	1
50	52	1
87	100	1
161	163	1
39	104	1
55	58	1
104	113	1
46	89	1
79	105	1
