167	167	6
151	152	1
135	139	1
24	36	3
163	166	5
122	122	4
179	179	2
139	139	7
175	175	3
28	28	17
35	35	10
169	170	3
73	82	5
129	129	5
105	107	1
84	84	8
26	26	5
142	142	4
76	76	6
95	96	2
34	62	2
67	67	6
55	55	6
61	61	3
3	54	3
54	54	2
116	116	2
108	119	5
164	164	6
10	14	2
53	75	5
39	39	10
153	153	3
113	114	5
117	118	4
155	156	13
43	54	2
152	179	1
68	68	4
149	149	6
167	172	3
133	133	4
80	80	6
49	54	5
173	174	3
72	84	2
158	159	3
127	128	3
37	37	6
105	105	3
107	107	8
9	9	6
43	52	2
136	178	4
3	3	2
108	110	3
114	119	2
9	24	1
85	85	5
112	112	10
167	174	3
90	90	6
112	115	1
42	53	2
56	64	2
65	65	6
59	62	1
114	114	3
176	176	6
154	154	2
136	177	4
50	52	2
70	71	2
157	157	5
105	106	3
3	4	2
16	16	9
126	162	6
9	10	2
103	104	3
121	121	3
133	139	3
72	72	4
35	60	3
170	170	15
118	119	2
37	40	3
56	59	6
31	31	4
44	45	8
97	98	2
45	46	3
135	151	2
111	121	3
147	147	8
60	60	6
51	51	10
157	160	1
174	174	3
81	109	1
113	115	4
30	30	15
137	164	3
154	156	6
22	22	5
41	50	3
12	12	6
168	168	6
87	89	1
67	68	10
119	119	3
86	86	4
134	134	1
8	8	2
95	101	3
137	140	4
133	140	1
92	92	2
36	36	3
123	123	2
25	26	2
166	175	3
12	20	1
102	109	3
129	177	2
126	127	2
41	43	3
111	113	1
13	13	4
57	58	1
117	120	3
84	101	4
108	108	5
101	101	3
132	132	3
135	136	2
6	6	3
80	129	2
10	17	3
110	110	2
44	46	1
177	177	6
80	109	3
163	163	2
159	159	5
78	78	1
117	117	3
98	98	5
66	67	1
37	39	2
177	178	1
72	79	2
12	60	8
30	65	3
178	178	2
7	7	2
15	36	5
43	44	1
33	63	1
109	109	4
123	144	1
57	63	2
158	158	1
135	137	1
60	61	2
143	157	3
43	65	3
125	125	3
10	10	4
138	138	3
89	90	3
24	24	2
97	97	3
153	160	2
3	6	1
122	159	2
100	100	2
1	1	5
94	114	1
82	89	2
19	51	2
23	23	2
2	2	3
150	156	3
12	13	2
1	71	1
77	77	3
24	33	1
25	35	1
76	77	1
101	113	2
74	75	3
50	50	4
68	84	2
95	114	4
86	87	2
45	45	7
137	141	2
33	33	5
84	102	1
7	8	2
4	4	6
121	161	2
106	106	1
171	171	1
66	83	4
169	169	4
121	122	1
63	63	4
53	86	3
73	73	12
43	66	1
16	18	3
83	109	2
71	71	2
38	39	2
146	146	2
66	66	3
101	114	2
0	0	3
24	25	3
143	143	2
96	98	2
130	178	2
10	16	1
54	55	2
141	177	2
83	84	1
25	25	2
137	165	2
128	128	2
144	156	1
161	161	2
115	118	1
19	20	1
125	144	1
45	55	4
164	165	3
10	11	3
153	154	1
92	93	1
107	119	1
167	175	2
62	62	3
91	91	3
10	12	1
74	74	2
180	180	3
172	172	2
22	23	3
129	146	2
126	126	3
93	93	5
18	19	1
111	111	2
125	158	1
137	137	1
57	64	1
38	42	2
166	172	5
58	58	1
57	57	2
139	180	1
46	55	3
124	124	2
19	19	1
28	29	1
75	75	2
110	115	4
97	99	1
103	178	1
136	136	1
140	140	3
12	14	2
165	168	6
43	56	1
111	120	2
94	94	2
167	168	1
57	65	2
83	83	3
126	161	3
72	107	2
115	116	1
104	105	3
151	151	2
32	33	3
101	117	2
117	161	2
7	9	1
147	168	2
111	115	1
20	20	3
150	150	3
149	150	2
163	164	1
81	81	2
73	84	2
27	27	5
75	86	2
95	95	2
31	33	2
76	81	1
74	77	1
78	140	1
84	109	1
59	64	7
44	66	2
166	166	2
89	89	1
147	163	1
14	14	4
141	141	1
100	108	1
88	88	4
165	165	1
129	178	2
29	33	3
113	117	1
38	38	1
112	114	1
140	180	1
79	119	1
135	135	3
5	5	1
95	115	2
30	31	2
20	49	2
143	160	1
162	162	2
22	60	1
148	175	1
139	140	1
173	173	2
81	82	1
77	108	1
17	17	1
140	152	2
81	100	2
130	130	1
102	127	1
113	113	1
18	41	1
131	132	1
134	177	1
115	115	1
44	44	2
64	64	1
149	162	1
153	157	1
32	32	1
98	99	1
147	172	1
148	148	2
73	74	2
27	31	1
128	129	1
41	41	2
115	117	2
18	21	1
155	160	1
100	109	1
77	88	1
20	60	1
7	10	1
83	104	1
