32	32	8
47	48	3
149	149	13
26	26	6
162	162	3
187	188	3
186	189	3
85	86	2
6	7	4
97	97	2
35	44	4
43	43	14
82	82	3
18	18	21
9	9	13
180	183	3
22	22	1
167	167	10
19	19	11
167	169	2
133	133	4
3	3	6
62	63	6
112	142	3
24	24	13
155	156	8
67	67	5
188	189	7
102	102	15
85	85	5
30	67	5
134	134	5
132	133	5
12	13	4
115	115	6
136	139	1
65	65	9
168	168	14
46	47	3
181	181	7
108	197	2
109	109	4
61	61	17
172	193	8
0	0	4
185	185	17
44	44	12
37	37	10
29	33	1
20	20	14
86	86	6
122	127	1
10	11	2
24	27	7
40	41	8
53	56	2
71	124	4
191	191	8
67	68	1
9	10	5
152	167	3
96	96	5
96	97	9
78	78	5
21	22	1
127	128	10
52	52	16
93	100	2
47	47	17
117	117	6
183	184	1
189	189	7
113	113	6
107	111	2
38	39	10
3	34	3
130	130	5
19	81	1
106	106	8
128	128	11
127	127	8
145	146	5
40	40	6
19	21	5
190	192	12
164	167	4
5	5	3
139	139	6
146	146	6
34	35	5
9	18	2
74	74	1
142	184	1
46	46	10
108	108	7
129	129	13
160	160	6
169	169	6
131	131	2
157	157	8
141	141	7
122	128	2
104	104	5
56	57	4
183	183	7
53	53	14
126	126	7
57	57	3
0	33	7
146	147	2
45	45	10
119	119	11
197	197	7
77	77	10
144	144	8
152	154	4
70	151	2
174	176	4
33	34	4
195	195	8
74	76	5
66	66	4
145	145	4
26	27	4
59	59	4
184	184	5
148	148	10
64	64	12
124	124	11
165	165	3
22	39	1
11	11	4
174	174	7
172	187	1
138	138	5
113	148	2
172	172	8
192	193	4
127	129	2
136	136	7
132	134	3
16	16	12
4	4	6
1	1	4
169	176	1
42	44	3
153	168	1
180	180	4
30	30	5
69	69	12
170	171	1
154	154	11
181	182	2
94	96	3
187	187	7
114	150	1
8	8	2
20	21	5
186	186	8
143	144	1
59	197	3
77	78	1
111	111	6
103	104	2
107	137	3
190	191	7
121	121	9
122	122	13
111	135	2
167	168	5
147	147	9
190	190	5
30	31	2
54	54	15
87	87	1
32	170	3
58	58	6
80	80	7
47	62	3
44	45	3
123	123	3
193	193	10
55	55	6
61	62	3
170	170	4
25	60	5
27	27	4
58	61	1
49	55	2
154	155	4
29	29	4
12	12	8
65	69	2
76	76	4
125	125	5
81	81	10
177	191	2
26	67	5
134	136	3
166	166	5
39	39	4
192	192	5
30	63	3
51	51	3
131	149	1
37	60	3
30	68	1
82	84	1
66	67	3
58	197	2
112	132	1
57	197	4
107	107	14
14	14	1
45	69	1
70	154	1
17	17	9
153	167	5
64	66	2
4	5	4
157	159	5
2	3	2
79	79	3
163	163	6
13	14	3
61	63	1
84	84	4
10	10	2
94	94	7
28	65	2
112	113	5
50	50	8
173	173	3
153	153	4
50	140	2
20	40	3
150	150	8
33	33	12
89	89	1
116	116	6
107	139	3
28	61	1
164	164	2
174	177	1
25	25	6
83	83	5
119	120	2
146	148	3
143	143	10
156	156	4
71	71	3
165	167	3
116	131	1
133	140	1
112	149	2
109	111	3
35	35	3
73	74	2
109	114	3
182	182	8
99	101	6
33	46	1
75	192	1
108	194	4
101	101	5
99	99	2
137	137	4
115	116	1
5	7	1
124	125	3
185	186	2
160	175	3
19	20	1
105	105	2
115	135	2
28	59	1
5	38	4
69	86	3
36	39	6
142	142	6
100	100	4
34	34	8
95	95	1
42	45	4
125	126	1
70	71	3
175	176	5
49	49	7
17	18	5
58	138	1
105	106	3
117	118	2
194	195	5
108	137	2
63	63	1
21	21	5
175	190	3
130	131	3
62	62	6
155	155	7
32	63	1
135	135	6
159	164	6
196	196	4
57	196	1
23	40	5
13	15	2
18	19	1
159	159	3
42	155	1
58	139	1
178	179	1
93	97	3
114	168	1
74	75	5
72	72	7
1	2	1
0	190	6
161	180	1
48	49	5
171	171	8
41	43	2
186	196	1
71	72	1
72	125	3
11	15	1
49	52	2
9	17	4
121	122	1
72	73	5
50	58	1
41	41	4
23	23	11
137	139	4
139	140	1
70	70	5
116	118	1
126	168	1
27	69	2
38	38	2
177	190	1
151	152	3
36	36	7
161	162	2
13	13	3
73	155	3
59	60	2
141	142	1
40	43	3
59	63	5
52	53	2
109	112	2
162	177	6
15	69	1
110	130	1
129	130	2
131	134	4
132	136	4
72	115	1
136	137	2
176	178	2
3	4	1
68	68	3
194	194	1
94	97	1
25	26	1
31	31	2
110	115	2
23	42	1
176	176	2
60	60	2
162	166	1
16	17	3
163	164	1
119	121	2
161	161	3
175	177	2
25	45	1
27	86	4
24	26	2
152	153	1
186	187	3
23	39	1
57	58	1
196	197	1
73	73	1
110	110	1
76	77	3
138	139	1
114	114	8
67	73	2
173	175	2
182	183	3
98	98	2
34	38	2
140	141	2
67	106	3
3	5	3
93	93	2
68	72	1
161	169	1
194	197	1
28	28	1
188	188	2
132	139	1
103	103	2
54	56	1
6	6	2
79	80	3
134	137	2
59	106	1
88	88	1
138	140	1
26	28	1
50	51	1
193	194	2
78	80	2
94	95	1
22	23	2
149	183	1
87	88	1
9	16	1
15	15	3
75	76	1
158	158	2
18	81	1
83	84	4
23	79	1
122	123	2
133	138	1
186	194	1
42	42	1
28	60	1
120	121	1
173	190	1
82	86	1
58	196	1
82	83	1
193	196	1
177	178	2
113	130	1
83	101	1
177	177	1
118	119	1
180	182	1
45	64	1
36	41	1
11	88	1
5	6	1
168	169	1
7	38	1
