124	124	9
106	107	8
43	43	28
55	117	1
52	53	11
109	143	3
31	31	20
116	116	4
92	92	19
134	140	10
85	85	12
71	71	15
4	4	13
5	5	14
106	106	29
129	129	12
98	99	2
131	131	16
66	69	1
133	133	9
15	18	3
101	101	15
70	71	8
107	107	12
78	114	7
77	84	4
156	156	20
46	47	3
10	10	16
82	82	15
118	119	11
89	89	4
148	148	25
63	63	8
2	5	3
75	134	1
151	151	14
99	100	3
26	26	15
29	29	24
112	113	11
70	70	10
38	44	2
127	127	16
79	110	3
107	109	2
150	150	7
37	38	8
122	123	4
13	17	1
94	94	10
120	125	6
126	126	16
117	117	16
140	140	14
65	65	9
94	144	5
67	69	5
90	113	3
16	16	10
76	76	6
66	68	2
53	54	4
88	89	10
92	95	2
92	135	3
16	43	3
33	33	13
12	12	14
81	81	17
1	26	1
54	151	3
112	112	15
69	131	1
142	144	1
155	155	8
136	137	7
93	97	3
23	46	6
136	136	12
75	88	2
109	109	9
7	7	11
145	145	13
15	15	24
15	29	4
152	152	5
138	138	5
24	46	5
122	147	7
41	43	4
11	11	12
84	84	10
32	52	3
23	24	2
93	93	12
113	113	13
103	135	6
85	98	4
75	85	2
94	109	3
34	37	1
16	49	2
23	23	11
54	55	3
150	152	2
62	62	10
112	148	5
112	118	2
25	25	19
49	49	20
34	35	11
8	73	3
53	53	12
114	126	9
132	132	11
73	130	1
91	113	7
45	46	4
96	96	9
124	125	11
6	6	9
110	112	3
101	138	2
77	77	11
21	39	8
11	13	7
64	64	21
35	36	7
23	36	4
83	95	1
114	114	15
100	108	5
44	47	2
51	51	16
119	119	10
38	38	10
79	79	9
87	91	1
75	139	1
11	14	2
102	115	1
38	45	1
3	68	2
77	78	9
71	72	4
41	41	12
78	89	3
84	96	2
138	144	5
34	156	7
40	40	16
86	98	3
69	69	15
38	52	3
144	144	10
14	15	7
50	51	7
114	150	2
28	28	7
121	121	29
99	99	13
24	40	1
56	56	6
38	43	4
132	135	2
83	150	6
0	102	3
141	146	4
18	49	7
84	98	5
29	54	3
141	142	6
4	5	8
118	118	10
28	30	4
137	137	12
24	114	3
45	45	15
2	2	6
103	103	10
36	50	2
146	147	2
98	98	14
36	36	11
87	89	6
139	139	10
90	91	3
46	155	2
51	117	3
115	115	14
115	150	3
7	87	1
122	122	12
95	95	7
21	21	14
87	87	20
112	144	2
141	141	19
34	34	14
136	157	1
77	80	3
68	69	9
78	104	3
110	110	12
51	52	7
94	127	4
112	146	1
107	108	4
6	8	1
1	15	1
46	114	2
14	14	6
119	120	5
87	90	4
73	99	2
75	92	2
12	14	2
78	78	8
9	70	3
43	63	2
62	88	3
107	110	3
72	72	9
3	5	2
109	114	5
44	44	17
9	54	2
97	97	14
39	44	4
44	96	3
6	157	1
132	133	11
103	150	2
13	15	4
78	79	14
22	22	7
11	142	1
25	26	5
114	149	6
134	134	25
38	39	11
30	30	9
48	48	37
2	43	2
115	116	4
123	123	8
7	40	4
35	35	11
8	9	4
36	37	1
36	99	3
131	150	3
1	29	4
80	80	22
30	31	8
128	128	7
42	43	3
135	135	11
110	111	5
65	67	3
50	55	1
9	9	8
142	143	1
146	146	12
137	138	7
46	46	19
3	4	10
154	154	8
3	28	3
114	121	2
107	131	3
24	25	14
6	7	4
106	129	1
105	105	10
85	140	4
80	102	2
88	88	11
110	145	3
1	66	2
105	134	5
157	157	8
7	8	7
71	88	1
134	135	9
39	50	3
109	111	2
19	19	8
79	80	5
72	100	1
135	147	1
21	22	2
70	149	1
153	153	1
20	20	15
51	54	3
124	153	4
75	80	1
19	20	8
106	120	5
120	120	16
84	112	1
105	130	3
49	62	2
111	111	14
65	119	1
2	16	2
55	71	13
32	36	3
5	18	3
38	55	3
105	106	4
113	121	1
8	11	5
2	70	1
18	18	13
121	155	4
35	99	6
120	121	9
72	103	2
121	125	4
130	152	2
54	54	9
128	129	3
149	152	4
75	84	3
86	88	1
45	49	3
117	119	5
104	104	11
115	117	1
118	153	4
151	152	9
78	81	1
127	128	2
3	3	17
48	50	2
67	67	14
2	28	1
17	18	4
47	47	14
36	49	1
23	27	1
55	110	1
119	122	4
135	139	4
125	125	9
155	156	20
39	43	4
26	30	1
73	100	2
86	86	11
66	135	3
31	33	2
109	151	3
48	51	2
133	139	2
152	158	5
6	12	5
81	95	3
6	158	5
134	145	2
112	121	3
69	87	1
117	118	2
108	111	6
118	121	1
39	39	9
156	157	12
8	8	6
30	32	3
32	32	8
158	159	1
50	50	6
16	18	4
69	72	6
131	151	2
27	39	2
85	86	1
100	100	5
101	113	1
1	1	9
107	128	2
92	103	3
7	136	3
89	90	3
52	153	1
64	138	1
112	116	1
135	136	2
66	66	10
68	71	2
25	27	1
94	95	3
6	137	3
109	113	4
5	29	1
27	27	7
40	104	2
95	96	1
90	105	2
116	118	3
43	56	2
92	112	2
115	120	5
33	37	2
32	35	2
79	84	3
83	90	1
68	68	7
10	140	4
102	102	5
108	108	11
153	154	4
124	126	1
13	16	5
107	114	1
118	123	4
105	146	1
93	114	1
97	135	2
22	29	2
13	13	6
82	83	2
2	74	2
25	36	2
1	149	2
42	42	6
144	145	7
120	127	3
17	48	1
13	56	5
104	105	3
57	97	2
121	122	5
98	140	1
24	24	8
146	148	3
0	3	3
55	55	8
72	73	2
107	119	1
91	98	3
49	52	4
106	108	4
10	11	3
5	47	1
5	20	1
27	28	3
80	81	4
152	153	3
117	152	1
35	151	4
43	118	3
89	100	2
93	102	2
96	156	6
77	90	3
114	130	2
4	74	1
104	115	2
18	48	1
0	0	12
15	63	4
22	50	1
93	101	8
73	73	10
159	159	2
109	110	5
130	131	2
108	109	1
4	8	3
90	90	9
50	53	1
110	147	2
16	17	5
92	140	3
93	94	4
22	52	2
35	104	1
71	89	1
67	68	5
32	34	1
153	155	5
67	71	2
36	39	2
151	154	1
90	120	6
6	156	1
52	52	7
17	21	3
81	93	1
17	19	2
2	15	2
1	156	2
18	22	5
62	68	2
44	45	1
30	95	1
79	89	3
11	12	1
91	93	4
108	113	3
50	71	1
77	93	2
142	142	2
32	51	3
77	89	3
47	100	3
11	118	2
79	108	2
6	64	3
106	130	4
1	5	1
115	124	2
107	149	1
129	130	2
134	136	2
86	110	3
75	75	6
99	128	1
16	27	1
87	88	3
17	17	13
75	142	4
7	41	5
86	89	3
7	155	1
148	153	1
79	88	3
20	39	1
1	2	3
75	76	2
116	127	3
87	119	4
28	36	1
71	73	3
4	41	1
132	134	1
80	84	1
9	10	3
41	155	5
90	119	2
70	99	1
5	30	1
13	25	2
36	38	1
109	112	1
119	149	2
80	97	2
55	70	4
140	142	1
92	150	3
123	151	1
48	49	5
2	48	2
31	34	1
11	22	1
106	121	1
100	156	1
29	50	2
134	139	2
133	151	1
91	91	6
114	134	8
91	135	1
141	158	1
2	154	3
99	158	3
48	67	3
37	56	2
13	14	2
106	132	5
121	126	1
14	29	3
24	96	2
23	29	1
45	50	3
80	100	1
41	71	1
37	39	5
24	95	3
135	150	1
78	82	2
121	124	1
21	68	2
113	150	3
147	147	3
10	29	7
46	104	2
8	10	2
102	127	2
56	95	2
0	32	1
9	135	1
130	150	1
138	143	2
45	48	2
118	140	1
77	101	1
78	88	3
113	123	4
19	44	1
27	40	1
117	121	3
6	34	1
113	118	2
15	49	2
30	157	6
83	83	5
136	139	2
106	126	1
73	125	2
105	112	1
77	130	2
17	20	2
80	136	3
33	40	3
32	155	1
3	29	1
23	91	2
65	87	3
100	102	1
76	77	2
38	61	4
9	46	1
109	155	2
81	82	3
114	124	2
133	153	2
153	156	2
83	107	1
39	41	3
37	37	4
42	47	3
121	123	4
57	57	4
117	125	2
138	148	1
6	31	2
80	103	1
18	20	2
49	50	5
84	90	2
143	143	1
2	3	3
36	46	3
34	38	2
125	126	4
88	120	1
38	40	3
80	82	2
135	137	1
147	148	3
41	50	2
120	130	3
152	154	2
90	103	2
96	151	2
15	21	1
133	146	5
143	146	1
64	66	1
1	73	1
35	52	1
123	126	1
43	52	2
33	55	2
87	99	1
98	102	1
62	65	1
82	95	1
84	111	1
4	45	2
88	90	1
87	134	1
40	41	1
110	148	1
29	32	2
51	73	1
93	142	1
137	143	1
113	114	4
18	19	3
14	17	1
79	141	1
35	51	1
131	149	2
35	57	1
40	115	3
149	149	4
101	125	2
99	127	1
133	152	3
130	140	3
76	84	1
35	50	1
113	120	4
3	62	1
101	130	1
83	129	2
2	44	1
33	35	1
0	2	2
94	128	5
91	92	2
0	28	3
120	146	1
106	128	3
78	100	1
118	122	5
82	86	1
34	57	1
49	51	1
86	90	1
100	101	1
148	152	2
1	74	1
140	141	2
86	106	1
4	50	1
97	98	3
2	100	2
15	19	1
6	13	2
104	114	3
130	157	1
131	133	2
32	55	1
46	103	1
4	63	1
23	45	2
33	39	1
148	150	1
113	157	3
80	88	1
115	121	1
46	81	2
102	125	1
113	133	2
34	51	1
23	64	5
0	29	1
15	43	3
3	152	1
34	155	1
43	121	1
33	38	1
29	41	1
13	49	3
64	65	2
111	123	2
31	155	2
81	94	1
66	128	1
77	104	1
108	121	2
116	145	1
10	141	2
49	54	2
26	131	1
0	4	2
3	67	1
149	153	1
95	97	1
99	101	2
69	91	1
35	54	1
20	21	1
120	129	1
10	66	2
75	90	1
95	130	3
123	152	2
24	30	1
111	112	2
34	55	2
36	78	1
84	115	1
103	104	5
78	86	2
20	23	1
33	54	1
130	130	4
109	116	2
95	159	1
2	73	1
154	158	1
131	132	2
78	85	1
93	105	4
101	112	1
99	141	1
95	155	1
151	153	1
94	100	1
77	151	1
35	117	2
74	101	1
116	117	2
71	103	1
56	123	1
72	98	2
35	37	1
62	63	3
20	64	1
91	100	1
150	158	1
88	92	2
7	90	1
40	42	1
140	144	1
108	110	1
136	158	1
28	38	1
57	143	1
67	136	1
135	143	1
56	96	2
128	130	1
67	146	1
92	144	1
32	39	1
56	97	1
69	135	1
56	153	1
85	115	1
131	152	1
47	48	1
14	49	1
79	98	1
19	50	1
65	73	1
77	114	2
118	128	1
70	88	1
119	121	1
12	50	1
26	27	3
11	101	2
28	50	1
135	141	1
80	85	1
144	148	1
86	87	1
86	100	2
97	157	1
34	46	1
45	97	1
10	138	1
1	65	1
101	145	1
0	30	1
16	44	1
4	28	2
21	24	1
9	101	1
7	26	1
14	62	1
99	124	1
86	105	1
27	29	1
16	65	1
129	152	1
73	74	1
84	85	1
149	150	1
13	99	1
78	115	1
106	149	1
43	47	1
28	102	1
24	64	1
63	71	1
47	56	1
110	142	1
103	106	1
41	56	1
36	45	1
56	122	1
