80	80	6
55	56	5
42	42	4
9	9	6
88	106	7
72	72	6
4	4	5
39	40	3
71	73	2
79	79	4
20	20	6
10	10	2
130	130	5
104	105	18
61	61	5
127	127	3
128	130	2
17	17	7
67	68	5
34	34	8
126	135	3
104	124	1
125	125	13
103	103	5
112	113	8
1	1	10
58	58	3
28	28	10
116	117	5
75	75	15
74	75	6
126	126	2
136	139	2
29	29	3
70	70	3
27	43	1
116	119	2
37	37	4
39	39	2
10	40	1
122	122	3
126	127	1
82	82	4
141	142	2
74	74	6
140	140	1
79	85	1
134	146	1
101	102	5
95	95	1
133	140	7
96	97	2
21	68	4
63	63	14
81	137	2
109	109	7
50	86	5
56	61	1
72	139	4
143	143	4
120	126	3
115	115	8
97	97	5
57	57	3
120	120	8
51	52	5
133	133	4
83	107	2
115	121	3
113	113	6
50	50	6
86	138	4
83	84	3
59	75	2
134	135	6
59	59	9
110	110	3
20	21	2
3	3	6
5	5	7
87	108	4
123	123	4
67	67	3
87	109	3
5	36	3
65	83	4
57	58	5
36	36	12
53	53	13
112	112	5
0	0	2
82	136	1
106	111	1
47	49	2
76	78	3
25	43	2
75	78	1
121	121	12
121	122	3
137	138	1
41	41	1
22	42	3
14	14	3
114	115	3
92	98	1
92	96	2
131	131	3
30	30	6
104	104	11
136	138	4
28	30	1
35	35	3
14	15	4
98	99	2
81	81	1
25	25	4
16	26	3
19	19	5
107	138	1
32	32	3
68	112	1
47	48	4
84	84	1
106	128	4
24	53	1
138	138	2
83	83	5
79	82	1
131	139	1
108	138	2
86	86	3
82	106	3
120	122	4
27	27	3
23	24	1
119	120	1
21	21	5
3	34	2
88	89	4
83	86	4
51	51	4
103	126	4
106	106	8
105	105	3
78	134	1
88	111	2
12	32	3
87	87	1
132	138	4
141	141	2
108	139	2
55	55	3
86	113	1
56	56	3
114	114	9
23	42	2
88	90	2
108	132	2
1	38	2
17	19	2
49	137	1
136	136	3
99	100	1
82	139	1
27	29	2
91	91	8
73	73	4
85	102	2
128	132	1
77	78	3
31	31	5
126	140	1
18	18	3
133	135	2
71	74	1
38	40	2
144	145	2
19	20	2
108	142	4
64	65	6
61	135	1
13	13	6
104	106	5
24	24	3
69	70	2
68	68	2
50	113	2
111	111	3
132	132	6
2	115	2
78	140	1
8	8	4
13	34	2
93	93	2
11	11	4
23	23	2
128	128	4
58	60	2
116	116	4
77	79	1
6	27	1
47	120	2
77	93	1
19	23	1
112	118	1
30	31	2
107	107	6
120	121	1
91	129	2
52	52	3
62	63	4
54	56	3
60	60	4
38	38	1
129	130	2
33	34	1
124	128	4
1	6	2
93	94	4
92	92	4
48	48	2
64	64	3
5	33	2
71	72	4
2	3	2
96	96	1
54	54	2
27	51	3
102	103	1
77	77	2
109	138	3
80	109	1
49	54	1
63	141	1
125	126	1
33	33	2
23	47	1
66	66	1
84	90	1
115	118	2
135	135	3
112	120	1
73	92	2
108	108	5
91	131	2
68	136	1
124	124	1
43	43	3
130	131	2
102	102	1
115	120	3
12	12	1
73	74	1
91	98	2
120	123	3
30	33	1
49	114	2
76	79	1
109	110	1
134	140	1
87	89	1
51	65	1
5	6	2
89	89	1
117	117	1
82	83	2
37	40	1
103	124	1
69	69	1
52	53	2
105	125	3
62	62	1
16	16	2
90	90	2
132	139	1
71	71	1
144	144	1
2	13	1
109	130	1
13	27	3
21	33	1
39	48	2
1	2	1
74	76	1
29	31	3
49	49	2
2	2	1
24	25	1
135	139	1
135	136	1
137	137	2
98	98	3
32	34	1
6	6	2
106	107	1
15	15	1
67	79	2
49	113	2
20	27	1
142	143	1
89	128	1
49	53	1
27	30	1
101	101	1
113	115	1
39	41	1
101	103	1
118	120	1
64	106	1
93	98	1
88	92	1
2	16	1
76	76	1
40	40	1
65	66	1
91	96	1
9	11	1
