8	8	6
66	66	13
71	72	5
54	54	22
80	81	4
11	12	1
76	76	7
4	28	1
24	24	17
13	17	2
56	56	14
57	58	7
81	81	14
78	81	3
62	63	4
83	83	20
74	74	4
58	58	10
25	25	9
19	19	19
7	26	1
61	61	10
88	88	3
20	20	7
10	80	6
10	10	10
60	83	6
83	86	10
69	69	14
30	30	24
85	85	15
18	18	1
34	46	5
21	22	6
20	21	9
7	7	7
2	2	8
27	28	4
59	59	9
13	25	2
26	77	3
25	75	2
52	52	6
4	4	15
73	73	12
21	21	8
6	9	3
23	24	7
6	78	8
13	13	10
82	82	11
50	50	13
46	46	11
35	35	3
75	75	8
11	11	18
86	86	15
9	9	8
17	17	5
63	65	3
68	68	17
57	57	19
70	71	3
1	1	3
59	63	3
60	62	5
79	80	5
20	81	2
8	48	1
12	13	2
84	84	20
12	12	12
82	87	3
26	26	1
3	4	8
53	53	20
23	23	23
8	25	5
8	75	3
70	70	13
1	3	4
7	34	1
72	72	13
1	2	4
87	87	14
54	55	3
60	81	1
71	71	12
31	31	6
62	62	10
33	33	3
50	51	6
26	81	4
49	50	5
76	79	1
47	77	2
67	67	10
58	62	1
53	54	7
89	89	7
5	5	2
14	14	8
15	15	14
48	48	10
19	24	6
10	12	3
66	67	1
3	3	6
26	78	6
63	63	6
4	66	3
74	75	6
47	47	8
22	22	2
20	31	3
60	61	2
49	65	2
75	76	6
6	26	1
5	8	7
77	79	2
8	9	3
56	57	3
78	78	5
59	61	5
12	75	2
49	55	3
82	83	3
81	83	1
21	28	3
90	90	2
2	3	2
53	55	2
64	66	5
13	33	1
50	53	2
10	32	1
16	24	4
80	80	7
59	60	3
51	51	10
73	74	6
5	27	2
65	65	3
64	64	5
17	25	1
12	78	2
6	6	2
55	55	5
16	28	2
64	74	3
11	68	1
79	79	1
51	52	3
63	64	10
68	69	4
83	84	4
13	26	4
20	22	2
20	26	1
0	1	5
4	67	2
84	85	4
71	74	3
49	59	1
72	73	5
22	85	3
10	77	3
2	21	1
3	66	2
69	70	3
63	75	1
9	65	2
19	20	2
4	5	1
50	52	2
12	80	1
49	49	4
0	0	5
24	25	3
60	60	2
67	68	2
12	27	2
5	10	1
13	64	1
58	83	1
61	62	2
29	29	2
50	55	2
70	74	2
27	27	4
72	74	1
9	10	1
14	15	1
50	56	4
12	20	1
34	34	4
32	32	1
58	60	2
4	69	1
10	20	2
69	74	1
5	67	1
16	20	1
8	64	1
77	77	1
55	60	1
25	27	1
28	28	1
16	16	2
77	78	3
16	21	1
28	29	1
19	28	1
5	78	1
7	8	1
8	77	1
19	31	2
18	24	1
7	64	1
19	27	1
