101	103	2
57	57	7
120	120	4
5	5	3
100	100	5
12	21	2
108	108	7
113	113	2
170	170	11
146	152	2
94	94	4
5	6	1
88	120	3
158	158	3
53	53	2
41	41	11
170	171	2
110	111	7
130	130	8
143	143	9
103	103	6
160	177	3
120	121	5
6	28	3
42	42	6
18	22	3
117	118	2
161	163	1
162	163	2
40	40	4
73	76	1
8	8	4
88	89	4
29	68	2
44	45	3
72	72	8
59	59	6
83	149	3
94	138	3
53	54	3
87	140	3
43	44	3
159	180	2
173	173	4
154	154	4
181	181	6
167	167	7
131	131	2
167	168	3
90	144	4
7	7	2
127	127	4
131	156	1
169	176	4
127	128	2
33	33	6
0	76	2
112	112	1
163	165	7
40	95	2
23	24	4
11	63	3
55	55	6
10	11	2
149	149	2
141	141	4
15	15	7
65	67	2
111	116	1
62	62	5
182	183	2
58	118	2
64	67	5
74	74	2
157	159	4
138	139	3
129	130	1
169	169	2
86	86	4
73	138	2
47	47	4
27	27	2
14	15	1
139	139	4
78	78	3
157	157	1
177	177	9
131	133	1
75	76	3
56	56	1
172	172	6
43	70	3
182	182	4
163	163	7
55	56	6
89	92	2
159	167	1
179	179	10
60	60	10
59	61	5
168	171	4
170	172	2
137	145	3
54	56	9
81	81	5
75	75	3
184	184	5
102	135	1
126	128	3
76	76	7
77	77	3
156	184	2
64	64	7
23	23	4
66	66	8
175	176	4
2	2	11
136	137	1
178	181	3
124	125	2
116	116	1
10	10	4
140	141	4
96	97	1
13	13	7
178	178	5
6	53	3
28	28	4
4	5	10
171	173	4
26	26	1
75	96	2
162	162	3
145	145	1
22	22	8
181	183	4
179	180	3
42	43	2
35	35	3
28	68	3
31	68	2
152	152	4
158	168	5
148	148	1
79	83	2
4	4	9
106	106	4
131	147	1
161	161	2
17	17	5
83	83	2
27	64	5
160	160	6
186	186	7
41	70	1
48	70	2
81	82	2
144	144	5
54	57	4
118	123	4
104	185	4
39	40	5
171	171	1
125	125	4
62	63	4
146	149	1
104	104	2
87	87	6
44	44	2
6	6	1
11	11	3
166	167	3
94	136	2
5	27	3
5	7	3
180	181	6
18	18	9
43	43	2
4	56	5
20	23	3
96	125	1
41	42	4
177	181	2
67	83	1
57	118	1
122	122	2
147	147	2
64	66	1
190	190	3
134	134	1
95	136	2
52	52	2
32	32	3
153	153	7
167	172	2
87	89	3
118	118	5
121	121	1
70	71	3
118	119	4
135	144	2
80	81	3
125	128	2
109	111	1
25	25	1
88	88	4
12	12	4
174	174	5
82	82	1
147	148	4
161	167	1
115	115	3
153	154	4
33	34	2
125	126	4
14	21	4
133	133	5
157	158	1
66	67	1
156	156	3
119	119	3
165	165	1
81	107	3
16	16	6
65	66	2
117	117	2
84	85	1
106	107	3
121	122	2
187	187	3
3	16	1
80	120	1
68	80	1
36	36	1
119	121	3
38	38	2
29	63	1
142	142	5
54	54	2
0	0	3
16	17	1
36	38	3
85	85	2
19	26	1
27	28	2
24	25	2
142	143	1
61	121	3
11	32	3
68	68	2
44	70	1
185	185	4
17	18	3
86	92	3
187	188	4
102	102	7
1	2	2
84	117	1
107	107	6
120	141	3
118	137	2
129	129	2
37	37	1
134	135	1
0	49	2
139	140	2
139	144	1
18	19	3
76	96	4
188	188	2
54	55	1
74	75	3
92	92	1
19	23	2
166	171	2
20	20	2
95	95	3
56	57	2
46	46	4
1	48	2
150	150	1
7	129	1
60	61	1
139	160	1
7	126	2
35	36	1
180	180	3
99	100	1
89	155	3
166	166	1
159	159	4
85	88	1
48	68	2
80	80	4
145	152	2
159	160	6
181	182	1
138	148	1
158	159	2
105	107	1
34	36	1
138	166	1
24	24	1
29	29	3
145	154	3
107	110	1
129	135	2
93	93	4
79	79	8
2	16	2
12	33	1
183	183	1
96	128	2
48	48	2
60	68	1
129	134	1
29	30	4
124	124	1
147	155	1
175	175	2
108	109	2
39	39	1
140	144	3
58	58	3
10	28	2
63	63	2
73	98	1
115	127	1
137	137	4
11	12	4
85	123	1
111	111	1
185	186	2
3	55	1
168	169	2
172	173	2
61	122	1
0	1	1
7	127	1
40	102	2
0	95	1
153	155	5
52	54	3
152	153	1
45	45	4
68	70	1
148	149	1
156	175	2
11	47	2
1	1	1
154	155	4
89	121	2
88	109	1
11	31	2
128	128	1
84	118	1
151	151	2
160	161	2
84	84	1
87	88	1
150	151	2
16	31	2
19	19	2
15	16	1
180	189	1
163	167	2
19	24	1
64	65	1
109	110	2
45	46	1
37	38	3
30	30	1
128	129	1
26	27	1
138	138	3
146	146	3
37	46	2
44	105	2
114	115	2
189	189	1
83	125	1
24	55	1
78	79	1
71	71	1
14	14	3
90	90	3
164	165	2
171	172	2
117	120	2
19	27	1
90	145	2
86	93	1
93	112	1
10	49	1
18	21	1
85	118	1
105	106	2
123	123	1
96	96	3
72	98	1
99	99	1
58	121	1
112	113	1
74	98	1
88	110	2
133	167	1
101	101	1
97	98	1
177	178	1
58	61	1
110	186	1
134	145	1
155	156	1
89	91	1
93	136	1
132	132	1
40	42	1
118	122	1
98	98	2
113	186	1
12	14	1
86	87	1
176	176	1
105	105	1
88	90	1
89	120	1
34	35	1
14	33	1
13	33	1
86	122	1
115	116	1
