138	138	8
87	88	5
35	92	1
141	142	4
108	108	19
83	84	1
78	78	8
66	106	2
94	97	3
113	113	22
46	46	9
76	79	3
80	80	4
21	21	8
75	75	3
55	55	4
88	91	5
146	147	6
42	42	4
69	69	19
73	73	14
79	79	3
144	144	6
18	18	12
11	12	4
49	49	6
14	15	4
142	142	14
131	152	7
90	90	2
110	110	15
86	87	1
38	38	8
43	43	17
24	25	1
132	136	2
65	66	5
53	54	5
68	68	10
135	136	2
153	154	7
5	12	2
133	133	8
102	102	10
37	37	3
38	154	5
18	23	2
9	24	6
84	84	5
136	136	10
97	97	9
38	106	3
122	122	15
141	144	2
25	31	2
135	135	7
133	135	6
109	121	1
48	48	8
119	119	3
9	9	4
53	53	15
7	9	6
17	17	13
36	37	3
69	70	1
29	97	1
118	118	9
96	96	3
137	137	10
18	24	1
93	94	3
50	51	1
65	104	2
13	13	20
113	114	1
51	52	3
16	16	3
47	47	2
112	117	2
82	126	3
126	126	2
40	40	13
20	21	4
10	16	3
57	57	1
12	21	2
80	124	1
103	103	4
17	18	7
39	39	10
100	101	3
121	122	7
87	87	6
82	83	3
24	96	4
130	132	2
78	79	1
117	117	4
127	127	3
146	146	1
132	132	10
80	126	3
15	15	5
76	116	2
144	146	4
77	78	5
62	63	7
67	68	2
71	129	7
128	129	2
86	86	23
134	134	2
129	129	7
12	55	3
121	121	7
137	139	7
77	77	9
5	5	3
47	48	2
54	54	13
42	43	4
32	32	4
85	130	1
152	152	11
88	88	2
143	143	4
5	33	2
154	154	4
49	50	2
28	28	2
42	51	1
80	81	2
74	74	2
34	35	3
6	33	2
31	96	1
103	147	4
148	148	1
92	94	6
67	67	4
71	71	11
140	143	3
10	10	9
62	62	6
20	26	2
49	57	4
8	33	3
83	83	13
128	131	6
76	76	1
107	107	5
146	148	2
85	85	6
44	44	7
27	28	3
32	34	4
94	94	7
100	100	14
22	22	10
129	130	5
101	101	4
3	36	4
41	41	6
91	91	2
119	122	1
111	111	12
35	36	2
96	97	2
66	105	3
5	7	2
136	139	2
65	65	2
150	150	2
127	128	3
134	135	2
137	141	3
102	135	1
108	109	3
20	22	4
128	128	4
33	36	5
72	72	2
131	132	2
81	81	2
76	77	3
75	77	2
14	14	3
80	128	2
56	56	6
153	153	2
26	26	1
3	37	5
100	102	2
2	37	1
37	58	4
45	45	5
95	138	4
82	84	3
4	4	7
40	47	1
30	31	1
133	134	7
77	117	3
114	114	3
16	17	4
112	113	1
35	100	2
123	123	3
130	130	7
63	63	6
58	58	2
28	29	4
111	113	4
126	127	2
149	149	2
120	122	2
77	119	1
107	108	3
68	69	5
2	48	1
118	119	2
114	117	1
106	108	2
31	31	3
120	120	2
81	84	3
7	7	2
124	124	1
150	151	3
29	29	2
12	56	1
142	143	4
107	121	3
19	19	1
81	127	5
141	147	1
149	150	3
30	99	2
95	97	1
34	34	1
6	56	1
11	11	1
75	80	2
132	133	3
15	21	2
142	145	1
67	75	1
74	83	1
125	125	1
66	66	1
96	98	1
132	150	3
25	25	5
47	49	1
70	70	3
110	120	1
93	145	2
138	139	4
149	152	1
20	20	1
7	33	1
151	151	2
82	82	1
38	64	1
103	106	1
81	82	1
46	47	1
10	100	2
47	53	1
50	50	1
23	23	1
139	139	1
144	145	3
19	24	1
43	44	1
36	91	1
136	137	1
108	123	1
4	6	1
64	66	1
39	40	1
119	121	1
106	106	4
131	131	1
77	116	1
98	98	1
136	138	1
95	95	2
87	90	2
102	152	1
27	27	1
85	86	2
67	105	4
112	112	2
18	19	2
94	96	1
120	121	1
6	6	1
109	109	1
22	23	1
111	112	1
105	105	1
135	139	1
117	118	1
21	22	2
98	99	1
27	30	1
4	57	1
67	124	1
94	99	1
85	128	1
41	42	1
