132	133	14
0	3	1
5	5	9
33	60	1
68	72	2
113	113	12
69	71	2
10	77	1
33	33	19
29	82	2
81	102	1
125	125	11
99	119	1
79	80	9
69	69	7
123	123	11
63	63	16
93	99	1
115	115	16
131	131	17
79	79	17
74	74	12
108	109	10
19	19	7
6	6	15
45	45	7
19	108	6
55	55	7
2	2	22
114	114	14
110	111	2
18	27	3
2	7	2
58	58	16
131	132	4
124	124	6
19	55	8
77	77	8
106	106	28
95	97	2
97	97	5
82	82	12
111	111	23
99	99	2
108	108	11
32	77	3
8	11	1
116	119	5
62	62	15
123	125	2
17	47	3
97	98	7
81	86	2
103	110	3
46	46	10
1	1	5
4	19	2
46	65	1
102	102	9
62	65	1
112	112	7
107	107	19
21	21	8
57	69	4
13	13	11
65	65	13
83	87	5
9	12	1
132	132	10
44	45	12
25	25	5
33	45	3
122	122	5
1	44	2
96	96	8
103	104	5
4	13	3
18	18	8
62	75	3
9	11	2
117	133	1
130	130	3
50	50	6
9	9	14
23	23	16
98	99	8
127	127	10
56	56	4
66	66	16
126	128	4
20	20	21
42	42	18
41	45	2
22	22	6
110	110	3
42	47	2
38	38	9
19	21	3
26	27	11
133	134	6
78	78	9
91	91	16
57	57	1
19	20	6
128	128	8
70	70	2
85	88	5
99	111	4
64	64	9
122	128	3
125	129	4
35	37	4
62	134	4
66	67	7
104	105	7
109	109	4
93	96	3
47	47	7
65	66	2
36	39	2
109	110	4
72	72	6
61	62	13
36	36	10
85	85	18
93	98	3
90	90	7
62	63	5
12	12	10
94	94	10
66	75	1
4	6	4
11	11	17
115	116	1
32	32	5
14	19	3
35	36	7
90	111	7
83	83	11
107	115	3
81	85	2
96	131	3
21	22	12
90	102	4
32	83	2
7	8	6
91	92	5
116	117	4
60	61	6
76	95	3
0	47	2
124	125	5
73	78	1
121	121	5
17	87	2
43	45	2
0	1	3
120	123	5
51	51	3
34	34	9
4	4	10
41	41	4
43	43	16
68	70	3
34	70	3
32	42	5
60	60	16
39	39	9
105	106	5
34	37	5
120	120	19
88	88	6
30	31	5
105	105	9
15	18	3
7	7	4
17	23	7
67	67	20
112	123	2
24	25	3
30	33	3
79	91	1
31	33	2
81	81	1
18	20	4
30	35	1
3	5	4
34	41	1
117	128	5
84	85	9
85	86	1
62	108	1
76	79	2
17	17	6
15	27	1
22	24	2
118	118	11
70	71	4
5	7	2
37	37	9
126	126	7
82	84	1
133	133	13
55	56	5
101	101	5
18	86	3
48	48	2
16	17	8
77	78	2
22	27	8
56	132	2
116	116	11
95	96	3
36	37	1
14	14	8
8	8	8
100	105	4
99	100	4
102	107	1
12	13	13
73	73	16
24	24	9
93	101	2
119	119	6
78	80	2
43	44	2
123	124	3
76	76	8
11	15	3
35	35	7
11	61	1
77	88	3
71	124	3
18	30	3
74	82	1
129	129	8
27	29	3
122	125	3
93	106	3
25	26	1
41	44	2
63	64	2
81	87	7
117	134	2
67	118	3
94	101	1
123	127	1
10	41	2
27	28	4
83	88	1
102	105	1
80	80	9
69	70	6
80	81	2
15	15	7
68	68	11
100	100	5
130	131	6
128	129	7
46	72	3
70	125	1
127	129	2
73	75	5
73	74	6
111	113	2
27	27	6
9	15	1
62	67	1
98	100	4
48	60	3
28	29	7
75	75	7
87	91	4
5	89	2
7	11	1
16	20	3
79	86	6
98	98	12
28	28	16
101	103	1
25	30	2
76	77	1
134	134	9
68	69	2
96	97	1
12	63	1
124	128	6
60	79	4
114	115	5
44	44	17
12	28	9
92	92	3
112	114	2
93	93	10
37	38	1
21	26	4
96	129	1
80	130	2
0	0	14
117	117	7
69	115	4
90	91	6
59	59	3
54	55	2
121	125	2
11	31	5
7	15	2
99	130	1
94	97	1
16	16	9
49	110	3
116	118	3
29	38	3
70	120	1
105	121	5
41	43	3
30	34	3
71	71	9
102	121	3
95	95	5
78	82	2
68	71	2
3	3	9
62	64	2
124	129	1
22	23	3
47	48	4
74	110	1
9	10	5
82	88	1
122	124	3
66	118	2
55	58	6
5	8	1
100	101	4
4	5	5
61	77	4
10	10	10
30	32	1
70	73	5
6	8	1
14	16	3
15	21	1
65	68	2
40	40	4
15	16	1
102	103	1
74	75	1
79	103	2
74	134	1
59	79	1
71	73	1
58	61	2
94	134	2
78	129	6
13	78	1
132	134	2
31	31	1
121	122	4
0	44	1
130	132	2
95	100	1
106	112	1
38	62	3
7	12	1
18	57	3
45	70	1
108	111	4
102	113	1
32	33	6
88	108	2
8	10	2
103	131	1
83	85	4
38	39	1
60	67	2
24	26	2
90	92	5
78	79	1
108	112	2
40	41	5
73	134	1
61	61	10
82	87	3
98	104	1
114	119	1
11	12	3
78	81	2
64	66	1
3	6	2
33	34	5
57	58	1
61	63	3
38	63	5
117	118	6
85	87	3
57	68	2
5	6	2
60	133	2
87	88	2
6	14	3
56	59	1
115	118	5
84	84	9
21	25	5
112	113	3
51	54	1
57	67	1
40	47	1
46	68	1
71	77	4
114	116	2
51	56	1
46	64	4
94	96	1
70	72	2
104	121	1
86	87	2
126	127	5
79	85	2
77	81	1
20	21	3
125	128	4
92	105	1
94	99	1
118	119	2
69	116	4
124	126	1
12	78	3
126	131	2
110	113	2
111	115	2
70	77	5
42	43	1
15	17	1
98	108	1
94	118	2
28	31	1
45	61	2
119	120	3
101	111	1
94	100	2
45	64	1
3	69	1
43	46	1
121	126	3
19	27	2
127	131	3
129	130	1
10	12	1
3	57	1
72	127	2
112	125	1
19	24	2
103	103	5
96	134	5
84	86	3
23	107	1
39	45	2
17	20	1
14	17	4
76	78	3
82	93	1
59	60	4
31	34	1
0	7	1
13	20	1
3	118	1
30	30	4
96	116	2
21	23	3
20	84	1
80	106	1
74	77	4
17	19	1
40	61	1
108	116	2
60	70	1
67	71	2
92	101	1
92	102	2
107	108	1
18	21	2
28	79	1
17	18	2
125	132	1
122	126	2
22	26	2
64	65	1
78	93	2
35	38	1
44	47	1
2	8	1
63	78	3
16	37	1
90	100	1
83	133	1
11	14	3
87	94	1
33	37	2
127	132	1
47	66	1
71	76	1
33	43	1
38	41	2
92	95	2
107	129	1
18	19	4
29	29	3
23	24	1
49	49	1
16	21	1
70	124	1
39	40	4
22	25	1
26	28	1
59	61	1
38	44	2
86	86	4
119	126	1
4	20	2
31	32	1
101	102	1
80	89	1
114	134	1
34	43	2
112	132	1
126	132	2
10	11	1
49	133	2
131	133	2
16	90	1
12	25	1
112	116	1
29	31	3
9	56	2
26	39	2
6	7	1
96	121	1
86	88	1
37	60	2
71	72	2
45	49	1
58	95	1
87	89	1
127	130	1
46	57	1
81	82	1
87	87	2
104	104	2
92	93	1
123	129	1
45	47	1
74	78	1
86	102	1
14	105	2
89	95	2
29	30	1
2	74	1
99	131	2
15	30	2
63	68	1
63	84	1
20	23	1
94	95	1
31	109	1
119	125	1
35	45	1
72	74	3
105	130	1
11	17	1
126	130	1
18	24	1
68	116	1
116	134	1
30	110	1
13	27	1
120	121	1
58	99	1
10	63	1
76	125	1
30	42	1
44	50	1
46	47	1
122	127	1
45	46	1
61	64	1
103	130	1
95	98	1
