132	132	8
126	128	1
85	85	10
107	107	10
23	23	3
62	67	3
5	5	14
76	79	4
108	109	4
72	72	5
71	105	2
71	99	6
90	109	10
44	55	3
118	118	7
71	71	5
60	60	9
93	133	2
115	115	4
15	15	5
104	109	2
47	59	1
93	105	2
29	29	9
6	89	5
75	76	3
56	91	2
97	97	5
111	111	8
26	26	5
87	87	4
128	128	11
21	21	13
55	105	2
57	57	6
76	76	11
29	30	4
93	93	4
113	113	10
69	69	9
56	56	5
92	92	4
94	94	7
101	101	18
37	90	1
64	64	4
60	98	3
62	70	3
83	83	4
48	113	1
33	73	5
33	66	6
12	85	6
121	123	4
108	110	1
66	66	2
40	41	1
0	1	1
82	131	2
43	43	8
52	55	1
11	15	2
61	62	3
84	85	2
42	42	8
72	128	3
124	125	7
59	59	4
122	122	3
51	122	4
45	91	4
41	41	8
70	70	12
10	14	3
71	96	1
44	75	4
62	63	3
11	16	4
3	3	6
106	106	13
63	63	10
27	27	9
58	93	4
31	31	10
49	58	2
88	89	3
30	30	3
81	81	4
114	116	7
54	54	2
77	82	2
127	127	5
13	13	14
115	116	3
72	83	1
112	112	5
61	61	4
2	17	2
72	73	4
53	55	2
15	43	1
2	15	1
130	130	9
96	96	4
58	109	4
46	60	1
90	108	3
87	125	2
8	8	5
109	109	5
51	53	6
58	108	3
28	29	4
0	0	8
78	79	9
78	78	1
12	42	3
49	112	4
108	108	12
105	105	3
68	68	4
110	111	1
2	2	5
50	75	1
101	102	5
127	128	3
53	54	1
117	120	3
4	4	5
65	66	5
84	84	6
75	116	1
1	1	3
58	58	5
80	81	8
103	104	1
97	104	1
44	92	3
28	28	3
46	46	3
54	55	2
63	70	2
54	57	4
89	92	2
5	19	3
9	16	4
77	77	1
46	47	1
2	12	4
45	49	2
39	127	2
53	53	5
74	74	8
118	119	4
131	131	6
45	81	4
120	120	6
17	17	1
128	130	5
16	16	5
114	115	4
4	5	1
106	110	2
26	27	4
116	116	5
100	103	1
124	124	10
126	131	3
65	65	2
40	87	1
90	131	5
55	106	3
5	33	1
113	114	3
89	89	3
98	99	1
72	127	3
22	23	1
45	98	1
4	67	2
52	52	1
29	31	7
39	39	4
70	99	2
129	129	1
49	57	3
4	68	2
51	51	1
59	94	1
63	73	1
79	79	7
49	49	3
11	84	5
23	24	2
115	120	3
91	91	1
18	19	4
21	28	3
73	73	2
47	47	2
123	123	1
18	18	7
67	67	4
14	14	4
20	20	2
6	19	1
86	90	2
94	98	1
38	38	1
7	8	2
100	104	2
55	58	4
82	127	3
22	22	3
40	40	2
133	133	2
82	83	2
32	32	2
60	62	1
30	31	3
91	94	3
42	43	4
108	113	2
3	32	2
97	98	1
119	119	3
93	112	2
10	10	3
23	32	3
100	102	1
102	102	3
128	129	2
45	128	2
99	99	2
45	99	2
69	80	1
2	11	1
91	105	2
87	88	3
75	81	2
31	32	3
25	25	2
102	103	2
108	118	4
96	105	1
44	72	5
104	104	1
33	130	2
125	131	1
24	25	1
2	13	5
131	132	1
47	100	1
86	87	1
116	117	1
110	117	2
70	71	1
34	65	1
3	34	1
3	17	1
55	55	1
21	22	3
56	57	1
90	105	1
129	130	2
0	122	1
126	129	2
105	106	1
117	117	1
46	59	3
96	98	1
43	44	2
103	103	4
62	62	1
34	34	1
112	120	2
85	86	3
46	61	1
47	103	1
82	82	1
46	97	1
89	105	1
88	88	1
110	110	3
89	131	1
46	107	2
50	50	1
43	90	1
50	56	1
25	26	2
97	128	1
117	118	1
39	85	1
50	79	2
15	44	1
107	108	1
19	19	1
56	79	1
10	17	1
108	117	1
114	114	1
24	24	1
50	53	1
44	44	1
93	104	1
43	77	1
