48	53	2
46	63	3
44	44	3
95	104	4
34	41	2
67	67	10
93	94	2
92	92	9
99	106	1
94	94	7
55	80	2
42	42	8
66	66	2
95	95	5
80	83	4
23	23	4
62	69	1
98	99	5
84	84	1
75	76	1
65	88	2
80	105	3
70	107	1
33	44	1
53	106	1
97	105	1
98	98	1
20	20	6
101	101	3
58	58	7
46	46	2
91	105	1
61	61	5
99	99	2
76	76	6
38	41	1
26	27	3
74	75	1
97	98	2
26	26	4
27	28	1
42	44	1
93	100	1
22	22	6
87	101	5
87	87	7
89	89	1
59	60	3
27	45	1
92	94	2
85	87	1
77	83	2
34	34	3
65	65	3
91	94	3
42	45	1
87	89	5
91	91	9
48	48	1
51	51	3
90	90	3
82	83	2
39	39	1
40	40	7
47	47	4
35	42	3
88	88	1
31	32	2
83	84	2
62	77	3
100	103	2
34	35	1
64	95	3
72	73	3
28	28	2
102	102	6
60	60	8
32	32	3
69	71	1
37	53	2
64	71	4
87	88	2
68	68	1
56	82	5
32	48	1
37	38	1
53	73	3
48	55	1
50	70	3
88	94	3
87	106	3
83	86	1
79	104	2
46	49	1
30	30	4
31	44	2
63	69	3
31	40	1
23	34	1
48	52	2
50	51	2
52	52	2
82	95	2
55	55	4
106	106	1
91	104	2
103	107	1
77	104	2
59	59	2
79	80	6
73	86	1
38	38	1
67	90	2
57	61	2
39	54	1
60	64	1
31	31	6
87	99	1
86	86	2
85	85	3
48	56	1
35	35	3
104	105	1
25	25	1
24	24	2
62	82	1
36	36	1
57	57	1
43	43	2
29	29	3
95	96	1
61	62	2
97	97	5
60	81	1
93	93	1
65	66	2
21	22	1
64	64	2
53	92	1
51	52	1
38	49	1
66	67	1
33	33	2
90	91	2
90	105	1
79	79	1
101	106	1
60	72	4
71	71	2
74	74	4
96	98	1
71	76	1
61	85	2
80	107	1
75	75	1
24	25	1
29	30	3
58	64	1
36	37	1
26	36	1
69	94	1
52	75	1
35	39	1
65	67	1
92	98	1
54	55	1
43	44	1
50	50	4
87	104	2
45	52	1
100	100	3
56	56	2
29	57	1
61	76	1
63	64	1
54	54	1
55	68	2
37	37	1
69	69	1
50	68	1
105	105	1
89	97	2
66	69	1
68	89	1
104	104	1
