137	137	5
11	11	11
8	8	10
62	63	7
17	17	9
132	134	3
103	103	6
91	93	1
13	13	8
93	93	11
78	80	2
102	127	3
32	32	12
127	131	1
71	72	8
10	10	7
138	138	8
25	25	3
104	104	14
107	120	2
14	31	2
29	29	5
78	78	6
27	27	6
30	30	5
86	86	2
129	129	8
89	91	3
68	76	1
77	89	1
91	91	5
68	69	1
0	92	1
21	23	2
5	6	2
142	142	13
90	90	9
105	105	13
26	27	2
34	34	15
112	130	2
101	101	2
100	101	4
114	117	5
84	84	10
98	98	8
117	117	5
24	24	11
30	31	5
36	36	4
59	59	5
60	60	8
85	85	11
48	48	7
57	57	4
88	88	2
47	49	2
0	87	1
116	116	7
140	140	4
56	56	12
103	129	3
124	124	7
114	115	6
109	119	2
96	106	4
23	23	7
141	141	13
73	73	6
76	76	12
82	85	1
2	36	1
15	15	11
63	74	4
108	108	7
82	82	15
102	102	8
89	89	5
2	33	3
130	130	5
3	36	2
93	95	2
37	103	1
133	134	3
69	69	12
93	94	7
96	96	8
99	100	6
92	93	13
91	95	2
81	82	2
4	5	2
126	126	3
121	121	7
51	51	10
49	50	2
9	10	3
134	139	2
40	40	6
130	131	2
136	137	7
81	81	7
71	71	8
15	16	6
97	97	5
120	120	5
135	135	6
111	114	1
123	125	4
132	132	13
115	115	3
118	119	16
9	9	5
33	33	6
28	119	2
54	55	1
19	19	10
75	75	8
5	5	5
20	21	7
109	109	2
52	52	2
1	1	6
19	72	1
64	64	4
87	87	3
55	55	5
97	98	3
125	126	1
99	99	6
9	32	2
83	84	7
18	30	4
61	61	8
136	136	9
38	38	5
53	53	4
35	35	3
36	41	1
43	43	4
119	119	4
14	14	5
3	13	5
36	40	1
5	47	1
107	107	6
70	70	10
113	113	2
74	75	4
18	18	7
26	26	9
113	114	4
35	36	1
114	114	9
109	110	3
8	9	2
69	70	2
47	47	4
62	62	6
20	20	3
13	14	2
86	87	1
79	79	6
63	63	8
112	116	1
11	32	4
145	145	6
116	118	2
50	50	2
80	81	14
26	30	1
74	74	9
59	60	3
16	16	6
40	41	7
129	130	6
141	143	1
25	30	6
110	110	8
10	33	2
54	54	5
36	37	1
127	127	5
31	31	10
3	40	3
88	123	2
28	29	1
80	100	2
128	128	6
4	33	1
68	68	7
37	37	7
20	23	2
13	51	6
16	26	4
22	23	4
2	13	1
94	94	6
112	113	7
50	51	3
79	89	4
33	36	1
77	77	7
100	100	6
128	129	1
6	8	3
83	83	4
18	19	1
82	88	2
60	61	3
107	108	3
21	21	4
88	90	1
18	28	1
65	67	2
83	91	2
112	122	5
131	131	2
13	18	2
6	6	2
121	124	2
78	90	3
25	26	2
144	145	2
112	119	1
80	83	1
58	67	3
31	32	1
4	10	1
109	120	2
133	133	2
125	125	1
127	130	3
53	54	1
15	20	2
80	80	2
39	39	3
58	91	2
0	0	3
10	32	1
49	49	3
104	130	1
33	34	3
17	18	1
123	123	5
18	52	2
136	140	1
123	124	7
30	32	2
128	130	5
108	109	2
102	103	1
110	120	1
118	118	2
105	107	3
63	71	1
70	71	5
78	79	2
19	27	5
3	24	2
128	131	1
24	25	2
76	77	3
26	49	4
139	139	1
106	106	2
132	138	1
122	123	1
37	41	2
72	72	7
73	75	1
96	113	2
112	112	1
140	141	1
21	22	1
92	92	3
52	53	1
27	30	2
55	56	1
37	38	4
2	34	4
18	20	2
132	137	2
42	42	4
146	146	4
103	104	2
67	67	1
66	66	1
119	123	1
59	92	4
126	127	3
133	138	1
141	142	7
134	134	2
119	120	1
115	116	2
41	41	2
110	112	1
134	135	1
75	76	1
17	27	1
109	129	2
3	3	2
12	12	3
2	35	4
136	141	1
101	102	1
53	57	2
95	100	1
84	87	2
100	102	1
2	2	1
60	62	3
20	25	2
95	96	3
111	112	1
28	49	1
138	139	2
14	15	1
12	42	3
71	73	1
87	88	2
111	126	2
63	65	1
98	99	1
58	59	1
95	95	1
32	33	2
10	39	2
144	144	1
65	65	2
132	133	1
4	4	1
28	118	1
67	68	2
137	138	1
28	39	1
83	87	1
22	27	1
39	40	1
4	31	1
2	37	1
85	86	1
