108	108	3
13	14	9
115	115	14
124	124	10
99	99	15
121	121	7
35	35	11
110	119	3
16	23	10
7	7	7
15	15	9
91	91	9
75	75	11
13	13	8
109	110	5
110	111	8
26	31	3
85	85	15
82	83	5
28	29	3
95	95	8
67	68	10
4	5	3
19	20	7
117	119	6
49	49	17
64	75	1
64	65	7
18	18	15
52	53	4
119	120	11
79	80	6
129	129	5
11	12	3
1	1	9
65	69	3
122	122	10
8	54	1
2	2	11
135	135	1
30	30	7
118	118	7
116	126	3
5	33	3
59	74	3
0	0	11
74	76	2
44	45	2
126	126	3
74	75	5
29	29	10
60	61	4
19	19	2
123	123	6
60	60	5
63	63	2
32	32	7
89	121	2
32	63	4
122	123	13
53	53	8
121	124	4
103	103	12
22	76	4
22	23	5
19	21	5
77	78	9
127	127	9
113	113	11
58	68	2
128	128	10
110	110	14
76	78	4
28	32	1
19	22	4
37	55	3
114	115	3
49	50	8
55	55	7
98	98	9
76	76	14
125	125	11
93	93	8
62	62	2
22	103	3
101	102	2
56	57	1
46	46	4
17	18	2
58	58	4
24	26	2
120	120	7
112	113	3
84	85	3
84	86	4
43	47	2
102	102	7
27	29	4
23	24	2
27	28	4
61	65	2
14	62	4
82	115	7
32	34	1
73	102	2
112	112	13
68	69	3
54	54	8
116	116	9
92	92	7
82	85	2
36	36	15
26	26	16
9	9	8
27	27	3
86	86	11
134	134	10
44	56	3
104	104	10
59	59	10
119	119	11
55	78	3
132	132	13
117	117	9
54	57	1
98	122	2
133	133	6
84	113	4
83	83	8
88	110	4
94	95	7
61	111	6
5	25	2
11	13	2
102	104	3
111	111	13
38	38	3
114	114	5
20	20	3
89	90	6
127	128	5
123	126	9
113	114	1
131	131	5
109	114	1
108	109	10
23	43	2
43	48	3
7	52	2
86	87	6
54	55	2
63	87	4
104	105	2
70	75	3
121	122	5
56	56	7
23	23	5
87	88	1
26	63	2
61	61	3
14	15	2
67	67	8
14	14	13
61	105	3
97	97	10
34	34	9
60	64	5
73	73	8
94	94	7
70	71	5
5	5	6
22	75	3
55	117	2
77	77	4
90	90	8
124	125	3
84	84	4
26	28	3
83	84	2
27	120	1
78	78	3
45	46	2
91	95	1
120	133	6
57	59	2
93	94	5
7	14	1
32	33	1
52	68	1
70	70	10
3	5	2
125	127	2
43	43	3
89	89	1
31	31	5
81	82	1
8	8	8
62	63	2
21	21	9
109	109	2
22	22	6
57	57	10
66	66	5
33	34	5
79	79	3
4	4	1
72	72	9
97	98	2
107	107	9
121	129	2
106	107	5
11	11	2
19	30	3
31	33	1
64	64	2
7	9	1
24	24	6
65	93	2
16	16	10
57	63	3
108	110	3
61	109	4
115	116	2
9	52	1
68	68	3
44	44	2
72	77	5
21	77	1
74	74	3
28	28	4
80	80	7
3	4	2
87	87	5
52	52	4
4	32	1
132	133	3
69	69	2
12	13	2
34	35	4
128	130	2
59	65	1
59	60	4
130	130	1
5	27	1
57	67	2
86	113	1
50	50	4
16	19	3
106	106	2
16	20	3
3	3	2
119	129	2
33	33	4
58	60	1
106	129	1
10	11	3
71	71	3
11	23	3
93	111	1
18	65	1
12	12	2
18	21	1
14	74	1
130	131	1
8	10	1
87	105	2
9	10	2
37	37	3
126	128	2
45	45	2
25	26	3
82	106	1
117	120	3
69	96	1
123	125	1
55	56	1
123	124	2
53	54	1
105	134	2
128	129	4
22	69	2
22	67	1
86	115	4
98	99	1
97	99	3
91	93	2
72	73	1
91	92	4
61	63	2
9	16	1
57	58	2
111	115	2
16	17	2
27	64	2
13	30	1
107	129	1
61	62	1
91	98	2
15	16	1
87	110	1
87	111	1
96	96	1
60	111	1
116	119	1
60	62	2
129	130	1
51	51	2
6	7	1
7	8	2
65	68	1
121	123	1
109	111	1
17	98	1
29	30	1
132	134	1
23	103	1
59	66	1
58	59	1
20	98	2
115	117	2
26	27	1
11	29	1
84	124	1
29	71	1
92	96	1
100	101	1
53	65	2
116	120	1
1	2	2
42	43	1
76	120	1
21	22	1
21	28	1
86	110	1
1	3	1
117	128	1
92	94	2
79	88	1
50	51	1
15	48	1
131	133	2
63	64	1
117	122	1
81	81	1
64	122	1
100	100	1
34	54	1
71	90	1
26	30	1
103	121	1
62	88	1
18	43	1
92	93	1
91	94	1
