101	101	8
73	74	7
112	112	18
31	31	13
34	34	8
137	137	16
128	142	4
136	136	20
43	43	12
115	115	12
71	71	15
105	105	13
98	99	6
64	64	6
144	144	10
98	98	9
57	72	4
19	26	1
7	27	2
2	6	2
93	93	8
49	49	1
86	87	3
37	37	7
139	139	7
63	64	1
104	121	3
21	22	4
115	117	8
11	12	3
107	107	21
67	67	21
70	70	18
36	36	9
126	127	10
67	71	3
124	124	7
38	40	3
94	94	22
131	131	13
99	99	15
127	141	1
26	37	8
42	42	16
6	7	2
140	140	3
113	128	3
140	141	2
106	112	3
103	103	13
23	23	16
106	106	11
102	106	3
28	37	3
24	24	14
148	149	2
33	33	11
71	72	1
149	149	16
127	128	4
76	76	2
86	90	2
3	32	2
57	57	10
145	145	15
152	153	4
63	65	4
80	90	1
53	53	18
117	117	8
75	104	8
96	97	11
63	63	10
119	119	5
28	28	7
56	58	1
153	153	12
68	69	4
111	111	15
110	110	12
152	152	18
18	41	2
15	15	7
145	147	9
142	142	12
6	6	7
11	11	19
139	145	2
44	44	14
9	17	1
103	105	3
52	52	5
11	27	2
80	81	7
78	95	3
16	16	9
146	146	21
45	45	4
118	118	12
138	138	20
148	148	9
38	39	6
116	116	6
109	109	19
141	141	14
119	121	4
154	154	13
20	22	5
73	73	11
96	115	3
19	19	11
69	92	1
49	53	3
77	78	10
108	108	6
83	144	4
68	68	21
66	67	1
107	108	12
7	10	4
57	67	2
86	86	3
46	46	16
74	74	5
70	71	2
5	5	10
41	41	11
118	119	6
55	55	9
71	109	1
41	44	3
47	67	1
53	55	1
6	31	2
127	150	1
102	142	8
71	118	3
82	82	6
15	21	1
94	118	3
75	75	7
50	62	1
124	145	2
29	29	14
4	49	2
16	38	2
83	83	14
130	147	1
150	150	18
18	18	18
48	48	20
40	56	1
125	126	2
87	87	7
5	34	5
114	114	18
120	120	9
71	107	2
49	133	3
102	111	9
121	121	11
84	84	11
85	96	3
28	29	2
30	35	1
90	90	2
16	17	10
39	39	25
53	135	5
35	36	4
10	12	4
22	32	1
83	141	2
80	80	10
5	31	2
134	134	17
62	97	2
56	56	5
124	146	3
24	40	2
72	73	2
3	22	2
72	104	1
32	32	5
128	149	2
27	27	8
93	110	4
124	138	5
123	123	5
10	26	2
113	113	14
11	30	1
151	151	13
25	25	11
111	112	2
40	40	21
53	54	2
128	128	9
3	3	7
64	65	1
27	31	6
110	111	6
133	135	5
129	129	16
8	11	2
137	143	5
87	92	1
86	115	2
113	114	2
38	38	7
143	143	6
12	36	2
31	51	2
139	151	4
133	133	17
88	103	1
49	50	2
19	21	2
147	147	9
96	98	1
81	82	2
142	150	1
13	13	19
104	104	7
8	33	1
2	19	2
135	135	13
17	33	1
77	85	5
116	117	1
13	45	1
132	132	13
36	38	1
36	147	9
96	96	8
103	104	2
47	47	13
5	22	1
21	21	15
55	75	1
40	44	5
122	122	3
4	28	1
77	108	1
11	13	3
72	103	1
149	150	10
84	101	2
35	58	4
97	97	4
111	143	1
87	110	3
142	143	5
95	95	11
111	133	4
55	150	2
44	45	4
79	79	11
73	103	2
17	38	3
30	30	9
147	149	1
72	91	1
124	130	3
123	124	4
144	145	2
14	30	4
100	101	3
27	28	3
48	67	2
75	77	5
22	22	6
12	12	7
22	23	1
77	77	6
79	92	1
53	97	2
4	4	16
87	122	5
32	46	2
14	26	4
130	137	3
43	44	1
91	92	1
43	45	3
123	138	1
130	132	6
35	49	3
67	73	1
111	114	4
105	117	3
136	137	4
30	36	2
140	142	4
33	37	4
69	69	4
115	126	1
23	30	6
3	25	3
79	80	1
7	7	9
149	151	2
65	65	3
130	130	16
102	102	4
84	85	11
10	10	7
147	148	2
26	41	1
41	42	1
27	30	1
122	124	1
35	56	3
71	112	1
34	35	1
106	110	2
107	109	2
61	104	1
75	100	3
146	148	1
50	52	2
26	30	1
71	73	1
138	139	5
131	151	3
81	102	2
4	41	4
82	83	2
124	150	8
142	145	3
127	127	12
12	17	3
6	10	1
99	104	2
119	120	2
17	17	10
62	63	3
124	125	4
4	20	2
138	141	2
72	74	2
16	36	1
80	83	2
37	39	2
106	109	1
106	131	1
75	114	2
66	75	2
80	123	3
8	8	12
129	130	2
11	15	2
37	38	5
45	46	5
14	14	9
8	9	1
54	54	14
15	26	2
105	130	2
74	75	5
92	92	4
25	33	1
3	4	2
93	94	1
74	78	1
48	52	1
5	8	4
20	20	2
9	21	2
45	54	1
85	86	5
100	100	7
33	34	1
53	69	1
27	38	1
125	125	3
142	146	2
122	123	4
48	49	3
66	66	4
47	49	1
83	84	3
99	132	5
143	146	1
112	113	4
67	78	2
117	135	3
67	74	4
145	146	6
136	138	1
85	134	1
64	68	3
9	9	3
47	48	1
14	15	1
5	35	1
91	106	3
143	151	1
131	152	1
3	6	1
31	36	1
56	57	2
102	136	1
7	8	2
125	148	2
68	102	4
3	49	1
121	122	9
43	58	2
21	37	2
54	55	1
90	108	2
81	81	1
115	118	1
34	37	1
73	75	3
69	70	5
8	56	1
110	112	2
92	93	2
139	140	3
20	21	5
15	16	1
51	51	2
109	119	3
109	110	3
52	57	1
9	11	4
19	37	1
48	50	1
34	36	2
85	85	4
78	86	3
88	88	7
108	109	1
125	142	1
54	67	3
82	101	2
32	151	4
46	47	3
106	107	1
18	20	1
75	76	4
17	18	1
41	43	8
7	12	1
79	102	1
73	119	3
37	54	1
5	6	2
80	86	1
97	113	1
12	37	1
83	103	1
36	37	2
87	90	2
19	29	2
79	87	3
114	127	1
71	83	2
146	147	3
26	36	1
99	133	1
37	50	1
85	87	1
23	29	1
119	125	1
141	144	1
64	82	3
42	44	1
21	23	3
118	153	1
31	32	1
4	6	1
63	68	2
10	11	3
105	115	1
4	50	2
32	50	1
111	125	1
5	29	1
14	45	2
8	32	1
99	100	2
76	81	4
79	84	6
8	27	2
141	142	1
126	136	1
39	40	2
143	144	2
94	112	1
92	111	2
137	150	1
31	52	1
23	34	1
29	30	2
140	145	2
48	51	1
126	126	1
9	12	2
48	55	1
63	85	2
35	35	2
111	120	2
64	105	1
139	142	1
108	115	1
110	133	1
103	106	1
44	56	1
150	154	1
12	13	3
149	154	1
93	109	1
120	122	1
26	27	1
110	114	2
126	128	2
137	138	1
50	50	4
10	29	2
63	76	2
80	104	1
56	69	1
117	131	3
18	19	3
120	121	1
129	154	1
61	63	1
4	36	1
28	32	2
111	131	1
78	78	2
26	33	2
3	31	1
62	62	3
150	152	3
32	35	2
48	62	1
96	100	1
150	151	2
36	50	2
76	107	1
15	17	2
45	49	2
106	125	1
45	57	1
75	79	1
62	77	1
95	111	2
66	87	1
89	90	1
25	69	1
78	79	2
144	147	1
13	15	1
79	81	3
24	26	1
30	31	1
26	31	2
94	110	1
129	131	1
124	128	1
9	23	1
9	10	2
105	121	1
128	131	2
123	145	1
83	85	1
139	149	2
135	148	1
4	35	1
129	135	1
92	96	1
26	46	1
126	137	1
42	43	1
28	43	1
101	113	1
92	108	1
55	66	1
125	128	1
93	100	2
112	143	2
132	133	1
23	24	1
55	56	1
9	28	1
36	43	1
24	57	1
24	25	1
114	134	1
57	102	1
109	120	2
147	150	1
58	58	3
31	33	1
4	5	2
88	108	1
5	27	1
73	76	1
26	49	1
104	105	1
34	58	1
125	140	1
76	77	1
89	120	2
142	144	1
73	88	1
94	98	1
111	117	1
115	116	1
135	137	1
5	64	1
22	28	1
10	27	1
10	13	1
48	68	1
42	57	1
40	53	1
96	118	1
20	26	1
