89	89	5
128	128	6
95	95	3
77	78	1
88	95	1
3	4	3
113	113	1
37	37	4
81	81	7
92	108	11
97	97	4
83	100	1
86	103	3
110	110	4
90	115	3
32	32	7
107	107	5
34	34	10
94	124	5
125	126	2
31	31	1
102	106	4
36	36	5
91	93	13
96	116	3
30	30	4
26	26	6
104	107	1
26	29	2
101	106	3
32	33	2
115	115	3
0	14	3
0	0	3
74	88	5
73	75	1
2	2	4
12	18	2
129	133	5
77	77	6
10	14	8
130	130	2
118	129	2
93	98	1
6	6	2
98	98	5
87	87	3
133	133	1
111	121	2
116	116	5
87	95	2
72	76	1
14	26	2
115	126	1
115	122	2
0	16	5
94	94	3
70	71	1
71	71	2
138	139	4
22	22	5
33	33	7
14	18	1
3	15	1
85	85	2
78	78	2
119	123	1
120	120	3
38	38	2
18	18	2
2	6	5
120	125	2
82	89	2
5	5	6
13	13	2
11	11	4
129	129	9
76	76	14
4	10	2
0	3	6
13	14	1
108	120	2
14	14	3
132	133	2
99	116	4
115	116	4
10	18	1
127	128	5
95	100	2
87	102	1
86	99	2
120	132	1
108	130	1
88	88	4
103	120	1
119	119	4
92	92	2
25	28	1
99	102	4
118	133	2
5	6	6
8	38	1
111	131	1
24	28	2
104	104	8
10	35	2
79	89	1
77	80	2
114	114	5
9	23	1
112	121	1
78	79	2
131	131	2
91	92	1
108	108	2
106	107	1
109	109	2
91	102	1
82	106	3
73	73	1
89	106	1
13	16	1
12	24	3
8	17	1
29	32	1
28	75	3
86	115	2
125	125	5
77	85	2
7	19	1
10	10	1
118	118	2
12	12	1
17	17	1
81	113	2
97	98	1
91	91	5
9	9	1
104	118	2
109	131	1
134	135	4
25	25	1
121	123	1
30	32	1
83	98	2
72	72	4
117	117	1
108	117	2
122	122	9
27	27	2
100	132	1
17	18	2
4	26	2
126	126	1
84	112	2
114	120	1
87	115	1
35	36	1
10	21	1
99	103	1
110	113	1
11	28	2
80	80	3
8	23	3
123	123	4
7	10	2
112	127	1
11	24	2
21	22	3
5	17	2
82	82	1
105	131	1
88	122	1
21	36	1
1	9	2
134	134	2
132	132	1
117	121	2
78	80	1
3	3	1
83	83	1
12	13	2
103	105	1
93	94	2
22	25	1
90	90	3
111	111	4
88	89	1
92	98	1
2	3	4
99	118	2
112	126	1
114	124	1
121	122	1
108	116	1
108	110	1
139	139	3
28	29	2
124	124	3
101	101	1
82	91	2
77	106	2
78	107	1
32	36	1
114	130	1
12	15	2
87	99	2
92	101	2
125	127	2
1	28	1
9	11	2
21	28	2
105	106	2
79	81	1
30	34	1
10	34	2
87	120	1
109	128	1
90	97	3
44	44	1
120	121	1
12	22	1
94	102	1
138	138	2
128	130	1
99	99	2
83	85	1
86	88	1
84	84	2
115	131	2
135	135	3
93	116	1
90	118	1
6	14	1
84	93	1
126	127	1
96	96	2
112	112	1
106	106	1
33	37	1
80	85	2
83	94	1
101	111	1
0	32	1
31	32	1
19	34	1
108	128	2
77	94	1
77	99	1
5	15	1
71	84	1
94	110	1
7	7	1
17	21	1
108	119	2
20	20	1
29	31	1
35	35	2
8	28	2
99	128	1
114	123	1
112	118	1
102	105	1
133	135	1
74	74	1
94	103	1
5	20	1
