63	63	11
36	36	8
95	107	6
13	13	8
83	85	4
44	44	4
0	0	2
95	95	12
85	85	3
110	113	2
109	109	1
61	77	2
15	16	2
67	67	2
37	37	4
114	114	9
67	69	2
96	96	1
90	94	3
113	113	5
54	54	2
118	118	8
123	123	8
92	106	5
75	76	2
92	107	2
65	69	1
26	44	2
74	75	1
21	21	2
73	73	8
31	34	2
117	121	2
122	122	4
135	135	1
116	116	12
10	10	5
18	19	1
62	79	3
3	4	3
84	85	2
78	78	2
120	121	2
134	134	3
111	111	7
106	106	1
53	54	2
25	25	2
12	12	9
57	57	2
79	87	8
3	5	1
132	132	4
45	45	2
93	105	2
98	98	1
20	21	4
59	59	6
21	22	4
66	67	3
89	89	6
62	62	2
22	22	7
105	130	2
105	105	2
11	11	10
30	30	3
29	29	8
64	64	5
121	121	1
1	1	3
58	59	1
102	102	5
50	52	3
56	56	3
5	5	5
45	46	2
82	82	8
61	78	1
75	75	3
128	129	2
58	58	3
20	22	3
93	93	4
91	91	5
18	18	4
72	72	2
38	39	1
128	128	2
97	99	2
30	71	1
124	127	2
1	2	2
101	104	4
29	43	3
74	74	2
99	99	1
96	97	2
15	17	2
112	113	1
89	90	1
71	71	1
103	103	4
68	69	5
53	56	6
8	8	10
108	108	2
68	68	3
101	103	2
54	56	1
126	126	3
95	104	2
23	23	1
64	66	2
35	39	4
83	110	2
117	120	7
29	32	2
2	2	2
1	36	4
88	95	3
132	133	3
125	127	3
65	68	1
3	3	3
119	120	1
16	16	1
109	110	1
108	109	3
35	35	2
63	78	1
10	24	1
60	75	2
3	44	1
44	45	4
105	108	3
55	55	7
34	34	5
130	131	3
99	100	1
92	108	2
43	43	1
92	109	1
127	127	2
69	69	3
73	74	1
62	78	2
49	49	3
26	45	1
55	56	2
1	3	1
63	72	1
119	119	1
24	24	1
111	112	2
27	27	4
114	133	1
124	125	3
4	23	2
46	47	2
86	87	2
106	107	1
9	10	2
108	133	1
54	55	3
79	86	1
112	128	1
90	93	1
101	101	1
2	4	1
90	90	1
65	65	1
14	14	2
29	35	2
20	20	1
1	5	1
81	109	1
66	66	3
9	11	3
96	99	3
129	133	2
52	66	1
125	125	1
130	130	2
107	107	3
19	19	2
72	76	2
114	115	2
80	80	4
62	72	2
35	46	1
120	122	1
4	5	1
78	87	2
116	117	1
65	66	1
52	64	1
86	86	1
3	25	1
9	9	1
4	4	1
32	35	1
1	35	2
56	57	1
28	28	2
97	97	2
87	88	1
92	92	2
32	32	1
113	115	1
5	9	1
16	18	1
121	122	1
88	90	1
0	25	1
62	87	1
87	87	1
115	115	1
93	108	1
54	57	1
112	112	1
29	51	1
