135	135	3
45	45	5
87	88	7
140	141	2
71	112	6
14	15	5
50	50	6
34	34	7
2	2	7
156	156	3
112	112	5
121	121	9
130	130	5
81	81	4
165	165	2
130	135	2
152	166	3
69	151	3
127	129	3
90	90	7
104	104	2
3	3	6
137	137	5
118	118	6
70	70	4
153	154	6
80	81	3
47	47	2
22	24	4
72	84	2
55	55	3
113	113	4
40	40	8
91	134	3
68	68	7
41	41	3
141	164	2
143	143	3
44	45	3
17	18	4
92	92	6
84	84	3
124	166	4
9	10	4
43	43	2
6	6	7
77	77	2
170	170	2
35	35	6
4	5	4
8	8	6
56	57	2
159	160	1
38	38	8
76	101	2
142	142	3
107	119	2
22	22	2
93	93	4
108	109	3
116	119	5
93	95	2
96	96	4
128	128	4
44	44	3
80	87	6
105	169	4
52	53	5
39	40	4
75	146	3
129	129	3
27	27	3
71	150	1
151	151	3
94	94	2
70	85	2
113	114	3
156	157	2
128	129	3
79	79	2
34	35	5
169	169	6
11	12	2
64	64	2
155	155	3
42	42	4
51	114	3
160	160	2
6	48	2
13	105	4
58	58	1
54	54	1
167	167	2
49	49	3
82	82	4
19	19	5
76	104	1
133	133	4
20	20	1
1	1	3
102	103	3
89	89	3
26	26	5
151	169	1
63	63	6
129	130	3
160	161	4
121	122	3
109	109	2
43	44	2
127	132	2
71	71	5
77	90	2
146	147	5
110	111	6
122	122	8
154	154	4
65	65	3
116	116	6
158	158	8
0	14	3
5	5	4
6	8	2
25	25	2
37	38	1
139	140	1
88	88	4
17	17	1
48	48	1
42	43	3
37	37	11
66	66	6
150	150	1
12	53	2
163	163	4
143	144	2
86	86	3
161	161	3
127	137	2
152	152	5
78	78	3
104	168	2
46	81	3
115	115	2
108	158	2
21	23	5
119	120	1
106	106	1
134	134	5
4	4	5
7	8	1
110	115	1
138	138	2
115	166	1
169	170	3
168	168	2
98	98	5
11	76	1
97	98	1
62	62	3
74	74	3
83	83	3
166	166	1
15	15	3
4	160	2
131	131	4
136	137	1
135	140	1
99	125	1
124	124	1
132	133	3
119	119	2
57	57	2
99	100	2
45	46	1
100	101	1
132	132	2
110	110	1
20	21	2
152	153	2
1	85	3
16	57	3
53	55	1
51	115	3
164	164	2
97	142	3
102	102	1
127	146	1
157	157	1
53	54	1
126	146	1
51	51	2
97	101	3
113	115	1
112	114	1
81	82	3
63	120	2
85	85	5
112	166	2
36	37	2
7	14	1
14	14	1
108	108	1
75	142	1
115	116	1
167	168	1
97	125	2
74	76	1
35	36	1
91	102	1
126	126	1
91	91	1
36	36	1
71	72	1
120	120	1
130	131	2
62	64	1
136	136	2
73	73	1
69	69	2
46	47	1
23	27	1
134	137	1
99	123	1
44	51	1
3	13	1
162	163	1
52	52	1
109	123	1
101	101	1
18	39	1
147	147	1
75	75	1
