105	105	5
120	120	9
10	10	6
19	19	2
26	53	6
131	131	5
53	53	24
92	92	6
69	69	4
81	81	2
91	91	7
118	118	2
15	101	3
54	80	2
63	74	5
10	11	3
31	31	10
72	72	3
87	87	5
129	129	6
79	79	6
23	23	3
124	125	4
60	83	2
9	93	1
120	121	1
117	117	2
65	67	2
71	71	13
75	75	3
127	129	4
71	75	2
115	115	3
67	69	5
21	21	3
49	50	1
123	123	2
126	126	4
32	33	2
106	106	3
110	110	2
9	9	3
11	11	1
29	29	3
50	84	2
134	135	2
102	119	3
5	6	3
98	98	7
45	45	3
115	116	1
11	87	3
116	116	7
11	95	2
112	117	4
74	74	11
111	113	4
135	135	4
99	99	3
114	116	6
16	17	2
65	65	2
14	14	5
106	124	4
61	81	3
18	19	3
64	64	6
52	80	1
6	88	5
18	99	3
22	22	3
134	134	6
15	15	3
38	38	2
96	96	7
36	36	2
123	125	1
97	101	2
1	2	3
111	111	4
73	73	15
85	87	2
3	3	7
54	54	1
94	94	4
100	100	5
107	107	1
44	44	2
91	117	2
77	77	7
95	95	3
119	119	4
29	30	1
86	86	2
132	132	1
130	130	9
12	12	7
55	55	4
62	62	6
48	56	4
33	53	1
33	33	5
13	35	3
49	49	3
43	43	5
1	3	1
12	22	2
5	5	5
70	70	3
94	97	2
51	62	3
17	101	1
90	128	3
3	5	2
36	52	1
56	56	1
47	83	3
127	127	2
32	32	2
65	69	4
1	5	4
102	120	9
28	31	3
13	14	6
16	16	3
13	36	2
89	89	1
14	24	1
103	104	5
85	85	3
133	133	3
36	53	2
13	13	1
83	83	1
66	66	1
7	16	2
9	95	5
103	103	3
86	87	1
115	128	3
37	38	2
94	95	1
13	37	1
28	28	1
62	81	3
49	85	5
91	92	2
79	84	1
33	35	2
13	28	2
122	122	4
24	24	3
30	30	3
7	7	5
121	121	2
26	26	2
110	113	3
0	52	1
32	36	2
52	85	1
15	22	3
127	128	2
82	83	4
56	83	1
78	78	1
9	10	2
108	108	2
109	109	2
17	17	1
16	22	1
76	76	1
60	60	1
78	79	3
87	93	1
11	94	2
13	25	2
102	102	2
106	107	1
80	80	4
1	4	1
26	36	2
2	4	2
72	75	2
67	67	1
8	10	2
105	125	1
8	8	2
104	104	1
27	27	3
25	25	6
1	16	2
26	47	1
2	9	1
90	90	1
113	119	2
95	96	1
118	120	1
2	3	1
24	25	1
1	34	1
8	97	1
90	118	3
14	25	1
64	65	1
34	34	2
68	68	1
26	32	2
112	113	2
0	5	2
9	11	1
112	112	3
4	4	1
95	118	2
127	130	1
82	82	1
102	103	1
67	75	1
130	132	1
59	82	1
61	63	1
119	120	1
80	84	2
48	48	2
50	50	1
61	61	2
101	101	4
12	25	1
19	20	1
54	83	1
32	35	1
8	85	1
60	82	1
42	42	1
71	78	1
15	23	1
12	15	1
13	24	1
2	2	1
