166	167	5
11	11	21
162	162	25
32	33	4
122	122	25
90	152	5
109	109	34
75	75	39
1	1	9
76	171	7
150	150	24
149	149	36
78	78	24
113	113	23
21	21	19
24	24	12
30	30	27
114	114	12
96	96	27
160	161	6
151	151	8
130	130	17
123	123	7
40	41	11
159	159	16
169	169	13
158	158	41
127	127	21
73	73	30
84	93	2
153	153	27
45	46	5
7	7	11
132	134	2
157	157	42
91	91	33
94	95	6
79	79	17
111	111	26
160	160	31
115	139	7
26	76	3
164	165	13
6	6	21
128	142	3
145	146	1
99	141	2
139	139	10
115	115	25
146	146	28
82	137	2
132	132	22
44	44	21
131	131	25
121	121	17
66	66	39
151	152	3
31	31	10
80	80	18
1	3	4
8	9	16
135	136	9
173	174	2
141	141	16
33	34	9
60	61	17
97	98	10
9	9	19
80	81	10
15	15	28
167	167	32
22	23	6
150	159	1
84	84	18
4	6	3
76	76	27
1	4	2
0	0	13
152	153	8
137	137	21
87	87	11
155	155	9
78	80	5
145	145	18
108	108	16
104	104	13
4	44	4
164	164	12
168	168	31
148	148	20
68	68	8
87	89	5
82	83	12
161	161	13
133	133	26
85	88	7
19	45	8
157	158	9
61	61	37
50	54	2
73	74	10
177	177	4
52	52	21
35	35	10
142	144	7
88	135	2
120	120	22
172	173	10
5	5	17
55	55	16
127	128	4
2	3	10
30	44	1
71	163	2
140	141	3
42	42	20
148	153	4
134	134	31
3	3	7
174	174	22
178	179	10
36	36	9
156	156	16
34	37	2
82	82	19
167	168	8
86	134	3
117	117	11
91	101	5
107	107	16
85	86	7
29	29	19
1	55	3
105	105	23
90	104	9
33	41	5
130	131	5
133	134	9
62	62	27
2	2	14
54	157	4
96	99	1
85	85	22
61	150	2
101	101	18
103	104	11
107	108	6
23	23	15
76	77	14
7	9	7
20	20	6
103	103	13
118	119	3
10	10	21
100	100	18
142	142	13
45	45	12
123	124	9
71	71	15
126	140	1
88	151	5
13	13	31
37	37	18
171	171	6
129	130	19
65	65	22
51	115	6
4	43	3
99	100	1
127	133	2
27	27	16
154	156	18
116	117	6
8	8	13
175	176	10
138	138	11
90	93	1
64	64	9
113	114	8
163	163	25
0	1	2
152	152	15
12	14	5
17	18	5
91	93	3
56	123	1
38	38	16
99	99	16
17	17	16
144	144	25
53	53	16
55	56	7
81	81	11
175	179	1
14	14	11
17	31	3
122	123	3
24	25	2
84	173	11
120	145	2
101	112	1
129	131	1
124	124	9
110	110	17
77	77	19
9	11	5
90	90	10
123	136	5
43	44	3
88	88	26
128	128	11
89	89	16
81	115	3
92	146	13
21	44	5
36	39	4
7	54	6
74	74	10
52	72	5
127	142	5
50	50	14
72	72	13
112	116	3
157	160	1
26	27	6
173	173	27
150	170	2
170	170	16
18	45	2
28	28	27
14	15	8
143	143	18
74	78	1
67	67	7
87	105	4
54	54	24
163	166	7
177	178	5
0	6	1
35	36	8
15	16	6
41	42	6
88	89	10
9	54	2
63	63	13
22	22	13
140	140	13
4	4	20
95	95	24
56	56	16
120	121	6
41	41	11
133	149	3
159	162	1
104	105	9
106	117	4
168	169	7
172	172	11
88	101	6
93	121	2
56	57	6
37	38	6
124	125	3
126	126	20
150	162	2
25	25	17
85	89	4
86	89	3
12	45	1
4	5	6
97	97	18
139	142	2
18	18	7
86	87	12
14	16	1
75	76	2
147	148	5
105	107	8
131	168	1
104	107	12
105	106	12
7	8	4
107	156	4
125	125	17
82	134	2
74	75	6
76	170	2
67	83	8
117	118	6
89	105	2
112	112	21
2	71	1
36	38	2
51	65	2
72	167	7
165	166	9
129	129	43
59	59	16
154	154	6
1	41	1
60	60	9
88	141	3
156	163	2
136	136	17
90	91	6
3	55	3
81	166	5
9	10	4
51	51	21
135	135	23
176	176	23
94	94	17
119	120	2
106	151	6
126	134	2
116	116	7
115	116	1
141	142	4
67	68	3
57	58	3
92	92	7
58	58	11
13	36	4
102	102	10
34	34	4
34	35	3
175	175	7
156	162	1
40	43	4
143	144	2
133	173	4
124	137	4
93	150	1
166	166	4
126	127	8
54	56	5
32	34	1
149	150	5
83	83	13
92	125	3
2	17	5
142	143	7
10	11	16
148	149	4
49	50	1
151	155	2
73	163	4
104	110	3
106	106	11
123	147	2
7	53	2
131	132	7
91	92	10
78	79	12
42	43	6
113	173	1
57	57	13
88	90	5
116	118	1
68	116	1
59	60	4
176	177	3
13	37	4
65	66	13
11	12	4
86	86	7
46	46	2
133	171	4
96	98	3
152	162	1
136	137	7
98	98	8
52	53	10
179	179	7
98	130	1
30	31	6
139	140	9
170	171	19
95	96	7
177	179	5
72	73	2
81	82	9
178	178	7
74	118	2
162	163	7
118	135	1
13	15	2
88	99	3
104	123	2
103	105	5
39	45	4
153	155	3
151	153	5
32	36	2
32	32	10
169	170	10
38	39	2
131	149	3
13	14	4
144	145	7
19	19	17
3	19	3
87	156	3
33	33	8
118	118	8
93	95	3
98	160	1
95	97	3
26	28	3
12	12	7
29	34	4
40	40	9
25	26	5
155	156	7
132	149	2
52	117	1
114	177	2
16	16	7
58	150	1
173	176	2
105	111	2
2	137	2
89	91	2
123	125	12
79	80	4
159	160	1
57	61	5
34	36	4
3	80	3
128	129	4
114	115	2
58	60	1
159	161	3
119	122	3
32	70	2
70	70	2
101	102	4
96	152	3
23	24	13
167	169	9
53	117	3
32	38	2
96	148	9
163	164	2
143	145	5
63	64	8
119	119	15
59	61	4
68	109	2
94	148	1
56	59	3
118	153	2
97	147	3
161	163	2
71	72	3
132	141	1
60	122	3
20	22	9
136	153	1
154	174	1
84	86	3
89	119	1
126	135	3
11	14	2
92	99	1
14	21	3
106	135	1
89	135	1
63	144	3
111	112	5
2	56	1
5	7	1
89	90	2
132	133	3
106	116	5
39	39	7
44	45	3
86	101	4
90	92	7
27	29	4
180	180	5
61	124	3
100	101	4
61	122	1
62	144	1
96	131	2
96	147	2
155	159	2
54	64	2
121	123	1
113	177	2
90	118	2
32	39	1
0	71	2
116	139	1
142	145	4
39	40	3
161	162	6
147	147	9
121	122	2
73	170	1
64	65	3
109	110	4
55	72	1
153	173	2
130	160	2
61	62	8
119	151	1
71	117	5
8	45	1
100	109	5
136	146	1
112	114	3
16	17	1
108	109	3
39	41	3
19	20	7
24	66	2
165	165	6
128	130	4
16	20	3
67	80	3
150	154	1
31	72	2
118	151	1
93	93	6
138	139	6
62	63	6
36	37	2
157	168	5
141	144	5
33	42	1
163	167	1
28	29	6
118	120	1
31	32	4
4	11	3
157	169	1
134	135	5
93	126	1
17	45	5
94	126	1
174	177	1
110	111	4
174	175	4
77	78	4
56	71	1
115	147	1
30	34	4
171	172	5
14	17	1
111	113	4
102	103	2
150	155	5
93	132	3
56	122	1
90	135	2
72	165	4
54	55	4
3	7	1
89	124	1
150	152	4
88	140	2
103	106	3
58	64	1
49	49	7
126	156	1
167	171	1
24	26	2
106	107	2
27	28	5
5	6	4
170	176	9
95	98	1
119	138	1
81	117	4
62	143	2
50	64	1
92	94	2
102	111	2
117	163	4
66	67	1
84	85	2
137	145	2
26	26	8
102	104	1
58	59	2
8	53	3
51	118	2
12	13	6
29	30	1
1	2	1
15	33	3
55	71	2
74	137	1
6	22	3
152	154	1
18	44	3
76	78	3
86	174	2
87	117	2
89	117	1
98	99	1
84	175	1
96	97	3
79	81	1
71	75	1
95	126	1
43	43	2
82	85	1
92	150	1
103	107	4
150	151	3
102	118	1
140	171	1
66	75	1
92	121	3
8	50	3
58	92	1
8	10	3
129	160	1
32	40	1
5	20	2
119	121	3
119	161	1
118	139	2
11	13	1
137	138	2
104	106	2
102	139	2
97	131	1
17	174	1
158	166	1
139	171	1
10	168	1
112	113	1
91	121	1
89	134	3
155	173	2
50	52	1
61	92	1
127	147	1
2	4	1
110	117	3
56	91	1
100	153	1
43	45	2
2	5	2
146	147	3
158	159	2
96	132	2
160	163	1
7	43	2
81	164	1
68	115	1
10	167	1
154	155	1
12	15	1
37	39	1
10	14	1
16	165	1
72	77	1
49	53	1
60	65	1
172	176	1
75	77	2
75	172	1
131	150	1
154	173	1
106	111	1
138	143	2
74	171	1
127	141	2
1	118	1
68	166	1
74	76	1
122	134	1
32	45	1
49	52	1
66	168	1
8	38	1
18	68	1
106	124	1
23	66	1
86	140	1
120	142	1
94	125	1
42	44	2
20	23	1
72	79	2
117	149	1
127	129	1
91	120	1
83	85	1
93	94	1
131	159	1
105	110	1
22	64	1
179	180	1
3	4	1
50	51	1
52	54	1
