134	141	6
136	138	2
89	89	14
173	174	10
96	96	5
156	157	9
158	160	2
90	90	29
150	171	3
175	175	4
20	20	24
177	178	17
23	23	7
58	58	3
41	41	24
105	105	2
169	169	17
38	38	23
56	61	8
66	67	6
25	26	5
15	16	1
143	143	15
58	73	1
104	104	20
131	131	7
11	14	3
84	84	6
17	17	16
47	48	3
4	73	3
87	87	9
106	117	1
0	1	6
46	60	5
27	30	1
55	55	8
172	173	6
125	125	19
10	10	13
19	20	8
102	117	3
47	47	21
81	81	11
158	181	2
92	92	11
150	150	16
18	18	17
30	30	5
162	163	1
102	104	5
97	99	5
2	2	12
115	115	14
34	34	5
19	19	6
77	102	3
45	189	1
129	129	8
71	71	18
155	168	4
135	136	2
134	139	3
166	166	12
77	77	45
133	134	4
111	111	12
135	139	3
158	172	3
152	153	9
18	26	2
107	114	1
113	113	17
56	56	8
146	148	5
182	183	13
73	74	5
91	92	21
13	13	25
123	124	6
53	53	10
42	42	13
109	110	5
171	172	3
124	124	25
56	60	6
94	95	8
62	62	10
167	167	8
128	128	11
138	138	23
28	28	5
39	40	3
118	118	5
20	24	2
158	158	18
96	98	3
105	109	1
177	177	13
101	103	1
32	32	7
181	181	8
75	75	7
85	85	18
26	26	5
48	48	23
59	74	3
125	126	13
71	127	4
126	126	6
154	154	19
104	119	5
43	44	5
86	131	3
188	189	2
94	94	4
57	57	11
155	155	14
1	1	10
71	72	6
163	163	3
63	63	5
83	91	1
88	88	19
6	6	4
59	59	3
77	118	8
151	151	24
185	185	19
152	152	7
16	41	2
85	87	1
140	140	9
41	42	3
165	165	10
106	106	17
134	134	8
84	140	1
189	189	10
148	155	3
56	57	18
118	124	3
113	125	1
61	61	7
181	182	3
143	144	7
149	149	8
159	180	2
8	21	4
63	64	7
141	141	13
129	135	3
46	46	10
127	128	3
67	78	1
23	24	5
29	29	12
175	176	7
69	69	6
19	26	2
122	122	9
139	139	10
37	37	9
14	21	6
84	86	3
186	187	4
128	134	4
83	83	8
157	158	5
120	120	11
118	120	5
9	53	9
72	72	4
29	32	3
58	72	1
105	117	2
48	76	4
148	149	4
178	179	6
40	41	9
106	113	1
68	68	3
150	170	4
170	170	9
40	40	7
17	39	3
11	12	8
182	184	1
16	19	5
107	116	2
74	77	2
171	181	1
86	86	8
189	190	6
156	181	5
161	161	23
4	4	8
91	91	6
80	85	3
147	147	6
87	139	2
174	174	7
2	3	6
76	76	6
5	5	5
12	12	3
23	25	3
66	66	4
56	72	4
81	89	1
152	170	1
7	99	1
16	17	7
39	39	11
171	171	4
102	135	1
100	100	5
123	125	2
16	46	4
147	153	2
23	80	1
101	101	9
60	63	1
71	77	4
165	166	8
109	111	7
79	80	5
117	121	2
13	14	1
156	171	5
18	189	7
157	157	7
115	120	1
132	157	1
70	70	15
67	67	3
42	44	6
161	180	4
36	37	2
139	140	5
4	90	2
14	16	1
140	141	5
22	22	6
182	182	9
0	0	5
54	55	5
65	65	4
8	10	7
4	89	3
133	133	12
145	145	15
18	20	2
24	24	2
172	180	1
68	74	3
169	170	8
33	33	8
41	109	6
137	137	8
153	153	16
128	129	1
155	172	4
43	43	7
124	130	1
95	96	2
12	13	2
176	177	6
159	159	8
114	114	27
96	97	9
103	103	8
106	107	2
176	178	3
81	175	1
36	36	7
146	146	5
113	119	7
186	186	14
149	187	2
42	43	9
156	158	3
156	156	12
71	76	2
95	95	11
3	3	6
76	102	1
64	64	5
82	82	6
161	181	1
170	171	2
117	118	1
86	87	5
131	136	4
6	57	3
108	108	4
9	9	4
154	156	4
107	107	2
159	160	12
156	188	1
155	173	1
163	189	5
81	145	2
83	84	2
168	168	6
130	132	2
144	187	5
17	45	2
107	115	3
12	54	1
179	179	8
112	114	1
20	23	5
10	21	4
21	22	9
97	98	2
109	109	9
31	37	4
141	144	7
177	179	4
68	76	2
119	119	2
187	190	3
99	99	11
24	25	6
54	54	3
67	69	3
132	134	4
28	29	10
130	130	8
150	151	2
5	7	1
160	161	2
11	11	4
160	182	1
164	164	8
150	153	2
122	123	2
17	46	4
101	107	1
61	63	2
183	183	9
144	174	2
167	169	4
106	116	1
83	87	4
119	120	4
58	74	3
88	89	3
6	99	4
9	42	3
57	60	3
178	178	8
161	164	1
177	180	6
27	27	8
127	133	1
148	148	9
10	12	3
47	57	3
62	151	2
132	142	2
180	181	1
44	44	3
157	179	1
162	162	6
163	164	3
147	155	3
25	25	4
62	168	2
109	112	1
18	28	2
103	129	1
142	142	12
26	37	1
29	31	4
31	31	6
9	97	1
91	93	3
100	101	1
103	118	2
62	165	1
8	53	2
149	169	1
15	15	8
79	87	1
98	98	7
77	78	1
164	165	2
14	22	1
59	79	4
153	154	2
102	102	10
45	46	5
38	39	3
173	173	5
84	85	4
21	21	7
174	175	1
16	16	10
101	123	1
15	22	3
124	127	1
97	97	2
37	42	2
99	125	3
79	79	9
184	184	5
160	160	10
42	165	3
103	108	1
86	139	1
156	189	1
119	121	1
80	81	2
93	95	1
4	39	3
98	99	3
167	168	4
14	20	2
74	74	2
8	48	2
76	77	1
31	38	1
135	140	6
130	135	1
105	116	3
5	48	1
184	186	5
86	138	1
78	79	2
41	48	3
110	110	6
150	165	1
161	162	2
7	8	3
90	91	3
15	20	1
149	170	3
98	128	3
45	45	4
117	117	2
17	18	1
27	28	2
31	32	3
134	137	1
4	40	1
30	32	2
157	181	1
78	80	1
15	21	1
116	116	5
13	44	2
132	132	1
8	8	5
102	103	1
110	112	3
93	93	4
110	111	3
55	58	1
24	27	1
123	123	5
18	21	2
187	189	3
78	78	5
180	180	6
145	146	2
20	22	2
141	145	2
57	89	2
172	172	3
62	90	2
46	47	3
136	136	2
77	125	2
13	45	1
30	31	3
151	181	1
78	174	2
7	53	1
108	113	1
41	44	2
106	159	3
149	151	1
38	40	1
131	142	2
35	35	1
71	128	1
125	128	3
60	61	2
27	33	1
79	81	2
157	177	2
17	20	3
164	167	3
176	176	4
100	129	2
143	156	1
108	109	4
12	43	4
7	7	3
10	48	1
41	45	2
71	81	1
103	104	1
6	48	1
158	179	2
144	145	3
156	179	1
48	56	2
190	190	4
82	83	3
22	79	2
27	31	2
86	88	1
131	135	2
135	135	2
32	38	1
24	26	2
130	158	2
74	75	3
72	73	2
104	118	2
85	103	1
168	186	1
13	21	1
166	167	2
0	2	1
107	108	1
54	76	3
75	78	1
151	184	2
149	150	2
14	14	2
120	123	1
62	63	3
59	78	1
20	21	2
26	33	3
33	34	1
64	65	4
136	169	1
145	175	2
112	112	1
34	35	1
144	144	1
131	133	1
85	102	3
99	100	1
161	189	1
118	125	3
167	186	1
16	39	1
66	76	1
27	38	1
138	139	2
172	174	1
158	159	1
130	133	1
150	182	1
87	88	1
92	93	3
10	44	1
10	11	1
8	13	3
24	83	2
80	80	1
19	23	2
31	35	1
16	55	1
82	84	2
82	178	1
162	189	2
160	180	1
104	158	1
53	99	1
130	131	1
3	4	1
59	72	1
188	188	2
57	65	1
118	119	2
41	164	1
14	42	1
39	54	2
133	158	1
48	49	1
93	94	1
138	148	1
137	138	1
103	190	1
101	108	1
13	54	1
41	185	1
5	54	1
63	97	1
154	186	1
18	19	1
55	60	1
115	116	1
77	84	1
109	114	2
