27	27	10
31	31	6
120	120	3
37	37	16
112	112	4
23	25	2
12	12	3
48	48	8
134	134	8
27	30	4
6	106	4
50	59	4
101	101	4
129	129	6
133	133	2
40	40	8
11	97	3
130	131	2
54	55	4
136	136	4
2	10	2
55	55	7
57	57	6
111	111	4
95	99	6
144	144	4
74	74	10
120	140	1
81	82	3
56	140	1
115	115	5
13	13	4
124	124	13
59	99	3
127	131	2
112	115	3
67	67	4
129	131	3
42	42	8
132	132	7
56	57	3
59	59	9
9	106	1
98	98	5
23	31	1
22	22	7
71	72	4
87	87	6
20	20	6
14	14	1
8	105	1
18	37	1
13	14	4
121	122	2
18	132	3
130	130	4
90	108	2
88	88	3
11	11	6
99	99	1
75	76	2
33	36	4
72	74	2
10	112	2
135	135	7
55	60	1
89	89	4
142	142	11
107	110	2
14	57	1
25	25	7
109	109	4
114	114	8
105	105	1
12	110	3
20	21	9
16	17	3
97	103	1
137	137	4
62	63	8
67	126	1
71	71	3
42	43	2
69	128	2
129	132	1
78	79	8
42	48	1
74	75	1
52	52	4
26	30	3
85	86	3
85	85	2
108	113	3
68	68	9
64	65	2
58	58	4
18	18	4
128	128	2
69	70	3
115	116	3
14	15	11
125	125	6
103	112	4
136	138	7
38	38	5
77	79	3
59	60	2
140	140	4
27	28	4
92	92	4
63	63	5
35	35	5
131	131	10
51	51	4
53	80	4
145	145	5
139	139	1
81	103	1
19	21	2
29	29	6
19	20	2
91	125	5
28	28	13
98	133	5
141	141	11
95	95	7
50	52	4
76	78	5
23	24	5
11	110	4
80	80	3
43	43	4
17	17	4
97	97	3
1	6	2
64	64	3
23	26	2
107	111	1
30	30	10
77	116	1
90	90	7
8	8	5
121	121	7
136	137	4
56	61	2
70	118	5
58	61	2
42	52	1
54	54	5
117	117	11
119	119	2
122	140	1
55	140	2
100	132	1
34	36	5
106	106	6
17	19	2
50	96	2
34	34	1
84	85	1
49	58	2
56	56	5
18	133	1
104	109	1
128	131	4
91	135	1
32	34	4
14	23	1
2	2	3
79	79	8
131	132	2
127	127	2
96	96	5
89	94	1
114	123	1
69	69	3
98	126	3
70	70	2
116	116	3
108	140	1
62	62	6
134	135	4
57	58	1
20	33	1
19	22	1
84	120	1
33	34	1
22	30	2
72	72	2
54	127	2
12	13	1
104	105	2
67	69	3
4	4	6
78	78	4
111	112	1
6	6	2
68	69	1
5	5	2
138	140	2
36	36	5
100	100	2
10	10	3
52	60	1
89	131	1
21	21	4
84	84	6
73	73	4
33	33	4
31	32	1
119	121	6
64	82	1
67	68	1
5	110	1
81	81	2
60	60	5
0	0	5
86	90	2
66	73	1
48	53	1
94	94	2
6	8	3
26	26	2
75	79	1
53	128	2
32	32	1
11	18	2
101	102	4
126	126	5
53	55	1
28	29	2
66	66	4
100	123	1
138	138	7
107	123	2
24	99	1
42	141	3
53	53	2
23	48	1
19	103	2
96	134	2
87	141	1
27	29	2
3	20	1
19	19	1
0	1	2
77	78	4
104	104	4
104	106	1
82	83	2
50	50	2
89	105	2
2	82	2
83	83	3
39	39	1
3	5	1
31	35	4
96	97	1
21	30	2
58	126	1
55	128	2
138	139	2
55	121	3
77	77	3
33	40	1
99	100	3
53	65	1
23	59	1
82	86	1
41	41	1
53	54	2
68	73	1
3	34	2
79	116	1
37	38	2
123	123	1
54	80	1
61	61	1
122	122	1
72	80	1
15	28	1
88	90	3
132	133	4
47	47	1
102	102	1
74	91	1
25	26	2
51	52	1
1	102	1
62	82	3
15	91	2
16	16	3
134	136	1
13	50	1
107	108	1
70	86	2
73	89	2
135	137	1
56	123	1
14	96	2
72	88	1
124	142	1
6	94	1
103	113	1
129	130	2
124	125	1
118	119	1
17	37	1
88	104	1
126	137	1
143	143	1
107	137	2
93	93	2
40	41	1
127	137	1
116	118	1
90	96	1
11	134	1
33	35	1
1	1	1
79	84	1
24	24	1
146	146	1
113	113	3
22	23	1
105	106	1
23	99	1
2	6	1
61	71	1
