46	46	2
110	111	4
17	28	1
103	111	4
16	23	3
2	2	7
78	89	1
13	13	7
117	119	5
14	14	7
50	59	5
0	0	6
72	79	2
21	21	4
92	92	7
30	36	4
126	126	7
129	130	2
126	131	6
2	105	4
124	125	1
61	62	3
27	29	1
122	124	4
128	129	2
28	33	3
43	45	2
26	53	1
82	82	5
34	34	9
69	70	7
73	73	7
97	97	3
88	89	1
128	130	5
8	15	1
24	24	12
20	23	6
99	99	13
104	106	10
18	18	5
23	24	1
1	5	2
0	7	6
105	105	12
134	134	6
35	37	2
113	113	9
14	15	6
129	129	7
7	7	3
54	60	12
5	5	6
125	126	1
8	8	11
73	76	4
118	118	7
107	114	1
87	90	7
53	55	6
32	32	4
125	125	9
129	133	1
120	120	2
1	7	1
8	18	8
4	117	2
14	20	2
85	100	4
67	67	10
28	56	4
99	101	4
21	28	1
45	45	6
59	60	5
60	64	2
121	125	1
101	108	4
122	123	6
36	37	5
25	25	1
98	103	6
106	107	7
84	86	3
113	117	4
27	27	7
21	26	1
53	53	5
30	34	5
45	55	1
99	100	8
82	88	1
65	65	8
20	20	3
86	86	14
75	83	3
119	127	2
115	117	2
93	93	5
135	135	2
15	15	3
50	50	6
31	32	3
69	78	4
27	31	5
117	117	8
28	29	3
22	23	3
80	80	8
16	25	4
3	3	16
123	124	6
13	19	1
53	59	4
86	95	5
123	123	5
8	26	1
74	92	2
29	55	2
106	108	2
53	54	8
44	47	3
49	52	6
60	62	7
94	102	1
74	74	5
61	61	12
26	26	2
6	13	1
9	9	7
120	121	7
58	62	3
11	20	3
89	90	3
62	62	2
9	10	5
32	35	1
17	17	4
92	105	1
99	103	1
77	77	4
20	22	2
78	81	2
64	64	1
71	77	1
126	129	5
72	81	4
79	87	3
44	48	3
80	81	3
89	91	2
9	54	1
57	58	7
73	74	14
113	116	1
4	110	4
105	109	2
77	89	3
95	101	5
0	10	2
2	3	5
55	62	5
95	95	4
54	54	1
7	8	1
58	58	7
127	128	3
30	35	2
77	84	3
126	128	1
62	68	5
118	122	1
86	90	10
92	95	5
32	36	5
75	77	1
1	1	8
105	106	4
72	82	1
19	54	1
66	78	6
78	80	3
118	121	1
128	128	5
116	118	5
24	26	5
6	9	2
47	47	5
56	64	4
16	16	8
67	68	4
110	120	2
16	20	2
74	79	4
113	120	3
114	115	1
112	116	4
43	60	2
8	66	4
11	22	1
80	85	3
62	64	5
116	116	4
85	92	1
68	70	8
119	122	1
94	94	3
111	112	3
127	127	5
91	91	5
89	93	6
26	27	2
52	55	2
11	13	3
128	134	2
95	98	3
57	60	2
100	109	3
20	45	1
1	3	8
127	131	2
104	108	7
47	67	2
80	84	2
100	101	6
116	123	1
105	108	2
45	50	8
33	35	5
110	113	3
72	72	9
102	102	5
10	19	2
90	90	10
133	133	4
107	107	8
47	49	3
30	32	2
29	30	4
96	99	2
63	63	4
83	85	1
124	126	5
43	44	4
121	121	9
116	117	5
88	97	2
108	116	3
58	68	1
14	17	6
85	86	3
33	36	1
131	135	4
23	23	2
35	38	8
1	10	4
122	134	2
60	60	3
44	55	2
109	109	3
2	92	2
93	94	3
75	78	1
117	118	6
107	108	1
22	27	2
97	105	5
44	45	2
71	71	6
19	60	1
12	15	5
117	123	3
58	60	3
33	34	3
54	59	1
33	37	4
79	95	4
53	56	3
107	109	2
35	35	8
52	57	3
106	110	2
44	44	3
33	33	7
70	72	4
96	98	6
82	84	11
26	30	4
91	101	3
78	83	1
56	65	4
1	11	1
0	14	3
12	13	3
12	28	3
11	12	5
9	16	3
6	6	6
102	108	1
83	84	10
116	120	2
72	75	2
131	132	6
92	97	3
87	98	2
88	96	1
15	20	2
110	129	3
45	53	1
91	94	1
23	30	6
63	64	4
2	93	1
127	129	4
50	56	3
4	12	2
73	77	1
22	30	1
54	56	2
24	30	1
7	9	2
70	80	3
132	134	3
7	10	4
88	88	2
58	65	2
14	25	3
119	128	1
63	68	1
42	43	3
89	102	3
80	83	1
78	82	1
86	92	1
79	80	5
96	102	1
18	19	3
5	6	1
62	65	4
121	123	1
133	134	1
115	119	5
99	105	2
22	22	3
18	21	2
19	19	2
68	71	2
132	132	2
10	11	2
16	26	1
6	16	2
20	24	2
119	121	1
80	87	2
129	134	2
59	64	2
63	65	2
126	127	2
87	89	2
27	36	1
10	13	3
38	38	5
95	111	1
19	24	3
16	22	1
106	106	6
45	57	1
11	14	5
84	84	5
70	71	1
55	66	1
23	25	8
60	66	1
112	115	1
36	36	4
76	77	1
0	13	3
96	96	5
10	10	2
116	122	1
7	11	4
126	133	6
121	122	5
43	43	4
3	7	2
109	110	5
90	96	2
79	83	2
55	64	3
53	61	3
112	113	4
58	61	1
31	33	2
108	108	4
77	79	2
0	16	4
58	64	3
34	35	1
63	74	3
78	78	3
87	87	6
129	132	2
23	32	1
108	109	1
33	43	2
98	99	7
11	11	7
130	133	2
76	78	1
49	49	3
108	111	4
113	119	2
54	55	3
29	57	3
89	89	7
77	78	2
84	92	3
1	2	2
86	98	5
71	81	2
83	83	3
12	12	5
56	56	4
92	96	2
128	132	2
79	79	6
101	103	2
52	52	5
102	109	1
127	132	1
56	66	3
76	84	2
56	68	2
4	6	1
19	21	2
82	93	2
55	55	2
105	107	2
101	102	5
24	27	1
17	19	2
57	57	4
86	88	1
56	62	2
4	4	2
75	75	5
74	76	1
27	28	2
129	131	2
13	23	2
20	21	1
95	96	1
101	112	2
62	80	1
0	110	3
2	109	1
32	33	5
109	118	2
14	19	2
97	101	2
3	14	4
124	128	3
2	110	1
120	122	2
14	16	1
8	52	1
26	37	2
118	119	1
94	96	1
69	73	2
94	110	2
101	101	1
110	115	1
69	72	1
97	98	1
29	29	4
49	50	1
114	114	5
99	107	3
37	37	1
98	109	1
70	70	1
110	110	1
110	112	2
13	21	1
8	9	2
122	122	3
122	133	4
82	86	3
92	93	1
118	125	3
28	37	2
100	103	1
64	84	2
23	26	3
63	69	1
116	119	1
117	120	5
60	61	6
111	111	6
78	85	1
109	117	1
70	75	1
62	63	2
71	75	1
102	110	2
14	24	2
112	124	1
84	85	2
16	28	2
4	113	1
73	80	2
86	96	1
73	75	2
17	21	3
66	66	2
44	46	3
35	36	1
31	31	2
18	30	2
23	27	1
49	55	1
69	76	2
125	134	3
9	66	1
21	22	1
35	39	1
59	62	1
79	88	2
0	1	2
54	64	1
4	84	3
29	49	1
3	111	2
106	109	1
123	126	1
3	5	1
9	13	2
81	81	1
71	76	1
83	93	2
30	33	2
56	61	1
115	116	2
119	124	1
60	65	1
3	4	1
74	87	1
16	31	1
59	59	1
72	73	1
85	89	1
96	97	2
113	115	1
2	102	1
11	16	1
84	88	1
123	128	2
65	66	1
128	135	1
31	35	1
31	38	5
61	71	1
30	31	2
76	82	2
7	84	1
125	127	1
5	10	3
98	104	1
100	102	1
132	133	1
115	115	2
104	111	1
22	24	2
131	131	2
91	110	3
118	127	3
98	100	1
15	21	1
0	6	1
95	97	2
27	44	1
103	104	1
44	53	1
69	77	1
48	48	1
7	13	1
61	66	1
28	32	1
80	82	1
73	83	1
51	55	1
86	100	2
98	115	1
90	94	1
94	97	1
29	32	1
42	44	1
66	86	1
86	91	1
1	9	1
107	118	1
122	125	1
81	82	1
87	88	1
67	76	1
58	59	1
16	17	1
125	132	1
112	114	1
69	69	1
