85	85	7
37	37	2
44	65	1
76	76	7
13	13	5
64	64	9
84	84	11
99	99	7
2	2	14
70	70	4
95	117	2
97	98	1
54	63	4
77	77	6
118	118	4
61	61	8
0	0	7
47	48	3
55	55	10
90	90	8
80	80	6
77	80	2
79	79	11
30	90	2
101	101	7
135	135	2
97	120	6
133	133	1
53	53	1
123	124	1
34	34	6
72	73	7
128	129	6
20	21	3
83	84	1
94	94	10
87	87	2
109	109	21
89	126	1
78	78	5
91	91	10
36	36	6
43	44	1
81	104	2
18	43	2
25	25	4
54	54	10
27	28	4
57	57	7
52	52	5
82	82	1
98	98	10
88	88	6
50	51	4
128	128	5
7	7	8
75	78	2
1	2	10
104	105	2
99	110	1
106	107	3
81	126	2
77	78	6
17	17	3
132	133	2
119	120	5
17	18	2
27	27	11
126	128	7
65	68	1
81	81	1
97	97	17
114	115	3
119	119	6
73	73	1
124	124	4
59	59	2
132	132	1
52	53	3
92	92	7
77	79	2
66	67	4
64	66	4
58	58	2
62	62	4
12	12	2
28	28	6
68	68	3
32	32	7
126	127	5
18	49	1
74	74	9
69	69	12
90	91	2
25	26	2
117	117	6
19	19	3
15	15	3
62	63	4
35	35	9
35	36	2
99	102	2
96	106	2
96	96	5
60	76	2
31	31	2
43	54	1
86	86	2
43	52	2
10	11	5
130	132	2
56	56	3
65	66	2
122	124	1
9	9	3
89	89	3
106	106	1
50	50	8
4	5	4
101	102	4
36	37	5
66	98	7
125	126	5
107	111	3
72	72	2
99	100	3
75	75	5
103	103	7
24	24	4
134	135	1
126	126	2
131	131	3
65	65	10
6	7	2
122	122	4
15	25	2
18	52	2
71	103	1
127	127	7
113	113	5
59	83	3
123	123	4
124	125	4
118	119	4
20	23	4
13	30	1
63	63	1
120	120	6
121	121	6
36	71	1
99	104	1
14	29	2
10	10	4
102	102	4
7	11	3
8	9	3
43	49	2
19	20	2
78	79	3
22	23	2
55	57	3
71	94	2
90	126	1
22	28	1
71	71	2
15	36	4
21	21	5
105	105	2
6	6	4
133	134	3
80	124	1
55	68	2
58	117	2
104	104	1
38	38	2
130	130	1
97	112	1
102	103	4
78	128	1
129	129	1
111	112	1
134	134	3
24	25	6
84	96	1
95	96	3
12	13	3
26	26	3
53	54	2
16	17	1
18	21	1
1	5	1
50	66	2
8	8	3
47	65	1
67	68	1
93	93	3
107	107	1
22	22	3
1	4	2
5	6	3
44	44	2
115	115	3
34	51	2
33	33	3
9	34	1
18	18	2
69	86	1
5	5	2
131	135	1
115	120	1
27	29	1
130	131	1
93	94	2
14	14	2
114	114	1
19	35	2
105	126	2
15	17	1
53	55	2
49	76	1
33	45	1
97	105	3
82	84	2
15	16	3
69	70	1
31	32	1
125	125	1
100	101	2
62	82	2
32	35	1
70	88	2
75	92	2
14	118	1
116	116	1
112	112	2
30	32	1
85	98	1
3	3	2
9	10	2
42	43	3
79	131	1
60	61	1
33	34	2
108	110	1
5	32	1
57	58	1
129	130	1
70	71	1
47	47	1
44	45	1
