66	67	1
6	9	3
114	114	11
49	50	3
53	90	1
36	37	1
118	119	3
16	16	4
33	105	1
103	103	5
101	102	2
74	74	5
6	8	5
12	12	2
61	109	2
127	127	5
109	109	9
30	30	9
81	81	6
66	68	6
108	108	7
96	111	1
105	105	8
20	20	2
77	131	1
106	111	1
81	82	2
84	84	8
124	124	4
118	118	7
117	117	14
65	65	7
25	28	2
131	131	6
87	88	3
69	69	8
52	52	10
50	86	3
122	122	6
57	78	3
26	26	5
25	26	3
6	6	6
19	21	8
110	110	1
11	21	3
84	127	2
89	89	4
59	60	6
88	88	5
55	55	2
116	116	6
45	132	2
7	7	7
115	115	3
128	128	3
78	78	4
35	35	1
113	131	1
27	27	4
18	18	7
112	131	1
123	123	3
90	90	8
85	86	1
94	95	1
87	124	1
75	91	2
60	92	3
65	66	2
113	113	4
29	29	3
98	100	1
3	3	11
23	23	5
54	55	1
99	99	3
1	1	10
45	50	4
76	76	5
77	78	5
31	31	8
63	63	4
86	87	2
61	61	5
79	79	2
5	88	2
121	121	2
80	80	6
89	119	3
91	118	2
74	75	1
98	99	6
96	101	1
121	122	2
2	2	5
56	56	3
67	67	3
55	58	5
27	28	3
118	129	2
85	85	4
43	97	1
91	91	2
102	102	5
9	10	1
37	37	6
0	31	1
112	113	1
75	75	3
108	128	2
131	133	2
13	14	1
100	100	5
81	88	2
36	50	4
3	4	5
44	50	2
101	101	1
49	49	2
117	118	3
58	110	4
7	17	4
46	46	2
44	44	5
47	47	2
8	8	11
30	33	4
8	55	4
6	12	2
77	77	3
86	86	4
106	106	1
95	98	7
60	61	4
54	130	2
104	104	8
33	34	4
130	130	7
83	125	1
76	112	1
49	130	2
19	19	4
36	36	6
2	123	3
92	117	3
65	68	4
58	58	1
83	126	1
23	55	1
73	73	4
107	110	2
38	38	1
22	30	4
21	21	4
18	19	3
77	113	4
3	77	2
22	23	4
3	22	2
121	124	2
113	133	1
50	52	1
96	102	2
34	34	6
24	24	3
0	0	6
4	4	7
22	22	7
32	123	3
125	125	2
25	36	1
53	53	2
70	70	2
68	68	10
45	98	1
112	114	2
83	84	2
123	124	1
111	111	4
7	55	1
50	50	3
108	109	1
1	124	4
5	5	2
127	129	1
54	56	3
64	64	1
83	83	2
64	68	4
4	11	2
72	102	1
107	124	1
25	87	4
133	135	1
14	14	3
71	71	6
118	122	1
82	82	3
32	33	1
43	128	2
108	125	1
1	34	3
35	90	1
13	13	8
62	62	2
78	87	1
79	80	3
87	87	2
119	119	4
67	69	1
63	70	1
92	92	3
112	112	3
1	2	2
59	59	2
4	5	1
25	25	1
23	24	2
4	10	2
31	32	2
9	54	1
7	60	1
95	96	1
129	129	1
1	21	1
132	132	4
86	126	1
96	96	1
84	126	1
54	54	1
19	20	1
71	73	3
72	72	1
109	110	2
42	43	1
30	31	1
85	87	1
9	9	3
94	96	1
27	30	2
133	133	2
1	3	1
26	27	1
45	47	1
95	112	1
122	123	1
56	57	3
98	98	3
42	124	1
80	106	2
43	44	1
83	122	1
10	10	1
83	124	1
94	94	1
15	15	3
47	132	1
124	125	2
93	93	1
67	68	1
118	127	1
59	70	1
72	104	1
44	47	1
96	116	1
11	11	2
51	51	1
4	77	3
18	21	1
32	34	1
45	45	1
55	56	1
79	115	1
20	21	1
