36	36	9
89	89	5
117	159	1
92	92	6
137	137	4
106	121	2
87	87	3
65	65	1
39	75	1
111	111	5
56	62	1
94	94	6
106	106	3
150	150	3
144	144	5
9	9	1
166	170	5
62	63	1
140	163	2
94	96	1
2	2	6
111	137	4
124	124	10
43	43	4
13	15	2
88	89	4
6	6	2
47	156	5
147	148	7
54	54	4
70	70	5
98	103	3
7	7	6
107	155	3
124	125	7
94	99	1
37	38	2
154	154	5
67	67	5
105	105	7
116	116	8
151	151	3
46	46	1
72	76	7
99	99	1
160	160	6
135	158	3
22	166	3
106	126	4
111	160	6
74	74	2
47	48	3
107	159	2
111	112	5
58	62	3
42	42	8
4	4	4
142	142	5
115	161	8
5	75	3
110	110	9
102	102	3
131	131	2
89	90	5
145	145	4
5	6	1
8	8	5
50	50	9
112	114	1
11	11	3
161	170	2
119	156	4
20	47	1
106	158	2
94	95	4
162	163	2
36	38	1
25	35	3
78	78	3
23	24	2
8	12	1
16	17	4
128	131	2
9	10	1
13	24	1
37	37	7
84	85	1
81	81	4
49	51	1
105	106	1
90	94	2
7	11	1
101	103	1
23	52	3
57	57	5
157	159	2
54	67	3
20	89	2
24	24	2
18	161	4
117	117	1
42	43	2
157	157	3
18	22	5
75	75	5
13	13	3
161	169	3
165	166	5
163	163	1
138	149	2
78	84	2
17	17	4
125	125	3
127	127	1
155	155	4
168	169	2
5	5	2
1	2	1
75	123	1
135	136	2
161	165	1
35	107	2
63	63	4
94	144	3
139	170	1
104	105	1
158	160	1
98	138	3
98	99	2
168	168	2
74	75	1
70	75	2
114	114	5
7	8	2
132	133	2
130	130	1
19	20	3
101	101	1
15	27	2
53	53	1
38	74	1
35	35	4
108	159	2
169	169	2
119	119	4
17	168	3
117	153	2
44	44	1
149	160	1
164	164	2
141	141	1
76	76	1
120	121	1
20	20	1
167	168	2
163	165	1
10	11	1
123	125	2
121	121	1
123	123	1
129	129	3
93	93	2
121	131	3
137	139	1
110	136	2
132	134	3
162	162	1
13	14	2
107	115	2
28	28	3
140	140	1
5	39	2
20	21	2
162	165	2
146	146	1
107	107	2
0	7	2
55	78	1
49	56	2
90	90	2
3	3	3
109	109	1
153	154	1
109	110	1
77	84	1
153	153	1
98	140	1
80	89	1
86	88	2
35	36	1
16	16	1
15	16	2
71	71	1
96	96	1
113	113	1
63	64	2
95	95	2
131	132	1
76	124	1
39	39	1
14	16	2
17	47	1
45	45	2
161	162	1
118	167	3
116	144	2
135	144	1
135	135	3
48	68	1
1	6	2
102	161	1
139	139	1
110	135	1
138	139	1
62	88	1
142	145	1
84	84	1
1	1	1
11	27	1
132	132	1
27	27	1
79	100	1
51	51	1
76	89	1
161	161	1
