155	155	3
9	10	5
128	128	6
51	51	2
154	157	5
54	56	2
16	16	3
141	141	2
111	111	2
29	31	7
182	183	1
32	49	6
167	167	4
187	187	3
25	25	7
17	18	6
149	155	4
182	182	4
39	40	2
142	142	7
5	22	1
45	45	4
112	112	3
188	188	2
180	186	2
195	195	5
100	101	1
37	45	2
176	177	4
20	20	3
140	140	8
135	135	4
30	30	8
194	196	1
143	143	3
133	135	1
120	120	1
80	138	4
37	38	2
138	138	3
171	171	8
80	80	2
8	9	3
73	73	3
127	127	7
167	168	1
119	120	2
136	136	3
186	186	6
9	9	6
107	108	4
125	125	6
57	57	6
0	1	2
114	117	2
31	32	1
42	42	2
150	176	1
122	122	6
138	139	2
40	42	2
17	17	2
106	123	3
46	47	2
103	105	2
148	149	1
61	61	1
147	172	4
168	168	9
44	44	5
123	123	4
70	71	2
37	37	3
179	179	5
19	19	4
100	164	6
15	16	2
11	11	5
74	74	5
192	192	5
32	32	3
47	47	4
14	14	4
115	115	3
69	69	8
131	137	6
115	116	4
52	52	8
17	34	1
187	189	3
27	27	6
114	114	3
15	15	4
174	179	4
183	183	2
196	196	5
18	18	1
80	98	2
35	35	2
84	87	2
41	42	2
64	64	2
47	48	3
153	155	1
84	84	2
5	14	2
39	39	5
139	139	2
107	107	1
50	50	11
105	105	3
177	177	6
40	40	3
160	160	6
113	114	2
172	172	6
162	162	2
140	141	2
58	59	4
151	186	6
159	160	2
104	104	3
31	31	2
152	152	7
56	59	3
78	78	1
106	124	1
170	171	3
60	60	2
94	94	2
115	117	4
41	43	3
89	157	1
135	137	1
49	50	5
126	126	3
12	12	2
53	53	2
171	172	1
139	140	2
2	2	3
114	116	1
153	186	3
145	145	3
49	49	4
101	103	2
14	26	1
159	159	7
98	102	2
79	79	7
157	157	4
83	83	2
66	66	2
181	182	1
184	184	6
10	10	3
173	177	1
60	61	2
117	118	2
103	103	4
48	48	4
2	4	2
105	108	2
7	7	3
68	68	4
24	24	5
145	146	1
149	150	3
150	150	1
161	161	1
96	96	2
99	99	7
29	29	3
112	115	1
193	193	1
38	39	2
1	1	4
108	108	4
79	81	2
31	50	1
45	46	2
18	23	2
60	65	1
70	70	7
190	190	4
138	141	1
121	121	2
88	89	4
21	21	1
74	77	1
189	189	1
4	4	1
44	45	1
149	154	1
71	71	1
195	196	2
30	49	1
172	175	1
99	103	3
59	59	1
183	184	1
19	20	1
153	156	1
88	88	2
22	22	3
133	133	1
169	169	2
78	89	3
175	175	2
179	180	2
194	194	1
130	131	2
11	13	3
187	188	1
31	197	2
116	116	2
5	7	1
65	66	3
189	190	1
170	170	4
178	178	1
154	156	3
191	191	1
107	124	4
87	156	1
23	23	1
85	88	2
36	36	2
73	169	2
15	22	1
13	13	2
11	12	1
10	11	2
134	136	1
113	113	3
83	84	1
37	39	2
185	185	1
95	95	1
72	72	4
46	46	2
34	34	1
108	126	1
6	7	2
56	56	1
48	49	1
183	186	1
134	135	1
17	24	1
33	33	1
173	173	1
82	84	1
147	147	1
67	67	1
1	2	1
118	118	1
58	60	1
73	78	1
81	89	1
81	82	1
158	158	2
138	168	1
163	163	2
0	0	1
38	38	1
