78	78	18
66	95	1
37	40	4
81	81	18
43	44	4
61	61	7
63	63	12
69	70	9
41	41	4
34	35	1
68	68	18
29	30	6
83	83	15
36	36	15
73	73	21
71	72	8
70	86	2
86	86	20
66	70	4
38	38	9
48	48	17
45	45	5
58	58	8
68	69	5
39	39	4
77	77	22
79	79	11
74	74	29
89	89	24
67	67	30
93	93	6
87	87	10
77	101	2
95	96	4
43	43	7
80	81	7
79	80	1
63	66	5
72	72	11
26	26	14
28	28	9
49	49	3
71	71	15
45	56	1
51	51	8
85	86	4
95	95	10
33	33	4
88	97	3
93	94	5
25	26	2
47	60	1
75	75	17
38	59	3
64	64	11
97	97	6
22	22	4
53	62	1
79	83	3
70	73	1
50	50	10
62	63	6
22	87	2
86	88	1
31	33	4
65	66	8
20	20	5
37	37	13
41	42	10
60	60	10
91	91	3
31	32	4
27	27	4
71	80	2
55	55	6
99	99	2
67	68	6
96	96	9
27	28	5
47	47	5
46	46	15
95	98	1
66	66	13
35	35	4
56	58	2
66	67	3
65	65	18
25	25	5
63	64	7
62	62	7
85	85	10
69	76	3
41	66	3
42	42	6
78	90	3
70	70	6
88	88	6
58	59	4
40	40	7
38	62	10
44	90	1
32	33	4
29	29	5
73	74	3
80	80	22
92	92	4
76	76	5
100	100	8
52	52	5
69	69	7
44	97	4
76	77	5
59	60	2
89	92	2
26	27	3
77	96	1
46	47	2
90	91	2
25	47	6
78	79	3
84	84	5
57	57	4
54	58	2
52	80	2
47	54	1
22	93	3
94	95	1
59	59	8
89	94	1
82	82	6
33	86	2
84	89	2
62	91	1
24	24	4
43	71	1
59	64	1
61	81	4
20	22	1
32	32	3
63	67	2
102	102	3
41	100	3
54	54	4
98	100	1
96	97	3
31	34	1
31	31	6
60	79	3
43	75	3
51	92	2
86	87	2
84	87	4
48	50	3
101	101	9
56	56	2
75	85	1
71	75	2
53	53	1
43	95	1
46	99	2
34	34	2
90	92	3
44	44	12
78	83	1
91	92	2
70	74	2
99	100	2
60	61	3
52	81	1
62	64	2
56	96	1
47	97	1
59	65	2
45	79	1
33	34	1
45	99	1
25	102	1
54	57	1
56	59	1
94	98	2
66	73	2
49	50	1
98	98	2
62	66	2
32	86	1
64	65	3
79	91	1
44	75	3
98	99	2
78	84	1
35	36	1
60	80	3
78	92	1
77	78	5
94	94	1
25	48	1
55	56	2
87	88	1
81	82	3
90	90	5
70	85	1
48	49	1
71	78	1
51	52	1
59	61	1
61	65	1
65	71	1
100	101	1
22	25	2
52	53	1
80	83	1
30	30	2
25	46	1
40	64	1
72	74	1
42	43	1
62	98	1
67	102	2
67	81	1
27	31	1
95	101	1
