74	74	15
214	214	6
10	154	3
169	169	5
57	57	7
127	127	11
15	15	13
198	214	1
197	205	2
21	21	8
66	66	3
24	56	3
56	57	6
147	147	13
27	27	13
2	2	11
20	20	10
163	163	11
127	152	1
24	25	1
234	234	9
16	16	20
75	75	13
120	120	4
104	127	4
45	45	19
58	58	8
215	215	8
63	63	17
48	48	9
149	149	6
123	142	2
144	145	1
98	130	2
171	171	7
134	134	6
57	58	5
173	173	12
203	203	3
230	230	11
152	152	4
197	202	2
53	53	6
140	148	1
146	146	11
31	36	3
56	56	6
185	189	3
188	188	9
1	1	4
180	180	13
136	136	10
185	186	5
145	175	2
63	82	2
0	50	2
139	139	2
113	113	13
80	85	2
158	158	13
240	240	5
192	228	3
55	55	15
33	33	5
28	28	9
26	39	5
38	38	9
22	22	7
192	192	9
111	114	5
50	64	3
200	200	14
110	133	9
168	217	3
63	64	6
191	193	1
107	107	6
216	217	4
124	124	8
140	140	12
207	219	2
30	31	3
164	183	1
88	88	3
98	99	3
2	11	6
19	50	2
190	194	1
14	14	9
86	86	9
129	129	8
164	165	11
138	139	3
145	145	11
174	174	15
212	214	5
135	136	2
110	110	1
5	6	4
231	237	3
91	106	2
16	19	2
158	183	1
58	59	6
208	208	6
67	67	7
19	19	5
29	55	4
130	130	10
8	8	7
41	41	17
149	150	2
12	12	14
150	155	1
140	142	3
48	55	2
17	18	1
5	5	13
235	235	9
9	9	8
170	170	11
39	39	4
144	146	4
184	184	7
214	215	5
178	179	5
40	41	2
156	192	4
13	14	7
106	106	4
37	61	1
23	135	3
65	67	6
6	22	3
72	80	6
184	185	4
172	172	7
7	11	1
170	174	8
213	213	7
31	31	15
27	31	2
4	4	6
186	216	1
123	123	4
172	173	6
221	221	7
156	195	5
10	10	2
226	231	2
232	233	2
194	194	7
46	46	18
126	126	6
155	155	2
67	68	5
179	179	4
78	78	8
42	42	8
157	157	8
0	3	2
162	195	5
207	214	4
108	108	2
210	210	12
140	141	2
187	187	7
78	84	4
2	9	1
125	129	2
154	188	3
115	119	5
98	133	2
39	54	2
7	7	6
217	217	11
118	118	13
211	215	3
102	113	3
114	115	2
207	207	6
125	125	3
17	17	8
199	199	9
62	65	4
234	235	12
49	49	9
54	54	6
22	24	3
195	196	6
217	226	2
54	56	5
1	7	5
226	229	6
164	164	10
198	206	5
33	50	2
80	84	6
189	229	7
172	180	3
81	88	3
116	150	4
129	159	3
208	218	1
12	13	4
200	206	1
0	0	9
233	238	3
39	85	2
32	32	6
53	54	7
175	175	7
2	3	2
125	142	7
0	6	2
149	152	3
144	177	2
156	158	4
146	164	1
11	11	7
8	72	2
65	65	5
186	186	6
197	206	3
133	133	8
35	35	7
177	177	4
152	203	1
96	96	5
193	194	8
59	59	2
114	117	3
160	160	6
231	231	9
37	233	10
227	227	17
236	236	10
23	23	5
144	144	4
14	15	4
190	190	14
68	148	1
220	220	13
76	76	8
109	132	3
167	167	8
139	178	3
43	43	8
115	118	3
42	85	4
46	86	1
217	218	4
14	16	3
178	178	9
105	106	7
226	227	4
37	37	14
230	231	4
152	200	4
47	48	1
191	191	7
217	222	2
158	182	2
4	183	1
9	10	1
48	68	6
105	127	4
142	142	13
51	54	5
131	141	1
179	183	4
99	99	10
70	70	4
65	66	2
161	177	3
154	154	8
161	161	3
3	3	15
133	136	2
187	195	2
127	154	2
144	147	1
237	238	3
0	9	2
122	129	1
198	198	5
242	242	1
173	175	2
234	242	1
150	150	4
212	216	1
131	142	2
99	120	5
219	219	5
184	187	3
137	138	3
182	183	8
10	232	1
21	176	3
212	240	4
1	35	1
7	21	6
106	114	1
223	240	3
3	23	4
21	36	1
79	112	1
83	84	1
26	26	11
114	114	1
70	88	4
78	80	2
122	122	5
72	72	6
226	226	6
95	95	1
3	5	4
130	154	1
144	148	3
209	209	1
161	190	4
31	34	6
7	8	3
198	200	1
181	187	1
239	239	1
171	180	3
222	222	4
3	21	7
204	204	2
190	197	1
34	34	8
138	146	3
195	195	6
71	71	10
192	221	1
41	108	2
8	70	2
39	46	2
155	167	4
173	174	2
147	151	1
103	115	3
128	128	6
207	209	1
74	84	5
47	96	1
224	224	7
30	65	3
137	139	3
221	222	3
17	19	4
197	210	2
205	205	5
175	176	2
21	31	3
98	98	12
217	220	1
34	53	4
77	152	1
132	136	1
39	75	4
13	13	4
83	83	4
85	85	6
237	237	5
146	187	1
100	100	8
4	14	2
18	18	8
220	224	2
81	82	2
10	11	2
14	18	5
82	82	2
165	165	4
18	19	2
116	116	8
10	48	2
241	241	5
101	101	7
22	41	2
131	131	6
155	157	2
123	124	5
123	127	2
52	52	4
143	145	1
229	240	2
191	192	1
165	166	6
232	232	11
235	239	1
223	223	10
23	176	3
101	121	3
59	60	5
23	24	5
4	42	3
205	206	9
109	109	1
66	67	5
56	84	2
188	189	4
228	229	1
120	122	3
187	201	2
46	57	3
115	115	2
145	147	2
68	68	9
155	161	1
81	83	3
4	21	2
183	183	4
98	147	3
150	151	6
141	147	1
20	30	3
97	97	3
189	190	2
118	119	6
74	182	1
26	49	2
19	212	1
203	219	4
57	59	2
120	121	5
213	216	4
233	233	4
158	159	3
102	129	2
133	139	1
71	183	2
0	53	1
41	78	1
138	174	3
75	107	3
81	81	4
6	6	6
216	216	11
82	83	3
3	4	1
119	119	9
228	228	4
154	158	1
191	197	2
151	151	4
107	143	1
167	168	1
6	29	1
35	36	9
172	179	3
236	237	1
156	156	4
194	196	1
173	179	2
112	117	2
163	177	2
22	143	3
202	202	3
101	103	3
158	191	2
162	162	3
206	206	3
95	99	1
158	161	3
101	113	5
180	181	3
200	205	1
162	183	2
202	219	2
89	89	2
162	169	3
116	169	1
125	130	4
50	87	8
183	191	1
47	47	2
8	34	1
121	121	3
117	118	2
11	48	4
108	109	1
43	69	1
166	166	8
37	53	3
170	173	2
19	33	1
210	237	2
131	132	3
50	53	2
224	242	1
77	77	9
21	22	3
41	42	5
34	35	3
211	211	6
141	141	3
233	234	1
150	203	1
118	122	2
135	137	1
100	128	1
19	20	2
103	105	2
41	102	3
162	163	2
115	125	1
225	226	3
169	171	1
199	200	3
36	64	3
124	125	1
122	142	1
170	172	4
134	143	3
2	35	3
118	141	3
18	20	3
115	117	7
75	76	4
49	50	2
176	178	2
179	180	3
30	30	11
129	132	3
15	21	4
102	102	1
118	140	2
96	106	2
230	234	3
47	63	4
123	129	1
45	66	2
191	230	1
37	39	1
30	68	2
51	51	6
58	82	1
129	133	2
202	228	2
104	125	1
168	168	5
182	182	7
39	40	3
81	89	2
6	9	1
104	105	1
183	184	2
0	49	1
229	238	3
201	201	8
221	223	2
99	121	1
103	129	5
125	135	1
3	11	3
159	159	4
58	60	6
184	207	2
29	29	3
52	138	2
198	199	1
176	176	2
199	209	3
185	195	2
103	120	1
69	70	1
136	138	1
62	62	1
167	180	1
223	224	3
232	237	2
50	51	1
28	40	3
169	178	2
61	62	9
49	64	1
190	198	2
138	144	1
103	103	2
138	138	2
225	225	4
153	153	8
108	124	2
56	68	3
62	63	3
190	191	1
72	164	1
221	224	1
69	69	2
165	171	3
56	72	1
38	39	2
137	142	7
126	127	4
155	158	2
193	193	3
26	30	2
238	239	1
230	240	1
229	231	1
184	224	1
167	170	2
31	37	2
48	50	2
84	112	1
104	143	1
194	195	2
35	78	1
84	89	3
28	29	1
22	23	1
137	137	3
25	176	1
38	69	1
239	240	1
210	215	1
208	209	2
17	20	4
234	238	1
106	118	1
207	208	1
219	220	2
28	68	1
190	226	1
202	226	1
146	150	2
209	225	1
165	172	1
189	209	1
189	189	2
104	104	3
234	241	3
207	212	3
55	78	1
184	217	3
206	207	2
100	115	1
42	76	1
124	130	2
189	191	2
231	232	2
212	212	1
211	214	1
61	61	4
126	129	2
201	204	3
24	24	1
15	18	1
205	224	1
1	11	2
156	160	6
38	242	1
135	135	4
121	175	2
8	9	1
99	119	1
36	36	3
102	105	1
167	187	3
42	86	1
98	116	2
192	193	1
54	58	2
101	108	3
58	89	1
153	206	1
194	231	1
125	146	1
238	238	1
199	205	1
181	202	1
82	123	1
80	80	1
67	95	1
209	214	1
83	111	3
84	84	3
218	218	1
76	112	1
197	198	3
145	176	1
28	38	4
179	181	3
1	21	1
3	6	1
173	180	2
3	212	3
128	133	3
200	213	2
13	16	1
208	211	1
202	240	1
79	80	2
181	182	1
64	64	1
111	113	2
208	212	1
10	32	1
229	229	2
147	148	2
127	128	2
217	223	2
38	62	1
60	83	1
156	181	1
145	146	1
103	127	1
30	64	1
124	140	1
227	230	1
49	165	1
12	31	1
1	36	2
57	61	1
27	41	1
51	52	1
28	53	1
73	73	2
119	120	2
209	210	1
193	196	1
172	178	1
102	124	1
218	224	2
0	7	2
143	143	1
141	174	2
16	17	1
184	206	1
33	57	1
5	12	1
41	51	1
153	158	1
186	187	1
138	140	1
11	19	1
233	241	1
116	178	1
145	174	1
2	133	1
191	212	1
84	88	1
79	81	1
134	153	1
123	131	1
54	55	1
73	74	3
156	157	1
56	81	1
132	132	1
116	144	1
229	230	1
88	175	1
115	116	1
159	218	2
197	212	1
198	201	1
217	242	1
236	241	1
2	8	1
214	217	1
204	205	1
