29	29	7
56	57	3
52	52	7
47	47	15
27	27	24
57	65	2
40	40	21
63	63	16
13	14	25
35	35	42
60	61	6
57	60	3
66	67	3
70	70	12
61	61	10
50	50	24
14	14	23
3	5	4
46	47	10
45	45	6
6	6	8
20	20	4
9	12	4
32	32	13
76	76	12
63	64	8
11	11	11
75	75	9
56	64	3
57	58	3
41	42	6
15	15	10
2	2	11
66	66	14
53	53	16
59	60	3
13	15	2
74	74	18
51	52	7
46	46	27
49	49	17
33	33	21
49	50	6
2	4	3
78	78	11
18	40	6
78	79	8
68	68	26
28	39	4
75	76	4
3	33	3
70	71	12
65	66	2
73	73	14
12	12	18
79	79	16
30	30	16
72	72	12
5	33	3
42	42	13
25	26	14
50	54	5
38	38	21
11	12	11
69	69	6
64	64	16
39	39	5
55	55	10
56	63	5
77	77	12
71	71	18
41	41	7
16	17	5
31	32	4
19	19	8
20	21	5
65	65	11
69	70	8
54	54	13
28	28	12
18	18	1
51	51	17
10	11	8
3	3	15
0	1	8
58	58	7
37	38	2
49	52	6
60	60	10
67	68	9
43	43	4
32	33	5
73	74	4
37	37	14
34	34	6
2	33	3
10	10	8
80	80	2
6	31	3
9	9	9
57	59	1
16	20	3
5	5	6
76	77	3
25	25	10
31	31	21
71	72	4
10	12	5
1	1	3
16	19	1
55	56	10
79	80	1
52	53	5
49	55	6
17	29	1
18	80	1
27	30	6
42	47	2
27	28	2
17	17	13
4	4	13
21	22	4
38	39	1
29	30	1
48	54	4
16	16	10
61	62	4
48	48	14
17	19	5
21	66	3
36	36	5
11	13	1
29	36	4
48	52	3
7	7	14
81	81	1
7	31	4
59	59	17
57	57	6
5	6	4
56	56	15
18	62	3
14	25	3
0	0	9
50	51	4
42	43	3
70	72	3
67	67	8
69	71	1
3	4	2
68	71	2
1	2	1
47	48	4
43	78	1
58	59	3
8	9	4
14	15	2
22	22	1
28	29	2
4	5	3
26	26	3
19	65	12
62	62	2
40	62	2
17	63	1
8	8	8
51	67	2
36	37	2
19	21	1
3	32	3
55	64	1
45	46	2
53	54	1
19	63	2
21	67	5
41	44	1
13	13	3
72	80	1
5	32	1
3	34	1
2	3	1
67	69	2
49	53	1
31	33	2
48	53	1
15	25	1
74	75	1
19	20	3
3	6	2
21	21	2
26	27	1
