47	47	8
27	27	10
48	48	4
33	33	7
145	145	5
45	45	8
132	132	7
123	131	3
35	35	11
125	126	5
132	136	2
129	130	1
87	87	13
20	20	9
96	96	27
26	84	1
43	110	2
49	49	5
85	85	12
3	3	5
98	134	7
81	82	11
25	28	3
30	30	13
146	146	8
121	121	9
124	124	7
37	37	12
150	150	7
40	40	17
42	42	9
98	98	10
133	156	1
143	149	2
52	52	8
83	83	9
111	111	4
106	106	15
116	116	17
135	135	9
149	149	6
39	39	11
95	95	9
117	117	20
88	110	1
55	56	6
0	0	7
87	111	4
134	135	6
142	142	3
154	154	11
150	159	4
13	89	2
131	131	4
92	92	4
9	17	3
34	34	8
145	154	1
130	130	12
29	29	10
40	102	2
67	68	6
104	109	2
133	133	12
56	56	4
84	84	7
19	27	2
139	139	14
86	87	4
26	26	16
91	91	7
98	99	1
113	118	8
79	79	8
150	152	1
80	81	5
22	23	1
70	70	9
50	54	3
44	44	9
74	74	3
136	136	9
54	110	8
122	124	2
64	64	6
140	141	1
157	157	13
114	122	4
36	36	2
45	46	3
122	122	2
72	72	6
90	90	21
137	137	17
26	81	3
105	105	4
153	154	8
101	125	1
8	8	17
67	137	2
110	151	2
97	97	6
79	80	1
5	74	1
68	68	3
54	78	4
129	138	3
16	16	21
77	77	4
7	36	3
1	1	14
46	46	14
123	124	4
2	6	3
14	14	11
143	147	5
146	147	4
41	41	11
138	139	5
73	73	7
23	23	9
45	119	2
43	43	5
109	110	8
128	141	2
94	94	2
111	117	1
65	131	4
88	88	19
99	99	8
55	78	2
109	109	7
112	113	7
47	100	2
17	17	4
93	114	4
121	122	3
91	128	8
138	138	9
99	131	3
132	135	3
100	100	6
136	137	3
13	14	2
156	156	8
141	141	9
118	118	10
67	70	3
9	9	8
66	66	6
120	120	14
89	126	1
123	123	4
133	158	2
15	33	1
156	158	2
31	41	2
93	93	11
145	150	2
148	148	8
80	80	3
75	76	3
80	88	3
47	50	5
100	101	1
0	11	7
21	37	1
53	55	2
65	65	2
21	21	6
123	125	2
25	25	11
86	88	2
140	140	19
112	112	11
67	69	2
108	108	2
2	39	1
11	11	7
16	22	2
126	126	13
16	36	2
114	159	3
137	138	2
9	10	5
128	130	2
3	15	2
47	54	1
30	91	2
101	101	12
38	56	2
51	51	5
89	90	4
0	56	2
28	29	4
17	18	6
114	115	2
76	76	4
149	150	1
32	33	2
151	151	9
69	82	3
102	157	1
67	67	5
115	115	4
82	82	12
22	22	7
145	146	2
6	6	8
12	12	9
54	54	3
134	134	10
19	19	7
78	79	2
32	40	3
31	31	5
101	127	3
42	43	7
155	155	4
55	87	3
135	136	4
7	39	1
13	146	1
118	119	2
31	32	6
38	38	3
55	55	5
75	75	11
48	50	5
148	149	2
89	113	1
112	158	3
113	119	1
42	48	3
30	33	1
108	109	2
152	152	7
39	92	1
15	15	5
24	24	3
7	18	2
18	18	5
122	126	1
69	70	5
49	50	1
4	4	7
99	100	4
42	98	3
37	64	4
145	151	6
77	81	1
29	79	2
114	117	1
21	27	1
114	114	1
0	92	1
7	7	8
128	128	2
86	86	10
23	29	2
36	78	1
2	2	5
69	69	2
90	91	2
23	25	3
8	14	1
142	145	2
125	141	1
147	157	1
110	110	2
92	111	1
53	54	1
108	121	3
17	19	4
41	50	2
6	43	4
40	100	3
73	80	3
68	71	2
121	134	2
108	153	3
21	36	2
127	128	1
103	103	8
50	50	5
66	71	4
3	4	3
124	125	2
43	48	1
145	147	1
71	126	2
110	111	2
62	63	2
52	54	2
119	119	5
29	66	2
127	127	2
87	88	3
153	153	7
13	13	3
21	35	3
102	102	1
39	77	3
147	147	5
103	118	1
136	149	2
158	158	4
16	19	3
107	107	2
10	10	4
71	71	5
16	43	1
93	119	2
83	84	3
107	108	2
91	92	1
138	148	4
3	56	1
110	114	3
80	82	1
123	145	1
7	19	1
15	44	1
125	125	6
98	106	2
122	123	2
77	108	1
46	94	3
89	89	5
45	94	3
120	121	3
142	143	1
108	110	1
57	57	1
128	129	1
4	27	1
53	53	3
78	78	2
1	5	2
37	52	2
20	21	4
144	145	5
135	137	1
16	33	3
35	36	1
9	11	1
132	133	1
129	129	2
1	6	1
7	22	3
144	144	8
142	144	2
144	157	2
95	96	5
30	90	4
130	131	2
97	106	1
16	44	1
1	2	1
17	51	1
40	55	1
16	25	3
85	87	2
142	148	2
24	80	2
4	15	1
137	149	2
54	85	1
34	79	2
41	54	1
38	39	1
25	26	1
123	143	1
21	32	1
13	15	1
154	159	1
5	5	2
2	30	1
131	133	1
122	153	1
70	71	3
63	63	3
78	80	1
131	152	2
136	151	1
61	62	1
139	146	1
62	62	1
65	144	1
143	143	2
16	47	1
28	28	1
38	40	1
4	5	1
144	156	1
92	106	1
8	18	1
12	139	1
34	35	1
113	113	1
125	144	1
23	24	1
93	95	1
31	103	1
67	71	1
24	28	1
54	55	1
29	30	1
44	45	1
148	154	1
56	102	1
21	30	1
139	140	1
105	106	1
7	27	1
5	101	1
5	6	1
55	102	1
79	129	1
4	57	1
113	115	1
11	16	1
0	38	2
76	77	1
111	112	1
44	120	1
103	108	1
73	94	1
139	147	1
