68	68	10
44	60	3
32	32	19
41	41	7
74	74	10
72	72	11
55	55	4
46	46	10
84	84	16
30	30	8
36	37	3
77	77	13
89	89	8
93	93	13
98	114	1
75	75	6
103	103	8
105	106	5
20	35	3
45	45	28
99	99	14
57	58	5
100	100	8
108	108	6
111	113	5
106	107	5
102	102	9
109	110	8
33	33	24
38	61	2
83	84	7
95	95	10
80	80	5
80	81	5
73	73	12
35	94	4
42	42	13
69	69	16
57	91	3
37	37	18
27	27	10
35	46	2
107	108	4
40	40	8
85	100	4
25	25	12
59	59	5
55	64	6
26	28	1
51	51	12
107	107	28
39	40	5
66	67	8
31	31	13
37	38	5
79	79	16
105	105	8
86	86	4
38	39	5
39	41	1
112	113	4
102	103	5
109	109	17
61	62	9
26	26	20
104	104	7
34	34	9
38	38	11
64	65	4
65	65	5
31	54	3
45	46	4
50	50	19
92	92	9
98	99	7
106	106	10
76	76	5
32	35	1
96	96	10
97	97	8
54	54	10
55	61	4
62	63	1
50	51	5
101	101	16
111	111	5
28	28	8
37	40	2
78	79	1
57	57	4
43	44	11
35	35	3
98	98	13
62	62	6
20	22	1
52	52	9
113	113	7
43	43	7
110	110	8
60	60	12
63	63	6
47	48	3
31	33	2
81	81	7
47	83	1
30	31	8
111	112	3
36	36	12
24	24	6
53	53	6
60	62	3
78	78	5
49	49	12
83	83	7
48	48	10
87	87	5
29	31	2
32	76	3
85	86	9
65	66	4
26	27	3
20	20	13
72	73	1
107	112	2
23	24	4
67	73	5
55	57	7
114	114	7
90	90	14
56	56	5
20	48	2
20	21	1
87	88	1
49	115	3
53	54	2
113	114	1
47	87	4
84	86	5
79	80	1
29	29	2
106	108	2
89	96	2
82	83	2
95	114	2
44	54	1
96	99	3
96	97	3
44	44	3
49	92	1
84	85	4
105	107	3
21	22	4
74	75	3
28	46	1
54	55	6
61	61	8
114	115	4
73	74	2
29	81	1
71	71	6
66	74	1
82	82	7
42	44	1
71	72	1
32	75	1
105	110	6
54	62	2
90	105	1
74	77	1
70	70	3
58	62	1
47	47	4
100	101	5
21	21	6
56	57	2
27	28	3
76	78	1
67	68	4
58	59	4
36	45	2
103	106	1
68	69	8
46	93	1
50	73	1
50	52	1
112	112	1
30	34	2
29	30	4
55	65	4
101	102	1
58	58	2
24	45	1
24	34	2
32	53	1
41	43	4
88	88	3
35	87	1
37	95	1
90	95	3
71	73	1
66	69	2
47	80	3
29	47	4
44	45	1
22	22	8
28	88	1
94	94	3
53	73	1
108	109	1
47	82	2
66	66	2
55	56	2
51	52	4
56	92	3
31	77	1
94	111	2
23	92	1
64	66	1
74	76	2
33	34	3
23	23	2
104	105	2
41	96	1
76	77	2
67	67	1
41	44	1
57	59	3
97	107	2
34	45	1
81	82	1
34	36	1
52	53	1
99	100	1
21	29	1
54	56	3
39	39	2
88	114	2
103	104	1
32	63	1
78	82	2
56	60	1
90	93	1
53	57	1
81	85	2
67	70	1
110	111	1
33	36	1
45	95	1
91	93	1
86	90	1
21	30	1
41	42	1
69	73	1
54	63	1
19	20	1
