99	99	2
42	42	10
26	26	8
97	97	6
128	129	3
59	59	3
56	56	4
123	126	2
53	54	7
164	164	6
87	88	1
71	74	3
155	155	4
180	180	6
113	113	8
40	40	6
23	23	8
147	147	4
125	125	4
163	164	3
28	75	1
104	104	4
175	176	3
145	145	3
46	46	8
170	170	4
167	167	3
18	18	3
159	159	10
83	83	13
72	73	3
101	101	3
22	23	6
19	19	3
175	175	6
52	147	2
15	15	4
43	44	5
41	41	6
130	130	2
135	137	4
5	24	1
172	172	2
40	123	3
96	100	1
48	48	5
70	78	4
147	177	2
125	148	1
177	178	3
154	155	1
165	165	4
5	5	11
52	53	9
29	29	4
112	112	8
32	33	2
17	48	3
120	120	6
20	20	6
42	77	2
67	67	2
61	61	5
30	33	2
40	44	1
6	6	5
105	107	3
115	115	4
13	14	3
126	126	7
107	158	6
85	86	1
10	13	1
74	75	1
177	177	5
119	140	2
115	116	4
150	150	5
5	6	3
158	165	3
154	154	9
174	174	3
80	81	6
82	82	4
16	16	5
57	61	2
111	112	3
65	65	4
89	92	3
82	83	2
31	32	1
126	165	2
179	179	2
78	78	3
41	83	2
17	112	4
0	0	10
168	169	2
64	66	3
142	142	6
11	43	1
64	67	1
9	96	5
36	38	1
1	2	6
74	74	2
11	12	5
6	7	2
99	142	2
39	39	6
68	71	4
64	64	5
60	60	1
117	117	4
106	108	3
9	86	2
58	61	5
128	128	5
10	37	5
116	116	3
136	137	2
36	36	2
126	127	4
140	140	11
122	123	3
130	131	3
9	36	3
101	103	4
137	137	5
64	83	10
129	129	4
151	162	4
146	146	5
10	12	1
77	77	2
156	161	1
56	61	2
9	9	2
178	178	4
134	134	3
75	75	3
183	183	4
114	114	5
43	43	5
108	149	4
186	186	3
21	94	3
115	117	9
162	162	4
73	100	4
131	131	3
81	81	3
164	165	7
153	153	5
150	151	1
8	8	7
138	139	1
61	65	2
70	72	2
27	75	1
175	179	1
188	189	1
119	119	2
89	136	3
139	139	6
83	171	1
2	2	4
166	166	3
54	54	2
70	70	3
33	33	7
166	167	5
35	35	2
33	34	1
17	17	2
169	169	4
54	100	3
18	22	2
158	177	3
45	45	1
21	27	2
11	17	2
166	168	5
12	25	3
95	95	8
65	66	1
167	168	4
62	62	3
86	86	6
131	140	1
187	188	2
1	1	5
57	57	2
179	180	2
53	53	4
77	78	1
170	172	4
19	45	5
116	117	2
10	10	2
88	102	1
124	167	1
47	47	1
143	146	1
27	27	2
152	152	12
25	48	3
173	174	3
24	24	2
38	38	9
91	91	5
16	17	2
14	14	4
71	72	4
73	73	4
183	186	3
98	98	2
143	147	1
90	91	1
107	108	2
151	151	3
121	121	4
129	136	2
88	89	2
143	144	1
158	183	3
64	65	2
91	93	2
152	153	1
132	133	1
4	4	3
107	115	2
96	96	1
7	96	3
21	45	1
78	79	2
114	115	2
29	53	2
25	25	3
168	168	3
85	187	3
131	133	2
139	160	2
8	52	1
149	149	4
172	180	2
88	128	3
170	182	1
33	36	1
136	136	3
18	112	1
84	84	1
143	143	2
165	166	1
7	7	1
118	118	1
133	134	3
108	115	3
110	139	2
123	123	3
18	34	1
32	32	1
23	105	4
46	47	2
70	71	2
170	173	1
22	22	2
15	16	3
106	110	1
34	34	1
188	190	2
135	136	2
20	22	2
76	155	1
157	175	1
34	35	2
19	20	1
178	186	1
11	33	2
118	119	1
18	19	2
153	171	1
184	186	1
21	21	2
103	103	6
73	74	1
101	102	1
177	180	2
12	12	2
30	32	2
80	80	2
157	158	2
76	76	1
43	53	2
146	148	1
101	104	1
92	92	2
89	134	1
63	63	3
146	147	1
178	180	3
120	162	1
89	94	2
89	89	2
133	139	1
153	154	1
41	91	1
68	69	1
148	148	1
140	142	1
8	9	1
109	109	2
87	90	1
40	41	1
27	28	1
117	162	1
114	140	1
59	60	3
37	37	1
150	160	1
3	3	2
4	5	2
11	45	1
53	55	2
68	68	2
85	89	2
26	48	2
36	37	1
14	37	1
189	189	2
30	36	1
63	66	1
12	13	1
110	117	1
55	55	2
108	108	1
102	112	1
58	58	3
171	171	1
155	156	1
110	113	1
110	110	1
133	151	1
160	160	1
181	182	1
94	100	1
68	110	1
87	87	1
163	165	1
13	13	1
85	158	1
100	101	1
85	85	1
132	134	1
95	107	1
