167	167	3
127	171	3
14	16	3
35	51	4
173	173	5
113	113	1
125	125	10
148	148	3
142	142	3
151	151	4
81	81	2
138	138	6
164	164	5
138	139	2
107	107	14
132	178	2
166	166	5
79	79	7
6	6	5
149	149	8
152	156	2
168	168	7
153	153	10
22	22	5
94	94	1
140	140	8
157	157	11
145	146	5
43	43	7
162	162	4
66	66	3
77	78	2
139	139	14
110	111	2
155	155	4
178	178	5
176	176	10
73	153	1
3	3	5
112	112	4
50	50	5
25	25	4
0	79	3
90	90	1
132	132	3
44	46	1
85	115	3
35	35	3
30	30	10
102	102	9
143	143	3
16	16	4
31	31	7
54	54	4
174	174	6
96	98	3
128	173	2
80	81	10
119	119	7
101	102	7
7	11	4
10	10	1
4	59	3
36	36	7
131	168	1
150	150	6
110	110	3
141	146	2
27	27	6
95	96	1
76	79	1
131	131	3
89	89	3
86	86	3
12	12	3
158	158	16
15	94	2
164	165	3
134	134	8
135	135	7
169	169	2
167	168	2
113	114	2
76	76	4
93	93	2
45	45	2
8	9	1
17	39	2
85	85	4
153	154	2
163	165	4
103	106	2
172	172	2
100	109	3
161	162	3
177	177	3
60	60	1
44	44	5
133	133	4
116	116	4
52	52	2
30	38	1
91	91	3
14	14	1
7	7	5
104	104	7
163	163	1
109	109	2
92	92	3
99	99	1
146	146	9
108	108	1
180	180	1
165	165	1
141	141	5
41	41	5
7	67	3
35	54	2
2	6	3
15	41	1
33	33	3
89	90	2
98	98	3
14	15	1
80	80	2
0	1	2
171	171	3
4	67	5
76	77	2
34	34	2
32	32	9
70	71	2
175	175	1
1	1	2
130	130	3
143	145	1
123	123	4
29	29	2
94	101	1
176	180	2
125	126	2
123	125	1
78	78	2
51	53	2
126	171	1
54	55	4
12	13	1
8	8	3
72	73	1
117	117	2
39	40	1
121	121	3
124	124	2
154	156	1
137	137	2
81	82	1
23	29	2
121	122	1
0	0	5
63	63	3
127	128	1
3	6	1
50	51	4
105	107	2
29	30	1
159	162	1
70	79	2
9	113	1
103	103	1
145	145	2
13	14	1
36	54	2
114	114	1
108	110	3
116	117	6
40	41	2
147	147	1
147	148	1
142	162	1
135	136	2
9	9	3
15	15	4
162	164	2
74	157	1
126	126	3
39	39	1
40	40	2
23	23	1
114	115	1
76	150	1
170	170	2
87	89	2
36	37	1
105	105	2
13	56	1
27	28	1
148	167	1
82	84	1
122	122	2
62	64	1
172	173	1
120	120	2
70	105	1
151	156	1
171	172	4
83	85	3
95	95	1
61	61	2
102	103	3
21	92	1
15	18	3
38	40	1
67	68	1
24	25	1
170	174	1
68	68	2
54	56	2
11	65	1
118	118	1
118	161	3
56	56	1
115	115	1
159	165	2
11	13	1
176	177	2
134	153	1
156	156	1
116	118	1
159	159	1
20	20	1
43	54	2
70	80	1
93	101	1
37	37	1
25	91	1
179	179	1
53	54	1
53	53	2
31	39	1
129	129	2
18	18	1
130	173	1
2	3	1
17	17	1
75	75	1
143	170	1
165	166	1
35	36	1
97	97	1
13	50	1
