17	35	2
24	24	4
77	78	12
137	140	1
77	77	10
146	147	4
6	6	7
100	101	11
47	53	1
73	84	2
36	36	9
91	91	8
12	12	15
77	84	1
13	14	13
68	68	4
34	38	2
56	56	3
103	103	9
66	66	5
96	96	7
144	144	3
75	84	3
25	25	19
130	130	5
92	92	10
113	113	9
17	17	4
13	13	10
155	155	7
118	119	4
119	119	15
78	79	6
67	67	4
123	123	5
29	103	2
37	37	2
11	11	5
44	44	14
12	17	2
141	141	5
102	102	8
118	118	5
139	139	3
149	149	2
100	100	15
117	117	15
155	156	3
76	76	3
27	28	2
136	146	5
37	40	3
150	150	2
104	105	7
22	22	3
23	23	8
19	38	2
44	144	2
26	26	5
39	148	4
127	127	10
111	111	9
69	71	3
30	30	8
38	39	5
87	87	3
39	39	7
106	107	2
156	156	7
18	48	5
140	140	4
84	88	6
40	149	2
12	51	3
33	45	1
104	116	3
90	90	6
106	106	15
16	16	4
22	97	3
92	93	9
94	95	5
18	18	8
77	83	1
95	96	11
27	27	10
9	122	6
93	94	5
97	98	4
26	91	3
71	154	4
12	26	5
115	115	3
12	43	2
114	116	1
117	118	2
19	19	6
76	85	2
88	88	7
51	51	3
63	154	2
89	94	7
8	8	1
71	71	8
44	150	1
83	84	3
135	140	1
12	13	9
154	154	3
28	28	17
94	103	7
121	127	2
82	83	5
55	55	5
110	111	3
99	104	2
98	98	18
15	16	5
119	121	4
19	21	2
142	142	2
49	78	3
82	82	15
138	145	5
3	3	4
7	8	9
78	78	13
20	21	2
133	133	6
26	102	2
152	152	2
132	132	13
95	95	9
101	102	3
73	99	3
2	3	4
62	63	1
81	82	1
75	75	7
43	45	5
5	5	11
46	46	7
39	144	3
110	110	4
81	114	2
67	68	4
50	50	3
94	94	9
42	157	3
8	9	3
121	122	1
89	89	8
96	97	1
80	80	9
9	9	2
8	21	1
73	73	4
106	128	5
101	101	7
56	61	1
90	91	6
2	2	5
88	112	2
65	130	2
12	95	1
27	103	1
30	103	3
106	115	3
125	125	8
137	137	5
145	145	9
48	49	4
99	100	6
14	14	4
52	52	3
45	46	1
116	116	2
108	112	8
20	41	3
33	56	4
134	135	2
49	49	4
87	103	1
105	107	2
69	130	1
32	40	4
70	71	2
29	30	3
152	153	3
136	136	4
80	81	5
68	69	1
4	4	4
53	53	9
108	109	3
13	15	3
140	141	1
66	132	6
112	112	3
9	10	2
64	64	5
25	26	2
93	93	3
117	122	3
69	70	3
5	73	1
0	0	3
108	111	5
13	16	2
154	156	1
111	112	5
86	86	2
128	128	9
46	47	1
138	138	6
94	102	2
40	40	1
36	37	1
38	157	3
87	109	2
1	1	9
105	105	7
131	131	3
10	10	4
41	43	2
12	91	2
88	89	5
100	155	5
39	150	6
99	99	7
2	29	3
32	32	4
65	66	3
63	63	5
54	54	4
125	126	1
40	41	3
2	100	4
7	7	4
124	124	9
81	81	8
42	45	1
29	29	4
91	103	2
134	134	4
32	140	2
104	106	1
1	2	8
88	105	5
7	65	2
18	141	2
129	130	1
113	114	2
75	154	5
122	122	6
33	33	8
120	123	2
41	41	3
156	157	2
107	107	7
75	127	2
34	41	3
151	152	2
85	123	3
129	129	9
4	6	4
116	123	1
11	12	1
82	84	3
3	26	1
84	84	4
65	131	3
44	56	3
144	150	2
48	48	4
12	25	1
80	82	3
114	115	1
23	24	2
76	77	1
38	38	3
107	114	1
7	30	6
118	121	3
108	108	2
32	33	1
156	158	2
97	97	4
85	85	8
57	146	3
123	126	1
24	25	2
31	31	1
45	45	2
3	101	1
21	47	4
148	148	4
98	107	1
47	48	4
135	141	1
158	158	3
88	90	2
22	44	4
12	15	1
157	157	2
23	43	1
66	144	2
83	83	5
151	151	2
46	54	2
104	104	4
15	15	3
143	144	1
3	4	1
116	124	1
112	113	1
109	109	5
65	65	2
29	73	2
42	42	2
16	50	2
33	42	1
37	156	1
134	150	1
28	30	2
7	20	1
21	22	1
11	32	1
25	92	1
16	18	2
79	80	2
100	105	3
89	91	1
48	51	1
78	123	1
124	127	2
18	19	1
48	158	1
37	157	1
95	102	2
47	47	2
74	155	1
13	110	1
115	116	1
12	52	2
67	71	1
31	34	1
127	128	1
31	35	1
0	97	1
3	27	1
139	140	1
119	120	1
114	114	2
123	124	1
26	27	1
79	79	1
77	100	1
46	55	1
89	113	1
74	74	1
22	28	1
90	112	1
23	29	1
30	65	1
96	99	1
57	57	1
145	147	1
43	43	2
74	75	1
24	28	1
44	45	1
75	83	1
117	121	1
56	57	2
69	69	1
84	85	1
19	37	1
