48	48	6
97	99	2
64	64	5
5	5	4
82	87	2
40	40	9
18	19	5
75	75	3
52	52	6
92	92	10
120	121	3
28	69	6
76	76	5
31	31	4
41	42	1
48	49	1
85	87	2
97	97	5
81	81	7
92	101	3
19	67	4
50	50	11
96	96	4
23	24	5
75	84	2
2	3	4
119	120	6
64	65	1
79	79	6
116	117	1
102	102	8
100	100	1
114	114	4
70	103	2
83	83	5
49	49	10
71	71	5
51	51	14
91	91	7
3	3	14
113	113	6
55	55	2
45	46	1
81	82	5
59	59	6
108	108	3
47	47	3
52	53	2
57	57	7
90	90	7
128	130	1
88	89	7
54	54	11
40	41	2
99	99	4
23	23	7
25	25	7
43	43	7
103	103	14
82	83	4
29	32	5
22	23	4
47	48	3
95	95	6
110	110	2
124	124	10
1	1	3
21	40	4
42	43	4
115	115	2
2	2	3
78	79	3
62	62	5
21	33	1
122	125	5
27	27	7
68	69	5
67	67	4
86	86	5
16	16	7
83	87	1
110	111	2
96	113	4
111	111	7
74	103	2
79	80	2
28	68	2
119	130	3
45	45	6
11	11	6
96	118	2
51	52	3
34	34	4
96	114	2
67	68	2
125	125	3
24	24	3
101	101	5
39	40	1
86	108	3
105	107	2
67	70	3
78	80	4
42	42	2
75	76	1
101	102	2
119	119	6
76	85	1
104	104	7
6	6	7
107	107	3
127	127	1
49	51	3
0	1	1
131	131	5
112	131	1
22	22	6
87	87	6
24	40	1
9	10	4
77	77	3
8	8	3
26	26	10
118	118	1
4	4	4
41	41	6
97	98	4
84	84	3
30	31	2
19	20	3
88	88	2
19	19	7
13	22	2
93	95	2
122	122	4
80	80	2
120	120	6
110	112	2
70	70	6
13	14	2
98	98	2
20	21	4
9	9	3
55	59	4
17	17	7
95	96	1
13	13	1
85	85	3
27	31	3
89	103	1
123	123	4
130	130	4
29	30	5
38	38	1
56	58	2
69	95	4
66	66	3
60	60	5
56	56	1
128	128	2
62	69	3
57	58	4
129	129	3
11	12	1
17	101	3
105	105	3
29	29	6
44	44	2
109	111	1
131	132	3
132	132	6
72	73	3
20	30	1
41	66	2
68	68	3
39	39	3
84	87	3
121	121	5
78	78	2
70	102	1
89	89	5
7	7	1
46	46	3
115	116	3
66	67	1
65	66	2
32	44	1
71	72	1
123	124	1
109	109	1
73	74	1
21	22	1
26	27	1
0	0	2
72	72	1
53	53	2
93	93	3
61	61	3
33	68	1
97	117	1
64	114	2
113	118	1
33	33	3
91	92	1
74	74	1
101	118	2
86	87	3
20	20	3
34	38	1
122	123	1
76	77	1
64	69	2
113	114	1
74	102	1
107	108	2
63	102	1
10	10	2
73	73	2
117	117	1
105	109	1
3	4	1
92	102	1
104	106	1
94	94	2
28	44	1
89	94	1
10	11	1
7	8	1
112	112	2
105	108	1
49	50	2
14	22	1
6	7	1
67	71	1
16	17	1
15	21	2
23	25	1
31	32	1
95	118	1
89	91	1
33	41	1
94	95	1
56	57	1
