89	90	5
128	128	5
53	53	4
4	5	6
10	11	5
31	31	8
97	97	8
88	88	8
76	77	2
134	134	3
59	59	4
98	98	16
125	125	1
117	117	5
118	118	5
7	7	7
37	37	4
83	86	10
115	116	1
91	91	3
113	114	7
21	21	4
133	134	4
68	68	8
101	101	9
65	88	4
45	108	9
46	107	1
8	8	9
62	94	2
90	90	7
126	127	3
127	127	9
66	66	6
89	89	6
80	80	3
7	8	5
63	63	1
100	100	6
54	55	1
45	45	5
112	113	2
19	20	1
45	110	3
16	25	2
25	26	2
107	107	4
14	15	3
4	4	11
102	102	6
30	30	11
34	35	1
28	28	3
22	23	6
103	124	1
13	13	3
43	43	7
55	60	2
112	112	3
54	88	2
20	77	2
30	32	3
15	15	4
3	3	13
111	111	2
64	64	3
111	127	1
99	99	9
82	82	7
1	50	12
78	78	11
13	30	3
62	62	8
69	70	2
25	25	7
126	126	3
109	110	2
34	34	9
105	105	3
74	74	6
106	106	3
92	92	3
130	130	5
115	115	4
21	23	1
16	26	5
57	58	3
107	110	1
1	2	3
83	83	5
103	103	1
117	119	2
110	110	1
0	0	1
33	35	5
61	64	1
10	12	1
6	6	10
11	11	7
18	20	3
73	73	6
56	56	3
95	95	3
65	65	8
131	132	4
32	32	1
117	118	1
19	78	5
84	84	3
10	10	2
63	93	1
70	70	4
110	111	5
30	35	1
2	3	6
6	11	3
84	86	3
131	131	6
118	120	1
30	50	5
123	123	4
1	1	6
129	129	10
3	30	2
91	92	5
72	72	4
108	109	2
106	109	4
58	58	10
87	92	1
28	88	6
81	81	5
67	67	3
14	14	4
106	112	2
108	108	3
30	88	1
98	122	2
88	132	1
13	14	4
133	135	1
35	38	1
33	33	2
36	52	1
121	121	1
105	115	1
1	11	1
120	120	4
22	24	1
63	64	1
99	102	6
38	44	1
21	76	3
97	98	4
92	93	2
94	95	1
71	71	2
96	126	4
12	12	4
119	119	3
67	68	3
99	100	1
86	87	1
79	79	2
29	34	2
106	113	3
7	10	3
30	31	2
86	86	3
52	52	2
5	5	5
111	112	3
94	94	3
25	82	1
8	9	1
103	105	1
9	10	2
104	104	2
16	16	3
35	35	10
84	85	3
3	11	3
109	127	2
58	117	1
47	47	2
75	75	3
50	50	2
87	87	1
60	60	4
24	24	2
15	16	2
20	24	1
83	84	3
57	57	2
97	116	1
116	117	2
45	127	1
52	55	1
109	109	2
65	90	1
132	132	2
29	29	2
56	57	1
96	96	1
113	113	3
53	65	1
55	55	2
73	75	1
122	123	2
77	77	1
19	19	2
79	80	2
54	56	1
121	122	1
12	13	3
19	21	2
27	29	1
124	124	2
73	74	1
15	28	1
28	36	1
31	45	2
44	44	4
31	37	1
43	109	2
1	9	1
116	121	2
20	20	3
113	115	1
116	116	2
100	102	2
112	126	1
127	128	2
9	9	2
24	83	1
30	49	1
102	103	1
33	34	1
114	115	2
102	124	1
29	33	1
68	69	2
44	47	1
32	34	1
32	113	1
104	115	1
22	22	1
36	37	1
103	123	1
28	86	1
2	2	1
53	54	1
23	23	1
22	79	1
88	89	1
26	26	1
83	87	1
