53	114	2
51	51	9
127	133	3
30	30	8
94	94	12
35	35	9
9	9	5
130	140	5
134	134	2
138	138	6
5	23	2
116	116	4
94	95	2
28	93	4
84	84	3
6	47	2
135	135	5
42	89	4
65	66	3
144	145	4
107	126	3
89	90	3
49	50	8
106	126	5
48	48	6
47	47	3
62	64	1
52	52	1
109	110	4
77	78	2
58	58	14
126	126	8
0	0	5
16	16	1
59	59	18
65	97	1
83	85	3
83	83	2
92	94	4
6	6	9
142	144	4
82	84	1
139	139	6
112	112	5
0	47	1
43	86	5
39	66	3
88	88	11
41	41	8
57	57	5
62	62	5
132	132	11
86	86	12
12	42	2
25	25	7
14	15	3
71	71	6
72	81	3
11	11	3
10	11	7
118	118	26
140	140	3
119	128	1
100	100	3
91	91	3
24	47	2
105	108	5
10	21	4
4	4	3
40	84	3
130	139	2
52	138	4
68	96	1
128	129	4
58	59	2
81	81	2
111	111	4
26	26	7
56	56	4
136	136	3
99	99	4
5	5	9
8	8	6
50	51	3
88	90	3
93	94	2
16	20	3
54	54	3
61	61	3
73	73	4
23	77	6
87	87	2
119	123	1
24	24	4
75	75	5
39	40	2
77	77	4
40	60	8
113	120	2
88	95	4
71	72	3
9	10	5
4	16	3
31	31	8
3	3	7
123	133	1
47	51	3
131	131	3
109	111	2
95	95	8
121	123	1
59	65	4
15	15	3
119	120	3
42	42	3
12	14	2
17	19	7
41	42	3
48	89	1
103	132	2
34	35	2
28	87	2
38	42	3
130	130	1
33	33	6
80	81	3
124	124	10
1	22	2
67	67	5
18	20	1
54	112	2
141	142	6
49	52	1
110	110	3
133	133	4
103	103	4
109	109	6
59	118	1
96	96	5
26	75	2
15	33	1
18	28	2
76	76	2
111	122	1
14	14	5
27	27	4
21	21	1
90	90	5
65	65	5
28	66	1
50	50	9
37	37	2
142	142	1
135	136	1
40	40	4
119	119	4
10	10	5
22	94	1
22	22	2
106	106	4
105	105	4
73	80	3
141	141	3
59	99	1
18	32	3
24	27	3
55	96	4
125	125	3
69	70	4
18	18	4
114	114	1
144	144	8
122	123	4
106	123	1
4	12	3
20	20	2
63	63	3
119	129	3
93	93	1
38	38	2
105	106	2
137	139	4
8	9	2
31	42	1
138	139	6
38	91	3
28	28	6
41	84	3
49	49	4
27	72	3
5	12	1
130	131	2
135	137	1
122	138	1
79	82	2
14	43	2
18	23	3
121	121	1
53	138	2
34	34	2
12	12	1
55	55	5
82	83	1
128	132	4
90	92	2
102	102	6
42	59	1
36	36	5
28	92	2
11	101	3
129	129	1
124	125	3
78	78	3
4	19	7
23	24	2
87	90	2
50	138	1
8	28	3
122	122	2
13	13	1
113	113	2
123	134	3
53	53	4
114	118	3
128	130	1
74	75	1
38	88	1
59	61	1
92	95	1
1	8	1
70	100	2
31	33	2
129	131	2
85	85	6
26	30	1
63	65	4
0	1	1
136	137	1
104	104	4
123	137	2
35	86	3
57	58	2
64	64	6
101	101	3
114	115	1
39	68	1
64	65	2
4	14	2
40	82	1
56	57	2
23	23	2
136	139	2
118	130	1
9	17	1
107	107	2
64	67	3
136	140	2
49	115	3
116	117	1
112	121	3
82	82	1
90	93	2
14	34	2
36	88	2
66	116	1
54	56	2
79	92	1
37	50	3
65	82	1
91	94	2
145	145	2
31	32	1
53	107	1
10	19	1
98	98	2
2	2	1
131	135	1
53	136	2
28	30	2
1	10	1
19	19	7
97	98	1
2	86	1
60	60	4
2	41	3
18	29	1
3	91	1
131	137	1
28	29	1
89	92	4
32	32	2
112	113	2
1	1	1
22	26	1
143	143	2
117	129	1
49	89	1
58	99	2
36	90	2
79	79	2
132	133	2
37	38	1
98	99	2
117	117	8
68	69	1
20	35	2
70	98	1
3	5	1
27	28	1
120	120	1
123	123	1
19	32	1
103	104	1
69	69	2
127	127	1
36	37	4
6	87	1
22	38	1
137	137	1
90	102	1
43	82	1
142	143	1
10	22	1
62	63	1
8	20	1
71	130	1
72	72	1
39	39	2
97	97	1
32	33	1
50	115	1
36	50	1
16	17	1
70	70	1
53	54	1
102	135	1
104	105	1
16	21	1
15	18	1
48	130	1
118	128	1
104	135	1
93	103	1
37	48	1
102	104	1
9	25	1
133	134	1
15	61	1
50	85	1
56	136	1
