154	156	4
92	92	8
81	102	2
18	18	6
118	118	2
40	40	14
114	127	3
7	7	11
165	165	6
116	118	1
136	136	2
97	116	3
131	132	3
51	51	4
117	118	1
102	106	1
96	167	2
157	157	6
94	94	6
2	2	3
76	76	7
13	17	3
71	75	5
7	12	3
121	121	6
44	46	6
108	108	11
153	158	2
136	178	2
121	123	1
126	126	14
120	129	6
85	85	9
26	44	2
21	32	1
138	138	9
141	141	3
7	8	2
97	128	2
66	68	3
15	19	5
11	12	2
170	170	6
60	80	1
109	109	10
130	135	2
39	43	1
42	43	5
37	37	11
32	32	5
43	43	12
56	57	2
158	169	1
131	131	4
167	167	6
107	107	2
18	20	4
98	100	7
10	32	2
165	166	5
11	45	3
14	15	4
174	178	5
84	87	8
90	96	1
52	52	8
136	142	2
60	78	3
149	179	1
19	28	1
124	128	2
24	33	2
12	17	4
138	140	1
143	155	3
58	58	10
141	147	4
150	151	5
61	62	2
33	34	4
142	160	3
84	127	3
34	36	2
24	25	2
103	103	7
26	26	2
169	169	10
65	65	8
79	87	4
151	151	2
124	124	7
166	167	5
122	122	7
5	5	6
33	116	3
166	166	16
162	166	1
63	66	3
130	130	6
89	91	3
104	107	1
117	122	2
180	180	5
98	98	1
11	11	6
145	148	3
126	128	1
139	158	2
141	142	2
38	38	6
120	133	3
40	41	13
134	134	4
144	144	11
121	124	2
62	63	1
92	95	2
15	15	6
28	41	1
139	142	2
143	143	5
98	113	2
41	41	5
131	150	2
85	97	2
50	51	7
149	149	11
151	166	3
114	114	9
125	126	3
52	53	2
125	131	3
8	11	3
132	139	3
33	33	8
102	109	2
164	164	7
169	177	4
74	78	2
59	160	4
104	113	3
88	88	4
96	98	2
177	178	10
84	86	2
132	133	6
60	60	5
156	157	4
171	172	3
163	164	2
156	158	5
91	91	7
139	139	6
65	82	2
141	155	2
119	121	3
62	62	8
6	6	7
87	87	5
81	86	3
173	174	9
107	116	3
81	85	6
142	142	6
156	156	3
138	150	1
4	19	3
152	153	3
126	127	2
91	97	1
154	158	4
175	176	5
23	24	4
30	32	4
75	75	4
112	112	2
80	81	8
50	127	2
35	37	2
154	155	4
90	90	5
158	158	2
129	137	3
155	156	7
143	145	1
154	154	7
21	23	4
151	163	5
152	152	4
32	33	4
24	26	1
87	90	3
55	55	5
149	162	6
95	98	4
43	44	4
119	125	1
141	152	1
74	76	1
148	148	8
113	120	3
175	175	4
36	115	3
83	84	6
44	44	4
115	116	5
51	52	4
133	133	7
127	130	2
147	158	1
90	93	1
142	152	4
78	84	3
91	92	1
93	94	4
35	36	1
91	94	1
45	72	4
3	10	1
74	84	3
101	102	4
83	83	4
110	161	2
50	101	4
161	161	5
162	162	4
25	44	3
168	168	5
130	142	1
21	112	3
66	73	5
114	126	2
51	65	1
94	95	2
16	24	3
23	23	4
147	164	1
71	71	8
58	60	3
173	176	2
125	132	1
160	160	2
16	17	2
73	73	6
113	113	7
131	137	1
59	59	2
154	163	1
149	150	2
79	100	2
30	31	5
77	125	1
154	168	3
135	136	4
103	114	2
138	141	3
114	118	3
94	111	1
53	57	3
144	145	6
0	94	1
9	17	1
100	100	7
16	16	2
82	83	3
12	19	2
107	119	5
81	117	6
147	162	2
37	140	2
55	56	3
128	128	3
128	133	2
132	132	4
29	30	1
148	180	1
141	146	6
80	119	3
103	104	1
19	20	4
29	32	2
61	61	4
4	28	1
28	28	2
171	175	1
99	100	2
13	13	4
75	78	1
146	147	2
148	156	2
56	56	5
13	33	2
173	173	9
15	57	3
114	115	2
127	127	5
136	159	2
30	30	3
167	176	1
49	52	2
129	129	3
135	142	3
77	77	4
8	8	5
166	179	5
108	120	2
89	89	5
38	41	2
140	154	3
125	125	5
67	83	2
98	144	2
41	42	1
12	13	3
21	22	4
115	115	1
140	142	2
136	148	4
138	139	6
38	100	2
41	43	1
174	180	1
27	27	6
126	129	5
8	20	5
50	58	2
31	31	4
155	159	4
159	159	7
108	109	3
123	126	1
36	38	1
113	119	4
119	124	1
118	119	1
110	113	2
23	114	1
82	82	3
63	77	3
10	10	4
159	161	2
150	167	1
163	163	2
53	54	1
72	81	1
135	135	4
155	155	13
72	79	3
154	165	2
9	32	4
77	102	2
70	70	3
138	142	3
81	94	1
14	19	1
59	83	1
164	165	2
113	129	1
140	177	1
163	168	1
162	172	2
10	17	6
156	173	1
133	155	2
80	83	2
131	133	1
104	104	3
137	155	4
157	162	3
142	178	4
143	148	3
2	5	1
66	66	1
85	86	4
110	111	1
63	63	2
75	77	1
148	161	4
154	157	3
137	137	1
64	65	4
61	63	1
49	59	2
114	121	2
95	116	1
62	65	1
86	163	3
88	107	3
6	20	1
25	25	2
179	179	2
176	176	2
102	128	1
55	66	1
1	21	2
50	50	3
90	95	1
12	12	3
59	62	2
102	102	6
98	105	2
12	14	1
27	58	1
38	42	1
169	180	2
14	45	2
86	92	4
122	123	1
147	156	1
80	102	1
42	42	4
167	171	4
126	130	1
45	45	2
92	93	1
140	152	3
1	20	3
9	9	1
169	173	1
140	140	1
125	127	2
129	131	3
14	14	6
91	135	3
140	150	1
145	146	8
25	36	1
5	31	2
99	104	2
73	74	2
119	119	2
148	170	2
128	129	1
29	29	1
171	180	2
101	109	1
148	155	1
57	57	2
7	9	2
168	179	1
25	26	2
173	179	1
163	179	2
65	66	4
149	155	2
96	130	2
139	143	2
37	114	1
171	179	1
141	149	1
74	74	2
3	3	1
36	36	3
36	118	1
35	45	1
74	77	1
53	56	2
146	146	2
18	22	2
153	162	4
135	153	1
7	18	1
2	4	2
5	12	3
154	166	2
170	173	3
61	75	2
84	84	3
68	68	1
60	62	2
158	163	1
21	21	1
15	18	1
105	107	2
67	68	3
140	141	1
147	147	1
42	44	1
106	106	3
102	108	2
43	45	1
27	30	2
174	174	4
51	66	1
7	10	2
160	163	2
82	97	3
70	71	1
148	149	1
118	145	1
84	129	1
67	71	1
37	38	1
152	180	1
9	33	1
86	160	1
27	33	1
72	72	2
37	112	1
1	4	1
53	60	1
79	79	1
56	59	1
161	162	1
86	96	1
73	79	1
59	63	2
158	162	1
68	84	1
177	177	4
130	134	2
100	115	1
150	152	2
107	108	1
143	152	1
132	149	1
157	161	1
121	138	1
168	174	2
143	144	1
82	88	3
142	146	1
4	4	1
31	39	3
86	86	1
82	87	3
167	169	1
102	103	1
31	38	1
38	43	2
6	8	2
97	99	1
72	98	2
16	27	1
157	160	1
149	154	1
155	157	1
88	89	2
85	87	1
58	61	1
160	167	1
157	169	2
109	112	1
71	79	1
95	113	1
154	179	3
53	53	2
2	3	3
39	40	2
178	180	1
136	145	4
90	112	1
163	169	1
132	134	2
80	80	3
139	171	1
129	152	1
104	105	1
74	82	1
5	44	1
38	128	2
114	116	1
116	116	2
22	25	2
22	26	1
74	81	1
76	77	1
147	148	1
89	96	3
36	41	2
150	153	1
45	52	1
63	65	2
121	140	1
122	125	1
154	167	2
5	10	1
82	94	1
115	124	1
52	55	1
100	107	1
54	54	1
89	95	1
39	39	1
109	114	1
64	64	1
122	124	1
50	63	1
58	76	1
145	150	1
104	106	1
68	73	2
176	179	1
17	22	1
29	31	1
111	160	1
137	152	1
52	67	1
103	112	2
162	169	1
50	53	1
125	133	1
90	94	1
73	83	1
75	81	1
0	2	1
34	39	1
3	6	1
159	160	1
128	134	1
67	67	1
81	81	1
29	49	1
124	138	1
15	16	1
95	95	1
62	64	1
159	162	1
90	91	1
94	96	1
