97	172	1
202	202	9
210	210	4
71	72	8
96	96	3
118	214	3
161	166	2
225	225	10
55	55	8
168	169	1
5	55	7
99	99	8
96	97	2
45	46	1
22	22	17
207	207	10
214	223	2
176	176	1
109	109	9
114	114	10
244	244	9
20	21	7
221	222	2
81	81	12
230	240	4
84	84	11
162	180	5
171	171	11
68	68	13
34	34	3
10	10	11
6	20	3
170	170	16
70	71	3
194	194	1
46	46	23
85	85	10
241	245	2
53	53	14
212	212	11
226	226	17
160	160	11
209	209	9
193	193	12
102	103	5
78	78	6
187	190	5
219	219	8
23	23	4
33	33	18
242	242	8
75	75	7
155	155	11
247	247	7
198	214	1
154	154	5
61	61	14
21	23	1
16	16	15
74	74	10
116	116	23
151	151	12
152	160	2
44	44	7
6	7	2
43	44	2
79	79	5
214	214	12
162	162	1
234	234	4
5	5	4
11	18	3
30	30	9
183	183	4
86	107	1
107	108	3
57	98	1
209	210	1
71	80	4
90	90	11
91	91	5
97	97	7
175	176	11
49	51	4
236	245	7
92	92	4
66	66	4
59	59	11
215	215	8
62	62	7
79	80	3
20	20	22
177	177	3
55	56	2
190	191	1
19	19	14
163	163	15
87	87	15
85	117	2
217	217	9
40	40	18
210	211	3
82	82	5
104	104	3
145	145	7
73	74	3
218	218	7
245	246	10
213	213	7
236	237	3
198	198	3
98	98	11
14	14	9
45	45	9
67	82	1
86	108	3
71	71	10
228	228	12
48	48	10
237	239	8
100	101	5
168	168	9
93	94	8
82	86	3
95	95	11
147	246	1
47	47	8
9	10	3
191	210	1
229	229	8
16	17	5
31	31	17
7	7	8
17	25	1
42	42	8
151	192	4
39	40	2
52	52	13
58	59	3
205	205	3
235	236	2
56	56	3
60	60	5
189	203	2
82	84	7
41	41	15
58	60	1
4	50	1
152	152	4
207	211	1
211	212	3
110	110	9
236	236	5
246	246	7
112	164	1
156	160	1
184	184	7
94	94	3
11	19	2
115	165	5
108	108	20
144	145	3
28	244	2
186	190	8
223	223	10
1	2	1
228	235	3
111	111	7
117	117	9
55	62	2
15	181	1
39	48	2
69	69	11
43	43	14
76	115	1
54	54	9
166	166	7
28	28	10
34	224	1
3	3	7
18	18	5
93	93	4
216	216	17
238	238	8
25	25	5
29	29	13
160	161	1
49	49	18
115	115	9
156	156	7
71	84	3
235	235	12
32	32	7
230	231	4
243	244	3
227	228	3
187	187	3
218	219	6
217	218	5
236	239	3
158	159	5
63	65	4
30	42	7
154	155	5
36	36	13
180	189	4
197	198	4
203	203	8
155	156	8
26	26	16
179	179	9
102	102	10
83	84	2
238	239	3
4	4	4
200	200	8
185	185	6
81	86	1
49	50	1
13	13	4
232	232	6
52	62	3
31	41	3
65	115	1
107	107	11
157	186	2
220	220	12
150	151	4
2	2	3
240	240	9
30	34	5
222	222	10
158	158	12
89	96	1
39	39	9
58	58	7
234	235	4
75	76	4
214	215	12
221	221	3
37	37	13
8	8	13
89	207	2
197	197	10
157	157	13
7	154	1
179	197	1
61	62	5
222	224	3
70	70	12
14	181	2
91	213	3
222	223	2
27	28	4
228	229	3
231	231	8
120	120	4
104	215	2
164	164	17
47	48	1
103	104	2
47	75	2
38	47	3
227	227	14
170	196	5
82	85	2
29	30	3
10	12	3
159	239	4
113	113	11
17	17	12
24	24	9
27	27	9
94	101	2
10	224	1
204	204	7
57	57	5
100	100	7
206	210	3
179	180	3
9	9	11
105	174	2
151	152	2
46	47	1
245	245	5
238	240	2
36	37	1
5	50	6
180	186	2
80	81	6
106	115	2
224	224	10
67	67	12
208	208	11
29	41	2
118	118	7
226	227	3
12	182	3
150	150	9
242	245	5
223	230	6
96	105	1
56	57	1
240	241	4
106	106	9
224	246	2
219	239	3
145	153	3
19	41	2
103	103	3
201	201	9
51	51	10
102	104	1
147	183	4
112	112	3
109	110	2
199	199	3
63	66	1
173	173	7
149	149	3
159	181	1
165	165	9
105	109	2
233	233	1
50	50	3
215	217	1
57	62	1
92	114	5
188	188	3
22	23	1
54	68	4
38	38	6
38	39	2
172	172	2
21	21	6
76	76	5
111	112	4
114	145	4
72	93	3
233	240	1
85	102	1
39	66	1
147	184	1
26	27	10
7	45	1
219	238	4
159	159	6
74	75	5
204	205	1
181	181	4
153	153	3
47	76	2
21	26	5
232	235	3
174	175	1
182	182	10
5	49	5
64	64	6
4	5	1
101	101	4
65	109	6
183	184	1
184	185	2
6	111	2
167	167	9
88	99	2
156	202	3
43	51	2
77	80	1
145	202	2
57	61	4
84	108	1
58	74	4
147	147	2
88	88	6
41	224	1
21	22	3
156	165	2
44	45	2
77	77	7
116	174	1
12	12	3
115	164	2
181	182	8
243	243	3
29	37	2
5	7	2
75	185	3
37	38	5
54	186	3
225	226	3
217	220	2
80	86	2
30	44	2
214	219	3
172	175	1
197	212	1
40	47	3
119	119	3
2	46	2
183	193	3
85	120	1
214	221	1
119	120	1
111	113	2
153	156	1
28	54	3
154	226	1
63	63	6
62	68	2
87	88	1
193	194	2
105	106	2
207	208	4
86	86	5
54	227	1
117	118	1
35	36	3
174	174	4
208	216	1
167	168	3
176	177	1
242	244	3
78	84	1
10	18	3
63	70	1
48	64	3
88	100	1
161	161	2
233	235	1
161	168	3
182	183	2
23	42	1
110	114	1
99	101	2
237	237	4
173	176	1
105	105	3
229	249	1
91	93	2
169	170	1
8	109	1
109	111	1
173	183	1
35	44	2
117	149	2
20	22	1
61	67	1
59	60	2
15	15	2
19	25	2
65	65	1
18	201	2
180	180	3
229	231	1
68	70	1
191	194	1
76	78	1
162	239	1
195	195	1
156	161	1
49	57	1
3	55	3
87	106	3
5	11	2
159	169	3
31	113	1
99	213	3
87	92	1
186	226	2
156	163	2
32	36	1
91	92	2
73	73	5
146	146	1
25	26	4
59	69	1
90	93	3
69	70	2
206	206	2
170	194	1
230	230	1
232	234	2
5	35	2
118	215	1
112	113	1
15	183	2
35	35	4
27	29	2
158	239	1
175	175	3
58	73	1
104	158	1
200	201	2
191	191	2
5	34	1
174	178	3
159	237	1
23	36	1
80	80	1
89	89	2
184	186	1
207	209	1
6	15	2
94	213	1
65	80	1
85	86	1
55	154	1
84	102	3
90	91	1
95	97	1
158	175	1
35	37	1
166	178	2
121	121	1
241	241	2
22	37	1
170	171	1
194	209	2
28	31	1
8	63	2
144	147	2
3	20	1
12	14	3
65	70	1
194	208	1
175	193	1
6	16	2
19	24	1
48	54	1
157	159	1
63	64	1
31	62	2
159	160	1
157	175	1
201	202	3
65	66	3
233	245	1
161	238	2
1	1	1
192	196	1
11	204	1
153	164	1
43	52	1
105	111	1
6	155	3
184	231	1
213	214	1
199	200	2
52	53	1
157	177	2
84	85	1
7	76	1
32	41	1
40	41	1
168	173	1
68	69	1
110	111	1
11	112	1
2	3	2
32	204	2
231	233	1
90	97	1
104	105	1
17	18	1
10	11	2
194	196	1
166	171	1
113	155	1
180	182	1
114	115	1
213	215	1
4	51	1
165	178	1
214	222	1
111	166	1
106	108	1
2	43	1
100	203	1
65	81	1
157	222	1
179	182	1
195	198	1
12	183	1
76	77	2
73	91	1
73	86	1
110	147	2
6	6	1
212	236	1
173	184	1
236	243	1
77	78	1
88	89	1
198	210	1
74	91	1
216	222	1
240	246	1
18	19	1
7	77	1
162	179	1
11	111	1
191	208	1
220	232	2
