14	16	3
114	130	3
185	185	3
231	238	2
235	235	1
121	141	4
236	236	1
27	38	2
37	37	7
53	75	2
168	175	2
99	102	3
148	158	2
148	152	1
178	180	1
77	77	2
231	231	3
28	29	3
155	155	4
19	21	4
155	169	4
190	190	3
72	81	1
6	10	2
140	141	4
157	159	3
2	7	2
193	194	1
147	147	3
178	179	1
212	213	3
136	159	3
209	211	1
191	191	7
212	214	2
25	25	1
219	219	2
139	142	1
183	183	1
22	22	2
190	200	2
169	173	2
15	18	2
121	121	3
84	85	3
137	152	3
223	224	3
163	163	7
194	194	1
195	199	3
154	166	1
165	182	3
41	42	3
237	237	3
67	69	3
219	241	3
147	154	2
222	222	2
118	121	3
187	187	4
61	83	1
67	67	4
131	131	2
172	182	3
47	59	1
192	202	5
178	189	1
227	227	4
106	119	4
215	219	6
175	188	4
224	224	1
162	165	4
35	35	5
55	75	1
6	8	2
76	88	1
40	42	1
9	24	2
229	241	3
238	239	2
135	135	4
213	226	1
152	152	1
85	85	2
174	185	1
5	5	6
99	99	3
221	231	2
12	12	1
201	211	4
31	31	4
137	140	3
6	22	4
1	2	4
141	156	3
16	16	7
219	227	1
149	151	2
229	229	2
26	38	2
210	220	5
48	48	2
55	67	1
10	25	1
233	235	4
141	141	1
77	78	2
109	134	1
164	167	3
173	173	4
128	129	2
14	14	3
114	114	3
48	58	1
158	163	1
170	179	3
47	47	2
137	137	6
196	196	2
72	75	3
150	151	1
211	215	1
76	80	2
140	140	4
173	193	2
167	167	2
216	221	1
127	127	3
42	62	3
36	36	1
56	56	2
37	50	1
43	43	4
12	15	1
189	189	1
180	180	4
21	23	3
13	22	1
174	174	2
200	209	1
141	144	1
229	242	2
40	40	4
182	183	3
170	176	2
60	79	1
117	125	1
165	165	1
7	19	1
187	188	1
166	166	4
62	62	1
195	197	3
102	104	2
43	59	3
233	234	2
145	145	6
8	8	4
234	237	2
119	124	1
46	53	2
97	97	2
150	150	2
147	149	3
118	119	1
80	80	3
52	61	1
72	87	1
49	49	5
227	240	1
10	11	1
45	48	2
85	99	1
139	151	1
184	184	2
194	204	1
143	144	1
238	238	8
202	213	3
181	190	2
219	220	2
98	99	1
139	139	1
200	201	1
18	18	4
83	83	1
217	222	1
79	79	3
71	77	1
213	214	2
217	228	1
35	49	2
162	162	1
127	140	2
224	237	1
213	213	5
171	171	1
1	1	4
199	199	6
1	6	3
235	241	2
162	171	3
191	203	1
138	138	5
108	121	2
58	58	5
160	171	2
239	240	1
162	166	2
125	125	3
4	4	1
234	234	4
223	223	4
157	158	1
193	203	1
142	143	1
202	203	1
146	155	2
85	101	4
178	197	1
211	211	2
5	11	3
164	164	2
232	232	3
170	170	1
109	110	5
163	164	1
69	79	3
47	48	2
233	233	2
176	179	1
136	145	1
38	38	3
218	232	2
49	102	2
60	60	4
25	26	1
121	126	3
201	201	1
178	178	2
23	23	1
176	187	3
80	82	1
124	124	1
212	222	1
84	84	3
116	133	1
4	8	1
202	202	4
197	200	3
46	51	2
115	129	1
142	142	3
197	197	1
128	128	1
109	119	1
231	233	1
211	212	1
46	54	1
103	115	1
14	17	1
65	65	4
114	115	4
26	26	2
115	116	2
83	84	3
0	4	1
162	167	1
0	7	1
115	128	1
160	167	1
227	229	2
220	220	2
4	21	1
29	32	1
185	188	1
113	117	1
127	128	3
218	239	1
29	29	1
41	41	1
152	160	2
126	128	1
38	49	1
142	148	1
240	242	3
80	81	3
172	192	1
7	9	2
193	200	1
188	188	1
10	10	1
134	144	2
195	216	1
185	199	2
73	74	1
9	10	1
9	9	1
3	8	1
26	56	1
124	144	1
16	27	1
36	47	1
218	222	1
11	11	3
168	171	2
51	61	1
220	231	1
158	166	2
60	70	4
61	61	1
160	172	1
96	100	1
197	198	2
3	3	1
177	177	1
42	42	1
237	240	1
130	144	1
2	3	1
49	59	2
102	102	3
207	207	1
215	215	1
14	24	1
9	19	2
108	136	2
64	65	2
175	176	1
72	72	1
225	227	1
104	128	1
60	64	1
87	87	2
192	216	1
108	119	1
76	89	1
169	169	1
81	86	1
148	160	1
121	130	1
86	88	1
198	198	1
151	151	2
183	184	3
15	133	1
12	16	1
64	64	1
100	112	1
190	203	2
173	184	1
33	41	1
182	184	1
13	13	1
193	206	1
74	74	1
195	196	1
179	181	1
139	145	1
214	217	1
9	21	1
186	186	1
169	170	1
23	24	2
159	159	1
15	19	1
175	175	1
198	225	1
39	40	1
22	25	1
207	208	1
129	141	1
136	147	1
144	144	1
10	21	1
15	16	1
171	186	1
70	71	1
86	86	1
9	12	1
15	20	1
