78	153	1
152	153	5
61	62	13
46	180	2
112	112	7
89	89	18
3	109	2
149	149	12
128	128	5
120	120	17
37	38	11
4	10	2
57	74	1
169	171	3
159	159	4
124	124	3
169	169	3
47	47	10
115	116	4
92	94	4
18	19	2
55	55	6
118	118	17
46	46	13
54	56	6
13	13	16
187	188	4
55	58	1
111	112	3
12	13	5
121	121	13
64	69	2
45	45	6
147	163	7
106	144	2
131	132	4
10	39	1
111	111	15
27	28	3
0	0	14
94	94	11
79	81	12
47	48	2
126	126	7
190	190	5
11	39	1
179	179	3
142	144	3
171	171	4
38	39	3
146	146	12
61	61	15
8	54	1
60	60	6
12	30	1
35	35	4
87	87	16
117	117	8
147	147	13
24	24	7
189	189	5
147	149	3
175	188	1
42	42	14
115	115	5
88	185	2
80	80	11
98	98	8
117	174	3
153	162	1
174	174	5
129	129	14
101	101	3
78	78	11
153	153	10
39	39	15
182	182	8
165	165	10
11	11	15
130	130	8
175	175	10
188	190	3
32	33	7
68	139	1
18	27	3
78	161	5
57	126	2
79	79	4
149	150	7
89	90	4
100	105	3
13	14	7
173	173	5
20	20	9
41	41	12
3	3	8
21	21	9
62	62	10
73	74	10
40	113	3
57	103	1
76	83	2
11	12	7
96	122	5
66	115	3
143	143	13
65	65	10
160	160	7
80	81	4
57	88	1
103	104	2
99	99	7
64	64	6
173	179	2
25	38	4
166	166	4
1	1	3
7	8	14
66	67	1
45	46	4
37	37	8
121	122	3
132	132	3
52	53	6
40	40	21
157	157	3
166	168	4
12	31	1
111	123	3
25	25	9
101	102	16
186	186	6
106	106	11
58	104	4
57	57	7
133	136	1
163	163	9
177	177	6
44	98	3
122	122	10
109	109	6
33	37	1
19	19	9
31	31	6
144	144	1
11	37	4
102	106	6
136	136	5
141	141	8
7	7	17
152	152	7
154	162	5
75	75	5
35	36	5
91	96	2
53	53	12
72	73	5
127	128	3
15	16	3
171	172	9
167	167	5
44	44	9
71	71	2
153	154	3
140	140	8
0	1	2
15	15	6
183	183	9
17	43	5
76	76	7
68	68	16
23	24	10
99	123	2
113	113	8
63	63	2
42	54	5
91	91	4
154	155	2
109	115	3
17	17	1
12	36	4
30	30	3
71	132	1
59	100	2
168	169	8
114	114	2
32	32	9
57	101	3
72	72	6
97	97	4
12	12	12
5	5	4
161	161	9
18	18	7
110	110	4
101	103	5
181	182	3
86	87	6
73	73	3
142	142	3
87	121	1
103	103	7
123	181	1
140	141	3
148	159	2
38	48	3
119	119	10
54	54	6
39	40	2
57	72	3
27	27	2
188	189	2
146	151	2
106	164	3
98	111	3
180	181	3
2	56	2
14	14	4
156	156	11
85	85	5
47	180	2
84	84	8
77	77	20
58	62	1
10	10	10
79	152	3
36	36	4
105	105	6
81	81	4
53	97	1
170	171	5
168	171	1
4	9	4
86	86	2
46	47	3
177	189	5
43	44	2
105	106	4
139	139	3
135	137	4
52	52	1
63	64	2
9	10	5
4	4	11
16	16	4
68	72	2
157	158	2
83	85	2
137	137	5
174	183	1
156	161	3
150	150	13
166	167	1
29	29	5
25	29	3
111	116	8
65	66	6
158	158	6
131	131	8
185	185	2
96	98	2
31	32	4
70	137	3
60	64	2
4	124	5
169	184	3
125	125	6
14	16	8
155	161	2
63	157	2
138	138	10
11	44	1
181	181	5
23	27	4
85	87	1
23	23	7
115	121	3
164	164	5
53	55	6
82	82	4
108	108	2
95	136	2
92	172	1
133	133	6
123	186	4
141	143	2
23	38	2
107	143	2
178	178	13
62	74	2
26	26	1
39	41	1
70	70	6
187	187	4
56	126	2
95	97	1
17	128	2
0	41	1
155	156	2
74	74	9
67	137	1
4	6	5
155	155	6
123	175	3
7	40	2
42	53	1
66	66	7
145	146	2
2	108	1
133	156	2
77	81	5
107	117	2
151	151	7
79	159	1
21	177	2
120	121	2
171	173	5
134	134	2
116	120	1
21	22	4
71	157	4
112	115	1
57	91	2
2	2	10
59	61	1
28	30	2
174	175	9
58	159	2
175	176	1
188	188	12
186	190	1
148	148	3
154	154	7
93	93	4
36	45	3
6	108	2
105	148	1
43	43	3
148	149	1
134	174	2
78	118	1
95	95	4
83	83	5
109	110	2
44	46	2
183	186	1
67	67	3
26	27	3
61	64	2
166	172	1
158	160	1
6	6	8
145	159	2
1	41	3
29	128	3
42	43	2
79	83	3
90	171	1
114	115	2
117	187	1
29	30	7
55	65	3
19	20	1
110	112	3
59	72	4
170	184	1
78	86	1
100	100	3
162	162	4
100	121	2
22	22	7
107	107	4
95	166	2
149	151	2
56	56	3
3	4	1
180	180	3
37	130	3
68	70	1
98	123	1
148	162	2
106	107	1
163	164	6
56	100	2
147	152	3
170	170	8
21	23	1
130	131	6
0	191	1
54	132	3
53	120	3
179	180	1
168	168	7
74	75	3
57	155	1
176	176	5
48	49	1
177	181	1
34	37	4
91	93	1
138	139	3
65	102	3
169	170	1
159	160	1
91	92	6
14	29	2
12	54	2
144	145	1
38	38	2
41	43	1
88	95	1
94	95	5
95	98	4
92	92	5
6	107	1
26	39	1
134	137	5
132	179	1
102	102	3
58	59	3
165	183	1
75	144	2
145	145	6
135	136	2
25	26	4
9	45	4
172	176	1
160	161	2
70	71	2
112	121	1
117	190	1
91	171	2
131	136	3
142	143	3
74	141	1
74	77	2
119	186	1
127	127	5
96	114	2
189	190	2
9	9	1
129	182	1
147	156	1
172	173	2
8	8	2
72	74	3
17	19	1
167	168	3
33	34	1
13	26	2
18	22	1
144	150	1
108	110	1
40	41	1
186	187	1
64	65	2
174	182	1
75	76	2
40	130	1
110	114	4
120	124	2
133	134	1
90	90	4
149	163	1
48	48	8
146	147	1
135	135	1
134	136	1
73	76	1
36	37	1
79	82	1
77	78	1
60	72	2
55	56	2
2	40	1
12	14	2
119	174	1
58	58	2
151	157	2
88	89	1
122	123	2
108	115	1
184	184	1
172	180	1
88	88	2
33	33	2
57	62	3
139	140	2
158	159	1
185	186	2
1	2	2
2	42	2
109	127	1
7	55	4
18	42	1
14	93	1
88	90	2
170	182	1
49	49	1
56	124	2
121	123	1
2	3	1
79	86	1
90	91	4
16	17	4
9	11	1
17	41	3
75	77	1
174	176	1
78	121	3
87	185	2
131	179	1
54	55	1
86	91	2
46	179	1
108	109	1
111	115	1
1	142	2
95	134	2
93	165	1
64	70	1
59	59	2
115	178	1
66	110	2
148	161	1
41	130	1
73	91	1
134	135	1
112	113	1
187	190	1
103	139	1
117	118	1
105	163	2
16	44	1
97	98	1
165	166	1
116	116	1
82	143	1
161	162	1
93	94	1
182	183	1
154	157	1
61	65	1
65	68	1
167	171	1
63	158	1
16	27	1
95	107	1
42	55	2
116	130	1
150	161	1
107	167	1
5	6	1
160	188	1
99	103	1
31	37	1
79	85	1
173	175	1
94	137	1
28	28	1
6	124	1
84	85	1
152	154	1
115	117	1
96	97	1
111	159	1
6	39	1
76	85	1
146	159	1
