102	102	2
205	205	3
105	105	4
152	153	5
1	51	4
227	227	3
0	52	3
24	24	15
174	174	11
158	223	3
8	8	12
29	29	6
111	111	6
33	33	6
44	54	3
128	128	6
20	23	6
86	86	6
113	121	1
137	137	13
211	211	10
184	185	7
108	108	9
234	234	9
15	15	17
157	157	11
83	84	2
71	71	3
144	144	17
47	48	5
55	73	8
232	234	4
159	207	1
113	134	1
9	28	2
49	50	6
117	118	5
81	82	5
184	184	5
27	27	12
49	49	7
152	152	6
42	42	8
192	192	8
32	32	18
47	47	6
198	198	9
145	145	5
20	20	8
0	0	5
225	226	11
124	124	1
208	217	3
28	28	15
142	142	6
214	214	6
141	142	2
219	219	16
200	200	10
231	231	1
64	64	9
149	150	2
79	79	8
40	41	8
123	124	6
58	58	16
224	224	7
11	11	13
176	177	4
172	172	6
17	17	9
160	233	2
75	75	4
120	131	2
44	44	3
202	202	13
63	63	11
63	64	5
45	45	12
168	168	5
139	139	12
38	38	8
18	18	5
120	121	2
164	164	4
126	129	2
182	182	8
136	136	3
139	165	4
176	176	4
5	5	1
141	161	1
62	62	4
177	187	1
122	122	4
23	23	8
22	22	6
142	160	1
242	242	8
39	42	6
2	2	2
160	222	2
126	126	11
216	216	7
238	238	9
67	67	11
114	134	1
75	76	1
175	176	6
81	81	9
59	59	4
173	173	15
61	61	11
188	188	8
114	114	5
48	48	9
137	171	1
21	21	7
134	135	2
108	109	7
37	37	4
77	77	12
206	208	6
21	23	5
217	218	5
199	199	11
190	198	1
161	161	7
7	8	10
212	216	1
147	148	5
80	80	5
96	96	4
13	13	12
235	235	10
76	79	4
106	106	5
120	120	7
14	18	4
196	196	14
3	3	1
65	65	7
186	187	2
50	50	6
51	51	3
240	240	7
67	69	1
158	221	2
212	213	10
4	5	10
19	19	11
222	222	5
239	239	3
190	190	5
26	26	2
160	223	3
152	155	4
217	217	5
55	55	12
201	201	14
74	75	2
60	62	1
130	131	2
198	201	1
184	187	2
212	212	10
85	86	4
241	242	1
181	181	7
131	131	7
109	147	1
233	233	6
125	127	2
34	35	4
50	51	10
170	172	1
18	19	7
191	191	13
127	127	8
208	208	13
71	72	7
141	144	3
5	8	1
10	39	5
128	129	3
49	72	3
12	12	4
52	52	8
189	189	6
14	14	7
213	214	2
98	98	5
116	147	9
219	234	1
233	234	4
101	102	1
127	128	2
25	25	6
180	210	1
149	149	1
73	73	10
4	4	5
158	158	4
54	71	7
232	232	12
121	121	4
115	115	2
0	1	6
165	168	2
215	215	15
7	7	7
135	162	4
23	24	10
6	6	4
9	9	7
104	104	2
148	148	4
199	200	2
40	40	6
2	4	2
187	187	10
99	99	8
45	53	1
179	187	3
162	163	3
225	225	7
241	241	6
60	131	3
4	6	3
39	39	4
85	85	5
178	222	2
106	152	3
72	73	4
26	27	2
180	180	16
218	218	7
180	189	2
83	83	13
77	78	2
11	39	3
17	20	1
236	236	5
5	6	3
74	74	2
207	207	8
55	71	3
10	10	6
21	193	2
206	206	2
178	179	3
22	23	2
27	28	1
101	118	4
129	129	4
43	43	14
55	56	3
126	231	3
163	164	2
159	159	4
109	109	5
41	41	4
172	173	2
136	162	3
146	146	2
192	193	3
230	232	4
38	39	1
66	66	6
122	128	1
158	160	3
181	219	2
194	194	6
226	226	7
11	16	4
156	157	2
115	147	1
166	167	3
3	51	2
76	105	3
123	123	6
239	240	2
138	173	2
167	168	4
195	196	8
21	22	4
213	216	2
3	4	3
106	149	2
10	51	1
147	147	4
76	153	1
162	162	1
179	189	1
150	150	9
170	170	6
110	110	6
68	69	5
160	161	1
33	35	1
193	193	3
166	176	2
193	194	3
160	160	7
152	157	4
98	99	3
113	136	1
189	223	1
138	138	8
70	70	4
157	227	3
11	81	1
177	177	2
166	221	2
72	72	5
178	178	8
158	224	6
82	82	8
186	186	4
64	150	2
206	207	2
46	54	1
210	212	1
54	55	1
146	151	2
154	154	3
209	209	3
119	129	2
120	129	3
180	218	1
65	101	3
29	30	5
37	86	1
174	175	3
10	11	1
85	153	1
140	140	2
5	7	5
229	229	3
146	147	1
138	163	2
54	54	1
36	36	5
154	155	3
225	227	3
228	229	3
158	159	5
166	175	1
143	162	1
159	221	1
46	46	3
234	235	2
165	165	2
8	12	3
135	136	2
165	166	1
126	127	3
101	117	1
60	119	3
73	74	1
30	31	2
169	169	2
56	56	3
78	155	2
13	80	2
140	161	2
166	166	6
101	101	3
65	102	2
156	226	3
35	36	4
156	156	2
46	47	5
16	16	7
138	164	1
35	35	3
157	228	1
135	135	2
220	223	4
64	149	4
107	109	1
48	49	6
237	237	2
88	106	2
88	89	1
130	130	1
180	234	2
107	107	2
183	183	4
53	53	2
189	209	1
62	63	1
167	167	1
18	194	1
191	201	1
129	130	1
68	68	2
213	213	3
37	74	3
44	46	2
137	138	2
181	234	2
207	208	1
197	225	1
45	46	1
210	210	2
210	211	4
140	221	4
143	143	2
29	57	1
220	220	4
195	195	5
141	141	1
223	223	1
159	160	2
193	201	2
111	234	1
84	85	3
209	210	2
175	175	1
173	174	2
125	231	1
133	135	3
103	105	2
88	88	3
161	162	2
84	84	3
211	212	2
89	89	1
44	45	2
59	96	1
34	36	1
170	171	2
15	16	5
208	209	1
25	26	2
60	60	6
232	233	2
153	153	1
151	151	1
117	150	2
2	51	2
138	139	5
43	46	2
17	80	1
228	228	3
163	163	1
158	226	1
188	189	1
231	232	3
57	57	1
218	235	3
69	70	4
203	203	1
106	150	1
222	223	1
50	52	1
140	222	1
197	198	1
168	171	1
132	132	1
51	52	1
230	231	1
133	134	1
69	69	2
219	220	1
43	45	1
183	218	2
199	201	1
48	52	2
33	36	1
179	208	1
110	136	1
30	30	2
2	6	1
207	228	1
177	178	1
138	161	1
78	104	1
56	57	1
116	116	1
112	113	1
96	97	1
83	85	1
136	164	1
155	155	1
113	113	1
196	200	1
118	118	1
79	80	1
212	218	1
59	95	1
80	81	2
61	131	1
215	216	1
1	5	1
4	8	1
86	106	1
66	69	1
102	150	1
