14	14	3
46	46	2
155	155	2
43	43	2
97	97	5
157	157	6
148	149	3
13	35	2
30	31	4
70	70	4
121	121	2
19	72	1
17	37	3
154	155	3
139	145	5
164	164	4
66	66	4
159	165	2
94	94	6
79	79	8
64	64	3
24	25	2
179	179	3
97	98	3
18	26	1
19	19	6
94	95	1
178	180	1
21	21	5
36	37	1
70	145	1
142	143	5
164	186	2
132	132	3
91	110	3
12	12	5
35	36	3
96	96	1
0	0	4
133	134	3
93	94	5
112	113	3
11	11	9
67	67	2
71	148	5
1	1	7
73	74	2
152	152	8
74	74	3
54	55	4
85	85	4
63	63	2
178	179	3
149	150	2
33	33	1
90	90	4
156	187	3
78	78	1
118	119	3
126	126	2
10	41	2
86	86	3
27	74	2
27	29	1
38	39	2
10	10	2
35	35	3
118	118	4
123	124	2
80	82	2
98	98	4
59	60	8
175	186	1
140	140	2
110	110	5
20	20	1
56	57	1
169	169	3
77	78	2
95	95	5
75	76	2
160	161	5
122	122	1
123	125	2
160	162	7
108	108	3
12	41	3
10	22	4
124	126	4
158	158	1
159	160	1
116	119	4
142	142	3
110	111	5
20	80	1
6	6	4
53	142	1
90	91	7
154	157	2
171	172	1
63	113	2
76	76	1
106	106	2
62	62	6
88	89	3
18	18	4
145	145	3
158	166	1
186	186	2
135	152	2
149	149	4
155	185	1
141	142	1
92	92	1
11	78	3
151	151	2
20	22	6
169	170	3
93	93	3
106	107	4
84	84	1
65	65	3
147	147	3
24	24	1
177	179	1
87	87	3
23	23	5
10	79	1
82	82	4
4	4	2
41	54	1
150	150	1
56	56	2
88	88	3
131	132	4
10	11	2
57	92	3
19	26	1
183	183	3
44	84	1
160	160	1
21	23	1
164	165	3
161	162	2
125	126	1
190	190	3
47	47	6
58	59	6
187	187	2
66	68	3
157	158	3
15	15	2
188	188	1
42	42	4
86	87	1
15	16	2
131	131	1
104	105	1
34	34	2
130	130	1
48	48	2
166	173	2
55	55	1
174	174	3
120	120	4
91	111	2
2	2	2
163	163	2
78	79	1
30	30	4
184	184	5
155	156	3
138	149	1
22	23	2
171	171	2
18	19	2
189	189	1
188	189	5
108	114	1
143	143	2
162	162	1
171	173	2
176	176	3
27	27	4
177	185	2
62	63	1
166	166	1
12	78	1
146	146	2
67	68	4
17	17	2
45	45	1
174	186	2
68	68	4
68	141	4
101	102	1
41	83	2
136	137	1
101	103	2
185	186	3
80	81	3
156	160	2
166	169	3
152	153	1
57	57	2
8	8	1
81	83	1
169	175	2
128	128	1
36	36	1
100	100	1
88	94	1
77	77	1
181	181	1
177	177	2
159	159	1
104	104	1
19	20	1
139	147	1
83	83	1
135	148	1
59	59	3
127	128	2
64	65	1
134	135	1
17	77	2
119	119	1
100	111	1
114	115	2
22	78	1
82	83	1
108	109	1
167	167	1
180	181	1
107	112	2
116	118	1
73	73	1
124	125	2
16	16	1
112	114	1
95	97	1
90	96	1
130	177	1
126	127	1
105	105	1
76	148	1
187	189	1
59	62	1
72	72	1
