89	90	3
6	6	3
37	38	7
113	113	2
81	81	7
72	74	5
87	89	1
35	38	1
2	2	3
23	23	1
81	98	3
44	44	1
84	84	4
82	90	3
109	113	2
110	119	2
90	91	7
82	83	2
116	116	2
100	110	1
104	112	4
140	140	3
10	16	1
72	72	1
99	106	6
83	83	1
93	100	2
88	88	5
82	94	3
35	36	3
89	89	2
9	9	1
121	127	5
1	16	1
71	81	5
28	28	7
14	18	2
121	123	1
1	1	9
18	23	2
71	75	3
24	25	6
71	71	4
26	28	3
71	82	3
1	5	5
91	102	2
130	132	1
121	128	1
3	6	8
135	137	3
137	140	1
5	5	4
126	126	3
0	0	1
106	106	4
96	96	2
121	125	2
3	10	1
89	96	2
84	85	3
18	19	2
29	29	5
24	28	2
19	20	1
136	138	2
135	136	1
32	33	3
79	87	1
107	118	1
99	101	2
16	16	5
129	130	2
121	132	1
22	22	4
108	111	1
104	115	4
72	76	4
26	26	3
8	11	4
8	9	2
16	22	1
106	112	5
15	28	1
31	33	3
20	25	2
20	23	2
88	91	2
97	97	4
11	16	1
114	127	1
5	6	1
7	7	2
34	34	2
78	81	4
136	140	2
105	112	4
91	92	2
89	93	1
89	94	2
107	107	1
7	10	3
11	24	3
94	97	1
32	38	2
130	131	1
87	90	1
126	128	2
101	109	1
75	83	1
111	112	1
73	76	1
22	24	1
124	129	4
108	117	1
36	36	6
96	104	2
74	76	1
19	19	1
86	87	1
111	111	1
105	129	2
72	81	3
4	5	2
114	128	2
81	88	1
111	125	1
33	34	4
109	112	2
98	100	2
108	109	5
123	130	2
134	135	2
72	82	1
102	102	5
4	4	2
110	110	3
112	131	1
127	127	2
38	38	1
79	80	1
77	80	4
121	121	3
11	13	1
7	11	2
24	24	3
2	8	3
114	122	2
118	123	2
119	123	2
97	102	3
71	79	3
18	18	6
126	130	2
88	100	1
14	15	2
89	92	1
102	110	1
84	97	3
8	8	3
73	73	7
87	93	1
101	101	2
78	79	4
94	107	2
92	92	3
75	79	2
9	11	2
82	86	3
123	125	2
74	74	3
75	75	1
86	86	2
5	14	1
16	17	1
95	116	2
81	93	1
81	83	2
137	137	2
12	22	1
37	37	3
91	91	2
102	111	1
24	31	1
99	99	2
78	82	1
132	132	1
31	34	2
118	119	1
86	94	1
117	117	2
107	108	3
111	114	2
27	38	2
83	85	3
112	119	1
98	108	1
102	105	2
26	27	3
23	30	1
27	32	4
107	109	3
127	128	4
95	107	1
9	16	1
34	35	2
94	94	1
30	32	1
71	84	3
119	122	1
119	119	1
133	134	1
119	120	1
17	18	1
95	96	2
82	82	2
74	78	1
135	138	2
105	118	2
77	87	1
135	135	1
106	107	2
115	116	1
10	10	1
8	21	2
15	25	2
125	126	2
85	94	2
120	129	1
125	125	2
119	124	1
89	95	1
104	111	1
94	98	1
21	21	3
95	95	1
80	83	2
78	85	2
85	96	1
97	100	2
29	30	2
79	79	3
118	120	1
103	105	1
83	88	1
78	83	1
76	79	1
113	116	2
94	95	1
127	129	1
131	131	1
94	106	1
112	112	1
18	20	1
94	101	1
78	94	1
127	132	1
102	109	1
31	31	1
18	30	1
103	103	2
72	73	1
0	1	5
110	120	2
114	126	1
94	104	1
15	17	1
113	129	1
74	88	2
79	94	2
9	14	1
102	107	1
109	114	2
115	120	2
110	111	2
125	129	1
12	12	1
96	116	2
28	29	1
97	107	1
101	108	1
115	131	1
13	14	1
129	131	1
32	32	1
122	132	1
114	121	1
0	5	1
80	91	1
76	82	1
100	102	1
117	121	1
102	106	1
111	117	1
105	105	1
2	5	2
76	76	1
15	18	1
101	103	1
91	101	1
