69	69	6
102	103	2
57	58	3
57	57	10
37	37	2
84	143	2
38	41	1
110	119	2
101	101	9
17	17	11
80	83	1
38	38	6
140	140	11
71	71	7
96	96	5
68	68	7
118	118	4
4	5	3
62	63	5
85	85	6
18	18	5
72	90	4
64	64	4
74	74	2
114	139	2
48	52	5
101	125	3
30	30	16
57	80	1
98	131	1
14	14	1
128	130	1
53	53	5
112	139	3
144	144	6
22	23	1
101	104	3
116	116	3
108	108	8
119	119	4
12	37	4
75	75	4
14	39	1
94	94	15
3	3	3
60	60	4
74	75	2
106	107	2
20	36	2
18	23	3
100	100	8
24	24	3
82	95	1
105	106	1
41	41	2
124	125	2
51	57	3
77	77	3
62	62	5
65	82	1
12	12	2
55	125	1
39	39	4
25	25	2
15	40	1
5	5	7
33	33	11
99	99	14
139	139	3
48	48	6
87	87	8
40	40	1
129	129	4
104	104	10
5	6	5
47	51	1
32	32	4
9	9	8
26	26	2
9	10	2
36	36	1
9	47	1
93	93	2
49	67	2
67	68	5
109	109	6
41	42	3
14	76	3
125	125	3
127	127	6
137	139	1
22	22	5
117	118	2
92	93	4
145	145	2
41	115	2
103	104	3
8	8	2
10	37	4
124	133	1
121	122	3
49	51	1
141	141	5
54	54	1
29	29	4
35	36	4
116	124	2
87	88	1
88	91	2
81	81	6
27	27	3
136	136	1
59	59	2
1	2	1
88	88	5
63	63	2
28	28	1
98	98	7
105	105	3
113	114	1
135	135	1
13	13	5
66	143	2
108	110	3
38	39	1
109	112	4
111	111	3
27	28	1
124	124	9
99	100	2
70	92	2
2	2	3
63	66	2
3	4	2
101	115	1
101	102	2
87	92	1
69	102	2
38	40	2
9	11	1
14	16	2
56	56	1
73	75	1
6	6	5
60	69	2
76	78	2
58	85	2
121	123	2
59	60	3
122	123	2
70	70	1
143	143	4
107	107	1
133	133	1
70	74	2
101	103	1
52	52	2
63	68	4
131	134	2
10	10	2
49	56	1
109	110	2
62	68	3
6	26	1
130	130	3
91	91	6
55	56	1
53	55	1
138	138	4
50	52	1
134	134	3
126	134	2
11	20	1
42	42	6
112	112	2
122	122	2
126	126	6
127	130	2
23	23	1
11	11	4
115	116	2
77	78	2
21	21	1
71	72	1
49	53	1
99	130	1
131	131	2
97	118	1
39	40	1
76	89	2
72	72	1
50	50	1
11	42	1
62	142	1
119	120	1
1	1	1
67	142	1
80	81	2
0	13	3
97	97	3
65	65	1
5	25	4
3	5	1
117	138	1
121	126	1
9	37	2
50	65	3
20	21	2
30	31	2
25	26	1
37	38	1
50	51	2
112	116	1
15	15	1
90	90	2
108	109	1
71	87	1
66	67	2
47	48	1
61	61	1
57	64	1
96	119	1
8	9	1
0	3	1
70	71	1
120	120	1
136	140	1
110	110	1
13	107	1
125	126	1
39	76	1
117	117	2
51	73	1
128	128	3
60	61	1
100	133	1
60	121	1
16	16	1
95	95	1
46	47	1
112	115	1
123	134	1
54	86	1
63	77	1
13	31	1
54	56	1
108	111	1
38	48	1
55	55	1
16	17	1
92	94	1
12	35	1
84	84	1
