159	159	4
122	124	4
54	55	8
141	141	7
165	166	5
157	157	7
14	44	1
133	133	2
32	32	12
85	91	2
89	89	18
147	147	7
116	116	3
133	134	6
134	134	8
115	116	7
72	72	3
137	137	17
34	150	1
42	42	7
25	25	5
123	124	2
100	100	2
81	87	8
71	107	4
149	149	13
37	37	7
100	101	3
176	176	9
150	150	12
143	144	1
4	4	4
7	7	4
81	82	2
162	162	5
40	42	2
175	175	12
160	160	10
71	71	10
148	148	11
61	61	5
146	147	4
107	107	4
92	92	5
81	81	7
52	52	6
112	112	12
166	167	4
16	16	17
108	108	6
168	168	9
62	62	5
131	132	4
119	125	1
122	123	3
137	138	2
56	75	2
31	154	1
22	25	2
156	156	4
140	147	2
26	26	6
0	14	11
88	88	6
82	98	3
76	76	4
130	130	6
33	33	7
63	63	4
156	159	1
122	122	7
78	79	1
37	149	7
115	115	14
54	54	7
90	95	1
73	73	7
87	87	5
35	35	6
155	156	4
67	130	2
124	128	2
173	173	4
1	1	7
3	5	4
170	170	5
123	123	10
2	3	3
120	121	3
146	146	8
172	172	3
129	130	4
78	78	7
34	34	1
154	170	2
127	127	6
79	79	6
49	57	1
83	84	1
105	106	1
56	73	5
36	40	5
125	125	5
126	126	8
159	169	1
53	53	6
36	37	1
85	85	9
20	20	2
29	29	10
72	73	1
12	13	3
90	90	9
19	19	14
117	117	1
68	68	10
150	151	2
178	179	5
70	174	2
10	58	1
129	129	14
76	94	3
104	104	6
160	162	4
30	31	3
144	144	6
139	140	5
166	166	4
18	22	2
67	117	1
106	106	8
177	177	1
68	120	1
31	31	8
0	72	2
56	114	4
138	138	17
32	33	2
143	143	5
36	39	3
34	41	2
90	91	1
56	56	11
9	9	9
144	145	2
40	40	8
110	111	3
24	24	7
67	67	3
87	88	2
163	163	5
84	84	7
38	101	2
152	153	2
121	123	3
132	132	15
152	152	4
91	91	4
77	172	1
5	5	7
169	169	2
10	10	3
175	176	2
124	124	6
136	136	10
22	22	2
171	171	4
97	97	10
145	146	1
145	145	7
0	0	5
126	127	1
65	91	1
98	99	6
127	128	3
114	115	4
31	165	1
125	126	4
0	50	1
165	165	7
39	39	7
10	60	1
151	151	8
14	14	9
171	173	5
8	8	3
50	50	3
41	41	3
75	75	9
101	101	9
13	13	2
133	136	3
17	17	2
59	59	7
167	167	4
80	80	2
55	55	9
3	18	1
23	167	2
4	7	1
137	139	2
164	165	3
31	153	1
114	114	10
28	28	5
166	168	7
169	170	3
126	180	7
32	154	2
13	58	3
172	173	6
103	105	1
12	59	5
74	74	6
155	155	2
97	98	5
93	93	5
25	26	2
118	119	3
36	36	5
34	35	1
135	135	7
80	131	3
77	77	2
63	110	2
45	101	1
74	75	3
139	146	3
27	27	4
139	139	4
2	2	11
77	106	1
51	51	9
140	145	1
33	163	2
18	102	2
113	114	1
134	135	5
76	108	3
153	153	4
121	122	3
87	89	1
123	179	7
146	149	4
38	38	6
85	94	4
32	165	1
86	86	1
75	95	1
16	20	3
149	150	1
140	140	6
99	99	2
110	110	1
58	58	5
46	74	1
57	57	3
179	179	6
142	143	2
43	102	6
77	80	2
66	66	5
8	12	1
3	3	5
109	109	4
89	90	5
37	38	3
81	84	1
12	12	2
82	96	3
33	151	1
118	118	3
64	64	2
156	172	1
32	163	4
162	166	2
83	83	1
62	109	2
50	51	4
94	97	1
30	30	7
6	6	3
43	44	2
98	98	1
109	174	3
83	86	1
73	75	2
85	86	1
60	60	3
93	95	2
149	154	1
71	105	4
70	110	3
59	60	2
96	96	2
62	112	1
147	170	2
94	94	3
102	104	3
63	111	6
23	23	6
161	161	4
132	133	1
18	18	2
27	31	4
158	158	1
154	165	2
157	169	1
124	126	2
63	64	2
52	55	2
128	128	2
139	141	2
80	87	2
173	174	2
100	103	1
76	173	3
82	83	3
94	98	1
141	147	1
52	92	1
133	135	1
37	101	1
21	21	2
65	65	6
178	178	2
90	94	1
164	167	1
157	158	1
5	6	1
93	94	1
1	59	3
140	141	2
82	82	1
2	4	2
44	45	4
119	120	2
107	173	3
65	90	3
63	112	1
11	11	2
120	122	3
5	9	2
162	165	1
11	13	4
112	114	1
138	139	3
8	9	4
7	8	3
76	93	1
161	169	1
65	66	1
108	173	2
9	11	2
107	108	1
59	74	2
158	168	1
113	113	1
121	121	3
105	105	3
43	43	1
119	119	1
77	171	1
151	152	4
102	102	4
60	61	4
170	173	3
14	20	3
161	162	1
101	104	1
71	80	1
89	91	3
39	42	3
14	15	2
54	115	2
180	180	4
95	95	3
124	125	1
3	17	1
163	167	2
159	166	1
111	111	1
142	142	4
124	178	2
62	63	1
0	60	1
14	16	1
148	149	1
88	90	1
4	11	1
84	86	1
90	92	1
72	75	2
64	111	1
26	27	1
177	179	1
65	116	1
24	25	4
13	45	2
71	79	1
9	13	2
16	18	2
103	103	1
119	129	2
76	107	2
42	164	1
71	96	2
37	39	1
15	20	1
124	127	2
77	174	1
35	153	1
37	40	2
140	146	1
15	15	1
164	164	2
83	96	1
108	109	1
29	163	3
156	170	1
79	145	1
92	93	1
55	60	1
96	98	1
135	136	1
80	105	1
170	171	1
116	118	1
42	167	1
77	148	1
124	179	1
44	44	1
107	109	1
154	154	1
60	73	1
67	129	1
133	175	1
51	52	1
10	12	1
90	93	1
