125	133	1
140	174	5
126	126	9
55	55	12
111	111	5
116	116	6
137	137	5
94	95	2
146	146	5
70	70	4
167	167	2
113	129	3
91	91	7
169	169	1
30	30	14
124	124	10
51	51	11
28	28	5
114	114	4
63	63	4
134	134	9
42	42	3
87	87	3
86	116	1
120	120	3
1	1	4
98	98	6
68	89	1
103	103	6
71	76	2
158	158	5
147	173	3
165	165	2
46	46	3
53	54	2
172	172	6
106	106	10
142	171	1
2	67	2
144	170	2
40	41	1
34	40	3
43	43	4
156	170	5
150	150	7
109	135	1
39	39	6
51	52	2
144	144	3
73	73	2
121	122	5
141	141	7
149	150	2
155	156	1
133	133	5
13	13	4
135	135	6
85	148	1
56	56	2
23	84	3
84	148	1
147	148	2
82	82	5
5	7	3
127	128	6
4	68	1
37	37	4
34	34	4
77	78	1
19	19	2
25	25	1
53	56	2
96	117	1
34	39	7
54	117	3
142	151	2
180	180	2
115	115	2
32	32	4
16	16	5
100	128	1
79	79	4
12	46	2
131	132	1
98	99	4
24	26	2
108	108	7
77	79	1
122	122	1
148	148	3
96	96	3
61	62	1
176	176	3
54	100	1
112	113	2
75	75	7
82	91	1
116	117	3
179	179	4
29	29	1
149	149	3
105	105	4
154	156	3
168	168	5
76	76	5
135	137	2
44	44	1
152	152	1
89	89	3
72	73	2
9	9	2
109	125	5
88	88	2
132	132	6
86	87	4
168	169	2
99	100	2
124	125	1
25	26	2
4	67	1
121	121	3
131	131	3
15	65	1
130	131	2
43	73	1
38	38	4
118	118	1
81	81	5
159	159	4
109	109	1
52	54	1
140	178	3
8	8	1
113	113	8
8	9	1
175	175	2
161	161	2
16	22	4
96	127	1
154	154	4
95	96	2
62	64	3
92	92	5
33	33	1
36	36	5
95	95	3
71	102	1
74	74	7
156	156	4
111	133	1
140	155	1
2	2	3
66	66	9
159	167	5
39	41	1
63	102	2
57	115	1
112	112	2
173	173	3
43	74	1
167	168	5
35	36	1
57	57	1
2	87	2
96	102	1
89	90	4
107	109	1
119	119	2
54	55	2
151	156	2
160	167	2
140	140	2
100	100	1
41	41	3
32	33	4
78	79	3
5	5	3
92	93	2
50	50	3
61	61	3
64	66	1
40	40	3
103	131	1
3	67	1
55	56	2
124	132	2
103	111	3
151	153	3
62	169	3
142	143	5
6	6	2
14	14	7
126	127	2
26	26	1
123	124	1
170	171	1
59	59	2
166	169	1
93	95	1
174	174	3
30	31	2
56	60	1
141	150	1
120	122	1
108	126	2
35	35	3
60	60	1
68	176	1
159	161	1
18	65	2
94	94	1
178	178	1
19	22	1
103	109	1
163	163	2
64	64	4
145	145	2
31	32	1
87	116	1
142	142	2
21	21	2
115	116	1
80	80	2
127	127	2
154	155	1
31	31	2
149	176	1
93	93	1
98	127	1
67	91	1
166	167	2
165	166	1
88	89	1
107	107	2
85	85	1
104	104	1
6	25	1
153	157	1
133	134	1
98	100	2
27	27	4
141	142	1
14	147	2
9	21	3
97	97	1
3	14	1
146	147	1
130	130	2
93	94	1
139	139	2
138	138	1
166	166	5
41	43	2
96	133	2
94	146	1
102	102	1
132	133	2
143	143	3
54	54	1
44	45	1
110	110	2
162	162	2
77	77	2
49	49	1
18	23	1
76	77	1
23	23	1
88	150	1
28	29	1
102	109	1
23	24	1
155	155	1
97	121	1
42	43	1
10	18	1
8	10	1
