142	142	20
179	179	12
67	146	7
22	30	2
132	132	20
118	118	10
126	126	18
100	100	9
45	45	11
78	78	10
5	7	12
38	38	14
123	123	11
97	97	25
0	57	2
12	25	3
88	105	6
162	162	16
39	64	2
2	3	12
109	114	5
16	45	8
11	12	1
135	135	14
141	141	12
5	52	1
111	111	11
93	93	16
166	166	11
77	77	17
107	151	3
65	65	11
20	21	7
151	151	11
170	170	18
56	76	1
5	5	11
148	148	17
102	102	12
15	15	18
57	57	18
180	180	8
19	20	10
153	161	6
16	16	7
155	161	5
2	7	2
165	175	4
107	107	13
17	17	13
93	97	3
79	79	29
35	35	17
18	22	7
72	167	3
155	155	12
20	20	1
110	110	9
104	104	8
59	59	5
166	167	5
133	133	21
65	140	8
177	177	9
106	106	13
10	44	2
8	20	3
61	61	20
147	148	5
131	131	16
89	98	1
10	18	2
89	155	4
24	24	18
0	0	4
115	115	4
165	165	9
153	153	6
164	164	13
23	26	7
6	6	9
126	129	1
108	149	2
137	137	24
12	20	5
109	109	10
53	53	11
99	99	12
7	7	5
71	71	24
32	32	9
25	26	3
94	95	2
128	128	14
3	4	12
125	125	16
16	18	1
4	5	7
65	141	2
25	25	10
112	114	4
92	92	20
117	118	5
98	128	1
58	61	3
153	160	1
10	10	8
114	115	2
178	180	3
131	143	3
36	36	11
119	119	15
9	9	6
157	157	9
88	89	8
174	174	5
42	42	9
134	134	10
110	121	1
111	128	1
58	79	3
68	70	3
54	54	8
149	150	4
63	67	5
21	23	3
99	109	6
135	136	2
154	167	4
144	144	10
72	72	13
55	62	6
158	159	3
2	44	2
139	139	8
72	175	2
121	121	7
142	144	4
150	170	2
91	91	20
55	55	18
150	150	11
123	125	2
164	167	2
159	161	4
150	172	3
163	163	8
153	163	1
144	151	4
73	74	4
170	171	7
122	122	9
38	39	6
50	51	6
154	154	13
99	163	3
127	127	13
123	127	5
178	179	8
175	175	11
56	56	7
147	147	10
57	63	5
18	46	4
163	164	3
83	83	8
23	29	1
65	71	1
58	62	3
134	135	6
91	92	2
44	44	5
64	64	6
173	173	17
85	85	7
140	175	4
38	41	2
97	99	3
33	33	17
84	95	3
100	102	6
122	127	5
2	2	8
43	43	16
129	147	1
55	61	6
8	8	10
60	60	6
77	138	7
12	12	10
112	126	2
160	166	1
82	82	10
98	109	1
124	124	11
108	108	17
7	35	4
59	68	1
68	147	1
37	37	7
130	131	6
26	26	6
52	53	6
85	86	3
13	55	2
13	13	12
95	97	4
130	130	6
162	163	3
153	162	3
119	124	2
97	127	2
106	120	3
86	86	10
103	103	8
17	52	2
14	14	14
112	122	7
66	71	1
90	90	22
12	21	4
8	12	5
87	96	5
114	114	8
75	75	19
19	19	17
122	123	13
91	94	2
110	114	1
74	74	9
28	28	18
13	32	3
158	160	2
3	3	10
101	107	1
19	45	1
60	73	1
113	114	6
14	54	6
145	145	10
44	57	1
88	88	11
95	155	2
115	116	5
57	61	2
17	18	5
40	49	4
94	94	10
0	137	2
51	51	6
74	76	2
152	153	3
0	5	6
99	161	2
58	58	8
31	31	13
100	107	2
156	156	9
2	27	5
110	111	4
50	50	15
87	87	17
22	31	4
76	76	21
97	129	1
77	78	9
81	81	19
119	129	2
142	147	2
120	129	3
62	62	17
23	23	5
65	66	4
28	43	3
30	30	13
142	143	6
67	147	6
71	174	1
111	124	2
52	52	4
125	127	4
97	98	9
146	146	9
157	158	13
103	105	5
154	168	7
34	34	5
65	162	2
4	4	10
146	147	3
121	122	9
161	161	14
84	85	3
68	102	3
143	144	8
22	23	2
18	23	7
63	63	12
9	10	7
25	45	6
104	126	1
152	152	7
8	35	1
138	138	16
107	110	3
155	156	6
116	116	5
43	44	2
1	43	2
148	168	4
167	167	16
31	32	1
57	59	5
18	21	2
127	130	8
150	151	7
139	173	5
126	127	3
24	25	14
110	115	3
105	106	1
105	105	7
129	130	6
35	42	4
65	67	2
95	95	10
11	11	6
18	18	9
64	74	2
120	120	9
159	159	6
140	140	6
40	40	5
27	28	2
143	143	5
74	178	4
90	94	6
131	132	9
98	127	1
83	86	10
21	45	1
118	125	2
1	6	6
96	96	8
140	141	1
172	172	6
176	176	12
178	178	9
22	22	11
35	36	3
39	40	3
24	51	1
171	171	13
110	120	7
71	105	2
17	80	2
116	117	8
68	68	11
113	115	6
67	67	4
98	143	3
24	26	2
81	82	4
132	179	3
13	14	3
141	145	2
168	168	7
175	179	1
14	58	2
108	151	4
144	146	3
73	73	3
32	33	7
26	28	2
149	149	17
173	174	16
90	91	7
42	43	5
167	169	4
43	139	1
112	112	8
41	44	3
113	113	17
165	167	3
28	29	2
169	169	5
28	30	1
64	165	2
16	17	2
133	134	5
71	145	1
102	104	2
41	43	5
83	84	5
133	140	2
156	162	1
129	129	9
121	129	6
84	84	5
74	169	1
98	164	2
127	147	2
141	173	1
65	150	1
19	21	4
56	57	2
136	136	10
127	128	2
117	117	8
100	106	1
41	41	12
74	77	2
141	175	2
13	15	3
7	54	2
98	98	3
96	145	2
111	119	6
15	16	3
93	94	3
103	110	1
131	175	2
118	121	2
100	101	4
68	104	1
87	89	5
157	159	3
12	13	5
89	95	2
174	175	8
118	129	6
31	36	2
99	128	2
78	79	4
15	24	3
91	162	1
56	59	2
123	124	6
87	93	1
27	27	8
145	148	1
154	161	3
41	137	3
107	144	1
137	138	3
89	89	10
124	125	4
21	22	1
151	152	4
172	173	1
115	117	2
77	137	1
122	149	3
174	177	2
79	80	3
11	13	1
82	83	3
111	122	1
80	80	5
18	45	3
63	64	1
96	97	4
99	164	1
120	121	4
102	107	3
72	73	1
64	65	6
6	53	3
169	174	1
0	2	4
19	22	7
120	162	1
103	146	2
160	160	7
149	159	2
161	163	1
32	38	2
148	169	6
110	117	4
154	160	3
99	100	2
179	180	5
169	171	2
83	87	5
121	131	1
142	145	5
73	169	1
0	6	1
88	168	3
90	169	5
147	171	3
156	167	2
78	137	1
29	29	4
109	149	2
173	175	5
164	166	10
100	109	2
73	76	1
107	147	1
159	168	1
33	38	1
111	123	2
76	77	5
6	44	3
34	35	3
9	32	2
30	31	6
72	171	2
34	36	1
165	166	4
60	61	1
9	21	1
145	147	1
114	153	2
95	164	6
65	174	1
66	66	4
9	17	2
57	62	1
66	72	1
144	145	3
91	158	2
12	17	1
145	146	7
41	42	4
169	172	2
29	30	9
26	44	1
102	147	6
151	153	5
18	52	2
59	61	1
108	112	1
108	109	4
2	4	2
159	162	2
27	44	2
111	112	1
51	84	2
158	158	4
108	110	3
34	42	1
23	27	2
171	173	1
0	13	3
92	93	6
11	32	2
83	85	2
58	60	6
151	163	2
40	136	1
111	129	2
154	162	2
96	164	3
21	52	2
91	95	2
14	63	2
78	138	3
70	71	1
150	169	3
160	168	1
20	45	2
1	2	1
87	154	4
66	68	2
116	124	2
40	41	2
87	159	2
51	93	2
21	53	2
58	80	1
121	124	2
44	45	4
134	176	1
7	49	1
26	29	2
10	23	1
119	120	1
39	67	2
86	87	4
155	168	1
9	33	1
60	77	5
102	129	2
37	38	2
142	146	2
126	128	2
163	167	2
177	178	1
129	143	1
89	168	3
90	93	2
107	108	2
36	42	1
74	177	2
1	1	3
14	33	1
26	27	2
96	128	1
15	44	1
59	63	1
112	128	1
54	56	3
72	113	1
102	124	2
51	53	3
159	160	2
158	167	1
91	164	2
19	23	1
106	107	1
148	170	2
67	68	2
142	151	2
139	140	1
176	178	4
150	153	1
0	44	1
108	126	1
75	89	1
43	138	3
0	54	1
27	57	1
52	54	2
151	161	3
3	30	1
118	124	1
34	37	3
4	9	2
17	56	2
12	15	1
6	9	2
9	20	2
72	174	1
86	88	1
157	160	5
7	8	2
60	88	2
71	141	4
142	148	2
114	121	2
111	114	1
8	54	2
154	156	1
84	86	1
141	170	2
5	54	1
118	120	5
4	7	4
21	30	1
64	168	2
64	75	2
12	32	3
160	162	2
4	18	1
39	39	5
129	148	3
100	108	1
55	56	2
131	178	1
64	76	2
162	164	2
59	66	2
40	134	1
84	154	1
125	126	1
56	58	2
34	68	2
40	43	3
107	149	1
0	4	1
67	144	6
176	179	1
0	24	2
98	163	1
1	138	1
13	18	2
0	16	1
14	55	5
45	58	1
127	129	2
115	118	1
108	111	1
126	130	1
112	124	1
71	173	1
1	3	1
159	172	1
123	128	2
24	50	1
130	152	2
5	9	1
107	150	1
26	43	2
73	75	2
152	169	1
40	66	2
118	119	1
122	128	1
6	35	1
2	28	1
17	54	1
10	16	1
65	68	3
156	164	1
100	105	2
9	12	4
139	172	1
58	78	1
132	177	1
66	77	1
49	49	1
111	113	1
85	96	1
167	174	1
10	22	1
103	104	2
15	80	1
101	101	1
68	103	2
112	113	1
60	63	2
92	97	1
90	166	1
10	33	1
14	15	1
101	108	1
50	53	1
74	139	1
151	169	1
50	84	1
111	125	1
98	165	2
144	171	1
88	104	1
9	18	1
104	105	1
85	156	1
151	155	1
5	6	1
108	152	2
7	18	1
91	155	1
8	21	1
29	31	1
80	81	1
166	175	1
1	31	1
11	14	1
97	164	1
23	24	1
71	72	1
152	168	1
39	43	1
36	37	1
153	154	1
62	170	1
70	70	1
76	178	1
45	57	1
51	59	1
106	108	1
123	130	1
96	179	1
