78	78	9
55	72	3
124	124	16
102	102	21
70	70	13
90	90	7
58	59	7
53	53	23
97	97	3
123	123	16
80	81	4
77	77	4
87	90	3
39	39	5
30	30	13
51	52	3
21	21	10
52	52	9
62	63	5
44	44	4
48	48	12
5	9	3
103	103	6
69	96	3
13	13	9
0	1	10
71	73	2
49	49	15
62	97	1
69	69	9
95	95	13
46	46	11
16	16	11
51	54	4
128	129	4
54	54	4
72	84	1
87	87	14
126	127	10
80	83	7
19	20	6
23	23	10
27	27	6
129	129	7
100	100	10
55	59	2
42	42	3
85	86	5
28	28	2
110	110	9
86	86	5
12	12	3
132	132	3
58	58	9
71	71	9
97	98	4
89	90	6
9	12	3
9	9	1
33	33	6
92	92	13
57	57	6
26	27	6
93	107	1
112	113	9
101	102	5
37	72	3
121	121	18
76	76	11
47	47	11
85	85	7
68	97	2
33	63	5
61	62	5
128	128	5
24	24	16
109	109	5
118	118	8
117	117	8
52	53	1
4	4	3
21	22	2
6	7	2
4	33	1
93	93	9
32	99	2
118	119	4
46	55	3
46	51	1
110	111	3
125	125	7
56	56	13
105	105	6
41	41	7
0	0	8
88	89	2
108	109	2
40	41	2
132	133	4
98	101	2
43	44	1
86	87	5
113	113	6
66	66	6
8	8	4
91	91	11
0	2	2
126	126	6
67	67	8
72	76	4
54	58	2
80	80	9
6	34	3
112	112	12
79	80	1
76	99	4
114	114	5
87	89	5
105	106	2
3	4	1
32	32	5
58	101	4
67	97	2
124	132	4
88	88	12
105	132	5
117	118	3
9	10	3
99	102	8
82	82	6
111	111	4
91	92	3
99	100	4
129	133	2
25	25	9
98	98	10
95	96	1
89	108	1
27	28	5
72	72	3
77	78	2
73	73	10
48	64	2
2	21	1
3	3	4
6	6	6
65	65	4
47	48	3
108	108	8
68	68	3
124	133	1
89	89	4
124	125	5
15	16	9
96	96	8
5	5	5
94	95	2
61	61	3
122	122	9
80	84	2
118	133	5
30	53	1
106	125	1
7	7	2
14	14	11
98	99	3
64	64	2
103	131	5
38	39	2
69	117	3
10	10	6
2	22	2
55	55	2
45	45	5
57	58	3
56	57	1
107	107	1
96	133	2
50	50	9
131	131	3
113	117	2
2	2	3
76	105	2
2	3	1
71	98	4
77	105	1
30	54	2
67	68	1
46	47	3
68	69	2
72	85	3
119	119	3
29	29	8
51	51	3
126	128	2
63	66	1
74	74	1
18	20	1
116	117	2
43	43	1
30	33	2
7	32	1
89	93	7
62	62	6
115	116	7
4	22	2
10	12	2
63	64	2
115	115	2
16	17	3
113	114	2
107	108	2
24	43	3
104	104	9
130	131	5
49	50	10
41	42	4
74	129	2
110	116	1
39	40	4
87	88	3
106	107	2
104	105	2
15	15	5
112	114	1
8	9	1
40	40	8
70	71	6
126	129	2
79	79	4
97	99	2
5	7	1
23	24	2
75	76	2
64	65	1
101	104	3
94	94	5
95	115	1
75	75	2
102	103	1
20	20	2
1	1	4
106	106	2
114	120	1
75	77	2
76	107	2
120	121	1
59	59	2
48	62	1
50	51	4
81	81	5
83	84	5
46	65	2
76	104	1
76	77	1
81	83	1
22	22	2
91	94	1
81	82	5
11	11	1
129	130	1
41	74	4
78	79	3
101	101	2
46	48	1
4	12	1
44	45	3
75	85	1
111	112	2
60	60	3
81	85	1
28	29	1
18	19	1
125	131	1
130	130	1
29	33	1
99	99	1
69	70	1
20	23	1
13	14	1
118	121	1
8	13	2
29	30	2
116	116	1
73	74	1
133	133	1
86	88	1
85	100	1
18	23	1
116	120	1
30	57	1
82	85	1
58	71	1
18	18	2
114	118	1
34	58	1
120	129	1
114	121	1
68	72	2
32	34	1
104	106	1
120	120	1
38	84	1
83	83	1
123	126	1
113	124	1
121	122	1
