7	7	8
149	149	14
52	52	5
31	32	4
169	169	7
1	1	3
170	170	15
88	88	12
12	27	3
146	146	8
87	95	6
43	45	3
119	120	5
11	13	3
75	81	4
172	172	6
135	135	8
73	74	4
82	100	4
119	119	14
167	171	4
109	155	1
34	34	8
21	21	19
140	140	9
86	86	8
167	168	5
88	98	2
160	160	7
97	117	4
56	56	11
177	177	10
124	124	4
125	157	2
16	17	5
186	186	9
138	138	6
18	19	6
62	63	10
145	145	18
61	61	17
115	115	5
14	14	12
18	18	2
0	6	1
48	48	2
113	113	17
20	20	5
124	141	2
31	31	2
63	63	7
32	32	23
121	121	11
161	161	8
91	117	1
120	121	4
91	94	5
19	19	8
10	10	18
139	139	9
129	129	7
82	82	6
75	92	3
53	55	1
179	179	3
30	36	1
58	72	3
65	65	11
7	16	3
103	104	6
175	175	1
15	169	6
173	173	7
10	18	4
176	176	6
149	155	4
137	137	1
99	100	8
140	153	3
12	169	5
154	154	14
142	142	8
132	132	5
53	53	11
183	183	7
167	180	1
28	72	2
109	109	11
164	164	10
7	20	3
164	165	7
101	101	4
49	80	1
5	6	8
17	18	1
143	143	9
150	150	15
180	183	2
134	134	7
39	39	4
110	110	12
55	55	10
99	101	1
25	25	9
28	29	3
24	24	9
45	46	7
73	73	2
28	28	7
136	136	15
171	187	2
162	163	7
22	22	6
22	23	16
21	23	4
1	4	2
94	94	8
96	98	8
104	104	8
18	28	3
37	38	2
74	74	5
22	46	2
68	68	11
155	155	12
179	180	9
37	37	9
35	35	11
82	101	2
71	71	6
167	177	6
55	56	1
184	184	9
46	46	17
108	117	1
175	190	2
84	84	14
162	162	8
19	21	4
120	120	6
156	156	2
57	57	11
157	157	8
167	167	2
114	114	8
4	5	2
17	17	5
64	67	3
182	186	1
29	30	11
2	2	17
153	153	4
184	185	4
44	44	6
38	39	4
130	130	8
82	87	6
185	186	1
95	95	9
116	117	11
182	183	3
105	105	6
81	81	8
172	173	8
0	52	1
14	17	1
97	98	1
181	181	8
92	92	3
153	159	1
142	144	4
106	106	12
40	40	14
118	118	6
99	99	9
120	122	8
81	86	1
182	184	3
3	4	3
168	168	11
182	182	9
135	136	6
34	35	3
162	175	4
123	125	1
95	111	3
80	81	4
76	77	1
100	100	10
72	75	3
88	89	12
148	148	6
127	169	4
34	37	5
90	90	5
93	115	3
97	116	2
147	147	12
78	79	8
85	85	10
103	103	2
163	163	8
108	110	2
27	27	21
86	161	5
25	26	4
43	43	6
29	29	7
40	44	1
15	15	13
117	117	1
132	146	2
81	92	2
58	58	10
139	161	3
108	108	20
187	189	2
6	6	6
53	54	4
12	18	4
54	54	13
18	21	1
106	107	4
24	25	2
105	106	3
27	30	3
7	13	2
102	103	5
11	11	2
54	78	1
23	23	9
53	83	2
75	89	2
12	29	4
130	138	1
78	78	13
105	111	1
60	60	6
94	109	1
160	161	5
47	47	9
64	64	8
91	93	3
13	27	3
187	187	2
27	28	1
109	111	2
116	116	9
77	77	7
1	2	1
25	39	6
151	151	10
90	117	1
89	89	7
10	11	10
163	173	6
11	49	1
96	96	6
190	190	5
134	157	5
115	116	1
111	111	3
186	187	2
124	125	2
167	169	4
178	178	1
42	179	3
127	127	2
30	30	9
72	72	8
132	133	2
104	171	5
21	31	1
172	176	2
14	45	3
7	8	1
90	95	6
41	41	6
100	115	3
141	144	2
168	171	2
39	71	2
174	174	7
70	70	3
11	12	6
9	23	2
146	147	3
14	16	2
119	137	1
17	46	1
86	92	3
183	184	1
159	159	5
4	4	7
163	164	1
126	128	3
154	155	2
158	158	2
137	160	1
66	66	6
13	16	2
60	63	2
96	97	5
130	151	3
95	109	1
108	109	2
132	135	1
161	162	3
0	0	1
11	173	2
84	164	4
44	55	2
169	170	6
12	12	2
120	176	3
33	35	1
151	156	1
84	160	1
62	62	11
117	119	1
66	83	2
149	154	2
42	42	4
87	92	2
92	93	2
171	171	1
98	116	1
142	143	2
75	79	3
143	144	3
10	30	2
144	144	5
109	110	4
36	36	2
120	123	2
107	107	4
20	21	3
72	73	2
94	95	3
97	97	7
3	5	1
128	170	2
58	81	1
98	98	2
83	84	1
13	13	3
188	189	3
59	59	8
103	124	2
100	165	1
139	160	2
83	83	3
101	103	4
166	173	3
138	148	2
60	62	1
156	158	1
77	78	2
76	79	1
33	34	4
16	25	1
0	7	2
166	166	2
150	161	1
93	93	5
125	125	4
174	175	1
26	42	2
79	79	4
151	160	2
19	160	2
8	14	1
137	139	2
30	44	2
135	179	2
180	182	2
76	76	3
66	67	3
2	3	1
185	185	6
21	33	1
171	172	3
168	177	2
101	129	1
183	189	1
59	70	2
107	108	6
21	34	3
61	114	1
76	78	2
5	17	1
75	76	1
112	112	2
120	130	3
39	83	1
31	33	2
107	117	3
123	123	3
129	136	1
176	177	1
141	156	3
106	124	3
176	178	1
70	71	1
38	38	2
58	74	2
32	35	2
104	107	1
11	14	1
137	159	3
160	162	2
69	70	3
8	8	2
166	168	2
77	91	1
76	90	1
128	128	3
139	142	1
136	139	2
166	185	1
126	136	2
102	163	2
169	177	3
121	122	3
100	101	3
91	91	3
52	59	1
14	15	1
6	8	1
61	93	4
32	33	1
151	152	1
187	190	2
111	114	2
13	41	3
40	169	1
12	13	2
41	42	2
26	26	6
133	133	1
180	180	3
35	36	3
129	137	3
152	152	1
141	149	2
46	48	1
63	68	1
130	159	2
27	29	1
141	151	1
6	13	1
33	163	1
22	184	1
58	59	3
33	36	1
62	71	1
140	141	2
55	57	1
0	55	2
9	18	1
79	80	2
102	102	3
65	74	2
20	24	1
101	149	2
178	182	1
33	37	1
74	75	1
90	96	1
135	141	2
67	183	1
75	90	2
74	81	1
19	20	1
30	31	1
188	188	1
69	69	1
147	148	2
68	70	1
52	53	1
128	129	2
24	29	1
136	137	1
89	156	1
16	16	1
140	177	1
189	189	3
67	67	1
2	15	1
82	83	1
75	78	1
152	153	2
140	155	1
133	183	2
117	118	2
65	66	1
141	141	2
88	97	1
8	26	1
122	122	1
111	112	1
70	83	1
15	17	1
8	30	1
42	43	1
4	34	1
38	40	1
158	159	1
59	64	2
71	72	1
115	120	1
31	38	1
101	102	1
100	106	1
166	167	2
75	94	1
75	82	1
27	31	1
130	132	1
135	137	1
130	131	2
21	48	1
84	173	3
10	16	1
68	69	1
3	3	1
