12	12	4
112	112	15
22	22	12
29	41	3
16	17	1
49	49	6
120	120	3
80	83	2
145	145	1
113	113	13
55	55	3
113	114	3
10	56	4
47	119	3
122	122	33
135	135	7
106	109	5
69	69	21
26	26	5
46	46	5
39	39	17
117	117	4
54	68	5
13	108	3
114	114	13
29	30	6
17	17	14
83	83	4
115	115	8
125	125	2
76	78	10
63	63	18
72	72	4
75	82	5
93	93	7
139	139	6
88	89	3
125	127	7
56	56	2
123	123	6
48	48	10
31	31	3
127	127	4
24	24	24
138	138	2
69	70	1
122	141	2
37	90	2
153	153	6
115	116	1
130	138	9
27	27	2
62	62	10
18	18	7
144	144	3
47	47	5
42	43	8
129	129	18
38	40	7
53	53	14
20	20	10
35	35	9
84	84	9
8	8	8
78	79	7
50	50	6
42	42	15
103	103	2
48	49	1
57	57	6
77	78	6
102	104	4
83	99	2
142	143	3
111	111	3
101	103	1
41	41	6
126	127	2
142	144	4
68	69	10
15	16	4
83	84	7
51	51	7
12	32	2
138	139	4
139	140	1
118	119	3
109	109	11
131	131	3
6	7	3
141	143	1
125	128	4
138	150	3
37	37	4
35	54	1
127	130	2
102	105	2
71	73	4
121	140	6
67	68	1
49	51	1
11	33	4
95	98	4
45	55	3
43	43	3
100	110	1
16	16	7
128	142	1
136	150	4
62	64	4
51	121	2
152	153	6
67	67	5
21	22	9
30	31	1
44	50	6
5	5	4
107	107	14
50	63	3
147	147	9
75	75	4
65	66	2
70	70	3
58	79	4
20	21	5
148	148	2
77	100	4
45	45	6
94	95	2
149	152	3
14	14	2
141	141	8
74	74	3
38	38	2
96	97	2
94	96	1
146	146	4
80	81	6
99	100	3
134	135	6
140	140	2
54	54	4
50	51	4
116	116	4
117	120	5
5	6	3
3	9	2
20	87	2
85	85	2
7	7	4
74	109	3
34	36	2
95	95	2
2	2	2
110	110	3
32	33	2
81	118	1
54	55	1
106	106	7
105	142	4
136	137	2
21	21	7
90	90	4
154	154	6
95	109	4
119	119	2
149	150	5
114	115	2
31	32	2
68	68	6
26	27	2
63	110	2
105	106	3
70	71	2
151	151	2
149	149	1
96	96	6
68	71	1
73	73	1
10	10	4
121	122	1
116	117	1
133	133	8
150	150	4
81	82	1
118	118	7
109	138	1
76	76	3
93	94	1
4	7	4
56	67	2
136	136	4
100	100	2
28	28	3
29	29	4
80	80	2
6	25	1
26	31	2
86	86	3
11	13	2
28	29	2
34	35	1
134	134	1
75	93	3
15	15	1
8	9	2
3	3	1
94	94	3
82	82	5
100	101	1
119	121	1
67	74	3
3	5	1
40	40	10
38	80	1
48	119	2
141	144	3
19	19	2
101	101	3
21	87	2
102	102	4
100	144	4
17	19	1
23	23	3
67	128	1
28	37	3
22	23	4
95	106	3
78	78	2
81	81	1
7	25	2
107	138	1
39	40	2
66	66	1
132	132	2
108	108	1
122	123	1
121	121	4
99	99	2
86	87	2
140	141	1
103	141	1
6	23	1
152	152	3
36	36	2
21	31	1
108	109	2
123	124	2
23	24	2
54	67	2
105	107	1
142	146	1
4	4	1
22	30	1
48	54	2
53	110	1
32	32	1
62	66	1
20	23	1
119	120	2
45	84	1
70	72	2
88	94	3
74	82	1
25	25	2
14	21	1
14	16	3
62	67	1
70	119	1
13	13	2
37	38	2
142	142	1
79	79	1
74	100	1
64	64	1
18	19	1
51	52	1
41	43	1
71	71	1
74	75	1
98	98	1
40	41	1
11	11	1
44	80	1
130	131	1
36	37	1
21	23	1
95	97	2
34	38	2
38	39	1
98	99	1
143	143	1
