12	12	5
165	167	2
167	167	10
227	228	1
173	173	2
46	46	8
106	106	1
246	246	2
233	234	1
230	230	12
82	82	3
69	69	3
159	159	4
42	42	5
60	65	1
19	19	6
235	235	2
75	75	1
11	11	6
51	51	7
185	211	3
72	72	7
169	177	1
6	7	2
110	111	4
169	176	3
185	234	1
191	191	3
200	200	7
182	182	7
228	235	2
202	203	1
61	62	1
58	58	8
87	87	8
35	37	3
27	27	3
215	215	13
197	199	2
117	117	5
221	237	1
190	192	4
33	84	1
183	240	5
45	45	7
161	162	1
171	175	2
56	56	2
88	88	5
175	175	9
119	120	3
67	70	1
62	62	2
96	104	1
65	85	2
216	216	7
54	66	2
171	171	3
188	188	6
95	96	5
211	211	8
179	180	3
34	34	7
219	240	1
66	66	2
226	226	5
69	76	2
224	224	6
18	18	11
178	179	1
67	67	9
37	37	6
197	197	4
222	222	4
25	25	2
195	196	2
9	9	1
213	213	5
112	112	7
193	199	4
152	153	2
65	65	8
86	112	1
145	145	2
168	168	3
120	174	2
60	60	7
67	81	3
5	5	3
6	6	2
5	7	2
180	180	4
4	4	2
102	102	3
40	40	8
242	242	3
212	212	11
197	198	3
35	36	2
14	14	3
240	241	3
221	221	7
100	100	5
170	170	5
156	156	8
199	200	5
197	206	1
33	33	8
174	175	1
93	93	1
210	213	1
164	164	9
61	61	6
238	240	2
49	50	3
186	186	5
23	23	7
63	63	9
240	240	4
26	26	6
77	78	4
151	151	6
174	174	6
70	70	4
211	212	1
54	54	6
44	45	6
113	114	3
92	92	4
163	224	1
219	219	1
6	8	1
216	218	1
16	16	7
104	104	4
165	165	10
182	222	2
59	60	5
186	189	2
209	232	7
25	27	1
162	162	4
150	150	2
218	219	1
68	79	3
152	152	4
184	185	2
88	89	1
43	43	3
55	55	1
109	109	6
156	197	2
167	169	2
236	236	3
89	89	3
52	52	2
232	232	9
209	214	2
21	21	9
49	49	2
29	30	3
52	53	1
36	36	2
47	50	3
91	91	7
184	211	2
118	118	9
71	71	9
244	244	2
77	119	1
119	119	2
85	85	10
110	110	4
160	160	11
73	73	3
65	113	1
229	230	1
227	227	5
70	71	1
197	200	2
214	214	5
205	205	10
166	166	3
203	203	5
219	242	4
44	44	2
209	209	3
33	34	3
187	188	5
96	96	9
202	202	6
177	177	5
189	189	2
48	49	2
55	72	1
9	10	3
47	51	1
235	236	4
192	193	1
96	98	1
245	246	1
42	44	3
20	20	11
15	15	3
113	113	4
90	91	3
64	112	1
191	192	1
28	28	6
169	169	5
237	237	1
108	174	3
8	8	4
94	94	6
120	120	2
165	166	4
173	175	1
99	99	5
24	24	6
224	225	1
96	100	3
226	227	2
180	181	1
69	99	1
155	155	5
101	101	3
111	112	1
33	83	1
231	231	5
185	185	1
239	241	1
228	229	2
246	247	3
29	29	2
52	236	2
179	179	6
183	183	9
153	153	8
163	189	1
118	119	2
103	104	1
38	39	3
155	156	1
37	82	1
181	181	3
220	242	1
5	8	3
30	30	1
91	102	1
57	57	7
41	41	2
238	239	1
38	38	2
21	22	1
154	154	2
78	79	1
223	224	1
10	10	1
171	172	1
15	16	1
175	176	1
226	228	4
188	189	1
69	78	1
37	38	1
86	86	2
74	238	3
154	155	1
1	1	6
216	217	1
178	178	2
228	228	1
208	236	1
181	198	3
77	77	6
17	17	2
97	98	1
206	206	1
89	90	3
52	237	1
95	109	2
114	115	1
193	193	1
57	61	1
95	95	3
221	222	2
57	115	3
190	190	5
177	178	3
160	163	2
47	47	1
181	182	1
83	83	1
167	168	3
68	68	2
31	31	6
64	65	2
198	198	1
108	108	4
192	192	4
42	43	1
164	191	1
68	70	2
151	152	1
111	111	1
39	40	1
169	171	1
79	79	3
59	66	1
170	171	3
229	229	4
207	207	3
53	53	1
163	163	2
150	155	2
48	51	1
19	20	1
76	76	1
52	229	2
114	114	3
193	194	1
217	218	2
230	231	3
50	50	1
100	119	2
34	37	2
147	149	1
176	176	2
245	245	3
22	22	4
199	199	3
231	232	1
115	116	4
218	218	2
121	121	1
14	15	2
149	150	1
116	117	1
71	72	1
26	31	2
26	30	2
65	66	1
67	68	1
203	205	1
105	106	2
239	239	1
196	196	3
187	187	1
217	217	3
26	27	2
241	241	1
86	110	1
102	103	1
53	199	2
84	85	1
78	86	4
48	50	2
59	95	1
234	234	3
59	59	1
166	169	1
29	31	1
172	172	3
186	236	1
184	184	1
181	193	2
54	55	1
7	7	3
187	189	1
153	154	1
30	31	1
90	90	1
35	35	1
15	17	1
186	221	1
107	108	1
23	24	1
241	242	1
81	81	3
2	2	1
81	82	4
86	87	1
84	84	1
41	42	1
43	52	1
212	213	1
247	248	1
71	99	1
30	32	2
52	205	1
228	233	1
243	243	1
48	48	2
247	247	1
210	233	2
237	238	2
116	116	1
183	218	1
107	107	1
98	98	1
95	97	1
244	245	1
198	200	1
74	74	1
213	214	1
87	111	1
82	86	1
98	101	1
100	118	1
