21	21	9
53	69	3
49	52	4
58	58	6
54	54	10
43	43	15
64	64	1
30	30	11
25	25	10
44	47	3
46	46	15
35	35	9
62	62	12
72	73	4
39	43	5
12	12	6
59	59	4
38	38	7
11	11	3
71	71	10
13	13	4
61	62	4
30	31	2
54	55	3
34	59	4
36	38	5
45	45	8
60	60	9
53	53	15
4	4	6
73	74	2
13	14	3
70	71	6
67	69	7
77	77	8
20	20	11
50	50	2
69	71	8
6	6	2
53	54	3
24	24	9
47	52	8
13	51	5
73	75	4
22	67	5
67	71	3
27	28	2
39	56	4
26	26	5
66	66	4
74	74	7
34	34	9
29	29	2
55	55	15
31	32	1
18	74	3
41	43	7
72	75	4
40	42	2
44	45	3
31	57	2
49	50	2
33	33	14
20	71	1
0	0	11
55	56	4
28	28	4
35	42	2
46	51	3
48	48	9
36	41	2
50	75	2
36	61	2
62	63	10
29	33	2
67	67	4
10	11	5
23	23	13
51	52	9
8	10	4
2	2	7
33	59	1
57	57	5
19	19	9
76	76	6
10	10	8
61	65	1
23	24	3
65	65	6
39	39	3
22	22	5
30	56	2
0	1	2
44	44	10
24	57	2
45	46	2
36	37	5
27	27	3
56	57	2
24	34	1
23	61	2
75	77	3
50	72	1
24	28	1
42	42	4
75	75	10
56	56	6
48	52	2
9	11	3
60	62	3
21	22	4
20	21	5
43	47	5
51	51	7
72	72	1
22	66	3
3	3	6
41	42	1
38	57	1
40	40	1
39	41	1
10	12	2
60	65	3
37	38	1
9	9	5
3	4	1
4	12	1
61	61	4
20	22	1
70	70	4
60	61	3
38	54	1
76	77	4
77	78	2
22	27	3
40	41	4
14	49	3
61	63	1
65	71	2
68	73	2
0	2	1
68	68	1
63	64	3
1	4	1
9	10	1
32	32	1
32	45	1
47	53	2
6	11	2
43	69	1
48	73	2
49	49	3
39	66	1
21	68	2
29	32	2
12	46	3
47	47	7
4	11	4
43	67	2
35	56	1
38	56	2
73	73	3
70	72	4
25	58	2
5	8	5
22	35	2
68	69	3
23	28	1
35	64	2
12	76	1
41	41	2
4	54	2
47	51	3
59	66	1
49	51	1
69	69	1
11	12	1
36	36	1
57	60	1
36	62	1
41	48	1
2	18	3
40	74	3
69	70	1
37	64	1
3	55	2
4	13	2
49	73	1
61	67	1
5	5	1
33	48	1
66	69	1
7	8	1
43	74	1
43	49	1
18	18	1
1	1	1
28	32	1
39	40	1
21	67	1
39	54	1
57	58	1
