61	61	15
12	12	17
153	159	2
168	168	14
162	162	11
131	131	18
125	125	11
157	158	4
37	47	4
21	21	11
126	127	10
22	22	10
148	149	6
76	76	5
154	155	7
41	41	4
28	29	6
101	101	10
141	141	8
26	26	2
134	134	10
66	66	11
103	103	18
179	179	15
73	73	2
165	165	11
140	140	11
19	20	6
106	106	11
88	88	17
164	164	7
81	81	18
46	46	9
11	11	27
80	80	5
23	23	4
124	124	8
86	86	7
143	144	3
2	2	3
44	44	16
0	0	16
181	181	13
126	133	5
56	57	3
120	120	18
79	80	4
65	65	4
48	48	20
188	188	5
114	114	5
17	17	12
70	71	4
92	93	5
108	108	3
61	62	5
122	122	11
185	186	5
26	27	3
12	13	9
114	115	3
123	123	14
87	87	3
77	86	4
15	15	5
0	1	4
150	150	11
167	167	6
132	133	3
151	151	16
29	29	6
155	155	6
131	133	7
173	173	10
169	169	7
10	10	15
56	142	6
169	170	10
116	117	5
189	189	24
65	66	4
33	34	6
185	185	6
81	85	2
72	74	4
138	138	2
145	145	7
182	182	15
175	175	10
14	14	14
24	24	11
13	15	2
58	59	3
171	171	9
16	16	14
8	87	3
164	165	7
40	40	11
59	161	4
42	42	6
117	117	7
67	67	9
143	143	5
58	99	2
166	166	10
115	115	7
8	8	5
118	118	13
24	35	5
170	170	8
153	153	6
99	99	7
106	107	3
81	82	7
104	139	3
83	83	19
135	135	11
77	87	1
105	105	14
158	158	9
67	102	3
70	70	2
60	65	2
97	108	2
56	110	1
111	111	12
122	148	4
39	39	9
38	38	8
4	7	2
78	78	16
55	55	7
149	149	8
25	25	13
171	172	10
113	113	16
29	48	2
18	19	2
7	8	1
104	108	2
184	184	10
187	187	8
130	130	2
61	63	4
6	7	5
137	139	2
154	171	2
20	31	2
6	6	4
58	97	4
187	190	3
190	190	14
63	63	7
47	47	13
126	126	8
102	102	22
97	98	5
127	170	4
179	180	5
4	4	5
187	189	3
32	32	11
150	155	4
130	179	1
83	84	6
85	86	11
92	94	3
188	189	5
105	106	6
84	84	5
3	3	8
107	116	5
33	43	2
54	54	10
38	40	1
58	62	3
35	35	6
57	57	9
93	141	2
20	20	13
123	154	5
74	74	13
90	90	6
27	27	10
116	116	15
2	144	2
115	116	2
91	91	4
71	72	11
94	143	1
58	58	13
96	96	4
68	68	5
60	60	9
101	102	4
146	146	5
119	120	10
172	172	13
1	1	3
175	176	7
183	183	15
64	66	3
145	146	2
137	137	11
74	75	3
133	134	14
31	32	7
42	43	5
91	92	1
48	73	2
151	152	9
76	77	6
4	5	5
45	46	6
107	108	5
129	129	4
92	144	1
104	105	1
6	8	2
186	186	3
119	119	7
149	156	3
52	81	3
177	177	17
59	59	5
53	87	5
180	182	2
111	112	1
126	134	2
64	64	4
62	62	5
163	163	12
102	140	1
34	35	3
174	174	10
36	37	8
178	178	3
1	2	3
84	85	7
182	183	5
102	103	6
5	7	6
178	189	4
125	137	5
43	43	12
180	180	5
181	182	7
107	107	2
25	26	15
103	146	2
23	34	2
57	95	2
120	121	1
136	137	5
100	102	2
18	18	10
148	148	6
89	141	1
186	187	7
125	138	1
32	36	5
92	92	9
128	128	3
75	75	4
176	176	1
34	34	4
156	156	11
152	152	6
156	171	1
91	95	3
162	163	5
11	12	2
143	145	3
127	128	4
138	139	8
99	149	3
77	85	1
40	43	1
109	145	2
18	28	1
147	147	3
47	91	2
68	92	2
4	6	4
71	71	9
13	13	6
95	95	3
37	37	9
82	82	8
174	176	4
75	76	4
57	97	3
110	110	16
108	145	2
166	168	9
138	148	2
45	45	13
127	132	6
9	9	1
135	136	1
89	89	3
31	31	4
136	136	6
166	167	3
19	23	4
3	5	4
106	148	3
112	112	14
121	139	4
165	171	2
33	33	5
129	130	9
95	96	6
94	94	6
64	65	1
109	115	4
161	162	1
150	154	1
60	63	1
85	85	4
148	150	1
22	23	3
176	183	1
142	143	3
163	173	5
177	178	2
168	169	1
19	27	5
139	152	1
98	157	4
55	142	5
2	3	4
17	18	3
28	30	4
140	141	3
172	173	2
39	40	5
97	97	3
121	122	1
20	21	3
41	43	5
79	79	3
157	157	2
130	132	5
67	68	3
179	183	2
28	28	4
111	113	1
122	124	1
176	177	4
68	94	1
104	104	4
180	181	7
55	71	2
160	160	13
93	93	4
70	72	2
170	172	4
37	45	3
37	38	1
67	91	2
98	98	12
154	154	10
13	29	1
185	189	3
68	71	8
87	88	2
77	77	4
150	165	3
90	95	2
113	115	4
180	187	1
33	44	1
0	3	2
168	170	1
41	42	2
56	56	6
45	65	1
103	104	4
38	39	3
54	55	3
67	94	1
100	100	3
155	156	1
54	88	2
116	118	6
15	17	1
19	21	3
72	143	2
53	53	8
155	171	1
55	93	1
112	114	2
70	74	1
44	47	1
14	15	4
66	67	3
65	67	3
124	125	6
21	22	4
189	190	2
36	36	6
8	86	2
159	160	4
94	97	2
166	170	2
173	174	1
139	139	5
7	7	12
30	47	1
97	100	2
65	68	2
127	127	3
156	157	3
124	150	1
52	77	1
19	19	2
24	40	2
13	14	7
147	149	1
113	145	1
116	119	4
46	70	1
63	95	4
71	73	2
103	145	4
159	159	2
97	104	1
157	160	2
32	33	2
167	174	2
27	28	2
5	5	3
160	162	4
142	142	1
72	72	2
5	6	1
53	144	1
84	86	1
122	123	1
36	102	1
130	131	2
123	169	2
183	189	3
160	161	1
86	88	2
86	87	2
134	136	2
104	147	1
110	114	3
10	11	3
60	62	1
137	138	3
60	61	3
101	103	2
12	14	1
132	132	1
104	146	2
122	136	2
113	114	1
22	24	3
63	66	1
149	150	2
36	45	3
109	110	1
103	140	1
27	31	6
15	16	4
58	61	1
99	157	2
8	77	1
134	167	2
131	169	1
68	69	1
166	174	1
88	89	1
69	72	2
137	151	1
53	77	1
97	147	1
34	36	1
117	119	1
96	97	1
117	118	1
100	103	1
128	129	1
18	27	2
35	39	1
9	11	1
184	186	1
30	31	2
106	122	1
176	182	3
57	100	2
29	30	2
99	158	2
166	173	1
98	149	1
19	24	1
5	8	1
108	109	1
43	44	1
19	33	1
144	145	1
121	121	1
30	34	1
126	132	1
