38	38	11
99	100	4
50	50	6
25	25	16
98	98	12
71	71	8
47	47	9
96	97	2
66	67	7
43	90	2
82	86	1
73	73	15
68	68	4
101	101	11
105	105	4
92	92	8
38	41	3
88	94	3
20	20	10
74	74	16
79	79	5
36	36	5
82	82	3
104	107	9
104	104	8
88	91	6
66	66	14
78	78	21
103	103	5
86	87	6
93	93	9
81	81	2
23	24	5
31	98	5
53	53	8
45	47	1
95	96	6
106	107	4
64	65	3
99	99	5
32	32	12
73	74	4
44	44	12
31	100	5
37	38	1
113	113	10
49	51	1
46	46	11
81	84	5
63	64	3
49	49	5
76	76	11
54	54	10
85	85	4
72	73	13
45	45	9
34	45	2
77	77	3
69	69	7
35	35	11
27	27	10
23	23	12
33	33	14
34	35	7
31	31	7
87	87	4
55	55	7
110	110	10
86	86	5
59	59	6
36	39	3
22	22	4
39	39	4
44	92	3
98	103	1
80	81	6
62	63	2
84	85	2
21	21	8
48	52	4
48	49	4
34	34	6
22	110	2
53	54	2
96	96	5
82	108	1
30	30	2
88	88	9
72	72	6
26	26	18
112	112	5
84	84	5
50	52	1
92	103	4
60	60	10
28	28	11
52	52	2
24	25	2
27	28	4
107	107	3
40	40	7
95	95	3
62	62	12
64	64	3
83	86	1
71	72	7
39	40	1
43	44	4
61	62	4
24	24	2
91	92	1
41	41	6
95	97	3
39	99	4
67	67	7
83	84	2
40	41	3
69	70	2
43	43	7
21	22	1
81	111	2
66	68	4
111	113	2
65	66	3
108	108	6
94	94	3
50	51	3
97	108	4
85	86	2
58	61	1
48	48	5
47	48	4
87	105	2
90	91	1
96	100	2
33	95	3
99	101	3
76	77	2
98	108	1
44	45	3
54	59	1
91	108	1
53	60	3
89	89	1
91	102	1
28	29	2
29	33	1
22	42	2
100	100	6
21	101	1
97	97	6
58	60	1
51	54	4
29	68	3
90	92	1
60	109	3
81	110	2
51	51	7
22	66	1
30	32	2
58	58	3
42	45	5
22	92	1
114	114	2
45	46	3
83	83	4
61	61	2
26	49	2
100	101	3
57	57	2
75	75	2
41	42	1
51	55	2
37	69	1
40	50	1
26	34	1
111	112	2
98	99	1
42	42	2
113	114	1
31	32	1
37	37	3
106	106	2
31	33	3
103	107	3
92	101	2
63	66	1
103	106	1
90	90	1
62	65	1
102	102	2
26	51	1
79	80	3
112	113	1
67	68	1
55	56	1
74	75	1
63	63	3
71	73	1
21	53	1
105	106	1
109	109	1
75	76	1
56	56	1
68	69	1
30	99	1
32	45	1
31	99	1
28	30	1
43	91	1
90	93	1
109	110	1
94	99	1
23	46	1
32	34	1
