22	22	21
79	80	1
97	98	1
115	115	6
21	21	3
130	130	2
57	88	3
9	9	5
96	97	2
97	97	4
11	11	6
57	57	7
126	133	4
12	12	7
6	11	1
107	111	1
120	121	1
6	18	2
55	120	1
95	95	11
87	87	3
68	68	6
4	4	4
123	124	5
73	73	3
101	106	3
76	76	12
39	39	9
80	80	9
108	108	6
105	105	3
20	21	4
132	132	22
16	16	4
37	39	2
77	78	2
122	123	2
55	114	1
131	131	3
111	112	3
66	66	7
61	61	2
34	34	9
126	126	7
31	31	2
121	122	5
2	11	3
81	81	6
90	92	2
69	69	7
87	98	2
76	100	2
73	79	3
112	112	1
83	83	6
44	44	11
71	71	8
86	86	3
20	20	2
58	59	2
117	118	5
94	95	6
133	133	8
37	40	1
57	59	2
10	10	2
101	130	4
7	78	3
20	25	1
127	127	3
125	125	6
8	8	10
7	7	1
113	114	1
58	108	1
114	115	4
120	120	10
129	129	7
41	43	2
118	118	1
74	74	3
19	20	1
59	109	3
108	111	3
35	35	7
78	78	5
112	113	1
121	121	4
84	85	7
115	116	3
98	98	1
30	31	1
56	112	3
101	101	2
37	37	5
0	0	1
13	13	1
67	67	4
14	14	3
47	47	4
30	102	4
89	93	1
100	100	1
79	79	2
23	23	4
127	131	1
72	72	6
113	117	1
11	12	2
75	75	5
32	37	1
59	59	9
23	27	2
62	103	1
62	62	4
107	108	7
35	36	1
46	46	4
63	63	1
39	41	1
128	130	1
6	6	7
13	31	4
113	115	1
17	17	7
102	103	3
32	32	3
82	86	2
65	65	7
66	67	3
24	25	2
112	126	1
90	90	9
2	2	2
7	41	1
114	114	1
37	38	3
11	57	2
12	13	5
90	134	2
26	42	2
125	130	3
122	122	6
84	84	4
85	120	2
4	5	1
60	60	8
40	40	2
27	27	1
26	26	3
91	91	2
5	5	3
5	6	4
114	132	1
91	127	1
48	95	1
7	29	3
80	81	6
45	46	3
87	115	1
94	94	7
17	29	1
130	131	1
14	46	3
87	88	1
42	42	4
7	27	1
3	3	1
101	109	1
87	127	4
116	119	3
64	64	2
18	21	3
82	82	2
16	45	1
34	36	3
18	23	1
128	128	1
38	41	1
15	15	4
70	70	4
29	29	6
1	1	1
123	126	1
113	113	4
56	56	4
124	124	1
96	128	1
117	119	3
101	102	1
18	18	5
14	33	1
131	133	1
56	57	2
32	34	1
97	113	2
2	3	2
8	9	2
103	104	1
107	114	1
111	111	1
41	41	5
39	40	1
38	38	2
123	123	3
83	84	1
37	41	1
81	96	1
86	87	1
121	124	1
126	127	1
27	34	2
109	109	2
106	115	1
25	25	2
105	120	1
129	130	1
112	131	1
91	121	4
42	79	1
119	119	1
104	104	2
99	99	1
65	66	2
107	107	2
85	86	1
6	27	2
125	128	1
41	45	1
105	110	1
62	64	1
119	122	1
36	39	2
106	121	1
55	99	1
124	125	1
106	132	3
72	76	1
30	32	1
103	103	1
4	72	1
11	13	1
23	24	1
126	129	1
118	119	1
72	104	1
110	110	1
59	117	1
47	73	1
3	7	1
95	96	1
33	34	1
