85	85	11
26	29	7
54	54	16
52	100	3
93	94	2
59	60	4
63	97	3
11	11	8
86	86	5
55	77	5
63	63	18
67	128	2
77	77	16
91	91	8
89	116	2
66	66	9
53	119	2
15	15	15
95	111	3
106	110	6
10	69	1
116	116	7
22	22	18
62	62	9
91	92	2
26	31	3
57	57	2
99	99	10
89	89	7
132	132	8
43	88	2
100	101	1
72	126	4
111	111	5
125	125	11
3	81	5
120	124	1
73	134	3
101	101	15
59	59	7
0	21	3
120	121	1
32	32	5
102	102	7
47	118	1
110	111	5
112	113	3
0	0	7
72	91	3
46	53	1
58	58	7
80	81	2
103	123	1
1	79	4
56	56	12
118	127	5
53	53	16
21	21	11
106	106	6
36	39	1
2	3	2
10	50	2
104	104	8
86	97	5
112	112	17
54	57	4
42	50	4
110	110	8
29	29	9
129	129	9
72	72	11
2	4	2
35	87	3
47	47	3
9	80	5
113	116	1
52	53	4
19	19	9
5	5	5
76	76	25
28	28	3
23	26	1
63	98	4
116	117	3
13	13	17
133	133	7
8	37	4
8	8	7
31	31	3
9	9	8
27	27	8
63	126	1
106	129	2
10	49	3
26	85	5
83	83	14
134	134	6
90	90	9
88	88	8
35	35	11
43	43	11
6	6	5
82	85	2
37	85	3
62	118	4
98	98	8
3	82	3
44	47	5
130	133	3
72	73	9
92	94	6
22	23	5
65	127	3
20	20	3
87	87	2
92	92	8
117	127	3
130	132	4
49	119	4
16	16	7
113	113	6
56	85	4
4	4	1
94	94	1
91	93	2
103	104	1
23	23	12
71	71	5
131	131	8
37	37	6
65	65	4
44	97	3
74	74	3
60	60	15
61	61	14
67	68	3
127	128	1
54	63	3
94	99	7
107	107	7
107	113	1
129	133	8
13	66	2
18	76	2
10	96	2
117	117	2
61	62	8
23	30	1
47	55	3
70	91	1
117	130	2
1	37	1
36	43	1
8	36	2
95	95	8
75	75	7
25	25	8
7	36	2
120	120	4
126	126	11
68	68	7
103	103	8
24	24	8
1	36	2
72	99	6
3	36	2
15	82	3
98	120	3
8	26	2
80	80	10
79	79	4
44	44	7
14	53	1
132	133	4
68	69	1
54	86	1
50	50	7
14	14	8
85	97	2
32	82	1
95	106	4
16	17	8
128	131	1
123	123	13
95	96	2
56	77	2
121	122	3
97	128	3
81	81	7
84	86	3
0	19	2
44	96	6
109	110	4
4	5	9
8	80	3
123	124	2
118	118	7
51	51	2
35	56	1
93	121	1
22	82	1
3	3	7
96	96	9
84	84	5
64	65	3
84	85	1
101	106	3
30	31	5
82	83	3
18	21	6
115	115	12
106	125	2
26	26	5
90	94	2
57	58	1
100	100	4
135	135	2
36	83	1
42	78	3
17	18	3
58	60	1
119	133	1
108	122	2
77	78	2
70	70	3
97	97	5
130	131	6
108	108	1
73	102	3
53	54	5
23	24	2
72	90	6
1	4	1
34	34	14
56	86	2
71	95	1
129	135	5
35	43	1
58	100	5
88	99	1
92	99	3
54	98	2
78	87	1
114	114	3
2	2	4
116	126	2
12	71	1
8	45	2
17	114	1
105	134	2
44	51	2
67	67	2
27	30	3
91	98	2
33	34	4
124	124	7
86	87	2
122	122	9
108	109	5
33	33	2
78	86	2
69	112	1
129	132	1
119	125	2
66	67	4
116	129	3
12	12	10
78	78	5
117	118	1
35	85	2
52	52	5
19	49	1
101	131	4
9	10	7
98	102	2
47	83	2
25	30	2
7	8	2
97	102	1
63	64	3
127	127	6
15	18	2
18	18	3
87	100	3
64	64	6
114	126	2
121	121	14
5	7	2
11	49	2
17	126	1
49	120	2
19	21	3
13	49	1
77	100	1
74	101	4
62	63	4
110	115	1
90	91	2
56	120	5
130	130	2
13	14	2
50	51	1
106	126	1
78	80	2
105	116	2
31	32	1
20	23	1
38	38	4
107	116	4
54	70	1
2	80	2
7	9	2
105	105	3
89	90	7
19	30	2
10	54	3
63	129	1
13	53	3
57	79	1
83	121	1
57	125	4
45	47	3
65	70	1
99	103	2
7	7	6
53	56	1
9	11	1
11	54	2
87	88	1
63	118	2
129	134	1
14	98	5
0	55	1
11	65	4
45	45	2
55	98	2
4	6	1
63	96	2
127	129	2
5	80	1
2	13	2
115	130	1
5	17	3
63	135	1
2	42	2
12	53	4
25	32	2
105	129	3
65	93	1
91	95	1
73	112	1
32	33	1
3	4	4
2	35	3
109	109	6
103	120	2
131	132	1
95	97	1
64	86	1
15	67	3
104	105	5
66	127	1
3	14	1
32	52	1
31	33	2
115	116	1
93	93	5
1	92	1
8	23	2
20	21	2
75	101	1
112	127	2
3	38	2
50	53	1
119	120	1
11	109	2
43	95	1
23	70	2
11	45	3
43	44	1
86	128	1
11	12	1
53	57	1
62	120	2
61	69	1
54	56	1
117	126	1
58	59	1
48	48	2
4	13	1
17	111	1
0	78	3
62	74	1
94	95	1
10	11	1
8	19	1
19	20	2
13	38	2
44	61	1
107	130	2
32	37	1
99	100	1
5	6	2
107	120	1
16	22	2
8	43	2
108	126	1
93	99	2
0	88	1
11	96	1
107	117	1
122	123	2
10	45	1
86	101	2
35	44	1
20	24	1
130	135	1
84	87	1
13	67	1
119	119	3
31	34	1
50	118	2
64	68	2
1	1	1
10	10	2
94	124	1
60	61	1
57	87	1
55	55	2
102	118	1
102	103	1
73	76	1
117	129	1
70	92	2
70	71	1
69	69	1
35	82	1
6	79	1
78	79	1
113	115	1
73	73	1
