68	68	14
126	126	26
102	150	2
25	81	1
100	100	12
101	116	3
21	21	6
118	119	3
61	64	2
30	30	12
88	89	8
18	18	15
70	73	1
10	10	10
13	13	4
189	189	10
54	54	12
151	151	15
102	102	12
23	110	8
169	170	5
140	140	7
137	137	9
48	49	4
29	30	6
133	133	17
190	195	6
76	77	7
80	80	10
76	76	19
48	48	13
82	82	7
53	53	4
25	27	6
108	109	3
157	157	6
110	110	24
16	17	2
46	46	20
73	73	16
97	97	15
53	55	2
40	42	3
124	196	7
63	63	10
44	45	9
7	7	17
180	180	21
156	156	17
195	195	10
167	167	16
94	94	15
31	31	23
27	27	23
172	172	7
134	135	14
32	53	5
9	9	18
36	36	6
2	2	15
20	20	17
186	186	17
34	81	3
177	177	19
6	6	13
188	188	6
112	112	9
15	16	17
163	177	4
34	110	3
37	38	2
47	47	12
131	131	12
89	90	5
33	84	4
138	141	1
28	28	20
44	44	11
69	69	16
103	103	11
152	152	13
87	87	12
59	60	4
1	1	15
119	122	1
153	153	14
17	17	16
46	47	1
6	7	2
19	19	19
89	89	13
111	112	2
116	122	2
127	127	9
22	59	1
9	10	3
176	177	3
130	131	2
143	143	15
25	25	10
155	157	2
83	84	9
121	122	15
187	188	10
22	34	5
44	46	3
97	116	2
65	65	13
134	134	16
86	87	7
25	26	2
74	74	8
196	196	12
149	149	9
79	79	7
40	41	5
36	37	6
129	129	15
96	97	10
26	26	10
74	75	2
18	20	2
90	90	8
126	151	5
26	27	3
43	43	9
138	138	11
127	129	3
61	63	3
7	8	6
162	179	1
185	185	19
113	114	5
183	183	10
114	164	5
36	103	2
104	104	18
107	108	13
118	118	6
114	114	11
191	192	12
74	80	5
33	71	3
168	168	12
66	68	3
14	14	11
5	5	11
72	72	8
78	78	10
172	186	1
124	124	8
118	147	3
63	64	2
11	11	15
176	176	12
184	184	14
164	165	5
109	110	3
169	169	18
119	119	10
27	28	1
121	121	6
174	174	13
43	44	16
0	26	3
62	62	16
135	135	9
3	3	17
100	101	3
101	102	7
110	111	10
144	146	4
49	86	2
155	155	11
75	76	3
57	57	9
192	193	7
65	66	9
34	34	8
12	12	24
64	64	8
166	166	14
70	70	9
146	147	2
84	85	8
58	58	11
23	53	2
71	71	8
36	40	2
123	123	13
109	140	2
61	61	4
132	133	5
197	197	6
99	116	2
125	125	8
178	178	12
165	166	3
46	50	6
55	55	7
0	3	4
109	109	11
124	125	3
102	111	2
5	9	3
29	82	3
24	85	7
104	115	4
49	49	20
56	80	1
106	115	3
20	22	6
53	54	2
152	153	5
171	171	7
53	56	3
119	120	4
67	67	20
67	142	3
117	117	9
22	22	6
187	187	19
15	15	8
144	144	22
160	162	2
190	190	3
95	96	2
165	165	10
117	118	19
131	132	8
142	142	10
135	136	5
122	122	9
32	32	9
182	182	20
21	96	2
8	9	3
148	148	7
161	165	2
50	50	12
33	33	11
94	95	3
105	105	6
174	176	9
1	26	2
71	72	5
175	175	14
193	194	4
27	81	3
189	190	2
159	159	9
22	23	3
97	99	9
149	150	2
95	95	23
28	173	3
61	62	9
108	108	12
181	182	8
96	98	1
1	135	2
56	56	12
52	53	8
93	94	3
37	39	3
102	104	2
130	130	7
42	43	4
41	44	3
146	146	8
157	158	8
116	116	8
37	37	9
171	197	2
83	83	10
50	51	3
139	139	13
5	6	6
123	124	3
35	35	6
0	1	2
42	42	9
17	18	3
194	194	6
49	50	1
19	20	6
138	139	3
149	160	3
173	173	12
5	15	2
58	61	1
24	26	8
21	58	2
116	117	6
190	191	9
185	191	3
88	88	7
158	159	4
8	8	15
126	127	3
97	98	2
99	99	9
101	101	11
40	40	12
25	85	4
132	132	9
127	128	7
148	186	5
30	31	14
75	75	3
152	154	1
37	67	1
170	171	9
38	38	18
96	99	5
112	161	5
41	42	4
31	32	6
14	54	5
96	96	12
85	85	6
147	154	1
38	39	2
179	189	3
98	99	1
14	78	3
85	87	4
161	161	2
168	173	8
12	14	4
86	86	15
45	45	9
120	122	4
13	32	1
4	4	5
154	155	7
183	184	3
136	136	13
134	137	3
3	4	6
158	158	8
171	172	7
58	82	2
51	51	6
176	181	6
120	120	5
151	154	4
123	156	2
28	29	2
69	70	3
43	59	1
162	178	1
54	55	13
33	52	3
104	179	3
148	181	3
151	152	3
160	160	2
67	68	1
13	78	3
159	164	2
98	98	8
141	142	9
102	112	1
41	43	2
154	178	3
155	156	10
0	0	2
181	181	5
29	29	2
140	149	1
12	16	2
130	132	5
178	189	2
136	137	13
116	120	2
170	170	5
82	83	4
152	155	4
113	113	6
10	14	3
116	123	3
141	141	9
76	78	5
24	61	3
47	49	3
47	48	7
7	111	2
145	146	4
107	131	1
101	106	1
16	16	9
84	84	11
19	34	3
193	193	9
160	161	6
157	159	2
161	162	4
27	170	6
186	193	2
62	63	5
93	113	2
156	197	1
168	169	7
77	77	14
2	3	2
81	81	9
136	176	2
191	191	10
130	133	1
100	188	1
81	82	5
39	39	9
19	76	5
59	59	14
154	196	2
130	187	1
143	144	3
179	179	6
156	159	2
116	146	3
147	148	2
21	22	6
34	35	1
106	106	7
107	113	3
103	150	2
26	28	2
173	174	1
35	67	3
115	115	4
45	47	2
145	148	2
136	138	4
180	182	4
174	175	1
56	57	3
30	51	2
1	2	9
159	160	2
114	115	2
155	171	3
20	49	1
145	159	1
32	73	3
176	192	1
41	41	5
150	150	3
52	52	11
24	24	8
79	80	2
40	43	3
125	126	5
147	147	8
36	68	2
179	197	6
107	107	9
35	36	4
51	62	2
179	180	1
123	159	1
192	194	1
183	185	1
167	168	5
156	157	1
14	16	1
168	172	1
154	164	2
81	84	3
111	111	6
11	12	4
99	100	6
78	80	1
22	28	1
144	145	4
114	167	1
36	142	2
26	85	1
39	64	1
106	107	5
162	163	6
21	59	3
102	103	5
60	60	6
147	162	3
37	41	4
60	61	1
153	154	1
184	185	6
101	167	4
151	162	3
134	149	3
178	179	2
116	118	1
64	65	3
28	30	2
70	71	1
2	138	3
20	61	3
21	60	2
22	24	4
99	114	1
57	58	1
0	10	1
20	23	2
169	194	4
66	66	3
164	164	6
34	111	1
128	128	6
9	11	2
34	93	5
68	78	2
84	86	1
103	105	1
10	13	1
104	145	1
139	140	7
99	188	2
4	6	2
120	124	1
194	195	3
71	113	2
133	148	1
145	154	1
190	192	2
128	130	1
176	178	3
154	154	6
58	70	2
170	176	3
85	86	6
23	59	1
2	175	1
139	149	1
142	151	1
45	46	2
170	172	1
29	173	1
104	114	1
133	138	1
24	55	1
104	106	1
80	81	2
163	164	5
150	151	6
39	63	2
89	181	2
47	96	3
164	169	2
126	140	1
60	63	1
39	43	1
112	113	1
125	139	1
126	135	1
23	24	4
182	183	2
163	163	5
174	191	1
44	47	2
96	189	3
34	71	4
124	177	1
47	84	1
51	94	1
60	84	2
34	66	2
123	184	1
15	41	2
88	90	2
98	183	3
142	143	2
101	104	3
74	76	2
41	60	2
77	78	2
115	116	1
99	197	1
115	180	4
165	189	1
107	112	1
128	129	1
185	186	2
4	109	1
145	147	2
104	107	3
7	19	2
162	162	2
22	60	2
8	29	1
145	145	6
102	149	1
4	7	2
176	180	2
74	83	1
169	172	2
93	93	2
111	151	2
169	171	1
90	182	1
41	48	2
185	192	1
43	45	1
53	87	1
68	70	2
121	150	1
119	195	2
195	197	1
129	196	1
122	123	1
36	58	2
188	189	1
175	176	1
8	31	1
121	156	2
141	143	1
166	167	1
193	195	1
23	23	1
120	151	3
62	64	2
75	102	2
177	189	1
110	169	1
108	111	2
39	40	3
114	116	1
32	79	1
29	50	1
32	55	2
41	58	1
70	84	1
95	186	2
25	44	1
18	19	2
103	120	1
137	157	1
36	60	1
5	139	1
112	167	1
0	15	1
138	140	1
161	189	1
150	181	1
109	111	2
102	132	2
162	188	1
151	194	2
89	172	1
88	188	1
5	181	1
192	192	2
154	163	1
59	63	1
127	196	1
67	75	1
133	134	1
185	187	1
155	193	1
101	113	1
79	85	1
160	187	1
14	15	1
100	107	1
120	121	1
