119	119	38
24	24	20
43	43	11
34	34	10
117	117	9
46	46	21
71	71	25
17	17	27
133	133	13
116	116	15
75	75	27
90	101	6
131	131	26
124	124	17
90	90	10
93	93	17
128	128	13
120	120	29
67	67	16
27	27	19
8	8	16
55	55	8
114	114	28
54	54	23
62	62	26
79	79	10
61	61	14
50	51	6
25	26	8
67	68	12
16	16	21
51	51	13
57	57	28
5	5	27
95	95	10
22	23	4
131	132	9
30	31	3
52	52	33
16	17	5
69	70	5
60	61	10
32	33	18
76	76	29
70	76	6
87	88	11
113	113	34
2	2	25
78	78	10
121	121	34
41	42	11
7	7	25
77	77	29
66	66	23
31	32	10
103	105	2
110	110	22
13	13	20
126	127	5
57	125	3
32	32	36
55	56	4
72	72	10
38	38	24
6	6	22
80	81	5
31	31	8
45	45	18
40	44	5
58	88	3
23	24	9
22	22	22
25	25	7
92	92	16
82	82	24
52	53	17
64	64	24
29	29	27
65	65	23
5	24	3
78	81	2
105	105	28
88	101	2
75	128	8
132	132	19
44	44	17
116	119	1
116	117	9
40	40	29
129	129	7
12	12	24
1	1	13
60	60	11
69	69	27
52	54	4
83	84	6
125	131	14
84	85	15
89	89	23
108	108	41
117	123	1
38	39	3
3	4	6
111	114	3
80	80	14
107	107	17
102	102	17
94	95	14
104	104	19
81	81	15
128	129	5
115	119	4
132	133	7
63	63	11
42	42	24
99	100	9
115	115	29
119	125	2
0	121	4
118	118	17
20	20	24
63	64	11
130	131	3
51	54	2
119	132	5
73	73	15
123	123	23
105	106	8
23	25	5
63	68	1
86	88	8
21	22	6
122	122	12
10	22	2
54	58	5
122	125	2
40	41	8
53	53	19
82	96	3
4	72	2
109	109	20
82	84	6
15	15	20
86	87	1
10	11	17
23	23	7
83	86	4
47	48	3
47	81	4
86	86	14
120	121	9
18	18	10
18	19	15
15	17	4
115	116	8
17	18	2
117	118	4
70	70	31
71	72	5
56	56	37
97	97	14
14	29	1
96	97	8
5	129	5
11	14	1
0	0	24
11	11	12
33	33	20
68	68	16
58	58	24
119	128	3
39	39	11
4	4	17
94	94	16
59	59	8
9	17	1
39	45	3
26	26	10
0	27	5
58	59	9
49	49	18
103	103	16
112	112	24
74	74	8
99	99	26
83	85	3
41	61	2
21	21	15
26	28	1
106	107	7
28	28	19
109	110	19
66	114	4
97	98	8
125	126	7
54	116	5
88	88	9
96	96	28
78	79	17
20	22	3
46	54	2
93	94	15
28	31	3
79	81	5
120	123	1
111	111	12
95	96	6
83	124	4
108	115	5
9	9	14
46	47	10
100	102	3
87	87	7
126	126	15
91	94	6
28	29	10
42	43	7
19	19	20
108	110	3
48	48	18
72	73	7
83	83	25
104	105	17
57	58	9
30	30	17
47	47	42
101	102	9
22	24	3
59	67	5
91	91	13
115	117	5
45	86	1
59	64	3
11	13	3
106	106	17
34	89	7
125	125	12
42	46	5
10	14	2
97	101	2
85	85	26
14	23	3
54	55	6
127	127	7
118	120	1
84	86	1
12	13	3
91	102	2
53	96	1
19	22	1
8	9	5
77	79	1
3	3	19
90	91	10
98	98	29
113	120	3
60	64	5
110	111	8
57	90	4
9	10	3
63	65	1
51	52	5
23	26	5
60	72	2
107	108	6
14	14	19
77	78	8
65	68	5
102	103	6
85	86	6
4	73	3
118	119	3
10	10	10
125	127	2
67	119	1
19	89	2
88	89	11
62	63	8
75	76	7
76	77	6
44	48	2
59	100	1
32	132	4
72	91	4
50	54	4
113	114	6
30	120	3
45	46	5
89	90	7
56	79	2
14	21	1
84	84	17
96	98	4
13	14	7
24	25	3
79	80	4
127	128	4
40	43	3
65	98	3
20	21	8
126	129	6
11	12	4
20	25	1
29	98	4
104	106	5
73	101	3
63	66	1
66	67	4
38	89	2
2	6	3
16	22	1
81	92	2
41	41	10
12	53	1
74	75	2
105	124	1
78	85	5
64	65	2
106	113	3
1	121	4
67	74	2
19	21	6
108	109	8
114	115	7
34	98	2
101	101	16
57	100	3
25	34	1
56	58	3
79	86	1
100	101	3
4	5	1
121	122	4
126	130	1
41	45	2
54	118	2
130	130	14
8	25	3
106	108	2
68	99	2
15	16	11
50	50	21
29	31	2
1	4	1
41	48	2
1	124	3
44	45	12
10	49	1
45	60	5
83	105	7
92	93	2
85	131	2
3	31	2
92	116	2
91	93	1
122	123	1
98	103	4
43	47	1
64	124	2
23	33	3
81	96	3
59	65	2
89	92	1
5	126	4
18	89	1
29	30	7
117	120	2
60	67	4
38	40	6
70	131	1
43	44	1
94	96	3
54	63	1
119	124	1
61	62	3
16	18	3
60	87	2
6	7	2
67	87	5
59	61	2
112	122	2
100	100	10
11	33	3
63	70	2
59	68	2
9	16	2
82	100	1
78	80	4
61	64	3
72	74	3
8	78	2
67	69	3
70	72	3
81	84	2
73	77	4
30	56	2
55	90	1
68	119	2
129	130	1
27	30	4
116	121	1
85	90	1
56	94	1
88	103	1
49	121	3
115	118	2
14	15	4
58	65	3
67	97	2
73	74	5
92	97	4
18	26	6
0	2	3
58	62	1
48	66	1
11	48	3
82	88	4
109	111	1
12	14	1
13	48	1
50	57	1
2	4	1
26	27	7
70	91	1
87	90	2
105	107	1
17	22	4
0	112	2
30	43	1
5	26	1
31	43	2
112	113	3
46	58	3
13	34	2
127	129	3
91	92	8
65	67	2
93	122	1
92	96	3
13	24	3
28	132	2
15	23	1
40	45	4
5	13	3
58	66	2
6	32	1
28	48	4
46	49	3
65	66	2
113	117	3
27	31	3
72	75	1
126	128	4
82	94	1
86	89	2
80	100	1
2	5	2
12	32	3
92	95	2
118	123	2
26	31	1
25	31	2
40	42	1
114	116	3
50	53	1
45	62	2
42	45	1
48	54	4
128	130	1
119	120	1
9	11	1
111	112	2
57	89	3
46	65	2
25	27	1
27	28	5
19	20	2
20	96	2
31	34	2
79	85	2
27	29	1
57	64	1
68	72	1
49	53	1
12	15	1
114	117	2
123	125	1
124	125	6
9	19	3
97	99	1
82	130	1
69	116	1
85	103	2
98	99	1
59	86	3
1	28	1
2	29	1
76	98	1
41	43	1
13	33	1
33	75	1
86	103	1
59	60	2
41	44	2
64	128	1
82	125	1
127	130	1
58	70	1
52	133	1
16	24	1
39	48	1
48	53	3
128	131	1
55	69	1
54	56	1
56	57	1
107	109	3
109	112	2
49	58	1
58	60	1
123	124	1
89	96	1
46	52	3
5	6	1
28	30	2
74	97	2
53	93	1
79	96	1
10	19	1
99	101	1
44	47	1
2	3	1
25	28	3
59	101	2
45	47	1
57	91	1
66	118	1
5	130	1
107	113	1
32	76	1
8	48	1
7	8	2
55	120	1
75	127	1
10	18	1
72	100	2
26	47	1
26	32	2
40	102	1
74	92	2
90	95	1
27	58	1
108	113	1
33	42	1
65	118	1
18	87	1
15	48	1
53	54	1
65	125	1
2	25	1
51	83	1
63	69	1
