7	7	7
167	167	4
113	194	10
26	26	5
52	53	4
155	156	7
41	43	1
130	146	5
33	33	9
55	55	12
115	117	12
166	167	2
69	69	4
145	145	7
27	27	4
141	142	1
36	40	2
122	122	12
141	141	9
173	186	1
1	1	9
153	177	7
43	43	2
185	185	9
132	133	6
19	19	6
179	179	7
63	73	3
131	143	2
178	193	3
149	149	8
119	120	4
182	182	6
97	97	5
79	79	7
68	68	11
99	179	1
48	49	2
125	125	9
117	118	3
70	70	4
36	36	12
169	182	2
88	88	14
84	84	5
37	49	2
118	174	1
176	176	5
166	166	2
85	87	2
73	78	1
108	111	4
82	94	1
146	156	2
113	113	8
117	117	6
47	47	4
17	22	3
104	122	2
78	88	1
84	85	3
50	50	4
21	22	6
10	38	1
122	123	3
58	61	1
108	120	5
154	158	2
139	173	3
10	10	4
127	143	3
173	174	4
183	184	2
93	101	1
165	165	3
143	143	4
67	67	7
27	39	6
70	77	1
189	191	3
161	162	4
111	111	7
191	191	3
123	123	6
180	180	9
133	134	8
169	169	4
60	71	3
113	121	4
25	42	2
30	32	3
148	148	11
30	31	3
41	45	1
134	134	14
35	35	8
6	7	4
40	43	3
197	197	6
188	188	7
121	121	4
9	38	1
56	56	9
55	86	1
181	182	6
26	33	7
35	41	2
76	76	4
150	150	11
41	42	2
98	98	7
6	8	1
177	177	15
11	11	10
13	13	13
28	28	16
172	173	7
100	104	5
130	130	19
176	186	3
40	40	12
162	171	2
5	5	4
105	122	1
139	142	2
172	172	11
125	139	1
0	31	3
125	137	3
34	34	7
174	174	3
163	163	3
53	67	3
12	12	4
120	120	6
189	189	9
3	30	3
171	172	8
187	187	2
138	152	2
10	13	1
44	44	6
127	154	2
41	57	3
1	163	1
94	94	12
113	161	2
72	72	15
57	57	9
69	72	6
66	78	3
9	9	4
144	148	2
63	63	9
34	60	4
151	152	7
14	27	3
111	117	2
190	190	8
17	21	2
89	89	3
186	187	1
184	185	1
29	29	3
146	167	3
18	21	1
133	154	4
35	38	3
7	9	3
13	28	6
77	77	3
108	109	4
8	25	1
170	179	4
188	195	3
157	157	4
100	101	1
13	29	2
74	75	7
2	2	6
43	54	1
16	17	7
124	124	11
63	65	4
138	138	6
51	51	7
33	35	2
111	194	4
151	151	7
131	148	1
58	71	1
9	15	1
160	188	3
168	168	7
60	60	5
88	89	1
193	193	3
175	175	6
11	38	3
139	158	5
151	165	5
60	79	2
115	126	6
160	161	4
81	87	5
43	70	7
101	101	4
0	3	2
60	61	4
43	45	3
61	65	1
6	20	2
75	75	2
2	21	4
59	59	10
118	129	3
156	156	3
96	100	1
164	164	8
164	184	1
96	103	3
149	157	2
166	192	1
13	44	3
169	172	2
116	116	8
78	78	6
172	191	1
66	72	2
127	135	3
61	62	2
142	142	2
2	34	3
53	69	1
11	172	2
55	57	1
4	9	1
38	39	3
181	184	1
125	126	2
16	16	12
109	126	1
150	168	4
160	192	3
46	46	6
2	19	2
123	130	2
115	127	1
119	124	2
47	61	2
110	110	3
0	43	1
32	56	3
103	105	12
112	112	3
37	37	1
64	80	1
42	43	2
68	75	4
53	53	5
110	111	4
74	74	8
183	190	2
14	14	6
154	154	6
25	26	2
150	152	2
83	83	7
147	147	1
156	158	2
135	135	13
3	3	6
42	42	5
124	138	2
95	95	8
37	38	3
102	105	3
109	109	4
82	84	2
97	99	2
161	178	4
71	71	7
69	184	1
164	176	2
10	30	2
139	147	1
66	66	5
64	64	5
62	65	4
147	166	3
2	108	3
4	10	1
184	184	3
113	127	5
14	46	1
153	164	1
161	161	4
112	119	4
84	101	2
130	139	3
54	57	4
46	52	3
89	90	3
144	145	2
19	20	6
65	65	9
32	32	3
196	196	2
113	119	6
125	133	3
176	177	3
103	104	5
132	134	1
15	45	2
31	41	2
40	41	5
112	128	5
25	43	3
171	171	5
194	194	5
147	171	2
58	58	3
62	62	3
133	149	1
114	114	8
11	56	3
18	38	2
165	186	2
8	31	1
39	40	1
3	26	1
168	188	1
54	141	4
160	160	7
176	185	2
45	45	8
38	38	2
127	127	5
113	118	2
0	20	1
2	20	5
15	15	7
135	164	4
46	60	4
22	42	2
8	8	7
49	49	6
183	183	9
81	84	3
51	64	1
157	159	1
37	54	2
80	80	7
56	58	1
109	112	2
130	133	2
115	115	2
30	30	5
48	52	2
171	173	1
65	66	1
1	2	2
155	180	2
50	60	3
61	80	4
159	159	5
190	193	2
11	45	1
100	124	1
93	137	2
44	53	1
135	151	3
146	146	2
28	35	1
31	31	5
7	8	4
47	58	4
177	179	3
120	173	2
145	148	2
10	159	2
84	95	4
37	56	1
67	89	1
165	166	3
38	55	1
106	122	3
162	162	5
139	156	2
10	27	1
155	155	4
122	124	6
156	157	2
118	118	2
115	130	6
126	126	4
46	65	1
151	170	2
102	102	9
13	53	2
149	162	2
80	84	2
131	146	3
52	52	2
35	45	2
148	166	3
170	188	1
152	152	2
164	178	3
188	191	1
99	99	1
25	25	9
156	160	3
122	134	3
85	85	3
137	137	5
142	153	2
14	17	3
41	44	3
175	178	1
16	37	2
85	88	2
170	171	4
6	9	3
159	163	1
161	163	2
97	101	2
155	184	1
115	116	4
61	61	6
67	68	1
100	100	2
125	135	4
0	1	2
68	79	1
182	197	1
34	51	1
142	160	3
56	65	1
152	168	3
105	105	2
72	73	5
144	144	4
3	17	1
58	65	4
151	169	2
24	24	3
20	21	2
55	66	4
157	193	1
87	87	3
126	133	2
17	18	4
108	108	3
163	170	2
153	185	1
3	4	3
106	119	2
173	178	2
164	166	1
4	23	1
81	109	3
70	80	4
181	181	3
95	96	1
8	43	1
168	195	1
49	50	5
186	193	1
145	171	1
107	118	1
18	31	1
21	23	1
10	11	2
23	23	6
125	134	1
185	196	1
167	183	3
9	32	1
82	82	1
108	115	5
34	58	2
31	44	2
186	188	4
40	67	2
9	37	1
57	62	1
64	66	2
154	155	2
158	158	1
170	170	1
136	137	2
152	170	3
48	48	4
39	39	1
94	96	2
19	24	1
13	54	1
54	54	2
121	136	2
34	36	1
102	121	2
43	44	2
16	19	1
45	46	2
152	164	3
160	187	1
0	0	4
107	107	3
138	139	1
21	21	4
15	17	3
173	189	1
96	96	4
126	127	1
95	98	2
9	39	1
12	57	1
94	95	1
52	65	2
8	15	1
103	103	2
23	43	7
52	78	2
18	18	1
2	51	2
119	119	3
86	89	2
66	77	2
171	194	1
20	20	2
128	165	3
25	31	3
38	54	1
122	184	1
136	138	2
147	149	1
155	183	1
145	157	2
104	105	4
129	129	5
102	106	4
82	83	1
98	99	1
150	158	1
65	72	1
116	118	2
12	25	1
112	130	2
38	40	1
164	165	1
8	37	1
104	104	4
109	110	4
142	143	1
94	102	2
5	17	1
98	108	3
117	136	5
38	41	1
35	56	1
73	73	2
31	32	1
175	188	2
43	67	4
33	43	1
80	81	1
59	60	4
178	178	2
134	165	1
163	164	2
35	57	1
7	158	2
49	63	4
33	39	4
34	50	1
123	132	1
3	23	2
133	150	1
168	183	4
113	193	1
103	113	2
157	160	1
61	83	1
20	39	1
74	76	1
71	85	1
1	87	1
5	15	2
157	171	1
69	70	2
169	171	1
136	136	2
4	20	1
17	19	1
177	180	1
84	102	1
9	25	1
33	38	1
65	77	1
167	187	1
169	188	1
111	129	1
12	27	1
8	80	1
127	128	2
155	158	1
25	67	2
166	178	1
41	41	3
86	86	1
69	121	2
146	185	1
26	30	1
147	148	3
115	128	1
66	70	1
142	150	2
52	174	1
181	197	1
181	185	1
176	179	2
22	22	2
5	16	1
18	30	2
57	69	1
124	133	1
128	128	3
70	81	2
56	57	1
101	102	1
127	142	1
18	39	1
9	50	1
97	100	1
27	59	1
160	166	1
133	133	1
177	188	1
121	122	1
140	157	1
155	160	1
77	79	2
121	123	1
102	103	1
129	130	1
146	153	1
27	58	2
3	5	1
113	116	1
3	36	1
181	192	1
143	152	1
83	90	1
61	64	2
46	53	2
57	86	1
90	90	1
163	192	1
96	98	1
195	196	1
19	36	1
63	68	1
32	61	1
105	113	1
102	108	1
116	136	1
138	147	1
100	105	1
124	142	1
35	44	1
4	5	1
6	6	1
