11	81	1
39	55	1
131	131	20
123	123	13
61	61	12
126	126	14
123	127	8
87	88	2
16	16	7
74	74	16
23	23	13
65	66	1
0	20	3
88	110	5
57	57	17
1	1	7
0	0	13
63	63	9
12	12	5
60	74	1
40	40	6
66	72	3
37	37	9
108	108	6
70	91	5
121	121	11
134	134	7
70	70	9
47	47	9
60	60	8
24	24	10
138	139	1
104	104	5
101	132	5
115	116	2
43	43	9
88	88	9
20	20	4
120	121	4
65	65	16
67	68	5
80	80	9
11	11	7
67	67	7
19	19	11
125	126	3
55	56	4
144	144	15
68	68	15
63	64	3
137	137	5
42	42	12
55	55	8
27	28	7
88	113	3
93	94	4
130	130	6
115	115	13
73	73	8
89	89	8
85	85	7
22	22	12
114	114	10
134	135	4
66	103	2
38	39	3
61	69	2
25	25	9
135	135	6
109	109	12
92	93	6
59	59	6
30	30	8
98	98	16
110	113	3
21	21	9
101	102	4
75	75	12
8	8	17
81	119	4
89	140	2
19	20	1
97	139	4
75	139	1
119	120	9
137	138	3
54	54	12
133	133	6
35	35	5
125	125	18
5	60	1
93	93	7
24	25	4
95	95	7
102	102	10
58	59	5
29	29	21
107	107	6
85	127	3
99	99	6
99	101	3
87	87	14
67	71	1
29	30	5
33	34	1
96	96	12
96	97	9
31	32	5
113	113	4
133	134	3
132	132	12
26	26	6
91	91	15
0	21	2
3	54	2
16	58	4
132	134	3
40	41	4
128	130	4
88	123	2
36	37	2
69	69	6
66	66	17
94	94	13
53	69	4
71	72	6
80	81	13
36	36	5
106	106	5
119	119	11
94	100	2
51	105	3
74	123	1
53	53	14
52	52	16
18	18	15
91	92	4
14	57	1
117	117	7
62	62	5
105	105	6
41	41	10
14	58	1
122	123	4
129	130	3
6	41	1
26	67	2
115	117	2
101	134	2
88	132	1
51	51	6
79	80	8
5	5	12
38	97	1
120	120	7
121	126	1
101	101	5
126	130	3
38	41	3
38	38	9
143	143	4
31	31	15
11	30	1
108	113	2
103	103	12
63	68	2
76	78	4
110	110	8
19	64	2
90	90	15
72	72	4
100	101	3
92	92	6
81	84	2
10	29	2
33	35	3
130	136	1
140	140	11
127	127	11
131	139	4
78	78	2
33	33	5
10	10	6
101	119	3
145	146	3
17	17	14
79	79	9
87	126	2
90	91	4
141	141	10
97	97	16
34	34	5
128	128	7
136	136	2
109	120	1
84	84	6
106	131	2
134	139	1
18	19	7
83	85	4
24	53	1
113	115	3
35	36	1
76	76	5
100	100	7
77	77	4
50	50	3
142	142	8
140	142	3
32	32	8
39	39	14
129	129	9
22	37	1
8	60	1
128	129	6
16	54	1
49	49	8
0	2	1
9	9	3
81	82	3
124	125	1
12	13	1
124	124	11
60	110	4
107	144	2
14	19	3
20	21	3
61	62	7
55	61	3
89	94	1
6	6	4
71	104	1
77	109	6
108	114	1
63	67	3
27	27	10
102	103	3
64	64	7
111	114	1
4	15	2
82	82	6
112	112	7
58	58	2
107	108	1
78	101	5
12	32	1
23	25	1
48	48	14
126	127	1
47	48	3
144	145	1
98	99	2
125	141	2
108	109	3
30	81	1
69	113	3
28	28	5
14	15	1
71	91	6
47	50	3
77	78	3
114	132	1
70	71	5
21	26	1
64	65	2
95	96	4
109	110	1
70	74	1
2	6	3
20	35	2
115	132	1
139	139	8
90	99	1
20	24	1
15	27	1
56	67	1
116	116	5
51	53	2
81	81	7
120	131	3
121	122	2
97	98	2
124	129	4
94	95	2
25	26	2
74	75	3
10	11	2
140	141	1
1	2	2
58	79	6
22	23	2
131	135	5
75	77	5
83	83	2
57	82	2
86	86	3
15	15	3
99	100	6
68	69	4
76	79	2
69	70	4
70	81	2
60	61	3
90	96	2
9	10	1
20	42	1
118	118	3
13	32	3
51	52	2
145	145	4
62	69	2
94	98	4
83	101	5
21	22	2
86	87	3
81	103	2
34	35	2
76	80	2
57	58	3
22	26	3
3	55	1
4	5	8
136	137	4
2	3	3
15	16	1
73	74	1
107	118	2
82	83	3
87	110	1
5	47	2
111	111	7
87	99	2
47	49	2
38	42	1
84	85	4
143	144	2
114	115	3
103	104	1
52	53	4
14	27	2
71	71	3
0	6	1
123	126	1
114	117	2
4	35	1
84	86	1
23	144	1
134	140	1
73	106	1
126	134	1
95	98	2
77	96	1
5	36	1
43	48	1
108	119	1
92	113	3
17	41	2
135	136	1
96	98	1
61	66	3
146	146	2
56	56	5
71	123	3
77	79	1
5	6	2
99	129	1
141	142	1
37	53	1
2	2	2
128	131	1
130	131	1
36	39	2
18	62	1
26	120	1
94	141	2
54	55	1
4	40	1
112	114	2
20	48	1
56	86	2
66	67	3
76	88	1
46	47	1
13	13	1
117	120	4
31	64	1
104	106	2
104	105	1
88	99	1
1	47	1
47	68	1
49	57	1
78	106	1
118	119	1
78	79	1
105	106	4
54	56	2
50	76	1
50	52	2
21	34	2
81	105	1
109	111	1
14	14	2
36	53	1
2	53	1
58	66	1
17	18	1
92	107	1
5	40	1
47	73	1
52	54	1
112	113	1
138	140	1
0	1	1
92	115	1
16	17	2
3	4	1
23	39	1
2	50	1
23	38	1
128	143	1
87	132	1
126	133	1
37	38	1
75	80	1
48	82	1
1	33	1
21	23	1
97	131	1
127	128	1
135	138	1
138	138	1
20	22	1
32	34	1
30	31	1
5	54	1
59	60	1
26	28	1
111	119	1
3	56	1
112	118	1
4	4	1
