148	148	4
125	126	1
186	186	7
11	12	2
22	23	7
76	79	2
113	121	2
104	105	3
19	19	13
229	229	8
180	180	6
39	39	9
124	124	10
15	228	1
156	157	6
181	181	14
143	148	1
109	112	2
49	49	13
197	198	4
241	241	9
221	221	8
5	19	1
119	119	9
129	129	9
178	206	3
0	86	2
183	191	1
23	23	10
163	163	11
53	53	22
16	153	3
146	146	4
11	116	3
173	174	2
17	18	6
11	69	4
9	9	12
26	26	24
150	150	5
206	207	6
89	89	7
49	50	8
20	20	7
104	104	21
81	83	2
115	115	9
211	212	2
13	16	2
117	117	12
167	167	6
103	130	1
217	218	9
38	39	6
148	162	2
233	233	9
61	61	8
210	210	12
184	184	9
153	153	14
238	238	10
189	189	5
234	234	19
116	116	14
160	161	4
2	2	7
11	11	2
50	52	2
128	129	6
133	133	8
28	28	6
178	179	1
145	162	2
137	138	2
163	164	1
207	238	2
38	38	8
103	103	3
187	188	2
199	208	2
220	220	14
178	208	2
132	134	1
192	216	1
165	165	7
168	194	1
141	141	10
41	41	6
151	152	2
134	134	18
208	208	5
72	72	5
166	168	1
59	63	3
199	200	7
123	123	2
173	173	18
140	140	9
170	170	3
7	8	1
232	232	8
166	166	8
44	44	9
42	52	2
62	86	4
187	187	12
191	191	5
182	182	5
178	178	16
139	139	5
161	162	1
216	216	4
203	203	5
217	217	11
237	237	12
206	206	17
0	68	2
184	185	10
28	207	4
101	102	4
172	172	5
166	167	2
24	25	10
85	89	4
160	160	4
142	142	7
81	81	8
67	67	3
169	172	4
50	50	12
40	42	3
135	136	2
37	67	6
223	225	4
14	14	9
168	168	8
211	211	1
81	85	4
222	222	6
125	125	7
54	55	4
66	66	15
30	30	6
27	27	24
25	25	13
81	99	4
40	40	3
171	178	7
21	23	1
33	33	10
97	97	3
191	192	1
174	175	3
145	145	7
32	32	9
242	242	4
6	67	2
68	68	4
174	174	4
239	240	2
179	179	1
84	85	1
118	127	1
43	43	10
8	14	4
214	214	5
179	207	3
235	235	14
69	69	4
3	4	6
168	197	2
51	52	10
127	127	2
150	152	2
109	126	2
15	22	6
122	122	10
31	31	6
186	187	7
155	155	15
226	226	6
151	151	4
98	98	3
154	168	2
39	40	2
203	206	1
191	214	2
217	220	3
28	29	1
3	71	2
138	142	2
95	95	4
6	6	1
106	107	5
238	240	3
24	24	14
219	219	8
231	231	14
7	9	3
225	226	3
52	52	7
96	97	4
120	120	4
42	42	13
159	159	7
83	83	11
88	88	11
43	64	1
54	54	7
114	115	2
62	155	2
102	102	18
46	46	8
29	31	2
19	20	2
117	119	3
82	82	3
0	81	1
184	188	3
150	158	1
227	228	2
208	210	4
5	6	3
18	19	9
141	142	5
153	158	2
16	22	3
57	58	1
239	239	6
20	56	2
12	12	6
10	10	11
4	67	1
70	70	6
158	159	5
35	84	1
99	99	5
198	198	3
169	171	4
0	1	3
240	241	2
181	182	1
71	73	3
127	128	1
121	122	3
59	60	2
152	152	4
105	106	6
73	73	3
59	59	2
209	210	3
205	205	6
65	65	12
100	100	7
73	80	2
86	86	5
30	31	4
22	22	8
240	240	3
14	68	3
9	28	1
84	84	4
113	113	1
238	239	6
16	16	8
193	193	3
105	128	1
64	64	9
74	75	3
191	193	3
125	128	2
37	38	1
114	114	4
18	23	2
143	144	2
184	186	2
46	49	3
23	157	2
229	231	6
15	15	3
223	224	7
147	159	3
218	218	2
59	83	1
25	26	2
201	201	4
203	204	4
21	21	4
182	183	5
149	150	4
133	134	2
214	215	2
228	229	1
47	48	1
9	27	3
58	76	2
108	117	2
207	208	1
36	36	11
6	7	3
75	76	5
3	10	2
156	156	12
180	182	3
31	33	2
74	74	9
178	199	6
164	165	4
14	16	2
9	13	1
42	98	2
170	171	7
121	121	1
146	185	1
232	233	2
125	130	1
71	71	2
60	60	5
101	101	7
171	172	3
210	211	1
164	166	2
204	204	9
21	22	2
175	175	3
29	29	3
35	79	2
73	77	4
111	111	9
126	126	1
95	132	1
161	161	5
192	192	2
202	202	5
36	51	3
227	227	7
144	145	1
202	203	9
8	8	1
215	216	1
199	199	6
136	136	5
29	30	5
34	80	2
147	147	4
9	10	2
140	141	1
215	215	4
184	187	1
200	200	7
191	213	1
56	56	5
220	221	4
103	107	4
195	195	5
174	179	1
52	53	6
177	178	2
73	128	2
1	3	2
209	209	4
31	206	2
119	120	2
201	206	4
228	230	2
160	179	2
35	35	4
180	183	2
47	52	3
190	191	4
17	22	3
170	180	1
55	55	6
10	11	4
79	80	1
63	63	1
75	75	4
217	240	2
183	183	4
5	5	5
52	91	1
0	62	1
109	125	1
190	222	1
109	111	6
108	118	2
38	66	6
189	222	1
7	7	2
118	118	6
224	224	5
42	43	1
75	101	2
104	107	4
169	169	6
3	20	3
213	213	3
72	152	5
103	129	3
13	225	3
225	225	4
78	78	6
128	128	5
7	66	3
188	189	2
207	207	9
111	119	3
161	211	3
192	219	2
80	80	3
79	79	12
162	162	11
71	153	2
7	13	2
60	105	2
30	34	3
196	196	7
65	66	3
140	142	2
74	102	2
41	57	1
13	13	1
12	16	3
0	0	7
29	149	1
18	225	1
83	88	1
228	228	3
142	143	1
66	68	3
77	77	2
37	37	10
110	110	1
34	34	1
102	126	2
227	230	2
177	177	4
62	62	8
158	158	5
11	64	1
136	137	2
28	31	2
74	90	3
222	236	1
223	223	6
45	45	8
171	171	5
176	176	1
56	78	2
106	106	4
102	129	2
105	105	7
82	85	4
179	180	5
46	47	4
66	67	8
188	188	4
230	233	4
82	99	1
53	54	3
207	218	1
79	84	2
124	130	2
58	59	7
190	190	2
107	125	2
194	194	1
144	144	2
1	1	4
62	83	2
221	237	1
51	51	3
82	83	3
176	177	4
2	71	2
164	164	3
149	149	4
179	183	2
229	230	2
159	165	1
108	116	1
198	199	1
109	109	1
138	138	3
195	196	2
170	175	1
185	185	2
58	58	3
96	144	5
237	240	2
72	73	1
221	222	5
116	117	1
71	72	1
96	145	1
3	3	4
7	80	4
236	236	2
230	230	3
24	148	2
7	20	2
186	188	2
151	155	2
197	197	4
131	131	1
43	44	2
163	186	1
162	168	1
131	132	2
27	28	2
68	83	2
48	48	2
148	184	1
14	225	1
12	14	4
61	62	1
96	96	4
114	117	1
8	9	1
28	206	1
201	203	1
7	68	3
219	220	5
154	158	2
219	233	1
20	21	2
112	112	1
218	220	2
5	72	1
152	160	3
147	148	3
226	227	1
130	130	4
218	240	1
212	212	5
115	126	1
237	238	1
168	195	1
70	71	1
64	65	3
118	129	1
177	179	1
27	202	1
141	147	1
200	201	1
192	193	4
54	58	1
110	111	1
47	47	1
180	212	2
137	137	3
169	170	1
106	151	2
189	192	1
73	151	1
107	113	2
85	85	4
24	235	1
167	180	1
173	205	1
112	115	1
135	135	1
17	17	2
151	241	2
97	242	2
154	155	1
118	119	1
59	79	1
11	63	1
183	185	2
1	2	2
140	143	1
157	158	2
149	208	1
164	184	1
142	144	1
99	142	1
4	4	1
181	212	1
148	150	1
2	5	1
4	5	1
149	181	1
30	144	1
226	228	1
6	69	1
135	164	1
13	211	1
164	186	1
207	210	1
139	143	1
13	116	2
61	63	1
15	68	1
25	149	1
43	47	1
86	87	1
143	145	1
140	148	1
19	22	1
174	180	1
170	173	2
28	150	1
8	75	1
44	45	1
165	166	1
32	151	1
33	80	1
113	114	1
234	235	1
145	195	1
3	67	1
179	192	1
152	153	2
104	124	1
8	78	1
