140	173	1
126	132	2
120	120	2
86	86	4
140	151	2
153	154	2
58	67	4
175	175	1
61	62	7
140	142	3
154	162	2
66	67	3
84	88	2
165	165	3
16	16	5
39	40	3
116	116	2
134	134	4
29	29	3
1	2	2
122	122	2
7	15	1
94	94	5
156	158	1
108	108	2
112	123	1
165	173	3
56	61	5
53	54	3
117	118	4
162	162	2
43	43	8
21	31	2
104	104	2
167	173	1
140	140	3
5	5	5
6	14	1
27	33	3
158	158	4
98	99	1
85	85	3
162	175	1
170	171	1
144	144	2
143	157	2
30	30	5
116	145	2
61	71	3
22	41	2
21	33	1
125	125	2
89	89	1
104	114	1
40	43	2
53	55	1
92	92	4
65	68	5
88	88	3
5	18	1
125	137	2
81	81	4
111	113	1
26	34	2
130	132	3
147	147	1
128	144	1
16	45	1
60	65	1
75	76	1
67	67	4
126	126	2
163	169	1
174	175	2
92	102	3
55	68	6
89	95	1
121	133	9
162	174	2
136	136	2
79	82	1
37	37	1
160	160	5
32	32	1
125	136	2
171	171	4
105	105	3
141	142	1
119	119	1
106	115	6
93	93	2
29	30	6
25	29	2
44	44	1
113	120	2
61	72	3
73	90	1
103	110	1
138	138	5
91	104	4
159	160	2
42	42	2
152	154	2
134	142	5
159	159	2
127	127	3
107	116	1
73	73	1
103	103	1
158	160	1
104	113	1
4	18	1
82	105	1
151	174	3
77	77	3
2	8	4
128	128	1
64	74	2
95	101	2
161	162	3
140	150	1
72	74	2
149	149	7
167	178	3
112	113	1
13	20	2
68	79	3
135	136	2
118	118	1
79	79	2
125	146	1
91	91	4
131	131	3
83	89	2
121	122	2
102	103	4
109	113	5
163	166	1
174	174	1
3	3	3
9	99	4
87	87	1
142	153	3
34	44	1
145	145	3
31	33	1
115	124	1
130	131	1
177	177	4
84	85	3
96	102	1
72	72	3
163	171	1
88	90	1
109	109	1
178	178	2
105	108	1
35	35	2
158	180	2
133	134	5
164	167	1
64	64	1
135	137	4
93	100	2
1	16	2
51	51	1
176	176	4
164	172	3
111	111	1
92	103	1
132	132	2
129	141	2
133	138	1
59	63	1
0	14	3
99	101	1
152	153	2
61	61	1
28	29	2
20	30	1
53	53	6
143	143	1
14	14	2
165	174	1
166	166	2
9	9	1
137	137	1
124	138	1
65	65	1
74	76	3
154	177	1
114	117	1
166	168	1
64	78	4
63	72	1
76	76	2
90	99	2
126	135	1
139	139	2
39	44	2
27	37	1
31	36	1
63	64	1
35	40	1
25	25	2
123	130	1
78	109	1
116	117	1
13	13	1
174	176	2
41	41	4
49	67	1
75	81	1
19	27	1
31	31	1
35	79	1
14	28	2
26	44	1
141	141	1
126	127	1
22	22	1
12	12	1
8	11	1
6	24	2
161	161	2
24	24	1
154	172	1
35	67	1
117	117	1
156	157	1
166	176	1
148	148	1
34	38	1
105	106	1
3	11	1
75	75	1
27	27	1
121	132	1
11	11	2
78	88	1
27	28	1
34	34	1
124	134	2
147	157	2
58	60	1
109	117	2
33	41	1
164	164	1
153	173	1
60	61	1
81	94	1
178	180	3
133	133	1
16	25	1
158	170	1
176	180	1
90	93	1
142	152	1
169	169	1
2	18	1
130	130	1
148	160	1
101	101	1
