151	157	1
242	242	8
99	106	2
34	62	3
13	13	6
159	159	2
215	215	5
9	9	1
30	42	2
224	224	1
233	235	5
203	203	3
233	233	1
59	59	4
57	69	1
3	3	1
96	100	3
142	218	1
206	206	8
21	22	3
218	219	3
138	139	1
109	109	2
52	186	1
3	5	2
58	58	4
118	118	3
189	195	1
79	126	1
178	178	1
100	120	2
187	190	1
146	146	4
218	218	7
211	211	1
122	168	1
153	153	8
22	22	4
113	113	10
19	19	4
204	204	2
31	34	2
201	201	11
230	230	4
146	167	1
174	174	6
201	202	2
152	152	1
39	39	4
10	46	2
50	75	1
60	60	1
61	61	4
23	24	2
171	172	2
115	200	2
80	80	7
47	47	4
176	176	4
209	211	3
53	53	4
134	135	2
36	36	6
232	232	2
102	102	9
44	44	2
73	73	2
174	175	2
78	88	2
138	218	1
220	220	4
30	31	3
172	174	2
221	221	2
24	24	7
147	148	1
227	227	4
138	170	1
191	192	2
70	70	7
42	42	10
26	26	2
21	21	3
104	104	3
172	225	2
76	76	5
198	200	2
136	138	2
154	154	7
165	165	5
144	146	1
114	114	3
107	107	1
114	136	1
188	197	1
97	97	2
199	200	6
64	64	6
105	105	1
62	63	2
219	219	6
116	195	1
27	27	10
108	109	3
188	190	3
198	198	2
144	144	3
38	38	4
7	65	1
141	143	2
82	82	1
0	65	1
81	82	1
181	181	4
62	62	1
29	29	2
133	143	2
68	68	3
147	159	1
83	84	2
166	166	2
72	103	4
169	169	5
33	33	3
25	25	6
72	72	1
135	135	2
179	179	10
81	86	4
195	195	5
135	136	6
14	14	2
200	200	2
99	99	3
214	215	1
126	126	2
235	235	2
64	69	2
12	24	1
237	237	1
229	229	4
241	242	4
67	67	4
184	185	4
33	40	2
44	45	4
217	217	4
157	157	4
6	6	5
143	170	1
168	168	2
66	88	3
58	59	3
228	228	2
0	4	2
119	119	4
57	58	1
222	222	1
160	160	7
184	186	4
129	134	2
156	172	1
15	15	6
124	125	1
184	184	3
239	239	3
78	78	4
21	108	4
214	214	2
141	141	3
160	164	5
122	122	1
125	125	5
25	45	2
133	133	1
191	191	5
206	207	4
122	125	1
27	45	2
197	198	2
117	117	2
144	167	1
28	28	3
238	240	1
74	74	3
181	187	1
145	146	1
99	100	3
81	81	1
31	31	1
173	224	2
77	77	3
71	99	1
114	116	1
78	82	1
102	190	1
32	33	4
5	30	1
7	9	1
130	136	2
79	84	2
51	51	3
43	43	5
172	224	1
173	223	1
236	236	1
69	70	2
98	98	6
77	96	1
225	226	2
16	16	2
82	190	3
101	101	1
185	185	3
177	177	1
180	180	5
112	112	3
49	49	2
71	71	2
122	123	3
140	141	5
80	86	2
25	99	1
101	102	2
18	18	3
155	156	5
5	31	1
172	172	1
171	191	1
210	212	1
10	10	2
63	63	3
199	199	4
86	86	3
6	69	1
34	35	1
3	7	1
0	9	1
79	83	1
134	134	1
224	225	2
51	52	4
45	45	2
76	77	3
77	87	1
20	20	3
6	8	2
8	8	5
75	75	3
226	226	1
163	163	2
12	13	1
100	100	2
173	228	1
41	41	6
143	143	2
192	242	2
157	158	1
228	230	3
5	5	1
14	19	1
83	241	1
4	4	3
129	129	4
16	19	1
34	34	2
50	50	2
223	228	1
58	61	2
108	108	3
171	171	3
221	230	1
139	140	1
164	165	1
121	122	2
149	149	4
104	111	1
79	79	3
121	190	1
119	125	2
123	123	2
167	167	2
81	118	2
26	43	1
186	186	2
5	8	1
116	116	1
65	67	2
205	206	3
98	99	1
174	194	1
40	40	1
137	137	1
30	30	3
47	70	1
145	202	1
203	205	1
17	17	1
217	219	3
164	164	1
238	238	1
106	106	1
153	156	1
160	161	2
208	208	3
228	229	1
100	103	1
4	29	1
118	136	1
213	213	1
113	121	1
145	145	1
1	1	2
204	205	2
127	129	2
136	136	2
127	133	2
148	159	1
139	139	1
161	161	1
208	213	1
48	49	1
15	16	1
11	12	3
182	188	1
216	217	1
51	181	1
151	151	1
49	50	2
95	95	2
11	46	2
108	121	2
7	7	1
139	170	1
240	240	1
152	161	1
223	223	2
63	64	1
155	155	2
120	120	1
0	7	1
121	189	2
175	175	1
3	46	1
212	212	3
25	44	3
37	39	1
216	216	1
207	209	2
173	173	1
229	231	1
118	119	2
1	88	1
165	175	1
162	175	1
104	105	2
150	151	1
69	69	1
159	163	1
196	196	1
88	88	2
153	173	1
153	154	1
173	230	1
198	202	1
5	6	2
138	138	1
132	132	1
193	194	1
148	148	1
2	13	1
137	138	1
59	62	1
14	15	2
32	37	1
137	217	1
205	205	1
151	185	1
153	157	1
100	104	1
125	126	3
163	175	1
2	2	1
5	34	1
24	25	1
189	189	1
234	234	1
71	72	1
6	68	1
231	231	1
143	167	1
