14	14	8
10	10	5
57	57	12
3	3	4
70	70	12
4	27	4
89	89	15
51	51	13
2	2	9
63	63	9
53	53	17
85	85	13
16	16	8
52	53	8
22	24	1
4	4	20
31	31	3
63	81	1
19	19	16
85	86	6
59	59	14
25	25	6
82	82	8
26	26	13
86	86	9
8	9	3
15	15	6
13	13	15
34	34	4
68	68	15
1	2	2
71	71	2
0	0	15
30	30	22
50	50	3
67	67	15
75	75	23
47	52	1
66	66	11
57	58	1
9	9	12
28	28	15
73	73	5
6	6	4
51	52	5
15	16	4
64	65	3
84	85	6
80	80	11
24	24	11
65	65	17
68	69	6
62	63	1
72	72	16
63	82	4
29	29	5
47	47	5
48	48	12
59	60	7
50	81	2
58	58	12
83	83	9
64	78	1
59	61	5
4	9	2
57	86	2
5	5	9
51	53	2
55	55	5
75	77	3
46	46	11
77	79	2
23	24	3
21	21	5
87	88	1
55	56	2
70	74	4
17	17	6
79	79	11
22	22	12
25	26	2
69	69	15
11	11	12
1	1	4
87	87	7
84	84	23
69	70	7
27	48	3
4	5	4
74	74	7
52	52	9
55	62	7
60	73	1
86	90	2
27	28	1
76	76	6
50	54	2
60	62	2
62	62	11
61	63	1
27	27	4
12	12	6
10	11	4
5	47	2
20	50	3
56	56	13
60	60	5
67	68	1
88	88	9
22	50	2
54	55	7
4	14	1
25	27	2
6	82	2
5	6	14
21	22	11
22	48	1
7	7	3
78	81	2
78	80	1
7	17	3
75	83	1
12	13	2
24	28	3
16	35	2
66	67	6
77	77	3
64	64	2
53	55	1
20	20	8
11	12	2
59	62	1
13	34	2
20	21	2
81	81	7
46	48	2
17	83	1
86	87	1
77	80	2
80	81	4
7	32	1
22	47	1
23	23	4
4	11	5
7	34	2
9	10	4
76	77	2
8	20	3
56	84	2
3	4	1
76	80	2
63	64	2
60	74	2
8	8	3
78	79	4
11	66	2
54	54	7
21	28	1
65	66	1
70	90	1
24	25	1
26	51	1
7	8	1
14	31	2
25	54	1
14	22	1
34	65	2
58	61	1
87	90	1
49	49	1
56	57	1
54	56	1
9	16	1
73	74	1
31	48	1
78	78	3
69	72	1
62	64	2
12	20	1
30	31	2
21	50	1
10	28	1
20	23	1
22	23	2
49	55	1
14	65	2
7	25	2
61	62	1
18	22	1
50	51	1
19	74	1
77	78	1
15	19	1
48	64	1
57	66	1
