13	13	7
31	32	1
64	64	10
11	12	10
111	125	4
59	78	6
61	61	7
107	127	1
33	33	21
75	89	2
62	67	1
108	129	4
55	56	1
82	83	1
15	15	4
98	116	4
68	70	1
126	126	10
112	115	3
125	125	10
116	116	4
56	81	4
25	25	7
110	110	9
84	85	7
34	34	10
45	45	10
94	94	13
36	37	1
50	50	6
38	44	1
66	66	2
21	21	10
114	114	9
71	71	9
81	82	1
96	97	1
18	35	1
15	16	4
112	121	1
112	114	2
83	83	1
122	124	1
134	134	12
89	93	2
74	74	6
107	107	4
8	9	1
8	8	7
83	84	2
44	45	1
69	70	1
97	97	6
67	67	4
99	99	4
110	125	5
12	12	10
128	128	6
7	7	8
90	92	3
92	93	1
89	89	3
104	104	10
47	49	2
70	70	14
130	130	3
16	16	7
51	52	1
27	27	5
82	85	1
61	90	3
42	42	3
13	14	1
46	46	5
14	14	3
29	29	8
115	118	1
25	91	1
115	115	5
10	11	3
56	56	6
43	43	8
124	124	4
15	25	1
1	3	1
132	132	5
114	115	5
121	121	2
86	87	1
102	102	5
4	4	6
100	101	2
80	80	5
82	82	4
20	115	2
12	13	2
19	19	3
23	24	2
67	69	1
85	85	2
117	117	12
98	98	6
47	73	3
44	44	6
18	20	3
45	48	2
124	125	3
1	2	2
5	5	7
62	70	2
72	72	9
19	20	3
35	35	3
62	62	5
20	20	2
58	59	3
37	37	2
120	120	7
91	91	6
113	113	5
6	7	1
88	88	5
116	120	1
30	30	5
81	81	5
68	68	2
120	121	1
94	95	1
102	103	3
49	49	2
28	29	2
99	121	2
118	119	4
32	32	11
3	3	2
18	18	2
60	60	5
87	87	6
26	31	2
0	0	2
117	118	1
75	75	14
84	84	4
56	83	2
101	101	2
103	134	3
52	53	1
15	31	3
92	92	6
112	113	1
63	63	2
108	109	3
54	61	3
50	96	2
2	2	1
9	9	2
8	11	2
67	68	1
115	116	4
103	103	3
1	15	1
105	105	4
119	119	1
118	118	2
27	28	4
106	132	6
86	86	3
122	122	1
13	17	1
133	134	2
103	104	1
76	76	2
59	59	5
52	52	3
67	70	1
77	78	1
131	131	2
129	129	5
85	86	3
15	32	1
90	90	3
79	80	2
135	135	1
12	14	1
113	124	1
89	92	2
17	22	1
17	17	1
3	4	2
36	36	2
65	65	3
109	109	7
30	34	1
108	108	5
101	102	2
11	11	4
77	77	1
90	91	1
73	73	1
79	79	3
17	25	1
84	87	3
133	133	1
80	85	1
22	22	3
82	84	1
130	132	1
96	96	2
91	93	1
31	31	2
106	106	2
107	124	1
10	10	2
53	61	1
134	135	1
65	68	2
98	99	1
116	117	1
90	93	1
100	100	2
126	127	2
49	58	1
24	24	8
37	38	1
112	133	1
22	23	1
95	96	2
76	80	1
95	95	1
69	69	2
99	102	1
129	132	1
68	110	1
18	94	2
112	112	3
68	69	3
48	48	2
116	118	1
5	13	1
28	28	3
123	123	1
97	98	1
75	94	1
127	127	1
53	60	2
32	33	3
11	70	1
55	61	1
105	126	2
54	55	1
17	21	1
61	95	2
58	58	1
19	25	1
75	88	1
1	12	1
122	123	1
68	85	1
116	119	1
35	36	1
71	72	2
107	108	1
70	73	1
104	105	1
105	108	1
108	125	1
23	23	3
44	49	1
106	122	1
1	1	1
51	51	1
74	75	1
97	116	1
115	117	2
45	46	1
101	124	1
95	97	1
83	86	1
117	119	1
