103	103	7
27	27	4
4	4	5
83	83	13
127	127	1
58	58	4
110	120	5
6	12	3
121	121	5
125	130	5
91	92	3
94	94	6
90	90	5
74	120	4
49	50	2
123	123	6
99	99	2
2	2	6
44	45	3
107	134	3
75	75	5
0	21	3
89	133	3
126	126	10
49	56	5
19	19	3
5	6	3
76	76	1
34	34	7
66	68	5
96	96	2
12	13	8
7	7	3
44	44	8
37	37	1
36	36	8
106	108	2
22	61	5
57	60	5
16	16	6
20	20	2
44	65	1
68	69	4
2	8	3
69	72	2
102	102	4
12	12	10
52	80	5
59	59	2
50	77	2
28	28	1
64	64	6
29	29	8
14	14	3
18	18	6
67	67	6
110	117	1
57	57	5
66	67	4
43	43	3
84	84	1
101	101	3
22	60	1
5	5	3
104	104	4
77	77	4
0	35	4
10	11	2
61	61	14
85	86	2
82	82	3
23	53	3
70	70	6
109	124	2
9	11	2
103	104	4
82	87	7
83	121	1
62	63	2
54	54	4
105	129	1
87	87	2
74	75	2
56	57	1
1	1	8
6	7	2
80	80	9
106	118	4
32	34	2
130	132	3
79	92	1
1	22	5
122	122	3
118	118	5
107	113	1
2	4	1
108	112	1
132	133	1
52	52	5
68	68	5
13	15	1
67	68	9
24	61	4
44	67	3
52	65	3
52	55	2
95	95	4
25	25	11
109	110	2
70	71	4
130	130	3
115	115	3
15	18	1
125	125	1
112	112	5
45	84	5
6	6	1
23	23	2
7	16	2
128	134	6
97	97	4
3	4	4
58	59	2
132	132	5
118	120	3
24	24	7
134	134	5
84	104	1
62	62	3
60	61	3
102	103	1
86	87	2
96	97	1
106	114	2
1	56	2
93	94	1
91	123	1
33	34	2
119	120	4
86	86	6
38	38	5
120	120	1
106	134	2
90	105	3
91	91	1
73	103	1
107	120	1
76	91	3
65	65	1
118	119	2
47	48	4
4	32	2
105	106	1
22	28	1
129	133	1
26	26	4
110	110	2
11	11	2
124	131	3
88	88	2
50	50	4
77	78	1
111	111	2
29	101	2
16	17	1
9	9	1
116	132	1
76	104	1
108	108	1
100	100	1
89	89	3
83	85	1
124	125	1
125	131	1
93	93	1
112	114	1
35	64	2
55	55	1
115	116	2
110	116	1
120	121	5
24	104	2
98	99	1
110	111	2
60	60	1
117	117	1
99	101	1
37	42	1
114	120	2
1	37	1
28	29	2
54	60	1
56	56	1
30	54	1
82	92	2
127	128	1
56	59	1
79	79	2
92	92	1
15	16	2
21	25	3
24	25	3
52	54	1
115	120	1
44	50	2
47	85	1
42	43	2
77	91	1
22	22	1
36	37	2
22	24	2
73	73	1
32	32	1
124	124	2
15	15	1
3	3	2
15	32	1
74	74	1
112	134	1
31	31	1
13	20	1
50	65	1
128	129	1
23	24	1
17	17	2
72	73	1
69	70	1
113	113	2
1	16	1
97	98	1
98	98	1
45	45	1
124	128	1
3	67	1
4	39	1
131	131	1
