46	46	6
81	81	12
56	56	12
38	38	18
70	70	13
65	65	12
44	44	16
83	83	12
76	77	11
70	79	4
84	84	19
75	78	1
101	101	16
39	39	7
40	40	12
68	68	22
43	43	5
49	49	10
62	63	13
23	23	8
86	86	18
97	97	6
73	74	4
102	102	2
100	100	16
41	41	13
62	62	13
60	60	16
43	70	3
91	91	6
90	91	6
58	58	8
67	67	21
51	51	6
36	37	4
71	71	8
53	53	8
69	70	2
96	96	10
79	80	6
29	29	5
49	50	8
45	45	3
78	78	17
27	27	8
76	78	10
89	89	28
77	77	7
64	64	20
69	69	7
23	25	2
59	59	12
84	85	1
71	73	5
86	87	7
53	54	2
76	76	16
92	92	9
72	73	4
31	31	11
32	32	12
30	33	6
99	99	5
26	38	3
85	86	6
35	91	5
25	25	10
75	75	10
24	24	2
48	54	2
42	42	8
64	69	4
25	90	9
82	84	6
47	51	1
57	71	4
87	87	10
66	66	16
79	79	12
32	33	5
38	50	1
98	98	7
51	99	4
73	73	10
37	37	12
82	83	3
57	58	5
64	65	3
74	74	22
35	35	4
67	68	4
58	60	3
88	88	20
26	32	2
52	55	3
55	56	1
78	79	6
33	33	11
25	26	5
80	80	11
94	95	4
93	95	2
55	55	9
47	47	11
26	45	2
63	63	8
48	48	4
100	101	4
72	72	10
38	39	3
93	93	10
68	100	1
61	62	1
96	97	6
91	92	3
89	96	4
24	25	1
70	71	6
80	81	1
79	89	2
30	30	2
52	52	11
25	27	3
66	67	4
61	66	1
50	51	3
60	61	4
57	59	1
26	26	5
63	100	1
50	50	4
34	34	5
65	66	2
26	27	1
35	37	1
54	54	3
86	89	1
81	82	3
30	32	2
68	76	1
27	81	1
72	75	1
48	50	4
95	95	5
64	71	5
91	99	2
62	88	6
63	67	1
39	68	2
66	68	1
42	70	1
29	81	1
69	79	1
48	49	1
22	24	1
39	66	2
57	57	6
67	70	2
37	38	1
33	34	1
40	75	3
48	53	1
43	45	1
28	28	3
79	86	1
71	101	1
90	90	3
71	72	1
94	94	2
92	93	2
83	84	3
75	77	1
27	28	1
40	99	2
67	69	1
69	100	1
82	82	1
46	48	2
85	85	1
87	88	1
60	62	2
99	101	1
63	64	1
54	55	1
42	43	2
62	71	1
62	69	1
41	75	1
41	73	1
52	56	1
77	79	1
46	47	1
