83	84	4
114	115	1
7	7	9
124	125	16
94	94	6
47	47	10
80	80	13
23	24	8
109	109	9
83	83	12
18	19	6
107	108	1
118	119	5
11	44	4
105	105	15
12	12	8
90	90	11
58	58	14
102	102	10
119	120	4
111	111	10
75	103	6
65	65	11
14	14	7
4	4	15
55	55	3
3	3	21
120	120	32
87	87	9
117	117	10
115	115	16
125	125	21
91	91	23
71	71	42
52	52	15
25	25	7
33	33	11
87	88	9
106	106	11
43	43	7
112	113	3
13	14	4
48	48	8
15	15	11
39	39	13
108	108	9
53	95	6
95	96	2
74	74	9
83	105	3
128	129	4
38	38	5
62	62	13
38	40	2
85	85	15
86	86	16
49	49	23
93	93	13
73	73	8
31	31	8
123	123	25
79	80	8
81	82	3
64	64	5
92	92	3
75	75	14
43	45	3
18	18	9
131	132	4
63	63	11
13	13	18
75	77	15
110	110	17
42	43	3
125	126	3
42	49	7
14	15	10
61	61	9
97	97	13
75	76	6
79	87	2
122	123	2
16	16	12
55	73	1
80	81	5
38	39	9
119	119	6
42	50	1
95	95	13
78	78	17
103	103	20
101	101	12
21	21	10
60	60	12
24	24	13
40	40	10
82	88	2
117	118	3
100	100	7
20	24	3
57	57	15
30	30	9
73	74	1
17	40	1
32	38	1
113	114	3
79	79	5
9	10	1
84	102	2
77	77	12
13	15	1
131	131	3
15	19	1
5	5	15
68	68	13
10	10	9
121	121	4
98	98	13
54	54	12
132	132	11
8	9	1
126	126	6
127	127	4
17	17	9
121	122	3
26	26	16
105	106	8
78	107	2
59	59	7
112	112	4
45	45	12
78	81	1
122	122	8
109	112	1
125	128	5
92	94	5
23	23	4
45	46	2
6	6	15
51	51	8
92	93	9
9	11	4
107	107	19
56	56	12
71	72	4
76	76	17
28	28	16
14	17	1
20	40	4
58	122	2
67	67	7
0	0	7
44	45	5
26	27	3
106	107	6
97	98	7
117	128	1
66	66	9
69	71	3
22	22	5
90	92	1
32	32	10
27	39	3
27	27	10
41	41	5
129	130	2
69	69	29
47	48	4
9	18	1
70	70	6
22	40	1
42	42	7
65	67	2
19	20	5
68	69	5
29	30	6
116	116	5
128	130	8
30	31	3
130	131	2
130	130	8
118	118	16
31	32	4
2	2	5
102	103	6
82	85	2
115	116	2
24	61	7
129	129	12
50	53	4
84	84	3
89	89	3
47	103	2
72	72	14
11	16	3
8	8	3
73	94	3
104	104	6
114	114	11
64	93	5
48	103	1
89	94	2
124	124	10
67	68	6
10	11	5
57	65	1
126	128	7
50	56	2
2	3	5
86	88	2
72	73	5
2	7	1
41	42	4
19	19	2
51	52	6
53	53	10
54	56	6
15	16	4
6	7	3
88	88	7
96	96	9
44	46	2
34	34	2
11	12	8
7	8	2
81	83	3
20	20	3
128	128	5
28	29	2
133	133	3
89	93	4
88	89	1
99	99	9
72	74	3
115	132	1
82	84	2
11	11	5
104	106	1
49	53	1
46	47	5
98	100	1
81	81	8
101	102	3
116	117	4
85	86	3
24	41	1
29	29	2
100	101	3
56	64	2
19	23	2
65	66	3
16	18	2
112	115	2
88	97	1
114	116	3
98	99	2
50	50	4
59	62	3
30	47	1
46	48	2
1	1	8
96	97	3
106	113	1
49	50	3
23	61	2
114	119	4
9	9	6
54	55	5
0	1	6
24	25	8
74	92	2
117	119	1
49	113	4
94	95	2
82	82	3
105	107	2
44	44	6
115	124	1
33	34	5
1	18	1
127	128	2
63	72	2
106	114	2
77	78	1
32	39	2
104	105	1
2	6	2
2	5	6
32	34	3
23	25	1
52	53	2
87	91	2
22	47	4
66	69	4
22	46	1
87	90	1
97	100	2
107	109	3
58	59	7
44	97	1
12	30	4
67	69	4
84	85	5
109	113	1
25	26	1
56	80	1
109	110	1
5	6	1
16	17	2
40	55	1
42	46	1
118	128	2
39	40	1
61	62	4
44	49	1
123	124	2
115	125	2
115	120	1
39	49	2
18	20	2
126	129	2
117	129	1
48	57	2
57	97	2
101	103	1
40	42	2
75	92	2
15	17	1
77	84	2
1	2	1
126	131	3
40	41	2
50	54	1
75	78	1
65	76	1
46	46	5
59	60	1
116	128	2
65	101	1
81	113	1
99	100	1
14	70	1
55	72	2
3	4	1
85	87	3
66	101	2
64	74	1
10	14	1
31	48	2
111	112	2
20	26	2
44	99	1
70	102	1
96	123	2
41	46	1
60	62	1
116	119	1
4	5	2
105	112	1
77	103	1
21	24	1
76	83	3
43	44	1
24	27	3
9	15	1
53	54	1
48	100	1
126	127	1
25	27	1
93	96	1
102	104	1
127	130	1
76	79	1
