153	153	28
22	113	2
93	94	6
23	23	20
129	129	12
1	1	10
24	24	18
77	167	4
7	46	3
181	181	8
57	83	3
121	133	1
48	48	9
2	3	2
48	91	2
93	113	1
10	70	6
17	143	7
19	19	20
78	105	1
172	180	3
77	170	5
67	67	8
31	46	1
3	3	24
5	5	21
153	155	5
30	30	9
17	17	16
116	117	5
152	152	9
127	128	7
117	117	7
156	156	6
149	150	13
108	108	18
70	70	6
107	108	6
133	134	2
101	103	11
78	78	16
123	149	1
158	158	12
23	115	4
173	173	9
168	168	14
128	128	23
118	118	17
154	155	8
57	59	4
146	146	10
74	75	3
167	167	8
15	16	4
133	153	3
111	111	16
43	43	6
147	188	1
31	44	2
39	39	2
2	10	7
154	183	2
116	116	15
150	150	10
169	169	17
176	186	7
178	178	14
145	145	12
120	120	28
18	20	5
47	74	4
19	28	3
58	58	15
40	98	6
26	26	13
94	137	3
63	64	6
146	150	3
0	36	2
68	72	4
27	27	20
40	145	5
167	182	3
184	184	5
132	134	3
55	55	10
177	178	5
177	187	5
71	80	4
154	154	15
25	25	27
61	114	1
25	55	3
47	155	1
148	149	6
90	91	2
97	98	6
23	24	5
31	37	4
163	163	20
81	81	10
77	83	2
5	62	2
143	182	4
28	29	5
47	47	17
162	162	19
179	180	13
27	29	4
37	58	2
42	42	8
18	27	1
100	100	30
60	61	8
121	122	15
81	82	15
150	153	3
148	175	2
134	134	20
92	92	12
4	65	3
96	134	7
14	15	1
190	190	9
76	76	3
123	123	23
38	38	6
96	97	7
127	127	11
126	126	9
13	13	11
24	56	1
111	112	7
159	159	23
149	149	7
26	39	2
66	67	3
84	84	4
86	86	14
29	29	25
127	143	7
60	60	13
71	77	4
125	126	4
98	98	24
137	157	2
84	91	5
142	142	27
161	161	14
105	106	1
94	128	2
18	19	8
53	73	1
5	65	3
138	138	4
89	89	17
139	139	22
37	38	13
53	53	5
110	110	16
60	64	2
20	21	5
85	90	1
25	27	1
65	68	13
26	103	2
44	79	7
187	187	8
166	167	3
77	77	8
85	85	4
159	162	3
186	186	13
60	68	4
120	136	4
160	160	14
54	71	3
44	66	1
31	31	5
75	75	6
170	170	5
171	176	3
129	130	2
135	137	5
130	134	3
101	101	14
19	95	2
137	189	3
48	86	4
179	179	8
84	95	6
119	119	8
110	178	2
76	78	1
67	83	8
122	122	13
92	94	6
40	42	4
188	188	17
56	152	4
160	161	6
52	53	9
162	163	6
13	16	1
25	66	1
5	72	2
130	130	12
10	10	24
131	131	9
1	2	3
79	80	2
123	124	5
28	40	5
20	22	4
18	95	3
29	30	4
47	80	2
22	22	24
114	114	11
93	114	1
56	57	3
43	89	2
138	182	4
19	30	2
146	157	6
166	166	11
74	108	3
115	138	1
71	83	9
149	154	4
111	147	2
28	28	29
117	119	6
175	175	29
91	91	16
87	87	10
6	8	3
141	174	5
27	28	8
93	105	2
108	109	10
161	163	1
93	93	8
48	74	1
4	8	6
152	153	9
163	171	7
72	72	14
26	28	2
53	60	3
115	137	3
68	182	4
94	95	5
151	151	8
6	6	20
11	12	6
179	181	5
146	151	1
93	160	2
133	133	10
189	189	16
99	99	14
17	19	3
36	37	3
99	100	9
74	77	1
74	74	12
104	104	4
148	148	19
87	160	3
29	60	1
6	7	2
18	37	5
136	136	14
58	59	12
132	135	3
71	71	6
66	66	8
12	61	4
118	182	2
126	127	16
85	89	4
175	190	6
91	132	2
102	102	17
118	180	4
6	56	1
167	168	1
9	92	1
73	73	11
165	165	14
4	4	11
127	165	1
23	59	2
129	157	3
54	54	3
46	133	2
154	159	1
182	183	4
132	132	13
78	79	6
47	93	6
118	179	1
44	81	2
95	96	7
67	89	4
164	173	4
101	102	8
178	179	5
26	27	11
128	135	3
55	62	5
26	46	5
143	143	22
19	94	4
136	137	3
18	18	17
67	175	4
178	186	3
34	80	4
153	185	4
73	117	2
45	116	8
115	146	1
147	147	16
118	136	2
121	152	3
124	126	6
46	162	2
12	100	1
68	78	3
11	60	3
61	70	1
54	151	3
20	39	1
17	41	2
46	46	14
147	172	3
59	63	1
115	115	11
122	150	3
157	159	1
146	149	5
8	107	2
183	183	19
122	151	2
180	190	10
5	105	3
113	113	15
177	177	14
7	7	8
56	58	2
163	164	1
109	109	16
112	170	3
71	72	3
0	106	5
13	14	4
9	16	3
122	155	4
16	113	2
56	64	1
40	40	17
12	14	1
23	62	1
28	44	5
118	123	3
91	92	4
36	36	4
64	71	2
169	172	2
71	76	1
178	180	1
15	126	2
111	186	2
117	118	3
47	129	1
180	188	5
176	176	22
104	110	2
54	68	3
131	132	2
167	169	4
79	79	28
114	137	3
16	125	6
97	97	15
44	117	6
110	112	5
188	189	5
145	186	1
16	33	3
58	63	2
92	116	4
87	155	2
63	63	12
169	170	2
5	6	11
56	56	11
151	153	4
113	160	1
12	65	2
68	68	15
164	166	2
129	155	3
140	144	2
45	45	4
112	186	2
42	48	2
157	166	5
78	110	2
73	77	4
172	173	3
188	190	5
106	106	26
135	135	8
105	105	8
45	46	4
33	47	4
10	59	2
171	171	6
11	61	1
101	110	2
56	65	2
37	37	11
57	57	14
173	177	1
114	139	4
94	131	2
80	80	6
71	73	2
172	190	1
47	161	1
15	15	9
68	69	3
174	175	1
84	88	1
44	44	7
129	163	3
26	135	4
18	22	4
155	155	9
108	111	2
96	132	3
54	80	2
42	43	4
22	44	2
115	117	1
53	68	1
15	41	4
22	53	4
174	174	7
151	163	4
28	39	1
137	137	12
155	177	3
125	140	2
18	21	3
147	173	2
39	100	2
168	169	15
173	175	4
26	153	2
159	160	6
44	48	6
79	113	1
86	92	5
43	44	6
185	186	12
178	183	2
109	124	1
124	124	17
6	55	2
12	12	16
61	62	4
41	41	2
14	14	6
123	125	3
60	62	1
122	154	1
171	189	1
95	95	13
109	186	4
126	129	1
136	138	3
85	160	3
41	66	2
116	135	2
94	129	7
131	187	4
178	181	2
103	103	2
104	105	10
20	20	7
106	107	11
64	70	4
32	34	1
15	111	5
65	71	1
180	180	3
9	10	10
101	139	1
1	3	3
187	188	2
139	153	2
39	40	7
9	9	1
87	95	1
133	145	2
170	180	2
142	144	6
44	47	2
10	45	6
68	81	1
182	182	2
11	45	4
11	11	6
65	70	4
80	81	3
41	113	4
134	135	4
91	118	1
171	185	2
166	174	2
61	61	7
90	127	3
89	90	5
130	150	4
121	121	5
30	31	5
32	38	2
102	103	2
164	164	13
77	108	1
30	46	2
76	112	4
12	16	2
181	189	7
33	33	5
27	161	1
53	87	3
96	96	15
22	48	5
172	188	1
107	107	8
62	83	1
118	132	3
95	133	3
139	182	1
7	12	4
42	152	4
11	111	1
22	23	5
4	10	3
86	111	3
92	117	5
141	141	7
61	63	4
133	135	1
142	143	3
21	21	12
144	144	10
134	136	7
144	175	1
56	68	1
15	125	2
94	97	2
108	119	3
68	82	5
44	45	3
148	168	4
19	142	3
115	116	1
126	128	2
29	31	6
59	59	4
179	187	1
122	149	4
83	83	8
146	166	1
164	176	1
12	45	3
150	151	6
120	123	8
140	140	3
28	35	3
117	126	2
146	187	2
172	176	1
42	98	1
43	46	2
34	34	8
117	142	4
45	161	2
110	140	3
39	105	2
145	166	2
107	127	4
33	35	2
17	18	4
64	64	1
95	100	4
63	68	5
41	42	2
106	129	1
185	185	4
6	25	4
29	36	1
157	160	3
62	62	12
139	140	3
122	123	3
86	152	4
126	134	1
170	188	3
70	71	6
130	189	1
7	112	4
32	45	3
113	176	1
17	40	5
94	126	4
39	68	1
108	159	1
41	57	2
35	43	6
19	138	3
146	154	2
111	125	3
26	34	1
89	92	2
95	130	4
135	162	1
32	32	1
83	92	3
54	72	4
76	83	2
7	77	1
90	109	2
115	122	1
46	90	2
153	159	1
79	111	2
35	35	4
123	144	2
161	172	2
4	9	1
61	67	2
136	157	3
15	103	1
172	184	3
172	172	4
130	131	9
146	183	6
147	164	3
168	185	7
41	43	1
52	52	3
28	47	1
172	187	1
82	82	5
72	73	1
47	57	5
18	96	5
139	142	5
43	65	1
142	154	2
2	2	10
112	112	5
15	55	3
60	66	1
104	107	4
60	113	1
57	65	6
93	95	1
88	146	3
138	154	1
146	147	7
62	66	1
138	139	1
18	97	1
161	162	2
142	152	3
86	100	1
8	8	7
158	168	1
25	53	3
166	185	1
72	80	4
85	149	1
5	63	3
60	114	2
97	130	3
19	20	1
70	80	1
4	57	2
21	22	3
114	133	1
146	174	2
85	122	2
5	7	3
108	110	1
125	125	9
42	73	3
20	48	3
23	54	1
70	72	3
11	23	2
4	182	7
41	64	2
175	176	2
14	38	1
79	129	1
15	20	3
44	46	1
3	11	2
171	190	1
86	87	3
70	117	3
157	157	11
43	66	1
148	152	3
53	64	1
7	105	2
27	43	2
96	100	3
78	106	3
111	177	1
42	93	2
79	95	1
88	89	4
1	66	1
38	39	1
146	153	4
166	170	3
49	72	3
149	156	1
44	82	3
34	35	2
32	48	1
1	12	1
152	185	1
123	150	1
112	161	7
109	110	5
17	142	1
116	134	1
20	40	2
94	94	8
68	117	1
55	61	2
186	187	2
47	48	3
125	178	4
22	95	4
2	4	2
53	74	1
90	107	2
114	115	2
160	170	1
93	116	1
113	159	1
96	124	3
41	91	1
29	34	1
49	49	1
14	19	1
28	32	2
166	179	8
76	77	2
120	147	3
74	90	1
55	56	4
156	177	2
106	186	1
109	113	2
155	160	2
74	156	2
128	139	2
111	174	3
28	45	2
162	171	1
72	84	1
170	189	3
144	145	2
157	158	1
20	27	1
146	148	1
22	26	1
82	84	2
60	81	3
13	106	4
63	65	1
156	169	1
151	152	5
3	13	1
85	86	3
45	79	1
171	177	1
170	179	1
17	28	2
86	91	2
7	8	6
154	184	3
100	107	1
180	181	8
150	156	2
181	183	3
32	35	4
78	128	2
53	54	2
159	185	1
2	104	3
31	36	1
93	99	1
31	33	2
115	118	1
166	169	1
131	156	4
27	47	1
112	177	3
12	17	4
16	16	5
8	106	2
4	5	1
156	160	2
153	154	2
27	132	1
88	127	2
10	72	1
164	165	1
9	57	1
45	80	2
43	83	1
30	47	2
7	10	1
102	114	1
133	136	6
43	69	1
99	130	1
109	130	2
128	131	1
147	148	3
121	138	1
43	77	3
19	21	2
4	58	2
37	45	3
33	48	1
65	66	3
177	185	1
128	145	2
109	114	3
3	7	3
93	112	1
114	140	1
172	185	2
112	155	1
94	106	1
116	118	1
33	34	1
110	130	1
129	156	2
86	119	3
113	134	1
30	35	2
158	160	6
43	67	1
120	122	1
97	110	1
96	98	3
114	120	2
42	89	2
156	157	3
100	101	2
153	163	4
105	108	1
45	95	1
76	118	2
93	111	2
118	129	2
79	85	1
24	44	2
82	83	3
166	168	3
54	63	1
93	96	1
78	87	1
77	109	2
173	174	2
86	102	1
17	39	1
35	39	2
114	118	2
189	190	2
31	32	1
98	101	2
41	83	1
90	90	3
41	95	1
101	138	1
29	37	2
86	136	3
145	149	1
124	128	1
13	41	2
49	53	1
62	63	1
126	154	2
47	162	2
115	123	1
118	184	1
101	157	1
147	152	1
134	147	1
169	188	1
122	124	1
55	152	1
162	185	1
119	135	2
0	12	1
180	182	1
75	167	1
113	157	2
22	68	4
95	178	1
74	118	1
13	42	2
4	62	1
148	188	2
90	162	1
114	145	1
145	147	1
183	189	1
0	1	2
57	62	2
84	100	1
140	141	3
142	145	2
102	168	1
100	110	1
31	34	2
96	133	2
93	141	2
0	88	2
86	122	1
37	107	1
33	37	2
84	85	1
76	170	1
128	129	2
27	162	1
58	61	1
71	81	1
102	135	1
42	74	1
118	125	2
35	36	2
85	119	1
187	190	1
130	181	1
46	59	1
139	149	1
94	134	1
93	136	1
55	57	1
69	71	2
31	153	1
108	120	1
28	36	1
148	154	1
94	160	1
7	66	1
71	174	1
26	159	1
121	146	3
125	146	1
38	151	1
11	14	2
17	111	1
57	63	2
125	187	1
123	138	1
25	26	2
53	72	1
95	99	2
121	142	1
115	149	1
112	187	1
0	18	1
65	72	1
56	62	2
32	46	1
90	108	1
59	61	1
155	165	1
1	107	2
104	106	2
162	184	1
100	103	1
62	64	1
120	159	1
17	130	1
158	161	1
184	185	1
160	171	1
14	110	1
119	123	1
88	88	1
37	86	1
74	76	1
75	81	1
178	187	1
33	36	1
125	133	1
176	177	2
91	117	1
130	137	1
152	155	1
41	78	1
66	71	1
29	44	1
48	49	1
111	160	1
119	120	1
31	77	3
182	184	1
140	173	1
24	161	1
68	83	1
99	143	1
14	41	1
172	177	1
1	10	2
44	77	1
79	115	1
63	81	1
71	79	1
148	150	1
41	71	1
76	161	1
44	74	1
155	186	1
99	186	1
98	128	1
10	14	1
114	147	1
65	67	1
26	44	1
59	62	1
101	169	1
140	149	1
155	156	1
129	145	1
14	113	1
