52	52	8
59	59	3
60	60	12
4	5	1
39	59	1
47	50	3
39	41	3
15	24	1
20	21	5
42	46	6
9	17	3
49	62	4
15	23	3
19	25	5
3	14	3
18	18	10
0	23	3
36	39	2
40	52	2
4	17	6
21	21	1
45	62	1
14	14	3
0	0	3
47	61	3
35	35	2
37	39	2
20	20	2
32	32	4
50	62	3
43	45	1
4	18	4
45	53	1
35	45	1
7	8	1
14	25	3
5	19	4
58	59	4
5	16	1
40	46	3
15	35	1
39	50	3
5	8	1
3	4	4
18	20	2
52	54	6
57	57	5
55	56	3
43	43	5
45	54	2
3	19	4
46	46	2
1	7	2
40	49	2
33	33	2
52	62	2
31	35	2
45	47	2
57	59	2
36	41	1
46	55	3
40	54	5
5	24	2
42	44	1
3	8	2
25	25	4
48	48	8
22	25	2
50	61	1
44	44	4
32	44	4
16	16	3
8	8	3
35	37	3
5	6	5
43	44	2
51	55	4
39	39	1
6	9	1
7	11	1
4	12	6
56	56	5
54	60	1
3	3	3
1	1	3
11	16	2
18	33	1
34	37	1
12	17	1
34	50	2
13	19	2
52	56	3
31	39	1
58	58	6
46	60	1
30	39	1
51	51	5
31	31	2
7	9	2
47	47	3
9	10	2
1	5	2
50	54	2
0	1	6
40	40	3
36	36	2
56	59	5
20	25	1
8	17	1
13	17	1
45	59	1
41	44	2
35	42	2
15	22	4
9	9	3
33	44	4
32	38	3
36	42	2
10	10	5
37	42	1
4	13	1
11	18	2
48	49	3
48	60	1
50	52	2
59	60	2
55	58	5
36	53	1
34	38	3
50	51	1
40	55	1
34	34	1
54	54	3
42	54	1
17	17	6
33	39	3
20	30	2
25	33	2
3	6	1
22	23	1
9	18	1
0	2	1
57	60	2
6	10	1
22	22	4
39	49	1
32	39	2
19	21	2
14	15	1
55	59	2
37	40	1
0	10	2
17	22	1
13	23	1
45	48	1
50	50	1
42	49	1
48	59	3
40	41	2
47	60	1
33	57	2
6	11	3
4	4	1
41	41	1
55	55	2
3	13	2
5	7	1
49	49	2
57	58	2
30	30	2
34	36	1
0	5	2
55	57	1
22	26	1
33	34	1
62	62	1
37	47	1
4	14	1
9	12	1
34	49	1
21	25	1
11	11	1
43	48	1
15	21	1
47	48	2
18	39	1
2	2	1
44	58	1
15	17	1
46	47	1
49	59	1
18	38	1
51	53	1
45	45	1
49	53	1
10	12	3
49	51	1
6	17	2
6	6	2
33	43	1
1	2	1
38	49	1
1	18	1
3	15	1
0	18	1
41	43	1
40	59	1
35	47	1
44	45	2
19	19	1
23	23	1
15	15	2
54	61	2
38	39	1
36	49	1
58	60	1
56	57	1
49	60	1
50	60	1
8	21	1
