97	97	7
115	115	14
129	129	16
137	137	18
31	31	5
123	123	15
11	91	1
8	8	9
130	131	4
117	117	19
83	83	13
109	109	17
119	119	17
102	110	4
133	134	2
6	6	14
103	103	13
80	116	5
24	24	4
91	94	1
101	101	13
90	90	11
125	126	5
80	81	9
89	91	4
15	15	8
110	110	10
13	13	15
104	105	5
4	5	8
84	84	8
77	78	7
113	113	7
111	111	6
138	138	13
29	29	16
28	28	18
35	37	5
116	116	9
3	4	4
24	25	4
91	91	7
110	111	11
78	78	18
85	85	4
32	32	23
5	7	3
3	108	13
9	9	12
88	117	1
71	71	6
108	108	6
25	26	4
122	122	11
97	98	8
82	82	7
83	93	6
5	5	7
18	18	6
72	72	14
10	11	1
98	98	17
3	6	3
22	22	9
125	125	9
30	30	16
135	136	2
79	79	6
136	136	22
88	88	7
127	127	10
12	13	8
23	23	16
74	74	15
108	110	3
19	20	2
75	119	2
34	35	10
86	86	7
83	84	2
108	109	14
37	37	7
13	14	15
76	76	13
27	28	11
123	124	12
77	77	3
11	11	10
73	73	3
2	2	12
27	27	14
105	105	12
26	26	7
93	93	12
103	104	4
96	96	11
118	119	6
2	3	8
75	120	1
21	21	5
99	99	11
87	117	1
111	112	4
20	20	6
34	34	19
112	112	4
82	85	3
105	109	3
15	19	2
81	82	7
5	10	4
75	128	3
25	25	14
0	0	7
95	95	11
118	118	8
79	118	2
14	14	8
14	27	4
113	115	4
134	135	9
29	31	3
0	16	6
7	7	4
120	120	7
106	106	5
94	94	4
102	103	1
9	10	2
90	91	2
4	4	10
112	113	15
11	14	3
7	106	6
74	122	5
132	133	2
16	16	8
135	135	15
22	23	4
73	130	2
100	111	2
35	35	8
26	37	1
140	140	5
76	123	3
11	12	9
81	115	1
35	67	1
17	17	3
92	95	3
33	33	8
36	36	5
11	94	6
122	123	1
106	107	2
92	92	3
12	12	8
103	110	3
9	91	1
121	121	4
113	114	7
99	115	4
79	80	3
124	125	4
87	87	8
133	133	9
98	99	3
36	37	2
77	116	1
3	3	7
10	10	4
107	107	5
100	116	2
138	139	1
137	138	4
81	118	2
116	117	3
134	134	2
10	12	2
128	128	9
4	6	2
126	126	12
29	95	2
139	139	13
104	104	11
114	114	8
127	129	3
15	18	3
95	96	1
18	24	1
124	124	5
75	75	5
128	130	5
21	22	4
31	32	2
14	96	2
6	9	2
120	122	4
91	93	4
19	25	1
8	10	1
85	88	2
19	19	4
81	117	2
20	37	8
120	121	2
77	118	6
83	92	3
18	25	1
80	80	4
130	130	7
108	112	1
13	27	2
81	90	3
131	132	2
73	74	1
1	1	2
22	24	2
29	30	8
86	88	1
102	102	6
87	88	1
99	100	3
77	81	4
79	101	1
117	119	1
18	19	2
115	117	2
79	105	2
132	132	2
74	75	4
89	89	2
124	128	2
6	7	1
7	8	2
78	118	2
126	127	1
4	108	2
85	86	2
131	131	5
100	114	1
17	18	1
139	140	1
23	24	2
81	119	1
5	6	2
1	5	1
79	103	1
110	112	1
72	73	2
26	27	3
37	38	3
91	92	1
101	118	1
105	107	3
75	76	2
81	89	2
118	120	1
106	112	1
92	93	2
4	16	2
83	85	1
96	97	2
2	4	1
111	113	1
82	93	1
79	81	1
7	107	1
81	81	1
5	15	1
