78	80	2
151	151	19
76	97	5
138	138	17
147	147	20
20	24	3
26	26	12
149	149	8
162	163	11
169	169	8
157	157	21
79	89	5
21	64	2
96	96	6
11	11	3
124	169	4
57	57	3
28	42	2
152	152	20
169	170	10
126	126	18
130	130	16
139	139	5
123	124	3
54	54	7
42	43	3
135	135	9
146	148	1
43	43	15
56	56	7
131	131	4
142	155	3
106	106	12
129	129	27
27	27	6
88	88	8
87	87	9
125	126	2
1	1	6
138	139	4
45	52	9
141	141	12
161	161	2
99	101	1
101	156	3
5	5	9
98	98	5
64	130	3
81	94	5
92	95	4
86	86	7
13	13	19
3	121	2
123	123	11
166	166	13
83	151	3
140	140	4
42	42	12
143	143	5
70	71	3
58	77	1
160	160	12
66	66	3
139	140	7
2	3	10
125	153	2
110	111	6
153	158	2
121	122	11
7	7	7
53	54	3
118	119	6
19	25	3
105	106	4
84	84	3
109	116	5
125	125	13
3	3	17
66	69	1
4	4	8
75	75	8
13	22	1
105	105	6
17	17	12
68	69	9
136	136	6
137	137	12
135	136	8
98	99	7
123	125	3
44	44	14
14	14	12
133	134	10
1	124	2
28	28	5
41	41	19
170	170	15
152	170	1
52	53	5
167	168	6
15	15	17
17	18	2
78	78	9
136	137	3
117	117	10
142	143	2
88	149	1
23	24	1
76	79	2
144	144	14
127	128	6
132	132	13
8	12	3
34	165	1
34	34	8
24	24	7
49	52	1
10	25	5
66	96	2
155	156	4
110	110	8
18	63	1
9	154	3
18	18	12
41	43	2
46	46	8
168	168	8
68	68	7
76	76	17
153	153	6
37	37	19
97	97	13
47	47	19
67	67	12
69	70	3
7	20	4
79	91	2
96	97	5
36	37	7
88	89	2
16	16	8
120	120	4
153	155	5
72	73	3
128	129	4
82	147	6
156	156	12
104	104	6
35	35	9
164	166	5
20	20	12
70	70	8
14	15	16
137	150	1
6	13	4
8	132	1
33	33	5
86	88	3
111	111	14
53	56	4
83	86	5
117	118	6
15	16	3
102	102	4
57	62	1
52	52	12
14	107	4
38	38	14
45	45	11
115	115	3
22	22	14
122	122	9
19	19	8
167	167	7
2	157	1
45	46	4
0	4	2
21	21	12
154	154	4
124	153	3
65	66	4
7	11	2
108	108	6
66	134	2
133	136	3
65	65	10
73	73	8
49	49	6
119	120	1
87	88	3
106	150	3
114	114	12
87	89	1
142	142	10
64	64	3
40	40	15
74	74	4
86	92	1
94	146	3
109	158	1
25	42	3
91	91	12
99	99	16
125	127	1
109	109	8
20	21	3
22	23	4
70	109	3
109	114	2
141	142	5
81	126	1
93	93	12
118	118	11
109	159	2
47	49	2
45	54	4
20	22	2
4	124	1
101	101	6
50	50	3
167	170	6
101	102	4
71	72	4
79	79	7
114	115	4
51	52	1
5	7	3
24	53	4
92	92	6
4	5	4
89	91	1
151	157	3
2	2	11
164	165	4
86	108	2
67	105	1
119	119	11
45	55	2
9	9	14
124	170	2
145	148	3
44	45	4
78	79	4
91	92	3
90	91	3
138	143	2
71	80	2
73	84	2
99	104	4
76	146	1
80	106	4
159	160	2
13	66	2
112	112	11
80	80	3
111	141	2
81	81	5
139	144	8
109	110	1
165	167	1
124	124	4
154	155	2
123	138	3
18	27	5
128	128	15
101	154	1
10	10	4
26	164	2
68	98	2
51	51	5
130	133	2
79	85	1
19	23	3
112	113	1
129	151	2
150	150	9
137	138	2
72	105	5
39	39	7
159	162	2
109	163	2
148	148	5
0	0	2
164	164	3
127	127	5
145	145	7
46	47	4
83	83	6
95	95	1
76	77	3
103	103	8
151	156	3
18	62	2
155	155	10
47	135	1
136	150	2
84	155	6
53	53	7
107	107	10
122	123	2
163	165	2
64	78	1
85	85	3
17	149	2
158	158	19
38	58	3
45	50	1
41	57	1
114	117	1
17	20	6
35	37	2
6	7	2
143	144	8
145	147	1
112	144	3
77	77	3
54	57	4
90	90	10
71	105	3
16	28	1
36	36	5
25	25	9
95	97	3
36	41	2
114	142	3
71	71	8
86	117	1
77	96	4
128	133	2
56	57	3
106	107	6
89	89	8
127	153	3
11	13	2
80	81	1
162	162	4
35	36	1
126	127	2
68	70	2
81	95	2
107	167	1
144	145	4
79	81	1
149	150	7
36	144	2
6	6	6
159	159	3
39	40	1
130	134	2
112	143	1
4	169	2
93	146	2
86	87	4
34	36	4
53	55	1
124	125	1
113	114	2
100	100	7
70	105	1
116	162	1
94	94	6
69	71	1
8	10	2
163	163	5
129	134	2
118	163	2
39	155	3
158	161	1
65	131	1
98	105	2
70	96	3
157	159	2
80	105	2
19	20	3
86	91	5
10	154	2
69	105	3
89	90	1
134	134	6
84	85	2
4	122	4
150	151	5
58	62	1
55	55	2
168	169	2
120	121	3
100	101	2
116	118	1
153	159	3
112	114	4
47	48	2
66	67	1
106	149	3
72	72	3
12	64	2
1	2	4
41	149	1
1	57	3
65	79	1
129	155	1
64	66	1
151	167	3
7	10	1
148	149	2
113	116	2
162	164	1
118	120	1
22	24	1
130	132	2
33	34	4
38	40	3
88	137	2
133	133	4
39	56	3
69	149	1
64	128	2
131	132	1
140	143	2
165	165	4
160	162	1
132	133	4
92	93	2
115	126	3
77	78	2
67	69	2
141	143	2
136	151	1
73	87	3
120	122	1
66	130	2
108	109	2
95	146	1
97	149	2
18	19	2
107	164	3
27	28	1
5	10	1
84	87	1
62	62	3
49	50	1
5	13	2
129	130	2
3	166	1
111	125	2
69	69	2
34	35	1
102	103	2
76	98	2
119	164	1
12	13	1
48	48	1
74	75	1
70	81	1
34	168	1
12	12	2
90	119	2
50	51	2
161	162	3
65	133	1
21	22	2
140	142	1
87	90	1
133	140	1
75	76	2
24	25	3
107	151	1
141	145	1
135	138	2
82	82	1
121	121	2
114	118	1
111	112	1
99	100	1
3	126	1
73	74	1
139	145	1
165	166	1
79	80	1
125	129	1
73	97	1
46	49	2
117	119	3
42	137	1
162	168	1
37	89	1
9	10	2
156	157	1
8	8	2
133	137	2
157	158	1
67	68	2
129	135	3
107	108	1
113	113	1
134	135	1
117	162	1
83	145	1
61	68	1
21	53	1
110	143	1
104	105	1
114	127	1
163	164	1
102	104	1
93	97	1
110	144	1
109	151	1
10	132	1
15	28	1
