144	144	10
66	66	11
7	7	13
172	172	4
141	141	6
120	120	11
153	153	5
100	100	2
111	111	5
157	157	9
5	146	5
189	189	5
146	146	6
176	177	1
30	30	11
52	52	4
95	95	6
130	131	4
41	41	1
180	180	3
18	52	3
119	123	2
162	162	4
145	145	10
102	102	9
133	133	9
150	150	8
129	130	2
11	11	9
67	106	3
149	149	7
21	22	5
130	149	8
106	106	16
152	152	10
71	139	2
176	178	7
37	42	1
152	153	2
137	137	1
100	154	4
15	16	1
80	80	8
174	174	9
172	173	7
21	21	5
189	190	2
132	152	5
75	76	3
154	154	2
97	97	1
82	82	21
110	174	2
181	181	9
156	156	5
173	174	6
169	169	11
93	94	3
70	70	4
38	39	2
185	185	9
182	183	3
85	86	1
124	124	13
164	164	5
98	99	4
116	116	7
6	7	3
171	171	20
0	5	4
62	62	7
54	55	4
42	42	8
165	165	4
169	170	3
124	125	4
155	155	9
173	173	9
139	139	7
91	91	4
60	60	6
10	12	6
127	128	4
52	53	4
125	125	1
80	81	1
121	121	4
44	44	3
54	54	10
118	118	5
28	46	2
48	48	4
19	19	2
126	126	1
6	6	4
72	72	7
100	114	1
175	175	4
65	66	2
47	47	5
107	112	2
1	1	9
89	99	3
37	37	3
108	108	13
94	94	6
74	75	2
71	71	3
17	17	9
163	174	2
39	39	4
26	26	11
37	38	3
138	138	4
176	176	7
155	156	3
102	103	2
171	173	6
184	185	4
16	17	2
82	83	9
85	85	4
136	136	2
35	35	6
110	113	2
25	74	3
151	189	4
59	60	3
93	93	9
161	162	4
27	46	3
36	42	2
148	148	9
134	134	3
67	68	3
123	127	2
14	14	6
96	96	4
178	180	3
136	137	7
185	186	1
19	20	2
53	54	2
46	46	10
160	160	3
77	77	4
73	73	3
3	3	4
183	183	4
38	40	3
154	155	1
86	86	4
57	77	4
187	188	2
97	98	3
56	62	2
92	92	1
3	76	2
96	97	7
9	26	2
47	56	2
16	16	1
33	33	4
177	186	3
122	123	1
179	180	2
12	12	2
182	182	2
161	161	5
63	64	1
107	107	8
6	48	4
159	160	5
56	57	2
177	177	5
83	83	2
87	87	2
99	99	8
77	78	6
104	105	6
131	131	6
58	107	2
151	152	2
151	151	4
18	18	6
35	36	1
88	88	6
48	68	2
113	113	4
90	90	4
104	104	3
24	24	5
114	119	3
26	27	8
160	163	4
118	119	1
122	122	5
61	61	4
60	112	1
90	91	2
31	31	3
170	171	1
147	147	3
22	24	2
112	112	3
13	13	5
58	58	6
75	75	6
186	186	12
90	140	5
0	0	4
36	37	5
137	138	3
166	166	1
24	26	2
28	43	2
7	146	1
17	18	3
25	39	1
105	105	13
124	188	1
5	63	3
57	57	5
7	8	1
181	184	1
71	72	4
94	95	4
109	174	3
26	47	1
23	23	7
135	135	4
124	158	5
71	141	1
101	101	4
156	158	2
111	112	1
18	19	3
145	149	1
70	148	2
98	140	1
96	98	2
110	111	3
56	113	1
129	129	4
19	83	1
121	122	3
32	33	4
21	36	1
165	177	3
76	77	1
35	37	1
129	149	4
103	103	3
122	166	3
152	183	2
151	158	1
142	143	1
139	140	2
4	37	1
5	5	3
28	28	3
38	38	4
22	22	5
53	53	2
167	167	1
20	20	2
25	109	2
21	47	2
15	15	6
67	67	7
95	130	1
28	31	2
8	8	2
76	114	1
84	84	2
28	44	3
27	27	2
184	184	2
2	2	6
91	92	3
10	45	2
143	143	3
81	83	1
71	74	1
187	187	4
119	119	2
56	79	1
110	110	3
45	45	7
116	117	2
3	75	1
0	38	1
122	137	1
12	13	3
64	106	1
142	142	4
153	158	2
20	24	1
5	7	1
55	56	1
17	44	3
160	161	2
5	47	1
14	20	1
76	76	3
159	181	3
89	117	1
165	166	1
147	149	2
106	107	1
78	78	2
4	5	1
79	79	1
81	82	1
60	64	1
164	174	1
78	79	1
12	14	2
87	91	1
140	141	1
55	55	1
43	43	5
130	130	1
146	147	1
57	68	1
147	148	1
105	106	1
16	44	1
72	73	1
26	41	1
114	118	1
115	115	2
166	167	2
130	148	1
7	47	1
28	42	1
53	56	1
141	147	1
40	41	2
17	84	1
175	176	1
18	26	1
190	190	1
74	120	1
128	128	1
170	170	1
150	153	1
11	14	1
144	171	1
164	166	1
153	154	1
10	58	1
