115	125	1
133	133	1
151	151	2
43	43	12
71	84	2
87	87	5
40	40	2
36	36	2
108	124	1
111	111	5
42	42	5
150	150	4
82	101	1
11	11	6
144	144	3
69	69	5
54	54	5
74	74	4
71	71	3
68	68	6
20	21	2
150	154	3
84	86	2
106	106	2
82	82	3
74	107	2
30	44	1
117	117	6
7	7	4
70	70	6
6	6	4
56	57	3
109	109	5
124	125	4
98	147	2
83	83	7
32	32	3
123	125	2
67	67	4
18	18	9
125	128	2
131	131	3
113	113	1
81	92	1
33	33	4
99	99	4
149	149	3
132	132	2
109	113	4
57	57	5
119	129	4
46	47	2
115	115	1
46	46	8
120	121	4
122	122	6
129	129	3
17	17	5
39	40	8
146	146	3
81	81	7
85	85	5
96	96	1
139	139	3
107	107	2
75	76	3
4	5	6
152	152	6
50	58	3
49	49	1
127	127	2
88	89	1
3	3	8
116	116	1
10	11	7
20	20	2
6	7	3
26	45	2
93	93	2
52	52	3
123	124	4
137	137	4
121	121	6
44	44	8
35	37	2
12	12	1
30	31	1
102	127	5
117	118	5
25	29	3
42	44	1
38	38	3
101	102	4
116	117	8
100	138	3
98	98	7
19	54	2
31	36	1
44	45	1
47	47	2
100	100	2
80	80	8
73	75	3
7	9	1
55	55	1
116	122	2
37	37	2
9	15	4
77	77	1
94	94	3
73	74	3
130	131	7
105	105	6
128	128	5
74	132	2
49	84	1
119	123	3
46	55	3
33	34	2
66	66	2
123	123	2
136	136	1
19	19	4
119	119	2
48	48	5
141	141	4
23	23	2
98	148	1
15	28	3
45	57	2
8	8	1
105	125	2
78	78	6
38	41	2
103	107	1
134	136	3
7	17	2
67	68	5
99	100	3
145	145	2
40	41	4
140	144	1
26	26	1
149	150	1
34	35	2
114	114	1
148	149	1
109	110	2
103	106	2
116	123	4
22	22	2
62	79	1
96	120	1
31	31	4
132	133	3
150	151	1
14	14	1
54	55	1
72	72	2
21	21	1
111	112	1
56	56	1
34	34	1
146	148	1
28	29	1
45	45	1
30	30	1
14	15	2
96	97	1
128	129	2
50	57	3
29	29	2
25	26	1
77	82	1
63	63	5
69	70	1
71	85	1
102	103	2
50	84	1
95	95	1
136	138	1
4	4	1
86	86	1
135	135	1
76	79	2
127	128	1
97	121	1
71	136	1
44	46	2
46	54	1
50	50	1
120	120	1
42	57	1
24	24	1
16	16	1
