138	139	5
65	67	3
2	5	1
109	109	3
10	10	2
81	81	4
171	171	7
154	156	2
28	28	1
145	145	1
8	9	14
157	157	7
1	1	1
37	38	4
14	34	1
83	86	3
143	143	8
111	111	8
159	168	5
89	89	3
132	132	11
176	176	7
154	160	2
165	166	2
164	164	3
95	96	2
57	57	8
84	85	7
1	14	2
171	172	5
122	122	15
60	60	6
24	24	1
102	132	3
127	128	5
151	151	1
0	1	5
158	162	4
8	11	4
38	38	2
138	168	3
51	51	2
166	174	1
104	104	2
14	14	7
137	139	2
52	55	1
175	175	3
32	32	3
125	125	1
132	133	2
147	147	5
30	31	3
129	129	9
71	71	3
160	160	1
116	116	2
118	121	1
87	87	5
146	146	4
96	96	1
79	79	10
156	156	5
107	107	9
177	179	1
88	89	5
105	106	1
54	54	4
89	90	2
13	13	5
108	108	1
17	20	3
141	141	7
163	163	8
167	171	4
8	8	4
12	12	4
81	98	2
64	93	1
16	16	1
104	107	1
36	36	2
130	130	6
177	177	4
134	134	3
100	102	2
67	67	3
166	166	9
9	10	7
90	114	3
68	71	4
128	128	1
56	56	2
45	45	8
32	33	1
105	105	3
3	3	5
124	124	4
20	20	1
30	32	2
44	67	5
65	65	10
161	162	3
63	81	2
174	174	4
77	77	4
121	121	3
180	180	3
113	114	2
74	74	5
62	62	2
168	168	5
107	133	1
133	133	6
97	129	1
68	68	5
76	76	3
54	171	3
39	40	3
107	108	1
144	144	7
12	13	1
173	173	7
15	15	4
161	161	2
95	119	1
138	138	7
117	118	1
157	162	2
152	152	10
151	157	2
118	118	4
11	12	2
80	108	1
158	159	3
30	30	2
31	31	2
85	85	2
22	36	3
164	165	2
149	149	6
34	34	5
137	143	5
93	96	3
121	132	4
126	126	2
150	162	2
104	105	4
43	43	5
139	139	3
80	80	4
73	75	1
61	62	8
19	19	2
0	0	6
140	140	1
95	95	5
178	178	3
90	90	4
143	147	1
11	11	6
98	98	3
18	18	11
137	137	3
112	112	7
118	119	1
42	42	5
4	5	4
53	53	2
93	111	3
168	169	2
169	169	2
44	44	3
72	72	3
103	103	2
178	179	2
155	156	2
115	116	1
1	98	5
17	17	3
136	136	4
172	173	1
115	115	7
66	68	1
55	174	3
162	162	2
179	179	2
133	138	7
75	178	2
39	43	3
154	154	2
100	100	3
98	100	2
124	125	1
166	173	3
57	174	1
153	162	2
61	61	2
75	75	5
73	178	1
7	11	2
55	55	2
135	135	1
113	115	4
120	120	2
70	71	4
102	121	5
86	87	2
78	78	3
113	113	2
160	161	2
172	172	3
127	147	3
158	160	3
148	148	1
52	52	2
35	36	1
159	159	2
93	94	2
1	16	1
33	35	1
7	7	1
131	131	3
126	162	1
12	20	1
170	170	2
5	6	2
29	30	2
33	34	2
51	52	1
163	165	2
85	87	1
94	94	1
104	109	2
62	95	2
94	111	1
4	4	3
94	96	1
153	154	2
155	155	2
35	39	1
151	158	1
85	86	1
86	89	2
91	131	2
13	14	1
110	111	2
38	39	1
150	163	1
37	37	1
123	123	2
50	50	1
29	29	3
71	73	1
28	30	2
100	101	1
152	157	2
91	91	1
25	26	1
79	176	1
100	125	1
95	111	1
2	2	1
18	34	1
25	25	2
102	103	1
93	93	1
82	97	1
153	153	1
130	131	1
6	9	2
27	28	1
114	114	1
107	131	1
150	150	2
26	26	2
73	74	1
175	176	1
101	101	2
63	94	1
27	27	1
54	60	1
127	148	1
102	102	2
59	60	1
122	124	1
