34	34	17
100	100	20
4	4	37
167	168	5
151	151	21
4	5	6
142	142	26
35	36	2
44	44	19
66	66	6
76	86	2
109	109	9
84	84	25
52	52	32
46	48	2
128	128	40
98	98	12
117	117	19
101	119	4
151	154	6
154	154	7
129	129	18
120	123	6
41	41	19
145	159	5
28	152	4
86	87	15
18	18	18
124	127	3
69	70	5
7	7	21
115	115	16
81	83	7
116	116	11
126	153	8
83	86	3
90	90	13
13	18	7
11	11	10
120	147	3
12	14	9
119	119	3
105	105	29
48	49	5
131	131	15
136	137	8
126	126	10
107	108	5
81	81	11
95	95	15
105	136	8
97	99	4
20	21	14
7	82	3
69	71	3
56	56	10
54	54	19
23	40	3
97	97	17
150	150	22
100	115	2
135	141	1
155	155	21
43	44	10
132	132	4
163	163	12
39	40	1
6	145	2
82	82	13
5	46	1
88	89	16
144	144	16
4	161	2
145	145	9
16	16	19
122	125	2
127	128	5
67	69	8
135	155	3
25	27	2
166	166	16
15	24	2
122	146	1
0	1	8
51	51	6
122	165	1
93	93	11
65	65	10
71	71	15
53	53	11
125	125	11
157	157	18
108	109	13
120	141	3
0	2	14
66	67	1
170	170	9
25	36	7
104	114	6
140	140	10
14	16	5
121	121	31
75	75	19
117	122	5
27	27	13
96	96	15
124	124	17
88	88	14
1	1	5
62	63	12
36	36	12
123	124	16
12	48	1
159	159	13
43	43	21
5	5	10
73	73	12
23	23	10
106	106	12
33	33	16
114	115	12
142	144	3
4	6	5
33	110	5
135	135	24
50	51	7
102	102	12
111	111	14
89	89	11
54	55	4
95	99	4
85	87	2
50	50	10
99	99	12
80	84	1
135	138	5
39	51	5
58	58	7
21	21	8
0	0	6
11	12	4
20	22	2
63	64	7
145	146	8
45	109	5
145	162	6
70	71	11
34	110	1
116	153	7
164	164	12
169	169	13
106	109	2
118	118	7
13	13	14
15	78	5
126	161	5
3	3	14
102	103	5
22	22	22
161	161	14
84	87	4
83	83	19
138	138	11
24	24	16
158	158	16
87	87	6
167	167	12
10	13	2
157	158	6
130	168	2
54	56	6
95	96	10
37	37	22
24	151	5
148	164	6
67	67	13
46	46	7
143	144	10
132	134	3
64	64	8
65	69	2
95	160	2
113	113	21
48	48	23
103	103	5
133	136	4
68	68	26
133	155	3
81	82	5
106	107	6
114	114	9
39	39	13
90	103	6
2	2	13
96	99	2
120	120	25
90	91	12
0	19	2
107	107	23
148	165	2
49	49	12
168	168	5
89	90	12
112	112	21
136	136	6
45	46	5
86	86	9
55	55	18
160	161	5
74	74	14
25	25	14
108	108	9
156	156	8
84	88	2
146	147	1
8	8	8
67	109	6
72	72	4
2	4	4
134	135	6
104	104	5
17	17	7
11	98	1
38	38	11
6	7	9
72	90	2
16	17	8
123	126	2
7	8	7
76	76	13
111	112	10
139	139	33
162	162	7
47	47	13
68	69	3
101	102	3
110	110	13
85	85	7
100	101	7
23	24	2
122	123	2
57	64	4
161	162	2
118	152	3
131	161	2
20	20	18
10	10	12
15	19	7
133	133	11
77	77	8
57	71	2
14	14	11
45	45	4
141	141	11
42	42	11
94	95	4
47	56	5
69	69	4
150	151	8
107	110	3
15	16	4
80	112	1
6	6	6
96	120	2
63	63	9
12	20	5
50	55	1
163	164	3
15	15	11
71	109	2
137	137	16
73	83	5
18	19	4
143	156	7
97	98	4
159	161	4
5	47	2
91	105	5
38	39	3
9	9	7
34	149	2
65	70	6
115	117	4
109	110	4
132	136	5
2	5	4
13	46	2
110	128	3
16	55	3
128	130	5
145	149	6
79	79	15
8	10	4
65	66	5
70	109	2
13	17	1
57	61	1
80	86	1
36	37	3
5	6	5
162	163	4
165	165	6
22	23	14
15	42	1
122	122	7
1	2	1
74	98	2
44	45	1
78	86	4
153	153	4
139	140	2
112	113	2
124	125	2
91	91	6
6	8	3
58	63	1
148	148	6
35	35	21
101	103	2
123	123	4
165	166	1
101	101	4
130	131	4
93	94	4
162	164	3
42	44	4
36	44	5
54	94	1
152	152	8
57	106	1
74	86	2
108	122	4
164	165	8
117	118	6
41	108	5
159	160	2
19	22	3
119	123	6
169	170	2
40	41	2
92	92	3
25	26	7
153	154	8
146	148	1
34	35	11
80	80	12
129	130	1
38	40	1
64	69	1
10	11	7
110	111	3
75	76	4
154	155	5
149	149	4
74	99	2
103	119	5
104	116	2
19	79	1
131	136	4
142	143	4
12	12	4
117	149	2
143	143	6
14	46	3
78	78	3
68	70	1
45	49	1
117	137	3
11	125	4
1	45	8
10	20	1
144	145	7
73	74	2
72	73	3
28	28	4
6	45	1
70	70	16
134	134	4
16	18	2
81	86	2
156	157	3
128	129	4
147	149	2
0	21	2
78	79	2
160	160	5
15	54	1
42	52	2
47	49	12
92	93	6
133	135	1
2	47	5
57	69	3
155	156	6
103	104	1
85	105	2
113	114	4
100	103	5
10	12	3
137	138	2
15	21	3
6	49	2
135	136	3
152	153	3
76	87	4
76	79	1
76	82	1
132	133	4
68	91	1
21	99	2
147	148	8
90	133	2
139	149	1
158	159	5
121	145	1
42	157	4
135	163	3
92	100	3
140	141	3
91	93	1
94	94	6
83	84	2
130	130	5
79	80	7
104	136	1
65	68	2
3	43	2
6	144	3
98	99	6
161	163	4
50	54	1
76	77	6
20	25	3
87	89	2
149	163	2
138	139	4
120	129	3
96	156	2
16	44	1
137	142	5
123	128	2
105	116	5
113	128	3
40	40	2
64	70	1
146	146	10
69	109	3
5	48	3
85	86	1
55	58	2
122	143	1
33	35	2
73	124	2
112	114	2
14	15	5
125	126	1
91	92	2
148	149	3
43	157	2
160	165	1
115	116	2
133	154	2
33	34	1
104	106	3
47	74	2
38	64	3
17	44	1
144	161	2
1	44	3
106	111	2
34	135	1
56	57	3
46	47	3
98	119	1
137	141	2
96	157	3
118	119	1
86	88	3
105	133	5
3	4	2
14	23	2
114	116	3
26	26	3
147	147	6
127	127	6
125	147	2
92	98	1
57	105	1
146	165	1
113	127	2
5	7	2
84	91	3
81	87	5
41	42	2
144	150	2
34	118	2
134	162	2
91	134	3
129	138	1
96	97	6
119	129	1
3	10	1
119	141	1
116	117	2
20	23	2
2	44	1
141	143	1
17	28	1
9	12	2
89	99	2
156	158	1
86	130	1
6	21	2
40	151	1
119	136	1
79	81	1
35	56	2
147	163	1
106	130	1
124	166	2
76	81	2
141	142	2
64	113	3
126	127	6
0	9	1
51	52	2
13	43	1
9	10	1
10	21	1
13	75	1
121	122	2
37	38	2
127	129	5
57	57	1
3	11	1
54	91	1
92	161	1
84	90	1
70	90	1
7	140	4
137	157	1
135	156	1
7	12	1
48	58	1
64	66	2
53	57	1
94	101	2
135	149	1
105	106	3
90	106	1
143	145	1
105	111	1
74	75	4
11	21	1
69	91	1
76	100	1
137	139	1
51	95	1
44	73	1
77	83	1
77	79	1
139	144	4
91	99	1
129	145	1
136	140	1
167	170	1
127	144	1
80	106	1
84	85	1
33	44	1
21	24	1
90	94	1
13	14	2
17	18	1
17	20	2
57	75	2
101	114	1
126	154	1
38	66	1
34	115	2
139	142	1
72	91	1
19	81	1
11	14	1
134	167	1
105	114	1
17	121	1
57	72	2
7	43	1
