76	76	4
48	48	8
9	9	3
118	118	7
14	14	6
124	124	3
95	95	6
87	88	1
103	103	7
146	146	10
85	85	7
83	83	7
135	136	3
75	76	5
29	30	3
88	146	3
122	122	4
137	137	6
51	54	2
92	93	5
3	18	1
106	127	1
90	90	2
110	110	7
113	135	2
13	17	1
39	39	9
119	119	18
98	98	5
85	86	9
16	17	4
77	77	4
41	41	2
142	142	3
31	31	9
47	47	2
124	125	6
113	114	6
105	106	2
30	30	2
69	69	6
112	114	2
146	147	4
133	133	7
50	50	4
11	11	4
27	28	5
103	104	2
15	15	6
136	136	6
6	6	9
24	24	4
62	66	2
13	13	6
130	130	4
28	30	2
40	40	2
115	115	3
102	147	1
97	97	4
43	44	2
5	6	5
34	34	6
76	77	5
10	10	2
136	137	4
18	19	5
28	28	1
139	139	4
127	127	9
82	83	1
84	84	5
43	43	10
67	67	2
131	131	6
70	70	5
57	57	3
27	27	3
112	112	5
67	102	3
68	68	12
8	10	2
138	138	2
71	78	3
86	86	4
128	128	5
112	113	1
53	53	13
96	96	12
94	94	1
106	106	4
125	125	3
16	16	8
73	74	4
18	18	11
42	42	4
78	107	1
152	153	4
141	141	7
132	132	7
9	10	5
153	153	4
147	147	3
41	42	1
107	107	18
33	33	5
21	21	7
147	148	6
25	25	4
34	109	3
109	110	1
110	124	1
143	144	1
3	3	2
63	63	7
23	23	15
72	73	5
110	113	2
143	143	3
99	99	12
81	143	3
120	121	1
49	55	4
81	81	7
75	80	1
135	135	2
93	94	4
75	75	6
29	37	1
38	38	1
131	133	2
37	37	5
20	20	4
96	98	2
19	19	6
100	100	2
53	54	3
154	154	3
37	39	2
130	134	2
35	35	5
4	4	4
82	142	2
113	113	11
49	71	2
149	149	3
3	4	2
140	142	2
38	39	2
7	7	4
9	17	2
140	140	2
111	111	11
110	111	2
9	11	2
36	38	2
95	97	3
144	145	5
117	117	2
46	46	8
28	29	4
66	66	3
121	121	7
56	62	2
36	36	5
105	139	4
122	124	4
107	137	1
11	12	3
62	62	5
93	93	1
50	54	3
74	74	2
51	51	1
26	26	5
47	150	3
109	128	5
80	80	2
78	78	3
43	46	2
79	79	5
12	12	4
24	25	1
63	123	2
111	112	2
61	127	1
102	102	1
54	54	2
17	17	6
120	120	4
97	98	1
42	43	2
22	22	3
49	85	2
75	105	1
116	116	1
55	55	6
146	148	4
145	145	3
104	104	3
51	52	1
144	144	1
44	45	1
134	134	4
21	22	1
43	154	1
105	105	2
114	114	2
145	146	2
44	44	3
32	34	3
151	152	1
134	135	3
144	147	1
107	131	1
5	5	2
137	138	1
107	109	1
93	95	2
48	86	2
97	101	3
150	150	1
71	72	2
62	63	2
138	140	1
110	144	1
87	145	3
26	27	2
129	129	1
3	7	2
20	21	2
145	147	1
29	29	3
12	15	2
106	107	2
81	82	3
151	151	1
99	100	1
112	149	1
33	34	2
6	105	2
88	88	1
32	32	1
139	141	2
94	95	2
122	133	1
129	130	2
62	64	1
46	47	1
72	72	2
26	29	2
77	78	1
49	49	1
109	109	2
126	126	2
87	87	2
102	148	1
129	132	2
115	116	1
22	23	1
78	79	1
142	145	1
108	108	1
123	123	2
67	69	1
138	141	1
87	89	1
40	84	2
34	35	1
63	67	1
121	122	1
94	98	1
92	92	2
119	120	1
149	150	2
98	101	1
66	68	1
17	18	1
10	154	1
82	82	1
88	93	2
96	97	1
106	137	1
105	127	1
73	107	1
53	88	1
123	125	2
27	30	1
45	45	1
115	121	1
135	139	1
83	86	1
126	127	1
68	69	1
88	100	1
64	64	1
