22	22	22
19	19	11
199	199	14
40	40	18
11	11	19
102	103	3
27	27	18
107	107	6
205	205	10
172	180	3
102	240	2
38	39	5
15	15	7
77	78	7
23	23	13
86	86	11
109	113	1
75	75	9
190	190	7
12	12	5
109	114	1
66	93	1
158	177	6
113	113	6
119	119	20
161	178	3
214	214	8
157	157	3
156	161	1
101	234	2
56	71	2
238	247	4
65	68	1
30	30	19
16	16	12
162	162	12
215	215	14
3	3	7
88	88	12
187	188	9
152	152	7
177	177	15
60	60	6
37	38	4
161	161	12
151	156	5
58	64	8
33	33	11
165	167	3
69	69	8
38	38	9
89	89	7
29	29	4
201	244	6
209	221	7
185	185	7
198	198	7
175	184	3
70	70	14
52	67	1
9	10	3
98	99	7
31	31	13
71	71	11
151	151	11
181	182	3
6	16	2
197	231	1
58	59	4
206	206	9
117	118	2
192	192	6
200	220	1
227	227	30
178	179	9
157	170	4
164	164	9
78	78	3
43	44	6
212	236	3
56	113	3
191	191	12
177	188	1
110	110	16
211	224	5
84	84	3
25	233	4
219	219	8
5	5	12
176	176	13
191	192	4
184	203	1
54	70	6
186	186	9
47	47	15
1	38	2
168	168	7
64	64	7
32	153	3
42	42	4
99	99	8
44	44	7
196	196	3
66	66	6
98	113	3
82	93	3
45	45	9
182	193	5
50	50	12
161	162	3
203	203	3
234	235	2
185	198	1
89	90	7
2	32	2
157	169	3
30	31	4
209	209	9
222	223	3
160	160	16
236	247	2
59	59	6
179	179	9
248	248	10
216	216	7
238	245	9
112	112	19
109	109	5
64	65	10
189	190	4
109	112	1
71	102	2
25	52	1
24	24	7
223	223	6
87	87	4
85	85	4
34	34	17
223	231	2
50	60	3
41	41	12
184	185	4
51	51	15
194	196	7
239	239	7
42	43	4
61	61	2
23	41	2
83	84	4
24	41	2
10	12	12
172	172	13
220	229	3
21	144	3
241	247	2
32	174	3
229	229	8
68	109	2
48	48	4
25	25	17
218	218	12
237	237	2
234	234	11
99	105	2
245	246	3
49	97	1
146	147	4
220	220	5
176	181	2
18	18	4
182	182	9
35	35	4
34	59	1
194	194	16
185	186	6
208	211	3
175	176	3
42	204	1
193	193	6
14	14	7
245	245	5
110	116	1
74	84	5
220	221	2
163	163	11
238	240	2
7	7	9
212	219	1
2	7	6
180	180	15
211	225	2
178	180	1
9	32	6
200	200	10
236	236	6
68	70	9
110	113	1
189	189	5
168	177	3
32	154	3
225	225	3
207	207	10
86	87	6
109	118	3
174	174	8
238	239	4
204	244	2
108	108	8
192	193	2
46	46	8
107	119	6
10	10	4
56	60	5
145	145	2
97	98	1
218	231	3
4	75	3
215	218	2
84	94	6
209	224	7
149	150	2
215	216	2
111	111	5
118	118	5
10	13	4
28	31	5
210	225	2
26	26	2
187	187	11
158	193	5
185	206	4
235	242	4
170	170	14
33	59	2
2	78	2
100	146	1
14	15	9
92	93	3
173	173	12
6	6	6
32	32	7
176	184	2
158	181	1
154	154	5
83	83	2
190	195	2
221	223	2
106	106	7
202	202	4
238	238	4
210	223	4
16	17	1
175	175	4
43	205	3
88	89	3
158	158	2
233	233	3
176	180	4
21	21	8
38	41	4
147	147	1
37	37	11
20	20	13
68	68	8
92	92	7
199	242	8
94	116	3
74	97	2
62	62	3
208	208	8
43	43	16
171	177	2
203	229	3
90	91	2
181	181	13
219	222	3
168	169	3
69	109	2
47	48	3
197	199	3
74	74	11
17	17	8
37	39	4
94	94	9
2	2	8
93	93	6
26	32	6
101	101	13
243	244	3
107	120	3
2	34	1
4	5	3
79	79	4
188	188	13
232	232	13
204	204	6
71	73	2
47	94	3
208	209	2
47	54	3
150	150	9
244	244	15
44	62	3
7	27	1
183	224	5
167	167	5
31	32	3
98	117	1
65	65	5
178	197	2
58	61	4
157	174	4
227	230	3
81	81	1
76	77	4
241	242	2
28	28	9
239	244	1
156	179	4
231	231	10
178	178	3
201	201	14
117	117	4
155	155	8
235	236	3
8	39	3
33	58	5
8	8	11
54	54	2
213	248	5
7	36	1
150	163	3
44	48	3
213	219	7
232	234	1
18	19	2
90	90	3
54	59	1
52	52	5
45	46	2
12	20	1
222	222	5
192	194	2
156	156	16
21	23	1
91	91	4
210	224	4
33	34	1
11	12	1
111	112	3
176	208	5
212	212	10
55	55	6
95	95	9
41	45	2
196	206	3
56	68	1
17	19	4
213	235	1
230	230	11
105	106	2
146	146	2
74	75	5
174	178	1
103	104	1
201	202	8
239	240	4
55	62	2
4	4	5
230	231	7
72	72	4
9	9	2
49	49	10
169	192	1
216	220	2
217	217	7
218	221	2
34	35	3
155	156	3
77	77	5
36	36	12
50	51	3
49	92	3
166	173	3
117	119	1
200	201	2
173	174	4
69	70	5
159	171	10
41	43	2
221	221	4
82	82	5
48	49	4
115	115	4
99	100	3
70	71	2
152	153	2
114	114	5
202	211	1
212	227	2
176	203	2
63	63	2
203	204	5
150	165	3
157	158	4
158	214	2
27	31	2
97	97	4
224	225	2
60	61	3
105	107	4
27	40	5
23	34	2
247	247	4
210	211	1
201	229	1
228	228	1
224	224	5
228	236	2
73	73	3
42	44	2
58	58	1
171	171	3
42	228	1
220	228	1
169	185	4
233	234	3
113	114	3
37	68	1
61	63	3
40	178	3
49	50	4
172	174	2
168	178	3
96	96	2
201	211	5
107	108	2
232	233	8
171	176	1
160	164	2
188	231	2
81	115	1
102	102	4
65	109	1
103	106	3
174	175	1
185	203	2
20	21	2
71	77	2
39	45	3
17	18	2
243	243	2
172	173	3
207	208	1
57	57	4
219	220	1
39	39	7
236	237	3
103	103	8
183	183	4
13	13	2
226	226	2
37	97	1
115	150	2
67	67	1
63	64	3
169	171	1
158	182	1
65	82	2
52	54	2
216	231	2
240	240	1
29	30	3
241	241	3
157	177	1
227	228	2
210	219	1
169	169	3
57	79	2
240	248	3
56	58	1
196	199	2
107	111	2
84	93	1
151	153	3
69	71	4
56	56	1
233	243	2
105	105	1
49	79	2
25	32	3
102	239	2
184	184	1
70	72	1
171	172	1
198	210	1
152	162	2
41	230	2
1	40	3
151	152	1
100	238	2
37	93	2
90	151	1
116	116	5
151	164	1
59	60	2
198	207	3
213	224	1
176	202	1
205	206	1
65	66	2
158	230	1
244	245	3
202	204	1
16	37	1
196	240	1
197	198	1
66	80	1
29	46	1
56	173	2
21	48	1
47	107	1
55	56	3
28	29	3
1	1	2
58	63	2
173	178	1
185	197	1
165	165	2
108	111	1
76	78	3
183	186	4
76	85	1
212	246	1
202	203	2
186	187	2
164	165	2
72	86	2
54	55	2
41	42	2
76	76	2
104	105	3
84	113	3
202	219	1
3	78	1
74	108	1
12	15	4
5	6	2
195	196	1
50	107	2
9	20	1
12	16	1
49	98	2
179	180	1
187	195	1
12	14	2
91	92	1
53	53	2
198	200	2
199	221	1
246	246	1
9	25	1
57	58	2
39	40	1
0	0	1
246	247	1
160	179	1
165	168	2
190	192	2
162	164	1
216	217	1
104	106	2
63	65	1
228	229	1
14	17	1
100	100	3
11	145	1
106	121	1
55	76	1
214	215	1
54	56	1
80	89	1
209	210	1
17	30	2
104	104	2
35	36	1
50	56	1
98	106	1
110	111	1
230	235	2
118	119	2
202	227	2
42	51	1
109	115	1
75	76	1
170	178	1
100	109	2
7	24	1
3	77	3
80	94	2
79	92	2
80	82	1
151	230	1
19	20	1
50	120	1
40	229	1
27	36	1
208	222	1
