77	77	6
181	181	10
8	8	6
211	212	2
230	231	2
96	96	10
70	70	4
170	170	4
20	63	5
160	160	9
146	146	1
183	183	3
166	166	6
181	207	2
26	26	5
24	24	1
49	50	1
156	156	12
179	179	6
241	241	5
189	189	5
109	109	3
195	196	4
202	202	4
165	166	5
112	112	5
157	157	10
71	75	10
158	158	3
159	159	3
44	44	10
199	200	4
64	64	9
183	184	7
216	218	3
238	239	1
84	85	6
52	52	2
212	212	1
59	59	4
203	203	3
183	205	1
41	43	5
184	184	1
101	102	3
65	76	2
205	205	3
175	175	6
215	225	1
76	77	4
8	45	2
199	199	6
55	57	3
152	160	1
68	68	3
82	82	3
237	237	2
94	94	9
204	204	4
179	214	2
244	244	3
43	43	9
213	213	2
22	22	9
120	120	4
34	34	1
178	178	3
11	11	5
52	53	3
4	4	7
237	241	2
214	236	1
97	98	1
196	196	6
208	209	2
214	214	2
97	97	2
28	28	5
178	192	3
145	145	5
239	239	6
17	28	3
194	195	13
248	248	4
78	78	6
114	114	6
233	234	2
30	66	4
57	57	5
190	225	3
107	108	1
23	93	4
38	38	3
46	46	11
63	67	3
172	173	7
192	192	5
17	17	8
65	65	3
27	27	7
163	166	2
107	107	7
79	86	5
21	22	3
21	21	6
48	49	4
216	231	1
117	117	6
72	83	3
155	155	7
201	201	12
207	207	1
72	89	2
40	43	2
87	88	5
232	233	6
4	35	2
222	222	2
221	230	2
217	217	3
209	209	7
218	218	2
211	211	4
88	88	1
95	95	6
219	219	5
164	166	2
245	245	5
111	112	3
173	173	5
244	245	1
74	74	4
45	45	4
32	32	11
186	209	1
36	36	2
19	30	2
66	67	3
216	216	3
62	63	3
234	234	6
1	52	4
91	91	2
236	241	2
221	222	9
225	225	3
182	183	4
103	103	4
154	154	4
82	85	3
1	44	2
14	14	3
34	50	4
68	92	1
212	216	2
227	227	4
151	160	1
180	207	1
231	231	4
19	65	3
113	113	1
77	79	2
63	63	4
29	30	4
110	110	3
39	39	2
197	197	5
220	232	1
2	2	1
99	100	1
21	63	2
173	174	1
77	86	1
196	199	1
22	23	3
6	6	3
96	97	2
8	44	3
179	180	4
113	114	1
4	5	2
151	151	3
100	106	1
9	9	5
55	55	1
190	190	5
35	35	2
175	177	1
58	58	3
42	42	7
222	227	3
167	167	6
56	56	10
22	27	2
176	196	1
90	90	3
33	33	1
119	119	5
7	43	5
7	30	2
164	165	3
54	54	4
41	41	9
152	152	1
151	167	1
50	66	1
8	43	1
15	16	2
7	42	1
7	7	4
39	40	2
50	50	2
240	240	2
5	35	1
224	224	1
25	25	5
240	241	1
202	203	1
150	162	2
11	16	1
236	236	5
169	169	5
61	63	3
187	208	3
215	218	2
228	228	2
229	229	3
223	227	1
17	35	1
1	1	4
118	119	3
193	193	5
56	60	2
171	171	2
226	226	2
80	80	4
222	230	4
60	61	1
171	172	3
62	62	5
234	235	2
153	153	4
7	14	1
213	215	4
73	74	4
17	18	1
208	215	5
61	61	4
47	47	2
188	189	4
10	41	2
150	151	2
205	206	2
55	59	4
86	86	1
192	193	2
31	42	1
20	21	3
181	182	6
14	15	1
75	76	2
101	101	1
167	199	1
66	66	2
68	69	1
65	67	1
164	164	2
78	79	2
64	65	1
35	37	2
194	194	2
67	67	2
93	93	1
79	79	1
243	243	2
42	43	1
168	168	3
69	69	2
5	49	2
160	167	6
1	6	2
215	215	2
248	249	1
243	244	1
56	57	2
4	34	2
118	118	4
186	187	1
151	200	1
34	35	3
170	177	2
23	23	4
95	97	1
209	215	2
20	37	1
60	60	4
1	2	2
229	230	1
81	81	1
187	187	2
59	60	2
9	45	1
242	242	2
89	91	1
8	46	2
210	210	2
208	208	2
213	214	1
191	192	1
150	155	1
60	69	1
73	75	1
78	80	1
20	29	1
99	102	1
161	161	1
196	198	3
223	226	1
8	42	2
30	30	1
16	16	1
144	145	1
155	156	3
111	111	1
164	193	1
92	92	1
162	162	2
165	165	1
6	8	2
86	88	2
228	247	1
163	163	1
70	71	1
53	53	1
15	15	1
223	223	1
20	20	2
19	19	1
74	91	1
232	232	1
180	206	1
216	217	1
30	49	2
0	53	1
188	188	3
9	10	1
31	32	1
51	54	2
150	150	2
160	162	1
174	174	2
31	31	1
27	90	1
106	107	1
72	72	1
98	98	1
25	93	1
156	157	1
67	69	1
