50	92	1
97	97	1
108	108	3
109	109	4
143	169	2
52	53	5
2	2	5
40	40	1
13	28	1
100	101	2
19	19	5
46	46	3
27	38	2
13	15	3
168	170	7
72	72	11
101	107	4
74	75	1
126	154	3
41	41	3
5	5	9
76	78	2
90	90	2
52	52	3
54	54	4
147	147	9
3	4	2
35	37	4
100	130	4
158	158	6
71	87	2
72	74	1
142	142	10
112	112	2
8	33	2
144	144	2
23	24	4
98	98	3
98	128	4
55	56	5
69	69	7
48	106	2
66	66	3
111	111	4
124	124	6
108	109	2
133	133	2
148	148	5
105	105	7
154	155	1
163	163	4
62	62	4
98	99	3
102	102	3
22	22	3
4	5	1
33	106	2
101	101	3
120	120	3
3	3	1
125	126	4
43	43	5
153	154	2
113	113	1
124	125	2
17	17	6
105	106	3
7	14	2
27	27	5
140	140	2
33	91	4
143	143	4
109	118	1
5	95	2
1	1	4
132	133	7
67	67	3
35	35	4
84	87	6
18	18	3
142	146	7
157	157	1
139	139	4
99	128	1
83	83	3
11	11	3
56	57	3
95	99	1
42	43	1
123	124	1
91	91	2
156	165	1
63	63	3
159	159	6
147	148	4
75	75	1
44	45	3
145	145	1
169	170	1
156	157	2
4	4	2
169	169	5
139	140	1
11	38	1
79	79	1
162	162	2
49	107	1
53	53	3
25	64	2
129	129	3
61	61	1
134	145	2
10	63	3
26	26	1
1	2	1
80	88	1
48	48	2
66	67	1
39	39	2
12	87	1
135	135	1
156	156	1
128	148	4
122	122	3
6	6	1
161	161	3
133	134	4
168	169	1
127	127	5
36	36	4
98	153	2
91	92	2
4	8	1
8	8	7
138	138	5
114	136	2
21	21	4
10	10	6
87	87	4
132	141	1
112	113	2
73	73	1
13	13	1
150	150	3
96	96	1
72	80	3
99	117	1
12	12	3
83	86	2
140	157	3
20	24	2
2	152	1
117	128	5
124	152	1
45	45	3
99	118	1
86	87	4
7	7	2
10	38	2
122	152	4
56	56	1
5	121	2
164	164	2
25	63	2
131	131	1
141	141	1
2	3	1
130	135	1
119	119	2
13	58	1
149	149	4
160	169	1
6	97	2
126	126	4
154	154	1
38	39	1
136	136	3
89	89	1
141	146	1
95	98	1
47	47	2
142	143	1
22	120	1
86	86	1
102	108	1
80	83	3
135	143	1
137	137	1
49	49	1
142	147	1
140	141	1
114	114	1
17	42	1
117	126	1
115	115	1
149	150	1
15	15	2
80	80	1
37	37	1
108	119	1
123	123	1
167	167	2
4	23	1
39	58	1
137	138	2
128	128	2
13	38	1
99	99	1
26	40	1
115	153	2
132	134	1
71	88	1
23	23	1
125	127	2
95	95	3
51	51	1
121	121	1
41	42	1
103	103	1
100	100	2
64	65	1
150	151	1
14	16	1
33	90	1
51	52	1
146	146	1
66	71	1
69	70	1
71	71	1
116	116	1
0	0	1
