88	88	5
1	1	11
19	19	17
7	17	3
23	23	17
71	72	3
6	6	18
70	70	11
6	7	8
56	56	13
5	32	2
65	65	15
80	81	10
79	79	22
50	50	21
79	80	14
65	66	13
52	52	26
85	85	20
76	77	5
76	76	20
81	81	17
4	5	7
82	82	25
62	62	25
6	12	2
47	47	13
53	53	13
80	80	25
8	9	4
77	77	13
25	25	10
67	67	14
12	12	26
64	64	18
15	81	3
83	83	13
26	26	17
2	2	11
54	56	2
7	7	25
23	64	2
33	33	2
59	59	23
6	50	3
59	61	4
63	63	12
12	17	5
10	10	8
54	54	24
47	62	2
47	48	13
51	51	22
10	12	5
26	27	2
56	57	5
11	12	7
73	73	19
68	68	18
47	50	3
78	80	7
11	31	3
13	26	1
78	78	19
79	81	3
73	74	10
55	55	23
16	16	5
61	61	11
22	22	14
19	28	2
30	31	8
0	1	2
16	19	1
25	75	1
13	65	4
12	23	3
19	20	14
17	17	11
74	86	4
15	16	3
3	3	21
60	60	16
55	56	6
84	84	13
53	69	5
57	57	9
0	0	6
22	23	2
74	74	6
48	49	6
8	8	16
20	20	10
69	72	3
49	50	6
86	86	10
70	75	2
9	10	8
13	13	16
67	68	4
72	73	18
78	79	8
34	34	6
32	32	2
11	11	9
87	87	18
13	16	3
25	76	2
77	82	7
82	83	1
27	27	11
30	30	13
53	54	4
61	62	8
28	28	10
89	89	10
5	6	17
14	74	1
7	9	2
49	49	11
80	87	1
15	15	10
18	18	6
26	77	3
59	60	9
24	24	10
58	58	14
77	83	8
57	58	3
54	55	2
46	46	8
69	74	1
31	31	12
56	86	4
68	69	4
81	85	1
48	48	8
72	76	3
75	76	12
29	29	3
66	66	10
12	22	4
69	69	9
65	78	3
56	88	6
52	54	2
48	51	3
0	2	2
21	21	5
64	65	2
5	9	2
69	70	3
52	53	1
3	4	6
62	63	2
56	89	3
12	33	2
71	71	5
14	14	9
75	75	10
72	72	5
58	59	1
13	22	3
80	82	2
14	66	2
12	13	2
2	3	3
5	7	3
19	21	2
70	71	6
9	9	6
4	18	4
74	87	1
5	5	5
60	61	3
5	8	1
71	81	1
16	66	1
27	66	2
77	78	5
4	4	7
58	61	1
23	67	1
19	27	1
50	51	1
17	26	2
51	52	4
81	82	10
53	56	3
7	34	1
4	20	1
80	83	3
53	55	5
46	47	2
48	59	1
77	84	1
89	90	3
66	67	2
10	49	2
90	90	1
12	25	1
13	25	5
71	74	2
69	75	3
51	53	5
34	64	1
18	19	2
20	21	1
13	14	2
1	2	2
8	17	1
24	64	1
21	23	2
74	84	1
29	30	4
20	24	1
3	18	1
81	87	1
4	27	2
46	48	3
61	83	1
8	25	2
35	35	1
16	33	1
84	85	2
75	85	2
13	17	2
27	29	3
50	52	1
17	33	1
18	32	1
49	58	1
14	16	1
55	69	1
6	10	3
32	81	2
7	50	2
47	63	1
73	84	1
65	83	1
71	75	1
63	64	1
16	17	1
28	29	1
74	75	1
6	33	1
11	16	1
30	69	1
54	69	1
86	88	1
9	12	1
11	54	1
68	71	1
