74	75	4
70	70	4
101	101	9
45	45	4
73	73	19
43	43	8
73	74	6
87	87	18
81	86	11
55	56	5
98	98	4
22	22	6
69	69	10
71	72	1
40	41	4
84	84	8
24	24	4
56	57	3
66	66	5
59	59	9
99	99	6
105	105	11
88	88	15
78	78	8
76	96	1
41	41	13
65	74	3
82	87	3
45	54	2
63	63	7
86	86	4
79	88	4
38	38	14
34	34	7
25	30	6
28	28	12
89	89	9
52	52	13
57	57	14
39	40	4
55	57	6
36	37	2
81	81	6
44	49	6
51	64	6
42	44	5
103	103	19
88	89	6
26	26	5
50	53	7
24	76	2
80	80	7
76	76	8
22	23	8
46	46	7
78	79	4
43	44	2
48	59	3
31	31	13
56	56	6
55	55	8
51	52	7
75	75	9
32	32	15
104	104	10
54	54	12
61	79	2
92	92	9
65	65	14
37	95	8
30	30	10
72	72	8
21	21	7
86	88	6
46	49	1
45	60	1
37	38	6
68	68	5
67	67	7
102	102	11
51	69	2
22	39	2
79	79	1
42	42	3
45	55	2
23	43	2
92	95	2
29	47	8
96	96	5
74	74	7
33	34	3
44	44	12
24	38	5
36	36	2
50	50	7
94	94	5
40	40	5
67	69	11
95	95	2
51	51	13
91	91	6
64	64	6
29	29	8
85	85	4
23	77	1
25	25	5
60	60	8
36	55	2
53	53	9
31	56	6
47	48	4
80	83	3
65	69	3
48	48	3
22	38	3
47	49	1
61	85	1
31	57	1
69	73	2
97	98	2
22	42	2
88	90	2
28	29	4
42	49	1
60	61	5
82	82	4
98	99	3
42	46	5
82	85	5
43	45	1
72	96	5
25	38	2
76	94	1
79	80	2
20	20	3
35	35	6
72	98	2
80	81	6
58	58	4
87	89	2
93	93	2
76	95	2
32	56	3
73	92	1
74	83	2
72	73	2
26	59	2
21	22	5
61	62	3
93	95	2
80	88	2
23	23	3
83	86	2
31	49	3
68	69	3
22	46	2
77	77	1
90	90	1
86	87	2
97	97	1
54	55	2
64	65	2
68	73	1
33	33	3
74	82	1
80	90	1
83	83	1
53	54	2
21	45	1
62	79	1
62	62	2
71	71	2
96	97	2
39	39	3
21	49	2
51	94	2
46	60	1
22	30	3
42	45	2
78	91	1
37	37	1
52	94	1
63	64	1
70	71	2
47	47	1
89	90	4
34	35	3
41	42	2
106	106	1
77	89	1
70	92	1
81	82	1
81	83	1
80	87	1
55	58	1
66	67	1
69	72	1
50	59	1
70	96	1
48	60	2
61	61	2
49	49	1
