121	121	1
21	21	2
31	33	1
112	112	9
90	90	2
30	123	3
48	50	3
94	94	4
117	120	1
5	5	3
67	67	8
88	89	4
47	47	3
119	119	5
137	137	6
18	18	7
110	119	2
60	60	4
96	97	3
55	55	8
41	50	3
91	91	7
38	71	1
34	34	10
14	14	9
27	96	1
127	131	1
54	56	1
16	16	8
115	115	9
28	65	6
23	23	8
131	133	8
31	86	3
12	13	2
0	47	1
114	114	8
49	50	5
57	74	4
54	54	1
20	20	9
40	40	9
3	4	3
65	65	4
10	10	7
37	132	1
124	124	11
140	140	3
86	86	3
59	60	3
129	129	6
57	58	2
50	69	3
88	88	3
108	109	3
113	115	1
135	136	1
72	134	1
34	62	7
69	69	1
33	34	6
130	138	1
115	116	4
128	128	6
101	101	4
65	67	1
21	84	3
68	124	4
60	83	3
28	28	5
17	96	1
109	109	6
105	105	5
30	30	4
133	133	5
130	130	7
53	54	11
110	110	5
76	76	5
118	119	1
79	80	3
0	27	1
25	25	8
97	97	3
29	29	6
82	83	4
99	99	7
111	112	4
137	138	2
3	6	2
33	33	5
16	89	7
139	139	6
87	87	2
123	124	9
15	15	7
109	110	2
8	64	1
128	129	1
56	56	8
110	112	2
130	137	8
122	122	5
58	58	3
23	88	4
135	135	7
80	80	1
131	131	2
17	17	2
27	27	1
26	66	1
8	11	2
24	25	2
67	68	1
29	125	6
103	120	2
102	103	2
93	94	2
1	1	10
111	114	7
107	107	6
62	62	4
32	32	13
24	24	5
136	136	8
25	96	2
102	102	8
36	36	3
4	4	7
22	22	8
82	82	5
48	48	7
108	108	2
31	31	4
74	74	6
103	103	4
89	89	3
129	139	2
61	61	5
50	51	2
3	84	3
131	132	1
90	93	2
42	42	2
95	95	1
38	53	1
73	76	1
64	64	6
19	19	3
41	42	3
34	35	1
15	93	1
117	117	11
118	120	2
50	50	2
29	30	2
43	43	5
69	141	4
101	102	1
96	96	2
26	26	4
140	143	1
132	132	5
60	61	4
116	116	2
78	78	2
131	140	1
143	143	7
136	137	2
110	120	5
113	114	1
117	119	2
71	71	3
134	134	5
80	82	3
125	126	2
138	140	4
8	8	2
39	39	1
68	68	2
117	122	1
76	79	1
98	101	1
61	85	2
97	102	6
38	38	8
108	126	1
51	142	3
35	35	6
30	107	4
92	104	4
141	141	7
118	118	2
71	72	3
48	51	3
10	40	4
32	107	2
6	6	1
40	41	3
145	145	1
126	127	1
135	137	3
84	85	1
105	106	2
46	46	3
125	125	1
113	113	2
138	138	2
127	128	2
52	52	2
100	100	3
48	49	4
1	25	3
87	88	1
120	120	4
33	86	2
140	141	1
92	94	2
135	138	1
103	104	1
106	106	2
38	52	1
127	132	1
41	41	4
55	72	1
17	94	1
31	32	1
123	123	2
69	140	2
9	9	1
138	141	1
7	39	2
39	53	1
107	123	1
69	70	5
49	49	2
74	75	1
114	115	2
35	37	2
40	42	2
51	51	3
11	25	1
25	26	1
92	92	4
16	92	2
70	71	3
57	73	1
12	12	4
26	97	1
78	79	3
111	111	2
77	77	1
60	82	1
86	89	1
16	94	2
98	98	10
120	122	1
64	66	3
103	105	4
30	87	1
53	53	2
13	13	2
11	11	3
124	125	1
27	95	1
79	82	1
76	77	1
16	90	3
27	28	1
53	55	1
11	22	1
146	146	2
79	79	2
16	24	1
66	66	1
67	69	3
134	137	1
110	122	2
2	6	2
37	37	2
114	117	1
117	118	3
13	14	1
110	111	1
112	132	1
77	78	1
85	85	1
141	143	1
100	103	1
57	135	2
130	139	1
142	142	2
92	105	1
98	99	1
38	125	1
75	75	1
104	105	1
104	106	1
114	127	1
35	36	1
81	81	1
64	65	1
2	3	1
134	138	1
