109	137	5
88	88	14
68	68	3
113	113	1
108	108	14
1	30	3
80	81	13
22	23	14
12	13	11
105	105	16
1	1	14
120	120	11
11	31	3
66	66	7
114	116	3
51	53	9
147	147	11
92	92	14
46	49	2
85	86	8
98	98	17
2	2	13
131	131	19
74	74	6
91	91	9
21	22	3
62	62	7
39	39	13
31	32	4
10	13	3
14	14	9
24	26	1
116	117	11
13	16	1
4	4	16
67	67	24
137	144	3
153	153	12
110	110	5
101	101	13
103	104	10
136	136	11
139	140	7
11	12	7
83	83	4
96	96	17
143	143	12
126	127	11
95	96	6
114	115	7
56	56	17
69	69	13
146	146	10
0	0	3
5	5	19
6	6	11
136	146	3
15	16	5
137	138	11
148	148	13
158	158	21
82	82	25
124	125	6
5	6	6
138	138	9
40	40	7
129	140	1
80	92	8
43	43	20
25	25	11
31	31	9
77	78	4
104	123	5
151	151	21
112	112	4
15	15	8
46	46	6
2	3	3
107	107	12
51	51	11
47	47	15
103	103	10
127	127	17
25	26	1
88	91	4
49	50	7
9	12	5
18	18	13
38	39	10
90	90	7
89	92	4
98	106	4
94	94	9
65	73	2
146	147	7
86	87	1
38	38	7
155	155	15
20	20	11
148	149	5
111	111	3
63	98	2
42	42	7
22	22	15
26	134	3
91	93	1
33	33	7
79	80	3
21	21	12
129	129	18
50	51	5
14	15	6
64	64	7
150	150	8
27	27	17
119	119	4
155	157	5
40	41	3
68	144	2
154	155	2
27	77	3
114	114	20
25	80	4
137	137	8
97	99	3
17	17	2
130	134	6
41	41	2
33	40	7
89	89	7
89	98	3
34	34	9
3	3	8
104	104	14
127	138	6
140	140	6
87	87	11
142	142	6
93	93	3
149	150	9
134	134	7
20	21	5
108	131	1
79	79	18
120	122	4
70	70	5
19	19	3
35	37	11
12	12	4
47	48	11
29	69	4
132	151	4
42	46	9
11	11	16
49	49	7
27	28	10
8	10	5
152	152	12
112	113	13
44	44	19
127	128	4
42	45	3
30	30	7
97	97	7
140	141	1
106	106	11
139	139	22
80	80	13
70	71	2
136	142	2
99	99	10
82	83	10
78	78	11
16	18	7
119	120	3
113	115	5
16	16	16
47	55	3
128	128	10
7	7	8
123	146	2
110	144	3
117	118	4
18	29	3
33	34	3
1	4	4
125	125	2
156	157	1
53	56	2
80	100	4
81	82	2
32	32	5
28	28	11
50	50	3
66	72	2
48	49	3
52	52	11
18	19	3
123	123	5
85	96	1
22	27	12
24	24	9
98	99	13
144	145	3
86	86	8
125	131	3
108	111	6
109	109	8
100	100	15
4	5	1
108	109	3
113	119	2
105	138	3
100	101	10
94	95	7
125	148	6
40	45	1
125	126	15
124	124	5
17	33	3
118	122	4
23	36	4
149	149	4
26	26	12
99	100	3
16	17	2
68	142	2
53	54	2
135	136	1
63	64	1
13	14	4
84	87	2
102	102	7
35	35	5
104	105	9
154	158	1
122	122	8
135	143	6
140	149	3
57	150	3
12	14	3
82	92	3
136	145	2
145	145	3
133	133	20
150	151	2
139	148	2
54	54	7
8	8	11
2	48	2
39	40	5
37	37	5
105	128	1
115	115	4
54	55	5
45	45	8
81	81	9
116	116	8
97	98	7
95	95	10
52	53	8
102	104	2
130	131	2
81	93	3
141	146	5
48	50	4
0	30	7
91	94	2
124	127	1
157	157	6
135	135	4
130	130	4
46	48	7
118	118	6
2	43	2
120	121	3
72	72	4
140	148	3
42	43	3
133	134	3
24	152	4
132	132	4
67	144	1
17	18	2
64	65	1
117	117	5
83	84	2
26	27	8
77	77	12
9	9	8
71	72	3
89	90	2
69	70	5
143	148	2
70	141	1
7	8	4
13	13	3
29	29	14
93	94	2
1	2	3
23	23	4
110	138	1
84	88	3
121	121	7
48	48	4
152	155	5
80	82	3
55	55	7
5	40	1
134	146	1
90	91	2
28	29	2
29	30	3
68	98	4
67	71	5
12	15	2
2	9	1
8	9	7
115	116	2
102	122	3
101	102	1
108	133	4
81	92	2
36	36	1
6	47	2
144	144	5
156	156	8
98	105	2
11	30	3
79	101	4
88	90	1
38	42	1
6	10	2
53	53	6
116	122	3
115	119	1
107	131	3
71	71	8
83	96	6
44	55	2
108	128	2
73	73	6
129	130	3
36	135	2
65	69	2
42	56	1
84	96	2
18	38	2
19	20	1
88	106	6
85	85	2
84	84	7
22	33	1
34	36	1
78	94	4
6	7	2
65	65	3
87	88	3
47	54	2
24	25	1
49	98	1
121	132	4
55	56	2
123	124	1
157	158	3
68	69	5
143	144	1
105	139	2
135	148	1
98	131	1
64	71	1
76	77	1
90	93	3
88	89	3
57	57	1
106	107	2
114	122	2
5	43	1
128	132	1
65	66	1
110	137	2
32	39	1
142	149	3
82	101	1
16	19	1
69	73	1
23	30	1
10	10	1
138	139	2
112	125	1
141	141	2
113	114	1
75	75	2
131	144	1
61	70	1
25	151	1
31	39	1
38	43	1
10	30	1
127	131	1
118	119	1
4	8	1
69	140	1
102	144	1
130	133	2
129	131	1
32	33	1
105	106	1
153	158	1
35	136	3
52	87	1
121	122	1
45	47	2
0	2	1
89	104	1
32	34	2
3	4	2
102	103	1
132	133	2
130	140	1
145	146	1
41	42	1
109	110	1
108	126	1
131	141	1
107	129	2
112	122	1
10	11	1
19	28	1
70	150	1
154	154	1
77	139	1
13	17	2
147	149	1
69	144	1
32	37	1
51	52	1
63	63	1
122	124	1
99	130	1
153	154	1
26	138	1
155	156	1
39	41	1
