97	97	16
28	29	2
74	74	30
116	117	8
115	115	18
111	111	19
44	44	27
73	87	2
86	110	3
93	94	1
83	91	5
121	121	18
77	77	19
48	48	14
23	23	20
47	47	31
126	126	18
108	108	10
69	108	1
95	95	32
27	29	5
44	45	9
68	68	22
74	81	2
32	32	12
25	25	20
58	60	4
133	133	14
132	132	16
33	47	3
124	128	4
20	45	2
35	35	22
18	18	19
87	87	19
60	63	1
116	116	36
64	64	22
89	90	5
106	106	10
20	20	12
6	6	9
10	10	15
62	111	2
110	124	1
31	31	17
93	101	8
131	134	1
112	113	6
41	43	5
8	8	29
111	130	7
14	14	16
17	17	21
34	34	13
4	4	17
57	115	2
33	33	4
78	78	24
60	60	15
88	88	8
30	30	14
110	114	3
24	30	6
126	128	5
66	68	6
19	28	1
127	127	11
70	70	23
96	130	3
43	43	12
41	41	7
63	102	3
56	123	1
55	55	19
61	61	31
73	73	21
48	49	3
60	61	3
130	134	9
26	26	15
29	134	1
99	99	12
114	114	28
11	11	19
105	105	14
50	56	7
14	26	1
74	77	5
72	72	31
76	88	1
18	19	5
92	92	18
36	46	3
112	112	13
42	42	20
84	84	16
104	105	3
59	59	8
38	87	9
39	39	10
63	65	2
93	93	8
70	86	2
48	115	1
87	103	6
26	28	10
132	133	7
4	14	4
13	13	17
127	132	5
7	7	20
112	127	3
95	114	2
1	6	3
113	113	18
78	95	2
117	117	23
134	134	23
99	113	3
129	129	19
75	76	6
120	120	24
20	48	1
130	131	7
81	81	18
103	104	4
100	100	30
85	98	2
123	124	3
86	86	19
81	97	2
71	71	12
125	125	30
130	130	24
102	105	4
118	118	19
46	48	7
99	100	7
69	69	9
20	43	2
57	57	22
0	47	2
117	134	1
133	134	4
56	57	7
123	123	16
38	41	9
82	82	17
99	102	1
21	21	17
30	134	1
57	62	4
91	92	7
62	62	12
107	107	39
104	104	5
39	47	2
5	6	1
15	16	11
118	121	3
33	34	6
106	107	2
2	107	3
83	86	2
63	63	26
91	91	13
10	23	1
26	29	3
126	127	10
25	32	1
120	126	1
62	80	3
27	28	14
3	59	1
28	28	10
84	89	4
95	96	6
95	101	4
104	126	2
57	63	2
10	11	7
2	15	2
40	40	23
98	122	3
64	76	6
25	26	3
111	112	3
38	40	5
9	9	12
109	109	8
5	5	13
46	47	3
82	125	3
72	73	3
87	91	2
24	25	5
65	65	15
80	99	3
16	16	10
3	12	2
131	132	8
96	97	1
18	65	1
38	39	5
47	48	6
90	98	1
87	88	5
101	101	10
121	122	5
88	97	4
82	107	2
82	98	1
12	13	9
100	101	3
81	95	2
128	128	29
9	17	1
35	36	5
66	67	9
40	41	6
20	21	13
29	29	18
81	107	1
6	7	7
2	60	7
120	128	2
69	70	6
75	75	11
88	89	10
85	85	18
39	40	8
106	119	1
94	120	1
48	73	2
46	46	12
20	22	2
42	86	1
109	110	4
67	67	8
74	76	3
22	41	1
80	80	21
127	133	4
68	76	2
84	88	3
66	66	18
31	32	5
104	121	4
25	30	2
103	103	6
79	97	9
74	75	2
130	133	4
102	113	1
115	116	2
102	125	2
18	22	3
56	56	13
19	19	12
12	12	10
65	72	3
104	118	4
114	118	2
81	122	3
102	115	1
34	43	1
49	49	4
96	98	5
111	128	5
21	22	2
118	126	3
90	99	1
83	83	12
125	128	7
75	103	1
34	38	2
18	33	3
106	132	4
16	17	5
38	38	18
79	90	3
99	115	2
102	102	23
3	9	1
89	97	4
14	15	3
1	1	9
22	22	10
75	102	3
129	130	5
35	48	3
86	100	2
98	98	13
101	123	3
1	2	2
36	36	13
25	27	2
20	24	1
76	76	23
20	23	3
50	50	3
97	115	1
21	27	1
116	127	2
119	119	18
22	25	6
24	32	3
37	37	9
128	131	1
100	104	4
117	118	6
47	50	2
104	119	2
58	58	14
90	92	3
86	103	3
41	55	5
34	36	5
15	25	5
84	85	15
27	62	2
128	129	5
45	47	3
84	96	3
17	19	3
15	35	2
94	100	3
106	130	1
108	110	4
60	67	2
97	107	2
38	42	2
81	82	1
35	39	1
128	132	5
63	111	1
42	45	5
4	25	4
30	31	1
29	50	4
4	5	6
70	94	3
11	13	10
65	66	3
95	99	1
18	21	3
116	124	5
87	90	2
96	96	7
36	45	3
17	18	7
45	45	12
7	35	3
94	131	2
124	124	18
27	31	3
108	123	3
30	32	3
90	90	17
61	82	2
92	93	2
42	43	1
87	101	2
119	132	2
24	26	4
96	120	1
101	129	1
70	72	3
119	120	1
100	123	1
33	133	1
15	15	20
41	110	2
127	130	1
96	113	2
19	20	1
81	103	1
39	45	3
119	121	2
87	102	1
18	47	2
37	38	5
79	83	1
30	45	2
2	8	3
39	43	4
79	79	16
79	91	1
89	89	4
2	2	10
77	78	1
66	117	3
0	0	16
83	90	3
99	117	1
24	24	16
57	58	5
27	27	12
113	116	4
75	93	2
73	110	1
27	67	1
113	114	3
118	119	10
33	48	1
12	19	2
44	120	3
104	106	4
4	6	1
29	40	1
85	93	1
9	28	1
81	109	2
84	97	1
21	97	4
25	40	2
104	130	2
55	56	2
79	108	4
21	49	1
48	56	1
4	18	2
4	20	1
105	127	1
96	107	1
93	102	3
0	17	3
113	119	1
29	45	2
56	115	1
70	93	4
1	18	1
26	31	2
99	121	1
111	126	1
110	128	2
107	114	1
35	40	4
71	82	4
7	8	2
73	76	2
29	33	4
67	68	4
51	61	1
73	75	1
9	15	5
59	78	1
27	43	2
109	114	1
8	9	4
32	36	2
67	77	1
21	48	1
32	49	1
119	127	2
108	109	4
105	106	2
13	14	6
85	118	2
111	113	3
38	48	2
4	56	2
20	30	1
41	48	1
100	105	3
114	115	6
17	22	1
122	122	8
71	92	1
62	74	1
125	126	2
94	99	3
77	83	2
127	128	4
57	113	1
106	121	1
99	104	1
132	134	1
10	17	1
84	99	4
31	44	1
61	85	2
72	86	3
99	101	1
12	41	2
119	128	2
80	94	3
80	93	1
73	95	4
128	130	2
31	38	1
111	134	2
110	110	13
1	19	1
94	95	6
28	36	4
92	113	2
83	84	7
59	60	8
30	82	2
19	45	1
83	85	3
16	24	1
91	101	2
82	123	1
94	94	11
103	120	1
16	33	3
11	12	1
95	100	3
98	124	1
131	131	6
20	34	1
122	128	4
78	79	4
95	113	1
3	3	10
14	48	3
117	133	1
98	131	2
16	22	2
4	33	2
88	100	1
119	122	1
57	60	6
110	133	1
13	15	2
112	116	2
100	118	1
111	116	1
76	79	3
76	100	1
71	93	2
106	112	2
2	3	4
35	44	2
61	62	2
94	103	3
99	105	1
94	132	1
95	98	1
45	56	1
65	73	1
109	126	1
79	107	1
90	91	7
86	90	2
103	115	2
6	19	2
18	41	2
124	127	2
41	42	2
94	97	1
11	23	1
105	107	3
39	41	2
74	88	3
17	36	2
13	16	2
36	49	2
76	82	3
98	99	1
79	80	4
124	125	5
18	20	4
102	112	1
86	87	4
2	89	2
31	49	1
26	46	1
43	86	1
110	126	1
22	24	1
79	94	4
123	129	3
58	59	6
72	74	2
37	39	2
1	8	1
21	73	4
62	102	1
36	37	6
61	86	1
32	33	6
121	123	1
27	129	2
12	32	2
68	93	1
26	27	3
112	125	1
106	131	2
57	114	1
98	109	1
121	134	1
80	95	1
94	96	3
41	45	2
79	81	2
33	38	2
5	18	1
28	42	4
120	121	3
110	111	1
44	47	4
7	108	1
24	28	2
43	128	1
82	83	1
35	45	2
48	92	2
64	67	1
78	82	1
17	31	1
18	24	3
11	14	1
19	22	2
95	117	2
124	126	1
71	76	2
83	87	1
3	5	3
33	35	2
8	14	2
131	133	2
97	98	5
42	129	2
69	76	1
114	116	3
73	82	1
70	71	2
21	28	2
103	122	1
64	80	2
106	109	1
51	51	3
16	45	1
77	90	3
116	119	1
119	131	1
26	49	3
84	113	2
28	35	1
23	24	4
11	17	1
73	117	3
72	94	2
82	84	1
115	117	2
125	129	4
29	41	2
40	42	2
128	134	3
63	64	2
8	10	2
110	119	2
3	4	3
97	127	2
91	106	1
104	107	2
99	118	1
42	109	1
34	46	2
30	47	2
90	121	2
12	15	4
89	116	1
45	117	2
80	81	1
81	96	1
5	19	1
107	124	1
106	118	1
71	80	2
50	115	1
29	39	1
74	84	1
59	103	1
72	79	1
35	130	1
10	19	2
102	104	1
36	47	1
97	100	2
30	33	3
112	131	1
107	118	1
23	41	2
27	42	1
22	60	1
37	42	1
75	106	2
0	108	1
13	32	2
3	6	1
64	79	1
18	34	3
123	126	1
4	11	2
56	58	1
63	74	1
91	100	1
56	122	1
18	76	2
75	91	1
29	43	1
33	130	1
6	10	1
87	110	1
72	92	1
16	23	1
35	131	2
15	37	1
101	118	1
98	114	1
3	33	1
106	133	1
85	86	2
5	15	1
54	54	1
123	125	2
9	16	2
84	95	2
64	65	4
78	107	1
21	89	1
0	8	1
47	92	1
1	17	1
119	134	3
85	101	1
81	99	1
16	34	2
22	43	2
24	27	1
4	15	1
73	74	3
36	42	2
94	111	1
110	121	1
105	129	3
57	70	1
105	131	1
23	27	2
70	81	1
30	40	1
64	66	1
62	84	1
90	107	1
10	28	1
118	120	1
55	91	1
76	77	1
106	127	1
42	111	1
93	108	1
125	127	1
42	112	2
100	115	3
68	69	1
28	45	2
94	115	1
6	58	1
110	125	2
25	34	1
29	30	1
25	28	1
98	119	1
74	79	1
9	20	1
36	38	1
100	102	1
93	129	1
37	40	1
63	69	1
124	131	1
5	17	1
108	128	1
8	11	1
93	116	1
28	30	1
