4	46	10
89	147	5
138	138	4
132	132	4
159	159	2
133	133	13
110	165	2
16	74	5
15	92	5
135	135	10
117	117	7
45	124	2
95	155	2
36	36	2
106	106	7
93	94	6
170	170	3
103	103	16
143	148	2
65	65	3
103	123	5
99	99	18
36	37	7
143	143	7
111	112	6
153	161	1
137	137	11
7	7	12
162	162	3
39	39	7
46	46	2
64	64	13
141	141	4
96	97	2
27	27	9
66	68	3
113	113	5
68	68	8
88	88	6
11	113	6
33	34	6
33	33	8
73	73	2
114	114	8
85	85	3
162	164	5
2	2	8
70	70	5
68	89	1
131	145	4
165	166	7
155	155	9
130	142	1
131	131	10
168	168	2
52	54	6
54	54	4
72	72	3
94	95	3
113	115	3
102	102	9
108	109	1
151	162	1
160	160	5
22	22	7
90	152	3
139	139	13
54	121	1
17	17	2
92	104	2
158	159	2
76	141	1
65	125	1
52	88	3
87	87	5
67	68	5
25	25	3
47	47	5
72	73	3
140	140	18
108	108	7
25	112	3
129	131	4
108	139	4
74	127	5
95	95	3
44	44	9
50	51	2
134	146	1
12	46	1
80	145	4
51	51	12
112	114	2
161	165	2
120	120	10
58	58	1
52	52	5
83	132	1
107	107	5
15	99	2
11	11	18
137	138	5
47	52	4
93	98	5
136	136	13
107	108	9
139	142	4
127	128	2
80	82	6
118	118	12
84	134	2
25	56	2
76	76	15
166	166	2
71	88	2
64	118	1
66	103	8
75	143	5
142	142	3
132	144	2
164	164	3
15	15	7
78	82	4
104	104	5
152	152	7
100	100	4
89	97	2
42	42	5
116	116	10
37	37	5
130	131	3
154	154	10
132	143	1
11	12	1
19	19	9
23	52	4
14	14	2
75	76	9
112	112	4
97	97	5
80	144	2
78	145	2
43	43	4
35	35	2
13	13	2
22	54	2
41	43	1
67	67	4
167	167	5
56	70	3
18	50	1
86	93	5
129	129	2
39	135	2
78	119	2
74	74	4
96	96	4
135	136	2
163	163	7
150	151	3
52	53	3
85	89	2
139	140	2
42	43	1
109	109	11
80	80	5
140	142	6
151	151	5
96	121	1
90	95	5
48	48	3
62	62	7
128	145	1
143	144	2
10	24	5
74	75	3
20	20	12
57	67	5
122	122	3
10	22	1
133	140	2
23	26	1
148	148	1
67	73	1
119	122	3
69	69	9
94	96	8
91	126	2
116	117	1
5	5	5
62	63	2
93	93	8
50	50	4
5	6	4
34	37	6
164	170	2
16	82	1
52	87	5
109	137	1
115	116	2
81	81	3
95	104	6
126	152	6
73	74	4
49	126	2
2	46	2
136	137	2
126	153	1
22	56	1
76	144	2
147	147	5
144	144	4
1	1	4
3	3	4
4	7	2
13	73	2
8	23	2
101	101	11
53	106	2
1	8	5
18	18	7
105	105	4
130	130	6
28	44	1
80	81	3
8	46	1
95	103	1
110	110	6
157	157	3
3	121	2
23	23	4
67	71	1
18	51	2
14	96	4
58	126	3
10	124	3
83	83	8
66	66	3
13	16	3
84	84	10
71	72	1
124	124	1
6	25	2
90	90	6
45	52	3
65	68	1
135	168	3
9	9	3
130	134	2
39	41	2
56	57	3
98	98	5
77	77	4
6	46	1
78	130	1
43	112	2
49	49	4
89	148	3
64	69	2
76	87	2
0	122	1
34	34	8
103	104	1
70	87	3
16	16	4
65	67	4
94	94	4
111	111	5
44	45	3
110	111	3
149	150	2
77	145	1
20	42	3
79	79	1
121	122	2
23	27	6
158	158	3
123	123	5
126	126	3
153	153	2
54	55	2
112	118	2
20	37	2
98	110	1
10	46	1
16	128	3
77	78	1
77	144	2
93	126	5
113	114	4
70	73	2
12	19	3
0	1	1
45	54	6
43	44	3
17	18	3
2	22	1
163	165	4
0	2	2
56	56	3
70	120	1
24	24	1
41	41	3
7	8	2
96	98	1
48	87	2
149	151	5
14	89	2
16	126	3
9	119	1
35	42	1
53	53	10
54	73	3
119	119	5
86	86	10
91	91	4
53	55	4
146	148	2
97	157	1
89	89	6
92	92	4
26	121	1
3	45	1
79	80	1
57	72	3
87	98	3
149	149	2
56	72	2
136	138	1
134	134	4
109	136	1
140	141	1
109	158	3
12	13	1
55	55	3
89	105	2
130	145	1
88	89	3
121	121	6
64	68	1
166	170	2
98	146	3
99	105	1
108	137	4
161	161	1
10	10	6
35	36	1
82	82	6
10	26	3
94	125	2
104	105	2
77	128	1
57	63	3
57	66	2
98	109	4
133	134	1
86	147	3
53	56	1
57	62	1
45	46	1
91	95	2
12	170	2
149	161	4
74	140	2
126	127	5
63	63	1
16	80	1
96	120	1
4	4	3
69	70	1
76	131	1
88	119	1
82	83	1
76	81	1
157	159	2
130	141	1
149	154	1
17	75	1
45	45	2
127	129	1
145	145	2
8	9	1
37	134	1
83	84	4
52	57	1
78	80	2
76	78	1
141	143	2
43	45	1
56	65	2
21	52	1
161	163	1
1	6	2
20	72	2
128	128	1
2	3	1
46	122	1
83	126	1
141	142	3
6	6	1
38	133	1
109	170	1
87	144	1
14	139	1
64	66	1
148	164	2
3	43	1
101	102	1
165	165	1
11	23	1
66	72	2
13	127	1
12	38	2
53	97	3
121	124	1
26	26	4
137	150	1
44	53	1
126	156	2
108	148	1
169	169	1
139	158	2
153	156	1
89	122	1
88	145	2
107	159	1
102	129	1
5	47	1
112	115	1
95	96	1
89	99	1
71	89	3
3	25	1
62	159	4
125	125	1
2	9	1
21	22	2
88	147	1
21	21	2
150	150	2
36	151	1
128	151	1
137	148	1
84	85	1
152	153	3
156	157	1
76	139	1
20	164	2
129	149	2
86	96	1
48	125	1
92	121	1
11	39	1
78	79	1
146	146	2
82	139	1
10	40	1
96	103	1
83	129	1
169	170	3
40	40	1
98	104	1
97	98	1
75	142	1
27	28	1
147	148	2
109	133	2
19	74	2
131	132	1
126	151	1
48	49	2
84	133	1
1	2	1
70	121	1
85	128	1
114	118	1
37	43	1
9	21	1
112	113	1
102	103	1
114	154	1
81	82	1
56	169	1
