74	74	10
31	68	4
7	7	19
62	62	4
49	51	5
35	35	20
71	72	7
10	10	11
60	61	1
4	4	20
31	31	3
1	1	9
40	40	12
53	53	19
78	78	9
50	51	9
1	33	3
50	53	3
75	75	12
19	19	10
30	30	11
6	6	17
26	30	2
54	54	6
52	52	10
47	47	15
37	37	17
38	39	3
3	33	1
10	11	2
65	65	9
25	33	1
31	70	2
37	42	1
67	67	24
33	33	13
30	55	6
0	0	15
17	72	2
11	53	1
72	72	7
6	63	2
3	4	4
77	77	3
28	28	12
8	9	4
73	73	17
41	68	2
27	27	4
26	26	7
58	58	13
33	63	1
63	63	12
76	76	13
79	79	8
9	9	13
58	59	4
45	62	3
46	46	6
45	45	5
49	54	4
68	69	6
41	60	2
14	14	15
25	25	8
41	41	15
36	38	4
43	43	4
51	52	5
21	70	2
64	66	2
70	70	10
25	26	10
0	2	2
66	66	10
5	5	21
10	50	2
48	63	2
34	48	1
59	59	2
8	8	12
5	33	2
37	38	2
16	16	2
48	48	9
29	29	5
64	64	7
31	32	2
17	18	3
36	36	9
29	30	2
1	2	3
2	2	8
35	38	2
18	70	4
12	12	11
9	10	5
27	28	3
19	55	2
5	6	2
34	34	10
50	50	2
41	61	3
8	71	1
38	61	4
42	43	1
49	64	3
3	3	16
8	47	3
18	20	3
79	80	6
30	63	3
56	56	8
45	55	2
65	66	4
69	70	3
33	35	2
1	59	6
39	49	2
13	13	9
60	60	13
51	51	11
68	68	8
32	32	5
21	21	8
71	73	1
15	15	7
21	31	1
11	11	11
32	33	1
64	65	4
13	68	2
38	62	2
9	51	2
47	48	2
49	53	4
5	21	2
48	66	2
49	49	6
34	35	2
17	17	17
18	18	3
57	57	4
61	61	6
20	20	2
14	69	2
6	71	2
37	62	6
65	77	1
38	38	8
52	72	2
27	30	3
39	39	4
20	32	2
31	67	2
52	63	3
17	58	1
58	73	1
47	50	2
39	54	1
66	67	3
80	80	7
53	54	1
72	77	1
71	71	9
33	49	4
69	69	9
33	50	2
46	73	2
4	74	1
6	32	2
12	14	3
8	39	1
34	72	1
38	45	2
33	48	1
3	60	1
13	14	1
1	35	4
12	73	2
34	49	2
16	70	2
22	69	1
13	69	2
10	53	2
78	79	1
20	70	1
34	36	6
16	61	1
29	72	1
40	41	1
64	70	3
21	69	1
36	52	1
15	68	1
3	59	1
76	78	1
42	42	2
50	52	5
28	66	1
19	35	1
49	76	1
63	64	2
26	69	1
73	74	4
76	80	3
31	33	2
9	16	2
10	13	2
26	27	1
46	49	1
21	49	1
6	7	1
30	33	1
11	34	1
55	62	1
67	69	1
34	45	1
22	70	1
55	55	2
49	73	2
75	76	1
57	60	1
44	44	1
53	76	1
35	61	1
46	47	2
16	55	1
55	56	1
16	71	1
65	78	1
2	33	1
59	73	1
44	45	1
37	71	1
35	44	2
14	72	1
9	31	1
14	21	1
38	47	2
56	76	1
40	71	1
33	37	1
54	63	1
59	60	1
14	32	1
21	32	1
3	6	1
