58	58	13
118	119	3
23	35	1
54	56	2
52	52	11
11	11	15
133	134	3
18	18	1
29	29	4
77	97	3
141	141	5
67	67	12
128	129	3
112	112	11
57	57	6
2	2	8
110	125	2
113	116	4
5	83	2
113	124	2
74	74	5
87	87	4
118	118	5
127	139	2
136	137	3
84	135	3
86	87	5
18	42	1
131	140	1
98	98	10
33	41	4
95	113	2
55	55	4
102	102	7
100	100	10
53	53	6
129	129	9
51	52	3
69	69	7
109	109	4
97	101	1
62	63	3
125	125	9
94	94	5
75	75	4
99	133	5
71	71	5
68	68	14
41	41	6
78	78	3
64	65	4
95	95	12
91	91	21
18	43	2
13	13	6
31	32	7
81	108	6
122	123	7
29	30	2
7	23	5
14	14	2
108	108	8
142	142	16
59	60	7
59	59	9
96	98	2
102	103	5
121	121	8
9	10	3
117	117	8
60	63	3
111	111	9
125	127	1
99	110	1
60	60	5
47	83	6
103	103	9
37	69	4
83	84	6
41	54	3
83	85	2
79	80	5
126	138	2
17	17	3
62	91	1
20	36	1
73	73	4
109	114	6
50	66	3
49	56	1
69	70	3
77	77	5
101	101	8
84	84	4
9	9	10
66	100	2
37	41	2
75	76	2
21	67	1
66	66	12
55	56	4
137	138	2
40	40	5
89	89	4
19	20	2
122	122	6
62	62	1
24	40	4
24	41	3
42	42	8
72	72	1
4	4	2
19	19	5
35	36	1
131	142	2
133	133	3
124	124	7
41	42	6
63	63	6
125	126	3
134	134	7
97	97	8
31	33	2
57	123	1
86	104	2
75	87	1
48	48	5
28	85	3
131	131	7
72	74	1
28	28	10
8	8	3
18	19	4
120	121	2
137	137	10
123	123	3
24	33	7
1	2	5
35	35	11
110	124	3
97	98	5
132	139	3
65	65	2
130	131	4
110	112	1
73	135	3
43	43	3
64	66	4
17	26	1
37	37	4
86	105	1
109	113	1
75	78	1
10	11	1
128	128	3
39	40	2
38	38	9
80	126	2
81	81	3
105	107	1
50	86	2
96	96	2
53	55	2
129	130	1
3	4	1
125	136	2
60	68	2
119	123	2
86	86	3
120	120	5
27	29	4
41	53	2
110	110	4
126	134	1
47	47	2
14	16	1
140	140	3
119	121	2
138	138	3
93	94	1
49	53	1
25	25	3
40	41	5
10	27	1
130	130	7
111	125	2
49	84	4
65	122	6
94	97	1
58	123	1
39	39	2
22	22	4
0	0	2
24	85	1
20	20	2
56	56	2
131	133	5
88	88	5
57	119	2
99	99	8
80	88	4
88	89	3
85	85	3
30	30	3
144	144	3
4	5	2
70	70	3
127	131	3
1	1	2
57	58	6
26	26	3
0	43	2
21	22	1
53	56	3
106	106	3
39	85	2
118	123	2
21	21	4
100	101	1
50	50	1
111	126	1
15	47	1
26	32	2
51	51	3
82	82	6
64	64	1
28	30	4
89	90	8
54	54	3
66	89	1
126	126	3
135	135	4
145	145	1
6	6	5
61	89	3
58	119	2
126	127	1
73	137	2
97	138	1
65	66	2
54	119	1
61	71	2
60	118	2
10	10	3
2	3	1
15	19	3
3	51	2
136	136	4
23	23	2
83	101	1
113	113	5
138	139	1
12	18	2
130	141	2
116	117	1
62	138	1
16	16	1
5	5	3
78	91	1
2	6	3
83	83	1
38	39	2
104	104	5
139	140	1
80	107	2
119	120	3
114	114	2
139	139	1
127	127	5
1	20	3
49	51	3
61	61	2
77	78	1
27	41	1
110	111	1
134	135	1
82	106	1
79	106	1
58	59	2
34	37	1
134	137	1
92	92	2
24	34	1
25	41	1
1	60	1
135	138	1
142	144	2
109	112	1
90	90	2
49	49	3
36	36	2
1	46	2
32	32	1
75	89	1
55	122	1
65	123	1
31	31	1
74	138	1
56	120	1
132	135	1
15	15	1
23	24	1
95	96	1
79	79	3
73	74	1
22	23	1
143	143	1
7	10	1
63	123	1
107	107	2
100	104	1
27	27	1
27	30	1
24	24	1
97	143	1
20	21	1
112	113	1
