151	224	2
34	59	2
168	245	2
27	27	18
51	52	4
47	117	4
207	207	11
189	190	7
155	155	25
83	185	3
68	68	12
38	38	28
159	159	9
145	145	8
158	224	3
203	204	4
247	247	6
6	81	1
7	7	10
59	61	2
74	75	14
188	188	11
57	57	7
237	237	12
108	108	14
62	62	8
113	114	3
180	184	1
31	53	2
162	216	1
21	21	6
158	158	8
185	185	11
119	119	19
229	229	9
30	30	7
194	194	6
102	102	6
65	66	10
19	19	11
154	154	14
32	44	7
233	233	13
29	29	13
37	37	15
53	54	4
55	55	16
225	234	1
31	31	7
87	87	9
187	242	2
205	244	2
46	77	2
226	226	11
24	25	1
104	104	5
186	186	9
241	242	4
246	246	11
5	37	2
179	180	3
179	179	9
59	78	3
57	58	5
171	171	6
11	72	3
16	17	6
160	162	2
28	28	18
230	234	3
67	67	9
118	118	6
203	203	18
17	17	9
9	9	7
36	39	2
228	228	12
74	74	4
191	191	3
16	227	3
181	181	10
174	174	6
16	16	13
176	182	1
66	66	6
31	54	2
82	82	6
84	86	1
11	12	5
77	156	1
245	245	5
214	214	12
190	190	15
35	35	13
212	212	14
225	233	4
205	205	11
195	195	10
151	151	15
202	243	2
227	227	17
209	209	6
22	23	2
170	170	13
112	116	3
116	116	16
219	219	13
160	160	17
47	52	2
46	83	2
64	65	1
15	15	18
90	90	15
172	172	10
41	85	2
27	29	2
35	117	2
98	98	11
23	113	2
41	116	3
36	36	17
1	1	9
60	60	6
17	18	8
196	196	6
168	169	1
170	181	4
198	207	5
239	239	16
182	182	10
51	51	9
5	5	8
18	18	11
5	79	3
163	163	5
240	240	23
156	156	16
243	243	2
69	69	14
165	242	2
59	60	5
239	240	3
85	85	15
155	206	1
202	203	2
26	26	21
59	59	14
157	219	1
64	66	2
100	100	8
79	79	5
30	34	3
221	221	14
178	178	13
14	235	2
189	223	3
44	44	9
236	237	3
242	242	12
99	99	7
235	236	6
99	101	4
189	189	10
192	192	13
107	107	14
102	105	1
71	75	3
48	49	3
180	182	6
94	94	8
117	117	6
117	118	5
52	52	9
71	71	15
161	163	1
213	224	3
19	20	2
58	58	12
45	64	3
197	215	2
60	73	3
96	97	5
173	173	9
78	78	6
162	163	4
36	41	2
61	61	3
169	169	5
61	116	6
43	85	2
70	70	7
202	202	7
223	223	11
85	88	5
188	193	2
238	239	4
38	40	1
72	72	16
197	224	2
74	79	3
146	146	8
160	161	3
215	215	9
169	170	6
213	213	12
192	227	3
231	231	16
168	168	19
176	176	16
55	235	1
5	246	7
149	149	7
199	200	3
236	236	14
175	175	11
170	180	3
194	199	6
90	91	4
229	230	8
3	3	10
193	193	11
162	162	20
88	88	13
98	104	5
113	113	3
235	235	15
10	10	3
63	82	1
23	23	22
216	217	4
11	11	9
61	62	1
9	39	2
93	160	3
93	93	3
48	48	15
12	12	8
15	20	3
34	37	2
39	41	3
210	210	10
194	195	4
83	83	6
53	53	7
200	208	2
217	217	4
199	199	6
78	79	2
39	39	7
81	81	8
165	165	9
152	167	2
47	88	1
65	65	12
6	230	1
84	84	4
120	120	7
98	238	1
164	170	2
182	240	1
30	31	5
180	180	10
197	199	2
185	186	1
111	111	13
191	193	1
49	49	7
176	177	10
246	247	3
22	22	13
98	101	5
216	216	10
12	145	2
190	191	3
173	174	3
202	229	1
67	68	7
14	18	3
68	89	5
197	214	3
228	229	4
220	238	2
14	14	9
32	33	4
79	106	2
30	93	4
72	78	2
45	45	17
165	166	2
29	87	3
40	41	4
222	222	13
18	47	2
1	2	6
32	114	3
163	220	3
224	224	11
47	47	14
111	112	5
102	103	3
85	86	4
72	73	9
103	104	6
151	220	2
4	4	9
187	205	2
26	27	5
2	2	10
152	152	9
45	46	2
15	22	2
187	232	5
216	219	1
101	102	4
1	82	3
114	115	6
40	40	12
68	69	9
178	242	2
208	208	14
150	205	1
149	158	4
19	21	1
31	97	2
69	99	1
92	92	5
3	229	1
14	15	9
217	218	1
58	93	5
189	191	3
101	101	16
167	167	6
81	182	2
58	89	5
202	204	1
97	100	2
36	45	2
62	64	4
91	91	10
46	52	1
230	230	11
6	6	8
8	8	4
150	150	5
153	153	5
19	67	2
157	157	3
35	36	5
89	89	2
69	70	3
207	208	4
90	92	4
166	178	6
29	30	4
211	211	10
95	158	1
36	40	3
233	235	3
176	178	3
248	248	5
110	110	9
54	55	1
32	32	10
111	115	4
244	244	9
87	88	5
170	240	2
205	222	1
160	163	1
218	219	13
147	147	2
170	171	5
202	227	2
200	201	6
164	164	11
183	183	16
98	99	4
240	241	2
183	184	2
7	8	1
20	20	9
201	202	1
222	223	4
56	56	15
93	96	3
225	225	11
163	186	2
163	174	2
162	201	3
151	210	2
56	58	2
149	161	3
86	86	13
157	158	1
94	101	2
73	73	3
33	211	1
33	52	1
201	201	13
113	115	4
174	194	2
161	161	7
26	43	1
54	54	12
75	76	4
80	81	2
189	222	1
50	50	3
231	232	1
73	86	2
184	185	9
64	64	6
231	233	2
37	38	1
173	184	3
51	84	1
164	242	3
248	249	3
36	37	4
112	112	5
199	207	2
195	209	2
81	89	2
186	188	2
52	56	4
65	72	3
160	224	2
2	9	1
9	89	1
96	99	1
48	61	2
42	42	7
145	146	2
53	66	2
200	200	6
10	72	2
82	87	1
192	193	3
60	61	7
58	64	1
198	199	2
43	51	6
43	44	3
197	197	10
206	206	2
167	243	2
166	167	3
79	82	1
232	232	14
6	9	1
175	176	2
63	63	5
175	177	2
151	153	3
43	43	14
242	246	2
210	211	1
47	63	2
64	88	1
169	176	2
77	95	1
192	196	2
230	231	1
184	184	11
59	64	1
168	203	3
217	219	2
9	11	1
218	220	3
91	92	2
10	14	2
174	175	5
204	204	8
166	166	12
58	116	3
28	41	1
177	177	13
109	110	1
11	15	3
77	96	1
234	235	3
92	211	4
234	234	10
75	75	6
95	95	5
70	71	1
34	34	10
213	214	2
220	220	8
52	67	1
76	76	2
73	78	4
208	209	1
232	234	1
48	51	4
77	77	4
189	227	1
105	106	2
93	94	1
55	56	8
100	101	3
164	166	4
56	57	2
15	119	1
184	240	2
197	198	5
106	106	5
233	234	3
212	213	1
181	240	1
46	46	9
245	247	1
186	187	2
81	236	1
184	225	2
105	183	1
181	236	2
241	243	2
178	192	1
231	234	2
84	170	3
157	204	1
63	90	2
24	24	6
171	199	1
96	96	6
6	233	1
150	224	3
201	209	2
83	84	3
37	162	1
47	51	3
166	169	1
242	243	5
163	211	3
14	75	1
158	159	3
26	28	3
77	184	2
194	245	2
95	96	8
188	189	3
54	230	1
115	116	1
31	67	1
230	233	1
9	10	3
25	25	2
183	240	1
38	113	1
82	96	2
67	87	4
88	90	2
52	53	4
10	11	1
157	216	2
115	115	6
89	90	4
13	63	2
245	246	5
34	35	4
173	246	3
12	64	2
178	220	1
159	191	2
24	28	2
18	21	1
41	41	4
4	78	3
95	99	2
109	109	9
242	244	1
238	238	10
172	237	1
225	226	3
198	198	5
112	113	2
234	238	1
176	237	1
12	56	2
73	74	3
58	59	2
7	110	1
236	240	1
107	108	2
199	206	3
163	173	3
81	82	4
103	103	2
25	43	1
99	100	1
30	54	1
174	176	3
187	239	3
31	100	2
72	76	6
58	65	1
57	116	1
166	188	1
197	236	1
235	245	1
67	70	1
38	39	2
93	95	1
190	196	1
81	233	1
186	189	1
223	224	1
89	91	2
195	232	2
30	112	1
18	19	5
151	183	2
4	5	1
197	206	1
105	107	1
35	212	3
156	157	2
200	210	2
230	232	1
33	33	9
173	234	1
80	80	4
15	48	1
167	239	2
152	228	1
179	241	1
76	78	2
226	233	2
66	106	1
213	223	1
182	184	1
72	75	2
12	13	3
57	117	4
102	104	3
241	241	3
74	107	1
109	111	2
185	191	1
57	77	2
30	114	1
71	108	1
165	174	1
16	36	4
224	242	3
82	83	2
195	206	1
66	67	1
196	225	2
145	184	1
205	216	6
44	113	1
199	203	1
27	28	2
58	60	1
180	181	3
33	34	1
6	84	2
76	82	1
46	65	1
48	62	2
100	113	1
49	50	2
183	213	1
105	105	4
54	233	1
85	87	2
22	95	1
194	213	2
101	109	1
197	239	1
185	227	1
182	183	2
108	109	2
37	63	2
106	107	1
208	210	1
91	100	2
7	12	1
56	108	2
97	97	1
50	79	2
78	80	1
200	207	1
114	114	1
165	167	2
31	115	1
163	164	4
158	211	2
237	238	2
76	77	1
179	240	1
185	226	1
161	171	1
177	178	1
21	22	1
34	92	2
227	228	3
30	87	1
56	93	2
195	233	1
13	14	1
27	109	2
152	210	1
187	187	3
33	43	1
47	48	4
84	244	1
10	15	2
100	102	2
97	98	2
84	85	1
10	120	1
38	209	1
44	45	2
118	119	6
31	93	1
52	85	1
180	244	2
191	219	1
153	214	3
9	88	1
172	245	1
175	246	1
205	217	1
38	62	1
110	111	4
11	57	1
197	207	1
222	224	1
193	194	1
29	94	1
63	79	1
37	209	1
33	67	1
119	120	2
88	89	1
14	54	1
164	218	1
218	218	1
213	218	1
103	105	1
204	205	1
182	239	1
70	93	1
11	74	1
184	246	2
80	97	1
153	154	1
95	97	2
226	230	1
35	91	3
181	182	1
98	160	2
164	174	1
116	117	1
86	89	1
145	152	1
92	104	1
46	47	1
16	93	1
19	44	1
178	225	1
41	42	2
164	219	1
96	100	1
173	237	1
181	233	1
42	43	1
176	239	1
76	184	1
57	86	1
109	115	2
175	243	1
14	17	1
155	157	1
76	99	1
45	65	1
172	176	1
154	226	1
25	44	1
39	44	1
190	215	1
174	248	1
10	12	2
172	229	1
17	19	1
47	50	1
162	202	1
212	224	1
15	82	1
198	240	1
97	105	1
31	66	1
3	231	1
169	174	1
204	224	1
172	199	1
30	66	1
