99	99	9
84	84	22
27	38	5
72	72	6
46	46	9
57	57	19
29	37	3
75	75	19
88	88	8
59	59	25
27	44	1
25	26	4
102	102	30
21	22	8
26	27	8
92	92	11
28	28	14
93	93	13
53	65	2
42	42	11
61	61	15
66	67	7
33	34	8
62	63	13
38	90	1
23	23	14
58	58	19
31	32	3
49	49	12
91	91	11
85	86	16
43	43	14
41	41	14
22	22	6
36	66	1
86	86	7
23	24	3
67	92	2
51	51	5
99	106	4
33	33	14
77	77	16
26	26	14
90	94	2
85	85	5
23	69	6
87	87	15
20	24	3
46	63	3
47	67	5
73	73	13
55	67	2
69	69	17
29	29	12
68	68	9
24	25	1
25	36	1
36	36	14
90	90	5
28	29	6
21	21	14
37	37	9
44	44	13
95	95	15
84	89	6
47	48	2
98	98	12
32	37	1
21	33	3
96	97	15
65	66	8
28	39	2
58	91	2
69	70	6
41	42	6
81	81	10
48	49	11
45	45	8
26	68	2
21	65	2
52	52	21
26	29	2
35	36	4
55	56	7
32	32	7
83	86	6
93	94	4
65	65	15
25	41	3
19	20	2
80	80	15
34	34	2
89	89	13
57	69	1
56	56	21
38	38	8
24	24	8
67	68	1
22	95	1
64	64	10
98	99	5
62	62	13
35	35	10
50	50	11
93	100	3
84	88	4
80	81	7
96	98	6
66	66	11
39	39	17
63	64	6
103	103	11
71	72	7
27	27	5
101	101	7
100	100	7
30	30	9
71	71	7
58	61	2
25	30	1
60	61	6
24	26	2
57	76	1
42	44	4
74	74	7
47	53	1
40	40	11
67	101	7
99	100	4
54	54	9
82	84	3
52	55	1
83	88	2
55	55	5
54	55	1
94	96	2
27	41	6
104	104	5
44	45	5
31	31	8
68	89	2
47	47	3
69	99	6
104	105	4
20	20	4
34	36	5
23	55	1
106	107	2
82	85	4
95	100	1
46	61	2
67	102	3
43	44	3
38	39	4
50	53	3
32	45	1
64	83	2
37	38	6
58	70	2
97	98	2
72	73	3
70	70	10
76	76	9
32	34	5
41	61	2
25	25	15
70	72	1
82	83	4
106	106	5
97	97	11
61	62	2
67	67	4
25	27	2
37	39	3
40	41	7
83	85	3
89	90	4
48	48	3
57	70	1
56	57	3
73	74	1
74	75	2
20	22	2
42	43	6
25	38	2
78	78	9
22	23	2
95	99	1
51	52	3
82	82	9
36	37	4
75	77	3
88	89	4
29	30	2
82	89	1
76	77	2
94	94	14
84	85	4
58	68	2
107	107	1
92	101	4
100	105	1
75	78	2
83	83	3
22	64	3
47	62	1
37	84	4
79	79	2
105	105	5
60	67	1
50	51	2
85	88	1
91	92	1
27	28	2
96	96	3
105	106	1
46	47	4
64	82	3
78	79	4
48	54	3
36	89	1
90	91	3
92	93	3
27	88	1
27	40	1
63	63	4
19	19	1
36	39	1
86	87	1
26	39	1
53	53	3
55	65	1
30	40	1
47	50	1
56	77	1
100	104	1
37	43	1
84	86	1
74	92	1
60	60	2
95	96	1
79	80	3
83	84	1
34	35	2
25	42	1
85	105	1
59	60	2
68	69	2
41	60	1
27	42	1
58	59	1
46	54	1
99	107	1
58	69	1
68	92	1
58	60	1
79	81	1
98	100	1
53	54	1
45	47	1
100	102	1
29	38	1
