58	82	5
44	59	5
39	76	2
61	61	3
102	102	4
92	92	10
36	36	7
25	25	3
59	59	6
79	79	10
81	83	5
69	84	3
31	38	4
94	97	2
82	83	15
70	98	5
71	82	1
56	94	2
41	41	4
99	99	22
45	45	10
75	75	4
59	62	3
42	51	1
34	55	2
84	84	11
34	35	6
20	28	4
45	46	4
64	70	6
71	72	4
65	65	3
49	54	3
56	57	8
29	29	3
85	85	8
97	97	7
68	68	12
42	42	5
39	40	1
49	49	7
90	90	4
39	39	9
72	73	5
65	66	3
74	84	5
80	80	6
28	44	1
38	46	7
95	95	10
70	70	8
26	27	1
104	104	10
61	77	5
81	81	5
85	86	4
31	31	3
32	32	4
35	35	5
58	59	3
102	103	2
43	43	6
63	72	5
37	54	3
78	87	6
34	34	8
100	100	7
73	73	9
86	106	2
49	55	1
59	82	2
92	96	4
40	41	3
33	33	13
64	99	2
83	83	1
47	47	7
78	97	3
71	88	3
30	45	5
46	65	1
105	105	2
93	94	3
60	61	1
65	95	1
26	26	1
24	43	2
76	76	6
68	72	2
51	51	1
50	50	7
65	83	6
81	91	1
70	71	6
22	23	2
39	54	1
78	78	1
64	64	10
69	93	1
42	55	4
40	54	5
53	54	3
54	54	2
31	43	5
89	90	6
40	40	9
67	67	11
72	72	7
32	46	1
96	96	10
78	79	2
52	52	8
72	76	3
40	52	1
75	76	6
41	42	3
35	36	7
63	63	3
57	89	1
71	71	5
39	43	4
22	50	2
23	23	3
55	55	14
73	74	7
63	81	2
37	39	3
86	86	3
49	71	2
65	94	3
52	59	3
88	88	4
94	94	10
80	83	2
27	43	3
85	103	1
40	43	3
106	106	2
77	81	2
78	98	2
55	59	1
29	53	3
53	53	3
49	57	2
47	62	2
93	97	3
65	80	4
32	33	3
103	105	1
75	79	2
56	58	3
29	32	1
20	21	3
34	52	1
60	60	8
68	75	3
46	46	3
55	57	2
57	57	1
92	95	3
79	80	4
69	69	4
87	87	4
76	77	3
97	101	1
43	75	2
50	51	1
29	34	2
62	62	4
24	24	13
69	74	3
40	53	1
30	49	1
27	27	1
70	92	2
100	101	3
31	57	2
25	26	3
96	103	1
89	93	3
69	92	1
92	105	2
74	74	4
86	88	1
88	94	2
79	93	1
79	81	1
79	96	3
95	97	1
45	49	2
25	30	4
22	22	8
67	88	2
63	95	2
101	101	5
48	48	6
77	98	1
89	102	1
56	56	8
31	55	2
56	90	3
73	104	3
98	99	6
45	51	2
87	88	2
85	98	1
34	42	3
43	53	1
62	82	2
93	93	1
66	66	2
82	82	5
30	51	1
38	38	3
89	89	2
103	103	1
37	37	2
98	98	6
58	58	4
44	44	3
24	27	2
27	44	1
59	60	1
27	45	1
106	107	4
68	93	1
32	44	1
44	48	1
66	68	2
74	76	3
23	29	2
83	88	1
39	46	1
94	95	1
33	75	2
88	91	1
101	102	1
91	94	2
91	91	2
24	25	1
25	45	1
95	101	3
76	79	2
41	45	2
30	40	1
74	75	1
65	69	1
92	98	1
20	23	1
70	83	1
30	44	2
31	39	2
85	99	1
63	99	1
55	58	1
92	103	1
63	64	1
38	47	2
51	60	1
21	21	1
51	56	1
48	49	1
31	45	1
68	77	1
30	32	2
85	94	1
84	88	1
48	60	1
97	98	2
24	26	1
69	91	1
61	64	1
46	47	1
