71	71	7
85	85	8
82	83	2
113	113	9
108	108	19
56	58	14
90	91	4
32	32	9
49	49	21
113	114	8
34	42	4
81	83	3
103	104	7
89	90	7
87	91	2
51	98	3
105	105	30
102	102	23
50	54	1
41	44	1
39	39	6
37	37	14
33	33	17
80	82	5
25	25	9
84	84	23
38	38	16
106	106	22
31	31	5
103	103	15
56	56	10
65	65	10
36	37	1
28	28	4
65	66	5
26	42	2
43	43	10
87	87	21
59	62	1
22	22	12
97	97	11
20	20	13
87	92	2
32	34	3
60	60	23
97	106	5
61	64	3
76	76	5
101	105	4
61	62	14
57	57	2
99	99	12
66	78	3
31	32	7
92	93	3
54	54	8
112	113	7
105	106	6
40	41	3
80	81	7
47	109	3
82	82	25
88	91	3
81	81	10
104	106	3
29	45	3
51	52	13
88	88	14
45	45	13
49	50	8
20	59	2
106	107	9
66	66	9
79	80	11
73	73	8
69	69	16
67	79	3
47	47	11
40	40	18
29	29	14
71	78	3
83	84	9
73	74	4
53	86	2
54	55	9
62	63	10
79	79	13
42	42	13
68	68	4
92	92	25
28	42	1
26	27	9
71	72	7
33	34	6
74	74	11
89	89	9
100	101	7
95	95	12
63	63	9
99	108	5
57	61	2
76	78	6
44	44	27
88	90	3
57	58	1
77	77	18
78	79	8
19	19	2
95	96	8
35	43	3
24	77	6
98	99	9
30	31	5
55	55	6
20	21	3
85	86	19
74	75	13
101	101	15
27	41	5
30	30	11
58	58	4
80	80	9
47	48	10
64	64	10
36	36	11
53	54	1
97	100	2
88	89	12
83	83	14
21	60	7
109	110	3
41	41	14
64	80	1
27	27	5
22	23	2
23	23	17
52	52	14
69	70	9
48	110	1
98	98	6
46	108	2
70	70	7
96	96	11
57	81	1
25	27	2
21	22	4
75	75	6
58	60	1
48	48	11
111	111	18
70	77	4
32	35	3
48	49	4
107	107	9
94	95	3
39	40	6
52	53	2
104	104	18
78	78	6
112	112	10
99	104	4
94	105	1
27	28	8
103	105	1
66	68	4
108	110	2
108	109	3
111	112	3
68	69	8
35	36	2
42	44	1
72	73	2
50	53	5
98	108	7
47	49	1
53	56	4
32	43	3
68	70	3
58	85	3
64	66	2
38	41	3
47	108	2
95	97	1
100	100	8
25	26	3
94	94	11
91	91	12
63	64	5
83	85	1
24	24	14
65	70	4
110	110	13
114	114	5
53	57	1
66	67	7
33	48	5
109	109	7
99	101	1
46	47	3
76	77	4
61	61	7
21	80	7
81	82	2
101	102	2
50	108	1
50	50	6
65	67	4
34	34	5
96	97	5
46	46	10
53	55	8
53	53	10
90	90	10
86	86	7
79	81	2
21	23	1
59	60	2
25	39	3
30	39	9
59	81	1
93	97	1
32	44	3
93	94	4
42	43	6
67	67	6
19	20	1
77	78	6
94	97	5
55	56	2
39	41	2
65	69	1
77	79	2
51	55	2
35	35	1
38	39	2
22	81	3
48	51	2
68	71	4
51	51	4
31	44	1
89	91	1
34	46	2
72	72	6
26	39	6
48	109	1
65	68	5
38	40	2
73	75	2
50	51	3
43	44	1
57	86	2
102	103	3
79	99	1
67	68	1
26	26	6
105	107	4
96	98	2
57	59	1
58	59	5
93	93	2
41	42	2
97	98	1
59	59	3
60	61	2
56	87	2
28	29	3
86	104	1
36	39	2
94	106	1
29	31	1
21	21	2
29	30	3
71	73	1
74	76	4
84	86	2
46	109	1
20	62	1
30	33	1
110	111	3
27	42	2
32	33	1
25	73	2
34	35	3
33	49	1
31	35	1
62	62	2
104	105	2
27	39	2
98	109	1
87	88	1
82	84	3
92	94	1
74	78	1
82	85	1
42	61	2
92	95	1
45	46	2
29	43	2
55	97	1
31	33	1
34	48	2
60	91	1
75	78	2
100	105	1
84	85	1
63	65	1
21	54	1
22	80	1
