79	79	13
5	18	1
142	142	8
88	88	6
134	134	4
7	7	5
129	138	2
43	95	4
111	111	2
118	125	3
77	144	3
75	75	4
142	168	1
34	34	3
76	77	7
50	50	5
93	93	11
165	165	8
138	138	9
20	21	2
42	43	2
141	141	9
82	82	6
137	167	3
63	63	1
25	65	1
35	36	3
39	40	4
77	88	5
8	72	4
6	6	2
162	165	3
115	115	3
37	51	4
17	71	1
14	27	1
100	100	4
39	39	2
107	149	2
6	10	3
16	16	10
68	68	2
55	57	7
147	148	4
158	158	6
129	142	3
2	2	5
37	37	10
90	90	5
125	127	2
6	7	1
52	58	1
22	23	3
69	69	3
127	127	3
129	129	3
139	139	2
153	154	4
168	169	1
47	68	2
23	109	2
119	119	1
125	128	2
118	131	2
91	92	1
14	14	13
67	68	5
0	0	2
105	127	2
150	150	6
98	99	2
109	111	1
85	86	3
8	11	2
35	132	1
122	143	1
126	139	1
133	135	1
138	139	1
97	97	3
145	148	3
99	112	2
27	90	4
154	154	3
71	72	4
110	111	3
27	27	2
47	47	4
74	77	3
80	80	1
37	56	2
70	70	1
23	23	2
22	22	2
104	104	3
98	101	1
146	146	9
137	137	5
51	51	8
95	95	2
25	41	1
35	135	2
150	151	4
108	144	1
125	125	6
144	147	2
133	133	4
153	153	2
24	69	1
52	80	1
108	108	2
3	3	2
7	8	2
140	140	4
143	143	4
91	91	6
69	70	3
14	16	3
1	14	3
38	38	5
49	49	3
117	136	2
10	72	3
151	166	3
96	100	1
84	86	2
56	56	3
91	95	1
124	124	7
169	169	2
114	115	2
73	94	2
121	122	2
108	146	2
105	105	4
106	144	1
14	28	2
11	12	5
167	167	3
119	128	1
107	152	1
151	151	3
45	45	6
106	143	1
132	132	1
45	46	2
156	156	2
126	126	3
120	121	3
114	114	4
152	152	2
23	90	1
131	145	1
122	122	3
149	167	1
28	112	2
132	145	1
122	123	1
166	166	1
81	82	2
54	54	1
137	138	2
116	134	2
99	100	1
64	64	3
36	36	8
42	42	4
148	167	1
21	21	4
108	159	1
93	102	3
81	81	2
106	106	2
0	12	1
103	104	2
76	87	3
154	170	2
12	21	2
131	133	2
131	131	1
101	101	1
117	117	4
157	158	1
119	121	2
130	131	1
83	87	2
160	160	2
167	168	2
8	8	1
35	133	2
38	90	2
13	13	1
118	118	3
24	72	4
24	24	2
40	40	3
121	121	3
99	113	1
109	133	1
73	78	6
4	4	5
162	162	2
52	57	1
107	107	1
146	149	2
38	66	1
123	146	6
98	98	1
73	95	2
98	100	1
163	163	3
16	17	1
146	147	1
106	145	2
24	38	3
86	86	4
80	82	1
105	106	2
113	114	2
15	15	1
44	44	3
35	98	4
17	19	1
128	129	2
103	103	3
34	112	2
117	118	2
24	70	1
77	77	3
21	22	1
149	149	3
28	113	3
1	1	6
138	150	3
161	161	2
48	48	1
87	149	4
9	9	4
83	108	1
62	63	2
102	105	1
157	157	3
74	96	1
113	113	2
35	110	1
35	83	2
89	99	1
84	84	1
106	121	2
47	49	1
38	39	1
107	148	1
145	145	3
65	65	3
75	148	1
78	92	2
111	112	1
19	19	1
148	148	2
108	109	1
62	62	1
102	103	2
37	83	2
78	78	3
74	75	2
108	131	2
5	5	2
37	39	2
22	49	2
46	46	1
44	46	2
3	4	4
90	91	1
94	97	1
86	87	1
153	164	1
8	9	1
53	53	2
39	65	1
74	74	1
124	125	2
33	33	1
25	25	2
23	24	2
49	69	1
13	14	2
110	112	1
20	27	1
47	64	1
139	141	1
92	92	2
91	94	1
8	71	1
15	16	1
123	128	1
108	132	1
152	155	1
41	64	1
103	121	2
131	138	1
18	18	1
11	21	1
95	106	1
142	147	1
83	83	1
112	112	1
164	164	1
64	66	1
165	169	1
28	56	1
27	37	1
85	85	1
80	81	1
138	151	1
