50	50	7
26	26	2
50	51	1
31	31	7
70	88	3
78	78	5
84	85	3
93	100	4
46	46	9
23	23	8
32	32	7
72	72	7
94	94	7
52	55	2
76	76	5
61	98	1
56	56	3
96	96	9
66	67	1
77	77	14
40	40	5
44	44	11
62	98	2
34	34	5
57	57	7
43	43	3
82	83	3
22	24	7
49	50	3
61	61	2
35	35	14
35	36	5
23	30	6
53	53	10
59	59	5
89	90	6
93	94	4
103	103	8
69	88	4
21	65	3
21	21	15
106	106	2
105	105	6
31	44	2
95	97	2
79	80	4
88	88	1
51	51	2
80	80	6
65	65	18
21	24	5
48	48	2
52	52	5
55	56	8
45	45	6
73	87	2
89	89	4
75	75	6
66	88	2
95	95	12
87	87	5
29	50	1
45	50	5
101	101	5
67	81	2
66	90	1
37	37	1
70	70	5
54	54	8
97	98	2
35	39	1
74	74	3
27	51	6
27	27	1
63	63	2
102	102	20
91	91	9
92	101	4
96	97	6
31	35	3
92	92	6
23	58	2
42	42	2
69	69	4
38	38	6
20	21	2
90	91	4
68	68	5
41	42	2
29	29	6
60	61	3
73	74	2
62	64	1
97	97	13
40	42	2
36	36	2
42	43	3
100	105	2
39	42	3
24	24	9
38	46	2
67	67	7
100	100	9
64	64	1
20	20	2
81	81	4
19	20	2
55	57	5
104	104	7
21	100	1
46	48	1
92	103	4
104	105	1
47	47	5
70	72	5
65	66	10
74	92	1
79	81	8
67	69	1
41	41	2
39	39	1
84	84	4
26	27	2
21	60	2
71	71	8
31	34	3
100	101	3
30	30	2
96	100	6
98	98	1
59	105	1
23	24	2
55	55	8
83	83	1
36	37	6
58	59	1
20	98	3
101	104	2
90	101	2
63	64	1
56	57	2
69	76	2
93	93	1
29	52	3
22	107	3
92	100	1
85	85	2
51	52	4
58	107	1
107	107	1
90	90	7
93	102	1
22	22	2
33	33	4
67	68	1
84	86	4
49	49	3
31	53	1
22	58	1
66	95	1
21	22	2
82	85	2
97	99	2
28	30	1
82	86	2
73	73	2
43	44	1
25	26	2
79	79	4
102	103	1
67	90	1
28	28	1
48	49	1
62	62	1
66	94	2
69	77	2
25	25	1
21	62	1
38	47	1
27	52	2
29	30	1
82	82	1
93	101	2
93	95	2
68	82	1
83	86	1
57	95	1
62	63	2
69	87	1
45	47	1
94	95	1
28	29	1
101	103	1
39	41	1
83	85	1
68	90	1
