81	81	5
57	75	1
144	146	1
47	47	10
82	83	5
35	70	2
20	56	1
6	6	4
66	66	4
106	106	17
13	17	4
99	103	2
31	31	14
87	87	7
99	99	15
41	41	12
38	39	4
25	69	2
105	105	11
147	148	5
83	85	1
11	11	11
121	121	8
129	129	5
102	114	2
18	19	1
20	20	12
98	98	3
16	16	13
110	110	11
85	85	10
9	12	5
25	25	4
18	18	6
109	109	6
119	120	4
49	49	6
113	114	5
117	117	8
15	15	7
48	48	5
57	57	8
22	22	9
7	7	5
97	98	4
63	63	8
4	8	3
153	153	13
21	21	7
43	43	19
71	71	3
86	86	7
30	33	4
37	37	7
130	130	2
20	21	2
26	26	6
113	113	4
118	126	3
69	70	3
45	45	3
28	29	2
128	129	9
124	125	2
63	154	2
103	104	2
84	85	1
13	39	1
152	152	8
50	78	4
48	49	10
138	139	2
116	117	5
51	57	7
139	145	1
83	83	16
128	144	2
62	63	2
104	105	3
70	70	12
100	100	5
39	39	3
124	124	5
115	115	4
131	136	2
9	9	6
147	147	4
141	141	5
136	136	4
38	38	5
13	14	1
129	141	1
49	50	1
104	104	4
21	23	2
116	116	5
31	33	2
17	17	15
13	13	9
4	4	7
145	145	7
38	76	2
29	30	10
3	21	3
72	72	4
46	76	3
62	70	1
115	117	1
14	33	4
74	74	7
139	139	9
38	75	1
123	123	11
50	55	1
68	68	12
36	37	6
72	73	1
53	53	5
27	29	3
103	103	9
64	64	7
54	55	5
104	111	3
10	11	5
44	44	11
84	84	12
144	144	6
96	96	6
136	137	4
120	120	5
85	118	3
73	74	3
80	81	3
68	74	1
149	149	7
19	19	12
110	111	3
69	69	4
48	51	2
78	78	7
3	4	4
121	122	3
53	54	3
29	29	1
30	31	1
21	25	4
105	106	4
89	89	3
56	57	2
55	55	2
108	108	2
99	104	2
67	67	4
150	150	4
43	45	3
148	148	7
14	15	1
79	80	4
12	12	9
40	41	6
122	123	4
33	34	1
82	82	7
100	112	1
135	135	8
27	28	1
12	34	1
122	149	1
32	32	6
91	91	5
123	124	8
8	9	11
138	138	10
46	77	1
8	8	1
40	40	5
56	56	6
80	106	1
50	51	1
151	151	3
75	78	2
150	151	1
39	40	3
129	133	3
112	112	7
119	119	2
42	43	5
140	142	4
123	144	5
19	24	2
54	54	6
36	55	2
86	94	6
112	113	2
81	82	1
9	11	4
80	80	3
133	141	1
35	36	2
47	50	3
20	29	1
39	149	1
116	133	2
46	46	6
77	78	1
6	7	2
24	24	6
14	14	3
107	108	4
34	55	2
23	58	1
11	12	6
29	50	3
143	146	4
5	5	3
94	95	4
83	84	2
100	101	1
109	116	2
97	97	1
132	132	10
142	144	3
144	145	5
30	30	1
34	36	1
73	73	3
75	75	1
109	111	2
55	56	2
38	129	1
102	103	3
66	68	2
7	8	1
45	74	1
112	115	1
42	42	4
95	96	6
6	48	1
153	154	1
13	38	1
140	140	3
66	67	4
43	44	1
27	27	5
96	97	2
29	56	2
23	23	6
130	132	2
104	146	2
143	143	3
98	115	1
130	136	2
102	102	2
19	77	2
131	132	4
82	111	1
44	45	1
45	46	1
111	115	3
98	114	1
143	144	5
62	71	3
135	139	1
31	32	6
137	139	2
95	95	1
26	69	1
39	118	2
50	52	3
133	135	1
28	28	2
80	101	1
125	125	9
147	151	1
34	34	2
61	75	3
79	79	3
146	146	2
94	94	4
13	31	1
137	138	2
107	107	2
29	66	1
80	94	2
77	77	2
10	10	3
131	131	1
120	143	1
9	10	3
137	137	1
120	121	2
101	101	2
33	33	1
127	127	3
101	114	1
92	123	1
95	97	1
114	114	3
79	82	1
27	30	1
105	110	2
6	9	2
21	26	1
90	90	2
108	109	1
120	135	1
24	70	2
149	152	1
65	66	1
3	3	4
51	52	1
88	89	2
24	118	1
134	135	1
74	78	2
129	134	1
21	22	1
138	146	1
92	93	1
49	52	2
63	74	1
31	55	2
30	37	1
37	56	2
121	124	1
27	57	1
154	154	1
15	30	1
111	111	1
121	125	1
123	152	1
119	128	1
128	128	1
149	150	1
28	67	2
113	118	2
28	85	1
80	82	1
24	25	1
15	16	1
22	24	1
37	77	1
16	67	2
88	88	3
103	145	1
118	118	3
93	121	1
47	54	1
2	2	1
31	38	1
62	62	1
68	69	1
135	148	1
122	141	1
126	128	1
145	146	1
38	128	1
47	48	2
120	123	1
138	140	1
140	143	1
126	127	1
