145	145	7
73	73	11
92	92	11
160	160	3
8	8	6
5	30	1
90	90	15
173	177	3
168	168	4
52	52	3
122	123	6
72	72	12
25	30	2
165	165	9
175	176	6
176	176	12
28	28	9
150	150	9
5	62	9
61	61	3
171	172	3
106	106	9
133	133	12
86	86	6
144	144	6
173	174	4
56	64	2
105	106	5
120	120	8
167	167	15
33	33	13
122	122	6
153	153	6
70	70	5
16	40	1
137	137	5
54	54	7
159	160	6
120	121	4
15	19	2
83	83	5
105	105	2
14	14	2
36	36	16
30	37	6
15	15	10
14	20	6
125	125	7
123	124	5
4	7	1
172	172	4
135	136	3
171	171	8
121	121	5
97	97	1
12	12	7
148	148	5
93	140	3
66	128	2
75	75	8
29	30	4
37	44	3
107	138	4
23	37	1
59	59	9
112	140	3
156	156	6
169	169	7
25	25	4
180	180	13
55	55	4
151	162	1
82	82	7
119	119	6
95	95	15
81	81	4
3	3	3
130	131	2
125	129	2
80	80	3
54	66	3
60	79	1
40	40	6
151	151	6
153	162	3
56	56	4
31	32	6
95	106	1
13	43	5
84	87	1
37	37	6
116	116	4
96	96	9
152	152	9
102	115	3
131	131	10
3	4	3
22	22	5
156	170	4
44	148	2
71	137	6
77	78	5
60	60	3
111	149	4
91	91	4
72	109	4
92	93	2
143	143	7
85	85	2
27	27	3
43	43	17
164	166	2
38	38	7
125	130	1
80	81	2
63	136	3
40	41	5
64	64	4
75	76	5
101	101	5
68	68	6
130	130	4
30	30	8
107	107	7
102	102	3
152	155	5
88	88	13
124	125	8
158	169	3
158	158	2
66	66	10
6	62	3
71	72	7
65	65	12
52	53	3
132	132	4
55	56	3
24	24	3
25	33	5
103	103	3
22	23	8
81	114	4
116	117	1
99	100	3
66	131	6
151	161	3
135	135	5
148	149	9
30	31	2
70	139	1
96	102	4
17	24	1
113	113	2
155	155	1
134	134	9
173	173	11
100	100	6
179	179	12
115	115	7
26	27	4
78	78	2
72	76	2
94	94	8
142	142	5
175	175	5
98	99	1
10	10	6
12	20	3
159	159	2
114	114	8
152	156	6
141	144	10
141	141	3
124	124	3
32	32	4
163	163	2
18	18	8
90	167	3
62	62	6
109	110	6
4	16	1
169	175	1
157	158	6
72	107	3
71	124	4
71	71	5
138	138	3
160	163	1
56	134	1
161	161	2
50	51	4
113	114	3
101	102	5
11	44	2
50	55	1
15	16	3
10	11	3
16	18	3
139	140	2
0	0	1
114	115	2
11	11	6
1	1	6
163	164	4
160	161	1
44	114	1
7	8	2
84	84	3
104	104	6
23	35	1
55	57	2
154	154	6
117	117	4
79	79	7
77	77	5
90	94	2
128	128	4
74	74	8
131	149	2
87	87	6
23	23	3
149	149	5
66	67	4
139	139	5
23	24	1
170	170	6
105	107	5
29	29	10
20	20	1
22	141	1
179	180	3
19	20	1
21	21	6
38	40	4
140	141	4
126	126	6
65	74	3
32	35	1
68	71	1
58	74	1
170	173	3
111	122	6
63	73	1
24	36	1
110	110	6
50	50	2
34	34	6
36	141	3
93	93	2
133	134	2
6	7	1
5	5	6
4	4	1
62	63	3
101	104	1
56	58	1
103	107	2
73	127	4
178	178	6
164	164	2
15	114	3
140	140	10
162	162	2
166	166	4
107	108	2
29	60	2
89	89	4
106	107	3
118	118	2
44	99	3
114	136	3
85	89	1
51	51	6
119	120	2
95	144	2
137	138	2
41	41	2
167	174	1
4	17	2
88	150	1
94	95	3
17	17	1
19	19	3
146	146	5
58	61	2
83	84	2
66	75	2
9	9	2
174	175	5
53	74	1
89	90	1
104	107	2
89	93	1
102	103	1
157	160	1
54	57	1
42	42	2
6	14	2
8	12	3
121	122	2
1	2	1
171	173	1
59	136	1
166	169	1
108	108	3
37	38	1
21	24	1
152	158	2
60	65	1
157	157	2
154	155	1
111	140	3
127	127	2
118	120	2
61	62	2
7	7	2
28	61	1
2	2	1
31	31	3
13	20	1
174	174	2
147	148	3
74	108	1
57	146	2
34	35	1
101	106	1
28	29	1
86	87	2
127	128	1
109	109	1
58	58	1
67	67	4
1	5	1
83	153	1
139	149	1
101	146	1
100	147	1
71	138	1
118	119	1
51	55	1
43	44	1
2	19	1
91	92	2
71	78	1
170	171	1
45	45	1
112	135	1
49	49	1
151	153	1
153	168	1
157	169	1
158	172	1
134	139	1
76	77	2
26	28	2
2	4	3
62	134	1
151	152	2
6	17	1
103	104	1
98	127	1
89	150	1
145	146	1
50	54	2
16	16	1
57	57	1
88	97	1
123	123	1
54	65	2
56	108	1
175	177	1
26	26	1
19	22	1
65	79	1
104	105	1
59	60	1
17	18	1
