39	173	7
183	183	11
158	170	5
242	243	7
212	212	8
246	246	6
180	181	2
167	239	1
24	24	2
92	92	12
31	31	13
185	185	11
39	39	5
224	225	7
170	179	2
79	82	1
175	176	2
175	219	4
181	181	6
96	97	5
38	38	3
48	50	5
150	150	17
91	91	4
162	162	7
66	68	4
230	230	3
227	227	15
197	248	2
148	152	1
30	172	2
20	20	2
241	241	7
36	36	14
1	35	1
38	41	4
243	244	5
166	166	4
157	185	6
189	189	4
247	248	3
204	204	8
151	151	12
118	118	3
155	201	1
220	220	3
54	54	6
26	26	4
12	16	2
183	186	9
211	211	4
158	158	5
117	118	2
51	51	7
72	145	2
99	99	4
248	248	2
187	187	4
13	43	1
216	217	3
83	84	2
76	76	7
44	45	3
245	245	6
153	153	7
31	52	1
43	43	6
195	195	8
234	234	9
41	41	11
88	88	4
5	5	2
42	42	11
0	0	1
170	170	2
239	239	6
42	44	5
160	160	2
155	179	1
78	78	3
74	74	5
87	88	5
240	242	2
79	104	2
8	8	6
193	193	4
63	64	6
30	30	5
95	95	2
178	178	15
219	227	1
146	146	2
162	165	1
79	79	5
219	219	7
46	54	2
73	73	2
54	236	1
216	216	6
56	74	3
77	78	5
190	191	3
37	37	6
21	21	17
23	23	14
201	202	3
247	247	2
156	156	2
61	61	4
183	184	5
15	15	5
30	31	4
213	214	3
203	203	5
191	191	8
240	240	3
87	87	2
186	186	2
197	197	9
158	159	1
62	63	3
215	217	1
114	114	2
225	225	5
199	199	2
84	103	1
7	24	1
27	28	3
117	117	4
69	69	7
81	95	3
49	49	4
62	100	2
208	220	1
244	244	7
71	85	1
112	112	2
46	46	14
190	190	4
179	179	2
188	188	1
32	32	7
10	11	5
238	238	3
204	207	3
5	34	6
22	22	4
53	53	2
163	163	9
164	164	3
181	182	2
178	179	7
221	222	7
103	103	3
40	40	10
145	145	5
21	23	1
50	55	4
71	71	11
36	38	2
155	155	10
229	229	3
186	241	2
113	113	10
7	7	1
45	45	6
77	182	1
213	213	3
228	228	4
198	199	3
176	177	1
62	62	4
201	201	9
66	94	1
5	36	2
60	78	3
75	75	4
41	42	3
50	51	4
65	65	5
152	153	3
224	245	5
17	17	4
157	163	8
227	228	3
6	6	3
28	90	1
182	183	1
180	180	1
27	27	4
171	171	2
29	29	1
105	106	4
231	231	5
90	90	9
236	236	4
200	200	8
36	37	1
63	63	5
66	66	8
34	34	6
85	85	5
66	92	1
68	68	4
165	165	5
51	54	2
209	209	2
6	7	2
69	70	1
67	104	2
236	246	5
226	226	13
231	232	1
234	235	4
34	35	3
187	241	3
169	169	2
217	235	4
44	44	5
101	101	8
67	110	2
199	200	5
23	93	2
40	41	3
99	102	2
58	58	3
58	60	1
55	161	1
67	109	1
194	194	9
150	153	3
111	111	3
10	10	7
9	9	6
84	84	2
110	110	2
236	238	4
172	241	4
226	244	3
76	77	1
198	198	4
26	230	2
167	167	3
172	174	3
202	202	6
34	37	2
76	147	1
95	103	2
35	35	4
86	87	2
156	238	2
242	242	13
182	182	4
81	147	1
43	44	3
70	70	2
171	241	1
57	58	2
108	111	3
80	104	2
11	16	1
6	61	1
63	100	2
116	116	3
152	152	5
119	120	1
197	241	1
79	152	5
156	236	3
46	47	1
237	239	2
172	217	4
226	227	3
52	52	7
23	45	1
169	194	3
157	158	1
119	119	3
52	53	3
60	60	7
176	243	1
56	56	2
173	173	3
223	223	2
67	67	2
17	19	3
20	34	1
59	78	2
107	107	7
205	205	3
86	86	4
25	41	3
93	114	1
57	57	1
1	155	1
40	245	1
222	222	4
39	174	1
61	62	2
203	204	3
208	208	2
33	33	3
100	100	4
184	184	5
38	39	3
14	41	2
233	238	2
218	218	3
144	145	2
159	159	4
237	237	3
162	184	3
44	229	2
210	210	3
200	223	2
202	204	1
208	246	2
2	113	1
162	164	2
156	189	2
207	208	1
19	19	3
15	43	2
10	12	2
81	83	1
87	90	2
82	83	2
19	23	2
2	2	1
217	236	4
161	181	2
15	98	3
154	154	2
97	98	3
157	157	3
218	234	3
172	172	2
109	109	9
244	245	2
204	205	2
249	249	1
82	84	1
161	161	2
159	184	1
4	4	2
193	240	2
157	160	4
11	23	1
60	69	1
58	59	3
229	230	3
64	92	1
3	3	1
167	175	3
7	8	2
71	75	1
196	196	3
202	245	1
192	192	3
89	90	1
11	11	3
53	55	1
233	233	3
117	182	1
54	235	1
164	186	3
221	221	4
101	102	2
73	74	2
102	103	2
80	80	5
208	209	4
210	234	1
31	145	3
83	83	2
89	89	3
116	144	1
52	70	1
18	18	1
208	214	1
48	48	2
223	246	1
197	198	1
224	224	3
205	206	1
4	5	1
235	243	1
53	67	1
34	65	1
232	239	1
188	189	1
21	46	2
64	64	3
217	217	7
28	154	2
94	94	2
187	196	1
120	121	1
168	168	2
75	77	1
225	245	2
232	232	2
115	115	1
115	116	1
93	93	1
95	96	2
50	50	1
162	163	2
70	85	1
203	224	2
81	81	2
59	59	2
5	20	2
96	101	5
55	59	1
105	105	1
106	106	1
55	55	2
0	1	3
19	20	3
31	32	2
235	235	1
186	190	1
171	184	1
32	66	1
78	161	1
202	205	2
78	79	1
176	176	1
156	183	1
219	234	1
5	87	1
109	110	1
14	42	3
172	225	1
218	219	1
64	105	1
201	240	1
14	14	2
32	33	1
180	182	1
163	190	1
42	43	2
74	77	2
206	206	2
5	37	3
92	100	4
186	242	1
174	189	1
216	236	1
50	58	1
108	108	1
85	90	2
228	229	1
29	32	1
98	100	1
175	177	1
170	229	1
17	22	1
58	78	1
64	93	1
215	220	1
33	35	1
12	43	1
19	22	1
116	117	1
82	82	1
214	226	1
91	92	1
194	248	1
231	234	1
29	31	1
26	229	1
157	164	1
59	105	1
207	209	1
95	97	1
29	76	1
191	192	1
104	104	1
72	72	1
223	224	1
