164	164	6
18	155	2
167	168	2
1	1	12
136	136	7
9	9	5
152	152	6
91	94	5
99	99	6
133	133	10
73	73	2
76	76	3
94	94	4
156	156	4
112	112	2
106	107	4
70	136	3
42	42	5
108	108	4
22	23	1
71	170	2
2	3	1
125	127	1
97	97	8
142	143	2
149	149	9
130	130	10
52	108	4
140	141	3
142	147	2
27	28	2
34	34	3
160	160	6
101	101	5
153	165	1
131	131	5
123	123	3
87	104	3
36	36	5
87	88	2
38	38	3
145	146	2
107	111	3
86	86	5
143	143	3
139	140	2
36	108	1
163	163	4
51	51	4
161	161	6
78	78	2
96	96	3
37	41	3
119	119	3
11	11	6
165	169	2
90	90	10
88	88	2
53	54	1
82	82	5
69	69	4
6	6	5
102	102	4
21	21	1
168	168	1
63	79	1
154	154	3
126	127	7
68	68	3
105	105	3
0	0	8
159	159	6
123	124	3
85	97	2
76	78	4
89	89	5
127	127	2
9	13	2
137	137	6
120	120	2
145	145	4
95	95	3
33	34	1
111	111	5
132	132	4
17	17	4
6	12	4
114	114	2
68	75	1
51	136	3
115	117	4
150	150	3
149	152	4
9	21	3
130	147	2
74	75	1
13	13	2
144	144	2
117	117	5
49	54	1
53	56	2
27	27	2
135	141	2
80	80	4
132	134	2
10	10	5
35	108	2
8	8	3
141	141	2
77	79	3
90	91	2
12	12	1
67	67	1
110	111	1
46	47	2
168	169	1
43	43	2
137	161	2
101	105	1
130	132	3
74	74	2
107	107	2
49	49	3
15	15	1
109	109	2
107	108	3
135	135	1
128	128	2
100	100	1
104	104	1
41	41	3
155	155	2
121	122	1
70	70	3
6	9	1
169	169	2
50	50	1
50	51	2
62	62	2
2	2	4
129	129	1
91	91	1
84	88	1
105	106	1
109	110	1
121	121	2
56	56	2
142	146	1
7	7	1
47	49	1
165	165	1
105	117	2
98	98	5
9	14	1
153	153	1
106	106	1
18	18	2
106	111	1
115	115	1
98	99	1
53	53	1
44	44	1
40	40	1
103	104	3
138	139	2
72	72	2
167	167	1
139	142	2
116	116	1
4	7	2
110	110	1
65	65	1
38	41	1
3	4	2
95	97	1
56	57	1
161	162	1
84	84	2
81	81	2
112	118	1
126	147	1
27	154	1
62	64	2
26	26	2
36	111	1
96	98	1
151	151	1
4	25	2
83	83	1
37	37	1
167	169	1
114	137	1
114	116	1
54	54	1
45	45	2
91	92	1
67	75	1
44	117	1
139	139	1
19	19	2
133	134	1
57	76	1
141	142	1
73	74	1
127	133	1
93	94	1
109	112	1
35	105	1
69	70	1
