160	160	7
228	228	4
53	53	3
61	61	16
28	28	7
153	185	3
241	242	3
103	103	5
12	39	1
111	111	3
109	116	3
20	20	6
232	234	2
157	157	4
68	72	1
99	104	5
212	212	3
195	195	5
241	241	10
27	102	1
76	76	6
225	243	5
118	118	3
49	67	7
146	205	1
32	39	4
17	52	3
33	54	2
245	245	4
222	222	3
242	249	2
246	246	8
166	166	16
60	94	3
29	30	2
7	144	2
159	220	1
193	193	10
16	16	8
173	173	7
38	38	6
220	220	8
199	200	2
17	17	5
66	66	2
9	9	7
185	185	10
4	4	19
24	186	3
164	164	5
158	191	3
233	233	5
191	221	1
31	31	8
15	110	2
28	94	1
113	114	7
244	244	8
181	181	6
115	116	4
247	248	8
52	54	2
228	236	3
50	78	4
19	19	8
150	153	2
243	243	8
4	12	3
82	82	7
202	202	7
167	167	2
40	40	5
207	207	8
62	62	7
26	26	11
239	239	6
158	158	9
194	194	2
14	100	4
51	51	6
22	22	9
229	229	2
199	199	3
177	177	9
156	156	7
29	29	18
88	90	3
84	84	3
82	83	3
60	113	4
10	10	10
2	2	4
56	58	3
87	87	2
200	200	9
182	182	4
162	163	4
151	177	5
183	183	2
236	236	6
78	79	6
147	147	5
214	214	3
1	1	4
1	205	1
225	225	8
235	236	5
224	232	2
218	234	5
1	111	3
45	45	4
89	211	4
201	226	9
95	111	3
17	19	3
240	240	3
245	247	3
58	58	4
229	234	2
232	232	8
60	60	3
171	188	4
116	116	10
162	162	3
6	6	5
209	209	9
161	242	4
49	49	3
248	248	5
172	172	4
95	97	4
69	70	3
39	40	2
213	214	8
12	37	1
10	40	3
109	109	13
156	168	1
221	221	9
23	27	3
167	208	2
74	74	3
5	5	14
169	169	5
25	25	10
153	162	1
59	60	6
163	244	3
14	14	7
38	40	3
21	67	3
231	231	11
177	247	4
2	3	4
86	86	4
120	120	5
168	207	5
48	59	4
4	8	6
29	34	3
225	229	3
187	190	2
208	208	13
56	57	8
97	97	5
194	203	3
95	95	4
43	43	4
114	114	3
17	27	3
154	154	4
162	169	4
3	3	2
184	184	7
85	85	4
162	219	3
70	71	2
23	23	9
167	197	2
108	108	3
30	30	8
163	164	4
229	230	2
152	152	3
116	120	4
48	49	2
24	27	5
1	64	1
22	29	1
104	104	3
10	118	7
1	4	2
36	55	2
192	197	4
89	89	5
32	32	5
227	229	3
13	13	3
238	247	2
185	242	1
153	184	2
96	96	3
204	205	5
60	99	5
15	94	2
197	197	7
8	8	5
15	15	5
23	185	1
227	227	5
93	93	9
210	216	5
175	175	9
4	37	3
159	169	2
107	107	5
78	78	3
84	149	1
24	24	3
165	169	1
244	246	1
36	36	2
237	237	4
192	192	4
59	59	2
168	190	4
80	214	5
176	176	2
65	65	6
70	117	4
29	66	3
79	98	4
24	26	1
37	38	2
184	185	1
179	179	4
160	161	3
189	189	4
176	178	2
79	106	2
48	48	3
192	207	6
48	68	2
227	231	2
18	114	5
97	152	1
190	193	2
43	113	1
18	118	2
187	187	4
91	100	2
77	78	6
35	35	2
61	78	3
21	88	4
204	211	4
33	33	12
101	102	13
159	159	3
216	236	2
167	202	4
166	219	1
34	34	8
115	115	8
89	182	3
228	229	6
6	119	2
57	87	1
79	215	1
156	165	3
170	185	3
187	213	3
159	209	1
75	75	7
211	211	1
47	47	5
50	50	3
145	215	2
157	219	3
39	39	2
110	110	2
55	55	2
193	198	1
6	15	1
21	21	6
80	95	2
37	55	4
69	69	1
28	44	2
19	20	2
14	69	2
20	25	1
219	219	6
54	54	2
219	222	1
70	70	8
72	73	2
163	163	7
117	117	9
85	86	7
56	56	2
64	64	4
44	44	1
15	27	1
90	90	2
145	145	4
10	34	2
38	50	5
25	30	2
242	242	3
87	88	1
205	205	4
246	247	1
7	7	1
186	186	1
173	241	2
163	191	3
202	210	4
202	211	2
181	211	1
30	35	3
190	190	3
43	45	3
166	169	4
91	91	2
20	23	1
9	12	1
95	96	3
162	167	2
231	232	1
27	27	2
198	199	1
195	196	3
42	42	6
201	227	1
68	119	2
243	244	2
79	159	4
47	49	2
204	204	4
162	168	3
158	176	2
42	44	1
49	56	2
153	155	2
180	180	3
201	204	4
201	201	5
50	66	2
99	99	3
86	98	3
223	223	7
100	100	2
44	98	1
79	86	5
196	196	5
49	55	1
230	234	3
236	237	4
245	246	3
28	60	1
45	46	1
18	18	3
16	21	1
24	89	1
98	179	1
90	185	1
154	155	3
61	65	3
73	74	1
32	41	2
100	105	1
155	155	4
6	70	2
163	192	1
46	65	2
98	98	3
46	46	5
105	105	8
37	37	1
80	80	3
60	66	3
59	94	3
59	68	1
88	88	3
65	66	2
160	209	1
103	177	2
31	32	1
157	190	1
5	6	3
94	95	4
22	111	1
24	185	1
150	150	5
112	113	4
149	149	3
241	248	4
201	205	1
189	243	2
210	210	2
157	218	1
63	63	7
206	207	3
12	14	4
43	62	1
170	170	2
180	181	1
218	218	2
69	100	1
210	213	3
218	220	2
16	24	1
48	58	2
113	113	3
151	151	3
168	220	2
81	81	1
68	68	2
76	105	1
78	108	2
57	58	1
31	53	1
244	247	1
234	234	2
34	44	1
6	8	1
247	247	7
191	191	7
67	68	2
220	222	1
243	247	1
102	102	1
71	72	4
153	153	4
70	77	2
1	70	2
15	98	1
13	14	1
14	15	1
168	169	1
2	20	1
16	25	1
150	237	1
165	170	1
174	191	1
168	170	1
99	179	1
171	171	3
81	203	1
62	71	2
5	14	1
197	198	1
85	210	1
49	57	2
183	246	2
22	55	1
213	215	1
183	203	1
164	216	1
67	67	1
224	225	2
235	235	1
34	46	2
20	37	1
11	39	3
58	59	1
101	101	4
193	195	3
159	160	1
12	91	1
57	57	2
221	222	1
213	213	6
44	77	1
118	119	1
217	217	1
194	195	6
192	198	1
54	55	1
102	104	2
202	204	2
40	47	1
5	113	3
33	35	1
52	53	2
24	52	2
20	88	1
29	46	2
144	183	1
202	203	2
17	115	2
178	184	2
55	113	1
159	212	1
16	92	3
4	10	1
240	249	1
168	168	2
206	206	2
76	104	1
46	71	1
228	231	1
112	112	2
50	65	4
92	92	4
198	198	1
41	41	1
82	103	3
167	168	1
3	38	1
58	68	1
17	109	1
179	180	1
149	241	3
184	247	1
48	99	1
12	12	1
73	99	1
168	209	1
174	174	2
214	215	1
44	46	3
26	27	1
42	43	1
211	212	1
176	177	2
237	240	1
163	166	1
27	28	2
230	230	3
3	64	1
178	178	1
51	54	1
81	89	1
161	195	1
150	215	1
208	209	1
168	205	1
55	57	1
0	0	1
94	178	1
219	248	1
64	65	1
73	107	1
74	79	1
215	215	1
71	116	1
94	98	2
55	78	1
190	209	1
160	173	1
84	85	1
163	235	1
58	98	1
71	102	1
203	203	2
224	224	1
22	26	1
52	52	4
161	180	1
151	171	1
240	241	1
32	36	1
208	211	1
224	243	1
46	54	1
83	84	2
119	119	1
71	80	1
225	226	1
64	78	1
172	190	1
14	46	1
189	190	1
167	227	1
188	188	1
212	217	1
12	22	1
227	230	1
157	188	1
3	20	1
19	65	1
15	24	1
169	208	1
