32	33	1
132	132	6
79	79	6
63	63	6
41	41	4
6	42	3
154	154	1
68	96	1
117	118	1
46	46	2
96	96	6
153	153	1
74	75	6
68	68	4
71	71	5
8	16	4
108	126	5
143	143	1
87	138	1
47	153	1
147	148	13
96	97	2
43	43	3
9	18	1
131	131	3
40	40	10
85	85	7
90	99	5
45	45	4
137	137	8
125	125	1
82	94	1
12	12	4
75	75	3
136	138	1
84	139	1
61	61	3
27	27	2
23	24	2
46	47	2
129	129	2
83	83	1
122	126	1
38	38	8
11	11	3
64	66	2
87	87	10
24	24	4
104	106	1
66	66	3
27	28	3
33	33	9
92	92	4
80	81	2
139	141	1
84	85	7
100	100	4
62	62	3
104	104	4
98	128	3
86	87	4
83	84	1
147	147	2
121	124	4
138	138	4
132	133	2
109	109	3
10	12	1
149	149	2
8	9	1
102	103	1
62	65	1
19	19	2
125	147	3
43	46	2
38	41	2
133	133	4
87	89	3
34	50	4
71	92	4
120	120	1
44	44	6
90	142	3
31	31	1
38	42	3
138	139	2
140	143	3
10	10	3
10	11	2
34	35	1
105	105	3
8	8	2
82	142	3
116	116	1
126	126	2
19	20	1
90	128	1
20	20	2
94	94	2
39	45	2
79	80	1
111	111	3
141	141	4
5	5	6
98	98	2
23	31	3
118	130	1
137	138	1
39	39	4
100	102	1
110	110	2
144	144	1
27	75	4
32	32	6
102	125	3
148	148	3
120	123	1
47	48	1
150	150	7
121	143	3
113	113	3
145	149	2
124	124	3
6	7	2
112	112	1
86	86	1
21	21	1
15	16	1
44	46	1
130	130	4
18	19	1
22	22	1
28	28	5
139	140	3
82	95	1
119	119	2
66	132	2
31	35	2
123	123	2
62	77	1
122	124	1
105	120	1
149	150	4
4	5	2
70	70	1
84	84	1
45	69	1
145	145	1
122	122	1
3	3	2
96	98	3
107	107	1
110	134	1
110	113	1
151	151	1
24	70	1
57	69	1
45	133	1
122	149	1
70	77	1
42	43	1
144	152	1
73	73	2
36	37	1
62	79	1
7	7	1
6	6	1
91	97	1
13	13	1
145	146	1
54	54	1
56	57	1
65	65	1
103	104	1
88	88	1
