64	78	6
102	111	5
72	89	4
21	22	2
72	72	9
85	125	5
61	61	7
94	113	4
94	97	2
27	27	6
45	45	2
109	109	9
26	26	9
114	114	6
110	127	3
10	11	4
19	19	2
85	92	1
65	65	7
124	129	2
30	34	1
106	106	11
4	11	1
7	8	5
50	50	5
91	104	1
99	99	9
105	111	1
64	64	12
114	131	1
13	84	2
112	127	1
87	91	2
112	113	1
109	110	2
80	80	11
125	129	1
60	60	7
104	104	5
2	2	6
66	69	2
119	128	5
86	87	2
51	65	1
94	94	4
2	8	3
88	93	1
91	93	5
34	34	7
82	108	3
89	96	3
92	92	8
48	100	5
9	21	1
36	36	3
65	83	5
134	134	5
131	132	2
73	73	6
127	127	1
11	18	1
115	115	3
89	94	6
72	73	2
57	59	4
53	53	8
28	37	4
63	78	1
115	132	3
120	126	4
133	133	7
123	123	9
58	58	8
130	133	4
120	120	6
35	35	9
12	12	5
3	3	5
16	29	1
62	66	3
2	32	2
130	130	5
71	85	3
10	19	1
56	75	1
74	74	2
109	124	1
90	100	1
0	24	2
66	66	10
71	75	3
109	111	2
48	126	2
45	46	5
4	107	3
14	15	2
91	97	1
12	30	1
109	131	4
52	52	8
18	18	1
48	48	14
16	67	2
61	62	3
127	129	2
112	112	5
56	58	5
85	104	1
19	83	3
121	129	2
14	49	4
122	133	2
117	117	1
105	105	7
13	34	5
116	116	1
77	77	3
12	14	1
130	131	2
33	33	6
2	16	2
133	134	1
121	121	1
60	71	3
2	22	2
111	112	1
29	29	7
86	86	3
44	55	3
129	130	1
0	4	2
13	28	3
64	65	1
100	112	3
109	123	2
112	114	1
68	68	5
50	52	2
10	10	8
49	49	3
131	131	2
117	118	1
128	128	6
85	85	7
46	62	2
97	97	3
4	10	1
15	36	2
44	44	6
25	25	3
131	135	2
103	104	2
126	126	6
15	16	1
47	50	1
57	58	3
67	67	2
97	102	2
118	119	1
64	111	1
16	16	3
76	76	4
75	75	1
114	127	3
21	33	1
20	111	2
62	80	1
103	103	2
115	134	4
25	26	2
102	102	7
71	76	3
10	14	2
95	95	3
63	64	2
99	114	1
9	23	5
63	63	2
107	112	1
6	6	2
15	30	1
110	119	1
85	87	2
30	33	2
132	135	2
70	93	2
96	111	2
101	107	3
42	57	1
63	86	1
47	61	2
114	129	3
129	132	2
55	68	2
12	15	1
52	57	1
72	76	2
1	2	3
28	28	2
14	31	2
88	88	1
120	122	3
106	123	1
19	24	1
23	23	2
60	73	3
119	120	2
73	74	1
119	130	4
44	49	2
50	85	1
123	133	2
28	34	3
7	17	1
71	71	2
23	33	2
87	108	4
84	84	3
49	107	1
78	91	1
19	58	2
113	113	5
78	82	3
97	131	1
90	93	1
130	135	4
51	52	1
15	31	1
13	29	6
4	5	4
101	101	4
122	122	3
66	82	1
63	76	1
110	110	2
42	42	3
37	38	1
13	14	3
75	96	3
91	94	1
105	106	3
101	124	2
132	132	2
38	39	1
94	96	2
14	14	3
12	16	1
54	57	3
130	132	4
111	111	2
43	43	2
135	135	4
109	120	1
95	98	3
49	54	1
74	104	1
90	90	1
87	99	2
7	7	2
52	66	2
1	21	1
52	84	2
98	98	5
47	59	1
93	100	1
124	124	4
13	13	1
79	79	3
5	29	5
1	4	2
75	86	2
116	130	1
54	54	1
13	58	2
74	92	2
101	106	2
50	57	1
56	76	3
24	24	3
74	91	1
115	116	1
37	37	1
94	110	2
69	69	3
31	31	2
126	132	2
92	101	1
128	131	3
101	108	1
129	133	2
24	25	1
93	93	1
10	13	1
6	13	1
15	15	1
117	131	1
64	110	1
107	107	2
8	27	1
61	67	1
97	99	2
123	125	1
57	84	2
62	63	1
106	107	1
21	21	1
108	108	2
6	22	1
48	55	1
91	91	2
22	36	2
83	105	1
52	65	1
8	36	1
1	1	3
15	108	1
36	38	1
101	120	1
74	75	1
98	99	1
15	49	1
110	124	1
126	127	1
99	132	1
11	13	2
23	24	1
118	118	1
79	80	1
127	128	1
35	43	1
11	11	1
17	17	1
10	12	1
