11	12	6
89	89	15
11	11	8
96	111	2
88	89	6
87	87	11
22	24	1
135	136	1
14	14	14
14	90	2
71	71	18
75	75	15
117	117	18
111	111	15
32	32	11
77	77	6
4	4	24
126	132	7
100	100	12
83	83	8
15	15	18
17	17	17
0	93	3
44	44	4
115	116	1
2	27	4
104	104	14
132	132	18
29	30	10
10	10	7
108	108	17
86	86	12
114	114	17
122	123	4
1	15	3
91	91	17
102	102	23
95	95	13
13	13	18
73	74	6
10	11	9
2	2	25
127	127	20
72	72	13
27	28	15
10	14	7
85	118	1
139	139	4
108	112	3
101	101	26
28	28	5
115	115	18
6	6	12
119	119	3
116	116	14
32	33	1
9	9	18
33	111	5
18	18	10
116	117	8
110	110	27
76	76	8
26	27	4
79	79	18
105	105	19
34	34	10
77	104	4
9	92	4
126	127	6
31	31	12
73	73	12
7	7	22
13	91	3
128	128	14
137	137	15
107	107	12
34	35	9
21	21	11
103	103	17
6	94	1
116	121	3
126	126	15
112	112	24
124	124	33
123	124	3
99	100	2
94	109	1
108	119	1
23	23	6
135	139	2
122	122	14
129	129	10
92	92	9
100	102	1
90	90	14
5	5	15
30	30	17
81	81	9
131	131	10
80	80	17
36	37	3
15	16	3
36	36	18
121	121	4
100	101	5
138	138	12
8	112	4
77	78	6
27	27	7
81	82	3
30	31	10
109	109	16
82	86	1
125	126	5
97	98	5
33	34	3
16	16	12
111	114	3
0	0	7
33	37	6
118	118	10
10	13	2
88	88	8
96	97	6
20	22	4
110	112	9
106	106	7
29	29	13
0	4	1
33	33	12
82	82	18
99	99	6
17	19	2
136	136	10
135	135	4
38	38	6
35	35	28
20	20	7
129	130	8
12	12	8
78	78	12
95	108	1
94	94	13
107	116	6
13	14	8
3	3	18
90	91	6
96	96	14
97	97	4
24	24	7
85	86	5
37	37	6
89	90	6
23	24	3
1	1	12
95	112	1
104	105	4
21	27	3
26	26	17
131	132	3
88	123	2
114	115	6
107	108	2
82	103	2
81	83	2
124	125	4
35	36	2
123	123	11
93	93	5
117	119	3
110	111	3
140	140	15
4	27	1
28	29	9
116	119	2
127	128	5
113	114	4
93	94	2
133	133	6
9	93	4
98	103	3
79	80	3
98	98	13
73	80	1
14	16	2
9	116	1
134	135	4
108	109	4
92	120	6
87	88	2
19	19	8
74	76	3
76	104	3
92	114	2
103	104	11
74	74	13
113	113	10
71	126	4
85	119	2
32	86	2
24	25	2
83	85	3
4	91	1
71	124	1
97	107	2
134	134	12
74	132	3
91	120	3
103	128	3
120	120	10
112	113	4
83	84	1
111	112	5
103	107	2
3	112	3
25	26	5
22	22	3
105	107	2
121	122	3
85	85	6
14	117	1
76	87	2
128	129	4
75	87	1
3	93	1
8	8	2
25	25	5
94	112	1
125	125	12
2	3	3
82	97	2
15	19	2
80	132	2
1	12	1
84	84	2
95	97	1
120	122	3
99	114	1
3	7	5
128	130	1
7	12	1
38	68	2
20	21	6
5	25	1
13	90	2
28	84	1
125	127	1
89	120	3
132	133	3
101	102	2
14	15	2
102	114	2
3	4	3
67	93	1
120	121	3
89	123	2
26	73	1
76	77	3
2	4	2
130	130	5
90	116	4
30	32	2
8	111	1
7	8	4
33	110	1
72	73	2
73	86	1
23	38	2
84	85	3
117	118	3
6	7	2
29	32	3
6	95	2
78	81	3
19	20	2
29	84	1
75	133	2
6	83	1
116	120	2
104	122	3
73	113	1
78	79	2
15	17	1
17	18	3
107	119	1
99	115	1
78	104	1
95	100	1
137	140	3
37	112	1
16	17	3
74	80	3
2	16	1
109	120	1
89	91	1
0	2	1
102	103	1
126	130	1
21	24	1
77	79	1
137	138	1
110	113	1
0	1	1
24	26	2
105	106	1
8	101	1
88	119	2
94	101	2
95	96	1
89	116	1
1	10	2
74	86	1
101	125	1
127	132	1
119	120	2
93	102	1
8	9	2
21	22	1
31	32	2
12	13	1
89	118	1
96	130	1
12	18	1
75	80	1
18	19	1
101	121	1
94	95	1
25	73	1
69	135	1
31	34	1
93	119	1
