106	108	2
96	96	3
68	68	9
90	90	1
13	14	1
11	12	1
118	118	12
43	43	3
127	127	4
94	94	9
77	81	6
109	110	2
44	44	8
133	133	5
42	60	6
79	79	4
55	55	3
97	97	4
91	91	4
48	55	3
11	11	3
112	113	2
25	25	10
40	40	8
78	80	2
15	15	5
33	33	11
58	59	2
27	27	14
76	85	2
108	116	6
77	77	8
129	129	7
7	23	2
42	42	6
102	102	9
4	14	3
97	98	7
109	112	3
6	6	6
28	28	12
54	54	8
112	133	3
75	127	1
71	71	8
108	108	11
31	32	2
93	93	9
95	96	3
85	85	7
67	67	9
46	74	3
115	116	6
52	52	5
57	72	5
127	128	8
20	25	1
114	116	6
114	117	5
70	78	1
48	49	4
17	17	4
16	16	5
46	46	12
128	131	3
21	25	3
105	105	2
2	30	1
83	84	8
130	131	3
117	117	13
8	8	16
75	75	12
92	93	2
40	46	2
112	112	5
115	115	5
125	125	10
64	69	3
62	64	2
51	51	4
128	132	2
126	127	1
4	4	9
123	123	4
103	103	6
98	98	8
122	122	6
117	125	1
21	21	5
17	18	5
130	130	6
19	19	9
2	24	2
46	47	1
131	131	5
67	71	2
120	125	3
5	5	5
60	61	2
112	120	3
42	43	2
57	57	6
107	114	1
37	37	2
1	1	1
62	68	6
58	58	4
13	13	6
49	49	4
81	82	1
70	72	1
27	28	4
112	118	4
2	2	5
3	9	1
63	63	8
124	124	3
64	64	8
125	128	3
82	82	4
110	111	2
71	73	2
95	95	8
104	105	1
127	129	3
49	122	1
18	18	4
32	60	1
41	45	3
33	34	4
48	52	1
87	90	2
17	19	1
47	47	8
91	92	4
116	122	3
81	81	5
38	39	6
9	9	1
31	31	6
19	20	2
70	70	3
66	66	1
116	116	6
107	107	6
108	109	1
118	128	3
62	62	4
111	111	8
113	114	4
29	30	2
1	17	2
69	69	10
113	113	1
8	21	2
30	30	7
88	95	2
34	34	2
55	67	3
85	90	1
107	108	2
128	130	4
96	125	3
29	29	7
50	52	2
5	22	2
99	99	5
45	45	7
60	60	4
48	48	5
78	79	2
7	13	1
32	32	4
46	65	1
3	3	8
53	53	5
119	119	3
90	100	1
30	41	1
118	120	1
1	23	1
113	116	4
110	110	3
50	50	7
89	107	3
128	128	3
102	120	1
57	73	1
15	16	3
88	89	5
12	12	7
79	80	5
126	126	5
84	84	4
120	120	3
89	90	5
5	28	6
74	74	6
61	61	3
132	132	6
83	83	4
10	10	6
38	40	3
14	14	6
7	14	1
59	59	2
38	61	1
8	18	2
71	72	1
74	89	1
54	73	5
0	1	2
90	91	1
80	82	1
129	132	1
80	81	5
20	20	4
47	55	2
41	41	5
41	46	2
13	16	3
98	99	4
73	73	3
105	107	3
26	26	10
99	103	1
27	133	1
73	83	2
87	109	1
56	71	1
21	22	1
88	119	1
25	29	3
67	69	3
0	7	1
92	92	5
106	106	6
55	63	2
79	96	2
89	102	1
56	56	1
108	115	2
7	7	6
59	65	1
51	122	2
22	22	1
26	27	6
0	2	1
109	109	7
74	81	3
7	18	3
3	11	2
75	76	2
29	34	2
53	132	2
13	23	2
41	42	2
101	126	1
88	88	2
70	81	2
50	53	1
87	98	1
72	74	2
105	109	2
88	92	2
88	107	1
48	66	1
61	67	2
56	63	2
44	45	3
76	76	2
128	129	1
43	44	2
93	94	2
121	122	2
101	116	2
47	52	2
60	68	2
127	130	1
86	87	1
117	132	2
68	69	1
129	130	2
103	105	2
62	69	1
100	100	6
104	108	4
65	65	5
130	133	1
111	112	1
0	0	2
87	88	3
34	44	1
86	86	1
89	89	5
76	133	1
60	62	3
87	87	1
38	95	2
77	131	2
10	15	6
72	73	1
39	39	7
1	15	3
33	60	2
101	103	1
104	112	1
10	11	6
23	23	1
101	127	3
114	114	2
84	85	1
14	18	1
58	64	2
2	14	1
69	81	1
88	96	2
30	40	1
101	101	1
9	10	1
76	81	1
90	103	1
15	18	1
114	122	1
111	117	2
53	54	3
45	47	1
118	119	1
2	22	2
121	121	4
42	126	2
2	25	1
1	3	1
108	114	1
70	71	1
78	89	2
81	86	1
70	75	2
55	66	1
108	118	1
47	54	2
51	52	3
71	78	1
95	125	1
24	26	2
87	103	2
41	44	1
72	72	1
101	112	2
67	131	2
32	42	1
117	119	1
71	74	1
110	120	1
73	77	1
25	26	1
2	7	1
102	103	1
94	96	1
32	33	1
124	125	1
7	111	1
67	70	1
49	52	1
105	119	1
95	100	1
69	73	1
102	104	1
105	120	1
50	59	1
101	102	1
83	85	1
33	61	1
48	132	1
102	112	1
13	26	1
48	112	1
