8	8	4
93	93	2
131	133	2
152	158	2
81	87	2
23	24	6
2	5	2
116	116	8
91	93	1
0	50	1
128	128	7
85	132	1
43	43	6
102	102	4
77	77	1
101	101	2
40	55	1
132	132	2
25	25	4
118	118	1
108	109	3
6	52	2
63	63	2
13	27	1
17	81	1
3	3	3
110	110	3
134	134	4
123	124	1
125	127	2
88	88	2
7	7	5
115	128	2
37	37	1
10	11	2
83	84	5
14	14	9
147	147	4
140	155	4
123	126	4
143	144	1
66	70	3
1	85	6
105	106	2
26	28	1
94	94	2
15	15	7
36	41	3
46	46	5
66	67	2
36	37	1
5	5	1
142	142	1
119	119	4
16	16	1
51	71	2
105	105	5
143	146	1
54	96	2
8	9	2
39	39	2
122	122	6
55	55	3
30	30	4
11	14	1
4	4	3
81	82	3
82	84	1
138	139	1
129	130	3
48	48	5
2	7	3
119	132	1
31	31	1
126	126	4
33	34	4
122	140	2
137	146	1
152	152	2
104	104	3
108	111	2
120	122	6
134	135	2
103	103	4
65	73	1
29	33	1
9	9	3
78	78	3
120	121	3
121	122	2
126	136	2
3	139	3
138	138	3
40	40	5
115	116	3
23	25	3
135	148	4
11	13	1
143	158	1
136	145	1
71	71	2
6	10	3
11	11	1
120	141	1
87	90	5
133	142	4
155	155	3
35	35	4
139	140	2
98	98	5
116	123	3
68	71	1
65	65	3
94	97	1
18	32	2
95	97	1
67	67	3
27	27	8
1	5	1
6	76	3
135	137	3
14	16	2
118	119	1
124	126	3
39	40	2
12	12	4
76	132	1
38	39	2
135	135	1
8	11	2
137	139	1
128	134	7
122	132	1
13	13	3
17	18	2
132	135	2
50	51	1
17	17	1
6	31	1
131	135	2
33	38	4
119	148	1
91	91	2
52	88	2
36	80	1
16	17	2
107	107	2
141	141	1
116	117	2
101	109	2
109	110	1
23	23	2
108	108	3
157	157	3
77	97	1
45	64	1
106	107	2
53	86	1
127	127	5
139	139	1
46	92	1
22	22	2
76	77	2
142	144	1
67	85	3
124	124	2
18	18	1
33	33	2
104	105	2
86	86	2
64	65	2
99	99	2
1	6	1
153	153	2
16	83	4
129	129	3
145	145	2
75	87	2
80	86	1
47	149	3
144	144	3
86	90	1
131	132	3
124	125	1
106	106	2
0	0	5
46	50	1
148	148	4
2	2	4
138	140	1
44	48	2
21	21	3
84	84	2
81	81	4
130	130	4
144	154	1
81	93	3
98	100	2
144	156	1
104	136	1
9	19	2
137	138	2
46	90	2
19	56	2
120	140	1
149	158	1
38	38	2
123	123	2
124	132	1
14	31	1
24	24	2
22	25	1
52	52	1
108	133	3
142	145	1
20	20	1
115	151	1
115	115	1
48	49	2
29	29	1
16	33	1
117	118	1
104	138	1
131	131	1
3	4	1
53	87	1
151	158	1
6	6	1
120	120	1
119	137	1
108	120	2
116	128	1
104	127	1
125	125	1
121	121	1
15	16	1
99	100	1
139	144	1
54	64	1
117	117	1
92	97	1
42	42	1
41	41	1
49	49	1
