131	131	1
78	96	2
21	28	3
12	12	1
120	150	1
64	69	3
11	18	2
8	30	1
3	3	3
68	68	4
42	42	4
33	35	5
2	2	2
62	67	3
165	182	4
15	15	3
120	120	6
113	113	2
5	23	3
46	48	4
53	53	4
22	130	4
171	171	2
150	163	1
133	152	2
164	164	1
161	161	5
85	85	3
4	13	3
40	40	1
104	104	3
152	152	3
192	194	2
178	179	10
32	34	3
114	118	7
36	36	6
97	97	1
59	59	4
24	29	2
40	63	3
34	34	9
98	98	8
25	56	2
135	136	6
168	171	2
9	16	2
46	66	2
130	143	5
148	148	3
115	125	1
64	64	9
66	77	2
118	140	5
51	51	5
43	43	2
14	14	2
43	62	1
103	109	1
123	124	4
6	10	1
54	71	2
192	192	4
60	77	3
156	176	4
117	125	1
58	58	1
24	24	1
61	77	7
36	56	3
73	89	2
89	89	2
23	24	1
139	143	1
124	146	1
99	100	3
161	180	1
6	6	4
149	171	2
22	33	1
86	86	9
147	148	2
187	188	3
177	177	4
158	171	2
61	62	1
1	2	6
113	114	3
64	79	1
2	8	2
172	188	5
188	193	3
70	70	3
170	170	1
32	32	2
93	95	2
99	108	1
94	105	2
31	37	4
118	119	2
153	153	1
100	105	5
9	30	3
138	138	4
193	196	1
20	39	2
80	95	2
11	38	1
142	160	6
59	66	3
78	78	5
21	31	3
0	29	4
159	169	2
27	27	3
70	107	2
163	163	3
191	191	7
38	38	1
153	158	4
0	8	3
38	63	3
159	164	4
66	84	1
68	72	3
82	82	1
44	44	3
179	181	5
117	120	4
135	153	1
175	180	1
142	191	1
161	162	2
60	60	2
162	184	2
155	155	1
4	4	1
159	160	1
45	48	2
190	190	3
29	29	5
72	73	2
119	119	3
4	22	1
74	84	1
102	136	2
179	179	5
61	68	2
30	48	2
5	5	4
26	44	1
195	197	1
130	142	1
43	60	1
141	141	4
129	139	7
106	112	1
134	138	2
5	6	2
196	196	6
124	124	1
17	37	1
6	24	3
186	186	3
18	24	2
55	57	4
109	111	4
165	183	1
101	121	1
65	136	5
101	118	1
93	103	1
132	132	2
0	159	1
49	50	1
152	156	2
149	149	2
33	119	1
187	187	2
156	160	1
175	178	1
178	191	2
180	197	1
107	107	1
181	188	2
128	129	2
168	193	2
7	7	4
50	50	4
107	111	1
39	39	5
21	40	1
42	43	1
110	110	4
166	166	6
122	132	2
151	153	1
98	101	1
65	65	2
113	125	2
162	165	1
63	63	1
99	99	3
180	180	1
23	28	3
137	137	1
28	66	1
114	133	1
23	26	1
64	137	1
56	56	2
21	26	3
176	189	2
116	126	3
45	66	1
153	160	1
5	24	1
71	71	1
177	188	1
15	16	3
76	76	2
7	133	1
6	9	4
96	109	1
105	119	1
162	162	1
193	193	2
93	109	1
145	154	1
122	124	2
69	86	2
151	151	2
189	189	2
109	109	2
66	90	2
55	62	2
48	52	2
118	132	2
83	83	1
62	84	1
74	83	1
194	197	3
107	109	1
21	21	1
47	47	1
106	115	1
46	46	3
107	108	1
99	115	1
145	145	2
78	107	1
57	70	1
95	95	2
128	146	2
50	67	1
55	55	1
43	44	1
42	55	1
194	194	1
159	166	2
31	31	1
73	78	1
190	192	1
79	108	1
63	68	1
1	22	1
135	135	1
145	160	1
39	57	1
8	14	2
63	64	1
45	45	3
175	191	1
64	78	1
68	69	1
118	118	1
108	147	1
56	57	1
36	53	1
16	34	1
15	36	1
171	172	2
54	54	1
102	111	1
132	133	1
183	183	1
3	8	1
102	102	1
23	25	2
37	37	1
73	73	1
105	129	2
51	54	1
22	22	1
137	138	1
175	194	1
11	11	1
109	120	1
95	96	1
182	183	1
152	153	1
10	19	1
20	27	1
17	30	1
159	159	1
86	89	1
140	140	1
