62	92	7
11	11	7
114	115	5
2	2	14
53	53	14
61	61	6
124	124	8
56	56	19
72	72	5
3	3	7
39	44	3
48	101	1
31	31	7
20	20	7
117	117	12
112	113	1
11	20	6
71	73	1
125	126	1
2	4	2
13	15	2
82	83	2
69	69	6
23	25	4
120	120	10
65	65	10
91	91	26
55	86	2
34	34	3
65	97	7
106	106	23
30	30	6
119	122	4
55	55	6
42	42	8
13	108	7
93	94	8
41	72	3
121	122	5
91	92	1
63	63	13
50	50	10
115	115	7
5	5	12
51	53	5
49	49	16
85	85	11
6	6	7
23	23	7
50	51	7
132	133	4
74	74	2
116	117	8
105	116	5
98	98	22
128	129	5
119	130	4
94	94	5
52	53	4
48	48	10
51	51	17
54	54	7
52	52	12
61	62	9
67	100	6
26	26	8
109	109	7
77	77	11
111	111	6
6	7	7
1	1	12
57	64	3
47	47	4
99	99	3
29	29	4
106	107	1
78	79	4
6	100	1
1	12	2
4	4	4
84	85	2
81	81	11
69	70	10
133	133	5
100	100	5
43	43	11
113	113	7
83	83	7
54	87	2
1	3	4
70	71	2
53	54	7
14	14	3
103	107	2
82	82	10
58	58	3
0	109	10
124	125	1
107	114	2
24	24	7
76	76	2
108	108	7
51	52	4
89	90	3
24	27	1
63	98	2
119	129	3
18	19	4
0	7	2
13	13	5
31	32	6
110	110	4
20	21	2
57	57	2
29	32	6
84	84	9
43	44	3
49	50	5
90	90	2
1	32	3
130	130	2
101	101	7
39	40	2
12	12	9
102	114	7
64	65	2
38	38	1
123	124	2
65	81	5
79	101	2
105	105	6
24	26	7
114	117	1
121	121	8
92	92	14
104	104	5
93	93	4
114	116	3
28	28	6
96	96	12
9	9	9
99	105	2
33	33	10
97	97	2
9	22	2
70	75	6
56	57	1
7	7	6
51	100	2
125	125	6
131	131	7
29	30	8
111	113	3
79	79	7
116	116	4
58	62	2
60	60	2
16	19	2
0	0	4
14	108	3
85	91	1
19	19	5
107	107	4
54	56	2
112	112	2
126	127	2
122	122	8
57	59	5
67	67	2
27	27	2
18	18	8
38	44	4
100	101	2
44	45	7
113	114	1
40	41	1
62	62	5
89	89	6
44	44	7
15	15	1
68	80	3
57	104	6
71	71	8
75	81	4
92	93	1
11	12	4
75	75	2
79	80	3
88	90	4
109	110	1
80	80	4
108	116	1
16	16	3
87	87	2
81	82	4
57	95	3
107	108	1
32	32	3
110	111	1
10	10	1
0	25	1
5	16	1
95	95	2
75	90	1
104	105	4
102	106	5
102	115	1
46	50	3
73	74	3
103	103	4
71	86	2
122	131	1
69	72	1
120	131	2
40	40	1
97	98	1
59	59	2
123	123	2
78	78	1
8	8	2
22	22	1
102	102	3
8	32	2
24	25	2
21	21	3
60	62	1
70	70	1
105	112	1
52	54	2
114	114	1
30	31	1
25	25	3
69	78	1
13	14	1
82	92	1
31	47	1
58	65	2
101	103	2
100	106	2
66	104	1
86	88	1
57	58	2
56	95	1
45	45	1
82	89	1
86	86	1
63	64	1
39	39	1
86	87	1
2	12	1
41	41	2
26	30	1
132	132	1
89	91	1
12	49	1
102	105	1
9	10	2
127	127	1
64	64	2
4	5	1
64	93	2
16	17	2
111	112	1
42	69	1
37	38	2
106	114	1
46	46	1
40	77	1
8	38	1
122	123	1
25	26	1
17	17	1
