118	118	3
149	149	11
25	42	2
23	23	4
83	83	5
55	56	2
65	65	1
40	40	5
16	41	3
31	31	4
138	149	7
138	138	5
102	102	2
67	67	2
117	118	2
105	105	1
37	37	2
66	66	8
74	74	3
106	106	4
78	78	7
73	74	7
85	86	2
22	22	3
4	11	2
98	99	6
117	117	3
41	41	5
87	87	5
131	131	5
8	9	6
47	47	6
62	62	2
97	97	5
111	111	3
136	136	7
14	14	1
135	135	2
109	109	2
115	116	2
133	134	4
94	98	7
115	115	8
35	37	1
123	124	3
114	114	1
121	121	7
85	87	1
48	48	1
138	139	3
107	108	4
24	24	4
111	113	4
29	30	2
122	122	5
42	43	5
27	27	2
69	70	3
130	130	1
73	73	3
9	9	3
94	137	1
29	29	3
64	65	3
76	76	5
17	17	3
20	20	6
41	42	3
113	113	2
135	138	3
8	10	3
123	123	3
11	68	3
149	150	1
16	16	10
139	141	2
140	149	3
152	152	7
38	38	3
116	116	1
77	103	1
150	150	2
12	12	3
56	56	3
45	45	2
30	31	3
43	43	3
74	75	4
25	25	3
25	126	1
3	5	2
144	148	4
23	72	2
6	6	2
15	15	2
18	39	1
56	63	1
130	137	2
113	114	1
96	96	2
129	129	3
108	121	2
82	82	4
28	108	1
26	29	1
100	101	1
141	141	5
79	79	1
48	49	2
63	63	4
66	68	4
44	44	6
11	12	3
25	30	2
149	151	2
110	110	1
70	70	5
84	84	6
55	68	2
95	132	1
57	76	1
135	151	1
147	147	5
81	82	2
13	13	6
63	72	1
97	98	1
140	141	4
137	137	1
47	48	2
103	103	2
42	42	7
47	71	6
31	127	2
40	41	3
36	36	1
71	71	1
32	32	2
36	37	4
11	11	4
31	126	2
139	139	2
63	75	2
4	4	1
100	100	2
85	130	2
45	46	1
78	79	1
99	99	4
89	90	1
126	126	5
77	77	3
24	25	2
19	19	1
133	133	2
33	57	1
14	69	5
33	33	1
86	137	3
143	143	3
31	62	2
92	93	3
136	151	3
22	23	2
10	11	1
101	103	1
51	51	3
50	50	2
145	145	2
69	71	1
15	43	1
144	145	1
34	34	1
26	26	3
37	122	2
5	5	2
146	147	1
153	154	3
81	81	2
106	107	3
119	120	1
63	73	3
7	7	3
17	18	1
95	133	1
75	78	1
28	29	3
129	135	2
140	140	2
116	118	1
107	107	2
49	73	4
93	93	2
35	114	3
64	64	2
35	123	1
139	149	3
113	119	1
112	112	1
29	128	1
134	135	1
151	152	1
62	71	1
86	86	1
141	142	3
29	57	1
92	92	1
105	106	2
75	75	1
45	68	1
39	39	2
94	94	2
96	97	1
8	8	1
128	128	1
95	95	1
26	27	1
50	73	2
22	38	1
6	7	2
49	49	1
95	96	1
21	21	1
130	132	1
140	142	1
65	75	1
83	104	1
10	10	1
12	13	1
6	10	1
10	55	1
88	88	2
7	8	1
