120	132	4
36	36	5
71	72	2
32	41	3
35	59	2
50	50	5
46	46	4
79	98	1
103	104	2
91	92	6
25	25	6
33	33	11
122	122	1
71	82	2
92	92	4
86	86	10
78	78	7
106	123	5
76	76	13
113	121	4
20	20	3
40	40	3
8	9	4
69	69	3
111	111	5
88	105	6
101	101	8
1	2	7
117	117	10
72	73	3
12	12	21
77	77	6
96	98	3
17	59	4
62	125	1
72	72	7
119	119	9
8	25	5
18	18	10
99	133	3
133	133	13
108	125	2
34	46	3
78	89	3
99	115	3
75	75	9
19	26	4
89	120	5
73	74	2
65	65	11
60	60	20
61	61	10
116	116	15
95	95	10
34	42	2
131	131	6
132	132	6
10	22	2
95	96	5
59	59	7
88	89	2
32	32	5
112	112	12
21	21	12
49	49	1
127	127	2
27	133	1
64	93	4
107	107	4
47	61	4
86	88	5
28	28	7
87	96	2
8	8	7
19	19	9
114	114	4
21	22	1
13	13	7
0	0	19
14	41	2
73	94	3
8	16	3
13	22	1
89	119	2
129	129	11
80	81	1
56	56	10
109	109	4
6	22	2
68	70	5
11	11	14
122	123	13
73	90	2
35	56	1
3	3	2
80	80	2
57	82	5
99	131	6
105	105	2
98	100	4
106	121	3
29	29	7
124	124	12
10	10	5
9	9	13
1	1	11
16	74	4
34	34	10
86	134	3
131	134	2
99	101	2
71	71	12
70	70	3
85	85	3
94	127	1
37	37	9
115	115	7
45	45	5
29	30	3
58	59	1
84	84	7
99	116	2
134	134	6
82	93	1
88	90	1
66	66	6
32	33	6
80	85	1
99	102	4
67	67	12
82	96	3
102	111	3
73	73	8
117	129	3
15	15	11
68	69	3
57	57	4
101	117	5
124	127	3
103	127	4
57	112	1
95	111	3
44	44	7
94	94	5
63	65	2
7	7	6
95	129	2
38	38	2
35	35	6
27	34	2
62	62	8
110	111	9
16	16	6
27	45	1
5	10	2
80	101	3
43	44	3
74	94	1
58	80	1
123	124	3
6	6	6
120	120	7
20	23	2
68	68	13
36	50	2
39	57	3
0	3	2
55	56	7
115	116	4
47	47	2
113	128	3
110	121	3
88	88	8
17	17	5
4	11	4
39	41	1
10	13	1
5	28	2
104	132	1
98	99	1
102	130	2
93	127	1
42	47	1
42	43	3
130	130	3
12	14	3
123	123	9
105	114	2
99	111	3
110	112	1
102	102	2
4	4	2
23	44	3
74	74	3
94	101	1
38	81	2
105	107	2
98	115	2
99	99	8
80	108	2
84	85	1
27	28	1
36	49	5
61	92	3
17	21	1
120	121	3
94	111	3
39	79	3
10	11	4
96	96	4
81	81	7
36	37	2
23	23	1
34	36	1
90	127	3
17	42	3
74	91	3
87	97	1
98	98	3
84	86	2
95	97	1
94	95	4
26	33	3
81	96	4
118	118	2
82	82	5
126	126	6
69	72	1
23	41	1
87	87	3
2	2	11
54	58	1
40	45	1
112	113	4
81	100	2
15	16	1
127	133	2
72	78	3
48	48	2
19	20	1
99	130	2
112	128	2
27	27	2
18	45	2
9	20	3
33	45	2
122	134	3
30	30	9
113	113	2
129	134	3
81	94	2
70	71	3
77	119	2
118	129	2
63	63	7
41	41	4
58	58	2
64	64	6
59	70	1
105	122	3
0	68	2
31	31	12
18	38	2
20	21	2
14	14	5
115	134	2
96	129	5
7	40	1
108	120	1
14	38	2
37	38	3
5	13	1
78	79	5
79	79	4
16	17	3
98	101	4
127	132	3
97	97	4
98	104	1
106	106	1
5	6	2
127	130	2
128	129	1
5	44	2
13	14	2
7	18	1
26	37	2
28	44	1
78	113	2
103	134	1
42	46	1
114	129	3
83	83	2
80	106	1
65	93	1
107	108	4
125	125	1
76	77	5
113	124	2
82	89	2
91	105	2
34	40	1
125	129	3
42	42	6
92	121	2
112	122	4
41	42	1
73	78	3
10	14	1
66	97	1
90	94	1
51	76	1
56	70	1
56	57	2
92	128	1
61	64	1
105	132	3
59	66	1
106	117	1
91	102	3
37	50	1
7	8	2
75	76	1
60	69	2
103	103	2
79	80	2
110	110	3
103	118	3
85	109	1
5	25	1
108	109	2
3	29	2
92	93	3
65	67	3
120	134	2
13	45	1
57	123	1
34	45	2
59	81	1
82	125	1
90	90	2
91	115	3
59	67	1
91	91	2
8	15	1
14	15	1
81	125	1
64	71	2
31	44	2
8	36	1
124	126	2
123	132	1
25	42	1
65	86	2
97	99	4
55	55	1
77	78	2
115	126	2
0	6	4
100	103	2
49	56	1
26	26	1
4	5	1
14	62	1
113	114	2
57	111	1
107	113	1
104	133	2
35	36	1
27	44	1
26	42	1
74	76	1
57	80	2
48	61	2
107	114	1
104	104	1
0	33	1
100	131	1
57	70	1
77	79	1
23	24	2
85	91	1
67	68	1
85	116	1
59	68	2
93	94	1
103	108	2
25	38	1
122	130	1
102	118	1
4	6	1
81	91	1
128	128	1
106	132	1
92	115	1
15	23	1
18	19	2
28	33	1
76	122	1
23	25	1
22	22	1
121	121	1
81	102	1
78	81	1
18	46	1
41	60	1
24	38	1
89	90	1
103	130	1
108	108	1
13	15	1
0	9	1
66	118	1
36	60	1
82	85	1
93	104	1
87	88	1
37	39	1
70	80	1
