207	217	1
191	192	4
191	194	2
18	22	1
72	83	3
170	170	4
217	223	1
192	192	2
85	90	1
6	6	3
242	242	2
230	241	3
44	46	1
111	135	1
104	107	4
198	201	1
240	241	2
153	153	2
152	152	4
45	45	7
148	159	1
69	69	2
108	109	4
52	56	3
153	158	2
88	112	2
97	110	2
161	161	1
213	222	1
131	142	3
183	183	2
199	200	6
210	215	2
231	234	1
170	171	1
14	29	1
42	55	3
107	111	2
140	140	2
79	79	2
12	20	1
239	242	1
229	229	4
11	11	1
233	233	4
36	38	6
26	26	4
105	105	9
212	223	3
185	185	1
132	138	3
27	28	2
68	71	5
224	236	2
169	170	2
104	104	3
49	55	3
183	198	1
6	8	3
40	41	4
4	4	1
201	212	1
158	164	2
7	7	3
61	64	2
158	172	2
4	7	2
238	242	3
127	139	3
117	117	4
185	195	4
171	176	2
127	135	4
176	180	5
148	156	3
224	225	6
126	127	5
3	16	4
81	83	4
36	43	1
153	155	6
120	138	1
203	203	3
213	214	2
210	227	1
124	141	1
239	239	4
186	187	2
163	165	5
205	214	3
39	44	1
220	220	2
103	105	1
210	210	4
49	56	2
124	124	3
20	34	2
195	196	5
55	57	1
33	38	6
223	242	3
35	35	2
61	70	2
204	231	2
160	166	2
47	58	3
63	66	5
227	237	2
169	173	6
86	86	8
44	49	2
39	51	1
14	23	1
227	236	4
148	148	3
143	145	1
88	88	5
151	163	1
129	144	2
33	41	4
80	83	2
25	35	1
81	82	3
138	148	3
105	107	4
42	43	4
235	235	1
121	135	2
7	8	4
51	53	1
136	142	1
121	121	2
129	132	3
82	84	3
172	176	1
168	168	2
27	34	2
173	177	2
169	169	5
48	57	2
25	28	2
0	7	1
95	95	4
179	211	3
31	32	2
165	171	1
0	3	2
143	143	6
98	110	1
14	14	4
168	178	2
186	196	4
172	175	2
173	175	2
122	123	2
125	125	3
206	206	1
6	11	2
67	67	3
15	26	1
142	142	3
140	143	2
65	75	1
228	228	1
196	196	2
160	162	3
172	172	7
30	33	3
28	33	4
26	38	2
29	29	1
158	158	4
84	89	4
112	115	2
137	137	4
149	159	1
37	44	5
44	44	1
3	12	2
6	9	3
141	155	1
224	227	2
129	136	1
220	224	1
155	173	4
14	15	1
209	209	5
61	75	3
51	51	4
140	145	3
100	101	1
43	45	2
119	121	2
26	37	3
24	35	1
168	171	2
12	16	4
181	185	1
135	138	1
96	96	2
201	203	4
69	77	1
50	51	2
9	18	2
227	227	5
12	14	2
161	164	2
5	5	2
49	49	5
236	236	2
73	79	6
231	231	4
198	203	2
216	216	7
205	206	3
56	66	1
129	129	2
29	32	1
59	65	4
133	137	3
75	79	1
199	205	3
52	52	2
145	153	6
62	64	1
2	5	2
5	13	1
201	201	2
221	221	3
65	71	1
103	104	1
54	61	4
38	53	3
60	60	3
69	84	3
107	107	6
108	108	1
216	217	4
12	15	4
225	238	5
164	174	3
148	150	4
215	221	3
47	47	3
211	211	6
101	106	1
223	223	5
18	21	3
208	224	2
218	230	2
47	51	2
146	160	1
147	157	3
79	85	2
213	225	1
150	153	1
234	234	6
98	99	1
40	40	2
229	230	1
165	165	1
141	153	2
65	73	1
151	162	2
1	16	2
161	162	3
102	102	1
134	139	4
41	45	2
190	197	3
231	233	1
0	5	1
109	116	2
66	82	2
61	66	4
176	183	1
8	8	3
9	22	2
189	190	5
122	122	2
125	133	1
38	38	3
105	140	2
172	173	4
153	154	2
188	197	4
104	106	5
81	81	1
127	128	3
46	46	1
52	57	3
27	27	1
119	130	2
201	215	2
66	66	1
109	109	1
133	133	1
137	153	1
41	50	3
71	79	3
29	38	3
123	128	1
176	178	3
64	135	1
109	133	1
144	146	3
113	113	7
197	198	3
67	80	1
128	128	1
64	64	3
203	206	2
230	239	1
176	177	1
226	234	2
216	230	1
139	143	1
109	121	1
3	15	1
138	138	4
193	194	1
76	76	2
136	136	3
222	232	1
150	150	1
51	55	3
176	176	1
156	156	1
156	167	1
141	143	3
234	241	1
162	164	2
19	22	1
77	78	3
179	180	1
109	113	2
56	56	4
164	167	2
225	226	2
39	39	1
174	175	2
80	80	1
47	48	5
152	166	1
0	25	1
10	17	2
159	159	3
232	232	2
10	14	2
136	138	2
173	191	3
227	228	1
176	196	3
118	122	1
71	72	3
84	84	4
3	6	2
56	57	2
76	85	1
12	12	2
232	237	1
50	54	1
156	163	2
3	3	2
232	233	3
3	7	1
205	205	1
119	119	2
227	242	1
166	175	2
206	212	1
216	219	4
120	120	1
148	163	1
18	39	1
130	142	3
188	191	1
198	213	2
204	212	2
8	14	1
203	215	1
196	197	1
116	121	1
144	154	1
113	124	2
225	240	2
19	30	2
153	173	1
157	157	1
13	13	1
227	229	1
204	204	3
200	205	1
165	177	1
187	187	2
220	221	3
74	79	2
116	122	2
164	175	1
174	177	3
59	61	2
233	234	1
9	10	1
149	166	1
28	35	1
179	189	1
30	30	1
121	123	3
0	11	1
63	65	1
54	54	1
134	135	2
144	144	3
238	240	3
105	199	1
133	134	3
31	33	1
126	128	2
136	144	2
21	30	1
97	97	1
62	63	2
216	221	1
210	216	2
107	125	1
140	146	1
78	79	1
146	148	1
224	224	1
0	0	2
79	81	2
159	160	1
58	60	1
163	166	2
96	97	1
197	197	1
229	236	1
164	164	4
202	202	1
64	72	2
72	72	3
224	226	1
123	123	1
216	220	1
175	186	1
104	111	4
170	174	1
16	27	3
35	37	2
103	103	3
35	39	1
140	151	2
18	30	1
152	154	2
9	29	2
198	206	1
101	104	1
237	240	2
162	174	1
109	112	2
208	217	1
49	51	1
121	122	1
155	155	5
219	220	1
50	65	1
230	230	3
10	20	1
59	62	2
5	21	2
182	193	3
124	142	1
207	207	1
47	55	1
201	202	4
197	212	1
213	224	2
8	9	4
205	215	2
30	34	1
86	88	1
208	212	1
18	29	1
100	102	2
30	36	1
215	216	1
43	49	2
134	136	1
18	24	3
19	28	1
223	238	1
0	1	1
53	54	1
4	8	1
212	212	1
68	68	2
20	20	1
25	27	1
234	236	2
162	162	4
34	51	1
133	141	1
220	230	2
34	34	3
200	200	2
214	214	2
135	135	3
45	53	1
175	175	1
55	71	2
151	161	2
178	178	2
173	179	1
16	20	1
50	50	3
163	174	1
168	172	2
75	83	1
2	29	1
218	219	1
170	172	1
194	201	1
126	142	1
76	83	1
42	42	1
139	142	1
37	37	1
15	22	1
136	156	1
149	153	2
201	207	1
210	211	2
65	66	2
21	33	2
174	181	1
151	151	1
101	105	2
122	138	1
227	231	1
124	125	1
104	108	1
192	206	2
149	149	1
16	17	2
17	21	1
181	184	2
100	109	1
26	28	2
108	119	1
165	174	3
15	24	2
74	74	1
106	135	2
6	10	1
32	39	1
50	58	1
55	56	1
191	195	1
16	31	1
232	236	1
31	31	3
18	19	2
129	130	1
70	70	1
77	80	1
201	217	2
127	130	1
34	41	3
103	117	1
147	147	1
55	55	1
14	19	1
8	12	1
24	25	1
141	141	1
179	184	1
129	134	1
190	196	1
116	116	1
132	132	1
169	177	1
15	36	1
102	125	1
157	161	1
207	211	1
192	201	2
176	179	2
3	5	2
8	11	1
115	117	1
99	99	1
146	152	2
10	30	1
57	70	1
6	30	2
7	9	1
17	36	1
68	84	1
159	172	1
71	75	2
77	79	1
9	20	2
136	141	1
8	21	1
58	64	1
225	225	2
111	113	1
142	143	2
69	76	1
220	232	1
177	195	1
143	144	3
97	100	2
37	38	1
83	85	1
103	114	1
11	37	1
166	166	1
190	203	1
25	25	1
188	201	1
57	65	1
223	226	1
189	189	1
162	168	1
20	30	1
181	181	1
229	238	2
79	88	1
167	169	1
169	171	1
107	110	1
155	163	1
1	1	1
237	241	1
68	82	1
18	20	1
196	207	1
150	159	1
126	134	1
160	160	1
65	67	1
238	238	1
124	135	1
72	82	1
13	18	1
2	2	1
97	98	1
138	145	1
11	18	1
70	82	1
69	71	1
11	25	1
51	65	1
113	116	1
63	64	1
65	65	1
41	49	1
36	36	1
241	241	1
