91	104	3
35	35	15
62	66	1
78	80	4
78	79	11
50	73	1
72	72	29
77	77	16
83	98	2
33	33	28
79	80	3
99	99	19
34	46	3
25	25	17
93	93	22
40	74	4
28	28	13
45	45	30
54	73	2
22	23	5
96	97	16
110	112	1
53	53	21
66	66	8
68	69	7
60	60	22
57	57	11
88	88	20
37	39	12
90	106	2
79	79	18
95	95	27
55	55	11
48	49	6
71	81	3
98	99	16
34	53	1
70	71	14
33	34	15
28	33	5
73	73	35
46	53	1
112	112	29
40	44	3
54	66	3
51	51	17
103	103	9
49	49	13
24	31	5
59	76	2
100	113	2
81	81	16
97	97	14
65	83	6
63	81	1
48	48	15
63	64	4
75	75	7
20	20	12
43	59	3
41	52	1
25	29	1
28	29	7
59	67	2
26	39	4
39	59	4
62	62	16
84	85	10
74	74	21
70	70	12
82	82	7
76	76	13
34	34	14
22	22	13
74	108	1
63	63	13
69	107	1
78	78	19
39	41	1
36	36	10
62	63	11
114	114	7
61	62	8
29	32	5
109	110	3
98	109	3
98	110	2
87	96	1
31	32	3
113	113	12
44	44	31
30	31	11
26	35	3
23	23	13
46	46	25
111	111	7
52	54	2
87	87	25
76	77	11
27	27	11
54	54	17
22	31	2
99	101	3
24	25	1
73	76	1
59	59	16
22	32	2
35	37	9
107	107	16
72	114	5
84	101	1
77	104	4
40	46	2
50	53	4
110	110	22
66	68	3
100	100	15
40	45	1
56	56	16
90	103	2
44	45	6
37	42	2
32	32	10
44	51	1
106	106	17
43	44	6
31	31	20
29	29	21
80	95	1
24	24	12
105	105	14
25	38	7
58	58	22
31	39	4
43	51	2
65	65	12
98	103	2
71	74	6
72	98	2
56	57	7
27	60	1
41	41	9
92	92	17
82	83	6
68	68	11
101	101	13
73	77	2
84	84	17
92	102	4
71	71	15
93	101	3
23	24	2
38	38	12
76	101	4
32	42	5
62	82	4
102	103	3
76	78	4
80	80	21
27	30	2
80	81	3
52	78	1
85	85	14
86	89	2
42	42	23
25	48	4
84	87	1
67	69	1
104	105	1
94	94	12
31	33	1
23	39	2
47	51	2
42	57	4
66	69	8
27	46	2
44	74	4
110	111	4
37	37	17
67	67	7
50	50	10
22	58	2
102	102	22
20	36	4
53	73	1
53	71	4
104	108	1
91	98	3
38	39	4
51	53	6
49	70	7
54	55	8
47	47	22
19	19	2
56	58	1
23	25	2
96	96	21
28	31	4
76	81	1
43	43	10
45	53	1
76	83	3
57	61	3
28	35	1
77	97	3
35	43	2
87	95	4
98	101	1
57	58	3
83	84	8
112	114	1
51	52	2
64	64	16
24	41	1
72	84	1
26	28	6
26	27	1
40	40	21
28	60	3
62	65	1
36	39	3
26	26	17
83	83	14
86	87	5
112	113	3
99	107	3
61	61	13
100	106	3
43	65	1
66	82	5
92	107	2
107	108	3
37	76	3
93	108	2
69	85	3
94	104	1
27	42	1
75	110	1
73	74	10
49	57	3
41	42	2
41	60	3
89	110	1
64	84	4
69	69	10
39	39	21
63	85	1
33	53	1
104	109	3
59	60	4
74	75	3
93	94	7
98	98	12
78	102	4
81	101	1
23	36	1
109	109	8
26	36	4
21	21	18
104	106	2
111	113	5
36	67	1
104	113	2
30	30	8
89	89	13
34	35	11
25	27	1
90	102	3
99	108	1
53	100	2
22	26	2
46	60	3
67	78	2
32	47	1
63	65	1
62	71	2
36	37	5
54	63	3
25	26	9
50	107	2
67	68	5
21	22	6
32	54	1
20	25	3
78	82	2
40	41	2
39	40	2
66	70	4
97	101	6
25	42	2
106	107	3
39	49	5
108	113	2
95	109	1
92	94	6
50	67	1
24	26	1
91	94	3
91	91	6
103	104	11
108	108	10
41	53	3
90	110	3
55	60	2
59	64	4
25	31	4
65	78	4
90	90	15
52	52	6
76	104	5
50	51	7
67	79	2
41	44	2
50	96	1
55	57	1
63	76	4
85	87	2
28	37	1
25	37	3
27	28	10
84	95	1
20	47	4
23	30	2
28	46	3
77	110	1
74	92	2
77	109	2
30	33	1
86	99	7
26	42	3
64	108	3
85	86	7
79	81	1
96	115	3
86	88	3
22	51	5
75	102	2
87	91	2
86	86	10
71	78	1
73	75	1
101	103	2
58	60	4
41	47	6
78	87	1
27	35	4
90	113	1
84	96	1
88	90	3
26	37	1
58	79	4
82	85	1
91	93	2
23	57	3
111	114	3
23	33	3
97	105	1
19	22	1
81	83	2
84	86	2
58	71	1
51	57	3
65	100	1
88	91	4
59	61	4
23	29	1
86	103	2
83	95	1
21	35	1
90	91	2
65	81	3
60	61	3
22	40	4
24	27	1
28	30	2
20	24	1
59	62	1
94	95	1
42	52	4
52	55	3
58	76	4
34	58	1
19	23	1
70	72	6
107	114	3
108	112	1
53	54	2
32	58	1
65	84	3
71	72	1
58	67	5
50	52	4
35	41	1
75	92	1
44	52	2
104	104	7
64	66	1
82	100	2
42	43	2
69	72	1
88	103	1
66	85	5
57	82	3
105	106	1
84	92	2
22	35	1
63	80	1
36	53	1
85	97	3
77	78	5
79	99	2
78	81	2
52	60	2
42	53	4
60	81	1
65	79	1
79	101	1
37	49	1
72	85	2
91	106	1
82	84	3
53	70	2
88	110	1
102	107	3
27	51	1
79	87	6
62	64	1
32	60	1
53	59	2
59	83	1
55	58	1
94	108	3
81	96	2
32	39	4
69	70	3
97	109	3
61	75	1
44	111	2
72	109	2
89	109	2
85	99	1
110	113	1
75	100	2
58	82	1
55	66	1
46	69	2
30	44	1
46	49	4
58	59	2
21	43	1
78	83	1
53	69	4
87	88	3
54	71	1
37	71	1
38	49	1
77	98	2
52	80	2
53	55	1
71	75	2
75	84	1
51	67	1
63	69	2
87	106	1
31	38	1
58	66	1
23	26	1
93	109	1
62	79	1
105	110	1
30	35	2
100	112	1
24	30	1
48	51	3
108	109	4
36	43	1
33	44	2
38	66	2
74	84	1
97	104	2
40	56	2
86	104	1
89	103	1
53	101	1
63	96	3
65	68	2
81	99	1
30	110	1
47	56	2
74	82	1
76	105	1
63	87	3
26	47	2
82	113	2
91	105	2
49	65	2
23	37	1
81	98	2
49	52	1
48	56	1
19	20	1
59	85	1
70	80	3
65	66	1
26	44	1
98	104	3
20	21	3
85	101	1
51	65	1
107	110	3
62	83	2
37	74	1
107	109	1
33	41	1
78	98	1
48	52	1
29	30	1
72	75	1
43	46	1
89	105	1
37	45	1
32	35	1
47	73	1
36	73	1
33	51	1
115	115	1
46	68	1
64	71	1
72	81	2
22	30	1
67	72	2
34	37	1
31	34	1
49	69	1
38	70	1
61	66	1
58	96	1
99	103	1
43	75	1
98	102	2
22	36	1
22	45	1
26	52	1
23	42	1
37	38	1
111	112	2
21	73	1
78	90	1
83	108	1
53	103	1
37	65	1
77	92	1
113	114	1
27	37	1
84	100	1
68	70	1
56	62	1
91	92	1
33	52	1
44	107	1
32	33	1
28	53	1
105	108	1
78	109	1
51	97	1
26	33	1
94	99	2
