79	85	2
30	30	12
47	47	4
16	16	18
82	82	14
116	116	11
89	128	6
17	17	12
1	2	14
109	111	4
76	83	5
52	53	9
73	74	9
62	62	18
91	92	3
105	105	17
70	92	2
33	34	7
6	6	19
73	88	6
23	24	11
58	62	7
4	86	1
27	56	2
96	107	2
26	27	5
46	55	1
33	33	11
54	55	9
119	119	30
86	86	11
66	67	16
7	7	13
31	68	3
113	116	3
115	115	11
79	79	6
91	91	15
115	116	17
90	132	4
12	12	15
109	121	2
74	128	1
75	75	2
87	88	2
0	12	3
97	99	6
126	127	8
65	73	1
27	30	1
85	127	3
12	99	2
101	111	3
5	5	19
95	117	6
126	126	9
17	21	3
100	100	13
15	15	26
55	55	14
69	69	14
127	130	10
50	94	7
118	120	2
50	56	2
58	59	6
62	69	1
94	94	21
79	126	3
118	118	23
9	10	4
10	39	4
20	31	1
2	3	5
48	73	4
123	129	3
13	13	13
125	125	19
123	123	19
76	76	20
93	94	2
83	84	3
75	102	3
103	103	13
1	1	24
104	108	3
114	114	27
29	75	6
106	106	7
25	25	17
49	55	1
127	127	6
130	130	6
31	120	1
126	130	6
48	49	4
53	55	5
70	82	3
80	80	13
56	56	13
107	107	17
20	20	7
70	71	4
50	60	1
44	45	5
28	29	18
25	63	3
48	48	15
90	90	7
39	61	5
82	85	11
22	22	10
44	54	2
13	14	9
14	14	13
131	132	10
37	58	2
65	66	10
51	51	20
11	11	9
81	81	15
97	127	3
108	108	9
54	54	13
98	98	8
96	96	7
97	97	9
6	22	4
116	120	1
50	52	2
119	120	6
95	95	6
74	74	16
124	124	22
52	52	11
21	30	2
40	40	23
76	77	5
114	119	2
3	4	1
73	129	3
97	98	1
116	117	8
56	57	1
56	58	1
107	112	1
23	23	16
64	64	9
39	49	3
39	118	2
4	4	11
89	89	3
85	85	12
14	21	1
63	64	10
11	12	8
53	82	1
38	39	3
29	32	5
111	111	17
21	67	4
88	89	9
57	57	12
25	26	1
24	29	3
62	64	2
8	9	2
129	129	4
118	119	5
63	76	3
98	128	6
26	26	19
63	63	10
0	2	2
24	24	14
39	39	8
49	49	14
8	74	5
43	72	1
120	120	8
84	85	8
22	28	1
104	105	6
42	47	3
93	93	7
19	19	6
60	117	4
59	62	2
43	44	4
44	44	19
68	68	15
99	99	13
22	23	1
8	8	3
60	62	3
65	72	6
95	99	6
88	88	11
15	33	7
125	132	4
128	128	7
91	106	3
61	62	2
74	90	1
66	68	3
18	41	1
42	42	4
58	58	9
28	73	4
75	79	3
56	110	6
25	28	3
63	72	2
84	84	5
84	91	10
92	92	9
0	30	7
62	68	1
114	116	3
3	3	10
16	96	4
9	20	4
2	7	3
10	12	5
48	50	2
28	28	12
84	88	2
59	59	5
5	86	2
77	127	1
4	33	4
75	76	6
65	65	13
123	124	7
46	46	8
109	109	22
10	10	9
113	113	12
108	109	2
61	61	10
21	21	12
96	113	3
32	32	3
22	33	2
24	53	1
9	19	1
102	102	11
92	95	6
51	57	4
122	122	16
46	53	5
70	70	15
61	67	3
19	31	5
87	87	6
10	120	2
40	41	10
46	47	5
7	8	3
42	80	5
96	129	2
115	119	2
97	108	3
107	124	4
2	2	8
17	18	7
109	110	1
48	130	6
41	43	3
8	14	4
84	92	2
51	58	7
104	107	2
6	66	4
84	89	1
98	103	3
92	93	5
131	131	5
113	121	3
117	122	4
45	45	12
121	121	15
69	92	1
102	103	1
30	82	1
105	106	3
43	52	4
32	127	4
2	118	3
53	53	6
109	113	3
83	83	6
62	88	1
32	42	4
86	87	16
30	129	3
19	30	4
87	91	1
101	101	18
21	68	2
71	76	1
129	131	1
7	34	2
129	130	6
38	38	9
22	67	2
67	68	2
29	29	8
100	113	4
61	65	1
62	87	3
97	103	3
86	127	2
50	57	3
60	61	3
17	19	6
25	69	2
24	72	2
29	61	5
69	129	1
109	119	1
9	34	3
20	34	1
18	19	2
10	121	4
62	65	3
27	27	5
0	13	2
67	67	11
113	122	3
72	87	1
77	77	21
48	131	1
90	91	9
8	25	4
13	18	1
42	45	1
72	73	3
91	95	2
88	90	1
62	63	4
54	102	3
95	98	1
82	131	3
23	25	2
72	128	2
12	105	1
27	33	1
2	15	5
60	60	8
127	129	3
93	121	3
120	121	3
76	78	3
64	105	4
65	71	2
89	129	2
94	96	1
72	84	1
69	74	2
56	63	1
27	28	4
75	87	3
93	133	2
77	81	2
43	59	1
45	46	3
72	74	6
1	25	1
71	77	1
110	110	7
112	112	10
17	39	3
72	72	10
0	118	3
32	101	1
49	97	2
95	96	2
83	88	1
84	90	1
29	30	2
2	120	2
72	126	4
41	41	12
98	99	2
130	132	1
27	29	1
59	60	1
102	126	2
97	100	6
76	132	1
63	65	2
30	130	2
29	72	1
41	42	4
16	38	3
109	120	4
44	132	5
117	124	6
125	126	2
39	65	4
32	66	4
22	59	4
66	66	7
40	42	4
60	67	3
73	75	1
71	71	7
7	86	3
62	71	1
81	82	9
44	49	1
20	80	1
104	104	3
95	104	4
15	16	1
107	120	1
101	123	2
86	126	3
34	34	4
109	114	4
26	57	2
8	10	2
77	111	3
43	43	4
28	64	2
74	95	3
79	82	5
7	21	4
50	54	3
96	130	1
114	120	2
43	55	2
109	125	1
18	40	2
133	133	2
128	129	2
98	120	3
11	15	4
12	13	4
67	69	4
47	55	5
44	52	2
68	94	1
2	4	2
94	105	2
24	58	3
103	104	2
76	81	1
0	0	8
98	104	2
113	114	1
32	67	2
15	17	4
23	52	2
78	79	3
85	86	6
80	81	8
48	75	3
97	107	2
77	78	4
89	130	4
6	19	4
56	113	1
86	90	1
9	9	3
70	126	1
59	119	1
79	122	4
49	54	1
52	57	1
78	116	5
32	41	1
59	70	3
41	50	5
60	128	1
82	125	2
22	41	1
103	108	2
0	14	4
121	123	1
95	127	3
83	85	2
4	80	2
22	68	2
25	115	1
72	82	2
40	46	2
121	124	4
18	18	5
77	101	1
21	25	2
39	120	1
100	114	2
104	106	1
53	54	2
65	74	1
7	17	5
71	72	2
70	76	1
121	122	3
70	95	2
14	47	2
94	126	2
5	33	4
55	102	4
7	57	1
11	13	1
103	111	1
23	26	1
104	120	1
71	98	5
23	47	2
22	32	2
28	61	2
40	60	3
6	20	1
7	41	1
114	117	3
42	54	1
85	88	4
22	26	2
20	23	1
109	117	3
1	51	1
96	100	3
23	46	2
23	64	1
79	127	1
12	17	2
76	105	3
90	125	3
42	44	1
70	75	2
75	131	2
56	99	1
71	95	3
107	108	3
95	106	2
20	108	1
94	100	1
47	126	1
50	58	3
41	59	2
49	59	1
50	117	2
47	76	2
28	30	2
22	70	1
110	117	1
12	34	1
94	95	1
71	84	1
73	76	1
1	3	1
38	105	1
4	126	2
130	133	1
7	52	1
75	126	1
73	128	5
49	99	1
16	19	2
60	126	1
34	39	2
24	64	2
42	72	2
40	45	2
83	90	1
71	74	1
28	67	3
132	133	2
100	109	2
51	54	1
27	32	1
102	104	2
77	85	1
61	116	2
28	33	1
111	112	2
59	117	1
18	39	1
132	132	3
79	129	2
73	87	1
21	33	1
89	125	1
23	32	1
5	15	3
44	48	2
10	11	3
14	32	1
19	47	5
64	65	1
58	76	1
24	62	3
98	102	1
25	29	1
25	64	1
78	78	4
117	117	2
45	133	2
21	22	2
16	21	2
13	17	1
58	61	1
108	110	1
2	107	3
50	51	3
54	103	1
117	118	1
76	84	1
7	56	1
97	105	1
20	33	1
31	32	1
102	122	1
119	125	1
87	90	1
50	50	4
74	129	1
17	38	1
78	81	1
56	102	3
17	30	1
123	125	1
45	50	1
5	34	1
80	118	1
33	46	1
94	104	1
96	105	1
24	67	1
1	123	1
122	123	1
13	101	1
61	63	1
55	56	2
50	62	1
91	128	1
0	120	1
51	52	1
117	133	3
110	112	1
89	90	1
23	28	1
77	100	1
110	111	1
76	96	2
54	112	1
1	128	1
82	83	1
8	15	1
62	67	1
6	39	1
21	75	1
124	131	1
14	49	1
74	126	1
43	58	1
57	58	1
47	82	1
59	130	1
130	131	2
33	127	2
6	45	1
114	118	1
71	96	1
34	65	1
102	113	1
7	12	1
99	116	1
91	93	1
59	61	1
77	86	1
14	104	1
76	82	1
50	125	1
31	31	1
16	17	1
5	39	1
22	39	1
68	69	1
64	66	1
67	74	1
19	46	1
96	97	1
93	123	1
