129	130	4
89	89	16
93	93	27
4	4	15
12	12	23
55	55	18
14	14	10
76	76	25
67	69	7
106	106	22
2	2	26
48	49	6
7	7	20
90	101	1
65	65	21
120	120	39
94	94	21
110	110	18
18	18	9
79	79	11
73	73	15
122	122	17
107	107	29
11	11	18
104	104	20
79	80	15
75	75	27
85	85	13
27	28	6
117	130	7
43	43	16
25	25	22
24	24	18
104	105	18
121	123	1
57	57	20
84	86	4
119	119	14
92	92	22
116	117	13
54	101	5
44	44	6
19	19	29
97	97	8
121	122	10
79	110	4
100	100	15
54	55	13
61	62	10
27	27	18
67	68	2
80	80	13
102	103	9
68	68	15
123	124	7
95	95	21
73	74	6
107	108	8
72	88	4
86	102	2
49	58	4
117	124	3
98	98	16
98	99	3
70	70	7
121	121	21
76	77	7
9	9	14
88	96	2
115	115	33
99	99	12
124	124	22
54	54	19
117	117	37
51	94	5
75	78	4
90	90	15
33	33	26
58	58	27
80	90	1
34	126	2
74	84	2
5	5	18
19	64	1
20	20	24
103	103	22
123	123	20
82	82	21
105	105	18
86	87	7
54	107	10
99	102	8
22	25	9
45	46	9
41	42	5
54	64	1
105	110	1
108	108	28
113	113	32
67	67	9
30	30	18
110	111	15
132	132	18
22	23	9
47	59	1
72	73	4
3	3	14
77	77	15
75	126	1
101	101	19
29	33	2
32	42	7
29	29	19
52	52	12
77	79	2
69	69	23
125	125	31
117	118	4
17	65	1
21	21	10
0	0	14
49	49	26
96	96	10
85	86	4
42	52	3
124	125	10
118	118	15
84	87	2
48	48	9
91	92	1
112	112	9
116	116	12
79	125	1
27	44	3
79	90	2
58	59	3
1	1	18
62	63	6
69	96	2
31	32	11
95	96	5
51	51	24
114	114	9
56	56	15
1	44	3
111	111	13
120	121	6
20	21	1
109	109	27
130	130	16
26	26	18
42	81	5
1	83	4
23	27	5
105	108	3
29	30	5
75	76	11
50	110	2
83	83	23
131	131	25
17	17	8
50	50	20
56	58	13
133	133	7
46	46	13
10	11	5
87	88	4
31	31	20
126	127	3
94	95	3
110	123	2
29	43	3
46	66	2
41	41	14
42	43	7
70	73	2
13	13	13
91	91	13
6	14	3
42	42	14
23	23	5
19	48	4
109	113	3
61	61	11
23	48	2
51	52	6
32	32	14
33	34	5
21	22	6
93	96	4
106	107	8
66	70	2
6	7	1
40	40	3
117	119	3
22	22	5
24	25	3
20	85	4
94	96	1
39	39	17
113	114	6
63	63	27
4	13	12
115	116	19
32	33	4
123	125	1
33	107	2
21	53	1
47	47	10
127	128	4
53	53	14
93	109	2
59	59	10
87	87	6
99	100	2
91	98	2
77	82	2
46	47	10
79	109	1
71	73	5
43	66	1
110	124	2
32	53	2
44	45	5
100	101	2
6	6	20
38	38	9
76	79	2
18	19	6
126	126	18
41	54	2
3	61	4
126	128	2
53	73	1
17	19	4
74	86	3
79	93	3
72	72	10
102	102	14
74	74	14
119	126	2
26	27	5
23	25	3
64	64	10
93	110	1
11	12	4
119	120	5
76	102	5
52	53	6
125	130	3
42	54	3
15	63	1
86	89	2
113	116	4
10	10	8
23	24	4
4	5	2
63	64	3
50	51	7
71	88	2
122	123	4
13	21	1
100	102	7
81	81	9
28	28	9
79	99	1
16	16	10
0	1	4
74	75	5
12	13	4
23	26	1
45	45	13
115	122	1
13	17	2
105	106	4
91	99	1
41	44	2
89	94	2
62	62	11
97	98	3
14	15	3
79	108	1
128	130	3
43	44	1
69	71	4
16	65	1
52	111	1
3	14	2
65	66	5
49	50	3
15	19	1
129	129	4
15	15	4
112	113	6
69	95	1
34	34	5
78	79	2
128	128	10
46	48	4
77	100	3
20	46	1
5	15	3
41	82	3
89	93	3
127	127	3
76	104	2
104	107	2
16	67	1
50	56	4
78	78	5
104	109	2
14	63	1
44	82	1
80	81	3
71	75	1
113	123	3
48	76	1
96	97	2
101	104	2
55	57	1
62	67	1
94	102	1
66	66	2
1	49	2
8	9	2
93	95	1
56	82	1
8	8	15
11	13	2
78	99	1
78	83	3
72	76	2
109	110	1
88	98	4
6	56	2
59	61	2
125	126	3
84	84	1
88	88	4
96	121	1
0	133	1
95	101	1
1	85	2
40	41	2
77	101	1
98	131	4
111	123	1
44	47	1
114	115	3
126	130	3
117	123	2
104	110	1
92	96	7
118	119	2
4	7	3
120	122	2
109	112	2
114	116	2
111	112	2
41	43	4
118	128	1
62	64	3
47	55	2
78	94	1
30	31	1
2	60	1
119	127	4
132	133	5
130	132	1
86	86	4
56	57	3
24	28	4
130	133	1
82	84	2
50	111	2
71	72	1
49	51	1
82	83	2
39	40	4
26	28	2
105	107	1
113	115	3
78	103	1
28	29	2
16	17	1
33	81	3
77	91	1
108	110	1
21	25	1
92	101	2
41	53	2
95	104	1
54	81	2
65	68	2
7	8	4
50	112	1
106	113	2
3	4	3
57	58	1
31	81	1
19	85	1
0	49	2
63	65	2
41	115	2
93	94	2
15	20	4
9	10	1
70	72	2
2	3	3
24	26	2
5	14	1
118	120	2
56	65	2
71	76	3
74	83	2
1	14	1
107	131	1
74	82	1
17	18	1
108	111	1
24	45	1
4	61	2
89	90	2
86	92	1
91	101	1
92	104	1
69	70	1
27	48	1
127	130	1
96	98	1
45	47	1
71	71	3
2	59	1
81	82	2
15	64	1
68	69	1
53	87	2
79	81	1
103	104	1
78	93	1
89	97	1
85	92	1
89	91	1
122	124	1
27	29	1
72	82	1
1	24	1
22	48	2
1	2	1
7	19	1
0	53	1
61	64	1
92	93	1
12	19	1
40	49	1
45	101	1
60	60	1
81	88	1
0	19	1
