106	107	7
5	5	2
97	100	4
0	0	7
141	141	6
10	10	4
59	73	5
1	1	3
55	79	3
115	116	5
5	41	2
100	177	2
55	55	15
156	156	7
61	61	9
118	118	12
140	140	2
76	172	1
25	28	2
184	189	5
136	138	3
111	111	6
14	84	2
60	67	1
25	32	1
18	18	5
121	121	8
42	42	6
15	16	3
111	146	2
95	129	4
98	100	3
45	45	7
186	186	12
12	169	4
31	31	17
55	81	2
73	96	3
137	137	8
17	20	4
134	135	3
117	117	2
189	189	7
95	95	4
101	102	8
67	67	7
176	176	4
161	163	4
150	150	1
33	33	7
182	184	4
114	172	4
138	139	13
16	23	3
4	4	4
60	60	4
182	183	5
157	184	2
178	178	1
77	89	4
3	3	4
28	28	4
1	3	1
59	59	4
123	124	3
142	142	3
106	106	3
162	162	8
126	128	9
155	159	2
72	72	5
172	173	2
100	186	3
130	131	6
74	118	2
18	20	2
84	164	2
11	11	24
110	110	2
113	113	4
80	92	1
88	89	3
114	171	5
151	190	3
102	105	5
180	180	3
22	22	4
84	84	4
52	187	7
144	144	3
4	47	3
62	62	3
39	39	7
94	94	5
147	149	7
104	160	2
5	22	1
104	154	3
152	153	1
23	23	5
123	127	8
29	29	2
139	139	5
151	186	11
134	134	4
116	116	3
89	186	1
54	54	10
173	173	5
106	175	3
168	168	9
58	62	6
187	188	3
75	171	2
174	175	2
19	48	3
90	90	10
115	115	6
24	30	5
87	93	4
163	163	6
177	177	3
32	32	10
16	166	4
172	172	5
148	148	5
156	158	2
96	96	7
153	153	9
40	40	5
165	165	2
65	65	2
13	61	3
131	131	8
129	129	1
169	169	7
154	154	10
56	96	3
171	173	2
102	164	2
175	175	1
27	43	4
10	57	1
171	172	2
135	135	2
149	150	7
94	171	3
105	105	2
116	171	3
155	156	3
186	188	1
26	26	3
58	58	4
24	25	9
120	142	1
117	127	2
130	172	5
38	46	5
53	53	6
54	82	2
113	188	3
122	131	2
187	189	1
107	107	7
106	177	2
138	138	4
15	19	2
57	86	3
73	73	4
15	15	6
76	76	4
80	80	8
124	124	3
171	171	4
57	57	8
36	46	1
107	152	1
74	96	1
27	44	2
8	8	2
56	75	1
66	67	1
56	56	7
157	157	3
108	110	4
112	188	2
152	152	5
52	53	2
16	85	1
103	103	4
87	87	2
150	173	1
43	43	7
61	68	1
188	189	3
30	30	3
103	104	1
14	86	1
17	17	1
127	127	8
53	186	3
125	125	4
92	92	2
144	145	3
82	82	2
78	90	4
123	126	2
37	37	7
101	101	2
186	187	2
79	82	3
86	86	4
170	170	2
126	126	2
38	39	1
16	17	5
146	146	6
104	176	2
104	187	1
32	167	1
7	7	5
143	143	8
71	71	2
98	98	3
78	78	2
180	181	1
34	35	1
73	117	3
145	173	5
15	17	1
130	143	1
70	70	2
103	105	1
111	147	3
61	65	3
94	115	2
25	25	2
28	29	1
24	24	5
23	30	5
58	59	1
114	148	1
151	151	4
152	154	3
160	161	1
178	179	1
66	66	3
61	66	3
110	112	4
68	68	6
119	119	2
63	64	2
54	186	2
154	155	3
27	27	5
153	178	1
125	126	2
12	12	4
88	186	2
79	83	2
90	91	7
58	71	2
167	168	2
127	128	2
32	166	2
71	72	2
16	16	5
136	139	2
64	64	2
118	129	1
53	178	2
14	15	1
145	148	3
167	167	6
87	89	4
190	190	1
9	9	1
52	52	2
97	99	1
28	43	1
2	3	2
65	68	2
153	155	1
99	99	3
94	173	1
77	77	6
46	46	2
11	57	2
97	97	4
159	159	1
27	28	2
153	154	1
132	141	3
47	47	1
4	41	2
141	142	4
70	101	1
10	11	1
181	183	3
100	100	1
12	87	1
159	180	1
46	47	4
164	165	2
179	180	1
108	113	2
38	38	6
4	6	4
93	94	2
52	103	1
91	91	6
102	102	2
114	114	3
81	81	3
60	62	2
9	57	2
145	149	1
145	145	2
170	176	1
60	61	2
130	130	1
58	68	2
179	179	1
103	107	2
96	97	1
120	120	2
16	22	1
55	56	1
158	158	3
110	183	1
59	63	1
74	74	2
12	13	1
60	68	1
180	188	1
41	41	1
13	169	1
19	21	1
5	9	2
149	149	1
59	62	1
21	21	2
44	44	1
153	160	1
14	85	1
36	36	1
113	189	1
112	112	1
136	137	1
56	94	1
181	181	1
1	2	1
7	8	1
184	184	1
26	43	2
75	75	1
4	166	2
70	176	1
58	69	1
166	167	1
129	130	1
79	88	1
136	136	1
109	110	1
188	188	1
128	128	1
185	185	2
7	20	1
146	149	1
48	48	1
43	44	1
109	111	1
104	104	1
160	179	1
140	141	1
123	123	1
100	175	1
156	178	1
94	176	1
