122	125	2
20	40	4
226	227	2
158	158	10
3	3	7
6	7	2
142	142	9
138	139	7
237	237	6
204	204	16
239	239	2
213	213	14
212	213	2
36	64	5
41	41	13
78	78	12
36	36	12
24	24	6
140	140	8
1	1	3
234	234	6
184	184	10
31	33	4
209	209	10
175	175	6
178	183	1
216	216	11
171	171	2
150	151	3
217	217	13
157	157	10
208	208	10
70	73	2
19	19	8
76	78	5
79	79	5
215	215	11
103	103	6
142	143	10
0	2	3
28	28	7
158	178	4
237	242	4
192	192	9
187	187	3
161	161	3
180	181	5
141	141	12
76	76	8
212	212	11
242	242	7
145	145	16
146	146	4
65	65	10
230	230	7
115	116	3
46	47	7
221	221	5
140	141	2
219	219	9
163	165	1
239	241	3
16	16	2
31	31	12
170	177	3
158	189	1
42	232	5
121	122	1
54	54	6
219	238	4
17	17	3
189	189	11
212	214	3
185	186	8
88	88	7
164	164	12
99	100	5
8	27	3
229	229	14
136	136	7
177	177	17
104	104	1
200	236	1
215	216	6
200	201	1
152	159	2
59	59	10
177	179	6
217	218	4
60	61	6
139	139	17
30	34	2
37	38	7
137	137	8
73	85	1
44	44	8
195	196	4
60	60	3
20	20	11
113	113	5
71	71	7
128	128	9
125	137	1
170	171	5
152	152	3
70	70	5
66	67	2
229	233	7
138	138	17
63	74	3
167	167	8
153	153	9
189	190	2
206	223	1
55	58	4
49	62	1
151	151	11
150	150	4
35	64	2
2	2	10
41	42	5
50	51	9
162	163	2
188	195	3
199	199	8
49	50	4
143	144	10
51	52	4
82	83	1
26	26	8
133	165	2
14	14	8
239	242	1
200	200	21
141	142	3
212	217	1
120	120	10
6	28	2
3	40	1
224	236	2
80	80	6
49	61	1
21	21	5
173	173	12
237	238	5
121	121	7
79	80	4
192	232	4
222	223	6
206	206	15
241	241	9
68	68	3
220	232	1
193	194	2
8	8	5
32	49	2
3	5	5
127	127	8
119	155	1
155	155	15
0	41	3
29	227	1
12	12	12
140	142	2
69	69	2
16	17	5
124	155	3
24	25	3
166	166	6
184	190	4
225	225	7
197	197	10
210	210	9
25	25	8
85	102	4
147	147	5
133	163	1
213	215	4
73	73	11
61	61	11
118	164	1
9	9	4
211	211	8
178	178	5
49	49	6
197	236	4
227	227	13
11	11	7
149	149	6
207	240	1
38	38	5
218	242	3
85	85	9
209	221	1
236	236	8
60	78	5
46	54	2
66	69	4
138	145	1
22	23	3
30	30	4
86	86	4
82	82	5
61	62	3
223	223	10
228	228	4
116	116	11
53	53	4
227	228	3
226	226	1
55	55	3
186	186	18
102	102	8
106	139	4
184	185	5
58	58	9
205	205	10
148	182	3
191	191	9
23	26	3
101	101	8
179	183	4
162	162	8
20	43	4
51	51	8
84	84	5
147	150	4
104	109	4
9	13	7
23	28	2
203	203	2
201	201	6
153	154	5
149	150	1
232	232	9
59	61	2
15	56	1
10	12	2
43	44	6
129	129	3
154	155	9
158	188	2
202	217	4
15	15	17
19	20	2
15	16	4
47	47	2
31	67	1
21	22	2
156	158	5
134	134	6
78	79	2
43	43	12
125	125	9
156	157	5
175	191	2
130	130	4
181	183	5
163	163	12
233	236	1
103	104	2
144	144	5
128	178	2
168	210	1
131	131	2
58	59	6
202	202	4
187	193	2
172	172	2
151	153	4
29	225	1
42	42	13
80	81	1
143	143	5
166	167	9
83	83	8
103	105	2
137	176	4
143	227	2
134	148	2
23	39	2
198	230	5
63	64	4
109	136	2
6	6	3
51	54	1
137	138	3
187	195	2
187	188	1
168	216	4
72	73	4
172	185	2
145	168	2
223	224	2
28	30	1
49	54	6
231	231	8
86	105	2
122	128	1
201	216	2
9	232	4
197	200	2
109	109	7
208	210	1
0	1	5
151	156	2
144	145	3
105	105	2
95	95	4
25	241	2
105	141	3
65	66	1
133	133	5
19	22	1
115	115	6
30	31	4
111	111	1
11	28	4
187	189	4
169	169	3
174	174	8
8	18	3
7	7	5
30	227	1
101	104	6
206	240	2
210	238	4
188	193	3
45	45	4
114	114	4
58	79	2
172	205	6
173	177	1
72	72	8
57	59	1
214	214	2
76	77	3
123	127	1
168	168	6
138	140	2
7	33	2
147	148	2
194	194	9
171	185	1
13	13	2
217	238	2
181	181	2
63	63	2
173	174	6
213	229	3
188	188	6
12	14	1
100	101	1
111	176	1
108	108	3
29	30	2
59	79	3
199	227	3
27	27	9
208	209	1
232	233	5
198	236	1
48	48	9
111	174	2
204	205	2
46	46	7
182	183	1
190	190	5
218	218	3
52	78	2
137	148	3
52	54	1
3	6	2
6	8	2
26	39	1
91	91	1
180	180	5
4	7	3
138	144	2
0	0	5
198	199	6
207	207	3
14	16	1
174	176	2
143	154	1
229	230	3
48	62	2
238	239	3
193	196	3
207	208	4
81	121	1
155	157	1
213	214	3
224	224	3
98	98	2
160	160	2
109	176	1
70	71	2
212	238	2
112	112	2
81	83	3
183	184	2
176	177	1
122	123	2
144	225	1
45	47	3
230	231	2
119	119	6
96	96	3
64	242	2
148	201	5
50	50	2
26	27	2
39	65	2
191	201	3
168	184	2
25	40	1
114	115	3
75	75	5
2	47	1
148	148	3
165	165	4
57	57	4
38	66	2
99	99	5
178	182	4
107	108	3
26	64	3
126	130	4
67	67	2
155	156	1
206	210	2
122	122	1
33	65	2
211	217	2
221	222	3
170	172	1
1	27	1
98	99	3
27	29	2
194	195	3
42	205	1
96	101	4
38	68	2
4	13	1
27	46	1
176	176	5
29	29	6
37	68	4
126	126	2
156	156	3
106	109	1
139	140	1
42	88	1
103	153	2
197	198	2
3	4	5
234	236	1
151	159	2
172	218	3
10	10	2
135	135	2
188	189	1
159	160	1
18	18	3
152	155	1
45	46	2
234	235	1
210	211	1
221	223	1
109	111	2
56	56	1
231	235	1
77	78	1
69	75	1
25	242	1
124	124	2
39	74	3
125	126	1
200	227	1
115	164	2
154	154	5
197	228	1
104	105	1
104	113	1
35	35	4
34	34	2
196	196	2
22	22	4
57	81	2
172	173	2
133	179	1
81	81	7
85	86	1
167	185	3
105	108	2
106	106	1
37	69	2
197	231	2
189	191	2
96	97	2
64	64	3
39	39	6
169	171	1
121	128	1
50	76	1
102	103	3
37	70	1
136	137	3
116	117	1
95	96	1
5	5	1
146	147	2
67	68	3
4	4	1
7	8	2
183	183	3
24	26	1
198	198	3
159	188	1
80	84	1
34	35	1
220	220	4
238	238	1
38	39	2
9	234	2
169	184	1
185	185	1
134	161	1
132	133	1
233	235	1
205	206	5
27	219	1
171	172	3
179	182	1
71	72	3
97	97	3
7	34	1
77	79	1
33	34	4
32	32	1
202	216	1
151	152	2
81	82	2
96	98	1
167	171	1
74	74	1
222	222	1
151	160	1
132	132	1
58	60	2
195	195	3
165	192	3
127	128	3
112	173	1
196	201	1
191	192	2
25	64	3
133	134	2
4	6	1
56	57	2
183	185	1
57	58	2
18	20	1
30	33	2
134	182	1
40	44	1
110	110	1
118	118	1
37	73	1
196	200	1
149	152	1
159	159	2
143	152	2
80	83	1
40	43	2
107	107	1
48	61	1
1	2	1
175	242	1
113	114	2
169	215	1
52	53	3
13	14	1
8	10	1
206	207	1
219	220	1
145	146	1
80	107	1
50	53	2
129	132	1
4	5	1
197	232	1
63	73	1
9	71	1
9	11	2
23	45	1
142	148	1
187	196	1
95	139	1
30	45	1
55	60	1
87	88	1
152	242	1
233	234	1
233	233	1
11	12	1
160	162	1
120	159	1
209	238	2
224	225	1
165	166	1
95	100	1
140	143	1
101	146	1
