119	121	11
142	145	7
119	119	6
0	3	5
134	136	3
89	90	8
19	24	4
102	102	2
130	133	2
63	63	6
128	128	7
61	68	5
27	34	5
61	67	6
75	80	2
95	97	3
84	99	2
115	120	1
13	13	5
4	6	4
86	86	7
0	9	4
80	85	5
56	56	8
10	25	1
74	78	3
68	73	3
5	11	2
86	87	4
27	27	7
60	63	4
74	81	5
77	77	12
37	42	3
26	26	6
91	92	10
138	138	11
60	67	4
104	108	1
18	23	2
120	120	10
10	10	8
109	109	12
143	145	4
99	99	10
23	28	1
64	64	5
2	3	5
72	84	1
127	138	9
136	136	11
101	102	6
111	111	6
78	80	2
120	123	2
121	121	10
66	66	4
67	67	6
141	142	9
92	92	2
17	19	4
144	145	3
77	80	2
106	117	2
33	34	5
61	61	7
9	11	3
39	40	2
77	78	2
22	22	5
17	21	5
125	137	1
102	111	1
134	134	12
114	115	3
87	91	4
58	58	6
83	87	1
128	131	1
97	100	2
14	14	9
5	14	2
29	29	5
35	38	1
59	66	5
53	59	2
16	16	11
75	75	5
79	94	2
134	138	3
46	52	3
125	126	11
105	107	1
13	18	3
119	120	8
22	28	1
56	62	2
136	138	2
129	139	6
72	81	3
122	122	7
79	81	4
119	132	3
51	60	4
141	141	6
81	85	3
19	22	4
112	112	7
8	9	6
76	77	2
110	115	4
60	66	2
117	120	8
70	71	5
99	101	5
20	21	6
49	50	5
82	82	5
32	32	5
121	130	1
74	76	4
113	114	2
128	129	2
21	23	7
108	109	2
8	11	2
129	129	4
140	140	4
78	78	10
84	85	5
84	84	4
124	139	2
118	121	1
20	29	2
25	29	4
104	104	5
63	64	2
81	83	12
90	91	3
89	93	2
92	98	1
0	7	3
35	58	5
20	23	8
114	114	2
6	9	8
118	123	6
17	20	3
62	67	4
103	111	4
39	39	5
38	41	4
66	68	3
135	136	4
124	125	1
76	78	2
60	60	7
62	68	2
104	113	2
131	141	3
2	13	6
83	83	2
110	110	4
5	8	4
37	37	7
74	84	2
71	71	7
91	98	7
55	56	2
139	142	3
37	39	7
130	137	2
99	109	2
126	126	10
145	145	8
31	32	2
61	62	4
74	74	6
123	123	3
63	66	1
0	4	1
72	73	4
96	96	5
94	108	1
115	118	2
30	30	6
3	3	9
5	5	2
88	88	16
33	39	4
55	62	3
91	91	3
103	114	1
25	34	1
144	144	4
128	130	1
12	19	3
89	89	9
3	9	3
130	131	8
138	139	3
57	62	4
96	101	1
80	80	7
35	146	3
68	75	3
34	34	6
13	14	5
2	4	14
130	140	1
54	55	1
91	96	4
124	124	9
69	69	4
86	92	1
59	65	3
103	106	3
35	35	3
27	36	4
30	32	4
35	37	4
85	90	4
139	143	1
135	144	8
108	108	7
65	67	1
87	94	6
67	68	2
84	94	2
79	93	1
27	32	2
117	117	2
94	96	1
122	133	6
31	31	6
32	34	5
28	55	3
81	93	5
82	84	1
130	130	10
78	79	5
135	143	11
109	112	4
58	67	5
16	17	1
47	55	2
49	49	3
102	104	2
19	35	2
60	64	4
125	125	3
13	144	1
36	40	2
139	145	2
34	36	7
134	140	3
10	11	3
131	131	2
92	94	4
131	132	3
97	97	1
35	36	8
53	58	2
32	38	2
26	28	2
0	0	5
135	145	3
59	59	9
127	135	1
53	53	1
116	116	2
22	26	3
89	97	2
125	133	1
96	99	2
137	140	1
142	144	5
141	145	2
58	64	2
87	93	2
17	17	1
107	110	7
47	48	3
135	135	3
109	111	1
54	54	6
28	31	3
131	133	11
74	77	1
139	139	5
139	141	2
116	117	3
135	141	1
95	105	3
15	15	7
134	137	3
119	130	4
133	133	6
129	135	3
5	13	1
68	68	1
95	95	1
132	137	4
54	60	3
70	70	3
117	119	1
120	127	2
8	15	2
56	66	6
11	24	2
105	108	3
6	14	7
22	29	2
106	114	1
85	96	2
89	100	4
51	52	2
10	26	2
47	47	8
21	21	1
98	98	4
48	53	2
116	132	1
137	138	3
121	126	2
88	99	4
132	138	3
0	8	3
49	52	2
65	66	8
47	66	1
103	110	1
125	132	1
11	11	6
75	79	1
54	58	3
19	28	1
23	34	1
3	6	3
9	14	2
56	64	1
4	4	7
106	106	11
116	123	4
38	40	6
34	35	6
3	4	2
124	126	5
132	141	2
85	85	2
77	81	2
90	90	8
80	84	3
85	95	1
22	27	1
30	37	3
136	146	2
54	64	1
109	110	4
62	62	3
65	71	3
81	87	6
17	28	4
15	22	3
134	141	2
131	136	1
124	128	1
48	54	12
99	102	3
31	38	3
38	47	7
76	76	7
9	9	4
77	82	1
112	113	1
93	94	2
66	67	3
4	8	1
28	28	3
105	106	3
136	137	5
31	34	1
103	104	1
93	95	3
19	19	3
4	28	1
17	18	3
1	5	4
100	108	1
86	94	4
107	107	3
143	144	3
106	109	2
10	21	2
24	26	5
10	17	1
37	41	1
38	38	4
21	24	2
14	15	4
113	121	2
40	54	3
142	143	2
95	111	1
23	23	5
88	95	1
95	96	6
66	69	3
118	132	1
103	105	3
132	133	1
20	27	3
34	38	2
72	72	3
13	16	2
104	110	2
120	122	2
79	80	2
135	140	2
64	65	1
80	81	1
37	38	5
104	109	1
92	96	1
40	66	1
111	118	2
130	134	1
71	79	2
14	27	1
124	130	1
64	67	3
73	74	3
0	5	2
4	5	3
106	113	2
127	127	1
137	143	2
81	84	2
25	25	6
133	140	4
100	100	1
54	56	6
1	1	3
0	11	3
36	59	2
42	43	2
18	18	1
106	108	4
119	126	1
26	37	1
96	97	2
98	105	3
79	85	1
73	73	5
124	131	1
47	53	4
68	74	2
115	117	4
22	23	2
15	16	1
3	19	3
8	8	5
23	30	1
104	106	2
33	33	2
111	113	2
125	130	1
87	88	3
55	58	1
123	124	2
19	21	3
130	146	4
39	42	3
132	136	1
107	121	2
30	31	3
129	138	1
52	52	3
86	93	2
31	58	1
129	131	1
140	141	3
142	146	2
136	144	4
55	59	2
68	71	1
134	143	1
1	4	4
62	64	2
38	58	1
75	76	2
76	79	1
100	101	1
106	112	1
55	57	1
136	145	1
102	103	5
92	111	1
48	48	3
14	24	2
73	75	2
57	59	3
32	39	2
60	69	3
58	65	3
90	100	1
20	24	1
69	71	2
81	81	2
76	80	1
101	105	2
23	24	4
1	11	1
6	6	1
88	90	2
76	86	1
41	41	2
17	29	1
32	33	1
125	134	1
112	115	3
136	139	1
117	132	1
81	86	1
50	57	1
51	62	2
94	95	1
27	59	1
102	115	2
79	79	5
97	98	1
1	6	1
61	69	2
34	42	3
138	145	1
28	30	3
22	24	1
43	43	2
70	78	4
0	2	2
72	74	2
115	116	2
142	142	2
40	40	3
57	65	1
19	27	1
22	25	1
57	66	2
69	73	4
131	134	1
97	102	1
6	13	3
35	39	1
118	120	1
40	41	2
120	121	2
71	72	1
17	24	1
119	122	1
72	75	1
11	13	1
53	56	2
5	9	1
130	136	1
15	19	2
123	130	1
137	139	2
105	105	2
110	113	1
63	67	1
26	40	2
110	111	1
97	104	1
122	123	1
117	124	1
38	39	1
50	54	1
72	79	1
48	55	1
95	98	1
85	86	2
98	99	1
91	95	2
82	87	1
123	125	1
128	132	1
36	38	1
87	87	2
120	128	1
61	64	2
63	70	1
114	132	1
101	101	1
92	101	2
26	38	1
116	124	1
51	54	1
40	47	1
103	109	1
110	116	2
134	135	2
61	66	1
83	84	1
132	140	2
99	104	1
77	87	1
123	131	1
126	127	2
67	73	1
28	29	2
18	28	1
132	132	1
54	57	2
130	142	1
68	70	1
101	103	1
6	10	2
10	13	1
137	141	1
85	88	1
118	118	1
1	7	1
71	74	1
12	16	1
13	19	1
125	127	1
115	121	1
94	98	2
51	69	1
37	56	1
50	50	3
100	102	1
93	111	1
50	52	1
70	79	1
82	89	1
9	16	1
20	33	1
88	89	2
26	35	1
94	94	1
1	3	1
118	119	1
69	74	1
78	82	1
119	123	1
39	48	1
27	31	1
26	30	1
114	123	1
