100	142	3
133	133	2
5	12	2
130	130	1
4	4	2
111	113	7
31	31	6
55	57	1
87	89	4
61	78	4
142	142	6
24	24	1
51	52	5
10	13	3
44	45	1
151	151	5
127	127	9
35	35	1
94	94	2
101	133	6
120	120	7
113	114	6
81	82	1
118	118	3
13	13	7
82	82	3
84	99	3
100	129	2
84	108	3
14	17	4
83	139	2
63	66	3
3	3	3
91	92	2
32	32	6
93	93	2
145	145	3
20	21	2
25	28	1
9	40	3
10	10	4
55	56	4
122	122	6
6	6	9
152	152	1
106	107	5
121	125	3
58	58	1
19	19	8
149	149	9
22	26	2
16	17	3
17	26	1
113	113	4
21	27	3
10	11	3
83	83	2
154	154	5
74	76	4
8	9	2
73	73	10
22	22	2
90	90	1
42	42	3
105	139	3
134	135	1
20	26	1
136	136	6
5	26	1
14	14	6
7	7	3
145	148	3
79	144	1
40	41	4
73	74	1
132	132	3
95	110	1
71	134	1
69	69	3
15	40	1
74	74	2
33	34	1
136	137	2
87	88	3
17	24	2
62	69	3
39	40	1
94	111	2
142	143	2
7	15	1
118	123	2
104	104	1
15	15	3
11	12	4
22	23	2
44	44	1
97	98	2
131	132	5
16	21	1
31	81	3
50	50	3
4	7	2
6	7	2
122	123	4
140	140	1
53	53	4
80	80	3
42	74	1
9	138	1
109	109	2
28	30	6
110	141	1
48	49	1
19	21	2
127	146	2
92	110	1
121	121	4
87	90	3
75	75	3
49	49	1
85	85	1
26	26	1
115	116	3
118	119	2
48	48	1
33	81	1
9	15	4
76	76	1
108	108	2
11	57	1
54	109	3
26	36	1
47	47	3
88	88	7
13	14	2
84	130	4
62	63	2
6	55	1
99	111	1
135	135	1
11	14	2
28	28	2
21	21	1
26	27	1
69	75	4
29	29	3
150	152	4
62	62	2
17	17	1
68	102	3
33	151	3
5	7	1
99	143	1
6	10	1
79	79	3
107	110	1
63	63	2
6	24	1
6	15	2
106	114	1
148	148	3
94	98	2
112	113	1
82	151	1
41	51	2
3	4	1
31	56	1
67	67	6
137	137	2
30	30	1
95	111	1
6	21	2
68	68	2
2	3	1
40	40	2
42	43	2
62	67	1
111	111	7
2	2	1
18	44	1
81	151	2
65	115	2
99	99	3
71	71	2
103	103	2
100	122	1
102	102	4
115	124	2
38	137	2
137	138	2
11	11	1
109	140	1
82	150	1
94	142	2
47	53	1
118	124	1
144	146	1
138	138	1
8	17	1
153	153	1
112	135	2
106	106	1
14	23	2
38	44	1
126	147	1
41	41	1
61	61	1
84	100	1
46	154	1
147	147	1
67	99	1
87	87	1
107	107	1
23	23	1
