88	88	4
117	117	4
101	101	7
45	45	5
12	12	4
114	125	6
108	109	2
65	75	2
20	20	4
61	65	4
98	114	3
5	5	2
22	22	1
4	4	7
109	109	13
41	42	3
124	124	3
89	100	1
30	30	4
46	47	3
95	95	2
32	32	2
2	62	4
39	41	2
77	92	6
88	97	4
17	17	2
112	112	3
74	86	3
38	38	1
58	58	2
3	3	3
79	79	8
118	119	6
107	108	1
6	7	1
102	102	3
118	120	4
1	76	2
81	81	4
67	67	1
114	117	2
83	101	3
87	89	2
25	26	1
110	110	2
108	108	9
92	92	8
129	129	1
90	90	4
19	19	3
68	70	4
11	11	4
107	107	6
74	96	2
71	72	2
68	68	3
80	80	3
13	13	6
65	65	4
24	26	3
40	87	2
114	114	4
119	130	2
130	130	4
104	104	3
73	73	6
83	100	1
118	118	3
52	54	2
58	105	1
44	75	1
1	1	5
21	55	2
8	8	4
16	22	2
86	133	3
13	32	2
105	106	1
56	67	2
50	50	9
60	60	7
113	113	4
28	28	6
59	83	2
54	54	2
56	56	3
78	133	2
121	121	3
57	57	1
0	76	2
10	15	3
51	51	4
58	60	2
95	128	1
43	43	3
4	44	3
51	52	3
125	127	2
48	48	2
94	94	3
58	62	3
116	116	2
133	133	1
115	115	3
46	104	2
85	85	5
65	109	3
96	132	2
119	122	1
29	30	1
27	27	4
77	77	2
122	122	4
9	9	6
68	73	1
117	118	3
44	44	3
63	66	2
44	45	1
46	48	3
112	113	7
59	59	3
71	71	4
66	67	1
29	29	1
100	100	3
38	46	2
72	73	1
53	54	4
52	52	1
55	55	7
48	113	1
57	81	3
16	16	2
25	30	6
75	76	4
0	0	1
20	55	1
38	43	1
128	128	2
70	71	4
56	57	1
105	110	3
26	26	4
84	84	1
10	10	2
132	132	1
8	10	3
42	42	3
126	132	3
6	6	2
120	120	5
78	78	2
103	103	2
127	127	2
74	74	1
64	78	2
110	111	1
89	89	2
102	120	2
119	128	3
31	31	3
40	40	2
55	61	1
53	53	1
98	119	1
90	91	1
33	33	2
89	97	2
101	113	2
37	68	2
26	27	2
80	82	1
51	92	2
15	15	1
91	103	1
46	113	1
97	97	1
131	131	1
126	126	1
46	46	1
7	7	1
24	24	1
34	45	1
64	69	1
65	85	1
17	18	1
3	46	1
106	106	1
9	11	1
114	127	1
125	125	1
111	111	1
90	99	1
11	12	1
