90	90	13
59	61	7
99	99	6
130	131	3
65	84	2
72	72	7
124	124	20
39	40	3
80	82	6
89	90	4
15	15	8
128	140	5
129	129	14
144	144	6
35	36	8
125	125	23
114	115	3
36	37	12
135	136	13
32	32	8
73	73	15
60	62	6
121	124	3
83	83	4
141	141	13
115	115	6
49	50	5
118	119	3
38	39	4
11	11	4
93	93	2
133	137	5
108	108	17
128	128	15
126	127	12
117	117	7
135	135	21
80	80	15
68	68	12
79	79	3
21	21	6
1	1	2
94	95	5
64	64	24
84	85	7
78	78	11
92	93	4
100	100	5
137	137	9
14	14	4
76	79	2
70	70	13
129	130	5
59	60	5
111	111	8
118	133	3
97	97	8
71	73	2
108	111	3
89	106	6
85	85	4
134	139	3
130	130	17
58	58	3
22	22	13
86	90	7
2	2	9
40	40	11
18	19	4
110	120	3
102	102	9
20	21	2
92	92	4
51	51	8
139	140	3
10	10	6
26	26	8
97	98	1
33	33	3
96	96	12
127	127	20
27	27	7
103	103	12
41	41	9
64	84	2
49	49	10
98	120	2
53	63	2
114	114	15
47	48	3
138	140	5
123	123	6
122	123	8
137	138	7
21	32	2
48	81	4
140	140	10
112	115	3
19	19	7
120	120	8
42	42	1
104	104	6
76	76	11
101	101	8
17	17	4
99	100	6
139	139	10
5	5	7
55	55	16
134	134	21
65	65	6
98	121	4
66	66	2
132	132	24
100	101	1
38	40	5
51	62	1
71	71	1
29	30	2
24	24	3
81	90	1
56	57	10
131	132	7
89	89	3
3	4	6
40	42	1
39	41	2
138	138	3
81	89	3
77	79	6
60	61	4
12	12	8
92	94	3
6	6	15
25	25	6
88	88	15
133	133	10
137	142	3
61	61	4
126	137	1
98	99	6
16	16	5
54	54	14
50	51	3
138	139	3
68	69	9
23	23	8
106	107	4
4	4	5
52	52	15
1	4	1
39	39	5
28	28	5
87	89	4
75	75	4
14	16	1
38	54	2
35	37	2
133	141	6
82	89	3
15	17	6
2	60	3
43	43	2
76	77	2
12	16	2
69	69	5
107	107	10
97	99	2
48	48	13
9	16	2
82	83	4
2	59	2
81	82	2
36	36	7
134	142	1
79	115	3
30	31	1
98	98	9
94	142	4
67	68	2
101	102	5
108	114	3
38	38	5
67	69	6
119	120	5
121	136	3
53	86	3
37	37	2
131	131	14
115	116	1
110	110	5
142	142	6
13	13	3
110	111	4
116	116	9
91	117	2
124	125	3
128	129	6
92	117	4
77	78	10
50	50	2
12	13	6
74	74	9
122	122	6
58	60	1
119	119	10
94	94	10
103	106	4
106	106	7
60	60	3
56	59	5
69	70	9
112	114	2
126	126	9
13	39	1
145	145	2
103	105	1
143	143	6
126	128	3
56	56	4
8	9	6
81	81	4
95	95	5
53	53	5
82	82	4
109	109	17
18	18	9
87	88	2
4	47	3
84	84	5
57	58	7
105	105	5
62	62	4
81	108	1
13	14	2
40	50	3
2	4	3
130	140	3
34	35	3
130	133	7
102	103	1
108	109	3
17	18	2
86	86	4
71	72	6
73	74	3
79	80	2
63	63	14
82	87	3
113	113	5
47	50	1
101	121	1
112	112	2
57	57	8
54	62	1
74	75	1
82	85	2
67	67	3
131	140	5
81	86	1
139	142	1
34	34	6
125	126	1
90	91	3
54	55	1
0	0	1
47	47	7
54	61	1
104	110	1
65	66	1
129	139	2
134	138	1
123	124	2
67	70	2
77	77	7
140	142	2
14	15	2
86	89	1
113	115	2
91	109	2
59	59	3
121	121	5
13	59	2
31	32	1
30	30	3
133	140	3
51	52	4
91	94	2
21	36	2
108	115	3
57	59	2
80	81	1
15	16	2
8	8	4
118	135	1
37	38	2
74	82	2
42	60	2
111	118	1
134	137	1
0	1	2
110	118	1
125	137	2
145	146	2
58	61	2
83	84	2
120	121	2
61	62	1
131	141	4
119	135	2
41	43	1
75	83	1
55	56	1
99	104	2
32	33	1
72	83	3
88	90	1
58	59	4
113	116	2
51	63	2
125	136	2
133	139	3
88	89	1
134	135	1
64	67	1
12	58	4
95	109	2
91	92	2
56	105	1
35	35	4
55	106	3
50	60	2
3	3	2
9	9	2
81	87	1
36	38	1
136	137	2
110	131	1
51	53	2
109	110	2
13	58	1
79	114	4
89	107	2
122	124	3
118	118	4
52	53	1
80	87	4
91	93	2
29	29	1
64	66	1
13	18	1
118	134	2
87	87	1
134	140	1
96	98	3
129	140	1
131	133	1
80	85	2
1	12	1
136	136	1
83	85	1
75	76	1
10	17	1
89	108	1
97	122	1
91	104	1
91	91	1
78	79	2
92	109	1
76	116	1
121	122	1
31	33	1
100	104	2
72	73	2
136	144	1
4	5	1
66	67	1
1	13	1
111	119	1
96	99	1
93	95	1
41	42	1
55	61	1
