127	129	4
121	121	13
13	13	1
110	110	4
4	4	8
127	127	4
104	104	6
65	65	11
76	76	4
92	92	5
66	69	3
109	109	2
5	16	4
58	58	5
24	24	4
4	5	5
99	99	3
33	36	1
3	3	13
27	27	2
128	129	3
95	96	8
103	103	4
34	34	3
91	103	2
59	61	1
7	7	6
31	31	5
93	94	1
60	60	6
29	29	13
19	19	1
36	36	2
35	35	4
18	18	5
26	72	2
95	95	3
116	116	2
61	84	11
14	16	2
65	69	2
63	109	2
134	134	1
106	118	2
106	113	4
131	131	3
97	101	1
90	90	4
22	22	4
125	125	1
100	100	7
108	108	1
111	111	3
71	119	3
122	122	2
76	77	1
70	70	7
27	30	1
91	91	1
74	74	10
28	29	1
61	62	1
113	113	4
65	84	2
30	31	3
43	43	2
82	82	7
52	53	1
54	56	2
64	64	3
114	114	5
132	132	2
5	21	4
58	69	3
45	45	5
82	83	2
26	26	3
111	114	4
107	107	10
97	97	7
17	18	1
0	0	3
27	28	5
38	38	3
82	84	1
66	66	2
50	50	5
68	68	2
56	57	3
73	73	2
85	85	4
75	75	7
28	28	10
15	15	5
89	89	2
20	20	2
30	30	2
3	4	4
17	19	1
13	16	2
87	87	6
110	111	1
70	104	2
55	57	2
79	79	7
62	62	2
67	68	4
29	30	1
115	115	1
25	80	1
102	102	7
47	47	2
101	101	5
8	9	2
12	12	10
98	101	1
53	53	4
2	132	1
117	117	3
108	109	2
86	87	2
112	112	3
67	87	2
26	73	2
105	105	2
49	50	3
1	1	2
58	85	1
116	119	1
127	133	1
123	123	2
92	96	1
91	92	1
45	80	1
128	128	1
44	44	2
67	67	1
77	110	1
25	74	1
32	32	3
83	83	1
119	119	2
62	63	1
4	20	1
63	64	1
33	33	3
78	78	1
114	118	1
134	135	1
59	59	2
73	74	1
119	120	1
55	56	1
62	69	1
76	78	1
91	102	1
130	132	1
74	130	1
8	8	1
35	36	1
37	37	2
5	5	1
117	118	1
77	77	1
78	110	1
23	131	1
65	66	1
3	5	1
9	10	1
115	118	1
31	68	2
84	84	1
107	116	1
97	100	1
63	63	1
20	76	1
61	63	1
54	54	1
78	111	1
