70	70	5
15	15	11
114	115	5
57	58	8
139	140	1
19	43	6
67	68	4
114	116	1
72	116	1
6	113	3
22	29	4
71	71	9
32	32	8
138	138	11
35	35	14
93	93	11
73	73	6
1	24	2
4	6	11
19	31	3
59	90	3
95	96	8
30	31	8
112	113	5
139	139	14
122	122	1
60	81	3
11	11	15
9	32	1
52	52	5
12	12	7
78	78	11
74	89	10
79	79	6
37	43	3
48	52	5
74	74	12
21	21	4
110	110	10
132	134	1
94	96	3
130	130	7
16	16	11
5	113	2
1	2	7
2	3	4
18	18	7
112	112	11
72	72	9
100	100	14
5	96	2
143	144	1
138	143	2
101	101	4
144	144	20
68	103	1
6	54	4
10	10	8
109	109	8
28	28	12
48	48	12
97	98	7
119	137	4
49	49	21
124	124	12
55	55	4
27	27	11
48	88	2
130	134	6
69	70	3
4	5	3
137	137	10
137	141	2
120	120	6
3	20	1
26	26	18
83	90	6
142	142	16
119	120	3
30	32	5
30	30	14
96	99	2
97	97	17
60	61	17
73	127	1
28	31	3
25	33	3
17	17	11
22	23	7
73	77	2
140	140	5
56	58	5
52	53	7
0	79	4
112	118	4
80	80	5
74	75	2
50	50	11
91	91	6
33	33	2
128	128	8
39	39	19
2	4	10
131	136	1
20	21	5
15	17	6
136	140	4
75	75	11
29	33	1
53	53	11
51	51	5
10	26	5
29	29	10
90	90	11
28	29	2
69	75	4
54	66	6
106	123	1
121	121	9
87	91	2
31	32	9
106	106	13
66	66	6
72	98	9
3	4	2
85	91	1
24	30	3
17	19	3
120	122	2
1	3	2
107	107	14
17	18	1
26	27	4
129	130	8
37	39	8
47	82	2
48	53	4
129	129	7
0	0	6
89	89	2
136	136	10
33	34	3
124	127	4
133	136	4
58	58	6
118	118	2
59	134	3
14	17	7
64	133	1
103	103	14
2	2	18
104	105	2
41	90	2
8	8	8
61	61	15
72	104	5
115	117	5
98	99	10
141	142	15
74	78	3
23	33	3
46	48	1
15	16	3
113	113	4
128	130	10
56	56	7
131	131	19
24	24	12
79	80	3
110	111	2
64	64	5
60	60	7
19	19	5
106	107	5
42	42	8
126	126	6
37	37	17
5	5	14
96	96	15
9	9	9
87	87	8
95	100	4
6	9	2
68	68	22
109	111	1
24	25	4
9	10	4
119	119	9
97	145	3
140	141	2
117	125	7
73	88	2
64	65	5
129	131	4
25	27	5
88	88	13
87	88	5
65	65	4
47	47	6
72	115	1
95	104	3
71	90	3
6	96	3
58	61	1
84	85	10
114	114	5
86	87	1
96	103	1
141	141	19
80	84	3
25	25	18
104	106	2
13	14	3
104	104	4
55	56	7
25	26	3
117	117	7
63	64	2
49	50	1
106	136	2
143	145	3
69	77	3
34	43	1
105	105	10
108	109	9
106	111	1
59	59	9
83	84	4
116	119	1
64	67	3
11	13	1
115	115	8
127	140	4
82	82	4
82	87	1
23	25	3
136	139	3
138	140	11
112	127	1
39	82	2
127	130	6
115	116	1
32	34	3
38	38	10
1	20	3
133	133	18
127	129	2
12	18	5
113	115	3
88	124	4
71	72	3
131	133	2
28	30	2
8	10	1
125	140	1
56	60	2
52	57	5
102	102	13
0	20	3
50	52	1
35	37	4
15	19	1
75	99	1
47	48	2
68	97	2
111	111	7
13	16	2
82	85	3
134	134	4
112	131	1
16	26	1
93	100	1
38	39	6
26	36	1
82	86	1
18	33	4
108	110	6
31	31	11
106	110	4
118	119	18
48	49	3
62	103	1
46	53	3
47	50	2
109	140	1
26	28	1
2	6	1
95	95	5
126	134	3
77	77	10
0	17	2
3	6	1
12	15	1
43	43	4
83	89	1
21	31	3
41	41	11
2	8	2
132	135	5
101	102	4
41	43	1
69	123	1
70	96	1
94	94	9
66	98	2
70	121	1
32	33	6
13	13	8
125	127	3
59	60	3
99	99	7
89	90	6
83	86	1
143	143	2
63	67	2
31	34	2
49	51	2
142	143	5
36	43	2
1	4	5
68	69	1
28	36	2
98	102	4
100	101	1
136	137	3
27	31	3
56	57	2
84	84	3
23	23	11
3	9	5
49	54	2
5	26	1
36	36	6
59	61	2
114	118	2
124	126	2
0	1	4
83	83	8
26	29	4
78	84	1
109	110	2
13	18	3
78	80	4
35	64	1
132	132	8
110	127	5
24	49	2
19	21	2
64	83	1
87	90	8
24	76	2
34	34	9
65	66	3
25	40	2
134	135	4
72	97	1
61	62	1
21	26	2
139	144	1
6	6	1
67	92	1
71	120	3
123	124	1
26	49	1
133	135	3
5	6	2
83	96	1
131	139	3
100	104	3
122	130	2
6	8	1
49	52	6
98	98	10
63	85	1
39	42	3
63	63	4
53	60	1
81	81	6
105	123	4
4	4	9
21	23	4
39	79	3
65	70	1
109	114	2
52	54	6
141	144	2
105	107	1
141	143	1
133	134	4
62	62	4
25	28	1
62	63	6
22	22	12
47	65	1
82	84	6
85	85	5
107	108	7
145	145	5
127	127	5
37	48	2
103	104	4
54	54	4
116	121	2
124	125	2
2	27	1
18	20	5
87	93	2
116	123	1
54	144	1
77	81	3
76	79	1
87	89	3
87	96	3
75	97	1
116	145	2
79	81	2
92	92	2
75	146	1
128	129	1
39	40	3
132	133	3
81	82	2
145	146	4
69	74	3
133	138	2
61	64	1
10	13	3
9	21	3
4	73	1
21	33	3
72	145	4
113	114	6
11	14	2
97	104	1
9	17	1
27	28	7
0	21	1
11	33	1
130	135	1
95	102	3
82	83	1
74	129	2
95	117	3
123	137	2
89	102	2
35	49	1
40	40	6
117	119	2
135	135	5
38	62	2
14	22	2
29	30	2
47	49	1
89	91	4
24	79	1
127	132	4
123	123	1
84	95	2
23	24	1
140	143	4
122	123	1
11	30	1
89	108	1
69	69	3
39	65	2
125	125	4
126	130	1
23	30	1
69	71	1
103	108	2
115	138	2
100	120	2
42	90	2
123	125	3
16	18	2
95	98	2
42	66	2
54	56	2
61	66	1
78	79	5
108	108	5
115	118	2
60	62	2
71	74	2
18	19	4
70	72	3
68	87	2
85	87	2
126	127	2
133	137	1
62	66	3
43	49	2
0	2	2
18	24	2
139	142	2
38	48	2
72	96	2
41	52	1
106	108	1
10	11	2
5	112	1
20	33	2
71	76	2
14	27	2
91	93	3
55	59	1
107	113	2
144	145	1
137	140	2
93	94	2
23	27	1
55	58	2
125	130	2
41	64	1
74	86	1
54	141	1
132	136	3
43	64	3
98	101	1
135	137	1
116	116	4
68	92	1
25	29	1
86	90	2
97	99	2
67	69	1
27	100	1
49	53	3
107	109	2
8	9	1
114	140	1
1	1	1
10	33	1
134	136	1
120	140	2
68	96	1
96	110	1
42	43	2
138	139	4
8	95	4
1	13	5
9	56	1
126	133	1
72	76	1
112	116	1
63	140	1
57	74	1
121	122	1
77	78	3
50	53	1
86	86	3
33	76	1
111	115	2
131	137	1
109	143	1
9	13	2
76	77	6
137	138	1
13	19	3
66	96	1
69	72	2
116	131	1
130	133	1
125	128	1
136	138	1
107	115	1
42	65	1
142	144	1
140	142	1
36	37	1
67	67	7
59	62	1
76	88	1
53	55	3
70	99	1
109	123	2
135	136	1
114	124	1
55	57	2
123	128	1
60	66	4
20	43	2
126	128	2
134	139	1
72	73	1
70	78	1
105	110	1
68	72	1
8	20	1
127	134	1
21	56	2
73	128	1
107	111	1
29	31	1
12	20	5
35	36	1
38	47	1
26	80	1
137	139	2
54	61	1
98	127	1
78	90	1
6	20	1
57	60	1
74	139	2
84	86	1
117	118	1
94	98	1
37	47	1
11	34	2
56	63	2
57	57	1
118	123	1
90	91	1
14	16	1
42	48	1
65	69	1
68	71	1
99	103	1
9	30	1
41	81	1
76	76	1
114	120	1
70	76	1
66	144	1
73	75	1
67	122	1
67	96	1
50	51	1
77	82	1
21	27	1
96	100	1
5	9	1
51	56	1
56	64	1
37	38	1
11	87	1
65	104	1
71	97	1
12	17	1
103	105	1
