114	114	5
118	118	11
237	237	3
152	152	2
164	165	3
79	79	8
205	213	6
204	204	8
200	200	2
201	201	1
32	32	6
25	25	5
189	189	1
79	196	3
216	225	4
217	217	2
19	19	5
54	54	3
9	9	6
85	87	2
37	40	3
28	29	1
49	49	9
32	33	1
98	98	3
13	18	1
11	200	1
208	208	2
176	176	3
197	215	2
98	100	3
155	155	4
81	81	6
60	62	2
242	246	2
112	112	3
10	15	1
179	179	2
209	240	1
68	68	1
166	167	3
53	112	3
8	8	2
76	76	4
20	20	3
29	29	5
87	87	3
160	186	6
74	74	6
158	159	2
72	78	2
82	87	3
71	72	6
70	70	13
2	3	1
221	221	4
175	179	3
196	196	3
53	53	5
211	212	5
157	168	1
103	103	1
90	91	4
86	93	3
217	230	2
197	198	2
173	175	2
97	97	4
217	218	3
158	158	3
63	63	8
119	120	2
144	145	6
197	197	3
182	182	2
224	241	2
35	35	3
67	78	1
31	31	9
37	38	2
96	96	2
96	97	2
194	194	9
185	186	1
61	63	1
28	28	2
239	239	2
91	152	2
169	169	4
70	71	1
2	47	4
46	47	2
240	240	2
118	208	2
209	209	4
38	38	6
84	85	1
151	151	2
23	24	7
222	223	2
220	246	2
89	89	3
51	55	2
18	20	2
167	167	5
227	227	6
193	195	5
227	233	6
77	77	4
163	163	2
229	229	5
59	60	4
165	165	6
165	166	2
182	186	4
113	113	3
38	39	1
0	0	1
186	189	3
1	1	2
188	221	5
12	15	1
180	180	9
42	63	2
64	64	1
215	226	1
225	226	1
120	150	1
219	219	4
73	79	3
73	75	3
33	73	2
231	234	2
160	168	9
230	231	1
212	233	1
69	69	1
58	58	5
118	150	5
44	44	2
94	94	7
66	103	2
58	59	1
215	215	1
228	228	1
207	227	1
51	54	1
6	50	1
95	106	1
9	204	7
111	111	2
193	193	1
22	22	2
2	2	4
158	172	3
246	246	5
173	174	2
214	233	3
237	248	2
168	168	2
175	178	2
217	219	4
178	179	4
60	111	1
117	118	2
35	62	2
112	114	2
120	144	3
105	105	2
244	244	3
17	34	1
161	161	3
162	162	1
60	65	1
43	43	4
5	7	3
224	224	1
231	231	6
230	230	6
153	153	4
216	216	3
160	185	5
18	18	4
49	50	2
14	14	3
187	188	3
226	226	2
19	21	3
184	184	5
21	21	7
94	95	2
247	247	2
182	184	4
2	14	2
95	96	2
57	57	2
150	150	2
185	185	1
243	243	3
156	156	9
238	238	4
59	199	3
19	42	1
71	71	3
240	248	1
71	79	1
26	26	1
87	94	2
199	208	3
45	46	5
47	48	2
7	7	7
160	167	1
245	246	1
69	98	2
69	112	2
197	204	2
144	174	1
46	46	2
4	77	1
17	29	1
172	236	3
65	67	2
168	174	1
164	164	2
160	160	4
23	23	1
1	63	2
233	233	1
175	175	2
223	224	1
84	87	2
154	155	2
187	187	3
48	57	1
9	10	4
196	204	3
160	161	1
210	211	1
33	74	1
4	4	2
80	108	1
92	94	3
223	225	2
171	172	2
86	86	2
214	232	3
37	50	3
179	180	1
17	42	1
6	8	4
15	15	4
177	177	1
52	54	1
205	205	4
192	192	2
13	13	2
64	118	3
169	235	1
115	115	3
233	239	1
34	34	2
62	197	1
26	202	1
6	46	1
79	80	4
108	108	2
21	22	1
218	219	1
215	216	1
27	27	3
191	221	1
232	232	2
72	72	2
11	11	1
69	77	1
105	107	2
82	177	1
64	66	2
119	119	1
183	184	2
36	36	1
62	196	1
169	234	1
79	86	2
91	91	2
234	235	1
87	88	3
19	40	5
110	110	2
93	116	2
116	116	2
82	82	1
188	188	2
222	227	1
102	102	1
67	67	1
171	171	1
12	51	3
210	210	1
5	42	1
20	42	1
90	145	1
65	91	3
56	56	1
167	168	1
8	151	2
40	40	1
213	213	1
76	113	1
109	117	1
45	45	1
68	115	1
242	242	1
42	43	1
165	203	1
52	111	2
67	113	1
203	203	1
171	233	1
219	247	1
51	51	1
211	235	1
88	88	1
16	17	1
223	241	1
214	214	1
10	10	1
234	234	1
106	106	1
234	236	2
10	17	1
66	102	2
121	121	1
30	38	1
107	107	1
33	33	1
85	85	1
80	109	1
109	109	1
