215	216	9
37	38	6
172	172	26
20	20	32
49	49	47
220	220	31
56	56	25
180	180	38
128	189	5
181	181	30
122	127	4
156	157	13
39	39	64
237	237	20
170	170	35
136	141	1
157	157	28
55	86	4
121	121	60
34	52	2
105	205	4
152	181	3
170	190	3
202	202	34
130	130	11
36	36	53
40	40	62
147	159	1
60	109	7
78	78	34
178	178	33
62	62	32
17	225	5
163	163	32
18	18	29
187	187	17
48	48	39
192	192	31
103	105	1
146	146	46
163	165	7
12	13	2
85	85	41
240	240	44
236	236	17
121	128	4
128	128	33
233	234	17
229	230	11
19	19	41
76	85	5
218	218	30
221	221	28
118	118	18
139	141	2
155	155	28
115	115	23
24	25	2
204	204	26
203	203	35
81	83	5
174	174	38
125	128	5
101	102	15
213	214	3
173	174	15
225	225	32
140	142	2
46	46	40
147	147	35
136	136	34
38	38	36
125	125	36
11	11	36
230	230	71
102	102	25
49	52	8
183	183	33
46	86	2
71	73	3
184	186	3
39	82	5
113	138	3
54	54	47
229	229	29
102	119	2
211	211	31
72	72	47
27	97	4
227	227	47
140	156	2
191	191	31
120	189	2
24	24	38
80	82	2
145	146	22
133	133	40
152	152	43
180	181	15
152	218	3
65	65	24
241	241	29
140	140	49
222	222	32
22	30	10
177	179	2
103	104	8
226	226	30
230	231	12
80	83	11
208	218	4
58	58	40
97	97	17
81	81	52
66	67	15
99	99	37
61	87	2
59	209	8
111	111	19
12	12	24
192	193	9
79	79	16
112	113	1
175	175	33
149	177	4
138	139	17
228	229	11
143	143	23
153	154	21
4	5	6
210	210	46
53	78	2
144	144	34
168	168	41
7	124	3
161	231	2
69	69	38
184	185	12
153	153	29
185	185	16
175	178	4
100	100	28
43	43	28
105	105	34
52	149	3
88	88	21
156	156	20
57	57	31
235	235	37
169	170	9
139	139	35
30	30	32
176	176	27
42	74	1
178	232	5
70	70	48
120	120	33
38	45	3
237	238	5
3	3	15
84	84	44
68	68	18
198	199	8
223	224	21
188	189	12
200	200	34
105	106	14
99	100	3
0	1	20
239	239	41
223	223	16
233	233	42
192	208	2
137	138	11
44	45	10
53	53	48
217	217	54
138	138	31
50	50	43
158	158	41
219	237	1
42	42	48
154	154	44
101	101	25
7	8	13
25	26	6
117	117	17
199	199	20
149	150	7
186	186	36
155	156	13
42	181	7
164	164	43
99	102	1
27	27	47
235	240	1
81	82	20
186	192	8
204	228	1
150	150	29
143	144	7
109	109	23
14	14	41
130	131	2
163	228	9
61	61	33
149	149	29
196	196	29
207	208	15
176	233	2
190	190	44
21	31	2
225	227	7
174	175	18
215	215	28
159	159	36
116	164	4
195	195	24
124	125	6
32	32	20
185	190	5
169	228	5
142	144	18
35	35	9
42	140	9
171	221	8
141	142	25
232	233	26
82	82	24
1	8	4
234	234	38
167	167	7
179	179	59
49	72	1
193	194	22
19	20	6
63	64	12
212	230	4
195	199	2
31	32	14
26	26	31
145	145	51
144	145	26
98	115	3
169	176	4
195	224	1
238	240	2
224	224	45
3	75	3
64	65	12
10	10	25
47	47	27
205	205	16
162	163	8
61	63	4
183	184	11
20	31	3
97	98	4
242	242	20
129	168	7
122	122	26
175	191	4
29	29	38
98	129	4
113	113	23
20	21	14
160	160	26
111	112	4
90	176	3
15	15	36
223	225	5
123	123	37
8	8	25
141	141	25
139	140	8
208	208	21
211	217	2
104	105	6
17	17	42
51	51	35
140	141	7
41	41	24
28	28	30
144	146	5
166	166	31
100	101	9
33	52	5
33	33	34
1	58	2
44	44	31
117	174	2
11	224	5
159	160	11
137	139	8
165	165	14
13	13	23
200	201	19
173	173	29
204	231	6
134	134	42
21	22	3
73	73	21
151	151	47
142	142	17
78	83	3
147	195	6
231	231	43
227	228	11
162	162	30
37	37	23
232	232	37
207	207	30
25	25	38
12	21	3
179	191	2
14	15	6
75	75	33
80	84	11
75	79	8
128	130	2
206	206	37
9	44	5
50	141	5
48	69	4
125	133	3
161	161	21
23	23	32
76	76	31
139	142	9
239	240	13
74	76	5
222	223	24
106	165	4
22	23	14
188	188	25
190	191	14
221	222	8
213	213	41
60	117	5
149	181	4
151	177	1
182	182	19
194	194	28
130	133	2
48	49	9
129	130	3
1	59	2
199	200	12
36	55	7
221	229	7
47	85	3
104	188	3
8	9	3
235	236	12
211	213	4
99	119	3
141	202	6
86	86	24
166	231	2
104	126	2
167	168	17
39	148	4
169	169	29
106	196	3
190	192	2
77	78	11
60	60	27
219	219	32
137	137	19
119	119	19
20	24	2
129	129	28
143	146	2
83	83	27
228	228	33
54	56	1
96	96	9
177	177	39
76	77	5
147	214	2
158	172	2
116	116	17
192	197	3
150	160	2
153	191	4
34	34	22
27	47	3
40	42	4
59	59	16
54	86	5
145	200	4
194	195	21
194	223	2
65	172	2
57	59	4
162	196	1
45	45	19
37	47	1
80	80	40
214	215	37
29	30	8
105	132	2
22	22	9
65	212	1
0	0	18
54	55	6
15	16	20
195	200	2
214	214	24
104	104	15
176	177	16
173	178	1
116	117	5
77	80	1
52	52	32
181	198	4
3	8	7
66	66	19
180	182	5
158	192	3
16	67	1
136	163	2
59	118	6
133	134	19
42	180	4
195	223	3
148	149	19
135	135	25
2	22	2
153	195	3
107	108	3
198	198	38
201	201	32
190	197	2
74	74	42
236	240	1
55	55	18
184	184	21
120	121	12
189	190	11
102	126	3
178	179	14
124	124	22
59	60	14
18	22	9
126	129	1
13	14	21
179	202	5
47	77	1
164	216	5
104	164	1
1	1	28
175	177	2
79	83	2
9	9	28
64	64	39
62	63	14
71	72	20
185	186	16
63	63	25
192	194	5
31	34	10
186	187	15
233	236	3
147	148	29
61	117	4
50	53	1
166	167	12
151	181	11
242	243	2
99	120	9
139	166	2
103	119	2
24	69	1
21	21	24
103	103	18
124	128	2
62	175	2
179	180	11
95	95	16
60	160	4
74	75	6
18	238	6
101	121	6
59	69	1
145	201	2
160	161	5
11	12	5
105	107	5
41	84	3
174	176	2
64	122	1
16	16	45
239	241	1
18	19	17
137	143	2
163	197	2
160	193	4
57	58	12
212	212	26
99	101	1
66	68	8
148	148	34
98	98	27
142	143	8
214	216	3
111	167	4
220	223	4
78	79	11
39	42	3
207	214	1
61	62	6
32	100	2
149	191	3
18	23	3
30	31	9
1	23	1
38	39	17
188	192	3
147	199	3
180	185	1
189	189	25
121	122	15
232	237	2
172	220	4
125	126	8
75	76	10
136	137	5
211	212	8
107	107	7
4	31	1
177	178	3
105	113	2
171	218	2
0	29	3
201	228	6
115	117	13
167	169	1
157	158	15
23	29	1
188	190	4
114	114	23
89	89	6
206	207	3
31	88	1
70	71	9
171	171	18
48	148	3
227	229	5
197	222	3
56	103	3
150	182	5
53	73	7
37	39	10
2	4	4
112	112	5
82	83	18
219	221	3
46	80	4
77	77	21
36	37	2
28	96	4
118	119	7
156	194	3
155	236	1
123	124	15
54	138	1
238	238	18
241	242	11
172	175	2
9	28	2
179	216	2
168	169	17
1	60	4
152	159	10
169	177	4
216	216	35
148	150	3
203	204	10
209	211	4
64	67	6
160	169	3
31	31	29
113	115	2
127	132	6
33	35	19
40	100	6
151	152	10
110	110	5
71	71	18
110	138	3
84	85	6
146	147	15
69	70	20
210	215	2
197	197	39
1	32	1
3	15	7
64	212	3
209	209	14
170	228	4
60	134	2
188	197	4
132	132	2
240	241	6
6	6	17
15	30	6
46	47	2
39	185	1
187	188	12
121	202	4
30	70	3
117	143	1
173	237	2
175	176	7
127	145	4
198	201	6
4	7	11
37	55	4
119	123	4
45	46	11
134	135	6
29	74	1
102	144	2
42	69	2
2	2	14
18	75	1
115	116	17
44	70	3
164	165	18
5	6	10
2	78	3
35	36	3
180	192	1
95	96	10
203	205	4
37	40	3
186	210	1
159	231	2
67	67	9
9	10	11
58	59	7
37	84	2
217	218	8
220	222	4
142	201	2
121	212	3
105	114	4
228	230	6
119	127	5
61	217	1
48	75	2
140	187	3
40	41	8
226	228	2
191	192	7
103	143	1
32	46	3
180	239	1
158	230	3
45	127	5
191	197	3
122	123	9
72	83	9
181	182	3
62	157	5
61	86	5
5	7	2
131	131	17
40	54	11
62	220	1
85	86	9
68	69	10
96	99	3
159	173	4
106	142	4
148	200	3
9	16	9
55	74	1
184	188	4
24	68	2
182	189	2
108	108	14
157	178	1
174	238	1
118	120	3
55	141	1
42	76	4
107	162	3
162	189	2
149	196	3
165	166	5
17	52	2
20	100	4
114	241	2
15	17	4
137	142	3
158	195	4
31	36	4
40	138	2
53	54	17
223	232	2
2	6	6
102	128	1
220	232	1
152	153	2
21	61	2
153	159	2
165	180	5
62	71	3
2	30	1
188	191	1
4	4	9
16	17	8
20	86	2
153	177	1
4	30	3
46	71	4
151	159	2
170	201	3
31	52	2
179	235	1
74	86	2
30	37	3
144	147	3
50	140	2
11	76	2
154	157	5
79	84	7
197	199	4
205	206	4
209	210	7
148	192	3
88	100	2
19	56	1
232	238	2
220	221	14
49	187	6
58	116	1
26	69	3
43	46	3
31	84	5
233	238	2
201	204	6
49	50	12
67	68	6
225	226	7
26	70	4
8	12	3
208	224	3
135	136	15
29	31	4
18	236	2
122	190	3
107	205	3
38	84	2
226	227	11
48	50	1
59	108	4
234	236	1
238	239	6
4	6	1
32	38	1
154	155	9
202	203	3
103	116	7
11	13	2
34	36	5
49	76	7
117	118	6
216	217	3
3	23	1
156	191	1
231	232	10
224	225	19
59	86	3
78	80	4
147	187	6
134	136	4
195	197	3
60	85	5
39	147	2
121	153	5
173	232	1
201	202	7
167	227	4
9	11	2
155	159	3
6	7	3
150	151	8
50	51	4
200	219	4
189	201	5
193	193	12
1	11	3
114	115	4
234	235	3
182	183	7
204	205	4
132	133	2
62	173	4
80	81	3
106	106	23
216	218	1
209	229	3
7	7	13
63	110	1
161	162	5
237	240	6
5	31	4
126	126	7
154	215	2
113	114	4
32	73	1
96	97	3
61	210	3
122	129	5
154	229	2
39	40	7
234	238	1
126	127	4
100	129	3
55	100	3
9	22	4
82	84	8
38	150	3
155	192	2
210	225	2
89	102	3
237	239	2
47	86	1
110	112	4
184	189	2
139	143	1
151	158	1
13	78	2
56	131	2
120	122	2
46	176	2
32	33	7
151	192	2
175	236	3
98	102	6
109	113	2
35	80	1
62	205	1
42	182	2
127	128	3
172	173	12
59	61	3
33	147	2
29	36	1
36	45	1
123	129	4
60	61	12
220	226	2
213	217	9
127	127	13
105	192	3
28	47	3
73	74	8
236	237	3
14	225	5
51	52	6
1	5	3
50	86	3
43	180	2
10	11	5
173	223	2
19	76	4
41	42	4
53	89	3
15	237	6
60	211	1
37	81	1
146	148	5
122	176	1
38	83	10
56	57	1
24	74	1
170	216	2
3	20	5
144	200	2
32	55	3
181	192	1
0	23	1
137	185	4
190	231	2
67	212	2
200	206	1
188	198	3
204	206	5
16	31	3
23	88	3
168	170	3
210	213	1
41	80	7
157	192	3
61	69	2
51	140	9
39	49	1
98	121	1
57	102	2
46	70	1
140	202	4
132	231	2
218	234	1
163	211	3
143	145	1
213	215	1
103	108	1
177	217	3
232	239	2
127	131	3
173	175	3
212	214	1
49	67	2
166	169	1
21	23	6
106	132	2
41	79	2
226	237	2
178	181	4
171	172	2
72	85	1
55	101	1
170	171	6
225	228	1
200	202	1
32	84	1
45	136	7
26	215	1
166	182	4
109	192	2
108	115	2
52	65	4
52	53	7
48	140	2
154	192	2
60	86	1
180	233	2
6	22	5
13	15	2
142	188	3
59	68	3
208	209	1
19	21	3
27	28	1
108	109	13
25	29	1
104	125	3
153	229	3
105	108	2
225	230	2
198	200	2
11	14	1
100	130	2
139	191	2
122	128	3
151	190	2
172	179	1
154	161	4
16	71	3
43	80	1
178	233	1
131	151	2
183	225	2
187	192	2
195	196	6
145	147	2
49	183	1
41	78	1
155	202	2
90	124	1
221	224	3
221	225	3
227	238	3
141	210	4
146	214	2
160	168	1
42	43	3
45	70	5
154	191	3
19	23	2
110	165	2
68	211	2
176	232	2
106	156	2
104	133	1
145	156	2
49	85	2
205	228	5
103	164	3
43	44	4
154	156	6
1	3	3
31	78	3
105	125	1
151	170	2
72	73	7
123	127	6
120	134	2
68	213	1
67	211	2
60	115	1
81	84	4
105	188	4
174	235	2
124	133	1
113	142	2
66	213	1
120	128	1
158	183	5
57	86	1
5	5	3
145	153	1
168	237	1
102	124	4
171	175	2
218	240	1
8	68	1
212	213	13
175	206	3
159	183	4
28	70	1
210	211	4
121	176	2
3	7	2
18	62	1
168	171	2
153	160	1
41	137	4
209	225	5
102	127	3
3	69	1
145	157	2
219	220	5
103	117	1
128	190	1
136	158	1
176	179	3
30	84	6
144	184	1
86	174	2
64	207	2
205	216	2
56	89	2
10	74	1
105	165	4
119	144	4
113	240	1
83	84	4
143	211	1
222	224	1
166	227	4
178	219	2
232	234	1
191	194	2
44	55	1
26	28	3
169	236	1
42	64	3
68	179	1
217	221	2
153	161	5
159	235	4
29	37	1
197	198	1
48	86	2
110	134	3
0	9	2
193	195	7
148	181	2
31	79	3
77	82	2
103	107	3
41	100	1
160	166	1
115	179	1
0	6	3
170	229	4
14	237	2
115	240	1
98	99	4
17	218	3
176	203	1
147	196	2
81	85	1
3	4	3
62	64	2
191	195	1
20	25	4
31	99	1
188	199	3
106	108	4
193	197	1
111	168	6
151	203	1
45	131	2
193	196	2
105	133	4
58	167	2
7	13	1
61	112	1
160	180	2
28	29	4
45	102	1
153	231	2
32	37	2
7	12	1
138	205	1
15	24	2
158	231	2
21	36	4
37	85	2
29	47	1
0	31	1
203	206	3
49	118	2
140	188	2
95	101	2
142	146	1
147	194	1
103	109	2
151	232	2
86	87	4
99	128	2
47	48	5
58	166	1
101	120	2
34	35	2
47	79	1
212	229	1
119	124	2
110	115	2
180	202	2
10	75	2
118	143	1
119	120	3
116	119	1
77	83	2
47	136	4
48	144	1
63	156	4
17	22	1
11	46	2
208	217	2
108	126	2
142	145	1
103	126	1
112	202	3
51	99	1
125	127	2
141	186	1
143	210	3
78	82	2
128	134	1
136	185	1
136	175	1
111	203	1
22	31	2
141	184	2
57	118	3
0	8	1
171	219	3
0	88	1
104	130	1
0	10	1
61	183	2
54	99	3
218	239	1
120	129	1
151	176	1
31	33	2
9	24	2
228	238	2
148	215	1
0	33	1
116	118	1
61	208	2
113	133	1
43	112	2
89	143	3
159	161	1
108	116	1
49	71	1
142	210	5
2	23	3
63	69	3
167	170	2
55	56	3
102	110	3
146	149	1
138	155	1
26	27	4
164	179	1
158	159	2
169	227	2
187	193	3
25	27	1
194	224	1
50	96	2
115	239	2
57	91	2
122	217	2
60	180	1
216	221	1
221	223	4
101	119	1
124	127	2
120	127	1
117	180	2
162	229	1
74	85	2
40	84	3
3	6	1
38	82	1
17	18	2
191	196	2
162	197	1
158	217	2
183	186	1
125	130	2
146	211	2
40	88	1
8	234	1
148	168	2
102	142	1
38	44	2
102	122	1
205	215	1
154	195	1
6	30	1
12	14	1
152	154	1
15	72	1
150	152	1
64	173	1
9	15	1
39	151	1
165	179	2
160	230	1
177	233	1
86	136	1
236	239	4
149	167	1
77	79	1
51	149	2
235	237	1
220	225	2
206	208	1
106	107	4
39	46	1
50	52	2
23	31	1
124	126	1
210	226	1
38	55	1
48	52	1
55	175	1
211	214	1
105	109	2
1	28	1
160	162	2
160	235	3
105	116	1
147	149	2
164	230	1
88	89	2
104	119	1
107	163	2
0	4	1
44	85	1
182	184	1
46	120	2
187	198	1
116	180	2
168	190	2
190	195	1
201	208	2
136	138	1
173	241	2
168	175	2
229	231	1
14	17	1
150	193	1
49	147	1
38	178	1
218	219	1
129	165	2
39	85	1
169	171	1
235	238	2
172	217	1
135	144	1
115	119	1
21	30	4
189	212	1
33	84	1
29	96	3
76	82	1
106	164	1
160	218	1
25	96	1
53	79	1
41	95	3
160	191	1
170	175	1
14	226	2
100	102	2
0	2	2
67	69	1
183	217	1
110	125	1
51	80	1
59	159	1
61	205	1
44	46	1
162	168	1
160	190	1
0	59	1
57	103	1
121	213	1
37	128	1
166	183	1
188	195	1
106	110	1
172	232	1
192	196	2
51	148	1
21	59	1
51	83	1
226	238	1
137	187	1
65	67	1
41	185	1
206	217	1
154	228	3
9	98	2
2	5	2
169	196	1
100	178	1
29	73	1
63	68	1
165	168	1
99	103	1
109	125	1
3	30	2
151	236	1
6	12	1
197	200	1
136	143	1
2	18	1
103	118	1
117	134	1
26	43	1
62	207	1
209	212	1
159	232	1
51	53	2
198	224	1
205	208	1
1	20	1
90	90	1
154	238	1
40	55	1
103	144	1
31	35	1
158	207	1
40	146	1
154	179	1
138	142	1
2	89	1
116	241	1
107	197	1
196	197	1
60	113	1
188	228	2
53	114	1
79	80	1
152	158	1
1	68	1
200	224	1
36	52	1
176	178	1
106	117	1
0	34	1
158	161	2
3	9	1
151	160	1
53	57	1
51	146	1
51	79	1
11	85	1
15	20	1
140	186	1
38	70	1
185	211	1
49	51	1
