0	0	6
47	108	4
102	135	2
17	131	5
70	70	9
64	64	11
126	134	2
54	55	5
70	71	4
131	131	15
114	114	11
32	32	8
26	26	6
107	107	15
8	10	7
38	38	3
60	83	2
51	51	7
73	73	6
109	112	4
102	102	14
29	37	4
126	126	9
92	92	6
42	42	4
112	112	11
80	80	6
22	22	14
51	52	12
24	25	6
89	89	4
57	69	3
71	71	14
136	136	5
29	29	9
24	24	2
0	3	4
120	121	2
94	119	4
67	67	1
135	135	4
39	59	2
24	32	3
68	69	11
75	76	3
113	115	4
125	140	2
122	138	1
11	11	4
95	95	19
1	22	1
4	35	7
19	19	7
121	122	1
14	91	3
47	47	7
0	21	1
13	13	9
13	30	2
35	35	5
50	52	5
101	101	12
36	36	13
95	101	1
54	54	7
89	105	5
25	26	4
74	74	14
113	138	2
106	106	7
118	118	4
5	5	15
133	133	3
59	98	1
115	116	2
9	22	1
10	20	3
117	118	2
52	68	1
62	63	2
81	83	1
83	131	1
11	36	6
91	124	2
123	123	9
22	37	1
34	48	1
85	90	8
63	63	1
59	67	2
9	30	3
52	85	4
17	18	3
119	141	4
52	53	9
35	99	4
5	75	4
23	25	3
49	64	4
61	61	2
123	124	6
33	51	3
94	94	8
9	9	5
34	34	7
91	91	8
95	102	1
84	84	9
23	87	2
105	106	2
15	25	9
101	102	4
39	40	3
125	125	3
66	67	2
55	65	3
68	68	6
22	23	3
136	137	8
57	106	3
3	76	4
108	108	11
37	37	3
17	20	1
97	97	1
121	121	3
139	140	1
40	42	1
93	94	10
101	134	4
85	85	5
90	107	2
53	53	7
4	5	2
17	137	2
18	19	3
14	14	7
22	40	1
48	48	3
97	98	7
27	29	4
143	143	2
77	107	2
59	60	3
2	2	8
109	109	12
47	110	4
134	134	9
69	70	4
27	34	3
14	15	1
110	110	3
42	78	1
67	80	5
79	79	3
124	124	4
115	117	1
3	6	3
27	27	4
126	127	2
60	60	7
15	15	8
3	34	4
99	99	3
75	114	2
98	98	3
23	23	7
103	104	2
89	90	3
97	102	5
5	138	3
50	50	9
75	75	6
103	103	4
92	93	2
6	6	3
51	58	1
17	17	8
55	104	3
128	130	3
134	135	3
78	78	1
72	72	2
138	139	11
95	103	1
109	127	3
16	17	3
18	18	3
1	29	2
88	91	3
70	74	1
12	98	2
63	100	5
145	145	6
3	10	3
1	1	11
57	57	8
30	32	1
124	130	2
56	58	6
105	105	4
104	105	2
60	135	3
20	21	2
31	31	1
8	37	1
81	81	10
93	93	5
62	62	3
122	122	3
72	91	3
49	49	6
81	87	1
134	136	2
65	65	6
26	27	1
23	26	1
77	116	3
114	139	1
113	113	6
103	144	5
2	31	4
107	108	3
49	52	2
8	41	1
48	51	2
110	124	1
116	116	4
20	20	6
73	109	13
29	31	2
12	31	1
27	39	2
90	90	6
104	104	2
94	95	2
39	39	4
16	16	1
8	11	3
111	111	7
0	34	2
3	4	3
60	61	4
10	10	5
66	94	1
40	40	8
115	115	11
71	76	1
54	100	2
132	139	5
12	12	2
35	36	3
86	126	3
132	132	3
128	129	2
83	85	2
83	83	12
33	41	1
84	85	1
97	103	5
65	66	2
100	100	2
131	132	2
59	70	4
116	117	5
80	119	2
72	77	1
73	114	1
19	21	1
90	91	3
28	28	2
142	146	2
66	77	1
17	132	3
38	71	3
70	113	1
20	134	1
36	97	1
66	144	1
41	142	4
137	137	8
120	131	2
1	139	2
140	140	3
92	105	5
50	53	2
23	24	3
60	62	4
135	140	3
82	138	2
130	130	2
116	141	2
85	86	2
95	98	4
84	89	2
66	66	4
71	111	2
34	35	4
32	34	1
9	51	2
113	116	2
1	41	2
81	82	3
34	36	1
87	87	4
67	84	1
15	18	2
0	141	3
8	25	1
139	139	2
127	127	3
48	98	2
36	53	2
54	146	1
132	134	2
141	141	2
85	134	3
41	49	1
111	118	2
61	66	1
40	49	1
89	131	1
131	133	1
14	18	2
88	88	1
36	37	3
58	58	1
73	106	2
23	33	1
15	89	2
83	84	1
126	128	3
102	103	1
94	118	2
2	21	1
143	144	3
103	141	1
17	133	2
4	4	4
119	138	3
4	6	6
50	57	1
114	124	4
1	32	1
4	14	2
3	37	1
58	106	3
9	25	1
119	119	5
76	77	1
58	88	2
129	129	3
63	64	1
15	34	1
127	132	2
130	131	2
8	8	1
6	27	1
50	143	1
86	91	2
82	82	1
18	42	1
125	126	1
126	129	1
22	42	4
8	51	1
15	16	3
77	79	2
59	59	2
23	146	1
112	113	1
136	143	2
142	142	2
83	87	1
56	56	1
54	65	1
25	114	1
2	36	1
28	104	1
77	78	1
90	131	2
12	28	1
80	94	2
105	109	2
31	48	1
128	128	2
78	121	1
118	119	1
43	43	1
52	52	1
119	129	1
109	110	3
76	79	1
91	109	1
96	142	1
4	30	1
51	63	1
64	83	1
55	55	2
13	14	2
49	68	1
24	42	1
5	135	1
21	21	1
121	135	1
56	57	1
33	33	1
48	90	1
67	68	1
120	120	1
51	57	1
69	71	1
76	76	1
55	56	1
56	110	1
86	86	1
30	41	1
41	41	1
51	62	1
