14	15	2
55	55	15
35	35	2
70	70	2
29	29	11
41	65	3
60	60	5
36	39	5
53	53	7
56	56	20
73	73	19
68	68	12
4	4	12
42	42	15
75	75	9
31	33	5
54	54	9
76	76	17
35	38	8
80	80	5
17	17	6
27	27	5
0	0	14
33	69	1
38	38	7
67	70	2
52	52	4
41	41	8
7	8	5
36	72	1
39	39	12
59	59	8
65	65	7
30	30	7
16	16	4
34	38	1
58	60	6
2	2	15
77	77	7
45	62	1
58	58	11
37	38	2
43	43	7
74	74	8
2	53	3
79	79	17
61	62	4
59	60	3
32	32	7
64	64	9
8	32	9
31	32	2
66	66	14
21	32	3
50	69	1
40	40	8
29	30	6
9	10	3
19	19	6
71	71	2
69	69	11
49	49	1
38	39	4
37	37	4
25	30	6
78	78	14
21	21	1
70	71	3
34	65	3
2	44	1
45	45	6
62	62	7
6	21	8
1	1	3
31	31	7
33	33	13
6	6	7
72	72	9
10	75	3
11	11	8
46	46	8
34	34	5
31	51	3
7	7	9
79	81	1
12	12	6
28	43	1
13	67	1
0	18	1
15	15	8
67	67	4
37	70	4
49	50	3
35	53	2
8	21	4
3	3	4
25	68	2
14	14	13
51	54	3
9	21	4
68	70	5
26	26	11
11	69	2
68	69	2
72	73	3
5	21	2
51	51	1
44	49	2
57	57	5
13	15	1
76	77	1
32	33	4
63	63	8
35	52	2
56	65	5
47	47	8
5	5	7
75	76	3
36	36	5
38	45	3
12	52	1
10	13	3
39	40	3
53	54	3
72	79	3
9	68	2
49	60	1
12	25	2
5	6	1
66	67	6
45	64	2
3	4	4
6	9	2
10	10	6
11	12	2
36	53	3
13	13	4
36	70	1
34	41	1
20	20	7
40	41	2
27	43	1
44	69	2
61	61	11
18	18	4
8	8	6
64	76	1
49	70	5
50	50	7
60	76	1
55	56	1
9	9	6
16	55	2
0	64	1
26	64	1
50	70	2
56	57	1
57	60	2
31	49	1
10	32	1
0	52	4
41	45	6
13	55	1
49	52	2
57	65	1
69	70	2
47	48	3
25	25	3
3	11	2
28	29	1
13	14	4
12	14	1
44	44	3
27	28	1
28	28	3
46	50	1
45	46	1
37	78	1
31	52	1
2	11	2
36	63	1
53	60	1
65	76	1
48	48	2
38	79	1
67	68	2
45	48	1
48	72	1
51	64	1
30	33	1
58	63	1
2	20	1
45	49	1
16	36	1
29	39	1
52	69	1
5	10	1
