141	141	9
86	93	7
81	81	9
57	58	5
30	30	19
48	48	4
122	123	5
116	116	17
70	70	14
110	111	6
68	69	4
77	77	9
135	136	1
103	103	9
91	91	6
35	35	7
130	130	3
102	102	6
18	18	3
41	41	22
133	133	6
60	61	10
9	9	2
136	136	10
104	106	1
54	64	5
19	19	8
37	39	1
64	93	6
84	85	6
120	120	7
25	25	13
21	72	1
108	108	5
53	53	14
68	68	12
70	81	2
64	64	13
9	29	3
37	37	14
54	54	2
100	100	6
104	104	5
49	66	3
129	129	3
94	94	16
32	32	8
95	95	13
95	96	2
52	52	2
69	69	10
57	57	9
119	137	5
78	78	6
1	26	4
98	98	13
121	121	22
111	111	7
104	115	3
92	92	7
17	17	8
84	84	8
71	71	10
76	76	6
134	134	2
16	16	4
38	38	3
27	32	1
0	1	1
132	133	5
117	119	3
48	52	1
137	138	3
62	62	6
93	94	1
1	1	9
101	101	1
97	98	11
42	42	5
34	34	5
91	92	3
91	117	1
125	125	7
62	68	4
47	52	2
50	67	4
14	14	3
73	73	8
90	90	17
142	143	7
130	134	3
62	63	1
63	64	4
113	113	1
76	77	1
86	86	4
94	96	3
4	6	7
113	114	9
53	55	1
30	94	4
56	56	8
8	10	1
47	48	7
38	42	5
118	118	6
23	23	3
72	72	4
140	140	3
18	19	4
79	79	4
63	63	7
131	133	3
105	105	4
102	108	12
130	131	1
126	126	6
137	137	6
122	122	1
22	22	5
112	112	1
53	90	2
11	11	8
124	124	6
120	138	3
116	117	2
102	105	1
22	23	2
59	59	8
13	30	1
55	55	3
58	126	3
11	18	4
115	115	9
74	74	9
110	110	5
29	29	13
5	10	3
20	73	2
132	132	7
6	35	1
4	4	2
15	15	6
97	97	10
104	105	7
27	27	14
67	68	4
141	142	12
19	20	1
138	138	4
117	117	11
75	75	5
123	123	9
121	135	2
56	57	4
69	70	2
126	133	3
99	100	3
8	8	6
25	49	3
13	13	4
40	41	8
127	127	5
106	107	3
52	59	2
31	31	3
97	114	2
0	0	4
135	135	4
66	66	6
92	115	1
89	89	2
66	67	4
3	3	5
107	107	4
50	50	3
26	26	7
96	96	3
28	28	2
126	130	2
88	88	7
99	101	3
14	31	3
22	70	2
85	86	2
98	99	2
60	60	4
50	77	3
124	129	1
64	143	1
30	31	2
63	92	5
4	24	4
114	114	6
12	13	1
71	76	1
86	87	1
74	75	3
131	131	4
113	115	1
125	128	5
24	25	1
78	79	5
83	83	4
53	60	2
10	19	1
46	47	1
41	43	2
39	39	5
2	2	4
128	128	2
119	119	5
104	116	5
92	93	2
25	27	2
64	65	1
54	55	3
141	143	1
53	59	1
28	32	1
93	93	5
101	109	1
39	58	4
61	62	2
36	36	1
106	106	2
10	12	1
100	108	1
23	25	1
91	118	4
27	29	2
8	28	3
114	115	1
49	72	1
93	142	3
131	132	2
20	72	3
51	51	2
48	66	1
55	136	2
111	112	1
125	129	1
127	128	2
20	71	2
10	11	2
63	68	3
40	56	1
96	97	2
62	144	1
143	144	1
20	20	1
68	93	1
99	99	2
53	54	1
87	87	2
10	10	3
12	12	1
43	43	2
65	66	1
131	135	1
5	39	2
75	81	4
8	32	1
142	142	3
13	31	1
103	142	1
36	37	1
124	134	2
47	47	1
117	137	1
103	105	1
24	24	1
106	108	1
87	89	2
67	67	1
87	90	3
37	40	1
28	29	1
92	94	1
54	65	1
5	6	2
41	42	2
119	136	2
93	141	1
6	6	1
13	14	1
96	98	1
36	43	2
65	65	1
21	21	1
9	10	1
58	58	4
91	115	1
115	116	1
16	17	1
50	88	1
85	85	1
144	144	1
132	134	1
