89	89	8
52	52	8
56	56	6
93	94	4
120	120	5
59	59	9
72	74	1
141	141	3
36	37	9
33	35	2
133	133	4
87	141	4
72	127	4
127	128	4
67	70	4
1	3	6
70	70	7
53	134	2
48	48	2
25	26	4
32	33	4
51	51	7
69	117	1
47	52	1
12	13	2
128	128	5
54	55	2
23	23	1
28	29	2
82	84	4
68	68	1
102	102	11
47	86	1
88	90	7
65	129	2
113	113	3
55	55	6
5	5	5
79	93	3
1	32	1
37	37	3
122	122	11
63	63	4
119	120	6
112	118	1
0	33	2
17	17	2
84	84	3
74	79	1
111	135	1
24	26	3
56	60	4
87	106	2
75	75	5
127	127	5
49	51	3
123	123	3
31	31	4
2	20	3
50	50	8
82	85	3
116	117	3
40	40	2
139	139	5
62	62	3
3	4	6
124	125	3
113	114	2
47	57	3
60	60	2
131	131	7
68	77	2
133	138	5
10	10	1
65	67	1
97	98	8
87	87	1
133	135	12
85	97	6
81	81	3
100	137	1
15	16	2
136	136	7
114	114	2
20	21	2
142	142	2
92	95	3
93	95	1
71	71	5
106	108	3
41	42	1
15	15	6
71	126	2
38	38	3
92	94	6
60	61	2
4	5	2
76	123	3
134	135	5
41	41	7
77	110	2
110	111	2
51	70	1
132	137	1
43	43	2
3	3	5
81	82	7
85	95	1
72	118	2
101	101	4
125	125	4
142	143	2
94	94	4
104	105	4
8	8	2
50	51	4
88	91	2
121	122	1
77	118	1
58	132	2
30	30	6
98	108	1
2	2	2
103	103	2
69	69	3
137	137	2
61	62	1
29	29	5
98	141	2
64	64	4
15	17	1
101	103	1
82	107	2
77	77	1
106	106	8
74	74	3
1	2	4
67	67	6
98	106	3
27	28	3
30	38	1
128	129	2
140	141	3
78	79	1
71	129	2
27	29	2
86	86	2
140	140	1
70	118	1
57	57	3
19	19	3
32	32	2
65	69	2
67	125	1
49	49	2
18	19	3
125	126	1
138	138	7
116	143	1
58	62	2
57	145	4
73	73	6
24	25	2
73	86	2
42	42	4
25	25	5
68	90	2
100	100	2
98	98	4
96	96	1
71	72	2
97	99	5
112	112	4
6	6	4
84	85	2
36	36	5
26	26	3
35	36	5
0	40	3
108	108	1
64	67	1
18	18	8
118	129	4
42	124	2
93	93	2
27	27	2
41	80	2
118	119	2
88	88	1
98	103	1
109	128	3
66	66	5
130	131	2
54	54	4
97	141	3
104	104	5
34	35	2
47	47	3
72	75	6
31	32	1
66	70	1
65	66	4
92	93	1
111	111	1
110	110	2
28	28	2
21	21	2
74	75	4
8	9	1
86	87	2
126	126	5
72	112	2
144	144	1
54	64	1
132	143	3
62	63	2
52	53	1
135	137	3
4	21	1
53	55	1
80	80	2
65	65	6
4	25	3
72	73	1
129	129	1
107	140	1
92	92	1
113	138	2
73	74	1
131	132	4
16	20	2
12	12	2
53	125	1
20	20	2
52	141	1
76	78	1
109	109	2
110	142	2
22	23	2
101	102	3
13	20	1
76	76	1
21	22	1
69	72	1
49	61	2
114	115	5
68	89	1
120	121	2
51	55	1
96	97	1
9	9	4
124	124	1
105	108	4
42	125	1
143	143	2
135	135	3
57	58	1
3	34	1
30	32	2
105	105	1
122	123	2
118	118	2
0	0	2
89	90	1
79	80	1
117	128	1
130	141	1
52	87	1
129	142	1
119	119	2
68	70	3
112	115	1
85	85	3
138	139	1
65	116	1
116	118	1
105	106	1
91	95	1
1	33	2
77	78	1
117	117	1
73	130	2
39	40	1
72	129	1
61	61	4
104	108	1
78	115	1
71	125	1
97	97	1
24	24	2
4	13	2
58	58	2
130	132	1
70	119	2
50	88	1
82	82	1
26	27	1
37	40	2
11	11	2
13	13	2
126	127	1
81	95	2
125	127	1
9	10	1
134	134	2
81	93	1
35	35	1
111	117	2
4	4	1
87	142	1
72	117	1
33	34	1
115	115	3
34	36	1
139	140	1
53	53	2
90	110	1
48	59	1
98	99	3
136	137	2
75	126	1
37	80	1
99	137	1
132	132	3
130	130	1
88	126	1
39	39	1
53	133	1
79	95	1
82	91	1
9	18	1
23	24	1
22	22	1
10	11	2
47	50	1
14	14	1
135	138	1
40	41	1
70	72	1
53	63	1
67	71	1
134	138	1
116	116	2
40	79	1
106	107	1
91	91	1
136	138	1
119	126	1
73	78	1
99	100	1
