85	85	3
78	78	6
32	32	6
97	100	3
107	107	3
52	53	3
76	76	7
111	111	2
80	81	2
138	138	4
137	137	5
177	178	6
62	145	4
132	133	3
60	60	6
187	187	7
84	84	2
127	130	3
45	48	1
15	17	1
79	81	3
61	61	9
141	141	3
71	71	3
153	153	5
185	185	8
128	128	10
77	77	5
94	100	3
2	2	3
59	171	4
0	3	4
11	13	2
161	161	3
83	84	5
173	173	7
41	41	5
72	72	6
43	43	3
109	109	4
148	148	4
110	111	1
13	13	2
60	63	2
79	79	6
183	183	6
40	40	5
162	163	2
18	18	5
36	36	1
118	118	10
64	64	6
177	177	4
85	86	5
58	58	5
15	24	2
124	124	2
23	23	5
140	140	4
51	51	4
168	169	6
130	130	4
194	194	1
100	100	1
146	147	2
86	86	8
7	8	4
43	44	1
79	82	6
127	127	2
75	75	3
35	145	2
170	171	2
34	34	4
44	44	4
168	168	6
86	87	5
28	28	3
54	55	2
52	149	3
117	117	5
184	184	3
8	10	2
106	106	5
120	120	5
196	196	14
164	164	4
119	119	4
82	82	1
129	149	2
135	135	1
162	165	2
69	69	6
46	46	1
31	31	2
110	110	6
176	177	6
152	152	8
81	81	2
116	116	9
188	188	5
40	41	3
4	4	2
29	73	3
142	143	1
1	1	7
96	96	3
43	45	2
12	12	11
108	109	2
38	38	6
45	45	3
129	129	3
156	157	3
30	157	1
19	19	2
88	89	1
83	85	2
73	73	4
65	65	3
175	176	1
50	50	1
6	6	2
46	47	4
37	37	3
159	159	7
56	56	2
154	154	4
163	164	5
67	68	4
158	158	1
50	51	2
187	188	6
182	182	6
105	105	5
74	74	10
3	3	2
19	20	1
93	95	1
149	156	2
70	71	5
83	83	1
139	139	4
155	157	2
121	122	2
53	53	3
53	72	1
192	193	2
135	148	2
157	157	2
70	70	3
33	145	1
0	8	3
122	122	7
31	55	3
114	117	2
186	187	1
57	57	9
95	95	4
94	94	3
42	42	6
113	130	2
174	174	2
17	18	6
102	102	6
115	116	1
36	72	2
16	16	4
52	52	4
38	42	2
143	145	3
155	156	4
165	166	2
61	62	2
131	131	4
68	68	7
61	63	3
67	74	1
100	101	1
125	125	6
176	176	9
104	104	7
10	10	3
97	97	7
114	115	5
169	170	3
135	137	2
180	180	4
18	21	2
170	186	1
73	74	1
128	149	3
44	155	2
20	20	3
117	118	3
190	191	2
99	100	1
66	66	1
107	158	1
189	190	2
127	128	7
113	113	1
80	80	7
94	95	2
172	172	3
58	60	1
97	98	1
59	63	3
189	189	6
8	8	5
174	175	1
111	113	1
55	56	3
59	172	2
144	144	1
39	39	7
49	49	3
15	20	1
0	0	3
171	171	4
28	158	2
9	11	3
112	152	6
123	123	2
79	80	1
26	65	1
17	17	6
5	5	3
154	155	3
0	4	3
33	34	2
22	22	3
25	69	3
158	159	3
84	85	3
5	6	3
24	25	1
34	64	2
182	183	1
144	145	5
45	152	4
101	101	2
162	162	8
130	131	4
41	154	1
28	30	4
17	19	5
108	108	5
21	21	2
179	179	1
170	170	2
152	153	1
44	46	3
147	148	2
17	57	1
32	35	4
100	102	3
193	193	4
153	154	3
110	112	2
9	10	1
130	132	4
113	151	2
40	42	2
35	56	2
155	155	3
108	159	1
134	135	1
27	27	5
103	103	2
138	141	1
13	14	2
89	89	3
27	28	2
37	71	2
81	82	2
44	154	2
94	161	2
41	42	1
22	87	1
167	167	4
22	23	4
162	167	2
48	48	2
63	63	6
37	69	1
24	24	1
181	182	1
33	33	3
163	163	2
12	25	1
38	43	1
126	126	2
29	29	1
25	26	2
99	160	2
9	9	1
178	178	4
146	146	1
93	93	2
143	143	2
27	30	1
136	136	3
133	133	2
99	99	2
166	166	2
29	56	3
16	57	3
127	129	2
151	151	4
15	16	1
115	115	2
101	102	1
197	197	2
1	87	2
167	169	2
30	30	2
142	142	2
160	160	1
37	54	4
155	159	1
86	89	1
129	150	1
98	100	2
190	190	1
132	134	4
175	175	4
62	62	1
71	72	1
76	77	2
181	181	1
15	15	4
141	142	1
54	54	1
47	47	2
29	31	2
26	26	1
59	61	1
39	40	2
41	74	1
21	22	1
42	44	1
87	89	1
157	158	1
30	31	1
4	6	1
152	154	1
3	4	1
32	33	1
139	140	1
0	6	1
86	88	1
125	126	1
169	169	1
124	126	1
114	114	1
144	149	1
17	23	1
37	70	1
142	146	1
20	21	1
24	80	1
121	121	1
78	79	1
10	11	1
179	180	1
131	132	1
66	160	1
