123	158	5
2	99	2
163	164	4
69	69	10
66	66	12
101	102	4
67	67	9
88	88	13
142	142	14
67	69	2
147	147	11
167	168	2
132	132	9
163	163	15
25	25	11
121	121	4
135	136	15
127	127	17
0	0	9
42	42	23
77	77	7
9	12	3
115	115	6
53	53	15
20	23	2
105	136	3
82	82	18
113	115	7
87	89	3
110	110	8
109	111	2
37	37	7
1	1	17
128	129	6
169	169	12
5	6	2
133	133	23
51	51	7
102	106	5
140	140	12
54	54	8
20	25	5
19	19	5
103	103	13
139	140	2
121	168	3
8	8	12
65	65	7
167	167	13
22	22	19
126	127	7
3	3	22
9	10	8
86	86	6
10	25	2
144	145	12
43	44	7
11	11	14
119	134	13
10	10	20
28	28	6
2	3	6
36	36	11
27	27	12
19	25	5
8	10	6
35	35	7
88	89	10
34	100	2
78	79	5
128	128	9
136	136	6
148	158	2
98	98	10
20	20	7
50	51	2
5	7	3
9	9	18
4	4	3
41	41	10
42	46	1
170	170	16
9	11	5
1	98	1
10	24	2
54	55	2
98	99	4
74	78	5
12	12	17
83	83	4
71	71	11
6	6	10
118	118	9
0	1	6
122	163	2
142	144	2
107	167	2
92	92	6
37	38	10
95	95	5
39	39	8
158	158	6
55	55	20
120	168	2
12	13	11
14	16	1
52	93	3
168	168	5
148	149	3
21	109	2
13	14	4
70	70	11
7	7	4
147	153	1
51	74	1
14	15	5
111	111	12
44	44	9
99	99	6
118	134	3
20	116	3
39	95	12
112	112	8
97	97	9
82	83	1
57	57	9
47	47	4
119	119	12
84	84	7
114	114	4
39	49	3
79	80	4
112	113	8
33	33	6
6	7	8
6	9	1
122	122	15
64	65	5
164	165	7
76	80	2
150	150	12
108	108	5
12	14	3
157	157	10
81	81	4
76	76	7
110	111	9
37	72	3
129	129	6
134	134	13
92	93	7
90	90	15
96	97	2
11	12	4
79	79	4
73	73	7
159	159	7
97	98	6
109	110	8
39	45	3
148	154	3
139	139	7
153	153	6
4	5	4
21	21	5
113	113	12
71	85	5
24	24	4
156	157	4
156	156	6
81	82	5
14	17	1
19	23	1
65	70	5
3	140	3
46	46	10
56	56	3
42	49	6
127	148	1
160	160	4
68	68	12
17	17	7
135	135	7
152	153	4
45	104	6
106	106	3
28	104	5
120	121	4
48	48	6
49	50	1
102	103	6
43	43	14
64	64	5
0	99	3
131	132	1
63	93	1
152	152	10
80	80	1
124	126	4
169	170	2
40	40	11
39	51	5
124	124	6
16	18	1
13	13	5
52	94	2
134	136	1
23	24	8
118	133	3
141	142	4
139	141	1
40	96	7
40	50	3
45	46	5
94	94	11
75	78	3
155	157	5
164	164	5
3	96	1
123	130	2
75	75	8
147	148	5
166	166	10
75	77	3
16	16	2
151	151	5
16	26	2
53	54	2
33	34	3
91	94	2
11	24	4
62	92	2
26	26	7
50	50	6
18	18	5
74	74	5
131	131	5
40	41	1
97	104	1
96	96	5
63	63	10
106	107	2
148	148	3
23	23	12
145	145	17
122	123	2
133	134	3
18	25	3
52	52	8
23	115	1
116	116	9
47	48	4
58	58	4
101	101	8
139	142	3
18	19	1
5	47	5
37	94	4
143	143	6
10	11	2
2	2	7
105	105	7
100	100	5
34	34	6
17	18	1
19	20	4
144	144	6
6	8	1
7	165	4
97	99	3
135	137	2
160	162	2
95	97	2
38	38	9
72	72	11
73	74	2
107	107	5
146	146	7
45	45	4
80	84	1
52	91	2
33	105	2
85	85	2
137	137	4
81	83	2
21	25	3
0	5	4
63	64	3
64	71	1
145	146	9
111	114	4
39	74	1
35	36	2
93	93	5
5	5	7
165	165	3
100	104	3
155	155	6
123	123	2
122	124	3
95	96	1
73	84	5
126	126	5
111	112	1
119	131	2
65	85	2
81	84	2
141	141	3
167	169	3
34	35	1
21	168	4
77	78	2
125	159	1
4	47	2
15	20	1
161	161	7
38	94	1
91	92	1
162	163	3
121	122	5
140	142	3
61	62	1
149	156	1
97	145	2
68	69	1
57	63	1
145	163	2
87	88	2
38	93	2
52	90	2
20	26	1
55	58	3
104	104	7
11	15	2
13	16	1
19	22	2
19	21	2
85	86	2
67	68	2
40	95	2
54	56	2
8	9	2
124	131	1
77	79	1
20	115	2
34	45	1
34	136	1
45	95	2
89	89	2
148	153	3
33	100	1
57	62	2
153	154	2
27	28	4
11	22	3
138	138	3
120	120	1
155	156	1
124	129	1
42	144	1
49	49	4
33	35	4
125	126	2
154	154	5
162	162	3
115	116	1
1	2	3
0	4	1
103	104	2
128	130	2
89	91	1
73	83	1
25	26	1
65	66	2
150	153	2
127	156	1
158	160	1
149	150	2
160	163	1
20	22	1
48	49	2
166	170	1
90	92	1
160	161	3
76	78	2
16	17	2
87	87	2
12	24	1
117	117	3
149	155	1
136	166	2
109	109	1
74	75	2
117	120	3
57	89	1
75	76	1
86	87	1
45	74	1
18	90	1
140	141	2
104	105	1
118	119	1
130	130	2
122	168	1
147	154	1
21	23	2
57	88	1
129	130	3
125	125	4
24	25	1
36	37	3
22	24	1
159	161	1
38	39	1
39	50	3
124	162	1
40	45	1
23	169	1
123	163	1
71	84	1
64	70	1
122	167	1
147	159	1
100	102	1
14	14	1
151	152	1
140	145	1
100	101	1
44	45	1
