85	86	6
149	155	4
110	110	6
71	72	3
33	33	3
102	102	6
119	119	3
45	45	13
39	40	3
133	133	6
160	161	4
10	10	2
74	78	2
65	66	4
103	103	4
97	98	3
76	76	9
90	91	7
137	151	6
85	85	2
18	24	2
138	138	4
108	108	21
18	18	5
128	128	19
162	163	11
83	84	3
142	142	7
89	89	7
18	19	2
102	121	3
27	27	5
141	142	1
53	53	4
87	87	6
69	69	11
148	148	6
0	0	4
93	105	2
134	155	3
136	136	16
105	105	8
153	154	3
124	124	5
84	85	1
112	114	5
45	52	4
47	48	6
157	157	6
11	11	8
137	137	6
98	98	3
135	136	5
116	116	6
8	8	8
155	157	2
26	56	1
99	99	4
145	145	5
94	94	10
158	170	2
90	90	1
100	105	4
125	126	6
69	102	2
159	161	4
16	16	10
143	143	14
40	40	10
96	97	7
5	6	3
127	127	5
115	145	4
121	124	2
73	73	9
97	97	6
14	14	2
101	102	1
91	91	2
49	49	9
151	151	11
36	36	5
14	15	4
107	108	3
15	33	2
126	130	2
4	10	3
99	101	1
15	15	6
100	101	3
122	122	8
107	107	3
44	44	6
109	110	8
76	80	2
28	96	3
45	46	2
130	130	3
167	168	1
161	161	10
80	80	7
131	131	3
131	132	3
65	67	1
158	158	9
111	112	2
17	17	6
134	134	6
109	158	1
130	155	1
156	157	7
127	128	3
77	78	3
151	153	5
38	40	2
132	132	4
34	39	2
35	35	9
122	124	3
7	7	8
34	34	4
93	94	5
52	52	4
168	169	10
168	168	7
83	91	4
15	16	2
53	54	5
5	5	7
13	44	5
68	69	2
160	160	5
133	134	4
111	111	6
85	89	4
101	120	7
126	126	10
106	106	4
81	84	2
125	125	6
40	112	2
49	51	1
26	26	4
118	166	1
86	86	4
68	68	7
129	166	1
38	38	6
72	81	4
107	111	2
81	81	6
48	48	3
27	42	1
115	115	4
21	24	3
129	130	1
159	159	2
82	153	3
34	38	6
96	96	4
4	5	1
78	78	11
101	101	6
28	28	3
117	118	4
154	154	6
67	69	4
35	36	3
139	139	4
66	66	5
45	51	6
113	113	5
102	103	9
1	2	2
50	53	1
42	42	5
144	145	7
79	79	11
118	131	2
76	77	2
118	130	2
3	5	1
142	143	2
94	104	4
110	135	1
20	23	7
54	58	1
140	140	4
91	98	3
1	1	6
22	22	7
25	44	7
6	85	1
147	148	4
157	158	3
132	133	7
46	46	1
71	71	9
139	140	2
98	99	1
67	67	1
18	20	1
147	152	1
149	156	2
25	26	2
63	92	2
58	85	1
117	117	9
68	102	5
50	50	6
105	106	5
132	157	1
163	163	5
46	81	3
159	169	2
20	20	12
123	125	1
86	87	4
39	41	2
1	89	2
2	6	4
37	39	3
57	83	1
24	24	5
162	162	7
95	96	5
43	43	5
66	102	1
163	164	2
138	139	2
129	129	4
37	37	4
3	3	3
14	16	1
123	148	3
11	12	3
12	12	3
118	118	6
156	156	2
19	20	3
10	38	1
136	150	4
133	156	1
54	54	2
76	154	2
73	74	1
72	120	3
76	83	4
53	84	1
152	152	4
101	117	2
107	110	2
126	127	1
92	93	3
83	90	3
6	6	6
155	155	9
150	151	1
38	39	1
144	144	2
43	109	2
126	128	2
149	149	4
100	100	1
140	142	1
149	154	3
167	167	1
164	165	2
14	93	1
121	127	5
70	134	2
159	170	1
55	55	3
48	49	4
57	57	7
2	2	5
123	128	1
25	43	1
13	13	7
88	88	3
93	93	5
114	168	1
10	18	4
4	4	1
134	157	1
62	62	2
84	84	1
54	57	1
74	106	2
35	41	2
49	50	1
166	166	4
114	116	1
141	167	1
84	87	1
123	152	1
126	162	4
76	120	1
47	50	1
152	153	2
155	156	1
74	74	3
72	72	2
40	41	1
39	39	4
58	58	1
70	70	3
77	77	3
7	8	1
96	98	1
95	95	4
61	118	1
165	165	4
158	166	3
8	58	2
8	9	2
97	120	2
63	112	2
46	47	1
124	150	2
51	51	1
47	47	3
151	154	1
64	64	3
147	147	4
23	23	4
24	25	1
9	113	3
112	127	1
73	119	1
106	107	1
141	141	3
48	50	2
116	118	1
113	114	2
11	20	1
17	23	2
100	119	1
124	125	1
104	105	2
131	142	1
123	124	3
20	44	2
65	65	9
98	103	1
46	84	1
137	148	1
10	11	2
51	58	1
44	45	2
129	165	1
26	109	1
69	81	3
139	168	4
123	154	3
81	85	1
75	106	1
42	62	1
8	63	3
102	133	2
93	95	2
48	156	1
66	69	1
130	131	2
16	24	3
112	112	2
16	17	3
164	164	1
155	159	2
117	168	1
109	109	4
120	120	1
91	104	1
34	37	1
120	132	2
21	21	3
145	146	2
76	87	1
114	114	1
19	19	4
42	43	2
27	28	1
127	130	1
9	63	1
101	121	2
41	41	2
75	75	1
37	38	2
2	3	1
10	19	1
6	9	1
72	73	1
4	12	1
51	53	1
153	153	2
120	121	1
107	112	2
118	120	1
97	99	1
73	120	1
162	164	1
160	170	2
101	119	1
117	166	2
18	34	1
45	47	1
135	135	1
92	92	1
52	97	1
146	146	1
23	24	1
116	120	2
115	120	1
150	150	1
123	123	1
121	122	1
28	97	1
70	74	1
65	119	1
102	132	1
57	63	1
158	159	1
