90	90	3
155	155	12
68	68	2
130	158	5
25	25	9
129	129	9
69	70	3
108	108	6
93	94	4
54	55	5
121	146	1
0	1	2
69	69	3
106	106	9
134	134	10
19	32	3
137	138	1
73	73	9
120	123	6
48	48	5
77	81	2
14	14	8
18	73	3
12	39	1
26	26	2
94	94	14
45	45	4
8	8	15
6	6	9
1	1	4
13	17	3
32	32	5
19	19	3
47	49	3
104	104	3
91	91	9
50	50	6
142	142	15
128	130	3
140	141	5
99	99	6
65	65	6
17	18	4
18	18	4
29	29	6
43	43	4
53	53	3
151	151	10
124	124	9
16	16	7
83	84	4
46	46	9
121	121	12
109	109	7
116	116	14
118	118	4
40	40	10
81	135	4
101	101	9
2	5	1
142	145	5
125	125	6
10	10	4
150	150	7
119	119	2
141	141	7
108	109	3
12	12	8
114	114	8
2	2	9
75	75	7
114	137	1
97	97	7
99	105	1
149	149	2
35	35	5
139	139	6
18	80	2
140	140	6
96	140	3
79	79	9
77	77	4
38	39	2
145	146	1
134	135	6
41	41	8
151	158	1
22	22	8
47	47	9
138	138	6
33	33	8
105	116	1
87	87	10
157	157	6
78	78	5
71	72	2
89	89	3
70	70	4
21	55	3
5	5	11
4	4	3
85	85	2
47	51	1
90	110	2
107	107	11
154	154	8
42	43	4
31	31	2
88	89	4
36	36	7
100	100	4
130	131	6
38	40	3
147	147	3
3	3	3
101	149	2
120	120	19
113	117	1
84	84	7
17	31	3
102	133	3
6	30	1
38	43	1
4	45	2
117	117	7
28	29	3
30	128	1
64	131	2
39	39	1
42	42	7
153	153	4
77	128	3
145	148	4
18	38	2
56	63	3
146	147	6
132	132	6
145	145	2
23	23	7
34	158	1
56	57	1
131	131	1
68	152	1
146	149	2
128	128	8
81	134	4
119	120	5
21	52	2
11	11	4
7	9	3
81	81	3
6	11	2
111	112	3
117	120	6
138	155	4
102	102	4
152	152	4
96	96	5
68	70	1
122	122	1
156	156	5
155	156	6
109	111	1
11	67	1
157	158	5
7	10	3
86	87	2
86	86	10
66	66	1
90	92	1
78	80	2
88	88	1
92	94	1
15	36	1
154	158	5
148	148	4
151	154	1
11	28	2
7	7	1
126	126	4
33	34	4
87	88	3
79	147	2
81	125	4
30	32	2
3	20	3
150	151	2
28	28	7
82	123	3
0	26	3
131	145	3
8	15	2
16	18	1
0	0	3
9	10	4
93	93	2
35	69	2
30	30	6
71	71	2
34	35	3
4	43	2
130	130	8
152	153	2
5	65	3
17	17	2
98	99	3
33	93	1
99	128	1
35	36	6
98	104	1
33	36	1
110	110	4
135	135	8
108	110	1
117	137	2
36	37	1
91	92	4
12	14	3
54	54	2
12	76	3
13	13	5
85	86	3
52	146	3
1	56	4
82	83	2
145	158	1
0	50	1
75	100	1
145	150	1
105	105	6
1	14	1
37	38	1
81	120	1
33	55	1
31	32	2
0	13	1
18	19	1
122	126	1
80	80	3
95	95	2
29	30	2
155	157	1
101	103	3
15	15	7
46	47	1
91	154	1
127	127	4
55	64	1
79	81	1
38	46	2
137	137	6
100	129	1
23	24	2
49	49	1
3	4	1
79	80	2
8	9	1
132	133	4
103	104	2
112	117	2
117	119	1
103	103	1
121	126	3
1	105	1
13	42	1
81	106	1
106	107	2
115	115	9
120	121	4
82	82	2
101	102	1
111	111	2
67	70	1
9	9	3
136	136	3
16	17	3
44	44	1
118	119	1
21	21	2
50	53	2
158	158	4
53	54	2
70	131	2
122	148	2
129	130	1
86	142	3
97	104	2
30	157	1
123	123	1
106	142	1
32	33	1
7	8	2
38	38	1
55	55	4
71	157	1
101	134	1
0	69	1
52	52	1
96	98	1
13	14	1
152	158	1
102	104	1
110	111	1
21	22	2
8	73	1
153	154	1
24	25	1
64	134	2
101	152	1
107	109	1
48	49	1
45	51	1
1	100	1
51	51	2
13	33	1
100	101	1
15	79	1
24	24	2
83	85	1
40	42	1
35	42	1
133	133	1
17	32	1
138	139	1
11	40	1
88	96	1
68	71	1
124	125	1
92	152	1
30	31	1
4	5	1
64	64	1
