151	151	13
2	2	9
146	146	1
24	26	3
151	152	4
105	105	2
16	16	4
162	163	3
83	93	3
11	13	4
107	107	3
131	131	2
129	129	5
75	75	2
160	160	8
108	108	5
139	139	1
154	157	4
99	99	2
103	148	7
119	170	3
9	13	4
134	134	2
136	136	5
125	126	6
89	90	1
106	106	1
63	64	3
36	47	1
150	150	4
39	45	2
137	137	9
73	73	1
43	43	6
128	128	4
86	90	4
135	135	3
70	70	1
20	20	7
113	113	2
100	137	2
115	115	5
54	64	3
17	20	2
50	71	2
163	163	8
5	6	3
132	132	3
168	168	3
167	169	2
71	71	7
4	5	1
84	91	1
0	0	2
5	5	3
101	101	7
52	52	3
154	155	6
124	124	6
94	94	3
81	81	5
104	125	5
4	4	7
22	22	10
106	129	2
63	63	1
36	78	1
1	2	3
144	144	3
35	47	1
3	3	5
131	134	3
2	14	3
158	158	2
126	126	3
100	100	5
35	35	3
151	155	1
72	72	1
162	162	4
1	1	8
153	153	7
108	109	3
149	149	1
14	14	3
112	112	3
23	24	4
125	137	2
77	77	4
145	145	1
50	79	4
88	88	3
78	95	1
164	164	3
16	17	2
143	143	5
129	132	4
140	167	3
138	138	14
114	114	2
8	8	3
52	71	1
121	121	2
73	74	4
17	17	6
154	154	2
51	51	1
104	104	3
18	18	2
22	93	1
18	84	1
67	68	4
41	42	1
96	96	1
27	28	1
37	37	2
38	38	5
20	22	3
95	96	4
122	122	3
2	3	3
10	11	6
97	97	1
139	140	1
44	44	2
10	10	5
141	141	2
169	169	2
34	34	1
84	84	1
26	28	1
79	96	2
53	74	1
3	4	1
83	83	3
109	109	2
52	70	4
105	140	2
53	53	4
33	33	1
15	15	4
103	142	2
125	125	2
124	125	1
21	21	6
36	36	2
2	13	1
40	40	1
121	168	1
11	11	1
90	91	1
8	9	1
142	142	4
3	11	1
103	103	1
101	102	3
147	147	1
120	120	1
6	6	2
23	58	3
22	23	5
159	159	3
85	85	2
40	44	1
26	26	2
88	89	2
87	87	1
50	51	1
14	15	2
165	165	2
105	106	1
27	32	1
102	149	1
145	146	1
105	114	1
152	166	3
111	111	1
74	74	1
16	88	1
13	13	1
80	80	1
23	23	2
108	110	1
128	129	2
117	170	1
161	161	2
167	170	1
42	42	2
121	166	1
5	17	1
137	140	1
101	139	2
33	34	1
86	87	1
125	136	1
137	139	1
71	72	2
49	49	1
21	22	2
47	49	2
89	89	1
105	137	1
19	19	3
160	162	1
142	144	1
7	7	1
110	111	1
106	107	1
114	129	1
55	56	1
115	117	1
85	87	1
138	139	2
74	75	1
58	58	1
11	12	1
