66	122	2
119	120	4
87	123	1
84	84	5
63	63	13
64	64	6
26	26	7
103	103	5
14	14	12
35	36	3
35	35	12
104	105	10
121	121	10
75	76	2
98	98	7
104	104	6
56	56	5
131	131	7
143	144	4
93	130	5
50	50	13
76	76	1
135	136	4
67	67	4
49	49	10
87	87	10
95	95	11
36	36	9
117	117	14
12	13	3
98	101	4
29	29	7
48	48	12
121	122	5
59	81	2
102	102	13
57	57	17
138	138	4
62	63	10
142	142	9
73	73	7
134	137	2
124	124	6
47	47	7
108	108	9
86	86	7
80	80	8
91	91	9
115	121	5
146	146	1
17	18	3
15	16	6
104	113	11
39	39	12
5	9	3
33	34	3
72	72	15
100	101	6
76	77	1
89	114	2
79	79	20
48	56	3
32	32	4
74	74	9
135	135	3
106	106	8
30	30	14
73	90	3
73	79	2
80	129	2
100	100	6
42	42	13
118	118	14
88	89	6
141	141	13
84	128	1
98	108	3
55	56	4
126	126	5
20	27	4
21	21	16
58	58	14
11	11	16
53	53	9
5	10	2
140	140	17
99	99	4
132	133	8
137	137	16
76	78	10
60	61	5
54	54	12
128	128	7
106	109	2
72	74	3
83	84	5
82	83	4
19	19	8
136	140	2
92	92	6
123	123	5
85	97	3
71	72	10
111	111	12
33	33	6
54	55	1
133	135	1
135	139	2
145	145	7
34	34	5
126	140	1
79	128	4
101	102	2
82	82	8
94	131	1
61	61	12
36	37	4
129	130	3
31	31	9
23	31	4
20	20	11
25	26	3
141	142	8
83	96	1
61	62	4
27	69	6
28	28	8
91	132	1
25	62	3
120	139	2
77	77	4
80	81	5
97	98	9
133	139	2
109	109	3
83	83	5
133	133	5
61	73	1
12	12	2
93	93	9
94	94	8
49	55	3
20	21	4
4	5	2
105	105	5
138	139	1
50	87	1
17	17	8
142	143	5
77	79	1
85	85	6
88	88	7
2	48	2
10	11	4
21	31	4
132	132	2
60	60	11
131	132	7
76	87	1
48	54	3
70	70	7
68	68	16
2	33	2
90	90	5
120	120	9
90	137	2
52	87	7
84	85	5
105	106	2
113	113	6
106	108	3
110	110	3
130	140	1
33	66	2
134	134	8
92	93	5
5	48	1
53	66	4
48	51	3
99	108	1
116	116	6
125	125	4
54	58	1
22	22	20
6	37	2
10	10	2
33	65	2
115	117	2
19	38	1
118	119	6
9	10	3
78	141	1
110	111	3
24	25	4
75	75	4
96	124	1
116	118	1
38	38	10
64	65	6
24	24	9
66	66	7
95	103	1
3	5	2
128	129	3
99	100	2
50	62	2
129	129	3
84	92	1
115	118	2
22	144	1
25	25	6
20	34	2
114	115	1
62	62	2
50	51	3
140	141	7
51	51	4
136	138	8
55	55	5
2	123	4
41	100	2
15	17	3
93	124	1
4	4	6
34	43	2
116	117	2
57	58	12
112	112	2
32	71	1
22	26	1
139	139	11
0	0	1
110	112	4
65	65	3
43	43	2
59	66	2
27	27	3
118	121	2
41	41	2
16	19	2
81	81	9
112	116	4
83	85	1
34	35	8
119	127	5
33	43	1
13	13	10
34	58	2
112	114	1
97	97	5
15	15	4
142	144	2
33	53	1
94	95	3
105	124	1
15	20	1
135	137	4
127	127	5
84	121	1
53	90	4
66	68	3
124	125	1
37	37	4
21	27	2
122	123	2
131	139	6
70	71	1
89	89	7
95	101	1
101	101	4
8	8	2
49	66	1
3	3	5
40	41	2
113	119	2
128	130	1
18	18	11
82	86	3
127	129	2
77	136	3
67	123	1
49	50	3
6	6	7
75	79	2
8	9	1
130	130	4
82	84	4
115	116	2
114	114	2
81	85	2
59	59	2
88	115	3
52	123	2
59	60	3
81	131	3
107	124	1
60	62	2
97	109	2
113	117	1
24	32	4
30	75	1
125	126	1
58	60	2
78	78	4
40	40	2
2	34	3
119	140	2
126	133	1
53	67	2
26	28	1
91	133	3
89	122	2
49	64	2
118	126	3
17	28	1
8	10	2
66	67	5
97	129	2
122	122	7
81	82	4
9	11	1
42	101	2
134	135	1
59	116	4
129	140	2
9	9	5
107	107	3
48	49	1
96	131	1
111	112	6
70	110	2
87	90	2
127	131	1
139	140	3
3	52	1
36	47	1
58	80	1
28	29	1
8	14	1
2	2	3
19	55	2
23	33	1
63	66	1
72	73	2
17	21	2
74	75	3
36	56	2
31	32	4
52	53	1
22	72	1
102	103	2
79	138	1
93	125	2
24	62	2
42	48	1
107	110	1
113	114	2
77	80	2
125	134	1
96	126	1
77	135	2
136	136	2
68	70	1
143	143	2
105	114	1
127	128	2
83	126	1
115	115	3
23	23	2
27	28	2
68	69	2
54	67	2
90	121	1
5	101	1
16	16	4
69	70	1
77	78	2
16	36	1
76	85	1
131	137	1
14	15	2
5	38	2
6	14	1
14	31	1
129	141	1
87	88	3
15	34	2
85	128	1
78	79	1
124	134	1
0	36	1
0	6	2
69	69	2
29	30	1
119	119	1
130	131	1
79	80	1
53	54	1
77	81	1
0	1	1
37	38	1
47	123	1
21	49	1
92	126	1
23	24	2
41	42	1
34	46	1
105	116	2
107	108	1
49	65	2
70	111	1
49	82	1
144	144	1
87	121	1
1	1	2
117	118	1
65	66	1
120	134	1
98	103	1
83	135	1
27	29	1
135	138	1
