70	70	28
78	78	24
58	58	32
81	81	33
24	27	3
65	65	28
60	80	3
14	14	36
48	48	22
72	72	35
77	78	4
49	58	4
75	84	5
67	67	58
19	24	4
73	76	2
6	19	2
52	53	14
84	84	41
47	48	13
23	23	18
82	83	15
60	60	21
54	63	3
73	73	35
89	89	14
85	85	29
75	75	40
63	63	25
74	86	1
60	65	2
75	80	2
20	20	28
9	9	37
26	26	27
27	66	2
52	52	40
1	86	4
59	59	17
55	55	34
2	2	35
77	77	29
61	61	22
68	68	44
54	54	26
34	34	19
62	63	18
53	53	25
13	13	28
24	24	27
66	71	1
11	11	39
63	64	3
51	52	4
7	7	16
74	74	26
4	4	39
71	71	30
49	50	3
82	82	35
0	0	17
16	22	4
1	1	24
5	5	18
86	86	20
61	66	4
20	47	2
65	66	5
19	19	35
17	17	21
23	58	2
79	80	13
22	27	3
11	51	6
60	61	10
57	57	30
10	78	5
5	9	3
3	3	34
22	22	32
24	64	3
50	50	45
8	8	19
12	14	8
80	80	40
78	84	3
73	81	2
68	69	7
21	58	1
13	17	4
11	27	4
69	69	43
8	17	2
9	30	3
27	27	37
64	64	27
63	65	7
49	55	5
7	17	6
52	63	2
4	69	2
62	62	17
66	66	32
21	21	21
0	88	2
67	68	12
2	3	10
62	85	2
53	56	3
66	77	10
61	62	7
9	10	11
81	86	3
23	28	2
46	46	25
1	2	7
62	80	1
72	74	6
47	47	38
22	76	2
56	56	51
5	78	3
25	27	9
47	49	2
51	51	25
3	4	11
59	60	7
14	27	2
59	82	2
64	65	13
12	26	3
25	25	16
24	83	4
5	6	6
88	90	2
10	12	3
71	76	1
30	31	4
60	62	6
7	63	2
9	13	2
77	79	9
61	63	3
13	18	2
84	85	7
5	16	2
31	31	23
50	51	15
28	28	15
15	15	14
85	90	3
86	87	8
5	49	2
1	4	2
8	83	1
58	59	7
4	10	2
18	18	7
51	53	1
14	16	4
12	12	35
79	79	30
15	27	3
8	20	3
10	10	16
26	27	11
20	58	1
63	84	4
48	49	8
19	20	7
5	48	7
32	33	3
87	88	5
4	48	3
33	33	4
20	21	10
66	69	1
50	58	2
55	56	4
88	88	14
56	68	4
28	29	5
47	62	3
25	26	5
49	51	1
88	89	4
20	83	5
31	67	2
4	5	4
24	25	11
27	76	3
15	16	2
85	86	19
29	29	12
59	62	4
11	29	2
12	13	15
49	49	23
81	82	12
29	30	2
50	55	3
69	73	3
2	88	1
57	58	4
6	6	20
75	87	1
16	16	13
56	67	2
1	75	2
23	24	9
53	55	1
30	30	28
83	83	12
81	84	2
48	71	3
66	67	2
66	73	3
11	49	1
74	82	2
16	17	3
81	85	1
84	86	3
46	66	2
79	82	1
87	87	20
68	71	2
5	31	8
70	71	4
25	58	2
17	33	5
27	28	5
55	65	2
13	34	3
6	32	2
11	52	3
8	10	3
46	47	4
8	9	9
24	28	3
60	77	1
72	73	12
10	30	1
34	35	5
69	70	4
5	17	4
13	31	1
78	79	4
21	22	4
22	24	2
6	64	3
58	82	2
10	11	7
59	61	1
19	46	2
58	66	6
54	55	3
15	29	3
60	82	3
4	66	1
75	76	4
6	52	2
63	79	5
35	35	2
72	75	4
11	12	4
71	87	3
56	57	3
54	68	2
14	15	1
46	80	2
57	66	1
56	84	2
64	80	5
54	64	5
67	75	2
85	87	2
73	75	5
6	7	5
7	25	2
67	74	1
21	23	5
7	8	3
24	84	2
61	83	2
90	90	2
76	76	10
0	1	6
13	32	2
68	70	1
17	19	1
62	64	3
64	66	2
60	64	4
13	16	1
65	78	3
49	62	1
51	65	5
48	51	3
6	78	5
53	57	2
12	15	2
3	53	3
6	63	1
79	81	1
3	54	1
20	57	1
11	30	2
61	65	3
6	49	1
53	54	5
13	26	8
50	52	2
61	81	1
11	79	1
16	25	3
71	73	2
22	25	1
56	59	1
20	24	3
22	23	3
49	86	1
24	72	1
17	18	3
56	76	3
23	76	2
46	63	1
9	82	1
50	53	1
24	26	4
26	32	2
59	80	1
74	84	1
78	83	2
77	80	1
74	75	3
46	48	1
17	46	1
5	8	4
19	67	1
23	80	1
68	73	1
20	22	1
5	33	1
15	31	3
5	20	1
24	63	2
26	65	2
21	57	1
76	80	2
12	25	1
2	67	1
19	25	1
49	63	1
24	65	2
59	83	1
29	47	1
46	58	3
0	86	1
3	27	1
5	85	1
80	83	2
13	79	3
74	76	1
48	62	2
20	77	2
6	18	1
9	12	1
83	84	4
89	90	1
20	26	3
58	60	2
19	28	1
19	83	2
78	82	1
50	57	2
28	67	2
0	2	1
69	74	1
20	27	2
5	65	1
10	27	1
55	58	1
85	89	1
58	69	1
63	80	2
76	77	1
6	9	1
20	25	1
80	81	3
78	80	2
47	76	3
23	89	1
64	79	1
22	26	2
71	86	1
77	86	2
9	11	1
25	81	1
21	74	1
24	76	1
8	30	1
52	87	1
4	47	1
9	19	1
56	81	1
20	23	1
10	16	1
29	31	1
58	61	1
18	65	1
76	79	1
27	58	1
