71	72	6
96	97	4
70	80	5
50	52	1
50	50	7
58	59	4
94	94	3
27	61	1
72	97	1
43	53	4
77	101	4
79	80	3
76	78	4
21	21	11
26	26	4
59	75	2
112	112	5
53	53	6
58	80	2
39	39	6
64	64	6
44	45	10
81	82	5
82	82	2
99	99	5
61	61	12
36	39	4
42	42	7
78	78	9
87	88	3
43	43	3
101	101	5
70	70	3
78	106	4
85	85	7
69	69	7
42	68	4
38	38	4
79	79	8
88	91	1
20	21	4
37	37	5
45	46	4
30	37	3
73	73	7
78	81	1
34	34	10
52	52	2
54	54	3
105	105	5
48	48	12
93	94	1
107	107	4
23	23	3
43	99	1
47	48	1
27	37	2
103	103	4
24	25	1
63	64	2
65	66	2
111	111	7
27	27	1
63	63	7
97	98	2
101	110	9
90	90	8
76	77	2
60	60	3
113	113	3
65	69	2
29	29	14
64	65	1
104	105	2
44	82	1
80	80	4
102	102	3
62	62	4
61	63	2
59	59	3
76	76	5
77	77	4
74	74	6
46	46	4
76	106	1
28	28	3
66	79	1
88	88	3
22	22	2
54	55	2
98	99	2
53	99	2
86	86	5
22	23	3
32	34	2
95	96	3
84	84	5
48	53	1
27	38	2
20	22	1
51	51	8
58	58	3
110	110	4
30	30	3
53	54	1
91	91	2
104	104	3
83	83	5
65	65	4
70	78	1
78	80	2
81	81	1
29	38	1
44	44	2
90	91	2
93	96	1
110	111	2
89	90	1
40	40	5
24	24	2
93	105	1
38	56	2
31	59	3
20	20	3
36	36	5
106	110	3
51	53	2
39	60	1
41	41	3
19	29	1
76	107	1
36	80	1
44	65	1
112	113	3
81	83	1
108	108	2
28	29	1
70	71	3
29	30	1
97	97	2
47	47	6
77	78	2
85	86	2
38	39	11
95	95	4
71	75	2
21	22	3
100	110	2
20	24	1
47	63	1
54	56	2
81	86	1
56	56	2
87	87	3
101	103	2
49	49	2
89	89	1
57	58	2
49	57	1
25	42	1
72	73	1
82	83	2
78	79	2
108	111	5
75	107	1
74	75	1
31	34	2
110	112	1
72	72	4
30	58	2
71	71	1
102	103	1
66	66	1
39	54	1
89	91	1
107	108	1
43	44	1
71	99	1
111	112	4
45	45	6
32	96	1
74	91	1
90	105	1
28	40	1
31	31	2
103	104	1
100	101	3
32	32	1
93	93	1
35	36	1
92	92	2
64	66	1
69	80	1
32	33	1
27	28	1
52	53	1
98	98	1
68	68	1
49	50	1
57	57	2
31	33	1
24	49	1
55	55	1
91	107	1
34	36	1
86	88	1
70	100	1
51	52	1
