74	75	4
81	82	1
94	94	1
82	82	9
98	98	6
42	43	2
73	74	3
42	44	3
45	45	7
37	37	6
76	76	8
51	51	9
33	33	9
79	80	7
100	100	11
26	26	8
65	65	19
39	39	3
26	27	3
38	38	11
20	20	9
68	69	4
40	40	7
30	30	4
55	58	3
40	42	2
26	28	1
31	31	7
53	54	6
85	86	2
30	31	7
66	67	8
90	91	3
103	104	7
34	34	4
85	85	9
61	61	1
75	75	7
74	74	4
56	56	11
89	89	12
29	30	7
31	32	1
101	101	10
77	77	4
76	77	2
71	77	3
94	95	1
51	52	3
96	96	8
71	79	5
62	62	11
67	67	4
69	70	1
72	74	5
49	49	8
97	97	9
25	25	6
87	87	5
36	36	9
57	57	9
102	103	3
22	22	2
104	105	4
106	107	3
68	68	5
25	28	2
22	24	1
77	92	2
60	65	3
55	62	2
95	95	11
43	43	5
62	63	6
55	55	2
69	69	7
50	50	3
75	76	2
78	78	6
99	99	16
46	46	3
72	72	7
83	83	15
53	62	1
93	93	2
21	23	1
48	49	5
63	105	4
41	45	1
88	88	15
73	102	4
79	79	3
24	25	1
100	101	4
72	73	4
69	72	2
82	84	1
68	98	3
89	92	2
61	62	4
85	87	1
81	81	7
52	52	7
44	45	3
64	64	4
21	21	4
60	60	4
63	106	2
56	64	1
43	44	4
55	60	1
65	68	1
71	71	3
70	70	6
58	107	2
95	99	1
104	104	10
61	63	2
68	71	2
79	81	2
24	24	4
93	99	1
28	37	1
78	98	5
54	73	3
27	27	2
56	58	5
30	38	1
34	38	1
27	40	2
86	88	1
53	53	2
71	72	3
102	102	1
84	85	2
63	64	2
73	73	4
80	80	3
52	53	1
52	54	1
59	59	3
107	107	1
106	106	1
29	29	5
42	42	6
103	103	3
92	92	2
84	84	2
22	23	3
27	29	1
97	99	1
27	28	1
44	44	3
82	83	5
52	63	5
32	33	1
98	99	1
31	73	3
90	90	5
84	87	2
28	38	2
88	89	2
41	41	2
26	43	1
86	86	4
32	32	1
60	67	2
66	66	1
37	38	2
47	47	2
38	39	2
73	75	1
51	56	2
21	22	3
89	90	1
88	91	2
48	48	2
28	28	1
62	64	1
54	80	1
78	94	2
40	44	1
94	98	1
59	60	1
58	58	2
60	62	2
29	39	1
53	57	1
80	81	1
63	63	1
77	78	2
91	91	1
23	24	1
98	101	1
