57	57	4
53	53	15
66	66	5
30	31	2
105	105	8
21	21	9
59	59	22
63	77	1
104	104	12
71	71	26
78	80	10
100	102	2
75	75	27
106	106	8
76	76	10
37	38	10
97	98	6
42	42	7
41	41	5
78	78	18
88	88	8
52	52	16
35	35	10
64	64	8
83	84	4
84	84	8
50	50	16
101	102	8
80	80	7
63	64	6
63	63	21
54	56	4
35	53	5
47	47	5
82	85	2
92	92	14
27	27	13
101	101	17
60	95	4
67	68	6
36	36	12
39	39	12
97	99	7
97	100	1
96	96	10
62	63	3
83	83	11
89	89	10
74	74	12
57	68	6
35	55	10
55	55	21
93	93	12
41	64	5
24	24	9
40	40	8
61	63	3
90	90	4
49	49	15
95	95	10
56	56	15
22	22	7
76	77	7
51	52	8
69	69	12
93	94	7
94	94	22
78	97	3
69	70	6
92	94	1
79	80	10
53	54	2
60	60	13
48	48	5
87	87	18
103	103	10
50	51	3
100	101	6
38	38	16
35	36	6
68	68	8
84	85	1
56	57	3
94	95	3
47	48	1
32	71	1
71	73	2
20	36	3
100	100	8
33	33	9
49	63	1
22	23	3
26	26	8
80	81	1
104	105	2
32	32	13
61	61	14
20	20	6
29	29	2
73	73	7
70	71	8
85	85	5
90	91	1
65	65	17
81	81	7
99	99	6
29	54	3
75	92	2
78	99	4
90	95	3
50	58	3
97	97	1
81	86	4
23	24	5
23	23	11
35	56	3
58	58	7
98	100	3
35	38	3
77	77	4
89	90	2
41	44	1
45	90	2
44	44	9
98	98	7
36	67	2
30	30	5
20	21	4
70	70	9
20	22	3
83	85	3
21	22	2
26	28	1
46	46	3
51	51	11
91	92	2
31	32	6
33	34	3
58	59	3
72	72	5
37	37	7
25	25	4
92	93	2
102	103	5
88	89	1
66	67	6
46	48	4
99	100	4
43	44	2
89	98	1
88	90	1
91	91	7
35	67	4
37	46	4
45	45	5
28	28	2
25	28	1
25	26	4
34	92	1
79	81	2
44	89	3
82	83	8
86	86	4
62	64	2
50	64	2
39	41	3
79	79	4
102	102	7
37	45	3
82	87	3
59	81	2
64	65	7
77	100	2
96	98	3
71	72	2
84	86	1
34	34	4
78	79	3
90	96	1
82	82	3
21	42	2
38	39	4
52	53	2
26	27	1
55	56	3
41	42	1
56	58	2
68	69	3
83	86	1
57	92	1
77	81	2
35	45	1
63	86	1
30	33	2
105	106	2
49	58	1
30	93	3
51	53	1
28	45	1
61	62	1
78	85	2
31	31	2
40	41	2
27	30	2
49	61	3
36	54	1
62	87	1
28	29	1
60	61	1
43	45	3
77	92	3
35	44	1
53	67	2
57	58	3
53	55	1
48	54	2
23	106	1
80	97	1
40	42	2
95	96	1
54	74	1
95	97	1
54	54	2
59	60	4
54	55	2
35	54	1
44	45	3
36	37	1
67	67	1
55	101	1
25	48	1
43	43	2
86	88	2
29	30	2
21	35	1
35	65	1
62	62	1
32	82	1
