97	97	6
148	149	4
9	9	6
98	99	3
79	83	3
44	44	6
161	161	5
39	82	1
59	59	4
60	193	2
30	30	3
10	10	7
30	31	3
88	88	1
181	181	15
39	43	5
147	147	7
139	139	6
177	177	4
99	99	3
20	58	3
38	38	3
34	68	5
45	45	3
173	173	5
160	161	2
107	107	10
172	172	7
186	186	6
164	164	1
94	94	3
73	81	2
127	127	8
27	27	10
178	178	8
173	174	1
129	130	1
169	169	7
192	192	8
56	56	15
76	77	1
139	140	11
137	137	9
117	118	3
32	37	1
170	170	5
110	110	3
143	157	2
24	24	1
183	183	12
84	85	1
143	145	3
89	89	5
8	56	2
28	28	5
149	149	10
126	126	7
73	74	2
148	148	5
135	135	6
123	123	5
57	57	11
86	86	3
88	89	2
34	60	3
171	171	9
112	112	7
196	197	8
188	188	6
86	87	2
33	33	5
6	6	2
146	146	5
135	136	2
65	65	14
66	71	2
83	84	1
83	83	8
58	60	3
125	125	10
61	61	5
43	44	2
193	193	8
180	180	7
93	97	4
121	121	7
69	69	10
18	18	7
135	140	1
54	54	4
190	190	7
29	29	5
160	165	3
33	37	1
157	158	2
19	21	1
101	101	2
138	138	15
155	155	6
52	52	7
141	141	12
78	78	4
55	55	7
146	147	1
51	51	9
84	84	7
70	82	1
23	23	5
74	74	3
49	49	9
160	162	6
75	75	5
43	43	4
21	152	4
79	80	4
150	150	7
74	88	2
46	46	3
122	127	1
117	117	2
142	142	10
191	191	9
185	185	13
19	19	3
177	178	5
17	18	3
168	168	7
73	73	7
140	140	6
159	195	4
157	177	4
28	29	3
195	196	5
167	167	7
114	114	5
15	15	8
16	16	3
95	95	5
21	21	3
122	122	7
14	14	14
58	58	7
175	176	2
156	159	1
103	104	2
35	35	2
71	71	4
116	116	7
152	152	3
128	128	6
163	191	1
12	12	3
50	50	4
109	134	2
104	104	1
119	120	3
52	53	2
74	90	1
146	181	2
47	47	8
133	133	4
33	49	1
132	132	11
159	159	4
79	79	4
39	39	2
4	4	7
100	101	2
165	165	3
156	157	2
41	41	5
135	138	1
59	60	5
70	70	11
22	24	4
1	2	2
126	127	7
159	177	1
121	122	1
152	168	2
175	175	7
87	97	1
32	32	8
114	115	6
6	7	2
183	184	2
157	157	3
96	96	9
160	186	2
112	124	1
133	134	1
115	116	3
5	28	1
66	66	3
64	64	4
116	117	6
21	30	3
154	165	2
13	14	2
144	144	8
159	160	4
15	16	3
89	121	4
136	136	9
23	24	3
131	131	2
182	182	4
26	26	6
187	187	9
147	151	5
0	0	5
76	76	4
103	103	7
110	133	1
1	24	1
71	72	8
194	194	6
0	26	4
16	17	6
81	81	4
64	160	1
157	161	1
155	169	2
109	109	3
61	167	2
40	41	4
42	42	6
174	176	2
37	37	3
196	196	3
40	70	1
11	31	4
7	7	2
141	145	3
68	75	1
53	53	3
10	11	3
63	70	1
130	130	2
114	119	2
105	105	3
88	96	3
145	145	4
87	88	2
179	179	5
22	22	6
130	138	1
188	189	3
35	64	2
181	182	4
50	51	1
94	96	1
98	98	3
41	46	3
3	8	1
41	43	1
195	195	4
111	111	3
182	186	1
141	143	4
189	190	3
27	28	2
115	115	5
176	177	1
189	189	3
68	68	1
72	95	2
36	36	7
166	166	3
127	128	6
15	51	1
94	95	4
62	193	1
182	185	1
113	113	9
77	77	4
99	100	1
107	108	2
8	8	1
10	14	1
68	79	1
27	29	1
19	185	2
89	90	2
118	118	2
76	85	3
119	119	7
67	67	2
48	48	2
41	186	2
176	176	4
143	143	3
111	112	3
18	23	2
139	147	3
184	184	3
108	108	3
122	134	2
34	35	1
134	136	3
151	151	1
154	173	2
134	134	4
168	169	2
170	192	1
142	156	2
118	119	2
72	72	2
85	86	2
20	193	2
102	123	1
11	11	12
65	187	1
160	170	2
12	13	1
12	48	2
44	160	2
158	158	1
165	166	1
153	154	1
129	129	3
181	185	2
71	73	1
19	20	3
166	168	1
183	185	1
197	197	1
132	133	2
60	61	1
153	166	1
1	26	2
109	110	3
191	192	1
1	42	1
15	155	1
87	87	2
70	80	1
3	3	1
102	102	2
81	82	1
55	56	2
171	172	1
120	132	2
1	30	3
145	166	2
62	63	1
195	197	1
124	124	4
72	73	1
20	20	1
34	34	1
106	107	1
39	41	1
151	152	1
158	177	1
129	138	1
85	85	1
77	79	1
62	62	2
31	31	1
38	66	1
140	157	2
13	13	4
98	101	1
11	47	1
120	121	3
71	96	2
115	130	1
148	150	1
48	49	2
6	29	1
153	153	2
10	13	1
170	193	2
1	1	2
157	180	1
9	10	1
36	37	2
160	160	1
35	65	2
80	81	4
104	107	2
42	45	1
184	185	2
32	33	3
13	23	1
106	108	1
186	187	1
16	18	1
60	60	3
131	139	2
174	174	1
34	38	2
100	100	1
7	8	2
161	162	1
157	175	1
147	148	1
82	82	2
106	179	1
64	186	1
34	67	1
162	162	2
118	176	1
42	173	1
190	193	1
34	190	1
127	133	1
44	194	1
26	27	1
125	126	1
2	3	1
105	109	1
74	101	1
108	109	1
5	5	1
156	156	1
58	59	2
1	18	1
0	27	1
95	96	1
53	54	1
160	196	1
63	63	3
108	171	1
96	120	1
168	185	1
170	171	1
159	188	1
25	25	1
3	7	1
3	4	1
54	55	1
138	140	2
17	58	1
49	50	1
167	169	1
93	120	1
36	39	1
23	32	1
135	137	1
73	101	1
17	17	1
163	164	1
150	181	1
183	186	1
64	65	1
33	39	2
192	193	1
47	48	1
