242	242	4
107	108	2
173	174	1
110	116	4
87	88	4
60	60	8
207	230	1
10	10	4
15	16	4
178	178	3
168	168	1
54	54	3
62	62	1
9	18	5
115	115	5
82	82	5
232	232	2
45	46	2
47	47	3
44	47	1
66	102	1
244	244	5
217	217	6
161	167	3
229	230	2
23	23	4
20	20	2
182	182	4
238	248	1
219	223	2
224	225	7
186	186	4
193	193	8
63	63	3
178	183	1
212	214	1
216	217	3
163	163	2
49	49	6
55	55	3
96	97	3
106	106	1
216	216	7
187	187	1
178	190	2
167	168	2
199	199	4
118	120	2
26	26	8
178	231	3
98	99	1
222	222	4
37	37	4
172	172	5
86	88	2
110	112	1
73	73	7
46	46	2
182	201	1
221	222	1
199	204	2
92	92	8
210	211	2
66	66	4
15	15	4
222	245	2
196	197	1
43	228	1
95	96	8
162	162	3
69	69	2
229	229	2
74	78	4
69	81	1
233	233	11
218	219	4
100	100	1
160	160	1
28	28	2
14	14	2
38	38	7
153	153	1
213	213	2
78	86	1
150	150	4
230	231	1
201	201	5
76	83	1
244	246	4
16	16	4
17	18	2
80	80	2
245	245	4
72	73	4
49	50	4
7	7	1
185	185	4
151	151	1
219	219	1
119	165	2
26	27	3
85	86	3
198	198	3
50	82	3
188	188	5
228	229	3
24	31	1
93	94	3
116	158	2
90	99	4
8	8	1
191	191	2
105	105	7
90	93	1
10	229	2
230	245	3
0	2	2
111	111	4
101	101	2
159	164	2
203	203	7
227	227	1
44	45	1
70	72	2
197	197	4
243	244	4
95	114	1
3	3	3
76	76	4
207	207	7
5	5	1
72	72	1
90	109	5
65	66	5
31	32	1
119	119	1
172	223	2
198	199	2
240	240	5
19	20	2
50	50	3
164	165	2
48	63	1
74	74	2
156	156	2
85	206	2
90	92	3
34	39	1
83	83	1
109	117	1
167	176	1
226	226	2
188	194	1
194	195	2
183	187	2
31	33	1
19	19	1
84	84	3
66	75	3
212	212	1
34	40	1
106	107	1
192	192	2
151	168	1
173	173	1
29	29	1
241	241	3
6	8	2
190	190	2
14	15	2
90	90	4
12	51	3
109	109	1
5	7	1
22	23	1
181	182	2
197	202	3
57	86	1
88	88	3
218	218	2
113	116	2
48	50	1
64	64	3
67	82	2
46	53	2
54	55	1
33	33	2
59	59	1
193	232	2
112	112	2
35	35	1
79	80	2
177	178	1
24	25	1
183	199	2
162	163	1
58	94	1
147	147	5
90	166	2
58	59	3
115	116	1
104	106	1
185	186	1
71	72	1
6	20	2
11	26	1
242	243	1
209	209	1
171	171	2
76	223	3
14	48	3
236	236	3
165	165	2
78	79	3
178	179	2
157	157	1
116	116	1
202	204	1
175	175	4
223	223	2
113	113	1
178	191	1
9	229	2
49	55	2
18	18	2
9	9	1
205	208	1
39	39	2
219	225	2
75	99	1
182	185	2
77	77	3
85	85	2
199	202	1
155	155	1
173	175	1
75	76	1
53	53	1
145	145	1
34	37	2
220	220	3
196	196	4
230	230	1
70	70	3
11	11	2
60	64	1
159	159	3
241	247	1
231	231	5
241	243	1
192	193	1
247	247	3
48	52	2
166	168	1
187	191	1
214	214	1
225	244	1
2	2	2
72	74	3
95	95	1
12	12	5
111	116	1
58	63	2
221	221	3
18	27	3
166	182	1
28	45	1
226	236	2
2	20	1
237	237	1
239	248	1
168	205	1
236	237	2
228	228	1
155	189	1
17	27	1
207	220	1
178	194	1
6	6	2
49	60	1
225	235	2
224	224	4
9	11	2
119	120	1
56	56	3
64	76	2
164	164	1
169	181	2
152	157	1
146	147	1
189	190	2
215	215	3
21	21	1
36	37	1
52	212	1
56	80	2
241	242	1
117	117	1
95	104	1
85	219	1
67	80	1
206	207	1
184	189	2
183	183	2
242	247	1
31	31	1
109	118	1
57	58	1
180	190	2
74	75	1
91	91	1
62	64	1
91	118	1
178	180	1
179	180	1
98	98	1
79	79	1
92	104	2
12	27	1
75	75	1
100	101	1
88	96	1
151	157	1
199	200	1
200	200	3
181	181	2
44	53	1
167	167	2
246	246	2
242	244	1
52	63	1
84	86	1
56	57	2
185	190	1
225	227	1
231	232	2
111	118	1
29	30	2
89	170	1
93	109	1
243	243	1
161	169	1
108	108	1
43	47	1
42	58	1
246	247	1
68	68	1
199	201	1
110	110	1
197	211	1
146	146	1
116	120	1
42	42	1
48	49	1
68	75	1
184	184	1
154	155	1
239	239	1
29	31	1
186	199	1
73	76	1
22	22	1
36	36	1
214	215	1
58	64	1
52	54	1
62	73	1
53	212	1
161	161	1
152	196	1
