71	133	4
23	23	7
150	150	4
101	101	13
91	91	10
27	27	7
50	51	3
90	96	5
156	156	13
69	69	3
35	35	10
14	14	7
85	85	4
49	49	9
42	43	2
119	119	5
155	155	11
133	133	8
26	26	3
94	94	10
94	120	1
67	67	7
73	148	2
127	127	8
63	64	2
4	55	3
48	48	8
77	78	6
96	96	2
97	97	2
149	149	6
45	45	6
87	87	7
93	99	1
22	22	6
32	32	4
140	140	9
55	55	3
39	39	3
117	117	3
109	113	1
139	139	2
115	146	2
68	148	1
98	98	4
148	149	6
6	6	8
53	54	8
68	131	3
88	89	3
106	106	5
114	140	4
71	132	2
77	99	1
44	45	4
9	11	1
115	115	7
85	86	2
78	135	2
51	55	5
88	96	3
17	20	6
148	148	5
43	43	6
155	157	9
15	15	5
3	4	10
146	146	8
108	108	7
64	64	4
41	41	4
56	57	5
92	92	5
154	155	1
51	51	7
0	41	1
110	111	2
95	95	3
112	112	11
56	56	3
89	96	5
10	10	7
141	141	8
105	105	9
51	52	4
50	50	2
68	70	6
52	52	3
148	150	2
73	73	5
82	128	1
115	144	4
142	142	6
128	128	5
92	112	4
131	131	9
122	122	8
86	122	1
133	134	5
134	134	2
140	148	1
17	17	8
2	3	3
36	37	2
33	33	3
86	121	3
47	47	7
102	157	2
135	135	10
30	30	6
46	47	2
124	124	6
7	7	7
12	12	2
78	79	3
138	138	15
19	49	6
34	34	5
87	121	4
48	49	1
113	113	1
54	54	5
123	123	4
113	147	6
95	96	7
35	43	1
65	65	7
37	38	4
155	158	1
2	2	7
20	20	10
93	97	1
13	13	4
41	42	7
82	84	2
107	108	3
8	8	2
121	121	6
130	132	2
100	100	6
5	5	4
111	112	1
25	25	4
76	98	1
94	97	3
84	84	5
105	119	5
40	40	7
147	147	1
29	29	5
19	19	9
0	45	3
93	93	7
81	81	1
75	75	4
143	144	2
122	132	1
52	54	4
24	24	2
21	39	4
79	79	6
79	80	4
143	143	5
21	21	2
104	104	4
46	46	4
140	141	3
153	157	2
31	32	2
132	134	4
108	109	3
28	28	3
109	112	1
44	44	1
74	74	4
103	103	2
30	31	3
108	112	1
7	55	1
49	50	1
4	4	1
155	156	2
136	136	1
15	50	6
116	117	8
127	133	4
77	77	3
17	49	1
108	111	2
76	76	4
30	65	3
23	39	1
120	120	1
29	30	3
78	134	3
31	138	1
70	70	2
67	68	1
130	130	2
31	31	1
136	137	3
91	97	1
9	12	2
2	35	2
114	114	1
109	109	4
110	120	2
132	132	1
77	81	2
153	153	2
21	46	1
117	118	1
100	117	2
0	0	2
66	66	1
37	37	2
57	57	1
86	86	1
99	100	3
19	47	1
125	126	1
90	90	1
70	71	1
92	95	1
37	39	4
51	54	1
72	138	1
68	68	1
82	83	1
122	127	1
79	129	2
89	89	1
82	85	1
66	138	1
107	107	1
151	151	1
84	85	1
93	98	2
144	145	3
23	24	1
38	41	1
11	11	1
95	123	1
86	123	1
95	97	1
80	80	1
3	3	2
158	158	1
79	134	2
121	122	1
145	145	1
122	133	1
78	78	1
83	83	1
113	150	2
28	43	2
40	41	1
129	130	1
92	93	1
33	34	1
