81	82	4
130	171	2
175	175	6
150	150	5
99	100	2
122	122	2
114	114	10
33	33	5
47	47	2
56	57	3
33	38	1
161	163	8
7	7	1
149	149	13
93	117	1
43	43	1
126	127	3
121	121	4
129	130	4
32	33	1
146	146	7
75	75	5
5	8	6
132	134	6
78	80	3
58	58	8
141	141	3
71	74	3
44	44	6
156	156	8
148	149	3
88	88	6
153	153	15
163	163	1
40	40	12
48	48	3
178	178	4
96	98	1
28	30	3
187	187	7
10	10	5
12	12	4
67	67	2
80	81	2
36	57	7
82	82	1
37	38	3
41	41	8
141	142	2
4	14	4
94	95	5
22	22	6
155	157	6
85	85	13
118	158	4
33	36	1
87	112	5
147	148	5
77	79	2
180	180	5
63	100	1
162	162	5
101	101	4
164	164	2
4	4	1
94	122	2
167	167	4
46	70	2
64	64	4
8	8	4
13	15	1
148	177	2
181	182	3
155	190	5
108	108	7
113	166	3
18	18	8
162	190	1
93	129	1
92	92	9
110	111	1
16	43	4
81	81	12
142	143	1
181	181	7
184	184	10
66	141	3
57	57	5
169	169	4
22	24	6
102	102	2
70	70	4
45	46	1
86	86	10
55	55	4
71	120	3
23	24	1
14	14	3
56	58	4
79	81	1
34	34	3
138	138	1
58	83	5
138	140	2
1	2	2
110	181	4
79	79	3
112	112	4
103	103	4
39	39	2
71	71	6
160	160	3
171	172	2
109	109	5
23	23	3
65	65	2
26	26	3
72	72	4
112	190	3
188	189	2
19	42	1
2	2	4
6	6	2
143	143	4
157	169	1
18	34	1
28	28	8
113	113	2
134	134	3
42	42	4
4	15	2
125	125	1
53	135	4
119	119	4
15	15	1
70	71	1
89	89	2
70	86	3
73	77	1
122	140	3
126	128	1
127	127	2
106	106	2
89	164	2
92	122	3
177	179	2
26	30	2
186	186	4
78	78	2
176	178	4
171	171	2
128	165	3
54	82	2
16	16	5
99	99	5
3	14	1
177	177	2
62	63	2
6	37	1
179	179	3
26	28	1
87	87	2
99	103	2
107	171	3
106	107	5
0	0	4
163	189	2
96	103	2
123	125	1
137	167	2
74	75	4
105	105	2
67	68	4
95	102	1
151	151	4
127	128	4
89	130	1
184	185	2
157	157	5
84	84	4
61	61	5
167	168	2
47	48	1
100	178	3
40	47	1
110	110	3
17	17	2
47	125	2
90	91	1
139	139	5
177	178	2
87	130	2
9	10	1
158	174	1
155	156	1
75	76	1
159	159	1
72	74	1
125	129	2
35	36	1
154	155	1
157	186	1
25	25	2
36	37	2
25	139	1
145	145	4
54	55	1
173	174	2
92	119	1
61	63	2
56	56	2
150	186	2
77	77	2
182	182	1
54	54	3
26	27	2
45	45	2
185	185	3
182	184	2
73	73	2
64	132	3
154	154	3
125	128	1
22	23	1
176	176	3
90	90	4
46	47	5
163	164	1
0	38	3
8	15	1
176	180	1
156	190	1
22	36	3
20	20	2
136	137	2
5	13	4
37	54	1
5	5	3
158	158	1
6	41	4
138	139	1
116	119	2
148	180	1
41	159	2
0	1	1
104	104	2
54	57	2
183	184	1
44	47	2
183	183	1
53	53	1
126	126	9
170	170	5
78	79	1
117	117	3
103	172	1
161	161	1
17	41	1
166	166	3
100	100	2
48	84	2
58	59	2
111	111	1
55	66	1
131	131	2
80	80	1
71	143	1
98	98	1
8	84	2
94	141	1
36	36	1
89	114	1
33	34	1
26	83	2
76	76	3
94	94	1
13	13	1
152	153	1
103	104	2
137	139	1
178	180	1
68	121	1
95	144	1
189	189	1
27	30	1
31	32	2
161	168	2
27	27	1
140	142	2
113	129	1
116	158	1
144	145	1
84	89	1
156	157	1
64	65	1
123	124	1
148	148	1
6	8	1
151	152	2
11	12	1
172	172	2
122	141	1
92	117	1
11	11	1
110	186	1
164	165	1
62	62	1
102	176	1
165	165	1
172	175	1
96	99	1
102	181	1
90	124	1
186	187	1
