20	21	3
40	40	13
34	38	7
53	53	6
65	65	15
39	39	12
29	29	28
26	26	13
28	28	1
29	33	1
58	58	16
60	60	11
71	71	10
7	7	5
74	75	7
30	30	12
25	25	9
20	20	4
39	41	7
58	62	2
42	43	7
19	19	5
22	66	3
24	25	8
68	68	6
26	27	8
37	37	5
0	1	5
32	32	10
47	67	3
41	41	14
22	24	8
7	10	2
21	21	11
8	13	3
77	78	2
35	35	19
33	33	6
61	73	5
72	72	8
55	56	8
55	55	13
12	58	3
33	37	3
57	71	5
66	66	18
52	52	15
62	62	15
42	42	6
33	34	11
8	8	5
76	77	7
38	38	10
73	73	20
34	66	2
63	63	8
10	10	8
46	46	4
59	59	9
69	70	8
7	58	2
69	69	9
32	33	4
32	67	6
41	69	3
23	24	3
51	55	2
21	22	2
34	34	13
24	24	9
12	12	5
4	4	5
23	23	9
48	48	13
47	47	9
22	23	12
4	5	2
19	53	3
9	12	1
40	44	4
41	44	1
76	76	5
37	38	6
27	27	14
34	45	1
23	25	5
54	55	6
32	65	6
44	44	6
58	70	2
22	26	1
11	11	4
41	43	5
9	9	2
56	57	7
56	56	9
0	0	4
67	68	8
65	66	14
67	67	8
54	54	17
68	69	9
70	71	2
2	2	15
7	8	3
45	48	1
5	58	6
35	36	5
29	34	1
38	48	4
20	47	2
46	61	3
63	64	6
20	38	2
61	61	12
72	74	5
20	23	4
40	43	1
42	44	7
3	3	6
28	29	3
36	37	3
49	49	8
50	50	9
13	56	2
61	64	3
71	73	3
5	5	4
57	58	2
6	6	9
24	64	3
58	72	5
73	74	9
38	40	4
43	43	3
64	64	7
64	65	5
36	67	3
12	59	1
49	50	12
31	31	9
13	13	7
22	31	1
6	13	3
38	44	4
12	13	3
75	76	5
57	57	6
52	54	7
58	59	1
25	26	7
20	45	3
61	63	1
23	26	1
50	52	2
9	10	1
75	75	5
70	70	6
41	42	4
12	19	2
72	73	2
74	74	3
45	45	6
32	34	2
36	36	5
50	51	8
62	63	5
1	2	2
7	57	1
14	14	5
6	7	1
43	44	5
5	7	3
51	54	2
59	60	2
35	46	2
74	77	4
33	35	2
13	14	1
30	31	2
19	20	2
47	48	3
27	28	1
52	53	4
77	77	3
39	40	2
35	38	4
18	19	1
33	44	1
38	69	3
45	46	3
45	66	1
35	65	2
61	62	5
48	52	1
53	54	1
21	24	1
21	48	3
38	43	1
63	66	1
22	22	2
56	58	2
35	37	2
44	45	5
66	67	9
57	59	1
34	35	3
19	42	2
8	10	1
26	29	4
45	47	3
11	57	2
3	5	1
60	61	2
36	66	1
75	77	3
69	71	1
18	49	1
41	62	1
38	65	1
56	59	1
43	45	1
51	57	1
34	37	1
59	63	1
48	60	1
39	65	2
12	53	2
33	45	1
62	64	1
6	9	3
23	30	1
23	66	1
51	52	1
51	56	1
31	34	1
1	1	1
47	60	1
