158	158	3
173	174	1
168	168	3
22	40	2
74	74	5
13	13	2
141	141	4
8	8	6
79	79	1
153	154	4
152	152	14
32	32	3
83	86	3
99	99	4
73	73	6
42	47	2
62	64	3
76	76	3
171	171	6
103	103	10
96	96	1
53	53	4
78	79	5
119	119	4
177	177	3
114	117	3
46	110	1
109	110	1
5	106	1
122	129	5
53	127	4
57	57	3
16	16	5
3	3	2
80	81	3
165	167	4
117	117	2
129	129	3
14	14	10
41	41	4
150	150	2
68	131	1
88	88	5
96	97	3
105	105	3
64	64	4
161	179	1
60	60	4
0	2	3
10	10	7
133	165	1
27	27	8
38	39	3
178	186	3
187	188	6
127	127	11
89	89	1
137	138	3
61	61	3
155	155	8
144	144	2
151	151	13
98	98	2
187	187	5
149	156	2
54	126	2
88	120	3
157	158	2
43	44	7
19	19	6
171	188	3
100	101	1
116	116	3
5	5	3
21	25	3
88	113	4
62	62	2
5	97	1
182	182	1
130	141	2
169	170	2
181	181	7
110	110	6
44	44	8
189	189	3
80	80	2
105	108	5
86	86	8
172	172	13
87	87	2
42	46	1
130	130	3
4	4	7
15	15	2
2	2	5
79	89	2
13	20	2
79	124	2
40	40	11
186	186	5
173	173	6
44	45	5
9	9	1
85	85	5
112	112	5
147	160	5
128	128	7
61	106	3
23	46	3
184	187	1
57	59	1
59	59	2
161	180	1
61	107	2
16	17	4
56	56	3
181	183	3
175	175	5
11	12	2
159	159	4
47	110	2
48	48	6
169	188	3
171	172	4
122	122	2
161	163	3
18	18	2
147	147	1
25	25	2
184	185	10
6	95	2
157	159	1
111	118	3
140	140	2
160	160	9
104	104	4
135	139	3
94	99	1
162	162	2
17	97	1
95	95	1
61	64	2
142	143	4
14	21	1
167	167	1
180	180	4
37	37	5
190	190	2
177	178	1
185	185	1
52	122	2
69	69	1
136	136	4
108	116	3
42	113	1
62	63	4
128	154	5
128	129	1
105	107	3
102	103	1
42	44	3
75	75	3
71	79	2
55	55	1
1	1	2
142	142	2
58	59	2
88	122	4
135	136	1
24	24	7
71	71	3
78	89	3
8	22	1
113	113	3
38	38	2
73	121	4
72	72	5
40	100	2
135	138	1
94	94	4
52	53	3
120	121	1
29	31	2
53	125	1
56	57	1
125	126	1
57	66	3
66	66	1
72	122	5
68	125	1
182	184	4
11	11	1
63	63	1
82	84	1
4	99	1
28	31	2
146	146	7
165	165	5
76	77	1
77	77	2
124	124	1
174	174	1
102	102	3
84	84	4
59	60	2
135	135	1
156	159	2
54	55	5
12	12	1
72	93	2
4	107	1
73	77	1
161	162	2
118	119	6
37	38	2
154	154	2
87	117	1
101	102	1
23	24	3
87	119	1
82	85	2
7	7	4
126	154	1
90	122	3
84	107	2
111	115	6
70	71	3
12	21	3
145	145	3
6	6	3
130	132	3
143	143	1
164	164	1
68	90	1
12	13	2
28	28	1
145	155	2
53	55	2
149	149	4
125	128	1
39	40	3
122	131	1
175	176	2
100	103	1
21	22	4
99	109	2
183	183	1
173	176	1
23	26	1
93	93	1
138	140	1
58	61	1
148	148	1
53	58	1
153	153	1
145	154	1
73	132	1
54	91	2
105	116	1
114	115	1
54	66	4
110	111	2
63	106	3
65	65	2
61	96	1
54	54	1
21	21	1
95	96	2
83	93	3
31	31	3
160	161	1
123	125	1
7	8	1
30	39	1
70	88	1
132	133	2
138	138	1
46	47	1
35	35	2
4	98	1
67	68	2
33	33	1
12	20	1
94	103	2
109	109	1
59	106	1
134	135	1
125	125	1
158	159	2
172	173	2
29	29	1
68	68	1
8	12	1
17	20	1
174	189	1
139	139	1
67	67	1
146	150	1
39	39	1
43	43	1
114	114	2
152	153	1
133	133	1
17	17	1
42	43	1
0	0	1
54	125	1
91	91	1
6	20	1
53	66	1
161	161	1
126	126	1
111	111	1
20	20	1
83	83	1
