70	80	5
93	93	15
118	118	11
86	86	14
121	121	23
1	1	15
96	98	2
56	64	5
34	39	2
79	79	13
15	15	5
94	94	19
51	118	3
34	108	2
7	9	5
46	47	2
30	33	2
27	27	9
21	21	16
1	94	2
7	7	10
125	126	5
130	132	2
23	23	6
10	10	7
39	40	5
39	49	6
99	99	14
29	29	7
13	68	2
120	120	18
110	110	10
127	129	6
21	29	2
43	44	9
64	70	1
47	51	4
79	84	2
117	118	11
42	119	4
57	57	11
90	90	12
56	90	2
26	28	3
30	31	4
5	127	6
9	114	2
104	132	3
0	0	7
17	17	20
22	58	2
130	130	14
24	65	4
50	50	14
68	68	2
98	99	4
54	102	3
2	2	14
40	40	8
107	108	4
100	100	4
25	33	1
93	94	7
3	3	9
62	63	4
0	11	1
33	107	2
128	130	3
56	56	20
49	49	17
6	7	4
1	3	7
7	10	1
95	98	1
113	113	12
121	122	4
48	48	12
5	47	3
74	74	14
75	75	17
66	66	13
88	88	6
31	31	5
129	130	2
52	125	4
60	60	10
125	129	1
63	70	3
67	69	5
6	6	18
27	51	1
122	122	5
54	54	15
112	116	2
124	124	10
97	97	14
7	8	5
111	113	7
1	131	2
101	101	15
4	4	17
117	117	12
105	130	3
56	121	1
62	77	4
52	53	7
92	92	12
78	85	1
103	103	11
77	92	1
126	129	6
72	72	8
51	51	6
112	112	18
76	76	12
8	10	2
0	119	2
49	124	1
107	109	3
89	95	2
42	48	1
68	71	7
4	5	2
107	107	4
60	65	5
64	64	13
51	59	1
123	123	12
126	126	14
67	67	9
77	78	1
62	62	5
71	71	8
72	73	4
101	102	1
132	132	11
119	119	6
1	2	9
98	98	12
111	111	7
34	34	3
15	129	5
70	70	12
22	28	3
53	114	1
129	129	7
18	18	3
126	128	7
32	32	26
95	103	3
20	20	9
105	105	9
60	64	1
45	45	3
65	66	5
24	28	3
87	87	7
17	23	5
107	111	6
50	118	1
83	102	6
106	106	7
90	92	3
65	74	3
50	54	2
66	73	1
100	105	3
37	38	3
39	39	16
115	115	5
52	52	13
84	86	4
5	5	7
119	125	1
40	99	2
40	104	1
71	73	3
104	106	5
0	1	3
32	33	2
64	105	1
65	65	7
40	42	2
131	131	8
2	23	5
61	61	6
20	24	1
39	42	3
105	107	1
60	95	3
98	103	2
82	82	13
46	46	11
22	22	10
78	79	9
112	113	4
58	59	2
2	4	2
70	72	1
58	70	3
104	108	1
91	92	2
125	127	2
53	125	1
39	103	1
104	112	1
13	13	6
78	82	2
76	88	1
106	108	3
67	114	1
42	113	3
93	98	1
63	63	6
53	53	8
22	23	3
25	25	7
43	45	1
102	102	7
85	89	4
30	30	3
114	115	2
77	77	9
2	14	3
19	19	4
2	3	3
72	74	3
92	93	4
126	131	4
34	127	2
21	22	2
51	54	1
8	8	7
33	96	1
38	38	2
31	32	2
89	89	17
42	63	3
133	133	5
38	129	2
105	106	5
88	90	3
12	12	4
18	19	2
14	14	12
0	95	1
66	67	5
38	40	4
18	21	1
125	125	10
123	124	1
33	34	2
82	83	3
88	89	5
57	58	1
84	100	2
26	57	2
60	66	3
84	84	4
104	104	3
57	89	2
124	125	7
109	110	3
80	80	6
7	13	3
83	83	4
79	89	1
96	96	5
102	103	4
41	103	1
47	47	9
33	33	10
115	117	1
27	31	2
77	84	3
52	131	2
43	43	7
59	63	3
6	14	2
93	105	3
19	20	4
47	129	6
47	52	1
85	100	6
83	94	2
121	133	1
64	67	4
69	72	2
95	96	2
28	30	2
49	100	3
45	101	1
56	99	1
5	16	5
108	108	10
18	22	3
29	78	2
19	26	2
33	45	1
26	26	7
109	109	7
40	45	2
103	104	5
103	105	1
122	124	1
122	125	3
82	84	2
74	75	3
65	68	1
108	127	1
26	30	1
30	32	2
32	84	1
14	69	3
128	129	2
101	103	2
11	12	1
49	123	1
73	96	1
10	13	1
14	20	2
1	16	2
16	16	7
23	25	1
45	50	3
67	74	5
10	125	3
26	27	2
49	50	4
41	42	1
51	125	3
83	87	2
55	126	2
75	79	2
45	46	2
31	106	3
103	106	1
48	49	1
39	121	1
27	69	5
40	58	5
14	15	2
82	96	5
49	120	4
95	95	2
114	121	1
63	125	2
60	73	2
65	104	4
21	26	2
42	42	3
114	114	2
63	65	2
10	11	5
27	28	2
41	43	2
91	100	2
48	119	1
56	131	2
108	132	2
22	30	2
76	77	1
74	77	2
1	4	1
22	24	4
55	132	1
116	118	1
1	42	1
58	62	1
16	18	3
95	104	2
44	44	2
107	113	1
63	72	1
38	39	1
108	125	3
127	128	2
16	34	1
110	111	1
27	30	3
104	126	2
83	84	1
2	5	1
100	101	2
67	73	2
90	91	2
11	11	2
22	33	1
47	50	1
117	119	2
79	90	2
99	102	2
107	125	1
5	17	1
75	81	2
93	125	1
43	62	5
93	100	1
127	127	4
13	15	2
55	55	3
24	25	3
22	26	3
18	20	1
125	128	6
10	24	1
71	74	2
12	132	1
53	116	4
64	66	3
42	43	1
59	70	4
75	77	2
59	59	1
58	58	1
59	96	1
73	74	1
113	114	2
43	48	3
25	69	2
76	95	1
12	27	1
79	80	1
91	91	3
47	48	1
51	52	1
111	112	1
68	74	3
69	69	4
52	112	2
72	76	1
28	31	1
51	55	3
15	24	2
42	62	3
42	45	3
87	90	4
73	75	1
109	111	1
57	74	1
28	51	2
78	78	5
48	51	2
3	111	2
119	121	1
75	89	1
43	49	3
79	81	1
82	85	1
89	90	4
34	89	3
2	6	2
38	47	1
94	103	3
58	61	1
110	116	1
73	73	2
27	29	2
128	128	3
118	119	2
18	30	1
68	72	4
60	63	2
126	127	1
41	41	1
47	55	1
46	49	2
43	59	1
38	127	1
116	117	2
60	61	3
78	105	3
18	33	2
121	126	1
1	95	1
87	88	2
40	44	1
5	34	2
9	13	2
10	25	1
116	116	2
54	57	1
5	14	2
100	103	2
3	122	3
25	57	2
13	14	3
114	119	1
99	100	3
63	64	1
114	117	1
63	67	2
23	24	2
43	61	2
14	16	1
104	125	1
59	61	1
5	125	1
10	110	2
83	86	1
101	106	1
50	53	1
54	55	1
96	99	1
85	86	1
42	44	1
39	58	1
127	131	2
58	68	1
13	26	1
9	9	1
58	60	1
42	46	1
113	118	1
28	28	1
97	105	1
44	120	1
61	68	1
15	16	1
10	124	3
73	97	1
116	121	1
129	132	1
117	120	2
104	105	1
67	75	1
58	114	1
70	75	1
113	126	1
48	114	1
45	51	1
69	70	1
78	88	1
20	22	1
23	26	1
71	83	1
2	10	1
14	31	1
16	17	1
6	111	1
49	55	1
0	53	1
15	31	1
17	18	1
