83	87	6
205	205	8
87	90	7
96	96	6
48	48	8
243	243	3
9	10	3
92	93	2
82	120	4
176	176	5
186	188	2
192	192	11
85	86	1
216	217	3
64	65	3
51	240	3
153	153	14
204	204	19
39	39	5
209	209	10
152	152	13
210	210	6
71	71	15
91	91	6
169	210	2
70	70	2
171	171	8
240	240	4
218	218	3
28	230	5
85	85	12
174	175	3
99	100	1
46	229	1
212	212	6
149	150	4
229	237	4
82	82	9
25	25	14
225	225	20
50	51	3
81	81	6
146	146	4
96	120	1
47	48	3
95	117	4
163	166	2
211	211	7
181	196	4
242	242	6
84	84	16
174	195	1
159	198	6
113	113	16
93	93	10
108	109	5
157	157	16
50	50	6
38	38	18
247	247	2
65	65	7
217	228	3
37	206	4
216	216	10
220	220	10
23	23	12
150	150	8
90	91	4
45	45	5
171	196	4
205	212	3
71	209	2
84	103	4
27	29	2
87	88	6
206	212	2
163	164	6
180	232	1
6	6	7
198	198	5
197	197	17
77	77	8
20	20	10
234	234	15
91	104	1
116	117	3
221	221	8
58	58	6
54	110	5
2	2	3
155	155	10
31	31	7
82	83	1
114	116	2
82	103	2
53	53	6
49	50	1
236	237	4
24	24	9
229	245	2
9	45	4
81	101	3
106	106	11
159	159	12
62	62	12
90	90	5
145	208	2
233	233	9
95	95	11
4	99	2
202	202	10
229	230	11
81	84	2
203	203	15
76	76	8
214	214	22
230	230	7
27	27	7
38	212	2
238	238	5
85	97	2
109	109	3
193	194	4
97	98	3
228	228	5
10	10	13
87	87	5
223	223	10
232	232	5
190	190	4
41	42	1
8	8	20
68	70	4
183	183	9
67	67	6
191	192	8
63	64	3
11	11	10
224	224	7
48	211	1
116	116	9
56	56	5
22	22	8
55	59	1
15	15	6
231	231	7
169	193	2
173	173	13
92	92	10
163	194	2
213	215	3
200	200	12
247	248	9
87	107	3
72	74	1
200	201	3
112	112	10
182	183	1
31	32	1
69	69	2
111	111	7
107	108	4
24	100	1
46	46	14
80	99	3
54	54	10
35	227	3
172	173	4
47	63	2
11	12	1
32	32	5
241	241	5
178	179	2
69	209	3
100	101	6
42	42	5
68	68	9
156	200	5
168	171	5
35	35	9
35	38	3
162	216	2
167	167	3
57	61	4
70	145	2
15	27	3
209	215	5
34	249	1
78	99	4
56	75	3
9	11	5
55	160	2
101	101	19
90	100	1
37	38	2
208	209	3
179	179	9
55	55	5
207	207	4
238	244	2
248	248	3
12	33	5
179	180	3
36	37	1
5	98	7
12	147	3
10	29	3
64	64	8
189	190	5
108	108	8
156	156	6
234	235	6
174	174	4
164	171	2
226	226	2
149	248	3
17	17	3
75	75	4
89	89	13
86	89	4
211	212	4
8	167	4
17	18	4
29	30	3
51	200	5
229	229	8
91	92	4
114	114	6
16	16	4
157	193	1
44	44	6
175	176	1
55	57	2
1	1	10
199	199	14
161	162	3
184	184	5
217	220	2
36	54	4
62	175	2
69	70	3
43	43	2
105	107	4
213	214	5
156	199	3
95	96	3
210	249	1
99	99	5
94	95	2
78	78	8
158	240	1
208	208	7
168	169	3
246	246	3
115	115	4
195	197	3
96	97	3
170	171	1
39	47	1
59	59	5
158	158	6
145	227	4
86	101	1
207	212	2
55	56	4
32	52	2
181	181	6
57	58	4
29	29	7
241	242	1
51	51	9
79	79	3
157	158	9
71	145	1
58	107	1
165	165	5
193	193	9
74	209	4
236	236	13
154	154	4
167	170	1
52	179	2
27	41	3
212	213	1
37	146	3
61	62	4
53	54	4
61	61	14
172	191	4
235	235	1
182	182	4
213	213	1
168	170	2
160	160	7
89	90	17
166	170	2
18	18	5
161	161	9
196	196	4
47	49	2
192	196	1
217	218	3
96	113	3
162	196	5
67	75	3
52	52	1
159	175	4
146	149	1
0	120	1
52	178	4
120	120	6
14	14	2
104	105	3
56	57	6
96	118	2
158	174	4
45	46	1
28	28	2
73	74	1
88	88	5
42	44	1
150	155	3
184	231	2
97	97	7
201	201	6
41	41	7
192	194	1
105	105	1
48	247	2
108	209	2
217	217	4
63	63	6
152	188	2
98	118	1
30	30	1
209	210	1
239	239	2
46	205	1
206	206	4
8	9	1
199	200	1
221	222	3
224	225	2
17	43	1
59	160	2
188	188	2
44	201	1
29	31	1
170	173	3
54	109	1
166	166	2
119	119	3
149	149	5
151	236	6
73	73	7
80	80	1
22	23	3
151	151	8
88	120	3
117	117	2
7	93	8
186	186	4
238	240	4
178	178	6
92	101	3
84	85	1
194	196	2
185	185	8
159	173	2
188	189	2
238	246	1
96	111	1
169	169	4
9	9	4
55	208	1
33	36	2
38	41	3
159	176	1
33	33	3
173	174	3
92	99	2
162	162	8
100	100	4
206	207	2
163	195	6
12	12	6
51	61	1
71	73	1
33	52	1
4	4	4
154	236	1
215	220	2
3	3	7
51	66	2
159	172	2
160	198	1
88	106	2
237	237	3
108	214	1
215	216	2
5	5	2
67	73	2
108	216	1
19	39	3
82	100	2
218	219	2
180	181	3
168	168	3
51	65	1
54	60	1
195	195	6
36	36	12
223	225	2
74	77	1
102	102	2
35	149	1
51	62	2
70	78	2
109	227	1
167	168	2
18	20	2
71	249	3
10	11	1
115	164	2
95	99	1
47	212	4
56	77	2
54	55	5
152	236	1
164	165	2
51	64	3
145	205	3
60	209	1
222	222	1
187	189	3
110	110	3
110	114	2
89	91	2
60	60	3
71	72	1
230	231	1
41	46	2
89	93	1
79	83	1
232	234	3
7	27	2
86	86	1
77	78	2
86	149	1
185	186	2
180	180	5
40	46	2
52	174	1
107	107	2
19	114	2
66	66	3
57	57	2
242	243	1
244	246	2
172	199	1
74	75	2
157	237	1
80	82	1
47	47	1
118	118	3
1	6	2
21	21	2
160	161	1
24	113	3
46	204	1
167	171	1
184	186	1
194	195	1
211	220	1
47	195	1
40	41	1
145	145	2
39	53	2
33	34	2
94	94	2
182	196	1
39	40	1
243	244	1
24	26	1
54	62	2
80	108	1
164	164	2
88	89	2
194	198	1
177	177	4
57	59	1
181	182	6
159	177	2
78	80	1
120	144	1
245	245	4
197	198	1
221	223	2
12	14	1
24	25	2
26	26	1
209	214	2
42	43	1
93	94	1
183	200	1
75	76	1
26	27	3
146	246	1
68	73	3
117	120	1
175	177	3
55	171	1
101	108	1
222	223	3
61	70	1
216	219	1
194	194	2
6	7	1
220	221	1
144	145	1
40	43	2
93	95	2
54	78	1
18	19	1
80	81	1
62	109	1
169	170	1
174	233	1
55	249	1
109	206	2
175	175	2
227	227	2
16	27	2
79	111	1
37	37	2
163	163	2
6	17	1
74	74	1
12	236	2
230	237	1
19	19	3
65	66	1
181	183	1
225	226	1
153	154	2
19	40	1
165	194	1
70	71	3
109	110	1
95	119	1
104	104	3
162	164	1
82	110	1
25	113	2
96	112	1
54	70	1
14	206	2
54	171	1
51	121	1
4	5	1
82	84	1
20	41	1
172	172	1
70	245	1
238	239	3
55	71	1
62	63	1
72	75	1
49	157	1
7	7	2
171	201	1
156	182	1
184	190	1
110	113	2
27	28	1
218	220	2
19	20	1
160	177	1
51	71	2
156	201	1
240	242	1
164	166	1
191	191	1
154	156	1
58	209	2
190	191	1
3	7	1
174	196	2
18	39	1
102	104	1
69	108	1
61	63	1
212	220	1
50	157	1
85	102	2
80	104	1
218	230	1
95	97	1
