100	100	12
112	112	20
108	110	4
117	117	8
1	1	11
104	104	7
72	72	5
49	51	6
9	9	7
94	95	6
149	150	7
118	133	3
25	33	1
73	73	9
181	182	6
170	171	8
84	84	15
172	172	19
115	115	10
69	69	8
36	36	20
43	44	4
132	132	15
175	175	11
120	120	5
141	181	1
152	153	5
179	179	10
31	34	3
68	146	1
143	144	6
66	68	3
138	138	17
108	108	19
119	120	4
2	21	9
151	151	13
191	191	14
51	51	13
124	125	4
184	185	3
181	181	7
107	168	2
29	29	8
76	78	4
99	99	12
62	115	1
154	156	2
68	68	12
89	89	13
79	81	1
133	149	1
139	140	12
131	131	19
42	42	10
39	39	12
116	135	2
71	72	3
94	130	5
154	154	10
128	134	1
171	171	6
159	160	2
112	114	3
122	141	2
35	36	3
51	74	2
126	126	4
186	187	5
54	54	10
55	55	15
190	190	6
146	146	7
173	174	4
15	69	1
21	21	19
65	65	5
88	89	12
69	70	6
77	77	6
58	59	5
25	26	3
40	42	6
170	172	6
148	148	16
77	78	10
37	37	18
38	54	2
108	109	1
17	17	19
32	32	6
152	152	16
16	16	22
11	155	3
127	139	3
19	19	19
41	41	24
159	159	8
126	128	1
59	59	11
177	177	12
174	175	9
28	34	4
145	179	3
67	67	4
22	22	6
163	163	5
171	195	4
124	126	2
139	139	17
80	81	1
25	25	7
163	164	6
8	16	2
45	45	10
124	124	12
159	161	4
183	183	12
117	148	5
44	51	2
3	21	6
65	120	4
49	49	6
47	47	10
136	136	12
73	74	3
122	137	1
5	6	1
26	26	13
106	106	12
63	63	8
189	189	9
86	86	11
161	161	11
121	123	4
116	116	20
48	48	17
169	169	6
6	6	5
113	113	12
121	129	1
146	147	8
93	96	1
51	52	3
15	15	12
118	119	4
9	57	1
80	85	2
188	188	10
97	145	7
10	10	13
40	40	4
2	3	4
121	121	7
179	180	3
34	36	3
110	111	1
21	41	2
87	87	11
144	145	4
19	111	1
71	71	6
161	164	3
31	31	9
27	32	5
139	150	2
26	27	4
155	155	9
127	127	4
140	145	3
139	141	1
150	150	28
57	60	2
18	18	5
28	29	2
57	57	6
34	34	13
193	193	18
60	60	10
143	143	8
145	145	10
151	152	3
161	165	2
21	22	3
165	165	5
196	196	10
64	65	3
35	68	2
186	186	9
56	56	6
132	133	1
141	182	2
66	171	4
42	45	3
168	169	4
24	24	14
116	121	3
6	131	1
20	21	3
153	153	9
134	134	14
196	197	4
114	114	7
110	110	6
172	173	8
148	166	1
144	144	7
0	0	11
119	124	1
12	12	7
44	44	5
148	149	2
46	46	5
42	43	9
149	149	16
43	43	7
164	184	3
101	101	9
183	184	6
33	33	14
22	24	11
147	149	1
107	108	4
102	104	2
158	159	5
122	122	16
62	62	6
122	130	4
11	11	5
115	116	4
15	16	7
37	38	3
184	184	11
95	97	3
159	169	2
43	54	3
192	192	12
37	135	2
79	80	4
141	141	13
76	76	5
166	187	3
4	7	4
167	174	2
133	133	10
197	197	5
94	94	8
66	169	3
125	125	12
5	7	4
47	48	4
14	14	12
114	118	4
3	3	8
52	52	9
3	5	4
119	119	11
162	162	10
42	44	2
154	155	7
30	30	5
29	33	2
132	150	2
8	8	2
14	16	2
161	184	2
116	119	7
95	96	5
32	33	7
182	182	7
123	135	6
76	77	6
98	98	9
187	187	11
157	157	9
123	124	6
167	167	10
128	128	6
81	81	7
23	23	10
195	195	3
152	157	3
102	103	1
142	179	1
180	180	8
7	7	9
194	194	7
59	60	1
101	102	3
176	176	7
8	9	3
59	61	5
166	166	9
137	137	7
38	73	1
138	140	1
64	64	6
117	118	2
152	164	3
170	170	8
106	108	1
72	73	3
83	84	3
28	60	2
149	155	2
27	27	8
109	109	6
163	168	4
36	37	1
97	97	6
185	194	3
74	74	3
28	28	9
116	117	4
63	116	2
178	178	9
158	158	5
175	177	1
156	156	5
95	95	9
160	160	12
163	179	3
165	184	2
35	35	7
112	170	1
159	194	3
54	55	1
166	191	1
55	74	6
185	185	16
5	27	2
140	140	11
63	118	2
66	66	5
37	40	2
137	197	1
33	76	2
158	176	1
93	94	1
130	130	4
137	138	3
106	107	9
39	52	3
84	85	3
0	1	2
96	98	2
7	8	7
38	47	1
152	155	1
121	163	1
4	4	3
47	49	2
82	83	1
55	56	3
161	162	2
34	35	1
58	58	7
30	194	1
57	58	2
116	125	2
2	192	1
46	52	1
62	67	3
87	167	3
170	182	2
70	82	1
84	88	1
38	86	2
65	66	3
53	55	2
105	106	4
100	165	3
24	26	1
63	117	3
8	14	3
85	85	6
19	188	1
136	138	2
17	18	2
102	102	4
123	123	6
122	155	2
147	147	9
162	163	9
131	132	1
17	42	3
135	136	2
93	95	4
2	5	3
118	118	7
157	158	4
195	196	4
160	185	2
130	131	6
29	62	1
32	49	2
123	129	1
87	88	1
124	128	2
135	138	1
141	142	3
47	73	2
60	66	1
113	115	1
107	107	6
35	37	5
168	168	6
167	168	6
9	127	3
174	174	3
135	135	9
121	134	7
125	126	5
189	193	4
147	148	2
111	112	5
47	52	1
37	74	3
38	40	2
67	104	2
50	73	2
126	127	2
4	33	2
5	8	2
70	70	7
185	186	6
28	190	1
114	117	2
110	168	4
68	72	1
165	166	2
78	78	7
8	12	3
12	63	3
114	115	2
6	27	1
161	181	1
160	189	4
18	19	3
169	171	1
166	181	2
97	98	9
12	13	3
45	50	2
137	140	1
54	67	1
48	49	1
10	13	1
24	25	1
85	86	4
31	67	2
4	5	4
35	55	2
53	53	8
190	191	1
70	71	5
20	20	2
173	173	3
134	135	2
146	154	2
103	105	2
143	156	3
129	129	6
58	61	3
63	64	2
189	190	3
16	41	1
39	42	1
58	60	1
78	138	1
113	114	3
31	158	2
158	160	5
70	76	2
22	23	4
53	64	1
28	30	1
68	71	2
88	93	1
175	176	6
30	31	4
83	83	7
176	177	3
78	79	4
45	53	2
81	82	1
180	183	2
104	105	2
40	41	2
188	189	2
141	157	3
122	139	1
31	32	1
147	166	2
11	34	3
14	15	4
41	42	3
161	191	1
82	82	1
33	34	1
172	174	5
109	112	1
105	105	4
132	134	3
30	57	1
11	57	2
57	59	3
154	161	1
163	165	2
15	25	1
118	148	3
105	107	4
168	172	4
64	77	1
13	13	4
55	61	1
74	75	2
134	136	2
102	152	1
73	139	2
120	124	1
62	63	1
12	40	1
155	157	1
164	165	2
114	142	1
80	80	2
4	9	2
98	118	1
23	72	1
16	19	1
187	188	1
183	185	1
37	53	1
117	135	1
122	123	1
146	152	2
31	55	1
49	50	3
62	68	1
50	50	3
9	10	1
11	12	1
164	164	2
36	60	1
194	195	2
32	35	2
153	192	1
105	182	1
56	57	2
58	71	1
73	75	1
39	41	1
14	19	3
27	28	5
123	128	2
170	174	4
140	141	1
191	192	1
49	52	1
1	181	3
70	75	1
16	17	4
173	177	1
5	5	2
155	156	1
164	168	1
14	17	2
100	116	1
136	137	2
111	111	1
171	172	1
142	142	3
10	11	3
50	61	1
47	140	1
88	88	1
61	61	3
154	162	1
168	182	3
84	128	1
142	157	1
29	39	1
32	61	2
101	103	1
160	161	2
20	176	1
3	20	1
124	155	1
165	168	2
155	164	1
61	67	1
2	188	1
32	39	2
150	151	2
21	34	1
174	187	1
138	139	1
9	128	1
154	159	3
187	192	1
111	170	1
22	174	4
161	166	1
149	151	1
28	78	1
182	185	1
86	97	2
17	36	1
62	64	1
26	28	1
77	115	1
0	2	1
50	51	1
143	181	2
116	118	1
94	115	1
3	4	1
130	133	1
2	17	1
40	43	1
174	176	1
98	99	1
111	144	1
52	53	1
146	150	2
24	69	1
84	86	1
148	154	2
160	180	1
120	123	1
176	179	1
70	145	1
151	155	1
39	40	1
193	194	1
45	52	1
120	125	1
44	47	1
12	24	1
2	2	1
63	69	1
41	47	2
100	101	1
89	90	1
38	38	1
67	68	1
79	79	1
116	136	1
