75	75	15
88	94	3
34	84	1
69	69	19
63	63	21
38	38	5
76	76	10
78	78	31
36	36	3
92	93	5
79	79	14
68	86	1
74	74	8
36	80	1
20	20	4
42	86	4
86	91	4
73	73	5
72	78	5
88	88	13
53	53	13
34	34	10
48	50	5
62	62	10
81	81	17
57	57	13
89	91	1
83	83	13
20	60	3
64	64	8
75	76	2
46	53	7
99	99	7
66	89	6
67	67	13
56	56	9
85	85	26
91	93	3
41	44	3
72	79	4
101	101	17
63	64	1
80	80	12
32	32	2
76	77	12
35	36	4
35	49	3
89	89	24
33	48	2
26	27	17
47	80	4
79	80	5
37	39	6
90	90	9
64	65	5
22	36	4
49	79	1
29	29	7
68	68	10
67	69	7
48	48	6
53	85	3
65	65	13
37	37	7
27	27	1
92	92	9
71	71	10
46	82	1
66	66	18
20	22	4
64	66	2
31	47	3
94	94	9
93	93	2
35	35	6
66	67	7
44	69	3
39	39	10
69	86	3
70	70	21
54	54	5
55	60	1
55	55	5
59	59	10
58	80	1
50	78	3
77	77	3
42	42	15
25	46	3
22	22	4
72	72	21
44	67	6
25	25	9
71	72	3
61	87	5
100	100	10
21	76	3
77	78	4
20	51	1
85	86	3
58	58	12
80	81	3
90	91	3
22	47	2
67	80	3
71	80	2
61	77	5
87	91	3
52	52	9
86	86	3
39	65	1
40	40	3
60	60	5
63	65	2
31	31	5
87	87	9
51	51	5
68	71	2
43	43	5
95	96	2
69	70	3
69	72	2
24	24	2
50	50	5
92	94	1
83	102	1
82	82	13
66	88	3
74	78	2
70	79	3
26	26	5
61	61	9
55	56	2
72	74	3
49	102	1
33	33	9
40	63	3
59	79	2
48	49	1
61	62	4
87	88	10
77	81	5
68	88	2
77	88	1
65	90	1
41	41	4
39	40	2
47	76	1
84	88	5
76	88	1
91	91	3
56	58	2
57	58	8
55	61	6
93	94	1
70	84	3
95	97	6
98	100	1
80	96	2
87	100	1
41	80	2
98	98	3
67	75	2
67	87	1
54	69	3
50	69	1
28	28	2
25	45	2
36	37	2
84	84	4
45	50	2
86	88	3
62	77	2
32	60	1
97	98	1
91	92	3
66	69	2
91	98	2
70	74	4
65	67	2
64	75	1
52	53	2
41	42	2
37	66	1
33	34	1
34	62	1
70	71	2
35	40	1
71	81	3
57	85	3
33	60	3
53	88	3
37	44	2
68	69	2
42	43	1
22	28	3
38	39	1
97	97	3
44	44	1
71	86	1
43	44	2
65	66	1
36	44	1
95	95	1
22	23	1
24	25	6
24	37	1
46	48	1
40	65	2
71	79	2
30	30	2
84	85	2
36	59	1
94	98	1
46	51	1
56	83	2
96	96	1
26	46	3
31	60	1
51	67	1
44	74	1
29	30	3
20	26	1
72	102	2
21	50	1
51	69	2
20	24	1
35	42	2
89	90	1
63	75	1
22	44	1
45	70	2
76	80	1
41	54	2
100	101	1
71	95	2
47	77	1
83	84	1
73	80	2
59	89	1
29	45	1
48	76	1
53	84	2
41	67	1
77	89	1
49	50	3
65	89	1
69	81	1
87	89	1
23	79	1
60	61	1
63	80	1
78	90	1
