12	25	3
42	42	6
9	47	3
4	36	1
65	65	4
36	36	5
35	35	3
73	89	1
44	44	3
50	50	8
51	51	4
126	126	2
26	30	4
63	64	2
16	16	2
132	132	7
95	111	1
96	96	1
131	134	2
103	103	6
43	43	8
149	149	9
75	79	1
94	94	3
74	75	3
26	38	6
114	114	3
77	79	8
113	115	2
110	110	6
13	13	3
101	101	5
120	122	1
3	3	4
24	24	6
117	117	9
31	32	2
143	143	3
12	12	1
104	131	1
145	146	1
62	62	7
87	87	3
63	63	9
105	105	6
140	141	2
33	33	4
26	42	4
38	39	7
58	58	5
94	96	3
71	74	4
13	15	2
54	54	5
83	83	1
55	55	4
109	109	5
111	111	2
153	153	1
139	139	6
124	124	7
41	41	9
97	97	14
77	77	3
80	81	4
5	5	6
69	69	9
118	118	2
56	56	2
40	40	3
15	20	1
93	120	3
14	14	8
74	74	3
83	84	5
75	75	7
8	8	10
106	119	1
104	104	6
144	144	6
146	151	1
53	54	3
99	100	4
96	97	1
86	122	2
117	118	6
20	20	4
137	137	4
119	119	9
33	132	2
97	115	2
121	122	3
28	28	4
145	145	5
120	131	2
126	129	2
84	84	2
53	53	3
32	32	3
131	131	8
12	13	2
113	113	5
127	127	3
39	39	4
29	29	2
15	15	1
2	43	5
16	17	3
128	128	11
135	137	3
135	135	4
120	120	5
95	99	3
3	8	2
16	18	2
100	118	2
146	150	5
122	132	3
102	105	4
11	25	3
108	109	5
99	144	1
94	98	6
70	71	1
31	31	1
138	150	2
19	19	4
71	85	1
34	134	4
62	63	1
125	125	7
38	38	7
32	133	1
122	122	4
31	129	2
43	44	3
153	154	1
64	64	3
79	79	1
125	127	6
37	38	6
9	10	4
41	42	1
9	22	4
107	107	3
4	44	2
100	100	7
81	82	1
70	70	2
123	135	2
151	151	1
87	120	2
21	23	1
93	104	1
115	116	2
98	111	2
75	81	2
86	129	1
72	72	1
129	134	2
43	45	2
80	82	3
136	137	2
35	106	2
87	92	2
62	66	2
77	78	5
110	112	1
116	116	2
27	30	1
92	93	1
81	81	2
68	68	5
30	30	1
99	99	5
39	41	1
97	98	4
52	53	1
147	147	5
138	138	1
26	26	3
78	78	3
150	150	2
100	101	1
13	14	1
142	142	3
18	18	5
45	46	1
73	74	2
11	23	1
32	33	2
25	25	3
46	46	1
47	47	4
95	95	2
56	57	3
37	37	1
104	105	1
9	9	2
45	45	1
36	38	2
7	7	6
131	133	2
65	67	1
5	34	1
11	12	2
98	99	1
103	134	2
26	41	1
14	15	2
27	36	3
68	70	1
123	128	2
67	67	1
10	21	1
96	118	1
98	98	2
80	80	1
137	147	2
66	67	2
141	141	3
9	25	1
108	108	2
154	154	1
128	129	2
21	21	2
2	2	2
31	133	2
6	6	1
17	17	1
15	16	2
113	114	2
66	66	1
114	115	1
86	86	2
26	36	2
112	112	2
67	68	1
121	121	1
146	146	1
10	10	3
76	82	1
8	48	1
4	6	1
55	57	1
27	28	1
147	148	1
46	47	1
149	150	1
21	22	1
82	82	1
23	23	1
48	48	1
29	129	1
95	97	1
127	128	1
143	151	1
123	123	2
4	5	1
142	152	1
102	102	1
136	136	1
141	142	1
101	130	1
101	102	1
115	115	1
132	134	1
129	129	1
88	88	1
139	140	1
57	57	1
