29	29	2
98	100	2
30	30	11
38	38	2
121	131	1
58	87	2
8	8	1
109	130	3
55	55	5
132	132	1
37	37	3
32	33	1
19	19	6
4	35	5
27	55	1
102	102	3
81	81	7
21	21	5
136	137	5
116	117	4
105	105	5
110	110	4
63	63	5
100	101	3
66	104	4
25	27	2
87	87	4
39	61	4
13	15	4
72	72	1
65	66	7
123	123	1
137	137	4
26	26	6
3	11	7
12	13	4
106	106	2
9	10	2
5	6	3
67	127	2
143	144	1
68	117	3
68	68	1
0	1	3
89	89	4
13	13	2
107	107	6
17	17	6
116	116	6
71	107	2
73	74	2
99	99	3
32	32	2
85	85	5
107	108	2
92	92	4
87	91	1
121	121	3
133	140	6
58	86	1
93	99	1
78	78	9
60	60	8
78	79	1
21	43	3
35	35	2
91	91	6
70	102	2
114	114	2
83	83	3
139	139	4
110	123	5
109	109	1
70	71	2
6	35	2
47	47	4
87	90	2
124	124	4
97	97	9
54	54	4
39	41	7
81	82	2
21	25	4
98	98	5
93	94	1
125	140	5
123	141	3
53	98	1
94	105	2
42	42	1
69	70	2
62	62	1
30	118	2
131	136	1
77	77	5
101	101	2
9	33	1
71	71	2
88	89	2
104	107	1
28	30	1
43	43	2
66	94	1
9	9	3
51	52	1
80	80	1
88	88	2
127	131	2
67	67	5
58	85	1
80	82	2
134	136	1
58	58	4
79	80	1
53	53	2
33	33	2
120	121	2
138	138	1
113	113	2
88	113	1
34	34	3
56	85	1
89	90	2
14	15	2
76	79	5
104	105	4
127	127	3
79	79	4
133	134	2
22	22	2
34	36	1
90	90	1
70	110	1
20	20	3
2	37	2
8	15	1
10	10	2
69	69	2
59	60	1
9	25	1
27	27	4
113	116	2
133	133	5
41	41	1
89	111	1
142	143	1
27	33	1
18	18	3
75	75	5
65	65	3
14	14	2
111	111	1
119	119	2
0	61	1
131	135	1
76	76	4
28	28	2
63	69	2
36	36	3
60	61	2
72	104	1
71	105	1
115	115	1
4	4	2
6	6	1
109	114	1
53	95	1
40	40	2
12	12	1
9	20	1
6	25	1
47	57	3
5	49	1
117	117	2
110	124	2
91	118	1
103	103	1
141	141	1
91	139	2
17	19	2
59	59	1
23	23	1
1	2	1
57	57	1
95	95	2
10	48	1
129	141	1
113	117	1
54	113	1
145	145	1
17	18	1
102	141	1
