218	218	4
137	137	4
149	215	1
191	201	3
164	164	5
188	226	6
187	187	10
59	71	1
44	85	1
135	135	4
239	239	3
18	18	5
89	89	2
42	170	1
14	28	5
231	242	2
51	56	1
125	127	2
195	195	2
183	202	1
2	5	2
134	135	2
74	74	5
204	204	1
50	50	15
126	193	1
41	41	8
192	192	3
18	183	4
133	134	1
201	208	2
141	141	4
46	48	2
86	87	2
173	173	3
1	66	2
112	113	2
15	15	1
186	192	2
185	185	11
185	187	3
132	133	3
115	116	6
80	103	6
207	207	5
151	151	5
3	3	8
52	52	2
51	52	3
154	154	3
20	79	2
27	27	6
17	76	2
16	16	9
13	17	2
210	210	7
34	85	3
25	25	8
84	84	5
203	203	11
139	202	4
116	148	3
82	82	2
205	205	3
38	38	7
189	190	1
29	55	4
232	232	3
31	34	4
195	196	2
9	23	3
71	71	2
48	86	2
85	85	7
151	159	3
1	11	2
69	69	3
126	225	3
22	89	5
42	42	2
18	78	1
17	17	8
35	35	4
115	115	1
106	106	4
229	229	6
49	86	6
102	102	2
133	133	1
46	57	1
32	36	3
138	138	5
20	20	4
140	151	2
159	160	3
138	142	3
145	145	3
201	207	1
144	146	1
216	216	3
54	54	2
76	77	6
240	240	3
22	23	2
205	223	2
166	166	2
52	54	4
201	201	4
165	165	2
30	30	4
144	211	2
237	241	2
15	85	1
139	139	8
109	109	5
4	31	3
128	128	4
225	225	8
54	56	2
2	4	3
80	80	5
173	175	3
147	147	4
233	235	1
211	212	2
31	38	1
188	189	1
201	240	2
164	167	3
11	11	6
188	188	5
180	180	9
213	222	9
183	183	3
42	44	2
14	15	2
14	14	3
227	227	2
96	104	1
241	241	1
29	57	2
49	49	5
124	166	2
32	32	5
149	216	3
99	178	2
39	40	4
219	219	6
191	224	11
236	236	3
43	43	3
25	120	3
191	195	3
30	31	2
58	58	3
178	182	6
99	99	2
21	23	3
194	194	4
104	105	2
143	143	7
79	171	1
135	137	2
134	134	4
81	81	2
30	175	2
214	214	5
215	222	1
126	200	5
37	170	2
10	10	1
6	6	4
121	124	3
46	46	2
90	162	3
127	205	3
182	182	1
6	54	5
128	218	4
136	136	6
127	201	2
180	181	2
5	5	5
111	112	3
115	162	2
193	193	6
48	166	1
124	210	1
174	174	5
21	123	4
221	221	4
72	81	3
123	123	8
149	149	1
153	187	2
157	157	2
63	63	2
59	60	4
57	72	3
86	177	1
6	7	1
175	175	5
56	163	3
28	28	2
225	227	3
76	76	4
61	62	2
12	15	2
138	155	1
10	14	1
124	227	1
123	212	4
179	179	2
192	224	3
163	163	1
234	234	2
154	191	1
51	82	3
116	153	1
108	162	1
53	161	1
127	236	2
127	127	5
34	34	1
13	27	1
37	65	3
77	80	1
105	105	3
14	19	1
238	238	4
70	71	1
97	103	1
162	201	4
114	114	1
68	68	2
12	14	3
223	228	3
33	33	4
144	145	4
175	200	1
168	173	1
167	167	2
163	165	1
147	159	3
36	36	1
226	227	2
111	111	3
224	224	2
97	102	5
211	213	2
64	76	4
54	116	2
134	221	3
152	160	1
0	0	5
23	23	2
140	140	5
7	95	4
13	13	1
154	190	1
77	78	2
155	193	2
152	242	2
30	171	2
170	170	3
150	150	3
86	86	3
57	57	1
129	235	3
196	196	4
144	144	1
204	205	4
121	204	1
242	242	3
37	37	4
96	102	2
189	189	1
50	52	2
177	177	4
166	198	1
128	133	3
56	103	1
69	153	2
193	194	2
223	226	1
1	8	1
54	170	3
135	201	4
29	29	2
116	219	1
76	78	5
118	124	1
233	233	2
75	75	4
77	77	5
65	67	2
57	59	4
95	107	4
126	192	2
142	202	1
20	169	1
98	98	1
137	138	6
143	203	1
139	217	2
225	228	1
148	148	1
89	104	2
160	160	2
149	150	2
133	202	1
33	169	1
95	104	1
150	152	1
112	234	5
122	211	2
0	6	1
61	61	9
33	49	4
123	198	1
49	50	1
84	104	6
214	216	1
135	224	2
2	2	2
184	185	1
86	106	2
112	112	7
125	166	1
21	21	1
200	201	3
12	12	2
79	79	2
166	201	1
121	121	1
17	58	4
185	189	1
239	240	1
228	228	1
53	53	3
26	169	1
218	241	1
139	154	1
211	211	2
14	18	2
36	42	2
73	80	1
156	157	2
33	34	1
13	14	1
186	224	2
149	243	1
146	146	4
167	169	1
50	106	3
56	139	1
100	197	1
231	241	2
169	169	5
171	175	1
178	180	1
0	1	1
220	220	1
19	67	2
26	26	1
147	148	1
97	97	2
66	66	1
81	82	2
115	123	2
6	41	1
164	165	2
236	241	1
65	65	3
223	223	3
0	59	2
218	219	1
129	220	2
48	49	3
194	195	1
29	46	1
13	16	1
128	157	2
122	124	1
80	81	4
126	184	3
116	117	3
77	79	3
187	188	4
26	27	3
4	4	1
171	171	2
61	70	1
22	22	7
59	78	2
123	164	1
122	122	1
197	197	1
3	31	2
72	72	3
172	178	1
43	75	4
222	227	3
98	102	1
9	9	1
64	64	4
56	170	1
1	91	1
70	70	2
58	79	1
16	85	1
121	157	2
20	170	1
73	74	2
122	185	1
8	176	2
203	204	1
107	108	3
104	104	2
238	239	1
108	108	3
176	177	2
158	232	1
11	13	1
56	115	2
192	194	1
113	113	1
116	116	2
178	178	1
136	149	1
179	180	1
181	181	5
124	124	1
32	75	1
58	59	1
207	241	2
54	55	1
41	51	2
197	200	2
113	204	1
169	170	1
16	84	1
34	77	2
197	198	1
113	130	1
213	220	1
214	215	1
138	218	2
39	39	1
155	155	1
51	173	3
116	119	1
1	5	1
186	186	1
109	110	2
176	178	1
40	52	1
138	139	1
114	116	1
37	64	1
196	224	2
205	206	1
146	213	1
184	187	1
120	205	1
138	202	1
106	179	1
36	65	1
109	116	2
169	199	2
221	227	1
60	60	3
0	4	1
62	62	1
163	170	1
163	182	1
53	69	1
167	168	2
153	153	1
156	191	1
12	56	1
119	121	1
224	225	2
98	99	1
124	125	1
189	224	1
162	163	1
187	226	1
146	162	2
44	71	2
51	51	1
126	127	1
117	149	1
221	226	1
217	242	1
235	235	1
14	20	1
98	162	1
97	99	1
13	28	1
55	69	1
176	182	1
115	146	1
125	133	1
82	83	2
3	168	2
15	18	2
145	155	1
27	42	1
159	159	1
210	231	1
141	142	1
66	68	1
213	213	1
9	31	1
109	187	1
87	176	1
125	125	1
113	119	1
