43	44	4
137	137	5
129	130	8
134	134	7
52	66	2
116	117	1
163	165	2
110	122	3
71	71	8
110	119	1
45	45	5
20	20	2
19	21	3
115	115	2
102	126	3
180	180	13
140	156	2
127	136	2
152	153	3
141	159	4
65	65	4
67	67	8
93	101	2
127	132	2
91	103	2
37	37	7
7	7	5
123	125	2
108	119	1
66	68	1
136	139	1
122	136	2
157	160	1
129	133	2
33	36	1
124	124	9
15	16	1
53	53	2
16	17	2
21	161	1
4	4	7
106	106	4
9	93	3
123	135	2
123	123	6
31	32	3
68	154	3
126	131	5
112	112	6
100	102	2
83	83	3
62	63	2
36	36	3
179	179	9
24	27	2
93	93	6
3	3	2
83	84	6
56	56	1
87	95	2
135	145	3
131	131	4
122	132	3
64	143	5
140	140	2
14	15	2
87	87	4
143	143	4
7	170	1
80	81	3
22	33	1
134	137	1
68	68	1
108	117	2
86	87	3
60	64	1
176	176	11
32	32	2
18	25	4
177	179	3
167	169	2
132	132	3
143	158	3
168	169	1
14	19	4
158	158	2
105	107	2
137	144	2
124	126	7
49	50	5
14	170	1
73	74	1
61	73	5
71	78	1
10	10	3
150	152	3
168	171	1
1	1	2
97	97	4
61	61	3
106	108	2
26	26	3
35	36	3
150	153	1
126	127	2
175	178	1
149	149	4
136	138	3
0	0	1
44	44	4
126	126	11
2	2	1
24	30	1
116	116	5
89	91	2
115	116	1
77	79	4
22	32	3
59	67	2
37	63	3
36	43	2
161	169	4
51	51	8
75	77	5
163	164	3
152	167	1
36	40	2
87	88	10
12	12	7
152	155	4
141	144	2
89	89	5
81	85	1
76	79	1
11	24	4
110	112	4
139	139	2
146	149	4
65	74	1
8	170	4
79	80	5
105	114	1
165	166	4
8	24	1
53	173	4
153	153	4
92	101	2
1	3	2
95	95	6
120	120	4
103	105	1
75	75	1
30	30	2
17	17	5
74	178	4
153	160	5
78	78	5
17	30	4
145	146	3
25	25	4
149	152	3
141	141	10
43	43	5
167	171	1
25	26	2
103	112	2
148	149	2
31	31	6
150	151	5
147	148	2
5	11	3
145	145	3
21	142	2
160	167	2
74	171	2
23	23	3
114	114	4
3	4	1
66	76	3
119	130	1
114	121	1
63	63	5
81	89	1
4	8	1
63	65	3
76	76	1
26	27	1
18	33	2
110	110	4
76	80	4
42	44	6
53	66	1
14	14	5
143	144	10
176	177	2
64	145	2
139	144	1
19	35	5
139	140	1
22	22	2
91	97	1
91	94	2
164	164	1
146	146	5
40	41	5
24	26	2
85	96	1
41	42	1
123	132	2
50	51	5
157	157	6
51	52	2
75	107	1
32	43	2
163	170	1
8	12	1
38	54	1
40	43	1
80	80	7
170	171	2
1	8	4
63	75	1
92	100	2
144	146	1
18	28	2
161	161	1
165	169	2
90	90	2
159	160	1
103	103	3
51	61	1
173	177	1
158	167	2
67	77	3
22	28	2
72	86	2
171	173	2
20	27	1
2	5	1
60	60	3
37	38	2
34	34	3
162	170	2
154	163	2
65	77	3
102	102	3
144	144	4
107	108	2
172	174	3
32	33	1
66	66	3
153	155	5
11	11	3
173	174	1
29	39	1
177	178	1
32	36	1
77	80	1
154	154	4
59	172	2
131	138	1
142	142	5
141	148	2
167	179	1
107	127	2
161	162	4
50	50	3
135	135	1
155	167	1
146	153	3
12	45	1
6	11	4
151	154	2
157	158	2
107	107	1
29	33	1
89	112	1
147	150	1
108	116	4
68	71	2
172	175	1
5	170	3
9	11	1
66	154	1
113	114	3
20	22	5
102	108	1
33	33	1
13	14	4
169	170	3
167	167	6
61	159	2
166	166	3
138	143	2
3	15	1
68	81	1
109	123	1
118	118	2
25	39	1
9	12	1
143	146	3
138	138	2
110	111	2
171	171	3
117	117	2
160	160	2
25	27	3
4	44	1
55	55	3
165	167	2
87	89	1
179	180	2
72	79	1
151	160	2
71	137	2
82	82	2
122	123	1
112	114	1
74	74	1
91	91	2
147	147	5
99	104	2
10	14	1
101	112	2
29	30	2
58	172	1
105	106	1
15	15	2
124	131	1
136	160	3
51	54	1
40	61	1
97	106	4
100	104	2
39	41	2
40	44	1
136	136	2
24	24	3
53	61	1
156	156	2
162	162	1
78	80	2
62	62	1
133	133	1
138	144	2
114	125	1
143	145	3
67	68	1
150	150	3
92	99	3
38	38	3
24	25	2
144	161	2
53	56	1
101	105	2
159	159	1
163	163	2
165	165	1
154	165	1
140	152	1
173	178	1
0	2	2
85	91	2
24	31	1
142	150	1
96	101	1
172	173	2
89	90	2
128	130	1
16	35	1
158	173	1
36	44	4
127	131	1
58	59	1
75	83	1
172	172	1
27	27	2
141	151	1
147	151	1
108	108	1
11	19	1
130	141	2
9	13	1
148	148	2
174	174	2
5	6	2
84	85	2
178	178	3
98	99	2
97	110	1
165	171	1
13	13	1
77	78	1
112	116	1
153	154	2
101	106	1
98	115	2
78	85	1
40	58	2
107	118	1
23	29	1
161	164	2
27	29	1
127	127	1
95	98	1
41	41	2
106	115	1
16	16	4
88	97	1
52	53	1
5	5	2
164	165	1
81	81	1
159	163	1
6	14	1
174	175	1
147	153	1
42	42	1
13	170	2
74	90	1
9	14	1
170	170	1
104	123	1
151	174	1
135	136	1
85	85	1
92	92	2
90	176	1
73	73	1
96	96	2
100	112	1
61	168	1
80	87	1
99	99	1
