136	136	3
200	200	12
189	189	8
175	176	2
195	195	5
33	56	5
182	183	2
13	14	1
155	155	4
157	157	7
167	167	7
1	130	3
194	194	4
181	194	6
182	201	1
3	3	7
101	128	5
25	62	5
32	74	2
216	220	3
215	215	7
37	37	6
173	173	10
47	47	7
144	144	8
109	199	1
120	198	2
179	180	3
107	107	2
72	72	5
203	204	5
201	201	11
170	170	18
99	99	7
98	148	7
193	194	5
10	207	4
174	175	2
124	124	1
129	129	7
204	204	5
171	171	5
158	158	14
55	55	10
39	39	13
193	196	2
141	141	3
27	27	8
233	233	3
6	6	4
170	171	6
115	193	3
42	42	11
35	40	1
110	110	4
21	21	8
208	208	8
144	145	4
34	34	2
49	51	6
68	68	3
231	232	3
33	33	1
85	85	10
66	67	3
56	56	7
228	231	3
134	135	4
206	206	4
49	50	8
23	23	5
222	222	17
57	58	3
180	204	3
159	159	18
232	232	20
241	241	14
116	117	2
204	205	5
114	190	3
213	213	9
154	155	2
225	226	9
105	105	3
147	148	1
207	207	15
212	212	4
228	228	10
165	168	3
84	84	8
55	57	3
239	239	2
43	43	10
224	224	11
38	38	3
61	61	6
54	54	8
64	135	2
79	84	5
107	240	4
40	40	4
217	217	14
50	50	4
128	128	10
122	130	5
219	219	3
25	25	8
100	100	7
152	153	4
46	46	9
18	18	2
166	166	8
213	235	4
58	60	1
47	48	2
169	169	9
105	106	3
62	62	15
240	240	3
29	29	12
234	238	2
174	174	15
187	200	4
55	89	1
14	15	3
135	135	3
178	178	8
115	115	6
223	223	4
30	30	1
126	126	3
150	151	1
120	120	12
13	23	4
14	64	2
48	48	7
84	85	3
98	98	1
172	239	3
39	69	2
141	144	2
217	218	7
166	167	4
32	32	8
175	177	2
28	28	7
184	184	3
160	160	2
17	68	2
20	20	5
192	192	4
69	69	12
226	226	8
15	15	7
121	190	2
101	135	1
120	190	3
140	140	6
70	71	3
187	187	6
106	106	9
71	71	8
36	123	4
147	149	4
49	49	5
151	151	3
150	207	2
188	189	2
146	146	5
142	146	2
133	133	4
138	138	5
50	88	2
137	138	2
113	119	2
157	158	1
191	191	9
197	198	6
44	45	4
171	172	2
165	203	2
162	162	7
237	237	4
161	168	1
8	8	11
154	154	2
51	52	2
22	22	4
45	45	6
53	53	6
196	196	2
14	14	3
8	156	6
190	190	4
13	13	6
209	213	4
73	97	1
218	218	3
242	242	7
16	64	2
157	182	1
29	75	2
2	2	3
161	163	1
168	212	1
211	211	1
160	162	1
159	161	2
11	11	3
48	54	1
162	208	2
134	134	2
209	212	1
173	174	6
114	197	3
16	16	1
74	74	5
32	33	1
31	31	7
190	191	8
62	63	2
5	126	5
122	123	1
186	187	3
100	101	3
100	145	2
205	205	2
65	140	4
108	108	2
37	38	2
191	192	3
121	121	3
168	168	5
11	85	4
37	190	3
0	11	1
125	129	1
80	80	6
9	9	4
10	10	8
34	122	1
216	216	5
210	213	1
174	204	2
121	122	10
78	78	2
236	236	4
230	231	4
44	44	3
181	182	1
73	73	4
21	35	2
60	60	3
179	222	2
142	142	4
109	111	2
180	180	4
101	122	2
232	233	2
166	205	1
234	235	3
141	142	3
185	185	5
1	1	2
233	234	3
16	17	2
165	223	1
0	133	1
186	186	5
96	96	5
220	220	11
41	41	5
97	97	5
163	167	1
66	127	2
179	179	7
138	180	2
119	119	1
172	172	2
202	202	6
238	238	4
101	101	2
112	113	4
51	51	2
145	145	3
192	193	2
184	187	2
57	57	5
161	161	2
19	56	2
220	221	1
64	64	2
63	63	2
116	192	2
25	27	2
203	203	3
166	204	5
214	214	1
31	160	1
135	139	1
117	117	2
238	239	2
172	217	1
2	91	2
140	142	3
123	123	1
137	137	3
199	200	3
59	60	2
33	34	3
139	139	7
227	227	1
181	181	2
117	200	1
74	75	2
131	131	1
70	70	2
77	78	1
176	176	4
129	166	2
66	68	1
125	187	2
55	56	3
122	202	2
17	17	3
76	77	1
10	63	3
164	164	1
116	116	2
177	177	3
192	194	1
210	211	2
120	191	1
127	127	11
64	65	2
130	130	2
148	148	1
0	0	1
52	53	1
86	86	2
170	179	2
197	197	5
62	134	2
24	24	2
122	122	2
209	210	2
125	125	1
95	144	1
2	3	1
23	135	2
231	231	2
230	230	2
149	149	2
16	63	2
28	54	1
217	228	5
175	175	3
165	169	3
48	49	2
16	19	1
66	66	4
210	210	2
116	193	1
133	134	3
188	188	1
24	62	1
163	230	1
67	67	2
29	68	2
160	201	1
234	234	1
1	6	2
145	146	1
55	60	3
105	240	1
60	61	1
156	157	1
54	84	1
152	152	3
123	195	4
199	199	2
101	102	3
65	142	3
85	86	3
68	69	1
122	129	4
160	161	1
19	63	1
26	26	8
156	156	3
65	182	2
55	58	2
218	219	1
198	198	1
116	185	3
99	150	1
96	235	1
165	165	2
36	36	3
65	65	3
95	95	1
115	211	1
71	84	1
177	179	2
40	42	3
194	197	1
79	83	1
147	147	3
33	58	1
158	159	1
150	150	4
0	12	1
88	88	1
35	35	1
228	229	1
59	59	3
17	18	2
124	127	1
172	218	1
16	83	1
105	119	1
120	192	1
9	10	1
22	34	1
113	113	2
109	109	1
105	239	1
229	229	1
67	127	2
214	215	1
119	200	1
153	153	2
155	207	1
79	79	1
118	198	1
34	35	1
54	86	1
54	75	1
2	134	1
31	79	1
125	197	1
143	143	1
219	220	1
44	50	1
57	60	2
117	118	1
235	235	1
162	212	1
83	84	1
103	198	1
75	76	1
164	168	1
216	217	1
183	183	1
