37	80	3
73	73	13
99	100	8
83	83	9
44	44	8
25	25	12
55	55	4
23	28	3
60	60	9
49	75	4
28	28	7
108	108	4
96	97	6
99	99	16
20	27	2
69	69	14
47	47	14
23	23	7
81	85	4
82	82	6
42	42	11
111	111	14
41	95	1
98	98	14
96	102	1
44	76	5
37	37	11
94	94	9
103	103	7
64	65	9
21	21	13
36	42	4
45	45	4
88	88	5
40	41	4
37	43	8
63	65	4
104	106	1
97	97	5
72	72	1
59	59	10
90	111	5
61	66	4
54	54	10
49	111	5
87	89	3
56	56	3
21	27	3
74	114	8
39	40	4
58	58	6
66	66	8
70	70	5
27	27	5
40	40	4
78	82	4
46	46	4
59	61	3
22	23	3
30	30	10
26	26	8
32	34	11
43	43	2
21	40	2
39	39	5
32	45	6
112	112	4
65	65	1
33	33	10
96	96	6
41	41	8
49	49	5
71	72	4
44	84	1
36	43	1
97	98	5
81	81	3
62	62	10
34	34	1
67	67	14
103	108	4
92	93	1
85	85	2
61	61	3
44	113	4
26	54	2
25	26	2
102	104	4
46	47	2
22	22	19
48	48	5
72	73	1
80	85	3
113	113	3
78	81	2
75	75	4
46	108	3
52	52	5
103	107	4
114	114	5
51	51	5
56	59	3
51	74	1
35	36	7
89	89	4
50	50	3
34	36	1
36	113	2
21	97	2
24	24	9
113	114	7
26	27	4
36	36	7
71	71	6
27	28	1
39	97	3
92	92	6
68	68	7
100	102	5
80	81	2
39	41	2
39	92	1
21	22	8
31	32	1
20	20	4
43	80	1
70	71	4
109	109	3
31	31	2
93	95	2
45	83	2
88	90	2
44	74	1
52	72	4
53	53	5
25	27	1
114	115	2
48	50	1
104	104	1
42	43	2
80	80	1
46	101	2
84	84	2
73	74	2
52	60	6
99	102	3
53	54	10
36	44	3
98	99	1
79	81	5
60	61	2
93	93	4
100	100	3
101	101	8
42	44	2
51	52	1
109	110	2
77	77	4
63	67	2
35	35	1
69	71	5
55	114	4
36	37	3
105	105	1
58	62	2
107	107	2
21	36	1
46	100	8
95	95	1
79	85	1
78	78	1
32	33	2
57	57	3
24	27	1
89	90	1
89	91	2
86	86	3
43	44	1
57	59	2
60	73	2
20	54	1
32	32	4
68	69	1
102	102	1
20	39	1
24	28	1
61	62	1
50	111	2
73	111	2
60	67	1
66	67	1
23	24	2
23	27	2
79	79	1
76	76	1
67	69	1
98	100	1
21	42	1
