3	3	15
141	141	46
86	86	34
92	92	33
104	105	9
62	63	27
64	64	47
9	10	3
122	122	32
69	69	30
61	61	67
70	70	30
133	133	26
8	97	1
144	144	24
145	146	6
47	47	20
79	80	25
15	15	43
59	141	2
62	62	55
99	134	1
4	5	16
56	83	2
98	105	2
103	103	26
120	120	38
34	36	7
31	31	36
135	135	14
15	16	11
33	33	40
59	59	34
76	77	15
95	95	16
71	72	29
57	57	26
79	79	33
105	105	51
59	90	1
60	61	11
32	32	59
23	23	26
50	113	2
71	141	1
134	136	8
109	110	17
51	51	31
107	121	2
28	28	41
116	120	1
34	34	19
40	41	11
37	37	39
72	72	33
129	133	1
113	120	5
63	63	44
21	23	3
53	53	43
10	11	7
72	73	4
74	74	42
97	98	21
19	19	51
29	29	39
111	111	33
98	98	31
10	10	33
82	82	49
100	100	10
97	97	41
5	65	3
127	135	2
16	16	47
85	119	6
56	56	33
109	109	31
27	27	43
66	69	3
134	134	37
85	87	2
139	139	15
78	78	24
83	101	4
125	126	10
67	69	2
110	110	33
17	39	3
128	129	9
130	130	37
112	112	75
52	53	21
134	135	16
115	115	41
87	87	23
3	6	2
63	125	3
130	133	4
9	30	1
124	124	53
17	30	2
130	136	6
108	108	46
22	22	32
18	19	29
106	106	13
113	114	6
93	93	29
63	124	2
117	117	60
18	33	3
60	60	30
11	11	40
113	113	31
58	126	4
107	120	5
54	54	51
83	131	2
85	86	14
127	127	54
24	30	3
11	41	3
42	42	38
49	49	38
62	111	3
135	136	22
104	106	6
58	59	30
78	112	2
18	18	34
6	6	26
119	119	35
35	35	25
20	20	20
91	91	33
55	56	15
102	120	3
67	67	32
65	66	33
65	65	51
94	94	16
39	39	19
124	125	18
121	121	37
84	84	30
9	9	43
131	131	53
75	75	23
96	96	39
24	106	2
129	130	17
19	94	4
70	71	7
66	66	51
93	94	21
1	21	4
91	92	8
76	76	42
105	112	5
88	90	8
128	131	7
88	92	5
32	33	24
102	102	65
65	117	3
79	123	2
40	40	37
89	101	6
39	79	2
73	122	2
63	65	3
39	40	9
75	76	27
14	14	15
89	132	3
100	107	2
59	60	19
21	21	26
116	116	34
25	104	1
115	116	8
53	91	2
26	27	14
77	77	36
108	109	16
96	100	6
43	43	12
5	5	24
55	55	56
118	118	50
107	108	13
86	87	4
61	67	4
129	129	24
68	69	6
138	139	7
13	15	8
52	52	30
142	142	36
85	85	20
104	104	24
68	124	3
136	140	2
37	38	4
69	70	23
0	0	13
107	107	20
50	50	31
48	48	47
3	39	2
63	68	2
125	125	28
85	132	3
122	140	3
99	99	16
98	118	1
4	4	12
2	2	22
63	129	3
70	104	5
36	37	4
142	143	5
36	36	19
114	116	11
128	128	35
12	12	11
102	103	18
55	118	3
54	83	2
103	104	10
64	65	17
81	81	29
67	68	19
34	35	9
3	47	1
90	90	48
145	145	23
38	39	11
12	52	4
123	125	11
5	6	7
89	89	34
71	71	35
80	80	25
141	142	17
21	34	2
10	42	2
47	48	7
114	114	31
73	73	17
80	89	2
54	119	2
97	99	2
50	51	14
9	146	1
71	92	2
123	123	58
9	41	3
51	52	16
94	95	7
50	56	3
88	88	30
41	41	21
112	113	12
101	101	25
54	56	3
21	35	1
0	1	13
33	34	4
30	37	3
21	22	12
32	34	9
61	126	4
68	68	25
20	23	5
58	58	30
73	74	20
17	17	37
8	9	16
35	36	9
66	67	14
60	131	2
111	126	6
132	132	16
121	125	1
107	131	4
19	32	2
1	19	4
54	55	11
23	36	6
122	130	2
25	27	1
53	54	27
99	100	10
31	32	6
26	29	3
132	133	10
91	94	4
25	74	1
5	32	3
10	18	2
47	104	3
56	57	9
82	83	11
25	34	3
70	72	3
123	133	1
63	66	11
137	137	15
91	118	5
83	83	22
126	126	25
111	112	11
16	18	2
89	131	4
119	120	1
57	58	16
83	112	10
87	91	5
118	130	1
131	133	3
26	26	15
1	1	9
8	146	2
52	65	3
28	29	14
76	79	2
84	106	2
75	81	5
25	25	29
114	115	10
136	137	11
121	123	8
56	128	1
31	38	3
117	118	11
112	122	2
130	131	9
16	17	2
51	115	2
83	84	18
118	119	6
68	71	7
89	112	2
13	14	13
91	105	2
116	117	12
24	34	6
15	53	2
66	121	2
57	83	3
30	30	31
82	140	5
109	125	10
80	121	2
23	37	3
108	120	2
20	21	7
79	105	1
5	33	5
8	8	18
139	140	13
96	97	11
86	119	11
9	16	7
38	41	9
87	88	10
75	78	9
49	50	6
77	127	5
120	121	7
49	51	8
71	93	3
107	117	2
146	146	12
22	23	3
50	84	2
47	50	3
48	84	4
25	26	10
6	135	3
90	91	12
26	81	2
93	118	3
38	75	3
47	105	4
8	10	3
65	119	3
38	38	45
129	132	4
105	107	5
126	139	4
104	107	4
89	90	16
140	140	23
92	93	9
143	143	16
133	134	4
3	4	4
50	112	2
77	78	19
12	13	9
17	20	2
82	119	2
95	96	8
123	124	9
29	40	3
18	22	2
84	85	11
59	62	4
138	138	17
69	108	4
85	106	6
79	112	1
141	143	3
105	106	4
42	146	4
117	119	3
53	55	4
69	107	1
107	110	3
11	16	4
30	31	8
48	49	3
9	20	4
124	136	7
61	63	4
81	139	7
49	106	5
23	24	5
25	37	4
92	118	3
121	124	2
18	97	1
128	133	4
74	93	2
88	91	5
11	42	8
116	134	3
13	13	22
59	74	3
2	19	2
21	36	4
50	53	2
39	74	3
58	123	3
117	139	5
111	114	3
101	103	5
89	121	5
13	47	1
27	28	11
0	24	2
26	37	3
75	79	1
70	95	1
19	20	5
21	71	2
63	117	2
71	121	3
64	80	2
17	40	3
19	21	2
6	35	1
115	117	6
33	35	6
110	121	2
124	143	1
123	140	3
3	37	2
97	140	3
51	53	2
127	139	5
74	98	2
29	30	5
123	126	4
136	139	5
72	92	6
1	6	1
101	142	5
98	99	6
53	65	3
23	25	4
81	138	5
133	141	4
39	73	3
136	136	17
96	135	1
96	101	3
2	20	11
53	83	4
76	112	2
92	98	5
69	102	3
5	64	4
110	130	2
7	137	1
23	26	3
101	102	6
16	38	3
63	64	1
89	91	1
87	102	2
27	41	2
122	123	9
65	75	1
33	62	1
80	82	6
54	57	5
61	133	1
12	39	1
128	132	12
110	111	5
51	114	3
11	38	1
106	108	1
64	66	9
81	82	13
11	40	3
60	71	2
81	130	1
22	39	1
101	110	4
86	99	1
24	25	10
98	121	5
111	123	2
63	79	3
64	119	7
51	62	1
74	124	3
80	124	2
91	100	2
96	104	1
49	103	1
16	41	1
64	116	4
60	74	1
87	131	3
24	24	13
52	85	2
13	48	3
60	103	3
74	75	3
38	76	4
127	138	3
43	51	3
82	120	11
58	89	2
127	133	1
103	140	2
2	6	2
57	59	1
78	79	13
17	33	7
84	100	3
80	115	4
17	18	5
134	139	2
88	105	2
124	141	3
1	39	4
106	107	9
143	144	4
97	113	1
6	42	1
49	54	5
62	130	1
16	59	3
80	81	11
59	61	3
81	123	1
136	138	7
30	38	4
21	70	5
88	99	6
33	36	6
126	138	1
82	130	4
79	125	3
42	145	3
135	138	4
135	137	3
85	117	1
52	115	2
144	145	3
128	134	3
62	131	1
106	109	4
34	104	1
48	132	1
61	86	3
113	130	3
61	62	2
21	24	2
75	86	2
79	114	2
53	84	5
15	47	6
105	109	3
112	121	1
49	113	2
23	103	2
88	89	9
114	134	3
24	32	3
11	37	5
8	11	1
110	122	2
15	37	1
134	140	2
114	136	1
41	42	4
83	113	1
6	29	3
89	92	2
82	112	1
54	82	5
114	119	2
12	37	3
18	20	4
64	118	1
54	64	1
111	117	2
64	133	3
103	141	2
23	34	4
94	109	1
122	137	1
127	128	4
33	37	4
117	138	3
67	141	1
62	133	3
3	38	5
37	39	1
110	113	1
25	82	2
3	36	2
61	129	1
130	132	2
31	35	3
113	125	2
98	101	1
72	75	1
71	105	3
36	39	3
79	117	2
137	138	1
133	139	3
117	129	1
17	144	1
65	115	3
134	138	3
89	120	1
11	33	3
31	34	4
88	131	3
86	88	3
22	102	2
11	30	1
43	50	1
23	40	3
113	121	5
109	124	5
29	41	5
95	98	2
124	126	3
117	128	1
17	37	1
37	40	5
125	141	2
68	141	1
2	3	3
33	71	5
72	74	2
122	125	1
57	65	1
0	9	1
99	101	3
10	54	2
15	36	4
68	112	1
22	84	1
66	120	2
116	118	2
120	130	3
97	102	1
10	22	2
72	93	2
80	116	2
37	122	3
15	52	1
107	123	1
73	123	1
62	123	3
11	14	1
104	125	4
26	30	2
86	107	2
48	68	1
85	89	3
128	130	2
35	107	3
3	99	1
100	132	1
79	107	2
64	67	2
82	118	1
22	40	1
30	32	4
9	17	1
91	119	1
32	39	4
47	138	1
66	68	1
57	90	4
81	121	3
87	106	1
99	133	2
129	131	2
25	102	1
75	132	1
4	65	1
100	134	2
63	67	3
18	21	4
114	121	1
80	122	3
59	73	1
90	97	1
122	133	3
130	137	1
10	37	1
11	35	1
22	28	1
81	95	1
61	87	3
51	113	1
91	95	2
126	127	1
31	33	1
79	124	2
80	140	4
81	117	1
33	42	2
87	118	2
69	71	1
77	79	4
13	35	1
119	131	1
65	123	2
82	102	1
97	131	2
69	81	2
59	83	1
83	86	3
100	101	3
26	103	3
70	109	1
93	119	2
63	121	1
13	84	3
4	43	2
59	126	1
64	128	1
12	34	1
74	81	2
110	120	1
25	36	1
23	118	2
92	94	5
107	115	2
1	2	3
72	105	1
110	112	1
120	140	2
101	125	2
19	41	2
2	21	2
72	121	1
10	38	2
42	53	1
98	109	1
110	125	2
4	32	1
105	108	1
110	131	4
83	111	2
1	3	1
110	115	2
17	21	2
24	31	2
5	20	2
39	41	5
73	79	3
123	127	2
10	36	2
140	141	3
88	120	2
86	102	1
42	43	1
86	130	1
99	135	1
57	87	3
74	103	1
80	123	1
121	122	1
56	82	1
3	31	1
24	26	1
127	132	1
58	61	2
50	52	5
13	36	2
12	51	1
60	78	2
11	23	1
2	4	1
98	113	3
9	28	2
10	40	1
2	32	1
127	137	1
91	98	2
72	94	1
100	104	1
59	102	1
56	118	1
104	126	1
62	137	3
4	37	1
82	84	1
81	86	2
29	38	1
10	29	1
120	131	2
35	37	2
24	36	1
57	81	1
83	87	1
12	38	1
97	101	1
33	72	1
20	106	1
89	96	1
28	30	1
101	140	1
96	99	1
8	18	2
19	118	3
87	90	1
103	125	1
49	55	2
14	15	2
65	121	1
47	51	1
75	80	1
64	115	1
110	124	1
101	141	1
85	88	1
88	110	1
17	38	1
24	35	1
35	106	1
90	98	1
112	114	1
82	108	2
49	112	1
22	103	1
16	33	1
99	118	1
69	141	1
123	139	2
38	40	1
47	101	1
58	96	1
8	93	1
36	38	1
135	140	1
106	110	1
22	106	1
96	139	1
46	138	2
13	37	1
88	109	1
12	36	1
118	129	1
6	10	1
49	105	1
