182	182	13
187	188	7
27	28	2
135	135	8
45	45	10
241	241	5
229	229	4
63	63	3
155	155	3
222	228	2
9	9	7
64	201	5
2	3	2
61	61	10
79	79	2
104	124	3
65	69	3
37	37	5
42	42	8
170	170	4
81	81	7
63	70	2
113	114	5
28	30	1
133	133	10
98	98	5
183	183	3
239	239	5
162	162	6
10	11	2
88	88	1
8	9	3
82	83	2
15	139	1
211	213	2
64	64	6
214	215	3
125	126	2
117	117	2
57	57	2
14	14	5
40	40	6
165	165	6
211	212	1
238	238	1
195	196	2
228	228	6
138	143	3
10	10	9
46	202	4
129	129	2
152	152	7
144	144	5
143	143	6
192	192	6
68	224	6
85	85	4
141	141	7
172	172	1
9	43	5
157	158	4
132	132	2
193	194	2
190	190	3
148	148	8
187	211	3
6	6	5
8	40	4
109	109	8
202	202	1
15	197	5
127	127	2
210	210	4
232	232	6
54	54	4
198	198	4
152	158	2
18	18	1
151	151	9
33	33	6
98	99	4
49	52	2
17	17	4
49	49	1
20	21	1
217	217	3
46	46	3
173	207	5
149	150	6
20	22	2
44	44	2
69	70	2
8	8	6
82	82	5
125	125	1
74	75	6
77	78	2
80	80	2
168	168	3
199	199	5
141	187	2
121	121	6
72	72	2
12	12	8
75	76	3
78	78	4
71	73	2
81	82	2
121	164	3
53	53	1
96	97	1
153	157	1
173	188	2
140	140	4
10	15	1
116	117	2
159	161	3
102	103	2
205	205	6
39	39	1
78	79	5
32	32	3
166	166	2
173	173	2
39	42	4
55	73	3
68	68	5
126	127	1
224	224	4
195	195	4
208	208	6
55	55	3
187	187	5
230	231	3
241	242	1
153	154	5
234	234	7
205	206	5
152	156	1
67	67	3
119	119	1
144	146	1
152	204	1
56	57	1
25	25	10
7	8	3
203	203	2
203	204	2
11	11	1
135	149	2
138	139	6
173	178	2
1	40	1
153	153	1
213	213	4
154	156	2
84	95	2
189	189	1
41	42	1
22	22	3
193	193	4
161	161	4
75	75	7
230	230	5
104	134	1
5	6	2
120	120	3
29	29	2
134	134	5
206	206	4
198	199	5
222	222	9
18	25	2
6	40	2
209	213	1
71	220	2
59	60	2
10	190	3
34	35	4
74	74	3
214	214	2
160	160	9
137	139	6
108	108	2
177	203	3
135	204	1
123	123	1
65	65	6
11	43	3
34	34	2
110	239	2
48	49	4
105	105	2
184	185	3
199	200	2
25	28	1
207	208	5
30	30	4
109	164	2
145	201	2
58	59	5
113	113	5
209	211	2
181	181	13
115	115	1
58	58	7
227	227	4
229	231	2
37	74	1
73	74	2
192	193	3
116	116	4
3	3	4
50	50	9
187	210	7
65	201	1
185	185	5
59	59	2
133	150	1
47	47	5
65	181	3
8	41	1
15	15	2
233	233	8
155	156	3
152	153	2
69	69	4
204	204	3
15	61	3
37	62	1
80	81	2
157	157	5
240	241	1
62	63	4
103	105	1
180	180	2
66	66	1
10	43	1
139	140	3
186	213	1
101	101	1
37	73	1
143	190	3
231	231	4
173	177	1
167	167	4
42	148	3
179	180	3
43	43	2
26	27	5
122	122	4
180	181	1
186	187	2
29	30	1
68	69	4
191	191	3
139	143	1
201	201	4
1	42	3
100	100	1
6	34	2
36	60	2
188	210	3
184	184	3
179	181	1
219	219	7
3	5	2
211	211	4
43	44	2
204	205	1
139	187	3
73	73	2
128	128	1
159	203	1
150	151	2
45	46	3
96	96	4
184	186	3
150	150	2
144	181	2
63	64	2
109	110	2
57	58	1
224	226	1
97	97	3
216	217	1
188	188	3
9	44	2
190	191	2
232	238	1
143	145	4
135	150	2
4	6	1
28	28	1
36	58	1
41	41	4
147	147	1
236	236	1
21	23	3
149	149	4
24	24	3
216	216	1
103	103	1
222	223	2
175	175	2
148	149	2
221	221	1
36	37	1
21	22	1
179	179	6
164	164	1
221	230	1
209	209	1
240	240	1
174	174	1
223	223	5
164	172	3
62	69	2
180	232	2
39	61	2
221	222	2
207	207	3
156	156	1
159	159	2
70	223	2
190	208	2
46	99	1
62	62	1
174	213	1
233	238	2
226	227	3
158	159	2
8	198	1
221	225	4
69	224	3
171	171	2
103	104	3
234	236	2
2	2	1
152	157	2
70	71	1
109	239	1
138	183	1
177	204	3
70	70	4
101	161	1
175	236	1
51	51	1
43	201	1
0	42	1
137	137	3
71	71	1
177	177	1
191	198	1
12	29	1
175	176	2
220	220	2
136	136	2
20	29	1
55	97	1
222	225	3
230	238	2
176	177	1
78	218	1
176	176	2
111	111	1
64	65	1
180	202	1
84	84	1
106	172	1
123	124	2
186	186	1
140	188	1
1	1	3
242	242	1
178	178	1
226	226	2
163	163	1
42	200	1
27	27	1
3	39	2
132	150	1
124	124	2
213	238	1
11	29	1
229	238	1
37	38	1
75	78	1
150	152	1
114	114	3
83	83	1
1	32	1
215	230	1
77	77	1
20	20	1
7	40	1
134	205	1
47	202	1
151	204	1
64	202	1
21	21	1
155	158	1
151	155	1
72	73	1
48	48	1
167	168	2
50	71	1
74	97	1
116	163	1
169	171	1
9	10	1
178	209	1
2	59	1
110	240	1
23	23	1
220	222	1
99	219	1
38	38	1
139	142	1
128	129	1
