99	105	7
66	66	17
78	78	5
37	37	13
122	122	26
149	149	16
129	129	15
39	40	9
144	145	11
163	163	17
90	90	16
46	46	29
0	0	12
48	48	19
139	139	18
151	151	23
21	21	19
47	47	32
45	45	18
72	72	11
116	116	18
110	110	20
159	162	1
123	124	6
80	80	13
139	140	18
85	86	5
26	26	27
25	47	1
98	99	5
77	77	32
65	65	21
70	73	3
135	135	24
87	87	25
53	53	17
40	40	23
95	95	16
162	162	4
97	97	14
19	19	21
118	118	19
38	41	3
118	136	8
118	119	3
164	164	17
66	132	7
124	124	27
51	51	13
78	79	3
76	77	11
84	85	9
50	50	10
133	133	13
20	22	1
138	138	17
131	131	21
11	11	15
93	94	7
38	38	21
111	111	21
99	99	16
55	147	1
43	43	26
20	20	25
93	93	25
1	15	4
73	73	18
40	41	6
150	150	39
142	146	5
140	140	10
122	123	14
100	103	3
71	71	19
6	6	10
52	52	22
22	22	18
13	13	37
126	126	24
42	43	14
20	21	5
146	148	2
106	106	23
105	105	19
49	49	23
126	135	4
142	143	7
150	151	7
93	117	1
81	81	16
18	18	14
70	71	4
10	51	1
44	45	5
12	12	16
6	134	3
82	83	8
100	100	12
46	105	2
88	139	2
83	83	8
41	41	10
142	142	14
76	118	3
133	134	8
161	162	7
62	62	15
79	79	12
45	107	6
157	157	16
64	71	4
127	127	11
160	160	25
153	153	13
93	116	1
4	9	1
152	152	23
166	166	15
67	129	6
10	10	27
137	138	4
33	34	6
15	15	14
0	2	3
33	33	4
54	54	20
122	125	1
2	2	16
17	131	1
63	148	9
74	74	19
92	92	22
4	35	1
56	57	7
24	24	14
17	17	16
66	126	3
94	94	14
113	114	10
109	109	20
88	89	7
1	14	1
167	167	14
58	58	7
5	6	4
90	138	3
42	42	14
153	154	6
88	88	9
47	104	2
145	146	11
168	168	14
147	159	5
136	136	16
154	154	21
102	106	5
108	109	4
132	133	2
79	80	8
90	91	11
145	145	21
132	132	28
35	35	15
111	113	4
110	111	8
63	63	15
98	98	13
18	20	1
157	158	8
64	65	7
14	14	10
165	166	3
12	13	4
8	8	18
124	126	1
1	1	5
23	23	14
121	122	5
130	130	19
148	148	11
89	90	5
49	51	3
45	46	1
55	56	6
62	64	6
156	157	5
143	143	21
9	9	22
1	2	11
85	85	22
26	27	8
44	57	2
20	23	7
47	57	1
34	130	5
55	55	11
0	1	5
134	135	12
165	165	7
160	163	1
76	76	8
141	141	20
157	168	1
11	35	1
170	170	9
6	16	4
89	89	15
67	67	17
73	77	3
144	152	2
16	16	11
155	155	24
134	134	16
108	108	18
123	123	13
163	164	3
143	144	4
140	145	3
95	97	5
138	139	7
117	117	11
95	147	1
122	135	1
82	84	11
64	151	1
51	52	1
64	64	16
62	81	5
95	136	3
146	146	18
114	114	11
91	140	6
101	101	15
10	38	2
126	127	7
8	9	8
84	84	8
22	23	12
96	97	8
56	56	19
2	156	3
81	82	4
159	160	7
36	162	1
120	120	17
15	16	9
97	137	2
50	54	3
96	96	14
57	62	1
147	147	13
36	37	7
9	54	2
161	161	17
28	28	6
37	167	2
69	70	7
9	11	3
16	17	12
115	116	6
156	156	7
123	126	4
86	86	11
147	148	4
147	158	2
158	160	1
121	123	2
94	105	4
96	103	2
62	153	1
125	125	15
141	142	1
41	42	1
25	26	4
86	116	2
115	115	7
75	75	13
69	69	11
82	82	13
79	84	4
166	167	9
130	131	7
89	137	3
5	71	6
148	149	4
151	152	1
62	80	2
13	14	2
66	129	2
40	164	6
2	14	2
27	27	12
18	23	2
2	155	4
34	35	1
18	19	9
128	129	14
131	133	1
36	36	9
166	168	4
101	102	7
24	106	1
162	165	1
124	135	4
66	67	6
69	72	1
44	44	6
86	87	8
70	70	15
50	147	2
92	138	2
116	117	4
131	132	3
90	117	2
100	101	5
61	61	3
101	139	7
121	121	12
38	39	12
95	142	4
53	157	2
57	57	11
68	68	9
53	54	5
4	10	2
12	40	1
112	134	1
77	86	2
120	121	5
121	161	3
155	156	8
105	106	7
65	72	2
112	112	10
54	55	5
48	50	8
159	159	15
25	25	18
152	155	2
17	18	8
62	152	2
121	162	3
137	137	11
21	22	5
161	163	5
156	168	1
151	170	2
161	164	2
103	139	1
8	19	3
141	154	1
119	119	9
3	3	12
153	159	1
113	113	12
122	124	2
20	25	1
45	100	4
162	166	1
15	52	1
127	129	5
17	130	3
104	104	15
14	15	4
143	145	3
89	139	3
151	158	2
48	49	5
49	54	1
27	28	1
2	135	1
34	34	12
80	81	2
7	69	4
46	47	1
112	133	1
119	136	6
91	92	5
65	130	1
93	95	5
158	158	3
72	73	1
93	137	3
144	144	5
162	163	9
75	96	1
4	36	2
102	102	4
56	62	1
2	25	3
39	39	5
99	101	1
4	4	17
112	113	6
167	168	1
152	158	1
101	103	2
90	136	4
6	7	10
158	159	2
74	118	3
103	103	6
98	103	5
21	25	2
46	55	2
148	151	2
68	126	1
5	5	7
91	91	20
125	130	1
92	93	3
104	105	3
144	146	1
47	48	3
39	41	3
50	51	7
123	125	3
80	107	3
1	58	1
75	140	1
2	73	2
56	69	2
111	112	8
7	70	1
112	114	1
1	45	4
53	56	4
3	134	2
141	145	5
50	55	2
82	85	6
140	141	6
57	61	3
148	154	3
94	95	3
13	27	1
107	108	2
129	130	2
152	154	1
17	68	2
37	38	4
123	127	3
81	84	4
130	132	1
91	138	5
169	170	2
119	135	4
114	116	5
107	107	7
3	4	5
57	147	5
10	52	2
63	64	7
7	16	2
78	86	4
115	133	4
66	69	2
72	80	1
148	159	1
24	25	3
114	115	6
74	75	4
111	133	3
71	120	1
97	98	3
6	8	1
37	137	3
77	78	10
68	69	4
8	16	4
7	164	1
156	160	2
119	121	1
127	128	1
71	72	1
76	98	5
120	135	3
7	53	1
99	100	1
63	71	3
85	93	1
2	15	2
89	91	4
72	123	2
80	150	2
63	72	3
88	90	1
7	7	8
87	116	2
76	97	2
52	53	1
86	113	1
65	66	1
66	150	2
117	118	4
33	35	1
36	38	1
43	44	4
100	102	4
87	89	3
128	128	9
83	108	2
134	136	3
10	11	1
73	120	1
103	104	3
119	120	6
147	153	1
52	143	3
23	45	3
152	153	2
49	55	2
5	72	1
92	94	1
158	169	1
3	5	1
160	161	2
39	42	1
36	39	1
164	165	5
97	119	1
128	133	1
1	11	1
169	169	3
23	24	2
152	160	2
86	115	2
6	69	1
35	131	1
120	134	1
139	141	1
102	103	4
4	64	2
149	150	4
106	107	3
64	72	2
163	170	2
78	99	1
95	116	2
6	9	1
35	36	1
67	68	6
57	63	1
163	165	1
100	104	1
91	115	1
164	168	1
19	24	2
124	127	1
105	152	1
109	110	3
75	76	3
73	74	2
18	162	1
12	41	2
168	169	2
79	101	1
75	98	1
125	126	3
148	158	1
47	56	2
7	35	1
71	131	1
4	11	1
99	102	1
129	131	2
27	43	1
66	72	2
135	136	1
49	50	2
8	63	3
14	21	1
101	138	1
62	63	2
86	112	2
11	13	2
46	104	3
158	168	1
37	99	1
154	155	1
11	27	1
136	137	1
11	16	1
87	115	1
142	144	1
124	128	1
8	12	2
132	136	1
48	52	1
57	58	1
80	109	1
21	24	1
124	132	1
11	14	1
21	23	2
1	72	1
65	69	2
38	165	1
135	165	1
9	10	2
139	154	1
101	104	1
96	136	1
7	8	1
75	118	1
18	49	1
113	142	1
37	41	1
97	120	1
19	20	1
91	139	1
