20	31	2
59	59	10
64	66	3
5	5	3
16	19	1
106	117	1
149	151	2
20	20	4
25	26	2
180	182	5
81	81	5
165	169	2
165	174	6
20	21	2
154	154	4
144	160	2
62	73	3
152	153	3
146	146	6
51	62	1
40	41	4
118	123	5
173	185	1
49	62	1
178	188	9
174	183	1
48	48	2
111	111	7
194	196	2
166	167	3
99	99	2
158	158	2
156	157	2
127	127	1
57	57	3
162	162	3
153	161	2
77	85	4
103	106	3
3	22	3
103	123	1
10	10	8
100	100	3
43	43	4
7	28	4
44	44	1
67	67	4
50	58	1
21	30	2
68	102	2
183	194	1
113	120	3
80	80	3
115	116	3
94	95	2
153	153	1
74	82	3
151	155	2
150	160	3
35	35	2
67	72	2
56	78	2
18	18	3
4	5	2
196	196	3
105	106	3
68	69	1
130	145	3
73	73	3
165	175	5
10	27	2
97	115	1
117	117	3
106	106	1
173	184	3
51	56	1
178	178	3
78	80	1
51	55	2
152	154	1
172	182	1
53	55	1
149	149	5
182	182	9
1	13	2
6	19	1
175	180	1
11	11	2
25	25	2
42	42	2
83	85	1
143	155	7
145	170	1
178	187	1
9	16	4
163	163	2
194	194	1
164	164	1
75	84	1
159	168	2
187	187	6
188	194	1
147	147	3
54	73	5
170	187	3
158	178	5
130	130	4
155	166	1
111	132	5
93	94	4
168	168	3
71	79	4
58	58	1
6	16	2
1	9	1
160	160	1
47	48	2
88	89	2
71	81	2
155	155	6
180	180	2
164	177	7
142	147	1
76	77	2
103	116	1
157	157	3
13	26	2
72	79	3
150	158	3
37	59	2
6	6	2
1	1	4
107	125	1
131	133	1
130	139	3
7	7	1
190	190	5
40	40	2
150	150	4
103	104	1
190	196	2
188	193	2
5	6	1
62	62	3
50	70	2
3	3	1
75	75	3
14	32	7
112	112	1
68	71	2
49	49	1
51	51	4
162	164	2
126	138	1
148	148	1
161	162	1
93	102	1
118	127	3
175	175	1
3	10	4
2	7	1
78	78	4
176	179	4
34	34	2
70	70	4
193	193	5
143	151	1
27	27	1
192	192	3
23	28	1
24	35	1
3	5	2
3	11	1
61	63	1
46	46	1
20	28	1
184	192	1
167	167	2
129	129	1
166	170	1
121	138	3
10	14	2
63	65	1
38	39	1
85	86	1
139	151	3
72	74	3
131	134	2
55	64	1
65	74	1
19	28	2
94	102	1
136	143	4
58	59	1
44	45	2
74	80	1
137	149	2
156	156	2
106	120	2
25	34	2
111	114	2
45	47	1
7	12	3
7	189	1
7	29	2
117	124	3
170	170	1
29	29	5
31	31	1
61	61	1
140	162	1
113	114	1
162	174	1
60	68	2
160	168	2
133	158	3
71	74	2
189	193	1
26	37	1
132	145	2
127	139	2
124	140	2
143	143	1
7	9	1
112	123	2
189	194	1
150	153	1
46	55	1
19	19	3
37	48	2
119	119	1
66	67	2
166	166	1
119	129	1
186	186	1
15	15	1
181	194	2
98	98	1
115	125	1
176	176	1
139	139	2
122	123	1
152	152	3
55	55	1
128	129	1
72	78	1
14	23	1
79	79	1
182	184	1
130	142	1
97	97	1
99	105	2
94	96	1
69	69	1
163	168	1
123	129	1
2	4	1
41	41	1
65	73	1
39	39	1
50	50	1
52	52	1
132	132	1
189	189	3
96	100	1
41	45	2
5	18	1
149	160	1
108	109	1
134	147	1
172	172	1
62	63	2
17	19	1
39	52	2
193	196	2
133	134	1
95	95	1
131	131	1
102	102	2
101	101	1
124	124	1
170	171	1
0	2	1
174	174	3
52	60	1
144	144	2
64	65	1
156	167	1
183	193	1
110	110	1
142	143	1
6	10	1
145	146	1
184	184	1
33	33	1
0	7	1
16	21	1
96	97	1
53	54	1
116	117	1
56	56	1
185	186	1
85	94	1
40	42	1
113	113	1
151	151	1
81	122	1
55	63	1
26	36	1
145	145	1
82	84	1
83	83	1
82	104	1
116	127	1
0	13	1
123	123	1
