45	45	19
47	47	21
5	5	12
50	51	5
1	13	1
20	22	2
11	11	13
1	2	6
41	41	9
12	13	11
14	14	20
43	54	2
35	40	1
19	19	13
32	32	4
53	56	2
46	46	12
12	57	8
54	54	9
51	55	2
33	53	1
13	13	22
48	49	5
37	38	3
0	0	12
10	11	6
21	21	1
8	8	12
10	10	19
35	35	10
47	53	3
20	20	4
3	3	19
11	12	1
47	48	2
48	48	14
38	52	1
29	30	1
55	56	5
57	57	10
44	44	9
7	7	3
17	18	3
31	32	4
4	4	19
5	6	4
2	2	13
12	12	14
51	51	12
9	33	2
58	58	9
53	53	5
0	5	5
55	55	2
28	37	1
52	53	11
56	58	1
30	30	15
40	40	13
14	17	2
36	36	17
12	20	2
17	17	10
1	1	16
20	23	2
41	42	4
8	10	1
30	33	1
49	49	8
2	3	10
35	37	1
15	15	16
50	50	4
38	38	9
51	52	5
3	5	4
23	23	4
24	24	3
9	31	1
29	29	5
39	40	4
13	15	1
34	36	2
36	41	2
18	19	9
44	45	5
39	39	19
14	15	6
19	21	3
18	18	7
32	33	2
7	8	3
53	54	3
15	16	8
0	1	3
10	15	1
28	32	5
42	42	10
2	4	3
34	34	8
21	22	6
31	31	6
3	6	1
38	39	4
4	6	1
9	17	2
36	43	2
35	36	5
39	53	3
5	11	1
13	17	3
52	52	6
12	15	2
30	35	4
33	33	7
37	42	1
9	15	1
6	6	3
45	46	4
12	16	1
16	18	3
10	12	1
40	41	2
34	47	1
19	57	3
11	15	1
2	5	1
28	28	1
10	16	1
11	52	2
18	35	1
16	16	10
55	58	1
11	14	2
43	51	1
19	20	2
19	55	1
6	9	3
36	37	4
36	58	2
22	23	3
13	14	1
54	55	2
51	58	1
29	33	1
42	43	2
43	44	2
33	34	1
21	24	2
9	9	5
51	57	2
51	56	2
52	55	2
48	54	1
34	35	2
56	57	4
37	37	3
13	56	1
14	56	1
46	48	3
32	36	1
17	24	1
36	38	2
21	53	4
29	56	1
11	53	3
8	9	1
16	17	3
19	56	3
0	3	2
39	51	2
8	30	1
4	5	4
41	51	2
30	34	1
33	56	1
50	52	2
28	29	3
31	33	1
21	58	2
19	58	1
45	48	1
35	51	1
23	54	1
7	15	1
44	46	2
43	43	2
1	3	1
42	50	1
41	43	1
51	53	1
6	8	1
15	19	1
