127	127	7
129	129	6
123	123	9
7	7	10
34	34	13
10	10	17
38	38	4
55	55	3
18	117	2
35	38	1
6	101	3
4	6	3
6	6	11
102	102	7
26	26	3
62	62	5
16	16	12
47	47	8
58	58	8
65	65	7
11	15	2
83	83	6
97	100	2
11	11	9
57	113	1
39	42	1
97	97	5
70	70	10
128	128	12
64	64	9
110	111	3
51	51	5
85	85	11
12	13	1
114	114	12
67	67	12
113	113	13
103	109	7
72	74	5
13	13	6
86	87	2
73	73	4
81	81	11
76	77	12
118	118	5
95	95	7
72	75	1
75	76	4
16	17	1
116	117	4
111	111	9
71	75	4
100	100	10
23	23	8
121	121	7
15	106	4
25	25	2
76	76	6
91	91	13
130	130	10
69	78	3
43	43	10
122	122	10
44	44	12
112	112	15
85	87	1
28	41	2
81	82	4
18	18	4
9	10	7
93	94	3
82	86	1
16	134	2
74	75	3
33	33	11
8	8	6
1	1	18
99	99	1
9	9	5
82	82	12
59	111	2
22	24	5
42	42	12
5	5	9
27	94	3
125	126	7
45	45	11
11	16	1
33	97	1
66	66	9
75	75	6
42	43	4
21	22	1
2	2	8
4	5	4
13	14	4
80	80	3
87	88	8
39	39	2
17	70	1
13	127	2
41	42	3
44	95	6
106	106	9
17	59	4
114	130	9
22	22	4
57	57	7
46	46	7
69	69	5
116	116	14
56	57	1
27	27	7
44	45	2
83	84	1
83	91	4
23	24	5
21	21	2
84	84	2
18	65	2
3	3	9
19	80	2
11	13	1
12	15	1
36	36	6
63	65	1
108	108	3
133	133	18
36	38	9
123	124	2
18	70	1
27	30	1
7	129	3
48	101	1
74	74	7
26	27	2
86	86	5
60	120	1
124	124	3
101	102	2
78	78	9
32	32	3
119	119	14
22	23	3
19	129	1
62	63	3
40	40	2
59	59	2
8	17	2
19	82	5
104	106	8
36	101	1
45	46	2
48	48	5
88	89	2
30	32	1
6	128	2
112	113	3
104	105	7
68	68	5
56	56	3
16	59	2
48	131	2
126	126	2
106	109	1
92	92	3
122	127	5
9	61	3
29	30	4
110	110	2
129	130	3
134	134	3
77	77	6
72	72	3
61	61	6
107	107	3
17	17	4
115	130	2
94	95	1
15	110	2
98	98	4
21	80	2
125	125	10
35	35	3
101	101	7
93	93	11
95	96	1
68	69	2
104	104	4
24	24	2
18	81	1
128	129	4
6	23	2
123	126	2
115	115	6
103	103	4
79	79	1
12	12	4
28	94	1
82	83	1
70	71	4
109	109	3
35	36	2
82	115	2
84	85	3
117	118	4
28	29	2
72	73	2
124	125	1
78	80	2
11	12	1
8	9	2
24	43	2
30	30	4
17	134	5
119	120	3
77	78	1
19	20	2
88	88	2
132	133	2
113	114	3
64	86	2
63	64	4
94	94	2
7	57	4
84	86	3
132	132	2
60	60	2
15	16	1
95	97	1
0	1	2
107	108	1
87	87	1
55	132	1
20	92	1
108	110	1
98	100	4
31	31	8
96	96	5
59	60	2
0	0	1
20	20	4
112	114	3
15	15	4
117	117	3
120	121	1
8	71	1
19	19	3
8	47	1
103	104	1
26	94	1
41	41	5
4	99	1
71	72	3
2	44	1
31	40	2
79	80	1
109	110	3
2	95	2
10	47	1
133	134	1
61	62	2
22	78	2
16	120	1
18	77	1
33	34	2
92	93	1
3	45	1
78	79	1
126	127	2
86	92	1
64	69	1
41	43	2
117	129	1
40	98	3
13	124	1
3	99	1
105	108	1
8	70	1
37	37	1
17	80	1
10	60	1
97	98	1
71	71	1
19	63	1
56	131	1
9	60	2
48	133	1
131	131	1
29	29	2
15	108	2
4	133	1
90	90	5
56	132	1
37	38	2
102	103	1
56	114	1
23	129	1
8	45	1
16	102	1
11	108	1
13	106	1
29	38	1
23	43	1
48	55	1
114	116	1
14	124	2
27	28	1
14	14	1
5	131	1
114	115	1
44	76	1
0	27	1
3	43	1
25	44	1
