0	0	11
10	21	4
82	84	4
41	42	12
41	41	5
60	62	4
129	130	2
79	79	12
85	86	8
109	109	9
54	64	4
111	125	3
19	53	3
88	88	9
54	54	8
30	30	17
84	84	15
110	111	7
7	7	9
72	72	5
58	59	3
113	114	11
70	84	4
114	115	12
18	23	1
126	126	8
111	123	2
46	46	9
51	51	8
93	93	10
39	40	1
69	71	1
86	86	14
60	60	10
61	85	5
80	90	4
75	108	2
90	90	15
16	16	5
48	48	18
71	71	10
97	108	3
62	127	1
2	4	4
68	74	6
45	52	4
60	67	2
42	42	17
96	97	5
63	63	10
77	78	5
2	9	2
50	66	2
54	55	10
29	33	2
91	103	4
98	98	12
59	59	25
40	40	14
78	81	6
49	60	4
78	78	19
58	58	11
11	11	18
73	74	4
39	39	9
110	110	7
111	111	17
44	44	12
65	65	8
29	66	5
43	43	14
82	83	1
114	114	12
15	15	4
3	3	6
70	71	2
22	60	2
11	12	4
47	47	18
1	1	7
62	62	2
124	129	1
121	122	5
15	56	2
43	44	2
40	47	9
120	120	11
53	54	3
97	97	7
59	61	3
99	99	10
99	100	4
101	101	2
66	67	2
92	92	11
119	120	2
33	43	1
27	27	8
23	27	2
22	24	1
68	68	12
70	73	6
76	76	13
23	88	6
12	12	5
75	77	1
115	116	3
23	23	9
52	69	1
98	99	5
112	125	3
104	104	11
10	10	7
125	126	2
29	29	10
125	125	17
126	127	4
28	80	5
92	95	3
113	113	11
19	19	10
125	127	2
77	97	1
4	4	3
117	117	10
2	2	7
41	127	2
120	121	9
11	31	2
76	77	3
44	70	4
112	112	11
90	99	1
115	130	1
27	58	1
61	61	5
77	77	7
115	117	2
31	31	4
86	87	11
4	101	4
74	74	6
31	67	5
74	75	3
100	100	7
68	76	3
55	56	2
116	116	6
89	89	12
26	31	3
95	95	16
102	103	2
56	61	3
57	60	6
18	18	7
105	105	21
92	99	3
63	64	3
107	108	1
111	119	2
78	80	3
44	126	1
45	45	12
106	106	7
78	97	5
46	62	6
6	6	9
1	16	3
80	81	10
127	128	9
10	53	2
132	132	4
45	46	5
118	118	3
116	130	2
28	28	19
50	50	10
94	94	8
92	93	3
77	101	3
78	79	10
69	116	2
38	39	6
86	112	2
72	73	5
131	132	1
85	85	14
81	81	16
50	59	1
88	90	7
19	20	2
117	129	2
14	15	6
75	76	5
123	123	4
14	23	2
96	132	5
117	118	2
1	5	1
53	53	2
25	26	3
69	69	7
50	58	3
133	133	6
128	128	5
55	55	4
22	23	3
15	30	4
25	25	5
87	96	5
70	70	6
5	16	2
0	3	4
22	34	4
96	96	14
5	5	6
9	9	2
107	107	8
91	91	2
81	83	3
119	119	3
114	117	4
70	72	3
71	76	2
91	93	4
16	22	4
47	48	6
72	83	2
61	62	6
56	57	1
42	45	1
73	76	5
29	67	1
54	56	1
91	92	1
15	26	1
11	14	2
83	83	5
102	104	2
62	126	4
67	67	2
57	57	9
33	34	7
26	26	4
57	58	3
106	108	1
20	20	6
10	11	3
49	54	1
21	21	3
31	49	2
71	86	1
96	108	1
124	127	5
130	130	1
25	83	2
19	31	5
103	103	5
88	105	1
26	83	1
69	96	2
61	82	2
14	56	1
22	59	1
22	98	4
79	80	1
92	104	4
14	14	8
81	95	3
52	52	2
39	45	1
66	66	9
44	55	1
103	104	3
82	82	5
31	66	7
2	8	2
13	128	1
15	18	1
108	108	7
128	133	1
65	67	3
121	121	6
129	129	2
5	28	2
77	86	2
73	73	2
3	4	3
93	99	3
47	72	1
33	33	3
93	94	4
101	129	6
47	86	1
32	41	1
67	68	1
122	122	6
75	75	2
9	53	1
104	105	2
90	92	1
3	117	2
120	129	2
124	124	10
129	131	2
1	14	2
83	84	2
75	85	2
11	27	2
0	14	5
117	119	2
22	22	1
23	24	2
29	32	3
71	108	2
50	51	2
67	83	2
42	46	2
104	107	8
56	56	3
64	64	4
72	74	2
11	21	2
124	125	1
119	131	1
0	1	2
1	15	2
80	80	3
108	109	3
21	22	2
106	107	2
60	61	3
64	65	3
42	43	2
13	13	3
93	107	2
105	106	2
62	63	1
9	52	2
92	101	1
84	90	1
4	5	2
32	33	2
94	108	1
6	53	2
48	49	2
68	69	1
29	49	1
29	30	1
53	57	1
8	10	3
96	98	2
31	32	4
66	116	1
18	31	2
88	106	1
87	87	4
115	115	3
20	58	3
69	81	3
95	97	1
96	109	2
128	130	3
56	63	3
2	3	1
12	13	2
5	15	2
28	68	2
53	55	5
84	85	2
116	117	2
33	46	1
75	101	1
24	24	2
57	68	1
19	56	2
17	17	1
127	127	3
18	19	1
104	109	2
131	131	3
61	70	1
66	71	1
103	111	1
51	53	1
40	41	1
27	29	1
3	126	1
97	98	2
101	112	3
102	112	1
117	128	1
48	86	1
122	123	1
91	99	2
64	69	1
96	107	1
49	49	2
24	97	1
20	22	1
14	16	1
77	102	1
102	105	1
49	51	1
1	10	1
33	41	2
54	69	2
58	65	1
101	102	2
79	113	2
99	109	1
85	96	1
57	69	1
3	13	1
124	131	1
116	132	1
24	54	1
47	85	1
78	87	1
96	118	1
27	49	1
70	81	2
57	65	1
113	123	1
74	85	1
45	55	1
123	125	1
69	98	1
32	32	1
21	24	2
57	67	1
125	129	1
61	65	1
