149	165	1
169	184	2
20	21	4
74	76	3
63	63	6
85	85	1
74	75	2
174	174	7
157	158	3
134	135	5
42	42	4
109	109	3
107	108	3
187	187	8
157	177	1
30	31	3
59	60	1
7	17	2
79	86	4
11	12	4
9	17	1
177	177	8
148	148	11
15	17	2
87	96	4
53	54	9
59	59	4
71	73	1
6	6	4
31	32	1
5	5	5
98	98	2
121	122	6
100	101	10
144	167	1
88	89	4
101	102	2
114	114	5
33	33	1
185	185	3
56	58	5
104	104	6
62	63	1
31	31	1
4	17	3
106	106	5
159	159	1
23	191	2
66	67	4
169	169	8
172	172	1
62	62	9
9	196	2
164	177	1
122	128	1
194	194	2
98	103	1
147	147	14
69	69	7
78	79	7
151	151	1
37	37	4
132	132	2
3	3	1
132	164	2
83	83	4
173	177	3
171	172	5
131	163	4
22	22	2
38	38	2
42	45	4
130	130	5
19	19	8
11	11	4
179	180	2
94	94	6
64	119	6
80	80	6
87	87	6
101	108	3
125	125	3
16	18	2
84	98	2
24	26	2
110	111	4
120	195	2
99	99	2
8	17	2
197	197	1
111	111	1
143	143	2
12	107	2
123	123	4
176	178	4
55	58	1
126	129	4
95	95	1
86	87	1
150	151	4
4	4	5
64	65	3
158	160	2
25	25	4
103	103	2
7	7	4
4	26	3
115	137	1
45	73	3
53	56	4
140	164	3
157	157	2
75	75	1
132	139	6
170	171	4
138	157	2
72	72	3
117	196	2
122	123	1
17	19	2
161	161	2
56	56	3
38	46	3
133	133	6
51	51	4
139	139	2
43	43	1
167	168	4
9	119	1
181	181	6
131	131	3
36	36	5
34	34	3
78	78	5
157	176	1
135	135	2
125	131	1
169	195	2
196	197	4
55	55	3
173	176	3
182	191	1
71	71	1
149	150	2
85	114	4
76	77	1
141	141	2
58	58	2
105	113	1
138	139	2
44	44	3
54	54	2
186	186	1
41	72	1
118	118	11
29	29	4
140	178	2
50	50	1
131	139	5
153	154	2
191	191	3
171	171	8
14	14	1
136	141	1
183	183	1
8	8	1
105	106	2
122	122	1
175	175	3
41	41	1
7	19	1
143	188	1
189	193	1
104	105	4
96	96	5
60	61	1
39	41	2
52	52	4
111	175	3
30	30	1
141	173	1
6	26	3
151	152	1
131	148	1
68	68	2
39	40	3
34	36	3
5	6	1
130	148	1
30	76	1
20	20	2
167	167	2
109	111	3
119	181	2
1	1	5
134	141	2
139	147	1
48	48	1
156	156	5
33	35	1
79	80	1
61	62	1
10	10	1
158	161	3
146	187	2
28	28	5
126	138	2
65	67	2
2	2	1
147	187	3
114	115	1
14	118	2
36	37	1
82	106	2
22	23	2
16	17	1
188	193	1
23	34	1
189	192	1
102	102	1
117	118	4
74	74	4
188	189	1
100	102	1
195	195	1
181	182	1
79	87	3
27	27	1
80	114	1
29	37	1
190	190	1
111	136	2
67	68	1
179	179	1
180	180	3
17	17	2
145	145	4
9	9	3
24	24	1
173	173	2
83	85	2
20	179	1
21	21	3
41	47	1
76	76	2
135	142	1
14	15	1
158	158	1
166	166	2
79	79	4
192	192	4
184	185	3
50	51	5
23	24	4
5	15	4
57	57	1
103	106	2
82	83	3
14	16	1
51	52	1
193	194	1
86	86	3
144	144	1
108	108	2
147	167	2
10	15	1
72	73	1
0	0	2
26	26	1
135	141	1
163	164	1
98	104	1
28	37	2
29	31	1
117	117	3
110	110	1
124	124	3
113	113	2
168	168	2
118	197	1
112	112	1
154	154	1
54	78	1
94	96	3
40	73	2
190	191	1
52	53	1
193	193	1
120	121	3
47	48	4
125	155	2
131	133	1
133	139	2
22	180	1
12	12	2
117	120	1
40	40	2
153	153	1
182	182	1
12	87	1
117	119	1
24	190	1
124	126	1
189	189	1
88	88	2
139	140	1
137	137	1
81	86	1
132	133	2
194	195	1
54	58	1
115	120	1
32	32	1
120	120	1
182	189	1
22	24	1
138	138	1
34	191	1
39	53	1
142	170	1
178	179	1
108	136	1
