41	42	4
69	70	2
41	49	3
38	38	9
61	91	6
82	82	8
42	42	5
78	78	8
68	68	23
81	82	1
83	86	1
22	24	5
90	91	8
40	41	8
59	60	5
104	104	10
73	73	12
21	21	13
90	90	11
34	89	4
39	39	7
50	50	8
71	71	7
94	95	7
34	36	7
52	52	12
46	77	1
89	89	9
65	65	13
79	80	2
97	97	5
84	85	2
81	81	13
62	62	15
84	84	12
95	95	11
58	58	13
99	99	7
37	38	6
82	83	14
69	69	7
94	94	15
66	66	3
66	68	3
67	67	8
103	103	13
31	31	4
22	22	13
37	37	27
44	45	8
58	70	3
100	100	7
55	55	16
98	98	11
93	93	6
49	80	4
72	72	12
57	58	4
35	94	1
36	36	15
86	86	7
89	90	6
27	27	9
33	34	6
98	99	5
29	79	1
66	67	4
29	30	5
92	92	15
60	60	12
107	107	3
28	28	7
34	34	20
85	85	16
29	31	5
54	54	7
87	87	13
31	33	2
101	102	1
37	54	1
26	28	3
34	37	1
64	66	3
61	61	12
64	64	15
93	96	2
77	77	5
88	90	6
73	74	2
40	40	3
25	25	14
24	24	11
31	32	4
20	20	6
51	52	6
60	70	3
22	88	4
43	43	5
23	23	10
100	105	2
72	93	1
41	43	2
64	65	8
76	77	3
73	76	1
106	106	6
96	96	4
70	70	7
61	63	6
75	75	12
58	75	2
63	63	8
38	41	2
41	41	3
101	101	9
83	90	2
103	104	11
83	84	3
88	96	3
61	62	1
33	36	2
41	44	3
71	74	2
26	26	6
80	81	7
47	48	3
79	79	8
36	37	2
70	94	3
23	24	2
33	33	9
91	92	5
35	36	4
67	78	1
30	30	7
53	62	2
105	105	2
59	59	6
57	57	9
53	53	11
28	29	2
74	78	1
36	85	4
92	93	2
65	66	8
93	94	4
71	72	7
48	48	3
46	46	4
72	74	2
88	88	10
46	74	1
29	29	12
104	105	5
80	87	1
88	89	6
55	56	3
28	47	1
50	74	2
49	49	14
51	82	2
90	92	1
100	102	1
57	77	2
26	27	3
80	86	4
49	53	1
52	54	3
53	54	5
83	83	8
35	35	3
21	22	7
46	48	5
76	76	14
97	98	7
95	96	2
71	77	3
56	56	7
91	91	4
25	26	3
54	57	3
51	83	2
24	34	5
69	71	3
42	43	2
68	69	7
39	44	1
40	42	3
54	55	1
45	45	4
62	93	4
51	51	3
74	74	4
60	61	1
32	32	12
55	57	3
69	72	1
66	97	2
60	77	1
22	23	2
30	53	3
72	73	1
85	86	3
50	91	1
89	97	1
30	33	1
24	27	1
46	106	3
66	100	2
55	62	3
99	100	2
31	34	5
20	56	1
20	29	2
69	78	1
70	71	2
74	75	4
45	48	2
83	87	3
50	61	2
51	75	4
92	94	1
39	41	3
55	64	1
21	28	2
31	35	2
67	70	2
33	80	1
30	52	2
71	76	1
33	83	3
51	76	1
102	102	2
75	76	1
63	104	1
32	34	1
49	77	1
50	55	1
86	87	1
84	86	1
93	102	2
20	65	1
49	50	2
43	44	1
102	103	1
67	79	1
57	59	1
53	55	1
79	90	1
101	104	1
62	64	1
86	92	1
58	59	1
32	36	1
45	46	1
48	54	1
31	45	1
45	49	1
70	73	2
29	46	1
32	82	1
44	44	2
78	79	1
46	47	1
