3	4	11
38	38	34
4	4	36
77	77	47
8	8	38
13	13	20
24	24	20
33	33	38
62	62	32
29	29	33
26	26	31
35	35	45
43	43	40
67	67	32
20	20	40
18	19	13
75	75	7
69	69	17
63	63	24
56	56	22
45	45	27
76	76	28
49	50	2
57	58	11
30	31	17
23	23	32
43	44	3
33	46	3
43	48	3
66	66	31
8	66	5
70	70	19
52	52	43
5	5	28
3	3	42
73	73	33
31	38	5
27	27	37
50	52	6
52	53	18
28	28	33
52	54	4
25	25	33
54	54	33
1	2	27
61	61	42
32	34	9
50	73	4
65	66	16
49	70	1
25	27	3
32	32	23
70	71	7
53	56	3
48	48	25
75	76	3
2	4	6
7	11	4
53	53	30
69	70	15
36	36	38
30	30	28
41	41	42
25	26	10
34	37	14
55	55	32
68	70	7
51	51	14
19	19	15
18	18	9
11	11	32
20	28	4
26	58	1
56	68	5
5	6	16
47	77	3
67	68	4
76	77	12
49	51	5
22	23	9
56	59	3
55	56	8
54	73	4
64	64	22
22	25	3
0	18	5
2	5	4
12	13	11
42	43	3
9	10	10
19	20	5
49	49	30
38	39	10
47	48	9
2	2	35
21	47	1
32	33	6
42	49	3
24	51	2
59	59	50
46	47	9
39	40	24
50	50	16
58	59	13
54	69	4
5	8	7
53	54	17
68	68	26
68	69	9
72	72	14
10	11	12
4	9	9
7	7	14
49	54	2
74	74	14
64	65	16
47	47	49
14	45	4
71	71	24
0	77	4
61	62	19
60	60	40
64	67	3
73	75	3
21	22	9
23	71	4
11	57	2
48	57	4
42	57	4
46	46	27
50	51	5
72	76	3
22	22	32
7	8	5
43	57	4
21	74	1
56	57	6
1	1	29
65	65	34
21	21	27
41	75	3
4	10	2
37	37	31
10	10	9
51	73	4
71	74	4
58	58	24
12	12	11
32	42	3
4	8	2
19	28	2
23	61	1
31	31	7
57	57	25
62	63	25
53	73	1
3	5	13
51	53	4
44	44	29
54	55	12
14	14	3
9	54	2
39	39	36
0	0	22
6	11	6
42	42	18
26	65	1
72	74	5
60	61	7
37	38	8
24	25	2
31	54	3
6	7	8
23	24	11
31	32	4
8	9	10
24	26	7
56	66	2
34	34	23
28	55	1
12	14	3
31	47	2
40	40	32
20	21	6
9	9	17
19	39	2
9	55	3
6	10	3
1	52	4
6	6	15
53	55	4
45	59	2
24	43	3
28	33	4
29	30	8
7	10	5
23	72	2
57	77	3
48	49	8
33	34	8
56	77	3
36	37	21
47	56	2
49	73	3
13	55	1
22	70	1
2	58	3
32	35	4
66	69	2
20	48	5
13	14	9
9	12	6
18	26	1
19	74	3
1	4	3
1	3	4
67	73	2
26	61	1
22	69	1
30	50	1
54	70	2
63	65	3
57	72	7
8	18	4
48	73	5
72	73	13
43	74	5
27	29	5
64	66	4
51	52	4
26	69	1
41	42	9
7	9	1
37	39	6
44	48	3
43	76	2
1	35	2
18	43	2
55	72	5
25	72	1
35	37	6
8	10	3
62	67	6
57	76	3
71	72	13
27	28	1
40	63	3
19	33	2
29	31	6
3	9	6
48	56	1
63	64	7
13	56	2
0	2	3
24	71	2
29	48	2
34	39	1
11	12	10
22	28	1
18	72	1
10	14	2
66	67	5
21	23	1
28	29	5
2	3	3
77	78	1
20	22	5
22	24	2
48	50	1
49	52	2
19	47	2
45	46	8
30	49	2
8	67	7
27	30	4
31	34	2
64	70	2
26	28	2
35	36	10
52	72	3
67	72	2
23	60	2
4	5	9
34	74	3
41	73	2
1	74	1
26	27	3
34	35	6
5	11	2
78	78	1
14	26	3
52	55	2
37	61	3
34	38	2
73	74	1
74	77	2
46	48	5
51	55	2
28	48	3
39	58	1
10	58	2
27	75	3
13	57	3
26	32	2
59	60	1
53	70	2
0	55	4
34	36	2
3	8	3
9	11	4
1	5	1
61	66	1
52	71	1
25	59	1
38	62	2
65	69	2
66	68	1
3	10	5
13	47	1
23	70	2
33	61	1
38	61	1
5	9	4
6	57	1
55	77	1
5	7	1
19	73	1
29	49	1
19	48	2
21	46	1
32	49	1
39	41	1
24	59	4
20	47	3
0	45	1
33	39	2
25	48	1
44	45	1
49	77	2
45	60	1
44	57	3
12	56	1
45	67	2
6	29	2
51	71	1
40	60	1
29	32	2
6	65	1
27	58	1
25	32	1
71	73	1
47	49	1
50	53	1
19	77	1
66	72	1
44	77	1
61	67	1
55	73	1
28	34	1
66	73	1
0	5	1
20	59	1
22	68	1
26	55	2
28	75	1
20	60	2
32	69	1
39	62	1
72	77	2
32	38	1
14	57	1
18	59	1
36	40	1
9	13	1
