170	170	4
104	104	6
122	127	2
5	5	3
64	65	3
25	25	6
140	141	4
67	67	5
43	67	1
28	30	1
159	159	6
108	108	2
173	173	2
64	64	4
128	128	4
39	41	3
93	94	3
80	80	5
17	17	4
61	77	4
7	8	2
90	91	2
77	78	2
109	109	4
15	15	4
166	166	5
38	42	2
68	81	1
10	14	7
93	93	4
144	146	1
68	93	2
127	127	5
18	18	5
81	81	5
154	156	2
123	123	6
72	73	1
151	151	3
50	74	1
62	84	1
117	118	6
113	114	2
35	35	5
34	34	6
154	154	8
101	101	3
2	2	8
139	142	3
97	97	4
14	14	6
92	128	1
59	59	5
146	146	2
76	76	6
155	155	3
94	94	3
83	85	2
3	3	3
84	85	1
34	35	1
80	83	1
110	124	1
106	106	1
49	50	1
144	145	3
143	143	3
92	94	3
103	112	2
150	166	5
76	89	1
18	19	4
85	87	1
114	114	5
137	138	4
84	84	3
78	94	2
50	58	1
10	10	1
118	118	2
142	144	1
168	179	8
160	162	4
160	160	3
29	30	1
41	41	5
14	17	2
174	175	1
33	33	2
150	151	3
9	9	2
171	172	3
40	133	3
20	20	2
94	95	2
12	12	3
72	72	8
7	7	5
21	25	1
134	151	1
148	148	1
38	38	3
78	79	3
121	140	2
13	15	1
132	132	3
27	27	5
54	65	1
32	34	2
134	135	1
99	101	3
2	29	1
31	34	2
86	90	4
17	23	4
92	93	2
121	122	1
37	37	2
79	95	2
137	137	1
10	11	8
136	138	3
28	28	3
118	119	2
50	51	3
30	30	2
8	9	3
82	82	2
144	144	1
158	171	2
66	66	6
158	158	2
62	62	4
130	133	1
121	121	1
14	15	1
142	142	3
39	40	3
96	106	2
97	100	1
139	148	2
131	131	3
172	172	2
97	98	1
149	149	5
154	157	3
29	29	7
43	43	4
130	130	5
133	133	1
97	129	1
153	153	9
141	156	3
33	44	3
111	111	3
165	165	1
59	61	3
166	167	1
17	18	2
71	71	3
40	41	2
79	80	2
6	23	2
11	11	1
157	157	3
153	156	3
117	117	1
51	59	1
36	36	2
3	16	2
110	112	2
17	132	2
39	39	6
32	32	1
161	162	1
4	4	3
98	98	6
130	135	2
56	56	3
155	177	1
178	178	1
163	164	2
92	92	3
85	85	1
9	15	2
129	140	1
104	110	2
65	65	5
42	42	1
179	179	2
73	73	3
99	99	4
45	45	2
145	145	1
161	161	4
180	180	1
24	24	2
9	26	3
17	138	1
88	88	1
138	138	2
138	149	3
13	14	1
139	150	2
6	8	1
100	105	3
164	165	2
79	79	2
73	74	2
15	30	2
92	95	2
91	92	2
13	19	1
106	172	1
30	34	1
53	53	3
113	127	1
88	89	2
77	81	1
140	140	3
55	71	1
112	112	1
155	176	1
43	44	1
25	36	1
37	41	1
51	52	3
36	37	2
105	105	2
154	177	1
136	151	1
102	118	2
172	178	1
26	26	1
167	178	1
62	63	1
60	60	1
171	173	1
58	59	1
112	116	1
23	34	2
126	126	1
74	87	2
102	102	2
96	105	1
2	3	2
152	152	2
157	159	1
115	115	1
139	141	1
107	107	1
1	7	1
141	153	1
114	115	1
167	177	1
22	22	1
111	112	2
58	58	2
121	135	1
146	147	1
167	176	1
17	136	1
63	63	1
88	101	1
26	36	1
177	178	1
110	110	1
78	78	1
172	179	1
169	169	1
174	179	1
81	88	1
155	168	1
156	157	2
166	168	1
160	171	1
148	163	1
163	163	1
142	143	1
102	103	1
36	38	1
95	95	1
42	67	1
21	134	1
152	160	1
57	57	1
16	16	1
21	151	1
61	78	1
167	167	1
1	4	1
147	147	1
91	91	1
95	106	1
108	120	1
142	153	1
52	53	1
19	20	1
51	65	1
23	23	1
