144	144	2
72	72	4
139	139	2
63	64	11
74	75	3
8	9	3
121	122	1
148	148	5
121	127	1
145	146	2
101	102	2
104	106	6
116	116	3
80	82	2
154	154	9
92	92	1
79	79	8
54	54	3
71	75	4
27	33	3
28	28	7
134	134	2
40	40	4
124	124	3
112	112	5
65	65	2
70	70	5
132	132	5
68	98	4
110	110	4
34	34	9
27	27	3
58	58	2
42	43	1
49	50	3
2	3	2
39	39	7
63	63	3
26	26	1
113	114	3
114	114	7
131	131	2
68	69	2
64	64	5
62	64	1
13	14	2
145	145	2
118	118	6
29	29	6
75	76	5
76	78	1
33	33	5
135	135	4
8	11	2
10	30	2
70	75	2
47	47	5
44	44	2
54	56	4
42	42	1
147	148	2
141	141	5
119	120	5
126	126	1
111	111	3
86	86	3
130	131	1
110	111	3
48	48	2
39	69	1
128	130	1
32	32	3
31	31	3
21	21	5
16	16	3
123	124	2
67	67	2
15	16	2
51	51	6
71	71	3
122	123	4
103	152	2
19	19	1
126	127	2
36	74	2
125	152	1
129	129	6
142	144	3
100	101	4
14	15	1
127	127	9
76	76	3
68	68	4
30	37	1
45	46	3
35	74	1
128	131	1
142	142	4
40	71	1
108	108	1
13	13	5
43	43	3
19	24	4
53	53	1
2	2	3
30	31	2
25	26	5
54	55	2
153	153	2
147	150	1
76	77	6
65	68	4
40	73	3
101	101	4
31	33	1
124	130	1
18	19	1
81	81	2
125	128	1
67	69	1
87	87	6
64	67	1
12	13	2
56	63	1
125	130	1
96	96	1
62	62	4
41	101	1
98	98	5
143	144	4
63	65	1
138	138	2
75	75	3
37	37	1
126	128	2
45	45	2
15	15	1
25	27	1
49	49	2
85	119	1
117	117	2
94	95	1
113	113	3
6	6	1
35	37	3
149	149	1
109	110	4
150	154	1
77	77	2
151	151	2
66	75	1
36	64	2
104	105	2
50	50	2
92	93	1
130	130	2
30	30	2
14	40	1
106	107	1
108	109	2
10	37	3
96	103	2
46	47	1
121	121	1
137	137	2
6	35	2
28	29	2
78	78	1
73	73	1
41	42	2
7	7	2
87	88	2
25	25	2
9	9	2
88	88	1
2	13	2
3	4	1
4	6	2
136	136	2
40	41	3
84	84	3
95	107	2
55	55	1
67	73	1
17	17	2
47	48	2
104	107	2
10	10	3
12	14	3
22	23	1
143	143	5
139	152	2
16	17	1
11	11	1
147	151	2
87	122	1
21	24	1
44	45	1
105	106	4
3	6	1
134	135	1
4	5	1
4	4	1
100	100	3
9	10	1
120	120	1
125	125	1
38	38	1
115	115	1
36	36	1
65	66	2
105	105	1
86	122	1
64	93	1
20	21	1
81	125	1
148	154	1
66	66	1
61	63	2
31	34	3
8	8	1
107	107	1
94	107	1
20	20	1
95	95	1
88	118	1
104	117	1
