67	67	10
89	89	5
62	62	13
83	83	6
85	86	5
76	77	1
68	68	8
37	60	1
75	75	11
41	52	1
95	97	2
45	45	3
48	51	1
47	61	5
64	64	7
101	101	7
99	100	5
67	68	7
70	70	14
69	70	1
92	97	2
95	100	1
81	98	2
48	48	9
46	48	1
49	50	7
59	60	1
93	96	2
76	78	1
39	39	3
86	87	4
97	97	5
85	85	4
83	88	1
26	26	3
79	97	1
59	59	2
73	74	3
79	81	2
88	88	6
33	33	4
69	81	2
50	51	2
87	87	12
24	40	1
63	63	11
34	34	4
60	60	10
27	27	7
76	76	8
90	90	4
66	71	3
70	76	1
54	54	3
70	72	1
74	75	3
42	42	2
51	51	1
41	41	6
100	100	6
60	72	6
77	80	3
77	77	5
72	82	1
81	81	9
69	69	9
49	64	1
61	63	2
80	80	5
29	29	3
91	91	5
70	78	3
59	83	1
68	82	2
42	93	2
36	37	3
78	78	2
72	72	8
23	23	3
36	53	2
56	57	2
65	65	3
92	92	3
66	66	7
86	86	10
38	73	2
50	52	6
53	53	1
83	89	2
93	93	8
61	61	7
52	52	7
74	74	3
64	65	4
77	91	5
83	84	1
52	79	1
73	73	6
80	81	3
63	85	2
26	35	4
71	71	7
92	94	2
36	36	2
45	48	2
79	79	5
43	48	1
57	57	5
25	25	2
35	35	7
46	77	1
92	98	1
62	64	1
73	81	1
27	28	1
71	72	9
44	44	3
57	63	4
28	28	3
73	89	4
57	59	3
34	36	1
34	42	1
58	58	4
63	64	4
87	88	1
102	102	3
69	78	2
42	57	1
66	67	1
42	49	3
38	38	1
35	44	1
43	43	3
22	23	2
62	74	2
35	39	3
67	81	3
84	84	2
91	98	2
43	98	2
96	96	2
81	82	1
99	99	1
81	95	1
80	88	1
43	96	1
49	51	1
54	56	2
50	50	3
69	80	2
83	99	1
84	85	1
71	78	2
94	95	2
57	58	3
78	81	1
31	47	2
65	70	2
51	52	3
30	48	1
90	101	1
38	39	3
95	95	1
94	94	2
33	34	1
20	22	1
44	45	2
24	25	2
65	79	1
27	39	1
34	35	1
20	25	2
57	61	1
65	66	2
69	86	2
20	28	1
68	72	1
36	49	1
70	75	1
34	38	1
52	66	1
62	65	1
25	78	1
93	102	1
61	62	1
98	98	1
31	31	1
70	77	1
65	67	1
68	79	1
27	38	1
88	100	1
49	79	1
47	52	1
74	84	1
