4	4	6
83	83	6
94	95	1
85	100	4
13	13	6
108	108	3
115	115	2
8	11	3
36	36	4
79	80	3
119	119	2
33	33	4
82	82	7
15	15	10
12	12	8
88	88	5
118	119	10
109	109	4
5	6	1
27	27	9
106	106	4
20	21	2
2	100	2
0	0	7
87	107	2
72	72	3
75	77	4
30	32	7
16	16	10
117	122	2
121	121	7
87	87	12
85	89	2
27	30	2
104	104	12
25	25	10
29	29	1
6	6	6
1	97	1
85	85	2
133	133	8
128	128	15
94	96	2
139	139	3
12	16	1
84	85	1
135	136	4
25	26	3
31	31	7
74	75	5
95	96	1
87	109	4
7	27	1
7	8	2
2	4	4
71	82	2
88	116	1
100	100	7
13	14	3
127	127	4
80	80	11
17	18	1
11	11	3
114	114	3
77	81	3
9	28	4
124	124	3
95	95	12
86	107	1
110	110	12
103	105	1
140	140	6
38	38	6
7	20	7
26	26	5
86	96	2
12	13	4
92	93	1
138	139	3
71	71	2
76	76	7
84	84	5
74	74	2
131	131	2
98	98	3
79	79	3
120	123	5
94	94	5
105	108	2
111	111	2
92	92	3
120	120	6
14	14	9
20	20	6
2	2	3
3	3	2
78	78	6
77	77	2
102	102	4
126	126	7
19	20	7
101	103	2
81	81	3
9	9	4
122	122	7
93	93	3
28	28	8
83	118	6
28	31	2
2	12	5
21	27	3
83	121	8
13	31	3
38	39	2
10	27	3
90	90	5
37	37	3
1	14	3
19	19	2
5	5	7
76	94	4
117	117	4
2	3	1
34	34	4
35	127	2
10	28	1
3	28	1
105	106	1
3	25	1
86	88	1
0	4	3
110	111	4
30	30	4
17	79	2
128	131	1
92	125	1
117	120	1
105	105	2
27	38	3
136	136	2
113	113	3
134	134	6
32	32	3
12	31	1
36	125	1
34	35	4
97	99	1
3	15	4
93	94	1
27	28	1
125	125	2
1	1	3
111	113	2
3	24	2
81	82	1
83	84	1
105	107	1
23	24	2
126	127	2
91	91	2
101	101	1
75	75	1
74	76	1
12	27	1
86	86	4
136	138	1
137	137	4
12	14	1
115	116	1
11	12	1
31	32	2
35	35	4
129	129	4
89	103	1
17	17	1
38	100	2
113	118	1
125	126	1
138	138	2
18	18	2
82	108	1
24	26	1
6	19	1
116	116	1
24	24	2
22	22	1
26	27	2
35	97	1
112	119	1
28	29	2
112	112	1
7	7	1
35	99	1
12	28	1
8	8	1
16	26	2
24	28	1
132	132	1
21	21	1
91	95	1
112	113	1
0	3	1
108	114	1
7	26	1
97	97	1
134	135	1
87	102	1
3	4	1
