189	189	15
21	21	11
210	210	3
200	201	5
204	225	4
19	20	1
227	227	10
231	231	9
105	105	8
26	26	9
4	19	3
97	97	3
225	225	5
171	171	8
51	51	12
40	45	4
12	72	9
49	49	15
249	249	4
119	119	14
182	182	12
55	55	9
154	160	2
172	175	3
77	77	12
187	187	8
156	156	10
22	24	5
221	221	18
169	169	22
81	82	4
43	43	14
155	155	14
208	223	2
7	7	11
175	175	9
153	156	3
115	115	2
209	225	4
197	198	2
106	106	4
245	245	9
27	28	1
172	172	16
179	179	9
159	160	2
169	172	2
22	22	6
165	166	5
232	232	11
28	28	15
243	243	7
42	42	7
189	190	1
31	31	12
63	65	3
174	183	2
46	46	6
163	163	10
34	34	17
191	191	2
85	85	20
40	40	16
246	246	4
212	212	13
15	15	8
1	161	2
73	73	10
14	14	5
165	165	6
43	207	5
223	223	8
151	151	17
192	192	6
107	107	9
161	161	4
117	117	17
29	29	14
227	230	3
14	15	4
88	90	2
102	102	9
20	20	25
8	31	7
66	68	2
152	152	5
196	196	2
82	89	1
118	147	2
232	233	1
185	194	4
113	113	12
69	69	19
41	41	10
181	181	13
6	38	2
242	242	11
69	71	5
176	177	2
35	38	2
218	219	8
76	76	11
211	211	16
4	4	2
204	204	11
75	75	7
52	54	3
88	88	6
222	222	8
18	18	7
147	147	4
171	229	3
8	8	16
244	244	16
32	33	3
32	32	10
206	206	4
101	102	9
86	96	2
166	166	9
77	89	3
47	48	9
169	191	6
195	195	7
18	58	3
108	108	5
238	238	12
70	70	2
243	247	2
222	240	1
224	225	1
112	116	3
201	201	16
36	36	19
35	42	4
196	197	3
24	53	2
233	233	7
180	182	3
207	207	12
25	53	4
181	191	4
215	216	5
67	67	9
54	54	16
203	203	10
228	228	10
154	155	1
94	145	3
56	56	9
190	199	1
199	200	5
24	24	11
34	48	1
55	56	5
13	13	3
37	37	13
168	169	3
184	184	8
59	66	2
101	101	7
82	82	3
84	84	7
35	35	7
51	224	3
79	98	2
90	90	8
53	53	8
33	38	3
14	18	4
164	164	12
198	199	5
241	241	13
225	229	1
89	89	8
190	190	7
167	167	8
220	220	9
47	47	12
199	199	4
50	203	3
29	31	3
162	162	7
209	209	7
175	176	8
181	182	4
205	230	1
25	25	10
12	12	3
45	45	10
78	79	6
89	91	2
39	56	1
201	202	1
3	3	4
60	60	2
99	171	2
31	32	2
73	74	3
229	229	5
216	224	4
180	191	1
185	240	7
215	215	8
112	114	6
185	192	5
157	157	4
66	66	18
171	175	3
17	17	9
97	98	2
6	6	6
111	111	5
235	235	12
208	209	4
178	178	7
30	30	11
91	91	9
91	92	14
147	150	4
233	234	8
190	241	3
193	193	7
214	214	5
208	208	11
27	27	10
87	87	2
100	100	11
158	174	2
183	184	5
86	87	3
152	164	2
15	35	2
110	110	9
239	241	1
149	150	3
200	200	13
51	54	4
2	2	12
222	223	8
99	99	15
106	159	2
59	59	12
217	218	2
160	160	9
72	72	11
35	44	1
80	80	6
229	230	2
49	50	1
107	119	4
240	240	12
185	185	6
213	214	4
70	71	1
59	76	2
25	26	8
237	239	6
105	106	2
239	239	15
177	177	3
18	77	5
180	184	4
96	96	6
29	36	1
212	213	5
180	180	15
19	19	14
52	53	3
202	202	4
94	94	5
225	248	3
172	176	1
116	145	1
203	204	1
117	118	2
106	108	1
63	63	8
176	179	3
68	68	4
116	116	9
61	62	6
81	88	1
11	40	3
118	119	4
96	97	6
186	187	1
50	50	3
149	149	1
23	23	11
39	40	2
57	57	10
197	197	9
177	181	4
58	59	7
210	225	3
176	176	12
170	170	6
158	172	6
83	83	9
153	153	7
233	248	1
78	78	2
152	202	4
93	93	3
58	58	7
23	25	3
188	188	5
10	10	8
166	177	3
60	95	1
24	51	1
4	5	7
11	47	2
230	230	2
40	46	2
246	247	1
108	160	1
104	104	4
35	41	2
195	199	1
219	219	4
62	62	4
104	108	1
167	186	3
215	218	2
120	120	2
70	73	2
247	247	6
213	213	10
52	52	16
216	218	3
76	119	2
245	246	11
186	186	6
21	23	2
168	171	1
216	217	6
61	75	5
75	76	4
173	173	9
181	240	2
3	44	1
7	8	9
1	1	7
218	218	11
61	64	1
158	159	2
240	241	3
49	73	3
48	48	12
222	233	2
234	235	1
157	158	4
72	73	1
12	39	1
146	146	9
202	206	8
188	190	4
118	118	5
15	33	3
174	174	5
16	17	2
109	109	13
238	240	1
81	81	2
207	208	1
10	202	1
12	79	1
96	170	1
12	36	3
55	193	1
29	45	3
170	199	2
68	70	2
26	35	2
157	163	5
234	234	7
38	38	10
98	98	7
107	152	2
39	47	2
208	222	2
64	64	4
210	211	2
39	39	7
162	163	1
160	177	1
90	91	3
18	19	5
56	57	5
31	52	2
237	237	8
30	38	3
231	232	2
12	38	2
47	49	1
93	119	2
154	186	5
107	108	2
65	66	4
5	15	3
244	245	3
160	182	2
226	226	2
68	69	2
65	65	3
238	239	1
2	3	3
93	97	2
183	183	3
167	168	2
81	87	2
9	9	13
162	185	1
1	85	3
248	248	2
166	171	2
182	183	2
114	114	4
94	97	3
71	71	4
216	216	10
62	65	1
221	222	3
97	118	1
158	160	4
224	224	3
209	214	4
159	173	3
197	230	5
232	240	3
6	7	4
154	154	4
30	52	2
6	9	2
42	93	2
24	25	1
5	5	2
211	214	3
191	192	3
193	196	1
234	236	1
51	52	1
86	86	7
187	188	3
186	224	3
210	213	1
4	37	1
214	215	3
79	82	1
21	22	1
15	17	2
59	102	2
166	168	2
111	112	1
187	195	1
71	73	1
15	83	2
206	207	3
184	185	2
89	193	2
198	198	5
69	77	10
159	176	3
209	212	1
64	71	1
107	147	2
227	228	2
207	215	2
79	79	2
42	43	3
183	200	1
226	243	1
17	60	2
171	185	2
74	74	4
29	30	2
171	237	4
110	114	1
15	28	1
89	90	2
60	200	1
229	248	2
44	44	5
53	54	5
168	168	3
193	199	1
34	38	2
226	227	2
7	57	3
159	159	4
240	242	3
173	176	1
103	103	3
83	84	1
194	194	3
57	79	2
116	118	1
57	58	2
92	92	9
30	31	2
19	35	1
222	238	1
108	159	1
56	76	1
40	47	1
93	94	3
39	205	2
88	89	2
164	168	3
150	150	3
93	160	2
74	77	1
57	66	1
88	193	2
11	32	3
61	104	3
151	152	1
230	234	1
43	44	2
7	48	1
59	121	2
228	231	4
63	92	1
34	49	2
229	245	1
156	157	2
44	45	1
6	49	2
204	205	2
244	247	1
169	192	1
15	19	3
155	185	1
100	101	2
67	69	1
0	1	1
186	192	1
116	209	1
153	154	1
53	70	2
95	95	1
211	212	2
82	83	4
33	36	2
61	61	3
13	14	2
161	184	2
54	55	2
4	11	1
79	89	2
172	174	2
72	75	1
41	44	1
85	106	1
5	57	2
3	36	1
157	167	1
114	115	2
27	29	2
77	204	1
40	41	1
19	23	2
119	147	2
15	16	1
1	92	3
241	244	1
25	42	2
155	202	1
106	107	2
94	95	1
242	243	1
217	221	1
62	63	1
11	11	2
226	229	2
87	89	1
67	72	1
170	192	2
192	193	1
205	205	1
160	161	1
0	0	1
26	41	2
34	35	4
8	43	1
79	81	1
6	10	1
174	181	2
25	30	2
179	199	3
60	75	1
166	245	1
167	182	1
95	97	1
115	153	1
169	170	1
171	172	1
219	220	3
171	173	1
6	52	2
28	29	2
58	64	2
68	74	1
151	156	2
11	44	1
237	249	2
65	69	1
244	246	1
38	43	1
75	195	1
15	31	1
79	94	1
158	158	1
113	114	1
1	94	2
58	66	1
104	107	1
237	240	1
215	217	1
57	76	1
218	221	1
220	224	1
71	72	2
229	249	1
234	244	1
105	118	1
79	80	1
164	165	1
33	33	1
235	243	1
58	100	2
146	147	1
61	118	1
27	235	1
46	54	1
36	208	1
51	190	3
49	57	1
52	209	1
229	246	1
66	74	1
61	63	1
113	115	1
59	64	1
7	49	1
185	186	1
163	164	1
34	37	1
145	145	1
185	191	1
80	81	1
22	26	1
3	40	1
