15	18	3
13	30	4
71	72	4
17	25	4
100	106	7
102	102	7
107	107	4
9	10	2
117	117	2
19	36	2
19	19	5
98	105	5
34	34	10
125	125	5
11	12	3
87	95	2
118	127	3
101	124	7
111	111	7
118	121	4
77	78	1
7	8	3
81	99	1
91	91	5
86	87	2
111	120	3
85	85	5
92	92	5
140	140	8
104	109	4
22	22	3
87	87	2
89	98	1
5	9	2
31	37	6
77	77	6
4	4	3
119	120	5
135	136	1
100	110	8
100	100	11
16	17	3
75	92	4
10	12	2
129	129	2
108	108	4
80	87	1
83	100	5
137	137	3
14	17	1
26	26	5
138	139	5
99	99	4
116	117	1
80	80	4
17	21	1
116	120	1
109	120	2
2	5	4
78	78	3
18	18	3
133	134	3
3	3	2
94	100	1
87	91	2
115	115	6
129	130	4
73	88	2
72	74	8
1	6	3
101	104	11
73	74	3
89	96	2
124	124	4
101	105	6
30	31	2
109	132	3
78	80	7
9	11	1
104	106	2
114	123	3
94	94	5
3	5	3
108	110	2
93	95	4
17	18	3
0	19	5
29	30	3
17	23	1
107	118	2
7	12	1
111	112	4
120	121	1
104	104	1
26	29	5
5	6	8
0	7	2
127	128	1
82	115	2
116	116	7
33	33	3
115	122	5
129	131	4
135	135	3
76	76	3
139	140	3
16	20	3
17	28	5
118	120	1
75	93	3
118	119	5
131	131	3
74	77	3
74	93	1
110	117	3
80	108	1
8	9	3
31	33	1
20	30	2
18	20	2
98	114	4
103	108	2
129	132	3
130	130	2
74	74	2
87	88	1
32	33	4
3	27	4
80	81	2
128	128	4
75	81	2
108	111	5
76	82	3
99	120	1
77	87	1
0	24	7
12	12	5
76	80	1
106	108	2
2	4	3
128	129	3
4	6	4
17	17	2
20	20	3
102	128	3
105	108	2
125	126	2
27	27	12
86	104	2
138	140	4
125	128	2
6	7	2
139	139	1
122	123	2
75	75	1
103	104	1
83	87	3
5	10	1
93	98	2
98	99	1
12	15	2
5	27	2
121	121	4
115	131	3
20	26	2
0	14	2
28	34	2
112	118	1
136	138	3
2	6	4
29	29	1
89	117	1
82	87	1
2	3	5
90	96	1
98	100	2
13	16	1
9	21	3
21	26	2
16	18	1
134	134	5
120	120	2
88	88	2
127	127	6
30	30	2
71	76	1
91	93	1
15	15	1
4	5	3
1	4	3
126	126	8
110	111	1
95	95	4
92	110	1
8	25	1
3	4	1
134	135	1
7	28	1
136	136	1
86	109	2
27	30	2
37	37	2
98	98	3
109	109	4
80	89	1
24	26	1
72	89	2
89	89	4
79	82	4
91	97	5
31	35	1
81	81	2
101	103	3
135	140	2
104	125	2
125	129	3
134	137	1
86	86	1
7	14	1
7	10	2
94	95	1
19	38	3
18	24	3
110	110	2
33	35	1
23	25	1
9	9	1
105	105	5
75	80	1
92	101	1
120	122	1
116	121	1
28	30	8
71	73	1
1	1	2
27	31	1
74	96	1
25	26	1
21	22	1
77	82	1
126	128	1
88	99	1
25	29	1
27	28	3
15	24	2
94	102	2
118	118	2
126	131	1
14	14	7
130	133	2
24	32	3
88	91	3
0	5	2
124	125	2
109	112	1
24	30	1
11	16	1
73	75	2
127	129	1
121	124	1
35	35	1
21	25	2
15	17	4
10	10	2
93	93	1
94	112	1
94	98	1
86	106	2
26	27	3
35	38	2
76	92	1
91	110	3
102	107	2
82	83	2
31	32	1
81	82	3
107	126	1
115	117	1
91	95	1
91	106	1
16	19	3
19	23	1
2	26	1
34	37	1
128	131	1
97	98	1
8	28	1
86	90	2
0	3	1
28	28	2
32	36	1
108	130	2
90	90	2
84	84	5
20	24	1
1	18	1
5	26	1
101	119	1
21	23	1
38	38	1
94	99	1
112	120	1
3	15	1
91	104	2
97	97	1
111	132	1
94	114	1
102	103	1
12	23	1
71	106	1
22	24	1
123	124	1
92	95	1
135	137	1
11	34	1
8	23	1
7	11	1
104	123	1
44	80	1
1	20	1
92	93	1
30	33	1
80	86	1
91	122	1
100	107	1
