82	82	5
64	64	10
109	109	6
95	95	2
104	104	4
92	92	12
29	29	5
34	42	3
53	57	3
33	33	11
53	67	5
77	77	7
31	31	4
75	79	2
65	65	6
34	36	2
105	105	10
59	59	10
46	48	3
19	56	1
47	78	4
51	51	10
30	30	10
32	32	2
99	99	7
68	69	5
47	47	4
74	74	7
20	44	7
49	49	11
32	34	2
53	53	6
75	75	4
102	102	11
78	87	2
80	80	5
101	101	9
36	36	11
53	70	2
58	58	7
108	108	6
37	59	1
71	72	4
81	89	5
33	43	2
113	113	4
98	98	15
53	94	2
81	81	6
54	95	1
39	73	2
96	98	2
106	106	3
79	87	3
93	93	11
40	40	3
110	111	6
53	54	4
21	22	6
96	97	5
60	60	16
89	89	5
67	67	6
93	94	3
23	29	1
26	27	5
64	65	4
46	46	6
83	83	7
50	114	5
88	88	8
65	67	2
41	79	2
59	60	9
100	100	10
23	103	1
45	52	1
44	44	10
27	27	7
53	55	2
37	37	2
95	96	3
50	100	3
98	99	2
48	50	2
42	42	8
85	85	8
53	61	2
71	79	3
79	79	3
41	41	1
39	40	5
91	107	2
38	62	6
23	48	4
78	78	3
83	84	5
82	86	2
51	101	3
40	41	6
52	52	1
56	56	4
39	107	3
81	82	2
34	34	6
97	97	8
82	85	5
96	96	2
71	71	6
82	84	2
110	113	6
40	73	3
111	111	13
38	38	4
70	70	6
63	63	2
39	47	3
105	109	2
60	71	2
26	26	3
94	95	1
43	43	6
105	106	1
50	50	3
57	57	3
66	66	5
80	100	1
103	105	3
25	25	6
68	68	1
36	75	1
50	51	2
28	28	6
23	112	4
67	70	4
105	107	4
38	73	2
94	94	5
22	23	4
19	19	3
52	79	4
20	20	3
42	52	3
62	62	2
94	108	2
62	63	2
91	91	4
37	99	2
90	90	1
23	28	1
45	45	10
109	110	1
39	39	3
112	112	4
58	59	2
22	22	6
69	70	2
29	110	1
87	87	3
34	67	1
95	114	2
37	44	1
48	49	2
103	106	1
87	91	3
92	111	2
74	75	1
41	42	1
78	80	3
25	34	3
34	41	1
82	107	3
34	59	2
88	91	1
77	102	1
84	85	2
76	77	3
86	86	1
89	92	3
27	102	1
39	42	1
95	97	1
48	48	3
19	103	2
66	68	2
61	61	6
42	43	1
38	58	1
33	34	2
35	42	1
92	94	3
21	21	2
58	90	1
67	69	2
20	46	2
44	45	1
79	81	2
46	49	1
88	89	1
107	107	3
67	72	1
81	83	3
77	78	1
76	79	3
32	37	1
100	114	2
57	112	2
103	104	2
100	102	1
48	107	1
42	83	2
92	97	2
90	91	2
43	44	1
105	110	2
29	112	2
86	103	1
104	108	1
93	97	1
25	26	1
62	64	1
108	110	1
82	91	1
66	67	1
73	73	4
47	89	2
101	102	1
51	52	1
38	77	1
24	24	1
24	48	1
29	73	1
114	114	2
103	103	1
91	105	1
43	45	2
90	111	1
78	79	1
54	84	1
54	54	1
64	68	1
38	39	1
50	99	1
