116	117	1
167	167	4
98	99	6
20	20	3
96	96	8
179	179	6
132	132	5
132	133	2
28	28	6
116	116	8
5	6	3
137	137	9
144	144	13
136	136	4
126	127	6
84	84	5
87	87	7
106	106	7
178	178	3
99	115	3
60	80	1
130	130	1
53	53	2
7	7	5
154	155	3
109	109	4
141	141	6
123	123	7
140	140	5
117	148	4
55	55	6
102	102	9
58	58	6
2	3	3
111	111	6
77	77	9
119	119	5
67	68	1
60	60	1
176	176	13
65	65	10
124	124	9
144	145	3
12	12	10
27	43	2
100	100	4
103	111	3
99	114	3
169	169	8
58	59	1
54	54	3
61	62	4
169	170	2
57	63	4
86	87	3
22	22	12
50	50	2
58	62	2
108	109	2
15	66	1
64	64	7
39	40	2
159	159	10
71	71	9
43	44	3
142	146	1
43	43	2
122	122	2
79	81	2
16	16	3
63	63	5
155	155	6
156	156	3
145	150	2
117	118	4
42	42	4
98	98	5
60	65	2
151	151	6
166	167	1
115	115	1
60	61	4
163	163	5
164	164	2
62	62	4
143	143	4
15	15	2
126	126	7
72	72	7
66	66	3
38	38	7
41	41	2
58	61	2
154	154	7
1	2	3
113	147	1
5	5	4
128	151	3
180	180	2
145	146	4
36	37	3
9	9	3
128	128	5
139	139	1
95	95	3
94	105	2
171	171	4
157	157	2
37	39	3
32	32	1
9	10	3
54	55	1
114	114	7
93	93	5
118	118	3
162	162	3
152	156	2
68	70	1
161	161	3
117	117	8
80	82	1
17	67	4
113	113	5
160	160	1
28	29	1
27	27	6
110	110	2
52	60	2
17	17	4
103	103	3
4	4	1
50	51	4
10	11	4
165	168	2
170	170	1
178	179	1
98	112	2
131	146	1
55	62	3
104	106	7
61	61	3
138	138	5
131	131	3
73	73	1
91	92	6
51	51	5
82	83	1
90	90	2
88	89	2
23	37	3
34	36	2
75	80	1
146	146	2
135	145	4
6	7	1
88	88	1
45	45	4
129	142	1
6	6	4
175	176	3
135	149	1
107	107	1
65	75	4
35	35	3
99	100	2
152	152	1
120	120	8
110	111	3
160	161	2
92	93	2
145	160	1
59	59	3
10	10	1
177	178	2
134	134	3
114	118	2
105	105	4
154	173	1
101	101	4
108	108	7
86	89	2
133	136	3
49	49	1
123	125	2
164	166	1
24	37	1
96	97	2
56	56	3
152	153	2
23	24	1
44	44	3
8	8	3
50	102	1
31	31	2
39	39	3
2	17	1
18	18	2
97	97	2
104	105	1
104	104	6
147	147	2
5	11	1
112	112	3
125	125	2
82	82	2
117	147	1
97	111	1
2	2	1
28	87	1
99	101	1
141	142	2
91	102	1
53	54	2
175	175	2
92	101	1
11	11	5
135	135	4
30	30	3
77	81	1
14	14	4
74	74	6
129	129	2
33	33	2
72	73	2
55	56	3
85	86	2
26	27	1
105	106	1
0	0	1
172	172	1
16	18	2
155	156	1
76	76	3
138	173	3
133	133	5
141	145	2
32	33	2
153	154	1
58	63	2
78	79	1
2	5	4
51	91	2
81	81	1
7	13	1
12	13	2
68	68	2
1	1	1
127	127	1
144	153	1
71	78	1
13	13	2
26	26	2
149	149	3
134	135	4
137	139	1
162	163	1
148	149	1
167	171	1
158	158	1
142	143	1
27	28	2
167	168	2
70	70	1
99	99	1
78	78	3
158	159	1
177	177	1
152	158	1
156	172	1
24	31	1
23	23	2
94	94	1
168	168	1
85	85	1
22	38	2
60	85	1
106	107	2
173	173	1
66	73	1
70	72	1
66	67	1
92	92	1
19	21	1
40	40	1
14	15	1
92	94	1
145	163	1
137	179	1
22	24	1
129	130	1
123	124	1
165	165	1
