24	24	5
160	213	2
185	185	3
6	6	8
119	119	7
150	151	3
82	82	14
184	203	4
3	16	2
153	154	6
193	193	5
37	37	6
159	159	2
184	184	8
215	216	2
56	56	5
77	77	3
111	111	6
164	164	3
110	110	10
196	199	5
171	172	1
157	170	3
25	26	6
179	179	5
151	151	3
21	21	4
50	190	2
173	173	5
199	199	6
112	112	7
14	15	8
227	228	3
18	18	14
69	69	10
66	66	4
3	15	6
220	220	2
55	55	9
60	61	4
57	59	7
157	157	7
20	20	18
181	181	2
198	243	3
12	12	8
186	186	10
47	47	9
68	68	11
201	201	9
75	75	2
29	172	6
61	173	2
39	39	9
9	9	2
42	42	10
16	16	11
109	109	4
177	177	9
208	208	9
79	80	1
213	213	5
166	166	4
76	81	3
30	30	10
108	108	7
103	103	3
10	10	13
55	57	6
5	5	9
118	118	6
102	102	10
218	219	7
221	222	5
156	156	10
226	226	11
33	33	8
94	95	1
209	209	7
7	7	5
197	249	2
238	238	5
205	205	13
186	191	1
105	105	3
247	249	1
67	67	3
158	158	5
178	179	2
26	26	9
221	225	1
174	175	1
55	59	5
8	8	12
183	202	4
119	120	3
27	27	4
236	236	2
41	41	7
86	86	10
0	205	4
25	25	2
18	19	1
237	237	5
27	28	6
231	233	3
6	11	8
16	33	1
31	31	8
160	160	4
4	5	5
53	54	5
180	181	7
45	45	6
165	184	2
162	163	2
23	23	4
52	53	4
65	66	3
116	162	6
64	64	8
243	243	4
24	25	9
244	244	4
112	152	2
106	106	1
154	154	8
19	20	4
199	213	5
231	231	12
45	46	3
19	19	12
36	109	4
22	22	4
43	43	4
55	56	7
215	215	2
6	7	3
234	234	5
187	187	13
50	58	3
3	5	3
87	87	5
4	4	5
38	38	7
76	76	3
169	169	6
22	23	3
82	83	3
174	174	2
47	248	2
195	201	4
54	54	12
53	53	10
59	59	8
153	153	4
116	116	5
49	49	7
78	85	1
36	36	8
196	196	3
223	223	15
164	165	7
170	170	3
47	195	1
202	202	6
228	229	2
36	41	2
212	212	2
190	190	4
224	224	11
191	191	11
48	48	5
101	101	7
165	211	1
11	11	7
73	79	3
1	1	4
21	22	1
31	228	3
34	34	11
64	66	2
185	203	2
186	238	4
61	61	1
57	57	4
169	170	12
175	175	4
195	195	3
247	247	12
206	206	3
59	150	2
181	202	1
219	219	6
72	73	1
245	246	2
79	79	5
216	216	7
87	88	5
165	165	5
90	91	6
115	115	2
81	82	1
237	239	3
155	155	12
198	198	6
93	94	2
48	50	2
67	71	2
199	203	1
57	64	1
246	246	6
155	222	3
46	46	5
227	227	3
202	203	3
93	93	10
37	42	5
238	239	4
235	238	3
197	248	2
188	188	4
111	152	3
57	58	7
168	168	6
172	172	3
34	55	7
59	112	2
214	215	1
83	83	3
50	51	2
111	112	2
94	94	4
65	65	6
182	184	3
1	26	2
207	208	2
85	85	7
241	241	2
97	97	8
161	161	7
11	235	3
209	210	4
98	99	3
78	79	1
28	29	6
74	75	2
32	146	5
56	58	1
240	240	6
216	217	1
95	95	1
58	58	1
217	239	1
210	210	6
182	182	6
55	98	1
224	225	4
207	212	3
1	21	1
100	100	4
56	59	3
32	32	5
63	63	9
65	67	6
150	150	8
234	240	1
223	224	3
81	81	4
26	153	1
104	107	1
222	222	4
145	150	1
22	29	1
175	176	6
74	79	3
204	204	5
166	209	5
27	31	4
120	145	3
43	44	4
155	214	1
17	17	2
80	81	2
108	114	3
42	43	2
168	239	1
29	31	2
197	197	1
13	104	2
233	233	3
229	229	1
38	39	2
208	211	2
194	194	2
59	73	2
86	144	1
181	230	2
226	227	5
19	21	4
23	24	2
163	209	2
0	0	1
91	94	1
35	45	3
85	86	2
152	153	3
203	203	5
62	65	3
99	99	4
95	96	6
37	108	1
88	88	2
92	92	4
70	71	1
36	37	3
2	2	2
3	3	2
51	52	1
241	242	3
206	214	1
23	31	3
69	70	3
196	200	1
21	24	2
81	161	2
146	146	6
46	186	2
189	189	8
17	75	1
232	232	1
28	28	6
169	174	1
15	15	3
47	247	2
199	200	4
172	217	3
188	189	1
191	192	2
89	89	3
150	204	1
44	44	2
165	210	3
86	87	5
218	218	3
217	217	3
188	237	2
239	239	4
171	171	3
213	215	3
47	48	1
196	197	2
113	113	3
228	228	4
72	72	5
225	225	1
73	74	2
201	217	3
72	75	2
243	244	3
220	221	2
187	192	2
144	144	2
244	245	1
78	78	2
46	193	2
100	106	2
68	69	1
80	80	4
176	177	1
68	81	2
100	101	1
60	60	1
158	159	1
156	170	1
37	44	1
173	216	3
200	200	3
166	167	2
35	101	1
182	183	1
104	104	1
188	201	1
109	114	1
49	194	1
225	226	1
78	119	1
120	120	3
155	200	1
151	152	2
17	223	2
22	86	1
214	214	3
145	145	2
74	80	1
43	52	1
61	62	1
182	203	4
4	15	1
207	249	1
176	176	1
184	244	2
85	87	1
213	214	1
152	152	4
210	211	2
23	30	1
90	90	1
107	107	1
83	84	3
39	94	1
70	70	6
231	232	1
49	195	1
155	161	2
71	71	2
178	178	3
177	208	1
84	85	1
179	180	1
184	200	2
150	205	2
91	92	1
167	177	1
221	227	1
205	206	1
52	52	1
96	97	1
94	181	2
51	188	1
96	96	1
236	238	1
180	180	1
225	227	1
245	245	2
99	100	1
167	167	1
87	145	1
192	192	1
13	14	1
245	247	1
30	31	1
165	167	1
30	152	1
10	44	1
181	182	1
34	35	1
230	232	1
