125	125	4
32	54	1
85	85	12
217	238	2
76	77	1
50	50	4
88	120	4
226	227	6
54	54	2
31	31	13
57	57	9
212	213	3
103	163	2
17	27	1
153	162	4
62	62	8
12	33	1
3	3	10
67	67	2
201	201	7
197	198	5
24	24	4
8	231	3
204	204	6
240	240	7
18	19	9
211	211	6
105	105	2
152	152	5
30	68	4
168	216	4
21	22	9
217	218	11
168	168	3
10	11	1
126	126	2
49	135	6
53	53	9
12	12	13
242	242	5
20	61	1
61	61	5
238	238	3
84	84	10
147	147	6
122	122	13
98	99	1
138	138	11
80	80	5
83	84	2
37	37	3
123	123	7
4	7	3
117	117	10
108	109	3
8	8	8
74	74	2
16	16	7
119	137	2
64	64	3
152	162	3
27	27	6
71	71	3
203	204	4
20	25	4
79	79	6
45	45	5
22	22	3
47	47	5
64	65	2
18	58	1
55	55	3
2	7	2
127	127	7
72	72	4
29	29	9
218	218	3
222	222	6
139	143	2
167	241	4
142	142	4
141	171	4
188	188	6
121	121	6
13	13	8
17	17	1
106	106	4
19	23	1
72	73	2
118	119	2
100	188	2
224	224	4
151	152	5
34	34	1
52	52	10
103	103	2
198	198	4
183	183	7
104	166	1
105	107	1
116	128	1
61	74	2
48	54	1
104	104	2
157	184	1
163	204	3
182	183	5
183	184	1
12	22	1
11	16	6
231	231	4
69	184	1
45	59	3
115	115	7
100	151	1
15	21	1
236	236	2
2	2	3
158	158	7
190	190	4
209	237	2
82	82	5
166	169	1
13	14	5
73	115	2
104	188	3
207	207	5
69	69	8
55	61	5
100	163	1
178	209	3
189	189	11
177	177	5
197	200	2
234	234	1
58	58	3
98	98	2
167	168	1
51	51	7
163	163	1
4	6	8
225	225	3
60	60	6
221	221	4
196	197	4
128	128	6
135	135	4
217	217	5
153	153	11
56	56	4
239	240	4
76	76	4
32	32	4
157	166	3
46	46	5
191	193	1
66	67	6
206	207	2
71	72	2
9	9	7
200	217	2
164	165	1
47	100	1
116	116	5
170	171	4
182	182	3
66	66	3
28	28	5
146	188	3
117	119	1
210	221	1
97	97	1
169	171	1
10	89	1
137	188	1
50	65	1
23	23	7
39	39	7
135	182	3
33	33	4
196	196	3
102	204	5
157	157	1
162	162	6
101	102	5
66	68	3
103	104	2
197	199	2
109	109	3
59	59	4
95	95	3
96	96	2
239	239	4
24	120	3
136	136	1
154	155	4
14	14	3
161	164	1
5	6	5
125	166	1
221	222	4
2	6	1
206	206	1
84	119	4
178	178	9
138	170	2
225	231	4
99	100	7
20	20	6
213	224	5
220	220	3
25	26	2
101	101	6
14	15	2
75	77	1
83	83	1
159	159	3
198	239	1
18	18	4
131	134	2
88	136	5
165	165	3
186	186	5
151	151	2
227	227	5
49	49	4
169	169	6
55	84	1
1	35	2
120	120	5
96	147	2
11	25	1
47	71	2
129	129	1
115	116	3
141	141	4
107	109	1
48	48	1
153	158	1
156	156	1
88	119	1
63	63	4
48	49	1
49	50	1
144	145	2
56	65	5
125	126	1
36	36	5
64	66	2
200	218	1
164	164	4
42	42	2
96	149	1
78	78	6
26	121	1
154	154	4
197	197	6
172	172	5
49	82	1
232	232	2
73	73	1
107	107	2
192	192	3
168	210	1
228	228	5
130	130	3
233	234	3
56	61	1
186	187	1
26	26	2
205	205	7
52	77	3
207	209	1
53	78	1
114	114	4
86	86	4
216	216	4
49	51	4
37	219	4
12	35	3
33	76	1
200	201	3
157	159	3
103	105	1
102	102	1
240	241	1
44	44	4
77	78	5
7	8	3
136	138	1
162	163	1
67	77	4
86	118	1
185	190	1
7	9	1
159	160	1
175	175	3
127	129	2
18	44	1
25	25	5
139	140	1
12	13	2
191	191	3
130	176	1
170	231	1
200	242	1
205	207	1
100	100	4
215	216	1
181	181	2
26	37	1
176	176	3
111	111	1
55	59	1
174	174	2
145	169	2
43	43	8
236	238	2
160	160	2
233	235	1
126	127	1
96	120	1
181	184	1
58	61	2
166	166	2
179	179	4
109	139	1
199	240	2
187	188	3
23	24	5
185	185	2
170	170	1
145	145	6
200	200	2
215	215	3
11	23	1
229	230	4
27	69	1
241	241	5
23	56	1
108	134	1
171	171	3
196	242	1
198	220	1
12	54	1
173	174	1
200	208	3
39	40	2
186	205	2
229	229	3
198	207	3
135	145	1
224	225	2
213	214	2
148	153	2
25	37	2
195	195	1
199	200	1
38	39	2
53	117	1
173	173	7
41	41	6
228	230	2
23	61	1
201	238	1
131	138	1
0	5	4
226	226	2
7	126	1
103	110	2
21	115	1
164	170	1
204	205	1
213	213	1
118	121	2
29	76	2
161	207	1
124	124	1
58	59	1
88	88	2
174	175	1
1	3	4
131	131	1
203	207	1
60	65	1
81	83	1
141	145	1
214	215	1
71	160	1
193	193	4
124	126	1
209	209	3
75	116	2
75	75	3
131	139	2
6	6	4
203	203	2
11	116	1
148	168	2
194	194	1
165	166	3
81	81	1
62	67	1
5	5	1
144	146	2
169	221	1
77	77	4
113	113	2
211	224	1
7	7	1
18	202	1
65	65	1
96	98	1
180	216	1
219	219	1
55	57	1
112	113	1
60	75	3
188	195	1
134	183	1
146	146	1
137	137	2
38	38	2
148	148	1
119	119	1
10	10	1
42	228	1
10	182	1
19	24	1
22	42	1
121	122	1
210	210	1
58	68	1
19	25	2
25	27	1
144	148	1
68	68	1
150	150	1
61	62	2
171	172	4
72	169	1
173	192	1
144	144	2
18	57	1
10	24	1
212	212	1
177	229	1
118	118	1
85	86	1
159	204	1
149	149	1
108	108	1
103	106	2
26	45	1
222	224	1
199	241	1
101	150	1
126	133	1
209	235	2
114	135	1
20	44	1
79	82	1
35	129	1
3	8	2
152	153	1
152	158	1
28	29	2
175	190	1
80	86	1
30	30	1
129	130	1
233	233	1
38	171	1
179	180	1
191	240	1
33	60	1
107	134	1
