68	68	17
85	85	16
70	71	8
42	42	17
27	46	6
35	60	2
49	50	4
34	34	6
76	77	5
22	22	5
56	56	7
40	40	19
101	101	5
100	101	9
60	61	12
54	84	1
49	56	8
81	81	6
48	48	8
72	72	8
98	98	10
45	45	4
98	99	3
91	91	7
80	86	4
52	52	6
57	57	19
62	62	18
80	81	18
25	28	3
26	28	2
62	63	8
95	95	9
77	77	13
46	46	12
36	37	3
50	50	9
27	27	4
70	72	3
80	80	10
93	95	2
37	38	9
26	26	4
63	63	28
58	58	20
86	87	5
35	35	10
70	70	23
75	75	7
74	74	26
44	44	4
92	92	5
93	94	7
66	67	12
26	27	10
41	41	10
67	67	11
79	79	10
91	96	2
96	96	11
36	36	9
64	64	19
39	62	4
82	82	10
43	44	3
54	101	6
47	47	5
50	81	3
25	25	14
43	43	9
52	53	8
78	79	6
37	60	1
39	40	8
94	95	3
66	66	13
35	80	1
27	28	6
41	42	1
20	30	3
88	88	12
54	55	10
67	68	4
76	76	16
97	97	4
69	73	1
89	89	8
35	37	5
77	78	7
61	61	23
53	53	11
92	93	2
69	70	8
86	86	16
29	29	3
87	88	1
61	63	10
78	78	4
65	66	6
73	74	6
65	65	9
55	55	7
55	101	1
73	73	6
59	59	9
31	32	6
99	100	8
33	33	6
91	94	1
84	84	8
48	49	2
99	99	7
46	48	4
68	69	11
67	69	2
34	53	2
83	85	4
38	39	3
76	78	9
94	98	6
61	62	9
82	84	2
92	94	6
71	71	5
40	41	1
22	33	1
39	63	3
23	23	3
39	39	9
38	38	8
27	29	4
51	51	5
94	94	7
52	101	1
27	30	2
81	82	5
79	80	4
97	98	4
24	24	3
86	89	3
28	28	4
25	27	2
69	69	5
60	60	4
95	98	1
34	38	2
41	43	3
25	29	4
50	100	2
46	47	1
60	62	4
90	96	1
28	46	1
35	36	1
35	58	3
35	81	4
59	60	3
51	66	1
49	49	8
69	72	3
57	65	1
71	73	5
35	38	1
87	98	3
35	83	2
54	54	3
50	51	2
31	33	2
56	57	2
51	52	4
25	26	3
94	97	2
100	100	2
91	92	1
83	83	7
54	82	4
68	70	5
89	99	1
64	65	1
38	40	2
20	22	2
72	73	2
62	64	1
90	90	1
102	102	1
87	87	3
88	100	1
53	56	1
57	58	1
22	23	1
97	101	1
44	48	1
51	101	1
93	93	3
74	75	1
71	72	1
81	84	1
96	97	1
