170	170	3
39	39	4
103	110	1
163	163	4
118	118	3
179	179	1
123	123	8
120	120	1
96	96	5
158	158	5
171	173	2
103	104	2
81	93	3
56	56	5
1	113	3
101	102	6
139	139	11
89	123	1
83	83	10
98	100	5
177	178	2
136	170	2
20	21	7
42	46	5
97	97	1
70	121	1
84	84	5
59	59	3
105	105	4
4	85	3
10	10	6
138	138	5
22	22	7
1	1	2
186	187	4
132	132	8
151	151	9
186	186	11
56	64	3
66	66	11
74	74	6
146	146	4
75	75	6
173	178	3
173	173	6
3	3	2
181	181	2
156	156	1
44	44	1
72	80	2
88	89	7
138	139	4
41	41	6
103	105	3
62	62	6
151	152	2
122	122	1
21	21	2
31	31	5
101	101	6
88	88	6
140	140	2
0	0	7
187	187	5
134	137	2
99	99	4
103	116	2
167	167	1
109	109	1
81	84	2
65	67	1
116	117	5
82	82	3
64	68	1
76	76	6
102	102	3
61	62	2
74	89	2
56	57	7
78	78	6
55	55	7
140	141	1
107	107	5
40	40	5
60	60	4
129	173	6
7	7	2
96	98	6
15	73	2
43	43	1
118	121	1
80	82	4
130	131	1
78	85	1
3	103	2
80	80	2
21	79	2
28	56	1
175	176	4
23	23	2
141	141	4
39	47	3
13	13	6
26	26	3
57	153	1
42	43	2
68	68	4
78	106	1
48	49	5
85	85	3
157	157	2
131	131	4
135	151	1
174	174	5
129	129	3
118	119	1
2	2	2
98	98	5
19	21	4
124	124	3
144	144	5
188	188	3
110	111	4
125	125	5
141	185	1
42	42	7
56	92	4
165	176	3
129	130	3
133	133	2
125	126	2
37	38	2
188	189	3
58	58	4
8	8	4
164	165	4
78	108	2
81	85	1
160	160	4
103	108	1
19	77	1
94	94	5
182	182	4
47	47	1
169	169	3
17	17	3
178	178	1
145	145	1
88	90	1
143	143	2
16	17	2
93	93	3
185	185	2
3	5	3
21	22	2
2	3	1
52	53	3
56	61	3
6	6	5
154	161	1
32	32	8
89	153	2
17	18	3
23	30	2
121	121	2
95	96	2
184	185	2
183	183	5
68	70	4
132	189	2
44	46	1
25	25	3
159	159	10
150	150	3
166	166	2
27	27	1
29	39	1
63	64	1
89	89	1
77	91	2
67	68	3
53	53	1
157	159	3
111	111	3
109	110	5
76	112	2
103	103	2
136	137	1
79	79	1
158	159	5
52	52	1
163	178	2
77	77	2
19	19	3
154	154	1
99	130	2
102	103	1
45	45	4
85	107	1
162	183	2
39	42	3
86	86	1
81	81	1
40	41	2
184	184	4
153	154	4
112	112	6
128	183	1
63	63	1
57	57	5
70	70	2
36	36	4
165	165	1
110	110	2
79	94	1
160	162	3
87	87	3
85	106	2
20	20	1
65	71	2
117	118	1
98	129	2
16	16	4
123	185	4
129	131	1
124	183	2
0	1	1
73	73	2
114	114	5
108	109	2
4	4	4
33	34	2
18	18	1
82	84	2
29	29	2
24	25	5
76	90	1
163	164	1
89	92	1
59	76	2
143	171	1
101	106	1
155	168	2
155	158	2
188	190	2
22	59	2
119	121	1
78	80	1
185	187	1
67	70	1
106	106	3
100	101	2
176	176	2
99	137	1
178	182	1
6	7	2
18	19	1
113	114	1
104	106	2
77	108	2
108	108	4
39	44	2
153	153	1
68	74	1
134	134	1
23	25	1
100	100	1
124	182	1
120	158	1
103	115	1
172	173	1
35	47	2
135	138	1
41	63	1
28	49	1
30	32	1
43	45	2
173	186	1
189	189	1
27	55	3
24	24	1
101	103	1
187	189	2
65	65	1
171	172	1
32	33	2
29	30	2
118	120	1
93	158	1
90	94	1
95	110	1
78	111	1
48	48	1
155	156	2
27	30	1
90	90	3
171	188	1
71	116	1
155	160	2
184	187	1
35	38	1
104	105	1
68	151	1
99	129	1
75	76	1
49	49	1
113	113	2
137	142	1
181	182	1
33	33	1
7	8	1
27	48	1
8	23	1
139	153	1
115	115	1
17	26	1
53	55	1
157	158	1
11	11	1
34	35	1
76	86	1
167	173	1
96	99	1
14	17	1
101	108	1
