76	76	5
64	79	1
61	61	11
57	58	3
88	88	6
30	30	9
34	34	6
102	102	10
90	90	3
51	89	4
95	95	8
52	70	5
95	96	5
21	24	1
36	36	6
99	99	7
21	22	7
48	49	4
65	65	10
94	94	13
67	88	7
55	71	1
103	103	10
47	47	8
92	101	2
20	20	11
21	21	17
56	89	3
29	29	9
82	107	1
105	105	10
93	100	3
38	38	5
23	25	1
54	62	2
97	97	3
42	49	4
22	22	5
51	52	4
65	95	1
62	63	4
54	76	1
37	37	5
32	32	4
80	81	3
77	78	1
63	63	18
75	75	4
48	74	6
70	70	6
56	56	4
89	89	7
80	80	11
65	84	4
57	57	1
35	35	12
37	39	3
43	43	7
100	100	8
68	95	3
49	72	3
60	60	6
83	83	10
53	54	6
64	77	1
33	33	14
41	59	1
60	62	1
41	41	3
65	66	5
71	71	12
107	107	3
73	74	6
39	39	5
30	31	8
84	84	1
21	59	8
52	90	4
34	55	1
59	60	1
58	58	1
46	46	9
58	59	1
52	52	5
100	104	8
35	60	4
78	78	4
26	26	1
55	88	1
45	45	4
91	104	1
67	67	9
55	68	4
49	67	2
74	94	3
23	23	17
54	54	10
70	71	5
96	96	7
30	44	2
25	25	10
82	82	16
62	62	4
44	75	1
22	24	1
87	88	2
97	98	4
81	82	3
47	48	2
80	98	2
36	60	2
78	79	5
28	47	2
26	27	4
93	93	3
64	64	7
26	28	6
96	102	1
30	34	2
53	53	4
27	28	1
93	94	9
51	51	3
74	97	3
87	87	1
58	88	3
27	49	3
46	49	8
90	91	10
41	42	3
50	50	7
50	55	1
40	41	6
79	98	2
49	54	1
73	73	8
55	56	3
64	76	6
86	86	6
42	42	2
93	97	2
59	91	1
28	28	7
101	101	8
44	49	5
79	79	1
104	104	11
52	57	1
74	79	2
36	58	2
57	90	1
56	57	3
59	63	2
43	44	2
97	105	3
102	104	2
64	74	2
72	95	3
36	78	3
32	33	3
84	86	2
38	39	3
62	101	1
72	72	5
59	62	1
69	69	6
94	96	3
56	72	3
92	94	2
24	24	3
92	92	3
34	35	3
92	93	2
88	90	2
42	62	6
32	83	1
74	76	5
72	102	1
89	90	4
31	31	4
35	47	3
31	33	2
59	59	3
99	100	2
98	98	8
97	99	2
63	64	1
81	86	4
58	102	2
85	85	7
83	85	1
24	29	1
75	76	2
79	100	3
56	91	2
81	81	2
20	22	1
55	62	1
80	90	2
91	92	3
100	101	2
106	106	6
62	92	2
20	35	1
59	61	1
21	64	2
88	92	5
94	95	3
104	105	1
26	45	2
33	34	5
51	53	1
87	89	2
23	24	1
28	53	2
84	85	1
76	100	1
55	55	4
68	96	3
39	43	1
55	91	3
74	74	2
65	77	1
66	68	2
77	77	1
87	98	1
32	34	1
64	78	1
53	74	3
91	96	4
54	55	1
92	104	3
89	94	1
44	44	4
74	75	1
48	48	3
68	69	2
40	72	1
35	97	1
20	29	2
79	95	1
96	97	1
91	91	2
65	96	1
72	74	1
63	90	2
50	51	1
39	71	1
69	76	1
49	49	2
27	71	1
81	107	1
54	56	1
64	97	1
27	27	2
70	79	1
65	94	1
59	88	1
45	46	1
89	95	1
73	97	1
79	93	1
101	102	1
