153	153	5
125	126	1
119	122	5
148	148	4
73	73	4
105	105	4
56	57	2
70	70	7
7	8	3
3	7	3
110	110	3
64	84	2
104	106	2
135	136	3
95	96	5
62	63	1
133	133	11
15	16	4
50	50	5
39	40	1
15	22	1
134	134	7
36	36	1
8	8	13
65	122	2
99	99	2
104	110	1
154	154	1
75	79	1
67	67	7
96	98	1
41	41	3
84	85	4
25	25	9
129	129	4
57	57	4
137	137	5
131	132	7
22	22	6
127	127	5
126	144	1
64	65	3
132	132	10
117	117	7
83	84	6
119	134	2
49	49	7
85	85	4
150	150	4
120	120	3
122	145	3
71	119	7
40	40	2
87	87	1
52	63	4
98	98	1
87	90	3
37	37	11
108	112	3
122	122	7
94	94	8
119	119	1
43	43	3
22	23	1
73	86	2
147	148	3
48	48	4
5	5	4
9	10	4
88	88	3
152	153	3
141	143	2
130	131	8
100	100	6
65	86	1
27	28	1
125	125	3
79	114	1
123	123	9
132	133	7
53	118	3
4	121	2
125	142	7
95	95	1
55	56	6
34	82	1
83	83	4
28	29	1
104	104	3
7	7	13
78	78	2
26	26	6
79	79	1
149	149	4
64	64	12
134	135	5
79	91	2
151	151	3
116	117	3
54	54	8
13	14	4
51	53	3
109	110	2
4	4	5
3	3	2
123	150	4
10	11	5
2	120	1
3	26	1
53	53	10
17	18	1
75	75	4
86	87	1
131	131	8
114	114	8
30	30	11
21	21	3
140	141	4
82	82	2
79	80	3
47	49	1
89	89	2
124	124	1
66	66	5
104	111	6
99	100	2
30	31	3
28	28	1
109	109	2
107	107	7
103	111	3
113	113	5
142	143	1
121	121	4
26	32	4
20	20	4
34	63	1
39	39	6
42	43	3
101	101	7
51	51	4
74	74	5
137	138	2
26	30	3
20	22	1
4	5	1
69	119	3
45	45	3
29	66	4
108	130	3
65	66	3
72	74	2
12	14	2
141	142	4
97	97	3
96	143	5
146	148	2
12	12	5
74	118	1
35	64	1
76	79	2
115	118	2
33	34	3
107	115	2
136	136	3
126	127	2
145	145	3
24	24	3
92	93	3
34	34	4
77	118	2
40	41	1
15	15	7
32	65	1
121	122	2
139	139	4
35	35	2
32	64	1
27	27	4
14	14	2
103	104	2
112	112	3
121	139	1
67	119	1
134	136	2
66	67	2
87	88	1
123	125	1
115	116	2
109	112	2
55	57	2
142	150	1
14	31	2
84	84	2
144	145	5
65	119	3
82	83	1
73	129	2
80	81	2
12	13	1
21	29	1
124	148	3
32	33	2
32	32	1
68	69	1
8	10	1
146	146	2
117	118	2
80	85	1
117	129	2
6	6	2
76	78	1
31	31	3
72	72	2
127	145	1
86	86	3
76	77	3
71	71	1
20	21	1
92	105	1
116	130	1
23	24	2
92	92	4
108	115	1
13	13	2
38	39	2
41	42	1
57	58	1
83	87	4
63	63	3
106	106	2
62	81	1
94	103	2
16	16	1
94	111	3
91	113	1
147	147	2
83	85	1
90	122	1
70	119	1
124	125	1
141	141	2
100	126	1
119	120	2
75	116	1
69	71	1
140	140	2
100	103	1
65	121	1
80	80	2
135	135	2
128	128	1
68	68	1
33	58	1
9	9	1
2	4	1
81	82	1
108	108	1
91	105	1
46	46	1
17	19	1
27	67	1
23	23	1
86	89	1
33	47	1
11	11	1
70	73	1
138	138	1
5	10	1
136	137	1
7	10	1
29	29	1
