74	75	6
106	106	17
167	167	12
63	63	4
101	101	6
15	125	1
122	122	8
142	145	6
91	94	2
158	158	18
73	165	3
166	166	6
121	121	7
57	57	4
14	14	18
15	123	3
145	145	6
97	97	3
17	17	3
51	53	2
25	25	14
76	77	3
143	144	10
133	133	10
64	106	3
84	84	9
33	125	6
24	24	2
5	20	5
67	67	10
113	113	11
169	170	5
50	50	7
5	19	3
111	119	1
66	140	2
12	12	10
159	159	6
142	144	4
21	21	5
126	126	6
52	53	1
101	103	3
95	95	3
112	113	5
56	56	10
73	145	5
74	74	1
110	119	4
127	127	5
66	108	1
90	90	6
106	107	5
47	47	3
49	49	8
8	8	4
102	103	3
69	134	3
144	145	5
68	68	7
12	13	2
132	132	10
120	121	3
157	157	7
72	150	1
4	46	2
80	136	2
1	1	6
23	24	3
123	123	2
130	130	8
140	140	1
46	47	3
142	142	8
168	170	5
83	83	9
2	2	4
164	164	7
117	118	1
116	116	4
156	156	6
159	160	3
152	152	8
0	1	1
82	82	13
129	130	1
41	41	2
36	37	4
114	114	5
112	112	9
138	138	5
131	131	11
117	117	9
163	164	5
37	37	6
18	18	5
64	135	1
70	70	6
96	96	13
110	110	5
162	163	5
58	58	1
69	69	7
155	156	4
84	136	5
23	23	2
87	87	3
86	87	7
91	92	3
37	38	8
4	126	2
1	2	3
42	42	10
36	36	5
88	89	3
137	139	3
145	148	2
99	99	10
22	22	13
138	139	4
141	141	13
162	164	6
93	106	1
75	75	3
142	143	3
98	103	3
105	105	5
73	74	2
6	6	6
85	86	4
19	20	1
42	155	2
39	39	4
100	100	4
11	11	11
57	134	4
20	20	10
46	46	12
153	153	2
116	122	9
70	72	3
93	130	2
3	3	7
44	44	4
93	93	4
111	111	11
160	170	1
6	123	2
22	24	2
49	90	3
135	135	3
128	128	3
75	150	6
147	147	1
64	64	4
137	137	8
62	63	7
34	34	8
88	102	4
66	66	3
3	110	1
38	38	6
41	44	1
91	91	3
26	89	1
120	120	5
41	42	3
84	85	2
7	12	8
71	71	5
163	163	8
6	20	2
71	151	4
102	102	4
35	35	5
75	146	5
4	4	5
50	58	1
154	154	13
17	18	6
6	13	3
86	86	8
118	118	7
153	156	3
144	144	8
14	16	1
85	85	3
100	101	2
26	47	2
123	124	3
5	5	5
118	153	3
18	21	1
72	165	1
28	28	4
19	19	4
54	134	3
162	162	4
170	170	2
137	138	7
6	18	5
129	129	5
114	119	1
98	98	8
103	103	8
86	90	2
132	133	7
56	110	4
71	152	1
0	151	2
42	43	2
20	123	1
73	163	1
107	107	8
119	119	4
76	80	2
22	27	1
66	106	1
127	129	1
88	101	4
25	131	2
22	23	7
2	56	2
149	149	3
94	94	3
151	152	2
89	89	11
79	79	1
150	150	6
99	102	4
84	86	3
84	106	2
98	102	2
68	134	1
34	35	5
35	36	2
128	129	3
13	17	2
110	111	7
4	52	2
113	114	3
82	147	1
154	157	1
45	45	7
15	34	2
2	3	2
160	160	1
155	155	4
16	16	1
164	165	8
53	53	7
13	13	6
133	134	1
157	158	4
124	125	2
92	92	2
108	108	8
140	141	1
39	40	1
48	49	2
53	131	4
79	80	3
74	76	3
118	119	1
43	43	5
147	148	2
9	15	2
151	151	3
6	7	2
55	56	6
40	40	13
33	34	1
33	33	1
158	167	2
130	131	2
14	19	1
10	10	5
143	143	3
82	136	2
109	120	1
42	71	2
126	127	2
112	154	4
2	41	2
27	28	2
109	109	1
64	87	2
69	91	1
77	78	1
82	83	2
118	154	2
90	91	1
161	161	7
6	12	5
51	51	1
76	79	1
14	18	1
124	124	1
119	120	2
150	164	1
165	165	1
53	54	2
139	139	2
93	105	2
146	149	2
27	27	1
73	73	2
17	36	3
76	150	1
121	122	1
72	152	2
154	155	2
153	154	2
125	128	1
16	125	1
64	65	1
80	108	1
150	151	1
132	134	4
0	76	1
76	78	1
111	129	1
91	93	4
83	147	2
21	22	1
165	166	1
25	26	2
7	7	2
50	51	3
77	77	1
48	48	2
83	137	1
1	41	1
114	127	1
47	49	3
15	15	2
23	25	3
73	149	1
110	154	1
10	17	1
56	109	2
166	169	1
139	140	1
41	71	1
67	91	2
115	115	1
64	91	2
108	139	1
158	170	1
150	158	1
85	90	1
134	135	1
136	136	2
55	55	1
41	43	1
62	62	2
94	95	1
43	44	1
163	166	1
152	153	2
18	19	1
140	144	1
64	86	1
104	105	1
150	163	1
16	123	1
14	123	2
21	28	1
16	124	1
85	87	1
