0	2	2
57	106	1
22	23	2
22	38	2
45	46	7
51	79	2
116	119	5
143	143	9
86	86	6
173	173	3
67	67	6
130	130	9
23	23	17
62	62	14
129	129	1
96	124	1
66	66	14
170	170	13
18	20	8
156	156	5
15	15	10
173	175	2
147	180	9
81	82	2
147	161	4
189	189	8
78	78	4
118	118	9
171	178	1
134	134	10
48	48	12
120	120	6
53	54	4
66	67	2
77	78	6
64	64	11
180	181	6
128	128	9
111	117	3
7	11	2
53	71	4
150	150	13
188	190	1
68	69	3
134	137	4
10	13	3
133	183	1
178	182	7
100	100	4
169	171	3
58	60	1
108	108	6
127	130	2
52	71	3
121	121	9
53	55	2
62	133	4
106	107	2
69	73	5
157	157	3
192	194	3
154	154	5
177	191	2
138	152	1
163	163	8
185	186	9
77	80	4
62	128	3
124	160	4
159	159	12
49	49	11
44	71	1
42	44	5
187	187	10
44	44	4
72	72	7
178	178	5
43	89	5
67	89	1
17	17	4
0	3	4
155	155	1
160	160	11
35	35	1
6	30	3
175	182	1
191	191	2
131	133	2
117	118	4
145	145	6
43	72	1
146	146	6
134	135	1
16	35	3
8	28	6
61	69	2
134	147	1
9	9	6
32	58	2
103	139	1
95	118	1
87	87	6
138	164	2
63	90	4
68	68	3
175	175	10
16	16	10
137	137	9
53	53	19
124	151	2
31	89	2
126	126	7
193	193	6
3	3	7
8	37	2
151	158	1
39	39	5
112	112	14
169	169	4
22	22	1
185	188	1
104	104	6
60	60	7
114	114	2
192	192	11
12	12	5
71	71	11
96	96	8
116	116	7
102	102	9
82	82	10
52	52	8
38	38	10
27	59	5
132	132	5
28	69	5
31	31	11
176	177	9
6	6	5
41	41	10
127	129	6
57	112	3
195	195	1
172	174	3
20	38	2
188	189	3
162	163	2
11	194	2
45	45	4
197	197	2
49	126	1
89	89	3
31	107	3
50	50	5
8	8	8
18	44	4
69	69	13
152	152	9
151	163	2
54	55	19
111	111	8
89	90	3
7	7	9
141	141	6
139	139	2
28	107	2
37	37	2
90	157	1
1	1	4
55	55	10
53	70	7
141	143	2
130	139	7
102	149	2
21	21	3
170	171	4
176	179	1
131	131	10
40	40	2
25	182	3
62	63	2
52	61	3
119	120	9
127	127	7
41	56	2
15	80	5
96	140	2
64	68	2
41	43	2
51	61	2
64	86	2
170	181	3
183	184	3
149	149	11
183	196	5
83	83	11
134	136	6
194	194	3
161	161	5
168	185	4
38	45	2
63	105	5
79	79	3
177	180	1
153	159	4
103	120	1
77	77	5
97	97	10
14	14	11
24	24	3
28	28	4
84	85	2
37	59	4
2	2	10
187	192	2
9	10	3
1	4	4
164	181	1
173	174	2
167	167	10
109	109	6
186	190	2
110	113	1
54	80	5
165	167	2
52	68	3
59	64	3
177	182	1
139	140	4
192	193	6
7	8	18
59	66	2
29	32	4
174	174	2
39	41	3
107	108	1
100	159	2
162	162	5
28	34	1
136	136	6
119	119	9
108	158	1
16	80	2
3	187	6
101	101	2
49	85	4
54	56	6
74	74	4
89	105	2
181	181	10
2	10	2
191	192	3
54	54	9
140	146	1
28	52	5
169	170	1
56	56	1
186	186	9
34	34	8
109	124	2
99	99	7
167	180	5
33	33	2
13	13	5
34	35	5
164	164	2
40	72	1
34	40	5
37	38	4
26	34	1
98	104	1
32	32	6
73	73	7
19	19	15
4	7	1
27	27	6
144	144	1
11	11	6
194	195	2
79	82	3
147	147	6
8	11	4
176	182	2
98	134	2
141	142	1
49	76	1
103	135	7
151	151	6
168	168	5
36	48	4
69	70	4
196	196	8
123	123	4
11	12	2
161	165	3
3	6	4
28	30	3
105	105	2
20	21	4
37	42	2
106	106	5
21	22	1
174	182	2
107	107	5
59	59	2
172	172	7
82	83	2
88	88	7
142	142	5
4	6	5
102	139	1
176	178	2
38	44	4
125	125	6
190	195	7
81	85	3
65	65	7
48	73	4
52	56	1
75	76	2
104	124	1
63	123	2
18	84	2
12	13	1
29	61	5
132	140	5
110	127	2
90	93	2
82	85	2
26	26	8
126	142	3
86	87	1
41	44	1
173	177	1
96	117	5
143	145	2
36	36	18
113	113	6
110	112	1
113	152	3
96	97	1
179	182	4
186	189	1
52	64	1
61	61	1
100	145	1
18	28	2
81	86	3
106	114	3
13	42	1
126	161	1
124	155	2
6	10	1
74	77	2
46	88	5
156	164	2
98	98	8
106	108	2
60	61	3
155	162	2
102	163	3
22	53	1
160	161	5
95	97	2
176	191	1
102	148	3
70	70	4
111	116	3
47	50	3
169	182	2
30	30	7
116	118	3
122	149	2
103	103	6
29	29	3
193	194	4
135	138	1
31	32	1
109	110	3
133	133	4
58	58	3
42	45	1
127	128	1
158	158	3
3	26	2
166	185	2
74	112	4
75	78	1
125	129	2
14	17	1
140	140	10
9	80	2
7	37	2
124	125	1
176	176	1
110	160	5
166	178	2
136	137	3
20	74	3
108	110	2
114	184	1
46	68	1
98	100	6
115	118	2
172	175	3
64	65	2
107	115	2
143	169	1
171	184	2
5	5	3
42	74	1
23	80	1
9	197	1
28	35	2
100	135	2
95	95	5
4	5	3
96	104	2
56	57	2
134	178	3
102	161	1
114	118	1
164	177	1
100	176	2
34	52	1
103	106	2
99	101	2
128	141	1
113	123	2
186	188	1
12	197	1
127	150	2
182	183	3
155	169	1
121	142	4
25	25	5
183	192	3
183	183	2
46	89	2
152	155	3
132	135	4
126	147	2
5	14	1
85	85	3
132	137	4
63	63	2
85	87	3
171	173	2
41	51	3
111	154	1
81	83	1
10	10	5
117	117	4
34	36	2
159	162	1
186	192	1
156	159	1
19	30	5
109	113	5
100	177	2
65	69	3
10	108	2
107	109	2
8	17	2
39	42	3
108	146	1
115	115	4
32	33	6
16	77	1
59	150	1
171	176	1
124	124	3
126	128	2
58	61	1
165	165	3
141	147	3
50	63	1
142	167	1
177	177	1
103	104	2
6	8	5
136	143	2
20	20	3
40	41	2
97	146	1
36	37	1
107	113	1
20	22	2
14	39	2
110	148	1
62	66	1
6	74	1
102	111	2
70	72	4
76	80	2
84	84	3
110	110	1
16	33	1
55	58	1
107	114	1
126	143	2
23	43	2
46	84	1
61	62	1
152	153	1
117	121	1
171	185	1
149	169	1
148	148	1
149	170	2
180	180	2
80	80	2
47	79	2
9	23	1
115	155	2
146	163	2
157	158	2
25	57	1
0	0	1
157	159	1
150	159	4
78	82	2
167	168	1
46	46	2
98	118	2
37	40	1
153	153	4
81	81	3
142	144	1
25	26	2
101	145	3
65	96	1
97	158	1
34	53	2
175	181	1
67	86	2
4	4	3
154	156	1
41	66	1
32	86	2
171	172	1
141	148	2
0	42	1
93	94	1
116	123	1
165	168	1
5	187	2
45	90	1
47	49	1
76	113	1
108	109	1
36	46	2
168	169	2
127	132	2
34	68	1
108	148	1
84	90	1
144	145	1
188	188	4
11	192	1
193	196	2
124	132	3
50	59	1
85	89	3
139	148	1
149	194	1
103	115	1
138	138	4
109	111	4
10	11	1
52	59	4
95	98	1
5	22	1
133	176	1
38	39	1
103	112	1
161	163	1
151	156	1
80	112	1
51	51	1
35	36	1
1	2	2
71	72	1
51	69	3
124	163	1
29	67	1
189	192	1
145	160	1
30	31	1
9	11	2
0	4	1
32	41	1
31	33	1
124	135	1
4	37	1
76	76	2
13	27	1
18	186	1
149	178	1
76	77	1
105	111	1
16	38	1
182	182	1
178	179	1
123	125	1
169	173	1
105	143	1
179	183	1
45	71	2
47	51	1
31	81	1
26	38	1
32	40	1
122	122	1
50	56	2
30	189	1
173	176	1
44	45	1
1	36	1
47	47	1
19	39	1
102	138	1
3	196	1
9	45	1
75	75	1
101	118	1
38	42	1
53	108	1
5	7	1
