133	134	5
49	50	4
10	12	5
80	84	6
13	13	15
21	24	5
52	52	13
118	142	2
169	170	11
9	32	1
134	134	2
109	110	5
16	16	5
9	9	9
23	27	3
54	55	4
55	57	1
108	145	3
16	17	8
64	64	15
9	25	3
185	185	17
22	24	2
187	187	9
132	132	5
181	181	11
63	74	2
132	149	5
128	129	1
145	146	1
71	71	5
158	158	9
115	115	8
119	120	1
192	192	6
148	149	8
3	3	11
125	182	4
94	95	1
48	48	13
141	141	14
113	113	9
66	68	3
153	153	11
136	138	3
35	35	4
131	161	3
86	88	2
19	19	15
136	140	1
114	117	7
10	33	6
154	167	2
95	95	7
28	28	7
135	138	6
103	104	2
120	120	9
161	161	10
100	100	6
161	180	1
185	186	8
101	101	5
167	167	10
56	78	3
157	157	15
38	38	7
85	85	6
111	111	7
109	109	11
151	151	3
160	160	5
133	188	9
84	84	10
182	183	6
149	150	3
79	84	5
75	75	3
40	41	8
106	106	5
136	136	15
118	118	5
134	135	1
60	60	8
8	8	3
13	62	2
65	65	5
43	45	6
1	1	7
5	6	13
74	74	12
54	54	6
59	59	7
58	58	15
31	31	7
120	121	6
27	27	8
48	55	5
63	73	3
62	62	8
110	110	5
113	142	6
42	55	6
29	29	10
17	18	2
47	47	7
3	23	4
187	188	5
19	90	2
124	124	1
122	128	4
104	104	6
97	98	2
95	96	9
152	152	8
186	187	1
102	104	4
176	176	7
143	144	4
86	95	2
43	44	1
64	65	4
174	175	3
39	40	4
33	44	1
139	140	8
127	127	10
133	133	6
49	49	4
15	15	5
12	12	11
123	182	1
186	186	3
188	188	8
46	46	6
97	99	3
11	33	4
53	54	8
159	159	5
112	114	10
108	109	3
123	123	5
66	66	6
130	130	4
107	107	1
183	183	9
34	34	2
133	150	2
36	36	3
177	178	6
69	95	2
51	53	4
194	195	2
15	16	5
57	57	4
53	53	11
108	110	3
137	137	6
23	28	3
63	63	1
21	21	2
179	179	7
94	94	3
11	54	3
18	89	5
151	152	7
88	89	5
18	19	3
10	10	7
178	178	8
13	33	5
146	146	6
4	4	6
105	105	6
4	29	1
69	69	2
59	61	4
193	193	9
13	34	3
68	68	2
29	49	3
192	193	1
175	175	7
154	154	8
33	33	8
171	171	2
100	168	2
123	125	4
174	176	8
95	107	3
29	30	4
50	51	4
59	60	2
73	74	1
115	144	4
11	11	4
124	130	3
126	126	3
112	113	6
45	45	13
66	96	2
37	37	13
83	83	3
107	145	1
50	50	6
128	128	5
70	168	3
155	157	1
25	26	2
82	86	7
163	165	1
125	126	1
67	107	1
132	187	5
153	168	5
156	158	3
41	41	3
89	89	4
170	172	1
114	115	3
166	166	7
117	118	1
93	110	2
112	112	5
148	148	4
17	17	1
20	20	4
23	23	5
77	78	2
149	184	3
81	83	2
77	77	6
60	61	4
138	138	5
168	169	3
162	192	2
96	97	6
182	182	2
184	184	5
173	173	5
131	193	2
70	70	13
2	2	3
14	14	7
62	63	1
139	147	1
117	117	2
146	147	2
98	98	3
40	40	7
156	156	6
131	131	4
162	162	4
143	145	4
61	61	12
65	66	4
136	137	5
11	43	4
137	138	7
72	72	6
87	96	2
13	17	4
150	150	4
58	63	1
149	149	5
110	111	6
51	51	2
143	143	7
22	22	5
168	168	5
158	159	2
20	89	3
14	15	7
115	142	2
155	156	2
103	106	3
67	108	1
76	77	3
135	135	3
77	79	1
4	24	1
170	170	8
41	47	2
34	35	1
106	107	3
32	33	4
60	62	1
130	160	2
173	174	3
116	116	1
42	42	7
194	194	7
6	6	4
103	103	3
37	38	3
43	62	4
12	13	2
10	13	2
125	125	9
13	63	2
142	143	9
73	73	4
14	18	4
105	142	3
14	64	6
142	142	5
124	125	2
64	72	2
56	56	4
55	55	2
14	65	1
130	158	1
190	190	2
156	157	7
98	99	1
36	46	1
11	34	2
121	121	2
0	0	8
4	25	2
48	60	2
105	144	1
195	195	1
196	197	3
127	182	3
132	150	2
83	85	5
43	43	5
82	85	4
79	79	3
103	114	1
93	93	5
186	193	2
166	167	5
54	56	3
161	178	1
172	172	1
155	155	3
9	14	2
51	52	4
80	80	4
16	79	1
144	144	1
141	152	4
189	189	2
122	122	6
147	148	1
187	192	2
139	139	1
116	117	1
55	56	7
107	113	1
189	191	2
0	79	2
71	72	7
97	97	4
24	24	2
15	17	2
96	96	3
4	30	1
37	45	1
27	28	1
152	153	2
100	101	3
177	177	5
124	182	3
20	21	3
78	78	1
80	81	2
69	107	1
7	7	3
69	114	1
61	62	5
119	119	4
120	123	3
40	46	1
197	197	2
8	26	1
70	71	1
166	172	2
66	107	3
31	32	1
180	180	3
9	10	4
148	186	2
164	164	2
70	99	2
140	140	1
133	151	2
87	87	1
175	176	3
12	14	2
25	25	1
126	127	1
119	183	1
4	27	2
169	169	3
167	168	2
36	39	2
42	43	1
115	116	1
141	145	1
9	28	3
101	153	2
178	179	1
108	108	1
106	114	1
81	81	1
90	90	1
131	160	2
26	26	3
44	44	2
132	186	2
155	169	1
101	105	1
174	174	3
15	18	1
5	26	2
113	141	1
7	8	1
191	191	3
171	174	1
179	180	1
44	45	2
84	85	1
78	79	1
164	165	1
76	76	3
50	54	1
57	58	1
160	163	1
114	114	1
141	142	1
13	74	1
193	194	1
74	75	1
129	129	2
196	196	1
162	178	1
48	59	1
19	22	1
23	24	1
123	130	1
191	192	1
35	36	1
