84	84	12
107	107	21
93	93	7
101	111	1
14	14	5
87	87	6
108	108	8
124	150	2
14	37	2
94	94	9
34	90	3
128	128	3
76	77	5
134	134	14
39	39	9
122	122	16
17	57	3
105	105	17
62	62	8
91	154	11
153	166	7
63	77	3
66	118	5
19	19	11
8	9	3
166	166	11
78	93	2
95	98	1
7	7	6
91	91	10
131	131	7
37	37	9
14	35	4
162	163	5
89	132	2
23	23	11
114	114	5
13	13	9
152	152	7
54	54	4
6	7	6
18	18	16
97	169	3
38	38	11
71	71	7
8	8	4
3	3	8
170	170	5
106	106	16
20	56	3
101	101	13
159	159	17
26	28	2
4	4	8
137	137	17
88	89	4
64	76	3
164	164	7
138	138	7
45	45	10
106	107	8
132	157	4
163	163	9
102	105	1
100	156	3
100	100	11
100	102	3
69	69	9
43	43	6
64	64	11
48	48	11
109	109	3
58	58	1
82	82	14
96	96	10
81	82	11
136	136	8
12	14	1
129	130	3
86	86	7
110	110	9
42	43	3
0	34	3
141	141	5
142	154	4
66	66	10
68	140	2
160	160	16
144	152	8
164	165	6
79	120	1
106	114	9
169	169	22
90	90	12
147	165	2
98	98	18
2	63	1
6	6	11
165	165	12
67	136	2
126	127	9
45	130	3
42	42	20
82	100	4
130	130	17
22	22	8
146	146	9
111	111	2
81	122	5
97	97	10
77	163	1
94	140	3
36	36	16
23	55	3
37	38	3
166	167	2
11	11	14
5	5	10
151	151	8
37	39	3
39	63	4
52	53	7
140	141	6
85	85	5
78	162	6
167	167	2
103	103	10
99	139	1
116	116	6
84	124	1
82	84	2
78	79	3
147	147	5
74	74	7
91	153	1
26	27	2
86	87	5
112	112	14
49	55	3
18	19	2
21	56	6
124	124	6
1	71	4
168	169	3
9	9	8
70	70	5
145	145	8
49	49	6
39	77	2
82	152	3
8	15	3
58	72	2
126	126	5
152	153	3
78	78	4
28	51	3
41	41	11
144	146	1
14	55	3
67	67	8
123	124	7
77	77	3
46	46	9
22	53	3
41	42	1
140	140	6
132	132	14
105	106	2
139	157	1
157	157	4
121	121	11
4	63	1
5	8	4
88	124	5
76	76	4
95	95	6
34	34	5
44	44	21
21	21	7
72	72	14
119	119	5
79	121	4
46	48	1
158	158	1
101	158	4
94	119	3
1	2	2
40	62	3
0	4	5
1	57	3
68	69	4
118	118	9
11	24	3
153	153	9
63	144	3
6	64	2
34	138	3
33	135	2
53	53	11
94	95	8
76	93	1
135	135	5
155	166	7
27	27	8
77	144	1
151	152	4
143	143	15
51	51	8
76	79	3
39	45	1
144	144	9
47	47	9
88	88	11
15	15	8
130	157	1
1	1	13
20	52	3
57	76	1
3	151	3
99	102	2
148	148	7
154	154	3
80	120	2
89	89	10
92	119	2
69	137	4
0	1	1
81	81	14
49	51	2
51	55	3
155	155	13
80	80	10
50	50	5
83	83	12
86	88	5
25	25	8
22	23	1
99	99	7
84	87	1
162	162	10
56	56	7
132	156	1
144	145	10
23	24	2
135	155	1
127	151	3
138	159	7
50	51	3
113	115	1
142	142	4
123	123	4
109	110	5
22	55	2
70	140	2
69	133	4
155	167	4
78	80	1
46	47	5
11	73	1
139	139	3
128	129	3
10	12	1
33	33	10
102	103	5
127	169	2
49	50	4
92	118	2
17	27	3
78	168	4
166	169	5
76	137	2
70	72	1
75	76	1
1	58	4
17	18	6
7	97	1
96	97	6
17	17	10
34	47	2
80	143	3
69	70	3
24	24	7
44	45	1
12	74	1
6	58	2
128	132	2
67	68	2
141	159	4
5	54	1
18	70	2
69	139	1
111	112	2
75	77	3
93	94	1
72	73	2
134	135	1
16	49	1
140	159	2
13	36	2
69	82	2
71	76	2
161	161	8
156	156	8
133	133	6
104	106	4
78	143	2
35	35	6
22	24	1
104	104	7
103	113	2
69	128	1
140	165	1
119	132	3
141	169	1
10	10	10
162	164	2
150	150	2
148	149	2
3	125	7
13	21	2
92	92	2
97	147	5
161	164	1
2	4	6
69	119	1
91	129	1
103	104	5
0	0	1
12	12	2
91	168	2
79	162	3
2	2	8
101	102	2
96	99	5
94	130	1
14	38	2
127	127	6
139	164	4
115	127	2
128	165	4
140	142	3
114	115	1
139	147	3
48	57	1
12	13	1
5	11	2
117	118	1
40	40	9
112	135	1
112	114	1
134	156	3
143	144	1
129	143	2
9	10	4
125	125	10
3	76	2
104	113	2
140	168	3
117	121	1
40	41	1
131	151	1
71	112	1
57	57	5
129	151	1
57	62	2
65	66	2
3	134	1
101	154	2
94	147	1
138	139	1
33	34	3
114	158	1
27	50	1
141	168	2
126	128	2
95	96	1
89	133	2
123	127	1
101	103	1
117	120	3
44	139	2
54	55	2
91	92	2
45	46	4
15	16	4
102	102	3
66	67	4
13	73	1
155	157	4
69	72	2
70	158	2
133	134	4
144	151	1
82	85	3
79	79	4
6	62	2
33	134	4
66	139	1
129	129	1
16	56	2
70	103	3
17	19	1
101	104	2
16	16	4
152	159	1
91	100	1
35	36	1
42	88	2
124	125	2
136	137	1
131	132	1
70	159	3
47	48	1
102	117	1
65	67	1
97	139	1
11	12	1
105	113	3
122	126	3
95	162	2
125	126	3
114	117	1
105	107	2
113	113	6
162	166	2
63	63	4
26	26	4
164	170	4
144	165	1
128	131	2
7	15	1
159	161	1
48	49	3
39	40	1
160	163	2
76	80	1
139	140	3
0	35	1
52	133	1
45	66	1
4	80	1
110	112	3
146	154	3
14	15	1
112	127	1
2	70	1
71	118	2
10	13	3
115	115	1
90	91	2
155	158	2
108	109	1
157	163	2
68	131	2
92	120	3
115	116	1
165	166	1
52	52	1
11	75	1
3	138	1
82	91	2
75	75	1
93	168	1
98	147	1
95	145	2
91	99	2
73	73	3
67	69	1
102	155	1
82	83	2
105	116	1
107	108	1
4	67	1
14	34	1
145	151	2
121	122	1
169	170	1
119	149	1
89	90	1
89	151	2
122	123	2
39	145	1
69	141	1
37	41	1
141	160	1
34	38	1
80	92	1
55	55	1
85	86	1
90	114	2
84	123	2
11	16	1
7	27	2
78	121	2
159	166	1
142	144	2
15	38	2
18	25	1
100	155	1
81	121	1
143	156	1
20	20	1
106	111	1
120	126	1
65	65	1
65	136	1
161	166	1
66	71	1
13	55	1
