140	140	10
68	68	19
174	174	11
83	83	11
56	56	11
110	124	4
34	34	7
72	72	11
134	134	14
104	105	1
131	131	11
45	121	4
176	176	9
16	18	2
41	125	4
149	150	5
33	35	5
13	21	2
122	122	9
10	10	4
89	89	3
135	135	6
52	53	3
84	85	10
171	171	2
14	15	4
140	141	6
160	160	11
112	112	12
4	4	12
90	165	1
105	106	8
85	85	14
26	26	7
167	169	3
77	184	2
123	123	17
58	65	2
83	84	2
91	133	2
102	102	3
153	154	9
162	163	2
166	167	4
133	133	2
136	137	3
124	124	3
137	137	2
27	28	4
55	55	14
76	128	2
108	115	4
31	32	3
156	156	9
20	20	12
187	187	12
75	128	3
96	96	7
164	164	16
86	87	4
2	2	9
40	41	1
47	47	13
133	134	4
158	159	5
57	57	7
15	15	4
185	185	11
172	174	1
153	153	7
161	161	8
178	178	3
4	5	3
73	73	5
92	92	8
32	32	2
106	106	7
97	97	10
107	107	8
76	124	2
109	109	8
71	72	1
176	190	2
6	6	7
114	117	3
142	143	12
151	151	2
30	71	2
175	176	6
62	65	1
145	145	6
52	52	8
130	131	2
110	110	12
125	126	5
118	118	7
188	190	5
87	87	3
155	155	11
150	151	1
75	75	4
102	103	6
128	129	3
101	102	4
134	137	2
129	136	3
137	165	5
45	45	7
12	13	11
103	104	8
169	169	7
12	12	5
12	24	4
28	37	8
75	99	2
118	119	7
108	114	6
93	93	13
158	158	8
95	97	2
52	55	3
60	60	4
148	148	10
7	7	8
19	47	4
168	168	5
184	184	7
101	101	7
97	98	7
163	163	7
78	78	15
61	61	11
71	71	8
42	43	2
47	48	5
40	40	6
66	66	3
36	37	4
95	95	3
15	17	4
149	149	14
158	160	2
69	74	1
159	159	3
154	155	3
148	150	1
141	144	2
17	20	3
184	185	3
31	31	6
94	94	10
142	161	4
24	24	9
10	11	7
76	76	7
110	111	6
3	3	6
17	17	8
175	175	8
82	82	5
80	174	2
131	135	5
183	184	2
54	54	6
167	167	6
130	130	2
16	16	8
63	63	4
58	58	3
138	138	8
80	81	6
86	164	2
13	13	3
190	190	7
41	74	1
152	153	2
147	147	5
18	18	5
59	59	10
92	106	1
76	125	2
105	110	2
108	108	11
1	1	8
43	43	1
181	181	3
32	33	5
64	64	8
27	29	3
58	59	6
27	34	1
105	145	2
26	29	2
114	114	1
18	19	2
21	21	8
100	100	7
58	66	2
166	166	5
152	152	7
78	79	5
59	65	3
68	94	2
40	99	1
42	42	8
80	173	4
105	105	8
107	111	5
6	158	7
144	144	4
0	1	5
37	37	4
154	154	2
46	46	1
63	65	4
159	160	4
132	171	1
135	189	2
119	120	2
5	6	2
157	157	10
115	115	2
94	95	4
93	94	3
106	109	3
35	35	4
77	78	4
173	174	1
21	22	3
8	8	7
81	81	2
54	55	3
41	41	6
88	89	5
130	180	3
133	135	4
103	103	7
43	46	4
128	128	2
0	0	2
150	150	6
104	104	4
65	65	4
175	190	4
39	39	6
67	68	3
170	170	4
176	179	3
114	116	2
106	136	2
26	27	2
93	106	2
22	22	6
95	100	5
98	98	5
46	47	3
133	164	1
89	153	1
180	180	7
90	90	4
183	183	5
186	186	8
117	117	3
81	175	2
144	145	1
38	39	9
138	139	2
77	77	4
137	148	3
32	37	1
176	178	2
48	75	1
120	120	5
91	92	2
30	31	2
46	122	1
93	108	1
125	125	3
142	142	2
91	91	5
123	124	8
188	188	10
12	122	4
38	61	1
38	38	6
127	127	2
30	30	1
19	20	2
42	120	3
137	164	2
182	185	4
146	146	7
60	61	2
137	150	2
88	88	6
165	165	3
54	122	4
143	143	3
89	90	2
8	98	3
161	162	2
19	23	1
163	164	1
90	91	1
16	44	1
156	159	2
65	66	2
44	46	1
27	27	3
56	96	2
40	75	1
22	73	2
23	23	1
96	98	1
115	116	4
85	86	2
94	111	6
43	45	4
66	68	2
41	124	2
59	60	1
84	84	2
141	142	1
146	148	6
39	64	1
67	67	4
28	28	1
55	56	2
20	21	2
136	150	2
187	189	2
179	179	2
88	129	1
177	188	1
138	145	3
43	47	3
93	112	1
154	156	3
93	111	1
35	37	1
164	165	3
116	116	2
134	135	4
62	62	3
139	139	8
111	111	4
4	6	2
80	80	3
143	144	1
172	172	2
5	5	2
55	112	1
25	25	1
173	173	4
91	129	2
53	123	1
185	186	3
93	95	2
74	74	3
110	117	3
99	99	5
91	131	1
63	64	2
79	79	1
135	171	1
68	112	1
35	36	2
176	177	2
79	186	1
14	44	2
171	173	2
143	153	1
23	24	1
43	44	2
16	17	2
86	140	1
7	8	1
129	129	1
140	162	3
111	113	1
29	34	2
178	179	1
182	182	4
116	180	2
8	99	1
88	184	1
126	126	1
86	86	3
38	94	1
142	153	2
53	53	4
78	184	1
146	147	4
6	7	2
22	23	1
99	100	1
34	37	1
82	83	1
180	181	3
121	122	3
119	119	1
174	175	1
171	174	1
118	178	2
28	29	1
126	127	2
17	18	3
45	122	1
77	183	2
62	63	3
188	189	1
167	168	1
123	125	1
182	183	1
113	113	1
34	35	1
121	121	1
163	165	1
25	26	1
116	181	1
22	25	1
109	127	1
89	162	1
148	149	1
141	162	1
177	187	1
178	180	1
44	44	1
33	33	1
