55	55	1
113	113	6
107	107	2
12	13	3
93	94	6
65	65	9
56	56	9
15	15	3
69	69	3
59	61	4
49	49	3
17	17	9
62	62	3
4	4	2
44	44	6
23	23	5
7	7	8
10	15	3
19	20	5
48	48	4
102	109	1
17	47	3
118	118	5
59	62	2
6	6	7
126	126	3
64	64	3
91	112	3
72	72	6
37	38	4
125	125	6
126	129	4
83	83	5
122	124	4
112	113	4
80	80	8
66	66	9
67	67	8
112	112	1
57	57	2
9	9	10
104	105	5
16	16	2
103	105	2
47	47	10
119	119	7
93	93	4
5	5	10
76	76	3
0	0	3
14	14	4
79	79	7
129	129	2
75	75	5
127	127	11
16	30	3
31	31	2
59	59	2
115	116	2
77	83	4
15	16	10
26	26	2
128	128	4
8	47	2
20	20	1
82	83	5
50	102	5
44	46	1
46	46	4
14	49	1
123	123	4
77	82	3
94	132	2
38	39	1
111	111	1
92	93	3
63	63	1
4	26	1
122	122	7
33	33	1
68	70	1
119	125	5
45	46	1
94	94	4
131	134	1
124	131	3
56	132	2
85	85	3
41	45	3
73	73	6
26	31	3
68	68	5
79	80	5
127	129	4
28	28	4
114	115	3
3	9	1
69	70	1
120	128	4
124	133	8
114	114	5
134	134	3
121	128	1
11	11	3
77	77	3
74	74	3
92	134	2
131	131	3
1	2	1
18	18	2
74	75	6
99	99	5
21	21	1
61	61	3
73	74	2
85	93	2
121	126	5
90	91	3
88	88	1
64	66	1
78	78	1
91	91	1
109	111	4
57	100	3
10	10	1
41	41	1
110	110	2
117	117	2
68	76	3
17	18	2
39	39	5
124	127	1
61	99	1
133	134	2
72	76	1
106	106	2
13	13	1
67	111	1
90	112	3
70	70	1
24	24	3
19	22	1
96	96	2
129	130	1
18	82	3
20	22	1
85	86	4
17	20	1
25	25	1
101	101	3
62	63	2
84	85	3
35	36	2
104	109	1
45	45	1
40	40	1
47	66	2
97	97	1
130	130	2
45	73	1
86	92	1
121	121	1
43	43	1
87	87	1
33	34	1
3	3	1
20	21	1
48	102	1
12	12	3
57	61	2
10	11	1
104	104	1
80	116	1
64	65	4
33	36	1
90	90	1
120	120	1
116	116	1
119	120	1
127	128	1
63	64	1
