71	71	12
19	21	3
148	148	4
16	39	2
37	37	6
149	150	2
46	49	1
8	8	3
121	134	4
111	111	2
85	90	2
23	36	1
7	7	3
67	67	9
66	66	7
93	95	5
19	42	2
109	122	4
123	126	3
94	102	2
123	134	1
13	16	6
25	25	11
124	124	2
121	135	5
75	81	1
74	78	3
3	27	2
151	153	4
104	105	3
77	94	1
113	113	11
130	146	6
84	85	3
66	72	2
104	119	1
129	129	4
15	15	11
36	48	1
8	25	2
51	52	2
27	36	2
135	135	5
12	12	1
85	85	7
22	23	3
48	49	6
104	111	4
98	99	5
63	64	2
63	63	2
136	136	2
4	11	2
99	104	3
75	98	4
132	132	9
54	54	7
50	53	3
149	149	10
28	48	2
80	84	3
79	79	9
144	145	1
21	41	2
26	26	6
96	112	5
143	149	9
36	36	5
31	32	2
3	3	5
108	108	3
63	74	2
68	68	4
81	81	3
102	103	5
152	153	3
93	93	1
30	33	2
116	116	5
131	142	4
98	105	1
63	73	5
64	77	6
18	19	2
49	65	5
6	13	2
121	124	2
142	142	4
150	150	17
127	127	4
21	21	5
7	19	3
40	40	13
118	133	1
53	53	2
120	120	5
103	144	4
33	34	2
122	149	4
73	76	3
110	110	4
37	50	3
75	75	1
3	13	1
125	128	1
64	67	3
37	39	3
28	39	2
17	36	1
15	16	1
92	92	6
138	138	4
125	126	3
107	134	3
107	116	4
45	46	2
131	131	7
51	51	3
38	38	3
13	13	8
16	19	6
125	125	3
6	6	13
99	102	2
93	106	1
13	36	3
117	122	3
151	151	2
43	43	8
6	8	2
96	97	4
106	114	4
76	77	5
136	144	3
138	149	2
143	143	4
67	83	1
7	8	4
9	10	1
91	91	3
99	99	7
145	145	6
134	134	4
64	78	3
119	135	1
109	109	1
73	121	2
145	149	1
118	142	1
112	114	2
36	39	1
82	82	3
137	140	1
14	14	4
144	150	5
14	16	5
23	33	5
80	81	1
139	141	3
111	125	2
77	92	4
139	144	7
24	36	2
81	106	1
62	68	5
119	119	4
130	130	6
97	105	4
142	154	1
24	24	1
34	44	5
100	100	5
5	11	4
89	93	1
149	151	5
18	32	2
120	122	4
2	17	2
28	28	3
97	97	4
30	30	5
5	5	2
39	39	4
32	32	3
77	82	4
67	71	4
114	114	7
75	121	2
96	102	1
20	20	4
117	118	2
123	125	1
129	140	3
119	139	4
73	145	2
12	17	2
23	23	3
24	29	1
68	83	1
87	87	8
17	17	4
55	56	3
111	120	5
47	47	5
107	107	4
154	154	2
42	43	2
9	11	4
21	25	6
123	146	2
131	132	2
56	56	4
3	7	3
54	57	2
73	84	2
21	23	5
110	114	2
22	22	6
98	98	6
77	77	6
55	55	6
110	113	3
87	107	1
54	55	2
15	24	2
133	146	4
75	76	1
140	141	1
106	116	1
78	81	2
21	22	1
114	115	4
44	47	2
101	117	1
137	139	2
140	140	2
152	152	2
26	40	2
123	124	1
42	42	7
4	4	6
96	108	1
141	151	7
28	29	4
76	76	7
96	96	5
106	106	3
73	85	1
117	136	3
20	24	2
11	11	1
90	90	1
94	94	2
30	32	3
13	22	1
3	6	3
39	48	3
46	46	5
81	143	1
83	84	2
102	110	1
49	69	2
45	45	1
93	94	2
78	150	1
23	38	3
5	24	1
109	117	4
3	4	1
96	104	2
144	144	8
86	103	1
24	25	2
19	24	2
21	31	1
62	63	2
84	84	3
15	50	2
54	56	1
83	85	1
128	129	1
9	9	3
139	140	1
35	35	1
12	22	4
95	95	1
70	73	4
115	117	2
137	138	2
130	136	4
141	141	5
118	136	2
146	150	1
26	27	4
128	147	1
65	82	4
39	40	3
70	70	3
128	128	1
111	113	1
26	41	4
104	115	3
36	37	3
4	10	2
139	146	2
10	10	1
75	105	1
79	94	1
14	17	4
138	147	1
12	13	2
72	82	5
66	83	1
146	148	1
117	142	1
9	33	1
130	131	4
147	147	1
112	123	3
103	103	6
63	65	2
17	31	1
11	13	2
71	79	1
64	64	3
18	18	4
16	29	1
47	48	1
6	23	1
67	68	1
124	125	3
94	96	2
134	135	2
129	137	2
30	43	1
14	109	1
106	119	1
151	152	2
138	142	2
30	45	1
25	37	1
141	149	4
5	23	1
90	92	1
49	49	5
127	128	2
69	70	3
16	21	2
100	105	1
97	118	1
112	112	1
35	57	1
145	146	3
29	29	4
136	140	1
13	24	2
145	148	2
33	35	1
69	69	1
34	34	2
135	136	2
118	147	3
37	51	1
99	109	1
100	101	3
103	111	2
99	117	1
140	151	1
118	121	1
97	123	2
106	109	3
95	96	2
107	108	2
19	19	1
147	148	2
16	18	4
33	33	5
102	102	2
85	87	1
62	62	5
117	117	2
145	150	3
51	57	1
25	33	1
117	119	2
123	123	2
32	38	2
31	31	2
121	121	1
153	153	1
17	18	1
18	22	3
43	48	1
141	152	1
116	119	1
31	43	1
108	122	1
52	57	2
76	150	2
48	50	1
69	119	1
27	27	1
14	29	2
29	31	1
93	101	1
31	34	2
105	105	1
5	8	2
28	37	2
5	144	1
92	93	1
116	122	3
49	53	1
62	67	1
84	95	1
82	83	2
28	36	1
152	154	1
41	41	2
35	45	1
86	105	1
45	53	1
137	149	2
9	23	2
4	7	1
126	126	1
48	48	2
6	17	1
120	121	1
14	18	1
150	152	1
82	96	1
91	110	1
33	57	2
128	148	1
18	36	1
33	52	1
64	79	1
99	112	2
86	86	1
16	37	1
139	139	1
74	79	1
88	88	2
143	147	1
109	110	2
26	36	1
111	112	3
99	100	2
34	35	1
135	139	1
66	76	1
133	138	1
7	17	1
40	43	1
6	28	2
114	131	1
83	83	1
127	132	1
63	66	1
113	115	1
104	104	1
24	28	1
13	15	1
16	22	1
48	51	1
115	115	1
84	88	1
86	87	1
24	34	1
117	132	1
103	110	1
25	27	1
151	154	1
70	84	1
138	140	1
112	121	1
117	141	1
128	144	1
