206	206	3
220	220	3
162	185	3
95	97	3
78	78	2
39	39	3
203	203	3
82	82	6
81	81	3
18	18	1
237	237	2
161	161	1
12	12	9
47	48	10
44	44	2
238	240	6
59	60	3
54	54	2
14	49	1
173	176	5
212	212	1
2	2	4
183	184	8
220	221	3
23	23	2
196	196	3
14	15	4
72	72	2
21	21	3
95	95	5
234	235	5
50	50	4
79	79	4
81	87	1
45	45	3
79	83	1
68	68	5
98	98	4
153	153	7
201	201	7
96	96	6
112	112	6
173	173	5
160	162	1
40	40	7
85	85	7
36	36	3
8	8	1
21	215	2
6	224	5
53	53	8
43	44	2
200	200	12
224	224	4
97	97	4
91	91	3
215	216	1
1	42	1
151	151	4
168	218	1
55	56	1
91	116	1
88	88	11
168	168	2
45	53	5
181	181	6
33	33	6
26	26	10
35	35	7
111	111	8
239	240	3
43	43	4
3	154	1
31	31	7
10	10	3
231	231	10
204	204	4
168	170	5
61	110	8
237	246	3
115	115	8
245	245	5
156	156	3
116	116	1
178	178	4
62	62	5
41	41	4
5	159	5
94	94	2
0	2	2
191	191	6
26	27	1
185	185	6
214	215	3
211	212	1
225	225	10
7	7	3
38	228	1
66	66	2
152	152	4
31	32	3
67	67	1
171	176	1
228	229	1
7	9	1
77	77	2
207	207	3
89	90	2
236	236	6
205	205	4
19	19	10
9	9	6
93	93	2
219	219	2
51	74	1
178	199	1
164	164	3
197	197	3
64	67	4
1	148	1
221	221	1
169	170	1
34	34	4
169	169	2
27	27	4
155	155	3
223	223	4
1	2	2
106	107	1
238	238	2
188	194	1
159	159	3
20	29	2
164	169	1
192	192	2
15	15	6
89	89	3
74	75	1
29	31	5
29	29	6
162	165	1
63	63	4
31	226	2
114	114	7
162	186	3
147	147	4
55	55	2
167	167	1
32	32	4
21	214	4
209	209	3
11	11	4
175	175	4
193	194	1
6	7	1
180	180	10
86	92	5
3	157	1
52	52	3
178	179	2
100	100	2
202	202	5
65	67	3
201	202	3
4	4	4
52	53	1
235	236	3
154	154	3
173	217	2
176	176	2
96	98	2
64	64	1
146	147	1
39	213	3
6	6	1
187	188	1
202	203	3
213	228	4
66	67	1
35	36	2
223	224	4
171	172	2
21	24	2
61	61	4
110	110	2
63	110	1
51	52	2
189	190	1
38	38	2
73	73	1
24	24	3
1	1	3
210	210	1
174	175	1
38	39	1
30	30	1
177	192	3
247	248	1
183	183	3
60	61	2
20	20	2
171	178	3
8	229	1
246	246	3
79	84	3
5	162	1
184	184	5
118	119	1
240	240	3
47	47	1
104	104	1
28	28	2
120	120	1
6	165	1
170	170	5
85	86	2
64	68	1
40	41	1
3	150	2
229	229	2
219	225	1
2	3	2
36	37	1
64	65	2
229	230	2
77	78	2
149	150	2
107	107	1
203	213	1
80	80	1
7	184	2
18	19	1
49	49	3
87	87	2
39	40	1
233	233	2
46	46	1
176	199	3
215	215	2
163	164	1
214	214	1
84	84	1
11	12	1
25	25	1
106	106	2
117	117	2
225	226	2
31	225	1
227	227	1
244	248	2
175	176	1
26	55	1
187	191	1
56	118	1
177	177	1
177	199	1
171	171	1
32	33	1
203	212	1
26	78	1
236	238	1
248	248	1
235	235	1
196	197	1
37	37	1
226	226	1
71	71	1
162	163	1
240	241	1
213	213	1
179	179	1
109	110	1
70	77	1
60	60	2
177	179	1
