44	44	2
178	208	1
151	172	3
208	208	5
129	129	4
135	135	5
228	232	1
161	161	2
145	145	2
25	25	6
122	122	4
57	81	1
150	157	4
118	119	5
43	46	5
38	109	1
197	197	7
139	140	4
198	198	2
108	109	1
11	70	2
125	125	1
18	18	3
52	52	3
229	229	7
211	212	2
216	216	6
82	83	3
164	165	5
104	105	3
43	43	6
83	83	1
142	142	6
190	190	1
202	202	4
31	31	8
38	44	1
67	67	2
11	11	5
30	30	2
174	174	6
14	14	3
206	206	2
196	196	1
116	116	2
21	22	3
144	161	2
50	50	1
99	101	3
102	102	3
204	204	1
49	53	2
14	53	2
185	186	2
241	241	3
157	157	5
104	119	6
188	189	5
222	222	2
124	124	2
20	87	5
98	98	5
177	211	5
45	45	2
42	42	6
212	215	2
194	196	5
220	220	6
39	39	3
178	178	4
23	23	2
103	136	2
170	170	2
41	41	12
176	176	2
74	74	5
58	115	1
231	231	5
116	117	2
166	167	2
225	225	1
128	128	7
141	142	2
96	99	1
156	158	1
180	181	2
124	126	3
219	219	2
57	58	1
15	15	5
242	242	6
68	69	3
106	106	1
71	71	2
147	148	2
37	39	2
138	139	2
161	162	3
68	68	5
166	166	2
46	46	3
54	55	2
5	7	4
20	20	3
12	13	6
27	27	3
172	172	5
165	167	1
6	7	5
39	42	3
148	148	5
76	78	2
188	188	3
239	239	4
69	69	8
230	230	1
69	70	1
209	210	1
235	235	1
195	195	4
159	159	1
40	40	1
37	37	2
152	152	1
158	158	1
237	237	2
226	226	5
62	71	1
211	211	2
127	131	1
203	203	4
80	80	2
2	2	3
78	79	9
37	122	2
17	56	2
221	223	1
84	85	2
103	133	2
84	84	3
66	66	3
122	125	2
178	179	1
57	57	4
95	136	3
236	238	1
28	154	2
212	212	4
209	209	3
169	169	3
177	177	3
16	16	3
10	10	1
66	68	4
65	68	6
209	211	1
21	21	4
77	77	2
82	84	1
34	34	1
213	213	1
193	200	2
10	11	7
144	144	3
189	228	3
136	136	1
167	167	1
61	62	1
101	101	1
108	108	1
58	59	1
81	84	1
183	183	8
57	72	4
76	76	3
207	208	1
24	109	1
203	204	1
120	120	1
28	28	2
105	113	2
166	214	4
1	4	4
153	153	1
97	97	1
238	238	4
49	51	1
107	107	1
134	134	1
49	49	2
72	72	1
123	123	3
79	80	2
57	82	1
236	236	1
40	42	1
114	115	2
74	114	2
150	150	3
232	232	4
55	113	2
169	171	2
223	224	1
54	54	1
160	160	1
191	216	1
179	182	1
240	240	3
85	86	1
4	14	2
97	154	1
120	127	4
201	201	1
185	185	1
189	211	1
214	215	2
217	219	2
11	62	3
151	151	2
19	121	2
119	119	4
18	41	1
125	196	2
224	224	1
61	61	1
32	32	1
101	102	1
232	233	1
238	239	1
234	235	1
168	209	1
230	232	1
210	210	2
123	124	1
8	8	4
240	241	1
137	137	1
228	228	2
9	9	1
3	3	1
150	189	2
18	82	1
159	160	2
86	86	1
99	99	1
184	229	1
60	71	1
177	178	1
131	131	1
200	200	1
162	166	2
174	175	4
1	1	2
77	78	1
84	105	1
79	79	1
4	7	1
175	177	2
233	233	2
66	67	2
212	214	1
185	187	1
29	29	2
75	75	2
37	44	1
143	143	1
149	149	1
32	199	1
20	109	1
22	23	1
22	35	1
25	26	1
149	166	1
61	71	1
40	41	1
146	146	1
99	100	1
162	162	1
199	200	1
