59	59	3
76	76	6
34	34	4
103	106	6
78	78	4
22	22	2
30	48	1
62	64	3
61	75	1
20	20	12
85	85	7
36	36	9
64	64	3
34	86	2
103	103	12
49	49	5
100	100	8
70	70	4
80	81	2
54	54	7
91	92	4
73	73	4
75	75	6
27	28	9
68	69	6
79	79	14
85	86	4
21	21	5
51	67	5
31	31	7
40	40	4
42	42	15
88	111	2
41	42	6
92	92	7
37	37	5
46	72	1
51	51	4
77	93	4
33	33	3
45	45	1
83	83	7
72	72	4
57	60	2
110	110	3
65	69	2
82	84	1
43	43	4
64	65	2
89	89	3
80	80	9
48	49	3
62	62	10
41	41	8
33	34	1
36	37	2
59	98	1
35	86	1
103	104	4
61	61	2
78	79	2
24	29	1
111	111	2
112	112	5
39	41	2
30	87	8
29	29	5
103	107	2
96	96	9
38	55	2
44	44	5
67	76	3
111	112	6
29	43	4
96	98	1
77	77	4
41	45	2
46	73	2
67	67	4
105	105	4
71	71	5
34	35	2
95	96	1
88	88	4
88	90	1
39	40	2
107	107	2
35	35	5
102	102	3
43	48	1
46	46	2
95	95	7
98	98	2
38	38	4
37	84	3
78	102	1
99	99	7
21	22	3
50	107	2
99	100	1
42	73	4
26	26	5
58	59	1
53	54	2
82	82	4
68	68	2
57	57	1
53	53	3
101	102	3
59	62	1
20	28	2
86	103	1
50	97	2
28	28	11
44	45	1
84	96	2
68	71	1
96	107	1
37	38	2
84	84	2
32	32	5
24	97	2
81	102	1
102	107	2
81	82	5
37	39	2
27	27	1
24	24	4
54	55	3
39	99	1
43	45	3
30	31	2
21	28	1
55	55	4
31	32	1
40	41	1
21	23	1
113	114	1
33	36	2
39	42	1
61	73	1
35	75	1
104	105	2
93	93	3
104	107	2
101	101	3
52	52	6
52	94	1
95	102	2
86	86	2
62	73	2
30	42	1
109	109	2
97	97	1
39	39	3
23	23	2
30	43	1
46	49	1
52	104	2
52	80	1
30	30	1
66	67	1
108	110	1
20	26	1
70	71	1
91	91	1
108	108	3
58	71	2
95	100	1
69	69	1
76	77	1
25	78	1
77	78	1
50	50	1
23	24	1
46	67	1
114	115	1
106	106	1
43	44	1
24	79	1
52	69	1
