102	102	4
92	122	1
17	18	4
55	55	2
98	98	3
11	76	2
74	74	6
122	122	4
107	107	9
14	14	2
10	10	7
3	86	1
31	31	4
11	11	17
129	130	3
128	128	2
116	116	8
93	93	15
40	42	2
43	43	3
92	92	10
10	11	1
6	7	3
37	81	3
12	46	1
58	58	2
65	65	5
13	13	6
35	36	3
59	59	6
112	112	6
46	47	6
110	111	1
125	126	6
80	80	1
12	12	16
23	23	6
56	57	2
107	108	5
19	20	5
113	114	9
4	4	3
45	46	2
117	117	10
14	15	2
90	90	2
72	72	5
115	115	6
94	95	6
18	18	6
121	122	4
98	99	1
105	106	2
71	71	5
40	40	8
34	35	1
57	57	2
3	9	4
27	31	2
99	99	7
6	6	3
111	118	3
22	22	7
28	32	1
64	64	5
7	7	3
56	56	1
74	76	8
17	17	2
108	134	3
44	44	7
113	113	4
82	83	1
36	72	2
37	37	1
81	82	2
106	128	2
10	82	3
47	48	2
16	43	2
61	118	1
14	47	1
84	84	3
108	108	5
85	116	1
114	114	7
41	41	7
100	102	6
120	120	10
45	45	6
48	48	2
23	25	3
62	125	2
76	76	5
0	0	4
100	100	7
69	75	1
121	121	7
27	35	2
70	71	1
78	78	2
2	2	3
97	98	4
91	91	3
63	63	1
26	27	2
86	86	2
106	106	3
96	96	7
16	17	2
87	113	6
42	42	5
35	35	3
50	50	1
122	123	3
66	66	2
111	111	7
119	119	2
110	110	2
28	33	4
118	118	3
109	109	2
7	102	1
34	34	5
70	70	1
60	60	3
130	130	2
30	30	1
117	118	2
0	2	1
33	33	4
126	126	1
1	1	3
61	61	1
86	113	2
26	26	2
32	92	2
60	107	1
103	110	1
30	33	1
92	119	1
21	23	2
83	83	3
132	132	1
4	10	3
16	16	2
134	134	3
49	49	1
29	30	1
131	132	4
69	72	2
93	118	1
121	123	2
68	68	1
123	123	1
27	27	3
44	78	1
121	124	2
23	24	1
85	85	2
59	60	1
108	110	1
101	101	2
72	73	1
75	75	1
20	20	1
77	77	3
11	13	1
125	125	1
116	117	2
62	63	1
68	73	1
63	64	1
9	9	1
21	21	2
12	77	2
24	26	1
31	32	2
108	130	1
73	73	1
22	23	2
61	62	1
131	131	3
30	31	1
2	68	2
98	100	1
28	28	1
104	104	1
129	129	2
82	82	1
88	90	1
96	110	1
15	16	1
79	79	1
86	97	1
68	69	1
