160	164	1
142	142	16
95	96	10
118	119	3
167	179	2
19	19	3
166	166	6
1	2	5
142	143	2
185	185	14
175	175	14
183	183	16
179	180	9
27	27	9
156	157	1
28	28	4
144	160	4
119	119	24
189	190	6
18	19	4
187	187	14
58	130	2
167	167	9
189	189	7
186	193	2
18	18	14
2	3	15
197	197	7
54	54	6
88	124	1
168	186	2
153	154	3
17	18	1
58	58	6
193	193	12
187	188	5
55	59	2
76	153	3
121	121	20
79	83	4
97	97	3
7	8	5
108	108	4
157	157	4
146	150	3
182	182	9
70	70	6
124	124	5
115	115	11
77	77	4
188	188	9
84	84	12
29	37	3
129	138	5
36	36	11
170	170	7
62	63	4
131	132	5
194	194	5
148	148	7
25	29	3
178	178	9
89	110	1
95	99	3
17	17	9
188	189	9
112	112	11
108	152	1
78	78	5
166	167	6
192	192	8
25	26	2
37	55	1
33	34	2
3	4	3
174	174	8
38	55	3
38	38	6
123	123	4
5	5	11
24	56	2
82	86	2
81	81	13
65	65	14
145	145	2
1	37	1
68	68	6
48	48	8
89	89	11
13	14	4
182	183	7
146	146	7
22	23	3
76	78	8
161	163	1
141	143	4
147	150	5
100	100	7
158	158	3
106	107	2
172	172	8
113	149	3
168	168	10
87	89	3
44	44	3
69	98	1
29	29	7
176	177	7
37	54	5
137	137	8
120	120	5
32	32	13
154	154	20
169	169	12
55	55	10
12	13	3
186	186	12
27	40	4
67	138	1
117	117	6
167	170	3
151	152	3
183	184	2
132	132	6
170	171	8
33	33	13
135	160	2
162	162	2
107	108	9
167	168	10
156	156	8
116	157	5
154	155	2
31	32	3
148	164	1
186	187	4
60	61	4
181	182	5
32	33	1
125	125	7
80	80	6
180	180	5
104	110	3
191	191	20
150	151	1
96	96	15
104	104	7
72	73	9
155	156	2
150	150	15
120	154	2
81	85	4
57	57	8
159	159	9
131	131	3
181	181	8
139	140	2
144	144	8
16	17	3
167	188	1
36	147	7
168	169	4
47	47	9
109	158	10
134	134	15
177	177	11
18	176	3
43	43	10
38	43	1
72	78	2
0	1	2
79	80	4
190	190	9
180	181	8
133	133	2
0	2	1
103	103	3
73	74	1
140	140	4
130	138	1
4	24	2
59	59	8
152	152	11
156	158	3
4	16	2
71	73	3
40	40	9
193	194	8
1	1	7
85	87	2
2	2	10
160	160	7
144	145	4
166	171	1
149	149	4
185	186	10
56	68	5
93	110	3
86	87	3
25	54	3
123	124	2
35	37	6
39	42	3
53	53	3
114	157	2
41	41	13
152	154	3
127	127	4
110	110	6
90	90	2
52	52	3
195	196	7
50	50	5
21	21	9
130	130	2
49	50	4
56	56	5
49	49	3
9	10	3
60	62	1
37	37	4
7	7	1
26	27	1
165	165	9
39	39	9
23	23	10
126	127	1
136	137	2
111	111	6
16	16	2
179	179	3
94	94	7
173	173	3
0	0	8
69	137	3
81	152	3
82	84	5
51	52	1
66	66	4
25	25	3
55	56	3
29	34	1
184	184	5
28	41	7
147	148	2
83	85	2
122	122	9
141	141	6
128	130	3
16	64	1
29	30	1
95	102	4
83	83	8
0	3	5
22	22	5
71	72	3
82	82	5
196	197	3
124	125	3
45	45	7
118	118	6
74	75	7
24	24	4
169	170	5
142	158	2
56	67	1
47	48	3
101	101	2
114	115	9
51	51	2
15	15	5
31	31	3
21	22	2
46	46	5
147	147	13
76	77	3
78	79	3
42	42	1
105	105	2
135	135	7
115	116	3
74	74	2
54	55	3
176	176	2
61	61	7
161	161	11
134	141	3
59	60	1
31	33	3
95	103	8
116	116	3
48	52	4
157	158	2
42	44	3
12	12	3
30	30	6
150	154	1
161	162	4
3	28	3
194	195	1
138	138	2
10	10	1
9	9	5
109	109	4
97	138	2
96	127	2
149	151	1
164	164	8
138	139	3
59	61	2
85	85	11
88	89	3
19	20	9
86	86	4
4	4	8
114	114	12
142	144	1
87	90	1
73	73	7
77	79	2
63	138	3
111	112	2
43	45	1
104	112	1
33	76	2
71	71	6
186	197	3
170	173	2
163	164	2
54	70	1
11	11	1
8	8	5
68	138	1
160	165	1
149	150	1
20	20	2
85	86	4
162	163	1
0	10	1
106	110	1
107	107	7
26	26	4
80	82	1
54	56	1
99	99	1
21	23	1
168	171	1
61	62	2
62	62	4
139	139	4
28	29	3
112	115	2
81	83	1
167	171	1
59	62	1
163	165	1
86	107	2
72	72	6
18	174	2
163	163	6
66	67	1
88	90	2
185	193	2
75	75	2
134	140	4
129	130	3
196	196	7
65	66	2
60	60	8
172	194	2
34	34	4
45	46	1
12	59	1
151	151	1
134	135	1
72	79	2
35	35	2
13	13	3
114	163	1
171	193	1
174	175	3
2	4	2
86	149	1
27	28	1
191	192	5
3	3	4
143	160	2
113	113	2
4	55	1
70	71	3
33	151	1
14	14	4
79	90	1
67	133	1
192	193	1
67	137	2
108	111	1
145	146	3
143	143	1
79	79	3
141	160	3
81	82	3
24	195	1
140	145	1
99	100	5
171	176	1
6	6	3
71	89	1
94	109	1
149	152	2
153	153	4
102	102	1
69	69	2
170	172	1
95	95	9
67	68	2
173	194	1
178	187	1
136	139	1
32	150	1
187	189	3
141	178	1
75	77	5
161	165	2
61	127	1
9	12	1
178	179	1
153	155	1
108	113	1
155	155	2
39	40	2
106	106	1
40	42	3
64	66	1
46	47	4
76	76	3
186	189	1
28	30	1
4	5	1
82	120	1
69	136	1
30	31	1
179	191	1
89	124	1
36	37	1
116	118	1
38	39	1
165	166	3
162	165	2
145	160	1
31	71	3
8	9	1
13	52	1
173	192	1
151	153	3
83	84	1
159	160	4
126	126	3
167	178	1
88	110	2
41	42	1
73	75	1
136	136	1
14	15	2
27	42	1
175	177	1
87	87	2
188	190	1
170	177	1
194	196	3
38	42	1
25	41	1
144	150	2
76	79	1
6	7	1
80	81	1
190	191	2
161	164	1
171	179	1
73	85	1
97	127	3
63	139	1
55	69	1
40	41	2
94	96	1
143	145	1
64	64	1
148	151	1
4	7	1
68	133	1
23	24	1
16	22	1
113	114	1
158	160	1
93	94	1
117	118	1
11	12	1
64	65	2
52	128	1
53	54	2
77	150	1
78	80	1
4	22	1
53	55	1
81	86	1
195	195	1
5	20	1
143	144	1
19	24	1
121	122	1
115	164	1
20	23	1
