25	68	8
24	24	7
30	113	2
60	60	10
88	88	11
67	67	14
27	83	3
54	54	3
38	70	3
39	39	15
47	48	2
61	73	3
95	95	4
67	72	3
59	59	8
91	105	4
43	43	8
77	77	4
71	72	2
39	92	1
19	20	8
82	83	3
65	65	5
22	22	1
50	99	2
81	81	11
47	47	12
56	59	2
53	53	11
104	112	5
79	80	1
48	49	1
52	92	1
24	71	2
78	80	6
75	75	13
76	77	5
44	111	1
38	38	12
20	20	10
100	100	8
101	101	11
83	87	1
40	40	15
60	69	2
114	114	7
82	108	3
33	33	5
72	72	9
35	78	3
89	91	3
57	58	4
54	95	3
25	25	4
109	110	10
25	26	1
83	85	1
24	51	3
75	92	3
74	75	3
58	60	5
30	30	8
56	56	6
81	105	3
81	91	5
86	86	7
32	37	4
76	76	16
90	90	4
36	60	1
69	69	6
95	96	3
54	60	1
60	96	2
37	77	2
106	106	5
97	97	5
102	102	4
48	97	1
106	111	2
105	106	1
83	83	1
52	52	10
100	101	4
30	33	1
91	97	5
28	115	4
98	98	12
19	19	4
84	85	3
28	28	11
96	96	8
111	111	7
58	98	1
103	103	6
112	112	4
88	91	8
93	93	7
70	70	6
29	29	9
104	104	4
37	43	2
91	92	3
26	27	4
47	89	8
74	74	6
35	36	3
107	112	2
40	41	10
51	75	1
50	50	3
83	84	1
113	113	7
35	35	14
21	21	5
87	87	1
96	97	4
106	107	2
50	51	2
37	90	2
103	106	2
101	102	6
74	76	3
27	27	3
51	51	1
31	98	3
88	89	7
67	71	1
31	31	7
99	99	5
100	102	1
26	26	4
78	79	3
23	23	7
66	67	6
78	78	2
80	80	6
61	97	1
79	79	3
81	82	2
110	110	13
105	112	1
59	60	3
60	61	2
56	89	2
23	28	3
104	108	2
32	34	2
54	62	1
49	49	9
32	33	3
108	108	9
63	63	2
102	109	1
43	108	1
105	105	4
39	76	2
26	69	2
71	71	4
35	39	3
53	54	3
38	52	1
34	34	4
34	40	5
68	68	2
93	94	2
55	56	2
104	105	6
39	68	5
25	27	1
28	29	5
107	107	4
79	106	2
42	44	2
43	44	3
42	74	2
62	62	3
33	34	2
63	66	2
108	112	3
45	46	2
47	94	1
45	45	4
63	64	1
37	37	4
42	42	2
88	94	4
52	56	3
26	113	1
48	110	1
75	78	2
31	32	2
56	85	1
59	99	1
28	95	4
97	98	6
80	86	1
90	110	1
86	87	2
43	111	1
98	99	2
77	78	3
40	101	1
91	106	2
79	114	1
22	23	3
91	110	4
92	92	1
82	88	2
24	110	2
66	66	3
111	112	2
52	98	2
108	109	1
58	58	3
79	81	4
48	48	8
46	48	2
28	31	1
41	84	2
72	76	3
39	100	2
19	105	1
21	78	2
41	41	5
30	31	2
64	64	2
46	46	2
35	37	2
35	71	1
101	103	1
49	110	1
70	71	1
65	91	2
28	30	2
36	37	4
21	28	1
109	112	2
82	82	3
42	43	2
26	34	1
47	87	3
60	72	1
40	60	1
65	66	3
39	60	1
103	111	1
73	73	2
39	93	2
79	90	2
55	55	1
86	95	1
43	45	1
36	36	3
109	109	2
89	89	1
103	108	1
33	37	1
61	61	1
62	72	1
47	110	1
23	24	1
59	94	1
41	42	2
91	91	3
78	92	1
28	93	2
84	84	5
47	49	2
64	65	2
29	32	1
86	96	1
19	108	1
92	108	1
92	106	1
78	110	1
33	55	1
20	52	1
81	88	1
27	42	2
89	92	1
56	105	1
52	70	1
51	113	1
61	64	1
64	97	2
24	25	1
33	46	1
61	87	1
61	75	1
59	69	2
29	100	1
73	95	1
20	23	1
40	115	1
115	115	1
