87	121	9
81	91	8
99	106	1
23	23	4
50	50	2
149	149	20
55	57	4
44	45	6
119	119	10
113	113	13
128	128	6
90	90	9
158	158	9
84	84	4
47	48	4
132	132	10
57	64	6
93	93	12
7	7	15
68	122	2
145	145	8
154	154	3
164	165	9
159	159	19
5	5	8
111	111	11
52	53	7
70	70	19
14	14	4
136	136	15
133	135	3
89	90	2
144	144	2
69	69	3
115	115	7
41	41	6
137	137	15
134	134	11
103	118	10
44	44	5
140	140	11
40	40	9
12	13	3
106	145	5
138	138	17
148	148	9
143	145	1
155	159	1
37	37	3
53	53	8
164	164	10
153	153	8
146	162	2
106	107	2
18	147	3
18	18	8
1	2	3
52	52	12
139	139	4
2	136	2
117	117	7
26	26	4
18	123	8
49	49	8
112	155	6
100	100	7
84	85	3
150	150	4
39	40	10
151	151	13
43	43	9
167	167	5
161	161	4
36	36	6
110	110	6
142	142	13
122	122	12
11	11	12
118	118	8
16	63	6
105	105	5
14	15	7
51	77	7
40	69	1
112	114	5
1	47	3
68	68	4
135	135	2
149	159	1
100	102	2
82	82	8
124	124	15
106	106	10
33	34	3
23	148	2
85	85	7
11	13	8
24	24	9
73	73	9
90	92	3
22	39	2
104	113	1
64	65	3
15	140	1
71	72	2
6	6	7
100	106	4
22	22	9
70	75	1
123	161	6
20	146	9
18	129	1
74	74	7
2	134	1
86	87	3
64	64	11
5	8	5
16	16	6
107	107	6
160	166	2
61	120	5
47	47	7
86	86	3
22	163	5
115	126	3
166	169	2
11	12	3
114	114	4
135	136	2
105	130	2
6	47	6
34	34	5
8	47	2
102	102	6
45	46	2
62	63	3
120	120	6
98	102	2
104	104	3
158	159	2
169	169	11
0	79	6
157	157	6
72	73	1
131	141	4
136	137	2
72	72	2
98	101	1
71	71	12
43	44	2
7	8	4
78	78	2
86	120	1
153	158	4
78	79	3
35	35	6
98	98	15
103	103	6
13	13	7
38	38	14
12	12	2
87	87	6
34	35	1
39	39	9
112	158	1
128	149	1
56	57	2
156	156	6
65	65	3
62	62	11
64	69	1
64	70	2
163	164	5
152	152	6
167	168	6
86	93	1
76	76	10
116	126	3
81	82	2
20	39	3
4	4	8
13	43	3
101	127	2
129	153	3
65	66	10
2	2	12
57	63	7
66	67	5
95	95	9
40	41	6
94	94	6
54	54	5
141	141	5
56	56	5
124	125	1
156	158	1
131	140	4
21	153	4
84	88	2
21	22	5
147	147	4
0	1	9
97	97	4
45	45	3
24	25	3
5	6	3
126	126	2
129	129	1
75	75	6
152	153	2
127	127	7
5	9	6
144	145	4
147	163	4
101	101	3
42	79	5
90	91	6
116	116	3
3	46	3
119	120	2
162	162	4
83	83	4
160	165	4
160	160	6
77	78	4
81	81	10
25	25	2
90	93	3
133	133	14
20	20	2
81	92	1
109	110	1
23	40	1
82	83	1
138	139	1
1	1	2
66	66	2
130	130	8
81	86	1
9	10	5
38	40	1
163	163	4
85	92	2
105	118	2
18	19	1
108	140	1
12	16	3
27	111	2
170	170	2
17	56	1
10	10	1
160	161	6
40	67	1
114	127	1
108	133	2
142	153	2
131	150	1
28	28	4
21	21	2
137	141	1
153	154	2
101	129	2
83	84	1
42	52	3
168	168	5
102	127	1
105	119	1
97	98	3
81	120	3
156	157	3
46	46	2
94	96	4
19	122	1
128	129	1
44	52	2
162	164	1
22	148	1
105	144	3
13	14	2
97	100	3
155	156	3
87	91	3
124	165	1
109	109	3
19	123	1
127	128	1
131	139	2
114	154	1
142	143	1
10	119	1
155	155	3
137	138	3
5	44	1
99	102	2
102	129	3
123	124	3
108	109	2
112	112	3
116	117	1
45	54	1
3	3	1
48	48	2
85	88	1
143	146	2
91	91	5
167	170	1
8	8	3
127	129	2
168	169	4
129	130	4
115	127	4
139	141	2
92	92	5
55	123	2
94	95	1
153	159	1
17	17	2
15	16	2
124	148	3
15	17	2
99	99	2
90	120	1
117	149	1
113	114	1
105	106	1
101	103	2
118	119	3
68	69	1
49	78	3
12	62	3
50	51	1
150	151	2
6	8	3
57	57	2
49	80	1
88	89	4
77	79	1
102	104	2
123	123	1
121	122	1
97	102	1
69	70	1
161	162	1
24	41	1
19	19	1
125	125	2
163	165	1
156	159	2
87	120	1
14	27	1
67	68	1
110	142	2
77	77	1
154	166	1
113	154	1
89	89	1
21	40	1
51	51	1
11	14	1
42	42	1
39	65	1
8	46	1
131	131	3
74	75	1
124	147	1
12	15	1
47	80	1
92	93	1
143	143	1
25	149	1
21	23	1
15	63	1
34	70	1
13	44	1
104	118	1
87	92	1
53	54	1
2	3	1
16	121	1
133	134	2
55	56	1
126	160	1
