145	145	9
218	218	1
216	216	5
137	137	5
54	54	7
190	191	2
124	124	4
175	177	2
231	232	2
15	15	6
133	134	1
167	205	1
38	38	2
220	220	10
209	210	1
200	201	6
99	99	3
32	32	3
23	24	1
202	202	6
144	160	1
141	141	5
164	164	8
216	217	4
1	5	2
225	225	5
65	65	4
213	214	1
138	138	5
107	108	5
164	167	2
119	119	17
174	177	4
111	111	4
113	113	10
201	201	9
69	72	1
218	219	5
144	146	6
57	57	8
13	13	6
163	167	5
212	212	5
82	82	9
31	31	3
233	233	7
45	45	15
153	153	10
169	169	6
122	122	3
180	180	6
34	35	9
232	232	7
151	153	4
239	239	7
242	242	3
84	84	2
189	189	5
174	174	2
114	118	4
40	40	5
7	70	2
222	222	12
135	135	2
116	116	10
115	115	12
207	208	2
69	69	9
1	1	2
15	16	1
129	129	8
214	216	1
229	229	1
102	102	3
134	134	6
49	49	9
64	64	4
124	129	1
234	234	3
55	55	8
25	26	2
15	35	4
236	236	10
53	53	5
147	160	3
182	182	13
213	213	12
46	46	8
204	206	3
45	238	4
140	140	6
30	30	5
46	47	4
183	183	7
172	192	2
187	189	4
160	198	1
73	73	4
221	221	12
88	88	2
192	192	3
120	121	5
222	223	2
165	190	2
83	83	7
185	185	7
152	153	2
16	23	2
165	165	4
203	203	5
14	14	3
191	191	11
42	42	4
206	206	12
226	231	4
118	118	5
109	109	8
12	44	2
191	195	1
77	79	2
59	60	7
16	16	8
4	5	4
32	67	1
147	147	8
85	86	2
31	32	1
108	108	5
172	173	9
12	12	5
148	148	3
76	83	7
97	97	4
20	20	4
10	10	6
120	120	12
210	222	4
128	128	9
23	23	11
45	233	3
208	208	4
211	211	23
71	71	7
172	172	9
81	82	1
36	36	7
14	31	5
43	50	3
44	238	2
199	199	1
212	222	2
175	176	5
17	17	7
69	70	4
238	238	9
173	173	6
11	51	3
75	75	4
227	227	5
25	27	2
44	44	5
155	156	5
143	143	3
221	224	1
163	199	2
234	237	1
116	117	4
184	184	6
195	195	7
24	24	10
231	231	7
166	166	4
126	130	4
171	174	2
171	173	3
31	37	1
219	219	7
22	22	6
161	161	11
38	39	6
152	152	5
80	83	4
68	69	4
66	66	8
14	15	3
117	118	3
35	77	1
219	220	5
161	162	3
6	7	9
178	178	2
197	197	11
21	29	1
60	60	6
141	142	3
190	190	2
214	214	7
121	122	1
67	67	5
164	168	6
63	63	2
43	43	8
194	194	2
125	126	1
107	107	1
74	74	2
25	25	6
80	80	3
159	159	7
35	35	6
236	239	2
200	200	7
121	121	4
32	85	6
52	66	1
98	99	3
96	96	4
154	154	7
122	123	3
169	173	3
55	64	2
144	145	3
0	1	2
145	146	2
61	61	7
54	55	5
103	103	1
168	198	1
230	231	3
207	207	7
129	130	3
216	218	1
212	213	2
178	179	6
50	50	3
158	159	3
237	237	1
142	142	7
43	44	3
171	171	6
53	54	2
51	51	3
4	4	1
78	78	2
170	177	6
21	22	2
56	56	8
240	241	4
33	57	2
226	229	4
41	41	6
62	62	13
92	92	1
150	150	3
224	226	1
0	0	4
80	81	2
210	229	2
82	83	5
148	149	6
209	209	4
196	196	2
151	151	1
229	230	2
84	85	4
163	163	6
66	68	3
72	72	1
97	98	3
174	203	1
217	217	4
58	58	3
125	125	7
181	182	7
147	156	1
150	151	1
240	240	4
210	228	1
147	162	4
70	70	7
123	133	1
223	223	1
16	17	2
77	77	3
117	117	3
17	18	1
24	25	1
126	126	1
210	211	2
12	13	4
159	197	1
80	84	3
21	21	4
174	175	1
88	95	1
163	165	4
173	197	4
104	107	2
140	141	2
43	46	3
168	197	3
170	179	3
106	106	5
157	157	3
26	26	10
168	168	2
197	198	1
9	9	5
118	119	1
122	132	5
129	200	4
160	161	2
29	29	5
34	34	2
29	51	1
186	186	2
72	73	1
156	156	2
170	170	3
29	53	3
230	230	2
151	152	1
131	131	2
7	8	1
58	61	1
235	235	4
57	80	2
149	150	6
78	84	1
86	86	3
124	125	3
62	63	1
15	29	2
241	241	8
64	66	4
39	51	2
136	136	8
167	167	2
37	37	8
76	76	5
175	175	3
171	206	1
210	210	1
39	50	2
3	3	8
215	215	6
196	198	1
176	177	3
2	4	1
51	52	3
180	218	1
32	75	1
173	205	2
68	68	5
103	104	2
155	155	3
224	224	6
67	68	4
49	51	2
27	27	3
188	189	9
179	179	5
79	79	2
31	34	1
114	114	1
193	195	2
193	193	4
123	127	1
33	33	5
188	188	2
181	181	3
223	226	2
195	196	1
185	186	3
117	140	1
123	123	1
45	46	1
137	139	1
162	163	1
191	192	1
143	144	3
39	39	1
146	146	2
158	158	3
149	197	2
110	110	3
77	78	1
75	76	1
61	63	2
214	215	1
238	239	1
58	63	1
183	187	1
173	174	1
204	204	2
147	201	1
206	207	2
36	37	2
119	139	1
77	80	1
19	20	2
87	87	2
49	50	1
119	120	4
149	152	1
163	198	2
140	142	1
170	180	1
6	6	2
170	178	1
105	105	2
114	127	1
57	60	1
47	47	1
228	228	4
137	138	1
176	176	4
48	48	1
197	199	1
101	101	4
115	117	1
203	204	1
109	110	2
226	226	1
80	82	1
70	170	1
132	133	1
164	199	1
163	164	1
149	149	1
151	194	1
119	241	1
28	28	6
224	229	2
12	51	2
127	127	3
7	7	2
166	232	1
33	77	2
237	241	2
27	28	1
2	2	2
162	165	1
95	95	2
224	225	1
192	196	1
217	218	2
239	240	2
14	187	2
18	18	2
20	21	1
205	205	2
88	89	2
119	127	1
63	64	1
96	97	1
30	53	3
99	100	2
232	235	2
134	142	4
59	59	5
18	23	1
177	177	1
100	100	2
172	206	4
208	209	1
179	181	1
23	38	1
142	191	1
118	120	1
179	180	3
43	72	2
116	139	1
120	140	2
98	98	2
227	230	1
144	144	1
165	199	1
226	230	1
171	172	2
131	143	1
124	126	1
139	140	1
115	116	2
52	53	1
188	215	1
212	221	1
61	62	1
123	140	1
15	52	1
201	202	1
182	183	1
13	32	1
77	84	1
164	165	1
136	138	1
169	190	1
8	8	1
85	85	1
180	181	1
113	114	1
225	235	1
139	139	1
