85	86	2
53	53	8
136	136	5
155	155	8
62	62	9
18	18	3
147	147	1
66	66	5
70	70	6
39	39	8
170	171	4
61	72	6
107	107	7
119	120	4
145	145	13
137	137	2
110	110	9
105	105	2
180	180	8
176	177	15
98	137	3
96	109	2
113	155	1
47	131	3
172	173	3
165	166	3
163	163	2
63	63	11
151	185	1
9	9	2
125	125	2
132	132	10
52	52	13
73	74	4
76	77	4
24	24	7
144	144	9
178	179	3
173	173	12
37	37	1
81	144	4
82	82	6
117	117	10
136	137	1
13	49	2
142	142	4
164	164	6
44	44	5
10	10	4
68	68	3
118	118	4
58	58	4
144	149	1
25	42	4
14	14	9
183	185	2
165	165	6
159	159	3
5	6	4
121	121	13
146	147	3
15	38	8
108	108	9
32	32	12
51	51	6
23	23	8
50	50	5
180	190	3
39	40	7
153	153	10
77	149	2
149	149	4
74	74	5
162	162	3
159	166	2
81	83	5
101	101	4
82	83	2
57	57	7
41	42	3
13	13	8
116	117	3
115	115	5
185	185	13
67	67	7
161	161	5
33	193	1
20	20	11
187	187	6
192	192	8
0	0	7
84	84	16
16	107	2
18	86	3
54	54	11
118	119	3
7	7	1
124	124	11
178	178	3
172	177	4
42	42	4
95	95	6
156	156	1
76	76	5
113	113	7
150	150	11
51	69	5
49	49	6
190	191	3
58	60	4
148	148	6
79	79	12
101	107	2
122	122	9
180	189	3
106	150	2
56	57	3
29	29	9
34	34	4
128	128	10
167	167	2
5	130	3
146	158	2
166	166	3
64	64	4
185	196	2
176	176	6
102	102	11
106	106	6
177	191	4
53	55	8
25	26	7
58	59	6
193	193	8
11	133	1
25	39	1
109	109	4
5	5	4
61	62	7
149	168	1
123	123	6
172	172	2
133	133	1
26	26	7
94	94	6
75	76	4
46	132	3
166	167	7
46	46	8
50	51	2
3	3	1
188	189	4
100	100	7
28	28	7
65	65	7
196	196	5
134	135	6
81	145	3
72	72	6
146	146	13
63	64	1
195	195	9
102	159	2
48	48	7
7	132	1
43	44	3
15	15	9
20	25	1
24	25	6
89	89	6
188	188	7
128	180	6
96	97	2
22	22	5
17	17	11
121	124	2
51	52	5
16	110	1
60	61	2
45	45	6
46	47	1
112	112	5
4	4	6
77	150	1
111	111	8
118	154	1
103	103	5
12	12	10
27	27	6
24	87	1
140	186	1
165	167	3
86	86	10
182	182	6
147	154	1
194	195	5
101	160	4
138	141	1
157	157	9
136	152	3
1	1	7
127	127	6
40	40	9
67	68	3
181	182	5
83	83	3
59	59	4
97	98	4
31	33	5
18	129	2
192	193	5
76	88	2
96	96	1
33	101	2
31	31	4
26	27	2
114	115	2
54	69	2
106	151	3
171	171	2
70	71	2
2	2	3
22	23	5
181	181	5
125	126	1
40	82	3
89	164	2
188	191	2
100	101	2
30	30	2
151	151	4
14	57	3
114	185	3
69	69	6
70	74	2
59	60	1
169	169	3
168	168	7
154	155	2
97	175	4
135	135	6
174	174	6
72	74	1
62	80	3
62	63	1
112	150	1
37	130	1
138	138	5
175	175	4
5	8	1
9	10	1
119	119	6
77	114	1
3	120	2
169	185	1
61	61	4
69	71	1
60	88	1
3	82	2
74	165	2
38	38	6
61	68	2
99	99	7
69	72	2
170	172	1
184	189	6
116	116	7
33	69	2
16	51	3
126	126	4
18	24	3
112	114	3
148	150	5
141	141	12
80	80	3
143	143	3
96	112	1
101	106	2
170	170	6
57	65	2
84	85	1
149	150	1
42	44	2
8	8	6
77	77	10
184	184	3
119	164	1
24	27	4
98	98	1
136	194	2
177	177	5
73	73	3
74	75	2
158	159	2
60	60	4
35	35	4
183	183	6
115	135	2
21	25	3
90	90	3
186	186	5
78	79	2
41	41	3
162	163	2
182	183	1
141	142	1
30	40	3
139	139	8
17	23	2
118	153	1
37	56	3
131	131	2
89	118	1
58	61	1
99	112	1
37	53	2
39	85	1
55	56	6
153	164	2
69	89	3
130	131	1
16	16	2
11	11	2
179	179	2
13	14	1
10	48	2
136	197	1
161	163	1
42	43	3
164	165	3
158	158	3
19	19	6
169	170	2
163	164	3
168	169	2
194	194	2
140	140	1
1	3	2
154	154	7
53	56	3
79	80	2
82	143	2
33	194	2
60	69	2
184	185	1
42	45	1
69	70	2
3	115	2
66	67	2
37	39	2
8	9	1
143	145	1
114	182	2
108	122	4
66	110	1
78	78	5
197	197	1
18	132	1
71	71	8
135	136	3
25	27	2
32	54	2
139	140	2
20	131	2
40	41	1
143	144	1
108	112	1
30	32	2
41	75	2
55	55	1
155	156	2
13	53	1
173	174	2
65	67	3
139	142	2
114	117	1
20	22	1
170	194	1
43	43	4
138	197	1
190	190	2
160	160	4
8	14	2
130	130	1
171	172	3
85	87	2
179	180	2
42	56	2
4	5	2
26	63	1
109	112	2
23	24	2
113	115	2
59	72	2
136	140	1
183	184	1
102	103	2
115	118	1
58	64	1
127	128	2
141	179	1
138	145	1
134	134	3
4	121	1
47	48	3
53	54	1
189	190	1
94	95	2
113	120	1
138	185	1
7	80	1
106	145	2
178	187	2
75	75	1
28	29	4
98	101	1
18	115	1
75	79	1
4	115	2
179	193	2
89	166	2
77	145	1
38	43	1
33	33	3
21	23	1
104	160	1
135	169	1
78	98	1
126	127	1
167	168	1
161	162	3
94	129	1
117	158	1
31	32	1
108	109	1
110	111	1
47	47	2
39	86	1
187	188	1
24	84	1
109	168	1
103	134	1
117	118	1
134	136	1
178	180	1
32	33	1
166	168	1
174	175	1
152	154	1
85	85	1
38	72	1
27	28	1
137	150	1
37	70	1
100	107	1
28	30	1
132	133	1
172	176	1
13	32	1
