87	89	3
137	137	8
129	130	9
146	146	7
93	96	4
126	130	11
127	127	15
3	4	1
43	43	12
38	39	9
20	20	8
137	142	5
33	33	15
138	138	14
115	117	12
41	41	3
151	152	3
64	67	6
142	142	6
36	40	3
8	12	1
37	37	14
101	101	12
45	49	2
27	27	10
108	111	3
130	130	4
49	50	5
54	55	5
40	41	18
25	27	5
12	12	6
6	8	6
13	14	2
106	106	2
4	4	8
5	5	10
51	52	9
114	118	1
42	44	4
23	23	2
96	96	11
117	119	8
71	71	17
131	137	2
156	157	4
53	53	20
27	29	2
117	117	6
138	140	5
108	110	5
94	95	11
78	79	4
75	75	11
47	73	5
9	10	6
92	92	9
35	36	7
145	145	4
152	156	8
87	87	15
77	81	4
144	146	8
156	156	15
21	23	2
135	135	15
134	135	7
78	78	6
45	46	8
52	53	2
18	22	1
120	126	6
40	77	2
50	50	14
47	47	10
24	24	11
115	115	8
28	30	5
113	113	7
141	141	10
107	107	10
110	114	7
3	3	6
55	55	8
39	39	7
89	89	7
62	94	3
87	94	5
34	34	13
146	148	2
9	12	1
45	45	6
92	93	2
155	157	3
36	38	11
112	112	15
111	112	4
30	30	12
98	98	8
139	139	14
15	16	4
153	153	5
42	42	3
19	36	4
24	25	5
121	121	12
77	77	19
91	91	5
135	136	6
152	152	10
36	36	8
7	7	17
149	150	7
83	84	5
55	57	2
86	90	1
48	53	3
116	118	3
1	1	3
90	90	22
28	28	15
21	21	5
99	99	5
35	35	8
139	140	3
144	144	12
90	91	2
141	148	2
94	96	1
150	150	5
29	30	8
112	123	2
34	39	2
64	64	2
95	95	10
17	17	17
40	40	13
111	114	7
104	104	5
143	143	19
28	104	4
27	28	2
69	69	8
29	132	1
62	64	5
14	17	3
51	51	13
82	82	8
147	148	5
96	97	4
110	110	6
38	38	4
2	2	7
70	70	7
83	83	8
25	26	8
26	26	4
87	88	7
34	37	2
76	80	5
35	37	7
153	156	5
120	120	6
64	65	5
85	85	6
48	49	5
86	88	4
99	123	3
23	24	6
124	125	5
9	9	8
154	154	7
45	78	2
9	18	1
40	88	3
54	54	7
57	57	4
29	29	6
30	33	2
31	31	9
68	68	3
32	32	10
116	116	8
15	15	9
79	80	2
26	27	5
0	1	5
41	42	3
124	124	6
121	122	9
109	112	2
150	159	1
150	154	7
31	36	2
70	71	13
140	140	11
14	23	4
30	39	8
102	103	7
0	4	2
112	125	5
28	29	3
36	39	3
115	118	5
112	116	1
157	158	11
144	148	1
62	62	8
34	38	4
52	52	14
132	142	3
66	69	4
128	156	4
25	30	1
16	21	1
47	48	8
82	85	2
146	151	2
20	22	3
113	124	1
25	25	11
31	33	1
18	18	11
95	96	4
155	155	4
51	53	2
104	115	5
119	119	10
12	13	3
62	63	2
155	156	2
115	126	7
140	141	1
93	93	6
126	127	2
42	45	3
123	124	3
151	153	1
103	105	8
14	14	6
33	90	1
43	44	5
100	100	9
110	124	4
123	123	6
73	73	4
115	120	3
63	63	6
94	94	8
17	18	5
91	92	1
48	51	1
136	138	6
22	22	10
8	8	4
18	20	9
73	74	2
47	49	1
32	33	4
141	146	2
133	134	4
61	61	1
156	158	5
16	19	2
86	86	3
146	147	2
103	103	8
67	67	6
0	0	5
95	97	2
1	4	8
131	131	16
13	13	6
56	56	3
68	69	3
27	30	2
109	111	3
66	66	2
81	81	4
92	97	4
99	100	1
21	24	2
44	45	3
83	85	1
118	120	1
26	29	2
33	91	3
45	47	3
6	6	3
132	134	2
93	98	1
79	86	1
48	50	1
46	46	7
114	114	3
136	137	2
125	125	8
80	80	8
77	78	7
30	32	2
108	108	7
97	98	2
17	19	2
31	32	8
102	102	4
11	11	5
66	70	1
6	10	3
147	147	6
16	16	9
65	65	3
14	15	8
69	70	7
84	87	3
127	148	3
49	49	6
68	70	1
158	158	6
116	117	6
19	19	19
1	2	6
131	138	2
10	12	11
40	42	3
97	97	7
129	129	6
79	79	8
76	85	2
50	53	1
105	109	1
104	106	1
148	150	2
125	126	9
20	21	4
117	118	6
69	72	4
50	52	1
10	10	9
11	14	4
136	136	8
33	34	6
70	75	2
119	120	3
148	148	2
110	120	5
24	26	2
92	94	1
111	125	5
17	31	2
51	66	1
106	107	5
157	157	8
100	103	1
147	153	2
132	133	8
107	110	2
131	142	1
84	84	6
3	9	3
153	154	1
15	17	5
115	123	1
51	81	4
72	73	4
26	28	1
21	22	3
49	81	4
93	94	2
123	125	1
132	132	2
122	123	4
112	113	1
126	126	7
81	84	1
113	114	4
44	44	4
104	107	2
23	25	1
32	90	2
127	129	2
145	148	1
118	126	3
48	48	2
76	91	3
2	3	7
29	106	3
121	123	6
35	38	5
46	49	1
88	88	2
154	155	2
142	146	2
10	14	1
36	41	5
7	10	3
110	111	1
53	54	2
134	137	2
67	68	4
122	122	4
78	86	2
128	128	4
104	124	2
119	124	1
37	39	3
36	37	3
32	35	2
39	44	1
86	87	2
113	128	2
137	139	1
23	131	2
118	119	1
10	11	4
29	32	1
107	123	1
90	93	1
67	70	1
114	120	3
19	34	1
109	110	3
111	113	2
16	17	4
81	82	4
106	113	3
94	105	1
77	94	2
39	89	1
9	14	3
153	155	1
12	14	1
32	36	2
134	134	2
79	89	1
121	126	1
106	130	2
18	19	4
57	70	1
150	153	3
69	75	1
95	100	4
133	133	3
138	139	5
105	106	6
18	21	2
8	14	3
67	71	1
150	151	3
65	66	2
121	124	1
9	21	2
154	156	1
66	67	1
73	80	1
130	131	2
135	137	3
55	73	2
128	142	2
86	89	1
140	146	1
133	142	3
66	68	2
50	51	2
130	133	2
30	31	3
68	73	1
115	116	4
153	159	1
21	25	1
63	65	1
141	145	2
109	109	1
42	43	2
82	84	1
99	101	2
51	64	1
16	18	1
24	131	3
26	130	1
107	128	2
105	115	1
7	8	4
24	27	1
133	138	1
111	130	1
137	140	1
34	36	3
95	109	1
3	5	1
55	56	1
118	118	1
79	82	2
97	99	1
10	15	1
137	141	2
10	13	1
17	21	1
115	122	2
3	7	1
8	17	1
73	77	1
107	109	1
124	126	1
89	91	1
94	97	2
54	57	2
17	134	1
78	88	1
149	151	1
2	5	1
108	109	1
50	81	1
109	129	1
151	151	1
8	10	1
21	33	1
149	149	1
85	87	1
80	85	1
157	159	1
32	34	1
114	125	1
77	87	1
146	149	1
126	129	1
1	5	1
53	56	1
23	135	1
103	107	1
117	120	1
