25	25	7
247	247	10
25	26	4
173	173	5
45	87	1
83	83	6
145	212	3
227	227	9
248	248	1
85	85	8
79	159	3
245	245	4
90	90	15
182	182	3
203	203	8
166	208	2
199	217	1
194	194	2
48	48	6
172	182	4
7	62	1
98	99	5
182	184	3
40	40	6
175	177	3
10	10	7
154	154	10
119	119	3
84	84	3
73	73	5
11	15	4
19	34	1
70	71	2
236	237	3
7	7	8
175	178	3
170	170	6
16	16	6
175	176	3
199	199	7
14	14	2
43	43	5
151	228	6
230	236	1
161	161	1
90	91	3
156	156	6
74	74	8
219	219	10
190	190	3
18	34	1
115	184	3
226	226	3
237	237	9
244	245	3
110	110	3
63	63	4
149	149	3
233	234	3
240	240	7
212	212	4
209	209	7
18	18	3
145	145	1
177	177	2
171	173	1
111	111	5
172	172	1
31	31	3
21	21	2
38	38	6
243	243	3
171	187	4
77	115	1
97	97	4
198	199	3
159	159	3
12	12	4
27	45	2
185	186	1
26	26	4
166	167	2
62	62	3
27	27	2
206	206	3
183	215	4
216	219	2
86	112	1
152	152	3
216	216	9
19	22	4
80	115	3
81	110	2
197	197	13
145	150	7
239	241	3
5	45	2
52	52	10
192	193	1
9	39	3
205	205	4
167	184	3
116	116	8
158	158	4
103	195	4
244	244	3
213	213	1
60	60	9
106	107	4
6	228	1
223	223	3
35	36	4
195	195	3
218	221	2
181	181	4
222	236	1
151	213	1
99	100	2
176	176	2
75	75	4
207	207	6
33	36	3
238	238	3
102	102	7
222	237	1
22	22	2
241	241	2
11	37	1
37	37	4
196	196	2
98	105	2
104	194	2
32	32	5
111	182	2
221	231	3
211	211	4
49	50	1
99	99	2
167	167	2
225	225	5
94	108	3
107	108	1
35	35	3
96	105	2
205	207	2
4	4	10
5	43	4
23	43	4
12	55	2
29	30	3
3	3	1
233	233	11
32	33	1
211	217	1
104	104	1
166	209	1
76	111	1
147	147	1
210	210	4
7	17	2
214	214	5
79	114	1
43	146	2
77	77	3
198	198	3
1	1	2
74	92	3
62	63	4
168	169	1
201	225	3
39	39	6
66	66	4
184	184	5
112	114	2
164	216	3
88	88	1
185	185	3
39	40	3
51	51	4
153	153	1
8	8	3
192	192	1
76	158	2
231	231	8
150	231	1
201	226	3
22	23	3
181	182	2
10	36	3
68	72	3
239	239	2
107	107	3
186	189	1
187	191	3
101	102	2
185	189	2
49	105	3
170	171	3
47	50	3
50	107	2
227	228	2
209	210	5
58	58	1
78	78	6
63	88	1
219	225	4
102	106	3
96	96	5
36	36	3
162	225	4
113	116	5
199	235	6
244	246	1
67	67	2
91	92	3
73	95	2
5	5	5
23	23	2
45	147	2
46	96	3
210	244	2
17	17	3
57	57	1
45	75	3
223	236	4
188	189	4
111	112	1
160	160	4
100	100	6
241	242	3
180	180	5
154	156	1
15	15	7
67	93	3
112	158	1
98	98	3
164	214	3
79	80	1
168	170	2
220	229	1
9	9	7
95	95	9
38	39	1
151	151	1
191	191	3
218	218	7
204	204	2
150	150	3
200	200	2
215	215	1
155	160	2
20	20	7
68	68	1
145	156	3
0	23	2
198	234	2
208	208	6
230	230	1
234	234	5
14	15	1
234	235	1
9	10	2
183	195	1
62	64	1
87	87	1
171	249	1
183	183	2
24	24	4
193	193	2
162	162	2
54	54	4
202	202	7
45	45	1
41	77	1
33	34	2
183	194	1
40	42	1
235	235	3
94	109	1
12	15	3
178	179	4
45	49	2
5	34	1
169	169	4
9	36	2
155	155	3
79	79	2
80	80	3
188	188	2
53	53	7
92	107	4
203	204	2
19	19	1
167	171	3
165	165	3
155	205	1
55	60	2
56	57	1
220	220	3
112	112	2
82	82	1
64	65	2
212	213	1
164	164	1
167	181	1
30	30	1
61	62	2
46	46	1
77	78	1
59	59	4
89	89	1
28	28	2
81	113	2
76	79	1
242	242	1
183	190	1
183	196	3
115	115	3
175	175	4
118	118	3
42	157	1
152	153	5
152	157	2
173	174	2
113	114	4
232	233	1
237	238	1
56	56	2
49	106	1
99	109	1
174	178	1
97	108	2
168	168	1
11	11	1
118	119	5
163	163	1
81	96	1
229	237	1
85	86	2
2	2	4
17	18	1
86	86	2
92	92	1
232	232	7
146	147	1
166	166	1
208	209	1
48	196	1
102	107	1
175	179	1
5	44	2
61	75	1
66	72	1
156	213	1
67	68	2
222	222	2
65	66	1
117	117	2
114	115	2
107	119	2
110	160	1
221	222	1
154	155	1
157	160	1
221	228	1
187	187	1
69	70	2
219	242	3
55	55	1
182	185	1
5	19	1
82	83	1
34	34	2
45	53	1
77	79	1
169	171	1
52	53	1
64	64	1
4	33	1
91	91	1
49	104	1
51	53	1
61	61	2
239	242	1
201	201	2
218	223	1
48	108	1
41	41	1
106	106	1
27	85	1
28	33	2
103	103	2
237	239	1
167	215	2
69	69	1
81	81	1
50	50	1
48	49	1
