163	163	10
130	130	7
92	92	9
105	105	4
84	134	1
138	140	2
43	43	18
56	121	1
157	157	9
149	149	19
167	167	14
82	83	6
123	124	2
103	103	5
112	112	9
37	37	11
105	106	2
27	27	9
160	160	16
87	88	6
164	164	5
4	5	10
166	166	10
108	108	13
74	153	3
131	131	4
89	90	6
73	73	9
126	126	11
35	35	6
102	104	7
110	111	12
97	103	3
134	134	9
1	1	10
161	161	11
166	167	1
76	78	3
45	46	5
169	169	6
140	160	5
137	137	18
47	49	4
145	145	10
6	41	7
84	84	5
4	4	6
136	136	11
24	24	15
151	151	19
98	100	1
149	151	3
22	22	15
110	119	3
56	56	9
44	44	10
110	110	7
134	135	5
38	38	5
11	44	1
26	26	6
155	156	3
12	46	5
106	106	16
138	138	14
10	10	11
85	85	9
162	163	5
53	54	4
67	67	8
155	155	13
81	81	3
119	119	2
53	53	14
11	86	3
39	81	1
91	91	2
3	11	5
35	36	3
80	110	4
41	42	7
109	109	5
89	89	4
6	7	5
154	155	4
121	122	4
77	77	9
24	25	5
146	146	5
62	63	1
77	160	1
102	102	6
47	48	7
66	66	2
10	11	8
14	16	2
40	40	6
7	10	2
36	37	7
157	160	1
72	72	9
14	14	6
152	152	8
141	141	10
165	165	9
145	146	3
3	3	11
21	108	2
64	64	10
19	19	4
99	124	6
69	69	3
97	98	3
88	89	8
101	102	11
16	16	5
78	82	1
56	57	3
125	126	4
153	153	1
19	128	5
100	138	2
135	135	13
67	68	5
154	154	12
70	70	11
145	154	3
143	143	12
50	51	4
96	96	4
107	107	10
129	130	1
83	83	5
93	93	10
142	162	4
159	159	9
132	132	7
100	100	8
2	3	2
137	138	6
39	82	2
99	99	3
125	125	6
127	127	7
100	140	6
7	42	2
83	84	2
65	65	3
54	54	6
42	42	14
144	144	8
158	158	5
26	27	4
162	162	13
11	87	3
50	50	5
168	168	3
34	34	10
133	133	9
15	15	12
117	123	2
157	158	3
52	52	6
70	71	4
150	150	4
36	115	1
75	129	1
25	25	9
33	33	6
13	13	6
111	111	6
124	124	4
108	157	1
57	57	5
80	80	10
4	51	2
114	114	4
79	79	12
13	84	4
14	15	1
108	109	2
98	99	4
121	121	1
36	36	7
5	5	7
44	67	1
8	8	14
142	142	3
23	23	4
21	21	11
119	120	2
11	11	4
75	76	6
110	158	1
119	132	1
50	52	5
101	104	5
136	138	1
88	88	3
101	101	3
90	90	8
33	151	5
18	18	3
140	140	8
94	94	4
101	103	4
71	71	4
13	52	1
117	117	7
129	129	2
99	100	3
122	122	4
128	129	8
88	148	2
140	141	6
104	104	1
137	157	3
74	154	1
74	75	3
35	41	2
14	85	4
165	166	2
78	78	6
143	153	1
168	169	2
73	74	2
143	144	9
19	23	1
118	118	9
47	47	9
41	44	3
51	54	1
48	48	6
6	57	2
7	7	6
135	137	3
41	83	4
71	112	4
139	140	4
49	49	1
75	154	2
118	121	3
75	75	3
17	17	6
20	20	4
18	19	1
148	148	3
82	126	2
76	76	3
18	26	2
117	131	2
148	150	4
107	108	4
133	134	2
139	139	3
98	98	5
39	39	6
44	53	1
94	166	1
96	97	1
126	127	2
118	122	1
12	12	1
27	28	2
97	97	6
164	169	2
98	151	2
144	145	3
128	128	5
14	53	2
14	131	1
164	165	2
86	87	4
20	50	1
1	2	2
147	147	3
117	118	1
161	162	2
170	170	1
152	153	2
116	116	5
156	156	8
12	53	2
55	55	3
0	1	1
45	84	1
115	116	4
20	21	3
34	159	1
36	110	1
68	69	3
12	92	3
119	127	1
113	114	4
137	139	1
45	45	2
41	41	9
24	27	1
120	122	1
131	132	2
148	149	2
78	80	2
90	91	1
157	166	3
2	4	3
21	85	1
19	28	3
87	87	2
80	100	1
94	97	3
15	66	1
6	6	1
91	93	2
51	51	3
142	161	3
112	116	2
19	22	1
158	160	2
156	157	1
123	123	1
15	27	2
10	38	1
69	70	1
34	94	1
152	155	1
8	41	1
84	135	1
65	66	1
163	166	1
106	139	1
86	98	1
68	68	4
141	142	1
127	161	1
34	35	1
23	119	1
138	141	1
28	28	1
13	44	1
53	129	3
97	104	2
99	105	3
157	165	3
133	145	1
105	107	2
88	151	1
135	151	1
82	82	2
20	128	2
46	85	1
36	139	1
74	74	3
42	43	1
64	66	1
3	6	1
125	136	1
5	86	1
46	46	2
109	117	1
33	34	1
114	155	2
69	73	1
17	18	1
163	164	2
91	148	1
44	45	1
86	92	1
64	89	1
78	79	1
110	117	1
39	41	1
81	82	1
57	119	1
93	95	1
69	80	1
135	145	2
71	97	1
156	159	1
91	92	2
2	2	1
16	17	1
135	154	1
21	23	1
167	168	1
100	105	1
57	63	1
69	81	1
22	25	1
119	121	1
1	53	1
147	148	1
79	80	1
39	68	1
