47	47	8
9	57	2
48	48	30
22	22	7
36	36	6
30	30	15
74	74	15
39	39	8
59	60	1
33	53	3
2	3	8
53	54	9
72	73	9
45	46	4
69	70	9
71	71	9
60	60	16
20	20	15
13	14	4
9	14	3
25	26	8
23	34	3
76	76	11
63	63	6
70	70	17
0	77	2
42	42	6
68	68	8
46	46	4
45	45	11
57	57	2
28	29	7
56	65	3
58	59	3
67	67	12
61	61	7
11	11	3
49	50	5
13	13	10
26	26	3
66	66	13
53	53	11
72	72	10
22	41	2
75	75	9
6	6	15
42	61	2
49	49	11
12	12	5
70	74	5
41	41	11
73	73	15
52	77	2
5	5	10
55	55	5
3	4	2
12	13	7
44	45	3
22	30	1
18	19	2
6	23	3
21	21	23
51	51	12
27	54	3
23	29	2
8	9	4
31	32	2
38	39	9
65	65	7
27	35	3
43	48	1
55	56	1
23	23	5
31	51	2
64	67	2
24	25	2
31	35	3
0	1	2
29	30	2
3	3	5
29	29	2
1	2	11
45	47	7
37	37	7
0	0	13
43	43	13
8	8	7
66	71	2
47	72	4
47	48	2
10	45	2
41	42	5
22	60	2
6	10	2
26	36	2
23	60	1
52	52	9
64	64	6
9	9	10
40	44	2
40	40	4
1	1	5
33	54	3
71	74	2
26	29	1
59	66	2
4	5	9
62	67	5
26	27	4
5	57	2
39	41	2
28	28	11
19	19	4
38	38	7
35	35	9
55	57	4
41	64	1
77	77	3
44	44	9
21	44	2
21	22	3
33	33	7
62	62	9
25	32	2
5	11	1
24	24	4
56	57	8
62	63	1
40	60	4
22	54	1
27	27	5
39	40	5
25	46	3
32	37	3
49	74	3
31	61	1
76	78	4
6	7	1
40	47	2
11	12	2
69	69	4
58	58	5
22	23	3
19	20	1
10	11	8
37	38	2
31	31	10
50	50	5
30	43	3
56	56	9
43	45	1
4	4	9
27	63	1
25	25	3
35	38	3
27	61	1
9	55	4
10	10	4
68	72	1
23	24	2
41	45	1
52	54	2
36	37	1
21	33	1
38	62	1
69	72	5
7	13	2
59	65	1
30	31	2
24	33	1
45	48	1
6	8	2
54	55	2
52	67	1
45	64	2
30	42	3
5	8	2
54	54	7
18	29	1
34	34	1
30	32	3
35	39	2
19	44	1
5	19	1
71	76	2
19	41	1
31	67	2
50	51	3
20	24	3
5	7	2
46	60	3
24	36	3
6	20	2
43	44	2
59	59	3
21	23	1
34	47	1
22	34	1
26	46	1
70	71	3
22	44	1
7	7	2
18	43	1
68	70	1
29	33	2
14	56	1
32	32	2
30	70	1
39	47	1
0	2	1
38	42	1
73	75	1
19	74	1
30	69	1
9	56	1
76	77	1
39	45	1
