79	79	4
94	94	6
96	98	2
70	70	5
14	15	4
9	46	1
129	129	4
63	63	8
76	76	4
103	114	1
78	79	3
128	128	3
37	70	3
123	124	2
17	17	9
69	71	2
64	64	9
19	19	3
27	28	6
85	85	6
95	102	4
56	56	1
19	36	1
68	73	2
32	32	3
33	33	3
122	122	3
45	45	6
79	80	1
76	77	6
90	90	5
124	124	2
23	23	7
58	58	2
62	62	4
30	30	9
30	31	1
20	21	5
78	80	1
44	44	5
9	77	1
108	108	6
5	5	7
31	31	5
69	69	5
14	36	1
78	78	4
115	117	1
8	23	4
55	55	2
40	40	4
51	51	2
98	98	4
8	8	3
97	100	5
36	36	6
93	94	2
25	25	6
72	73	3
55	80	5
28	28	5
112	112	6
10	10	4
59	59	4
105	105	2
28	36	5
29	29	4
14	14	4
37	37	6
113	114	4
47	47	3
121	121	3
48	48	2
118	118	2
125	125	2
67	69	1
86	86	4
41	41	6
134	134	4
60	60	1
91	123	6
79	126	2
6	6	4
43	43	5
75	75	3
73	73	4
120	120	1
35	35	4
66	66	7
57	88	1
83	84	1
7	8	1
96	96	2
38	38	1
65	65	6
46	46	2
103	103	3
19	20	3
60	68	2
22	23	1
37	55	1
73	86	1
42	57	1
26	26	3
71	72	1
123	123	4
1	1	1
130	130	5
83	83	2
29	48	1
65	66	1
96	99	4
11	11	3
3	3	3
94	100	2
95	128	1
117	117	4
31	126	1
82	107	2
110	110	3
129	130	2
77	77	1
97	97	4
84	84	3
91	91	6
92	93	1
93	93	3
100	101	2
97	98	1
9	10	1
59	67	1
100	100	3
87	87	3
112	113	2
62	64	1
80	80	1
44	47	3
12	32	1
1	2	2
111	111	3
13	13	1
117	121	5
107	107	5
57	59	1
20	20	3
116	116	1
34	34	4
22	22	4
85	86	4
15	15	4
61	61	3
132	132	1
80	84	1
126	129	1
81	81	1
79	86	1
31	32	2
24	38	1
130	134	1
90	114	1
90	123	1
12	12	3
16	16	2
74	74	1
120	121	2
35	36	1
30	127	1
59	87	1
72	72	1
80	81	1
126	126	1
131	131	1
109	109	1
118	119	1
74	83	3
114	114	1
46	47	2
90	101	1
106	106	1
16	17	1
28	29	1
11	25	1
105	107	1
82	82	2
82	83	2
95	95	1
36	38	1
22	24	1
57	57	1
57	111	1
15	16	1
95	99	1
23	24	1
7	7	1
99	100	1
9	9	2
86	118	2
75	76	1
37	38	2
88	88	1
99	99	3
46	66	1
127	127	1
6	21	1
45	46	1
115	133	1
95	96	1
89	91	1
68	68	1
24	24	1
74	76	1
26	28	1
58	59	1
123	125	1
101	101	1
