8	8	12
193	200	1
109	109	14
87	185	3
22	26	3
82	82	15
118	119	7
36	37	1
222	224	3
172	174	7
13	14	5
42	42	10
245	246	4
96	104	5
178	178	12
99	99	17
41	41	12
43	43	4
26	26	19
61	61	18
172	172	11
47	50	4
145	145	13
7	7	4
112	115	2
226	227	4
204	204	17
75	75	10
59	60	3
201	201	12
211	211	6
197	200	2
160	160	8
152	152	4
74	74	9
151	151	9
44	44	8
170	170	12
240	240	13
80	80	9
49	49	4
235	236	9
162	181	4
176	176	5
197	197	8
23	23	15
7	9	4
234	234	14
153	153	15
45	47	4
45	45	5
246	246	8
22	22	10
238	238	3
158	185	4
19	63	4
34	37	5
153	154	6
5	77	5
84	85	5
48	50	4
244	244	12
25	28	2
158	187	5
114	114	7
84	244	4
179	180	3
237	237	14
221	221	7
110	232	1
66	66	8
87	87	10
214	215	6
246	247	7
65	65	10
64	65	3
73	76	1
1	1	9
96	96	6
14	15	5
228	229	3
37	37	5
207	207	15
78	78	3
170	171	2
163	163	6
174	174	5
100	100	3
40	43	6
226	226	2
159	159	2
208	225	4
161	161	10
216	217	13
168	168	7
16	16	8
215	215	10
167	167	7
21	21	6
164	164	9
7	59	1
35	108	6
176	177	10
63	64	3
171	174	4
95	95	7
161	181	4
212	212	4
39	39	6
28	28	26
99	102	2
147	147	5
44	47	3
6	6	8
4	4	6
207	234	10
218	225	2
175	178	1
98	98	9
31	31	10
89	89	14
73	73	6
71	71	11
52	52	10
208	208	8
97	119	6
19	19	8
116	117	1
197	198	3
182	228	3
105	105	2
237	242	3
29	29	12
182	182	6
202	202	4
13	13	4
203	203	13
18	33	6
76	76	6
190	190	6
46	47	2
84	86	4
248	249	4
97	98	4
157	157	4
118	118	5
180	180	10
83	83	3
100	102	6
77	77	3
18	19	2
112	112	9
108	108	6
9	10	1
17	17	10
33	33	8
163	174	3
202	207	5
222	222	4
106	119	2
11	11	4
23	109	1
86	86	5
63	63	3
231	231	5
57	58	2
219	220	1
94	94	5
217	217	5
47	47	6
219	219	13
31	109	1
92	92	7
14	14	13
198	199	4
213	213	9
46	75	3
175	176	3
56	118	6
55	104	3
31	34	3
54	54	8
51	51	10
212	213	5
223	223	3
184	191	2
218	219	5
155	155	5
53	53	11
117	117	1
28	32	1
82	244	3
175	175	8
60	61	5
220	220	4
81	81	7
93	93	1
173	173	10
15	16	3
78	79	2
220	223	1
27	27	9
73	74	6
198	198	3
232	233	7
79	80	3
186	186	8
235	235	3
162	211	3
216	243	5
182	227	6
70	70	5
182	184	2
65	66	2
12	12	5
39	40	6
41	93	2
112	149	1
26	27	8
95	102	2
160	180	2
171	171	3
30	31	2
200	205	3
177	177	6
165	165	6
206	206	6
157	193	1
240	244	5
230	231	3
157	158	6
115	116	3
102	102	4
33	43	5
69	69	9
184	184	6
30	30	6
40	42	1
107	107	5
185	186	3
53	54	3
183	186	1
115	115	2
156	172	1
118	120	3
79	79	4
184	196	2
112	222	4
217	219	5
183	195	4
54	61	2
2	2	2
205	205	9
44	54	1
90	92	1
3	6	1
183	183	5
48	49	3
210	210	8
91	206	2
239	239	5
218	218	1
165	208	2
48	48	7
62	63	3
159	181	5
61	63	2
240	241	6
188	190	1
247	248	4
206	207	3
197	199	4
154	171	1
5	5	1
103	103	6
171	172	4
51	55	4
18	18	2
184	185	5
155	232	1
40	40	3
224	224	6
54	63	1
187	192	4
239	245	1
96	103	2
219	242	3
209	209	5
113	147	1
247	247	4
36	36	14
44	45	1
101	101	4
156	156	5
176	197	3
214	225	5
208	234	3
10	10	5
160	181	6
57	57	6
169	170	4
152	235	2
112	114	2
145	213	2
111	111	5
87	186	1
60	64	4
229	229	3
18	45	3
151	232	4
48	56	1
210	233	4
181	181	7
108	114	1
216	216	12
51	52	1
88	88	6
72	73	5
15	37	2
67	68	11
200	202	2
239	240	2
227	227	9
85	85	6
154	154	5
76	78	2
232	232	5
196	196	2
156	158	1
5	75	2
2	3	4
101	113	3
17	19	4
230	230	5
248	248	1
8	9	4
97	97	2
95	104	4
242	242	4
236	236	9
95	96	4
90	91	2
9	9	7
82	83	2
24	24	2
25	25	7
233	234	3
71	72	5
60	60	8
162	162	10
46	46	1
165	171	2
9	19	1
233	233	4
18	60	2
188	189	5
9	15	4
166	167	2
187	187	6
2	37	3
213	215	2
161	230	2
238	239	1
144	144	2
106	107	1
64	64	4
158	191	1
110	110	3
38	38	7
77	78	3
42	43	8
160	177	1
167	168	3
70	72	2
55	93	1
188	194	3
30	35	2
83	84	2
245	245	5
119	119	2
81	244	3
72	91	1
159	176	1
157	187	2
184	234	3
6	247	2
62	62	5
158	173	1
19	20	1
215	232	1
161	162	1
185	185	3
87	92	1
78	90	4
150	150	6
249	249	1
78	94	1
35	35	1
120	120	1
6	7	4
203	228	1
181	211	3
222	223	2
144	145	2
156	157	1
11	16	2
183	184	1
55	57	1
196	197	2
58	58	2
167	171	1
61	62	3
75	76	9
220	224	1
72	72	4
9	11	2
17	54	1
184	189	2
201	205	5
165	232	4
59	59	6
26	67	4
146	146	5
70	71	2
41	82	3
2	45	3
85	86	3
221	225	2
81	82	1
4	246	1
193	193	2
225	225	4
57	59	3
58	59	2
158	158	1
50	50	1
61	64	2
49	64	1
68	70	4
195	195	3
181	191	2
192	192	5
47	48	1
19	44	3
118	210	1
17	18	1
223	224	1
17	39	1
44	85	2
63	248	1
179	179	3
221	241	1
89	94	1
98	99	1
197	236	1
149	149	1
110	111	1
48	94	2
87	117	1
40	44	2
162	226	1
156	181	1
7	60	1
55	96	3
238	240	2
88	102	1
213	214	3
14	60	1
220	222	1
87	213	1
48	73	2
109	110	1
149	150	2
194	194	1
242	244	1
205	234	2
98	101	1
68	68	3
13	75	2
163	165	2
147	206	2
33	36	1
17	23	1
169	169	3
202	212	1
160	172	1
223	226	2
228	228	4
199	200	2
15	15	4
210	211	3
198	201	1
159	185	1
104	117	1
210	212	1
38	46	1
10	11	1
9	21	2
186	187	2
187	194	2
207	208	2
99	100	3
32	32	4
56	58	2
69	70	3
77	91	2
31	35	1
117	118	1
7	18	1
224	225	1
193	195	1
166	232	2
162	229	1
90	90	2
160	197	2
3	3	3
91	91	2
154	155	1
7	17	1
97	99	2
33	42	2
223	225	3
147	170	1
112	209	1
200	200	1
106	106	1
28	29	2
66	69	2
152	209	1
78	80	1
47	49	2
165	231	1
171	185	2
52	64	1
113	114	2
55	212	1
102	103	2
27	28	1
145	227	2
199	199	1
108	112	1
180	181	1
116	220	1
160	188	1
164	165	3
176	181	1
200	201	2
67	67	1
76	91	1
201	202	1
157	212	1
104	105	1
211	212	1
22	23	1
59	95	1
5	248	2
157	172	1
105	107	2
220	221	1
42	96	1
163	230	1
157	179	1
50	51	1
194	195	1
56	72	1
34	34	1
80	81	1
83	89	1
178	181	2
232	240	1
9	16	1
189	190	1
41	246	1
55	55	1
102	116	1
50	58	1
185	187	1
86	185	1
179	187	1
89	102	1
192	193	1
