10	10	9
80	80	1
5	5	4
152	160	3
110	111	2
10	11	7
27	28	5
154	155	6
165	165	8
175	175	3
72	73	5
182	182	3
60	60	7
18	18	9
65	65	14
117	160	4
47	47	5
245	245	5
19	204	3
8	9	9
70	71	6
173	173	10
7	7	16
27	27	9
106	106	7
221	222	5
97	98	2
231	231	3
219	220	1
3	3	5
62	62	12
11	11	10
209	211	4
48	48	9
69	69	5
32	32	17
211	211	8
183	183	8
230	230	11
225	226	2
95	95	6
224	224	6
33	33	10
67	68	2
86	86	3
201	201	13
92	92	14
237	240	5
44	44	12
178	178	4
51	51	12
34	115	4
115	165	2
240	240	5
7	8	1
19	20	1
17	17	13
53	53	9
12	12	12
88	88	13
26	28	4
155	155	12
45	45	12
54	54	11
179	180	2
59	59	12
14	145	2
229	246	5
180	180	13
76	95	1
70	70	4
61	63	1
106	116	1
200	200	12
226	226	18
219	219	7
217	217	15
175	176	5
195	195	8
2	2	5
24	24	9
171	171	11
26	151	3
164	173	4
234	234	4
241	241	8
102	102	8
232	237	4
14	15	6
61	99	4
116	117	1
231	241	1
218	218	11
232	242	1
9	9	12
232	232	5
154	154	11
64	64	8
15	15	6
238	238	7
83	90	2
230	231	6
109	155	2
76	76	8
111	111	10
187	188	6
114	116	2
93	94	2
35	45	1
26	95	5
97	97	5
49	49	5
63	63	8
157	157	4
19	147	3
164	164	6
218	219	8
72	72	12
242	242	9
207	208	3
193	193	12
160	160	3
40	40	7
225	225	16
91	91	9
22	27	3
102	104	2
68	68	8
31	31	15
74	74	13
186	186	7
203	203	8
43	43	7
83	84	2
176	177	13
75	95	5
162	166	2
228	228	13
41	54	3
163	163	7
192	192	8
6	7	3
20	181	3
104	104	7
179	202	1
182	183	7
229	229	9
235	235	10
78	78	11
66	66	5
23	23	13
20	20	8
159	159	3
104	106	3
150	151	1
8	8	3
52	52	9
198	198	6
84	84	1
95	214	2
149	173	1
71	71	10
210	212	2
19	19	11
78	79	6
202	203	2
179	179	2
50	50	3
26	26	19
213	213	9
26	214	2
42	42	5
209	209	6
36	36	12
37	201	1
77	77	9
41	41	6
99	99	7
21	21	14
151	151	16
7	9	2
75	76	2
18	19	7
65	71	2
188	188	2
19	205	1
197	197	13
46	46	7
175	177	5
94	94	4
188	223	3
229	230	1
57	80	6
89	89	10
67	67	8
34	35	5
7	85	3
118	118	6
86	87	2
43	44	2
108	108	12
31	65	1
239	239	6
82	82	8
177	177	6
236	236	13
100	100	14
25	26	3
56	57	1
56	56	14
168	172	2
105	169	1
28	29	3
114	117	3
5	114	1
65	66	4
33	100	6
196	196	5
156	156	16
150	156	1
1	1	9
26	173	10
119	119	3
216	218	2
222	222	11
38	55	4
102	103	4
29	29	8
214	214	6
38	39	3
102	115	1
165	166	3
168	168	2
17	18	4
73	73	1
166	176	2
158	159	4
109	109	9
27	174	1
161	162	3
102	113	3
117	162	4
235	244	1
151	153	3
107	107	9
74	75	2
167	168	3
161	161	7
169	170	3
112	206	3
192	229	1
237	237	4
2	7	3
180	181	5
162	162	6
96	97	4
194	196	5
199	200	3
188	189	6
61	61	9
90	90	12
55	56	3
243	243	2
154	158	1
171	173	1
34	56	6
108	109	4
213	228	5
238	239	6
198	199	7
178	179	2
113	113	5
57	57	5
210	211	6
181	181	5
28	28	13
199	199	4
163	172	1
205	205	2
153	159	5
50	86	6
207	207	5
34	34	12
17	19	1
208	208	5
67	111	4
37	37	1
37	182	2
216	216	3
79	80	3
166	166	6
160	172	1
18	22	2
60	64	4
167	167	6
79	79	4
58	58	6
108	110	4
48	77	3
241	242	6
152	152	4
25	25	2
200	213	6
79	88	2
84	85	2
54	57	4
98	98	6
35	35	9
163	164	7
202	202	4
226	227	2
161	178	2
153	153	7
185	186	2
116	116	5
117	161	2
231	233	2
20	23	3
68	69	1
113	117	6
50	84	2
105	105	4
92	93	2
96	96	7
45	46	2
9	12	3
115	116	5
23	198	1
214	215	2
155	174	1
12	15	1
206	206	9
30	30	5
113	206	2
17	200	2
187	187	4
189	235	2
34	116	2
170	170	8
18	20	3
208	211	3
20	204	4
15	86	2
194	224	2
75	75	4
95	215	3
204	204	6
234	235	3
153	154	4
152	153	3
220	220	7
235	243	2
69	70	3
103	113	2
144	148	1
177	178	1
217	218	3
118	169	1
87	87	3
195	224	1
190	233	1
28	202	3
228	229	3
215	215	6
152	168	2
117	118	5
155	159	4
92	95	1
82	84	2
64	65	5
25	151	2
106	118	1
81	82	4
46	83	2
190	190	17
108	153	1
68	70	5
231	232	2
117	184	4
9	11	1
110	113	2
49	89	1
212	212	4
233	247	1
99	100	3
81	81	2
76	77	2
76	78	1
114	115	4
43	56	2
210	210	3
234	236	1
109	114	1
221	221	5
198	229	2
16	22	1
246	247	1
98	101	1
53	54	3
202	212	2
113	114	3
181	197	1
117	117	5
193	224	3
168	169	3
32	109	3
75	89	3
38	38	3
110	110	5
33	35	6
241	245	2
21	199	1
81	85	2
166	209	1
158	158	3
187	230	1
206	207	4
32	33	2
120	120	3
247	247	4
227	227	11
115	115	3
14	14	2
223	223	2
108	162	1
4	5	3
44	45	2
46	47	1
57	58	4
101	101	2
99	162	2
29	30	5
6	6	3
114	114	4
54	200	4
63	65	5
146	147	1
172	173	3
145	145	1
150	150	2
179	210	1
38	156	1
189	189	5
211	212	1
55	58	1
191	191	2
113	120	2
194	194	5
160	161	2
159	168	2
153	160	1
21	213	1
177	209	2
245	246	1
29	64	1
32	35	3
28	31	1
42	43	3
226	228	1
34	100	1
144	144	1
9	53	2
58	59	1
55	55	5
197	202	1
248	248	2
215	216	2
23	24	1
51	52	3
114	144	1
105	119	2
55	93	1
149	149	2
50	85	1
146	146	1
30	31	1
112	112	3
151	173	2
47	78	2
85	85	4
100	101	2
200	245	4
223	231	1
190	191	6
23	201	1
11	12	1
203	208	1
48	89	1
156	174	2
180	202	1
174	174	4
24	198	2
39	183	2
185	185	3
52	53	4
193	194	1
244	245	2
57	92	1
118	119	3
103	103	1
202	210	2
151	168	1
31	64	2
16	16	2
94	99	1
95	96	1
167	209	1
102	108	1
49	51	2
95	97	1
233	233	2
147	147	1
181	182	1
101	104	3
8	145	1
49	50	1
79	87	2
73	114	1
35	114	2
26	27	3
24	25	1
29	31	1
22	22	2
8	150	1
4	4	2
95	110	1
71	75	1
17	28	2
93	93	2
167	170	1
216	217	3
104	105	1
150	205	1
55	59	2
144	204	1
39	39	1
176	176	3
152	171	2
182	194	1
148	168	1
31	32	1
67	71	1
229	231	1
79	91	1
71	72	2
116	166	1
246	246	1
66	67	1
38	41	1
112	205	1
15	16	2
155	156	2
87	88	1
181	206	1
153	169	2
151	171	1
63	64	2
237	241	3
59	60	1
247	248	1
58	60	1
39	40	1
38	184	2
207	213	1
75	88	1
8	54	1
30	64	1
34	94	1
188	195	2
184	184	2
214	229	1
232	233	1
170	171	1
56	59	2
9	10	1
80	93	1
182	201	1
15	17	1
56	94	1
33	114	1
82	83	1
80	82	1
26	213	1
21	54	1
35	115	1
