36	36	2
128	129	4
124	127	1
52	53	2
66	68	2
126	137	1
51	57	4
75	83	4
116	134	2
81	95	3
77	98	1
101	101	2
101	103	3
152	170	4
150	155	1
89	99	4
62	76	1
173	173	2
94	113	1
73	73	2
74	75	2
29	30	4
25	25	10
177	177	4
87	87	3
120	120	10
36	45	4
155	155	3
20	40	3
18	26	2
31	32	5
129	129	3
91	91	1
128	128	4
100	100	3
164	169	2
84	85	2
4	102	2
87	89	2
24	24	6
118	129	1
79	81	3
10	22	1
61	61	1
44	44	1
127	131	2
0	33	4
146	169	4
60	67	2
165	165	1
135	154	4
112	113	2
164	164	5
73	87	4
113	128	2
95	96	5
110	110	7
41	41	8
167	167	5
83	88	3
154	166	2
97	97	2
157	162	3
93	94	1
158	158	3
118	131	3
92	92	6
38	38	2
92	95	1
79	80	1
174	174	4
104	124	1
40	40	2
14	21	1
39	74	3
103	103	2
38	42	2
71	78	1
24	25	2
89	89	3
175	175	2
168	168	2
132	132	1
174	178	2
149	168	1
65	67	2
15	15	6
130	133	3
110	129	1
119	119	6
101	118	1
94	94	1
55	74	6
172	172	5
124	150	2
19	31	3
173	176	3
5	5	4
66	70	3
144	168	2
106	118	1
4	4	2
43	43	1
176	176	2
28	28	2
148	160	1
3	3	3
35	35	3
89	90	3
108	108	1
169	169	7
175	176	6
179	180	3
169	179	3
16	34	1
121	140	3
150	152	2
67	67	3
22	37	3
16	30	2
83	91	6
60	60	1
28	34	1
53	62	1
160	161	7
156	175	1
64	78	2
132	133	3
9	15	4
157	157	2
130	160	2
25	42	1
117	129	3
9	9	8
171	171	12
139	146	5
99	113	3
9	72	2
144	144	2
59	59	3
104	115	3
111	127	2
81	94	2
26	27	2
134	135	2
75	75	4
78	85	2
168	169	5
150	150	1
111	125	1
90	97	2
51	51	4
16	40	1
79	82	3
49	56	3
146	146	3
134	136	2
160	162	2
170	174	3
119	130	3
50	54	1
159	159	3
88	99	1
18	38	1
54	93	2
63	63	5
80	89	1
98	105	1
106	106	2
83	83	1
140	140	2
50	50	4
53	59	2
53	53	1
152	177	1
166	166	2
28	29	2
112	112	2
30	31	3
67	72	2
94	99	1
107	114	2
2	2	1
8	10	2
162	162	2
92	94	2
132	148	1
111	111	1
73	102	1
116	124	2
34	40	2
100	115	2
117	131	1
65	80	2
10	11	1
59	70	1
104	104	1
162	165	2
16	27	2
152	164	1
32	32	2
72	79	3
22	34	1
39	39	1
78	78	2
153	157	2
18	32	1
145	148	2
76	92	1
55	90	1
126	126	1
158	170	1
56	56	3
119	137	2
1	5	2
163	163	1
15	26	1
111	114	2
67	75	1
158	167	1
7	7	1
73	97	2
29	29	2
114	114	1
64	64	1
4	8	1
85	85	1
85	89	3
167	170	1
152	171	5
34	34	1
74	74	2
149	179	1
5	6	1
37	45	1
157	163	1
156	173	1
55	55	1
137	137	1
135	135	1
156	170	1
171	174	1
171	178	1
8	8	1
