6	10	3
83	84	5
106	134	1
69	69	3
81	82	6
84	84	7
133	136	1
163	167	1
98	116	1
99	99	5
74	74	4
134	134	3
107	135	2
125	125	5
58	60	2
100	100	3
29	31	5
43	44	2
160	160	5
55	56	2
175	175	4
48	51	1
126	126	8
43	89	3
16	35	3
49	150	2
2	2	1
27	27	2
9	9	5
116	117	4
26	26	3
110	111	2
24	26	6
46	140	3
67	67	4
16	34	2
104	134	2
22	35	3
21	21	5
6	6	4
43	43	3
49	50	2
110	159	1
196	196	1
98	98	3
167	167	2
90	90	2
20	20	6
39	41	2
66	66	3
79	79	1
48	48	15
116	116	3
152	152	1
81	81	1
15	15	2
132	132	2
168	169	2
24	25	1
153	155	3
141	141	3
193	193	3
45	45	2
111	112	1
130	130	2
64	64	5
95	101	1
99	101	1
170	171	1
89	89	2
165	166	1
123	123	6
151	151	2
42	43	1
83	83	4
138	138	4
61	61	2
20	21	2
17	17	3
154	157	3
49	49	2
16	16	4
127	127	1
156	156	7
97	116	4
192	192	4
104	104	4
118	119	2
44	45	1
29	29	3
119	120	2
48	50	1
48	49	2
135	135	4
124	124	4
12	12	2
19	39	1
137	137	1
114	114	4
109	168	2
64	76	1
138	139	5
10	10	5
117	117	2
146	147	3
6	7	1
44	47	2
145	146	1
30	30	3
150	150	3
106	133	1
149	149	2
189	190	1
184	184	3
58	59	2
41	41	3
108	108	3
144	144	7
13	13	1
172	182	2
85	85	2
51	51	1
45	100	3
172	172	3
60	60	5
186	186	2
58	58	3
187	187	4
111	154	1
31	31	1
94	94	4
8	8	4
40	40	1
96	96	3
34	34	2
77	77	3
73	74	2
11	11	1
63	63	2
119	119	1
36	37	1
185	185	3
44	44	3
161	163	1
7	8	3
110	110	2
59	59	4
176	177	1
111	111	5
133	133	1
189	189	1
105	106	2
5	5	1
158	189	1
33	33	3
143	144	1
71	71	5
72	72	1
98	114	1
168	168	2
18	19	1
21	22	3
71	77	1
32	32	1
52	52	2
164	164	2
122	122	1
151	155	1
142	143	1
113	117	2
188	192	3
131	131	4
109	113	3
111	155	2
94	100	1
18	32	2
119	136	2
185	186	3
136	137	1
63	64	1
47	47	2
72	73	1
38	38	4
163	164	1
141	142	1
37	37	1
103	114	2
134	135	1
32	33	1
146	153	2
192	193	1
174	174	2
104	135	1
53	54	1
73	73	3
22	30	3
22	23	1
67	74	1
76	76	2
190	190	1
42	42	1
112	112	1
118	118	1
28	28	1
197	197	1
188	189	1
8	11	1
6	38	1
50	50	3
110	113	2
4	4	1
146	146	1
8	20	1
136	136	2
35	87	1
109	109	1
162	162	1
23	30	1
94	95	1
95	95	1
18	18	1
142	142	1
128	128	1
107	134	1
187	188	1
28	29	1
