75	75	6
68	69	5
23	23	15
61	61	4
33	55	4
56	56	12
41	41	10
32	32	3
90	91	2
41	44	3
42	42	1
79	79	5
73	74	2
57	57	6
64	65	7
36	36	7
79	86	3
66	77	4
73	73	2
25	25	3
95	95	3
52	52	7
51	51	4
77	77	15
26	61	3
89	92	6
75	77	1
88	88	3
50	50	9
24	80	5
36	37	1
26	49	3
29	29	7
59	59	8
66	66	1
43	44	6
89	89	2
55	55	1
81	81	9
61	88	6
65	66	4
92	100	1
39	39	3
31	36	1
94	94	4
26	80	1
64	64	18
102	103	7
35	35	8
22	22	2
43	43	4
23	41	4
74	74	16
86	98	2
97	97	6
68	76	3
85	86	3
20	45	1
20	49	3
105	105	2
33	72	2
28	59	3
24	24	9
51	96	3
99	99	6
86	86	5
39	45	5
38	64	1
56	106	2
84	84	8
52	56	4
80	82	6
81	103	5
63	69	2
44	44	4
96	100	4
31	31	15
44	45	2
76	76	13
70	70	5
102	104	1
58	58	1
78	86	5
67	77	5
48	48	2
64	69	4
98	98	4
20	20	1
86	101	2
49	49	2
30	31	4
96	96	4
80	80	1
87	98	2
46	46	4
97	99	3
67	68	1
73	91	9
30	36	1
82	89	2
101	102	4
59	60	2
91	91	1
52	57	1
83	89	1
40	99	5
25	26	1
78	78	5
70	90	2
37	53	1
100	100	3
103	103	8
67	67	3
74	75	5
45	45	3
39	53	5
68	68	6
91	105	4
71	71	2
79	81	6
59	62	1
22	62	2
92	92	3
78	84	3
65	65	2
42	46	2
40	42	5
50	51	4
61	71	6
82	82	5
26	26	10
48	49	1
69	69	6
52	53	4
98	99	1
79	83	1
81	87	2
37	37	2
39	41	1
20	21	1
97	102	6
56	57	3
27	29	2
102	102	1
37	46	1
23	40	1
92	93	2
86	87	3
34	57	1
54	54	1
27	28	2
53	54	2
82	83	1
62	62	1
75	76	6
27	60	1
57	71	3
35	37	2
51	54	2
88	107	4
30	30	2
62	63	1
63	64	1
28	28	3
21	21	2
64	72	1
79	87	1
24	39	1
62	70	1
83	85	1
31	32	1
104	104	1
85	85	4
87	99	1
33	73	1
63	78	2
41	49	2
59	83	2
72	73	2
53	53	1
25	59	2
44	49	2
33	33	2
24	79	1
92	94	1
39	40	1
47	47	1
65	77	3
22	23	2
40	40	1
93	93	1
51	55	1
37	52	1
46	48	1
40	97	2
66	71	1
97	100	1
79	80	1
34	35	1
88	98	1
83	83	1
24	58	2
22	29	1
27	49	1
21	24	1
