36	42	6
37	37	10
95	97	1
159	160	12
115	121	2
5	6	2
127	127	8
86	86	2
68	68	11
115	115	4
0	0	3
120	120	14
134	135	7
178	178	9
133	176	1
161	161	14
134	139	1
87	87	12
83	86	4
16	16	12
169	170	4
83	102	2
159	159	11
107	107	10
135	139	4
32	32	12
62	62	2
111	111	7
32	43	2
5	5	9
45	45	8
77	79	4
95	98	3
29	30	6
113	114	2
158	158	4
101	129	4
146	146	6
138	138	11
28	30	1
81	81	3
49	50	2
73	73	11
101	101	7
51	51	9
136	136	4
15	15	6
77	77	16
157	157	11
168	168	9
99	99	6
72	73	2
165	165	14
121	121	11
174	174	11
52	52	13
89	90	6
108	108	8
95	95	5
52	53	3
145	150	3
137	139	5
73	76	2
60	60	8
120	121	2
118	118	5
6	49	3
109	109	7
118	120	1
23	29	3
10	10	6
8	11	6
114	114	10
29	83	3
81	102	3
157	160	3
166	166	3
72	72	15
116	116	6
35	35	5
38	38	8
71	72	1
63	64	8
7	20	1
56	56	11
100	100	10
79	79	12
121	122	3
39	39	9
76	76	9
27	27	12
172	172	14
40	40	6
103	104	5
132	133	2
132	132	3
65	95	1
76	77	6
59	59	5
123	123	13
30	78	3
164	164	9
18	23	1
151	156	2
124	125	7
173	173	4
75	76	7
92	92	10
115	116	3
93	102	3
98	130	4
74	81	3
54	66	1
43	43	10
33	33	19
102	102	5
152	153	2
75	75	6
77	78	2
83	85	3
24	24	8
105	106	2
57	57	6
36	36	8
110	110	5
133	133	12
63	65	3
60	62	3
30	73	3
71	71	11
51	74	1
175	175	7
29	29	2
14	14	9
16	32	7
89	133	3
31	31	7
94	95	7
110	111	1
41	41	5
122	122	6
106	107	4
139	139	5
128	141	4
164	166	2
24	31	4
135	135	7
21	23	1
65	65	7
55	56	1
98	98	7
144	144	8
121	136	2
179	179	11
87	88	3
0	180	2
5	62	2
89	119	2
91	91	5
112	112	8
8	12	1
103	103	8
2	2	5
144	145	1
84	85	3
149	149	9
131	131	2
6	6	6
156	157	5
118	136	2
119	119	1
96	97	2
142	143	1
90	90	4
97	97	14
142	142	5
81	83	3
28	28	3
124	149	2
180	180	3
150	150	5
85	94	2
145	147	5
148	171	3
16	17	4
16	18	1
122	158	2
133	141	1
93	93	6
38	39	5
42	42	3
106	106	11
153	155	3
140	146	3
154	154	4
18	18	4
160	160	5
6	19	1
64	65	3
117	117	4
89	89	3
98	114	2
152	158	4
22	22	5
88	88	7
131	133	3
13	42	4
176	179	1
26	30	2
40	41	2
17	17	1
137	137	6
78	91	1
162	162	5
150	157	1
1	4	5
118	154	2
150	151	4
31	44	3
145	145	5
127	128	1
147	147	8
80	121	3
141	145	1
80	93	3
78	78	3
22	59	2
30	30	8
111	113	3
155	155	8
29	60	2
141	141	6
169	174	6
54	54	8
79	80	2
28	87	1
35	43	2
96	96	5
159	166	2
148	170	2
110	114	3
152	152	3
129	129	6
56	58	2
67	103	3
137	138	6
108	109	1
3	3	8
85	85	6
11	11	1
126	172	4
23	59	2
39	42	2
124	124	6
23	60	1
90	133	3
162	163	1
176	176	7
163	163	11
2	80	2
134	142	4
50	50	8
81	120	2
4	4	1
27	28	2
169	169	8
92	94	4
53	53	6
32	45	2
3	4	2
2	3	4
74	76	1
64	64	11
151	153	4
130	130	3
94	94	6
31	32	5
89	94	2
140	140	6
61	61	5
130	131	5
22	23	2
97	114	2
55	66	2
170	170	4
122	136	5
12	41	2
136	143	5
71	77	4
125	126	4
142	144	1
92	97	3
170	171	7
153	167	1
57	58	2
17	19	1
82	82	3
153	153	5
39	43	3
147	150	1
66	70	3
143	144	2
73	80	4
88	118	1
148	157	1
152	165	1
165	166	2
78	80	1
103	110	1
121	123	2
31	77	1
59	60	4
171	171	6
148	173	2
172	174	2
31	72	2
93	94	1
134	134	9
141	153	1
147	148	2
138	139	1
92	98	3
32	33	5
26	27	5
30	31	4
139	145	3
61	63	1
7	10	2
36	41	3
80	90	1
2	93	2
42	44	1
12	14	1
67	68	2
129	132	1
83	83	5
81	82	2
7	21	2
86	89	1
34	34	5
7	9	2
9	9	4
86	90	1
153	154	1
73	74	3
123	124	3
126	126	4
92	102	2
64	66	4
141	149	1
143	151	3
15	18	2
20	20	4
80	80	4
24	29	1
26	26	1
151	152	2
99	130	1
54	56	2
121	135	5
107	108	3
12	12	3
11	39	1
26	28	1
83	90	2
169	171	1
77	122	1
66	66	1
66	67	1
53	57	2
116	137	2
163	164	1
0	176	1
118	137	1
137	141	1
167	167	4
143	143	4
137	145	1
14	15	9
63	63	5
34	44	1
54	67	3
23	23	1
4	5	1
161	162	2
1	1	2
131	147	2
8	9	1
148	148	3
163	165	3
90	91	3
178	179	1
102	106	2
37	44	2
125	125	2
25	30	2
125	159	2
127	172	2
96	100	2
160	164	1
98	99	2
116	117	4
179	180	1
59	101	1
116	143	1
12	13	2
150	153	2
21	21	2
7	7	2
119	136	3
2	95	1
177	177	4
14	35	2
70	105	2
149	155	1
27	30	1
151	151	3
140	145	1
145	146	1
86	104	1
67	67	1
162	168	1
133	134	2
176	180	1
3	20	2
123	125	1
104	104	2
166	167	1
6	7	1
51	52	3
102	103	1
56	59	1
146	170	2
85	86	2
19	19	1
175	176	1
21	42	1
91	92	1
25	26	2
54	77	1
83	91	1
39	40	3
113	113	1
22	78	1
163	170	1
107	109	1
132	147	1
127	153	2
58	59	1
0	1	2
128	128	1
11	21	1
151	159	2
148	149	1
45	46	2
178	180	3
148	172	2
92	96	2
35	36	1
68	103	1
10	22	1
109	111	1
144	146	1
8	8	1
66	95	1
7	13	1
157	165	1
97	100	1
17	18	1
85	101	1
74	74	2
23	50	1
128	129	2
164	169	1
58	62	1
133	146	1
