221	222	1
151	151	5
94	94	10
45	45	14
168	168	5
11	171	5
145	162	1
218	220	8
198	231	4
58	58	10
21	26	10
209	209	11
156	220	3
233	234	5
74	98	3
16	17	1
8	26	2
26	27	5
83	171	5
212	212	7
166	166	8
12	12	3
168	186	5
161	161	7
64	64	5
222	223	3
85	85	11
61	61	11
27	27	7
113	113	12
157	157	8
51	52	7
74	74	4
1	26	5
65	80	1
109	109	3
167	167	3
159	159	14
193	193	5
49	51	1
229	230	12
41	43	1
115	160	1
214	225	4
28	28	9
197	242	1
175	175	3
194	194	4
42	42	11
171	180	1
82	82	6
232	232	2
188	188	12
216	216	15
32	32	10
224	224	10
41	235	2
14	14	9
116	116	13
241	241	8
175	178	1
110	110	12
197	197	12
235	235	10
189	191	7
221	221	13
198	229	3
234	234	7
147	176	1
40	76	1
8	8	8
151	183	1
107	116	5
218	218	7
80	84	6
55	59	3
66	69	4
68	68	4
71	71	7
97	97	3
66	66	7
185	185	5
195	195	3
22	23	2
37	53	3
66	67	5
81	81	5
93	97	6
23	26	2
34	34	8
183	227	1
73	73	12
158	158	6
24	24	6
78	168	5
19	198	1
187	188	2
5	5	3
10	83	1
219	220	1
1	36	3
215	215	12
55	92	4
72	102	5
27	28	5
80	101	4
191	209	3
152	234	2
232	234	4
43	43	7
75	98	7
176	179	1
104	104	2
229	229	6
170	172	6
34	107	4
229	231	1
49	50	2
195	196	2
96	99	3
202	205	1
35	96	6
86	86	9
145	169	6
55	55	7
160	209	7
154	154	11
208	209	2
82	85	2
84	85	5
2	40	1
198	202	3
6	6	3
100	100	12
91	92	3
88	88	7
214	230	1
150	150	5
67	69	2
23	23	3
172	223	5
156	156	16
114	115	5
9	9	14
181	181	8
112	112	3
53	53	5
25	46	3
173	209	1
241	242	4
170	170	11
184	239	3
171	223	1
180	180	7
18	18	4
21	86	2
75	75	4
146	177	2
165	190	1
23	151	1
119	119	4
162	162	9
26	26	2
21	21	7
1	85	2
150	235	5
119	241	3
111	111	16
12	70	2
158	233	1
50	50	7
25	154	4
73	102	1
63	63	2
95	95	7
172	173	2
4	4	7
239	239	6
106	106	7
41	41	4
105	105	8
67	67	3
29	29	10
232	233	5
165	208	3
223	223	6
49	75	3
204	204	5
234	241	3
89	91	4
93	93	1
217	217	11
146	146	2
227	248	2
186	186	8
56	56	7
244	244	12
38	38	6
202	202	12
10	28	2
65	67	2
152	153	3
47	190	4
92	99	1
60	74	1
216	236	4
18	34	5
244	248	3
59	78	3
184	184	2
225	225	10
221	223	2
70	70	4
100	101	3
98	98	9
191	191	8
52	52	6
151	199	6
10	11	3
231	231	5
231	234	5
5	115	1
167	192	1
59	60	7
219	221	6
39	161	2
10	10	5
32	38	3
8	14	5
36	85	3
155	155	4
177	177	7
19	19	5
244	246	1
14	15	3
39	39	2
89	89	3
87	87	7
16	73	4
11	110	7
230	230	4
145	145	5
4	114	1
44	46	4
14	47	3
178	222	5
11	11	12
153	204	1
173	173	3
85	86	3
46	46	1
83	83	4
115	115	6
28	29	2
30	30	1
15	15	15
31	31	12
8	9	5
217	235	1
113	114	8
29	45	2
39	160	5
1	51	3
171	171	10
197	223	2
109	110	4
165	165	5
159	180	3
178	179	9
152	182	4
238	238	10
52	107	4
192	192	7
60	60	1
164	164	5
57	80	5
205	213	3
17	18	2
187	187	8
201	204	1
226	227	5
47	48	1
33	33	3
36	36	6
49	153	1
68	73	6
175	194	2
78	107	1
62	62	5
9	10	2
200	200	3
147	209	2
65	65	9
172	172	4
233	233	9
224	225	1
7	8	3
17	19	6
102	102	3
195	197	1
91	91	4
50	74	3
24	234	1
210	210	2
58	98	3
185	214	1
168	169	3
64	65	6
219	219	9
16	16	5
67	99	3
198	198	2
199	199	9
238	239	4
165	166	5
172	198	2
20	54	2
12	15	7
32	92	3
239	240	4
246	246	6
242	242	10
221	241	4
49	57	4
153	153	5
29	37	2
157	204	1
181	205	5
39	40	3
226	226	3
92	92	5
18	37	2
193	217	2
37	37	10
40	110	2
54	153	4
228	229	2
54	54	3
90	91	1
115	117	2
236	237	1
6	61	1
74	96	1
4	57	2
113	115	4
5	68	4
34	56	4
27	31	3
167	182	2
216	237	2
71	90	1
94	95	3
206	206	2
166	173	2
161	175	2
58	112	3
101	101	3
241	246	2
117	117	3
48	93	1
238	240	2
207	208	1
47	94	2
30	44	2
3	3	3
33	54	2
78	78	2
199	204	2
179	207	2
25	26	2
73	80	6
44	44	5
196	200	1
158	234	2
10	19	1
33	36	2
16	26	2
62	90	1
16	154	4
7	7	5
77	80	2
64	71	2
160	166	2
54	55	3
183	183	2
171	227	2
4	5	1
72	80	2
218	229	2
20	20	3
112	119	1
237	238	5
176	209	1
227	227	12
163	176	5
17	17	4
159	163	1
87	114	3
196	225	4
237	239	2
9	61	2
175	176	2
230	234	2
105	108	1
163	163	2
223	226	1
39	101	3
40	40	5
205	205	6
240	240	7
162	163	1
218	221	1
147	208	3
32	33	3
57	58	2
178	178	5
186	218	2
172	174	3
6	94	1
57	57	10
118	118	2
81	85	5
190	191	2
92	94	1
3	38	3
214	234	3
7	77	1
247	247	5
149	149	4
70	112	2
160	160	7
160	226	2
74	76	2
5	34	1
2	56	2
3	4	1
245	245	2
216	217	5
69	69	4
3	81	4
199	230	1
74	106	5
211	212	8
213	213	6
48	48	1
4	50	1
214	214	2
58	73	1
150	151	3
31	44	1
76	90	2
87	105	2
155	156	4
56	173	2
60	91	2
41	42	1
9	56	1
3	7	2
209	213	1
218	246	1
34	54	2
215	217	1
118	119	1
171	172	2
115	158	1
86	87	1
96	96	2
196	196	1
165	188	1
61	101	2
45	59	1
56	57	1
187	205	6
13	14	1
203	203	3
22	68	1
152	161	1
25	25	3
114	114	1
202	212	2
201	213	1
176	176	3
90	90	4
163	191	1
208	208	3
16	27	4
164	165	2
16	77	1
1	1	3
5	48	4
194	195	4
6	7	2
182	192	2
82	84	2
169	169	1
6	63	4
49	49	2
78	104	3
202	226	1
163	165	1
75	79	2
28	31	1
168	224	1
152	152	1
249	249	1
81	82	2
4	30	1
156	236	1
182	182	4
78	89	2
18	85	2
218	222	2
8	37	2
169	186	1
156	185	2
157	171	1
235	236	2
41	80	1
23	156	1
2	2	1
236	246	1
68	69	2
188	220	1
29	32	3
37	56	1
189	189	1
166	177	1
176	198	2
145	147	1
51	51	1
192	247	2
5	37	1
34	35	1
196	201	2
12	17	2
69	112	1
50	153	2
183	184	1
161	174	3
95	102	2
201	202	1
221	240	1
52	53	1
102	105	2
84	84	4
105	106	1
61	104	1
169	195	2
35	35	3
78	167	1
168	199	1
222	246	2
1	17	2
222	222	4
42	154	3
174	214	2
179	179	2
20	37	1
108	108	1
38	39	2
9	40	1
62	81	1
116	119	1
163	228	1
2	3	1
80	81	1
6	47	1
68	88	1
174	180	1
231	233	2
193	196	1
37	57	2
75	76	1
241	247	2
160	203	1
183	190	3
69	70	2
59	59	4
62	63	1
28	71	1
62	110	1
245	248	1
144	144	2
5	16	1
197	224	1
43	44	1
237	237	2
11	12	1
170	171	1
57	94	1
28	70	1
211	211	1
26	38	1
236	236	1
17	114	1
208	210	1
58	69	1
99	102	1
68	70	1
147	202	1
59	62	1
113	116	1
174	174	1
37	42	2
58	74	1
72	100	1
161	162	1
98	108	1
99	100	1
223	225	1
206	207	1
182	199	1
247	248	1
30	34	1
38	116	1
96	101	1
28	45	1
97	98	2
30	31	1
76	76	1
120	144	1
149	174	1
56	107	1
82	98	1
120	120	2
205	231	1
213	214	1
12	119	1
71	102	1
