12	12	5
85	85	6
108	108	5
94	108	1
91	124	5
37	37	6
16	16	8
116	116	15
87	87	11
90	90	6
34	34	2
73	74	3
96	96	9
73	73	7
84	114	3
92	92	5
123	123	8
110	110	6
13	13	6
38	65	1
130	130	11
95	95	14
81	81	16
94	111	2
90	91	5
26	26	25
103	103	10
1	1	2
98	115	1
95	101	4
134	134	6
126	126	16
74	75	8
21	21	8
9	10	4
109	109	11
71	72	4
4	5	12
98	98	23
136	136	4
20	20	7
23	23	15
71	71	8
115	115	9
78	78	16
131	131	7
77	77	8
127	130	3
129	129	6
29	29	4
30	30	5
35	35	8
32	32	9
89	89	7
91	91	5
106	106	2
111	111	3
79	79	8
124	124	4
112	112	11
3	5	3
20	21	7
82	129	2
31	82	3
0	37	1
128	128	6
94	94	7
133	133	3
118	119	7
96	98	5
19	20	3
125	125	9
1	2	4
22	23	1
17	17	14
9	9	5
34	35	5
24	24	11
105	109	2
106	107	2
8	27	4
101	101	10
19	19	6
104	104	2
18	18	5
84	84	6
36	36	8
33	33	10
4	4	5
92	108	2
0	0	3
93	93	5
31	31	5
75	75	5
7	7	9
38	38	8
10	10	3
118	118	10
36	37	2
119	119	6
113	113	4
127	127	1
25	25	5
137	137	1
15	114	2
89	119	3
86	86	7
102	103	9
106	118	2
110	124	7
99	116	3
87	130	1
12	14	5
107	107	5
8	8	6
99	99	5
110	111	5
97	97	6
102	102	9
140	140	4
89	91	2
4	20	7
111	112	3
83	84	3
24	26	3
83	83	1
14	14	3
139	139	3
30	113	1
97	98	1
135	135	11
5	6	2
0	82	1
72	72	2
15	15	5
118	120	4
28	28	7
91	118	3
82	83	3
24	25	1
6	6	4
93	103	2
95	100	1
2	2	7
103	108	2
97	117	2
132	132	4
22	22	4
35	36	3
120	121	2
122	122	3
94	95	2
100	101	2
0	38	3
117	117	6
94	112	2
88	88	3
13	14	5
96	97	1
23	24	2
99	100	1
120	120	1
84	85	3
77	78	1
113	115	2
105	106	4
9	18	1
87	124	1
105	107	1
75	76	1
27	27	6
139	140	1
105	105	2
117	118	4
89	90	1
15	28	2
10	14	2
104	106	1
93	94	3
11	11	3
5	23	1
32	33	3
10	27	1
119	123	1
11	12	1
3	3	2
100	100	4
90	121	3
87	88	4
74	74	3
134	135	1
21	22	1
75	77	1
82	82	1
97	99	1
126	127	1
92	93	4
2	15	1
84	113	1
119	121	2
95	96	2
98	99	1
7	8	1
12	114	2
26	72	1
25	26	1
80	80	1
10	28	1
87	91	1
1	32	1
83	128	1
20	76	2
138	138	2
7	9	1
85	86	1
93	111	1
85	126	1
29	30	1
27	28	1
123	124	1
