23	23	6
113	113	5
110	110	4
97	97	1
41	41	9
90	91	2
60	60	9
31	32	4
2	3	4
111	111	8
48	48	3
1	2	3
63	63	9
128	128	7
100	100	2
27	27	3
33	34	8
83	84	4
41	43	4
34	38	1
54	54	5
9	9	5
46	46	5
56	56	8
42	42	7
10	10	7
29	31	2
112	113	4
11	12	2
124	126	2
11	15	2
25	25	7
106	126	3
44	45	5
50	53	3
6	26	3
101	102	1
93	94	3
50	51	2
122	123	4
126	126	8
90	90	4
11	11	2
17	17	3
34	34	4
120	121	3
18	18	11
78	78	4
30	30	2
69	69	5
13	13	2
122	122	2
19	50	1
108	114	5
41	42	8
1	1	6
53	53	3
111	112	3
21	21	12
129	129	6
52	96	1
78	102	2
82	83	1
11	27	1
54	55	3
124	124	1
87	88	5
66	67	3
125	127	3
106	115	1
50	95	1
130	131	1
85	85	4
130	130	2
56	62	2
114	117	4
38	40	1
105	107	2
97	98	3
115	132	2
47	99	1
49	98	1
56	57	1
54	73	4
82	82	8
4	27	3
110	111	3
67	68	4
105	125	3
120	123	3
8	13	4
93	93	5
103	103	6
44	44	3
5	5	5
108	108	2
108	128	2
115	115	2
51	96	1
22	22	5
75	75	4
56	85	2
33	90	2
101	101	2
66	66	4
40	66	2
64	65	1
99	119	3
42	44	1
105	106	8
15	15	6
54	72	3
24	25	3
51	51	4
62	62	8
14	28	1
22	66	2
89	90	2
79	79	1
127	129	1
72	101	1
98	98	5
67	69	1
22	23	3
114	129	3
9	10	3
29	69	1
59	59	4
124	133	2
7	19	2
112	112	3
76	76	6
72	72	8
7	7	2
107	107	2
131	131	3
40	41	1
61	61	9
28	28	3
0	0	7
95	95	3
30	93	2
133	133	4
16	16	4
105	105	2
11	14	5
41	64	1
84	84	2
78	104	2
65	65	2
99	100	2
68	68	9
52	83	2
130	133	4
21	23	2
24	24	2
117	131	2
52	95	2
0	13	1
53	54	2
79	101	1
17	19	2
7	20	1
43	64	1
106	106	3
47	107	1
3	6	1
45	46	1
86	86	1
92	92	6
48	129	1
12	12	5
59	82	4
40	40	4
8	9	1
110	112	1
121	121	4
31	31	2
32	92	1
73	74	1
89	89	2
73	73	3
14	14	1
127	127	4
76	127	3
119	119	5
64	121	3
32	94	1
31	122	1
3	4	1
102	102	2
7	16	1
107	124	1
33	69	1
32	32	4
61	62	1
50	50	3
107	114	3
79	100	1
10	27	1
70	72	2
18	19	2
94	94	2
88	88	2
72	73	2
78	101	1
91	94	4
27	31	3
65	66	3
19	19	1
9	27	1
99	99	2
117	118	1
6	25	2
55	55	4
29	29	1
123	123	3
104	104	4
91	92	4
21	22	1
88	89	4
91	91	3
3	3	3
56	87	1
77	104	1
113	128	2
117	117	2
12	13	1
57	86	1
125	126	1
116	116	4
71	71	5
68	69	1
26	26	4
115	116	2
13	14	2
2	27	4
51	95	2
49	49	2
120	120	2
19	20	3
118	130	1
129	131	2
131	132	1
47	76	2
43	43	1
39	39	1
81	81	2
79	104	1
80	81	1
22	24	2
30	65	1
46	106	1
27	30	1
127	128	1
86	88	2
58	59	3
85	86	1
4	6	1
71	85	1
118	118	4
86	87	1
28	31	1
20	21	2
76	104	1
70	71	2
118	119	1
54	133	1
20	20	1
29	30	1
17	18	2
101	104	2
74	75	3
45	45	2
14	15	2
105	128	1
14	27	1
60	102	1
74	74	2
50	121	1
62	64	1
61	85	2
4	26	2
12	19	1
96	119	1
67	67	1
110	126	1
113	116	1
119	122	1
4	5	1
47	131	1
60	73	1
104	105	1
28	33	1
88	90	2
98	99	2
12	14	1
8	8	1
108	109	1
30	31	3
128	130	2
58	58	2
80	96	1
59	61	1
48	130	1
43	44	1
75	77	1
48	104	1
33	33	2
107	109	2
71	72	1
43	45	1
109	109	1
63	122	1
57	57	1
1	3	1
3	12	1
77	80	1
57	85	1
109	125	1
114	114	1
