137	137	7
208	208	9
182	183	3
104	104	2
224	227	1
41	41	7
24	24	11
205	206	6
12	13	3
65	65	6
226	229	4
47	47	10
39	71	1
218	218	5
79	79	2
115	122	3
39	52	1
88	88	6
45	45	13
123	123	2
17	17	6
9	12	3
102	102	13
242	242	16
67	67	13
193	194	2
50	50	7
58	58	6
157	228	3
236	236	5
67	68	2
102	146	2
6	74	1
170	170	11
172	172	3
179	179	7
218	234	2
156	162	1
119	120	6
112	112	6
161	190	2
222	223	2
138	139	3
69	69	15
43	43	7
124	124	7
26	26	16
222	222	14
226	226	10
192	192	14
104	123	1
148	149	10
165	177	3
53	85	4
10	25	1
52	53	3
177	177	12
203	205	2
216	236	8
2	2	5
153	153	4
158	158	16
60	60	11
203	219	5
28	41	5
145	173	2
99	99	12
27	61	4
163	240	2
85	85	11
127	142	2
59	59	4
112	113	1
127	127	8
95	95	5
126	126	7
61	61	9
13	29	2
114	114	8
49	50	6
69	171	1
163	163	5
214	215	4
107	107	12
205	205	5
180	180	11
139	142	5
100	101	1
150	151	3
141	155	3
4	4	2
130	130	11
207	208	1
102	103	1
15	222	5
81	82	6
44	44	6
11	19	1
98	98	15
18	18	7
3	17	4
100	176	1
172	175	2
124	159	3
122	164	2
146	146	7
179	239	6
181	181	6
107	231	3
56	57	9
189	189	3
10	10	3
241	241	6
110	110	3
200	200	1
82	83	4
42	73	2
99	131	1
71	71	5
206	206	8
215	215	2
171	171	4
36	36	7
42	43	4
100	100	5
208	213	1
116	116	6
31	31	7
199	199	4
86	86	7
138	138	7
229	229	8
145	145	2
120	121	4
202	202	5
139	139	18
220	220	3
38	38	5
76	76	12
202	237	2
160	160	8
227	227	4
121	122	3
129	130	7
19	19	1
193	193	2
184	184	13
163	166	1
121	121	3
230	230	7
187	187	1
165	165	3
128	229	3
153	215	2
214	214	6
25	25	5
13	13	12
44	86	2
152	233	4
49	49	11
20	20	7
32	161	2
161	161	3
30	30	10
128	128	12
216	227	3
78	78	4
63	63	3
176	176	6
7	7	7
80	80	2
178	239	10
28	28	6
16	17	4
210	211	4
26	81	2
48	48	4
143	144	1
14	15	4
6	7	2
5	6	3
221	222	1
21	21	2
207	207	7
132	211	2
160	162	1
223	224	4
17	18	3
205	209	6
74	74	7
135	135	3
187	211	4
149	151	3
237	237	5
34	57	2
222	225	3
232	232	1
184	185	3
198	198	8
57	112	2
19	34	4
108	124	1
105	105	4
190	191	4
217	217	5
21	22	1
228	229	3
235	237	3
129	129	2
3	4	3
97	97	6
234	240	1
120	120	6
184	214	3
133	133	1
19	73	4
32	32	7
167	168	5
239	239	3
32	74	2
61	227	1
29	91	4
6	6	9
141	142	9
135	136	3
211	211	8
57	57	2
79	80	2
218	242	7
40	43	1
139	145	4
178	178	9
5	5	6
196	199	2
0	0	5
113	113	3
205	210	4
219	219	5
108	108	2
208	209	3
111	111	5
78	79	1
29	29	8
28	29	2
194	194	6
203	203	4
239	240	5
225	226	4
224	224	2
214	216	3
4	31	3
70	172	2
37	222	1
195	195	5
40	81	3
197	197	1
147	147	9
131	138	6
68	107	3
142	145	1
19	52	1
32	58	3
109	149	5
173	173	7
145	148	4
152	152	5
40	79	7
1	1	2
174	174	11
20	30	5
190	201	1
8	216	2
202	234	2
49	111	5
119	127	3
128	129	1
89	89	3
19	20	2
81	81	5
85	217	3
59	161	2
102	121	2
173	193	2
196	196	4
186	186	2
213	213	2
217	220	6
225	230	2
20	74	1
75	76	1
125	131	4
4	84	3
101	103	2
140	140	5
65	149	3
240	240	1
109	109	2
72	151	3
36	110	2
75	80	4
183	183	2
35	56	5
123	134	1
159	159	5
63	75	1
159	160	2
40	53	4
234	234	9
228	240	5
136	136	3
139	140	1
64	64	4
22	23	4
138	140	1
113	155	3
23	23	4
57	65	1
124	126	1
5	50	4
210	210	1
164	164	1
231	231	5
126	143	4
188	211	1
137	138	3
150	150	1
148	190	2
62	62	2
30	118	3
193	199	2
119	156	1
211	212	3
217	218	5
156	231	4
62	139	1
103	105	4
223	223	3
18	19	3
185	185	2
58	67	2
133	135	2
189	207	1
124	125	3
167	171	2
40	40	13
151	203	4
158	161	1
168	202	2
190	204	2
209	209	3
129	207	2
15	64	2
66	67	1
130	139	1
130	193	3
125	126	3
182	182	9
11	70	1
115	116	4
200	201	2
155	155	2
119	119	7
46	46	2
83	85	4
175	175	9
104	108	2
102	115	2
198	225	2
201	201	5
38	153	1
1	7	2
16	16	5
15	17	1
215	216	2
130	189	1
183	218	4
180	181	2
56	56	3
105	163	3
26	57	3
150	190	1
3	5	2
155	186	2
134	134	2
8	8	4
192	193	1
218	231	1
148	148	4
95	171	1
65	109	2
15	221	1
195	200	2
118	119	2
0	1	2
226	227	2
114	151	3
134	153	1
145	146	2
1	5	2
34	34	1
150	222	3
221	221	5
70	70	3
54	54	10
57	71	3
192	196	2
140	141	2
205	213	1
150	160	2
7	8	3
35	35	2
156	156	7
195	196	3
26	55	2
102	171	1
154	177	3
204	204	3
64	149	2
165	202	2
199	200	3
232	234	3
120	123	1
21	53	1
46	86	3
25	83	3
165	191	1
109	115	4
32	207	1
1	6	4
34	186	2
185	188	1
194	195	2
228	228	2
22	41	3
125	127	3
14	18	3
230	231	3
4	9	3
14	14	3
206	219	1
185	186	2
185	196	4
169	169	3
188	200	1
83	84	1
6	17	1
7	80	1
166	178	2
68	68	3
212	212	2
225	225	7
11	69	7
168	168	3
172	177	2
34	185	5
165	236	2
103	103	1
117	117	1
141	141	2
27	27	2
0	9	2
14	17	3
143	147	1
68	85	1
3	3	5
106	106	3
154	210	2
173	179	1
31	79	4
186	198	1
53	81	1
168	242	1
77	77	9
47	54	1
218	219	2
55	55	2
14	29	1
71	102	3
139	143	1
101	121	2
150	231	2
41	44	3
102	155	2
191	192	1
72	72	3
3	38	2
169	188	1
190	190	4
53	54	2
105	108	2
52	52	4
39	39	5
19	27	2
166	166	1
50	51	1
11	68	1
125	125	3
42	42	2
151	151	5
233	233	1
36	210	4
115	115	4
37	37	1
122	123	1
157	157	2
199	224	2
48	78	4
84	84	1
27	74	1
229	237	2
134	206	2
169	182	1
231	237	2
11	16	1
16	28	1
59	60	2
58	66	1
156	227	1
15	15	2
44	45	1
156	228	1
0	2	2
33	33	2
167	167	5
142	142	2
201	202	2
1	2	1
186	187	1
0	153	1
96	102	1
35	69	1
149	149	1
11	11	2
22	22	2
104	121	1
139	141	2
188	188	1
201	223	1
167	240	3
49	234	2
102	152	1
174	189	1
154	154	2
58	59	1
154	215	3
228	237	1
48	49	1
57	159	1
226	228	2
143	143	1
162	162	1
12	12	1
53	57	2
51	51	2
9	10	1
236	238	1
170	216	1
65	232	1
133	136	1
151	232	1
122	122	1
62	63	1
134	136	1
218	238	1
209	210	1
77	78	1
32	71	1
27	73	2
108	119	1
101	101	1
151	219	1
60	61	1
27	57	1
151	188	1
9	9	2
3	49	1
182	198	1
102	170	1
103	150	1
154	155	1
13	33	1
27	28	1
138	144	1
71	72	1
47	82	1
178	237	1
39	86	1
136	138	1
106	161	1
159	213	1
39	81	1
51	81	1
209	215	1
178	240	1
70	171	1
151	221	1
223	225	1
170	209	1
