24	25	9
23	23	26
79	79	18
75	76	1
59	62	6
47	49	2
66	66	12
30	81	4
56	69	7
49	49	5
3	4	7
0	0	10
62	62	21
82	82	25
5	83	5
72	72	15
54	54	24
63	63	22
77	77	25
64	64	8
29	29	8
83	83	13
81	82	8
6	7	10
68	68	31
57	87	3
85	85	17
55	55	26
52	52	30
71	71	11
70	71	3
17	26	14
20	20	11
72	75	1
56	68	4
4	4	25
73	74	7
53	54	12
26	26	17
6	6	13
11	11	14
79	81	3
28	29	6
75	75	25
65	65	25
17	17	18
3	3	28
10	10	18
73	73	25
16	16	9
56	56	30
51	86	3
34	34	14
53	53	12
19	19	19
47	67	1
78	79	10
61	61	12
90	90	4
7	8	2
81	81	12
25	25	15
79	80	11
82	83	8
22	28	3
11	13	2
31	31	26
61	62	6
86	86	19
1	1	9
77	78	13
14	14	13
70	70	15
11	12	4
89	89	21
67	67	16
27	27	12
56	57	8
60	61	1
86	87	5
64	65	11
22	22	11
50	52	1
30	30	16
78	80	10
84	84	19
61	64	3
8	27	1
74	74	14
10	77	3
3	68	5
31	33	2
17	19	1
47	47	14
9	32	6
50	51	7
25	27	3
12	12	19
75	83	3
2	67	2
50	50	6
72	74	3
57	58	7
58	58	17
59	60	4
15	15	4
54	55	5
69	70	6
60	60	13
62	63	9
46	46	2
24	24	23
2	2	17
57	57	14
87	87	16
48	48	18
63	64	12
6	12	5
51	67	2
69	69	11
12	13	10
0	1	2
9	10	8
29	30	3
59	59	9
26	27	3
67	68	9
13	26	2
1	2	3
9	26	5
10	26	2
19	70	2
80	80	6
27	28	9
78	78	6
84	85	6
15	21	1
31	78	8
83	85	3
63	65	2
46	66	5
7	34	1
55	56	2
88	88	15
7	9	5
7	13	7
21	21	5
8	8	7
60	80	1
9	9	13
51	51	11
9	31	1
20	22	2
52	53	2
31	63	6
34	65	1
46	47	3
47	54	1
9	77	2
68	70	1
62	89	1
50	86	1
25	26	3
21	69	3
4	11	1
52	89	2
5	5	2
11	22	1
65	81	2
51	63	1
15	16	4
4	5	7
28	28	3
76	76	16
12	20	3
10	31	5
52	57	2
22	75	2
12	25	2
7	31	2
5	6	5
70	74	4
30	32	3
13	25	3
13	19	1
28	66	2
52	88	5
8	9	1
5	84	1
13	13	4
11	77	1
19	20	5
3	67	1
5	7	4
33	65	2
15	25	3
21	22	3
48	52	3
65	66	2
46	48	3
14	15	3
88	89	1
77	79	3
0	2	3
5	82	3
48	66	1
20	21	4
72	73	11
61	63	3
20	24	1
49	51	2
60	62	3
89	90	3
5	13	1
10	11	2
47	68	2
59	61	4
54	89	1
11	14	2
48	53	1
7	7	1
71	73	2
53	55	1
52	87	3
33	64	2
49	50	1
22	23	2
16	26	2
80	81	3
10	13	1
80	83	2
17	18	3
33	78	2
9	76	1
8	31	1
58	59	1
62	86	2
4	84	1
85	86	2
10	76	1
7	12	1
33	33	1
31	32	1
5	34	1
7	27	1
13	49	1
61	87	3
12	27	2
52	56	3
67	89	1
47	58	1
47	62	1
20	69	1
19	24	1
47	53	2
3	5	2
64	85	1
68	69	1
13	48	1
12	19	1
87	88	1
