59	59	1
121	121	9
42	48	5
78	78	6
13	14	1
123	123	3
103	103	11
23	24	3
25	25	3
108	108	3
132	132	8
37	37	7
57	58	3
71	71	8
72	122	3
111	111	13
26	27	6
131	131	8
140	140	12
77	78	1
125	131	2
60	60	5
4	4	5
43	43	6
34	36	3
53	53	13
74	74	7
112	112	9
55	78	1
22	22	10
33	33	6
15	15	7
40	40	6
111	112	2
142	142	3
10	11	11
75	75	8
117	122	2
89	90	2
109	109	9
93	93	4
12	12	2
58	58	5
20	20	3
130	130	3
102	102	2
5	5	3
40	41	3
34	35	2
36	36	9
66	66	9
27	27	5
137	137	11
21	21	4
31	31	16
42	42	4
30	33	2
9	19	1
90	90	1
29	36	4
83	84	1
67	68	2
29	29	12
110	110	5
9	9	3
94	94	6
139	140	3
32	32	8
14	15	1
127	127	4
48	49	1
38	38	5
17	19	2
143	144	2
134	134	7
54	55	3
19	19	1
30	30	7
41	41	6
66	67	3
41	42	3
138	139	4
106	106	2
0	1	2
36	37	2
89	92	1
55	55	4
39	39	6
136	136	4
73	133	1
129	129	2
30	31	1
35	35	4
3	50	1
1	12	2
96	96	6
56	56	6
2	2	1
120	120	2
48	48	3
55	137	2
97	97	4
122	123	1
0	0	2
82	82	2
69	86	2
92	92	2
90	91	2
24	24	3
114	136	2
95	122	5
117	117	6
9	21	3
142	143	2
39	47	2
51	51	5
134	141	2
138	138	5
95	95	2
18	18	5
28	29	1
143	143	1
1	1	4
105	105	4
49	49	3
103	109	1
99	99	3
34	34	8
110	111	1
40	42	2
76	77	1
54	80	1
69	69	2
115	115	4
55	139	1
33	35	1
54	54	3
89	89	5
125	125	2
38	39	1
65	65	4
60	95	3
87	88	3
79	80	2
9	18	2
101	102	1
26	26	4
62	62	1
139	139	2
70	70	3
61	62	2
17	17	3
47	48	1
10	10	3
99	100	2
68	69	1
23	26	1
79	79	2
114	114	4
2	3	5
56	117	2
118	118	5
88	88	5
67	67	4
81	83	1
47	47	1
101	101	8
135	140	3
18	19	2
98	100	1
135	136	1
129	130	2
56	115	1
96	97	1
23	23	2
98	99	4
65	67	2
130	131	2
84	84	1
16	16	3
107	107	4
31	33	1
52	52	3
62	64	1
123	124	2
73	75	2
6	16	1
58	59	3
76	76	3
57	57	1
86	86	1
65	68	1
39	43	2
68	68	4
115	117	1
63	63	2
6	6	3
91	91	1
25	26	1
11	11	2
91	94	1
73	73	3
87	87	1
137	138	3
20	21	1
37	38	1
85	85	1
91	92	2
59	61	3
8	9	1
14	14	1
109	110	2
108	109	3
19	20	1
70	71	1
113	113	1
65	106	1
3	12	1
17	18	2
24	26	2
144	144	2
49	50	2
25	50	1
100	123	1
55	114	1
98	98	1
21	22	1
126	126	1
81	81	1
33	36	1
69	70	1
127	128	1
73	140	1
