163	164	5
213	219	1
69	69	6
187	188	2
230	230	3
106	107	5
164	164	6
66	67	4
62	62	8
151	175	1
209	209	4
51	52	5
159	172	1
162	162	11
183	183	4
31	31	1
19	19	5
53	54	3
79	79	10
234	235	2
245	245	4
88	88	9
185	185	2
216	218	5
238	238	11
218	219	4
182	182	5
242	244	1
167	167	6
233	239	1
111	111	1
168	169	3
9	9	4
191	191	2
34	34	2
67	67	4
187	189	3
237	237	5
45	119	1
59	59	6
80	80	4
39	39	2
94	94	3
93	94	2
227	227	4
73	75	4
204	205	3
25	25	1
194	194	2
2	2	4
214	215	4
15	15	2
36	37	1
72	74	3
156	156	1
74	74	4
242	242	2
210	210	3
89	89	4
37	37	2
181	181	2
45	45	2
199	200	3
210	211	2
154	167	2
114	114	4
56	63	5
98	98	2
44	44	5
89	109	7
178	179	5
225	225	5
56	56	3
220	220	8
188	209	3
236	236	3
72	72	7
77	77	13
190	190	1
48	67	3
240	240	7
169	169	4
173	174	4
243	244	1
78	78	2
165	165	3
36	36	3
102	102	5
234	234	4
182	184	2
192	192	5
40	41	3
90	91	3
34	35	2
248	248	1
74	77	2
76	76	3
165	166	2
118	119	3
14	14	1
102	103	2
198	200	2
4	4	4
24	176	3
76	119	4
21	22	1
33	33	4
115	115	4
181	182	2
153	153	2
53	53	1
35	35	4
162	163	1
160	160	5
170	172	2
23	23	4
81	110	2
241	241	3
118	118	1
100	100	6
108	115	2
200	201	2
110	110	3
48	48	1
232	232	4
213	213	3
146	146	2
58	58	4
222	222	5
68	68	1
244	244	7
170	170	2
75	76	1
90	109	1
61	61	5
155	170	1
18	18	2
20	20	4
2	3	3
230	232	2
222	223	4
80	81	2
10	10	3
85	111	3
109	109	1
166	166	1
57	57	2
185	186	4
176	176	4
4	5	2
43	43	3
36	38	1
39	40	3
163	163	1
69	81	2
240	245	2
31	51	1
24	174	4
8	8	3
80	84	1
46	52	2
112	112	1
26	27	2
224	224	1
63	63	1
223	223	2
78	80	1
221	233	1
239	239	2
47	47	1
69	70	3
243	243	3
6	7	2
233	233	3
172	178	1
56	145	1
219	219	1
91	91	4
184	185	3
11	11	1
38	38	3
217	217	2
177	177	2
120	145	1
28	28	5
54	62	1
195	195	3
161	179	1
111	116	1
216	216	2
204	204	1
161	162	2
162	177	3
186	219	2
152	159	2
89	91	3
236	238	1
87	87	3
17	19	3
244	245	1
93	95	1
71	71	2
220	232	1
177	242	1
48	66	2
45	120	3
26	26	2
151	151	2
47	49	3
107	107	3
44	46	2
18	19	2
3	201	2
228	231	1
116	116	6
56	148	1
202	202	4
27	27	1
55	55	2
221	221	2
13	13	1
100	101	2
10	15	1
16	16	1
33	36	1
109	110	2
51	51	2
229	229	2
113	113	2
152	152	3
40	40	1
158	171	1
101	102	4
42	43	1
58	59	1
218	218	1
157	157	2
233	246	1
235	235	1
247	247	1
173	173	1
101	101	2
65	65	2
178	243	1
208	209	2
145	145	1
106	115	2
24	24	2
9	212	1
20	25	1
154	165	1
70	71	1
114	115	1
89	115	1
6	6	1
174	176	1
107	108	1
84	84	1
8	209	1
216	217	3
95	95	1
93	93	1
50	50	1
207	207	1
206	207	1
57	58	1
206	206	1
161	161	3
214	243	2
73	73	1
152	161	2
222	224	1
111	113	1
21	21	1
24	173	1
44	45	1
196	196	1
119	119	1
60	60	1
187	187	1
247	248	1
184	224	1
83	83	1
52	120	1
151	166	1
189	189	1
