38	38	12
0	1	2
54	102	3
15	15	12
67	73	3
89	111	2
1	5	1
100	102	4
31	31	7
138	138	9
113	131	2
9	9	10
52	52	2
115	115	7
56	56	4
94	94	10
3	3	2
0	23	2
119	126	4
20	21	3
47	47	7
144	144	6
10	29	3
74	74	19
76	118	3
32	33	13
73	73	13
64	65	3
50	130	2
61	84	2
142	142	18
34	36	4
134	134	9
48	64	5
26	26	2
103	103	3
87	90	4
14	14	16
85	85	14
3	16	2
141	142	9
99	99	6
102	103	7
89	89	4
33	34	1
60	60	7
97	97	3
67	67	10
33	33	13
12	12	6
71	72	4
98	98	6
112	125	2
28	29	2
101	145	2
66	97	3
6	20	3
6	6	4
39	39	8
62	62	4
48	48	10
89	90	6
127	127	5
105	107	2
8	8	5
53	53	6
11	48	8
77	113	1
80	106	4
4	4	6
14	15	13
40	40	12
23	23	3
25	25	3
18	19	3
103	105	3
32	41	8
65	87	2
106	108	3
63	64	4
19	19	7
70	70	2
72	73	3
140	140	6
120	120	11
79	79	4
122	122	8
90	115	1
60	105	1
51	73	2
126	132	5
82	82	5
116	116	8
110	123	2
67	87	3
139	139	5
105	105	1
120	122	2
5	15	4
118	120	8
8	9	9
18	18	6
43	43	9
35	36	6
66	66	8
18	20	4
144	145	5
76	76	6
22	22	14
90	92	6
25	37	2
62	63	1
0	41	3
104	104	6
30	30	7
90	90	7
87	87	5
124	124	5
38	53	2
2	20	3
66	67	2
75	75	7
61	89	7
53	65	4
109	141	2
92	92	6
5	5	3
140	143	3
85	86	5
130	133	4
137	137	3
133	134	4
31	32	2
37	39	8
88	91	3
52	127	4
112	112	11
51	51	7
24	27	1
84	84	10
80	99	1
12	61	2
69	69	7
63	98	2
134	139	2
99	100	2
115	126	1
61	83	1
92	118	1
41	41	2
42	42	6
31	34	2
72	91	1
113	124	1
128	128	5
134	135	3
32	32	4
114	114	8
3	15	3
49	51	2
16	16	14
104	116	2
27	30	2
34	34	12
64	64	7
145	145	14
139	141	3
121	121	4
58	58	16
35	87	3
101	101	9
122	123	3
104	109	4
23	25	2
21	21	3
62	104	1
107	127	2
74	98	3
22	23	3
11	92	3
57	58	3
13	84	2
38	39	2
119	119	11
17	17	3
5	12	1
72	72	13
5	20	2
59	110	1
81	81	2
82	128	2
55	86	1
85	91	2
42	43	5
58	70	1
137	139	1
127	138	4
93	93	5
111	112	1
49	82	2
36	36	3
91	91	6
91	95	3
132	144	3
126	126	4
52	53	4
28	82	1
26	31	1
29	29	2
12	13	3
41	55	1
109	109	3
12	35	1
51	106	2
114	115	6
27	28	1
113	113	2
2	2	6
129	130	2
77	79	2
79	114	1
14	26	2
13	43	2
100	101	8
15	39	1
140	141	6
74	85	2
18	37	3
125	125	4
40	54	3
49	75	1
96	96	3
4	36	3
58	79	2
141	141	6
59	60	1
2	23	3
35	35	6
104	114	1
123	125	1
27	50	3
6	21	1
89	112	3
38	125	2
54	54	5
57	57	4
78	112	4
58	89	2
106	106	7
123	123	4
112	116	1
1	23	2
43	79	2
125	130	3
64	78	1
117	117	4
63	93	2
59	62	2
16	118	2
27	27	7
134	143	4
143	144	4
50	52	2
59	59	3
80	81	9
117	139	2
107	107	3
132	132	6
3	4	1
143	143	1
54	76	1
97	98	2
37	47	2
83	87	3
64	93	1
4	35	1
108	108	1
4	21	4
23	56	3
63	63	1
61	88	1
67	68	3
107	108	1
135	135	7
83	86	1
111	111	4
26	29	2
13	34	1
20	20	4
1	1	1
3	23	2
96	109	2
3	20	1
13	41	1
121	122	3
95	101	2
11	27	3
11	40	3
113	114	4
131	133	1
5	31	3
58	132	1
80	116	1
130	130	4
94	128	1
41	42	1
3	36	2
6	32	2
40	41	2
82	84	2
71	71	2
69	75	4
78	78	4
135	138	4
138	139	2
113	118	3
9	101	5
73	74	3
90	91	1
126	139	1
118	118	3
58	59	1
116	136	1
49	72	1
55	58	1
56	97	3
37	37	2
106	113	2
50	50	2
58	142	2
95	104	4
14	36	2
95	95	1
146	146	2
22	29	2
16	17	1
2	37	1
104	130	1
24	24	1
80	80	5
102	102	1
28	28	2
68	70	2
57	88	2
101	131	2
75	124	2
21	34	1
122	124	3
28	30	1
0	17	3
11	11	5
136	136	2
127	140	2
79	125	4
109	111	1
38	40	4
84	115	2
116	126	1
76	117	2
52	55	1
88	88	4
68	74	2
54	55	1
0	0	2
87	100	2
131	131	3
26	37	2
39	40	2
16	105	2
16	90	1
32	34	1
55	55	1
133	133	3
116	141	1
131	134	1
53	77	1
145	146	2
10	10	1
15	26	2
110	116	1
124	125	1
20	34	1
87	115	2
36	37	2
79	107	2
134	137	1
38	141	1
72	115	1
56	88	1
13	13	2
117	118	1
143	145	2
91	92	1
5	6	1
1	43	2
78	123	2
120	144	1
98	99	1
8	143	1
68	71	1
83	94	1
136	138	1
88	89	1
142	143	1
81	117	1
10	58	2
37	41	1
68	69	2
110	110	1
2	18	2
77	95	1
137	140	1
17	18	1
40	82	1
72	92	1
84	87	1
6	12	1
117	136	1
141	143	1
94	108	1
84	105	1
8	11	1
68	68	2
12	41	1
