21	21	9
88	90	3
92	95	1
31	40	3
98	99	6
99	99	12
32	32	5
52	52	13
48	48	9
100	100	18
42	45	3
45	113	2
46	46	12
33	33	9
80	80	4
88	97	1
67	80	4
103	103	7
27	27	15
96	97	3
61	62	2
23	47	6
89	110	2
107	107	18
82	82	4
43	43	8
34	35	7
103	107	3
110	110	10
52	91	5
45	45	11
98	98	14
27	46	5
77	77	15
75	75	3
34	34	13
48	53	1
72	91	2
23	23	4
84	84	7
25	25	11
53	54	11
65	68	1
44	44	6
73	87	2
43	46	5
67	67	6
106	107	3
72	72	8
60	60	6
62	63	4
78	78	2
86	99	2
47	48	2
105	108	4
37	37	11
68	68	9
86	91	3
22	22	10
44	45	4
50	50	16
31	60	8
67	79	1
28	51	10
108	108	22
91	91	8
111	111	6
29	29	3
48	49	11
24	25	6
85	99	1
24	24	9
96	96	11
90	91	6
20	20	10
51	98	3
28	28	3
53	53	22
55	55	6
49	50	5
62	100	1
90	109	1
23	43	1
32	38	6
31	98	4
27	41	4
103	108	5
70	70	6
89	89	11
46	47	4
56	57	3
73	73	6
81	82	4
42	43	5
40	41	3
52	96	3
22	48	1
39	39	12
97	97	14
32	33	6
60	61	7
51	52	5
85	111	3
37	44	3
81	85	2
103	104	1
35	101	4
68	104	2
105	107	4
57	59	1
80	81	4
37	82	3
35	35	12
74	74	16
93	93	8
38	39	3
45	98	3
61	61	2
58	59	4
81	81	8
48	56	1
79	79	6
71	87	1
68	73	1
30	51	2
62	62	14
94	94	5
89	91	5
31	31	10
97	98	5
26	46	4
64	64	4
55	94	2
72	80	3
92	93	2
104	104	4
33	34	5
82	85	3
109	109	10
71	71	9
30	30	14
73	75	2
95	95	9
101	102	3
72	73	4
108	111	3
59	59	2
26	27	8
94	95	5
33	39	1
40	40	7
20	49	1
63	112	1
36	36	9
39	41	2
102	102	3
100	111	1
41	41	8
58	58	8
32	39	3
75	97	2
74	75	4
65	65	1
58	92	6
32	59	1
69	69	3
54	54	12
39	84	2
83	84	5
74	81	4
38	38	5
49	49	12
93	94	1
63	63	10
74	76	1
67	68	13
31	58	3
38	81	2
103	105	2
85	101	5
36	41	1
54	92	2
96	114	5
82	83	3
73	96	3
98	112	1
64	98	3
63	100	2
36	98	4
95	96	2
88	89	4
50	51	2
42	42	5
84	85	1
60	62	4
109	112	2
59	94	3
110	111	2
20	47	1
54	55	4
113	113	7
63	67	1
71	73	4
88	100	3
49	53	5
23	24	4
32	60	3
87	90	6
66	66	6
101	101	11
27	38	2
109	110	3
112	112	7
66	67	4
55	56	2
87	87	5
64	66	4
90	90	3
51	51	6
114	114	5
63	65	2
30	31	2
85	91	1
56	58	1
62	103	1
78	82	1
20	30	1
42	50	1
85	94	4
76	90	2
61	90	1
71	110	1
47	47	4
66	105	1
92	92	6
28	50	2
114	115	1
25	26	1
59	91	2
76	76	2
29	88	1
70	71	3
39	58	3
110	112	2
96	99	1
91	93	2
72	96	3
52	53	2
28	29	1
86	86	1
37	38	2
60	80	3
25	67	6
88	101	2
63	109	1
102	108	1
45	46	4
58	85	2
85	92	1
77	78	1
43	47	2
21	24	2
34	39	3
68	69	2
79	82	1
27	28	2
31	39	1
88	88	2
28	49	1
72	76	1
43	44	1
75	76	1
29	30	2
65	66	1
79	81	1
106	106	1
33	73	1
57	57	1
85	97	1
42	60	1
51	97	1
36	37	2
107	108	1
19	19	1
73	88	1
83	83	1
85	95	1
63	70	1
59	60	1
32	94	1
89	100	1
33	41	1
44	46	1
71	72	1
58	60	1
