25	25	2
133	133	11
63	67	3
108	110	4
56	56	5
76	119	1
139	141	2
109	109	3
147	147	11
108	109	2
75	76	6
27	27	2
113	115	2
137	137	6
64	104	4
57	82	5
32	35	3
21	21	9
113	126	2
24	24	7
97	97	5
93	93	2
31	31	7
97	135	4
55	55	11
98	98	1
79	79	10
70	97	1
47	123	3
6	15	1
30	30	4
73	108	4
77	144	8
47	49	4
38	38	5
85	87	4
85	92	2
84	85	2
28	33	5
103	103	11
151	151	6
146	146	6
5	8	1
25	38	4
6	6	1
111	111	1
106	107	1
19	20	1
105	105	9
4	32	5
106	108	14
78	145	3
80	83	3
52	54	4
52	58	1
125	152	2
114	114	4
47	47	11
28	28	5
20	20	3
107	107	4
71	71	7
51	51	3
45	45	3
103	104	3
116	116	2
68	68	5
62	63	1
22	80	3
42	43	1
12	25	2
124	125	6
124	124	5
113	114	8
86	87	3
96	131	4
102	102	6
48	51	3
135	135	2
88	139	6
135	136	6
63	103	1
99	99	6
10	13	2
39	48	3
121	121	1
123	123	4
134	134	7
4	4	2
148	150	1
81	107	3
16	16	2
72	113	2
47	106	4
25	53	3
53	53	4
24	29	1
131	131	10
20	27	4
102	141	4
69	69	2
118	118	7
76	92	5
17	30	3
138	138	4
35	35	5
83	87	2
31	46	1
110	122	1
63	64	1
66	69	5
6	32	2
115	115	3
55	56	12
64	93	1
27	29	2
102	132	3
63	127	4
15	39	4
15	15	8
100	101	2
97	136	4
152	153	1
98	135	3
144	151	4
140	141	1
36	36	5
2	2	4
106	106	2
73	112	5
81	81	4
83	106	2
145	145	1
94	94	3
54	54	3
126	154	1
115	125	2
116	119	1
11	41	2
49	49	10
8	8	1
6	40	2
5	5	2
115	122	3
34	34	2
73	73	1
50	58	3
20	28	2
154	154	2
111	121	1
128	129	2
28	37	4
139	140	1
24	25	2
19	19	4
48	86	3
58	87	2
117	117	6
114	140	1
113	113	6
5	35	4
69	71	2
84	84	12
68	97	3
89	131	1
132	132	3
96	96	2
3	8	4
153	153	5
95	96	1
114	121	4
61	61	1
126	127	3
100	138	1
145	151	5
139	139	4
108	108	2
47	143	1
18	18	5
73	97	1
136	138	2
77	77	1
144	145	1
62	67	2
37	38	2
26	80	1
12	12	4
129	130	4
94	128	5
9	9	2
11	35	1
122	154	4
143	145	2
79	144	3
85	85	4
37	50	2
110	121	2
11	11	3
83	88	2
58	58	3
101	101	1
21	26	3
17	17	6
98	134	2
56	57	3
23	26	2
73	128	3
111	126	1
22	57	1
12	37	4
5	15	2
44	44	5
16	39	2
2	21	4
39	39	1
42	42	2
67	132	1
43	44	3
43	45	1
45	77	2
74	75	2
67	67	3
65	65	1
73	93	1
41	50	2
130	130	3
62	62	1
39	51	1
17	54	1
128	128	2
64	127	2
17	48	3
136	136	1
43	43	3
121	143	1
150	151	1
80	80	2
145	150	4
78	144	2
74	107	1
112	112	1
64	102	2
74	83	4
46	46	2
149	149	2
115	127	2
13	15	1
141	142	2
37	37	1
64	64	2
76	152	1
16	85	2
48	140	2
134	135	1
73	96	2
61	62	2
126	142	3
8	9	1
13	13	1
16	53	1
121	142	3
31	55	1
48	104	1
7	7	1
48	48	3
119	122	2
125	126	1
16	47	5
53	96	1
26	26	3
12	13	2
124	152	3
127	127	1
112	116	1
22	55	1
109	144	1
71	73	1
143	143	7
118	119	2
11	40	1
150	152	2
14	14	2
126	126	1
45	146	5
87	87	1
58	90	2
85	105	1
117	129	1
27	28	1
80	107	1
114	142	3
32	50	1
116	125	1
113	133	1
41	41	2
63	65	2
146	150	1
147	152	1
33	33	1
75	108	1
65	93	1
66	97	1
53	54	2
112	115	1
64	118	1
117	118	1
88	88	1
13	37	1
122	122	1
69	70	1
15	27	1
4	7	1
75	75	1
14	39	1
20	24	1
119	119	1
45	46	1
79	106	1
48	53	1
146	149	1
