12	12	7
43	43	5
114	114	3
119	119	3
13	15	1
137	137	7
24	24	7
115	116	4
36	40	2
24	50	4
83	84	6
104	104	2
8	8	4
21	22	3
28	28	7
39	39	7
75	75	4
136	136	7
11	11	4
46	47	4
65	65	6
148	149	2
121	122	2
2	3	3
4	5	2
134	134	5
33	33	6
105	124	2
97	97	6
5	5	8
19	20	2
149	149	5
82	82	2
64	78	2
72	73	1
113	114	2
116	116	8
111	113	2
135	135	6
7	7	1
48	48	9
150	151	3
110	110	5
76	76	6
66	66	13
119	120	1
123	123	4
86	94	4
71	71	4
6	7	1
147	147	9
38	38	2
100	100	9
45	45	1
19	19	10
23	23	3
27	32	1
42	43	3
57	57	8
26	26	4
54	54	9
131	131	3
93	93	2
122	122	3
3	3	5
112	112	1
58	58	3
102	128	3
24	46	3
127	127	5
120	121	3
85	86	4
30	33	1
31	31	8
109	109	13
99	99	4
16	16	3
76	77	3
68	70	2
131	136	4
116	117	1
97	98	3
83	83	2
17	17	12
86	86	9
96	96	3
140	140	4
116	130	1
118	118	6
5	6	5
85	85	3
70	70	2
129	130	1
94	94	6
129	129	8
75	77	3
142	143	1
53	53	4
39	40	3
125	125	3
120	120	9
30	30	3
32	32	3
8	9	2
73	73	6
146	151	2
112	113	1
31	33	4
14	15	2
29	29	10
124	124	5
18	19	3
50	50	6
47	47	1
79	82	2
41	42	1
69	70	2
48	83	2
117	118	2
15	16	4
102	103	3
74	78	1
133	133	4
47	49	1
14	14	4
94	95	1
108	118	1
44	44	8
45	51	2
142	146	2
108	108	5
147	148	6
42	42	12
78	78	2
20	21	2
131	137	1
105	105	4
132	132	5
49	49	2
128	128	1
109	118	1
106	106	4
87	129	1
101	106	3
17	19	5
141	151	2
85	103	3
20	20	1
78	79	5
121	121	3
41	41	1
123	124	2
138	138	1
18	18	4
124	125	3
22	23	2
95	95	4
36	36	10
85	105	3
104	105	2
132	133	2
154	154	7
88	130	3
139	139	6
27	27	3
49	50	1
130	130	3
113	113	1
13	13	3
37	37	3
81	81	8
133	134	1
91	91	1
102	102	4
75	76	1
103	103	2
72	72	3
140	141	2
68	68	10
63	64	3
84	84	3
122	123	2
55	55	3
122	124	1
12	13	1
117	117	2
144	145	2
21	21	1
153	153	1
22	22	2
141	144	1
77	79	1
110	111	2
20	22	1
40	41	2
87	140	1
109	149	1
151	151	4
31	36	1
40	40	2
67	68	1
111	111	1
26	27	2
10	13	2
80	80	3
146	148	1
74	75	1
25	25	4
93	98	1
74	74	2
92	98	1
96	129	1
30	31	1
116	118	1
132	135	1
107	107	1
47	53	1
103	125	1
150	150	1
63	63	2
114	148	1
90	133	1
137	139	2
115	115	1
87	87	2
7	25	1
101	101	2
142	142	1
109	110	2
117	119	1
54	56	1
120	122	1
144	144	1
128	129	1
46	46	1
120	127	1
130	132	2
141	141	1
117	120	2
27	29	2
143	143	1
116	148	1
19	22	1
10	10	1
140	142	1
15	15	2
24	48	1
6	25	1
37	38	1
132	134	1
64	64	1
102	124	1
