26	88	4
120	120	24
21	23	1
106	106	13
118	118	17
25	25	19
7	9	4
20	29	5
135	135	3
31	31	18
18	18	25
113	113	6
115	117	5
19	20	6
94	94	14
96	96	14
37	37	16
128	132	3
31	32	4
22	22	13
32	32	15
28	28	9
117	118	10
86	96	5
115	122	1
33	33	17
108	108	3
107	107	9
6	17	1
94	95	3
76	78	2
89	89	8
103	103	16
86	86	15
105	105	3
30	30	15
128	128	21
2	4	5
6	6	10
36	36	16
106	107	4
88	90	5
79	79	22
124	124	13
74	75	5
77	78	10
71	71	18
109	109	14
37	38	7
121	122	4
15	15	23
34	35	2
77	82	5
100	100	6
130	130	8
27	30	6
124	127	7
93	94	3
133	133	5
34	34	25
110	110	20
4	6	4
72	74	1
74	74	12
99	99	17
14	14	19
90	90	9
17	110	3
123	123	18
108	109	7
101	101	28
83	83	9
4	4	14
71	79	3
88	89	3
22	29	3
91	117	1
7	8	6
90	91	4
104	105	3
20	20	16
125	125	30
112	112	14
24	24	17
111	111	8
81	85	2
21	28	4
72	72	22
11	12	8
102	112	1
5	5	11
23	23	16
82	83	2
23	87	2
10	10	14
72	73	11
84	91	6
21	25	1
137	138	5
123	124	11
14	32	1
73	74	13
74	77	2
73	73	17
132	132	12
109	128	4
80	82	4
10	12	2
39	39	1
25	27	3
21	22	2
112	114	1
13	13	7
78	78	9
88	124	4
79	86	1
6	8	2
91	91	10
92	104	2
122	122	6
27	27	18
108	111	3
116	116	18
114	114	12
3	66	2
19	19	12
66	68	1
90	93	2
85	85	13
17	18	5
9	9	17
134	135	4
24	25	11
103	104	7
80	80	12
104	104	9
2	2	9
105	106	1
19	29	4
2	3	8
131	131	26
20	32	2
93	93	5
80	88	1
77	77	10
72	89	1
127	127	17
91	92	4
7	15	3
78	81	5
3	3	18
130	132	7
113	118	2
75	75	32
91	104	2
10	11	19
38	38	14
102	110	2
91	99	5
16	16	9
83	90	4
91	100	2
87	87	13
88	88	13
26	26	7
23	24	5
18	31	3
91	93	2
102	102	7
7	7	10
24	26	4
118	119	8
117	117	5
6	37	1
114	130	2
131	132	5
105	107	4
77	79	1
68	68	3
126	126	6
75	78	2
86	95	2
81	81	6
98	98	17
8	8	13
97	97	13
4	19	3
110	111	5
22	24	3
4	11	1
78	80	5
140	140	12
102	122	2
74	80	2
66	106	2
33	90	2
115	115	2
119	119	17
5	6	9
23	81	2
75	76	1
103	105	2
139	139	8
112	116	4
18	29	1
14	16	1
4	36	2
106	108	2
134	134	8
32	103	3
13	14	4
21	21	7
76	77	1
126	127	3
15	18	4
121	121	18
137	137	5
129	129	11
104	112	5
22	26	2
6	7	4
120	121	6
23	25	6
125	126	3
105	109	4
1	2	10
112	115	2
113	119	1
5	18	5
26	97	1
12	12	5
84	85	6
134	139	4
0	0	5
78	79	3
29	30	4
92	112	3
95	95	4
19	28	3
0	66	2
98	99	4
114	127	1
136	136	11
25	26	5
16	17	2
27	28	1
111	112	1
30	31	7
100	102	1
2	12	1
16	110	4
17	17	2
120	122	2
101	112	3
86	87	3
92	100	3
83	89	5
5	8	7
32	33	1
134	136	1
81	87	4
15	29	1
6	9	1
100	115	2
35	35	7
102	104	3
21	29	7
76	76	7
3	110	3
19	33	8
101	111	3
82	89	1
135	139	1
107	111	1
77	87	7
95	99	2
72	125	1
16	28	5
127	129	4
72	87	1
88	123	3
103	113	1
35	115	1
128	129	3
114	115	14
105	110	6
95	96	1
102	103	3
27	88	2
104	106	4
9	10	4
11	11	9
29	32	4
17	32	4
82	82	8
22	79	1
11	18	2
76	89	2
8	9	1
36	100	1
130	131	1
85	86	2
102	123	1
106	113	1
33	34	2
34	128	1
1	1	9
29	29	2
8	36	2
7	11	1
3	14	1
140	141	1
3	11	1
88	121	1
22	25	2
112	113	1
119	122	3
120	123	1
26	27	3
4	7	2
39	97	1
72	88	3
30	32	2
3	33	3
75	82	2
99	100	1
90	119	3
81	82	1
119	121	1
23	86	1
89	94	2
29	31	1
5	7	1
72	123	1
10	14	3
72	93	1
1	3	2
12	14	1
83	84	5
22	27	1
73	124	3
87	89	2
12	30	1
113	116	2
138	138	3
76	82	1
92	114	1
100	112	1
82	85	1
4	5	2
33	128	1
19	21	1
135	136	1
102	111	1
66	69	1
0	2	1
83	88	1
0	102	1
83	87	1
20	27	1
12	13	1
119	120	1
73	75	1
20	105	1
79	80	1
92	94	1
82	87	3
28	105	1
82	84	1
82	91	1
111	125	1
13	18	1
2	31	1
84	84	2
105	111	1
13	16	1
83	85	1
3	6	1
14	18	1
122	123	2
15	16	2
133	136	1
33	100	1
24	81	1
2	34	1
92	92	1
16	111	1
127	132	1
20	21	2
80	81	1
18	19	1
111	124	1
99	117	1
30	105	1
28	29	1
28	103	1
