95	96	4
80	80	5
105	105	2
126	131	7
28	28	5
22	22	21
111	111	19
59	60	6
65	69	4
122	122	17
117	117	13
127	138	7
56	56	10
95	95	10
85	86	1
42	71	3
114	120	5
143	144	4
111	126	1
16	16	7
13	13	17
113	125	3
123	124	7
81	81	13
144	144	10
62	62	2
71	71	7
136	136	6
131	131	5
40	41	6
113	113	7
90	106	3
66	69	7
2	2	7
124	124	1
68	68	5
125	125	9
55	55	14
77	77	4
1	47	2
36	36	10
96	96	7
31	31	7
10	94	4
121	122	3
17	115	2
39	40	6
120	120	10
22	23	2
76	76	7
74	78	3
99	99	8
121	121	7
118	118	6
108	109	3
94	94	12
12	125	1
41	41	3
55	56	4
42	42	15
75	75	7
0	133	1
51	91	5
132	132	3
56	81	5
112	112	7
63	63	18
134	135	1
81	82	6
72	72	12
29	29	15
57	93	5
10	86	2
8	8	6
97	134	3
26	26	3
133	134	1
110	110	2
54	54	2
35	35	4
29	143	5
136	137	2
47	140	4
67	68	3
98	98	4
73	73	10
101	103	4
57	57	5
2	3	5
24	35	3
48	72	7
146	146	6
23	23	4
90	91	8
123	123	4
92	92	5
63	65	1
47	47	5
57	104	3
66	66	7
126	126	3
27	27	6
84	84	4
12	12	4
84	85	6
64	67	2
90	90	8
48	48	9
33	35	3
91	108	4
37	38	8
15	16	10
47	133	5
108	108	6
113	114	2
100	100	3
130	130	5
47	134	3
75	76	2
48	83	2
59	104	1
20	20	11
104	105	3
85	85	5
9	9	4
74	74	5
82	82	6
67	67	13
83	83	6
91	92	3
33	33	6
13	77	2
91	91	4
1	134	3
2	47	2
70	70	7
14	15	2
129	130	5
115	116	6
93	93	3
129	129	4
70	71	4
56	82	3
59	59	7
92	95	3
18	18	5
99	100	3
28	30	3
6	6	6
33	39	9
94	103	1
142	144	4
14	84	3
42	135	5
61	61	5
112	113	5
87	87	5
143	143	7
127	127	3
68	69	1
10	93	4
93	94	1
65	65	5
18	19	3
83	84	3
24	32	2
37	37	5
34	141	8
102	102	4
65	68	6
20	21	5
50	50	10
116	116	7
133	133	2
12	77	6
102	103	3
14	77	5
60	108	2
82	86	1
104	104	6
8	11	1
53	53	3
128	129	6
29	30	7
52	86	2
114	114	2
47	128	3
99	104	3
90	93	6
60	60	5
133	140	2
69	69	5
15	114	4
122	123	8
19	19	5
59	95	3
52	87	1
55	81	4
24	24	1
33	48	3
8	9	1
117	119	5
49	91	1
128	131	4
49	49	2
12	85	2
141	142	7
21	21	7
8	23	2
62	63	2
145	145	2
6	34	3
40	40	11
109	109	4
57	58	3
117	118	2
48	78	1
17	17	6
1	1	1
73	140	1
61	100	2
128	128	11
87	88	1
2	39	1
94	141	1
54	55	1
103	103	1
52	82	3
112	125	1
35	37	5
16	115	2
12	16	2
56	87	1
12	13	7
80	81	3
23	32	3
78	78	2
16	17	7
17	75	1
142	142	4
95	141	2
58	91	1
101	102	1
57	87	7
89	91	1
92	141	2
1	71	1
86	86	5
93	95	2
33	38	2
52	52	1
107	107	5
34	34	3
11	11	4
47	127	1
90	92	2
39	72	1
9	34	2
121	123	2
115	115	1
8	10	1
48	73	4
101	104	4
17	18	3
72	131	3
125	126	2
79	79	2
62	64	2
99	101	2
30	31	1
17	74	1
42	98	2
58	92	1
31	34	3
98	135	1
138	138	3
59	61	1
134	134	2
19	74	1
5	5	2
39	39	2
114	119	2
73	74	3
32	32	6
55	78	1
94	95	3
73	85	1
101	101	4
95	98	1
89	90	3
122	130	2
28	143	2
129	131	2
76	77	2
14	125	1
53	54	7
51	82	1
55	79	1
30	34	3
40	71	1
52	54	2
41	71	2
5	34	1
10	10	2
25	25	2
106	106	3
115	118	1
59	105	3
37	141	1
10	11	3
127	133	2
139	139	1
107	108	2
95	100	2
77	79	3
16	59	4
4	5	2
3	33	1
127	129	1
38	38	1
138	139	1
111	138	2
90	97	1
2	140	2
77	115	1
132	133	1
78	79	2
119	119	1
64	64	1
30	30	1
53	80	1
16	74	1
140	140	2
33	71	1
1	41	2
88	89	1
58	58	1
92	93	1
141	141	2
3	4	1
113	120	1
52	53	1
124	125	1
135	136	1
88	90	1
145	146	1
8	22	2
96	137	1
96	100	1
96	97	1
