125	126	3
124	125	2
162	162	2
164	164	3
39	42	2
86	86	5
65	66	1
47	47	1
37	37	3
144	179	1
0	1	2
26	28	2
155	175	3
30	30	2
158	159	2
0	15	1
21	22	2
97	97	6
29	29	2
159	160	1
140	152	3
40	40	5
95	95	1
150	150	1
85	85	5
173	173	1
75	76	3
43	44	7
110	110	1
161	162	1
155	156	2
86	156	4
27	27	4
189	189	2
63	63	4
141	141	2
44	44	3
53	53	3
135	135	7
149	149	5
94	94	4
87	91	3
190	190	1
139	139	4
15	15	5
183	184	1
170	170	3
96	97	7
123	123	8
179	179	8
178	180	4
10	47	3
115	115	3
185	185	10
63	64	2
71	103	4
67	113	3
76	76	2
133	139	2
165	166	3
8	109	2
184	186	4
146	146	1
55	56	4
95	96	5
88	88	1
33	35	4
106	106	3
104	125	3
85	87	3
182	182	4
35	35	1
154	155	1
99	100	2
47	48	5
174	175	6
36	37	4
48	114	3
119	119	3
20	20	8
19	19	5
29	30	2
12	12	4
161	166	1
81	82	1
178	178	1
142	143	1
77	78	4
137	137	4
173	174	2
37	38	6
86	155	1
136	137	1
48	48	5
181	181	4
76	89	1
133	133	2
8	8	3
99	99	4
100	100	4
131	131	2
153	153	3
118	120	4
62	62	5
9	10	3
154	154	4
79	152	1
65	101	1
145	147	2
124	124	6
67	67	3
152	152	2
97	116	2
61	74	1
0	0	2
39	39	1
128	128	2
59	61	3
2	2	7
77	77	2
119	144	4
159	159	4
52	108	3
148	148	2
74	103	1
102	105	2
17	17	2
133	142	3
71	122	1
85	134	4
177	177	3
160	162	1
122	122	3
16	27	1
24	25	1
156	156	3
41	41	3
28	28	4
171	171	2
88	89	2
27	28	1
73	104	3
168	168	1
143	143	3
155	155	4
102	102	1
142	142	2
54	54	8
1	1	3
42	97	1
77	118	2
145	145	1
66	66	1
184	185	1
87	87	3
118	118	1
34	34	9
78	106	1
160	160	1
78	79	1
45	46	1
177	179	2
73	73	7
21	21	1
81	120	1
124	126	2
84	84	3
128	148	1
85	189	2
20	21	3
144	144	4
178	179	2
129	150	1
42	42	2
4	4	2
63	106	1
58	58	7
49	49	4
187	187	2
117	117	5
71	146	2
2	3	2
184	184	1
136	136	2
90	133	2
79	139	1
130	142	2
66	67	1
80	80	2
75	75	6
128	130	3
2	37	1
4	5	1
176	178	1
92	93	1
65	115	1
106	111	4
93	93	2
48	67	3
180	180	1
111	111	1
59	60	1
161	161	4
17	20	1
22	22	2
112	112	5
63	67	1
86	180	1
135	136	3
5	5	3
57	58	1
112	113	2
176	176	1
145	146	3
101	101	1
6	17	2
108	109	1
80	118	1
162	163	1
113	113	2
150	154	1
151	151	4
26	27	1
41	113	2
33	34	2
133	181	1
85	86	4
62	114	1
24	24	3
64	64	1
33	33	1
61	102	1
100	101	2
43	43	1
127	127	5
158	158	5
157	157	1
4	17	1
18	38	2
180	181	2
55	108	1
96	96	2
78	78	2
159	183	1
46	46	2
6	6	1
15	24	2
89	89	2
160	169	2
72	104	1
174	174	2
165	165	4
25	28	1
108	108	1
109	109	3
154	183	3
188	188	1
182	183	3
129	130	1
36	38	1
98	98	1
26	26	1
152	153	1
183	183	2
62	146	1
121	122	1
20	46	1
134	134	1
57	108	1
140	141	1
83	140	1
86	157	1
90	90	2
179	180	1
129	129	2
125	125	1
160	166	1
172	172	2
70	70	1
107	107	1
102	145	1
78	118	1
80	82	1
169	169	4
27	29	1
65	65	1
57	57	1
28	29	1
86	188	1
140	140	1
154	182	1
2	4	2
161	170	1
169	170	1
13	13	1
7	7	1
8	112	1
