111	112	5
48	48	7
40	88	1
170	183	3
65	92	3
18	18	15
4	6	4
83	84	4
33	33	4
10	10	8
100	103	1
132	132	4
152	180	4
66	94	2
41	43	3
127	127	7
81	81	6
169	169	3
105	117	1
124	177	2
164	164	7
84	84	8
167	167	6
163	163	5
103	103	5
93	115	2
186	186	9
142	142	4
39	39	1
132	133	5
109	109	9
108	121	5
102	103	2
5	8	2
174	176	4
142	148	2
34	34	9
121	145	4
139	139	1
20	81	2
22	24	3
154	174	4
17	54	4
66	68	3
138	138	9
40	40	9
159	161	1
1	2	3
130	130	7
178	178	12
35	35	7
59	59	18
23	48	2
88	94	1
45	46	6
36	36	7
22	22	9
32	42	2
25	79	3
53	94	3
129	143	3
127	143	2
74	74	6
136	136	11
72	72	9
157	158	13
106	106	2
55	55	10
181	181	17
140	140	8
161	163	1
13	13	4
8	8	10
121	126	1
47	47	8
93	94	2
133	133	5
146	146	7
75	75	7
94	94	6
17	17	9
173	176	5
31	36	3
190	190	11
31	31	4
34	39	7
63	75	1
75	79	3
160	160	5
155	155	5
141	142	2
16	43	3
28	40	2
140	152	2
1	1	6
104	104	7
159	159	10
88	108	1
96	99	10
91	91	2
76	76	7
168	169	2
92	92	5
96	96	6
171	172	8
3	3	2
107	107	4
175	187	3
147	147	6
76	77	3
77	77	6
156	156	5
178	181	3
89	89	5
110	110	8
189	189	6
174	178	5
4	32	4
31	32	5
34	76	4
12	14	2
35	46	1
165	165	5
14	14	4
123	124	2
53	53	4
188	188	5
67	135	4
133	179	4
117	118	3
99	99	5
39	40	2
79	82	6
62	90	5
21	21	7
157	157	5
136	137	4
88	89	6
120	130	3
87	87	14
113	113	4
87	95	2
161	172	4
61	61	5
127	128	2
11	15	1
121	121	1
130	131	3
11	16	1
27	27	5
93	93	7
15	16	1
106	146	2
20	27	3
2	3	2
23	23	4
16	16	5
166	167	5
120	126	2
89	96	1
187	189	6
164	165	5
82	82	3
150	154	3
141	141	4
28	28	8
38	70	1
175	176	1
163	171	1
64	64	2
149	149	8
0	6	1
7	7	7
87	100	1
156	159	15
154	158	2
52	88	1
96	97	2
105	105	7
159	166	4
120	128	2
66	103	4
129	129	4
137	138	7
182	182	3
10	11	2
174	174	2
155	159	7
178	185	2
162	164	11
184	187	5
124	134	1
183	184	3
127	149	3
96	107	2
12	12	4
13	68	4
104	125	1
128	128	2
58	61	2
159	160	1
90	145	2
162	187	2
43	44	3
25	25	6
170	173	4
68	70	2
153	153	2
67	100	1
114	114	4
13	16	3
40	41	3
7	43	4
102	121	1
144	147	4
120	120	8
80	80	8
85	85	7
20	22	4
119	151	1
137	177	2
71	71	2
83	85	3
18	22	2
28	30	2
160	161	2
121	124	2
13	24	2
93	96	4
32	33	3
98	98	4
122	122	5
30	30	1
133	138	1
163	166	2
84	85	2
168	168	7
175	182	3
126	126	5
56	56	7
15	18	3
174	175	1
36	68	2
72	114	1
172	172	7
149	150	1
81	98	1
106	122	1
43	43	12
107	124	2
125	125	3
70	70	2
18	25	5
78	79	3
158	158	3
112	113	3
181	184	3
85	86	1
44	47	1
20	20	7
40	81	4
118	118	12
83	83	7
154	159	1
139	178	1
177	177	2
162	162	3
131	135	4
53	91	1
173	187	1
94	106	1
17	18	2
145	151	6
38	81	3
20	21	9
31	44	2
108	143	4
166	166	8
114	115	3
159	174	4
184	184	8
58	72	3
43	65	2
5	39	3
25	44	2
94	100	1
33	42	2
112	112	2
60	71	1
42	42	3
171	171	4
123	123	4
80	87	3
115	115	3
166	172	1
165	166	1
41	41	6
2	2	4
29	33	3
9	10	3
29	34	4
90	90	1
178	179	1
91	95	1
54	54	4
115	116	2
78	78	2
173	173	3
86	118	1
157	159	1
131	134	1
108	109	4
14	17	1
109	110	1
120	134	3
124	128	2
95	113	2
64	75	1
38	38	4
168	170	3
124	124	5
32	32	3
67	119	2
19	19	3
79	79	4
24	25	6
93	145	2
151	152	3
125	148	2
19	21	1
35	40	5
9	9	2
86	90	1
57	57	1
141	176	1
136	139	4
53	75	2
151	151	5
96	106	3
5	5	4
175	175	2
22	47	6
97	97	2
0	48	6
142	143	4
76	88	2
38	69	1
160	163	3
73	92	2
13	40	2
161	161	2
111	111	1
91	92	3
145	145	3
28	37	2
28	31	3
30	42	1
125	127	1
131	132	4
60	60	4
107	146	3
45	45	1
109	113	3
148	148	1
15	15	6
143	143	1
124	141	1
113	123	1
146	147	2
27	30	1
73	82	2
188	189	1
45	47	1
7	17	1
1	38	2
152	152	1
66	80	1
155	160	3
62	62	4
17	20	1
22	78	2
112	151	1
67	67	3
126	128	1
165	168	1
84	90	1
137	139	1
129	152	2
138	139	4
133	137	1
155	175	3
150	171	1
187	187	2
63	63	4
3	56	2
108	108	1
116	116	5
182	183	2
154	172	2
150	169	1
175	179	1
12	13	3
53	82	1
148	149	2
136	177	1
148	157	1
34	35	1
108	110	1
15	19	2
22	76	2
130	137	2
52	52	2
141	144	1
92	98	1
127	129	1
15	23	2
89	90	5
143	157	2
97	98	1
106	131	1
127	148	1
141	177	2
171	173	1
114	118	1
0	0	2
27	44	2
170	170	2
159	170	1
112	120	1
55	56	2
85	145	2
180	180	1
158	183	2
70	101	1
119	124	2
0	38	1
16	47	1
75	76	1
66	67	1
153	169	1
130	133	2
43	55	1
14	21	1
145	150	1
185	185	1
153	157	1
46	70	2
178	186	1
156	157	1
116	140	3
54	76	1
30	33	1
98	100	2
4	5	2
96	108	2
28	35	4
101	101	1
107	138	1
61	63	3
21	27	1
155	156	4
6	10	1
61	64	2
60	63	1
154	176	1
159	164	2
20	26	3
8	10	1
137	137	1
144	144	2
161	162	1
13	21	1
141	185	1
124	125	1
108	142	3
95	95	1
119	119	1
95	97	1
157	169	2
20	30	1
126	146	1
117	122	1
70	77	1
37	37	2
19	25	1
62	78	1
154	157	1
155	170	1
21	23	1
100	101	1
65	65	2
22	48	1
74	76	1
87	94	1
43	46	1
94	110	1
189	190	1
66	95	1
152	177	1
67	101	1
69	83	1
17	27	1
106	145	1
166	170	1
41	42	1
183	183	1
22	23	1
134	182	1
168	172	1
39	76	1
154	154	1
48	89	2
106	151	1
68	87	1
8	16	1
120	131	1
163	170	1
26	26	1
188	190	1
64	98	1
167	170	1
95	99	1
144	148	1
148	150	1
158	177	1
83	86	1
126	127	1
155	173	1
121	143	1
187	188	1
