65	65	8
90	126	1
95	98	3
46	72	3
108	108	4
81	81	8
12	12	20
114	121	2
2	3	4
36	44	1
79	79	10
16	19	2
123	123	15
63	63	9
114	114	4
19	19	5
71	71	13
103	103	9
18	80	3
126	126	14
16	16	13
127	129	6
133	133	2
3	3	5
64	65	4
105	105	12
5	7	3
122	123	9
118	118	11
87	87	12
107	107	6
86	86	8
70	70	20
43	88	2
120	120	16
34	34	12
62	62	21
72	73	2
93	94	2
55	55	5
43	105	4
112	112	10
60	61	2
22	24	3
92	93	1
79	80	7
111	112	5
82	82	6
89	90	3
115	117	4
20	20	11
101	101	10
102	103	6
124	125	4
98	98	10
64	64	5
91	123	5
110	128	2
52	52	1
25	25	6
117	117	11
101	102	5
75	75	13
29	29	6
120	125	2
0	0	13
100	130	3
73	73	23
50	52	1
29	31	2
115	115	7
131	131	3
33	33	12
94	96	1
84	86	3
59	61	4
45	45	6
28	29	4
59	59	13
77	77	5
58	58	1
74	74	8
3	10	4
26	63	3
127	132	4
49	71	2
9	9	2
135	135	5
95	96	9
73	109	1
88	88	18
12	13	9
86	112	4
116	116	22
115	122	3
15	15	3
19	99	3
53	53	12
128	129	2
76	76	10
84	84	11
6	7	4
36	38	4
21	21	13
72	72	10
80	80	6
21	22	11
20	71	3
0	5	3
90	90	10
65	66	2
6	6	6
60	60	11
30	47	1
91	132	3
106	107	7
32	33	11
24	25	6
22	22	14
104	104	7
110	132	2
99	99	11
67	67	2
2	59	2
13	13	7
18	18	4
81	82	4
77	106	4
36	71	2
28	28	15
18	71	1
23	24	15
108	109	2
32	32	5
9	10	7
57	57	4
26	26	11
44	44	13
11	11	13
69	69	11
56	57	8
36	45	2
62	63	1
28	51	4
75	111	4
17	18	1
4	4	5
100	105	1
91	91	8
132	132	4
5	5	3
51	51	1
61	61	6
122	122	5
24	24	4
115	118	4
87	89	3
89	89	8
7	7	12
23	23	9
31	31	10
21	33	2
88	90	1
125	125	7
98	101	2
62	64	5
70	72	4
19	20	3
3	38	1
111	130	1
97	97	6
62	65	1
8	8	8
1	1	8
54	54	14
30	32	7
23	127	1
56	56	2
115	129	2
31	32	3
109	110	9
25	131	1
19	38	5
33	67	1
33	34	14
95	95	2
98	102	1
88	89	5
134	134	6
84	111	1
26	42	1
68	70	2
96	96	4
9	37	1
112	131	2
113	113	4
90	130	4
2	2	2
24	97	1
102	102	9
45	47	2
35	71	1
66	68	2
17	102	1
65	69	4
130	131	2
109	109	8
28	32	3
50	50	7
20	23	1
36	36	8
119	121	1
110	111	5
118	119	3
53	63	1
7	8	4
85	85	5
20	91	1
25	27	2
74	75	7
83	83	5
107	108	1
17	17	7
69	118	1
92	92	4
106	106	4
68	68	11
83	121	1
71	129	2
94	95	2
50	127	2
49	51	1
57	126	1
30	33	3
38	85	2
52	69	3
78	78	3
22	23	4
61	62	3
54	55	2
66	67	5
18	90	2
127	127	7
35	35	4
0	1	4
54	60	1
7	11	2
86	88	1
43	43	5
120	124	3
112	121	4
117	118	3
87	88	1
25	58	2
44	80	2
75	106	1
127	128	2
35	82	2
35	133	4
68	118	2
104	105	3
6	11	3
113	117	2
20	98	4
43	87	1
78	92	4
77	78	4
30	56	2
119	120	3
111	111	7
88	111	2
104	115	3
69	70	4
63	70	1
93	135	1
129	129	3
32	120	1
93	93	3
28	65	1
45	67	2
38	38	2
17	79	3
108	132	1
70	82	1
53	120	1
27	68	1
94	94	4
34	64	2
44	133	2
60	92	3
50	121	1
90	91	1
5	6	3
68	69	2
26	64	3
111	122	2
119	119	1
77	113	3
3	5	2
24	28	1
106	132	1
45	100	3
35	80	3
80	104	1
130	130	1
128	128	5
85	87	1
45	130	1
1	2	1
30	30	7
27	27	2
99	100	1
73	74	1
50	51	2
101	116	3
33	126	1
24	59	1
84	113	1
124	124	6
25	126	1
103	104	3
36	42	1
134	135	4
1	59	1
14	14	2
57	58	3
114	115	3
106	133	1
115	119	1
111	113	1
3	4	3
93	95	1
50	120	2
105	106	3
36	82	3
27	109	1
125	127	1
99	104	1
123	124	2
26	108	1
0	79	1
77	79	1
45	46	2
106	109	2
73	123	1
130	132	2
27	35	2
86	113	2
70	118	1
78	82	1
43	121	1
99	102	1
32	87	1
70	71	1
108	122	1
121	121	3
44	45	1
20	21	2
122	124	1
27	28	2
48	48	2
37	38	1
46	46	1
94	103	1
90	127	1
45	112	1
65	129	1
89	127	1
110	131	1
42	86	1
43	44	1
26	36	1
29	32	1
28	45	1
83	120	1
81	102	1
29	30	1
92	134	1
17	69	2
83	113	1
25	56	1
20	33	1
20	94	1
51	110	1
16	80	1
55	56	1
