61	72	1
65	69	1
38	39	5
98	98	18
97	97	7
34	34	15
19	20	3
33	34	5
87	102	3
105	107	1
85	85	8
104	106	5
39	39	7
38	38	4
61	62	6
74	75	1
84	84	8
51	51	9
76	76	8
93	93	11
56	90	4
96	97	5
68	72	6
62	62	8
63	64	5
23	23	16
87	87	4
68	68	4
34	41	2
69	69	11
59	60	3
35	35	13
62	80	4
69	73	2
74	74	14
20	24	1
36	43	4
77	109	1
106	107	3
99	99	5
92	93	1
42	42	17
78	79	3
24	26	3
102	103	1
35	40	1
105	105	3
33	33	8
40	54	2
46	46	4
41	41	8
20	20	5
25	25	3
31	31	12
27	28	3
34	35	7
103	104	2
108	108	10
22	22	4
48	50	1
37	38	1
47	48	1
21	21	9
29	46	6
80	80	14
57	60	4
48	49	6
66	66	3
107	107	17
103	103	8
72	77	4
39	40	6
56	58	1
59	59	6
43	45	1
27	27	8
22	94	1
68	70	8
91	92	2
71	71	4
49	49	4
48	48	9
113	114	3
68	69	3
109	109	8
77	78	3
47	47	1
19	19	5
48	108	2
67	67	5
77	77	3
21	23	4
53	53	5
70	72	5
85	101	4
26	27	5
70	70	7
113	113	14
54	55	4
89	89	1
65	66	2
73	73	1
94	97	2
50	95	3
96	96	2
38	40	2
26	26	6
72	73	3
60	72	2
73	86	1
45	45	10
98	99	2
52	60	1
82	114	1
74	77	1
111	112	2
85	86	5
101	101	5
101	103	2
79	90	3
91	91	6
32	32	4
66	67	1
79	79	6
64	64	10
75	76	3
72	72	1
112	112	2
34	54	3
65	67	3
83	84	1
78	78	4
60	62	3
81	81	5
32	52	5
71	91	2
53	54	5
28	28	5
30	30	2
26	28	7
96	98	1
74	113	1
50	50	3
61	61	2
54	73	4
65	71	3
44	44	4
76	77	1
92	100	2
58	58	1
64	66	1
20	21	2
111	111	5
106	106	4
22	24	2
29	50	2
95	95	9
83	83	2
50	51	6
103	106	2
86	86	6
76	113	1
44	45	4
79	100	1
40	41	1
67	84	2
74	110	1
50	58	1
37	39	2
89	110	3
96	111	5
41	46	2
66	72	1
55	56	3
89	91	4
88	88	4
20	22	1
105	106	1
73	76	1
57	59	1
41	42	1
100	101	5
52	52	1
48	61	1
62	66	1
75	75	1
82	85	1
68	86	3
37	37	2
56	56	3
66	87	2
71	72	4
33	53	2
25	47	2
81	84	2
20	27	1
110	111	1
85	110	1
97	99	2
54	54	2
92	111	3
56	57	3
65	65	3
36	64	2
71	100	1
88	91	3
103	105	1
29	29	1
36	36	2
51	72	1
24	93	2
34	51	1
27	50	3
67	69	1
58	59	1
31	32	1
43	43	3
94	95	1
40	40	3
32	35	1
114	114	1
49	50	1
109	110	2
59	61	1
30	98	1
93	94	1
67	68	1
35	36	1
24	24	1
81	82	1
103	107	2
90	90	1
79	80	1
33	55	1
