0	0	11
86	86	9
57	57	18
21	43	2
47	47	10
107	107	8
58	58	12
23	24	15
123	125	2
1	2	3
88	88	10
32	33	3
106	106	12
74	78	3
7	7	6
17	17	13
113	122	5
119	119	7
4	14	2
76	76	7
88	89	4
116	116	14
27	27	10
125	129	4
29	33	2
101	106	5
28	28	4
128	132	1
100	100	10
111	111	26
11	18	2
84	86	2
97	97	10
12	12	3
4	4	6
42	42	17
45	45	11
38	38	3
45	75	1
131	133	5
120	120	17
22	25	6
102	103	5
23	23	14
102	105	3
65	70	5
75	75	13
12	13	6
33	33	9
74	75	1
50	50	6
4	15	2
116	118	5
13	19	1
5	5	12
112	123	3
117	117	9
109	109	5
40	42	4
131	131	6
84	85	7
124	124	9
109	114	5
122	134	6
87	102	3
25	25	11
115	119	5
60	60	13
105	105	10
6	7	6
91	92	8
128	128	4
39	41	5
14	15	4
31	31	9
92	93	2
123	124	5
95	95	5
0	2	4
19	19	7
2	3	8
36	37	4
48	70	2
34	37	2
98	99	5
21	21	10
34	35	4
72	73	1
64	64	5
28	30	6
1	3	3
41	43	4
9	10	3
88	90	1
17	26	1
31	34	8
11	12	3
85	85	10
126	126	7
62	62	6
14	14	5
118	118	5
114	115	9
36	38	1
83	90	6
83	85	6
124	134	3
112	112	10
81	81	4
68	68	11
105	106	10
34	39	1
74	74	4
115	117	3
77	77	8
94	95	5
127	127	8
118	120	1
24	24	5
20	20	22
42	43	5
82	103	3
127	132	3
63	63	8
92	92	8
73	73	7
38	40	9
125	125	7
95	96	8
122	125	4
46	47	6
69	69	15
33	80	2
3	4	4
76	77	4
123	123	2
34	34	9
31	32	3
33	37	1
49	49	8
54	56	5
78	80	1
129	129	8
115	118	1
126	129	4
26	29	3
6	9	4
125	128	2
80	80	7
15	15	24
84	100	5
132	132	13
127	128	5
130	130	15
83	83	2
59	61	4
96	98	5
0	13	2
95	97	2
91	91	6
130	133	2
37	37	13
11	19	2
40	41	6
8	11	1
4	6	4
50	64	6
10	10	8
84	84	13
118	119	5
30	32	4
2	2	3
7	8	4
128	130	5
111	134	1
110	112	6
47	48	3
113	121	3
121	122	6
99	101	7
11	11	18
124	128	4
87	87	4
85	86	4
109	119	4
48	48	6
97	99	11
38	85	3
35	35	7
30	34	2
81	104	7
78	86	2
4	5	2
129	130	2
122	122	8
132	133	6
32	32	12
94	94	14
56	57	6
104	105	5
44	45	3
72	72	8
19	35	1
82	84	3
23	30	4
15	29	1
43	44	7
61	61	13
81	86	2
97	98	3
61	62	1
114	114	2
109	111	13
77	84	1
43	43	4
37	45	2
103	103	6
73	75	5
60	61	3
82	83	6
81	82	5
36	36	8
45	55	3
14	21	4
21	22	11
59	93	3
35	39	1
22	24	3
78	119	2
6	8	3
109	113	2
113	113	6
15	16	2
23	26	2
35	36	6
20	25	2
46	46	7
78	78	6
125	126	4
44	71	3
67	68	5
114	117	2
16	16	11
5	15	2
13	13	9
126	127	1
101	101	3
19	27	4
1	1	5
57	58	3
84	120	4
74	76	2
75	76	3
72	76	1
6	6	7
18	20	2
71	72	1
66	67	7
30	30	9
30	31	7
59	60	2
47	78	2
10	11	3
18	19	9
79	101	2
83	107	3
34	74	3
95	100	1
103	105	2
110	111	6
44	44	9
26	26	5
78	101	4
110	113	6
19	39	1
69	70	4
96	97	3
90	90	6
41	41	5
17	19	3
111	112	8
79	82	3
110	110	4
121	121	8
101	102	4
129	131	2
65	69	1
46	64	5
93	93	6
85	119	1
64	65	2
44	75	1
66	66	4
100	102	2
69	71	4
108	108	8
18	18	8
124	126	2
39	39	5
123	129	1
22	23	4
24	27	1
125	127	4
126	132	1
64	66	3
29	30	4
8	8	5
27	34	2
120	121	4
16	29	3
39	40	3
38	39	3
80	101	3
17	29	2
99	99	1
79	81	6
18	40	1
98	98	3
134	134	10
67	67	10
3	6	1
124	125	4
113	116	2
111	122	2
57	78	1
13	41	2
80	81	2
56	56	6
71	71	1
9	9	5
101	103	2
103	104	10
114	119	1
44	72	3
2	5	3
43	45	1
26	28	4
19	22	2
5	7	1
28	29	5
104	104	7
55	55	4
105	107	1
82	124	1
36	40	2
7	12	2
60	94	2
5	6	1
44	48	1
115	115	4
62	63	7
133	133	3
83	104	3
106	108	2
110	114	2
96	99	2
57	76	3
117	118	5
14	16	1
123	134	1
37	41	2
128	129	3
83	84	1
55	94	2
16	31	1
33	35	2
116	117	6
133	134	4
59	59	3
13	20	4
79	107	1
65	65	5
33	34	2
9	11	1
44	56	2
75	85	1
0	10	2
46	69	2
119	120	1
15	17	1
47	64	1
83	134	3
40	40	3
113	115	4
47	71	3
16	34	1
19	20	3
68	69	2
17	30	2
33	36	1
55	56	1
36	41	1
123	131	2
117	119	1
82	104	1
86	119	1
104	134	1
129	132	1
130	131	1
50	71	1
122	123	1
35	37	5
108	112	2
25	26	3
20	24	1
79	79	1
35	38	3
87	107	1
45	56	2
107	108	2
96	96	5
8	18	1
66	69	3
76	79	1
114	116	3
24	61	1
45	46	1
86	105	1
102	102	3
97	103	1
62	65	1
15	19	1
85	102	1
100	101	2
20	31	1
42	45	1
125	130	1
80	104	1
38	41	3
80	82	1
99	106	1
44	55	3
6	13	1
29	31	1
105	108	2
25	31	1
131	132	1
98	101	2
45	57	1
100	103	2
43	48	1
11	13	2
108	114	1
90	98	1
3	3	3
23	27	1
57	94	2
55	76	1
77	80	1
54	60	2
78	81	1
78	82	1
13	38	1
9	12	1
104	108	1
77	120	2
30	33	1
76	100	1
63	69	1
82	105	1
38	42	1
55	58	1
78	79	1
109	112	1
68	70	1
8	9	1
95	99	2
23	31	1
86	103	1
112	122	1
89	90	1
65	66	1
93	94	1
104	106	2
94	103	1
43	56	1
