170	173	2
168	168	4
126	126	9
175	175	1
137	175	4
91	92	2
152	152	3
60	60	4
109	110	3
116	116	9
33	33	4
149	149	8
15	15	4
96	96	3
75	136	3
37	37	4
115	115	5
22	22	8
14	14	4
7	8	1
75	75	13
44	44	4
148	166	1
31	33	2
55	100	3
38	38	9
138	138	8
147	148	1
58	67	1
92	93	2
91	91	10
172	173	6
13	57	1
41	41	5
102	102	3
74	74	7
21	38	1
105	105	6
154	154	4
9	9	1
77	77	5
6	7	1
31	31	8
17	19	3
16	16	6
67	67	3
136	142	3
66	67	1
98	98	10
122	123	1
27	36	3
158	158	3
24	43	2
86	86	6
130	130	9
171	171	10
160	162	4
122	122	4
171	174	2
39	40	4
72	74	4
132	132	4
20	20	1
180	180	4
170	170	6
18	21	2
26	26	1
16	17	3
84	85	3
56	99	1
82	82	10
132	134	2
24	36	3
64	66	2
134	134	7
5	5	2
143	146	3
138	139	3
77	78	1
11	11	3
94	94	5
59	59	5
178	178	9
135	136	5
93	120	3
35	35	8
25	25	4
165	165	10
94	131	1
155	155	5
93	93	3
166	166	4
51	51	2
148	148	7
134	135	7
89	89	9
136	143	9
6	14	3
76	77	4
169	174	2
154	156	2
56	56	14
157	158	1
145	145	10
116	117	4
50	51	5
10	14	1
4	21	3
78	78	5
169	169	8
118	120	2
64	64	3
27	44	2
111	111	10
23	23	1
0	0	3
83	85	5
2	2	10
35	36	2
162	162	5
118	118	12
121	121	1
27	27	2
85	85	4
111	112	2
39	132	1
36	36	7
39	130	3
100	100	4
84	84	4
64	65	2
128	146	3
66	66	7
117	117	6
11	13	2
146	149	1
31	32	5
168	169	3
54	54	1
124	125	2
102	103	2
80	80	3
173	173	8
63	63	3
96	98	1
88	90	5
1	3	2
87	87	9
179	180	3
71	71	2
105	107	6
146	146	3
37	43	4
3	3	2
86	87	3
21	50	4
32	36	2
2	3	3
45	45	1
94	146	2
109	109	4
159	159	2
130	155	1
7	7	2
165	166	2
79	126	2
71	108	1
131	155	1
61	65	2
91	127	3
153	153	4
112	114	2
124	124	7
147	147	4
172	172	4
28	28	3
179	179	2
88	88	3
23	25	7
161	162	1
176	176	6
43	43	4
145	146	1
23	43	3
135	142	3
10	115	1
146	166	2
87	120	4
92	92	3
21	22	7
99	99	1
52	53	6
34	35	1
151	157	6
174	174	6
164	165	2
28	31	2
167	167	7
131	135	4
16	22	4
137	137	3
157	157	7
79	79	4
81	81	7
63	64	5
39	133	1
60	65	2
7	44	3
99	117	5
142	142	2
30	31	1
72	77	2
25	37	1
52	52	4
9	111	1
139	139	8
56	103	3
135	135	1
28	30	1
12	13	2
10	10	2
110	111	3
104	104	2
52	97	2
40	41	5
0	1	1
177	177	4
123	123	3
129	131	2
95	96	2
95	95	1
130	131	1
19	20	1
163	167	3
87	88	1
17	22	3
23	24	3
133	154	1
79	122	1
36	37	1
160	160	2
51	52	4
171	172	1
151	151	1
39	39	3
161	161	2
129	129	4
130	133	1
24	24	2
12	12	4
53	53	3
164	167	1
165	175	3
107	108	1
15	16	1
112	112	4
103	103	2
1	1	2
163	164	2
99	101	1
76	139	2
17	64	1
27	37	2
13	13	4
127	171	1
107	107	4
71	77	1
154	155	2
42	42	2
82	85	1
56	107	2
16	38	2
178	179	1
123	124	2
103	104	1
81	124	2
90	127	2
65	65	2
74	116	1
17	17	3
109	117	1
1	2	1
120	121	3
119	120	4
57	57	2
68	102	1
117	119	4
131	131	3
52	111	1
62	62	1
29	29	1
144	144	3
54	98	2
125	125	1
146	147	1
120	120	1
6	6	2
170	174	1
113	114	3
68	78	1
70	70	2
92	94	1
150	150	1
97	97	1
135	143	1
56	110	1
113	113	2
143	145	1
141	141	1
139	176	1
34	34	1
136	140	1
30	30	1
143	143	1
167	176	1
94	165	1
38	39	1
40	154	1
50	50	1
58	105	1
89	127	1
74	75	2
8	13	2
88	89	2
97	129	1
110	110	1
131	150	1
101	101	1
103	105	2
32	32	1
41	42	1
132	158	1
55	102	1
76	76	1
74	142	1
55	55	1
79	80	1
140	140	1
61	104	1
106	106	1
93	172	1
18	50	1
100	101	1
90	90	1
73	73	1
