78	78	4
54	55	3
41	42	5
99	103	4
64	64	3
27	36	2
57	81	3
67	72	3
85	88	5
21	21	6
19	28	4
52	78	1
94	95	13
25	43	1
38	39	2
40	45	2
90	90	4
59	59	10
33	33	14
32	32	3
68	72	9
73	73	2
31	32	3
60	60	7
22	22	5
35	36	3
47	47	3
93	94	2
79	80	4
99	99	4
75	82	1
53	53	7
89	90	4
37	40	1
53	62	2
29	30	9
46	46	2
104	106	2
57	57	7
75	77	1
89	89	5
41	41	2
101	102	8
33	37	1
34	34	5
79	79	5
32	33	6
41	52	1
20	20	4
82	83	2
38	38	7
34	35	2
43	43	3
68	68	2
80	81	1
77	78	1
87	87	10
57	58	4
83	87	1
62	62	2
66	76	3
93	95	2
49	49	3
42	53	2
86	86	8
21	59	2
68	93	4
97	107	1
92	93	3
54	54	3
80	80	4
72	73	4
103	103	8
83	83	4
56	63	3
105	105	5
78	80	3
22	30	1
39	40	2
67	67	5
30	30	8
76	76	8
84	85	4
97	98	5
102	103	3
76	81	3
96	96	3
52	70	1
91	92	6
73	80	3
106	106	3
69	69	2
31	31	5
21	22	3
36	36	10
25	26	5
90	91	4
66	69	3
24	37	3
55	55	5
90	93	4
91	91	12
73	78	4
100	100	3
60	64	1
33	57	1
82	82	2
45	45	4
45	81	2
52	53	1
87	88	3
96	98	5
55	82	3
65	66	4
44	44	1
36	38	1
67	75	2
51	52	2
26	26	4
27	27	6
95	97	1
49	50	3
25	25	5
88	89	3
57	61	3
23	26	2
95	95	6
50	50	1
58	61	2
50	52	3
70	70	4
61	61	3
61	62	3
51	51	4
66	67	4
49	51	2
82	85	1
74	74	1
101	101	1
71	71	1
28	28	5
90	102	2
54	57	2
22	33	1
81	81	14
81	83	2
70	72	4
83	84	4
75	76	1
66	66	1
79	81	2
33	34	1
24	24	8
66	92	1
29	34	1
23	25	3
84	87	2
62	63	3
53	55	1
37	41	2
69	70	2
84	84	1
35	37	1
105	106	3
75	75	2
74	87	4
74	82	1
41	69	1
21	35	1
40	43	1
56	56	3
93	93	1
89	92	2
61	78	1
46	88	1
102	102	4
58	59	1
28	29	3
56	57	3
55	75	2
88	101	1
99	101	6
82	86	1
94	94	1
29	29	2
48	48	2
59	65	1
59	77	2
41	45	2
98	98	6
37	38	2
97	106	1
46	51	2
56	64	1
72	72	5
47	48	2
21	24	1
32	34	1
22	24	1
97	97	2
23	23	4
76	77	2
50	88	1
39	58	1
66	68	1
86	89	3
58	58	2
39	42	1
86	88	1
73	76	1
67	69	2
31	37	1
95	102	1
63	63	1
48	51	1
40	40	2
22	63	1
42	55	1
62	64	1
22	23	2
27	28	1
63	65	1
85	101	1
23	29	1
42	54	1
