57	57	6
119	130	4
56	114	1
55	55	21
37	51	1
128	128	16
82	82	2
15	16	10
106	137	1
53	53	7
41	74	2
39	39	15
86	87	1
3	3	14
15	32	12
52	53	12
84	94	2
80	82	6
72	72	21
125	125	13
51	52	2
135	139	2
121	136	3
133	133	9
103	103	7
88	88	11
126	126	14
61	141	3
49	49	16
6	63	4
40	40	10
95	124	2
54	76	7
18	19	8
15	15	6
132	140	1
54	55	8
69	70	9
65	66	5
13	17	1
18	18	3
8	26	4
93	94	4
74	74	14
89	95	3
33	47	8
30	30	21
81	81	13
64	89	2
22	22	17
113	116	4
42	42	3
99	100	11
138	139	6
133	134	6
54	54	8
123	123	7
13	13	18
63	66	3
55	135	2
32	40	2
34	35	2
102	102	6
26	26	7
66	68	3
58	128	11
87	87	4
25	26	7
73	74	5
6	27	3
78	122	6
16	16	9
67	68	9
92	94	3
31	31	12
41	41	6
54	136	2
35	35	12
112	113	5
20	21	12
96	137	4
124	124	7
23	23	5
23	27	5
97	98	2
113	115	2
65	65	3
122	122	13
108	108	13
90	90	12
14	32	1
92	93	3
109	111	5
91	91	1
92	92	4
142	142	6
19	19	4
33	33	1
99	99	6
11	32	4
9	9	12
57	125	5
3	25	1
88	90	2
93	93	5
50	52	7
105	111	8
1	1	8
0	13	5
64	85	7
95	95	10
134	134	6
145	145	5
63	64	2
61	81	5
90	115	1
50	51	9
36	36	7
21	21	8
13	84	4
67	69	3
60	121	4
37	37	25
60	61	5
39	50	2
127	129	8
71	71	6
59	59	14
76	78	3
70	70	14
142	143	2
55	107	4
9	30	1
54	134	5
29	29	10
11	11	8
26	27	9
140	140	13
106	106	8
31	32	8
117	117	7
110	111	6
38	38	12
110	110	19
65	68	3
146	146	3
112	112	13
28	28	13
140	141	2
102	118	2
61	61	9
53	54	3
98	98	9
125	126	2
135	136	1
8	9	8
90	96	4
119	120	7
64	86	8
9	32	4
20	23	1
14	14	10
101	101	7
130	131	3
135	135	4
77	123	3
58	139	2
125	140	1
75	76	2
129	129	9
49	52	5
27	74	2
135	137	6
75	81	2
34	34	5
96	96	6
5	48	3
5	5	4
4	27	3
104	104	6
12	12	1
118	119	6
8	8	4
12	13	2
84	93	3
96	101	3
78	78	7
111	112	2
22	23	4
121	121	4
144	144	5
123	124	4
61	137	3
3	4	2
32	32	1
64	81	3
30	37	4
49	75	5
96	131	1
130	130	5
74	141	1
56	56	6
69	69	7
116	116	7
139	139	5
75	75	6
27	27	6
67	67	9
17	17	6
32	36	3
50	54	1
76	76	4
4	4	4
80	81	2
90	91	6
11	27	10
94	95	9
0	33	1
58	58	8
20	20	10
37	107	4
108	109	10
131	131	7
100	100	5
65	67	2
84	84	4
28	38	2
10	26	5
117	119	2
58	70	4
97	97	4
6	66	1
68	71	1
119	119	2
2	6	2
111	111	5
4	6	4
127	127	5
129	130	7
122	123	8
58	137	3
88	89	6
76	80	1
137	138	6
71	72	1
114	117	4
52	73	1
118	118	4
75	80	1
30	63	1
87	92	3
137	137	4
63	63	1
37	109	2
70	71	1
79	80	1
73	73	2
39	40	2
13	21	2
136	136	6
121	123	3
105	110	5
40	41	6
55	134	4
120	120	3
21	35	2
47	48	3
21	22	1
0	10	5
114	114	1
109	109	7
58	99	1
9	42	1
83	87	4
84	85	5
114	116	2
5	47	3
55	57	1
78	79	6
12	111	3
13	34	2
41	42	2
0	34	3
62	70	2
86	89	1
58	138	2
48	48	10
2	2	4
64	65	2
85	85	5
77	77	1
3	92	2
57	58	3
107	107	11
59	117	1
52	52	5
128	134	1
38	40	1
51	51	3
127	128	3
33	34	4
75	93	2
37	50	1
61	75	3
89	90	2
4	5	2
108	111	1
35	36	2
94	94	4
132	132	6
135	143	2
31	142	1
124	126	2
71	74	1
16	47	1
0	1	3
111	117	1
73	139	1
14	15	3
80	80	5
116	118	2
77	78	1
66	66	8
18	23	1
121	122	2
60	60	4
10	43	1
37	94	1
6	6	2
30	41	1
117	118	2
79	115	1
100	101	5
28	74	1
14	19	2
8	10	3
48	51	1
17	37	2
19	21	5
83	85	2
62	131	6
36	108	1
71	142	1
57	59	1
32	33	1
58	127	1
71	76	2
94	98	1
19	47	1
92	102	3
54	57	1
76	77	1
113	114	3
115	115	5
20	24	1
137	139	1
62	63	3
51	55	2
98	99	4
87	91	1
60	84	1
0	11	2
74	75	4
107	108	1
115	116	4
48	49	1
105	113	5
113	113	3
87	102	1
8	25	2
61	62	1
29	42	2
8	30	2
101	103	4
105	105	2
105	106	1
18	48	8
126	128	1
106	111	3
56	136	3
91	107	1
59	123	4
16	37	3
24	24	5
85	86	1
56	120	4
64	109	1
24	25	1
49	110	1
31	39	1
62	69	3
64	64	2
111	118	1
62	65	1
56	101	1
10	30	2
29	37	2
71	80	1
120	121	4
54	68	1
132	133	1
36	51	1
83	83	1
27	28	1
88	120	3
0	74	1
126	130	1
107	136	1
107	111	1
53	72	1
6	23	1
106	107	1
108	117	1
89	89	1
73	122	1
116	117	2
119	121	1
141	141	3
30	32	1
55	133	1
60	137	2
56	70	3
135	138	1
37	39	2
21	23	1
5	27	2
82	83	1
92	95	2
100	109	2
110	112	1
62	140	1
99	117	1
96	97	1
1	3	1
122	130	1
58	125	1
88	128	1
19	23	2
92	108	1
30	141	1
59	60	1
2	5	1
61	135	1
102	105	1
48	97	1
66	67	1
25	25	2
134	140	1
130	137	1
124	125	1
129	131	1
73	140	1
102	103	1
10	11	2
2	115	1
35	47	1
38	39	1
64	84	2
134	141	1
120	123	1
101	102	1
33	40	1
97	101	1
71	141	1
21	24	1
119	141	1
136	137	1
22	95	1
