81	81	28
62	62	28
38	38	17
76	76	14
69	69	30
98	98	16
29	29	11
64	64	27
50	50	16
65	65	33
47	54	6
74	75	6
58	71	5
66	66	12
85	85	20
68	68	25
39	39	25
58	58	17
74	74	23
27	28	4
65	67	2
96	96	18
39	50	3
37	37	8
86	86	11
26	27	7
78	78	23
73	73	26
26	26	21
36	36	13
89	90	2
86	87	13
86	88	2
67	67	18
70	71	5
88	88	37
23	23	7
99	99	5
35	35	7
42	42	10
55	56	6
63	63	25
97	98	7
75	75	30
77	77	15
76	82	3
28	28	3
70	70	17
74	76	2
80	81	9
59	59	8
46	47	13
98	101	2
82	84	1
57	57	11
72	73	8
83	83	11
44	44	3
49	50	10
87	87	23
91	91	20
72	72	19
40	40	11
79	80	19
49	49	13
76	77	7
53	53	6
96	97	6
66	67	9
53	54	4
95	95	11
99	100	4
45	45	18
62	71	2
97	97	13
80	83	4
67	68	12
59	61	1
52	53	10
89	89	20
81	82	6
39	40	3
100	100	14
33	33	11
82	82	5
31	43	1
56	71	2
60	60	9
27	27	11
90	90	16
83	84	4
64	65	3
86	89	3
39	49	2
100	101	8
59	62	5
54	55	4
63	64	9
84	84	15
56	56	12
52	89	2
87	89	4
46	51	2
51	53	1
92	93	2
55	55	4
69	81	1
34	36	4
54	54	11
46	46	6
87	88	7
91	93	2
61	62	6
71	72	5
91	92	11
89	99	1
94	100	3
56	57	8
71	71	18
75	76	2
80	80	28
32	33	3
95	96	6
88	92	1
62	63	8
32	32	2
65	66	6
41	42	3
52	54	3
20	20	4
94	95	12
51	51	9
49	62	2
43	43	7
93	93	17
96	102	2
60	61	4
68	69	3
79	79	20
24	25	3
41	41	8
61	88	2
31	31	12
101	101	12
47	48	4
98	99	4
61	61	11
47	47	9
87	96	3
78	79	3
92	102	2
48	48	10
99	101	2
74	77	4
48	49	1
22	22	6
88	99	1
93	94	3
55	85	1
22	24	1
100	102	3
24	24	3
39	47	6
92	92	8
67	75	1
58	59	4
20	22	1
39	48	1
90	92	2
23	34	3
40	41	2
72	86	2
77	82	2
85	86	5
93	100	3
25	27	1
53	56	1
69	70	3
52	52	4
57	58	2
88	89	4
63	74	1
36	37	2
65	68	2
70	74	2
48	51	1
34	34	5
25	25	7
37	38	1
61	73	3
97	101	3
25	26	4
30	30	1
90	91	3
71	89	1
85	88	1
54	61	5
20	27	2
35	36	1
38	47	1
88	96	1
94	96	3
94	98	3
73	74	1
72	74	3
95	97	2
67	73	1
77	78	1
94	94	1
38	39	3
36	38	1
57	75	1
20	33	2
102	102	2
44	50	1
24	26	2
55	58	1
84	85	1
53	55	1
77	79	1
50	63	1
57	71	2
87	97	2
64	75	1
98	100	1
44	45	1
48	54	1
96	100	2
62	81	1
61	64	1
41	73	2
52	57	1
70	72	1
79	82	1
54	60	1
57	72	1
29	83	1
101	102	1
59	73	1
81	83	1
61	87	2
