117	119	4
20	20	6
149	149	12
25	25	11
123	123	7
127	155	1
166	169	1
126	126	10
71	110	2
7	8	2
43	43	4
3	4	4
133	133	3
48	48	7
13	13	7
160	164	1
108	116	3
57	81	1
149	150	2
93	95	4
127	127	5
115	115	10
1	24	1
82	82	2
37	37	1
168	169	9
148	148	2
100	101	3
45	50	2
134	138	1
38	53	2
168	168	4
28	28	11
76	79	12
76	130	1
71	100	6
23	55	1
100	100	11
159	160	1
95	115	6
33	33	3
4	4	4
96	96	2
8	8	2
153	153	2
145	166	2
81	100	1
34	35	2
38	38	4
56	56	4
18	18	2
76	81	2
113	113	3
40	46	3
43	44	3
144	144	5
47	48	4
98	103	1
0	2	5
93	97	1
132	132	5
130	135	2
139	141	2
134	134	2
14	14	2
73	73	3
3	24	3
36	37	1
112	112	3
7	16	2
17	21	1
90	90	2
140	140	7
74	74	5
49	49	1
130	130	12
52	52	5
6	33	2
147	147	3
70	70	3
119	150	5
78	145	2
97	99	1
97	97	3
35	75	1
1	1	14
150	150	6
84	84	15
48	49	3
69	69	7
53	53	10
35	35	3
22	39	3
106	106	2
33	34	1
163	163	4
87	89	3
146	161	5
5	116	2
122	122	3
89	136	3
120	148	2
92	100	2
24	24	7
57	57	4
111	116	1
128	129	2
9	40	3
170	170	2
137	137	2
122	123	1
138	138	2
38	88	1
65	65	1
96	118	1
89	89	11
125	125	6
42	42	7
151	151	3
104	104	6
142	144	2
94	94	5
43	63	1
63	64	8
132	156	1
158	159	2
110	110	11
118	130	2
163	165	5
74	86	1
66	66	5
41	41	2
36	36	4
141	141	8
93	94	3
1	7	3
17	148	1
144	145	3
22	22	5
10	10	2
166	167	3
103	103	2
145	153	4
145	145	1
96	97	1
75	130	4
164	164	1
158	158	5
0	4	1
126	134	2
12	12	10
115	137	3
19	19	5
34	34	3
79	79	6
80	80	2
84	103	1
118	122	4
45	45	3
81	81	9
77	77	1
83	83	3
46	51	2
68	68	4
8	10	2
98	99	2
23	23	3
19	23	3
114	114	1
94	95	3
156	156	3
128	128	3
162	162	4
121	121	5
161	170	1
85	85	4
95	113	3
117	117	3
86	96	2
71	71	4
82	83	3
156	158	2
136	137	1
70	112	1
16	16	1
118	118	11
11	12	3
142	142	2
155	155	2
54	56	2
47	47	3
97	124	3
84	85	3
146	146	4
160	160	3
88	88	4
104	105	1
84	111	2
98	98	2
20	103	2
90	137	2
87	110	1
10	40	5
46	54	1
40	40	4
89	135	2
66	67	3
148	150	2
134	135	1
110	111	1
125	146	1
131	131	1
150	152	2
109	109	3
145	146	2
165	165	2
167	167	2
91	91	1
43	64	1
24	27	2
3	21	3
3	104	1
72	72	2
26	26	4
160	168	4
127	134	2
99	99	2
10	27	2
6	6	3
157	157	2
69	107	1
107	111	1
96	107	1
80	92	2
10	28	1
108	127	3
93	93	6
66	106	1
45	84	2
0	0	1
123	141	2
2	21	1
78	79	1
69	105	3
5	6	2
120	120	7
111	111	1
65	104	1
72	73	1
139	139	4
162	163	1
63	63	3
142	151	1
135	154	1
155	159	1
95	96	2
112	113	3
3	7	2
5	117	4
14	43	1
39	39	3
162	169	3
128	130	3
67	69	1
143	143	2
153	154	1
126	132	1
102	107	5
70	81	2
3	3	3
66	68	2
91	123	1
166	166	2
159	161	3
125	126	2
39	86	1
86	86	3
169	170	1
40	54	1
6	41	1
124	125	1
108	108	4
109	111	2
20	50	1
0	51	1
109	120	1
8	41	1
159	164	2
77	78	3
7	7	1
16	17	2
70	78	1
133	134	1
75	75	1
3	154	1
154	154	3
118	139	1
95	95	1
5	5	1
69	70	1
111	115	2
73	85	1
99	100	2
18	44	2
8	104	1
138	139	3
8	50	1
96	99	1
3	19	2
86	94	1
88	89	3
111	122	2
161	161	1
22	23	1
65	66	1
102	102	1
128	131	1
144	146	1
15	15	2
78	96	1
116	139	1
166	170	1
44	44	1
26	28	1
18	19	2
74	87	1
136	153	1
79	88	1
115	116	1
152	152	1
150	151	1
8	40	1
114	115	1
107	107	1
135	135	1
101	101	1
91	132	1
155	156	1
85	86	1
26	44	1
62	64	1
118	121	1
131	133	1
