34	34	8
102	102	1
130	130	6
104	104	2
65	65	8
120	120	10
78	89	2
109	109	5
118	118	5
1	1	5
113	113	6
33	33	6
75	105	4
11	72	2
29	29	6
79	90	3
95	95	5
31	31	7
127	127	8
111	112	2
24	36	3
93	93	2
32	32	7
101	106	1
78	106	2
5	5	5
42	42	3
104	105	3
92	115	4
21	21	7
98	100	1
123	124	2
88	88	13
106	106	5
102	103	2
105	105	5
57	58	3
133	133	5
79	80	1
49	49	2
125	126	9
24	25	4
3	3	5
20	21	1
117	117	2
110	112	1
60	61	1
7	7	7
15	15	2
96	113	1
124	125	2
58	59	4
77	78	5
117	120	4
86	119	1
76	76	8
38	38	4
127	128	2
134	134	1
14	14	1
87	92	4
65	69	2
119	119	7
12	15	1
96	96	5
110	113	1
90	127	1
54	54	4
2	2	7
60	60	5
126	128	1
94	94	3
30	30	7
99	100	8
135	135	6
90	91	2
97	101	3
97	97	6
97	98	2
80	80	7
20	23	2
9	9	4
96	101	1
47	47	7
123	123	2
91	126	1
57	67	1
126	127	3
21	22	2
106	107	4
5	20	2
62	63	1
16	17	3
55	57	1
92	93	1
53	54	3
75	77	2
134	135	2
8	8	6
74	74	2
1	18	2
5	12	3
79	79	3
36	36	5
46	46	2
1	5	9
20	20	2
24	24	5
23	24	2
82	82	4
19	19	1
43	114	2
4	4	1
32	36	2
37	37	5
88	89	1
66	66	2
12	13	1
96	97	5
77	77	1
57	57	2
59	70	1
95	112	3
28	28	3
85	85	3
6	7	3
12	12	2
13	14	1
0	0	2
43	43	4
92	92	1
121	122	5
115	115	4
69	69	3
98	101	1
10	10	2
55	55	3
103	103	1
43	44	2
78	80	1
90	90	4
78	78	3
87	91	1
73	74	1
100	101	2
103	105	1
80	82	2
71	73	2
121	121	2
50	50	5
28	29	2
108	108	2
107	107	2
22	22	1
106	112	1
68	69	1
94	122	3
75	75	2
108	109	4
62	62	3
71	71	4
132	132	1
104	120	1
87	87	3
33	34	2
53	53	2
26	26	1
61	63	3
11	11	1
47	100	1
30	61	1
80	81	3
15	20	2
120	129	6
52	52	3
24	26	1
60	65	1
54	55	1
6	32	1
130	131	2
16	16	1
23	64	4
81	128	5
26	38	1
13	24	1
17	17	2
90	126	1
11	64	1
85	130	1
102	104	1
70	71	1
122	123	3
131	131	2
70	70	2
62	95	1
125	128	1
7	8	1
26	35	3
63	64	2
34	35	1
125	125	1
102	112	1
16	67	3
87	114	1
115	119	1
107	108	1
128	128	2
69	70	1
42	45	1
29	30	2
129	129	1
62	64	1
116	121	1
23	23	1
86	87	1
45	45	2
124	124	2
92	94	1
75	76	1
84	119	2
27	30	2
61	65	2
79	81	1
119	120	1
6	6	1
22	23	2
87	88	1
16	66	1
63	63	1
