63	63	35
67	67	23
42	45	6
75	75	31
67	71	8
81	81	13
61	61	29
65	65	18
78	80	5
83	84	12
67	68	7
62	64	1
49	53	4
50	83	2
60	60	8
93	93	18
74	74	13
76	77	18
45	45	13
20	22	5
90	90	18
74	75	2
73	73	36
90	91	11
77	77	16
66	67	7
52	79	6
37	42	5
98	99	10
83	85	5
44	44	9
75	76	7
42	43	5
62	62	26
48	54	5
30	30	4
80	81	6
24	26	2
58	59	4
82	82	16
69	69	12
46	46	17
26	26	5
70	70	25
62	81	2
89	94	8
63	75	6
34	39	8
38	54	1
41	43	2
32	33	4
89	91	1
79	79	13
78	78	19
97	98	15
37	38	7
81	82	9
92	92	11
84	84	25
76	87	4
76	76	25
80	83	10
52	52	21
68	68	23
39	39	18
99	99	8
72	72	15
50	50	12
73	74	2
38	43	8
59	59	13
92	93	5
86	86	20
76	83	3
40	41	5
71	72	7
33	33	23
101	101	8
46	47	9
69	70	8
49	50	6
66	66	16
58	58	25
64	75	3
97	97	9
69	71	3
94	94	12
70	71	2
23	25	6
54	55	16
68	79	3
79	81	10
35	35	8
47	47	14
49	49	4
101	102	2
56	56	13
59	60	6
89	89	21
84	85	8
69	73	9
27	27	16
55	55	9
61	62	4
61	81	2
54	54	17
76	84	3
88	88	15
29	30	3
50	51	3
62	79	3
87	88	5
48	50	2
71	82	1
64	64	23
68	69	4
41	41	14
37	37	5
95	95	12
63	88	5
68	73	8
100	100	12
85	86	4
96	96	15
33	47	4
26	32	3
80	80	9
94	95	7
38	38	4
33	45	6
41	44	5
71	71	15
77	78	6
57	57	9
34	34	16
85	85	16
91	91	11
98	98	15
31	31	10
76	86	2
48	83	4
99	100	5
48	55	6
67	75	2
43	72	1
86	88	11
47	48	3
27	95	3
60	79	2
64	65	8
24	24	9
31	44	2
42	42	1
86	87	4
90	92	4
42	76	2
45	56	3
52	80	1
57	58	5
43	43	9
25	25	6
53	53	6
33	46	12
59	78	1
22	22	3
67	77	2
62	63	9
61	88	5
87	97	2
58	60	2
41	42	4
79	80	6
70	72	1
33	34	3
48	87	1
36	36	3
32	32	3
36	37	5
62	89	1
68	75	11
65	66	5
96	97	4
55	56	3
47	49	1
89	93	10
87	87	12
59	62	9
52	53	5
53	55	10
63	74	4
40	40	10
24	30	2
36	40	3
93	96	8
42	72	7
83	83	6
68	77	6
23	23	2
78	79	8
68	74	2
100	101	8
26	88	3
63	64	4
95	97	4
51	53	1
65	89	2
42	73	3
89	95	3
51	51	8
48	48	14
72	73	3
28	28	7
60	61	2
48	49	5
59	61	1
25	32	9
69	72	1
61	63	1
33	48	4
38	47	1
63	89	3
51	81	4
69	78	3
91	93	1
56	58	2
70	73	1
31	48	1
88	97	2
102	102	5
94	99	2
89	90	1
38	39	4
55	83	2
71	74	2
82	83	1
36	38	5
39	47	1
31	47	2
66	88	1
95	96	1
71	73	2
77	84	3
44	45	2
75	82	1
25	34	3
91	92	1
35	37	1
25	88	1
51	80	4
34	40	1
93	94	1
23	96	1
36	45	2
24	25	1
93	97	2
60	62	1
29	29	1
34	36	2
22	43	3
65	67	3
69	74	1
25	26	1
64	76	2
60	78	1
27	28	1
26	27	1
20	20	1
88	94	1
51	83	1
35	36	1
57	59	1
50	85	1
76	78	1
40	44	1
51	84	1
68	76	1
69	82	1
