84	99	3
28	28	13
72	72	4
103	104	1
40	40	7
34	34	11
139	139	10
48	68	2
87	87	3
121	145	1
64	71	3
96	113	2
31	31	6
32	32	3
76	102	5
14	14	1
116	117	2
10	12	1
138	138	13
36	36	19
110	110	4
86	139	3
47	47	8
115	115	1
35	35	5
96	96	4
43	43	3
108	108	8
135	135	12
72	73	5
128	129	4
150	150	6
41	41	5
120	146	2
122	123	4
48	48	9
81	82	4
3	22	3
19	20	5
140	140	4
6	6	6
93	94	6
78	78	10
129	129	4
131	131	16
55	55	4
151	151	12
92	92	13
38	38	6
8	9	4
47	71	1
110	147	2
106	106	8
88	100	2
5	5	5
146	146	4
76	77	6
101	101	4
110	146	8
94	94	8
70	70	7
34	35	11
139	142	2
99	99	5
84	139	5
113	116	4
122	122	1
126	126	9
92	93	4
46	46	10
77	77	4
149	149	9
9	10	6
33	34	1
130	130	3
100	103	1
3	5	2
12	12	4
153	153	9
90	111	2
81	81	4
119	119	7
104	108	7
21	22	5
2	23	2
100	101	4
98	98	2
18	19	5
109	109	22
113	114	5
21	21	8
129	134	3
8	14	5
23	24	9
32	37	1
107	107	7
79	79	5
94	95	7
118	118	17
20	25	7
122	130	5
101	102	5
148	148	10
80	82	2
38	46	3
40	46	1
132	132	12
49	66	1
54	54	5
137	137	1
78	123	2
116	116	11
62	70	1
140	141	4
40	44	1
11	12	2
51	55	1
27	29	7
122	135	4
152	152	9
47	49	2
23	23	8
154	154	7
117	117	8
68	68	4
73	127	1
39	39	7
114	114	7
64	64	4
63	63	2
125	125	5
147	147	4
74	74	2
10	10	3
124	124	4
120	145	3
81	83	2
3	3	2
50	50	6
11	11	2
120	120	2
36	68	6
123	126	4
115	116	1
7	7	2
84	98	1
11	15	2
134	135	1
69	69	5
19	19	10
24	24	11
67	154	2
112	115	3
96	97	2
80	99	1
58	63	1
123	129	1
97	98	3
20	20	5
16	16	5
145	146	1
149	153	1
73	74	6
133	133	6
33	35	3
104	104	9
6	30	2
102	102	10
38	39	2
16	17	7
102	104	2
137	138	4
83	86	1
2	3	1
82	82	6
134	134	4
50	66	4
19	28	1
45	45	2
128	128	9
100	100	3
67	67	3
86	86	1
22	23	7
41	45	3
3	6	5
127	128	2
136	136	5
122	143	2
38	57	3
10	31	3
123	123	7
100	112	2
75	75	5
85	85	2
57	57	3
56	57	1
85	139	1
95	98	2
22	22	2
141	141	1
122	140	1
112	130	4
143	143	4
41	43	2
64	65	1
26	26	6
145	145	4
63	77	1
102	103	2
93	93	4
15	17	3
121	146	3
115	146	2
17	17	2
42	43	3
54	55	2
76	110	1
105	148	1
35	36	2
152	153	2
105	105	3
76	76	8
47	53	4
147	148	2
94	113	2
4	8	2
68	69	1
67	68	1
18	18	2
2	20	1
48	53	1
80	80	2
5	6	4
39	46	1
112	113	1
95	95	2
12	30	1
44	44	2
70	109	4
29	29	7
35	67	2
66	67	1
37	37	1
3	23	1
37	38	1
70	104	1
70	108	3
97	97	6
111	111	3
27	27	3
53	53	3
73	73	4
124	125	1
84	84	2
78	79	1
96	121	2
38	42	3
127	127	2
130	140	1
126	127	1
62	62	4
48	66	1
76	100	1
56	56	5
106	108	1
103	103	2
136	137	1
142	143	3
4	5	1
41	42	1
86	94	3
77	80	1
25	25	1
105	108	1
118	119	3
10	15	2
114	117	1
39	43	1
149	150	3
11	14	2
150	151	1
119	121	1
64	150	1
36	148	2
119	120	6
144	144	1
51	51	1
63	64	3
83	83	1
8	32	2
41	44	1
42	42	2
113	113	4
84	87	1
112	112	3
36	48	1
14	15	1
131	132	2
32	33	2
39	40	1
69	148	2
132	134	1
124	128	2
151	153	2
138	139	2
33	33	3
52	52	1
146	147	1
66	66	2
13	13	2
64	68	1
84	97	2
120	153	1
111	147	1
142	142	1
48	51	1
7	28	1
40	41	1
63	70	1
132	133	2
55	56	1
85	99	1
51	52	1
34	37	1
69	151	2
71	71	1
38	56	1
68	70	1
85	86	1
129	141	1
77	78	1
