33	33	10
152	152	19
169	169	12
54	54	11
170	170	18
56	89	1
158	158	11
78	89	6
148	148	15
104	109	1
20	21	1
0	0	6
99	99	18
186	186	14
167	167	14
2	2	15
30	30	9
108	108	11
24	24	13
76	145	7
79	79	15
159	164	2
120	120	14
190	190	14
38	40	1
151	178	1
156	156	10
56	56	8
141	141	7
189	189	4
157	158	3
77	77	10
113	122	1
31	31	3
56	63	3
97	98	7
121	121	11
22	22	6
91	91	5
99	106	2
176	176	7
15	16	4
95	96	6
163	163	6
108	109	6
181	181	24
110	110	11
26	26	9
53	54	14
175	175	9
146	146	7
56	57	5
66	102	2
179	180	4
156	157	5
83	84	16
133	134	2
123	124	5
171	172	7
40	41	13
117	118	6
18	18	7
18	29	8
87	139	5
61	61	6
25	25	9
142	142	6
159	159	10
103	130	7
12	12	7
94	94	5
133	133	11
93	93	12
84	85	8
63	63	8
149	150	9
124	124	22
70	171	2
106	141	2
82	82	6
8	8	12
168	168	12
7	20	2
106	107	9
59	59	5
154	155	6
92	93	5
2	48	3
19	19	6
175	176	5
81	122	4
64	64	5
139	139	17
74	139	1
39	39	5
48	49	1
40	40	10
104	105	6
87	146	5
85	85	14
23	23	7
184	185	4
75	145	1
10	10	7
6	6	7
160	160	2
5	42	2
110	111	5
83	83	14
145	147	3
18	19	7
170	171	3
140	140	5
95	95	18
109	110	1
45	45	3
52	56	6
17	19	2
29	29	4
102	186	1
1	1	11
22	24	5
32	32	11
53	55	5
187	188	2
42	42	9
78	120	3
154	154	13
70	129	4
16	16	10
126	128	6
78	169	1
81	81	5
9	10	3
128	143	4
136	137	4
84	84	13
105	108	2
184	184	9
73	74	4
153	153	12
155	157	3
88	88	18
21	24	2
155	155	11
138	138	13
87	87	5
1	2	5
151	152	1
134	135	6
36	36	5
67	68	5
117	117	3
137	137	5
70	71	4
104	104	2
87	88	6
155	175	4
167	177	2
148	163	2
3	3	7
114	135	4
38	45	6
47	73	3
157	157	9
111	111	9
177	178	2
182	183	5
183	183	7
79	170	1
2	3	3
181	182	5
128	128	8
69	115	2
43	71	2
113	113	7
151	151	10
68	98	2
72	139	5
109	109	12
180	180	4
12	13	6
122	122	7
76	143	2
149	149	13
178	178	9
169	170	2
44	44	5
114	114	15
71	73	3
42	43	4
90	90	13
41	41	6
17	17	7
0	190	3
152	153	4
129	129	4
142	148	1
72	72	9
137	169	2
86	86	13
141	151	2
52	52	6
13	13	9
160	163	2
91	124	1
177	177	9
101	101	7
9	9	5
62	63	1
68	68	4
57	57	6
95	131	2
43	44	2
183	185	3
38	39	3
67	101	3
11	19	6
188	188	3
115	121	2
107	107	2
176	177	3
71	71	2
132	132	3
167	168	2
178	179	2
4	5	2
61	62	6
115	115	6
53	56	1
165	179	2
182	182	10
43	70	1
13	41	4
27	30	2
77	78	1
148	174	2
86	88	1
116	117	4
131	133	2
86	87	2
16	18	1
33	34	7
65	65	14
37	46	2
59	60	4
58	59	1
7	8	3
10	12	1
4	6	2
17	22	4
89	89	7
165	186	2
21	21	12
23	24	1
134	134	8
137	138	1
174	174	8
110	139	1
33	35	2
32	37	3
54	55	2
117	119	4
30	31	2
42	71	2
34	34	5
107	109	4
38	38	16
106	106	6
21	22	7
81	90	5
103	103	4
8	9	2
111	138	1
104	107	4
25	35	1
107	108	7
89	90	2
11	11	6
20	20	2
71	173	1
14	14	7
32	36	5
96	97	2
96	109	5
70	70	3
7	16	1
145	145	9
99	100	4
16	41	2
16	23	1
85	87	3
20	25	6
172	172	4
90	91	9
87	189	4
119	119	5
131	131	5
60	61	1
35	35	8
7	7	10
152	178	2
67	67	5
80	80	2
62	82	1
47	55	1
124	127	2
144	144	10
37	37	5
150	155	2
115	116	1
114	137	4
52	84	4
127	128	5
153	182	2
77	170	2
45	46	2
31	46	1
166	166	7
9	13	2
16	25	2
6	7	2
94	95	4
20	24	2
92	92	4
111	112	6
36	37	3
5	5	7
135	135	11
57	62	2
95	114	3
63	66	1
185	186	2
167	170	1
18	20	2
100	100	2
87	131	1
187	187	3
74	74	6
77	88	2
109	138	4
114	115	4
136	138	5
55	55	2
55	56	5
159	183	3
13	17	2
98	98	7
102	102	10
161	162	4
76	76	7
146	174	5
117	120	1
150	156	3
31	33	3
24	40	4
173	174	2
103	104	3
122	126	1
100	156	2
71	139	2
81	82	1
158	183	5
166	169	3
158	159	3
147	147	3
145	146	4
66	66	6
22	40	1
126	127	1
112	116	2
88	89	2
119	120	4
11	12	6
71	171	1
75	141	4
101	142	1
84	89	2
69	71	2
80	82	1
58	64	1
116	133	3
136	136	3
94	114	2
63	64	2
28	28	6
74	75	2
130	130	4
147	174	1
125	125	4
97	125	2
78	78	2
153	154	6
135	136	1
165	165	5
88	118	2
118	118	3
152	180	1
82	90	1
159	160	1
18	30	1
41	42	1
39	40	1
141	148	2
13	16	2
98	136	1
149	156	7
77	182	4
134	136	2
3	6	1
166	168	1
0	2	1
53	53	6
146	175	1
87	147	2
154	176	2
153	156	1
167	176	1
28	29	2
0	189	2
96	96	4
33	36	1
9	71	2
152	154	2
43	43	1
78	170	1
8	16	3
116	116	1
47	47	5
124	125	1
105	187	3
26	41	5
13	15	3
159	176	1
173	173	4
99	101	3
104	106	1
1	190	2
143	157	3
178	180	2
167	182	2
154	165	1
77	119	2
41	53	1
62	62	9
145	177	2
121	122	1
35	38	2
93	94	2
105	105	2
6	20	1
46	46	2
99	125	1
80	121	2
110	112	2
142	143	2
7	25	4
164	164	4
27	28	2
57	61	2
109	130	1
147	175	1
112	112	1
87	128	2
188	190	1
150	151	5
16	24	1
126	126	3
24	68	2
73	73	3
121	129	1
95	129	2
82	91	1
146	148	1
16	17	4
151	181	2
58	58	4
141	145	2
35	36	2
123	123	2
16	26	2
99	167	1
58	63	1
75	76	2
165	183	1
97	169	2
89	120	2
87	186	1
35	42	4
29	30	2
69	69	1
150	157	1
91	95	2
183	184	2
110	114	2
79	83	1
74	145	2
171	171	2
144	147	1
46	47	2
44	47	1
96	131	2
148	159	3
87	89	1
127	127	7
77	89	1
187	189	1
24	25	2
102	119	1
151	177	1
109	114	1
34	44	1
166	181	1
27	27	2
18	26	1
103	105	1
185	185	3
7	57	1
174	175	1
112	113	2
89	108	1
164	165	1
69	72	1
150	178	1
47	54	1
82	83	2
4	4	2
97	141	1
80	190	1
134	168	1
150	150	1
58	60	1
79	80	1
165	167	1
102	103	2
5	6	1
66	67	1
22	67	1
137	139	1
138	139	1
148	164	1
143	143	3
57	63	1
48	48	2
16	19	1
84	170	1
101	102	1
118	147	1
182	186	1
62	64	1
93	107	2
139	140	1
57	82	1
27	35	1
135	137	1
26	31	1
13	30	1
70	141	1
13	44	1
91	126	1
76	85	1
111	126	1
72	76	1
151	179	1
