93	120	2
120	120	4
109	109	16
129	129	5
32	36	6
7	8	3
108	108	16
24	25	3
1	2	1
10	10	10
14	14	11
11	12	9
26	27	5
17	18	6
18	18	8
20	20	7
80	82	6
2	2	3
15	15	9
6	6	10
72	72	12
13	13	11
88	88	6
3	26	2
2	5	2
34	35	9
119	119	7
31	31	7
100	100	10
18	19	2
127	127	11
96	96	8
7	7	10
138	138	9
76	76	5
86	86	7
3	4	12
82	82	5
3	5	1
128	128	7
103	103	2
12	12	1
114	114	11
85	85	6
91	110	1
104	112	1
75	75	7
87	114	2
101	101	12
98	98	3
120	121	9
134	136	4
101	102	9
118	122	1
9	12	2
98	99	3
103	108	2
73	73	9
30	30	2
22	22	8
66	108	1
107	129	1
81	81	5
79	79	5
73	98	2
19	21	3
6	24	2
78	78	4
87	121	1
105	107	4
16	16	4
85	104	1
106	107	3
35	92	3
102	103	2
104	118	2
4	9	1
112	112	4
95	95	7
105	105	6
2	3	1
28	31	2
134	134	5
96	103	3
28	28	5
24	24	5
132	133	2
95	102	3
33	124	3
8	8	15
27	28	4
4	4	7
87	122	4
10	11	7
23	25	2
102	102	13
13	14	1
108	112	1
87	87	7
93	94	4
122	125	3
9	9	10
20	21	6
111	112	3
108	128	1
5	6	9
5	5	4
9	11	1
114	115	2
8	9	1
15	19	1
33	33	3
37	37	9
20	28	3
36	36	4
87	89	3
106	110	1
140	140	4
91	91	7
14	20	2
88	95	3
107	107	5
94	94	5
125	125	5
89	114	1
1	1	4
24	27	3
99	116	2
14	19	3
71	74	5
10	28	4
105	111	4
11	11	4
29	31	4
75	96	5
76	77	2
15	17	4
74	74	6
119	120	4
114	120	2
130	130	11
32	32	8
27	30	4
117	117	5
7	9	2
125	126	4
37	38	4
25	25	3
120	123	2
14	15	3
120	125	1
24	26	5
137	137	7
88	108	1
108	110	2
96	98	2
126	126	3
117	119	2
117	118	1
29	111	4
133	133	3
113	113	6
113	119	4
21	27	2
73	83	1
34	34	9
128	129	5
113	114	1
134	135	4
84	84	3
105	106	2
91	93	4
83	84	1
122	122	6
92	92	14
23	23	3
81	96	1
93	101	1
28	32	1
104	104	1
16	19	2
121	121	3
124	124	1
105	113	2
75	76	2
77	77	6
90	90	1
139	139	3
86	87	4
136	136	2
97	97	4
110	110	7
71	71	8
10	21	2
15	16	5
123	129	2
78	105	2
0	0	4
83	104	1
8	10	1
116	116	5
28	29	1
81	115	3
35	36	1
12	14	2
79	81	1
32	35	1
108	109	2
73	94	2
77	115	2
0	30	1
77	127	3
5	19	3
107	114	1
87	124	2
76	79	3
3	21	1
9	28	2
78	79	2
30	31	2
137	140	1
135	135	3
29	30	3
115	115	1
3	3	2
78	80	2
121	122	2
4	6	1
84	104	1
32	34	1
104	106	1
34	37	4
81	83	1
93	93	2
35	35	2
123	123	4
6	7	1
98	115	2
17	25	2
85	106	2
99	99	1
38	38	2
30	91	2
1	3	1
70	96	1
86	89	1
126	127	2
36	124	1
96	118	3
112	113	1
85	86	1
25	26	1
114	127	2
110	111	1
80	80	2
116	117	1
89	91	2
21	21	2
88	100	1
94	99	1
118	119	1
118	118	2
78	81	1
106	108	1
103	109	1
131	131	2
0	29	1
95	98	1
7	20	1
83	83	1
100	127	2
3	10	1
72	73	1
100	129	1
94	101	1
93	111	1
112	120	1
100	114	1
113	120	1
130	132	1
7	10	1
123	125	2
22	23	1
80	96	1
27	27	1
116	124	1
73	80	1
26	26	1
