127	169	1
129	129	3
166	166	1
19	110	1
86	111	2
156	157	3
143	143	7
43	43	5
132	133	1
91	91	2
139	139	4
76	86	1
116	116	4
21	22	4
153	154	2
116	117	2
108	108	3
167	167	2
74	74	6
102	102	6
138	138	7
72	87	2
107	107	7
131	131	6
156	156	4
170	170	1
151	163	2
79	79	2
40	72	1
97	98	1
36	36	5
146	146	4
130	167	1
88	88	7
130	162	4
161	162	2
55	58	1
113	113	7
45	47	5
95	95	3
144	144	6
2	2	8
50	51	3
27	27	11
70	96	3
141	149	3
12	12	6
111	126	2
2	3	4
44	84	1
41	41	4
87	87	4
162	165	2
112	112	5
87	119	2
6	6	4
87	92	1
151	151	6
21	24	7
10	10	6
82	82	5
139	166	5
140	140	6
144	145	2
57	58	5
132	132	3
136	136	1
138	151	2
87	113	2
117	117	3
80	164	1
110	110	3
143	145	2
160	160	6
124	124	8
37	37	5
161	161	4
123	167	1
67	67	4
52	52	3
75	75	3
164	165	2
68	69	3
96	96	6
115	115	12
136	151	3
118	118	6
139	141	2
98	98	5
77	77	4
39	39	3
131	146	2
157	157	9
92	95	2
84	84	3
34	34	1
142	142	1
167	168	2
63	64	4
42	42	2
65	65	2
0	1	3
55	55	2
51	55	1
150	150	1
122	122	4
24	24	2
95	115	3
41	86	2
158	158	3
87	97	2
69	69	6
89	89	3
152	157	1
20	20	5
86	87	2
147	147	4
106	106	3
101	102	1
151	164	1
133	159	1
67	68	1
111	111	6
0	0	3
159	159	4
126	127	4
80	165	2
56	56	2
7	7	3
162	162	1
9	9	2
65	68	2
86	125	2
135	164	3
134	134	4
133	134	2
163	163	1
38	38	2
48	48	1
134	159	2
3	3	5
16	16	2
52	54	1
168	169	2
116	119	1
89	117	3
122	167	1
1	2	3
161	164	1
141	143	1
68	68	2
92	92	2
19	93	1
122	159	2
151	161	2
22	22	1
20	24	1
99	99	3
22	23	2
130	156	2
136	163	1
70	86	1
70	70	2
90	148	1
62	62	1
78	78	1
8	12	1
147	163	1
136	137	1
119	119	4
39	50	1
151	160	2
83	99	1
141	141	1
162	163	1
128	128	1
122	123	2
145	145	2
94	94	1
123	126	2
68	74	3
161	163	1
54	55	1
85	87	1
47	47	2
150	151	2
100	100	1
109	109	1
114	114	1
41	85	1
155	155	5
147	148	1
80	135	3
57	57	1
8	9	1
137	137	1
78	90	1
140	142	2
69	72	1
8	8	1
26	26	1
93	93	1
91	92	2
124	125	1
70	98	1
102	103	1
152	152	1
130	169	1
134	135	4
149	149	1
156	170	2
64	67	1
6	92	1
11	11	2
4	4	2
73	73	1
100	121	1
2	11	1
65	66	2
112	115	1
48	49	1
5	5	1
20	22	1
72	113	1
17	17	2
120	122	1
90	93	1
79	80	1
133	136	2
71	71	2
81	81	1
99	110	1
69	100	1
142	144	1
51	51	1
110	111	1
90	90	1
96	98	1
45	45	2
123	123	1
101	101	1
135	142	1
68	83	1
91	95	1
54	54	1
164	164	1
103	103	1
