238	238	9
59	59	3
232	232	7
73	73	3
207	207	3
62	62	1
38	181	3
157	157	2
64	64	4
46	46	10
9	66	1
31	31	4
15	15	4
49	49	8
185	185	2
174	175	3
100	100	3
99	99	2
197	197	1
43	43	6
212	212	2
239	239	4
9	11	1
144	144	3
27	27	6
30	101	2
77	78	2
114	116	5
118	118	4
74	75	9
107	107	6
101	101	1
39	162	3
204	206	5
45	47	5
161	161	4
97	97	4
147	148	5
211	211	2
120	120	3
34	34	2
234	234	7
66	115	6
178	178	6
207	209	1
194	194	1
71	71	4
3	67	3
24	25	3
230	230	2
74	74	10
38	39	1
122	122	7
24	24	2
65	116	2
110	110	2
17	19	1
71	72	3
46	50	3
164	168	6
192	192	1
182	182	3
26	26	1
128	128	3
173	173	1
132	133	2
40	169	2
166	169	5
202	202	3
199	225	1
85	85	5
51	51	3
188	190	3
26	27	2
38	101	2
45	45	4
191	209	2
114	114	3
32	128	4
136	136	2
129	129	6
152	152	4
169	169	9
115	116	2
70	85	1
73	97	5
174	174	4
216	217	1
168	204	3
224	226	2
17	22	3
169	171	3
124	125	1
54	54	2
153	156	2
98	98	4
22	23	1
18	20	2
36	36	3
232	233	5
138	141	1
153	153	6
18	18	6
175	175	6
145	147	1
9	9	9
197	198	1
106	107	5
201	202	1
59	60	1
202	203	4
111	111	1
100	102	2
179	180	1
9	20	3
158	158	6
83	83	5
173	174	5
45	46	3
107	117	1
70	74	1
162	162	2
102	102	2
240	240	2
0	0	4
33	99	3
187	196	1
231	231	4
56	56	1
40	40	2
81	88	2
44	44	2
189	190	2
208	208	3
191	191	5
11	23	1
155	155	1
13	13	1
222	222	2
232	236	2
9	10	9
202	225	2
137	137	7
28	28	3
227	227	1
61	182	3
177	186	1
191	207	2
236	236	6
24	28	1
10	113	3
200	201	1
53	53	4
103	108	1
180	180	3
209	211	2
160	160	2
31	32	1
225	227	1
48	48	1
128	217	5
170	170	2
163	163	3
27	28	1
209	209	2
199	199	2
103	105	1
64	181	1
65	65	1
227	236	3
37	37	2
198	198	2
133	134	2
79	79	1
41	41	1
10	64	4
208	209	4
207	208	2
220	220	5
171	172	2
8	9	3
29	30	3
201	201	8
143	148	2
112	112	2
217	217	1
203	204	2
35	36	1
127	127	2
165	167	3
142	142	4
66	66	2
242	242	2
140	140	2
20	20	2
154	154	5
126	126	2
49	50	4
203	203	1
179	181	2
148	148	2
12	21	3
162	221	3
40	220	1
107	108	1
196	196	2
128	129	1
188	202	2
116	116	1
168	168	2
138	138	3
225	226	1
1	5	2
126	127	1
75	75	1
36	37	1
69	70	4
206	207	3
168	169	2
177	177	4
130	131	3
65	110	1
178	179	3
184	185	3
190	202	2
151	151	1
200	200	1
38	122	1
229	230	3
6	8	1
223	242	1
205	205	1
21	21	1
121	121	2
141	141	2
146	149	3
62	63	1
25	25	2
72	72	4
102	105	3
76	76	2
218	218	1
115	115	2
79	80	1
212	213	1
231	237	1
154	155	2
199	227	1
25	26	3
115	118	1
149	150	2
214	214	2
166	167	1
84	88	1
218	219	3
73	74	1
54	55	1
7	8	2
106	106	2
165	166	1
221	221	1
165	168	1
217	218	4
8	8	1
68	68	4
192	193	1
2	4	2
15	180	1
180	181	1
184	184	1
55	55	2
204	204	2
129	130	1
67	114	1
134	134	1
2	3	2
219	219	1
42	170	1
237	238	1
77	77	1
30	30	3
113	113	1
60	60	2
179	179	1
136	137	1
42	43	3
8	158	1
143	143	1
186	186	1
228	228	1
141	142	2
44	54	1
70	71	1
142	143	1
3	68	1
38	121	1
26	64	1
34	35	1
233	233	1
24	26	1
75	85	1
78	78	1
199	200	2
145	145	1
135	136	1
27	164	1
223	223	1
38	38	1
142	144	1
47	47	1
135	218	1
80	80	1
56	57	1
162	168	1
40	222	1
