54	54	20
161	164	2
22	125	3
150	154	4
8	11	4
18	18	21
97	97	19
61	61	18
168	168	14
52	52	14
164	164	15
95	95	17
153	153	16
123	123	30
138	138	8
81	169	4
59	60	3
35	35	28
41	41	18
28	33	2
96	102	5
116	116	18
110	110	10
22	22	11
148	148	19
63	66	5
112	113	4
73	73	27
9	150	1
51	51	24
158	158	13
1	1	15
134	136	5
115	116	9
176	176	17
16	16	14
77	77	8
128	129	9
7	7	11
62	105	6
39	39	13
83	88	3
145	145	17
24	24	15
29	30	2
0	22	4
116	159	3
58	115	2
4	4	14
64	64	39
4	13	5
113	113	15
144	144	17
126	126	19
39	78	1
31	129	2
40	62	1
56	97	12
26	26	14
75	75	18
157	158	5
76	76	18
159	159	8
57	97	2
54	55	8
171	171	20
120	127	2
92	92	18
111	111	27
170	170	24
111	112	1
98	99	8
167	167	12
121	123	6
144	145	2
73	76	2
91	93	7
146	146	6
145	146	5
173	173	14
87	87	8
15	125	4
142	155	3
3	3	9
137	137	13
29	29	13
169	169	18
82	87	6
79	83	1
95	98	1
11	110	3
31	31	14
57	100	3
13	13	20
25	52	6
62	63	5
99	118	8
74	147	3
165	165	11
95	99	7
30	30	9
133	164	2
116	117	6
84	84	11
74	74	15
42	54	2
113	114	8
75	132	2
81	151	2
143	172	2
161	179	2
18	120	2
78	79	6
108	108	19
77	132	7
67	67	19
114	114	12
168	178	4
65	66	12
29	31	8
68	68	9
18	147	1
128	130	4
166	166	11
59	64	1
15	15	11
168	172	3
92	94	2
107	107	8
37	132	3
156	156	18
7	50	5
140	175	2
65	109	11
99	167	2
56	56	7
54	93	4
130	130	7
161	161	17
96	99	6
1	2	6
149	154	4
27	28	5
57	102	2
40	71	2
147	158	4
6	151	4
63	111	6
142	142	16
29	94	5
166	167	6
104	107	3
88	89	19
79	79	16
117	117	11
142	143	4
33	33	11
59	59	12
74	134	2
179	180	4
178	178	14
37	43	5
22	105	1
60	107	2
23	96	4
155	159	7
78	78	2
85	85	5
107	108	5
129	136	2
163	166	1
127	127	19
144	148	3
150	151	3
27	41	3
129	129	10
129	130	1
102	102	11
89	89	9
27	43	2
75	76	8
151	151	16
71	72	6
145	174	5
128	128	3
172	173	6
8	12	8
108	109	10
12	12	10
34	34	15
115	115	12
6	6	11
39	40	15
150	150	18
115	120	5
96	96	17
177	177	6
20	46	3
134	135	5
42	42	23
19	20	5
12	13	24
62	89	5
75	103	2
6	9	3
163	163	24
25	78	3
74	80	1
20	41	3
25	25	10
109	109	12
74	75	5
58	61	1
13	14	2
54	104	3
60	60	11
10	10	10
76	90	3
5	5	19
23	23	8
80	80	14
14	14	13
105	121	2
52	53	6
26	39	2
57	58	11
125	125	16
60	94	1
90	91	10
10	23	4
160	160	17
39	65	2
135	136	1
94	95	8
154	154	21
159	160	6
139	140	8
2	3	5
63	63	10
94	116	3
82	112	4
26	50	5
144	174	2
100	100	24
66	109	4
3	103	2
152	152	14
83	85	4
104	105	5
62	76	4
149	149	19
64	88	5
2	2	16
91	91	10
79	81	4
140	140	19
34	35	9
50	54	2
53	53	10
32	45	3
56	57	3
87	88	5
96	98	8
83	83	4
81	90	1
179	179	18
170	171	8
172	172	10
134	145	3
44	44	12
90	90	14
15	114	2
137	138	3
9	9	17
38	39	12
27	42	5
176	180	1
32	32	15
99	133	2
135	140	4
84	86	4
55	56	4
154	178	1
30	38	2
133	145	1
66	66	11
19	19	34
156	158	2
105	105	11
50	53	5
101	101	14
168	171	11
57	79	4
132	132	11
2	4	13
27	27	21
13	113	1
110	111	13
106	106	12
98	98	8
38	38	19
95	96	6
119	120	5
45	104	1
132	143	1
53	123	2
57	115	7
97	98	5
143	144	2
159	176	5
146	164	3
135	137	4
58	58	18
170	178	5
73	174	1
27	32	7
119	119	18
141	141	12
121	127	5
29	71	4
109	112	1
55	113	11
151	154	2
62	62	4
112	114	6
36	36	15
108	110	9
96	97	11
88	88	12
87	106	8
65	65	8
7	9	2
78	147	4
131	131	14
173	174	4
122	124	5
100	116	5
45	45	7
164	165	4
50	51	8
59	96	2
140	145	3
17	17	8
30	131	1
110	112	3
17	20	2
56	93	3
0	0	13
3	4	4
58	103	2
122	122	11
143	146	3
153	179	5
3	11	4
29	37	2
135	135	18
28	131	2
72	72	10
55	131	1
81	93	1
2	43	1
102	108	6
59	113	2
161	162	6
19	33	1
55	68	3
16	17	3
57	57	9
122	123	3
112	112	10
155	155	9
114	116	5
102	119	2
128	136	2
120	120	11
8	8	9
12	15	5
77	88	1
153	156	5
56	58	4
21	25	5
59	110	3
13	126	6
159	171	3
168	169	9
162	162	7
144	164	5
14	151	4
80	81	3
14	150	6
170	172	2
120	121	2
154	156	5
82	82	6
7	11	2
39	45	3
27	44	1
103	103	6
57	96	5
77	79	3
97	104	1
43	43	9
149	151	5
169	171	7
95	109	6
40	40	10
11	11	14
71	87	1
80	83	4
135	176	4
94	94	8
91	94	2
83	87	4
32	33	12
2	19	1
13	111	1
64	65	3
124	124	17
121	121	11
139	139	15
155	161	5
132	176	8
128	132	4
22	53	1
103	109	2
14	32	2
56	94	13
90	106	4
36	111	3
74	133	1
60	82	1
25	26	3
104	104	6
143	143	11
19	152	4
172	179	1
12	21	3
11	107	2
20	22	5
142	163	1
174	175	1
39	54	2
103	104	1
22	30	2
50	52	1
57	118	4
168	170	4
51	52	3
85	86	9
43	67	1
23	51	2
86	86	11
3	46	3
3	112	3
36	41	5
170	173	3
21	21	3
99	102	4
98	101	2
13	21	1
76	130	2
83	84	2
136	136	5
153	157	4
157	157	25
45	105	1
71	73	1
140	142	4
75	87	3
46	46	3
49	53	3
113	121	1
165	166	5
97	167	3
134	140	2
0	4	1
147	147	8
11	111	3
81	145	3
139	149	3
29	146	5
115	118	2
71	71	23
18	19	2
55	55	11
68	102	1
124	133	1
3	13	4
24	52	3
174	174	8
160	162	2
106	110	3
156	157	11
77	86	1
3	8	4
4	12	3
136	150	4
77	78	5
155	179	4
82	83	7
43	44	6
31	127	4
10	11	4
148	169	1
122	141	2
6	8	4
3	6	4
93	93	3
133	133	7
108	119	1
177	178	1
37	44	1
14	127	1
13	114	4
21	23	3
75	169	1
180	180	4
28	28	7
159	172	4
102	113	2
26	27	4
5	20	5
53	131	2
148	150	1
28	125	2
39	79	2
138	153	2
177	180	2
153	155	2
148	163	3
40	41	3
11	150	2
114	117	4
84	85	4
89	91	1
15	18	2
16	32	2
9	23	2
55	139	4
86	88	6
131	158	2
5	6	3
154	157	3
50	50	8
9	11	2
65	93	1
13	127	1
66	67	7
26	33	2
44	105	1
163	165	2
146	169	2
37	38	6
162	175	5
148	154	1
114	120	2
57	59	3
28	137	2
108	120	1
6	45	1
12	110	2
81	110	1
15	17	4
142	144	7
23	31	3
155	156	4
70	70	3
44	45	7
158	172	1
85	151	1
80	131	2
122	127	1
107	110	1
62	80	1
55	129	2
13	20	2
59	167	1
1	44	1
86	87	2
148	153	2
38	169	1
124	153	1
158	159	2
64	72	5
74	150	2
100	101	6
3	45	1
58	60	3
117	128	1
33	70	1
56	118	2
10	13	2
8	10	5
58	106	2
150	153	5
140	155	2
134	134	10
18	21	2
26	54	4
68	71	3
130	146	1
123	124	3
164	167	1
1	5	3
65	71	1
134	143	4
102	109	1
138	146	5
157	173	3
72	89	2
64	91	1
122	137	6
124	125	7
130	131	7
174	178	2
26	51	2
164	180	3
124	127	3
163	167	2
62	112	1
4	7	3
153	154	1
81	91	1
75	134	1
35	41	1
54	81	1
169	176	3
36	40	9
129	134	2
89	180	2
121	158	1
83	92	3
99	101	1
58	95	2
82	130	2
55	57	1
40	54	1
124	137	2
55	116	1
106	112	1
143	162	1
175	175	2
134	144	2
140	141	1
43	61	2
31	119	1
21	152	2
25	30	3
66	91	4
144	163	3
19	45	2
31	132	2
93	94	4
147	157	2
88	90	1
6	7	1
18	20	2
114	122	2
101	108	3
3	10	2
19	106	2
49	49	2
117	118	2
23	30	4
133	147	2
68	131	4
99	99	5
107	119	2
96	101	3
61	62	3
152	153	2
129	132	3
150	173	3
91	95	2
15	16	4
6	26	1
16	18	2
60	93	5
133	177	1
0	3	4
57	98	4
96	132	3
5	156	1
28	31	5
118	118	2
106	107	3
22	23	3
85	87	1
143	145	1
34	36	4
37	42	2
60	90	1
77	128	3
9	19	1
24	25	3
1	50	3
52	54	5
135	144	1
157	159	3
137	149	2
15	152	1
169	170	3
149	161	1
54	114	3
7	8	2
78	86	2
93	100	2
42	44	8
140	147	1
148	161	3
55	128	2
16	36	1
56	59	3
143	149	2
30	106	2
146	147	2
128	180	2
136	158	1
146	171	1
51	54	4
149	162	4
79	106	3
89	93	1
15	153	2
140	174	4
23	44	2
82	161	3
23	50	2
39	44	1
132	133	3
41	44	2
59	61	2
160	171	2
159	163	3
20	38	1
136	137	2
98	104	1
37	37	4
108	118	1
61	86	2
79	85	1
28	30	1
61	167	1
0	1	1
143	151	6
139	146	1
25	32	3
98	165	2
139	143	1
56	102	1
41	42	5
146	170	3
1	63	1
71	103	1
138	171	1
40	72	1
142	164	2
93	108	2
142	176	1
2	42	2
147	159	1
17	19	3
116	118	1
121	122	1
9	15	1
72	79	1
35	40	2
165	171	2
169	180	1
145	148	3
13	40	1
2	13	2
95	102	1
62	65	2
99	100	1
109	110	1
33	72	1
94	98	4
22	29	1
112	129	1
147	164	2
79	80	2
79	103	1
105	106	5
158	164	2
77	175	1
86	141	2
122	133	1
130	132	2
122	139	1
59	89	1
81	81	6
73	85	2
167	169	1
140	156	3
71	79	1
73	129	1
25	28	2
164	169	3
22	26	1
20	20	3
16	26	1
24	45	1
117	122	2
101	102	2
118	133	3
17	18	1
146	180	1
100	115	2
61	89	2
125	126	2
17	27	2
78	133	1
124	143	4
14	126	1
126	129	3
107	109	1
120	180	1
90	95	1
26	53	1
8	52	2
115	117	1
100	119	1
73	83	1
57	78	1
76	83	2
129	133	1
165	170	1
160	163	2
15	20	1
55	133	1
15	33	1
57	80	1
147	165	1
2	46	1
93	176	1
75	142	1
155	178	1
39	46	1
18	24	1
28	29	1
73	145	1
7	19	1
55	114	1
33	42	2
71	77	1
84	89	1
54	118	1
148	173	2
115	133	1
88	93	1
81	83	3
29	38	1
18	119	2
109	133	1
16	25	1
72	76	2
149	180	1
11	152	1
138	139	1
166	168	1
5	8	1
122	150	3
14	46	1
114	118	1
18	32	1
146	155	2
58	59	2
60	63	1
134	142	1
18	152	2
4	6	3
30	121	1
97	105	1
2	9	1
83	89	2
160	161	2
60	130	1
42	104	1
136	145	1
14	18	1
86	89	2
76	78	2
36	37	1
103	105	1
13	112	1
40	45	2
61	111	2
14	39	1
28	36	2
140	143	2
15	151	1
4	111	2
56	112	1
76	171	1
60	77	2
45	46	2
129	131	2
21	22	1
121	134	1
57	95	1
92	99	1
31	77	2
38	110	1
61	128	1
138	157	1
134	175	2
20	151	2
27	132	1
74	84	1
127	128	1
32	137	1
17	23	1
146	148	1
8	124	1
30	31	3
16	127	1
58	91	1
11	12	2
30	34	1
154	155	1
52	123	1
31	61	2
83	86	1
13	17	1
8	9	2
6	157	1
141	156	1
64	106	1
78	82	1
77	130	1
173	177	1
18	30	1
153	174	1
25	41	1
75	180	1
127	129	1
121	135	1
88	91	1
134	139	1
132	136	1
37	39	1
173	178	1
14	40	2
101	117	2
166	178	1
1	77	1
121	136	1
3	7	2
68	113	1
128	137	1
126	130	1
10	52	1
60	91	1
120	129	1
90	93	1
139	162	1
76	129	1
64	66	2
18	26	1
74	135	1
135	142	1
26	41	1
57	93	2
70	72	1
29	126	1
56	106	1
17	37	1
73	81	1
142	158	1
144	173	1
5	12	1
70	75	1
