22	22	9
113	114	9
120	120	8
89	91	1
28	28	3
78	78	6
91	92	4
111	130	3
5	5	11
59	59	11
48	48	5
115	116	4
94	94	4
43	43	11
80	80	4
18	18	3
31	32	2
30	30	7
112	112	13
90	90	7
98	98	8
107	107	17
61	61	5
66	66	8
74	74	2
2	2	10
111	111	6
26	29	10
10	14	7
11	12	5
26	28	5
83	84	9
9	10	4
12	12	14
95	95	14
121	121	3
4	4	7
79	80	5
32	32	2
17	17	7
104	105	3
76	76	11
71	71	9
101	104	1
64	64	5
57	57	16
58	59	2
130	130	6
54	54	1
23	28	3
47	47	6
10	33	2
104	104	10
85	86	7
126	126	13
10	11	3
100	100	6
99	99	6
10	10	3
31	31	2
40	41	6
109	109	8
114	114	2
79	79	6
110	110	6
26	26	7
25	25	7
105	105	5
45	47	2
56	56	8
20	21	2
131	131	4
51	51	3
3	3	3
16	16	4
131	132	5
65	65	3
89	89	7
127	127	1
95	96	1
6	6	1
81	81	5
15	15	5
95	105	3
20	20	5
38	39	9
73	73	8
43	56	1
88	89	6
96	102	2
86	86	5
53	53	11
108	108	17
2	3	2
89	90	9
26	27	1
119	119	6
83	85	2
24	27	1
132	133	7
17	34	6
77	98	1
11	11	5
115	115	4
81	83	1
84	84	3
91	91	8
19	19	3
50	50	3
102	103	2
117	117	5
13	15	1
55	56	1
55	55	7
74	75	3
103	103	8
97	97	10
72	73	3
57	58	2
88	88	7
67	69	2
133	133	5
61	74	1
71	72	3
7	8	1
113	113	3
68	71	5
82	82	2
69	72	1
68	68	3
44	44	2
101	101	3
87	87	12
118	118	8
111	120	1
39	40	1
96	96	5
58	58	3
69	71	2
0	0	3
69	128	2
23	23	4
38	38	3
128	128	6
14	15	4
102	104	2
1	2	3
68	70	2
72	75	4
110	111	1
111	112	5
70	72	2
69	76	3
59	61	2
123	123	5
49	49	2
93	93	2
118	119	1
117	118	3
21	23	6
83	83	2
62	73	1
122	122	11
129	129	2
62	64	3
63	70	1
77	101	2
77	127	4
132	132	4
116	116	8
63	73	4
111	126	2
102	102	6
124	124	8
41	55	1
107	109	4
21	21	4
63	63	5
69	70	5
33	33	3
42	42	2
106	106	5
93	94	5
97	102	1
25	29	1
9	9	3
46	51	1
62	72	1
46	46	5
120	121	3
94	95	2
127	129	3
52	52	5
94	105	1
55	88	2
39	39	6
29	29	2
45	45	7
113	120	2
27	27	4
37	37	1
123	124	1
19	25	1
8	8	1
100	102	3
85	85	7
86	87	1
59	62	1
60	60	4
60	61	5
78	93	1
41	42	4
90	91	2
41	41	3
53	54	2
59	60	4
127	128	1
77	102	1
14	14	3
21	25	2
25	27	3
78	90	3
114	116	2
51	53	3
130	131	2
76	85	3
72	72	1
13	13	1
72	80	1
73	85	1
16	32	1
62	74	2
86	88	1
128	129	1
29	30	1
41	57	1
78	79	1
11	13	2
116	117	2
118	120	1
6	7	1
16	33	1
111	127	1
63	65	1
129	130	2
52	54	1
124	125	1
77	78	2
92	92	1
55	58	1
79	91	1
67	68	1
107	108	1
17	33	1
70	70	2
104	106	1
110	114	1
98	100	1
79	92	1
29	31	1
18	19	1
44	45	1
81	82	1
27	33	1
125	125	1
