158	158	7
153	153	7
131	138	2
50	51	2
85	88	1
142	142	7
18	18	5
115	157	3
82	82	2
119	119	7
67	67	4
140	162	3
99	99	10
191	191	7
51	52	1
137	185	5
179	179	3
129	169	1
189	189	3
166	166	7
112	112	11
125	173	1
190	194	1
7	7	7
144	144	5
86	137	4
122	122	4
21	21	6
174	174	1
56	56	7
63	63	10
59	60	1
46	46	5
118	118	5
81	81	10
106	134	6
135	135	4
64	70	1
43	74	3
25	25	5
186	186	3
157	158	1
50	50	6
116	155	1
123	124	3
59	138	1
162	165	5
38	38	10
136	136	12
41	41	7
182	182	13
45	46	3
192	192	9
0	2	3
139	139	7
108	110	2
153	156	1
196	196	6
195	195	7
22	22	8
162	162	2
88	90	2
114	185	3
182	183	1
163	163	2
10	70	2
26	27	1
114	114	9
24	42	1
176	176	2
46	47	2
54	55	2
28	28	8
22	38	2
104	135	5
187	187	2
137	138	5
90	90	4
12	58	2
58	58	7
36	77	2
135	160	1
3	8	3
34	35	5
19	20	5
13	13	5
150	155	2
193	193	7
16	16	2
172	172	1
74	74	10
98	98	3
178	178	5
188	188	3
133	134	5
27	27	3
124	125	2
114	119	3
16	44	4
197	197	4
69	84	2
128	129	2
80	81	3
87	138	5
54	54	2
168	168	7
94	95	1
110	112	1
5	43	4
31	58	3
6	6	3
69	147	4
107	126	2
133	133	4
49	49	4
33	33	3
101	105	4
146	146	8
20	20	3
183	184	4
134	193	3
127	127	9
2	2	3
86	87	9
151	151	6
184	184	12
134	135	3
138	138	7
177	178	3
171	171	5
33	89	2
11	11	3
97	97	9
144	148	4
104	104	5
24	24	13
165	165	16
103	105	2
96	168	4
113	113	3
159	159	9
102	105	1
132	141	5
190	191	5
31	31	6
143	143	5
121	122	2
165	166	5
87	100	3
94	94	4
42	42	5
102	102	2
40	40	8
108	157	2
148	161	2
122	187	2
36	39	3
53	53	5
161	162	2
103	106	3
32	32	4
60	65	2
128	169	3
100	100	1
108	108	2
35	35	1
4	97	3
48	48	3
6	22	1
169	173	1
131	131	10
80	149	4
149	149	9
8	168	2
184	185	5
59	86	7
156	156	4
124	124	2
149	150	2
83	86	1
83	87	1
12	19	4
9	10	2
51	51	5
65	78	4
68	84	1
153	154	2
67	68	8
10	10	4
121	121	10
68	69	3
35	73	2
57	127	2
158	184	2
175	175	5
49	51	2
99	137	5
96	96	9
101	101	10
125	126	7
183	183	14
65	77	1
47	47	7
44	82	1
78	78	2
129	129	6
70	106	2
71	84	2
66	66	4
93	93	5
57	130	3
59	121	1
63	64	3
103	150	2
106	107	2
190	190	5
107	160	1
134	134	2
84	85	3
108	143	2
8	30	2
143	144	5
169	169	12
123	123	3
130	131	4
17	18	4
157	160	5
111	122	1
122	125	1
88	140	4
52	52	2
78	80	3
106	159	4
102	103	2
32	72	3
141	142	2
165	167	4
145	147	2
101	125	1
173	182	1
45	45	6
26	26	1
80	80	2
68	68	5
134	192	2
84	84	4
65	65	4
34	37	1
160	160	4
117	117	3
154	155	3
61	61	6
105	111	1
36	37	4
139	140	3
86	136	4
44	44	2
101	107	1
179	182	1
17	17	10
155	155	5
83	83	9
13	74	5
69	69	6
55	55	7
158	159	1
89	89	4
76	77	8
180	184	1
109	109	3
181	181	1
105	128	2
73	73	1
77	78	3
12	32	3
20	21	5
42	43	1
124	170	1
24	55	4
73	74	2
170	170	7
177	177	5
81	102	2
148	148	3
60	60	7
195	196	4
167	167	3
157	157	3
37	37	4
7	42	2
47	48	3
32	33	6
12	190	1
128	128	7
34	74	2
23	24	2
1	1	3
27	40	1
16	17	2
30	76	3
88	89	2
166	167	4
143	155	1
27	28	1
175	176	1
5	5	1
103	135	4
120	120	6
4	4	1
153	157	4
72	72	4
113	116	2
113	114	3
4	8	2
174	175	1
11	19	2
155	156	1
33	37	1
169	170	1
170	171	1
77	77	6
22	24	1
76	78	2
9	9	2
140	185	5
101	109	3
185	186	5
166	178	2
135	136	1
65	66	1
79	80	2
5	26	3
88	131	1
37	38	3
173	181	2
25	26	3
176	180	1
141	141	2
132	149	4
79	79	1
39	40	4
196	197	1
27	45	1
70	72	1
30	31	1
60	138	2
34	34	5
60	74	2
152	158	2
126	127	2
112	116	2
126	126	1
57	57	3
1	2	1
119	120	2
13	28	2
9	174	1
169	171	1
13	52	1
111	111	3
182	184	1
194	194	5
76	76	1
25	28	1
44	74	3
46	61	1
94	96	1
130	178	2
104	134	2
79	143	2
147	147	5
12	195	1
180	182	2
154	154	2
8	8	4
192	193	1
7	20	1
132	132	6
40	41	2
13	46	1
74	75	1
36	41	1
138	139	2
149	158	2
97	98	1
18	24	2
69	85	1
149	156	2
170	174	3
140	140	1
87	87	3
71	71	3
28	39	1
80	82	1
150	150	4
59	59	2
16	32	1
114	115	1
66	67	3
10	63	1
154	184	1
106	106	1
167	168	4
118	119	2
10	125	1
104	111	2
187	188	3
191	192	5
52	53	1
106	126	1
85	85	7
19	21	1
49	50	1
47	52	1
19	19	1
5	6	2
190	192	1
29	29	1
83	85	1
64	64	5
40	49	1
25	27	1
62	62	1
107	107	2
193	196	1
16	43	1
3	34	1
170	172	1
85	89	1
140	141	2
137	137	1
113	197	1
169	176	1
3	35	1
86	100	1
15	16	1
161	161	1
36	36	1
113	179	1
65	80	1
94	97	1
44	59	1
145	145	1
32	70	2
136	183	1
85	99	1
96	97	1
105	105	2
145	149	1
23	23	1
31	73	1
103	103	1
85	86	3
15	15	1
55	74	1
140	161	1
151	152	1
116	157	3
67	85	1
9	46	1
31	55	1
20	22	1
121	197	1
2	3	1
30	30	1
88	88	1
111	114	1
88	98	2
67	100	1
170	197	1
9	169	1
46	195	1
132	150	1
89	131	1
87	88	1
