99	99	14
8	9	4
220	220	12
9	11	3
212	212	13
119	119	13
237	238	1
140	141	10
232	232	3
63	63	18
150	168	6
71	71	8
155	155	22
178	178	10
165	166	6
194	195	2
219	219	16
222	222	9
51	51	7
138	138	8
84	118	2
9	9	8
164	167	1
38	38	13
113	113	18
121	122	2
103	104	1
44	44	11
81	81	8
1	214	1
82	82	6
182	183	3
242	242	12
0	0	3
237	241	1
85	85	10
16	16	8
32	32	12
73	73	5
69	69	8
45	46	1
203	203	8
111	111	4
113	134	1
146	146	4
28	29	2
215	215	6
236	236	13
59	59	3
152	152	3
45	45	4
182	182	10
47	47	8
207	207	5
75	75	12
27	27	6
188	188	8
231	231	6
195	195	9
18	20	3
52	53	2
80	80	4
4	6	5
141	142	7
69	70	8
58	81	4
158	158	1
115	127	7
183	183	6
72	72	7
65	65	4
122	123	10
30	33	2
30	30	8
193	194	4
213	214	2
37	37	4
26	26	11
33	184	2
229	229	12
153	184	1
137	137	11
120	121	2
239	239	6
110	110	5
157	157	7
140	140	6
191	191	7
35	35	2
53	53	5
85	86	4
202	202	14
172	172	5
135	135	4
85	121	1
186	187	3
70	71	4
121	121	3
156	157	6
49	49	6
100	100	3
68	68	12
139	139	6
25	25	4
184	184	10
66	67	3
77	77	1
47	48	7
27	175	3
157	200	2
198	198	10
230	230	10
104	104	13
187	187	11
40	50	4
109	109	9
56	56	8
187	210	7
14	14	3
105	110	3
165	165	3
104	129	2
216	216	6
64	65	9
52	52	6
175	175	3
174	174	12
83	88	2
67	67	5
141	141	13
128	129	4
161	161	3
159	159	1
50	50	8
234	235	2
120	120	10
154	155	6
76	79	2
55	86	4
190	190	7
223	223	8
180	181	6
43	43	9
70	70	9
83	83	4
217	217	9
81	88	1
133	133	10
54	55	2
192	192	13
41	41	8
33	33	3
192	194	1
183	197	1
63	70	5
101	101	9
57	57	7
85	112	1
134	134	5
197	197	3
189	189	10
63	83	1
200	200	5
240	241	8
174	175	5
1	1	7
204	204	4
185	185	11
156	156	5
109	110	3
142	142	3
175	182	2
57	58	2
144	159	2
162	162	3
217	218	4
29	29	12
46	46	9
143	143	10
208	208	6
11	13	1
187	188	4
148	148	8
10	10	7
20	20	5
238	238	6
199	230	4
170	170	7
237	237	8
14	15	3
144	144	2
221	221	6
203	233	4
28	28	2
213	213	8
86	86	9
233	235	3
136	136	9
18	23	2
198	200	1
107	107	2
169	169	3
139	142	1
0	1	3
116	116	7
12	12	10
164	164	3
122	122	7
10	11	2
8	8	12
154	154	6
7	12	6
224	224	11
179	179	5
39	39	8
205	207	6
104	106	7
148	149	1
149	171	1
6	6	1
204	208	3
96	96	4
68	77	2
19	19	5
15	15	9
108	109	4
239	240	8
199	229	3
51	59	4
151	151	4
117	117	12
218	218	8
42	76	3
168	168	6
115	117	2
23	24	6
38	39	2
241	242	3
11	11	5
195	196	3
41	42	3
164	165	1
150	150	4
201	201	8
124	124	3
156	158	4
78	80	5
158	159	1
152	182	3
138	153	2
227	227	6
129	129	4
61	61	7
126	126	1
211	211	7
236	237	1
64	64	10
183	202	1
2	2	6
137	139	1
193	193	5
194	194	6
73	78	1
18	18	2
7	8	1
207	210	3
192	217	1
149	149	4
147	147	2
160	160	6
145	146	1
4	5	1
123	126	4
119	121	3
192	215	5
7	7	7
209	210	2
48	48	8
173	173	4
196	196	4
145	145	1
189	197	3
234	234	12
115	115	4
43	47	4
1	216	2
71	72	1
155	156	2
129	130	5
233	233	8
76	76	2
122	134	3
166	166	8
136	137	3
104	107	3
167	167	6
124	125	1
137	161	3
176	176	3
145	158	2
65	66	1
62	63	3
157	158	4
127	127	3
84	84	5
17	17	1
64	71	1
153	153	6
55	55	1
134	156	1
186	186	4
102	102	6
116	120	4
180	180	3
32	33	3
185	187	2
125	126	1
215	216	7
118	119	5
113	131	1
220	232	1
67	68	1
120	122	3
20	30	1
131	132	1
134	139	4
2	219	3
219	220	1
148	180	4
202	203	2
105	105	2
199	199	2
53	54	3
200	228	1
88	89	2
222	223	4
205	205	4
125	135	2
206	206	3
12	13	2
19	20	1
197	200	1
98	99	4
201	231	1
4	4	2
7	20	1
8	31	2
105	130	2
21	23	3
13	13	2
206	207	2
79	79	1
209	209	8
171	171	3
60	60	7
132	132	3
0	74	1
89	89	1
75	76	1
174	237	1
201	202	5
147	148	3
113	128	2
58	58	3
203	208	1
224	225	2
21	21	3
72	73	3
138	139	1
113	114	1
72	75	1
191	218	1
102	105	1
182	186	1
15	16	4
188	189	3
197	198	6
176	177	2
23	23	3
196	198	3
101	105	1
181	181	4
136	138	2
3	4	3
74	74	4
206	208	3
210	213	2
48	174	1
241	241	7
15	17	1
166	167	1
106	106	4
8	12	2
189	190	1
22	31	2
27	28	2
40	48	2
105	106	2
131	131	4
185	186	2
190	191	1
210	212	2
40	40	5
34	34	4
189	215	1
22	22	2
118	118	3
184	185	5
216	217	2
2	3	1
188	190	1
88	88	3
223	231	1
10	29	1
164	166	3
59	60	1
167	168	1
211	218	1
228	229	3
233	234	3
149	180	1
170	171	1
25	26	1
150	170	2
211	226	1
97	97	1
77	79	1
137	159	2
88	95	1
36	36	1
139	140	1
138	141	1
127	128	2
75	88	1
54	54	3
159	161	2
210	211	1
226	227	1
53	56	1
140	149	2
235	236	1
151	161	1
14	16	1
161	162	3
114	114	2
81	89	1
24	25	2
31	33	1
49	149	1
5	5	1
107	129	2
173	174	1
119	120	1
0	213	1
73	74	1
30	184	1
142	143	1
28	140	1
62	62	1
128	128	1
230	231	1
95	95	1
56	60	1
109	112	1
46	47	1
108	135	1
140	142	1
227	228	1
103	108	2
228	228	2
104	109	1
3	3	2
133	143	2
210	210	1
200	223	1
54	56	1
123	123	2
108	130	1
31	31	2
19	31	1
14	21	1
20	33	1
214	215	1
180	183	1
64	70	1
60	61	2
122	125	1
159	160	1
103	129	1
49	50	1
207	208	2
103	105	1
10	36	1
