37	37	12
37	59	1
56	56	12
20	21	6
10	10	8
42	58	1
42	59	1
11	11	11
49	49	14
47	47	14
61	62	5
30	30	7
0	0	8
22	23	2
70	73	4
33	33	10
62	62	10
52	52	4
36	38	4
46	46	6
7	7	8
46	56	1
39	39	20
35	35	14
57	57	12
40	40	14
6	7	2
74	74	10
13	13	8
41	56	3
50	50	8
43	43	6
48	49	3
49	51	2
57	61	3
40	54	3
41	41	10
36	36	5
67	67	14
9	23	2
63	63	11
66	66	9
62	63	8
51	51	21
60	60	12
24	60	3
58	61	3
3	3	7
0	3	1
69	69	3
76	76	10
71	71	10
73	73	9
6	6	4
53	53	5
58	58	6
4	48	5
34	35	2
48	48	7
18	19	5
39	48	2
55	57	1
30	32	2
4	4	12
38	62	5
73	74	1
72	72	8
54	54	9
19	25	1
23	23	8
19	22	2
53	54	6
61	61	15
20	22	3
59	59	17
32	59	4
9	12	2
77	77	5
60	74	4
71	72	4
29	29	13
48	51	6
43	44	10
7	8	4
8	10	2
31	31	6
2	2	5
35	38	2
64	73	3
1	2	4
4	10	2
32	51	4
37	61	1
37	49	2
45	45	3
68	68	10
8	30	3
11	12	4
19	30	3
28	28	13
8	8	2
12	12	5
25	28	2
36	50	3
27	27	11
5	8	4
40	41	1
21	33	3
37	38	5
55	55	6
4	5	2
40	62	2
1	1	3
39	47	1
70	70	7
9	9	9
2	3	4
19	27	2
59	60	3
75	76	3
19	19	6
5	5	3
39	51	2
24	26	3
52	54	1
14	24	2
19	57	3
53	56	2
42	42	7
35	37	4
43	45	8
5	6	3
43	46	2
25	60	2
3	9	4
23	25	3
39	40	2
49	50	5
4	8	1
35	46	3
64	64	5
3	8	9
26	27	2
66	67	4
57	68	8
32	49	3
26	28	2
22	22	3
1	10	3
42	45	1
31	32	2
75	75	5
68	76	1
26	26	5
44	44	7
53	62	2
52	53	4
58	59	4
32	60	4
21	25	2
63	64	3
21	21	9
19	58	2
34	34	4
20	26	2
8	9	1
45	57	2
29	30	3
3	50	5
65	65	1
5	12	6
31	57	2
65	66	1
42	57	2
4	9	2
19	20	1
9	10	3
28	29	2
36	56	2
56	60	1
56	65	1
59	61	1
25	25	9
2	12	3
74	75	1
53	68	2
6	11	2
69	73	4
9	56	2
24	73	2
50	51	1
23	24	3
36	37	2
24	24	2
38	55	2
32	32	7
74	77	3
3	49	1
48	50	1
57	58	1
51	52	2
4	49	1
0	1	1
60	63	1
27	28	1
58	60	2
60	61	1
10	57	3
28	74	1
2	5	1
62	66	2
21	55	1
46	47	1
10	56	1
13	44	1
11	13	2
21	43	1
33	34	1
13	48	1
56	71	1
41	54	1
67	74	1
38	49	2
35	36	2
18	18	2
22	25	1
37	39	1
20	20	1
12	13	1
63	67	1
32	34	1
6	8	1
20	54	1
70	71	1
44	46	1
71	74	1
3	4	1
