98	98	16
116	117	4
26	26	11
93	101	1
83	83	4
81	81	2
69	120	1
86	88	5
77	78	5
112	112	6
125	125	6
113	114	4
39	39	10
41	42	7
77	77	10
118	118	7
97	97	5
119	119	10
82	82	4
115	115	2
87	88	3
5	34	6
10	10	3
124	125	2
86	87	1
131	131	1
18	19	1
24	24	4
29	30	3
57	57	7
65	65	6
117	117	6
94	94	5
19	19	7
8	8	3
114	117	1
25	25	10
21	22	7
54	57	2
93	93	1
127	128	2
123	123	5
9	9	6
3	3	10
31	31	4
91	91	2
107	107	14
96	97	3
110	110	6
74	74	3
108	108	5
6	6	7
87	89	6
50	51	2
56	56	7
5	6	2
121	121	2
113	113	12
120	120	5
50	50	6
48	48	6
58	64	1
54	54	3
100	100	4
42	42	6
114	114	5
34	34	4
7	8	1
27	27	4
42	54	2
58	58	2
18	18	2
94	101	1
55	55	6
53	53	4
122	122	3
22	22	5
65	66	3
38	38	3
67	67	6
87	87	3
28	28	6
52	53	4
43	43	4
14	14	6
16	30	2
116	116	5
44	44	3
47	102	5
127	127	2
60	108	4
27	29	2
68	115	1
99	99	7
19	81	1
66	66	1
101	102	5
21	21	4
97	98	2
71	71	3
59	59	3
20	20	6
72	72	3
85	86	5
73	73	4
95	95	4
13	13	8
69	69	1
125	127	2
12	12	4
51	51	4
123	124	1
1	1	6
52	52	5
2	2	8
68	68	1
74	132	2
15	15	2
92	92	6
90	90	3
96	96	1
32	32	3
98	99	2
45	45	2
2	13	1
97	130	1
78	87	1
49	109	4
63	63	3
47	48	1
19	20	3
122	123	2
125	131	2
50	53	2
41	54	3
49	49	1
15	33	1
46	46	3
5	5	4
39	92	1
1	3	3
66	109	1
68	69	1
41	41	2
43	96	2
71	73	3
108	109	3
124	124	2
110	111	2
33	33	4
89	89	2
75	97	1
104	106	1
127	130	5
101	101	3
57	58	3
27	28	1
12	13	1
49	122	2
7	7	2
47	61	2
75	109	1
75	75	2
133	133	2
113	122	1
85	85	2
55	56	3
111	111	4
46	47	2
106	107	1
0	33	1
72	73	1
126	126	1
4	42	1
64	64	2
38	39	3
21	33	1
101	103	3
66	126	1
93	104	1
16	17	1
105	105	1
65	74	1
104	104	4
129	129	1
74	85	1
46	97	1
0	63	1
88	88	2
62	91	2
86	86	1
90	92	2
53	58	1
73	74	1
70	109	1
76	126	2
59	90	1
0	0	1
62	62	1
112	113	1
46	104	1
113	116	1
80	80	1
6	107	1
129	130	1
3	63	1
