140	140	10
128	136	1
169	169	14
56	57	2
109	109	5
125	126	4
6	6	4
88	107	7
81	106	3
147	148	9
69	69	4
90	98	7
136	139	2
41	42	2
127	138	5
137	137	2
106	107	6
46	46	11
90	107	3
33	34	2
22	40	1
130	130	7
76	76	3
87	89	3
71	71	6
86	86	1
157	157	2
141	147	1
133	133	1
123	148	2
128	128	5
39	39	10
114	120	6
12	12	6
62	62	2
98	99	5
82	94	1
88	89	7
82	101	4
45	45	4
37	37	10
6	9	1
16	16	7
79	79	5
27	27	5
106	106	4
0	0	5
145	161	1
66	69	2
94	106	6
34	34	12
108	120	4
81	107	5
93	95	3
57	63	4
64	64	9
154	163	2
1	20	1
138	138	3
45	46	4
134	134	3
99	99	12
162	162	6
38	38	7
160	160	7
156	156	10
9	19	4
95	100	1
14	17	5
135	142	2
80	80	1
147	147	4
2	5	3
116	116	3
15	16	5
112	113	3
39	64	4
66	66	4
50	67	2
143	143	8
74	76	1
162	164	4
119	119	11
44	62	4
141	141	5
53	53	12
49	49	8
132	133	5
85	85	5
108	129	1
5	10	4
144	148	2
118	132	2
65	65	14
42	42	7
43	65	4
21	67	1
43	43	12
155	155	9
93	106	7
2	2	5
134	139	2
112	117	3
64	66	2
54	54	7
54	56	1
118	118	7
150	153	3
93	94	2
38	46	1
124	137	3
137	138	10
94	94	8
84	85	8
21	21	4
39	55	4
138	145	7
127	156	3
163	163	7
17	19	3
73	92	4
1	1	3
108	117	2
72	78	1
99	102	4
7	15	5
149	149	8
15	24	3
91	91	9
54	67	3
71	80	4
70	158	1
112	118	5
138	153	2
57	72	3
14	14	13
56	89	3
136	136	4
0	9	2
70	73	5
104	105	3
65	71	4
14	18	4
63	72	2
123	123	5
112	112	12
9	14	4
19	19	2
68	74	2
145	165	3
145	170	3
77	77	8
102	102	9
147	153	5
53	67	5
57	73	1
141	146	4
117	131	2
110	110	2
44	51	11
88	88	9
101	102	1
82	83	2
73	73	1
94	104	1
38	39	4
57	81	5
96	96	5
35	35	8
132	132	14
22	49	2
87	87	3
150	169	1
66	151	1
167	168	2
36	36	1
166	166	2
8	12	3
120	120	8
127	127	3
136	160	2
48	48	7
129	130	2
22	25	1
78	78	9
70	70	10
97	98	3
33	43	1
148	155	3
90	90	2
3	3	2
112	119	2
134	135	2
92	92	5
111	118	4
6	11	1
136	170	2
34	51	2
110	118	3
6	14	4
161	161	1
56	84	2
84	94	1
36	45	3
158	158	4
137	145	3
134	168	1
123	125	1
95	97	5
36	58	2
105	105	11
72	74	1
78	86	2
72	77	1
111	115	2
150	150	8
100	128	4
83	83	5
9	9	8
66	67	7
133	155	1
89	99	1
141	145	2
104	104	6
14	15	9
23	27	3
111	120	2
170	170	9
143	152	2
142	148	3
34	81	2
169	170	3
18	18	4
20	20	5
12	17	1
41	41	19
10	25	2
95	95	5
13	13	5
51	52	13
133	154	1
111	111	8
138	139	9
113	113	7
139	141	4
63	87	1
145	145	7
5	5	11
65	135	3
86	97	5
23	23	8
168	169	6
2	3	6
128	139	1
24	25	2
24	24	4
7	7	6
93	120	2
5	11	2
55	55	3
107	117	3
47	47	9
68	69	2
114	125	2
57	68	1
86	87	5
110	111	2
24	42	4
154	154	3
154	162	3
142	153	2
39	78	3
4	14	3
114	122	1
126	139	2
126	127	2
1	3	5
165	165	1
67	149	1
50	50	3
164	164	5
167	167	3
8	8	4
26	26	10
62	81	2
138	163	2
92	107	2
45	47	2
5	16	1
142	142	9
13	15	1
38	56	2
91	107	2
164	166	2
47	52	2
88	122	1
151	152	4
131	131	10
2	8	2
100	100	2
8	9	1
40	40	6
63	63	10
46	74	4
159	159	6
94	109	3
70	82	2
151	158	2
36	113	4
3	27	1
95	99	2
106	116	1
17	17	5
127	141	4
89	89	7
105	106	2
135	135	4
133	134	1
83	84	1
132	142	1
38	151	4
112	114	1
44	47	1
52	64	1
107	108	1
44	48	5
63	83	2
153	153	10
54	62	1
115	122	2
83	98	3
136	153	2
8	23	2
114	116	4
144	144	7
17	33	1
65	66	3
133	137	3
92	93	1
102	103	2
139	153	4
11	11	4
75	75	10
101	101	2
94	146	4
110	112	1
51	51	8
140	159	1
50	51	2
20	36	2
126	126	4
4	15	1
49	52	1
124	128	2
18	19	3
108	109	2
112	120	3
115	115	1
55	57	4
100	103	1
151	151	2
101	120	1
104	111	1
68	68	3
62	73	3
117	117	6
140	162	1
42	43	2
49	63	3
13	20	2
107	118	2
70	71	2
135	139	1
13	14	5
129	129	3
72	72	4
168	168	2
22	22	5
98	98	1
9	13	3
84	88	4
95	98	2
117	120	3
151	159	1
127	131	4
4	6	1
82	99	3
100	101	4
62	99	1
90	128	1
20	23	2
58	75	3
23	37	2
160	161	1
121	121	2
44	44	4
150	151	1
22	23	4
71	76	1
141	154	1
77	96	1
144	165	1
138	152	1
46	48	2
87	93	4
93	98	2
91	92	1
4	11	1
140	142	1
125	137	2
99	100	3
154	167	3
69	71	4
63	64	1
142	144	3
144	166	2
19	22	2
64	69	3
136	152	2
64	78	1
27	41	2
157	158	1
146	146	9
4	18	2
130	131	6
36	50	1
146	154	4
83	92	1
162	163	4
125	136	2
24	47	1
66	68	3
128	135	1
44	65	1
103	103	3
93	93	4
20	28	3
146	147	2
7	14	1
10	10	4
100	105	1
106	129	1
54	57	2
155	163	4
129	157	1
14	23	2
134	151	1
118	119	3
124	131	3
117	128	2
102	114	1
97	97	5
61	62	1
64	67	1
67	80	1
132	149	2
27	45	1
158	162	1
7	19	3
13	16	2
57	80	1
4	4	2
141	142	1
106	131	1
71	72	2
117	119	2
107	107	3
165	168	1
65	78	1
21	79	2
105	115	1
145	153	1
144	145	1
139	163	2
137	146	1
130	150	1
73	75	1
108	116	1
104	118	1
56	56	2
6	7	3
47	135	1
57	57	2
0	6	1
74	75	1
9	20	1
121	123	1
8	14	1
153	154	2
80	82	1
127	153	1
7	11	1
152	152	1
82	82	2
109	113	1
49	50	2
107	131	2
33	49	2
45	51	1
20	40	1
135	136	3
42	46	1
139	139	4
8	25	3
91	99	1
123	129	1
3	4	2
97	101	1
130	132	1
157	159	1
72	90	1
13	17	2
67	67	1
48	74	1
124	144	1
39	40	1
23	40	3
124	124	1
77	82	1
89	109	1
136	140	1
87	95	2
63	78	1
48	53	1
52	54	2
58	81	1
161	167	1
21	25	1
66	76	1
109	128	1
145	147	1
3	169	1
152	153	2
115	132	2
37	52	2
102	113	1
39	49	1
19	169	1
77	90	1
69	90	1
96	108	1
88	90	1
117	118	1
88	109	1
85	86	1
156	158	1
110	120	1
150	167	1
125	125	1
