172	172	12
133	134	2
5	5	5
150	150	17
130	130	6
153	153	4
168	168	2
142	142	4
67	67	10
159	160	2
76	77	5
120	120	7
0	29	6
170	170	12
56	82	2
2	2	7
177	177	6
121	122	2
123	123	20
110	110	3
59	59	6
56	56	4
61	135	2
138	138	15
111	111	6
148	149	6
169	169	2
13	13	5
122	173	1
24	25	6
77	77	18
61	62	4
92	109	3
137	137	8
139	139	7
28	29	3
140	140	11
45	45	3
31	32	10
151	151	5
84	170	2
135	135	5
80	80	5
173	173	8
173	174	3
163	163	20
162	162	5
131	131	2
76	76	4
127	128	3
33	34	1
122	153	5
58	58	3
109	109	5
82	83	2
129	129	6
38	39	5
125	125	6
43	43	1
10	13	3
71	114	2
122	122	4
84	85	1
74	107	1
30	30	8
20	22	1
54	54	7
3	3	10
56	111	4
176	176	8
98	98	2
52	52	3
96	96	10
179	179	2
138	139	1
160	160	2
134	134	7
116	116	12
65	65	10
62	156	3
156	156	8
61	61	1
74	75	3
25	25	4
87	88	2
95	96	3
92	92	3
79	79	6
141	142	2
118	119	4
29	31	4
140	141	5
14	14	14
158	158	9
32	33	1
128	129	4
23	23	5
165	165	7
24	26	5
106	106	1
81	81	4
19	21	3
143	144	3
96	108	1
118	118	3
128	128	2
83	83	3
30	31	7
103	104	2
29	29	3
8	19	1
167	168	2
38	38	2
37	37	2
51	51	6
133	133	15
107	107	2
83	84	3
87	87	7
103	103	4
7	7	9
178	178	6
153	157	4
75	126	2
112	112	12
109	111	3
102	102	4
17	42	2
31	114	1
50	60	2
42	43	2
57	129	3
10	10	9
21	24	2
31	31	2
27	42	1
26	26	2
78	78	8
8	9	1
152	153	2
3	121	1
40	40	11
71	71	19
127	127	1
75	75	3
117	118	2
146	146	4
18	18	3
39	39	8
71	139	2
127	130	1
147	161	1
121	121	4
63	161	3
142	146	1
17	18	3
88	90	3
175	175	1
55	102	2
124	124	8
131	178	3
73	75	1
73	74	6
145	145	4
150	171	1
35	35	7
75	76	6
62	62	4
88	88	11
91	92	4
157	157	5
99	114	3
41	41	6
52	127	3
152	170	4
52	56	3
119	119	2
78	79	3
124	125	5
0	0	3
110	121	2
60	60	6
53	53	3
11	13	3
137	139	1
115	115	7
144	144	2
108	108	6
105	105	7
7	26	2
114	115	2
52	54	1
63	157	2
33	33	2
180	180	4
68	68	4
90	90	3
106	127	4
1	1	1
166	166	7
171	171	7
132	133	2
148	148	6
110	111	2
143	143	2
80	81	2
159	173	3
38	42	2
86	86	2
15	15	3
83	170	1
15	36	2
168	169	2
66	148	2
24	24	4
67	73	3
53	74	3
107	108	2
159	174	1
159	159	5
170	171	5
66	66	3
96	97	1
157	159	2
173	175	1
165	166	7
150	159	2
13	15	1
167	167	4
126	126	4
115	116	5
139	140	3
20	21	3
119	120	2
73	73	2
64	148	1
175	176	5
2	4	4
15	16	1
50	50	6
81	86	2
55	101	2
110	113	2
11	43	1
61	64	2
83	169	3
54	126	1
111	112	1
101	102	3
137	159	1
123	124	1
74	74	1
117	117	1
82	168	2
142	143	2
6	109	1
55	111	1
131	150	2
99	115	1
8	8	4
122	123	1
113	113	3
32	32	3
142	178	1
147	147	5
137	138	2
112	113	5
12	43	1
61	134	1
141	180	3
102	107	1
36	41	1
19	20	1
107	132	1
101	108	4
50	52	3
36	36	3
89	89	3
149	156	2
97	98	1
155	156	2
34	34	5
149	167	1
9	13	2
132	134	3
146	174	1
6	9	1
65	67	1
145	146	1
52	134	1
65	66	1
58	83	2
81	170	3
136	138	1
161	162	2
141	141	3
100	101	1
131	132	1
149	149	3
23	24	1
151	158	3
151	169	1
90	98	2
163	164	3
65	138	1
122	172	1
50	64	2
16	30	2
44	44	2
154	156	1
88	89	1
99	100	2
42	42	4
92	110	2
156	157	2
157	161	1
82	82	2
53	54	2
154	154	6
29	115	1
9	9	1
59	60	1
88	98	2
72	72	2
162	163	2
76	132	2
60	125	2
19	19	1
32	34	1
25	26	2
115	123	1
134	140	2
18	43	1
78	123	2
155	155	2
7	9	1
103	108	1
11	12	1
147	148	2
155	158	1
178	179	2
5	111	1
66	68	2
105	106	1
3	27	1
9	102	1
57	57	1
114	114	4
54	55	1
59	90	1
158	159	1
24	50	2
92	93	1
101	110	1
151	153	1
4	41	2
5	27	1
31	43	2
172	173	5
59	89	1
80	82	2
151	152	1
95	95	2
179	180	1
2	3	3
55	134	1
120	152	1
157	160	1
77	78	1
92	104	2
166	170	1
25	29	1
38	41	1
171	174	1
55	55	3
6	7	1
40	41	1
12	15	1
174	174	1
161	161	2
49	52	1
80	125	1
0	108	1
76	78	1
172	174	1
119	121	2
154	155	1
103	128	1
164	164	1
56	57	1
176	178	1
8	10	1
71	72	1
94	94	1
97	97	1
3	4	1
104	105	1
12	12	1
122	124	1
52	53	1
