178	195	1
63	65	1
66	66	1
166	166	6
162	163	2
56	71	5
178	178	12
171	171	9
23	23	6
20	20	11
135	135	9
89	89	10
146	146	5
81	81	2
37	38	3
145	148	4
22	23	4
68	68	7
139	140	5
140	140	6
139	157	2
16	17	3
27	27	10
26	26	6
178	185	1
62	62	8
16	16	19
111	163	1
182	183	9
35	35	7
195	195	15
119	153	2
18	18	6
126	126	13
141	141	9
40	85	2
128	128	13
60	60	3
29	30	3
109	109	7
111	111	10
114	116	3
76	83	2
101	101	4
99	99	12
70	70	14
74	74	6
46	46	10
32	42	3
116	116	14
186	186	15
99	100	2
179	179	10
151	152	4
19	19	4
23	24	1
173	173	10
182	182	26
31	31	10
78	79	5
79	79	5
86	86	6
38	58	3
120	120	6
13	13	19
31	71	3
57	66	1
124	124	16
13	14	7
36	36	10
124	140	1
47	47	15
6	36	2
185	185	10
100	100	8
57	57	9
140	187	1
57	140	1
113	113	10
168	189	7
67	67	4
139	139	12
167	167	9
178	182	2
53	53	16
166	168	1
125	125	5
172	173	5
123	123	14
72	72	6
75	76	3
38	38	15
45	58	1
44	44	10
2	2	7
30	30	10
102	102	8
159	159	9
35	145	2
7	7	6
95	98	1
73	127	1
108	108	5
191	192	2
195	196	6
34	36	5
173	190	4
0	0	9
186	187	3
54	54	8
66	67	6
41	41	8
158	158	3
44	45	7
17	133	2
32	32	7
169	169	7
131	132	5
34	72	1
118	118	10
145	153	4
97	97	7
27	35	5
157	158	7
67	105	3
77	77	2
6	6	6
155	155	10
37	37	6
50	50	8
17	17	12
11	11	8
183	183	12
22	25	1
150	150	5
33	33	10
43	43	8
108	166	1
101	144	3
62	63	7
157	169	1
93	97	10
38	40	2
122	141	1
174	176	4
149	149	9
196	196	3
127	127	5
40	102	2
155	159	1
88	88	5
175	175	21
14	14	4
146	148	4
33	85	6
47	48	5
185	186	5
114	114	18
152	152	6
174	175	2
62	64	2
4	33	2
110	111	6
143	144	8
191	191	5
71	71	12
69	77	1
49	49	12
22	134	2
24	133	1
56	56	8
176	176	6
174	174	4
89	90	4
126	127	2
165	165	5
183	184	5
40	40	8
192	194	3
117	117	1
119	119	8
165	166	1
146	147	2
17	18	4
52	114	2
3	4	3
193	193	12
183	186	2
39	105	1
58	58	4
39	40	1
25	67	3
8	8	6
155	169	1
15	59	2
52	52	4
12	13	4
36	37	1
116	117	3
96	96	3
129	129	6
48	48	9
30	32	1
64	65	6
1	1	11
180	180	5
74	75	2
115	116	1
98	99	2
109	110	6
135	136	3
170	170	9
110	110	7
158	169	2
84	84	5
34	34	7
74	83	1
10	10	17
73	73	3
104	104	6
41	42	4
9	9	15
188	188	3
78	78	19
194	195	3
132	132	11
114	115	5
24	24	7
15	15	6
69	69	7
192	192	8
161	163	3
176	178	3
101	176	1
163	163	1
45	45	7
103	103	1
193	194	2
145	145	5
16	165	1
61	61	12
6	99	2
59	60	4
63	63	5
15	36	2
133	134	3
39	39	9
82	82	4
65	66	3
96	97	2
80	80	1
25	25	7
151	151	6
12	76	4
122	142	2
31	32	4
130	130	6
16	72	1
172	172	6
102	103	1
143	151	2
142	144	5
159	160	5
51	51	12
111	161	2
15	56	2
129	133	1
82	83	6
178	183	2
177	177	6
26	28	2
158	159	2
160	160	3
64	64	6
16	101	2
143	143	10
154	170	3
16	35	1
29	29	6
106	132	2
53	54	2
7	180	1
28	68	3
22	22	4
28	28	4
55	55	9
4	4	3
102	105	6
38	126	1
147	150	2
129	141	1
3	20	2
94	98	1
5	5	3
43	46	2
51	52	1
21	86	2
194	194	8
119	120	1
37	46	4
115	115	13
87	146	2
81	82	2
134	144	1
29	31	1
180	182	1
125	129	3
131	131	6
190	190	2
118	119	1
161	161	8
142	142	5
8	88	2
155	156	3
67	68	7
9	18	4
42	42	7
153	155	1
0	20	4
163	164	3
20	89	1
12	12	8
196	197	4
30	31	1
94	97	1
34	35	1
170	171	3
96	135	3
84	85	3
168	168	5
123	124	1
8	9	2
26	68	2
162	162	3
130	134	2
179	182	2
2	31	3
165	167	3
87	87	4
97	138	2
80	83	1
164	164	12
54	79	1
24	29	2
186	192	5
145	149	2
154	155	2
100	101	2
85	85	4
54	90	1
176	177	3
55	56	3
130	131	1
0	3	1
46	52	1
61	75	1
65	65	3
18	141	2
21	21	2
43	50	2
70	71	3
112	112	3
60	62	1
144	144	6
38	39	1
187	187	14
12	60	1
120	121	2
62	69	1
70	72	7
140	167	3
140	180	1
105	105	5
125	126	2
159	185	4
34	84	1
107	169	2
101	120	1
24	25	1
104	105	1
185	194	1
122	122	5
142	168	2
136	185	1
192	193	1
180	181	3
137	147	1
125	142	1
28	53	4
59	59	3
114	173	4
137	137	6
61	116	2
3	3	5
117	152	1
106	150	1
25	31	1
77	121	1
57	58	2
6	7	3
181	182	1
86	144	2
11	38	1
40	41	3
105	107	2
104	108	1
147	147	2
41	123	1
106	107	7
134	134	1
94	94	3
38	89	2
130	138	2
138	139	3
5	7	3
119	130	1
132	179	1
101	104	1
11	15	6
23	54	3
63	124	1
153	153	2
50	74	2
117	118	1
151	155	1
153	160	1
111	115	1
137	140	2
29	35	2
51	53	2
21	68	1
197	197	2
141	142	3
76	77	2
175	176	2
136	146	1
154	154	6
7	8	2
43	44	3
122	123	4
133	133	3
95	95	1
94	95	2
79	114	2
190	192	1
42	73	1
189	189	3
153	188	1
50	51	1
4	35	1
106	110	3
121	121	5
136	136	5
4	88	1
54	169	1
86	87	3
171	172	3
100	110	1
9	73	1
156	168	2
2	22	1
3	12	1
51	115	1
160	162	1
101	172	1
157	157	5
64	141	1
112	113	1
116	118	1
157	159	1
184	184	2
163	188	1
36	74	2
166	167	2
43	72	3
160	161	2
184	185	2
4	6	1
156	156	3
20	22	1
35	36	1
73	74	2
50	58	1
98	98	2
128	184	1
30	86	1
37	78	1
179	180	2
71	76	1
150	170	2
107	108	3
30	82	1
63	102	3
190	191	1
13	127	1
12	46	1
79	81	1
161	162	3
112	156	1
71	110	1
67	82	2
119	142	3
108	109	2
29	66	1
169	170	2
149	151	1
61	68	2
44	72	1
94	101	3
11	12	3
136	179	2
27	30	2
137	138	1
173	191	1
28	29	1
28	33	2
170	172	1
62	66	1
68	87	1
157	162	2
155	167	1
181	181	1
136	138	1
12	38	1
25	27	1
5	8	1
59	67	1
133	136	2
46	56	1
12	55	1
18	147	1
132	133	1
56	57	1
58	60	1
138	138	1
60	61	1
64	143	1
32	37	2
72	73	1
53	122	2
143	153	1
45	46	2
55	113	1
35	72	1
78	80	2
148	148	1
59	196	1
6	8	1
65	160	1
98	116	1
9	17	1
146	150	1
5	6	1
60	84	1
4	37	1
14	15	1
46	57	1
52	53	1
57	59	1
76	103	1
30	34	1
178	179	1
128	129	2
46	51	1
77	114	1
31	86	1
134	135	1
131	149	1
90	90	2
168	169	1
130	133	1
1	77	1
4	5	1
24	30	1
11	74	1
33	95	1
106	106	2
37	141	1
7	10	1
27	32	2
95	100	1
50	61	1
124	125	1
85	134	1
87	88	1
14	45	1
25	26	1
107	149	1
109	111	1
30	194	1
129	183	1
