140	140	7
74	74	7
82	82	1
120	121	3
122	122	3
82	83	1
70	70	3
52	52	5
81	81	7
59	61	2
101	102	4
94	94	3
40	89	1
101	101	4
9	28	1
24	26	2
19	19	2
30	31	5
17	17	2
37	38	3
103	103	2
2	31	1
58	72	6
62	62	1
102	103	2
110	110	10
122	132	1
9	9	1
115	115	2
42	103	2
22	70	2
88	88	5
113	113	2
14	53	1
61	62	9
78	78	1
77	78	3
33	33	1
54	54	8
125	127	2
120	120	3
114	114	1
62	64	1
53	60	1
120	124	1
131	131	2
86	134	1
114	125	1
24	24	8
66	66	1
58	71	3
101	143	3
21	23	1
14	18	3
14	36	1
76	77	2
107	107	2
111	112	2
57	68	2
111	121	1
37	37	1
49	53	1
118	118	1
54	89	1
8	34	2
85	89	4
109	109	3
131	144	1
126	131	2
92	116	1
20	28	1
30	30	4
22	46	2
95	127	5
4	36	1
16	18	2
126	140	2
55	55	2
123	123	3
2	2	1
47	50	4
61	73	2
76	79	4
60	60	5
62	74	3
96	142	4
72	72	1
104	104	3
98	98	4
73	76	2
101	145	1
89	117	2
75	75	5
80	81	2
8	8	3
136	137	1
22	37	1
134	135	1
76	78	1
63	63	3
62	63	1
65	65	2
106	106	2
40	40	4
5	5	1
92	94	1
89	89	2
105	105	3
2	41	1
117	121	1
57	81	2
108	108	3
117	118	1
52	53	2
101	140	2
133	141	2
27	28	1
102	102	3
15	15	2
48	48	4
56	56	3
127	127	1
83	83	2
26	28	2
143	144	1
77	77	1
11	28	1
73	73	1
120	128	1
28	28	2
54	56	1
20	20	2
93	94	1
55	56	4
56	59	1
63	64	3
97	143	3
65	72	1
86	137	1
71	71	1
121	121	1
68	68	3
123	126	2
67	68	3
68	69	2
108	143	2
124	124	5
110	112	4
101	104	1
23	24	2
22	22	2
116	116	2
86	89	2
3	12	1
18	18	1
133	133	2
5	15	2
15	19	1
0	14	1
27	27	1
97	97	1
139	139	1
133	134	1
88	92	4
124	125	3
104	107	2
12	24	1
141	145	1
29	29	1
92	92	1
129	129	1
126	126	3
99	99	2
3	3	1
90	90	1
79	91	1
25	26	1
32	39	1
87	87	3
64	64	1
92	117	2
36	36	1
65	142	1
100	126	2
3	4	2
92	93	2
119	119	2
96	96	2
89	90	2
23	23	1
17	18	2
138	139	1
48	50	1
138	138	1
96	143	1
98	103	1
69	69	1
11	11	1
116	124	1
79	79	1
97	98	1
36	37	1
91	91	2
76	76	2
38	38	1
128	141	1
101	103	1
34	35	2
86	86	1
97	109	1
14	14	1
61	61	1
26	26	1
16	16	1
2	10	1
60	73	2
137	138	1
39	39	1
6	6	1
61	76	1
16	35	1
136	136	1
5	10	1
73	89	1
4	4	1
38	42	1
20	21	1
95	131	1
