134	135	6
12	12	3
36	36	15
85	85	1
78	78	5
112	133	6
135	136	2
100	127	3
67	67	10
118	118	18
2	55	1
112	134	2
104	104	6
1	1	7
153	153	14
28	28	5
92	93	5
0	0	9
25	25	7
134	134	6
112	112	6
43	44	2
119	131	4
157	160	5
132	132	2
44	47	4
88	89	6
25	26	4
77	77	8
86	86	11
162	163	3
147	148	4
163	163	4
4	5	3
15	15	8
19	24	2
68	68	10
20	53	5
124	124	3
69	92	1
17	17	17
99	99	19
109	127	2
125	145	2
69	70	3
101	102	1
128	128	15
97	97	13
144	144	12
37	39	4
16	16	7
81	93	1
154	156	3
105	106	5
69	69	5
162	162	8
87	90	4
142	142	8
83	84	8
0	1	12
11	38	4
45	45	8
23	23	3
43	76	5
71	73	4
139	140	4
55	62	1
62	62	10
113	114	3
38	38	7
35	38	8
158	160	4
163	164	4
149	164	1
64	64	7
71	71	12
111	111	6
137	137	7
150	150	15
53	53	3
67	84	1
105	105	12
130	130	7
113	113	7
17	76	1
94	94	7
117	117	2
164	164	8
4	4	3
48	48	7
2	2	2
12	14	1
168	168	9
156	156	9
140	140	12
74	76	4
23	24	8
109	109	5
33	34	2
128	131	1
20	119	4
136	137	3
47	52	2
82	84	2
119	119	3
14	39	3
110	111	5
123	152	2
18	62	3
48	49	2
9	49	1
35	35	10
47	47	4
124	125	9
88	88	1
5	7	2
18	19	10
17	19	1
95	96	1
143	143	6
96	96	5
85	86	2
89	89	10
43	43	3
90	90	6
147	161	3
122	123	2
155	155	2
26	26	4
123	123	11
76	76	4
41	41	11
109	110	11
102	127	2
106	106	13
34	34	7
27	95	2
148	164	3
166	168	3
102	102	9
6	6	17
155	163	1
46	49	1
133	134	6
42	42	12
13	24	2
149	150	1
27	27	12
66	67	2
54	65	5
76	78	2
136	136	3
80	80	2
70	130	2
9	40	3
8	13	4
146	146	10
98	99	2
49	49	7
74	75	4
84	109	5
128	130	4
38	39	2
33	33	4
140	141	4
160	161	1
57	57	8
81	81	8
162	165	1
131	131	6
68	69	1
75	75	7
161	162	4
115	117	3
65	65	7
122	127	2
65	67	5
121	121	10
77	86	4
101	101	6
20	22	1
113	121	1
39	39	4
37	37	4
91	91	7
76	88	4
7	7	2
10	10	6
145	157	1
37	38	3
120	126	2
127	138	2
141	141	3
159	159	11
139	139	6
138	139	2
114	114	4
78	79	7
96	97	2
155	156	2
153	155	2
71	132	3
38	41	1
9	9	5
40	40	7
28	56	3
51	51	3
89	91	1
149	152	6
14	38	2
84	84	1
100	100	8
19	90	2
52	52	5
129	130	3
56	56	2
124	161	2
164	165	3
79	79	6
151	151	3
123	125	1
19	19	3
159	160	2
86	92	2
113	117	2
27	99	3
169	170	2
68	72	2
165	165	7
169	169	5
129	129	7
134	136	2
90	91	2
87	87	5
0	112	5
13	14	5
100	105	5
152	164	4
9	15	1
116	150	3
7	13	3
82	83	2
170	170	4
72	85	4
143	144	3
145	145	2
57	90	5
149	149	8
92	92	5
148	148	9
50	51	2
79	91	5
70	70	4
6	7	5
101	104	1
18	18	4
122	148	3
8	8	3
7	8	6
44	52	1
36	37	1
105	130	1
66	84	1
77	137	1
78	104	1
64	67	2
93	93	2
117	120	3
90	99	3
147	147	7
17	27	1
3	4	3
67	68	1
7	9	4
116	116	2
34	35	1
92	94	2
122	126	2
157	158	1
89	90	4
39	40	3
97	99	2
125	146	1
101	105	3
87	92	1
108	109	1
20	20	5
43	88	3
125	125	2
118	119	3
19	21	1
76	107	1
123	153	2
15	16	4
146	147	4
26	168	2
112	114	2
119	127	1
22	23	6
130	131	6
161	161	3
35	36	5
152	152	1
20	21	2
119	120	4
166	166	2
70	111	1
156	157	2
97	98	5
114	115	2
95	95	6
153	154	2
141	142	3
117	118	2
73	74	3
123	159	4
46	46	1
44	44	1
14	16	1
66	66	4
62	64	3
112	142	1
134	138	3
68	109	1
4	24	2
158	158	3
87	89	1
53	65	4
40	41	1
49	50	4
111	114	2
72	72	2
54	62	6
42	43	2
21	21	2
147	150	1
154	154	3
18	24	3
0	6	1
126	126	2
100	106	2
86	87	1
112	113	1
157	157	2
22	22	5
113	133	1
125	128	2
106	107	1
73	73	2
87	88	1
11	11	1
16	18	1
103	103	4
53	114	1
47	49	1
110	110	4
82	82	3
78	82	2
160	160	1
145	146	1
126	127	4
77	78	1
147	151	2
108	110	2
150	151	2
11	19	1
89	107	2
146	152	1
75	84	2
99	100	1
122	122	3
5	5	3
138	138	2
35	37	1
121	122	2
12	16	1
65	66	2
44	45	1
120	120	3
18	26	2
128	129	1
66	88	1
112	117	2
141	158	1
24	25	3
149	151	1
76	108	1
93	95	1
154	163	1
17	95	2
161	165	2
55	55	2
55	64	3
72	73	3
145	150	1
111	112	1
112	137	1
3	3	1
113	122	1
96	102	1
123	142	1
67	94	1
96	99	1
156	158	2
75	85	2
124	127	1
78	118	1
94	95	3
134	155	2
83	83	1
54	63	1
124	145	2
24	24	1
90	170	1
74	74	1
77	134	1
36	39	1
3	5	1
57	63	1
115	121	1
27	55	1
101	103	1
78	80	1
79	83	1
121	135	1
127	127	1
135	135	1
71	72	1
67	91	1
