106	107	3
167	167	5
115	115	11
133	166	1
132	165	3
62	73	11
157	157	9
46	46	2
67	67	3
98	99	3
125	126	6
152	153	7
153	154	1
18	18	3
93	93	4
142	142	2
134	134	7
43	90	1
80	80	3
73	73	4
118	119	2
124	124	6
86	87	3
70	70	3
121	165	1
51	51	6
56	57	7
52	52	2
1	1	7
113	113	5
55	55	7
65	65	5
128	129	3
7	7	3
122	126	8
107	107	4
121	121	3
112	150	2
17	17	3
135	135	1
102	102	1
164	164	1
126	126	7
138	138	5
131	131	5
97	98	2
22	22	8
144	144	2
3	3	3
142	148	2
119	119	4
75	75	2
93	94	1
139	140	3
91	94	2
143	143	2
133	133	2
107	108	5
2	36	5
166	166	5
37	37	4
47	47	3
119	164	6
20	20	6
134	166	4
144	145	2
47	52	2
79	80	4
78	85	3
116	162	3
44	57	2
109	169	1
104	105	3
25	25	3
42	56	2
94	95	2
63	63	2
79	79	5
21	21	5
129	162	1
42	125	4
150	150	5
99	99	5
0	3	1
160	160	8
0	0	4
165	165	9
127	127	5
45	51	2
11	11	2
38	38	5
37	41	4
73	86	4
15	39	2
106	106	2
120	120	5
62	62	1
49	49	2
35	35	12
22	23	2
122	130	2
23	23	7
77	77	8
9	12	6
81	83	1
44	46	3
15	16	1
75	85	6
28	28	6
20	24	2
133	134	3
161	161	2
6	70	1
11	12	4
153	155	2
150	154	2
130	162	1
47	48	2
134	135	3
63	68	2
86	86	3
152	155	2
74	75	1
12	12	11
9	9	2
53	53	2
76	76	1
95	132	2
81	81	3
128	128	4
5	5	2
14	14	1
72	72	3
44	44	1
10	11	2
103	103	13
9	70	2
42	42	12
63	73	4
81	84	2
49	50	1
104	104	1
112	113	2
50	50	2
129	129	1
82	82	3
27	28	1
91	93	2
116	117	1
105	105	1
41	43	1
146	147	2
10	10	1
101	101	3
139	139	2
151	151	1
36	36	2
89	124	2
89	89	5
20	28	3
90	90	9
78	78	4
141	142	3
125	130	5
14	19	1
160	161	2
159	161	2
94	94	1
125	125	2
26	26	3
91	91	3
117	121	2
72	99	1
65	70	2
142	166	2
16	16	2
56	56	1
43	43	4
102	104	2
98	98	2
36	100	1
39	39	5
88	93	1
39	45	1
8	8	8
148	148	1
100	100	3
149	149	2
13	13	4
50	51	2
161	163	2
42	87	1
20	21	2
117	149	2
126	127	4
101	102	1
170	170	1
148	149	2
97	99	2
118	118	2
142	143	2
93	123	4
41	90	1
66	66	2
47	49	2
85	85	5
108	108	3
140	140	1
124	125	2
111	111	2
84	84	1
75	87	1
153	153	1
14	45	1
147	147	4
158	161	1
71	71	2
88	90	1
92	165	1
114	114	1
147	148	3
156	156	2
136	137	2
77	129	1
130	131	2
105	106	3
19	20	1
56	74	1
74	74	1
36	41	1
129	131	2
68	68	2
114	115	2
13	14	3
118	149	2
145	145	3
112	118	2
64	64	2
136	139	1
9	65	1
4	4	2
45	50	2
62	81	1
6	6	2
112	112	1
76	108	1
40	57	1
130	167	1
111	168	1
110	110	3
65	68	1
111	169	1
45	45	2
1	3	2
100	102	1
76	127	2
136	136	2
15	40	1
169	170	1
155	155	1
19	19	2
121	131	1
67	68	1
160	166	1
44	45	2
97	97	1
95	102	1
