72	72	16
76	77	3
111	111	16
37	37	15
116	117	5
12	12	4
30	36	1
119	119	8
89	89	5
13	29	3
3	85	3
119	123	1
8	8	1
126	126	2
128	129	2
1	17	2
90	90	2
134	135	6
74	86	2
21	92	2
127	128	2
71	71	7
101	102	3
75	78	2
9	9	9
27	106	2
20	130	5
33	34	2
87	101	1
31	31	2
93	94	3
11	27	9
8	9	6
75	80	1
118	120	6
118	118	5
134	134	18
77	77	2
114	117	4
80	80	2
18	109	3
34	35	3
1	31	3
32	33	7
120	120	3
1	5	3
18	28	2
18	73	3
83	84	3
107	109	2
107	107	19
83	83	4
79	79	5
102	103	10
93	93	1
116	116	8
10	10	3
136	136	5
13	36	3
74	74	5
109	109	8
11	11	4
17	18	8
30	33	5
86	86	1
132	132	3
119	120	4
7	10	1
16	16	9
133	134	4
71	72	14
66	125	8
29	32	3
113	117	6
15	15	10
80	90	4
138	138	8
39	39	2
33	86	6
18	107	2
34	34	17
0	38	2
27	27	6
0	32	1
22	22	4
85	85	9
12	14	1
35	35	13
102	102	4
26	26	5
120	121	2
76	90	1
97	97	6
133	133	5
78	109	2
32	37	1
38	38	6
117	117	7
115	115	3
139	139	12
9	12	6
21	34	2
75	75	3
5	8	2
1	2	4
108	108	2
135	137	1
121	121	4
94	94	3
36	36	4
91	91	8
9	10	2
36	37	4
33	33	4
7	37	1
32	32	5
7	8	1
79	81	1
105	105	4
2	84	3
135	139	1
14	14	3
3	101	2
136	140	1
134	136	2
124	124	2
18	27	5
1	28	1
87	87	5
94	95	1
105	107	3
82	82	9
98	98	1
28	36	1
21	95	2
5	5	7
128	128	4
84	84	3
15	73	1
125	125	3
110	111	4
0	0	3
140	140	3
6	9	3
81	81	5
1	32	3
98	99	2
27	103	1
105	106	4
85	91	1
25	25	3
31	123	6
127	127	10
18	18	4
73	74	3
106	107	1
29	29	3
74	75	9
128	130	4
104	104	4
128	131	2
73	80	2
26	71	1
110	126	2
137	137	1
17	17	2
83	118	2
24	24	3
30	30	5
103	110	4
6	74	1
25	129	1
27	28	4
22	116	2
86	117	4
87	117	4
107	110	2
129	129	2
117	123	3
4	5	1
5	85	2
18	20	3
19	19	2
18	95	1
112	123	4
81	83	2
9	74	4
11	18	2
92	115	3
89	91	3
4	4	4
6	75	3
138	141	2
29	30	3
73	86	2
87	88	3
106	110	3
9	75	2
12	33	3
6	102	1
136	139	4
35	36	1
92	94	1
116	118	2
114	114	2
0	1	5
10	25	3
130	130	10
113	114	1
135	136	4
81	119	2
110	110	5
19	24	2
11	14	2
22	32	1
101	123	1
0	3	3
122	122	6
113	116	2
6	101	2
133	135	1
135	135	4
123	123	3
80	123	1
20	22	2
34	97	2
104	110	1
4	30	4
66	78	1
100	100	4
88	88	2
103	106	2
97	98	2
22	24	1
37	38	1
93	130	1
86	123	1
9	13	1
111	112	3
82	83	3
75	77	1
7	15	2
115	123	1
0	33	1
21	22	1
89	90	1
76	76	1
7	9	1
72	95	1
115	117	1
113	122	1
0	12	2
22	27	2
106	112	2
8	14	1
74	80	2
28	29	2
84	118	1
138	139	5
34	72	1
4	90	2
10	27	1
74	109	1
0	2	1
5	9	1
11	72	1
73	73	3
78	78	1
2	2	1
13	16	1
131	131	1
77	109	1
14	88	1
33	114	1
99	99	1
0	14	2
103	113	1
33	104	1
22	115	2
33	123	1
3	3	1
6	8	1
104	105	2
33	103	1
93	123	1
103	105	1
