44	44	4
214	214	6
145	145	4
103	103	6
23	23	1
106	209	2
64	64	3
211	212	1
183	184	3
220	220	9
137	138	2
149	155	1
218	230	7
74	74	1
149	149	6
210	210	2
45	45	10
139	139	3
214	215	4
199	199	2
146	147	2
19	92	2
232	232	4
171	215	2
22	65	1
78	81	3
85	85	3
242	242	2
26	26	14
162	162	5
15	16	1
173	228	2
226	226	6
72	72	8
158	159	3
104	117	7
34	58	3
111	111	2
47	47	2
39	43	2
139	190	3
161	161	8
144	148	3
53	53	4
17	18	4
70	70	1
2	2	4
102	106	1
163	163	3
18	19	1
20	20	2
100	100	4
160	229	1
208	208	5
219	219	7
83	83	6
17	17	3
124	191	6
173	173	6
172	172	2
145	147	1
158	158	7
220	231	2
167	170	1
25	25	1
68	69	1
170	170	13
133	153	2
142	142	3
102	102	7
211	211	3
141	141	3
157	157	4
42	48	2
68	68	2
169	169	6
218	218	3
179	179	4
150	150	2
7	8	3
1	22	3
159	159	2
222	222	2
160	161	3
75	75	4
233	233	2
52	52	2
241	241	6
31	31	6
142	216	1
128	141	1
236	240	3
105	111	3
113	113	6
39	39	2
166	188	2
101	101	1
120	120	2
34	34	4
236	236	3
137	154	4
40	40	4
30	85	1
105	105	3
109	228	2
118	209	1
181	228	1
31	86	4
28	28	2
17	48	5
153	235	1
171	172	4
181	182	3
166	189	2
193	193	2
198	199	2
1	1	4
60	60	2
227	227	1
237	237	7
129	137	1
138	153	1
180	181	2
201	202	1
125	125	1
152	152	6
121	141	2
119	119	9
42	42	1
206	207	5
117	118	1
179	180	3
122	122	7
120	216	3
24	24	4
36	36	15
138	138	3
33	56	2
106	117	4
108	167	1
54	55	1
184	185	2
188	189	2
238	238	3
102	190	1
113	221	3
46	52	3
6	6	3
218	238	4
48	50	6
200	200	5
101	102	4
116	116	5
69	69	1
131	133	2
122	206	3
180	222	2
7	7	4
4	6	3
8	8	1
34	35	1
80	80	3
189	189	2
207	207	3
40	41	2
126	126	6
196	196	1
171	171	4
166	166	5
197	197	2
13	13	1
168	187	3
181	181	3
226	227	1
10	27	1
177	180	4
215	215	2
116	157	2
22	22	3
131	134	1
174	174	5
84	85	4
67	68	3
221	228	1
120	217	2
160	160	1
4	24	2
167	189	2
15	20	1
108	108	3
55	200	1
15	15	3
152	234	2
86	86	5
175	175	2
223	224	2
50	50	2
1	70	3
38	39	1
19	31	1
135	135	2
144	144	3
113	173	6
81	81	8
12	27	1
59	59	3
146	150	2
19	19	3
107	107	1
201	201	2
212	212	3
239	239	4
56	56	3
132	132	1
0	67	3
29	30	3
240	240	1
213	213	2
116	156	2
2	79	1
184	184	1
219	234	1
5	12	2
174	175	2
77	77	5
80	81	1
126	127	2
153	153	2
146	146	1
32	34	1
38	38	2
203	204	1
56	126	1
3	26	5
177	178	2
177	177	2
102	188	1
12	22	2
113	215	1
168	168	1
3	3	5
12	12	2
182	182	6
222	231	1
58	58	1
79	79	2
137	153	1
219	238	2
224	224	3
194	194	3
115	115	1
118	142	1
150	155	1
82	82	4
114	178	2
192	192	3
37	43	2
49	49	1
223	223	1
191	193	1
0	0	1
105	106	1
165	165	1
21	21	1
156	156	2
205	206	1
60	89	1
29	29	1
99	216	1
10	10	1
32	32	2
63	207	1
163	197	2
156	157	2
195	195	1
26	27	2
54	95	2
97	97	2
13	14	1
143	231	1
206	206	1
121	121	1
234	235	1
27	27	1
73	73	3
204	204	2
224	226	2
183	183	5
58	59	1
221	229	1
37	39	2
78	78	1
64	65	3
120	141	1
159	161	1
185	185	1
4	4	1
14	14	3
16	17	1
46	53	2
33	33	1
43	43	1
32	62	1
143	210	1
106	106	1
154	154	1
235	235	2
219	220	1
206	208	1
100	199	1
178	178	2
136	136	4
227	228	1
22	23	2
33	35	1
151	151	2
96	96	1
114	210	1
103	197	1
162	163	2
215	216	1
66	66	1
97	204	1
217	220	1
59	60	1
63	206	1
76	152	1
128	129	1
57	57	1
51	51	1
