74	74	13
9	9	15
30	30	3
51	52	11
31	41	1
74	76	2
27	40	4
46	46	8
21	21	13
66	66	11
77	77	10
73	73	4
48	53	1
56	56	13
55	72	3
40	40	8
53	53	5
47	47	21
3	3	18
57	67	4
35	35	12
43	44	14
0	0	1
59	59	7
32	32	10
54	68	5
31	31	8
34	34	5
71	73	1
76	77	7
22	22	8
14	14	5
5	10	5
73	74	5
52	52	8
46	47	3
62	62	4
42	42	1
38	38	12
57	57	18
24	24	5
45	45	9
68	68	4
31	33	3
52	54	3
28	29	3
44	44	17
67	67	3
61	61	12
69	69	7
2	2	14
37	48	2
12	12	5
23	23	11
29	55	3
56	73	1
58	58	12
35	36	3
4	9	4
34	48	1
55	67	1
1	1	18
74	75	3
75	75	3
19	19	9
18	18	8
33	43	1
48	48	3
35	45	2
46	55	3
7	12	4
10	10	11
72	74	5
5	7	2
32	66	2
64	64	5
43	43	8
28	28	8
60	60	6
66	67	4
39	43	3
41	42	2
61	64	2
32	43	2
2	3	5
37	38	2
25	25	6
58	64	2
25	27	4
67	70	2
66	73	1
45	54	1
13	13	2
30	40	2
68	69	6
26	26	3
23	68	1
39	40	1
37	37	9
63	63	6
49	51	2
32	34	1
33	67	1
54	54	6
50	50	5
29	33	2
5	6	4
28	53	5
33	34	5
4	4	15
31	51	3
23	56	3
50	51	3
0	2	6
65	67	3
5	13	2
72	76	2
65	66	2
70	71	4
36	36	3
25	45	2
29	30	4
61	65	5
31	42	2
21	22	2
60	61	3
44	68	5
25	26	3
76	76	4
40	43	2
0	12	1
21	73	3
55	55	6
65	65	12
8	9	1
29	29	8
6	14	2
52	53	4
67	73	3
42	45	1
23	24	4
33	33	7
0	1	4
20	72	6
41	41	4
27	27	4
21	24	1
22	73	2
11	11	7
19	20	6
4	7	2
11	13	1
35	37	3
39	39	4
20	56	1
20	21	4
49	49	3
18	19	3
8	8	4
26	27	4
70	74	2
46	48	4
38	39	4
13	56	2
71	71	5
28	32	1
57	64	1
27	29	3
59	60	5
1	2	5
24	56	2
12	13	3
51	71	1
57	63	1
4	5	4
1	3	2
58	59	1
56	72	2
72	73	2
75	76	1
29	42	3
51	51	3
6	11	2
10	55	1
6	7	2
47	55	2
4	18	1
72	72	4
61	62	3
20	20	2
54	67	1
56	57	2
36	37	1
27	28	1
59	66	1
8	11	1
60	62	3
3	4	1
30	71	1
61	63	2
11	12	2
73	75	2
62	64	1
33	36	2
29	54	2
4	8	1
27	42	1
54	55	1
59	62	1
33	40	1
31	50	2
70	70	2
63	64	1
41	45	1
24	25	1
52	66	1
34	39	1
72	75	1
25	65	1
65	71	1
51	66	1
22	24	1
62	65	1
21	67	1
45	46	1
