58	58	17
39	48	6
83	85	7
92	92	21
88	90	4
88	88	13
64	64	16
31	31	24
85	85	17
21	28	2
65	65	17
101	102	4
94	94	26
63	97	1
67	67	9
35	35	6
49	49	15
97	97	13
39	49	5
59	59	23
37	48	2
87	87	16
47	47	11
21	21	23
58	59	5
32	32	18
41	41	11
104	104	27
99	99	12
40	41	4
22	22	13
38	38	9
97	98	9
100	100	11
40	40	14
51	51	14
98	98	22
60	61	13
63	63	22
23	23	20
78	78	8
54	54	15
83	83	15
95	95	12
85	86	5
30	31	2
71	77	8
52	53	4
45	45	15
79	79	20
44	44	7
46	46	16
90	91	5
42	54	2
71	71	17
20	23	3
73	73	19
71	72	5
68	72	1
32	33	1
60	82	2
65	66	9
107	107	3
81	81	19
48	48	10
25	25	4
41	42	2
43	43	13
61	61	16
82	89	5
50	76	3
55	56	9
57	57	13
70	70	18
29	29	16
78	79	4
56	64	4
75	75	7
37	37	10
103	103	22
99	107	3
84	85	5
81	91	1
102	102	18
39	39	6
79	80	3
95	96	13
54	55	8
76	76	16
60	79	2
53	53	14
62	62	22
70	72	1
69	69	23
50	53	1
86	86	6
22	23	5
50	50	9
28	28	11
91	91	8
66	66	22
36	36	8
72	72	11
84	86	2
25	27	6
80	81	1
77	77	12
53	54	4
53	55	2
89	89	15
93	93	10
57	78	1
24	24	9
33	33	13
34	34	13
88	89	3
22	29	1
51	54	1
61	63	1
69	70	3
90	90	15
69	77	3
76	77	3
55	55	17
51	71	5
46	48	1
35	36	2
27	27	13
52	52	4
22	25	4
80	80	21
84	84	12
106	106	9
28	29	5
82	83	8
53	58	3
80	93	3
56	56	10
30	30	6
59	60	1
86	87	3
83	84	3
68	68	13
25	26	2
82	84	4
62	63	8
28	86	3
103	106	1
85	91	4
94	95	1
61	62	4
53	57	1
98	99	7
71	76	1
96	96	11
53	73	4
59	79	4
74	74	10
32	34	3
25	28	3
46	47	4
72	76	3
21	23	1
91	92	3
37	38	4
102	103	3
53	70	3
46	61	3
29	30	5
45	49	1
66	67	3
91	94	5
56	57	4
60	60	8
31	39	3
42	43	5
26	26	8
58	60	2
57	79	2
42	44	2
44	45	3
70	79	4
20	20	3
82	82	8
89	90	1
31	32	5
20	57	3
37	39	1
85	90	4
30	41	1
27	28	1
42	42	5
49	55	2
105	106	2
103	105	1
52	93	1
66	68	4
33	56	2
37	49	1
50	89	1
33	45	1
26	27	3
39	46	1
40	49	4
52	70	2
84	88	1
98	106	3
105	105	1
93	94	6
49	50	2
68	75	1
36	37	2
62	64	2
81	82	3
55	73	1
38	39	1
49	54	1
101	101	1
45	46	3
50	51	2
34	44	2
19	61	2
55	57	2
81	83	2
64	76	2
74	75	3
72	73	1
99	100	1
41	55	2
72	77	1
39	41	1
34	65	1
45	78	1
42	45	1
54	96	1
39	50	1
65	68	2
34	52	1
85	89	1
32	65	1
57	58	1
52	66	1
30	40	1
21	25	1
78	81	1
60	65	1
47	57	1
68	105	1
48	49	2
59	65	1
63	65	1
82	85	1
73	75	1
