30	34	3
119	119	5
35	35	2
29	29	11
124	125	4
54	99	1
79	79	4
49	49	8
50	51	4
122	123	5
96	96	2
135	135	13
133	133	6
154	154	4
116	116	7
115	118	2
106	106	12
47	47	10
43	43	1
80	82	5
108	108	6
16	16	5
36	36	5
40	135	3
101	102	4
68	68	7
152	152	12
120	120	7
56	56	2
149	149	17
6	6	4
128	129	3
69	69	5
41	41	4
118	118	5
131	131	15
53	54	5
139	145	1
24	24	10
65	66	1
107	107	3
48	49	2
146	148	5
74	74	5
18	32	2
99	99	6
53	53	19
136	136	8
76	77	4
25	25	11
84	119	1
98	98	7
78	78	3
115	115	11
75	76	4
18	22	3
47	48	2
12	12	6
9	9	3
46	46	11
105	105	7
44	44	3
111	111	4
130	130	3
67	67	3
116	117	10
132	132	9
122	122	7
97	97	9
97	99	2
117	118	8
143	143	7
64	64	7
109	126	2
128	128	4
23	23	6
124	124	12
15	15	4
33	34	8
73	73	11
72	73	1
42	42	2
134	134	6
13	14	5
149	152	3
32	32	2
129	129	5
50	50	4
84	84	6
17	17	6
147	147	4
53	57	1
106	107	5
71	71	4
34	34	4
127	127	5
55	55	2
17	20	1
92	92	7
115	119	1
85	86	3
73	74	2
48	50	1
114	114	6
83	83	5
26	26	10
140	144	2
141	141	5
95	95	2
106	108	3
7	9	5
98	99	1
137	137	5
145	145	3
65	65	11
52	52	3
138	138	5
63	63	5
101	101	2
8	8	2
8	9	3
27	27	3
95	97	4
144	144	1
20	20	2
41	42	2
85	85	3
100	100	6
2	2	5
40	40	7
150	150	3
64	74	1
123	123	7
54	73	1
102	102	6
42	51	5
34	36	2
66	66	3
149	150	4
48	48	1
144	146	1
5	5	3
81	115	5
80	80	4
109	109	3
62	62	4
143	144	1
54	55	1
18	19	2
28	28	4
92	130	1
46	93	4
126	126	5
82	82	3
31	32	5
11	11	4
29	40	2
50	56	3
54	96	1
142	142	3
140	140	5
61	62	4
51	54	1
110	110	10
27	28	3
131	132	3
125	126	1
17	30	2
73	75	1
78	81	2
71	85	1
40	41	1
77	77	1
10	41	2
86	86	4
3	3	6
113	113	2
15	16	5
21	21	5
96	97	4
76	76	6
75	75	3
19	19	2
93	94	1
54	54	10
43	44	3
90	126	1
121	122	1
18	18	3
112	112	8
104	104	1
30	36	2
19	22	2
144	145	1
132	134	3
153	153	2
51	51	3
38	39	3
120	121	5
88	88	3
99	100	4
107	139	3
20	22	1
57	57	2
14	15	4
13	13	5
112	113	2
51	57	1
70	70	8
108	147	1
14	14	2
4	6	2
146	147	1
29	30	1
53	68	2
142	145	1
103	103	1
151	151	1
147	148	1
114	119	2
131	133	2
72	72	1
92	131	2
64	66	1
46	47	1
109	110	1
80	81	1
57	66	2
31	31	3
63	73	3
71	100	2
125	125	1
117	117	2
111	153	1
84	85	1
104	128	1
127	128	1
45	116	1
94	96	1
4	4	6
45	45	1
124	126	1
8	10	2
46	49	1
114	122	1
150	152	2
56	113	1
74	75	1
26	27	1
49	50	2
7	7	1
66	67	1
35	38	1
49	94	1
11	12	1
87	87	1
49	96	2
52	53	1
22	22	1
16	20	1
80	115	1
48	132	1
104	107	1
145	146	1
85	100	1
