129	129	16
61	61	3
57	57	16
34	94	2
88	88	13
24	24	17
77	77	4
50	50	5
7	7	20
70	70	13
114	114	14
75	75	9
12	12	7
29	132	3
133	133	7
72	72	18
55	56	4
73	73	11
69	69	10
66	66	5
53	82	3
80	98	2
85	86	3
93	93	14
7	33	3
65	65	11
10	10	6
37	37	4
132	133	1
64	64	6
22	22	6
116	116	6
27	27	6
59	59	12
80	82	4
134	134	12
106	106	8
107	117	2
79	106	1
127	129	5
54	101	1
94	94	9
68	68	5
120	121	4
60	134	2
29	29	3
77	130	2
119	119	10
60	60	15
128	128	6
19	23	6
64	104	6
0	99	5
108	114	4
76	76	18
128	130	3
115	115	17
129	130	5
128	132	5
78	133	3
121	121	11
78	78	11
47	47	3
54	55	5
33	33	7
90	90	10
68	102	1
90	106	1
21	21	8
8	26	3
122	122	3
79	80	2
117	117	11
69	70	5
3	3	7
44	44	4
133	134	5
14	14	6
14	15	4
11	30	2
42	42	1
60	116	1
111	111	3
53	100	3
25	30	2
122	123	2
106	131	4
2	2	9
116	118	1
111	112	2
44	45	8
16	17	3
45	46	5
64	106	6
35	76	1
87	87	8
85	85	9
28	28	9
25	25	12
120	120	1
9	10	3
73	134	2
109	109	4
52	53	1
26	26	7
127	127	6
118	124	5
34	34	5
12	72	1
110	110	10
126	126	8
101	101	5
73	96	3
19	19	11
13	13	11
74	74	7
89	90	9
9	30	1
48	48	4
17	23	3
79	128	1
16	16	9
55	55	7
79	79	2
34	89	1
68	69	2
58	58	15
86	86	8
92	92	10
7	8	8
1	35	2
19	20	3
71	71	2
93	115	2
10	23	4
54	54	7
6	102	1
118	119	1
27	28	3
104	104	11
103	104	8
5	5	9
20	21	1
125	125	8
118	118	4
95	95	5
3	86	1
74	75	5
94	95	1
13	34	1
111	119	1
9	11	3
36	36	9
101	102	8
107	107	3
77	82	2
52	52	8
28	29	4
100	106	1
18	18	6
108	110	7
8	8	15
96	106	2
37	84	4
84	85	2
86	87	2
35	35	12
107	108	1
113	113	10
53	53	5
0	18	1
22	23	3
97	105	2
1	1	7
123	124	4
105	105	1
6	6	8
63	63	6
30	30	4
31	132	1
130	132	2
106	107	1
99	99	4
0	0	4
15	15	5
124	124	9
45	69	6
77	78	9
53	54	4
110	119	1
113	120	2
112	122	2
100	100	1
16	97	3
82	85	1
62	89	4
77	131	4
84	84	8
3	35	2
21	23	1
114	118	2
66	68	3
125	126	3
124	125	4
96	117	1
28	59	3
113	121	1
11	11	5
8	25	2
9	9	4
98	101	1
132	134	1
27	86	2
67	68	1
102	103	6
102	102	5
61	102	1
110	112	3
117	121	3
35	36	2
107	120	1
27	127	4
98	98	8
36	37	1
82	84	2
83	93	1
31	31	7
95	97	1
38	86	3
2	35	4
134	135	1
116	117	1
30	33	1
95	98	1
82	82	1
108	108	3
56	130	5
62	62	4
36	97	2
64	65	1
118	123	7
12	15	1
80	84	1
43	43	1
96	96	4
43	66	1
4	4	6
123	123	2
107	125	2
27	32	3
32	32	5
1	36	4
119	120	2
6	7	5
83	107	1
63	106	2
77	106	2
11	12	3
130	131	3
81	82	1
123	125	1
22	35	1
105	114	1
24	25	1
91	91	3
78	82	2
29	30	2
103	103	11
28	30	1
69	108	1
125	127	2
32	88	1
108	109	7
56	56	4
6	15	1
52	98	1
99	106	1
1	99	1
112	112	1
121	122	3
66	67	1
65	109	1
115	120	5
112	116	1
32	94	5
64	107	4
20	20	1
110	111	2
26	96	2
83	84	4
54	56	2
7	26	4
29	32	2
135	135	2
60	61	1
73	94	3
63	111	1
91	127	2
108	113	2
91	93	3
113	129	3
117	120	1
55	57	1
29	33	2
77	83	1
76	134	2
76	77	2
90	100	6
17	17	5
11	96	1
23	23	4
7	11	1
93	99	1
89	89	1
128	129	1
23	24	2
112	121	1
30	106	3
34	75	1
58	112	2
8	23	2
28	88	1
49	66	1
38	91	1
76	81	1
114	115	2
94	97	1
69	111	1
61	74	1
7	25	2
120	128	3
78	79	2
48	85	2
5	6	1
21	24	1
116	121	2
28	133	1
14	34	1
84	93	1
127	128	2
49	49	1
56	112	1
4	25	1
107	111	3
15	18	1
108	111	4
44	48	1
99	125	1
36	101	1
16	35	1
30	60	1
19	93	1
34	35	1
132	132	2
95	96	1
13	14	1
86	126	2
9	22	2
72	73	1
101	106	1
38	38	5
46	129	1
27	125	1
119	121	1
128	134	1
115	122	1
80	80	2
81	84	1
35	93	1
83	92	1
29	60	1
54	130	1
82	87	1
2	16	1
19	83	2
56	129	1
59	113	2
65	66	2
59	106	1
12	13	1
46	49	1
14	16	2
82	86	1
70	105	2
80	127	1
13	92	1
92	93	1
59	126	1
9	35	2
42	130	1
30	133	1
65	67	1
65	108	1
97	97	1
107	124	1
49	108	1
125	131	1
62	63	1
36	84	1
83	99	1
