89	89	10
43	68	4
117	117	9
99	99	22
48	48	5
4	6	1
133	133	6
64	65	5
92	92	8
49	49	6
100	101	3
28	29	8
42	42	3
25	25	6
92	93	7
80	91	3
45	46	3
42	45	1
68	68	7
12	12	8
32	32	5
115	118	2
82	82	9
132	132	8
6	28	2
104	104	8
87	89	7
103	103	4
130	130	5
73	73	6
111	111	18
55	55	4
71	71	11
8	8	4
22	23	4
93	93	3
130	131	1
105	108	5
106	107	2
31	32	5
77	77	7
20	20	4
5	6	7
57	58	3
120	120	9
107	107	3
65	65	7
21	22	3
2	2	9
13	14	3
63	63	5
54	54	11
28	28	5
91	91	9
72	79	4
18	18	20
107	108	3
42	43	10
5	5	6
116	117	6
75	79	2
47	48	4
101	101	6
3	3	2
98	98	7
100	100	7
57	57	9
46	53	2
74	74	4
59	59	12
46	46	3
81	81	11
47	47	5
124	124	8
90	90	9
108	131	3
17	17	2
1	1	7
6	6	12
78	78	5
19	20	3
114	115	3
9	25	1
50	50	4
118	118	3
116	116	7
126	126	9
67	68	4
41	48	2
128	128	4
121	121	17
119	119	6
14	14	2
95	95	10
6	57	2
93	94	2
27	49	2
76	76	3
29	30	4
18	41	5
58	58	9
94	94	6
47	59	4
101	102	1
85	85	3
53	53	9
38	38	5
66	67	3
9	9	3
14	21	1
64	64	7
113	113	3
45	45	3
62	62	7
48	57	3
98	101	3
119	128	5
127	127	5
6	29	2
114	114	9
31	31	3
23	23	3
4	5	4
60	60	4
121	122	1
112	112	3
22	22	7
86	86	3
106	106	11
126	127	4
116	118	1
12	26	2
90	91	3
98	100	1
97	97	4
49	53	4
105	129	2
129	129	4
125	126	2
80	80	2
52	52	6
17	22	1
75	75	5
43	65	1
51	53	8
16	16	9
33	34	2
71	72	6
83	93	5
58	59	4
30	30	1
76	77	3
10	10	5
61	61	2
85	86	2
67	67	4
18	47	2
26	26	3
129	130	3
105	106	2
49	51	3
122	122	4
75	76	5
29	29	6
123	123	1
51	51	1
0	0	4
19	41	3
119	120	3
84	84	2
95	96	4
65	66	1
66	66	2
102	102	5
14	22	2
112	113	1
44	45	2
4	4	2
88	90	3
24	25	3
23	24	3
69	69	10
94	95	1
18	19	2
10	11	3
40	40	1
74	75	1
70	70	2
79	80	1
108	108	2
43	43	2
81	91	4
11	11	2
97	101	1
99	103	2
52	53	2
33	33	2
122	123	1
62	64	2
65	71	1
78	79	1
125	127	1
44	44	1
109	110	2
69	70	1
110	110	1
3	5	4
102	103	2
123	124	1
108	130	1
24	24	3
43	45	1
19	19	1
109	130	1
3	30	4
7	7	1
119	129	1
27	27	2
124	125	1
85	87	1
96	96	1
83	83	2
29	31	1
21	21	1
15	23	1
79	79	1
86	97	1
115	115	2
63	65	1
110	111	1
19	21	1
6	30	1
8	20	2
41	42	2
38	39	1
109	131	1
125	125	1
93	95	1
