128	128	9
94	95	4
16	16	3
146	148	1
78	112	2
46	100	5
103	107	1
76	109	5
154	154	8
40	40	7
38	38	9
128	135	1
72	72	4
7	7	8
49	50	4
53	53	11
118	154	2
47	58	4
95	95	10
32	32	11
131	135	2
29	29	4
8	8	2
93	93	13
122	122	8
39	39	13
126	126	3
92	93	2
121	122	1
50	58	2
14	15	7
130	130	12
126	146	2
13	13	4
128	146	3
21	23	2
149	149	17
27	29	3
18	20	1
103	132	1
11	11	7
106	112	2
3	4	2
35	35	5
79	112	3
141	142	3
152	152	23
71	73	4
119	153	4
80	80	6
24	24	5
21	21	9
72	73	4
142	142	3
119	119	10
14	14	5
42	42	6
73	74	4
113	122	3
9	9	4
114	120	2
9	11	1
67	78	2
68	68	4
83	131	1
27	27	2
44	44	9
26	26	10
53	73	2
148	148	8
64	109	4
6	7	3
101	101	12
78	122	3
91	117	2
42	46	3
7	11	5
17	21	4
99	99	9
15	21	13
30	30	6
85	86	6
15	15	8
22	23	2
34	34	4
104	104	6
94	94	4
78	99	2
77	77	2
63	63	3
83	85	8
135	135	10
33	75	4
63	108	3
105	108	3
80	82	1
62	62	6
81	86	2
111	111	4
130	137	3
64	104	3
123	123	13
109	109	11
20	20	9
17	20	3
12	31	4
5	7	4
153	153	2
75	77	5
82	83	1
120	136	1
79	84	4
105	106	2
127	145	2
50	50	8
137	137	7
70	70	8
93	98	13
136	136	8
120	138	3
132	132	4
28	29	1
38	40	2
55	55	4
85	85	5
88	88	2
150	150	8
37	37	1
45	46	7
64	64	7
138	138	4
143	144	2
100	100	2
4	10	3
64	73	2
72	74	1
18	18	11
108	108	3
12	12	7
113	113	8
53	57	2
124	125	7
17	17	11
3	10	3
31	32	2
96	96	3
115	120	2
15	22	3
75	75	2
28	28	2
37	41	4
48	48	6
81	81	6
135	144	2
79	85	3
62	64	2
99	104	10
86	100	3
39	42	5
16	17	5
47	47	10
12	13	2
65	66	2
40	46	5
23	42	2
69	69	2
37	151	3
34	36	1
73	104	1
71	74	7
73	73	8
98	111	3
71	71	7
97	98	2
10	10	8
67	100	3
82	122	2
150	153	5
112	133	4
125	146	6
116	116	5
24	25	1
101	122	3
139	139	7
128	138	2
128	139	3
79	79	5
150	151	7
64	105	1
69	70	1
115	140	1
42	44	4
54	54	6
119	132	1
141	143	2
42	43	4
5	21	1
114	117	1
63	64	6
124	147	1
65	65	9
104	116	3
98	107	1
132	153	1
6	6	4
110	110	4
99	108	4
41	50	2
83	111	4
151	152	2
81	85	1
129	129	5
151	151	8
146	146	6
117	117	5
129	130	1
76	76	5
83	84	2
123	144	5
29	30	1
121	121	5
36	42	2
70	73	1
103	105	4
54	57	1
56	58	3
64	132	2
131	137	3
97	97	10
112	113	2
6	8	4
97	109	2
68	81	5
22	22	8
144	144	2
94	116	1
153	154	1
145	145	3
64	82	2
23	23	1
46	46	2
64	80	4
125	125	6
149	150	2
24	29	4
84	87	2
112	143	3
22	41	2
142	150	3
94	110	3
140	144	2
88	97	2
14	21	1
120	120	6
138	139	4
133	152	1
106	113	1
105	116	4
106	106	7
121	143	3
133	133	5
4	8	1
38	41	1
108	109	4
124	124	2
141	141	3
117	130	3
111	114	4
74	75	5
131	132	3
134	138	2
111	112	2
56	57	3
140	140	1
25	25	4
34	38	1
116	130	2
126	135	2
5	5	5
92	92	5
118	119	3
140	141	1
115	119	2
12	14	1
33	33	5
115	116	1
32	150	5
97	103	2
127	142	1
102	103	1
151	153	2
125	126	2
8	9	3
11	23	2
81	82	8
152	153	3
26	27	1
141	147	2
78	121	3
3	3	4
100	102	1
111	123	1
105	105	4
26	30	5
20	21	3
83	83	1
62	65	3
93	108	2
124	149	2
38	39	2
118	151	2
38	151	3
55	56	1
32	62	1
127	151	2
67	67	1
66	69	3
66	78	6
134	134	1
82	87	3
74	114	2
64	65	2
85	93	4
134	137	1
44	53	2
127	127	1
112	112	1
130	147	1
131	131	7
89	89	2
116	120	4
47	54	1
149	154	2
86	86	2
65	67	1
82	85	6
17	19	1
137	147	2
83	108	1
74	77	1
107	108	2
120	121	1
52	58	1
86	92	2
119	120	2
93	97	2
25	44	2
101	102	2
95	108	1
130	140	2
41	46	1
124	135	2
65	68	2
129	144	1
103	135	3
84	84	3
78	78	1
2	2	6
23	24	1
51	52	1
41	42	2
50	151	1
4	27	1
32	37	4
49	74	1
24	32	1
132	133	2
44	45	4
125	142	2
113	140	1
52	52	1
46	80	1
147	147	1
5	27	1
78	103	1
18	44	2
86	99	2
107	131	3
134	136	1
41	41	2
25	26	2
143	143	1
18	19	3
79	99	1
6	9	1
69	72	2
78	79	1
35	36	2
19	19	2
19	21	1
96	97	1
84	111	3
139	147	1
94	108	1
31	31	2
41	45	2
77	78	1
74	78	1
135	145	2
80	83	1
51	51	2
111	117	2
71	78	2
104	107	1
27	28	1
146	149	1
62	82	1
64	77	1
13	17	1
82	101	1
103	103	2
41	44	1
45	45	2
145	146	1
86	90	1
48	65	3
50	57	1
98	143	1
100	114	1
116	152	1
49	53	2
88	90	1
64	96	1
125	140	2
29	32	2
98	98	1
84	112	1
121	137	1
53	56	1
107	107	1
53	54	1
129	147	1
26	29	1
77	79	1
35	39	1
33	35	1
33	52	1
95	132	1
74	76	1
85	109	1
24	28	2
91	91	1
113	132	1
151	154	1
7	9	1
32	153	1
