70	70	19
122	122	5
121	121	10
113	114	7
154	154	8
123	123	12
104	105	4
107	107	7
108	108	14
35	35	8
99	100	3
93	93	9
48	48	9
15	15	4
67	71	1
18	18	6
14	14	5
17	17	6
95	95	3
84	85	5
139	144	1
85	85	2
135	135	15
24	37	2
106	107	3
68	95	7
80	94	1
41	42	3
3	4	5
54	54	7
3	30	2
100	100	10
149	149	5
126	127	1
42	42	4
19	40	3
134	135	3
99	99	5
127	137	14
145	145	8
152	152	7
112	112	5
77	77	3
68	68	13
73	73	21
47	47	14
58	64	3
68	70	3
46	47	6
96	96	7
130	130	11
26	26	1
46	62	2
8	8	3
6	7	4
106	106	9
100	101	6
50	50	13
20	20	5
34	36	5
13	13	5
19	69	2
138	139	3
98	98	10
110	110	13
26	27	3
79	91	2
94	94	13
84	106	6
114	117	5
104	104	5
106	109	3
53	57	4
87	92	6
127	136	3
109	109	7
78	80	2
105	107	5
67	67	6
64	64	1
26	30	1
46	46	9
37	37	3
45	45	10
125	125	3
7	7	4
129	129	1
24	24	15
145	148	1
143	143	6
7	16	1
3	8	3
86	141	5
146	146	6
113	113	6
19	19	7
44	44	2
133	133	4
153	153	7
69	69	7
97	97	8
80	80	3
77	92	3
129	134	2
120	120	3
21	22	2
66	67	1
40	43	1
132	132	9
118	118	6
16	17	3
36	36	3
13	14	5
111	111	1
66	94	7
131	131	7
46	67	5
115	116	2
105	108	3
25	25	6
150	150	7
102	102	7
9	9	3
115	115	1
43	44	5
2	29	1
40	40	3
25	26	2
119	119	5
73	75	3
136	136	7
5	8	4
82	82	7
17	19	6
65	66	2
79	79	5
119	120	2
21	21	1
114	114	1
4	5	2
67	68	1
27	27	7
74	74	3
31	32	3
21	29	5
72	72	6
87	88	1
29	29	2
83	83	1
57	57	2
12	12	5
80	81	2
40	41	2
134	134	9
76	77	1
17	69	2
5	5	3
64	65	5
27	29	4
49	67	2
4	4	6
28	29	2
22	24	3
86	86	6
137	137	4
67	94	4
3	3	1
20	39	1
53	53	3
120	140	3
136	137	2
54	57	2
39	39	5
115	117	1
116	116	2
147	147	5
141	141	2
150	154	4
100	107	1
49	71	2
87	87	1
55	55	1
112	114	1
71	71	4
33	34	2
3	9	2
24	25	1
109	141	4
42	43	3
82	83	8
85	86	2
81	83	1
63	63	1
126	126	1
101	102	3
9	12	3
84	84	2
39	40	1
34	34	1
58	58	4
85	109	1
16	16	3
72	73	1
10	10	6
32	33	1
25	29	2
32	32	2
30	30	3
151	151	3
101	104	5
28	28	2
112	113	3
141	142	3
94	95	3
95	96	4
93	94	5
102	107	3
31	31	6
117	117	2
124	125	2
51	73	2
103	103	1
18	19	2
130	131	1
79	81	3
6	6	5
139	139	2
149	152	2
54	55	1
51	51	1
47	48	3
18	69	1
20	22	1
23	25	1
4	6	2
120	121	1
38	38	1
23	24	1
80	88	1
138	138	3
38	41	1
142	142	1
132	133	1
62	63	1
132	135	2
81	82	1
43	43	1
137	138	1
11	11	1
63	68	1
128	139	1
119	135	1
120	135	1
66	66	1
117	153	2
117	118	1
149	150	1
23	23	2
25	30	1
89	89	1
150	151	1
121	128	2
5	30	1
63	64	1
55	57	1
