13	16	5
66	66	4
89	89	13
80	84	1
10	10	6
5	5	10
70	70	4
132	132	13
15	15	4
56	56	3
99	99	4
164	164	7
35	35	9
109	109	6
125	141	1
162	162	6
141	141	13
104	117	5
128	130	1
50	50	6
79	84	2
3	3	5
48	48	8
122	122	6
64	64	3
118	119	3
166	166	3
80	80	6
147	155	1
107	107	2
26	47	4
113	114	5
91	91	8
51	51	4
11	11	4
136	136	8
28	28	2
142	143	2
121	121	4
140	140	5
129	129	4
16	16	2
102	102	12
166	167	5
167	168	4
163	163	13
8	9	3
137	137	2
154	154	3
54	54	3
15	137	2
102	104	7
96	96	4
17	17	3
148	154	5
105	106	6
20	20	7
100	100	12
153	169	3
158	159	1
69	69	2
21	24	2
131	131	7
45	46	3
36	36	5
151	151	8
74	74	3
7	10	2
37	38	3
131	132	1
88	88	8
13	13	3
22	22	4
4	4	7
128	128	5
24	24	4
119	122	3
86	86	2
111	112	6
87	87	6
137	138	1
152	152	6
58	63	3
148	155	9
98	98	2
133	133	8
22	23	3
46	46	3
102	117	2
140	141	2
26	26	5
43	44	2
75	75	4
94	94	4
107	108	2
143	143	8
38	38	8
90	91	3
45	45	4
12	13	2
126	126	7
78	79	1
170	170	6
155	155	6
134	134	8
71	71	7
138	138	7
149	149	7
160	160	3
112	113	5
159	159	4
47	47	9
81	81	3
18	18	5
53	53	3
82	83	2
34	34	5
21	22	5
130	130	2
11	12	1
76	88	1
78	78	3
157	157	2
116	116	4
18	19	3
7	7	1
0	0	4
90	90	3
115	116	1
43	43	5
24	25	4
84	84	4
33	33	1
85	86	1
161	161	3
114	114	8
168	168	2
1	3	5
66	142	1
33	131	3
15	17	1
135	139	1
21	23	2
67	67	2
118	118	2
121	122	4
52	53	3
126	140	2
76	76	4
74	77	1
139	139	4
117	117	5
23	23	3
53	55	3
123	123	2
0	1	1
150	152	3
63	63	2
167	167	6
48	49	5
18	38	1
127	127	1
106	106	5
124	124	2
54	83	1
147	147	1
68	68	2
52	52	2
143	144	7
130	134	1
116	117	1
80	82	3
41	41	2
83	84	2
99	100	1
44	44	2
165	165	2
83	83	3
22	71	1
70	71	1
73	92	4
27	27	2
55	55	3
56	57	1
119	119	8
79	80	1
169	169	1
142	142	4
20	21	3
148	148	2
18	36	2
89	91	1
150	150	2
156	157	1
39	39	1
37	37	2
91	93	2
8	8	2
79	79	1
17	18	3
105	105	1
100	101	1
112	112	4
93	93	1
120	120	3
119	145	2
40	40	2
50	51	1
7	136	1
112	150	3
19	19	3
125	125	4
159	160	2
136	137	4
21	21	6
65	65	3
146	146	1
44	45	1
6	136	3
33	34	1
54	55	1
39	40	2
73	73	3
126	127	2
110	110	3
0	35	1
12	12	2
10	13	1
5	6	1
97	97	2
95	95	1
63	64	2
22	27	1
153	153	1
82	82	1
56	83	2
111	118	3
149	154	1
114	115	1
135	135	2
103	104	1
156	156	3
3	4	1
127	132	2
6	12	1
7	8	3
130	131	2
9	9	1
144	144	1
149	150	1
49	49	2
47	49	1
57	63	1
48	50	1
14	15	2
151	152	1
6	7	1
33	35	4
94	95	1
25	25	3
161	166	1
139	164	1
108	108	1
105	111	1
85	85	1
100	102	1
164	165	1
158	158	1
6	6	1
145	145	2
64	65	1
10	11	1
104	104	1
