121	123	10
11	13	3
22	23	5
53	53	11
42	42	3
4	4	8
110	116	2
125	126	13
27	27	1
129	129	4
28	28	6
101	104	9
129	133	3
49	58	9
126	128	6
37	37	6
109	109	4
93	103	9
76	82	3
59	73	4
105	105	4
6	18	1
136	137	7
114	126	3
9	35	2
36	51	2
20	21	2
67	70	1
66	66	5
14	20	2
85	92	4
50	50	12
127	137	3
54	59	2
132	136	1
3	12	1
134	135	5
5	6	2
131	131	1
110	115	2
24	26	3
39	40	2
126	126	9
110	119	6
40	40	8
0	0	8
85	93	2
76	76	7
85	87	1
112	112	5
13	37	9
59	59	12
20	71	1
99	107	6
97	98	2
143	144	3
87	90	3
120	130	2
112	113	2
32	36	4
20	20	8
92	94	3
124	138	1
80	82	8
120	124	1
9	11	3
3	5	6
3	8	4
101	101	6
137	137	1
79	79	7
33	36	5
122	123	6
80	81	7
29	29	3
81	83	4
144	145	3
102	102	8
10	11	5
78	82	2
25	33	4
123	123	10
97	99	11
132	132	10
52	65	3
95	95	6
130	134	5
115	116	5
4	6	2
124	124	14
125	125	7
71	71	7
93	93	3
90	93	4
3	3	3
100	101	3
122	135	2
133	136	3
73	73	12
69	70	3
51	61	3
49	49	3
81	81	13
50	54	2
103	104	2
93	120	2
123	130	2
88	98	3
130	130	2
120	121	6
111	124	2
29	96	2
66	78	6
143	143	12
121	122	5
119	120	2
86	86	2
142	142	8
6	23	5
19	26	2
96	99	10
108	108	6
25	25	4
30	30	6
54	56	2
126	142	1
94	98	1
108	109	1
99	99	4
62	62	5
73	93	2
104	104	3
83	98	4
4	15	1
93	106	2
61	80	1
118	122	2
15	33	1
5	5	7
96	96	8
130	143	4
34	34	3
39	41	3
74	82	2
2	3	2
23	31	1
62	66	3
68	68	2
139	139	12
135	135	9
36	38	3
82	82	8
39	42	1
47	47	3
94	100	3
76	86	1
108	110	4
65	65	6
59	68	4
89	89	7
50	51	2
105	119	3
100	100	1
101	107	2
59	69	2
0	10	5
82	83	2
118	120	7
55	70	2
91	91	8
10	16	2
8	8	2
4	8	5
127	127	5
60	79	1
49	53	2
34	41	2
141	146	2
9	31	2
36	42	3
120	131	2
108	123	3
118	127	5
117	128	1
97	97	5
57	67	4
94	94	6
104	115	1
87	87	6
130	140	2
133	133	9
134	136	7
140	140	11
92	92	5
63	65	3
65	66	5
32	32	1
105	107	1
140	145	2
74	81	1
19	19	4
118	118	5
127	129	1
91	94	2
77	78	4
23	23	8
57	72	1
134	134	3
125	128	1
9	9	8
10	65	3
28	33	3
113	124	2
75	75	3
22	24	3
78	78	10
36	36	6
110	124	1
90	91	4
11	12	5
19	33	2
103	105	1
61	68	3
115	115	4
138	138	5
64	77	1
72	88	5
26	29	2
59	85	2
75	81	1
10	13	2
107	108	4
72	79	1
80	80	1
83	92	3
114	114	8
61	61	6
0	2	1
114	124	1
104	107	2
140	142	8
136	140	1
124	136	3
34	61	3
9	32	2
137	145	4
15	17	2
39	49	3
116	117	3
37	38	4
6	15	2
63	71	4
128	142	4
109	117	1
145	145	1
122	136	2
112	125	1
85	97	1
18	18	6
103	103	7
130	145	2
52	52	3
24	25	3
90	90	6
57	65	5
131	144	2
115	128	3
124	137	4
24	34	2
136	136	5
41	41	2
76	78	3
115	129	4
17	72	1
67	73	3
131	133	3
67	69	1
34	38	2
101	103	4
8	21	4
68	69	2
142	144	5
56	56	7
74	78	1
59	78	2
136	138	2
87	97	1
75	76	4
52	54	3
21	21	3
80	83	2
5	19	1
100	112	4
122	137	5
88	89	3
46	48	1
89	91	4
1	3	1
95	110	1
56	76	4
68	80	6
41	42	1
64	64	1
53	59	3
74	76	1
17	22	4
71	72	4
71	80	3
57	57	1
29	30	1
5	72	1
82	95	2
111	111	4
113	141	5
125	141	2
17	17	7
133	135	7
9	10	7
93	94	1
97	111	3
129	130	4
6	6	3
85	85	3
19	27	1
137	138	4
87	94	2
138	139	3
22	22	1
62	68	3
78	79	3
14	17	4
43	51	1
88	96	1
70	72	7
102	103	2
75	80	2
121	143	3
20	25	1
128	133	1
139	141	3
118	126	1
77	77	4
1	1	8
123	126	1
84	85	2
127	143	1
130	141	2
99	102	2
61	65	2
60	71	2
70	70	4
41	71	2
88	88	2
107	107	3
126	143	2
6	8	3
86	92	1
84	84	2
1	13	4
86	94	2
108	112	1
8	10	2
89	113	3
54	54	4
135	143	3
129	137	1
20	29	2
47	49	3
92	93	5
106	111	2
121	121	1
117	117	5
26	26	3
117	124	1
138	140	2
141	141	3
134	137	3
63	69	4
61	62	2
102	112	2
64	74	2
139	140	1
47	54	1
106	109	3
21	28	1
116	127	1
141	143	6
58	58	3
18	21	1
12	13	2
114	118	2
8	9	2
137	146	3
60	60	5
33	33	2
113	113	3
69	69	3
81	93	2
77	87	2
40	47	2
128	140	3
25	28	1
70	141	2
126	132	2
145	146	3
144	146	1
36	69	1
128	131	1
128	128	5
3	13	2
19	20	3
27	36	1
48	48	2
119	122	2
1	16	1
113	115	1
116	132	1
134	138	1
122	122	4
16	21	3
118	131	1
109	116	2
95	103	3
135	138	2
35	38	1
126	137	3
38	41	1
54	65	1
102	117	5
95	97	1
16	20	2
27	32	1
56	108	3
117	127	2
119	119	2
23	60	1
101	102	2
98	98	2
146	146	3
60	67	5
61	69	2
99	100	1
133	142	1
99	110	2
129	140	2
129	141	1
132	145	1
47	48	5
92	104	1
31	32	1
60	68	2
92	103	3
132	134	3
106	122	3
63	74	1
96	97	3
74	86	2
57	58	2
62	63	2
81	84	1
67	72	2
89	95	2
98	100	4
13	21	3
35	35	2
92	95	1
75	82	1
92	115	3
119	121	4
65	74	4
48	50	1
15	18	3
11	11	4
139	142	1
59	67	1
131	136	1
111	128	2
20	24	3
128	134	2
106	106	1
63	63	1
99	105	1
56	60	3
27	30	1
130	131	2
91	104	1
48	61	2
82	94	1
78	84	3
113	116	2
108	116	1
21	22	1
73	82	1
97	105	2
109	121	1
20	38	1
138	142	4
5	20	1
87	88	1
117	118	2
141	142	1
12	26	2
6	20	1
110	123	1
65	84	1
101	110	1
132	135	3
130	133	2
135	136	1
99	119	1
125	144	1
69	88	2
23	24	2
141	144	1
115	127	2
58	59	1
18	30	2
47	50	1
99	109	1
104	109	2
57	61	1
2	14	2
21	32	2
0	3	1
17	31	3
110	111	2
2	9	2
82	113	1
60	64	2
55	56	1
105	113	1
66	73	1
112	127	1
0	63	1
63	66	3
32	40	1
31	40	1
74	77	2
85	113	1
67	67	2
111	112	2
20	99	3
114	127	1
129	132	1
108	118	1
51	62	1
27	39	1
27	29	2
121	137	1
52	58	1
17	25	1
57	63	2
97	114	1
120	120	4
85	101	1
15	16	1
137	139	1
29	33	1
102	120	1
73	74	1
132	133	2
81	85	1
74	84	1
120	122	3
120	137	2
121	124	1
74	75	1
16	16	1
43	52	3
105	112	1
18	23	1
71	83	1
72	72	1
60	61	1
20	36	1
56	64	1
14	26	2
75	83	1
20	33	1
55	57	1
86	87	1
125	138	1
51	54	1
66	67	1
98	107	1
24	33	1
48	52	1
106	118	1
110	110	2
36	40	1
8	31	1
123	131	1
97	112	1
11	26	1
28	36	1
117	123	1
88	99	1
18	28	2
85	91	1
20	23	2
51	51	1
119	123	1
89	93	1
69	72	1
7	12	1
144	144	2
35	40	1
62	64	2
91	98	1
126	131	1
71	78	1
7	9	1
89	104	2
54	62	1
93	95	1
118	121	1
116	116	2
61	66	1
15	29	1
50	52	1
68	77	1
106	130	1
65	73	1
11	23	1
104	114	1
0	71	1
126	127	1
111	114	1
133	134	1
128	139	1
85	90	1
23	36	1
101	108	1
26	31	1
102	104	1
96	105	1
68	72	1
74	74	1
129	134	1
116	135	1
19	31	1
82	92	1
95	100	1
73	81	1
139	146	1
24	36	1
73	76	1
66	77	1
74	80	1
127	145	1
34	36	1
117	121	1
32	33	1
83	83	1
88	95	1
