55	142	2
96	134	2
64	72	6
41	41	4
12	13	1
58	59	4
54	54	6
186	187	5
75	84	3
56	56	3
148	149	1
148	180	1
185	185	9
93	93	6
176	176	2
168	172	2
30	32	3
49	137	3
120	122	2
53	53	4
173	173	2
96	97	1
153	153	4
180	180	5
123	124	8
97	97	4
26	26	3
99	99	5
2	2	13
108	108	5
117	117	7
61	63	3
77	77	5
106	111	1
178	181	2
172	172	3
13	13	4
129	129	6
94	94	6
24	25	5
178	178	6
77	171	2
78	85	2
6	6	4
63	104	1
166	166	3
62	80	1
65	121	1
71	71	8
153	184	3
76	77	2
36	37	2
58	58	4
8	25	1
163	173	2
141	141	1
161	162	1
102	111	2
130	130	7
143	147	1
144	146	2
119	119	1
0	0	6
107	108	5
134	134	7
148	148	1
101	103	4
87	101	3
116	116	2
174	179	6
72	75	1
42	42	4
115	115	2
174	176	2
59	59	4
57	59	5
79	79	4
65	65	7
152	152	1
14	19	4
53	55	2
7	8	3
87	87	1
121	121	1
90	92	2
35	35	3
135	137	1
43	43	3
141	183	2
74	74	2
177	177	4
111	111	2
12	12	8
170	171	2
85	85	9
18	18	1
77	156	2
55	58	1
8	26	1
176	177	4
46	47	4
160	173	1
153	181	1
52	93	2
110	110	6
161	161	3
169	175	1
55	177	1
179	179	3
61	62	1
9	31	1
181	181	3
145	145	2
187	188	9
165	165	6
39	39	7
53	94	2
75	156	2
91	110	2
139	139	2
157	157	2
66	71	2
78	78	4
7	7	7
175	180	1
184	184	1
92	100	1
46	46	1
174	174	2
89	89	3
57	58	3
52	92	1
66	66	1
34	35	2
63	116	3
169	169	2
8	8	3
91	91	8
133	134	1
95	96	1
109	109	2
140	140	8
19	19	3
38	38	1
168	168	3
67	69	1
186	186	3
131	131	1
126	128	4
106	106	2
55	176	4
183	183	4
146	146	3
23	23	3
133	133	4
54	107	3
11	11	3
114	114	1
24	31	3
96	96	3
5	5	1
153	154	3
21	23	1
91	109	3
1	1	3
100	100	9
107	107	1
18	34	1
144	148	2
111	112	2
121	123	1
75	85	1
152	153	3
172	173	3
104	104	1
39	40	3
120	124	3
17	17	5
158	158	3
134	137	3
45	46	1
182	182	1
117	128	1
149	152	1
73	73	2
45	45	1
10	10	3
148	163	1
164	165	1
122	122	1
21	21	4
5	22	2
28	28	1
48	48	2
178	179	1
117	118	5
138	138	7
56	58	3
135	135	4
16	16	4
37	41	1
78	104	2
85	190	1
150	150	1
97	98	1
109	110	3
61	64	1
39	42	1
55	55	4
28	35	1
170	175	1
13	23	1
98	98	1
17	41	3
25	25	1
64	70	1
102	102	2
92	92	2
33	35	1
158	159	1
156	156	1
53	87	1
96	98	1
4	22	2
24	90	1
160	160	3
171	171	1
27	30	2
160	161	2
3	4	4
93	95	1
44	45	1
118	118	5
66	121	1
187	187	1
18	32	4
79	161	3
22	22	1
154	155	1
58	61	2
102	183	2
20	48	2
11	19	1
156	183	2
147	147	2
174	180	2
56	57	1
57	57	2
69	69	1
6	22	1
132	133	2
132	132	1
73	74	1
160	163	2
27	31	2
93	97	2
140	141	1
143	177	1
95	95	1
149	149	1
22	32	1
20	20	1
168	180	1
28	36	1
164	167	1
154	154	1
29	29	2
47	47	3
89	108	2
97	134	1
80	116	1
126	126	1
88	88	3
29	30	1
101	101	1
66	188	1
83	83	1
113	120	1
40	40	4
52	52	1
55	94	1
118	127	1
169	180	1
28	31	1
4	138	2
58	154	1
29	38	1
46	129	1
168	173	1
75	105	1
128	128	1
134	135	1
154	176	1
62	63	2
13	25	2
90	100	1
167	167	1
80	80	1
125	125	1
90	109	1
162	162	1
10	21	1
35	37	2
99	135	1
75	75	1
53	54	1
27	32	1
41	43	1
60	95	1
37	37	1
101	102	1
61	104	1
0	47	1
24	24	1
99	138	1
63	63	1
