66	66	28
81	81	28
26	32	3
65	66	10
93	94	5
86	86	31
68	69	17
80	81	16
22	22	7
82	82	13
79	79	12
53	53	4
99	99	19
100	100	7
26	27	8
52	58	5
79	89	3
48	49	2
84	84	20
66	101	2
89	101	5
34	34	5
57	57	18
32	45	3
49	50	12
78	78	36
98	99	3
101	101	10
57	58	7
80	85	7
60	60	20
69	69	17
73	74	7
35	37	2
58	58	23
85	85	23
46	46	13
62	62	25
75	78	3
63	64	9
42	43	8
52	52	19
70	70	30
67	67	31
90	90	19
57	90	5
73	73	28
74	74	26
77	78	4
49	55	1
29	29	12
68	68	21
50	51	12
62	77	1
65	65	37
97	97	15
95	95	18
45	84	1
51	51	13
76	76	26
85	86	3
86	88	7
62	64	3
45	45	9
44	44	7
88	88	6
27	27	16
77	77	30
77	79	12
30	32	1
73	78	1
47	48	9
47	56	2
30	31	7
64	64	29
56	57	9
63	63	29
94	94	9
69	70	9
72	72	28
92	92	23
65	74	6
43	43	15
91	91	12
75	76	6
29	34	2
91	92	3
67	68	19
80	80	24
76	77	7
46	47	12
42	80	3
70	71	3
71	71	27
48	48	8
39	39	21
73	76	4
29	30	8
79	80	9
33	99	7
89	99	1
26	26	14
86	89	2
25	28	5
79	84	2
74	75	3
72	74	4
50	85	2
78	79	1
53	56	2
42	42	11
93	93	2
89	89	30
83	84	8
56	56	1
75	75	18
41	57	2
99	100	1
32	94	1
40	40	12
87	88	4
89	96	2
33	33	6
57	100	1
69	71	7
88	89	1
30	30	14
25	25	4
86	87	4
91	93	1
46	94	3
25	26	3
85	89	2
36	36	5
63	68	2
85	99	5
31	31	14
32	33	2
54	54	6
40	41	2
40	56	2
66	67	5
35	52	3
74	78	2
83	83	18
87	87	4
58	90	6
92	93	4
25	74	1
67	71	6
35	36	2
59	79	3
41	42	2
45	97	1
49	49	3
66	102	3
56	83	4
59	59	11
61	61	15
31	34	2
50	50	6
28	28	8
55	55	5
41	75	4
51	82	3
96	96	11
95	97	4
49	72	4
80	89	3
69	100	3
23	23	2
35	38	2
98	100	2
34	51	4
73	77	1
51	52	4
96	98	2
67	72	2
20	34	1
84	86	7
47	47	7
64	65	1
54	55	2
52	85	3
81	82	4
98	98	2
72	75	2
53	88	2
39	45	2
32	32	1
64	68	1
58	60	5
46	50	1
100	101	5
89	90	4
90	91	5
41	79	3
27	28	3
59	100	3
52	53	2
45	47	3
33	47	1
33	34	4
38	39	2
24	24	2
37	38	2
41	41	4
37	37	6
58	59	4
29	31	2
81	98	2
71	75	1
43	77	2
97	98	2
96	100	1
62	79	2
62	63	1
43	57	3
101	102	4
45	58	1
45	55	2
95	96	1
102	102	2
58	79	1
36	37	1
95	100	2
72	73	2
47	49	2
43	44	3
69	77	1
38	38	1
32	35	1
82	84	1
64	66	1
95	98	2
79	88	1
37	52	1
36	55	1
46	48	2
57	85	1
42	76	2
71	72	1
63	73	1
24	27	1
70	101	1
37	73	1
63	65	1
