133	138	1
95	98	8
139	139	7
88	88	3
118	118	12
165	167	3
91	91	8
125	125	20
179	179	7
31	31	10
28	29	12
7	14	3
7	7	13
83	83	2
111	113	3
156	157	16
100	103	2
117	125	1
104	104	5
119	122	1
171	172	3
3	5	4
21	21	14
92	92	14
14	132	2
79	80	8
56	59	2
68	70	3
73	75	1
70	70	1
176	176	21
87	116	1
92	93	5
80	98	3
16	16	13
133	133	13
130	130	2
145	145	5
157	157	16
63	65	4
167	168	3
173	173	20
152	152	3
178	178	10
155	159	7
101	101	1
106	131	1
64	64	20
147	147	13
119	168	4
145	146	3
120	120	11
81	83	1
134	134	14
13	13	13
155	155	10
13	14	10
10	10	12
34	34	12
44	44	8
17	68	2
155	176	3
1	1	8
165	165	1
117	122	1
105	105	3
60	60	7
146	148	4
118	122	1
68	68	15
1	5	2
152	156	5
50	51	5
53	54	3
160	160	5
132	137	1
173	174	9
166	175	3
85	91	3
11	13	12
8	10	4
147	158	1
104	109	3
74	90	3
72	74	4
116	116	33
8	9	2
5	6	7
87	87	6
86	97	2
104	105	9
65	71	1
53	53	11
102	102	9
124	125	4
22	22	17
88	90	4
25	44	3
83	85	1
111	111	7
167	172	6
123	126	3
80	81	8
15	15	4
83	151	2
33	33	9
42	42	15
88	91	5
66	103	4
11	19	1
151	151	8
30	30	8
166	171	3
23	24	2
52	53	4
175	175	10
140	141	9
174	174	15
111	172	2
36	37	6
164	167	3
54	54	18
52	52	10
107	107	13
18	18	9
123	123	9
162	162	7
9	10	2
144	146	3
146	147	7
29	54	2
163	163	6
114	114	22
92	94	2
152	153	6
97	120	1
95	136	4
171	171	4
149	149	9
137	137	18
153	153	6
134	138	3
14	14	5
20	20	10
89	89	4
123	124	4
71	71	6
166	172	2
138	140	5
136	136	14
35	36	1
136	137	4
145	148	5
1	4	4
173	177	3
101	102	4
169	171	4
151	153	1
172	173	4
43	51	3
98	100	5
80	100	1
176	178	1
144	152	2
94	94	6
79	79	19
143	150	1
114	115	3
150	151	8
9	9	10
53	86	1
55	56	2
106	106	7
103	104	3
177	177	1
6	7	9
139	140	1
38	42	4
137	160	1
132	132	9
3	8	4
177	178	3
35	35	12
158	159	3
175	178	1
172	174	3
7	11	1
88	89	12
99	100	4
120	123	2
104	178	2
30	31	5
41	42	10
145	147	1
119	124	4
70	71	4
85	85	12
21	29	2
102	107	5
117	117	14
76	76	5
148	148	12
172	179	1
62	63	2
41	41	12
82	84	1
96	96	5
14	16	1
3	3	9
93	93	5
135	135	5
62	64	4
106	107	6
113	114	4
81	81	13
64	68	4
130	133	2
160	162	1
131	131	4
134	135	12
54	60	2
62	66	2
110	130	2
50	50	11
57	57	9
170	175	2
166	166	6
161	161	5
28	30	1
168	168	9
0	10	1
30	32	5
43	45	4
12	16	5
167	167	5
30	35	1
176	180	5
146	146	11
170	171	5
25	28	3
97	97	10
88	93	4
39	39	8
32	36	1
89	93	2
142	146	5
77	77	9
158	161	4
6	6	8
80	80	12
91	94	2
143	143	8
74	74	3
140	140	10
130	132	4
84	88	1
15	24	4
32	33	11
51	51	10
82	83	1
84	86	4
95	95	4
62	62	6
5	7	10
180	180	4
170	170	9
150	150	14
172	172	7
80	84	2
66	68	6
95	97	1
111	170	3
13	19	1
37	37	15
110	111	9
68	102	1
158	158	17
130	137	4
123	128	4
71	72	2
120	121	4
38	39	5
56	99	2
159	166	5
59	59	4
98	105	2
122	122	10
99	99	19
127	129	2
156	156	10
22	36	1
121	122	8
103	103	10
61	72	3
91	102	1
89	90	3
115	115	5
138	139	1
144	145	2
89	130	1
57	62	2
167	170	1
66	67	5
172	178	1
61	61	5
38	38	16
141	141	7
112	113	3
13	29	1
119	119	5
6	8	4
90	90	13
62	71	3
60	67	2
91	92	2
96	97	1
40	40	3
163	166	2
1	2	3
72	72	7
55	55	6
29	29	8
133	139	5
56	56	3
63	64	2
75	75	8
112	117	3
152	158	4
121	123	1
1	3	1
53	137	3
81	85	3
155	161	3
102	157	2
53	58	4
4	4	7
85	87	1
7	13	2
112	149	1
82	82	6
37	46	2
2	5	2
112	112	9
71	109	4
130	135	2
2	31	1
130	134	2
43	60	3
168	170	3
151	161	2
61	73	2
132	133	4
29	31	5
23	23	6
167	171	5
149	154	2
26	27	2
54	68	5
30	34	2
122	125	3
57	60	2
132	135	2
22	23	4
108	109	2
5	5	10
119	121	2
78	79	6
112	151	2
154	156	2
65	65	4
4	11	2
73	74	6
80	101	4
98	98	3
61	62	2
131	137	3
126	126	8
154	157	2
1	8	2
35	38	2
108	108	3
54	106	1
99	106	2
98	101	2
17	17	11
74	79	1
169	169	5
107	108	4
116	177	1
12	15	2
85	86	3
56	58	4
27	27	4
29	32	2
113	113	6
83	96	3
12	13	4
125	137	2
11	11	4
4	32	5
168	169	7
8	12	1
29	52	2
63	63	5
144	144	5
100	130	2
29	45	1
43	43	3
0	0	3
133	149	1
80	82	2
19	19	8
128	129	2
3	44	1
58	61	2
58	60	1
22	24	3
15	19	2
23	25	2
92	121	2
15	16	3
150	153	4
74	75	3
3	4	1
150	155	3
135	136	1
105	106	2
8	8	10
134	137	2
161	163	2
49	49	1
8	11	1
51	53	1
26	29	1
142	154	2
9	131	2
99	127	7
110	114	5
13	15	1
53	57	2
7	16	1
169	170	4
22	31	3
110	113	4
82	97	2
84	84	12
45	52	6
5	13	3
154	161	1
83	86	3
20	41	2
64	67	1
2	3	2
121	121	6
78	78	5
10	18	3
161	165	2
34	35	3
135	147	2
141	142	2
129	130	2
58	58	2
95	103	1
73	73	1
149	151	2
116	117	1
4	5	2
166	168	2
36	62	2
139	149	2
7	8	2
37	38	5
51	127	1
59	141	1
117	120	2
134	145	1
78	115	1
54	131	2
80	87	5
39	43	3
111	144	2
164	164	5
164	169	2
165	172	2
124	124	16
93	95	4
151	155	2
54	95	2
127	158	1
61	64	4
131	132	2
145	168	2
60	64	3
83	95	1
10	11	1
41	44	1
98	99	3
26	43	1
120	128	1
83	84	2
71	132	1
143	148	2
61	67	4
2	7	1
100	101	3
10	30	3
41	64	1
166	167	2
0	3	1
149	150	2
55	57	2
97	99	1
65	70	2
119	164	1
115	116	4
63	66	2
52	56	2
144	170	1
167	177	2
100	106	3
136	138	3
128	159	2
109	109	1
127	127	5
164	165	2
16	112	3
152	164	1
8	121	2
86	87	2
115	118	2
26	26	4
115	117	1
17	19	2
126	128	4
27	30	2
71	178	1
70	104	1
95	107	1
67	67	7
159	159	4
30	38	3
9	18	2
24	24	2
179	180	1
96	128	5
74	106	1
114	117	1
36	36	4
118	164	3
59	62	1
136	169	1
167	176	4
18	62	1
28	33	3
71	75	1
18	25	3
136	140	1
138	150	1
75	79	1
159	160	1
135	177	1
60	61	3
12	12	3
128	158	1
157	160	4
140	146	4
87	89	2
27	28	1
158	162	3
156	159	6
13	18	3
65	66	1
178	179	2
34	37	1
129	131	6
92	95	2
1	9	2
62	65	1
93	94	1
28	28	6
111	117	1
81	82	3
154	155	4
77	84	2
15	21	1
60	63	2
148	167	2
49	53	1
136	142	1
67	72	2
105	109	1
141	153	5
163	165	1
6	9	2
11	22	3
31	35	2
142	143	2
22	66	3
96	101	1
78	80	1
15	18	2
12	20	1
11	14	2
171	176	2
154	154	2
32	32	4
10	22	2
143	145	1
86	90	1
68	105	2
122	142	2
128	144	1
20	21	4
103	156	3
71	74	3
105	147	1
144	169	1
39	41	5
42	43	1
110	122	1
33	37	1
68	124	1
142	142	1
80	103	2
130	139	3
35	37	3
70	73	2
156	161	2
100	104	1
165	174	2
60	62	2
107	109	1
157	159	4
151	152	1
142	144	1
159	165	1
16	17	1
153	155	2
130	131	3
25	27	2
84	87	3
128	128	2
138	138	2
138	152	2
98	102	1
167	169	1
43	44	2
12	57	3
94	119	1
34	40	1
125	127	1
155	157	1
59	63	1
30	40	1
75	80	1
96	98	1
25	42	1
77	78	1
55	61	2
110	110	1
80	110	1
129	129	3
59	60	1
65	142	1
36	39	1
159	175	1
31	33	1
123	125	1
29	30	2
174	177	2
147	159	1
133	134	5
108	110	1
87	90	1
121	125	2
70	139	2
94	100	1
130	165	2
166	173	2
140	171	1
145	153	1
176	179	1
95	96	2
153	154	2
171	173	1
146	149	3
90	129	1
117	118	1
100	100	2
12	14	1
17	32	1
134	166	1
3	32	1
145	150	1
1	15	1
96	121	1
56	57	3
37	40	1
114	116	1
116	122	1
139	143	2
125	145	1
9	12	2
114	140	1
45	54	1
19	33	2
77	80	1
98	130	1
4	12	1
21	24	1
41	43	2
79	87	1
73	77	1
61	65	1
151	158	1
133	136	2
74	83	1
0	101	2
165	171	1
131	145	1
53	91	1
80	83	2
101	127	1
147	153	1
85	90	1
51	88	1
112	140	1
172	177	1
71	137	1
73	76	1
134	144	1
126	176	1
55	59	2
137	138	1
148	160	1
109	112	1
36	38	1
81	88	1
152	154	1
33	34	2
137	139	1
64	71	1
72	77	1
24	26	1
77	79	1
141	145	1
2	9	1
59	92	1
174	175	1
38	55	1
93	106	1
143	149	1
