148	172	4
178	179	2
29	29	3
66	66	4
119	119	1
99	193	5
52	52	5
33	33	4
124	124	6
96	97	2
141	142	2
192	192	3
163	163	6
133	133	2
88	88	5
39	40	2
33	34	1
16	16	6
108	109	4
188	192	2
71	71	3
137	138	3
123	123	6
69	70	3
103	104	2
184	185	6
6	7	7
44	44	4
55	56	3
187	187	11
62	62	6
160	160	4
26	26	5
0	0	5
145	146	2
139	139	1
64	72	2
20	24	1
19	125	2
26	36	4
197	197	5
46	48	5
150	150	4
113	153	2
96	96	4
32	32	4
50	50	8
173	174	4
115	116	4
42	42	1
75	75	3
16	17	4
74	74	3
170	170	5
193	193	8
175	175	1
28	28	11
5	5	5
11	11	7
124	125	1
143	143	4
111	111	2
65	143	3
64	67	1
100	100	4
147	147	6
178	178	3
81	82	1
182	182	3
153	153	5
171	171	11
112	112	1
48	48	3
195	196	4
78	78	2
195	195	1
194	194	1
108	108	1
45	47	5
176	176	5
8	8	6
190	190	3
169	169	1
38	43	1
73	169	3
61	61	2
25	30	1
3	4	4
60	60	1
25	26	2
102	103	2
113	113	4
17	17	1
171	172	3
12	12	1
180	180	3
83	84	2
114	153	3
70	71	3
116	131	6
35	35	3
39	39	3
84	84	4
151	151	5
15	15	3
19	19	2
12	197	1
41	41	2
10	10	2
172	173	2
128	128	2
131	131	6
76	76	3
82	82	5
99	100	1
74	141	2
169	170	3
58	58	2
123	124	2
70	73	1
59	59	2
99	99	5
45	46	2
46	47	1
37	37	2
183	183	5
62	63	2
107	107	2
127	127	4
142	142	3
133	134	2
185	187	1
161	166	1
45	45	4
125	125	2
22	22	2
191	191	2
57	57	2
97	98	2
166	166	2
114	114	2
101	104	2
18	18	4
84	87	2
54	54	3
172	172	2
118	121	1
34	34	3
79	79	5
126	133	1
15	16	2
46	122	2
132	133	2
126	127	1
46	46	2
185	186	3
43	43	1
38	38	5
162	164	2
64	66	4
64	64	1
119	120	2
36	37	1
39	44	1
4	4	4
31	31	2
49	49	2
139	140	3
154	154	1
5	6	2
73	73	1
187	188	1
149	150	2
40	41	1
166	168	5
71	72	1
9	10	2
21	22	1
94	94	2
48	49	1
60	61	1
120	120	1
196	196	2
16	144	2
6	8	3
107	108	3
25	25	1
41	42	1
174	174	2
1	1	1
196	197	3
160	161	2
184	184	1
50	54	2
64	73	1
119	127	1
62	66	1
69	71	1
157	157	2
63	68	1
84	85	2
137	187	1
120	121	2
161	164	2
76	77	1
59	61	2
102	104	2
132	132	1
72	72	1
145	145	2
78	79	1
28	29	1
134	134	5
95	173	1
86	87	2
50	53	2
126	126	2
132	134	1
117	117	1
127	128	1
16	19	2
54	56	1
77	77	1
194	195	2
98	98	1
148	148	1
55	70	1
136	186	1
112	153	2
53	55	3
102	106	1
3	3	1
20	21	2
181	181	1
167	168	1
24	24	1
63	64	1
13	13	1
36	36	1
53	53	1
32	33	1
192	193	1
141	141	1
