36	36	15
49	50	4
10	10	8
74	74	14
57	58	2
2	3	13
33	61	9
50	63	3
5	5	13
35	35	10
36	39	4
36	43	3
66	67	3
60	60	14
62	63	6
20	31	1
34	34	23
0	0	14
26	27	7
35	36	9
56	56	4
33	33	13
1	1	9
33	34	17
3	3	19
64	64	9
58	58	8
69	69	11
55	55	6
41	42	7
9	9	8
23	23	18
21	28	1
6	15	5
71	71	15
34	35	4
18	19	3
0	14	1
12	20	5
62	62	7
50	51	5
7	7	6
30	30	6
22	22	13
13	13	15
56	58	3
42	42	4
47	47	11
11	15	3
52	53	1
40	40	8
48	72	1
68	69	1
42	68	6
51	51	14
45	45	11
20	21	6
25	31	3
44	44	11
20	20	19
72	76	1
49	51	3
48	48	7
61	62	6
55	56	2
10	31	1
76	76	21
26	70	3
25	26	3
19	51	4
29	29	10
50	50	19
63	63	3
70	70	10
49	68	4
21	21	21
56	72	3
12	36	2
27	27	8
26	29	1
59	60	4
6	6	4
22	25	5
1	40	3
0	2	2
18	18	4
22	24	1
39	40	6
57	57	8
64	65	4
13	37	1
51	52	3
51	72	1
73	73	6
67	67	5
29	32	2
32	72	1
45	60	3
72	72	14
30	32	1
32	32	3
37	39	6
37	48	3
54	56	8
69	70	8
67	68	6
11	34	3
47	62	4
31	33	4
24	25	3
60	61	2
1	2	3
43	52	3
52	52	6
43	44	4
12	74	1
65	66	9
72	74	6
68	68	5
8	12	6
2	2	14
8	8	16
35	51	2
34	46	2
37	44	1
53	53	7
47	50	2
1	30	1
12	28	1
72	73	6
9	30	2
3	4	3
12	44	2
54	55	3
57	64	2
54	66	1
77	77	6
10	50	1
6	8	2
36	61	2
26	50	3
37	37	5
32	33	3
71	72	6
8	11	4
59	61	2
22	23	3
44	45	2
25	25	17
39	64	2
68	70	1
36	63	2
47	60	1
24	24	6
36	59	2
31	43	2
46	47	2
52	54	5
4	4	10
73	74	5
11	20	3
49	49	1
45	46	2
21	23	1
68	71	4
4	5	1
70	71	7
11	12	2
28	28	1
34	61	2
26	26	2
25	28	1
44	46	2
39	48	6
40	61	4
55	57	4
12	12	8
7	9	1
39	39	2
18	44	2
54	54	4
61	64	1
47	64	4
27	28	2
46	60	3
12	34	2
19	20	7
75	76	4
30	35	2
46	55	3
55	58	1
10	11	2
36	37	2
56	59	5
65	65	5
66	66	3
57	75	1
76	77	2
75	75	5
74	76	1
37	60	4
33	53	1
62	64	2
56	57	3
33	43	2
46	46	2
8	9	1
2	39	4
37	52	1
55	59	1
9	10	5
30	31	4
59	59	8
38	39	2
48	51	1
61	61	7
39	43	2
48	71	1
28	72	2
33	60	1
53	60	1
13	14	1
19	19	3
50	64	3
14	23	1
64	69	2
32	61	2
25	29	1
46	56	1
6	7	1
13	42	1
7	73	2
41	41	3
48	50	1
38	38	1
8	10	2
14	28	1
6	10	1
3	5	1
7	8	1
7	10	1
51	63	1
0	39	1
8	13	1
63	64	1
73	75	1
13	39	1
18	30	1
53	54	2
28	46	1
40	63	1
32	43	1
47	48	2
4	22	1
39	65	1
14	43	1
43	68	1
28	29	2
20	62	1
36	38	1
0	1	1
18	20	1
14	42	1
33	35	1
10	69	1
61	63	1
67	77	1
37	54	1
8	32	2
6	14	1
2	23	1
23	25	1
47	61	1
