13	13	23
85	85	19
92	92	17
21	21	21
111	118	4
136	139	3
126	128	6
37	37	32
73	73	19
39	39	9
143	143	16
100	101	8
53	53	7
111	111	17
108	110	12
128	130	4
105	105	17
64	65	22
33	37	6
107	108	8
90	90	12
127	130	2
106	107	4
91	91	23
134	135	7
58	58	21
24	35	2
138	139	14
20	21	12
31	31	31
47	47	15
61	61	27
79	80	10
94	94	14
112	112	32
27	27	20
41	41	12
8	8	15
10	38	3
42	42	28
23	23	16
85	90	1
48	48	25
110	110	18
36	36	19
127	127	12
133	139	6
26	26	16
124	124	33
20	20	21
69	69	13
34	34	20
101	104	1
99	99	24
70	70	12
142	142	16
9	141	4
19	19	31
130	133	4
32	33	9
111	129	3
46	47	5
78	78	24
75	75	22
132	132	16
86	118	3
136	137	11
98	98	18
15	15	18
47	48	5
30	31	2
112	113	5
139	139	29
80	121	3
115	115	15
39	40	5
107	107	19
104	134	3
101	102	9
25	26	1
128	138	6
58	59	11
87	87	14
88	88	15
98	103	4
116	117	10
133	133	13
36	39	1
75	142	4
50	50	21
121	121	17
144	144	20
4	4	16
135	136	8
82	84	14
10	10	25
53	54	3
59	59	31
77	77	18
120	121	2
33	33	19
131	131	24
50	138	2
24	24	12
69	74	4
75	97	1
63	63	9
56	136	2
118	118	14
71	102	6
56	59	5
25	25	32
52	52	8
132	133	14
121	122	7
113	113	9
66	67	3
123	123	18
104	105	4
30	30	18
119	119	27
96	97	5
72	102	4
5	6	6
0	0	23
28	28	29
136	136	15
97	99	1
14	14	12
129	129	23
63	100	5
105	129	1
131	133	8
83	85	2
60	103	3
15	16	13
80	103	4
97	98	18
51	51	19
103	103	29
106	106	25
137	138	5
122	122	25
40	40	22
92	95	7
114	115	13
21	23	13
125	128	1
89	89	19
16	17	3
14	24	2
33	34	4
17	18	7
102	102	18
72	72	23
31	32	17
35	35	26
113	114	1
41	42	2
86	108	4
104	108	5
91	92	11
145	146	9
62	62	9
99	101	2
125	126	4
9	9	11
114	114	28
75	76	7
43	43	18
3	3	7
130	130	25
59	61	1
9	37	1
107	110	3
8	25	6
104	104	25
2	2	15
1	1	12
145	145	11
97	97	13
110	111	9
62	69	1
54	54	11
86	116	1
16	20	7
39	43	1
85	104	8
12	12	6
93	94	11
38	40	1
3	35	6
9	10	6
55	55	18
138	138	10
57	133	5
113	115	2
18	20	4
78	79	6
1	9	5
49	49	14
81	82	2
131	135	5
79	79	14
60	135	2
27	59	4
108	108	14
126	126	10
76	76	18
74	75	5
100	100	16
65	66	3
125	125	15
95	95	13
62	72	6
18	21	2
135	135	10
56	57	5
119	122	6
92	94	8
62	139	2
134	134	20
98	99	6
29	29	26
17	17	23
20	24	6
117	131	2
11	11	10
95	97	6
120	126	5
134	140	3
16	16	17
3	4	10
67	69	2
124	125	8
54	55	4
93	93	8
105	108	1
12	20	3
65	65	23
18	18	23
55	57	4
22	22	30
120	120	8
86	86	14
59	60	13
126	127	7
141	141	16
65	105	5
42	43	6
83	104	3
77	78	1
123	128	6
63	67	5
38	38	11
34	36	5
60	60	20
108	119	5
139	140	6
80	80	5
82	82	14
137	137	10
0	24	2
11	99	4
89	90	3
10	11	1
82	111	4
49	95	2
2	4	1
51	83	3
77	125	3
128	129	5
54	57	4
50	85	3
29	30	3
26	27	11
51	52	3
67	67	10
99	100	11
83	83	6
68	69	8
32	32	22
55	92	3
69	135	1
140	140	31
108	109	9
70	71	5
76	77	6
8	9	2
5	5	14
48	49	3
1	2	4
79	121	3
4	5	4
2	3	2
113	128	1
35	36	6
73	74	5
100	102	2
119	126	1
21	22	3
3	14	2
28	135	1
84	108	1
84	84	18
101	101	11
128	128	7
95	98	2
50	51	6
117	117	13
109	109	22
60	70	4
99	102	2
118	119	10
41	43	3
81	81	17
74	74	12
87	88	6
69	70	9
87	89	2
67	68	2
25	37	6
26	38	2
115	116	3
66	66	8
83	110	4
122	123	5
120	127	6
1	22	4
47	88	3
105	106	3
76	141	3
121	139	2
56	56	15
2	24	3
36	37	9
85	116	2
28	59	2
80	81	1
10	27	4
129	130	11
59	126	2
54	56	3
140	141	4
86	98	3
8	35	3
27	38	2
74	136	3
33	36	3
63	76	7
69	97	3
56	71	3
57	120	5
43	50	3
13	14	3
43	53	1
99	103	4
15	17	2
104	107	7
107	109	2
57	57	9
76	78	8
10	71	2
109	110	3
1	3	6
12	19	3
37	95	4
60	75	4
71	72	6
30	33	5
18	19	8
13	41	1
96	96	11
33	35	1
125	129	2
71	71	5
128	131	8
64	66	2
36	38	2
12	13	6
27	29	2
0	2	2
110	112	3
28	60	4
57	82	2
88	90	3
62	99	2
40	42	3
64	83	2
56	135	1
68	68	16
72	73	2
127	138	3
73	75	3
89	110	2
123	124	4
142	143	9
64	64	14
92	93	2
26	30	3
40	41	10
6	13	3
56	75	1
71	141	4
94	95	2
83	84	9
60	136	1
52	53	4
58	77	3
13	24	2
97	117	1
85	119	2
32	42	2
102	103	1
37	97	4
103	125	1
4	6	4
134	141	1
55	81	2
57	75	3
30	39	2
69	99	4
2	23	1
11	72	1
69	72	1
81	141	2
29	41	3
116	116	7
125	127	3
90	91	2
88	89	6
49	139	1
47	49	3
57	109	2
50	87	3
73	140	1
109	119	2
88	111	1
28	103	2
64	104	2
144	145	2
1	8	2
127	128	2
96	141	3
68	70	2
54	59	1
127	132	4
8	98	2
37	38	3
132	134	1
100	124	1
6	6	5
67	70	1
34	35	1
70	81	1
82	83	1
61	62	3
66	70	1
133	135	1
55	56	1
27	28	1
102	130	2
56	132	1
25	38	2
15	23	1
0	9	2
2	13	2
101	125	2
4	35	2
87	110	1
109	111	3
57	58	3
81	140	1
17	22	1
76	140	2
53	121	1
53	139	1
21	94	3
75	134	2
37	41	2
146	146	2
133	134	1
130	131	1
65	69	2
87	95	2
6	20	2
36	145	1
131	139	3
117	118	1
57	79	1
84	85	4
11	101	1
23	24	2
55	132	1
10	26	1
75	77	4
60	64	1
49	83	1
35	37	2
20	95	2
79	119	1
10	140	1
65	70	1
79	120	1
28	29	1
2	5	1
55	79	1
51	53	2
102	125	2
80	87	1
64	126	1
51	89	1
0	11	2
82	110	2
3	8	1
49	50	1
112	114	1
58	125	1
113	116	5
104	116	2
98	113	1
59	136	1
65	72	1
78	119	2
62	64	1
24	38	2
131	132	1
62	63	3
141	142	3
36	42	2
21	59	1
26	37	2
0	37	1
20	23	2
49	89	2
85	89	1
27	101	3
69	100	1
8	37	1
62	140	1
89	95	1
30	32	1
74	78	2
139	141	1
29	32	3
59	135	2
3	34	1
82	118	2
82	85	1
110	118	1
28	38	1
39	54	2
28	41	1
68	134	2
22	94	1
48	50	1
38	42	1
106	128	1
95	141	1
95	96	1
41	60	1
22	23	1
64	103	1
21	91	1
56	133	1
106	119	1
2	34	1
104	118	1
53	56	3
143	144	1
127	137	1
54	138	1
57	77	1
1	23	1
24	25	1
51	79	1
52	138	1
2	6	1
62	133	1
1	36	1
56	79	1
