12	12	1
72	73	1
40	54	2
20	20	4
54	54	3
106	108	2
129	129	2
33	39	2
17	17	5
145	145	2
48	49	6
109	109	2
55	56	2
48	48	4
143	143	3
30	30	9
118	118	7
76	76	6
59	59	4
1	3	2
35	49	2
40	40	4
82	82	8
16	17	3
26	26	4
116	116	2
68	68	3
123	123	3
41	41	8
6	6	2
75	77	2
76	77	1
138	139	5
61	63	2
66	66	11
104	104	8
134	135	2
29	29	12
87	87	7
62	101	3
33	38	1
35	48	1
88	88	1
2	2	5
105	108	1
3	24	2
113	114	4
97	98	4
105	132	2
136	141	1
135	135	4
31	32	2
137	137	2
74	74	3
87	93	2
75	75	2
129	130	2
39	49	7
112	113	3
117	117	5
70	70	4
81	82	2
36	36	5
113	113	4
89	89	7
139	139	2
37	37	8
140	140	3
8	8	1
3	3	4
111	111	2
27	27	3
21	21	2
5	5	3
106	106	1
56	56	3
103	103	3
107	108	1
33	33	1
23	23	1
72	72	4
23	27	1
55	55	4
101	101	2
10	10	2
63	108	1
58	140	1
109	110	1
14	16	1
104	128	1
69	69	3
72	135	2
13	13	2
104	131	3
66	67	2
22	22	3
90	91	1
66	143	2
99	99	4
22	27	2
58	58	7
88	97	1
10	11	3
4	5	2
16	16	3
28	28	2
136	136	5
121	123	3
11	11	3
122	122	1
134	134	1
32	121	3
119	119	3
19	20	2
1	4	2
96	96	2
37	38	3
130	130	4
133	137	5
107	107	3
93	93	1
112	112	12
24	24	1
50	50	2
40	43	1
75	76	2
34	35	5
121	121	2
29	30	1
62	63	4
64	64	1
12	13	4
128	128	4
81	81	5
124	124	2
141	141	3
82	91	2
63	109	1
144	144	4
35	35	6
114	115	3
83	85	4
55	125	1
42	42	1
110	111	2
143	144	1
47	49	1
110	112	3
31	33	1
102	117	1
9	85	4
53	56	1
113	123	2
35	50	1
20	21	2
62	77	2
126	126	2
142	142	4
61	61	1
92	94	1
35	52	1
17	18	3
25	25	4
52	53	1
51	51	1
78	96	2
132	132	2
123	124	1
93	94	1
94	94	1
10	12	2
110	110	1
115	116	1
0	0	2
120	121	1
126	127	2
73	74	3
14	14	3
48	54	3
62	62	1
47	47	1
135	137	1
131	131	2
53	53	1
9	9	1
18	18	1
84	84	1
103	131	2
88	113	1
89	93	2
114	114	1
80	80	1
59	103	1
90	90	1
0	1	1
138	138	1
136	137	1
30	32	1
98	98	1
0	24	2
60	61	1
73	73	1
49	54	1
94	98	1
133	133	1
32	32	1
74	75	1
