20	20	6
172	172	4
28	30	7
38	42	4
112	112	9
0	2	5
48	48	1
158	170	3
114	117	8
127	197	2
7	7	19
145	145	14
187	187	16
104	158	4
26	71	5
15	17	2
96	96	13
69	69	5
27	27	8
51	52	1
106	156	4
142	142	6
33	33	2
178	178	18
79	84	3
160	161	6
110	110	13
9	9	12
172	174	7
185	186	4
82	83	4
17	18	2
45	45	8
187	189	7
181	181	1
25	62	4
38	39	8
141	141	9
84	85	2
16	20	4
167	167	15
36	42	2
156	159	1
77	77	15
165	165	16
119	120	2
34	35	7
142	145	3
41	41	2
161	166	2
72	72	8
163	163	13
39	39	3
47	47	9
11	31	3
34	34	13
19	20	9
83	83	8
52	52	13
169	184	5
38	38	9
6	6	24
109	109	10
62	62	5
56	56	7
70	71	10
66	86	1
54	54	10
197	197	2
60	60	5
183	183	5
189	189	10
24	24	17
95	137	3
191	191	7
120	135	1
94	96	3
151	151	4
18	28	1
67	69	3
32	35	3
35	35	12
122	122	3
157	157	11
173	175	5
99	120	3
177	179	1
30	32	1
194	195	8
17	19	3
112	149	3
39	40	11
76	77	17
10	10	13
161	168	4
30	31	12
0	47	3
162	163	10
100	102	5
108	126	1
104	157	4
98	98	19
163	165	4
51	55	8
84	180	4
82	85	3
174	175	7
186	186	8
68	68	5
6	22	5
167	168	11
164	167	3
152	152	6
196	197	7
94	98	5
184	193	4
11	18	1
37	49	5
142	144	9
5	6	7
135	138	3
186	191	3
80	186	1
16	37	1
101	103	2
112	113	6
19	22	9
94	94	6
147	147	5
125	125	7
125	129	1
35	75	2
31	31	6
121	121	6
15	21	1
72	75	5
12	12	16
107	152	2
32	61	5
111	148	2
127	196	1
19	19	12
80	80	8
162	162	10
132	132	13
43	79	4
188	188	7
32	32	5
174	174	17
60	128	4
40	49	1
59	64	2
13	14	2
161	161	5
95	95	3
79	81	3
120	121	5
17	38	4
130	130	3
159	160	4
23	25	4
108	109	3
32	90	3
64	64	11
117	138	3
49	49	10
30	30	8
184	195	3
159	163	5
135	137	1
126	126	2
29	29	22
121	135	5
42	42	9
161	169	4
28	35	1
5	5	9
187	188	3
188	189	7
134	135	5
27	31	4
28	34	1
18	18	10
85	86	9
150	150	6
71	71	15
57	57	13
4	4	13
24	27	3
169	169	11
0	22	1
129	163	4
8	9	4
73	73	9
101	101	21
87	187	8
23	43	4
143	143	8
124	135	2
97	97	17
57	84	8
105	111	4
101	112	3
132	139	3
120	120	11
81	82	4
149	149	11
156	160	6
51	69	4
31	32	5
183	193	5
70	70	5
19	21	7
143	144	3
148	148	12
182	192	3
58	59	7
190	190	12
181	182	8
73	76	6
158	160	2
10	11	5
106	155	4
38	45	3
66	72	2
26	63	5
196	196	3
138	138	7
136	137	2
3	4	11
115	116	2
41	42	6
117	117	8
146	147	4
158	158	4
13	13	10
102	103	1
23	23	9
176	176	9
105	106	7
159	159	9
168	175	3
74	74	20
89	89	7
173	173	5
154	154	12
169	170	11
155	180	4
12	13	9
168	168	4
152	156	2
11	13	5
139	139	3
113	114	9
33	72	1
130	135	9
184	185	1
153	153	23
113	113	4
66	66	3
182	182	10
81	81	5
116	116	1
11	11	6
150	151	7
12	21	1
147	148	4
36	78	4
83	84	7
21	21	19
0	0	13
138	139	4
98	99	6
175	176	10
59	102	1
86	87	5
45	46	2
36	36	13
1	2	2
2	2	20
125	126	6
170	171	7
94	131	2
182	193	2
14	17	1
112	118	3
164	192	3
166	167	4
73	74	6
42	85	3
43	43	7
9	10	4
74	78	3
58	58	1
2	29	1
68	70	9
13	50	2
82	82	11
26	26	10
24	25	1
123	152	4
124	159	3
106	106	10
166	166	10
131	139	5
36	163	1
178	188	5
44	44	4
28	86	2
125	127	1
155	156	8
79	80	7
115	115	2
161	162	5
156	157	5
9	11	1
76	78	1
78	78	12
37	76	3
192	193	3
166	168	2
74	75	1
72	73	4
71	72	3
79	79	4
6	7	3
46	57	5
193	193	6
102	102	8
104	105	1
30	95	3
31	94	7
78	79	7
192	194	3
38	161	4
20	21	5
171	172	5
191	192	6
8	8	17
116	119	4
21	23	3
80	83	4
41	63	1
4	5	8
109	112	3
39	41	5
43	46	2
63	189	4
172	173	5
63	128	3
140	140	7
99	101	1
132	141	2
177	177	14
11	12	11
135	135	11
133	138	1
131	131	11
124	128	1
59	60	2
63	63	2
120	122	4
163	164	9
168	169	10
164	193	3
61	71	1
124	124	5
164	164	1
101	110	4
63	190	3
61	62	2
165	193	5
160	160	10
51	67	3
61	72	2
167	191	1
106	107	4
63	64	1
114	141	1
14	14	8
62	122	4
16	16	4
155	155	4
48	49	3
53	86	2
162	164	5
60	72	1
179	179	7
3	3	13
3	6	3
67	67	14
94	95	9
47	57	3
57	85	2
62	64	1
53	53	6
114	114	13
84	84	5
2	10	1
86	90	2
66	67	1
25	40	1
14	15	2
99	142	3
126	196	3
129	129	7
185	185	4
34	37	2
61	123	1
132	133	4
40	41	8
165	168	4
118	118	10
10	12	1
86	86	7
172	191	3
21	22	6
110	112	4
28	28	3
107	147	2
103	103	4
176	177	9
25	78	1
144	145	6
4	6	2
99	119	5
105	160	2
37	37	2
55	60	2
50	54	4
186	190	2
80	82	1
169	172	1
18	19	2
121	179	1
58	128	1
103	123	2
53	54	4
25	27	5
154	164	7
186	188	5
95	96	4
23	26	7
157	159	1
55	56	3
40	79	6
39	44	4
22	22	3
107	124	1
128	128	6
103	106	1
83	185	1
152	153	3
133	135	4
156	156	7
158	159	16
46	46	8
15	19	2
88	88	4
192	195	1
193	194	4
64	69	1
48	127	1
175	175	3
195	196	3
19	29	4
26	34	1
159	161	2
165	167	2
183	184	4
43	78	1
8	17	2
111	158	2
62	65	3
62	63	4
50	56	1
26	72	6
76	76	8
100	100	5
184	194	3
55	59	1
15	15	2
161	167	3
2	18	3
46	56	1
169	174	2
27	28	1
153	155	6
151	152	3
44	46	6
116	117	6
164	166	4
35	42	2
159	162	6
24	30	3
128	196	2
165	175	1
63	66	2
25	25	3
144	144	5
82	184	1
55	55	3
71	79	1
195	195	1
127	128	5
83	187	2
129	131	1
182	183	1
164	194	5
59	194	2
51	51	1
160	169	1
52	89	2
6	21	3
139	141	2
53	88	1
103	104	1
180	181	2
5	9	3
80	81	1
53	62	2
173	174	2
184	184	8
46	139	3
183	194	2
102	184	1
192	192	5
111	112	1
1	1	7
103	168	2
106	154	1
180	180	4
14	46	3
35	39	1
44	82	3
39	79	2
134	134	5
166	172	1
67	72	2
114	115	3
113	115	2
137	137	7
144	146	4
7	8	5
25	41	4
189	190	2
72	76	1
161	165	4
177	178	4
102	157	2
64	70	3
36	190	1
62	179	4
170	170	6
103	158	1
15	38	1
111	111	2
124	179	3
47	73	2
16	45	4
43	44	3
100	130	2
124	133	2
104	163	1
169	192	2
17	17	4
143	147	2
117	147	2
53	55	3
5	21	1
56	78	1
88	90	2
37	38	4
160	167	2
59	193	3
54	60	1
53	71	3
17	65	2
64	71	1
60	61	1
49	50	2
171	171	7
154	155	3
117	118	10
133	133	2
62	191	2
35	36	4
32	33	2
46	47	1
40	40	3
50	51	2
100	120	1
16	18	1
61	94	2
35	43	1
45	140	2
75	75	7
181	185	1
56	57	2
49	57	1
43	45	1
119	149	1
111	145	1
2	3	6
42	43	1
112	148	1
47	67	1
100	183	2
25	68	2
103	130	1
157	158	3
119	119	2
88	89	3
171	181	1
25	32	1
33	34	3
81	131	1
48	54	1
36	127	4
146	146	1
123	123	2
73	82	1
100	101	7
101	142	1
136	136	3
17	22	1
63	186	1
26	62	1
169	183	3
139	144	3
43	68	1
22	23	1
157	192	2
65	65	5
154	176	2
85	85	1
81	85	2
122	152	2
87	87	2
170	172	3
23	39	1
18	23	1
0	3	1
44	125	1
56	73	1
174	176	1
24	26	2
69	71	1
143	145	1
111	152	2
72	85	2
116	148	1
34	76	2
114	146	1
194	194	1
106	110	1
99	100	1
25	26	1
81	84	1
55	82	1
167	172	1
161	170	1
58	60	1
103	109	1
118	119	3
45	82	1
22	28	1
51	53	1
57	127	2
120	137	3
1	6	1
125	128	1
9	16	1
26	27	4
117	156	2
66	81	2
94	134	2
43	190	1
121	130	1
95	135	2
124	157	1
16	23	2
133	139	1
46	140	2
99	106	2
39	46	2
109	148	3
153	154	6
112	114	1
36	79	3
40	190	2
14	16	1
165	169	1
33	77	1
60	71	2
187	193	1
16	19	1
10	14	1
10	17	2
109	110	2
24	67	1
61	61	2
0	17	2
155	173	2
68	69	1
57	128	1
57	83	1
105	105	2
38	46	1
147	149	1
126	195	1
24	28	2
128	129	1
88	125	2
100	107	1
121	153	2
42	44	3
170	173	3
101	139	1
21	24	1
104	121	2
142	143	1
43	84	1
96	98	1
51	73	1
28	67	2
96	97	1
93	123	1
81	88	1
28	36	1
60	193	1
112	143	1
68	86	2
47	86	1
63	83	2
59	59	1
44	62	1
110	111	1
147	150	1
69	70	3
33	83	1
47	85	2
79	163	1
75	76	1
79	83	1
110	114	1
104	154	1
42	178	1
37	163	3
51	75	2
84	187	1
104	128	1
50	55	1
97	98	1
128	163	1
42	76	1
45	129	1
67	68	1
18	31	1
47	83	1
94	137	2
123	187	1
62	85	1
25	33	1
181	183	1
36	77	1
32	34	1
154	171	1
84	188	1
107	107	2
25	61	1
123	129	1
126	194	1
193	195	1
58	102	1
0	1	1
50	73	1
96	134	1
143	146	1
117	149	1
42	79	1
17	21	1
36	40	1
77	80	1
49	74	1
10	31	1
56	59	1
44	45	1
156	166	1
131	135	1
47	62	1
57	136	1
57	82	1
58	193	1
44	61	1
