234	235	6
74	74	19
237	237	6
164	164	6
37	37	4
84	84	8
115	116	5
5	5	1
32	32	3
66	66	8
32	33	2
117	117	3
199	199	3
81	82	5
104	105	2
217	217	7
225	225	5
210	210	4
228	228	6
214	215	7
211	213	4
170	171	9
159	159	6
164	165	1
202	203	1
63	63	4
233	233	5
188	190	4
118	120	2
129	130	4
162	162	2
58	58	10
185	185	2
225	227	2
28	29	1
19	20	6
159	167	1
6	22	2
105	106	2
119	127	2
219	220	3
158	159	4
56	57	3
29	29	4
173	174	2
136	136	3
36	36	6
2	19	6
232	232	7
222	222	2
198	198	3
141	142	4
10	198	3
137	137	14
191	191	5
228	235	2
176	176	6
196	196	3
181	182	1
115	115	1
12	12	2
171	171	6
119	119	5
211	211	9
219	240	3
65	65	6
183	184	7
143	143	2
230	238	1
69	69	6
80	85	4
24	24	6
76	76	3
68	172	3
201	201	1
224	224	2
159	160	3
15	15	7
182	184	3
16	224	3
42	42	6
72	98	2
230	230	8
28	28	1
113	135	3
47	47	8
68	69	4
175	180	2
145	145	5
140	140	12
206	206	6
6	6	5
201	216	5
208	208	5
9	11	2
169	169	5
18	18	4
154	154	1
135	135	9
187	188	1
155	155	3
66	98	2
152	152	9
72	72	8
189	189	12
184	184	3
3	22	1
191	203	4
15	231	2
153	153	8
69	70	2
203	203	9
180	180	7
167	167	2
241	241	3
173	173	4
168	169	4
44	46	3
61	61	8
213	214	3
73	74	2
190	212	1
207	207	2
71	71	5
175	176	1
49	50	3
155	156	3
65	172	1
200	200	7
74	75	3
220	221	1
122	122	1
220	220	11
10	10	4
172	174	3
103	104	2
109	109	3
140	142	2
180	181	5
3	3	3
7	7	2
45	45	11
31	31	2
64	64	2
186	186	1
26	26	8
200	201	1
156	156	6
16	16	4
152	153	4
22	23	4
116	116	1
227	227	3
154	155	2
139	139	8
108	108	1
238	238	7
0	0	3
170	170	1
70	70	2
46	46	3
199	200	3
141	141	3
52	52	4
174	174	5
43	43	5
165	165	6
194	194	1
149	149	4
236	236	1
121	134	1
224	225	3
124	124	4
91	133	2
45	219	3
118	135	2
197	198	3
111	111	7
133	135	3
77	79	2
151	151	5
141	143	2
209	209	4
149	150	2
68	68	1
188	188	3
234	234	2
139	140	3
226	227	1
218	233	2
116	117	2
80	80	3
142	142	3
128	128	3
7	17	1
128	129	2
21	21	1
124	126	4
99	110	2
100	100	4
49	49	1
158	158	7
182	183	1
150	150	5
233	234	3
214	214	4
223	223	3
50	53	1
161	161	7
72	86	1
139	142	2
33	35	1
96	96	2
10	232	3
187	187	5
204	204	1
29	31	1
76	77	1
181	181	4
202	204	3
148	148	2
219	219	1
18	20	3
86	86	2
78	78	4
39	39	2
213	216	2
126	126	4
150	151	1
72	73	2
102	105	2
46	66	1
175	177	2
25	26	1
85	85	3
107	107	2
177	177	3
5	6	2
73	73	5
120	120	4
40	40	4
8	8	3
27	28	2
38	38	1
200	217	1
129	129	3
216	224	1
75	76	2
241	242	2
114	114	3
176	177	1
196	197	1
51	52	1
172	181	2
235	236	2
99	99	3
125	127	1
12	13	4
136	137	2
54	54	1
213	215	3
183	185	4
188	189	3
58	59	1
69	71	2
51	51	4
150	152	1
179	179	5
221	222	1
172	172	2
151	155	1
236	237	1
56	56	1
19	21	1
202	202	2
202	219	1
190	190	1
2	2	4
157	157	3
106	106	2
133	133	1
27	27	8
4	4	1
36	37	3
86	88	1
54	55	1
50	192	1
11	11	1
67	67	1
138	139	1
50	50	2
228	231	2
99	100	1
96	98	1
131	133	2
166	166	2
23	23	1
147	155	1
68	190	1
9	9	1
66	67	1
168	168	3
77	77	2
146	146	1
118	119	1
79	80	1
198	199	1
107	124	1
58	232	1
17	17	2
147	148	1
118	118	1
118	128	1
183	183	1
148	150	1
33	33	1
175	179	1
55	55	1
11	15	1
236	238	1
193	194	2
26	32	2
108	109	1
175	175	1
34	35	2
228	230	1
83	83	2
216	216	1
242	242	1
218	218	1
8	9	1
205	205	1
