28	28	15
5	5	13
19	19	11
62	63	5
77	79	3
68	68	3
52	63	6
46	46	2
77	77	14
78	79	4
22	22	8
8	8	7
47	47	5
12	21	3
25	30	1
0	8	1
59	63	4
57	57	13
74	74	14
85	85	7
11	11	13
1	6	1
75	80	2
14	14	5
16	16	5
89	89	18
65	68	2
79	80	10
15	15	7
81	81	9
76	76	7
5	6	4
64	65	8
56	56	8
48	63	7
16	18	3
8	11	3
65	66	4
53	55	5
10	10	5
89	90	5
70	70	8
60	61	4
24	26	5
72	72	10
54	54	12
32	48	2
53	54	2
69	69	30
58	58	14
29	29	4
7	17	4
5	55	3
6	6	12
3	8	3
24	30	5
4	14	2
60	60	6
74	75	11
67	68	5
27	27	6
1	1	14
46	48	4
9	9	12
67	69	2
14	23	1
12	58	2
24	27	3
87	87	17
48	49	4
71	84	6
76	79	2
67	67	4
4	5	5
78	78	3
79	79	4
20	20	2
75	79	2
50	50	12
59	59	2
32	33	3
3	20	1
73	73	9
55	55	4
86	89	2
68	71	2
61	73	1
17	25	3
82	83	5
26	30	4
19	20	8
71	74	4
9	10	3
17	24	3
30	30	16
0	0	27
65	65	10
48	48	5
10	22	1
4	4	7
21	24	1
49	49	13
2	2	6
53	63	4
73	76	1
52	62	3
65	76	3
24	31	1
81	82	6
74	81	5
51	61	2
23	24	1
12	20	2
25	25	8
51	51	16
52	57	6
53	53	4
25	27	2
52	54	2
82	82	7
22	25	3
73	81	3
13	13	13
4	19	5
59	82	2
13	27	2
87	89	3
6	9	3
83	83	3
24	25	3
26	26	5
17	17	5
70	72	4
80	87	2
62	76	1
5	17	8
0	9	3
3	13	2
34	34	3
78	80	1
22	24	2
61	61	5
12	22	1
68	69	6
23	23	3
64	66	3
31	31	7
72	73	5
62	62	8
46	49	1
15	17	1
48	50	1
56	57	3
3	18	1
5	34	2
7	7	5
86	86	8
57	60	3
46	47	1
63	63	3
20	30	3
56	72	2
71	72	4
71	77	3
72	74	5
49	52	2
24	24	8
62	78	1
59	60	1
62	66	2
3	3	5
79	86	2
25	86	1
16	19	2
1	2	1
79	88	4
49	54	2
22	26	4
74	80	3
23	25	6
32	35	1
58	89	2
58	59	3
66	75	1
65	77	4
53	57	2
84	84	6
57	67	3
55	57	1
84	86	1
80	80	3
73	74	1
73	86	2
90	90	1
3	4	1
58	82	1
12	13	4
54	55	4
88	88	2
11	58	2
7	9	5
58	66	1
54	59	1
18	19	1
21	21	4
65	79	1
74	77	2
61	82	1
70	78	1
1	4	3
83	85	2
66	66	5
86	87	3
86	88	1
6	7	2
4	8	1
81	83	1
66	67	2
52	52	7
83	84	1
84	85	3
70	77	1
0	3	4
67	78	1
10	11	2
20	27	1
77	81	1
88	89	4
71	71	6
13	23	1
20	22	3
12	52	1
17	18	2
48	52	3
52	53	1
64	64	1
2	5	1
76	81	1
76	84	1
10	15	3
75	75	4
8	9	1
61	63	1
66	74	1
30	31	1
25	26	1
13	21	1
22	23	1
78	81	2
87	88	1
63	69	1
27	28	2
52	59	2
80	86	1
79	89	1
10	52	1
55	56	1
72	75	1
49	50	4
47	49	1
0	1	2
2	3	1
58	88	1
50	59	1
81	89	1
82	87	1
75	84	1
28	66	1
66	72	2
12	12	3
59	80	2
71	82	1
10	19	1
66	69	2
57	81	2
51	63	1
66	68	1
47	48	1
29	31	1
17	64	1
77	85	1
0	7	1
55	59	1
15	57	1
70	86	1
6	8	1
52	86	1
71	75	1
19	25	1
55	66	1
31	33	1
8	14	1
62	70	1
11	18	1
