52	52	6
42	43	5
7	7	9
35	35	18
3	3	7
11	11	5
5	6	2
0	0	18
38	38	16
27	38	3
8	8	13
1	1	19
57	57	9
79	79	14
58	58	19
59	59	14
66	66	8
69	69	7
60	60	14
61	61	18
47	47	17
10	10	23
56	56	2
59	62	1
36	36	11
30	30	12
33	33	11
39	39	12
70	70	9
35	76	1
78	78	23
19	37	4
13	50	2
37	37	20
65	65	17
20	20	1
53	71	5
30	33	2
4	5	1
40	40	28
33	72	3
43	43	9
29	29	4
48	48	8
27	27	20
63	63	6
72	72	19
34	76	5
54	57	2
16	16	14
41	41	14
12	14	3
61	62	1
73	73	13
34	34	5
2	2	10
19	19	17
53	54	3
15	52	6
13	13	8
69	70	3
30	53	1
15	15	3
5	5	16
33	67	9
59	60	7
77	78	6
26	26	20
33	73	1
13	15	1
5	7	2
4	4	9
76	76	9
17	17	8
28	28	14
46	46	7
68	70	3
76	77	2
36	46	1
31	70	5
77	77	9
71	71	10
7	8	1
55	55	9
75	75	9
16	18	3
64	65	3
40	41	4
68	71	2
75	76	5
80	80	11
64	66	5
54	54	7
45	45	14
50	51	2
42	42	17
66	67	1
55	71	3
1	2	1
50	52	1
6	6	5
34	65	2
15	16	3
9	11	3
57	58	2
15	53	1
56	57	3
32	32	6
12	12	3
74	74	18
4	7	1
45	46	6
49	49	8
31	32	3
18	18	10
36	37	2
67	68	3
68	68	3
9	9	3
1	5	2
8	9	1
3	4	2
62	63	2
17	45	1
31	53	1
60	61	4
46	47	5
58	62	4
50	50	6
21	49	2
49	54	3
11	13	1
21	74	1
64	64	7
28	29	4
71	74	2
11	22	3
13	25	1
39	41	2
20	39	1
54	67	2
44	44	1
31	31	5
54	55	7
74	75	2
42	61	1
2	3	3
21	50	1
63	64	4
9	14	2
18	71	2
3	5	3
67	67	3
32	71	3
25	25	2
30	72	3
13	14	1
35	72	1
10	13	1
53	53	2
62	64	1
14	14	1
32	69	1
51	52	3
38	39	8
12	30	1
33	66	1
10	25	1
29	30	4
12	31	1
22	22	2
38	74	1
35	36	1
46	58	1
49	50	2
64	67	1
26	54	1
21	21	1
16	35	1
34	35	1
31	33	2
58	60	1
33	69	1
47	50	1
67	71	1
37	41	1
59	63	1
38	41	1
15	25	1
49	51	1
31	52	1
13	49	1
39	42	1
32	66	1
30	32	1
