96	96	4
87	87	2
89	89	9
20	20	5
44	44	5
27	40	1
34	50	1
71	81	1
31	43	1
95	95	18
50	50	9
24	24	2
40	40	2
84	85	1
62	63	6
82	83	4
62	71	1
63	63	9
25	25	2
56	56	6
67	69	4
27	27	8
67	68	2
58	58	7
28	42	1
40	46	1
72	73	4
64	93	3
87	98	1
42	48	4
41	41	3
84	103	2
75	75	7
80	87	1
82	82	6
87	88	3
61	62	3
103	103	2
62	77	1
91	91	1
106	106	4
20	21	2
35	35	6
97	100	1
96	100	1
77	77	4
90	90	7
45	78	1
30	30	3
29	34	2
55	55	4
84	84	7
31	31	2
61	61	9
65	65	1
50	51	1
34	39	2
39	61	1
97	97	2
31	32	4
86	86	6
76	76	5
98	98	5
38	38	4
52	63	2
97	99	1
102	102	1
71	72	3
80	80	6
65	66	1
26	26	2
57	57	5
50	58	2
85	85	1
72	72	3
50	56	2
49	61	2
65	78	2
32	32	5
107	107	3
36	37	1
46	47	2
32	42	1
81	81	4
75	76	1
19	25	2
101	101	4
76	93	2
40	44	1
59	59	1
68	68	2
80	81	2
20	35	1
99	100	4
99	106	1
97	107	2
27	39	1
49	50	1
98	99	1
59	68	1
83	85	3
52	52	3
56	58	3
80	82	2
27	28	1
73	74	2
66	66	1
23	24	1
102	103	2
23	59	1
82	103	3
36	46	1
53	60	1
88	88	3
62	62	4
47	52	2
82	86	1
63	64	2
44	51	1
47	59	1
94	94	4
72	82	2
77	89	2
33	34	3
46	60	1
21	21	5
90	102	2
45	45	4
92	92	3
37	37	2
74	74	2
73	73	4
68	69	1
69	70	1
93	93	1
42	42	5
26	27	1
50	54	1
101	102	2
66	67	2
59	60	1
59	72	1
79	79	2
46	61	1
57	62	1
30	33	1
71	71	3
61	64	1
73	87	1
21	22	2
100	100	5
54	54	2
23	23	2
38	48	2
28	28	1
64	64	1
101	104	1
56	66	2
34	42	2
78	78	4
36	36	1
104	104	1
66	95	1
57	76	1
70	74	1
43	44	1
99	99	1
83	92	3
51	51	1
65	77	1
89	90	3
70	85	1
102	105	3
49	49	1
77	78	1
47	47	3
46	46	1
92	93	1
105	105	1
36	70	1
32	38	1
67	67	1
69	69	1
60	66	1
91	92	1
24	29	1
43	43	1
76	77	1
60	60	2
45	59	1
82	84	1
22	24	2
53	54	1
29	36	1
91	93	1
81	85	1
33	33	1
74	76	1
45	54	1
49	55	1
29	40	1
94	96	1
30	31	1
53	53	1
97	106	1
34	34	1
22	22	1
