55	55	13
51	51	9
29	30	3
37	37	9
20	20	5
99	99	12
49	49	20
41	41	11
42	42	13
54	55	2
63	63	16
25	38	4
38	38	13
62	63	5
102	102	11
93	93	13
58	58	9
65	65	5
72	72	13
80	80	24
22	22	7
52	52	12
81	81	15
85	85	5
45	45	7
90	92	1
35	41	3
100	100	14
75	77	1
64	64	13
73	73	9
39	39	5
25	25	7
89	90	3
105	105	9
91	91	11
60	61	5
60	60	9
36	36	16
51	52	7
70	70	13
25	26	3
94	94	18
83	83	10
104	104	14
24	24	10
82	82	11
79	79	10
90	90	10
46	47	1
86	86	10
66	67	4
66	66	9
43	45	4
74	74	5
94	101	2
31	31	5
48	64	4
73	88	3
106	106	6
48	50	2
104	105	3
61	62	2
79	88	3
69	69	22
33	34	5
48	48	10
89	91	6
89	89	7
94	95	4
101	101	10
84	85	6
56	56	7
59	62	3
68	69	4
23	23	7
27	27	9
46	46	3
53	53	2
78	79	7
23	75	3
42	67	4
42	43	4
40	40	10
66	68	4
43	44	2
35	35	6
87	87	5
45	46	8
65	71	2
67	67	3
34	91	1
34	34	6
23	107	5
98	98	6
78	78	1
29	29	8
81	82	3
53	61	1
50	50	6
97	97	15
82	83	6
79	80	3
39	40	3
97	99	5
92	93	5
70	71	2
71	71	4
101	102	8
29	37	1
55	56	6
90	91	3
59	63	4
33	33	8
88	88	12
47	79	3
71	72	3
57	58	3
41	45	5
74	105	1
77	104	5
36	37	8
31	36	4
84	86	8
42	64	1
37	75	3
44	44	3
96	100	1
48	87	3
24	78	1
54	54	9
62	62	8
105	106	1
46	73	2
96	96	7
59	59	8
22	48	1
30	30	5
21	21	5
95	95	3
87	88	2
49	81	5
63	95	2
77	77	5
72	73	2
65	70	2
56	58	3
30	34	1
76	76	8
84	84	3
31	35	1
97	100	1
35	104	1
54	97	1
59	64	6
46	48	2
68	68	8
99	100	3
21	37	1
46	79	1
83	84	3
102	103	3
34	36	1
40	43	2
80	81	6
40	42	3
49	62	4
49	88	1
80	87	1
56	57	6
86	87	4
47	48	3
40	68	1
32	32	1
47	47	3
81	86	4
52	58	3
25	28	4
75	75	6
52	53	1
36	41	2
100	102	2
57	57	4
81	88	1
58	60	11
57	84	1
61	61	6
89	92	1
48	63	1
26	26	2
104	106	3
32	37	3
41	65	1
97	98	3
77	105	1
100	101	1
71	73	3
37	88	3
42	44	1
92	94	1
26	28	1
76	89	3
41	67	1
22	23	2
34	42	1
94	100	1
44	45	2
96	99	1
76	106	1
43	43	4
53	54	4
48	49	2
52	62	1
33	42	4
77	78	1
63	64	1
24	37	2
64	65	3
93	94	2
65	66	3
30	33	1
23	38	1
92	92	4
91	102	1
49	50	2
69	81	1
35	36	1
66	81	1
57	59	1
28	28	1
51	55	2
93	102	1
30	31	2
26	27	2
50	102	1
74	75	1
98	99	2
50	58	2
75	76	3
39	62	1
30	89	1
74	88	1
43	78	1
77	90	1
61	82	2
107	107	1
22	39	1
31	32	1
36	91	1
23	29	1
79	87	1
58	59	1
