129	137	1
52	53	3
97	97	5
0	51	4
10	10	6
85	85	7
17	17	5
141	141	3
146	146	3
65	74	1
115	115	2
130	130	12
18	19	5
31	54	1
135	135	3
9	11	2
13	13	5
67	156	2
77	77	7
92	92	13
65	65	5
38	38	9
79	79	2
86	91	5
16	17	3
152	153	4
4	4	15
151	154	2
145	145	5
38	39	3
11	11	1
16	16	3
86	86	7
22	22	8
25	25	5
31	31	5
114	114	2
26	26	5
107	110	1
91	91	7
149	149	4
73	73	10
27	27	2
117	117	1
156	157	4
36	36	4
78	109	4
6	73	1
131	131	3
127	141	1
42	42	11
99	99	12
62	62	2
133	133	4
9	16	4
35	35	1
21	21	12
45	45	3
95	95	8
100	100	7
48	48	3
120	120	6
124	124	6
123	123	7
113	131	4
139	139	6
1	1	4
150	150	8
153	158	6
156	156	5
64	64	2
127	127	3
69	72	5
129	130	5
67	67	8
101	101	2
105	133	2
107	114	1
18	52	4
67	83	3
144	144	10
97	98	8
77	107	2
70	83	1
107	108	3
109	111	1
44	44	8
155	155	4
104	104	1
103	103	3
66	74	1
118	118	5
5	5	9
51	52	2
157	157	3
78	78	6
70	70	5
47	47	3
131	135	3
2	2	3
29	29	8
15	15	2
142	142	5
18	18	9
148	148	5
98	98	6
39	39	5
1	2	6
151	151	6
100	101	1
49	134	2
28	28	8
96	96	16
46	46	7
9	9	3
37	37	8
142	151	2
77	108	2
19	47	1
108	114	2
122	122	6
45	47	1
134	134	4
9	10	9
12	12	3
110	110	3
131	154	5
7	7	6
6	6	3
154	154	4
41	43	1
96	97	3
67	71	3
33	33	4
107	107	4
54	54	5
84	85	2
35	48	2
22	23	1
68	68	4
4	27	1
129	129	6
75	75	7
94	94	2
5	6	2
126	127	5
95	96	2
48	49	2
118	142	2
23	23	5
3	3	1
121	121	1
105	105	4
111	112	3
56	56	7
93	94	2
34	49	1
106	106	3
116	116	3
99	100	3
30	52	2
94	95	2
40	40	1
108	108	2
113	113	2
93	93	1
81	81	1
29	47	1
101	105	2
1	39	3
116	118	1
146	147	4
105	107	2
4	26	1
80	81	1
29	30	2
54	55	2
136	136	5
29	38	4
2	94	1
65	66	1
69	69	3
132	132	3
83	83	4
137	137	2
79	82	1
24	24	2
65	80	3
152	152	5
136	137	2
43	43	1
65	73	2
63	63	2
9	111	2
66	81	2
114	125	3
107	109	1
126	126	3
47	48	1
77	158	2
122	123	3
138	138	4
32	32	2
89	89	2
83	94	1
68	70	1
25	43	1
85	86	1
30	30	3
127	128	1
80	107	2
87	87	1
7	13	2
154	155	2
7	30	3
140	140	2
119	119	2
125	127	2
122	124	1
137	138	1
52	52	1
65	129	2
41	42	1
119	132	2
104	105	2
110	112	3
68	71	3
131	133	2
13	14	2
118	119	2
134	136	3
34	34	1
49	49	1
71	71	1
118	134	1
63	71	1
90	90	1
49	98	1
31	38	2
41	41	2
8	8	1
130	140	1
53	53	3
72	73	1
147	148	1
113	156	1
84	84	1
99	101	1
14	14	1
144	148	1
47	98	1
146	153	1
136	152	2
11	137	1
16	18	1
45	50	1
55	55	1
