1	10	4
166	166	4
7	7	5
153	168	2
114	115	3
18	20	3
42	42	2
16	16	2
65	65	8
90	101	4
123	158	4
15	35	2
70	70	1
8	17	1
85	85	4
6	6	7
146	146	7
84	84	7
83	83	7
19	19	4
163	164	5
132	141	3
34	45	6
53	53	5
9	9	2
65	67	3
164	164	2
63	83	3
65	77	3
114	135	1
69	69	6
81	104	2
113	113	8
45	46	3
151	159	4
159	159	2
146	159	1
96	96	11
62	65	2
148	148	10
132	132	4
39	42	1
94	103	2
137	137	4
100	100	2
105	109	4
34	34	2
81	81	11
39	45	1
140	140	3
11	15	4
8	8	1
78	78	7
121	141	3
116	135	4
72	72	8
86	87	3
14	21	1
19	35	2
67	77	3
41	41	8
16	33	4
143	164	1
105	105	4
24	33	2
62	105	4
100	116	2
39	44	1
3	3	5
128	128	5
112	134	2
0	35	1
81	90	1
112	112	3
89	120	3
104	104	1
145	145	9
94	94	11
142	142	6
52	52	1
116	130	3
63	63	4
92	92	5
99	126	1
37	38	1
83	88	5
139	139	1
40	51	2
97	97	4
141	142	2
167	170	2
113	129	2
90	113	3
121	121	1
150	150	4
41	42	5
165	166	5
103	103	3
101	101	5
26	36	1
27	28	2
69	79	3
2	23	2
36	65	1
11	11	4
111	150	2
11	13	1
133	146	5
47	56	2
57	57	10
15	15	2
100	103	2
74	74	5
118	120	1
162	163	2
24	45	2
131	131	3
20	20	4
112	150	6
66	66	5
136	136	5
25	25	3
127	130	2
78	80	3
26	26	2
143	160	3
90	90	5
1	1	4
153	157	3
71	71	5
147	159	3
149	149	1
63	81	2
64	69	3
68	94	1
162	162	2
89	108	2
86	100	1
0	160	1
143	143	1
75	75	3
142	153	2
93	93	4
0	159	3
51	52	1
88	88	1
35	35	5
1	35	2
144	160	3
39	39	6
118	122	2
163	163	2
76	88	4
50	66	1
168	168	4
130	130	2
127	127	2
36	36	4
65	80	1
101	135	2
139	166	3
53	55	2
114	133	1
111	137	1
132	143	1
68	81	1
77	77	5
123	123	1
125	125	2
103	108	1
129	129	1
87	88	3
108	108	2
113	116	4
17	17	4
122	122	1
93	115	2
126	148	2
110	110	1
58	66	1
76	93	1
105	106	2
68	68	1
69	94	1
4	4	2
74	83	4
46	114	3
151	151	1
163	167	3
141	167	3
151	168	1
87	87	5
28	28	7
35	40	1
138	138	3
135	135	3
160	167	2
150	153	3
71	73	2
77	78	2
21	22	1
0	12	1
119	119	6
117	132	3
118	118	1
27	37	2
133	134	1
106	111	1
144	144	5
20	21	4
24	24	3
146	158	1
35	57	1
122	137	4
15	18	1
144	169	1
95	96	2
109	130	1
147	147	1
116	116	3
15	16	2
18	18	2
87	106	2
22	40	1
18	25	1
161	164	1
22	22	2
140	141	1
154	154	2
96	97	1
137	141	3
80	80	2
93	104	3
143	166	2
126	126	1
38	39	1
50	50	4
102	119	1
67	68	2
89	89	1
49	63	1
58	64	1
121	139	1
166	168	1
160	160	1
168	169	2
103	113	2
123	125	1
152	165	1
134	143	1
118	125	1
68	69	2
11	12	1
90	105	1
124	147	1
76	87	2
113	115	2
86	86	2
127	129	1
10	10	3
48	96	1
110	111	1
78	81	2
43	44	1
124	124	1
49	50	1
153	153	1
133	164	1
102	104	1
87	107	1
140	142	1
137	143	1
48	49	3
48	58	1
90	91	1
21	36	2
17	33	4
119	122	2
97	99	1
15	22	2
13	43	1
100	119	1
63	82	1
152	152	1
37	40	1
73	73	1
8	10	1
91	104	2
38	38	1
128	149	2
115	115	2
104	107	1
119	120	1
117	138	1
47	48	1
25	42	1
49	95	1
11	159	1
111	133	1
142	165	1
153	166	1
158	158	1
12	12	1
13	13	2
123	127	1
13	14	1
66	80	1
62	62	1
156	156	1
46	74	1
56	56	1
2	2	1
