134	134	5
82	82	14
40	47	3
4	4	22
14	15	9
54	68	4
122	122	8
33	34	2
129	130	6
24	24	13
125	126	2
26	26	13
63	66	4
150	150	22
46	46	23
22	22	14
85	85	16
76	76	8
39	40	3
113	123	3
102	118	1
41	41	10
35	35	23
3	3	26
155	156	4
49	49	7
133	137	2
15	16	13
62	81	1
38	38	35
11	11	7
153	153	9
130	130	8
167	167	10
54	95	5
157	157	23
163	163	10
110	110	5
159	159	17
158	158	14
137	137	37
120	121	5
140	140	19
43	43	16
83	83	7
64	154	2
124	124	9
58	157	1
103	103	6
2	39	4
144	144	23
132	134	8
45	45	15
57	93	4
93	94	1
116	116	20
139	139	18
109	110	10
83	86	4
1	151	4
159	164	2
74	112	2
156	156	14
96	96	13
101	101	8
72	85	2
113	114	12
92	92	21
1	45	1
109	109	9
25	46	5
84	84	2
125	125	13
138	138	14
118	118	14
6	6	21
8	43	3
154	154	17
92	93	4
13	14	2
27	27	10
39	87	2
106	106	10
169	169	10
58	62	5
94	95	4
88	88	13
76	77	12
6	8	2
135	137	2
15	17	3
1	2	13
129	129	15
161	161	22
125	127	3
58	97	1
127	128	5
50	169	2
160	160	12
90	90	7
40	40	20
111	111	15
130	131	3
117	121	2
77	77	6
82	142	2
144	145	5
25	93	4
115	115	11
2	2	18
97	98	5
51	51	9
94	94	15
139	144	15
85	86	7
36	36	20
93	93	17
0	0	10
120	120	11
58	58	1
23	23	10
158	159	5
8	8	7
146	152	3
62	62	7
13	111	2
141	142	1
105	106	3
76	82	2
26	27	4
13	17	2
53	158	2
121	122	1
119	119	15
155	155	18
103	120	3
136	149	4
113	115	8
73	156	1
162	163	3
79	79	13
37	37	25
146	169	2
1	1	5
57	64	6
82	99	5
81	81	5
126	127	4
73	73	9
13	83	4
52	53	1
111	116	2
19	25	5
58	98	3
162	169	9
107	130	2
123	147	2
113	154	2
123	125	1
6	64	2
69	69	5
101	105	1
55	55	6
34	34	9
72	72	6
140	141	2
132	133	3
9	45	2
74	90	2
72	76	2
110	112	2
78	78	8
123	123	12
25	25	7
33	33	10
7	22	4
87	87	3
131	131	14
162	162	8
127	127	7
135	136	15
147	147	4
106	151	1
49	50	2
70	81	3
116	121	2
62	63	4
57	57	6
135	135	17
102	102	11
109	151	2
170	170	13
68	68	5
96	97	7
63	70	1
2	26	2
18	18	20
83	150	2
5	5	8
136	137	4
74	142	2
107	131	4
42	42	16
7	7	10
23	24	2
17	26	1
11	116	1
14	20	6
104	104	14
159	163	2
67	68	4
21	21	13
7	10	6
157	158	2
1	96	3
99	99	12
80	80	12
88	157	4
13	13	12
12	142	3
145	155	3
151	151	24
56	88	1
152	152	11
58	73	5
107	107	28
150	151	9
164	164	3
52	52	11
114	114	16
63	63	9
43	88	3
12	12	10
116	127	7
91	91	11
128	131	3
108	138	2
89	89	8
112	157	3
26	71	1
48	48	14
143	143	13
47	47	13
126	126	26
70	70	13
5	6	1
0	1	13
44	44	9
75	75	5
142	143	2
100	103	4
46	48	1
50	50	6
101	157	4
145	145	24
16	16	4
100	100	5
26	93	6
67	154	6
36	37	5
136	136	15
64	64	4
132	132	4
128	128	11
1	55	2
0	53	1
45	52	5
81	82	4
105	105	10
17	17	4
86	86	13
48	49	3
102	117	3
108	150	1
101	102	2
48	52	3
111	112	7
50	51	2
66	70	2
164	165	2
96	98	1
12	18	1
64	65	4
8	113	2
101	104	6
20	22	1
89	97	2
160	161	1
80	82	5
103	105	3
98	99	4
105	163	3
104	105	5
156	157	5
53	53	15
77	87	1
167	168	3
129	136	4
100	101	2
8	9	7
117	117	7
90	135	1
116	161	6
77	140	2
112	114	3
163	164	3
47	48	8
165	165	8
138	139	4
103	127	2
84	85	7
41	43	2
84	120	1
28	38	1
136	148	1
28	63	3
10	10	10
108	145	2
105	120	3
74	111	1
113	113	4
93	95	1
121	121	5
57	139	4
12	23	3
144	155	4
73	76	3
168	169	2
80	81	7
24	108	2
118	119	7
143	144	3
37	151	1
74	74	14
52	69	1
117	120	3
96	134	2
46	47	4
76	142	1
49	52	3
63	80	2
110	168	1
90	99	2
90	140	1
97	97	4
43	44	6
136	144	3
142	142	10
20	21	5
62	68	3
108	108	9
47	49	3
28	64	3
81	83	3
88	89	1
63	71	7
3	26	1
81	85	3
2	3	1
166	167	3
64	66	1
95	95	6
166	166	7
13	21	1
87	147	9
58	66	1
37	42	2
133	135	3
25	36	1
72	145	1
8	44	5
4	14	1
124	127	4
57	62	4
112	128	3
9	12	4
159	160	7
81	156	3
35	36	2
19	27	3
73	74	3
88	111	2
2	55	3
83	99	1
62	64	1
109	112	1
19	19	15
80	86	2
11	13	5
15	15	6
97	129	3
41	45	3
4	12	1
4	6	2
86	107	2
92	99	1
9	9	13
108	131	1
34	106	1
1	7	2
83	84	9
18	44	3
78	79	1
42	114	2
71	71	7
66	66	5
146	150	2
28	28	3
55	56	8
45	100	1
55	63	4
146	153	3
39	39	8
118	120	3
83	92	1
67	148	3
38	81	4
93	159	3
78	80	1
132	142	2
26	90	1
146	147	3
64	70	2
133	134	3
12	15	4
46	68	2
73	75	1
42	44	4
136	138	1
38	41	2
129	134	2
127	160	3
151	156	1
128	158	2
52	55	1
1	56	2
42	43	6
72	116	1
133	133	11
104	120	3
20	27	4
54	54	1
17	18	2
57	153	3
18	19	7
46	90	1
56	57	3
53	70	6
146	146	7
98	98	7
36	105	2
28	62	1
6	7	8
112	112	3
12	20	3
9	27	2
62	82	1
53	54	2
76	152	3
66	154	1
2	19	1
15	139	2
112	113	4
83	144	1
15	21	1
73	90	2
53	80	2
90	144	3
113	116	1
19	69	2
5	70	1
47	89	3
113	125	2
65	75	1
94	122	1
110	130	2
0	6	1
98	130	1
4	21	2
98	118	1
111	130	1
5	7	1
34	35	1
16	19	1
149	149	3
27	28	3
124	146	1
141	141	4
24	28	2
2	21	1
147	153	1
90	91	1
63	77	2
5	19	3
132	146	2
74	80	1
58	72	1
56	56	3
11	14	1
19	20	1
90	119	3
112	158	2
14	14	3
94	107	3
37	43	2
147	148	3
56	94	2
93	104	1
20	20	1
101	103	1
46	55	1
141	157	1
79	107	1
134	135	1
51	165	2
79	86	1
19	46	2
78	112	2
79	105	1
46	61	2
75	136	2
55	69	1
124	148	2
11	138	1
8	66	2
98	158	1
51	55	2
130	168	2
53	68	2
82	144	1
119	120	1
87	105	2
90	117	1
111	158	3
99	101	3
75	109	1
106	107	2
8	16	1
52	161	3
99	129	1
69	70	1
57	152	1
124	145	1
43	52	1
6	9	1
114	117	2
95	97	2
18	40	1
151	152	1
51	170	1
94	113	1
113	147	3
116	118	2
63	64	1
23	25	2
51	52	2
94	105	1
65	65	2
132	143	1
168	170	5
102	159	2
4	19	1
75	137	2
119	154	1
73	126	1
73	143	2
6	47	1
2	53	2
2	54	1
108	130	1
47	50	1
161	162	2
72	77	2
53	55	1
2	7	1
10	11	1
22	42	1
79	80	2
1	17	1
117	123	2
66	69	1
111	159	1
144	151	2
152	154	1
65	142	1
106	125	1
14	21	1
53	57	1
123	124	2
149	150	1
8	10	2
63	69	1
7	13	1
106	114	1
7	9	1
39	50	2
147	149	1
95	117	1
168	168	1
6	18	1
13	18	1
28	161	1
71	77	1
50	64	2
14	143	2
7	23	1
86	149	1
20	151	1
74	126	1
63	68	1
153	154	1
103	142	1
72	100	1
86	105	1
77	156	1
123	127	1
71	72	1
117	119	2
28	52	1
34	150	1
117	158	1
54	152	1
8	71	1
16	140	1
98	157	1
69	110	1
123	126	2
119	161	1
56	90	1
46	69	1
28	76	1
77	78	1
19	26	1
6	20	1
135	155	1
76	79	1
11	142	1
128	130	1
9	13	2
3	4	1
155	158	1
67	67	1
10	25	1
126	128	1
86	121	1
