93	97	4
147	148	2
160	160	6
9	51	4
136	136	12
72	127	5
10	10	4
14	14	1
135	135	6
139	140	2
100	100	16
84	100	3
115	115	7
147	147	10
164	164	10
37	37	13
52	52	8
141	142	4
126	126	3
15	16	1
98	98	4
108	108	18
1	40	2
91	95	7
88	88	5
128	138	5
124	124	8
106	106	3
117	117	5
143	143	6
34	34	12
149	150	5
71	130	2
168	168	7
136	137	3
124	125	4
100	102	3
148	148	9
86	86	5
107	107	11
23	24	5
92	92	4
62	62	1
44	45	6
130	130	6
161	164	4
77	77	3
22	22	11
5	79	1
91	91	16
52	154	4
117	118	7
94	94	5
134	137	1
78	78	5
50	51	6
149	149	21
89	89	12
4	76	4
108	110	5
11	11	9
83	115	3
25	25	6
163	164	5
114	114	4
129	129	2
141	141	8
144	144	3
145	145	9
105	106	5
7	7	5
38	40	2
125	160	5
65	65	10
64	64	4
151	151	9
142	142	9
131	131	5
27	27	3
13	146	2
146	146	2
112	112	7
144	151	4
167	167	1
93	93	8
130	143	1
127	127	7
120	121	1
144	145	6
46	47	4
2	2	2
15	20	1
135	136	2
88	135	4
152	152	6
103	152	1
83	84	4
109	110	3
156	156	11
126	127	2
50	50	3
15	21	3
8	10	1
79	112	5
96	96	5
99	99	7
18	57	1
3	3	3
1	165	2
139	139	7
103	104	1
150	150	3
122	124	1
56	56	4
87	88	2
120	136	3
56	97	5
165	165	11
88	89	8
159	160	2
12	17	4
5	78	2
157	157	4
13	17	2
164	165	2
162	163	7
159	159	2
33	34	3
115	152	1
5	6	5
37	41	3
20	20	3
122	122	5
73	73	5
74	74	6
111	111	4
116	144	1
114	115	6
11	12	3
54	76	1
98	99	2
53	53	5
63	63	7
73	130	3
6	6	4
69	69	3
154	154	1
162	162	3
8	65	3
55	55	3
82	83	5
110	110	13
120	120	1
169	169	13
89	90	10
35	35	6
76	76	2
82	85	2
128	140	2
91	143	2
91	133	1
15	35	1
92	93	3
13	90	1
68	68	5
86	87	2
82	82	3
85	85	7
33	33	1
23	23	2
170	170	7
133	133	8
90	90	4
88	137	2
133	160	2
21	21	4
4	4	2
143	144	2
152	153	1
74	78	3
75	75	4
119	133	2
132	132	2
113	116	2
125	125	4
23	25	1
118	118	3
54	55	1
153	153	3
116	116	1
113	114	3
121	122	2
70	70	5
9	10	7
45	45	4
117	144	2
137	137	7
25	56	1
165	166	4
17	24	1
47	47	7
13	147	2
161	161	3
17	42	2
123	123	2
101	101	6
55	56	6
18	48	2
117	120	2
55	78	1
1	1	3
10	53	2
86	88	2
41	41	6
119	120	1
54	54	4
79	79	5
67	67	1
166	166	5
42	109	2
20	51	1
110	111	2
15	89	2
136	149	3
4	105	3
111	114	1
42	135	4
112	114	2
137	149	1
136	140	2
101	102	4
18	20	2
104	104	5
105	105	3
81	81	2
10	56	2
0	0	2
109	109	1
71	71	4
64	65	1
134	134	2
86	117	3
55	98	2
119	121	3
83	85	2
94	96	1
66	66	4
112	116	1
38	39	2
160	162	2
82	114	1
139	156	1
102	103	1
97	97	1
85	86	6
161	168	2
73	98	2
13	13	1
102	102	6
158	158	3
140	140	2
80	80	3
5	5	1
9	12	4
92	132	1
11	48	1
156	169	1
113	113	3
163	163	6
159	163	2
8	14	1
151	158	1
38	38	1
44	44	2
45	49	1
91	170	1
67	68	2
21	56	3
15	15	3
7	8	2
17	17	3
24	57	2
101	161	2
160	161	1
153	154	1
84	87	1
117	154	1
137	157	1
0	7	2
150	151	1
42	42	2
74	75	2
133	134	1
45	46	3
144	157	1
16	16	1
99	115	1
104	117	2
155	155	2
121	136	4
87	87	3
141	143	2
129	130	1
135	163	2
65	66	1
134	159	1
53	54	1
36	36	1
13	14	1
169	170	1
8	64	1
121	121	1
18	45	1
128	129	1
91	113	1
2	164	1
167	168	2
119	135	1
138	138	1
24	24	2
85	99	1
85	118	1
138	143	1
48	48	2
128	128	2
113	168	1
40	41	1
41	42	1
168	169	3
18	18	1
134	164	1
160	169	1
19	20	1
83	83	1
8	8	1
45	47	1
119	137	1
134	135	1
107	108	1
63	64	1
