2	16	3
62	62	9
3	3	3
187	187	10
171	173	3
166	166	1
145	145	1
1	1	4
42	42	6
143	144	4
65	65	7
10	12	5
178	178	4
14	27	4
158	190	1
180	180	4
115	123	2
81	81	1
11	11	2
195	195	2
21	50	2
7	8	3
36	36	8
166	187	4
40	40	4
65	85	6
111	111	3
191	191	1
165	165	5
132	155	1
147	148	7
109	109	4
33	33	2
25	67	1
79	79	8
38	60	2
103	103	5
10	72	4
157	174	3
72	72	3
71	76	2
67	68	3
17	122	2
20	24	3
148	148	5
15	30	3
8	8	3
71	71	7
146	146	2
23	23	5
34	35	1
6	6	3
82	82	1
139	139	3
194	194	4
61	85	1
149	149	4
11	20	1
103	105	3
179	179	3
10	25	5
156	156	10
167	167	4
137	137	4
108	192	1
137	196	2
174	175	2
173	176	1
114	114	2
182	183	2
75	76	3
102	102	2
17	17	1
161	161	9
28	28	1
15	119	4
105	106	1
113	127	2
97	98	1
134	134	9
44	62	2
1	16	3
27	27	1
22	76	2
56	56	4
134	135	5
116	116	2
172	173	2
30	122	2
179	180	1
184	184	4
177	177	9
142	143	3
41	42	5
122	166	2
111	114	2
96	96	4
97	97	3
15	15	1
161	186	4
125	127	5
143	165	2
151	151	2
79	90	1
54	56	3
153	155	1
17	18	3
171	171	3
32	32	1
29	30	3
0	31	2
13	24	2
53	53	2
47	48	3
40	59	1
99	100	2
18	120	2
142	193	1
31	31	2
55	55	3
18	18	2
5	7	3
82	83	3
129	129	4
45	45	2
116	161	1
135	135	2
5	6	1
138	139	2
33	34	3
119	156	2
140	140	4
152	152	3
44	44	7
93	93	3
13	123	1
143	143	2
132	132	2
77	77	1
66	135	1
66	134	2
4	13	8
127	127	5
17	116	1
163	165	2
50	50	4
114	115	2
69	69	1
175	175	2
188	189	3
14	29	2
168	168	3
155	155	3
78	79	9
66	66	4
66	142	1
38	38	2
153	157	1
76	76	2
196	196	4
116	186	2
157	157	4
21	21	1
134	165	1
184	186	3
149	150	1
30	32	1
48	58	4
49	49	3
54	54	4
4	4	2
34	34	2
153	153	5
53	105	1
86	87	4
78	78	3
54	129	1
113	113	1
83	85	1
192	192	1
125	125	2
112	112	6
83	87	1
17	28	2
52	52	1
182	190	2
5	5	3
74	74	1
25	25	4
139	140	1
94	94	1
33	87	1
120	120	2
11	197	1
98	99	2
118	118	3
144	144	1
115	115	1
188	188	4
123	123	2
159	160	2
72	73	2
84	84	2
179	181	1
83	84	4
82	90	1
123	124	1
131	193	1
15	26	2
23	50	2
68	68	2
189	189	2
160	162	3
184	185	1
55	56	4
131	131	1
39	39	4
108	193	1
20	26	2
47	57	4
95	95	2
7	7	1
197	197	3
39	101	1
28	121	1
30	136	2
34	38	1
10	22	1
23	63	3
11	74	2
85	85	1
51	51	1
11	29	1
160	161	5
32	36	1
117	185	1
117	117	4
35	83	1
73	74	2
110	110	1
116	117	2
30	30	2
13	14	1
64	83	2
104	104	2
14	124	1
117	118	2
19	26	1
122	122	2
111	130	1
137	142	1
3	4	1
85	87	2
128	128	3
86	86	1
55	133	1
100	104	1
115	155	1
37	129	1
147	147	2
174	174	2
38	53	1
105	105	1
98	98	2
10	84	1
154	185	3
33	35	1
130	130	1
133	135	3
18	119	1
190	191	1
170	170	2
136	146	2
0	0	1
175	192	1
43	43	1
131	132	1
41	41	2
151	156	1
177	186	1
26	69	1
164	164	1
96	98	1
4	24	1
141	141	1
49	62	1
163	164	1
63	64	1
165	187	1
159	159	2
119	123	1
40	41	1
39	105	1
17	120	1
53	60	1
