95	95	8
83	83	8
122	123	3
3	5	1
50	50	8
56	56	6
119	120	4
101	102	4
1	1	4
56	70	2
69	69	3
31	31	3
124	124	6
26	26	8
125	125	5
17	17	4
74	75	2
19	19	4
87	87	2
0	0	3
18	18	6
91	91	9
88	139	3
12	23	4
128	128	9
20	20	5
72	72	1
101	117	4
39	57	3
40	41	7
11	11	8
83	87	3
144	144	4
91	141	2
60	60	2
81	84	3
41	56	2
78	78	1
133	134	4
77	77	5
38	54	3
133	138	1
15	15	5
70	70	3
87	140	5
51	51	2
6	20	3
62	133	2
10	10	1
100	101	2
133	133	4
61	61	3
11	67	2
135	135	1
109	109	1
27	27	9
25	25	3
8	9	2
98	116	2
41	41	4
68	121	2
3	23	1
117	119	1
118	119	2
81	81	4
64	108	2
10	12	2
15	16	2
38	38	5
28	29	2
123	140	2
93	94	1
107	133	3
59	104	1
105	105	3
33	34	1
53	72	5
107	107	3
129	129	2
14	32	2
126	131	5
134	138	7
96	132	2
64	64	4
139	139	6
97	97	4
48	48	2
142	142	2
129	130	2
39	40	1
16	16	1
43	43	3
130	131	1
140	140	3
69	97	2
108	109	3
36	36	1
73	73	2
58	130	3
134	134	1
118	127	1
99	136	2
42	42	1
62	62	4
3	3	2
106	129	1
118	118	5
75	121	2
54	55	4
59	105	2
127	127	1
8	126	1
42	72	1
61	105	1
80	139	1
109	110	1
65	67	1
18	19	1
62	124	2
135	136	2
104	130	1
36	37	5
79	80	2
43	72	3
75	75	2
21	21	3
123	123	3
85	85	2
109	132	4
2	2	3
12	105	1
80	80	1
136	136	1
96	96	3
39	39	4
63	106	3
83	86	1
97	137	2
88	91	1
79	79	5
95	96	1
5	5	4
111	111	6
64	65	2
37	37	7
75	89	1
66	68	1
98	98	1
94	94	3
76	76	1
28	42	2
52	56	2
122	137	1
56	115	1
110	110	1
99	100	3
47	52	2
19	20	1
112	117	2
77	116	2
88	89	3
67	67	1
82	109	1
61	67	1
40	53	1
28	30	1
83	144	1
143	146	5
80	142	1
6	6	1
96	126	2
107	134	2
104	104	2
103	103	2
49	49	1
23	26	3
84	142	1
12	12	1
14	14	3
38	53	1
85	86	1
61	112	2
104	135	2
0	55	1
39	124	1
32	32	1
55	56	1
47	107	1
106	137	3
34	35	2
85	139	1
81	144	1
27	28	1
99	99	4
82	110	2
20	21	1
1	54	1
55	55	2
60	67	1
87	91	2
57	57	3
115	115	1
12	127	1
71	71	3
63	102	1
137	145	2
59	59	1
13	13	1
102	102	1
83	85	1
142	143	1
132	133	1
113	114	1
93	125	2
34	34	1
141	142	1
60	61	2
107	112	1
72	73	2
29	29	1
59	135	1
58	58	1
10	19	1
32	51	1
2	3	1
54	125	1
55	83	1
63	63	1
137	137	1
23	69	1
101	101	1
8	19	1
86	86	1
52	124	1
9	10	1
