63	68	1
95	95	7
78	80	2
36	36	3
101	101	7
62	67	3
110	129	4
99	112	5
20	35	1
107	126	2
5	5	10
88	88	6
32	33	3
24	26	1
58	70	3
124	124	5
109	125	1
55	55	1
18	18	11
4	5	3
114	115	7
28	35	1
101	104	2
55	57	3
127	134	7
60	69	2
80	80	8
10	11	7
97	97	7
60	61	2
103	103	9
76	78	2
13	14	7
111	115	3
99	100	3
64	64	5
118	132	3
29	31	1
4	4	11
73	85	1
23	26	3
130	130	7
50	86	2
10	10	4
122	134	1
118	118	10
76	76	3
106	106	4
1	14	1
8	9	1
121	123	2
38	38	5
74	93	2
21	21	4
107	112	2
103	109	2
82	82	6
19	25	1
102	112	3
96	96	1
7	7	4
30	31	5
74	76	1
57	67	1
26	29	1
124	129	2
15	15	9
106	110	4
79	91	2
14	17	1
78	78	9
55	63	5
19	24	6
119	120	3
128	128	2
123	133	1
50	56	4
7	19	2
117	120	2
132	132	5
8	14	1
22	22	2
89	90	2
109	109	5
109	114	1
73	73	10
9	21	2
119	123	9
86	87	3
102	105	3
95	102	4
30	30	11
97	99	2
54	54	7
108	108	4
84	103	2
32	32	6
8	8	5
43	46	2
116	126	2
33	33	8
3	3	3
23	30	4
16	25	1
124	131	3
45	45	8
90	90	11
34	34	7
122	123	6
30	50	4
110	131	3
43	69	3
49	55	3
117	117	5
79	79	3
114	114	3
0	14	1
85	86	1
118	121	5
104	107	3
72	85	3
125	125	7
105	105	6
60	62	1
79	119	4
1	4	1
9	9	13
61	64	2
12	12	2
134	134	2
69	69	4
1	3	2
12	18	5
45	46	1
17	25	4
115	126	13
71	84	1
92	92	7
14	15	1
100	100	5
70	70	5
55	56	3
113	129	3
6	10	2
6	6	4
122	124	2
86	86	4
104	110	4
12	13	2
2	2	4
120	121	4
121	121	12
66	66	5
70	72	5
71	72	2
45	47	2
2	10	1
80	83	3
34	38	1
65	68	4
128	130	5
56	67	2
133	134	4
108	113	2
93	101	3
127	127	3
123	124	4
37	130	1
135	135	5
52	56	2
44	64	6
4	13	3
73	134	1
102	103	4
72	90	1
93	93	9
84	108	2
94	99	1
96	98	4
72	72	4
124	127	2
125	128	2
30	35	2
129	129	6
89	89	1
126	128	5
84	84	8
123	130	1
116	118	4
94	95	4
71	75	1
9	16	1
20	20	10
107	108	1
83	84	2
63	74	1
53	62	3
108	110	4
124	130	2
27	28	3
62	62	8
98	101	3
4	7	2
111	120	1
50	107	1
70	71	4
25	25	3
73	74	2
72	86	5
85	102	1
98	99	1
68	68	4
85	92	2
24	24	6
84	132	1
54	56	1
5	15	3
57	61	2
44	87	4
49	134	2
80	85	1
99	101	2
17	34	1
108	118	2
107	107	2
115	131	1
65	73	2
75	75	8
69	70	1
43	43	7
58	58	3
11	33	1
81	81	2
123	125	8
32	36	1
87	106	2
49	50	2
85	98	1
109	115	2
125	126	2
61	93	2
64	65	3
70	77	5
11	11	2
42	88	3
6	7	6
85	85	3
11	16	1
101	102	4
111	111	3
115	122	2
60	72	4
52	52	3
0	0	5
107	127	2
108	109	3
94	101	3
25	34	4
29	29	4
21	24	1
111	127	2
70	75	2
17	17	4
104	105	4
98	103	1
132	134	1
115	115	3
82	83	1
99	103	3
27	27	2
104	104	5
77	78	3
76	77	5
74	80	2
35	35	5
57	66	2
129	130	4
95	114	2
63	65	4
102	102	3
65	107	1
87	87	3
127	128	4
74	77	3
126	126	7
113	116	8
123	123	4
77	94	2
114	126	2
74	105	1
89	107	2
103	104	1
59	60	4
2	8	5
15	17	1
112	114	2
46	122	2
127	132	1
71	79	3
94	94	4
74	86	1
65	65	1
98	100	4
53	53	4
56	56	12
2	11	2
29	35	2
83	96	1
96	100	3
24	31	2
83	115	3
23	25	1
120	120	7
55	59	3
117	118	1
59	121	2
110	110	4
54	55	1
52	73	1
124	125	1
74	99	3
105	109	3
119	119	5
91	125	2
19	21	1
97	123	1
47	47	1
77	77	1
2	20	2
99	99	4
19	32	1
111	119	3
7	9	1
16	16	3
11	12	2
82	89	3
96	125	4
24	29	1
110	112	3
99	130	2
58	66	1
86	100	2
50	91	1
1	5	1
83	113	2
50	63	2
3	4	1
21	22	1
96	97	2
13	13	1
58	62	4
83	134	3
50	53	2
52	54	2
120	123	6
36	37	3
15	25	1
122	122	1
101	109	1
28	34	1
115	118	2
102	113	3
14	49	1
97	98	2
62	63	2
86	105	2
29	62	1
114	125	2
95	126	1
116	119	3
19	19	3
109	111	2
17	20	2
98	98	2
71	82	2
71	73	1
132	135	2
12	14	2
111	129	1
108	112	1
65	67	1
112	112	3
84	85	3
95	115	2
67	67	4
16	17	3
131	131	3
48	53	2
115	116	2
44	55	1
114	128	1
31	36	1
104	111	1
125	130	1
92	93	1
13	33	2
45	53	1
57	65	1
126	133	3
23	23	4
1	37	2
0	3	3
48	48	2
78	90	1
130	131	1
91	92	2
119	125	1
43	47	2
109	110	2
72	81	2
93	94	2
14	14	1
70	105	1
62	71	2
87	90	1
26	28	1
99	104	1
35	36	1
43	62	1
44	44	2
62	76	1
25	28	2
68	85	1
91	91	2
75	78	2
50	50	3
127	131	1
80	84	1
61	80	2
21	34	2
133	133	1
69	122	2
58	60	1
85	87	1
120	125	2
50	60	2
122	133	2
42	42	1
118	122	2
71	71	2
94	109	2
130	132	2
42	59	1
97	100	1
104	115	1
76	81	1
66	67	2
122	125	1
68	73	1
37	43	1
43	57	1
56	61	1
47	89	1
75	77	1
95	96	1
119	122	1
61	61	1
64	71	1
65	66	2
45	59	1
78	85	1
33	36	1
10	15	1
28	28	1
95	107	1
83	83	1
56	65	1
108	116	1
9	20	1
80	95	2
37	37	1
105	126	1
45	50	1
72	133	1
37	73	1
63	63	1
57	58	2
4	27	2
130	133	1
20	29	1
98	102	1
84	115	1
99	124	1
6	9	1
36	133	1
58	71	1
105	128	1
66	108	1
44	45	2
4	9	1
54	61	1
0	10	1
89	96	1
99	111	1
18	21	1
97	112	1
26	26	1
107	117	1
59	68	1
66	76	2
60	60	1
