150	150	4
145	145	15
35	40	2
34	34	10
3	3	3
40	41	13
139	139	5
92	132	4
71	155	1
62	63	5
127	127	5
95	148	2
106	106	9
45	45	8
70	83	1
91	91	4
81	86	1
63	132	2
4	4	3
140	152	2
88	88	9
129	129	1
18	47	2
100	100	13
65	101	4
57	57	2
44	44	11
9	9	9
23	130	3
11	12	3
87	107	1
53	54	7
21	103	4
102	104	1
18	18	14
146	146	2
139	153	1
79	79	7
144	144	2
99	99	7
41	41	12
15	16	3
35	35	6
132	132	2
25	25	18
106	114	1
22	22	6
77	77	5
126	126	4
30	48	2
18	22	4
73	73	7
94	94	6
6	6	9
20	42	4
93	128	1
80	80	7
141	141	2
114	114	12
22	35	2
11	13	1
38	39	5
78	78	9
117	117	15
119	119	1
131	132	2
1	1	6
135	135	9
70	70	12
107	108	3
14	17	5
84	84	5
125	126	2
92	92	16
29	29	25
137	137	8
117	146	1
14	144	3
93	129	4
107	107	9
48	66	1
113	113	1
8	12	3
89	89	11
23	25	3
17	22	8
123	123	8
26	26	8
7	7	5
103	103	5
114	115	3
12	13	1
156	156	9
36	36	12
64	81	2
116	148	6
65	99	1
155	155	5
90	90	5
154	154	5
93	95	1
76	149	1
140	142	5
55	55	3
5	5	6
111	128	4
31	36	3
79	155	1
152	153	1
117	125	3
65	66	2
31	47	5
5	139	1
104	104	4
105	106	5
83	131	1
52	53	5
53	55	1
133	134	2
69	101	3
101	107	3
110	110	1
97	97	7
138	138	8
37	138	8
93	139	5
49	66	4
122	122	6
4	35	3
128	129	5
34	35	4
2	2	2
42	42	4
71	157	4
151	151	3
4	93	3
50	50	4
75	75	7
62	109	2
26	130	5
24	35	3
1	44	5
111	111	3
20	21	3
128	142	3
6	47	2
73	100	1
48	51	1
122	124	2
64	64	6
40	122	1
67	67	9
49	50	3
85	98	2
7	11	1
95	95	6
112	115	2
83	114	5
31	31	8
120	154	1
106	116	3
82	82	12
147	147	7
145	146	4
90	112	1
53	53	5
50	62	1
71	71	5
88	89	7
16	26	3
54	122	3
130	130	7
156	157	1
27	27	3
3	48	1
69	72	1
89	157	1
111	124	3
105	105	12
135	156	2
49	49	6
146	148	2
52	111	4
93	93	12
10	14	2
38	38	4
87	87	6
2	47	1
112	126	4
152	155	1
15	15	4
13	13	8
17	23	1
91	130	4
113	115	5
121	121	2
101	101	13
96	96	9
136	147	2
112	112	3
79	153	2
93	94	1
70	71	2
37	37	7
47	47	2
48	49	1
83	83	8
25	44	1
150	151	4
11	11	2
8	11	2
96	156	1
146	147	1
119	134	2
97	130	1
81	136	1
0	44	2
21	21	3
17	120	2
52	52	3
133	133	3
77	98	3
9	10	1
31	52	1
30	30	4
48	48	3
20	22	2
140	140	3
83	115	1
2	3	3
80	81	3
17	17	2
158	158	1
136	136	3
8	8	4
51	51	4
30	31	3
56	56	3
131	131	9
24	24	7
142	143	4
39	39	8
54	54	1
10	124	2
72	105	1
26	151	1
89	132	5
36	129	3
23	47	1
34	36	1
7	35	2
84	154	1
43	43	2
78	79	3
46	46	3
112	113	4
75	91	2
32	111	1
33	34	2
20	20	7
90	107	1
19	19	2
134	134	10
152	152	5
125	125	2
85	85	1
118	121	1
120	120	4
35	36	1
81	87	1
116	116	1
116	125	3
81	81	1
85	86	2
12	26	2
79	137	2
81	148	2
83	84	1
94	148	1
42	109	6
98	98	2
75	94	1
75	101	2
35	38	1
26	27	1
3	21	1
98	130	4
46	62	2
36	40	1
109	109	7
47	50	1
83	98	1
138	139	3
103	114	3
88	116	1
95	96	1
31	33	1
51	109	3
71	90	1
141	154	5
119	154	2
141	149	2
65	65	1
77	78	1
16	17	2
109	111	1
37	54	1
76	96	1
64	80	1
14	14	2
63	63	3
23	23	2
10	10	2
76	158	1
31	111	1
17	41	1
104	105	2
148	148	3
0	4	1
32	32	3
27	28	1
22	23	2
67	71	1
40	43	1
118	119	2
36	118	1
88	93	4
108	108	1
18	123	1
83	130	1
138	157	1
92	135	3
0	0	3
149	149	1
23	57	1
69	88	1
23	35	1
128	139	2
87	90	1
103	108	1
79	154	3
38	123	1
115	116	1
143	143	1
46	49	1
132	133	2
79	80	1
1	2	1
111	112	1
118	120	1
139	140	1
93	120	2
16	19	1
51	54	2
52	54	1
100	103	1
29	30	1
152	157	2
55	56	2
130	131	2
68	72	1
39	112	1
141	144	1
71	141	1
75	135	1
12	12	1
130	132	1
28	28	1
92	93	1
17	19	1
23	24	1
41	55	1
82	114	1
31	113	1
136	149	1
127	139	1
85	87	1
86	108	1
