131	131	4
136	138	2
15	15	1
4	5	4
125	125	7
73	73	1
10	12	2
13	13	9
129	129	5
137	138	2
126	126	13
30	30	8
23	24	4
4	30	1
11	11	9
22	25	2
80	80	4
92	94	4
98	98	7
134	134	10
124	125	5
121	122	7
2	5	2
106	108	2
101	101	16
130	130	8
79	79	10
118	119	4
32	32	10
110	112	3
13	14	3
92	93	3
28	29	4
84	89	10
71	71	2
140	140	6
23	23	4
10	11	3
128	128	11
7	7	7
83	83	3
124	124	5
5	29	4
16	16	2
87	87	4
127	129	1
131	132	3
5	5	6
12	12	6
136	136	2
38	38	4
10	10	9
116	116	6
117	117	12
79	82	2
112	112	9
109	109	8
105	105	10
75	127	3
94	94	21
2	2	6
85	89	3
14	14	7
92	92	4
24	25	3
4	4	11
127	127	11
19	21	3
35	36	5
77	79	5
121	121	11
83	84	2
17	17	9
37	37	6
90	92	2
139	139	7
84	90	5
106	106	9
114	114	11
7	8	7
20	86	4
95	95	7
27	27	2
9	9	19
82	92	1
108	109	4
116	119	2
22	22	7
13	21	4
26	37	2
15	68	2
21	21	8
3	3	6
3	4	2
130	131	1
5	31	1
137	137	5
30	31	3
86	86	3
71	123	1
72	73	4
104	104	5
26	26	11
36	36	8
26	36	2
25	26	3
8	8	4
127	128	1
104	114	4
108	115	1
88	89	4
82	90	3
31	31	3
72	72	7
7	32	3
121	126	3
77	126	2
83	85	2
29	29	5
0	0	4
86	87	3
118	118	7
115	115	17
132	132	3
33	33	2
34	34	5
123	125	2
28	28	3
19	19	8
3	32	3
82	82	4
82	91	3
85	86	3
1	5	4
135	135	5
5	10	1
113	113	5
93	94	8
94	125	3
123	123	6
84	84	6
78	122	2
121	123	2
107	107	1
79	90	2
102	103	3
120	120	11
1	91	3
73	74	3
93	121	1
136	137	3
27	28	3
93	124	3
20	20	7
91	91	4
76	76	3
77	77	4
71	121	3
8	9	5
17	23	4
112	113	2
31	32	6
35	35	9
96	96	3
122	122	1
24	38	1
81	81	4
2	28	1
110	110	7
89	89	4
1	28	1
79	124	3
90	90	2
95	130	2
11	12	1
97	97	2
76	126	1
5	7	1
83	88	3
25	25	2
78	121	1
102	102	4
77	78	1
1	2	3
37	38	1
119	120	4
3	10	1
128	129	3
86	88	2
87	88	5
21	22	2
72	97	1
6	6	6
138	138	1
1	1	3
16	21	2
25	37	2
105	115	1
103	103	1
102	115	1
73	124	1
18	18	3
14	19	2
132	133	1
84	85	2
76	77	1
103	118	3
111	111	1
91	93	1
133	133	3
99	99	1
104	118	2
102	107	1
0	86	1
107	115	2
128	130	1
20	84	1
105	106	1
3	5	1
33	35	1
93	93	1
92	125	3
33	37	1
12	13	1
117	119	1
118	120	1
19	20	1
3	11	1
74	127	1
78	78	2
88	88	2
99	100	1
119	123	1
135	136	1
101	102	1
