84	84	43
208	208	23
203	203	31
86	87	15
205	243	1
152	152	17
109	109	68
188	190	5
239	239	44
167	167	29
105	106	11
164	164	32
7	38	5
37	37	67
101	101	50
184	185	9
195	195	31
50	50	38
12	23	1
30	30	26
46	47	8
244	244	37
164	245	4
67	177	5
63	96	2
89	110	4
112	114	3
232	233	18
35	35	37
173	174	28
160	160	19
57	58	22
237	238	17
244	245	9
67	67	43
1	87	2
54	55	9
183	183	30
178	179	5
17	32	2
211	211	21
63	85	4
39	39	44
61	61	43
81	81	55
181	210	4
14	15	24
51	111	3
168	170	2
201	201	26
190	192	3
206	238	5
197	200	20
113	113	19
96	96	36
190	190	33
110	110	32
44	45	17
21	81	3
46	46	41
53	53	46
216	216	38
183	184	3
205	215	1
161	161	26
38	40	7
100	105	2
237	237	32
242	242	43
38	38	43
75	75	46
215	215	30
10	10	42
93	95	3
69	69	46
177	209	5
214	214	39
143	147	2
209	209	35
151	152	12
154	154	43
34	104	4
178	181	1
231	234	7
218	220	4
45	45	40
173	173	31
87	88	24
20	20	41
179	179	48
227	227	24
161	180	3
89	235	4
65	66	7
247	247	27
96	161	1
4	5	12
5	12	2
119	119	22
57	57	18
77	77	37
54	54	34
76	76	25
99	99	54
54	62	6
3	3	27
228	228	36
201	203	4
58	58	40
197	199	3
231	231	34
190	191	9
92	93	15
116	180	5
21	67	3
52	52	41
195	196	19
70	70	76
156	182	3
103	103	33
24	24	51
121	121	3
156	157	4
80	84	1
197	197	52
204	204	47
2	30	2
15	15	41
226	226	41
92	92	47
75	76	20
118	118	72
89	90	30
169	169	26
215	216	12
180	180	45
221	221	10
230	230	34
239	240	12
116	213	3
196	196	32
56	57	22
69	75	6
42	42	68
20	21	12
67	68	9
156	160	3
60	60	37
192	193	14
40	40	48
57	64	3
4	12	3
213	213	33
78	81	4
181	195	2
236	236	37
105	105	22
21	21	42
82	82	32
116	116	41
33	33	66
118	235	1
97	98	13
199	199	28
32	32	49
116	117	11
120	120	13
100	101	12
50	234	4
29	30	21
119	162	4
112	112	53
36	113	4
64	85	4
18	20	1
242	243	9
95	95	60
153	153	32
64	64	40
144	145	2
170	211	4
34	34	27
197	236	3
145	145	14
66	68	2
217	217	37
79	79	21
40	41	17
78	79	7
166	167	10
234	235	17
6	15	7
222	222	25
94	94	37
238	238	59
119	145	2
184	184	35
158	159	11
214	215	14
198	198	50
71	101	2
91	91	38
97	97	54
240	240	32
1	1	43
27	27	43
248	248	14
102	102	79
117	117	42
29	29	38
38	39	22
99	197	1
63	63	30
166	166	18
218	218	35
17	26	4
99	100	19
84	86	4
241	241	23
25	25	28
49	50	30
245	246	21
60	108	4
186	186	36
202	203	8
223	223	40
207	207	27
114	114	58
87	113	2
9	9	58
213	235	3
37	98	2
88	88	47
241	243	7
193	193	37
96	97	25
245	245	27
55	55	39
80	80	55
14	20	5
163	164	10
72	74	8
87	174	6
226	227	7
151	151	26
2	2	19
109	110	5
90	91	14
220	220	22
43	43	69
229	229	46
26	26	56
211	212	16
52	53	17
205	205	26
114	115	24
172	173	8
232	232	36
11	11	40
185	193	2
169	170	6
214	219	3
66	175	4
74	74	33
60	61	11
7	7	28
156	156	38
18	19	20
77	78	8
24	145	4
47	47	26
56	60	10
19	19	54
96	106	3
184	229	4
83	173	3
209	210	2
23	62	10
219	219	35
71	72	27
180	181	4
44	44	49
216	217	25
86	86	42
85	85	46
233	233	20
171	172	15
116	175	1
31	37	3
87	87	28
175	177	3
182	182	25
73	74	15
200	228	3
48	48	48
177	178	7
243	244	10
49	49	33
6	7	17
217	218	13
115	115	61
39	40	12
65	145	2
84	171	2
64	65	10
41	41	27
225	225	33
108	108	31
159	159	7
168	168	20
81	82	17
69	70	9
210	210	43
48	94	1
194	194	26
178	178	23
8	155	2
22	25	1
98	197	8
59	60	14
102	103	4
168	246	1
172	172	42
153	232	6
100	100	39
210	211	5
68	69	14
220	221	13
27	29	3
170	170	30
31	32	6
155	156	10
24	25	15
212	231	3
16	17	13
182	248	3
49	55	4
90	90	31
150	151	6
42	47	1
58	62	1
212	212	33
67	70	7
163	163	36
11	65	2
174	174	14
202	202	25
164	165	12
56	56	53
193	194	10
179	191	1
66	66	48
235	235	24
4	6	2
171	173	6
174	230	7
198	199	16
150	236	3
98	99	5
27	32	4
15	16	13
2	3	13
3	31	4
102	115	2
17	17	37
165	165	38
30	33	1
188	188	16
168	245	3
105	221	4
80	81	12
101	113	1
55	101	3
62	62	57
67	101	3
93	93	37
201	202	18
91	92	14
245	247	2
32	36	1
72	77	5
55	85	2
187	187	37
61	62	7
191	191	19
96	99	1
16	16	42
36	36	40
152	153	3
176	176	17
181	181	28
150	150	17
59	96	5
185	186	4
57	87	1
198	200	14
175	175	37
240	247	12
76	77	15
60	107	4
51	52	10
66	117	3
73	73	23
5	5	24
46	51	4
206	207	10
174	175	15
199	200	21
71	187	4
32	35	5
160	161	8
170	182	7
194	242	6
7	39	2
4	4	19
82	89	3
21	22	7
155	206	1
189	189	15
41	47	3
234	234	30
112	144	2
155	155	26
71	71	47
89	212	7
246	247	7
82	118	3
192	192	25
36	63	2
200	200	16
231	232	7
224	225	16
63	94	3
22	22	54
6	6	35
59	59	53
65	89	3
86	116	2
206	211	1
66	118	9
240	241	18
173	213	2
110	121	3
157	157	36
77	79	5
99	103	3
114	206	1
158	247	2
226	231	4
13	13	10
77	157	1
230	235	1
68	152	1
16	19	5
71	73	2
176	208	1
85	86	10
70	187	4
104	115	3
152	223	3
233	246	2
244	246	1
170	172	7
86	173	4
70	84	2
68	100	2
32	33	15
2	37	1
95	97	9
98	98	37
65	65	36
18	18	34
7	87	1
62	63	6
45	67	2
86	88	4
106	108	5
11	12	6
63	106	3
56	71	2
41	42	18
72	87	1
198	233	4
39	41	1
100	212	3
151	153	4
34	48	6
47	51	3
12	12	31
47	48	27
78	78	43
197	198	12
71	78	4
6	183	4
19	22	8
28	28	75
183	185	3
48	50	8
82	84	6
199	236	5
195	210	3
218	221	4
166	213	5
72	72	50
42	43	17
222	223	6
56	78	7
246	246	12
218	219	20
146	147	4
53	149	1
168	169	14
52	54	8
179	180	5
170	171	16
119	167	5
93	94	25
24	41	4
172	176	3
3	112	2
9	54	2
212	213	1
48	76	2
193	200	2
171	171	33
176	211	5
111	111	31
185	185	22
111	112	9
183	247	1
7	8	9
172	238	10
188	191	3
23	23	43
194	195	12
184	201	5
19	21	8
55	57	8
75	106	3
2	19	4
8	8	29
89	89	32
167	243	4
213	214	6
91	183	1
48	60	4
102	151	2
49	233	3
97	101	3
182	183	9
108	109	11
176	177	3
163	234	2
64	67	4
55	62	3
43	46	6
110	178	2
240	242	1
95	104	1
162	167	3
114	166	1
113	114	20
163	179	2
165	166	8
55	56	9
55	88	5
66	108	4
196	200	2
103	182	4
39	42	5
51	93	7
83	83	31
56	70	2
81	83	4
66	67	11
22	145	2
84	85	18
42	45	6
89	114	5
201	204	3
206	206	20
186	187	9
30	112	6
68	101	4
183	201	7
18	25	5
241	242	18
25	26	16
162	229	2
58	60	1
8	26	7
14	14	39
101	102	3
28	41	3
157	185	1
47	68	3
51	51	20
102	104	8
77	160	3
46	101	1
63	67	2
117	167	3
59	61	6
208	209	12
170	238	1
5	34	2
119	120	5
213	236	3
4	90	5
91	98	1
59	109	2
65	67	5
39	70	1
224	224	27
52	119	1
93	97	2
118	162	8
29	167	2
205	206	15
65	176	2
177	208	3
107	108	3
17	18	6
28	29	3
95	96	9
170	181	3
247	248	6
102	106	1
200	238	2
153	154	6
31	31	28
118	178	2
182	184	4
27	28	15
58	76	2
119	175	3
8	9	12
101	103	5
30	31	16
221	222	8
42	95	2
160	248	2
94	101	2
31	36	5
64	86	2
243	243	18
35	93	1
107	107	15
103	104	9
57	61	7
172	177	1
51	234	2
162	162	16
68	68	61
40	44	4
99	210	1
167	247	1
99	108	4
91	96	3
105	223	5
104	104	38
48	237	2
29	36	2
35	36	13
227	248	1
117	119	3
57	158	2
203	212	3
66	167	2
51	53	3
50	230	1
163	178	4
50	51	3
110	111	7
170	210	5
201	233	3
20	33	5
11	52	2
1	112	1
101	151	3
199	201	3
83	84	3
94	95	16
104	105	13
182	185	4
246	249	2
22	23	2
47	49	2
20	34	7
19	32	1
51	61	1
203	204	18
228	229	21
66	233	5
233	234	6
90	181	2
164	230	4
26	27	12
75	78	2
88	220	2
96	98	8
91	97	4
204	205	4
180	194	1
89	180	2
66	88	2
112	179	4
36	37	11
113	171	1
90	179	1
65	69	5
47	53	1
14	91	5
81	84	2
81	109	3
101	108	2
51	63	5
69	105	4
19	25	3
173	177	4
30	37	2
227	228	3
3	20	2
63	173	3
58	59	4
45	46	11
158	246	4
0	19	4
101	212	5
8	24	1
87	90	1
23	43	1
208	239	2
63	64	3
73	75	12
229	230	10
192	196	4
90	151	2
74	75	7
175	176	6
106	106	27
177	177	19
27	46	4
76	78	10
235	236	9
181	184	2
95	189	2
100	113	5
72	84	1
64	110	1
73	176	6
109	116	2
59	97	2
182	186	2
60	188	4
92	109	3
112	228	1
144	144	5
89	213	4
142	142	1
30	113	4
186	193	4
160	226	2
34	233	3
212	214	2
187	190	3
55	60	2
69	73	4
5	35	1
146	146	5
178	207	3
52	229	1
26	234	2
82	83	13
56	61	7
55	77	3
154	155	1
75	232	2
51	235	1
105	152	2
246	248	1
62	74	2
85	119	3
18	26	1
88	90	2
57	73	2
41	85	1
226	249	2
48	61	1
117	118	19
225	228	2
1	40	1
221	223	3
14	17	1
70	71	9
211	213	3
168	173	3
118	119	16
117	196	3
12	82	2
11	25	1
48	119	2
13	14	2
113	115	2
98	185	3
182	227	2
34	47	2
63	86	3
33	62	3
157	187	3
81	201	1
56	59	3
36	44	2
37	38	12
20	22	4
49	94	2
151	156	2
98	106	7
108	117	2
9	10	2
181	185	2
35	60	2
170	243	2
215	218	2
8	88	3
190	229	2
22	153	2
191	194	5
91	100	2
9	65	1
33	42	1
150	225	3
248	249	4
162	234	3
205	208	2
189	190	8
73	149	2
117	120	3
178	208	2
8	110	2
117	166	6
4	55	2
94	155	5
118	174	2
197	211	1
1	2	8
231	245	2
224	229	1
170	212	2
10	16	3
55	65	1
217	219	6
29	32	2
3	32	2
75	84	6
63	110	1
8	31	1
119	173	3
64	89	2
147	147	2
8	54	1
55	114	3
163	165	5
106	107	6
223	224	4
60	239	5
16	28	2
176	212	3
73	103	2
80	107	1
84	94	3
241	247	1
170	173	7
6	34	4
121	186	2
66	70	1
46	213	1
57	60	2
203	224	1
68	147	2
186	192	3
22	24	1
54	70	1
40	43	1
191	193	7
15	20	2
73	85	1
4	35	2
35	41	1
9	28	1
69	76	3
61	97	2
98	186	5
188	189	8
88	89	6
197	210	2
175	178	1
162	190	2
62	97	3
56	77	1
74	157	2
189	193	2
10	12	2
48	51	3
181	209	2
33	234	1
158	158	9
5	6	10
68	105	5
149	150	2
23	24	4
239	243	1
206	244	3
55	78	1
51	83	3
191	248	5
34	50	7
10	64	6
9	17	6
59	239	5
50	210	1
94	96	3
108	119	2
180	223	1
115	116	6
57	187	2
223	225	1
156	170	7
31	178	1
102	107	3
120	145	7
65	172	3
167	246	1
78	156	1
27	30	3
34	35	4
100	120	1
80	83	3
208	210	3
100	108	1
3	27	1
159	190	4
73	92	7
19	20	12
219	224	1
191	192	7
189	192	1
53	86	1
89	179	4
59	240	1
157	170	4
99	107	1
199	237	1
74	78	3
43	44	4
238	239	4
107	221	4
157	234	1
187	188	2
12	33	2
73	144	2
79	82	2
33	95	3
183	228	1
196	243	5
2	180	3
9	24	1
145	149	2
33	34	1
63	65	2
118	169	4
14	33	7
17	19	5
158	191	1
203	205	1
112	180	1
62	226	2
119	168	1
79	80	5
61	187	3
65	106	2
56	144	2
166	214	4
15	33	3
159	248	4
110	167	2
225	238	3
162	165	5
24	47	3
111	224	1
17	43	4
67	69	5
93	155	2
82	87	3
102	116	1
58	65	2
69	83	2
50	78	2
111	153	2
88	111	2
18	155	2
116	173	3
3	14	2
62	115	4
10	11	5
8	23	1
56	191	1
68	230	2
174	179	2
34	230	3
81	88	5
164	234	2
112	113	5
211	230	1
62	87	2
20	31	3
234	246	3
82	85	1
230	232	4
167	168	2
64	78	2
236	237	5
51	203	1
199	239	1
230	234	3
14	32	1
48	231	1
154	232	2
32	52	3
214	234	2
60	191	2
86	178	1
7	63	1
16	36	2
55	161	2
82	86	3
59	116	1
17	33	1
98	152	1
92	156	3
227	230	2
238	243	2
240	246	2
112	170	2
0	0	2
66	107	5
42	48	2
21	47	2
64	113	3
34	94	1
208	247	1
158	190	4
58	107	1
26	145	1
47	78	1
169	244	4
159	160	6
101	105	2
104	110	2
118	167	5
149	149	1
174	177	4
27	155	1
160	181	1
16	27	1
165	173	3
40	42	3
95	102	3
172	240	5
40	45	2
15	30	3
185	245	2
162	163	5
167	169	2
230	231	5
10	153	1
184	195	1
111	167	2
212	235	1
61	112	1
71	85	1
200	237	1
150	211	2
64	88	1
13	15	1
54	63	3
45	51	1
55	100	3
18	22	1
155	163	1
198	229	1
85	173	4
1	230	1
64	72	3
50	112	3
4	34	4
6	9	1
181	182	5
219	221	4
196	199	1
43	94	2
92	94	4
49	98	1
145	218	1
93	103	1
182	197	2
106	171	3
70	76	1
58	61	1
17	27	2
90	182	3
153	220	1
34	87	4
224	226	4
157	158	2
166	246	2
150	164	2
113	180	1
97	99	4
86	113	2
30	111	4
117	200	3
73	102	2
218	224	1
53	120	1
60	86	3
200	236	1
70	72	6
237	243	3
104	106	4
12	18	1
200	245	4
61	190	1
110	213	1
101	106	1
61	80	4
98	184	3
232	237	1
108	221	2
196	197	3
200	230	2
186	188	1
24	26	2
27	45	1
91	111	3
119	169	1
2	14	2
77	176	1
198	237	1
31	88	2
201	225	2
107	172	1
20	30	1
5	13	3
17	34	3
68	70	4
89	99	3
9	25	2
161	162	4
100	187	1
160	188	2
47	116	1
20	24	1
3	51	3
67	178	5
3	183	1
227	233	2
82	117	2
28	44	3
225	226	6
200	201	1
82	90	2
53	63	1
10	65	2
46	203	2
32	150	2
90	112	2
152	229	3
11	30	1
110	162	1
75	77	3
196	198	1
58	159	1
171	183	2
215	217	1
63	88	2
90	103	1
229	234	3
63	113	1
204	206	2
20	110	1
66	176	3
83	92	2
187	191	3
83	89	1
51	154	1
182	198	1
103	233	3
93	96	3
66	69	2
233	236	3
48	86	1
161	181	2
68	231	1
231	233	3
145	177	1
229	236	1
50	83	2
167	177	1
56	160	2
53	110	1
111	152	1
100	103	2
207	210	3
174	178	2
156	201	1
180	220	2
14	35	3
48	70	2
90	114	1
46	120	1
118	199	2
53	54	2
171	212	2
24	31	1
28	112	5
157	192	1
19	24	1
78	82	1
17	35	1
91	216	2
48	49	7
195	230	5
77	84	1
151	154	2
197	230	2
85	117	2
169	171	1
236	243	1
115	213	1
169	243	1
158	169	1
193	244	1
116	178	9
184	214	1
193	195	3
85	87	3
109	111	1
80	201	1
200	235	2
75	80	2
182	196	5
87	145	2
108	170	1
78	160	1
55	70	1
62	64	5
56	102	1
18	28	3
2	39	1
227	232	1
36	38	2
119	174	2
120	161	1
97	100	2
66	89	2
63	95	1
3	181	1
244	249	1
201	228	1
67	232	3
3	19	1
28	38	1
57	157	1
56	190	1
76	80	1
50	76	1
115	166	2
199	205	1
121	206	1
82	105	1
85	175	3
182	226	3
95	99	1
18	43	2
3	37	1
249	249	2
153	223	1
86	90	1
222	225	1
207	209	1
60	85	1
43	102	2
30	32	2
50	71	1
92	107	2
51	73	1
50	114	1
3	4	5
91	159	3
61	86	3
57	59	3
0	28	1
9	18	2
56	62	1
59	76	1
38	145	1
97	161	1
56	67	2
56	76	1
1	3	2
238	242	1
105	107	2
2	7	1
184	188	1
5	14	1
226	230	2
109	121	1
27	47	1
48	230	1
56	89	1
159	227	1
164	178	1
109	182	1
160	227	1
17	31	1
99	186	1
5	152	1
117	145	1
206	208	1
110	179	1
73	93	1
209	241	1
109	120	1
114	181	1
4	152	1
95	106	1
176	178	1
16	67	1
108	153	1
20	46	1
36	62	2
72	93	1
6	156	1
22	150	1
92	96	1
195	235	1
65	100	1
32	111	1
55	59	1
165	178	1
109	170	1
157	189	1
47	55	1
32	43	1
168	190	1
32	39	1
207	208	1
47	114	2
154	156	1
37	39	1
55	111	1
33	40	1
162	226	1
90	160	1
172	174	1
93	109	1
17	25	1
35	48	1
59	184	1
1	89	2
73	86	1
162	228	1
231	236	1
65	82	3
65	90	2
60	114	1
212	226	3
54	90	1
74	91	2
2	112	1
6	10	1
55	115	1
112	116	1
12	25	1
200	229	1
54	94	2
49	234	2
205	236	1
48	111	1
10	27	1
218	248	1
1	19	1
5	38	1
39	44	1
65	71	1
115	117	1
48	95	1
3	34	1
175	244	1
81	89	1
178	193	1
150	165	1
239	241	1
35	62	1
70	75	1
214	246	1
26	113	1
165	167	1
168	174	2
4	38	1
48	181	1
201	205	1
59	106	1
35	42	1
21	23	1
90	213	1
80	106	1
85	166	1
66	106	1
