11	11	5
32	134	4
7	8	3
5	5	4
3	5	1
40	41	2
140	140	7
26	95	3
94	94	6
7	7	9
31	31	10
126	127	2
100	137	3
103	113	1
85	123	3
117	118	2
128	128	10
148	148	6
86	93	5
12	12	1
138	138	3
51	126	3
11	95	5
15	16	5
146	146	6
40	48	3
15	15	5
84	88	4
50	51	5
112	151	5
92	94	4
48	48	1
2	2	6
136	136	4
101	101	3
22	22	10
115	132	2
70	71	3
151	151	5
68	68	6
17	18	3
110	110	3
16	16	4
111	111	6
8	28	3
129	129	4
134	141	2
111	112	4
114	120	5
51	51	3
75	76	1
109	109	5
112	112	2
143	143	2
105	105	2
80	81	4
71	153	6
3	68	2
18	114	3
120	120	10
30	32	1
92	127	2
108	108	3
11	12	5
6	102	1
132	132	6
24	24	9
69	69	4
34	34	8
32	45	1
119	119	5
98	98	3
45	47	3
124	124	7
57	57	2
87	87	1
147	147	2
15	19	5
157	158	6
30	39	1
53	53	1
104	104	3
135	135	3
76	77	4
19	21	3
89	89	4
133	133	4
80	80	1
140	142	1
108	109	1
26	26	6
8	39	3
123	123	1
9	9	1
67	135	1
106	106	4
152	152	1
73	73	3
139	140	1
93	93	3
87	88	3
83	84	2
6	114	1
90	123	1
66	66	4
93	94	2
105	106	2
39	39	6
76	76	3
88	88	3
134	140	1
34	42	1
22	26	4
130	132	4
99	99	6
90	125	4
38	41	3
17	69	1
114	114	5
18	18	7
52	95	2
128	129	1
20	21	2
114	118	2
70	70	2
20	20	3
67	67	3
21	21	11
97	98	5
72	72	2
1	45	2
26	28	3
43	43	2
137	137	2
91	91	3
18	105	2
118	118	1
30	30	4
117	131	1
109	112	2
107	107	1
84	84	1
155	155	2
41	42	5
116	116	7
96	96	2
26	27	1
135	152	2
47	47	1
33	54	1
69	70	2
120	121	1
42	42	3
24	25	3
136	137	1
31	34	3
97	121	3
7	125	2
33	41	4
121	121	2
79	80	1
25	25	2
134	134	2
117	117	4
36	37	3
72	83	2
23	23	2
41	159	2
52	54	2
64	66	1
127	127	3
48	64	1
86	87	1
139	139	3
50	93	1
26	29	2
53	54	1
41	41	1
156	156	2
4	4	1
48	49	2
102	103	3
44	44	2
10	10	1
108	110	1
45	45	1
35	35	5
8	125	1
137	141	2
8	16	2
144	144	8
6	6	3
11	16	3
95	95	5
3	71	2
54	54	6
116	129	1
40	42	1
34	69	1
46	135	1
138	149	2
154	154	5
46	47	1
33	37	2
9	10	1
52	121	3
132	133	2
5	101	2
139	142	1
77	83	1
13	92	1
31	69	3
33	153	2
31	45	2
46	143	2
23	24	1
81	81	4
13	24	2
125	125	5
29	29	1
17	17	1
1	153	2
37	37	3
134	144	1
33	33	1
124	126	1
52	52	7
77	77	4
8	10	2
51	52	1
98	134	2
13	14	1
1	1	1
73	75	2
16	129	3
149	150	1
13	13	2
54	118	5
67	71	1
116	117	1
113	132	2
78	78	1
157	157	3
32	44	3
146	147	1
67	70	2
96	121	5
19	20	4
121	123	1
82	82	1
77	81	2
46	46	2
5	138	1
142	144	4
63	71	1
29	132	1
90	90	2
69	120	2
74	75	1
155	156	1
145	145	2
20	22	1
0	0	1
78	82	1
130	130	1
14	15	1
85	85	2
48	94	2
84	86	1
126	126	1
19	19	1
71	71	4
121	122	1
75	75	5
52	117	3
99	100	1
8	8	3
100	100	1
131	158	1
21	22	2
86	123	1
93	95	3
98	155	1
36	40	1
98	99	1
63	63	1
46	136	1
119	122	1
55	136	1
113	114	1
6	26	1
142	142	1
38	39	1
37	46	2
68	147	1
122	122	1
12	29	1
40	40	1
112	113	2
53	121	1
77	78	1
56	56	1
18	30	1
103	112	1
80	82	1
145	148	1
117	128	1
