40	40	10
64	66	2
28	29	4
65	66	4
31	32	8
72	72	15
87	88	4
82	82	4
59	60	1
50	50	7
61	63	3
66	66	12
25	26	6
68	68	14
94	95	5
25	25	8
47	47	5
20	28	4
50	52	1
82	86	5
51	52	14
105	105	4
21	21	4
68	70	1
104	104	8
74	74	14
60	60	9
95	95	6
54	56	1
51	51	14
90	90	10
79	79	5
98	98	6
85	85	8
99	99	8
34	53	4
100	100	6
71	71	11
45	45	11
33	33	8
39	39	5
35	98	1
75	75	14
97	97	10
84	85	9
106	106	10
31	31	6
27	27	4
42	43	4
96	96	5
36	37	2
59	59	10
55	55	6
61	61	7
89	89	5
67	68	6
53	53	9
44	60	5
65	65	19
61	64	8
67	67	6
76	76	8
22	22	9
84	84	1
26	30	5
52	52	7
64	64	14
91	92	3
94	94	6
86	86	8
101	101	10
70	70	15
92	92	7
46	73	2
97	98	6
77	78	1
87	87	20
70	81	2
28	28	15
28	31	6
54	54	13
25	72	3
62	67	5
29	39	7
23	24	3
49	49	6
71	92	2
89	94	4
97	101	1
23	23	9
45	46	4
41	41	9
36	36	4
79	87	2
69	101	4
63	63	11
37	46	1
84	86	3
80	80	11
24	25	2
38	39	4
95	96	8
76	77	4
103	103	1
89	90	4
79	89	6
30	30	9
56	56	7
59	62	1
91	91	14
81	81	5
33	34	2
34	34	9
64	65	3
41	48	2
37	37	6
72	78	4
42	42	10
46	46	8
56	64	10
57	57	5
62	62	1
49	73	6
26	46	1
30	32	1
102	102	8
90	91	3
43	49	1
91	105	2
87	98	1
83	84	4
69	70	1
32	33	8
26	27	1
101	102	6
58	58	4
26	26	8
22	36	3
43	48	1
29	99	1
48	48	4
24	24	5
64	67	3
93	94	1
78	78	1
20	23	2
21	96	4
90	107	2
29	29	4
38	38	2
23	70	1
80	87	5
77	79	2
61	75	1
22	24	1
91	104	4
21	69	2
26	28	3
85	86	1
61	62	1
37	38	3
71	73	1
27	46	1
24	70	2
30	31	2
92	106	1
22	70	3
53	54	5
50	51	1
40	48	3
38	42	3
28	38	3
80	81	3
56	57	4
77	77	5
22	95	1
22	25	1
39	68	3
52	55	1
75	76	1
63	64	1
21	101	1
23	94	2
62	63	3
78	100	4
40	41	2
68	69	2
42	62	2
20	29	1
59	61	2
43	62	1
88	98	2
34	37	1
83	83	6
29	40	1
78	82	2
39	45	1
55	61	1
49	75	1
81	94	1
88	101	2
21	95	1
88	88	2
20	20	2
35	35	1
69	69	1
25	78	1
20	27	2
47	48	3
54	55	1
31	34	1
93	93	2
44	44	1
43	43	2
32	67	1
65	68	1
22	72	1
23	78	1
74	75	1
41	46	1
104	105	1
66	67	1
27	30	1
77	107	1
73	74	1
