63	63	10
33	33	10
47	48	4
57	58	10
74	74	11
74	77	1
62	62	7
49	56	2
78	78	8
69	69	9
84	84	15
31	32	4
25	27	5
77	77	15
68	68	12
58	58	8
96	96	7
56	56	6
45	47	5
68	73	8
43	43	2
77	78	5
30	30	7
80	80	11
95	98	7
70	70	13
67	96	1
55	94	3
29	29	4
26	26	14
66	96	3
54	55	2
65	65	3
95	95	4
55	55	2
88	88	10
29	102	3
28	28	5
75	77	4
97	97	3
79	80	4
61	61	8
81	81	14
83	83	13
74	76	4
86	86	8
65	66	3
87	87	11
64	65	3
63	64	2
55	56	1
47	47	4
75	75	2
92	92	4
35	35	5
67	98	2
80	81	2
64	64	8
87	88	2
71	71	7
86	89	3
58	69	4
23	24	3
79	81	1
46	46	8
29	39	2
91	91	5
71	85	2
74	75	1
81	87	4
41	41	7
58	99	4
25	87	2
38	39	1
42	42	8
20	88	3
60	60	8
48	48	7
100	100	4
37	38	3
73	73	13
59	59	2
72	72	8
94	96	2
98	98	2
38	38	9
25	25	1
63	67	4
61	62	3
53	53	8
54	54	3
56	57	2
40	40	5
34	35	3
66	66	16
85	89	4
76	81	1
67	73	5
48	49	1
76	76	6
26	45	2
89	93	4
99	100	4
39	39	2
82	87	1
99	99	5
69	70	6
34	34	6
54	94	1
90	90	4
25	36	4
33	39	2
77	80	3
89	89	3
96	97	3
77	79	3
50	50	2
36	36	6
29	97	2
35	36	2
82	82	3
51	51	10
95	97	2
73	74	2
47	87	1
62	63	4
26	36	3
71	86	3
45	83	3
70	71	5
68	69	1
31	31	2
54	96	2
94	97	2
53	101	1
79	79	3
94	95	1
93	93	3
85	85	2
71	84	1
98	101	1
86	94	1
21	98	2
88	89	4
94	94	1
44	44	1
49	49	3
71	72	1
40	41	3
45	45	8
66	67	1
29	35	3
50	52	1
22	22	3
73	85	2
56	83	1
85	86	2
57	57	3
53	100	1
24	24	1
86	88	1
50	51	1
61	88	1
102	102	2
60	61	3
67	67	3
81	86	1
65	73	1
29	31	1
58	87	1
72	74	1
65	99	1
98	99	1
32	32	1
30	31	1
72	85	1
58	59	1
101	101	1
24	27	2
83	84	1
68	89	2
52	52	1
51	52	1
78	80	1
73	89	1
44	46	1
