27	27	16
72	123	3
127	133	2
89	89	12
98	98	20
66	69	5
64	65	9
110	110	22
92	93	10
8	8	22
9	9	17
53	53	11
97	98	3
83	87	3
37	38	7
44	44	18
6	6	22
49	50	7
95	95	13
102	103	5
1	2	9
25	25	22
126	126	17
114	121	1
130	130	18
129	129	27
123	123	18
127	132	3
27	28	10
122	123	5
28	28	17
52	52	21
36	37	8
49	49	8
90	90	25
77	78	9
94	94	27
90	104	5
106	106	17
82	82	16
9	24	2
64	64	17
67	67	15
62	62	21
120	120	26
99	99	26
13	13	8
3	4	6
26	26	18
76	79	2
125	125	18
116	117	5
113	124	2
71	71	20
128	128	8
5	5	11
34	34	23
78	78	27
59	59	14
45	45	9
112	127	2
122	124	4
92	92	25
94	95	8
108	111	4
96	97	4
108	108	33
65	65	14
23	29	4
16	16	18
5	122	2
65	66	7
80	80	24
19	19	15
83	84	2
54	54	22
86	86	22
70	70	13
9	10	5
37	39	2
23	28	3
37	52	1
86	87	3
73	73	13
55	55	16
85	85	19
84	84	21
19	20	6
74	74	17
79	79	25
116	120	6
10	10	18
43	43	19
12	12	30
118	118	19
113	113	15
24	24	15
133	133	18
111	111	9
97	97	25
12	13	5
13	14	7
3	3	24
77	77	23
83	83	27
103	103	16
54	55	4
23	26	1
14	15	18
18	19	1
1	4	1
113	122	3
106	112	1
55	63	1
23	23	22
96	96	18
80	81	3
69	69	17
130	131	25
56	56	12
32	32	20
48	48	11
31	31	15
65	68	8
62	104	2
60	60	12
59	61	3
36	36	19
131	131	9
59	60	5
62	131	5
72	124	3
3	42	2
69	70	1
17	17	12
72	100	2
109	110	3
76	76	11
124	125	8
16	57	1
50	85	5
58	59	5
86	107	1
91	91	30
66	68	7
56	92	2
79	126	2
29	30	4
114	133	4
66	66	29
14	18	3
61	86	1
60	61	6
130	132	1
52	53	3
54	66	3
15	44	2
117	118	11
123	124	6
22	24	5
107	108	7
86	111	4
63	116	5
57	57	23
67	97	1
122	122	10
30	31	4
87	87	11
99	101	7
35	38	2
14	14	16
120	122	1
73	134	7
2	2	15
114	115	16
114	114	17
23	25	3
7	10	3
34	99	5
127	127	14
31	119	4
58	58	14
117	117	16
109	109	8
21	25	2
80	126	5
93	93	23
105	105	21
21	24	2
56	57	7
115	115	11
21	26	4
35	35	34
126	127	8
62	95	2
17	19	1
15	16	11
107	131	1
21	23	5
70	71	5
30	30	22
128	129	14
92	94	2
50	50	23
28	29	6
32	33	9
134	134	14
63	64	9
37	37	18
21	21	15
22	22	14
7	7	10
121	121	14
102	102	16
61	61	16
82	83	3
43	44	2
1	3	1
29	29	9
2	38	5
129	131	4
95	99	3
33	33	10
6	9	3
20	21	8
66	67	8
20	20	10
0	1	9
101	101	12
26	44	1
73	113	1
17	18	3
119	120	7
10	123	1
15	15	12
63	130	5
71	72	4
99	100	11
124	124	17
65	69	2
88	88	10
101	102	7
110	111	6
74	112	2
38	83	3
24	26	6
5	6	8
97	101	4
32	43	3
62	63	16
52	79	2
11	12	5
4	4	13
98	120	7
27	30	3
75	104	2
129	130	3
116	116	10
79	80	4
75	75	11
76	77	1
72	72	12
18	18	15
33	99	1
37	83	1
57	59	2
100	100	24
32	119	1
42	42	1
8	9	2
84	85	10
8	26	1
61	87	2
95	100	4
47	48	2
47	47	7
75	76	2
61	88	2
73	112	4
119	119	9
26	38	2
78	79	4
132	132	16
109	111	2
67	68	5
85	111	2
68	97	2
4	5	5
88	90	3
112	112	12
94	102	4
114	119	4
107	133	6
68	68	13
11	11	9
63	125	1
23	24	2
113	131	4
53	84	2
115	120	6
38	38	10
61	62	1
14	20	1
89	90	2
98	115	3
76	78	3
46	47	2
0	3	1
107	110	2
106	111	6
60	104	5
126	133	2
0	0	7
32	109	2
7	11	4
104	104	14
7	8	3
95	121	1
98	99	3
102	104	2
121	122	8
96	106	1
70	126	1
71	92	3
126	128	2
84	87	2
101	103	1
49	51	1
108	109	8
68	69	4
60	91	2
64	116	1
1	44	2
0	12	1
5	27	1
128	131	3
74	134	2
8	43	2
87	106	1
121	123	4
64	129	1
25	35	1
4	43	3
112	125	4
12	22	3
57	58	1
55	56	6
81	81	8
73	103	2
114	116	1
63	131	2
36	53	2
94	115	1
10	24	1
58	86	1
127	128	5
63	63	13
126	132	4
22	23	1
49	60	3
115	116	8
33	125	1
4	31	3
118	119	3
4	9	2
86	106	2
51	53	1
62	82	1
93	94	2
82	88	1
34	35	4
98	116	2
56	65	2
45	67	2
16	44	5
73	74	2
51	51	1
75	105	3
3	33	4
6	7	6
91	92	2
46	54	1
35	108	2
116	118	5
84	107	1
24	25	7
20	67	2
16	18	6
97	118	1
95	116	3
113	127	1
103	105	1
64	69	2
0	135	1
114	120	1
0	9	1
16	17	1
5	7	2
97	100	3
52	54	2
53	85	2
34	43	3
106	133	3
91	105	1
128	130	3
125	126	3
35	37	1
26	45	1
135	135	4
49	86	1
46	61	1
60	87	1
112	113	1
112	128	1
45	61	1
107	107	6
84	111	1
43	45	3
31	32	2
113	114	2
56	59	1
81	88	1
1	1	6
55	65	1
65	128	1
18	21	4
26	27	3
108	117	2
30	32	3
63	65	2
122	126	1
120	123	1
70	121	1
30	122	1
21	22	4
113	133	1
5	29	1
94	120	4
88	91	2
65	127	2
90	91	4
122	127	2
0	13	3
85	107	4
63	132	2
123	125	2
131	133	1
61	75	1
63	119	2
77	134	1
45	46	2
83	106	1
110	113	3
81	82	1
104	105	1
53	54	2
105	106	1
134	135	1
10	11	2
50	54	2
59	93	1
73	76	1
83	88	1
44	45	1
48	50	1
54	69	1
75	107	1
115	132	1
94	121	1
5	13	3
116	119	2
100	101	1
71	98	1
95	96	1
42	43	2
83	133	1
108	110	1
118	120	1
54	56	1
65	113	1
72	73	2
109	116	1
55	64	1
96	101	1
1	42	1
19	21	1
53	55	1
83	85	1
129	133	1
62	64	1
62	103	1
46	66	2
50	86	1
95	119	1
87	88	2
27	43	1
47	50	1
68	71	1
121	127	1
34	36	1
5	9	2
33	34	1
46	46	1
119	131	1
112	126	1
22	45	1
98	100	1
0	48	1
