95	110	1
121	122	2
8	8	2
129	129	5
22	22	14
113	114	2
122	124	1
75	85	7
20	39	5
56	56	9
49	138	4
30	30	15
93	94	2
102	103	5
124	131	2
108	108	7
85	85	8
18	18	4
23	23	3
29	29	13
93	111	2
94	111	2
25	25	5
63	63	5
129	130	3
59	59	3
100	100	4
35	35	2
73	73	10
19	19	5
115	115	4
63	100	2
99	100	3
5	10	1
106	107	3
103	104	5
84	84	4
63	81	5
49	49	2
59	60	5
134	134	2
118	128	4
28	29	3
95	95	5
117	117	2
62	62	7
74	74	4
72	73	1
76	76	2
21	21	8
109	116	3
18	38	1
96	97	1
124	124	8
136	137	4
104	104	2
20	20	4
37	37	4
2	2	10
1	1	1
90	90	3
92	92	4
107	108	5
16	42	2
27	27	3
97	98	1
15	19	1
43	43	4
94	94	4
61	61	2
125	125	7
87	87	2
98	98	2
35	36	1
88	88	1
80	80	8
140	140	2
48	48	9
118	130	1
70	70	2
42	42	6
75	86	2
103	103	14
120	120	6
91	92	1
12	12	6
9	9	1
97	97	10
21	24	2
40	40	7
23	26	5
119	127	1
144	144	5
141	142	2
53	53	7
60	112	2
77	85	2
105	106	3
146	146	5
30	139	2
101	101	2
14	19	4
123	123	4
37	41	4
39	39	5
63	65	1
26	27	3
75	75	3
141	141	2
51	138	1
66	67	4
82	82	5
38	38	6
66	66	4
5	31	2
34	34	5
69	69	6
73	74	2
55	55	3
20	25	3
38	39	3
31	33	2
28	61	3
87	90	4
110	115	1
18	19	2
47	52	1
133	134	10
51	136	3
14	14	2
17	18	1
137	137	3
113	113	10
64	98	1
0	1	6
105	105	6
26	26	5
118	132	1
33	33	10
65	66	1
6	33	3
122	122	4
67	67	6
57	57	3
57	116	1
106	106	2
64	64	1
32	133	3
47	48	1
96	96	7
52	52	4
47	136	3
41	41	4
56	57	3
10	10	4
80	82	1
85	88	1
102	105	1
98	99	1
77	77	3
107	107	2
116	116	7
78	89	3
47	50	2
132	132	4
36	42	1
123	124	1
31	31	4
72	72	4
54	54	4
54	84	2
112	112	4
31	32	1
0	0	4
4	5	8
108	109	1
30	31	2
95	97	2
130	130	1
71	72	2
130	131	2
5	5	4
14	36	2
93	93	1
131	131	2
88	89	1
104	105	2
111	111	2
64	65	1
32	32	2
92	94	2
13	14	1
52	138	1
25	26	3
83	83	1
67	71	1
78	79	2
75	79	2
118	129	2
138	139	2
55	96	2
6	6	4
16	41	1
28	28	1
20	35	1
50	50	1
17	17	2
137	138	1
108	116	2
52	53	1
126	130	3
124	125	1
128	129	3
30	42	2
51	51	3
103	105	1
68	68	1
114	114	1
16	16	1
126	126	3
135	135	1
78	78	1
128	128	4
60	60	2
144	145	2
49	52	1
91	91	2
57	136	1
39	40	4
32	134	1
118	118	2
81	81	1
25	27	2
67	84	1
64	81	1
139	140	2
103	107	2
127	127	1
11	11	2
29	64	1
121	121	1
114	115	3
101	103	1
89	89	1
28	63	1
66	81	2
90	98	2
11	42	1
118	124	1
111	112	2
132	137	1
58	137	2
37	68	1
4	4	1
54	85	1
74	75	1
99	99	1
58	58	1
77	78	1
74	82	1
14	15	1
2	3	1
47	135	1
53	67	1
20	36	1
28	100	1
