95	95	20
125	125	12
118	118	8
2	2	20
44	44	3
60	84	3
57	57	2
102	102	17
21	21	5
122	123	1
13	13	11
32	32	4
9	9	2
58	104	7
75	77	3
94	95	4
130	130	8
48	69	4
88	89	2
118	133	2
119	131	8
48	48	12
12	12	13
59	76	2
114	114	2
60	82	1
76	76	11
76	78	2
17	20	4
51	51	4
132	132	6
120	120	10
63	63	3
50	51	1
49	49	1
100	100	11
43	53	3
116	116	6
112	112	4
93	118	1
96	96	4
20	20	7
8	8	13
27	27	8
39	39	3
14	64	1
123	123	9
48	49	7
6	6	9
108	108	10
124	124	7
121	121	4
58	59	1
40	41	1
70	80	4
104	104	9
43	49	2
106	107	7
63	64	4
93	93	5
11	13	7
54	58	2
106	106	4
10	11	2
100	102	2
55	55	3
113	114	3
73	73	8
105	105	14
107	108	2
70	71	4
56	56	3
29	29	12
43	43	3
55	100	2
111	111	11
16	16	6
68	68	7
17	18	1
70	70	6
40	40	1
83	83	8
84	85	5
1	1	11
78	78	10
117	117	4
85	85	9
132	133	5
63	91	1
17	60	2
129	129	3
45	45	5
122	122	12
25	27	5
22	38	1
84	84	12
107	107	3
79	79	8
17	17	2
43	84	2
10	10	8
49	112	2
94	94	8
45	48	3
50	50	13
90	90	5
11	12	3
19	19	5
24	24	16
97	97	2
57	58	1
20	21	3
85	91	3
85	86	3
52	109	7
7	7	3
77	81	1
22	22	3
56	57	4
28	30	2
47	69	5
4	4	5
18	18	7
76	77	7
114	115	4
56	99	1
119	119	14
103	103	6
69	72	2
0	1	4
52	52	5
25	25	5
53	54	3
80	81	7
115	116	2
18	19	4
20	68	2
95	120	2
23	23	5
15	33	3
73	82	1
109	109	6
5	50	1
80	80	3
6	50	2
104	105	3
86	87	3
72	72	2
42	43	7
100	128	2
77	77	6
116	117	1
119	120	1
75	75	2
108	110	4
21	22	1
24	38	2
126	127	5
88	93	1
29	30	3
52	107	2
72	74	1
18	20	1
126	126	3
62	62	7
15	116	3
53	53	4
54	57	2
11	11	5
27	28	1
28	28	2
54	54	4
99	99	5
30	31	1
74	82	2
41	41	2
52	110	1
64	89	1
81	81	4
30	30	10
33	33	4
74	83	3
5	5	2
89	93	3
110	110	6
93	94	4
109	110	3
95	96	2
67	69	1
23	24	4
128	128	1
47	48	3
98	99	1
79	80	1
115	117	1
28	37	1
12	13	4
21	68	2
54	56	2
47	47	1
82	83	1
12	65	4
14	15	1
76	79	2
15	15	5
101	101	3
106	109	3
74	74	6
100	126	2
56	84	1
77	78	3
103	104	2
78	79	3
75	82	1
69	69	6
3	3	2
92	92	2
79	83	1
53	57	3
97	130	1
59	61	1
120	122	1
65	65	1
78	112	2
113	113	3
14	14	2
87	87	1
83	84	1
33	68	3
75	81	1
59	83	1
62	63	1
75	76	1
82	82	5
42	48	1
4	6	1
46	46	1
6	7	3
104	108	1
33	34	2
21	39	3
15	66	2
0	0	2
51	111	2
58	100	3
61	62	2
81	82	2
79	114	5
29	34	1
15	17	1
24	25	2
93	95	1
41	42	1
113	117	1
48	68	1
71	71	1
46	71	1
98	130	1
38	39	3
92	94	2
99	100	1
131	131	2
124	125	2
26	26	2
61	61	2
119	132	2
65	66	2
107	109	2
79	81	2
43	44	1
33	64	1
20	67	1
14	66	1
17	32	1
130	131	2
131	132	4
4	87	1
1	7	1
22	24	1
53	108	1
68	69	1
22	23	1
133	133	1
8	9	1
100	101	1
84	93	1
78	80	2
56	98	1
99	101	1
34	34	1
88	88	1
31	31	1
25	26	1
