1	2	2
103	103	8
183	184	4
170	171	7
114	115	2
41	41	5
73	74	2
7	7	5
118	118	9
45	45	9
112	183	2
149	149	12
71	72	4
132	132	9
149	174	1
168	169	5
11	12	5
142	142	8
139	139	8
153	153	4
97	98	1
128	128	32
62	62	4
159	172	3
141	164	7
73	73	12
94	94	5
138	138	7
29	29	9
76	78	3
50	50	15
169	169	14
67	67	9
151	151	6
76	76	4
167	171	3
16	17	5
108	108	18
158	159	7
70	70	2
145	151	3
39	39	3
10	11	5
162	162	9
17	18	3
72	72	6
71	129	2
27	27	11
122	122	3
98	99	2
135	135	13
101	103	2
113	113	10
179	179	7
4	4	6
157	158	1
17	17	6
151	172	2
13	13	10
175	176	4
11	11	14
175	175	6
114	114	7
183	183	13
160	160	5
141	141	17
58	58	11
125	125	11
4	8	2
145	145	2
155	156	4
35	35	6
22	26	1
177	177	4
106	106	10
15	16	4
114	155	1
90	90	5
97	97	6
137	141	2
57	57	12
48	49	12
68	68	12
34	34	8
87	89	3
150	150	9
15	15	9
170	170	4
147	175	1
35	36	1
84	93	3
59	60	1
152	171	2
171	171	7
31	31	6
20	20	5
36	36	17
54	54	6
79	80	7
184	184	13
25	25	7
4	27	3
148	148	5
150	153	1
105	106	3
109	171	2
167	167	5
60	63	1
44	44	9
119	119	10
133	133	10
93	93	4
193	193	5
179	180	5
126	126	5
14	14	3
52	52	14
148	177	2
14	15	5
125	196	3
47	47	10
129	129	10
197	197	11
173	173	3
178	178	6
142	145	4
66	66	5
195	195	7
38	39	7
123	123	2
82	83	2
53	53	7
84	84	5
101	159	3
117	117	6
124	136	1
116	116	11
126	127	3
157	157	6
132	135	3
172	172	3
5	31	1
85	99	5
59	59	22
121	121	9
192	192	3
195	196	3
165	166	7
5	34	1
190	190	6
189	192	1
9	10	7
185	185	15
149	175	5
11	15	4
2	16	3
21	21	9
30	30	7
5	6	5
87	87	6
79	79	7
60	60	10
176	177	4
105	105	12
37	37	7
19	20	4
136	136	5
12	12	6
180	180	7
118	119	2
120	120	2
101	119	2
69	153	1
166	166	4
21	23	2
3	34	2
116	119	2
42	42	2
150	194	1
186	186	6
20	21	2
1	1	10
155	155	6
74	153	1
19	19	8
59	61	2
154	154	3
154	155	1
48	48	3
8	8	6
138	181	7
160	166	3
46	46	12
117	131	3
99	100	9
51	51	7
168	168	12
161	161	2
118	121	2
156	156	7
104	104	6
124	124	4
5	7	2
55	55	6
9	9	8
117	122	3
136	137	3
10	10	12
3	3	1
102	116	8
131	132	1
37	45	2
6	6	3
156	166	1
33	37	3
22	22	6
49	49	7
134	135	4
49	56	2
156	157	5
2	2	9
42	58	3
69	70	2
134	134	4
12	78	1
159	159	4
28	29	3
143	153	3
174	174	2
165	165	3
130	130	2
131	131	2
32	32	11
33	33	7
159	160	2
43	43	6
116	124	3
6	7	1
85	85	2
54	58	5
10	60	1
74	74	8
147	147	5
140	140	2
98	98	9
141	168	3
56	79	1
136	170	3
135	170	3
193	194	4
76	177	3
129	131	3
16	27	2
167	168	4
185	186	1
117	125	3
127	127	6
64	64	5
88	88	6
146	146	5
40	43	1
66	69	3
58	59	1
189	189	4
64	71	1
96	97	1
64	65	2
181	181	8
161	168	1
127	133	3
38	38	5
181	182	2
78	79	3
76	80	2
57	62	5
102	103	5
150	190	2
144	152	1
5	8	2
112	112	2
5	5	1
151	175	5
71	71	8
85	86	2
108	152	1
129	133	3
132	134	2
175	190	1
69	69	5
16	16	4
120	121	3
128	129	3
152	152	3
40	41	1
196	196	13
143	177	4
46	196	4
138	148	4
56	56	7
31	32	1
78	81	1
102	118	1
176	176	2
151	191	4
128	181	3
80	80	1
115	195	4
42	43	2
186	189	2
41	61	1
110	110	3
181	183	3
36	46	1
163	164	2
53	55	2
99	99	3
158	158	5
24	27	1
43	44	3
115	115	7
104	105	3
127	128	4
1	30	2
3	15	2
127	134	1
82	82	2
9	34	2
54	55	3
109	111	2
182	183	1
134	146	3
164	166	1
188	188	3
106	107	1
69	109	1
125	138	3
158	174	3
23	23	4
162	166	4
77	81	1
164	164	1
167	177	1
102	105	2
16	28	1
124	185	1
24	24	5
104	130	1
160	161	4
7	8	1
89	89	1
149	150	1
38	47	1
192	193	1
24	26	1
150	151	1
72	73	2
109	109	4
150	154	2
85	87	1
154	160	1
194	194	3
76	77	2
76	97	1
26	27	4
100	100	3
129	135	1
8	32	1
71	152	1
101	101	5
110	150	2
189	191	5
37	39	1
64	74	1
77	77	3
113	123	2
103	104	1
55	56	2
30	35	4
139	143	1
191	192	1
139	140	3
65	65	2
105	116	1
194	195	1
187	188	1
157	167	1
37	38	2
81	82	6
186	187	1
70	141	1
43	80	3
141	142	1
62	63	1
50	51	4
23	24	2
101	102	2
29	30	1
109	110	3
47	130	1
3	17	2
116	118	1
47	48	1
69	108	1
94	95	1
10	12	1
7	16	1
107	109	1
45	46	1
22	25	2
111	181	1
148	175	2
10	57	3
191	191	3
60	61	3
143	143	1
164	176	1
148	173	1
40	45	3
150	193	1
66	67	1
60	76	1
124	125	1
187	189	2
9	48	1
81	81	3
70	71	1
153	157	3
78	78	4
96	98	1
101	121	1
155	158	2
20	23	1
170	172	2
79	87	1
41	42	1
144	144	1
187	187	2
3	27	1
166	171	1
64	75	2
70	182	1
102	102	1
115	127	1
61	61	3
64	66	1
160	170	1
39	40	1
169	170	1
28	28	1
36	37	1
67	68	1
122	124	2
165	171	1
86	86	2
135	136	1
182	182	1
143	144	1
34	35	1
114	156	1
52	53	1
71	136	1
