3	3	4
84	84	1
70	94	2
24	27	3
1	48	2
14	14	3
20	73	1
33	34	2
100	100	7
28	99	1
130	131	2
80	80	8
104	104	3
68	68	4
16	16	3
21	26	2
122	122	6
105	113	2
129	129	2
117	118	1
128	130	6
27	77	3
42	60	1
118	127	1
2	2	3
106	106	5
69	71	2
109	110	4
71	76	1
60	61	3
10	10	7
71	73	3
5	5	2
7	7	5
92	92	7
1	60	2
121	121	6
93	93	1
66	66	5
73	73	2
123	123	1
40	40	2
54	109	1
59	60	3
74	74	6
46	59	3
98	102	2
13	17	2
45	46	4
112	115	2
61	68	2
90	90	3
71	71	2
23	23	5
5	128	1
111	112	1
101	101	8
47	47	3
0	0	1
27	104	1
18	18	7
69	69	6
57	57	4
72	72	3
77	109	1
9	11	2
29	29	3
55	62	2
13	18	2
22	24	2
4	4	2
77	96	2
108	108	3
33	33	2
8	9	3
62	66	2
13	21	3
16	125	1
17	23	4
13	13	6
2	4	5
127	130	1
56	62	1
92	97	3
60	60	1
94	97	1
103	103	4
85	86	3
116	116	4
110	110	3
96	121	1
112	112	2
70	70	1
132	132	1
88	88	4
32	32	4
26	26	5
48	48	7
124	124	5
127	127	1
72	75	1
98	98	2
21	27	1
96	103	1
80	85	3
61	65	1
112	133	1
109	109	3
89	89	1
78	102	1
17	28	2
58	58	1
9	10	4
62	63	1
44	45	2
4	10	1
117	117	1
41	51	2
31	32	2
2	10	3
44	44	3
51	82	1
62	62	1
67	67	2
61	61	2
0	1	1
25	25	1
99	99	2
23	24	3
27	80	1
21	23	1
11	11	1
14	22	1
3	130	1
105	115	1
29	89	2
11	16	1
39	46	1
105	105	1
20	20	1
16	17	1
77	78	1
63	67	1
43	43	3
74	88	2
83	83	2
24	126	2
14	67	3
42	58	1
15	15	1
87	87	2
78	78	1
53	53	1
30	30	1
86	86	1
39	39	2
24	24	1
88	89	2
5	47	1
45	52	1
130	130	1
51	52	1
33	49	1
94	115	3
21	21	2
51	51	1
81	81	1
103	133	1
27	27	2
22	22	1
106	126	1
99	100	1
98	100	2
3	62	1
70	74	1
14	16	2
39	40	1
52	53	1
5	129	1
31	31	2
75	75	1
80	96	1
70	71	2
11	29	1
81	106	1
120	120	1
14	40	1
97	97	1
113	113	1
91	91	2
115	115	1
96	102	1
126	127	1
95	95	1
28	28	2
44	89	1
87	92	1
72	74	1
4	117	1
107	107	1
94	94	1
