23	23	12
112	113	3
37	37	16
102	102	9
4	4	14
114	119	5
95	95	1
28	28	7
93	93	7
26	26	7
118	118	8
30	30	6
20	20	3
103	107	1
16	16	4
107	109	1
129	129	3
78	78	7
119	119	7
32	32	7
29	30	4
11	11	12
71	72	6
29	29	24
25	26	6
118	120	5
89	93	3
77	78	3
123	125	2
11	14	4
87	90	7
18	18	10
104	105	4
77	88	1
94	94	4
121	121	6
73	73	2
103	103	11
86	86	3
87	93	1
14	14	5
127	127	10
104	104	6
133	133	4
112	112	7
95	100	3
75	110	3
128	128	4
6	101	3
116	116	5
10	11	3
74	80	2
93	94	1
99	99	1
19	19	4
25	25	8
131	132	5
113	113	3
138	138	5
2	2	5
73	75	1
135	135	13
24	24	7
34	34	3
100	100	6
85	85	5
137	140	1
14	21	4
98	98	6
82	86	6
8	14	4
115	115	3
88	88	5
103	104	9
4	5	4
7	7	2
119	124	2
90	90	2
13	16	4
1	1	7
34	35	2
1	4	3
2	3	3
114	117	4
17	17	5
81	82	4
77	77	2
82	90	1
33	33	1
124	124	7
29	33	2
80	80	2
116	117	9
114	114	4
81	81	12
111	121	3
5	6	2
90	93	3
23	24	5
104	119	3
110	110	8
87	89	1
120	121	5
135	136	2
93	99	1
15	15	2
18	19	7
130	130	3
134	136	1
131	131	6
107	108	2
112	116	2
134	135	1
27	27	5
14	16	3
120	120	9
74	75	5
80	86	3
72	72	9
10	10	6
96	96	3
66	71	2
73	74	2
10	15	3
36	36	4
107	107	3
95	98	4
83	83	1
112	114	2
5	5	4
22	22	2
31	31	3
0	0	5
71	71	4
103	132	3
109	128	2
95	96	1
37	81	1
13	15	4
8	18	2
84	85	1
10	14	2
106	107	2
134	134	2
2	29	3
17	21	1
121	122	3
13	13	6
74	77	2
109	109	2
12	13	1
132	132	2
9	12	3
97	97	3
126	126	2
113	119	2
8	8	6
27	32	2
96	97	3
101	103	2
115	116	3
101	101	3
129	130	1
102	103	2
35	35	3
125	125	3
16	17	3
79	110	5
92	92	5
74	107	1
75	75	3
9	11	1
136	136	3
81	105	3
76	76	5
72	73	1
118	122	3
108	129	1
11	93	1
25	103	1
13	14	3
82	101	2
111	111	3
92	93	2
89	91	1
31	32	1
0	6	1
22	25	1
110	119	1
99	100	1
137	138	2
18	21	1
27	30	4
137	137	2
21	22	1
1	3	4
3	3	1
0	17	1
105	105	1
114	115	4
113	116	2
6	11	1
76	77	4
20	27	1
79	79	3
23	26	1
12	17	1
71	73	1
103	105	1
95	99	1
1	5	1
81	83	2
83	86	1
32	33	3
94	95	1
90	91	1
85	87	1
92	94	2
118	119	1
11	13	1
98	100	2
94	129	1
37	79	1
26	128	1
82	84	1
105	107	1
121	123	1
96	98	1
117	117	1
101	102	1
6	6	1
6	9	1
85	119	1
112	122	1
