103	103	5
101	113	1
72	72	9
100	100	7
111	111	10
88	88	1
120	120	13
126	126	7
138	138	7
83	83	2
74	75	1
124	124	10
71	78	3
79	80	5
6	6	6
9	9	8
16	16	5
137	137	10
94	98	3
32	34	2
87	87	6
20	20	12
108	109	6
8	8	8
123	123	14
35	35	24
79	79	13
88	96	2
26	27	2
104	118	2
89	89	9
96	96	7
75	75	8
95	95	6
126	127	4
88	90	3
116	117	4
84	85	5
80	81	4
99	99	7
34	34	13
4	4	17
12	13	2
78	78	11
127	127	10
125	125	3
68	78	2
129	129	6
86	89	1
128	128	13
77	77	11
107	107	9
140	140	4
131	131	15
19	20	3
32	32	13
13	13	12
87	88	4
110	110	8
112	113	1
22	22	9
97	97	10
23	23	3
116	116	17
133	133	10
81	83	4
76	79	2
2	2	15
27	32	1
111	119	4
15	15	4
135	135	13
10	10	7
6	8	4
1	1	6
106	106	8
30	30	3
28	28	5
15	22	1
96	129	2
33	34	4
108	108	16
73	73	7
72	132	1
25	25	12
16	28	3
17	18	6
14	19	2
86	86	5
26	31	1
12	12	8
27	27	2
76	76	6
3	3	7
83	85	4
31	31	5
95	127	2
105	105	7
36	36	2
5	7	1
1	3	4
84	84	6
7	7	12
137	138	5
107	116	1
130	130	15
101	101	6
120	121	4
104	105	3
72	73	9
28	29	1
1	4	6
98	98	8
14	14	8
139	139	12
92	92	3
101	102	3
118	118	4
10	12	3
33	33	5
128	129	1
107	119	3
107	108	6
114	114	6
22	26	2
89	90	2
115	115	11
102	102	5
94	94	2
117	117	2
114	115	4
139	140	7
82	85	1
73	77	2
0	0	2
26	26	6
19	19	5
25	26	5
37	37	7
119	119	5
136	139	2
113	119	3
136	136	7
24	25	4
5	5	2
0	1	5
4	34	1
21	21	1
100	102	1
96	128	2
124	125	1
80	80	3
18	18	8
100	103	3
106	107	3
113	113	2
132	132	3
109	109	8
22	23	5
24	24	3
3	22	3
95	98	1
82	83	3
13	14	1
85	120	1
104	114	1
130	132	3
83	84	3
7	79	3
94	124	2
134	134	8
38	38	5
10	11	1
11	12	2
91	91	4
11	31	4
122	122	2
27	28	2
129	131	3
74	74	6
23	24	2
16	17	1
29	31	5
89	121	2
17	17	2
24	32	1
105	107	3
118	119	2
125	127	2
104	104	2
97	98	2
75	81	2
81	84	2
9	14	2
22	33	1
113	114	1
11	11	4
82	125	1
5	6	1
101	111	1
124	131	1
88	89	3
129	130	3
111	112	3
81	81	2
121	122	1
110	112	1
109	110	2
3	4	3
130	131	1
82	82	1
112	112	1
18	34	1
118	122	1
98	128	1
96	100	1
117	118	2
87	90	2
85	122	2
8	20	1
4	19	1
37	38	1
112	119	1
1	2	2
86	122	1
34	35	1
4	33	1
71	71	1
121	121	2
87	117	1
29	29	2
90	90	1
28	32	1
95	107	1
77	79	1
