56	71	3
30	30	10
17	25	1
8	8	9
1	1	3
18	19	4
19	19	18
71	75	5
56	56	3
54	54	11
13	61	3
47	47	13
32	32	11
28	29	6
13	48	4
3	3	5
55	55	7
73	75	2
53	53	13
29	29	8
33	33	6
62	62	11
66	66	14
67	68	9
52	52	5
39	39	5
51	51	11
73	73	9
27	28	2
52	55	2
65	80	1
34	34	5
2	2	7
21	70	1
67	67	8
76	80	6
9	10	3
72	79	3
63	65	2
47	49	2
7	8	6
47	63	1
49	72	3
12	12	6
28	28	5
65	65	15
66	67	7
27	27	5
74	74	7
38	42	4
4	4	1
7	38	5
18	56	1
61	61	4
20	21	2
68	69	5
76	76	4
29	45	2
1	2	6
78	80	8
0	76	3
75	75	8
69	69	7
52	54	7
12	49	1
9	12	3
48	75	5
9	9	9
43	43	5
63	64	12
2	6	4
54	74	3
7	7	8
27	33	4
55	56	1
2	18	2
49	50	8
26	26	10
10	11	3
62	64	3
37	38	1
49	70	5
61	62	4
31	32	2
51	52	9
48	49	2
0	53	1
0	2	2
66	79	2
48	50	3
52	53	10
16	16	7
17	17	6
26	27	1
1	42	2
48	48	3
38	39	2
25	25	1
57	57	5
59	59	3
42	42	7
35	39	2
56	57	2
80	80	6
50	50	6
41	41	6
34	35	4
0	0	7
52	71	4
8	9	8
1	55	1
64	64	2
60	61	4
38	38	2
12	13	5
27	45	1
45	45	4
14	14	13
46	46	7
47	60	3
35	37	4
68	68	10
0	3	2
32	33	5
11	11	5
14	15	3
37	37	7
70	70	2
21	21	1
49	55	3
12	14	3
31	31	7
0	1	4
54	72	1
8	39	1
18	18	4
35	36	2
15	33	3
37	45	2
10	12	1
13	13	7
59	60	6
2	3	3
74	75	1
6	15	4
72	72	2
11	49	1
46	47	4
17	19	3
12	16	1
9	17	3
15	16	1
65	79	2
8	30	4
15	20	1
57	58	2
58	58	8
50	53	3
39	40	1
8	18	2
2	43	4
17	26	2
14	63	3
26	28	5
76	78	1
30	33	1
36	39	1
17	39	2
47	48	3
31	33	3
3	72	2
63	78	3
72	73	3
13	14	5
48	73	2
27	46	2
9	55	2
58	59	2
5	5	5
74	76	5
10	10	4
1	76	2
73	74	3
1	3	2
51	53	2
11	50	1
34	63	1
9	77	1
14	32	2
36	36	5
9	56	1
13	69	1
40	40	1
20	20	2
56	68	1
33	47	1
50	59	3
28	33	5
10	54	1
19	71	1
76	77	1
38	41	1
5	15	1
17	60	1
49	53	2
3	4	1
10	76	1
1	9	1
17	33	2
60	62	2
70	71	1
43	46	1
71	77	1
77	77	1
49	49	1
7	10	1
49	69	1
16	45	1
35	35	3
79	80	1
64	80	2
15	64	1
30	31	2
6	7	1
69	70	2
9	66	1
12	56	1
14	17	1
9	11	1
58	65	1
0	54	1
6	6	2
12	33	1
34	64	1
40	41	2
41	42	1
16	48	1
50	51	1
37	39	1
31	56	2
25	26	1
53	71	1
36	37	1
