23	23	23
71	72	2
1	1	5
29	29	12
25	30	3
121	122	6
26	26	16
27	27	18
25	25	17
121	121	19
10	10	4
85	106	4
0	1	14
96	97	4
73	73	13
78	78	20
111	111	9
102	102	24
77	77	10
126	128	1
67	92	4
3	4	6
25	31	8
9	14	1
27	28	9
52	72	5
24	24	12
96	96	14
132	133	8
34	34	26
62	62	7
90	90	12
14	16	5
52	53	2
86	86	12
106	106	34
94	94	13
72	72	17
33	33	6
74	74	15
35	43	9
87	87	13
106	107	6
22	22	9
1	3	5
84	84	2
60	62	5
65	65	12
3	3	12
16	24	7
93	93	18
104	105	8
23	24	2
61	63	2
7	7	4
53	53	17
48	50	2
97	100	3
97	97	14
59	59	21
54	96	4
22	23	9
112	112	19
50	50	12
11	11	18
126	126	10
69	70	4
13	13	17
115	115	27
15	25	3
88	112	4
2	12	6
51	51	5
107	120	3
104	104	17
64	66	2
37	37	12
7	16	5
81	81	6
127	127	14
130	130	10
24	29	4
13	26	1
107	107	21
115	116	6
88	88	21
129	129	22
18	18	13
76	76	26
20	23	4
22	37	4
114	115	11
102	103	5
92	93	11
92	92	7
91	91	6
69	69	26
19	20	3
79	79	10
35	35	10
27	35	3
135	135	2
6	6	17
108	108	6
20	22	2
60	61	3
68	109	4
0	0	13
83	125	6
15	15	9
82	84	9
31	31	16
65	69	8
53	100	6
103	104	8
57	59	6
14	14	11
109	114	1
12	12	5
105	105	21
100	100	10
99	99	7
72	73	2
6	56	1
80	124	1
57	57	4
23	25	1
8	8	4
17	17	18
83	85	7
5	15	2
109	109	9
95	95	19
78	79	7
85	109	1
34	35	4
28	43	4
21	21	13
2	4	3
11	12	2
52	52	7
65	68	6
123	123	12
16	16	5
125	125	22
28	52	3
68	68	11
17	24	4
80	80	6
110	110	11
117	118	7
35	36	5
86	88	3
85	86	1
11	21	4
13	14	1
32	32	17
45	45	13
114	126	2
43	43	8
80	131	4
82	82	24
60	60	9
24	26	4
134	134	14
44	44	6
52	58	3
23	29	2
75	75	14
71	73	5
80	107	3
86	87	2
31	33	2
4	4	12
113	113	8
77	118	1
128	128	12
122	122	5
90	99	3
66	66	7
20	20	8
107	108	5
68	69	15
108	112	3
126	127	7
28	28	12
64	65	5
111	113	2
98	104	1
63	64	8
96	98	1
82	83	6
103	103	11
33	36	1
37	38	6
38	38	4
98	98	20
105	114	3
68	93	2
67	67	13
19	19	9
67	129	2
118	118	5
47	59	2
61	61	17
123	124	3
65	66	3
75	134	1
88	111	3
86	91	2
6	16	1
116	116	6
113	116	2
28	29	6
2	3	3
18	33	6
91	93	1
97	122	3
101	101	7
63	63	14
90	114	2
116	117	4
120	120	11
80	81	3
3	55	1
49	57	4
85	115	2
33	34	3
119	119	13
76	77	2
46	46	5
4	5	3
131	132	5
95	111	1
121	129	3
129	131	4
83	106	3
89	89	11
127	128	5
124	125	1
62	72	5
58	59	1
71	71	11
121	124	6
117	117	6
118	119	1
45	49	3
119	120	5
44	49	4
17	26	1
106	118	1
132	132	11
15	22	2
114	114	9
21	30	2
6	7	4
85	107	1
85	110	1
29	35	1
7	14	1
11	28	2
107	115	2
83	132	3
95	98	2
21	22	6
15	20	1
61	92	1
116	118	4
76	133	5
97	112	2
64	64	6
75	76	3
133	133	3
87	88	5
5	7	2
63	65	2
30	30	6
82	101	1
107	125	1
124	124	13
19	21	4
131	134	3
88	113	3
94	96	1
128	129	3
54	54	9
19	23	1
109	126	3
67	69	6
101	109	6
5	5	5
20	25	1
10	29	1
102	112	5
131	131	5
59	89	2
74	75	5
122	123	3
98	105	4
2	11	2
55	55	8
16	26	2
67	68	3
44	45	5
12	13	3
27	45	1
83	84	3
52	63	3
54	90	3
125	127	1
9	9	7
87	91	5
103	116	1
94	95	2
36	36	6
110	118	2
3	8	2
29	52	4
31	32	1
90	91	3
105	106	3
85	85	4
2	2	6
61	95	1
79	130	3
93	94	3
49	49	3
125	128	2
73	74	5
57	58	3
70	70	2
47	49	2
84	107	3
1	55	1
115	123	4
85	108	3
53	60	2
59	60	2
27	36	1
58	58	3
97	98	2
24	30	2
83	108	4
23	26	3
79	80	2
43	44	1
54	57	4
10	14	2
79	81	4
69	80	2
80	133	1
112	117	3
70	75	1
36	38	2
108	109	3
108	110	1
105	128	4
76	85	2
55	100	2
91	92	5
7	8	2
45	51	2
105	125	1
89	90	1
52	61	2
1	4	2
60	64	2
104	112	1
47	47	1
95	96	6
19	25	1
56	100	3
77	78	1
94	98	3
20	34	2
101	105	1
88	89	1
29	33	1
26	27	1
16	23	1
25	26	2
98	99	3
50	54	1
117	124	2
111	120	1
87	113	1
129	134	1
91	112	1
65	130	1
79	129	1
106	108	1
26	29	1
107	121	1
5	6	1
110	119	1
45	50	2
32	33	2
86	115	1
14	24	1
70	89	2
16	17	1
101	102	2
125	133	1
76	114	1
94	112	1
118	120	1
54	59	1
45	46	1
30	32	1
112	126	2
56	124	1
95	109	1
30	34	1
81	114	1
111	112	1
97	121	1
13	23	1
46	47	1
1	2	1
