150	150	5
149	153	3
71	71	5
33	33	2
183	184	3
33	38	3
185	187	4
78	82	2
164	165	4
152	161	4
128	135	10
150	172	5
74	77	3
121	130	5
129	129	5
120	122	3
63	63	7
135	137	12
62	63	2
160	160	4
164	169	2
70	75	8
42	42	8
101	104	2
22	23	3
164	164	10
53	55	7
48	54	6
128	130	7
144	144	4
114	120	3
17	29	2
55	57	3
4	12	6
76	82	11
17	23	6
77	81	4
14	24	1
87	92	1
149	154	2
54	54	17
126	126	3
0	1	4
113	117	3
167	177	2
96	98	4
161	169	3
177	179	7
15	19	2
178	179	1
111	114	1
17	17	3
44	47	9
25	25	6
1	2	6
29	33	1
22	22	6
34	36	13
71	81	3
188	189	3
134	135	1
53	54	9
83	85	3
152	152	8
122	126	1
117	118	6
84	85	4
41	43	4
123	129	3
183	183	9
170	172	7
57	57	4
54	56	2
175	179	4
167	181	1
2	6	4
36	36	7
164	166	4
11	13	1
93	93	9
146	148	5
30	35	2
97	97	3
75	79	2
133	133	7
136	136	3
35	38	8
150	161	2
30	40	3
34	41	4
124	129	1
152	155	5
189	189	11
12	23	4
63	70	3
16	17	1
125	132	6
10	10	5
101	103	6
61	61	4
151	154	2
8	8	5
102	104	1
172	179	7
77	77	9
42	46	3
29	35	4
23	23	5
98	99	5
109	112	1
99	99	4
2	5	3
155	156	6
109	115	7
6	7	7
131	134	2
21	22	8
105	105	15
0	6	1
94	94	6
163	166	5
126	130	2
37	43	4
72	72	2
120	120	4
121	123	6
5	6	5
64	76	1
20	22	1
95	103	3
5	7	7
94	99	1
70	74	6
121	121	8
60	61	7
161	161	3
84	84	7
45	48	11
134	139	4
17	22	1
138	138	5
180	181	4
145	147	5
120	126	3
92	99	5
140	143	3
86	86	2
19	29	5
15	20	4
26	38	2
144	156	2
97	101	3
186	189	5
22	24	2
41	47	6
79	89	2
61	67	2
135	135	3
92	93	2
7	10	2
184	184	5
144	150	4
165	179	2
102	105	1
88	90	17
100	103	4
21	27	4
61	62	3
182	182	9
53	53	14
26	28	3
85	85	8
5	12	5
71	72	2
161	171	1
12	12	6
167	171	2
29	29	1
56	57	4
76	81	1
52	55	5
110	110	3
159	163	3
0	3	10
155	171	1
166	174	4
176	181	7
110	113	6
54	55	2
60	60	9
184	187	6
1	1	5
163	171	2
5	15	3
44	44	6
171	174	1
72	75	1
123	124	3
182	184	2
6	6	7
149	155	1
125	128	2
18	19	8
25	26	12
34	34	6
68	76	5
109	110	1
116	116	4
186	186	5
166	169	2
104	106	5
104	104	7
122	122	1
93	94	4
39	43	3
1	3	5
53	58	1
69	71	1
6	12	1
162	164	2
30	31	3
4	4	3
102	102	3
56	60	3
55	58	6
38	39	7
1	8	1
122	129	1
134	134	4
110	117	2
141	161	5
66	68	1
98	98	6
97	108	2
154	154	5
59	59	1
76	77	7
76	78	4
144	148	2
70	70	2
110	111	2
23	26	4
46	46	1
185	188	4
90	93	5
28	31	1
30	32	4
22	32	2
73	73	1
136	139	8
17	19	3
59	66	7
1	5	1
24	26	9
128	134	2
186	187	9
137	154	3
117	117	1
21	26	1
8	13	2
41	45	5
59	64	1
177	178	3
100	105	3
130	130	2
95	97	3
48	48	2
39	39	5
128	139	2
155	160	4
173	174	10
122	124	2
104	105	1
79	83	4
166	171	1
99	100	7
55	56	7
20	24	2
140	144	6
137	137	3
28	41	2
109	111	4
90	96	2
131	131	6
157	162	1
39	47	1
24	24	6
75	85	2
168	177	1
176	176	2
149	151	2
109	113	4
100	107	2
29	36	2
138	148	2
126	134	3
133	137	4
16	18	7
146	151	2
72	78	3
155	155	6
163	169	3
165	165	1
137	145	2
141	144	8
2	3	3
117	121	2
83	91	1
39	44	2
67	74	1
185	190	4
35	72	1
49	55	2
179	179	4
177	181	4
82	82	7
158	159	1
75	75	10
136	142	3
177	177	8
40	47	3
118	118	2
145	145	3
161	162	5
122	123	3
77	80	2
46	47	4
138	140	5
125	125	4
21	21	7
124	124	3
157	157	4
114	114	4
27	29	3
106	110	3
148	148	4
15	25	3
30	30	7
40	46	4
55	55	6
14	16	3
102	103	1
124	128	3
45	45	6
40	58	3
2	2	10
115	120	3
26	35	1
122	125	6
122	128	1
58	61	1
134	142	3
81	81	7
35	39	2
188	190	2
168	168	3
162	162	2
58	60	1
15	21	3
180	182	9
8	11	1
147	154	1
3	4	3
87	89	2
78	86	1
76	76	3
106	107	6
108	120	2
175	175	8
174	182	2
144	149	1
7	8	3
35	35	4
63	64	1
17	21	4
174	185	3
160	164	2
132	135	3
178	187	2
58	58	2
92	92	9
161	163	2
174	177	1
92	95	2
115	116	2
143	168	3
117	120	1
181	190	3
37	37	5
171	173	3
97	99	2
155	163	6
173	181	1
20	29	1
90	92	2
170	182	2
28	29	7
169	171	3
16	20	4
12	16	2
127	128	3
104	115	3
15	15	2
74	75	3
186	190	4
46	48	2
57	65	1
175	184	2
180	180	4
166	170	3
90	91	4
25	34	2
160	162	1
125	127	4
141	142	1
119	120	1
66	72	2
122	127	1
95	95	4
96	96	6
108	119	3
85	87	2
121	125	2
161	164	1
175	176	1
64	68	2
101	107	1
97	103	3
40	41	2
139	139	7
69	70	1
38	38	5
55	59	1
93	95	2
6	21	1
131	132	1
40	40	3
162	170	1
185	185	3
89	91	3
87	87	5
132	140	2
100	102	1
8	14	1
81	82	7
107	108	1
87	93	2
174	176	1
157	164	5
8	18	1
70	76	3
181	185	5
190	190	3
25	36	2
6	14	1
89	89	7
94	105	2
78	78	2
100	104	3
26	32	1
13	21	1
8	10	4
141	147	1
148	152	2
5	10	1
188	188	4
1	14	1
152	159	3
68	80	2
61	63	5
170	170	4
149	156	1
32	32	3
160	161	1
68	74	4
182	186	1
1	4	2
47	49	5
107	113	2
24	27	2
103	106	3
112	113	3
115	122	3
128	128	7
56	67	2
42	45	1
161	172	2
140	146	1
38	46	2
14	14	3
33	34	4
68	68	3
104	107	3
118	119	2
83	83	1
134	141	1
3	3	2
173	177	2
141	154	1
66	67	1
22	31	5
32	40	3
17	20	3
156	162	8
43	43	4
88	91	1
168	180	2
131	139	1
152	153	5
83	84	3
11	15	2
57	58	3
146	146	4
10	18	3
125	129	1
163	174	4
62	65	6
168	169	2
174	174	1
170	175	1
26	36	3
131	138	2
132	137	1
165	168	1
62	66	2
84	88	1
43	48	1
29	32	2
15	16	2
88	88	3
79	81	1
167	178	2
91	91	2
187	187	2
7	7	5
6	8	1
127	130	2
68	72	1
121	122	2
92	94	3
65	65	6
13	17	3
154	157	4
157	163	4
57	63	1
94	96	3
6	16	4
30	38	4
118	122	2
171	171	2
146	149	3
17	18	3
48	49	3
170	179	1
153	153	3
24	33	1
101	129	1
176	179	1
168	170	3
11	23	1
108	108	4
103	104	2
103	103	6
143	145	2
104	116	1
167	167	2
41	41	2
176	183	2
21	33	2
0	0	4
83	90	2
89	90	2
106	106	2
1	13	2
63	73	1
184	185	1
123	125	2
78	81	2
28	28	6
38	45	3
48	55	1
167	176	1
108	110	3
30	33	1
105	106	1
41	42	3
105	107	1
38	41	1
0	5	1
169	172	3
164	167	2
158	158	4
147	147	1
88	96	1
32	37	1
120	124	1
26	37	1
5	5	2
167	169	1
90	97	1
107	111	1
71	77	3
166	166	6
43	47	1
163	164	1
67	68	1
77	79	2
14	18	2
0	2	2
79	82	1
78	132	2
123	123	3
54	63	3
21	23	2
139	140	3
149	149	1
114	115	2
115	126	3
56	59	1
172	174	1
70	77	3
131	133	2
155	161	2
137	139	2
30	36	2
143	149	1
15	17	1
10	12	2
41	44	1
97	109	1
26	27	4
40	42	2
134	140	2
35	36	1
143	147	1
124	125	1
9	10	1
131	137	3
104	118	1
106	118	4
57	59	4
65	66	1
80	82	1
149	152	1
172	173	1
119	122	1
98	101	3
66	66	1
138	139	2
85	95	2
57	60	2
16	16	2
59	62	5
92	97	1
105	112	2
25	27	1
117	119	1
86	131	1
80	80	1
137	146	1
13	13	3
128	132	2
178	190	1
95	96	1
184	190	2
110	124	1
54	62	2
36	46	1
135	140	1
29	30	1
111	111	1
12	13	5
99	102	3
156	158	2
23	25	1
34	35	2
150	158	1
62	62	2
124	130	1
142	154	1
156	156	3
181	181	1
140	140	2
94	95	2
143	144	1
95	98	2
58	59	1
119	119	3
162	169	1
141	141	1
104	111	1
148	151	2
65	67	1
147	152	1
161	173	1
63	66	2
136	144	1
112	112	3
74	74	1
118	126	1
116	119	1
64	73	1
106	109	2
158	174	1
63	71	1
95	106	1
157	160	1
44	48	1
11	11	1
73	75	1
156	159	1
100	101	1
64	70	2
187	189	1
168	172	1
74	82	2
20	30	1
124	134	1
113	113	1
109	109	1
44	46	1
136	149	1
79	79	1
183	187	1
128	131	1
147	148	1
17	24	1
32	33	2
75	76	1
14	157	1
163	163	2
142	142	1
179	183	1
110	120	1
145	155	1
27	27	1
68	70	1
68	77	1
156	163	1
186	188	1
57	61	1
10	14	1
20	23	1
115	123	1
174	175	1
128	141	1
82	85	1
169	173	1
35	37	1
136	148	1
37	39	1
68	82	1
155	159	1
150	151	1
47	48	1
170	173	1
112	117	1
13	24	1
141	153	1
172	172	1
80	81	1
166	168	1
15	18	1
98	102	1
31	33	1
