38	50	1
22	36	1
22	24	5
69	69	4
3	13	1
42	46	3
48	60	2
28	30	1
40	43	4
22	27	2
54	57	6
76	76	1
69	70	2
47	64	4
59	71	2
67	67	4
40	52	1
33	49	1
43	58	3
44	47	2
11	11	7
77	77	1
10	12	5
60	76	2
30	39	5
66	68	3
42	54	4
30	48	3
26	38	2
65	66	5
60	63	2
37	47	2
41	53	4
46	68	3
37	37	3
65	69	2
31	32	1
70	72	2
36	37	1
8	10	4
34	34	1
42	42	7
75	75	3
41	47	1
66	72	2
38	38	1
20	24	3
72	76	3
45	57	1
18	19	3
59	66	1
53	60	1
65	76	3
22	26	2
49	50	2
11	12	1
27	27	2
28	29	2
20	20	2
59	62	2
45	58	1
42	48	4
52	52	2
42	66	1
40	40	2
52	56	2
21	38	4
0	5	2
49	64	7
19	20	2
58	61	2
20	21	1
57	58	1
63	74	5
63	63	4
62	64	1
53	53	4
28	37	6
24	29	1
46	46	2
55	57	2
25	25	2
6	6	1
68	71	2
0	3	1
40	56	1
73	75	2
22	39	1
27	28	1
33	44	2
2	2	2
38	43	1
7	8	2
71	71	4
60	72	3
31	33	1
36	36	5
69	74	2
13	19	2
41	41	3
44	52	2
35	51	3
56	62	3
31	40	2
8	8	1
64	77	2
7	11	1
29	29	1
61	63	4
12	13	3
33	46	2
49	61	3
0	1	1
37	38	3
64	64	2
44	44	3
28	36	2
65	68	1
39	40	1
42	47	4
3	3	2
57	65	1
7	7	2
8	9	1
53	55	2
40	48	1
53	54	1
9	10	2
41	46	2
54	54	1
39	39	1
2	3	4
35	43	2
66	67	1
22	31	2
0	13	3
60	75	2
72	72	1
74	76	1
70	74	1
42	44	2
71	73	4
1	1	1
46	55	1
52	69	1
23	23	1
69	71	1
21	22	1
25	37	1
3	5	1
50	50	3
0	6	2
30	31	1
2	10	2
28	45	1
48	49	1
22	22	1
31	38	1
32	35	2
66	77	1
42	56	4
39	42	1
74	75	1
1	3	2
60	65	1
12	12	2
11	14	2
56	64	1
46	47	2
4	5	3
51	64	1
21	23	1
35	44	1
47	48	1
65	65	2
35	36	1
43	48	1
5	7	1
68	75	1
41	42	1
55	55	1
1	7	2
3	4	1
19	19	1
21	34	1
57	62	1
49	49	1
72	73	2
32	33	1
21	28	1
51	55	1
5	5	1
23	24	1
45	45	1
6	7	1
48	75	1
55	60	1
22	37	1
70	70	1
59	61	1
26	39	1
26	27	1
58	60	1
70	76	1
