34	35	2
205	207	3
3	5	4
206	206	2
102	102	4
248	248	4
1	1	1
204	204	5
35	99	1
233	233	3
99	99	4
161	161	3
163	180	2
236	236	3
75	78	6
216	217	1
9	9	3
220	232	2
163	163	5
52	52	6
69	69	2
79	103	3
18	20	1
31	31	9
46	46	2
97	97	6
84	84	3
205	205	7
96	97	1
15	15	2
32	84	1
165	175	3
238	238	6
211	211	2
88	89	2
117	117	2
155	155	2
23	51	2
181	181	4
240	240	5
2	19	3
212	212	3
198	198	5
196	196	6
94	94	1
201	201	2
150	151	3
158	158	11
33	82	2
169	169	5
80	80	8
74	74	1
215	215	1
23	100	1
115	115	7
226	226	3
237	239	2
191	191	5
27	27	1
219	233	1
163	164	2
213	214	3
187	188	1
242	244	2
97	107	5
214	215	3
175	177	2
192	193	4
203	203	4
167	179	1
221	221	6
35	36	1
68	111	4
35	109	1
199	232	3
60	77	3
248	249	1
40	40	1
17	17	1
188	189	2
172	185	2
159	159	2
58	58	9
189	189	7
63	110	3
37	37	1
68	70	2
91	229	2
68	68	5
35	35	4
30	32	1
183	183	4
65	110	2
12	12	8
216	218	1
63	63	1
71	71	4
242	242	1
169	170	3
76	77	1
93	93	1
164	164	2
157	159	6
33	33	4
152	152	2
70	70	5
208	208	7
57	74	2
58	72	1
197	208	1
205	206	1
6	52	3
200	200	5
76	76	4
235	235	5
209	248	2
207	207	5
72	72	3
4	62	1
213	213	12
34	34	1
97	104	3
54	54	2
36	36	5
191	192	7
100	113	2
68	109	3
89	89	1
116	117	1
82	82	2
6	7	1
25	32	2
115	116	2
37	107	2
101	104	3
175	191	3
195	195	2
99	100	2
48	60	1
229	229	2
77	78	2
194	197	1
146	146	1
241	241	6
217	217	3
73	73	4
204	205	1
179	227	2
95	95	2
194	195	1
222	246	2
171	178	1
49	49	1
64	66	1
166	166	5
3	4	1
105	106	2
20	20	3
92	92	1
222	222	2
192	192	2
177	177	2
23	33	1
204	208	1
171	171	7
187	239	2
233	234	1
165	165	2
240	242	2
99	104	5
175	175	2
118	118	1
236	237	8
199	199	5
4	18	1
70	71	2
65	65	5
67	67	1
22	22	1
33	111	1
119	119	2
179	181	2
47	47	2
186	186	2
113	113	4
232	232	1
28	90	3
185	186	2
167	168	3
190	191	1
45	45	6
53	54	2
218	218	6
217	219	5
104	106	2
206	207	1
168	170	3
11	11	2
79	79	1
25	205	2
65	109	1
66	66	4
58	71	1
170	171	2
220	220	2
225	229	1
114	114	2
218	219	3
244	244	1
63	64	1
32	55	2
53	53	1
121	121	1
234	234	2
6	6	1
154	154	1
98	113	2
91	91	2
12	47	2
11	47	1
178	179	4
204	231	1
161	162	4
33	36	1
39	39	2
172	172	4
150	150	1
177	179	1
173	175	1
96	96	1
174	174	2
9	10	3
185	185	2
205	223	2
84	85	1
177	182	1
239	239	1
153	211	1
203	249	1
221	231	1
7	17	2
8	26	3
196	209	1
246	246	3
120	120	1
10	10	1
235	238	2
209	221	3
197	198	1
49	66	1
8	8	2
152	217	2
195	248	2
203	208	1
74	77	1
101	102	1
40	118	1
159	161	1
190	209	2
73	212	1
197	232	1
2	20	1
116	116	1
64	210	1
153	153	2
173	186	1
237	237	1
30	30	1
238	243	2
34	118	1
187	187	2
165	166	1
11	77	2
47	52	1
216	232	2
26	88	1
109	109	2
168	169	1
215	217	2
72	73	2
232	233	1
76	78	1
230	230	1
5	17	1
209	209	3
56	57	1
110	110	1
48	48	1
159	164	1
223	225	1
36	98	1
216	219	1
64	67	2
174	241	2
66	195	1
24	63	1
38	39	1
5	30	1
100	101	1
81	111	1
193	193	1
86	86	1
25	25	1
174	189	1
35	106	1
4	4	1
105	105	1
75	110	1
88	88	1
28	28	1
87	87	1
42	43	1
