79	83	4
70	70	10
49	49	22
47	47	3
73	73	10
71	97	4
20	21	2
28	79	1
32	32	7
30	30	16
100	100	15
72	99	2
85	86	14
44	44	2
36	36	6
33	69	1
38	38	8
97	97	14
92	92	8
52	59	1
72	72	4
105	105	15
65	77	6
85	85	4
34	34	8
20	28	4
24	69	1
58	58	5
43	43	16
49	89	2
83	83	10
95	96	7
42	43	2
21	21	5
82	84	5
50	52	5
52	52	6
67	69	2
97	99	2
78	86	3
103	103	7
96	96	3
73	103	1
50	50	10
104	104	14
91	91	5
87	88	1
26	27	6
51	89	2
90	90	3
68	92	3
99	101	6
31	31	8
52	60	2
55	55	6
45	52	3
95	95	14
65	65	6
62	62	7
76	76	20
42	42	9
63	63	14
56	58	4
66	66	8
86	87	5
39	40	4
26	26	9
98	98	3
35	35	13
69	69	6
53	53	18
104	105	2
56	83	6
86	86	6
54	58	4
54	54	10
27	78	1
93	96	1
71	71	6
68	68	8
22	24	1
44	45	4
20	47	9
61	62	2
23	24	3
79	79	3
41	42	2
84	84	5
102	103	4
96	98	3
24	26	4
77	78	2
96	97	2
67	70	2
37	37	8
57	57	3
75	75	4
22	22	2
101	101	2
55	58	7
25	25	9
97	98	3
103	104	6
45	47	1
84	85	6
99	99	10
27	29	1
60	60	5
83	86	1
66	67	6
98	101	1
89	89	5
64	64	7
57	103	1
83	84	2
79	80	5
51	52	3
74	74	10
83	88	3
22	29	1
37	73	1
50	51	4
21	22	2
29	29	4
99	100	3
70	71	2
20	20	5
40	40	6
99	104	2
102	106	4
107	107	2
101	102	2
81	81	17
19	33	1
59	86	2
48	49	4
26	63	4
82	82	18
46	46	2
47	48	2
36	50	1
102	104	2
66	70	1
27	27	5
34	35	1
38	72	1
22	38	2
81	82	2
21	101	2
39	41	4
63	67	2
77	77	5
35	36	1
20	31	5
26	70	1
51	51	16
41	41	5
50	64	1
82	83	3
37	43	3
61	61	3
82	85	2
94	94	11
28	29	5
52	72	2
29	92	2
62	63	2
53	55	2
80	80	2
24	24	4
39	78	5
22	78	1
71	72	3
59	59	5
62	72	1
64	68	2
98	104	3
59	60	1
23	69	2
39	39	9
51	78	2
96	100	9
22	76	2
72	73	1
31	58	2
78	88	1
102	102	3
31	32	4
92	93	3
25	26	4
23	23	2
78	90	2
79	81	1
49	50	3
33	34	1
50	78	1
80	81	2
36	51	1
66	72	2
88	89	3
33	33	1
87	87	5
22	25	2
31	78	2
48	48	1
38	46	1
36	65	3
67	68	1
36	103	1
29	30	2
83	85	2
40	42	2
78	78	6
22	72	1
56	56	2
54	55	1
68	72	2
45	45	1
90	92	1
60	63	1
28	28	4
30	32	1
30	59	1
69	77	2
21	92	1
82	88	3
24	25	2
21	103	2
26	99	2
82	86	1
69	78	2
32	33	3
54	57	2
67	67	2
76	77	1
52	61	1
22	65	1
40	41	2
93	102	1
47	87	1
71	98	1
20	22	1
30	33	1
22	69	1
20	29	1
60	77	1
31	91	1
38	39	1
24	71	1
21	76	1
39	42	1
93	93	1
76	78	2
85	87	1
30	78	1
