6	175	2
81	81	7
155	155	12
236	236	12
25	25	14
215	215	12
197	198	1
10	10	3
108	109	1
48	48	4
68	68	11
26	26	13
210	210	12
165	165	10
85	85	10
233	233	12
216	216	12
162	162	19
109	109	9
5	5	3
160	160	8
234	234	4
150	150	17
42	43	4
99	230	6
152	152	12
10	11	4
49	50	3
102	180	6
244	244	10
115	116	3
58	58	11
163	163	14
153	165	2
181	181	7
4	5	3
114	114	10
144	148	1
25	179	4
156	156	9
110	110	7
3	3	1
192	193	4
88	89	2
220	220	9
22	22	3
87	87	2
180	181	10
4	156	1
35	52	4
64	85	2
186	186	5
42	42	5
201	224	3
4	4	6
95	98	5
151	151	8
248	248	6
18	18	8
94	94	16
212	212	7
229	229	17
192	192	10
32	33	5
0	33	4
5	94	1
97	98	9
183	184	1
19	20	1
214	214	9
207	214	3
171	171	12
91	92	4
146	150	5
218	218	14
207	207	2
96	96	2
61	61	9
84	84	6
52	110	1
8	8	17
145	154	3
74	75	11
1	2	5
178	180	2
225	227	3
207	210	4
187	187	5
91	91	5
31	31	12
21	21	16
43	43	4
190	190	5
86	88	10
159	160	3
209	209	6
34	51	5
64	65	3
19	19	9
37	37	6
111	111	6
53	101	4
41	204	5
177	177	4
93	93	11
90	90	8
101	110	4
55	55	9
109	111	1
169	169	2
8	30	2
194	196	2
202	203	4
25	26	8
12	109	4
216	218	4
226	226	4
168	169	3
222	223	5
11	11	8
243	243	11
87	88	8
202	202	13
92	171	3
28	28	9
77	77	14
38	38	2
152	164	2
175	176	1
26	27	2
69	69	15
23	23	7
105	105	5
92	92	3
76	76	2
195	195	5
159	159	10
144	144	2
200	200	7
209	210	7
47	47	6
29	29	6
229	230	3
191	192	2
237	240	3
10	35	7
212	213	4
61	103	2
169	170	2
225	226	4
158	159	2
234	235	2
92	144	3
99	99	2
47	48	2
240	240	10
151	220	2
20	20	9
27	27	10
39	39	8
226	247	3
53	53	5
157	157	4
23	202	4
107	107	3
180	230	5
230	230	9
230	231	2
184	184	5
147	147	6
171	172	10
102	102	8
30	97	5
195	196	5
182	227	2
36	36	4
154	154	9
223	223	7
56	56	10
51	51	1
235	236	5
204	205	7
55	56	1
224	224	4
219	219	5
34	34	8
242	242	3
2	3	5
173	173	1
235	235	1
82	82	5
78	78	4
52	52	6
100	101	5
232	232	2
117	117	2
187	191	4
82	83	3
86	86	6
16	16	5
217	218	2
239	239	2
54	78	1
205	205	6
17	17	11
188	188	7
71	72	3
95	95	4
67	78	3
179	179	6
17	26	1
30	30	6
12	12	12
198	198	7
217	217	4
225	246	2
158	158	6
225	225	3
96	97	2
17	28	1
167	168	4
18	19	1
103	103	5
89	112	3
88	88	7
235	238	2
46	46	4
70	70	2
54	54	12
4	174	3
247	248	2
67	68	8
189	190	2
101	109	2
116	116	9
153	153	4
168	168	7
198	199	2
156	175	5
89	89	6
105	107	1
216	241	1
180	180	5
104	105	2
7	7	7
183	213	3
78	101	5
163	164	6
201	201	9
64	64	2
41	41	3
83	83	6
237	237	3
172	172	9
197	197	7
62	63	2
240	241	1
185	248	3
153	157	6
93	94	2
37	38	1
67	67	12
210	211	2
24	24	3
179	180	1
198	219	2
65	65	3
75	75	1
44	44	7
161	161	1
178	178	4
34	95	1
189	189	3
23	234	2
72	73	2
158	175	2
61	63	2
100	100	8
15	15	12
219	235	2
95	230	3
207	209	3
35	35	4
21	22	2
48	94	2
180	231	2
90	91	2
101	101	5
163	165	3
20	41	3
160	161	2
183	183	2
167	167	8
3	4	1
221	233	1
113	113	6
204	204	1
226	228	5
223	224	4
232	233	3
184	185	4
44	45	4
79	79	2
223	245	3
154	155	2
112	112	6
154	234	6
60	60	1
227	227	7
9	16	2
104	106	2
118	119	3
199	218	1
81	82	2
29	97	2
221	234	4
20	21	1
106	106	3
59	59	3
239	240	2
49	49	3
170	170	1
7	232	4
17	18	2
222	222	5
33	33	6
246	246	4
90	111	1
50	50	2
238	238	3
70	71	2
118	118	1
211	211	5
220	222	1
74	74	3
63	63	5
89	90	3
23	154	1
95	231	1
76	108	2
10	97	1
56	64	1
191	191	3
245	245	4
95	97	2
71	71	2
35	50	2
23	245	1
161	162	3
56	84	1
175	175	4
115	115	6
45	45	1
31	101	1
215	246	3
94	229	1
152	153	1
119	120	2
195	217	2
187	189	2
77	102	2
73	73	2
212	247	2
86	118	2
65	82	1
185	185	3
208	209	1
5	178	2
243	244	2
103	104	1
226	227	2
114	115	5
66	66	3
101	103	3
98	230	2
9	9	2
6	6	2
203	203	5
40	40	2
228	228	1
4	93	1
92	174	1
8	99	1
213	213	2
58	59	2
201	202	3
35	97	2
201	245	1
164	164	1
182	182	5
172	174	4
28	29	2
32	32	4
199	199	1
40	41	1
181	182	1
205	206	1
85	86	1
6	7	2
24	26	1
29	30	1
192	196	1
208	208	2
236	242	1
145	145	2
149	151	1
1	1	2
30	96	1
166	166	3
53	111	1
144	145	1
227	228	1
158	221	1
113	114	1
41	42	1
80	81	1
29	96	1
65	83	1
88	145	2
79	81	2
101	102	1
181	225	1
2	6	2
54	82	1
185	192	1
160	165	2
222	224	1
154	159	1
200	218	1
216	242	1
69	70	5
102	104	1
193	193	2
9	10	1
14	74	1
51	99	3
154	157	1
66	84	1
46	47	1
206	206	1
188	189	3
54	55	1
6	155	1
104	104	2
157	158	1
57	58	1
69	71	1
40	244	1
60	63	1
24	157	2
231	231	3
120	120	1
145	147	1
48	95	2
24	25	1
214	244	1
218	219	1
228	229	1
57	57	1
97	99	1
193	194	1
97	97	2
59	60	1
201	218	1
162	165	1
105	108	1
101	107	1
212	226	1
73	74	1
