125	125	8
2	88	2
91	127	3
121	121	8
0	91	1
0	0	4
33	33	5
4	4	2
136	137	5
100	100	4
46	47	3
124	124	6
186	189	1
35	35	3
45	45	3
37	37	3
168	172	5
90	94	3
44	44	3
49	80	1
77	77	3
56	56	6
104	105	4
85	86	3
159	159	4
64	66	4
150	150	2
176	176	5
170	170	7
154	154	5
68	120	2
18	18	5
168	168	3
56	68	4
88	88	5
139	139	3
173	173	5
118	118	4
169	183	4
53	54	2
29	29	5
26	26	5
45	46	6
92	93	3
24	24	8
110	110	3
74	74	2
98	98	2
89	153	1
105	170	3
142	143	4
13	15	2
130	131	1
116	116	1
30	31	5
5	6	4
27	31	4
46	86	2
4	6	2
166	166	3
164	164	5
2	3	4
22	22	7
2	89	3
7	7	6
47	47	1
166	190	1
131	143	4
10	54	1
3	3	2
186	186	4
61	64	1
69	70	2
163	164	2
92	92	2
96	96	10
25	26	3
38	38	2
163	190	2
164	165	3
72	72	1
14	14	4
99	99	3
103	103	3
188	188	2
90	91	1
178	178	2
161	162	1
152	152	3
65	65	1
39	39	3
91	91	3
100	101	2
17	76	2
177	180	2
109	109	1
189	189	2
23	23	4
57	57	8
18	43	2
127	127	4
0	1	7
66	100	2
7	57	2
95	116	1
65	101	2
84	85	2
67	99	3
77	152	1
70	142	1
140	140	5
16	16	2
114	114	1
149	149	3
8	15	2
176	180	3
65	68	3
87	87	1
97	97	3
161	161	4
62	62	1
19	19	1
67	67	2
30	30	1
102	112	3
138	139	1
143	145	2
145	146	1
16	81	3
56	118	1
184	185	2
11	32	1
25	25	2
176	177	2
30	42	1
40	40	1
148	148	2
179	179	5
11	12	2
135	136	1
83	83	3
105	112	3
1	124	1
146	146	1
141	141	3
58	60	2
59	154	1
2	2	2
129	158	3
17	17	2
108	108	1
19	81	4
17	40	3
190	190	1
64	64	1
72	73	1
82	82	1
31	31	4
36	36	3
56	117	1
175	177	3
3	4	1
160	161	2
175	176	1
48	48	2
138	140	1
5	5	1
103	106	4
113	119	1
36	37	2
54	55	3
27	27	1
105	105	2
27	28	1
148	154	1
93	93	1
142	144	1
136	136	3
95	95	1
58	149	1
94	95	1
5	57	1
103	113	1
76	76	1
158	158	1
149	150	1
183	183	1
85	85	1
55	55	1
104	106	1
13	14	1
148	153	1
45	144	1
20	83	1
159	166	1
86	86	2
181	181	3
57	113	1
102	102	1
124	125	1
28	30	1
74	152	1
58	58	1
54	54	1
