81	81	17
6	49	2
33	39	3
40	40	9
88	118	3
75	75	15
34	35	7
53	85	4
49	126	1
144	144	13
125	126	4
59	59	8
100	100	9
79	127	4
27	47	7
141	141	18
95	142	3
122	123	4
21	21	8
117	118	2
80	82	3
33	67	1
96	97	2
115	115	6
8	8	6
25	26	5
62	62	7
138	138	11
51	51	8
79	79	14
104	136	3
64	65	2
12	17	2
11	11	8
33	33	13
26	59	1
101	101	11
71	72	3
24	24	12
79	109	1
60	60	2
142	143	2
112	114	1
102	102	12
80	129	6
53	106	3
29	29	5
127	127	11
28	30	2
129	130	9
49	49	4
2	143	1
23	23	3
125	127	9
120	120	12
3	47	1
128	129	1
136	136	5
92	116	10
86	86	10
9	13	1
125	125	9
29	30	4
118	118	7
12	12	2
131	133	5
23	102	3
83	85	2
48	123	2
53	53	16
27	48	3
146	146	10
2	3	2
99	100	2
91	91	11
10	10	3
8	95	1
51	108	1
124	124	8
4	12	4
54	135	2
104	104	3
46	65	4
55	96	4
49	140	4
114	114	15
85	130	2
70	70	6
30	57	3
92	118	2
53	61	1
105	106	1
13	13	6
23	97	4
77	109	3
55	55	5
85	85	5
9	105	4
75	78	3
80	113	1
23	28	2
113	113	5
82	109	2
137	138	5
71	71	2
107	117	1
57	57	8
88	88	5
89	91	2
72	72	3
30	30	7
77	77	3
58	59	7
114	120	2
56	57	3
87	87	3
82	82	3
99	111	8
28	28	5
36	37	3
39	41	2
4	47	1
50	50	6
119	133	1
86	130	1
142	142	11
56	56	13
83	83	3
36	36	4
67	67	11
29	32	1
108	108	4
78	119	2
139	140	3
63	65	3
49	50	5
73	73	4
57	60	1
35	35	5
129	129	3
60	85	6
6	142	1
38	38	5
56	74	2
27	27	3
94	94	8
78	79	2
107	114	7
5	6	4
58	58	5
135	136	5
48	48	7
31	47	4
89	90	2
131	131	10
87	89	3
16	16	7
39	40	1
28	29	2
120	121	4
126	126	8
17	21	4
31	32	1
111	123	2
123	123	6
32	32	8
123	124	2
137	137	3
71	125	2
37	37	2
94	136	4
6	6	6
22	33	2
116	116	10
95	95	8
72	76	1
32	123	2
64	66	1
115	120	1
130	131	4
22	30	2
55	56	2
100	146	1
68	68	2
130	130	4
127	129	8
112	125	1
78	120	5
98	112	5
98	98	2
76	77	4
16	17	2
68	69	3
100	101	2
54	54	5
61	61	1
15	15	5
74	74	8
2	2	1
64	93	4
84	85	1
122	122	5
30	67	2
136	140	4
118	133	3
73	118	1
145	145	8
99	99	7
140	140	7
80	80	3
88	91	2
70	71	4
26	27	1
92	92	6
112	121	2
22	22	6
51	52	3
2	37	2
84	84	5
105	105	3
34	34	8
41	54	1
53	135	1
9	10	2
81	82	3
134	134	6
2	33	1
97	98	2
118	119	5
128	131	3
9	9	3
69	117	2
18	18	6
50	93	1
65	65	3
63	63	3
47	47	2
1	1	2
0	1	3
26	36	1
41	41	8
76	76	2
82	83	4
80	119	1
14	14	4
129	140	1
73	88	2
38	113	4
71	122	1
78	78	1
72	121	2
97	97	6
66	66	2
70	76	4
3	3	5
54	118	2
141	142	3
68	98	1
31	66	1
42	42	3
109	109	3
80	81	2
133	133	2
27	28	3
74	75	1
53	60	1
117	117	5
37	67	1
126	127	1
4	26	4
35	36	7
52	52	4
24	25	1
134	135	6
88	90	1
107	107	2
3	36	1
93	141	2
13	14	1
124	125	3
69	75	1
106	106	2
22	23	2
14	15	2
37	38	1
108	109	1
2	28	1
120	133	3
75	92	2
110	111	1
87	104	2
74	117	3
19	20	3
17	17	3
4	34	2
20	20	2
121	121	2
87	88	2
28	56	1
103	103	2
86	128	3
72	73	1
19	19	1
48	64	3
73	74	2
87	109	3
20	21	1
48	124	2
51	64	1
102	103	2
30	54	3
23	25	1
49	141	1
69	69	1
81	108	2
144	145	1
81	121	1
18	21	3
56	83	1
0	43	3
10	106	1
25	25	2
28	59	1
82	107	2
57	97	3
77	78	1
27	96	2
69	70	3
58	60	1
54	56	1
29	67	1
5	5	3
137	140	2
5	33	3
90	130	1
79	81	1
11	41	1
90	90	1
87	90	1
73	117	1
121	122	1
109	110	1
103	138	2
89	94	1
89	92	1
55	59	1
3	4	2
28	97	1
143	143	1
52	53	1
39	39	2
55	143	1
43	49	1
55	57	2
14	23	2
64	91	2
92	106	1
10	65	2
39	120	1
26	26	2
110	110	1
18	54	2
1	13	1
26	28	1
116	117	1
85	104	2
3	21	1
95	103	2
41	66	1
73	123	1
76	79	1
0	34	2
15	23	1
56	59	1
113	121	1
96	103	1
31	67	1
27	59	1
50	51	1
128	130	1
97	103	1
