40	41	12
1	2	5
19	20	6
30	30	37
36	37	6
39	39	6
38	38	23
70	70	16
58	58	25
74	74	10
50	51	15
37	37	22
9	9	13
23	23	28
22	22	23
52	52	18
63	63	21
6	6	19
32	32	23
31	52	3
57	65	2
11	11	22
30	73	2
36	54	1
33	67	4
65	65	21
12	12	14
0	0	21
53	55	3
45	45	17
47	47	32
77	77	22
29	29	18
40	40	27
2	27	1
7	7	31
47	52	2
36	44	3
19	19	28
29	30	12
54	54	14
48	48	13
73	73	33
33	33	10
3	3	13
27	27	22
12	13	9
43	43	18
59	61	1
58	61	3
20	20	14
18	18	6
21	21	14
23	34	2
50	50	21
60	60	22
41	41	12
2	2	8
42	42	25
65	67	2
38	39	7
13	13	19
57	57	21
75	75	19
24	25	15
64	69	4
55	55	20
59	60	6
35	36	2
61	62	8
3	5	2
35	45	3
53	53	21
61	61	23
68	68	22
26	26	21
49	49	28
69	70	5
63	71	3
71	74	6
59	62	6
10	10	21
3	4	8
53	54	6
51	51	29
62	62	11
22	23	21
34	35	6
58	59	6
10	11	12
64	64	12
8	11	1
46	46	14
74	76	2
55	76	1
42	51	2
7	11	3
28	28	15
36	36	13
66	66	27
52	54	6
68	69	10
57	75	5
76	76	19
41	42	6
59	59	18
65	66	11
27	30	3
67	67	11
62	72	1
37	39	4
56	77	7
45	46	11
25	25	23
69	69	21
23	24	3
4	5	10
75	76	4
8	8	16
30	64	3
48	49	11
9	10	3
21	22	12
35	35	13
5	5	13
67	68	7
71	72	5
2	3	7
36	39	3
72	72	9
57	76	4
72	73	7
69	72	2
37	38	4
62	63	5
31	32	5
11	12	5
63	73	7
27	44	2
4	4	7
18	67	2
18	56	5
34	37	5
21	43	8
56	56	20
71	71	15
49	67	3
51	53	2
1	1	26
27	38	3
35	37	3
23	28	2
14	14	7
19	76	1
26	41	11
20	67	1
31	31	18
29	36	6
36	43	5
58	62	2
27	28	6
21	23	5
19	77	6
7	8	4
34	54	4
28	30	2
47	51	1
44	44	7
24	24	25
34	44	1
35	43	8
6	8	6
8	9	6
56	59	4
23	40	3
33	54	3
61	63	2
25	43	2
14	67	2
55	56	4
54	55	4
38	40	2
19	48	3
5	6	5
9	54	2
73	75	4
32	69	3
20	42	1
25	49	2
29	37	2
31	33	4
73	74	8
30	33	3
68	74	1
48	54	2
11	13	4
75	77	1
1	6	2
72	74	3
64	72	1
24	41	2
34	34	5
46	47	7
39	40	6
0	8	1
68	70	3
57	58	5
0	1	8
70	71	3
64	73	2
36	38	1
43	44	6
66	67	3
0	77	2
39	41	5
11	53	1
22	24	3
26	27	1
66	74	2
65	71	3
33	44	3
28	29	3
57	77	1
57	74	1
70	72	2
18	19	4
60	61	4
33	34	2
43	45	3
57	73	1
35	44	1
23	67	1
19	56	1
30	37	4
25	40	1
6	9	3
63	64	1
76	77	2
31	34	4
71	73	3
47	48	4
31	64	4
12	14	2
34	53	2
25	38	2
29	65	1
15	19	3
24	44	2
6	7	8
11	54	1
43	48	1
13	54	3
62	71	1
51	52	1
57	59	1
22	46	1
58	72	1
12	52	1
20	21	2
0	2	3
3	9	1
0	75	1
25	41	2
54	56	1
2	6	1
57	66	1
14	74	1
7	9	2
58	65	1
64	66	1
52	53	1
55	77	1
31	70	2
42	43	1
60	62	2
32	33	1
58	76	1
45	47	1
25	37	2
56	57	1
26	38	1
5	7	1
32	54	1
