71	71	24
37	37	3
69	110	4
54	60	1
49	113	8
82	84	4
79	79	7
109	110	1
19	89	6
24	71	2
89	89	2
62	62	5
42	42	3
33	72	5
74	74	7
87	87	9
32	33	9
24	24	11
29	111	3
35	35	8
38	38	5
108	109	3
21	22	3
73	99	7
52	113	2
95	95	5
93	93	5
98	98	7
41	41	5
51	52	1
76	76	3
86	86	2
71	73	4
67	69	3
68	113	2
27	27	7
88	91	3
46	47	1
92	96	1
34	34	9
22	75	3
100	100	14
69	70	3
20	20	7
76	78	1
88	88	4
20	22	2
31	41	5
59	59	8
45	45	6
95	96	3
49	50	3
43	44	4
21	21	8
52	52	6
22	74	3
114	114	8
92	103	4
58	58	6
22	107	2
104	106	2
93	94	3
56	57	6
22	54	1
81	94	4
35	54	1
60	60	5
97	97	10
39	39	10
63	64	1
43	43	7
36	73	1
86	87	1
33	99	1
22	22	3
103	104	2
54	54	5
44	44	11
73	81	1
77	77	11
51	51	4
26	26	6
113	113	5
98	99	1
60	61	3
99	99	3
48	49	3
81	81	5
85	86	2
77	78	3
90	90	2
47	49	4
66	69	1
71	72	2
59	60	3
46	46	8
73	73	3
61	69	2
91	91	2
50	51	3
93	95	1
94	96	3
94	94	7
112	112	2
34	60	4
25	25	2
68	70	1
96	96	6
39	40	2
79	107	2
41	43	1
49	49	9
88	90	2
67	113	3
19	20	1
57	57	3
47	47	3
23	23	2
53	54	3
110	110	3
35	90	2
94	97	2
46	49	2
101	102	4
67	67	7
101	101	3
50	50	2
111	111	1
28	28	4
81	108	4
72	72	11
53	55	3
61	61	7
54	55	2
85	87	2
42	43	2
20	26	1
103	105	2
53	72	3
102	102	2
40	40	6
53	53	4
30	30	5
33	33	4
105	106	3
36	36	4
54	56	4
82	82	2
36	41	3
72	73	1
63	66	4
44	89	2
66	66	1
69	69	2
68	110	1
68	68	3
113	114	1
36	94	1
29	113	2
58	64	2
33	41	4
83	84	2
80	81	3
79	93	2
55	55	2
70	112	2
78	78	4
36	79	2
60	113	1
44	45	3
74	75	3
52	83	1
92	92	6
63	63	3
35	96	1
83	87	2
56	56	2
100	101	4
53	60	2
22	73	1
85	111	1
70	78	6
42	44	3
92	93	3
28	31	1
82	83	1
99	100	1
66	67	3
53	62	2
48	48	1
109	109	1
35	111	3
93	101	3
31	31	4
32	32	2
45	46	3
34	54	1
61	62	2
20	51	1
101	105	1
80	80	2
22	88	1
83	83	1
57	71	1
23	24	1
84	84	2
104	108	2
65	66	1
53	73	2
29	30	1
94	95	1
36	107	2
81	83	1
50	52	1
75	78	1
53	59	2
19	19	2
35	88	3
66	71	2
107	107	1
79	80	2
32	47	1
68	71	1
58	68	1
89	90	1
