48	48	3
112	113	3
8	8	4
112	112	2
129	165	2
126	126	4
24	24	8
62	63	4
117	167	3
79	79	5
16	16	4
169	170	1
47	47	4
137	137	12
12	13	2
94	151	3
71	71	2
69	69	12
128	164	3
137	142	2
5	130	3
39	40	2
124	124	7
107	107	7
84	84	3
53	54	6
52	53	8
121	121	6
149	149	3
40	40	6
54	54	10
13	13	5
85	85	4
90	91	2
9	9	4
106	106	3
64	69	1
113	113	3
43	44	2
41	137	2
35	37	1
162	162	6
17	18	5
36	37	5
141	142	5
67	68	1
68	68	7
62	62	8
20	47	2
72	72	7
28	100	2
123	124	4
73	73	2
4	114	4
4	26	1
6	45	2
3	3	10
93	94	10
46	50	4
38	38	6
98	99	4
153	160	2
163	165	2
77	77	5
118	119	3
65	65	5
55	55	5
103	103	6
158	158	3
97	97	2
23	146	4
18	43	3
110	157	3
137	141	2
4	41	1
127	127	8
0	1	2
138	138	4
133	133	4
86	86	6
143	143	6
88	88	4
17	17	13
47	55	3
98	104	2
5	78	2
92	92	8
139	139	5
140	142	2
105	106	2
90	90	7
119	120	2
11	11	5
10	10	8
111	111	3
95	95	3
44	45	1
151	152	9
145	145	7
12	12	6
116	116	4
133	144	1
163	163	2
154	154	7
169	169	11
108	108	8
74	74	7
159	159	2
7	10	3
108	109	3
18	20	2
33	43	4
94	95	6
79	144	1
56	56	7
156	156	5
7	7	4
129	129	7
80	91	4
118	118	6
157	157	3
89	89	1
52	52	2
125	125	4
98	98	4
11	12	3
72	74	5
100	100	6
18	19	8
82	117	2
39	39	3
165	165	4
170	170	3
25	25	2
112	164	2
117	117	4
42	43	4
57	118	2
26	53	1
14	15	2
2	2	6
98	105	2
3	42	1
136	137	2
3	79	5
46	77	5
134	135	2
83	83	5
132	132	6
82	83	1
37	141	1
50	54	1
91	99	3
161	165	5
4	4	5
70	70	3
20	20	2
41	42	4
162	163	10
113	115	5
44	44	10
128	129	3
120	120	3
87	103	6
102	166	1
82	120	2
46	79	1
92	145	2
91	91	6
27	107	2
103	165	4
0	78	1
139	169	3
114	157	2
93	93	1
26	48	3
137	138	5
21	21	5
146	147	2
161	161	4
75	75	2
35	35	16
101	101	3
37	37	8
115	115	7
155	155	4
50	50	5
168	168	1
56	138	3
9	133	5
145	153	1
76	76	3
27	101	1
14	14	4
6	21	2
22	22	4
53	55	2
80	155	2
110	110	4
143	144	8
122	133	2
117	119	4
130	131	2
166	166	2
24	151	1
99	99	4
81	81	3
4	46	1
148	148	5
23	71	1
35	36	3
100	101	2
13	58	1
84	87	1
36	149	1
81	142	4
51	51	4
73	79	1
164	164	2
7	20	1
36	36	6
104	105	5
110	111	1
75	76	4
111	112	6
25	28	5
8	40	1
27	27	4
127	160	1
9	163	1
141	141	4
33	34	1
138	139	3
104	104	6
1	1	1
15	15	1
155	168	2
6	6	13
150	150	2
33	33	1
7	56	2
165	166	2
161	162	2
131	131	1
6	77	2
18	83	2
18	18	4
74	85	1
98	103	1
57	57	3
143	146	1
160	161	2
92	96	1
113	119	4
109	110	3
17	47	1
93	119	2
146	146	5
167	168	2
123	123	1
103	105	3
63	63	2
42	42	1
76	91	2
82	147	1
114	114	8
49	49	4
68	70	1
28	28	6
98	101	3
17	71	2
71	73	1
87	87	2
94	124	2
123	169	4
8	11	1
72	73	2
25	94	4
153	153	1
57	73	1
107	111	2
96	96	1
4	45	4
5	5	5
88	89	2
21	22	4
25	152	1
144	144	1
43	43	1
22	28	1
140	140	4
26	26	2
50	51	2
46	46	2
88	105	1
78	79	1
167	167	2
20	23	1
51	110	1
19	146	1
45	45	2
19	143	2
47	48	1
46	47	3
58	58	4
39	53	1
130	130	3
53	53	5
120	122	2
45	46	1
106	107	3
50	77	2
73	75	1
87	88	1
119	126	2
72	76	1
100	131	3
6	11	1
114	128	2
105	105	4
67	67	1
105	107	3
41	46	1
42	44	1
73	74	1
15	16	1
34	34	4
65	66	1
55	56	2
35	70	2
78	78	7
82	82	3
151	151	4
101	115	2
5	41	1
70	72	2
52	110	2
8	133	1
0	74	1
34	35	2
125	169	1
17	24	1
160	160	1
41	41	2
102	165	2
115	160	1
140	170	2
125	168	1
37	38	1
8	63	1
90	107	2
46	51	1
109	109	1
66	67	3
114	115	1
158	159	1
71	74	2
139	159	1
85	141	1
168	169	1
99	101	1
163	164	2
5	18	2
77	78	3
49	52	1
121	124	1
70	74	1
114	159	2
100	114	2
132	159	2
155	170	1
157	158	3
122	122	1
139	140	1
20	145	1
152	152	2
56	64	1
23	23	1
11	132	1
0	147	1
11	56	2
158	160	1
8	125	1
136	136	2
146	154	1
23	145	1
102	127	1
156	157	1
41	47	1
57	63	2
80	167	1
99	153	3
127	128	1
72	80	1
145	151	1
134	134	1
103	104	1
80	81	1
64	64	1
34	41	1
93	114	1
34	66	1
122	123	1
96	131	1
74	75	1
