123	123	9
16	38	1
76	76	15
70	71	4
118	118	2
125	125	10
92	92	13
6	6	3
117	117	12
124	125	4
43	43	11
63	63	18
19	19	13
1	69	2
109	114	2
68	73	5
5	6	4
86	87	7
110	111	1
32	32	6
129	129	5
105	106	5
114	114	10
79	80	9
48	48	6
0	0	16
65	65	10
59	60	2
74	77	1
43	44	1
14	15	2
133	133	3
79	79	9
113	113	9
67	67	8
89	89	8
62	62	11
118	123	1
120	120	1
12	13	7
16	16	6
74	75	6
121	122	8
83	83	6
112	112	4
23	24	5
126	131	1
12	35	4
116	116	3
43	78	4
73	74	10
10	10	6
7	7	5
45	45	5
15	34	2
60	89	2
62	63	6
64	64	12
20	88	1
75	75	10
17	17	5
18	18	8
8	8	13
77	77	13
73	73	7
11	14	7
15	16	5
68	68	6
45	58	3
60	60	2
8	10	2
47	47	11
28	33	7
6	104	7
26	31	1
134	134	8
82	83	7
78	93	2
22	22	5
26	29	1
10	11	4
66	66	14
95	95	6
38	38	4
7	56	1
94	100	2
81	87	3
94	95	2
102	102	7
74	74	10
13	14	4
16	37	4
116	125	2
38	39	7
104	105	3
57	58	4
4	107	2
59	59	7
33	33	4
108	108	3
91	109	2
51	56	1
97	97	4
87	87	7
13	13	9
100	100	9
84	84	3
29	29	1
36	36	2
36	37	3
29	32	1
104	104	4
17	48	2
23	23	3
14	61	1
101	102	3
84	86	3
91	91	5
110	110	2
101	101	3
72	72	15
14	19	1
85	85	16
34	34	6
9	9	6
26	27	1
127	127	13
99	101	8
124	124	9
11	89	2
87	132	4
12	12	16
71	73	2
27	28	4
24	133	2
103	103	9
99	109	4
13	46	1
5	5	6
32	39	1
21	21	3
30	30	3
29	35	2
94	97	1
22	25	1
15	15	1
122	123	1
132	133	3
110	112	5
32	33	3
14	35	2
111	112	5
36	38	2
77	78	3
111	111	14
127	128	2
78	78	6
20	20	4
86	86	9
83	84	2
120	121	3
121	125	1
35	36	5
46	46	14
1	1	10
122	122	6
20	28	1
116	117	3
25	115	3
30	31	3
103	106	2
119	119	8
42	42	4
90	92	3
8	9	1
40	40	1
113	120	3
8	89	2
7	8	2
35	35	8
67	74	1
12	111	2
19	97	1
45	56	1
28	28	2
128	129	5
18	61	2
90	111	1
95	98	1
14	14	3
61	61	4
117	125	1
72	73	2
35	95	1
109	109	5
125	126	3
27	29	6
55	56	1
45	47	2
50	50	2
81	88	1
121	123	1
11	12	1
18	19	2
78	79	1
119	123	4
6	14	1
113	121	3
13	35	3
17	62	1
37	37	3
26	26	6
121	121	5
25	25	1
129	130	2
82	82	2
27	33	1
11	15	1
131	131	1
11	13	2
103	104	1
50	58	2
92	110	1
32	113	2
37	38	4
106	107	1
123	125	3
39	39	2
31	113	1
126	126	6
1	90	3
106	106	2
89	90	2
14	49	3
71	71	3
21	83	1
47	48	2
44	61	2
33	38	1
75	76	6
70	70	1
10	82	2
4	108	1
76	80	2
82	114	1
99	99	5
12	14	2
68	70	2
83	93	2
101	104	2
4	4	2
27	125	1
3	4	1
93	93	2
78	90	5
56	56	3
4	92	3
107	107	1
3	3	4
11	11	3
10	93	3
69	69	1
81	134	1
67	68	3
5	106	1
95	96	4
93	99	3
4	48	1
94	94	2
100	107	1
116	118	1
74	110	2
76	81	1
4	106	1
93	101	1
114	115	1
45	46	1
96	96	1
92	100	1
26	88	1
88	125	1
62	75	2
20	83	2
61	63	1
27	31	2
97	99	2
132	132	3
20	112	1
25	35	2
45	79	1
82	124	1
31	32	4
65	66	3
56	58	1
73	75	3
28	112	1
2	2	3
7	57	1
97	98	1
9	10	1
19	57	1
127	130	1
83	88	1
112	114	1
100	101	1
27	27	1
48	49	1
24	25	1
24	31	1
100	102	2
96	98	1
57	57	1
20	26	1
83	87	1
88	88	2
33	42	1
8	82	1
79	87	2
63	64	1
55	55	1
19	26	1
23	84	1
64	72	1
45	57	1
61	62	1
40	117	1
126	127	1
44	45	1
20	22	1
18	63	1
