46	154	5
110	110	2
10	20	1
34	39	4
102	158	2
3	3	1
72	72	7
195	195	1
25	25	3
54	69	1
12	12	5
16	16	7
120	122	2
141	142	4
119	158	4
74	90	1
94	94	4
125	125	3
1	2	4
135	168	2
158	158	3
129	193	1
46	46	1
141	143	3
112	112	6
143	144	3
187	189	1
186	186	8
158	197	4
4	5	5
185	186	2
113	115	3
56	56	5
57	57	2
17	17	1
101	101	5
134	146	2
143	143	2
62	62	2
114	117	2
122	122	8
40	40	10
26	26	3
174	175	5
78	78	6
141	141	1
166	167	1
10	10	4
118	119	2
161	176	4
99	99	6
159	160	1
138	138	4
84	98	2
140	140	1
33	37	2
153	154	4
157	159	1
62	63	1
124	124	2
182	183	4
60	60	3
58	77	1
171	172	9
61	63	4
2	7	1
177	178	3
111	112	3
86	86	1
70	73	5
48	48	5
105	105	2
177	177	4
192	193	2
150	188	3
20	21	6
183	183	2
56	66	5
58	60	3
131	131	4
15	15	8
197	197	1
105	107	1
137	137	2
175	175	6
137	140	2
139	139	1
30	38	1
8	23	3
6	96	1
114	114	5
130	130	2
65	88	1
38	38	3
104	104	5
173	173	10
164	164	5
121	122	2
1	1	3
30	30	3
139	140	1
14	14	6
34	38	4
29	29	2
83	87	1
62	78	1
12	21	1
135	137	3
20	65	4
129	187	2
34	34	3
107	109	1
60	61	1
66	77	1
43	83	5
170	170	3
27	28	2
39	86	1
179	180	2
95	95	3
100	100	2
107	110	1
41	41	4
157	157	2
55	56	4
148	148	4
134	134	1
126	126	2
31	93	1
6	24	1
34	86	3
67	67	5
33	33	1
42	42	3
79	161	1
41	67	1
3	7	1
42	67	2
1	27	1
145	145	3
17	18	3
103	103	5
30	40	1
6	7	5
75	75	1
12	35	2
153	153	1
117	117	2
131	135	1
102	103	2
191	192	2
132	146	1
126	185	2
138	167	4
194	195	1
109	109	1
144	145	2
133	133	3
36	36	4
85	99	1
125	156	2
5	22	1
98	98	5
150	150	3
171	171	1
161	163	3
103	105	1
58	76	1
24	24	1
37	37	2
148	187	3
44	44	2
77	77	1
49	49	1
11	13	1
106	106	1
132	132	2
152	152	2
82	82	3
65	89	2
3	6	5
163	163	2
142	143	1
32	37	3
65	69	1
87	98	2
34	94	2
59	59	3
71	73	1
33	57	2
0	0	2
29	38	2
151	153	2
5	5	1
190	192	1
131	167	2
168	168	2
6	23	2
135	135	2
174	174	3
82	154	2
188	188	2
110	113	1
69	69	6
113	113	1
160	160	1
53	53	1
147	147	2
64	64	2
27	27	1
176	176	3
150	152	2
113	114	1
155	155	2
1	31	1
146	146	2
19	20	1
59	62	2
190	190	2
150	154	1
136	136	2
192	192	4
148	192	4
22	22	3
46	156	2
123	163	1
64	65	2
130	190	2
70	70	2
52	53	2
26	93	3
83	83	3
182	182	1
187	187	3
39	39	2
50	50	2
188	189	2
11	16	1
9	9	2
157	197	1
173	174	2
122	183	2
132	135	2
32	32	1
61	77	1
118	158	1
13	13	1
162	162	2
114	119	2
114	115	2
7	23	2
124	127	1
127	156	1
159	159	2
47	47	3
108	108	2
68	68	2
18	18	2
79	164	1
184	184	1
109	110	2
165	165	1
16	19	1
28	29	1
65	82	1
147	197	1
7	7	1
142	142	2
193	193	3
89	89	1
82	83	1
106	109	1
181	181	2
175	176	1
26	95	1
14	15	1
137	168	1
96	96	1
123	158	1
107	140	1
102	102	1
2	3	1
2	39	1
65	65	1
7	34	1
1	39	1
30	31	1
9	21	1
44	101	1
124	187	1
11	36	1
144	144	1
106	132	1
8	8	1
126	127	2
118	121	1
10	12	1
0	34	1
146	194	1
16	17	1
27	98	1
