66	67	12
83	83	22
29	30	2
77	77	9
75	75	17
74	75	8
67	67	13
64	65	5
70	70	9
88	89	10
55	55	15
68	68	18
80	83	3
90	91	1
86	86	18
49	49	15
72	73	3
39	39	5
71	71	16
72	72	5
41	41	18
89	89	4
22	22	9
86	87	9
81	81	18
63	63	10
93	100	5
88	88	5
79	79	17
70	80	4
37	38	2
65	65	18
79	88	3
69	69	6
62	62	12
85	85	18
66	66	9
35	36	4
101	101	10
40	40	12
56	58	4
60	60	6
25	25	4
69	89	5
56	78	6
91	91	11
38	38	3
35	35	10
34	34	10
67	76	1
81	82	4
46	47	3
87	87	5
96	98	5
38	102	3
46	46	5
59	59	5
80	80	11
72	74	1
64	64	12
58	97	1
57	57	6
66	69	5
49	50	5
94	94	4
78	78	15
77	79	3
54	54	3
68	69	1
50	50	5
93	93	14
33	84	1
69	71	4
44	45	4
29	29	1
41	42	1
77	78	3
20	21	1
100	100	5
37	37	15
31	31	10
73	73	9
92	92	5
74	74	14
26	26	11
26	28	2
95	99	2
20	47	2
59	74	2
99	99	3
61	63	1
52	52	5
46	87	2
102	102	2
26	27	1
92	94	2
91	93	4
36	36	9
38	39	2
69	70	8
86	89	5
100	101	2
57	58	1
22	27	3
92	98	2
23	24	3
23	99	1
61	62	1
32	32	3
82	82	8
27	27	7
63	65	2
46	80	4
25	26	2
95	96	4
78	79	4
47	47	1
25	46	3
90	90	12
48	59	2
72	78	3
92	100	2
54	56	1
96	96	1
31	32	2
48	49	5
76	76	5
87	88	4
57	62	2
58	58	3
48	48	8
84	84	9
52	53	3
27	43	1
25	53	3
62	63	7
95	97	2
42	42	8
57	90	2
51	51	5
98	98	3
58	61	1
52	55	1
75	76	4
62	99	1
71	72	1
52	56	1
24	24	2
44	44	2
70	77	2
70	76	1
76	88	2
78	99	2
24	25	2
30	31	6
22	46	2
56	90	2
37	40	3
53	53	4
81	97	1
66	73	4
56	79	1
94	95	2
45	45	2
98	99	1
79	99	3
50	57	4
55	84	3
23	89	1
49	57	4
54	55	4
42	43	1
77	94	2
56	56	2
43	43	3
37	39	1
90	101	3
26	86	1
56	57	3
25	44	2
61	61	4
80	81	3
73	76	4
63	68	3
60	61	1
95	95	1
49	58	4
85	86	1
50	52	4
55	56	1
24	88	1
28	28	2
101	102	1
32	33	1
98	100	3
83	84	2
83	86	3
54	84	2
62	68	3
23	23	3
23	25	1
60	62	1
22	26	2
67	69	1
91	92	2
83	85	2
66	70	4
34	35	2
27	49	1
50	51	3
25	45	1
33	33	4
49	56	1
24	46	1
65	66	1
87	89	1
92	93	2
79	86	1
79	91	1
64	76	1
33	88	1
41	74	1
71	73	1
25	87	3
62	64	1
28	49	2
50	54	2
35	37	1
33	34	1
58	59	1
76	89	1
61	96	1
37	90	1
96	97	1
25	42	1
65	69	1
35	40	1
67	75	1
47	49	1
