22	22	3
69	70	4
79	79	5
51	51	9
5	44	4
6	7	10
42	47	2
107	108	3
82	84	3
123	123	2
96	114	3
65	67	2
61	62	8
109	109	10
76	101	3
53	53	10
12	12	3
95	96	3
40	40	3
104	104	8
92	93	2
102	102	9
41	42	3
56	56	8
71	80	2
124	124	6
112	112	16
122	122	8
41	41	5
58	61	4
2	27	3
2	2	4
6	133	1
66	101	1
49	49	9
85	94	5
81	81	4
83	83	1
48	48	8
1	1	10
19	19	2
33	48	1
56	109	1
66	102	1
104	110	2
99	99	5
59	59	5
39	39	8
29	30	1
18	19	2
28	31	2
94	94	8
13	15	1
95	95	8
46	46	1
120	120	5
133	133	4
110	111	3
57	57	11
119	119	1
2	13	1
73	74	9
126	126	10
120	121	5
132	132	7
106	106	2
101	101	7
111	111	6
23	23	9
44	44	2
7	7	4
110	110	4
68	68	3
1	6	2
80	80	4
104	105	3
91	93	2
56	57	1
127	127	7
75	76	4
43	43	5
131	131	3
3	3	9
88	101	1
39	40	2
82	82	6
25	26	1
94	96	3
116	116	2
113	113	9
18	25	2
29	29	3
92	92	10
46	47	2
108	108	6
60	60	5
119	127	4
8	8	1
27	27	5
33	33	1
105	106	9
25	94	4
116	118	3
115	116	6
128	128	8
85	93	5
119	120	3
43	47	2
103	103	1
4	4	8
125	125	7
20	20	5
66	66	5
13	34	4
115	115	2
38	39	2
60	61	1
114	119	1
108	115	2
34	38	3
74	75	3
107	107	7
93	94	1
53	56	2
31	65	3
8	9	3
114	114	9
87	87	2
109	116	1
71	74	1
93	93	4
16	16	4
100	100	5
24	24	9
11	52	1
69	87	2
90	97	1
91	91	1
118	119	2
14	16	2
15	16	1
42	43	6
77	77	1
11	11	5
31	32	1
121	123	1
38	38	3
14	14	2
63	63	3
4	5	1
109	111	2
90	90	2
5	5	2
1	69	1
5	45	3
76	76	3
105	105	3
72	73	3
84	84	2
91	92	1
6	6	6
114	116	2
54	55	3
2	3	2
57	58	1
0	1	4
25	25	2
42	42	4
106	107	3
45	46	1
97	97	4
46	61	2
11	29	2
16	18	1
110	113	1
52	52	4
58	58	2
54	54	4
71	71	1
31	113	2
40	42	1
47	47	3
8	19	2
62	96	4
15	25	1
129	129	4
9	112	2
30	30	2
50	50	2
121	121	4
78	78	3
51	52	2
63	64	1
109	112	1
127	130	1
45	45	1
115	132	2
12	33	1
97	98	2
118	121	2
9	9	1
117	121	1
117	117	1
15	15	1
2	53	2
26	27	1
80	82	1
102	103	1
17	17	1
96	96	2
10	10	2
3	4	1
55	55	1
127	128	2
85	86	2
42	58	1
67	67	1
73	94	1
2	4	1
49	50	1
69	69	1
83	87	1
0	0	1
28	28	1
91	130	1
14	15	1
124	125	1
31	40	1
