210	211	3
146	146	6
70	70	3
9	47	1
36	37	7
126	126	5
178	197	2
4	7	2
19	19	4
202	235	2
127	134	1
83	90	4
154	178	1
209	210	3
137	154	1
39	39	11
240	240	3
8	8	3
214	221	3
127	226	1
233	233	12
184	185	1
153	170	2
63	63	7
101	110	3
199	199	2
128	232	1
69	78	1
11	12	1
221	237	5
50	50	5
116	116	5
179	196	6
0	0	1
58	58	3
153	168	2
213	213	5
222	239	2
191	191	7
7	7	5
151	151	4
227	240	2
167	167	14
11	26	2
180	181	2
12	12	5
47	55	2
96	98	1
131	190	3
67	67	5
150	166	3
161	161	4
100	102	2
172	184	2
209	209	5
20	20	3
128	150	1
216	218	1
45	45	8
36	49	2
177	178	1
217	237	2
153	156	5
176	176	8
40	55	1
120	120	1
144	144	5
62	78	1
39	45	2
39	47	1
44	55	3
19	46	3
186	189	3
12	58	2
195	206	3
239	240	3
117	133	5
128	133	5
139	140	2
43	43	2
171	197	1
227	241	1
220	220	2
29	32	2
15	26	4
165	174	4
174	216	3
183	183	6
218	221	5
223	227	3
136	136	1
9	29	1
149	149	2
138	138	3
13	14	1
16	29	3
153	160	1
33	33	6
216	221	1
232	232	10
178	178	3
44	44	4
3	33	3
137	137	8
1	21	3
215	234	1
169	169	5
153	171	1
110	110	3
113	113	8
170	171	3
170	194	2
127	127	5
177	177	7
69	75	3
222	223	5
201	201	3
176	189	2
157	157	8
168	168	5
40	40	6
221	235	5
221	221	2
65	82	1
129	129	3
123	123	4
215	218	3
11	217	2
150	165	2
36	38	2
154	154	3
53	53	3
161	173	4
100	101	1
217	217	2
35	36	2
234	234	9
39	59	2
136	175	1
10	45	3
221	234	2
207	210	1
222	224	5
135	146	3
16	16	6
48	52	1
189	190	2
45	48	1
38	74	4
202	208	1
76	76	4
191	202	3
58	59	3
213	227	5
35	46	2
69	73	1
83	86	3
38	40	4
149	164	2
233	236	4
112	114	1
177	188	2
30	33	1
178	212	3
85	85	2
124	133	2
102	103	1
162	174	6
229	229	4
13	13	4
60	70	3
145	148	1
127	128	3
39	52	2
14	17	3
164	164	4
201	209	4
113	119	1
203	230	3
33	42	2
216	216	5
127	145	4
95	95	1
230	242	4
68	72	1
186	186	2
148	148	4
228	228	4
109	128	2
192	222	1
18	19	4
103	112	1
123	133	1
196	198	1
121	121	3
226	226	2
109	110	2
102	102	2
180	199	2
178	191	4
171	181	1
227	242	2
58	73	7
5	5	2
22	29	1
163	196	7
207	221	2
178	180	2
57	57	6
17	17	2
161	166	2
135	145	2
166	181	5
25	33	3
210	216	2
126	136	4
166	178	3
209	212	3
144	147	1
181	181	5
165	165	8
95	102	4
162	162	1
3	225	7
115	125	2
117	117	10
216	241	1
224	234	1
28	28	5
231	231	4
3	8	4
146	160	3
10	15	1
0	21	4
167	174	3
65	65	4
67	88	2
200	200	1
3	26	1
107	107	2
9	14	3
39	40	3
22	22	3
166	170	1
30	49	3
187	211	2
51	52	3
124	126	3
153	162	2
49	63	1
0	17	3
155	155	3
68	68	4
202	206	2
136	137	4
212	212	2
98	103	1
128	145	1
219	223	3
224	224	5
165	166	1
97	99	1
123	124	2
135	159	1
182	195	1
81	81	4
219	219	3
23	23	4
36	36	2
44	56	2
141	142	1
26	29	5
75	75	2
241	241	1
98	198	1
229	230	3
153	157	2
185	188	2
171	171	1
36	50	3
97	100	1
65	71	1
242	242	3
59	60	1
3	3	5
65	73	2
48	48	2
219	221	3
190	213	2
13	36	2
73	73	1
1	211	3
30	30	4
143	160	2
99	99	4
13	35	1
60	60	3
61	68	1
214	219	1
125	130	3
120	125	1
190	192	2
174	198	2
193	193	2
105	121	3
193	209	2
142	146	1
142	170	1
174	175	2
81	82	1
76	95	2
200	201	1
56	57	1
230	238	1
214	229	3
196	206	1
35	35	3
46	49	2
145	145	4
31	31	1
80	83	1
64	77	4
28	30	1
101	101	5
231	234	4
186	188	5
179	179	2
140	140	3
119	120	1
43	46	1
20	41	2
125	145	3
159	159	3
98	116	1
115	115	2
213	226	1
131	144	2
201	217	1
58	60	2
98	102	1
8	40	2
25	36	1
115	121	5
142	142	4
130	160	1
21	21	1
24	25	2
1	191	2
218	228	1
51	57	2
62	64	1
104	105	1
46	58	4
131	146	10
32	32	2
138	159	1
161	174	1
212	224	1
194	206	4
130	156	1
20	31	1
105	109	3
141	141	1
6	21	1
11	11	5
35	41	1
200	229	2
153	153	1
61	61	1
30	31	3
33	49	1
178	182	1
178	199	2
7	24	2
46	47	2
235	239	2
198	198	4
12	22	2
19	21	2
188	188	1
212	229	1
42	42	6
16	24	1
60	66	2
64	64	3
17	222	2
97	97	2
77	109	3
200	242	2
190	208	3
128	128	2
185	186	4
234	238	2
156	156	2
219	220	1
214	233	2
229	231	3
115	119	2
139	139	3
180	196	1
191	203	1
6	7	1
10	24	3
10	10	3
168	174	1
9	10	1
195	205	1
189	212	2
14	15	5
16	221	1
231	240	2
2	2	2
164	186	2
4	4	1
39	53	1
171	179	1
192	192	3
122	133	2
184	188	1
8	21	3
127	143	2
210	228	2
58	82	2
51	51	1
212	226	3
159	175	2
78	78	1
36	53	1
110	121	1
104	126	2
178	179	1
195	195	1
208	212	1
45	91	2
43	53	1
44	63	2
106	107	1
39	41	2
40	54	3
124	124	4
217	231	1
106	144	1
71	72	1
49	49	1
65	75	1
64	242	1
135	157	1
10	21	2
0	29	1
176	180	1
230	237	2
37	240	1
99	100	1
119	125	4
6	8	1
9	23	1
7	212	1
1	36	1
187	201	2
158	166	1
2	4	3
168	172	1
99	107	1
236	236	2
82	83	4
69	87	1
218	219	1
192	197	1
109	118	1
141	154	2
165	181	1
51	67	2
111	128	3
15	28	2
218	220	1
44	57	1
127	227	2
146	147	1
223	230	1
171	172	3
134	141	3
149	151	1
27	45	4
159	160	3
171	205	1
38	52	1
88	88	1
98	98	6
203	203	1
62	62	1
214	232	2
210	234	1
103	113	1
163	166	1
167	171	2
177	200	3
41	41	1
86	86	1
29	29	1
115	131	2
140	147	3
158	175	1
187	208	1
187	187	2
59	59	1
130	130	4
10	31	2
134	134	1
33	57	1
40	48	1
204	204	3
160	161	1
158	158	3
207	216	1
123	139	1
194	194	2
55	62	4
35	47	1
4	29	2
135	175	1
136	146	1
143	159	1
121	127	2
59	74	3
32	43	1
52	59	2
157	170	1
225	225	2
70	86	4
188	199	1
192	224	1
60	80	2
206	206	1
76	77	1
210	233	2
21	29	1
99	113	1
124	125	1
226	227	1
56	59	1
137	149	2
107	124	1
9	112	1
177	184	2
196	208	1
73	201	1
129	142	1
102	106	1
187	213	2
38	242	1
226	229	1
222	237	3
42	72	1
10	30	3
211	223	1
161	196	1
130	133	2
126	127	1
82	82	2
41	57	1
236	240	1
105	106	1
153	204	1
233	242	1
215	233	2
120	123	1
16	43	2
135	135	3
173	173	2
207	209	1
226	233	1
227	228	1
109	129	1
210	213	1
221	222	1
226	241	1
49	52	1
40	41	1
202	202	3
136	153	1
227	227	1
25	34	3
29	33	2
15	34	1
7	44	2
235	236	1
239	239	2
9	9	2
207	213	1
15	15	3
51	61	1
208	239	1
192	199	2
151	164	2
34	34	1
166	198	1
172	199	1
50	55	1
104	120	2
195	204	2
166	169	1
193	204	1
84	118	1
228	234	2
217	229	1
76	107	2
147	173	1
138	156	2
200	227	1
49	57	1
55	55	1
118	118	2
69	69	1
38	54	1
84	84	1
42	47	1
158	165	1
147	151	1
72	72	1
148	165	1
103	103	1
102	115	1
121	126	3
204	206	1
9	28	1
102	109	1
74	75	1
52	52	2
151	179	1
214	214	2
211	228	1
106	106	1
218	233	1
56	56	1
69	74	1
85	102	1
24	24	2
132	133	1
125	147	2
163	163	1
83	83	1
96	105	1
158	159	1
216	232	1
6	6	1
199	205	2
73	84	1
234	235	2
74	74	1
152	173	1
113	126	1
207	207	1
138	139	2
105	126	1
37	38	1
51	80	1
16	237	1
176	188	1
61	73	1
17	25	1
147	163	2
222	222	1
154	155	1
105	117	1
0	31	1
175	175	1
47	49	1
55	71	1
1	31	1
161	169	1
14	19	1
77	77	1
126	137	1
134	146	1
125	125	1
152	152	1
187	206	1
147	149	1
216	234	1
54	72	1
44	54	1
61	70	1
6	10	1
37	37	1
206	213	1
145	175	1
27	27	1
45	57	1
122	122	1
124	129	1
144	157	1
158	180	1
