112	113	3
84	85	1
118	119	2
45	55	2
21	21	6
35	37	2
65	65	3
114	118	3
132	132	3
101	101	2
61	61	3
80	80	6
71	72	4
11	11	4
70	70	4
98	98	5
127	129	4
127	127	5
46	55	1
8	8	3
4	4	5
27	86	1
43	118	3
126	127	2
106	106	2
102	134	1
64	64	3
110	111	2
120	133	2
91	130	6
129	129	6
38	38	3
111	111	2
64	65	1
84	87	2
23	23	2
97	97	1
92	92	2
27	27	2
78	78	6
0	0	4
1	2	2
125	125	4
99	101	1
82	83	1
109	109	1
5	38	5
84	84	5
1	1	1
89	98	3
108	110	2
36	36	2
57	57	3
16	16	2
114	114	4
86	88	3
20	32	3
102	102	3
91	91	5
79	80	3
100	101	3
94	127	1
55	55	2
76	76	9
25	25	4
85	132	2
30	30	2
81	133	1
96	97	1
45	45	3
87	99	4
86	86	2
50	50	1
54	54	1
113	117	1
106	125	2
6	6	8
22	31	2
79	79	4
53	82	4
116	116	4
102	103	3
25	83	1
9	10	3
77	77	4
91	92	2
117	117	2
78	79	2
8	28	2
26	84	1
91	127	2
16	17	1
100	121	1
123	123	3
121	121	1
23	25	1
103	134	1
12	12	4
30	31	1
25	80	1
47	47	1
111	117	2
101	119	4
90	90	4
94	94	3
18	18	4
119	133	1
103	104	1
3	3	5
134	134	2
113	113	2
3	21	4
37	37	1
19	20	2
74	78	4
103	103	5
78	88	1
24	24	4
74	74	3
107	108	2
92	93	2
118	118	2
9	26	1
62	63	3
124	124	1
135	135	1
109	110	2
24	68	1
75	75	2
93	93	2
82	82	2
100	131	1
52	52	3
36	37	2
13	13	2
108	108	2
95	95	1
59	59	1
83	83	1
112	115	1
44	45	3
104	104	3
119	119	2
72	72	1
43	44	1
1	3	1
9	9	4
115	115	1
101	105	2
99	99	1
27	88	2
60	60	3
20	21	1
29	79	1
87	97	1
19	19	2
20	20	2
62	62	1
89	89	1
86	98	1
23	38	1
64	69	1
22	22	2
85	133	1
44	44	1
115	117	1
119	132	2
10	10	1
75	76	2
130	130	2
23	37	1
87	87	1
122	125	1
131	131	1
24	30	1
95	106	1
77	78	1
