169	171	2
113	113	7
131	131	2
18	18	3
47	48	2
163	164	2
145	148	4
161	161	8
27	27	3
44	44	10
101	101	6
120	121	1
60	60	9
87	89	4
37	38	6
29	30	5
33	58	3
167	168	3
149	153	6
165	165	1
111	111	2
85	85	8
159	159	5
66	133	1
128	129	4
122	124	4
38	38	3
30	30	2
2	3	1
82	85	6
27	64	7
122	122	3
189	189	4
12	12	2
166	167	2
8	8	3
116	117	5
124	124	5
143	143	5
156	174	2
152	153	1
35	35	2
5	7	2
185	186	3
156	156	1
99	99	4
40	40	3
38	39	7
0	1	3
10	10	3
42	42	8
28	28	5
67	68	3
185	185	3
176	176	6
64	64	4
55	56	4
86	86	4
107	107	1
100	100	3
26	26	1
163	180	5
68	68	4
44	54	6
179	179	3
32	33	4
50	50	4
177	177	5
49	50	2
82	82	6
27	61	6
29	65	2
110	110	3
126	126	7
15	15	6
193	193	4
105	105	5
72	72	7
25	25	7
65	138	1
119	119	3
141	141	2
106	106	3
16	16	5
179	181	1
64	142	2
144	144	2
7	7	6
53	53	2
4	5	2
167	169	3
77	77	4
168	168	6
47	47	2
59	59	3
137	137	8
108	109	2
45	45	5
192	192	1
0	0	2
118	118	2
178	178	4
127	127	1
80	80	6
3	63	3
97	97	4
174	174	9
54	56	1
29	29	1
147	147	2
104	105	2
8	9	1
124	125	2
66	66	6
136	176	1
130	131	3
142	142	3
141	144	1
33	33	2
102	102	1
183	183	4
115	115	3
20	21	3
112	112	3
96	96	1
6	8	2
19	20	3
150	150	3
155	156	2
162	163	2
94	94	2
93	93	3
107	108	1
84	84	7
54	54	4
75	76	2
24	24	2
134	140	2
83	83	6
72	73	2
132	132	5
43	44	3
89	90	6
171	171	3
111	125	5
16	79	1
123	123	1
31	64	1
59	62	3
78	78	4
67	67	1
144	145	1
190	190	4
64	138	4
153	153	2
4	143	2
194	194	5
70	70	4
14	14	3
46	46	3
161	163	1
128	128	8
17	89	2
10	42	1
197	197	6
182	182	5
71	71	1
23	34	3
115	116	2
23	33	2
23	23	3
146	146	4
74	74	1
12	13	1
24	25	1
154	155	3
73	73	2
169	169	8
69	69	3
73	74	2
133	133	1
179	180	2
168	179	3
49	49	4
62	63	2
125	171	1
143	144	3
156	172	1
3	7	1
19	19	4
52	52	7
39	39	1
98	98	2
173	173	4
178	179	2
180	180	3
164	180	3
164	164	2
17	17	3
159	160	2
149	150	3
13	13	2
55	55	2
155	175	2
43	43	1
188	188	3
187	187	2
58	59	1
104	104	2
133	135	4
121	121	2
186	186	3
16	82	1
176	177	2
161	168	2
24	70	1
159	167	4
189	190	3
57	62	2
48	48	2
42	43	1
36	36	3
88	88	2
120	120	2
75	75	1
182	184	1
58	60	3
151	151	1
139	140	1
146	147	1
148	148	1
78	87	1
116	116	2
168	169	2
22	22	2
58	58	4
157	157	3
21	21	1
34	34	1
37	37	5
108	126	1
191	191	1
193	194	2
89	89	1
61	61	1
140	140	1
74	75	1
57	58	2
5	5	3
167	173	1
51	51	4
137	139	3
188	189	1
1	1	3
16	18	1
173	174	6
41	43	1
172	172	1
38	64	1
53	54	2
149	149	1
46	47	1
181	182	1
163	163	2
72	76	1
148	153	1
170	170	2
4	8	1
45	54	2
165	166	2
136	136	2
127	184	2
71	72	1
109	110	2
3	3	1
106	112	3
114	114	3
87	87	2
160	187	1
81	82	1
4	4	1
158	174	1
167	167	2
32	32	1
196	197	1
129	129	1
149	151	2
123	124	1
113	114	2
119	120	1
80	81	1
184	184	2
159	161	1
155	155	1
40	42	1
41	41	1
68	93	2
130	130	1
161	162	1
126	127	1
70	71	1
107	130	1
112	113	1
23	37	1
38	62	1
66	67	1
187	188	2
31	31	1
