29	29	27
113	113	6
157	157	18
42	42	27
56	56	9
36	55	3
33	33	15
98	98	34
51	51	19
41	41	26
31	31	23
114	116	6
125	125	18
64	64	14
43	44	6
124	124	20
100	104	7
89	89	24
69	80	2
128	128	7
42	48	4
29	30	4
127	127	34
28	28	18
52	52	25
148	149	7
47	47	24
87	89	3
32	34	3
28	33	5
26	26	23
3	3	29
39	44	3
77	77	21
65	66	3
117	125	2
99	99	17
33	34	6
23	23	36
139	139	58
81	83	5
116	116	24
87	87	21
141	141	15
138	138	23
73	73	25
144	144	13
112	112	13
106	106	25
147	147	10
152	158	6
63	63	8
21	21	8
93	96	6
26	28	10
30	30	35
149	150	3
136	141	6
95	95	6
88	89	5
134	147	3
71	71	17
92	92	5
120	120	22
154	154	3
50	50	7
82	82	14
148	148	21
22	23	11
15	15	11
11	11	23
141	148	5
145	145	17
153	153	11
140	140	17
114	119	1
110	113	6
36	42	2
21	25	2
65	65	6
24	24	18
108	108	16
91	91	30
12	12	15
87	97	4
35	35	17
118	120	4
150	150	16
134	134	18
143	143	11
15	16	11
115	135	3
129	129	14
36	36	23
101	101	20
46	47	3
20	20	17
29	35	1
17	17	27
68	69	7
16	18	3
12	24	5
3	4	5
70	71	4
119	120	6
73	74	3
78	78	3
43	43	15
149	149	12
81	81	13
68	68	21
131	131	16
100	100	14
152	152	21
34	34	2
132	134	1
6	6	11
49	56	2
11	12	5
102	103	2
22	29	3
52	53	3
16	52	4
86	86	6
32	32	27
80	81	9
155	155	24
154	158	1
117	117	11
25	25	8
130	130	26
94	94	8
132	132	11
146	146	11
22	22	11
44	44	20
158	158	7
122	122	19
89	90	1
156	156	13
100	101	5
78	129	9
66	67	2
142	158	3
115	137	3
39	39	11
40	40	1
51	52	4
129	130	3
30	52	4
67	67	12
14	35	4
25	122	3
8	8	14
5	5	24
27	63	2
102	102	5
104	104	28
20	25	2
90	107	1
12	21	3
126	126	7
54	54	11
136	136	5
136	137	5
121	121	3
48	49	3
38	38	22
31	53	4
90	90	25
141	142	3
4	4	12
139	153	1
88	88	10
44	134	2
18	23	5
110	115	4
67	68	11
1	1	14
64	83	1
123	123	26
25	27	2
153	154	3
38	39	12
119	119	7
109	110	1
130	131	4
135	137	1
111	116	2
40	56	2
7	7	24
141	143	2
137	138	6
45	45	19
25	29	2
96	159	2
75	75	23
17	18	11
25	121	1
85	85	9
85	158	1
0	0	7
140	152	4
19	19	13
45	47	2
97	97	3
73	98	2
144	145	6
138	139	8
32	33	14
142	143	6
46	46	26
14	24	4
13	14	2
14	14	3
132	135	2
110	111	4
31	35	7
103	103	18
7	21	5
94	97	1
101	105	1
41	43	3
135	136	9
17	21	4
90	116	3
134	137	2
29	36	8
8	9	4
107	107	12
87	124	6
76	76	2
130	134	1
0	2	2
131	142	4
96	96	17
49	50	2
77	78	5
118	119	8
49	49	6
10	10	4
85	87	1
48	48	8
87	123	3
105	105	11
40	55	4
115	115	4
89	93	6
81	82	8
151	151	14
80	80	10
78	79	3
16	17	2
132	141	2
18	18	18
114	114	12
110	119	6
79	80	4
1	69	2
46	49	3
110	110	14
127	128	7
24	120	2
55	55	10
26	52	3
28	36	1
134	135	4
101	102	3
37	38	6
54	55	1
13	13	13
15	54	2
37	40	2
39	40	6
53	54	3
37	41	6
84	158	3
40	44	2
104	105	8
27	28	4
47	48	3
69	157	3
35	36	7
111	115	4
35	52	1
4	5	2
154	156	2
16	16	17
70	70	7
135	135	11
66	66	10
149	151	4
18	22	8
124	125	1
56	64	1
104	106	5
79	79	3
70	157	2
38	40	2
93	93	8
108	110	2
126	127	2
50	51	5
137	139	2
64	124	2
97	98	3
26	120	4
22	140	1
155	156	2
109	111	2
143	144	2
145	149	4
27	27	10
37	55	2
77	152	1
82	83	3
40	41	6
26	36	3
36	39	1
34	46	2
9	9	13
83	83	13
139	140	1
87	88	8
113	118	1
123	132	2
132	133	4
10	21	1
84	84	8
27	66	1
66	107	2
26	82	1
116	117	3
147	148	1
67	70	3
39	51	1
8	22	3
103	104	9
2	2	7
1	2	2
139	154	2
114	120	4
54	112	3
130	132	6
145	153	3
10	11	2
101	103	2
94	95	1
93	94	5
69	69	14
137	137	11
120	125	1
53	55	3
118	118	13
6	122	2
53	53	6
18	120	3
144	146	4
114	117	5
64	111	3
7	12	3
37	37	5
25	26	3
145	154	3
85	86	5
77	156	1
101	107	5
117	120	1
51	54	2
115	153	3
154	155	7
105	147	2
12	13	1
44	51	1
131	133	1
90	123	3
74	74	2
133	133	5
144	156	6
116	122	3
146	147	7
132	142	1
127	132	4
86	155	3
105	143	1
102	130	3
84	85	2
31	54	4
124	127	1
11	33	1
125	134	4
129	135	1
121	122	4
15	17	3
85	126	1
31	34	2
55	118	2
88	93	4
0	1	4
150	152	2
62	96	1
7	18	3
42	49	2
140	149	1
41	48	4
48	105	2
125	126	8
118	122	3
114	115	1
8	11	4
122	123	1
39	43	5
95	96	9
91	116	3
42	43	3
84	155	2
17	118	4
105	106	4
111	113	1
80	83	2
43	135	1
26	124	2
156	157	2
16	30	2
72	72	3
44	45	1
144	155	2
19	32	3
44	47	3
141	157	3
6	23	2
151	152	3
148	152	4
37	45	2
20	21	3
19	20	4
38	48	2
145	155	2
157	158	1
26	39	2
57	57	3
126	134	2
24	25	2
133	141	1
107	108	2
112	117	2
27	64	3
6	30	1
123	124	7
0	80	3
129	132	2
76	77	5
113	114	6
52	54	2
120	121	3
128	129	6
64	69	2
136	147	2
117	133	2
18	24	2
67	71	1
29	32	1
81	140	4
77	150	2
35	41	1
26	81	3
109	112	1
42	47	1
62	88	2
106	107	4
99	100	1
108	115	1
21	23	1
15	20	2
115	116	1
138	140	1
153	159	1
111	111	2
45	111	1
50	53	4
46	112	1
17	120	1
71	72	4
129	131	3
24	155	2
128	151	2
131	141	1
40	51	3
153	155	2
99	130	1
34	54	1
7	8	5
145	147	1
136	146	1
69	70	2
128	130	2
2	135	2
40	47	1
62	62	5
22	25	1
89	94	1
23	24	3
64	65	1
127	150	2
57	61	2
75	76	2
100	132	1
30	31	4
0	139	1
9	11	2
12	30	3
109	109	5
139	156	1
67	69	2
133	134	1
111	112	1
90	91	1
83	85	1
27	65	1
159	159	1
16	120	1
136	145	2
40	43	1
29	33	2
73	103	1
128	135	1
92	94	2
49	106	1
17	23	1
142	142	1
43	48	2
143	150	1
146	153	1
80	128	2
66	77	1
26	51	1
140	141	2
2	3	1
84	90	1
62	108	1
34	37	1
129	138	2
127	156	2
38	44	2
102	104	1
141	149	1
50	55	1
45	109	1
94	96	2
40	42	1
128	132	1
36	56	1
47	49	1
6	21	1
0	5	1
137	143	2
150	151	1
28	29	1
12	18	1
96	155	2
13	31	1
81	127	1
64	109	1
101	104	1
66	72	1
139	141	2
89	91	1
123	131	1
15	24	1
148	154	1
3	27	1
17	19	1
26	27	1
36	37	1
45	46	1
77	129	1
23	120	1
91	94	1
148	151	1
13	15	1
