40	133	3
93	93	12
4	32	2
15	16	9
72	74	2
6	7	3
108	132	6
10	10	7
131	133	3
3	4	5
30	30	5
7	7	11
121	121	12
15	15	18
46	67	6
90	90	10
41	92	3
67	68	3
123	123	8
9	9	24
130	130	1
41	42	6
17	17	7
22	30	2
47	47	12
132	132	3
112	112	4
20	21	4
81	94	4
98	99	12
82	82	11
65	65	10
106	112	3
44	44	9
43	76	3
3	11	3
79	79	10
60	60	5
45	45	7
115	115	6
77	77	11
116	117	5
92	92	7
14	14	22
124	124	13
65	70	5
111	111	5
109	109	12
103	103	17
41	41	3
84	85	7
112	126	2
50	50	3
120	121	5
19	19	5
57	57	14
107	126	1
38	38	1
64	70	1
6	6	15
28	28	5
0	0	7
28	33	4
111	112	5
8	12	2
63	63	15
119	119	15
3	5	2
31	31	15
116	116	2
89	93	3
13	13	5
107	125	1
68	68	5
42	42	8
128	128	6
91	91	9
18	18	6
26	29	2
19	34	2
133	134	1
42	90	1
99	99	5
40	40	6
94	99	3
25	25	4
75	76	3
81	84	3
35	36	1
94	100	2
106	106	7
45	133	3
58	59	6
80	80	7
8	8	10
125	125	8
42	132	5
117	118	2
72	73	4
120	120	4
130	131	5
95	123	3
17	38	3
14	22	2
129	129	7
96	96	6
46	46	5
74	75	5
5	6	2
114	114	4
67	67	12
131	131	5
98	98	1
110	130	4
16	16	5
93	107	1
93	94	3
37	37	4
20	20	13
108	108	15
64	64	10
75	75	17
87	88	3
39	40	2
107	107	10
30	49	3
11	11	5
73	73	4
28	48	3
6	8	4
21	31	8
62	62	5
100	100	5
46	72	2
33	33	11
3	3	1
123	124	1
48	49	2
28	50	1
22	22	8
97	98	2
125	128	2
78	78	10
5	5	3
101	101	8
15	20	1
132	133	1
126	126	8
68	69	1
35	35	4
134	134	4
48	48	7
4	4	6
12	14	2
111	132	1
119	120	1
15	22	6
23	23	8
124	125	7
89	89	4
4	6	7
112	127	2
27	27	10
9	70	2
59	67	2
111	115	2
72	72	13
97	97	6
88	88	6
109	134	1
126	132	2
34	36	1
74	74	8
85	98	2
58	58	5
71	71	5
78	79	2
44	47	3
15	26	3
75	119	2
61	119	1
15	18	1
113	113	3
111	116	4
12	12	6
56	56	2
34	34	7
94	94	3
82	84	7
93	111	2
47	124	2
107	127	5
37	38	6
118	118	13
14	26	2
77	78	1
3	30	1
101	104	4
76	76	4
109	110	4
85	85	5
81	81	2
26	26	3
96	98	1
55	55	1
39	132	2
80	81	1
122	122	3
22	25	2
95	97	1
43	43	4
36	49	2
15	19	1
27	29	6
24	25	2
36	39	9
73	77	2
13	32	3
68	71	4
41	43	3
28	60	2
28	29	2
56	57	3
14	34	3
61	64	1
110	133	2
90	92	1
47	48	2
95	95	3
23	25	6
110	110	4
129	130	2
101	103	2
29	29	4
25	29	2
83	83	5
103	104	3
59	112	2
133	133	1
10	34	1
128	129	2
26	27	1
43	75	2
22	23	1
61	61	2
117	120	2
85	117	3
2	2	3
43	111	3
97	123	1
117	117	2
84	84	3
86	88	5
106	107	1
112	116	1
58	104	1
101	102	7
57	61	1
32	32	3
83	85	1
42	43	1
45	46	2
102	102	4
14	15	1
9	10	1
63	115	1
95	96	1
24	24	2
86	86	5
83	84	2
17	19	1
65	68	2
114	119	2
26	56	2
35	39	1
21	21	2
18	19	1
31	36	1
111	130	1
118	119	1
30	31	1
58	94	1
66	66	2
62	67	1
36	36	3
112	128	2
15	21	2
5	14	1
57	104	1
103	107	2
58	80	3
59	59	1
63	64	1
70	71	1
16	17	1
71	73	1
16	26	1
114	115	1
131	134	1
81	83	1
32	33	1
56	105	1
19	20	1
48	50	1
39	39	1
20	22	1
58	111	1
58	128	2
23	24	1
130	134	1
74	77	1
114	116	1
85	121	1
