108	108	5
101	101	7
13	13	11
122	122	3
114	115	4
102	102	9
123	135	6
170	170	13
182	183	6
99	100	6
169	186	2
7	7	3
94	94	8
47	47	4
48	48	7
119	119	4
97	97	8
44	44	7
90	91	3
18	24	4
28	30	3
67	67	5
52	52	3
83	89	5
40	40	6
190	190	1
136	136	5
16	17	5
53	53	10
53	55	2
158	158	3
39	39	2
125	148	1
75	75	6
54	54	8
188	188	5
140	141	3
137	137	2
85	85	4
86	87	4
141	146	5
32	32	3
47	48	3
123	149	3
10	10	1
42	42	2
133	133	10
173	174	5
24	24	4
152	153	4
2	3	2
81	81	8
89	89	11
32	33	4
113	113	4
71	71	7
54	56	3
25	26	3
117	150	2
82	85	1
74	74	4
4	7	5
116	116	10
183	186	3
61	71	1
77	78	7
181	181	3
159	159	17
14	15	3
176	177	5
18	19	7
105	106	2
90	90	4
88	88	11
2	2	2
5	8	7
139	139	15
72	72	5
56	57	7
41	41	8
110	110	4
39	40	4
33	33	8
171	174	2
61	79	1
6	7	8
132	132	1
12	12	6
129	129	13
91	91	3
187	187	5
189	189	2
61	64	3
152	152	10
16	16	1
18	22	3
35	35	5
113	144	2
58	58	1
87	87	6
17	47	3
77	77	9
114	114	8
19	20	2
57	57	9
38	38	6
17	17	3
6	6	4
12	121	2
61	61	2
184	186	1
165	165	2
184	184	2
171	171	4
109	167	1
25	25	2
21	21	9
110	146	2
122	123	4
104	105	4
149	151	2
102	103	2
89	129	2
161	161	7
6	8	2
123	139	1
81	82	2
158	159	2
126	126	1
117	117	7
76	77	4
148	148	5
119	150	2
139	146	3
101	103	4
78	78	5
176	178	3
57	63	3
53	54	3
37	37	4
104	104	5
83	83	4
129	151	2
74	75	3
38	39	5
55	55	6
127	127	3
107	108	1
127	158	3
170	171	2
96	97	2
107	107	5
156	156	6
11	13	1
115	116	1
157	157	5
182	182	3
38	42	2
45	138	3
162	163	3
125	125	3
65	65	5
71	79	3
123	134	2
84	84	7
41	42	2
28	28	1
172	172	3
14	14	2
114	150	2
146	148	2
90	157	2
86	86	1
183	183	3
177	177	2
27	32	2
109	144	3
111	111	2
105	116	2
2	127	1
178	178	1
121	121	1
143	147	3
115	115	3
176	176	2
88	127	7
172	180	1
137	138	5
103	103	3
76	120	1
143	145	3
185	186	1
168	168	5
131	131	6
138	139	4
153	153	7
162	162	2
96	96	5
155	155	4
114	151	1
184	185	1
0	1	2
153	154	1
186	186	8
82	82	2
109	109	1
84	95	1
134	134	3
167	167	1
123	123	6
173	177	1
98	152	2
27	30	2
169	170	3
83	91	4
164	164	4
36	36	3
20	20	4
46	46	2
124	149	2
161	162	1
112	112	1
143	143	5
134	137	2
99	101	2
130	131	2
26	26	2
0	0	5
11	11	8
31	32	1
151	151	2
124	145	2
57	58	2
23	23	2
45	47	3
73	73	2
160	164	2
110	126	2
57	59	3
149	149	3
135	136	2
5	5	2
37	43	1
119	120	2
103	150	2
150	150	2
43	46	2
93	93	2
164	166	2
120	120	3
124	129	2
74	134	1
66	66	2
174	174	2
116	139	2
11	12	1
71	78	2
37	44	1
8	8	2
59	60	1
169	169	2
85	92	2
9	12	1
59	62	2
80	80	1
124	136	1
66	67	1
117	118	3
72	86	3
4	4	1
31	31	2
95	95	1
32	34	2
175	175	2
45	45	1
141	147	2
89	156	2
1	1	2
116	150	1
11	121	1
34	34	1
5	7	1
140	140	3
80	81	1
185	185	1
96	153	1
15	18	1
56	56	2
141	142	1
110	114	1
76	76	1
130	130	1
12	13	1
166	166	1
98	98	2
17	48	2
68	68	1
27	28	1
14	23	1
126	128	1
62	62	1
95	96	1
124	124	1
101	102	2
36	37	1
53	56	1
141	186	1
15	20	1
16	21	1
71	76	1
58	60	1
1	2	1
100	100	1
3	4	1
142	142	1
160	160	1
186	187	2
99	99	1
18	18	1
26	30	1
79	80	1
