25	26	3
105	106	1
49	55	3
55	56	1
67	67	5
69	70	2
76	79	1
16	16	2
108	108	8
84	84	2
70	71	3
80	81	3
19	20	3
106	140	5
120	120	8
78	78	2
108	109	4
129	129	14
92	115	1
86	87	1
90	90	1
34	107	3
42	42	5
77	77	3
34	34	1
94	94	2
12	12	3
144	144	1
114	114	3
113	113	3
91	91	3
49	123	2
60	61	1
41	41	5
63	63	7
51	51	6
103	103	7
135	143	2
97	97	3
22	22	5
50	51	2
33	108	3
55	133	4
10	11	2
62	62	4
40	40	3
135	136	3
138	138	4
19	19	4
39	39	5
112	112	4
57	63	3
114	118	3
101	101	2
137	137	2
10	10	6
50	126	2
79	80	1
106	106	1
27	27	3
17	29	2
57	57	2
87	87	7
141	141	2
70	70	7
15	16	1
48	105	1
142	142	3
40	42	5
123	133	1
13	24	5
128	132	5
55	55	4
61	61	4
88	88	1
99	99	5
132	136	3
70	72	1
137	138	4
17	17	2
98	98	1
93	112	1
34	106	2
79	79	1
36	36	3
122	137	1
9	26	2
63	100	2
6	29	1
133	133	7
23	24	1
34	140	1
113	146	3
69	69	3
99	106	1
97	102	2
9	9	4
33	141	1
118	119	1
27	28	2
8	20	3
34	105	1
18	18	2
55	65	3
118	118	2
113	114	1
75	75	2
35	35	1
60	133	1
143	143	1
4	31	4
11	27	1
96	102	1
59	61	1
32	32	3
123	124	1
93	111	4
130	139	1
33	33	1
1	3	3
132	132	2
116	117	1
58	97	3
23	23	3
123	135	1
117	117	4
102	102	2
140	142	1
2	2	2
81	81	3
33	47	2
19	29	2
64	64	4
38	84	4
73	73	4
41	141	2
127	129	3
128	139	2
10	18	1
53	121	1
139	140	1
6	77	1
102	103	1
25	25	4
130	130	1
132	135	1
54	71	1
81	82	1
4	29	1
48	48	2
18	19	1
83	90	1
3	36	1
59	68	2
4	91	1
15	15	1
31	85	2
79	90	2
56	56	2
126	127	2
61	133	3
82	82	1
132	138	2
35	140	2
6	31	1
37	84	1
98	105	1
124	136	2
100	100	1
49	103	1
114	115	2
55	57	1
4	79	2
47	47	2
83	83	1
58	71	1
113	120	1
66	67	1
140	141	1
128	128	1
83	85	1
43	43	3
49	58	1
124	124	1
122	122	1
52	53	1
111	115	1
95	95	1
137	139	2
36	37	1
95	124	1
53	53	1
116	116	1
62	104	1
24	24	1
121	121	2
38	38	2
50	128	2
33	140	1
98	143	1
131	133	1
127	127	1
37	37	1
5	80	2
34	48	1
26	26	1
4	5	1
30	30	1
134	134	1
11	11	1
89	90	1
