160	160	3
40	40	2
103	106	4
33	33	2
9	9	2
119	119	1
65	66	5
117	118	7
113	115	2
136	138	1
94	95	1
12	13	3
31	31	1
126	128	3
142	152	1
175	176	5
28	40	1
41	41	2
146	146	4
109	115	1
168	169	1
149	149	4
95	99	6
72	72	7
34	34	2
67	68	1
167	168	1
174	174	4
188	188	3
114	115	5
152	153	2
132	132	7
185	185	6
34	35	1
30	31	2
106	106	4
7	11	1
71	71	6
91	92	1
143	146	1
18	27	2
74	75	2
83	84	1
121	146	4
12	12	6
87	96	1
106	107	1
46	47	2
97	97	4
154	155	1
147	147	2
144	145	1
177	177	2
37	48	2
74	82	2
7	7	4
136	137	6
166	167	3
141	167	4
61	61	1
148	149	2
106	131	1
112	113	2
155	155	3
86	86	2
5	5	3
144	144	6
138	138	4
104	104	7
93	93	5
63	63	5
114	114	1
7	8	2
11	11	4
187	187	1
77	97	2
82	82	1
143	143	3
95	96	2
0	0	4
184	184	3
134	136	3
166	169	3
89	100	2
113	114	1
111	111	3
68	68	9
159	159	1
89	96	2
6	6	5
152	152	2
106	118	1
141	142	2
117	117	1
129	129	9
156	156	6
89	91	1
94	108	2
137	156	1
111	114	2
15	17	4
159	160	1
73	81	1
125	127	1
150	150	3
180	180	2
164	185	2
164	164	2
59	59	3
5	6	5
142	153	2
36	39	1
56	57	4
183	183	5
80	94	2
84	85	1
59	89	2
107	107	5
78	115	3
79	81	2
123	123	3
139	140	1
152	154	1
121	123	4
182	182	3
131	131	5
151	171	2
151	151	3
78	79	2
89	89	4
170	170	4
88	110	4
46	46	1
18	19	3
78	78	6
124	125	2
0	14	1
95	106	1
47	68	2
58	59	1
119	123	3
179	188	1
39	39	4
25	56	1
10	10	6
77	78	2
189	190	2
78	83	1
167	167	3
91	107	1
171	172	3
139	165	1
37	37	1
131	136	1
130	130	4
109	109	1
162	172	2
161	161	1
99	99	2
168	168	2
17	18	3
104	105	2
90	91	1
142	143	3
171	173	2
76	82	4
85	85	1
53	53	2
154	154	3
118	118	4
23	27	1
166	166	3
179	179	2
58	58	4
61	63	2
176	176	1
175	175	4
13	13	1
87	97	1
146	156	4
87	87	1
15	16	2
161	162	2
62	63	6
142	160	1
91	91	9
18	18	1
23	77	1
186	186	5
61	62	1
109	129	2
29	29	3
137	138	1
60	61	2
178	178	3
77	77	4
37	46	1
160	161	4
79	79	3
73	88	1
110	116	1
107	108	1
115	115	1
70	87	1
17	22	1
105	105	3
75	103	3
116	117	3
153	153	1
134	143	2
153	163	1
27	42	3
4	5	1
30	30	1
146	182	2
73	73	1
104	113	1
62	62	1
169	183	1
163	163	1
66	70	2
38	38	1
60	87	2
11	12	2
91	94	1
11	13	1
16	19	1
189	189	2
2	2	3
2	17	1
122	123	2
187	189	2
174	177	1
143	152	2
187	190	1
64	64	1
125	136	1
128	128	1
3	113	1
155	188	1
90	90	1
18	20	1
135	146	1
73	83	1
138	139	6
66	66	2
135	142	3
72	87	1
77	83	1
86	100	1
139	139	1
61	77	3
28	35	1
74	74	2
52	53	1
70	70	1
140	142	2
21	21	1
47	78	1
5	89	1
101	110	3
157	187	1
172	174	1
121	121	1
95	95	1
96	97	1
114	117	1
118	119	2
99	100	1
83	89	1
0	15	1
68	74	1
112	112	1
169	169	2
86	99	1
162	162	1
64	65	1
182	183	1
173	188	1
130	159	1
152	185	1
27	27	1
48	48	1
182	187	1
130	132	1
63	64	1
145	145	1
93	106	1
127	139	2
25	25	1
159	162	1
165	165	1
91	101	1
