10	10	9
60	60	5
1	1	4
43	43	14
9	9	3
11	11	3
98	99	3
126	126	3
133	133	5
124	124	3
28	29	6
76	76	5
104	105	2
109	113	1
119	119	5
102	111	6
132	133	2
123	123	6
21	21	10
35	35	7
94	95	3
126	134	6
64	64	3
72	72	8
58	58	1
22	71	5
64	65	4
130	130	8
103	104	2
132	132	1
58	59	4
38	38	6
88	88	7
5	26	1
114	114	2
122	126	3
23	23	4
54	54	2
30	30	6
94	94	3
61	61	9
28	28	5
106	106	1
68	68	4
13	13	6
2	4	2
127	133	2
67	68	1
3	6	7
116	116	1
24	24	7
83	84	1
82	100	2
12	13	3
65	65	4
99	99	7
22	22	6
57	59	2
95	95	3
118	118	2
124	126	2
31	31	1
12	12	1
67	71	2
120	134	1
91	93	1
69	69	3
59	59	2
92	92	2
29	29	2
6	6	4
5	5	2
76	93	7
79	128	1
1	6	2
80	80	6
21	22	8
25	25	3
60	61	1
53	53	1
8	26	1
36	37	1
4	4	5
120	120	3
20	20	5
74	74	2
0	73	1
17	23	4
126	129	3
109	109	5
82	82	2
79	79	2
115	115	4
114	115	3
121	121	5
127	134	3
53	54	2
86	86	1
20	22	4
63	110	2
16	16	2
84	84	3
52	52	4
98	98	5
78	78	5
88	89	2
117	118	3
129	129	6
18	18	6
71	71	8
92	93	1
62	65	1
0	27	1
2	2	2
70	70	3
66	66	2
89	90	1
28	32	1
125	125	1
59	60	4
37	37	2
19	20	3
101	101	5
17	27	1
32	32	3
134	135	3
105	105	3
134	134	1
34	34	1
63	63	2
8	19	1
90	90	3
3	3	2
86	89	2
102	102	4
93	93	3
128	128	2
131	131	2
91	91	3
107	108	4
1	2	3
8	8	3
106	110	1
62	62	3
65	66	1
83	101	1
125	128	1
72	73	1
89	129	1
111	112	1
118	119	4
127	127	3
43	46	2
18	19	1
48	51	1
111	111	2
17	17	1
27	27	2
89	103	1
131	134	2
47	47	1
59	105	2
45	45	1
14	15	2
15	16	1
118	130	1
103	103	3
33	33	1
57	57	1
28	31	1
112	112	1
62	106	1
16	17	1
61	67	1
81	81	1
130	131	1
23	24	1
101	113	1
6	25	1
96	97	1
91	92	1
80	97	1
81	104	1
110	111	1
