68	69	2
96	144	2
141	141	2
49	49	4
90	90	2
57	128	4
132	133	10
20	49	1
40	40	2
142	142	4
71	71	15
58	77	6
24	139	2
13	33	6
27	27	6
4	5	1
94	94	3
0	0	3
83	85	3
73	73	4
20	20	1
61	61	2
18	18	3
27	110	3
91	91	4
123	123	3
136	136	6
16	39	3
92	92	3
25	26	3
55	55	1
113	116	6
109	109	4
118	118	5
60	61	6
33	33	3
97	97	4
142	143	8
58	72	1
63	63	3
3	3	8
59	59	2
145	145	9
39	39	2
94	95	3
59	77	2
116	117	5
47	47	5
131	131	4
43	43	3
66	66	4
74	74	6
23	23	4
28	28	10
16	43	3
110	128	3
120	120	8
59	61	2
95	96	3
19	19	1
93	95	2
30	30	2
117	117	5
4	4	9
129	132	1
84	84	3
32	33	5
31	51	1
75	78	2
38	38	7
89	89	4
15	20	4
134	134	5
93	97	3
138	139	2
68	73	1
41	41	2
81	81	1
16	16	5
65	70	1
60	60	7
52	52	3
140	140	2
54	54	8
24	24	1
140	142	4
76	78	1
93	93	1
122	122	3
48	48	1
132	139	4
29	29	3
113	113	3
130	130	2
56	56	4
31	31	1
1	1	2
113	114	2
46	47	4
37	38	2
12	13	3
60	80	4
85	85	3
132	138	1
139	140	2
101	101	3
34	34	3
138	138	1
62	63	3
19	20	2
41	42	2
22	22	2
111	111	1
132	135	2
8	8	7
77	78	4
120	122	1
110	127	2
73	74	3
25	25	2
102	102	5
64	72	2
143	143	6
37	37	2
100	101	1
33	35	1
57	59	2
96	96	1
109	137	1
8	9	2
17	17	2
9	9	5
112	113	1
57	57	2
80	80	5
83	83	1
76	76	4
38	91	2
135	136	2
104	104	10
95	95	2
118	124	1
111	126	1
10	10	2
125	125	1
9	10	2
119	119	2
19	21	1
13	36	1
75	75	2
72	72	6
87	87	1
112	112	6
98	98	1
129	129	2
62	62	3
42	42	1
75	76	1
77	77	1
33	34	1
120	121	1
50	52	3
64	64	3
97	98	1
86	87	1
117	118	1
68	70	1
55	126	1
135	140	2
26	72	2
15	16	1
133	133	1
16	37	1
63	64	1
121	121	2
55	129	3
86	86	2
136	137	2
25	136	1
35	35	1
79	79	2
50	50	2
24	128	1
2	35	3
18	19	2
30	31	3
91	92	2
26	26	2
2	49	1
83	84	1
53	53	2
105	105	2
23	128	1
33	132	1
14	14	1
113	115	1
82	82	1
106	106	1
61	63	2
100	100	1
88	88	1
96	97	1
124	126	3
36	37	1
52	81	1
103	103	1
5	5	2
27	28	1
78	78	1
