58	58	1
75	77	1
102	102	2
121	121	8
136	143	2
129	129	4
178	178	11
72	72	3
142	142	6
75	132	3
113	113	4
65	66	4
35	36	5
88	89	3
55	55	8
82	82	4
131	131	3
147	157	3
78	78	8
167	168	2
157	174	1
54	54	15
110	110	5
18	19	2
0	32	2
132	169	1
66	67	1
152	152	7
35	35	9
86	89	1
77	78	7
44	45	3
59	59	7
179	179	5
45	45	8
67	67	12
90	91	4
131	146	2
93	93	1
168	168	8
175	175	4
19	19	6
153	158	2
93	113	5
49	57	1
71	71	7
45	76	3
140	140	6
4	19	3
123	125	3
105	115	3
116	138	2
3	3	1
136	136	8
73	73	9
119	119	3
138	138	7
43	44	7
140	146	4
160	161	4
31	35	2
116	118	5
84	86	6
94	94	10
128	128	2
84	85	4
106	134	4
79	79	10
85	95	2
132	158	1
3	62	1
161	162	13
84	101	5
43	43	7
157	157	6
146	146	4
134	134	6
165	167	3
81	81	10
96	96	5
124	124	14
16	16	5
70	104	3
25	25	2
101	101	3
15	80	2
89	89	9
52	52	6
95	96	2
160	160	4
5	10	4
104	105	3
81	165	6
114	149	4
150	150	9
42	42	3
141	141	5
22	23	3
177	177	1
68	68	4
159	172	2
62	146	4
103	108	1
176	176	1
34	34	1
2	2	6
133	138	3
145	166	1
166	166	2
15	15	5
54	55	1
35	42	1
145	145	3
155	155	10
22	22	8
26	27	2
170	170	4
75	168	2
127	164	3
97	171	1
36	37	2
90	167	2
166	167	7
91	91	3
106	106	11
163	163	5
154	174	5
134	135	5
92	92	2
92	93	8
162	162	3
118	119	3
100	152	1
141	142	1
28	29	1
125	128	7
170	174	1
156	156	3
27	28	2
10	11	3
9	41	1
106	118	1
80	106	3
107	107	7
129	131	3
40	40	10
6	6	3
167	167	3
103	111	1
105	105	6
33	33	10
173	173	3
77	77	6
76	176	2
129	164	2
39	39	4
143	153	1
126	163	1
148	149	3
14	14	9
148	148	5
61	62	2
132	132	7
133	174	1
91	92	4
67	68	2
88	88	3
140	141	1
110	117	1
180	180	5
169	174	1
162	163	3
111	112	4
49	62	1
28	28	5
25	26	6
134	138	1
0	1	2
161	161	4
98	101	2
159	173	4
53	53	4
38	38	1
87	87	7
104	104	2
30	30	4
97	98	2
14	16	3
31	31	3
36	42	5
107	108	3
173	174	6
84	100	3
13	13	3
144	144	6
149	149	6
171	171	8
83	130	1
73	74	2
18	18	1
112	112	4
118	121	2
13	40	2
71	77	1
8	9	2
135	135	2
174	174	1
50	50	3
101	169	1
86	86	2
6	7	1
6	18	1
80	80	6
5	12	1
9	9	3
12	19	1
55	149	3
17	20	3
108	112	2
153	153	10
125	125	2
13	76	1
165	165	2
2	3	8
23	33	2
85	85	3
37	53	1
95	97	1
17	17	2
110	111	7
89	129	1
138	139	1
31	44	2
20	43	2
57	57	1
37	38	2
40	62	3
20	20	3
65	137	1
41	42	1
7	7	1
154	154	3
8	8	6
178	179	5
147	169	1
103	103	5
24	25	1
63	64	3
106	117	3
93	173	1
129	146	2
74	74	6
108	108	4
22	41	4
39	42	1
137	146	1
149	156	1
158	159	2
84	84	2
96	171	1
126	126	1
23	23	2
41	43	3
114	114	2
103	109	3
30	31	1
121	123	3
153	177	1
127	128	2
123	123	2
74	77	1
34	35	1
98	99	2
11	11	7
154	155	4
56	57	1
15	61	3
6	10	3
120	120	5
87	161	2
32	42	1
172	172	5
16	41	1
135	136	2
127	149	2
151	174	2
147	148	1
137	137	6
39	40	3
116	116	2
13	19	1
64	123	3
0	0	2
97	97	1
159	159	5
83	84	1
23	24	2
102	106	1
101	102	3
90	92	4
10	10	3
89	90	2
27	44	1
96	102	3
155	161	1
1	2	1
111	111	6
158	172	3
54	112	2
129	130	3
37	37	3
133	133	1
12	12	2
78	79	1
116	119	3
144	152	1
115	115	1
50	51	1
168	173	2
51	51	4
16	29	1
169	170	2
51	52	2
70	70	1
127	127	1
99	100	2
94	150	1
88	90	1
146	148	1
63	63	2
29	29	2
117	117	3
32	32	3
95	95	2
144	150	2
4	4	5
146	157	2
90	90	3
109	176	1
0	33	1
151	151	2
5	5	3
24	24	5
169	169	1
65	65	1
91	93	1
71	133	1
33	42	2
60	142	2
2	53	1
127	160	1
75	75	4
66	66	1
147	149	2
151	155	1
158	177	2
52	176	1
33	36	1
121	122	1
29	36	1
24	27	1
12	24	1
154	156	1
25	27	2
38	39	1
52	81	1
142	143	2
76	169	1
175	176	1
139	139	3
60	60	1
164	165	2
85	170	1
130	131	1
147	160	1
96	179	1
140	143	1
55	60	1
4	5	1
72	75	1
137	169	1
36	41	2
61	61	1
5	11	1
127	161	3
62	62	1
120	121	1
23	32	1
15	81	2
11	21	1
21	21	1
109	109	2
7	11	2
91	171	1
99	109	1
71	171	1
7	17	1
150	156	1
14	43	1
157	158	1
14	15	1
24	26	2
71	107	1
87	89	1
99	99	1
50	110	1
94	95	1
17	31	1
56	142	1
80	120	1
28	34	1
123	127	1
