111	132	3
12	26	8
93	94	3
52	55	3
130	135	3
50	55	7
131	134	3
102	103	3
48	48	4
70	70	2
57	59	5
80	80	7
92	119	3
103	104	2
66	84	1
114	115	7
106	130	3
87	87	3
32	32	4
23	26	2
20	20	6
17	18	4
8	27	3
52	91	1
27	27	3
82	82	1
122	123	1
86	86	3
97	97	1
10	10	11
121	121	7
7	108	2
91	91	7
6	23	4
4	4	2
67	67	2
90	90	3
19	20	3
130	133	4
47	100	2
5	5	2
62	63	3
127	128	1
67	79	1
11	107	3
101	101	4
7	10	2
84	85	3
107	110	3
76	76	5
133	133	1
7	7	3
56	56	4
50	109	3
22	23	4
114	114	2
96	100	2
79	79	7
48	89	2
125	126	3
115	120	2
114	130	1
105	105	6
45	46	2
1	1	2
95	95	3
53	53	2
123	124	5
34	34	6
132	132	3
131	131	2
125	127	1
127	127	1
85	85	5
130	130	2
12	28	1
78	87	4
11	11	5
118	118	4
111	111	4
65	86	2
57	58	3
126	126	3
60	61	5
19	19	2
114	129	1
67	81	2
6	6	9
70	71	5
29	29	3
115	128	1
3	3	1
122	127	1
118	129	4
99	99	4
108	116	4
31	32	2
132	133	2
93	93	2
55	55	4
129	129	8
44	44	3
13	14	2
81	81	2
6	30	4
50	50	1
104	108	2
30	30	3
75	75	2
81	88	1
20	26	2
112	112	4
33	37	2
32	35	2
23	23	2
109	109	3
57	57	3
18	18	1
55	91	2
28	28	2
64	64	2
100	100	1
35	35	5
59	59	4
24	25	4
94	94	1
91	109	2
118	131	1
49	50	3
9	9	2
6	25	2
109	110	1
84	84	1
8	10	1
117	119	1
33	33	2
63	65	2
99	122	2
60	60	1
13	13	1
15	20	3
1	38	1
65	84	1
0	45	1
25	25	2
102	107	1
91	120	2
72	72	1
99	100	2
15	15	2
48	56	3
112	119	3
8	8	2
130	131	2
3	4	1
68	77	1
58	58	1
107	107	2
43	43	3
65	78	1
110	110	3
46	87	1
69	69	3
8	26	2
108	109	1
68	86	1
98	112	1
124	124	1
24	107	1
34	36	1
24	24	1
32	37	1
62	62	3
74	74	3
118	128	1
53	92	1
104	105	1
98	99	1
0	0	1
68	68	1
117	129	1
66	67	1
124	125	1
110	132	1
21	21	1
6	29	1
29	116	1
78	78	2
36	36	3
97	98	2
49	113	2
11	133	1
30	31	1
42	42	1
56	57	1
20	108	1
83	85	2
94	127	1
82	83	1
57	84	1
115	115	1
17	19	1
130	132	1
131	132	1
17	26	1
135	135	1
134	135	1
120	120	1
112	113	1
94	99	1
123	123	1
58	86	1
112	117	1
