189	189	6
232	233	2
214	215	4
180	180	2
215	217	2
78	78	5
16	16	8
34	34	3
217	218	3
217	217	5
119	119	2
31	31	6
160	160	1
205	205	3
45	45	2
147	154	1
8	8	3
68	68	3
82	82	2
164	164	2
237	237	6
33	35	3
81	81	4
229	229	3
170	170	2
65	65	5
240	240	4
89	89	2
244	244	3
194	240	1
146	146	1
40	41	2
192	192	5
200	200	3
201	201	5
61	61	5
62	62	3
27	33	2
38	39	7
95	95	11
6	7	5
85	86	5
178	178	4
117	118	2
92	92	11
117	117	7
46	46	1
2	2	1
151	151	2
181	181	8
150	150	10
211	211	4
156	157	1
112	112	3
79	80	3
236	245	3
231	231	3
196	196	4
11	11	3
95	96	3
227	245	3
98	102	1
4	4	1
197	198	4
198	199	5
68	81	1
92	93	4
209	209	10
224	224	7
176	224	2
43	43	1
85	85	4
192	193	2
225	225	4
57	60	1
49	49	3
246	246	3
168	205	3
22	22	10
156	156	5
236	237	4
19	19	3
189	190	2
178	229	4
159	173	1
92	110	1
83	84	8
242	243	1
226	226	6
52	53	1
4	18	4
186	205	4
78	79	2
39	39	1
218	219	1
198	198	4
174	174	1
230	230	3
48	48	3
90	90	2
235	247	2
108	108	1
154	154	5
116	116	2
56	57	1
155	155	1
69	69	1
64	68	1
160	201	3
14	14	6
237	238	2
194	194	6
91	91	1
149	149	3
219	219	2
97	97	3
2	3	2
154	226	3
8	9	4
56	56	3
93	93	2
64	64	1
56	181	2
36	36	1
29	30	6
183	185	4
50	50	2
4	20	1
59	60	2
171	224	3
69	76	2
44	44	2
77	78	1
210	210	3
109	111	1
35	39	1
27	27	2
167	205	1
38	38	7
67	67	5
185	186	3
195	195	7
30	30	5
199	199	1
171	172	3
216	216	4
217	220	3
220	220	3
17	17	2
197	199	2
45	46	4
173	173	4
187	187	3
59	180	7
53	54	3
247	248	1
172	172	3
223	223	1
212	212	3
57	57	4
218	218	3
176	176	1
32	32	3
83	83	4
9	11	4
101	101	1
51	54	3
157	158	1
15	16	1
9	25	3
186	186	1
176	177	4
149	151	1
221	221	1
152	161	1
238	239	1
96	96	2
37	37	2
50	82	1
229	233	1
9	9	2
147	166	1
109	110	2
158	158	2
33	33	3
94	110	2
44	103	1
160	232	3
157	157	2
173	175	1
234	234	5
95	99	3
203	203	2
26	26	4
216	242	1
21	22	1
84	84	4
114	114	4
55	61	3
88	88	1
19	20	2
247	247	8
35	35	2
204	205	1
43	46	5
214	214	1
5	5	3
174	175	1
48	50	1
52	52	1
185	185	3
161	161	1
60	74	2
179	179	2
93	94	1
23	23	4
239	239	1
206	206	2
25	26	2
80	80	1
241	241	1
44	45	1
32	33	1
188	190	1
111	111	3
32	39	1
36	43	1
107	117	1
167	171	2
71	71	2
182	183	1
112	113	1
15	15	1
32	36	1
61	62	1
231	233	1
204	204	2
11	12	1
217	242	3
153	153	4
44	69	1
21	21	1
162	162	3
169	169	3
40	40	1
175	175	3
86	86	2
188	188	1
94	94	1
20	20	1
43	44	2
235	235	1
177	177	1
193	193	1
28	28	1
113	113	1
29	29	1
63	101	2
230	231	1
63	67	1
200	219	1
245	245	1
58	222	1
103	103	1
237	245	1
77	106	1
35	60	1
153	198	1
65	109	1
60	60	1
98	98	1
248	248	1
41	41	2
105	105	1
220	221	1
27	156	1
233	233	1
49	50	1
34	74	1
104	104	1
9	93	1
197	201	1
72	73	1
