24	24	6
39	46	2
152	153	1
140	148	1
68	157	2
2	128	1
15	15	8
22	22	18
29	41	2
50	50	7
90	96	4
116	116	11
106	106	11
77	77	3
45	45	7
145	145	4
47	47	14
135	135	7
128	129	6
40	40	9
26	78	1
46	49	2
136	137	1
22	23	8
1	1	13
12	12	15
6	115	1
48	73	2
33	92	2
151	151	3
136	142	4
147	147	11
140	140	18
73	73	13
78	78	15
124	124	3
48	48	5
11	12	4
85	85	7
24	25	10
30	30	15
34	34	2
117	117	5
137	137	10
89	89	3
39	39	6
93	93	13
156	157	3
110	111	5
145	154	5
134	134	3
28	28	17
18	38	6
31	33	3
26	27	6
92	92	4
18	69	2
64	64	4
18	94	1
145	147	2
138	140	3
16	16	10
87	87	5
0	94	2
75	102	1
27	27	8
51	51	2
81	81	4
28	29	1
9	10	6
32	87	2
121	122	1
98	98	2
129	129	15
7	7	11
86	87	3
104	104	3
8	123	6
80	80	5
103	103	3
43	43	4
6	11	4
19	20	1
89	92	2
67	67	8
146	146	2
7	11	5
44	68	2
154	154	7
85	86	5
37	71	2
109	109	7
117	120	5
22	155	6
67	71	3
144	144	9
125	125	8
4	4	7
148	148	6
68	68	6
29	30	8
31	35	2
118	145	2
115	152	2
17	155	1
17	17	12
11	115	1
95	95	3
152	159	4
42	42	8
101	101	4
3	3	4
139	139	24
84	85	3
5	5	4
82	83	1
2	2	12
32	32	2
143	154	2
96	98	3
111	111	9
84	84	6
23	23	9
35	35	3
62	136	6
83	84	5
20	20	5
67	112	2
49	51	4
84	147	4
138	139	5
131	138	6
49	156	2
110	110	6
145	146	2
130	138	2
44	44	8
100	100	5
96	97	1
79	79	5
13	50	2
131	131	6
108	109	5
124	125	3
134	146	3
88	88	6
153	153	2
0	55	3
99	99	4
21	21	8
77	84	4
108	108	6
37	55	4
120	120	12
94	94	8
55	55	12
111	112	4
66	96	1
156	156	3
112	113	4
130	130	8
84	151	2
29	32	3
127	128	1
76	76	1
155	155	2
13	14	1
36	36	3
26	26	6
114	118	2
83	103	2
99	105	5
126	126	5
87	88	1
17	18	3
143	143	11
115	153	1
29	91	1
18	44	5
38	56	8
2	51	3
91	96	1
81	84	3
9	9	1
89	93	3
104	105	5
86	86	5
127	127	3
153	154	3
75	133	3
72	72	1
14	63	2
25	25	7
140	141	1
144	153	4
139	140	1
138	138	13
105	105	10
133	133	4
82	82	5
122	136	1
35	36	4
70	70	5
136	141	3
132	132	6
105	148	1
83	133	6
7	12	2
49	54	1
145	148	1
40	41	3
97	97	4
51	122	1
33	33	4
38	38	3
27	28	1
106	130	2
112	112	3
153	155	1
39	72	3
62	62	1
96	96	4
75	75	8
135	142	2
128	130	1
20	21	1
14	120	5
149	152	1
126	139	2
132	149	5
149	149	4
83	83	5
0	4	3
21	56	2
65	65	3
94	95	3
3	11	3
108	132	2
6	12	3
52	122	4
141	141	3
88	90	6
128	128	9
46	46	3
135	137	3
33	34	4
5	7	1
39	40	1
0	36	4
18	126	2
69	69	5
119	119	2
114	117	5
55	56	3
7	48	1
3	63	3
14	136	6
115	136	4
68	155	1
42	50	1
112	145	3
31	31	6
0	0	9
45	156	1
11	11	2
90	90	2
150	150	3
68	156	2
105	138	2
130	134	3
125	126	7
85	119	4
8	122	1
7	15	2
68	70	3
112	144	1
157	157	10
67	68	4
18	21	2
35	37	1
34	35	2
86	118	1
115	115	3
141	146	2
14	14	3
15	151	1
0	127	2
107	145	1
90	92	2
42	88	1
5	156	2
6	6	2
8	13	1
75	101	2
13	13	2
142	143	1
8	8	2
107	107	2
18	43	1
119	121	5
21	23	1
32	89	2
4	67	2
66	98	1
44	116	1
87	111	1
77	104	1
31	90	1
26	65	1
79	80	3
86	113	3
14	67	2
17	21	2
10	10	4
85	142	2
19	19	2
54	118	3
1	2	3
43	156	1
66	95	2
124	126	2
26	28	2
70	71	1
69	72	2
53	53	1
113	116	1
78	131	2
82	105	1
102	105	4
0	38	1
16	100	4
42	87	2
126	127	1
83	85	2
141	142	1
47	48	4
70	156	1
77	78	2
108	111	1
121	121	3
4	50	1
144	154	2
23	78	1
106	146	1
81	82	3
44	100	2
109	110	2
72	96	1
152	152	2
95	97	1
22	94	1
92	108	3
39	48	1
86	142	1
118	119	1
149	158	1
16	151	2
12	13	3
91	91	1
136	143	3
145	150	1
13	17	2
3	4	1
54	71	3
13	116	1
73	75	1
122	135	1
57	57	1
31	34	1
111	149	1
157	158	1
42	89	2
132	158	2
18	18	1
31	43	3
107	110	1
37	37	1
15	150	1
14	17	1
38	55	1
41	70	1
113	117	1
37	57	2
82	146	2
130	131	3
18	22	1
23	69	1
148	151	1
135	140	1
52	53	1
34	86	2
91	93	1
114	116	1
120	121	1
82	84	1
107	108	2
75	100	1
41	47	2
148	149	1
63	67	1
42	43	1
80	82	1
43	44	1
65	98	1
14	124	1
125	139	1
14	109	2
48	136	2
32	34	1
21	28	1
0	11	1
45	47	1
86	119	1
142	156	1
17	39	1
22	26	1
78	79	1
46	89	1
43	52	1
72	97	1
91	97	1
105	152	1
33	93	1
43	48	1
114	114	1
39	47	1
53	54	1
36	37	1
11	127	1
135	136	1
0	2	1
