65	65	3
46	46	2
46	81	1
132	132	2
110	110	3
137	144	1
28	107	2
91	91	1
125	126	2
56	86	1
114	119	3
30	44	1
130	130	6
107	107	4
98	98	1
112	113	2
62	62	1
131	150	1
65	79	5
108	108	3
46	47	3
56	84	2
81	82	2
97	97	4
123	125	1
88	89	1
153	153	2
104	114	3
113	115	3
96	98	3
84	85	3
128	128	3
6	6	3
51	79	1
17	17	3
138	139	3
3	5	3
75	78	5
33	34	2
105	151	4
73	73	1
6	7	3
67	67	5
61	61	2
7	7	2
118	118	5
25	25	2
131	132	1
76	77	6
118	144	3
143	143	3
39	39	13
3	13	5
110	111	3
104	105	3
16	19	1
109	109	2
50	68	1
34	35	14
141	141	3
103	154	4
94	111	1
68	68	2
66	121	1
127	127	3
125	125	3
150	150	11
41	42	1
124	125	2
87	112	1
4	4	5
115	116	1
121	121	3
67	72	2
82	83	7
35	35	2
16	16	1
39	51	2
115	115	3
99	112	3
104	104	2
154	154	2
76	76	4
109	110	2
117	117	3
46	80	3
39	40	4
38	39	5
8	9	2
10	10	1
9	13	3
68	69	2
11	14	2
46	49	2
119	121	3
126	128	2
95	96	1
24	24	3
92	137	2
93	100	2
82	113	2
14	14	3
124	139	4
135	135	3
30	30	3
153	154	2
100	102	1
139	141	2
105	107	2
100	113	4
52	52	1
151	151	2
47	47	4
85	85	1
71	71	5
96	97	4
83	83	3
35	40	2
42	42	2
40	40	3
119	120	2
139	139	4
32	49	1
39	49	1
27	40	2
42	43	3
131	136	1
121	124	1
50	50	4
144	144	2
120	144	1
125	139	1
117	125	2
44	44	2
13	22	2
54	54	3
43	44	4
101	101	4
87	88	3
147	147	2
43	43	1
108	109	4
133	133	3
68	72	1
11	11	3
81	81	1
97	98	2
119	122	1
99	100	2
40	44	1
37	37	2
145	145	1
50	67	2
89	89	2
106	153	1
114	114	3
49	71	1
118	124	1
94	94	2
29	36	2
91	106	2
29	30	1
18	19	2
47	53	2
11	32	2
102	105	1
92	92	2
74	74	2
112	112	4
44	141	1
54	83	2
103	104	3
132	147	2
97	138	1
64	64	1
45	46	1
104	108	2
103	103	1
105	105	1
75	76	2
36	36	1
21	22	1
122	123	5
85	86	1
44	46	2
111	112	1
56	56	1
122	122	1
45	45	2
69	69	2
148	148	2
129	129	1
47	51	1
130	144	1
18	20	1
39	53	1
84	87	1
32	34	1
115	145	2
53	55	1
38	38	2
42	44	1
134	134	2
113	114	2
146	146	1
92	122	1
79	82	3
34	34	1
48	48	1
106	154	1
22	22	1
28	29	1
142	142	2
152	153	1
68	85	1
135	145	1
55	56	1
77	78	1
34	36	1
68	74	2
123	130	1
74	75	1
111	111	1
108	125	1
49	50	1
40	51	1
15	16	1
107	111	1
42	47	1
92	93	1
10	29	1
144	145	1
