104	104	15
155	155	13
33	33	7
164	164	6
153	154	3
153	156	5
144	144	9
119	119	24
102	102	14
149	149	13
80	80	10
71	71	23
131	132	7
10	10	17
125	125	13
1	2	4
11	11	12
167	168	7
160	161	3
134	135	10
148	164	3
132	133	7
14	14	14
65	66	2
6	63	2
41	45	1
139	139	25
159	160	8
36	36	19
108	108	22
131	131	8
73	84	7
41	41	20
14	15	8
142	143	9
118	118	8
89	106	5
124	125	6
88	133	3
115	115	8
160	160	24
4	4	22
3	3	4
24	24	8
100	100	21
151	151	18
81	133	5
16	70	3
79	79	9
148	148	18
128	129	8
122	122	5
156	156	10
68	68	8
17	17	16
128	128	31
64	64	9
12	25	1
87	121	4
8	51	11
140	140	9
141	141	12
7	51	3
44	44	18
114	114	20
95	136	4
46	46	14
107	107	20
23	23	6
84	124	3
83	125	1
138	138	31
43	43	3
114	152	2
14	44	1
169	169	10
157	157	17
145	145	17
17	18	6
4	35	2
52	52	19
27	27	14
78	85	2
45	45	21
64	71	4
0	0	13
38	38	13
163	165	1
70	70	26
129	129	10
79	85	3
118	134	4
158	158	10
149	150	8
107	108	2
163	163	4
91	91	11
149	163	2
89	89	10
15	41	1
147	147	5
146	166	1
163	164	5
137	137	18
167	167	26
85	85	6
127	127	7
69	113	3
159	159	17
120	121	3
6	7	9
37	37	18
20	21	3
116	116	16
88	88	16
113	113	12
118	119	13
3	4	10
150	151	3
166	167	2
166	166	14
2	2	21
50	54	2
13	26	3
83	83	10
73	73	13
48	49	4
117	134	3
54	55	3
96	96	3
135	135	19
54	56	4
86	86	11
95	95	4
55	55	11
124	124	9
39	64	4
67	67	7
36	37	11
121	124	2
146	146	3
3	156	1
45	58	1
168	168	13
51	74	2
13	16	4
74	105	5
82	82	9
2	45	4
137	138	8
25	107	3
90	99	3
123	123	3
135	136	3
132	132	10
1	1	17
101	101	18
91	93	2
67	70	6
75	75	11
65	111	3
8	50	1
52	57	2
49	49	12
53	53	11
136	136	13
47	49	1
19	19	5
167	169	6
51	51	10
14	25	1
148	150	1
110	110	16
18	22	4
9	9	13
101	102	3
33	37	1
92	92	6
86	88	2
15	15	16
146	165	3
129	130	4
87	87	32
74	75	2
90	90	15
22	23	7
11	92	3
35	35	24
6	75	2
8	75	2
117	117	9
150	150	8
162	162	9
39	39	9
5	17	4
160	162	2
151	152	5
21	21	8
76	76	8
56	56	6
154	155	5
66	68	4
84	84	16
81	81	8
42	43	1
54	54	5
112	112	16
77	85	3
38	39	4
7	46	2
97	97	16
74	74	5
100	103	2
14	66	5
73	105	4
67	71	5
46	49	5
161	162	4
6	58	1
119	120	4
10	12	3
130	130	15
116	117	4
97	114	7
100	101	3
34	105	1
17	25	2
96	97	8
99	99	15
103	104	3
105	105	9
62	63	4
36	88	4
87	101	2
28	28	5
22	22	9
14	57	3
75	76	9
74	76	4
143	144	2
34	36	3
109	109	7
94	94	9
106	106	10
0	1	4
111	117	4
91	97	2
16	107	3
17	22	3
98	98	5
139	140	6
133	133	22
120	120	6
145	162	1
0	154	4
10	57	2
152	152	4
139	144	1
15	38	1
72	72	11
110	117	4
154	154	18
19	46	2
25	47	8
124	126	11
23	24	4
77	78	5
20	38	3
40	40	5
20	20	8
142	142	6
121	126	1
34	34	7
63	63	4
66	66	5
89	90	5
145	152	2
24	41	2
85	86	1
47	47	5
124	147	3
0	167	2
87	134	6
90	91	1
88	89	8
19	24	2
126	126	15
65	71	2
161	165	1
52	56	4
21	22	19
165	166	2
34	90	1
77	79	5
97	140	6
68	115	3
2	44	6
6	62	4
145	146	3
135	160	1
116	136	3
69	69	11
84	85	1
13	14	2
33	34	9
2	157	5
50	51	3
12	12	12
165	165	4
38	126	1
9	51	1
163	166	1
92	93	4
18	40	2
16	41	1
36	38	3
71	92	2
111	114	2
109	137	4
114	115	7
91	92	5
123	125	2
109	119	3
144	145	4
62	62	2
90	106	4
74	86	5
162	165	1
143	143	10
150	159	4
24	25	3
38	120	2
48	57	3
38	107	2
18	18	8
87	93	3
56	57	4
74	85	4
84	150	1
111	155	2
138	161	2
87	89	3
58	58	3
153	153	7
66	73	1
41	42	2
100	105	1
148	149	6
72	105	3
103	103	5
169	170	3
16	17	1
4	13	1
162	163	4
78	78	5
80	81	2
24	62	2
43	44	3
10	11	6
49	54	2
127	128	1
13	56	3
20	24	4
57	58	3
9	10	3
87	109	3
6	45	2
126	127	2
55	56	3
111	111	4
114	143	2
119	155	1
26	26	11
39	40	3
1	38	2
57	57	3
97	98	1
88	108	1
15	16	6
8	8	3
130	131	2
6	6	5
158	160	3
72	87	5
5	5	5
141	144	1
128	131	2
3	157	5
36	105	1
93	93	5
73	93	1
52	55	3
38	109	1
19	40	2
80	151	2
38	119	3
73	86	1
110	119	3
87	119	1
58	62	1
36	41	1
149	157	1
40	41	1
64	66	3
102	104	1
142	144	1
134	134	4
158	159	1
65	65	4
152	166	1
112	114	1
161	161	5
10	55	2
4	5	4
45	92	1
138	139	1
88	109	7
35	53	2
25	106	1
38	108	1
140	141	1
7	7	2
25	25	7
27	56	1
75	86	2
130	145	3
13	47	4
146	163	2
80	82	1
151	160	1
56	71	2
2	79	1
17	57	1
52	105	1
27	28	3
170	170	3
105	123	1
18	24	2
72	95	1
112	153	1
38	41	3
27	44	1
19	62	1
151	166	1
57	62	1
147	148	2
35	106	1
52	102	1
113	114	2
5	6	3
97	142	1
99	100	4
64	90	1
14	27	2
38	88	1
168	170	1
41	108	1
16	16	3
64	65	1
80	152	1
115	116	2
3	77	1
112	120	1
45	47	1
83	84	2
76	79	1
13	13	5
46	58	2
95	97	1
117	135	1
146	162	1
98	99	1
98	142	1
3	6	2
148	160	1
78	79	2
53	54	1
120	128	2
20	37	2
5	10	1
90	100	1
20	23	1
42	107	1
83	124	1
99	105	1
92	104	1
119	126	1
66	114	2
109	110	1
140	144	2
121	121	1
73	74	1
50	50	1
35	36	1
3	44	2
42	42	3
86	122	1
105	106	1
139	141	1
5	18	2
55	90	1
2	156	1
113	145	1
13	57	1
72	118	2
37	138	1
3	45	1
13	45	1
12	48	1
94	95	1
164	165	1
92	103	1
13	105	1
98	136	1
67	68	1
8	10	2
86	87	1
108	109	1
110	137	1
74	77	1
6	68	1
1	152	1
