42	43	1
11	38	3
133	136	3
43	106	1
76	76	6
114	116	2
103	128	1
155	156	1
124	134	1
20	20	8
91	91	10
89	89	7
132	132	5
5	5	5
166	166	4
149	150	2
40	40	5
82	96	3
130	130	14
27	112	4
96	96	1
119	119	7
98	99	3
37	37	5
140	141	4
80	87	1
15	42	1
135	136	8
133	134	2
139	140	6
141	141	9
26	27	4
83	83	3
119	149	1
136	136	8
153	154	7
70	71	3
139	139	3
41	41	3
21	43	2
155	166	1
108	108	6
164	164	3
90	90	5
48	57	3
21	21	5
150	150	5
156	156	4
124	124	5
56	56	8
146	146	5
151	151	4
103	104	2
110	110	13
71	76	2
53	84	2
7	7	14
104	104	3
17	20	1
90	100	2
145	145	3
156	165	1
115	131	3
73	73	5
54	54	16
121	121	5
4	4	3
157	158	1
165	165	4
3	18	2
17	25	2
61	61	1
117	117	4
85	86	1
22	22	2
35	44	1
100	111	2
119	121	1
127	127	7
16	16	3
101	102	11
77	81	2
38	38	3
42	143	2
149	149	4
65	65	8
101	101	4
94	95	2
121	122	1
113	113	8
71	71	8
131	131	7
130	148	1
142	142	7
102	112	1
87	87	6
4	5	1
102	103	4
27	27	6
64	64	4
57	89	3
10	10	2
93	114	1
82	82	4
88	88	1
133	135	3
37	40	1
111	112	3
24	41	3
75	84	1
147	148	3
90	102	2
134	134	3
100	100	5
137	138	2
104	116	1
13	14	2
139	141	4
0	0	1
132	144	1
150	165	2
67	69	1
138	152	1
72	72	4
137	137	9
53	53	3
21	22	1
93	93	4
131	132	3
9	21	2
153	166	2
102	113	1
25	25	4
17	42	3
167	168	9
97	97	1
5	27	2
117	137	3
78	78	2
6	14	2
125	126	4
74	87	2
106	108	4
154	154	7
104	115	1
55	55	7
66	66	2
134	148	1
128	146	5
25	37	4
67	73	4
24	38	1
1	3	2
144	144	2
26	26	6
57	57	1
153	155	2
70	72	5
111	111	4
116	116	2
35	35	1
24	65	4
3	3	1
24	37	2
44	44	6
115	115	2
49	57	1
53	55	1
161	170	4
44	45	1
67	68	4
56	57	7
144	168	4
156	157	2
8	13	1
100	102	2
162	163	1
58	63	2
2	9	2
122	127	3
98	101	1
132	140	1
63	63	3
75	76	1
69	69	4
13	13	3
125	125	2
17	17	6
76	84	1
76	86	2
10	25	4
0	7	1
122	129	2
45	65	2
0	1	4
117	147	1
129	129	1
74	74	2
143	143	5
62	82	3
20	21	1
150	151	3
20	39	3
11	15	1
36	36	4
47	49	5
111	127	1
140	145	1
143	144	1
75	85	3
164	165	2
54	55	3
163	163	2
105	105	2
48	48	1
38	44	1
117	123	1
167	169	1
127	130	2
104	105	2
102	102	4
87	90	1
80	80	6
96	164	1
51	52	1
112	112	3
46	66	2
49	49	3
28	52	2
12	14	2
18	18	3
66	67	2
88	97	1
126	143	4
107	107	3
78	79	3
34	34	3
14	14	4
77	77	2
116	120	2
10	26	2
101	107	2
47	47	4
39	39	3
88	89	1
1	1	1
118	118	4
105	106	1
146	147	2
79	79	1
161	161	1
13	15	2
27	28	3
159	159	2
11	11	5
153	153	1
48	56	2
3	12	1
41	106	1
126	127	3
142	144	1
150	163	1
27	69	1
92	93	2
102	104	3
118	151	1
57	88	4
118	125	3
3	5	2
8	8	2
25	26	1
112	113	1
65	70	1
136	141	1
8	15	3
5	96	1
89	100	2
167	167	1
147	149	3
34	58	1
170	170	2
98	98	2
157	157	6
19	19	3
134	135	1
122	122	3
154	166	2
14	17	2
23	26	1
102	107	2
126	126	7
135	135	1
73	74	2
51	71	4
46	50	1
137	139	3
160	162	1
49	50	1
24	24	3
140	140	3
116	117	2
152	154	2
71	73	1
6	6	4
67	67	2
66	69	1
99	105	1
106	123	2
42	107	1
83	84	2
124	139	1
84	88	1
72	91	2
126	163	1
168	168	4
2	2	1
28	35	2
84	84	2
100	101	2
23	24	2
92	94	1
23	23	3
7	10	1
124	142	3
113	126	1
42	42	3
109	110	3
120	120	6
65	66	3
52	53	1
64	75	2
111	114	1
34	35	1
87	88	2
109	109	1
156	170	2
37	39	1
85	89	3
138	139	3
80	81	2
92	92	2
94	117	2
34	48	1
53	54	2
161	162	2
70	132	1
41	66	2
2	6	2
6	17	1
52	52	4
75	88	1
8	9	1
120	121	2
146	157	2
3	6	2
161	166	1
24	25	1
95	96	1
136	137	2
116	128	1
123	124	1
106	113	1
33	33	1
7	15	2
69	87	2
45	45	2
45	58	1
92	114	1
134	144	1
155	155	2
152	167	1
162	165	1
68	68	3
62	63	1
128	129	2
132	143	1
17	24	1
16	160	1
45	57	1
169	169	1
74	98	1
156	169	1
84	85	3
72	90	1
106	157	2
94	94	1
151	152	1
92	96	1
138	141	1
42	130	1
61	62	1
56	67	1
138	138	1
77	87	2
152	168	1
148	148	1
107	108	2
155	161	1
101	104	2
130	131	1
9	13	1
79	98	1
25	38	1
6	7	2
76	77	1
15	15	2
70	75	1
108	109	1
48	49	1
82	83	1
158	158	1
166	170	1
22	24	1
83	96	1
110	126	1
123	125	1
118	120	1
131	158	1
