2	2	8
134	137	2
64	64	6
85	85	7
4	5	2
133	135	3
93	93	14
36	37	3
72	72	6
127	139	1
50	51	3
92	92	7
54	55	2
135	137	2
36	36	6
33	97	2
64	65	6
16	65	5
64	66	5
17	17	5
26	26	15
141	142	4
123	124	5
136	136	4
74	74	12
24	25	4
55	55	3
57	57	9
128	129	3
35	35	4
3	4	4
37	64	4
47	48	3
11	11	2
20	20	9
4	10	6
111	111	11
30	95	3
110	111	2
59	60	5
27	27	9
24	24	18
118	122	2
1	31	1
77	79	5
6	26	5
32	32	3
143	143	6
63	63	6
51	51	6
19	19	4
84	84	4
61	61	6
110	110	11
5	26	4
21	22	2
141	141	9
71	71	6
16	17	3
146	146	6
49	49	2
23	23	3
37	37	21
18	22	4
92	94	8
133	133	8
103	103	8
53	53	8
100	101	7
40	40	16
67	67	14
42	42	13
14	14	2
68	68	3
77	78	7
19	26	2
131	131	10
38	38	13
120	121	2
40	41	12
125	136	2
137	138	1
78	78	3
140	140	16
39	39	10
145	145	6
82	103	5
116	116	6
89	89	8
33	33	10
105	105	3
30	30	12
62	62	9
12	13	6
95	95	5
74	92	4
69	69	5
54	81	3
62	63	3
28	28	12
48	48	6
123	123	5
120	120	8
101	101	8
102	102	11
142	142	5
75	77	1
49	98	1
99	100	4
111	139	4
35	36	6
23	24	2
22	22	9
13	13	4
86	86	6
37	66	1
88	89	9
117	118	3
11	12	3
135	135	3
81	81	4
82	114	1
96	96	4
103	104	4
130	130	3
103	106	1
54	54	2
56	56	13
50	50	1
30	31	2
59	59	5
121	129	3
114	115	4
126	138	1
70	102	3
52	52	2
91	93	4
122	122	9
12	12	2
116	117	5
3	3	3
137	137	5
121	121	1
37	38	5
10	10	5
79	79	6
109	109	3
143	144	3
31	32	2
34	34	4
2	8	3
52	71	2
15	15	7
25	25	7
138	139	5
86	91	1
83	104	1
84	85	6
96	98	5
90	90	5
10	11	2
58	59	4
20	21	3
82	82	1
144	144	5
0	0	4
86	102	1
4	4	3
43	43	7
110	139	1
16	16	5
79	81	2
124	126	2
2	4	5
23	96	2
106	106	2
37	70	3
9	9	5
130	131	1
76	77	2
122	123	2
22	48	2
70	71	3
124	129	3
18	18	5
113	113	2
132	132	1
104	105	5
8	8	2
123	125	2
48	95	1
126	126	1
88	88	2
17	42	5
32	96	3
112	112	2
47	47	4
14	18	4
3	10	3
138	138	7
58	58	4
120	122	3
129	130	5
70	70	4
127	137	1
35	67	1
29	29	2
139	139	1
134	135	5
6	6	10
127	134	2
33	49	2
100	100	2
19	24	3
21	21	6
87	92	1
36	50	2
127	127	2
16	42	2
87	88	6
20	41	6
60	60	3
36	65	2
99	99	6
1	1	3
21	41	1
129	129	3
15	16	2
99	101	1
83	83	3
124	124	4
64	67	1
48	49	2
76	76	2
124	127	1
98	98	2
118	118	2
28	29	1
136	137	1
128	136	2
97	97	4
35	49	3
85	112	2
70	104	1
121	122	3
23	95	1
36	66	2
109	111	2
38	66	1
32	97	2
41	41	3
66	66	3
124	138	1
87	90	1
31	31	1
5	6	3
88	105	1
66	67	2
91	91	6
108	109	1
10	27	3
119	119	1
34	35	4
86	104	1
104	104	1
94	94	3
134	136	4
61	62	3
102	103	3
67	68	1
33	96	2
128	128	1
80	80	1
17	38	1
70	99	2
37	48	1
80	81	2
71	72	1
139	141	3
4	6	1
71	101	2
17	39	3
25	43	1
33	98	2
2	3	1
75	79	2
48	67	4
65	65	3
30	94	1
93	94	7
73	73	1
113	115	1
71	85	2
85	105	1
90	91	2
88	90	1
107	107	1
114	114	1
112	116	1
125	125	1
23	47	2
142	143	1
113	114	2
8	10	4
65	68	1
113	116	1
18	39	2
93	99	1
13	19	1
1	23	2
1	22	1
52	53	1
123	128	2
56	58	1
132	133	2
82	83	1
2	26	1
54	72	1
74	115	2
63	64	1
53	84	1
16	18	1
87	87	1
104	106	2
134	134	1
124	125	1
2	10	1
77	77	2
47	66	1
50	69	1
51	52	1
15	17	1
106	107	1
53	56	1
127	129	1
