198	198	5
53	59	2
71	71	5
104	138	1
106	106	6
173	173	5
30	30	4
44	45	1
232	232	1
169	182	1
58	62	3
136	136	4
104	105	3
225	229	1
40	40	4
194	202	3
105	105	1
63	63	1
179	179	4
24	44	2
133	134	1
230	230	4
147	150	2
139	153	2
43	47	1
139	140	3
26	26	5
162	162	2
193	194	1
72	72	3
101	101	1
19	19	5
37	72	2
83	169	1
64	64	3
185	185	2
226	226	1
3	29	4
132	133	1
113	116	1
167	167	4
11	74	2
158	158	7
85	85	3
208	208	1
97	233	1
193	210	2
227	227	4
27	27	4
35	142	4
80	80	2
15	70	1
88	105	1
98	98	5
76	76	4
212	212	4
182	187	1
10	10	3
118	119	1
205	205	5
166	169	1
214	215	6
224	225	1
52	59	2
224	224	3
193	193	3
60	60	2
4	6	4
7	7	2
20	62	2
13	13	2
39	39	6
180	182	2
37	38	2
57	57	3
167	211	6
134	139	4
178	196	2
144	144	1
10	29	3
43	43	2
23	23	3
133	133	3
65	65	7
216	220	5
53	53	6
134	134	1
28	28	3
83	83	7
1	2	1
48	49	1
127	128	2
164	164	4
166	166	2
20	38	2
107	129	1
81	81	5
194	195	2
77	123	2
3	4	5
11	11	8
170	172	1
62	63	1
15	28	1
81	89	1
187	215	3
100	100	3
62	62	2
6	6	3
205	206	1
227	228	2
142	181	2
61	62	4
104	125	1
155	155	2
45	71	5
61	61	7
47	48	2
195	195	2
159	159	2
56	56	1
65	66	2
88	88	2
75	191	1
145	146	2
233	233	3
161	162	1
102	102	2
0	217	1
170	170	2
68	68	2
190	192	1
76	146	2
88	143	3
194	194	3
33	40	1
137	137	5
49	49	4
177	177	3
62	69	1
137	151	1
213	213	3
182	182	5
122	122	5
156	156	1
228	231	2
112	113	2
170	171	2
207	207	12
20	20	2
123	123	1
122	123	4
33	35	2
82	190	2
242	242	4
53	63	1
114	116	5
58	59	1
108	108	1
223	226	1
35	60	1
204	207	4
135	135	1
138	142	3
39	49	2
211	214	2
48	48	2
79	79	2
55	55	5
66	66	1
75	145	2
73	178	1
191	191	1
214	217	1
218	242	1
38	128	1
91	107	1
209	219	2
237	237	2
221	222	2
1	1	1
86	86	2
232	233	2
149	174	1
216	242	1
223	224	5
119	119	4
117	117	5
138	138	1
22	22	2
166	202	1
211	212	4
106	122	1
9	9	2
14	29	4
187	187	2
126	135	1
160	160	1
199	202	1
65	75	1
5	5	5
64	74	4
0	185	1
41	58	1
38	40	1
201	237	2
144	150	2
199	237	1
188	188	2
111	141	2
203	203	1
204	205	1
34	95	1
175	184	1
12	12	1
113	115	1
16	44	2
38	38	1
231	232	3
117	140	1
69	69	2
25	25	4
156	160	1
162	205	1
120	141	1
125	125	3
168	168	5
129	129	1
234	234	5
34	67	1
88	146	1
9	20	2
103	124	1
139	160	3
193	195	1
15	15	1
96	117	1
74	78	1
62	68	2
44	191	1
125	126	1
154	154	1
120	149	1
156	158	1
0	1	1
122	128	1
213	225	1
228	228	1
209	209	2
37	189	2
210	211	1
200	200	3
123	146	3
42	42	2
74	175	1
14	15	2
66	67	1
184	186	2
182	235	2
181	181	1
117	138	1
172	172	1
212	224	1
143	143	1
50	54	1
86	125	2
221	230	1
215	220	2
40	41	1
222	222	1
213	217	1
109	109	2
82	84	1
206	206	1
221	237	1
84	84	1
20	155	1
209	211	1
34	34	2
183	203	1
129	131	1
174	174	1
50	50	1
81	82	1
10	223	2
75	180	1
175	176	1
175	175	2
184	213	1
210	210	1
115	117	1
186	186	1
208	211	1
59	60	1
69	82	1
12	67	1
189	189	1
180	190	1
97	97	1
58	138	1
164	171	1
54	55	1
169	183	2
163	163	1
235	235	2
169	180	1
225	227	1
35	35	2
16	16	1
32	32	1
142	142	1
2	14	1
211	213	1
189	193	1
191	208	1
154	157	1
161	161	1
4	155	1
6	30	1
138	151	1
73	73	1
99	99	1
3	3	1
55	58	1
220	232	1
67	67	1
47	47	1
128	128	1
60	62	1
141	144	1
3	8	1
