37	39	4
42	42	8
106	106	3
78	85	5
22	27	3
55	57	4
64	77	2
87	102	3
62	62	4
71	71	1
68	79	1
53	53	1
62	64	3
65	65	4
25	32	1
24	24	10
46	57	3
26	26	9
25	26	4
89	89	13
26	37	2
56	56	4
84	84	2
92	92	10
96	96	2
44	46	5
100	103	4
92	93	2
79	85	4
29	38	1
76	76	9
74	78	2
89	101	6
27	33	5
50	51	2
67	94	2
62	73	3
27	28	6
79	89	3
49	51	4
94	94	3
82	97	7
72	72	8
79	79	3
56	65	1
87	87	10
50	50	8
102	106	3
21	21	2
27	27	2
36	44	1
92	106	1
40	56	2
64	73	1
39	39	5
23	24	7
104	105	4
86	86	2
47	47	3
98	99	4
85	85	10
29	55	1
86	89	1
97	98	2
36	36	4
70	71	4
52	67	3
38	39	1
102	102	5
66	94	4
44	44	1
23	29	2
40	58	2
95	95	6
77	77	3
35	35	2
55	55	6
87	89	2
31	32	3
40	55	2
52	55	2
101	101	2
96	98	1
82	106	1
85	86	2
22	23	1
95	100	3
31	31	6
22	22	4
93	94	5
41	41	5
68	86	4
89	94	4
28	33	2
90	90	3
100	105	2
20	21	5
52	60	2
99	99	1
64	64	2
66	66	6
44	59	1
93	96	2
68	68	12
46	46	2
90	102	1
64	65	7
74	74	7
40	40	2
32	36	4
83	106	5
61	62	5
51	55	2
58	59	3
65	66	3
61	71	2
68	72	6
28	28	4
103	103	5
38	38	4
20	26	1
52	72	1
78	81	1
77	79	1
84	86	2
84	85	3
96	97	1
90	107	2
39	40	3
38	41	5
67	75	2
91	92	1
83	84	1
33	33	3
105	105	3
88	88	1
71	81	1
46	53	1
23	23	2
73	78	3
73	74	5
54	54	4
95	96	4
21	31	1
78	79	7
86	87	3
70	70	1
43	43	1
76	77	4
70	73	2
60	67	1
38	40	3
93	106	2
58	58	3
23	26	4
89	103	3
77	95	4
72	73	2
84	88	2
83	103	1
38	53	3
82	83	1
80	81	4
47	77	2
61	70	3
59	69	2
38	65	3
23	25	1
57	67	2
30	30	2
102	105	4
99	100	1
83	83	2
40	59	1
30	33	1
33	34	2
79	92	1
68	84	2
69	82	1
55	56	3
88	97	4
59	60	1
37	37	7
55	92	1
74	79	1
21	23	1
46	49	1
58	61	2
45	45	3
69	70	3
40	45	1
49	58	1
65	68	3
79	82	1
102	104	6
51	53	2
97	97	1
66	68	2
100	102	3
91	91	7
61	61	1
48	49	1
73	73	3
96	102	1
92	98	2
75	75	2
101	105	1
27	39	1
29	30	1
47	57	3
71	84	2
37	46	2
51	68	3
98	98	1
69	69	2
70	90	1
54	78	1
104	106	2
37	38	3
46	60	3
87	101	4
54	59	2
60	69	1
28	29	3
50	54	1
89	95	3
52	63	1
24	25	1
75	77	1
71	79	1
48	48	1
78	95	2
66	74	1
57	57	1
32	38	1
57	58	1
94	103	2
88	89	2
50	53	1
42	43	1
27	34	1
34	36	1
40	53	1
95	97	1
25	30	1
67	67	2
52	77	3
90	104	1
66	90	1
63	66	2
63	64	2
64	91	1
36	51	1
62	75	1
104	104	1
34	34	1
38	55	1
81	81	1
25	25	1
100	101	1
67	81	1
31	45	1
102	103	1
87	106	2
93	100	2
51	52	2
93	93	1
20	23	1
23	34	1
60	73	1
32	39	2
40	41	1
67	78	1
49	53	1
33	35	1
25	40	1
