71	71	11
140	149	2
111	111	8
27	27	11
124	124	2
164	166	1
48	51	2
119	119	17
124	127	4
1	1	7
161	168	5
162	163	2
43	43	4
42	42	11
64	72	4
120	120	11
136	136	11
103	110	4
52	52	11
118	118	10
98	98	7
83	135	4
87	87	9
81	136	4
69	70	3
49	49	7
23	24	8
104	118	3
69	69	5
127	146	4
147	147	10
115	146	4
121	122	5
126	126	9
39	39	6
103	103	3
23	23	16
111	112	4
144	144	4
160	161	1
77	77	5
104	116	1
127	127	1
151	151	6
102	102	2
70	70	11
168	168	13
79	80	4
134	137	3
4	4	13
7	8	7
57	57	2
21	21	10
12	12	9
157	158	1
5	20	4
137	137	6
62	68	4
13	13	5
164	164	11
45	45	7
127	145	1
84	87	5
9	9	12
100	109	6
97	97	13
138	139	5
169	170	6
22	22	12
74	76	3
55	55	10
90	90	16
90	93	1
16	16	8
39	54	1
69	135	9
47	49	1
141	141	5
86	87	3
0	4	2
34	37	4
85	87	4
40	51	4
88	88	1
154	158	3
159	159	11
46	47	4
115	115	8
125	131	4
105	105	8
150	150	5
5	24	4
128	128	17
33	33	3
73	143	1
156	157	4
20	24	3
112	112	9
43	44	5
153	166	6
8	8	3
81	134	4
47	47	8
0	1	8
56	56	6
48	48	3
112	113	1
63	73	1
103	111	3
3	5	6
6	6	2
86	90	2
78	81	2
100	100	6
99	121	3
115	116	3
104	115	4
62	78	3
109	113	4
125	130	1
125	150	1
126	127	6
155	157	2
25	25	14
134	134	12
67	67	1
95	96	3
117	117	3
143	143	9
111	113	7
10	19	1
147	169	2
16	19	1
40	40	8
130	130	6
2	64	2
133	133	6
151	155	2
118	149	3
10	10	8
88	89	6
79	85	2
66	66	6
125	136	2
124	125	5
47	48	5
132	132	5
116	120	1
72	72	3
105	115	3
7	7	5
20	20	5
104	104	3
122	122	2
96	96	4
121	121	3
36	53	2
154	154	9
127	156	5
108	108	3
166	166	9
130	131	3
69	121	3
81	81	5
157	161	3
162	162	5
82	82	5
34	34	3
125	125	5
90	92	1
77	78	3
41	41	10
2	2	10
106	106	3
107	108	5
8	9	2
129	144	4
20	114	1
163	163	2
22	23	2
16	18	4
92	92	7
71	83	2
140	140	5
131	133	1
116	116	1
135	142	2
84	90	1
114	114	5
69	72	5
5	5	5
44	46	4
146	146	5
150	156	4
36	36	5
19	23	3
76	77	2
5	9	1
85	85	5
119	122	4
145	145	4
50	50	4
165	165	6
135	135	1
6	15	2
158	158	8
78	78	3
62	62	2
98	170	4
13	15	2
134	136	2
0	13	2
4	7	2
99	103	2
34	39	3
117	136	3
46	46	3
25	111	8
119	125	2
8	25	1
103	115	3
77	80	4
90	157	2
133	135	1
17	17	5
100	108	1
86	86	6
99	144	2
131	134	1
37	44	2
10	16	1
160	170	4
93	109	1
14	15	4
18	22	2
1	57	6
80	133	4
103	104	3
120	125	2
167	167	4
56	159	2
160	160	5
136	138	1
18	18	4
53	55	2
63	63	8
5	15	2
64	87	3
102	103	2
100	107	1
138	138	8
156	156	5
19	22	1
19	19	6
37	39	2
97	107	3
163	165	2
157	157	4
24	24	4
64	82	1
131	131	4
38	38	4
101	103	2
147	154	1
3	3	2
62	85	1
94	111	1
100	101	2
73	77	2
121	123	4
154	169	2
81	91	1
58	97	4
147	148	2
11	11	2
45	53	1
108	109	6
24	95	1
20	21	4
84	100	1
25	113	3
83	83	2
44	48	2
11	27	3
149	150	2
6	40	2
35	36	1
129	129	4
116	122	2
142	142	4
93	137	3
0	67	2
20	22	1
149	149	2
54	57	2
128	144	3
89	89	1
95	95	2
5	6	1
26	27	1
153	165	1
28	110	2
38	39	2
79	79	6
65	67	1
34	112	1
139	139	2
19	24	2
139	140	4
46	53	3
124	126	2
164	165	3
104	110	1
35	35	6
64	64	1
102	120	1
36	52	1
3	13	2
158	159	1
64	69	2
130	132	2
62	82	7
169	169	4
83	86	1
64	65	1
102	109	2
113	114	1
118	144	3
154	155	1
167	168	1
148	148	4
94	95	1
15	15	6
83	84	1
28	28	1
100	103	3
101	101	2
93	93	4
5	7	3
103	113	2
161	164	2
107	109	1
138	142	1
123	126	1
166	170	1
128	155	1
66	67	2
66	117	1
44	44	2
109	117	2
104	119	1
104	106	1
121	145	2
58	58	2
94	163	1
111	114	2
96	115	1
89	93	1
117	120	2
77	138	1
53	54	2
81	132	2
100	113	1
105	110	1
55	57	1
80	88	2
119	128	1
92	96	2
151	152	4
162	164	2
6	7	1
76	76	3
123	147	1
97	109	2
77	92	2
153	153	2
54	55	3
69	129	2
7	13	1
45	46	2
24	25	1
26	26	4
14	14	3
9	17	1
110	110	1
0	0	1
80	82	2
4	5	1
112	114	3
94	166	1
91	91	2
37	37	2
96	105	1
98	144	1
155	168	1
51	52	1
96	107	1
123	124	1
126	146	2
54	54	1
12	13	1
65	65	2
152	152	1
71	86	1
49	57	1
94	99	2
122	127	2
109	109	1
90	94	1
101	102	1
76	139	1
86	92	1
113	113	1
67	112	1
154	167	1
75	75	2
103	116	1
74	89	2
33	39	1
73	73	1
3	22	1
170	170	2
73	135	1
73	75	1
51	97	1
68	68	1
123	123	1
62	76	1
163	164	1
10	23	2
34	111	1
144	149	1
155	155	1
79	81	2
104	114	1
100	116	1
18	23	1
