134	134	6
102	102	8
101	101	4
55	55	22
0	1	2
66	66	9
38	39	4
128	128	5
110	110	9
108	110	7
129	129	4
127	132	2
17	118	4
69	126	1
46	46	2
3	6	1
90	90	5
65	65	9
117	124	1
68	68	10
72	73	1
91	115	6
15	15	7
18	40	4
12	12	3
14	14	21
45	119	3
70	122	3
103	108	2
77	77	7
82	124	2
85	85	11
99	99	12
20	20	14
44	46	2
50	109	3
32	34	6
84	101	2
34	46	1
81	81	15
72	72	15
118	118	13
95	95	9
27	27	5
11	13	4
78	78	12
108	108	5
115	115	5
8	9	2
75	75	12
117	118	3
15	16	2
103	103	2
34	34	11
94	94	5
97	98	4
15	107	1
119	120	2
131	131	3
108	109	4
16	18	1
34	48	2
4	4	7
126	127	1
7	7	8
18	18	7
17	17	16
48	108	3
62	62	10
11	11	7
45	45	6
114	114	15
33	34	7
130	130	5
25	43	1
0	118	3
60	60	5
128	129	4
33	33	9
103	106	4
24	24	6
123	123	9
47	47	4
131	132	1
29	30	5
78	120	3
111	111	5
120	120	9
119	119	6
66	67	7
61	62	1
50	50	2
132	133	4
44	95	2
95	99	7
11	12	8
75	124	2
38	38	5
121	126	2
91	92	3
105	105	3
31	43	2
86	105	1
96	98	5
113	113	7
73	73	2
95	115	1
104	105	2
44	44	7
59	106	3
82	82	12
122	122	6
64	64	8
16	107	4
37	37	5
120	121	1
70	120	1
116	119	3
91	93	2
132	132	8
35	49	1
58	106	4
94	97	5
110	111	3
87	87	5
3	3	5
26	27	2
70	123	4
8	8	5
68	69	1
23	23	4
79	80	5
98	98	5
41	41	3
71	71	5
49	109	1
117	117	11
6	7	3
59	59	18
57	97	3
13	13	7
101	102	4
26	26	4
70	83	3
9	9	8
42	42	2
35	36	3
83	124	3
126	126	8
56	56	7
92	92	5
83	89	2
109	109	4
60	66	3
69	69	4
23	25	2
112	112	2
67	67	4
116	117	3
121	132	2
0	0	2
17	38	1
15	83	2
13	41	1
42	43	3
79	113	2
97	97	7
124	124	3
78	96	2
95	96	4
91	98	4
13	14	3
64	75	1
43	43	7
19	19	6
100	100	7
21	22	5
96	125	3
60	65	2
28	110	1
36	36	5
82	85	2
93	93	8
63	64	1
25	49	2
16	39	3
96	96	5
104	104	5
27	31	8
81	93	1
126	133	1
125	125	11
77	78	3
2	3	3
133	134	2
86	87	1
113	115	1
33	36	1
6	6	7
31	32	1
25	25	3
32	38	1
121	121	5
40	41	2
27	30	1
31	31	2
48	102	3
71	72	2
58	58	1
46	47	3
44	115	1
91	91	2
79	95	2
2	7	1
9	28	5
121	122	3
57	57	9
28	28	3
78	95	1
37	58	2
3	10	2
90	123	3
89	108	1
2	2	3
21	23	2
16	16	6
56	57	5
25	37	1
7	18	1
21	21	2
106	134	2
121	123	2
124	125	2
94	95	2
82	87	1
118	119	6
41	43	2
99	100	1
2	86	3
38	56	1
35	35	1
25	26	2
82	89	2
79	79	1
61	67	2
74	74	5
18	90	1
23	43	3
60	61	1
63	63	2
83	85	2
76	76	2
10	11	1
43	44	1
93	101	2
128	134	1
107	107	4
11	14	3
84	84	3
16	82	3
45	78	3
40	40	3
100	110	3
46	120	3
81	82	3
1	1	4
80	134	1
30	30	3
96	99	1
111	112	1
79	115	1
125	126	1
87	88	2
95	98	1
78	82	1
78	80	2
122	123	3
19	38	2
32	32	1
76	125	1
55	101	2
92	93	1
80	80	1
61	64	1
105	106	1
103	104	2
94	102	2
0	2	1
22	22	1
1	2	1
27	28	1
62	64	2
68	86	1
48	50	3
61	61	3
114	116	2
59	67	1
94	98	2
55	56	1
75	107	2
19	36	1
84	85	1
80	82	2
7	17	1
32	33	1
102	113	1
98	121	1
11	15	1
62	84	2
83	83	1
45	120	1
33	43	1
6	10	1
93	94	1
80	94	1
116	116	2
10	10	1
81	91	1
23	24	1
14	27	1
24	25	1
13	15	1
50	55	1
76	103	1
78	113	1
4	43	1
78	112	1
88	88	1
48	48	1
1	118	1
49	49	1
