49	52	4
10	10	2
67	73	2
17	41	3
26	26	12
23	42	2
141	141	6
129	129	3
96	96	7
25	25	4
61	61	9
94	94	6
67	67	1
51	81	1
132	132	2
66	74	4
28	28	1
101	103	4
111	111	5
137	138	3
117	117	6
18	18	6
39	39	4
24	25	3
121	121	8
99	110	1
3	43	4
92	93	7
17	22	3
97	98	3
76	79	1
84	91	2
115	115	2
63	63	5
102	107	3
101	102	4
2	3	2
42	42	10
119	121	4
89	90	2
102	102	1
27	28	2
37	37	6
104	104	1
140	141	2
101	101	2
50	52	3
36	36	6
92	92	10
16	16	4
106	106	2
88	88	4
105	105	7
109	109	2
26	67	6
64	64	6
31	73	2
38	41	1
110	110	7
94	99	4
115	119	2
48	48	7
32	32	2
133	133	6
55	55	8
85	85	4
104	105	1
57	58	4
49	51	3
95	120	2
114	115	2
23	23	6
112	112	5
62	62	3
58	58	6
20	20	8
21	21	5
143	143	5
29	29	6
24	24	3
39	40	6
53	53	8
66	66	4
74	75	2
81	91	3
2	48	2
30	30	8
54	75	1
140	140	3
8	8	2
114	124	4
131	131	1
41	74	2
127	127	2
14	15	4
27	27	2
60	60	2
49	81	3
113	113	3
11	56	1
3	3	5
59	79	2
9	95	2
82	82	1
6	9	1
41	41	2
40	40	1
72	75	2
89	91	1
28	74	1
30	53	2
86	86	3
136	137	1
87	90	1
23	24	1
121	125	5
114	114	4
17	17	2
93	94	1
99	104	4
69	70	3
119	119	5
48	57	1
74	74	4
97	97	4
76	78	2
15	15	3
79	80	5
1	1	3
2	2	4
2	81	1
29	144	1
128	128	3
125	126	2
38	38	4
57	57	2
116	120	1
84	84	1
144	145	1
98	98	3
11	71	2
121	126	2
80	80	2
118	119	4
42	43	1
96	118	2
0	0	1
100	100	2
136	136	4
18	19	1
98	112	3
70	70	2
55	76	2
72	72	1
41	42	3
5	5	1
134	134	4
75	76	3
135	135	7
59	59	4
29	30	3
79	79	2
8	93	2
134	140	2
102	103	2
139	140	1
90	90	1
123	125	1
93	93	2
145	145	1
35	36	1
129	134	1
146	146	2
102	108	2
95	95	2
125	125	1
89	89	2
100	104	1
50	50	1
41	75	1
81	81	1
11	73	1
19	21	1
6	11	1
91	91	4
10	25	1
50	123	1
31	66	2
107	109	2
11	11	3
81	82	1
11	72	1
113	114	1
75	75	1
116	119	1
95	113	1
92	94	1
133	134	1
49	49	2
4	5	1
30	54	1
32	43	2
91	92	1
122	122	2
76	76	1
93	122	1
22	22	1
139	139	1
4	4	1
103	109	1
127	128	2
21	22	2
66	131	1
59	74	1
56	80	1
123	123	1
17	18	1
33	33	1
87	87	1
51	52	1
95	96	1
96	98	1
