168	169	3
21	21	3
87	87	2
163	163	4
100	100	5
57	114	1
102	129	2
157	157	7
116	116	5
102	104	1
173	173	8
141	141	10
127	129	3
90	91	6
128	129	1
20	21	3
154	154	4
53	175	2
43	43	5
165	165	12
62	62	6
73	74	3
131	159	1
24	25	3
61	62	4
137	142	3
43	44	4
125	162	4
57	57	14
133	134	3
167	167	6
1	1	8
179	179	9
98	98	6
78	78	13
45	45	4
53	178	3
89	90	1
128	128	7
84	84	2
168	168	8
63	135	5
74	74	6
27	29	5
60	142	6
145	146	1
169	169	3
130	130	14
16	64	2
50	54	4
74	75	10
15	43	2
92	129	1
55	55	12
14	15	6
131	131	4
154	157	2
126	126	12
138	139	5
38	38	10
82	160	2
151	151	19
30	72	3
150	151	1
103	109	2
150	150	11
72	77	6
125	150	1
108	108	4
136	137	1
10	10	12
129	129	13
7	20	2
61	139	4
56	57	3
153	155	2
149	149	12
76	157	1
170	170	5
130	131	2
30	44	2
163	164	6
80	119	2
106	106	2
56	59	3
108	109	4
150	175	3
15	15	6
17	17	5
153	153	8
60	80	3
8	43	4
2	110	1
145	145	8
28	28	1
171	171	11
25	30	4
27	27	3
53	53	4
131	173	2
26	26	10
123	125	3
107	108	7
107	107	7
58	61	3
151	152	4
6	6	3
115	115	3
176	176	19
158	171	5
60	159	4
114	115	4
65	139	1
29	29	9
64	64	11
7	14	1
80	80	10
144	144	2
61	61	19
148	148	2
106	119	2
32	32	7
180	180	10
155	155	7
34	37	1
29	31	3
41	43	6
72	72	7
52	53	4
24	39	3
11	13	3
143	143	6
15	112	2
5	12	3
95	95	11
156	156	11
30	30	5
101	102	3
41	41	2
60	138	4
171	172	7
37	37	6
137	137	6
67	107	3
88	88	3
50	50	7
9	39	1
163	166	2
101	143	3
12	12	1
23	23	6
167	169	1
160	160	5
36	36	4
31	32	2
73	73	9
93	93	1
1	2	2
109	109	9
138	138	2
142	143	3
76	76	10
3	4	1
24	24	2
68	128	1
136	179	3
3	72	2
135	135	1
144	145	6
103	103	3
13	13	8
172	172	2
80	113	2
132	132	1
60	60	2
162	162	4
59	59	3
156	157	4
94	94	6
60	141	2
114	114	5
79	81	1
98	126	5
5	6	3
103	130	4
106	158	1
67	92	2
2	11	3
121	122	2
113	114	11
131	153	2
159	159	4
11	17	3
79	80	1
112	112	2
3	3	13
98	99	2
153	159	4
5	5	3
95	162	1
14	14	8
37	176	2
38	66	1
84	112	1
123	124	5
155	159	1
31	31	12
86	86	3
141	158	2
164	164	6
56	56	4
142	142	8
76	77	2
35	35	2
134	140	2
7	7	7
140	140	2
90	132	3
62	63	3
42	42	6
63	63	3
91	97	1
68	68	3
139	139	5
65	67	2
91	93	1
15	23	3
123	123	3
4	4	7
95	96	1
88	89	6
126	132	2
178	178	11
75	104	1
152	153	2
65	66	4
79	79	2
132	155	1
68	70	1
37	38	6
19	19	5
25	25	3
105	105	8
92	92	3
177	177	1
24	31	1
62	126	1
119	119	3
10	16	3
111	111	3
66	66	7
127	139	2
16	16	4
54	115	2
65	65	4
58	58	2
136	136	5
152	152	1
158	159	3
12	13	4
97	97	2
164	165	2
120	120	3
96	98	4
158	158	7
133	137	1
125	126	4
105	106	1
166	166	1
175	176	5
149	150	1
86	87	6
52	52	3
50	85	2
161	161	5
156	162	1
91	91	7
7	45	3
10	11	2
118	119	4
102	102	3
133	140	1
84	142	2
118	118	1
9	10	6
2	3	2
20	102	4
56	95	3
41	42	2
115	119	2
81	82	4
148	151	1
6	35	2
18	21	2
96	96	2
113	113	1
86	90	2
129	130	4
40	51	4
75	75	5
150	154	2
75	139	2
18	18	4
97	98	1
110	110	3
44	44	3
89	89	3
23	25	3
4	25	3
174	174	5
97	153	2
117	117	3
143	144	1
99	99	5
84	155	3
83	142	2
133	133	2
60	61	1
159	160	5
112	154	2
175	177	2
165	166	1
65	110	2
14	90	2
67	68	4
16	17	4
82	82	4
72	119	3
36	37	1
70	71	1
6	38	1
63	162	3
42	53	2
159	171	2
158	175	3
90	128	3
58	63	4
178	180	1
9	9	2
66	67	1
131	132	1
126	128	1
105	110	1
134	134	3
90	90	8
11	11	3
71	71	1
96	162	1
4	18	1
122	122	4
134	146	1
104	104	1
33	39	1
154	155	3
143	170	1
121	121	2
135	139	1
128	141	1
99	100	1
52	139	5
10	13	2
7	9	2
0	93	2
122	130	1
51	84	2
25	37	1
36	175	1
161	162	1
38	103	1
4	23	3
15	44	4
67	120	1
125	125	4
78	79	1
89	162	2
109	112	1
148	153	1
81	81	3
77	107	1
122	123	2
77	82	2
75	76	1
22	22	2
33	33	4
105	124	2
111	112	1
66	177	1
147	147	2
175	175	1
71	72	1
146	146	2
120	132	3
51	51	1
86	102	2
130	174	1
179	180	1
40	177	1
173	174	1
54	54	3
62	71	1
56	62	1
39	71	1
22	23	1
1	122	1
34	36	1
25	26	2
92	94	2
34	34	3
82	89	1
56	87	1
8	13	1
39	100	2
16	18	1
148	170	2
57	134	3
157	168	1
158	172	1
114	136	2
163	168	2
130	154	2
137	138	1
135	136	1
59	105	1
11	12	2
170	171	1
162	163	2
73	75	1
57	58	1
101	101	2
150	173	1
157	167	1
94	96	1
141	142	1
156	167	1
58	59	1
147	169	1
85	85	1
72	81	1
3	5	1
72	73	2
147	148	1
133	158	1
121	163	1
26	27	2
93	94	1
54	114	2
14	65	2
21	23	1
82	141	1
54	83	1
140	141	1
92	126	1
8	8	1
39	39	1
90	93	1
