46	46	3
85	91	2
67	77	4
75	98	2
55	61	1
76	84	4
66	71	3
103	103	5
54	54	6
71	71	6
104	104	6
111	111	7
44	60	2
67	79	1
74	74	2
68	78	1
43	43	3
71	103	2
73	76	4
102	102	3
84	112	3
53	70	1
58	58	2
41	53	2
97	112	4
47	48	1
77	77	3
68	68	6
55	69	2
37	38	2
70	88	2
77	107	1
99	106	5
21	27	2
45	49	2
30	30	5
73	73	1
104	108	5
72	74	4
66	69	3
82	96	2
28	30	2
69	86	2
74	94	3
96	98	2
39	79	2
32	32	3
20	20	2
47	47	6
100	100	9
105	110	3
66	84	2
89	90	1
66	110	1
105	105	2
26	26	1
106	106	3
87	87	8
79	82	1
77	90	2
23	27	4
81	102	1
95	103	2
59	82	1
96	101	4
50	50	4
22	27	2
93	111	3
61	61	2
55	65	2
62	63	2
64	64	9
31	44	2
58	64	4
67	67	1
60	60	3
36	36	5
91	91	1
72	84	2
40	44	5
88	103	1
99	99	2
65	78	1
78	98	1
40	41	2
62	62	2
56	56	3
22	24	3
38	57	2
106	111	2
69	84	2
22	22	4
85	85	1
85	86	2
85	87	2
26	27	2
92	108	5
31	36	1
25	25	2
100	105	2
73	95	1
21	25	2
61	63	2
109	112	2
59	74	3
27	27	8
36	49	2
76	109	2
83	99	2
91	94	2
44	44	6
70	76	1
41	41	4
93	93	1
24	24	2
110	110	4
84	87	2
95	95	2
73	90	3
108	108	7
50	65	2
40	40	3
29	30	2
86	86	4
56	66	2
55	55	1
71	89	1
88	88	1
91	99	1
47	56	2
64	76	2
42	45	1
83	84	1
62	65	2
83	89	1
90	90	4
112	112	2
25	27	3
66	70	1
66	102	2
101	105	1
109	109	3
24	42	1
84	84	1
95	96	5
52	52	2
29	29	2
68	82	2
83	83	3
93	94	2
88	102	2
71	78	1
44	57	1
82	82	2
30	51	1
62	88	1
76	76	6
44	61	3
76	90	2
101	104	1
94	98	1
33	34	1
38	44	2
74	76	1
64	113	1
101	101	2
55	72	2
29	41	1
88	101	1
36	58	2
55	66	1
48	48	2
98	105	1
34	34	1
70	83	1
99	110	2
99	108	1
73	104	2
92	92	1
110	111	1
110	112	1
68	89	1
97	98	1
96	96	2
98	98	1
63	78	3
86	101	1
72	72	2
109	113	1
109	110	2
54	67	1
107	107	1
39	57	2
75	95	2
63	88	1
103	107	1
61	65	1
44	54	2
30	38	1
39	58	2
88	107	2
100	101	1
33	33	1
63	63	3
101	108	3
85	102	1
42	43	1
108	109	2
94	97	2
25	53	1
87	89	1
66	72	1
42	42	1
58	73	1
49	52	1
65	65	1
69	69	2
66	75	1
53	54	1
71	104	1
60	63	1
21	21	1
37	67	1
73	94	1
28	28	2
71	86	1
85	113	1
88	104	1
23	32	1
43	61	1
52	59	2
44	48	1
79	79	1
58	59	1
41	44	1
80	80	1
20	21	1
97	109	1
27	28	1
19	34	1
