3	10	2
161	161	9
30	30	11
125	137	2
122	169	1
149	150	2
64	68	1
119	169	3
197	197	3
159	165	3
88	88	2
225	226	4
2	237	6
127	127	4
71	72	2
100	102	9
8	238	4
85	85	3
27	27	4
184	184	1
74	74	3
123	123	1
6	12	3
170	170	3
219	219	6
101	111	1
178	179	3
64	65	3
119	127	2
50	50	3
204	205	4
55	75	3
32	32	10
131	131	2
38	38	5
142	143	1
140	140	2
86	86	5
137	137	5
73	148	1
205	205	2
196	196	7
141	142	3
141	149	6
119	119	5
160	181	3
82	82	2
227	227	3
209	209	9
51	52	4
169	169	7
52	83	2
67	67	6
183	183	9
92	146	1
157	157	3
97	97	1
222	223	1
150	151	1
232	233	3
19	24	1
116	169	1
152	152	6
197	198	2
38	39	5
139	139	9
174	177	1
155	155	5
128	128	2
160	160	3
234	235	2
59	64	4
39	39	1
47	176	3
102	102	3
226	226	5
13	20	1
126	137	2
170	177	3
64	64	8
114	115	3
49	49	3
145	147	2
221	222	4
77	81	1
152	153	4
121	121	6
138	138	7
135	159	1
48	48	2
144	144	1
184	226	2
215	215	4
9	29	4
103	103	6
26	26	6
148	148	6
228	228	1
182	202	4
65	65	5
232	232	6
1	3	3
76	77	1
46	47	1
25	25	3
234	234	7
49	50	2
101	101	2
185	185	2
49	196	1
242	242	8
33	33	3
111	111	10
51	51	4
180	180	1
97	98	2
182	182	12
36	36	6
31	32	4
159	159	7
4	5	1
175	175	3
78	78	1
122	126	4
54	54	2
206	206	3
199	216	5
50	54	2
80	80	1
45	45	2
28	28	2
9	9	2
78	79	2
156	158	4
122	122	6
28	30	1
16	16	3
74	99	1
174	174	4
225	227	2
189	189	2
188	190	2
136	136	4
66	67	2
23	23	9
114	114	3
63	63	2
131	132	2
73	73	4
40	40	3
12	12	5
96	101	1
29	29	1
175	178	2
74	98	2
138	139	2
13	202	2
4	17	1
120	125	3
75	75	3
238	238	1
143	143	3
139	151	5
23	32	1
33	34	1
131	161	3
69	70	3
198	198	1
150	150	5
108	108	1
223	224	1
62	62	4
7	7	2
196	211	1
5	5	2
115	116	4
158	158	1
173	173	4
180	207	2
220	220	4
31	31	6
133	133	1
217	217	6
167	193	2
4	7	1
80	82	3
195	195	1
238	240	1
202	202	6
107	109	2
64	67	2
136	137	2
211	212	2
220	228	1
134	134	4
184	215	4
48	176	2
213	213	3
162	163	1
20	20	6
34	35	2
211	213	1
162	162	2
129	130	2
37	62	2
19	20	3
180	181	4
10	10	5
98	150	1
192	196	2
135	157	1
199	199	1
82	83	3
238	239	3
216	231	1
19	51	2
99	100	1
42	42	4
47	47	3
179	179	1
24	30	2
63	65	6
15	15	7
55	76	1
24	24	2
84	85	3
231	233	4
11	11	2
27	28	1
14	14	4
60	60	1
213	229	1
22	23	2
224	227	3
51	55	3
168	168	3
240	241	2
91	91	2
196	197	1
3	11	1
17	17	3
147	147	6
216	216	1
149	149	3
24	32	2
37	37	4
192	209	1
230	231	2
65	66	2
85	96	2
99	102	1
120	208	1
178	178	2
98	98	3
9	11	2
155	156	1
51	53	2
218	219	1
130	131	1
207	207	5
120	120	4
11	18	3
187	187	3
86	112	4
195	196	1
20	54	2
219	220	1
210	211	2
195	211	2
191	201	3
110	110	3
145	146	1
236	236	2
116	117	1
231	234	1
76	76	1
55	55	1
44	44	5
143	149	4
171	171	2
121	136	1
23	35	1
28	29	1
137	158	1
230	230	4
165	190	1
202	203	2
105	113	1
239	239	1
142	142	4
7	239	1
53	54	1
126	126	2
13	14	1
116	166	1
115	115	2
98	99	1
187	234	3
18	18	1
214	234	2
134	159	2
214	214	1
176	176	1
71	71	2
81	81	1
48	174	1
124	126	1
84	84	1
213	230	4
171	177	1
177	177	1
102	103	1
164	164	1
61	61	1
151	151	1
3	7	1
124	127	2
165	165	2
223	223	4
243	243	2
147	148	2
201	202	1
183	184	1
205	206	1
92	92	1
203	203	2
22	22	1
209	211	1
201	201	2
153	153	1
141	151	1
71	74	1
172	172	2
221	223	1
112	112	3
71	73	2
128	129	2
137	152	1
100	101	1
79	84	2
235	235	1
221	228	1
218	218	1
240	240	1
112	114	1
77	77	1
21	21	1
225	225	1
212	213	1
171	178	1
75	76	2
107	108	2
140	154	1
133	134	1
174	175	3
3	6	1
123	127	1
47	48	1
232	242	1
20	29	1
