35	35	6
40	40	12
53	58	1
24	45	2
49	50	2
10	10	7
9	32	1
4	46	1
48	48	8
31	31	11
45	45	9
34	34	2
7	8	3
17	37	3
54	54	20
9	9	13
51	54	6
31	35	1
56	56	7
60	60	9
24	24	2
23	24	3
47	47	18
18	19	4
57	58	2
14	14	3
2	2	12
43	53	4
0	17	2
22	24	5
46	46	6
0	0	11
12	12	2
43	51	2
32	49	3
46	47	4
1	1	6
22	23	2
0	12	1
0	24	2
2	13	2
42	43	2
12	24	7
15	15	5
18	18	7
12	25	2
0	22	2
6	7	3
61	61	5
22	22	16
3	17	1
19	19	3
50	50	5
41	41	4
6	6	2
53	54	1
3	3	9
20	20	4
48	49	2
17	17	6
42	42	8
7	7	5
46	51	1
14	15	2
16	16	6
32	34	7
0	1	5
18	59	1
58	58	8
2	21	2
24	38	5
13	13	7
11	11	6
51	51	14
9	12	2
8	8	3
15	22	2
31	49	1
12	13	2
35	36	5
42	49	3
19	21	3
59	59	2
47	53	1
25	25	6
0	16	1
2	5	4
41	51	2
16	39	3
29	29	3
57	57	6
43	43	8
38	39	6
10	11	3
19	22	3
54	57	3
62	62	2
7	10	3
3	8	3
18	24	1
4	5	2
55	55	3
30	30	8
5	7	3
23	23	3
15	16	5
5	13	2
8	11	2
32	32	2
43	60	2
40	41	5
0	36	4
42	53	2
11	24	5
21	21	3
6	8	2
35	50	2
30	31	5
15	39	2
30	49	1
33	43	1
11	12	5
7	21	2
52	52	6
57	62	2
12	23	2
31	50	2
37	37	4
44	50	1
19	38	1
33	33	3
58	60	1
41	56	1
58	59	3
24	29	1
44	58	3
4	4	3
36	36	4
18	37	2
1	21	2
39	39	2
44	44	3
37	54	3
13	19	2
4	45	2
42	51	2
0	13	1
53	53	5
32	50	2
43	44	7
38	38	3
39	58	1
11	41	1
7	29	2
1	20	2
38	56	2
1	2	1
31	40	1
34	52	1
24	39	4
50	51	2
24	25	1
17	22	1
19	20	3
14	38	3
34	43	1
10	24	1
40	48	1
46	52	1
44	60	2
0	14	3
52	53	1
59	61	1
44	51	4
22	45	1
6	29	1
39	56	1
24	59	1
43	50	1
17	26	2
15	19	2
18	39	2
13	23	1
47	48	1
3	40	1
49	49	1
44	57	1
37	40	1
24	55	1
6	11	1
37	38	1
2	16	1
22	38	1
24	57	1
40	50	1
23	57	1
19	40	1
17	23	1
13	35	1
