69	69	6
70	72	1
63	63	5
93	93	6
89	89	9
32	33	1
60	82	7
26	27	6
94	94	7
76	91	2
78	78	6
81	81	8
48	49	2
55	76	2
43	43	2
24	24	14
41	44	4
104	104	4
31	31	8
74	74	9
51	51	9
23	23	11
40	40	6
45	45	6
68	74	2
82	82	9
67	67	17
54	54	14
29	30	3
52	52	10
68	68	8
95	104	3
79	79	7
92	92	9
22	23	2
66	66	3
72	73	2
32	32	10
27	28	3
20	20	6
65	67	5
86	86	2
57	57	14
62	62	8
33	33	4
76	76	14
60	60	11
89	90	5
47	48	1
91	92	2
64	65	3
38	38	3
25	76	1
27	54	4
96	96	4
53	53	7
73	74	2
21	55	1
87	87	1
66	67	5
103	104	3
64	64	6
55	55	3
101	102	4
39	53	5
36	36	11
33	42	3
99	99	11
71	71	5
39	52	1
91	91	7
71	72	5
61	81	2
70	70	6
84	85	3
21	32	4
90	90	3
95	95	2
81	82	5
104	105	1
22	22	6
65	96	5
85	86	1
59	59	3
70	74	2
26	69	1
69	70	3
26	26	4
76	77	1
65	66	2
39	39	3
30	30	10
34	34	4
98	98	2
56	56	8
85	85	6
45	50	2
68	77	2
28	28	3
93	105	4
75	75	10
38	39	2
101	101	6
100	100	6
70	71	5
48	48	2
44	44	2
71	73	1
65	65	11
21	21	6
80	80	2
71	94	2
90	91	6
59	105	2
31	32	2
40	52	2
31	75	2
76	78	4
88	88	4
50	51	2
78	79	2
103	103	5
94	95	3
50	103	1
93	94	1
34	36	4
37	37	4
106	106	1
25	25	4
61	61	7
33	34	3
49	68	2
92	93	2
25	29	1
36	37	1
82	84	1
63	64	1
84	84	1
68	95	1
23	24	2
20	21	2
51	53	1
57	58	2
61	62	2
54	76	2
83	83	1
70	79	1
49	49	1
95	96	1
71	74	2
37	38	2
32	55	1
80	81	1
27	103	1
42	43	2
27	43	1
58	58	2
22	25	1
67	68	2
102	102	1
106	107	2
58	60	2
50	50	9
69	71	1
62	79	1
58	61	1
75	76	2
46	46	3
97	97	4
62	63	1
77	77	2
98	99	1
46	47	1
97	98	1
51	52	4
76	92	2
73	73	2
89	93	1
25	30	1
83	106	1
52	53	1
44	45	1
59	93	1
72	78	1
77	79	1
54	55	1
77	91	1
77	78	2
96	97	1
83	84	1
105	106	1
50	68	1
43	44	1
69	78	1
21	22	1
53	56	1
