24	25	1
42	42	5
96	97	1
61	61	2
57	58	3
79	80	4
89	98	2
87	87	6
54	54	1
93	94	2
62	62	8
72	72	3
97	97	11
101	101	4
73	73	7
72	74	8
88	89	2
24	24	1
48	50	3
68	68	2
87	88	4
52	52	10
67	67	7
55	55	8
44	51	2
88	88	2
33	34	2
80	88	2
96	96	6
63	63	12
92	92	9
64	64	6
99	99	5
65	65	5
95	96	5
69	87	3
74	89	3
84	84	6
27	27	5
89	94	1
86	87	3
64	74	1
95	95	1
55	65	2
76	76	9
75	75	5
25	25	4
45	46	1
80	80	5
77	77	11
66	67	5
26	26	3
79	79	16
94	95	4
44	44	4
49	49	1
41	41	1
69	71	1
100	101	3
91	91	4
51	84	1
75	76	3
77	89	1
66	86	1
35	38	2
63	71	2
83	86	3
74	74	3
37	38	3
30	30	1
28	38	2
97	98	2
83	84	1
69	69	9
46	46	6
38	38	4
27	30	2
45	48	2
60	61	5
33	72	4
89	89	5
48	49	2
28	28	1
53	78	3
77	78	2
64	73	3
81	81	15
85	85	6
68	80	3
66	68	1
91	92	2
72	73	6
61	63	4
81	84	1
54	83	1
64	76	3
43	43	5
64	85	3
78	79	1
85	88	1
92	93	5
28	49	1
47	47	3
53	53	2
80	91	3
94	94	1
84	86	5
40	40	4
39	49	2
88	102	4
52	83	1
76	77	1
99	100	2
56	57	1
35	66	1
80	81	3
51	87	1
71	86	2
70	70	6
58	58	5
52	56	1
48	48	4
62	67	3
68	88	8
71	79	1
28	45	1
76	78	2
86	86	6
52	82	2
83	83	1
81	82	1
90	91	2
35	35	4
45	45	1
31	38	1
78	78	1
33	67	2
71	85	1
62	78	1
62	66	1
66	66	3
67	68	1
32	33	3
49	50	4
24	29	1
79	81	3
30	65	1
31	31	1
50	50	1
68	69	1
33	38	1
39	82	2
59	60	1
39	39	1
82	82	2
91	93	1
33	66	2
93	93	2
82	83	1
54	55	2
66	69	1
24	27	1
67	86	1
53	79	1
24	26	1
67	69	2
33	65	3
89	95	1
26	27	3
34	34	1
36	36	3
79	87	2
56	56	1
69	70	1
72	80	1
53	82	1
65	66	3
85	86	1
22	23	2
70	71	1
68	70	1
37	37	1
59	59	2
89	90	2
68	85	1
63	68	1
90	90	2
36	37	1
75	77	1
34	71	1
46	47	3
61	62	2
101	102	1
64	67	1
95	97	1
31	34	2
23	24	1
49	71	1
29	29	1
51	57	1
93	102	2
61	76	1
62	64	1
71	72	2
36	38	2
63	78	2
33	71	1
31	33	1
35	36	1
33	36	1
31	36	1
34	85	2
95	100	2
88	97	1
39	40	1
60	62	1
89	92	1
80	85	1
64	66	1
29	30	1
69	88	1
70	89	1
42	43	1
