92	93	4
162	162	4
177	178	6
132	134	5
2	2	9
81	81	4
118	119	6
154	154	8
22	23	4
18	18	3
109	113	3
152	152	6
27	28	1
47	52	2
12	12	8
78	79	8
113	114	3
167	167	2
126	127	4
58	63	2
82	82	6
171	172	3
31	32	2
108	108	7
156	156	5
1	2	3
39	73	3
184	184	3
189	189	5
43	45	3
19	19	6
43	43	2
33	35	2
97	97	3
54	66	1
47	48	1
144	145	5
53	54	3
48	48	5
171	173	5
102	104	6
33	34	3
16	22	2
15	15	9
71	71	3
38	38	3
114	114	6
140	140	6
0	8	3
29	29	9
56	57	4
157	183	1
84	84	5
75	76	2
0	0	1
40	40	2
128	141	1
57	57	9
105	108	2
70	70	3
137	137	3
117	119	5
25	25	6
158	167	2
54	56	1
186	186	1
85	85	3
187	188	2
95	95	3
27	29	2
27	33	1
58	58	1
124	136	2
179	179	5
100	100	1
96	152	3
104	104	1
128	129	2
102	106	1
102	103	3
66	68	3
172	172	5
105	106	2
45	45	4
48	56	3
14	17	1
187	187	4
10	10	3
65	151	1
58	67	1
72	73	1
177	177	2
36	38	2
2	4	4
23	23	2
126	141	2
173	173	2
130	130	2
117	117	3
142	143	5
169	173	1
178	179	1
8	10	3
123	151	4
68	69	5
74	74	1
149	150	5
64	64	3
17	17	5
30	30	6
35	35	3
60	61	3
21	22	2
11	12	2
111	112	2
94	94	2
136	136	1
148	148	4
102	176	3
83	83	4
182	183	4
39	77	1
175	176	2
161	162	4
25	77	2
142	142	3
13	21	1
174	175	2
73	74	3
183	183	4
82	83	2
188	189	5
112	113	3
149	149	3
125	126	1
163	163	3
160	164	2
151	151	3
134	136	4
111	111	3
122	151	5
163	164	2
109	109	1
58	59	2
75	75	1
39	39	1
21	21	4
5	6	6
132	132	2
83	139	3
59	61	2
85	88	1
89	89	4
45	74	1
144	144	3
135	139	2
131	133	4
90	90	1
135	137	1
124	138	1
153	154	1
34	36	1
96	97	2
176	181	2
124	125	2
4	5	3
54	55	2
146	146	2
154	183	1
133	133	1
3	3	1
16	16	2
174	174	2
76	77	1
113	113	1
24	74	1
46	46	1
170	173	2
42	43	1
143	145	1
56	56	1
17	148	2
157	182	1
24	24	1
79	79	2
77	77	2
136	152	1
180	180	1
8	8	2
142	148	3
106	106	1
176	176	2
21	27	4
58	60	2
138	138	1
161	161	1
145	145	2
99	99	1
126	150	2
66	66	3
156	157	1
48	148	1
173	176	1
121	121	1
175	178	1
131	132	3
84	85	1
140	141	1
83	120	1
96	96	2
63	69	1
41	41	1
39	79	1
0	11	1
131	131	4
160	160	2
91	113	2
92	116	1
59	81	1
65	65	1
32	32	1
0	41	1
172	173	1
78	78	1
165	165	1
115	115	2
72	72	3
17	26	1
101	102	2
190	190	2
169	169	1
5	8	2
181	182	1
138	152	1
75	81	1
10	22	2
139	139	5
131	142	2
122	122	2
63	63	1
187	189	1
59	59	1
33	33	1
2	3	1
52	52	1
134	134	1
168	168	1
35	36	1
10	11	1
111	155	1
48	52	1
136	137	1
178	178	2
126	128	1
24	35	1
102	102	1
64	85	1
174	185	1
157	157	1
159	159	2
119	119	1
136	138	1
49	49	1
1	1	1
67	122	1
7	8	1
14	15	1
46	47	1
68	68	1
53	53	1
18	19	1
73	73	1
29	30	1
173	174	1
119	152	1
57	58	1
158	158	1
43	44	1
