65	71	3
44	44	12
85	85	6
46	46	4
84	84	9
93	93	11
61	61	25
63	64	7
78	78	20
65	66	5
37	40	4
68	68	7
60	60	8
73	73	21
76	76	10
67	67	27
59	59	5
71	71	15
97	97	17
69	72	5
39	39	10
53	53	8
94	94	9
64	64	13
69	69	12
27	27	5
43	44	2
62	64	5
42	42	7
57	59	9
30	31	3
55	55	11
86	86	13
99	99	12
61	75	1
63	63	10
90	90	12
67	68	8
88	88	18
28	94	5
33	33	7
77	78	2
33	34	2
45	45	2
65	65	9
48	48	7
83	92	1
87	88	5
63	68	2
22	22	3
27	28	1
56	56	8
80	81	5
58	59	5
79	83	4
79	79	12
91	91	8
100	100	9
69	70	11
60	61	1
81	81	13
72	78	3
36	36	4
51	84	4
79	89	2
69	71	4
34	34	8
34	40	4
49	49	8
77	77	4
76	77	7
74	75	2
31	31	20
49	80	5
55	57	5
62	83	2
98	98	12
84	87	4
58	58	5
57	57	7
89	89	24
83	87	5
84	91	4
50	51	3
80	80	8
26	27	9
95	96	3
54	55	3
70	70	4
42	43	6
82	82	5
82	83	7
96	96	11
91	92	2
92	92	6
44	81	1
62	62	13
51	53	2
53	86	3
32	32	2
83	83	5
51	52	2
36	93	1
34	36	2
62	63	5
66	66	8
62	82	2
94	95	2
81	82	5
74	74	10
72	72	9
35	38	1
25	25	7
58	64	2
75	75	7
60	92	3
92	94	3
42	51	3
41	41	7
83	84	4
70	71	2
95	95	2
35	35	5
74	76	1
28	93	1
28	28	3
52	94	1
72	74	3
28	44	1
50	53	1
56	99	2
38	38	3
29	29	7
52	52	4
92	93	5
96	97	1
56	57	5
29	53	2
23	26	1
84	86	5
50	50	6
37	38	1
87	87	9
64	65	2
60	81	3
38	100	4
59	60	1
35	102	1
71	72	1
68	69	5
51	51	2
20	23	1
47	48	1
47	49	2
61	62	1
57	73	2
69	98	1
88	89	1
29	30	2
36	37	1
97	99	1
78	79	2
56	59	1
25	26	2
85	89	4
40	40	1
22	23	3
24	24	1
32	46	1
26	26	5
45	88	2
85	86	1
78	80	1
58	60	3
27	84	1
41	42	2
23	23	2
86	97	1
45	49	1
37	37	2
86	87	1
34	35	3
34	38	1
101	101	1
71	76	1
73	76	2
29	44	1
64	89	2
60	101	1
96	100	2
94	102	1
51	97	2
66	72	2
35	37	1
28	92	2
43	43	1
26	89	1
23	27	1
43	80	1
62	88	1
90	91	1
