66	66	3
28	48	6
31	31	12
14	26	2
28	28	1
66	69	3
4	5	5
65	66	3
61	61	6
32	51	4
30	51	8
64	71	1
69	69	6
15	15	6
45	45	9
35	35	4
41	41	4
30	49	1
16	41	2
46	70	2
32	39	1
14	21	3
65	65	6
35	54	2
59	60	2
37	79	8
51	51	7
52	52	6
13	13	2
64	64	3
17	17	5
13	51	4
34	67	1
76	77	3
58	59	5
11	16	5
57	58	2
26	26	17
26	55	2
12	12	14
25	50	2
30	30	14
1	1	9
5	5	13
54	54	8
0	2	3
74	74	14
31	34	3
48	48	10
4	8	3
32	33	5
35	75	4
6	8	4
67	69	2
63	63	12
54	55	1
32	50	3
4	6	2
72	72	4
72	76	1
16	17	3
10	16	1
6	7	3
36	36	10
0	0	5
37	37	10
16	21	2
29	59	1
2	2	7
6	6	2
38	76	1
15	31	4
70	78	5
68	70	3
31	32	5
78	78	4
76	76	3
43	43	3
12	13	3
39	39	3
26	27	3
33	33	7
3	5	2
33	53	7
14	14	9
73	73	7
16	16	4
16	19	1
29	56	2
32	32	4
13	14	1
79	80	1
62	62	6
38	58	1
42	42	5
29	29	4
71	71	4
26	47	1
36	65	3
40	42	4
53	53	5
79	79	10
40	41	1
76	79	3
74	79	2
10	10	10
34	37	4
9	9	5
34	34	4
30	46	1
49	50	9
14	30	1
52	53	2
42	56	4
58	58	4
55	55	1
11	11	3
35	53	3
32	36	4
58	61	1
80	80	6
3	8	2
50	50	2
74	75	2
65	71	1
62	63	4
5	8	1
3	3	3
72	73	1
68	68	2
31	54	4
66	67	5
17	29	6
75	75	2
57	57	6
70	71	1
77	78	2
60	60	2
35	55	2
40	40	2
27	27	6
29	55	1
18	18	1
51	52	2
49	49	3
7	7	5
1	28	2
59	70	1
31	39	1
37	56	3
20	20	1
47	47	4
25	27	4
48	65	1
35	56	1
14	15	3
48	58	2
77	77	2
17	48	2
0	3	3
50	51	1
54	70	2
73	74	1
12	51	1
38	53	1
47	67	2
71	72	1
72	77	3
11	12	1
29	48	2
65	67	1
36	37	1
25	25	1
9	10	1
27	28	1
8	12	1
67	67	1
25	48	1
48	49	1
62	65	2
26	79	1
34	65	1
38	38	2
15	49	1
64	65	1
9	14	1
26	54	1
30	47	1
13	52	1
5	6	3
58	80	2
74	78	1
25	71	1
59	63	1
29	63	1
62	78	1
56	56	1
75	77	1
60	61	1
45	61	2
54	68	4
38	80	1
75	76	1
46	46	1
20	32	1
59	59	1
0	1	1
20	21	1
7	8	1
50	54	1
