72	73	1
19	20	1
134	154	3
131	131	4
137	137	8
66	68	3
149	149	6
75	78	4
40	40	5
2	2	3
104	104	7
23	34	4
74	74	6
142	143	3
54	54	3
150	150	2
43	43	4
115	115	1
84	84	3
3	6	1
50	50	4
40	68	4
121	121	5
8	10	6
43	46	1
35	35	5
55	56	5
37	39	2
134	135	4
108	108	4
76	76	6
58	64	8
31	31	2
133	133	3
145	146	3
125	125	4
77	154	3
102	102	4
32	32	8
24	25	1
118	118	4
133	140	2
47	48	2
16	18	1
66	67	1
128	128	5
34	35	3
18	18	3
78	81	4
94	94	10
36	36	1
87	87	1
85	85	6
114	117	3
47	49	1
104	105	3
132	132	4
28	30	3
33	34	3
11	11	2
116	116	4
48	48	2
110	113	1
3	5	1
12	12	9
77	77	3
15	15	3
45	45	2
17	17	7
38	39	4
117	129	3
93	93	3
109	109	3
86	86	4
103	105	1
63	66	3
143	144	3
29	31	3
54	58	3
56	57	1
27	27	2
84	85	5
49	50	4
116	117	3
19	19	9
44	44	2
69	70	2
55	55	2
64	65	2
136	136	2
20	20	3
143	145	3
21	21	6
79	82	3
108	109	4
13	16	1
12	15	1
33	33	2
147	147	3
94	102	1
7	32	5
111	137	2
97	98	6
98	99	1
123	129	1
80	81	4
12	20	1
113	114	3
136	137	4
147	149	1
135	135	5
123	123	5
46	46	3
139	148	3
7	11	3
78	78	6
100	100	1
79	153	2
144	145	1
111	112	1
2	28	1
28	73	3
134	134	2
140	143	1
68	68	1
90	123	2
97	97	3
113	135	1
73	74	1
54	55	1
14	15	1
93	101	3
6	7	1
145	145	3
44	55	1
51	53	1
22	57	2
6	30	1
94	95	1
122	122	1
96	97	2
97	103	3
100	101	1
34	34	2
96	96	3
5	6	1
42	42	4
146	146	2
90	91	2
116	131	1
131	132	1
37	37	1
144	144	1
11	12	2
142	144	3
65	65	2
67	67	2
53	53	3
12	14	3
37	38	1
88	106	2
39	53	1
107	109	1
119	119	1
39	39	2
41	41	3
110	112	3
138	139	2
148	148	1
80	87	2
72	121	1
96	103	2
73	73	2
90	90	1
38	38	1
29	30	1
117	117	1
79	79	1
5	34	1
95	95	2
111	141	1
124	129	1
111	111	1
12	16	2
64	66	2
132	133	1
65	83	1
85	97	1
120	120	1
82	82	1
115	130	1
78	80	1
81	81	1
137	138	1
55	57	1
16	16	1
87	88	1
71	71	1
26	26	2
93	103	1
66	66	1
22	22	1
88	94	1
42	54	1
143	143	1
118	123	1
138	138	1
153	153	1
4	6	1
82	83	1
