10	10	16
122	122	8
6	6	11
97	97	4
1	1	5
23	23	12
24	25	9
8	8	11
90	92	3
125	125	3
72	81	5
120	122	2
15	15	13
12	12	6
89	117	3
92	92	8
101	102	2
120	120	13
29	29	11
19	19	4
96	96	7
20	21	1
87	87	9
79	80	3
1	3	3
113	113	5
94	95	2
111	112	3
86	86	1
6	7	2
84	85	4
7	7	7
89	90	6
98	98	19
22	22	8
6	8	4
110	110	11
137	137	2
76	77	6
118	119	6
93	93	8
30	30	6
140	140	3
12	14	2
21	21	2
91	91	8
26	26	7
123	123	10
73	73	4
83	84	6
75	75	6
104	107	2
85	85	9
73	125	8
112	112	7
88	110	2
19	21	2
14	14	5
104	104	7
12	13	2
136	136	4
127	128	1
105	105	1
34	34	2
2	6	2
76	76	8
90	90	5
11	11	7
1	14	2
80	80	2
33	33	3
112	115	1
95	95	4
18	18	4
104	114	3
78	79	4
89	89	6
119	119	2
31	31	5
17	17	6
115	117	3
112	118	4
32	32	4
28	28	5
78	78	5
1	93	3
25	25	6
32	33	2
1	2	1
126	126	7
107	107	2
23	24	2
114	114	10
136	137	2
16	16	7
104	105	5
115	115	4
38	38	1
84	84	4
100	101	2
95	108	1
121	121	11
127	127	4
7	8	4
83	83	5
87	88	6
109	109	3
20	20	1
100	100	3
72	72	5
0	0	4
38	109	3
106	106	1
84	99	1
124	124	5
3	3	4
120	121	2
95	96	1
94	94	2
71	71	3
31	32	4
101	106	2
0	2	2
5	5	9
3	4	5
72	104	2
122	123	4
112	116	2
99	99	5
110	111	4
13	13	3
20	25	1
90	109	1
117	117	10
85	86	1
133	133	1
101	101	8
29	30	1
128	128	5
37	95	1
103	124	1
86	113	2
116	116	7
137	138	1
31	33	3
2	96	2
119	123	1
91	100	1
24	24	4
14	16	2
13	14	2
2	4	2
139	139	1
107	116	1
128	129	4
108	108	1
103	103	3
105	106	1
75	125	2
112	113	1
123	125	1
74	125	2
90	91	1
103	104	3
36	97	2
132	132	6
74	74	1
111	118	1
82	82	1
130	130	2
81	81	3
117	127	1
18	20	1
131	132	4
5	6	1
79	79	2
19	20	1
131	131	2
91	117	3
81	82	1
9	9	3
111	113	4
14	17	3
4	5	1
108	109	3
82	103	1
82	101	2
37	38	2
19	22	2
4	4	4
9	14	1
27	27	1
125	126	1
77	77	3
35	37	1
118	120	1
101	105	2
72	124	1
123	124	1
129	129	1
91	93	1
102	102	1
111	111	1
22	23	1
37	71	1
37	97	1
138	138	1
135	135	1
28	90	1
11	12	1
68	68	1
2	3	1
10	11	1
36	36	2
118	121	1
96	98	1
30	31	1
134	138	1
