103	107	9
2	5	4
99	127	3
134	134	10
72	72	8
103	103	3
84	93	1
130	130	11
26	26	3
85	85	1
34	34	5
73	73	5
127	127	11
74	74	5
126	126	7
13	15	6
28	29	5
116	122	3
86	94	4
19	19	4
110	110	6
125	125	11
126	127	6
77	77	9
131	132	1
75	76	4
91	93	1
7	7	3
21	21	2
132	132	5
111	111	11
36	36	7
113	113	3
92	92	2
27	27	1
33	34	4
112	112	3
111	112	1
86	86	3
15	18	3
29	29	4
35	36	6
95	95	5
129	129	6
76	79	3
136	137	2
1	1	4
33	33	16
4	4	3
106	106	2
109	109	7
17	17	5
11	11	8
101	102	1
8	8	7
116	123	2
30	30	8
81	82	2
20	31	1
11	12	3
116	116	6
133	133	2
20	20	5
115	115	3
97	98	4
77	79	4
137	137	3
119	120	3
101	108	6
99	100	1
100	101	4
100	100	8
6	6	6
90	90	3
121	121	4
80	113	1
99	99	11
83	83	4
127	128	3
124	124	7
108	109	3
76	76	4
85	86	2
92	105	1
14	14	3
114	125	7
136	136	12
72	73	4
115	120	3
91	91	5
9	12	2
135	135	3
81	81	10
30	31	5
74	113	3
15	17	1
107	107	9
25	26	5
6	7	2
80	82	1
124	125	12
89	89	2
37	37	6
28	30	2
25	25	8
35	35	7
130	131	1
104	104	4
80	125	4
32	32	5
36	37	1
31	31	8
17	29	1
115	116	1
7	11	3
102	102	4
131	131	2
71	71	5
96	97	5
91	100	1
89	91	3
79	113	4
9	11	3
17	19	3
93	94	4
120	121	2
122	122	6
38	38	5
100	127	6
90	91	1
117	118	2
128	129	3
9	15	1
3	3	3
101	101	2
5	11	4
123	125	1
23	23	5
12	14	3
75	75	3
85	94	2
114	114	1
114	115	2
24	25	1
94	95	2
18	18	6
16	16	2
138	138	1
28	28	6
103	110	1
2	2	1
32	33	2
11	15	4
123	123	5
133	135	2
80	80	2
16	17	2
108	108	1
117	117	3
101	127	1
122	123	2
128	128	3
9	9	5
123	124	1
78	78	2
82	83	1
120	120	1
109	110	1
104	105	2
13	14	1
20	89	1
34	35	1
134	135	1
87	89	1
27	32	1
124	131	1
72	74	1
132	133	1
77	121	1
121	122	1
114	126	2
76	77	1
12	12	1
87	87	2
17	30	1
139	139	1
118	118	1
88	88	1
94	94	1
86	97	1
22	23	1
10	10	1
79	112	1
10	11	2
24	24	1
82	82	1
129	130	1
138	139	1
98	98	1
21	30	1
