104	151	1
85	95	1
132	132	3
4	4	5
134	152	1
64	64	5
42	42	4
39	39	8
142	151	1
85	85	4
51	51	9
139	139	6
46	46	9
81	81	4
113	152	2
125	125	4
99	99	6
98	117	1
125	148	5
124	124	3
87	87	4
57	57	4
116	118	1
67	68	2
55	55	2
30	30	3
36	36	5
122	122	2
11	11	9
12	12	8
82	82	7
30	36	2
109	109	1
20	21	3
108	140	4
48	48	4
79	79	5
83	87	4
95	95	1
138	138	4
30	63	3
124	144	2
75	76	2
129	129	6
41	41	8
35	35	1
133	133	1
13	13	13
138	148	1
131	131	5
23	23	1
104	125	5
116	117	2
30	32	1
41	43	2
31	32	4
96	96	5
83	83	6
112	117	4
5	7	2
117	118	1
62	62	1
121	126	3
44	45	3
32	68	2
18	18	3
19	65	2
115	116	2
53	53	4
65	65	4
7	32	2
97	98	5
14	31	2
146	147	2
31	31	3
4	34	2
97	97	1
47	47	2
98	115	5
83	92	2
95	151	2
138	151	3
75	96	1
40	40	9
28	63	2
120	131	1
95	107	2
76	76	2
43	148	2
135	135	3
68	100	1
7	49	1
78	78	1
101	101	1
146	146	2
116	116	5
26	26	4
113	113	2
82	111	1
47	48	5
69	69	1
25	31	3
127	127	3
20	140	1
102	102	2
54	55	1
34	34	3
137	137	1
24	24	2
27	27	5
14	42	1
119	129	1
119	119	4
5	8	5
31	43	1
131	132	2
103	103	3
147	148	2
98	98	1
3	33	1
22	22	4
28	28	4
129	130	2
101	105	7
112	112	3
144	144	3
8	8	1
43	147	2
32	32	1
29	29	1
114	153	3
11	53	2
83	85	1
14	14	2
64	65	3
106	106	3
147	147	3
6	6	4
93	93	2
44	44	3
24	84	2
115	125	2
26	90	1
139	145	1
128	143	1
115	115	1
103	104	3
124	127	1
32	109	1
73	75	2
123	123	5
96	98	2
136	136	2
49	51	1
43	43	3
98	100	2
63	65	1
4	10	1
84	84	2
95	96	1
65	94	2
14	15	1
68	68	1
71	137	1
70	70	1
114	114	1
137	141	1
63	63	3
66	67	1
90	90	2
107	128	1
11	12	1
80	80	1
19	109	1
141	141	4
95	99	2
98	99	1
66	117	1
73	73	1
28	29	1
9	9	1
20	30	2
49	118	1
91	111	1
126	144	1
108	108	1
8	9	1
92	92	1
17	27	5
140	141	1
50	50	2
111	111	3
135	154	1
73	74	1
37	37	2
12	33	1
144	145	1
75	81	2
107	107	1
65	95	1
33	33	2
121	141	1
67	67	1
16	16	2
107	109	1
41	147	1
142	142	1
29	30	1
102	123	1
74	74	1
104	104	1
35	36	1
80	81	2
87	126	1
72	127	1
95	109	1
110	110	1
119	141	1
91	92	1
56	56	1
118	118	1
103	105	1
148	148	1
33	54	1
21	21	1
46	68	1
