194	228	3
105	105	8
170	170	22
129	135	4
207	207	13
128	128	10
148	148	13
176	176	13
51	55	1
114	114	7
122	126	5
155	188	1
71	84	2
140	142	1
24	24	11
127	166	2
155	155	14
32	186	5
37	59	6
198	199	5
61	81	8
151	220	3
81	81	7
191	203	4
127	181	5
169	169	12
214	215	13
125	126	5
29	29	6
133	136	1
116	118	5
38	38	10
16	16	15
169	189	4
146	229	2
14	15	2
69	69	10
23	41	1
242	242	1
122	124	4
51	51	4
173	173	8
168	168	20
60	60	8
155	220	4
234	234	15
217	222	4
52	53	5
20	28	2
120	127	3
88	88	4
61	62	9
175	175	18
238	241	3
97	101	2
181	181	19
17	18	5
183	191	1
169	170	19
172	173	7
37	38	5
2	4	7
133	134	4
78	80	5
234	238	3
124	127	2
221	221	9
206	207	7
96	112	5
193	193	3
193	194	5
130	130	10
129	129	19
152	153	3
140	140	10
73	73	20
105	169	3
0	1	1
142	142	10
48	202	2
62	62	23
156	158	4
194	195	9
175	176	5
156	157	7
100	100	19
14	16	6
163	163	21
28	28	11
236	236	12
145	145	18
6	7	8
45	45	17
152	152	20
9	200	1
19	70	3
17	71	3
42	42	14
113	128	4
164	165	4
153	159	4
213	213	8
201	201	18
120	120	11
186	186	4
185	188	9
15	16	7
197	198	19
188	189	11
20	22	2
67	227	1
53	53	16
135	136	10
117	118	3
211	214	4
59	59	5
203	204	5
40	41	8
139	139	18
36	36	11
84	84	6
17	55	2
2	3	7
178	178	18
174	174	25
174	205	5
61	61	18
5	5	5
97	97	16
212	212	10
163	165	2
210	210	13
192	197	4
22	22	11
209	211	4
198	198	14
121	121	7
71	71	4
224	225	8
11	12	3
179	188	4
4	4	15
67	67	10
23	72	1
164	164	15
45	46	5
205	206	3
224	224	15
179	220	3
143	143	4
68	68	15
172	172	15
196	197	2
75	75	6
52	52	2
230	231	2
231	231	9
96	96	7
147	148	15
20	74	1
226	229	3
9	9	13
63	63	12
116	116	7
49	49	5
162	162	2
105	127	3
131	131	17
178	179	1
39	74	4
232	232	10
99	99	10
12	12	9
171	171	12
8	8	12
112	113	3
139	141	1
157	157	9
196	196	5
222	222	12
120	121	5
158	158	11
102	102	16
197	197	7
30	36	2
195	224	2
74	74	18
161	161	12
148	149	5
138	175	3
25	25	13
145	154	5
239	239	16
225	225	15
107	111	2
154	158	1
6	19	1
143	201	2
103	105	1
229	229	9
188	188	7
32	33	3
25	26	7
136	173	3
80	80	9
137	138	7
240	240	4
226	226	8
193	196	3
215	215	14
208	230	1
197	223	4
43	160	2
213	215	2
113	115	1
17	17	15
209	210	11
135	135	11
39	39	13
227	227	7
172	179	5
191	191	10
102	103	3
180	180	10
174	183	1
118	118	7
224	231	3
98	169	1
161	163	3
21	72	6
166	166	4
125	127	2
179	179	16
138	142	1
81	84	4
79	79	4
208	208	11
11	18	4
82	82	5
220	222	6
34	36	2
182	182	17
78	78	7
144	144	18
5	7	12
119	121	1
12	31	2
231	236	1
173	208	3
119	119	4
161	162	2
219	219	10
54	148	3
235	235	5
53	54	4
0	22	5
199	199	10
11	11	14
43	44	3
34	34	5
190	190	9
23	60	4
50	134	4
19	19	4
189	189	3
31	34	4
159	159	18
70	70	10
122	122	8
180	182	4
103	103	4
16	54	4
18	18	13
132	133	3
201	216	4
107	109	1
202	202	13
146	164	3
7	7	14
234	235	4
174	178	2
106	109	1
20	37	2
70	71	2
140	155	6
177	177	5
66	66	18
213	214	3
58	59	4
176	177	2
72	84	1
83	83	8
40	163	5
143	148	3
137	140	4
64	64	29
62	63	2
220	220	10
4	6	5
88	155	3
183	192	2
207	228	2
176	201	8
1	8	4
201	202	8
204	204	22
225	226	4
170	190	1
80	84	5
6	6	6
147	213	4
163	167	3
43	45	5
56	56	7
128	173	1
47	47	12
27	27	12
209	213	8
217	217	17
29	33	4
115	116	1
187	189	1
114	172	2
3	3	9
226	227	5
21	23	3
204	205	4
129	137	3
146	147	3
3	47	4
2	5	3
28	58	5
50	50	2
29	31	2
141	147	2
9	11	2
9	199	3
138	138	7
209	225	1
15	15	16
187	187	6
200	200	16
218	219	5
221	224	4
148	163	1
1	1	13
76	76	2
9	47	3
203	203	22
15	64	4
160	160	13
20	32	4
3	8	5
217	218	3
9	74	1
150	158	1
50	51	2
62	69	1
10	71	1
109	111	2
98	98	9
212	213	2
192	193	5
205	214	1
14	17	3
193	195	4
228	228	11
54	55	5
46	134	2
141	141	9
65	65	8
184	185	1
97	203	2
1	3	3
176	184	2
43	43	5
18	70	2
145	146	8
144	148	1
125	125	3
188	190	2
85	85	12
8	70	1
54	54	6
134	135	5
45	202	3
37	37	11
196	224	3
12	17	4
104	104	6
10	10	10
52	54	2
89	89	5
238	239	3
151	151	3
179	180	2
107	107	12
33	33	5
191	200	3
209	223	2
28	29	1
218	218	4
211	211	2
63	98	4
227	229	3
56	75	1
150	150	12
184	187	2
98	121	2
86	124	1
221	222	4
223	225	1
58	97	1
34	35	3
44	44	9
213	226	3
31	31	8
226	228	6
238	238	8
23	29	3
22	23	1
165	168	3
200	202	3
184	192	2
1	4	4
7	31	4
147	147	7
233	235	4
163	164	5
200	214	4
89	127	1
86	86	6
183	183	14
154	154	6
104	105	2
199	216	3
7	18	3
129	130	7
233	233	9
48	48	8
101	105	3
149	149	6
205	215	2
126	127	1
99	182	2
230	233	2
32	32	12
6	8	2
82	155	6
150	170	4
138	139	5
29	35	2
139	148	3
30	30	1
101	170	1
58	60	2
58	58	5
85	95	1
35	35	1
212	220	1
6	108	4
199	200	6
32	187	2
175	182	1
42	43	7
77	78	8
62	66	3
215	216	2
111	111	4
218	232	4
38	39	2
170	179	1
106	106	2
57	80	3
72	72	5
147	149	5
184	184	3
55	149	3
101	101	5
64	65	3
25	136	1
44	45	6
123	123	7
46	46	11
13	16	3
124	124	5
20	20	4
7	12	1
41	41	5
165	165	9
0	2	5
112	112	3
99	103	2
63	64	4
10	201	1
95	133	2
144	159	2
153	153	8
127	127	2
131	132	3
216	216	2
100	101	1
47	48	4
191	194	2
138	144	1
117	117	4
211	212	1
139	140	3
109	169	2
5	9	2
214	214	3
209	214	5
155	156	3
1	37	2
205	205	6
166	169	3
5	8	4
136	136	10
38	64	2
115	115	10
228	231	5
176	185	4
146	146	4
23	23	13
106	108	2
11	21	2
59	60	4
12	22	5
194	196	2
13	13	4
82	84	6
1	21	5
1	2	4
183	184	7
3	4	1
72	73	3
191	193	5
80	86	1
88	120	3
124	126	1
12	13	6
136	156	2
16	53	2
55	55	5
169	205	2
230	230	6
25	55	3
86	127	1
72	79	2
110	196	4
96	111	2
206	206	8
202	203	2
109	109	4
157	158	2
33	34	2
136	169	3
184	220	1
77	77	2
80	81	1
147	151	4
21	22	4
73	80	3
167	168	1
44	174	1
159	163	4
60	86	2
14	19	2
0	29	1
15	71	2
177	182	2
167	169	1
167	167	4
131	184	3
61	69	1
128	129	1
47	52	2
65	66	3
181	182	3
81	82	3
195	195	3
39	54	4
206	208	1
137	137	3
120	123	2
200	203	1
219	232	2
55	72	3
154	155	4
76	78	1
68	140	2
210	222	2
38	214	1
154	209	1
42	161	3
141	142	9
11	180	1
9	51	1
149	158	3
115	133	3
177	178	5
128	159	1
62	115	1
133	133	3
31	32	2
113	117	1
220	221	3
65	68	2
215	230	1
23	75	1
40	206	4
74	75	2
210	217	1
192	231	3
225	227	2
159	162	2
223	223	9
210	225	3
21	21	2
156	156	7
116	117	5
0	0	8
168	169	3
194	230	1
39	208	4
210	211	2
138	176	2
21	29	1
109	110	2
211	213	3
74	86	5
113	113	1
28	33	5
4	30	2
69	70	1
150	151	7
39	42	2
13	15	3
212	234	2
151	218	1
144	145	1
8	198	1
10	64	2
136	139	1
19	69	1
195	202	1
30	31	2
234	236	1
4	108	1
73	76	7
22	41	2
56	114	1
29	61	2
57	58	1
227	231	4
111	128	1
24	29	1
19	20	1
4	29	2
68	136	1
134	134	3
108	126	5
101	103	1
65	69	2
115	117	2
210	215	2
158	159	2
117	124	1
111	112	1
47	132	1
91	91	2
220	234	1
139	143	5
26	27	1
151	155	1
223	226	5
31	62	1
237	237	1
192	192	4
227	230	2
120	175	1
222	232	4
114	132	3
57	84	2
219	220	4
148	160	1
187	203	1
205	216	2
40	53	1
18	19	5
89	90	1
136	201	1
102	104	1
103	104	2
131	176	2
10	206	1
46	53	1
239	240	1
149	150	2
7	110	1
124	125	5
153	157	3
86	128	1
140	141	2
99	100	1
164	167	2
154	184	2
233	236	2
59	97	2
231	233	2
214	216	1
31	36	4
10	27	3
173	174	2
9	10	2
175	184	2
42	44	1
78	79	1
149	151	1
106	110	1
134	175	1
2	2	1
18	21	1
148	211	4
7	198	2
88	89	1
143	144	2
76	77	2
12	14	1
3	73	1
98	101	2
106	205	2
39	40	1
15	180	3
171	179	4
194	194	3
97	198	1
172	174	1
153	158	1
27	28	1
235	236	2
12	19	1
175	178	1
110	110	1
58	64	1
210	224	2
85	128	1
136	198	3
22	29	4
40	107	1
48	70	1
114	115	1
0	4	1
49	70	1
156	222	2
48	50	1
83	84	2
137	143	1
46	47	1
28	35	1
136	207	1
137	198	2
21	75	1
212	226	1
57	107	1
40	217	3
146	165	1
27	74	2
68	69	2
241	241	1
20	29	1
79	80	1
221	223	1
43	165	2
172	181	1
7	8	1
210	223	1
13	19	3
14	14	1
84	85	1
180	181	1
95	95	1
50	63	1
159	174	1
24	160	1
75	76	4
24	25	2
139	142	2
150	160	1
151	152	2
13	18	1
105	168	1
6	12	1
143	213	1
60	61	1
140	143	2
139	201	1
61	63	1
8	220	1
10	11	3
190	193	1
111	127	1
9	15	1
35	36	2
59	203	1
69	233	1
27	37	1
24	74	2
119	125	2
53	55	1
8	31	1
188	191	1
191	196	2
200	208	1
81	85	1
128	132	2
195	196	1
144	167	1
69	138	1
151	165	1
26	26	1
165	211	2
97	99	1
95	96	1
208	229	2
174	175	1
130	134	1
30	80	1
13	14	2
75	78	1
192	202	2
96	97	2
154	214	1
192	222	1
46	219	1
170	182	1
143	159	1
180	192	1
207	208	2
55	129	1
61	73	1
80	83	1
35	207	1
119	122	1
48	55	1
11	73	1
108	108	1
185	185	1
192	195	1
55	86	1
120	126	1
22	60	1
126	126	1
170	205	1
220	237	1
1	22	1
231	232	1
51	53	2
189	215	1
