42	42	9
37	38	1
114	114	5
79	79	7
72	144	3
129	129	11
81	81	7
28	99	2
27	27	10
77	77	2
79	81	3
24	24	15
13	13	4
19	19	4
78	107	4
108	108	8
80	81	1
62	62	2
97	97	7
120	135	7
130	130	8
72	72	5
106	106	15
41	41	12
108	109	13
19	30	1
74	74	13
134	135	4
56	122	1
135	135	13
63	63	10
29	29	16
104	104	17
33	33	5
100	100	9
83	84	5
55	55	3
20	20	12
97	98	5
41	42	3
89	95	3
98	98	9
26	26	8
71	73	3
124	124	6
110	110	12
59	59	11
125	125	9
51	119	3
17	20	5
67	67	10
57	134	1
69	136	4
109	110	4
13	32	2
22	22	6
76	77	5
68	68	6
119	119	4
49	118	3
18	18	10
67	70	5
2	2	9
76	76	5
38	38	12
82	103	1
88	88	6
17	17	6
35	36	3
73	73	6
8	8	3
87	87	7
52	114	1
15	17	2
13	14	2
104	132	1
59	145	2
54	54	7
25	25	5
40	86	4
123	124	3
121	121	8
13	82	5
47	47	9
120	120	2
12	12	5
63	134	5
79	80	2
102	102	8
87	89	1
53	53	4
36	43	1
141	141	10
140	140	6
4	4	11
67	137	13
55	72	3
2	3	1
92	92	5
37	37	4
48	48	12
30	30	7
10	10	7
49	116	6
70	70	8
81	132	3
7	28	1
50	51	3
20	30	4
90	121	2
118	118	3
15	15	3
47	76	5
61	91	2
109	138	4
8	36	3
38	145	3
78	78	5
121	123	1
68	69	1
69	69	4
93	93	10
17	21	2
96	96	2
103	103	3
144	145	3
128	128	4
56	87	3
28	29	3
94	94	2
65	70	3
21	21	5
75	75	3
113	113	3
49	49	5
65	141	3
32	32	5
111	112	3
145	145	7
61	65	1
83	132	1
131	131	5
52	52	3
92	146	3
90	90	1
138	138	7
8	9	3
111	111	2
89	89	3
65	67	2
4	10	2
80	95	2
59	141	3
56	95	1
57	75	1
38	40	1
134	134	5
36	36	4
63	139	4
50	118	4
95	96	2
71	72	1
127	127	2
59	131	3
11	11	7
99	99	12
14	24	5
5	5	4
6	6	5
12	17	3
23	23	5
89	120	2
22	74	1
115	132	6
101	101	4
57	74	4
28	28	10
55	110	3
62	64	2
15	21	1
58	63	2
35	35	3
112	130	4
66	92	4
84	84	4
120	131	3
9	33	1
2	5	3
126	126	9
39	39	4
93	94	4
114	115	1
105	105	3
144	144	5
64	65	4
95	95	6
105	106	1
12	18	5
23	24	3
130	134	5
88	94	1
80	87	2
113	122	1
66	67	1
38	41	1
54	95	1
80	108	2
30	31	4
98	102	1
91	96	4
6	26	3
117	130	1
57	59	3
103	105	1
96	117	2
88	92	4
11	22	1
65	84	2
105	107	1
50	50	6
133	134	1
9	25	2
5	8	2
112	122	1
3	31	1
11	96	4
19	26	1
71	71	2
113	114	1
118	133	1
18	19	1
37	99	2
82	82	1
33	34	1
97	103	1
52	78	4
58	59	3
49	117	1
129	132	3
134	140	2
64	64	2
136	136	2
86	117	1
9	9	2
51	51	1
1	37	1
9	18	1
89	118	2
59	75	2
103	108	2
40	40	1
3	3	3
66	66	8
85	132	4
42	99	1
80	141	1
57	57	6
67	136	2
80	92	1
133	133	2
115	115	3
59	146	2
6	15	1
62	82	1
131	142	1
0	0	3
92	119	1
1	67	1
64	134	1
64	66	2
18	23	1
68	136	4
22	26	2
139	140	2
53	67	2
92	128	2
56	56	3
4	5	2
0	10	1
85	85	3
139	139	3
104	105	1
20	35	1
62	85	1
29	38	1
0	1	1
52	111	1
29	35	1
109	109	1
61	61	3
20	21	2
30	86	1
110	111	1
49	96	1
57	104	1
31	31	2
58	58	1
98	107	2
56	121	2
84	85	1
31	35	1
49	87	1
2	107	1
79	140	2
88	118	1
90	91	3
89	90	1
20	86	1
20	36	1
98	99	1
1	1	1
101	113	1
41	53	1
0	4	1
77	111	1
63	146	1
76	116	1
99	100	2
125	141	1
70	146	1
52	91	1
141	142	1
132	132	1
