237	237	6
44	44	8
240	241	2
151	151	7
9	27	5
241	241	10
99	99	6
50	51	3
9	162	3
157	157	11
224	224	5
4	105	8
0	33	4
55	69	2
122	122	16
23	24	2
165	239	6
39	45	2
16	16	6
218	218	5
46	47	6
233	233	1
2	2	5
149	149	2
13	13	4
1	3	4
223	243	1
150	150	7
75	85	7
175	175	15
208	208	5
110	110	1
227	227	4
62	62	9
168	177	1
181	182	3
169	169	8
236	236	7
189	189	11
224	225	6
61	61	11
97	97	11
78	78	1
139	217	2
48	48	7
6	81	2
128	145	3
84	84	4
70	70	4
141	141	7
120	150	4
82	82	9
184	185	8
35	95	3
38	52	4
156	156	8
171	172	1
5	5	7
36	36	13
20	20	4
88	88	9
190	190	11
67	67	9
151	167	6
178	178	5
42	42	6
15	15	7
161	161	11
221	222	5
77	77	3
0	0	9
55	55	12
41	101	2
180	180	10
164	167	4
202	234	6
203	203	13
66	67	9
201	201	7
144	144	4
210	210	11
74	74	14
69	69	9
33	33	3
189	190	5
43	43	10
56	56	7
77	78	4
151	152	5
198	202	2
167	167	5
225	235	2
198	198	8
181	181	4
101	101	11
138	139	1
124	124	5
160	160	8
135	135	4
60	154	6
199	214	2
118	118	9
213	213	7
187	227	4
179	179	5
171	171	7
145	203	4
23	31	1
196	196	9
229	229	5
228	228	8
123	123	4
166	166	9
109	122	3
195	197	1
168	168	14
19	19	10
23	23	6
72	73	4
202	202	14
80	82	2
85	112	3
204	204	10
235	235	9
129	129	11
32	33	6
172	172	14
11	11	7
54	73	3
120	121	3
153	153	4
231	231	15
142	142	8
194	195	1
72	72	11
76	76	6
136	139	3
136	136	10
135	159	2
212	212	11
194	194	5
41	57	5
148	165	2
45	45	6
177	177	11
1	1	15
206	206	15
225	225	23
22	22	3
49	49	8
80	80	6
164	164	11
228	233	3
170	171	4
238	238	8
211	211	6
102	103	2
9	39	2
29	29	14
176	176	8
0	21	1
108	108	6
89	89	1
181	200	1
99	118	3
37	37	6
225	227	4
171	176	1
73	73	8
13	16	2
219	219	10
238	239	4
185	216	2
133	133	4
193	193	2
107	158	1
141	187	3
145	147	1
71	71	7
174	175	3
147	148	5
191	191	9
144	145	8
137	137	9
215	215	2
27	71	2
61	70	5
24	97	2
32	79	2
53	53	5
131	148	3
165	165	9
83	84	2
21	96	1
214	215	1
199	199	16
129	147	5
39	39	9
187	187	4
86	86	8
217	218	4
38	38	10
85	85	11
185	198	1
174	174	4
181	186	1
81	82	1
36	133	2
21	21	3
70	71	4
242	242	14
205	206	3
154	154	7
148	149	6
9	9	8
212	225	3
203	204	8
19	81	4
7	8	9
115	115	5
17	18	5
141	142	8
6	18	6
98	98	8
119	119	1
41	41	7
75	75	5
4	4	9
60	109	5
230	230	2
115	116	3
31	31	8
173	175	1
34	41	3
103	104	4
147	152	2
107	108	8
21	31	5
16	18	2
56	64	2
179	180	6
60	81	2
45	46	2
166	167	3
71	72	2
137	139	2
190	191	3
20	21	1
60	60	9
220	220	2
185	185	10
207	207	9
46	46	3
232	232	6
24	24	4
223	223	15
140	141	4
59	59	7
190	221	4
101	102	4
15	19	3
121	127	2
182	182	6
57	57	8
65	65	6
32	32	5
173	177	2
206	207	2
51	51	9
79	79	3
35	36	1
121	121	11
55	56	1
95	95	5
162	211	3
201	202	5
66	66	4
229	230	4
147	192	1
147	147	9
15	130	2
169	230	2
162	163	4
109	109	2
128	130	1
165	166	1
20	28	1
40	41	3
60	61	2
114	114	3
158	158	6
30	31	3
130	130	3
131	133	2
105	126	2
17	17	6
5	6	1
216	216	5
194	208	4
25	25	7
96	96	2
22	23	9
47	50	1
192	193	4
164	215	2
222	222	6
209	210	1
95	96	2
122	174	7
27	43	1
29	30	6
188	188	6
34	125	2
68	68	5
199	200	5
133	162	2
234	234	4
18	19	2
181	221	1
28	28	5
58	58	9
226	227	1
10	10	10
176	177	2
51	53	2
202	203	3
0	10	1
26	26	4
14	14	2
170	170	7
150	151	2
54	54	11
186	187	5
172	183	2
132	164	6
235	236	2
55	129	1
216	217	4
214	214	3
119	120	2
68	69	1
27	27	8
100	100	3
216	223	2
102	102	13
2	11	3
175	176	2
184	187	1
215	223	5
163	163	1
30	30	5
34	34	2
167	174	4
152	152	6
184	184	3
122	123	1
111	111	4
39	120	6
0	3	2
179	185	2
12	12	6
191	192	2
144	156	1
11	31	1
173	173	7
47	173	3
147	149	1
215	216	1
18	18	5
236	237	3
208	211	4
105	105	3
30	33	3
148	148	2
78	79	1
50	50	4
206	240	1
123	168	5
117	118	6
163	165	2
100	114	2
67	68	2
129	149	3
128	135	2
163	164	1
200	225	2
128	128	2
3	4	2
64	65	2
1	19	1
212	213	5
240	240	5
15	20	1
96	143	1
2	88	1
149	150	1
28	121	1
124	129	4
128	170	1
155	156	1
117	117	4
35	41	1
208	209	3
159	222	4
34	35	2
12	16	3
239	239	5
173	174	4
217	217	5
99	113	2
170	177	1
13	15	1
62	63	2
195	196	2
200	200	5
4	6	2
107	107	6
159	207	3
29	49	3
30	56	6
76	82	4
139	140	5
35	35	2
180	182	1
3	8	2
189	208	1
47	47	3
189	221	3
114	115	6
64	98	3
43	50	1
134	187	2
103	103	1
226	226	5
9	42	4
59	60	1
168	211	1
165	213	2
83	83	4
200	202	3
104	108	2
132	133	1
241	242	1
6	6	1
48	49	3
220	221	4
205	207	1
19	132	2
176	219	1
135	136	3
228	230	1
35	80	3
235	238	1
195	195	4
144	146	1
217	236	2
54	69	3
58	67	1
197	197	5
107	109	1
170	173	1
167	211	2
123	145	3
200	241	2
123	170	1
80	81	2
152	176	2
145	146	1
113	116	1
52	53	3
221	221	5
20	24	2
109	130	2
106	106	1
151	158	1
133	150	1
116	116	1
34	76	3
45	96	1
41	102	1
192	192	3
154	155	2
146	146	1
51	52	1
182	183	3
100	101	2
62	65	1
138	142	3
8	171	2
141	151	2
7	7	3
115	202	1
121	122	1
181	220	1
159	160	3
40	97	3
163	192	2
90	90	1
116	153	1
122	168	2
139	139	3
185	186	3
193	209	2
10	66	2
207	208	1
41	118	1
232	241	1
166	226	2
153	154	1
225	231	1
139	141	1
60	144	1
145	145	1
228	229	1
98	153	3
97	101	1
38	50	1
139	160	1
1	9	3
158	159	4
206	208	1
215	231	2
165	182	1
8	8	5
177	178	1
137	138	1
7	66	3
162	174	1
190	193	1
9	26	2
160	161	1
108	126	1
7	17	1
188	223	1
23	158	1
180	214	3
143	145	3
209	209	2
198	199	1
43	73	3
200	205	1
136	192	1
99	137	2
225	226	1
222	223	1
160	179	3
96	152	1
96	119	2
3	3	1
32	75	1
92	92	1
29	71	1
63	64	1
162	162	1
21	24	1
190	197	1
172	175	1
233	236	1
161	217	1
39	40	1
143	143	1
49	50	2
125	147	1
126	126	1
40	40	1
156	159	1
73	74	1
153	193	1
136	143	2
235	240	1
149	166	1
59	80	2
188	197	1
28	113	2
22	80	2
85	86	1
168	169	1
16	19	1
123	205	1
186	186	1
44	45	1
30	63	1
180	181	1
212	231	2
120	120	2
52	52	1
38	39	1
104	107	1
159	171	1
138	138	1
19	22	1
11	30	1
140	185	1
183	183	1
64	64	1
179	182	1
98	177	1
134	134	1
42	58	1
16	196	1
79	108	1
56	120	1
17	128	1
