119	121	7
112	112	4
235	235	11
195	230	1
194	194	4
30	30	5
18	18	11
126	126	3
7	8	1
157	158	1
50	50	10
234	235	2
115	115	7
117	125	4
120	120	9
40	42	1
71	73	7
202	203	8
224	224	3
37	37	6
61	102	2
224	225	4
218	219	10
33	35	2
223	224	4
38	38	4
66	84	3
73	73	5
203	233	2
226	226	1
234	234	8
208	212	1
6	34	8
47	47	7
10	10	8
179	197	1
214	214	4
2	73	2
144	144	4
213	213	3
72	72	6
209	212	5
234	238	2
161	161	9
71	176	2
173	174	2
230	231	4
167	168	4
186	186	5
1	1	7
182	182	3
238	238	4
79	84	2
205	205	6
78	78	8
126	127	1
19	34	1
39	40	3
203	203	5
118	118	9
167	167	10
9	31	2
208	208	3
53	62	2
29	29	4
145	145	3
110	110	1
88	88	2
11	11	13
130	130	3
228	229	3
28	28	3
53	53	7
19	19	2
150	150	1
66	83	3
36	36	4
59	60	2
235	236	3
158	159	1
219	219	3
206	206	7
220	220	2
67	67	6
23	23	2
12	12	5
180	180	6
16	16	7
189	189	2
105	105	1
168	214	4
116	116	5
124	126	4
75	75	5
170	170	9
24	24	8
210	213	2
231	231	7
48	48	4
184	184	7
153	154	2
207	207	5
67	68	1
173	175	3
238	239	3
227	227	7
71	71	4
98	99	2
230	230	6
183	183	2
44	45	3
20	41	6
36	43	2
12	13	4
222	222	5
56	89	2
63	63	7
192	192	4
196	196	5
222	223	3
155	155	4
34	35	2
14	14	3
40	40	3
79	79	1
153	153	3
156	158	1
17	33	4
86	86	9
241	241	4
163	188	1
48	55	3
1	2	3
41	41	4
122	123	2
172	172	6
31	33	1
69	69	11
73	75	3
173	173	6
60	60	3
119	119	4
2	5	1
217	218	3
199	199	5
118	119	2
233	233	4
181	181	8
119	120	4
204	207	4
54	54	10
136	136	2
39	39	9
174	174	5
218	218	3
141	141	9
20	20	4
122	122	6
182	183	3
237	237	2
165	165	3
168	169	1
15	15	5
61	61	3
2	3	4
76	128	1
142	142	2
140	140	2
236	237	3
221	221	1
123	123	6
40	41	5
201	201	7
115	117	5
155	156	6
27	28	4
68	69	3
5	5	3
102	102	2
195	195	1
19	20	1
169	169	6
50	51	8
52	62	3
147	147	8
103	103	4
223	223	3
167	169	1
192	194	2
56	102	2
178	178	6
124	125	3
25	28	1
161	162	2
99	128	3
35	35	2
66	67	4
10	11	2
3	8	2
71	72	1
110	134	1
32	33	2
139	139	6
107	107	2
147	155	3
236	236	2
184	185	7
135	135	4
137	139	2
139	186	1
13	13	1
140	141	4
106	106	3
139	145	3
21	21	2
117	117	2
26	26	2
73	76	3
102	130	2
187	187	3
160	160	3
3	4	1
62	101	2
148	148	10
77	77	3
136	138	1
128	129	1
96	97	4
137	138	3
136	164	3
95	131	1
100	100	2
69	72	3
212	213	1
128	128	8
200	200	1
221	223	3
154	155	3
22	23	1
82	99	1
156	156	3
135	136	1
171	171	3
114	114	1
61	62	1
75	76	3
168	168	4
215	215	3
149	151	3
4	21	3
170	201	2
165	187	3
127	127	1
42	42	3
63	69	3
44	44	5
96	110	4
27	27	5
79	87	1
149	149	2
68	99	2
177	202	2
150	151	1
229	229	5
85	86	5
137	137	4
66	66	2
69	99	1
193	198	1
225	226	2
75	77	2
206	207	1
203	204	3
102	103	2
7	7	2
54	61	1
59	130	1
115	116	4
159	159	3
41	42	2
208	210	2
56	56	3
143	143	1
54	55	2
167	186	4
15	16	2
144	146	1
164	165	2
33	33	2
166	166	5
60	61	3
157	160	1
221	222	6
9	9	4
119	161	1
151	152	1
163	164	2
179	198	2
174	175	2
228	228	5
49	49	4
209	220	3
186	187	3
1	22	1
177	177	3
75	78	1
178	183	1
99	100	2
237	238	1
197	197	2
216	220	1
164	164	2
108	108	2
111	135	2
58	58	3
201	202	1
206	232	2
98	98	2
25	26	1
64	64	2
190	190	4
99	99	3
51	51	2
129	130	1
62	63	3
138	138	4
46	46	3
107	108	2
224	226	1
70	70	3
179	180	4
17	18	1
147	150	2
232	232	1
77	128	2
163	163	2
112	135	1
59	63	1
202	202	1
100	101	3
43	43	1
121	121	2
104	107	1
61	63	1
101	101	1
37	38	3
169	183	2
121	122	2
239	239	1
34	34	2
59	109	1
149	152	2
138	139	3
105	106	1
179	181	1
167	193	1
142	158	2
163	189	1
195	196	2
138	172	3
91	103	1
204	206	4
14	15	1
231	232	1
1	7	1
59	89	2
123	124	1
117	118	1
103	108	1
217	217	1
195	205	2
84	84	3
43	44	2
133	134	1
74	74	2
45	45	1
199	231	1
209	210	1
63	100	1
194	198	1
10	17	1
1	23	2
67	84	1
168	216	2
119	122	5
36	37	2
179	179	1
211	211	2
212	212	3
99	175	1
125	125	1
66	82	1
227	228	3
109	109	1
167	211	1
0	0	1
191	191	1
68	68	3
76	76	1
38	40	1
196	205	2
55	55	1
64	99	1
157	157	1
129	129	1
58	59	1
166	187	1
83	84	1
111	111	1
214	216	1
100	129	1
178	180	2
81	81	2
72	73	1
146	146	2
156	157	2
151	151	1
225	225	1
114	115	1
49	63	1
70	71	2
102	129	1
97	97	1
232	233	1
181	182	1
154	160	1
123	188	2
16	17	1
36	38	2
17	17	1
154	154	1
177	178	1
180	183	1
65	65	1
82	82	1
237	239	1
209	209	1
120	121	1
3	3	1
219	220	1
139	187	1
176	176	1
135	174	1
66	68	1
175	175	1
216	216	1
45	46	1
