83	84	8
96	99	2
80	80	6
197	200	10
246	246	4
65	82	3
196	196	16
156	156	7
146	175	2
4	4	15
219	219	9
120	120	4
206	207	2
42	56	2
23	23	14
51	72	3
18	20	3
227	227	3
63	73	6
52	55	2
98	100	1
183	183	9
248	248	7
21	21	13
59	60	1
204	204	8
153	153	13
72	74	2
61	62	5
2	2	3
214	214	8
154	205	8
168	168	10
220	228	5
71	114	1
212	221	1
212	212	6
160	160	14
15	44	3
211	211	15
239	239	5
46	213	3
233	234	5
225	225	8
65	81	1
45	45	6
197	198	10
174	174	4
43	43	20
173	173	6
207	221	5
86	86	2
2	3	3
51	51	16
102	115	1
228	228	11
33	37	2
14	36	2
179	179	9
81	82	4
244	245	1
76	77	1
162	163	1
171	171	11
240	240	4
237	237	6
22	27	3
186	186	8
37	37	16
168	172	1
223	223	6
53	54	3
185	190	3
182	182	5
101	144	2
66	70	3
169	174	1
234	241	3
59	59	14
48	48	2
55	56	6
190	190	4
35	35	9
163	180	4
205	205	10
67	82	1
76	112	2
14	234	4
94	94	4
52	52	7
79	79	4
234	234	9
95	96	6
2	227	2
78	78	5
25	25	17
113	113	7
169	169	3
218	234	2
167	167	8
201	201	5
114	114	4
68	101	1
177	177	5
12	15	1
151	154	3
11	27	5
236	237	5
198	198	5
90	90	14
98	160	1
10	10	4
191	191	9
187	231	3
57	64	6
71	71	2
57	61	1
18	45	1
203	203	3
44	44	15
200	200	11
60	65	4
218	218	6
98	98	6
32	32	4
236	236	4
7	7	4
74	78	4
216	248	3
62	62	9
152	152	4
89	90	3
189	190	1
10	11	1
95	95	14
156	178	5
85	85	6
81	81	5
80	111	2
54	54	6
207	227	2
107	109	5
192	193	1
66	66	6
162	162	11
15	15	7
209	209	5
75	117	2
163	181	1
207	207	5
49	49	6
164	231	1
52	71	3
6	224	4
16	44	3
146	146	8
1	38	2
68	74	2
71	76	1
51	52	1
58	58	1
241	242	1
69	69	9
185	210	3
4	5	1
97	97	5
223	224	3
224	224	3
217	217	10
96	114	2
204	226	3
54	77	4
67	67	7
90	93	1
216	216	2
209	215	1
163	182	1
121	162	1
210	210	4
236	242	5
78	116	2
116	116	3
175	180	1
67	93	4
182	184	4
29	29	9
235	240	6
210	222	3
151	178	5
186	190	1
22	22	1
1	226	1
208	208	4
196	231	3
77	77	10
75	76	3
16	18	3
100	100	3
170	170	3
221	228	2
3	3	3
229	249	1
213	214	5
216	217	3
65	112	2
11	11	3
147	171	3
45	60	3
152	177	5
4	11	3
155	155	12
240	242	3
90	91	4
55	58	1
107	108	4
90	117	3
58	62	4
109	109	3
186	187	4
3	7	2
111	111	3
42	111	2
209	212	3
73	73	2
163	164	1
204	207	6
5	6	2
165	165	3
241	245	3
189	212	2
48	54	1
40	40	5
228	229	3
209	214	2
18	18	9
178	178	6
198	199	2
19	55	3
235	235	9
111	112	3
105	108	1
43	157	1
65	65	4
197	199	4
106	106	4
44	45	3
36	36	10
115	116	2
70	84	2
98	99	2
198	230	6
191	210	1
201	230	5
194	223	3
147	147	1
80	81	1
223	236	4
8	10	3
151	164	4
8	11	1
103	103	2
87	87	5
147	175	1
232	232	9
221	221	4
229	229	11
152	164	3
112	115	2
26	26	7
85	104	1
19	19	3
151	183	2
14	49	3
102	102	1
175	182	3
238	239	3
28	28	3
187	187	7
117	117	5
215	248	2
176	205	3
75	100	3
39	41	2
43	44	2
30	34	3
171	172	6
12	12	5
199	235	5
88	88	11
165	181	2
245	245	6
153	154	2
175	176	2
163	165	4
80	103	1
76	76	7
218	219	4
224	225	3
54	108	1
3	46	1
233	247	3
197	202	4
119	119	7
74	74	5
86	92	1
34	85	2
18	19	3
172	173	3
160	161	4
175	205	2
106	107	2
29	32	3
199	199	11
200	201	1
66	72	2
155	211	3
58	59	1
237	239	2
24	24	1
93	93	1
189	189	5
156	157	4
215	216	2
63	63	7
60	61	3
60	66	2
176	177	3
224	231	1
6	6	4
230	230	8
68	83	4
187	206	1
42	43	4
88	121	4
55	59	2
185	211	1
73	110	2
31	47	4
83	83	4
221	238	2
79	99	4
23	30	1
171	174	1
194	222	2
117	146	1
70	70	4
222	222	9
3	8	2
27	27	6
63	66	8
174	176	2
243	244	1
89	89	3
163	169	4
152	166	1
160	208	4
96	96	14
192	229	1
191	212	2
11	204	1
27	45	1
41	42	3
53	79	1
219	220	5
173	175	6
181	181	6
186	202	3
86	89	3
247	247	9
14	37	1
11	12	3
103	112	5
92	92	2
197	235	3
30	30	6
14	15	2
9	11	1
87	108	2
223	225	2
100	110	1
63	64	2
173	211	3
241	246	1
150	164	2
150	181	1
235	241	1
55	66	3
65	84	2
235	249	1
219	221	2
163	163	2
47	47	2
53	53	2
192	228	4
179	180	1
102	103	2
170	171	4
212	222	1
199	213	1
56	103	2
78	106	2
192	192	7
16	16	4
3	41	2
31	31	4
159	159	1
195	195	3
60	60	3
5	5	1
6	40	1
216	218	1
198	234	3
79	94	2
190	231	6
85	108	2
18	26	1
12	36	4
185	185	4
79	81	2
198	248	2
95	101	2
190	217	1
149	149	4
150	154	3
145	145	5
189	224	1
158	166	5
73	78	2
79	85	2
35	74	1
50	51	3
23	62	2
151	209	1
14	34	2
151	151	1
6	7	1
103	104	1
56	60	3
22	52	3
176	176	5
18	61	3
86	87	1
82	82	8
194	208	1
79	80	3
48	85	3
1	41	1
38	40	1
118	118	9
163	178	3
185	209	1
56	56	1
71	73	1
46	46	2
57	103	3
243	246	1
234	247	1
235	244	1
53	85	1
213	213	3
92	102	1
177	210	1
22	62	2
55	55	1
154	154	4
39	51	2
76	115	4
30	39	1
240	244	2
41	44	1
54	118	2
235	237	4
233	233	2
212	216	1
19	78	1
161	166	1
239	240	1
118	120	3
203	204	3
91	92	3
70	82	1
194	194	4
245	246	8
99	100	3
34	37	3
206	222	3
62	71	2
196	237	3
199	202	1
101	101	3
151	181	2
105	105	4
220	222	2
103	116	1
202	202	4
68	69	2
234	245	2
56	58	1
75	93	3
244	244	4
21	40	1
189	233	1
227	247	1
158	158	3
87	88	2
85	86	1
150	160	1
164	164	1
17	21	1
59	234	1
66	112	3
38	38	3
229	248	2
1	1	5
166	166	2
225	235	1
241	241	2
176	225	2
161	161	4
3	55	1
188	188	2
43	85	1
3	39	1
49	50	3
78	95	1
102	105	1
68	68	2
160	164	1
209	222	1
69	107	1
69	82	1
238	238	4
217	229	1
80	85	1
9	9	2
206	206	1
5	7	2
71	95	2
68	71	1
215	223	1
91	91	1
78	81	1
242	242	2
7	41	1
155	156	2
209	210	5
67	114	1
24	25	2
63	100	1
68	81	1
234	235	2
177	181	1
211	228	2
228	248	1
96	98	1
57	80	2
41	55	2
195	222	1
46	110	1
113	114	3
45	46	1
78	112	1
79	84	1
72	111	1
174	175	1
231	231	2
196	238	2
7	8	2
194	195	2
172	172	4
14	45	2
42	42	1
187	230	1
231	233	1
151	173	1
10	37	1
235	239	1
193	193	2
110	111	1
205	215	1
66	90	1
71	72	1
17	17	1
170	173	1
214	215	2
192	200	1
16	59	1
162	164	1
171	210	2
74	114	1
187	188	3
69	70	1
197	203	1
34	34	2
23	61	1
84	84	1
121	145	2
94	95	1
15	74	1
243	243	2
204	223	1
33	33	3
29	30	1
2	228	1
175	175	1
205	209	1
79	83	1
151	185	1
99	99	2
46	105	2
220	220	2
183	185	1
204	205	1
201	219	1
97	98	2
1	36	1
75	75	2
154	159	2
4	219	1
12	30	1
20	75	2
16	35	2
221	241	1
150	168	1
165	169	1
201	213	1
41	41	1
190	210	1
2	207	1
64	64	1
43	53	1
42	75	1
14	46	1
177	179	1
49	58	1
151	184	1
202	203	1
14	43	1
206	211	1
151	152	1
55	86	1
105	106	1
96	167	1
54	87	2
158	159	1
104	108	1
35	161	2
185	212	1
154	164	1
189	192	1
22	61	1
70	163	1
38	39	1
109	162	1
87	149	2
17	20	1
28	31	1
14	47	1
230	231	1
17	26	1
231	232	1
