91	92	5
35	35	13
48	48	5
70	70	8
63	63	21
79	79	17
42	42	11
50	50	1
26	26	15
81	81	19
57	57	15
100	100	9
93	99	3
25	26	10
40	64	5
33	33	17
89	89	13
24	24	3
56	56	9
91	91	5
76	85	3
62	62	12
87	89	3
37	37	9
26	27	3
59	59	9
61	61	24
66	68	2
45	47	4
99	99	5
87	87	11
90	90	28
43	44	1
66	73	1
86	87	5
84	88	6
64	64	28
83	83	11
58	58	1
34	34	17
95	96	3
80	80	9
93	94	4
75	78	4
77	77	23
73	73	18
75	75	6
49	102	10
72	72	8
78	78	8
43	43	9
35	36	4
69	69	5
64	96	3
76	76	30
49	49	10
84	84	6
66	67	8
83	99	5
55	56	3
74	74	17
46	46	8
68	68	14
41	42	5
38	80	2
71	72	4
54	54	4
88	88	14
40	40	9
60	62	6
90	91	5
96	96	3
34	35	2
76	77	12
85	85	14
31	31	10
49	50	7
25	25	2
50	52	3
36	36	5
82	82	4
26	38	1
72	73	1
66	66	17
99	100	6
36	37	8
97	97	3
93	93	8
74	75	5
86	86	8
40	41	2
69	70	4
62	97	3
92	92	4
83	84	7
68	69	4
47	48	5
36	39	1
101	102	3
66	75	1
96	99	4
39	52	2
58	59	3
60	61	4
71	71	10
50	51	1
92	93	3
29	40	7
73	74	3
87	88	3
51	51	16
41	41	5
36	79	6
45	45	5
53	53	9
20	20	2
60	60	6
79	80	5
46	47	3
65	66	2
98	98	6
95	98	1
21	22	1
65	65	17
67	67	5
53	54	2
23	23	3
23	25	2
61	62	4
49	56	2
39	39	2
52	52	2
51	52	3
94	94	4
96	98	2
94	99	1
80	81	2
35	80	2
38	39	3
70	71	2
28	28	2
45	46	2
63	89	1
86	89	3
31	33	1
27	27	6
24	26	2
47	47	3
49	52	1
82	85	1
62	63	4
80	85	3
62	80	1
60	63	1
67	69	1
69	73	2
34	83	1
77	78	1
101	101	2
49	101	1
80	86	1
20	22	1
63	64	2
22	25	3
50	68	3
38	38	2
55	63	1
62	83	1
78	79	1
78	85	3
71	82	1
56	57	1
81	83	1
32	32	2
51	67	2
85	87	2
96	97	1
57	85	1
68	73	1
34	74	1
40	65	1
33	51	1
46	48	1
20	23	1
39	40	1
29	30	1
39	65	1
81	88	1
37	38	2
94	96	1
98	101	1
77	86	1
95	99	1
73	76	1
