135	139	5
42	42	3
9	10	9
138	138	13
143	145	1
61	61	10
161	161	16
98	100	3
216	216	9
218	218	13
143	143	9
54	54	13
147	147	12
46	46	7
98	98	7
4	34	3
137	138	7
14	14	9
186	186	3
178	178	21
186	195	3
67	67	13
105	109	3
109	110	4
4	4	5
64	64	9
74	74	10
221	222	2
155	155	5
8	128	4
61	134	5
127	127	8
184	185	1
189	189	9
228	228	8
68	68	13
170	171	3
29	29	4
3	3	7
52	52	7
135	135	9
20	21	8
96	97	2
100	100	9
185	186	2
45	84	2
145	145	6
31	32	2
28	28	2
26	26	10
214	215	11
23	23	15
60	224	2
49	49	11
30	86	1
7	7	16
106	106	3
217	219	3
70	70	8
10	10	3
151	151	4
124	124	4
54	55	2
43	68	1
71	98	3
163	163	10
154	154	11
233	233	6
171	171	19
207	207	13
223	223	13
237	237	6
204	204	6
180	180	5
0	12	1
100	101	4
11	11	7
230	230	4
46	49	3
47	47	16
70	71	3
25	26	3
73	73	9
82	82	5
201	217	3
153	154	5
71	73	1
82	84	4
40	40	16
198	198	19
165	212	3
142	144	1
60	60	8
222	226	3
20	20	8
117	117	10
121	121	8
213	213	8
48	48	6
223	224	2
81	83	2
190	191	4
240	241	2
78	78	6
79	79	2
162	162	13
200	201	1
15	15	6
6	8	3
233	235	3
149	149	5
14	16	2
29	30	6
57	57	5
0	0	5
122	123	7
190	190	6
123	123	8
112	120	1
128	128	17
16	16	7
112	113	3
232	232	19
141	142	3
51	168	1
175	175	13
45	45	10
124	190	2
120	120	10
142	143	2
225	225	17
226	226	5
182	182	14
76	76	9
153	153	5
36	37	2
238	238	8
164	164	13
176	176	13
229	230	4
200	200	12
183	184	11
35	35	6
44	44	12
39	39	7
5	6	4
103	105	4
55	55	13
183	237	3
37	37	5
172	172	5
214	214	9
69	69	11
136	136	10
208	208	10
215	215	12
118	118	5
116	117	1
136	137	2
158	158	5
4	5	2
65	161	1
187	188	6
192	194	3
139	143	5
1	29	4
170	170	2
34	34	6
197	197	9
174	174	7
202	203	7
88	88	3
37	38	4
158	159	3
185	185	3
202	202	6
134	134	9
173	173	7
6	7	2
107	107	11
240	240	6
85	85	7
31	31	7
32	32	11
156	156	5
50	50	13
224	230	1
216	222	1
198	211	1
66	222	1
33	34	3
56	57	6
66	68	2
31	41	2
12	12	3
192	193	2
43	46	3
228	229	2
122	122	6
17	18	1
163	165	7
135	136	2
211	211	7
196	202	2
21	21	5
220	222	7
219	219	8
121	233	1
13	13	7
145	146	1
47	48	3
239	239	11
128	131	2
75	76	1
138	139	3
9	9	13
151	152	4
229	229	5
126	126	2
222	222	9
109	109	11
224	225	4
63	63	5
102	102	5
161	162	1
150	150	5
119	119	5
114	115	1
148	169	1
204	205	10
159	164	2
196	198	4
119	126	2
18	34	1
187	187	3
20	25	4
48	204	3
83	84	2
63	64	2
187	193	1
221	230	1
148	149	2
23	24	2
52	60	1
203	204	5
41	42	7
195	199	2
160	160	14
224	224	11
166	166	12
210	229	1
1	1	7
39	51	1
71	71	6
98	99	1
221	221	4
152	152	11
227	227	4
30	30	6
196	215	2
209	209	8
173	174	3
133	135	1
10	20	2
36	36	6
181	182	1
55	204	1
102	103	4
168	168	9
121	122	4
162	197	3
9	96	2
231	232	1
39	44	4
220	220	6
151	160	1
8	58	2
10	18	1
158	166	2
84	84	7
36	60	3
123	157	1
45	54	1
58	58	10
137	143	1
184	187	3
197	198	3
158	190	3
205	209	2
13	14	2
33	33	2
229	232	1
107	133	1
190	197	3
125	125	5
80	80	5
51	51	3
56	56	6
15	16	7
162	196	1
66	66	7
32	84	2
160	161	2
2	21	1
212	212	4
40	41	4
66	67	3
19	19	9
211	214	3
81	81	5
183	183	5
27	29	3
206	206	3
144	144	5
116	116	4
241	241	5
196	196	4
53	53	2
177	178	9
63	96	2
43	43	6
18	36	1
192	192	7
72	75	1
168	169	3
174	175	2
188	190	2
33	80	2
204	220	3
18	18	7
86	88	2
96	96	4
239	241	1
234	234	9
127	131	2
177	177	5
132	132	1
181	181	6
119	120	6
195	195	6
135	207	1
130	131	1
235	235	11
180	181	3
73	74	1
115	118	2
101	101	12
43	45	2
128	148	1
17	17	2
181	184	4
212	213	4
7	8	3
97	100	2
123	129	1
137	237	3
105	126	1
148	148	4
191	215	2
203	203	2
45	154	2
138	209	2
131	131	1
165	165	9
36	39	2
184	184	6
112	112	6
53	123	3
188	188	9
103	104	4
27	27	9
179	180	1
105	123	1
61	64	1
121	170	3
217	217	10
210	214	2
137	139	2
11	13	3
208	209	3
103	103	4
165	201	2
115	115	14
72	73	1
54	170	1
184	186	2
185	215	3
194	194	6
59	59	7
61	62	1
138	166	1
146	146	6
65	65	6
99	99	6
196	214	3
151	231	1
27	219	2
210	228	2
179	179	6
4	7	2
176	177	4
65	68	2
77	77	4
210	211	3
193	193	6
5	9	2
236	237	3
176	178	3
199	200	1
86	86	8
72	72	5
141	141	6
14	23	2
159	159	1
188	189	2
187	230	2
103	118	1
24	26	2
81	85	1
156	157	2
52	54	1
1	56	3
0	42	1
149	177	2
78	79	2
170	182	1
169	178	2
181	187	2
173	187	1
204	207	1
38	50	2
104	104	3
111	113	1
85	86	2
133	134	8
12	22	2
65	131	4
171	172	1
142	142	5
239	240	2
159	202	3
102	118	1
179	183	2
2	2	4
219	220	4
181	183	2
71	72	3
32	33	1
176	241	1
47	175	2
40	42	1
45	46	2
33	79	2
68	80	2
238	239	3
113	170	2
242	242	1
5	5	1
166	167	5
14	15	4
4	55	1
110	120	1
97	97	2
133	133	5
22	22	5
205	205	3
30	31	3
205	206	1
6	6	5
153	217	1
175	238	1
217	218	4
42	43	2
137	239	1
58	174	2
69	72	1
21	23	1
152	169	1
75	75	7
231	231	2
38	38	5
62	62	7
199	199	5
69	70	1
59	67	2
105	108	3
111	111	5
134	168	1
137	137	5
18	79	2
193	213	3
172	176	1
1	3	2
8	8	8
208	230	1
210	231	1
219	238	1
39	116	2
81	84	2
101	102	1
18	78	2
144	145	2
103	125	1
1	32	1
77	79	1
108	109	2
139	141	1
191	192	2
215	216	1
89	89	2
236	236	2
237	238	4
9	11	1
67	115	1
210	210	1
69	99	1
2	4	2
188	192	2
35	36	2
220	230	2
143	156	1
115	119	2
24	25	3
52	53	3
55	170	1
15	240	2
5	59	1
129	130	5
105	105	5
157	157	4
165	198	1
221	226	1
55	57	3
65	66	1
104	124	2
40	76	2
76	78	2
49	52	2
167	168	1
43	50	1
124	212	2
152	153	2
230	236	1
75	78	2
41	41	2
190	192	1
143	144	1
24	24	1
22	67	1
82	83	2
22	23	1
165	166	1
42	46	1
226	227	3
211	215	4
138	141	2
60	216	2
234	235	1
209	231	1
121	171	3
183	187	2
134	136	1
120	236	2
44	45	2
42	85	1
70	81	1
95	96	2
233	234	1
130	164	1
3	61	2
150	166	2
139	139	4
133	207	1
113	114	2
110	110	1
62	63	1
3	55	1
30	88	1
42	147	1
48	49	1
105	121	1
31	79	1
25	25	3
50	89	1
3	29	1
52	58	1
59	60	1
29	74	1
175	176	2
158	191	1
88	136	1
219	232	2
134	135	2
150	151	3
194	196	1
132	133	1
218	219	1
108	108	2
48	50	1
228	230	2
62	65	1
207	208	1
21	24	1
221	227	1
155	157	1
193	194	1
17	49	1
138	233	1
19	20	1
202	209	1
11	16	1
81	99	1
55	61	1
201	202	1
195	196	1
146	147	1
219	231	1
166	171	1
84	85	2
37	85	1
202	204	1
120	183	1
30	50	2
221	223	1
120	121	1
139	140	3
169	170	1
196	221	1
201	201	2
126	127	1
1	7	1
192	215	1
190	200	2
32	222	1
30	96	2
49	50	1
13	45	1
187	190	1
218	230	1
108	115	2
188	201	2
0	1	1
142	148	1
156	199	1
186	187	1
189	190	2
73	75	1
120	122	3
75	86	1
1	2	1
40	86	1
198	199	2
126	129	1
64	65	1
32	78	2
81	82	1
226	230	2
18	23	1
63	65	1
206	207	1
159	161	2
130	130	1
96	109	1
167	167	3
98	179	1
162	163	1
194	195	1
170	173	1
136	167	1
71	81	1
14	75	1
161	170	1
55	56	1
19	21	1
127	213	1
10	150	1
137	159	2
123	124	1
169	169	1
241	242	2
17	23	1
47	55	1
68	88	1
56	134	1
238	242	1
238	241	2
220	221	1
88	135	1
41	53	1
117	144	1
119	133	1
10	16	1
232	234	1
178	234	1
198	200	1
212	216	1
150	154	1
111	229	1
211	212	1
37	39	1
114	117	1
175	178	1
24	242	1
8	18	1
213	214	1
60	78	2
7	127	1
