73	73	15
123	123	10
70	70	16
93	114	2
122	122	9
119	119	7
62	77	2
102	115	3
31	32	5
86	86	7
57	57	16
82	82	4
128	128	7
94	95	10
70	86	6
11	12	8
121	121	7
10	29	6
110	110	6
30	30	11
34	34	9
106	106	14
103	103	5
33	33	21
43	44	2
20	21	16
1	6	2
23	23	3
4	27	1
47	47	6
101	102	15
75	75	12
46	46	6
127	127	22
65	65	12
4	4	8
12	12	12
31	31	13
76	76	19
80	100	1
86	87	2
25	25	15
72	72	15
95	109	2
92	92	12
82	83	2
132	132	9
93	93	9
34	35	1
73	74	13
18	18	11
115	117	2
95	97	3
39	130	3
20	26	2
87	88	4
134	134	11
80	80	8
101	101	10
68	78	5
60	60	10
32	36	1
20	20	5
26	34	4
24	24	2
27	27	16
107	107	6
42	42	7
41	59	1
77	77	14
38	38	10
33	37	1
91	91	9
101	103	5
113	113	15
29	29	8
118	118	18
16	29	4
77	79	8
26	36	3
66	66	7
80	88	3
126	126	15
104	105	5
44	44	16
121	122	2
105	106	2
37	40	7
97	97	13
8	8	12
107	108	5
22	22	11
15	17	4
79	88	2
92	95	2
34	36	1
43	43	11
59	59	18
17	17	9
74	121	1
78	78	15
8	10	5
37	37	8
39	39	4
74	77	2
109	109	9
69	71	4
115	115	15
117	117	9
42	73	1
112	124	5
91	92	10
13	13	8
64	64	10
114	128	1
113	114	3
7	7	10
40	40	3
9	12	1
47	130	4
71	76	4
87	87	6
61	61	11
80	82	5
131	132	9
64	65	7
32	32	2
100	102	1
90	102	2
102	102	3
55	55	10
38	106	2
35	35	13
130	131	8
88	88	5
129	130	4
10	10	7
2	2	10
63	86	5
41	41	3
116	116	13
62	74	3
47	103	4
38	43	2
36	40	6
73	116	6
1	1	2
13	16	2
112	112	5
94	110	3
94	109	2
103	106	2
102	103	6
19	19	7
5	6	5
83	83	12
9	10	2
77	85	3
84	85	5
63	64	3
13	15	2
45	120	3
46	134	1
74	74	11
21	26	4
58	58	10
99	99	6
114	132	1
35	41	3
82	89	4
111	124	6
133	133	7
42	109	2
33	41	1
56	61	2
22	26	1
94	94	2
75	77	2
108	108	7
80	90	3
131	131	7
6	16	5
104	128	3
115	116	4
9	11	1
90	103	4
24	39	3
4	7	2
91	102	5
124	124	1
42	47	1
9	9	11
78	90	5
89	90	7
35	55	2
123	129	3
41	42	1
69	79	2
90	92	4
74	75	1
1	2	2
65	77	3
41	47	2
45	45	5
95	105	5
23	25	6
51	51	3
120	120	13
112	113	3
33	39	3
95	95	2
36	37	2
21	21	6
56	57	1
10	20	1
6	6	12
105	118	2
44	45	3
11	25	2
114	114	7
83	89	3
96	96	6
133	134	6
78	80	1
77	78	2
77	80	1
79	80	3
63	63	3
130	130	3
37	51	2
21	29	3
16	16	6
70	76	2
15	15	8
42	43	4
37	38	6
28	28	4
108	109	5
125	125	2
69	69	4
123	124	1
129	129	4
43	93	1
79	79	7
111	123	2
68	68	9
48	48	9
82	84	2
95	111	1
65	73	1
89	92	3
119	120	4
74	122	5
85	85	6
81	82	6
130	132	1
3	3	2
111	111	9
99	100	1
27	28	2
100	101	6
71	71	5
114	118	1
14	14	5
23	29	4
55	70	2
62	65	2
2	6	1
36	36	1
70	87	1
85	86	3
128	129	2
81	88	2
30	40	1
96	98	4
77	82	1
21	34	1
96	111	1
110	114	2
38	39	1
11	11	4
40	41	1
10	12	1
77	98	3
55	59	2
32	42	1
25	27	4
96	97	6
61	62	2
105	105	9
60	67	1
99	105	2
102	124	2
17	19	1
4	5	1
23	39	1
12	26	1
59	61	1
57	58	3
5	29	8
132	133	2
12	13	4
14	16	2
96	109	4
56	56	6
30	37	2
97	105	1
78	81	3
69	70	1
100	100	1
55	90	1
58	73	2
45	116	1
36	42	1
97	98	4
48	49	1
120	121	1
104	104	7
73	75	3
2	3	2
35	40	2
23	24	1
33	115	1
60	122	3
49	50	3
109	110	3
30	31	1
69	77	2
82	87	3
112	115	2
23	26	1
10	24	1
60	68	2
76	118	1
118	119	4
98	107	1
5	5	1
28	34	2
83	84	2
88	89	5
37	108	2
92	93	2
97	100	1
83	86	1
69	84	1
123	125	1
103	110	1
55	57	3
126	127	1
33	36	3
11	24	1
124	125	1
17	18	4
65	71	1
3	27	1
96	105	2
67	68	2
19	20	4
56	129	1
35	37	1
63	75	3
95	112	2
112	131	2
81	81	1
32	33	1
110	111	1
110	112	1
49	88	1
44	47	2
32	93	1
96	99	1
78	79	3
106	109	2
71	84	3
50	54	1
43	113	2
81	90	1
95	96	1
25	26	1
31	41	1
68	69	2
98	98	1
36	41	1
37	48	1
46	123	2
55	58	1
90	100	1
104	127	2
101	106	1
41	108	1
48	55	1
14	15	2
57	120	3
7	26	2
60	61	1
126	130	1
76	79	1
84	116	1
38	42	2
10	11	1
43	112	2
64	71	1
9	22	1
126	134	1
103	104	2
46	90	3
44	73	1
17	23	1
29	30	1
104	117	1
13	14	1
116	117	1
102	112	1
106	108	1
56	103	1
89	89	1
45	73	1
57	81	1
50	50	1
68	72	1
44	74	1
67	67	1
26	26	1
94	112	1
1	5	1
24	25	1
114	115	1
34	42	1
114	117	1
94	111	1
15	16	1
42	78	1
97	120	1
126	128	1
96	108	1
