139	139	4
6	7	1
7	7	7
46	97	1
136	136	5
21	22	10
128	128	5
50	50	4
28	28	10
138	138	6
132	132	6
101	102	4
7	10	1
108	108	4
115	115	10
134	134	10
69	69	17
85	85	7
54	54	9
94	94	8
124	127	4
5	7	7
106	106	19
54	79	2
76	76	3
3	3	4
109	135	2
32	35	4
12	21	4
85	88	2
120	120	6
88	90	5
106	110	4
83	83	13
12	12	5
126	126	5
49	49	5
95	97	2
135	135	7
53	54	3
35	36	3
6	6	11
125	125	5
51	57	1
17	17	9
3	7	1
15	17	8
26	26	9
111	111	3
111	112	6
48	49	5
25	25	14
54	100	3
84	84	4
51	53	2
15	15	1
137	137	6
154	154	2
17	18	5
140	143	2
95	96	1
143	144	6
144	145	4
42	45	5
78	78	9
40	68	2
137	144	3
100	100	13
47	48	8
8	8	3
109	109	7
103	103	5
81	82	6
75	82	1
123	123	5
67	75	1
103	110	3
5	6	2
52	53	4
97	97	6
55	55	2
87	90	6
121	121	3
40	40	6
51	78	2
18	18	13
27	27	3
27	29	4
47	47	9
141	141	6
37	37	9
50	51	1
4	5	2
82	108	1
131	131	6
82	93	3
114	114	2
22	38	3
38	38	1
62	62	6
25	31	1
149	150	6
147	147	6
113	113	7
116	116	8
124	124	2
20	20	4
19	21	1
46	46	10
110	118	1
146	146	2
94	120	2
56	56	3
122	137	3
81	119	1
64	105	1
65	66	1
93	94	11
93	93	2
81	98	6
129	129	4
98	125	3
51	51	7
98	98	1
27	30	2
56	57	6
52	55	2
111	143	2
114	136	3
16	16	8
70	70	9
33	34	1
78	79	1
32	33	2
71	71	4
65	65	4
20	21	2
5	31	3
117	132	2
23	23	10
45	47	1
118	118	3
42	43	2
50	78	4
117	117	2
56	149	3
77	78	1
87	87	5
133	133	8
24	37	2
75	75	6
145	145	5
19	19	6
95	119	4
147	151	3
23	25	2
69	133	2
95	100	1
27	28	1
30	31	2
74	77	3
111	140	3
15	20	1
41	42	3
121	126	3
79	79	6
31	33	3
3	8	3
11	11	2
130	130	4
42	42	5
124	126	2
121	136	2
94	97	1
53	53	4
58	58	2
150	150	4
96	96	13
146	147	2
86	92	2
33	36	3
19	20	2
122	122	8
104	104	7
136	139	1
99	128	2
123	130	2
26	28	4
32	32	3
80	80	6
69	73	1
26	37	3
13	15	1
44	45	3
49	147	1
99	127	2
147	148	1
22	35	6
24	25	3
66	75	2
148	148	4
10	38	3
39	40	4
80	81	4
7	40	2
67	67	1
106	130	2
45	46	1
98	126	5
124	125	4
72	74	1
88	88	2
2	79	1
42	102	3
146	154	1
100	101	1
28	29	2
84	92	1
39	39	8
142	142	1
51	52	1
135	136	2
4	32	2
105	105	5
153	153	8
66	77	2
74	74	4
107	108	5
94	98	1
80	125	2
37	38	2
119	122	1
22	34	1
47	49	2
10	15	3
140	140	6
86	103	3
10	11	5
64	64	9
34	34	5
9	9	5
13	19	1
141	143	3
110	111	5
144	144	5
86	87	3
99	99	3
12	19	1
55	56	2
34	35	3
143	143	1
82	84	2
152	152	4
123	124	2
29	29	4
8	30	2
110	110	2
140	146	1
96	119	2
78	108	2
4	8	4
86	86	1
13	13	1
3	31	1
112	141	1
139	144	2
40	41	1
77	77	4
117	136	3
72	76	3
68	68	2
54	56	2
149	149	5
28	30	2
138	141	2
12	34	3
98	99	1
102	102	5
139	141	2
119	119	1
94	103	2
113	136	1
22	22	7
81	81	1
11	37	1
3	43	3
41	43	1
73	73	2
113	116	1
10	10	2
119	121	1
98	100	3
24	24	2
9	39	4
5	8	3
131	133	1
122	129	1
113	114	2
136	137	2
107	107	1
66	76	4
8	39	2
147	152	2
124	142	1
53	56	3
49	50	3
21	21	1
138	151	1
108	109	1
23	24	3
15	18	1
62	64	1
63	64	4
49	55	1
106	128	2
43	43	3
11	13	1
97	119	3
150	151	1
141	144	1
54	96	1
52	52	2
90	102	2
21	41	1
90	90	1
62	63	4
119	124	1
114	147	1
5	9	1
44	44	1
124	141	1
137	138	1
109	141	1
55	58	1
70	133	1
26	30	1
69	70	1
95	95	1
87	91	1
78	107	1
122	130	2
63	63	1
151	151	1
31	32	2
18	19	1
73	117	1
72	72	1
41	44	1
96	97	1
100	103	1
81	99	1
87	88	1
112	112	1
140	147	2
33	35	1
22	23	2
95	99	1
7	22	1
54	55	1
57	129	1
140	141	1
41	41	1
82	83	1
54	119	1
5	5	1
