109	110	4
31	31	6
104	104	18
52	52	14
59	97	1
112	112	15
42	89	3
10	10	16
48	48	12
95	96	8
75	75	3
87	87	5
81	81	18
43	89	3
9	30	6
129	129	3
118	118	8
63	63	19
105	105	11
63	64	4
0	0	10
121	125	2
123	123	22
112	113	3
104	125	1
84	89	4
72	72	9
124	124	9
96	99	1
119	119	4
18	18	18
5	64	1
73	73	6
46	46	4
114	114	12
88	88	8
7	7	14
19	19	16
91	91	12
27	27	3
33	33	7
3	32	5
121	122	3
5	5	6
15	16	6
116	118	7
16	18	1
65	65	4
59	59	18
127	127	7
99	99	8
54	79	1
51	51	13
58	58	9
2	31	2
50	50	12
25	26	3
78	78	12
26	27	6
131	131	9
91	93	2
72	74	2
70	70	16
115	115	20
40	40	2
57	57	11
42	42	8
111	114	1
49	49	11
121	121	20
64	66	2
77	77	17
61	61	9
133	133	3
5	38	1
129	130	7
125	125	13
3	3	11
93	93	10
30	30	6
10	57	2
2	11	6
83	83	7
0	1	3
113	113	9
117	117	15
89	89	17
6	6	11
118	129	2
14	14	5
132	132	10
6	39	3
114	118	1
13	13	7
116	122	1
44	45	6
95	95	14
32	32	17
43	44	5
96	96	16
57	63	3
64	64	13
69	69	13
65	66	3
58	59	3
122	122	21
128	128	9
47	47	17
88	98	2
4	6	3
71	71	14
85	85	7
43	43	3
102	102	4
93	94	3
111	111	14
128	131	3
96	98	2
56	56	20
62	62	8
82	83	3
67	67	7
23	23	13
46	77	2
110	110	8
39	39	9
82	82	13
53	53	4
29	30	2
17	17	10
91	92	2
113	114	2
34	43	2
105	106	7
124	125	2
105	133	1
41	41	7
116	125	2
79	80	4
90	93	4
7	64	1
68	68	5
128	129	4
101	101	12
13	16	2
111	124	3
75	76	6
98	115	5
59	66	2
1	11	1
42	43	4
108	108	7
80	80	8
41	59	2
19	25	1
21	22	5
45	46	2
1	1	8
54	54	11
11	11	7
108	116	3
9	9	6
28	28	7
130	131	4
86	86	3
64	65	2
98	98	7
52	53	6
28	69	1
126	133	1
44	44	4
15	15	7
20	20	15
70	100	2
12	12	10
55	55	14
92	92	1
21	21	5
74	74	8
86	87	2
89	93	3
120	120	18
94	94	12
55	56	1
6	31	1
128	130	2
79	79	12
13	24	4
118	120	1
38	39	6
51	122	4
98	114	1
88	91	1
54	55	1
107	108	2
29	29	2
47	58	2
19	27	2
22	25	1
109	109	11
55	58	2
18	19	5
42	44	5
26	26	8
125	129	2
14	15	6
12	13	1
111	112	5
34	34	4
84	84	6
83	92	1
59	60	2
4	4	6
88	89	5
80	112	3
18	26	2
76	76	4
16	17	4
116	117	5
60	61	3
85	88	5
19	20	3
25	25	10
10	19	1
60	66	1
72	73	7
107	107	8
6	38	3
8	62	5
39	40	5
4	19	1
116	116	14
60	60	4
1	8	1
65	69	2
81	92	1
43	66	1
56	122	2
94	95	3
32	48	5
114	115	5
81	82	1
69	70	4
2	2	8
9	10	4
127	128	8
17	18	2
100	102	2
84	85	3
120	121	1
125	130	4
118	119	3
2	3	3
13	14	2
97	97	5
80	91	3
8	8	6
114	116	4
71	72	3
12	23	4
1	32	1
13	17	2
37	60	1
53	54	3
60	68	2
48	80	1
126	127	3
106	106	9
16	42	1
66	66	1
24	24	2
46	48	3
48	49	2
89	90	1
28	105	1
100	100	19
95	104	1
100	118	1
70	71	2
1	2	2
94	121	1
126	126	2
3	4	2
62	67	1
110	111	3
38	38	5
10	11	2
80	81	2
75	88	1
74	96	1
100	101	3
61	62	4
20	22	5
90	92	1
123	125	1
81	120	3
103	128	2
104	118	1
73	96	3
103	103	1
66	67	2
114	126	1
99	100	1
14	16	1
112	121	1
56	66	3
115	116	3
16	16	6
5	41	1
92	103	2
45	45	4
55	97	1
20	21	3
32	33	2
90	90	3
44	58	2
69	76	1
7	9	1
63	67	1
78	98	1
39	46	5
34	38	1
127	133	1
119	127	1
22	26	1
42	55	1
63	92	1
5	60	1
33	78	3
1	4	2
129	131	2
10	12	2
20	28	3
76	77	1
9	24	3
47	84	1
33	44	2
7	58	3
27	28	2
41	66	1
72	75	1
101	102	2
46	47	3
85	86	1
18	20	2
12	66	2
54	90	1
50	57	1
108	109	1
22	99	1
68	69	2
123	124	1
19	21	2
57	64	2
23	78	1
22	80	1
22	22	2
62	69	1
81	83	2
55	68	2
96	102	1
9	11	1
7	60	1
67	68	3
40	65	2
25	54	1
49	53	1
98	118	1
41	42	1
116	132	1
97	98	2
118	125	1
117	125	1
8	63	1
19	32	1
31	32	2
56	64	2
54	88	2
49	80	1
17	23	1
24	84	1
24	32	1
3	10	1
130	130	1
94	104	1
56	57	2
112	120	2
38	41	1
24	25	1
125	126	1
56	91	1
74	117	1
