219	219	4
202	202	5
210	210	5
145	155	1
19	19	8
47	54	3
235	238	1
111	112	3
182	189	1
181	181	3
86	86	2
61	62	1
205	205	2
166	166	2
108	114	1
72	72	7
101	101	3
58	76	2
6	8	4
6	153	4
237	240	1
33	34	1
38	38	4
60	159	2
197	197	7
177	177	7
27	27	3
79	101	1
103	103	4
84	92	1
36	36	6
87	87	4
34	34	5
97	97	2
33	33	3
68	69	2
212	212	3
247	247	1
75	96	5
188	188	4
60	60	3
169	170	1
185	190	1
214	218	3
59	59	3
223	223	1
106	106	2
23	23	8
28	150	6
182	182	2
74	74	4
89	243	4
74	247	2
82	145	2
229	229	6
50	50	3
154	154	6
117	117	3
70	71	3
189	189	7
226	226	3
1	1	4
80	81	1
211	211	3
195	196	2
157	157	8
73	209	3
174	191	2
43	43	4
50	107	1
35	36	4
216	216	5
233	233	7
94	94	4
63	64	2
237	239	2
188	229	3
35	35	4
217	225	2
245	245	6
15	16	3
95	95	5
72	209	4
221	221	3
157	177	2
158	172	5
174	174	2
190	190	7
22	22	2
77	77	4
145	145	1
175	176	3
186	226	2
241	243	4
9	10	2
49	49	4
28	28	3
207	211	1
231	233	2
107	107	4
99	99	4
201	201	1
50	114	1
59	200	1
235	235	1
88	88	6
37	37	8
100	100	6
169	169	3
68	68	2
150	150	1
155	155	6
3	5	3
156	156	2
73	73	2
114	118	1
225	225	7
238	238	1
59	101	1
181	241	2
162	162	1
199	199	4
243	243	1
157	159	3
41	41	1
147	147	1
77	147	2
198	199	3
14	14	2
178	178	1
9	9	6
82	85	1
176	176	2
229	230	4
228	228	2
230	230	2
51	52	3
163	183	4
104	104	4
3	3	3
39	43	4
193	193	6
6	6	9
239	239	5
38	39	2
186	188	4
81	82	1
50	232	2
92	92	1
231	231	1
152	152	1
151	151	3
162	177	2
165	165	4
4	4	2
236	237	2
194	195	2
167	167	2
75	91	1
71	98	3
154	205	2
113	113	5
105	108	1
234	234	4
183	184	2
25	42	3
196	196	4
31	31	1
81	89	3
94	95	3
57	79	4
115	115	1
157	158	4
4	6	2
57	57	3
218	219	4
71	109	4
212	225	2
96	97	3
78	78	2
179	191	1
170	247	1
170	249	1
108	108	4
45	45	9
12	12	2
24	24	1
241	246	3
118	118	2
62	160	1
186	231	2
209	210	1
187	187	3
206	206	1
22	23	3
58	58	1
204	205	3
168	168	1
109	109	4
199	200	3
20	20	7
50	94	1
154	155	6
215	215	1
18	18	3
51	51	2
85	85	4
36	40	2
42	42	2
220	220	2
52	53	1
200	201	1
55	55	2
215	239	1
17	62	1
162	163	1
48	48	3
183	183	2
40	41	3
31	33	2
8	8	6
208	208	1
226	227	1
159	159	1
17	17	3
47	103	1
19	62	1
53	55	2
83	84	3
164	164	3
170	170	1
114	119	1
192	197	1
62	62	1
56	56	2
26	26	2
225	226	1
91	91	1
71	71	2
96	96	1
32	32	4
171	171	1
25	25	1
180	181	1
227	227	4
232	233	1
46	46	2
24	44	2
67	184	2
228	230	2
247	248	2
71	97	2
110	110	2
112	112	4
173	173	1
64	95	4
56	57	2
55	101	3
81	81	3
70	98	1
54	92	2
188	189	1
18	19	6
210	213	1
102	102	2
207	207	4
193	196	4
242	242	1
157	199	3
169	177	1
153	153	3
14	15	1
84	85	1
36	41	1
63	95	2
226	228	1
102	104	1
119	119	1
211	219	1
213	225	1
152	153	1
171	180	1
84	84	4
12	14	1
217	217	3
49	115	1
53	53	4
210	211	1
212	218	1
182	240	1
240	241	1
94	99	1
43	45	1
242	243	3
180	212	1
203	203	3
6	7	2
79	99	1
120	144	2
173	174	2
164	229	2
220	224	1
213	213	1
198	198	1
1	2	1
78	79	1
7	8	3
64	80	1
19	156	1
75	80	2
52	52	2
168	245	1
66	66	2
18	156	1
233	234	1
98	98	2
172	172	1
237	237	2
32	150	3
159	176	1
144	144	1
15	15	2
156	161	1
209	215	3
193	197	1
106	115	1
67	247	1
30	30	1
67	183	1
180	180	1
93	109	1
162	178	1
10	10	2
101	103	1
171	247	1
61	87	1
90	90	1
166	173	1
170	178	1
25	43	1
21	21	2
57	80	1
158	173	2
93	93	1
111	209	1
64	75	1
66	70	3
246	246	1
172	178	1
54	55	1
184	184	1
236	236	1
38	41	1
63	88	1
244	244	1
192	192	1
160	160	1
111	236	1
102	103	1
227	229	2
73	171	1
241	241	1
199	201	1
2	151	1
111	111	1
178	179	1
