86	91	1
107	108	8
102	103	4
67	67	20
71	72	16
34	34	13
29	29	24
44	44	33
57	57	14
92	92	27
69	71	2
25	27	11
111	112	7
84	85	11
66	67	18
43	43	24
84	84	21
25	84	4
40	41	5
53	53	26
94	95	6
61	72	4
106	107	2
32	32	14
55	55	11
76	76	27
21	21	17
45	45	27
100	103	4
47	48	7
43	44	14
85	85	26
36	36	19
20	20	29
111	111	22
80	80	18
84	94	2
29	30	5
58	58	24
42	42	19
24	24	29
103	107	6
33	33	11
107	107	22
86	86	15
77	78	5
25	25	18
48	49	6
54	55	11
98	99	12
30	30	21
27	28	8
94	110	2
59	59	20
61	62	10
32	34	5
24	47	1
100	101	7
66	66	14
77	77	14
112	113	10
94	94	36
48	48	21
60	60	34
73	73	22
38	38	28
95	95	20
101	104	3
36	38	1
70	70	9
33	46	4
42	43	10
53	54	11
37	38	4
106	106	14
85	86	9
83	84	9
54	67	4
89	91	1
65	65	27
96	97	6
79	79	27
98	103	5
22	22	18
82	82	21
104	104	10
84	87	1
29	100	1
91	91	24
63	65	3
40	40	8
103	103	27
21	78	3
76	82	3
49	49	33
68	69	9
28	28	20
23	53	1
45	94	12
35	35	31
46	46	15
49	91	1
63	64	3
71	71	22
64	74	5
56	56	17
73	76	2
36	68	3
56	91	2
103	104	7
101	101	6
52	52	13
22	23	16
109	110	5
82	92	3
86	112	4
110	110	19
45	111	6
83	83	15
62	62	13
75	75	13
31	32	6
68	68	19
110	111	3
37	37	13
44	45	9
96	96	15
41	41	9
38	39	9
78	78	19
31	31	21
35	41	2
65	68	6
59	60	23
58	60	7
39	39	13
31	34	3
108	108	9
61	61	6
46	47	8
56	71	4
43	45	3
69	69	25
73	75	5
70	73	3
50	51	4
93	94	8
99	113	2
96	98	6
91	109	2
76	105	5
109	109	9
88	88	11
39	40	3
103	106	3
93	93	12
51	52	17
37	103	2
89	89	2
76	77	1
74	74	19
61	83	2
98	98	12
25	26	4
113	113	16
50	50	27
74	75	4
92	93	6
24	25	7
51	51	5
93	112	2
96	113	4
108	111	1
88	89	8
86	87	3
112	112	14
87	87	13
32	35	3
59	61	7
19	48	8
87	88	1
89	90	5
36	72	4
47	47	14
72	80	2
54	54	26
33	34	11
90	90	8
100	108	4
81	81	7
27	27	10
101	107	5
114	114	22
102	102	9
62	65	2
35	36	13
95	96	6
95	98	1
76	91	4
52	55	2
34	41	2
23	26	2
52	53	6
115	115	5
74	76	5
50	102	3
97	107	2
62	75	1
67	69	5
26	29	3
35	39	2
97	97	20
25	28	4
25	29	2
99	100	3
30	31	7
58	59	1
75	76	7
94	102	7
68	70	8
70	71	6
104	106	2
29	31	1
36	37	6
87	90	2
90	91	1
104	107	1
38	40	1
63	63	9
45	46	7
29	45	2
31	47	3
24	26	2
22	111	1
77	98	3
101	103	5
32	46	2
23	23	16
20	61	2
28	42	4
81	85	2
21	22	10
64	64	10
79	81	1
113	114	5
26	26	12
100	100	10
64	65	6
50	52	2
32	33	5
50	100	1
23	112	4
82	83	3
23	31	4
72	72	11
70	72	2
59	84	2
93	95	3
77	97	2
71	73	3
33	45	3
78	86	2
49	50	6
110	113	2
98	107	2
59	74	1
49	51	6
91	92	4
80	81	8
56	57	3
63	72	2
39	41	1
111	113	6
72	73	1
60	61	3
26	27	1
88	90	5
39	105	4
20	53	2
80	84	1
41	44	2
95	114	2
52	54	3
26	31	1
88	91	4
99	99	7
79	80	8
33	47	3
108	109	2
21	24	3
41	42	4
34	35	7
67	68	2
93	97	1
97	98	6
95	100	3
20	21	3
105	105	3
105	106	2
24	85	1
79	91	3
28	29	6
66	74	1
57	91	1
57	68	1
47	60	1
65	67	2
21	73	3
99	101	2
78	79	10
101	102	3
31	35	1
57	102	1
78	98	2
36	43	1
29	32	3
81	96	1
110	112	1
54	62	1
60	97	2
31	42	1
92	107	1
53	58	1
92	109	1
42	45	1
52	111	1
23	25	3
24	29	1
104	105	3
95	112	1
42	44	1
76	86	2
47	49	2
34	44	1
26	32	2
22	46	1
81	82	1
60	91	2
25	73	1
53	59	2
93	107	1
35	71	2
89	97	1
22	32	1
77	86	1
30	111	1
20	50	1
28	43	1
98	100	1
99	104	1
24	53	1
74	103	1
77	79	2
50	55	1
61	66	2
74	105	1
24	28	1
21	62	2
19	53	1
77	87	1
25	31	1
56	59	1
84	113	3
61	71	1
57	59	1
84	86	1
23	34	1
25	113	2
43	96	1
70	74	1
22	62	1
36	46	1
22	28	1
23	24	1
103	105	1
94	97	1
65	66	2
41	100	1
