52	53	2
142	142	2
79	79	3
90	91	4
133	134	1
88	89	2
9	9	5
42	42	7
35	36	1
107	109	1
8	9	4
72	72	3
89	90	3
64	126	2
83	115	1
102	102	2
34	40	1
27	27	7
107	108	7
125	125	9
118	119	2
20	20	5
141	141	10
36	37	2
88	107	2
133	133	7
134	136	2
113	113	4
135	135	2
73	73	5
9	11	3
97	98	3
11	11	3
127	127	5
6	6	6
95	95	2
9	41	2
109	109	5
3	5	3
132	132	5
14	17	3
106	106	2
39	39	7
35	35	5
41	41	2
72	107	5
54	54	2
56	56	1
88	88	4
3	3	8
53	59	1
105	105	5
122	122	7
25	25	5
83	83	6
117	118	3
110	119	3
13	13	3
137	138	2
108	109	2
62	62	4
50	50	4
40	41	3
140	140	5
116	117	5
96	96	3
113	115	3
119	120	1
75	76	3
1	1	2
18	18	2
100	101	2
86	115	1
71	71	3
55	59	3
97	97	4
131	131	2
66	66	3
117	117	4
99	134	2
49	51	1
30	30	1
30	31	1
136	137	1
125	127	1
55	56	1
98	103	2
37	37	3
22	22	2
2	57	2
26	29	4
29	31	1
18	19	6
11	41	1
136	136	5
74	74	3
41	49	1
2	2	2
5	5	1
68	68	1
120	121	3
52	52	9
61	61	5
98	98	3
95	103	1
22	26	1
8	8	2
63	63	2
72	78	2
123	123	2
137	137	2
138	138	4
59	66	4
126	126	2
82	82	1
91	91	4
48	69	3
123	124	4
114	115	1
109	116	3
33	33	1
57	58	3
120	120	4
60	97	1
118	118	4
145	145	3
90	103	1
68	70	1
91	92	5
63	70	4
138	139	3
13	30	1
32	33	1
140	141	1
40	40	2
81	81	2
76	76	2
59	61	2
0	1	1
96	97	3
29	29	2
115	115	1
15	16	2
77	80	1
99	100	1
63	108	2
17	17	2
121	121	1
38	38	2
75	75	1
125	133	1
99	99	3
31	32	1
134	135	1
141	142	1
111	111	2
143	143	1
55	55	1
92	92	1
128	128	1
31	38	2
105	123	1
57	57	2
14	14	1
32	32	3
4	6	2
67	67	1
101	102	1
93	93	1
28	28	3
38	77	1
23	23	2
11	38	1
58	58	1
92	97	1
87	107	1
78	78	1
143	144	1
81	82	1
142	143	1
127	129	1
139	139	1
