48	49	6
75	81	3
5	5	12
60	60	7
24	24	20
23	79	1
4	4	6
0	0	8
0	1	6
80	80	9
84	84	12
53	54	8
54	54	11
19	19	15
1	1	15
85	86	3
46	47	4
76	76	14
79	79	9
70	84	1
8	8	11
13	13	2
80	82	2
50	50	10
67	67	16
72	72	15
89	89	18
7	7	4
21	21	5
23	24	3
66	66	12
84	85	3
59	59	8
21	22	2
49	49	6
63	63	11
86	86	19
3	3	10
31	31	4
55	55	6
10	10	8
23	23	8
22	22	3
8	56	1
51	51	15
57	57	14
61	61	4
47	48	4
74	74	8
73	73	18
17	17	8
58	58	10
20	20	6
7	8	6
30	30	11
83	83	4
51	55	6
28	28	8
4	18	6
86	87	1
2	2	8
48	48	10
18	18	7
77	77	3
67	74	3
60	61	4
27	27	5
87	87	8
14	14	12
80	87	2
69	69	4
48	79	4
47	47	8
58	59	2
64	64	14
15	15	8
28	31	2
66	78	1
53	53	7
13	79	2
72	73	6
64	65	6
62	62	7
4	6	3
34	34	10
12	12	4
12	30	3
6	6	4
68	68	17
25	25	3
14	23	4
46	82	2
77	80	1
20	27	2
52	53	3
65	66	5
12	13	1
53	58	1
24	28	2
72	74	1
8	9	2
75	75	4
70	70	7
50	51	4
29	29	2
68	69	2
81	81	8
28	30	2
71	72	4
56	56	10
88	88	2
51	71	4
49	69	1
59	82	3
78	79	3
15	19	4
47	84	5
52	63	1
86	88	1
23	30	2
63	65	3
51	52	4
50	53	2
0	90	2
71	84	2
10	11	2
49	58	3
85	85	7
26	26	7
0	74	3
52	52	5
58	61	1
2	52	1
46	46	3
13	16	2
82	82	6
2	20	2
33	82	1
71	71	2
23	28	2
63	64	4
1	2	2
59	62	2
33	33	5
51	87	2
80	81	3
70	71	3
67	68	1
65	65	4
6	7	2
76	77	1
26	27	2
2	3	2
18	19	1
16	17	8
66	69	1
19	50	3
52	62	2
19	49	3
79	80	1
7	66	2
5	50	1
66	83	1
13	26	1
9	9	4
56	57	1
69	87	2
59	60	1
10	12	1
14	15	1
9	78	1
31	77	1
11	84	2
54	55	2
12	14	2
77	78	1
14	75	1
61	62	6
74	75	1
5	6	2
28	29	2
69	86	1
58	63	1
87	88	1
77	82	2
68	72	1
56	88	1
80	83	2
10	14	1
19	25	2
10	21	1
4	11	1
48	62	1
10	13	1
82	83	3
88	89	3
11	11	3
9	83	1
78	78	1
32	34	1
84	86	1
2	30	1
46	48	1
27	76	1
77	79	1
58	88	1
48	63	1
22	26	1
77	83	1
14	20	1
