4	4	4
101	103	2
116	118	5
29	29	4
100	107	2
123	136	2
13	23	1
140	142	5
120	128	4
110	112	4
55	56	2
64	76	3
4	5	6
98	98	4
18	18	3
75	75	3
41	42	2
31	38	3
29	33	1
28	28	2
63	64	3
128	128	3
81	81	11
99	99	2
86	88	6
63	63	4
52	54	4
47	47	4
138	140	4
125	128	2
51	53	3
125	133	1
127	141	3
53	53	5
3	4	3
114	119	4
25	38	6
63	71	2
23	26	1
19	30	3
2	13	3
108	112	1
33	33	4
31	31	3
136	137	4
34	34	5
95	95	7
8	9	3
70	79	2
4	60	1
102	102	7
80	130	1
13	13	3
84	85	9
57	66	3
74	74	10
130	130	5
131	132	2
97	98	2
78	78	2
90	104	1
139	139	3
112	112	2
23	24	3
125	126	1
90	99	1
0	0	2
130	132	1
98	99	1
140	140	13
64	68	2
33	34	3
72	72	8
14	14	5
116	123	1
91	91	8
103	103	12
95	106	1
104	106	2
98	117	2
124	135	8
118	119	1
141	141	3
2	2	1
55	55	6
20	20	6
120	121	4
112	129	5
122	123	5
128	129	3
2	5	2
42	42	7
38	41	3
110	125	1
94	94	7
78	91	2
38	38	1
18	32	2
104	104	3
73	73	5
20	22	2
122	122	4
52	56	5
102	120	1
1	12	5
62	62	4
124	124	8
119	130	5
1	34	3
56	56	1
121	121	6
77	77	2
19	21	1
23	54	1
116	116	2
32	33	3
115	121	1
51	85	3
37	39	1
58	66	1
93	93	5
54	54	10
75	78	2
123	134	4
70	72	3
43	47	3
4	66	2
110	110	2
13	14	3
43	43	1
86	86	5
22	23	1
69	79	4
17	17	6
87	87	5
83	83	2
91	105	2
76	77	3
145	146	3
81	84	1
142	142	8
36	37	1
0	2	2
113	120	1
116	117	1
99	104	2
23	23	2
54	56	6
52	53	3
7	20	2
138	138	1
130	134	3
0	9	4
99	101	2
91	106	3
126	126	2
118	120	2
37	37	1
96	96	3
21	36	1
8	8	6
72	73	2
30	34	2
50	50	5
67	67	3
125	132	2
15	25	2
139	140	2
114	114	6
108	111	2
144	144	1
10	22	3
40	41	1
59	60	5
28	55	4
3	13	3
146	146	2
83	84	2
97	97	3
58	58	7
58	59	4
19	42	1
93	102	2
122	130	1
111	120	3
107	108	2
140	141	2
32	43	2
74	75	3
59	59	1
59	69	2
91	93	1
68	68	1
71	71	6
48	53	2
49	56	1
124	125	1
78	90	3
12	12	4
20	23	1
73	74	3
21	21	3
10	13	1
22	30	3
30	30	8
16	16	6
27	29	3
112	125	3
89	91	3
121	122	1
69	69	3
29	34	3
123	126	2
118	118	5
119	128	2
130	131	1
47	49	1
58	61	2
140	144	2
25	36	1
62	63	2
70	80	3
69	70	2
127	129	2
124	128	1
35	36	1
24	24	8
132	133	2
115	117	1
129	129	1
105	105	5
32	41	2
121	125	1
119	137	1
25	25	9
67	70	7
117	120	2
85	85	1
135	138	1
70	73	2
70	70	3
120	120	2
122	139	1
108	108	2
112	128	2
19	19	2
68	70	3
29	31	2
92	93	1
26	26	2
99	100	3
49	49	2
18	19	1
76	92	2
144	146	1
20	21	2
27	37	1
5	67	2
22	22	1
19	33	1
134	134	6
48	48	2
132	140	1
84	84	1
83	86	1
80	81	3
10	10	1
122	133	3
109	109	2
4	8	1
135	135	2
81	130	1
1	35	2
12	13	1
61	62	1
69	93	3
100	120	1
39	39	2
145	145	1
39	41	1
100	118	1
121	123	1
123	127	2
62	66	1
105	106	3
117	117	2
28	38	3
93	94	1
141	143	1
133	136	1
9	10	2
53	65	3
124	133	2
81	83	2
125	125	1
72	81	1
111	116	1
65	66	2
122	125	1
82	83	1
49	50	5
89	90	2
15	16	2
141	142	2
5	6	1
107	109	1
131	131	1
101	115	1
36	41	1
57	57	2
19	27	1
5	5	2
90	90	1
56	66	1
80	83	1
143	143	1
68	79	3
88	101	2
127	127	2
94	129	1
123	123	2
15	75	2
133	133	2
39	40	2
26	27	1
15	26	1
87	88	1
10	17	1
80	80	1
90	102	1
12	23	1
71	76	1
139	144	1
65	65	2
104	119	1
137	137	2
123	124	1
113	113	1
38	57	1
126	138	1
70	82	1
1	3	1
143	146	2
9	9	1
66	67	1
87	89	1
87	90	1
55	64	1
79	80	1
132	132	1
73	80	1
61	61	1
115	115	1
34	55	1
114	118	1
113	115	1
76	76	1
51	58	1
88	90	1
128	141	1
17	18	1
27	30	1
134	135	1
