93	97	4
101	101	7
43	44	4
137	137	12
107	127	1
128	128	20
96	96	13
5	45	1
117	118	4
141	141	29
100	100	10
54	70	1
52	54	7
131	132	17
137	138	13
50	50	12
110	111	5
51	51	12
31	49	4
38	38	8
20	20	9
112	133	4
7	8	8
114	114	11
47	48	8
65	65	4
127	127	13
56	87	4
65	66	5
73	73	16
82	83	4
85	100	3
104	104	14
37	37	15
27	28	5
152	152	14
119	119	5
103	103	12
155	155	15
40	89	2
28	30	8
122	122	19
106	107	10
56	57	6
144	145	8
91	91	10
67	67	12
39	39	11
81	82	4
53	53	11
43	43	14
83	84	9
107	107	13
64	66	2
150	150	9
83	87	1
106	130	3
121	121	9
156	158	5
130	130	7
126	127	5
134	134	5
132	134	2
98	98	12
111	111	9
105	105	17
156	157	7
31	31	14
47	47	10
48	48	5
87	89	4
44	44	8
120	120	11
17	42	2
34	45	1
53	54	8
147	147	14
108	109	12
68	68	11
113	113	11
69	69	12
3	3	8
116	150	4
118	125	1
77	147	2
94	94	18
113	114	12
151	151	15
149	149	7
75	75	11
11	11	13
50	55	2
85	85	19
36	36	7
143	148	2
103	105	4
154	157	5
0	44	1
110	112	1
8	8	11
5	119	2
76	76	4
101	105	3
48	49	6
96	97	4
87	87	3
84	85	6
78	79	8
123	144	3
95	95	7
92	134	2
72	72	6
86	135	2
0	73	5
39	40	2
21	21	6
133	133	10
76	77	4
84	84	11
3	5	2
152	154	2
27	27	13
12	13	6
3	19	2
0	41	5
145	145	6
148	148	10
83	105	6
4	44	4
19	21	2
32	33	4
51	52	10
41	42	7
132	132	12
97	97	7
19	24	2
139	140	4
25	25	18
2	2	16
52	52	11
152	155	1
69	70	4
135	135	14
23	23	12
153	154	1
5	31	2
64	64	12
80	80	14
40	40	12
107	118	1
120	121	3
4	5	7
124	124	10
7	7	25
15	16	4
115	115	7
125	132	1
126	126	9
81	81	12
104	105	7
138	138	15
99	99	11
126	135	3
12	12	14
42	43	11
145	146	3
34	36	3
14	14	3
26	26	13
46	46	4
103	106	3
54	54	4
35	36	7
140	140	16
146	146	15
91	92	7
148	150	1
0	1	2
105	106	7
77	83	2
35	37	1
84	111	7
15	18	3
127	145	6
144	144	18
88	89	9
63	70	2
92	93	7
108	108	10
106	109	2
66	69	1
51	53	6
90	90	5
95	97	4
117	117	16
25	26	6
115	120	1
112	112	8
109	109	14
118	118	12
40	71	2
107	133	4
81	84	4
56	56	6
125	125	14
98	99	3
16	16	11
21	37	2
80	82	3
138	150	1
8	19	1
8	9	7
154	154	11
71	71	16
7	9	2
158	158	7
5	22	1
128	129	3
41	41	9
132	133	5
108	126	2
19	35	3
123	124	2
102	130	2
112	116	1
78	78	8
33	88	1
6	6	7
131	131	4
33	33	7
70	70	9
45	47	3
117	151	1
114	115	2
5	5	13
118	137	4
95	130	8
70	71	5
16	42	2
155	156	1
42	42	7
125	126	7
112	113	1
117	152	1
49	54	2
9	9	5
93	93	7
45	49	5
30	30	4
102	102	2
63	63	5
35	35	10
49	50	3
123	150	1
139	142	1
85	146	2
97	98	1
143	143	8
77	77	12
11	19	2
96	100	3
79	80	5
112	123	3
17	18	4
106	111	1
15	35	2
79	79	16
156	156	11
55	56	3
89	89	3
35	38	4
88	88	7
67	95	2
28	28	15
146	148	2
10	10	14
54	55	3
30	34	6
85	137	1
1	1	4
153	153	9
85	138	1
65	151	1
157	157	20
87	119	5
83	83	9
38	43	4
124	125	1
66	66	6
77	79	3
98	112	1
22	22	18
19	20	6
91	132	5
111	112	4
29	30	2
139	139	5
135	148	2
140	142	5
123	123	9
146	157	4
57	57	5
37	46	2
89	90	6
66	71	1
89	106	3
49	49	9
130	131	6
107	110	2
90	132	3
147	148	5
86	86	5
57	61	2
122	136	2
127	144	1
26	39	3
109	142	3
31	32	4
110	110	6
24	24	6
122	123	1
93	94	2
0	0	6
15	15	10
85	86	5
101	102	3
97	133	3
13	14	6
19	19	3
29	29	7
8	10	1
136	137	10
87	100	1
142	142	10
92	92	6
17	17	2
18	18	9
31	37	2
19	36	1
83	104	4
99	111	3
79	102	1
13	13	9
100	101	1
127	138	1
154	155	4
108	123	3
75	148	1
5	11	2
50	53	1
38	39	8
23	24	4
80	84	2
4	4	9
42	46	2
107	108	3
55	55	3
35	49	5
81	114	4
12	96	3
105	107	2
89	133	3
86	87	1
45	45	1
96	98	3
113	115	2
113	117	2
23	25	2
54	56	2
32	41	3
90	135	2
34	34	1
91	93	2
121	146	1
152	153	1
52	131	1
3	44	5
131	133	1
33	34	4
82	82	10
3	4	3
16	39	1
99	100	1
22	23	3
116	118	1
40	67	2
53	55	2
85	87	4
79	81	4
34	49	2
36	47	1
67	71	1
84	86	1
129	130	2
136	138	1
109	110	8
10	17	5
98	111	1
86	118	1
116	116	11
129	129	5
47	71	2
89	117	5
33	36	2
112	115	1
2	44	1
14	19	1
8	35	1
76	78	2
55	159	2
1	44	2
111	119	1
116	117	5
50	51	6
153	156	3
14	15	3
36	38	2
137	149	1
80	104	1
66	67	1
106	106	4
61	61	1
136	136	7
24	28	1
125	134	1
146	154	1
11	12	2
143	144	1
107	114	1
110	120	1
8	11	2
5	13	2
28	39	1
4	49	3
48	52	1
75	130	1
102	103	1
40	45	1
96	133	2
143	149	2
109	111	1
94	96	2
119	120	4
149	150	5
103	108	2
72	73	2
75	140	1
128	150	1
13	19	2
52	53	3
36	37	5
80	81	3
133	134	5
92	94	1
62	155	3
114	116	1
89	119	1
28	67	2
64	72	1
109	123	2
47	63	1
44	45	3
138	139	5
91	135	4
87	88	2
118	119	2
13	34	1
146	147	2
17	46	2
45	46	5
148	151	1
18	19	2
112	124	2
6	18	1
21	22	2
62	62	2
32	34	3
29	38	2
14	68	2
1	2	1
95	96	3
68	85	1
51	95	1
137	142	2
26	27	1
50	54	1
134	140	1
18	42	1
66	70	1
88	112	1
128	153	1
123	126	1
0	157	1
73	78	1
20	28	1
151	152	1
66	83	1
29	32	1
127	128	1
134	135	1
10	12	1
113	144	2
6	12	1
46	47	1
89	94	1
0	37	1
104	106	1
138	140	2
23	26	2
12	14	2
100	140	1
69	84	1
32	42	1
94	134	1
113	116	1
28	29	1
20	21	1
91	134	1
24	25	3
125	140	1
98	103	2
125	142	1
22	34	1
62	63	1
111	113	2
98	132	1
111	127	1
49	51	1
109	140	1
52	99	1
42	68	1
103	104	1
3	40	1
31	48	1
10	147	1
126	136	1
115	119	1
20	24	1
79	136	1
151	157	1
142	144	2
158	159	1
130	147	1
28	36	1
23	94	1
115	116	1
62	64	1
135	149	1
31	62	1
91	137	1
21	34	1
30	31	1
55	85	1
2	3	1
150	151	1
82	116	1
