59	59	12
108	110	6
113	113	14
98	98	16
32	32	12
28	28	15
25	61	3
26	27	4
86	86	11
53	54	8
109	109	5
71	73	1
29	29	10
73	73	5
76	76	4
61	61	13
22	22	4
32	34	4
24	24	8
111	111	7
55	55	11
84	84	8
46	46	2
71	71	4
79	79	11
91	91	5
45	46	2
40	60	2
53	67	8
97	97	8
59	60	2
80	80	10
48	48	13
42	42	6
25	25	8
103	103	7
74	92	4
43	73	3
93	93	11
64	65	3
35	41	1
20	20	2
33	34	5
85	96	2
102	102	13
47	50	4
110	110	10
79	93	3
71	72	5
101	101	8
79	81	2
45	45	10
41	41	10
90	97	1
74	74	10
20	22	3
49	49	9
49	50	2
38	39	5
102	105	4
27	29	5
77	77	3
24	50	1
99	99	7
21	22	8
107	107	5
67	68	2
111	113	10
100	100	5
70	70	6
69	69	18
61	62	3
27	27	19
52	52	8
75	75	8
95	95	7
44	44	7
78	78	10
88	90	3
58	59	2
75	76	1
35	72	5
63	63	6
65	65	5
38	38	4
56	56	4
59	64	2
31	31	7
93	94	6
54	54	5
79	80	3
32	94	4
33	33	10
84	92	2
72	72	6
26	26	3
86	87	4
62	67	4
106	107	5
74	86	1
91	112	1
68	68	7
108	108	2
67	67	7
113	114	1
51	51	4
85	108	2
102	103	3
83	83	4
89	91	4
39	39	10
92	93	1
47	47	4
43	43	3
28	29	4
48	49	4
32	33	2
79	92	3
108	113	3
54	114	2
41	42	1
78	81	2
50	50	4
112	112	7
95	96	4
114	114	3
34	35	3
43	44	5
27	31	2
36	95	3
51	60	2
52	114	2
44	45	4
94	94	5
95	97	4
55	70	3
26	41	2
35	35	8
21	21	4
94	95	3
96	98	2
85	87	4
64	64	5
55	71	1
58	58	4
40	41	1
90	90	2
37	38	1
82	82	2
78	91	4
51	52	1
65	66	2
72	73	1
89	90	4
30	30	4
39	40	3
73	74	3
36	36	2
57	57	3
34	34	5
66	66	2
29	33	1
96	113	2
100	114	1
82	83	3
76	87	1
103	104	2
83	84	7
60	61	3
56	70	2
76	80	2
106	106	1
56	61	2
27	30	1
96	96	6
40	40	2
68	69	3
85	86	1
94	97	2
109	112	3
62	65	1
110	112	1
96	101	2
84	103	2
44	58	1
97	98	1
31	34	1
63	64	4
53	53	3
27	47	2
36	93	1
37	70	1
100	107	1
109	110	1
52	87	4
33	93	1
54	67	1
91	102	3
62	63	1
105	107	2
34	42	1
105	106	1
81	81	1
62	62	3
107	108	1
28	33	2
50	51	1
86	103	1
58	60	2
88	88	1
60	60	1
57	59	1
88	109	2
98	99	3
33	45	1
20	24	1
64	69	1
52	59	1
26	28	1
103	109	1
84	102	1
56	74	1
85	85	1
81	82	1
75	92	1
74	75	1
30	34	1
33	50	1
88	89	1
