131	131	3
129	135	2
23	39	1
20	20	7
111	113	6
9	16	6
12	12	14
150	150	6
31	32	5
37	43	2
103	103	4
21	22	6
77	96	3
26	31	3
119	132	3
29	34	6
139	139	12
14	15	1
21	35	4
37	37	6
77	89	1
153	154	8
74	74	6
15	15	8
15	16	2
144	144	3
39	50	2
65	68	2
109	114	2
110	129	2
8	16	1
11	13	3
142	142	7
2	4	6
117	117	7
125	129	8
124	137	1
147	148	3
92	97	3
13	24	7
124	131	4
138	138	9
79	79	12
3	14	2
78	82	1
41	43	2
29	30	2
94	109	1
132	134	3
94	103	2
77	78	1
128	129	2
19	29	2
138	141	6
10	10	3
36	37	2
40	40	6
133	133	6
10	23	2
132	132	4
94	107	3
29	39	3
13	16	1
25	38	3
80	93	2
145	145	2
93	107	3
107	107	5
34	34	3
39	39	5
27	77	2
28	68	1
20	22	4
104	114	2
150	153	3
6	6	4
144	146	3
134	134	4
66	77	10
97	97	3
136	136	7
90	100	3
106	106	6
105	125	5
136	139	1
49	49	3
14	16	4
22	24	2
108	108	5
138	149	4
110	110	10
26	26	5
115	131	3
62	66	1
122	131	2
53	57	10
79	81	7
71	82	4
17	19	4
33	39	2
132	133	6
109	109	6
8	14	3
134	135	2
82	82	6
12	13	2
113	113	9
98	98	6
137	148	4
120	121	3
5	6	3
69	88	2
146	146	14
7	23	5
21	23	4
41	48	1
13	14	4
149	152	5
29	41	10
114	114	8
76	76	7
72	89	1
49	50	7
4	5	7
122	141	1
86	87	1
24	25	5
64	64	1
119	122	1
118	131	1
152	152	7
26	33	1
40	43	4
25	26	6
113	141	2
123	123	3
146	153	1
8	10	5
27	121	4
14	14	6
40	41	2
137	153	3
133	143	4
124	128	1
21	21	8
104	121	5
8	8	20
94	94	2
114	129	3
116	120	1
47	52	3
124	124	10
132	148	1
16	18	3
124	126	3
22	23	4
3	3	4
28	37	2
41	41	4
17	18	3
31	45	1
45	45	7
128	128	1
27	46	3
29	29	12
67	77	4
20	34	1
105	111	3
104	104	7
135	145	2
55	57	2
66	80	3
69	69	2
51	53	2
80	83	4
24	26	1
25	35	5
150	151	4
109	116	2
113	124	4
112	113	3
131	147	6
18	19	3
37	49	6
142	152	4
100	100	4
31	31	6
83	83	5
113	122	4
44	44	8
85	85	4
71	85	1
5	5	3
76	87	2
25	41	4
2	2	5
65	65	4
35	35	6
24	36	3
44	46	3
42	43	7
118	124	5
9	9	3
130	149	4
127	129	6
44	87	1
5	7	4
145	154	3
51	51	5
147	147	2
76	84	2
126	126	3
22	22	5
13	15	1
47	55	4
61	61	3
23	23	2
103	129	4
43	46	1
27	30	3
124	141	4
36	45	3
120	122	3
112	118	9
117	125	1
66	66	2
93	108	1
50	81	1
18	18	6
18	32	2
87	108	2
43	43	2
122	127	2
11	11	4
33	33	5
40	50	3
46	46	1
138	140	1
97	121	2
142	147	4
129	129	2
3	4	5
80	94	3
149	151	3
116	139	3
45	54	5
127	130	3
95	96	4
38	43	4
57	58	3
97	104	4
135	135	4
105	105	4
25	30	2
135	136	4
141	146	1
46	47	3
100	102	8
17	17	7
36	48	1
14	122	1
119	119	5
54	54	2
123	138	2
108	111	1
135	147	1
4	4	4
31	35	2
115	119	8
81	83	4
16	25	1
36	47	1
13	13	2
138	139	6
142	150	1
25	25	5
37	48	2
85	86	2
118	118	4
95	109	1
37	42	7
28	32	2
71	73	2
128	143	2
148	148	4
148	149	3
121	128	3
68	84	1
57	57	2
122	122	4
143	146	4
94	111	3
29	40	5
128	133	1
134	148	4
9	18	3
5	14	1
113	118	2
27	27	2
99	102	1
105	110	3
121	122	2
22	38	2
28	30	2
28	35	3
87	100	2
30	43	2
3	7	2
99	99	6
125	125	1
6	14	2
43	53	2
47	51	4
105	120	2
79	100	2
144	153	2
131	149	2
86	86	1
33	34	2
127	127	5
28	28	5
71	76	2
14	27	2
102	102	2
71	122	1
100	101	5
22	36	1
70	74	1
96	97	5
43	81	2
145	148	1
121	121	4
48	50	6
129	136	2
24	27	3
113	114	6
17	31	3
120	120	1
16	30	1
79	93	2
42	42	4
114	121	2
75	78	4
123	135	1
145	149	2
109	111	3
73	73	3
68	73	2
76	79	1
132	135	3
72	82	3
135	143	1
13	22	2
108	113	2
89	93	2
6	24	2
73	82	3
74	84	2
31	33	1
29	36	2
104	118	1
47	47	2
30	38	4
72	74	2
80	80	2
121	123	2
84	97	2
12	30	3
130	130	4
107	109	1
8	17	2
109	112	2
128	135	2
26	29	1
130	133	2
114	131	2
117	118	3
25	39	3
143	145	6
55	55	2
122	123	3
22	39	1
116	131	2
50	52	1
153	153	1
22	83	4
3	5	3
140	153	2
33	38	1
106	111	1
11	15	2
68	68	4
142	153	2
128	137	1
57	62	2
35	45	1
143	143	4
105	116	4
143	153	3
154	154	6
46	69	1
70	72	1
136	145	1
134	149	1
96	109	2
109	128	1
19	22	2
10	12	3
41	44	1
16	26	1
20	25	2
92	92	5
36	49	1
103	116	2
97	108	5
151	151	6
35	46	1
7	19	1
112	116	2
36	36	6
45	47	4
128	130	2
16	21	1
28	33	2
22	25	1
122	140	1
100	104	1
98	141	3
95	98	3
138	153	1
125	126	3
67	68	2
35	51	2
99	100	2
110	127	2
148	153	1
106	107	2
114	116	1
2	3	1
119	136	2
95	100	2
142	143	2
70	98	2
30	30	3
125	135	1
84	96	2
137	142	3
128	138	4
5	12	1
125	136	1
53	53	2
151	152	1
24	37	1
110	111	3
96	102	2
38	39	3
80	84	1
123	126	2
67	82	2
111	120	1
137	149	1
99	105	1
26	36	1
64	66	1
16	16	1
140	141	2
142	144	1
48	49	1
7	13	2
6	10	3
54	56	2
41	42	2
101	101	2
75	79	1
20	32	2
4	16	2
152	153	3
139	152	3
130	135	3
65	66	1
15	25	3
117	136	1
137	137	1
150	154	1
103	117	1
132	143	3
56	56	2
99	104	1
133	135	1
9	12	4
68	78	3
31	69	3
86	101	3
51	54	1
20	21	2
76	80	1
48	48	2
17	21	2
92	121	1
105	108	1
31	43	2
58	58	1
69	98	1
115	116	1
141	141	7
20	29	1
123	136	3
30	37	1
111	111	1
101	114	2
20	35	1
39	41	1
27	35	1
25	36	1
32	32	2
119	121	1
96	104	1
68	77	1
18	31	2
62	73	1
19	28	1
7	18	2
8	11	1
141	153	2
151	153	2
28	39	1
8	127	2
116	116	1
136	152	1
7	15	1
93	100	1
73	83	1
102	103	1
71	81	4
116	118	1
72	73	1
87	87	1
4	27	2
96	99	2
67	67	2
10	25	1
49	54	1
63	82	2
19	20	1
134	142	1
37	38	1
135	137	1
110	120	1
33	43	1
30	39	1
123	131	1
105	106	1
145	147	1
113	125	2
83	96	2
25	79	1
104	112	1
15	26	1
129	149	1
16	24	1
29	37	2
124	135	2
39	43	2
23	31	1
95	125	1
68	70	1
38	42	1
17	25	3
123	125	2
126	127	1
24	80	1
10	98	1
70	86	1
133	141	4
6	22	1
140	142	1
34	35	2
16	20	1
83	84	2
28	43	2
112	112	2
49	57	3
6	17	1
77	77	2
64	74	1
16	19	1
106	134	2
22	37	1
20	23	1
77	91	1
148	152	2
135	153	2
53	54	2
33	45	1
135	139	1
27	38	1
63	75	1
69	70	1
62	68	1
18	20	1
125	141	1
52	54	2
16	31	1
7	31	1
21	31	1
137	138	1
139	142	2
42	69	1
14	23	1
104	113	1
74	83	1
4	22	1
101	102	1
146	154	2
135	140	1
11	12	1
63	66	1
50	53	1
12	23	1
125	128	1
103	113	1
74	88	1
2	7	1
71	74	1
4	20	1
81	81	1
92	109	1
127	138	1
83	95	1
132	139	1
66	67	1
50	50	1
32	43	1
106	125	1
76	83	2
23	30	1
20	26	2
12	98	1
19	38	1
120	125	1
63	71	1
121	131	1
65	77	1
136	138	1
124	129	2
129	133	1
10	126	1
23	29	1
67	72	1
101	111	1
107	108	1
16	22	1
100	105	1
98	115	1
130	131	1
26	40	1
24	38	1
149	149	1
146	148	1
8	23	1
27	40	1
24	46	1
