26	26	1
131	139	3
53	55	3
47	47	8
17	17	5
114	114	10
1	2	4
30	30	2
136	136	7
82	92	2
11	16	2
57	57	3
99	99	14
20	22	2
4	4	7
54	55	7
25	25	7
67	69	1
62	73	4
145	145	4
46	46	3
150	150	14
84	92	6
70	70	7
136	145	4
112	113	7
44	54	3
128	130	14
149	150	2
69	76	4
70	73	1
99	107	6
98	98	15
77	77	9
31	31	9
103	106	7
153	154	2
56	57	2
78	79	5
17	21	8
114	119	3
11	14	2
86	98	2
79	82	1
122	122	3
88	91	5
148	149	5
132	132	5
71	71	9
2	2	11
80	82	7
131	131	2
151	151	11
79	79	2
123	126	5
157	158	3
110	111	2
108	119	2
113	115	2
131	137	4
87	87	7
25	29	1
145	147	5
123	124	4
151	152	4
36	36	7
120	123	5
116	116	6
72	78	1
42	47	4
133	140	3
138	142	4
7	8	6
2	3	6
131	132	9
45	64	2
50	51	3
42	55	1
120	122	5
85	99	2
147	148	3
126	127	5
34	37	4
145	146	5
119	119	11
122	128	4
154	155	5
100	101	6
94	95	4
150	151	4
18	19	1
8	12	6
138	138	7
42	42	2
36	68	3
93	95	4
112	116	1
45	51	6
111	115	1
96	98	4
120	120	2
137	151	3
144	146	9
22	33	7
38	39	4
82	86	4
16	19	2
90	92	5
31	33	1
68	68	11
51	53	8
22	23	4
12	12	1
139	151	2
139	140	2
62	64	4
112	121	3
102	102	9
90	91	1
44	47	4
2	5	3
89	89	1
55	57	2
18	21	2
141	149	3
51	51	10
77	84	1
12	17	3
11	11	10
113	113	15
76	85	3
144	151	1
47	52	4
85	86	1
77	78	2
41	41	4
129	129	13
107	108	6
19	25	2
89	90	5
99	108	5
134	138	4
65	66	4
71	75	2
111	118	3
143	146	1
88	89	3
34	46	1
0	2	4
128	128	1
17	27	3
153	158	7
23	31	4
100	102	3
43	43	4
14	21	3
19	20	3
55	55	7
37	41	3
134	134	5
117	120	5
103	103	5
16	21	1
153	157	2
147	149	4
83	91	1
43	44	5
10	16	5
21	21	4
36	45	2
11	12	5
68	69	1
109	109	6
3	9	1
91	91	4
67	70	2
16	32	2
15	20	4
71	76	6
154	154	17
96	105	3
8	14	1
79	83	1
89	91	1
110	121	5
131	136	3
115	129	1
87	93	5
30	31	3
118	118	3
75	85	1
117	132	3
65	70	6
124	132	5
112	112	4
30	44	4
29	31	11
62	71	7
91	92	1
66	68	2
125	134	1
39	43	1
8	8	3
66	66	4
126	126	4
91	96	2
137	145	2
109	114	3
9	9	5
92	97	4
86	86	4
131	135	5
103	111	1
34	34	6
127	129	1
7	16	4
137	146	1
15	15	8
48	52	4
42	48	1
29	38	3
133	135	4
132	137	5
80	80	8
140	141	2
144	148	1
104	104	1
135	145	1
80	81	4
97	106	6
9	14	2
115	115	5
128	137	2
15	19	3
34	35	2
76	84	1
153	156	3
13	14	2
137	137	4
12	13	1
147	151	4
104	106	5
37	48	2
19	26	12
65	65	2
15	24	1
140	140	2
105	115	1
92	96	1
136	137	1
147	157	2
80	87	1
98	99	3
127	128	1
141	142	4
156	156	2
83	83	11
115	116	2
149	151	3
63	64	2
22	24	5
49	50	1
144	144	7
33	33	2
52	53	5
90	94	1
4	7	2
45	50	3
23	32	1
117	121	1
12	14	1
29	29	2
155	156	1
105	109	1
4	6	2
15	23	1
97	97	3
129	131	1
105	105	3
40	40	6
1	3	2
143	154	4
88	88	8
131	150	1
149	153	3
30	48	2
18	23	2
27	28	4
3	3	10
103	104	3
119	122	1
89	93	3
43	49	2
31	39	1
95	96	7
78	78	3
72	73	2
88	93	2
109	111	2
129	135	2
36	41	3
157	157	5
152	153	4
112	114	3
47	49	3
111	111	3
41	47	3
25	32	2
102	113	2
150	159	2
124	125	1
32	42	3
34	48	2
81	84	1
114	115	2
69	73	1
151	155	2
153	155	7
12	16	2
149	157	1
29	35	2
35	38	1
113	123	2
29	32	3
141	141	4
127	127	3
101	103	1
147	153	2
23	26	2
146	148	4
91	93	1
28	49	2
0	8	2
76	79	3
85	85	2
149	152	2
148	156	9
126	130	1
135	136	5
47	48	5
152	159	1
151	154	1
81	92	3
150	152	3
24	30	1
37	37	5
94	99	2
123	123	7
73	83	2
28	40	2
140	145	1
130	135	1
137	142	2
27	30	5
44	46	2
84	85	2
127	138	5
48	49	6
104	112	3
148	151	3
103	108	1
81	81	3
100	106	6
36	48	2
37	38	1
146	153	2
126	129	1
22	27	1
137	150	1
45	45	5
99	100	4
87	95	1
25	27	2
12	15	3
54	65	2
132	133	3
24	24	3
90	90	2
67	72	1
20	21	1
107	117	2
37	44	3
14	19	1
117	117	3
3	6	3
1	8	1
83	88	2
54	54	1
147	158	1
121	128	2
148	153	1
101	104	1
3	4	2
152	158	4
136	140	6
96	96	6
0	6	2
68	70	1
28	28	4
9	11	1
143	148	1
100	110	1
130	138	1
38	47	2
38	38	2
31	34	4
84	84	4
125	127	5
68	72	1
98	108	1
3	7	3
114	116	2
39	51	3
99	112	2
113	120	5
73	76	3
108	111	1
43	50	1
25	26	7
29	41	1
104	117	1
123	125	4
140	146	3
146	146	3
55	61	3
126	131	2
71	83	5
123	129	1
112	131	1
86	93	3
115	124	1
142	145	1
102	104	2
3	15	2
45	80	2
94	96	1
147	152	4
146	147	1
128	135	2
133	137	3
56	56	1
50	50	3
29	33	3
19	27	1
112	115	2
13	13	1
67	67	7
145	151	4
40	42	7
21	25	3
70	71	5
115	120	2
33	38	1
23	29	1
91	98	1
11	13	3
92	92	1
40	41	3
49	54	2
89	96	2
144	153	3
6	6	2
42	43	1
39	39	4
22	25	1
29	34	1
83	85	3
111	122	3
125	125	4
28	34	2
150	153	2
137	153	2
68	75	2
118	119	1
96	99	1
111	113	1
152	154	3
95	108	2
19	19	2
154	156	2
44	48	1
63	68	2
110	112	3
81	82	1
0	0	9
5	8	1
44	45	2
158	158	5
94	94	1
153	153	2
39	50	1
71	156	3
24	25	1
75	80	1
45	47	2
100	100	2
141	144	2
110	110	1
116	117	4
69	72	1
25	33	3
73	80	3
89	99	1
136	141	3
156	158	1
112	117	3
124	126	2
124	124	1
104	113	2
83	93	1
148	154	1
53	53	1
139	145	1
117	118	1
108	115	1
7	7	2
149	149	2
119	120	3
101	101	2
135	139	2
81	83	1
155	155	2
75	76	1
8	9	2
95	98	2
122	123	2
13	16	2
73	73	1
82	94	1
63	63	1
145	153	1
152	155	2
96	104	1
93	97	1
28	43	4
101	106	3
3	5	3
128	134	2
18	18	3
103	105	3
100	107	2
117	126	2
19	21	1
92	95	1
16	26	2
128	138	1
53	63	1
26	27	3
21	22	2
118	125	1
18	25	1
149	156	2
137	141	2
135	137	2
70	79	2
70	75	1
30	37	1
122	129	1
93	94	1
91	95	1
7	12	1
141	145	1
131	133	2
79	85	1
13	17	1
44	51	2
109	110	2
124	127	1
16	16	2
103	112	1
93	99	2
106	106	1
2	6	3
68	71	1
139	142	1
22	26	2
94	101	1
90	96	2
36	40	2
50	53	1
54	76	1
140	147	3
110	115	3
62	67	1
20	24	1
41	44	2
142	142	1
117	127	2
133	133	4
132	141	1
152	152	2
35	36	1
75	78	1
51	55	1
47	51	1
13	19	1
139	146	1
16	24	1
0	1	1
122	125	1
112	120	3
133	136	2
35	37	1
82	82	1
134	137	1
5	9	1
93	96	1
102	103	1
47	54	1
2	4	1
47	50	2
84	87	1
135	142	1
121	126	1
61	61	1
71	72	1
116	118	2
127	132	1
132	153	1
21	26	1
122	126	2
87	89	1
152	157	1
48	51	1
42	54	1
67	68	1
79	87	1
86	96	2
1	1	1
7	10	1
113	121	1
136	142	1
119	124	1
81	86	1
121	130	1
107	115	1
115	118	1
4	5	1
33	42	1
41	50	1
129	132	1
99	101	1
68	73	1
35	45	1
92	94	1
9	15	1
82	96	1
51	54	1
67	71	1
27	31	1
44	44	1
96	97	1
85	94	1
32	32	1
24	28	1
140	156	1
121	127	1
22	22	1
83	86	1
135	138	1
15	16	1
138	139	1
23	23	1
139	141	1
