9	9	5
108	109	4
50	50	7
38	38	3
45	45	6
96	96	4
73	73	3
114	114	9
84	85	1
112	112	7
124	124	12
79	89	4
25	25	7
85	85	8
106	107	6
106	106	10
116	116	3
78	78	8
97	98	5
115	115	6
4	4	2
127	127	5
89	93	1
19	19	3
120	120	10
97	97	11
107	107	9
6	6	10
43	112	5
18	18	3
108	108	10
19	65	2
105	105	7
57	58	4
22	24	2
42	96	2
52	53	5
51	52	2
73	91	1
49	58	1
14	14	17
110	110	4
28	28	1
53	53	8
63	63	5
16	17	4
113	114	3
104	108	2
95	95	9
68	68	3
127	128	12
43	43	1
26	30	1
50	51	7
41	41	3
29	29	5
14	22	1
72	73	4
79	79	5
12	12	9
75	76	5
131	131	3
93	114	1
94	94	2
92	92	5
27	29	6
71	71	3
70	71	1
56	56	7
64	64	1
77	78	3
5	5	6
2	5	2
101	102	7
113	113	1
90	90	6
133	133	3
129	130	2
86	86	1
49	49	5
81	98	2
2	2	6
45	54	1
75	82	1
31	32	2
111	111	11
63	64	1
65	110	1
10	10	2
26	27	1
34	34	2
30	30	3
41	42	3
109	109	5
119	119	3
101	129	1
46	46	8
99	99	4
63	113	3
8	8	6
76	76	6
54	54	3
52	52	4
60	61	3
39	39	1
77	77	2
93	93	5
130	130	4
102	103	2
47	47	10
105	106	4
46	53	1
93	94	2
118	118	4
24	25	1
67	67	1
44	44	3
42	63	1
23	23	3
80	80	6
28	29	1
119	126	2
50	53	1
83	85	1
48	63	3
82	83	1
21	21	3
5	18	1
1	1	4
123	123	4
116	117	3
83	83	2
3	9	2
113	115	1
87	102	1
121	122	1
80	81	3
5	6	1
132	132	6
129	129	5
60	60	2
98	98	1
48	48	3
80	94	2
90	130	4
15	15	4
122	122	5
25	32	2
100	100	5
101	101	5
16	16	1
74	77	1
75	75	3
91	91	4
66	66	1
74	74	1
27	73	1
76	77	4
4	9	1
26	28	1
2	6	1
25	62	1
67	70	1
72	72	4
82	82	4
87	87	3
7	8	1
69	69	2
20	20	1
126	127	2
117	117	5
115	116	2
72	77	1
57	57	3
125	129	1
87	89	1
44	80	1
24	24	1
89	89	4
89	90	1
70	70	3
6	25	2
109	110	4
58	58	1
112	113	1
126	126	2
3	3	2
46	51	3
84	86	2
11	11	2
75	92	2
27	27	2
48	49	1
127	129	1
76	92	1
38	78	1
2	3	1
65	66	2
0	1	1
65	77	1
121	121	1
31	31	3
24	33	1
69	108	2
13	13	3
41	44	1
47	113	1
102	102	1
14	25	1
104	104	1
103	127	1
26	26	4
61	61	2
125	125	2
0	0	1
97	114	1
23	28	1
64	112	1
14	17	1
48	53	1
116	118	2
10	31	1
48	52	1
11	12	2
