50	50	1
111	111	6
18	18	4
4	4	5
13	13	7
125	125	4
40	49	1
79	91	5
11	11	1
47	48	6
13	15	7
142	142	3
166	166	5
57	57	5
124	125	2
93	96	1
126	126	8
121	151	2
82	83	3
89	89	4
86	86	13
110	110	1
152	152	2
94	105	5
46	62	3
155	158	2
97	98	2
79	79	10
88	162	2
24	24	10
27	27	2
61	61	4
13	16	3
80	80	1
141	141	6
138	138	5
19	37	4
142	144	2
5	157	2
94	94	2
1	1	7
116	116	2
137	138	6
3	3	4
104	104	9
167	169	2
147	169	2
132	132	3
26	36	2
70	160	4
132	133	1
73	73	4
120	120	9
12	12	8
100	100	4
66	66	4
93	98	2
53	53	9
155	155	1
156	156	5
7	7	2
118	120	3
68	105	1
5	5	6
36	37	2
40	40	2
33	33	1
123	123	4
16	16	5
74	74	3
1	41	2
99	99	5
3	10	4
127	127	5
50	77	1
150	150	7
154	155	2
71	160	3
75	115	2
91	96	2
106	140	1
23	23	6
105	105	2
8	8	1
168	168	2
88	89	3
67	67	3
51	167	2
88	88	4
5	169	3
14	14	6
73	75	2
124	145	2
119	120	2
102	107	3
49	49	8
148	159	2
40	125	5
107	108	2
165	165	5
82	85	1
9	9	1
138	139	3
21	53	1
145	145	4
0	0	2
62	62	2
38	38	1
52	52	4
166	168	2
17	17	7
122	122	2
83	83	3
160	160	3
107	107	3
137	139	3
15	17	1
113	113	4
71	71	10
146	146	4
144	144	3
114	115	1
105	116	2
157	157	3
164	168	4
91	91	4
136	137	2
44	45	1
122	131	2
105	143	5
117	118	1
109	109	5
20	52	2
133	159	1
114	114	1
116	156	2
95	106	1
148	158	2
74	80	1
98	107	2
103	103	1
70	94	2
10	10	2
57	87	1
37	37	2
134	134	1
34	34	4
67	69	1
128	128	1
121	121	3
53	133	1
153	157	1
88	101	1
74	87	2
53	125	2
158	161	1
55	55	2
97	97	4
22	22	2
19	20	2
98	100	2
154	154	2
158	158	2
39	50	2
100	103	1
20	37	1
84	84	1
1	11	1
70	71	2
162	164	1
109	170	1
51	77	1
131	131	3
144	145	1
0	26	3
11	16	2
45	50	1
5	22	1
73	95	3
147	147	3
127	129	1
105	107	1
17	89	2
118	118	2
127	134	2
25	25	6
23	54	4
10	15	1
92	92	2
167	167	3
41	51	1
45	51	2
112	113	1
17	105	2
26	26	1
35	35	1
162	166	2
71	73	4
103	164	1
165	170	1
135	135	1
87	87	3
42	64	2
143	143	2
127	128	1
42	42	3
41	65	1
48	48	2
69	70	1
43	44	2
162	162	1
50	51	2
39	39	1
98	99	1
56	56	1
90	91	2
159	159	1
8	10	1
115	115	1
85	85	1
25	26	1
42	139	1
23	56	3
84	141	2
108	166	1
129	158	1
4	18	1
130	131	1
118	150	1
54	54	1
88	104	2
74	77	1
47	57	1
158	159	1
124	124	1
136	136	1
117	120	1
108	108	2
35	36	1
102	102	1
43	43	1
64	71	1
17	104	1
76	76	1
45	45	1
20	21	1
