0	4	1
13	14	2
75	75	8
71	73	2
76	76	12
90	90	9
109	116	3
137	137	6
131	131	10
21	21	11
72	72	12
17	18	4
82	82	8
18	18	3
20	20	12
116	123	6
107	116	1
138	138	5
109	109	8
88	88	2
36	36	13
127	127	16
16	18	2
82	84	7
31	31	8
130	130	14
23	25	3
107	118	2
86	91	2
22	22	3
33	33	15
27	29	4
129	131	3
123	124	1
11	11	14
28	32	4
12	12	14
34	34	26
86	90	3
103	104	2
18	19	5
136	136	14
77	83	2
75	76	10
114	115	10
17	17	5
127	128	5
118	119	14
15	18	2
35	35	14
38	130	3
74	75	7
117	119	7
19	20	6
4	4	15
102	118	3
10	11	6
81	81	7
24	24	6
108	109	7
96	96	7
7	7	6
2	2	5
10	10	9
122	123	3
16	16	7
83	83	6
92	105	3
15	27	3
37	37	3
35	37	2
112	112	20
115	115	18
116	118	1
122	122	13
0	0	8
29	30	7
137	138	4
113	113	8
80	83	3
29	32	8
7	34	4
86	86	8
85	85	6
1	2	3
128	128	14
3	3	7
4	5	7
118	118	5
91	91	4
38	38	6
113	117	1
115	123	3
11	12	7
120	122	3
112	117	2
20	21	2
16	17	6
15	17	2
133	133	2
94	94	6
135	135	4
94	95	2
94	120	5
134	135	2
129	129	17
30	31	2
75	92	4
14	14	9
134	134	12
0	11	5
140	140	8
88	112	3
126	126	19
22	26	1
84	84	7
110	113	3
105	105	10
88	89	8
9	9	5
34	35	1
100	100	5
123	123	3
71	71	4
114	114	10
8	8	6
6	16	2
92	98	1
87	87	4
19	27	1
129	130	7
6	7	7
120	121	11
77	78	2
81	121	3
74	74	9
96	98	2
20	27	3
5	5	5
27	27	9
102	106	2
119	119	5
29	29	6
36	37	5
87	93	5
78	83	1
1	1	11
27	31	1
12	13	6
95	95	12
98	98	3
86	87	1
120	120	6
13	34	1
92	92	1
79	80	4
28	28	11
125	125	11
90	104	2
79	79	9
132	132	9
114	123	3
1	6	2
10	14	3
33	99	1
112	121	1
35	128	1
81	83	5
97	97	5
117	117	1
26	26	4
87	90	2
99	101	4
22	23	3
139	140	4
113	114	6
3	19	1
105	106	4
91	97	2
73	74	4
19	21	4
101	101	5
121	121	6
92	123	2
14	35	2
33	34	1
86	89	2
90	91	5
2	3	1
81	103	3
78	78	4
23	23	7
73	73	6
89	89	2
110	111	3
116	116	11
84	85	3
81	92	1
87	88	1
2	15	2
23	24	5
107	110	5
120	123	2
25	26	4
102	102	1
110	110	8
91	93	1
15	15	5
97	98	1
103	103	3
124	124	6
77	77	4
80	100	1
93	93	8
6	11	2
14	15	1
34	38	1
1	16	1
71	72	2
126	127	4
107	107	9
82	83	2
23	31	2
25	25	3
30	32	4
125	126	2
106	106	3
93	105	2
24	26	2
110	114	4
19	19	2
13	13	2
117	118	2
111	111	7
91	110	2
84	104	1
109	110	1
106	118	1
29	31	2
28	29	5
97	104	1
10	12	1
15	16	2
99	99	2
93	94	1
72	82	1
113	120	3
124	125	1
123	125	2
18	20	2
81	89	1
23	100	2
102	103	1
79	94	1
96	97	1
31	32	1
108	108	3
99	123	1
35	130	2
138	139	2
32	32	2
9	10	2
107	108	2
34	37	3
22	24	1
71	95	1
30	30	1
128	129	2
27	44	1
37	38	2
79	85	1
3	4	1
16	21	1
66	87	1
1	17	1
80	82	1
139	139	2
2	4	2
8	10	2
97	110	1
131	132	1
5	6	1
106	108	1
7	9	2
9	14	1
80	80	2
102	104	2
4	6	1
26	28	1
85	86	1
72	96	1
87	104	1
3	107	1
99	110	1
