89	89	10
0	0	4
166	166	9
53	55	3
46	48	3
83	83	5
117	117	6
1	36	1
78	118	3
73	73	7
192	193	3
42	66	2
183	183	3
15	16	2
118	118	6
102	102	4
68	69	3
54	55	3
151	152	2
157	159	1
50	54	5
31	31	2
85	85	7
185	185	4
171	171	6
26	26	5
125	125	5
51	51	4
75	75	2
7	16	4
24	24	3
100	100	7
69	69	4
142	142	8
34	34	12
81	184	1
49	49	6
99	116	3
62	62	5
72	73	1
170	170	7
65	65	6
136	140	5
23	37	4
54	54	6
184	184	5
58	59	4
144	145	2
156	156	9
178	178	11
60	60	6
25	25	6
155	176	2
44	50	1
159	159	8
160	166	1
55	55	6
73	74	6
44	44	2
40	65	4
113	113	2
13	13	2
172	172	7
186	186	5
83	93	3
151	151	3
152	152	3
122	122	6
175	187	4
18	18	6
128	128	4
158	159	1
42	42	5
150	153	3
137	137	2
111	111	6
64	64	9
67	68	2
190	191	1
61	61	5
104	106	3
14	15	3
136	137	1
3	3	5
46	46	4
76	78	3
123	138	4
143	143	6
157	157	7
41	41	8
177	179	3
46	47	1
23	23	10
59	60	1
98	98	4
45	45	8
28	29	4
107	107	4
9	10	1
93	93	3
84	93	1
41	43	2
22	24	1
182	183	1
147	147	4
51	52	2
69	70	3
38	38	2
190	190	4
116	116	5
58	58	5
74	74	4
57	57	4
161	161	4
154	154	5
176	183	2
103	103	4
18	60	4
79	79	3
10	10	7
194	195	1
49	50	2
193	196	2
189	189	3
70	82	1
17	17	8
100	101	3
111	112	2
187	187	6
159	166	2
2	2	9
76	76	3
169	169	1
110	110	3
101	101	4
69	71	1
143	144	5
71	71	6
155	155	4
72	79	2
37	37	6
115	115	2
157	173	5
26	27	2
153	153	3
20	20	4
97	97	5
24	25	4
126	127	7
87	87	3
193	193	1
181	181	4
131	186	3
17	18	3
13	46	2
3	4	1
78	149	2
72	72	3
7	7	4
43	43	4
90	177	1
123	123	3
130	130	1
4	5	5
178	179	3
90	107	1
77	77	4
126	148	2
9	9	9
174	174	6
38	50	3
94	94	1
150	150	5
194	194	4
118	125	1
45	46	2
56	56	7
121	146	2
175	175	4
167	168	2
146	147	2
78	79	4
20	39	3
166	167	6
187	191	2
163	164	2
85	114	4
181	182	2
188	188	5
86	86	8
27	27	3
32	33	4
173	173	1
61	62	13
63	63	7
191	191	5
36	36	2
66	66	4
106	106	1
135	135	3
141	141	3
12	12	3
124	169	2
108	108	5
63	64	2
131	131	4
71	74	2
112	196	1
40	40	8
148	148	2
85	86	3
126	155	2
39	39	5
1	2	3
165	165	2
121	141	2
171	172	2
52	52	3
103	104	4
112	112	3
67	67	4
161	166	1
109	109	4
45	57	6
88	88	2
182	182	3
11	11	6
148	154	2
138	138	4
81	81	4
47	52	2
170	171	1
50	50	4
145	145	3
95	96	1
15	15	3
78	78	2
192	192	3
160	160	1
167	167	8
152	153	4
22	22	4
114	114	5
18	19	2
9	28	1
108	110	3
188	189	2
42	43	2
36	39	1
5	35	1
83	85	2
63	180	2
8	55	1
134	134	5
71	183	1
121	121	2
2	3	2
74	85	1
130	132	2
73	78	1
71	78	1
196	196	6
88	89	1
139	139	1
5	5	5
150	154	1
120	120	3
36	37	4
33	33	5
109	110	3
79	80	4
132	133	2
3	5	1
133	133	2
176	177	1
148	149	2
11	88	2
53	53	3
153	154	1
140	140	3
168	168	3
62	63	2
37	39	3
135	137	1
66	67	1
3	19	2
70	73	1
95	95	1
117	118	1
29	29	1
53	54	1
5	6	2
148	150	1
177	178	2
119	119	6
195	195	2
47	47	1
47	53	1
41	67	2
156	157	1
197	197	1
8	34	1
21	21	1
19	19	7
70	70	2
80	80	3
28	28	2
5	8	1
81	82	1
48	48	1
146	146	3
133	165	1
10	11	4
134	135	1
0	27	2
31	32	1
16	16	3
132	132	2
82	82	1
97	98	1
66	183	1
19	40	1
6	6	1
84	84	2
1	1	1
123	124	1
25	27	2
180	180	2
123	128	2
131	188	1
114	115	3
8	8	3
1	38	1
89	104	1
148	152	1
149	149	1
70	74	1
187	195	1
23	36	1
38	39	1
179	179	1
23	24	1
162	162	2
144	144	1
185	186	4
71	80	2
50	53	1
163	163	1
155	177	1
96	96	1
98	101	1
29	30	2
119	149	1
161	164	1
105	105	1
78	125	1
193	194	1
50	51	1
23	40	2
136	139	1
88	108	1
98	99	1
16	18	1
39	40	1
56	74	1
164	164	1
