65	65	6
39	39	18
38	40	2
111	111	10
22	23	6
128	128	6
47	51	1
133	133	6
11	22	1
32	34	9
55	55	3
64	105	4
131	132	5
50	50	12
130	130	8
120	122	5
77	78	3
102	102	7
139	139	15
153	154	3
141	141	9
77	77	8
21	21	15
119	141	5
31	32	3
4	4	7
54	54	4
45	46	11
150	150	3
18	21	3
75	76	3
131	131	12
144	145	3
106	106	7
91	114	2
26	26	7
87	88	5
100	100	9
118	118	7
95	105	4
154	154	16
13	13	11
122	122	8
123	123	12
129	145	2
15	15	4
71	137	2
123	125	8
35	151	1
24	24	9
76	78	7
8	8	4
147	148	6
134	134	11
121	122	3
28	28	4
149	151	11
96	97	4
14	14	7
132	133	1
44	74	2
145	145	3
132	132	14
35	35	12
5	5	8
41	41	6
116	116	5
110	110	8
69	69	11
124	124	4
32	32	4
153	153	14
129	141	2
72	72	3
135	135	5
85	85	6
3	3	5
48	49	2
34	151	1
126	127	4
66	83	3
137	137	12
133	134	2
6	6	2
126	126	7
65	79	4
83	83	5
25	25	12
152	152	7
38	39	9
73	73	3
103	104	3
93	116	2
149	149	14
67	68	4
10	32	2
46	46	15
94	94	5
11	12	1
115	115	7
113	113	10
81	81	5
46	53	1
79	79	6
104	104	7
18	18	8
100	107	2
109	109	1
147	147	20
112	113	6
45	79	1
4	31	3
67	78	4
88	88	11
40	40	11
97	97	5
15	16	1
119	119	7
124	125	3
107	110	1
78	106	1
74	77	2
69	70	3
75	75	10
22	22	9
66	123	2
140	140	4
20	21	6
68	68	6
15	21	2
102	103	3
120	120	4
62	63	3
46	54	4
50	51	3
142	143	1
129	130	4
47	48	11
62	62	3
66	82	2
11	23	3
36	151	1
57	57	3
48	53	1
53	53	3
13	23	1
20	20	6
70	70	11
106	107	1
37	37	6
150	151	4
83	129	1
74	74	7
96	133	2
15	17	3
45	45	6
109	111	1
32	149	2
42	42	2
6	10	1
76	76	9
34	41	2
55	56	1
51	51	6
127	127	8
16	27	4
47	47	17
82	82	7
118	134	1
152	153	8
29	29	8
86	86	16
31	31	5
64	66	1
4	6	3
135	138	4
151	151	8
117	117	3
107	107	3
16	24	1
11	11	8
96	96	3
148	148	2
10	10	2
142	142	5
144	144	3
16	16	6
136	136	2
36	37	11
74	83	2
119	120	1
117	134	1
108	126	5
66	66	4
76	126	1
110	111	6
33	149	4
38	38	4
125	125	3
30	30	2
99	99	6
36	36	9
138	138	3
19	19	3
132	149	2
43	43	4
66	67	4
67	67	3
101	102	2
33	34	4
109	128	3
130	142	2
105	105	1
41	43	1
129	144	1
147	149	2
6	7	2
143	144	1
27	28	2
90	99	3
125	127	3
105	106	3
100	114	4
117	132	1
48	48	4
42	43	3
85	86	2
45	50	2
98	98	4
136	137	4
99	101	3
23	23	3
101	101	3
136	144	2
119	152	1
77	125	1
87	124	1
108	108	1
140	141	5
115	116	3
141	142	2
24	25	2
34	46	1
69	83	1
113	114	2
64	79	2
35	36	4
47	143	1
93	93	6
50	53	2
78	78	6
71	121	2
95	95	4
129	151	4
112	112	4
34	34	2
145	146	3
108	110	2
114	114	3
94	95	3
78	79	3
136	138	2
128	129	2
18	19	4
80	128	1
83	134	3
146	146	1
25	26	1
29	30	4
28	32	2
56	57	1
44	44	8
77	106	1
10	14	4
49	49	1
33	33	2
115	117	1
90	153	1
4	32	1
120	140	3
84	153	2
125	126	2
100	101	2
41	42	1
71	71	2
34	38	1
115	131	1
17	25	1
65	98	1
26	27	2
121	121	2
138	139	3
86	107	1
7	7	2
115	130	2
129	129	2
22	29	1
143	143	2
71	74	1
131	136	1
82	147	1
118	135	1
38	41	2
49	53	3
7	18	1
67	123	1
107	108	1
52	54	1
72	73	1
131	145	2
113	133	1
80	80	1
35	154	2
117	133	1
9	20	1
139	142	2
73	74	1
44	45	1
70	77	3
84	85	3
56	56	4
68	69	1
104	105	1
149	152	2
58	58	1
27	27	1
87	87	1
45	74	1
2	26	1
12	27	2
32	38	1
9	9	1
81	128	2
84	84	2
95	115	1
123	124	3
55	126	1
120	139	1
63	63	2
17	17	1
51	53	1
121	142	1
90	143	1
7	20	1
33	36	1
5	6	1
19	21	2
99	100	1
32	33	1
123	126	1
