94	95	12
12	12	5
185	185	6
130	131	7
127	128	4
93	93	5
180	180	2
26	26	14
169	179	2
6	23	1
132	134	2
116	121	4
116	116	5
136	142	2
11	13	2
40	41	15
102	111	2
74	85	6
75	75	7
89	90	3
121	123	3
179	179	12
84	85	3
72	72	8
115	115	13
0	7	2
73	73	14
68	143	4
106	106	6
129	138	2
143	147	3
113	117	8
127	127	8
142	168	4
152	178	1
45	62	3
177	177	4
89	100	2
15	34	1
148	150	3
188	189	3
38	39	3
81	94	3
32	33	2
124	126	1
31	43	3
27	27	7
160	161	8
56	56	11
84	89	2
184	184	4
157	159	4
143	144	8
145	146	4
32	32	5
138	163	1
14	14	6
37	42	3
3	7	3
178	182	4
70	72	1
101	102	2
82	84	1
101	104	3
97	98	2
73	89	4
138	138	11
128	128	9
141	143	2
145	147	8
88	88	10
61	61	4
174	174	4
183	183	9
101	105	1
154	154	4
70	71	5
146	164	2
97	106	3
120	120	6
130	133	2
183	184	8
182	187	1
125	126	6
8	8	9
85	85	11
124	124	8
83	86	4
80	82	5
121	130	6
122	124	4
187	189	1
110	135	1
46	46	2
95	96	6
65	65	5
24	25	4
67	67	8
131	131	3
131	144	7
16	16	7
157	157	14
171	171	12
75	78	1
158	158	2
74	74	2
114	115	2
59	59	7
142	150	2
8	24	2
91	91	9
36	36	6
126	127	3
163	163	5
99	99	4
30	31	3
28	36	2
55	58	2
167	182	5
24	24	6
14	24	7
23	29	1
81	81	4
158	159	2
105	105	9
119	119	3
113	113	5
10	181	3
104	104	4
53	54	4
117	118	4
57	64	4
90	91	2
87	87	4
93	96	4
66	66	2
21	21	1
110	151	6
161	161	5
10	10	4
162	162	5
68	82	2
112	122	3
114	126	2
66	70	1
43	43	2
159	182	4
90	97	4
89	89	1
188	190	5
108	177	1
185	186	1
136	137	4
101	101	3
133	135	1
45	45	1
76	84	1
76	76	10
155	155	8
149	149	8
129	130	1
108	113	1
9	9	6
4	37	2
104	110	1
70	170	1
15	15	8
165	165	7
76	78	4
47	47	6
110	131	2
126	126	4
104	105	4
130	130	9
112	119	1
11	12	8
144	144	4
155	157	3
189	190	2
58	61	5
149	150	1
82	134	1
118	118	4
59	179	3
54	54	14
139	146	1
96	96	8
141	142	2
105	107	1
80	80	1
117	117	7
19	21	1
86	86	8
5	5	1
13	13	7
93	111	4
130	136	3
123	123	10
177	179	1
152	152	6
178	178	5
26	28	1
3	3	4
187	187	2
131	134	2
28	28	8
106	109	1
14	34	4
76	83	2
102	102	1
28	30	3
91	111	1
93	166	1
174	175	1
7	8	4
57	70	2
107	107	7
153	153	1
112	121	1
107	115	2
186	188	3
111	111	3
10	13	2
116	145	1
123	132	2
20	23	2
37	37	6
139	178	1
110	134	3
43	55	1
82	82	4
42	42	7
70	168	1
159	159	4
100	100	3
10	23	1
94	139	1
94	98	5
149	169	1
123	129	4
120	123	2
159	162	3
36	37	1
77	95	2
177	189	2
140	140	3
80	83	1
39	39	2
11	20	1
69	72	2
53	61	2
35	47	1
110	112	5
159	160	2
13	16	3
148	149	2
62	62	11
38	38	2
52	55	4
107	109	1
34	45	3
55	157	5
166	166	8
90	90	1
68	148	4
146	146	4
22	31	3
109	109	5
64	64	7
110	139	3
134	135	1
187	188	4
133	133	7
29	40	1
86	89	1
103	103	1
97	102	1
151	156	2
8	14	2
4	5	3
126	128	7
2	17	1
11	11	3
4	43	1
9	180	1
7	10	1
105	106	1
71	71	1
169	177	2
127	132	6
75	79	1
78	78	3
175	179	1
94	94	5
178	181	3
17	36	3
83	83	7
89	101	1
144	146	1
169	170	1
165	171	1
41	41	2
113	119	1
148	158	2
31	31	2
134	134	3
2	22	4
171	176	1
60	60	2
137	137	3
175	178	1
151	152	2
153	157	3
6	8	2
110	110	4
164	164	4
181	181	6
114	120	2
71	173	2
102	107	2
137	139	3
114	114	7
172	173	2
40	40	7
53	53	6
122	123	1
147	150	3
175	177	2
108	108	4
181	184	4
9	10	3
2	3	3
99	108	1
15	18	2
14	17	2
81	86	3
110	128	4
59	67	3
68	70	2
112	113	1
126	129	3
14	15	2
33	41	1
2	4	3
176	177	5
152	154	3
75	102	2
59	60	3
81	83	1
162	163	1
4	41	1
107	149	2
170	170	5
117	119	1
25	30	3
42	43	1
126	134	1
102	108	1
142	151	2
23	24	1
115	124	3
90	92	1
96	97	1
144	156	2
120	122	1
17	17	3
71	168	2
41	54	2
184	186	2
77	77	1
49	167	2
115	116	2
113	178	2
4	4	2
127	129	1
151	151	4
86	91	5
35	154	1
141	141	2
143	143	5
175	176	2
181	182	3
181	183	1
142	143	2
146	149	2
6	14	1
56	58	3
95	95	2
131	133	1
180	182	4
142	171	1
94	96	3
139	140	1
19	24	2
73	85	2
112	115	1
172	175	1
0	190	1
1	1	2
47	48	3
168	169	2
177	178	4
45	48	1
129	129	1
62	156	2
134	137	4
123	139	5
139	139	4
175	175	1
72	153	1
57	58	3
36	52	2
118	138	2
138	147	1
43	46	1
21	22	1
132	132	3
44	44	6
98	98	1
54	55	2
153	169	2
6	6	3
94	97	1
74	107	3
64	68	1
66	81	1
85	94	1
15	30	2
171	175	1
35	35	4
109	122	1
55	56	1
96	98	1
92	92	2
135	152	1
159	167	1
57	57	2
1	6	2
29	30	2
101	108	1
52	54	1
142	147	1
154	169	1
83	85	1
153	160	2
176	176	1
93	100	1
183	188	2
54	56	1
123	128	2
118	123	3
12	48	4
48	164	1
169	182	2
2	2	2
60	64	1
189	189	3
109	117	2
145	145	8
52	53	2
111	125	2
75	84	4
84	84	3
7	20	2
162	170	3
14	16	2
41	174	1
13	18	1
11	26	1
14	19	1
183	186	1
24	190	1
114	116	1
12	18	1
160	163	2
180	190	3
65	73	1
182	182	2
7	7	4
18	18	2
122	122	1
33	35	2
103	106	2
150	156	1
28	35	1
64	183	1
11	16	1
175	180	1
109	119	3
110	137	3
75	87	2
30	32	3
0	10	1
56	67	1
168	168	6
158	180	1
112	116	1
148	177	1
159	163	1
46	157	3
55	164	1
131	140	1
82	99	2
74	75	1
115	119	1
30	36	1
171	173	1
169	181	1
173	173	1
78	87	1
29	37	1
174	176	2
25	25	5
160	160	1
46	153	2
170	171	2
177	184	2
81	137	1
143	148	1
127	139	1
161	180	1
56	71	1
115	120	1
49	55	1
145	149	1
153	154	1
166	168	1
83	84	5
88	105	1
130	137	1
169	169	5
142	156	1
61	62	2
161	162	2
19	26	1
15	16	3
5	37	1
77	87	1
135	136	1
146	147	2
93	102	2
67	133	1
80	111	1
101	140	1
23	26	1
48	48	2
124	125	3
65	80	1
79	145	4
25	33	1
125	127	1
132	173	1
11	33	1
111	140	1
85	100	1
161	175	1
11	185	1
1	2	3
146	178	1
146	156	1
17	29	2
110	111	2
148	148	2
168	170	4
22	22	1
38	41	2
82	83	2
21	44	1
146	173	1
44	179	1
94	104	2
18	21	1
133	143	2
169	173	1
36	53	1
120	121	1
140	141	1
27	29	2
57	108	2
6	41	1
148	152	2
37	52	2
73	143	1
24	27	2
37	58	1
9	181	1
105	109	3
80	137	1
24	188	1
188	188	2
6	11	1
126	139	2
29	29	2
172	189	1
84	88	1
4	18	1
59	168	1
61	179	1
33	33	1
84	98	1
160	162	1
68	68	3
3	20	1
60	63	1
149	151	1
136	139	1
97	97	1
36	39	1
41	48	1
53	56	1
125	125	1
179	181	1
113	128	1
84	107	2
162	174	1
129	131	1
28	29	1
5	26	1
136	136	1
164	166	1
103	105	1
46	48	1
53	59	2
59	73	1
154	156	1
74	87	1
128	131	1
138	145	1
42	173	1
8	15	1
116	120	1
178	186	1
59	63	1
104	106	1
70	70	1
187	190	1
14	31	1
143	164	1
19	19	1
30	30	1
129	140	1
160	176	3
58	60	1
22	25	1
117	122	1
155	165	1
101	112	1
173	180	1
155	169	1
167	169	1
35	171	1
113	116	1
79	107	1
112	133	1
113	126	1
35	172	1
