90	90	11
95	96	10
9	9	6
15	16	10
115	115	11
59	59	9
43	43	11
61	65	2
54	54	17
57	57	4
48	48	6
93	93	8
94	95	1
52	52	11
94	94	8
23	23	21
63	88	1
4	5	3
5	55	4
25	26	9
125	131	9
109	109	4
3	93	3
110	110	14
121	121	16
113	113	13
71	71	10
56	57	4
76	76	3
31	32	2
11	12	8
116	116	6
124	124	4
85	85	5
1	51	2
49	49	14
106	109	5
87	87	8
72	73	9
47	47	9
114	114	8
44	44	8
89	89	7
78	79	3
40	40	7
122	122	6
39	39	14
123	124	6
119	119	6
25	27	5
32	32	9
5	5	3
108	108	5
6	31	6
116	117	3
13	13	8
21	22	5
29	29	8
41	43	4
96	96	12
40	100	4
8	8	4
88	88	7
23	24	1
99	99	12
49	94	1
3	5	4
112	112	7
123	123	19
63	95	3
2	3	2
66	71	2
41	41	4
13	14	3
74	78	5
7	7	13
53	53	17
46	48	5
23	25	4
95	95	6
115	120	1
5	32	1
81	81	12
120	120	9
26	29	7
101	101	1
51	52	3
60	62	12
3	4	8
24	24	9
104	105	5
58	82	1
23	28	2
92	92	6
72	72	5
2	94	1
111	111	8
50	50	8
100	100	3
63	63	10
70	70	2
92	93	4
28	28	7
66	99	2
131	131	8
14	16	7
115	116	6
24	27	4
3	3	15
15	15	10
1	2	2
12	12	11
24	32	5
22	33	6
113	115	2
65	66	6
107	107	2
70	71	7
127	130	4
98	101	1
2	2	6
4	4	4
5	6	3
83	83	3
26	28	1
127	128	4
112	124	5
3	49	3
65	77	3
25	25	7
77	80	3
28	29	6
61	61	5
125	126	8
125	125	5
108	109	2
2	49	4
16	18	5
87	88	1
10	10	6
49	50	3
118	118	1
46	46	9
64	64	8
120	123	5
55	63	5
45	45	9
109	110	5
87	89	3
93	94	2
56	56	8
43	44	6
54	64	2
62	62	8
113	120	1
82	82	5
129	129	1
114	123	2
34	34	5
102	102	5
84	85	6
77	77	4
67	99	1
86	87	8
86	86	4
15	18	1
53	54	4
33	33	3
14	14	6
47	48	4
88	94	2
96	97	3
57	58	6
130	130	3
80	80	2
104	104	7
20	21	5
39	92	2
0	0	3
55	85	3
43	102	1
75	76	3
64	66	1
51	51	3
11	27	3
84	84	8
2	50	2
42	42	11
58	58	4
55	55	5
65	95	3
125	132	1
66	66	3
51	113	1
92	99	1
30	30	6
22	22	4
78	82	3
5	52	1
93	97	3
69	69	6
57	79	2
132	132	6
17	18	2
11	53	1
41	47	1
59	61	1
6	53	3
29	30	5
37	86	1
105	105	3
18	18	2
62	63	1
78	78	8
133	133	4
41	42	4
14	15	4
0	1	1
67	68	2
124	125	5
60	60	1
117	117	2
49	95	3
79	79	2
6	11	1
101	102	2
26	26	5
72	96	2
17	17	2
90	91	2
67	67	4
90	100	2
114	121	1
101	104	1
97	97	2
108	125	2
126	126	1
58	59	5
38	39	1
97	98	1
6	6	1
75	77	1
97	105	2
65	65	2
111	112	2
16	16	3
62	78	1
91	92	3
88	89	4
61	62	1
39	48	2
77	81	2
54	62	2
42	43	1
38	38	1
67	69	1
58	62	2
122	123	2
68	69	1
18	47	1
31	31	2
86	88	3
121	123	2
106	107	1
42	99	1
46	47	3
13	16	2
128	129	2
12	13	2
28	33	1
63	66	2
99	103	1
11	11	2
32	53	1
2	54	3
33	34	1
73	95	1
1	1	1
74	74	2
0	113	1
66	70	1
40	104	1
10	11	1
40	47	1
20	20	1
128	128	1
40	41	1
115	117	1
19	19	1
71	72	1
79	82	1
6	52	1
105	106	1
66	91	1
27	27	1
