92	92	10
66	66	13
78	78	8
95	95	7
118	118	10
54	55	3
40	40	6
30	30	9
14	15	4
61	61	5
86	86	2
134	134	9
70	71	2
71	71	6
54	54	3
83	84	1
75	75	5
31	33	3
26	26	5
64	64	2
106	108	2
123	139	2
108	108	4
40	47	1
142	142	9
131	131	5
69	69	6
139	139	10
28	28	16
104	104	6
141	141	15
73	73	4
102	102	8
26	27	6
87	88	3
87	87	12
59	59	4
11	11	1
55	62	2
41	48	4
77	92	3
53	54	6
99	99	2
132	132	6
66	67	6
1	11	5
40	41	1
74	74	16
135	135	1
9	10	2
72	72	8
88	89	2
116	124	4
15	16	5
97	97	4
132	133	1
42	42	9
55	57	1
63	63	3
13	13	6
52	52	3
1	1	4
107	107	5
108	112	2
19	27	1
0	35	2
78	79	3
65	66	3
58	58	4
70	70	5
25	27	7
12	27	1
62	62	3
82	83	6
82	82	4
65	65	9
123	123	5
34	34	16
31	32	4
77	77	8
86	90	3
35	35	1
53	55	1
121	121	8
47	48	1
79	79	10
6	6	3
115	125	1
37	37	5
81	87	2
114	129	2
56	56	10
133	134	3
8	8	1
140	140	8
80	81	2
133	135	2
123	125	2
112	112	8
22	22	1
134	135	5
94	94	3
21	21	3
57	58	9
50	52	3
120	123	4
91	91	3
98	98	3
97	98	2
90	96	2
96	96	9
109	109	3
24	119	3
34	35	2
95	96	5
145	145	4
29	29	9
108	109	1
17	26	3
9	9	2
100	100	3
121	122	2
54	58	3
80	80	8
17	17	1
32	32	2
111	112	3
144	144	5
20	20	4
111	111	6
109	110	1
110	110	3
98	99	4
68	68	8
101	101	1
133	133	13
106	106	4
90	90	4
51	51	4
8	29	2
75	89	3
12	13	7
131	134	1
20	21	2
60	60	3
61	62	3
146	146	2
31	31	2
143	143	2
113	113	3
94	95	3
51	52	1
1	38	4
39	47	2
130	134	1
126	126	3
38	38	5
83	83	1
116	116	4
71	72	2
14	14	6
114	115	1
116	119	1
47	57	2
122	122	3
108	113	1
124	124	7
85	85	8
136	139	3
115	116	3
137	139	2
129	129	6
55	55	7
29	30	2
82	98	3
47	47	3
2	3	1
99	108	1
49	49	5
9	35	1
2	2	3
16	17	1
57	57	5
128	130	1
69	70	3
16	16	1
67	68	4
24	26	3
3	3	2
5	6	4
0	1	7
18	18	1
10	10	1
75	76	4
92	119	2
115	124	2
67	70	1
39	70	2
105	106	3
117	117	2
92	95	1
23	23	8
55	68	2
102	107	2
104	107	4
24	93	2
18	19	1
138	138	1
130	130	1
106	128	2
39	85	1
125	125	3
8	11	1
39	40	2
4	4	1
54	63	1
97	100	2
127	128	3
84	84	4
62	63	1
36	36	1
89	89	2
127	130	3
93	93	3
41	47	1
74	75	2
105	105	1
10	29	1
36	37	1
103	103	3
119	119	3
43	43	1
9	78	2
39	48	1
67	67	5
115	115	2
48	49	3
113	114	1
131	132	2
3	8	2
87	97	2
53	56	2
112	113	2
90	91	1
136	136	1
1	26	1
127	131	1
137	138	1
34	37	1
28	51	1
3	18	1
67	73	2
41	41	1
4	5	1
124	125	1
118	119	1
117	120	1
3	4	1
62	72	1
76	76	1
97	99	1
