129	142	3
105	120	2
88	88	9
38	50	4
109	111	2
124	124	2
41	41	6
92	110	2
7	7	5
140	140	3
27	27	4
122	127	2
130	147	3
110	110	7
143	143	9
10	16	7
12	12	5
98	98	8
146	160	3
66	66	3
24	27	2
47	48	4
152	164	6
56	56	2
95	95	2
12	19	3
99	135	1
151	156	4
103	119	3
132	150	2
12	20	4
84	84	2
143	145	2
99	99	5
156	156	7
38	49	6
106	106	4
127	129	3
126	126	3
71	71	5
130	130	6
124	140	2
91	91	5
93	96	4
4	5	3
74	90	3
133	151	1
67	119	1
137	168	5
128	139	2
36	37	2
114	133	4
148	148	4
16	16	7
37	111	1
73	79	1
110	111	4
3	3	4
104	107	2
92	92	3
49	49	4
45	68	2
119	120	1
152	152	10
13	48	3
69	78	2
76	84	1
55	56	3
123	130	2
45	45	3
18	18	10
44	44	1
147	165	1
87	106	1
18	19	3
3	20	3
88	105	1
164	168	3
0	1	8
108	163	1
23	150	2
141	144	3
137	149	1
22	22	8
65	104	1
151	151	6
93	110	2
137	148	2
55	80	1
18	21	2
24	25	3
113	130	3
14	17	4
130	135	2
92	114	2
118	134	1
92	99	2
133	133	4
37	37	2
154	154	2
108	110	3
163	167	1
76	89	2
92	119	1
71	72	4
87	92	3
23	23	3
135	135	1
14	22	3
152	170	1
65	81	1
35	49	1
64	65	1
130	163	1
129	129	1
144	144	1
121	121	8
75	99	3
12	114	2
124	136	4
163	163	8
95	132	5
1	15	2
42	44	5
71	76	6
3	18	1
10	25	2
26	26	4
134	135	2
108	112	1
8	24	1
119	131	2
25	25	4
24	24	3
114	120	1
86	116	1
121	140	3
163	169	2
169	169	2
122	136	3
19	25	3
103	107	2
87	87	7
69	81	3
6	9	4
5	11	2
21	49	3
78	100	1
125	151	2
167	167	2
150	150	1
34	34	2
51	51	2
1	14	1
112	113	1
85	91	4
2	2	10
147	160	6
53	53	2
165	168	4
85	111	4
98	102	2
104	104	4
8	12	3
6	6	6
57	80	2
119	134	1
0	12	3
74	84	6
134	151	2
82	120	2
112	116	5
102	105	4
76	76	3
94	116	2
93	93	3
8	8	5
139	160	2
70	98	6
109	123	2
5	9	1
80	80	2
78	78	2
6	7	2
166	166	1
122	122	4
97	109	1
143	146	4
64	93	2
39	51	1
111	111	4
17	21	2
72	88	1
100	109	4
105	119	2
72	90	2
114	163	1
150	156	3
13	14	2
24	114	1
48	49	3
57	78	1
99	101	2
34	48	1
82	104	1
15	22	1
110	113	1
82	95	2
0	6	1
107	107	2
77	77	12
126	127	4
63	65	2
65	110	1
44	45	1
167	169	2
109	109	4
110	116	3
154	168	3
145	146	1
110	117	1
100	101	1
100	100	3
14	21	4
0	0	9
53	58	1
7	156	2
96	100	2
64	73	3
83	83	2
20	21	4
42	42	3
161	170	1
153	168	3
102	118	1
86	87	1
22	156	2
97	113	1
49	51	4
40	45	2
62	64	1
6	18	4
113	114	3
43	44	5
127	151	1
162	166	4
64	90	2
128	150	1
112	112	4
15	35	2
116	147	4
83	87	4
138	138	3
132	135	1
12	13	1
117	117	1
20	20	1
101	104	1
111	128	2
86	86	2
164	164	8
93	94	3
75	84	1
52	52	3
47	55	2
2	5	1
166	167	3
106	108	1
14	14	6
86	102	1
5	12	2
134	149	3
75	97	2
152	157	5
122	141	3
42	51	2
132	136	2
157	157	3
119	147	1
102	120	1
132	132	4
62	62	2
110	112	2
132	153	1
156	169	2
8	19	1
68	68	1
21	22	2
36	40	1
46	46	2
165	170	2
4	6	1
95	120	1
48	55	3
35	82	1
22	23	2
64	64	1
42	43	2
83	108	1
2	25	1
168	168	3
78	111	1
51	58	2
71	90	1
9	19	2
75	90	3
14	24	2
15	15	3
90	100	1
86	97	1
119	130	2
40	40	2
127	132	2
103	122	2
81	93	2
10	10	3
118	121	2
89	120	1
161	161	1
154	158	2
94	107	2
83	84	2
117	127	1
123	129	2
93	111	1
117	160	1
148	151	2
13	15	1
96	96	5
126	142	2
43	47	3
143	144	3
1	1	6
21	21	5
115	115	5
113	115	2
86	100	2
90	90	2
94	94	4
72	72	1
4	4	1
10	13	2
102	106	1
131	143	1
25	27	2
112	126	1
40	65	1
141	151	1
91	99	2
115	138	1
27	46	2
152	167	1
58	65	2
19	22	2
0	14	1
73	81	1
85	85	1
147	169	1
139	143	2
150	170	1
62	80	1
28	41	1
112	114	2
43	48	1
16	17	1
75	75	2
150	151	2
48	54	1
18	45	1
26	27	3
43	43	1
69	84	1
145	145	1
155	155	2
125	125	2
136	136	4
129	135	1
13	13	1
97	97	1
102	107	1
159	159	1
48	58	2
117	128	1
37	43	1
91	107	1
129	141	3
120	132	1
106	107	1
109	148	1
67	88	1
82	88	3
33	75	1
103	103	2
132	151	1
142	142	1
43	53	1
149	149	2
8	17	1
78	85	2
127	127	1
105	106	1
162	162	1
11	11	3
119	119	3
42	56	1
114	114	1
83	86	2
149	151	1
5	22	1
52	54	1
149	150	2
102	108	1
25	33	1
119	142	1
157	161	2
4	15	1
40	51	1
17	35	1
51	56	1
75	92	1
45	47	1
137	138	3
45	46	1
121	124	1
19	37	1
54	54	1
35	35	1
10	11	1
35	42	1
154	166	1
134	134	1
7	19	1
50	50	1
92	96	1
168	169	1
113	113	1
74	91	1
139	139	1
74	85	1
69	69	1
75	89	1
17	22	1
129	148	1
43	49	1
