22	100	1
132	133	7
96	97	7
12	55	2
29	30	10
178	178	44
160	160	18
113	113	21
175	175	25
144	144	11
88	89	23
18	34	2
186	188	2
122	123	5
119	119	21
161	164	8
60	61	3
190	191	11
84	85	6
60	60	24
26	26	20
22	23	4
128	129	4
129	140	1
132	132	28
82	82	13
8	21	1
72	72	32
193	193	26
9	9	43
87	87	14
197	197	10
101	101	34
142	144	6
69	140	4
126	127	14
184	184	22
151	152	7
187	187	25
35	35	7
10	11	16
50	51	14
97	97	22
106	107	7
79	79	20
139	139	13
21	22	9
156	156	18
14	125	2
157	157	29
175	178	1
176	176	25
154	154	13
177	177	20
116	117	5
34	34	20
69	69	24
161	161	18
185	185	19
130	130	10
153	153	20
36	36	21
83	85	2
68	69	4
10	10	23
74	83	2
149	149	18
89	89	15
144	172	1
42	44	5
123	123	29
188	189	8
53	56	3
154	155	21
147	147	21
134	134	20
39	39	18
196	196	15
96	96	6
146	146	27
61	61	22
77	78	9
5	5	27
187	189	3
25	25	24
127	128	6
110	110	12
183	183	25
107	107	13
191	191	24
143	144	10
4	5	17
13	13	24
165	176	2
65	65	38
0	5	6
41	41	19
127	196	1
177	178	5
120	120	21
62	63	5
46	46	18
65	159	1
93	150	5
2	2	12
110	111	10
27	67	1
78	79	8
66	66	8
115	117	6
77	77	11
71	72	7
186	186	6
128	130	1
116	118	6
180	180	22
31	31	22
70	70	27
140	140	15
159	159	13
141	141	24
171	171	31
136	136	28
145	161	1
144	151	3
43	44	6
152	153	5
63	63	22
106	106	8
82	84	2
137	137	11
71	71	21
42	42	25
145	145	14
129	130	3
77	171	2
152	152	21
109	109	16
108	108	17
55	55	24
190	193	5
182	184	3
131	131	14
115	115	30
14	14	24
23	23	10
195	195	13
76	76	20
189	190	8
120	136	3
172	172	15
24	24	22
192	194	3
86	87	12
88	152	2
98	98	6
150	150	15
119	120	6
103	103	11
3	4	24
169	169	8
187	188	20
138	140	6
19	19	21
183	184	10
29	37	2
186	187	12
29	29	23
45	46	5
2	3	9
124	134	1
0	0	10
37	38	6
5	35	3
196	197	8
133	133	32
22	24	12
18	18	29
84	84	19
118	118	24
40	40	31
7	8	3
10	154	1
30	30	29
168	168	16
30	36	5
51	59	5
16	17	10
78	78	9
79	157	3
50	50	12
167	167	14
170	170	21
150	158	2
144	145	10
50	125	4
11	14	2
138	138	14
147	148	7
21	24	5
99	148	1
28	28	16
85	85	27
144	164	2
11	11	23
9	12	5
27	28	10
106	109	1
73	96	7
80	80	18
171	172	15
52	56	3
192	193	11
170	171	4
16	16	30
112	113	6
186	194	5
181	181	18
27	27	28
5	6	2
113	114	5
55	56	8
114	114	18
187	192	4
114	115	7
87	165	7
4	4	13
103	116	5
188	188	13
109	110	5
128	141	4
3	3	17
43	43	13
190	190	20
8	8	12
125	125	11
93	94	10
64	65	26
186	193	1
0	68	3
165	166	7
14	38	6
12	51	3
67	68	9
117	118	6
122	134	2
184	185	7
32	32	37
12	12	21
10	13	4
131	132	9
38	38	19
159	160	6
81	81	21
166	166	10
44	46	8
58	197	3
4	25	2
192	192	16
21	21	7
155	156	10
123	125	1
130	131	7
58	58	25
130	133	5
81	180	1
49	51	5
24	25	10
88	173	3
102	102	12
37	39	2
88	88	12
73	73	8
6	7	2
149	150	6
57	57	7
145	146	6
125	126	7
24	26	4
68	68	12
155	155	18
52	52	16
79	80	5
121	121	22
126	126	11
100	102	6
65	68	3
20	31	1
124	127	4
185	192	2
118	124	2
121	122	15
181	182	7
146	148	2
49	49	4
168	169	16
105	112	3
101	121	2
86	160	1
73	188	3
33	38	1
33	33	19
115	159	2
62	62	27
163	163	16
17	17	18
31	32	10
161	162	3
135	136	11
117	117	17
167	177	3
174	174	11
1	4	1
172	173	8
78	168	6
107	113	1
116	116	21
151	151	5
124	125	13
69	86	2
61	62	3
122	122	21
51	51	11
73	74	7
158	160	1
45	45	30
150	173	4
56	56	9
98	152	2
128	128	18
79	107	2
25	26	6
119	190	4
0	1	8
176	178	2
104	105	14
129	133	5
22	101	1
85	173	1
162	166	4
85	86	5
157	165	3
8	183	5
54	54	12
100	100	9
135	135	19
64	64	40
121	137	8
47	47	16
59	59	9
49	53	1
112	112	12
170	172	3
15	15	18
95	95	24
53	53	14
142	142	4
56	57	7
111	111	12
104	104	4
150	172	4
139	140	4
6	6	7
83	83	2
1	1	17
164	164	8
59	60	13
162	162	6
148	148	17
183	186	2
39	62	5
60	62	7
48	48	24
17	18	4
175	187	1
11	12	9
8	9	2
97	172	2
142	143	11
107	114	5
98	99	3
20	20	14
101	103	1
193	194	8
86	158	1
51	66	2
17	24	6
119	154	4
176	177	17
143	143	26
11	61	3
145	180	2
15	16	10
174	175	7
173	174	11
179	180	5
191	192	7
80	84	2
127	127	12
30	31	18
47	48	5
37	37	6
194	194	18
141	142	7
140	141	4
1	2	4
185	186	7
29	31	5
143	171	2
189	191	3
166	167	3
36	38	2
188	191	2
6	34	1
159	163	1
16	18	8
117	150	1
65	71	1
152	154	4
44	50	8
44	44	16
184	187	2
129	129	21
74	74	15
160	161	9
90	90	3
23	103	3
75	142	5
37	67	2
75	75	6
1	178	2
40	59	1
103	162	1
40	42	2
14	121	3
194	195	8
108	109	7
111	113	5
158	159	12
178	179	11
18	70	1
68	141	1
101	102	3
85	152	6
95	103	3
104	106	3
11	13	5
168	172	4
134	135	8
98	120	2
31	33	4
103	105	7
23	26	1
182	188	4
182	182	10
156	157	11
66	68	1
95	119	3
25	27	4
54	68	1
34	35	4
179	179	13
14	50	2
118	119	5
131	139	2
76	81	4
63	65	2
53	54	4
39	58	1
40	152	2
41	42	5
105	106	2
125	186	1
19	20	12
165	167	4
51	125	2
178	182	2
40	58	5
40	55	1
74	75	4
120	122	1
100	101	9
70	82	6
97	119	3
51	52	2
181	186	2
8	109	1
182	186	1
71	129	3
182	183	6
144	188	6
6	8	3
109	158	1
158	158	13
13	59	4
37	150	2
76	77	7
46	56	2
153	154	3
8	37	4
153	159	6
94	96	1
55	139	1
99	99	15
10	12	6
185	195	1
54	55	11
136	137	5
98	131	2
182	187	2
49	50	5
67	71	1
12	194	3
145	170	2
122	171	2
22	22	3
173	173	11
86	86	22
88	165	2
14	15	6
128	142	3
148	161	3
15	32	1
38	39	6
104	124	2
124	124	11
158	164	2
57	58	7
12	13	5
74	78	4
112	115	2
106	108	2
4	8	3
24	68	1
95	97	2
94	95	6
168	180	1
40	41	8
58	60	4
134	136	1
17	86	2
99	101	2
158	168	3
0	76	1
160	163	1
145	175	3
163	164	12
20	32	3
100	121	1
117	163	1
117	128	1
50	52	3
130	195	1
42	43	5
75	76	3
111	112	5
56	59	1
189	192	4
93	93	2
116	155	1
13	15	2
45	56	4
56	58	1
180	185	4
189	189	4
150	151	6
112	114	4
97	152	2
134	137	2
164	165	4
32	33	7
18	19	3
139	187	1
124	150	1
39	41	4
157	161	1
67	67	2
80	157	4
42	79	4
94	94	4
146	178	1
150	192	1
105	105	13
62	64	2
7	7	2
37	112	2
47	53	2
20	22	2
39	59	2
41	153	3
90	168	1
26	121	1
93	146	1
142	145	2
45	54	1
13	61	2
49	62	1
7	23	4
165	165	9
41	151	3
41	59	1
9	16	1
128	158	2
144	186	1
44	49	2
2	178	1
130	138	5
188	190	1
72	73	4
156	170	1
119	156	3
81	166	4
49	52	6
129	145	1
17	19	4
8	64	1
176	195	3
123	139	2
50	126	2
175	177	1
25	109	5
153	156	7
123	133	5
121	134	2
100	105	3
19	43	1
149	197	2
9	10	2
85	154	2
139	141	4
86	146	2
26	27	3
74	77	1
180	181	1
148	162	1
145	174	2
89	171	3
168	176	2
48	49	3
68	105	2
70	140	3
149	172	2
38	62	1
43	56	1
36	89	1
72	88	1
53	61	1
123	124	3
122	125	3
161	163	2
39	150	1
99	100	7
165	178	2
27	31	1
12	16	2
133	134	4
168	170	2
143	145	2
123	126	3
172	191	1
7	176	2
46	47	4
11	112	3
137	140	1
105	108	3
116	121	1
133	136	1
44	45	3
81	82	2
89	175	1
145	176	1
28	68	1
130	137	3
102	103	1
50	79	2
100	149	1
192	196	1
123	135	1
172	179	1
128	187	3
173	178	1
0	180	2
55	62	1
129	141	1
72	128	1
130	145	1
36	37	2
137	138	6
86	90	1
0	3	1
113	118	1
14	61	2
167	169	1
76	78	2
18	30	3
8	65	2
15	17	2
169	170	3
157	158	1
93	193	3
60	72	3
52	65	1
145	160	2
76	169	1
132	144	3
36	67	1
122	124	3
107	108	2
59	63	2
70	71	4
99	149	1
162	163	1
24	86	1
12	14	2
185	196	3
52	53	7
113	122	1
148	150	1
87	88	2
114	116	2
182	185	1
140	185	2
19	38	1
119	126	1
144	180	1
61	64	1
169	180	3
97	98	1
5	7	1
118	151	1
95	151	1
34	80	2
119	124	2
79	81	1
74	93	1
190	192	1
71	140	1
174	190	1
94	172	1
129	142	3
101	105	1
177	181	2
122	133	1
79	188	2
37	41	3
19	78	1
15	62	1
131	167	2
31	65	3
24	27	3
103	106	1
34	37	2
149	157	1
76	80	1
61	89	1
140	188	1
30	171	1
88	153	1
81	84	3
66	70	1
73	93	1
23	24	2
63	72	2
89	188	1
122	132	1
122	127	1
58	59	2
18	86	3
28	89	2
2	26	2
80	108	1
128	140	2
19	70	2
89	117	1
186	189	1
135	137	1
15	42	3
13	14	4
158	163	2
167	176	1
80	83	3
107	145	1
97	153	1
106	121	1
106	147	1
5	108	2
103	115	1
81	153	2
167	168	1
9	64	2
149	168	1
124	128	1
116	135	1
65	66	3
113	117	4
69	141	1
140	144	1
40	57	2
17	33	2
124	142	3
97	121	2
11	59	1
114	125	1
63	64	1
65	73	1
15	63	1
181	184	3
82	165	1
81	179	2
121	145	1
55	64	1
97	171	1
36	39	1
119	121	1
42	53	1
53	58	2
57	182	1
147	165	2
109	115	2
82	170	1
66	69	1
3	5	1
142	163	1
33	77	1
110	130	1
115	116	2
29	88	1
23	31	1
89	90	1
136	138	1
145	188	1
167	171	1
49	126	1
115	148	1
132	186	1
30	37	2
110	114	1
128	139	1
8	18	1
119	149	1
150	169	1
65	69	1
22	26	1
7	34	1
119	127	1
109	112	1
113	126	1
23	32	1
175	176	1
108	112	1
178	181	1
18	76	1
132	136	1
87	173	1
126	142	1
149	159	2
67	70	1
120	137	1
103	155	1
80	81	1
96	151	1
39	40	1
