121	121	7
87	140	1
144	144	9
137	137	18
139	139	10
130	136	3
125	127	3
134	134	11
135	136	5
174	174	5
151	151	21
167	167	8
2	2	23
7	7	9
144	148	2
25	56	2
86	87	4
128	128	7
180	181	5
36	37	7
30	30	6
152	152	13
3	3	15
152	154	3
61	75	4
79	174	2
65	92	3
79	175	2
12	13	8
53	54	4
185	185	9
7	20	4
24	24	6
12	14	5
61	61	4
44	45	4
92	92	3
36	36	10
65	65	6
97	97	8
117	118	11
78	93	3
13	13	7
20	20	9
177	177	12
178	178	13
56	57	10
115	116	5
182	182	21
151	152	1
83	83	6
2	25	1
16	16	11
125	126	11
168	168	12
149	150	2
103	103	5
88	89	2
89	89	33
183	183	16
67	67	6
10	10	17
108	119	1
145	145	12
68	68	6
180	182	5
97	117	9
101	101	11
184	185	4
188	188	9
25	27	3
55	55	13
33	33	5
100	100	14
138	138	13
97	98	1
186	187	3
42	42	14
171	173	2
138	144	5
164	164	13
94	94	19
30	31	5
25	25	9
121	122	2
38	38	16
114	114	22
106	107	3
153	153	16
17	17	8
119	120	8
186	186	15
18	19	5
86	86	10
54	54	6
165	165	12
40	40	7
119	122	3
113	113	11
132	132	8
154	157	2
126	130	1
136	136	8
108	121	1
54	55	2
82	82	6
113	114	2
62	62	4
147	149	2
77	90	6
6	7	2
111	111	9
14	22	3
39	39	5
82	83	5
166	189	1
43	43	6
155	155	22
11	23	1
12	12	6
98	98	5
68	69	6
157	157	4
17	47	3
27	27	6
85	85	6
158	162	4
60	61	3
173	173	18
77	77	14
182	183	3
91	91	4
26	27	4
5	5	12
74	74	12
16	89	4
163	164	7
159	171	1
150	150	24
84	84	12
104	104	10
96	97	6
137	178	4
45	45	3
31	31	5
17	18	3
127	127	10
110	110	18
43	47	1
8	11	5
83	84	6
58	58	5
6	6	8
93	94	7
125	125	21
32	32	14
147	147	8
162	162	10
13	25	2
160	160	8
37	37	6
104	158	4
11	14	2
129	129	15
130	167	3
81	82	1
45	46	6
0	0	5
118	118	9
65	71	3
76	76	7
127	128	2
47	49	8
163	163	6
9	14	1
26	26	15
90	90	14
38	39	1
128	136	1
19	19	15
23	23	2
36	38	3
24	25	2
109	138	2
103	104	7
172	172	16
109	109	13
170	170	12
124	124	20
179	179	13
66	91	8
90	132	3
4	4	22
169	178	6
128	129	5
109	141	2
10	12	7
41	41	14
131	131	15
176	176	4
119	119	11
96	105	1
107	107	8
0	1	3
138	140	3
1	1	10
32	53	3
122	122	5
14	14	10
146	148	2
56	56	10
35	36	1
11	11	5
162	163	4
122	124	2
78	97	2
96	96	2
149	149	24
36	57	5
81	81	7
105	107	4
72	72	4
80	80	7
177	179	2
189	189	9
169	170	4
102	103	1
1	2	1
186	189	3
154	154	5
95	95	12
115	119	4
35	57	2
75	76	3
96	98	2
97	116	1
101	102	5
46	46	9
120	120	6
60	94	3
87	88	6
148	148	7
40	41	2
95	106	4
125	175	3
166	168	4
47	47	10
183	184	5
135	135	3
22	22	3
72	89	2
130	130	7
53	53	5
14	17	1
140	140	9
111	112	5
99	100	11
167	172	3
54	56	4
79	79	9
41	57	4
78	175	2
158	171	2
94	95	2
181	181	13
169	177	3
123	123	8
184	184	15
106	106	9
177	178	4
38	173	3
154	155	2
22	25	2
167	168	1
165	166	4
79	96	5
57	57	11
168	169	3
142	142	5
20	27	1
82	123	4
102	102	12
123	125	2
87	87	6
57	58	2
107	122	4
93	93	4
108	176	1
174	175	3
111	118	3
105	105	10
133	133	4
65	91	1
31	32	3
18	18	6
8	8	10
63	90	2
108	108	11
11	46	4
27	29	2
24	35	7
156	156	5
34	34	9
43	120	1
118	119	5
27	28	2
71	71	8
64	71	4
176	182	1
130	131	5
103	160	3
75	75	5
187	187	6
78	120	4
66	119	2
28	28	5
169	169	6
175	176	4
29	83	2
110	138	2
127	169	2
126	126	13
0	28	2
130	132	3
175	175	5
38	174	3
67	90	2
21	21	11
129	138	3
113	149	6
77	89	1
60	95	2
152	153	3
178	179	6
2	30	4
106	141	4
78	95	2
26	39	1
9	13	2
170	171	3
103	106	1
16	17	6
176	177	8
76	90	2
171	171	4
141	141	6
139	166	1
75	94	3
148	149	2
25	28	1
36	56	1
129	130	3
179	190	2
8	48	2
158	158	5
28	29	1
190	190	2
70	70	4
44	44	7
44	46	2
66	90	2
9	9	6
126	127	5
4	30	2
10	49	3
160	161	4
161	161	6
165	185	1
15	15	9
142	156	2
13	14	5
71	123	2
90	92	2
5	20	2
131	134	3
73	73	2
142	147	3
73	75	1
114	115	2
173	174	3
143	150	2
34	56	3
139	177	2
36	44	2
159	159	1
156	171	2
16	48	3
59	59	4
175	177	2
153	154	5
104	105	3
130	134	2
164	179	3
135	176	4
21	54	1
35	52	2
15	16	1
92	93	1
33	34	2
88	88	4
33	82	1
133	134	3
58	59	2
69	132	3
142	159	1
90	91	5
73	74	3
48	48	7
53	55	1
78	78	12
102	105	3
97	118	1
77	132	2
137	179	2
63	63	8
7	8	2
69	130	3
70	81	4
65	66	2
64	64	6
116	116	2
35	60	2
89	134	1
143	143	5
70	80	3
108	128	1
2	3	4
19	20	5
155	178	2
61	62	2
58	60	4
10	11	1
122	174	2
87	89	2
111	113	3
47	48	2
142	143	2
187	188	3
108	150	2
122	123	3
24	28	1
66	66	6
57	85	1
24	29	1
108	142	3
140	141	1
42	43	3
55	104	1
181	182	2
105	106	1
68	136	2
147	150	1
108	122	2
180	180	4
62	63	1
164	165	1
95	96	1
89	90	2
146	169	3
146	170	1
28	55	1
60	63	2
11	12	2
108	134	2
35	35	1
14	26	5
10	13	2
99	99	3
66	77	1
5	23	1
58	63	2
34	35	3
145	161	1
165	182	1
76	77	3
151	182	3
166	186	1
41	42	2
146	155	1
15	17	3
15	22	2
72	74	3
68	92	1
42	71	1
42	121	1
67	114	1
100	101	2
110	111	4
112	112	3
161	163	1
156	157	1
5	24	1
169	176	2
157	158	6
171	172	1
162	180	2
79	82	1
13	24	3
138	143	1
40	76	2
141	143	3
21	48	1
25	26	1
4	5	1
30	39	1
37	38	1
165	168	2
11	88	2
112	113	2
112	149	2
115	115	1
20	21	1
102	104	1
145	148	2
86	102	1
33	35	2
1	3	1
42	70	2
54	103	1
84	86	3
138	139	1
27	52	1
108	109	2
1	26	1
142	144	1
11	13	1
124	175	1
38	48	1
145	146	1
29	30	1
78	81	1
29	29	1
165	169	1
24	33	2
66	67	2
25	54	1
131	132	1
32	34	1
134	135	2
163	179	2
102	138	1
65	90	1
44	47	1
86	100	1
5	6	1
167	169	1
129	140	1
187	189	1
53	56	1
45	49	1
96	101	1
64	65	2
14	15	1
67	91	1
98	101	1
46	186	2
172	173	1
109	110	1
188	190	1
113	119	1
142	155	1
