32	32	5
55	57	1
53	53	15
128	128	7
37	37	17
91	92	7
62	62	6
75	75	2
52	52	11
49	51	2
125	136	2
117	117	11
33	34	2
134	134	4
132	132	3
80	127	2
59	94	3
77	78	2
125	130	2
38	38	7
2	33	1
84	85	5
0	1	9
99	100	4
87	87	3
90	91	6
108	108	7
12	12	1
93	93	9
35	35	7
16	16	17
127	127	6
112	117	3
72	72	8
27	27	15
19	19	13
128	130	2
112	113	1
28	28	7
20	21	3
61	61	7
67	68	1
123	124	5
130	130	3
2	2	7
63	64	4
84	84	9
33	35	3
93	94	5
102	121	1
22	29	1
101	101	1
70	70	4
47	48	3
120	120	8
37	39	6
104	105	4
132	133	3
68	69	2
27	28	3
136	138	3
139	140	12
125	125	8
88	89	3
141	141	16
105	106	2
112	112	2
10	10	12
33	114	1
64	64	11
93	109	1
98	99	2
48	48	10
143	143	5
54	54	7
131	131	7
34	34	7
58	59	3
66	67	7
98	102	2
83	84	7
114	114	1
21	21	17
73	73	9
107	107	12
36	42	2
30	30	13
28	29	2
23	32	3
36	36	8
91	91	5
124	124	9
65	67	2
102	102	6
106	106	10
1	21	1
97	99	1
79	80	6
107	108	3
97	97	5
24	25	1
124	125	3
39	39	5
94	94	7
0	11	3
121	131	1
111	111	2
131	132	5
70	72	4
12	13	2
58	58	4
8	8	9
62	103	1
138	138	7
80	80	3
98	98	4
29	29	5
50	50	6
135	137	1
101	102	4
20	27	1
47	51	3
64	65	5
15	15	6
56	56	6
81	134	2
90	90	3
55	55	3
57	59	3
117	118	2
109	110	13
78	78	8
29	30	1
71	72	10
142	142	2
47	72	2
1	1	5
73	81	4
19	27	1
119	119	3
69	70	2
66	66	9
123	123	3
96	141	3
121	121	6
74	75	7
140	140	9
40	43	1
81	81	6
93	95	6
18	19	2
83	83	7
122	122	8
89	89	5
85	88	2
41	42	1
60	60	7
80	134	1
25	112	1
41	41	4
81	85	3
65	132	4
76	77	3
19	31	1
109	109	9
34	36	2
100	100	4
5	35	2
138	139	2
0	36	2
131	133	1
18	40	3
97	98	5
59	81	1
144	144	5
23	23	5
42	95	1
31	31	9
50	51	2
108	114	2
135	135	6
95	96	4
18	18	12
80	82	3
82	85	3
99	99	9
113	113	2
118	118	9
40	40	9
36	124	1
57	58	3
6	6	2
107	121	1
110	110	8
20	20	10
40	108	3
88	88	3
86	86	9
12	24	3
8	42	2
27	114	2
133	133	4
11	11	4
95	95	9
6	33	4
92	94	2
14	20	2
74	74	4
64	119	2
26	26	4
65	78	1
137	137	1
76	92	1
69	69	6
89	90	2
62	63	2
61	133	2
72	100	2
49	49	3
77	77	8
9	9	7
2	82	2
96	96	3
92	92	3
60	61	3
82	82	6
19	20	2
33	33	4
74	79	2
75	76	4
53	58	2
68	70	1
139	139	7
42	42	10
74	143	1
103	103	5
4	36	1
85	85	7
22	22	2
43	43	4
115	115	4
3	3	3
78	113	2
92	93	2
81	133	2
25	37	4
145	146	2
75	81	2
126	126	2
126	128	3
63	63	1
2	21	1
37	72	1
5	24	1
108	128	1
59	59	2
103	134	1
120	137	1
119	120	3
102	103	11
102	138	1
87	88	2
8	9	1
77	79	1
47	49	2
47	47	3
57	57	5
42	103	1
131	136	2
86	87	3
76	89	3
116	116	7
40	63	3
73	74	2
62	118	1
143	144	2
33	52	2
35	36	2
84	87	2
8	11	2
67	67	2
108	109	1
40	97	1
51	137	1
80	81	2
71	74	1
0	47	1
56	128	1
104	104	2
105	105	7
125	126	5
70	71	1
108	122	2
91	94	3
131	134	2
59	60	2
0	34	1
128	140	1
125	128	2
83	85	2
5	36	1
123	125	6
96	97	1
12	23	1
68	68	4
67	70	2
118	119	2
133	134	1
34	35	1
14	14	3
15	20	3
129	129	1
61	62	3
53	55	1
0	0	4
12	20	1
39	40	2
21	22	1
101	103	2
65	66	1
134	135	1
14	35	1
115	118	1
37	53	1
25	26	1
58	60	1
56	136	1
114	115	3
109	119	1
25	25	2
75	145	1
17	30	2
40	96	1
27	30	1
37	41	1
17	17	1
13	20	1
47	125	1
5	5	1
115	116	1
87	91	1
141	142	1
14	24	1
81	91	1
24	86	1
49	136	1
127	136	2
40	53	1
39	41	3
16	18	1
71	77	1
90	119	1
4	34	2
26	27	1
75	89	1
50	64	1
70	77	1
79	79	1
94	95	1
129	130	1
61	96	1
26	29	1
15	65	1
130	131	1
140	142	1
23	31	1
26	112	1
76	76	1
85	86	2
142	143	1
146	146	1
69	72	1
126	127	1
59	63	1
128	129	1
136	136	1
61	64	1
74	89	1
41	97	1
136	139	1
111	113	1
