139	139	7
87	87	17
78	78	10
118	118	14
120	120	8
18	19	5
38	38	3
1	6	4
0	4	2
80	91	1
86	88	2
86	86	16
8	27	5
102	102	13
7	7	11
75	76	9
109	109	14
25	25	5
138	138	5
91	91	6
110	110	7
89	104	3
34	35	1
136	138	3
75	75	12
5	5	8
91	123	1
98	98	14
11	18	5
111	117	1
107	107	12
125	125	7
36	36	12
28	28	12
115	117	4
77	78	5
3	3	5
90	90	24
130	130	8
16	16	5
113	113	9
9	11	6
104	104	8
101	111	6
129	130	5
136	136	16
9	9	8
99	100	4
32	32	9
73	73	6
37	38	5
17	17	4
34	77	1
109	111	1
131	131	15
124	124	8
104	106	1
93	93	16
12	12	3
95	95	10
15	21	2
79	80	10
120	121	1
3	4	6
80	80	12
15	18	3
77	79	3
112	112	5
135	135	5
98	101	3
34	34	9
119	119	8
22	24	4
0	0	4
127	129	2
116	116	9
80	98	2
27	27	10
16	25	2
6	6	12
132	132	8
102	103	4
2	4	4
101	120	3
127	128	5
126	126	8
9	20	2
8	8	11
2	16	1
35	35	9
88	101	1
134	134	6
111	112	6
89	90	2
30	30	10
92	92	9
135	136	8
26	26	9
117	118	7
37	37	9
104	105	2
94	98	2
15	15	7
123	123	4
88	88	3
11	11	11
101	122	1
118	120	1
138	139	3
133	133	2
31	31	2
88	89	1
91	104	2
87	88	4
130	131	2
75	118	2
4	4	14
100	100	13
21	21	16
74	74	4
117	117	4
93	94	8
106	120	5
27	71	4
71	71	2
121	122	5
128	128	8
23	30	5
3	5	1
23	23	10
29	29	3
114	114	7
114	123	1
102	119	1
19	21	2
7	8	8
79	118	1
19	29	2
101	103	2
29	30	1
6	7	4
106	106	8
96	107	4
2	19	5
84	120	1
24	24	1
11	12	5
104	107	4
99	99	6
92	118	3
92	93	1
21	22	2
28	35	4
101	101	12
76	76	12
116	117	7
87	94	2
108	111	4
98	116	1
4	19	2
77	77	10
1	21	4
114	115	6
101	106	3
96	96	4
92	119	7
103	103	8
29	75	2
28	71	4
115	115	6
27	79	1
8	9	4
20	21	6
140	140	7
125	127	2
129	129	5
103	104	2
14	16	1
105	109	2
21	31	2
122	122	6
137	137	2
119	120	7
14	14	6
84	85	2
2	2	3
80	81	5
2	27	5
71	82	2
84	84	7
16	17	2
33	37	1
27	28	6
19	19	6
78	79	4
19	26	3
85	123	1
124	125	2
85	85	9
134	135	3
22	23	2
108	108	8
87	112	2
77	81	2
112	129	2
93	107	3
81	95	5
22	22	6
97	97	3
75	87	3
136	137	1
9	10	3
28	66	4
28	77	3
95	99	1
79	79	3
36	37	3
22	34	4
8	20	1
105	105	2
94	97	1
10	30	2
137	140	3
10	12	3
15	16	2
82	82	2
123	127	3
33	33	4
11	14	1
10	11	2
86	99	2
105	122	2
12	15	5
1	2	3
13	27	1
1	1	5
21	23	1
5	17	1
18	23	2
97	109	3
109	120	1
120	122	3
72	81	2
74	76	1
3	7	4
133	135	1
95	96	4
85	86	1
89	106	2
20	25	3
99	102	1
31	36	1
76	98	1
83	83	2
13	15	6
20	20	2
89	89	3
32	33	2
6	26	3
111	111	2
2	3	3
27	77	2
74	91	1
75	89	2
116	123	1
94	123	1
101	117	2
21	32	1
29	72	2
94	94	1
17	20	1
72	74	3
18	18	3
79	100	1
6	12	1
13	13	3
98	110	5
103	121	1
101	104	1
113	123	1
105	106	2
90	98	4
106	117	1
86	87	2
121	123	2
74	90	2
129	131	1
76	77	1
13	23	1
110	111	1
81	88	1
32	37	1
107	117	2
72	72	2
23	24	2
91	93	2
72	73	1
3	23	2
125	126	2
10	15	1
31	99	1
118	119	4
26	36	3
82	123	3
26	28	2
121	121	3
2	6	1
94	107	1
97	98	1
82	87	1
25	27	1
22	26	3
30	32	2
4	5	1
7	27	1
32	72	2
90	91	2
19	31	1
93	108	1
129	132	2
33	34	1
101	102	2
102	113	1
19	20	1
110	128	2
31	32	1
109	123	1
101	109	1
14	17	1
106	122	1
0	21	1
89	103	2
74	87	1
87	105	1
5	15	1
127	127	1
71	93	1
85	99	1
26	27	1
112	113	1
78	87	1
75	78	1
72	109	1
127	131	1
80	83	1
4	6	2
24	25	2
97	99	1
5	6	1
90	93	1
75	88	1
30	35	1
88	94	1
114	116	1
84	86	1
10	10	1
