82	82	7
30	32	2
153	159	5
15	16	3
77	77	11
130	130	11
37	37	4
116	117	9
47	47	10
32	32	7
105	106	3
78	79	4
84	84	8
5	5	27
9	10	3
117	117	9
76	76	1
88	89	3
17	17	2
81	82	6
124	124	7
88	88	8
128	128	10
83	98	1
6	6	6
29	30	5
78	78	8
150	150	4
68	70	3
28	28	2
86	86	2
131	132	9
42	43	4
102	102	5
155	155	3
26	28	6
62	62	3
125	149	3
108	108	6
123	123	5
19	19	3
113	115	5
41	41	5
80	80	7
45	45	1
134	138	2
72	72	5
26	27	1
77	78	5
125	126	4
150	151	3
148	148	8
99	99	1
38	38	1
105	138	4
96	96	9
118	119	1
35	83	3
18	64	3
40	40	3
147	147	2
112	112	9
11	11	6
83	89	1
151	151	4
30	30	7
158	158	3
87	87	8
138	138	1
66	66	1
22	22	8
3	3	1
128	129	3
113	113	5
8	8	13
105	130	3
2	2	9
112	131	1
89	89	5
39	39	6
157	158	6
154	154	3
16	17	1
121	121	4
34	34	3
1	1	3
122	123	1
75	75	7
119	120	3
45	47	2
32	57	3
134	134	3
110	110	3
132	132	4
118	120	2
71	71	5
144	144	1
42	42	3
5	6	4
31	42	4
25	26	3
129	129	12
13	14	1
116	116	2
53	54	4
91	92	6
53	53	4
10	10	1
53	63	3
4	4	6
103	103	10
142	143	1
85	85	5
73	73	2
0	0	4
135	135	4
43	43	3
54	67	1
139	151	5
101	101	8
94	96	2
92	92	5
86	87	1
159	159	6
20	20	6
4	5	2
145	146	1
44	45	1
108	135	1
65	65	4
36	36	2
22	24	3
106	107	2
111	111	3
155	156	8
116	119	3
73	76	1
14	19	1
65	66	2
17	18	4
104	104	7
26	26	5
76	77	3
50	50	1
108	134	1
107	138	4
127	127	4
149	150	4
139	139	2
20	21	3
71	72	2
140	140	4
88	90	1
120	120	4
117	120	3
80	83	1
99	101	6
145	158	4
126	126	8
103	117	2
33	78	2
94	94	8
16	16	3
83	84	1
140	152	1
50	65	2
26	39	2
38	78	1
29	29	6
95	96	9
52	52	1
82	83	2
135	137	1
149	149	2
32	45	5
77	83	2
145	145	5
87	88	2
118	118	2
41	42	1
46	47	1
44	44	6
109	109	9
136	137	1
99	100	2
157	157	5
102	103	2
122	122	5
81	81	1
30	43	2
113	119	2
137	150	1
154	155	1
141	141	1
23	23	2
48	49	2
79	80	3
46	46	5
11	65	2
33	33	4
18	18	1
123	126	2
104	122	2
139	148	1
129	133	2
121	122	1
32	56	2
30	44	1
12	12	1
95	97	2
50	53	1
129	130	2
21	21	5
39	44	2
104	105	3
13	13	6
70	70	3
98	98	4
13	18	2
111	134	2
95	95	1
55	55	3
156	156	1
85	88	1
125	137	1
148	149	3
35	35	3
115	115	1
8	11	2
90	103	3
93	98	1
119	119	2
24	25	1
27	39	1
131	131	1
146	146	1
18	19	2
28	29	2
48	48	2
45	65	2
33	35	2
79	79	2
35	79	1
68	69	2
129	138	4
79	83	2
9	9	1
152	152	1
39	41	1
53	71	1
98	138	2
120	121	1
106	106	1
24	24	1
152	153	1
27	27	1
12	65	1
88	97	1
105	105	1
91	91	1
13	16	2
116	118	1
66	72	2
35	86	1
83	83	1
111	112	1
