58	60	4
92	92	10
98	98	20
77	77	13
38	38	13
82	83	7
22	22	12
51	51	9
42	53	3
20	21	1
50	50	12
69	69	11
95	95	2
26	26	5
75	75	22
28	29	16
88	88	19
32	32	8
49	59	3
96	107	3
67	67	3
75	76	1
91	91	8
57	58	3
39	39	13
63	63	13
102	102	7
76	76	19
35	35	9
62	71	1
40	41	6
87	98	1
78	78	8
76	100	1
44	45	4
65	81	4
60	60	15
44	44	6
84	84	5
49	49	8
36	37	3
21	22	1
62	63	3
40	40	9
89	89	6
63	81	3
54	56	1
27	53	5
95	97	2
92	97	1
57	71	3
21	24	3
56	56	11
79	79	9
93	93	13
71	71	6
25	50	2
92	93	7
68	68	12
85	85	3
100	100	10
59	59	16
48	51	5
86	98	5
94	97	1
103	103	15
35	39	2
20	29	1
72	72	8
33	33	4
100	101	6
81	82	2
24	31	6
60	61	9
24	24	12
51	60	3
99	99	1
82	82	11
84	90	2
55	55	10
96	97	8
84	99	1
54	54	4
20	24	1
58	69	1
31	37	4
83	83	11
28	28	2
66	66	9
82	86	6
22	97	3
22	24	1
97	97	8
23	32	1
47	47	4
98	100	2
106	106	8
53	55	3
87	87	5
30	30	4
84	86	2
81	81	13
80	80	12
41	42	5
96	96	6
92	98	2
41	44	2
87	88	1
50	61	2
56	79	3
52	53	3
64	64	8
41	41	4
104	104	6
31	31	7
64	74	1
43	68	1
86	86	9
67	68	4
35	36	4
32	35	2
34	35	3
27	30	3
58	58	11
90	90	1
97	98	6
94	95	1
26	47	1
20	20	4
40	57	2
55	56	3
49	98	6
23	23	9
58	71	3
72	73	1
94	94	4
73	75	3
80	83	2
40	81	5
46	85	1
91	94	1
27	27	5
43	81	1
21	34	3
34	34	4
36	47	2
42	42	13
27	31	3
59	60	4
21	100	2
53	53	7
103	104	6
35	64	2
66	67	2
36	39	1
89	92	7
78	92	1
62	62	3
31	32	1
73	73	10
28	34	2
63	79	1
23	52	2
38	40	3
42	43	1
59	71	1
79	80	2
36	36	12
80	82	2
90	91	6
26	29	2
86	97	3
32	50	2
44	54	5
79	90	2
107	107	4
46	46	4
95	98	3
89	90	4
102	103	1
51	71	1
90	93	1
45	45	3
45	46	2
29	29	4
57	57	12
52	52	5
25	25	7
54	68	1
50	79	3
50	99	3
76	94	5
77	93	3
67	81	1
22	23	1
86	101	1
93	94	2
105	105	1
27	95	2
25	98	2
49	60	1
24	98	2
77	90	1
70	70	5
50	105	3
101	106	1
24	25	2
20	22	2
94	99	2
91	92	5
87	106	1
98	105	1
26	27	3
42	83	3
81	91	1
46	47	2
28	41	2
63	73	2
49	69	1
37	37	3
38	39	1
44	82	2
26	46	2
50	100	2
51	99	1
87	89	3
83	96	1
61	91	1
37	46	2
38	47	1
80	106	1
26	30	2
92	105	3
47	48	2
71	72	5
43	43	1
58	59	2
65	65	3
21	55	1
99	100	2
73	76	2
48	49	1
75	89	1
43	82	1
104	105	1
82	87	5
97	100	3
87	105	2
49	50	2
60	76	1
80	81	1
39	42	1
49	51	1
65	66	6
57	70	1
24	34	1
50	101	1
87	99	1
27	47	1
86	89	2
21	32	1
74	74	1
77	92	1
28	47	2
24	97	1
29	33	2
92	107	1
101	101	1
56	68	1
53	67	1
34	56	1
93	102	1
56	66	1
58	70	1
25	27	1
82	90	2
60	66	1
35	49	1
38	52	1
65	79	1
84	85	1
60	67	1
101	102	1
