16	22	5
13	75	3
106	106	10
19	19	11
95	95	11
155	157	4
54	54	8
134	135	6
131	131	8
19	107	2
58	58	4
84	119	4
39	45	1
49	50	4
109	109	13
39	79	4
127	127	11
97	97	19
1	1	13
44	44	5
101	111	4
167	168	6
47	50	4
152	155	5
5	5	16
119	120	6
40	40	13
10	10	5
146	146	9
132	132	18
67	68	5
151	151	6
24	24	14
143	143	16
25	64	4
83	110	1
103	125	1
138	151	3
87	87	8
67	67	18
82	82	8
96	121	4
104	116	1
120	121	2
102	102	11
52	73	3
149	149	22
25	25	8
113	134	3
146	154	3
35	43	3
129	129	7
135	136	3
8	8	14
157	157	7
156	156	26
100	122	5
127	128	3
83	83	12
112	112	14
7	126	1
6	6	11
169	169	21
74	110	1
63	83	2
146	165	12
25	26	4
26	33	5
105	106	5
2	2	21
123	123	14
1	138	3
77	77	6
134	136	2
167	167	11
134	134	8
75	75	10
104	156	2
144	144	17
125	125	14
162	163	7
8	166	1
161	161	16
46	46	16
157	158	5
16	44	1
0	40	1
91	138	2
37	161	2
53	54	6
107	108	1
38	38	20
36	37	1
37	37	18
55	55	6
137	137	18
37	128	4
20	36	4
67	74	5
13	81	2
74	74	9
140	141	13
101	102	2
115	116	5
109	154	1
55	71	9
3	4	3
9	10	5
1	135	1
52	53	5
22	22	9
136	136	6
10	11	8
88	136	3
73	73	10
120	120	12
105	105	11
34	159	3
16	20	3
106	127	3
57	62	2
163	163	5
3	20	3
36	42	1
48	48	9
76	76	11
122	123	3
78	78	6
17	17	6
133	139	3
86	86	9
53	53	12
80	110	2
40	41	8
39	39	5
47	47	8
92	93	4
126	127	7
130	133	1
96	96	16
41	41	14
26	26	6
33	159	2
77	78	6
47	55	5
47	48	5
0	2	2
7	7	8
125	126	13
145	145	9
2	89	2
9	13	3
113	113	14
114	114	11
100	121	1
150	150	4
103	113	2
108	108	9
23	23	6
34	34	6
140	140	7
96	120	1
77	122	6
93	93	12
54	134	1
16	21	1
69	69	6
50	50	12
109	155	4
99	99	3
132	149	2
37	42	2
147	163	1
40	73	6
98	98	12
133	135	3
139	139	9
92	92	14
82	111	1
108	111	1
43	43	21
100	125	1
62	82	1
99	117	2
101	101	7
70	134	2
151	153	5
111	111	18
8	9	5
127	129	3
140	143	2
119	119	15
107	107	10
148	148	3
80	80	5
149	158	3
18	52	4
51	52	6
99	126	1
72	75	4
24	65	5
118	118	22
7	9	1
85	130	1
27	27	8
69	116	1
12	74	4
142	143	11
123	148	5
87	127	3
116	122	2
119	126	4
75	86	1
165	166	5
27	28	6
52	52	11
81	82	2
100	100	8
9	49	4
50	106	1
20	82	1
37	79	1
135	135	7
45	45	8
3	3	12
69	71	3
90	91	5
65	65	9
78	156	1
141	141	7
47	58	4
123	125	1
166	166	6
161	162	2
65	66	5
88	96	2
12	12	5
39	72	6
57	159	1
87	99	2
36	36	6
159	159	11
139	140	5
158	158	11
62	117	2
11	53	2
71	72	6
13	14	2
91	95	2
75	76	4
6	9	3
63	77	1
72	72	15
1	56	2
97	139	3
4	4	5
76	77	3
134	159	2
164	164	8
37	38	4
142	154	5
138	152	3
74	77	1
9	9	10
75	130	2
0	1	8
88	94	1
21	53	1
62	62	9
84	113	4
105	144	1
56	57	6
12	48	3
13	48	7
122	122	14
69	70	5
20	58	1
102	103	3
48	49	5
116	146	3
15	15	10
35	35	19
153	154	3
15	16	7
2	55	8
121	123	2
64	64	5
152	154	4
71	71	6
74	111	2
151	164	5
143	144	5
73	83	1
33	34	4
153	153	10
34	35	2
163	164	3
36	74	2
63	63	4
70	70	7
122	126	3
79	80	4
148	154	1
138	138	4
20	20	9
76	112	1
115	115	10
27	33	5
25	28	2
86	87	4
76	110	4
56	133	1
117	118	1
46	50	1
154	154	6
44	45	5
147	147	5
136	149	1
40	70	3
16	16	4
14	14	6
119	141	1
66	66	13
89	89	11
111	117	1
155	155	8
91	100	1
159	166	1
40	77	1
102	107	1
85	85	8
13	15	2
149	161	3
110	110	5
168	169	6
113	119	1
148	163	6
126	126	7
86	104	3
72	73	3
33	44	2
53	71	3
168	170	6
11	12	8
85	129	1
73	75	1
113	114	6
56	144	1
7	53	2
101	109	1
75	83	4
67	111	4
72	113	1
104	104	9
79	109	1
146	162	1
123	124	5
116	152	2
123	154	1
93	98	2
116	116	6
79	79	4
145	158	4
142	142	8
78	79	3
12	45	5
42	43	7
80	130	1
45	47	2
164	165	3
39	88	4
154	155	2
84	110	1
18	24	1
166	167	2
113	115	2
148	149	4
3	5	7
148	160	3
3	7	1
88	125	5
117	142	4
45	77	2
170	170	6
14	15	6
11	11	4
90	90	9
13	13	13
105	114	1
139	141	1
130	130	7
41	135	2
77	123	3
108	109	7
146	147	4
145	163	2
144	167	2
40	136	3
42	42	4
101	110	2
165	165	7
91	91	7
58	74	1
138	139	3
68	72	1
22	81	2
143	153	2
111	112	5
137	140	1
114	115	3
45	76	1
69	139	2
68	68	7
62	74	2
67	73	2
133	133	4
91	113	1
6	166	2
22	64	2
155	156	10
1	2	2
56	119	1
151	158	1
87	117	4
124	127	2
65	95	3
68	156	3
103	103	4
57	84	3
103	145	3
97	99	1
103	143	1
78	131	5
159	169	2
57	57	8
20	84	9
66	68	6
162	165	2
128	129	2
109	110	1
39	70	1
150	151	3
35	138	1
111	129	2
87	89	1
141	150	1
91	104	1
27	95	3
54	119	1
151	163	2
22	39	1
124	124	3
67	77	1
168	168	5
74	127	3
21	21	9
80	134	6
104	117	3
64	65	1
24	27	2
46	51	1
56	56	2
94	95	5
169	170	2
86	88	1
9	11	3
56	135	1
78	87	1
42	136	1
126	148	1
88	127	2
94	94	8
69	95	2
38	80	1
82	169	1
19	84	2
87	123	2
14	19	3
92	98	3
99	118	2
74	75	2
0	0	10
21	64	4
17	18	5
6	54	1
10	45	3
149	162	2
11	14	1
57	58	2
85	131	1
87	96	1
152	152	2
2	5	2
121	121	5
72	131	4
117	117	10
162	162	9
137	138	3
135	137	1
13	79	1
144	150	2
143	158	1
102	124	4
24	66	1
129	155	3
145	154	3
146	159	1
86	125	2
147	148	6
113	116	1
163	166	2
22	25	3
70	71	9
119	121	2
38	72	1
22	23	6
101	116	5
53	74	4
5	6	2
159	165	1
104	106	1
33	33	2
43	163	3
117	119	2
116	156	1
151	152	5
76	156	1
97	126	1
26	111	1
82	84	1
133	134	3
163	165	1
100	120	3
143	145	1
27	55	3
36	156	3
98	99	5
69	84	2
128	128	3
146	148	3
112	113	7
104	112	1
0	52	4
63	86	2
46	87	2
99	123	1
36	80	1
38	84	3
35	108	1
76	130	3
24	28	1
86	121	3
144	145	6
49	49	3
64	111	1
15	79	1
38	41	1
11	149	1
4	51	1
88	89	1
82	83	3
34	110	2
63	64	2
51	99	1
160	160	2
129	130	3
7	10	4
100	168	5
133	155	1
117	130	2
25	112	1
160	165	1
132	133	2
18	18	2
40	51	3
124	125	1
92	96	2
79	157	2
41	72	2
35	158	1
13	73	1
151	157	2
122	144	2
167	169	3
90	137	1
166	168	1
102	104	4
26	74	2
53	57	1
104	131	2
99	102	2
69	131	2
142	148	2
101	117	1
89	90	1
134	160	1
28	28	1
115	118	1
81	81	1
110	111	1
47	126	1
141	142	1
1	8	1
47	57	1
117	120	3
1	3	1
39	133	1
84	84	4
35	156	2
125	127	1
107	149	1
101	103	3
137	152	1
54	56	1
20	64	1
10	44	1
25	66	1
54	55	2
152	167	1
82	136	1
8	53	1
63	65	1
87	118	2
105	115	2
147	164	1
62	87	2
10	49	1
125	135	1
42	138	1
20	21	1
72	114	1
38	43	1
4	32	1
118	120	1
52	56	2
107	126	1
120	123	1
61	62	1
128	130	1
72	87	1
66	73	3
67	71	1
45	46	2
6	7	2
1	137	1
42	135	2
43	46	1
39	40	1
47	49	1
85	127	1
68	155	1
120	125	1
62	119	1
84	89	2
12	13	1
48	55	1
42	79	1
113	133	1
136	137	2
88	88	1
124	146	1
116	154	1
87	90	3
12	75	2
91	102	1
76	80	1
6	50	1
2	23	1
103	119	2
58	62	2
52	76	1
64	87	1
51	51	1
11	13	2
69	156	1
68	83	1
105	109	3
125	169	1
4	36	2
130	131	1
148	166	2
147	169	2
90	112	1
90	129	1
129	132	2
99	100	1
106	113	1
41	51	1
110	119	1
145	147	1
39	58	1
134	155	1
144	168	1
85	86	1
38	40	1
24	25	1
63	85	1
148	162	1
115	119	1
116	117	1
20	23	1
56	72	3
39	85	1
122	124	1
95	96	1
124	160	1
10	170	1
80	84	1
18	19	1
24	88	1
2	138	1
91	92	1
4	50	1
105	112	1
152	168	1
45	51	1
49	65	1
153	160	1
64	66	1
100	146	1
94	98	1
104	113	1
130	132	1
149	159	1
20	22	1
121	126	2
2	6	1
140	167	1
46	47	1
109	111	1
46	55	1
