138	138	6
18	18	11
29	29	6
86	89	2
131	131	11
35	35	10
152	152	7
83	83	3
109	111	4
66	66	3
148	148	13
65	65	8
25	25	8
132	132	11
30	30	2
25	105	4
107	107	3
151	151	6
4	4	5
94	95	3
20	20	5
128	129	3
38	38	10
9	10	3
90	90	7
7	8	7
17	22	4
111	112	4
3	4	11
80	80	5
77	155	4
133	133	8
28	29	4
146	146	6
3	7	1
2	4	5
29	30	6
114	114	3
52	52	5
81	81	12
73	73	5
131	132	4
70	71	3
18	19	6
151	152	4
15	15	3
127	127	7
79	81	4
68	115	1
12	12	18
44	44	14
3	3	12
79	79	5
101	101	6
105	105	11
50	53	1
48	49	5
119	122	1
134	137	2
119	120	6
75	99	3
140	140	7
26	26	8
118	118	4
69	69	6
145	146	3
132	133	2
11	11	2
88	90	5
95	96	15
129	130	3
41	41	6
70	70	8
89	89	6
25	26	3
66	70	4
8	11	2
119	119	7
75	75	8
46	46	10
128	128	12
98	98	10
154	155	3
69	73	6
116	116	4
43	54	5
6	87	3
88	89	4
79	80	3
112	113	2
71	71	8
22	22	5
92	92	10
103	103	7
0	0	1
34	34	9
106	106	6
105	106	7
78	78	7
88	88	5
39	39	6
109	110	3
150	151	4
8	12	3
87	88	7
47	47	9
85	85	3
137	137	14
91	91	7
70	104	1
27	39	5
96	97	3
50	65	6
104	105	1
119	141	2
139	140	5
123	123	5
110	111	4
109	109	9
115	115	11
33	35	1
108	109	7
145	148	2
118	123	3
44	130	3
129	129	2
28	28	2
54	54	1
93	93	20
118	120	5
135	135	4
156	158	4
32	47	2
102	102	3
142	142	3
33	33	6
42	57	1
100	100	7
87	87	11
27	27	7
2	2	11
26	112	1
120	120	6
50	51	2
31	49	4
158	158	8
48	113	2
73	81	3
6	35	2
107	110	1
94	107	1
7	7	7
134	135	4
73	105	4
16	47	3
8	27	2
82	83	4
12	28	1
44	45	2
154	154	5
83	89	1
108	108	3
33	34	2
41	131	3
79	155	4
157	157	9
118	119	1
12	92	2
51	51	7
23	23	1
116	124	5
113	116	1
31	32	3
95	95	3
31	31	3
122	136	3
127	133	1
87	90	3
86	86	3
67	67	8
43	43	3
43	44	3
130	130	3
13	15	2
26	92	2
116	117	1
14	32	3
10	10	6
13	28	3
134	134	9
92	93	5
19	19	6
0	29	1
14	16	2
0	2	2
94	94	2
77	77	5
82	82	6
125	126	1
17	54	1
79	103	4
62	63	1
99	99	5
8	8	4
150	150	7
18	43	1
144	144	4
80	103	1
73	110	4
16	16	2
43	55	1
69	113	4
5	5	2
96	96	3
17	17	7
143	144	1
156	157	3
76	155	4
70	114	2
84	89	3
77	102	2
78	79	1
25	106	2
141	143	3
110	110	6
64	64	5
5	92	4
70	72	1
50	50	2
112	112	2
127	128	4
12	25	2
136	138	2
42	131	1
22	23	6
76	151	1
10	29	2
124	125	1
90	91	5
11	12	1
55	55	3
113	113	1
37	114	2
75	96	1
97	97	2
139	139	6
125	125	3
121	122	2
36	68	5
83	106	1
68	68	3
26	28	1
19	20	2
104	104	4
149	150	1
117	134	2
111	113	1
156	156	1
36	36	6
143	143	2
97	98	2
56	57	2
32	48	7
153	155	2
56	56	1
38	106	2
104	106	1
80	104	1
89	91	2
6	6	4
35	38	2
108	111	3
86	87	4
50	66	1
40	131	1
122	122	2
6	7	2
141	141	3
39	131	2
126	126	1
111	111	3
84	85	2
155	156	1
41	42	2
121	141	2
1	10	1
24	24	8
68	69	1
32	69	2
81	82	1
65	114	1
16	45	1
153	153	1
62	64	2
117	117	3
83	84	1
153	154	1
37	37	1
32	33	1
42	42	4
67	68	1
144	145	3
147	147	1
158	159	2
14	15	2
45	46	1
12	13	1
1	2	1
107	108	2
99	150	1
10	11	1
80	81	2
53	53	3
77	78	1
78	121	1
51	52	2
9	24	1
104	113	1
41	62	1
62	131	2
84	158	1
8	10	2
14	14	1
9	9	1
17	18	1
107	109	1
39	130	1
67	71	1
38	69	1
23	24	2
11	29	1
75	76	1
76	76	1
72	72	2
71	82	1
