7	7	10
112	112	2
25	25	11
83	83	2
67	67	5
109	109	5
128	128	5
19	19	8
75	75	7
3	6	2
61	62	2
52	54	2
33	33	6
118	118	2
95	95	2
25	26	1
2	14	3
59	59	6
87	87	2
82	83	4
17	18	2
128	129	7
6	6	3
81	122	2
61	61	6
115	115	7
121	121	4
79	79	3
76	112	3
79	119	5
118	119	3
104	104	1
89	89	5
44	60	2
87	119	2
35	35	3
126	126	4
27	27	5
99	99	3
68	69	5
45	45	7
63	63	6
4	4	5
29	35	1
65	65	6
106	107	3
86	119	2
43	47	3
28	28	6
22	22	4
111	130	2
91	92	1
93	93	6
88	88	6
119	119	3
96	96	2
86	87	5
53	53	4
85	87	1
114	114	2
72	72	6
110	129	1
29	29	8
5	5	3
125	125	7
7	61	9
83	84	2
82	87	5
127	127	3
122	122	6
69	69	6
123	123	6
28	29	2
102	102	4
58	91	3
11	11	6
106	106	6
17	17	2
7	8	1
73	73	1
74	74	5
26	27	3
132	132	1
15	15	3
2	2	2
123	124	4
16	17	2
24	24	2
95	96	5
89	90	6
64	64	1
82	82	4
10	10	2
68	68	2
62	62	3
97	97	5
107	107	2
101	101	5
31	31	1
77	107	1
11	13	2
120	121	2
85	85	3
130	133	3
105	105	6
114	120	3
98	98	2
70	70	3
9	9	3
55	55	3
132	133	4
9	10	2
23	23	1
103	103	1
20	20	2
12	13	2
83	88	1
49	50	3
112	120	1
77	78	2
22	23	3
35	36	8
52	52	2
21	22	3
86	120	1
134	134	4
21	21	2
9	38	1
79	110	1
30	30	2
69	87	1
79	122	2
49	49	3
31	32	2
0	0	1
19	27	2
3	5	2
76	76	4
54	55	2
94	94	1
88	116	1
8	62	3
117	117	1
52	53	2
86	86	2
3	27	1
24	25	1
112	115	2
14	14	2
131	132	1
22	97	1
27	28	1
38	38	2
106	133	2
107	131	2
83	118	1
78	78	2
85	86	3
53	54	2
93	94	1
50	50	1
94	95	1
108	133	1
81	81	2
18	18	1
111	111	1
15	17	1
44	44	1
91	91	2
8	8	1
120	120	2
50	51	1
92	92	1
119	120	1
95	98	1
54	57	1
116	116	1
37	38	1
130	132	1
62	71	1
69	88	1
60	65	1
47	47	1
