31	31	9
78	78	5
181	192	5
43	147	2
51	51	5
222	222	7
159	159	2
180	193	3
47	49	2
68	78	3
203	209	1
214	214	3
33	33	7
43	43	3
99	107	6
192	193	3
187	190	1
167	167	2
82	82	1
157	158	4
58	58	3
240	240	6
152	209	6
164	164	6
47	47	8
46	81	4
50	50	2
176	176	6
4	4	2
232	232	9
93	111	1
29	29	5
23	23	2
240	241	5
233	234	3
183	183	4
200	201	3
203	203	4
74	75	1
179	179	2
92	92	9
12	222	1
79	79	5
18	30	3
19	19	12
190	219	3
85	85	6
61	165	2
116	116	4
172	172	3
175	195	4
38	205	1
77	89	3
119	119	10
153	155	2
72	75	1
201	201	8
163	164	2
88	88	2
34	209	1
98	98	6
188	188	5
10	10	3
208	208	6
204	204	4
66	66	1
231	233	5
198	198	4
52	52	6
211	212	2
40	40	7
168	198	5
167	170	1
225	239	2
113	114	4
244	244	4
246	246	6
58	66	6
186	186	5
201	205	2
44	119	5
228	228	4
30	31	2
42	244	3
38	38	4
210	210	7
75	75	4
215	215	12
117	117	5
76	106	4
110	110	2
33	156	6
7	7	7
6	6	3
237	238	4
27	28	3
64	64	3
61	159	2
155	155	6
184	185	3
90	112	3
53	84	1
177	177	5
156	156	4
178	179	6
171	172	2
174	174	3
182	182	3
26	26	1
165	165	3
100	100	3
245	245	8
179	243	1
76	76	7
19	29	2
62	62	2
70	70	5
191	192	9
150	151	3
194	195	2
247	247	3
76	89	2
150	150	4
166	166	1
182	223	2
208	210	5
10	211	3
114	114	8
187	188	4
146	146	4
59	60	5
54	55	2
106	106	4
203	204	3
111	112	3
48	49	2
32	32	5
87	88	3
223	223	6
193	193	4
55	56	3
34	34	5
83	83	2
35	35	2
199	199	6
115	116	4
68	77	2
48	48	4
17	156	1
11	160	4
190	190	6
65	65	4
27	202	2
77	77	3
31	32	2
8	8	4
15	51	2
24	24	3
33	34	2
76	78	3
161	161	3
82	83	4
18	161	2
4	12	1
18	18	2
231	232	2
207	207	1
69	69	5
239	239	6
179	242	1
184	184	2
102	102	12
162	162	3
61	61	6
192	192	6
234	234	7
154	154	4
165	246	3
104	117	2
169	169	9
183	184	4
80	81	4
159	165	4
60	94	8
226	227	2
51	52	1
233	247	1
9	9	4
50	233	1
53	54	3
173	198	1
184	247	1
164	165	1
34	206	1
43	45	4
56	57	1
92	93	2
207	208	1
115	115	2
232	233	3
61	96	3
39	235	4
103	103	1
68	82	3
198	199	1
195	219	3
110	111	2
101	101	5
111	111	5
176	195	1
79	82	2
245	246	4
229	230	2
151	151	2
178	178	9
33	145	2
27	27	3
91	116	2
170	170	5
87	92	1
44	53	2
112	112	12
69	86	2
181	222	5
44	59	1
88	89	1
32	156	3
99	99	1
191	219	1
216	217	3
28	28	4
160	160	3
158	158	2
41	41	1
12	12	2
36	36	9
169	213	1
200	200	4
44	44	2
181	181	2
121	147	5
105	116	2
28	35	1
92	110	2
218	219	3
225	225	2
104	105	4
240	242	5
16	16	1
74	74	4
62	63	4
84	85	2
219	219	7
68	68	3
118	118	1
216	216	2
218	218	3
5	5	4
97	107	1
114	115	2
18	19	1
35	37	4
105	106	1
197	197	2
177	195	3
74	76	1
57	81	1
51	232	1
147	153	1
227	244	1
159	160	2
224	224	2
212	212	3
157	246	1
61	95	1
242	243	2
89	114	2
195	195	3
4	6	2
25	26	1
145	145	6
146	147	4
57	57	1
73	74	4
201	213	1
60	61	1
120	120	1
191	191	2
149	204	1
96	96	1
182	192	3
224	237	1
51	230	2
37	209	2
95	159	1
20	20	2
106	108	2
175	176	1
17	30	1
214	215	1
13	13	1
102	103	2
243	244	1
163	163	1
60	60	2
19	156	1
12	51	1
189	189	2
90	91	2
42	42	1
231	231	3
95	95	3
185	185	1
79	80	1
14	49	4
71	71	3
177	194	3
1	1	3
171	171	1
3	3	2
206	206	1
38	40	2
170	171	2
76	91	1
81	81	3
194	194	1
119	120	4
50	231	2
33	208	2
7	159	2
70	86	2
109	109	1
110	114	2
226	226	4
178	217	1
80	80	1
209	209	3
174	194	1
248	248	2
41	148	1
81	82	1
97	97	3
39	40	1
172	175	1
21	32	2
87	87	2
202	202	3
44	244	1
237	237	1
210	211	1
211	211	1
177	193	2
92	117	3
187	187	4
183	187	1
53	53	2
202	214	1
187	247	1
34	42	1
44	45	2
178	220	1
30	30	1
46	46	1
235	235	1
37	37	1
42	43	1
213	213	1
221	221	2
105	105	2
16	43	1
56	56	2
167	244	1
238	238	2
29	30	2
116	117	1
42	245	1
91	91	1
208	209	1
78	79	1
89	89	1
182	186	1
176	196	1
2	2	1
246	247	1
58	98	2
181	223	1
104	104	2
29	156	1
46	48	1
15	15	1
179	244	1
114	116	1
11	11	1
74	90	1
38	201	1
36	150	1
52	55	1
242	242	1
90	92	1
187	222	1
185	233	1
35	152	1
91	104	1
93	93	1
68	80	1
49	49	2
205	205	2
70	71	1
228	234	1
43	243	1
112	114	1
67	67	1
47	64	2
152	153	1
22	23	1
21	21	1
185	225	1
228	244	1
61	118	1
55	55	1
