174	175	1
88	89	7
105	105	15
154	154	4
167	167	5
163	163	10
149	149	32
6	10	10
33	33	6
25	25	6
120	121	6
42	43	5
57	58	1
166	167	7
26	26	14
59	59	21
24	27	1
51	51	10
157	159	3
60	118	2
60	151	9
54	54	16
83	83	17
59	60	7
77	78	7
163	169	2
41	41	15
81	82	7
178	179	3
60	60	18
19	20	4
34	38	3
4	4	13
9	9	21
162	162	15
119	119	17
117	117	7
120	157	7
74	74	4
134	134	14
109	109	13
122	123	6
92	92	5
85	85	6
40	41	4
29	30	4
77	77	16
72	75	2
86	86	13
90	91	3
21	21	2
34	35	4
16	16	3
118	172	1
80	82	5
146	146	18
60	61	5
160	161	4
143	144	6
106	106	18
179	179	13
21	22	5
89	89	12
111	111	12
40	40	9
127	127	14
165	165	11
124	124	19
172	174	2
83	140	5
141	141	9
72	72	6
93	94	6
175	175	6
169	170	8
110	147	3
54	121	2
176	176	14
44	45	2
42	42	11
135	136	13
119	121	6
162	168	4
66	67	3
83	147	1
91	94	3
129	131	5
151	154	8
76	131	2
118	118	14
96	96	12
171	175	4
84	84	7
117	146	2
76	76	15
39	128	4
15	15	15
24	24	8
95	147	5
121	121	16
109	113	1
35	35	17
159	160	7
148	148	9
97	97	4
122	125	1
96	97	4
142	142	8
32	32	13
94	94	8
43	45	7
36	37	10
50	50	15
168	170	5
137	137	8
132	132	19
61	101	1
135	135	8
76	77	3
107	107	16
83	146	3
138	173	3
129	129	6
94	179	5
122	126	1
8	8	8
59	68	6
125	125	6
145	146	4
114	115	9
2	3	5
12	13	5
61	129	1
130	130	7
152	153	11
151	156	3
130	131	5
12	45	1
180	180	4
57	57	8
140	140	3
150	150	8
1	16	3
24	25	5
42	140	9
27	93	3
115	158	2
64	71	5
168	168	12
64	66	3
104	105	9
147	147	3
56	56	5
155	155	10
64	98	3
167	168	5
93	93	7
152	152	9
14	14	4
157	158	2
63	63	4
82	86	1
134	137	2
66	66	21
29	29	17
61	61	11
159	159	5
78	78	10
81	81	14
111	112	1
2	2	5
130	172	2
124	125	4
98	98	3
54	55	10
164	170	6
128	128	16
71	71	12
82	82	8
131	131	9
62	99	1
30	30	16
34	34	19
112	114	5
91	91	12
170	171	1
5	8	3
103	109	1
37	37	16
43	43	14
157	157	3
153	154	4
133	133	12
30	31	4
36	36	13
1	3	1
8	12	4
143	146	2
158	158	9
73	74	1
178	178	10
166	166	16
43	44	11
112	112	8
56	60	2
8	9	3
73	73	12
62	63	1
138	138	3
71	156	2
68	68	10
136	136	6
174	176	4
44	44	7
126	126	12
64	64	15
75	172	2
110	110	3
172	172	8
146	147	12
19	19	2
62	65	4
79	79	11
38	38	2
12	12	8
120	120	12
5	5	6
65	66	4
38	39	2
52	52	2
176	177	3
65	65	4
165	166	6
55	55	7
138	139	3
40	156	1
52	53	1
108	112	1
116	118	2
27	27	9
161	161	6
120	158	2
104	104	5
86	125	1
115	115	4
31	31	11
161	162	4
90	90	14
145	145	12
1	1	2
150	158	6
144	144	7
63	67	2
31	32	4
155	156	7
139	139	2
107	111	5
156	157	2
172	173	5
95	95	10
176	180	5
0	1	3
101	101	3
67	67	10
123	123	2
155	160	2
83	84	4
144	147	4
68	155	3
10	10	2
131	172	1
18	32	3
6	6	2
146	158	3
170	170	9
100	101	2
177	177	3
160	160	9
68	139	1
41	42	3
53	53	4
98	100	2
125	129	4
163	165	1
119	149	1
58	59	6
71	154	1
39	40	4
145	148	2
164	167	4
23	24	6
32	36	1
173	174	1
71	78	3
62	100	4
77	176	3
89	130	5
8	13	2
114	114	7
39	39	4
75	75	13
6	8	5
116	116	6
20	31	3
87	87	3
175	176	1
26	30	4
14	22	2
64	67	1
8	18	2
8	10	2
63	99	3
34	36	3
150	157	2
5	6	1
108	108	9
98	101	1
171	171	10
72	73	2
80	80	6
60	155	2
115	137	1
43	140	2
128	129	3
6	33	2
134	138	2
99	99	6
141	142	1
58	58	10
52	55	1
88	88	7
117	118	2
56	72	1
101	102	1
103	106	1
129	130	2
131	132	1
75	76	3
72	74	2
11	12	6
123	124	4
71	72	5
49	49	1
89	90	3
96	98	1
100	100	3
113	113	4
121	122	1
95	146	2
108	109	2
27	28	1
156	156	4
143	143	3
173	173	12
7	7	5
128	130	1
153	153	6
16	23	1
11	13	2
9	17	2
40	87	2
62	62	7
122	131	1
66	68	1
137	138	2
112	170	1
102	102	5
0	0	3
32	33	3
54	133	2
53	121	1
28	28	10
160	170	2
103	104	2
85	95	1
140	146	3
158	159	10
13	19	1
4	5	1
62	70	2
160	171	2
43	50	2
74	75	1
126	131	4
146	157	3
117	119	2
121	154	2
164	165	2
83	86	1
121	127	1
54	123	1
17	17	4
154	155	3
4	45	1
122	122	3
76	121	2
173	176	1
55	56	3
112	113	3
68	154	2
86	129	2
42	93	1
3	4	1
56	151	2
93	140	1
92	94	1
50	51	5
62	68	2
174	174	4
51	53	3
2	18	1
22	22	2
151	151	4
17	20	1
52	74	4
136	160	2
56	150	1
11	11	1
39	58	1
51	52	1
80	81	2
35	37	3
103	103	5
68	150	1
27	30	1
87	89	2
120	127	2
105	163	5
96	117	1
40	42	2
63	65	1
34	55	3
39	156	1
28	29	2
22	23	2
41	89	1
13	13	1
6	51	1
72	133	1
120	169	1
114	116	1
85	139	2
43	133	1
70	150	1
87	130	1
6	94	1
73	145	1
20	20	3
38	44	4
5	7	3
104	175	2
140	141	1
54	71	1
112	139	1
18	18	1
125	126	2
91	93	2
3	3	2
14	141	2
75	121	1
62	98	2
65	90	1
153	155	2
179	180	1
5	19	1
150	160	3
5	38	4
11	94	1
9	21	1
87	122	1
120	151	1
41	44	2
158	160	1
139	140	1
95	97	1
143	145	2
74	76	2
13	16	1
152	168	1
97	98	4
52	89	2
106	112	3
92	102	1
59	150	1
120	171	1
12	14	2
177	178	2
42	89	1
106	167	1
117	147	2
112	116	1
134	135	1
76	120	1
121	124	2
14	21	1
154	157	1
15	41	1
59	72	2
149	150	1
119	146	1
127	155	1
119	120	1
116	117	2
77	131	1
118	158	1
119	158	1
9	20	1
6	9	1
63	66	1
119	157	2
122	124	1
45	45	2
86	88	2
101	110	1
98	99	2
1	2	1
102	146	1
17	18	2
126	129	1
22	24	1
89	93	1
55	151	1
71	98	1
2	6	1
60	68	1
39	127	1
52	88	1
151	155	1
2	5	1
9	12	2
102	109	1
4	12	1
0	134	1
81	127	1
135	159	2
153	169	1
164	164	1
142	143	1
119	150	1
42	52	1
162	170	1
132	139	2
43	89	2
103	111	1
9	97	2
96	139	1
144	145	1
134	172	1
136	137	1
57	85	1
33	36	1
149	175	1
91	140	1
76	141	1
39	45	1
79	139	1
79	80	1
96	104	1
65	67	1
