4	4	9
95	95	16
130	130	14
24	27	2
123	123	12
99	99	6
21	21	12
26	33	1
23	23	9
22	26	2
80	87	4
100	101	8
90	90	8
37	38	3
96	96	15
114	115	2
35	35	19
34	34	11
85	85	15
108	108	8
10	10	9
137	137	6
87	87	14
25	25	3
109	109	15
129	129	6
71	88	1
88	88	8
72	72	6
23	24	3
136	139	3
134	135	9
112	112	9
13	14	4
122	122	7
12	33	1
119	119	7
32	32	12
120	120	12
2	2	5
7	7	17
17	17	13
115	115	6
138	138	7
15	18	2
12	12	11
131	131	16
134	134	10
18	32	2
83	83	11
77	77	11
85	102	2
79	79	9
4	18	2
15	15	14
102	102	5
20	22	1
37	37	11
105	105	7
27	27	12
7	9	4
30	30	9
33	33	10
81	81	4
126	126	11
99	100	5
36	36	6
117	121	1
17	19	1
132	132	16
19	26	2
0	0	8
87	91	7
74	74	4
38	38	6
18	18	13
107	107	7
110	110	11
31	32	3
36	37	3
13	13	10
28	28	5
139	139	6
26	26	10
16	17	6
136	136	8
97	97	5
89	90	3
71	71	7
136	137	6
123	124	6
104	108	1
82	82	15
35	85	2
7	8	1
107	108	7
8	8	9
85	86	3
28	30	2
14	25	6
78	78	7
128	128	2
90	91	5
93	93	2
105	106	2
12	74	2
124	124	7
1	1	5
125	125	6
24	24	7
98	98	16
13	25	1
20	24	2
113	129	2
3	3	4
116	116	12
127	128	3
76	76	4
100	100	4
106	106	6
28	93	1
22	23	1
101	101	12
117	117	13
90	100	1
12	22	5
104	104	4
76	77	3
103	103	5
10	74	1
75	117	1
96	102	4
20	20	8
113	113	7
84	85	5
14	14	4
89	89	3
29	29	3
86	86	2
128	129	9
140	140	5
12	25	1
80	106	1
96	97	4
116	117	1
15	19	6
93	94	2
33	34	1
22	22	5
31	84	1
118	121	2
9	9	1
12	31	1
11	11	8
110	113	1
3	4	3
75	75	9
4	19	2
135	135	5
30	31	4
1	2	2
133	133	5
77	78	2
31	31	7
2	3	1
37	94	1
35	36	2
7	23	1
21	22	3
111	111	4
132	133	2
12	15	1
104	105	2
99	123	1
20	21	1
79	99	1
33	123	2
17	20	1
126	127	4
19	19	15
137	138	2
115	116	3
12	71	3
103	108	2
81	82	1
27	28	3
0	2	1
135	136	1
91	91	4
94	94	8
93	95	2
124	125	1
111	112	1
76	80	1
11	12	1
98	100	1
28	32	1
95	96	2
138	140	1
26	27	1
24	26	3
72	75	1
15	16	3
24	25	3
121	122	3
10	11	3
118	118	2
19	21	1
5	18	1
81	83	1
127	127	11
112	114	1
72	86	1
6	94	1
74	127	1
10	12	3
83	84	1
80	80	2
97	98	2
0	88	2
96	103	1
5	6	1
75	119	1
105	113	2
137	139	1
105	107	3
98	99	2
137	140	2
21	106	1
73	74	3
123	125	1
115	122	2
79	104	1
5	92	1
80	82	2
16	16	7
118	119	2
94	100	1
124	128	3
29	30	2
82	91	3
106	107	1
18	19	4
129	132	1
86	105	1
85	91	1
73	73	5
18	20	2
5	5	3
92	92	2
136	140	2
101	102	1
44	122	1
84	84	1
33	128	1
112	122	1
122	124	1
114	122	1
0	85	1
129	130	1
123	126	3
78	79	3
27	93	1
82	101	1
0	3	1
89	101	1
15	17	1
87	88	1
112	113	1
91	92	1
20	106	1
108	109	1
134	138	1
117	124	1
130	131	2
131	132	1
12	18	2
100	103	1
114	114	1
79	119	1
4	5	1
113	114	1
38	124	1
13	15	1
75	78	1
33	101	1
19	29	1
