46	46	2
55	55	6
152	152	3
69	69	1
41	42	2
15	15	3
83	84	5
122	143	3
26	26	5
132	132	16
164	164	10
43	43	4
152	153	8
129	140	2
90	90	9
36	52	1
1	1	5
52	52	5
77	122	4
2	13	6
25	26	4
35	36	4
91	96	2
162	162	3
128	129	3
153	154	4
157	157	4
108	109	2
170	170	4
83	83	5
163	163	3
75	75	1
54	56	2
34	63	3
33	34	1
142	142	1
100	100	1
55	56	6
129	160	4
110	110	4
163	165	3
62	62	4
21	21	3
141	142	1
93	93	2
149	149	5
137	137	2
93	94	6
146	158	3
89	90	6
37	37	4
132	161	1
79	79	3
156	156	18
102	103	1
113	133	2
143	143	6
46	66	2
101	102	1
111	111	4
5	5	11
50	50	10
155	155	3
169	169	7
149	150	1
134	135	2
57	65	4
87	87	12
119	131	1
94	95	2
111	152	1
94	94	5
112	138	2
49	49	6
80	81	3
118	120	2
17	18	3
16	17	2
8	9	1
8	12	8
54	55	4
34	34	6
116	159	1
8	8	2
95	96	1
49	50	2
125	160	3
78	78	2
69	70	6
21	22	4
85	85	6
125	125	7
162	163	1
22	23	6
70	70	5
6	6	3
166	166	4
147	147	2
88	107	1
102	102	2
95	95	3
84	89	2
49	113	4
53	53	2
66	137	2
42	111	3
103	103	12
119	137	2
162	165	1
115	123	2
123	123	10
92	93	3
98	98	4
9	9	3
23	39	2
46	47	2
150	150	3
113	113	5
113	114	3
3	26	2
18	18	3
120	120	1
74	74	6
105	105	1
114	127	2
158	158	1
80	95	3
92	99	2
51	51	3
115	161	1
148	153	1
146	146	3
36	36	6
14	14	4
163	164	1
25	25	4
3	3	2
129	129	5
65	66	4
39	64	2
84	84	2
10	11	2
124	146	2
11	11	2
110	151	2
58	65	1
46	55	1
125	168	5
96	96	3
5	8	1
17	17	1
65	108	1
128	130	2
119	120	3
118	118	3
96	100	3
0	41	1
120	121	2
127	131	3
2	2	4
105	107	1
27	27	3
20	22	1
118	129	1
130	164	2
159	159	2
14	16	3
12	12	2
127	127	3
164	165	5
128	132	8
167	167	3
19	19	2
104	104	1
50	51	3
63	63	5
108	108	2
92	92	2
130	131	2
45	45	3
17	21	1
4	4	7
148	148	3
48	56	1
101	101	1
81	92	1
40	40	5
81	114	2
42	42	4
111	133	1
73	130	1
159	168	2
89	109	1
152	165	1
133	133	1
160	161	3
63	72	3
92	120	1
6	19	2
73	73	4
91	92	2
91	93	2
12	146	3
81	81	3
169	170	2
121	125	1
87	120	1
134	134	6
129	149	3
80	80	2
122	123	1
89	89	3
117	117	3
41	41	2
128	128	1
162	166	1
116	118	1
17	42	2
54	54	1
4	20	2
76	102	1
91	91	1
125	170	1
112	133	1
24	24	2
129	130	1
33	35	3
144	160	2
125	139	1
72	133	2
2	65	2
83	109	1
7	9	2
56	56	5
64	81	2
148	149	1
80	87	2
136	157	1
141	141	1
122	169	2
2	151	1
99	101	3
97	99	1
78	82	2
52	55	1
153	153	2
64	119	1
149	168	1
46	49	2
151	151	1
72	102	1
77	78	2
126	126	1
154	154	1
140	141	2
67	80	1
92	95	2
48	51	1
130	132	1
39	39	1
102	114	2
112	114	1
82	87	1
20	23	1
67	69	2
53	54	2
18	41	2
136	136	1
101	113	2
130	160	1
74	76	3
76	87	1
116	116	3
44	44	1
145	145	3
75	80	1
78	79	1
6	8	1
93	98	2
18	19	1
70	104	3
115	115	2
139	139	4
22	22	5
106	106	5
63	91	1
73	124	1
66	67	1
18	143	1
16	37	2
114	114	2
47	47	1
72	72	2
13	13	2
28	28	1
94	106	1
156	157	1
123	170	1
137	138	1
107	107	2
124	124	1
151	153	1
57	63	2
53	75	1
25	167	1
127	146	1
121	121	1
97	97	1
112	139	2
71	71	1
34	35	2
67	86	1
139	141	3
117	153	1
47	67	3
100	103	1
66	66	1
71	77	1
26	53	1
161	161	1
155	156	1
82	82	1
76	103	1
76	125	1
118	137	1
119	156	1
80	82	1
110	138	1
7	7	1
1	2	1
