0	0	15
18	18	6
45	45	11
39	39	16
24	25	2
19	19	11
54	54	11
14	29	1
35	35	11
13	13	18
14	14	9
62	62	8
15	16	7
16	16	29
51	52	5
61	61	13
59	59	19
14	18	1
50	51	8
45	46	8
8	33	2
12	16	4
37	37	10
36	36	12
7	7	17
12	13	3
47	47	10
34	34	13
41	41	8
37	59	3
50	50	13
8	8	12
43	44	1
6	23	5
53	53	19
3	4	2
20	21	4
25	29	2
12	23	4
58	59	3
35	36	11
23	23	10
44	44	17
0	1	3
58	58	12
52	52	19
57	57	15
22	24	10
48	49	8
30	52	2
24	24	11
51	51	15
12	12	6
56	56	15
0	13	3
40	40	3
49	49	12
59	60	6
16	17	3
17	19	1
9	11	4
2	3	7
60	60	7
11	11	8
3	25	2
11	12	5
61	62	2
40	41	8
13	15	4
33	34	5
10	10	9
3	3	17
22	22	17
13	22	3
55	55	9
13	14	3
55	56	5
48	48	10
42	60	1
25	25	5
38	38	17
1	2	3
23	24	14
47	48	3
5	5	5
10	11	3
31	31	5
21	21	11
7	19	2
20	20	12
23	44	2
30	30	7
25	26	3
16	30	2
49	50	5
2	2	18
6	24	3
15	15	8
6	7	9
7	17	6
22	23	1
12	14	6
42	43	4
46	46	6
39	40	4
9	9	15
43	43	2
7	8	8
9	54	2
36	37	7
42	42	11
38	54	1
37	38	3
56	57	1
32	38	1
1	1	6
17	17	12
6	6	14
4	4	2
5	6	1
46	47	3
21	22	2
15	17	3
52	53	1
38	59	2
5	35	3
43	45	3
4	49	3
29	39	1
1	3	6
37	39	2
54	55	3
0	2	2
19	20	2
9	10	3
8	9	1
14	15	6
4	11	1
32	37	1
18	20	1
32	32	3
5	49	2
37	40	5
0	29	1
60	61	3
25	30	3
34	35	1
37	50	2
33	33	4
34	37	1
19	38	1
14	17	3
36	41	1
6	54	1
38	39	2
58	60	2
10	44	1
15	18	1
16	18	3
51	53	2
41	57	2
21	38	2
17	18	5
32	42	1
24	29	5
30	31	3
32	44	1
32	33	1
53	54	1
29	30	1
29	29	1
38	50	2
2	23	1
18	19	1
21	58	1
10	13	1
52	54	2
37	53	2
41	59	1
13	25	1
43	47	1
38	55	1
1	39	1
23	25	3
37	41	1
31	44	1
22	54	1
43	60	1
17	32	1
41	42	1
10	17	1
