31	31	6
35	124	4
26	26	12
129	129	18
113	113	3
128	128	5
64	79	3
5	12	1
90	92	1
130	130	15
132	132	12
92	92	5
125	130	6
5	5	1
4	5	3
8	63	2
82	83	4
72	73	6
11	89	3
30	30	5
44	130	9
100	101	3
28	28	6
131	132	5
100	121	1
99	99	13
64	65	1
81	81	4
44	107	3
9	9	14
36	37	5
99	100	6
28	30	2
103	104	2
52	57	4
50	66	3
61	61	21
102	102	8
100	132	5
14	14	5
4	4	5
86	88	1
21	21	5
19	19	4
107	108	2
73	73	1
130	131	9
18	18	10
83	83	5
124	128	1
12	12	10
17	28	3
91	91	9
58	59	4
45	46	3
50	50	5
88	127	3
117	118	10
77	77	2
6	6	15
29	45	2
54	54	8
105	105	5
3	87	2
130	132	6
0	2	3
45	45	3
79	79	7
12	16	1
65	97	2
37	58	1
107	107	13
123	124	6
109	109	12
33	33	11
98	134	2
110	110	8
102	124	6
112	114	1
7	26	6
34	34	7
60	60	3
92	96	4
43	43	3
52	52	9
53	56	1
91	95	2
53	53	12
11	11	9
105	128	3
90	90	13
7	84	2
11	90	5
56	102	2
78	78	7
24	24	10
70	70	4
25	26	3
7	8	1
16	16	3
45	111	1
20	20	4
128	129	2
72	84	3
95	95	8
65	65	4
116	116	4
67	68	5
1	9	4
104	104	11
127	127	6
3	3	3
38	118	3
70	134	2
131	131	10
56	62	3
47	50	2
10	10	5
34	118	3
38	43	1
57	57	4
54	105	1
22	22	3
78	94	3
62	63	5
96	96	1
63	69	6
22	24	3
130	133	2
48	85	1
115	115	12
58	58	7
1	5	1
0	99	1
3	46	1
80	84	2
84	129	2
35	56	5
15	15	6
115	116	8
66	110	1
78	79	3
67	83	1
79	82	2
3	4	5
17	17	6
21	22	4
103	103	4
5	26	3
87	87	7
0	101	2
19	21	1
133	133	10
29	29	2
71	71	5
120	120	14
38	63	2
25	25	5
74	74	2
85	86	2
60	61	5
122	127	2
121	121	4
127	128	3
134	134	8
35	123	6
54	56	6
5	6	1
101	101	6
122	122	5
84	84	6
44	108	1
74	75	4
118	118	4
69	69	9
69	85	4
28	29	1
62	77	2
91	92	2
84	130	4
100	106	3
29	32	3
83	84	2
49	132	3
35	38	4
39	39	1
95	104	3
66	105	1
89	89	2
101	102	2
55	56	5
110	111	2
85	109	2
14	15	1
62	62	4
0	24	4
16	28	1
68	68	4
27	28	4
88	124	3
66	66	2
108	116	3
7	56	1
79	80	4
24	63	1
75	127	3
32	32	4
24	25	2
44	44	2
70	71	2
58	83	2
97	98	3
32	33	1
61	103	2
113	127	2
55	55	3
47	53	2
56	57	1
49	50	3
18	21	1
99	127	3
83	109	3
6	7	2
65	120	3
79	84	1
2	2	4
102	105	1
76	76	4
0	0	3
15	45	3
17	25	1
22	52	1
8	119	3
1	45	2
108	109	2
35	55	1
6	11	3
77	123	5
71	74	2
67	67	4
59	59	6
54	79	1
126	126	4
48	48	1
27	27	3
60	98	4
93	93	1
94	97	2
117	117	3
8	26	2
10	30	2
88	88	4
123	123	3
98	98	2
59	72	1
15	16	2
99	134	1
47	110	1
35	35	2
31	95	2
75	75	1
23	23	2
123	127	2
73	74	2
85	85	3
99	101	5
129	130	3
66	77	1
2	14	1
31	96	1
115	119	1
7	7	4
32	35	1
81	113	2
96	105	2
93	96	2
78	82	2
53	66	1
71	115	1
97	102	2
9	21	3
84	87	3
120	129	2
124	125	3
57	72	2
77	111	1
22	23	3
43	50	1
52	59	2
21	24	2
75	104	2
81	126	1
65	66	1
37	37	1
124	124	2
58	60	1
43	87	3
28	114	1
95	133	3
35	37	1
122	131	1
5	13	2
107	131	2
74	95	1
81	82	1
30	32	1
118	119	3
114	126	1
2	3	1
54	55	2
8	25	1
4	10	1
0	1	1
36	117	2
125	125	1
91	131	1
1	1	1
52	111	1
78	132	1
119	119	1
55	57	1
8	38	1
120	126	1
106	121	1
118	120	1
13	13	1
112	112	1
8	8	3
110	112	2
102	103	1
86	86	3
46	86	1
3	5	2
52	53	1
94	95	1
4	85	1
97	99	1
79	130	1
133	134	1
114	117	1
112	115	1
125	126	1
117	123	1
100	133	2
97	112	1
78	133	1
51	105	1
36	36	1
11	24	1
62	64	1
33	34	1
17	21	1
8	39	1
8	10	1
11	30	1
