118	118	5
53	54	1
25	35	4
96	96	2
6	7	4
16	16	3
141	141	9
10	11	7
5	10	2
11	11	10
43	43	6
128	129	6
96	121	5
0	43	4
108	108	3
109	109	7
2	5	2
19	19	2
14	55	3
101	101	3
60	60	3
64	65	4
23	23	3
47	47	2
1	1	3
145	145	11
103	103	2
41	41	7
74	74	3
83	83	3
86	86	1
76	78	1
1	6	6
51	51	2
38	38	3
67	67	3
13	13	1
29	29	7
58	59	8
78	78	9
30	31	3
52	52	3
50	52	1
126	126	3
64	64	3
59	59	4
101	102	4
128	128	2
124	124	5
92	129	1
102	102	5
66	66	5
143	144	4
91	95	3
30	30	6
88	95	1
80	81	8
105	105	3
136	136	5
28	29	3
17	17	4
100	120	2
73	73	4
126	131	1
136	137	3
104	104	2
81	81	3
5	5	1
53	53	4
62	63	2
99	124	1
119	120	1
85	85	3
98	98	4
15	16	4
121	121	4
75	77	2
103	108	1
123	123	2
99	100	3
10	10	5
70	71	2
21	89	2
122	122	4
146	146	4
89	90	2
127	132	2
93	94	2
65	66	2
20	21	3
59	62	1
56	56	3
3	3	3
34	73	3
82	82	2
100	101	3
77	77	1
120	120	11
56	57	3
75	75	3
125	125	1
21	122	1
116	123	3
71	71	4
61	62	3
132	132	3
31	31	2
1	43	2
134	139	3
40	40	3
112	112	2
36	36	4
94	94	2
87	98	2
114	114	1
97	97	2
87	87	2
25	25	1
88	88	3
144	145	1
111	111	1
111	112	4
136	139	1
117	117	1
64	72	2
68	69	3
130	130	5
19	21	2
88	90	1
118	119	4
134	136	2
55	56	3
116	116	1
39	41	2
79	79	6
10	16	2
72	72	3
33	33	2
76	79	3
142	142	3
28	28	2
42	43	2
110	110	2
77	78	1
18	18	1
76	80	6
22	23	4
68	68	4
30	33	1
42	42	1
97	99	1
126	130	1
99	99	3
80	80	1
21	42	1
82	84	1
88	89	3
91	91	1
125	140	1
104	110	3
95	96	1
75	76	1
55	55	2
143	143	1
137	137	1
12	17	1
93	93	1
134	134	1
69	70	1
8	8	2
27	28	5
27	33	2
102	103	1
53	58	1
101	103	2
92	94	1
107	108	1
126	132	1
111	120	1
16	17	1
70	70	1
132	134	1
54	57	1
