169	169	3
214	214	6
80	80	2
219	219	5
206	206	6
12	13	1
47	47	4
40	40	2
60	60	4
62	63	2
209	209	2
13	13	2
85	85	1
75	76	5
170	171	1
72	72	5
10	85	1
97	97	3
12	12	4
71	71	5
218	218	2
45	45	2
144	145	4
218	240	1
141	141	3
174	177	2
125	125	1
222	222	5
136	136	4
157	158	1
158	158	1
188	188	11
139	142	6
174	174	2
197	197	1
207	207	3
110	114	3
64	68	3
133	133	4
72	84	2
185	185	5
225	225	2
182	218	1
70	70	2
63	64	2
53	53	2
80	81	1
17	20	3
194	196	3
166	167	2
41	41	7
63	63	5
44	44	3
223	229	1
84	84	3
77	88	1
217	217	7
200	200	3
35	36	3
25	25	4
24	24	5
192	192	4
201	240	2
150	153	1
104	104	3
86	87	1
189	190	2
10	161	6
103	103	2
28	99	4
18	49	3
171	201	4
17	17	5
69	98	2
221	221	3
98	98	4
43	43	3
100	100	1
105	107	2
120	120	6
51	51	1
107	126	2
32	42	2
2	3	1
145	154	1
63	107	2
202	202	2
30	30	4
66	66	1
98	99	2
118	118	5
26	26	2
65	65	2
88	88	3
7	36	1
105	105	3
232	232	4
76	85	2
155	155	2
6	45	3
186	187	6
56	56	3
116	116	8
152	153	1
30	31	6
55	91	4
189	189	2
226	226	1
35	35	2
166	192	1
230	230	1
227	227	4
159	159	4
187	187	7
37	38	1
8	8	2
180	180	6
219	222	1
213	213	2
29	29	1
77	77	3
144	144	3
192	214	3
154	154	2
182	182	1
124	126	2
48	48	2
1	9	1
115	115	2
233	233	3
137	144	1
29	30	2
216	216	5
223	224	2
152	152	5
171	190	3
37	48	4
186	186	3
9	51	1
153	153	7
23	40	1
45	47	1
103	105	2
26	101	2
203	207	2
154	183	2
143	143	1
165	165	2
172	172	4
157	157	1
99	99	2
205	206	3
198	212	1
122	122	2
160	161	3
187	188	7
134	135	3
42	42	7
165	192	2
16	20	1
48	51	2
164	164	2
119	134	1
229	229	2
193	193	3
31	42	2
220	221	2
115	116	1
140	140	1
228	230	2
215	215	1
46	46	2
175	175	1
9	24	1
9	9	2
23	23	3
108	128	2
56	57	1
36	36	1
121	121	3
237	237	2
165	188	2
74	86	1
43	44	2
160	160	2
141	142	1
62	65	2
139	139	4
77	78	2
58	58	4
28	28	3
16	22	1
66	68	1
21	56	1
39	39	2
169	172	2
223	223	1
3	10	2
151	151	1
95	95	2
166	187	2
54	54	3
194	218	2
13	14	1
39	43	1
218	232	1
188	189	4
154	155	2
117	117	1
135	135	1
16	16	3
35	41	3
239	241	2
238	239	1
116	117	3
64	64	1
10	42	1
96	96	1
114	114	2
5	13	1
198	198	2
195	195	2
194	194	1
153	181	1
152	159	1
169	170	1
238	238	4
26	133	1
4	4	1
179	191	1
76	76	1
52	53	1
33	33	1
83	83	1
12	24	1
227	229	1
19	19	1
196	196	3
17	212	1
182	186	1
57	57	2
203	203	2
59	59	2
82	187	1
5	5	2
102	102	2
239	239	1
149	149	1
137	137	3
78	78	1
171	171	3
204	205	1
108	109	1
168	169	2
228	229	1
205	236	1
168	172	1
106	106	2
183	183	1
38	38	1
37	37	1
201	239	1
69	69	3
10	11	2
198	210	1
178	178	1
23	24	1
236	236	1
196	217	1
170	170	2
225	228	2
190	190	1
101	101	1
210	210	1
156	157	2
9	15	2
55	55	1
3	5	1
194	197	1
125	126	1
204	204	1
17	21	1
110	128	1
47	49	1
106	110	1
100	101	1
147	151	1
