41	74	4
83	83	2
15	15	8
84	84	9
131	134	9
120	125	1
132	132	4
130	130	7
9	9	6
149	153	3
147	147	4
49	49	4
17	38	2
10	11	2
23	24	1
133	133	15
162	162	11
143	143	4
100	100	9
68	68	4
75	76	4
170	170	7
24	24	11
123	123	11
148	148	2
101	167	1
142	143	1
93	94	2
90	93	2
111	111	12
155	155	6
102	105	4
76	82	6
75	75	12
120	130	6
98	98	6
142	142	4
125	125	7
124	124	6
65	66	3
137	137	8
119	119	3
138	138	6
154	166	1
21	21	2
93	93	4
108	109	2
157	157	9
92	92	1
125	126	1
55	138	2
67	68	2
64	67	5
13	13	3
71	71	3
90	90	10
44	50	5
94	147	2
156	161	3
9	124	1
85	85	14
51	52	1
23	48	2
10	65	2
3	3	1
72	81	1
114	115	1
102	102	1
130	131	2
22	46	5
4	4	2
103	103	3
10	10	5
6	6	2
116	116	2
121	146	3
161	161	6
63	63	4
160	162	1
80	80	5
149	150	2
152	153	1
121	121	2
14	14	3
75	84	3
64	66	3
115	120	2
41	41	3
105	106	4
74	76	2
50	50	5
34	34	4
55	55	3
147	152	1
69	72	3
129	130	2
120	128	2
5	46	1
62	62	5
2	109	1
53	54	4
164	164	6
134	134	9
41	76	1
17	17	4
109	110	3
28	99	1
8	8	5
76	76	2
88	88	2
39	39	3
134	144	1
87	87	7
70	71	4
135	136	1
20	20	6
25	25	3
131	131	4
3	110	4
95	95	4
128	128	2
88	89	2
101	105	3
52	55	4
86	86	5
91	91	5
11	12	3
44	44	2
66	66	6
12	12	3
117	127	2
169	169	2
5	6	1
26	27	3
14	15	2
129	135	1
139	139	2
21	27	3
146	147	2
63	85	1
79	80	1
140	143	3
167	169	3
79	79	5
34	150	4
110	111	3
2	2	2
153	154	3
120	121	3
99	99	3
118	118	5
88	91	1
37	37	4
115	126	3
166	167	1
5	5	2
43	43	6
154	154	4
152	152	1
73	73	2
6	9	1
26	79	1
0	17	2
7	10	1
69	116	1
135	135	9
7	7	4
122	123	1
156	159	1
16	26	2
83	93	4
146	146	2
145	145	1
23	23	3
164	166	1
68	69	1
151	157	1
11	11	2
122	126	1
94	146	3
97	97	1
117	153	2
107	107	2
40	40	4
148	152	3
96	100	2
139	140	1
4	40	1
52	53	2
133	145	1
127	127	7
71	106	3
133	134	3
112	112	3
9	10	5
98	99	1
144	144	2
52	52	6
150	150	4
158	158	2
126	127	3
26	26	5
122	122	2
136	136	4
97	102	1
27	27	1
140	144	1
18	18	1
70	70	2
63	68	1
134	136	1
104	143	3
89	90	1
19	19	1
1	2	2
42	42	1
150	151	2
72	72	1
54	144	2
57	57	4
65	65	2
7	56	2
48	48	1
126	126	4
21	22	1
83	86	2
22	24	1
15	18	2
108	148	2
145	146	1
124	147	1
1	1	1
38	58	1
156	156	3
101	104	1
117	117	1
87	88	1
76	86	1
147	148	1
107	168	1
104	130	3
94	95	1
129	129	1
69	69	2
67	87	1
14	42	2
163	163	2
100	101	1
77	77	2
16	42	1
55	56	2
160	160	1
110	110	1
96	96	1
116	117	1
6	87	1
15	42	1
167	167	2
104	104	2
100	161	2
104	105	1
28	38	1
106	106	1
167	168	1
53	53	1
5	7	1
39	40	1
149	149	3
13	15	1
16	21	1
154	155	1
89	89	1
13	14	2
43	74	1
34	35	1
108	108	3
92	93	1
78	78	1
144	145	1
109	109	1
36	36	1
96	116	1
151	153	1
40	41	1
93	106	1
12	13	1
