63	178	3
144	144	4
106	109	1
11	15	2
209	217	3
2	225	3
57	58	4
69	69	2
232	233	4
1	1	4
10	11	2
3	3	4
165	165	7
175	176	13
127	127	4
16	16	8
29	29	7
186	186	6
117	117	1
134	134	9
39	41	4
231	232	1
128	129	3
82	179	2
194	194	11
161	178	3
68	68	3
92	125	1
102	102	8
181	181	2
41	75	3
103	205	4
0	2	7
79	79	1
109	109	3
133	155	1
74	74	5
205	205	10
2	3	2
61	61	5
25	25	11
99	99	9
216	235	1
121	122	3
54	54	4
70	70	2
179	180	6
124	129	6
5	7	1
35	35	3
64	65	2
134	135	7
178	178	3
5	6	5
219	220	2
24	24	6
136	136	4
195	195	2
101	149	1
48	49	7
170	170	6
105	135	5
193	235	2
82	84	6
7	8	4
192	226	2
84	206	1
72	82	3
28	28	1
101	150	2
100	100	7
27	27	2
217	217	8
191	195	5
69	70	3
192	193	5
167	168	5
52	53	2
5	237	1
65	71	2
103	107	3
103	133	1
135	135	3
212	237	2
59	59	2
176	176	6
37	37	2
80	80	4
10	10	2
139	139	1
48	48	7
171	172	1
168	168	4
151	151	3
211	238	1
104	104	5
12	21	2
84	105	4
236	238	3
224	227	2
107	107	3
45	63	2
162	162	1
199	199	3
56	57	4
49	49	2
69	73	3
193	193	4
29	38	4
60	60	6
162	188	1
38	40	3
208	208	6
71	71	5
191	192	2
64	64	4
209	210	2
83	169	3
82	82	5
31	31	2
20	20	5
139	155	1
4	237	6
213	240	5
228	228	7
188	188	2
133	134	2
143	143	3
17	32	1
123	174	1
180	180	4
212	213	3
137	165	1
30	31	2
102	121	1
172	173	1
38	75	2
14	14	3
5	5	3
237	237	4
58	59	2
177	177	2
99	146	2
222	222	3
179	179	2
45	45	3
124	124	3
226	226	3
240	242	3
104	105	5
90	103	5
152	152	3
9	27	1
230	230	2
38	38	7
40	40	7
120	120	2
50	50	2
8	24	1
85	204	1
155	155	2
197	199	4
75	75	5
20	36	1
187	187	8
97	97	4
168	200	1
34	240	2
169	169	3
23	34	6
26	26	6
161	161	1
34	35	4
123	124	2
127	177	6
143	149	3
133	177	2
39	81	2
99	100	3
142	142	8
220	223	1
111	111	5
2	2	9
158	158	5
7	7	8
211	232	1
78	78	2
36	36	1
15	15	3
77	78	7
164	169	3
96	96	2
101	109	1
44	44	4
22	22	2
174	174	4
8	8	6
105	105	2
58	102	1
13	13	5
146	146	1
207	207	2
25	26	1
41	41	2
161	162	2
35	58	3
228	238	1
47	47	3
9	11	2
165	166	3
34	236	2
42	42	6
201	202	1
223	224	2
175	175	3
53	53	5
17	17	4
123	133	3
214	214	2
37	75	2
217	218	2
35	210	1
189	190	5
5	238	2
163	165	1
13	15	2
154	163	3
95	100	4
43	43	2
51	171	1
12	12	4
40	41	8
223	223	3
134	176	2
114	115	1
138	162	2
145	171	3
101	101	1
177	178	2
220	222	3
147	148	1
73	73	4
56	59	1
9	29	1
147	147	2
196	203	3
155	163	3
210	211	3
118	126	3
171	233	1
139	142	1
45	46	10
125	129	2
76	78	2
196	196	3
113	113	3
235	235	2
213	213	3
210	224	1
144	147	2
226	227	6
23	26	1
8	236	2
212	235	1
67	74	1
85	85	1
225	237	2
133	138	3
212	224	1
225	225	4
24	26	2
119	119	4
52	52	2
197	197	4
208	222	2
154	154	11
207	208	2
153	153	4
84	84	1
97	102	2
230	232	2
199	200	1
242	242	6
19	19	4
211	237	2
224	225	2
232	232	3
157	159	2
150	150	6
197	215	1
191	191	2
155	158	6
156	176	1
203	203	1
35	55	5
182	182	5
231	231	2
60	80	1
6	238	2
185	185	2
118	123	3
121	121	1
128	128	2
188	201	1
160	175	4
187	194	2
227	227	4
210	210	1
202	202	7
126	126	1
27	28	4
114	114	1
219	219	1
215	215	4
140	140	3
46	49	2
157	157	1
159	159	3
65	70	1
30	238	1
83	208	2
183	206	1
107	108	2
46	47	3
57	60	2
13	21	3
4	6	3
213	216	1
32	32	3
171	171	2
56	56	1
83	231	2
128	224	1
200	232	1
58	58	3
188	231	2
36	221	1
95	121	1
136	138	1
5	236	2
31	48	2
85	136	1
115	115	3
218	234	1
241	241	3
176	207	1
0	3	1
134	138	1
28	51	2
72	72	5
104	131	1
57	75	1
184	184	2
96	101	1
217	219	1
51	51	5
46	46	1
218	239	3
173	175	1
200	215	1
176	177	2
23	23	4
199	214	1
184	203	1
4	240	2
127	128	1
193	195	1
86	180	1
145	147	2
6	8	2
82	83	2
236	236	2
79	95	1
61	70	3
195	196	1
40	49	2
128	130	1
54	55	1
67	67	1
123	175	1
201	230	2
221	223	3
33	36	2
157	160	1
240	241	1
83	178	1
191	227	1
168	169	2
81	81	5
115	163	2
162	163	1
190	190	2
198	198	2
206	206	2
81	82	1
2	221	1
29	33	1
58	78	2
43	78	1
235	236	2
154	155	2
155	156	1
48	56	3
240	240	4
86	87	1
62	62	1
17	18	2
45	97	2
108	108	1
156	156	1
141	141	2
33	210	1
204	204	5
137	137	1
164	164	3
135	136	4
55	55	2
225	241	1
3	16	2
118	118	1
160	160	1
66	67	2
239	239	2
63	70	1
61	68	3
133	140	1
170	172	5
116	117	1
218	218	2
138	163	2
30	35	2
4	239	1
103	103	1
59	72	1
99	101	1
98	98	1
192	192	1
167	167	1
61	171	2
140	142	1
127	130	1
158	166	1
6	6	2
130	130	1
106	106	1
210	223	1
57	123	1
197	198	1
238	238	1
180	183	1
65	65	1
85	102	1
137	155	1
211	211	1
37	38	2
166	169	1
221	222	1
21	21	2
109	139	1
187	231	1
81	85	2
192	198	1
33	33	1
6	9	1
1	22	2
92	107	1
187	190	1
0	6	1
159	160	1
234	234	1
34	34	1
