106	106	8
32	32	3
51	51	3
50	51	4
42	42	4
55	55	9
71	72	10
38	39	3
73	74	5
96	96	11
110	110	5
44	45	7
26	30	1
95	99	3
66	70	4
87	87	7
72	72	6
31	32	1
66	66	1
105	105	6
23	23	1
61	61	6
113	113	5
98	98	8
59	60	5
22	23	2
22	22	15
39	61	1
70	70	6
106	107	1
115	115	6
81	81	4
43	44	5
28	29	4
99	99	6
34	34	7
64	65	3
20	20	9
88	88	3
77	77	2
26	26	11
102	102	5
44	44	3
48	64	4
55	58	1
103	103	8
79	79	5
104	104	7
87	88	4
40	41	14
49	49	11
92	92	7
59	78	3
107	107	4
80	80	5
56	56	7
35	36	5
27	27	11
99	109	3
36	39	1
38	71	2
85	85	3
101	101	1
21	21	9
65	65	6
62	62	5
19	22	2
70	71	3
90	90	7
83	84	8
43	43	3
47	49	1
64	64	3
104	105	7
101	102	1
68	70	3
112	112	9
60	60	5
108	108	3
110	111	2
91	91	9
24	25	1
86	86	6
68	78	1
54	54	5
40	40	3
45	45	5
71	71	12
94	94	6
62	66	5
78	79	2
52	53	5
89	89	4
83	96	4
46	49	2
69	70	3
57	57	2
19	19	2
25	25	6
38	38	3
112	113	2
34	36	3
53	55	2
70	73	3
24	24	3
29	29	7
74	74	5
84	85	3
58	58	3
76	77	4
73	73	1
98	99	3
36	36	3
48	48	1
88	89	2
41	48	4
33	33	1
59	59	9
82	82	3
79	112	2
45	50	1
95	96	4
62	64	1
69	69	6
53	60	5
106	111	4
31	31	6
28	28	4
30	30	3
53	53	5
60	68	3
40	52	2
35	35	1
96	113	1
21	22	1
41	41	3
78	78	5
47	47	9
87	113	1
39	39	2
27	28	4
83	88	2
86	87	1
100	102	2
84	84	2
103	104	2
75	75	2
95	95	3
100	101	2
99	100	1
84	86	1
111	111	2
46	46	1
68	77	2
29	32	1
78	107	1
93	93	3
63	63	3
113	114	1
100	100	1
109	109	2
68	69	1
52	52	1
70	72	2
37	37	4
54	56	1
37	38	1
32	33	1
70	76	1
90	91	1
90	109	2
56	57	4
23	31	1
97	97	1
29	35	1
62	63	1
114	114	1
42	45	1
91	92	1
33	53	1
