122	125	5
79	105	1
169	169	4
168	168	6
23	23	2
54	54	8
161	162	7
10	10	4
16	41	3
104	104	11
27	27	6
138	138	4
17	17	6
143	144	5
35	35	5
132	132	10
57	57	4
101	101	9
120	120	10
115	117	2
81	98	1
150	150	6
22	24	1
129	131	5
5	5	10
133	134	5
71	71	6
131	132	4
131	156	4
6	6	5
128	128	2
97	97	6
11	20	1
179	179	4
100	101	3
4	4	5
66	67	4
126	126	6
130	130	4
66	66	4
137	137	5
108	109	2
144	154	1
166	166	5
156	157	2
74	95	2
6	9	4
147	147	7
37	38	9
30	31	2
75	76	1
38	38	4
31	31	5
78	79	1
55	55	1
80	81	3
124	124	2
154	154	5
30	118	1
79	87	2
128	143	1
120	125	3
74	74	5
65	78	3
115	115	3
121	121	5
58	65	2
148	148	4
40	40	3
78	78	3
84	84	4
132	135	3
68	72	1
131	135	2
92	92	7
1	3	4
110	110	14
89	89	6
33	33	5
76	77	6
152	152	5
64	64	4
77	77	3
122	122	8
94	106	2
19	19	2
123	126	5
90	90	5
90	98	1
107	107	6
27	29	5
156	156	2
160	160	9
106	106	5
122	133	2
66	90	1
150	151	2
22	53	2
143	143	2
121	126	1
87	96	1
85	85	7
55	57	1
76	76	8
83	83	10
102	102	5
125	125	6
142	142	3
36	36	8
138	139	2
22	25	1
89	102	1
39	66	3
95	112	3
16	16	2
136	136	5
90	94	1
122	127	2
144	144	4
134	134	6
140	140	3
139	140	2
51	51	4
15	16	2
117	118	4
113	113	6
43	100	1
154	155	2
18	18	5
32	32	3
67	67	3
161	161	3
20	20	4
26	26	3
141	141	1
83	84	1
0	3	2
18	19	3
145	145	3
1	1	3
28	28	1
175	176	3
86	86	2
98	98	4
140	154	1
117	144	4
56	57	2
149	149	2
5	36	1
91	91	2
118	144	5
134	135	3
16	17	4
34	34	3
92	94	1
99	99	1
7	7	6
14	14	5
35	37	2
133	135	2
123	125	4
82	84	3
6	8	1
129	129	1
8	8	6
102	109	2
44	44	2
65	66	1
74	75	2
148	149	1
97	98	3
52	52	1
45	45	3
180	180	1
150	157	2
30	30	5
116	116	1
36	37	3
28	29	1
22	22	2
117	117	4
128	144	2
10	29	1
156	168	3
111	112	1
11	11	6
29	29	4
22	54	1
123	123	3
8	9	1
173	177	2
77	114	1
112	112	2
44	92	3
127	127	5
58	63	1
173	173	6
118	118	2
148	151	4
162	162	4
135	138	2
100	100	5
107	110	2
95	95	4
146	146	4
130	132	1
110	121	2
178	178	3
25	25	3
124	125	3
177	177	1
129	130	2
67	90	2
174	177	1
3	3	3
151	152	1
94	97	3
140	143	2
145	146	2
109	109	1
59	59	3
10	43	1
90	106	1
81	81	3
73	74	2
157	168	1
23	44	2
114	114	2
112	121	1
50	99	1
28	144	4
174	174	7
101	112	2
165	166	2
8	12	1
157	158	4
75	75	1
43	43	3
62	62	2
155	155	2
164	164	2
103	118	1
142	161	1
153	153	4
143	145	3
167	167	1
2	2	4
157	157	3
6	11	1
23	43	1
103	103	1
163	163	1
119	121	1
174	175	2
23	24	1
2	3	1
21	21	1
9	11	1
106	107	1
93	93	2
73	75	1
32	33	2
7	28	3
93	94	2
144	151	1
73	73	2
114	115	2
63	63	2
9	9	3
1	5	3
54	55	2
44	98	3
119	119	4
15	15	1
50	50	3
175	175	2
80	96	1
25	91	3
33	60	1
37	37	2
57	62	1
83	109	1
76	78	1
42	42	2
133	133	1
43	44	1
26	29	1
113	114	1
14	15	1
151	151	1
45	46	1
42	43	2
26	27	1
60	61	2
79	104	1
55	56	3
152	153	1
41	41	2
4	20	1
34	35	2
72	72	2
90	100	1
39	63	2
57	64	1
102	111	1
31	32	1
88	88	1
129	147	3
111	111	1
147	148	1
5	115	1
39	40	1
110	111	3
124	131	1
161	173	1
87	87	3
142	143	2
141	142	1
164	165	2
144	145	1
66	93	1
81	86	1
172	172	2
39	39	2
38	63	1
24	24	2
109	110	2
88	101	1
116	117	2
154	156	2
12	40	1
140	142	1
174	176	1
108	108	3
109	113	1
13	14	1
95	121	1
94	96	1
153	157	1
119	120	2
24	42	1
77	122	2
159	160	1
38	39	1
82	82	1
7	166	1
105	119	1
32	45	1
4	5	1
16	36	1
52	82	1
6	28	1
165	165	1
65	65	1
25	26	1
176	177	1
171	171	1
91	93	1
159	159	1
92	93	1
158	159	1
