21	28	1
72	72	9
51	51	16
46	47	2
26	38	6
37	39	5
76	77	4
4	5	4
44	58	4
63	63	18
30	30	6
35	35	14
49	49	25
0	64	7
33	33	9
60	60	15
50	50	9
66	66	21
51	52	3
41	42	16
25	61	3
32	32	4
1	2	2
56	71	3
39	40	4
18	18	4
74	74	17
24	25	9
36	36	5
25	27	2
55	55	13
65	65	25
43	44	4
29	29	22
3	3	16
56	57	5
8	8	19
19	19	6
71	71	12
30	40	3
49	71	2
45	45	5
64	65	5
61	61	20
46	46	22
52	53	16
25	28	1
27	28	7
42	42	25
0	63	1
30	31	5
23	23	15
50	70	2
39	41	5
41	55	5
68	68	15
69	70	3
35	38	6
29	32	2
26	27	4
3	5	6
68	70	4
25	25	19
61	63	6
13	75	5
41	41	8
58	58	9
67	70	3
48	48	13
59	59	16
7	8	3
23	24	5
72	73	10
28	28	4
4	4	20
31	33	6
10	10	13
68	69	11
0	0	8
31	71	1
9	10	6
76	76	9
45	47	3
27	33	1
2	2	8
44	45	3
42	58	4
33	59	4
50	51	11
58	60	7
61	66	6
20	20	2
73	73	12
62	63	2
71	72	7
67	68	8
66	67	6
39	39	14
38	38	14
53	54	5
40	40	5
19	20	3
67	67	7
7	11	1
10	11	7
33	67	1
49	50	6
25	26	3
11	11	13
0	19	5
32	33	7
64	64	8
57	74	1
8	14	1
53	53	16
30	33	6
21	40	3
33	34	3
37	37	4
77	77	9
37	38	3
52	52	5
0	1	14
21	21	11
15	65	2
45	46	3
26	36	1
7	10	7
47	47	7
75	75	5
54	54	7
35	36	6
24	24	16
8	64	4
34	36	3
61	62	8
4	11	5
35	69	1
48	69	2
40	43	5
27	27	11
5	5	8
31	31	6
33	69	8
6	7	11
69	69	12
12	12	5
30	58	4
58	59	5
47	54	2
70	71	6
7	7	7
28	34	1
13	13	5
6	6	14
57	58	5
54	55	4
22	23	2
55	57	3
34	39	1
19	45	1
9	9	6
41	43	2
57	57	2
21	34	2
34	40	2
22	22	4
70	70	5
34	34	8
31	69	3
1	64	7
48	50	1
39	44	1
14	15	1
44	44	14
35	39	2
14	14	4
1	1	4
42	44	2
73	74	3
1	8	2
43	43	20
2	9	1
60	61	2
0	69	2
34	35	3
56	56	11
28	60	3
33	37	1
64	66	2
12	13	5
74	75	2
59	60	3
70	72	1
1	5	1
11	13	1
19	77	3
48	54	2
0	2	1
20	58	2
3	4	8
42	43	3
47	48	3
56	73	2
24	62	3
22	40	3
9	13	1
41	44	1
20	21	6
14	56	1
48	49	1
29	30	2
18	19	1
62	62	2
32	36	1
40	41	1
12	77	2
36	37	5
48	70	1
55	56	1
27	29	1
31	70	1
47	53	1
20	22	1
33	71	1
3	9	1
39	43	1
14	65	2
32	34	1
24	28	1
53	55	1
2	5	2
56	74	1
47	55	2
21	23	2
52	54	1
5	6	1
1	7	1
