10	11	4
27	28	12
97	99	1
58	58	6
127	127	4
14	43	1
84	87	3
53	79	3
43	43	8
19	19	4
47	51	4
88	89	1
108	108	4
80	127	4
130	132	5
61	61	8
13	53	7
109	109	2
51	61	3
36	36	6
103	103	4
34	34	7
60	60	4
99	99	4
114	114	19
87	87	3
78	78	5
11	30	5
2	5	1
22	43	3
96	97	5
12	12	3
62	78	3
0	0	15
115	115	14
125	126	4
129	130	6
32	34	3
83	87	4
122	122	4
14	53	3
63	64	2
80	80	14
37	37	5
10	10	5
3	3	3
6	119	2
10	13	3
103	105	7
59	60	2
95	95	7
56	56	5
95	101	4
105	105	12
64	64	9
84	84	4
113	113	17
104	105	1
59	59	2
95	100	1
124	127	3
88	94	1
68	68	5
92	92	4
123	125	6
14	14	6
30	30	4
99	118	3
8	8	9
86	87	3
130	130	3
108	119	2
82	85	2
111	111	3
9	10	2
101	101	6
45	45	10
96	96	5
65	65	7
54	55	3
23	23	10
81	81	3
89	89	3
53	74	1
65	113	1
83	83	2
11	12	1
12	13	6
118	118	4
55	78	1
11	11	2
12	84	2
6	6	6
133	133	8
47	129	2
106	107	8
91	92	4
73	73	7
94	131	3
27	27	1
95	125	6
69	70	3
117	124	1
69	81	4
58	59	3
77	78	6
103	104	3
79	79	5
13	13	7
131	131	6
4	4	6
129	129	8
10	12	3
110	111	4
9	9	2
66	69	3
56	77	1
19	23	1
122	123	3
62	63	1
53	53	2
70	70	14
120	120	4
33	34	3
124	124	6
70	71	1
52	52	11
107	120	2
16	16	11
55	55	4
23	24	1
30	31	2
99	101	2
65	72	3
31	31	8
54	54	2
115	116	4
46	47	1
26	27	3
0	1	2
18	18	3
15	16	3
28	28	6
73	74	1
25	25	5
67	67	5
119	119	4
110	110	2
85	85	5
81	118	1
14	82	1
95	109	3
71	71	3
57	59	1
121	121	5
107	107	8
97	97	4
1	27	1
120	121	1
75	96	5
69	69	9
126	126	5
63	63	6
91	131	5
90	125	1
116	116	12
63	94	2
86	88	4
71	78	2
55	77	2
62	91	1
62	93	3
97	98	2
117	117	10
57	69	2
21	44	2
126	127	3
37	38	1
21	21	4
104	104	6
16	18	4
13	121	2
67	113	1
94	114	4
36	37	1
87	88	4
135	135	1
128	128	4
12	71	2
3	8	3
86	86	2
117	130	1
76	76	5
26	26	5
116	120	1
28	33	3
22	89	2
29	32	1
83	85	1
44	45	5
93	93	3
75	75	4
77	77	4
44	47	2
88	88	3
19	25	1
12	52	2
84	85	2
13	52	5
112	112	5
116	118	1
74	74	3
56	112	1
10	67	2
14	118	1
44	44	3
62	102	1
134	134	3
45	49	2
5	5	3
32	32	1
52	79	1
50	50	3
19	21	2
49	50	3
111	112	4
107	111	2
132	132	1
28	55	2
31	32	3
15	15	1
98	99	2
108	110	2
84	86	2
98	98	2
123	123	1
107	110	4
58	60	3
76	128	2
82	128	1
127	128	3
90	130	2
64	128	2
82	82	3
84	124	1
80	123	3
2	2	3
2	4	2
60	79	1
8	9	2
106	106	2
36	38	1
49	106	2
22	22	4
48	48	3
29	57	3
72	72	3
11	43	1
16	98	2
95	111	2
57	57	1
5	87	1
99	126	1
94	95	2
125	125	2
68	99	2
18	53	3
127	129	1
94	94	1
131	132	1
98	118	2
121	123	1
23	44	1
65	67	1
89	90	1
22	46	1
14	119	1
111	134	1
92	93	1
72	96	1
121	122	1
117	118	1
7	103	1
76	77	1
19	107	1
24	24	1
106	113	1
107	108	3
102	103	1
1	1	1
25	107	1
65	66	1
22	23	1
63	129	1
20	21	1
111	130	1
89	132	1
20	20	1
102	102	1
106	108	1
65	69	1
29	29	1
25	26	1
