131	131	9
63	63	5
71	73	2
61	61	2
31	31	7
24	24	6
14	14	5
75	75	3
26	26	8
69	69	3
66	67	2
93	107	3
19	19	7
37	37	4
69	76	2
68	68	6
97	108	2
140	140	3
100	100	1
48	74	2
41	41	4
17	42	1
5	5	6
39	39	5
101	101	3
23	24	3
53	53	2
49	50	3
74	86	1
99	99	4
98	98	2
108	108	1
34	34	9
28	29	3
96	97	4
64	72	2
115	115	6
5	6	3
122	122	2
112	112	1
85	91	1
75	85	3
116	117	1
29	29	6
8	8	2
38	38	4
136	136	1
4	5	3
35	43	4
33	35	1
58	58	3
27	27	8
128	131	2
72	72	2
50	50	5
98	105	5
81	94	1
51	51	2
47	47	7
144	145	1
107	107	5
116	116	4
85	85	4
86	87	3
65	65	2
28	30	1
60	61	1
94	94	5
40	40	1
104	104	4
62	62	4
81	81	2
135	137	5
68	76	3
26	28	6
82	108	1
48	48	2
118	118	1
103	103	3
55	55	1
114	117	6
76	76	3
49	49	2
121	121	4
113	113	6
77	77	3
40	41	3
38	54	1
57	65	1
73	84	3
38	41	1
71	72	2
35	35	2
93	93	3
18	18	3
3	3	3
48	76	2
120	120	6
16	16	2
90	90	5
79	79	1
17	17	1
56	56	4
145	145	7
139	139	3
41	47	1
43	43	1
42	42	2
105	105	2
112	115	1
133	134	1
93	108	4
66	66	1
33	33	2
73	73	3
54	55	1
101	145	2
119	120	2
134	134	1
104	105	1
115	137	3
34	35	2
20	20	2
70	78	3
24	25	3
88	89	3
4	9	1
126	126	1
9	9	1
111	118	1
106	106	2
141	141	2
125	125	3
4	4	1
74	102	2
98	110	1
74	75	1
142	142	1
144	144	3
84	85	2
36	39	1
122	123	1
30	30	1
18	103	1
1	1	1
47	58	1
91	93	1
117	117	1
23	23	1
15	17	1
125	126	1
10	10	1
25	25	1
64	70	2
124	124	2
135	135	1
117	136	1
52	53	2
11	11	1
102	102	1
133	133	1
49	51	2
17	21	2
0	0	1
132	132	2
71	71	1
89	89	1
29	30	1
21	23	1
86	86	1
110	111	1
51	52	1
95	95	1
13	13	1
36	47	1
79	80	1
18	20	1
130	130	1
84	84	1
64	64	1
28	28	1
