202	231	1
53	55	5
114	114	11
25	25	10
220	220	5
159	160	2
37	38	4
217	217	27
2	2	6
127	127	14
194	194	8
124	197	4
39	39	11
54	54	21
34	74	4
242	242	6
148	148	20
10	10	6
15	15	8
116	116	19
175	175	6
53	53	20
146	147	4
204	214	3
1	73	2
64	64	15
3	35	4
10	28	1
31	33	2
70	70	11
229	229	9
65	65	13
197	198	1
237	238	3
227	228	3
167	167	15
202	202	9
240	241	2
201	205	5
120	121	5
88	88	10
104	104	6
1	1	5
50	151	2
177	177	10
71	71	8
232	232	13
221	221	11
209	209	12
50	50	3
79	83	5
69	70	4
206	206	9
34	34	10
1	2	1
18	18	4
136	136	17
22	22	3
206	239	2
184	198	1
92	92	2
46	46	3
236	236	6
126	181	3
201	217	1
118	118	7
201	238	3
198	200	2
114	169	5
190	190	9
30	30	14
193	193	10
125	127	2
213	216	1
1	31	4
50	63	1
230	231	8
160	160	8
172	172	4
137	137	7
35	65	1
4	4	7
113	113	5
116	117	1
75	75	12
62	62	15
13	112	3
218	218	4
219	219	5
222	223	6
81	81	16
200	216	1
223	223	6
179	179	11
125	125	9
139	146	1
61	61	6
154	188	3
192	215	5
231	231	4
8	8	8
65	67	7
57	57	5
51	51	5
32	32	3
190	191	3
234	234	2
120	122	2
143	143	6
225	226	3
164	164	11
130	170	1
150	173	4
14	14	7
78	79	4
156	157	9
52	52	4
150	151	10
107	109	2
124	125	5
0	0	8
25	26	2
207	207	2
98	98	6
184	184	11
82	83	10
224	224	6
86	86	9
49	137	7
193	194	5
80	80	2
43	99	3
66	115	3
60	162	3
48	48	11
208	208	3
76	76	5
118	119	3
15	111	4
195	195	3
119	172	6
174	174	19
164	165	2
201	201	9
6	7	4
72	73	4
128	169	4
238	238	9
63	63	5
174	175	5
36	36	8
192	196	3
205	208	2
52	60	2
181	187	1
196	197	2
35	35	8
226	226	13
128	128	6
43	43	12
241	241	15
127	144	3
121	121	3
37	37	13
191	191	4
117	167	7
119	177	4
156	156	10
58	58	18
69	69	8
99	99	19
126	188	3
106	106	7
7	7	11
67	180	4
181	182	4
163	163	2
67	67	2
108	188	1
97	105	1
234	235	2
161	229	6
15	17	2
81	84	2
144	144	10
5	41	2
20	21	3
17	84	2
169	169	7
124	124	11
194	212	2
134	135	2
142	142	2
186	186	6
117	117	7
51	52	2
147	147	15
221	223	6
122	122	7
146	146	15
41	42	3
95	95	2
187	188	3
174	193	2
103	105	5
123	123	2
49	49	20
202	203	1
159	159	5
151	151	8
20	22	1
59	141	2
170	241	1
161	161	5
213	215	4
236	240	2
182	182	10
169	177	1
122	216	3
131	163	1
14	129	1
191	192	8
228	229	3
186	187	5
181	181	14
107	108	4
129	129	6
150	150	9
199	201	1
12	12	9
78	78	7
28	86	5
122	128	2
120	208	4
45	45	5
165	183	4
96	99	4
143	177	1
225	225	7
15	16	5
25	27	2
40	40	7
140	140	9
184	187	2
115	115	12
189	189	15
26	26	8
233	233	12
47	48	1
120	123	3
168	168	10
181	188	1
12	13	8
28	28	3
140	142	1
109	109	9
54	55	10
17	18	5
66	67	5
16	16	5
9	9	7
13	14	3
173	173	5
171	172	2
13	13	5
228	228	6
184	199	2
194	195	3
200	200	6
173	191	1
197	197	8
139	140	2
212	213	1
158	158	9
117	118	2
29	31	2
124	126	6
154	163	4
194	211	2
68	69	4
177	180	1
153	178	1
222	222	10
6	6	4
73	73	3
127	189	2
194	216	1
96	98	2
227	227	10
178	178	13
230	230	6
219	221	1
108	108	11
215	215	6
187	187	4
95	133	5
140	146	1
204	204	3
145	145	10
77	157	1
59	59	2
188	188	8
212	212	12
107	107	9
154	154	6
82	82	9
192	192	8
10	11	2
11	11	2
216	216	5
223	227	3
168	169	2
221	222	2
99	124	2
147	148	1
106	178	4
46	47	1
1	5	3
217	218	5
219	220	6
207	208	5
126	127	2
34	35	4
205	205	6
237	237	4
77	78	3
144	148	2
101	101	7
66	66	6
142	143	1
118	167	3
141	142	5
199	200	2
22	23	3
11	19	2
198	238	5
54	64	2
136	137	3
1	6	4
123	206	1
158	159	5
63	156	1
84	84	4
158	180	1
31	31	4
5	5	8
197	199	3
3	3	4
77	77	7
115	142	2
233	235	2
44	44	5
103	104	1
44	169	1
110	110	2
21	220	2
183	198	1
54	175	1
72	72	2
6	30	2
130	130	3
42	42	6
85	85	19
154	181	2
40	41	2
10	176	1
194	201	3
115	168	2
44	45	6
14	16	1
107	176	4
19	19	10
52	190	1
147	189	1
237	239	1
38	38	13
119	126	1
19	235	4
198	237	1
57	175	1
100	100	5
166	166	2
193	218	1
74	74	6
241	242	1
210	210	6
125	213	1
172	173	1
62	165	3
155	155	5
183	187	1
121	142	3
9	10	1
153	154	1
29	29	5
111	111	5
102	102	10
158	172	3
46	160	2
47	47	3
98	99	1
105	105	5
133	133	10
186	209	1
9	71	2
165	165	4
149	190	1
17	17	9
123	125	3
59	60	7
96	96	4
144	145	2
126	143	2
180	180	10
157	158	3
33	34	2
29	30	2
21	22	1
149	149	3
171	171	3
32	37	1
24	24	5
80	81	2
126	126	12
61	63	1
210	214	1
85	86	2
83	85	2
122	193	4
60	60	8
229	230	4
230	238	2
168	190	2
15	80	2
159	210	2
208	209	2
103	103	4
213	214	2
1	76	1
214	215	3
30	34	3
79	79	5
65	66	2
125	197	2
120	120	3
9	178	1
224	225	2
168	228	4
31	34	1
126	184	1
198	198	2
215	216	2
2	6	2
63	64	2
114	118	1
167	168	2
95	102	1
20	82	2
69	71	3
182	183	1
138	155	2
17	34	7
14	15	4
176	179	2
162	185	4
49	52	1
21	21	4
11	12	2
210	229	4
27	27	4
226	227	3
196	196	2
218	220	2
55	55	2
1	71	1
99	100	3
166	233	3
12	18	1
44	46	1
220	223	1
70	86	2
120	207	1
6	28	2
13	96	1
35	36	3
231	232	4
115	118	1
122	133	1
123	124	2
192	193	1
5	6	1
60	143	3
180	181	1
162	162	7
21	35	1
126	169	4
153	162	4
7	8	2
21	221	3
95	129	1
38	161	1
187	209	1
74	75	2
141	141	2
0	17	1
98	101	1
159	168	1
115	116	1
157	157	1
8	68	1
6	179	1
225	230	1
52	53	2
55	96	2
160	161	1
163	164	1
211	211	4
175	190	2
79	80	2
204	238	3
194	196	2
50	172	2
240	240	1
28	29	2
170	170	1
75	77	2
52	63	1
170	171	1
191	202	1
151	152	2
225	231	4
13	66	1
211	229	1
42	161	3
55	57	1
66	113	2
73	86	1
169	180	2
200	238	1
101	151	2
120	182	1
21	56	2
220	221	3
64	65	2
166	230	1
133	134	2
221	240	1
203	203	1
105	171	1
13	128	1
119	121	2
134	134	4
97	97	3
132	132	1
20	20	4
149	213	1
0	58	2
61	164	2
107	134	2
193	214	1
68	68	2
49	157	1
139	139	2
239	239	2
186	190	1
91	91	1
224	226	2
38	42	2
4	5	2
127	143	1
39	41	1
1	178	1
34	92	1
106	175	2
145	147	1
67	68	1
197	208	1
197	209	1
78	90	1
211	214	2
148	188	1
123	174	2
134	193	1
205	206	2
59	131	1
214	214	2
119	187	3
98	100	1
140	143	1
68	80	1
56	57	2
22	33	1
55	144	1
20	36	1
21	222	2
58	59	1
83	86	1
19	234	1
148	149	4
20	64	1
235	235	2
240	242	1
80	235	2
189	190	1
225	227	1
119	119	2
60	145	1
176	196	2
35	64	1
199	205	1
138	139	2
199	203	1
181	183	1
134	139	1
161	162	1
140	141	1
135	142	1
41	41	2
35	168	1
234	236	2
185	235	1
153	153	4
199	199	4
23	29	2
2	3	1
21	69	1
212	215	2
132	139	1
61	62	2
8	9	1
211	212	1
56	56	3
213	213	2
163	236	1
13	114	1
40	47	1
24	69	1
206	241	1
7	28	1
45	46	1
37	159	1
114	127	1
196	198	2
183	183	1
106	107	1
67	89	1
80	84	1
11	89	1
168	229	1
145	146	2
2	179	2
132	142	1
178	181	1
105	106	1
124	187	1
231	237	1
134	153	1
53	54	1
150	191	1
19	36	1
59	155	1
23	30	1
220	222	1
51	137	1
185	185	1
154	160	1
215	218	2
214	218	1
205	238	1
3	34	1
1	177	1
75	86	1
223	225	2
64	166	1
33	74	1
24	25	1
212	224	1
52	55	1
119	120	1
157	164	2
51	160	1
193	215	1
157	183	1
32	159	1
230	232	2
155	159	2
138	143	1
45	160	1
64	81	1
51	53	1
102	103	1
52	61	1
10	20	1
113	169	1
163	166	1
132	133	1
69	220	1
112	112	1
20	175	1
236	237	1
154	155	1
57	131	1
51	136	1
179	181	1
206	240	1
57	58	1
48	156	1
159	172	1
