213	213	17
171	171	3
65	66	7
152	152	5
8	8	8
166	166	7
238	247	8
82	86	1
168	168	5
207	207	12
158	158	8
70	70	3
214	216	2
197	223	4
41	41	8
163	165	2
88	90	1
77	79	1
81	82	8
237	237	7
22	23	5
162	236	4
82	82	7
188	188	3
70	71	4
201	232	3
38	38	6
230	230	7
60	60	7
165	165	3
18	18	7
222	224	2
224	224	7
176	185	3
185	186	3
218	218	8
24	24	5
108	108	4
48	50	1
208	208	2
69	69	2
161	161	5
167	167	6
210	210	2
228	228	7
186	192	1
7	8	4
178	179	1
210	211	9
181	181	2
145	147	2
28	28	6
150	150	4
187	194	2
95	95	17
59	60	2
163	164	3
65	65	4
204	204	6
234	234	4
242	242	5
176	177	2
22	22	2
239	247	3
43	43	13
54	54	7
9	10	5
106	106	6
112	112	5
93	94	3
21	21	7
85	88	5
222	222	7
151	151	9
85	85	10
39	39	3
63	65	2
27	27	5
113	114	2
169	170	4
240	240	5
75	114	5
111	111	7
159	159	6
207	217	1
88	89	3
71	73	1
169	176	2
73	74	4
165	166	2
33	33	9
197	221	1
5	10	3
157	159	5
5	5	11
32	32	4
61	96	4
154	154	1
62	64	1
17	17	4
192	192	4
73	73	1
78	78	3
63	63	2
182	183	2
80	82	3
110	110	6
183	183	6
30	30	9
247	248	1
216	217	3
107	107	7
164	164	6
189	189	3
53	54	1
61	91	4
144	144	3
226	228	4
194	194	3
115	116	4
172	172	11
229	230	6
6	6	6
166	168	2
238	238	14
47	48	2
113	113	4
155	155	9
102	102	10
90	91	6
84	85	1
109	109	8
11	12	2
17	234	2
55	55	5
69	70	3
15	15	3
212	213	2
52	52	5
54	73	1
2	10	1
168	171	1
231	231	5
199	200	6
215	216	2
188	190	3
43	44	6
215	215	3
36	36	6
205	225	1
239	239	3
22	30	4
94	94	4
8	9	2
10	10	5
219	220	3
25	25	12
175	181	5
162	162	1
214	214	11
173	173	8
150	157	1
56	56	4
145	145	2
14	15	2
175	176	2
247	247	3
160	160	4
186	186	8
179	179	3
4	4	5
186	188	4
188	194	3
235	235	5
153	153	3
51	51	3
1	11	2
49	49	7
237	238	3
206	206	7
96	96	8
69	71	1
187	187	1
11	11	7
28	29	4
66	67	2
187	193	3
203	203	8
80	80	2
64	64	1
1	1	2
182	182	4
12	12	4
119	120	1
180	180	2
45	72	2
26	27	2
12	25	1
171	174	2
205	215	1
116	116	10
92	93	4
54	55	1
211	211	6
198	200	1
16	204	1
188	232	3
88	88	6
241	241	6
168	176	1
9	16	4
119	119	3
75	76	1
23	23	2
11	25	2
183	184	1
30	31	7
208	214	2
55	114	1
101	101	2
19	19	4
34	34	3
89	89	2
206	207	1
38	39	3
219	219	5
16	16	2
56	74	3
54	56	2
196	242	1
184	184	4
235	236	3
112	114	2
173	177	2
84	84	2
226	226	1
94	95	1
156	156	3
232	232	4
191	192	4
21	22	1
20	20	3
76	77	1
223	223	6
193	193	3
188	189	1
71	71	2
117	119	2
218	219	2
99	99	4
190	190	2
16	206	1
99	100	1
244	245	1
76	76	2
114	115	2
156	183	1
81	81	2
169	171	1
166	167	1
157	157	4
75	75	6
19	20	1
63	69	3
243	243	2
92	92	2
21	23	1
205	205	1
59	59	6
216	216	1
74	74	1
163	163	2
62	68	2
246	247	2
163	236	1
16	18	1
220	220	9
249	249	1
4	246	1
24	27	1
62	62	2
45	45	1
233	242	1
40	40	2
230	231	1
70	72	1
239	240	3
96	97	2
199	199	5
209	214	2
117	117	5
2	2	2
212	212	4
245	245	4
238	239	3
35	35	1
44	45	1
14	14	1
200	201	2
244	244	1
196	196	4
29	30	3
178	180	1
50	51	1
241	243	1
120	120	1
146	146	2
209	209	3
150	154	2
6	7	3
72	72	4
68	69	2
246	246	2
189	236	4
48	48	4
198	225	1
190	191	1
50	50	5
67	68	1
60	94	1
61	61	1
91	91	4
120	207	3
46	46	6
231	233	2
195	195	2
236	237	1
23	30	1
11	37	2
20	27	1
55	56	1
16	17	2
19	25	1
112	115	1
44	44	1
63	92	2
60	64	2
209	215	2
229	229	4
56	75	1
200	200	1
88	95	1
63	64	1
3	41	3
60	91	1
59	93	1
217	217	3
57	73	1
231	243	1
118	118	1
198	198	2
62	66	2
87	87	1
66	66	5
12	37	1
198	199	1
102	118	1
194	195	1
81	88	2
23	24	1
105	105	4
225	225	1
98	98	2
207	208	2
83	84	1
224	225	3
44	54	1
238	246	1
73	75	2
26	26	1
114	114	2
177	177	2
191	191	1
48	247	1
61	64	1
174	174	1
101	102	1
93	93	1
164	189	2
63	74	2
150	156	1
16	205	1
66	68	1
169	169	1
15	17	1
41	42	1
178	181	2
53	53	1
104	104	1
98	99	1
23	35	1
100	101	2
9	9	1
31	31	1
40	41	1
156	158	2
233	233	3
188	234	1
242	247	2
207	216	1
227	229	1
56	114	1
