15	29	1
165	175	4
200	200	14
59	79	6
10	10	6
53	56	2
39	42	1
39	52	2
232	234	6
160	160	5
207	211	2
109	117	3
2	4	4
247	247	20
61	65	7
7	14	4
29	33	1
226	226	16
64	65	5
45	45	15
110	110	3
59	59	3
32	32	16
240	243	2
46	46	6
188	188	7
86	86	3
88	97	1
217	221	7
106	107	2
243	246	1
0	1	2
112	112	14
41	43	3
150	150	14
117	117	6
120	120	2
157	157	6
48	48	4
224	246	1
26	26	3
215	228	5
27	27	7
166	167	7
191	203	1
185	206	2
182	184	2
186	212	3
198	205	4
58	58	9
61	64	6
57	60	1
69	75	4
164	164	11
100	100	8
225	225	4
233	233	7
166	166	13
91	91	5
176	187	2
219	227	4
106	106	5
151	155	1
162	163	2
238	238	11
82	83	4
177	179	1
144	154	3
219	228	1
212	213	5
186	205	1
232	240	2
215	215	5
73	73	5
74	107	3
52	55	1
202	202	6
90	110	2
118	119	9
220	229	2
173	173	11
185	201	2
15	15	5
18	51	4
58	59	11
43	44	1
230	231	4
191	207	3
192	230	2
182	192	1
181	181	6
21	200	3
151	151	2
79	85	2
118	118	9
214	215	1
40	46	1
244	244	10
44	46	6
161	168	3
69	69	12
70	70	4
65	79	3
76	78	3
81	84	3
63	63	6
68	70	4
82	82	10
74	77	6
79	86	1
87	87	2
21	21	13
185	193	3
169	171	3
214	214	12
200	202	9
51	51	12
214	229	5
226	232	5
75	75	2
184	199	1
236	236	9
222	226	2
105	110	7
190	191	2
198	199	3
68	69	7
210	212	3
239	239	5
38	44	5
155	155	11
9	9	6
95	95	7
109	110	1
199	206	1
18	28	2
199	200	3
225	233	1
205	215	2
243	244	1
189	189	14
99	99	5
242	243	2
7	7	4
227	240	2
183	183	6
192	193	2
1	1	5
84	85	1
207	210	3
33	38	2
177	199	2
19	19	3
68	68	10
246	247	2
105	106	4
78	78	4
242	242	7
163	163	2
171	180	1
163	164	5
213	224	1
6	21	4
18	22	5
30	30	10
6	6	6
224	248	4
95	106	1
20	20	5
113	113	10
230	230	5
233	234	1
178	179	6
56	56	5
194	195	4
117	119	2
77	77	6
8	8	4
204	208	2
96	101	1
39	39	4
74	74	4
2	18	2
212	212	2
167	177	3
154	154	4
204	204	1
37	176	4
89	232	1
157	162	1
68	73	3
17	17	4
99	104	2
156	156	10
31	31	5
240	241	3
219	231	3
57	71	1
160	169	3
51	68	2
37	37	5
178	178	4
159	160	7
64	64	4
162	162	13
227	228	7
2	14	5
229	239	1
30	37	5
204	212	4
231	234	1
169	169	5
45	46	1
213	213	1
96	97	10
65	76	4
208	221	3
77	111	3
76	118	2
50	61	3
172	172	7
184	193	1
228	228	1
41	41	13
82	209	2
191	199	1
216	216	7
189	193	4
171	172	1
177	188	3
203	208	5
86	99	2
72	104	2
36	52	2
93	93	7
65	65	7
54	69	2
218	227	1
219	219	8
67	74	2
119	233	4
146	146	2
237	238	3
162	170	1
191	191	4
163	179	2
73	74	4
57	57	15
33	33	5
205	211	3
102	102	3
199	211	1
5	14	1
16	32	1
38	38	3
46	218	1
80	86	3
96	96	3
81	83	4
80	84	3
166	168	1
54	110	1
22	23	3
16	16	7
99	111	2
162	168	1
42	43	2
105	145	1
214	230	3
53	62	1
210	214	4
95	237	5
111	115	5
195	195	6
30	35	5
3	3	2
170	175	4
72	85	4
193	196	2
178	202	2
98	102	2
48	62	2
180	180	4
226	236	3
187	187	13
66	67	4
152	152	11
42	42	3
43	45	4
18	24	1
92	95	3
192	192	1
164	174	3
114	114	5
87	96	2
85	85	12
155	202	3
18	18	10
50	50	7
94	104	3
158	161	1
52	65	1
17	41	4
218	225	2
30	34	1
24	24	4
58	68	1
189	203	2
58	60	3
187	214	2
193	193	5
36	42	2
104	104	14
9	11	1
57	62	1
234	237	2
32	39	4
32	34	2
11	11	10
232	238	3
2	30	1
209	209	5
211	211	4
195	201	5
235	235	4
94	94	7
247	248	1
241	242	2
64	66	2
85	87	2
181	197	3
38	62	2
111	111	5
161	162	3
197	198	1
215	218	4
81	81	3
45	50	2
213	228	1
88	100	2
194	197	3
28	28	11
232	232	7
29	30	3
4	4	3
162	169	4
190	199	1
206	208	2
90	91	2
238	246	1
43	55	5
190	203	1
184	198	1
29	29	5
104	107	2
168	168	4
96	98	1
69	71	1
172	183	4
184	184	3
72	74	1
175	177	4
189	217	2
97	97	3
104	105	3
54	62	1
49	53	2
60	61	4
227	227	6
103	103	3
36	36	5
18	19	2
74	85	4
22	22	4
161	161	5
196	196	5
111	112	2
84	96	1
146	159	2
42	102	1
93	179	4
40	41	1
221	221	6
89	111	3
59	63	1
225	229	3
215	219	2
1	3	1
229	240	2
49	58	4
162	165	1
192	197	2
186	186	7
40	213	1
62	63	7
4	7	1
38	39	3
217	224	1
221	235	4
205	205	5
55	56	7
89	90	3
222	222	2
20	24	4
101	104	2
226	229	3
4	18	2
60	62	2
241	241	5
67	68	3
25	225	1
201	201	1
155	156	2
107	108	9
165	165	5
186	198	1
228	239	2
37	43	1
19	33	3
72	88	1
100	102	2
234	235	3
185	207	1
108	109	1
152	164	1
43	105	4
234	240	1
71	71	3
17	19	3
199	199	5
223	245	1
176	188	1
145	145	3
150	151	2
96	102	2
74	92	3
221	222	7
223	224	1
181	183	1
45	70	4
69	73	1
238	240	3
42	44	1
184	187	2
220	223	2
185	185	8
208	208	10
218	218	1
78	79	2
70	88	1
116	116	3
34	54	5
50	57	1
156	182	2
198	200	6
5	9	2
182	182	4
159	166	1
183	185	3
230	232	2
162	219	3
14	215	1
159	159	9
119	145	1
112	115	1
241	243	2
226	239	4
7	9	3
83	85	3
152	154	3
152	169	1
56	57	1
43	43	5
187	196	4
212	224	2
73	117	4
60	60	1
14	18	1
116	117	2
237	237	4
176	176	4
87	115	1
57	58	2
200	201	1
17	70	1
237	240	2
40	40	2
12	12	3
209	217	1
182	183	1
105	112	1
223	225	1
90	90	7
170	170	7
94	190	1
66	66	5
48	49	2
47	47	1
38	51	2
231	233	8
97	190	2
203	204	7
115	115	8
35	35	1
204	206	2
190	197	3
54	54	1
98	98	4
216	228	3
106	112	1
83	86	4
201	231	1
76	116	1
14	14	3
221	233	2
175	175	6
87	98	1
241	245	1
172	173	1
88	191	1
60	76	1
196	199	2
92	92	8
3	4	2
76	106	1
210	211	3
94	193	2
206	212	1
173	175	1
154	235	2
172	180	1
219	222	3
47	57	1
180	185	3
34	50	2
2	2	2
93	231	3
245	246	1
224	224	7
80	82	1
72	82	2
209	213	2
20	25	2
177	178	1
52	53	3
27	28	3
99	232	1
246	246	3
119	119	3
207	207	2
227	229	2
8	24	1
186	192	2
171	171	6
86	92	6
77	81	2
202	203	1
19	25	1
24	25	1
74	75	3
238	245	1
45	56	1
61	61	1
158	158	5
176	194	2
175	194	1
198	212	2
79	81	1
75	78	1
52	52	4
68	149	1
161	175	1
17	46	1
215	229	1
61	213	1
153	156	2
193	194	2
152	157	3
218	220	2
108	110	2
119	120	2
189	200	1
223	239	1
188	195	1
207	208	1
245	245	3
79	79	1
225	232	1
164	165	2
38	40	1
239	240	1
194	194	2
78	105	1
1	2	2
161	166	1
112	114	4
173	185	1
19	23	2
198	202	4
88	89	2
165	166	2
204	246	2
40	226	1
68	85	1
107	111	2
237	249	1
229	236	1
233	235	1
24	227	1
67	69	1
229	229	2
99	100	1
229	230	3
81	96	1
12	23	2
153	153	1
159	173	2
238	239	2
198	198	1
77	80	2
84	84	3
25	26	2
10	19	1
108	108	2
180	217	2
109	109	1
90	92	1
68	86	2
20	21	4
12	54	1
204	229	2
147	147	1
97	98	1
228	244	2
244	245	1
62	66	3
206	206	3
0	2	1
5	5	1
193	206	1
20	26	1
80	94	1
51	54	1
234	234	4
7	21	1
23	24	4
182	193	1
169	177	2
109	111	1
111	117	1
90	93	3
116	118	1
57	68	3
54	60	1
216	219	1
201	208	1
223	244	1
168	169	3
231	231	4
205	214	1
207	213	1
217	217	3
53	60	3
40	61	1
75	77	1
236	237	3
243	243	3
190	198	1
22	205	1
47	64	1
159	174	2
72	72	1
21	37	2
159	170	1
17	18	2
53	54	1
80	80	2
4	9	3
49	59	1
58	67	1
99	194	1
1	17	1
67	67	3
95	100	1
72	73	1
90	103	3
215	216	2
205	222	1
11	29	1
8	14	3
242	244	1
93	96	1
180	181	1
31	32	2
188	201	1
93	230	4
169	170	2
158	159	1
191	192	1
15	16	2
24	28	2
248	248	2
71	73	1
35	53	1
6	24	1
74	89	1
28	158	1
203	203	1
236	239	1
54	58	2
45	72	1
174	175	1
45	51	1
240	240	3
75	100	1
228	232	1
188	199	1
85	90	1
41	42	1
195	212	3
44	55	1
24	26	2
154	157	1
18	33	1
173	197	1
85	86	1
167	167	2
177	177	3
54	67	1
204	218	1
59	64	1
210	218	1
14	15	3
216	217	1
18	31	1
111	114	1
50	54	1
220	220	2
9	14	2
84	86	1
115	231	1
164	190	2
179	180	2
34	34	1
108	111	1
241	244	1
203	229	1
105	113	1
7	18	1
185	188	1
197	197	2
211	226	2
44	44	1
158	166	1
162	164	1
78	81	2
55	55	1
183	184	2
71	83	1
7	10	1
192	207	1
94	95	1
83	84	1
57	59	1
93	94	2
16	20	1
167	175	1
5	7	1
159	182	1
5	8	1
188	192	1
106	111	1
199	212	1
73	79	1
103	104	1
95	96	1
230	237	1
75	80	1
90	96	1
26	101	2
62	62	2
158	160	2
54	59	1
231	232	1
42	54	1
191	193	1
10	25	1
92	235	1
58	104	1
74	108	1
47	48	1
68	90	1
61	62	1
87	88	1
77	114	1
204	213	1
23	26	1
81	82	1
22	29	1
44	45	1
91	94	1
195	213	1
115	117	1
229	231	1
