116	116	6
126	130	3
132	136	3
134	134	5
85	90	2
69	69	6
120	120	5
155	156	2
133	134	9
86	86	21
7	10	3
87	88	5
65	72	2
123	125	2
109	109	4
7	8	6
78	79	3
33	38	9
25	25	12
99	99	2
146	154	2
28	28	1
96	96	2
154	156	6
5	5	11
50	50	3
129	132	3
131	131	3
127	127	9
149	149	2
14	14	5
67	87	4
36	36	7
55	55	4
129	129	7
106	106	2
131	136	5
122	122	1
12	12	2
147	152	3
137	137	9
49	53	11
138	138	7
6	7	4
4	4	3
23	28	6
118	122	1
0	4	2
15	18	1
89	90	7
77	79	3
142	144	2
96	99	1
71	71	5
46	49	4
94	121	2
19	19	6
150	150	9
38	38	3
111	112	5
69	70	3
10	10	3
53	53	1
83	85	3
112	113	3
83	91	3
9	9	2
94	95	6
153	154	3
42	42	6
93	158	1
74	75	2
37	37	5
16	16	2
44	54	1
73	73	4
70	70	11
100	100	5
75	75	6
108	117	2
32	33	8
54	54	5
106	108	3
1	40	1
107	107	5
149	150	3
90	107	3
117	121	2
114	115	5
123	123	11
94	94	7
143	143	8
1	1	7
57	57	6
35	35	8
118	118	12
151	151	4
46	46	4
83	87	2
83	83	3
1	4	2
8	8	1
126	132	3
64	64	3
115	119	1
97	98	4
81	81	1
88	88	4
108	116	4
77	80	2
18	22	3
41	41	9
144	144	6
157	158	3
108	113	2
7	9	3
57	63	3
73	76	2
136	139	5
12	15	2
80	84	5
147	150	3
121	121	4
77	77	3
104	106	2
3	4	6
19	23	4
115	115	3
156	156	3
3	3	5
119	119	1
1	5	3
49	49	4
20	21	2
146	146	4
91	109	3
16	18	2
11	44	1
80	110	3
21	22	1
81	84	3
133	133	4
143	148	5
51	54	3
45	47	1
15	22	3
101	101	3
126	126	4
18	18	6
34	119	2
30	30	7
29	31	3
32	32	5
134	137	1
15	21	3
10	11	5
9	13	3
110	152	1
156	157	3
42	43	4
97	97	4
45	49	1
110	112	2
85	85	3
145	155	6
101	102	3
89	89	2
44	45	1
0	0	1
116	117	4
141	143	1
47	47	3
72	73	3
40	41	1
142	142	2
85	86	4
144	145	3
23	24	1
26	27	3
56	56	2
11	11	1
72	72	4
95	96	1
30	107	3
135	137	6
24	25	2
10	12	2
104	105	2
9	12	2
152	154	3
17	17	5
22	22	7
15	15	2
27	28	1
154	158	2
122	123	3
136	136	6
154	154	1
67	68	2
103	103	7
68	68	1
87	90	3
93	94	1
98	98	1
132	155	1
33	33	2
117	119	1
88	89	6
31	32	2
107	116	2
127	133	1
140	140	2
34	37	2
99	100	2
80	91	2
135	135	1
52	52	7
141	144	1
27	27	7
156	158	2
67	71	2
108	108	6
50	51	2
39	39	2
35	120	1
82	82	5
5	6	6
78	87	1
63	64	2
145	145	3
113	113	2
20	20	2
88	90	4
108	109	1
45	45	1
82	83	1
115	116	1
119	122	1
13	77	1
145	149	1
110	111	2
110	110	3
120	121	1
93	95	1
67	67	1
41	42	2
90	91	2
124	146	1
111	111	4
106	118	1
71	73	1
74	79	1
114	114	3
151	155	1
47	54	1
118	119	1
6	9	1
20	22	2
84	89	4
37	41	1
33	37	1
132	132	1
147	147	7
64	65	1
91	91	1
2	3	1
67	70	2
129	130	5
141	147	2
92	92	3
131	132	2
124	125	2
147	148	1
25	26	1
38	40	2
95	95	4
36	37	2
152	153	1
79	79	1
132	156	1
48	55	2
41	43	1
0	6	2
37	40	1
33	39	1
148	148	2
106	107	2
110	157	1
78	78	1
137	140	1
7	46	1
140	143	1
142	149	1
18	21	1
51	51	4
150	151	1
152	155	1
8	15	2
26	28	1
48	51	1
54	55	1
8	10	1
21	21	2
125	126	1
87	87	1
129	131	1
108	112	1
124	124	1
8	11	1
48	53	1
31	31	1
52	116	1
136	141	1
134	150	1
104	107	1
106	109	1
7	7	1
30	47	1
142	143	1
20	23	1
37	38	2
141	141	2
8	38	1
72	80	1
127	130	1
130	151	1
117	120	1
147	149	1
30	31	1
117	117	1
46	47	1
62	63	1
83	84	1
149	158	1
103	105	1
52	53	1
83	96	1
