64	64	10
44	44	1
43	43	7
54	54	5
66	66	15
76	76	19
48	51	1
50	50	3
59	59	15
90	90	14
53	84	2
53	53	12
98	98	6
47	47	9
94	94	10
33	84	3
76	77	9
63	63	3
87	87	13
70	70	23
89	89	15
56	57	6
58	59	6
42	43	2
68	68	16
35	35	13
82	87	1
96	96	5
71	71	14
70	76	1
95	95	5
74	75	10
62	65	4
100	100	11
84	84	7
93	93	16
31	31	8
77	77	14
61	61	15
81	84	1
33	33	2
102	102	1
79	79	8
52	52	8
79	83	2
92	93	4
79	80	6
33	48	5
73	73	13
63	75	3
74	74	8
72	74	4
88	88	13
99	99	8
24	26	8
65	65	11
97	98	3
37	37	13
83	83	9
85	85	20
87	88	5
29	83	1
82	82	10
84	85	3
60	60	8
25	26	1
78	83	3
48	48	1
81	81	17
46	47	1
80	80	12
67	67	4
42	42	11
40	40	11
86	87	6
88	89	1
26	26	11
49	51	3
93	97	3
67	68	6
74	83	1
25	25	6
52	60	1
55	55	6
24	27	1
62	62	8
31	89	5
58	58	5
77	78	4
37	40	1
81	82	2
72	72	9
39	39	6
76	79	3
101	101	3
57	71	2
100	101	6
79	81	1
97	97	1
83	84	3
69	69	13
78	78	7
33	53	4
75	75	9
24	24	2
63	64	2
44	45	1
39	40	2
38	38	5
35	38	4
62	63	2
68	69	1
81	101	2
34	46	1
28	28	3
69	70	6
20	21	2
76	78	5
36	56	2
33	34	3
32	32	3
75	80	1
27	27	1
86	86	6
35	55	2
65	66	2
43	69	1
60	61	5
59	61	1
58	72	1
73	74	1
31	32	1
41	41	4
22	22	1
62	66	1
87	89	1
65	77	1
95	96	1
23	25	4
78	86	1
74	79	1
62	64	3
49	49	1
93	96	1
70	71	2
75	76	2
75	77	1
20	20	1
23	23	3
60	73	2
36	37	1
60	62	3
64	74	2
71	72	1
29	30	1
47	48	1
52	61	1
77	81	2
45	45	4
51	51	1
91	92	2
99	100	1
66	67	2
29	29	1
63	65	1
61	63	1
36	55	1
75	79	1
92	92	1
33	46	1
46	46	1
78	79	1
89	93	1
94	97	1
65	67	1
20	27	1
59	73	1
74	78	1
29	61	1
35	36	2
85	86	1
37	39	2
57	57	1
