51	51	16
29	45	5
102	102	6
52	52	7
73	73	5
58	62	7
106	106	4
25	88	1
79	99	1
68	68	8
89	89	4
59	69	6
39	39	5
90	91	3
96	97	2
104	104	6
68	81	3
91	104	2
78	78	7
31	31	16
93	94	7
21	24	5
45	45	4
70	72	2
21	21	9
29	29	3
47	63	1
105	105	7
24	24	5
67	80	3
58	61	2
52	61	4
72	72	5
66	66	5
57	57	5
31	33	2
82	84	5
84	85	5
94	95	8
46	54	2
94	94	6
47	47	3
89	92	1
87	87	10
23	31	1
33	36	5
40	82	1
97	106	11
97	98	4
80	106	1
68	71	1
60	60	9
55	56	6
54	58	3
93	93	4
48	49	3
49	49	5
55	55	9
51	55	5
79	79	5
83	85	2
45	50	1
45	46	5
87	88	9
23	23	4
76	77	4
67	72	7
27	27	7
79	80	2
99	100	7
84	84	2
58	69	3
89	96	2
71	75	3
75	82	2
50	50	7
75	84	3
71	74	2
89	90	6
20	20	8
97	97	6
25	25	2
71	71	6
52	81	1
56	68	2
50	51	2
75	75	12
36	90	2
20	54	2
22	25	3
54	54	6
101	101	4
41	41	1
93	104	1
32	34	6
43	49	1
80	91	1
24	29	3
45	56	3
90	94	7
34	97	2
88	88	5
102	104	1
71	96	3
100	104	4
40	47	1
27	89	3
61	87	3
49	61	3
22	38	2
64	78	3
43	45	1
93	95	7
44	44	5
88	91	1
95	95	6
70	78	6
30	35	3
103	103	5
73	75	3
59	59	6
103	104	1
65	65	9
58	58	5
37	37	4
61	62	3
91	96	1
83	96	1
51	52	6
74	77	1
52	71	3
38	42	1
37	76	2
70	94	5
38	38	2
69	70	4
30	79	3
35	35	10
78	79	2
37	87	1
74	74	3
46	46	2
20	30	4
62	64	3
53	53	2
28	38	3
76	100	3
61	61	4
64	64	5
58	99	1
79	83	7
36	37	2
22	22	1
21	25	2
94	98	1
31	38	1
81	83	5
81	82	3
76	103	1
40	49	1
84	86	2
40	45	4
77	84	3
49	53	2
86	86	2
72	73	4
70	70	3
92	97	3
54	85	2
25	36	1
20	89	3
79	81	3
31	101	1
44	51	1
26	33	3
48	76	2
37	62	1
19	48	1
36	36	3
86	87	4
45	52	2
60	71	2
67	67	4
79	98	3
76	76	4
48	48	1
43	52	2
69	69	1
42	43	5
50	66	1
28	29	2
107	107	2
41	44	2
75	76	3
74	84	1
83	83	3
33	93	2
81	81	6
83	95	2
69	75	4
31	32	4
39	63	1
102	103	2
23	24	1
95	100	1
98	98	4
28	87	1
40	40	1
41	56	1
26	29	3
35	98	1
85	92	2
42	42	1
90	99	1
70	71	4
29	49	2
26	43	2
37	48	1
51	54	2
48	53	2
38	88	1
80	80	1
97	100	2
47	69	1
31	40	1
52	53	2
65	74	1
40	76	2
82	82	3
61	73	1
77	78	2
56	60	2
76	81	1
28	28	2
40	44	2
63	64	1
89	100	2
70	97	1
33	34	2
28	31	1
33	96	4
53	54	3
27	29	2
57	60	4
92	92	2
69	80	1
33	39	1
99	107	4
78	80	2
37	38	1
31	37	2
92	93	3
56	57	2
56	67	1
70	101	3
33	97	2
49	74	1
30	94	1
32	32	1
26	78	1
68	78	1
65	66	2
70	76	1
65	75	1
85	85	1
27	97	1
43	44	1
25	38	1
23	47	1
58	59	1
45	49	2
90	92	1
96	98	1
77	77	1
62	62	1
70	74	1
82	83	1
64	67	1
42	46	1
59	70	1
33	33	1
106	107	1
91	91	2
51	57	1
46	47	1
100	100	2
101	102	1
