22	22	4
87	87	6
1	1	2
63	144	5
32	69	2
136	136	3
129	147	2
91	107	6
42	42	2
54	55	3
32	32	4
93	93	6
8	135	2
39	132	2
52	52	2
65	69	3
108	108	4
118	118	3
21	23	4
111	112	4
18	20	3
80	91	2
120	120	2
71	71	6
27	27	5
120	124	1
95	96	4
88	90	2
143	143	1
31	31	2
124	155	1
113	113	9
101	101	4
67	67	1
135	135	7
121	122	5
91	91	13
19	19	1
77	80	1
133	134	2
155	156	3
89	89	1
80	86	3
90	90	2
131	131	4
2	9	3
124	157	1
131	132	2
85	85	2
50	50	4
96	106	1
50	51	2
18	28	1
121	121	1
110	110	9
96	97	1
48	48	2
91	93	2
71	84	3
12	13	2
123	123	8
94	94	2
109	109	11
129	129	3
26	31	2
41	45	4
96	96	6
14	14	2
46	47	3
99	99	2
24	24	1
57	57	2
66	66	1
32	34	2
157	158	2
94	96	1
1	2	2
8	134	1
125	126	4
27	37	1
115	120	5
5	5	1
45	46	3
40	115	2
63	83	3
117	119	2
43	43	12
112	119	2
41	41	4
148	148	6
19	20	1
130	131	3
34	57	1
135	137	1
53	55	3
53	53	8
63	148	2
136	137	1
151	151	2
86	86	1
18	19	3
98	98	5
25	57	1
82	82	1
27	36	1
150	150	2
3	3	1
9	9	1
153	153	3
70	70	3
28	28	3
120	121	1
17	17	3
11	48	4
21	21	4
118	144	5
101	129	2
132	132	5
79	79	3
97	97	1
154	155	2
77	77	3
139	139	1
39	136	1
119	119	3
8	10	2
49	49	2
21	55	1
32	66	2
117	145	2
107	108	3
6	6	5
24	28	4
39	39	3
109	120	3
33	55	2
40	41	1
7	7	3
100	138	1
68	70	1
97	108	1
111	151	2
84	91	1
74	99	1
132	133	2
44	45	3
13	14	3
12	12	2
62	71	4
78	79	1
73	73	1
149	152	1
154	156	1
92	96	2
79	80	2
0	0	1
82	83	3
46	50	1
40	40	4
125	125	4
11	22	1
46	46	3
48	49	3
141	144	1
30	31	6
95	95	2
40	44	2
32	33	3
68	68	6
152	153	5
116	147	1
50	52	1
154	154	2
139	142	3
80	95	2
16	22	1
28	54	3
156	156	3
93	95	4
69	70	2
75	75	1
126	126	3
151	152	1
117	117	3
112	112	6
56	56	1
128	151	1
122	126	2
114	124	2
80	80	7
33	33	3
145	145	1
18	21	1
113	114	2
158	158	5
51	56	2
111	148	1
13	15	2
11	11	4
103	103	2
17	52	2
118	145	3
2	3	1
140	140	3
133	136	2
41	72	1
16	16	4
116	130	1
37	37	1
119	120	2
82	90	2
114	114	2
64	64	1
41	68	1
110	111	3
69	69	2
0	1	1
92	107	3
127	127	1
139	144	2
130	148	1
120	123	1
115	115	1
10	10	3
85	92	3
83	83	1
0	4	1
29	29	1
124	124	2
80	92	2
32	54	1
140	141	1
0	9	1
102	102	1
47	56	1
115	145	1
20	52	1
52	54	1
33	98	1
106	106	1
79	85	1
133	133	1
9	10	2
104	105	1
44	66	1
81	82	1
15	16	1
61	61	1
102	137	1
138	138	1
88	89	1
25	25	2
47	47	1
130	147	1
137	137	1
125	154	1
122	123	1
118	119	1
100	100	1
38	39	1
134	134	1
77	85	1
