70	218	4
102	173	1
26	26	5
215	215	13
160	178	3
201	201	8
29	29	13
166	166	10
98	98	3
50	51	7
89	89	9
27	52	1
167	169	1
198	244	1
164	165	3
47	92	3
178	178	5
47	47	4
171	171	9
157	157	7
69	85	4
154	154	6
203	203	13
106	108	1
49	49	3
41	41	10
166	168	3
181	182	7
171	175	2
9	12	2
170	170	7
183	184	3
93	95	9
186	238	2
47	86	2
15	15	4
156	156	16
56	56	12
85	85	12
70	70	3
44	44	8
161	161	4
167	167	2
88	89	2
163	163	4
60	61	2
227	230	7
231	231	8
54	54	15
36	39	1
77	110	1
25	41	5
31	31	19
173	173	11
234	235	3
75	79	5
163	164	1
215	216	2
183	183	5
104	105	1
155	155	13
50	87	3
197	197	5
75	75	4
49	87	2
241	241	6
1	1	7
210	211	3
56	57	1
46	85	1
59	59	3
26	27	2
60	65	4
184	184	2
116	119	1
2	2	11
54	55	2
230	230	4
166	169	1
117	117	7
53	69	5
4	5	4
104	104	1
226	226	4
14	15	3
101	101	5
222	222	6
147	147	3
157	211	2
95	95	12
36	38	2
28	28	5
52	52	11
19	20	6
232	234	2
160	166	4
24	24	3
53	70	3
9	10	2
181	181	4
222	223	3
10	10	8
199	199	8
236	246	4
41	44	2
78	109	1
14	14	3
150	150	3
6	10	3
52	53	6
78	79	4
192	213	3
11	11	10
213	214	8
149	149	1
28	156	3
192	192	6
119	119	7
53	53	3
69	69	16
20	20	6
202	202	5
87	87	11
87	88	2
112	112	4
49	61	4
16	17	7
212	212	2
55	55	4
69	70	4
67	67	2
51	51	10
59	60	3
47	48	1
113	117	2
160	160	6
9	11	4
153	153	3
228	228	4
93	93	5
221	221	4
224	224	1
61	62	1
57	59	5
28	29	4
53	54	5
12	12	3
41	42	3
185	197	7
33	229	5
225	240	3
116	116	4
248	248	7
73	74	6
74	74	4
216	216	8
31	33	1
226	229	2
76	80	2
177	177	4
33	33	14
187	187	12
68	68	8
204	204	9
164	168	3
220	220	4
240	241	2
23	23	18
44	90	1
104	107	2
197	200	1
57	58	2
186	186	4
114	114	7
22	23	1
164	176	2
100	171	1
1	2	1
237	237	3
234	234	4
118	118	6
113	114	1
8	8	5
233	233	2
109	109	6
36	36	7
174	211	3
220	223	1
200	231	2
169	173	3
21	21	12
21	22	6
219	219	5
49	86	1
76	77	3
200	200	12
22	22	6
63	63	7
158	158	10
242	242	6
174	176	6
19	19	2
226	240	2
182	183	3
38	38	2
27	27	4
42	42	4
231	244	2
96	96	5
70	212	1
9	9	5
194	208	1
230	231	1
105	107	2
205	205	7
93	94	2
151	207	3
216	217	4
193	193	5
46	46	6
86	86	6
48	48	3
16	16	4
113	113	6
225	226	2
2	19	2
3	4	1
150	206	2
8	11	3
217	217	1
110	110	11
229	230	3
211	211	3
32	32	4
195	195	3
229	236	1
233	234	1
170	174	2
156	180	3
79	79	2
102	102	1
51	87	1
164	164	3
81	81	2
100	100	10
43	43	5
118	120	3
179	179	6
25	25	2
208	213	1
209	209	2
61	61	4
17	18	2
39	39	5
71	190	1
244	244	5
89	90	5
53	68	2
18	18	1
58	60	3
169	169	8
77	78	5
179	180	5
67	68	1
192	220	5
88	90	1
70	71	1
25	26	2
111	111	5
169	174	6
211	214	5
5	5	5
191	222	1
198	198	4
107	107	6
75	84	1
76	109	1
194	194	4
236	236	6
48	50	1
235	235	3
46	81	1
145	145	1
114	115	3
58	58	3
195	199	3
175	175	1
68	72	2
57	57	2
6	8	1
71	71	2
33	78	3
44	45	3
69	73	2
173	174	3
35	35	4
45	45	6
163	165	2
92	92	2
221	222	3
241	242	2
158	178	2
37	37	1
110	112	2
76	94	2
206	207	1
66	66	2
239	239	1
225	225	4
82	85	1
30	30	1
161	179	4
188	188	5
77	118	2
38	39	1
169	171	3
214	215	1
206	206	2
68	71	2
240	240	4
71	216	4
146	147	1
151	151	6
80	80	1
108	109	1
196	197	1
65	65	5
12	42	2
169	172	1
23	40	3
34	35	1
77	77	1
12	15	3
174	174	2
94	94	4
51	86	1
160	161	1
92	94	2
178	179	1
162	162	3
106	107	1
186	239	1
108	108	1
229	229	3
180	206	1
88	88	2
196	196	3
245	245	3
208	208	1
118	119	1
70	216	1
70	213	2
58	59	2
74	98	3
189	217	1
95	101	5
159	159	1
40	52	1
156	179	1
152	152	1
19	21	2
180	180	2
61	87	3
17	17	1
72	72	1
153	154	2
188	190	1
162	211	2
210	210	1
24	32	1
6	6	2
161	180	2
105	106	2
238	247	1
246	246	2
29	31	1
183	195	1
172	172	2
82	82	1
196	199	1
41	43	2
84	84	1
150	207	1
102	107	1
31	32	1
86	87	1
84	85	2
158	159	1
66	87	1
2	18	2
233	235	2
120	120	2
157	158	1
22	32	2
3	3	2
185	193	1
214	214	1
182	184	1
33	34	1
97	171	2
47	51	2
6	11	1
146	146	1
154	205	1
154	155	4
160	165	1
66	67	1
227	227	1
35	53	1
39	40	2
78	78	1
78	110	1
64	192	2
168	168	1
190	191	1
11	37	1
46	47	1
83	84	2
231	232	1
185	185	1
70	220	1
48	49	1
101	173	1
194	224	1
63	64	1
21	24	1
82	92	1
100	212	1
26	28	1
170	171	1
