9	9	12
89	89	12
24	24	13
19	19	10
57	57	5
24	66	2
66	87	10
52	60	2
70	83	5
51	79	4
21	22	1
78	78	4
77	77	7
28	28	7
23	23	9
59	61	5
30	30	23
83	84	4
29	29	4
71	76	3
61	61	9
14	14	12
8	27	2
55	56	1
49	54	4
47	55	2
18	20	2
17	20	3
63	63	7
79	80	4
63	64	1
69	73	2
0	0	13
17	23	1
83	83	9
49	49	14
64	65	9
29	30	2
48	57	3
65	67	3
88	88	7
84	84	13
86	86	8
9	12	6
51	51	16
74	74	11
59	65	5
31	33	1
66	68	3
7	7	3
67	86	7
52	52	20
52	56	2
60	60	4
2	3	3
54	55	6
60	61	2
79	79	11
12	13	11
48	55	2
85	85	13
82	82	14
58	58	10
69	69	14
72	72	3
57	59	4
48	48	12
2	5	1
5	5	5
34	35	5
77	80	4
62	62	16
27	31	3
66	67	5
31	31	7
17	17	7
25	25	7
20	20	5
73	73	10
10	10	9
85	86	7
56	56	8
15	15	3
89	90	1
72	73	10
58	59	4
24	27	4
74	78	2
76	77	9
16	16	8
8	9	6
8	8	2
12	12	6
53	53	4
81	81	16
57	58	2
7	10	6
57	66	4
48	56	3
58	86	4
75	82	1
47	48	7
23	24	2
24	65	2
7	29	1
50	51	3
85	87	3
15	25	3
27	28	2
61	82	4
0	2	5
11	13	6
5	8	2
50	50	8
19	20	3
30	69	2
7	17	2
1	1	12
18	18	5
54	63	6
22	22	14
68	68	16
11	11	9
71	72	5
2	2	7
4	16	3
77	81	3
13	17	2
6	6	5
4	4	16
90	90	1
63	68	1
85	89	3
47	49	10
0	1	2
3	3	8
27	27	4
51	54	2
76	76	5
71	71	12
55	64	1
66	66	8
67	67	6
13	13	4
52	61	5
64	64	14
84	86	6
55	55	4
57	69	2
49	51	1
48	50	3
69	76	2
53	54	6
60	64	2
64	86	2
34	79	1
8	13	2
6	10	3
6	13	1
14	30	3
83	86	1
10	13	5
67	69	1
47	47	5
19	22	3
5	6	5
4	10	4
4	69	1
67	68	3
65	73	2
59	59	1
53	57	4
58	71	1
0	72	2
65	69	5
26	26	9
50	52	2
11	69	1
65	72	2
17	32	2
12	17	1
23	60	1
52	83	1
84	85	3
26	62	2
82	84	2
57	64	2
52	59	2
54	54	6
58	66	3
76	82	1
3	6	2
65	66	5
60	65	2
49	79	1
81	82	10
17	19	4
48	51	2
87	88	1
79	81	3
48	49	1
49	50	3
68	69	3
75	78	4
34	34	6
5	9	4
17	26	2
6	7	3
61	63	1
4	9	1
5	10	7
1	2	3
8	10	1
11	14	2
26	27	2
46	47	1
78	82	6
3	4	3
70	87	1
57	60	2
81	84	1
75	75	5
62	87	2
9	10	4
77	83	1
79	82	1
18	76	2
4	5	1
23	26	2
68	70	1
20	22	1
25	26	4
78	80	1
77	82	1
65	65	3
75	83	1
19	27	2
7	31	1
6	26	2
88	89	1
9	11	1
15	16	2
62	68	1
87	87	3
22	27	1
74	75	1
82	87	1
24	25	1
78	79	3
62	71	1
19	86	2
18	86	1
21	21	1
2	6	2
6	12	1
25	31	1
70	71	1
13	15	2
5	78	1
35	35	2
6	18	1
76	78	1
64	68	2
60	63	1
24	64	1
23	28	1
56	63	2
47	52	2
77	79	2
20	24	1
70	70	1
69	84	1
52	53	1
9	63	1
61	83	1
12	14	1
4	18	1
10	24	1
81	88	1
80	80	1
86	88	1
4	75	1
33	50	1
51	53	2
50	55	1
47	50	3
29	31	1
24	60	1
59	60	1
69	70	1
66	74	1
58	69	1
71	78	1
32	32	1
27	65	1
11	12	1
62	73	1
10	14	2
46	46	2
5	26	1
28	56	1
5	77	1
54	56	1
71	79	2
61	64	1
63	86	1
22	23	1
17	24	1
46	48	1
26	65	1
