107	108	2
0	0	13
1	1	7
101	101	9
165	165	8
172	172	3
165	168	5
158	159	5
161	161	24
149	151	1
179	179	11
141	141	10
93	93	24
61	62	2
9	9	10
170	177	3
41	42	11
131	131	10
143	143	9
114	114	5
92	92	5
11	11	16
130	170	2
52	52	9
148	148	11
179	180	2
36	37	1
131	167	2
54	54	10
31	50	1
57	62	5
33	33	7
12	12	5
94	94	16
5	5	16
68	68	6
54	55	3
116	117	7
53	53	4
162	162	3
118	119	3
117	117	8
10	11	2
173	173	11
131	169	2
67	94	4
25	25	11
81	82	5
79	96	1
90	90	7
91	91	9
22	22	13
6	6	14
34	34	7
105	105	3
65	85	5
176	176	6
83	83	9
15	19	2
119	120	6
71	71	11
139	163	2
122	126	5
133	136	2
87	87	9
12	13	4
108	109	9
81	81	18
114	115	4
155	155	18
90	91	4
171	171	5
159	159	14
149	165	1
75	75	12
87	88	2
126	126	9
115	116	4
82	82	7
104	124	1
100	101	9
96	102	1
100	100	4
6	42	4
77	77	9
111	111	10
32	32	15
145	146	3
25	31	1
67	88	3
167	171	4
8	9	4
85	86	4
161	168	3
64	64	6
144	144	6
79	80	5
8	11	2
80	80	8
24	24	7
117	144	2
57	57	10
116	116	6
57	59	4
115	118	7
174	174	7
61	64	1
138	138	7
153	158	4
170	170	18
11	18	3
102	102	5
142	143	3
137	137	19
57	66	3
89	89	6
27	28	8
36	36	6
107	107	5
85	85	9
157	159	6
55	56	3
86	90	4
107	109	2
98	99	6
39	40	8
43	45	2
40	44	3
132	132	8
43	44	6
87	94	5
53	59	8
139	139	11
31	32	5
17	17	2
104	104	7
73	73	6
156	156	10
146	146	16
23	23	6
180	180	16
14	14	18
167	167	4
119	119	7
34	35	6
19	41	5
130	150	2
75	79	5
112	117	2
163	163	8
88	88	11
15	16	4
42	42	9
78	78	6
85	87	1
95	95	6
168	168	3
72	72	6
92	93	12
128	128	3
127	128	2
112	112	4
43	43	9
19	42	2
35	35	11
169	169	7
131	132	2
145	176	2
97	97	6
71	72	2
60	60	11
39	60	1
158	158	12
86	87	3
56	76	1
118	118	5
152	153	2
157	157	7
90	101	1
5	6	12
111	164	1
178	180	2
160	160	6
124	130	2
28	41	1
96	98	3
146	153	4
98	98	9
106	107	2
96	96	3
140	140	11
25	32	3
8	8	3
38	38	4
58	58	10
6	7	5
62	62	7
165	166	10
91	92	1
129	131	2
166	166	4
171	172	2
164	165	4
50	50	6
112	114	1
103	103	4
83	92	3
121	129	6
150	150	8
88	96	3
13	13	9
124	126	2
168	169	3
155	156	7
147	148	3
76	77	6
45	45	15
49	49	4
178	178	8
176	177	2
76	76	8
16	16	7
89	110	1
55	80	2
28	28	8
27	34	1
37	37	6
153	153	13
41	41	6
83	84	6
39	39	7
91	95	7
104	107	1
59	59	10
20	21	3
111	171	1
2	2	6
134	168	5
75	96	6
35	36	5
67	67	4
154	154	11
142	148	4
120	127	4
129	129	13
4	5	1
105	106	1
152	152	4
116	166	6
128	130	1
59	63	4
32	33	3
27	50	4
178	179	6
21	22	4
62	64	2
105	124	3
135	142	3
170	178	2
27	32	3
149	149	10
148	162	3
117	123	2
122	136	3
130	130	12
28	29	4
50	51	5
0	1	1
154	155	1
110	127	3
124	124	3
134	134	8
29	30	1
126	127	3
147	178	4
168	173	1
133	133	5
142	142	8
136	137	1
147	168	1
93	108	9
103	104	2
164	164	5
54	56	1
58	59	6
112	140	3
135	135	7
30	38	3
85	98	1
109	109	5
113	130	2
56	79	4
26	28	2
60	66	1
127	173	3
19	44	2
18	18	6
136	136	4
80	81	7
17	18	1
6	26	2
72	180	2
125	125	2
20	39	5
56	57	2
104	105	3
66	66	9
109	128	4
7	45	1
37	39	4
147	147	3
84	100	2
145	145	5
86	86	8
67	68	4
55	55	5
115	166	2
72	172	2
55	105	5
53	54	4
123	124	2
155	157	1
123	125	5
149	157	3
30	30	2
99	99	3
110	110	3
15	15	4
164	169	3
99	101	1
168	174	2
84	95	4
106	125	5
10	10	3
131	170	4
77	78	4
4	38	2
120	120	2
71	172	4
112	118	2
28	39	1
156	157	3
79	79	4
56	56	1
153	154	5
49	51	1
147	151	1
5	41	3
173	174	1
172	178	2
131	174	3
137	141	2
169	170	4
65	65	1
146	178	1
61	72	4
85	91	1
129	130	3
126	131	3
66	121	1
7	43	1
106	126	3
108	108	5
132	174	5
157	161	4
106	108	3
27	27	6
3	3	4
126	130	3
90	95	3
8	12	2
35	52	1
151	151	3
64	84	3
122	144	3
156	158	1
101	102	4
26	26	1
11	12	2
29	29	2
113	120	1
157	164	2
31	31	7
11	24	1
7	8	3
170	180	2
110	130	3
137	162	1
136	143	2
74	74	7
7	11	3
45	55	2
27	35	1
136	140	2
133	135	3
58	62	4
76	81	2
33	34	2
162	179	9
11	22	2
59	62	2
40	40	3
158	160	4
2	4	2
57	82	1
115	138	2
15	17	1
169	175	2
168	170	1
70	78	2
25	26	3
152	166	4
49	50	1
154	158	1
19	19	2
122	133	3
123	123	4
154	172	1
113	138	2
134	135	2
143	155	2
93	94	2
13	14	1
111	130	1
113	113	6
19	45	2
51	51	1
44	45	1
95	96	2
6	41	1
61	61	4
135	143	2
72	173	1
87	110	2
13	42	1
94	95	3
105	123	1
6	18	2
87	89	1
67	90	2
60	61	1
51	68	2
97	99	1
96	101	1
52	53	2
110	111	2
144	152	2
154	159	3
84	84	5
30	31	3
29	31	5
138	162	2
1	4	2
62	68	4
10	20	3
140	141	1
26	32	1
152	167	1
163	168	2
106	106	1
52	102	1
9	37	1
10	36	1
111	113	1
121	121	1
21	24	1
137	138	2
16	17	1
133	134	1
40	41	1
144	145	1
175	176	2
75	107	1
66	68	3
92	94	1
34	36	1
52	101	4
134	137	1
84	85	2
89	95	1
88	89	1
8	10	1
111	131	1
65	66	3
7	7	1
79	89	1
77	80	1
122	122	2
38	39	2
157	160	1
124	125	1
161	169	1
143	161	1
155	168	2
151	152	1
145	152	1
158	172	1
161	165	1
132	133	1
82	84	2
62	63	2
75	78	2
76	107	1
153	168	1
14	18	1
16	39	1
102	103	1
162	167	1
76	92	1
170	179	1
