64	68	2
131	131	11
187	187	4
44	110	1
24	25	1
176	176	10
98	162	3
48	48	13
110	110	2
31	57	1
67	67	10
72	80	2
122	129	2
7	7	8
74	74	7
77	77	6
20	20	17
87	87	3
152	152	3
172	172	2
34	34	7
39	110	3
69	72	4
72	72	7
84	84	1
3	182	2
97	189	2
95	95	10
65	67	1
35	35	5
44	99	2
83	83	9
32	112	3
106	167	4
111	111	6
85	89	3
113	114	2
0	0	6
107	107	3
93	126	1
195	196	4
151	151	5
121	121	4
74	81	4
60	60	8
173	183	3
62	62	6
158	181	2
192	193	3
109	197	4
12	158	1
6	6	4
191	191	1
114	114	10
94	189	2
132	132	10
29	29	8
15	15	9
39	39	8
191	192	3
159	184	8
123	168	2
43	46	4
51	51	5
43	44	2
194	194	5
64	72	4
179	179	4
20	22	7
156	156	6
145	145	7
112	112	2
138	138	19
61	61	4
147	176	3
177	178	1
171	172	3
42	42	8
10	10	9
26	27	1
111	186	5
32	32	5
34	41	1
94	94	7
99	100	4
125	125	2
142	170	1
0	1	4
62	63	4
4	5	4
175	190	1
85	85	11
178	178	6
71	71	4
5	5	1
0	3	5
21	96	3
69	69	8
74	75	3
27	27	4
96	99	1
124	130	7
8	8	6
43	43	4
173	173	2
165	171	1
104	104	12
109	109	4
59	59	4
48	49	4
153	162	2
149	150	6
15	28	2
113	113	7
122	122	10
96	97	9
5	179	2
31	32	9
55	56	4
162	162	4
139	139	4
99	99	13
168	183	1
49	49	3
19	19	4
81	81	9
109	111	6
14	15	4
103	103	8
47	48	5
95	97	3
14	72	1
76	78	4
132	137	6
16	16	3
96	190	2
11	11	3
82	82	6
196	196	7
154	155	5
44	45	6
102	102	5
117	117	6
6	81	5
137	137	6
38	38	7
59	60	8
13	13	9
21	21	4
54	54	9
113	115	3
80	158	3
112	127	4
107	138	1
177	177	9
5	72	1
2	178	1
185	185	6
13	56	2
101	104	1
73	73	6
112	113	5
78	78	6
178	179	1
30	41	1
65	65	6
126	127	4
78	79	5
79	79	9
98	161	2
179	183	2
184	184	12
195	195	5
166	166	7
102	122	1
40	40	4
160	160	5
2	4	2
52	52	2
26	99	3
97	98	2
119	119	4
14	14	7
64	82	3
157	157	7
102	197	1
45	45	6
140	140	7
124	124	6
23	23	6
27	28	5
167	167	6
141	141	6
147	147	7
58	58	3
76	76	2
163	163	12
35	36	4
14	185	1
51	52	2
64	67	6
18	18	5
5	12	1
47	47	5
60	61	3
80	80	2
189	189	2
30	108	3
108	171	3
94	95	5
155	183	2
144	144	4
134	135	1
53	55	2
180	181	1
2	2	5
30	55	2
186	186	6
66	66	7
31	40	2
2	3	1
174	179	4
30	99	2
41	41	1
167	168	3
155	184	1
150	153	2
12	13	1
109	110	4
133	133	6
89	89	3
116	117	3
33	33	5
153	154	4
30	31	2
11	81	1
9	9	2
57	57	4
3	14	4
5	180	3
79	81	1
98	154	2
39	40	3
127	130	1
175	177	1
145	170	1
42	44	3
98	189	2
16	40	3
98	98	5
34	35	2
56	56	2
136	136	2
154	154	5
165	172	1
98	192	3
22	22	4
99	186	1
146	146	5
39	42	1
159	182	6
101	187	2
121	130	3
99	120	3
104	122	4
75	76	3
100	120	3
161	161	4
33	50	1
100	110	4
24	29	2
70	71	2
46	46	3
17	18	4
174	178	2
53	53	1
128	129	1
114	172	1
75	75	2
96	189	2
170	170	3
46	123	1
63	64	2
102	139	1
17	40	3
1	1	2
52	53	2
132	133	1
114	115	3
29	30	1
17	17	4
73	75	2
104	120	3
4	9	2
147	174	2
127	140	1
125	174	1
40	42	2
197	197	2
25	26	1
16	188	1
60	79	1
88	88	2
165	165	1
99	162	1
66	77	2
45	124	1
165	166	2
180	180	7
128	128	2
193	193	2
138	139	1
169	170	1
134	134	10
20	21	1
168	168	5
28	28	1
28	95	2
98	152	2
131	186	4
151	162	7
55	124	1
57	168	1
67	68	2
144	145	1
5	6	1
50	50	1
37	43	3
193	194	1
36	173	2
181	181	6
36	36	7
99	190	1
174	174	1
21	29	2
36	37	1
29	103	1
11	12	1
158	158	1
42	85	1
21	124	1
116	116	5
61	62	1
142	142	5
188	189	2
55	55	3
111	112	1
163	180	1
81	82	2
131	132	1
24	95	2
105	105	6
121	123	1
88	90	1
12	181	5
104	105	2
44	53	3
30	96	1
21	95	1
182	182	3
108	108	5
30	30	2
37	39	2
129	129	2
76	82	2
18	63	2
178	183	2
30	158	1
176	177	3
11	66	1
149	149	4
31	31	2
68	68	1
155	178	1
97	97	4
146	147	2
192	192	1
96	96	2
147	175	1
77	78	1
120	126	3
146	148	1
130	130	1
188	188	1
156	158	2
37	37	3
118	118	2
19	21	1
3	22	3
109	115	1
148	149	1
150	150	2
155	156	1
25	25	2
125	127	2
163	164	1
123	123	2
100	100	4
16	20	1
88	89	1
5	7	1
179	181	5
123	125	1
4	8	1
155	155	2
4	4	1
32	33	1
5	158	1
31	108	1
9	59	2
100	101	1
102	138	2
17	41	1
142	143	1
54	130	1
13	67	1
101	139	2
14	66	1
126	173	1
120	147	1
181	182	1
133	185	1
25	39	1
95	96	1
83	84	2
174	175	1
12	12	3
119	120	1
13	19	1
58	180	1
185	186	1
123	146	1
159	159	4
155	159	2
8	9	1
151	175	1
109	150	1
159	180	1
19	124	3
42	46	1
70	70	1
45	186	3
164	164	1
157	158	2
60	69	1
52	184	1
8	83	2
127	127	1
183	183	1
94	190	2
101	101	1
130	135	1
100	187	1
96	125	1
98	185	1
21	43	1
109	148	1
76	77	1
102	105	1
173	175	1
178	180	1
44	131	1
124	148	1
77	79	1
4	7	1
21	45	1
60	82	1
