20	20	9
21	21	7
119	127	2
111	111	2
86	89	4
37	37	16
135	135	17
77	77	13
134	134	13
35	135	3
2	2	14
19	20	2
33	33	12
89	89	5
114	114	13
112	112	3
71	71	3
131	131	5
118	118	5
128	131	2
31	32	4
1	15	2
74	74	4
11	25	2
17	99	2
104	122	3
136	136	4
88	88	12
124	124	7
125	125	16
130	131	1
82	82	9
30	30	4
27	27	16
134	135	16
127	127	9
103	108	5
103	117	3
73	118	4
76	76	5
4	22	5
95	129	4
123	126	2
104	104	8
75	75	3
109	128	2
83	86	1
133	133	5
123	125	3
139	139	11
78	78	7
137	137	5
88	96	1
75	76	3
99	99	9
136	139	4
23	23	2
81	81	3
87	87	5
109	109	4
0	17	2
5	5	5
28	28	5
140	140	6
4	4	9
92	94	1
86	86	7
101	114	1
112	114	1
130	130	3
84	85	3
5	6	3
94	94	7
105	107	5
107	107	6
3	9	11
27	72	7
0	2	3
31	31	16
125	126	4
15	15	3
116	117	2
118	119	5
116	116	7
86	128	1
132	132	6
16	16	2
110	110	11
38	38	4
11	12	4
128	129	6
103	119	3
0	18	2
95	95	4
19	130	2
93	93	5
89	90	8
3	3	7
133	134	3
119	119	5
105	105	8
102	102	2
113	113	3
126	126	6
99	116	2
138	138	8
80	80	5
79	79	9
73	75	2
114	115	2
29	29	5
98	98	5
4	9	4
123	123	6
126	127	2
34	34	6
86	127	7
100	102	3
90	90	1
92	92	2
18	18	1
8	8	5
77	78	1
17	98	1
14	15	1
117	119	2
36	37	5
83	83	1
77	79	2
22	24	2
104	107	6
96	96	3
19	19	2
0	0	6
6	7	3
74	75	1
108	108	6
17	17	5
0	16	2
106	106	6
4	11	7
0	80	1
35	36	3
10	10	4
129	129	14
17	18	4
120	120	2
128	128	3
26	26	4
117	117	7
11	11	4
104	106	2
25	25	3
71	121	3
32	32	6
122	123	1
119	123	1
5	29	6
97	98	1
22	22	5
120	122	1
82	83	3
108	109	5
18	19	1
125	127	1
83	123	1
117	120	1
13	13	2
13	14	4
87	88	1
113	122	1
103	103	6
97	97	1
98	101	2
86	88	5
115	116	1
93	95	2
22	25	3
31	37	1
9	9	5
36	36	5
121	121	1
86	87	6
91	92	1
96	97	3
99	105	1
17	24	1
12	31	2
8	36	2
73	73	6
10	15	2
86	124	1
127	128	1
110	111	2
107	108	2
28	29	3
8	11	1
132	133	2
30	86	2
7	7	1
138	139	2
99	100	1
125	129	1
135	136	1
76	80	1
35	35	5
24	25	1
37	38	2
18	24	2
26	72	1
14	14	1
100	101	1
84	86	1
81	82	1
32	33	2
81	83	1
91	91	2
122	122	5
75	96	2
115	115	1
100	100	1
34	35	1
30	31	1
110	112	1
138	140	1
72	72	1
105	106	2
101	101	1
12	12	1
72	107	1
84	84	2
113	115	4
18	20	1
3	21	1
92	93	1
43	82	1
78	83	1
84	87	1
34	135	1
131	132	1
88	92	1
25	26	1
1	18	1
111	123	1
10	129	1
106	131	1
15	18	1
