107	108	9
110	110	10
123	126	1
67	68	2
55	72	1
50	65	5
88	94	4
40	41	15
32	139	1
107	107	8
137	139	4
105	105	7
75	85	1
24	24	4
87	87	4
27	28	4
79	79	1
101	101	9
115	116	2
9	10	2
38	40	3
23	29	3
57	57	11
37	37	10
112	114	3
23	33	2
131	131	20
78	79	4
110	113	3
82	82	4
19	24	1
66	69	2
0	5	2
137	137	10
117	117	12
70	80	4
9	17	4
14	15	6
75	77	1
70	71	6
124	124	4
84	84	2
0	9	1
50	64	1
84	86	2
123	144	2
13	13	6
104	104	10
102	107	2
0	3	3
28	41	1
42	42	6
94	94	7
136	136	7
61	61	5
140	140	13
26	27	6
5	11	6
30	31	5
114	115	2
90	90	17
56	56	2
0	18	4
99	103	1
109	112	2
1	4	1
51	51	6
96	100	2
26	26	12
133	137	3
32	40	1
97	98	9
123	131	4
25	26	2
10	27	4
88	90	9
23	38	2
19	32	3
100	146	5
38	38	3
19	20	13
29	29	1
91	92	6
32	32	11
129	129	12
122	122	14
73	75	1
9	18	6
102	102	1
98	115	1
17	19	3
126	126	9
51	56	1
34	34	2
68	68	7
68	73	4
60	61	4
121	123	3
92	93	4
33	34	4
61	62	1
96	99	2
111	111	3
114	131	4
106	106	9
70	73	2
64	67	4
68	71	1
14	32	3
122	123	2
95	95	7
31	31	4
118	128	1
117	131	1
2	2	4
39	40	4
101	107	3
28	29	5
130	138	3
108	108	11
66	66	4
12	12	5
122	138	1
63	63	2
29	31	5
54	54	6
96	96	7
60	67	1
118	122	3
29	77	1
138	138	16
50	51	7
52	52	13
125	128	4
69	69	15
62	75	1
23	54	3
59	70	2
144	144	2
57	58	4
130	143	8
127	127	2
121	121	2
57	61	6
54	60	2
3	33	2
54	73	2
65	65	7
20	21	4
73	73	5
19	33	1
59	59	10
119	121	1
126	137	7
49	53	2
117	127	5
71	71	5
18	21	4
116	128	7
60	60	3
98	99	2
88	109	4
53	66	3
115	131	4
113	124	3
39	39	4
74	77	5
105	106	6
116	116	2
64	64	4
134	135	3
139	143	3
101	109	2
124	125	3
14	14	3
88	88	7
72	73	5
109	109	7
86	86	11
114	116	2
58	58	4
8	20	1
118	120	2
8	11	1
106	108	3
110	114	3
55	67	4
139	139	7
87	108	6
99	99	7
68	98	2
132	132	7
123	140	1
77	85	2
67	71	1
81	98	2
19	31	3
110	111	1
83	83	6
4	4	4
119	146	2
98	98	3
10	30	2
142	142	7
35	35	9
80	80	6
89	90	3
126	141	1
8	9	3
90	94	1
56	66	1
10	10	9
12	13	1
62	70	2
22	30	3
17	23	3
74	74	9
141	141	12
4	5	1
87	102	5
37	38	5
0	2	1
124	133	1
65	69	3
8	10	3
120	120	5
1	14	2
63	64	2
47	47	4
22	22	9
91	91	5
8	22	3
129	138	2
77	78	3
20	20	2
138	140	1
90	91	4
1	144	4
118	118	17
118	131	4
37	41	9
136	139	1
137	138	2
67	67	4
0	26	2
3	3	2
48	48	8
59	62	1
47	53	4
134	134	5
15	15	2
71	89	3
1	21	2
82	86	2
102	115	4
123	136	1
20	34	3
62	72	1
113	114	2
99	106	2
110	112	3
135	135	3
75	87	4
22	43	1
28	28	11
72	72	4
130	140	1
12	125	2
69	73	2
89	89	4
93	94	3
75	76	2
47	64	3
17	17	2
81	97	2
120	140	1
32	42	1
142	143	3
9	9	8
9	22	1
131	135	4
84	88	6
64	66	4
36	38	1
130	132	1
77	77	7
0	0	3
104	107	1
117	119	1
82	97	3
75	75	6
128	128	3
82	84	1
116	118	2
124	126	1
34	37	1
57	75	3
1	27	1
37	42	1
121	136	2
114	114	6
120	126	1
117	118	2
87	97	2
134	136	1
72	86	3
6	8	4
62	68	2
116	126	2
62	66	1
57	79	1
119	128	2
68	74	1
1	16	4
92	101	1
35	123	4
32	136	2
16	16	3
114	123	3
5	14	1
122	126	2
19	29	1
68	90	2
24	136	1
114	118	2
24	54	2
56	73	1
92	110	2
17	53	2
64	80	3
9	13	5
133	133	8
102	103	2
133	135	2
113	137	2
98	104	1
67	69	2
127	132	1
79	81	1
93	100	2
55	60	3
41	118	1
23	59	1
141	142	1
132	133	2
36	135	3
81	81	4
57	70	1
103	103	5
47	54	1
1	1	2
95	98	2
101	103	3
42	48	2
70	81	1
126	128	1
8	8	2
13	14	3
11	34	1
11	11	3
130	139	1
111	116	3
84	87	2
20	23	2
92	92	6
0	10	3
2	4	3
33	33	3
120	121	3
89	102	2
48	55	3
1	18	5
121	124	3
6	56	1
40	40	4
119	140	1
16	17	2
119	119	3
113	116	2
6	19	1
128	129	2
111	112	4
27	29	2
5	10	1
109	117	2
129	146	2
49	50	1
1	9	1
131	132	2
41	137	1
91	94	1
0	14	1
25	27	1
112	112	3
36	36	6
80	95	1
86	87	3
124	136	2
118	126	1
87	96	3
146	146	1
22	24	1
71	75	4
73	76	2
21	21	2
78	78	6
61	76	2
36	126	1
17	26	1
141	144	1
74	84	1
115	119	2
104	108	2
13	23	2
119	123	3
3	27	1
119	137	1
72	80	3
86	99	2
60	63	1
59	73	2
105	113	1
57	68	2
19	19	2
47	106	1
81	84	2
92	94	1
71	73	3
140	144	7
129	134	1
125	125	3
25	25	8
123	124	2
18	29	2
119	120	1
82	87	2
106	107	3
51	65	1
32	33	1
55	56	2
113	123	1
53	57	2
74	98	1
76	77	1
33	136	4
50	50	4
43	109	2
87	107	1
103	108	1
79	80	1
79	91	2
91	96	4
27	27	3
18	31	1
52	53	2
70	70	1
121	126	2
79	87	1
1	3	2
51	52	1
32	37	2
61	67	2
85	85	1
84	85	2
48	61	1
68	69	1
116	137	1
10	12	1
35	37	1
55	68	1
2	31	1
4	142	2
136	137	3
110	115	2
59	67	1
36	39	2
37	39	1
21	38	1
71	72	5
15	21	3
98	100	1
76	76	2
109	127	3
52	129	2
119	143	1
100	100	1
69	70	1
142	146	2
0	31	1
19	21	1
32	34	2
30	32	3
54	84	1
130	131	1
108	109	1
82	95	1
100	145	1
88	96	1
125	126	1
96	107	1
105	107	4
110	117	1
7	13	1
5	18	2
8	14	2
140	141	1
40	137	1
24	29	1
97	133	1
87	90	1
136	144	1
43	55	2
23	23	3
56	64	1
101	133	2
83	84	1
84	89	1
65	66	1
62	67	1
15	35	1
28	103	1
53	56	3
114	127	2
74	115	1
63	71	2
139	140	3
135	141	1
23	30	1
43	43	1
102	104	1
125	135	1
48	50	1
93	96	1
24	30	1
123	141	1
49	51	1
96	101	1
10	21	1
110	123	1
89	119	1
62	62	1
82	83	1
50	52	1
30	42	1
72	75	1
121	140	1
104	105	1
78	82	1
