69	69	8
52	53	6
35	35	11
54	54	3
32	32	2
85	85	2
78	78	9
73	73	7
20	20	7
59	60	5
99	99	13
49	49	10
63	63	7
29	29	7
86	87	5
70	70	12
45	45	6
57	58	4
96	96	12
75	75	4
72	72	4
40	40	11
107	107	12
98	101	1
112	112	3
49	50	4
24	24	6
100	101	5
56	57	4
96	97	2
114	114	7
35	36	3
30	30	15
24	31	5
94	94	3
28	28	9
45	49	3
23	23	5
65	65	5
91	91	5
60	60	9
38	39	6
51	51	11
89	92	3
21	21	3
81	81	7
57	83	3
46	46	7
39	39	12
44	44	2
21	25	2
111	111	3
34	34	14
88	90	2
110	110	11
22	48	1
92	103	1
108	108	7
79	79	16
97	97	7
103	104	2
32	82	4
95	96	1
60	62	3
25	51	3
28	111	2
29	75	2
50	51	15
44	80	5
87	98	4
43	44	6
60	61	2
95	95	18
52	52	12
96	99	3
89	97	4
71	85	2
74	75	5
50	94	5
38	38	11
93	93	1
21	48	1
36	107	4
98	98	5
24	25	3
58	65	3
28	29	6
51	112	2
67	67	8
92	94	2
58	67	2
90	92	1
21	22	5
42	103	2
79	93	10
50	50	5
80	80	2
59	59	4
48	48	6
21	90	1
60	63	2
104	111	2
74	74	3
19	19	5
61	61	5
42	43	2
27	27	10
24	27	3
54	72	1
22	23	3
82	83	4
26	26	9
101	101	5
75	77	2
60	95	1
31	31	13
75	99	2
80	91	1
88	93	3
51	98	3
72	73	8
71	74	1
24	104	1
25	27	4
55	58	2
92	92	13
84	94	4
55	74	2
48	49	8
90	90	3
99	100	2
47	47	4
82	82	3
42	47	3
74	94	1
97	98	3
113	113	8
109	111	1
61	67	1
83	83	3
61	93	2
36	36	5
77	77	13
36	37	4
29	74	1
31	74	2
89	89	10
100	100	6
62	62	11
88	91	2
102	104	2
77	78	5
19	75	1
40	41	4
32	33	4
43	43	4
33	34	5
104	104	4
32	34	5
103	107	2
45	46	3
88	88	2
39	41	1
25	25	1
26	28	1
68	69	1
89	93	2
68	68	2
48	113	2
101	111	1
71	72	2
41	103	3
21	50	2
33	33	5
21	46	1
29	36	6
59	78	1
55	55	1
42	42	7
20	21	5
33	69	1
71	71	7
59	64	1
113	114	2
41	42	2
37	41	2
41	41	3
68	71	1
69	70	2
20	24	1
85	86	4
49	103	1
88	98	1
51	99	2
38	41	1
79	112	3
30	108	1
83	84	2
76	76	5
75	76	4
66	67	3
52	60	4
37	37	5
31	45	2
57	57	5
55	56	1
59	69	1
47	93	3
77	88	1
24	42	2
22	22	1
30	75	3
88	97	1
105	106	2
64	65	1
53	53	1
41	73	1
84	85	1
80	81	1
87	92	1
55	80	1
44	73	1
66	81	1
54	73	1
29	110	3
70	71	3
84	84	1
88	89	4
56	56	3
38	42	1
46	51	1
24	49	2
98	99	3
106	106	1
24	111	1
75	87	1
23	91	1
92	93	3
102	102	2
31	41	1
60	96	1
51	52	3
109	109	1
58	66	1
85	95	2
19	26	1
46	100	1
94	95	1
34	42	3
26	27	1
32	54	1
34	35	1
110	111	1
53	55	1
64	64	1
61	97	1
35	70	1
41	49	1
32	52	2
98	100	2
28	36	1
32	45	1
54	71	1
44	46	1
65	83	1
109	110	1
56	64	1
115	115	1
56	65	1
58	58	1
47	109	1
106	108	1
86	91	1
