34	34	1
57	57	2
128	128	3
138	138	2
14	14	9
105	106	5
157	157	4
69	69	6
3	3	6
42	43	2
38	45	2
52	52	2
140	140	3
120	120	3
25	25	1
26	30	4
102	102	2
9	12	2
143	143	1
154	155	3
122	122	4
11	11	2
7	7	5
46	51	4
83	83	1
41	41	6
109	113	4
20	20	3
109	110	2
134	134	6
76	76	4
157	158	6
124	138	3
88	88	4
54	54	11
148	148	8
31	44	1
108	112	3
9	9	5
83	87	1
31	31	1
4	5	1
78	78	7
128	132	3
124	124	6
18	18	1
147	147	5
51	51	2
17	17	7
7	8	2
137	138	3
127	127	6
14	18	1
33	36	3
97	98	3
69	70	5
113	113	3
116	122	1
42	42	7
31	45	3
36	36	3
16	16	4
28	28	4
33	35	3
24	105	5
8	10	4
50	50	6
132	136	1
21	22	5
150	151	3
82	82	2
121	122	4
105	105	1
103	103	7
92	92	8
56	66	1
39	39	5
116	117	1
99	99	5
48	48	1
97	97	2
80	90	2
89	90	2
65	100	1
31	40	1
110	118	1
141	142	2
106	106	6
107	107	1
38	40	1
114	114	2
10	10	2
27	30	1
65	68	2
1	2	2
153	153	1
135	135	9
26	26	6
62	63	4
33	33	1
141	141	7
112	123	3
110	111	2
96	96	1
108	109	2
1	16	2
46	46	2
63	63	3
81	81	1
1	1	3
107	119	2
156	156	2
37	37	4
128	134	1
109	118	1
34	53	5
122	123	2
133	133	2
35	36	2
46	49	1
96	97	3
48	97	1
116	116	2
155	155	6
7	18	3
100	101	1
128	130	3
100	100	1
152	152	3
27	27	3
6	8	1
138	140	1
53	70	1
23	105	3
136	136	2
63	88	1
21	21	2
45	45	3
79	80	2
132	134	1
112	125	1
91	91	2
30	31	2
12	12	1
73	73	2
15	15	2
66	130	2
106	120	3
53	85	1
98	98	1
116	125	2
56	71	2
85	86	1
65	88	1
21	48	1
13	14	1
39	41	1
93	93	4
126	126	1
22	22	1
96	98	4
80	80	1
87	88	2
81	87	1
94	94	1
2	3	1
41	42	1
38	38	1
56	67	1
32	55	1
56	56	2
70	70	2
81	82	1
77	77	1
32	32	2
139	139	3
95	118	1
92	93	1
55	55	1
131	132	1
93	95	4
57	70	2
112	112	2
13	13	2
25	99	1
138	145	2
142	142	1
145	146	2
121	121	1
19	19	2
109	109	1
68	70	1
40	41	2
32	45	1
121	124	3
52	53	1
67	67	1
95	101	1
73	100	1
158	158	2
38	39	1
26	27	1
107	120	1
126	127	1
129	130	1
52	55	1
124	126	1
84	84	1
153	154	1
4	4	1
151	151	1
156	157	1
