81	83	1
40	64	1
31	32	1
77	77	6
71	72	6
90	90	5
60	60	5
92	106	2
96	96	9
25	38	2
70	95	1
80	81	3
38	38	2
79	99	5
72	72	5
95	95	5
105	105	13
47	47	4
61	61	2
81	81	10
53	54	2
77	98	3
39	39	6
58	76	4
65	69	1
76	76	5
27	28	2
66	66	2
20	20	2
95	96	3
27	73	5
75	98	2
82	83	6
78	88	4
54	59	2
75	75	5
55	60	2
84	84	6
98	99	4
86	106	1
102	103	1
59	59	4
36	36	4
20	25	3
104	105	2
37	38	4
102	102	6
99	99	3
49	49	5
30	46	1
80	98	1
66	92	4
30	42	1
84	101	3
80	84	3
32	32	3
65	65	1
88	101	2
44	44	3
69	69	6
37	37	7
33	34	9
22	22	4
80	82	2
20	67	1
24	24	1
21	21	11
39	50	1
38	42	2
27	27	3
34	34	5
70	88	1
51	68	4
82	82	4
29	29	3
33	33	9
26	45	4
83	86	1
58	58	6
86	86	9
49	74	7
48	65	1
87	87	4
49	75	2
60	61	2
79	105	3
91	92	9
35	35	9
25	54	2
42	44	2
79	82	2
79	79	2
98	98	5
64	64	3
67	67	2
23	23	3
89	96	1
68	69	3
106	106	3
87	88	3
50	51	3
62	62	5
103	103	8
78	78	1
44	54	1
41	42	2
50	56	1
25	25	3
48	74	2
57	57	2
59	77	1
26	49	3
88	88	2
46	46	2
26	27	3
55	78	2
97	97	3
25	61	3
70	73	1
104	104	6
55	55	5
55	57	3
59	73	3
40	44	1
39	58	2
48	68	1
83	83	4
20	23	1
84	85	7
61	62	2
68	68	4
31	31	6
50	50	3
101	101	3
39	61	2
94	94	6
77	105	1
42	43	2
66	99	4
56	57	1
29	30	1
30	30	3
41	41	3
69	70	2
26	44	2
51	51	3
60	70	2
50	55	2
43	44	2
72	96	3
48	48	1
58	71	1
26	26	1
93	104	3
38	48	2
91	99	1
63	64	1
42	42	2
86	101	2
75	82	1
30	38	1
54	73	2
70	70	3
65	67	2
25	49	1
73	73	1
70	104	1
92	92	2
52	74	1
39	51	1
72	98	1
97	98	1
93	93	1
58	79	1
49	55	1
61	64	1
97	107	1
82	93	1
75	99	1
29	41	1
80	94	1
32	34	1
40	45	1
65	98	2
71	71	2
26	54	1
43	63	1
95	98	1
100	101	1
37	56	1
93	98	1
20	39	1
45	45	1
