82	83	1
81	81	6
148	148	9
4	4	11
38	38	8
4	33	3
121	122	8
127	127	12
42	42	18
34	38	3
10	10	7
65	100	2
103	103	16
91	91	11
50	50	14
135	146	2
89	89	4
131	138	2
91	92	6
92	92	12
68	84	2
12	12	7
111	111	12
95	95	7
8	9	6
46	46	11
8	17	7
93	93	5
20	20	8
137	137	12
35	35	4
31	32	4
131	132	2
86	86	10
46	48	6
26	26	5
122	122	11
70	71	1
24	25	1
45	45	15
9	9	3
120	122	5
142	142	4
87	95	1
77	77	9
35	36	2
144	148	3
67	67	9
90	155	1
120	120	12
154	156	2
135	136	3
18	18	10
40	96	1
157	157	10
52	55	2
144	147	2
126	131	1
139	139	10
77	78	5
71	84	1
84	84	10
7	32	1
138	138	7
88	88	10
75	75	4
22	23	6
85	86	3
84	85	3
114	114	11
107	107	7
72	73	1
66	70	1
23	23	11
130	130	20
134	134	5
10	11	1
108	109	1
3	3	4
8	8	10
99	99	2
112	112	12
145	154	2
83	116	4
129	129	7
147	148	4
104	104	10
81	82	3
145	150	4
22	22	12
1	1	10
36	36	9
79	79	8
31	66	7
88	89	6
68	68	5
126	126	8
64	107	5
82	82	6
65	66	1
16	16	5
24	24	16
49	49	7
66	66	9
6	32	2
106	116	1
44	44	5
6	72	1
104	105	2
154	154	3
131	131	7
87	88	10
30	148	4
29	29	11
82	107	4
88	91	2
23	24	5
83	84	6
40	41	1
71	83	2
153	154	5
155	155	2
7	7	9
72	72	4
121	146	3
5	66	2
52	52	5
7	19	4
141	141	13
54	55	3
6	7	3
25	25	8
144	158	3
13	13	4
27	27	10
113	113	5
117	117	2
127	133	6
64	64	11
91	157	3
32	32	10
63	71	8
106	106	7
126	139	2
67	70	3
66	129	3
53	53	6
63	83	2
19	19	7
2	2	4
124	127	1
121	121	5
0	0	3
21	21	8
78	80	2
97	98	2
94	94	6
76	77	6
123	150	3
128	128	4
48	49	8
98	98	15
89	137	1
23	25	2
18	19	4
88	97	4
152	152	3
20	21	2
0	48	4
146	146	2
132	133	7
110	131	3
130	131	1
51	52	1
47	47	5
39	39	8
46	49	1
11	11	14
42	43	5
17	18	2
148	149	1
13	43	4
56	56	4
107	127	2
76	76	3
80	80	15
65	65	5
79	83	1
6	6	4
147	147	3
87	92	4
33	33	7
123	124	4
45	48	1
110	110	9
150	150	4
126	133	3
34	34	5
119	119	4
78	78	4
109	117	1
93	95	1
118	119	5
112	113	3
124	125	4
85	85	8
156	156	4
71	71	5
15	16	1
113	114	3
132	132	6
66	72	2
100	100	8
158	158	4
123	123	10
119	122	1
49	50	7
152	154	2
53	54	1
125	143	1
51	51	7
87	89	6
14	15	1
120	121	2
38	39	2
144	144	7
125	125	6
151	151	8
108	108	10
135	135	11
19	38	3
5	19	4
100	101	4
106	138	1
63	63	2
105	105	4
54	54	3
109	109	1
41	41	4
144	145	3
124	126	3
83	83	3
154	155	3
33	71	2
86	92	1
1	64	4
43	43	7
36	64	1
38	41	3
78	79	5
147	152	2
85	124	2
44	104	4
87	139	1
30	30	11
28	28	4
69	130	4
104	141	2
8	11	1
101	101	2
107	111	4
0	157	1
37	37	2
87	87	13
97	97	2
31	31	9
95	96	2
11	13	3
48	48	4
150	151	3
17	17	5
118	118	6
94	95	1
120	150	3
125	126	1
124	124	8
155	156	2
70	70	8
139	140	2
47	62	5
149	149	4
21	105	2
31	65	1
19	20	1
136	136	1
21	137	1
115	116	2
136	137	2
12	13	2
12	15	1
93	94	4
80	107	2
55	56	2
28	29	2
21	22	1
96	96	6
40	42	5
65	69	2
34	35	2
47	50	4
129	158	1
5	5	3
36	41	1
142	143	1
57	57	2
1	2	6
94	137	1
103	104	1
134	135	3
117	139	1
116	117	2
47	51	1
69	69	2
140	141	2
5	116	1
79	80	2
102	102	2
137	138	5
90	90	1
11	12	1
92	93	2
3	34	1
7	29	1
124	149	1
103	115	1
6	24	2
5	55	1
87	90	2
47	48	1
84	140	1
22	24	1
113	117	1
39	40	1
4	56	1
74	74	3
16	17	2
90	91	4
103	113	2
80	81	1
102	104	1
27	29	1
133	142	2
125	127	4
105	106	2
113	141	1
25	26	1
69	70	1
32	33	2
107	113	1
64	65	1
105	110	1
56	102	1
117	119	2
0	158	1
145	145	1
88	94	2
133	133	5
116	116	1
98	99	1
110	111	2
135	142	2
30	31	1
151	152	3
68	153	1
107	158	3
8	24	2
129	130	2
140	140	1
94	96	2
146	147	2
108	110	2
52	53	1
36	91	1
40	40	2
82	111	1
44	66	1
25	27	1
86	110	1
94	98	1
41	43	1
127	129	1
155	157	1
75	100	1
