194	195	5
2	22	2
20	23	3
18	18	9
94	111	3
37	37	3
61	61	2
105	105	7
39	39	7
149	149	1
27	27	6
34	34	5
174	175	4
194	194	4
21	21	9
56	56	9
101	113	4
157	158	5
100	115	4
115	115	11
45	45	10
179	179	7
183	183	7
78	78	4
187	187	11
79	79	8
140	140	5
50	53	4
99	112	5
170	170	2
69	71	2
191	193	4
40	40	6
43	43	1
155	155	7
7	41	4
60	60	5
134	167	2
176	178	2
28	28	6
49	49	16
120	191	2
106	106	7
122	156	4
0	2	1
97	97	4
123	123	4
73	83	2
142	143	3
44	44	5
150	150	20
186	186	10
69	69	8
81	83	1
5	5	6
134	142	1
84	85	3
3	4	5
20	20	5
29	29	5
147	148	3
66	66	4
178	192	5
21	32	3
100	116	1
79	178	3
84	104	2
104	106	5
143	143	11
110	110	9
87	151	4
9	13	1
109	109	15
109	110	2
50	52	1
193	193	17
107	107	3
58	58	7
135	136	4
154	155	1
143	144	3
39	40	5
41	43	2
47	47	10
125	125	5
36	36	5
159	188	2
111	111	3
45	46	4
27	38	3
169	170	2
82	82	4
101	102	3
12	52	1
81	81	5
142	142	8
86	86	4
188	188	10
24	26	7
139	147	3
165	165	10
184	184	4
84	84	8
104	108	1
53	53	8
130	130	9
76	172	2
7	7	15
96	96	9
87	87	11
121	122	4
88	89	3
167	167	5
133	135	2
15	15	9
178	178	9
101	101	3
166	166	5
98	160	4
68	122	2
42	55	2
81	88	3
38	40	2
25	25	13
33	33	2
119	191	3
26	27	3
62	64	2
99	118	2
68	68	9
44	58	4
46	46	9
172	172	8
89	90	7
190	191	6
104	104	7
146	146	10
69	86	4
16	16	11
86	87	3
25	26	1
31	32	2
35	35	5
192	193	3
164	165	1
157	157	9
118	118	7
13	13	10
134	135	3
111	112	3
100	100	12
1	1	12
176	176	4
54	55	6
42	52	1
16	85	2
148	149	7
32	32	6
19	19	8
0	0	12
8	18	4
9	9	7
180	181	2
109	159	3
166	167	2
127	197	3
43	44	9
38	38	4
161	161	4
132	167	4
11	42	3
150	157	5
76	76	4
196	196	5
134	134	8
137	147	2
9	32	1
34	37	6
145	146	6
22	22	2
24	24	6
144	147	2
82	90	4
135	135	9
181	183	4
108	112	2
100	101	3
1	6	1
78	79	2
0	193	3
65	70	2
196	197	2
29	30	3
67	67	8
154	154	5
96	162	4
105	135	1
85	95	3
73	74	3
171	172	2
165	166	5
132	179	2
145	145	4
112	112	8
159	159	7
65	65	10
170	171	4
124	124	6
93	111	1
42	42	7
162	162	11
59	59	3
64	126	2
121	156	1
76	78	2
53	192	1
9	73	2
57	155	1
181	181	12
88	88	2
139	139	8
114	115	3
193	194	2
137	137	5
32	33	2
122	123	5
74	74	2
55	56	1
41	53	5
20	31	1
5	14	3
114	114	6
99	99	1
147	147	4
123	128	1
136	137	2
163	163	3
173	173	7
152	152	8
7	152	2
102	117	2
141	142	1
117	117	6
17	17	4
17	155	2
161	162	2
63	64	2
197	197	5
126	127	2
163	165	2
44	45	5
28	40	1
41	42	2
50	89	3
4	4	8
5	8	1
107	113	2
98	189	2
162	163	3
58	121	3
103	154	2
11	75	1
182	182	3
50	50	11
104	105	3
83	83	7
55	138	2
129	129	9
133	136	3
12	39	2
121	121	3
4	5	9
89	89	5
31	31	7
190	190	4
109	128	1
104	107	2
102	102	4
15	131	4
14	14	3
7	57	1
152	163	1
15	120	4
75	75	4
51	66	1
30	31	4
23	23	12
123	124	6
171	171	4
75	86	1
40	148	2
20	22	6
104	154	1
1	24	2
131	131	9
6	7	1
3	3	5
133	133	4
63	111	3
90	90	3
189	190	1
18	19	1
148	148	3
185	185	6
11	12	3
179	183	3
48	48	4
68	74	2
2	2	3
99	189	2
112	160	1
70	89	5
116	190	1
58	62	2
40	153	2
12	23	2
191	191	3
99	100	1
134	146	1
143	145	1
79	173	5
12	12	5
116	117	1
62	63	4
169	171	2
160	160	2
168	168	10
157	189	4
61	62	2
65	113	3
7	38	1
98	130	1
52	52	11
164	166	2
67	68	4
29	61	1
0	4	1
71	72	5
126	126	8
37	38	6
134	177	1
132	132	3
101	103	3
59	60	1
24	27	2
3	25	2
79	80	1
97	98	2
144	144	5
141	144	4
43	56	3
140	152	4
33	60	1
30	30	7
165	167	6
22	23	4
0	25	3
113	114	2
50	141	1
100	113	2
177	177	3
45	135	2
156	156	4
170	172	1
113	179	4
10	73	3
101	111	2
15	17	1
16	74	4
93	106	1
68	82	3
106	115	1
76	85	2
54	54	3
27	34	2
62	68	3
14	15	2
64	77	4
116	116	3
130	156	1
29	39	2
108	108	3
103	103	1
58	63	1
115	158	4
3	8	1
98	121	2
126	129	2
99	160	2
106	111	6
116	158	2
119	119	9
26	26	7
94	98	1
56	138	1
70	87	1
96	159	1
69	81	1
10	64	1
130	189	1
72	72	3
67	69	4
99	102	1
169	169	5
111	182	2
138	147	1
63	65	2
70	88	1
175	175	5
63	63	2
174	174	3
129	196	1
112	187	2
4	90	1
158	194	1
141	169	3
131	156	2
17	74	2
73	73	3
51	51	2
120	120	2
168	169	2
122	122	1
187	188	1
101	106	1
113	113	15
156	187	1
102	180	4
70	70	4
55	147	2
62	122	3
170	173	2
122	188	1
158	158	2
80	80	3
151	176	2
62	121	2
151	151	1
96	112	1
94	94	2
50	84	2
93	114	1
167	168	3
138	144	2
106	107	2
93	107	1
39	53	1
93	95	2
159	160	2
28	39	1
158	188	1
118	120	1
55	55	4
28	35	3
7	87	1
85	105	1
179	180	3
128	129	2
75	76	1
106	182	1
149	174	1
177	178	1
192	194	1
127	128	1
136	136	2
98	98	1
95	95	2
153	153	1
107	108	2
42	43	1
85	106	1
13	15	3
70	84	1
8	8	1
155	196	3
40	41	1
77	77	2
153	167	3
16	64	1
67	86	1
174	176	1
103	107	2
139	152	1
5	6	1
10	11	1
134	136	3
10	10	4
2	6	1
164	164	1
15	124	1
63	130	1
85	85	1
161	192	1
43	57	1
119	120	1
57	154	1
184	186	1
166	171	1
124	127	1
93	94	1
17	18	1
12	130	1
139	148	1
26	34	1
107	180	2
70	81	1
99	157	2
103	104	2
30	32	1
34	35	2
11	11	1
65	107	1
140	142	2
138	148	1
138	138	2
87	88	1
137	149	1
70	71	1
191	192	2
142	147	1
71	88	1
19	22	1
73	75	1
39	42	1
179	181	2
142	146	2
177	179	1
63	124	1
120	126	1
33	34	1
54	138	1
100	158	1
50	51	1
35	36	1
17	69	1
93	93	1
59	63	1
17	75	1
69	74	1
46	47	1
7	153	1
192	192	1
6	6	1
102	111	1
179	197	1
10	12	1
46	68	1
64	66	1
128	128	2
155	156	1
99	117	1
1	56	1
45	71	1
