186	213	3
200	201	2
236	237	5
129	129	1
10	10	5
79	119	1
11	11	12
146	146	9
165	165	3
158	159	5
214	216	2
106	106	4
165	200	4
181	189	4
187	187	2
218	218	5
65	67	3
43	43	2
151	151	6
125	208	3
193	193	12
194	195	2
74	74	15
211	211	6
170	170	2
176	176	10
220	220	7
186	186	3
64	64	8
54	55	4
28	28	4
116	116	16
239	242	2
213	213	6
14	14	12
33	34	3
144	147	2
124	153	4
214	215	2
216	216	10
49	50	5
53	53	3
105	105	6
135	135	2
219	219	11
33	33	5
166	166	6
190	190	10
16	17	1
103	103	7
156	156	13
171	171	8
130	130	7
70	70	4
178	178	9
0	3	8
36	36	2
5	41	2
154	154	4
231	231	2
67	67	10
196	196	4
115	115	12
97	97	5
1	3	4
137	138	6
36	37	1
136	141	2
127	127	4
138	139	4
115	120	3
222	222	6
15	15	10
199	199	6
242	242	4
45	54	3
0	1	8
61	202	4
24	24	2
66	67	5
191	192	1
163	163	2
7	8	3
119	119	5
80	80	11
130	173	1
151	152	1
161	161	8
69	69	12
207	208	1
188	188	6
136	136	4
144	145	4
226	226	9
2	4	2
125	125	3
201	202	3
233	233	5
73	96	1
104	131	1
177	177	5
9	9	10
47	47	7
83	84	5
129	130	4
227	227	5
99	100	2
158	158	8
200	200	6
25	26	6
126	129	7
121	121	8
88	88	4
169	207	6
26	148	2
7	7	4
138	138	5
169	170	3
1	1	3
104	104	3
32	34	3
155	155	12
101	101	2
42	73	2
171	172	1
175	175	2
12	13	7
229	229	8
5	5	11
164	165	7
39	39	5
85	85	7
204	204	7
207	207	2
131	208	4
126	127	3
128	129	4
46	46	6
147	147	8
126	126	4
185	199	5
51	51	2
13	59	3
225	226	6
54	54	11
20	20	17
55	55	5
180	186	2
16	16	9
21	75	1
162	172	2
7	9	1
167	170	2
224	224	2
125	158	3
189	192	2
185	197	5
233	236	3
10	62	4
173	173	7
86	86	6
109	110	5
238	239	1
122	161	2
183	184	3
117	117	4
126	133	3
65	68	1
52	52	2
170	171	1
52	53	3
235	236	1
63	63	5
58	58	4
201	201	7
148	149	2
241	241	11
24	112	3
179	180	1
160	160	7
217	218	4
189	193	4
216	231	2
217	217	10
77	77	4
17	17	3
56	56	2
53	115	1
82	82	4
184	184	6
57	57	4
240	240	8
110	121	4
190	204	3
179	179	5
131	131	5
6	6	12
44	44	4
80	91	4
204	206	2
187	189	3
176	177	3
109	109	2
68	68	1
8	14	1
118	118	3
180	180	3
162	169	1
144	144	2
227	228	4
144	146	3
85	98	2
40	40	2
23	24	2
123	124	4
149	149	3
59	59	4
237	237	1
54	83	2
61	203	2
183	197	3
168	168	6
8	8	8
153	153	1
221	221	10
185	185	8
117	120	3
19	165	5
20	61	2
22	84	2
49	49	7
46	47	1
25	25	3
229	230	1
12	14	7
59	60	2
198	198	2
197	197	5
210	210	10
136	137	2
100	100	2
224	225	2
3	3	4
95	95	4
223	223	4
4	4	10
46	50	2
153	156	1
24	55	6
209	209	3
203	205	2
89	89	1
183	183	2
38	38	5
157	157	4
111	112	2
134	134	1
140	140	3
19	19	11
98	99	1
0	0	1
239	239	3
45	114	1
78	78	6
79	79	4
108	158	3
225	225	7
174	175	3
212	212	5
13	13	2
159	159	7
105	150	3
45	45	2
167	167	6
6	42	1
185	196	1
16	95	1
25	148	1
46	54	3
27	27	1
20	170	3
48	49	4
144	149	3
238	238	2
143	143	6
99	101	2
214	214	3
185	186	3
62	62	13
18	18	4
100	204	3
38	45	1
181	182	2
142	146	3
13	60	2
87	172	1
30	31	1
139	139	4
66	199	2
123	123	3
28	38	2
9	95	2
50	51	3
81	81	7
147	148	2
86	101	2
104	124	1
195	196	3
234	234	5
107	123	1
41	96	1
230	230	4
12	12	3
123	210	1
156	158	3
30	35	4
125	155	2
101	102	2
113	113	3
120	158	4
99	133	2
78	79	1
137	137	6
210	212	2
150	150	8
120	121	1
145	146	3
99	146	3
103	105	4
22	22	2
22	23	10
29	29	1
30	39	2
115	116	5
129	131	2
205	205	8
21	21	7
124	124	2
72	72	6
41	41	6
225	227	2
228	228	4
221	223	1
194	194	12
4	6	1
108	108	2
19	57	2
107	159	5
9	69	1
148	148	2
217	230	1
67	185	1
105	126	1
175	232	1
236	240	1
199	201	3
42	42	1
205	206	3
162	162	2
54	113	3
169	169	5
112	112	1
32	54	1
122	125	1
32	33	1
190	194	1
108	109	1
86	87	2
83	83	9
133	133	5
183	191	2
62	71	2
121	159	1
53	54	1
120	120	2
195	195	5
65	65	1
241	242	3
127	128	3
54	82	1
232	232	1
203	203	3
77	88	1
53	117	3
117	118	1
99	99	1
15	16	2
189	191	1
191	191	3
2	2	2
35	35	2
29	35	1
107	162	1
56	57	1
182	182	1
171	206	2
8	9	2
63	64	3
220	223	1
223	224	3
76	89	1
122	160	1
18	57	1
103	129	1
32	32	3
109	157	2
231	232	1
128	137	2
73	203	1
76	76	2
3	40	1
105	142	1
240	241	1
210	213	1
122	122	1
233	234	1
135	137	2
112	113	2
152	152	1
165	166	2
105	157	2
133	205	1
45	46	2
107	125	1
180	190	2
218	219	1
145	145	1
154	155	1
35	82	1
219	233	1
189	190	1
184	186	1
157	158	2
113	116	1
206	206	1
163	166	1
166	196	1
23	23	1
101	169	1
48	48	2
31	31	1
44	74	1
178	179	1
213	214	1
163	165	2
190	192	1
18	19	2
110	120	1
192	192	1
19	166	1
62	63	1
84	84	2
153	154	1
23	75	1
184	198	1
37	38	1
7	41	1
142	142	1
134	135	1
119	120	2
145	147	1
7	12	1
26	26	2
80	83	1
220	221	1
102	204	2
124	125	1
120	159	1
88	160	1
81	82	1
2	80	1
58	164	1
132	133	1
107	128	1
106	128	1
101	172	1
30	81	1
102	206	1
103	104	1
34	34	1
141	142	1
182	183	1
71	72	1
32	37	1
