96	96	1
130	130	4
15	15	4
11	11	4
16	26	1
30	30	3
101	102	2
128	128	5
121	121	5
50	50	3
71	71	1
125	125	4
22	22	2
2	24	2
24	24	2
111	111	7
68	70	3
44	44	4
29	29	2
55	55	5
76	114	1
87	87	6
124	124	1
78	78	2
56	56	3
8	8	1
8	25	2
10	10	6
89	89	1
17	18	3
47	72	1
92	93	2
78	79	7
32	32	9
19	20	2
21	21	2
51	122	3
74	101	3
69	71	1
41	42	4
18	19	2
100	100	7
61	61	1
1	1	5
87	98	1
51	108	6
84	124	2
93	94	4
24	25	2
109	110	5
31	31	2
4	4	5
117	117	4
77	128	1
40	65	3
2	2	4
85	85	5
62	66	1
81	91	2
88	88	6
101	101	4
108	110	1
85	104	2
0	0	6
108	108	4
132	132	2
26	26	5
25	26	2
45	45	2
47	47	3
77	78	1
115	115	6
105	106	2
76	76	1
40	40	3
39	39	3
114	114	1
107	107	1
59	60	2
105	105	4
80	129	1
4	5	1
68	68	2
70	70	3
46	46	6
20	20	1
42	43	2
53	53	2
69	69	3
47	90	1
49	49	1
106	106	3
99	102	1
101	104	2
120	120	2
104	106	3
52	52	1
18	18	3
39	40	2
63	89	2
58	59	2
27	27	4
38	38	1
51	51	2
119	119	3
84	125	1
60	60	3
90	90	3
127	127	2
118	118	2
81	85	2
91	91	2
81	81	1
30	31	1
125	128	1
28	28	2
0	25	2
7	8	2
106	107	4
5	34	2
112	112	1
5	5	2
77	77	1
90	91	1
108	109	1
75	75	1
88	93	2
11	12	3
113	117	3
54	54	1
49	85	3
43	94	1
41	41	1
62	96	3
62	86	2
109	109	2
22	23	1
58	58	1
57	57	1
131	132	1
93	93	1
81	82	2
90	128	1
26	28	1
102	102	2
52	64	2
51	64	1
103	103	2
97	97	1
117	118	2
93	111	1
20	21	2
29	40	1
59	61	1
83	83	1
50	62	1
61	86	2
40	43	2
82	84	2
80	81	1
113	119	1
44	94	2
56	58	1
66	66	2
44	45	1
26	27	1
42	42	1
98	98	1
119	120	1
13	13	1
113	116	1
44	58	3
25	25	2
63	63	1
95	95	1
16	25	1
104	105	3
69	125	1
113	114	1
28	29	1
63	64	1
63	96	1
66	67	2
52	94	1
113	113	2
25	28	1
118	119	2
23	23	1
28	39	1
43	43	1
86	86	1
17	17	1
46	47	1
42	111	1
125	126	1
47	87	2
123	123	1
89	90	1
99	100	1
126	127	2
48	120	1
114	116	3
79	81	1
33	33	1
78	93	1
3	30	1
129	129	1
