84	84	5
17	34	2
131	132	3
104	105	8
122	122	12
4	36	4
95	95	5
131	145	3
131	131	5
7	9	4
66	66	1
90	90	13
73	80	1
96	96	8
132	133	5
146	147	6
105	105	6
127	129	2
133	133	3
8	8	6
3	38	1
3	3	5
51	51	4
92	92	3
39	39	12
43	43	8
33	33	5
118	118	6
63	70	5
137	137	2
81	81	10
21	22	3
116	116	3
22	22	4
24	24	3
67	67	3
69	71	4
133	138	3
41	41	5
148	158	3
64	65	2
106	106	9
135	137	1
23	23	3
82	82	6
91	91	6
37	37	10
93	93	8
111	121	3
65	65	4
104	104	3
68	68	10
144	144	7
153	153	4
127	127	1
107	107	5
72	72	1
151	151	1
147	150	1
12	12	5
130	132	2
16	16	9
35	37	9
18	34	2
135	135	2
56	56	9
108	110	5
15	17	1
117	152	1
6	6	3
99	99	6
77	81	5
44	44	5
70	70	8
23	82	4
89	89	3
8	93	3
8	10	2
62	62	3
150	150	2
117	117	11
146	146	5
130	131	4
42	42	3
145	146	3
87	89	4
91	92	2
21	21	3
131	142	1
28	28	4
87	87	7
112	123	4
13	13	8
38	38	6
124	124	5
152	152	6
84	85	2
79	84	2
35	71	2
156	156	1
121	121	5
107	128	1
40	56	2
9	88	1
132	132	4
86	86	9
114	119	2
14	14	4
12	13	1
100	100	9
155	155	8
97	97	3
145	147	1
88	88	1
113	122	3
20	41	4
82	83	4
142	142	7
36	37	1
133	142	7
115	144	3
118	143	3
144	145	3
23	77	2
48	48	1
73	73	3
154	157	3
103	103	9
113	114	2
125	125	5
20	37	4
128	129	4
120	120	3
114	114	1
0	1	1
8	13	1
130	130	7
143	143	1
134	139	1
85	85	5
126	126	3
67	71	4
52	52	2
145	145	3
10	12	2
106	128	1
26	26	1
20	38	1
40	41	1
131	144	1
77	86	1
3	37	2
22	23	1
71	71	9
106	127	2
148	150	3
1	1	4
85	86	5
32	32	2
154	154	7
47	47	3
2	6	3
67	70	1
69	69	4
112	141	2
18	18	3
101	102	1
148	153	2
29	29	2
22	38	2
54	54	2
142	147	2
63	63	2
27	28	5
83	84	3
3	67	3
129	129	3
109	114	2
49	55	1
140	140	3
34	35	1
75	75	3
79	79	3
133	140	1
151	155	2
34	71	4
36	84	1
27	27	2
77	80	1
139	139	1
77	78	2
54	55	3
125	126	1
80	80	4
24	80	3
120	144	4
52	56	1
117	146	2
158	158	2
155	157	1
1	32	1
20	22	2
16	25	2
43	44	1
50	51	1
15	15	1
136	137	2
111	111	1
2	2	1
31	32	2
19	19	1
5	5	2
30	30	4
64	70	1
114	131	1
14	18	1
148	148	4
131	133	1
88	89	1
101	101	2
10	13	2
50	53	1
20	20	1
149	158	1
11	33	1
141	141	1
109	120	2
83	83	2
157	157	1
69	87	2
20	23	1
112	121	1
24	83	2
114	132	1
151	152	1
13	17	1
42	45	1
9	9	1
111	112	1
13	14	1
114	115	1
108	108	1
94	95	1
113	140	1
25	81	1
46	47	1
90	91	1
129	130	1
17	18	1
34	34	1
128	128	1
