167	167	3
155	155	7
127	127	19
96	96	4
86	86	7
103	104	4
161	161	8
153	154	5
173	174	3
6	6	7
114	115	2
24	24	17
90	90	9
179	179	8
107	107	8
171	171	8
79	79	12
125	126	5
85	85	7
163	163	4
126	127	3
133	133	3
4	4	9
32	35	2
77	77	17
144	146	4
129	130	3
29	95	3
147	147	10
32	33	6
142	152	3
130	130	4
33	33	11
54	54	1
81	81	8
88	113	2
58	59	2
66	67	5
84	84	4
17	41	3
93	93	5
16	16	5
56	73	10
12	12	12
140	140	13
6	20	1
2	2	8
10	14	2
120	122	2
167	168	8
157	157	9
17	17	6
111	111	9
145	145	9
134	134	4
64	64	11
26	27	2
79	80	9
10	10	16
31	33	5
72	72	7
32	32	2
38	38	5
63	63	4
143	165	2
165	165	6
65	93	4
102	130	3
76	76	5
139	139	7
95	96	3
56	57	6
55	55	2
146	146	6
168	179	2
158	158	8
135	136	4
115	115	3
33	34	5
75	75	3
154	179	4
164	165	2
129	129	4
53	53	9
94	94	3
138	139	2
31	31	8
156	156	2
138	138	8
102	102	3
5	6	5
142	142	4
52	53	8
89	109	4
154	154	3
59	59	10
132	132	16
109	109	10
11	12	6
166	166	1
120	123	2
103	105	7
78	78	5
162	166	1
1	1	4
111	112	5
87	87	5
30	30	6
110	110	1
144	145	3
123	123	7
161	163	2
50	50	7
55	56	7
134	145	4
176	176	18
149	149	18
36	37	8
93	94	1
29	30	4
31	70	3
5	5	5
177	177	5
34	34	8
136	136	4
17	18	2
125	125	7
66	66	6
41	41	2
146	151	3
114	114	12
31	36	1
113	113	6
61	63	2
44	44	9
60	84	1
63	83	2
37	37	2
67	67	7
108	108	5
36	36	5
92	92	11
106	107	2
71	71	12
111	114	3
66	68	3
95	95	9
141	142	4
34	36	1
162	162	8
131	131	4
54	74	3
84	85	2
167	169	3
57	73	2
38	41	2
119	119	3
64	65	1
159	159	12
164	164	8
78	80	2
152	152	5
67	68	1
120	121	2
101	101	10
106	106	4
89	90	4
102	128	5
82	82	3
110	111	2
65	66	4
51	52	2
60	60	14
159	161	1
106	108	7
15	148	1
78	79	4
23	23	2
115	118	2
23	24	6
150	150	5
25	26	3
151	151	3
18	21	2
103	106	4
111	113	5
160	162	3
26	26	3
59	84	2
174	174	4
27	27	5
159	175	5
16	17	1
13	13	2
53	54	1
68	68	13
130	131	5
126	129	2
102	105	1
115	116	5
167	171	1
15	42	6
163	173	3
162	171	2
162	163	1
40	41	3
116	116	8
112	112	4
58	58	6
126	126	9
2	10	1
137	138	2
8	8	6
131	132	4
136	137	4
59	87	4
74	74	5
76	77	1
154	167	2
103	103	6
61	61	2
165	166	5
105	105	2
173	173	2
159	167	2
101	102	2
42	42	10
83	83	5
172	172	6
89	89	4
34	134	3
175	175	5
57	57	4
21	22	3
144	144	10
60	61	5
71	72	1
38	39	1
66	92	1
155	168	1
122	123	3
180	180	5
22	22	2
58	68	2
91	91	6
168	168	5
35	134	3
53	56	3
29	29	2
87	89	2
30	66	2
28	31	2
27	28	3
117	118	1
171	172	2
123	124	4
9	9	3
64	76	4
80	82	2
43	43	5
109	110	1
103	120	1
160	160	3
141	141	6
143	143	2
158	159	3
155	156	3
73	73	4
22	24	3
169	169	5
50	53	1
4	5	1
30	67	3
31	132	1
52	52	2
11	14	2
6	8	1
6	7	1
108	115	1
122	122	3
5	32	1
98	98	1
166	167	4
97	144	2
121	121	2
13	14	1
24	25	3
20	43	1
160	175	1
95	99	1
109	114	4
40	40	1
170	170	3
157	158	1
105	129	2
56	56	1
87	88	3
137	137	2
7	8	5
124	125	1
25	25	2
62	62	2
124	143	1
3	3	5
14	14	1
27	96	1
145	146	3
70	71	3
102	103	1
2	3	2
51	53	1
99	99	2
133	137	5
155	167	3
42	43	2
151	162	3
18	18	1
65	67	1
169	170	1
167	179	1
88	88	2
43	44	2
37	97	1
100	101	1
178	178	3
95	131	1
123	128	1
97	97	2
139	140	1
22	25	2
28	30	2
15	16	1
11	42	1
160	170	1
123	125	2
116	117	2
35	35	2
81	82	1
160	169	2
3	5	1
147	148	2
91	92	1
16	148	1
90	91	1
34	96	1
134	135	1
33	36	2
108	109	2
149	172	1
104	105	1
148	148	2
162	170	1
117	117	1
0	0	2
10	12	1
159	170	2
120	120	1
3	6	1
101	130	2
147	163	2
154	155	1
40	50	2
15	172	1
121	122	1
50	51	1
39	39	1
172	173	2
7	9	1
50	73	1
85	88	1
26	28	1
88	89	1
0	1	1
35	36	1
41	43	1
128	128	1
26	33	1
67	95	1
15	15	1
65	65	1
