49	49	9
237	237	22
8	9	5
98	98	12
34	50	4
203	203	15
20	20	5
61	61	11
220	220	11
17	45	3
235	235	7
56	56	3
101	101	15
15	29	4
15	15	17
151	230	5
87	89	5
147	147	2
226	226	3
157	158	1
169	169	7
199	199	5
112	112	11
212	212	15
225	226	9
162	162	11
42	42	7
9	9	10
37	37	10
154	155	4
50	55	11
171	248	3
241	241	7
113	114	9
224	224	6
115	118	2
186	186	4
103	104	4
54	54	9
87	90	4
195	195	8
156	156	13
83	83	7
59	59	5
26	26	8
70	176	4
50	111	5
93	94	2
202	202	7
2	2	3
208	208	6
4	4	8
31	32	2
74	76	7
82	84	7
180	180	13
80	247	3
157	198	5
53	53	4
244	244	4
194	194	12
231	231	7
68	241	4
19	29	1
28	28	10
67	98	2
34	111	4
179	184	3
164	171	2
229	229	1
79	84	3
165	170	3
78	78	8
168	232	2
204	207	3
116	116	2
68	98	1
32	32	4
78	79	3
80	81	3
191	192	5
168	169	4
154	208	2
175	175	4
155	155	7
12	12	3
197	197	7
74	75	9
64	107	8
65	101	3
50	110	6
74	74	12
184	184	3
24	24	8
182	184	5
25	26	3
107	107	2
157	193	1
69	69	10
164	164	4
24	25	10
216	217	7
153	153	3
173	238	3
32	41	4
231	233	5
222	223	3
210	210	4
88	89	2
81	81	6
5	49	5
82	85	3
96	96	4
76	76	7
67	67	8
158	158	10
110	117	1
68	68	15
79	79	15
65	65	3
242	242	10
109	109	7
82	82	10
37	149	1
108	108	5
177	177	6
205	205	7
230	230	7
110	111	1
29	31	1
29	29	10
210	211	1
161	182	3
224	226	4
51	52	5
115	116	4
81	82	1
119	119	9
14	14	8
167	167	6
216	216	16
5	5	4
158	198	1
234	234	10
191	191	11
223	224	2
182	185	3
28	29	2
30	30	7
47	75	4
69	70	10
221	221	4
2	3	2
245	245	4
21	21	6
215	215	3
157	233	4
54	55	5
198	198	9
194	196	1
190	190	11
58	58	6
14	37	2
17	18	2
181	181	8
217	219	5
27	27	7
196	196	4
81	85	3
191	193	5
31	31	2
247	247	5
172	172	5
182	186	3
94	94	9
65	105	2
87	88	8
228	228	6
102	102	10
51	51	4
174	174	5
84	85	2
36	36	3
7	7	3
232	232	5
95	98	4
240	240	3
193	193	2
7	47	2
92	100	2
173	173	15
92	99	2
184	185	1
76	185	3
191	231	4
162	163	10
50	51	3
4	49	1
99	99	5
72	77	1
62	62	7
204	206	5
42	43	2
60	223	1
53	81	2
89	90	8
163	163	6
67	81	4
17	20	1
4	11	3
92	93	3
154	154	3
185	185	4
187	189	2
169	232	3
19	20	5
102	106	1
64	64	8
233	234	4
211	212	2
95	95	5
206	207	3
8	47	3
203	204	1
35	35	6
179	245	3
73	73	4
95	97	1
48	48	6
43	43	5
96	97	5
157	157	13
200	237	2
62	63	2
244	246	3
189	189	8
200	200	5
63	63	7
98	99	3
19	19	5
166	166	16
58	221	3
212	215	1
114	114	8
111	111	10
67	80	4
165	233	2
187	188	7
88	88	10
80	80	5
180	181	2
165	165	3
85	103	1
188	232	2
185	186	6
10	10	6
99	101	2
236	236	2
66	95	2
46	46	1
213	213	3
72	72	2
85	85	9
78	246	1
240	241	4
21	23	6
145	149	2
16	16	6
66	106	2
75	77	1
97	97	9
215	217	5
151	151	6
95	99	1
238	240	3
92	92	6
182	182	5
248	248	2
100	101	2
168	168	6
112	222	1
196	197	4
87	87	3
201	201	7
160	185	3
17	21	3
86	104	6
154	232	7
238	238	7
71	74	1
183	183	10
219	219	8
90	90	8
204	210	4
118	118	3
156	234	1
191	194	4
178	179	3
44	44	5
170	233	2
209	211	2
3	30	1
65	108	4
213	214	2
211	211	6
60	64	4
217	217	4
117	223	2
77	77	2
8	8	4
115	115	1
32	44	3
34	35	3
18	39	1
209	209	10
23	23	7
94	95	4
5	58	3
152	222	4
218	219	6
184	186	2
7	51	5
145	145	5
29	38	6
193	234	2
153	228	1
194	195	6
105	105	3
101	107	2
30	47	2
120	224	3
41	41	4
119	120	1
198	237	1
38	38	6
47	47	8
48	49	1
6	6	3
68	242	2
212	218	6
8	110	1
36	74	2
106	106	6
34	34	6
163	234	4
71	71	7
231	232	4
34	48	2
49	56	1
214	215	7
39	46	2
62	118	6
43	44	2
52	52	4
206	206	2
246	246	3
16	17	5
204	204	5
151	179	4
80	84	1
239	239	4
78	244	2
9	10	3
70	70	3
91	92	1
244	245	2
197	199	3
207	229	3
149	149	2
197	234	5
108	109	1
39	230	1
68	175	1
190	204	2
199	200	4
157	196	4
11	11	3
170	170	2
96	98	3
78	243	5
152	229	2
218	218	4
193	235	1
18	19	2
17	25	2
233	233	1
50	56	2
215	228	2
22	22	9
208	209	4
60	60	6
1	1	2
105	106	4
173	240	2
13	14	1
40	46	4
50	50	1
32	33	1
45	45	3
163	165	2
59	60	4
104	106	2
15	26	1
33	35	1
59	222	1
100	100	5
66	66	2
10	11	1
152	152	2
37	152	1
152	209	1
243	243	2
96	231	1
160	182	1
57	221	3
49	50	2
56	57	1
84	84	2
192	195	1
59	118	1
153	161	4
36	178	1
27	28	4
188	188	1
26	45	2
117	117	2
118	223	1
77	244	3
18	18	6
9	11	2
120	120	3
75	75	4
56	71	2
15	38	1
14	20	1
171	185	1
33	33	2
1	2	1
18	20	1
31	46	2
106	107	2
159	159	6
30	74	1
225	225	3
104	104	2
160	181	1
160	162	2
191	233	3
165	169	2
196	198	2
223	223	3
183	184	1
176	176	1
55	55	3
173	241	3
102	108	2
52	53	1
117	224	2
4	5	1
37	207	2
106	108	1
177	181	4
165	192	2
11	113	1
150	150	3
37	38	1
68	70	1
86	99	2
110	114	1
48	74	2
152	208	2
199	236	1
162	184	2
153	154	1
58	112	4
4	30	2
58	222	2
5	48	1
160	163	4
160	171	2
64	65	1
22	23	1
72	245	1
194	234	1
144	150	2
113	144	1
64	109	1
223	247	2
40	40	1
187	187	1
93	93	1
57	58	1
169	171	1
88	91	2
159	176	2
160	160	1
190	191	1
8	109	3
171	171	2
226	227	1
156	235	1
159	182	3
212	214	2
158	174	1
34	43	1
192	192	2
55	58	1
66	98	1
193	197	1
71	246	1
95	100	1
207	207	1
209	214	1
65	107	1
25	25	1
238	239	1
10	110	1
212	219	1
118	222	1
197	198	1
214	214	1
81	247	1
177	234	1
