123	123	33
19	19	27
130	130	30
96	99	3
37	37	52
89	91	8
18	18	36
88	120	1
105	105	51
128	128	50
139	139	50
134	134	39
121	122	8
133	133	47
31	31	33
71	72	21
74	74	38
124	124	37
137	139	6
109	118	3
98	99	8
135	135	28
33	130	9
101	123	7
75	75	43
15	15	17
81	81	39
82	82	28
98	98	30
39	39	3
102	102	16
16	17	16
11	11	25
109	110	10
87	87	35
131	131	25
92	92	31
89	113	6
16	16	45
11	18	9
22	22	25
106	106	36
22	24	2
97	97	31
116	116	25
16	80	5
139	140	6
35	35	33
29	29	26
89	89	39
3	13	6
20	102	2
25	25	26
118	118	27
140	140	49
27	28	22
104	104	28
88	89	6
18	19	5
8	8	39
83	83	21
138	138	31
10	35	4
100	100	20
77	77	33
113	113	25
110	110	31
26	26	30
118	119	15
80	81	1
94	94	27
0	0	28
2	3	8
106	120	2
112	112	41
73	73	32
76	77	8
2	28	1
78	86	12
85	85	36
82	94	2
83	84	3
95	95	52
75	82	1
7	7	54
1	2	5
127	127	49
116	117	14
85	93	2
79	80	17
117	123	10
91	91	20
17	17	29
101	102	11
114	127	4
87	88	8
132	132	44
22	23	17
109	109	41
131	132	13
103	104	9
93	93	32
3	15	4
137	138	16
5	5	27
12	12	52
101	122	2
4	4	28
101	101	36
92	94	2
9	9	21
115	116	9
36	36	46
125	125	23
2	2	36
122	122	44
129	129	38
111	111	29
136	136	46
21	21	27
118	121	3
114	114	38
72	72	33
103	103	36
32	35	5
19	27	2
99	99	15
32	32	25
86	88	5
0	1	8
26	27	8
84	85	4
78	85	6
79	79	23
2	31	5
30	106	7
116	124	5
128	130	1
103	119	2
1	1	31
90	90	27
10	11	19
104	106	1
94	95	11
97	127	4
82	140	2
88	88	22
86	86	31
123	124	5
27	27	37
74	91	3
129	130	16
121	121	22
88	117	8
6	14	3
33	33	27
18	38	3
101	124	3
99	132	3
78	78	17
30	30	26
120	121	2
8	9	7
19	20	5
2	18	4
20	27	2
34	34	39
78	79	9
16	128	4
95	102	2
16	37	5
28	28	22
84	89	1
31	33	7
11	13	4
89	90	27
7	8	24
106	107	1
6	6	34
117	118	13
74	77	2
20	20	34
86	113	4
0	16	3
77	78	11
108	108	25
14	14	35
137	137	20
9	12	2
114	115	11
6	35	3
13	129	2
95	131	1
74	115	3
119	119	9
37	38	16
74	75	11
92	93	7
38	38	30
5	124	1
114	116	2
95	103	3
90	91	18
88	100	1
133	135	1
100	108	6
25	71	2
4	96	2
13	13	16
96	96	17
0	37	4
23	72	3
26	29	2
125	126	8
13	14	6
71	71	16
30	31	17
117	119	5
115	115	34
76	76	30
36	131	3
77	80	2
11	12	11
14	16	4
106	111	3
65	78	1
13	114	1
99	100	1
18	21	2
110	111	9
138	140	4
32	36	3
117	117	25
124	126	2
20	21	11
21	72	1
33	108	3
126	126	35
33	34	8
109	112	2
109	115	7
28	83	2
72	73	13
2	13	8
99	115	6
117	120	4
81	94	6
113	114	9
83	121	6
132	133	7
24	24	21
18	20	8
102	116	2
0	99	5
34	129	2
107	109	3
66	113	1
86	137	5
80	80	26
18	22	5
36	37	5
72	93	4
3	75	4
26	126	3
12	15	3
8	16	5
79	83	1
27	33	5
25	26	4
133	136	2
81	93	6
17	21	2
86	90	4
105	107	10
127	128	13
77	79	5
28	75	3
32	33	4
34	86	2
6	79	5
98	115	3
100	101	1
96	98	2
104	105	9
108	109	13
27	37	4
119	121	8
16	92	3
99	103	2
75	90	1
77	101	1
125	128	4
1	9	5
84	84	29
8	27	2
73	74	14
104	122	1
79	100	1
108	114	1
23	23	13
19	22	6
7	14	5
81	115	8
75	79	2
108	111	4
15	16	9
102	103	2
10	10	16
119	122	2
134	135	5
6	36	1
87	111	3
97	99	3
90	114	8
23	24	6
76	120	5
135	136	1
12	13	4
128	129	14
120	120	20
95	96	7
20	105	4
21	38	2
17	18	9
8	26	1
73	126	3
103	110	2
21	22	14
16	20	2
37	126	2
85	86	7
20	109	9
101	109	2
16	27	4
34	35	6
35	36	7
112	113	7
109	114	2
5	8	1
13	78	3
84	113	7
78	106	2
100	117	1
75	123	2
0	24	3
25	95	2
108	115	2
24	25	6
76	112	2
103	109	3
24	26	5
105	106	5
94	114	4
84	104	3
4	5	2
107	107	10
89	130	2
9	10	2
127	129	5
84	114	3
1	100	2
3	3	22
27	30	2
3	4	14
2	4	1
72	90	1
120	122	7
112	123	1
76	78	5
81	107	3
15	17	2
18	23	4
90	133	1
126	132	2
95	115	1
37	95	4
33	37	3
1	29	2
138	139	5
81	82	5
1	22	1
127	130	1
2	16	1
36	38	6
126	127	3
88	113	1
28	29	5
8	14	2
86	96	2
72	126	3
3	5	3
0	23	1
100	116	3
100	123	1
8	115	4
17	80	1
25	27	1
111	112	9
101	114	1
71	96	1
71	100	2
6	7	4
20	31	3
103	124	2
24	28	2
38	111	6
136	138	1
21	71	1
98	103	1
0	101	1
3	11	1
78	80	1
100	113	1
101	108	2
84	111	1
81	85	11
82	92	2
29	30	6
29	81	1
27	34	3
87	89	4
93	95	3
34	99	2
17	25	1
131	133	4
95	97	3
38	114	1
18	27	2
7	9	6
104	112	1
71	94	2
130	131	7
96	97	3
17	19	5
72	129	1
83	93	2
105	111	4
118	120	5
117	122	2
76	121	3
6	8	4
82	85	3
69	69	2
17	133	3
79	89	3
84	87	4
93	101	1
29	31	3
82	103	4
30	32	2
78	82	2
26	28	1
133	134	1
134	136	2
5	6	5
7	78	1
108	110	1
118	122	3
8	20	1
0	18	1
17	24	3
119	120	6
73	75	2
89	129	1
16	23	3
81	86	3
6	80	2
134	140	2
73	107	2
23	75	4
97	98	4
7	30	2
71	111	3
93	94	4
3	8	2
124	125	1
109	113	1
76	105	1
75	122	2
36	83	1
26	30	1
1	27	2
13	36	1
3	9	1
6	10	1
72	131	1
24	71	2
29	32	3
8	12	1
0	100	1
127	132	1
27	74	4
12	124	1
34	37	2
33	36	2
91	92	1
85	105	1
20	110	1
85	87	3
102	114	2
106	109	1
84	103	2
102	109	2
82	83	2
70	71	1
92	131	1
98	129	2
122	123	5
84	101	1
73	110	1
0	124	2
4	35	1
21	104	1
104	107	2
13	113	3
71	74	1
88	112	1
38	68	1
87	94	2
14	15	4
73	78	2
85	103	1
23	115	1
11	19	1
71	81	2
79	81	1
0	2	2
20	28	2
14	79	1
72	115	6
73	119	3
96	100	1
75	103	2
72	114	2
77	103	2
20	107	1
112	119	2
103	113	1
71	73	3
81	133	1
24	82	1
28	73	2
28	34	1
84	102	1
137	140	1
87	138	2
20	80	4
74	76	1
6	17	1
78	92	4
91	93	3
73	92	2
78	87	1
97	102	1
31	32	1
3	92	1
100	102	1
89	106	1
18	24	1
6	97	1
107	120	1
100	124	1
1	5	2
107	108	1
30	93	1
35	88	2
14	17	2
21	28	1
11	117	1
2	32	1
33	35	1
116	118	1
104	110	1
103	105	1
88	95	1
85	120	1
72	107	1
68	82	1
124	130	1
9	11	1
101	103	1
123	126	1
100	120	2
96	102	2
71	75	2
31	102	1
2	90	1
8	114	1
2	8	1
71	110	1
33	110	1
5	31	1
0	20	1
13	24	1
85	112	1
88	90	1
3	6	1
81	83	1
80	90	1
13	124	1
15	22	1
98	100	1
27	29	1
14	101	1
1	121	1
95	107	1
80	115	1
90	99	1
21	27	1
82	93	1
35	131	1
106	137	1
66	82	1
102	119	1
100	112	1
103	114	1
