87	90	2
48	48	4
2	23	1
99	99	6
118	118	2
83	83	7
111	112	2
76	76	8
100	100	2
148	148	2
97	100	1
51	51	6
15	17	1
84	84	4
152	153	2
49	51	4
91	91	1
79	79	6
12	163	4
128	128	11
17	17	12
4	64	2
146	166	1
69	70	6
136	136	7
33	34	2
14	88	3
13	163	4
4	4	6
16	16	11
83	94	4
18	18	11
43	43	7
134	134	2
108	108	6
1	2	1
141	141	10
2	2	5
147	148	4
113	114	3
130	130	5
18	24	2
89	150	2
160	160	7
88	89	10
130	131	2
126	127	1
89	89	2
117	118	3
158	159	3
12	12	2
99	106	8
100	101	3
71	120	3
143	143	1
93	94	2
1	40	1
81	81	4
53	53	4
18	27	1
57	146	4
8	169	6
58	87	2
106	106	16
38	38	3
41	41	6
15	15	9
127	127	4
100	105	1
83	85	3
11	11	3
95	96	3
137	138	2
82	83	2
121	121	5
135	135	6
137	137	7
157	157	6
23	23	4
76	128	1
9	10	3
72	75	3
126	129	4
133	133	2
88	163	2
9	9	2
126	128	2
62	63	3
39	39	4
110	110	3
16	17	2
92	104	1
162	162	1
104	104	7
84	94	2
35	35	5
139	139	5
87	87	6
125	125	6
13	13	2
132	132	2
150	150	1
112	112	8
103	160	3
70	70	4
101	101	3
56	56	3
65	65	2
74	74	6
40	40	3
18	19	1
142	142	4
109	109	1
105	106	2
140	145	1
70	130	3
39	41	3
67	68	1
107	107	3
45	46	2
90	90	4
49	49	2
123	123	6
90	108	1
47	47	2
144	144	2
19	25	1
145	146	1
81	88	3
1	38	1
163	163	3
149	149	5
117	117	2
118	119	2
23	38	1
34	34	2
164	165	1
18	39	1
0	2	1
156	156	4
164	164	2
63	65	3
116	116	2
86	86	1
111	111	2
128	129	1
166	166	1
157	158	2
13	14	1
146	146	2
91	92	1
159	159	2
14	14	2
165	165	3
25	25	1
124	125	1
119	119	1
25	138	1
120	120	1
84	96	1
7	167	1
44	46	1
2	126	2
91	161	3
21	21	3
44	44	1
7	8	1
18	20	1
21	129	3
75	75	1
0	0	4
150	158	1
11	12	1
119	120	1
163	164	2
3	4	1
94	95	4
7	7	2
52	52	2
111	114	1
20	21	1
45	50	1
132	133	2
79	80	1
57	58	1
63	63	1
37	139	2
131	131	1
20	20	1
26	26	4
43	111	2
78	78	2
103	159	1
104	159	1
10	10	1
161	161	2
149	159	1
98	99	1
17	138	1
88	90	1
75	76	1
153	153	1
118	122	1
108	110	1
77	77	1
47	49	1
24	25	1
24	24	1
94	94	1
