98	99	7
24	26	5
69	73	1
84	87	2
120	120	6
124	126	1
3	8	2
88	91	1
80	82	1
43	49	5
46	49	1
32	33	4
91	106	2
49	50	1
25	25	1
59	60	1
49	49	1
29	29	4
127	127	6
120	124	3
83	86	2
0	70	2
29	33	2
62	82	3
1	1	4
14	14	2
45	48	1
73	79	3
100	104	4
21	22	1
42	43	2
77	77	3
13	15	3
54	54	4
120	131	1
68	71	1
41	44	2
56	56	8
50	53	3
47	52	4
39	46	1
28	34	2
79	95	1
124	124	2
73	73	4
19	25	1
124	125	6
5	17	2
31	33	3
41	48	1
60	60	3
70	92	2
88	88	9
27	28	11
10	41	1
71	74	1
119	119	2
47	53	3
1	40	1
106	110	2
40	46	2
46	46	6
6	20	4
117	117	7
115	116	1
87	88	5
78	78	2
40	41	2
104	105	3
60	63	4
65	72	4
9	9	6
14	23	2
67	73	1
89	95	5
33	34	3
9	14	3
27	27	2
115	118	3
85	88	4
6	9	2
98	123	1
81	95	4
122	128	9
75	75	6
50	50	1
58	69	1
116	116	10
5	11	1
85	91	3
105	112	4
41	41	2
44	44	4
112	123	1
97	106	2
28	31	2
42	64	2
3	4	7
70	71	11
90	118	2
79	80	4
22	71	3
50	70	2
124	128	6
86	87	3
69	106	3
38	64	4
59	62	2
9	12	4
94	99	5
17	17	1
48	56	4
72	82	1
44	49	4
109	113	3
112	112	5
7	7	3
74	91	3
15	18	2
85	85	2
91	99	2
32	34	4
47	56	2
26	26	9
115	117	2
25	39	4
115	121	5
39	52	1
88	89	1
103	113	4
38	46	2
126	132	3
90	92	1
70	70	6
2	5	1
103	108	2
105	129	1
11	28	2
4	28	1
88	102	1
84	97	1
99	102	2
100	114	3
84	108	1
22	22	5
106	130	1
127	128	2
89	89	2
33	33	8
60	71	2
62	101	6
96	99	5
129	129	8
110	110	3
86	107	2
110	132	3
95	100	1
120	126	1
121	121	1
101	103	4
20	23	3
52	55	1
98	100	2
14	28	1
112	117	1
72	73	2
12	28	4
125	126	2
19	29	2
73	74	5
1	2	1
104	113	1
10	15	4
19	19	1
63	69	6
101	105	2
102	112	3
65	65	3
61	72	4
51	51	2
122	133	3
86	90	4
81	114	3
125	125	4
82	109	3
39	43	10
27	29	1
7	11	4
30	30	2
57	77	5
45	63	1
6	6	2
79	85	2
44	45	5
119	120	3
124	131	1
8	11	1
18	50	1
21	27	2
109	109	1
118	133	1
117	119	1
29	31	3
32	32	3
104	104	5
58	58	3
66	74	2
45	61	2
72	92	3
38	43	5
10	11	3
89	90	2
112	122	2
55	67	3
80	83	3
92	93	1
79	86	1
79	81	1
98	98	1
78	83	3
38	67	3
86	103	2
24	25	2
113	114	3
56	83	1
67	94	2
46	66	3
112	118	2
71	81	1
38	38	1
48	48	1
3	55	3
128	128	2
90	97	1
66	66	4
39	51	3
45	49	3
51	56	3
122	124	2
97	121	2
56	57	2
98	129	1
97	97	3
11	14	1
100	101	1
122	126	2
17	24	2
122	122	5
38	47	5
68	79	3
64	64	2
45	60	1
52	53	2
87	103	2
111	130	2
121	122	2
1	5	1
56	62	2
75	76	1
69	76	2
89	106	1
77	95	1
13	13	2
125	131	2
68	89	1
67	74	3
58	59	4
53	53	3
67	69	1
106	106	4
18	19	2
29	30	2
64	72	1
72	72	3
67	72	2
125	128	1
60	65	2
101	112	2
4	4	4
9	23	2
133	133	2
78	93	2
104	130	1
88	90	1
68	68	4
11	23	1
69	82	1
74	76	2
115	120	1
65	66	3
61	68	2
63	76	2
30	32	1
21	21	2
72	75	3
4	13	1
76	78	2
15	21	1
48	82	1
64	66	1
41	91	4
24	39	1
124	132	3
51	69	1
92	94	2
94	96	3
72	74	3
114	119	1
110	118	4
51	71	1
107	128	1
2	3	1
102	102	4
106	108	1
0	0	3
79	96	1
4	6	3
130	131	1
14	15	4
71	71	1
92	116	1
78	80	2
48	50	1
67	68	1
104	121	4
131	131	1
126	128	1
100	100	1
103	105	2
59	65	1
62	63	1
15	15	1
60	84	3
72	76	2
85	86	1
95	96	1
75	77	2
69	69	2
6	7	2
76	76	2
22	23	4
88	95	2
44	46	3
94	95	1
11	11	1
123	128	1
23	23	1
60	110	1
41	47	1
55	59	3
98	107	1
115	124	3
103	103	4
49	114	1
122	123	1
76	77	2
130	130	3
29	40	1
12	13	2
79	79	1
70	85	1
8	12	1
18	20	1
34	38	2
123	124	2
101	102	1
40	40	1
129	132	1
130	133	1
66	69	1
15	23	1
110	119	1
31	31	1
75	79	1
39	40	1
85	87	1
95	98	2
41	51	1
25	57	1
21	23	1
49	77	1
12	26	1
43	47	1
95	118	1
7	27	1
47	84	1
85	89	1
20	40	1
62	64	1
2	9	2
104	108	1
109	119	1
45	45	1
10	28	1
93	93	1
0	3	1
16	66	1
110	117	1
39	49	2
69	72	1
99	99	1
71	87	1
82	90	1
116	126	1
114	114	1
39	41	3
11	13	1
19	20	3
16	16	1
121	123	2
109	129	3
4	5	1
108	108	1
124	129	1
53	55	1
86	95	1
119	127	1
17	51	1
55	55	1
