91	92	3
99	99	7
24	31	2
50	50	5
56	68	7
71	87	5
102	102	3
101	106	2
75	75	7
71	71	4
105	108	5
105	105	5
52	53	5
77	88	3
68	68	1
21	21	4
76	76	4
85	99	2
22	23	4
61	72	1
41	41	2
78	86	2
83	94	4
75	86	1
98	101	3
50	51	2
46	49	1
34	34	9
32	43	1
46	48	3
67	69	3
91	103	1
109	114	3
66	69	2
95	95	8
60	60	12
93	94	2
25	26	1
64	65	1
76	80	2
81	89	1
27	27	4
57	67	1
32	32	6
85	85	8
57	57	4
77	77	5
39	39	1
101	110	4
109	109	8
86	86	5
70	70	5
40	40	10
22	24	3
28	28	4
63	81	2
41	42	4
36	38	3
46	46	5
101	109	2
55	67	1
55	58	2
61	61	1
110	111	1
86	89	2
42	95	4
22	22	2
111	111	2
101	102	2
90	91	4
52	52	1
61	63	2
35	48	3
35	35	1
26	34	4
96	99	3
66	70	8
73	73	9
56	57	1
81	81	1
48	48	3
105	107	1
37	49	2
103	106	2
38	39	4
44	44	7
67	68	2
97	98	3
31	31	3
60	111	2
78	78	1
65	67	1
19	22	4
26	27	4
36	36	9
26	29	1
88	88	6
99	100	3
33	33	4
66	74	3
30	35	3
112	113	3
29	29	2
49	49	3
30	32	2
54	60	1
53	62	3
101	113	2
30	36	4
82	83	1
56	56	5
89	94	1
107	107	5
31	32	2
19	19	1
30	43	2
27	30	3
103	104	8
78	94	1
63	73	1
60	67	2
81	82	2
26	26	1
72	84	2
42	42	2
92	92	2
90	90	3
85	88	1
38	38	1
44	51	2
45	45	2
55	55	1
60	64	1
36	37	3
51	62	2
39	48	2
80	84	2
53	53	4
58	58	1
112	112	1
61	62	2
21	22	1
43	43	2
80	94	1
74	74	1
72	88	1
81	91	2
106	112	1
79	82	1
20	54	2
37	37	4
24	24	1
74	75	3
42	48	1
36	44	1
25	27	3
44	45	1
99	103	1
48	60	1
48	50	2
23	25	1
51	51	2
105	106	1
51	52	2
87	91	1
93	93	2
40	41	1
45	51	1
64	64	1
86	87	3
93	96	2
108	108	1
75	82	2
71	76	1
19	30	3
97	97	4
83	83	3
59	59	1
80	80	1
67	67	3
66	67	2
66	72	1
80	82	1
69	69	1
75	76	1
103	103	1
103	112	1
71	83	2
80	95	1
95	100	1
32	33	1
37	71	1
83	88	2
65	65	1
59	67	2
82	94	1
99	114	1
90	95	1
109	110	3
40	51	2
64	74	1
102	112	1
73	86	1
113	113	1
77	78	1
104	111	1
55	66	1
43	44	1
43	46	2
63	63	1
86	102	1
93	97	1
45	46	1
73	74	1
111	113	1
