140	140	18
127	127	10
82	83	8
90	153	3
105	105	29
117	117	31
133	133	35
133	134	11
20	21	13
53	53	39
72	73	27
93	93	34
147	149	2
29	30	13
102	102	36
139	147	7
43	43	56
38	39	18
62	67	3
101	101	16
24	25	9
37	37	45
10	10	38
73	74	9
76	76	46
25	140	7
54	54	31
80	80	21
76	77	4
150	151	24
9	22	3
129	129	39
115	115	40
20	127	3
106	106	38
78	78	28
149	150	11
32	36	9
24	24	42
101	122	7
152	152	61
102	103	16
27	27	40
153	153	35
42	42	32
32	32	19
80	81	2
154	154	55
64	64	27
78	105	6
34	34	17
97	97	33
144	144	48
96	96	25
107	107	29
45	45	38
27	29	6
118	118	32
69	69	29
6	6	21
77	77	16
33	43	4
150	150	67
103	103	27
106	128	3
73	87	2
117	120	1
94	94	47
122	122	39
4	4	12
46	130	2
40	91	1
38	38	22
123	123	16
22	22	33
125	125	12
18	18	21
94	95	12
3	3	12
110	110	36
16	16	24
100	100	41
46	46	13
67	83	5
141	142	24
82	82	16
81	81	24
113	113	44
17	17	44
136	137	24
11	11	29
69	71	4
144	145	5
137	137	31
135	144	6
147	147	48
28	31	2
9	9	33
8	8	10
112	113	10
114	114	23
78	79	26
49	49	28
33	33	16
36	148	2
6	7	9
99	106	2
39	66	2
83	84	9
115	147	2
100	114	2
118	150	3
98	98	17
6	26	6
107	108	14
95	96	11
30	106	3
51	51	27
73	73	28
87	93	6
68	68	39
83	83	40
126	126	17
84	84	29
138	138	47
19	19	24
134	134	39
65	65	24
15	16	19
141	141	12
14	14	18
11	27	4
99	99	29
39	39	38
62	62	39
146	148	9
15	15	23
142	142	13
71	73	7
136	136	34
137	144	1
130	130	19
80	106	2
48	48	23
130	132	2
121	122	5
12	12	39
70	70	19
44	80	4
129	130	14
29	29	39
138	152	5
44	45	9
148	149	16
93	99	1
86	86	23
100	136	6
16	18	6
75	75	33
28	29	16
90	90	6
101	121	4
42	154	1
40	44	2
72	72	18
148	150	3
139	139	36
13	13	28
131	131	47
50	84	3
108	109	13
151	151	26
95	99	5
65	66	16
111	111	41
108	108	12
100	152	2
53	54	6
74	74	35
6	8	2
26	26	13
119	147	1
120	122	4
119	119	22
152	153	14
30	139	4
132	154	1
86	94	8
44	44	37
38	110	1
30	31	6
95	95	28
104	104	14
74	76	3
52	52	7
9	18	3
13	14	13
121	128	1
96	98	8
21	21	33
44	68	4
106	107	10
143	148	5
88	88	10
129	131	3
43	78	3
128	128	43
131	136	5
77	80	4
132	133	13
23	23	18
79	80	17
110	119	3
146	146	19
74	90	1
153	154	14
122	123	8
151	152	4
25	25	29
71	71	34
62	63	10
63	63	16
148	148	26
7	23	5
71	72	6
19	20	9
32	33	4
40	53	3
149	149	67
132	132	26
26	27	5
116	116	34
39	40	15
121	121	36
31	31	37
106	130	1
112	112	19
128	141	1
7	7	22
103	104	1
122	149	1
132	139	5
55	152	4
109	123	2
101	102	10
73	151	2
20	20	32
135	135	24
34	36	5
117	119	4
46	47	10
66	67	14
134	150	1
55	55	11
119	145	2
145	145	16
105	106	7
75	76	8
57	57	10
131	132	15
42	43	7
102	106	3
55	56	4
50	50	28
25	27	5
5	8	9
138	139	15
135	136	6
47	48	10
109	109	13
73	79	4
98	99	10
87	87	11
74	75	6
7	8	3
39	41	4
47	47	37
77	104	5
27	28	16
48	49	16
128	129	11
67	67	22
35	36	8
79	79	18
121	125	3
3	6	4
109	110	8
92	151	2
63	67	3
67	74	4
66	66	24
100	150	6
138	142	3
5	26	2
30	30	29
100	110	11
72	99	2
46	68	3
21	22	7
99	135	1
140	141	10
142	146	3
99	127	3
117	118	12
15	68	3
27	31	3
12	17	1
40	40	28
111	136	3
121	146	1
51	148	2
100	139	3
140	144	11
10	11	13
47	51	5
34	94	4
3	8	3
36	37	12
152	154	5
73	139	5
91	138	3
84	85	5
37	150	1
43	45	5
2	21	2
99	140	5
47	152	3
10	25	8
41	42	10
16	17	8
78	80	10
45	46	8
123	124	9
40	41	12
36	36	13
142	143	12
5	6	7
77	79	16
72	134	5
56	56	14
58	58	6
119	122	5
125	126	4
115	116	4
68	69	13
147	148	33
5	27	3
100	151	3
81	150	5
110	131	2
18	19	16
7	11	3
55	150	4
131	133	7
75	78	2
93	94	14
94	96	5
96	97	20
125	127	6
68	71	2
133	135	4
28	28	22
37	50	1
68	109	1
125	128	4
30	137	4
32	37	4
84	87	4
72	110	1
148	151	3
51	57	2
130	138	4
51	153	1
69	134	5
102	130	6
72	144	1
141	144	6
35	35	11
144	151	4
76	78	2
137	138	12
106	111	2
145	146	4
68	77	4
113	114	11
95	152	1
8	9	7
81	149	1
15	112	1
124	124	30
43	44	10
21	23	4
106	110	4
46	149	5
65	67	1
130	139	2
82	143	3
114	115	7
51	84	1
95	97	8
123	128	8
100	144	4
23	103	5
34	150	4
49	50	6
83	86	3
41	41	31
92	138	2
11	23	2
143	150	3
120	120	19
144	150	3
45	56	2
94	99	3
20	28	1
67	68	5
45	55	2
143	143	11
68	123	1
46	57	3
131	138	3
128	134	3
120	146	2
39	150	6
111	113	3
111	112	2
98	100	2
75	77	4
93	97	1
11	16	1
44	106	3
85	86	7
11	12	9
5	5	11
126	127	11
28	124	2
126	138	5
32	38	2
40	78	2
93	96	3
100	101	9
74	144	2
73	84	6
17	19	7
91	91	3
106	124	4
100	149	2
7	21	1
94	128	3
2	2	4
111	150	3
119	148	2
11	13	1
99	128	2
12	14	5
22	23	8
42	79	5
55	57	3
93	98	1
74	84	2
47	53	1
61	62	2
43	66	2
45	47	2
116	117	9
38	150	7
64	65	7
3	5	2
25	28	1
69	70	9
50	51	9
72	118	2
74	79	5
89	92	1
72	154	1
103	150	4
91	92	2
53	150	8
2	3	4
47	68	1
76	80	2
77	78	15
53	153	2
132	138	4
77	82	4
118	149	1
103	151	2
73	110	4
139	140	7
108	131	2
41	94	1
85	85	16
133	139	7
79	145	2
87	88	2
42	78	4
14	15	6
49	51	1
3	4	2
101	125	1
17	18	6
34	151	2
119	120	9
84	86	3
76	150	1
6	25	7
126	128	8
108	110	1
141	145	5
135	139	2
4	5	4
86	154	4
143	144	6
81	82	4
95	138	2
94	113	1
62	86	1
72	79	2
72	109	4
110	116	2
127	128	3
54	55	13
124	125	11
68	70	1
122	128	6
4	8	2
63	65	1
110	151	2
82	85	1
64	66	2
98	115	3
70	108	3
85	96	2
80	103	2
23	24	1
12	13	7
63	64	5
124	129	2
100	131	1
47	50	7
99	115	2
41	44	1
66	68	2
14	21	1
111	154	1
46	48	3
22	25	2
36	39	1
111	117	1
64	68	2
125	129	4
33	34	3
149	152	1
67	73	1
53	129	1
49	149	1
135	137	2
80	82	2
61	61	4
97	151	1
28	102	1
11	24	1
122	126	4
83	149	3
24	104	3
71	154	1
29	138	2
140	150	3
91	151	1
96	129	1
16	68	1
66	74	7
77	81	2
45	106	1
65	74	1
11	14	1
21	62	1
73	75	2
57	107	3
10	12	3
3	30	6
9	24	4
142	150	1
68	84	1
40	70	2
99	100	11
146	147	6
120	128	4
70	152	4
48	51	2
102	124	2
48	153	2
141	149	2
133	153	2
26	29	2
114	117	1
52	55	3
79	105	1
107	129	2
100	145	1
45	54	4
73	99	2
41	45	4
90	93	2
48	154	5
96	131	5
16	20	2
3	9	1
108	112	5
7	9	6
45	53	1
47	57	1
34	39	2
9	10	3
72	74	1
28	30	1
97	111	5
9	19	3
46	84	2
5	7	2
145	151	1
128	144	2
46	53	1
121	145	1
45	68	3
121	129	3
67	75	5
49	147	2
70	71	9
4	7	3
3	24	2
62	66	1
66	71	2
51	108	1
46	50	3
141	148	1
21	25	1
141	147	2
17	20	1
34	73	1
86	87	2
71	140	1
63	104	1
123	145	1
108	123	1
130	134	3
50	53	3
67	100	2
16	125	2
16	29	2
21	27	1
41	43	3
118	148	1
36	57	1
76	103	3
25	29	1
64	85	2
111	115	3
68	99	4
57	149	4
99	153	2
76	151	1
20	25	1
33	35	3
45	130	2
46	150	2
37	94	1
90	91	2
52	62	1
11	22	1
62	71	1
131	135	4
74	92	3
25	104	3
88	89	3
138	140	1
3	150	2
127	138	1
98	111	1
31	32	6
144	146	3
104	105	5
98	118	2
75	106	3
55	147	1
72	143	2
133	137	1
7	25	1
64	147	1
139	141	1
29	106	1
37	149	3
80	105	3
83	87	1
90	141	1
44	76	2
103	149	1
130	131	4
95	147	5
77	105	3
140	147	1
49	80	3
113	147	2
74	83	1
72	92	1
10	24	2
63	75	2
110	111	1
75	81	1
12	114	2
139	144	1
20	27	1
124	139	2
120	123	3
137	149	1
94	136	1
80	83	1
133	149	1
19	21	1
75	82	2
144	152	1
23	25	1
74	134	1
48	50	1
6	48	2
55	61	1
35	90	2
128	137	2
37	49	1
17	106	2
88	112	1
42	73	3
50	149	1
47	49	1
121	127	1
105	110	2
108	152	1
67	79	2
3	21	1
20	24	1
48	152	1
73	128	3
3	7	3
144	147	1
39	44	1
121	142	1
16	126	1
80	149	1
53	133	1
22	24	1
86	88	2
73	80	1
92	114	1
39	94	1
45	149	1
40	87	2
45	151	2
73	132	3
115	117	2
15	20	2
15	41	1
107	151	2
142	144	1
68	78	2
34	88	2
13	23	1
25	138	1
6	27	2
36	89	1
12	18	3
48	86	1
45	67	1
51	52	1
114	118	1
97	98	1
72	128	1
26	28	2
18	23	1
56	57	2
76	152	1
43	46	1
64	143	1
100	129	1
104	150	1
112	115	1
36	38	1
44	46	1
106	109	1
44	67	2
32	44	1
130	136	1
122	144	1
24	29	1
44	74	1
96	149	2
37	38	1
100	134	2
103	105	2
120	145	1
63	80	1
140	151	1
17	107	1
77	102	1
57	58	1
56	151	1
128	135	2
51	64	1
134	136	2
55	64	1
129	138	1
108	115	1
25	105	2
62	85	1
140	149	1
2	9	1
58	107	1
107	123	1
129	134	1
20	50	1
33	42	1
120	121	1
51	62	1
82	142	1
