76	76	13
100	100	3
13	13	3
3	4	1
78	79	4
21	21	2
32	35	5
132	132	4
4	15	2
86	86	7
126	127	10
32	32	8
77	77	3
120	121	4
12	12	3
5	33	1
15	16	2
6	15	5
35	35	4
94	95	3
90	90	5
1	1	6
36	36	3
127	127	3
104	104	7
82	82	10
8	8	2
108	109	8
83	84	1
12	13	1
107	107	5
136	136	11
16	16	6
30	32	1
24	24	3
79	79	3
92	93	3
118	118	4
138	140	3
71	84	2
81	119	3
98	101	3
34	34	4
33	101	1
130	130	2
79	80	5
108	110	3
91	91	6
134	134	4
126	126	8
38	39	3
139	139	9
24	25	3
105	106	4
129	129	5
103	103	4
19	19	1
36	37	1
110	110	2
102	102	3
7	7	6
94	94	2
98	98	5
0	0	7
83	120	9
96	96	5
97	97	4
74	74	4
74	75	3
109	109	4
80	81	6
28	29	3
117	117	5
118	122	5
76	84	2
85	85	5
29	29	7
116	116	5
90	99	1
73	79	4
28	28	11
11	11	8
124	127	2
73	78	2
88	89	2
97	98	3
28	30	2
102	112	2
99	100	2
2	2	4
81	81	3
27	27	4
128	128	4
93	93	2
114	114	4
109	111	2
32	33	2
20	20	5
21	23	1
111	113	2
10	10	3
10	11	4
105	105	1
13	36	1
8	9	3
30	35	1
30	76	1
108	108	3
124	124	7
0	1	1
125	125	3
71	71	4
113	114	4
135	135	2
113	113	3
26	36	4
31	74	1
15	15	4
80	80	3
3	103	5
138	138	4
101	101	2
72	72	3
110	112	1
3	5	3
5	16	1
87	88	6
125	126	5
25	25	3
14	15	3
120	120	1
22	22	5
33	33	4
88	88	3
37	37	5
87	87	3
24	26	3
132	133	2
6	35	1
129	131	3
12	15	2
73	73	6
89	89	3
9	27	1
14	14	1
119	119	4
107	109	1
9	9	2
137	138	2
99	99	2
119	120	1
25	26	1
105	107	2
81	82	1
10	12	1
104	112	1
26	26	1
2	111	1
6	6	1
18	18	1
104	105	1
22	23	2
131	131	1
111	111	1
72	100	1
69	97	1
89	90	2
5	17	1
78	84	1
121	121	1
92	92	1
37	38	1
106	106	2
7	8	2
77	97	1
21	26	1
