34	34	3
47	47	6
84	116	2
132	133	6
127	131	2
18	32	3
22	22	4
24	24	5
10	29	4
122	122	5
86	86	2
33	33	3
41	53	2
26	34	5
117	131	1
157	157	4
140	140	2
119	149	1
86	127	2
49	53	3
5	5	8
96	96	10
50	50	3
87	87	2
122	124	1
80	114	2
34	42	2
122	154	1
99	99	3
24	42	5
124	137	4
130	133	7
64	126	3
20	21	4
128	128	5
83	83	9
10	32	2
30	30	3
49	52	2
125	144	3
32	32	3
158	158	5
41	54	4
89	103	3
115	115	2
61	61	1
73	73	8
129	129	2
48	48	7
134	134	5
110	110	4
84	84	9
21	21	6
53	53	4
129	130	3
155	155	3
20	33	2
102	104	1
116	149	3
109	109	4
6	6	7
78	111	2
103	103	2
107	113	6
78	80	1
11	11	1
138	138	7
50	55	1
62	62	1
145	156	2
82	126	1
120	120	8
14	27	6
70	70	7
11	27	1
8	16	4
71	71	3
41	43	3
81	83	2
95	96	5
101	128	1
16	16	1
82	103	4
64	159	1
136	136	6
50	54	9
42	55	1
147	147	1
85	85	1
43	43	5
98	98	1
44	44	4
141	145	1
63	156	2
85	126	3
79	80	3
14	15	1
104	104	4
40	40	3
28	55	1
69	69	5
63	63	1
101	101	2
108	108	3
14	18	2
93	95	1
150	158	2
20	20	2
86	108	2
17	31	1
13	16	3
27	73	3
6	26	1
39	45	4
65	158	2
137	137	1
66	66	1
91	91	2
28	40	1
85	108	2
13	27	2
82	150	2
92	98	4
19	19	6
126	126	8
23	25	3
12	27	3
87	124	2
148	148	2
126	132	1
4	4	2
63	88	2
67	70	2
151	151	1
83	111	1
53	54	1
23	23	3
36	36	1
127	127	1
93	131	3
37	46	1
90	92	2
145	153	1
27	27	3
125	148	6
49	49	5
108	126	3
127	140	2
75	92	1
116	116	2
85	118	1
1	1	4
68	106	1
115	117	1
104	105	4
130	130	3
75	96	1
41	46	2
121	121	1
68	68	3
37	37	1
105	118	3
24	33	3
34	52	2
86	150	1
141	142	3
41	41	4
64	64	1
13	14	2
46	54	3
51	51	1
17	30	2
146	156	1
124	124	3
121	135	1
120	121	3
66	88	1
134	149	1
39	39	2
11	14	1
62	69	1
68	113	1
84	126	4
35	55	4
77	77	2
91	94	1
1	44	1
3	3	1
26	26	1
72	113	2
87	127	1
15	16	1
90	95	1
85	111	1
38	38	2
17	17	1
92	129	2
67	69	1
13	23	1
45	45	3
86	90	2
65	66	1
71	154	1
0	0	1
157	158	2
71	150	2
18	20	1
141	152	2
65	65	1
24	26	1
153	155	1
66	121	1
75	88	1
7	7	3
118	118	2
127	130	1
105	106	2
145	146	1
50	53	1
36	56	1
9	16	1
100	100	1
106	106	1
144	144	2
82	82	3
73	101	1
16	31	1
142	142	1
52	52	1
71	118	1
80	111	1
105	105	1
75	75	1
88	132	1
84	117	1
93	94	1
103	134	2
102	110	1
31	31	1
13	29	1
38	45	1
17	22	2
19	31	1
147	157	1
11	16	1
10	10	1
57	105	1
12	12	1
35	51	1
133	133	1
14	14	1
132	132	1
41	42	1
142	156	1
63	125	1
135	135	1
139	139	1
134	151	1
10	31	1
72	79	1
