92	92	5
105	105	11
104	104	8
85	85	2
125	125	5
78	78	1
106	110	2
5	5	9
122	122	18
110	119	3
29	29	8
16	16	5
7	21	2
141	141	2
152	159	2
20	20	3
39	39	2
142	143	2
2	2	5
15	16	3
110	110	3
128	139	3
88	88	9
122	123	3
43	67	2
148	148	5
88	112	2
129	129	7
8	21	2
53	54	2
17	17	7
89	90	5
10	10	7
83	83	6
113	113	4
128	129	3
131	131	5
6	6	15
107	112	1
140	148	5
132	141	4
157	158	4
124	125	1
64	64	1
141	155	1
73	133	4
150	151	1
126	126	2
75	75	4
111	111	7
107	107	5
23	23	4
99	99	9
96	96	5
122	145	2
10	11	1
133	133	6
141	148	3
152	152	5
113	122	1
116	118	1
39	40	2
141	145	1
114	114	8
128	128	5
124	124	3
121	121	17
109	109	1
130	131	1
44	44	4
79	81	2
73	73	2
112	112	10
142	142	7
54	55	5
151	151	5
94	94	5
79	79	2
149	149	3
150	150	4
18	18	9
93	97	3
156	156	8
116	116	3
138	158	3
134	137	1
153	154	2
108	113	5
113	114	2
30	40	2
117	117	12
74	74	1
143	143	1
105	109	1
62	62	3
134	135	3
11	12	3
101	102	1
3	4	1
9	10	2
119	120	2
126	135	5
145	148	4
146	146	6
50	50	2
48	76	2
30	30	6
36	36	9
101	101	4
120	148	1
111	114	2
86	92	2
109	110	3
13	13	5
95	95	4
117	118	1
46	46	4
106	106	3
140	140	16
100	100	7
108	110	4
90	134	2
120	120	4
41	41	8
8	9	1
18	37	1
93	93	6
98	98	7
147	147	1
35	35	1
67	68	1
17	32	2
40	66	2
133	139	2
119	119	6
138	139	2
75	76	2
140	145	2
65	65	6
138	138	11
129	133	2
134	136	2
108	108	3
91	134	1
130	130	3
134	134	2
120	140	1
140	141	1
56	63	4
127	127	4
152	157	2
81	85	1
67	70	2
133	134	2
139	140	4
67	71	1
27	27	1
158	158	4
53	53	1
143	144	1
145	145	5
136	136	2
55	55	3
41	69	1
154	154	1
25	27	2
25	25	6
132	133	1
123	123	5
15	15	2
139	139	2
36	74	2
8	8	2
42	43	6
115	115	3
114	115	2
94	134	2
102	102	5
151	155	2
137	137	1
144	144	3
87	87	2
132	132	1
91	92	1
107	108	2
38	39	4
121	145	1
153	157	3
96	97	1
100	101	2
72	73	1
63	63	1
15	17	2
90	90	1
154	158	2
77	77	1
118	118	2
13	17	1
129	130	1
9	9	5
68	69	2
34	53	2
31	31	2
70	105	2
141	142	1
40	40	1
43	43	1
98	132	2
123	144	1
92	134	2
127	139	2
121	122	1
11	11	2
136	143	3
94	129	1
69	70	2
157	157	1
154	155	1
132	134	1
4	4	2
92	93	1
139	151	2
66	66	2
87	88	1
98	129	1
101	104	1
136	137	1
21	21	3
51	52	1
69	114	1
22	23	1
98	99	1
71	71	2
26	26	1
68	68	1
41	42	2
54	54	1
80	80	1
47	47	1
92	111	1
51	51	1
115	116	2
91	91	2
82	82	2
1	1	1
14	31	2
154	156	1
146	149	1
99	128	1
55	56	1
106	113	1
97	97	1
127	128	1
49	50	1
66	75	1
120	139	1
57	70	1
117	148	1
105	114	1
