29	104	2
103	103	5
117	117	3
1	47	1
124	124	11
97	97	5
27	27	4
112	112	13
115	115	12
25	26	2
3	27	2
58	58	9
63	64	7
46	46	19
113	113	4
20	20	7
15	15	15
110	110	1
130	130	3
8	17	3
73	75	6
9	9	12
43	43	3
34	34	11
105	105	4
40	40	6
68	69	2
62	62	8
132	132	16
63	63	11
128	128	16
109	109	2
21	21	7
75	75	22
79	79	12
96	105	2
123	124	3
61	61	12
36	43	3
95	128	4
93	93	4
5	6	3
71	71	5
120	120	11
10	10	3
3	3	9
15	16	6
95	107	1
44	44	5
66	66	10
1	1	9
45	45	4
68	68	2
57	58	1
35	134	3
23	24	12
68	119	5
82	82	13
38	38	10
14	14	6
5	5	13
41	41	4
16	16	7
64	64	9
27	43	1
43	90	2
104	104	6
32	58	2
106	112	1
67	67	4
89	92	1
32	56	1
86	86	6
57	57	11
73	73	5
94	95	3
38	39	4
128	129	4
94	96	3
93	102	3
33	57	2
87	88	8
106	107	3
115	116	2
120	121	3
39	39	5
76	101	5
97	99	4
96	106	3
70	82	1
98	115	5
125	125	10
31	32	1
58	90	5
32	32	8
77	77	2
29	29	8
92	92	11
132	134	5
23	23	3
17	17	9
23	25	8
11	25	2
28	28	5
81	81	5
55	55	6
112	114	1
85	86	3
36	36	4
85	97	1
72	77	1
94	94	7
47	89	2
110	124	4
59	59	8
95	95	13
19	27	2
42	43	1
98	98	6
11	11	4
95	96	4
35	36	8
65	65	10
10	14	1
8	8	2
11	12	4
39	40	2
24	24	9
88	88	1
26	55	8
37	37	4
6	18	1
30	30	4
123	123	5
79	117	3
41	127	4
46	71	3
81	82	1
85	85	8
9	10	3
126	126	7
69	71	2
91	91	5
67	77	1
60	109	2
74	124	7
58	59	5
130	131	6
0	0	10
127	127	7
113	115	3
72	72	5
93	103	3
18	18	2
8	14	4
25	25	1
125	126	3
33	33	9
89	90	1
60	108	2
109	114	2
37	40	3
2	12	3
110	125	3
84	85	1
111	126	4
8	9	1
43	44	1
22	22	7
69	69	3
76	76	5
45	71	3
134	134	6
114	115	1
37	38	8
111	111	6
77	78	5
43	59	2
122	123	3
94	128	1
97	98	4
12	12	10
45	122	1
14	17	5
50	50	4
100	102	1
118	118	11
75	76	1
84	96	3
44	45	2
86	87	1
29	30	5
101	101	2
78	78	7
78	79	2
120	122	2
2	2	3
113	116	1
84	84	12
40	41	2
38	42	4
119	120	5
6	6	6
27	28	4
13	13	4
3	102	2
74	74	2
11	13	2
89	110	2
106	106	1
7	7	9
106	109	1
13	18	2
85	95	1
116	116	9
18	19	2
16	103	2
108	108	9
102	102	1
35	35	3
60	60	3
11	14	2
87	87	4
109	130	1
96	103	1
5	22	2
3	12	4
45	46	2
110	112	1
42	42	5
67	72	2
100	105	2
82	84	3
44	111	2
10	11	2
96	99	1
129	130	8
73	74	3
11	18	1
90	109	2
7	8	1
126	130	3
12	28	2
58	103	2
10	13	1
88	95	1
61	62	5
110	111	2
71	72	2
114	114	9
1	2	5
47	128	3
127	131	6
19	22	3
46	73	1
131	133	2
19	19	2
39	42	2
72	75	4
121	121	3
87	96	2
100	100	4
64	65	4
46	75	1
99	100	1
54	54	2
90	90	7
65	75	2
122	122	2
107	107	5
26	88	1
3	4	2
83	83	2
119	119	3
91	127	1
120	123	2
14	101	2
57	60	2
77	79	2
95	100	1
98	109	1
72	73	1
27	88	1
20	21	2
29	105	2
109	111	1
35	133	1
92	127	5
80	82	2
107	108	1
58	93	2
47	47	3
54	56	1
93	126	1
99	99	2
71	82	1
47	95	1
83	84	1
71	74	2
55	133	1
46	47	1
103	104	3
24	26	1
128	130	2
26	26	3
43	124	1
76	96	1
28	100	1
48	48	2
6	7	1
70	70	1
47	90	1
3	14	2
42	44	1
96	96	3
4	5	1
126	128	1
47	96	1
13	14	1
43	111	1
16	17	2
62	63	1
78	80	1
66	67	1
7	10	1
91	92	1
85	126	1
69	70	1
105	107	1
55	56	1
84	97	1
21	26	1
59	110	1
96	104	2
56	56	2
43	48	1
43	93	1
73	76	1
29	57	1
9	70	1
40	132	1
4	18	1
28	104	1
