17	23	1
139	139	5
101	101	3
34	34	6
66	66	2
95	95	1
93	94	3
12	57	2
157	157	5
120	120	4
53	53	7
91	91	3
43	43	6
10	10	3
119	119	1
71	71	2
84	119	3
14	15	2
105	105	4
148	148	6
127	127	4
72	73	6
84	94	2
153	153	2
34	37	1
154	156	3
168	168	2
142	142	8
10	51	2
24	24	1
52	53	1
5	5	5
158	158	7
109	109	5
42	43	3
14	47	4
46	47	2
1	1	10
128	128	1
163	164	4
93	93	11
75	75	9
87	87	2
36	90	3
47	47	5
44	50	2
18	18	7
46	46	6
164	165	2
64	104	6
2	2	3
70	70	7
130	132	1
25	25	1
33	33	1
49	50	5
99	114	1
102	102	1
68	152	2
139	140	4
66	67	4
155	155	2
45	50	1
16	16	4
56	56	11
57	57	3
73	99	2
64	64	2
54	58	2
9	123	1
90	90	9
132	132	2
15	16	3
114	115	6
104	104	1
92	93	4
27	27	2
144	144	5
61	65	1
4	20	1
107	107	9
130	130	1
7	25	1
65	114	1
111	111	4
160	167	1
137	148	2
72	72	2
126	127	2
8	8	2
37	37	2
89	155	1
82	97	1
77	77	6
7	7	5
133	162	2
48	48	3
13	14	2
45	45	2
92	153	3
3	6	1
103	103	1
154	154	1
134	134	8
18	19	2
166	167	2
144	161	2
26	26	1
12	116	1
139	143	3
35	35	10
0	13	2
145	145	3
67	67	1
159	160	1
81	99	1
113	113	2
54	55	1
147	147	7
78	115	2
36	36	6
133	133	7
131	146	3
41	41	1
118	119	2
150	150	4
22	23	1
37	38	2
52	52	3
42	158	1
167	167	2
153	154	2
71	74	3
89	89	3
129	133	1
79	80	3
88	88	3
15	15	5
56	57	1
142	145	1
161	161	4
93	157	2
101	108	2
165	165	1
50	50	2
42	42	6
9	12	1
76	76	3
117	117	3
100	103	1
138	138	6
6	6	5
81	81	1
7	52	2
40	40	4
64	87	1
132	134	3
116	116	5
91	122	1
91	93	1
21	21	6
44	44	6
41	112	2
86	124	1
51	54	2
108	108	4
106	106	1
100	130	1
13	13	1
163	165	1
79	82	1
87	152	2
16	17	1
125	166	1
88	126	2
105	108	2
22	22	2
88	138	1
50	51	1
137	137	2
137	138	3
14	14	2
28	56	2
53	54	3
11	13	2
18	23	1
113	114	2
99	99	1
109	110	1
94	94	2
63	63	1
87	124	1
74	74	4
19	24	1
143	143	1
99	118	1
54	54	1
152	152	2
98	99	1
89	138	1
19	19	1
18	56	1
107	108	1
134	135	2
120	121	2
170	170	2
128	129	1
126	138	2
1	6	1
9	46	1
119	120	1
106	112	2
3	5	1
162	163	1
25	111	1
138	145	1
104	105	1
159	159	1
78	78	2
87	88	1
136	136	1
118	118	1
75	76	1
94	157	1
3	3	1
15	42	1
80	82	1
85	85	2
138	139	1
65	153	1
150	151	2
11	12	2
49	49	2
129	129	1
130	154	2
42	114	1
140	140	1
80	80	1
14	111	1
88	89	1
144	148	1
117	118	1
80	81	1
123	123	1
96	97	1
156	156	1
166	166	1
157	158	1
83	84	1
91	92	1
115	116	1
84	84	1
121	142	1
44	45	1
140	143	2
28	28	1
160	166	1
108	167	1
12	12	1
