55	56	1
34	35	3
28	28	4
151	152	1
24	24	4
125	126	3
135	135	3
145	150	3
137	138	5
150	150	1
30	30	4
78	78	3
15	15	2
84	84	11
86	89	4
119	120	5
136	136	3
108	109	1
121	122	2
48	48	4
76	76	5
137	137	3
91	91	1
67	70	1
142	145	2
84	85	2
151	151	14
32	32	4
133	134	2
94	95	9
108	108	3
53	67	4
25	29	2
36	36	6
132	132	4
87	87	4
146	146	2
111	112	1
106	106	7
70	70	4
28	39	1
117	120	2
48	65	2
104	104	8
130	130	1
153	153	6
105	105	8
7	7	2
121	121	2
145	147	2
102	103	2
142	142	3
114	134	4
29	29	12
99	100	1
51	51	5
129	129	7
18	18	5
27	27	5
139	140	5
34	118	2
21	21	1
86	87	4
48	69	3
11	12	1
39	40	1
91	92	1
28	29	3
11	134	6
118	119	3
117	117	3
4	4	3
14	22	2
100	100	1
26	27	4
69	72	5
6	6	6
93	93	1
82	82	4
20	20	2
127	127	4
94	94	11
4	126	1
86	86	2
50	50	9
13	13	4
69	69	2
80	81	3
122	122	7
126	126	1
88	88	8
39	39	2
79	80	1
95	95	4
104	105	2
133	156	2
23	23	2
78	79	5
96	96	5
0	3	1
115	115	2
3	136	5
68	70	6
156	156	5
11	133	2
26	26	1
56	57	5
67	68	1
149	149	6
17	21	1
146	147	2
139	139	1
142	144	2
158	158	1
43	43	6
23	24	4
48	71	2
45	47	2
53	70	5
68	69	4
110	110	2
46	64	2
27	66	2
35	35	1
42	42	1
32	33	1
132	133	1
147	148	5
128	128	6
12	12	6
53	53	3
51	52	3
41	41	2
24	33	1
44	44	2
72	72	2
25	45	1
43	75	2
24	25	2
10	10	2
22	22	2
90	90	1
101	101	4
100	101	4
71	71	1
100	107	2
103	106	1
111	139	1
40	40	2
93	94	2
102	102	3
128	129	1
73	73	1
4	138	2
16	23	1
81	82	1
103	104	1
49	49	2
103	103	1
45	45	1
36	39	3
3	126	1
66	66	1
56	56	1
49	71	1
19	20	4
27	29	1
34	34	2
16	16	2
25	25	3
17	20	1
87	88	1
8	8	1
129	130	1
17	17	3
57	57	2
116	136	1
75	75	2
38	38	1
152	152	1
123	123	1
36	37	1
1	2	1
63	63	1
149	150	1
9	9	1
18	29	1
8	135	1
22	23	1
2	2	1
67	67	1
18	119	1
30	33	1
111	111	2
49	64	1
138	138	1
81	93	1
99	102	1
5	5	1
102	106	1
134	135	1
99	99	1
68	71	1
118	118	1
24	36	1
123	124	1
141	141	1
69	71	1
