92	99	3
101	101	14
40	114	5
72	72	9
11	11	8
37	37	8
18	128	5
52	52	10
51	55	8
87	99	6
160	162	1
77	78	5
137	142	3
72	74	4
100	100	11
77	117	1
86	86	14
80	81	7
161	161	7
5	55	2
153	153	9
79	79	9
15	164	1
2	5	5
83	83	11
64	112	7
14	15	8
34	35	1
121	122	4
10	10	12
4	4	9
38	38	13
124	125	6
71	71	12
89	97	1
25	25	25
120	120	7
157	157	10
5	5	18
61	62	2
9	9	16
144	144	16
51	51	15
130	130	16
158	163	3
108	108	7
1	2	12
65	65	14
22	22	7
37	110	1
105	106	9
146	146	15
3	3	17
77	77	14
90	90	8
82	82	8
98	99	8
87	87	5
146	152	2
133	141	2
104	134	7
3	16	2
84	85	5
28	79	3
138	138	17
109	109	8
7	7	8
11	18	1
156	157	4
53	55	3
47	47	7
33	34	5
24	24	14
44	45	5
105	105	2
17	18	12
101	102	8
48	48	7
70	72	4
149	155	5
92	92	5
81	81	5
78	78	13
133	133	9
128	141	2
128	129	7
39	39	3
162	163	6
163	163	26
50	50	9
142	143	5
13	18	1
125	127	1
25	26	11
34	34	12
114	114	3
7	66	2
110	110	9
156	156	7
152	153	7
11	12	4
47	50	3
107	108	2
0	0	6
37	38	9
89	89	13
113	113	6
96	99	5
39	40	5
142	142	11
76	87	4
76	76	15
158	158	7
146	147	11
159	159	8
17	17	8
164	164	9
118	118	19
69	69	16
111	111	18
48	76	7
46	46	5
129	130	7
65	103	1
68	69	2
62	62	5
140	140	2
170	170	4
74	74	8
134	134	10
151	151	5
15	15	5
158	159	6
57	57	12
104	104	14
63	63	4
18	116	11
147	148	5
122	122	9
1	1	7
21	22	7
12	12	5
37	116	4
18	45	3
41	57	3
126	126	8
3	5	3
24	50	3
19	19	4
54	54	7
8	55	5
150	151	4
27	27	12
112	112	8
38	40	4
2	54	1
134	145	2
6	117	3
127	142	2
85	87	2
169	169	14
44	44	7
160	166	4
43	43	15
150	150	9
68	68	2
13	14	5
155	155	9
20	20	6
106	106	9
107	107	8
135	136	4
36	36	9
102	103	2
35	126	4
88	88	7
139	139	6
167	167	4
143	143	4
148	150	1
7	108	3
120	131	5
7	65	4
26	26	5
128	128	7
100	135	4
49	49	8
145	146	2
10	20	3
18	80	2
168	168	6
143	146	6
35	35	7
66	67	3
152	155	2
23	86	1
126	150	1
97	97	6
16	16	13
41	41	1
94	95	4
133	153	2
70	70	10
19	91	2
145	145	3
8	8	14
135	135	11
7	22	6
132	132	6
166	166	8
14	16	2
131	131	11
151	157	2
21	77	2
8	50	2
160	160	1
64	104	2
109	110	1
100	101	7
94	96	1
113	127	2
109	115	4
122	139	2
13	13	4
10	56	4
89	91	4
2	2	9
2	8	6
64	111	4
56	57	3
162	164	3
73	73	3
136	136	10
94	94	10
67	67	10
87	89	7
19	82	1
12	15	1
82	83	6
0	7	1
150	164	2
33	33	15
134	142	1
26	41	2
111	115	3
125	155	3
46	80	3
141	141	10
75	89	5
20	21	6
130	134	1
137	137	7
119	119	11
26	42	2
83	84	1
63	64	7
84	84	7
79	84	3
49	54	1
120	121	1
137	138	4
80	80	6
93	93	4
124	124	4
100	111	3
27	46	3
103	103	4
91	91	8
92	141	1
149	149	4
133	134	9
8	117	5
50	54	1
98	98	10
19	116	1
163	165	2
66	66	2
53	54	6
82	118	3
56	56	10
96	96	3
123	123	9
163	164	3
116	117	3
125	125	8
45	48	2
143	148	3
24	71	4
53	53	3
45	45	6
166	167	4
162	162	4
141	142	1
86	122	2
0	1	6
92	93	4
97	130	3
40	41	1
115	115	4
123	124	1
41	42	5
71	73	1
97	99	7
64	67	1
16	17	1
100	109	2
159	160	5
120	123	2
21	24	1
18	91	4
106	109	2
137	140	2
8	9	9
64	64	5
140	141	6
163	167	1
62	91	3
14	14	2
46	85	4
129	129	9
99	99	8
40	115	3
2	6	3
25	39	1
158	168	1
20	23	3
94	99	1
8	10	2
6	8	1
35	37	2
143	144	3
21	21	6
72	73	1
85	85	2
48	77	1
107	109	2
106	107	3
40	40	7
126	153	3
117	117	4
164	165	4
9	10	6
45	46	2
95	124	3
79	80	3
39	110	1
18	82	1
42	42	1
53	56	2
135	141	1
159	168	2
47	51	2
22	83	2
26	27	7
116	116	3
4	5	1
118	132	1
45	47	3
159	167	2
91	93	3
126	142	1
58	58	3
103	104	4
119	131	1
91	114	2
127	127	4
78	79	3
148	148	3
5	106	2
139	140	2
73	75	1
2	55	2
67	68	5
64	74	1
154	155	4
75	75	3
144	145	1
2	3	1
112	124	3
150	154	1
134	144	2
97	98	2
6	6	5
165	165	2
154	154	1
57	64	1
71	75	1
36	126	1
112	115	1
3	159	1
144	152	2
129	133	3
121	121	6
128	138	3
9	12	1
95	98	2
153	168	1
36	107	1
23	23	7
93	125	1
79	82	2
132	133	2
74	88	2
13	58	2
14	17	3
45	109	1
95	96	1
158	160	2
62	63	1
9	19	1
46	76	1
18	18	5
35	89	1
94	131	2
139	162	1
76	116	1
108	109	2
150	167	1
63	74	3
20	24	1
123	125	2
90	93	1
144	151	1
67	72	2
102	104	1
2	104	1
6	7	1
146	148	1
155	156	4
8	120	1
51	70	3
4	7	1
55	55	2
144	147	1
152	160	1
75	115	1
103	135	2
157	159	1
38	76	1
136	146	1
111	138	1
37	101	1
115	124	1
135	161	2
3	56	1
155	158	2
37	40	1
147	147	1
124	143	1
130	132	1
128	140	2
147	150	3
41	113	4
152	152	1
84	117	1
51	54	1
120	122	1
63	75	1
3	4	1
22	24	2
88	89	1
28	28	1
88	156	1
155	169	1
74	75	1
15	16	1
33	41	2
63	89	2
35	96	2
132	134	1
161	163	2
23	24	2
130	131	2
110	129	2
105	136	3
111	112	1
91	92	1
121	133	2
153	154	2
13	56	1
49	50	1
62	88	1
127	145	1
80	83	1
51	68	1
104	105	2
44	48	1
65	72	1
92	124	1
118	121	1
102	102	2
82	84	1
134	135	1
157	158	1
1	5	1
100	147	1
63	110	1
85	117	1
87	114	1
48	49	1
64	65	1
129	151	1
36	108	1
167	168	1
99	122	1
69	70	1
19	81	1
122	125	1
