80	81	14
72	72	47
95	98	7
72	84	3
64	64	28
35	36	9
37	38	9
39	39	16
60	60	16
31	31	17
42	52	1
48	48	13
41	41	20
65	65	47
74	74	31
79	89	1
48	55	5
63	64	12
70	70	20
58	58	29
76	77	16
75	75	48
91	91	17
62	63	13
76	76	24
90	90	8
98	98	12
93	93	18
68	68	13
100	100	9
50	50	10
55	55	14
63	65	2
45	45	12
24	24	11
85	85	16
99	101	7
40	91	2
58	59	9
71	83	3
71	71	30
29	29	9
62	62	33
83	85	4
93	95	4
97	97	3
53	54	12
38	42	2
62	71	3
60	61	9
34	34	6
86	86	33
83	83	11
95	95	7
66	66	39
79	79	25
67	68	8
69	69	19
25	25	14
22	22	13
54	54	10
70	76	3
79	80	21
78	78	23
59	59	16
23	56	3
26	54	3
80	82	3
88	88	16
80	80	22
82	82	7
92	93	2
87	87	6
40	40	9
74	75	11
63	63	20
20	20	8
45	48	3
46	89	7
40	41	6
79	81	5
81	81	21
70	84	4
89	89	17
29	30	6
63	79	2
59	71	1
88	89	2
62	64	3
49	50	8
85	86	2
33	33	7
64	65	6
57	57	10
37	37	14
92	98	4
24	26	4
63	69	1
42	42	12
73	73	14
57	58	8
95	97	4
65	73	2
92	92	2
87	88	7
84	84	16
86	89	3
81	82	8
68	71	2
83	84	12
55	87	5
69	70	4
43	44	2
67	67	30
47	47	6
77	77	19
66	68	1
93	98	7
27	27	21
54	55	3
22	41	6
84	85	11
49	49	8
74	77	5
30	30	3
82	86	2
25	55	5
61	61	25
38	38	5
91	92	5
48	57	2
67	69	1
33	34	8
63	97	2
62	89	9
101	101	25
40	78	4
34	35	2
84	87	3
48	89	2
92	96	2
35	35	16
99	100	3
65	74	1
61	62	2
69	71	3
72	74	5
96	96	9
61	87	3
26	26	7
44	44	8
55	56	1
43	43	11
79	94	2
58	93	4
72	73	5
66	67	9
89	90	2
56	56	10
36	36	4
38	43	2
48	77	1
37	101	2
22	26	2
100	101	9
23	23	4
65	66	4
68	69	10
22	25	1
92	95	5
69	85	5
41	42	1
73	74	6
93	94	4
48	62	1
36	38	3
52	52	5
59	61	2
99	99	4
71	77	2
102	102	3
38	39	2
59	62	3
26	27	4
33	35	1
75	76	7
57	59	3
70	71	3
93	99	3
30	44	3
94	97	2
67	72	2
45	49	1
96	97	2
56	83	3
95	100	2
86	87	5
91	97	3
71	72	2
46	88	3
53	101	2
24	88	1
87	92	1
44	49	3
51	52	3
78	80	1
77	78	6
20	22	2
22	39	2
47	56	3
59	60	2
31	33	1
92	99	2
27	28	2
67	73	2
97	98	1
50	51	1
51	58	2
51	53	2
51	51	17
80	92	5
24	25	2
44	45	2
38	41	1
45	59	2
25	51	1
94	98	1
53	53	5
90	91	2
41	78	2
91	96	2
42	63	3
67	74	3
70	89	1
75	85	1
22	24	1
25	41	4
60	62	5
78	79	2
36	37	1
25	62	1
83	86	1
81	86	2
30	31	1
52	53	1
80	88	3
24	27	1
32	32	1
73	83	1
20	52	3
56	58	1
25	26	1
62	95	1
48	49	1
46	47	1
21	52	1
65	85	1
64	66	1
25	53	1
60	93	1
35	37	1
32	53	1
