49	49	4
135	135	4
2	2	5
138	138	6
48	48	6
104	104	13
172	194	3
120	167	1
66	67	3
52	52	3
180	180	3
22	25	2
196	196	8
57	180	6
24	24	8
174	174	4
47	47	9
58	58	6
142	142	3
65	66	10
59	59	2
89	89	5
3	4	3
60	61	3
118	118	5
99	99	4
7	7	1
56	56	2
159	159	3
0	23	3
79	80	2
133	133	5
113	113	3
93	93	2
26	27	6
136	138	2
60	82	1
45	45	2
124	124	6
73	73	6
18	18	4
130	130	3
188	189	6
152	152	4
77	77	7
141	141	9
195	196	4
128	155	7
136	136	6
34	35	1
175	178	1
183	184	3
123	123	9
119	123	5
96	96	3
117	117	2
151	151	3
181	181	1
119	168	6
129	129	11
53	70	4
193	193	9
101	101	6
43	69	3
110	110	4
69	69	3
163	163	6
47	48	2
127	127	11
42	42	3
82	83	3
54	54	5
148	148	2
44	44	3
185	185	11
37	116	1
33	33	11
36	36	3
18	19	10
114	114	5
102	140	10
121	121	2
53	53	11
1	34	1
119	170	1
194	196	2
35	35	13
102	102	5
140	140	5
47	51	7
73	74	2
128	128	9
74	74	5
29	29	2
105	107	3
37	37	4
120	165	2
138	139	2
166	166	5
110	111	5
20	32	2
83	84	1
168	168	4
109	109	1
78	78	2
61	74	5
115	115	4
192	192	7
52	53	3
7	147	6
62	62	6
39	39	11
51	52	3
70	71	6
71	84	1
22	22	2
55	55	3
38	42	2
106	106	1
51	51	5
165	167	5
170	171	3
189	189	4
39	41	1
21	22	4
6	6	2
183	186	4
171	193	1
187	187	2
69	85	3
63	64	5
20	41	3
34	34	2
126	126	2
104	106	1
94	94	4
150	169	2
33	39	1
28	28	6
130	156	2
27	27	10
20	20	6
102	103	13
30	30	5
16	42	7
71	71	11
15	15	9
93	106	5
12	12	4
14	23	2
119	119	5
1	2	3
186	192	3
130	157	3
9	9	5
60	73	2
10	10	4
196	197	3
43	44	2
31	31	1
66	71	4
175	175	7
64	65	2
169	169	5
32	32	4
179	179	5
58	60	3
20	21	4
113	123	1
75	75	1
182	183	1
164	164	4
42	43	2
21	21	2
60	60	6
107	112	3
108	108	6
19	19	1
38	192	2
80	81	6
5	5	1
27	29	4
5	9	2
66	66	2
197	197	6
55	56	2
72	78	3
144	144	3
20	40	1
94	95	1
150	150	1
55	64	1
143	144	3
33	49	3
94	190	1
130	155	3
62	89	2
185	186	1
2	23	2
19	20	3
56	182	2
3	5	1
195	195	3
137	137	1
10	126	6
112	141	1
186	186	4
46	47	3
133	153	2
95	95	5
65	65	1
39	40	3
87	87	1
3	6	3
184	184	3
50	196	3
109	166	2
66	192	2
53	55	2
171	171	2
145	145	2
113	114	3
85	85	1
154	155	2
134	134	4
15	49	2
188	188	4
34	39	2
38	38	1
116	116	1
70	70	2
182	187	5
8	8	1
59	74	5
105	105	1
155	155	1
134	161	1
105	106	2
184	185	1
65	187	4
194	194	4
175	188	1
167	167	2
149	150	4
165	166	1
57	61	1
176	176	2
173	173	2
31	32	1
17	85	1
175	176	2
37	194	1
58	61	4
164	166	2
81	82	2
15	39	1
41	41	6
165	165	3
130	158	2
182	182	1
98	99	2
151	165	1
54	72	2
112	112	1
17	69	2
60	87	2
139	139	3
174	189	1
137	138	3
83	83	1
57	57	2
95	96	1
104	112	1
174	180	3
88	88	2
139	140	2
56	57	2
174	184	3
38	194	1
126	127	2
17	17	3
146	146	3
153	153	2
88	89	1
27	30	1
111	134	1
135	162	2
120	121	1
110	153	1
84	86	2
158	158	1
146	147	5
103	103	4
16	47	1
2	22	1
177	177	2
24	25	2
130	131	1
84	84	1
133	161	1
14	14	1
40	40	1
11	11	1
16	16	1
79	81	2
184	186	2
160	160	2
125	125	1
27	28	1
56	60	1
82	82	1
63	89	1
143	143	1
102	105	1
147	147	1
93	191	1
134	135	1
3	3	1
24	32	1
71	79	1
113	119	1
25	26	1
115	116	1
131	131	1
25	25	2
50	50	1
15	32	1
4	4	2
46	46	1
23	23	1
171	186	1
61	63	1
11	126	1
81	81	1
102	139	1
178	178	2
