118	118	2
36	36	11
99	99	7
130	130	7
100	100	5
17	17	5
126	126	3
10	11	1
136	136	8
102	103	3
3	3	3
116	124	3
72	130	2
24	24	4
135	138	3
131	132	3
105	105	13
98	99	2
6	6	5
21	22	2
88	89	4
99	102	2
101	101	14
108	108	9
71	71	9
135	135	4
90	90	5
98	98	5
17	21	4
4	5	5
131	131	6
96	96	4
112	112	4
127	127	4
92	92	6
37	37	6
87	87	14
118	119	9
82	82	2
4	4	10
128	128	6
119	119	4
38	38	3
37	38	6
120	120	4
124	125	5
112	113	6
72	72	5
82	83	1
111	111	5
78	78	6
123	123	11
5	6	1
103	103	15
79	79	7
17	18	2
91	91	3
1	1	3
20	20	6
35	35	7
95	96	3
113	113	5
103	104	2
123	124	3
109	109	5
139	139	11
104	105	4
106	106	5
31	31	2
10	10	4
19	19	1
100	126	2
18	18	7
102	102	5
105	106	5
81	81	6
23	25	1
13	13	7
138	138	9
111	115	3
116	116	18
5	5	3
134	134	12
100	101	1
122	123	3
114	115	3
21	21	6
114	114	9
120	122	10
23	23	1
97	97	6
85	85	3
8	30	1
25	25	3
129	129	6
100	127	1
90	91	2
107	107	3
6	28	3
36	37	6
83	83	1
33	33	1
9	15	2
92	93	2
18	22	1
7	28	3
32	32	8
125	125	3
115	115	2
2	2	10
3	106	2
74	75	3
89	89	4
116	117	5
75	75	5
34	34	3
16	18	1
11	32	6
9	17	3
117	117	4
19	20	2
137	137	1
75	88	5
93	93	4
127	128	2
101	104	5
10	12	4
14	15	1
104	104	1
121	123	1
86	86	1
106	107	3
16	16	2
81	82	3
27	27	1
75	90	2
136	138	1
15	15	2
22	22	1
97	103	1
115	120	2
74	74	5
124	124	4
20	21	1
80	82	4
119	120	2
136	139	1
26	26	2
88	94	1
38	39	2
84	84	3
29	96	2
8	8	2
28	29	2
79	81	2
6	16	2
112	114	2
71	94	1
33	34	1
0	0	4
130	131	1
95	95	1
77	77	3
83	84	2
121	121	1
6	30	1
78	79	2
2	3	2
73	73	2
25	26	1
76	94	1
11	12	1
14	14	2
115	116	2
11	13	2
111	112	2
110	110	4
7	15	1
6	7	1
101	106	2
140	140	2
71	72	2
133	134	2
110	115	2
80	80	1
7	8	1
76	76	1
110	120	1
133	133	2
99	127	2
88	88	2
22	23	1
122	122	1
