59	64	4
57	57	15
129	129	11
101	102	3
80	81	3
14	14	3
66	97	4
24	24	5
82	82	4
70	77	11
20	21	5
63	64	6
109	111	4
76	91	4
11	12	3
111	111	9
125	125	8
69	69	4
22	71	2
130	130	5
56	56	5
32	32	11
16	16	12
56	113	3
99	99	5
46	46	10
42	94	5
76	77	4
86	87	3
84	84	7
108	108	14
126	127	2
104	105	1
73	83	2
105	122	3
115	118	5
18	18	11
48	55	4
88	88	12
30	30	6
55	55	6
106	107	6
50	56	4
60	63	1
46	47	5
27	69	4
98	98	4
93	93	4
59	59	7
120	122	8
14	15	4
120	132	1
87	91	3
11	19	5
8	8	6
63	63	8
72	76	2
5	5	5
62	62	8
31	31	5
68	92	4
112	112	2
46	102	5
68	68	10
27	28	4
72	72	6
127	127	6
44	45	5
95	96	2
79	79	9
64	65	6
115	115	5
18	21	2
120	120	10
98	99	5
57	58	7
119	119	2
55	115	2
52	52	9
58	112	2
1	62	3
104	104	4
3	3	9
84	86	1
1	1	9
11	11	7
43	45	3
59	60	8
23	23	3
85	86	1
85	85	2
14	18	1
55	126	5
114	114	15
71	71	3
56	110	2
118	118	7
117	117	4
78	94	1
121	122	6
15	15	10
121	132	3
124	124	10
17	17	5
106	110	2
34	34	2
84	89	3
63	65	3
88	89	3
57	93	4
60	62	4
42	43	2
49	50	3
39	39	4
9	79	1
64	64	3
74	74	1
6	23	4
21	31	1
86	86	3
109	109	9
109	110	4
81	81	5
101	101	3
92	92	4
2	2	11
19	21	5
69	104	2
75	75	1
42	46	2
120	121	7
105	105	8
97	100	3
90	91	1
84	85	4
54	54	3
4	4	8
6	22	4
12	12	4
60	60	6
82	90	4
124	125	3
121	123	2
0	1	5
25	32	2
121	121	3
123	123	6
110	110	5
52	105	2
103	103	9
72	73	4
125	132	1
39	46	3
40	40	2
94	94	4
100	100	2
72	100	3
131	131	1
66	70	1
128	129	3
25	72	4
115	119	3
97	97	3
11	13	2
18	22	3
17	23	6
74	75	2
64	70	3
102	103	4
6	17	2
85	89	4
93	94	3
53	55	1
84	90	8
73	73	3
4	5	3
114	116	4
108	114	1
29	84	1
70	90	3
132	132	6
81	93	2
7	7	6
78	79	4
133	133	4
83	83	3
72	82	3
33	99	1
43	43	7
78	78	6
47	47	5
7	30	1
47	113	1
66	66	2
33	75	1
1	2	1
108	119	4
29	29	4
51	51	4
51	106	5
33	83	2
87	87	1
27	27	3
33	33	3
83	85	1
53	68	1
83	84	2
2	4	6
80	80	1
109	119	5
65	65	10
109	133	5
95	95	4
65	66	2
102	102	8
61	62	2
50	106	3
132	133	4
44	44	6
30	31	8
108	115	3
122	123	5
109	113	2
18	19	1
73	82	1
39	48	3
111	112	1
118	119	3
66	100	2
11	27	3
90	90	1
12	25	1
39	121	4
66	99	7
25	133	2
102	113	2
56	112	2
91	92	1
72	75	4
10	11	1
77	84	2
106	106	3
62	64	1
8	22	4
69	79	1
25	25	7
65	71	1
119	124	2
22	23	3
43	78	1
5	6	2
86	88	2
65	99	1
13	13	4
13	17	1
41	42	3
52	56	4
38	93	2
71	83	2
12	32	1
66	81	2
47	119	2
107	107	6
72	74	1
48	48	3
72	97	1
77	90	3
122	124	2
68	88	2
64	93	1
111	121	2
77	77	3
12	13	6
43	74	2
74	78	1
20	24	2
39	41	1
105	107	3
6	63	1
50	50	3
53	112	3
42	119	3
58	65	4
0	0	2
123	124	1
33	76	1
42	45	2
64	74	2
130	131	2
61	61	2
76	76	5
66	101	1
32	81	2
10	25	2
60	97	3
23	24	1
122	122	6
5	32	2
41	43	1
68	91	1
55	58	1
63	97	2
48	50	3
97	99	1
19	19	6
22	27	1
83	96	1
21	21	1
53	53	4
48	117	1
42	117	2
70	71	1
58	126	2
126	126	3
58	96	2
53	81	2
19	23	1
92	94	1
83	97	1
28	28	1
89	90	1
50	51	2
23	27	2
9	9	2
14	16	3
70	70	4
78	90	1
126	129	2
62	128	1
26	27	1
116	117	2
110	125	1
84	100	1
113	117	2
116	116	1
45	117	1
40	64	1
70	101	1
42	118	1
49	49	1
6	6	2
8	9	1
68	96	1
75	76	1
55	57	1
90	97	2
9	90	1
1	53	1
51	55	1
21	29	1
52	53	2
8	31	1
113	113	2
81	82	2
47	109	1
110	112	1
45	45	2
4	71	1
107	113	1
45	127	1
15	16	2
7	24	1
41	41	1
33	64	2
125	131	1
91	91	1
51	52	1
29	83	1
89	89	3
96	98	1
55	114	1
60	61	1
