18	18	15
134	134	10
8	37	2
114	115	2
135	135	18
19	19	21
66	66	20
27	27	7
68	102	4
21	22	2
36	37	5
64	80	6
19	20	3
35	35	15
8	11	3
20	20	13
15	15	8
95	97	4
92	133	1
76	76	3
97	98	7
49	50	7
38	38	15
104	105	6
139	139	10
61	66	6
143	143	10
63	131	4
88	88	9
39	43	2
55	58	1
74	74	14
81	82	5
4	36	3
109	110	6
25	27	2
16	16	16
127	132	4
112	141	5
34	36	1
134	136	1
140	141	15
129	129	12
12	13	3
134	140	4
102	102	8
118	118	19
94	95	6
104	108	1
141	141	16
34	35	5
99	99	7
25	26	10
128	129	8
58	58	6
62	64	2
67	67	9
124	124	14
112	113	6
93	93	17
130	134	4
29	29	24
5	5	10
137	140	6
10	69	3
53	55	8
112	112	11
6	41	2
65	80	2
134	137	2
13	14	8
3	3	28
110	111	5
27	72	3
26	27	3
94	94	13
100	100	17
70	70	12
123	123	10
71	72	4
138	138	13
125	126	3
62	65	4
119	120	2
22	22	9
126	126	13
26	26	10
72	72	17
40	40	12
81	102	3
59	59	11
104	117	6
90	91	14
96	131	6
53	54	2
54	54	16
30	30	20
42	42	12
131	134	2
107	107	15
111	137	1
111	111	3
98	98	10
77	79	6
85	87	1
31	32	2
64	65	9
68	68	13
120	120	19
48	48	20
82	82	15
49	49	7
53	53	14
75	75	6
33	33	10
38	39	2
17	17	14
5	6	5
62	83	1
82	106	3
60	60	7
110	110	9
17	54	2
96	97	11
61	61	7
59	60	3
56	82	1
93	97	1
40	94	6
84	85	4
78	79	6
33	34	2
88	89	5
21	21	24
9	9	9
11	11	5
128	128	4
80	103	2
106	106	1
70	71	4
30	97	2
14	55	4
71	71	18
95	95	13
50	51	9
113	114	11
63	122	4
37	37	7
55	57	3
101	101	18
128	133	3
85	85	11
23	23	5
68	70	4
127	127	9
50	50	9
137	137	8
63	64	2
122	122	12
25	31	3
24	55	2
68	71	3
83	83	1
17	18	5
55	90	4
117	117	23
56	63	1
2	3	8
144	144	18
13	13	17
53	58	2
22	23	1
102	141	1
69	70	4
136	136	7
118	137	1
2	5	2
125	125	5
31	31	9
24	25	2
124	135	3
4	4	9
83	86	1
116	116	14
119	119	13
55	139	2
67	71	1
0	48	1
72	87	5
122	139	4
1	2	2
56	57	3
39	39	7
32	32	5
88	92	2
91	91	10
37	38	4
81	81	9
49	56	5
8	8	6
2	48	4
132	132	11
69	69	2
6	6	9
62	62	11
27	28	6
20	23	3
137	139	4
26	30	1
130	130	9
133	133	9
86	86	10
81	122	2
62	80	3
53	100	2
1	1	6
25	25	9
28	28	15
68	69	1
15	16	1
0	3	5
50	108	2
79	105	3
124	138	1
89	89	18
32	33	3
100	104	2
90	90	7
124	125	5
123	139	2
41	41	10
62	141	3
14	14	15
34	34	15
36	36	4
30	32	3
140	140	7
122	123	10
0	1	8
49	96	1
96	96	12
125	127	6
113	113	1
74	92	4
131	135	5
139	140	4
65	66	3
105	106	2
87	87	8
142	142	7
73	73	8
52	52	8
60	62	1
4	5	1
51	51	6
67	103	2
112	115	4
63	63	10
136	141	2
83	85	2
124	140	3
88	91	3
29	96	1
2	2	13
60	61	4
21	69	3
100	101	1
65	65	8
132	137	5
16	17	4
143	144	4
67	138	2
80	80	6
74	75	3
15	19	3
27	88	1
42	56	3
87	88	1
88	90	3
133	136	3
134	135	1
56	56	5
136	137	2
77	78	4
109	109	8
92	94	5
92	92	4
73	121	1
43	43	6
77	108	3
8	9	1
138	139	3
104	104	10
101	102	5
40	42	2
109	115	2
29	97	2
35	37	2
49	64	1
120	121	1
52	54	7
78	119	3
38	42	1
87	138	5
51	52	1
79	81	6
50	111	1
119	126	2
51	108	1
42	49	2
32	34	1
11	39	2
144	145	4
47	48	6
25	32	3
115	115	2
105	105	3
70	128	1
59	126	1
103	103	9
118	122	3
117	139	1
141	144	1
118	131	1
114	117	7
125	132	4
129	131	1
92	93	4
14	53	2
95	96	4
48	58	2
40	83	4
1	6	2
121	121	5
56	67	1
93	95	5
139	141	3
52	56	1
131	131	18
125	134	2
88	93	1
106	139	3
24	24	3
80	81	1
61	62	3
141	142	1
6	37	1
125	133	1
64	64	2
64	139	3
11	99	1
67	140	4
10	10	7
114	114	7
79	79	4
54	57	1
64	118	1
56	58	3
48	50	4
54	55	4
96	98	1
115	116	1
21	36	4
61	78	1
55	55	10
138	140	5
116	117	2
108	109	3
115	117	2
3	50	2
110	115	1
119	132	1
129	130	4
106	107	4
9	41	1
128	132	1
30	31	1
55	60	1
20	21	9
4	33	1
71	88	2
136	138	3
142	143	1
127	129	1
56	145	1
146	146	3
73	82	1
1	8	1
49	55	2
136	139	3
42	61	1
108	108	2
76	77	1
97	97	2
13	18	2
32	89	3
87	101	4
78	78	5
38	141	1
75	76	1
84	84	7
47	50	2
70	73	2
130	131	1
98	117	2
99	131	1
55	56	1
10	68	3
73	123	2
73	130	1
102	106	1
113	115	3
43	138	1
128	130	3
12	12	5
91	92	1
142	144	3
63	104	1
88	95	4
67	68	3
18	19	2
107	109	1
8	41	1
128	136	2
22	24	1
116	119	1
10	11	2
135	137	1
120	126	5
9	11	2
23	24	1
32	90	2
58	60	1
121	122	1
77	77	2
67	106	1
126	127	2
49	52	2
9	55	2
126	131	1
103	143	2
6	8	1
3	35	2
73	74	1
29	30	2
79	80	1
71	124	1
83	87	2
47	113	2
92	95	2
64	66	2
118	119	2
47	47	1
18	21	1
68	82	2
51	67	1
93	94	3
134	145	1
37	68	1
95	130	1
53	120	1
52	53	1
26	51	2
11	55	3
87	89	1
117	126	1
105	139	2
57	73	1
89	90	1
56	61	1
131	137	1
1	35	1
130	132	1
79	106	1
62	74	1
41	77	1
126	133	2
89	95	1
0	0	1
82	83	1
33	68	1
114	123	2
69	103	1
57	57	4
121	134	1
90	94	2
26	29	1
75	101	1
109	111	3
54	58	2
1	3	1
72	124	1
112	114	1
12	20	1
121	125	1
104	111	1
63	65	1
69	99	1
30	33	1
0	33	1
63	118	2
132	133	1
71	96	1
132	136	1
40	41	1
73	88	1
73	89	1
121	135	1
56	60	1
47	56	1
