74	74	16
98	99	4
34	46	4
62	80	7
45	50	2
88	98	2
26	27	2
95	97	5
41	42	1
102	102	3
94	95	3
48	60	1
57	57	22
60	65	1
79	80	2
23	44	1
88	88	6
58	58	6
47	48	1
24	83	3
63	64	4
92	94	3
62	92	2
75	75	24
68	69	2
90	93	2
46	46	7
65	65	7
79	79	8
67	89	8
87	88	6
39	39	12
80	80	13
48	82	4
29	29	8
72	73	3
62	62	8
35	48	4
24	32	5
92	92	7
61	68	6
23	28	5
84	87	3
67	67	17
61	61	11
62	63	2
72	76	1
67	85	2
50	59	3
47	49	2
46	47	3
101	101	4
77	77	8
31	31	8
73	73	8
55	55	7
75	78	2
63	63	14
26	28	7
41	72	1
48	48	8
83	83	10
60	60	7
61	75	2
44	44	6
74	86	2
64	68	4
80	84	2
61	66	4
35	42	3
60	61	3
91	91	5
86	86	13
70	71	4
48	68	2
64	65	4
94	94	2
42	42	9
84	84	11
60	81	6
51	51	2
81	93	1
81	82	3
76	76	2
73	74	6
54	54	4
64	66	2
61	62	5
97	97	14
89	89	7
68	68	10
72	72	9
37	40	1
42	50	3
65	67	6
45	45	4
61	63	7
35	35	2
41	41	6
52	53	1
99	99	2
50	82	4
81	84	1
37	38	8
66	69	1
70	70	10
69	69	5
69	70	3
90	91	7
35	49	2
64	64	4
47	47	4
78	79	4
29	52	1
73	87	2
50	50	7
48	79	4
100	100	2
71	72	1
95	95	4
38	38	2
66	80	3
68	81	4
53	55	1
96	96	7
67	78	3
45	47	1
43	72	1
71	71	4
65	66	5
37	60	3
80	81	6
81	81	1
76	77	1
26	26	2
98	98	4
72	74	1
78	78	5
31	45	2
62	71	3
56	56	5
24	24	2
27	27	1
56	58	3
87	98	2
38	39	8
90	90	2
27	54	1
67	87	2
30	35	1
60	75	2
25	25	6
37	76	2
63	77	1
87	87	2
37	37	2
55	57	2
85	89	2
92	93	4
43	43	4
44	51	3
20	29	1
62	85	2
73	75	4
60	79	2
93	93	1
25	27	1
75	92	1
77	78	1
35	37	2
64	67	1
61	85	2
56	57	2
48	50	3
22	40	2
48	54	2
38	56	2
23	25	1
20	25	1
95	102	1
63	82	2
67	79	1
80	82	2
68	87	2
79	81	2
31	40	1
66	79	3
67	70	1
62	86	1
39	40	1
43	51	1
74	93	1
68	72	2
50	51	2
62	72	1
45	55	2
42	43	1
30	30	4
83	90	1
62	68	1
99	100	1
40	51	1
76	80	1
74	96	1
39	61	1
38	60	1
27	33	1
82	82	2
92	98	2
74	75	1
52	52	1
49	49	1
59	59	2
26	55	2
86	87	2
85	85	3
63	65	1
28	54	2
35	36	1
34	51	2
63	68	1
34	36	1
29	30	1
29	50	1
45	51	2
76	81	1
61	81	2
60	80	1
84	86	1
65	79	1
73	94	1
36	75	1
36	36	1
48	92	1
