36	36	6
140	143	6
124	124	6
0	0	6
14	15	1
108	111	2
71	72	3
28	52	1
12	12	4
27	28	1
125	126	1
123	123	2
53	54	3
52	52	5
61	72	2
165	165	11
150	151	4
130	139	1
51	51	5
89	89	5
122	122	5
0	1	4
139	142	3
148	149	5
136	136	3
21	21	3
38	38	10
116	130	4
112	114	3
18	20	6
126	126	5
80	80	4
75	75	9
33	34	1
149	149	9
24	24	7
64	65	2
116	116	8
90	90	5
4	4	2
83	83	11
106	107	5
27	27	9
85	85	7
56	56	3
159	159	10
69	70	1
13	48	2
56	57	4
160	160	6
41	41	10
5	5	10
7	8	4
108	108	8
123	124	1
124	125	1
158	159	3
123	128	3
1	2	2
19	19	12
164	165	2
90	94	1
87	87	4
39	135	4
55	55	5
111	111	5
22	23	5
161	161	2
156	156	4
96	97	3
90	91	2
146	146	7
105	105	4
76	101	1
158	158	4
97	97	7
53	53	5
85	86	2
147	148	3
35	35	3
98	98	3
55	56	2
56	108	2
96	96	8
3	3	6
135	136	4
66	131	4
69	69	5
109	109	3
127	128	5
88	88	7
17	27	2
73	82	2
9	50	1
18	18	2
152	153	1
22	22	4
118	118	6
74	74	4
12	26	3
120	121	1
11	12	1
157	157	5
10	11	2
95	95	4
138	138	2
4	36	5
131	131	4
88	89	5
146	147	2
33	33	5
114	116	1
82	84	3
44	44	2
76	100	3
152	152	7
170	170	3
126	132	2
71	71	4
156	157	3
47	47	8
65	65	4
64	126	2
140	140	1
57	67	1
92	92	10
146	152	3
166	166	6
74	83	2
92	93	1
4	5	1
9	9	5
25	25	3
11	50	2
8	8	4
139	139	1
63	64	7
23	24	4
7	11	4
116	145	1
20	20	2
116	125	4
5	6	7
106	106	2
151	151	3
163	163	4
93	93	1
133	133	5
13	13	5
73	73	5
118	119	1
153	153	2
43	43	5
167	167	1
53	55	4
64	67	2
128	129	1
101	102	1
160	161	1
74	77	2
162	164	2
126	127	3
80	81	1
101	101	2
14	14	5
6	6	3
86	86	3
145	146	3
112	130	1
91	91	1
20	21	1
107	107	3
142	143	2
113	113	2
15	15	6
103	103	3
48	48	3
2	2	7
70	71	3
82	83	2
120	120	6
39	40	4
66	129	1
84	84	5
134	134	5
81	81	4
125	127	5
157	161	2
58	62	2
166	167	3
150	154	4
137	137	2
122	123	2
150	150	4
102	102	1
7	7	3
118	155	3
148	148	2
42	42	1
130	130	3
144	145	5
154	154	5
74	75	3
127	127	5
105	107	3
130	131	1
55	70	1
79	133	3
135	135	4
0	9	1
163	164	3
117	117	5
162	165	1
17	24	1
21	72	4
155	155	2
50	51	5
106	108	1
132	137	1
114	131	2
49	49	3
14	16	3
74	82	1
76	76	1
106	139	1
5	7	2
113	114	2
105	139	4
128	130	1
20	44	1
144	144	1
143	154	1
145	154	2
129	129	3
72	72	2
100	100	3
26	26	3
78	78	2
155	156	1
40	40	2
159	160	1
46	48	1
79	80	1
138	139	2
82	82	4
70	70	1
103	133	1
48	57	2
6	8	4
11	49	2
99	99	1
34	34	4
54	55	2
39	45	1
23	23	4
131	135	1
28	28	2
64	68	1
56	67	3
10	10	2
143	157	3
46	46	2
105	106	2
84	97	1
10	14	1
140	141	3
115	115	1
19	23	1
169	169	1
119	119	1
168	168	4
145	145	1
45	45	1
79	79	1
125	125	1
121	122	1
17	18	1
162	163	1
119	155	1
24	25	1
164	164	1
63	63	1
76	77	1
121	121	1
142	142	2
129	130	1
11	39	1
111	112	1
66	66	1
77	77	1
13	14	1
99	101	2
98	99	2
93	94	1
112	112	1
44	45	1
64	135	1
143	144	1
58	69	1
128	128	2
22	73	1
68	69	1
15	38	1
26	33	1
163	165	1
67	67	1
147	153	1
116	117	1
111	113	1
4	6	1
65	135	1
44	46	1
127	132	1
24	48	2
52	53	1
