73	73	10
134	134	10
104	104	11
1	1	8
22	22	14
89	90	6
22	23	10
1	2	5
5	6	3
87	88	2
109	109	13
118	118	18
30	31	6
110	111	7
94	94	13
101	102	8
16	16	9
133	133	5
5	5	13
107	107	10
78	109	1
89	89	15
21	21	8
98	98	21
135	135	9
5	17	2
125	126	7
77	77	11
96	97	10
111	111	13
7	7	16
95	95	23
99	99	5
120	120	15
29	29	4
97	98	3
24	24	12
87	87	21
79	80	6
80	107	1
37	37	7
15	17	3
123	123	13
4	34	1
81	81	14
38	38	11
74	74	4
31	78	3
3	4	3
90	90	8
9	9	5
101	101	9
120	121	3
127	127	10
23	23	15
10	11	4
2	37	1
116	116	5
90	91	4
28	28	11
34	34	8
121	121	8
109	114	1
110	110	11
17	17	6
128	128	9
119	119	24
4	4	6
83	83	5
91	91	13
66	66	4
79	79	7
130	130	11
93	93	19
6	6	9
102	102	8
119	120	4
136	137	4
23	26	2
33	34	1
137	138	3
13	13	12
132	132	9
99	100	5
24	25	5
92	120	4
78	78	15
104	107	4
31	32	5
75	75	4
10	10	6
33	37	2
77	78	9
14	14	9
122	122	9
88	88	7
11	11	5
33	99	6
8	9	7
117	117	3
93	95	12
84	84	9
124	124	10
82	96	3
7	14	3
21	22	6
97	97	12
125	125	6
72	72	10
134	136	3
126	128	2
83	84	4
32	32	11
138	139	3
27	27	20
108	109	9
74	108	3
95	124	4
107	111	6
102	103	5
2	2	4
112	112	10
106	106	15
73	74	2
12	18	1
33	97	1
24	26	2
129	130	7
123	124	5
15	28	1
15	16	4
0	0	4
80	80	17
118	119	4
118	122	3
2	18	5
104	105	4
37	72	4
131	131	9
129	129	21
19	19	11
26	26	6
138	140	3
136	136	4
100	101	3
72	101	1
82	107	2
30	30	6
10	12	2
12	12	5
95	96	5
16	17	4
2	3	4
33	33	12
85	119	1
81	83	10
139	139	3
138	138	10
2	8	1
97	99	5
74	103	2
25	25	5
133	134	1
114	114	10
126	126	6
32	33	1
26	28	3
18	19	2
103	104	4
140	140	5
85	85	7
78	79	2
3	3	7
15	15	2
27	28	6
82	82	5
90	111	2
4	5	1
36	36	18
90	122	1
11	76	2
81	84	2
111	112	2
30	77	3
101	103	1
93	94	3
85	91	3
82	101	1
105	105	5
29	30	2
115	115	9
11	12	5
12	19	2
84	85	8
94	96	1
137	137	2
8	31	1
124	125	1
130	131	3
5	13	1
89	119	3
72	73	4
82	103	3
91	93	5
77	79	2
92	92	2
127	130	2
35	35	11
100	103	1
35	36	2
94	108	2
27	29	1
113	113	4
20	21	2
26	27	1
6	19	2
134	135	4
82	83	4
99	105	1
36	37	1
8	12	1
34	35	4
84	111	2
108	108	3
9	10	3
76	112	1
6	96	1
12	13	1
74	80	5
25	26	1
30	95	2
8	8	2
122	123	2
116	117	4
109	110	3
83	85	2
114	117	3
82	97	1
18	18	1
89	92	4
94	109	3
73	125	1
109	117	2
74	76	1
131	132	3
2	38	3
71	71	6
20	20	2
100	100	6
136	139	1
105	109	1
7	8	1
114	115	2
135	136	2
135	137	1
86	86	2
93	102	2
14	28	3
8	13	2
121	126	2
73	80	1
13	14	4
14	16	2
33	38	3
37	92	1
3	5	2
133	135	2
6	21	1
91	123	2
128	129	1
109	111	1
7	90	1
15	26	1
103	103	3
14	15	1
18	25	2
19	20	4
81	103	1
21	32	1
85	105	1
80	82	2
35	96	1
72	74	1
88	109	1
93	98	1
128	130	1
88	89	3
76	76	1
86	94	1
74	75	2
6	7	1
98	99	1
87	91	4
121	122	3
4	6	2
34	36	1
112	114	1
28	29	2
12	15	1
9	12	2
91	122	1
33	94	1
85	86	2
92	93	2
120	122	1
126	129	1
88	117	1
17	34	1
7	37	1
106	110	1
89	117	1
90	118	1
102	108	1
94	95	1
91	119	1
84	108	1
7	9	2
102	120	1
30	32	1
6	38	1
115	116	1
19	121	1
102	111	1
14	38	1
113	114	1
