65	66	17
79	79	18
80	81	5
58	58	13
69	69	23
53	53	15
99	99	10
94	94	4
77	77	44
75	75	16
81	81	24
96	97	4
50	50	8
89	89	10
66	66	36
67	68	16
26	26	15
76	77	9
97	101	6
79	83	4
62	62	37
91	91	21
40	40	26
80	80	40
35	35	6
64	64	24
43	44	5
35	36	5
76	78	5
80	83	5
83	83	23
78	79	3
47	52	1
48	48	14
60	60	25
68	69	4
45	45	10
57	57	20
74	74	28
65	65	36
87	87	8
71	71	30
97	98	9
36	36	14
44	44	16
73	91	4
70	70	22
62	63	1
95	97	5
63	63	33
46	46	14
87	88	6
34	34	8
61	61	12
98	98	9
59	60	7
41	42	4
31	31	17
76	76	20
54	87	3
28	33	5
92	92	4
73	73	16
48	49	6
85	85	41
93	93	8
86	87	2
32	32	10
27	27	4
63	64	17
96	96	6
84	84	8
64	65	19
37	37	21
22	22	10
69	70	11
52	75	4
34	39	2
52	52	20
50	51	3
94	96	3
24	24	4
36	44	4
95	95	7
58	76	2
84	87	1
39	83	5
31	32	4
65	67	5
51	72	4
71	77	2
20	24	1
52	78	7
74	75	6
92	93	7
51	52	2
77	79	1
44	50	3
22	47	5
90	90	12
51	51	15
43	90	5
87	89	2
84	85	4
72	73	10
64	66	7
70	71	9
35	44	3
68	68	12
33	33	7
40	84	3
88	89	4
41	41	5
29	30	2
43	43	11
23	23	3
79	81	8
31	42	2
72	72	18
55	55	9
82	82	2
62	64	3
38	39	10
68	73	4
95	99	4
92	98	4
53	77	2
69	71	6
54	55	10
39	100	2
25	25	5
55	77	3
49	49	16
71	72	3
34	35	3
28	28	7
86	86	11
77	78	3
100	100	3
20	20	3
59	59	7
33	80	3
67	67	26
67	69	3
61	62	2
43	83	1
78	78	15
41	43	1
54	77	3
23	24	1
30	30	3
72	74	5
74	79	1
51	59	1
35	38	1
36	37	3
42	42	14
82	91	1
83	88	3
93	94	7
57	59	2
34	40	3
44	45	4
66	68	3
88	88	7
67	72	2
47	47	2
79	80	1
26	27	4
86	88	4
26	97	3
29	29	9
80	84	1
48	55	3
62	65	2
35	37	1
72	84	1
56	96	1
20	26	2
56	57	3
39	39	9
66	67	4
26	99	1
38	38	8
35	84	2
56	56	8
63	66	3
95	101	4
101	101	5
94	95	6
58	60	1
83	85	5
55	56	3
56	101	1
46	87	6
53	84	1
73	83	2
71	76	5
24	25	3
95	100	1
38	96	1
62	89	1
63	65	3
78	88	2
82	89	2
61	87	1
101	102	3
58	75	2
98	99	2
57	74	2
34	81	3
49	50	2
51	58	2
46	54	2
35	40	2
45	46	1
24	27	2
52	77	1
70	75	1
44	73	1
80	93	2
73	82	1
40	44	1
79	84	2
79	87	1
23	26	1
62	69	1
60	61	1
51	75	1
30	31	1
32	33	3
20	50	3
85	86	2
33	34	1
20	22	1
70	72	1
41	74	1
76	85	2
40	41	1
35	86	1
35	45	1
26	33	1
42	43	1
72	82	3
54	54	1
82	85	3
52	53	1
26	34	1
89	90	1
46	47	1
45	77	2
90	91	1
58	59	1
60	62	1
66	89	1
73	74	1
54	84	1
43	82	1
47	48	1
