89	89	9
127	127	7
178	178	6
16	111	5
23	24	4
171	172	3
176	177	4
20	108	1
113	113	7
176	176	6
48	77	7
84	84	3
80	80	6
184	185	3
109	109	17
104	114	2
173	176	2
65	106	2
93	122	1
16	16	5
100	100	5
39	39	7
74	75	4
124	124	11
137	137	13
134	134	2
27	77	4
123	133	1
93	93	4
113	118	2
87	87	8
22	22	2
21	110	3
20	112	1
66	68	1
29	29	6
16	17	7
23	27	3
82	82	6
3	3	4
67	67	6
65	65	6
58	58	4
23	23	5
97	97	3
145	145	6
182	189	4
12	18	3
147	147	8
78	78	9
175	175	8
185	186	4
168	180	2
151	151	8
180	180	12
59	59	16
106	116	3
183	183	1
8	82	3
140	186	3
13	14	2
101	118	1
35	35	8
136	136	4
70	76	1
94	109	3
183	184	3
33	37	4
43	43	5
8	54	2
99	100	3
18	19	4
106	106	7
28	29	4
76	105	4
152	152	9
20	20	8
134	136	5
109	153	3
161	161	2
105	105	10
3	5	2
128	138	1
56	56	9
177	178	7
79	80	6
158	158	10
86	86	11
143	143	5
4	82	1
114	163	4
170	170	3
67	106	3
63	63	3
73	73	3
36	36	6
12	12	10
11	12	2
138	138	3
172	172	3
38	38	8
0	30	2
6	6	4
126	126	6
7	7	2
171	171	7
184	189	4
128	128	7
173	173	4
62	62	5
96	96	6
41	60	1
88	94	1
149	149	11
74	83	2
0	2	3
54	55	3
146	162	2
142	179	1
91	91	5
71	73	1
44	44	3
37	37	8
30	36	3
44	57	2
17	18	4
43	57	4
150	150	5
59	61	2
25	55	2
116	116	7
81	81	3
33	33	11
29	30	1
165	180	1
32	32	13
46	46	1
57	83	2
40	40	2
169	169	2
102	102	4
129	139	4
100	101	4
151	155	4
95	95	5
154	155	2
72	73	1
92	92	2
129	129	6
88	88	3
177	177	3
182	182	3
27	74	1
70	70	3
139	139	2
1	5	2
116	117	2
190	190	5
175	177	5
52	77	1
166	166	2
108	144	1
175	179	2
149	184	3
66	67	4
163	163	3
123	123	5
2	101	1
123	128	4
104	118	3
186	187	2
7	8	2
156	157	8
4	4	3
175	176	3
2	99	1
24	25	5
60	61	6
42	42	3
108	109	5
64	64	7
185	185	2
130	130	5
24	42	2
152	153	2
21	21	2
119	130	2
122	122	4
11	11	8
61	61	1
31	37	2
146	147	4
77	77	4
52	53	2
57	57	2
101	183	2
124	125	1
31	39	1
140	141	2
160	160	4
118	123	1
10	11	4
1	1	2
15	15	10
26	26	6
174	174	4
41	41	5
59	78	5
123	124	3
24	24	4
25	54	1
87	88	7
70	139	2
69	69	2
133	161	2
148	148	2
13	13	3
159	160	2
17	17	6
104	132	3
0	0	2
137	138	2
133	146	2
70	71	3
45	70	2
89	90	3
127	138	2
57	58	1
92	119	5
26	96	3
183	189	2
183	185	2
118	150	2
5	5	7
133	133	4
129	149	3
131	132	2
181	182	4
32	34	2
69	156	2
117	118	1
79	128	3
52	106	5
8	10	1
93	119	1
34	38	1
35	39	2
107	112	1
144	167	2
155	155	1
137	158	1
97	98	1
182	183	1
172	173	1
15	24	2
53	53	2
138	158	1
145	179	2
132	132	3
108	134	2
184	184	3
90	94	2
56	101	2
153	154	1
146	146	7
125	125	9
148	185	3
18	18	7
30	31	2
109	114	3
9	10	4
55	131	1
107	107	1
74	80	1
2	2	2
121	124	3
10	27	3
187	188	4
153	153	3
29	36	1
43	65	2
83	129	1
48	85	1
67	68	3
31	31	5
167	167	4
10	40	1
119	119	5
91	93	2
156	156	3
96	97	1
94	116	2
18	23	2
125	151	1
25	25	4
17	38	4
44	85	2
20	21	2
53	54	3
83	83	1
0	71	2
45	69	1
5	13	1
58	59	1
41	88	1
134	135	1
25	91	3
124	151	2
48	48	2
129	141	1
108	110	5
95	152	3
65	115	1
179	179	1
188	188	6
133	162	2
20	63	1
71	80	1
189	189	4
71	71	3
120	122	1
93	114	1
43	71	2
115	159	3
48	107	5
15	82	3
13	74	3
171	173	1
39	153	2
18	111	1
41	57	1
151	158	1
104	104	4
3	83	2
120	121	1
179	180	2
161	168	1
98	98	1
164	164	3
68	86	2
27	28	2
81	145	1
5	55	1
169	173	3
33	35	1
117	160	2
30	30	5
28	28	1
45	47	2
22	26	1
63	64	2
153	157	1
56	64	1
42	44	1
75	114	1
62	85	1
134	137	1
120	147	2
60	60	2
68	114	1
176	187	1
92	93	2
37	97	1
108	111	2
90	90	1
7	53	2
174	175	1
47	73	1
162	163	2
12	13	2
26	85	1
121	121	1
111	111	3
76	93	1
110	111	2
56	160	2
180	190	1
159	159	1
162	162	2
118	160	2
35	36	3
141	141	3
16	108	2
23	26	3
25	85	1
7	83	1
84	85	1
38	43	2
165	187	1
12	92	1
5	15	3
182	187	1
109	111	1
56	85	2
90	106	1
108	108	3
146	179	1
187	189	1
28	38	1
45	45	1
108	128	1
17	95	1
40	41	1
160	167	1
3	4	1
99	99	2
66	66	2
16	76	1
23	67	1
101	103	1
188	189	1
56	57	1
23	66	1
153	158	1
27	84	1
53	68	2
44	48	1
65	66	2
187	187	2
76	76	1
34	35	1
75	75	1
57	63	1
54	84	1
95	113	2
108	112	2
67	88	1
68	70	1
115	115	2
103	103	1
148	184	1
5	83	1
9	9	1
157	157	1
126	137	3
60	63	1
126	133	1
142	187	1
129	130	1
58	160	1
157	158	1
185	189	1
