111	114	3
127	128	3
13	14	3
19	35	3
19	19	9
78	78	7
122	122	13
99	100	2
94	128	1
13	13	1
19	72	2
31	73	1
75	75	8
11	21	7
72	72	7
18	18	6
25	27	1
35	36	4
32	33	2
134	135	9
28	31	2
130	132	4
26	26	7
92	92	6
98	104	2
79	79	6
120	122	5
124	125	5
10	11	4
135	135	9
16	31	3
100	121	5
102	109	2
85	85	6
17	19	4
110	118	1
7	7	11
89	89	8
129	129	7
99	99	7
110	112	2
120	121	11
139	139	7
94	95	1
80	89	5
80	85	2
2	5	4
22	28	3
108	108	7
24	24	1
101	101	7
32	37	6
27	27	11
81	92	3
113	129	1
134	134	10
108	109	5
74	78	1
23	24	3
83	102	3
79	130	3
20	20	8
96	103	4
84	102	5
114	115	4
2	77	1
90	90	4
117	117	5
24	25	4
125	125	1
86	88	2
86	86	6
116	131	4
121	122	2
87	87	8
79	83	1
15	72	2
16	29	2
81	82	4
0	0	6
0	1	2
138	138	2
89	104	3
110	110	6
140	140	7
124	128	1
107	108	3
92	93	8
91	102	4
130	130	9
3	10	1
8	17	3
111	113	5
128	128	10
25	25	6
89	90	5
96	102	1
35	38	4
102	103	3
109	112	1
122	123	2
34	34	5
100	100	3
81	81	4
16	18	2
28	28	8
112	131	4
2	73	1
109	109	6
29	33	3
79	86	1
102	102	8
81	86	2
88	99	1
29	31	3
31	31	6
1	75	1
32	32	3
86	95	7
11	12	1
76	77	7
126	127	5
31	34	4
83	89	2
103	103	2
120	124	2
2	76	3
36	36	3
125	126	7
7	86	2
92	95	5
121	123	3
28	29	2
115	129	2
68	68	3
17	26	1
118	118	9
2	4	2
125	129	1
2	3	1
38	38	7
2	2	8
124	127	3
81	83	2
79	89	2
72	74	3
84	84	4
23	25	2
73	89	2
111	117	1
110	119	2
80	80	3
82	97	4
125	127	4
3	4	2
94	96	6
73	73	3
19	20	4
124	124	7
101	115	3
100	101	5
15	21	2
72	90	3
20	26	1
133	135	1
111	123	3
95	105	2
4	4	7
77	77	3
4	5	2
15	23	4
12	15	3
115	115	4
1	3	1
107	109	4
83	83	2
92	104	1
14	28	1
110	115	2
98	109	1
123	123	2
105	108	3
22	22	6
22	26	1
118	119	1
82	127	1
0	76	1
20	82	2
1	12	2
117	129	3
98	98	5
114	131	1
16	26	1
37	37	8
7	20	1
33	33	2
136	136	2
107	107	2
127	127	5
7	8	1
17	31	1
9	9	5
71	72	1
71	74	4
1	22	1
101	106	2
134	136	2
97	97	3
99	104	1
16	28	3
4	21	2
79	82	2
135	137	2
116	117	3
85	96	2
123	127	1
30	34	2
93	93	1
103	104	2
89	103	1
106	106	2
130	131	3
113	113	4
23	23	5
128	129	3
20	22	1
1	1	2
21	25	1
5	6	2
113	114	1
119	119	2
81	87	2
105	112	1
77	79	4
116	116	3
81	84	3
74	75	2
112	115	4
73	76	5
80	87	3
91	92	2
103	113	1
88	88	1
0	8	1
24	100	1
34	37	2
121	121	3
89	98	2
95	96	1
106	119	2
12	12	5
6	6	4
106	110	1
122	128	1
104	105	3
0	2	1
88	91	1
14	14	4
101	102	1
73	74	2
105	106	3
29	29	3
80	82	1
85	94	1
3	3	10
91	108	2
98	107	1
25	26	7
102	108	1
82	84	1
86	87	1
111	125	1
101	123	2
10	16	1
74	74	1
21	21	2
75	91	1
117	121	1
3	9	2
8	8	3
137	140	1
85	87	1
93	95	5
77	94	1
112	119	1
27	29	1
34	35	2
74	88	2
21	23	2
25	38	1
17	17	3
104	113	2
132	132	4
71	91	2
17	24	2
96	96	5
118	133	2
84	85	1
14	17	1
16	27	2
117	126	1
105	116	1
15	15	3
127	129	2
1	10	1
113	131	3
72	95	3
16	21	1
7	12	1
18	30	1
87	88	1
3	8	1
98	99	1
4	7	3
11	19	1
108	121	1
83	104	1
139	140	1
27	28	3
91	98	1
6	7	3
79	81	2
10	10	2
30	30	2
82	87	1
94	94	1
82	102	1
1	19	2
101	105	2
80	90	1
134	139	2
0	3	2
114	116	1
120	133	2
80	107	1
16	19	1
113	124	2
95	95	2
80	101	1
83	110	1
131	131	1
123	128	1
4	9	1
87	93	1
18	21	1
2	9	1
25	32	1
114	114	1
16	16	1
28	30	1
32	34	1
121	124	1
0	9	1
121	129	1
99	106	1
12	16	1
91	93	1
4	8	1
79	80	1
