33	33	9
30	30	7
31	31	8
85	85	10
112	112	10
128	128	4
25	25	9
66	68	2
116	116	11
72	72	6
70	71	4
129	129	9
94	94	19
82	82	7
107	107	9
95	117	3
6	6	8
22	22	6
35	35	14
34	34	11
12	77	5
12	12	5
13	13	4
10	10	13
81	81	4
14	61	2
8	8	7
92	92	9
18	19	2
117	118	5
101	101	8
81	122	5
10	61	4
119	119	5
40	41	7
16	17	4
7	8	1
76	76	12
97	98	1
69	70	1
46	46	12
8	74	3
74	74	13
21	25	3
51	55	1
17	17	9
98	98	3
40	42	3
2	2	4
83	83	6
59	59	10
59	86	8
71	71	5
91	92	2
11	11	17
7	7	17
111	111	14
59	60	7
40	40	7
11	60	5
74	75	3
1	2	9
12	44	12
59	126	3
78	78	2
28	28	5
106	106	8
27	28	5
104	130	3
93	93	7
121	121	4
77	77	7
115	115	4
99	122	3
102	102	16
67	67	11
19	19	6
68	68	13
61	61	12
14	19	2
64	65	1
125	125	19
116	117	5
79	85	1
114	115	4
16	16	5
6	20	2
56	56	3
112	113	14
95	95	11
14	23	2
109	109	8
13	77	3
22	26	1
86	86	6
100	117	10
1	1	9
131	131	2
132	132	8
20	22	2
26	27	2
113	113	11
129	133	5
41	41	4
58	58	12
8	36	1
62	62	3
65	65	14
47	47	6
8	9	5
95	96	4
26	29	4
48	48	7
78	80	3
33	43	1
9	9	12
56	94	2
105	130	2
23	24	5
27	29	1
57	57	4
8	17	4
70	85	1
91	91	9
69	69	4
20	20	6
33	34	1
104	104	4
55	55	6
93	94	2
94	95	16
80	82	1
90	107	1
10	11	3
43	44	1
51	51	1
118	120	1
73	73	5
15	16	10
73	74	4
9	10	3
117	120	2
56	133	1
36	96	3
44	44	8
61	126	1
13	14	2
41	49	2
66	66	5
124	124	4
12	121	3
6	64	1
70	70	5
116	133	1
33	48	5
87	87	7
111	113	2
110	111	3
6	19	2
45	45	5
83	100	1
94	109	4
71	73	4
0	0	4
18	18	9
108	108	7
24	24	4
87	88	4
118	118	7
12	13	5
34	43	4
100	134	4
117	117	6
82	124	2
75	75	8
134	134	8
3	3	2
46	47	2
101	102	5
110	110	7
21	21	7
14	99	5
78	120	2
39	39	3
45	46	4
57	58	3
112	121	3
55	113	1
84	84	7
84	85	3
23	23	8
100	100	4
11	12	5
102	121	4
124	125	10
14	14	8
38	38	2
95	113	4
69	76	6
122	122	1
89	107	1
70	125	2
28	29	3
124	126	2
31	60	5
103	104	3
44	125	2
80	123	2
5	5	4
32	34	2
32	32	2
126	126	7
43	59	2
2	3	2
43	43	1
78	121	1
104	128	1
66	67	3
63	63	4
114	114	6
90	108	2
64	64	4
79	79	12
79	122	3
130	130	4
96	96	6
55	114	3
39	43	4
4	6	3
123	123	11
79	80	3
68	70	3
107	108	4
31	32	4
11	77	3
90	91	2
4	4	1
75	76	1
73	125	1
29	29	2
19	48	1
6	7	2
127	127	2
76	85	2
98	99	1
77	78	3
68	69	1
11	67	1
103	103	3
37	37	1
34	113	2
87	130	3
99	101	5
65	66	2
131	133	1
105	105	3
86	123	2
58	103	2
6	23	2
56	58	1
120	121	2
36	42	1
20	21	5
116	120	1
59	130	1
71	85	1
27	27	3
62	64	1
120	120	2
44	47	2
58	131	1
36	36	3
37	38	2
90	90	4
43	48	1
75	116	1
5	29	1
97	103	1
115	116	2
125	126	1
85	86	2
102	116	4
12	70	3
7	19	1
35	40	1
109	110	3
7	23	1
57	109	2
48	49	1
80	80	1
127	131	1
5	22	1
133	133	7
50	50	2
95	116	1
0	1	1
99	99	2
72	76	2
34	40	1
15	15	2
86	87	3
58	126	3
126	127	2
96	103	2
10	77	1
128	129	1
26	26	1
126	130	2
115	133	1
69	73	1
108	109	1
41	43	2
18	37	1
48	109	1
14	83	2
36	37	1
13	86	1
91	133	1
60	86	2
113	114	2
25	27	1
8	75	1
73	75	1
57	125	1
58	128	2
56	57	2
122	123	1
60	60	1
133	134	2
125	127	1
63	67	1
57	103	1
88	116	1
32	33	1
11	125	2
59	124	1
102	133	1
62	63	1
59	87	1
96	98	1
58	127	1
