13	13	23
30	31	7
52	52	3
23	23	5
30	43	2
4	4	6
38	86	2
96	96	15
35	80	1
118	118	21
140	140	11
149	150	1
137	137	22
128	128	13
81	83	2
31	31	8
35	36	6
39	41	1
146	146	15
125	126	4
80	80	10
109	109	3
6	12	3
128	133	1
43	43	8
20	29	6
38	38	13
10	10	5
27	27	5
37	38	3
112	113	3
120	121	9
129	130	3
9	10	8
86	86	6
144	144	7
22	29	3
25	25	14
68	68	6
127	127	9
40	41	7
1	2	2
153	153	7
26	28	5
105	106	4
108	110	1
33	33	11
68	72	1
69	103	7
21	21	17
76	77	6
149	149	6
10	12	1
119	120	5
142	143	2
117	117	12
124	159	3
49	55	3
78	78	7
32	32	5
142	142	6
119	119	2
49	49	20
22	22	12
19	19	9
141	141	7
20	20	6
93	110	3
143	144	4
18	19	2
134	134	9
46	46	7
91	113	2
154	158	3
67	67	8
143	143	3
31	46	12
39	39	9
82	83	6
113	136	2
126	127	3
34	34	9
24	24	9
38	84	2
138	138	7
135	135	13
158	158	6
69	69	14
40	50	7
44	44	12
74	74	2
92	92	9
103	103	7
36	106	2
139	139	15
47	47	5
81	81	14
154	154	10
104	104	9
15	16	9
140	141	1
131	138	2
6	6	8
159	159	3
53	54	9
90	90	12
123	123	14
83	85	1
107	107	12
71	71	5
133	134	4
70	98	4
94	134	2
70	71	7
154	157	10
129	129	10
17	18	8
157	157	6
122	122	5
87	89	7
19	32	1
156	157	7
106	107	6
42	42	13
79	79	10
101	102	4
54	54	10
98	98	13
43	45	3
8	13	5
145	150	5
80	81	2
145	146	7
130	132	1
77	77	9
12	12	4
100	100	10
88	91	1
15	15	3
44	45	1
18	20	2
95	95	11
121	121	12
48	48	5
51	51	8
156	156	16
113	113	5
64	64	6
14	15	1
154	155	2
11	11	17
70	102	1
18	30	2
88	89	5
69	71	3
70	70	11
102	102	6
53	53	9
85	85	11
112	115	1
84	84	9
8	8	15
145	145	12
104	111	5
49	64	1
20	28	3
130	130	13
88	92	1
108	108	5
87	87	9
109	110	9
92	93	2
67	70	3
27	28	2
28	28	6
17	17	5
89	89	9
39	81	1
133	133	4
30	30	18
7	7	9
91	135	3
111	112	9
88	90	2
114	114	5
114	115	7
54	55	2
139	140	5
101	101	6
148	148	1
36	36	8
18	33	2
112	112	14
48	64	5
110	110	1
87	92	4
12	13	5
136	136	8
150	150	2
39	40	10
18	34	1
138	140	1
85	111	4
93	93	4
50	83	3
139	151	3
46	49	4
62	63	5
118	122	5
87	105	2
2	2	10
83	83	1
0	3	3
82	82	3
82	84	6
77	78	4
45	45	3
91	91	15
63	63	8
132	138	2
67	104	3
97	99	4
84	85	2
24	25	2
123	142	9
3	4	4
42	43	1
10	89	3
86	112	5
0	0	3
73	73	2
41	41	8
97	97	12
46	47	8
28	29	1
124	124	10
47	48	2
48	63	3
57	57	1
140	152	4
75	75	8
2	3	3
116	116	5
133	140	7
23	24	3
111	113	3
121	122	5
21	22	5
35	35	13
36	37	4
50	55	3
42	46	1
16	18	1
91	92	2
35	109	3
56	56	7
111	111	1
26	26	6
18	29	3
88	88	8
68	89	2
19	20	5
131	131	7
157	158	5
34	40	1
55	55	5
94	94	3
87	108	3
53	57	2
22	24	1
82	85	1
116	117	1
131	134	1
53	55	7
32	33	2
40	40	8
47	49	2
105	105	6
81	85	3
130	134	1
41	45	2
134	135	3
124	126	1
122	141	4
9	87	1
37	37	7
14	14	6
147	150	1
67	68	3
39	83	2
130	131	6
8	14	7
92	141	1
52	53	1
16	16	2
148	150	2
4	5	3
104	105	2
146	154	1
5	5	4
115	115	2
94	95	1
118	137	1
14	17	3
150	151	2
37	67	1
65	65	5
68	106	2
13	14	3
86	90	2
17	33	2
17	34	3
90	94	1
158	159	2
91	94	1
56	83	1
153	154	1
41	42	1
89	125	5
123	124	3
126	126	3
11	87	4
48	49	1
62	64	1
20	21	1
32	34	1
152	152	4
78	80	2
67	69	2
14	34	1
51	52	2
18	18	4
99	99	3
77	79	1
151	151	4
73	74	1
151	152	2
77	80	3
122	140	2
1	15	1
117	137	1
20	22	1
80	85	3
50	56	3
9	9	2
147	147	3
12	16	3
37	132	1
113	114	1
87	110	1
137	138	2
29	29	6
76	76	1
106	106	1
118	119	2
124	158	2
22	23	1
121	140	2
125	125	2
145	149	1
135	136	2
37	86	1
69	106	1
120	120	5
7	14	2
105	111	2
110	113	2
7	8	1
11	92	1
1	1	3
62	62	3
87	90	1
118	120	1
78	79	3
155	157	1
128	129	2
25	28	1
73	96	1
18	32	2
155	158	2
142	154	2
91	126	1
106	108	2
0	4	1
79	81	1
55	84	1
70	104	1
11	12	1
85	86	1
66	66	1
70	88	1
77	116	1
55	83	1
155	156	1
50	50	1
5	125	1
40	44	1
