24	25	2
84	109	3
89	90	1
132	132	2
156	156	5
93	112	5
25	26	6
113	113	4
110	110	10
155	155	13
159	159	5
101	138	2
28	29	1
85	85	11
135	136	4
66	66	3
82	82	2
162	164	2
15	16	6
138	174	3
172	172	5
84	102	3
60	61	1
4	4	12
36	36	6
143	147	3
97	98	2
120	120	3
12	12	4
79	79	2
167	167	5
157	157	7
35	35	3
77	129	2
112	112	6
0	0	4
171	171	5
188	189	3
20	20	2
41	42	4
23	23	4
184	185	7
6	6	6
115	117	1
12	13	4
118	162	1
161	170	3
176	176	4
71	71	7
13	13	2
127	127	4
63	95	2
67	72	1
63	68	1
98	163	3
117	117	6
40	41	2
132	161	2
189	189	3
115	115	8
181	181	9
182	182	7
140	181	5
142	149	5
109	109	5
123	123	2
138	138	7
40	40	6
27	27	2
77	144	1
20	22	1
34	34	3
83	90	3
153	153	3
31	31	2
187	187	2
166	166	5
70	70	8
11	37	2
64	64	4
54	55	2
145	159	2
23	45	3
158	158	2
8	8	7
116	116	1
30	40	1
175	178	3
25	41	7
6	11	6
1	1	2
53	53	2
42	42	2
119	119	3
186	186	4
60	60	6
3	3	3
137	137	2
80	83	5
33	175	3
12	45	2
78	79	3
114	115	2
131	161	3
81	82	3
159	182	1
24	24	2
47	47	2
149	149	9
125	126	4
27	29	2
90	90	5
67	71	4
107	107	2
64	73	1
98	98	2
30	30	6
138	184	2
93	100	3
11	45	6
101	102	3
12	20	1
140	140	2
136	136	2
25	40	2
99	99	6
170	170	2
152	152	1
37	67	2
14	39	2
103	103	3
80	81	3
104	104	6
78	78	4
26	30	2
87	88	4
43	44	4
11	20	2
180	181	1
178	178	4
138	139	7
39	39	5
133	133	5
151	152	3
88	110	2
45	45	3
22	22	2
118	118	2
6	8	3
11	12	2
146	146	3
141	183	1
60	96	1
162	163	1
64	74	3
62	62	1
9	47	6
128	128	2
41	41	1
170	182	1
58	58	3
109	110	1
5	8	1
103	113	1
97	97	3
26	28	2
14	24	3
62	78	3
35	60	6
22	46	1
165	165	6
7	7	1
88	88	3
19	20	2
96	96	1
168	180	3
57	57	2
68	73	4
65	65	2
61	63	1
93	111	2
165	173	2
63	63	2
142	160	4
16	16	2
73	78	1
134	160	2
29	41	1
130	130	1
149	160	1
112	113	1
185	186	1
111	113	1
49	74	2
18	18	4
146	160	1
128	129	2
31	40	3
26	26	3
61	70	1
53	87	1
138	140	2
177	180	1
183	183	3
179	188	3
87	87	3
44	45	1
174	174	2
107	115	4
86	108	1
94	114	3
100	100	1
75	75	1
17	18	1
179	179	2
166	169	1
44	44	1
91	91	2
164	164	1
134	134	1
143	143	2
177	177	2
94	99	1
20	33	2
163	163	2
188	188	2
168	168	1
92	92	1
142	142	1
5	5	1
142	169	1
139	139	1
151	153	1
122	122	1
81	81	2
17	17	1
53	55	1
137	146	1
173	183	1
12	44	1
68	71	1
131	131	1
53	57	1
173	173	1
11	19	1
86	86	1
109	123	1
67	67	1
1	7	1
