108	111	1
171	171	10
56	176	3
97	98	4
55	56	4
103	103	7
33	33	10
189	192	3
52	114	2
119	128	1
81	82	6
169	169	10
96	96	2
79	79	8
109	111	6
20	78	2
102	103	4
5	5	6
3	3	7
65	94	1
122	122	7
48	48	20
58	61	2
98	193	2
32	32	7
120	120	8
28	48	2
114	114	11
10	95	2
37	37	7
88	88	6
162	193	2
14	38	1
84	86	3
97	105	2
120	121	11
146	193	3
108	117	4
132	133	2
62	62	7
168	168	13
194	194	16
77	78	2
38	44	2
94	103	1
100	101	2
97	120	3
142	168	2
83	83	4
39	41	3
185	185	9
113	115	2
197	197	6
150	154	4
174	174	7
186	186	27
111	113	3
141	141	15
99	193	8
132	138	2
162	162	2
35	35	6
101	102	1
14	43	2
58	58	12
127	127	7
107	108	14
49	50	9
30	30	6
98	98	7
193	193	9
174	176	3
128	128	10
96	106	2
155	155	10
104	111	5
188	188	9
121	138	3
19	37	2
46	47	2
6	6	5
34	34	1
106	106	13
179	182	5
9	95	1
116	122	5
113	119	3
52	53	2
27	27	9
41	42	5
45	45	13
158	182	1
193	194	7
108	114	2
87	87	3
128	186	7
37	42	1
33	76	1
126	126	2
65	66	7
111	111	8
162	168	1
59	60	9
109	166	1
94	105	4
117	119	3
161	194	4
151	151	6
54	176	1
57	57	5
122	144	2
117	118	2
38	38	6
41	41	7
115	142	5
10	36	2
24	24	6
81	81	10
51	51	6
109	189	1
5	6	3
67	68	2
72	72	4
153	181	2
156	156	8
133	133	6
187	187	10
150	150	8
183	183	14
109	110	8
47	47	6
22	23	6
194	196	1
58	60	6
34	48	4
31	31	2
149	149	8
30	76	7
133	151	6
164	167	5
44	44	9
157	159	3
131	139	3
97	97	6
84	84	4
30	31	4
58	127	5
105	190	4
0	1	4
8	17	6
24	80	3
113	114	1
9	9	5
173	185	4
1	168	1
121	121	4
151	154	1
8	8	2
130	131	2
66	66	8
63	64	3
157	183	4
114	185	3
12	12	5
82	83	4
129	129	9
166	166	5
140	141	4
125	125	7
94	100	2
135	137	3
23	23	14
32	46	2
134	155	2
158	158	2
103	104	4
45	108	7
186	190	1
24	74	8
109	192	1
153	156	5
10	39	2
155	159	1
160	160	2
159	159	12
11	13	4
95	189	5
151	158	1
141	166	2
31	33	3
40	44	2
36	36	3
0	3	5
0	5	3
191	192	3
119	135	4
49	49	16
187	188	4
155	156	5
19	21	1
34	36	5
6	65	4
134	134	5
65	65	10
9	129	1
42	42	3
90	94	2
102	104	9
36	44	3
67	67	6
152	152	3
61	62	2
123	134	6
19	87	1
69	77	2
107	107	4
109	165	1
53	53	2
56	56	4
112	112	2
12	15	5
101	106	2
142	142	1
60	60	6
36	39	1
6	7	2
135	136	10
149	158	7
4	4	3
8	9	2
26	26	9
35	108	2
21	188	1
49	113	3
118	167	3
22	79	2
9	50	2
33	42	1
12	45	3
141	143	4
64	65	3
132	134	3
96	120	1
145	145	1
148	148	4
104	104	6
46	74	4
177	177	2
121	122	2
182	182	2
171	182	2
33	46	1
61	167	2
70	71	1
80	85	3
109	109	4
10	43	1
161	161	9
126	127	2
16	69	3
17	31	2
40	41	2
93	186	2
19	19	3
136	162	1
86	162	4
58	170	4
154	154	3
181	181	3
96	114	5
94	94	8
8	67	1
19	35	6
89	89	7
46	46	4
114	196	4
108	113	1
60	185	3
134	135	2
73	125	4
17	78	3
140	140	4
144	162	3
33	116	4
172	172	5
74	74	5
75	178	1
80	165	1
101	157	2
122	164	3
115	117	3
17	76	2
79	80	2
12	47	1
110	192	1
7	7	4
56	57	2
155	183	1
1	2	4
58	59	6
80	81	1
2	2	6
143	164	2
190	190	3
39	40	3
150	159	3
132	144	3
13	14	1
148	161	2
85	86	5
108	110	3
89	137	1
185	196	1
41	114	5
11	15	1
87	88	2
45	53	1
39	39	3
25	27	2
148	149	2
17	36	4
52	173	2
113	113	3
195	195	9
86	166	3
88	162	2
100	105	1
15	15	3
66	118	1
122	134	2
115	185	1
170	171	2
98	99	5
142	143	7
87	165	3
17	69	2
128	173	3
119	120	1
101	101	2
123	123	1
21	30	3
18	77	2
117	186	1
196	196	2
54	177	1
85	89	2
161	172	1
153	154	1
146	161	2
175	175	3
12	34	2
134	154	3
121	131	1
52	52	5
9	37	1
165	165	4
177	178	1
59	59	3
37	39	2
21	21	1
85	85	1
4	7	1
169	170	2
52	60	2
184	184	2
141	152	1
176	177	2
122	165	1
70	70	2
57	58	2
142	165	1
192	192	3
4	44	3
146	146	1
81	166	2
75	78	3
71	71	5
86	165	1
112	113	4
55	55	6
143	144	1
108	116	1
174	175	1
149	150	2
182	183	3
160	181	3
127	129	1
100	100	3
25	25	1
174	185	2
118	119	6
56	179	1
161	181	2
152	181	3
40	40	2
78	168	4
191	191	5
137	164	1
101	138	3
169	184	2
99	173	3
111	112	2
77	85	1
6	66	6
128	129	1
82	82	3
61	115	2
163	163	4
186	193	1
119	119	5
11	11	4
196	197	1
136	136	2
189	189	1
34	42	1
110	187	2
90	95	1
0	17	1
103	116	1
172	175	1
78	78	1
145	163	4
139	150	2
29	29	1
179	179	1
98	105	1
59	95	1
20	25	2
149	159	2
22	22	3
101	188	1
137	138	1
96	146	1
33	47	3
23	24	3
83	84	1
48	50	2
36	37	1
69	69	2
138	155	1
96	118	3
72	73	1
96	107	1
122	123	1
96	104	1
115	127	2
116	116	2
166	168	1
77	87	3
50	50	3
97	187	1
25	32	1
109	114	3
52	171	1
105	105	2
102	102	1
32	33	2
62	123	1
192	193	3
48	113	1
34	45	3
17	17	5
78	80	3
1	4	1
47	104	1
3	48	2
34	37	1
74	87	1
95	96	1
27	28	1
144	144	2
115	115	1
16	16	4
63	63	1
11	34	1
89	138	1
3	18	3
19	20	1
173	173	2
90	90	2
19	78	1
54	125	2
141	194	1
135	135	1
18	18	1
159	161	1
155	157	1
18	36	1
95	95	1
106	108	1
94	96	1
111	167	4
143	143	2
35	38	1
17	73	1
52	123	2
15	123	1
47	53	1
37	43	1
66	67	1
8	167	1
168	169	1
109	167	2
173	192	1
119	130	1
0	8	1
176	176	1
99	99	3
109	115	3
5	8	3
83	85	2
110	110	1
86	87	1
124	176	1
193	195	1
61	63	1
142	167	2
86	89	1
141	163	1
43	69	1
120	138	1
95	104	1
28	28	1
37	38	1
43	43	1
4	5	1
8	45	2
99	134	1
122	132	1
86	86	2
190	192	1
15	47	1
84	165	1
55	74	1
7	65	1
124	124	1
133	141	3
23	35	1
71	72	1
148	169	1
61	123	1
147	154	1
163	164	1
20	73	1
102	120	1
49	185	1
61	61	1
26	29	1
47	114	1
28	29	1
157	157	2
3	4	1
50	196	1
112	124	1
121	132	1
143	162	1
