217	218	4
41	41	6
38	38	10
34	34	8
64	64	17
131	131	2
66	67	1
44	45	3
37	73	2
78	125	3
107	126	2
162	162	1
2	2	10
2	7	2
156	156	2
210	211	2
69	75	2
69	69	7
105	105	3
26	37	4
122	192	1
10	11	4
36	36	14
8	8	6
49	50	5
80	104	2
199	199	6
225	225	4
178	178	3
27	27	16
85	99	4
97	97	6
216	216	1
215	216	3
197	199	1
2	3	1
50	71	6
68	68	8
163	165	3
122	160	1
41	108	1
74	74	12
65	65	5
120	133	2
19	22	2
242	242	4
206	206	3
96	97	3
195	195	4
50	52	3
197	197	6
61	178	1
150	181	3
63	130	2
37	37	14
110	111	3
134	134	9
86	110	3
76	78	2
14	14	3
24	24	6
52	71	2
140	140	6
163	164	6
59	59	1
41	130	4
29	30	3
24	203	1
155	155	10
60	60	9
57	108	3
229	229	3
180	180	8
128	129	1
107	123	1
55	217	1
182	182	9
161	161	13
69	70	3
49	49	22
128	128	4
139	140	6
164	164	1
35	72	2
159	160	1
85	98	3
71	71	7
35	35	3
60	61	6
173	173	4
26	26	12
137	143	3
19	21	2
54	54	10
20	20	8
203	203	5
177	178	4
9	10	4
19	199	3
121	121	8
63	63	6
185	185	8
184	184	17
119	119	7
106	106	4
106	181	2
52	195	5
10	10	11
131	169	2
62	70	1
150	154	2
212	216	3
18	36	1
110	110	4
42	42	5
156	157	2
66	68	7
44	69	1
166	202	2
109	111	4
46	70	3
202	212	3
188	188	1
31	31	5
136	136	5
52	52	4
186	187	2
66	66	10
16	16	5
25	25	5
62	62	12
183	183	7
11	11	12
111	116	5
39	39	10
79	79	4
190	191	3
165	165	3
202	216	3
119	123	2
61	61	7
104	105	4
118	119	1
88	88	3
80	80	7
174	174	5
18	35	1
135	135	7
55	82	3
86	86	6
31	207	5
127	127	6
175	175	4
169	191	1
198	198	3
5	5	4
69	120	2
47	48	5
222	222	8
44	44	9
40	118	1
109	113	2
6	6	3
25	138	1
226	226	2
28	28	6
9	9	12
225	233	1
123	123	5
3	18	4
74	127	1
73	73	3
167	167	3
30	30	10
21	21	7
77	77	2
158	182	2
81	83	4
108	108	4
9	32	2
76	80	4
109	109	1
237	240	2
127	129	3
137	137	8
189	189	4
219	220	1
172	173	3
63	118	1
19	19	2
191	191	1
35	36	1
74	75	2
95	100	3
21	23	2
223	223	4
47	47	8
57	57	1
117	117	4
49	195	1
208	222	2
111	111	2
116	116	9
214	214	1
21	29	2
33	35	1
145	145	6
171	171	7
12	191	2
132	135	2
176	176	7
184	185	1
78	78	5
70	70	12
81	168	3
120	120	3
114	115	1
197	208	1
160	160	8
203	204	2
237	237	3
5	6	1
39	68	2
182	183	4
124	125	2
147	148	2
168	168	2
25	102	1
182	187	3
45	45	3
46	46	1
220	220	3
230	230	4
22	150	1
50	50	2
113	113	1
34	52	3
81	186	2
89	107	1
38	74	1
125	125	2
48	175	3
71	233	1
184	187	2
43	44	2
106	157	2
44	96	2
5	190	1
20	66	2
181	181	1
203	219	4
112	112	1
175	234	1
43	43	5
85	85	10
154	155	3
80	81	1
172	172	3
161	163	2
179	179	3
177	177	3
173	176	1
145	185	2
16	77	3
102	130	3
28	65	4
39	67	2
132	133	2
197	198	2
24	69	6
213	216	3
46	174	2
111	150	1
124	167	3
67	67	5
53	53	3
234	234	3
0	0	4
137	138	2
35	57	1
219	219	6
67	68	4
122	122	2
4	231	1
28	218	1
228	228	1
105	128	2
193	193	3
64	65	3
72	76	2
18	25	1
18	18	4
3	3	3
202	202	4
15	15	1
139	142	1
65	66	4
67	103	2
107	107	3
78	89	2
19	240	3
141	141	4
52	54	1
140	143	1
128	168	2
31	34	4
72	72	3
72	73	1
55	55	6
95	125	2
37	76	4
231	231	1
201	201	3
54	73	2
40	40	2
124	124	2
150	151	2
113	152	2
10	183	2
96	96	3
168	169	1
43	69	1
186	186	2
26	27	1
172	181	1
150	150	1
18	124	3
158	201	2
14	15	2
76	76	2
235	235	5
210	212	1
20	191	2
163	198	3
89	89	2
111	112	2
180	205	1
157	157	1
75	76	1
108	148	2
50	58	1
216	225	2
80	84	1
113	170	2
100	100	7
9	50	2
164	231	1
60	64	1
21	22	1
161	213	2
67	74	2
98	98	1
74	96	1
82	83	2
165	166	6
85	86	2
42	43	1
6	33	1
87	131	1
79	84	1
146	146	5
22	240	1
170	170	1
41	49	1
189	197	1
38	65	1
51	114	1
68	69	1
237	239	3
68	118	1
103	103	2
122	166	2
12	12	3
107	154	1
133	133	2
46	47	4
39	69	1
129	129	1
202	218	1
36	232	1
209	226	1
16	161	1
166	166	3
202	206	1
78	105	3
139	177	2
214	215	1
95	170	2
54	74	1
27	179	1
159	170	1
50	51	5
68	121	2
153	154	2
155	159	1
62	63	2
154	193	2
162	198	2
37	38	1
36	37	3
16	59	1
112	171	2
64	225	2
54	56	2
138	138	1
141	173	1
54	55	1
116	148	2
3	4	2
84	84	1
173	179	2
217	217	1
139	152	1
153	153	3
236	236	1
167	168	2
205	205	1
106	170	1
38	43	2
9	28	1
20	235	2
95	120	1
103	168	1
154	154	1
229	230	2
192	192	1
0	189	1
220	222	1
192	193	1
221	221	1
20	130	1
166	167	1
99	100	2
29	29	2
30	36	1
122	125	1
159	159	1
45	177	1
4	5	2
71	131	2
165	189	1
81	81	1
207	207	1
40	42	1
201	231	1
200	200	2
147	147	2
119	131	1
135	136	2
48	86	1
52	72	1
193	215	1
191	219	1
129	167	1
149	149	1
196	196	2
68	103	1
106	129	1
186	201	1
142	144	1
144	144	2
161	224	2
51	51	1
70	178	1
171	172	1
36	76	1
25	26	1
35	38	1
100	101	1
71	74	1
68	75	1
148	148	1
203	208	1
7	8	1
4	6	1
21	135	1
1	6	1
69	175	1
165	194	1
86	112	1
43	75	1
192	194	1
13	17	1
128	203	1
211	211	1
163	163	1
130	131	1
116	118	1
103	105	1
83	83	1
