37	37	5
103	103	4
169	170	2
99	99	2
134	135	4
94	94	7
159	159	3
114	126	3
132	133	3
119	125	1
118	118	1
19	19	5
24	24	10
5	5	6
93	93	4
92	95	5
33	35	1
63	63	3
144	168	3
1	1	3
7	41	3
70	74	6
133	133	6
47	123	1
118	124	5
7	20	1
154	154	3
108	109	3
128	131	4
129	129	1
39	41	4
0	0	3
13	13	4
48	48	3
72	81	3
139	160	1
74	74	2
15	15	6
91	95	2
72	156	1
170	170	1
107	107	17
63	73	1
64	105	5
14	15	5
65	65	3
158	158	5
74	169	5
14	14	11
39	156	2
88	88	1
49	58	4
65	70	2
92	103	2
39	120	1
90	90	8
151	152	13
91	91	5
113	151	1
56	56	4
9	9	3
119	119	7
14	53	2
4	6	1
73	73	1
153	166	3
115	132	1
98	98	2
40	120	2
5	42	4
110	169	1
147	147	6
166	166	2
98	104	2
4	5	4
150	151	1
6	7	6
68	68	5
86	87	4
163	163	5
45	46	3
150	150	2
116	116	1
39	39	8
149	149	4
27	27	8
135	136	2
130	130	1
97	97	4
11	92	3
57	120	2
6	12	3
1	6	5
92	94	2
74	80	1
12	12	5
75	156	3
40	40	7
5	12	3
134	137	11
153	153	5
127	127	5
122	156	1
55	124	5
50	50	3
2	2	6
126	126	3
113	152	1
89	89	4
146	146	3
12	13	1
26	53	7
96	102	1
142	142	3
156	156	2
144	151	4
33	167	4
114	114	9
150	157	2
71	115	2
76	76	3
7	7	3
46	46	2
17	23	2
80	80	3
162	162	2
67	68	2
87	92	4
20	25	3
72	134	3
87	88	3
111	111	3
10	10	5
89	105	2
82	82	3
47	47	5
4	4	4
67	69	3
139	139	4
27	49	2
155	155	3
116	150	2
95	96	1
10	140	2
108	108	2
64	78	1
90	92	2
78	78	1
147	155	1
90	99	2
39	117	5
115	133	2
22	22	7
89	136	1
106	106	1
97	98	2
21	21	4
3	3	2
152	154	2
100	102	2
45	121	3
6	6	1
121	127	3
140	140	1
142	146	1
119	130	1
43	43	5
111	133	1
5	6	2
18	25	2
154	157	3
135	138	1
15	52	1
40	41	5
111	112	1
0	12	1
50	51	5
151	151	2
97	100	1
91	136	3
144	144	2
80	135	3
64	64	2
125	128	1
138	138	2
73	159	2
62	62	2
2	14	4
165	165	1
91	103	1
89	143	1
16	23	1
76	116	1
36	166	1
167	167	1
109	110	1
118	130	2
76	137	3
77	77	2
79	79	1
83	83	1
96	96	1
101	104	2
27	52	2
110	110	1
50	53	1
124	127	1
97	136	1
49	128	1
51	55	1
90	95	3
69	69	4
120	120	2
105	105	1
138	141	2
125	125	2
122	123	2
145	160	2
152	152	1
33	161	1
102	102	3
53	53	3
104	104	2
36	36	4
160	160	4
84	85	1
95	99	2
12	15	3
28	52	1
48	56	2
44	52	2
18	18	2
86	94	2
49	51	4
8	8	2
118	131	2
88	89	1
5	14	1
54	54	4
41	41	1
109	134	4
24	25	1
137	144	1
20	20	1
34	34	1
123	131	1
122	122	4
87	87	1
47	149	2
88	93	1
63	135	2
11	11	1
5	43	1
6	14	1
73	80	1
115	116	1
35	35	3
98	100	2
113	113	2
92	92	1
5	13	2
147	148	2
143	143	1
101	101	1
147	149	1
131	131	1
80	134	1
63	84	1
23	49	2
2	17	1
11	148	1
120	160	1
38	158	2
46	58	1
153	154	1
81	82	1
93	106	1
139	147	2
96	101	1
95	95	1
2	8	2
2	4	2
138	151	3
161	161	1
23	23	1
75	75	1
168	169	1
71	81	1
46	122	1
152	153	1
143	146	1
95	102	1
168	168	1
132	132	1
17	50	1
84	143	1
38	140	1
12	23	1
72	138	1
25	26	1
76	81	1
91	100	1
97	103	1
34	166	1
