82	82	9
48	101	3
26	26	19
4	4	22
128	142	4
43	140	2
35	42	5
8	8	19
20	20	14
16	23	9
10	10	14
65	65	11
15	15	9
114	126	3
29	103	4
137	139	5
29	29	11
15	26	6
119	119	12
143	143	9
12	12	9
141	141	11
36	130	6
65	129	1
70	108	2
76	77	12
87	123	5
137	137	13
0	0	7
67	67	8
92	96	2
128	128	18
108	108	17
79	79	9
16	17	9
63	64	4
42	128	3
126	130	2
61	95	10
35	35	6
50	109	2
65	96	5
82	83	3
112	112	9
109	109	15
25	26	10
111	111	9
34	34	46
54	55	14
1	115	1
3	3	12
34	125	9
73	73	7
23	35	2
40	40	12
28	41	3
81	81	13
18	18	11
41	41	17
72	72	19
88	89	10
145	145	7
61	62	5
14	21	2
113	114	19
91	120	7
127	130	2
9	10	2
132	132	24
97	98	12
59	69	3
83	84	3
66	98	1
39	129	1
88	110	2
48	93	3
102	102	21
30	51	3
62	62	30
105	143	3
100	100	12
122	122	15
13	38	7
31	31	42
24	26	2
6	9	4
30	30	18
96	136	4
86	87	5
20	21	9
79	81	4
50	52	2
48	48	12
122	125	7
79	119	2
60	72	4
47	47	8
25	25	17
58	58	18
30	41	1
90	108	1
128	133	1
22	24	1
85	127	7
26	27	8
35	84	3
65	72	2
49	52	2
13	23	2
66	66	19
132	135	4
57	142	2
50	50	15
88	114	5
1	23	4
39	39	10
70	70	24
38	61	6
40	41	13
55	55	12
43	43	5
107	107	19
23	23	13
5	38	2
17	17	12
13	36	5
122	130	1
57	57	3
110	116	3
140	140	18
74	77	7
3	39	1
83	142	1
111	117	1
19	26	1
32	117	7
138	138	19
128	129	10
24	24	16
49	49	14
21	97	1
75	75	16
91	109	4
118	124	2
142	142	12
17	48	3
68	68	14
60	60	6
130	130	29
66	128	4
37	37	14
83	120	4
116	117	9
76	76	16
14	15	5
120	121	6
120	120	22
26	49	5
59	59	13
18	19	3
67	96	7
34	43	3
4	6	3
118	118	20
47	100	2
26	53	3
131	132	4
9	26	3
26	36	1
57	59	2
87	87	13
96	96	3
28	75	4
13	13	8
31	33	4
19	19	9
20	35	2
65	66	2
134	139	2
136	136	15
51	51	6
2	2	11
141	143	1
91	91	21
59	72	4
27	27	15
29	32	3
114	114	13
68	74	1
79	82	2
20	132	3
69	70	4
125	133	4
83	111	1
89	89	15
42	89	2
126	127	1
125	125	5
67	95	2
3	9	6
103	103	15
8	12	1
5	5	17
77	78	11
75	117	1
50	51	7
78	104	5
102	103	7
98	98	12
17	19	2
11	11	14
127	127	22
140	141	4
106	106	12
85	86	8
59	143	5
30	37	5
71	71	17
8	101	6
105	105	11
69	69	7
128	137	5
110	141	5
38	104	3
83	83	9
18	20	3
84	85	2
95	97	6
32	32	18
80	141	3
113	113	18
109	113	7
62	71	1
28	38	1
1	1	14
5	20	2
33	33	8
73	74	5
33	40	3
33	53	4
134	134	11
77	77	8
111	113	3
67	68	1
117	119	5
92	93	1
66	72	2
85	142	1
117	118	6
104	105	1
78	79	5
93	94	11
135	139	5
22	30	2
117	117	6
59	62	1
109	116	2
22	22	17
114	117	3
28	28	9
53	56	2
128	130	8
41	42	1
2	43	3
109	112	2
28	29	2
71	73	5
86	86	17
78	124	1
138	143	4
24	25	7
56	75	2
19	119	2
43	129	3
16	16	14
48	94	4
20	117	1
144	144	13
84	137	3
130	131	1
116	116	16
120	130	1
71	103	1
70	71	2
74	75	4
49	100	5
80	80	12
3	14	7
123	123	6
136	146	2
75	88	3
76	78	2
30	125	4
88	108	7
86	103	5
97	102	5
12	26	4
129	130	11
135	135	8
104	110	5
110	110	12
52	52	6
130	144	1
81	90	3
32	53	3
64	74	4
92	92	6
32	33	3
84	127	1
112	140	3
4	5	2
21	104	1
2	25	4
46	47	4
95	95	7
21	26	2
109	110	8
12	22	3
134	137	3
90	93	2
53	53	11
35	108	2
118	119	2
110	140	1
78	78	13
74	74	13
133	133	8
81	82	4
87	88	9
138	146	6
48	143	1
19	125	5
1	124	1
123	135	2
39	73	1
58	67	2
121	122	12
94	94	14
136	137	10
57	75	1
0	3	1
120	127	5
14	20	2
51	79	1
27	65	1
97	97	8
59	60	4
129	129	9
42	43	4
93	140	5
100	102	3
57	58	6
77	125	2
124	124	8
101	101	7
131	138	3
2	15	2
1	14	3
139	139	10
20	133	4
133	137	4
77	80	1
2	5	1
69	72	2
6	6	7
73	77	2
21	21	10
15	16	4
64	64	8
110	111	8
92	94	6
82	124	3
72	77	1
74	86	1
113	115	4
43	103	2
60	62	1
10	11	8
33	106	2
14	14	5
34	35	10
2	3	10
106	108	4
74	84	5
54	54	13
93	141	1
6	24	1
23	39	2
85	85	16
92	130	2
1	30	2
42	49	2
64	97	1
84	95	4
14	16	4
29	105	1
18	126	2
117	126	5
62	91	2
25	95	2
108	114	3
69	74	6
116	119	3
71	95	2
8	37	5
91	130	8
126	126	9
14	125	2
9	9	7
125	126	2
91	107	2
123	125	2
90	90	8
78	111	3
81	94	3
137	138	4
58	59	3
20	48	2
111	114	2
121	123	3
133	135	4
38	40	3
53	100	3
12	131	3
112	113	7
63	68	2
66	67	3
73	75	5
57	90	5
42	58	1
77	132	4
111	116	1
88	88	8
32	37	2
60	61	3
114	116	1
80	90	2
86	114	2
18	99	2
9	20	3
23	89	2
75	76	2
56	56	15
17	38	2
62	63	8
40	67	2
0	81	2
39	140	1
39	56	4
106	107	1
127	129	4
37	105	2
83	92	2
62	68	1
25	32	2
42	42	6
47	117	3
66	95	1
34	110	4
18	132	3
23	24	4
81	105	3
36	36	8
126	131	2
22	33	1
55	57	1
56	57	3
95	96	2
49	94	2
114	115	3
2	14	2
141	142	2
48	81	3
86	99	3
136	140	1
21	89	3
71	72	5
131	141	3
21	35	2
70	75	2
25	34	3
15	22	4
58	141	3
115	115	6
38	39	2
23	134	5
109	126	3
43	104	4
21	84	1
17	21	6
76	119	1
70	73	3
124	133	2
121	139	1
26	72	4
65	82	1
31	65	3
105	139	3
38	129	2
26	41	5
87	94	2
105	140	1
84	84	7
33	110	2
123	134	3
13	27	1
2	36	2
10	17	1
119	125	1
31	91	3
33	34	3
12	13	3
84	134	3
17	18	2
58	61	2
78	82	1
105	106	4
120	137	3
31	32	2
104	109	2
42	51	2
53	55	1
70	91	1
42	61	2
82	99	4
90	94	1
10	22	1
17	56	1
99	116	1
71	83	3
19	20	3
87	90	3
20	94	2
31	104	3
98	100	7
43	102	1
47	130	2
0	83	4
19	37	4
11	41	3
136	139	2
69	71	5
121	121	9
110	139	1
33	108	3
29	100	2
52	54	4
16	56	2
7	51	3
6	41	2
17	99	1
63	67	3
74	142	1
15	89	8
38	38	3
116	125	4
0	1	4
85	131	4
24	36	5
63	63	9
73	78	2
100	104	4
87	115	2
109	130	5
78	128	2
126	139	3
5	6	4
128	138	1
33	35	2
64	102	2
4	24	1
80	82	2
52	98	3
1	11	1
32	42	1
72	73	1
53	54	5
75	144	4
132	133	6
0	99	1
16	20	2
68	69	3
35	141	1
26	35	5
83	138	1
15	23	2
82	91	2
143	144	2
52	53	3
33	37	3
63	77	1
99	99	8
101	103	2
57	71	2
104	125	1
112	114	2
138	139	6
5	119	2
19	79	2
85	135	4
83	87	2
13	22	2
93	93	4
100	101	1
64	72	1
81	136	1
80	83	2
3	23	2
11	141	1
122	132	1
16	19	3
89	90	4
113	116	2
24	89	2
64	95	1
99	104	3
8	16	1
59	67	2
120	123	4
5	18	3
12	21	1
19	124	2
85	114	2
22	39	4
123	126	4
79	125	6
81	113	4
28	56	1
92	146	2
115	116	1
2	114	1
135	138	2
25	38	1
38	79	3
20	83	3
77	79	1
85	108	1
116	118	2
119	126	1
19	56	1
142	145	1
104	104	1
42	94	1
77	140	2
13	14	1
55	142	1
123	127	2
48	102	3
127	143	2
56	92	2
78	112	3
120	136	3
36	41	3
81	124	1
72	99	2
112	127	1
109	114	1
76	84	3
15	18	1
46	94	2
4	20	1
60	81	2
87	138	1
55	56	4
38	142	3
56	142	1
9	36	4
98	99	3
6	103	1
14	25	2
30	103	2
131	131	7
42	90	4
124	132	1
36	43	2
19	132	1
2	76	1
47	94	2
88	92	1
141	146	2
2	9	1
20	37	1
32	49	1
57	99	2
85	88	3
48	70	1
92	108	2
53	62	2
12	40	1
115	117	2
91	94	1
68	103	1
27	56	1
110	114	2
22	29	4
93	139	1
91	95	4
119	123	4
16	27	1
61	72	2
31	99	1
92	140	2
108	112	1
105	107	4
3	79	2
80	120	1
87	89	3
96	97	1
37	38	1
42	52	2
9	17	1
13	129	2
80	142	1
85	110	1
126	138	1
135	137	2
142	143	1
10	20	1
77	104	1
3	4	4
25	36	2
67	97	1
40	53	1
38	81	1
79	80	1
68	72	1
0	23	2
93	130	1
1	9	2
89	91	2
31	106	2
51	76	2
115	126	2
111	127	2
7	42	1
80	81	4
79	122	1
85	111	4
131	144	1
33	107	2
79	96	2
82	96	1
79	142	1
85	87	2
84	89	1
5	41	3
2	118	1
111	129	2
8	96	1
37	110	2
36	140	2
5	43	1
120	139	1
21	82	2
79	105	1
74	140	1
27	53	1
15	20	1
110	113	1
106	140	2
145	146	2
65	103	1
98	101	1
74	138	1
24	91	3
52	142	1
24	84	1
1	114	1
122	135	1
38	42	1
107	139	1
9	115	1
79	126	1
93	110	1
54	62	1
85	144	1
34	37	1
15	19	1
69	75	1
41	52	1
26	95	1
84	124	1
75	86	1
86	135	1
0	19	1
9	14	1
80	138	1
122	129	1
81	88	1
80	124	1
43	93	1
29	30	1
1	19	1
93	116	1
87	110	1
16	26	1
3	5	1
4	14	1
118	120	1
131	133	2
101	102	1
6	17	1
10	99	1
9	27	1
122	126	1
20	33	1
120	122	1
5	19	2
91	128	1
65	88	1
84	111	1
84	87	1
64	65	1
130	139	1
9	23	1
119	127	1
29	31	1
121	125	1
43	75	1
