23	25	4
74	74	2
65	65	4
3	4	5
145	147	1
146	147	5
147	147	7
15	15	3
21	21	4
107	109	6
4	10	2
33	33	10
128	132	7
101	101	5
140	142	2
28	29	2
130	130	4
126	127	3
98	101	1
146	148	2
107	107	7
73	73	1
21	35	2
82	82	10
119	122	1
129	129	10
69	71	4
96	97	7
92	92	3
15	24	2
106	107	5
72	72	6
11	15	2
4	5	1
38	38	7
37	38	4
35	36	4
123	123	11
109	110	10
150	150	6
111	111	6
12	12	4
44	45	1
98	98	7
75	76	3
36	36	2
28	28	5
24	25	3
100	102	6
106	106	3
143	143	3
83	84	1
80	80	5
125	126	2
81	81	15
70	71	3
97	97	3
55	55	6
149	150	3
66	66	6
71	71	7
34	34	3
98	99	3
51	52	5
27	28	4
79	79	10
64	64	8
20	20	8
40	42	5
145	146	2
24	24	9
83	91	1
134	135	3
117	118	4
135	135	1
84	86	5
42	46	2
8	9	3
120	121	3
136	136	7
124	124	10
149	149	3
14	14	2
145	145	3
63	64	2
67	67	4
32	80	1
100	100	7
10	11	1
114	114	6
99	127	2
62	62	3
122	122	2
148	148	1
46	46	6
54	56	2
84	85	4
105	105	13
153	153	6
127	127	7
86	86	5
146	149	1
49	50	1
67	68	1
114	122	8
138	139	4
103	103	6
4	4	4
146	146	2
103	105	3
70	70	3
9	9	5
80	81	8
138	138	8
16	16	6
99	100	3
97	98	6
26	26	5
16	18	5
30	45	3
147	148	2
7	8	4
6	7	1
121	122	1
108	108	1
13	13	11
144	145	3
75	75	4
51	51	6
71	97	3
31	31	2
44	44	3
128	128	7
25	25	6
110	110	2
127	128	3
75	77	1
107	108	3
117	117	4
113	113	4
42	42	5
5	9	1
119	120	3
118	118	4
141	141	2
23	26	2
49	53	2
121	121	7
144	144	1
5	5	4
13	14	2
36	78	3
134	134	3
139	139	4
4	8	2
18	20	1
137	138	3
7	7	6
57	57	2
88	92	1
35	37	1
123	124	7
32	32	4
57	81	1
32	33	2
105	126	2
142	142	3
85	86	2
69	70	2
94	94	5
50	50	2
55	56	1
109	127	3
74	75	3
126	126	3
77	79	1
45	45	4
151	151	3
141	142	5
131	131	1
154	154	3
62	63	4
41	42	2
41	45	3
147	149	2
96	96	7
76	92	2
13	17	3
39	39	2
119	119	1
41	41	2
108	109	1
110	126	2
133	134	1
84	84	1
68	68	3
6	6	3
25	27	2
48	48	2
116	116	3
139	142	1
87	87	2
133	133	2
136	137	1
63	63	3
22	22	5
96	125	1
94	95	3
31	32	3
78	79	1
130	144	3
16	17	1
111	136	1
114	117	2
94	120	1
95	95	1
104	104	6
87	119	1
152	152	5
99	99	2
77	77	2
53	53	4
95	118	2
132	132	2
110	111	2
115	123	1
74	78	1
110	128	1
130	148	2
112	112	2
27	27	1
47	47	2
138	142	1
30	30	2
85	120	1
68	76	1
102	102	2
17	17	3
11	11	2
17	19	2
85	85	2
15	17	3
139	140	2
66	69	1
73	109	3
3	3	2
43	43	2
115	115	1
93	95	1
101	102	2
46	47	2
28	32	2
66	68	1
24	40	2
19	27	1
37	37	3
47	48	1
23	24	1
22	26	1
16	153	2
62	64	2
21	46	1
18	19	2
112	113	1
88	93	1
57	82	1
41	43	1
148	152	1
150	151	2
131	132	1
140	141	1
19	37	1
25	26	1
105	108	1
77	78	1
30	41	1
69	69	1
62	92	1
122	123	1
68	69	1
105	151	1
109	126	1
35	35	1
88	88	1
34	35	1
46	65	1
77	92	1
