179	195	7
38	38	5
104	105	10
219	219	19
40	40	13
115	115	11
117	118	4
177	177	17
101	120	4
110	110	10
55	55	11
186	186	7
46	46	11
208	208	11
239	239	17
119	119	6
243	243	6
203	203	18
2	2	4
48	48	14
181	183	1
4	4	25
74	79	5
163	163	11
160	225	5
118	118	11
186	208	4
7	204	5
90	91	2
117	117	18
183	183	10
192	192	9
187	187	26
221	221	11
238	239	3
152	152	10
116	120	2
5	18	3
168	168	11
178	182	4
232	232	3
67	67	7
201	201	8
22	22	10
74	74	8
247	247	9
93	93	11
91	91	6
53	57	3
184	247	2
244	244	11
58	58	1
234	234	4
196	212	1
5	5	9
89	89	6
161	161	5
111	237	3
38	39	10
76	76	8
85	85	10
42	43	4
156	194	3
32	32	8
200	200	11
81	81	8
156	156	19
225	226	3
42	42	15
178	216	2
185	186	2
97	97	4
158	166	4
93	97	2
20	20	4
69	103	5
213	213	7
245	245	7
29	29	8
45	46	4
70	86	1
147	147	4
44	44	13
58	78	3
214	214	10
202	202	4
147	189	9
217	217	14
155	155	14
14	14	9
60	60	7
84	84	6
240	240	11
21	21	8
184	185	7
25	26	1
213	214	3
164	164	5
31	88	1
18	19	4
196	244	4
105	106	3
186	209	2
10	10	5
25	84	2
94	94	10
33	37	3
220	220	9
41	41	8
41	162	1
106	106	3
150	150	16
235	235	4
65	67	6
87	87	9
169	169	10
88	88	13
15	23	3
227	231	2
215	215	19
169	205	4
57	57	9
150	171	4
170	170	15
165	165	7
224	224	16
67	247	3
184	184	13
26	26	11
6	33	2
66	81	2
78	78	3
82	94	3
152	227	3
109	109	6
102	103	10
14	177	8
158	158	17
166	166	3
12	109	5
91	92	1
106	107	11
68	68	11
9	9	13
71	86	1
241	241	17
59	59	19
197	197	9
157	181	2
114	114	3
207	207	8
14	71	3
56	56	23
31	31	4
68	83	4
183	246	2
23	59	1
25	25	13
61	108	2
151	151	12
93	94	4
111	111	13
227	229	2
213	215	7
5	19	10
48	73	8
65	70	3
229	229	10
146	182	2
100	100	14
243	244	7
63	64	3
178	178	14
228	228	4
34	34	14
67	184	2
151	155	1
66	78	3
101	101	5
191	248	6
43	61	2
82	120	1
46	53	2
54	54	14
204	204	4
48	108	3
2	4	4
234	235	3
195	197	3
35	79	3
79	79	4
231	231	12
90	90	6
34	158	3
71	71	13
154	154	13
20	22	2
52	53	1
14	44	1
207	212	3
174	198	3
77	83	1
157	157	5
113	113	11
153	153	8
51	52	4
180	220	3
98	98	12
32	33	2
214	215	5
112	112	16
12	209	3
31	32	8
4	226	1
49	49	13
30	31	8
208	209	4
193	222	1
89	161	2
175	175	5
102	102	2
15	15	11
66	74	2
33	33	16
62	116	3
160	224	6
64	83	1
189	189	6
172	212	2
148	149	2
165	166	3
53	67	2
65	65	12
223	223	11
69	83	4
174	195	3
53	53	11
14	178	5
209	209	9
173	173	12
87	88	5
68	69	2
236	236	4
207	208	2
87	90	2
245	246	5
11	23	5
203	205	3
167	167	9
70	113	3
24	45	4
3	50	5
102	107	2
219	220	4
199	199	7
246	246	18
196	223	2
67	84	1
188	188	10
79	80	1
60	67	2
23	29	3
64	64	5
89	162	1
11	11	9
12	211	3
95	171	1
27	27	5
71	114	2
237	240	5
71	101	2
222	222	8
3	4	5
64	66	2
158	167	3
87	108	3
153	204	1
174	174	6
33	36	1
220	222	2
162	163	1
99	99	12
241	242	3
157	194	3
66	66	6
61	119	2
95	95	13
215	216	5
65	96	2
35	35	6
50	73	5
34	74	3
69	69	8
225	225	4
229	230	9
3	3	3
36	36	2
40	44	1
111	121	4
6	6	17
181	237	2
75	75	10
73	79	1
80	80	5
104	104	14
73	73	5
81	93	3
16	38	3
150	151	5
167	204	1
198	199	2
7	7	15
50	51	1
162	175	4
82	82	14
66	67	4
179	223	3
92	92	2
63	108	3
205	205	5
221	248	3
1	2	4
26	27	7
78	144	1
55	77	1
207	209	1
41	91	4
239	240	2
16	88	1
96	96	2
78	79	7
51	51	7
159	223	1
9	11	5
6	7	1
212	232	4
92	93	5
18	18	5
16	16	4
196	196	2
72	72	10
28	28	3
2	29	2
24	25	1
107	107	4
34	37	1
104	120	2
86	86	4
207	248	2
0	0	3
14	77	2
114	115	2
24	24	3
179	245	3
37	37	10
76	93	3
152	153	1
229	231	2
79	108	4
34	230	2
51	85	1
176	176	6
60	81	4
226	226	3
116	116	3
105	114	1
168	169	2
248	248	3
92	95	4
26	52	2
23	76	6
201	203	2
48	50	7
44	226	3
52	52	10
70	72	2
65	69	1
160	200	3
6	42	2
72	188	2
55	56	3
211	211	5
172	199	3
182	236	2
88	108	3
82	83	2
186	236	6
227	227	9
86	103	1
198	200	2
40	89	1
178	179	2
238	238	3
13	16	1
171	171	1
23	77	1
91	176	1
22	90	1
192	194	4
61	61	8
76	81	4
171	245	3
8	61	1
57	107	4
7	173	2
179	205	2
209	233	3
45	45	8
64	225	1
157	159	1
105	166	1
78	108	2
33	68	2
5	20	4
96	97	3
31	33	2
164	216	4
84	85	1
192	195	2
182	216	2
23	23	1
121	121	1
67	225	2
36	52	2
70	70	6
206	207	4
187	222	4
198	198	3
49	51	3
65	68	3
156	178	2
197	232	2
196	197	1
4	13	1
31	84	3
167	202	2
175	176	5
108	108	7
177	236	2
120	120	1
58	59	3
171	197	3
175	178	3
152	221	3
63	80	1
162	162	7
193	193	5
237	237	2
76	78	5
47	58	2
15	19	3
182	182	6
55	63	10
62	92	2
58	60	1
222	248	1
86	87	1
166	169	1
150	241	1
149	195	2
8	8	6
191	207	2
49	50	3
210	245	3
169	187	1
105	107	2
36	61	4
25	52	4
114	118	3
39	73	1
32	38	1
9	10	3
8	62	3
100	101	2
211	243	3
59	68	2
94	112	3
17	40	2
217	240	1
13	14	3
208	211	4
195	195	2
34	229	2
162	227	2
13	54	2
50	50	3
50	57	2
183	226	3
192	193	1
118	119	1
119	120	2
84	187	1
17	17	1
220	246	2
182	183	3
80	81	2
200	232	4
42	230	1
242	242	1
152	174	2
103	103	2
181	181	3
181	182	2
179	179	5
168	203	3
194	194	4
107	108	4
99	106	1
77	78	3
180	193	1
19	19	4
112	113	3
147	232	3
204	205	2
180	181	1
235	236	1
190	191	2
168	204	2
228	233	3
107	120	1
47	50	3
226	227	5
72	74	1
238	248	1
104	115	1
212	243	1
15	90	1
170	227	4
87	92	1
43	44	3
171	223	2
174	183	2
35	36	1
56	62	2
34	97	4
69	247	1
169	206	1
66	225	3
191	191	10
47	47	4
5	50	1
61	68	1
39	39	4
38	83	1
54	55	1
160	230	1
218	218	6
203	208	1
70	71	1
172	172	3
162	172	3
65	247	1
57	76	3
183	248	2
97	98	2
12	63	1
190	192	3
62	62	1
171	179	1
95	100	4
247	248	1
27	28	1
181	246	1
150	242	3
99	100	1
215	242	3
85	86	1
68	188	3
63	102	2
224	234	1
192	235	3
210	210	4
19	40	1
115	117	2
19	23	2
44	176	1
230	230	5
166	167	4
69	187	1
71	72	2
159	230	1
162	171	1
167	229	1
8	110	1
34	79	1
44	223	1
72	186	1
30	30	2
20	30	3
182	193	3
68	225	3
210	246	1
181	193	4
51	94	2
171	241	1
83	84	1
183	210	2
162	228	4
3	31	1
14	226	1
83	225	2
41	227	2
149	149	3
21	22	2
61	62	1
28	29	2
158	245	1
206	206	2
8	35	1
113	120	1
21	183	1
178	241	1
223	246	2
35	92	2
193	235	1
23	52	1
66	80	1
2	3	1
109	228	1
44	91	4
73	74	3
197	198	1
164	165	2
180	180	2
36	37	1
195	196	3
25	71	1
34	80	1
4	20	1
216	216	3
54	94	1
179	224	1
160	161	3
39	50	1
13	213	2
237	241	1
28	89	3
165	209	2
35	69	1
159	159	2
163	203	1
205	206	2
63	63	6
217	219	1
161	178	2
62	170	1
175	193	1
98	99	2
101	109	2
190	190	1
29	59	1
91	95	1
163	166	2
227	228	1
145	190	1
45	93	1
226	229	2
20	21	2
175	196	1
150	165	1
59	60	2
70	239	1
60	104	1
115	118	1
249	249	1
145	247	1
212	213	1
176	205	1
65	103	2
29	30	1
39	42	2
187	190	3
21	225	1
87	102	1
210	233	1
61	115	1
233	233	2
165	171	1
230	233	1
5	10	2
176	177	1
62	63	1
180	224	1
121	160	1
69	70	1
43	156	4
212	212	1
47	106	1
168	170	1
12	12	1
110	228	1
210	211	1
171	173	2
156	176	1
235	237	1
157	160	1
218	219	1
160	235	1
194	195	1
185	185	1
70	103	1
216	217	1
93	176	1
20	190	1
32	82	1
47	61	1
197	212	1
159	217	1
175	240	1
193	248	1
76	77	1
109	177	1
39	76	1
58	107	1
