72	72	1
95	95	4
81	95	2
35	103	1
83	134	4
68	86	1
65	65	5
100	131	2
2	30	1
37	61	1
26	78	2
34	34	2
64	64	3
86	90	2
37	55	2
119	132	5
15	15	4
18	33	4
103	104	4
114	117	2
67	67	1
8	9	4
73	73	5
7	7	9
50	55	2
13	13	10
115	125	6
120	126	4
90	90	1
73	74	2
77	128	2
75	128	2
4	4	4
34	59	1
62	62	3
43	72	3
33	35	2
126	126	1
42	49	1
87	90	2
79	93	4
78	78	4
119	133	4
2	2	1
21	21	6
109	110	5
102	131	10
128	128	5
116	116	2
46	74	3
57	127	3
98	132	3
125	132	1
36	103	1
56	110	1
31	33	4
6	8	2
11	12	1
37	37	2
17	28	2
106	106	2
57	109	1
125	133	1
42	42	3
101	101	8
124	124	6
105	105	6
22	134	1
35	104	3
124	125	2
68	68	5
20	20	2
66	66	2
39	39	1
60	60	8
5	6	3
43	79	1
19	19	3
87	88	2
18	18	2
129	129	3
18	32	6
83	111	5
99	99	3
39	49	3
102	102	4
98	98	11
97	101	5
114	116	2
26	106	3
110	111	4
96	101	3
5	5	2
14	14	2
110	110	4
17	105	3
112	112	7
6	6	4
65	66	2
119	119	4
11	11	8
1	3	4
99	131	3
94	128	4
76	76	6
11	28	1
82	82	3
79	82	2
29	29	2
115	117	2
17	20	1
15	105	1
103	106	5
111	126	2
43	62	1
35	35	6
20	21	6
24	24	2
48	85	2
47	47	2
28	28	5
0	33	3
6	14	1
29	31	2
43	48	2
81	82	2
3	4	1
57	57	5
1	1	1
40	40	3
120	120	3
83	99	3
111	111	6
121	122	1
78	79	1
98	99	2
63	63	1
86	86	6
32	33	1
69	69	2
30	30	2
113	134	3
30	31	2
103	103	1
21	22	1
134	134	3
17	27	2
15	16	5
38	38	3
69	85	2
20	107	2
79	127	2
29	104	1
12	105	1
75	75	2
73	82	1
10	10	1
50	51	3
22	103	3
48	68	1
3	11	2
85	117	2
26	27	1
132	132	1
66	68	3
61	61	2
59	59	4
38	92	1
118	118	2
100	100	5
23	109	1
28	30	2
58	58	3
119	120	1
113	122	2
69	86	5
11	60	2
17	17	1
39	88	2
128	129	1
91	91	6
77	94	1
130	130	1
79	80	1
123	126	1
29	34	2
47	77	2
44	44	2
12	12	1
127	127	2
99	112	3
121	121	3
27	28	3
15	21	2
19	74	1
109	109	3
26	44	1
22	107	1
63	64	3
61	62	3
38	40	1
35	36	1
70	91	1
5	14	1
79	79	1
111	123	1
93	93	1
14	18	1
93	134	1
40	41	1
123	123	2
45	45	2
108	110	1
18	57	1
84	116	2
22	22	1
33	104	1
40	87	1
120	121	1
114	115	1
36	55	1
76	95	2
3	62	1
25	36	1
0	36	1
26	108	1
126	132	1
111	112	2
7	19	1
39	41	1
49	90	1
115	116	1
125	126	1
22	108	1
50	50	1
94	94	1
56	58	1
70	70	1
125	125	1
78	102	1
1	4	1
55	79	1
32	32	1
83	112	1
84	84	1
