36	37	14
131	131	23
132	132	6
50	138	6
10	37	2
124	141	1
10	36	5
59	60	5
8	8	8
33	36	7
34	34	21
116	117	4
37	37	38
96	97	4
33	35	1
143	143	17
23	23	15
67	87	1
16	16	14
101	102	7
102	144	2
27	29	5
91	91	7
127	127	8
27	31	1
135	135	10
9	9	17
77	77	11
94	94	8
24	24	10
86	86	14
20	20	23
60	60	10
92	96	10
121	121	18
20	27	3
59	59	19
139	139	11
123	123	4
89	90	10
10	10	20
74	75	11
89	121	2
58	58	17
39	40	10
31	31	18
50	50	4
2	2	30
141	141	16
41	41	14
14	14	13
117	117	26
83	83	6
26	26	15
92	92	6
36	36	19
124	124	15
71	71	8
33	33	21
16	17	3
117	118	7
123	124	3
15	133	2
74	74	12
108	108	19
18	19	5
70	87	1
23	24	2
134	134	14
40	52	4
22	22	34
142	142	17
9	30	2
92	93	6
55	56	3
104	104	10
131	132	4
49	50	1
13	137	3
15	31	2
56	56	15
133	134	13
4	4	15
21	21	26
93	93	8
116	116	5
111	111	14
34	37	4
35	36	4
47	48	6
41	42	6
59	107	6
62	62	15
32	33	2
22	29	4
29	29	19
11	11	21
53	53	16
109	110	11
136	136	11
130	130	6
18	26	4
85	85	14
118	118	6
128	130	6
98	99	4
81	81	12
27	27	11
82	82	5
35	37	4
135	139	2
69	69	13
48	48	11
49	52	4
94	95	4
16	52	2
28	28	21
31	32	12
102	102	19
128	129	8
88	97	2
106	106	11
9	10	2
103	103	13
67	67	4
112	112	14
61	103	3
119	119	3
126	126	7
97	97	11
27	33	4
62	128	2
91	92	4
118	119	3
22	23	2
109	109	6
56	86	1
66	67	11
87	88	5
88	88	7
57	58	4
19	19	11
42	42	12
50	131	2
21	133	4
17	22	4
111	113	3
102	139	3
86	131	2
38	38	8
103	141	1
43	43	4
107	107	10
120	120	13
95	95	14
125	125	4
29	30	5
112	113	2
138	139	1
102	103	6
139	140	5
73	73	5
32	32	19
87	87	7
30	30	25
90	144	2
80	106	2
70	70	7
76	76	9
137	138	4
78	99	7
18	28	3
40	40	13
19	21	3
25	25	4
66	66	8
11	35	1
35	35	15
17	23	1
51	52	4
90	90	3
28	29	7
122	122	5
6	6	5
78	79	4
55	55	7
38	55	1
60	61	4
23	135	1
15	16	4
81	131	1
63	63	7
28	30	7
26	31	1
17	30	2
134	137	2
57	57	9
48	58	4
15	15	3
145	146	2
110	110	6
72	73	5
137	137	7
49	49	5
66	126	2
64	64	11
76	77	6
99	99	6
40	41	1
101	101	6
115	115	6
80	80	17
113	115	5
61	61	13
128	128	7
30	39	3
68	68	7
63	68	4
105	140	4
2	3	5
5	5	6
84	84	5
116	121	2
105	105	5
16	133	4
95	96	6
57	140	2
89	89	2
104	105	3
60	78	3
132	134	2
105	141	4
75	75	10
8	42	5
103	137	3
68	70	2
33	84	2
18	18	14
90	142	5
117	133	3
62	63	1
69	70	7
58	120	3
52	56	1
98	98	6
11	37	4
13	21	3
25	26	6
133	133	7
70	71	4
3	3	9
1	1	3
20	21	4
50	52	2
104	138	1
129	129	6
75	99	3
58	125	2
25	34	2
80	139	2
85	86	1
84	123	1
64	76	2
64	87	4
26	33	1
87	90	1
34	134	3
15	18	2
4	5	6
90	95	2
17	17	7
132	135	3
109	111	3
25	33	4
23	41	1
72	85	2
68	69	4
13	13	7
54	54	10
40	135	4
32	36	4
3	6	2
118	141	1
110	112	2
14	15	2
13	85	3
22	30	5
10	11	2
121	122	1
112	120	2
51	51	7
90	91	1
64	88	1
13	23	6
104	106	3
82	85	2
49	54	1
90	124	2
11	22	2
83	84	1
39	39	7
63	129	1
100	100	6
86	132	1
12	20	2
90	102	4
16	86	2
146	146	1
65	65	5
78	78	6
63	67	3
28	145	4
17	38	2
122	123	5
70	99	1
18	20	6
107	108	1
142	146	1
140	140	10
24	135	3
10	31	1
62	71	1
37	38	3
61	102	2
34	35	5
75	80	3
111	112	2
72	72	5
91	95	2
134	136	1
130	132	2
3	10	2
4	50	1
13	19	2
89	141	2
22	27	1
105	106	2
90	94	1
14	24	1
84	85	2
112	119	3
126	138	2
59	79	5
115	119	4
3	50	1
9	36	2
73	80	2
38	39	2
131	139	1
114	115	5
87	144	5
136	137	6
4	10	1
24	25	1
73	79	1
100	101	8
33	34	4
113	113	4
17	20	1
113	119	2
135	138	2
3	15	2
88	89	1
90	92	1
19	25	1
31	35	2
99	100	2
94	96	1
49	138	7
79	79	3
71	99	1
25	31	3
80	81	2
58	59	2
65	130	1
26	27	2
23	134	3
61	69	1
65	66	3
8	9	1
38	96	1
8	99	1
61	62	3
144	144	2
114	114	2
47	53	1
60	105	2
3	31	4
126	128	1
26	29	1
145	145	3
60	62	1
17	18	1
124	144	2
95	145	1
93	94	2
124	140	2
141	142	2
17	27	1
133	135	1
49	137	1
75	104	1
52	52	2
15	23	2
63	64	1
24	33	1
136	138	1
24	137	2
121	123	1
107	120	2
50	51	2
14	134	1
58	107	2
100	136	1
74	101	1
120	121	8
127	128	1
109	112	2
49	130	2
13	27	1
67	68	2
34	36	1
32	37	1
71	79	1
6	8	2
13	20	1
135	136	1
31	38	2
3	4	1
59	80	2
9	32	3
14	20	2
19	20	1
92	94	1
75	76	2
10	145	1
96	96	3
13	14	1
124	125	2
119	120	1
9	26	1
79	138	1
13	133	1
79	103	1
48	126	1
110	111	1
123	143	1
65	87	2
61	70	2
29	42	1
93	96	1
24	125	1
62	70	1
104	130	1
40	47	2
115	118	1
73	74	1
85	132	1
108	141	1
133	139	1
27	144	1
86	140	1
55	86	1
16	23	1
14	16	1
31	37	1
