98	102	1
106	111	6
83	90	3
10	12	8
100	102	2
8	11	1
117	117	5
83	88	2
107	107	3
10	17	1
23	26	4
72	73	1
88	88	2
78	78	2
1	1	12
11	14	6
114	115	5
107	109	3
113	116	4
135	135	4
76	76	2
100	108	2
112	112	4
113	125	2
2	6	2
10	10	13
86	89	2
90	90	3
21	21	5
28	28	9
82	82	9
121	129	1
119	125	2
112	114	3
73	79	2
30	32	7
31	35	9
126	131	4
93	97	1
0	7	1
110	119	3
111	111	11
116	122	3
113	117	2
134	134	1
104	105	3
114	118	3
2	8	6
16	16	4
118	118	5
140	140	7
36	36	9
104	106	2
16	17	5
117	120	3
104	104	2
5	8	1
112	113	1
104	108	2
74	74	16
37	37	1
89	89	10
29	34	3
9	10	2
5	7	1
24	27	3
77	82	9
14	18	1
109	110	3
30	30	7
15	16	3
75	80	2
9	18	1
99	99	9
101	101	8
31	34	7
18	21	2
111	114	9
114	117	6
33	35	9
71	73	5
136	138	1
4	5	6
77	80	4
125	127	3
108	113	1
74	84	3
116	123	1
7	8	5
109	109	9
6	8	3
77	79	3
74	76	6
137	140	2
35	36	3
16	25	1
102	108	1
115	120	3
139	140	3
100	101	6
116	120	3
126	127	5
17	21	5
7	10	4
114	122	1
113	115	7
24	34	1
34	34	9
21	25	3
117	121	2
8	8	2
115	116	6
32	35	5
137	137	7
95	95	3
108	110	3
116	116	6
23	30	3
124	124	4
130	130	11
5	19	2
73	76	5
28	29	6
89	90	2
79	98	1
100	105	3
94	95	1
127	128	1
103	103	9
131	131	2
108	108	4
24	37	1
83	89	2
116	117	15
80	80	5
24	26	3
2	5	4
87	89	1
26	26	10
20	23	5
136	137	2
111	123	2
82	85	2
0	1	7
103	107	2
25	26	2
25	29	1
96	100	2
0	5	4
18	19	5
128	128	9
18	18	4
14	19	6
66	76	1
111	113	3
78	79	4
25	28	3
71	84	1
19	19	2
97	106	2
86	88	7
123	125	4
36	37	4
95	99	3
91	92	1
75	77	4
95	102	4
114	114	13
76	77	2
133	140	2
73	74	6
76	79	7
12	15	2
6	6	6
115	117	2
83	83	7
7	7	4
89	92	1
20	28	3
122	122	8
105	105	7
103	104	5
95	101	2
73	83	1
107	108	1
101	110	5
2	11	2
110	112	6
91	91	3
80	81	9
118	125	3
91	95	4
87	87	3
106	107	1
129	129	2
3	3	1
73	82	1
132	132	7
120	126	4
117	122	2
93	93	1
121	131	5
29	31	3
115	115	5
104	115	2
20	22	6
23	27	2
113	126	2
83	86	2
15	15	2
102	102	4
6	31	2
110	110	6
133	139	1
119	121	11
111	119	3
126	126	4
120	120	4
3	4	3
105	107	4
2	15	2
33	36	3
123	123	4
131	132	1
84	90	1
35	35	6
101	102	3
34	36	6
6	13	4
127	127	2
84	91	1
27	29	2
5	6	1
85	96	1
31	33	2
87	98	1
13	15	2
107	111	2
107	112	3
105	108	3
100	112	1
118	122	1
68	77	2
27	27	3
127	131	3
90	95	2
25	30	1
17	17	6
25	25	3
10	11	4
72	77	3
85	92	3
25	27	4
89	95	3
97	105	1
99	101	1
18	20	2
81	82	2
72	87	2
124	125	2
37	38	2
5	9	2
11	11	4
77	77	2
31	31	7
5	86	3
8	18	2
109	111	1
121	125	5
120	121	1
72	83	1
71	72	3
72	78	4
100	103	1
108	115	4
121	130	3
93	96	2
103	110	1
76	78	3
13	22	1
32	34	4
16	20	3
85	87	1
105	114	4
5	5	2
6	79	2
113	118	2
74	77	1
100	100	3
108	109	4
31	32	2
91	99	1
88	91	2
74	75	5
22	29	1
22	22	2
3	86	2
136	136	1
110	115	1
27	28	2
2	3	1
25	79	1
72	85	1
7	9	7
14	14	3
115	119	2
81	81	2
1	4	2
134	135	6
18	22	4
3	6	1
0	0	6
119	123	3
17	18	2
81	83	1
24	32	2
125	126	1
35	37	3
84	85	2
4	4	2
94	96	2
91	93	1
118	119	1
115	125	2
71	71	3
2	2	3
4	10	1
66	71	1
105	111	1
86	96	3
81	88	2
118	121	1
78	84	2
75	75	7
29	29	5
85	85	2
111	122	5
79	80	1
139	139	2
14	28	1
97	103	4
119	119	1
26	30	2
2	7	1
13	13	1
82	84	1
21	27	2
27	30	1
21	28	1
89	91	1
98	98	3
78	89	1
76	85	2
132	133	1
104	114	2
20	20	3
89	96	2
89	93	1
80	82	1
135	139	1
84	92	5
28	35	2
29	30	5
86	86	4
75	78	1
75	76	4
106	114	1
96	102	1
34	38	1
24	24	2
87	97	2
87	88	2
9	17	1
22	34	1
106	106	2
71	78	2
134	138	2
134	139	1
138	138	2
86	90	3
79	79	3
125	128	1
114	131	1
117	118	2
15	25	3
86	92	1
18	23	2
126	133	1
94	94	1
124	133	1
102	103	1
138	139	1
125	125	2
96	98	1
73	77	2
112	123	1
113	120	1
17	23	2
102	107	1
128	130	1
13	19	1
114	123	3
87	93	1
85	90	1
78	85	1
72	72	3
130	132	1
35	69	1
72	79	2
109	112	1
83	91	1
79	84	1
102	106	1
106	112	2
134	137	1
114	116	1
14	20	1
1	5	1
103	108	3
22	32	1
110	123	1
7	13	1
78	88	1
133	134	1
23	23	1
8	9	3
88	90	2
105	106	2
80	83	1
17	24	1
17	20	1
9	14	1
113	113	1
113	114	1
15	21	2
87	91	1
120	122	1
34	35	2
107	116	1
134	136	2
1	3	1
101	106	1
93	106	1
118	124	1
31	36	1
73	73	1
78	83	1
119	124	1
98	99	1
84	84	1
27	35	1
85	94	1
129	132	1
