63	63	4
45	46	3
74	111	1
42	42	3
19	20	7
79	81	1
111	129	2
34	34	5
30	35	4
98	98	5
94	94	4
98	103	1
40	40	10
66	82	2
136	145	6
106	106	5
146	150	5
18	18	3
36	36	3
120	121	1
62	120	7
65	65	3
37	37	11
102	128	3
56	90	2
66	76	2
24	24	2
115	115	3
25	25	8
137	149	5
77	78	1
78	79	3
4	143	1
49	50	6
6	6	2
99	99	2
47	54	2
22	23	2
56	56	4
28	28	10
26	34	2
70	74	1
55	57	1
26	26	6
68	68	8
17	17	10
138	142	3
102	103	6
68	71	1
92	93	2
98	102	5
93	100	4
108	108	3
100	100	13
7	90	3
65	66	3
104	104	6
148	148	9
36	37	2
144	152	2
41	41	3
104	142	1
19	138	5
97	129	3
141	141	11
11	26	4
5	33	5
27	27	5
65	75	2
80	81	3
149	149	2
47	47	4
116	116	7
87	87	3
11	12	3
16	16	1
107	107	2
56	89	3
23	34	2
96	96	6
121	124	2
30	30	1
17	18	1
128	128	7
137	137	6
57	57	3
145	145	6
125	125	2
147	148	3
115	116	3
35	38	2
23	23	7
56	87	3
126	128	4
86	86	2
118	118	8
30	31	3
134	134	4
109	154	2
113	113	2
129	129	3
134	135	2
144	144	1
13	28	3
27	36	1
100	104	5
5	10	1
109	109	2
45	45	2
41	42	2
51	88	2
69	69	8
53	53	6
39	39	4
136	136	2
123	123	3
85	88	4
19	19	3
50	50	2
73	110	2
93	101	1
66	66	2
50	51	2
128	151	7
27	28	7
4	8	1
48	49	1
14	15	1
34	35	4
44	44	4
110	110	7
8	33	1
97	97	6
154	154	4
57	92	1
131	131	2
7	57	2
152	152	8
80	80	2
81	81	2
125	126	3
117	117	8
57	63	3
62	62	3
109	110	6
91	95	2
3	6	2
97	104	1
117	126	2
135	135	1
139	142	1
95	95	4
121	121	3
137	139	2
145	150	1
139	139	3
43	43	1
35	37	6
123	127	4
31	31	8
103	103	7
112	113	3
130	130	1
47	55	2
74	74	3
71	73	4
3	143	1
114	114	2
75	75	3
140	140	6
139	140	1
83	86	2
54	54	1
151	151	4
32	32	2
29	29	2
70	119	2
3	5	1
133	133	5
138	145	2
93	93	4
64	67	1
119	119	3
65	67	1
4	33	5
70	70	2
108	130	3
4	4	2
106	107	2
35	35	3
21	21	3
64	65	5
128	131	1
23	28	2
120	122	1
8	14	2
33	33	2
132	133	1
48	53	3
71	119	1
131	132	2
111	130	1
124	124	1
143	143	2
20	20	1
73	74	2
13	31	1
53	58	1
122	123	1
75	100	1
7	8	1
57	87	1
13	30	2
68	69	3
62	75	2
80	82	2
24	25	1
144	146	1
8	9	2
150	150	2
114	117	1
72	72	2
73	73	3
51	55	1
132	132	2
111	111	1
138	138	1
28	29	3
49	49	2
51	51	1
10	10	1
9	9	2
113	114	1
7	25	1
142	142	1
126	126	2
44	46	2
7	106	1
76	119	1
49	87	2
21	142	1
10	13	1
153	153	1
91	92	1
130	131	2
38	38	1
136	150	1
71	75	1
80	84	1
8	8	1
11	11	2
13	13	3
84	84	2
47	48	1
77	119	2
83	83	3
79	82	1
5	5	1
108	109	1
105	105	3
141	142	1
121	123	1
63	101	1
25	57	1
78	78	2
113	117	1
57	89	1
49	88	1
32	38	1
110	119	1
23	33	1
26	33	1
98	99	1
71	71	1
17	21	1
101	101	1
142	145	1
14	14	1
