125	128	2
152	153	9
18	23	2
121	147	3
129	181	2
46	49	6
103	103	4
160	161	4
3	6	7
53	53	8
112	112	7
152	152	6
134	138	2
143	145	2
177	178	4
183	183	5
56	56	6
174	174	10
37	37	8
7	7	4
156	157	5
74	74	1
17	52	1
0	0	2
116	117	4
86	86	2
150	150	4
25	26	5
130	161	3
136	148	4
177	177	5
33	33	3
14	14	3
135	135	4
100	101	4
56	57	6
18	25	2
104	105	2
87	87	2
99	99	7
22	23	3
17	17	2
141	141	6
74	76	2
41	41	1
128	128	2
14	21	1
40	77	4
70	70	6
98	114	1
47	47	8
114	114	7
115	115	1
57	65	1
168	175	1
48	48	8
106	106	7
21	23	6
182	182	6
142	152	4
151	178	2
29	29	6
155	155	5
64	64	6
133	135	4
67	67	2
111	111	2
113	135	3
159	159	6
15	18	5
128	148	3
146	151	1
186	186	4
150	156	2
86	87	3
139	139	6
188	188	3
28	28	6
61	63	1
75	93	5
88	88	10
73	103	4
82	82	6
83	83	2
64	95	4
120	130	1
107	107	2
189	190	3
125	125	2
163	163	4
73	74	4
27	29	3
26	38	1
25	25	1
18	19	3
138	138	8
93	93	4
185	185	3
131	132	3
64	78	2
80	80	4
18	24	8
167	168	3
42	43	1
23	26	3
34	34	2
100	114	1
30	31	3
65	67	1
15	15	6
22	24	4
175	175	8
89	94	1
39	87	1
91	92	2
163	169	1
79	79	4
154	154	2
74	145	3
10	10	4
162	162	6
122	122	1
142	146	1
100	100	9
149	149	12
174	177	1
133	133	10
11	12	2
99	114	4
188	190	5
172	173	3
15	20	2
140	140	4
73	106	1
59	59	2
186	187	2
82	83	2
154	165	1
15	39	1
26	26	3
102	103	2
13	23	3
119	119	5
2	3	1
172	172	2
4	4	4
163	164	2
166	169	2
18	18	2
116	116	3
103	107	1
11	11	6
6	6	4
164	164	2
22	22	4
20	24	1
79	80	5
9	9	3
91	91	2
105	105	5
8	8	2
33	35	1
32	32	8
104	104	3
134	134	3
13	21	2
91	95	1
180	180	7
45	45	10
78	79	1
91	96	1
111	112	1
27	27	6
140	141	2
171	171	9
55	55	8
74	98	2
69	69	1
187	188	1
56	106	2
2	2	2
115	116	3
84	84	7
127	180	1
98	110	3
139	153	2
135	182	1
26	28	3
57	69	2
129	158	3
62	62	4
189	189	3
62	63	1
45	46	2
168	168	7
85	85	8
38	38	7
12	12	4
166	166	1
0	13	1
10	15	1
76	76	6
23	23	2
55	56	2
85	94	2
77	91	2
43	83	1
130	130	3
121	121	1
13	13	5
36	36	3
54	56	4
152	188	1
59	60	1
108	108	5
171	174	1
145	145	1
12	20	1
136	180	1
110	110	4
96	96	1
181	181	4
108	119	4
118	118	3
59	61	1
43	44	2
25	36	4
43	43	3
121	148	1
40	40	4
167	167	4
77	77	1
21	24	2
97	97	4
143	144	2
138	181	2
33	37	2
101	136	1
75	75	2
13	36	3
24	25	2
97	100	3
65	66	2
113	138	2
23	24	2
174	176	4
133	134	1
67	119	2
178	178	5
27	37	1
20	25	2
54	55	4
146	146	2
117	117	4
160	177	3
153	177	1
52	53	7
46	46	2
58	58	2
126	126	1
105	112	1
127	127	3
12	42	2
57	57	1
150	155	6
162	165	1
57	61	1
80	81	3
5	86	1
89	89	1
110	119	1
100	102	1
44	45	1
44	44	2
75	76	4
41	58	1
12	14	1
66	66	6
101	163	1
173	173	1
137	171	1
21	21	3
145	146	1
89	95	3
4	5	1
109	143	1
95	97	2
131	131	1
81	81	2
1	1	2
85	89	1
182	183	1
26	36	1
58	59	1
184	184	1
84	86	2
143	143	1
4	21	1
71	105	1
39	41	2
19	19	2
108	117	1
77	94	1
147	150	3
60	65	3
160	160	1
73	108	1
6	7	3
110	112	2
132	138	2
179	179	1
16	17	1
27	28	2
106	107	1
129	152	1
61	67	1
142	149	1
55	58	1
54	90	1
118	136	1
78	78	1
98	120	1
2	8	1
177	179	1
123	123	1
113	113	3
109	109	1
127	128	1
93	94	1
100	104	2
20	20	1
160	178	3
71	71	1
177	181	1
162	164	4
102	102	1
167	171	1
158	162	1
170	173	1
92	146	1
56	71	1
107	108	1
169	169	2
19	20	1
175	176	1
95	98	1
120	120	1
107	112	1
63	63	1
91	94	1
54	96	1
143	188	1
89	96	1
131	151	1
35	35	1
101	129	1
70	72	1
21	59	2
73	109	1
146	152	2
116	185	2
98	98	1
21	22	1
71	72	1
16	52	1
20	21	1
106	145	1
160	176	1
