76	76	4
28	28	2
4	4	5
26	26	7
10	10	2
43	44	5
80	80	8
32	32	12
41	41	10
41	43	2
64	64	3
69	69	4
85	85	3
122	122	7
77	77	5
104	104	2
69	87	2
76	105	1
2	2	13
7	7	5
31	48	4
70	70	6
79	112	4
25	27	9
56	56	9
3	3	4
49	49	11
82	82	9
0	0	2
54	54	5
20	21	6
118	119	4
71	71	10
18	19	3
125	132	2
66	105	9
20	20	8
127	127	5
80	95	2
131	132	1
101	102	2
113	113	14
50	50	5
17	44	2
105	105	4
120	120	4
65	65	5
14	21	1
55	98	4
123	124	2
121	121	4
89	89	9
48	48	3
123	123	7
91	94	4
62	62	5
107	107	10
5	5	3
8	19	1
34	34	3
106	106	10
86	88	1
114	114	11
117	117	3
117	118	2
57	57	7
51	51	2
116	116	4
133	133	5
3	4	6
111	111	3
95	100	5
100	100	6
72	103	1
50	56	5
90	105	3
8	8	8
44	45	2
13	13	8
92	92	2
40	40	2
59	110	5
22	61	2
124	124	14
22	22	4
16	16	6
66	66	3
103	104	4
83	83	4
59	109	1
112	112	6
63	63	1
12	12	5
98	98	2
6	6	5
46	46	3
1	1	11
125	125	7
129	131	1
59	59	5
125	133	1
131	131	5
31	32	2
115	115	2
39	39	4
30	30	2
42	43	8
58	66	1
6	32	2
79	100	3
58	75	1
92	101	2
79	79	1
88	88	2
20	24	3
72	110	1
24	24	1
44	44	3
78	78	5
16	17	2
58	58	5
72	104	3
17	17	3
118	118	5
97	97	2
3	5	5
101	118	1
73	90	4
22	97	1
9	18	1
7	14	2
53	53	3
61	61	1
66	108	1
45	46	1
112	113	1
126	127	2
72	76	3
69	85	3
76	104	1
47	47	3
54	124	1
6	54	3
101	103	1
9	9	1
65	108	1
93	112	2
86	86	1
93	93	3
99	126	3
102	102	2
5	52	4
124	125	1
84	84	1
89	90	1
23	58	3
104	105	1
31	33	1
66	68	2
91	92	2
111	112	1
72	73	1
2	51	1
93	94	4
128	129	1
72	72	2
68	68	2
55	55	7
99	99	4
64	68	1
15	15	1
67	108	2
97	98	1
108	108	2
60	71	1
96	96	3
88	89	1
110	110	1
2	3	2
125	131	2
75	98	2
23	23	1
50	51	1
129	129	1
12	13	1
19	19	3
103	103	1
38	38	1
25	25	2
54	56	1
132	132	1
11	12	2
14	132	1
75	75	1
0	1	1
72	105	1
105	107	1
91	103	2
77	104	1
63	66	1
128	128	1
