36	36	30
7	7	20
33	57	5
73	73	22
33	33	18
59	59	26
29	29	32
25	26	8
32	34	2
25	72	3
46	46	7
44	44	16
24	24	19
13	13	13
42	42	33
45	45	17
44	45	10
60	60	12
2	21	6
43	43	13
38	38	12
8	51	4
37	37	12
51	51	16
27	27	5
47	47	15
23	23	14
50	50	28
1	2	17
63	64	9
35	35	11
71	71	17
75	75	12
36	38	5
23	24	13
10	10	6
69	69	18
65	65	18
0	0	17
49	49	22
4	4	17
2	2	9
5	21	7
27	28	5
20	31	5
48	48	25
21	21	14
39	40	4
48	49	8
6	7	2
34	36	3
54	55	13
34	64	2
49	75	7
68	68	19
67	67	12
62	62	19
25	25	17
22	22	20
32	33	3
46	47	7
35	65	1
34	42	5
41	41	17
33	69	3
11	11	7
18	19	11
26	27	7
76	77	4
9	10	4
64	65	2
32	68	7
77	77	14
72	72	12
53	53	16
30	30	21
33	34	12
35	61	1
58	58	30
77	78	2
39	39	14
33	46	1
22	38	1
61	61	11
52	52	19
49	58	1
70	70	12
40	40	12
24	25	8
20	20	23
41	43	8
64	64	10
64	66	1
76	76	17
8	8	14
55	59	2
54	54	9
1	1	11
66	66	6
19	19	13
28	60	8
31	31	11
34	34	11
31	63	6
74	74	15
7	8	5
35	36	8
40	41	5
9	9	8
35	37	4
41	57	7
30	61	3
57	57	23
51	57	4
5	5	11
55	55	23
59	60	3
12	12	11
8	9	3
61	62	8
67	70	1
32	32	18
0	2	2
13	77	2
31	38	3
14	75	4
5	7	2
58	59	9
42	48	1
3	3	6
61	63	3
74	77	2
65	66	7
68	69	2
26	26	11
43	58	1
14	14	7
22	24	4
43	45	3
56	56	15
31	58	1
75	76	2
9	75	2
28	28	13
8	50	7
21	22	5
52	69	5
3	25	3
73	74	5
30	31	7
49	52	3
68	70	1
53	54	3
21	28	3
49	69	1
3	4	4
52	55	4
4	5	2
2	26	2
50	73	4
28	29	7
8	74	1
49	50	4
49	76	1
55	56	3
22	23	7
23	25	6
69	70	3
53	56	3
7	74	1
22	28	3
50	51	2
15	71	2
33	62	4
48	76	3
50	71	2
52	54	1
48	53	1
28	71	1
10	14	2
33	42	3
71	72	3
5	20	1
52	71	2
8	10	1
43	44	7
29	30	5
31	61	3
38	43	3
72	73	5
57	68	3
21	72	4
37	38	6
6	6	7
12	13	6
37	39	1
19	21	1
34	37	1
58	70	3
62	69	1
64	70	5
63	63	8
9	74	4
10	11	2
3	6	1
57	70	1
42	57	3
11	50	1
47	56	2
66	67	3
29	60	2
35	46	1
47	48	3
22	25	3
70	71	3
38	39	2
19	20	1
35	38	1
60	62	2
3	21	4
45	46	1
39	41	2
4	6	2
36	39	1
0	1	2
45	60	1
5	6	3
13	59	1
31	59	1
47	71	1
46	56	1
32	61	3
32	59	3
30	65	1
32	41	2
14	77	2
44	46	2
50	75	1
34	35	2
49	51	1
67	68	1
60	61	1
21	38	3
10	13	1
44	72	2
41	42	1
73	76	2
48	71	1
62	64	1
18	18	2
31	62	1
0	74	1
48	58	1
61	67	1
6	9	1
57	58	1
