20	21	6
173	173	10
141	141	15
85	85	10
28	28	6
98	98	7
51	149	2
21	23	1
24	26	1
192	193	4
167	167	11
73	73	22
88	88	5
162	163	1
170	196	4
179	179	15
49	169	6
63	63	6
11	11	8
24	24	21
86	86	12
61	61	23
39	42	2
129	130	10
97	97	24
157	157	6
143	144	13
124	126	2
23	29	1
156	157	6
83	94	4
78	78	12
117	117	7
123	123	23
179	180	2
70	70	8
89	89	19
114	115	11
54	54	18
100	100	14
50	50	30
154	178	3
104	104	10
0	0	17
76	78	5
182	183	1
152	153	4
125	125	17
17	17	6
10	10	13
143	145	5
189	192	1
21	21	12
156	156	13
116	116	12
81	81	8
124	124	10
102	104	2
84	86	4
26	26	14
168	171	3
111	111	18
80	80	4
23	23	15
82	82	3
121	121	22
27	27	13
138	138	14
13	13	9
108	108	9
101	101	13
68	68	4
126	126	11
192	192	10
142	142	26
186	186	24
181	187	3
9	9	10
118	118	15
40	41	5
169	169	15
60	60	11
167	171	1
155	156	10
59	59	16
101	103	3
160	160	10
83	84	3
25	27	4
183	183	14
95	95	13
177	177	16
79	130	2
38	38	17
113	113	13
1	1	10
84	84	8
127	127	22
39	39	7
124	125	5
185	185	13
62	63	6
107	107	13
45	45	16
159	159	10
0	1	2
78	79	6
144	144	14
112	112	13
62	66	2
101	102	4
173	189	4
128	128	19
4	8	1
17	71	1
187	188	3
56	57	7
153	153	11
10	11	3
26	27	9
149	149	7
31	31	7
44	44	11
130	130	10
22	22	5
117	119	2
65	67	6
60	61	14
33	69	5
46	47	1
48	107	3
48	48	8
102	153	2
12	12	9
41	41	10
106	113	1
15	15	11
58	58	8
99	102	1
38	39	1
122	122	9
182	182	7
161	162	4
37	37	8
59	60	4
25	29	4
103	103	7
102	102	9
11	12	4
134	135	2
132	133	7
45	46	1
170	170	17
157	158	5
133	133	4
73	74	2
171	171	11
105	105	6
129	129	14
70	72	2
52	52	9
131	132	9
134	134	4
3	3	12
42	42	13
71	71	17
77	77	6
43	43	5
144	145	5
168	168	18
95	97	1
94	94	9
66	66	9
36	36	9
6	6	4
2	2	3
28	30	4
115	115	21
122	168	2
53	53	12
41	42	9
123	124	6
160	161	1
16	17	4
49	52	3
172	172	8
34	34	5
158	187	1
158	166	3
104	105	1
174	175	6
51	51	19
81	82	5
56	70	5
47	47	9
0	7	2
146	146	7
185	188	1
166	166	7
181	181	18
39	44	5
35	35	8
171	172	2
80	97	1
134	136	1
154	154	13
40	40	11
29	29	2
57	57	8
95	96	2
36	37	4
168	169	7
166	173	1
196	196	9
188	188	18
6	15	3
133	134	4
94	96	4
115	116	1
188	191	2
106	106	9
8	8	1
70	73	3
193	193	13
60	112	1
30	31	5
149	150	6
79	79	8
189	189	7
69	69	9
5	141	2
32	32	11
195	195	4
132	132	7
109	110	2
51	142	1
87	87	5
30	30	13
99	99	3
19	36	3
55	56	8
164	164	14
27	28	3
154	160	2
197	197	7
5	8	1
72	72	9
20	136	2
114	114	14
145	145	9
103	104	3
33	33	8
136	137	2
54	62	4
187	189	2
83	83	7
18	19	3
189	190	4
147	147	7
55	55	4
178	178	1
16	16	12
66	123	1
152	152	9
121	166	2
154	155	1
130	132	4
173	174	5
126	127	5
147	151	2
75	75	4
121	122	6
162	173	4
84	85	5
19	20	1
46	46	12
140	140	9
187	187	6
119	119	7
97	138	2
62	62	6
130	131	8
115	153	1
195	196	3
162	162	6
176	176	5
21	22	3
148	148	10
72	129	6
89	90	4
5	5	8
154	159	5
65	65	7
4	6	3
178	179	2
151	151	5
19	19	3
104	148	4
136	136	10
142	145	4
77	118	4
49	49	4
86	87	1
158	158	7
83	138	1
190	190	4
104	111	2
57	58	7
118	167	2
64	65	7
142	146	1
98	99	3
82	147	4
95	138	3
20	20	7
6	8	2
24	88	2
185	187	1
58	99	5
141	142	5
61	62	3
139	139	8
47	107	5
31	32	6
25	25	14
77	78	8
26	33	4
173	176	2
17	18	1
158	159	1
109	150	2
113	114	1
110	110	3
109	109	5
165	165	3
131	131	1
5	7	1
14	136	1
2	138	1
84	89	1
143	143	8
145	150	4
76	76	3
177	178	1
169	170	4
181	182	1
102	103	6
107	108	1
3	4	5
61	114	2
23	37	4
56	60	3
180	182	2
163	163	8
74	80	1
186	193	3
87	88	2
39	43	4
62	113	5
29	30	3
129	134	3
18	18	12
90	90	4
150	150	3
76	77	1
111	192	2
56	56	11
93	94	1
161	166	1
151	180	1
174	174	11
2	9	1
67	67	8
125	126	4
49	50	3
136	183	3
106	108	4
4	4	2
183	184	2
50	51	6
143	150	1
34	35	9
23	71	2
161	165	3
175	176	2
172	173	1
146	156	2
194	194	2
40	42	2
78	98	2
6	9	3
85	89	1
54	63	4
98	116	1
129	131	3
50	79	1
4	141	1
33	35	1
37	38	4
53	54	1
115	152	2
175	175	7
7	8	4
74	74	1
12	130	2
35	36	6
115	162	3
184	196	4
147	150	2
105	106	7
60	101	1
66	67	2
196	197	2
184	184	9
180	180	1
69	70	1
138	155	3
191	191	5
30	38	1
119	120	2
94	95	4
176	177	2
137	137	2
158	180	3
69	123	1
54	55	3
163	164	1
167	168	3
108	109	3
151	152	1
114	188	1
56	69	2
133	135	1
8	9	2
1	17	1
63	64	8
180	181	2
161	163	3
139	140	5
135	137	7
155	178	1
120	120	9
24	59	2
150	151	1
4	16	2
148	149	5
1	2	3
83	86	5
27	38	1
110	111	2
124	169	1
66	69	1
144	147	2
60	77	1
93	96	2
96	103	2
119	122	1
71	126	1
74	77	1
0	186	1
148	159	2
120	121	3
149	160	2
161	161	3
77	100	3
58	59	4
54	66	1
105	149	1
27	64	1
155	155	8
165	167	1
25	26	3
135	135	2
70	71	1
4	5	1
138	140	2
93	93	3
30	66	1
148	164	2
137	138	1
50	52	1
119	168	1
100	101	3
101	119	1
112	113	3
186	188	1
130	134	3
163	165	1
178	186	1
4	142	1
95	103	2
45	72	1
170	171	1
96	96	1
21	136	2
179	183	1
0	116	1
73	81	1
64	64	3
117	118	1
5	10	1
155	159	4
13	55	1
13	50	2
184	185	1
32	33	1
166	167	2
20	64	1
14	14	5
25	87	1
31	66	1
164	165	1
45	81	1
22	89	1
165	166	2
142	143	1
56	67	1
58	79	1
122	162	1
10	12	1
17	58	1
18	36	1
24	37	1
7	7	6
186	187	1
2	17	2
41	83	1
105	147	1
74	75	2
3	6	1
194	195	1
189	191	4
62	156	2
144	146	1
99	100	1
13	14	1
118	119	2
148	151	1
145	146	1
174	176	1
106	150	2
95	139	2
73	82	1
163	166	1
79	80	1
52	58	1
10	132	2
0	188	2
2	147	1
67	68	1
79	98	2
147	159	1
50	76	2
102	151	2
138	139	1
139	155	1
24	25	1
7	10	1
96	102	1
30	69	1
155	182	1
136	155	1
48	49	2
68	69	1
153	155	1
75	130	1
22	23	1
51	137	1
60	69	1
148	150	1
152	191	1
104	106	1
157	166	1
120	153	1
20	22	1
80	82	1
43	44	1
152	158	1
