126	127	8
31	31	13
127	127	12
106	110	1
104	104	13
126	126	10
21	21	14
136	136	13
80	80	16
110	110	6
75	88	4
118	118	9
82	82	18
73	73	16
33	34	8
139	139	17
19	19	20
17	106	2
7	7	15
122	122	14
114	114	12
111	111	24
37	38	3
90	119	8
78	78	12
22	22	18
93	94	5
104	105	14
109	109	12
2	16	1
78	79	6
99	99	26
9	9	15
131	132	4
32	32	11
96	96	12
85	86	7
90	91	2
100	100	13
0	0	11
135	135	15
15	31	2
20	20	14
77	77	17
93	93	30
76	76	15
27	27	12
106	107	2
114	115	5
91	95	3
71	72	9
132	132	10
127	128	7
115	115	36
89	89	18
35	35	18
121	122	15
18	25	7
17	18	10
83	83	12
94	94	25
5	8	2
113	114	18
17	24	5
75	75	17
24	26	5
119	120	7
71	71	16
34	35	3
100	102	6
86	86	12
73	76	5
81	81	25
25	25	7
29	29	18
85	85	11
134	134	21
102	102	11
94	95	4
0	17	2
14	32	2
25	112	1
15	15	17
89	119	10
30	31	7
101	102	7
10	12	3
8	8	19
113	113	21
128	128	16
30	30	23
117	117	20
133	133	9
101	103	4
18	106	6
26	26	13
21	22	7
130	130	17
79	79	24
22	23	8
119	119	9
1	100	3
6	6	15
16	16	7
14	14	11
86	101	2
128	129	14
17	17	14
2	3	8
134	135	12
8	15	1
129	129	12
78	80	3
34	34	13
20	21	8
92	93	15
96	124	4
1	16	7
1	1	18
18	18	16
106	106	7
97	97	15
2	2	16
123	123	12
28	28	9
112	112	16
121	121	11
13	13	11
125	125	7
23	23	8
24	25	3
92	92	13
18	19	3
77	78	4
84	84	18
86	122	3
86	88	9
6	9	1
11	11	16
5	5	18
124	124	16
9	10	3
1	2	3
3	4	13
33	33	16
108	110	1
37	37	11
108	111	6
90	90	15
23	24	7
108	109	14
98	98	14
87	87	13
137	137	5
10	10	13
10	30	4
121	124	3
109	111	6
27	110	6
73	74	2
88	88	11
91	91	20
25	26	3
92	95	6
74	86	2
120	121	7
131	131	24
89	90	5
35	36	2
0	20	4
13	14	9
27	29	3
74	76	4
103	106	1
81	82	3
31	32	7
113	117	2
98	99	4
88	89	3
111	112	1
107	107	13
7	9	1
127	129	4
3	10	2
97	98	6
72	72	16
3	3	11
105	107	1
112	113	4
16	77	2
130	132	4
24	24	4
73	81	1
86	87	5
108	108	7
19	20	5
28	29	3
33	74	2
5	6	6
95	95	14
100	103	1
4	4	14
9	15	4
140	140	6
5	112	2
116	116	19
36	36	8
83	121	4
38	38	18
74	74	14
101	101	7
105	105	13
72	110	1
107	108	2
75	76	5
110	114	2
85	87	4
98	115	3
26	118	2
120	122	3
102	104	1
4	8	2
71	97	5
81	113	3
82	84	4
4	12	2
75	92	1
76	77	4
83	85	3
133	134	3
11	12	13
85	103	1
80	81	4
10	16	2
19	103	4
31	79	2
17	107	1
6	32	2
110	111	4
91	94	3
2	4	4
4	6	1
110	112	1
137	139	4
10	11	3
0	1	2
29	30	3
22	26	2
74	75	5
120	120	9
89	122	1
36	95	3
77	120	2
76	120	6
9	105	1
0	108	1
16	28	1
37	87	3
83	88	2
17	19	1
104	107	1
99	124	2
87	88	2
17	103	2
138	139	1
109	110	4
112	114	2
138	138	6
104	106	2
14	15	1
73	125	2
101	104	1
81	118	4
18	24	2
76	125	1
26	29	3
89	95	1
116	117	3
111	114	2
132	133	3
12	13	3
110	113	1
0	7	1
7	104	4
17	25	1
7	8	8
79	80	4
4	5	3
27	28	1
28	31	1
9	104	2
81	86	2
117	119	3
39	129	1
31	82	1
115	117	6
25	29	1
103	103	1
100	101	2
83	96	2
91	92	1
102	109	1
117	118	1
82	113	2
4	33	1
36	37	3
77	79	1
99	100	4
16	18	1
83	84	7
30	111	2
6	105	2
91	119	1
4	32	1
12	12	6
14	29	1
105	106	2
102	103	2
125	126	6
0	10	1
84	118	3
19	21	1
5	10	1
84	113	1
122	125	1
83	86	2
27	71	1
6	8	2
124	125	7
92	94	1
129	130	2
8	9	1
73	77	3
95	96	1
88	96	1
126	129	3
15	16	3
4	11	1
103	104	1
72	73	1
76	119	1
85	117	1
21	23	1
18	104	2
73	126	1
87	122	1
82	83	1
91	118	1
19	25	1
26	115	1
20	22	2
9	30	1
76	90	2
17	104	1
136	138	1
81	85	1
91	93	3
37	75	1
20	104	1
87	112	1
18	22	1
97	99	1
72	74	1
16	17	1
137	138	2
118	120	1
83	112	2
90	124	1
25	27	1
71	111	2
124	126	1
102	108	1
