20	20	9
171	173	1
126	134	1
177	177	9
17	228	3
155	156	1
187	187	9
51	52	3
203	206	4
2	3	6
147	147	11
213	213	8
210	210	7
22	23	4
226	226	7
236	237	7
164	174	4
44	73	2
33	34	1
180	180	11
43	43	20
55	55	19
115	115	16
191	191	15
107	107	9
145	145	5
46	46	8
47	47	22
170	170	14
139	142	1
198	198	10
188	189	5
19	26	3
162	162	9
26	26	7
14	14	3
56	56	5
143	143	4
228	228	11
215	215	17
234	235	2
51	51	6
221	221	14
211	211	3
9	9	14
212	212	10
30	30	7
234	234	11
28	28	21
168	168	25
225	225	7
87	104	2
199	199	6
186	186	7
58	66	2
62	62	14
84	84	9
69	69	14
209	209	11
86	86	21
217	218	5
230	231	4
174	174	13
54	54	17
81	81	15
166	167	4
185	189	2
172	185	3
206	206	1
43	54	1
97	105	3
159	164	1
224	225	12
146	146	7
232	232	14
136	136	3
160	160	7
3	3	2
202	202	4
96	96	9
182	199	1
22	22	15
201	201	4
111	112	2
116	116	7
118	125	4
168	169	9
0	32	2
189	189	7
141	141	3
185	186	1
116	117	3
39	39	11
13	16	2
25	25	9
167	168	2
48	51	1
11	11	16
157	158	4
35	107	1
169	170	2
42	65	4
142	147	3
219	219	16
152	153	2
18	18	8
156	162	2
164	165	3
190	196	2
202	207	1
100	103	2
42	84	2
149	149	9
27	27	13
166	190	1
62	63	1
41	41	6
157	157	9
175	175	6
52	53	5
188	190	5
101	101	5
103	104	5
114	115	2
31	79	3
229	229	16
119	120	7
24	60	3
186	187	3
51	61	1
192	194	2
127	127	7
57	57	6
97	97	10
155	157	5
99	99	7
129	130	6
114	114	9
192	192	13
181	181	4
38	85	2
53	53	6
72	72	6
184	185	4
171	171	5
161	161	9
222	222	12
231	231	5
169	169	4
38	38	10
152	152	11
12	19	2
77	77	9
215	216	3
16	16	2
126	126	8
109	109	7
34	34	8
241	241	12
173	173	3
41	67	1
162	166	7
233	234	5
158	159	6
224	224	18
166	166	2
210	211	6
166	169	4
59	59	2
154	154	7
4	4	4
64	66	1
206	207	7
204	204	3
58	58	9
50	188	2
32	32	10
180	216	4
105	106	2
128	128	12
5	16	8
53	55	4
60	61	4
8	8	17
32	83	1
138	138	10
159	159	7
55	74	1
13	18	2
48	48	7
22	40	2
98	127	4
214	214	4
148	148	13
140	140	5
46	206	3
16	17	3
153	154	3
106	130	2
130	130	2
242	242	11
103	103	6
176	177	4
24	24	9
217	217	9
97	98	1
101	110	2
64	64	13
52	52	4
39	65	1
223	223	8
121	171	3
13	13	3
108	127	2
164	164	5
76	78	5
235	235	11
184	184	8
178	178	12
129	129	11
197	197	12
145	146	1
238	238	9
60	60	6
227	228	3
151	151	9
137	138	2
223	227	2
219	233	2
67	79	7
220	220	20
11	15	5
35	86	1
78	78	4
118	142	4
117	117	10
42	55	3
163	163	4
153	153	7
200	200	3
121	122	3
81	83	2
27	145	2
122	122	7
137	203	1
137	137	11
143	149	3
0	1	2
204	206	2
213	217	1
227	227	6
157	184	3
108	133	3
24	145	3
106	106	9
23	23	2
1	211	4
21	62	5
50	51	4
71	72	2
230	240	3
67	67	13
76	76	5
217	221	3
137	139	6
175	185	2
10	10	5
5	5	3
112	112	4
83	84	1
167	169	2
106	107	4
151	152	6
236	236	5
19	29	3
11	13	5
45	45	11
70	70	12
2	4	2
25	150	1
140	141	6
63	63	3
58	223	2
131	131	2
0	0	6
40	41	1
230	230	12
1	32	2
188	188	6
46	204	2
7	8	9
165	165	6
9	20	2
211	212	2
240	240	13
108	108	5
74	74	13
214	224	3
239	239	6
78	79	1
85	85	6
124	124	5
1	1	5
237	238	1
111	111	5
144	145	4
178	179	1
30	41	3
52	82	5
50	54	1
35	49	4
229	230	2
77	144	1
67	80	3
159	160	3
65	65	3
20	64	3
140	144	1
240	241	3
44	44	9
3	7	3
179	179	7
126	127	3
135	139	1
137	154	2
123	123	13
98	171	1
95	95	2
49	49	8
39	42	2
195	195	3
167	167	6
57	58	6
36	36	4
102	102	2
147	157	1
133	137	1
2	118	4
73	73	8
214	215	2
118	119	6
202	203	3
46	47	2
29	29	7
32	82	8
0	3	3
211	221	1
183	183	7
194	194	5
196	196	8
11	20	1
239	241	3
31	35	1
172	172	7
125	125	5
174	175	6
59	60	3
26	64	3
118	120	3
170	172	1
32	70	2
56	59	3
105	105	4
113	113	3
205	206	4
132	152	1
44	45	1
131	159	1
17	17	6
216	228	1
197	223	1
147	148	8
155	155	13
77	78	3
39	46	2
205	205	7
113	127	3
200	206	1
19	20	2
161	162	3
71	73	4
73	240	1
176	179	5
173	175	3
122	146	1
78	80	2
40	40	12
11	154	3
109	128	1
141	154	2
69	71	3
135	155	6
190	199	1
51	53	3
163	166	3
24	69	3
41	66	1
181	182	2
50	50	3
114	118	3
113	121	2
159	163	1
88	99	2
237	237	5
158	158	3
1	7	3
230	234	2
183	197	1
115	117	3
14	40	1
225	226	2
4	5	1
102	103	2
29	30	6
118	118	3
37	85	5
169	174	2
235	237	2
61	62	2
105	118	3
66	66	2
102	107	2
17	56	3
132	132	6
77	143	2
82	83	4
16	21	3
187	188	2
37	37	15
75	75	2
68	68	2
21	22	4
208	210	1
80	80	5
193	196	1
127	128	2
203	203	12
226	227	3
185	185	3
75	85	3
139	139	7
216	216	4
83	83	5
208	208	6
29	74	2
86	88	3
38	223	2
182	182	2
193	194	2
146	152	3
55	57	1
195	196	1
37	38	1
121	121	7
133	133	3
19	36	1
10	237	1
43	49	2
2	2	3
33	52	1
120	120	2
214	217	3
8	16	1
4	12	1
11	155	1
133	134	2
215	217	1
232	233	3
207	208	2
193	193	3
178	214	1
122	163	1
176	176	2
190	190	1
125	127	2
54	120	1
223	237	2
29	62	4
83	144	2
156	158	2
160	175	2
140	142	1
225	237	4
212	213	7
2	119	1
19	27	1
158	167	1
98	109	5
85	86	2
144	144	3
136	179	2
194	198	3
38	62	2
98	98	4
156	156	4
72	73	2
135	135	3
104	104	9
101	102	2
32	80	1
21	21	4
222	239	1
3	6	1
201	208	2
48	172	2
160	161	1
31	31	4
112	113	3
27	29	2
176	178	1
150	151	3
18	21	1
66	79	1
71	71	4
97	101	1
197	200	1
9	238	1
19	19	8
150	150	3
50	57	2
61	61	3
168	178	2
55	56	1
15	25	2
59	83	2
219	220	2
30	75	1
100	100	2
149	151	2
212	221	1
17	18	1
135	152	2
165	167	3
81	146	2
35	35	3
151	154	2
20	21	2
20	241	2
81	82	2
12	12	2
45	46	1
33	86	1
31	36	3
157	185	2
34	68	1
223	224	2
10	18	2
150	181	2
71	74	2
220	221	2
185	188	1
2	7	2
95	101	1
82	82	4
140	164	3
48	52	1
42	42	2
233	233	3
6	7	2
187	190	1
120	122	1
52	54	2
115	116	3
80	81	1
7	16	1
46	242	1
15	16	2
43	51	1
43	50	1
14	15	3
65	105	2
223	225	1
65	68	2
35	79	1
124	161	1
120	121	3
11	18	1
12	30	1
218	219	1
238	239	2
68	70	1
162	168	2
227	237	2
119	125	2
208	222	1
57	68	1
101	104	1
4	16	2
105	109	1
220	227	1
11	12	1
17	59	2
85	88	1
80	84	1
82	84	1
140	152	2
100	129	1
54	173	1
7	7	1
218	218	1
2	6	1
95	100	1
98	131	1
49	53	1
131	132	2
200	201	1
6	6	1
101	108	2
66	67	2
5	89	1
197	199	1
119	119	2
26	242	1
79	79	1
146	147	1
86	172	1
122	123	1
9	201	3
237	240	1
23	239	1
33	33	3
191	192	1
165	170	1
234	236	2
17	226	1
18	19	1
196	199	1
235	236	1
127	133	1
157	180	2
32	38	1
7	76	1
30	105	1
12	31	1
139	140	1
198	227	1
102	137	1
221	227	1
232	235	2
55	151	1
36	69	1
139	164	1
241	242	1
242	243	1
69	73	1
88	88	1
77	79	1
105	110	1
164	190	1
120	131	1
77	87	1
105	107	1
43	153	1
154	155	1
49	57	1
180	215	1
28	29	1
205	215	1
