19	23	2
2	2	12
85	85	19
62	62	16
72	72	17
39	39	5
99	99	6
30	32	2
34	34	22
58	90	5
36	37	5
9	9	23
64	76	6
92	92	19
10	10	7
101	101	17
88	88	5
6	6	16
125	126	7
64	64	23
4	4	11
71	71	17
118	118	26
38	38	10
25	25	15
80	80	2
58	81	4
111	112	9
100	100	11
60	60	17
101	134	1
128	129	2
59	59	22
127	127	4
113	114	5
10	11	8
84	85	5
9	18	3
36	36	9
31	32	13
82	82	14
20	20	18
0	0	9
19	20	3
115	115	6
9	10	9
71	74	2
24	24	12
58	110	1
111	111	8
92	93	6
124	125	6
15	16	11
72	119	3
121	121	17
104	104	10
87	92	5
71	72	6
95	96	4
120	120	12
70	70	15
56	91	12
32	32	16
26	26	7
132	132	8
24	26	10
41	80	1
44	61	5
117	117	24
61	61	13
23	23	17
41	89	7
96	96	15
20	21	1
97	99	3
17	17	12
106	106	9
8	60	4
126	127	2
45	45	9
57	57	17
114	115	2
122	122	6
56	110	3
67	67	13
103	103	19
35	43	5
107	126	4
112	112	11
94	94	7
13	13	9
66	66	16
120	121	2
134	134	27
4	48	3
102	102	19
1	1	17
107	108	2
125	125	9
72	117	1
109	109	8
6	30	1
28	28	17
117	118	3
28	29	2
130	132	9
70	71	2
118	119	5
16	26	1
108	109	14
13	14	3
12	12	5
84	84	11
120	123	1
65	65	8
25	26	1
68	69	9
4	38	2
35	37	1
129	129	9
83	86	6
43	43	16
119	126	3
124	124	14
62	76	3
75	76	11
97	97	5
41	45	3
22	23	3
76	76	16
41	42	1
37	37	13
26	27	6
43	61	4
75	75	22
79	80	6
110	110	21
130	130	13
69	69	14
30	30	10
59	90	3
95	95	6
105	105	3
18	34	1
95	97	6
19	27	5
80	88	4
98	99	10
47	47	9
5	6	4
83	84	5
18	47	4
63	63	12
79	82	4
83	83	28
11	11	11
98	98	3
108	110	1
16	46	4
87	87	7
7	7	7
22	26	6
58	58	8
1	69	8
107	107	12
10	18	1
119	119	16
3	5	2
59	60	5
120	122	2
9	16	2
22	22	6
114	116	5
37	39	1
30	31	4
60	86	5
130	133	3
131	131	3
77	78	11
97	98	7
93	93	3
15	15	21
5	5	9
4	28	1
77	108	1
111	128	2
91	91	9
71	73	4
73	73	7
73	74	3
46	46	4
35	35	8
16	16	5
128	128	17
99	100	4
3	4	2
13	24	4
21	23	3
36	43	2
41	41	9
109	110	3
23	24	4
116	116	7
111	113	4
32	33	3
74	74	8
4	104	1
8	8	11
21	21	4
123	124	4
24	25	4
38	88	1
90	90	8
85	86	4
133	133	9
19	19	10
123	126	4
1	62	3
55	94	3
126	129	4
33	33	16
22	27	6
32	35	3
78	78	6
3	3	12
101	111	1
126	126	5
16	17	1
29	29	4
68	120	4
79	79	7
67	117	2
72	74	2
23	27	2
125	133	4
123	123	4
77	77	4
99	112	3
14	14	8
49	58	2
62	64	2
68	68	11
70	72	1
18	18	10
43	45	1
37	59	1
111	129	2
57	79	3
103	123	2
16	20	2
7	93	2
60	61	2
11	12	5
105	122	5
78	85	2
101	113	1
129	130	5
3	47	1
27	27	11
63	77	1
76	121	2
63	76	3
5	38	5
44	44	8
56	81	3
46	47	4
42	43	2
123	131	3
42	42	1
2	61	3
70	118	2
98	115	2
4	37	1
50	50	2
10	85	4
14	15	5
116	117	3
20	61	4
94	97	1
21	91	1
56	103	2
99	134	1
4	39	2
59	82	3
103	104	2
64	77	2
103	105	2
103	107	1
1	2	3
68	116	3
70	74	2
20	27	1
97	115	5
131	132	3
21	22	1
69	119	3
31	40	2
75	119	2
90	91	5
91	99	3
56	58	5
82	84	2
112	116	1
5	104	2
57	111	1
20	60	2
74	125	4
33	34	4
80	89	3
59	89	3
94	96	4
35	36	2
21	59	2
31	31	4
40	88	2
108	108	6
63	103	2
110	111	2
70	119	2
50	80	2
89	89	1
8	9	2
27	28	1
101	102	2
93	94	1
56	56	5
47	62	3
126	130	4
41	81	1
75	123	1
80	81	3
89	91	2
66	67	2
39	88	1
99	113	1
110	112	1
2	62	3
100	113	4
40	40	1
118	134	1
17	46	2
128	131	1
39	48	2
36	48	2
19	34	1
7	8	2
56	57	3
78	82	2
32	34	3
39	41	3
9	11	1
48	51	1
41	43	2
86	105	3
7	96	1
38	93	2
106	127	1
123	133	1
65	66	2
21	27	2
17	20	1
79	105	1
94	95	1
45	60	1
49	49	2
0	64	1
113	113	3
66	68	1
112	113	1
43	92	2
42	93	2
111	124	2
48	48	2
5	7	1
8	78	2
62	63	1
86	87	5
119	120	1
96	98	1
102	103	1
18	19	2
114	114	2
75	120	1
49	93	1
112	129	1
81	81	1
7	48	2
115	116	2
41	77	1
86	86	5
45	92	1
17	18	1
122	124	2
56	90	1
0	1	1
61	62	1
79	87	1
68	70	1
127	129	1
17	19	1
8	11	1
14	16	2
14	25	1
113	115	1
11	86	1
69	118	1
42	92	1
127	132	1
60	93	1
87	89	1
130	131	1
