18	18	3
89	91	1
124	124	12
62	131	2
99	99	10
8	8	7
67	68	5
82	82	8
103	103	15
73	73	4
45	45	4
54	55	4
10	11	2
101	103	3
47	47	13
113	114	3
95	95	12
41	41	9
115	115	6
56	56	16
125	125	8
88	89	7
68	71	2
127	127	4
132	133	2
11	11	9
7	7	4
3	3	8
31	31	6
70	70	6
106	106	4
68	78	3
9	9	11
33	33	1
83	84	2
81	81	1
96	96	10
87	92	4
93	93	17
117	118	3
86	87	8
81	97	3
58	62	2
62	62	12
9	22	2
50	50	7
85	85	9
109	109	12
22	39	1
25	25	3
68	76	2
2	2	2
1	65	2
129	129	5
13	15	4
9	19	7
116	116	9
0	0	6
51	51	11
107	107	10
42	42	7
120	120	6
32	32	3
58	59	2
57	57	10
114	114	4
21	21	5
51	52	1
6	6	5
122	122	2
15	15	5
65	77	3
13	13	2
82	84	2
14	15	9
0	7	5
121	121	8
16	118	2
44	44	2
27	27	7
110	110	22
54	54	11
24	24	3
109	110	1
69	70	1
65	65	8
94	94	10
25	26	3
73	74	4
116	118	2
16	76	3
78	78	2
16	17	1
93	95	5
6	7	4
123	123	5
71	72	2
5	5	6
23	24	3
61	61	1
74	75	6
108	109	5
30	30	1
117	128	8
14	14	5
91	91	2
112	112	7
76	76	6
87	89	1
16	78	3
70	81	2
19	19	2
27	29	5
128	128	2
12	12	5
101	102	2
34	129	2
18	79	4
72	74	3
83	83	2
18	19	4
105	105	6
26	26	4
92	92	7
60	60	6
33	34	4
102	102	1
117	117	8
98	100	3
48	48	2
94	95	2
126	130	3
113	113	8
96	100	4
27	28	1
106	107	5
8	9	4
48	49	1
39	39	1
41	98	2
64	70	2
16	16	5
8	122	2
89	89	4
132	132	6
128	129	2
28	114	3
53	53	3
88	105	2
105	106	3
77	77	5
114	115	1
111	111	5
25	112	4
133	133	1
4	5	1
126	127	2
59	81	1
4	4	2
21	108	1
91	107	2
63	64	2
85	86	2
3	4	1
49	49	4
122	123	2
29	30	2
91	93	1
17	77	1
65	66	1
126	129	4
101	101	4
114	117	1
102	120	1
114	126	4
89	103	1
50	51	3
90	107	2
93	94	4
118	118	6
49	56	1
81	91	1
20	107	1
24	25	1
10	10	1
101	104	1
51	53	2
72	75	2
23	23	1
68	69	1
90	90	3
23	25	2
59	59	2
60	61	3
63	63	2
12	41	1
57	70	3
7	8	1
98	98	3
41	96	1
108	108	1
104	104	1
125	129	2
66	66	2
125	133	2
64	64	1
87	87	3
76	78	1
119	120	5
131	131	2
89	93	2
31	32	1
52	52	1
124	125	1
20	106	1
55	55	1
26	31	1
13	19	1
15	16	1
128	130	1
1	1	1
20	23	1
126	126	2
16	18	1
17	17	1
130	130	1
89	90	1
57	58	1
60	68	2
34	128	1
131	132	1
27	114	1
80	80	1
