81	81	8
104	110	5
79	113	4
78	78	10
114	115	1
28	28	12
111	111	7
76	121	1
23	23	3
36	36	7
106	110	5
116	116	6
117	119	1
131	131	6
122	122	9
38	100	4
136	136	7
12	29	3
88	119	3
25	26	6
33	34	3
74	74	9
80	113	2
31	31	7
36	37	4
73	116	2
13	14	4
71	118	2
33	33	6
17	17	6
124	124	8
83	83	3
121	121	8
133	133	5
16	28	5
2	2	3
9	9	6
25	25	2
118	118	6
114	114	2
20	21	7
30	31	4
21	21	2
105	106	2
4	4	7
30	30	2
11	11	5
74	111	1
21	23	1
137	137	2
80	80	4
102	102	5
19	20	2
123	123	2
127	130	1
31	32	1
81	82	2
139	139	4
28	29	3
4	5	3
76	84	3
103	103	2
106	108	3
97	97	4
13	13	8
128	128	4
92	92	4
35	35	9
71	71	6
78	79	5
119	119	5
3	3	7
19	19	5
89	90	4
92	93	2
17	18	2
75	75	7
91	91	4
140	140	4
93	122	1
32	32	2
73	121	2
77	80	1
134	134	9
71	119	1
0	0	2
110	110	2
11	37	3
77	77	5
79	79	7
132	132	8
72	98	1
6	7	1
20	20	4
18	18	3
96	96	6
109	109	5
3	4	1
88	121	3
87	118	2
1	1	3
83	113	2
24	26	1
106	107	1
16	17	2
86	119	2
86	86	2
80	82	3
8	8	9
26	26	7
14	14	3
71	72	1
18	19	3
85	89	2
84	90	3
10	10	4
100	100	4
73	73	5
126	130	1
23	25	1
127	127	1
23	24	3
82	82	3
120	120	5
74	77	1
27	33	2
1	13	4
8	9	2
93	93	1
100	101	1
101	101	5
105	105	3
95	95	1
135	135	2
34	34	5
138	138	3
77	113	3
85	85	1
104	104	1
90	91	2
107	107	1
76	77	3
126	126	4
20	36	1
91	123	2
38	38	3
29	32	2
99	99	1
115	116	1
6	36	1
85	116	2
27	36	1
15	15	2
77	79	1
37	37	1
21	22	2
102	103	3
91	121	3
87	87	3
3	6	1
93	104	2
137	138	1
83	122	1
80	81	1
84	84	4
9	10	2
72	72	2
117	118	2
112	123	2
93	102	2
93	103	1
129	129	1
6	6	4
84	85	1
16	16	1
115	115	1
96	97	1
93	100	1
76	76	2
97	112	3
89	89	4
35	36	1
98	98	1
74	75	2
112	112	1
135	137	2
130	130	2
2	11	2
110	111	1
117	117	1
15	27	1
106	106	2
112	122	1
7	8	1
10	15	1
88	91	1
