32	36	4
7	7	2
111	127	2
84	84	2
0	36	3
31	43	3
48	78	4
118	120	2
111	111	5
86	86	2
52	52	2
122	125	3
127	127	5
49	67	3
27	28	9
82	102	3
114	114	2
1	1	3
70	70	6
106	106	3
131	131	3
24	26	5
50	50	8
107	107	9
23	30	4
1	45	3
81	125	2
132	133	3
8	9	1
53	54	2
71	71	6
35	36	5
129	134	1
94	94	2
26	31	2
26	26	1
36	36	3
81	81	1
21	22	1
61	61	3
2	2	3
0	0	6
31	35	1
105	105	1
72	72	2
60	82	2
27	27	5
47	53	1
46	68	1
23	28	6
83	83	2
82	82	3
128	133	3
24	25	1
5	5	4
44	84	3
66	69	2
103	103	4
97	101	4
109	109	4
103	104	2
25	80	4
44	87	1
48	48	2
125	127	2
30	30	5
18	72	1
44	44	1
65	112	1
6	22	1
10	10	3
59	59	3
125	128	1
20	20	1
37	38	1
100	100	2
11	11	3
32	32	1
57	98	3
79	80	6
83	100	1
6	36	5
24	24	2
60	60	3
86	87	2
42	42	3
3	3	5
56	56	2
45	45	2
15	15	3
6	7	1
22	22	4
20	21	2
24	31	2
130	132	3
4	42	4
9	10	2
4	50	2
58	59	4
25	27	1
19	19	5
7	36	1
11	12	1
98	99	1
130	130	1
114	127	2
5	52	3
18	18	1
63	68	4
69	69	1
66	72	2
50	51	4
34	34	5
14	14	2
45	95	1
124	124	4
58	110	2
132	132	2
112	112	1
75	75	2
1	83	4
101	102	1
54	55	2
58	64	2
114	121	1
108	108	1
92	92	1
77	77	1
3	4	1
117	131	2
9	24	1
4	8	1
13	14	2
51	55	1
17	92	1
12	12	2
89	90	1
115	121	3
96	97	3
58	58	1
61	71	2
36	37	1
57	57	2
8	15	2
129	129	3
2	66	1
20	114	4
113	127	2
67	72	1
120	120	1
63	63	2
10	17	2
78	78	2
19	31	1
69	70	1
95	95	1
71	72	2
81	103	1
2	83	2
125	126	2
28	29	1
7	34	2
104	108	1
12	13	1
115	115	1
33	38	1
22	79	2
20	26	1
85	85	1
121	121	2
79	79	1
54	54	1
83	84	2
20	22	3
13	13	1
110	110	1
128	128	2
5	62	1
101	101	1
97	100	2
130	131	1
59	127	2
80	113	1
61	116	1
66	82	1
85	100	1
112	113	1
21	21	1
2	26	1
65	68	1
112	117	1
72	127	1
74	134	1
115	116	1
78	112	1
118	121	1
72	102	1
