14	14	12
36	36	5
35	44	5
7	7	8
88	100	2
19	19	8
126	126	12
86	86	20
82	82	11
40	41	5
56	58	3
105	109	2
33	33	15
117	117	14
10	10	22
18	18	10
100	102	5
4	15	2
85	85	8
72	72	11
48	48	11
63	63	11
111	111	9
123	124	5
118	126	1
125	127	1
34	34	5
120	120	16
27	28	4
124	124	12
70	70	9
73	73	14
44	44	17
19	30	4
37	37	6
118	118	10
116	116	17
50	112	2
126	127	3
76	76	10
0	0	8
23	24	2
104	105	3
82	83	9
43	43	9
38	38	6
17	17	9
110	110	5
90	96	3
99	99	12
27	29	4
1	1	13
88	88	9
84	129	2
2	17	3
101	101	8
68	68	10
46	46	26
65	65	7
32	34	3
129	129	11
26	26	10
11	12	2
125	125	13
56	57	7
116	117	7
80	80	9
101	102	5
80	81	5
115	116	3
23	23	4
45	46	1
41	41	5
112	113	3
73	74	1
84	85	5
46	47	3
77	77	10
14	49	4
97	98	8
71	72	5
46	119	1
78	84	4
13	13	10
115	115	6
48	49	4
119	119	16
71	71	8
109	109	4
11	11	9
55	55	10
50	55	2
5	7	3
115	123	7
128	128	7
26	27	6
131	131	8
74	74	16
56	56	8
92	93	2
102	105	3
134	134	10
83	85	3
79	106	3
113	113	8
33	34	1
124	125	8
87	87	3
79	86	1
75	75	11
127	127	1
80	82	3
92	100	2
35	35	13
64	64	8
74	117	4
57	58	4
83	84	2
72	74	3
37	43	2
124	127	11
40	40	9
12	13	1
78	107	1
133	134	6
47	47	15
122	123	4
117	123	5
78	80	3
78	78	3
15	34	6
85	124	1
103	103	6
66	66	16
29	29	10
8	8	4
20	47	2
35	42	3
94	94	9
62	66	4
108	108	15
105	133	2
126	128	2
5	19	3
61	61	10
13	14	6
86	117	1
93	94	1
15	32	2
104	113	2
83	83	7
45	45	4
21	29	2
101	134	1
125	126	7
95	95	7
132	133	3
63	75	7
100	101	2
62	62	9
58	106	2
102	102	6
132	134	5
72	73	3
48	91	1
80	87	4
35	45	1
12	12	5
123	123	10
6	6	10
57	85	6
63	114	1
17	30	3
20	23	1
93	93	6
27	38	4
69	69	5
97	97	5
73	108	2
7	28	3
109	119	3
45	47	3
5	13	1
80	107	6
58	58	5
43	49	1
112	121	5
89	99	1
126	129	4
13	33	3
34	41	2
84	84	8
15	16	5
70	74	1
2	2	12
117	118	1
59	98	3
5	31	5
79	79	16
130	130	5
57	57	9
74	75	4
9	10	4
91	93	1
34	133	2
112	112	9
131	132	8
104	104	3
17	18	4
105	112	2
92	92	5
30	30	11
27	61	2
122	126	5
20	21	10
83	88	1
35	55	2
36	38	3
10	44	3
62	63	1
30	57	2
79	80	7
117	120	5
4	8	1
31	31	10
6	47	1
15	15	4
79	82	2
7	11	1
107	107	5
109	110	5
35	81	1
60	63	2
109	113	2
4	29	3
106	106	6
110	113	1
98	98	2
27	27	3
105	105	2
11	13	11
96	128	3
34	72	2
82	84	4
59	59	10
15	24	4
64	65	5
115	131	2
32	32	4
68	120	1
9	9	8
37	39	1
19	33	1
110	114	2
89	89	2
62	116	2
99	103	2
58	99	2
109	118	1
8	15	3
91	91	6
5	5	3
42	42	5
77	123	1
57	105	3
89	91	2
36	64	2
108	117	2
81	81	8
60	60	6
133	133	7
110	133	1
10	11	4
100	100	8
122	122	3
24	24	9
14	15	1
55	132	2
35	36	2
61	115	1
33	40	1
66	67	4
55	84	1
2	18	1
40	60	2
2	3	3
6	7	3
3	3	8
39	43	4
121	121	7
114	114	5
2	15	1
50	50	2
28	28	2
35	43	1
87	88	2
126	134	3
85	93	1
73	75	2
1	2	2
90	90	3
63	91	1
6	16	2
132	132	6
103	104	1
69	70	3
104	106	1
124	128	1
44	45	1
59	63	2
95	96	2
95	100	6
58	65	4
31	32	2
91	112	1
86	93	2
101	124	2
46	63	1
67	68	1
82	92	3
54	55	2
18	19	1
109	112	2
82	85	1
21	131	4
80	83	1
31	34	1
106	111	1
43	92	1
81	82	3
78	125	1
67	67	6
59	79	1
22	22	2
113	130	1
107	108	6
128	129	1
17	20	1
96	100	2
38	39	2
18	20	3
106	107	2
76	105	1
23	34	1
93	100	1
80	109	2
34	57	1
35	39	2
20	20	2
103	106	1
8	12	1
25	25	1
62	118	2
41	42	3
75	94	1
61	64	1
16	16	3
95	130	1
20	27	1
61	62	1
101	103	1
109	111	2
94	102	1
43	45	2
95	97	2
41	71	1
129	130	1
79	83	1
94	121	1
94	100	1
79	85	1
11	14	1
46	95	1
111	120	1
91	131	2
130	132	1
130	133	1
104	133	2
9	61	2
68	75	1
4	13	1
94	95	1
47	61	1
45	62	2
33	44	1
39	50	2
94	122	1
85	108	2
104	108	3
22	23	1
29	42	1
26	31	1
39	39	2
59	95	1
96	96	3
90	91	1
60	95	1
36	48	1
99	100	4
4	4	1
125	131	1
0	108	1
42	43	1
94	99	2
78	79	1
34	48	1
123	128	2
42	45	1
42	60	1
39	40	1
91	92	1
55	81	2
89	92	1
126	131	1
13	15	1
34	46	1
9	18	1
4	5	1
0	1	1
48	50	1
27	34	1
8	24	1
59	61	1
75	76	1
115	122	1
3	69	1
58	100	1
16	57	1
109	114	1
81	83	1
47	59	1
