17	75	8
13	64	2
168	168	39
140	140	48
169	171	3
147	147	29
169	170	11
139	139	54
71	71	56
83	84	3
126	126	28
109	110	12
12	53	1
165	165	34
106	106	40
105	109	5
112	112	40
24	24	36
55	109	1
17	43	2
168	169	11
64	64	35
179	180	10
102	103	12
40	40	23
60	60	45
124	124	33
73	73	39
74	79	2
82	113	3
132	132	33
149	150	9
97	97	28
7	9	8
126	162	4
68	68	23
36	37	20
88	88	39
104	106	10
52	52	34
63	63	19
73	74	4
129	130	20
31	31	40
144	144	21
2	2	30
102	105	1
133	133	29
159	159	43
171	171	35
70	70	8
88	149	5
32	32	24
7	7	19
104	110	4
6	26	6
123	123	25
92	114	3
72	72	27
2	98	3
17	18	8
77	77	24
61	61	38
6	6	22
102	106	3
117	117	46
13	14	5
134	134	37
103	103	36
10	10	39
76	79	3
148	148	44
141	141	28
150	150	34
142	142	25
8	8	9
101	103	3
43	43	47
76	155	1
57	61	2
128	128	17
62	63	9
126	127	8
76	76	33
6	41	10
170	170	54
100	101	11
62	62	24
28	28	52
65	65	27
174	175	13
39	39	39
74	75	13
105	105	27
142	143	10
178	178	32
42	44	3
155	156	13
87	108	8
154	154	26
25	25	25
78	79	16
29	29	55
35	36	6
17	67	4
157	157	23
108	109	6
107	107	32
143	144	11
119	119	36
131	131	37
161	161	29
151	151	23
14	16	5
132	133	9
11	13	10
141	142	8
30	31	16
115	117	4
72	73	9
17	45	3
24	39	4
9	9	37
88	164	5
102	102	47
84	84	9
49	163	4
66	67	12
152	152	11
93	93	43
143	143	19
41	41	22
96	119	4
14	14	30
23	23	22
56	56	35
125	125	28
122	122	29
80	135	6
127	131	6
120	120	25
67	67	31
99	102	4
174	176	4
31	38	7
39	40	3
159	160	11
147	154	7
55	55	29
16	16	25
130	134	1
60	61	24
18	18	23
110	111	11
91	91	24
176	176	45
169	169	26
105	171	1
94	94	33
80	94	1
0	0	14
51	51	28
86	87	17
54	54	49
81	81	27
16	17	16
138	138	42
177	179	3
98	98	29
44	44	16
93	94	27
106	107	3
114	114	28
156	157	7
150	151	6
3	3	24
90	108	2
5	5	25
21	21	13
155	155	21
95	95	27
94	150	1
175	176	11
2	37	2
13	13	16
146	154	3
90	90	24
92	94	9
170	171	6
15	16	18
78	78	17
156	169	3
96	97	7
84	85	3
145	145	29
12	13	18
80	105	5
131	162	2
116	116	32
105	106	9
38	38	17
45	45	20
163	163	25
13	16	3
68	73	1
180	180	17
85	86	14
1	1	15
77	78	11
76	157	4
158	159	10
178	179	13
172	174	3
79	123	4
59	142	8
24	25	18
3	37	1
87	87	28
94	95	18
127	127	33
165	166	22
154	171	6
162	162	30
4	5	10
167	167	31
14	17	4
40	41	9
160	160	12
122	144	2
94	96	2
59	59	16
36	36	20
108	108	31
118	120	3
142	144	1
115	116	10
2	3	9
149	149	30
50	50	28
82	83	2
123	124	29
146	146	40
111	112	2
179	179	24
66	66	30
20	20	9
158	158	40
15	15	43
12	18	5
19	19	18
17	39	2
14	87	3
109	109	29
104	104	50
175	175	15
172	173	5
118	121	5
92	102	4
89	89	15
164	165	14
1	17	3
97	98	15
61	64	3
131	132	10
100	103	2
22	22	26
96	96	32
75	154	10
111	114	12
128	131	3
164	164	33
105	107	4
100	100	9
25	26	6
174	174	35
177	177	9
81	84	3
52	114	4
49	50	7
173	173	40
136	136	20
33	33	35
83	83	21
60	123	3
103	112	3
7	24	4
57	64	2
27	37	1
131	163	5
75	76	4
32	33	6
148	149	11
42	42	31
10	73	8
91	93	3
58	62	3
49	129	5
30	30	31
3	4	27
153	160	4
21	22	22
112	113	7
101	101	18
52	104	2
61	86	4
14	27	2
37	37	18
121	174	3
80	80	23
53	54	8
121	121	26
166	166	22
114	115	8
49	100	1
157	158	15
65	66	8
104	112	3
75	75	22
111	111	43
7	27	4
65	91	2
103	104	10
26	26	17
153	153	24
90	91	9
26	27	7
115	115	31
118	118	38
39	44	10
97	159	5
142	151	2
137	172	3
35	35	37
92	92	32
62	99	4
137	137	26
29	30	6
10	29	3
79	172	4
4	4	14
120	121	3
88	91	5
110	110	36
113	113	13
82	82	13
83	160	2
50	128	1
99	99	34
139	171	2
95	102	3
8	9	6
19	23	2
59	105	1
135	136	6
138	139	9
98	101	1
174	177	2
117	118	17
90	127	4
22	24	10
121	135	2
163	164	6
91	119	8
6	8	7
115	160	3
62	72	2
17	17	17
111	127	4
50	170	7
130	131	12
44	45	7
34	38	3
98	99	10
86	86	13
177	178	12
87	166	1
103	152	4
126	135	4
24	46	3
46	46	6
162	170	2
18	130	3
12	12	9
59	143	2
34	34	21
19	21	7
1	97	3
24	45	4
53	53	29
22	39	1
104	114	2
105	166	5
89	90	3
107	109	3
156	156	14
5	9	1
95	96	6
19	50	2
91	92	20
63	110	1
40	75	3
15	81	1
137	138	6
110	114	3
50	52	3
89	91	6
49	49	14
121	122	18
100	163	5
130	130	25
71	73	4
97	101	3
3	5	1
96	108	5
14	15	5
123	132	1
157	159	3
43	53	2
70	71	7
55	56	8
27	28	11
56	80	6
64	89	3
20	39	8
6	109	1
0	14	3
17	44	1
139	140	6
172	172	12
62	111	4
42	43	8
146	147	9
59	85	2
74	74	14
56	111	1
8	26	2
119	120	18
161	162	5
43	44	6
23	24	8
148	153	6
11	11	19
135	135	18
171	172	9
176	179	9
118	119	5
4	74	2
58	58	13
92	93	9
79	79	19
129	129	16
56	129	1
78	106	1
57	57	5
93	149	3
35	38	3
145	172	5
1	16	1
82	84	1
154	162	3
92	113	2
42	59	3
127	128	7
66	73	3
19	25	8
32	71	3
71	72	5
11	67	6
58	59	7
133	134	3
9	43	3
1	30	1
32	36	2
51	52	13
85	149	3
88	89	17
101	102	11
18	19	6
38	74	1
122	123	3
115	118	7
4	6	2
12	44	3
6	7	5
45	46	3
104	105	11
108	146	1
143	150	2
119	125	6
112	116	3
106	167	6
76	165	4
159	168	4
52	106	1
29	33	2
126	136	4
120	173	4
8	18	3
56	94	2
85	85	11
102	104	3
64	82	4
55	60	2
91	96	2
81	107	4
40	43	1
12	129	2
58	111	3
135	137	9
123	169	1
84	86	2
167	168	4
38	39	8
64	99	2
28	29	11
94	148	5
134	178	3
80	107	3
97	146	2
89	149	2
102	114	2
66	68	1
51	54	5
5	6	6
82	158	4
11	12	7
87	95	1
148	163	2
61	62	5
19	20	10
104	124	3
23	28	5
20	21	9
23	45	7
7	17	3
105	108	1
13	17	3
154	155	8
60	114	5
156	174	3
59	62	2
128	130	3
58	110	1
68	159	2
60	105	2
145	146	11
111	119	2
125	126	4
6	10	2
53	106	2
154	157	1
14	18	10
173	174	10
82	102	1
145	149	1
10	13	1
89	126	3
87	88	1
139	180	2
26	29	1
146	151	2
56	58	1
106	124	2
52	53	15
31	32	9
148	151	3
140	141	2
151	162	1
27	27	21
57	129	1
2	4	1
105	170	1
42	103	4
3	100	3
84	128	5
154	156	2
162	166	1
90	109	1
79	106	4
147	148	4
107	168	1
103	105	2
76	77	9
166	167	7
5	41	1
106	169	2
122	125	4
54	55	1
10	12	5
33	34	2
18	24	3
76	87	1
52	54	3
68	107	3
38	42	1
33	36	2
67	116	1
40	44	4
11	54	4
15	83	3
135	151	1
98	146	1
75	171	2
123	125	5
147	153	3
1	159	5
50	169	2
5	39	3
54	64	1
55	85	4
171	178	1
55	63	3
10	23	1
22	23	8
145	150	1
50	51	9
7	41	3
56	63	4
93	162	2
79	80	7
14	82	2
79	169	3
95	107	2
137	176	1
15	43	3
23	25	3
73	86	2
93	129	1
51	53	5
157	177	1
55	108	1
142	174	5
49	127	1
15	164	1
75	140	6
14	19	3
78	138	2
29	44	1
151	168	3
59	60	4
6	9	5
152	153	2
95	101	2
28	44	3
67	148	3
13	19	2
88	90	3
108	145	1
87	125	2
6	43	2
113	114	8
87	164	1
60	65	1
81	118	2
125	136	1
124	125	4
61	144	1
7	8	7
81	82	3
0	1	5
71	86	1
62	67	2
66	142	1
37	38	3
26	28	7
133	142	2
1	15	3
119	121	2
56	57	2
105	149	1
110	169	1
96	99	3
106	108	1
11	109	5
99	106	1
133	151	1
83	86	2
93	165	3
59	61	5
100	164	2
150	155	1
5	7	4
66	71	1
110	124	3
9	10	3
14	159	1
77	79	2
10	11	3
34	36	3
9	74	2
6	40	1
15	17	2
50	114	1
154	160	2
85	96	1
44	53	4
7	22	1
107	108	2
41	42	3
92	111	1
49	164	1
56	71	2
56	108	1
41	45	4
18	22	3
54	104	2
94	161	2
64	90	3
58	60	2
21	38	1
119	136	2
6	18	3
75	167	1
63	64	2
63	165	2
86	95	2
30	32	3
59	144	2
64	81	1
141	174	2
169	172	1
16	101	1
97	99	2
144	145	3
8	19	2
138	176	1
25	27	1
82	85	3
76	156	1
10	108	2
162	167	3
63	159	2
11	23	3
128	129	3
61	111	2
8	11	1
4	97	1
10	43	3
81	85	1
125	135	1
146	152	3
169	177	2
43	104	1
1	29	2
81	135	3
42	63	4
24	26	3
162	163	3
161	169	2
26	54	2
29	36	1
126	134	1
4	51	1
112	114	1
6	90	1
28	37	2
123	127	1
24	28	3
19	46	1
108	110	1
77	169	1
2	29	1
16	18	4
45	162	2
81	158	1
84	99	2
95	120	1
73	81	2
82	165	2
88	165	1
114	123	2
86	116	2
149	151	2
53	86	2
106	166	1
51	56	2
135	171	1
14	52	2
56	96	1
90	111	1
33	73	3
11	22	2
100	115	1
52	71	2
65	68	3
113	115	4
136	144	1
68	115	3
116	127	3
157	169	2
96	103	3
77	157	3
77	158	1
80	141	1
152	169	1
14	26	2
57	62	1
53	87	1
135	172	1
104	170	3
164	166	2
55	142	2
142	146	2
135	173	1
32	35	1
15	165	2
92	95	2
13	18	1
65	169	2
83	85	1
64	65	3
149	159	1
145	153	1
151	153	3
55	72	3
164	167	3
39	42	1
56	59	1
50	164	2
57	142	5
175	179	4
125	132	1
104	107	1
153	154	1
62	106	1
91	102	3
28	33	1
67	117	2
11	114	1
96	109	1
1	32	1
7	44	2
1	158	2
28	30	1
44	55	1
60	112	2
89	169	1
18	21	1
61	105	2
150	165	1
13	23	2
61	63	1
76	83	1
148	150	3
87	89	1
99	100	3
172	176	1
10	14	1
102	121	1
134	135	3
124	134	1
91	109	2
8	38	1
3	10	2
14	29	3
111	118	1
35	39	1
26	34	2
16	166	1
9	17	1
7	10	1
117	132	1
80	81	2
111	116	1
163	165	2
111	169	2
103	107	3
37	41	1
21	23	1
148	162	2
134	136	1
59	110	1
54	60	1
101	121	3
14	20	1
143	173	1
126	132	1
50	113	1
53	67	1
87	122	2
38	41	1
1	6	1
60	110	2
88	96	1
135	145	2
84	159	1
16	54	2
59	64	1
10	60	1
14	64	1
50	53	1
119	162	1
132	134	1
132	167	1
13	25	1
98	110	1
80	137	1
59	111	1
120	170	1
5	16	1
77	156	1
13	51	1
78	122	1
74	84	1
93	110	1
114	118	1
58	63	1
103	114	1
79	107	1
14	24	1
1	2	1
41	76	1
61	130	1
28	32	1
34	37	1
22	129	1
6	44	1
3	98	1
108	170	1
79	171	1
132	169	1
114	128	1
157	160	1
55	106	1
11	68	1
