84	84	12
8	19	2
163	163	8
31	32	5
155	155	8
77	78	2
64	71	3
15	16	1
82	82	3
108	119	1
112	137	3
59	59	3
43	43	8
164	164	8
91	94	1
82	84	3
52	57	2
43	44	2
142	143	2
17	17	17
126	126	6
37	37	12
83	84	3
55	55	7
120	120	5
171	175	3
159	159	7
171	171	4
102	102	6
53	53	6
52	54	2
124	142	3
131	132	5
135	135	4
29	30	3
107	107	10
74	74	14
140	141	10
32	32	9
78	78	4
129	129	9
13	15	1
98	158	6
89	89	4
79	79	12
7	17	3
36	36	4
121	121	18
0	14	3
161	161	1
66	66	6
128	165	1
58	58	9
131	131	7
146	146	12
71	71	6
133	169	2
11	12	5
90	90	16
118	118	4
40	42	1
148	148	16
124	125	1
114	114	14
81	81	3
30	31	3
137	138	1
75	75	7
153	154	2
142	142	11
133	133	9
149	149	12
128	128	2
63	63	4
52	52	10
68	82	1
95	118	3
12	14	4
139	141	5
68	68	10
35	35	9
42	42	6
31	31	1
52	53	2
176	176	12
8	20	4
57	57	6
85	91	2
3	3	8
172	172	5
138	138	10
129	130	5
109	109	2
101	101	2
175	176	3
157	158	6
174	174	8
24	36	2
72	73	6
37	42	5
165	165	6
134	136	4
26	80	3
141	142	2
107	119	1
60	60	6
115	121	2
103	138	2
30	30	7
111	111	8
10	10	6
76	80	3
87	87	5
113	120	2
148	162	3
106	106	2
116	118	3
152	152	9
147	147	4
125	125	6
158	158	3
137	137	6
134	134	5
168	168	10
112	138	1
107	108	1
130	131	2
144	144	3
50	62	2
87	91	4
120	121	8
178	178	4
8	8	2
56	57	2
56	56	1
135	160	1
165	174	4
123	124	1
88	89	8
119	119	7
61	74	2
112	112	10
14	15	1
23	23	8
96	96	3
96	118	2
98	107	1
158	159	2
38	38	4
65	65	2
139	140	2
53	57	8
121	130	2
132	132	7
26	28	9
54	70	2
140	140	2
62	71	4
5	7	2
177	177	7
70	70	3
150	151	3
132	133	4
7	7	2
52	61	2
115	115	11
127	127	7
125	145	2
6	6	3
49	50	5
98	100	6
76	76	3
43	75	2
82	87	3
169	169	9
136	147	4
5	5	5
25	38	1
112	114	1
143	146	2
111	161	3
16	64	3
13	13	6
173	173	6
6	41	3
95	96	3
99	99	11
67	67	11
109	119	3
130	133	1
179	180	2
54	55	8
134	135	4
154	155	1
14	16	2
91	91	5
96	101	1
138	141	1
122	122	3
0	0	6
130	161	1
119	120	1
175	175	7
80	80	10
11	11	6
94	94	6
135	155	2
86	86	2
140	146	5
15	63	1
167	169	2
179	179	4
145	145	8
157	157	1
76	79	1
155	156	1
1	4	2
89	90	1
133	134	2
139	139	2
162	163	3
110	113	2
151	152	4
24	24	8
56	126	2
95	99	1
127	128	4
168	174	3
167	167	3
151	151	2
115	116	1
21	21	2
98	99	2
51	123	1
126	132	2
163	164	1
77	77	6
41	41	5
177	178	1
170	170	6
12	13	4
113	115	1
135	156	5
167	168	1
97	97	1
106	138	1
100	100	2
118	119	5
114	116	2
122	131	1
95	95	6
122	123	2
5	6	2
54	54	2
173	174	1
122	130	1
7	10	2
94	95	3
150	150	9
145	146	2
160	160	6
40	40	2
44	44	5
9	9	2
141	141	7
51	61	1
83	86	4
124	139	2
61	62	1
108	109	5
84	88	1
50	50	3
17	21	2
97	158	1
2	2	3
68	74	2
59	115	6
90	92	3
153	153	7
25	25	2
123	123	3
134	177	2
106	139	2
85	85	1
37	40	2
130	130	3
61	61	8
63	73	3
1	1	8
136	136	2
72	72	4
137	156	4
55	56	1
45	45	3
121	122	1
134	137	2
166	166	3
27	34	1
67	68	5
38	40	1
143	143	3
75	76	2
116	116	3
122	143	2
87	88	3
98	159	2
99	100	1
122	125	6
154	154	4
180	180	1
135	149	1
171	176	1
78	79	3
93	93	4
61	116	1
22	76	2
148	149	1
143	144	2
108	112	3
110	159	1
44	75	1
16	16	5
122	132	2
113	113	2
81	83	3
49	63	1
76	77	1
64	93	1
103	103	2
17	65	2
27	81	3
156	156	2
17	63	2
114	115	1
29	29	1
46	46	1
171	174	1
112	122	1
27	79	1
63	71	1
96	107	3
30	34	2
137	162	1
176	179	1
54	61	3
60	61	2
33	76	2
167	170	1
64	64	4
163	165	1
2	15	2
66	82	1
66	93	2
105	105	2
122	137	1
51	51	1
133	171	1
123	139	1
151	153	1
50	71	2
15	15	2
177	179	1
21	67	1
8	40	1
31	34	1
54	56	1
169	171	2
36	37	1
110	110	1
24	31	1
81	82	1
11	41	1
74	75	1
24	25	2
172	173	2
73	73	3
117	117	1
52	74	1
107	139	1
114	124	1
112	121	1
67	92	1
68	72	1
97	100	2
169	170	1
18	18	1
19	19	1
5	11	1
106	140	1
44	45	1
90	91	1
