239	239	12
87	87	19
220	220	17
17	18	4
226	226	12
174	174	11
70	70	15
96	98	7
204	204	24
154	213	4
215	216	2
229	229	11
99	100	5
91	91	14
180	180	12
21	21	25
165	166	9
227	227	6
98	99	2
24	24	14
151	151	14
111	111	12
82	82	12
60	62	4
102	102	15
37	87	2
59	60	9
1	2	4
85	85	25
145	147	3
219	221	3
23	23	24
93	93	21
75	76	6
27	29	5
178	178	19
55	172	2
215	215	21
191	191	17
169	229	4
24	27	2
40	40	10
27	27	11
179	180	6
91	92	2
61	62	6
188	188	14
81	81	10
173	173	7
17	17	25
82	83	13
221	221	12
95	95	5
227	228	2
71	72	7
106	117	2
172	172	7
236	237	2
66	66	9
203	233	1
105	105	7
40	41	9
49	49	11
45	45	9
192	192	21
240	240	7
72	72	5
101	101	2
154	155	5
165	165	21
235	235	16
216	216	20
242	243	2
81	83	2
233	233	2
158	159	1
56	56	19
170	170	20
197	199	3
63	78	4
105	106	4
8	9	9
103	103	5
153	153	11
216	221	2
163	164	6
201	214	1
41	53	2
240	243	4
33	34	4
85	87	2
14	31	4
245	246	6
20	22	2
223	226	2
35	39	2
92	92	15
50	50	5
183	183	27
180	182	4
187	187	16
44	44	14
58	94	3
203	204	7
208	208	9
168	171	1
15	15	7
188	200	1
161	161	15
238	238	11
98	98	17
167	167	10
2	2	9
193	194	6
152	152	10
210	210	9
224	224	7
20	20	20
234	234	9
179	179	7
59	59	9
181	182	6
40	54	3
15	46	3
7	7	6
168	178	2
74	74	20
58	61	1
237	239	5
14	14	13
224	237	1
64	65	6
83	84	5
99	99	12
201	201	19
120	120	3
162	192	6
48	76	4
232	233	7
30	30	20
168	174	2
51	52	4
32	32	35
107	108	8
76	76	14
117	117	11
14	15	7
156	156	22
55	58	1
205	235	1
202	207	3
195	195	19
155	201	2
209	209	14
46	46	28
86	91	4
83	83	1
77	77	18
213	214	15
169	171	1
6	6	13
212	216	2
104	104	6
171	171	5
19	19	9
175	177	2
164	164	13
192	247	3
1	1	13
208	209	7
108	108	15
243	243	16
94	95	4
232	232	20
44	45	7
31	31	16
214	214	15
29	91	3
216	217	5
230	233	3
51	51	14
86	86	10
73	75	10
119	119	11
185	185	12
221	222	5
109	109	23
110	111	6
97	97	3
169	169	12
57	102	2
22	22	18
8	8	9
71	71	8
199	199	13
8	26	2
100	100	11
88	90	1
110	157	1
223	223	6
237	237	21
68	111	3
76	77	3
158	158	6
172	176	2
55	59	2
222	222	4
207	207	16
228	228	13
157	239	3
176	177	7
87	88	4
38	39	2
6	33	4
16	16	16
145	232	2
6	77	4
169	177	2
242	246	1
108	114	4
68	70	6
94	94	9
195	198	2
36	38	2
33	33	13
247	247	17
233	234	3
231	231	23
4	4	12
172	173	2
147	147	3
166	177	4
60	60	12
171	172	15
162	241	4
158	163	3
177	177	9
66	90	3
25	26	11
217	217	2
55	55	14
65	65	13
4	7	4
206	206	8
168	168	11
162	162	4
49	50	5
202	202	10
3	3	7
9	9	21
246	247	3
183	191	3
201	202	3
80	80	12
35	35	13
196	196	11
84	84	10
5	5	10
218	219	6
114	114	8
197	197	13
205	208	1
24	26	2
182	182	11
176	176	6
16	17	5
36	36	11
42	42	15
244	244	9
10	10	16
222	232	4
36	39	1
80	83	2
197	198	5
150	151	10
96	97	9
169	230	1
63	63	7
12	45	6
154	154	6
43	43	20
160	160	11
212	213	6
67	67	6
145	145	3
29	29	14
246	246	7
73	73	8
172	211	3
116	117	5
167	168	1
95	97	7
88	117	4
241	242	2
9	11	1
8	63	1
189	189	8
70	79	5
68	68	20
242	242	6
24	25	3
163	165	3
58	58	7
47	48	5
38	40	3
175	175	9
78	78	4
39	39	10
189	190	3
210	211	8
96	102	2
12	13	3
88	88	11
23	24	3
169	179	2
144	144	5
118	118	8
145	181	3
56	95	2
223	244	3
159	159	3
166	166	8
4	5	6
213	213	9
188	207	2
28	28	3
30	47	2
176	178	1
146	181	3
219	219	8
35	52	2
67	90	7
73	74	5
150	150	5
62	62	10
173	183	3
144	145	2
80	81	7
37	37	13
186	186	9
41	41	5
89	90	3
236	236	10
96	121	3
198	201	1
12	12	5
95	98	7
106	106	6
100	101	10
34	35	7
161	225	2
43	45	3
198	200	3
29	30	13
157	236	1
18	21	1
90	90	8
91	99	1
202	222	1
229	247	1
78	79	4
158	161	3
106	114	3
10	15	2
229	240	5
187	188	5
86	87	8
61	61	8
47	47	5
11	12	5
19	21	4
208	228	1
208	221	4
199	200	10
241	247	3
79	79	11
30	40	5
182	183	1
212	215	3
155	156	2
96	96	6
223	249	1
156	157	7
225	225	10
214	215	6
14	17	1
68	69	3
36	62	1
48	49	4
72	85	1
162	166	3
210	213	1
85	113	7
101	102	4
48	48	15
30	89	2
113	113	3
35	50	1
6	63	8
38	41	4
194	194	7
181	181	4
230	247	2
192	239	2
73	97	2
93	109	4
31	32	8
110	113	3
169	181	3
167	241	2
161	170	1
146	147	1
42	43	6
18	18	5
34	34	10
64	64	12
206	208	3
195	197	5
211	211	7
36	37	8
205	205	12
118	119	4
52	53	7
200	200	9
225	236	2
57	58	12
105	108	2
93	103	4
173	174	5
67	68	1
167	224	1
160	161	2
157	157	4
117	118	4
226	227	4
4	33	3
107	111	1
171	182	2
113	114	9
30	64	1
53	58	3
23	31	1
149	149	7
31	89	1
54	54	14
90	91	2
230	230	4
167	242	1
162	180	2
111	112	6
18	19	6
73	79	2
167	179	4
186	187	4
218	218	5
107	115	1
17	52	3
115	115	4
91	93	3
89	89	13
248	248	2
7	12	4
112	112	5
183	211	3
38	38	7
86	115	3
190	196	4
65	66	7
189	199	4
75	102	1
76	103	2
182	185	3
39	40	1
108	110	2
57	57	6
47	57	2
212	212	6
193	193	6
62	63	1
152	225	3
229	233	1
158	160	1
196	198	5
116	116	8
213	218	2
75	75	6
155	155	13
58	60	3
198	199	3
89	95	2
84	85	3
63	93	1
35	40	1
152	153	1
240	242	3
172	204	2
223	233	3
14	34	1
114	115	7
157	158	4
21	22	1
216	220	3
207	208	7
69	87	1
181	185	1
35	53	3
69	69	7
151	225	2
74	75	6
236	238	3
109	157	2
3	4	4
69	81	5
107	107	4
217	220	4
77	88	4
38	55	1
180	181	4
189	200	2
4	12	1
98	100	5
181	208	1
184	184	4
93	94	2
182	204	1
71	79	2
156	222	5
199	201	1
104	108	3
7	8	1
35	68	1
80	102	1
224	225	3
172	177	3
230	231	7
66	67	2
40	65	3
18	50	1
39	54	4
201	210	3
9	10	4
25	25	3
63	81	1
188	189	6
194	195	9
175	176	3
36	55	6
93	101	3
203	203	10
54	55	4
170	184	3
7	9	2
201	212	2
203	205	2
222	223	1
184	209	2
93	114	1
178	179	3
190	199	4
26	26	2
32	34	1
192	225	1
245	245	6
200	201	3
3	6	3
2	3	6
64	91	3
202	203	4
195	196	4
158	241	2
17	49	1
168	169	2
237	240	1
31	47	4
234	235	4
173	176	4
37	48	1
206	207	3
155	200	1
97	99	2
41	43	2
225	228	1
46	47	1
72	82	2
229	230	2
41	48	6
208	219	1
71	116	1
112	114	3
87	89	2
26	218	1
47	49	4
55	56	3
159	165	2
103	104	2
168	182	2
84	95	1
191	193	2
50	51	2
153	160	1
59	112	1
72	74	2
225	242	2
12	15	2
180	236	2
98	101	1
218	220	2
184	185	4
63	110	1
198	198	4
240	241	2
235	236	2
72	79	1
196	199	2
183	184	4
6	17	2
161	167	1
36	53	2
36	90	1
177	178	7
231	234	2
188	204	1
97	98	6
211	212	2
86	89	1
165	240	2
77	78	1
100	184	2
8	62	1
17	21	2
164	165	2
169	170	4
162	163	2
26	27	1
162	174	2
173	175	4
241	241	2
119	120	1
244	245	1
45	46	3
191	192	1
106	145	1
224	226	2
19	20	3
5	14	1
158	166	1
209	210	1
43	44	5
98	102	1
19	51	2
106	108	1
68	80	2
53	59	3
160	235	2
228	249	3
53	53	5
79	82	4
226	249	1
218	221	2
200	204	1
107	110	3
85	86	3
28	32	1
248	249	1
218	233	1
171	173	5
85	97	2
192	230	2
3	16	2
193	198	2
63	67	2
231	233	2
31	36	2
14	25	2
17	47	1
28	29	3
190	190	3
64	77	1
42	199	1
170	173	3
206	231	1
239	247	1
11	14	1
163	163	2
201	213	1
211	213	5
160	162	1
221	233	1
19	33	1
243	244	3
41	54	1
108	109	2
11	11	3
32	33	4
18	20	1
6	7	1
163	247	3
62	109	1
99	185	3
147	158	1
153	223	1
242	244	4
73	76	1
238	239	4
144	176	1
100	185	2
16	36	1
192	229	1
65	80	3
231	246	1
28	244	1
105	117	1
52	52	2
174	175	4
170	180	2
196	203	1
104	105	1
170	222	3
42	206	1
239	240	1
240	249	1
101	186	1
192	221	1
41	200	1
200	215	1
9	27	1
35	74	1
71	115	1
157	237	3
6	93	2
191	238	1
82	84	2
188	208	1
147	157	1
159	166	1
27	28	1
208	220	1
111	154	1
183	185	1
98	185	1
6	47	1
216	236	1
110	110	2
10	14	1
183	200	1
172	174	1
36	52	1
165	177	1
110	114	1
223	228	1
107	119	3
157	162	1
173	209	1
72	73	2
62	113	1
219	220	1
56	184	1
10	23	1
69	70	1
41	57	1
4	66	1
36	61	1
244	246	1
69	71	1
192	193	1
86	113	1
34	114	1
168	183	1
79	81	1
1	18	1
38	57	1
218	234	1
30	91	1
109	110	1
22	23	1
161	166	1
109	111	1
55	60	1
44	56	1
66	73	1
57	63	1
