132	132	13
109	109	4
91	91	13
0	0	13
136	139	5
82	85	2
124	127	7
5	16	8
16	17	2
119	120	2
13	13	4
110	110	4
4	4	15
19	26	5
16	16	10
8	8	10
17	32	2
26	26	7
128	128	11
9	9	6
138	138	6
10	19	2
3	4	9
3	5	4
116	116	7
76	76	9
104	104	10
108	108	7
18	18	5
114	114	15
135	135	8
28	29	8
22	22	12
4	72	6
86	87	2
72	72	7
33	33	11
79	79	4
75	78	2
86	86	7
25	25	13
124	125	3
93	93	4
86	108	2
80	80	5
35	35	16
32	32	6
23	23	2
107	107	5
115	115	12
21	21	21
95	95	6
30	30	12
36	36	6
81	81	12
139	139	12
20	20	3
123	125	2
122	122	8
105	105	5
111	111	8
1	12	2
12	13	5
15	15	1
129	130	5
126	126	5
97	99	1
101	101	6
13	14	4
117	118	4
5	5	8
89	89	4
88	89	4
17	33	2
8	32	1
23	24	13
31	31	5
125	126	1
34	34	6
130	130	2
108	109	6
96	96	7
131	131	5
108	111	1
38	38	9
7	7	10
8	28	4
10	10	4
73	74	1
87	114	2
7	8	2
29	29	11
6	6	4
35	36	4
121	121	4
103	103	14
27	27	12
100	114	3
71	72	5
88	88	6
123	123	6
77	79	4
115	116	1
30	31	7
75	75	4
85	86	8
78	78	1
122	123	2
28	28	2
8	9	3
90	90	7
99	100	2
17	17	9
19	21	1
10	12	6
100	100	4
140	140	7
124	124	5
112	112	9
114	115	2
24	25	4
4	27	1
132	133	3
87	87	9
136	136	9
27	29	4
87	113	2
94	94	1
85	108	1
8	27	1
102	103	1
2	2	6
130	131	2
12	12	5
137	137	5
38	90	2
125	125	2
91	92	9
86	114	1
1	1	3
106	106	9
23	25	2
5	6	2
77	77	2
8	15	2
10	27	3
80	81	2
130	132	2
98	99	2
91	93	2
98	116	2
113	113	5
135	136	2
5	17	2
1	2	1
89	90	6
24	24	10
33	108	2
81	86	1
110	111	2
84	84	5
21	24	1
76	79	1
19	20	2
94	96	3
119	119	1
128	129	3
71	71	7
33	34	4
21	41	1
89	96	1
119	122	1
133	133	1
92	93	2
129	129	2
1	3	1
85	85	2
98	98	3
134	135	4
19	19	3
35	98	2
106	107	5
104	107	2
139	140	1
29	30	3
92	92	2
6	8	1
117	117	2
10	11	4
3	12	3
97	97	4
15	16	2
102	102	2
118	118	3
25	26	2
37	94	1
14	30	3
79	108	4
14	14	1
37	37	1
71	77	1
100	101	2
75	76	1
77	111	2
16	71	1
100	116	1
11	11	2
88	114	1
95	96	1
31	32	2
22	23	2
83	83	1
87	88	1
22	24	1
74	74	3
21	22	2
20	33	1
111	112	1
90	93	1
44	83	1
9	28	1
106	112	1
89	93	1
77	112	1
