37	37	16
58	59	8
93	95	1
98	98	16
50	64	7
72	72	7
65	66	7
84	84	13
99	99	16
97	97	10
89	89	4
76	77	5
95	95	16
36	43	2
68	68	3
65	65	18
64	64	14
52	75	5
27	31	4
54	66	6
77	77	26
57	71	5
106	106	13
78	78	7
96	97	2
88	103	1
88	88	2
97	99	9
32	36	2
66	66	6
85	93	2
35	35	10
30	30	3
67	76	1
65	70	4
40	49	1
39	40	4
45	45	13
31	31	15
37	38	5
103	103	15
40	41	1
23	23	12
79	98	1
62	63	7
79	79	10
81	101	3
27	27	8
42	44	4
77	78	8
90	90	6
94	96	3
38	47	7
20	20	5
40	44	3
32	42	1
55	57	5
58	61	5
73	74	4
81	81	13
101	101	9
101	103	1
42	42	4
87	87	9
47	49	2
34	34	7
28	38	1
27	33	1
70	71	8
29	30	1
22	22	13
24	24	16
99	100	9
80	90	3
51	51	11
54	55	3
30	34	1
90	94	4
62	62	15
105	105	4
62	64	2
59	59	20
79	86	2
86	90	7
107	107	6
38	44	2
50	51	2
39	39	2
69	82	1
102	102	14
85	85	13
91	91	17
25	25	7
89	90	1
73	95	2
100	104	3
74	75	3
41	46	6
63	63	7
94	97	2
57	68	4
100	100	19
49	49	5
80	80	13
73	76	1
25	26	6
68	69	2
88	98	5
55	55	18
67	68	5
96	96	3
74	74	10
75	75	8
53	53	12
30	33	1
21	21	12
24	58	3
22	40	4
61	61	7
90	98	1
81	86	1
98	107	2
64	65	2
83	97	3
27	34	2
60	60	7
95	96	4
56	56	8
43	43	3
54	65	2
54	54	16
49	52	2
73	73	10
83	83	8
75	102	1
71	71	5
104	104	6
32	35	3
47	47	11
68	71	2
33	34	3
62	66	5
82	86	4
94	94	19
32	32	8
25	27	4
26	26	6
73	83	1
22	30	1
81	90	4
48	48	4
40	40	10
103	104	5
29	29	8
23	45	1
97	104	2
33	37	1
55	66	3
29	32	2
94	95	5
102	103	5
101	102	1
86	86	5
26	31	1
98	101	1
86	93	3
53	54	3
58	58	4
86	92	6
23	71	4
76	76	7
26	27	10
24	27	3
27	29	4
56	59	4
91	92	2
74	76	7
26	38	1
82	82	16
38	39	3
88	100	2
32	34	3
88	90	4
54	62	3
70	82	7
44	48	2
68	98	1
45	46	1
19	27	3
56	62	1
97	101	2
80	85	1
36	37	6
87	89	3
75	89	1
84	85	4
64	76	2
50	50	9
35	50	2
81	102	2
35	41	2
65	67	1
47	48	1
99	102	1
83	92	1
71	73	1
87	98	4
44	44	5
63	66	4
74	85	2
92	94	2
62	65	2
41	47	1
101	104	1
78	80	3
72	73	2
52	52	6
70	70	2
82	85	2
86	96	5
77	83	1
38	38	4
68	81	2
100	101	3
33	84	2
84	97	1
25	47	3
36	36	5
27	32	1
69	69	8
90	100	1
22	34	2
82	83	1
64	71	2
28	28	2
42	52	1
92	104	3
31	33	1
93	96	2
93	93	6
53	80	3
40	48	2
20	21	1
65	74	5
21	25	1
87	88	1
86	89	2
69	76	3
78	79	1
58	64	2
56	58	4
88	101	1
85	86	2
24	71	3
37	41	1
82	84	2
92	92	11
21	61	2
94	105	1
35	38	1
43	44	1
41	41	6
31	96	4
82	92	1
94	100	2
60	71	1
89	91	1
93	94	1
61	80	2
27	47	3
83	84	3
79	81	3
80	84	1
39	47	2
70	74	2
63	64	2
33	33	2
103	106	6
22	23	2
85	95	1
22	45	1
90	91	1
57	58	1
57	57	3
23	53	1
65	76	1
79	80	1
58	63	1
25	48	1
45	54	1
30	63	1
83	93	1
37	49	1
90	93	1
51	73	2
37	40	1
72	78	2
74	79	2
63	65	1
28	31	1
39	49	2
76	79	4
64	66	2
30	69	1
91	100	3
35	36	3
65	75	2
21	33	1
98	103	2
19	20	1
69	72	1
79	92	1
97	98	1
71	76	1
42	47	1
80	82	1
92	97	1
67	73	1
67	67	1
23	24	1
82	99	2
54	59	2
61	62	1
70	81	1
36	42	1
34	39	1
40	47	1
102	105	1
52	65	2
45	55	1
86	87	1
96	99	1
96	98	1
25	30	1
55	56	1
41	45	1
57	65	1
92	105	1
80	81	1
59	61	1
44	51	1
72	82	1
71	79	1
44	52	1
92	100	1
87	97	1
58	60	1
72	98	1
68	77	2
71	72	1
84	89	2
62	80	1
36	44	1
55	59	3
75	92	1
44	47	2
80	87	3
41	42	1
87	93	1
29	58	1
87	95	3
46	52	1
85	98	3
36	38	1
38	43	1
97	102	2
23	28	1
44	49	1
84	86	1
73	86	2
89	101	1
65	68	1
54	67	2
26	37	1
98	106	1
98	99	2
35	43	1
66	68	1
60	77	1
94	101	1
64	67	1
54	57	1
66	71	1
