118	119	2
33	38	6
83	89	4
78	79	2
130	130	10
10	11	9
22	22	9
119	119	14
71	86	4
21	21	3
80	80	2
125	129	6
117	125	3
114	114	2
27	29	8
132	133	1
115	116	2
112	112	6
5	5	3
25	25	6
88	88	2
35	35	5
79	101	3
109	109	5
7	7	4
123	125	4
73	73	1
17	20	1
120	120	2
25	26	8
117	118	1
23	26	2
90	90	6
138	138	7
20	30	4
123	123	6
0	0	7
82	82	3
6	6	8
36	36	3
76	93	3
38	38	2
4	5	4
100	100	5
4	4	4
132	132	4
32	32	5
102	103	2
114	120	2
128	128	2
99	99	4
127	127	3
20	20	5
126	126	3
107	120	4
14	14	6
76	77	7
19	20	2
114	116	1
84	84	9
1	1	5
72	73	2
22	23	4
94	94	9
116	116	4
106	119	3
76	76	6
9	9	7
129	130	2
91	92	3
116	117	5
99	107	2
3	5	3
125	125	12
1	5	1
26	26	4
76	84	3
34	34	6
25	66	2
91	91	9
15	15	2
25	32	6
4	14	1
28	28	4
10	10	1
93	94	2
85	85	1
106	106	3
74	74	6
113	113	2
124	124	5
102	102	1
105	106	2
102	107	2
17	17	4
19	19	4
72	102	4
112	113	4
107	107	1
87	88	1
30	30	4
31	76	2
24	26	1
110	110	4
32	33	2
78	78	6
76	105	5
86	93	3
2	11	4
136	136	1
2	2	8
74	75	3
86	86	4
85	86	1
94	106	2
121	121	3
35	74	2
131	131	3
3	8	2
5	6	4
29	29	3
77	77	8
95	96	1
34	95	1
83	85	5
111	113	2
97	97	1
105	105	2
108	111	2
111	111	5
103	103	1
118	125	2
87	87	5
1	10	1
80	82	4
99	100	1
79	79	8
17	19	2
93	105	1
89	89	3
30	31	3
6	13	1
27	28	2
137	137	3
29	30	2
133	134	3
104	105	1
134	139	1
93	93	1
106	116	2
126	127	4
110	112	1
108	109	1
101	101	2
4	38	1
71	71	3
76	85	1
75	75	8
24	24	3
27	27	2
96	96	3
0	2	1
116	131	1
81	83	2
72	72	2
114	132	1
34	35	2
95	95	1
18	18	5
1	16	1
17	18	1
7	20	1
8	8	2
80	81	1
86	87	3
23	23	1
98	98	2
121	123	1
72	107	1
36	72	2
140	140	1
81	89	1
0	1	1
73	74	3
122	122	1
2	6	2
100	112	1
81	81	3
103	106	1
16	16	1
9	12	2
2	12	1
3	100	2
31	32	1
87	123	1
129	129	2
77	101	1
0	10	1
134	135	1
115	117	1
117	124	1
23	27	1
37	37	1
4	6	1
139	139	1
116	126	1
83	83	1
