151	160	2
175	179	2
88	88	31
123	124	5
88	89	6
41	81	6
112	112	7
173	174	3
141	141	6
122	155	5
40	40	13
112	114	1
75	75	11
57	89	1
16	16	12
152	152	12
120	120	12
156	164	1
91	94	2
34	65	1
67	101	3
61	81	3
56	57	7
123	123	8
139	139	10
10	10	15
168	168	10
25	28	2
157	174	2
135	136	4
104	104	3
63	67	3
128	134	1
116	117	8
18	18	13
32	66	2
10	15	4
8	8	12
58	90	2
82	91	1
10	25	3
56	56	6
36	36	16
145	145	2
49	49	1
0	0	5
38	38	17
82	82	7
165	165	6
128	131	1
24	24	10
150	154	11
103	103	8
123	126	1
92	92	14
30	65	5
162	165	2
167	167	8
146	147	5
5	30	3
174	179	4
60	130	3
44	44	6
68	68	6
169	172	3
86	86	2
23	23	11
74	77	2
147	147	5
131	156	1
6	6	12
31	33	1
55	55	7
156	157	3
172	172	3
170	170	3
35	35	7
31	31	3
133	141	1
15	15	4
29	172	8
117	133	4
78	79	5
14	14	2
136	136	5
32	78	2
148	149	1
124	124	10
11	11	5
145	179	3
35	61	4
12	26	3
55	60	5
117	121	5
114	136	3
109	109	6
96	102	6
64	86	2
7	7	10
42	42	7
93	93	5
137	137	10
123	155	1
54	54	2
4	4	17
30	31	1
107	107	7
117	117	8
72	89	3
113	113	8
107	108	3
167	170	6
169	169	7
148	148	6
159	159	10
53	53	6
121	121	9
12	12	4
11	37	6
56	92	5
3	12	5
175	175	9
172	174	3
17	17	4
141	142	9
156	156	15
126	158	2
130	140	3
41	83	4
130	130	3
95	96	2
26	26	3
97	131	4
157	175	3
28	44	2
96	112	1
57	57	7
119	152	2
176	176	4
139	140	2
58	58	3
125	128	1
60	76	1
80	80	4
67	67	2
71	71	6
146	146	9
174	174	11
42	148	1
72	72	2
111	116	3
121	156	5
6	11	4
118	147	1
126	168	2
92	111	3
45	110	1
31	34	1
100	100	7
91	112	1
150	150	11
142	142	6
154	154	10
70	70	4
50	50	7
90	111	4
80	117	1
61	61	5
134	134	8
99	107	4
16	17	2
6	20	1
92	93	1
110	110	2
95	102	2
122	152	3
79	129	2
5	5	12
140	140	5
138	138	7
135	138	1
71	137	1
91	146	2
129	179	3
100	101	4
115	119	5
62	63	3
104	118	1
160	160	3
7	26	1
19	20	3
96	96	2
158	160	2
6	12	5
114	114	7
149	149	6
170	179	4
14	16	7
7	32	1
71	98	3
180	180	5
9	9	6
57	59	4
36	176	5
164	164	1
154	155	6
77	77	4
65	66	2
75	99	3
127	133	1
22	24	2
131	131	2
60	60	1
29	29	13
3	35	2
37	44	3
91	107	4
8	40	2
132	148	2
59	59	5
171	177	2
66	66	18
7	42	3
33	36	1
51	133	3
37	59	2
30	30	3
72	111	1
161	164	2
127	170	1
161	161	4
55	56	1
22	22	6
33	34	2
127	128	4
65	65	1
163	163	10
171	172	4
86	89	2
147	166	2
166	166	1
19	19	1
85	94	5
5	6	2
27	27	5
107	113	4
142	144	3
21	22	1
104	105	3
134	136	3
97	139	2
7	25	2
122	156	1
141	176	2
81	81	4
130	134	2
2	38	1
115	115	2
122	159	1
15	18	5
142	143	2
74	75	5
174	175	2
72	73	8
74	111	6
104	134	2
13	14	7
112	135	1
177	177	3
119	144	2
42	43	1
99	99	3
7	100	1
122	122	2
110	119	2
37	61	1
25	25	1
146	155	1
50	67	1
120	156	3
129	129	8
178	178	9
33	60	1
145	146	3
49	135	1
94	94	8
119	119	3
168	171	1
79	79	3
53	118	3
127	127	5
137	138	1
151	179	3
118	118	3
141	175	3
25	39	3
24	60	3
106	106	4
14	29	2
126	126	5
65	72	1
95	95	1
84	84	5
80	81	2
124	126	3
177	179	2
152	154	1
37	38	2
52	53	2
54	59	3
74	74	5
130	173	1
41	41	2
30	36	2
15	17	2
76	77	2
143	145	2
156	159	1
108	108	1
131	168	1
135	135	5
91	106	1
43	44	1
13	13	4
171	173	3
74	147	2
34	34	3
128	128	2
73	73	2
153	153	2
101	155	1
26	27	1
19	27	1
79	80	1
116	116	3
108	116	1
113	119	3
158	158	5
99	103	2
108	155	2
87	87	5
159	160	1
29	30	1
77	79	1
4	5	1
140	141	1
25	40	2
63	64	3
80	98	1
37	37	3
147	156	2
3	3	3
89	94	1
153	156	2
2	2	2
132	132	7
102	145	1
33	33	6
58	75	2
97	97	2
98	103	3
26	42	2
86	97	1
57	58	2
149	156	3
27	30	1
120	153	1
179	179	2
1	5	2
64	101	2
133	133	2
107	150	1
36	65	1
83	98	2
18	31	3
125	137	3
90	93	2
93	112	1
96	103	4
32	33	3
111	111	2
135	149	3
129	130	2
106	146	3
121	127	1
14	23	5
28	28	3
81	83	2
52	60	2
161	177	1
126	154	1
83	83	2
98	106	3
57	61	2
168	172	1
25	45	1
90	99	3
157	157	3
145	162	1
39	43	3
50	59	2
118	134	2
97	156	2
97	102	1
159	178	2
93	101	1
9	10	1
61	139	2
1	1	3
121	149	3
31	32	2
26	30	2
13	20	2
152	167	3
144	144	1
76	76	3
56	116	1
100	107	1
45	45	1
109	110	2
143	143	1
51	51	1
119	156	2
149	150	2
11	39	1
168	169	1
14	22	3
150	152	2
16	170	2
96	100	1
20	20	2
36	37	1
128	136	1
9	40	1
150	156	2
178	179	1
143	144	1
21	21	1
71	77	1
85	85	1
157	158	1
14	15	2
51	57	1
154	179	1
175	177	2
171	179	1
13	28	1
126	169	3
94	95	1
165	166	5
114	138	1
102	106	2
171	171	2
139	150	1
99	116	1
173	173	2
78	136	3
101	101	1
12	41	1
78	78	3
100	104	1
9	11	1
162	162	2
64	64	1
108	113	1
113	118	2
134	135	1
102	103	1
155	155	1
8	33	1
51	80	1
39	39	1
10	12	1
32	32	2
107	110	1
127	165	2
51	118	1
25	44	1
30	35	1
142	149	1
67	72	1
33	102	1
114	115	1
64	139	1
70	114	1
151	151	3
127	148	1
63	63	1
100	110	2
66	75	1
151	152	3
168	173	1
156	158	2
160	167	1
85	89	1
67	138	1
50	61	1
100	148	1
49	54	1
79	118	1
8	14	1
144	179	1
34	35	1
107	114	2
52	95	1
169	173	1
119	120	1
15	21	1
65	76	1
98	98	1
55	57	1
87	88	1
148	163	1
10	20	1
37	41	1
