192	192	4
197	197	4
105	105	18
31	50	2
34	34	9
128	128	5
175	175	4
120	120	5
10	10	8
163	163	1
119	119	3
100	100	6
148	164	2
77	85	5
1	2	2
135	139	3
45	45	8
90	90	1
190	190	8
13	13	9
189	189	4
125	126	2
11	12	4
178	178	9
151	152	2
143	143	1
182	182	1
23	27	4
31	31	4
150	155	4
2	2	6
63	63	15
23	29	4
120	121	3
31	32	3
125	144	5
146	147	1
174	174	5
188	188	5
117	117	11
40	40	5
141	143	3
184	184	4
74	76	3
137	138	4
38	40	3
84	90	1
155	171	3
0	2	1
74	74	2
62	65	6
51	51	4
156	157	4
101	131	4
5	5	3
1	1	4
70	71	7
106	106	5
161	161	9
38	39	3
129	129	10
173	174	8
44	44	7
3	3	2
53	65	1
69	76	3
118	118	10
83	83	5
32	32	5
166	166	3
177	177	4
153	154	4
123	123	10
178	180	1
132	132	6
51	52	2
16	17	4
189	190	3
33	89	2
77	86	4
135	135	2
131	131	1
0	0	1
38	38	5
191	191	8
48	49	2
78	88	3
99	121	3
16	16	4
136	138	3
54	54	8
7	7	13
93	93	2
42	42	7
124	124	12
163	164	1
58	60	1
160	160	9
159	160	1
24	24	3
132	134	1
43	44	3
36	36	3
95	95	6
136	136	6
13	14	2
157	158	3
126	144	2
183	183	7
172	178	1
9	9	8
98	101	3
7	8	1
146	148	1
52	52	6
8	112	3
61	61	1
142	142	7
20	20	4
37	37	7
22	22	3
129	132	1
138	138	4
40	42	3
58	58	5
24	117	1
85	85	1
60	60	9
152	152	2
12	13	5
134	134	5
78	78	4
139	139	3
186	186	10
185	185	3
79	79	5
41	60	1
54	55	1
56	72	5
17	18	3
5	61	5
107	121	2
3	4	1
6	8	3
12	12	3
26	26	8
193	193	8
101	102	3
64	64	7
36	79	2
2	7	2
111	112	5
97	123	3
17	58	2
127	127	8
72	73	1
50	51	3
68	68	4
146	146	5
146	164	1
30	30	3
112	112	3
73	75	1
62	62	3
140	140	8
35	35	2
56	56	8
53	60	2
187	187	9
131	147	1
50	175	1
182	183	5
128	142	2
4	4	8
148	148	4
6	7	2
67	68	1
149	157	2
155	155	5
65	65	5
170	170	5
84	86	2
187	193	4
96	97	1
49	52	2
8	8	4
78	79	3
116	117	2
136	139	2
130	130	6
30	31	4
195	196	1
74	75	2
109	110	2
176	176	1
149	149	4
69	69	4
4	62	2
196	196	4
77	77	3
84	85	1
64	66	3
46	46	2
132	133	2
142	144	1
59	60	3
180	180	2
165	166	3
137	137	2
82	83	4
102	103	2
144	144	5
193	194	4
192	193	5
6	6	2
58	59	3
115	115	3
18	62	3
145	145	5
167	167	6
121	121	1
25	25	3
114	114	4
102	102	7
4	59	1
89	89	6
29	29	2
147	147	4
100	123	1
194	194	3
165	165	2
172	172	2
142	143	1
105	106	1
36	37	3
169	170	1
23	153	1
18	18	2
17	17	1
39	54	1
139	160	1
39	40	3
32	33	1
22	24	2
61	62	6
121	122	2
11	11	4
118	119	1
157	157	3
125	156	1
31	57	4
179	179	2
124	125	3
159	159	2
7	11	1
129	131	1
99	99	3
112	113	2
110	110	3
175	177	1
82	82	1
34	35	2
126	126	3
186	187	1
141	141	6
151	151	2
99	100	2
104	104	1
155	197	4
21	21	6
135	136	1
160	194	2
126	127	2
43	60	1
170	171	1
97	97	6
18	21	4
94	107	1
81	81	1
21	28	1
159	191	2
86	86	3
46	47	2
25	114	2
109	109	2
75	76	1
87	87	5
59	59	3
162	162	2
156	156	3
181	181	2
161	162	2
72	72	2
159	162	2
158	158	1
19	19	2
166	167	1
71	78	1
24	70	1
147	167	2
108	108	2
56	66	2
63	64	1
138	139	1
77	87	1
150	150	1
179	180	3
49	49	1
85	86	1
130	131	1
81	82	3
11	14	1
88	88	1
118	152	3
54	67	2
103	103	1
76	85	1
32	89	2
47	49	1
70	70	1
40	43	1
12	15	1
168	168	1
160	161	1
4	12	1
154	154	1
190	191	3
54	62	2
60	64	1
126	128	1
98	98	1
83	84	1
150	164	1
38	53	1
14	14	1
67	67	2
107	107	2
73	73	1
152	153	1
115	116	1
94	94	2
24	69	1
114	115	1
20	28	1
120	158	1
139	140	1
