116	116	20
109	109	36
31	31	22
54	54	18
146	146	14
55	55	6
129	129	19
23	23	20
80	80	9
83	83	15
131	131	19
13	14	18
3	12	4
115	115	2
132	133	12
36	36	34
43	43	21
43	111	1
103	103	11
93	93	19
19	19	25
49	55	1
11	12	8
77	96	3
44	44	5
111	111	11
21	22	1
148	148	15
13	13	19
17	17	10
150	150	15
62	62	13
81	127	1
127	148	3
107	109	3
133	133	13
117	117	14
45	49	6
7	7	12
80	135	4
47	47	8
27	29	5
73	73	9
102	102	15
2	2	3
132	132	17
131	132	10
48	69	5
50	50	15
141	142	7
121	128	2
30	31	7
98	98	15
140	140	13
108	108	18
112	112	19
128	128	13
95	95	21
69	69	20
5	5	5
27	27	13
115	116	6
34	34	10
9	10	5
62	63	9
41	41	18
21	21	25
76	96	1
57	68	1
131	135	4
10	10	11
15	15	13
4	6	6
88	99	2
113	113	19
80	121	1
22	23	6
124	124	9
132	134	1
144	144	14
89	89	1
94	96	2
11	11	24
48	48	15
63	63	14
53	54	2
121	121	17
127	128	4
134	139	1
104	104	4
75	75	5
26	26	11
22	22	12
100	100	7
69	117	2
142	144	2
23	62	6
14	14	26
103	104	8
32	35	5
154	154	7
116	117	2
96	96	13
28	29	7
153	153	9
3	17	3
76	78	4
24	24	13
38	95	13
74	74	9
14	15	2
77	77	12
29	29	15
57	57	10
87	87	4
83	85	1
16	17	7
129	131	2
8	8	8
125	125	6
149	149	17
136	137	3
122	128	7
37	37	9
6	7	5
10	18	5
79	79	1
147	148	1
142	142	13
45	45	13
56	56	9
4	4	8
135	135	9
55	105	8
33	34	4
17	18	7
141	141	7
107	107	25
122	151	4
85	85	4
28	28	6
4	33	6
49	49	6
138	138	21
88	94	1
81	81	6
137	137	13
40	62	3
126	127	4
40	68	3
53	53	13
78	78	9
24	25	4
39	62	1
4	5	9
137	138	8
83	84	6
33	33	14
58	58	5
40	40	22
128	130	2
107	108	5
39	49	4
82	85	6
75	77	4
65	99	1
6	6	19
63	105	1
3	3	13
95	111	3
27	28	5
146	151	4
25	30	4
67	68	2
145	146	5
111	112	2
122	122	14
8	9	5
21	62	2
122	130	1
129	145	1
130	133	2
92	93	2
136	136	21
79	86	3
96	97	6
147	147	19
94	95	6
119	129	2
18	18	12
63	65	3
36	37	4
72	72	18
91	91	2
123	124	5
51	51	6
22	50	1
6	10	2
38	38	16
152	152	5
94	133	2
130	130	10
101	103	5
68	68	17
126	130	1
25	32	1
142	143	4
16	18	2
8	11	3
96	103	2
86	90	2
86	130	2
110	114	2
41	97	1
84	84	10
80	83	2
54	55	2
114	115	2
97	97	18
42	42	7
71	71	13
140	141	11
133	134	1
82	82	18
76	77	2
64	65	3
101	101	4
20	51	4
102	103	4
80	120	3
74	102	6
46	46	9
54	56	3
39	39	8
43	44	5
128	131	1
44	45	5
98	99	3
26	34	3
74	75	4
90	90	4
139	139	4
65	66	2
21	64	2
65	65	18
79	136	1
134	134	10
72	73	3
41	42	4
86	86	8
41	96	5
110	110	9
128	129	7
49	54	1
20	35	1
56	68	1
15	16	3
77	101	4
94	112	2
119	119	5
126	126	5
43	110	4
21	50	6
122	124	3
67	109	2
12	12	13
8	17	2
106	107	4
22	36	1
10	11	6
34	35	1
88	95	1
118	118	10
70	72	1
69	70	4
78	80	2
9	9	12
45	46	7
119	120	5
76	76	8
95	96	2
66	78	8
97	98	4
92	92	10
78	97	1
122	123	1
4	17	3
68	69	3
93	135	3
130	143	1
126	147	5
19	36	5
23	49	7
30	48	1
66	80	8
81	82	4
114	114	8
83	114	4
67	67	13
129	130	2
68	109	1
63	64	2
84	86	2
58	65	2
99	99	2
27	34	1
89	90	2
5	20	1
28	40	5
145	145	15
127	127	4
9	18	2
123	123	10
151	151	8
39	63	1
35	35	3
145	147	2
7	8	2
40	41	1
11	16	2
77	78	3
2	3	5
71	128	1
56	96	5
110	111	2
105	105	4
86	87	1
18	52	1
16	16	8
109	114	2
28	30	3
69	75	1
150	151	3
124	125	1
10	16	1
30	30	3
12	16	1
125	128	4
65	105	3
26	27	3
121	122	3
47	48	3
47	109	1
3	26	3
128	147	1
31	32	1
144	145	1
85	86	8
49	50	3
109	116	3
135	136	5
120	120	1
77	102	1
32	32	3
70	70	4
134	135	3
20	26	2
66	76	1
110	115	2
20	37	3
25	37	2
35	36	1
84	85	5
20	20	9
104	105	1
153	154	2
79	80	2
70	73	1
103	107	3
6	19	1
63	101	3
92	137	1
8	12	3
88	96	2
106	106	5
9	54	3
29	35	2
85	98	2
70	118	1
36	49	1
39	99	2
75	78	5
112	114	2
82	83	5
52	53	2
88	88	3
110	116	1
72	74	1
12	14	1
66	66	3
82	86	1
133	135	1
84	131	1
83	121	1
26	32	1
19	20	1
128	150	1
126	145	1
18	19	4
66	67	2
26	31	1
23	24	4
138	143	2
138	154	2
5	7	2
81	83	1
143	144	1
125	130	2
120	121	1
146	150	2
24	30	1
116	132	3
114	116	1
20	21	2
78	82	1
64	64	1
143	143	1
79	87	1
3	8	1
119	147	1
109	110	1
35	38	2
27	31	4
51	52	1
23	39	1
13	137	3
20	33	1
29	30	2
84	115	1
50	52	4
76	79	1
94	99	1
79	137	2
69	74	1
148	149	3
132	135	4
94	94	1
125	141	1
24	50	2
79	130	1
105	106	1
112	113	2
31	34	1
25	25	6
52	52	2
70	71	1
30	49	1
55	56	1
113	114	3
125	126	2
66	100	1
32	33	1
57	58	2
122	131	1
80	81	1
146	147	1
41	49	1
121	146	1
132	153	1
84	114	1
127	145	1
138	140	1
25	51	1
119	150	1
88	92	1
5	8	1
42	111	2
123	125	1
123	128	1
97	112	1
87	88	1
53	55	1
75	81	1
34	37	1
78	136	1
12	13	1
