155	156	6
170	170	6
110	110	5
7	10	3
124	130	1
139	140	2
117	119	4
33	33	9
91	91	11
20	21	5
125	125	10
88	89	4
139	149	3
13	13	5
132	133	2
146	146	13
119	119	5
18	18	2
71	71	5
138	149	3
55	55	8
111	111	4
161	161	3
153	153	11
53	53	5
70	70	4
103	104	2
125	130	5
4	4	4
137	137	4
66	66	1
49	126	2
107	107	3
7	7	5
64	64	10
37	158	6
96	96	2
130	131	3
25	26	2
160	167	1
98	119	4
36	36	4
86	86	5
43	43	2
17	22	2
43	89	1
143	145	1
143	144	1
42	43	2
54	55	4
40	40	6
69	70	2
0	1	1
147	147	3
36	37	1
157	158	6
63	63	6
2	136	2
133	133	3
22	22	1
167	167	3
21	22	1
83	83	4
96	97	5
57	57	3
17	17	8
103	103	2
8	13	4
75	75	3
39	48	2
84	84	3
46	48	4
80	80	6
128	131	5
132	143	1
156	158	2
120	120	6
49	133	3
48	56	2
124	125	5
49	49	5
166	166	1
48	49	3
67	68	5
24	24	3
90	90	1
85	85	3
50	143	2
161	165	1
139	139	3
16	16	4
62	62	3
76	84	4
127	127	4
127	129	1
92	93	1
101	101	7
2	110	1
45	45	3
4	5	1
89	89	5
12	12	5
123	127	1
19	19	5
163	163	2
34	35	1
134	134	5
159	159	2
52	52	8
88	88	8
50	50	1
84	85	4
152	154	4
117	121	5
143	143	2
17	18	2
68	68	2
15	16	5
98	98	3
115	116	3
121	121	4
3	4	1
90	91	1
73	73	12
131	143	2
126	127	1
25	25	6
5	5	7
118	118	3
89	90	1
37	61	1
123	124	3
135	135	2
164	164	4
155	155	1
39	39	1
45	87	2
129	129	5
83	91	1
70	82	5
169	169	5
81	81	5
38	38	5
27	27	4
79	79	2
23	111	2
152	152	4
26	57	7
78	79	2
115	115	1
49	122	3
162	162	2
131	132	2
37	57	2
39	40	2
57	91	4
38	58	2
44	125	3
93	94	1
108	108	5
141	141	5
130	130	4
69	71	1
123	128	3
43	109	2
82	82	1
132	132	6
156	156	1
142	142	2
47	49	2
117	117	1
99	99	3
21	21	2
11	12	1
74	75	2
84	88	1
20	22	1
123	123	2
11	11	2
109	110	1
54	54	3
36	42	1
106	106	1
16	17	2
68	69	2
131	131	3
56	56	1
23	23	3
9	9	2
14	15	2
114	114	1
140	140	1
113	115	1
154	154	1
114	115	2
159	168	1
105	106	1
93	95	1
51	51	2
48	48	1
15	15	1
116	116	3
97	97	1
3	3	1
3	20	1
102	102	1
94	94	3
165	166	1
84	86	1
113	113	1
109	109	1
79	80	1
1	2	1
124	124	4
14	14	2
26	26	1
145	145	1
138	144	1
105	105	1
22	23	2
98	105	1
132	141	1
93	93	1
64	94	1
38	39	1
18	115	2
6	7	1
2	2	1
151	153	1
10	10	1
