56	56	10
123	123	17
83	83	4
44	46	4
116	116	3
70	70	4
106	107	3
8	8	5
98	112	2
48	48	4
125	128	3
26	27	4
62	84	2
29	31	3
26	26	9
55	55	7
25	26	4
71	72	2
117	120	1
50	50	5
122	122	5
128	130	5
80	80	5
28	28	3
121	121	12
117	117	7
23	23	4
40	40	3
103	104	4
41	42	5
111	111	5
114	116	3
82	82	2
94	95	2
73	73	7
16	16	6
109	109	13
6	6	3
87	89	1
105	105	13
26	30	2
132	132	6
97	98	5
94	94	6
11	11	3
57	57	5
0	1	8
50	52	3
33	34	1
112	112	5
45	45	8
91	92	3
103	103	10
46	47	2
75	75	3
31	31	2
3	7	4
100	100	10
63	63	4
14	14	2
81	101	2
32	32	9
15	15	4
40	57	4
131	131	4
93	93	3
47	47	3
52	52	11
75	76	1
112	113	3
6	32	2
25	25	9
85	92	3
113	114	4
129	129	4
40	42	1
12	12	9
118	131	2
53	53	2
66	66	1
125	125	5
121	122	3
45	46	2
102	102	6
22	22	1
78	78	3
3	3	2
96	96	2
66	67	4
14	22	3
110	110	10
120	120	4
10	10	4
54	54	5
124	124	6
71	71	8
107	107	4
84	128	2
114	115	2
86	88	1
84	126	4
46	60	2
42	43	6
85	88	4
74	81	3
2	2	7
128	133	1
98	98	3
42	42	8
27	28	4
12	13	4
72	73	1
93	94	1
9	15	3
82	87	1
24	24	8
78	79	1
80	100	2
48	69	1
68	68	4
54	55	1
40	69	4
69	69	7
79	79	8
83	84	3
52	53	4
72	72	2
131	133	1
59	59	4
99	99	2
73	78	1
43	43	3
29	29	1
20	20	4
65	77	4
111	112	1
39	39	1
56	99	6
128	131	4
97	112	2
50	51	2
88	89	2
91	91	2
102	104	1
3	4	2
95	95	9
76	76	4
100	101	4
115	115	2
128	129	1
81	82	1
4	4	3
92	127	1
119	119	6
81	81	5
128	128	1
125	127	4
90	90	2
84	85	2
49	50	1
7	7	1
23	25	3
120	132	1
1	1	2
110	111	2
40	48	3
114	114	1
46	46	2
87	87	7
113	113	4
13	13	3
95	100	1
42	46	1
108	109	3
94	99	1
9	10	3
30	30	4
27	27	2
97	97	2
74	74	1
19	19	6
94	97	4
3	5	2
83	86	3
49	49	1
61	64	2
70	71	1
64	64	2
120	131	1
115	119	1
61	61	2
28	29	2
5	5	2
48	49	1
5	7	1
130	130	1
61	63	3
44	44	2
92	129	1
58	82	1
18	18	1
133	133	2
96	100	2
94	98	3
129	131	1
12	19	2
74	86	2
126	127	1
67	67	1
42	44	2
104	104	2
33	33	4
111	113	1
87	88	1
47	48	1
58	59	1
41	41	1
118	119	1
60	68	1
119	120	1
40	41	2
46	62	1
31	32	1
126	126	1
53	122	1
15	21	2
80	102	1
1	2	1
58	58	2
90	91	1
63	75	1
58	64	1
83	85	1
120	121	1
117	130	1
111	121	1
59	61	1
117	118	1
17	17	1
89	89	1
56	98	1
129	130	1
