94	94	11
45	45	23
24	24	15
71	71	11
105	105	18
54	80	1
64	65	8
30	31	5
93	94	11
27	28	4
38	39	9
47	49	9
105	106	1
80	80	26
81	85	1
106	106	11
68	69	8
29	29	14
55	55	16
75	75	17
59	59	28
57	57	9
22	107	4
84	84	25
54	54	24
74	82	1
79	79	25
27	27	20
82	82	13
67	68	11
21	21	10
43	43	16
61	62	8
66	66	21
51	89	2
90	90	23
102	102	8
87	87	20
39	39	18
77	79	3
82	83	15
63	63	16
51	51	29
66	67	3
83	85	4
31	31	15
78	78	14
55	57	3
44	44	16
67	67	32
71	72	7
93	93	10
56	57	7
52	55	2
100	100	23
72	72	23
38	78	2
49	49	17
92	92	29
91	91	15
68	85	2
62	62	16
99	99	22
26	29	5
47	48	2
51	52	6
37	37	15
34	34	10
94	99	3
54	61	7
89	90	18
40	40	14
77	77	21
60	61	3
20	21	10
33	33	10
74	74	14
103	104	4
47	47	9
28	38	1
47	50	1
101	101	11
98	101	5
32	32	25
21	87	2
70	100	1
25	89	2
86	87	3
95	95	7
39	41	6
38	38	22
24	28	4
60	60	17
86	86	6
60	62	1
25	88	1
28	28	12
69	69	13
61	66	2
99	101	1
70	70	20
26	26	21
64	64	12
20	23	5
103	103	16
92	93	10
87	88	7
59	60	7
20	28	1
73	73	15
96	98	2
61	67	6
23	33	2
56	56	9
63	64	1
76	77	5
41	41	9
48	48	13
90	91	10
30	30	18
61	64	5
98	98	15
56	59	1
100	102	5
43	44	3
34	35	7
74	75	4
65	65	4
22	31	2
76	76	28
37	76	2
85	85	6
58	58	24
62	64	6
57	71	7
50	65	1
31	35	3
98	99	14
50	50	15
82	84	4
54	63	5
36	36	15
95	96	6
22	24	4
54	88	2
104	105	4
28	82	5
22	22	13
84	85	12
52	91	3
27	82	4
33	34	14
20	20	8
52	52	13
35	35	15
26	27	10
25	25	9
67	84	1
69	83	1
51	53	2
31	34	2
91	92	11
60	63	4
72	73	1
49	52	2
101	102	1
96	97	4
96	96	15
42	42	17
66	100	2
37	38	7
29	31	1
80	81	5
71	73	3
78	79	9
102	103	3
89	89	17
97	98	4
81	81	9
79	80	3
53	53	8
88	88	6
21	23	3
94	96	2
86	88	3
69	85	1
36	48	4
21	65	1
58	59	6
46	46	9
104	104	16
58	64	4
107	107	3
68	68	13
83	83	4
23	41	4
94	95	4
81	83	3
52	102	3
41	42	3
52	53	2
77	78	4
75	76	2
50	58	3
50	87	1
30	34	1
100	101	2
73	74	7
62	106	1
56	65	2
24	29	1
23	42	1
37	39	4
97	97	9
62	107	3
39	40	6
61	61	6
53	54	7
20	50	1
42	44	2
26	28	3
26	31	3
70	88	4
53	80	3
29	30	1
66	68	2
85	86	3
59	61	1
32	36	1
54	69	1
31	32	1
23	40	5
43	74	1
47	70	3
20	24	1
41	44	1
80	86	1
85	87	9
70	71	6
35	81	3
73	94	2
36	76	1
38	79	1
42	43	5
70	77	1
38	77	2
46	47	1
50	56	1
40	41	3
68	80	1
58	65	1
58	61	1
51	103	2
81	82	6
83	84	3
40	45	2
69	70	1
21	28	3
54	59	1
27	31	1
36	37	3
57	85	2
74	96	1
96	99	1
62	63	3
45	47	2
68	97	1
33	36	3
28	91	1
51	93	1
43	58	1
32	35	1
46	54	4
59	71	1
21	22	1
70	78	1
55	56	1
26	48	1
27	79	1
102	104	1
32	33	1
23	23	2
106	107	1
30	37	1
27	39	1
55	58	1
21	89	1
57	84	1
74	76	1
84	86	1
59	63	1
61	63	1
65	66	1
51	55	1
20	67	1
53	55	1
58	72	1
83	87	1
20	22	1
55	64	1
56	66	1
24	41	1
91	102	1
