116	116	4
92	92	8
46	47	2
70	70	2
28	28	1
82	82	12
24	25	5
68	72	1
127	128	2
27	27	8
35	36	3
57	85	3
59	89	3
111	111	5
85	85	1
78	78	8
68	69	4
36	37	2
121	121	9
69	69	5
68	68	10
57	57	9
75	76	2
76	76	20
10	10	12
83	83	5
72	72	5
117	117	8
62	62	5
64	65	2
76	77	1
57	58	1
20	20	12
56	56	7
20	22	4
60	60	11
41	43	1
93	93	6
47	47	8
18	18	10
17	18	1
7	7	9
12	16	3
3	3	10
66	66	12
123	134	2
14	14	13
82	83	2
98	98	7
120	123	1
84	85	4
126	128	10
126	126	6
123	123	18
40	40	2
44	44	7
19	21	3
58	112	1
37	38	2
63	63	11
122	122	9
78	79	2
108	108	9
130	130	1
65	65	2
75	75	8
86	86	11
129	129	3
32	32	4
17	17	7
4	4	6
39	48	2
33	33	21
125	125	4
78	94	7
9	9	7
8	8	5
127	127	5
117	118	7
113	113	7
133	134	7
84	118	4
29	30	1
15	16	2
110	113	2
131	131	5
61	61	7
117	119	3
45	45	2
60	88	1
77	78	1
31	31	4
58	58	16
12	12	9
77	77	8
99	100	1
95	95	11
97	97	3
89	90	2
106	133	4
115	115	5
63	92	3
13	14	1
100	122	2
1	1	1
86	88	7
38	38	1
95	101	1
114	114	3
66	67	2
108	126	1
10	11	4
105	105	5
6	7	3
121	122	2
64	64	10
104	104	4
48	49	2
5	5	8
14	32	2
125	128	1
2	2	4
124	134	2
59	59	4
100	120	3
37	48	2
99	99	1
96	96	5
35	88	4
94	94	8
30	30	11
16	16	7
118	118	4
123	124	4
59	83	2
112	112	4
36	36	1
72	119	3
25	25	5
71	71	3
42	43	2
87	87	1
106	131	1
77	118	1
102	102	5
32	33	1
74	74	6
84	86	2
110	111	2
119	119	9
33	34	2
11	16	2
44	45	2
107	107	4
4	28	2
124	124	19
83	86	2
109	109	3
46	46	3
23	26	5
38	39	1
43	43	5
79	116	1
38	48	1
78	116	1
108	110	5
20	21	6
14	15	1
19	19	3
21	21	4
91	91	4
105	114	3
62	75	1
90	91	1
41	41	4
18	45	3
20	36	4
75	82	2
42	42	1
109	130	4
58	59	1
133	133	1
71	72	2
15	15	3
78	117	3
77	95	1
22	25	1
74	76	1
25	26	2
110	112	2
59	61	4
67	68	2
40	44	1
29	29	4
105	113	3
9	10	4
101	102	3
19	20	1
35	35	3
27	29	1
134	134	5
59	85	3
18	44	4
8	28	1
94	96	2
39	49	1
83	84	3
19	24	3
31	48	1
102	131	2
107	109	2
5	6	1
36	55	1
113	114	2
105	106	3
106	106	2
15	32	1
72	73	1
129	131	1
86	90	5
62	63	2
15	31	2
129	134	1
83	118	1
81	103	1
96	97	3
111	112	1
73	73	4
108	109	1
79	83	2
110	110	5
84	84	4
78	101	2
13	13	2
0	0	1
12	13	1
83	104	1
24	24	3
55	55	1
122	133	1
90	92	1
58	85	1
115	116	1
109	110	1
39	40	1
80	81	1
6	6	3
4	5	3
130	133	1
94	95	2
100	100	1
68	71	2
125	126	1
18	19	2
48	55	1
18	46	1
85	86	2
2	3	1
81	82	1
81	81	2
90	90	1
103	103	2
122	123	1
7	8	2
12	32	1
59	87	1
44	48	1
65	66	1
60	61	1
67	67	1
101	101	1
51	54	1
35	56	1
8	9	2
29	32	1
59	60	1
129	133	1
59	86	1
79	79	1
34	34	1
22	22	1
114	116	1
69	72	1
56	57	1
118	119	1
60	87	1
48	48	2
