100	100	10
42	43	3
19	20	7
124	124	4
123	123	7
35	35	6
113	119	2
106	106	11
45	45	13
90	90	5
103	103	10
4	37	3
31	33	4
59	59	14
44	44	8
119	119	6
38	38	8
69	70	1
76	80	1
119	120	6
75	75	8
16	16	7
80	80	5
122	123	2
22	23	4
84	86	7
89	90	4
5	5	4
7	7	12
86	88	3
33	34	4
96	96	7
114	114	13
99	100	3
12	12	16
23	23	4
98	98	7
125	125	1
8	14	4
118	131	4
6	7	2
99	99	7
57	57	7
95	95	7
28	30	5
0	0	4
111	111	7
82	126	3
1	1	7
14	14	5
19	19	12
71	71	4
86	120	4
56	56	15
34	34	9
20	23	1
101	101	7
120	120	3
90	91	3
18	22	1
94	94	7
131	133	2
112	112	11
30	30	11
84	84	3
119	132	3
77	77	2
62	62	11
64	64	23
22	35	3
11	16	7
2	4	3
65	65	10
97	97	5
106	107	1
104	104	11
128	128	7
75	79	5
72	72	9
50	50	5
83	119	1
9	9	7
67	67	9
112	113	5
74	80	5
22	22	1
105	105	14
32	32	7
121	122	1
24	24	2
28	28	1
6	6	15
66	66	6
33	33	4
127	128	5
63	63	8
76	76	6
70	70	9
27	33	2
19	27	1
131	131	2
63	65	3
44	49	1
10	10	6
91	93	5
53	53	1
52	57	2
81	81	4
19	23	3
103	104	2
108	109	5
43	43	3
88	99	3
47	51	1
121	121	6
91	91	10
17	17	6
117	117	2
22	24	3
90	97	3
27	27	7
13	13	5
81	105	5
102	102	7
8	8	2
107	123	5
60	61	1
36	36	6
132	132	7
25	27	1
112	132	4
3	35	4
88	88	4
83	117	3
100	110	3
79	79	1
127	127	1
113	113	5
6	15	3
116	118	1
11	11	5
71	72	6
134	135	2
18	18	9
118	118	2
80	101	2
21	21	4
93	93	2
43	50	2
25	25	5
5	45	2
93	94	7
92	92	7
133	133	2
87	87	5
135	135	1
0	50	2
27	28	5
82	82	2
60	60	2
126	126	8
109	109	5
132	133	3
13	14	2
115	118	2
52	52	2
87	119	5
110	110	6
37	37	1
77	78	6
61	69	3
20	25	2
73	73	9
58	77	1
105	123	1
109	110	1
88	111	4
28	29	1
116	116	2
55	55	7
91	92	4
89	89	3
19	21	1
17	18	4
82	117	2
129	129	1
68	68	1
36	37	1
103	126	2
128	134	3
116	131	1
6	12	6
32	33	5
31	31	8
69	69	4
86	113	2
29	29	9
3	38	2
114	115	5
88	124	2
5	49	2
34	61	2
73	74	2
54	55	5
13	15	2
56	58	2
23	24	4
81	82	1
78	78	3
130	130	5
12	13	1
104	105	1
16	17	6
103	105	1
11	23	2
124	125	3
94	95	1
59	76	1
130	133	2
59	77	3
88	107	1
25	33	2
107	110	1
72	73	2
123	124	1
130	131	1
60	68	2
84	85	2
14	15	1
26	30	1
54	57	1
74	74	2
73	80	1
46	77	2
10	14	2
68	69	1
105	111	2
116	117	1
51	51	1
89	96	2
82	83	3
85	85	3
85	86	3
107	107	2
121	123	3
64	67	1
88	103	1
83	120	1
23	46	1
115	115	2
107	108	1
111	122	1
20	21	1
61	61	5
111	126	1
55	121	1
11	12	1
79	80	1
20	26	1
11	14	1
91	98	1
83	84	2
60	77	1
85	87	1
18	21	1
95	96	1
126	127	1
57	124	1
25	26	1
2	3	2
20	20	3
131	132	1
118	120	1
33	61	1
105	118	1
111	125	2
118	129	1
49	50	1
110	111	1
76	79	1
62	64	1
