14	14	1
118	118	3
8	8	10
76	76	7
81	82	10
10	11	2
92	92	6
38	99	5
34	34	9
131	131	3
105	105	5
125	125	5
128	128	6
84	91	8
137	137	4
36	36	8
89	90	2
97	97	1
123	123	14
122	122	3
138	138	4
9	10	2
130	130	12
99	99	7
93	105	1
81	81	8
73	74	4
28	28	7
3	3	2
28	89	3
79	79	7
120	120	2
127	129	2
23	24	3
16	17	3
29	29	6
4	4	8
92	94	2
113	113	3
31	31	1
6	7	4
112	112	4
129	129	10
23	26	2
74	74	4
17	17	4
21	22	3
37	37	2
72	72	6
87	90	3
86	86	5
73	73	9
23	23	2
5	5	6
128	129	3
107	107	3
94	94	5
26	26	6
134	134	7
101	107	3
72	73	2
28	83	2
90	91	1
124	124	4
28	29	3
21	21	5
95	95	6
35	35	3
137	138	2
75	75	13
37	72	4
27	123	1
109	109	16
119	120	2
13	14	3
121	122	1
0	0	6
135	135	1
139	139	9
98	98	10
93	110	3
25	25	3
101	101	1
102	102	2
26	90	3
36	37	3
32	32	8
2	2	6
114	115	1
19	20	1
2	3	1
33	33	1
29	84	3
110	111	2
7	7	5
99	100	1
109	112	3
11	11	2
22	22	7
0	1	2
72	79	3
18	18	4
27	27	4
114	114	1
96	96	9
28	90	3
101	103	4
124	125	3
31	32	7
84	84	1
73	79	2
127	127	2
83	83	6
77	109	1
19	19	6
110	110	5
30	31	2
100	100	2
22	23	2
116	116	3
8	9	5
103	105	4
4	5	1
133	133	3
120	122	1
108	109	1
119	119	3
35	36	2
119	121	2
83	85	2
38	38	5
116	117	1
72	126	1
132	132	3
136	136	5
129	130	3
100	101	1
95	96	1
78	94	3
81	105	1
106	106	1
71	72	1
30	30	1
71	71	1
111	112	2
100	107	1
80	80	2
18	19	1
83	84	1
80	128	1
117	117	2
15	15	3
136	138	2
107	109	2
38	73	1
90	121	1
93	113	2
72	78	1
32	33	2
13	15	1
10	17	1
92	111	2
96	97	2
19	22	2
127	128	1
3	4	1
74	75	1
98	134	1
20	20	1
1	1	1
88	88	1
16	16	1
84	85	1
133	134	1
28	84	1
93	93	2
75	76	1
26	27	1
108	108	1
71	80	1
14	15	1
6	6	1
113	114	1
79	91	1
117	124	1
20	21	1
