26	26	5
20	20	4
65	70	1
74	75	6
52	52	13
87	87	12
96	96	5
53	53	18
81	81	22
25	25	16
73	73	17
50	73	1
57	57	17
65	65	18
45	45	13
23	23	18
21	21	19
105	105	20
36	37	9
24	25	1
36	36	20
51	74	3
99	99	10
66	66	11
102	102	40
66	67	3
73	104	1
95	95	10
51	51	16
65	101	3
60	61	3
92	92	25
43	45	2
33	34	6
35	35	25
72	73	5
75	75	6
64	65	4
66	76	1
26	37	2
93	94	2
37	49	5
47	48	8
62	62	21
60	76	7
54	96	4
67	67	9
54	54	17
56	56	19
71	72	4
94	94	9
83	83	11
40	40	4
39	39	8
31	31	20
24	24	13
78	78	15
47	47	5
93	93	5
76	76	18
28	28	7
46	46	10
77	78	5
84	87	1
25	28	4
99	100	2
64	64	24
79	79	16
90	90	10
86	87	2
32	32	8
22	22	11
37	38	12
96	101	4
46	48	4
33	33	13
91	91	19
65	68	1
27	28	6
33	44	2
46	47	6
52	53	3
55	55	21
34	34	20
77	79	3
68	68	7
68	95	3
101	101	18
25	26	1
55	57	3
50	50	5
84	84	12
58	58	11
27	27	8
96	107	2
26	96	2
41	77	4
79	106	2
53	54	8
65	66	3
40	70	4
87	88	3
103	103	15
29	29	5
72	72	10
60	78	1
36	70	2
90	91	1
76	77	5
56	57	7
62	63	3
88	88	10
88	89	2
37	37	4
70	70	5
44	44	3
44	45	2
100	101	1
82	82	12
55	56	11
40	43	3
65	93	2
42	42	6
82	83	2
86	86	7
63	63	12
67	69	2
100	102	1
38	38	14
83	86	3
31	50	3
93	101	2
92	93	6
48	49	1
74	92	1
84	85	10
73	105	6
20	22	3
60	60	15
42	46	3
55	106	3
99	106	5
36	51	1
43	44	6
89	91	2
65	67	2
106	106	8
56	63	1
20	21	2
23	31	6
41	42	3
61	90	1
97	97	7
61	61	1
54	68	4
42	45	1
70	71	2
38	46	2
41	41	13
48	81	4
29	52	2
92	100	4
61	62	2
89	90	3
74	74	7
77	77	8
26	27	4
71	71	4
85	85	5
48	48	8
49	50	1
100	100	14
42	43	3
34	42	4
32	34	1
58	59	9
91	92	2
62	90	1
35	81	2
87	97	1
40	41	4
50	51	2
73	74	4
41	66	1
97	99	2
98	99	2
80	80	5
89	89	6
35	59	2
44	87	3
49	49	5
69	69	8
57	69	3
71	104	1
59	59	3
50	99	1
96	104	2
30	30	6
83	87	4
78	79	2
29	51	2
98	98	3
78	89	1
88	90	1
23	34	2
51	52	2
45	49	4
82	87	2
40	72	1
39	42	4
38	45	2
97	98	2
24	74	1
82	86	2
49	99	1
54	69	4
53	97	2
52	100	2
47	78	2
75	90	1
41	51	4
33	51	1
55	104	2
79	81	1
77	91	1
63	64	2
85	89	1
27	36	1
45	80	2
84	86	1
26	47	2
31	34	1
73	78	3
53	55	1
66	70	3
29	30	3
34	43	1
84	89	3
63	66	1
68	69	1
73	99	2
36	39	1
21	23	1
43	43	3
58	60	1
32	33	1
80	81	1
50	52	2
96	97	1
87	98	2
29	31	2
54	55	1
51	54	1
64	70	1
59	61	1
81	84	2
102	103	3
38	73	1
65	102	1
67	68	1
53	105	1
42	70	1
48	79	1
92	95	1
105	106	1
74	78	1
83	84	1
69	103	1
31	32	1
28	45	1
96	106	2
77	80	1
76	100	1
44	83	1
68	76	1
37	39	1
95	100	1
23	24	1
51	93	1
37	46	1
37	50	2
59	77	1
38	48	1
29	79	1
22	23	1
50	74	1
25	27	1
62	88	1
64	71	1
62	80	1
72	104	1
49	80	1
