114	175	4
117	117	3
12	107	2
122	145	2
81	81	7
131	190	4
96	97	3
57	57	2
115	128	2
62	62	3
156	156	6
19	21	2
174	174	5
25	80	2
165	166	3
161	161	2
69	69	7
76	76	8
100	131	1
128	197	1
102	104	2
76	78	8
30	76	3
172	172	7
22	22	6
179	179	5
43	88	2
71	72	8
15	15	5
105	122	3
144	145	1
116	118	6
33	33	7
0	0	2
60	62	2
181	181	7
142	142	4
84	85	2
80	80	9
82	82	2
119	120	1
124	124	7
146	146	14
21	21	5
59	60	1
65	65	8
50	62	1
176	177	3
147	147	2
62	63	1
75	75	3
120	143	4
60	60	13
178	179	5
146	147	3
37	38	1
173	174	4
53	54	5
77	77	11
9	35	4
102	102	1
146	148	4
145	164	2
103	105	3
193	193	2
10	81	1
112	113	2
6	189	1
196	196	3
149	150	2
138	138	1
122	122	9
182	182	6
1	31	1
119	119	6
99	99	1
2	3	1
78	78	6
55	55	4
78	79	4
117	118	1
67	67	2
45	45	6
133	133	2
13	130	2
149	149	4
109	182	2
39	40	1
0	1	4
28	28	2
184	184	2
21	22	1
34	34	5
16	16	8
118	118	1
35	65	2
9	9	3
19	19	6
114	128	1
147	149	3
36	36	4
87	87	2
155	155	2
102	128	7
17	18	1
32	54	2
68	68	1
195	195	3
93	97	4
46	169	2
35	35	3
51	51	9
78	84	3
40	41	1
148	148	3
122	143	2
28	137	3
117	119	4
180	180	3
160	162	2
120	120	2
28	29	3
24	44	1
61	61	3
96	98	4
23	149	2
79	90	4
152	152	8
52	52	2
115	115	6
1	1	4
152	165	3
187	187	2
95	95	5
160	160	3
141	141	4
107	107	5
82	84	2
0	82	5
189	189	7
153	154	4
40	45	1
30	30	9
197	197	4
176	176	3
10	12	1
26	26	4
177	177	2
168	169	2
171	171	4
72	79	2
166	166	2
7	7	2
108	108	6
137	137	2
49	49	12
154	160	5
7	77	4
0	83	2
73	73	3
130	190	1
85	85	3
58	58	7
161	165	2
120	147	2
30	80	1
107	145	5
41	41	6
47	47	5
69	88	2
36	61	2
30	31	5
186	186	2
55	60	1
37	37	1
139	139	7
173	173	3
151	155	1
31	76	4
168	168	7
161	176	1
24	24	5
33	63	2
103	103	2
32	65	1
33	37	2
128	128	8
67	78	2
136	136	1
50	51	2
6	25	2
43	43	4
11	11	2
14	21	1
144	144	1
152	160	1
40	40	4
130	130	2
44	44	1
158	180	2
132	191	2
13	13	3
31	193	1
125	125	3
20	35	7
131	131	2
111	111	6
39	43	2
6	132	1
97	133	1
72	73	6
139	143	2
74	75	1
112	112	3
105	105	3
29	192	1
183	183	3
114	115	4
12	106	2
70	72	1
113	116	1
46	46	3
53	57	1
196	197	1
66	67	4
132	132	1
79	79	4
15	129	1
50	50	6
187	193	3
110	110	3
70	70	2
157	181	1
103	106	1
105	173	2
192	192	6
74	74	1
115	116	1
5	8	1
42	42	4
116	164	1
84	84	3
89	89	5
134	134	2
165	165	2
106	106	4
116	116	4
126	196	2
117	162	1
27	28	3
127	158	1
66	66	3
181	182	3
6	49	2
6	131	2
97	102	4
104	105	2
5	5	2
114	114	5
24	25	1
117	182	2
169	169	1
58	63	4
83	83	1
97	118	3
163	163	1
40	150	1
97	97	2
191	192	2
151	151	2
100	101	2
48	48	2
18	19	4
172	183	3
167	167	4
126	126	3
99	130	1
71	71	3
123	123	9
129	192	1
121	124	2
32	33	1
86	86	1
194	195	2
6	36	1
22	36	2
129	193	1
187	194	1
2	81	2
0	2	1
42	169	4
101	101	1
114	124	1
129	130	1
121	122	3
76	77	1
88	89	3
185	185	2
181	185	1
99	139	1
171	172	1
87	89	1
43	44	2
153	153	1
35	98	1
4	87	1
157	157	3
31	48	1
83	85	2
105	106	2
100	100	1
39	39	3
135	136	2
194	194	1
32	197	2
23	81	1
3	3	1
154	154	3
140	140	1
64	64	1
137	138	1
2	34	1
115	150	1
40	152	1
143	144	3
17	138	2
38	186	2
82	83	1
81	82	2
131	132	2
56	56	2
24	135	1
39	45	1
157	174	1
12	13	1
180	181	1
64	65	1
90	90	1
98	98	1
127	127	1
43	155	1
77	78	1
192	194	2
94	94	1
13	194	1
17	17	1
32	32	2
47	55	2
138	139	2
29	29	3
188	192	1
70	88	1
160	161	1
72	78	1
117	142	1
47	48	2
130	171	1
95	111	1
112	168	1
109	109	1
4	4	1
20	20	3
159	189	1
170	174	1
48	76	1
132	133	1
2	38	1
63	64	1
170	171	1
181	186	1
148	171	1
151	178	1
1	192	1
66	75	1
1	82	1
38	39	1
56	57	1
12	85	1
