124	124	8
62	62	4
42	42	9
83	83	5
67	83	1
56	65	2
75	76	2
132	133	6
51	52	4
160	160	12
57	66	2
78	78	5
71	78	2
110	110	1
174	174	3
139	169	3
116	117	2
36	36	13
117	117	5
71	76	3
172	172	2
96	96	6
6	6	9
120	129	2
112	112	1
112	113	9
129	130	5
64	64	5
146	146	4
132	132	11
106	108	2
89	89	2
155	155	8
171	171	2
169	171	2
91	91	2
169	169	4
143	143	7
58	58	5
59	59	1
73	73	7
35	35	9
167	167	5
74	74	4
40	40	3
113	113	2
162	162	2
8	12	3
8	9	4
72	72	1
140	141	1
115	116	5
164	164	3
2	2	5
54	54	3
137	138	1
95	95	6
73	74	2
108	109	1
98	99	2
90	105	3
96	145	1
170	170	11
121	121	7
28	29	3
176	176	3
7	7	3
111	111	9
153	153	3
155	156	2
34	34	7
17	20	5
50	50	3
55	55	6
128	129	4
117	122	7
93	93	5
43	120	1
66	66	10
106	107	5
178	178	2
39	40	1
177	177	4
15	16	6
163	163	12
3	4	3
122	122	4
6	8	5
144	144	8
147	147	2
116	116	5
41	119	5
103	134	1
33	33	6
64	65	4
105	107	2
157	157	5
109	110	1
125	125	5
126	126	6
81	81	3
106	106	7
44	44	3
115	115	6
10	10	3
18	19	2
86	92	2
0	0	13
43	43	6
64	66	6
148	148	2
74	76	1
130	130	7
114	114	5
6	43	2
77	77	5
84	84	1
53	53	7
92	92	1
35	36	4
28	28	6
71	72	1
63	65	1
161	161	3
135	135	4
154	154	3
103	103	5
77	79	2
168	174	2
91	92	4
95	96	1
122	125	5
60	60	4
158	159	2
104	106	1
88	88	3
26	26	5
127	127	4
154	157	1
119	119	2
168	168	6
140	140	4
36	38	1
128	128	5
133	134	1
67	67	1
27	27	5
104	105	1
106	136	4
71	71	6
134	134	5
23	24	3
37	38	1
41	115	2
173	173	2
139	161	1
49	50	5
15	17	2
100	103	2
44	45	2
104	129	3
38	38	1
100	160	3
101	101	3
89	90	1
123	124	3
164	166	4
86	91	2
51	51	2
12	12	2
157	158	2
57	57	5
16	16	3
5	5	4
17	18	3
49	49	6
24	25	2
134	135	3
102	103	1
133	133	3
84	85	5
35	40	2
99	100	2
166	166	3
81	83	1
174	175	2
141	141	8
90	90	3
124	125	1
3	26	2
104	104	1
179	179	2
136	136	1
9	12	2
23	23	1
3	3	4
87	87	5
31	31	6
94	94	2
49	51	2
75	75	2
11	11	3
114	118	1
29	31	2
155	157	1
88	89	2
3	49	1
156	161	3
55	56	1
166	167	1
8	8	7
151	153	3
123	123	1
70	72	3
80	80	1
96	150	1
24	24	2
52	55	4
6	12	1
118	119	1
5	8	1
53	54	2
30	30	6
138	138	2
65	65	1
145	145	2
19	19	3
103	104	2
156	156	4
9	10	2
130	131	2
21	21	1
165	165	4
12	33	2
152	152	6
37	37	7
25	25	5
180	180	1
149	149	1
6	44	1
145	146	2
86	86	1
167	169	2
121	122	2
4	4	1
61	62	2
131	131	1
96	151	2
159	159	3
79	79	5
83	84	1
120	120	2
85	93	1
97	97	4
151	151	1
65	66	2
27	28	1
63	64	1
13	13	2
111	112	1
167	168	1
87	88	1
172	173	4
168	171	2
142	143	3
105	105	2
158	180	1
26	27	1
158	158	1
99	99	1
171	173	1
99	103	1
36	40	1
154	155	2
80	81	2
177	178	2
137	137	2
94	148	1
56	56	1
110	133	1
58	59	1
171	176	2
57	58	2
100	100	5
6	45	1
29	29	2
96	97	1
102	180	1
123	125	2
85	85	2
147	148	2
170	172	1
97	151	1
98	104	1
30	31	2
97	129	1
62	63	1
169	170	1
110	111	1
56	57	1
127	128	1
0	1	1
94	95	1
54	55	1
45	127	1
32	41	1
129	129	1
154	170	1
100	157	1
