97	99	1
122	122	5
187	187	3
72	140	5
171	173	2
95	95	4
72	193	2
161	161	4
43	44	2
144	197	5
107	107	3
146	146	3
0	41	4
69	71	3
108	108	8
126	126	2
133	133	5
193	193	6
112	114	1
175	175	11
150	150	6
113	113	11
179	180	3
1	1	3
13	13	5
124	124	6
70	78	3
112	155	6
86	86	3
31	31	7
133	134	1
22	24	2
176	177	4
154	154	3
59	60	2
170	170	2
117	117	3
155	156	1
49	50	1
185	185	7
142	142	5
157	157	9
25	25	4
58	61	4
70	70	4
192	193	1
184	184	4
156	156	2
154	155	3
140	140	1
112	113	2
51	51	1
142	197	1
0	0	2
192	192	5
165	166	4
173	191	3
2	2	2
9	38	4
179	188	2
134	134	7
155	167	1
40	41	1
64	70	2
171	172	1
48	50	2
75	75	1
82	82	2
66	136	2
42	42	6
159	159	5
18	18	2
56	57	2
151	151	16
154	167	3
79	79	3
47	47	4
5	5	3
153	153	3
36	36	3
8	8	1
116	116	8
40	40	5
144	144	1
124	125	2
10	11	1
74	74	5
111	112	2
102	102	1
183	183	1
30	30	2
44	45	3
155	163	2
148	166	2
28	29	2
135	135	2
59	59	1
9	9	3
83	83	2
63	63	6
42	57	5
19	26	1
54	55	2
15	55	2
149	149	4
87	95	2
20	20	2
88	88	6
17	17	2
61	62	1
142	143	1
68	68	3
66	66	2
57	57	1
176	176	5
127	127	3
54	54	1
89	89	3
123	130	3
16	27	1
128	128	4
104	104	6
162	162	3
190	191	4
173	173	7
132	133	1
65	65	2
26	26	6
158	158	2
2	39	1
163	164	1
39	39	8
22	22	4
22	23	3
111	117	1
4	4	9
113	115	2
146	150	2
146	151	1
139	139	2
67	67	1
143	143	3
84	84	2
119	119	1
34	34	2
94	95	4
51	52	1
57	58	3
85	85	1
169	169	2
114	161	2
129	129	2
157	158	5
27	27	3
96	97	2
53	53	2
84	138	4
104	110	1
104	117	3
11	11	2
15	15	4
194	194	6
196	196	3
73	76	1
59	61	1
105	105	2
43	43	3
106	106	1
90	90	1
169	171	5
96	96	2
109	109	3
146	147	3
103	117	4
194	195	2
186	186	3
37	56	1
165	165	1
120	120	5
177	188	2
145	145	4
10	10	6
14	15	1
52	180	3
185	187	1
24	25	3
8	36	1
49	49	4
188	188	2
141	141	1
81	89	1
94	94	1
76	76	1
120	123	1
103	104	1
121	122	2
181	181	2
0	38	1
16	17	4
168	168	1
24	24	4
64	64	1
169	173	1
77	79	3
64	65	1
32	70	1
21	65	1
152	152	1
18	37	3
170	171	3
112	150	2
108	109	2
142	196	2
13	14	3
184	185	1
99	99	1
114	115	1
70	71	1
102	103	2
164	164	2
38	39	3
23	23	2
168	188	1
34	35	1
1	41	2
81	82	2
72	72	4
45	45	2
150	151	1
46	46	1
144	149	6
37	38	1
9	37	1
191	191	1
137	137	1
155	159	1
179	179	1
177	177	2
185	186	1
60	60	2
69	69	3
29	32	1
14	14	4
172	172	1
28	28	1
38	38	1
71	136	2
162	164	1
38	56	1
5	39	1
62	62	2
126	127	1
153	154	1
77	77	1
189	189	2
112	117	1
123	123	1
29	30	1
81	81	1
31	69	1
195	195	1
52	196	1
138	139	1
135	137	1
20	34	1
44	44	2
178	178	1
52	52	1
65	78	1
109	131	1
16	16	1
120	122	1
93	94	1
148	148	1
144	145	1
80	80	1
84	85	1
85	145	1
113	160	1
175	176	1
149	155	1
134	135	1
103	103	1
4	56	1
6	36	1
68	135	1
