40	40	11
69	70	3
73	73	21
47	47	7
80	81	5
67	68	5
40	86	2
90	90	17
70	73	4
80	80	22
67	67	18
83	83	11
46	46	12
98	98	7
43	43	13
60	60	19
64	64	18
63	64	9
53	54	1
68	70	4
63	63	18
69	69	30
85	85	17
28	28	8
68	68	25
65	66	7
40	41	5
101	101	5
49	49	8
52	52	18
57	75	3
75	75	19
25	25	13
62	62	14
86	86	12
28	50	3
35	51	2
45	52	4
83	84	6
94	94	6
95	95	8
45	49	2
54	54	11
66	66	18
71	71	21
39	40	2
73	75	1
48	64	2
79	81	3
65	65	27
55	55	8
82	82	8
61	61	13
42	77	3
73	74	6
86	87	1
57	57	20
37	38	2
79	79	21
49	50	8
44	44	12
72	72	18
84	84	18
38	38	9
29	29	8
58	58	12
81	81	8
36	36	11
60	62	2
76	76	12
65	69	2
66	67	4
74	74	20
90	91	6
59	59	6
45	101	2
76	77	6
96	96	15
26	26	8
75	76	4
61	62	7
22	22	2
88	88	14
34	35	3
80	83	2
27	54	1
94	97	2
71	72	6
88	89	1
78	78	14
45	46	2
92	101	2
89	89	15
88	94	2
87	87	8
27	27	2
62	66	1
92	97	2
60	61	6
65	85	1
41	41	11
91	92	4
77	77	20
48	48	4
42	42	8
67	77	2
51	51	4
100	100	3
66	78	2
84	86	4
39	39	8
92	92	3
50	51	1
49	92	1
68	69	4
56	61	4
45	45	4
56	56	2
46	47	2
70	71	5
99	99	5
62	63	4
42	46	1
81	83	1
80	84	1
87	88	4
37	78	2
34	46	1
32	32	3
31	31	14
51	63	3
70	70	7
37	37	6
84	92	1
48	58	2
33	33	6
92	93	1
72	77	1
46	66	1
25	26	2
98	99	1
50	50	6
88	92	2
36	37	3
78	85	3
32	53	4
57	72	1
33	47	4
55	60	1
66	77	2
22	31	1
47	54	1
28	29	1
93	93	1
36	38	1
74	75	4
79	84	2
70	74	1
46	54	3
56	79	1
81	82	7
76	78	1
47	49	1
95	97	2
73	83	1
34	34	5
59	67	1
85	89	2
31	99	1
51	52	1
52	56	1
42	43	1
47	80	1
55	56	1
53	98	2
86	89	4
53	53	2
91	91	8
31	32	1
39	62	4
99	100	2
60	77	1
22	29	1
78	100	1
57	58	2
85	98	1
47	48	2
78	79	1
74	76	2
45	100	1
86	91	3
27	28	1
82	87	1
34	39	2
47	95	1
51	53	1
59	66	2
97	100	3
101	102	1
97	97	3
62	67	2
21	22	2
33	92	2
73	76	1
23	24	1
85	86	3
63	79	2
80	86	1
27	29	2
71	73	1
59	64	5
69	74	1
26	27	1
36	101	1
77	79	1
24	24	3
63	65	1
20	20	1
72	73	3
47	81	1
35	35	1
35	36	1
83	89	1
46	98	1
76	89	2
32	39	1
31	43	1
69	71	1
24	26	1
44	84	1
36	61	1
24	38	1
46	101	1
41	42	1
75	77	1
93	100	1
48	96	1
94	99	1
33	35	1
71	78	1
53	55	1
88	97	1
45	98	1
44	46	1
81	84	2
58	59	1
