9	132	1
62	65	1
49	50	7
110	110	6
92	92	4
26	26	4
5	14	3
80	130	2
76	76	2
106	120	3
28	28	5
19	19	6
5	5	4
67	82	3
140	140	4
9	9	3
122	123	4
131	131	9
55	56	1
97	100	2
125	129	4
63	63	2
95	128	1
83	83	4
52	125	2
109	109	4
18	18	6
133	133	4
83	84	2
52	71	1
62	62	7
51	132	2
124	124	4
37	37	1
26	32	3
144	146	1
13	14	3
53	110	1
53	53	3
114	136	3
96	96	8
8	30	3
61	61	2
16	18	2
36	36	2
117	135	1
85	85	4
56	56	7
40	40	5
3	4	1
134	134	2
87	100	1
23	23	4
106	110	6
79	80	2
66	84	2
54	54	4
34	34	2
1	1	2
86	86	9
10	10	3
128	128	3
66	67	4
71	128	2
39	59	1
97	97	6
17	17	7
60	74	2
62	63	3
137	137	3
79	82	2
67	68	1
23	25	3
24	25	7
51	114	4
84	87	3
136	136	4
20	31	2
15	16	4
65	65	1
71	72	2
20	20	2
105	105	1
4	50	1
16	93	2
17	91	1
39	39	2
77	77	8
33	33	3
3	3	7
43	43	2
18	19	4
125	125	1
10	129	1
53	70	1
71	71	5
1	2	2
9	21	2
88	96	2
64	64	1
98	98	13
32	32	3
108	109	1
68	68	3
145	145	4
89	90	2
50	53	1
107	107	4
100	100	3
136	138	3
75	75	9
58	59	1
104	106	2
135	136	1
76	96	2
117	126	1
78	78	4
80	81	2
129	130	4
60	61	1
108	108	1
106	106	3
67	74	1
10	128	3
25	26	1
91	91	1
118	125	2
75	79	1
95	95	3
87	90	1
146	146	5
79	79	2
84	85	8
4	36	2
30	43	1
127	129	1
76	77	1
59	59	2
127	127	3
74	80	3
116	117	1
109	127	1
101	101	3
114	115	2
90	105	2
8	8	2
48	59	1
8	22	6
100	121	1
9	136	5
53	127	3
110	111	1
119	119	2
25	25	4
39	40	1
115	118	1
67	67	3
99	99	1
42	42	5
58	58	1
13	13	1
90	90	3
99	109	1
75	123	1
87	88	1
27	105	1
41	41	2
99	108	2
139	140	2
112	112	3
138	138	1
132	132	1
82	83	2
16	91	2
115	115	2
22	27	2
52	129	1
52	68	1
57	57	1
93	94	1
112	118	2
104	104	2
89	89	2
33	34	2
80	80	2
60	60	1
21	31	1
117	119	1
72	72	3
24	26	1
31	31	2
83	120	3
113	114	1
65	66	2
123	123	3
104	108	1
71	82	2
47	47	2
144	144	1
47	48	1
11	11	1
98	99	1
55	55	1
22	22	3
4	29	1
82	128	1
84	135	1
109	130	1
133	135	1
83	85	1
97	98	1
112	119	1
59	127	1
15	15	1
14	14	2
40	66	1
127	130	1
94	126	1
35	35	1
136	137	1
117	118	1
114	116	1
93	93	1
81	81	1
52	52	1
73	75	1
66	132	1
128	130	1
50	51	1
