50	51	5
26	116	6
34	35	3
119	120	7
2	143	2
89	104	8
20	20	2
129	129	5
36	37	2
13	13	2
119	119	11
45	46	3
126	126	3
24	24	5
111	111	4
85	86	3
7	8	3
146	146	4
11	139	2
8	8	8
85	128	2
39	40	1
115	115	3
18	18	11
47	47	6
44	44	2
103	103	5
9	9	7
136	137	3
6	6	6
27	27	2
29	29	4
147	148	5
98	98	2
7	29	2
26	26	2
135	135	6
81	82	2
54	54	3
53	53	6
134	134	3
42	42	8
118	119	3
86	107	2
138	138	12
68	116	1
95	99	1
121	121	2
11	46	3
112	112	8
24	26	2
41	41	2
129	154	4
116	117	3
7	34	2
136	136	3
5	5	12
101	126	4
49	49	1
137	137	4
19	19	3
35	35	1
74	75	2
152	153	2
121	139	4
93	93	1
100	106	2
17	17	3
76	76	3
79	82	1
71	71	9
122	122	2
40	46	1
4	34	1
32	32	4
125	125	1
92	103	2
102	102	6
49	51	2
36	36	2
25	25	5
78	144	2
71	149	2
85	85	2
20	54	3
63	63	2
31	50	2
137	138	2
151	151	2
139	139	3
70	70	5
92	104	1
142	149	8
85	119	10
40	40	1
34	34	5
147	147	4
47	48	2
102	105	6
64	65	1
65	65	2
27	28	5
98	140	1
63	64	5
150	150	4
92	93	2
133	133	5
95	96	2
7	9	4
131	131	3
4	4	1
4	5	1
29	139	2
140	140	3
56	57	2
20	48	5
107	107	9
69	69	5
108	108	2
12	12	5
68	115	4
55	57	2
105	106	2
82	82	3
3	50	3
121	144	1
72	120	1
80	80	4
43	43	7
79	127	6
98	101	2
133	136	1
123	123	1
123	125	2
31	32	3
10	10	1
30	31	2
143	144	2
13	15	1
66	66	4
20	21	2
96	96	2
109	132	1
75	76	2
121	122	1
152	152	2
95	95	3
109	111	2
124	125	1
15	15	1
100	100	1
39	39	3
3	3	3
118	118	1
123	127	2
94	95	1
104	104	1
128	128	1
142	142	2
70	144	1
119	128	2
51	51	2
106	107	1
48	48	3
33	140	1
108	110	2
61	121	2
57	57	2
63	65	2
77	77	1
102	124	1
92	94	1
110	110	1
66	117	1
154	154	1
10	11	1
15	16	1
50	50	1
106	106	1
73	73	1
14	14	2
17	40	1
69	116	1
62	77	1
100	124	1
67	67	1
19	48	1
109	110	1
146	148	1
46	46	1
11	13	1
39	56	1
113	113	1
