117	117	13
93	93	11
27	27	5
53	53	3
78	78	6
35	36	6
157	157	16
66	66	4
38	43	3
154	154	10
24	24	7
134	134	12
33	56	1
73	100	3
65	100	1
149	149	2
106	106	21
52	52	5
85	86	2
84	84	10
24	97	3
156	158	5
14	14	9
49	49	4
6	6	11
0	0	6
43	124	2
124	124	10
133	133	8
87	87	7
16	103	1
13	21	1
7	7	2
12	12	10
125	125	10
20	20	10
137	137	13
70	70	16
95	96	3
93	95	2
16	17	4
67	67	15
137	144	3
17	18	7
1	1	7
152	152	5
106	107	6
132	133	4
85	85	7
116	116	8
142	155	3
10	19	4
80	80	4
111	112	10
71	71	10
92	92	9
73	75	2
48	49	2
75	75	7
146	146	5
89	89	12
25	25	15
105	105	8
122	122	8
146	147	5
8	9	2
101	101	14
39	40	1
68	68	8
118	119	4
10	17	1
90	91	15
92	127	2
50	50	12
147	147	10
65	65	4
14	15	5
139	139	7
112	112	17
84	85	2
158	158	11
68	86	2
138	138	10
32	111	2
30	30	7
104	104	7
112	125	1
92	95	1
55	55	13
123	123	8
135	138	2
132	157	3
87	91	1
19	20	2
81	82	3
11	13	5
23	23	8
3	46	1
40	40	5
79	83	4
73	73	4
113	113	6
129	129	10
111	111	5
82	116	3
131	134	1
10	11	2
26	26	9
142	149	1
36	36	4
7	8	3
48	50	3
50	81	3
121	147	2
148	148	5
139	140	5
96	96	11
23	24	8
105	115	1
47	51	1
18	18	4
46	54	3
28	28	10
151	152	2
79	79	3
113	114	3
39	39	10
102	102	13
69	69	5
10	10	7
62	62	5
43	43	5
131	132	10
98	98	8
79	80	4
130	130	8
94	97	2
44	46	3
50	51	1
68	93	3
98	101	1
129	130	4
57	57	1
3	3	4
34	34	3
86	86	3
123	152	1
11	11	7
70	71	9
27	29	1
124	125	5
144	147	4
131	131	2
10	13	3
135	135	8
87	88	1
91	91	17
151	151	7
44	44	12
82	82	9
21	21	17
5	5	10
14	33	3
78	79	3
81	81	6
122	123	1
13	13	9
66	158	1
6	42	1
141	141	5
47	48	2
19	22	2
136	142	3
120	120	6
144	144	2
99	100	4
137	138	5
2	3	5
64	68	1
121	121	1
40	41	4
121	122	2
109	112	3
51	51	7
126	126	10
4	8	3
19	43	2
17	17	2
104	105	2
133	134	2
15	15	9
126	151	3
95	95	11
86	87	3
125	144	1
8	8	3
100	100	12
31	32	1
56	62	2
155	155	1
104	106	3
11	25	1
64	64	4
52	53	1
47	47	4
78	81	2
127	127	15
38	38	5
105	106	4
32	33	2
68	71	2
99	99	3
111	126	1
150	150	6
131	137	2
104	110	2
97	97	7
81	127	2
136	136	10
35	39	3
136	149	7
35	35	5
134	154	1
22	22	9
131	136	1
36	37	2
112	114	3
68	69	3
65	66	2
32	32	6
7	9	5
8	22	3
77	77	6
41	42	2
67	68	2
61	61	5
4	4	5
23	45	1
139	144	2
102	103	2
69	70	3
138	139	1
142	145	3
122	154	4
12	103	1
66	67	1
141	142	2
97	109	1
76	76	2
95	97	4
45	51	1
120	141	1
16	16	7
42	43	3
135	136	1
82	83	2
110	110	4
79	139	1
109	109	4
5	6	1
107	107	10
56	56	4
92	93	3
140	140	10
135	137	1
45	46	1
142	143	2
108	108	8
74	74	2
48	48	3
80	117	5
127	128	2
45	45	2
119	119	5
90	90	5
82	87	2
103	104	2
106	115	1
41	41	2
94	94	7
9	9	7
117	147	3
126	146	3
63	63	1
117	150	1
140	141	4
127	134	6
83	84	12
38	39	1
142	142	3
108	117	1
79	127	1
27	28	1
41	48	1
145	145	3
142	154	1
120	121	2
34	50	2
67	91	1
45	56	1
114	114	3
63	157	3
65	116	2
21	22	1
88	88	8
31	31	6
92	94	3
103	110	2
34	46	2
110	112	2
33	36	2
10	12	3
79	129	3
70	133	2
103	103	4
72	72	2
71	72	2
152	153	1
112	113	1
96	97	2
77	79	2
63	71	1
153	153	1
30	31	1
128	128	4
156	156	3
42	42	4
18	20	4
18	21	2
84	127	2
38	47	2
37	37	1
89	90	4
116	140	3
134	135	2
6	23	1
118	118	4
36	66	1
133	138	1
74	75	2
2	2	3
132	135	1
77	116	2
68	70	1
98	100	1
26	66	1
46	46	4
118	132	1
25	31	2
1	2	1
123	124	3
110	111	1
33	33	7
78	83	1
105	113	1
88	89	4
19	19	6
71	73	1
9	13	1
136	141	1
107	112	2
118	121	1
114	115	2
94	126	2
31	45	1
124	150	1
107	109	1
125	126	2
25	30	1
143	143	1
95	107	2
37	45	2
94	105	1
107	108	2
113	116	1
111	113	2
46	53	1
114	125	3
55	157	1
10	21	1
7	23	1
102	104	2
110	117	2
8	41	1
155	157	1
52	55	2
26	27	2
9	48	1
30	32	2
3	4	2
129	131	2
36	38	3
115	115	1
15	23	2
67	122	1
44	48	2
108	110	1
39	43	1
27	66	1
28	29	1
79	128	1
116	121	2
154	155	1
153	155	1
55	56	1
83	83	2
11	12	3
120	140	2
39	127	1
104	111	4
34	54	1
38	97	1
154	156	1
43	44	1
84	87	1
133	140	1
108	155	1
82	91	1
54	56	1
24	54	1
86	90	1
3	38	1
72	106	1
137	141	1
56	57	1
120	142	1
6	41	1
27	129	1
25	42	1
93	94	1
9	30	1
18	45	1
150	151	1
54	54	2
29	131	1
51	64	1
8	12	1
105	132	1
71	85	1
51	158	1
1	23	1
48	134	1
