74	75	7
5	6	6
21	24	3
73	76	2
48	51	5
25	25	4
3	3	4
57	57	5
49	58	4
37	37	5
38	38	4
8	8	2
62	62	2
27	38	2
53	73	4
69	69	5
45	46	4
39	65	1
44	46	2
25	27	10
57	61	3
49	51	1
52	53	1
21	23	4
31	35	3
0	1	7
42	57	8
9	9	3
34	35	2
21	29	1
20	22	6
6	8	2
52	52	4
41	43	2
50	50	2
43	43	2
23	24	2
35	40	5
8	9	1
48	57	1
37	47	2
38	39	3
19	19	4
7	8	1
31	31	2
71	73	4
55	55	12
10	10	3
3	4	3
68	70	4
46	46	8
9	19	1
43	77	3
48	70	1
12	12	12
46	51	1
72	72	8
33	34	3
61	62	2
69	70	2
51	59	1
6	6	5
72	74	5
51	68	3
58	64	4
56	58	2
26	29	2
53	53	3
19	20	10
34	39	4
35	47	1
51	54	2
45	45	2
43	47	4
77	77	3
33	35	2
4	4	3
35	35	8
37	46	4
46	48	2
50	68	3
34	41	5
74	77	2
60	74	1
55	59	2
53	57	4
67	67	1
56	57	2
11	11	2
29	34	2
75	75	1
52	58	1
57	60	3
4	5	5
31	47	3
70	75	3
56	56	5
48	74	1
55	67	1
7	7	6
10	13	2
26	26	6
29	30	2
0	0	2
75	77	3
60	61	2
54	63	1
47	69	3
10	14	1
26	27	3
47	50	1
1	1	4
51	62	5
48	48	1
55	72	1
2	3	4
2	2	7
24	44	3
73	74	3
44	49	2
74	74	5
71	72	3
32	35	1
25	44	1
27	39	3
37	39	2
24	27	3
21	22	5
40	57	3
40	51	4
33	33	6
42	42	4
3	6	2
21	21	2
40	55	2
31	34	1
0	2	2
42	47	1
42	45	2
56	59	1
65	65	2
41	49	2
62	75	3
39	40	3
12	14	1
51	70	1
19	34	2
49	52	3
54	55	3
25	43	1
20	21	2
21	26	2
43	53	2
57	62	1
21	25	2
4	14	1
40	53	3
2	4	2
24	26	1
51	51	1
37	55	2
20	26	1
43	44	6
47	49	1
68	69	3
67	71	2
65	67	1
39	39	5
27	28	1
70	71	1
61	63	1
41	46	4
62	71	2
64	69	1
66	67	3
60	60	6
62	74	3
27	27	4
55	60	2
54	59	1
26	50	3
32	32	3
18	24	2
50	51	2
65	71	3
45	47	1
47	47	4
55	63	1
27	48	2
5	13	2
53	62	4
31	46	1
52	76	2
30	32	2
43	45	1
49	53	1
41	41	1
70	70	1
1	2	2
26	30	1
40	40	1
62	65	2
72	73	1
50	69	1
23	32	2
71	71	1
30	37	1
69	71	2
0	13	2
36	36	1
60	76	1
41	50	2
37	43	1
33	41	1
30	31	2
26	28	1
15	22	1
48	52	1
76	77	1
5	5	1
52	64	1
54	64	3
52	55	1
49	62	1
64	68	2
48	54	1
0	8	1
57	73	1
47	52	1
57	59	1
27	41	1
18	19	1
69	72	1
36	37	1
34	34	1
53	59	1
19	22	1
21	32	1
29	29	1
53	74	1
50	54	1
74	76	1
10	11	1
