23	23	11
104	116	2
121	138	4
60	61	1
24	24	13
118	118	6
147	148	5
165	165	3
59	59	5
108	108	8
169	169	12
161	173	1
67	67	10
131	153	3
1	1	10
143	166	3
54	54	3
145	145	10
43	43	7
122	122	4
179	180	3
90	90	9
96	96	16
65	65	6
117	117	5
179	179	15
33	33	3
3	3	7
56	57	4
44	44	5
148	149	2
42	43	3
135	136	3
139	139	7
113	113	14
159	159	3
12	28	4
173	173	9
53	62	1
86	86	5
97	112	1
137	137	5
15	15	10
131	131	4
147	147	2
126	126	6
140	140	15
74	74	11
35	38	3
50	50	5
29	44	3
103	124	6
153	163	4
14	34	1
148	148	2
6	6	6
96	98	4
142	142	2
151	151	9
27	27	3
28	30	7
116	118	1
2	2	2
101	121	4
57	57	5
112	112	1
28	28	3
63	67	3
58	58	2
16	16	8
123	123	7
177	178	1
68	68	3
5	5	3
26	26	1
35	35	8
78	78	8
157	157	11
167	167	25
164	164	1
138	139	4
140	141	3
78	79	6
89	89	4
150	150	17
141	141	2
13	14	3
13	13	12
131	150	3
25	28	3
97	110	5
119	119	10
37	37	5
107	108	2
177	177	2
63	64	1
12	13	7
30	30	3
80	80	6
20	20	3
39	39	1
40	41	5
84	85	5
102	117	6
176	176	12
82	82	6
89	116	2
180	180	9
105	105	10
130	130	7
75	75	3
107	107	5
11	11	16
27	30	2
71	71	14
23	24	3
96	110	2
111	111	4
101	101	2
18	18	6
178	178	5
29	29	6
157	159	2
168	168	2
64	66	3
93	109	1
171	172	1
98	98	1
38	38	4
127	127	3
171	171	7
95	95	8
172	173	1
6	8	3
106	106	3
158	159	3
132	132	8
116	116	4
79	79	4
102	102	12
100	110	1
81	82	2
66	66	3
92	108	6
155	155	6
157	160	4
17	18	6
14	14	5
115	116	3
56	56	10
170	170	7
138	138	2
121	125	1
149	149	11
93	108	1
42	44	3
106	107	2
109	120	3
76	76	4
97	97	8
172	172	3
2	3	5
151	152	4
87	87	2
88	88	2
8	9	3
105	106	5
115	115	5
162	172	1
72	76	1
84	84	4
73	73	4
12	12	1
154	154	2
132	133	5
11	33	3
92	101	1
152	152	5
32	32	7
143	143	7
155	156	5
158	160	4
63	63	4
9	9	6
124	125	7
15	16	4
86	89	1
158	158	6
67	68	4
111	137	3
95	99	3
93	93	2
22	22	5
45	45	6
133	133	5
54	56	1
31	31	6
161	161	2
128	128	4
102	105	2
144	144	7
169	170	4
107	158	1
20	28	4
113	114	5
127	128	3
20	25	2
60	60	6
153	153	1
27	28	2
89	90	2
16	17	2
106	125	1
131	132	6
174	175	3
70	70	3
163	163	2
121	122	2
111	134	2
80	81	1
133	135	1
115	117	3
144	145	4
81	81	1
109	109	1
149	150	5
24	26	2
94	94	5
19	19	5
119	126	1
88	89	2
86	90	1
29	30	6
175	176	2
49	50	2
72	72	3
53	53	5
162	173	1
10	33	6
114	114	1
129	129	5
134	134	5
12	14	3
133	134	1
42	42	2
39	41	1
120	120	1
97	134	1
115	124	3
55	56	4
18	19	4
101	107	1
119	121	4
142	167	4
14	16	1
77	78	1
110	131	1
103	103	2
64	64	1
20	21	2
5	7	1
127	129	2
130	134	1
156	156	1
61	61	1
76	77	1
37	38	3
77	77	6
10	10	1
151	163	2
0	1	1
96	137	1
29	33	1
91	91	1
146	146	5
142	168	1
36	36	2
131	133	2
51	51	1
54	55	2
12	27	1
51	52	1
49	51	1
8	8	2
105	107	1
95	126	1
62	62	2
107	125	1
141	148	3
121	126	1
31	32	2
164	165	1
25	25	1
162	162	4
16	36	1
19	41	1
129	153	2
85	85	3
136	136	2
134	135	2
38	39	1
71	80	1
116	117	1
56	61	1
10	32	1
83	83	1
128	146	1
7	7	1
15	18	1
143	167	1
105	118	1
41	42	1
26	28	1
101	110	1
80	83	1
28	29	1
16	18	1
61	62	1
152	154	1
92	92	1
126	127	1
135	135	1
13	15	1
