202	204	3
5	5	6
170	170	13
119	119	7
92	92	5
26	26	10
104	108	2
77	77	4
43	183	3
179	179	7
181	181	9
85	85	9
82	88	2
214	215	5
232	232	6
237	237	10
219	221	3
37	37	5
235	235	13
1	1	6
216	216	21
89	89	11
113	113	11
110	116	2
90	90	4
14	14	7
203	203	8
76	98	5
40	40	9
156	156	7
244	244	10
78	174	1
29	29	6
228	229	2
21	21	7
70	71	2
199	199	5
225	225	17
44	44	6
193	193	5
117	117	3
106	107	3
168	168	8
42	44	4
174	174	6
21	88	5
63	65	4
219	219	10
238	238	8
31	31	1
209	209	18
82	82	5
69	70	2
99	100	5
213	213	4
45	45	9
244	246	2
29	201	3
217	217	7
183	184	3
14	64	3
198	198	1
206	207	1
57	59	5
233	233	7
75	75	7
16	16	14
63	63	6
90	91	2
78	78	19
240	240	11
173	173	11
51	51	4
12	12	8
35	35	9
43	43	11
39	39	16
31	46	2
241	241	12
48	50	3
34	34	13
104	106	1
218	219	2
203	204	4
230	230	3
84	84	9
180	180	3
71	71	9
38	40	1
206	212	4
36	36	7
192	192	7
19	38	3
81	89	2
32	32	16
99	99	5
41	41	7
36	37	6
22	201	1
208	208	4
236	236	6
110	120	2
46	46	3
201	245	5
111	112	3
71	95	4
48	48	10
80	81	1
111	111	24
38	38	9
23	227	3
11	11	4
231	231	6
105	105	3
227	228	5
33	35	2
229	230	6
182	182	10
166	166	3
105	106	2
34	35	5
173	174	2
112	112	5
5	6	3
67	67	12
196	196	4
22	204	2
58	59	1
183	183	8
178	178	3
194	194	2
33	33	10
155	155	10
73	73	6
97	97	6
6	6	9
157	157	3
69	95	3
102	102	4
185	198	5
17	41	2
86	86	7
219	220	4
81	82	2
60	60	8
113	158	2
7	7	4
70	70	2
100	100	6
83	83	3
153	153	8
19	20	3
20	20	9
233	235	6
40	41	2
69	69	11
153	154	2
121	121	4
161	161	2
234	234	17
112	113	6
172	172	8
197	198	2
2	2	4
91	97	2
201	201	3
81	81	6
76	76	3
110	110	6
106	171	6
185	185	8
100	172	6
72	72	2
95	96	1
117	119	4
114	114	4
44	226	2
150	150	7
221	221	4
167	182	1
68	68	3
164	165	1
200	246	4
200	200	7
204	204	7
62	63	3
245	245	3
85	86	8
86	87	2
102	181	1
171	172	8
36	82	4
162	162	6
210	211	4
94	94	3
22	22	3
64	64	9
66	66	5
113	144	3
192	217	2
45	46	7
115	115	14
101	102	4
177	178	3
38	39	2
239	240	2
59	83	1
107	107	6
207	230	1
15	15	5
23	23	6
100	173	2
104	104	6
220	221	1
215	216	3
53	54	2
153	156	2
92	93	3
119	158	4
184	184	5
50	59	3
104	107	3
103	166	2
2	102	2
216	219	1
165	167	1
10	10	3
27	28	1
18	41	1
96	96	4
178	179	2
176	176	22
210	210	14
52	52	8
8	8	5
149	149	4
77	173	2
159	159	1
98	98	8
226	226	5
238	239	1
30	30	8
162	167	2
152	152	4
117	118	2
163	163	4
165	166	1
218	241	1
229	231	2
222	222	2
56	56	1
218	239	2
188	189	1
118	118	4
241	244	1
52	53	3
165	173	1
151	151	9
192	246	3
75	78	3
226	235	2
177	177	6
205	206	2
17	17	2
37	246	5
205	205	8
71	73	3
115	117	1
242	243	2
188	249	1
108	108	4
248	248	5
247	247	4
8	9	4
216	217	8
28	28	6
167	167	6
25	25	3
95	95	8
97	173	1
193	196	3
96	97	2
116	160	2
179	198	2
99	101	3
212	213	3
109	109	2
228	228	7
175	221	3
91	92	7
21	22	3
230	231	7
215	215	6
222	247	3
91	91	2
4	4	6
78	89	2
240	241	3
224	224	8
23	39	2
238	240	3
7	8	5
184	245	2
185	186	1
111	114	3
243	243	3
206	206	5
163	171	1
9	9	4
106	106	1
27	27	3
17	86	2
81	220	4
171	171	4
197	197	3
7	14	2
31	32	3
71	93	2
61	61	3
187	187	3
150	151	1
54	54	7
199	200	2
150	161	1
169	169	3
232	233	2
19	19	7
57	57	2
13	14	1
176	177	3
212	245	2
186	186	2
24	24	7
154	156	1
242	242	1
108	115	3
24	25	2
208	209	4
195	195	4
75	90	2
18	85	3
81	88	3
246	246	5
30	31	5
108	114	4
239	239	2
118	157	3
165	165	6
236	240	3
218	220	2
5	62	2
47	47	8
218	242	1
12	15	2
186	199	3
24	44	2
194	213	2
13	59	2
190	190	2
25	52	1
111	158	6
68	69	3
115	158	4
100	102	1
114	161	5
188	188	2
185	193	2
175	175	4
108	172	1
72	73	1
202	202	5
22	202	2
212	212	5
21	223	2
85	89	2
28	29	2
197	200	3
62	62	3
198	199	5
42	42	3
167	168	3
61	62	1
79	79	2
93	93	1
3	6	6
159	160	2
100	101	1
184	185	3
157	158	2
211	212	3
5	48	1
58	58	2
15	92	1
211	213	1
179	180	2
227	227	8
25	51	1
70	73	1
6	7	1
87	88	2
48	60	1
223	243	1
3	4	2
34	46	2
220	220	3
20	37	1
160	160	4
158	158	4
81	83	2
201	202	1
193	213	1
191	191	4
74	74	2
154	154	2
233	234	3
145	145	2
74	75	2
173	180	1
181	198	1
98	99	2
86	181	1
8	15	1
157	206	1
234	236	1
30	50	1
189	189	2
186	189	3
79	89	2
4	5	1
21	35	2
215	241	2
218	243	1
174	178	3
249	249	2
73	90	1
75	84	1
178	187	3
84	89	1
53	53	1
65	65	2
9	10	6
186	187	2
114	116	3
109	114	1
243	244	3
51	53	1
5	58	3
88	88	2
101	170	1
18	18	2
85	88	1
49	49	1
146	146	2
187	188	4
199	246	1
28	46	1
205	224	2
19	87	1
41	168	2
104	105	1
242	246	1
117	157	1
119	157	3
48	61	1
152	157	3
116	118	1
214	214	3
147	147	1
31	47	1
120	120	2
162	163	4
38	47	1
218	218	1
3	3	1
175	176	2
163	182	1
230	232	2
39	40	1
31	48	1
41	169	1
49	57	1
183	200	1
193	194	4
32	62	1
49	50	1
66	94	2
3	54	1
23	44	2
43	161	3
8	10	1
116	116	1
9	154	1
211	211	2
111	157	1
243	245	1
225	226	1
196	214	1
72	90	1
202	203	1
213	214	2
161	165	1
223	223	1
38	246	1
111	152	1
26	27	1
55	56	1
109	110	1
12	17	2
212	214	1
174	177	1
173	177	1
108	159	1
102	105	1
89	90	1
154	155	1
234	235	2
4	23	1
46	226	1
45	226	1
78	173	1
179	187	1
21	34	1
53	55	1
31	34	1
102	172	1
61	88	1
105	169	1
164	164	1
192	196	1
