216	217	20
65	65	17
119	120	9
46	100	3
50	51	4
9	9	13
116	116	18
33	33	20
204	205	3
189	189	13
53	53	17
43	43	40
213	218	6
225	225	15
69	70	11
61	61	20
233	233	43
195	195	15
238	239	20
86	87	7
4	48	3
65	144	2
46	46	19
165	167	1
105	105	9
119	119	16
223	223	46
215	216	4
91	92	14
166	166	10
28	31	1
242	242	16
50	50	12
244	248	4
70	70	11
193	194	10
179	179	24
77	77	38
51	87	2
175	175	11
199	199	12
87	244	3
36	37	5
185	185	21
232	232	23
34	34	26
67	67	30
160	161	8
76	77	10
23	23	22
54	55	8
149	149	5
1	39	4
31	32	6
118	118	14
78	78	16
159	159	26
157	168	2
155	155	24
96	101	2
195	197	2
6	6	29
51	51	8
243	244	5
226	226	13
89	91	4
109	109	26
202	204	3
62	110	4
228	228	16
197	197	17
175	232	2
74	89	1
230	231	9
186	217	8
246	246	13
183	183	19
212	212	33
71	71	22
47	47	17
72	72	24
36	36	20
184	184	18
64	83	2
217	217	18
64	64	16
87	87	16
48	49	5
198	198	26
60	60	21
20	20	26
3	3	4
171	174	3
56	57	6
177	177	28
67	70	5
101	101	20
195	199	2
37	37	21
54	54	21
171	173	6
32	33	7
245	245	19
17	18	11
244	245	16
27	27	31
59	77	2
19	20	8
4	4	19
38	38	18
16	16	8
19	19	20
224	225	10
205	205	22
152	152	13
52	52	23
75	87	1
191	192	5
24	24	18
118	119	16
226	228	4
51	52	6
53	189	2
222	222	20
79	79	10
150	150	28
165	239	3
173	175	4
180	181	8
218	218	25
22	22	35
91	91	20
69	69	13
64	104	3
219	219	13
188	188	13
110	111	9
97	98	12
58	59	1
209	209	28
92	92	21
247	247	30
73	75	4
72	108	3
90	90	19
210	210	22
238	238	25
28	29	10
44	109	4
68	68	17
10	10	23
172	172	17
208	221	1
93	170	3
234	236	5
168	168	18
8	8	20
72	75	7
111	114	2
176	208	5
215	215	28
182	244	2
160	165	1
63	63	26
45	45	21
236	236	14
91	93	2
201	202	12
193	193	18
52	53	9
96	97	11
73	73	20
86	86	23
243	243	15
70	81	2
178	178	15
235	235	12
102	111	5
220	221	3
190	190	16
39	41	5
74	74	17
234	234	19
54	194	4
224	224	14
28	28	24
154	154	15
180	180	16
240	240	41
165	165	16
14	14	11
213	213	12
48	112	1
62	62	29
151	151	25
44	49	1
229	230	13
71	72	2
169	169	23
58	58	22
95	95	30
45	63	5
6	9	3
178	179	9
207	225	3
12	12	17
89	89	13
60	64	2
218	219	16
171	171	7
5	5	22
208	208	16
88	88	31
68	70	3
57	57	13
182	183	4
115	116	10
201	201	34
225	230	1
39	39	25
198	199	6
84	84	25
162	163	5
214	214	19
31	31	7
30	32	5
7	8	7
224	230	3
40	40	22
241	241	24
147	152	1
112	114	2
157	158	11
145	167	4
180	231	1
186	187	11
1	1	8
181	243	5
186	186	15
55	57	8
223	224	7
200	200	31
35	35	22
102	103	7
117	117	13
145	145	27
237	237	31
185	187	2
34	35	9
30	31	9
15	15	21
3	12	2
75	76	9
196	198	1
204	204	18
213	214	7
83	83	11
0	57	4
194	194	5
172	173	9
192	218	2
187	187	11
202	202	23
161	162	3
174	177	4
170	170	17
234	235	10
167	167	6
227	227	12
11	150	2
57	58	17
26	26	18
14	15	8
26	32	2
35	38	4
76	118	3
239	239	16
115	168	2
171	172	10
49	49	13
113	113	33
211	211	9
48	48	23
175	176	11
85	85	17
75	77	1
12	47	3
207	208	3
26	27	5
236	237	5
189	190	9
96	96	19
197	206	2
232	233	11
102	102	14
199	208	2
239	241	4
146	146	3
114	114	6
222	223	12
104	104	4
237	240	2
18	18	22
58	194	2
151	152	2
205	236	2
45	46	12
11	17	3
184	185	9
66	66	19
3	6	3
116	117	4
81	82	15
199	200	12
24	27	1
179	180	12
12	14	4
76	76	5
210	211	10
22	23	10
200	201	6
167	208	4
220	220	23
82	83	9
148	151	3
113	114	4
189	197	2
206	206	8
144	152	3
215	236	6
7	7	9
56	56	16
156	157	1
191	191	11
157	166	4
3	4	2
157	157	10
231	236	1
11	11	39
44	44	15
230	230	12
192	192	9
41	41	39
157	165	6
35	46	2
56	66	2
163	163	20
15	18	5
101	108	7
153	153	15
112	175	7
57	64	6
19	34	4
4	18	1
221	221	15
209	235	6
215	217	6
46	70	3
117	118	5
47	48	15
53	54	5
88	92	3
162	162	14
236	238	2
219	220	4
166	167	4
41	42	4
229	229	12
64	65	7
60	61	8
208	209	7
49	143	1
173	173	14
80	80	9
185	241	2
32	32	17
29	30	10
231	233	1
48	62	4
100	100	24
112	117	6
173	174	14
8	227	5
59	60	1
181	181	10
81	81	10
155	212	2
156	156	37
203	203	20
30	30	28
214	216	5
67	68	13
93	169	4
55	159	3
192	193	5
206	207	5
160	160	12
172	244	1
182	182	13
232	245	3
182	237	6
77	84	1
20	23	2
17	17	11
2	12	3
102	110	4
3	25	6
71	215	7
89	92	3
57	59	5
147	147	9
164	164	9
77	211	1
99	99	12
17	41	1
63	210	3
117	202	1
18	26	1
42	42	24
175	177	7
213	216	1
182	186	3
41	145	2
144	145	1
66	67	10
155	156	4
29	29	29
56	153	5
168	170	1
93	93	18
8	164	3
61	62	9
163	164	5
197	237	5
6	7	6
103	104	5
114	118	1
233	234	1
176	177	4
55	55	19
162	239	2
50	168	2
201	218	1
104	106	4
109	110	2
89	94	2
84	194	2
240	241	5
104	105	2
66	76	6
100	101	8
29	31	3
248	248	5
62	65	3
161	161	16
4	10	2
104	169	4
2	2	27
167	231	8
25	26	4
221	246	3
44	45	5
160	232	1
112	112	10
110	110	19
228	230	2
67	119	1
8	19	1
216	216	5
17	19	6
77	101	2
113	210	3
232	246	7
114	115	6
59	59	17
211	212	9
83	212	1
72	212	2
94	110	1
170	171	6
164	167	2
72	73	4
80	81	11
203	204	4
90	91	10
14	20	2
207	207	8
90	95	2
245	246	7
120	120	11
87	102	2
56	225	2
205	206	2
18	24	6
112	180	1
183	210	3
173	178	1
107	112	2
78	99	1
54	67	3
200	218	1
5	17	1
44	69	2
63	93	1
239	248	1
10	204	3
87	88	8
59	62	2
248	249	4
217	219	7
37	121	3
9	10	6
231	231	10
149	150	5
9	22	2
104	111	2
110	114	1
98	98	11
111	118	1
150	225	1
187	188	6
7	46	2
179	181	1
158	165	3
244	244	15
35	41	4
94	94	16
113	183	2
51	53	3
176	176	12
186	242	1
55	56	3
89	90	8
54	93	3
107	107	14
13	13	5
198	241	4
158	164	1
196	196	3
99	100	2
75	75	11
68	69	5
108	108	6
237	238	5
19	23	5
99	101	2
99	110	1
7	10	2
84	86	4
174	193	2
155	157	1
8	50	2
28	32	4
168	191	1
174	174	4
227	230	1
224	246	4
174	210	1
49	50	4
39	40	2
239	242	1
159	165	2
116	159	2
15	24	3
111	112	2
97	97	10
79	80	3
115	115	21
167	172	1
205	208	2
158	158	14
204	235	4
159	160	1
62	75	2
180	186	3
48	97	1
112	178	6
33	34	4
63	82	2
162	167	7
76	87	2
163	190	1
21	23	3
98	104	2
48	102	4
15	16	6
221	222	3
35	42	1
60	77	5
82	85	3
227	228	3
185	186	7
192	245	2
200	205	5
85	87	2
183	188	1
36	44	4
172	174	2
74	214	2
222	225	2
198	209	2
120	144	4
50	86	3
74	77	2
145	147	1
150	151	7
192	236	3
199	209	1
197	242	2
196	197	3
43	44	6
242	243	10
185	238	1
159	166	2
115	207	1
34	46	6
245	247	5
13	14	4
83	84	4
106	106	2
161	164	1
48	100	1
13	15	1
111	111	21
168	169	5
197	199	4
6	31	2
53	101	1
119	145	4
2	3	8
73	76	4
174	196	2
74	76	3
53	192	2
205	209	1
211	213	3
226	227	4
153	154	4
212	213	6
37	38	4
155	223	1
70	214	1
19	49	4
99	106	4
233	244	2
45	66	3
174	197	1
34	37	2
94	95	6
1	2	7
34	38	2
101	111	3
57	71	1
55	112	3
161	181	1
199	202	4
95	100	2
233	235	4
231	232	3
12	17	2
80	82	1
43	45	3
102	104	1
197	198	3
63	88	1
38	39	4
42	43	3
209	210	3
168	174	6
12	113	2
41	43	1
9	12	1
73	97	1
40	42	2
65	66	1
159	162	2
69	116	4
217	220	2
99	116	2
52	163	1
152	164	1
153	160	4
164	165	1
14	16	1
152	179	3
144	144	3
222	247	1
218	220	1
31	101	1
85	86	5
84	85	1
10	150	3
181	182	1
81	213	1
33	35	2
169	170	5
209	242	4
37	152	2
103	103	5
5	10	2
28	160	1
40	41	3
106	108	1
47	55	1
42	44	1
83	104	2
104	108	1
35	61	1
65	120	3
228	229	10
21	21	5
106	165	1
25	25	8
19	33	7
156	158	1
199	201	3
93	94	6
154	166	4
23	94	1
184	246	4
79	90	1
46	47	5
217	218	4
177	178	2
51	103	1
73	74	7
10	12	1
145	146	3
241	248	1
13	16	2
61	95	1
35	36	8
185	196	4
15	19	2
112	113	1
229	247	1
85	88	3
182	185	2
178	209	1
241	242	2
222	224	1
4	26	1
34	152	2
21	22	1
7	49	3
211	220	2
86	88	2
246	249	2
121	121	1
46	62	1
170	207	1
5	19	1
179	182	3
239	240	3
97	111	1
209	221	1
11	204	2
16	35	3
96	98	2
73	84	2
148	212	1
210	222	2
169	193	1
80	84	2
235	236	5
6	8	1
79	85	1
154	155	1
212	214	1
200	220	1
154	160	3
18	19	2
216	218	4
36	156	1
36	79	2
9	11	3
36	46	1
107	108	3
77	78	2
118	120	3
85	116	4
48	55	1
8	9	1
76	221	1
82	82	9
223	245	2
180	214	3
17	24	1
16	42	1
187	199	2
19	25	2
114	183	3
183	199	3
7	16	2
31	87	2
48	109	2
195	218	1
230	247	1
164	170	1
81	96	2
209	245	1
188	189	3
24	30	3
14	48	3
49	102	1
180	182	2
153	157	4
183	184	2
230	246	3
201	206	3
206	209	1
64	84	1
16	156	2
198	208	1
27	28	1
58	60	1
116	118	1
21	115	1
37	43	3
181	183	1
16	17	2
4	5	2
58	81	2
62	95	1
10	11	3
167	169	1
68	71	5
163	244	1
95	101	3
58	64	3
174	178	4
111	165	1
197	243	1
173	176	1
169	172	1
118	158	1
22	24	2
4	110	1
47	192	1
180	193	1
44	47	1
46	64	3
63	116	2
175	181	1
15	154	1
111	113	1
214	218	1
237	239	1
23	34	1
67	71	3
86	90	1
115	206	2
169	192	2
151	180	1
58	222	3
226	229	1
166	240	1
55	193	1
106	107	2
88	113	2
242	246	1
39	42	1
151	183	1
88	89	4
200	204	1
225	231	2
74	78	1
89	93	1
20	33	2
56	65	1
213	215	1
105	108	2
226	230	2
194	195	2
31	41	1
24	25	2
104	107	1
247	248	2
172	214	1
225	226	2
78	79	3
56	61	1
184	186	2
38	149	3
52	72	1
61	63	3
221	229	1
103	109	2
207	231	1
172	207	1
55	206	1
109	116	2
243	246	2
21	51	3
95	113	1
210	221	1
79	98	3
212	219	1
159	161	2
198	200	2
2	19	1
78	91	1
103	196	2
95	112	1
98	101	1
95	96	3
49	62	1
70	216	1
118	157	3
66	68	1
5	11	2
185	240	2
92	112	5
24	26	1
146	147	2
200	221	3
82	84	2
86	112	2
207	233	1
207	234	3
180	183	1
173	246	1
72	189	1
178	225	1
4	108	1
77	90	1
175	207	1
169	199	1
89	95	2
228	247	1
121	145	2
240	244	1
25	34	2
59	239	2
81	95	1
178	180	2
7	29	1
47	65	1
183	211	1
186	189	1
173	244	1
153	223	1
47	112	1
56	64	1
5	9	1
225	232	1
172	195	1
214	215	4
169	200	1
65	84	1
5	6	1
54	68	1
59	86	1
212	222	2
192	194	1
8	228	1
23	24	1
181	244	1
33	39	2
152	153	2
149	168	1
175	178	1
151	153	1
177	208	1
184	191	1
225	234	1
215	237	1
92	119	1
63	115	1
51	55	1
160	163	1
70	96	3
160	164	1
63	200	2
38	40	1
240	245	1
54	193	1
57	60	1
246	247	1
179	243	1
13	26	1
15	17	1
21	24	1
62	210	1
2	4	1
77	79	1
48	101	1
121	220	1
198	242	1
13	113	1
152	166	1
28	100	1
157	244	1
163	165	1
199	218	1
193	219	1
192	247	1
