8	8	25
31	31	17
14	14	14
64	64	5
23	26	3
76	83	1
22	22	20
88	88	6
68	68	4
18	19	3
58	65	2
48	48	11
0	0	12
9	9	16
23	23	8
78	79	3
46	46	10
59	59	5
24	25	4
71	71	4
13	29	1
57	69	1
30	30	40
27	27	14
12	14	4
7	19	9
49	49	6
12	26	1
29	29	7
7	7	12
6	6	12
13	13	14
55	55	5
3	4	4
58	60	1
86	86	4
53	54	6
31	46	2
11	28	2
80	80	27
15	15	11
32	47	2
6	23	3
73	73	10
9	24	3
4	19	1
10	12	1
75	75	4
65	72	3
35	35	9
54	55	3
52	52	8
10	27	7
25	25	8
85	85	8
17	17	10
60	60	12
68	69	4
62	62	7
19	19	19
58	61	4
5	5	12
2	2	12
20	21	3
68	84	3
24	24	21
21	21	12
61	61	8
53	53	9
58	62	2
9	10	6
72	72	27
66	66	8
0	2	5
54	54	11
76	76	16
1	11	1
23	24	2
6	7	11
70	70	15
66	78	3
79	80	1
11	11	11
14	25	6
23	32	1
75	76	4
64	72	2
12	81	4
9	19	1
20	26	2
26	26	4
79	79	10
26	27	4
67	67	7
20	20	8
26	33	2
52	53	2
5	6	3
6	8	2
54	79	2
59	86	1
3	3	21
15	26	1
82	83	4
7	79	2
34	34	5
28	28	10
84	84	5
48	55	3
7	8	3
69	69	13
34	35	4
81	81	5
60	62	4
58	58	11
87	88	1
76	77	6
60	61	5
16	16	2
51	62	3
49	65	1
70	71	1
24	32	3
82	82	4
56	64	2
57	58	2
1	1	13
4	4	12
25	27	2
16	17	4
50	50	10
83	83	5
48	49	5
7	24	1
51	51	10
12	12	7
22	23	9
11	22	4
57	74	2
10	10	9
21	22	10
63	63	7
46	47	1
23	29	1
21	31	2
84	87	1
75	83	1
0	3	4
64	66	3
5	28	3
86	87	6
4	5	2
49	50	5
29	30	2
73	85	4
57	67	4
5	46	1
15	20	2
74	74	5
61	66	3
12	16	2
30	31	4
11	15	5
71	72	1
47	47	9
49	55	1
55	56	1
14	72	1
77	77	5
77	81	3
59	60	2
66	72	5
14	26	2
49	53	2
0	1	1
12	46	2
65	65	5
57	57	14
5	13	1
13	27	2
15	28	2
32	32	3
8	11	3
19	27	2
73	74	1
81	84	2
79	81	2
62	63	3
25	26	6
9	72	2
62	89	2
68	72	7
86	88	1
50	63	1
67	89	2
63	67	1
47	49	1
72	73	1
61	76	1
73	84	1
4	46	1
9	23	3
61	62	2
24	27	5
68	85	3
1	2	4
22	32	1
8	9	4
14	15	2
33	33	2
12	13	1
17	18	1
33	34	2
56	66	1
9	78	2
7	22	1
11	12	1
9	12	5
10	32	1
66	84	1
78	78	2
10	20	1
65	84	2
48	72	5
22	31	2
56	57	1
74	75	1
83	86	2
74	82	2
72	74	3
4	26	1
84	85	3
28	29	2
49	66	1
66	74	1
8	81	5
7	34	1
49	52	1
64	82	3
81	90	1
14	20	1
4	30	3
2	7	1
25	32	2
56	56	7
10	23	1
53	78	1
70	77	2
5	11	2
5	16	1
66	87	2
72	81	2
82	86	2
48	75	1
33	35	2
87	87	1
58	63	1
46	56	1
14	16	2
9	29	1
15	19	3
7	80	2
3	12	2
89	89	2
18	18	4
11	30	1
8	31	1
30	47	3
57	60	2
13	20	2
52	55	2
49	64	1
6	16	1
16	29	1
4	18	2
9	22	1
15	21	1
66	75	1
8	14	1
4	85	1
7	20	1
48	51	1
57	66	1
2	3	1
52	63	1
13	14	2
6	25	1
15	31	1
14	29	1
66	67	1
75	84	1
14	22	1
8	12	1
11	27	2
6	19	1
9	15	1
21	24	1
77	84	1
58	77	1
22	28	1
3	19	1
52	62	1
83	84	2
50	51	1
26	31	1
8	10	1
11	14	1
9	13	1
20	22	1
29	63	1
4	77	1
27	56	1
89	90	1
