127	127	9
15	16	2
85	85	1
93	94	5
25	25	5
114	114	4
29	31	2
10	12	3
134	135	2
116	117	6
117	130	2
3	7	2
137	137	4
13	14	8
113	114	1
24	25	4
92	92	4
82	106	2
81	105	2
116	123	3
18	18	3
73	74	2
22	22	9
101	101	8
118	118	2
19	19	3
110	111	6
80	90	5
72	72	12
98	98	7
4	5	4
126	126	12
108	108	2
110	110	6
27	27	12
81	81	5
130	130	10
104	104	6
103	103	10
78	78	7
124	125	2
123	123	4
102	102	6
100	100	16
5	5	5
101	103	3
9	9	4
1	1	10
4	4	7
10	10	3
109	109	3
140	140	6
33	33	12
115	115	7
128	128	9
66	71	2
112	114	2
120	121	1
23	24	4
79	79	5
32	75	2
37	37	5
8	8	4
4	8	4
124	124	2
131	131	6
11	15	5
112	112	11
3	5	1
2	3	4
13	13	5
107	107	7
87	87	8
29	29	2
19	20	1
116	116	3
123	125	3
12	13	1
3	73	4
2	2	15
76	79	3
89	89	6
80	107	1
82	83	3
121	122	1
117	117	4
35	35	4
74	74	5
125	125	6
75	75	13
121	121	3
37	38	8
14	14	2
76	77	2
129	129	10
86	87	1
36	36	2
24	24	3
119	119	3
28	112	2
1	2	4
132	132	8
85	86	3
90	90	1
84	84	4
105	105	7
0	38	1
82	82	5
75	76	2
119	131	3
21	28	3
91	93	1
80	80	5
81	82	5
3	3	6
101	127	3
139	139	4
83	83	8
89	128	4
99	99	4
74	76	4
16	17	2
18	20	3
97	97	7
78	80	2
15	17	3
22	23	4
102	110	3
129	131	2
86	86	5
138	138	7
117	120	1
6	9	4
72	114	3
1	16	1
127	129	2
73	75	2
138	139	1
71	74	3
123	124	6
23	23	5
12	12	9
36	81	2
16	115	3
11	11	2
21	21	6
114	119	2
108	109	3
117	122	1
29	30	2
134	134	4
32	32	7
89	93	3
17	17	6
129	130	2
10	15	2
93	97	1
17	18	4
0	1	4
73	73	3
28	28	3
108	111	3
22	28	1
74	75	1
6	8	3
26	26	4
88	88	7
10	11	1
96	96	7
77	77	4
93	93	2
104	105	4
136	136	8
114	117	1
7	7	4
111	111	3
119	120	7
23	32	1
78	111	6
16	16	3
95	95	2
6	6	10
122	122	5
31	31	5
106	106	3
124	126	1
34	34	3
99	100	1
34	71	1
113	113	7
77	78	4
81	84	1
128	129	1
93	96	4
77	80	1
20	20	1
102	125	1
25	26	1
19	21	3
24	27	1
71	71	2
135	135	2
30	31	1
100	102	1
103	104	3
72	73	2
77	105	3
36	37	1
90	91	3
89	121	4
78	79	1
3	74	2
26	28	1
11	12	1
91	92	2
35	79	1
15	15	6
5	16	2
20	21	1
25	31	1
91	91	5
83	120	1
28	29	1
33	34	2
99	132	2
35	36	3
112	115	1
73	114	1
36	79	1
81	120	1
33	124	1
98	102	1
38	38	1
94	94	3
133	133	2
76	76	1
10	19	1
118	120	2
135	137	2
71	87	1
6	7	1
98	99	1
71	72	1
