80	81	6
34	51	1
27	30	5
112	112	17
104	104	11
41	41	9
39	97	2
97	98	4
63	64	12
27	28	2
23	23	8
51	52	10
26	26	18
28	28	11
49	49	17
100	100	9
94	102	2
68	81	3
64	67	3
102	103	1
34	36	5
59	59	5
39	112	2
93	95	2
47	47	10
42	44	1
62	62	13
107	107	13
38	38	16
110	111	7
44	45	11
100	104	3
102	110	5
21	52	1
21	23	9
52	103	1
44	44	16
99	99	11
55	55	18
42	42	9
58	70	9
52	52	10
104	105	2
82	82	20
109	112	5
110	110	13
92	97	1
33	33	19
69	69	9
87	87	10
50	50	15
56	56	13
53	53	14
43	43	10
48	48	13
60	60	13
79	79	13
76	77	1
78	80	1
25	25	12
62	87	8
100	111	2
46	46	15
25	26	11
73	76	4
64	64	9
54	60	4
81	81	8
77	77	10
79	80	5
77	82	3
37	94	1
24	24	14
94	94	4
50	51	16
89	91	6
84	88	3
89	89	8
40	41	12
48	90	2
83	83	8
19	20	3
110	112	2
73	84	2
73	78	3
19	19	6
97	97	7
20	51	1
27	27	13
88	88	8
22	22	13
65	65	15
105	105	10
78	78	7
93	93	3
95	95	17
76	78	9
29	29	22
51	51	13
107	111	3
39	39	17
85	85	11
47	49	5
102	106	2
111	111	6
66	67	12
57	57	12
33	53	2
76	76	16
63	63	7
68	69	12
69	70	5
37	46	5
61	76	3
28	30	3
37	37	15
95	106	1
34	61	6
28	54	4
114	114	4
25	28	2
54	54	10
75	77	3
58	77	4
38	74	1
78	79	7
90	90	5
103	107	1
40	40	15
70	70	11
20	20	12
92	92	18
41	43	3
81	82	6
75	83	4
103	103	6
26	27	6
96	97	2
73	75	7
45	45	17
65	66	1
21	25	3
91	91	13
32	37	2
49	89	6
61	61	17
66	66	9
53	54	7
96	96	25
77	78	10
92	95	5
62	63	3
31	43	8
23	30	4
36	45	7
47	101	2
58	58	2
20	112	3
71	71	12
40	115	4
101	101	14
31	31	5
73	73	7
109	109	7
32	42	1
19	46	2
80	80	7
74	74	7
79	90	1
31	45	5
79	81	3
73	74	9
67	67	5
112	113	4
72	74	4
108	108	2
62	64	4
93	94	4
46	100	2
64	66	8
34	34	10
85	86	6
105	106	10
63	66	8
21	21	4
83	84	5
36	36	6
52	53	1
43	55	7
33	34	3
30	30	16
84	84	16
48	50	2
72	72	13
58	59	3
53	111	4
75	75	11
22	29	5
84	85	7
64	70	2
32	33	5
23	24	5
107	108	2
50	71	7
48	63	3
74	75	10
21	24	4
82	83	3
68	68	7
104	111	2
88	90	5
35	35	10
39	113	1
53	79	2
86	86	2
60	70	2
29	53	3
47	48	3
89	98	3
28	29	2
86	87	5
25	31	1
56	57	2
49	50	3
75	81	1
67	68	1
49	68	3
103	104	2
39	95	1
94	95	1
101	103	1
96	107	3
36	38	1
67	69	5
55	59	3
99	100	5
66	84	6
40	43	4
53	55	1
41	85	2
30	31	7
106	108	2
104	108	3
22	23	5
23	59	1
72	77	1
21	22	1
39	40	1
95	99	5
53	81	2
47	83	4
54	59	1
111	112	4
42	99	4
72	84	4
75	84	4
104	106	1
43	44	8
85	110	1
98	98	2
34	35	5
41	42	2
92	93	3
48	69	1
103	105	3
37	38	1
39	96	3
38	92	2
72	92	1
30	55	1
75	76	6
91	98	2
98	99	7
21	51	1
60	61	1
57	58	2
104	109	2
82	91	2
83	87	3
89	90	2
32	32	3
45	46	2
84	86	1
99	102	2
23	54	2
48	68	3
72	81	2
72	80	1
113	113	8
48	71	1
71	72	1
20	95	1
55	74	2
89	97	1
96	100	3
42	43	2
64	69	1
108	111	1
90	92	1
64	65	2
74	78	2
101	102	1
33	52	2
91	92	1
56	58	1
90	91	2
31	42	2
76	82	1
35	71	1
80	84	1
102	109	2
57	78	1
87	97	1
41	98	1
47	102	1
106	106	1
29	30	1
33	35	1
57	80	2
75	82	1
55	57	1
53	103	2
31	74	1
47	55	1
46	48	1
60	77	1
63	67	1
32	35	1
46	84	1
108	110	1
42	98	1
