38	95	3
61	61	9
79	79	6
24	53	4
55	55	12
3	4	5
101	101	16
37	37	13
25	115	5
49	50	12
125	125	5
113	117	3
22	22	20
54	54	20
68	68	13
107	107	21
114	114	26
35	35	12
2	2	6
113	115	6
110	129	3
89	89	4
7	12	3
7	8	5
127	128	13
106	125	3
9	11	5
71	71	5
16	17	8
8	20	3
32	32	3
70	70	5
90	91	3
80	122	2
53	82	14
108	110	4
75	75	10
23	23	6
118	118	16
17	17	16
59	60	6
12	12	6
15	23	6
11	54	3
87	88	1
36	36	10
14	121	4
3	5	1
102	102	7
66	69	6
22	23	1
56	56	19
83	83	12
51	51	6
110	110	9
51	69	4
45	45	12
54	55	3
68	69	6
37	95	1
10	11	14
31	32	8
71	75	4
8	58	2
66	66	10
117	117	13
93	93	2
51	52	5
57	57	6
132	132	6
65	65	14
47	48	9
24	24	14
3	3	13
1	11	5
13	22	4
7	7	22
26	27	12
67	97	2
14	14	10
50	50	11
61	62	6
89	92	2
98	98	22
84	84	12
36	37	6
125	126	3
73	73	3
124	125	12
90	93	2
117	118	8
19	19	8
8	8	20
98	105	8
134	134	12
44	45	21
94	122	2
7	69	1
67	68	2
108	109	11
119	119	8
90	90	9
43	44	6
4	5	3
16	50	5
118	120	5
26	26	17
129	129	13
31	72	3
127	127	9
81	83	4
62	63	10
13	14	6
91	91	3
58	59	12
14	20	2
82	83	5
36	95	1
94	94	7
93	94	2
105	105	5
71	72	1
113	113	7
121	122	17
64	93	3
86	95	1
9	10	7
7	10	3
123	124	3
5	5	7
95	95	8
132	133	4
0	27	4
108	127	4
104	123	2
84	107	1
4	4	12
67	109	4
64	64	7
74	75	5
7	11	8
123	123	3
62	89	3
105	106	3
62	92	3
81	81	3
108	108	12
64	65	7
8	9	7
119	120	2
25	112	1
44	44	8
96	97	3
15	16	7
33	33	10
114	115	3
109	109	4
18	23	3
80	80	8
17	21	4
57	62	4
72	72	11
0	26	2
2	5	2
88	88	6
77	78	4
89	90	1
57	66	11
18	18	2
43	43	12
0	0	6
130	130	15
111	111	15
1	3	3
16	16	10
72	73	3
25	113	5
57	77	2
104	105	6
6	13	4
33	34	4
116	119	6
34	52	5
126	126	3
100	100	5
59	59	9
133	134	3
82	82	6
57	60	1
97	106	1
8	17	6
105	125	4
63	64	3
3	9	2
95	118	3
110	133	1
4	6	1
77	77	2
83	84	6
42	42	1
13	13	7
87	87	5
16	18	3
64	120	1
101	108	3
9	9	6
6	25	2
15	19	3
6	6	11
109	110	5
128	128	15
25	53	3
133	133	6
11	101	2
62	62	3
12	13	2
20	20	4
15	18	2
57	58	9
111	115	1
12	75	3
58	58	10
14	18	8
14	69	1
33	81	1
56	58	1
111	120	4
19	20	3
5	6	6
31	31	7
21	21	8
76	76	1
6	7	6
3	71	2
10	10	15
125	127	3
49	76	4
54	57	1
9	115	1
95	97	4
57	59	2
44	129	4
100	125	3
92	92	9
130	131	4
25	114	2
17	18	4
16	29	4
72	128	2
37	43	3
1	2	4
74	74	5
1	1	8
96	96	4
11	116	1
121	121	5
36	100	1
67	67	13
68	71	3
49	95	1
14	17	2
15	61	3
19	22	4
52	82	4
126	127	2
35	37	1
9	13	2
8	16	4
114	126	5
96	98	2
99	105	1
14	15	2
1	10	6
99	99	7
115	117	6
0	127	4
63	97	1
91	92	6
18	70	4
15	15	16
30	30	7
20	21	4
11	11	9
1	55	3
27	28	4
103	103	3
26	117	1
63	92	3
106	106	8
48	48	2
7	9	5
14	72	1
85	106	1
50	125	2
110	111	4
34	82	3
125	128	5
110	120	2
116	118	2
62	88	3
48	122	2
21	37	1
111	129	1
112	118	1
97	97	7
25	25	7
78	78	1
27	116	1
23	29	4
124	124	7
57	68	1
99	101	3
93	95	1
45	107	6
60	60	9
45	63	2
53	53	5
110	126	2
35	83	8
60	63	1
75	79	2
35	81	3
27	27	1
69	126	4
105	109	1
43	45	4
11	12	2
104	116	2
111	112	1
118	119	6
14	21	3
115	115	5
69	69	8
112	113	2
35	55	2
60	68	3
80	124	1
8	118	2
45	101	2
3	11	1
7	70	2
100	108	3
112	112	3
49	49	3
86	97	1
93	124	2
92	126	2
84	97	1
63	91	2
106	107	4
36	85	1
3	10	1
98	99	2
75	76	1
86	88	2
55	66	1
55	83	1
119	125	1
14	50	1
90	102	2
72	133	1
36	128	1
131	132	5
122	122	2
60	61	3
0	3	2
47	127	4
63	88	1
8	24	1
2	10	2
86	86	2
92	93	3
77	83	1
9	55	4
72	75	1
34	99	1
44	135	2
30	33	1
34	34	6
85	85	6
62	64	3
2	4	5
94	95	2
100	110	1
63	93	3
56	57	4
12	49	3
78	80	1
17	122	1
84	85	4
62	93	2
0	10	2
79	102	1
25	117	1
115	118	2
117	120	2
5	13	1
67	69	2
17	71	3
81	90	3
21	22	3
57	65	3
111	127	1
34	81	2
34	35	3
57	64	3
17	74	1
4	18	1
52	88	1
90	99	5
39	77	2
5	24	1
20	37	1
83	87	1
26	113	1
52	87	2
57	78	1
28	116	1
92	123	2
86	93	1
24	26	2
4	17	1
30	31	3
111	113	1
1	5	1
56	68	5
64	94	1
15	17	1
2	13	2
56	66	4
52	53	1
76	77	1
63	63	6
29	36	1
64	97	2
7	76	1
14	29	3
7	118	1
25	26	1
126	128	3
81	122	1
34	89	2
15	49	1
60	86	1
121	123	1
120	133	1
29	29	1
82	84	1
37	78	1
131	131	2
116	116	2
19	28	2
96	106	3
1	12	1
1	7	1
60	62	1
6	119	1
81	82	1
94	123	1
13	49	1
128	130	1
80	81	1
37	77	1
36	38	2
6	24	1
46	124	1
46	70	2
30	72	1
101	109	1
47	84	1
7	116	2
21	29	1
91	93	1
2	6	1
79	93	1
70	71	2
99	100	1
19	43	1
28	29	1
52	52	3
3	130	1
128	133	1
24	117	1
85	97	1
101	110	1
14	131	2
79	80	1
57	61	1
43	76	1
26	115	1
9	116	1
69	70	1
59	61	1
13	69	1
1	76	1
18	69	2
36	39	1
46	85	1
110	119	1
67	96	1
94	116	1
82	123	1
95	96	1
4	7	2
88	90	1
5	14	1
68	70	1
135	135	1
129	135	1
94	104	1
0	133	1
101	120	1
12	70	1
