28	28	2
155	155	9
144	145	9
75	75	4
108	165	5
97	98	3
15	15	9
2	2	6
135	135	17
131	141	4
143	143	11
95	96	1
109	131	3
43	43	4
68	68	2
39	49	1
6	11	4
145	145	7
84	84	17
44	45	4
111	159	3
111	139	7
25	25	3
38	47	3
147	168	2
12	15	2
41	41	3
4	4	10
134	135	7
115	118	2
151	152	2
99	99	11
37	37	11
86	86	3
36	36	13
25	70	1
137	137	1
26	57	2
116	117	2
113	124	5
125	140	3
129	129	14
164	164	8
118	121	2
1	10	1
77	86	2
70	78	1
126	127	6
76	109	5
122	122	10
3	8	1
124	130	3
147	156	1
80	80	15
116	116	9
46	46	9
90	90	7
118	119	1
7	7	4
49	49	10
140	140	4
149	149	5
45	46	6
88	88	9
159	161	3
170	170	7
136	136	7
11	13	8
75	76	8
67	69	3
5	23	6
42	72	2
3	18	3
150	150	8
14	14	10
97	99	4
34	34	15
51	53	1
6	15	5
35	35	15
103	103	6
151	151	9
130	130	11
33	41	1
47	49	4
114	116	3
123	134	1
73	74	2
74	74	3
107	107	7
168	169	2
83	83	4
106	106	10
87	87	13
85	86	4
21	21	12
142	142	10
128	128	10
16	46	2
48	51	4
39	39	18
68	73	4
7	11	2
98	98	8
89	89	10
3	3	11
11	11	12
58	68	4
63	104	2
92	92	6
51	63	2
86	126	2
133	133	8
125	159	4
71	73	5
55	76	3
153	168	2
113	114	7
41	51	2
119	122	3
144	144	6
35	41	5
79	79	7
121	121	15
23	23	9
162	164	3
169	169	14
57	57	10
143	144	5
44	44	18
99	149	1
112	117	5
80	99	7
40	40	9
163	164	4
89	94	3
153	154	2
114	114	8
158	158	6
8	8	6
10	10	12
1	1	13
74	86	3
108	108	8
34	36	7
168	170	4
104	104	7
20	21	8
143	161	2
62	63	2
57	58	1
96	96	7
18	20	3
161	161	6
115	149	1
5	15	4
45	45	3
113	113	2
12	46	1
26	26	5
128	129	8
16	40	10
156	156	6
69	72	3
24	25	4
84	91	4
85	85	14
154	154	3
124	124	5
147	147	6
131	131	6
66	66	2
48	48	5
5	5	5
13	14	2
57	76	3
12	12	7
120	120	7
155	156	8
38	38	11
151	165	2
56	58	3
165	170	5
55	55	4
43	44	3
110	110	6
99	130	3
1	9	6
67	67	3
13	42	1
115	116	1
108	162	1
107	109	2
132	143	6
9	11	5
64	64	7
88	89	2
72	80	5
138	146	1
138	160	1
108	109	5
66	77	1
101	102	3
2	3	5
112	112	12
112	118	2
138	138	11
93	104	4
95	95	7
153	153	2
11	53	4
91	91	4
18	18	4
17	17	6
148	150	2
111	111	6
0	25	1
23	24	1
162	165	2
71	82	2
159	160	1
65	65	3
100	100	5
55	78	1
130	134	1
154	168	1
65	70	2
160	160	3
66	93	3
82	83	6
56	56	4
120	148	4
38	39	4
78	78	8
118	122	10
22	25	1
135	161	5
47	48	1
45	105	3
112	125	1
139	140	7
15	23	3
0	1	1
53	53	5
125	126	2
102	138	1
148	148	7
97	97	5
141	141	8
9	9	5
22	22	13
66	68	1
33	33	6
49	53	2
22	41	2
90	114	3
119	124	1
107	108	1
13	16	1
79	80	4
34	43	1
88	100	1
81	83	2
54	54	3
94	104	3
125	138	2
151	155	4
10	14	3
6	6	5
121	122	6
24	24	4
113	115	2
136	137	1
128	142	2
94	95	7
146	163	2
16	41	3
117	117	7
47	47	6
83	85	4
70	71	5
128	130	1
37	53	2
135	147	5
157	158	2
41	50	1
94	98	1
109	123	3
139	139	10
136	153	5
73	77	3
168	168	6
49	50	2
152	153	4
152	154	2
72	110	3
28	64	2
159	159	6
112	129	2
95	124	5
80	82	7
82	107	1
73	73	3
125	125	7
108	159	2
63	63	2
49	51	2
126	126	5
97	149	5
166	166	3
15	18	3
40	46	4
21	23	2
131	132	4
108	136	1
94	129	1
86	120	2
67	99	7
112	114	3
132	132	9
113	138	1
67	68	4
135	136	2
77	85	2
46	143	1
27	27	5
140	142	1
87	121	1
166	169	2
74	76	1
93	97	3
99	102	2
119	119	2
158	164	2
165	165	3
85	93	2
13	18	3
104	132	4
152	152	1
57	91	4
7	17	2
19	44	3
64	85	1
72	72	3
55	57	4
100	101	1
78	85	1
146	162	3
38	41	5
118	118	3
148	149	3
35	42	1
157	157	10
151	157	7
62	79	2
137	167	3
0	6	4
43	71	2
39	40	1
106	107	3
71	71	8
34	44	3
113	135	2
94	94	5
123	123	6
127	127	3
58	58	2
81	82	1
122	133	2
50	50	2
20	20	2
20	50	3
10	12	5
14	15	1
73	109	4
137	147	1
82	82	6
25	46	3
46	105	3
36	43	3
35	155	1
37	52	2
125	136	4
114	123	3
53	75	1
85	109	2
4	27	1
1	17	5
167	167	5
134	139	5
74	91	2
151	161	1
97	101	3
18	21	1
137	148	6
20	43	1
103	105	4
146	146	4
40	41	1
35	64	1
121	125	5
140	141	3
64	68	1
130	131	1
77	107	1
66	99	1
69	70	5
94	103	1
138	150	1
104	106	2
54	62	3
62	62	3
117	148	1
105	111	3
162	162	1
55	77	2
102	102	2
76	85	2
163	163	3
11	12	1
129	130	2
164	165	3
12	51	2
138	139	3
138	143	1
105	105	7
51	55	3
56	57	2
18	153	1
16	16	2
111	112	2
82	97	1
0	40	2
22	24	3
55	108	2
155	166	1
82	105	2
152	158	1
135	168	1
100	149	1
137	138	3
51	52	1
134	163	1
135	160	1
92	105	1
67	70	1
109	136	1
8	10	1
86	87	2
142	153	3
19	19	4
165	167	2
125	139	1
53	145	2
146	164	1
129	140	1
3	15	2
0	0	2
56	77	2
124	125	4
40	48	1
63	64	1
131	143	1
26	27	1
112	128	1
69	92	1
153	162	3
130	153	1
109	112	2
19	20	1
58	62	2
93	93	1
14	39	2
81	81	2
69	81	1
90	119	1
56	74	1
26	56	2
109	109	1
13	38	1
36	37	1
73	85	2
98	124	1
37	42	1
87	91	1
42	45	1
2	16	1
48	49	1
116	146	2
45	51	1
111	133	1
6	8	1
106	116	1
119	141	1
57	61	3
51	51	1
72	170	2
13	13	1
6	18	1
121	148	1
45	78	2
162	169	1
42	42	2
150	151	1
96	126	1
143	148	1
25	26	1
39	41	1
72	77	1
8	9	1
66	97	1
133	140	1
101	130	1
91	153	1
4	65	1
97	102	1
