208	208	4
24	24	5
35	67	2
205	231	1
73	74	3
118	118	7
162	167	8
156	156	3
227	238	2
64	64	5
182	182	2
151	151	9
105	106	3
152	204	1
23	23	5
95	95	3
167	168	1
49	57	1
241	241	9
170	170	5
119	120	2
26	26	3
155	155	10
4	4	6
19	37	1
225	226	4
9	9	2
224	224	4
28	28	4
235	235	10
110	110	5
247	247	9
5	5	2
1	1	2
1	31	1
75	75	5
94	100	2
62	62	3
111	111	3
232	232	9
186	186	6
195	195	3
109	154	2
29	30	1
38	38	6
160	160	5
185	189	2
84	84	4
191	208	2
65	110	1
226	226	2
69	201	1
8	16	2
65	65	3
118	246	1
54	54	3
44	44	6
225	225	6
180	180	10
102	102	6
164	173	3
41	41	3
79	81	6
59	68	2
113	154	4
186	190	1
12	15	2
161	161	2
188	189	5
173	173	5
212	212	3
220	220	1
30	30	1
14	14	3
163	172	4
57	57	2
81	81	6
20	20	2
21	22	4
163	173	6
222	222	2
159	159	2
215	215	1
79	159	2
161	183	3
243	243	4
44	45	3
239	239	4
10	10	4
185	187	2
35	52	3
32	32	2
110	156	1
43	44	2
202	203	3
117	117	1
220	242	1
31	31	1
32	54	2
228	229	2
74	158	3
205	214	2
228	240	1
9	10	5
240	240	5
47	56	5
56	60	3
231	237	1
196	196	2
45	45	4
168	168	4
79	158	1
78	78	3
21	21	7
37	37	2
96	96	7
171	171	2
36	36	1
82	82	4
154	154	5
165	165	3
20	49	3
198	199	1
154	155	2
49	56	1
183	183	6
88	88	1
239	240	2
48	48	1
113	113	8
147	147	5
231	231	2
214	214	2
238	239	2
72	152	2
68	68	11
1	36	2
0	44	1
108	108	4
27	33	1
245	245	1
197	206	3
106	108	2
100	100	3
187	187	5
31	32	3
30	34	1
169	169	6
92	93	2
183	205	1
191	205	1
172	172	1
46	46	6
246	246	2
26	32	2
73	73	4
184	184	2
110	111	3
244	244	2
203	203	2
49	66	4
15	15	4
50	50	2
206	207	4
220	244	3
40	40	3
38	43	4
51	53	5
185	185	4
116	116	3
210	210	2
31	34	1
86	86	2
55	55	4
177	177	2
52	53	1
217	217	3
231	232	1
166	181	2
7	8	3
235	236	1
3	45	9
109	156	1
232	237	2
237	237	1
109	111	1
204	204	2
82	107	2
228	230	1
12	14	2
49	67	3
30	60	1
219	240	1
197	198	3
63	63	1
101	101	3
189	189	2
7	11	1
166	166	2
185	188	1
57	60	1
4	5	1
190	190	4
206	206	2
104	117	1
222	233	2
7	7	2
48	57	3
13	14	1
215	219	1
59	67	2
190	208	1
107	111	2
81	82	2
49	62	1
207	208	2
44	47	2
72	72	2
205	206	3
57	67	3
207	209	2
233	234	1
70	70	1
213	213	2
70	153	2
193	217	4
191	210	2
242	242	1
103	103	1
203	234	2
119	119	1
143	149	1
219	220	2
58	61	3
39	46	2
176	176	1
193	194	1
227	227	5
145	145	1
200	212	2
209	209	1
153	153	1
162	174	2
211	211	1
95	96	4
161	167	1
107	107	2
247	248	2
112	113	1
32	33	3
163	163	2
178	178	1
77	159	1
25	25	1
17	17	2
52	59	1
216	218	1
193	218	3
58	58	1
37	60	3
1	10	1
43	43	3
39	39	1
90	92	1
92	92	2
172	173	2
192	192	1
203	224	2
60	61	1
237	239	2
85	86	1
174	174	1
62	64	2
167	167	1
30	48	1
52	52	1
33	33	3
192	193	2
91	91	3
186	191	1
16	16	1
18	202	2
77	77	1
38	54	2
75	76	2
231	233	3
102	103	2
236	237	1
169	172	3
200	201	1
2	2	2
150	150	3
203	235	2
182	183	3
99	99	1
34	34	1
164	164	4
56	66	1
160	161	1
175	175	1
186	187	2
186	192	5
242	243	1
96	99	1
204	214	1
27	28	1
214	215	1
56	57	1
76	77	1
56	56	2
91	101	1
76	157	1
208	209	3
200	200	1
179	183	1
73	105	1
57	58	1
106	107	2
162	162	2
99	103	2
108	110	1
216	216	1
98	98	2
87	87	1
80	81	1
226	227	1
67	67	1
199	212	1
47	47	1
117	118	1
105	105	1
201	201	1
84	85	1
216	217	1
29	31	1
178	182	1
108	112	1
9	69	1
193	195	1
101	103	1
71	153	1
29	33	1
76	113	1
52	104	1
207	207	1
223	224	1
48	60	1
179	179	1
70	71	1
105	158	2
92	97	1
199	234	1
2	36	1
193	193	1
104	159	1
72	159	1
75	107	1
242	244	1
205	212	1
104	104	1
74	75	1
194	232	1
70	72	1
74	74	1
93	93	1
105	107	1
78	84	1
220	238	1
9	51	1
69	69	1
59	59	1
17	19	1
238	238	1
65	66	1
113	153	1
74	106	1
