5	19	5
20	20	2
9	46	3
129	129	2
77	77	3
101	104	3
41	50	2
90	92	3
23	23	7
98	98	7
24	24	2
5	24	4
130	131	1
92	111	3
60	60	4
33	33	3
64	65	1
6	19	3
46	46	8
105	112	6
78	79	5
97	97	2
71	73	3
13	13	7
86	104	1
104	104	14
78	78	3
68	126	3
78	92	4
92	128	2
125	126	5
55	56	1
128	129	4
43	43	4
44	44	1
106	106	5
83	84	1
90	128	4
112	112	1
117	125	2
132	132	4
42	42	5
93	108	2
2	2	4
68	68	8
115	127	1
69	133	5
117	117	3
36	49	1
62	62	6
1	60	3
65	66	1
21	22	2
24	82	2
30	30	4
83	88	1
17	17	5
72	72	8
102	102	2
11	11	4
96	99	4
24	28	1
84	117	3
87	94	2
91	129	4
79	79	6
57	59	5
31	36	3
1	1	5
119	122	2
29	29	1
18	77	2
14	16	1
84	94	5
100	100	8
95	125	7
12	18	2
48	49	2
127	130	1
118	125	3
56	56	2
70	70	7
5	20	2
81	81	4
65	65	4
43	44	1
4	26	3
124	124	7
111	113	2
72	73	2
59	86	5
24	31	1
46	47	3
86	86	2
113	113	5
27	38	3
61	61	1
69	69	2
28	28	6
8	8	2
8	30	1
64	64	3
122	132	1
22	79	2
127	132	1
59	77	2
39	48	2
122	123	2
22	22	1
7	20	3
94	95	1
101	102	1
88	88	3
36	43	3
58	58	2
127	131	2
35	38	4
41	82	3
80	80	1
111	111	1
10	32	2
36	48	2
34	36	4
28	31	2
55	55	1
116	130	1
4	29	2
41	41	4
59	59	3
37	37	1
76	76	1
85	85	1
85	106	1
115	130	2
6	80	1
93	93	2
25	79	1
130	130	2
71	72	2
98	104	1
17	77	3
127	127	7
115	115	2
19	19	5
71	71	3
90	110	1
114	114	1
125	125	4
4	4	1
41	42	3
27	35	1
96	96	3
15	15	3
108	108	2
20	22	1
14	19	1
105	105	3
39	50	2
36	81	1
10	10	2
31	38	3
64	66	4
4	33	1
93	101	1
57	134	4
6	28	1
118	124	1
69	131	1
1	117	4
34	34	2
59	72	1
51	51	3
99	103	1
25	25	1
90	90	1
57	57	1
131	131	1
36	36	2
14	21	1
35	35	2
6	6	1
66	66	2
22	78	1
18	69	2
75	75	1
16	16	1
85	98	1
26	26	1
36	40	1
96	103	1
118	118	2
122	127	1
88	89	2
4	9	1
8	10	1
68	122	1
74	74	1
7	7	1
128	128	1
123	126	2
99	101	1
0	0	1
83	87	1
84	84	1
39	39	1
98	101	1
9	9	1
17	69	1
2	16	2
32	33	1
118	127	1
91	91	3
69	70	1
96	101	1
17	116	1
85	93	1
12	22	1
59	60	2
85	95	1
68	87	1
34	44	1
65	102	1
113	116	1
42	131	2
111	125	1
