80	80	6
126	126	12
129	129	21
109	109	7
44	44	14
48	48	10
116	141	4
101	101	18
81	82	6
104	104	5
103	103	11
80	136	2
96	96	7
78	78	5
120	120	11
118	118	4
128	128	7
95	95	3
38	40	3
81	86	4
62	62	7
150	150	12
51	51	5
44	51	7
47	48	2
19	19	5
135	135	26
156	156	16
75	75	9
30	57	1
151	152	4
137	137	8
105	105	7
99	99	13
149	149	4
5	11	6
54	54	3
82	83	2
28	28	13
148	148	3
51	95	2
69	91	1
24	24	11
74	74	1
26	27	2
88	88	9
151	151	2
21	21	9
73	73	10
15	15	1
110	110	10
132	132	11
120	121	9
45	48	5
30	30	9
12	14	3
22	23	4
140	140	6
71	71	8
94	94	5
109	110	3
4	144	3
22	22	6
91	91	5
25	25	12
36	69	2
112	134	2
14	14	12
143	143	4
72	109	1
24	32	4
79	79	8
122	143	3
99	100	1
155	157	3
107	107	9
98	98	11
53	53	7
68	68	6
106	106	8
116	116	12
35	38	6
42	43	2
125	127	2
35	44	3
6	6	10
5	5	9
18	19	3
87	87	12
139	155	1
73	74	1
52	52	4
40	40	4
12	13	3
47	47	6
100	100	8
77	78	3
102	129	4
12	63	5
120	141	3
3	56	2
112	112	5
111	111	5
100	101	1
1	1	8
142	142	10
121	148	2
98	99	3
36	37	5
27	29	4
72	72	7
104	105	6
18	18	10
11	11	5
85	85	5
119	120	4
120	145	2
86	89	1
2	2	8
124	124	11
32	37	2
30	36	1
41	42	1
108	110	3
88	89	4
114	115	2
82	82	6
70	88	3
66	66	5
67	68	1
56	63	1
84	84	8
46	47	3
113	114	6
47	52	4
85	115	1
77	77	5
124	125	5
25	33	2
69	69	13
11	18	4
139	139	6
41	41	7
12	12	8
31	34	1
55	71	2
50	51	4
144	149	2
65	66	2
93	93	5
139	150	2
122	122	4
53	54	5
33	33	8
13	14	5
154	154	4
134	139	2
89	89	7
123	123	6
103	107	2
91	96	2
131	131	5
68	69	2
16	31	2
86	87	1
113	115	2
63	63	1
117	117	19
144	144	3
121	154	2
36	36	6
130	131	1
38	53	3
46	67	1
85	91	5
47	56	1
32	32	8
64	64	6
11	12	5
146	157	4
31	32	2
73	75	5
49	70	3
134	134	9
87	88	3
126	130	3
43	43	8
25	27	1
42	44	2
39	39	8
79	80	4
131	132	1
15	16	4
138	139	4
18	117	2
134	137	1
67	67	6
88	110	1
17	17	7
132	142	3
83	83	1
127	127	4
149	150	2
31	31	12
35	35	4
30	37	3
138	138	7
142	154	2
23	23	2
123	124	4
19	32	1
115	115	6
9	9	3
6	18	1
26	26	6
132	156	1
150	151	3
83	103	2
0	0	1
65	65	7
147	158	1
147	147	4
99	131	2
1	2	3
92	92	6
125	125	8
102	102	2
25	26	5
31	36	4
69	70	2
94	96	3
37	37	5
50	50	6
67	136	2
8	9	1
28	36	1
121	121	1
34	34	6
37	39	3
98	107	1
23	116	1
119	119	4
42	42	1
126	127	4
104	129	2
102	105	2
92	93	2
45	45	6
76	76	4
38	44	1
141	141	7
56	56	7
132	136	2
148	149	2
46	46	2
4	4	4
26	94	3
8	11	2
14	15	1
148	150	1
87	112	1
108	111	1
113	113	5
157	157	4
27	27	7
33	34	3
15	52	1
3	4	5
155	156	3
121	122	2
86	86	5
38	38	5
16	30	2
2	5	1
8	10	1
7	8	3
81	81	10
79	123	4
82	88	1
21	22	5
152	152	3
90	91	2
98	129	2
35	42	1
137	138	4
133	134	2
24	25	5
13	13	3
91	92	3
17	37	1
91	133	2
97	97	8
38	41	1
19	20	1
31	40	2
101	104	1
134	138	3
108	109	2
70	70	3
25	35	2
65	114	5
86	93	1
158	158	5
117	122	1
128	129	2
47	83	2
11	13	2
136	137	3
29	29	2
150	153	1
135	137	2
48	54	1
23	57	1
3	3	4
80	81	4
8	8	2
106	108	2
12	27	1
131	138	1
153	153	2
7	7	2
135	148	1
21	43	1
144	145	2
153	154	1
127	128	1
78	93	1
49	49	1
92	126	1
67	72	1
78	114	2
132	133	3
130	130	5
67	71	1
78	79	1
125	135	1
52	63	1
155	155	1
122	146	1
83	84	2
115	129	2
62	70	1
2	4	2
108	108	2
106	109	1
146	146	1
45	47	1
49	52	1
57	57	1
80	86	2
63	70	1
39	40	1
16	29	1
112	113	1
103	129	1
142	143	1
55	55	2
69	99	1
90	90	2
3	157	1
146	147	3
17	18	1
40	43	1
36	56	1
103	140	2
134	142	2
72	75	1
1	5	1
62	71	1
136	136	1
154	157	1
54	68	1
112	144	2
3	45	1
17	19	1
75	95	1
10	10	1
83	108	1
133	140	4
27	44	2
49	51	1
103	104	1
104	106	1
15	29	1
14	17	1
111	151	1
129	130	1
5	32	1
137	148	1
25	94	1
84	85	1
111	148	1
7	9	1
51	52	1
75	76	1
83	107	1
49	83	1
79	92	1
11	158	1
50	84	1
