126	126	10
129	129	4
65	173	3
92	93	3
84	84	2
83	89	1
52	99	1
167	167	6
29	29	6
130	130	10
136	136	6
120	120	7
12	12	3
123	123	6
152	164	1
125	142	2
145	146	2
0	17	3
72	72	6
95	159	5
152	152	3
80	117	1
141	141	2
64	86	3
7	17	1
102	142	1
148	172	6
88	89	2
162	163	1
20	23	1
82	95	2
156	157	2
66	66	7
6	7	3
95	150	3
144	145	2
9	11	2
124	162	2
15	15	3
122	123	2
74	74	10
126	128	2
17	27	2
109	146	1
154	156	2
5	5	7
117	117	10
177	178	4
22	42	1
149	151	2
157	159	9
127	130	1
7	7	5
158	158	2
104	104	5
116	136	3
54	54	3
102	103	3
116	116	2
166	166	12
22	22	5
33	33	8
13	13	3
97	98	1
5	6	3
39	39	3
120	133	1
179	179	2
133	133	3
165	165	6
92	94	4
132	145	1
126	127	3
102	102	4
110	111	1
56	76	6
52	53	2
103	137	2
61	61	11
14	14	5
157	158	12
24	24	6
96	152	1
171	171	3
98	98	3
127	127	9
144	144	2
57	57	2
147	171	1
143	143	6
10	10	5
83	83	1
73	73	12
105	172	1
139	140	5
85	85	6
19	19	3
119	157	4
55	103	2
105	174	4
26	26	2
112	113	1
27	27	4
142	161	2
159	159	1
90	92	2
52	52	2
115	115	2
42	42	5
92	149	3
90	91	2
115	116	2
91	91	4
173	173	7
3	3	7
49	49	2
27	28	5
90	90	2
52	109	2
98	157	3
142	143	1
157	157	5
136	146	1
160	160	8
15	24	3
80	80	3
16	22	2
2	4	1
5	24	3
60	91	3
110	157	5
43	43	7
155	170	2
122	130	3
59	59	7
51	105	2
38	39	3
103	103	4
128	134	2
9	21	4
107	112	2
147	147	6
157	162	1
149	150	1
37	38	1
39	67	1
95	113	3
9	32	2
155	160	2
93	93	11
100	101	5
14	15	2
107	153	2
114	168	2
67	67	2
110	110	1
165	167	1
90	94	4
106	107	2
65	174	2
38	38	4
87	87	4
8	11	3
149	169	1
104	105	1
178	178	3
8	10	4
18	19	3
138	138	6
75	148	1
117	118	2
158	159	1
99	99	1
170	171	1
133	136	1
33	45	3
119	121	4
8	9	2
83	150	2
163	164	1
124	124	1
84	151	1
112	146	2
112	112	3
81	81	3
60	60	2
18	18	10
53	53	3
129	168	2
44	44	3
112	171	1
91	95	1
105	107	3
147	169	3
2	2	5
100	113	2
75	75	1
144	158	1
62	62	2
137	137	3
55	57	3
162	166	2
32	32	5
52	58	1
132	146	4
160	161	3
139	139	2
40	40	4
78	79	1
19	20	3
28	28	2
165	172	3
101	154	2
105	105	5
53	85	1
8	8	2
118	168	2
96	172	1
108	108	8
123	124	1
118	137	2
96	150	2
78	78	1
1	1	2
12	36	2
34	34	8
125	126	3
107	109	1
173	175	1
51	51	5
172	174	1
109	109	2
109	151	1
77	77	1
58	58	3
155	155	1
170	170	4
55	55	6
0	0	3
24	30	1
168	168	2
53	54	1
12	13	1
41	41	3
68	151	1
9	9	2
30	31	5
11	12	2
148	148	1
50	52	1
154	167	1
145	152	3
5	25	2
92	97	2
154	154	7
60	89	1
116	117	2
122	131	1
161	161	3
59	67	3
130	131	1
13	33	2
29	30	1
33	68	1
32	34	2
173	174	6
43	73	2
15	25	1
134	135	1
85	91	2
40	41	4
150	151	1
92	92	2
171	172	2
36	37	2
74	75	3
96	151	1
7	21	1
149	154	1
23	23	2
150	150	2
65	65	1
88	88	2
133	179	1
159	162	1
111	112	1
85	88	4
89	90	1
133	178	2
13	67	1
11	11	1
96	96	1
13	63	2
22	23	1
79	80	3
101	113	2
66	67	4
125	125	1
63	63	3
87	97	2
21	22	2
95	95	2
56	56	1
4	4	2
80	155	1
21	21	1
107	152	1
76	77	1
37	37	3
119	120	1
20	20	3
165	173	2
125	169	1
153	172	1
28	29	3
135	147	1
130	168	1
98	100	1
7	141	1
107	133	1
93	140	2
70	70	1
118	171	4
24	25	3
13	20	1
58	62	2
50	51	2
45	46	1
24	162	1
35	45	1
135	176	1
37	68	2
54	58	1
112	157	3
156	156	1
16	17	1
86	86	2
97	97	2
66	70	1
22	71	1
164	164	2
101	101	2
83	84	1
65	84	1
16	25	3
112	115	1
116	167	1
124	134	1
127	128	1
169	169	1
116	166	2
113	113	2
88	91	1
71	71	1
172	172	1
98	99	1
39	40	2
131	179	1
31	35	1
68	90	2
168	170	1
110	129	1
132	132	2
102	119	1
145	145	1
76	76	1
61	71	1
57	76	1
112	158	1
79	79	2
135	135	1
8	19	1
122	122	1
77	78	1
145	154	1
131	146	1
134	134	1
80	81	1
121	121	1
75	76	1
17	17	1
87	98	1
31	31	1
3	4	1
38	40	1
55	56	1
80	116	1
149	149	1
84	86	1
24	29	1
2	3	1
91	96	1
