128	129	1
170	170	4
142	152	1
196	196	5
114	115	2
96	98	4
46	46	3
142	142	3
102	159	1
108	109	4
107	122	2
87	87	8
1	1	5
11	14	1
167	167	5
18	32	6
21	21	7
118	119	2
26	35	3
47	57	3
31	40	3
132	132	9
85	85	8
37	42	4
166	166	6
34	34	7
106	107	3
193	193	4
28	28	1
72	72	13
134	134	6
25	25	8
162	171	1
29	29	1
161	161	12
36	38	2
23	30	3
165	165	7
162	162	1
94	94	3
169	172	1
112	113	5
195	196	10
105	105	1
171	171	9
160	161	1
119	184	1
58	58	10
19	27	5
137	137	14
99	106	3
154	154	4
197	197	7
30	30	2
135	137	5
140	140	4
63	65	6
10	17	4
48	48	4
0	9	4
149	149	8
120	131	2
43	45	1
191	192	4
83	83	3
31	35	3
123	134	3
93	99	1
55	55	8
141	142	3
116	117	4
35	51	4
97	108	2
46	47	1
100	100	4
184	185	2
11	15	3
37	37	11
10	10	3
187	187	3
52	52	6
169	169	2
122	122	14
12	58	6
104	104	4
152	152	1
9	9	4
59	61	1
64	73	3
188	191	1
186	186	2
179	179	7
143	143	10
2	3	5
114	114	5
159	164	1
63	63	6
57	57	4
85	86	3
173	174	9
194	194	10
195	195	3
32	42	3
108	114	4
78	78	4
11	19	1
121	121	4
86	88	11
163	164	5
4	5	3
99	100	5
156	156	5
47	49	2
22	23	1
117	119	1
69	70	1
123	123	3
144	144	5
136	136	2
17	53	3
191	191	10
53	54	1
69	69	2
143	144	6
70	70	3
71	72	4
12	24	2
120	120	3
20	26	4
161	162	2
49	49	7
119	121	4
118	118	1
41	43	3
23	70	3
110	110	5
26	26	4
157	158	3
124	129	2
143	152	4
112	117	1
186	194	2
72	82	3
131	132	4
76	76	1
129	129	2
107	119	2
113	113	5
175	178	2
154	161	3
159	159	2
99	124	1
22	22	1
99	99	5
33	35	3
105	106	1
121	122	4
54	54	3
189	189	1
160	163	6
67	68	2
67	76	1
68	69	1
100	107	3
104	110	1
33	33	7
156	164	3
39	186	3
65	65	3
175	184	3
0	12	2
58	59	4
2	2	5
97	97	2
50	51	1
119	119	2
0	2	1
124	127	1
39	39	4
27	39	2
40	40	3
148	150	5
72	73	2
64	64	9
11	11	5
4	4	5
133	136	4
42	46	3
16	16	1
179	180	3
148	148	1
27	27	11
190	191	1
168	169	2
178	183	3
114	123	4
36	37	3
89	89	3
172	172	2
115	118	2
81	81	1
68	71	1
31	31	5
144	157	1
125	127	5
74	75	3
33	55	2
12	21	2
98	109	2
60	60	2
185	185	1
150	152	3
12	60	1
55	66	2
94	102	3
36	139	3
38	46	3
2	6	2
173	177	3
156	158	4
35	38	2
6	6	2
182	182	3
146	146	13
153	153	4
14	14	3
62	69	4
82	82	6
59	59	9
95	95	4
47	54	1
188	188	2
68	68	4
62	81	2
24	24	4
185	190	2
108	108	1
36	36	3
147	147	2
23	23	6
174	174	1
192	192	5
140	141	2
40	41	4
70	72	1
141	141	3
116	116	5
47	47	3
26	30	2
42	47	2
97	113	3
98	98	1
25	49	1
10	12	5
7	11	2
20	21	6
41	49	2
79	79	1
105	111	2
79	82	1
181	181	2
112	112	5
59	62	1
150	150	4
1	18	4
132	133	3
173	173	1
57	71	2
145	149	2
122	179	2
120	179	2
120	122	2
26	27	1
163	172	1
102	102	3
150	156	3
107	107	2
0	17	4
66	71	2
180	180	1
53	53	3
65	74	1
100	110	1
53	55	1
48	51	2
158	158	2
20	20	5
12	12	1
1	6	1
76	77	3
13	13	6
155	159	4
146	147	2
0	3	2
103	103	1
46	53	1
177	177	4
149	156	1
45	45	2
116	120	1
192	197	1
176	185	1
183	188	2
95	102	4
28	42	5
171	181	3
109	120	2
123	128	2
124	133	1
157	157	5
67	67	3
38	38	1
16	17	3
101	101	3
61	61	2
164	169	4
18	18	2
66	68	4
182	194	1
44	51	1
54	63	1
103	110	1
109	110	3
135	135	4
111	114	1
196	197	2
38	51	1
164	179	2
51	52	3
172	174	2
128	168	2
46	185	1
73	75	2
176	180	1
115	115	2
0	18	1
82	86	3
73	73	2
33	42	2
163	171	1
172	176	1
95	96	2
76	84	3
45	50	1
96	96	6
96	103	1
129	138	1
98	108	1
155	163	3
77	78	1
110	111	2
32	33	3
151	153	2
155	156	2
178	178	3
172	173	1
29	36	1
16	21	1
84	84	2
32	40	1
113	123	1
56	56	3
8	9	4
117	118	2
44	53	2
193	194	1
186	191	4
80	80	2
141	196	2
28	30	1
6	9	1
115	116	1
138	138	1
87	175	1
44	54	4
7	9	1
69	80	2
19	31	3
47	51	1
96	106	1
66	66	2
170	173	1
52	54	2
29	31	2
177	187	1
163	166	3
120	121	1
63	68	1
11	13	3
182	190	3
138	140	2
164	165	4
94	95	1
39	43	2
81	85	1
97	106	1
190	190	2
26	46	2
4	12	1
182	184	1
136	140	2
50	63	1
108	120	1
95	97	1
160	160	2
34	46	1
104	111	4
17	17	1
20	27	1
77	80	2
36	50	1
160	167	1
45	70	1
67	75	3
186	190	2
79	81	1
33	43	1
152	157	2
161	166	2
127	127	3
15	15	1
188	189	1
100	101	1
59	60	5
9	10	1
137	139	2
62	74	1
183	183	1
109	109	2
139	140	3
146	151	1
66	73	1
3	8	1
34	39	1
94	179	1
126	131	2
98	102	2
147	148	1
129	141	1
100	102	1
4	17	1
39	41	2
78	79	1
14	53	2
16	18	1
5	6	1
126	132	1
161	164	1
82	88	1
38	40	1
124	124	3
42	42	2
107	111	1
70	71	2
32	32	1
0	0	2
101	105	1
43	43	1
154	155	1
97	98	2
62	62	1
185	187	1
87	90	1
128	128	1
41	41	2
0	8	3
187	189	2
140	156	1
1	3	2
138	142	2
137	148	1
2	4	1
109	130	1
178	180	1
56	66	2
152	154	1
100	105	2
7	7	1
54	56	1
182	188	1
190	193	1
104	105	1
184	184	2
115	126	2
25	36	1
125	126	1
5	5	1
37	55	1
131	142	1
140	142	1
182	183	1
83	181	1
27	30	2
130	130	1
71	81	1
12	32	1
29	38	1
164	173	1
169	176	1
22	24	1
3	15	1
46	49	1
65	66	1
139	139	1
76	79	1
131	139	1
27	28	1
84	88	1
38	41	1
1	8	1
94	121	1
93	101	1
93	93	1
189	191	1
122	130	1
192	193	1
109	115	1
163	167	1
153	165	1
154	164	1
22	30	1
128	155	1
144	160	1
135	136	1
10	23	1
54	55	1
71	74	1
138	196	1
