105	105	12
102	102	6
78	80	5
32	32	15
6	6	18
65	65	9
98	99	2
7	7	13
30	30	11
119	119	10
98	98	12
56	94	4
83	84	2
31	68	5
4	5	9
90	90	9
7	8	7
127	128	8
44	44	11
49	49	16
88	88	9
87	87	7
126	126	6
21	22	4
65	66	9
11	11	20
106	108	3
25	67	4
25	25	14
85	85	15
90	91	5
103	103	12
115	116	3
43	73	2
100	100	10
12	13	9
115	119	1
127	127	14
2	2	17
116	128	6
56	56	12
16	16	8
36	37	5
38	38	2
52	52	11
79	79	12
121	121	11
109	111	7
73	73	10
23	23	8
78	79	2
73	74	3
95	95	10
27	30	1
81	90	7
113	116	7
1	2	8
15	15	11
105	108	3
96	96	19
29	29	13
59	59	13
101	102	2
29	33	6
134	134	15
8	8	10
123	123	8
84	84	12
107	110	2
7	10	1
67	67	15
10	10	15
9	9	8
18	18	2
31	31	10
0	13	2
9	37	1
35	37	3
129	129	4
17	17	3
86	87	4
77	77	12
115	115	6
99	99	6
97	97	20
75	75	15
33	33	20
19	19	12
5	5	22
28	29	6
45	102	5
117	118	1
79	80	7
116	116	7
33	34	16
12	12	7
131	131	5
114	114	16
37	37	4
72	72	6
60	61	6
0	1	1
109	109	19
21	21	10
122	122	17
83	83	13
57	57	5
35	35	14
53	53	12
24	34	5
96	133	6
13	13	8
48	94	3
50	73	5
36	36	12
4	4	11
130	131	7
34	35	8
30	44	2
116	117	9
133	133	13
60	62	2
82	82	18
2	5	1
66	68	3
14	14	18
0	2	4
33	35	4
105	114	2
27	28	8
1	78	6
78	78	17
112	112	7
117	127	1
26	27	3
0	0	11
1	1	7
110	111	9
86	86	12
28	28	8
109	123	2
107	111	3
15	21	2
20	20	13
122	123	14
85	86	1
102	103	4
35	66	2
80	80	12
62	62	7
132	132	8
44	102	2
27	27	12
82	83	5
93	93	4
111	111	17
43	43	6
59	82	3
2	26	7
118	129	3
21	45	2
65	67	3
72	100	4
58	58	5
50	94	4
130	132	6
110	110	11
62	64	2
124	125	7
74	74	3
22	22	12
64	71	4
112	124	2
26	26	17
0	8	2
37	38	2
106	110	5
105	115	3
49	72	1
60	60	12
103	105	1
131	133	10
91	92	10
54	94	3
113	113	14
64	64	6
104	104	15
96	97	6
92	92	5
128	128	10
50	52	3
59	68	2
66	66	10
65	69	1
101	134	2
101	101	7
122	124	4
45	115	4
129	130	8
95	96	3
59	60	4
94	94	16
77	79	3
9	10	1
76	76	13
5	9	2
119	125	7
47	50	3
17	18	7
73	100	4
91	91	5
16	36	2
81	81	6
133	134	10
44	108	2
80	81	4
42	42	5
66	69	4
7	37	1
47	47	11
72	73	3
1	65	1
113	121	6
56	58	4
53	54	3
38	88	1
96	116	1
44	45	4
119	120	3
84	85	4
113	124	2
69	69	13
135	135	1
68	69	6
82	84	2
126	127	2
103	107	3
87	88	1
44	96	2
71	71	8
130	130	10
35	38	2
62	63	3
58	59	3
82	87	4
24	24	12
124	124	9
52	54	3
132	133	6
126	128	4
22	25	1
128	131	7
127	130	2
76	77	2
34	34	8
105	106	4
62	65	4
2	3	5
107	107	11
23	24	1
29	30	4
46	70	4
84	86	8
92	118	2
76	89	1
71	72	7
15	28	1
120	120	3
100	130	2
66	67	1
92	93	3
58	67	1
106	126	1
78	94	3
3	3	6
120	121	8
93	94	13
80	112	2
57	58	4
0	12	2
16	20	2
111	123	2
24	25	4
115	120	1
63	63	5
121	123	1
90	115	7
125	125	7
52	53	2
18	24	5
30	32	2
50	50	3
76	78	2
22	47	3
49	50	2
83	93	1
72	120	2
94	101	2
128	130	1
54	55	11
45	46	5
68	68	4
70	75	1
61	61	10
10	11	4
116	129	1
107	108	3
54	56	3
118	118	9
131	132	3
70	70	4
32	37	2
72	112	2
1	13	4
7	80	1
39	39	3
56	57	3
43	59	1
65	83	2
37	92	3
101	105	4
15	22	2
81	82	3
20	21	3
31	32	3
19	25	2
134	135	2
47	105	2
6	7	1
3	4	6
61	62	12
89	89	8
125	133	1
42	92	1
127	129	3
19	23	2
108	109	3
117	117	3
83	92	2
22	23	2
55	55	2
106	107	4
20	23	7
2	61	2
83	89	2
77	95	3
44	83	1
63	71	4
15	16	2
106	106	3
97	132	1
46	46	2
98	106	2
11	12	3
112	116	1
108	111	3
96	103	1
97	98	2
99	100	3
52	82	3
94	98	1
30	33	2
62	74	3
19	21	2
121	122	1
18	20	1
125	126	1
61	93	2
96	106	2
113	115	1
128	129	2
14	66	2
111	112	1
126	129	2
48	48	7
68	71	2
102	108	1
104	105	5
77	78	1
45	45	5
114	123	3
67	77	1
13	15	3
1	3	3
132	134	1
84	92	1
26	35	1
15	27	1
104	125	1
76	79	1
109	110	1
55	56	1
72	99	1
57	59	2
57	72	1
52	67	1
2	24	1
64	65	1
108	108	5
75	76	1
10	23	1
109	113	1
31	66	1
20	53	2
32	33	1
63	67	1
83	86	1
66	70	1
84	87	1
81	112	1
7	11	1
68	80	1
35	72	1
21	23	1
43	131	1
130	133	1
43	116	1
81	87	2
37	81	2
43	80	2
94	95	2
43	61	1
2	4	1
32	34	1
11	23	1
20	22	1
3	31	1
43	106	1
131	134	4
77	85	1
55	83	1
30	31	1
44	99	1
116	124	1
68	92	2
65	68	1
12	34	2
13	63	1
107	118	1
75	79	1
47	53	1
25	26	1
121	125	1
22	32	2
10	15	1
120	122	1
91	116	1
24	26	1
48	49	1
53	82	1
53	70	1
16	28	1
106	111	1
104	126	1
80	87	1
92	94	2
37	83	1
7	15	1
129	131	1
23	38	1
36	79	1
50	93	1
77	90	1
100	101	1
70	89	1
