18	69	1
11	11	12
78	78	17
47	48	10
75	75	8
59	61	13
50	50	13
65	66	5
68	68	17
50	56	5
58	58	10
82	82	6
72	74	2
13	31	1
72	73	8
58	67	9
8	8	6
22	22	10
26	26	10
51	51	9
5	16	1
19	27	5
31	31	9
77	77	13
55	56	4
74	80	8
7	9	6
34	34	12
65	79	2
0	0	14
24	24	10
64	66	10
4	19	4
7	7	19
4	4	14
68	69	5
25	25	8
48	49	12
6	6	9
4	15	3
86	86	9
60	60	17
67	67	12
16	19	1
3	3	21
17	17	16
16	17	1
47	47	8
80	80	14
63	64	4
10	10	7
71	71	11
88	88	6
14	14	8
20	20	8
5	5	8
76	76	21
2	2	7
16	16	2
48	48	16
52	52	11
81	81	3
76	77	9
8	9	3
70	71	4
59	60	5
77	78	2
83	83	14
73	73	16
9	13	6
64	64	16
66	66	7
72	79	2
55	55	12
77	83	4
89	89	4
19	20	6
84	84	7
61	63	7
25	26	4
34	35	7
28	28	6
33	33	3
61	61	3
19	19	4
56	69	1
11	12	6
57	57	14
74	74	15
3	4	14
65	65	16
63	63	4
52	60	2
84	85	3
87	87	9
52	53	2
47	66	5
54	54	16
65	71	3
12	12	1
62	63	4
8	26	4
72	72	5
67	68	8
69	69	13
79	79	6
63	66	1
79	81	1
22	24	1
53	53	14
12	25	2
23	23	8
55	68	1
11	13	3
54	55	6
56	57	4
7	8	3
10	13	2
64	65	8
5	49	6
56	56	11
30	30	7
5	7	2
85	85	9
75	77	3
17	24	1
17	69	3
73	74	4
13	13	9
27	27	11
12	53	1
52	54	1
59	59	13
59	63	2
19	26	4
15	15	7
5	26	3
5	48	2
20	25	2
59	62	2
60	63	4
62	62	11
70	70	4
1	1	8
29	87	5
81	82	5
10	11	3
6	13	3
20	30	3
82	83	3
13	14	6
4	69	1
7	13	12
75	76	3
17	26	2
70	74	1
81	83	5
74	83	3
48	62	2
12	13	4
9	12	4
78	80	4
21	22	1
12	14	1
49	49	10
79	80	5
74	84	1
21	21	5
52	61	1
9	9	9
57	67	2
57	58	4
8	50	1
46	71	2
6	7	3
85	86	2
17	20	1
71	73	5
89	90	2
5	51	1
9	52	3
17	19	2
27	74	1
13	50	2
51	52	3
80	81	2
7	50	2
46	47	4
46	46	3
87	88	2
65	80	1
14	25	1
32	32	3
9	10	3
19	69	1
51	53	3
24	31	1
27	28	2
71	72	1
0	1	2
27	30	3
58	66	4
60	67	2
9	11	1
20	24	1
77	82	2
66	67	1
24	25	3
15	68	1
4	18	1
49	50	2
69	70	2
10	14	2
3	69	1
8	11	2
24	30	2
78	79	1
4	22	2
34	75	4
47	60	3
88	89	4
46	48	1
18	55	1
29	30	1
74	79	1
70	83	1
60	64	1
60	61	1
87	89	4
53	54	1
7	49	1
90	90	1
6	50	2
65	78	1
22	23	1
15	25	1
84	86	1
47	63	1
58	59	1
27	71	2
23	24	1
7	25	1
85	87	1
3	23	1
