11	11	3
144	144	7
145	145	1
137	137	4
54	54	12
84	84	3
38	38	13
126	127	2
131	134	4
95	97	3
40	40	10
115	115	5
45	45	4
108	116	5
124	124	7
117	118	2
22	22	5
20	21	7
25	27	10
78	78	9
92	92	5
141	141	3
124	131	1
86	86	7
116	117	3
139	139	6
138	139	1
35	36	3
108	109	6
25	25	10
41	43	1
19	20	7
147	147	2
15	15	13
29	30	6
29	29	7
151	152	2
125	125	4
101	101	4
126	126	6
53	71	1
80	89	7
25	138	3
132	133	2
53	54	2
89	89	3
117	133	2
4	5	1
114	122	4
127	140	1
140	140	1
102	102	5
5	7	3
36	37	6
82	87	3
49	49	5
44	45	4
108	108	7
16	16	9
82	82	13
147	148	2
104	104	5
28	28	5
116	116	9
113	114	1
6	6	4
32	39	4
122	122	12
73	128	3
83	84	3
106	106	9
67	67	4
50	50	3
87	107	2
22	95	4
123	125	2
87	87	8
47	47	2
124	125	2
23	23	4
123	123	12
55	55	6
71	72	2
107	107	4
86	87	3
34	34	5
124	134	3
81	81	12
85	85	8
128	128	11
79	80	4
56	56	7
37	40	3
142	142	7
30	30	2
121	121	5
70	71	6
110	110	5
25	39	4
138	138	1
81	82	7
95	95	8
141	143	7
68	145	1
111	122	2
46	49	4
65	65	6
111	113	3
2	2	4
94	94	13
79	79	5
155	156	5
52	52	1
96	96	4
51	52	3
130	130	3
2	51	1
1	1	2
7	7	1
154	154	2
103	103	5
24	36	3
114	114	2
120	138	3
148	148	4
31	37	1
122	133	3
0	1	6
153	154	6
19	19	1
36	36	4
112	112	1
155	155	1
107	116	3
104	105	1
35	35	4
93	93	4
3	5	3
47	48	2
13	13	2
70	70	7
94	118	1
18	19	4
12	13	1
67	69	2
8	8	5
1	21	3
115	116	2
76	76	2
121	122	2
86	117	3
22	23	5
105	105	6
123	124	5
136	137	3
103	129	5
1	2	2
89	153	1
80	80	3
38	150	1
54	55	2
118	118	1
9	11	5
69	70	2
16	17	2
51	53	1
119	124	3
68	68	4
50	79	1
117	120	1
18	18	6
53	70	2
75	75	1
39	40	1
100	100	8
99	99	2
132	132	7
0	0	1
133	133	3
115	144	1
10	10	6
41	41	2
117	117	3
92	93	9
37	39	1
126	136	1
91	91	2
111	111	9
112	140	2
20	20	5
85	86	2
55	63	1
119	153	4
82	83	3
19	140	3
156	157	1
32	33	4
144	145	1
5	5	3
9	9	3
120	120	5
40	41	1
90	94	1
119	123	1
22	43	2
98	98	4
153	158	1
114	115	6
26	26	4
64	64	5
95	96	3
26	101	2
50	51	1
152	152	3
80	115	1
26	27	6
52	55	1
120	136	2
107	108	1
51	51	3
46	67	2
83	83	3
38	40	2
149	149	2
17	140	1
105	106	6
151	151	2
96	97	1
47	70	1
19	41	1
3	3	1
136	136	4
6	12	1
27	27	1
127	127	5
125	126	1
10	13	3
71	153	3
71	71	8
14	62	1
32	32	1
37	37	2
90	138	1
150	150	3
135	135	2
149	150	1
54	56	2
2	4	3
21	135	3
34	41	1
11	12	1
57	57	1
111	112	2
104	117	2
30	31	1
4	4	1
92	95	1
94	95	1
113	113	1
69	152	3
43	43	1
106	107	1
69	69	1
56	68	2
119	119	2
90	90	3
97	97	2
124	126	2
129	130	1
86	96	2
140	141	2
42	42	3
90	92	1
113	148	1
110	111	2
91	92	2
46	46	2
87	92	1
73	73	2
28	29	1
72	73	1
85	133	1
127	128	1
68	131	1
70	148	1
88	88	1
115	121	1
66	66	1
48	48	1
119	122	2
135	136	1
9	10	1
17	48	1
159	159	1
99	100	1
90	91	1
143	153	1
112	113	1
83	87	1
87	129	1
24	24	2
109	109	1
8	11	1
78	79	1
152	155	1
3	63	1
44	44	1
137	138	1
24	30	1
81	87	1
120	133	1
156	156	1
89	92	1
