71	98	5
12	43	1
74	74	4
50	51	9
41	41	14
58	58	15
106	106	16
124	124	10
131	131	6
81	81	12
33	33	12
95	95	18
72	98	3
74	92	7
16	18	4
105	107	6
31	31	24
53	53	13
112	112	26
2	3	2
121	121	25
14	15	10
6	6	22
1	1	15
5	5	12
70	71	14
41	63	1
118	119	2
11	40	3
86	87	8
26	26	11
23	24	7
126	127	12
9	9	12
80	80	13
72	72	12
109	112	3
94	104	1
130	130	13
129	133	1
101	110	3
85	85	13
102	117	5
47	47	16
63	63	7
27	55	2
104	113	2
43	94	2
96	96	12
114	116	3
82	82	18
100	100	20
99	99	12
60	60	16
20	20	17
30	34	1
50	110	2
108	108	11
43	43	21
52	53	11
100	101	5
131	132	4
72	73	4
51	51	39
116	117	6
24	55	7
65	66	5
0	1	7
104	104	19
67	99	1
84	84	7
115	115	10
109	109	8
59	62	3
34	34	5
27	27	15
91	91	14
4	4	17
127	130	6
94	95	7
76	76	8
45	45	3
49	49	14
7	22	7
91	92	2
3	3	4
71	71	14
56	100	1
63	64	17
40	99	1
47	48	7
75	75	22
94	96	4
107	108	5
40	68	7
112	124	2
23	23	18
105	105	15
110	111	6
52	52	17
50	50	16
89	106	3
86	88	10
109	118	2
111	112	2
93	114	4
95	96	4
11	11	15
116	116	7
113	120	2
18	18	19
56	56	41
81	93	6
42	42	10
12	12	24
88	88	5
110	110	15
70	70	11
93	94	11
126	128	6
55	56	1
118	118	14
120	121	5
66	91	1
38	38	4
71	97	2
94	94	15
39	39	6
44	44	8
77	77	5
42	43	16
105	112	1
30	33	4
100	104	1
43	103	2
30	30	13
108	109	6
92	96	3
48	83	1
45	76	3
97	97	13
92	92	20
131	133	1
115	116	4
85	108	2
17	17	11
89	89	13
22	22	8
62	62	12
13	13	12
71	91	1
45	64	1
10	10	15
24	24	12
37	37	2
58	59	5
83	83	10
107	107	7
125	125	10
9	12	3
126	126	13
73	73	8
48	48	15
28	28	10
61	97	3
19	20	7
2	2	6
22	48	4
78	105	2
127	128	7
46	77	8
54	54	16
19	21	5
38	90	7
105	109	1
117	117	14
132	132	12
4	105	1
86	98	2
6	9	1
103	103	10
77	78	9
122	122	15
105	106	4
93	93	15
0	0	3
128	128	11
15	17	2
126	133	3
109	110	2
119	119	17
107	109	2
78	78	11
111	111	16
46	103	1
21	21	8
114	114	10
41	43	4
5	7	3
9	10	10
101	102	12
32	76	4
113	113	9
79	79	16
20	21	8
83	84	1
113	114	7
65	119	1
11	12	4
23	112	3
101	101	14
98	99	6
6	7	8
15	15	5
59	60	5
46	62	1
120	120	8
99	100	3
87	87	5
55	70	3
27	32	3
40	67	2
30	32	1
40	91	4
31	32	1
67	67	19
102	120	2
47	61	3
44	76	5
40	40	6
80	81	8
87	88	2
41	90	2
87	100	5
132	133	4
33	39	4
56	57	3
14	14	11
58	69	5
118	127	4
106	109	4
69	115	3
39	76	1
66	70	2
94	109	2
73	94	3
27	31	4
32	33	2
60	97	1
124	125	2
13	14	6
69	69	11
33	34	4
68	68	7
49	57	3
109	124	1
116	118	1
107	126	2
3	6	3
75	76	2
123	124	2
69	75	2
3	106	4
98	98	4
24	31	3
16	16	3
85	86	3
61	61	7
107	129	3
79	80	1
128	130	5
78	79	6
90	91	3
49	105	2
112	113	10
100	105	3
43	44	2
14	19	5
57	57	19
43	47	2
88	90	2
77	104	2
84	85	7
58	89	2
88	107	1
86	86	4
59	59	5
45	46	4
61	62	1
0	3	2
55	55	6
113	116	4
19	19	6
73	74	1
102	102	8
41	47	3
41	49	3
2	104	2
24	25	1
72	93	3
40	76	2
89	90	3
46	47	5
42	45	1
53	122	3
41	44	1
119	120	2
25	25	2
105	132	1
133	133	3
57	66	3
40	66	4
6	49	5
25	26	3
129	129	7
8	9	1
112	123	2
18	19	6
115	117	3
60	61	3
99	118	2
32	32	4
73	92	1
1	25	3
76	77	3
65	65	7
8	21	1
129	130	3
17	18	2
62	63	4
3	24	7
3	5	3
55	72	3
75	99	2
38	39	1
50	57	3
10	12	5
130	131	3
44	45	5
127	127	3
42	79	3
12	31	4
97	131	2
3	105	2
46	82	2
71	72	2
107	132	1
19	60	1
71	73	5
106	107	2
85	87	1
31	54	1
24	28	1
28	29	1
22	33	1
96	99	3
86	106	3
68	70	1
45	77	3
92	99	3
40	100	2
78	84	3
58	65	2
89	93	2
51	52	3
59	67	2
15	16	3
32	104	1
88	126	1
14	16	2
76	101	1
65	71	2
8	22	3
118	126	1
26	27	4
69	72	1
83	91	1
123	123	3
81	96	2
129	131	2
41	45	1
10	32	2
104	111	1
66	66	3
108	128	1
44	77	2
27	28	3
97	98	2
40	47	1
102	108	1
29	30	3
75	77	2
113	117	1
76	100	3
90	90	3
41	93	2
17	19	1
71	93	1
43	45	1
81	82	3
105	121	1
122	123	2
67	91	2
42	63	1
52	57	1
3	38	1
8	8	3
42	76	1
38	40	2
127	131	1
3	4	4
6	42	1
30	31	4
83	127	1
29	29	2
127	129	1
51	53	2
93	113	2
64	97	2
41	42	3
7	7	1
48	49	1
88	105	2
46	46	1
46	48	1
46	102	1
42	90	2
62	64	1
29	31	1
63	67	2
10	14	1
41	77	1
121	122	1
106	108	1
64	64	3
108	120	1
70	72	1
19	41	2
24	32	1
57	58	2
9	21	1
59	91	1
13	17	1
48	58	2
111	123	1
14	44	1
100	113	2
46	60	1
22	30	1
73	80	1
32	102	2
43	77	1
74	76	1
44	46	1
79	88	1
60	65	1
68	69	1
26	129	1
57	116	1
50	62	1
104	109	1
56	69	1
103	106	1
13	41	1
3	12	1
43	117	1
