89	89	8
182	182	9
59	76	5
58	61	4
160	160	6
74	74	1
21	21	6
136	137	1
148	148	8
61	61	7
119	119	10
168	180	1
38	52	2
21	131	2
155	155	16
84	84	4
89	90	6
133	133	3
172	172	4
61	62	4
19	139	4
25	25	6
40	71	2
174	174	1
187	187	7
38	38	1
188	188	7
124	124	6
24	24	5
101	101	1
109	110	2
158	159	3
118	120	9
82	82	5
184	184	3
164	164	1
188	189	6
59	61	2
135	135	12
33	33	3
147	147	2
175	176	12
142	144	2
43	43	3
147	148	3
126	126	10
139	139	6
16	17	5
13	13	5
76	77	3
163	163	7
72	72	4
59	59	3
186	186	6
31	39	4
90	90	4
8	8	2
146	146	10
154	154	4
40	41	3
97	98	3
4	4	3
40	40	4
114	114	13
48	48	4
56	56	9
65	65	2
26	26	11
39	55	2
190	190	3
175	175	2
102	102	9
135	154	1
128	128	5
138	140	4
141	141	4
44	44	1
179	179	5
16	16	6
181	181	5
180	187	3
122	122	4
113	113	5
19	20	4
169	169	5
99	99	6
122	156	4
53	53	5
83	83	2
61	85	6
58	76	4
158	158	5
110	110	5
71	72	3
184	185	1
110	112	3
174	181	3
3	3	3
58	77	2
6	7	3
34	34	7
57	57	6
152	152	3
167	167	1
98	98	6
60	60	7
46	46	2
94	94	3
37	37	2
95	102	7
31	31	3
0	1	3
27	45	1
63	63	5
32	33	4
92	92	5
77	77	4
15	15	6
129	129	4
10	10	1
134	153	2
39	40	2
130	137	1
181	189	2
169	170	4
183	183	1
101	102	3
109	115	3
111	112	4
122	125	3
182	186	3
67	67	7
127	128	2
122	130	3
36	37	3
31	48	2
144	144	3
164	165	4
139	149	3
170	170	4
23	23	2
2	2	4
54	54	7
111	111	7
3	15	2
78	79	2
37	38	1
19	136	1
151	152	3
12	14	2
187	188	2
153	153	5
76	76	3
176	176	4
104	104	2
181	185	1
78	78	1
29	29	4
120	155	1
97	97	2
110	114	1
138	138	5
126	127	1
95	96	2
75	75	1
137	138	1
65	114	2
39	39	3
12	23	2
2	7	3
15	24	2
95	95	2
146	147	5
96	110	1
150	150	2
30	30	7
139	145	1
141	147	3
120	120	1
65	70	3
125	126	1
45	45	3
35	35	1
71	71	5
139	140	1
176	179	4
75	76	3
178	178	2
177	187	1
144	166	1
177	177	3
27	28	3
88	88	5
143	167	1
149	150	2
159	159	3
62	62	3
53	54	2
103	103	1
156	157	3
18	19	1
162	162	2
26	42	2
25	26	2
178	180	1
138	139	2
179	180	1
15	16	1
41	42	3
183	184	2
47	47	2
172	174	1
180	180	1
159	160	1
109	113	1
109	109	3
143	143	1
107	107	1
41	117	1
130	130	2
13	44	1
7	7	1
59	62	1
116	116	3
127	127	4
68	74	1
7	8	2
52	53	1
185	185	3
19	19	2
27	27	3
121	155	2
4	5	3
151	151	3
129	133	1
32	32	3
93	94	2
63	64	1
25	41	1
91	92	1
79	79	2
66	67	1
172	173	1
134	134	1
123	124	2
58	58	1
66	66	3
64	64	1
38	40	3
41	48	2
140	140	1
143	168	2
91	107	2
105	105	1
91	91	2
124	129	3
165	170	2
95	103	2
52	73	1
68	69	1
161	161	1
6	6	2
100	100	1
42	42	1
55	55	2
128	145	1
17	17	2
131	131	1
48	49	1
121	121	1
115	115	3
118	118	1
188	190	1
46	117	1
130	131	1
18	18	1
173	173	2
130	133	1
68	68	1
57	76	1
181	182	1
149	149	1
124	125	1
141	142	1
