112	112	11
95	95	7
112	113	7
137	137	5
102	103	3
31	31	5
7	8	4
136	136	12
73	73	10
85	85	8
19	19	12
36	36	1
130	131	6
117	117	6
122	122	4
113	113	7
16	16	22
94	94	3
124	124	6
127	127	6
6	6	6
81	81	16
3	34	3
104	106	3
89	90	2
89	89	4
94	95	2
35	35	4
34	34	12
72	72	6
22	130	1
98	98	10
84	84	7
106	107	1
132	132	5
77	78	1
135	135	7
14	14	7
98	99	2
97	97	5
12	12	4
125	125	10
1	1	9
110	110	12
134	134	5
19	81	5
84	85	2
5	6	11
111	111	12
93	93	4
72	73	2
91	91	9
131	131	8
22	22	4
38	38	5
121	121	7
21	22	9
2	2	3
140	140	4
104	104	4
7	7	7
114	114	9
26	26	14
96	96	5
123	123	11
10	10	5
138	138	5
25	25	6
139	139	3
109	109	3
74	77	1
77	80	2
23	23	16
128	129	2
9	9	6
20	20	4
15	15	7
133	133	4
128	128	4
18	18	5
103	103	5
113	117	4
130	130	7
101	101	3
86	87	6
123	128	4
86	86	4
114	117	1
88	89	4
119	120	3
80	80	4
2	8	3
3	4	2
8	9	2
36	37	1
108	110	2
92	92	6
13	13	10
5	5	4
27	27	6
87	87	7
16	17	4
95	96	2
21	21	2
29	32	2
3	3	2
11	11	6
126	126	7
118	119	6
93	94	3
120	121	2
11	29	5
116	116	3
27	28	2
5	82	3
75	75	6
33	33	12
106	117	1
92	93	4
101	102	3
35	98	2
30	81	3
37	37	6
24	25	4
1	103	2
37	38	2
129	129	6
30	30	8
124	126	1
79	79	3
18	80	1
122	123	6
0	0	1
71	71	4
25	26	1
136	137	1
35	99	1
138	140	2
120	120	1
137	139	1
85	86	4
88	88	2
8	8	2
131	132	5
77	77	7
13	15	2
3	32	2
1	22	2
99	99	3
24	24	1
80	81	3
74	74	3
30	31	4
82	82	1
25	27	1
90	91	2
102	102	2
127	132	2
83	83	1
71	124	1
79	129	3
136	139	2
4	4	4
13	29	1
28	29	1
134	135	4
100	101	1
86	102	1
2	35	2
0	23	2
93	110	2
108	108	3
3	35	1
74	75	2
138	139	2
125	126	3
71	72	2
91	103	1
78	78	4
13	32	1
127	128	1
14	15	1
107	108	1
19	29	1
99	100	2
1	105	1
29	30	1
106	106	1
32	32	1
28	28	1
75	76	1
78	79	1
22	23	1
123	124	1
77	82	1
29	29	1
38	100	1
86	129	2
139	140	1
17	27	2
76	76	1
93	101	2
128	130	1
118	118	1
82	83	1
90	90	1
99	103	1
18	19	1
