166	166	2
30	30	4
14	14	8
134	134	4
129	129	1
72	73	4
164	164	2
109	110	1
112	112	2
78	78	3
172	172	4
90	91	4
127	127	13
154	155	2
116	116	4
38	38	4
50	50	10
0	10	3
94	94	6
163	163	1
159	159	5
62	62	4
149	149	5
168	168	3
124	124	4
95	95	1
9	9	3
139	139	5
79	80	3
65	148	2
5	5	5
118	119	5
149	150	2
75	75	4
178	179	2
88	88	6
111	111	1
32	50	4
96	109	1
105	106	3
90	90	3
3	3	2
118	149	3
117	117	4
61	61	2
54	54	6
97	97	3
137	137	7
6	7	1
96	96	3
15	15	1
87	88	2
14	31	1
64	104	2
150	150	1
64	64	2
138	138	2
91	91	4
77	77	4
59	60	2
55	55	4
123	125	2
126	127	1
65	73	1
124	128	3
43	43	1
1	1	3
146	147	3
145	145	6
77	94	3
116	117	2
123	123	6
102	102	3
63	91	1
93	94	3
66	117	2
157	157	5
131	131	6
137	138	2
97	108	2
131	132	1
67	67	2
53	53	3
175	176	2
19	19	1
155	156	2
101	102	2
79	79	5
115	116	4
24	26	1
140	140	4
9	14	2
31	32	1
92	92	3
111	112	3
66	114	1
168	169	4
95	96	3
144	145	3
59	59	2
6	10	1
143	143	2
141	141	1
67	72	3
33	33	2
159	163	5
77	78	1
154	156	2
142	142	1
88	89	7
61	86	1
156	156	7
56	57	2
171	171	5
95	149	1
50	51	2
166	167	3
8	8	3
132	179	1
136	141	1
65	66	1
84	84	1
42	42	1
104	104	3
126	126	1
133	180	1
30	44	1
178	180	5
118	118	4
121	123	1
52	53	3
167	167	1
130	130	3
104	107	1
113	113	2
71	71	3
157	164	1
132	132	1
9	10	1
176	176	2
27	28	1
27	27	3
144	144	1
7	8	2
178	178	2
22	106	1
144	146	1
0	0	5
89	90	1
173	173	4
106	106	1
150	151	1
25	25	2
76	76	3
122	122	1
105	105	4
32	32	3
147	147	2
122	125	1
33	56	3
102	103	1
133	133	1
52	55	2
107	107	1
99	100	1
135	140	1
157	158	1
85	90	1
23	23	1
152	152	1
87	87	1
24	24	4
100	100	2
129	163	1
109	109	1
162	162	1
55	56	3
41	41	4
126	129	1
5	6	1
67	73	1
35	35	2
75	76	1
73	73	3
155	155	1
155	167	2
103	104	1
60	87	1
123	134	1
101	101	3
89	89	1
52	52	1
1	4	2
80	80	1
12	12	3
75	141	1
122	126	1
96	148	1
13	13	2
177	178	1
74	76	1
160	162	1
122	128	1
20	20	1
83	93	1
63	63	1
163	165	1
78	79	1
