48	48	18
4	8	1
53	53	11
110	110	21
147	147	21
4	5	3
40	41	6
118	118	9
142	142	7
128	130	7
135	136	2
137	137	6
112	112	10
105	105	9
11	45	2
6	21	2
79	79	10
64	64	5
149	149	11
6	20	2
94	94	6
68	68	10
24	24	13
122	122	10
121	121	10
147	148	2
66	66	7
128	128	3
118	125	1
7	7	6
71	71	8
35	35	6
120	139	1
16	16	9
104	104	4
23	24	2
70	70	15
114	120	3
19	19	6
76	126	1
12	12	10
14	15	2
34	34	8
17	17	22
47	68	3
49	49	12
128	129	18
14	20	2
117	117	4
102	102	7
94	148	5
30	56	1
134	134	3
29	33	2
139	143	5
143	143	11
93	93	6
47	47	4
45	46	2
32	34	3
25	25	2
54	55	3
75	75	4
124	124	4
132	132	12
50	50	6
98	98	4
127	127	7
11	11	7
25	42	2
107	108	4
113	114	5
36	36	10
10	10	6
49	50	1
136	139	3
21	22	4
138	141	4
15	16	6
77	123	2
63	103	3
26	27	2
145	145	11
65	66	4
4	4	5
42	42	6
4	29	6
106	106	3
29	30	2
120	122	1
138	138	11
76	76	5
11	15	1
129	129	12
63	64	4
19	20	4
51	51	2
83	83	7
67	67	10
126	127	9
56	56	8
131	146	1
117	119	3
101	102	3
74	74	8
14	31	2
43	45	1
46	46	6
30	30	12
139	139	12
131	131	7
80	80	14
99	113	3
101	101	2
41	41	7
55	56	1
111	111	8
133	141	2
109	109	14
24	33	3
95	96	1
140	141	3
125	125	3
43	47	1
28	62	3
76	77	6
13	13	6
130	131	3
130	130	7
45	47	1
114	114	6
115	149	1
153	153	10
43	43	6
136	136	6
148	148	3
3	152	4
32	50	4
113	113	12
23	23	6
26	31	3
31	31	6
62	64	2
83	86	2
126	126	11
103	103	4
5	8	2
35	37	5
37	37	11
22	40	3
37	100	4
53	55	6
120	120	2
109	116	1
26	26	3
22	22	7
6	6	4
107	107	8
41	50	3
111	134	3
73	90	3
40	40	20
125	126	3
85	86	1
84	87	2
136	137	5
17	80	4
96	97	2
37	49	2
82	85	6
44	44	9
80	81	1
115	115	4
28	28	10
69	113	1
84	85	2
104	127	2
113	149	1
111	112	1
27	27	2
109	110	5
86	101	4
146	146	8
56	57	3
5	5	1
32	37	2
97	100	6
134	140	2
70	71	4
146	150	3
53	68	1
2	3	2
141	141	4
24	134	2
8	29	3
115	146	1
17	19	5
90	92	1
16	24	3
73	75	6
123	124	3
8	24	3
110	133	5
123	154	3
36	37	6
73	78	2
36	67	1
37	54	4
93	97	2
133	133	8
3	3	6
83	84	3
73	73	4
123	123	7
25	26	4
21	31	3
119	119	11
144	144	3
8	8	10
38	39	9
99	128	2
100	131	2
62	62	5
71	73	1
18	18	5
15	15	5
109	112	2
16	150	2
69	69	10
33	34	3
39	40	1
20	20	5
28	133	3
3	5	1
27	29	2
2	2	4
14	14	5
17	22	2
7	17	3
12	13	3
47	48	3
108	108	10
96	96	7
141	142	4
84	84	4
38	38	8
69	81	1
82	87	1
102	103	4
82	102	1
39	51	2
26	57	1
113	128	2
85	110	3
98	99	4
21	21	5
85	105	1
146	151	1
44	45	1
57	57	6
43	44	1
32	32	2
30	31	4
77	78	1
97	99	3
68	69	4
100	108	1
82	82	4
150	150	3
53	71	3
63	63	6
33	49	2
7	8	2
147	154	1
72	73	3
63	75	1
94	144	3
97	102	3
39	39	5
78	79	2
62	85	2
54	54	4
103	131	4
113	118	2
95	99	4
103	104	1
88	105	2
121	122	4
24	25	2
144	146	3
112	151	1
90	97	2
80	100	2
103	105	1
7	10	3
100	107	1
87	102	3
94	119	1
99	99	4
141	148	2
129	130	3
151	151	4
45	45	4
92	92	4
57	64	2
87	88	1
131	145	1
20	26	1
12	35	1
21	25	3
86	86	3
62	63	1
58	58	1
28	76	1
30	57	1
127	138	3
66	69	2
154	154	5
121	146	1
87	94	1
97	97	3
139	141	1
46	47	1
83	85	2
119	138	1
94	127	3
136	144	2
77	90	3
46	65	1
34	98	2
100	100	4
24	67	3
123	125	1
113	146	1
120	146	1
77	77	2
85	85	1
49	68	1
16	17	4
33	33	6
113	152	1
17	34	2
148	149	1
118	135	1
42	67	2
7	16	1
65	74	1
13	123	1
121	126	1
97	112	1
116	117	2
70	123	2
52	53	1
55	55	1
74	75	2
85	113	1
18	20	1
148	154	2
57	83	3
118	128	1
78	78	1
128	142	1
105	106	1
135	135	5
63	104	2
95	128	1
25	54	1
48	51	1
24	40	1
64	100	2
8	9	3
11	12	1
22	23	6
2	21	1
73	74	1
129	135	3
7	125	1
134	135	1
100	139	1
48	62	1
41	42	4
39	54	1
114	117	1
52	67	1
146	148	1
53	72	1
145	151	2
19	123	1
40	49	1
114	115	1
21	24	2
87	104	1
3	8	2
20	25	1
25	43	2
26	29	1
141	144	1
57	58	2
117	139	1
91	144	2
63	102	2
91	117	1
132	134	1
92	93	2
33	35	1
104	141	2
116	116	1
38	45	2
88	108	1
70	96	1
75	97	1
87	87	2
98	116	2
42	43	1
29	29	2
63	91	1
80	101	1
84	113	1
34	35	1
9	9	2
43	62	1
83	91	1
52	52	1
72	72	1
85	111	1
126	143	1
99	102	1
106	107	2
112	113	1
23	25	1
34	49	1
132	149	1
103	107	1
37	38	1
124	128	1
83	144	1
94	104	1
140	140	1
94	97	1
122	130	2
131	151	1
85	101	1
118	139	1
122	129	1
18	19	1
69	100	1
68	84	1
118	130	1
153	154	1
54	67	1
