123	123	6
166	166	6
17	20	4
107	107	8
102	116	3
61	61	1
139	139	7
30	51	4
67	76	2
31	51	8
22	25	7
173	174	7
65	75	2
144	154	5
62	122	1
77	77	5
112	113	2
179	180	3
138	138	8
108	109	2
101	124	4
153	154	4
42	55	4
63	170	1
78	78	10
83	83	6
124	140	3
38	53	3
110	114	3
168	169	4
75	75	2
98	98	5
32	51	5
62	158	2
63	87	2
119	119	8
123	124	6
41	41	2
81	91	2
157	158	7
51	51	8
91	91	3
102	112	5
50	51	4
11	11	2
6	7	2
66	66	4
90	90	4
173	176	1
150	150	5
59	59	9
109	170	1
170	170	3
153	153	3
8	8	8
27	27	4
61	161	3
24	25	2
76	95	1
122	126	2
74	74	12
132	132	5
63	63	9
115	115	4
96	124	2
143	143	5
10	40	2
171	171	4
163	163	3
13	54	3
15	43	2
92	92	10
80	93	3
85	156	4
21	22	8
168	168	6
63	101	3
42	42	3
119	120	1
120	120	7
174	176	4
152	152	3
89	151	2
52	52	5
55	55	4
67	73	2
173	173	5
81	145	4
112	112	7
115	119	8
146	152	1
59	175	2
128	128	1
71	71	11
144	144	4
83	156	1
117	117	3
77	92	3
121	141	2
126	168	2
109	109	2
14	14	8
39	39	6
13	20	4
93	93	4
113	113	6
62	159	3
133	133	4
83	157	8
138	139	3
31	31	6
85	85	3
145	149	1
122	159	1
73	76	2
111	111	8
15	44	1
19	19	9
96	99	2
33	33	4
175	176	1
10	41	2
38	38	5
165	165	7
46	46	3
2	3	1
84	84	5
155	155	4
86	156	2
9	43	3
80	80	2
95	95	3
53	53	6
13	41	2
83	84	2
136	136	10
72	73	1
2	33	1
28	28	7
122	172	1
117	118	2
67	67	2
20	45	4
76	76	1
164	164	2
71	138	3
172	172	9
28	32	1
161	162	1
22	32	3
144	152	3
154	154	3
135	135	4
114	114	2
92	101	1
83	102	1
54	54	3
18	41	2
50	50	4
113	170	1
71	74	1
122	123	2
35	35	2
147	151	3
124	165	3
65	65	3
126	141	2
139	173	3
163	173	3
63	89	6
158	158	1
125	167	1
114	155	2
106	107	2
3	3	8
148	151	1
28	31	1
55	56	6
180	180	1
151	151	5
162	175	2
2	2	4
3	44	3
101	101	1
22	22	3
109	110	4
87	87	7
159	159	10
130	130	2
57	57	6
35	45	1
75	76	6
64	157	2
12	13	1
101	102	3
136	141	1
103	103	3
179	179	6
0	0	7
141	141	5
18	18	2
67	71	1
78	95	2
122	122	7
30	31	2
9	9	1
121	121	5
109	111	1
177	177	3
64	102	2
24	26	7
144	156	3
95	98	1
126	167	4
163	164	5
52	164	1
32	32	1
156	158	4
148	153	2
125	125	2
132	139	2
50	176	2
10	54	6
10	37	1
25	25	2
133	139	2
37	53	4
65	96	2
174	174	3
110	110	1
50	59	3
72	74	3
58	58	6
132	142	3
116	116	3
156	156	5
4	5	2
16	17	4
79	79	7
68	73	1
68	75	1
178	178	4
96	96	1
104	104	3
31	32	1
146	148	5
89	145	1
169	169	4
63	160	4
106	106	2
107	112	2
66	75	1
122	141	1
2	7	3
17	17	2
68	68	4
150	151	3
73	74	1
20	20	4
167	167	3
73	73	7
10	39	1
158	160	1
76	77	2
15	15	1
11	53	3
122	173	2
140	140	1
104	107	1
89	89	1
61	172	1
157	157	2
6	6	2
108	108	3
40	40	3
131	131	3
156	157	5
24	24	1
134	134	1
147	147	2
114	171	4
149	152	1
62	160	2
127	131	1
7	8	1
97	99	2
84	158	1
107	118	1
88	89	1
145	152	1
21	51	1
43	43	7
59	161	4
30	50	1
62	116	1
143	156	2
133	138	1
113	114	2
14	43	2
66	67	1
16	16	3
164	174	5
10	10	2
160	160	2
22	33	2
58	59	2
62	144	2
60	60	2
26	26	3
123	125	2
72	99	1
129	129	1
70	71	1
49	175	2
49	176	1
63	86	1
143	171	1
127	138	1
78	80	1
135	167	3
64	158	1
175	175	2
5	5	2
127	130	2
96	97	1
152	153	3
57	174	1
64	65	2
95	152	2
102	169	1
128	133	1
67	75	1
50	58	1
32	34	1
77	96	1
65	73	1
44	44	1
31	60	1
81	148	1
59	120	1
141	172	1
44	45	1
128	142	1
142	142	1
137	137	1
162	176	1
57	173	1
91	94	1
144	145	1
143	168	2
102	170	1
31	58	2
127	128	1
37	39	1
63	121	1
92	94	1
64	64	1
56	56	2
41	43	1
81	81	1
94	95	1
79	93	1
83	86	1
67	74	1
3	35	1
118	118	1
4	6	1
133	141	1
162	162	2
81	82	1
102	106	1
102	114	1
60	120	1
98	101	1
63	144	1
