93	95	3
234	234	7
14	15	3
153	154	5
214	238	5
82	82	11
86	111	2
5	49	4
109	109	16
12	12	9
246	247	1
168	174	2
11	11	13
192	192	15
16	44	2
213	213	8
98	98	7
52	52	11
187	187	2
66	67	3
156	219	1
172	172	3
29	29	15
9	10	3
161	161	10
243	244	6
152	152	7
61	61	5
22	22	13
1	1	10
151	155	3
12	161	2
91	91	6
87	88	3
75	76	8
147	147	8
62	62	11
28	29	4
40	144	3
230	231	1
101	102	1
92	92	8
54	54	9
39	39	20
151	151	7
175	175	12
233	234	2
158	158	8
245	245	5
90	90	3
179	179	4
40	40	9
181	181	13
24	24	11
80	80	10
77	108	6
238	238	13
42	42	2
97	117	3
78	82	2
37	39	2
60	61	4
16	16	10
218	218	8
100	163	2
169	169	6
248	248	4
210	210	6
207	207	3
56	61	2
37	37	11
115	115	7
5	5	5
186	186	8
37	121	2
105	108	2
183	183	6
193	194	3
204	204	4
188	188	13
35	35	3
150	150	16
215	215	10
96	96	3
113	114	6
221	221	7
180	181	5
160	160	9
55	56	7
85	85	8
82	83	5
51	51	9
115	116	2
74	100	1
210	212	4
155	236	1
41	41	9
118	118	14
201	243	1
68	68	11
173	193	2
211	213	1
179	180	4
154	155	5
69	153	3
3	3	7
199	202	3
195	195	6
119	119	11
223	223	6
237	237	9
20	20	13
6	7	2
56	56	8
218	220	2
172	176	3
112	113	3
32	32	6
173	173	12
168	214	6
38	38	7
47	47	10
46	46	15
44	44	5
28	63	1
36	36	8
77	212	2
83	83	6
36	47	1
172	179	2
222	222	2
164	164	4
152	175	1
96	97	11
174	176	1
45	46	4
25	26	4
110	110	13
164	165	4
241	241	14
86	115	2
4	4	11
117	118	5
7	7	13
102	102	12
78	78	6
209	209	7
227	227	8
178	228	5
14	163	7
184	184	10
61	62	2
43	43	7
55	55	10
178	178	14
27	27	8
25	25	9
50	109	5
159	159	11
218	219	3
183	197	1
193	193	13
5	7	1
28	28	2
201	201	11
61	88	2
66	66	7
18	114	5
217	218	4
164	235	1
70	70	6
106	106	1
202	202	11
229	229	14
221	222	7
173	174	1
239	239	7
189	192	2
17	17	4
206	206	9
59	72	1
73	73	15
211	211	13
68	95	1
8	9	8
67	67	3
185	185	19
68	69	6
82	206	2
81	97	2
95	95	7
9	63	4
157	160	1
41	96	2
190	221	3
18	18	9
75	75	6
184	236	2
93	93	14
48	48	13
47	48	1
8	10	1
69	69	14
154	154	5
204	205	1
156	157	2
30	30	4
194	194	4
196	233	2
242	242	1
244	244	8
76	76	1
89	89	9
240	240	3
44	202	1
3	31	2
111	111	8
166	166	9
100	100	9
45	45	3
70	71	2
32	34	1
80	81	2
114	114	5
240	241	4
12	14	1
218	242	5
34	50	2
65	68	3
233	246	1
56	75	2
6	6	9
233	233	8
30	69	1
58	92	6
53	53	6
85	86	2
77	77	10
116	116	3
206	236	2
83	84	1
30	34	2
161	173	2
153	153	3
71	71	3
238	246	2
170	181	3
41	115	2
197	197	1
1	202	3
50	66	2
114	116	3
21	22	3
70	183	1
19	166	2
180	180	5
236	236	7
57	105	2
203	203	6
230	230	18
177	190	3
198	198	5
51	89	3
69	70	6
81	109	3
195	218	2
58	58	8
8	167	3
226	226	13
19	20	3
33	33	6
59	59	2
77	95	4
181	182	5
2	2	4
183	200	4
180	242	1
205	205	8
247	247	4
54	97	1
199	200	4
99	99	2
86	86	3
212	212	2
164	166	1
113	113	3
191	191	2
14	167	2
92	93	3
90	99	1
228	228	3
50	50	6
72	72	3
182	200	1
171	179	2
82	109	5
219	219	10
74	74	5
49	49	5
58	118	1
104	104	4
34	37	2
55	59	4
216	216	1
41	44	2
246	246	7
177	177	3
108	108	5
50	53	1
7	8	2
37	48	2
22	23	1
94	100	1
165	165	3
235	235	7
10	10	10
102	103	1
19	19	7
81	116	1
116	117	3
76	77	1
97	97	5
212	214	5
37	93	1
79	108	2
228	229	3
26	65	2
14	14	3
187	188	7
220	220	4
208	209	1
202	204	1
204	228	5
29	51	1
37	38	3
23	112	1
94	94	5
106	107	7
29	31	3
32	62	2
242	244	2
62	63	3
214	214	9
109	116	3
47	49	1
170	170	8
81	81	1
23	23	6
38	39	1
27	46	1
34	35	5
194	248	1
15	15	5
222	233	1
152	154	1
209	211	1
209	232	2
200	200	6
184	242	1
219	244	2
66	111	3
21	23	3
229	235	1
104	107	4
54	61	3
65	65	6
82	85	1
146	146	3
12	44	1
9	9	3
60	60	3
225	225	22
44	83	1
198	199	3
214	229	2
232	232	8
214	215	2
78	218	2
18	109	2
157	157	8
162	166	1
232	233	3
234	235	2
208	215	1
100	101	1
7	18	1
167	167	5
43	161	2
114	115	3
72	75	4
58	74	1
68	71	9
215	240	2
167	173	2
173	180	1
159	211	1
97	118	1
203	204	1
95	96	2
84	85	1
208	208	3
90	91	4
64	64	2
71	73	7
162	162	4
185	236	1
227	231	1
236	237	1
164	209	2
182	182	3
2	3	3
107	108	1
159	164	2
71	110	2
199	199	4
63	205	2
174	174	10
84	109	1
168	168	8
90	92	1
38	40	3
66	92	1
46	218	1
145	149	2
231	231	10
39	175	3
185	189	1
92	96	2
31	32	2
25	65	1
209	212	3
17	216	3
156	156	2
39	171	3
112	112	11
211	212	2
165	168	3
228	231	2
155	156	2
9	109	1
165	174	1
155	155	11
16	32	1
163	189	1
32	53	1
21	157	2
172	174	1
73	101	2
81	83	1
224	224	7
231	232	2
145	145	1
64	65	6
165	167	2
236	244	1
88	89	1
77	157	2
4	49	3
86	110	2
120	120	6
175	176	4
66	246	1
56	57	1
214	223	1
214	219	3
25	165	3
182	183	1
57	57	4
247	248	2
91	92	2
206	207	2
117	117	3
221	234	1
115	117	2
16	29	1
103	104	1
67	75	2
42	165	2
55	96	2
192	193	1
223	224	1
119	144	1
54	94	4
198	200	2
60	88	1
96	98	1
171	175	1
40	93	1
160	161	1
109	210	1
160	176	2
4	50	2
38	44	1
14	228	1
31	31	3
34	36	1
219	240	1
190	191	2
208	224	1
19	167	1
243	243	3
24	180	1
163	163	1
71	72	2
49	50	1
121	121	1
171	178	1
53	72	3
242	243	2
214	247	2
27	42	1
150	219	1
42	225	1
176	177	1
29	167	2
73	74	1
162	209	1
33	35	1
56	66	3
194	195	1
42	43	2
167	175	1
207	208	1
179	208	1
181	208	2
152	182	1
51	52	2
37	102	1
188	192	1
79	79	4
103	103	1
171	184	2
237	239	2
34	34	1
6	44	1
113	120	1
88	88	1
43	146	2
178	179	1
41	120	1
93	94	1
87	95	1
21	21	2
33	34	1
227	247	1
168	169	2
8	8	2
36	38	1
21	29	2
154	156	3
57	167	1
17	234	1
84	84	1
220	225	2
193	215	2
20	170	3
105	105	1
169	172	1
52	53	1
50	248	1
67	104	2
188	209	2
178	180	1
82	89	2
17	19	1
101	101	3
19	32	2
30	48	1
87	87	1
196	196	1
8	63	1
150	151	1
188	189	2
120	162	1
48	78	2
176	176	1
4	5	1
79	105	1
74	75	1
185	186	1
234	245	1
20	31	1
98	112	1
225	228	1
59	60	1
194	209	1
190	190	1
17	114	1
237	240	1
220	226	1
8	44	1
204	235	1
20	167	1
11	114	1
163	164	1
73	77	2
236	240	1
13	20	1
96	145	1
152	153	1
161	197	1
36	37	1
39	150	1
223	233	1
171	172	1
