43	43	7
35	35	16
134	134	14
25	25	17
102	103	6
76	76	8
26	26	4
84	85	3
116	116	9
80	82	1
66	68	2
43	128	2
112	114	2
44	44	4
127	127	13
87	87	14
9	9	6
103	104	5
3	4	5
60	60	11
131	131	14
4	4	4
111	118	3
77	83	1
107	107	2
8	8	7
102	102	14
80	80	3
53	107	4
29	29	3
119	120	14
70	70	10
101	101	3
67	69	3
135	135	4
54	54	13
118	118	5
104	104	8
105	105	3
27	27	17
84	84	4
128	128	4
51	112	3
128	129	1
5	25	1
13	13	19
57	57	3
35	66	1
101	106	1
122	122	8
66	67	2
90	90	13
64	64	10
89	89	5
123	123	10
114	114	9
69	71	1
5	5	9
32	32	8
15	15	5
91	91	7
68	68	10
34	34	6
7	7	8
83	83	8
33	33	2
35	65	5
87	107	6
125	125	7
11	11	10
63	63	13
2	3	5
38	78	2
86	88	1
94	98	2
33	101	3
0	0	8
62	62	11
106	106	2
67	67	13
127	128	4
14	14	7
92	118	1
31	31	6
22	22	4
59	59	10
111	133	4
100	100	10
129	130	1
82	82	2
92	121	5
120	120	11
28	28	7
131	133	2
32	69	1
121	121	8
7	8	1
117	117	9
93	93	7
24	24	16
66	66	5
71	81	4
21	23	1
2	2	7
58	58	2
117	118	3
45	107	1
17	17	8
120	122	4
110	110	2
6	7	3
52	52	3
90	116	2
98	98	15
59	109	1
19	19	7
89	95	2
124	125	3
36	65	4
95	95	8
32	66	1
111	111	6
1	1	12
109	109	9
75	75	7
50	50	11
123	124	4
0	29	4
79	79	2
69	69	12
23	25	8
16	16	7
129	129	9
58	59	2
34	35	1
118	133	2
7	99	1
114	115	4
61	61	12
104	105	2
49	49	3
88	88	6
65	95	7
50	51	5
59	61	1
100	103	4
75	89	3
73	73	10
30	32	3
21	22	3
52	107	1
7	11	3
78	79	2
30	30	2
86	86	5
20	21	3
63	81	3
47	80	2
77	77	15
54	110	1
93	125	3
78	78	4
93	118	1
33	34	2
115	115	6
61	62	8
124	124	4
3	3	4
122	123	12
69	109	4
25	112	10
21	21	5
27	114	1
53	53	5
6	6	9
112	112	12
94	94	8
10	11	5
28	33	1
119	119	5
4	10	2
8	9	2
115	116	2
94	95	3
79	80	1
114	128	2
54	55	3
114	121	3
66	112	2
27	28	3
18	103	3
72	72	4
8	65	1
1	3	3
13	47	1
61	64	4
68	69	2
54	114	2
90	115	2
17	18	2
122	124	2
103	103	5
9	10	2
23	23	2
18	21	1
132	133	1
36	36	2
28	100	3
15	23	2
123	126	1
79	83	8
92	93	1
106	107	4
90	91	2
64	78	2
119	133	3
12	12	4
82	83	1
72	79	2
24	25	3
43	44	3
44	48	1
47	118	1
15	17	2
9	11	2
130	130	7
82	87	3
16	22	2
15	20	1
60	61	2
72	127	3
69	72	3
55	111	1
37	45	1
45	108	1
96	97	1
76	135	4
122	126	1
97	97	2
56	57	1
88	90	2
92	92	3
50	129	1
71	71	9
35	82	1
74	74	4
126	126	3
115	121	4
43	87	1
9	16	1
100	101	4
93	101	1
102	104	2
108	108	5
44	49	2
26	27	3
7	10	3
23	107	1
4	5	2
99	99	5
18	18	2
53	54	1
97	99	1
45	45	1
111	112	3
11	12	1
37	38	1
7	9	2
4	100	1
89	116	1
130	131	1
80	81	1
121	122	1
55	63	1
88	89	3
53	131	1
26	28	1
65	65	2
58	128	1
48	48	2
55	118	4
113	114	1
14	15	2
48	50	2
51	51	1
6	11	1
52	130	2
22	54	1
81	128	1
13	48	1
81	81	2
109	110	1
50	80	1
37	37	1
45	50	3
35	100	1
30	31	1
11	24	1
80	127	1
96	96	2
0	1	3
91	92	1
53	106	1
69	70	2
133	133	2
60	65	2
62	76	1
56	58	3
77	78	2
90	122	1
59	60	1
76	81	1
76	82	1
28	106	1
93	99	1
52	110	1
107	110	1
83	86	1
34	76	1
25	29	1
22	25	1
54	115	1
107	109	1
53	114	1
94	97	1
71	79	1
34	70	1
80	129	1
21	114	1
7	24	1
37	78	1
