114	125	2
185	185	9
170	172	2
14	44	4
94	96	2
2	2	5
172	177	3
65	65	3
31	31	10
193	193	21
63	63	5
89	160	1
62	151	1
38	38	13
107	107	4
40	40	15
184	184	3
43	43	9
44	44	8
42	42	7
16	16	13
129	129	5
9	9	9
26	26	6
139	139	6
42	72	8
96	97	5
55	55	11
127	127	19
59	60	4
145	145	8
173	176	3
130	130	15
186	186	11
162	162	13
187	188	11
166	166	7
76	83	2
28	29	3
178	178	10
15	15	8
94	94	9
180	182	5
64	64	17
196	197	3
22	28	1
190	190	11
155	155	6
133	133	5
165	165	8
102	102	10
60	62	4
126	127	6
20	28	2
57	57	5
80	80	12
27	27	16
117	117	8
83	83	18
187	187	9
169	169	14
70	70	3
121	158	3
142	142	14
179	179	11
146	147	5
126	126	3
23	23	30
139	151	3
141	141	7
114	114	13
128	128	13
154	154	6
169	170	5
32	32	8
75	75	12
188	188	8
67	68	5
197	197	19
36	37	1
172	172	5
58	58	11
164	167	3
145	146	5
11	12	2
167	167	11
56	56	14
85	85	6
19	19	13
95	97	3
55	84	1
118	119	3
108	108	4
54	85	5
147	147	17
20	20	5
10	42	1
171	171	5
119	119	13
62	62	12
101	102	8
150	150	7
34	34	6
151	151	7
101	137	5
0	0	8
110	137	5
5	8	4
180	180	22
12	13	4
50	50	13
32	101	2
136	138	4
74	77	1
80	81	1
48	49	6
105	105	6
116	116	4
107	115	2
7	7	10
52	52	23
177	178	3
43	44	2
118	118	8
195	196	4
51	51	13
98	99	1
175	175	9
79	80	3
79	88	3
34	37	3
23	113	2
154	157	2
163	163	12
1	23	3
99	122	1
86	87	6
5	5	6
154	180	3
30	31	2
74	74	7
123	123	5
140	141	2
167	191	2
182	192	2
30	30	20
144	146	7
10	11	3
156	181	2
87	90	2
136	136	14
161	161	15
39	39	8
128	129	2
106	106	8
12	12	11
58	59	7
143	143	11
18	76	3
192	192	7
3	3	9
73	73	10
62	65	2
132	132	2
113	113	5
109	111	1
38	74	1
35	36	3
66	66	4
8	8	10
115	116	5
178	189	2
152	152	3
153	154	8
182	182	3
77	83	2
153	155	1
55	57	2
11	11	5
54	54	13
79	79	4
158	158	5
169	171	1
121	122	4
148	148	16
60	61	4
77	77	8
140	140	14
135	135	5
108	111	2
186	187	3
82	83	2
153	157	2
162	163	2
82	82	5
47	47	10
89	89	13
156	156	5
144	144	5
134	139	1
173	175	2
37	37	14
83	100	2
81	89	2
20	21	4
0	8	3
13	13	5
165	188	2
158	170	1
168	171	2
35	35	6
137	151	3
10	10	3
46	46	12
160	160	10
154	159	1
66	67	5
138	139	5
22	23	11
107	108	3
25	39	1
6	7	5
161	185	5
130	131	5
48	48	4
143	145	3
194	194	6
84	84	2
125	127	1
96	129	2
98	178	1
145	172	5
64	65	2
7	8	8
160	162	3
74	79	2
99	99	8
104	104	2
114	193	1
112	113	3
189	189	6
142	143	1
155	182	2
54	56	3
33	34	2
17	17	10
189	193	5
102	103	6
147	148	2
35	37	2
171	172	8
15	16	2
1	1	2
159	159	3
125	126	2
16	56	1
132	133	2
97	97	9
2	35	1
49	50	1
103	109	2
191	191	5
21	21	8
174	190	5
164	164	3
1	24	4
142	181	1
162	166	5
111	111	6
164	179	1
141	142	4
67	67	6
117	118	4
53	53	11
41	45	1
98	102	2
5	7	3
104	109	3
122	122	2
51	52	1
27	40	2
49	51	2
98	119	1
161	162	1
101	101	8
59	59	4
98	116	1
72	72	1
118	123	1
36	36	5
46	47	2
173	182	1
185	186	3
157	157	7
132	160	2
128	169	2
98	106	1
59	72	2
129	130	3
155	179	3
134	134	5
174	179	1
164	177	5
31	32	2
93	101	6
21	23	3
186	196	2
161	194	1
127	128	5
83	86	2
142	182	3
115	139	2
18	84	1
3	4	1
161	166	3
149	149	8
41	41	3
75	76	3
194	195	5
67	69	3
71	73	2
49	49	4
76	76	3
181	181	3
100	100	5
183	183	2
170	196	1
96	96	2
58	197	2
163	166	2
134	135	4
17	18	7
137	137	9
68	68	8
149	150	1
11	13	4
45	45	8
173	174	1
124	124	3
158	178	1
61	62	2
111	112	2
84	85	1
152	153	3
33	33	8
62	64	3
31	41	3
18	20	2
156	157	3
53	183	2
121	121	5
74	75	6
170	170	5
25	25	5
175	176	3
51	53	2
125	139	1
14	50	3
78	78	3
133	136	4
78	87	3
135	136	1
90	100	1
28	63	1
60	155	1
33	116	2
25	26	2
154	156	6
108	110	1
165	168	2
156	177	1
1	2	2
162	188	2
125	125	2
115	115	4
52	54	1
143	144	3
14	15	1
103	103	2
120	120	4
4	13	2
170	171	4
100	115	5
16	18	4
176	176	5
169	196	1
61	74	1
102	152	2
90	102	1
24	44	3
131	131	4
104	105	2
15	34	3
116	117	2
31	112	4
62	63	5
120	153	2
58	86	1
27	28	3
177	177	7
182	188	4
74	113	1
70	74	2
24	25	8
180	187	5
55	100	1
57	58	6
61	61	1
30	47	2
121	179	2
109	109	2
129	139	3
14	14	6
196	196	7
192	193	3
38	39	2
109	136	4
148	179	1
143	167	2
113	114	1
48	55	2
85	118	2
7	9	1
177	179	2
67	71	1
49	66	2
18	19	4
94	95	5
15	48	2
99	100	4
116	131	3
87	87	2
141	195	2
113	138	1
149	152	2
23	24	1
68	69	2
135	137	1
97	114	4
8	10	2
114	122	6
3	5	2
174	174	6
56	99	1
192	194	2
30	32	2
60	60	8
24	73	1
69	69	2
135	139	1
88	89	2
144	145	3
70	76	2
138	170	2
104	165	3
190	193	1
33	35	1
81	81	1
2	3	6
19	20	2
167	168	2
60	152	1
45	46	3
5	6	5
18	18	1
190	192	1
9	10	3
106	148	2
157	158	2
191	192	1
171	182	1
17	82	2
28	30	2
53	54	1
6	6	1
173	173	4
141	145	1
145	150	2
138	138	2
148	149	2
122	136	1
16	17	2
57	183	2
22	22	4
180	186	1
165	166	3
104	167	1
18	38	3
58	88	1
81	88	1
110	114	3
76	78	2
93	94	1
135	138	1
2	37	2
0	34	1
142	156	2
179	180	1
153	175	2
181	183	2
111	136	3
103	108	3
97	118	2
4	4	2
76	77	1
116	179	2
155	156	1
96	101	2
166	169	1
147	180	1
153	153	3
34	35	3
42	43	4
26	40	1
9	32	1
119	121	2
113	128	2
111	114	1
96	99	1
114	115	1
29	29	1
75	77	4
141	183	1
137	138	1
142	161	2
106	107	2
49	52	1
29	74	1
163	187	1
67	75	1
102	107	1
3	71	2
70	114	2
31	71	1
24	24	1
70	71	1
131	138	2
136	137	3
9	37	1
42	45	1
126	138	2
81	82	1
102	104	1
150	156	1
173	186	1
2	36	1
151	152	1
30	48	1
107	112	1
110	110	2
180	181	1
109	110	3
158	179	1
64	70	1
121	157	1
109	149	2
123	124	1
1	34	2
176	177	1
143	165	2
146	146	2
105	115	1
190	191	1
64	66	1
181	182	3
63	65	1
38	40	1
84	87	1
48	50	1
47	48	1
161	190	1
162	187	1
160	166	1
163	167	2
33	81	1
130	133	1
122	157	1
71	74	1
22	24	1
120	121	1
88	88	1
103	105	1
