87	110	2
32	32	11
63	64	2
2	2	6
118	120	3
99	99	7
122	122	4
108	109	5
78	78	7
112	112	3
127	128	5
86	86	4
75	144	1
18	74	2
71	72	1
65	66	1
126	130	1
61	62	4
25	50	2
35	35	7
126	126	7
114	127	2
28	28	3
108	121	2
83	85	3
34	36	1
95	95	4
63	63	7
73	80	2
86	131	2
42	42	8
123	123	7
89	91	4
68	68	3
122	123	3
18	18	11
9	30	1
89	89	4
41	41	2
40	40	10
51	51	6
30	30	6
121	141	1
126	127	3
130	130	7
53	58	2
117	117	3
15	21	2
52	83	2
110	117	2
127	136	4
27	27	6
136	136	1
111	111	8
97	98	1
134	134	4
72	73	1
83	84	5
119	119	4
64	94	2
78	107	2
104	104	3
16	55	1
34	34	7
33	99	4
29	29	8
3	54	1
85	85	3
67	67	7
48	100	2
143	143	2
78	98	1
19	22	2
13	13	5
70	143	2
91	91	1
64	65	1
128	137	3
24	37	1
80	137	3
35	49	2
64	66	3
65	65	6
129	139	3
26	48	1
22	23	2
135	136	3
26	35	4
68	84	1
102	103	3
132	132	4
48	60	2
30	38	2
1	4	4
99	100	2
55	55	6
73	73	4
15	19	2
81	82	1
144	144	4
21	21	2
114	114	1
1	35	1
54	54	8
81	81	7
40	145	1
104	105	1
124	124	6
23	53	1
127	130	4
55	90	2
24	24	4
5	142	2
60	60	6
80	80	3
62	62	1
54	84	2
21	145	2
6	6	2
139	139	5
58	58	5
19	19	1
8	8	4
33	127	3
74	76	1
128	131	1
22	22	4
2	3	2
20	21	1
120	121	1
87	87	3
16	16	3
47	101	2
39	39	2
86	92	2
71	71	2
88	88	4
71	73	1
100	101	1
59	141	1
125	125	5
52	52	3
64	64	6
119	123	3
60	144	1
138	138	5
96	96	6
129	130	2
119	120	2
82	139	2
82	82	5
84	84	2
72	72	6
59	102	2
65	85	1
88	89	2
31	33	5
132	136	5
121	121	8
53	77	1
116	117	4
17	17	3
70	70	8
122	139	3
115	115	2
103	103	2
3	3	1
57	61	1
90	90	2
0	4	1
113	113	3
107	107	4
18	19	2
23	23	4
116	116	3
58	144	1
124	125	2
127	127	2
58	76	4
74	74	5
10	10	4
48	74	1
4	142	1
85	111	2
25	25	3
47	48	2
29	71	1
106	106	1
77	88	2
20	20	2
21	22	1
42	141	1
130	131	1
122	127	1
14	15	1
87	88	1
117	120	2
30	66	2
13	43	1
10	11	3
55	61	1
48	48	2
26	26	2
49	49	3
54	56	1
79	79	1
15	16	1
97	100	1
54	73	1
128	129	5
59	59	4
14	19	4
24	26	1
87	106	1
22	41	1
6	49	2
36	36	4
13	14	3
20	27	2
51	52	1
3	49	4
112	113	1
93	93	3
125	126	4
48	80	2
15	15	4
16	18	1
39	43	3
2	48	1
24	25	2
32	34	1
1	1	2
69	84	1
90	91	2
130	133	2
113	119	1
56	56	2
107	108	2
83	83	2
78	110	2
118	118	1
16	17	1
82	83	3
2	36	1
31	31	3
5	37	1
24	36	2
53	53	2
8	19	1
14	20	3
105	105	1
38	38	6
142	144	1
128	134	1
91	94	1
138	139	1
9	10	1
97	97	3
11	11	1
58	59	1
79	125	1
48	98	1
110	110	1
134	137	1
129	129	1
114	115	1
22	33	1
5	11	2
35	36	1
5	128	1
50	111	1
137	138	2
49	75	1
134	135	1
92	92	2
49	50	1
98	99	1
22	37	1
25	35	2
9	9	1
93	109	1
5	5	2
109	109	2
73	79	1
38	58	1
108	111	1
119	137	2
114	138	1
73	122	1
36	47	1
1	37	1
60	61	2
11	32	1
105	111	1
47	47	2
123	135	1
12	12	2
127	133	1
12	39	3
68	70	1
95	144	2
43	43	2
113	114	1
109	123	2
24	27	1
58	105	1
130	139	1
78	106	1
1	21	1
139	140	4
137	137	1
66	67	2
75	94	2
16	27	1
37	57	1
121	140	1
6	20	1
50	50	1
12	34	1
108	117	1
119	127	1
75	92	1
0	57	2
55	57	1
29	72	1
53	90	1
112	119	1
75	141	1
102	102	1
31	32	1
109	110	1
75	75	1
23	36	1
136	137	1
33	33	1
128	139	1
10	32	1
120	120	1
76	76	1
77	77	1
2	6	2
133	133	1
117	137	1
84	113	1
52	110	1
19	20	1
23	33	1
53	132	1
104	113	1
117	119	1
125	131	1
123	124	1
126	128	1
101	142	1
105	137	1
2	5	1
