52	52	24
86	86	2
68	68	8
9	9	16
216	218	10
184	184	2
63	63	9
206	206	3
226	227	2
219	220	3
64	64	2
178	179	9
13	14	2
57	58	3
22	22	8
19	19	13
204	234	5
146	147	7
239	239	5
48	48	11
113	113	12
193	194	3
152	153	1
157	160	2
6	53	2
150	150	18
202	203	5
186	186	1
245	245	1
54	54	10
224	227	3
109	110	2
6	38	1
37	38	4
152	152	7
234	235	3
42	153	3
31	31	10
11	224	5
103	103	3
177	177	9
58	63	2
244	244	7
108	108	1
62	62	12
37	37	7
201	201	10
238	238	1
114	114	7
111	111	11
147	147	10
30	30	3
183	183	8
158	158	2
203	203	14
28	28	5
151	151	14
15	15	8
226	226	13
55	59	2
39	39	5
36	37	3
79	80	1
157	231	1
116	116	12
222	222	8
233	233	4
248	248	3
180	180	8
17	17	8
112	119	1
179	179	9
154	173	2
206	207	8
99	100	4
149	150	3
109	109	10
99	99	1
33	33	11
36	212	1
149	149	4
87	87	4
29	149	4
117	164	1
55	55	13
111	115	5
160	225	1
36	36	9
111	165	1
163	163	9
223	223	6
213	215	1
21	23	2
51	51	7
112	112	8
198	198	3
171	171	6
35	35	11
246	246	6
213	213	5
85	85	4
7	7	8
39	40	8
34	35	1
110	110	10
59	71	4
202	202	7
59	60	2
47	48	2
1	1	15
32	32	4
117	117	2
23	23	4
72	73	2
231	231	7
218	218	4
167	167	8
166	166	4
115	115	5
160	160	5
70	70	6
42	42	12
222	223	1
8	8	8
204	204	9
95	95	8
174	174	5
218	219	8
14	15	2
81	82	3
145	151	1
38	38	5
164	164	7
77	118	2
12	12	2
222	231	3
161	163	2
223	236	6
229	229	5
201	214	3
11	11	7
27	27	8
4	209	5
234	234	7
153	173	2
84	92	2
29	29	14
104	106	1
102	102	1
199	200	3
3	3	5
20	20	3
73	118	4
84	85	2
35	36	1
5	5	5
189	189	10
11	62	2
104	119	1
15	16	4
73	117	1
5	49	5
100	100	3
120	144	2
71	72	2
86	87	3
21	21	2
101	116	1
166	169	1
32	115	2
212	212	10
155	155	7
236	237	2
33	154	4
193	193	4
80	81	5
74	74	1
79	166	3
54	55	3
18	18	9
30	157	1
192	192	4
184	185	4
200	200	5
186	190	3
28	235	2
146	146	3
172	172	3
154	154	6
93	94	3
43	202	4
69	70	4
47	47	5
181	183	6
55	56	2
40	202	2
225	225	3
157	233	1
146	158	4
154	155	1
84	84	1
80	80	2
76	76	7
178	178	6
156	156	8
45	45	7
236	236	1
12	31	2
211	212	2
196	196	3
166	170	2
204	220	2
61	61	3
185	186	3
43	44	3
87	103	2
199	199	5
26	26	4
72	72	2
211	211	3
145	145	2
30	38	1
224	225	1
157	157	1
91	99	6
41	41	7
193	195	2
29	44	1
40	40	3
20	22	5
175	176	2
190	216	4
56	56	7
13	13	2
165	166	4
26	27	3
50	51	3
83	91	1
65	65	4
101	101	2
167	205	3
6	7	1
47	51	3
96	96	1
83	83	2
4	208	1
147	230	2
93	93	3
162	162	1
41	212	1
172	181	2
90	90	1
90	100	1
89	89	7
232	232	2
227	231	1
104	164	1
97	97	2
62	63	1
203	204	1
205	205	1
240	247	1
10	10	4
209	209	3
240	240	7
223	234	3
66	66	1
77	78	2
191	192	1
167	168	3
43	43	1
167	170	3
107	108	2
241	241	2
227	227	6
153	153	3
88	88	2
77	77	1
157	158	3
93	204	1
39	100	1
91	91	3
8	20	1
58	58	3
241	242	4
119	119	2
44	202	3
63	65	1
46	46	4
70	117	1
24	24	2
162	165	3
181	182	4
58	60	3
150	151	4
3	17	2
54	62	4
210	211	1
16	16	4
60	60	2
184	194	3
106	107	1
204	222	1
51	52	1
57	57	2
59	61	2
161	161	3
15	18	1
44	44	2
172	183	1
228	231	3
208	209	2
183	184	3
9	10	1
2	3	1
190	190	2
197	197	4
238	239	1
78	78	3
25	25	5
34	34	1
216	216	2
179	184	3
175	175	1
179	183	1
193	210	1
112	113	2
4	5	1
75	76	2
120	120	1
107	107	1
36	211	2
223	233	1
111	114	1
32	82	1
38	45	1
46	52	1
38	40	1
189	246	1
25	40	1
2	15	1
173	173	2
168	172	1
111	153	1
165	165	3
14	14	1
235	235	3
8	39	1
6	6	1
182	182	2
71	71	2
110	111	3
85	86	1
193	219	3
93	215	1
214	214	1
217	217	1
1	145	1
190	236	1
24	202	4
11	15	1
34	168	2
107	119	1
220	220	1
163	188	1
188	188	4
3	15	1
81	81	2
15	155	1
33	77	1
187	187	1
82	82	2
185	185	1
104	165	1
95	96	1
33	36	1
52	53	1
15	156	1
19	20	1
30	34	1
191	191	2
114	115	1
106	106	1
86	170	2
46	200	1
118	164	1
176	176	1
61	71	1
30	31	1
14	41	1
85	167	1
5	50	1
247	248	1
12	46	1
206	212	1
