130	130	4
10	10	6
4	19	1
12	12	10
101	133	2
57	57	8
79	80	6
103	103	5
129	129	3
29	43	2
125	126	3
63	63	5
87	90	6
6	6	9
42	48	1
30	30	11
111	111	7
128	128	7
132	132	7
61	61	5
84	84	5
92	103	3
43	57	2
9	16	2
113	122	1
98	98	2
117	118	1
23	23	1
22	40	1
15	16	1
44	45	4
13	40	2
16	18	1
34	34	14
68	68	6
100	100	5
59	59	10
77	134	2
10	11	5
120	120	6
18	18	2
11	11	4
133	133	6
102	103	8
107	121	2
37	41	1
31	31	5
19	19	7
71	133	2
99	99	4
8	8	2
7	7	5
42	42	1
48	69	3
14	14	5
32	33	4
77	77	10
14	15	2
113	113	2
88	88	6
78	79	3
73	73	3
15	35	1
36	36	6
87	87	1
69	69	3
78	78	11
103	121	1
112	112	3
16	16	3
32	40	1
62	62	3
106	107	4
97	97	2
127	127	7
127	130	2
110	111	2
125	125	4
102	119	1
122	122	2
98	99	1
93	93	5
126	126	14
22	26	4
91	92	5
116	116	4
9	9	4
48	48	2
118	118	1
134	134	5
29	30	4
65	65	5
33	33	3
76	77	3
20	20	6
35	35	3
45	59	3
5	5	6
76	76	3
34	39	3
79	79	4
72	72	6
104	105	1
59	73	2
37	37	2
81	85	3
44	44	4
104	104	9
29	29	4
115	119	3
61	125	5
86	86	2
46	46	4
61	72	3
1	61	8
94	96	7
102	114	3
55	55	2
56	58	1
39	41	1
84	87	3
32	32	1
90	110	1
105	105	5
95	95	5
106	106	7
94	133	2
96	96	2
65	66	2
100	126	5
31	32	3
114	114	3
21	22	4
116	117	3
25	25	7
119	119	2
80	80	3
38	38	2
0	0	2
10	20	1
66	68	2
123	123	3
83	83	7
111	113	4
118	119	5
29	56	2
72	73	2
90	106	2
102	105	3
15	15	2
64	65	2
11	12	1
110	110	1
101	101	6
122	124	1
47	47	2
6	42	2
2	11	4
107	107	6
111	122	1
1	1	1
36	58	3
124	124	6
12	37	3
121	126	2
26	26	2
108	108	2
28	28	3
34	35	2
38	41	2
2	8	2
45	46	3
66	66	6
33	41	1
110	112	1
102	102	3
90	113	5
48	56	2
45	45	2
114	117	1
94	94	5
4	4	6
75	75	4
82	82	2
85	85	3
105	106	2
36	37	3
73	74	5
83	95	3
10	17	1
126	127	2
70	71	2
70	77	5
31	39	1
46	47	2
5	6	1
45	60	3
71	71	1
59	60	2
6	7	2
112	113	1
97	98	2
102	104	1
39	59	1
19	26	1
19	20	1
75	76	1
31	57	2
23	26	2
5	17	1
21	55	1
98	112	2
111	120	1
131	131	2
89	89	2
67	67	1
94	97	1
107	108	1
131	132	1
70	70	1
5	40	1
41	41	2
24	24	1
35	59	1
121	123	3
0	2	1
66	67	1
113	116	1
5	41	1
96	97	1
74	74	1
93	94	3
3	3	1
30	34	1
35	43	1
14	16	1
19	21	1
13	13	1
122	125	1
17	17	1
104	107	1
29	37	1
91	91	2
115	115	1
58	59	1
33	34	1
39	39	1
14	39	1
5	13	1
43	43	1
93	105	1
