104	105	1
137	137	6
139	139	4
115	126	6
123	123	8
128	128	9
8	8	13
23	25	7
124	124	5
72	72	7
77	77	3
13	24	6
134	134	7
0	4	4
12	12	9
35	35	6
96	96	4
126	126	9
132	132	6
79	79	3
111	111	2
84	84	1
82	82	5
95	95	10
32	32	7
33	33	4
7	8	10
31	115	3
73	73	3
109	109	10
36	127	1
31	32	6
74	78	1
75	75	7
29	29	2
88	88	10
74	75	4
7	10	1
81	82	4
29	30	4
0	29	4
37	37	8
11	14	1
121	124	4
19	19	5
82	84	2
97	97	4
4	4	6
14	26	2
2	4	3
107	108	6
2	2	4
139	140	1
88	90	4
10	10	1
71	96	1
17	17	1
23	24	3
101	101	6
123	125	2
13	13	9
30	30	4
105	110	3
130	130	6
108	109	2
5	5	3
83	85	2
32	33	3
138	138	4
75	99	1
24	24	4
102	112	2
107	110	3
94	120	3
106	106	2
117	117	5
105	105	5
5	12	1
125	125	2
116	117	2
135	135	3
118	119	2
102	102	4
107	107	4
3	3	2
9	9	6
19	20	2
131	131	3
71	79	5
114	120	3
31	31	4
15	15	5
122	123	1
35	96	2
16	16	8
122	122	3
74	123	6
27	28	5
110	110	3
26	26	4
127	127	5
133	133	3
30	31	1
27	93	2
106	107	1
20	21	3
100	100	2
27	27	1
81	83	2
116	116	3
120	120	5
92	92	4
98	98	9
104	110	1
119	119	2
125	126	2
93	93	3
111	112	3
105	106	3
18	19	5
14	14	4
112	126	3
104	112	2
86	87	2
77	78	1
129	129	4
13	29	3
115	115	5
91	91	5
117	123	2
77	82	5
18	18	4
114	115	1
138	139	2
114	114	4
71	71	2
109	116	1
20	20	1
104	104	1
11	12	1
121	122	3
13	28	2
37	38	3
23	23	2
90	90	6
33	73	1
113	113	2
102	103	1
94	94	4
103	104	2
81	85	1
101	109	2
24	88	2
24	26	4
78	80	1
121	125	1
124	126	1
113	118	1
7	7	2
118	118	3
1	1	1
106	112	1
115	116	1
108	108	2
86	86	1
101	102	1
80	81	2
0	1	1
0	14	2
117	120	2
28	93	1
34	36	1
116	128	1
0	94	2
73	125	1
36	36	1
83	83	1
29	93	1
74	74	2
23	26	3
98	107	2
81	84	1
11	11	1
28	94	1
119	120	1
4	6	1
95	96	1
