45	46	4
185	185	12
49	49	11
159	159	22
28	28	12
182	182	22
82	83	4
199	199	20
221	221	19
98	98	16
153	153	14
244	244	24
180	180	8
168	239	3
104	104	8
12	12	11
219	241	2
55	56	2
76	76	22
180	182	1
202	202	10
59	59	11
172	172	11
89	147	2
196	196	31
192	198	7
152	153	2
174	174	5
198	199	11
29	29	8
232	232	13
213	213	10
16	150	2
21	21	6
183	206	2
151	151	10
38	38	15
95	97	5
101	101	6
184	184	12
107	108	4
54	54	14
18	18	15
68	78	5
0	44	3
162	162	11
8	8	13
170	170	12
235	236	4
58	59	3
6	6	6
161	161	13
93	93	10
20	20	2
239	241	2
91	91	9
231	231	10
94	94	20
72	72	13
214	215	5
112	113	13
73	73	9
40	46	14
229	230	6
163	163	14
30	30	11
101	114	1
163	190	5
217	217	13
245	246	24
65	65	19
169	169	13
43	55	1
183	185	6
21	22	4
99	99	19
39	39	17
212	212	13
244	245	4
195	195	16
206	206	6
117	117	6
208	208	8
80	82	2
246	246	9
33	33	10
205	205	4
25	25	16
233	234	7
68	68	18
166	166	19
165	165	8
164	164	24
17	17	7
14	18	7
88	88	15
66	66	14
240	241	12
229	242	5
176	176	12
3	60	1
214	214	11
245	245	13
168	220	7
175	175	9
214	216	7
222	222	27
196	199	3
75	77	3
34	35	5
68	70	7
53	53	15
228	229	7
159	172	4
50	50	7
75	76	9
209	209	15
190	190	12
219	219	19
213	214	10
204	205	2
44	44	9
158	158	10
230	244	1
115	115	15
1	18	5
166	196	1
23	23	4
113	114	7
107	107	19
233	233	20
242	242	13
228	232	2
11	12	2
26	26	8
57	57	20
209	210	9
179	179	12
240	240	10
85	93	2
228	228	7
4	34	4
186	186	13
226	226	10
230	230	6
69	69	8
192	192	6
118	118	17
7	7	12
159	163	3
99	100	6
95	95	20
83	83	4
41	49	7
2	2	17
106	106	15
91	145	4
209	211	7
160	160	10
185	186	5
200	200	16
84	84	16
9	63	1
187	187	10
40	40	10
10	63	7
67	68	8
81	109	1
198	198	13
207	207	9
215	215	10
63	63	13
178	180	4
163	181	4
202	212	3
243	244	9
210	211	6
92	100	4
152	152	7
92	92	12
15	15	10
108	109	7
86	86	21
236	236	14
172	173	2
67	67	10
32	32	12
20	21	5
197	198	11
74	74	11
79	118	3
238	238	23
5	35	3
35	35	12
146	146	5
214	217	3
45	45	6
184	185	4
75	75	25
178	178	14
79	108	15
80	80	2
237	237	12
234	234	15
89	89	10
175	176	12
88	89	2
27	27	7
216	242	5
150	150	8
171	171	9
155	155	10
62	62	22
114	114	8
95	96	9
119	119	18
224	225	8
70	78	1
194	194	20
233	237	5
209	235	9
205	207	7
90	147	3
60	60	15
187	189	4
61	62	1
69	70	4
110	111	1
113	113	10
41	41	4
179	180	2
102	102	3
77	77	13
34	40	1
184	190	4
71	72	2
58	58	12
194	195	10
2	3	6
87	87	15
86	87	1
90	90	11
19	44	1
81	93	1
152	177	4
212	232	2
100	100	6
42	42	5
9	10	4
208	212	2
220	220	15
5	6	7
188	192	3
70	70	6
61	61	8
203	203	8
224	234	2
51	54	2
3	5	1
101	117	2
98	99	5
67	73	1
91	92	10
41	57	4
154	154	6
65	68	2
173	173	10
2	4	5
52	53	3
38	61	1
154	177	10
112	112	14
145	145	7
237	238	9
215	217	3
208	209	5
207	208	5
71	77	3
197	199	5
179	181	7
98	100	6
48	49	4
3	38	2
177	178	2
35	38	7
213	229	2
31	53	1
221	222	11
184	188	2
62	63	4
233	246	6
24	24	4
11	11	8
178	179	6
5	37	3
156	156	13
230	231	10
5	5	17
231	233	4
80	119	3
83	120	2
19	19	11
216	216	19
103	103	10
1	47	3
199	202	1
3	61	4
109	109	12
85	85	4
243	243	11
37	37	20
167	168	2
28	29	7
219	246	4
71	71	8
241	241	4
167	167	14
206	208	7
12	110	1
31	31	16
173	176	3
87	90	2
196	198	4
172	174	6
188	188	10
4	4	11
3	94	1
38	39	5
246	249	1
228	230	8
3	3	7
48	48	5
197	202	2
197	211	1
46	46	9
162	180	7
64	64	10
19	32	6
214	232	1
109	110	1
218	218	17
6	7	1
166	185	2
160	161	4
173	174	6
209	220	4
56	56	5
185	189	4
159	171	2
49	50	4
104	118	2
211	212	9
162	212	3
8	63	1
177	177	12
16	16	1
240	247	2
91	95	3
108	108	4
191	191	5
236	238	1
193	193	13
120	120	4
151	178	2
209	246	3
46	48	2
14	19	3
234	235	3
34	34	5
89	90	2
235	235	7
47	48	5
78	109	7
6	9	2
151	183	4
158	159	2
82	119	2
20	31	3
44	54	1
191	208	2
239	240	3
189	190	5
42	43	2
187	188	1
189	191	3
182	183	8
24	26	2
22	22	4
241	242	4
83	84	2
167	246	4
169	170	9
2	60	1
98	112	2
233	238	2
95	114	1
85	120	1
50	51	2
184	206	4
71	76	1
105	105	4
102	103	3
194	223	1
7	37	5
238	239	9
183	183	9
239	239	18
247	247	21
225	234	2
224	230	1
210	232	5
157	157	10
54	55	6
72	73	11
14	14	12
43	43	4
165	211	1
183	184	10
92	93	1
4	5	7
116	116	9
81	81	9
229	229	1
222	224	4
87	93	1
79	79	6
213	215	4
163	166	2
231	232	1
5	39	1
78	78	3
33	35	1
241	247	1
85	92	2
176	177	2
248	248	10
222	233	3
53	54	7
81	92	3
40	53	1
202	211	2
145	148	4
10	11	5
15	44	4
23	24	3
9	61	1
1	13	1
71	75	4
6	8	1
55	55	2
30	31	3
82	82	3
10	10	13
70	75	2
118	119	7
100	101	9
106	107	5
29	30	4
84	119	7
228	231	8
14	15	4
70	77	1
217	242	4
45	47	3
177	179	2
224	224	5
64	67	4
181	183	2
197	197	7
36	36	7
121	150	6
5	7	3
225	226	7
34	38	3
181	181	7
77	78	4
110	110	4
52	52	8
164	180	1
16	69	2
14	47	2
92	120	3
8	69	2
21	30	3
153	154	5
210	210	3
201	206	1
105	106	4
4	38	2
185	207	4
165	166	6
9	9	6
64	65	1
201	201	5
66	73	4
168	168	3
215	243	1
198	200	3
196	197	3
35	37	1
2	34	2
111	111	3
220	232	2
47	47	2
115	116	2
65	70	6
15	18	3
97	97	1
79	82	1
1	1	4
6	35	1
203	204	1
189	189	8
52	54	6
163	164	2
70	71	1
149	150	1
218	241	4
216	217	5
162	163	6
97	99	3
68	77	2
164	191	3
193	195	1
92	96	2
230	242	4
51	51	6
223	223	3
219	230	1
181	182	1
85	86	3
204	204	5
67	74	4
59	60	2
72	74	4
55	57	4
152	178	1
165	209	1
165	167	3
154	155	2
168	169	1
192	193	4
84	85	5
163	165	2
19	101	1
68	69	4
65	67	3
9	62	1
66	67	4
216	218	3
82	109	7
32	33	2
101	103	2
162	172	1
230	234	3
87	88	6
230	243	2
225	225	4
210	236	1
2	59	1
10	62	1
197	209	2
101	112	1
153	156	2
232	244	5
52	85	1
35	40	3
173	179	1
65	66	4
180	181	4
43	57	3
49	58	1
240	248	3
80	81	5
97	102	1
218	248	1
24	27	1
40	41	1
199	211	2
161	162	2
154	178	5
101	102	2
188	189	2
96	96	8
227	229	2
19	48	2
246	247	3
39	40	4
226	227	1
230	235	1
63	69	4
220	246	1
46	58	1
146	147	1
211	211	8
80	99	2
103	104	1
91	93	2
181	184	4
200	201	1
18	112	1
15	16	2
74	77	1
19	31	5
166	198	4
1	15	1
232	233	1
233	239	1
57	58	2
167	209	1
96	113	1
242	243	4
48	50	1
193	194	1
170	210	1
89	93	1
3	4	1
7	9	1
233	236	1
100	113	1
249	249	1
153	176	1
6	59	2
215	229	2
90	146	1
222	223	1
227	234	2
159	160	1
3	37	1
26	27	2
38	40	2
13	111	3
35	36	1
97	98	1
187	193	1
170	247	2
199	200	2
82	108	2
44	53	1
153	175	5
169	220	2
192	200	1
159	170	1
219	231	2
151	161	1
198	209	1
41	42	1
85	119	1
210	235	2
183	190	1
81	82	1
233	235	1
231	235	1
165	196	1
183	205	1
168	247	1
44	52	1
158	240	1
20	30	2
13	14	2
116	117	1
93	96	1
215	230	1
163	179	1
22	52	1
37	62	1
79	80	1
155	156	1
71	74	1
86	88	1
227	227	1
23	28	1
49	51	1
90	145	1
42	57	1
214	230	1
228	234	1
96	99	1
152	176	1
18	19	1
185	201	1
10	60	1
178	182	1
222	234	1
79	83	1
48	58	1
221	234	2
184	205	1
182	184	1
95	99	2
201	202	1
13	15	1
179	190	1
105	107	1
201	204	1
167	208	1
