84	99	3
126	126	5
100	101	2
13	13	6
148	149	1
3	3	1
8	8	1
56	56	7
68	108	5
106	106	1
35	35	4
76	76	6
113	113	6
8	21	4
123	123	3
112	112	4
115	115	2
17	17	5
24	24	2
96	96	1
141	141	6
41	41	10
48	48	4
140	140	6
86	86	9
97	97	9
3	49	1
37	38	2
14	26	5
153	153	5
125	126	3
54	55	5
35	101	1
19	19	7
89	93	1
34	79	2
115	116	1
151	151	5
13	26	1
83	99	2
72	72	2
111	111	3
34	74	3
79	103	6
24	25	3
38	102	1
145	146	2
108	108	7
30	30	3
6	57	3
26	99	4
66	66	4
109	109	4
72	73	5
132	133	1
124	124	7
39	39	6
57	57	4
150	151	4
11	11	4
100	122	2
46	47	1
81	82	1
117	120	1
95	95	4
20	20	2
5	5	2
93	93	5
29	30	2
43	43	3
77	104	1
50	51	2
51	51	3
80	80	6
7	7	6
12	12	2
90	92	4
33	33	1
46	46	5
69	72	1
98	98	6
124	131	4
31	31	2
26	142	1
81	81	1
28	29	3
128	128	3
11	13	1
68	68	3
152	152	2
127	127	2
117	117	4
40	40	2
48	53	2
50	50	5
17	27	1
110	110	3
85	85	3
10	10	3
82	82	1
78	78	5
69	70	2
94	144	2
109	111	2
25	85	1
78	102	1
36	79	1
129	146	1
71	71	3
25	25	2
28	28	3
28	53	3
105	105	2
77	78	2
133	133	4
122	122	2
132	132	2
73	74	1
49	50	3
134	150	1
78	106	1
18	19	1
61	105	2
42	43	1
139	139	2
61	104	2
126	127	2
145	145	2
125	125	3
130	146	4
78	117	1
79	79	1
136	136	5
129	153	4
126	144	2
21	22	2
135	137	2
8	9	1
29	106	1
65	66	2
138	138	1
92	93	2
34	83	1
5	7	2
118	118	1
125	131	1
142	142	2
133	134	3
67	67	1
16	16	1
134	134	1
102	102	3
97	113	1
88	126	2
15	15	3
18	18	1
35	79	1
96	141	1
4	5	1
23	23	4
149	152	1
21	21	1
6	6	4
147	148	1
131	131	2
27	28	2
82	98	1
54	54	2
99	99	1
132	135	1
127	150	1
100	100	2
81	87	1
128	149	1
129	129	1
19	57	1
11	22	1
86	114	1
13	16	1
101	101	1
74	74	1
34	51	1
108	115	1
109	110	1
85	86	1
6	7	1
