23	24	4
65	65	5
54	54	4
15	15	3
4	4	5
38	89	1
104	104	3
46	47	2
125	125	3
85	85	4
48	100	2
55	55	3
121	121	9
46	120	1
67	71	1
61	127	1
39	81	3
9	27	3
58	130	1
40	126	2
131	131	4
78	78	5
77	77	2
47	47	7
67	68	5
52	52	6
105	106	4
22	22	7
112	120	2
101	128	2
63	63	9
50	121	2
66	66	3
91	102	2
57	57	2
91	91	7
71	71	2
14	80	2
59	59	11
13	13	4
9	12	1
40	71	2
101	114	1
122	124	1
88	88	6
8	17	2
25	25	10
127	129	3
48	48	5
29	30	3
16	17	3
122	122	9
81	81	1
88	119	4
98	102	2
86	87	13
24	28	1
95	95	2
60	61	1
14	16	3
28	28	3
18	19	1
58	58	8
89	119	1
104	129	1
52	121	3
9	30	2
83	97	3
73	73	2
6	6	6
82	85	2
19	19	3
56	56	6
123	123	4
33	34	2
95	96	1
46	46	5
66	67	3
8	9	1
33	82	1
73	76	2
38	87	2
111	111	4
18	18	2
26	27	2
67	67	1
70	70	4
40	43	3
88	99	4
13	14	4
62	71	1
70	129	2
55	57	1
74	74	2
112	112	5
24	24	4
102	102	2
41	41	1
92	92	3
121	125	2
49	120	1
101	101	5
10	11	10
62	62	3
127	128	4
99	125	2
24	26	1
117	117	4
12	13	2
61	61	4
71	97	3
89	89	3
49	113	2
75	75	4
97	97	2
27	29	7
70	103	2
23	23	3
82	83	2
38	127	1
45	45	6
15	80	4
38	131	4
49	49	3
113	113	2
50	50	1
128	128	8
25	27	3
47	106	3
83	83	1
43	43	3
61	75	3
13	17	2
20	21	1
62	69	3
2	33	2
11	11	2
119	119	7
97	98	3
32	38	2
99	100	2
73	101	1
64	68	2
47	120	2
43	60	1
83	125	3
0	0	2
26	26	3
120	128	1
69	120	3
54	85	2
23	25	1
76	76	4
12	27	1
14	14	6
17	17	4
104	108	2
80	80	7
130	130	1
1	81	5
63	65	1
106	106	3
70	97	2
10	10	3
54	105	2
125	126	2
25	26	4
65	67	4
120	120	2
40	125	1
116	116	2
10	15	1
72	72	1
5	5	2
114	117	2
93	93	1
67	69	1
53	53	5
98	98	5
63	67	1
79	80	2
30	30	1
85	86	1
129	129	6
32	32	6
23	27	2
70	71	1
17	18	1
38	129	2
33	43	1
21	21	3
62	119	1
42	42	2
69	69	1
7	12	1
51	51	2
89	125	1
9	9	2
105	133	1
1	1	3
91	104	1
100	100	2
112	133	2
31	31	1
79	79	2
3	3	1
23	112	1
70	109	2
132	132	1
71	103	1
82	128	1
108	108	4
7	7	2
68	99	1
48	111	2
88	90	1
132	133	1
92	127	2
0	82	3
47	91	1
40	44	1
101	108	1
107	108	2
4	5	1
62	63	2
93	102	2
112	118	2
55	83	1
46	106	1
68	68	2
39	39	2
80	81	1
40	66	2
99	99	2
105	105	1
84	84	2
118	118	2
86	86	2
33	33	1
52	53	1
129	130	1
75	76	1
98	124	1
11	26	1
87	88	2
58	59	1
15	20	1
16	78	1
72	81	1
109	132	1
65	68	1
12	12	1
102	103	1
99	119	2
27	27	1
1	3	2
58	103	1
110	110	3
73	74	1
113	117	1
23	28	2
61	70	1
1	10	1
103	132	1
126	126	1
90	90	1
87	87	1
