9	9	4
28	30	2
25	26	2
113	113	11
109	110	2
78	78	8
3	6	6
3	3	7
104	104	18
50	52	3
77	77	1
100	132	6
81	81	4
123	123	8
15	16	3
35	35	5
83	83	12
118	118	9
119	119	13
26	26	4
71	71	4
103	103	13
105	105	8
66	67	3
113	115	3
27	27	4
133	133	13
131	131	14
120	120	8
85	87	5
99	133	4
120	121	11
124	128	1
115	115	16
121	122	16
134	135	2
117	118	7
10	10	8
128	129	5
87	87	12
120	122	7
106	106	10
130	132	5
25	25	4
5	5	13
115	116	8
96	97	11
7	7	3
129	129	15
128	128	7
107	117	4
8	9	4
99	99	17
130	130	17
101	115	4
57	83	2
28	28	4
34	34	9
133	135	2
122	123	5
95	95	11
19	20	2
64	65	7
3	4	3
122	122	2
56	56	8
37	38	1
114	114	4
13	14	5
76	76	11
106	117	4
110	110	2
102	102	10
100	100	7
126	126	6
91	91	7
113	116	17
62	62	6
106	114	5
122	128	4
86	92	2
80	80	5
75	75	7
74	74	6
44	44	7
94	94	5
65	73	3
97	97	17
0	0	14
101	102	5
116	116	4
55	55	6
109	109	4
70	70	9
112	112	11
94	95	6
102	135	1
10	11	2
45	45	9
10	79	1
66	66	7
127	129	5
3	10	1
2	2	7
82	82	6
103	104	5
88	88	11
37	37	2
90	90	7
125	125	20
1	104	3
112	113	7
20	25	3
118	119	6
60	60	7
69	69	1
85	85	5
107	107	10
73	74	1
11	79	4
1	10	1
101	101	7
53	53	9
0	10	4
132	132	7
0	81	4
6	7	5
34	46	2
106	118	2
80	81	1
87	88	1
13	13	8
4	7	3
9	11	1
110	113	1
58	58	7
59	60	4
19	19	1
1	83	2
101	135	1
23	23	3
124	125	6
79	79	11
11	45	3
111	112	2
22	22	4
5	44	3
23	27	1
96	96	1
12	12	3
114	121	1
104	105	3
126	127	3
25	27	4
68	70	2
49	49	4
98	98	2
6	6	4
56	57	4
93	94	2
106	107	2
110	111	5
134	134	6
108	111	7
64	64	7
125	126	2
50	50	1
3	7	2
119	123	2
89	89	3
112	114	1
108	108	9
11	11	2
48	48	4
113	114	2
38	39	1
21	21	3
99	101	2
89	92	3
127	127	3
69	70	1
97	98	4
30	30	4
22	24	3
124	124	4
88	89	1
132	133	2
102	115	1
61	61	5
86	86	7
19	23	3
16	17	4
123	124	1
57	57	2
57	59	4
68	69	3
32	32	1
73	73	2
13	18	2
12	13	2
105	111	5
121	123	2
52	52	4
12	77	1
117	119	1
21	33	1
130	131	2
18	18	2
79	80	2
84	84	4
6	45	2
1	1	1
100	101	1
86	87	1
29	30	2
120	127	1
101	119	1
59	59	4
92	93	6
110	114	1
23	26	1
67	68	2
50	51	2
121	121	4
21	22	4
15	15	3
99	102	1
5	49	2
65	65	3
107	108	2
88	90	1
7	8	2
105	108	1
35	36	2
16	16	2
110	112	3
36	36	1
100	122	1
26	28	1
33	33	1
43	45	1
1	9	1
32	77	1
38	38	1
100	130	1
77	78	2
23	25	1
4	5	1
116	118	2
95	98	3
65	68	1
31	31	2
106	121	1
33	34	1
4	4	2
18	76	1
95	96	1
54	54	1
102	118	2
105	110	1
46	46	1
45	46	1
24	24	1
135	135	1
29	29	1
98	99	1
