123	123	4
50	50	4
49	50	1
70	70	2
41	41	7
60	61	5
135	138	2
138	138	10
61	61	13
132	134	2
48	51	1
30	31	2
75	78	1
111	111	1
101	104	6
140	140	5
71	71	2
28	28	1
72	104	3
53	107	2
83	83	4
0	2	5
62	62	7
56	110	1
127	127	3
18	35	2
61	62	5
132	139	2
131	131	11
80	80	7
26	26	7
6	6	4
122	123	5
47	47	1
129	129	6
86	88	4
136	136	7
43	43	2
21	21	5
115	115	5
122	122	2
94	98	2
103	135	2
59	60	2
119	123	3
129	143	2
129	134	1
2	2	1
111	138	6
30	37	1
141	142	2
39	40	3
109	110	3
76	81	3
55	59	1
81	81	3
91	91	12
68	110	1
121	125	1
15	20	2
19	20	3
126	140	2
10	10	4
130	130	16
90	111	1
54	54	7
39	41	4
101	101	11
38	38	12
48	48	7
133	142	2
103	103	8
20	20	9
29	29	1
48	49	5
105	139	1
53	55	2
98	98	3
137	137	6
52	70	3
110	139	4
17	19	1
113	113	3
31	31	7
59	59	6
17	17	7
141	144	1
105	109	3
118	118	4
60	120	1
105	106	2
73	73	4
72	72	5
78	105	1
58	60	2
104	104	1
96	96	3
1	1	2
98	99	4
64	65	1
93	94	3
55	55	3
51	51	2
11	11	3
97	99	1
79	108	1
60	92	4
78	79	3
64	64	3
87	88	2
39	50	2
103	139	1
62	64	1
49	49	7
110	110	6
68	68	2
99	100	3
65	65	2
46	104	3
73	81	4
139	139	1
142	142	5
58	58	4
89	94	4
48	60	2
114	114	6
102	102	5
89	89	3
74	90	5
105	105	3
22	23	3
75	85	1
101	103	1
114	116	2
126	135	2
72	87	4
79	85	1
69	69	2
20	24	1
134	136	2
93	97	2
53	53	4
72	137	1
109	109	6
52	59	2
87	87	1
79	79	7
4	4	6
124	132	2
108	146	1
56	68	4
66	87	1
128	133	2
50	51	2
74	74	5
19	19	4
57	82	2
92	94	1
13	13	4
29	37	2
54	113	1
63	63	1
0	26	3
130	131	6
59	97	1
27	27	10
16	16	9
126	129	4
3	4	5
48	79	2
113	134	4
135	135	3
60	97	2
20	33	1
25	25	2
34	138	3
100	100	2
117	117	4
138	139	3
24	24	2
58	97	2
125	126	1
18	18	5
60	82	1
120	120	5
73	74	3
105	118	3
49	82	2
16	35	1
87	97	2
5	5	2
35	35	1
116	117	2
15	19	2
137	138	1
66	66	1
60	60	2
85	110	2
77	79	2
2	35	1
0	0	1
114	115	1
55	140	3
75	75	3
70	84	1
118	119	2
38	134	1
32	32	2
79	82	1
127	129	2
22	37	3
92	92	5
10	12	1
95	98	2
67	67	1
75	104	1
52	53	2
141	141	3
95	95	4
54	56	2
36	36	2
127	135	1
19	23	3
77	77	2
18	25	2
36	125	2
88	89	3
139	143	1
94	94	4
126	126	2
113	114	1
56	56	2
121	121	1
90	101	2
129	133	2
145	145	3
115	116	2
9	10	1
2	27	3
124	124	2
56	123	2
64	106	2
3	124	1
22	22	3
0	1	2
75	77	3
134	134	3
125	125	5
8	8	3
41	52	1
93	93	1
76	77	2
139	140	1
23	24	1
83	85	1
128	128	2
86	97	2
34	125	1
23	23	2
115	128	1
86	100	1
78	78	3
102	124	1
42	42	4
136	138	2
103	104	1
11	25	1
2	20	1
106	107	1
34	137	2
72	90	1
10	37	3
117	118	1
37	37	3
102	104	2
134	140	2
52	52	2
28	30	2
50	79	1
33	40	1
97	101	2
49	62	1
31	32	1
56	85	2
73	90	1
42	71	1
97	123	1
5	76	1
3	3	1
116	116	1
51	52	1
115	117	1
27	36	1
86	86	1
36	37	1
125	141	1
26	38	1
15	136	1
86	87	1
117	120	1
8	22	1
48	84	1
14	14	1
49	52	2
118	120	3
55	105	1
19	21	1
76	108	1
39	121	1
76	78	1
62	63	1
