25	26	1
10	10	5
38	38	5
38	39	4
78	78	8
159	159	6
158	159	1
22	23	2
26	112	1
145	145	5
155	155	1
55	55	5
94	94	4
52	52	2
25	25	2
170	170	5
23	23	3
172	172	12
90	90	5
157	158	1
117	117	5
81	81	9
21	36	5
60	60	12
153	153	3
131	131	8
107	107	2
133	133	1
51	58	2
96	96	4
65	65	7
11	11	5
157	157	3
122	122	5
93	93	2
98	101	5
25	40	5
62	62	6
135	135	10
174	174	5
141	141	5
89	89	6
149	149	4
119	134	3
169	171	2
91	92	1
155	157	1
156	156	2
15	16	1
76	116	3
165	166	2
125	141	1
97	97	4
42	43	3
116	116	6
5	5	6
33	33	5
16	17	5
55	56	7
128	128	3
138	138	9
179	179	3
70	70	5
63	63	7
162	166	3
13	13	5
36	36	2
164	164	8
119	130	3
96	97	12
56	56	2
44	44	3
8	8	6
68	68	6
54	54	4
113	118	3
125	125	1
67	67	5
176	176	6
80	80	5
115	115	7
173	174	2
87	88	2
169	173	3
152	153	5
144	145	6
41	41	2
94	95	2
77	77	1
170	171	2
26	82	3
59	59	3
90	95	6
112	112	5
81	82	4
27	30	3
177	178	2
24	26	1
91	99	3
76	76	1
53	55	1
149	175	2
101	108	1
8	9	2
127	128	1
22	22	2
27	27	1
34	34	3
4	4	4
92	92	3
142	142	1
162	162	6
114	114	2
22	28	2
66	66	2
145	146	1
111	111	5
21	34	2
109	109	2
71	72	2
113	114	1
142	175	4
71	71	4
24	24	6
98	102	1
42	59	1
117	118	1
140	140	3
26	27	1
37	37	5
121	121	1
51	51	3
123	123	6
24	36	3
74	75	2
2	16	1
134	134	3
35	79	1
175	175	4
137	156	1
154	154	5
132	133	5
12	19	5
120	120	1
76	117	4
105	108	1
68	81	3
169	170	2
132	132	4
65	66	1
108	108	2
95	95	4
115	130	2
106	106	5
104	106	1
168	168	5
73	73	1
12	20	1
91	91	6
3	16	1
118	118	3
139	139	3
95	96	2
32	130	2
144	146	3
137	137	4
84	85	4
43	43	3
164	165	1
125	159	1
0	0	1
155	156	4
35	35	3
110	110	2
102	102	2
146	146	1
178	178	3
40	42	3
112	116	1
137	138	4
143	144	3
40	40	1
29	29	2
151	151	1
83	84	2
17	17	4
169	169	3
18	18	2
88	88	3
66	67	1
73	86	1
26	26	3
3	3	1
95	97	3
168	170	1
31	32	1
124	124	3
105	107	1
101	107	2
84	84	1
113	113	4
168	169	2
155	160	1
147	147	5
91	101	4
152	154	1
122	123	2
121	122	2
161	165	2
32	32	2
126	126	3
58	58	2
53	56	1
45	45	1
52	54	1
20	21	2
29	30	5
72	73	2
130	130	1
25	39	2
167	167	3
6	11	2
134	135	1
112	113	1
117	133	1
64	64	2
87	93	1
143	146	1
129	129	2
5	6	2
150	150	1
12	12	1
103	103	1
30	116	2
163	164	4
171	171	2
49	49	1
6	6	2
138	139	1
120	135	1
160	162	1
23	37	4
101	109	1
83	85	1
118	121	1
75	76	1
119	119	1
56	57	1
30	35	1
98	98	1
110	111	3
52	53	1
173	180	1
136	136	1
11	13	1
171	173	1
5	11	1
169	172	1
135	140	1
147	150	1
115	116	1
153	154	1
129	130	1
152	152	1
150	151	1
