25	25	11
59	59	9
40	40	11
42	42	21
32	33	4
38	108	3
77	77	8
24	24	21
89	89	27
111	113	5
80	80	21
54	54	7
85	86	9
51	65	4
34	86	3
72	72	21
74	113	5
76	76	20
64	80	8
22	86	2
61	85	2
106	107	7
55	56	4
106	106	19
82	89	2
52	52	22
44	85	1
85	85	26
53	53	8
23	24	3
91	96	6
47	47	15
74	74	17
102	115	2
65	68	2
26	26	20
81	81	19
52	55	3
49	49	4
38	39	3
22	89	5
56	56	25
26	27	3
58	68	5
109	110	6
32	42	1
58	82	3
65	66	6
93	94	8
78	79	1
55	55	12
44	44	11
46	84	4
106	110	2
37	49	6
35	43	4
27	28	4
35	35	18
26	38	3
56	93	1
56	89	3
104	104	9
43	44	18
94	95	14
61	61	15
31	63	1
58	58	10
39	73	1
46	46	33
22	22	22
59	87	6
72	73	6
78	80	7
104	105	14
21	22	1
62	70	1
63	66	6
110	110	14
26	28	3
27	57	2
107	113	4
31	32	1
72	79	2
37	37	11
105	106	8
27	29	5
78	107	8
52	95	2
29	29	19
43	43	6
102	102	18
64	72	7
46	47	4
68	70	6
37	56	1
51	52	2
57	104	2
33	42	2
55	114	5
49	93	1
69	70	4
43	45	7
22	88	3
104	106	4
24	25	4
94	94	23
58	60	2
73	73	10
20	20	7
33	36	3
105	109	2
109	115	2
45	45	10
78	78	25
57	57	10
72	110	1
36	36	8
98	98	14
50	100	5
91	91	6
37	38	4
51	83	3
95	95	12
67	67	8
39	40	5
63	63	7
109	109	18
101	103	5
107	107	20
50	56	1
36	38	4
38	38	12
89	110	1
59	112	2
79	80	9
20	21	1
99	99	16
74	100	4
108	109	5
28	98	1
88	109	3
50	52	4
51	109	1
105	105	6
87	89	2
94	96	2
72	77	2
50	98	1
54	55	7
89	112	1
25	37	4
82	83	4
35	42	6
57	66	1
87	100	3
33	33	13
75	81	8
29	31	1
41	42	2
20	102	2
63	64	6
53	54	5
84	84	14
54	68	4
99	103	1
21	24	2
68	68	4
36	83	2
60	60	25
23	23	8
20	30	1
48	48	15
82	84	3
79	79	15
49	72	3
21	27	3
41	48	1
29	83	2
55	57	6
39	39	11
92	92	19
101	101	18
28	30	4
54	85	4
34	34	12
28	99	5
47	73	2
83	97	2
30	30	11
98	99	5
56	58	1
97	97	9
76	80	3
28	69	1
21	21	9
61	71	2
66	67	4
34	35	9
76	110	1
31	49	7
63	67	1
51	101	4
26	58	1
71	110	3
83	84	4
96	96	14
68	95	2
48	50	3
90	91	6
47	48	5
72	76	2
55	67	1
65	65	18
80	113	1
38	62	1
51	100	1
25	26	1
64	76	6
35	44	1
62	62	4
31	33	2
27	27	9
30	98	3
66	66	10
36	54	1
69	93	2
55	60	1
108	108	9
105	107	1
19	27	3
45	50	4
49	55	2
54	60	3
28	96	1
51	110	5
71	102	5
73	114	1
27	32	2
74	83	1
110	113	4
96	101	3
51	66	3
31	31	14
71	111	2
67	103	1
19	21	6
32	32	12
111	111	12
77	110	4
92	94	3
42	46	1
83	83	7
70	71	5
65	69	1
50	83	1
56	102	2
95	96	6
30	33	7
43	74	4
114	114	8
103	103	10
57	102	1
85	91	2
101	102	4
83	87	6
55	96	5
103	104	3
41	41	2
76	113	1
88	101	3
59	60	4
19	73	5
28	29	9
55	61	2
69	69	6
26	57	2
27	66	1
109	112	1
19	20	4
81	97	2
64	64	9
58	59	1
40	41	7
63	102	1
37	39	1
81	82	2
20	25	3
92	93	5
73	97	3
19	74	7
36	50	2
21	26	2
80	99	1
42	43	2
64	85	2
48	98	3
73	112	1
36	37	6
24	61	1
60	63	1
51	102	5
102	103	3
63	85	2
54	67	2
67	70	2
61	62	1
33	34	8
84	103	3
51	51	12
88	105	2
50	50	12
48	55	2
87	88	6
60	89	2
41	101	2
73	74	3
84	85	1
62	71	4
63	73	1
50	51	5
58	70	1
91	100	3
87	87	1
96	97	2
62	67	5
63	70	1
77	97	1
91	92	2
76	103	5
59	70	4
86	86	9
21	59	3
52	94	3
74	75	3
31	54	2
41	113	1
62	63	1
47	49	4
88	110	1
28	28	8
64	83	1
87	114	2
66	90	4
29	49	1
66	69	1
38	85	4
21	60	1
55	66	1
75	75	6
86	93	3
71	73	4
38	61	3
81	87	1
57	67	3
56	61	1
100	102	2
61	67	9
29	54	5
93	93	5
99	100	2
67	77	3
103	105	2
25	30	2
27	68	3
75	104	1
74	77	2
100	100	6
43	59	2
47	71	1
72	111	1
97	99	3
30	36	2
60	73	1
25	70	4
100	101	3
50	53	1
41	84	1
98	106	1
32	34	4
51	76	1
107	112	1
34	42	2
89	91	2
84	97	2
42	74	2
48	49	4
50	114	5
57	101	2
97	98	1
23	88	2
27	102	2
49	103	1
37	87	2
38	92	3
27	37	2
88	88	9
103	106	4
102	111	1
23	97	2
48	87	3
77	78	1
88	100	2
82	105	1
53	102	1
34	87	3
91	110	2
34	39	3
112	112	2
107	110	2
63	69	2
88	91	2
21	37	1
39	86	2
108	111	3
110	114	2
75	107	3
76	77	7
35	36	2
89	90	4
61	79	1
36	86	2
28	31	1
31	48	2
57	63	3
58	107	2
24	29	1
84	105	1
30	32	1
67	68	1
70	70	1
72	113	2
56	91	1
23	89	1
83	85	3
49	51	4
49	56	1
90	95	1
30	82	2
69	95	2
53	55	2
32	83	1
39	72	1
21	79	2
53	101	1
54	61	2
39	106	2
58	102	1
54	98	1
39	62	1
89	97	1
40	53	2
87	110	4
24	46	1
60	61	1
90	90	1
84	102	1
82	82	4
70	94	2
113	113	2
56	85	1
107	111	1
83	88	1
53	108	1
80	81	2
21	87	3
27	30	1
108	112	2
103	107	1
34	46	1
68	69	1
64	86	1
35	39	1
26	71	1
112	113	1
39	43	1
29	51	1
22	23	1
93	95	1
85	97	1
72	89	1
52	65	1
75	79	1
81	112	1
64	69	2
57	111	2
24	44	1
75	113	1
88	90	1
57	59	3
57	58	2
74	112	1
58	87	1
73	77	1
50	102	1
26	102	2
109	111	1
82	91	2
99	113	1
63	65	1
41	47	1
45	46	1
56	60	1
83	90	1
58	97	1
40	54	1
62	95	1
108	114	1
19	19	1
89	113	1
76	97	1
44	99	1
50	54	1
