112	112	4
66	70	2
44	69	4
26	44	3
91	92	7
148	149	4
107	107	6
139	139	27
5	78	2
128	128	15
106	106	15
141	141	10
20	23	4
31	31	5
130	131	14
21	21	13
117	120	1
30	30	14
6	6	6
23	25	7
45	45	28
156	156	19
7	85	6
3	49	1
109	109	3
138	138	17
93	119	3
67	157	3
143	143	7
154	155	7
110	110	19
138	139	8
94	94	18
97	113	7
150	151	6
9	12	3
101	101	25
57	67	7
110	119	1
150	150	9
134	134	29
89	89	9
83	83	12
8	9	7
81	81	8
73	101	11
24	25	9
117	141	6
27	27	9
24	24	22
129	132	2
48	49	10
100	100	14
99	152	1
50	50	13
83	84	13
77	97	1
34	34	18
88	88	4
80	81	7
157	159	4
1	1	18
66	66	17
105	105	17
7	8	7
78	120	6
13	13	9
31	51	2
40	40	10
15	15	6
32	32	9
13	28	4
29	87	3
64	97	1
121	121	11
96	96	7
137	150	2
132	132	3
135	142	5
117	149	9
71	121	7
46	47	4
25	25	10
98	99	2
127	128	3
19	25	1
38	38	15
123	123	24
23	24	8
12	12	19
40	41	3
157	158	8
137	137	14
117	117	17
46	49	1
93	113	3
124	124	22
123	124	8
123	136	2
140	140	23
124	151	3
97	97	13
95	95	4
141	144	2
37	37	6
127	127	21
108	109	7
124	126	2
2	3	4
115	120	3
113	153	4
97	98	2
70	70	6
129	129	18
103	103	7
121	122	1
103	104	8
4	5	10
116	116	13
138	142	2
128	129	3
14	36	2
41	41	5
19	20	2
22	23	1
135	135	13
44	44	5
69	69	3
125	126	2
35	35	15
157	157	13
154	154	3
0	2	2
47	47	12
122	148	1
146	146	12
103	105	1
91	91	15
78	78	13
120	120	14
26	27	8
132	133	4
149	149	5
158	158	6
11	48	3
80	80	13
123	148	1
3	3	13
52	78	6
38	39	14
155	156	11
28	28	8
11	12	6
47	48	1
121	141	3
93	111	1
73	73	9
28	65	1
131	131	15
87	88	2
18	18	19
143	148	1
93	95	3
51	51	7
148	148	14
7	7	7
62	67	3
86	86	11
104	104	6
4	4	14
83	87	1
133	133	12
118	120	6
1	2	5
136	136	9
77	77	9
68	68	13
5	77	1
18	24	2
75	75	8
145	146	4
131	132	7
39	40	7
29	30	15
10	10	4
151	151	8
19	19	1
87	87	15
80	82	4
108	111	5
3	4	7
116	120	3
122	122	13
94	95	8
128	151	2
66	73	1
66	131	3
86	87	3
84	84	8
118	118	5
52	87	3
11	23	4
1	25	2
101	102	6
155	155	4
92	112	2
2	2	11
0	1	5
61	67	2
29	29	8
31	50	3
13	14	9
37	41	3
70	71	3
21	22	6
119	119	16
29	69	2
12	14	1
99	99	16
42	42	14
30	31	2
141	142	3
93	93	15
33	33	6
17	17	14
44	45	2
14	15	3
77	133	3
63	63	5
22	22	10
92	92	5
32	49	2
85	85	6
11	11	10
126	127	5
3	23	2
27	69	2
16	16	19
75	130	5
25	26	8
9	10	4
141	143	4
125	125	4
31	47	6
29	65	3
91	113	3
79	79	12
89	90	3
43	43	13
106	107	1
10	11	2
4	52	2
135	138	1
122	126	1
127	129	3
51	67	2
39	39	8
95	110	3
144	147	2
82	82	8
54	54	2
148	156	2
15	16	5
147	147	10
35	41	2
105	151	2
65	65	3
142	142	6
4	78	2
69	70	4
19	24	1
4	88	1
77	78	2
6	124	2
16	18	1
20	20	3
53	53	14
115	142	1
69	101	1
64	64	6
69	110	1
123	149	2
116	122	2
90	90	9
43	44	4
99	100	1
56	56	3
6	123	1
48	51	2
152	152	9
107	111	2
126	126	3
134	137	2
8	11	5
109	154	4
156	157	4
111	111	7
10	13	2
93	94	1
79	80	5
52	52	5
51	52	4
133	136	4
0	0	5
62	62	6
94	120	3
134	135	5
116	119	3
26	26	6
102	103	1
70	121	2
41	43	1
108	110	6
75	76	6
67	67	3
119	120	6
37	38	6
14	28	1
8	8	9
52	88	3
4	48	2
46	46	3
22	24	2
94	116	4
115	116	3
127	151	3
55	93	1
13	36	1
74	74	1
124	125	3
53	54	7
95	114	2
66	157	2
71	72	7
104	105	6
41	42	4
70	155	1
32	33	1
32	45	6
120	121	2
129	148	1
102	102	4
90	115	3
76	76	2
9	9	6
52	53	2
150	158	2
32	44	1
66	152	3
5	5	7
79	138	3
117	133	2
34	50	1
17	25	3
114	152	1
130	130	4
52	57	3
147	148	2
71	71	6
34	53	3
133	134	3
33	34	1
98	98	8
36	36	2
78	122	1
69	107	4
62	63	5
85	122	2
82	83	1
27	44	2
38	42	2
55	55	4
95	96	2
46	55	1
17	18	5
8	10	1
117	142	1
67	71	3
139	150	2
86	123	2
110	111	2
146	147	3
63	155	2
29	52	2
72	122	2
20	22	1
113	114	1
114	114	4
55	68	1
25	27	1
81	82	1
70	87	1
137	145	1
118	119	1
72	72	6
136	142	1
124	150	1
3	31	2
141	148	3
10	22	1
88	90	1
28	47	1
115	115	5
48	86	3
85	87	1
149	150	1
116	150	1
65	66	1
18	25	1
73	156	1
91	97	2
51	87	3
12	33	3
47	69	2
12	27	3
131	134	1
100	103	2
48	48	3
145	145	2
13	26	3
70	109	1
7	86	1
83	125	1
90	93	1
18	19	1
92	93	4
152	154	3
98	121	1
64	157	1
97	102	2
96	97	1
7	11	1
23	23	3
32	53	2
71	85	1
85	86	2
137	138	1
4	50	1
63	96	1
84	85	4
96	105	2
28	69	1
45	47	2
68	69	1
114	116	1
33	45	1
63	64	1
4	87	1
153	153	1
57	68	1
100	101	3
28	29	1
29	66	1
31	49	1
62	64	1
49	49	1
139	151	1
140	144	1
21	23	1
34	43	1
137	142	2
73	75	1
80	140	1
113	113	1
42	43	1
5	87	1
116	142	1
152	157	1
140	142	1
