49	50	2
46	48	1
77	77	6
62	63	3
51	87	1
59	59	10
20	20	8
48	48	10
53	53	13
51	51	5
50	50	6
79	79	36
6	6	5
68	71	2
17	19	3
30	30	3
1	1	12
81	81	11
9	80	2
33	33	3
51	53	3
2	3	9
6	9	2
80	80	3
65	77	1
7	46	2
33	49	2
84	84	7
87	87	8
81	82	4
31	48	1
3	14	2
0	0	3
7	7	20
22	23	3
79	81	2
49	49	4
14	15	7
83	83	5
63	63	12
57	57	4
58	60	2
19	66	3
49	51	5
21	30	1
59	61	6
82	84	2
7	25	3
5	7	3
3	3	4
51	55	3
15	15	4
75	75	10
88	89	3
58	58	12
27	27	4
61	75	1
48	52	1
26	59	3
63	64	5
19	19	13
29	30	1
64	77	2
55	55	3
65	66	4
7	26	8
75	77	3
8	10	4
78	78	13
9	9	14
66	66	8
52	52	5
28	28	7
4	4	2
6	27	3
8	9	1
16	16	3
67	67	9
31	50	1
2	2	6
85	85	3
9	10	1
5	5	8
77	79	2
12	64	2
89	89	6
88	88	1
13	16	3
76	76	8
58	66	2
18	25	2
72	72	2
47	68	2
61	62	1
32	80	1
82	82	7
27	88	1
9	25	3
23	23	3
64	64	5
70	71	1
63	66	3
6	8	1
82	83	2
46	51	5
22	29	2
8	18	5
56	71	7
46	47	4
62	62	8
5	26	1
48	50	3
65	65	7
11	59	4
34	34	10
20	64	1
61	77	1
21	47	2
67	68	2
69	69	11
10	16	3
25	25	5
75	76	5
1	2	1
68	81	1
31	31	7
90	90	1
74	74	6
12	12	10
17	18	3
50	73	1
47	47	1
85	86	3
50	67	1
78	80	3
63	87	2
60	61	2
63	84	3
72	75	2
48	86	1
8	23	2
29	29	6
20	22	2
68	74	3
19	47	4
71	71	2
26	26	6
24	46	3
21	70	2
75	79	1
25	26	1
17	17	5
65	81	1
79	80	1
71	74	1
70	70	2
53	55	1
10	59	1
11	11	4
77	78	5
86	87	1
10	23	1
61	90	2
51	52	1
6	10	1
21	22	1
70	72	1
86	86	3
32	51	2
21	46	4
54	57	1
62	75	2
24	54	1
4	27	2
12	34	2
6	7	3
61	61	1
3	27	2
56	73	2
7	27	1
8	54	2
5	12	3
13	19	5
21	68	1
21	21	1
6	25	2
8	8	1
60	65	1
9	51	1
58	84	1
69	73	1
13	13	3
7	17	2
25	88	1
20	57	1
14	14	1
49	86	1
68	73	3
56	87	1
26	61	3
22	66	1
6	71	1
17	33	1
83	84	1
51	56	1
32	78	1
11	12	1
64	76	1
12	13	1
29	88	2
16	17	1
72	73	1
6	13	2
71	80	1
65	83	1
66	80	1
10	10	1
78	79	1
8	11	2
61	85	1
24	24	1
54	54	1
8	25	1
