19	20	1
49	49	5
87	87	11
5	5	15
134	134	6
33	33	8
85	87	1
5	8	3
145	147	3
121	121	6
175	175	8
141	143	3
95	95	5
115	115	10
2	17	3
109	110	7
78	79	6
177	177	12
186	186	14
71	71	3
47	48	5
84	84	7
83	83	10
23	110	8
172	172	11
30	30	3
122	122	11
58	59	4
74	74	3
137	138	1
87	89	5
55	56	3
31	33	4
41	42	9
171	172	2
181	182	8
36	36	9
35	68	1
184	184	8
158	158	6
8	8	3
41	41	8
12	13	3
192	193	6
2	20	1
193	194	3
145	145	8
103	103	10
45	45	7
154	154	11
89	89	7
2	2	1
81	81	4
169	169	8
189	189	17
125	125	4
59	60	6
142	142	8
27	27	11
155	155	9
52	52	3
23	111	1
148	159	3
183	183	13
180	181	9
56	56	12
25	25	3
34	34	6
67	72	1
62	62	4
85	85	12
1	2	1
157	157	7
55	55	9
132	132	4
17	17	4
176	177	1
112	112	3
187	187	5
7	7	5
26	26	7
68	68	9
39	40	6
147	148	4
64	64	2
58	58	6
43	44	3
50	50	1
118	118	6
127	128	2
35	35	1
54	54	2
56	65	3
13	13	7
82	82	7
166	166	4
161	163	3
168	168	3
173	173	6
101	123	2
103	119	5
158	172	3
182	182	2
24	24	6
6	8	4
69	70	4
23	23	7
193	193	9
19	19	3
114	115	3
2	5	6
135	135	8
166	167	4
112	113	8
184	185	4
185	185	4
124	125	3
178	178	9
189	190	4
88	88	3
76	77	2
48	48	3
116	116	6
11	11	10
44	44	6
117	117	8
174	174	6
133	133	4
38	72	2
33	119	2
61	150	4
97	97	12
4	5	2
179	179	2
16	16	6
72	72	2
152	154	1
86	86	9
15	16	2
136	136	3
54	81	5
9	107	4
84	85	2
78	78	2
111	156	3
61	62	10
98	98	2
42	42	6
14	14	3
130	131	1
161	161	4
51	51	8
126	126	10
152	152	7
38	56	2
21	21	6
6	20	2
71	73	2
113	113	11
116	117	1
127	127	7
165	166	4
40	40	2
40	41	4
123	123	4
66	66	5
104	111	3
63	63	10
69	69	5
125	128	3
71	74	2
37	39	1
53	54	3
46	46	5
18	19	3
87	88	2
196	196	10
5	133	3
54	56	1
2	6	1
146	146	3
191	191	7
33	72	1
96	97	2
60	170	1
95	102	5
117	118	2
18	18	3
114	114	5
197	197	4
190	190	4
176	176	7
119	120	3
180	180	2
29	29	5
140	140	2
20	20	7
107	120	3
161	164	4
22	22	3
58	60	2
169	171	1
50	51	1
138	138	7
110	110	3
194	194	6
80	81	1
160	162	2
54	57	4
10	10	2
38	49	5
104	106	4
156	156	11
159	161	1
150	157	6
98	99	2
129	129	8
51	52	1
163	163	2
94	94	9
10	13	3
73	73	8
191	192	4
177	189	6
149	150	2
47	47	11
96	96	3
28	35	3
164	164	1
165	165	4
14	17	2
103	107	1
159	162	3
57	57	4
107	108	2
0	1	1
167	173	2
4	4	3
160	160	1
5	132	6
119	119	3
46	47	5
17	18	2
1	1	5
60	60	4
5	22	1
162	162	11
111	111	2
110	111	1
137	137	4
20	22	4
64	65	2
9	10	1
157	158	4
128	128	1
61	64	2
173	174	2
171	171	9
172	173	1
5	6	4
153	153	7
176	190	1
106	138	2
80	80	4
168	169	1
179	180	1
89	90	1
166	173	2
0	3	2
101	101	3
161	162	5
53	53	7
129	130	2
131	131	7
73	79	4
192	192	6
168	184	1
147	147	3
36	38	1
59	62	1
12	12	3
178	179	1
42	63	3
37	37	2
195	195	2
39	39	1
103	104	1
9	120	2
46	58	3
133	134	5
109	137	4
0	0	1
120	120	6
8	23	2
165	190	1
181	181	6
32	32	2
167	167	2
15	15	4
43	43	1
144	144	3
149	149	1
62	64	2
154	156	1
57	58	3
79	79	3
93	93	2
141	141	3
70	74	2
190	191	1
85	86	1
60	61	1
109	109	2
152	153	1
49	59	1
13	14	2
145	160	2
11	13	1
81	82	1
16	18	1
105	105	1
106	106	2
67	67	2
83	85	1
75	79	2
34	35	2
194	195	3
133	137	1
135	136	1
49	60	2
99	99	4
27	29	2
28	28	1
104	104	7
149	156	2
45	46	1
72	114	1
93	123	1
132	135	1
124	124	2
31	31	1
28	36	2
108	108	2
104	105	1
107	110	2
102	102	1
159	159	1
33	114	2
173	175	2
126	127	1
100	100	1
56	71	2
7	8	1
161	168	1
14	126	1
125	129	1
44	172	1
185	186	2
9	126	1
30	31	3
40	42	2
42	62	1
39	152	1
6	6	1
6	21	1
150	150	1
36	67	1
156	157	1
77	78	1
77	77	2
10	126	1
70	71	1
95	119	1
159	160	1
147	156	1
95	103	1
137	146	1
