54	54	5
85	91	3
91	123	1
21	76	2
86	86	2
119	125	3
134	134	17
28	71	4
45	45	3
109	122	2
50	56	4
109	109	4
17	17	9
109	117	9
55	55	5
82	82	5
91	91	7
81	81	7
100	100	3
113	114	6
16	16	2
124	124	11
70	70	11
102	102	7
82	83	4
43	82	1
99	99	8
105	105	18
129	129	4
31	32	4
114	114	18
52	52	4
121	121	2
105	114	2
25	25	3
83	83	3
32	32	1
93	93	17
33	33	3
68	69	5
80	80	6
59	59	9
100	129	4
62	62	8
17	19	1
135	135	1
103	103	8
132	133	7
16	72	4
22	109	2
28	28	4
63	64	5
1	1	3
24	24	4
23	52	2
0	0	9
7	7	5
20	20	3
104	104	7
24	25	4
60	102	2
61	61	6
78	82	3
19	109	1
11	11	3
118	118	9
113	113	10
48	48	6
4	6	3
126	127	3
12	13	3
8	8	2
13	35	3
76	76	2
73	73	7
122	122	2
107	107	3
44	44	3
128	128	2
85	93	5
2	2	7
29	29	1
6	6	2
60	60	10
108	110	7
14	14	2
35	35	4
18	18	4
60	81	2
69	70	3
106	106	6
104	105	5
84	84	2
37	38	3
125	125	3
84	85	1
54	57	3
23	23	12
49	50	2
70	71	3
61	63	2
3	5	1
57	58	2
36	37	1
16	62	2
75	75	6
52	56	2
64	64	2
85	85	5
13	13	1
19	20	1
21	21	2
33	34	5
59	65	2
52	63	2
96	96	1
69	69	6
49	49	5
87	87	2
34	35	3
87	88	2
94	94	4
127	127	1
12	12	4
56	57	2
103	126	3
111	112	3
71	71	3
11	12	3
76	78	2
9	9	2
23	63	2
31	31	4
63	63	2
10	55	1
120	120	5
35	63	1
90	90	2
68	68	8
96	99	3
4	4	3
62	82	1
15	16	3
101	101	3
14	24	1
130	132	2
7	8	1
47	51	2
7	21	1
98	98	2
53	53	1
79	123	1
66	97	1
117	117	1
110	111	2
118	119	1
38	38	4
101	102	2
73	74	1
66	77	1
19	67	1
105	115	2
88	88	2
121	133	1
112	121	2
99	100	4
116	116	4
28	30	1
47	47	1
19	22	1
112	112	1
100	101	1
116	118	1
81	88	2
10	11	2
115	115	2
123	123	1
60	103	1
121	122	2
98	122	1
31	54	1
128	129	2
18	65	1
88	89	1
33	76	1
8	9	1
3	3	5
125	126	1
83	84	4
14	33	3
2	3	3
14	37	1
77	77	1
114	122	2
108	109	1
21	23	4
42	42	1
57	57	2
36	36	3
43	45	1
27	30	1
106	117	1
126	126	2
132	132	1
97	97	2
58	60	1
121	123	1
122	123	1
62	76	1
104	107	1
102	103	3
5	20	1
53	54	1
114	126	1
43	43	2
56	56	1
1	4	1
111	111	1
10	10	2
123	124	1
103	134	1
98	134	1
103	105	1
29	101	2
55	60	1
11	47	1
85	107	2
94	122	1
59	90	1
39	84	1
64	65	1
19	108	1
2	4	1
