229	229	12
64	64	4
171	171	3
28	31	2
74	74	2
109	109	5
187	188	2
212	212	6
105	105	2
72	74	2
112	115	2
85	95	2
9	9	5
205	205	11
202	203	3
35	35	2
213	214	2
28	30	1
11	11	4
156	156	15
207	207	4
113	113	2
4	4	2
221	221	5
154	155	5
173	173	9
160	171	1
247	247	2
151	151	4
45	45	7
145	151	2
87	87	2
72	72	6
70	71	2
14	14	6
67	69	1
63	66	2
21	21	7
10	227	3
172	179	1
40	100	2
233	233	4
85	85	4
180	180	4
63	63	3
171	199	4
228	228	2
166	166	3
92	92	5
152	201	1
173	174	2
80	80	3
4	20	2
51	51	9
227	227	10
151	204	1
95	97	1
117	117	1
102	105	2
230	230	2
95	99	1
213	216	1
193	193	2
16	16	4
32	32	3
73	74	2
26	26	5
107	107	4
150	211	5
62	62	5
41	41	6
23	23	6
6	52	1
231	231	1
194	194	9
34	34	3
94	94	2
12	12	2
102	103	3
183	235	2
82	82	4
28	28	1
17	17	1
151	247	2
75	76	4
190	193	1
150	247	2
169	169	3
10	10	9
69	69	2
160	160	2
210	240	7
168	168	6
8	48	2
244	244	3
90	90	5
187	232	1
191	191	1
225	225	6
88	91	5
66	68	3
192	192	5
89	89	1
99	99	2
86	103	2
20	20	2
104	104	3
40	110	2
57	57	2
49	58	2
67	67	2
172	172	3
95	100	2
185	185	6
96	96	4
118	119	1
210	210	1
36	36	2
24	28	1
83	83	4
221	223	1
153	153	7
115	115	4
72	118	2
27	27	4
94	109	4
175	175	4
87	91	1
29	29	2
201	201	5
150	150	11
154	154	3
161	162	2
238	239	1
65	70	4
108	108	2
202	202	2
24	24	4
155	155	2
49	157	1
55	55	5
227	228	2
234	234	3
113	114	2
184	184	4
232	233	3
110	110	4
5	20	2
16	46	1
245	245	5
29	31	3
52	52	1
198	199	2
43	43	2
54	54	3
100	100	2
240	240	3
66	66	1
95	95	4
194	198	2
93	93	2
71	71	1
213	213	3
33	33	1
179	179	2
15	15	4
200	200	2
149	149	2
67	68	3
169	170	3
72	73	2
1	1	5
7	7	5
203	203	2
158	158	3
8	57	1
6	6	2
195	196	3
53	54	3
211	246	1
103	103	1
200	201	1
78	86	2
235	236	1
25	31	2
222	225	1
15	228	3
222	222	2
189	189	2
5	5	3
78	78	2
188	188	1
97	97	2
98	98	2
44	44	2
190	190	2
183	183	2
52	53	4
26	27	2
160	161	2
19	19	2
181	237	1
190	198	2
14	82	1
31	33	1
55	59	1
76	76	3
72	117	1
21	24	1
192	198	1
214	214	3
22	22	1
145	145	1
114	116	1
70	70	2
22	23	1
217	217	2
53	53	2
70	112	2
223	223	1
40	109	3
159	177	1
165	199	1
215	215	1
226	227	1
208	208	2
170	170	1
235	235	1
43	44	1
56	59	1
216	216	3
101	102	1
244	245	1
218	218	1
58	60	1
107	109	1
40	41	1
50	162	1
86	236	1
190	192	2
209	209	1
12	46	1
211	211	1
186	186	1
177	177	1
71	117	1
99	110	1
17	52	1
88	106	1
70	113	1
184	211	1
59	59	1
18	53	1
79	79	2
96	102	1
176	176	1
33	69	1
44	45	1
68	68	1
114	114	1
102	102	1
63	64	1
