58	58	7
103	104	3
78	78	12
39	39	6
49	77	4
66	66	11
101	101	28
79	80	7
24	52	2
26	27	8
21	21	12
31	31	11
59	98	2
39	49	3
50	50	25
70	70	9
66	70	2
33	34	13
60	60	13
93	93	11
71	72	5
68	96	9
20	22	2
92	92	4
30	39	3
62	62	5
53	54	5
76	76	23
81	81	16
43	44	5
52	52	15
105	105	10
69	69	16
34	49	6
61	63	10
85	85	18
61	61	11
23	24	4
32	32	11
64	65	2
27	55	3
94	95	3
94	94	8
23	23	3
46	49	3
46	47	4
42	43	2
95	95	10
100	100	5
42	61	5
75	75	17
86	86	11
40	40	10
80	80	8
84	84	9
91	93	3
51	51	8
57	57	6
47	48	8
69	70	2
95	96	2
104	105	9
93	94	3
83	83	7
34	34	9
97	97	9
65	65	8
31	35	3
34	78	11
54	55	4
102	103	4
82	83	9
81	82	5
29	29	7
102	104	1
64	64	19
107	107	3
33	78	2
42	42	9
26	30	2
68	68	21
24	53	3
88	88	17
84	86	3
72	72	2
26	26	4
74	74	11
23	25	4
38	39	10
36	66	5
102	102	12
55	55	8
73	82	5
79	81	1
67	67	8
100	101	2
84	85	7
25	44	4
67	69	2
98	99	3
69	95	2
35	35	9
31	32	7
79	79	9
45	97	4
37	37	4
65	66	11
96	96	13
50	51	3
23	43	3
59	59	16
22	24	5
87	87	9
76	77	6
51	94	2
73	73	6
32	79	4
39	50	3
81	102	1
49	50	4
45	45	11
77	77	7
77	78	5
43	72	1
82	82	22
22	53	1
59	60	4
21	22	3
46	93	3
97	99	3
25	25	9
22	22	4
49	49	12
43	45	4
99	100	1
32	81	3
103	103	16
96	97	2
56	56	2
54	54	11
30	30	8
69	77	1
61	62	3
57	58	4
63	63	11
85	86	6
91	92	10
90	92	5
28	28	8
47	47	5
53	55	2
45	46	2
31	36	2
27	27	6
80	95	3
33	33	4
28	29	4
106	106	5
60	61	3
41	57	2
41	49	2
81	103	3
32	33	1
53	53	9
42	60	2
86	88	3
28	42	4
29	85	1
29	84	1
89	89	7
46	78	5
22	23	2
71	71	7
99	99	5
36	36	2
35	36	5
74	75	1
34	101	4
29	30	7
98	98	8
53	105	1
32	35	3
41	42	3
30	31	5
84	96	4
25	49	5
90	90	6
20	20	7
34	35	6
75	76	3
54	71	3
71	106	2
101	102	5
25	39	5
46	79	1
55	56	5
38	38	6
28	40	1
25	29	3
82	84	3
41	41	2
88	89	3
87	88	4
40	43	1
24	24	14
58	59	1
105	106	2
63	85	1
65	105	1
43	43	3
51	75	1
24	100	1
45	49	1
25	26	3
73	74	4
34	50	4
31	74	3
48	48	2
68	69	2
36	51	1
40	84	2
63	65	2
56	66	2
59	99	1
83	84	2
33	102	1
26	55	1
104	104	2
27	28	1
97	98	3
44	44	4
61	67	1
34	75	1
55	71	1
65	70	1
26	46	2
51	52	1
55	99	1
41	43	2
24	39	1
32	51	2
50	77	1
27	65	1
66	67	1
58	64	1
100	105	1
32	34	1
51	92	1
55	97	1
100	102	1
67	68	1
53	86	1
33	46	1
45	55	1
89	90	1
58	61	1
92	93	1
69	76	1
