176	177	13
184	187	6
3	127	2
141	141	8
67	67	21
75	75	17
106	198	3
10	10	14
185	186	4
141	142	13
166	169	2
194	194	12
28	28	25
50	60	2
28	71	10
126	126	7
221	221	7
30	33	8
159	163	4
26	26	27
72	72	31
40	40	20
32	32	27
222	222	31
170	170	12
15	15	22
151	151	14
54	54	10
203	217	2
51	60	1
97	97	4
152	153	12
100	100	9
74	171	5
112	112	12
202	202	30
68	68	13
44	45	4
196	196	9
240	240	7
48	192	2
131	131	7
30	30	16
107	126	2
165	165	7
195	195	8
110	110	11
191	191	19
68	89	2
180	181	12
116	116	18
153	153	24
181	183	1
24	24	8
106	124	3
200	201	10
33	33	12
204	218	8
85	85	17
180	180	23
182	187	1
63	66	2
43	43	17
215	216	15
187	187	12
168	169	12
150	161	4
118	118	9
74	74	21
40	82	4
47	47	16
188	221	3
181	181	9
133	133	13
225	237	4
157	160	1
197	198	9
48	49	3
117	117	5
138	139	7
200	200	10
125	126	4
55	57	3
129	129	17
23	24	4
42	42	9
217	217	35
235	240	1
51	51	10
63	64	5
175	176	5
172	172	15
173	173	13
29	29	9
123	123	11
22	22	15
61	115	13
39	39	40
7	109	5
229	229	17
141	145	1
19	19	10
242	242	10
18	122	4
213	214	4
36	36	28
46	46	6
227	227	5
66	68	3
231	231	21
29	119	2
11	129	5
56	83	1
205	205	20
138	138	12
21	21	17
86	86	27
64	64	4
24	25	3
83	83	11
65	67	3
208	208	11
52	52	8
114	114	8
213	222	1
155	155	3
157	202	4
241	241	10
128	128	11
18	18	10
224	225	3
23	23	14
238	238	14
124	127	3
181	182	4
209	209	12
31	31	27
152	152	17
174	176	2
25	25	17
166	212	2
177	177	15
230	230	16
183	183	24
166	166	22
178	179	7
103	104	4
219	219	10
44	44	30
150	151	2
71	71	11
1	1	6
212	224	2
206	206	29
65	65	14
30	116	4
239	239	15
133	164	2
135	145	6
106	106	16
207	228	3
199	199	9
109	112	2
214	216	2
15	18	1
73	73	16
47	48	2
240	241	2
186	186	7
17	17	9
112	113	10
164	165	8
201	201	20
48	64	1
147	148	17
220	220	13
121	121	12
64	66	2
78	78	6
105	105	4
119	119	9
179	180	3
117	118	10
53	53	15
38	39	1
16	16	9
148	235	2
104	104	7
15	16	6
139	139	11
189	189	10
237	237	4
235	235	14
232	233	4
24	26	3
148	149	10
27	27	11
166	170	1
127	127	18
124	126	2
86	116	1
3	3	9
77	77	4
157	157	3
58	59	3
113	113	11
11	11	19
148	170	1
186	188	5
205	237	3
101	101	20
185	185	17
4	84	3
197	197	10
99	99	21
50	50	8
6	126	1
29	30	8
134	138	3
129	171	2
62	194	9
149	163	4
34	34	8
39	48	6
210	211	6
216	216	15
20	20	18
98	172	6
103	103	5
212	212	10
60	193	2
174	175	8
210	216	4
232	232	16
160	160	17
236	236	14
136	136	10
169	169	13
213	213	3
212	213	5
104	107	2
167	168	4
121	122	4
161	161	6
179	223	2
228	229	1
71	112	3
53	54	1
153	154	3
171	171	20
38	38	14
193	193	6
111	111	5
135	136	5
168	168	11
179	179	12
158	159	6
62	114	2
160	224	4
64	65	2
101	102	2
77	78	5
16	18	4
37	38	4
217	218	10
176	197	2
108	127	1
23	181	2
101	120	5
49	50	7
84	84	11
189	190	2
225	225	5
216	217	4
128	158	4
121	183	2
176	218	1
55	55	14
0	0	5
82	82	5
184	184	3
159	159	21
204	204	21
193	194	9
236	240	2
14	14	6
110	122	5
165	166	8
153	196	1
2	2	8
102	111	4
213	216	3
70	70	13
66	66	13
95	102	3
12	34	1
122	122	13
41	41	12
18	20	1
76	76	7
208	236	1
9	9	10
16	62	7
49	49	8
16	20	3
198	198	16
231	232	6
98	99	7
233	233	8
123	124	4
113	114	5
204	205	6
238	239	14
169	170	2
177	178	6
207	207	16
96	96	11
153	202	4
207	208	10
136	137	1
212	214	1
237	238	2
228	228	11
7	7	7
203	203	8
74	78	2
223	223	13
128	159	3
5	6	4
26	27	3
21	22	4
204	230	5
151	152	3
88	88	6
120	121	18
2	34	1
106	120	1
234	234	13
81	81	11
4	79	2
176	176	9
211	211	6
151	170	6
12	35	4
235	236	2
4	6	5
0	3	5
226	226	6
115	115	11
124	125	3
65	70	1
119	127	1
187	188	8
122	127	1
115	116	3
154	154	5
131	170	4
13	15	2
167	167	10
28	74	2
25	26	13
102	127	2
69	69	13
102	102	5
191	192	15
184	185	1
109	128	1
162	162	8
55	56	4
70	71	8
151	171	3
48	57	3
127	153	6
52	66	3
207	222	2
0	12	6
217	232	1
108	108	5
18	19	3
38	86	5
156	157	13
200	212	4
178	178	13
210	210	11
7	8	6
164	164	13
13	13	8
59	59	1
159	160	7
3	109	2
175	175	11
11	14	4
208	211	1
13	14	1
208	210	3
224	224	16
151	153	3
129	133	1
217	225	5
226	227	5
3	29	1
119	120	3
144	144	11
81	83	6
135	137	2
27	72	5
0	7	4
10	28	3
157	158	1
52	53	2
5	124	3
62	62	12
226	229	3
202	208	2
182	183	4
75	76	5
132	132	4
218	218	6
96	97	1
99	100	1
188	188	9
165	169	1
103	119	2
45	48	2
56	56	7
148	148	13
40	81	2
142	142	7
5	80	1
107	157	2
227	228	5
130	130	8
150	150	13
67	78	1
67	72	2
18	89	6
130	168	1
184	198	2
90	125	1
36	82	2
58	58	12
80	80	4
20	24	5
105	155	2
109	109	7
192	192	10
73	100	8
156	156	4
98	98	7
30	31	10
189	197	2
56	57	3
71	72	4
12	12	13
209	211	2
160	167	3
207	237	1
163	164	3
222	223	2
31	116	2
216	219	2
206	208	4
57	58	6
204	231	3
86	87	1
8	8	5
182	182	11
60	60	6
3	6	2
175	242	1
78	127	1
103	106	4
63	192	2
79	79	6
10	11	6
211	213	2
181	184	3
191	196	3
190	191	2
202	225	3
139	140	6
9	10	3
30	32	8
218	237	3
152	160	1
209	212	1
120	120	5
154	155	2
188	220	1
16	17	1
32	56	4
134	134	6
45	45	16
181	214	2
104	124	1
137	138	2
127	128	2
214	214	12
144	145	8
105	106	2
17	18	3
17	20	1
62	64	3
109	127	3
80	83	3
223	224	3
79	84	3
189	199	1
63	194	2
24	173	1
120	181	1
39	50	2
61	61	11
205	229	2
46	48	2
12	15	3
37	37	8
165	168	1
160	161	4
164	168	2
124	124	4
34	35	2
76	88	3
81	82	2
163	163	3
20	70	2
3	30	1
132	137	1
39	40	5
95	121	1
174	174	10
14	15	3
59	60	2
203	219	3
218	219	2
163	225	5
16	194	1
160	165	3
48	50	2
133	134	3
27	28	5
6	77	4
178	181	3
158	158	4
166	168	1
145	162	3
210	223	4
204	208	1
202	242	3
36	37	1
167	184	3
214	215	2
134	171	1
183	184	3
134	136	2
122	123	2
123	125	1
149	149	6
162	163	1
65	66	3
89	89	1
161	166	2
167	169	4
163	211	1
22	23	2
19	89	2
28	36	1
143	144	2
57	57	7
50	61	1
192	193	5
100	101	2
104	105	1
179	181	2
195	196	1
171	172	1
108	165	5
110	118	2
139	148	1
30	55	1
46	47	2
234	235	1
5	5	3
35	52	1
54	55	2
184	197	1
145	158	3
140	140	3
0	1	1
63	65	1
11	13	3
199	200	1
186	189	2
29	33	1
62	110	3
66	67	3
220	221	4
11	21	3
147	147	4
161	162	1
99	119	1
45	47	2
52	65	1
102	103	1
150	152	2
84	85	3
161	163	3
5	79	1
221	223	2
209	210	4
42	112	1
12	124	2
219	220	1
185	193	1
139	143	3
128	131	2
129	168	3
3	115	1
26	165	1
141	143	1
145	145	3
181	187	2
103	127	1
145	146	1
5	82	2
20	42	1
63	89	1
41	66	3
1	3	3
229	230	2
36	81	2
149	222	3
71	113	1
194	196	1
143	143	3
51	63	1
16	195	2
55	82	3
0	115	3
175	191	1
9	62	2
155	164	1
156	201	1
187	198	1
63	63	4
3	169	1
186	187	1
67	68	1
148	160	1
38	85	5
58	60	2
175	217	3
103	126	3
75	134	3
10	29	2
135	135	3
121	192	1
2	3	2
190	190	7
27	73	3
176	237	1
65	88	1
2	35	2
45	63	1
203	204	1
187	216	1
157	163	2
82	83	3
33	58	1
18	183	1
24	175	2
17	90	1
151	235	1
163	166	2
45	112	1
62	193	1
39	64	1
180	222	2
172	173	1
104	123	1
201	242	3
111	113	1
35	36	2
66	123	1
208	227	1
48	48	5
206	218	2
190	197	2
160	163	1
128	198	3
187	217	4
43	46	1
109	110	3
3	21	1
118	119	1
35	35	1
56	189	2
106	109	1
170	171	6
101	119	1
64	100	2
239	241	1
60	61	1
102	119	1
6	6	2
15	114	2
42	43	3
7	91	4
30	61	1
116	153	2
162	219	1
233	234	1
8	12	1
166	167	1
29	118	2
224	226	1
4	125	1
62	65	1
129	167	2
49	51	1
140	142	2
32	33	1
116	117	1
61	62	1
206	217	1
215	215	1
8	79	1
178	220	1
210	212	2
31	51	1
16	61	1
185	187	1
134	143	1
46	61	1
127	197	2
190	196	1
78	88	1
24	82	1
63	88	1
25	128	2
72	99	3
68	72	1
205	207	1
80	81	1
74	170	2
147	149	1
146	146	2
219	232	1
68	95	1
5	91	1
236	237	2
6	125	1
123	126	2
43	44	3
24	39	1
8	80	1
108	158	1
74	128	1
205	208	1
205	228	1
51	52	2
177	181	2
180	182	2
176	181	1
2	7	1
4	4	2
25	173	1
9	82	2
44	47	2
39	86	1
31	32	1
17	21	1
108	164	1
13	115	2
204	229	2
0	2	1
191	222	1
108	109	2
19	20	1
5	7	1
180	200	1
55	116	1
128	169	1
72	100	1
137	137	1
149	225	2
66	69	1
201	224	1
187	223	1
1	7	1
0	33	2
105	116	1
188	200	1
182	214	1
42	65	1
228	234	1
