55	55	20
57	57	15
37	61	1
50	68	1
21	21	6
31	33	1
61	61	17
16	16	7
72	72	4
66	66	6
9	51	4
1	2	8
69	69	8
75	75	4
49	51	2
79	79	6
15	15	3
42	42	12
74	75	23
65	65	21
39	39	9
26	26	13
12	68	1
6	6	12
38	38	16
75	78	1
74	74	10
35	39	2
76	76	9
18	18	6
12	12	13
42	43	2
60	61	1
76	78	7
7	7	12
67	67	5
27	45	4
27	27	8
8	20	1
50	63	3
41	41	12
77	77	6
37	42	1
35	35	12
48	48	4
34	37	1
28	29	8
9	12	1
48	73	5
12	14	5
40	40	9
58	73	18
17	17	11
6	19	2
78	80	4
2	2	11
5	33	2
1	1	9
38	43	4
46	46	14
25	69	2
61	73	3
13	70	4
56	76	4
68	68	11
8	11	2
65	79	3
10	20	2
10	11	3
48	49	6
45	46	6
30	30	19
52	52	2
11	67	4
45	45	9
29	36	1
71	71	4
56	75	2
28	28	6
80	80	5
51	51	13
30	32	2
73	73	12
4	15	7
36	36	8
62	62	5
0	1	7
33	33	9
40	41	3
36	37	3
19	19	5
64	64	4
54	54	5
53	53	6
25	25	12
17	18	7
49	49	5
10	69	1
16	17	5
77	78	7
7	26	3
50	50	4
31	34	4
28	35	2
7	71	1
3	4	2
70	71	2
7	8	4
47	47	4
53	68	1
31	32	7
64	66	6
39	40	3
54	65	3
37	39	4
64	65	4
56	60	2
9	20	2
27	46	3
9	9	3
43	43	4
56	56	2
4	4	17
58	76	4
27	37	3
29	30	8
34	34	7
65	66	3
78	78	7
8	19	2
12	71	2
50	69	5
30	36	1
37	37	4
46	55	1
27	76	1
34	35	5
59	59	4
9	68	1
17	29	1
79	80	2
22	67	1
70	70	7
73	74	1
11	11	3
10	68	5
48	62	2
31	31	3
39	57	3
28	30	1
17	40	2
0	2	1
63	63	7
20	20	2
13	13	4
26	27	4
12	21	2
48	71	1
30	31	4
50	64	1
63	66	3
55	73	1
12	13	2
63	68	2
11	70	2
32	32	9
0	0	3
66	67	2
61	62	1
59	61	2
47	72	1
9	25	1
37	38	8
6	9	3
63	64	1
14	14	5
43	46	1
35	45	1
17	30	1
10	15	1
9	10	3
60	60	7
66	72	1
56	71	4
59	76	1
9	31	1
55	61	2
7	33	1
7	19	1
13	14	2
54	55	1
26	72	2
75	77	2
75	76	3
52	67	1
47	73	1
37	45	2
56	57	4
37	40	1
30	33	1
29	29	5
28	37	3
26	46	3
59	60	2
6	10	1
26	65	1
43	55	1
55	74	3
4	78	2
73	75	2
66	71	2
5	5	2
47	78	1
21	69	1
37	41	1
16	18	1
27	38	1
55	56	1
73	76	1
11	32	2
8	8	1
62	74	2
4	5	1
6	8	1
67	68	2
5	30	1
38	41	1
38	56	1
3	3	1
4	60	1
44	44	1
67	70	1
47	48	3
78	79	1
6	33	1
13	21	2
57	58	1
32	67	1
55	66	2
3	37	1
14	15	2
5	26	1
10	10	1
