29	29	5
82	83	1
90	91	2
86	86	12
124	124	12
18	18	7
88	91	1
120	120	8
75	76	10
96	97	2
19	20	8
105	106	1
89	89	11
0	0	6
27	32	3
22	22	5
9	9	7
7	7	17
4	5	7
108	108	5
23	24	2
71	71	5
130	130	2
36	36	5
75	114	3
17	18	8
74	76	2
31	32	3
94	94	4
94	117	2
109	109	7
35	35	1
21	22	3
2	4	4
23	23	7
116	116	9
127	129	1
87	112	1
88	90	4
16	16	8
79	79	7
75	85	1
118	118	4
102	102	7
25	25	6
84	85	3
117	117	7
80	80	8
11	11	16
136	136	3
86	115	1
71	80	1
21	21	7
92	92	8
34	34	11
132	132	8
115	115	7
104	104	15
72	72	12
114	114	10
107	107	8
27	27	4
26	26	2
100	100	7
74	74	7
87	87	16
7	26	3
5	34	1
135	135	10
13	13	3
106	109	4
110	110	5
19	19	9
97	97	1
128	129	3
7	11	2
98	98	14
114	115	3
6	6	8
133	133	5
101	101	6
24	78	5
17	17	8
138	138	3
140	140	6
22	23	4
98	131	1
34	35	7
82	82	4
126	126	5
24	24	3
116	117	1
73	73	9
90	90	5
95	95	1
77	83	1
84	89	1
28	30	1
4	4	5
13	14	1
129	129	10
111	111	7
91	91	6
12	14	3
109	112	1
115	125	3
77	77	6
123	124	2
93	94	1
134	134	8
128	128	7
109	115	3
96	96	1
80	86	4
0	79	2
24	25	5
84	84	5
30	32	2
93	93	2
123	123	9
37	37	9
119	119	5
30	30	1
18	38	4
112	112	6
78	78	1
15	15	9
79	92	1
93	118	2
83	83	8
37	123	1
75	98	1
98	99	2
88	88	3
12	13	2
38	38	5
3	4	6
20	20	3
111	112	7
16	17	3
77	78	4
85	85	6
122	122	6
24	26	3
12	12	5
16	91	1
71	104	1
10	26	1
81	81	7
33	33	11
106	106	7
113	113	11
6	7	5
99	99	2
18	19	4
91	92	2
4	36	1
125	125	3
99	129	2
80	87	5
37	38	8
3	3	9
88	89	4
31	31	6
32	33	3
14	16	2
132	133	2
98	127	2
8	9	1
104	106	2
6	9	2
9	15	1
81	115	2
78	79	1
100	128	1
12	102	1
94	123	1
103	103	3
104	105	2
87	88	3
131	133	2
14	14	2
80	114	1
10	11	3
1	1	3
8	13	2
11	13	5
80	81	2
76	76	3
79	114	2
120	122	3
75	75	7
25	78	1
1	78	2
91	120	1
131	131	6
95	100	1
32	32	2
95	96	1
29	30	2
5	6	1
97	99	1
102	120	1
98	130	1
94	95	1
87	89	2
106	111	1
129	130	1
9	10	1
81	84	2
127	127	3
79	81	1
28	29	2
83	85	1
92	93	1
134	135	3
71	72	2
92	94	3
6	8	2
2	79	1
97	98	2
81	82	1
120	121	1
21	86	1
15	22	2
95	97	1
77	82	2
17	44	2
2	2	2
25	91	1
22	24	1
36	37	3
35	36	2
35	37	2
82	90	1
8	8	1
121	121	3
77	85	1
0	3	2
89	102	1
22	25	1
5	5	1
71	112	1
86	116	1
105	105	2
36	123	1
130	131	1
0	20	1
19	21	1
89	90	2
101	103	1
9	31	1
5	7	1
137	137	1
10	14	1
86	90	1
96	116	1
73	74	1
21	100	1
15	16	1
81	103	1
87	93	1
18	23	1
3	33	1
10	22	1
125	127	1
32	36	1
92	117	1
99	100	1
