187	242	2
17	18	10
101	101	1
113	113	9
225	226	1
87	87	4
165	189	1
94	94	5
67	67	13
204	204	9
193	193	1
156	156	13
37	37	10
81	81	1
28	28	9
233	234	2
211	211	8
99	107	3
89	89	1
79	81	2
201	208	6
198	198	11
166	189	2
159	247	1
197	198	3
233	233	10
27	27	6
110	110	5
84	84	14
207	208	1
230	247	4
90	90	15
167	182	7
83	83	5
69	234	5
227	227	11
200	200	6
150	150	7
178	195	3
160	162	5
174	175	6
69	69	4
68	70	6
176	196	6
56	56	7
52	53	5
220	220	11
175	175	12
80	80	7
45	45	13
186	186	4
203	204	1
21	22	6
63	63	8
216	218	4
51	52	5
55	55	10
153	153	1
231	247	5
14	15	3
174	174	5
169	170	11
20	20	4
218	218	8
78	78	9
199	199	3
243	243	9
86	86	17
248	248	6
165	188	2
221	222	4
213	223	1
116	117	4
164	165	13
22	23	1
244	245	5
87	88	3
57	66	2
232	233	2
53	53	12
224	225	2
201	207	3
9	9	9
232	232	21
11	16	4
34	45	5
53	112	10
64	64	11
51	51	10
50	50	14
7	8	2
229	230	5
23	23	3
94	95	3
242	243	4
175	181	1
205	205	18
238	238	4
95	95	11
231	245	4
81	82	3
65	103	5
66	66	8
211	212	7
228	230	3
183	183	8
120	120	3
165	215	5
91	91	7
231	248	4
203	203	3
173	181	2
188	190	2
152	152	3
31	31	11
92	100	2
38	38	4
194	195	5
187	187	4
185	185	6
223	224	1
30	30	8
160	233	2
10	10	9
239	239	8
191	191	15
14	14	10
158	158	8
59	59	4
115	115	12
153	203	8
35	35	5
238	240	5
160	160	10
155	155	2
49	49	1
201	201	4
101	102	1
170	170	11
177	177	4
2	2	9
47	51	2
26	26	17
75	75	5
207	207	9
68	95	5
70	70	2
59	64	3
216	217	2
146	146	2
100	101	7
75	160	3
202	202	4
82	82	4
114	114	10
5	47	3
89	90	2
48	48	5
41	41	7
185	189	2
96	97	6
58	66	2
194	194	4
10	11	2
64	97	6
93	99	2
172	197	4
99	99	11
48	50	2
144	145	3
162	162	16
158	163	2
27	28	3
201	203	1
8	9	6
68	71	2
211	228	4
208	208	7
62	64	6
212	213	2
64	65	4
19	20	21
237	237	9
34	34	5
151	151	17
48	51	3
224	224	10
215	217	2
212	230	1
239	240	2
234	234	10
13	15	2
80	81	1
202	235	3
108	108	1
113	237	6
154	154	12
21	21	8
116	155	1
33	33	8
89	92	5
88	88	5
44	44	21
38	42	6
198	200	3
29	32	1
97	99	3
66	106	2
30	33	3
33	45	2
171	241	3
12	12	6
0	94	9
154	155	5
193	194	3
168	168	15
46	46	5
54	237	5
5	5	6
6	7	5
168	244	4
80	83	3
169	169	13
196	196	6
220	225	7
56	62	1
229	229	8
52	109	1
1	1	7
174	177	2
6	46	2
100	100	10
33	34	4
111	111	4
8	8	6
206	206	6
203	207	1
192	192	11
58	64	2
159	238	6
39	39	10
246	246	5
161	161	8
102	102	14
240	240	8
113	114	7
201	206	6
31	32	8
236	236	11
16	16	7
71	72	4
181	181	15
24	24	4
73	233	2
215	215	1
61	61	7
231	231	5
70	236	6
18	18	6
151	152	1
217	217	2
201	202	9
160	161	8
182	182	3
191	215	3
103	103	3
43	43	23
44	45	2
189	189	3
105	105	3
96	96	9
178	179	6
202	237	1
203	205	2
111	112	3
68	68	4
65	65	8
17	17	3
226	226	7
245	245	5
189	192	1
6	47	3
35	36	3
39	42	5
67	91	7
72	72	4
84	85	6
165	165	2
7	7	11
93	93	3
177	184	1
209	210	4
171	173	2
6	6	6
11	11	6
212	246	3
145	145	2
84	109	1
185	193	1
110	111	2
72	73	4
195	196	5
150	151	2
184	184	7
245	246	1
172	172	6
163	163	2
225	225	6
66	103	1
47	47	3
49	51	2
216	216	8
150	207	1
219	219	1
32	45	2
224	226	1
107	107	4
157	210	2
242	244	3
217	219	3
5	48	2
57	58	4
113	119	1
66	67	2
116	116	10
105	107	2
182	232	1
157	231	2
166	166	1
114	145	5
22	22	1
1	2	3
185	194	4
82	90	2
19	19	11
167	167	5
73	73	3
85	85	5
1	29	3
165	217	1
89	109	3
85	109	3
55	67	2
30	31	2
55	149	1
244	244	7
180	181	5
106	240	1
30	34	1
37	38	2
243	244	2
76	76	3
173	173	3
117	117	5
12	18	1
144	156	2
228	228	1
182	192	1
199	200	5
74	162	1
171	171	8
109	110	1
209	209	3
180	180	3
240	241	3
71	71	5
200	201	1
58	241	1
168	169	3
73	188	4
225	230	2
176	176	4
188	189	4
57	239	3
56	65	1
112	112	3
167	183	1
215	216	2
119	119	7
220	224	8
219	221	1
173	240	3
1	27	1
171	172	11
3	3	3
218	219	6
4	4	4
182	223	2
238	239	1
74	74	2
98	99	1
4	47	3
52	52	4
106	106	2
82	83	3
60	60	3
221	221	5
184	185	2
220	223	3
66	107	1
177	178	3
179	179	4
40	40	2
29	33	1
31	33	4
212	212	1
62	63	1
208	209	1
204	205	2
117	145	1
114	115	5
42	44	2
152	153	2
223	223	1
21	23	3
3	4	2
25	25	8
93	94	3
241	241	4
235	235	1
9	10	1
50	51	1
99	100	1
213	214	3
169	188	1
156	157	2
178	178	1
156	198	1
26	28	1
69	70	2
35	43	3
121	121	1
104	105	3
15	15	1
214	214	4
206	208	2
4	5	4
29	29	3
213	213	3
118	119	1
166	246	4
27	29	1
173	174	1
91	94	4
181	183	2
247	247	4
153	155	1
169	186	1
184	187	1
210	210	1
206	207	1
13	13	1
36	36	2
186	187	1
117	118	2
174	195	1
11	12	1
73	74	1
159	159	2
198	199	1
86	89	2
66	77	1
189	215	1
51	87	1
62	62	3
195	195	1
157	157	1
61	63	1
197	197	1
115	238	1
94	149	1
59	60	2
157	247	1
172	241	1
106	107	1
116	118	2
230	230	1
192	213	1
77	79	2
12	17	1
71	79	1
236	237	1
166	167	1
23	24	1
228	229	1
43	93	1
172	173	1
210	244	1
161	162	1
119	120	1
