109	110	6
124	124	1
139	139	6
87	87	8
8	39	4
18	19	1
84	84	2
129	130	8
138	138	7
5	5	6
3	3	5
0	0	5
126	126	4
78	78	7
114	115	4
1	2	1
46	46	3
17	18	3
19	19	5
89	93	1
78	82	6
73	73	8
103	103	4
123	134	3
44	44	2
117	117	6
74	133	3
106	106	9
13	13	4
120	134	5
119	121	5
8	8	9
28	28	12
55	55	4
23	23	1
43	43	5
81	82	3
107	115	4
151	152	3
41	41	3
142	143	3
130	130	1
116	116	2
54	54	2
15	19	1
105	105	1
76	77	1
99	99	6
25	25	4
129	129	5
38	93	2
141	143	3
125	125	2
46	51	3
123	123	2
81	81	4
15	15	3
49	49	4
11	11	5
33	34	3
10	10	2
107	107	8
88	88	1
127	127	5
113	113	4
92	92	8
37	64	1
121	121	4
21	21	3
6	6	6
36	36	7
65	66	3
111	111	7
136	136	7
135	135	4
146	146	8
123	124	2
42	42	2
45	45	4
19	21	2
40	40	4
148	148	3
27	27	2
65	65	4
68	68	2
23	127	1
24	24	2
29	29	2
64	64	8
149	150	2
114	114	4
38	42	2
137	137	4
156	156	2
4	4	6
134	135	2
86	86	3
84	85	7
21	22	4
2	75	2
91	91	2
97	97	2
66	66	3
109	109	2
85	85	3
98	133	1
154	154	3
3	5	4
77	82	5
83	84	1
134	134	3
1	1	5
99	100	3
150	150	3
62	62	2
70	71	2
125	127	1
35	37	1
127	131	5
63	63	3
76	76	1
7	57	1
7	39	2
75	75	1
44	56	2
128	129	1
37	52	2
93	93	5
108	109	1
83	83	5
45	56	1
101	101	6
128	128	2
152	152	2
11	13	2
72	72	1
66	73	2
17	17	1
41	93	4
50	50	2
67	85	1
138	139	2
155	156	9
156	157	2
108	108	1
155	155	4
25	26	3
102	102	1
20	20	5
86	92	3
31	31	3
66	93	1
143	143	1
144	145	2
75	76	3
41	53	3
90	91	2
125	126	4
66	94	1
132	133	2
2	2	3
110	110	4
16	16	2
28	75	1
35	87	3
153	154	3
104	104	1
153	153	1
100	100	2
96	109	1
158	158	1
124	125	3
85	86	1
15	16	1
67	68	1
23	24	1
137	158	1
80	102	2
39	39	2
32	32	1
90	90	1
63	92	2
69	70	1
132	132	3
37	37	3
3	4	3
96	96	1
126	127	1
44	55	2
80	80	1
120	120	2
133	133	1
28	88	1
51	54	1
6	7	3
6	54	2
43	49	1
143	148	1
35	35	1
22	22	1
15	18	3
148	150	1
94	94	1
46	47	1
124	126	1
28	29	1
95	95	1
12	15	1
79	79	1
146	147	1
0	1	1
89	89	2
112	112	1
56	56	1
88	89	2
52	53	1
69	69	1
145	145	1
