39	39	15
83	83	7
72	72	14
49	63	6
101	101	14
33	93	2
56	56	19
71	71	8
80	80	15
37	37	12
64	65	4
73	73	4
55	55	6
69	70	5
62	62	17
79	80	8
59	59	10
76	77	7
97	97	6
42	43	2
26	59	4
69	71	2
53	53	12
69	69	14
75	75	16
68	68	17
102	102	6
79	79	16
47	47	2
51	51	18
64	64	23
41	41	15
71	72	3
41	91	2
66	66	5
96	96	10
63	63	14
74	75	8
25	46	5
70	70	13
27	28	4
45	47	2
29	29	7
50	50	3
36	36	18
95	98	3
86	86	13
50	52	2
58	58	3
39	73	2
85	85	21
58	60	3
68	71	1
49	49	3
97	99	1
44	44	12
73	74	3
38	38	18
81	84	2
54	54	4
89	100	2
39	40	1
77	78	1
74	74	6
25	25	9
51	53	2
65	66	6
78	78	16
82	82	2
48	50	3
70	72	5
34	34	8
35	35	6
73	76	3
84	84	3
83	89	2
90	90	10
88	88	20
83	85	3
75	83	3
94	94	2
91	91	5
81	87	2
76	79	1
96	97	2
79	86	1
85	88	3
34	96	6
31	31	2
27	48	1
40	40	3
63	64	4
36	49	3
81	81	8
76	76	6
42	66	2
66	69	2
33	33	6
61	61	7
53	59	4
98	98	5
67	67	4
66	67	1
83	86	3
24	24	3
26	27	3
78	79	3
27	27	6
94	95	2
65	65	10
60	77	2
26	28	3
53	86	1
87	87	8
53	88	3
64	66	1
75	76	1
44	45	1
23	23	3
89	91	2
81	82	4
43	91	2
60	60	4
41	42	1
68	70	2
95	95	6
53	54	3
26	26	3
75	77	4
89	89	9
77	77	4
57	59	1
92	92	5
29	79	3
35	36	5
40	41	3
84	89	4
68	69	1
66	76	1
33	35	2
30	30	2
90	91	6
42	91	2
50	56	2
21	21	3
99	99	2
51	52	2
92	93	2
45	101	1
38	39	1
46	46	5
54	102	2
83	84	6
35	59	2
23	46	3
42	42	2
66	68	2
81	83	1
46	47	1
65	76	1
98	102	1
20	47	5
24	46	1
72	73	2
44	100	1
43	43	4
85	86	1
32	33	4
80	81	8
25	80	3
27	34	5
94	99	1
86	87	1
91	92	2
96	100	1
25	27	1
45	45	3
70	71	1
39	44	3
54	55	1
29	45	2
43	92	1
99	102	1
93	94	2
35	49	2
80	85	1
63	74	1
57	57	3
55	56	2
75	79	1
20	25	1
22	22	1
63	75	1
65	67	1
58	59	2
36	39	1
51	58	1
24	47	1
60	61	2
39	43	1
62	64	1
34	97	1
31	59	1
100	100	1
45	97	1
80	87	1
79	81	1
89	90	1
30	36	1
61	88	1
88	89	2
48	48	1
93	93	1
34	35	1
74	85	1
35	37	1
95	96	1
