110	130	3
137	137	7
23	23	2
127	128	1
116	116	17
107	107	3
140	140	3
88	88	12
31	32	5
29	29	3
92	92	1
28	28	2
97	98	4
102	102	10
13	22	4
77	104	5
92	93	1
96	96	10
108	108	6
124	124	5
101	101	4
74	114	1
115	115	5
78	78	7
31	31	8
100	101	4
117	117	5
76	78	5
30	30	3
138	138	8
109	109	13
114	114	6
136	140	1
117	118	5
101	102	6
127	127	16
2	2	5
79	79	8
74	74	7
20	20	9
111	112	2
134	134	5
91	91	4
11	11	2
24	24	2
74	77	1
19	19	2
78	128	2
97	97	9
95	95	5
18	18	1
118	118	6
34	34	8
125	125	9
14	14	2
2	23	2
3	4	3
73	73	7
100	100	8
133	133	4
139	139	2
35	35	7
7	7	5
132	132	7
128	128	8
135	135	8
32	32	6
81	81	3
0	0	2
119	119	5
5	7	2
33	33	8
103	104	2
87	87	2
37	37	7
132	133	3
8	129	1
4	4	5
93	94	6
20	21	2
13	14	2
108	112	7
73	101	1
129	129	2
84	85	1
21	21	4
86	88	3
111	111	2
101	130	1
110	110	4
123	123	3
80	80	5
27	27	3
37	38	5
102	103	3
17	19	1
87	88	2
38	38	2
86	86	7
136	136	7
34	35	3
17	17	3
7	8	1
75	75	5
7	130	7
90	91	2
72	73	6
98	98	2
27	29	2
94	94	6
4	23	3
108	109	5
3	23	1
3	3	3
108	110	2
125	126	1
131	131	7
115	117	1
27	78	1
125	132	3
74	75	1
105	106	2
16	16	3
100	102	2
13	13	5
96	97	1
116	117	1
93	93	3
2	3	4
12	23	3
99	99	3
95	96	2
72	72	4
6	6	4
3	33	3
126	126	2
26	26	7
26	27	5
76	76	1
81	105	2
79	109	1
105	105	3
112	118	1
113	113	1
94	95	5
89	89	2
12	12	2
77	77	2
90	90	4
15	15	3
28	29	5
1	78	3
81	82	1
97	125	1
9	9	5
1	80	2
23	24	2
103	103	2
128	129	1
106	106	4
18	106	1
72	101	1
138	139	1
1	1	1
35	36	1
83	83	1
6	7	1
5	5	3
98	99	2
83	85	2
82	88	1
71	74	1
21	78	2
122	122	1
113	114	1
0	2	2
8	8	3
90	111	1
84	88	1
111	116	2
104	104	1
22	22	3
118	119	1
23	129	1
120	122	1
85	118	1
71	71	1
126	129	1
84	84	1
82	110	1
93	124	2
110	111	1
126	127	1
37	73	2
109	110	2
3	106	1
80	81	1
1	108	1
33	130	1
9	26	1
24	25	1
85	85	1
22	24	1
73	74	1
76	103	1
134	135	1
92	94	1
36	36	2
116	130	1
