236	236	14
109	116	3
183	183	10
85	85	3
94	94	11
69	75	1
186	189	4
245	245	8
115	115	6
107	107	7
184	187	3
64	64	2
184	184	7
173	173	9
240	240	3
204	205	2
91	106	1
181	181	7
46	46	2
172	173	8
20	21	1
193	193	6
50	50	3
92	105	2
144	145	1
70	73	4
185	185	5
207	208	5
73	74	5
248	248	2
23	23	12
157	158	4
161	161	11
18	18	7
116	118	4
62	62	4
166	166	3
215	215	7
197	197	9
199	200	2
79	79	10
74	91	4
88	88	5
234	237	1
223	223	1
195	195	4
176	196	4
156	156	8
89	89	8
163	165	3
8	8	6
238	238	12
57	57	6
192	192	7
241	241	11
209	210	4
178	178	5
235	239	3
157	232	2
188	188	4
58	59	5
168	168	8
110	110	5
14	14	5
241	248	4
4	4	6
172	172	3
54	54	6
218	219	6
182	182	5
114	114	6
17	17	5
68	68	8
72	214	1
117	117	8
46	221	3
9	216	1
52	52	8
56	56	2
71	72	1
57	58	7
64	208	3
62	63	2
31	31	3
188	189	3
72	72	2
63	63	5
49	50	2
39	39	6
164	164	5
198	198	7
209	209	11
176	176	7
150	150	5
195	196	1
108	108	4
38	41	2
155	244	2
97	99	3
246	246	5
66	213	3
53	54	4
200	200	12
191	191	10
61	67	2
234	234	11
119	119	2
21	21	3
51	52	6
4	5	1
61	62	3
80	81	2
190	190	3
107	108	2
92	92	3
165	166	4
47	47	3
59	74	2
169	170	3
154	155	3
225	225	7
34	34	10
102	102	2
202	202	2
220	220	2
22	23	8
2	3	2
241	242	2
97	97	4
48	116	4
189	232	1
230	230	1
115	117	5
42	42	4
103	104	2
76	78	3
81	81	5
159	160	8
152	152	6
111	111	3
219	219	1
65	66	6
80	80	4
68	73	1
110	112	1
43	43	5
175	175	4
88	102	3
174	176	4
160	160	2
69	70	5
92	106	1
72	104	3
153	228	1
109	114	1
186	186	7
87	96	2
245	246	13
7	7	10
21	22	1
76	86	1
73	75	6
56	57	1
22	22	4
100	100	5
26	26	5
229	230	1
39	40	2
77	77	2
32	32	6
74	74	3
2	2	1
4	33	1
153	153	14
109	109	5
65	65	2
231	232	3
66	66	4
1	3	3
109	111	2
35	35	4
158	158	8
112	112	2
157	157	3
162	193	1
188	190	2
216	216	2
166	193	1
113	114	2
212	212	2
179	179	2
149	149	5
118	118	6
37	37	4
48	48	3
231	233	1
211	211	4
202	204	1
86	93	1
165	165	5
104	104	2
213	213	4
167	202	2
163	164	2
210	210	6
6	6	3
217	217	3
247	247	6
242	242	3
51	51	5
153	245	1
96	96	3
6	15	4
153	242	2
86	87	1
30	30	6
58	79	1
19	19	2
227	231	2
235	238	3
194	194	1
24	25	3
93	94	4
177	193	2
201	204	1
71	90	5
243	244	2
167	178	1
36	41	2
93	93	2
69	69	1
38	38	4
189	189	4
154	154	1
235	235	2
227	228	2
244	244	2
8	15	2
1	26	4
187	188	2
94	95	2
14	15	4
162	162	7
77	107	3
74	75	3
71	71	4
169	169	3
237	239	1
28	28	4
163	163	2
202	203	2
17	18	3
171	172	1
160	234	2
89	102	1
38	39	1
12	14	3
168	169	5
196	196	1
181	204	2
77	78	6
67	67	5
32	33	1
41	41	4
226	226	7
37	43	1
17	21	4
5	5	5
206	206	2
49	49	1
77	105	3
18	19	1
72	76	1
48	109	2
224	225	2
1	1	1
237	237	5
233	233	4
6	220	1
66	212	4
82	83	1
75	76	3
58	72	3
221	221	2
237	241	1
59	59	6
84	84	3
222	222	6
71	214	1
218	224	2
76	88	3
41	42	1
60	60	1
20	20	3
201	201	1
36	36	2
34	35	6
14	34	1
47	221	2
120	145	1
111	113	1
68	72	2
79	81	2
87	97	2
171	171	2
173	174	2
45	46	4
44	46	2
180	183	2
219	223	1
60	208	2
57	81	1
11	11	1
162	183	1
87	89	1
100	101	2
232	235	3
160	161	1
30	31	3
90	90	1
91	91	3
49	110	1
54	56	2
95	97	1
167	167	2
73	79	1
153	156	1
45	45	3
239	249	5
78	106	2
191	194	2
177	177	2
170	170	1
50	224	1
44	222	3
213	214	1
10	10	6
174	174	7
102	103	4
16	16	1
111	112	3
70	70	6
29	29	1
205	205	2
7	220	1
207	207	1
167	171	2
10	11	1
11	35	1
88	94	1
44	44	1
225	226	1
12	35	1
31	32	1
167	169	1
197	199	1
61	213	1
57	149	2
187	187	1
108	116	3
183	229	1
145	145	3
180	180	4
158	159	1
74	89	1
96	103	1
197	198	2
103	103	1
113	113	1
226	228	2
70	89	1
13	14	2
180	182	1
63	152	1
85	86	2
224	224	1
76	90	1
48	115	1
45	102	5
101	102	1
24	24	1
73	73	1
238	239	2
55	55	2
183	188	2
69	71	2
229	231	2
70	71	1
175	198	1
9	9	1
179	181	2
6	11	1
159	164	2
104	105	1
90	106	1
4	6	2
87	92	2
56	155	1
177	179	2
109	115	1
8	217	1
165	177	1
150	227	1
76	76	1
191	231	1
206	207	1
58	60	2
92	95	1
155	155	1
87	87	1
96	97	1
183	184	1
246	247	1
61	61	2
106	106	1
203	203	2
161	165	1
210	211	1
56	117	1
71	89	1
231	231	1
183	190	1
168	199	1
36	37	1
4	15	1
151	180	1
204	204	1
86	86	1
232	233	1
