214	214	12
204	226	8
29	29	3
117	169	8
7	7	6
155	155	10
204	204	3
183	183	21
95	95	13
152	152	8
212	212	12
90	90	21
4	4	9
72	72	5
70	71	4
107	107	2
176	186	5
215	215	11
175	175	1
6	6	19
116	117	4
243	243	8
82	84	2
39	41	1
152	212	2
38	39	6
79	81	4
74	76	3
210	211	2
55	56	1
152	158	1
9	9	6
45	45	18
33	33	29
36	36	6
154	154	7
162	162	2
102	119	4
154	155	1
87	88	8
113	113	3
39	39	8
225	225	7
230	230	14
2	2	3
71	72	3
53	54	3
3	31	1
230	231	1
217	217	8
44	44	2
146	146	5
57	57	3
15	204	2
206	234	2
33	52	2
42	42	8
167	167	9
25	25	4
40	40	13
218	218	5
92	92	8
31	31	8
115	115	2
81	99	6
78	78	20
192	192	12
52	52	8
158	158	9
145	145	3
207	207	9
2	3	1
182	183	4
186	186	15
180	181	5
84	84	11
103	116	3
94	95	7
58	59	4
35	35	8
65	65	13
62	62	6
161	193	2
198	198	4
207	219	4
196	196	5
22	22	5
26	39	2
164	164	7
26	36	1
55	55	5
17	205	2
14	17	2
117	117	6
9	41	2
27	34	2
183	184	6
203	203	5
112	112	8
47	48	3
210	210	8
188	188	3
14	14	10
85	89	3
232	233	2
248	249	3
178	179	5
32	33	5
221	221	1
200	200	2
47	245	3
89	89	17
42	43	6
12	31	1
197	197	4
175	177	3
109	110	2
28	29	9
110	110	12
91	91	6
150	156	5
19	19	5
53	53	6
221	223	1
83	84	6
235	235	10
57	248	8
26	26	8
86	86	4
228	228	10
20	20	4
210	220	5
46	46	7
156	157	8
232	232	4
236	236	8
199	199	8
152	153	2
35	37	10
11	11	15
79	115	1
89	145	6
168	212	1
152	210	2
101	101	2
21	22	3
16	16	5
93	93	5
234	234	11
160	160	11
165	165	6
67	67	2
223	223	4
216	217	5
180	180	7
32	32	7
100	101	4
8	8	11
226	226	13
163	164	2
153	153	14
85	86	7
151	151	2
54	54	8
106	106	14
157	157	6
51	110	2
201	201	10
67	219	1
208	208	5
69	70	2
66	66	8
14	18	4
40	42	1
5	5	4
10	10	10
14	15	2
74	74	5
231	231	8
184	184	11
181	181	7
222	222	2
82	116	1
117	119	1
71	71	6
82	82	3
24	24	4
31	53	1
246	246	3
179	179	10
213	214	5
171	171	4
47	47	4
172	173	3
51	52	1
96	97	2
22	23	7
167	168	1
68	109	2
4	5	9
175	185	3
206	206	10
243	244	3
76	77	5
58	58	4
184	185	2
77	77	7
18	18	6
156	156	9
241	244	1
145	214	1
193	195	4
193	193	4
85	116	4
80	80	2
41	41	3
163	163	2
108	108	1
40	41	3
114	114	4
111	111	7
229	231	1
34	34	3
187	187	2
100	100	4
217	218	2
21	21	5
158	211	2
234	237	6
35	46	2
61	61	3
174	174	8
232	238	1
170	170	3
150	150	5
215	216	1
227	227	7
195	195	5
209	225	2
215	217	4
187	188	4
104	104	6
147	147	1
47	244	1
81	82	1
159	159	3
12	12	5
97	98	2
182	182	3
64	64	4
96	96	9
157	230	7
218	219	2
53	205	1
244	244	2
51	246	2
55	65	2
26	38	1
69	69	7
1	1	6
210	225	2
28	28	8
3	3	8
83	83	2
119	119	3
166	177	4
202	202	7
241	242	3
159	168	1
87	87	2
171	172	1
79	113	4
50	50	2
59	59	5
2	22	4
81	81	3
206	215	1
203	204	2
238	238	4
69	113	5
240	240	3
94	94	2
162	196	4
52	110	1
207	209	3
67	68	3
69	71	2
10	12	1
166	166	6
49	49	4
163	171	6
73	73	4
63	65	4
112	168	2
159	160	3
187	190	1
233	233	2
87	89	2
191	192	4
35	53	1
225	226	4
24	25	4
30	30	3
0	0	1
216	218	2
168	169	5
69	111	3
178	178	6
85	85	8
27	27	3
31	32	1
5	28	4
237	237	5
177	177	3
60	60	2
191	191	1
20	204	2
229	229	4
104	105	2
12	28	4
93	95	2
103	103	1
224	224	3
13	160	2
119	120	1
32	53	1
214	215	4
175	178	1
226	227	3
157	171	3
224	225	3
168	214	2
82	83	3
172	172	3
157	211	3
28	35	2
202	228	2
117	118	2
220	220	2
173	197	1
215	219	2
109	109	1
158	163	3
169	169	1
72	76	2
38	38	5
186	187	1
107	218	1
56	57	1
106	217	2
149	149	3
70	93	4
213	213	6
47	54	2
9	40	4
152	211	1
91	93	2
194	195	2
151	161	2
52	53	3
211	213	1
144	167	2
220	221	1
53	55	2
116	116	1
37	37	1
49	50	3
145	151	2
157	229	1
61	62	3
207	218	2
176	185	1
197	198	1
189	189	1
212	213	1
200	201	1
19	20	2
155	156	1
24	26	1
174	183	2
117	120	2
34	35	4
228	229	3
82	99	1
221	237	2
68	68	2
23	23	5
99	99	1
162	164	1
145	147	1
102	217	1
32	47	2
45	46	1
0	1	2
88	119	1
120	120	3
70	70	2
28	32	3
190	192	1
176	177	2
56	56	4
178	186	2
2	21	2
116	120	1
5	19	1
154	226	1
194	194	1
209	219	2
37	46	2
43	44	3
108	111	1
102	216	1
85	105	1
15	31	2
36	42	1
180	182	1
63	70	1
209	209	3
112	113	2
3	33	1
51	51	2
238	239	1
234	244	1
224	234	1
177	186	1
36	38	1
4	31	1
205	205	2
76	76	1
15	15	1
172	197	3
219	219	2
210	214	1
25	26	3
56	248	2
92	93	2
9	10	1
105	105	1
211	211	1
225	230	1
193	194	1
77	97	1
216	216	2
103	105	2
168	168	2
108	113	1
75	96	1
101	116	1
192	193	1
70	111	1
185	185	1
58	65	1
