96	98	5
52	52	17
86	86	13
68	72	2
44	45	10
59	59	6
63	64	2
22	23	7
70	70	6
32	32	7
31	31	11
100	100	9
102	102	14
83	85	4
34	34	9
98	98	9
107	107	12
109	109	16
84	85	2
85	91	4
49	113	2
55	56	1
49	109	3
60	79	3
43	43	27
60	60	11
55	55	19
98	99	5
26	26	6
101	101	6
23	24	9
84	84	7
28	29	11
56	56	13
64	64	21
30	39	2
110	110	20
44	47	7
95	95	17
45	46	1
64	65	4
82	82	10
78	78	20
28	28	10
71	71	9
39	40	2
56	59	4
57	57	11
71	72	9
20	110	4
89	89	10
58	58	10
22	22	10
74	75	11
26	27	1
48	99	3
50	99	2
50	51	3
48	49	4
99	99	20
56	57	2
84	87	4
40	40	8
70	97	3
42	42	6
65	65	9
51	51	10
24	52	2
39	39	8
102	103	7
54	56	2
22	77	1
34	36	4
32	99	5
44	44	14
35	35	13
54	54	8
63	63	7
73	73	12
46	47	13
23	23	6
42	43	8
20	20	13
61	63	4
25	25	10
61	62	11
98	106	1
57	58	2
111	111	5
108	108	17
97	98	11
112	112	13
114	114	12
32	67	2
48	48	13
72	72	11
103	103	21
33	33	8
104	106	7
88	99	6
30	30	9
83	97	4
47	53	6
41	43	4
65	67	8
43	95	2
21	22	2
54	55	4
78	89	2
61	61	7
66	68	2
109	110	10
46	46	19
113	113	6
43	62	3
58	71	2
104	104	5
75	75	20
53	54	10
27	28	5
55	57	11
75	78	4
25	38	2
89	91	4
77	78	6
100	101	2
56	64	2
78	79	5
95	96	2
93	94	8
106	106	14
68	69	8
63	67	2
105	106	6
98	114	3
105	105	7
71	74	1
50	50	4
24	24	10
32	33	4
82	84	2
81	82	9
20	21	4
79	79	17
79	94	2
111	113	9
93	95	8
26	37	4
114	115	2
29	29	13
90	90	13
79	88	4
87	87	11
100	109	2
19	19	2
37	37	13
93	93	12
72	80	3
64	67	2
39	42	2
40	41	7
94	94	4
103	106	4
45	45	13
83	83	16
41	41	2
27	27	15
32	36	1
44	85	4
47	47	11
67	67	5
85	85	11
94	95	4
94	113	1
49	50	7
58	59	5
19	21	1
23	48	3
88	88	9
101	102	1
86	108	4
41	44	3
24	85	3
38	38	19
92	93	3
79	93	4
53	53	6
62	62	9
81	86	1
62	64	6
36	36	6
66	67	6
86	91	1
81	81	9
76	77	4
43	67	1
65	66	4
97	97	14
109	111	2
111	112	4
95	104	1
42	59	1
65	73	1
58	73	2
43	103	3
66	66	4
68	68	3
56	66	2
42	57	5
73	74	6
33	36	5
19	23	2
112	113	4
94	101	3
70	73	2
91	91	5
47	51	1
76	76	3
41	42	4
98	108	1
82	85	2
89	90	3
43	44	5
50	52	2
25	26	3
92	92	3
33	34	9
42	60	3
31	32	3
47	48	7
107	108	5
53	96	2
77	77	5
90	91	2
49	49	9
23	25	1
99	100	1
37	43	4
111	115	2
20	22	2
29	101	3
37	44	1
110	111	3
69	69	15
19	28	2
62	63	5
35	66	4
40	48	3
69	74	3
86	89	2
30	32	4
73	87	4
104	110	2
36	37	1
21	21	2
85	86	5
80	80	4
60	61	2
80	81	4
70	76	3
26	29	2
46	94	1
29	52	4
44	46	3
61	66	3
74	74	10
53	60	2
51	52	4
38	39	3
23	85	2
26	38	2
110	112	1
37	38	1
44	53	1
34	35	4
57	60	1
91	105	2
37	111	1
51	53	1
56	87	1
88	105	2
50	74	1
106	108	2
92	103	2
96	96	5
27	29	3
45	68	1
41	80	1
52	74	3
69	70	2
106	107	2
49	66	1
49	74	1
29	114	2
35	36	1
93	113	1
108	114	4
67	69	1
68	80	1
51	77	1
43	45	1
87	89	1
47	49	2
19	39	1
30	31	4
20	98	3
101	109	2
57	59	4
49	98	1
79	80	1
55	70	1
91	92	1
41	58	1
30	102	1
39	48	1
57	61	2
30	33	1
105	110	4
113	114	2
23	98	1
53	57	1
31	99	1
72	73	1
49	112	1
90	92	2
88	113	1
53	58	1
26	34	2
62	67	1
24	26	1
88	94	1
65	68	1
21	23	2
34	44	1
21	98	1
35	44	3
26	39	1
92	95	2
79	97	1
71	75	2
48	98	1
59	60	2
62	69	1
54	74	1
33	35	1
21	110	1
56	60	1
24	25	1
46	80	1
108	110	1
103	109	1
49	110	1
62	68	1
70	72	1
53	56	1
