60	60	5
136	141	1
24	24	4
3	5	2
22	22	4
63	113	4
71	71	3
65	65	7
48	48	4
79	80	3
48	49	3
134	134	7
56	56	3
47	50	3
140	140	12
33	37	4
104	104	3
126	126	5
66	68	1
75	75	4
24	25	4
60	89	2
77	77	2
25	26	3
124	125	1
34	34	6
52	52	6
70	71	1
79	79	3
70	70	3
136	136	5
20	20	1
54	55	7
119	119	3
29	29	3
54	54	8
6	6	4
142	142	1
107	107	2
13	37	1
40	41	5
18	40	4
14	14	10
111	111	2
92	92	6
30	31	1
21	21	2
84	84	3
85	85	4
87	87	6
72	72	5
90	109	1
65	67	1
83	84	2
98	98	1
62	62	2
131	131	9
130	131	6
76	77	1
96	96	2
31	31	5
92	94	2
138	138	2
120	127	2
112	113	2
41	41	3
125	125	4
81	82	2
103	103	1
2	4	3
32	32	9
82	82	5
69	69	4
9	9	1
80	81	7
51	51	7
53	79	1
93	93	2
130	130	4
58	59	5
116	117	8
131	132	4
49	55	2
23	37	3
67	67	3
105	108	4
43	54	2
4	4	6
109	109	2
128	130	2
15	16	1
77	78	2
10	30	2
54	85	2
120	120	4
122	122	5
63	65	4
130	132	1
115	116	1
3	3	3
25	25	1
0	1	7
84	85	2
102	102	1
128	129	2
126	127	2
123	133	1
12	23	3
64	64	3
143	143	2
50	53	4
28	29	3
142	143	2
139	139	3
123	123	2
132	132	1
27	28	1
68	71	1
107	108	2
27	30	1
132	139	2
93	95	1
135	135	5
59	59	5
1	1	2
94	94	4
13	13	1
124	124	2
17	17	1
113	114	2
144	144	1
113	113	2
73	73	3
81	81	2
118	118	2
144	145	3
17	40	2
143	144	1
121	122	3
128	128	2
133	133	2
92	93	2
22	40	2
134	135	2
61	61	3
34	35	2
22	37	2
141	141	5
15	15	8
96	97	2
14	21	1
121	121	4
15	17	1
97	97	1
58	58	1
82	128	1
71	73	3
13	14	1
8	9	3
110	110	6
106	108	1
26	28	3
6	25	1
49	49	1
57	57	1
4	87	1
43	43	1
105	105	1
37	37	3
99	105	1
100	104	1
19	19	3
29	30	2
135	136	2
5	6	2
132	138	1
61	62	5
113	116	1
114	114	5
8	8	3
38	38	2
10	11	1
119	120	1
118	119	1
137	138	1
89	89	1
50	50	2
4	5	2
39	43	1
16	16	1
132	134	1
18	42	1
53	53	1
51	52	1
27	27	1
60	62	2
24	34	2
80	80	2
131	136	1
17	42	3
76	76	4
5	26	1
18	18	1
65	66	2
42	42	1
52	79	2
94	95	2
36	36	2
63	63	1
116	116	3
115	115	1
33	33	2
58	113	1
34	36	1
52	53	1
133	134	1
137	137	2
5	5	1
32	33	1
78	78	1
9	10	1
48	95	1
81	128	1
10	18	1
20	33	1
20	39	1
133	136	1
19	20	1
64	67	1
89	91	1
26	33	1
79	81	1
