9	9	5
4	4	5
114	132	5
109	109	8
2	2	7
100	101	1
68	91	2
19	29	1
50	54	1
20	27	1
56	72	3
63	74	2
104	121	6
23	26	2
98	98	8
67	67	1
104	104	6
43	43	2
74	74	3
80	82	5
15	20	2
125	125	3
0	3	6
44	58	3
68	96	3
51	51	1
59	62	4
115	115	8
50	50	5
47	47	5
17	17	4
6	14	2
84	84	13
93	112	2
61	76	3
11	11	5
18	31	2
44	44	11
103	120	5
72	73	2
79	93	2
48	61	1
102	115	3
85	92	7
72	80	1
12	20	1
20	20	6
119	120	4
77	81	3
38	38	1
91	92	1
128	130	2
83	99	2
110	133	4
127	127	1
96	125	4
84	94	3
0	5	1
14	29	1
28	36	4
97	99	4
64	78	1
10	11	7
102	102	5
104	109	7
114	114	6
28	45	3
107	121	3
52	60	2
27	43	2
12	26	2
69	69	2
44	73	1
131	131	5
24	36	3
43	57	3
79	80	3
72	72	4
54	67	1
13	15	1
122	133	1
99	99	7
7	8	3
48	48	2
118	120	2
74	87	1
54	54	2
83	84	1
89	89	4
125	128	1
29	29	1
96	98	1
88	88	8
90	103	1
100	109	4
28	28	5
121	126	2
34	35	1
108	122	2
135	135	1
93	97	1
117	118	2
26	53	6
101	107	1
64	74	3
97	98	1
57	57	1
110	123	1
74	79	2
95	95	6
90	112	3
110	110	1
70	116	4
100	112	2
3	3	7
88	106	3
114	118	1
6	9	2
87	103	1
27	29	2
111	111	4
26	26	5
63	63	6
130	130	7
93	93	3
94	94	6
84	112	4
118	118	3
109	110	1
56	71	2
70	70	5
71	71	3
133	133	1
103	103	3
3	5	2
129	131	3
78	93	1
86	116	4
22	22	1
82	82	1
61	61	3
78	90	2
92	92	3
124	124	1
98	99	2
54	69	1
128	133	2
37	49	2
83	96	1
117	117	4
8	8	4
106	127	2
21	21	7
9	22	2
25	25	3
77	77	2
60	63	3
7	13	1
83	89	4
66	66	1
87	87	5
105	110	1
2	8	4
14	14	3
103	104	5
113	131	2
34	34	2
59	72	4
109	121	3
113	114	3
119	119	2
116	120	5
58	59	2
83	83	1
55	55	6
1	2	2
27	27	1
112	112	2
110	131	2
64	76	2
16	29	1
89	107	1
111	112	3
5	5	1
10	29	2
53	53	1
16	16	2
67	87	2
15	15	3
79	79	5
33	34	1
130	134	2
33	33	3
13	33	1
86	100	2
132	132	4
50	73	1
127	129	2
111	129	2
17	21	2
104	107	1
6	8	1
79	96	1
42	42	2
90	109	1
21	22	4
123	129	1
106	106	1
44	80	2
78	78	1
12	12	6
131	132	1
67	81	1
125	134	3
13	30	1
90	90	3
80	80	2
99	126	2
9	11	2
32	32	1
11	24	3
31	32	2
61	62	1
104	126	2
23	36	1
75	75	2
31	31	4
80	95	4
14	15	2
59	63	3
121	121	2
44	45	3
105	116	1
97	117	1
12	17	1
76	77	3
84	86	3
122	122	2
77	79	1
5	22	1
44	54	1
105	117	2
5	25	1
113	127	4
59	59	5
107	118	3
3	4	2
60	87	3
26	30	5
69	82	2
99	111	3
83	90	1
88	103	1
45	50	1
16	36	1
37	45	1
79	87	1
13	17	1
86	86	2
100	100	2
57	73	1
23	29	1
93	114	2
4	24	1
10	19	4
15	19	1
129	130	2
13	16	1
36	36	2
82	83	2
96	101	1
18	26	1
128	128	2
16	22	1
93	94	1
89	93	2
0	1	2
5	21	1
61	68	2
129	129	3
116	119	1
114	133	1
108	120	1
35	35	1
0	0	1
109	128	1
62	62	2
115	121	1
30	30	1
65	65	2
19	20	2
116	116	1
59	80	2
44	62	2
68	70	1
57	69	1
107	132	1
73	74	2
5	12	1
61	72	1
81	90	1
63	89	1
79	82	2
18	27	1
102	109	1
120	120	4
59	60	2
94	96	2
0	10	1
75	82	1
103	119	1
66	67	3
110	119	1
120	134	2
6	6	2
18	18	1
82	96	1
79	95	1
1	1	1
93	96	1
14	31	2
56	57	1
100	111	1
37	59	1
97	109	1
6	7	1
93	117	1
86	104	1
84	91	1
42	55	1
46	53	1
116	134	2
126	126	1
21	34	1
50	56	1
85	86	1
116	118	2
95	102	1
83	97	1
77	78	1
91	91	1
118	123	1
19	19	1
