111	111	5
113	113	4
10	10	14
30	33	1
102	102	10
27	27	4
90	90	2
85	95	1
125	125	6
73	73	3
118	118	7
32	32	5
20	21	1
23	23	6
26	26	5
71	71	5
20	20	3
18	45	4
66	66	4
83	83	1
125	126	9
63	63	5
61	61	6
14	14	2
74	75	1
29	29	6
64	64	3
122	122	1
72	72	3
29	30	5
19	45	2
124	124	3
87	88	4
59	59	7
47	47	5
23	24	2
3	25	2
16	17	4
71	72	2
114	114	2
68	68	4
30	30	2
31	42	2
6	58	1
108	109	3
24	24	10
36	36	1
97	107	1
87	96	1
6	25	2
18	18	9
104	105	3
12	12	8
87	87	2
70	70	2
13	13	4
50	78	2
84	84	11
45	45	4
48	48	6
130	131	1
121	121	8
40	40	4
2	3	1
0	0	2
130	130	4
37	37	3
43	63	3
43	43	4
9	9	5
93	93	5
67	67	1
10	74	2
29	32	3
54	56	1
128	128	7
60	60	4
44	71	2
107	108	4
32	69	3
34	34	5
84	93	3
85	85	5
6	6	3
113	117	2
55	55	4
113	116	2
4	4	5
97	98	3
106	106	2
36	37	2
108	108	5
101	102	2
13	101	2
78	79	2
84	92	2
132	132	6
25	25	4
95	97	1
44	44	2
100	100	4
133	133	1
74	78	2
7	7	3
91	91	5
98	99	2
130	134	2
45	46	4
39	42	4
129	129	4
74	74	1
11	11	7
110	110	2
120	120	1
123	123	3
81	81	1
87	105	1
3	4	4
4	58	1
105	106	3
80	81	1
13	14	2
25	101	1
112	112	3
112	113	1
75	76	3
117	117	3
57	119	1
92	92	1
56	56	1
14	19	1
5	5	3
17	17	2
58	59	1
78	78	4
109	134	2
47	48	2
109	109	1
131	132	3
95	96	5
20	79	2
97	99	2
111	122	3
19	19	2
62	63	2
95	99	1
38	40	4
77	77	4
54	55	3
62	62	2
3	77	1
89	125	1
98	98	4
35	35	1
42	43	1
94	94	1
57	57	5
28	44	1
3	3	1
82	83	2
120	123	1
125	127	1
86	86	2
120	121	3
15	105	1
25	74	1
70	72	2
60	61	1
117	118	1
18	19	1
124	126	2
58	58	1
122	133	1
124	133	1
127	127	1
108	121	1
86	95	2
107	107	1
1	2	1
65	65	1
69	69	1
72	75	1
9	10	1
15	15	1
95	95	1
85	86	1
116	116	1
13	17	1
7	56	2
79	79	1
38	38	3
2	6	1
77	78	1
75	75	1
27	45	1
3	57	1
82	82	1
8	8	1
