163	163	42
108	108	22
7	127	4
62	71	2
42	42	24
3	3	45
93	94	19
68	68	27
100	100	28
96	153	2
116	116	27
53	53	11
16	24	6
100	101	4
55	55	16
90	153	1
27	27	32
73	73	27
18	19	9
7	7	13
33	33	11
71	71	18
11	11	21
79	80	1
96	97	12
119	121	4
52	53	16
10	28	1
129	129	20
160	160	33
36	36	28
150	151	5
120	120	16
110	111	4
22	22	24
111	111	13
2	3	3
143	144	4
134	134	26
56	56	17
135	136	12
92	93	6
106	107	15
57	57	14
91	91	11
85	85	15
65	65	25
3	4	4
48	53	5
56	57	4
147	147	18
1	44	1
41	41	15
129	134	1
2	2	23
90	90	22
121	121	17
74	74	29
117	117	9
147	148	7
44	45	16
123	123	21
128	128	15
81	81	20
20	20	14
87	89	2
153	154	10
86	86	9
54	54	13
13	18	8
6	6	20
105	106	5
83	83	24
131	133	1
161	161	17
153	153	31
98	99	6
24	24	23
124	124	27
43	44	8
95	161	7
14	14	17
37	38	10
155	155	19
81	82	15
15	16	10
13	13	13
101	101	21
14	15	5
96	136	5
82	82	13
132	132	23
10	142	2
154	163	1
105	105	12
93	95	2
63	70	3
23	23	30
131	131	22
0	4	5
70	70	8
141	141	11
157	157	10
102	102	25
136	136	29
80	105	4
83	84	5
142	142	9
50	81	1
17	18	23
140	141	4
8	9	4
44	44	28
133	133	27
90	91	5
49	133	4
156	157	5
94	94	17
127	128	7
73	84	2
39	39	25
84	85	12
16	16	24
65	66	7
87	87	23
149	167	2
120	153	3
34	34	14
107	107	23
117	118	5
167	167	11
84	84	24
47	47	17
88	88	31
80	80	18
98	98	16
115	115	26
70	71	5
126	126	31
64	64	28
17	17	26
72	72	13
139	139	13
36	40	1
70	72	4
10	10	18
149	150	11
6	45	3
39	87	3
152	152	27
10	62	1
49	49	21
101	105	2
168	170	2
145	145	18
26	26	10
77	77	12
95	99	2
118	118	21
150	150	25
10	16	3
168	168	31
102	143	6
144	144	11
66	66	8
166	166	20
114	114	18
26	145	1
77	78	2
12	12	16
137	137	10
137	138	5
104	104	23
107	108	1
138	138	35
75	76	2
169	170	7
122	122	9
0	0	14
100	103	4
165	165	17
50	50	14
105	123	1
38	39	5
158	158	20
144	149	2
5	6	2
36	37	7
79	82	6
92	154	1
19	19	9
1	1	16
119	119	33
5	5	35
78	78	6
95	95	12
79	84	2
9	10	5
122	144	6
19	44	1
80	82	1
87	88	13
27	28	9
38	89	5
76	76	21
9	9	16
140	140	10
111	121	3
166	167	3
76	133	4
114	156	1
54	55	9
154	154	25
113	113	12
143	143	20
24	26	2
38	38	25
169	169	10
142	143	12
51	52	6
7	126	3
137	139	3
7	17	6
11	12	7
21	21	10
15	106	1
35	35	17
75	77	3
138	165	1
133	134	5
148	148	12
38	88	2
24	25	5
108	109	6
47	53	5
97	97	10
52	52	17
67	68	6
128	134	2
28	28	12
110	112	3
20	79	1
20	42	3
15	35	1
149	149	27
40	134	6
165	166	4
46	46	11
10	11	3
112	118	3
41	43	4
135	135	5
73	74	1
151	151	32
163	164	7
48	48	9
5	64	3
62	63	5
164	164	19
87	91	2
156	156	28
99	99	7
162	162	10
41	42	1
115	118	3
25	25	30
70	147	1
119	166	8
79	79	8
49	54	2
95	125	4
129	130	10
2	138	3
75	75	11
56	58	5
8	8	14
93	93	24
131	132	13
47	52	4
20	21	7
64	130	5
51	51	3
47	48	1
7	88	1
101	102	9
159	159	11
90	96	1
121	123	3
136	168	4
119	120	6
4	4	9
107	150	4
128	129	6
44	66	2
103	105	2
106	106	17
19	20	5
162	163	14
94	95	2
98	100	1
89	89	23
15	15	28
86	87	5
97	152	5
131	134	2
76	77	8
120	122	7
106	144	2
18	18	15
74	88	1
97	98	15
157	164	3
105	112	2
85	86	14
112	116	3
146	146	17
67	67	9
147	153	2
110	110	12
119	152	2
16	18	4
39	40	6
159	160	11
33	36	2
10	18	1
130	134	1
101	139	4
21	22	2
130	133	4
167	168	8
155	163	1
46	47	7
109	109	17
89	109	2
1	5	4
157	158	5
69	69	3
49	132	1
123	124	4
107	146	1
96	96	13
126	128	5
44	46	1
150	154	2
45	50	2
10	17	2
127	127	8
84	115	1
24	37	1
102	103	1
70	78	3
125	126	6
159	161	3
143	148	2
126	127	4
144	145	11
35	38	1
45	45	8
130	130	12
161	162	13
21	23	1
132	133	3
158	159	7
111	112	4
27	52	6
125	125	13
104	124	2
89	99	2
42	57	3
170	170	14
100	125	1
146	147	11
101	124	2
41	44	9
6	7	4
111	136	2
68	69	3
106	110	4
67	131	2
112	112	4
74	75	5
10	55	1
63	64	1
26	51	2
91	155	4
112	114	2
129	133	4
111	167	4
91	131	2
68	70	3
131	136	2
140	143	3
41	45	5
37	56	1
121	122	5
13	44	7
14	16	5
35	36	4
123	163	3
34	36	3
8	90	2
42	53	1
19	48	6
149	166	1
84	113	1
107	112	2
105	124	1
78	80	5
1	43	2
10	141	3
88	89	11
150	153	1
69	70	8
42	130	2
145	146	5
17	35	4
12	18	7
122	164	1
53	54	5
11	13	7
34	35	4
152	153	2
118	119	2
13	19	2
70	134	5
112	115	2
82	156	2
134	135	12
1	4	2
164	165	3
139	140	4
35	44	2
40	40	26
159	170	3
55	69	2
24	46	3
138	139	3
25	40	4
154	155	5
49	159	2
0	99	2
43	43	16
21	67	1
96	140	2
153	160	6
51	55	1
6	91	2
162	165	1
40	41	4
115	116	7
35	37	2
118	154	2
90	93	4
114	115	3
71	79	2
52	76	2
74	82	9
50	51	6
89	129	1
92	120	2
52	55	4
149	163	5
63	63	8
92	92	8
19	24	1
102	119	2
78	79	2
57	62	1
72	106	2
74	79	4
7	62	2
17	69	4
91	126	5
63	65	2
72	81	2
124	125	8
106	108	1
54	90	2
116	132	1
65	143	1
136	137	5
145	147	1
35	146	2
122	166	3
35	43	1
41	83	1
113	115	2
95	141	1
36	38	8
105	122	2
103	103	7
91	93	7
128	130	2
91	92	4
103	104	11
130	131	12
13	15	1
55	56	10
108	112	4
118	121	1
62	62	2
4	20	2
3	137	2
99	126	1
42	54	1
103	123	2
88	168	1
57	73	1
4	5	2
10	61	2
28	126	1
39	169	3
161	163	4
37	89	2
26	56	2
21	107	2
113	151	1
90	140	1
7	45	5
104	105	1
0	1	2
93	137	1
113	114	7
89	132	3
80	83	2
82	83	3
43	46	3
162	164	1
100	102	5
70	138	2
120	121	3
79	81	3
1	134	3
40	85	1
38	41	2
42	43	6
168	169	6
155	156	4
151	154	2
7	10	1
16	63	2
161	164	2
122	127	3
37	37	4
1	2	6
70	137	2
99	125	2
90	155	3
112	113	4
13	16	1
7	12	1
33	35	1
58	58	7
107	145	1
129	139	3
100	149	2
23	36	1
25	26	2
4	21	1
116	119	4
146	160	1
71	147	2
42	158	2
136	169	3
142	144	2
165	168	4
116	117	4
82	155	2
96	99	2
143	145	5
37	67	1
123	129	1
41	55	2
151	166	2
150	152	1
89	91	2
63	131	1
146	148	1
45	46	2
48	50	2
148	156	1
133	141	2
47	49	2
133	135	2
144	148	2
34	94	2
117	159	2
42	56	2
18	128	2
119	122	3
38	107	2
149	151	2
76	105	1
87	95	2
54	93	3
46	56	3
58	72	1
36	39	1
97	125	1
23	24	2
105	109	1
94	167	2
97	100	3
12	13	2
23	45	2
102	108	1
7	8	2
17	129	1
3	110	1
45	73	1
151	152	2
155	157	1
117	123	2
7	9	1
117	121	2
3	136	1
11	56	1
49	51	2
72	80	1
103	124	1
58	71	1
80	87	1
99	104	3
159	163	1
79	119	1
142	146	1
64	70	1
146	152	2
40	42	1
0	3	1
6	63	1
83	85	1
18	67	2
67	69	1
87	97	1
94	128	3
26	27	1
68	136	1
117	122	1
113	122	2
2	129	1
125	127	1
66	67	3
34	136	1
149	164	2
51	69	1
111	118	1
16	20	1
74	86	1
99	143	1
128	132	1
94	132	1
147	154	1
41	65	1
114	116	1
73	75	3
98	129	1
95	96	1
87	93	3
128	131	1
10	139	1
33	43	2
33	34	1
53	56	4
16	107	1
86	95	2
13	170	1
6	64	1
53	78	1
155	170	1
5	61	1
9	11	1
64	127	1
148	154	1
128	141	1
13	36	2
146	167	1
83	116	1
37	39	1
66	69	1
46	65	1
13	14	1
64	66	1
8	56	2
70	136	1
139	143	1
79	105	1
7	55	1
102	151	1
71	76	1
53	55	1
20	22	1
72	73	1
21	79	1
167	169	1
23	47	1
94	159	1
155	167	1
92	153	1
145	167	1
65	144	1
22	23	1
83	156	1
94	127	1
