145	145	20
102	111	5
149	152	2
92	104	4
166	166	6
150	150	14
51	67	2
141	150	4
92	98	2
153	164	6
16	16	7
116	116	3
161	163	2
107	111	3
3	23	4
6	7	5
156	170	6
152	160	2
3	170	2
40	50	1
8	9	9
150	154	2
100	108	1
130	130	11
149	149	9
125	136	1
138	138	5
86	94	1
142	144	7
167	167	10
47	47	3
112	125	1
12	12	3
18	20	4
67	76	6
65	68	4
37	37	9
9	22	2
100	117	1
118	125	2
117	117	8
87	89	2
19	19	5
143	143	4
155	155	12
135	144	6
53	56	3
147	157	7
79	85	10
110	121	1
28	38	2
13	147	7
126	136	5
116	130	3
117	124	1
38	40	3
38	84	1
43	54	1
2	3	9
4	41	3
162	163	4
88	94	1
129	131	4
111	123	3
54	55	4
36	36	8
108	109	4
109	109	3
115	128	3
147	155	3
112	112	6
133	143	1
131	141	3
121	121	7
131	133	2
11	19	2
41	44	6
163	168	2
88	98	2
163	163	11
4	13	2
18	21	5
100	105	1
99	102	3
74	92	2
49	62	2
89	106	2
136	147	1
74	74	3
17	18	3
2	7	2
134	144	1
109	110	4
87	98	2
40	52	5
142	157	3
127	133	3
119	119	9
143	145	5
1	14	3
6	9	4
52	52	4
83	95	1
157	158	8
138	140	7
97	99	5
90	90	2
36	46	2
107	109	2
13	20	3
0	13	2
103	111	3
142	169	4
128	128	10
82	82	11
71	84	6
50	50	5
133	134	3
47	56	6
10	11	6
55	55	3
102	102	2
16	23	3
111	111	8
153	155	2
129	157	1
1	3	4
5	5	6
34	34	1
7	14	3
92	95	4
147	153	7
94	109	4
9	9	3
101	105	2
130	141	1
162	162	5
128	151	4
51	52	5
2	18	1
4	20	2
160	162	4
147	150	1
11	11	7
133	133	6
15	18	4
48	54	6
17	17	4
119	129	2
167	168	3
115	117	5
168	170	5
153	153	4
57	71	2
147	147	2
64	64	3
95	95	1
33	40	1
159	161	3
35	44	4
80	92	3
118	124	4
19	22	3
107	107	8
24	43	1
140	141	3
126	135	1
129	130	4
89	99	1
122	124	10
42	42	8
168	169	4
135	145	3
10	10	3
68	71	3
100	100	11
71	83	4
151	156	1
120	146	4
88	88	7
104	104	4
46	46	4
45	45	2
102	110	9
106	106	5
157	157	1
21	21	2
122	122	1
14	16	3
71	85	2
147	148	12
159	159	7
158	161	3
45	49	4
8	20	1
170	170	6
152	158	2
146	146	4
153	167	2
134	155	1
101	102	1
93	99	2
77	79	3
115	122	5
24	36	1
139	140	4
12	13	7
86	106	2
80	81	2
158	159	4
89	94	2
68	78	1
159	169	3
127	135	2
10	23	3
18	27	1
150	151	4
129	139	2
145	150	2
109	124	2
148	149	2
33	33	1
12	18	8
76	97	1
129	132	3
132	138	5
98	98	3
36	38	3
119	122	4
12	21	6
22	25	4
6	6	9
145	148	2
117	118	4
113	113	1
139	139	6
131	148	2
123	124	6
65	65	2
101	104	1
108	108	3
133	136	3
153	158	1
8	14	1
116	117	2
148	148	8
154	169	2
63	64	2
69	69	8
91	105	2
116	129	1
149	157	6
138	143	3
141	160	2
58	64	1
57	63	1
27	28	4
66	67	1
125	125	9
96	96	3
137	137	9
6	8	1
143	150	2
91	99	1
76	94	5
5	9	3
132	136	5
91	102	1
102	114	4
135	137	5
67	69	2
35	35	3
156	160	2
56	56	3
7	7	4
62	66	3
165	168	2
84	122	1
128	129	4
3	5	2
112	122	1
76	85	2
91	91	2
156	156	5
125	127	4
8	8	8
84	90	2
96	99	1
102	124	1
134	142	2
102	108	2
161	164	1
76	89	2
115	121	1
17	22	1
165	167	2
156	157	1
143	144	4
144	147	4
3	20	3
87	90	2
142	155	2
111	112	4
148	159	2
26	26	5
122	129	3
17	28	2
127	127	2
39	40	2
119	143	2
38	38	5
110	124	6
5	8	2
125	126	2
35	48	1
86	96	1
64	80	2
76	79	2
130	132	2
70	95	2
106	109	1
15	16	1
156	165	1
93	93	5
130	138	1
160	161	2
70	70	2
87	99	1
0	6	6
111	124	3
85	85	5
69	83	2
164	164	5
141	146	4
89	103	4
140	153	2
121	127	3
17	23	2
11	12	4
97	112	3
159	160	3
154	168	1
149	150	1
151	169	2
23	23	4
69	72	2
134	136	4
96	98	8
18	19	1
126	126	2
105	113	1
118	134	1
112	120	2
130	143	3
142	142	3
36	50	2
34	44	1
141	141	10
152	152	6
3	10	2
142	147	3
13	17	4
25	26	7
125	135	3
144	158	2
10	13	3
84	106	2
151	152	1
164	169	1
5	7	2
5	13	3
9	10	4
4	16	1
45	46	3
118	118	6
107	112	2
115	129	3
69	82	3
77	77	4
77	90	1
41	41	4
36	37	6
103	103	3
112	135	2
10	12	2
53	64	1
23	25	6
73	82	1
146	148	2
23	24	3
110	110	8
122	132	1
77	81	5
109	117	1
94	102	1
98	100	2
94	105	1
15	47	1
0	0	1
25	25	6
154	162	3
142	146	2
1	9	2
99	100	6
39	41	2
73	97	2
47	99	3
135	136	3
65	70	2
93	104	8
82	87	1
20	20	7
96	97	2
15	15	2
151	151	2
1	12	2
49	51	6
148	150	3
131	134	1
118	132	2
44	44	6
65	72	1
3	3	7
39	49	4
90	106	1
104	125	2
132	146	1
154	157	3
7	21	2
14	14	6
64	68	2
143	149	1
101	101	1
92	96	2
62	62	9
135	135	10
82	85	1
168	168	9
8	10	2
129	140	1
111	114	1
76	81	1
1	1	5
129	129	3
81	86	2
154	154	2
40	40	3
107	108	6
120	121	2
150	160	1
92	92	2
2	11	1
138	148	4
162	167	2
52	54	2
24	28	4
90	94	2
71	71	7
144	145	1
155	158	1
83	83	2
132	139	2
71	73	1
112	113	5
39	39	5
2	2	4
78	80	2
46	48	2
162	168	3
28	28	5
84	99	2
111	120	2
54	54	2
119	128	1
123	130	2
110	119	3
90	98	2
72	85	1
24	24	2
144	152	4
146	147	1
33	54	2
69	80	1
73	75	2
134	138	2
156	166	2
122	126	2
67	72	1
105	114	1
48	49	1
144	150	1
49	49	6
77	83	2
114	125	2
141	152	3
97	97	5
139	141	2
99	112	3
150	166	1
3	12	1
89	89	3
78	79	4
53	53	1
82	96	1
1	2	2
120	123	1
163	167	1
158	170	2
160	164	3
93	100	1
4	18	2
49	52	4
44	46	1
69	79	3
16	17	2
8	19	2
71	76	1
34	45	1
5	19	1
108	124	1
94	97	1
150	153	4
65	67	3
1	6	2
1	4	1
2	4	2
26	27	1
17	20	1
27	27	2
158	160	1
5	6	3
78	87	1
123	127	2
89	90	1
160	160	1
88	101	1
154	159	2
22	45	1
68	76	2
71	78	2
105	122	2
0	2	4
149	163	2
115	115	6
101	107	1
69	70	1
42	43	1
140	169	1
111	116	1
94	94	2
66	66	1
140	143	2
76	76	2
44	47	1
125	145	1
19	41	3
141	142	3
154	158	3
100	114	1
25	27	1
0	17	1
13	14	1
137	148	1
165	166	2
84	108	1
123	123	5
95	115	2
86	86	2
8	11	1
137	138	1
63	63	2
43	43	4
115	123	2
97	98	2
57	72	1
3	4	1
2	13	1
156	167	1
49	68	1
83	85	1
141	144	3
98	107	1
17	27	3
27	37	1
65	91	1
78	78	2
132	132	4
134	147	1
151	161	1
19	24	2
86	89	1
111	113	1
138	149	1
166	167	1
13	13	2
140	154	1
125	131	2
90	91	1
114	118	1
58	72	1
126	137	1
129	137	1
82	98	1
108	118	2
137	150	2
7	19	2
144	144	2
22	24	2
159	163	2
86	87	5
73	85	3
57	69	1
164	166	1
67	86	1
38	50	1
127	128	1
134	135	1
100	110	2
4	4	2
85	88	1
76	86	1
147	160	1
83	88	1
85	96	1
97	109	1
34	35	1
149	154	2
48	48	3
130	140	2
20	21	1
139	152	1
162	169	2
89	95	1
33	34	1
131	132	1
73	73	1
83	86	1
158	158	3
83	89	2
115	118	1
82	89	1
4	15	2
127	129	1
98	99	2
72	77	1
62	68	2
160	170	1
140	159	1
126	129	1
126	127	2
53	66	1
46	49	1
134	134	2
167	169	1
150	155	1
131	131	2
106	107	3
148	157	1
131	140	1
128	133	1
153	165	1
154	165	1
109	113	1
4	5	1
131	143	2
109	143	2
109	127	1
27	46	1
110	122	2
35	64	1
1	15	1
43	44	1
146	165	2
2	15	1
151	157	1
124	127	2
95	101	1
101	114	1
110	132	1
22	22	1
154	156	2
149	162	1
0	1	2
14	18	1
145	151	1
14	17	1
113	122	1
124	135	1
44	55	2
130	131	1
133	135	1
85	86	1
80	90	1
120	120	1
75	75	1
0	3	1
132	134	1
165	165	2
10	21	1
120	132	1
36	43	1
44	57	1
56	57	1
105	117	2
42	46	1
10	22	1
41	52	1
116	121	1
56	67	1
153	169	1
88	95	1
161	161	1
82	94	1
99	99	1
79	83	1
159	165	1
101	103	1
7	20	1
66	75	1
55	58	1
2	16	1
53	57	2
26	35	1
128	140	1
