105	105	2
117	117	11
129	135	3
119	119	5
107	108	4
163	163	6
52	56	2
50	50	2
143	144	2
137	138	2
75	114	1
33	34	1
35	36	1
61	70	1
3	6	2
39	48	4
14	17	5
50	54	1
1	6	2
77	77	3
150	150	1
150	151	3
10	10	7
20	24	1
88	88	18
146	149	2
165	168	2
104	108	1
6	6	6
84	96	1
90	90	8
153	154	5
137	149	1
137	137	7
141	141	4
101	101	8
49	53	1
95	97	2
14	14	13
153	153	5
96	96	8
8	9	4
18	19	1
113	113	1
116	116	7
98	99	1
37	37	10
72	80	2
80	80	7
112	112	7
54	57	2
25	85	1
141	143	8
41	41	4
164	169	9
72	81	1
79	79	5
36	44	7
80	90	4
131	153	1
161	162	3
75	76	3
44	44	2
110	111	4
22	22	9
53	68	2
93	95	5
99	112	3
39	39	5
55	55	1
133	133	9
115	119	3
151	151	7
72	72	7
70	70	7
138	138	8
42	43	3
70	77	2
66	70	3
4	22	2
125	127	5
74	75	3
108	112	1
27	27	4
16	16	3
26	27	2
37	38	3
108	131	5
93	93	5
2	7	4
63	126	6
102	105	2
35	35	2
47	47	6
66	126	1
99	99	4
129	133	2
52	52	4
129	152	4
21	21	1
40	40	5
151	152	4
170	170	5
167	168	6
87	87	4
55	57	2
89	91	3
49	54	2
164	166	1
42	45	1
65	65	2
41	53	4
142	142	4
38	38	1
90	97	3
64	73	3
87	88	6
71	71	3
40	46	2
110	110	8
49	49	3
61	65	7
130	131	6
69	85	3
75	75	6
3	17	3
119	138	1
8	8	1
103	106	1
0	1	5
133	134	2
42	42	2
6	9	1
62	64	6
54	54	3
36	37	2
70	80	1
72	82	6
0	6	1
44	45	3
88	89	1
45	50	2
78	78	3
7	8	1
134	137	1
148	148	3
103	105	5
111	113	2
94	109	1
56	90	3
111	111	1
6	7	2
76	76	8
138	139	1
9	11	1
81	120	2
17	17	2
154	154	5
93	94	3
121	121	3
124	124	2
18	18	3
77	84	3
9	9	2
7	10	4
65	72	5
143	149	2
117	123	1
82	83	3
148	149	2
153	158	1
128	129	10
117	137	2
5	5	3
131	131	6
25	109	2
74	74	2
36	42	3
164	165	1
91	91	3
50	52	2
128	133	3
89	92	4
73	75	1
56	57	2
2	2	3
0	13	2
150	162	1
169	169	10
107	120	2
36	40	3
99	107	1
152	152	4
158	160	1
115	123	4
108	108	6
25	54	1
20	76	1
84	84	4
49	56	1
39	40	2
13	20	3
15	139	1
145	149	3
7	20	1
49	51	2
91	92	1
83	83	5
139	140	2
141	144	2
130	139	3
102	104	2
4	14	1
12	12	6
21	24	2
52	53	3
122	123	2
4	4	3
82	82	3
68	68	3
165	165	3
16	24	6
56	56	1
14	24	2
129	137	1
132	132	3
98	98	3
12	16	2
3	3	6
65	67	3
70	71	1
73	73	3
152	154	3
129	131	4
80	82	1
136	137	4
125	125	4
64	64	2
18	34	1
149	149	5
92	106	2
102	103	3
19	27	2
144	145	1
87	104	2
36	36	4
119	130	1
45	47	2
76	77	3
130	130	5
77	78	1
100	102	2
154	155	4
106	106	7
126	126	2
147	147	3
26	26	3
6	18	7
89	89	3
1	1	3
133	145	1
156	159	2
137	161	1
11	11	1
18	25	1
158	158	2
113	114	1
64	132	1
162	162	6
14	19	1
120	120	4
42	49	3
2	20	2
110	113	1
123	128	3
156	156	2
57	58	2
6	12	2
83	117	2
129	132	3
123	129	1
99	110	4
23	23	1
152	153	1
154	156	2
143	143	5
134	145	1
25	26	2
156	170	7
102	102	3
48	48	3
141	148	3
71	75	1
67	69	2
106	107	3
81	119	5
105	114	2
143	145	4
7	79	1
134	134	1
129	129	3
20	20	1
119	126	3
44	55	2
146	148	1
119	123	2
144	167	1
111	112	2
135	135	5
146	146	5
14	16	2
141	142	1
153	164	2
121	133	2
13	15	2
87	98	1
53	58	1
33	33	5
148	160	1
35	44	2
83	85	2
96	100	1
135	139	3
149	152	1
110	112	2
168	169	4
148	163	1
68	79	1
121	122	2
1	76	1
10	11	1
53	54	2
85	96	1
34	34	2
120	141	2
45	45	2
41	42	1
123	134	1
144	156	3
168	168	6
69	69	2
0	9	2
97	97	4
23	67	1
109	109	2
82	85	1
153	169	1
135	136	1
79	86	1
24	24	1
141	151	1
4	10	3
35	40	2
16	140	1
43	50	1
161	161	2
143	146	1
152	165	2
10	24	1
122	124	1
107	119	2
98	103	2
9	19	1
67	68	1
127	127	3
91	94	1
63	134	2
3	10	1
150	153	1
88	90	4
156	158	1
104	112	1
11	18	1
3	4	3
140	143	1
25	25	2
62	125	2
167	167	1
101	108	1
118	118	1
81	81	1
157	157	4
44	46	1
46	52	1
81	82	1
91	95	1
55	94	1
86	90	1
40	50	3
123	125	1
76	84	2
127	129	1
63	63	2
140	140	3
35	96	1
3	80	1
66	75	1
116	123	2
134	135	1
51	56	2
66	69	1
160	161	1
21	84	1
159	170	2
46	47	2
77	98	1
74	90	1
145	145	2
166	168	2
16	18	1
64	65	1
35	38	1
94	105	1
113	116	1
79	80	1
155	158	1
16	17	1
166	166	1
92	93	1
122	122	2
144	169	1
128	128	2
19	19	1
28	28	1
83	84	1
18	20	1
1	24	1
11	12	1
0	2	1
95	95	1
2	4	1
66	68	1
19	20	1
85	85	1
73	85	1
165	166	1
79	91	1
53	94	1
150	163	1
136	136	1
148	150	1
128	131	1
139	141	1
124	125	1
117	118	1
