26	94	2
148	150	1
104	104	5
105	105	9
41	41	5
109	109	2
10	13	2
56	95	1
37	37	5
38	42	1
21	21	4
48	48	5
87	92	1
46	46	4
57	113	4
68	118	3
147	147	3
0	0	5
57	57	1
81	121	1
84	134	4
95	95	2
52	53	3
81	123	2
20	20	5
36	36	4
71	111	2
79	118	2
38	38	5
47	107	2
30	30	2
125	125	3
158	158	4
155	157	2
114	114	1
121	121	1
16	17	5
86	86	5
33	33	3
34	34	2
140	140	1
85	85	6
96	111	4
101	101	2
30	50	3
10	10	3
31	31	10
2	2	3
29	29	1
106	106	5
43	43	4
133	133	1
3	4	5
40	45	1
79	89	3
102	103	1
24	61	2
86	90	1
67	67	3
84	84	2
115	121	2
98	122	2
146	146	6
13	14	1
92	92	2
95	96	3
11	12	1
53	54	3
149	150	4
42	42	7
79	79	1
47	48	2
25	25	2
25	94	1
6	6	3
3	3	3
70	70	2
47	47	3
1	1	3
118	146	1
54	134	5
72	80	2
136	136	1
35	38	3
17	17	3
71	112	2
117	118	3
18	34	1
88	93	1
105	150	1
45	112	1
6	36	4
103	149	6
99	101	5
14	14	3
7	30	1
91	91	1
157	158	2
78	113	4
28	121	1
130	130	8
5	30	1
81	81	2
38	39	2
142	142	2
108	108	3
63	91	1
63	63	5
13	13	7
7	7	6
103	123	2
9	11	2
148	148	2
78	78	3
15	33	1
40	40	1
112	113	2
153	153	1
30	44	1
15	16	2
136	156	1
88	88	2
122	122	1
22	23	1
2	43	1
103	103	2
16	35	3
82	83	1
79	81	1
26	28	2
3	14	2
9	9	2
108	118	1
86	91	3
68	68	2
19	19	2
116	116	1
4	4	1
141	154	3
46	67	2
98	103	2
151	151	3
95	97	1
29	30	2
20	54	3
112	118	1
107	108	1
34	35	1
70	93	2
71	71	5
120	125	2
56	56	2
71	93	2
124	128	2
53	135	3
80	80	3
152	153	1
137	137	3
32	32	1
124	141	1
24	24	3
15	37	1
87	89	2
50	50	2
145	145	3
141	157	2
37	49	2
27	27	1
50	54	1
128	129	2
22	52	1
120	120	4
69	69	2
141	141	2
4	8	1
66	103	1
128	139	1
51	106	1
96	110	1
33	34	2
138	138	1
104	149	1
62	62	1
131	131	2
118	147	1
106	116	1
4	10	1
69	71	2
51	136	3
110	110	2
4	12	1
118	126	1
18	19	1
1	2	2
69	112	1
2	7	1
156	158	1
114	117	1
85	86	1
20	137	1
146	157	1
20	22	2
135	137	2
113	123	1
139	152	1
98	98	1
142	143	1
136	141	1
97	97	1
147	148	1
144	144	2
101	122	1
49	61	1
127	127	1
12	12	1
65	103	2
39	42	1
20	95	2
53	53	1
2	12	1
85	114	1
102	104	1
107	107	1
22	134	1
119	125	1
34	42	1
16	18	1
79	96	1
8	36	1
141	146	1
90	91	1
