151	177	1
157	159	3
53	53	3
142	143	2
3	23	3
153	154	1
112	112	2
11	11	1
32	127	2
111	112	4
58	89	5
6	29	3
108	108	11
162	189	2
149	149	3
95	159	1
28	28	1
52	52	5
182	182	3
165	165	4
7	29	1
189	189	13
100	137	2
51	51	2
185	185	9
163	164	8
154	154	8
100	100	2
109	119	4
49	49	8
99	99	3
3	19	2
173	189	2
110	110	7
107	110	2
100	104	1
74	75	5
95	97	2
168	181	1
101	147	2
33	33	2
33	121	3
15	16	2
107	182	4
93	93	5
97	97	3
108	181	1
139	140	1
148	148	6
74	74	4
10	10	1
20	20	5
172	172	3
36	36	6
5	8	3
65	65	8
71	122	2
136	136	7
144	170	1
107	107	1
69	69	2
191	191	3
172	186	4
8	9	2
64	134	1
180	180	5
1	1	4
16	17	1
59	158	2
120	140	1
168	168	4
42	43	3
14	24	1
109	109	7
162	162	1
134	134	4
59	59	3
105	105	3
129	129	6
192	192	4
37	37	2
47	47	2
161	175	6
25	26	4
83	83	3
190	193	2
121	122	4
187	189	1
151	151	2
181	181	7
78	78	1
156	156	1
4	4	1
101	104	5
15	15	1
104	104	3
5	5	5
110	171	2
54	55	3
2	22	2
157	157	3
162	173	1
6	7	1
14	14	5
152	153	4
81	81	2
101	101	4
6	6	2
5	6	4
112	126	1
173	173	6
0	0	1
38	42	1
3	3	2
164	164	6
17	17	1
128	128	6
39	42	1
19	20	1
154	186	1
57	57	2
96	96	3
184	184	3
23	23	6
114	114	8
124	124	2
163	163	4
118	118	4
21	21	2
95	95	3
80	82	1
122	122	1
63	63	1
32	32	1
196	196	4
13	13	2
60	60	2
150	150	5
88	90	3
5	35	2
44	44	2
176	178	1
156	157	2
14	18	2
106	106	6
103	105	1
2	2	2
121	121	7
193	193	1
116	116	3
111	111	4
0	58	1
48	48	3
42	63	2
24	26	1
7	7	2
24	24	2
176	176	2
67	81	2
101	135	3
98	171	2
161	161	2
195	195	4
82	86	2
8	29	1
7	8	2
68	68	3
61	62	1
45	65	1
169	169	2
14	68	1
126	126	1
169	170	4
25	25	2
5	26	1
160	160	1
187	190	2
70	70	8
167	169	3
137	137	1
31	31	2
146	165	2
161	162	1
114	115	1
87	88	5
14	66	2
97	98	1
100	172	1
39	39	3
145	155	1
96	143	1
144	144	2
187	187	3
127	127	2
15	197	1
62	111	1
27	27	1
165	168	3
96	97	1
29	29	4
150	179	1
168	182	1
163	186	3
2	5	2
58	58	2
38	38	1
22	23	1
63	128	1
39	191	1
34	35	3
159	186	2
143	144	3
62	63	2
64	65	1
50	55	1
97	132	2
115	115	1
3	21	2
109	170	2
16	156	1
140	140	1
194	195	2
65	66	1
28	82	1
160	179	2
66	66	2
33	76	1
131	131	1
102	135	2
147	147	2
156	187	1
34	37	2
167	167	3
94	94	3
84	86	2
62	62	1
116	119	1
2	155	1
148	166	1
188	188	1
40	41	1
113	113	2
93	131	1
3	18	1
148	152	1
67	67	1
2	13	1
14	69	1
160	162	1
30	30	1
64	64	1
163	165	1
1	16	2
183	184	1
102	103	1
85	85	1
4	20	1
120	120	1
158	158	1
39	40	1
167	168	1
8	8	1
78	79	1
19	19	1
187	188	1
18	66	1
155	156	1
30	31	1
71	74	1
197	197	1
35	35	1
141	141	1
