82	137	5
72	72	3
104	104	2
57	57	2
67	67	3
6	7	2
128	128	7
116	116	3
38	38	5
136	144	4
134	158	7
150	150	8
17	19	5
68	68	1
51	51	2
106	106	2
155	157	5
43	43	6
18	18	6
40	46	5
97	118	1
83	84	1
101	101	5
13	14	4
17	18	2
30	31	2
125	144	1
4	70	1
94	96	1
108	108	1
79	80	3
85	86	6
85	116	1
110	110	1
30	30	4
121	121	3
93	93	4
69	72	1
151	151	3
152	152	2
69	70	4
106	107	5
36	36	5
26	26	6
50	51	1
154	158	2
3	3	5
119	119	3
55	55	4
87	116	3
129	129	10
149	149	2
22	30	3
99	99	9
124	124	3
146	147	3
79	109	1
28	39	2
20	20	5
131	131	2
0	50	1
4	67	2
83	117	3
41	42	1
41	41	3
124	137	2
135	156	1
125	125	4
76	149	1
20	21	2
76	76	5
54	71	3
68	69	1
133	143	5
83	83	6
85	117	4
126	126	4
92	92	6
70	70	9
124	146	5
81	127	3
157	157	2
100	100	3
77	101	1
101	102	4
103	106	5
35	35	2
133	133	4
54	54	3
96	118	1
73	74	6
123	145	3
109	111	2
94	94	4
16	16	2
103	103	1
24	24	2
56	71	4
82	82	2
32	32	2
135	135	4
73	73	6
140	140	1
131	151	1
151	153	2
137	137	5
25	25	5
90	120	3
36	48	1
148	148	5
66	66	2
44	44	1
143	143	3
94	95	3
99	100	1
15	22	2
123	123	4
87	90	2
16	22	1
5	72	3
47	47	1
42	42	4
131	152	2
7	8	2
29	29	1
68	70	1
56	56	3
86	91	1
77	79	3
154	154	4
109	130	1
32	36	1
64	64	1
86	90	2
115	115	6
85	145	5
2	52	2
124	147	2
155	155	2
135	139	1
56	70	2
88	88	2
138	138	7
39	39	5
132	135	2
90	90	2
4	63	3
135	142	1
142	142	5
22	22	5
21	21	3
123	124	1
9	9	3
12	12	7
21	22	2
114	115	1
112	112	2
134	134	2
117	118	1
80	121	1
134	152	2
13	16	2
96	96	3
4	4	4
53	54	1
31	31	1
85	85	2
14	67	1
69	69	2
97	99	1
33	35	1
141	141	1
132	132	3
97	97	1
45	54	1
75	75	2
95	95	2
5	61	2
71	71	2
91	91	3
91	119	2
27	27	1
113	114	2
36	49	1
65	65	4
80	80	2
32	49	2
0	2	1
111	112	2
77	80	1
84	116	3
82	148	2
34	34	1
91	120	2
114	124	1
33	33	2
81	82	2
145	145	2
41	45	2
98	98	7
156	156	1
112	126	1
128	148	1
120	120	2
125	126	1
6	6	2
73	149	2
26	27	1
25	65	2
100	149	2
125	143	1
81	117	1
10	11	1
54	55	1
92	119	1
50	67	2
89	89	1
26	28	1
31	35	1
87	87	1
80	85	1
131	153	1
23	23	2
85	146	2
38	39	1
86	86	1
113	113	1
22	23	2
79	79	1
62	63	1
27	28	1
71	72	1
78	102	1
38	40	3
75	148	1
77	77	1
124	125	2
111	116	1
115	116	1
159	159	2
36	38	1
118	120	1
5	5	1
5	64	2
1	1	1
130	151	2
25	66	1
45	45	1
78	79	1
23	47	1
47	55	1
83	129	1
23	25	1
4	14	1
6	15	2
8	11	2
89	120	1
38	42	1
31	49	1
51	52	1
106	150	1
23	49	1
53	71	1
78	114	1
5	71	1
127	127	1
103	108	1
106	108	1
