92	93	5
132	132	20
20	20	18
13	13	16
8	8	8
143	143	10
137	141	5
102	103	2
104	108	2
12	19	6
27	51	3
33	33	20
148	158	4
69	69	23
71	71	21
117	132	2
96	96	16
35	40	1
150	150	17
136	136	17
6	6	7
19	47	2
116	116	10
3	3	26
17	18	5
104	104	17
30	52	2
91	92	9
80	80	22
25	25	11
139	139	18
152	154	3
75	75	23
36	40	8
80	81	8
100	100	21
29	30	6
37	40	3
126	126	22
136	141	3
26	26	21
53	53	15
1	1	17
105	108	1
56	56	2
68	68	19
41	41	17
131	148	1
21	21	22
46	72	2
140	140	33
5	5	18
32	54	3
2	2	21
78	78	9
110	120	4
88	88	22
30	36	3
139	140	7
63	63	10
52	52	23
12	13	3
132	133	9
14	20	4
107	115	2
134	150	1
144	144	11
35	35	13
118	132	1
67	67	24
54	54	13
77	79	2
24	24	34
156	159	4
135	138	3
63	71	1
119	122	3
109	128	4
79	79	15
18	22	1
38	55	2
128	149	2
50	50	20
145	158	7
39	48	4
125	126	5
66	69	1
95	130	3
31	51	1
87	128	4
47	53	5
28	28	25
28	29	4
41	53	2
46	46	19
113	113	7
39	39	16
111	117	9
77	77	22
15	15	23
138	138	33
56	63	1
131	137	1
3	67	1
9	9	39
123	123	15
22	22	19
72	72	11
89	97	3
130	146	5
134	135	3
111	111	21
150	151	5
29	29	12
92	92	15
44	73	2
51	52	12
111	120	1
64	65	3
16	17	7
34	34	17
55	56	5
137	149	1
120	132	3
154	154	9
71	81	3
114	114	24
103	103	31
158	158	9
103	104	3
93	93	13
89	108	4
26	27	5
118	120	6
109	109	13
125	125	31
111	112	9
8	104	1
29	34	1
83	83	16
64	64	11
124	125	10
84	84	27
53	55	5
12	12	9
138	148	3
44	44	16
130	130	23
88	89	5
146	146	20
73	73	23
47	48	2
19	25	3
26	31	2
35	48	4
17	17	28
76	92	3
5	22	6
5	7	4
121	121	18
131	131	12
11	11	12
139	147	5
44	45	8
99	99	35
131	156	2
19	19	8
115	115	8
1	22	2
101	101	13
108	122	5
152	152	13
114	119	2
4	4	25
138	141	6
65	65	24
109	110	6
127	127	29
136	156	6
97	98	5
31	33	1
8	21	1
14	14	23
31	31	25
126	133	2
110	111	7
41	55	2
69	77	5
25	26	6
27	65	3
83	99	1
130	131	2
77	84	3
152	153	6
140	141	6
141	157	5
157	157	18
31	42	1
91	115	3
43	48	3
94	94	17
129	129	27
49	49	14
77	94	3
146	148	1
38	38	26
32	43	3
102	109	1
86	87	6
67	125	2
95	113	4
11	16	7
23	23	11
50	124	2
151	152	7
85	85	8
77	80	5
90	91	7
23	26	2
68	81	1
122	123	3
129	130	3
98	98	15
78	94	2
124	124	15
0	0	9
22	23	8
90	92	1
30	30	12
47	47	21
8	11	3
145	145	14
64	96	2
127	134	2
94	95	6
112	129	4
106	106	17
82	82	11
95	96	13
76	76	2
128	128	24
124	136	2
65	72	3
5	33	1
37	37	25
89	89	19
113	131	5
105	105	32
146	147	12
117	137	5
20	29	3
108	114	2
45	67	3
8	9	7
48	48	29
84	86	5
117	117	29
109	113	2
117	129	2
98	99	7
93	118	2
66	67	6
135	135	7
50	61	1
87	87	12
10	37	1
49	50	10
123	139	2
68	69	3
112	112	10
104	105	2
26	39	1
81	81	21
6	98	5
41	49	1
43	54	1
41	46	2
131	150	1
42	53	1
76	84	1
133	149	3
38	49	4
71	77	3
143	144	1
44	71	1
90	113	2
88	94	4
16	16	10
137	137	15
91	91	19
108	110	2
108	123	4
50	66	1
125	135	1
108	144	5
67	70	4
122	154	3
10	29	4
32	32	13
21	22	14
97	99	2
0	133	1
151	151	6
6	21	7
70	70	13
103	129	4
36	43	2
45	45	18
106	107	4
121	127	5
51	51	11
62	62	3
87	96	4
118	122	10
134	155	3
20	40	4
32	33	6
62	66	3
38	47	3
65	66	3
29	50	3
125	134	5
43	43	14
18	18	27
90	90	11
68	70	8
79	92	3
66	66	7
135	140	1
33	54	2
117	158	1
124	126	4
147	147	11
134	140	1
95	95	14
42	55	4
94	115	3
34	35	8
107	109	7
44	48	1
68	121	1
15	39	4
101	102	2
0	141	3
117	121	1
96	148	2
148	148	21
44	54	4
95	97	2
4	45	4
20	21	5
14	21	1
3	14	2
90	107	1
3	15	2
34	36	2
92	96	1
105	142	3
149	149	5
57	57	6
109	122	4
19	46	4
52	54	4
67	85	2
66	81	1
91	104	1
1	24	3
120	121	3
157	158	8
135	156	4
11	22	1
11	21	1
155	155	16
145	146	4
139	143	1
43	44	2
123	124	4
110	110	19
123	134	1
13	14	11
82	116	3
133	133	15
3	4	4
74	74	2
111	114	2
84	85	6
54	55	3
0	20	2
11	12	4
56	61	4
41	63	2
30	48	2
147	148	3
107	108	4
3	8	4
4	71	2
70	84	2
156	156	6
131	132	4
87	89	1
108	118	3
108	108	14
70	71	13
40	40	14
6	11	3
28	44	2
38	40	1
104	134	2
136	157	2
45	47	2
46	57	5
141	142	9
113	114	4
27	27	18
2	24	2
94	96	1
128	129	4
136	137	2
112	116	2
7	7	13
130	140	2
119	120	5
155	158	1
153	153	5
131	158	3
50	51	5
82	101	6
65	116	3
97	97	8
102	102	14
115	116	4
55	55	9
10	10	14
141	141	6
105	106	4
39	55	4
99	100	9
86	89	2
40	41	4
8	22	2
119	119	4
82	85	6
9	137	1
24	25	10
19	20	8
9	10	6
7	53	5
77	85	1
118	118	11
42	42	18
40	43	3
121	123	3
129	131	4
151	153	2
31	46	1
142	142	5
89	106	2
128	158	1
143	147	2
71	88	5
13	18	2
85	91	3
155	156	9
141	143	1
8	123	3
156	158	5
36	42	1
33	46	2
128	140	4
42	44	3
53	63	2
134	134	20
45	46	1
39	47	2
102	149	2
41	51	4
143	145	2
3	10	3
93	94	7
73	88	1
132	141	2
120	120	7
136	138	4
20	25	2
85	86	6
12	14	3
19	21	4
15	17	3
38	39	12
0	6	1
107	150	3
3	21	3
154	159	2
34	56	2
80	91	7
125	156	1
109	111	4
1	98	2
31	32	5
144	145	2
0	51	1
78	97	6
39	43	5
78	80	4
7	32	1
83	107	2
127	154	5
139	150	2
127	142	2
96	97	2
137	156	2
111	116	4
44	53	2
48	52	1
139	148	4
40	49	2
44	80	1
57	61	1
138	140	3
135	143	1
115	127	2
10	11	4
137	153	4
86	86	10
11	13	1
115	146	3
107	130	2
43	45	3
114	115	2
115	141	2
68	83	1
109	145	1
133	134	1
106	127	2
21	52	2
125	152	1
85	146	1
38	52	5
82	120	1
55	57	2
102	124	4
32	55	4
23	41	1
10	86	1
73	87	2
12	27	2
87	88	1
121	141	3
83	97	3
69	86	1
83	85	2
149	153	1
113	115	2
92	120	4
9	37	1
88	91	3
53	56	2
83	84	1
83	128	1
42	61	1
107	107	13
32	52	1
91	98	4
43	103	1
115	117	2
14	17	3
3	70	1
48	49	1
9	138	1
81	120	1
133	148	2
139	146	2
8	17	2
112	133	4
144	153	1
75	76	1
4	5	1
100	125	1
154	155	10
127	128	6
113	119	1
135	147	1
106	109	1
37	43	4
68	87	1
145	147	3
13	15	2
75	89	1
144	146	1
19	32	5
81	102	2
9	34	2
43	73	1
150	156	1
108	149	3
36	36	8
33	47	2
23	24	2
100	114	4
101	105	1
120	127	4
30	47	2
82	114	1
28	50	2
84	90	3
30	63	2
0	135	2
14	129	1
104	121	1
3	16	1
132	157	2
93	107	3
82	119	1
129	133	2
138	158	1
94	118	2
25	31	1
41	44	1
140	144	1
51	54	1
27	28	3
81	82	2
97	158	1
4	8	1
122	134	2
50	70	2
78	100	1
95	131	2
36	37	2
30	138	2
132	139	1
68	71	1
88	93	1
128	150	4
101	131	2
135	144	2
0	4	1
9	11	2
92	97	1
14	65	2
8	16	2
137	138	5
113	133	5
6	7	3
100	101	3
122	122	4
14	104	1
101	107	2
153	157	1
28	135	1
66	75	1
29	148	2
66	70	2
89	95	3
79	80	1
78	81	1
40	48	4
108	145	1
27	92	1
44	50	1
50	52	3
159	159	2
92	94	4
134	141	2
31	52	1
111	131	1
133	141	1
1	2	1
27	133	1
112	115	2
70	97	1
109	121	2
88	95	3
46	47	3
67	68	1
1	30	2
37	53	2
85	101	1
66	71	3
130	139	2
16	103	2
30	46	3
87	91	2
106	108	1
10	33	1
37	41	5
83	124	1
80	88	1
109	143	2
117	118	3
22	51	2
84	94	1
116	117	3
30	49	1
104	149	2
79	99	4
31	63	2
20	27	1
8	18	2
74	81	2
79	84	1
101	126	2
71	91	2
120	122	1
64	77	2
86	146	1
38	42	10
136	153	2
123	154	2
135	139	1
133	140	1
12	16	2
132	146	1
15	16	5
36	51	3
38	54	1
112	145	2
29	135	5
95	107	1
40	54	5
90	98	3
18	21	1
34	44	3
35	39	2
30	64	2
145	157	1
130	132	2
26	32	1
6	22	2
101	150	1
90	128	3
94	100	1
89	107	1
153	154	3
137	139	1
133	135	1
127	138	1
51	55	1
105	126	1
73	79	1
89	90	5
149	155	1
77	78	3
148	149	2
113	117	1
87	116	2
8	14	2
107	131	2
0	2	1
6	13	3
78	79	2
103	125	1
105	130	3
71	79	2
112	121	2
18	25	1
9	17	1
117	122	2
76	81	3
78	107	5
117	119	1
81	87	1
80	93	1
134	139	2
35	55	4
105	107	2
142	153	1
19	33	2
136	150	1
120	126	1
91	117	5
20	78	4
37	44	1
50	67	3
11	23	2
34	43	2
156	157	1
139	142	1
104	126	2
28	38	1
137	143	1
108	112	1
69	70	3
42	45	1
28	49	1
66	89	1
80	82	1
147	155	1
40	70	2
36	39	2
53	54	1
6	32	1
82	100	1
115	122	4
41	64	1
92	98	1
114	122	2
32	47	2
116	133	2
157	159	2
12	17	2
89	128	1
6	19	1
24	26	1
66	68	1
52	120	1
24	104	2
148	157	2
118	119	3
90	94	1
109	142	2
112	114	1
122	148	1
117	136	1
123	150	1
80	129	2
64	99	1
76	77	1
29	33	2
11	18	1
62	71	2
90	116	2
34	55	1
82	118	2
110	124	1
133	150	1
80	96	4
64	97	2
44	95	2
56	57	1
70	72	1
34	37	2
82	83	1
87	94	1
29	43	3
86	90	1
152	155	3
76	87	1
144	158	2
35	36	1
101	106	1
152	158	1
81	128	2
73	78	1
17	86	1
29	72	1
2	4	1
70	77	2
122	156	1
87	101	1
32	151	1
94	108	1
91	93	1
56	69	1
35	46	1
90	104	2
56	94	1
153	156	1
93	99	2
134	154	1
133	136	2
135	137	1
18	53	1
126	137	1
6	8	1
39	40	1
17	109	1
14	18	4
139	156	1
25	116	1
134	142	2
12	24	3
26	78	1
85	87	3
29	138	2
49	57	1
150	153	1
72	94	1
113	129	1
17	100	1
29	91	1
103	107	2
77	95	1
81	98	1
124	134	1
76	83	1
105	110	1
26	77	1
33	49	1
126	130	1
54	71	1
97	138	1
92	119	1
95	104	1
122	124	2
88	138	1
132	136	1
26	28	1
67	69	1
15	26	1
135	136	1
2	5	1
2	3	1
102	127	1
16	18	1
147	150	1
5	9	1
28	36	1
95	120	1
42	72	1
14	15	1
110	112	1
84	125	1
131	155	1
106	124	1
37	38	1
142	148	1
65	71	1
84	122	1
29	104	1
115	129	1
81	97	1
72	135	1
73	94	1
85	106	1
8	24	2
129	135	1
91	101	1
127	151	1
27	32	1
102	106	3
8	136	1
78	95	1
138	142	1
130	148	1
43	52	1
44	47	1
144	155	1
103	117	1
125	133	1
11	52	1
109	120	1
127	148	1
9	158	1
36	47	1
28	51	1
127	150	1
151	157	1
65	143	1
7	21	1
149	157	1
7	26	1
