0	0	2
53	55	2
55	56	6
73	73	1
36	54	3
136	137	3
135	135	1
48	49	3
47	47	4
99	99	5
60	61	6
116	119	4
93	113	4
91	91	3
36	37	2
53	53	6
62	62	9
102	102	2
29	29	2
138	138	3
89	93	1
10	10	4
100	100	1
92	93	1
80	80	2
26	70	1
125	129	2
101	102	1
62	63	2
68	69	2
9	11	1
144	144	2
66	67	3
59	61	3
77	77	5
1	3	5
117	117	4
107	108	2
52	52	2
21	21	5
136	139	3
94	94	3
63	65	1
112	113	1
110	110	1
120	127	1
66	68	1
126	126	3
141	141	6
117	119	1
71	72	1
98	98	6
119	119	2
1	1	1
95	96	1
106	106	3
20	20	3
62	64	4
10	11	1
118	118	3
132	132	2
33	42	1
123	123	1
113	114	3
38	38	4
0	3	3
146	146	1
39	40	1
39	39	2
96	96	7
37	38	2
98	140	1
33	37	3
118	119	1
101	108	6
28	29	2
30	31	4
49	50	3
89	89	3
95	95	3
50	50	2
109	110	4
55	58	3
9	10	1
61	61	2
25	25	1
81	81	1
17	54	1
25	47	3
87	87	2
88	89	1
9	9	2
67	68	1
9	13	1
23	23	2
72	72	4
6	6	2
66	66	2
49	55	1
63	64	5
22	22	2
103	103	6
115	115	2
97	141	1
58	58	2
102	106	1
19	19	3
23	68	1
30	30	2
96	114	2
75	81	1
124	125	2
100	103	3
17	17	1
17	38	2
121	121	1
18	18	1
51	52	3
20	66	2
40	40	2
5	5	1
111	111	2
97	143	1
18	20	2
65	65	2
43	43	2
16	16	2
129	131	3
124	124	3
28	28	2
109	109	4
125	125	1
70	70	4
90	91	1
68	68	1
137	139	2
113	113	1
37	37	4
76	84	1
85	85	2
100	101	1
3	17	1
116	118	1
124	141	1
134	134	1
55	55	4
92	92	4
22	33	1
49	49	2
82	87	1
35	36	1
103	110	4
22	67	3
50	78	2
96	97	1
78	78	2
131	131	2
64	64	4
71	76	1
54	54	1
79	80	4
124	126	1
85	107	1
2	2	1
48	50	1
101	103	1
102	103	1
49	78	3
125	141	1
59	59	1
76	77	1
25	76	1
120	121	2
142	142	1
105	105	1
8	19	1
116	116	2
80	86	1
69	69	2
108	108	1
14	14	1
41	41	1
97	97	1
102	108	1
93	94	1
128	130	1
119	125	1
27	27	2
23	25	1
117	124	1
128	131	1
36	36	1
131	133	1
23	49	1
48	54	1
33	33	1
