86	89	3
87	88	10
58	58	8
20	28	3
62	63	3
61	61	4
23	23	6
63	65	4
46	47	4
38	39	1
62	62	18
95	99	3
63	63	6
94	94	14
44	44	2
85	85	10
22	22	6
70	71	4
91	95	4
20	22	2
85	86	2
81	85	6
89	93	5
98	98	4
50	50	2
56	56	6
36	36	8
54	54	7
77	77	13
96	97	4
66	72	2
70	70	7
45	45	6
49	50	8
81	81	11
41	41	14
57	57	7
73	73	4
74	75	5
89	89	2
74	74	7
61	84	2
53	53	4
99	99	4
81	82	3
31	33	5
57	89	1
79	80	5
29	30	3
70	75	1
27	29	1
28	28	3
48	48	2
38	40	2
67	68	11
43	44	4
76	77	8
72	72	4
69	86	1
61	62	6
100	100	3
77	78	5
83	83	2
75	78	1
33	33	8
55	55	4
86	86	6
78	78	12
57	60	2
80	80	10
97	99	5
88	88	9
80	81	5
81	97	5
20	25	2
70	76	3
64	85	1
49	51	1
69	71	2
66	66	2
92	93	6
59	59	3
25	25	2
67	67	9
58	60	3
87	87	13
61	64	1
62	65	2
46	46	6
34	41	2
39	39	10
57	58	1
60	60	4
94	95	5
53	56	1
33	37	5
76	76	14
65	65	8
101	101	7
79	81	2
55	92	3
72	73	3
52	52	4
91	94	1
102	102	2
75	75	5
60	61	1
96	100	1
73	84	4
73	78	1
55	90	1
45	49	2
71	71	5
86	88	5
73	74	4
43	43	5
95	96	6
92	92	3
26	26	7
51	55	3
68	84	2
79	79	9
75	79	2
100	101	3
24	24	2
79	84	1
69	72	3
69	73	1
68	68	12
69	70	3
24	53	1
66	67	5
59	61	1
25	30	2
95	95	1
29	29	3
79	101	1
78	80	2
84	84	2
74	76	3
34	35	2
34	44	2
31	31	6
84	87	2
26	33	3
80	101	1
64	65	4
69	69	5
71	74	2
87	90	2
71	78	3
30	31	2
42	43	4
91	93	2
81	83	1
30	30	2
84	85	1
64	66	3
99	101	1
42	42	1
85	87	1
73	86	1
81	86	1
99	100	2
27	27	2
22	29	1
71	73	1
80	82	4
63	64	3
92	95	3
38	38	3
65	68	1
58	76	2
57	59	2
66	68	1
30	33	1
86	87	1
34	34	1
43	47	1
63	77	2
89	90	1
68	69	2
81	84	1
76	78	1
69	84	4
40	86	2
39	40	1
73	79	1
80	85	1
83	84	3
72	74	1
54	56	1
79	86	1
68	71	4
87	99	2
96	98	1
70	74	1
34	37	1
39	43	1
52	54	1
41	44	1
93	94	1
59	60	2
48	49	1
32	44	1
37	39	3
64	67	2
88	90	1
62	76	2
28	52	2
20	20	4
75	81	1
82	82	3
91	98	1
24	27	1
91	91	2
29	33	1
43	63	1
71	96	2
74	78	1
68	78	1
51	52	2
90	90	1
87	89	1
44	46	1
45	50	1
37	38	1
26	30	1
63	76	2
76	81	1
72	86	1
47	51	1
