39	39	4
21	26	4
59	86	4
23	23	4
51	52	2
78	96	2
25	99	2
87	92	3
69	84	4
66	66	4
95	95	5
23	31	2
25	31	4
36	36	1
21	67	4
59	59	6
87	87	8
32	32	5
86	90	3
84	84	4
94	95	2
45	97	1
49	49	12
70	70	11
57	57	5
77	94	3
29	42	3
48	48	7
27	62	4
75	75	5
39	71	2
70	85	1
24	24	2
29	29	4
54	57	5
33	33	7
24	49	3
56	87	2
85	91	3
46	46	7
50	50	7
53	53	6
22	22	2
22	73	3
97	98	4
54	63	6
52	52	5
57	94	4
53	54	2
34	34	6
65	65	8
25	25	11
82	82	5
88	89	3
76	104	3
94	94	12
99	99	1
47	49	3
97	97	2
66	69	2
24	70	1
103	103	9
22	72	2
86	88	2
28	29	3
37	56	4
56	60	5
69	69	6
96	96	7
72	72	3
45	99	2
55	58	4
51	75	2
47	47	4
71	72	4
40	41	3
67	106	3
46	47	3
43	43	2
51	65	5
91	105	3
77	77	1
22	70	4
37	37	4
107	107	1
90	90	6
54	54	3
55	55	3
66	106	2
50	76	2
73	94	4
28	28	3
24	95	3
102	102	6
50	51	4
21	39	2
51	51	7
26	62	2
104	104	3
93	93	8
21	84	2
61	62	3
64	64	3
78	80	3
49	94	2
62	62	2
100	100	8
73	100	3
38	38	8
71	71	2
22	48	1
81	106	3
70	72	4
65	93	3
54	55	2
58	89	1
23	44	4
31	32	1
76	94	3
51	69	4
41	43	1
60	73	4
52	53	2
24	31	4
34	96	3
55	81	3
35	35	2
72	86	3
94	106	1
80	84	1
72	99	4
31	94	1
55	89	1
73	74	1
88	88	2
67	90	1
98	98	1
29	99	6
46	85	1
101	101	4
88	90	1
41	41	1
28	61	2
24	32	1
73	73	4
31	76	2
24	48	1
39	43	1
79	79	1
92	92	6
41	44	5
26	26	3
25	26	1
87	89	1
67	91	1
100	104	2
69	71	2
73	105	3
89	89	1
101	102	2
48	49	1
30	69	2
56	62	2
38	44	2
74	74	4
65	80	1
29	44	1
48	70	1
20	20	6
39	45	1
78	78	1
23	32	2
91	92	2
77	79	1
20	82	1
26	38	1
80	80	2
57	59	3
25	36	1
24	34	2
40	40	2
21	62	1
56	56	1
30	30	1
91	91	1
27	28	1
105	105	2
64	92	1
50	78	1
31	36	2
60	60	1
76	91	1
48	85	1
42	42	1
67	67	1
