151	151	1
121	121	4
135	135	7
21	21	6
101	101	4
65	65	4
38	43	5
132	132	6
1	1	3
149	149	3
93	93	3
21	37	2
19	20	1
124	125	1
43	43	2
90	90	3
10	12	2
13	13	2
155	155	2
2	4	1
121	122	6
69	69	4
155	157	2
38	39	7
76	77	10
22	95	7
137	137	2
26	26	5
68	68	7
52	52	6
82	82	8
91	91	3
13	14	3
148	148	6
21	40	8
23	23	6
97	97	1
135	136	3
6	8	3
104	104	5
3	4	3
98	98	5
110	110	3
22	22	3
30	128	3
31	131	4
95	95	3
122	127	3
147	147	4
31	31	4
120	121	2
111	138	4
4	5	3
145	145	1
109	109	7
116	116	2
132	134	4
85	85	2
115	115	2
80	81	4
131	131	2
76	76	2
123	123	8
17	84	2
66	68	2
104	105	2
79	79	1
127	127	12
81	81	2
16	16	3
69	106	3
152	156	5
15	15	5
5	5	8
88	89	3
127	151	2
152	152	1
79	80	6
61	67	3
92	92	6
105	105	1
157	157	4
77	77	4
42	42	4
50	51	3
125	128	3
103	105	1
50	50	3
44	44	4
99	100	6
64	64	2
10	10	7
45	45	6
138	138	2
49	49	3
100	100	5
116	117	3
125	157	1
77	78	2
17	17	2
144	152	2
18	18	5
151	152	3
87	134	3
71	71	1
80	80	5
126	152	1
70	106	1
44	45	1
17	18	9
45	48	4
11	11	7
97	98	1
94	95	3
70	70	1
11	12	5
146	146	6
118	118	3
142	142	3
100	101	2
0	0	1
129	129	2
92	93	4
79	123	2
126	144	2
47	49	3
64	97	3
22	98	1
122	122	1
25	27	1
144	150	3
24	101	1
65	69	1
88	90	3
134	137	2
52	54	3
15	88	1
51	51	3
27	27	1
15	16	2
28	29	2
78	123	2
94	116	1
39	39	2
5	6	3
65	71	1
6	6	1
124	124	7
24	24	1
84	84	3
2	2	4
77	123	2
31	56	1
94	94	4
99	99	2
66	67	1
16	17	2
40	40	2
126	126	2
139	139	3
143	143	2
130	131	3
73	73	2
96	96	1
158	158	1
90	121	2
19	19	1
26	28	2
145	147	2
106	106	1
14	39	1
110	111	1
103	103	1
156	158	1
22	24	2
141	142	1
111	112	1
140	140	1
83	83	1
47	47	1
23	39	1
