147	147	5
16	16	16
93	93	7
99	99	6
27	27	7
13	13	9
85	85	15
44	45	9
95	95	6
33	33	8
120	120	10
29	29	17
77	78	3
11	12	3
12	13	2
30	74	1
80	81	1
18	18	6
62	62	5
121	122	5
133	133	8
113	113	12
137	139	1
117	117	16
100	100	3
74	74	7
24	24	15
106	107	8
42	42	8
143	143	3
84	135	1
106	106	14
71	71	20
122	123	5
152	152	11
94	95	10
127	127	5
40	128	3
33	56	2
110	110	7
153	153	13
111	111	7
18	19	9
67	68	2
66	66	4
17	17	16
76	78	1
80	80	5
15	108	1
21	21	11
77	77	7
141	141	6
70	70	8
144	145	15
80	88	5
41	41	14
3	3	3
51	51	7
83	131	2
137	137	17
20	21	1
47	47	27
118	129	3
4	5	6
128	128	11
137	138	7
53	53	9
26	26	10
49	49	1
116	154	1
3	5	4
151	151	9
84	84	10
129	129	13
110	148	2
29	72	1
83	83	6
76	77	6
13	103	4
54	54	6
85	113	2
84	85	3
105	105	7
104	104	6
130	130	9
127	139	2
102	106	1
119	137	1
72	72	2
135	135	19
15	15	5
54	55	3
19	109	2
107	107	6
40	95	8
32	32	9
10	10	4
98	142	1
109	110	2
134	134	3
78	78	4
102	102	4
85	135	2
86	86	8
134	154	1
130	131	6
4	6	7
85	87	1
130	138	4
94	94	7
114	114	14
139	139	12
109	109	14
35	35	11
93	94	12
107	112	4
44	44	6
43	46	2
121	121	8
102	113	2
20	20	4
139	140	3
132	132	18
16	17	3
146	148	4
75	76	2
145	145	10
34	35	5
22	26	1
138	140	1
4	9	1
17	127	4
31	43	3
68	68	8
97	98	10
147	148	2
98	98	17
144	146	1
64	64	2
55	57	2
16	63	2
6	7	5
96	96	12
124	124	4
121	130	1
39	39	12
57	57	7
12	105	1
23	23	14
95	96	3
82	93	2
101	102	7
102	103	1
108	146	5
19	19	7
144	144	8
65	121	5
82	82	2
148	148	8
85	86	2
40	40	2
37	39	2
136	137	5
32	35	5
23	84	1
44	92	2
125	125	5
37	38	4
17	46	1
29	30	4
148	151	2
69	69	6
119	119	3
26	58	1
122	122	6
138	142	5
109	148	2
44	98	2
113	140	2
62	63	3
126	127	10
36	37	1
138	138	8
149	152	2
81	81	6
7	7	3
121	123	4
9	9	7
56	57	1
150	152	2
41	51	4
74	75	2
139	143	3
118	118	7
92	141	2
33	35	2
12	12	6
22	22	9
46	46	5
126	126	3
62	65	1
13	14	3
85	132	4
14	14	7
17	71	3
6	6	7
146	146	2
38	39	6
97	97	5
80	87	4
27	79	6
36	36	10
15	63	1
65	65	7
19	20	6
103	132	3
20	64	4
143	145	3
131	133	1
17	19	4
23	27	1
31	55	1
11	11	5
87	108	1
91	92	1
124	125	1
112	112	11
54	68	3
22	23	2
63	63	1
106	113	2
84	109	3
103	123	1
131	132	6
5	5	3
79	85	2
139	141	4
73	128	2
82	83	1
108	108	8
103	104	1
154	154	2
45	45	9
123	123	1
50	50	7
16	88	3
116	117	4
72	77	1
21	22	2
4	4	3
73	73	3
46	47	4
75	75	4
141	142	2
125	126	3
35	36	1
116	116	2
20	88	2
30	63	2
115	116	6
2	2	1
153	154	1
28	28	9
112	113	3
13	104	5
26	107	2
92	97	4
24	80	1
15	16	2
143	144	5
10	11	1
23	25	1
8	8	2
5	23	1
107	108	1
5	6	2
67	67	3
44	103	4
142	143	1
31	46	1
22	25	1
131	131	8
32	62	1
83	84	4
152	153	2
40	44	4
141	143	1
27	28	2
20	105	1
34	34	3
28	30	3
81	87	1
84	110	1
6	22	1
43	43	6
32	33	1
79	80	3
101	101	1
31	31	5
84	86	2
136	144	4
28	31	3
47	48	1
95	107	3
118	119	1
87	131	1
24	71	2
99	148	1
40	50	1
79	79	3
40	57	4
95	98	1
10	54	1
32	37	1
150	150	6
88	89	1
65	67	1
37	37	2
105	107	1
142	142	4
18	138	1
42	50	1
22	120	1
129	130	3
48	49	1
50	52	3
14	15	1
109	118	2
62	64	1
9	11	1
76	76	2
10	21	1
22	107	2
39	95	1
119	141	1
147	149	1
72	73	2
103	103	3
105	124	2
149	149	4
119	147	1
96	97	1
28	29	4
126	128	2
25	25	4
48	48	1
33	34	4
142	144	1
119	120	1
25	40	2
41	97	1
11	68	2
78	79	1
8	11	2
38	38	1
15	21	2
138	139	3
42	43	1
92	93	2
64	65	2
49	50	1
128	129	4
63	65	1
27	47	1
81	85	1
132	133	1
46	71	3
86	137	1
3	6	1
32	34	1
100	114	2
18	124	1
100	102	2
15	29	1
64	68	1
127	130	2
128	130	1
17	126	2
5	7	1
33	37	1
8	9	1
63	64	1
20	67	2
52	52	1
135	136	1
30	30	2
120	121	1
55	55	1
7	22	1
23	26	1
80	85	1
40	41	1
94	152	1
53	54	1
41	42	1
12	63	1
15	62	2
43	44	1
