150	150	5
92	92	8
146	146	3
96	97	3
45	45	4
85	85	8
4	4	6
36	37	2
177	177	5
99	121	1
240	240	3
117	117	16
86	87	3
170	170	5
243	243	1
61	62	4
165	165	9
37	37	3
91	91	8
52	53	8
93	93	8
175	175	16
179	179	2
20	20	9
120	145	1
7	22	6
246	246	4
220	220	2
86	86	5
26	26	7
41	42	2
1	1	5
26	44	1
174	174	3
152	182	2
203	203	10
238	238	8
61	61	6
20	35	4
192	192	8
79	79	10
147	147	5
190	190	4
31	31	8
38	39	5
203	205	3
152	152	2
0	2	1
29	29	6
97	97	2
117	175	1
160	160	3
84	84	9
196	219	2
219	219	2
230	231	5
32	32	8
106	106	3
83	83	3
84	85	10
2	2	4
5	5	4
8	22	3
38	38	10
23	25	3
54	54	3
166	166	4
229	229	2
112	112	2
44	44	11
33	33	13
185	186	12
231	246	2
102	102	3
204	204	6
104	104	6
19	19	7
199	199	17
171	171	5
201	202	9
183	183	9
17	17	2
169	169	6
50	51	2
145	168	1
187	187	4
215	215	7
55	55	1
70	70	9
210	210	12
61	72	6
69	111	4
167	167	9
107	107	8
103	108	4
207	207	17
178	178	2
150	171	2
65	65	9
233	233	4
39	39	2
29	30	6
211	212	3
145	145	2
15	15	5
105	108	2
56	57	1
238	244	3
205	206	2
209	209	5
64	65	1
63	63	12
159	166	4
101	101	3
47	47	6
9	9	9
28	28	3
35	35	3
154	154	4
6	6	1
157	158	3
111	111	8
50	94	2
224	224	5
43	43	6
44	45	6
81	82	2
214	214	5
36	36	7
173	174	3
87	87	3
14	26	1
184	184	1
90	90	6
11	11	2
228	228	8
47	58	2
166	167	3
231	231	6
221	221	3
174	236	6
155	155	4
41	41	4
22	22	7
108	108	4
205	205	4
100	120	1
227	227	3
59	60	2
30	30	3
71	71	4
226	226	5
151	151	10
229	230	5
211	211	5
60	61	2
80	80	2
23	23	14
81	81	3
242	242	2
52	54	2
169	197	4
46	46	2
40	40	11
110	110	4
57	82	2
57	59	3
222	222	2
225	225	7
197	197	4
237	237	2
190	191	1
162	162	5
68	68	7
88	89	3
208	209	2
23	82	2
71	109	1
245	245	13
209	224	3
180	180	4
172	172	5
156	158	3
87	88	3
16	16	5
187	190	4
210	216	1
48	115	2
95	95	2
2	112	2
229	231	3
156	156	6
207	236	3
76	78	2
14	15	1
56	94	3
181	181	8
56	56	2
163	164	10
27	27	8
228	229	3
42	42	5
78	78	7
233	234	4
214	217	2
37	111	1
217	217	4
188	189	3
52	52	6
53	53	2
27	54	2
243	244	5
158	187	1
21	21	7
234	234	10
51	55	1
12	96	1
109	114	1
153	153	4
182	198	2
227	228	1
17	28	2
41	90	2
215	216	1
241	247	3
161	161	6
16	41	1
208	221	3
230	230	5
10	10	2
98	98	2
196	247	3
51	51	12
67	67	1
149	149	2
49	50	2
24	89	2
213	221	3
2	3	2
29	33	1
173	235	1
116	116	5
224	228	1
76	77	4
194	194	5
173	173	6
176	176	1
177	233	2
216	216	3
94	243	2
111	114	1
51	52	6
22	37	2
218	218	6
24	25	6
68	111	1
220	223	2
193	193	1
112	228	2
73	73	3
235	235	2
115	115	1
48	48	3
202	202	8
74	75	6
212	212	3
45	46	1
84	212	2
156	157	3
30	34	1
182	182	1
11	88	1
155	190	3
37	38	1
32	33	2
144	206	1
120	120	6
120	144	2
66	67	2
77	77	6
157	157	3
193	222	2
165	221	5
88	88	6
221	225	5
241	241	6
30	31	2
167	222	2
89	90	2
162	242	1
26	51	3
170	196	1
164	169	1
232	232	1
152	179	3
55	58	1
42	43	1
213	213	5
19	20	1
26	43	1
118	118	3
109	115	1
7	8	1
44	46	4
170	184	2
18	33	1
163	163	2
209	225	1
62	62	3
24	24	2
64	64	4
144	145	2
216	217	2
119	120	1
28	84	1
156	171	1
236	236	6
215	240	1
64	66	1
49	77	2
188	188	2
144	144	1
28	36	2
239	239	3
191	191	1
194	237	1
12	12	3
76	76	2
89	89	2
154	155	5
239	243	1
217	247	2
117	153	3
206	206	1
153	182	2
174	235	2
114	114	3
58	58	1
144	176	3
155	192	4
40	41	1
26	36	1
158	166	1
41	89	1
91	92	1
72	72	3
189	189	1
162	165	2
27	66	1
224	229	3
26	89	1
105	105	2
224	225	1
161	193	3
25	46	2
183	184	1
244	244	2
15	16	1
82	82	1
208	223	2
96	96	2
148	148	1
112	113	2
26	37	1
75	75	2
7	9	1
9	95	2
25	25	2
248	248	2
8	8	2
106	108	2
14	30	1
149	150	1
24	26	2
162	163	1
5	58	1
201	201	2
169	170	2
113	113	2
182	184	1
75	76	2
65	66	2
200	200	3
231	232	1
59	108	1
234	235	1
247	247	1
4	5	2
213	215	3
61	95	1
210	211	2
62	95	1
115	119	1
59	59	2
100	104	1
50	50	2
218	219	1
240	241	2
172	229	2
222	223	1
195	195	1
234	239	1
100	100	1
199	200	2
183	190	1
119	119	1
196	196	1
93	226	1
159	160	1
82	83	1
13	14	2
108	116	1
69	70	1
241	242	1
7	7	1
236	237	1
92	227	1
84	89	1
69	69	1
186	186	1
70	73	1
43	46	1
70	111	1
26	42	1
111	227	1
18	34	1
