13	14	1
23	23	10
82	82	3
135	135	10
24	24	5
43	43	14
33	35	2
153	154	7
161	161	15
114	116	2
117	128	5
90	90	19
139	141	3
117	138	1
47	47	3
16	18	4
90	91	3
127	159	1
105	153	1
41	45	2
150	151	6
69	69	7
77	77	5
68	68	3
86	118	3
98	98	5
100	100	9
147	147	4
127	127	13
46	46	3
18	18	10
151	157	7
135	140	3
33	33	7
152	152	5
162	162	17
124	124	2
8	19	4
52	52	11
21	24	1
163	163	9
95	98	6
167	168	9
40	40	4
25	66	4
76	76	6
64	65	7
88	88	7
139	140	8
103	104	4
33	41	6
112	149	4
157	167	1
47	48	2
76	80	4
98	99	4
166	166	12
117	117	18
158	158	4
55	55	2
164	164	2
149	154	9
148	148	16
19	25	5
134	154	2
64	64	10
6	45	2
152	153	3
141	144	3
14	28	3
92	148	2
22	22	9
137	137	12
28	28	13
48	49	3
115	116	5
158	169	4
79	80	1
89	89	8
138	138	13
49	49	11
168	169	5
22	23	3
1	2	4
90	125	1
129	129	3
1	49	4
138	170	3
78	118	2
141	155	4
4	4	15
166	167	3
114	114	4
54	54	8
13	16	3
98	165	4
133	133	5
110	110	6
13	108	4
87	89	2
105	106	5
101	101	1
37	37	7
44	46	2
0	6	1
169	169	8
75	75	8
132	132	13
120	120	13
5	5	10
43	44	3
160	160	5
58	62	6
125	126	1
113	116	2
111	144	2
1	21	4
97	97	8
139	139	8
76	77	1
149	149	8
13	13	7
141	154	3
85	86	4
25	25	10
45	45	5
121	121	2
128	162	3
141	141	7
84	90	2
13	22	3
150	155	2
170	170	2
74	74	6
64	69	5
106	107	1
27	139	1
79	118	4
126	128	5
145	145	12
14	14	4
142	142	7
57	57	6
79	86	2
128	129	6
130	130	7
72	72	6
124	160	5
92	92	7
81	83	3
41	41	9
27	27	6
20	21	3
92	113	2
133	134	4
168	168	7
118	118	4
10	10	5
99	99	13
36	36	9
91	91	7
123	123	10
143	143	9
51	82	1
49	50	3
15	15	9
132	141	2
9	65	2
81	81	5
70	70	7
0	4	2
137	145	3
93	94	5
80	80	7
17	18	4
67	67	8
125	128	4
34	34	20
120	121	4
45	51	3
7	25	3
12	23	1
100	101	6
16	17	4
169	170	5
2	2	7
46	53	2
140	142	2
132	135	2
124	136	3
106	109	4
154	154	4
58	112	4
38	38	10
107	107	2
66	67	2
53	53	7
86	94	3
100	130	4
78	78	2
65	65	2
39	39	8
76	86	3
115	161	1
134	147	6
125	125	4
130	131	6
95	95	4
84	119	1
12	12	6
37	38	3
141	142	2
155	155	4
66	66	2
96	96	5
55	62	3
151	151	17
20	20	2
111	111	4
52	56	3
6	15	2
108	108	13
88	89	4
113	113	5
98	140	2
123	124	4
159	159	3
116	129	2
76	119	1
5	6	4
7	7	4
150	150	3
87	123	1
71	86	1
122	122	3
3	3	2
27	49	5
164	165	1
112	146	3
130	133	1
10	11	5
42	42	5
93	147	1
125	167	1
148	152	3
19	19	3
100	152	2
143	144	2
126	169	3
71	72	1
77	86	4
35	35	9
14	15	6
50	51	3
105	105	9
131	131	1
102	110	1
103	103	1
96	97	2
16	19	2
58	58	2
52	149	2
107	135	2
98	146	2
123	154	3
51	51	1
128	128	6
2	3	4
158	170	2
102	102	4
153	153	3
165	165	3
72	82	2
148	149	1
94	111	4
144	145	4
76	85	4
69	70	1
144	144	5
90	115	1
8	8	15
80	86	3
6	28	2
15	16	3
101	132	3
137	138	4
27	28	2
134	134	4
90	123	1
107	108	1
36	138	4
100	140	2
139	168	3
55	92	5
78	96	3
157	159	1
131	147	3
8	39	2
56	57	2
139	143	3
106	106	3
46	50	2
46	48	3
94	100	6
146	165	2
78	123	1
9	64	2
113	145	2
112	112	2
103	107	1
116	116	5
136	136	6
38	40	1
24	47	1
50	50	4
136	137	1
134	135	1
80	83	3
18	19	2
138	168	2
109	131	1
7	8	3
81	118	5
79	79	5
101	107	1
167	167	4
101	105	1
8	50	1
39	47	2
44	78	1
23	112	1
157	157	5
47	52	1
70	150	2
92	93	2
34	110	1
63	112	1
133	136	1
146	146	4
44	69	2
147	161	2
41	42	1
1	1	2
140	140	1
55	114	2
3	13	2
85	85	3
97	118	3
124	164	7
94	101	4
54	150	3
56	92	2
90	92	3
112	114	3
113	143	2
19	20	1
4	6	2
23	114	1
118	122	2
134	139	2
165	166	4
85	120	1
79	87	1
108	110	2
97	98	4
71	71	1
125	161	1
13	17	1
115	153	2
166	170	4
0	11	1
121	136	1
146	169	1
70	71	2
55	94	2
36	40	2
7	10	1
45	159	2
115	120	1
6	12	1
43	45	3
74	75	1
55	63	3
25	54	3
71	107	1
78	79	2
25	68	2
119	122	2
158	159	2
83	83	5
111	132	1
55	58	1
45	56	3
68	70	2
166	168	4
64	68	1
0	0	3
121	143	2
38	44	1
57	91	1
5	8	2
128	145	2
124	131	1
26	26	5
52	69	1
144	150	1
87	87	2
93	154	2
8	65	2
87	116	1
3	40	1
84	118	2
36	42	1
62	62	4
112	145	1
125	162	2
93	114	1
10	38	4
6	14	1
86	87	1
93	96	1
156	156	5
140	154	1
82	122	2
128	161	1
84	149	1
116	130	1
11	11	4
101	102	1
74	80	1
165	167	2
102	134	1
76	82	1
94	95	1
135	137	2
14	16	2
90	95	2
45	78	1
41	43	2
11	12	1
71	76	1
94	96	1
48	111	1
17	17	5
3	9	1
19	49	2
119	124	1
48	48	2
89	108	1
119	141	1
2	12	4
94	94	3
115	123	1
40	41	1
38	41	1
163	165	1
150	152	1
6	6	3
26	56	1
93	93	3
79	81	2
129	158	1
84	123	1
8	9	1
125	129	1
126	148	1
36	37	3
149	150	1
152	155	3
20	22	1
106	116	1
90	117	1
69	79	1
53	55	1
74	76	1
33	34	2
39	40	3
113	152	1
58	133	1
120	163	1
138	140	4
63	87	1
5	13	1
136	145	1
139	166	1
6	7	1
149	152	1
125	154	1
25	44	1
13	110	1
23	132	1
85	118	1
124	125	1
117	143	1
35	158	1
77	80	1
77	78	1
25	26	1
