98	99	2
51	51	5
159	191	2
27	27	13
223	223	11
30	73	4
219	219	10
47	47	15
74	74	11
3	3	4
197	198	5
187	187	5
34	63	4
78	79	3
71	71	11
224	230	1
82	209	1
83	206	1
4	4	7
129	130	5
211	211	16
12	15	8
203	203	14
183	183	10
222	222	11
66	67	12
119	119	3
195	195	22
138	139	3
21	23	13
32	32	2
115	115	5
62	62	6
1	1	8
239	239	8
132	133	3
25	25	10
193	194	6
6	6	14
49	49	12
144	146	1
10	10	15
175	232	7
111	111	7
215	224	4
141	141	24
56	57	8
19	19	15
45	45	23
140	140	3
42	42	20
225	226	14
5	5	12
193	193	19
21	22	11
73	73	10
2	70	7
242	242	15
216	216	21
104	126	1
233	235	6
146	146	14
70	70	11
177	177	7
118	118	12
99	120	3
181	182	5
181	181	12
113	113	8
67	67	9
14	14	16
52	52	5
12	12	10
224	224	12
221	222	5
153	153	11
221	221	19
182	182	11
61	61	9
82	82	12
161	171	3
185	185	8
50	50	10
147	147	10
106	106	12
202	204	2
59	59	14
34	34	8
158	158	25
84	84	9
149	149	15
161	161	8
116	116	12
205	205	16
14	15	11
124	124	12
122	122	11
37	38	7
174	174	22
52	218	3
9	9	21
57	57	7
216	238	1
234	235	3
108	108	15
226	226	17
139	139	10
47	61	4
124	125	4
48	49	7
235	236	4
33	70	4
131	131	7
75	75	15
150	150	12
56	56	13
43	43	14
135	135	19
154	155	3
236	236	14
3	4	4
228	228	12
108	109	2
97	97	9
6	7	1
44	44	7
46	46	4
31	31	14
166	183	1
238	239	9
53	53	5
121	121	13
101	101	4
71	72	10
227	227	15
8	8	13
162	162	3
2	2	13
241	241	15
198	206	2
82	210	3
204	206	7
103	127	2
70	79	2
233	234	2
102	102	4
107	107	8
233	233	9
123	128	2
173	173	13
21	21	10
182	185	6
174	235	2
136	136	20
36	36	7
194	194	13
210	211	4
157	219	2
212	212	12
142	145	1
134	134	9
167	167	19
231	242	3
13	14	5
86	86	12
190	191	1
221	237	3
17	17	15
143	200	3
238	238	6
240	240	8
60	63	3
18	19	7
180	185	4
52	215	3
214	218	3
225	230	2
218	218	13
216	220	8
232	241	5
202	202	10
154	154	10
81	82	3
198	199	8
26	26	12
38	38	10
177	228	2
200	201	6
31	32	3
64	64	6
157	234	2
101	102	2
199	199	5
214	214	7
30	30	12
36	37	2
58	58	12
120	121	6
42	67	3
60	61	8
159	227	2
109	110	3
70	85	2
143	145	4
105	105	26
139	142	1
32	86	2
48	48	9
100	115	1
145	145	12
51	52	6
186	186	13
137	137	3
165	193	5
28	28	10
49	67	6
225	225	12
196	196	6
77	80	3
3	22	2
10	11	4
133	133	12
231	232	6
171	171	31
151	202	4
1	80	8
237	237	15
25	26	3
128	128	11
126	126	10
29	29	3
231	231	14
82	83	3
206	206	9
137	153	2
2	3	7
11	11	12
63	63	8
12	78	4
41	41	1
189	189	4
52	53	4
18	20	4
160	160	18
105	106	3
12	41	3
201	202	4
141	142	9
8	17	3
214	219	2
172	174	5
124	127	6
204	204	6
152	152	2
16	16	9
166	170	1
125	130	4
88	88	17
80	80	9
11	12	11
55	55	7
214	230	2
83	83	8
37	37	7
192	192	11
175	175	6
146	147	3
99	99	7
143	143	7
169	169	8
144	144	3
228	230	4
86	139	1
131	157	9
165	168	6
176	176	12
45	46	8
216	237	3
72	72	15
117	117	5
161	203	3
72	74	6
190	190	17
139	141	2
192	198	1
185	186	8
237	238	1
49	50	3
178	178	8
73	148	2
154	213	8
104	104	11
12	77	2
83	85	1
33	35	3
235	235	14
190	194	2
20	23	6
127	127	4
157	157	8
153	155	4
0	80	1
223	225	1
194	195	6
209	209	3
37	75	1
176	229	6
104	108	2
211	212	6
158	213	1
227	228	5
163	163	21
7	19	1
58	63	4
226	227	1
79	79	7
143	146	4
165	165	4
11	16	6
156	156	7
215	215	16
1	79	4
151	151	8
230	230	15
22	22	6
180	180	4
230	231	3
63	69	1
65	65	7
144	147	8
180	183	3
28	29	4
85	85	12
213	214	1
189	190	1
125	125	3
178	186	5
174	175	3
240	241	4
213	219	2
177	227	1
144	145	2
74	75	10
198	198	10
206	207	7
168	168	3
220	220	7
34	40	5
36	76	5
87	88	2
46	47	2
191	191	8
142	142	6
8	9	3
183	187	3
197	197	16
118	127	6
166	166	6
145	147	5
114	114	7
170	170	10
122	123	7
33	33	11
166	193	4
109	109	9
34	35	4
164	164	10
59	95	1
50	51	5
101	103	3
217	218	2
202	203	1
81	81	9
64	65	2
118	124	3
5	22	2
17	20	4
232	232	2
24	24	9
69	70	4
216	217	7
106	107	4
155	170	5
173	174	8
114	115	3
155	160	2
83	205	1
162	168	1
229	229	17
155	156	3
15	15	9
95	95	5
59	60	4
158	212	2
86	88	5
192	197	5
207	207	9
172	172	6
187	190	4
172	173	3
79	80	5
198	205	3
177	178	5
213	218	4
86	136	1
34	62	3
196	197	2
204	205	2
218	219	4
111	112	3
112	116	1
123	123	4
12	42	2
40	41	1
66	66	9
184	185	7
134	137	1
95	101	2
220	237	6
114	117	1
119	128	8
209	211	1
27	28	7
179	179	4
117	118	1
153	208	1
219	220	7
78	78	4
44	45	6
100	118	1
0	1	8
98	115	1
7	38	4
9	16	1
178	187	2
104	127	1
97	106	1
103	104	1
9	17	3
207	208	6
68	80	2
192	194	1
166	169	7
23	23	7
213	213	2
58	62	4
179	183	1
39	40	3
97	98	3
22	23	3
188	188	12
164	165	7
185	188	2
135	138	2
86	138	3
194	196	1
69	82	2
29	149	1
22	84	2
118	119	2
8	10	3
31	73	1
179	180	10
20	20	6
128	134	2
201	201	2
65	67	1
221	223	4
19	20	1
40	40	6
102	118	3
54	82	3
229	230	2
224	236	1
35	35	6
30	31	1
131	133	1
165	167	1
81	210	2
141	205	2
128	135	2
149	150	1
57	58	4
186	187	2
48	128	2
123	124	4
85	208	1
129	129	3
205	206	10
13	15	2
38	75	1
16	17	3
200	200	4
214	215	4
201	203	3
48	62	1
97	103	5
169	179	2
136	138	2
208	208	9
228	229	3
9	10	5
98	98	3
7	7	4
208	210	2
217	217	9
100	103	2
139	206	4
198	203	2
34	77	6
110	110	5
140	143	2
234	236	1
34	70	3
33	36	2
23	73	5
67	68	3
110	116	1
59	61	2
73	74	1
234	234	4
69	69	6
62	64	3
165	192	3
140	147	1
3	21	1
61	100	2
12	40	2
48	53	2
5	76	2
145	146	3
62	63	5
141	148	2
190	211	2
209	210	5
222	237	1
54	54	5
184	184	3
109	117	1
68	69	3
15	42	4
100	117	2
85	86	5
210	213	6
148	148	5
167	171	3
214	217	1
83	84	2
169	170	3
155	155	2
77	79	4
190	205	3
35	76	1
154	156	2
24	25	2
55	56	2
55	83	1
40	45	3
161	163	2
220	223	3
158	211	1
4	7	1
104	105	1
169	181	2
159	160	5
74	88	4
222	223	7
190	212	4
33	34	3
148	149	3
163	204	4
171	172	3
125	126	5
140	141	4
153	154	2
229	231	3
130	130	2
179	186	1
168	204	3
100	128	3
188	191	2
112	122	1
199	200	8
140	142	4
31	137	2
210	210	8
162	192	2
70	80	1
169	202	1
120	120	7
57	59	2
156	233	1
154	159	1
178	227	1
91	91	1
111	123	1
219	235	2
153	207	2
178	180	1
221	230	1
105	107	3
201	205	3
215	216	1
114	120	1
156	165	2
187	188	3
232	234	2
34	78	1
70	218	2
232	233	1
103	103	1
100	100	1
0	0	1
3	84	1
76	76	1
101	118	3
1	70	2
26	27	1
8	12	1
20	75	1
72	73	1
139	140	1
77	77	2
58	61	2
40	46	1
133	134	2
155	157	1
135	136	3
163	167	2
35	36	2
156	240	1
159	159	1
161	165	4
146	148	3
167	168	2
36	45	3
2	84	1
76	78	1
35	78	1
61	62	1
53	54	3
96	96	4
32	114	1
134	135	1
162	203	2
175	176	1
18	18	1
29	73	1
198	200	2
175	177	1
20	21	1
222	238	1
102	103	2
61	101	2
54	83	1
192	193	2
49	68	1
223	224	2
4	6	1
118	136	1
41	66	2
140	206	1
39	46	1
216	224	1
17	18	1
15	39	1
154	210	1
97	107	1
160	233	1
81	85	1
17	19	1
153	191	1
120	136	1
85	140	1
148	152	1
61	64	1
239	241	1
96	97	1
39	39	1
112	112	1
161	162	2
74	87	1
7	17	1
24	73	1
216	219	1
40	42	1
176	177	2
108	116	1
2	6	1
65	66	1
29	150	1
