27	38	5
33	35	8
22	23	2
32	116	3
8	9	4
9	9	2
33	36	2
43	118	7
94	97	2
20	20	9
12	12	3
59	59	3
3	3	1
31	31	5
74	127	1
110	111	3
17	17	3
99	144	1
84	85	7
116	116	6
95	95	3
124	124	8
99	143	1
76	76	13
28	28	1
52	53	1
103	103	7
77	77	3
54	54	7
92	93	2
32	32	3
11	11	3
72	110	4
1	2	2
83	83	5
8	8	2
75	75	5
77	78	2
23	23	3
132	136	1
77	79	2
99	99	2
127	127	11
69	70	15
141	141	7
24	25	2
63	63	5
64	66	4
62	62	3
137	138	4
80	80	3
108	109	4
0	1	4
34	34	2
74	75	2
107	107	1
119	121	1
17	18	2
135	136	3
69	69	4
80	81	1
24	53	2
26	27	2
1	4	2
92	94	3
101	101	7
85	85	9
39	39	12
46	47	4
14	15	2
96	99	1
4	4	4
61	61	2
96	134	6
125	125	6
109	110	2
41	41	5
95	141	3
57	127	1
71	72	4
138	138	3
97	97	8
140	140	4
143	143	3
48	123	1
49	50	2
10	11	2
90	90	7
88	90	2
91	94	1
42	42	2
123	123	2
105	105	2
123	127	1
87	87	5
72	80	1
96	96	2
110	110	5
142	142	8
98	98	5
80	109	2
106	106	3
98	143	2
9	12	5
27	27	2
47	47	1
112	112	9
50	50	3
100	100	1
59	60	2
52	52	1
73	133	1
123	124	1
132	132	4
0	0	2
43	43	5
28	29	3
79	107	5
119	119	3
46	138	1
48	97	1
121	121	3
122	122	4
43	136	5
57	125	2
65	66	2
130	130	1
88	88	2
118	118	2
101	103	2
55	56	2
49	127	2
140	141	4
24	41	3
66	66	2
124	125	1
19	37	1
20	21	1
90	91	1
2	2	2
89	89	4
40	40	2
23	116	2
15	15	4
29	29	4
108	108	3
36	36	2
12	13	3
0	35	4
29	30	1
61	124	1
22	22	1
36	37	1
131	131	4
10	10	3
134	134	4
123	128	3
73	139	1
134	140	1
55	55	2
19	19	2
102	102	5
113	113	3
23	32	1
71	108	4
118	119	2
76	77	1
38	38	2
82	82	1
137	137	4
25	25	2
81	81	3
79	79	1
89	90	1
114	114	2
16	16	4
29	41	1
128	129	1
21	21	1
51	52	2
68	68	1
141	142	1
117	117	2
67	97	1
57	57	2
13	13	1
67	67	1
43	111	1
42	116	2
78	78	1
136	136	1
21	22	4
133	133	1
126	129	1
23	24	1
24	54	1
91	91	1
78	79	1
50	56	1
47	124	1
58	58	1
144	144	1
39	40	1
93	95	2
72	72	1
142	143	1
113	119	1
31	32	1
115	115	1
26	26	1
56	57	1
74	74	1
67	68	1
70	70	1
70	76	1
42	118	1
22	61	1
48	48	1
23	41	1
121	122	1
92	92	1
