41	48	2
56	56	35
19	19	31
36	36	10
0	0	28
55	55	24
64	64	36
29	29	27
32	33	7
27	39	3
32	54	3
9	10	10
32	34	4
47	48	4
27	27	43
64	65	11
40	40	40
34	35	12
67	70	7
32	32	23
2	3	15
78	79	9
28	37	3
22	22	2
10	10	29
38	57	2
30	31	8
66	66	25
4	4	26
6	6	24
69	69	20
79	79	27
49	49	21
2	2	36
77	77	8
0	3	8
45	45	23
28	39	5
17	17	34
52	52	30
62	65	5
57	58	6
28	28	33
68	70	6
80	81	6
4	7	3
56	57	11
8	70	8
1	1	36
21	21	12
74	74	39
72	72	15
26	26	30
47	47	26
57	60	3
47	66	3
63	63	23
44	55	7
15	15	31
73	73	22
42	42	26
60	60	16
29	30	9
70	70	32
34	34	27
8	8	32
37	37	19
78	78	22
1	2	18
48	49	1
54	67	3
48	71	4
58	58	22
48	54	2
46	46	28
20	30	6
67	67	33
18	18	8
40	41	15
63	67	2
30	30	34
5	5	18
19	57	10
11	12	11
50	50	16
67	68	1
71	71	16
54	54	47
80	80	27
75	75	18
41	41	34
35	35	20
51	51	20
40	42	4
65	65	28
59	59	47
11	11	12
12	13	2
7	7	35
57	57	31
33	33	37
72	73	4
66	67	15
10	12	4
46	71	2
71	72	13
3	3	33
53	53	31
60	61	2
14	15	2
7	12	5
5	7	4
48	48	18
25	25	25
40	65	2
61	61	25
37	73	4
40	58	1
62	62	15
71	73	1
10	11	5
14	14	9
39	74	4
34	78	3
20	29	2
17	18	4
12	50	7
33	38	2
6	8	1
62	71	6
43	43	13
26	39	8
56	71	2
26	40	3
38	38	36
68	69	5
41	47	4
81	81	3
10	15	2
10	21	7
8	77	2
48	70	6
73	74	8
7	53	2
8	78	1
9	9	19
4	26	2
62	63	5
7	64	6
39	39	23
36	57	4
11	70	1
71	81	2
57	61	2
42	46	1
33	34	7
8	26	1
38	39	11
8	68	2
15	31	3
31	31	25
3	4	7
0	6	2
76	80	2
67	71	5
2	42	3
12	12	18
9	32	2
58	59	9
13	14	4
6	7	4
27	28	6
76	76	27
75	76	6
13	13	16
49	52	9
42	43	5
16	17	4
64	66	2
54	55	2
0	2	1
61	62	6
35	36	6
8	52	2
46	56	2
1	6	1
11	69	2
30	47	2
74	78	4
21	44	5
4	65	2
41	75	1
47	62	3
0	1	3
76	77	7
27	55	5
9	13	7
48	76	4
74	75	3
20	20	5
26	49	2
2	79	3
20	21	9
63	64	6
4	5	1
12	25	1
25	53	4
58	72	1
40	47	1
59	60	4
53	54	4
11	50	1
9	12	2
77	78	7
16	16	17
32	50	1
41	59	2
6	51	4
12	49	5
65	66	3
21	31	4
19	64	1
5	6	8
26	46	1
25	48	2
67	69	4
55	56	3
35	46	3
52	69	3
44	45	2
37	39	2
49	78	1
8	49	1
28	29	1
66	73	1
6	12	1
43	57	4
73	76	1
29	46	1
36	59	2
66	70	3
50	54	1
29	62	2
12	15	1
34	46	1
1	74	1
77	79	2
49	50	8
8	9	2
35	78	5
8	11	2
62	66	1
38	46	2
73	77	2
2	19	2
14	21	3
11	68	2
1	5	1
32	38	2
63	71	1
68	68	10
51	52	2
5	65	2
47	56	3
41	42	1
47	72	1
59	61	2
50	51	2
26	27	2
45	46	1
10	25	1
31	54	2
63	70	1
79	80	3
6	30	3
64	70	2
40	48	3
39	40	2
13	15	2
48	72	2
50	53	4
21	70	1
27	48	1
31	50	2
50	71	1
59	72	2
18	19	3
72	79	2
29	65	2
47	78	1
50	52	3
32	36	1
31	70	1
37	38	1
25	63	1
72	78	3
47	67	1
69	70	5
48	75	1
29	36	1
17	56	1
31	67	1
19	20	2
11	32	3
27	29	1
8	31	1
8	20	1
14	69	1
41	74	1
4	8	1
28	54	1
17	55	2
28	78	1
36	37	1
15	19	1
39	49	1
12	31	1
70	71	2
46	75	2
25	26	2
61	63	1
2	4	1
11	26	1
8	32	1
7	8	1
52	53	1
7	31	1
0	5	1
9	68	1
48	79	1
8	16	1
53	55	1
2	5	1
7	51	1
34	55	1
9	11	1
38	58	1
