109	109	12
124	131	2
61	124	8
168	171	5
11	12	9
162	168	4
144	144	10
84	84	9
61	61	3
116	116	20
60	60	6
101	102	7
34	34	6
36	36	19
132	132	15
77	77	22
13	13	19
156	157	7
74	76	2
1	1	6
78	84	2
183	183	16
14	14	18
13	14	7
79	79	11
135	135	9
125	125	9
26	26	12
73	73	5
88	88	16
143	144	5
101	103	3
113	113	12
101	101	9
57	62	5
170	170	13
35	35	5
157	158	10
123	124	4
2	152	4
143	143	10
90	92	10
96	100	5
133	135	4
158	158	4
62	62	13
116	118	9
41	41	13
32	43	4
132	134	1
32	33	5
167	169	2
83	83	8
162	162	7
110	111	8
173	178	4
119	120	7
173	173	5
95	95	18
154	154	9
23	33	3
80	81	2
2	2	4
109	110	7
56	60	4
7	8	5
71	72	12
16	16	13
164	164	10
102	102	3
44	44	12
177	177	10
73	108	3
140	140	20
12	13	17
12	12	12
35	37	5
110	114	7
4	13	3
11	11	10
32	47	2
184	186	7
48	48	7
112	113	7
140	143	11
108	108	24
130	130	8
28	28	8
127	127	5
105	107	7
13	26	4
17	17	13
62	63	9
25	26	11
76	76	8
166	167	8
107	107	14
120	120	5
81	81	7
12	14	3
22	22	7
37	37	8
0	0	6
84	89	3
136	139	8
148	148	11
78	78	3
139	139	9
79	140	3
177	181	1
105	105	9
181	181	17
108	109	6
118	118	10
87	88	3
92	92	6
2	154	3
119	136	5
105	106	2
117	118	7
153	154	5
133	136	4
112	114	12
131	131	10
133	134	7
169	173	3
92	93	5
47	47	16
12	183	3
104	104	7
74	79	1
182	184	4
43	43	23
125	134	4
57	59	3
137	139	14
16	20	4
20	20	6
147	181	7
129	130	4
128	128	6
152	152	8
130	131	13
150	152	6
89	90	1
73	75	6
188	189	5
85	150	2
138	138	11
59	63	6
17	19	3
97	97	8
47	48	7
91	91	3
139	143	4
21	21	9
90	91	3
149	153	5
190	190	21
25	28	2
5	5	13
35	36	4
142	143	11
187	190	2
127	128	2
171	171	6
66	67	2
141	141	11
21	22	3
178	178	7
154	155	4
158	159	2
60	63	3
65	65	8
159	165	2
150	150	8
74	74	12
161	173	2
23	27	1
1	183	1
145	145	2
172	173	10
122	122	15
152	153	7
121	123	6
38	38	5
72	75	2
54	54	6
139	142	1
21	23	9
186	188	4
87	87	6
100	100	9
120	136	4
175	175	8
68	90	2
160	161	4
106	106	16
179	179	1
18	19	9
165	166	2
19	19	7
126	128	5
80	80	10
155	155	10
26	42	1
139	173	2
25	25	16
100	101	2
142	142	8
184	184	8
17	18	5
60	87	1
133	137	3
108	113	4
178	180	5
7	7	4
173	174	3
86	86	12
53	53	6
62	64	4
35	42	1
22	58	2
103	105	2
99	99	26
168	176	3
29	47	3
18	42	3
71	103	1
22	56	3
176	176	9
174	174	10
58	65	6
151	152	1
165	165	13
90	94	1
91	92	3
120	137	2
166	166	11
153	153	8
122	125	12
164	165	5
74	75	2
45	45	11
124	124	9
56	56	7
147	152	2
58	59	6
155	156	7
147	147	2
63	63	9
26	41	5
134	135	6
163	165	3
30	31	6
10	10	5
158	161	2
79	80	4
72	72	8
23	24	4
181	189	1
121	140	3
149	149	16
94	94	4
97	98	13
14	18	2
141	143	5
77	79	2
117	117	9
93	94	5
180	189	2
141	144	3
115	116	6
3	3	4
27	27	8
11	13	18
89	92	3
148	149	1
91	93	4
46	46	11
87	89	3
177	178	8
159	162	3
57	61	4
97	101	3
179	181	3
8	12	1
167	167	9
27	31	6
58	61	2
10	12	4
129	129	8
99	100	2
68	68	7
90	93	2
163	163	13
61	65	3
28	34	5
72	108	3
57	57	15
114	115	3
159	161	4
119	119	5
32	32	7
9	11	1
151	151	9
180	180	7
188	188	11
35	47	4
175	177	8
103	103	11
52	52	3
96	99	1
179	180	4
134	134	5
118	122	3
19	20	6
146	147	2
30	30	4
154	156	3
123	157	1
21	46	1
82	83	1
98	99	2
72	74	3
131	133	3
123	127	4
175	182	7
110	110	19
4	4	4
137	138	2
39	39	7
29	29	9
10	11	4
85	88	1
4	15	3
35	40	2
73	74	4
136	137	12
81	82	6
158	160	3
67	68	9
11	14	2
64	65	2
122	123	9
133	133	10
4	6	4
33	33	11
16	27	1
79	85	2
127	129	3
159	159	8
150	151	2
163	164	4
159	160	8
32	38	1
150	154	2
55	55	6
170	171	5
1	2	1
55	56	5
113	116	1
134	137	4
24	25	6
136	136	4
0	4	3
23	23	4
139	141	5
78	82	4
148	152	1
67	67	11
156	156	19
102	104	3
160	160	8
114	114	6
18	27	5
129	132	1
179	189	4
14	20	5
68	70	2
93	95	5
150	153	4
3	5	1
185	185	16
76	111	1
81	87	1
98	98	8
84	92	4
90	90	5
182	182	6
31	37	1
77	78	4
37	38	4
29	31	3
43	44	2
6	10	4
163	177	1
67	90	2
52	53	4
91	94	2
146	146	10
75	77	7
46	48	1
78	79	9
30	35	1
166	169	5
187	189	4
175	183	2
40	40	4
57	58	2
164	166	6
183	185	3
37	40	1
172	176	3
125	157	4
180	181	3
165	167	1
3	6	1
30	33	6
109	111	1
31	31	5
169	170	4
53	54	1
113	114	5
112	112	4
157	157	6
40	45	1
102	106	1
27	41	1
126	136	1
162	163	1
181	182	6
89	93	2
167	168	5
68	89	3
108	112	2
33	35	4
59	60	4
28	41	3
71	91	5
18	149	4
17	26	3
153	156	2
115	117	7
18	20	2
62	68	2
189	190	3
142	154	1
71	71	4
82	82	2
44	45	2
40	42	3
128	136	1
38	41	4
42	47	1
161	163	2
66	66	4
22	25	5
20	26	1
189	189	8
161	161	3
171	177	2
18	23	4
126	126	6
8	8	1
103	104	9
121	121	6
76	88	3
84	85	1
53	57	1
36	37	4
144	145	2
175	180	1
144	146	2
118	119	3
67	69	2
21	24	5
116	117	2
83	139	1
39	41	1
60	61	1
2	3	7
182	183	1
176	178	4
163	167	4
77	151	3
7	10	3
95	98	3
16	17	2
16	26	3
110	113	6
132	133	4
65	68	3
28	31	3
42	42	11
114	116	2
28	55	2
116	132	2
137	137	4
140	142	3
27	29	3
168	169	3
174	176	1
97	99	3
76	77	1
185	186	2
122	140	2
77	85	2
15	16	5
31	32	1
131	132	1
118	120	1
59	65	1
126	127	2
122	137	2
0	2	4
33	34	4
74	78	2
96	97	1
33	36	1
67	72	1
181	184	4
14	15	4
149	150	1
168	168	3
36	38	1
15	15	1
6	7	1
138	141	4
135	137	4
72	73	2
86	87	2
85	86	1
83	86	1
180	182	3
136	138	1
169	169	4
31	33	2
123	168	2
6	14	1
18	21	3
58	58	2
111	112	4
65	91	1
78	85	1
70	91	2
186	187	1
5	8	2
171	172	1
32	37	2
146	151	2
138	142	1
75	79	2
64	68	1
171	173	2
174	178	1
63	64	1
174	184	3
177	180	2
169	171	2
116	120	2
69	69	1
93	93	1
26	29	3
156	160	2
85	85	3
56	59	1
28	29	3
106	107	2
36	39	2
94	98	1
109	112	2
96	96	3
169	178	1
105	108	1
123	123	4
173	175	2
56	57	1
83	87	1
139	140	2
6	6	3
117	120	1
96	98	1
141	142	2
145	148	1
143	145	2
121	139	1
98	100	1
45	46	2
4	181	1
9	13	1
8	184	1
110	115	1
95	96	1
32	34	3
65	66	3
41	45	1
186	186	2
28	56	1
70	70	1
25	29	1
33	47	2
30	47	2
29	30	3
94	95	2
176	177	2
79	113	1
37	47	1
6	9	1
109	114	2
178	181	1
83	89	3
107	108	1
78	81	1
18	18	1
30	34	2
70	100	1
127	130	2
35	39	3
71	74	2
159	167	2
19	43	2
8	10	2
172	174	2
115	115	2
155	157	2
44	46	3
18	24	2
37	48	1
179	187	1
71	73	1
14	16	1
120	135	1
37	39	2
63	67	2
57	60	2
59	59	2
20	21	1
124	169	1
111	113	2
53	55	1
34	35	2
89	89	3
2	12	2
82	84	1
126	129	3
184	188	1
55	61	1
163	173	1
108	111	1
61	64	2
118	134	2
116	119	3
46	47	1
70	71	1
93	98	1
122	124	1
42	44	1
180	185	1
15	22	1
113	117	1
5	182	1
173	176	2
111	111	1
164	167	1
71	90	1
56	61	1
100	102	1
9	9	1
158	169	1
160	162	1
19	24	2
187	188	1
0	1	1
92	95	1
170	172	1
145	147	1
164	168	1
72	89	1
100	105	1
54	55	1
179	185	1
45	47	1
38	39	1
