109	123	8
82	82	7
133	133	10
99	99	11
9	9	11
135	135	2
16	16	16
20	20	11
107	125	4
74	74	6
43	43	13
113	113	2
67	68	1
130	130	10
126	127	2
29	30	1
63	63	10
23	23	2
76	76	19
44	44	6
66	69	5
33	33	9
123	123	7
52	52	6
6	6	2
127	127	6
75	75	9
87	87	17
108	108	10
105	125	3
126	126	5
11	11	9
70	70	13
35	89	2
62	62	5
117	117	13
107	130	5
29	29	8
55	55	4
120	125	4
102	103	3
122	122	3
5	13	2
112	116	3
70	72	3
57	57	6
125	132	1
103	103	9
106	106	9
18	18	5
37	48	1
34	85	3
11	13	4
6	8	4
33	99	2
129	129	11
14	24	3
27	28	1
49	128	1
5	6	5
117	128	1
119	120	1
49	49	2
89	89	2
96	121	3
50	50	12
65	65	6
84	85	10
22	90	1
33	88	3
131	131	2
61	68	2
68	69	5
5	5	11
62	63	6
59	59	4
84	84	7
15	15	4
24	79	5
12	12	13
107	107	3
82	86	2
50	129	4
112	112	2
119	127	1
33	95	7
53	53	3
92	92	6
80	80	5
91	128	4
107	110	3
28	28	14
95	99	4
7	9	1
73	73	8
30	85	1
0	0	2
111	111	4
77	77	3
47	47	4
20	52	3
43	44	3
78	78	1
99	100	8
104	104	16
4	7	5
19	21	2
58	58	2
82	84	9
3	3	7
107	133	2
34	34	13
90	90	6
127	134	1
25	29	3
94	94	4
93	93	6
98	98	6
65	91	4
26	28	2
31	31	4
85	85	6
134	134	8
37	37	5
118	118	4
13	13	7
28	91	1
79	79	2
107	132	1
65	68	7
66	66	13
101	101	7
36	76	1
34	78	4
102	102	2
45	45	7
60	60	6
54	129	5
58	80	1
6	14	4
113	130	4
34	79	2
10	11	3
22	24	3
38	38	2
83	84	1
21	75	2
24	31	1
109	109	6
63	123	2
3	26	8
90	103	1
88	88	7
63	88	2
93	94	2
66	67	1
61	66	3
110	110	3
106	107	7
115	115	2
44	48	2
11	22	3
62	65	2
86	86	8
92	127	1
119	119	5
53	128	2
120	120	5
17	20	4
36	36	5
43	77	3
30	42	4
115	116	13
15	21	2
61	62	2
122	124	1
25	26	2
44	45	3
2	2	2
56	56	2
26	108	2
26	111	2
32	84	1
22	91	2
113	115	3
32	88	1
78	84	1
9	11	2
84	86	1
81	81	2
16	17	3
30	33	2
2	25	2
128	128	4
49	50	6
96	101	2
15	16	4
100	100	3
12	13	2
75	76	1
3	4	3
56	57	6
105	121	1
90	98	2
61	73	2
32	32	4
128	129	1
130	133	1
112	133	2
110	118	2
64	64	8
54	85	1
96	120	4
7	15	1
33	77	2
89	98	3
19	48	1
130	132	1
108	109	2
4	13	2
65	92	3
80	88	2
5	14	1
32	116	5
33	34	2
35	76	3
113	117	1
122	123	2
35	35	4
91	91	3
34	77	1
76	118	2
7	7	3
105	105	1
74	109	2
21	21	2
31	83	2
132	132	1
22	22	1
89	90	2
70	74	1
47	106	2
26	29	2
1	1	2
119	121	1
25	110	2
23	46	2
97	99	1
13	25	3
113	116	1
82	93	3
4	4	1
32	33	2
121	121	6
11	12	4
61	61	5
118	129	1
106	110	2
24	24	2
125	133	1
125	125	2
58	70	3
107	113	1
8	11	2
86	87	5
114	114	1
46	46	5
106	108	1
10	10	3
36	37	1
25	87	1
58	69	1
106	132	1
61	67	1
72	72	2
73	105	1
18	94	1
2	37	1
82	83	1
90	104	1
54	55	1
5	7	1
8	9	2
118	121	2
108	110	2
98	99	1
19	49	2
106	131	2
68	68	1
65	90	1
59	80	1
105	109	1
24	78	1
38	45	2
96	96	1
26	26	1
45	48	2
28	92	2
28	102	1
62	95	1
24	80	1
27	111	1
108	123	1
24	25	1
32	34	1
17	90	1
132	133	1
113	132	1
15	36	1
107	120	1
116	116	1
