10	30	3
84	84	8
89	89	5
78	79	7
74	74	3
6	6	5
81	81	5
53	59	4
55	61	2
17	17	6
50	54	2
61	61	4
16	16	4
30	31	4
14	14	6
49	69	1
46	46	6
61	64	4
78	81	3
66	86	1
87	88	1
62	62	7
27	29	3
7	7	9
22	22	5
72	85	3
52	57	2
50	52	1
10	66	5
75	75	1
55	56	10
66	66	2
72	89	3
55	74	3
82	86	2
2	2	4
60	63	2
60	60	1
11	12	5
86	86	4
52	54	1
1	1	13
77	78	5
15	16	1
77	77	8
63	64	2
62	68	1
61	62	2
83	83	7
12	46	1
81	84	2
47	47	4
73	73	2
49	79	3
74	77	2
0	13	2
89	90	4
9	9	5
26	26	5
59	64	5
6	10	3
61	88	4
24	24	9
86	88	5
78	78	4
71	71	3
72	72	3
53	86	3
54	54	7
65	65	1
48	48	7
50	50	14
34	81	5
53	53	3
23	80	1
5	24	1
5	13	1
49	55	2
67	73	1
10	10	7
3	3	6
51	88	3
11	11	5
68	68	5
68	69	2
12	13	6
19	28	1
12	12	4
21	21	4
74	80	2
14	24	4
75	88	1
20	20	4
77	83	6
50	55	3
58	59	5
31	31	5
82	82	2
4	5	7
13	13	9
35	78	1
50	51	1
52	66	2
19	22	2
8	8	7
80	81	1
3	5	1
31	32	3
17	21	1
13	18	1
76	76	2
55	63	2
87	87	6
49	52	2
76	77	4
88	89	2
75	81	1
86	89	2
63	63	1
83	84	3
66	80	2
57	57	2
82	88	4
21	23	3
47	51	1
4	4	6
48	58	1
72	76	2
69	69	1
51	51	3
68	80	1
69	89	2
49	49	3
5	29	1
8	13	2
66	77	2
21	31	1
59	59	5
71	84	2
79	79	4
60	74	2
47	55	2
19	23	3
81	85	2
58	76	1
62	64	1
53	65	1
25	31	1
2	15	1
21	22	4
71	79	1
0	1	3
0	0	3
67	67	3
6	13	2
34	34	1
23	27	1
58	66	1
60	73	2
19	21	1
75	83	3
16	26	3
20	25	2
11	17	3
15	27	1
25	25	5
58	63	2
78	86	1
71	86	3
19	20	1
58	60	1
20	29	1
68	72	1
54	58	2
60	77	1
6	28	2
23	30	1
15	17	3
76	85	1
50	53	1
72	82	1
27	30	1
8	10	2
19	19	1
53	54	2
0	30	1
54	65	2
16	18	1
52	60	2
60	61	1
11	25	1
13	14	1
27	31	1
70	71	3
8	9	1
2	3	1
73	76	2
80	84	2
25	26	1
49	57	1
4	7	1
79	80	1
47	60	2
63	66	4
5	21	2
56	56	1
23	26	1
55	73	1
56	66	1
70	70	2
79	85	1
55	58	1
9	11	1
64	67	2
8	16	1
11	22	1
10	25	2
83	88	1
19	67	1
85	85	1
9	71	1
88	88	1
86	87	1
55	55	1
74	78	1
