102	102	8
71	72	3
7	7	6
109	114	3
10	10	8
136	136	8
11	21	2
129	129	12
3	19	2
118	122	2
88	89	1
38	38	3
12	12	10
134	134	5
4	4	11
33	38	2
85	89	3
36	36	7
87	87	2
96	96	13
123	124	2
18	20	2
17	81	2
131	131	6
89	89	5
93	94	6
8	8	1
2	2	8
22	22	7
0	17	5
21	22	1
83	83	3
135	135	4
120	120	5
87	89	1
17	32	1
3	34	1
94	102	5
78	119	2
25	25	8
35	35	3
24	24	2
0	0	1
74	74	6
20	20	7
134	135	1
115	115	6
20	21	4
116	118	2
99	100	1
3	9	2
98	98	5
128	128	6
111	111	2
131	132	1
117	117	8
26	26	1
95	95	1
106	106	4
140	140	1
138	138	5
6	6	1
73	120	2
110	111	3
101	101	2
108	108	5
94	94	5
32	33	4
109	109	7
1	111	2
3	3	2
100	100	3
116	116	2
123	123	6
101	102	3
78	85	1
88	88	5
90	107	2
9	9	6
81	81	5
124	124	9
6	9	2
119	120	1
16	17	6
39	39	3
1	1	7
19	20	1
35	36	3
94	99	1
94	116	1
130	130	2
16	18	1
72	95	2
71	71	3
7	8	1
5	5	4
31	31	6
117	118	2
110	110	6
5	6	2
99	99	3
30	31	7
12	14	3
19	19	4
105	105	4
125	125	4
37	38	1
112	112	4
37	37	3
115	116	1
73	73	2
107	107	3
114	114	3
72	73	3
14	14	1
81	89	2
94	95	4
78	79	3
137	137	4
79	80	9
81	87	1
75	75	7
33	33	2
114	126	1
16	21	3
75	84	1
30	30	5
80	80	1
34	37	3
100	102	2
126	126	2
94	96	1
101	107	1
0	1	1
104	114	2
1	10	1
15	16	1
118	121	1
34	34	4
11	12	3
83	84	1
104	104	1
109	113	2
129	133	1
86	86	1
79	82	2
91	93	2
95	98	1
113	113	5
16	16	1
114	124	2
17	18	1
83	122	1
13	14	3
77	77	1
12	20	1
27	28	2
14	15	3
36	37	1
14	26	2
90	91	2
85	85	2
97	103	1
139	140	1
17	80	1
89	90	2
3	4	1
113	117	1
117	120	1
91	91	1
132	133	2
120	121	1
27	27	2
13	13	2
17	21	1
103	103	1
76	76	1
93	104	1
80	125	1
129	130	1
86	88	1
97	97	1
34	38	1
