62	102	3
15	16	7
54	54	4
121	122	5
73	74	1
105	105	11
15	17	4
62	62	2
81	81	10
132	133	6
57	57	7
151	151	3
63	63	4
69	69	8
16	16	6
30	30	2
33	58	2
74	102	3
91	94	1
132	132	6
73	73	10
67	67	6
124	124	5
121	121	5
112	112	6
94	98	5
124	128	7
86	86	3
134	136	2
123	123	4
112	113	2
118	118	7
67	68	4
104	104	3
70	71	2
100	100	9
55	55	2
110	110	12
46	47	4
19	24	1
54	55	1
125	125	6
4	4	4
83	84	2
117	118	7
129	129	3
63	65	3
153	153	11
43	43	3
26	26	2
71	71	14
106	135	2
49	49	7
150	150	10
24	24	5
48	48	2
36	36	4
44	44	9
109	110	4
35	35	2
8	8	1
96	99	2
112	114	2
116	116	5
82	82	3
78	78	6
13	13	8
42	44	1
116	124	2
18	18	5
29	29	4
61	61	6
97	150	1
147	147	5
39	40	2
42	43	4
154	154	5
103	150	2
72	72	2
116	147	1
107	107	4
76	76	9
53	54	2
66	67	2
84	84	5
15	15	4
77	80	5
120	120	4
93	93	2
146	146	3
141	141	5
110	144	2
119	122	5
99	100	5
50	50	4
85	86	6
107	147	4
33	39	1
134	134	1
17	18	5
31	32	2
149	150	4
114	114	2
8	11	2
27	27	1
117	133	3
113	113	2
64	65	1
122	122	2
3	3	1
11	13	1
79	79	2
32	32	5
108	109	2
21	21	2
34	34	1
128	150	3
135	135	3
144	144	1
110	143	3
40	40	3
106	106	4
10	13	1
12	12	3
70	70	5
22	22	2
17	17	3
56	92	3
68	71	1
23	51	2
135	136	1
139	139	10
23	23	2
47	47	1
128	128	1
117	117	3
83	83	6
39	39	2
109	109	6
32	36	2
21	50	2
127	128	1
99	99	3
126	150	1
143	143	2
138	138	5
77	77	2
105	106	1
145	146	2
80	80	6
90	90	4
62	66	2
65	65	3
17	19	2
149	149	2
14	14	3
133	133	4
87	106	2
130	131	1
66	66	3
51	96	2
141	147	1
102	103	2
80	81	1
127	127	1
89	90	1
112	129	1
68	137	3
19	38	2
24	25	1
96	107	1
44	45	3
46	46	3
96	97	1
19	19	3
100	102	2
87	87	2
147	148	2
74	78	3
131	132	3
153	154	2
115	117	1
136	145	1
64	64	3
42	42	3
68	78	1
130	150	2
46	94	2
20	27	2
7	7	2
38	38	1
36	150	1
86	154	1
41	152	1
19	28	2
104	105	1
91	91	1
81	83	2
14	20	1
76	77	3
103	103	1
94	94	2
7	27	1
72	76	1
126	126	1
98	98	1
74	122	1
134	135	2
38	42	1
45	151	1
130	130	1
98	107	1
17	22	4
56	56	1
106	142	1
97	98	1
136	136	2
140	140	1
18	28	1
145	145	1
106	109	2
89	149	2
130	152	1
17	23	1
137	137	1
85	85	3
53	53	1
25	25	1
49	55	1
129	130	2
67	139	1
28	28	1
53	153	1
135	154	1
57	88	1
48	49	1
131	131	1
47	70	1
142	142	1
