103	105	1
17	21	1
173	174	4
111	112	1
39	39	8
44	44	4
129	129	13
65	65	13
104	104	13
80	80	13
88	88	6
158	171	4
134	134	18
84	84	3
111	111	3
67	67	5
21	21	13
74	74	5
82	109	2
176	176	9
112	113	1
91	91	7
97	97	27
87	87	18
8	19	3
24	59	5
33	35	3
54	54	19
135	135	7
8	13	5
145	159	3
91	93	2
172	172	6
166	166	17
113	113	5
153	153	12
38	38	19
43	43	9
27	27	4
155	155	5
56	56	21
50	51	2
3	3	5
159	171	1
175	175	7
23	23	11
41	41	11
103	103	5
9	46	2
120	138	6
118	120	6
12	12	4
88	167	3
66	66	10
92	158	3
83	168	2
169	169	5
156	157	4
99	99	2
68	141	4
55	55	11
9	39	1
149	149	20
51	51	13
118	125	2
22	22	16
100	100	5
50	52	7
76	76	13
122	125	7
129	130	6
118	118	9
112	112	12
94	94	4
147	147	5
14	61	6
29	29	9
3	7	4
7	38	2
81	114	7
52	52	11
4	35	3
4	36	1
32	104	3
73	78	4
98	98	10
6	6	10
9	9	10
53	53	4
62	63	4
165	175	6
18	51	4
143	143	5
91	92	6
128	128	4
35	36	3
40	40	6
101	101	16
25	25	6
54	81	3
119	119	8
32	33	7
64	64	14
70	138	2
62	136	4
28	28	10
151	159	3
117	117	7
146	146	14
80	109	2
79	99	1
7	33	5
63	85	2
16	108	7
131	131	11
92	148	9
51	100	2
2	74	1
144	144	9
0	0	7
44	45	1
180	180	5
21	22	3
33	40	1
154	154	5
24	108	3
61	61	3
116	164	1
91	166	2
84	86	4
59	59	10
90	166	5
0	75	1
15	15	5
67	132	2
82	82	7
82	94	4
160	160	11
124	124	10
157	157	17
173	173	11
168	171	2
177	177	1
21	97	5
78	175	2
128	173	1
130	131	4
159	159	9
105	110	4
98	101	1
149	180	3
114	114	4
120	179	5
84	85	2
163	163	7
157	158	3
105	106	5
121	121	6
71	71	11
30	30	9
154	156	5
72	72	5
104	110	3
78	173	2
83	162	1
3	62	4
75	75	7
148	148	5
23	42	7
142	142	8
145	146	8
4	7	6
121	179	2
142	175	3
81	81	8
108	108	7
39	40	5
161	161	17
93	93	7
177	178	8
67	73	5
115	115	4
42	42	3
38	39	6
50	110	6
4	4	7
1	1	3
133	136	3
79	79	8
85	128	3
53	54	3
72	73	3
14	14	9
92	142	2
167	167	11
136	136	6
117	118	1
103	135	1
17	17	4
6	7	4
170	170	5
145	174	2
21	43	5
168	169	1
36	36	15
130	169	2
90	157	3
31	38	3
145	150	4
14	59	3
24	25	2
102	104	6
118	122	5
11	20	4
28	63	1
120	121	6
109	109	4
7	17	6
27	28	6
149	150	2
148	164	3
150	150	13
178	178	14
72	77	8
59	67	5
60	60	2
178	179	2
79	155	2
66	71	2
106	106	11
93	94	3
28	29	1
90	90	4
9	38	1
103	104	1
5	5	5
90	131	4
94	155	1
63	136	1
122	122	6
102	102	8
79	112	1
43	54	2
108	110	3
52	127	2
116	116	4
66	73	1
19	19	8
126	149	2
4	12	2
16	133	6
132	132	18
34	34	7
33	33	6
161	162	2
50	113	2
87	167	2
140	140	6
88	89	4
112	154	1
124	148	1
108	109	1
18	50	2
100	153	1
35	35	4
16	16	7
146	148	1
10	31	2
79	111	1
158	158	4
167	169	2
141	171	3
10	10	13
78	162	7
90	167	2
11	134	6
92	93	8
68	68	9
63	63	9
101	125	1
78	153	1
124	125	1
10	36	4
98	149	3
131	132	1
54	58	1
17	22	2
72	103	4
96	113	1
169	170	8
23	51	2
10	15	4
162	162	6
84	128	2
29	30	2
31	37	3
64	85	2
163	165	4
107	126	1
83	86	1
31	121	1
141	148	3
66	126	2
11	12	2
167	168	3
52	53	7
141	141	10
142	143	4
2	62	3
147	174	2
85	85	5
73	73	9
18	45	3
102	103	1
24	57	1
163	167	3
8	11	3
99	172	2
92	157	5
72	137	2
123	123	6
31	104	3
7	9	2
79	95	1
8	8	3
116	117	6
2	9	5
94	151	1
89	131	5
73	74	1
90	126	2
55	73	2
132	133	2
126	126	3
95	151	4
3	4	1
137	137	8
7	7	2
141	159	2
81	82	4
105	105	2
21	23	2
32	43	4
26	27	1
76	77	5
83	83	2
44	102	4
78	145	4
16	17	5
171	171	8
91	161	1
94	99	1
150	151	4
11	11	5
83	84	3
98	171	3
138	138	5
10	46	1
80	146	2
130	130	3
13	13	7
45	56	2
81	83	2
149	157	2
0	136	1
4	11	1
22	49	3
22	23	1
32	105	2
53	61	2
60	61	3
96	96	2
0	137	2
118	119	3
78	154	4
123	125	2
89	89	7
139	166	3
163	164	1
141	175	4
20	45	1
56	57	2
140	141	2
146	175	1
13	16	1
179	179	4
26	62	2
130	168	1
6	11	4
81	127	2
153	156	1
64	165	1
167	171	1
165	165	5
12	21	1
121	149	1
96	150	1
50	50	1
80	96	2
133	133	6
124	150	1
119	120	3
57	62	1
160	169	3
53	109	1
164	175	1
54	167	2
1	133	1
64	66	5
22	60	1
11	19	1
143	145	4
6	38	2
127	162	1
31	31	9
96	98	1
50	107	1
124	143	5
136	137	1
49	49	1
114	152	3
153	157	2
96	149	1
33	44	2
93	156	4
4	63	3
20	96	2
129	169	1
159	172	1
54	104	2
89	132	2
37	37	4
142	148	1
21	96	3
140	149	3
18	60	2
79	107	1
164	164	6
28	64	3
125	125	1
93	125	1
18	19	3
24	30	4
15	103	2
58	59	1
14	15	1
174	174	4
90	158	4
17	20	2
121	122	3
120	123	1
32	32	2
168	168	3
83	152	2
125	142	3
50	125	1
3	36	2
15	105	1
56	62	2
143	147	2
26	26	6
71	132	1
123	179	1
57	57	6
118	141	1
6	134	2
106	107	6
81	109	3
0	8	1
141	145	1
0	1	3
58	58	5
144	147	1
80	159	1
80	154	2
80	126	1
162	164	1
15	75	1
107	107	3
86	86	1
49	53	1
127	129	3
122	180	1
18	18	1
9	13	1
19	20	2
110	116	1
128	129	3
156	156	1
28	32	4
103	126	1
104	111	1
149	153	1
132	137	2
151	151	4
127	127	3
53	56	1
55	72	2
65	66	1
12	20	1
80	81	2
176	180	1
12	17	3
123	126	2
66	81	1
7	11	1
134	135	1
63	127	1
84	94	1
55	66	1
145	145	1
55	67	2
92	117	1
146	151	1
59	100	1
120	125	1
8	44	1
133	134	2
15	129	2
99	115	1
2	3	1
149	156	2
141	142	2
176	177	1
75	76	1
158	159	1
78	141	1
126	175	1
153	165	1
61	62	2
124	149	2
72	136	1
2	63	1
102	115	1
51	52	1
17	74	1
16	77	1
143	144	1
23	24	1
111	113	3
97	115	1
113	125	1
77	78	1
10	136	1
13	60	2
101	172	1
83	153	2
74	75	2
67	88	1
26	63	1
171	172	3
141	174	1
92	92	2
20	20	3
107	111	1
160	170	1
145	171	2
103	128	1
166	172	1
33	42	1
21	26	1
93	150	1
29	31	1
5	11	1
121	180	1
2	2	1
13	21	1
160	167	1
99	153	1
147	150	1
111	176	1
63	128	1
154	155	1
77	135	1
155	156	1
26	65	1
123	124	1
15	128	1
150	153	1
34	115	1
77	137	1
153	175	1
110	110	1
68	133	1
