110	111	4
62	109	3
132	135	4
111	113	4
19	19	11
83	83	3
16	21	5
98	98	6
94	94	6
18	18	7
71	71	4
153	153	4
2	9	6
125	125	8
112	112	8
34	56	2
35	35	2
69	90	2
44	45	1
30	30	2
21	22	6
79	79	7
154	154	2
40	40	5
28	29	4
5	42	3
132	132	5
103	119	1
2	11	5
46	46	11
121	121	1
144	144	4
68	70	2
73	144	1
125	126	1
47	47	10
158	158	6
26	36	3
103	103	5
118	120	3
3	12	2
126	126	7
99	144	2
17	17	1
82	82	1
11	11	7
115	115	4
142	142	4
152	152	6
49	49	5
96	96	5
111	111	4
14	40	1
20	21	5
69	127	2
137	144	4
140	140	5
66	66	2
127	137	2
85	108	5
73	111	3
155	155	4
48	110	5
67	67	2
7	7	6
90	90	3
40	41	5
68	69	1
36	38	2
129	129	6
83	102	5
66	69	1
69	69	6
146	147	7
18	19	2
137	140	1
113	137	2
92	92	4
106	108	1
69	94	3
81	82	5
50	156	3
12	15	2
15	15	6
122	122	2
15	16	1
127	127	5
72	110	2
151	151	1
12	102	2
10	56	2
82	158	2
24	28	4
95	95	1
106	106	3
8	11	4
36	37	1
127	140	1
138	138	4
20	22	1
33	53	3
80	80	4
82	90	2
154	155	1
44	48	1
109	109	3
23	45	4
91	91	6
53	87	2
143	144	3
30	52	3
42	42	6
93	93	8
135	150	4
12	12	5
113	154	2
2	36	3
41	42	2
54	55	1
14	14	2
34	37	2
36	36	1
136	136	7
82	159	1
145	146	3
27	38	4
39	39	5
95	96	2
62	71	1
35	37	2
30	31	2
152	154	4
145	145	4
18	155	1
146	146	4
141	141	3
68	91	4
115	136	2
71	125	3
51	54	3
14	15	1
90	91	5
145	148	3
99	100	2
110	110	14
28	28	3
25	25	4
37	37	4
97	98	1
73	148	1
17	19	2
108	109	4
64	64	2
31	32	2
64	110	1
104	105	1
106	153	2
81	81	4
70	100	1
75	75	2
88	88	4
117	117	2
55	55	2
24	24	5
33	42	2
126	127	3
31	31	2
46	63	2
123	123	1
126	141	2
45	47	1
57	57	2
68	71	1
115	116	1
50	50	1
131	131	1
13	14	3
130	154	2
112	113	2
12	23	3
89	90	1
68	158	1
11	22	7
14	91	3
133	133	4
19	20	1
29	30	1
29	29	1
113	113	1
43	43	1
133	135	1
103	139	1
100	134	1
20	24	2
99	130	1
12	36	1
136	149	1
106	107	2
119	124	3
63	68	3
148	148	2
129	131	6
89	89	7
114	138	1
153	157	3
109	122	2
121	123	3
31	88	1
2	2	2
17	18	2
104	104	2
121	122	4
7	23	1
8	8	4
107	107	5
72	72	1
2	4	1
132	134	1
109	110	2
34	35	3
102	139	1
33	33	1
115	144	2
22	23	1
78	117	1
84	84	2
157	157	2
3	15	3
15	19	1
56	56	5
149	149	1
135	153	2
141	150	2
115	118	2
40	66	1
67	131	5
34	34	3
49	54	2
9	28	2
24	29	2
37	38	1
66	67	1
69	72	2
52	54	1
106	156	1
56	57	1
122	127	1
86	86	2
78	79	2
87	89	1
29	52	2
50	155	1
9	10	3
94	158	2
108	111	2
45	45	3
114	115	2
137	137	5
16	17	1
102	103	1
128	128	5
136	150	1
90	107	1
9	9	2
12	13	1
116	129	1
147	147	1
114	116	3
139	140	1
111	124	2
135	144	2
80	81	2
68	68	2
8	9	2
117	130	1
1	1	1
48	49	1
77	77	1
132	141	2
20	42	1
123	124	1
23	23	2
54	112	1
54	54	1
139	142	1
47	65	1
131	155	2
21	21	1
8	10	1
77	78	1
115	149	1
78	78	1
85	93	1
52	55	1
26	27	1
116	123	1
73	134	1
135	135	2
52	52	1
108	110	1
130	133	1
32	32	2
129	130	1
36	65	2
1	2	1
86	88	2
25	47	1
65	66	1
118	118	1
0	0	1
105	107	1
20	20	1
20	23	1
32	93	1
46	65	1
14	21	1
92	110	1
53	55	1
98	153	1
