30	30	4
59	59	3
20	20	3
30	31	1
103	103	2
131	155	2
23	23	3
23	24	6
136	157	7
0	1	2
143	143	5
106	106	11
116	116	4
97	97	6
190	190	6
171	175	3
19	28	3
122	148	3
174	174	6
37	37	2
109	117	3
30	32	6
87	87	10
163	174	5
11	11	3
142	142	5
111	111	14
161	175	1
14	15	4
175	175	6
114	115	4
104	116	3
78	94	2
104	121	4
46	61	3
77	77	5
151	151	4
162	162	9
53	70	4
109	136	1
84	85	2
94	94	5
100	103	4
124	146	2
172	181	6
37	41	4
142	185	2
6	34	3
62	62	5
101	101	5
75	76	1
6	6	6
27	28	3
79	114	3
120	120	5
72	90	6
38	41	3
22	22	2
104	104	4
75	75	7
73	74	2
173	173	2
22	23	3
133	133	2
147	147	3
116	160	5
26	26	1
93	121	2
109	140	1
13	13	4
148	171	2
154	161	5
18	40	3
33	34	2
78	114	2
105	107	2
142	160	2
107	108	4
92	92	2
24	24	1
183	187	3
68	68	8
29	30	1
122	144	2
48	48	6
163	163	8
152	152	3
141	141	3
182	182	5
103	110	1
4	4	4
31	43	2
90	90	4
53	53	9
81	91	3
133	135	7
152	153	4
35	35	7
94	95	3
45	45	6
57	73	1
116	139	5
59	66	2
188	188	2
74	96	3
109	120	1
159	159	12
16	28	1
91	91	15
132	132	3
18	18	3
80	100	3
43	66	2
80	99	2
110	110	9
41	48	2
39	41	1
73	112	3
118	118	10
6	7	1
24	41	2
24	25	5
179	179	4
176	177	1
104	105	12
150	159	6
98	117	3
78	78	8
54	54	4
41	41	5
160	175	2
178	178	5
9	21	3
17	20	1
37	44	2
2	2	6
7	64	3
115	115	7
180	180	4
166	166	3
153	155	1
13	27	1
19	19	10
80	81	3
82	82	3
109	114	4
40	40	2
166	167	4
2	3	1
62	78	1
127	127	1
125	125	7
148	148	7
28	32	2
20	21	4
137	138	5
70	93	2
58	58	4
3	4	2
189	189	2
105	122	1
60	61	1
86	102	2
7	7	2
159	185	1
72	99	1
171	172	2
81	81	2
84	100	3
84	84	4
119	119	3
108	108	14
54	55	4
169	189	1
168	171	3
187	187	1
183	183	4
18	41	2
12	23	2
99	99	3
68	81	4
46	46	2
10	17	1
28	28	2
95	96	4
79	79	4
110	115	2
153	154	7
12	12	3
21	24	7
58	59	1
105	106	1
72	72	4
34	34	3
122	122	7
146	158	1
151	176	3
7	18	1
141	146	2
94	117	2
112	112	4
93	95	2
10	10	2
166	168	5
90	93	1
89	89	5
124	124	3
170	170	6
79	104	2
162	174	2
87	108	4
172	172	7
37	40	3
57	57	2
146	146	3
47	67	2
42	42	3
128	128	2
2	16	3
61	61	2
8	8	2
180	181	1
93	94	1
139	140	3
161	161	4
169	169	6
186	187	1
98	98	1
168	170	3
71	72	2
16	16	3
145	145	5
1	1	2
113	113	4
8	9	1
134	134	2
17	17	4
56	56	2
157	157	3
101	102	2
127	140	2
160	170	1
58	84	1
80	115	3
162	190	1
93	93	1
160	160	3
174	175	2
141	160	2
140	141	2
95	95	8
11	37	2
140	140	4
122	123	2
175	188	5
142	184	2
109	109	4
131	131	1
96	117	2
107	115	1
18	43	3
0	0	1
85	85	3
131	156	3
57	84	1
5	21	1
136	136	3
78	79	3
31	31	1
44	44	4
36	47	4
145	149	1
125	126	1
14	14	5
63	63	2
57	61	1
188	189	1
119	147	1
11	15	2
111	113	1
148	165	1
25	42	3
70	91	3
183	186	1
172	189	1
128	131	5
16	42	1
79	103	1
142	162	3
143	146	3
130	130	1
0	20	1
120	144	2
177	177	1
120	149	1
71	80	2
55	56	2
33	44	3
186	189	1
148	155	2
180	190	4
86	129	1
162	176	1
27	38	3
88	88	2
41	61	2
49	49	1
121	121	1
78	103	3
109	110	2
166	169	1
124	141	1
67	80	1
115	142	1
132	133	1
67	68	1
159	178	1
58	62	1
23	47	1
135	136	2
71	93	1
124	138	2
67	67	3
12	14	1
114	114	2
132	145	1
173	175	2
126	126	1
104	123	3
155	155	1
31	47	1
58	60	2
60	60	1
21	22	1
103	136	1
70	72	2
27	31	1
36	41	2
119	120	1
172	174	1
107	123	2
31	44	2
13	43	1
89	121	1
136	139	1
60	85	2
88	108	1
35	36	1
130	131	1
64	67	1
185	185	2
56	84	1
77	108	2
14	170	1
121	148	2
18	37	1
130	147	2
20	37	1
117	117	1
107	107	1
34	68	1
138	156	2
79	82	1
4	5	1
100	139	1
169	171	1
165	165	2
110	111	1
2	6	2
33	33	2
82	92	1
137	139	1
141	185	1
117	118	1
96	96	1
59	60	1
64	65	1
77	101	1
85	87	2
77	104	1
171	171	1
77	78	1
14	189	2
14	31	1
52	93	2
2	12	1
53	54	1
184	184	1
70	71	1
15	43	1
73	73	1
40	41	1
5	5	1
164	164	1
27	27	1
91	97	1
147	167	1
55	93	1
