104	104	9
45	46	2
43	43	4
70	70	6
86	87	2
62	67	2
76	79	1
4	4	3
108	108	7
67	67	2
15	15	7
60	75	2
12	12	2
3	3	5
57	57	5
90	90	4
59	109	2
84	86	1
93	93	8
90	108	1
68	70	1
110	117	1
16	21	2
24	25	5
54	54	1
79	79	5
42	47	2
24	24	4
46	46	8
106	106	4
7	12	4
26	30	2
85	86	1
16	17	2
126	127	7
109	109	3
115	115	2
73	73	4
59	59	5
47	47	5
78	78	14
22	22	8
124	124	9
130	130	3
10	11	10
112	112	3
129	129	1
50	50	1
14	14	6
96	96	1
79	101	2
16	26	2
67	70	1
76	77	1
65	67	3
53	53	4
3	8	10
48	69	3
107	107	1
12	62	2
6	6	1
119	124	4
79	80	1
59	72	2
106	116	3
100	100	4
1	20	3
19	49	2
69	69	6
68	68	9
52	52	5
29	29	3
2	2	4
99	99	3
5	55	4
82	83	2
117	125	3
63	64	4
23	24	4
27	28	4
25	26	3
18	18	6
125	127	1
45	55	1
128	130	1
28	28	4
27	53	1
71	71	3
22	24	2
106	107	1
66	66	5
132	132	1
56	56	2
67	71	1
9	10	5
60	61	2
72	108	1
8	16	1
82	82	2
110	126	1
41	41	1
5	5	4
112	113	2
17	20	1
4	15	2
127	131	2
83	83	2
49	49	7
63	65	2
94	94	2
7	32	3
85	85	3
91	93	2
17	17	1
16	16	1
7	9	1
67	68	2
61	99	2
114	118	1
101	101	4
77	77	3
70	73	1
17	30	1
118	118	2
100	107	2
12	57	2
94	95	1
109	131	2
100	106	1
25	25	2
95	95	4
40	40	3
30	31	1
117	118	4
102	103	2
98	100	3
103	125	2
114	114	3
101	131	2
66	110	1
92	99	2
105	106	2
116	116	1
122	122	4
62	72	2
72	93	2
19	19	2
92	92	3
88	95	3
89	90	1
26	31	1
129	130	3
111	111	1
99	111	1
51	51	1
59	75	2
5	21	1
46	66	1
128	132	2
91	100	1
121	121	3
44	44	2
34	34	1
44	45	1
128	131	1
103	103	1
105	116	2
18	19	2
111	112	1
61	77	2
11	11	1
87	99	1
80	80	1
104	105	1
104	132	1
79	81	1
48	70	1
9	11	1
125	126	1
88	88	1
87	106	1
111	113	1
38	58	1
127	128	1
27	49	1
32	32	1
33	34	1
