68	69	4
62	62	7
84	84	11
32	32	3
76	77	8
57	57	3
86	91	2
57	93	3
55	55	7
107	107	5
45	45	3
46	61	1
35	36	9
100	100	5
92	92	10
100	113	7
86	87	4
73	73	8
107	111	6
27	60	4
90	102	3
43	44	3
88	91	8
41	41	10
34	36	3
89	110	4
34	34	10
40	40	7
99	115	1
71	72	8
87	109	2
46	91	10
40	79	2
30	30	1
35	48	3
103	103	9
63	63	12
97	97	10
68	68	8
20	48	3
106	106	3
111	111	3
29	47	4
100	101	4
41	86	3
39	39	4
24	24	8
20	38	3
58	76	7
64	64	2
31	72	3
93	93	1
37	37	10
98	98	12
25	25	8
76	76	4
110	110	8
27	73	2
75	110	7
85	91	1
96	96	5
52	54	2
49	50	1
101	112	3
105	105	2
23	38	1
31	31	7
83	83	7
60	72	6
77	77	7
33	35	6
45	103	2
101	101	3
91	108	3
63	65	3
32	52	1
27	27	2
102	102	6
75	75	4
94	95	3
95	95	4
35	35	2
60	62	2
30	31	6
48	48	5
58	75	4
95	98	3
78	78	2
114	114	9
53	53	1
43	43	5
65	68	2
100	102	3
28	32	2
27	67	1
29	30	2
64	82	1
73	110	1
32	48	5
94	96	3
31	32	1
90	91	1
39	47	3
41	77	4
76	110	1
85	109	3
102	113	3
50	50	3
26	26	2
58	58	2
107	112	1
93	98	3
82	82	4
58	59	2
74	75	1
71	71	7
64	65	1
47	47	4
46	46	5
85	85	3
66	66	1
101	102	2
33	37	1
109	109	2
50	58	2
65	65	3
26	72	2
98	100	2
91	102	1
20	20	3
55	70	1
87	87	6
81	85	2
96	97	6
67	67	3
45	70	2
81	104	1
31	54	2
22	22	5
49	49	4
112	112	2
56	56	2
73	74	1
95	96	3
88	88	2
40	81	1
30	43	1
46	90	2
23	55	1
29	29	2
44	45	2
39	42	1
87	91	2
43	97	1
77	80	3
52	52	2
58	60	1
81	81	1
46	47	1
66	67	1
70	73	1
29	59	2
49	51	1
33	33	4
88	89	1
65	108	1
59	59	3
88	111	1
74	74	2
45	79	1
110	111	1
90	113	1
26	27	1
44	109	4
36	36	1
79	79	2
23	25	3
64	103	3
29	68	2
78	79	1
58	97	1
64	66	1
59	93	3
32	33	2
25	62	1
27	58	1
38	48	2
58	109	3
23	23	2
31	50	1
94	98	1
65	85	3
91	109	2
39	67	1
34	35	1
76	103	1
47	88	2
31	73	1
106	112	1
64	86	1
107	109	2
60	61	1
88	112	1
87	105	1
62	89	1
65	99	1
