85	85	22
86	88	4
32	32	25
102	102	29
46	46	22
44	45	23
40	40	22
47	48	17
66	66	16
96	96	28
50	51	16
88	89	13
60	72	7
28	30	7
23	24	8
74	74	26
104	104	19
92	92	34
50	50	19
92	93	11
44	44	25
94	95	10
32	39	10
73	73	38
21	100	6
38	38	15
23	44	1
97	97	39
42	81	1
32	64	6
101	101	22
29	29	16
23	23	44
46	71	2
29	99	1
95	95	27
99	99	31
101	107	1
68	70	8
57	57	49
89	90	23
45	45	22
87	91	5
39	90	3
40	41	22
80	80	17
95	96	12
26	27	11
42	43	4
26	26	17
99	100	8
68	69	18
53	53	31
27	27	30
98	98	27
64	64	25
20	20	29
51	51	39
70	70	15
56	58	4
77	77	26
30	30	19
63	63	34
37	88	8
91	93	4
55	56	17
25	25	18
93	94	9
71	72	4
88	88	31
37	38	9
39	39	34
42	44	6
43	43	26
35	35	53
31	31	28
78	78	28
87	87	36
85	102	3
33	33	30
32	81	4
58	58	22
105	105	30
74	75	16
53	54	13
45	51	1
76	77	18
72	73	16
51	76	3
103	103	35
61	61	21
41	82	3
22	24	1
46	54	7
60	60	22
55	57	7
86	86	43
49	49	17
91	91	33
21	23	4
85	86	8
61	82	4
76	76	22
82	82	37
55	55	21
23	50	2
34	34	28
102	103	15
55	58	6
83	83	15
65	67	3
80	81	8
24	24	13
93	96	1
64	65	9
21	22	13
33	34	29
86	87	13
24	103	2
65	65	42
78	79	2
82	90	1
100	100	26
52	52	24
56	56	54
98	99	11
79	79	14
75	75	27
19	19	4
67	67	17
61	63	5
56	91	5
81	81	30
79	81	4
37	37	33
93	93	24
61	62	15
84	85	16
41	42	6
27	72	3
87	88	5
103	104	8
21	89	4
36	69	1
54	54	43
64	104	3
57	58	7
60	73	3
42	42	25
67	68	14
66	104	3
27	28	13
24	39	5
69	69	39
34	36	2
106	106	11
80	98	7
64	76	4
36	90	4
96	97	6
21	52	6
36	36	21
28	72	3
56	103	1
60	83	4
59	80	5
66	67	5
101	105	1
39	40	7
20	21	4
22	22	23
51	57	1
47	47	9
31	32	9
25	26	4
37	67	1
91	92	16
28	28	21
61	73	3
22	23	7
71	71	29
38	39	9
27	54	5
59	59	31
20	22	1
25	92	2
46	60	2
60	61	6
67	84	3
91	95	3
97	99	6
43	44	17
49	50	2
62	64	3
33	35	5
34	59	2
65	66	7
71	75	1
26	28	5
90	90	39
46	49	1
21	21	27
34	79	4
45	46	6
62	63	2
85	97	7
59	60	5
58	75	3
84	89	3
31	35	2
82	84	4
25	52	1
58	60	6
85	87	4
23	41	2
48	49	4
24	104	4
41	41	15
67	71	6
39	91	2
84	84	20
65	73	2
101	104	2
51	52	12
70	71	9
39	43	5
83	86	23
67	82	1
83	92	4
23	29	4
75	76	6
93	95	5
31	94	6
49	72	3
33	59	2
77	96	1
46	48	4
31	51	2
82	83	9
32	63	2
49	65	1
72	72	11
26	80	1
28	34	2
24	57	2
27	63	4
65	104	7
35	38	2
90	91	3
88	97	5
52	64	5
69	73	3
79	88	2
34	81	1
43	49	4
58	81	3
62	62	14
68	68	24
54	98	3
96	98	6
24	50	2
66	78	4
56	57	7
54	57	1
29	81	3
83	84	9
74	92	2
81	82	2
50	75	3
94	100	1
35	36	9
66	71	3
36	37	5
32	104	2
57	64	3
75	91	6
89	89	26
45	71	1
37	90	1
69	70	4
63	74	1
59	72	2
32	34	2
37	70	2
77	78	6
27	29	2
92	105	12
69	101	1
25	27	8
82	88	3
82	85	2
84	86	2
19	45	1
57	59	1
48	48	10
36	67	2
79	83	4
79	98	5
26	29	6
31	34	4
39	54	3
36	42	1
37	51	2
97	98	13
24	36	1
64	67	1
31	58	2
48	56	1
57	94	1
65	68	1
53	55	1
30	85	2
34	35	4
30	80	1
36	72	2
24	41	2
90	94	3
63	64	2
34	69	3
30	31	5
54	67	2
94	94	26
79	99	3
92	95	3
19	25	1
25	30	5
83	85	2
23	61	2
45	52	3
59	88	1
101	102	6
59	78	1
73	74	1
44	46	1
43	54	3
58	96	2
46	47	9
25	106	1
31	50	3
25	67	2
62	73	2
44	94	2
58	59	2
104	105	5
60	85	2
48	66	3
58	66	1
70	72	4
60	82	1
29	39	4
31	64	1
52	62	1
54	60	2
32	33	3
24	25	2
66	103	2
40	84	5
81	85	3
48	50	8
59	81	3
29	34	1
49	106	2
90	97	1
81	89	3
37	42	1
80	85	1
50	61	3
47	90	2
29	31	1
33	73	1
37	49	3
38	45	3
37	44	1
71	73	1
25	47	1
37	40	1
96	106	3
82	86	1
21	41	1
55	85	1
29	98	2
90	101	2
55	65	4
89	91	1
45	88	1
66	68	1
20	28	1
45	83	1
30	36	2
77	94	1
29	30	5
51	67	1
30	32	3
59	61	2
82	87	3
82	97	3
40	43	1
56	89	2
62	71	1
23	70	7
40	44	1
83	100	2
41	43	1
59	66	2
37	84	3
45	55	4
91	94	3
33	80	2
63	95	2
50	53	1
35	99	1
77	97	3
21	35	2
88	96	2
54	55	2
45	54	2
95	98	2
61	83	2
21	51	1
105	106	1
24	52	3
45	103	1
98	106	1
92	94	3
32	35	4
57	61	2
70	82	2
26	31	2
56	90	1
69	92	1
58	90	2
22	71	2
30	102	1
58	61	1
51	53	1
35	39	3
90	100	6
22	37	2
100	102	1
41	45	1
63	73	1
38	47	1
34	95	1
76	78	1
100	104	1
44	89	1
54	101	1
35	95	2
59	68	1
81	88	2
52	54	1
75	103	1
79	85	2
26	105	1
60	64	1
80	86	1
31	44	1
37	39	1
50	52	2
22	30	2
29	41	2
68	71	1
79	84	2
22	49	2
89	99	3
36	81	1
91	104	1
39	83	1
79	80	2
76	91	1
61	72	2
32	82	2
80	89	1
33	54	1
90	93	2
32	41	2
89	93	2
31	39	2
35	65	1
24	32	1
58	93	2
24	78	1
49	96	1
44	86	1
54	59	1
78	89	2
58	67	1
89	97	1
41	60	1
55	96	1
45	90	1
35	50	1
81	93	1
24	73	3
65	103	1
30	81	1
35	77	1
28	36	1
81	91	1
34	66	1
55	86	1
77	104	1
24	30	1
34	87	1
27	62	1
97	106	1
77	89	1
24	31	1
106	107	1
78	83	1
23	51	1
19	22	1
