173	192	2
126	126	3
134	138	3
13	13	6
177	177	1
33	33	2
104	104	2
64	64	2
69	70	2
146	146	2
166	202	1
111	206	2
154	155	4
200	200	2
23	26	2
49	49	3
242	242	4
45	56	2
160	162	2
6	6	2
81	82	6
43	56	1
106	242	3
0	0	2
197	198	1
74	74	3
160	160	6
38	38	1
183	213	1
68	86	4
99	99	1
147	147	4
25	26	4
219	219	2
208	219	2
176	188	8
76	76	3
238	238	1
231	235	4
77	77	1
182	196	1
100	100	1
181	181	3
161	161	13
103	103	2
16	16	3
227	227	2
26	26	6
19	64	1
58	59	3
42	42	5
134	228	1
224	224	2
214	218	1
225	225	3
115	120	2
191	216	1
109	109	3
129	129	2
198	198	1
223	223	4
204	204	3
82	85	6
175	194	2
61	61	4
140	156	3
81	81	4
191	191	2
134	226	3
148	148	7
122	122	7
7	10	1
15	16	2
167	167	5
117	119	1
31	124	1
36	36	2
25	51	3
27	27	3
71	72	1
17	17	3
47	47	2
115	243	2
140	141	2
164	167	3
184	193	3
86	86	3
141	141	4
12	204	2
199	199	1
190	192	3
236	236	4
14	14	3
133	133	1
185	185	2
84	88	1
51	51	1
182	182	4
8	21	3
220	220	5
48	53	1
21	22	3
157	170	4
186	193	1
133	139	3
40	45	1
160	163	4
55	55	3
147	155	2
106	206	3
175	175	2
158	161	2
3	3	4
237	237	5
222	230	3
45	45	1
146	156	3
107	116	2
232	232	1
145	145	3
84	84	3
213	214	3
9	9	3
29	29	2
232	233	1
29	36	1
105	105	3
160	161	1
217	219	4
80	80	5
189	193	5
159	159	7
78	88	1
25	25	3
234	234	1
235	235	1
82	82	2
125	127	7
20	20	2
168	168	2
131	147	1
239	239	4
79	79	3
197	197	2
193	215	3
133	134	1
218	230	1
74	75	2
221	223	2
177	203	3
144	148	2
106	106	2
10	28	2
114	206	1
226	226	1
231	232	1
171	171	1
37	37	11
35	35	1
55	59	1
211	213	1
178	178	1
212	212	1
87	87	5
70	70	1
71	83	1
4	5	1
53	53	13
200	201	1
8	30	1
43	43	2
124	124	1
177	178	1
5	5	7
48	69	1
88	88	1
59	60	1
131	131	1
28	28	3
176	187	1
103	120	1
226	227	1
11	205	1
201	201	3
195	195	2
23	23	4
188	188	1
156	157	2
231	231	3
127	128	1
112	112	2
128	128	4
174	174	2
165	166	4
13	17	2
144	144	2
165	167	3
85	85	2
11	11	3
203	207	1
158	159	3
100	117	4
179	179	2
111	111	4
121	242	1
214	216	2
193	195	2
78	78	2
139	235	2
2	2	1
34	124	2
143	143	1
222	222	2
186	187	2
73	73	4
230	235	1
196	210	1
46	46	1
211	211	1
225	230	1
8	8	2
145	146	2
16	20	3
189	192	1
71	71	1
72	72	2
234	235	1
167	169	1
69	69	2
116	117	2
59	59	3
67	68	1
235	237	3
157	157	2
32	32	1
9	21	4
220	229	3
176	176	2
214	214	1
31	34	3
148	166	2
41	41	2
16	17	1
132	148	1
115	116	1
117	117	2
234	236	1
113	120	1
206	206	1
56	56	1
66	66	1
10	14	1
103	107	1
40	47	1
22	23	2
55	58	1
208	208	1
115	115	2
186	186	1
12	171	1
151	166	2
131	172	1
138	138	3
131	132	1
142	238	1
142	142	2
123	123	3
14	204	1
209	209	1
189	189	1
158	171	1
180	197	1
6	156	1
83	83	1
164	164	1
190	190	1
218	222	2
83	84	1
8	23	1
70	71	5
183	183	1
196	197	1
12	13	2
151	151	3
207	207	1
145	147	1
104	105	1
102	102	2
107	107	1
137	143	2
175	210	2
125	125	1
185	212	1
22	22	1
158	158	1
153	153	2
239	240	2
29	30	2
78	89	1
132	204	1
101	101	3
124	139	1
1	1	1
129	130	2
54	55	1
108	109	1
174	175	1
12	14	1
56	59	2
215	216	1
32	37	1
166	167	1
216	217	1
221	232	2
147	153	1
188	194	1
11	15	1
75	75	1
44	44	1
227	228	2
41	53	1
180	180	1
54	54	1
7	30	1
103	108	1
187	187	1
15	15	1
136	144	1
24	24	1
30	30	1
14	168	1
91	91	1
