24	24	7
41	61	3
105	105	2
22	23	4
71	71	8
27	27	3
82	84	1
9	9	5
62	63	2
178	178	9
17	17	14
145	150	7
164	164	5
87	87	5
39	41	2
142	142	8
159	172	2
137	137	10
167	168	1
154	154	9
99	101	1
86	88	1
122	122	15
167	167	10
29	51	2
82	82	13
149	149	8
158	158	7
25	26	7
115	115	12
81	131	2
63	63	8
52	52	16
133	134	6
54	54	6
179	179	9
37	43	1
166	167	2
106	124	2
116	116	6
11	11	5
161	161	4
18	87	3
31	31	6
141	141	10
177	178	3
99	99	5
18	18	5
45	45	3
126	127	1
147	147	9
165	170	1
84	105	1
55	83	4
109	114	6
92	92	2
125	125	5
78	78	1
145	145	8
29	85	3
112	112	5
7	41	4
130	130	12
20	41	2
154	155	8
155	155	1
86	86	8
121	121	8
135	136	2
147	156	3
77	137	3
41	42	4
11	12	8
126	126	4
157	168	2
143	163	3
100	100	1
109	145	2
152	152	10
53	54	2
5	8	3
74	75	2
28	28	9
103	103	4
51	51	8
37	38	4
102	102	8
170	171	3
58	60	2
13	36	2
65	134	2
159	174	3
140	140	7
126	129	3
151	151	1
41	45	5
117	118	1
162	162	10
136	136	6
4	5	5
171	171	2
108	108	7
74	76	2
100	101	1
162	163	2
145	179	6
114	114	6
165	171	1
15	44	5
173	173	7
109	110	5
101	180	3
82	85	3
0	0	7
118	119	3
21	22	2
12	12	10
76	76	7
123	125	11
37	75	2
7	7	9
116	117	1
80	81	2
32	44	3
135	135	6
118	118	4
50	53	2
92	94	3
35	63	2
6	9	4
145	152	3
80	131	3
7	39	4
44	44	8
54	64	1
100	151	2
30	30	5
154	156	1
139	139	13
87	106	4
14	14	5
132	132	2
68	68	3
3	3	8
17	43	1
150	153	2
67	67	13
113	113	4
55	55	5
28	29	8
94	94	2
109	154	1
88	88	5
71	118	5
165	165	15
6	13	2
34	34	2
117	117	9
109	109	2
18	20	7
67	84	1
56	57	3
50	50	10
144	144	1
77	77	8
114	115	3
94	96	1
168	168	8
90	90	5
54	122	3
74	74	5
49	52	2
119	119	7
127	127	2
157	157	6
143	168	3
111	113	2
156	171	4
73	130	1
11	45	1
112	143	3
134	134	4
131	138	1
76	77	2
4	4	12
26	27	5
52	136	1
73	74	1
7	21	4
110	110	6
179	180	7
11	41	3
35	35	11
29	29	5
97	98	1
64	65	4
176	176	13
84	84	4
106	106	5
33	33	3
49	49	2
53	62	2
5	42	1
16	16	4
118	121	1
5	21	3
153	153	8
147	148	1
37	37	6
107	125	1
19	20	5
124	141	3
103	104	7
60	127	2
65	99	2
24	25	1
163	166	1
108	172	3
111	111	4
119	120	2
169	173	1
13	13	8
10	42	2
95	115	1
83	83	2
144	151	4
7	24	1
157	159	1
40	41	4
52	65	1
59	60	4
133	133	7
91	91	1
96	129	1
73	73	2
107	124	1
170	170	2
15	15	6
144	162	1
3	43	3
54	63	4
126	137	3
65	103	3
109	126	2
26	26	4
143	157	1
35	36	6
57	65	1
66	135	3
132	134	3
169	169	6
80	85	1
92	139	4
120	142	4
23	23	5
35	54	2
92	103	1
6	6	4
17	20	3
82	136	3
33	34	3
40	40	7
66	173	2
85	85	2
6	7	2
63	64	3
4	8	6
128	158	2
78	79	1
18	44	1
142	163	1
93	104	6
109	152	3
146	147	1
13	42	1
96	96	6
128	147	1
76	78	2
25	27	2
12	13	2
1	1	6
49	84	1
150	150	6
153	170	2
132	139	3
53	53	4
133	139	1
87	90	2
2	2	4
147	158	2
9	28	3
10	37	1
101	114	1
57	81	1
19	19	10
160	160	3
79	81	3
143	144	2
25	33	3
145	149	2
85	91	1
57	59	2
32	32	2
146	150	3
71	72	1
70	70	2
22	22	10
62	64	3
75	75	3
53	65	1
43	43	3
149	153	1
95	95	4
138	139	3
2	3	2
127	137	2
120	124	1
61	61	3
27	29	4
152	170	2
51	52	6
27	39	2
169	170	1
129	146	2
113	175	1
19	21	2
142	143	1
39	40	1
38	38	3
26	53	1
153	157	1
59	59	2
38	43	4
144	152	1
168	171	1
162	169	1
157	165	1
83	84	1
8	9	4
81	81	1
38	60	2
56	58	1
108	110	1
89	89	3
140	141	1
70	175	1
42	42	4
66	134	1
104	104	3
145	146	1
93	93	1
116	118	3
138	138	4
20	20	6
149	176	1
96	103	1
98	102	2
153	154	2
118	134	1
94	97	2
123	138	1
1	3	1
80	80	3
49	91	2
128	128	3
60	80	1
8	8	3
143	143	5
131	131	5
104	126	1
120	121	2
35	52	2
20	21	2
68	118	2
91	129	2
17	19	1
107	108	1
105	106	2
5	6	1
177	177	2
143	162	1
154	157	1
172	173	3
21	21	2
146	146	1
124	124	1
36	37	1
39	72	1
55	56	1
111	153	1
3	4	2
31	87	2
155	156	1
71	173	1
110	112	2
44	85	5
136	151	2
166	166	1
154	159	1
67	68	2
159	159	3
79	79	4
34	36	1
66	67	1
92	93	2
77	90	3
84	96	3
17	18	2
21	24	1
50	51	2
102	154	1
18	31	1
107	110	2
66	172	1
82	130	1
15	16	1
110	114	2
172	172	1
66	66	1
72	72	4
127	147	1
82	135	2
57	57	2
173	174	2
91	135	1
129	129	3
10	41	1
152	153	1
30	90	1
7	19	1
49	50	1
6	22	1
157	170	1
67	80	2
123	133	1
99	100	1
158	159	1
162	168	1
5	5	3
97	131	1
134	172	1
56	56	1
92	95	1
77	78	3
95	96	1
136	171	1
7	20	1
67	114	1
127	128	1
31	91	2
139	140	2
44	45	1
149	150	2
148	148	1
180	180	1
29	30	3
8	12	1
126	134	1
163	163	1
5	7	1
15	38	3
118	120	2
110	179	1
146	159	1
151	152	1
123	123	1
123	141	3
97	97	1
107	153	1
15	18	1
142	157	1
54	55	1
61	73	1
104	105	1
25	25	1
111	178	1
93	128	1
148	164	1
32	33	1
96	97	1
13	14	1
5	19	1
14	36	1
107	107	1
65	65	1
159	160	1
57	126	1
91	105	1
