74	78	1
63	64	4
12	12	20
116	116	16
15	20	6
88	88	18
100	102	5
58	59	5
31	32	3
5	5	4
92	92	10
127	131	5
95	96	6
110	110	14
83	83	6
55	87	3
30	31	2
105	105	17
43	43	11
131	134	1
68	83	7
133	133	18
90	96	1
3	16	3
34	34	11
21	29	3
65	65	15
20	24	2
81	82	4
57	115	1
14	17	1
41	82	2
103	129	5
10	10	10
41	41	9
9	9	3
112	120	5
8	9	1
112	112	15
68	70	7
90	90	6
96	100	4
115	115	12
15	15	15
100	112	1
106	106	11
0	0	7
22	36	4
104	122	4
125	125	9
68	68	9
77	87	4
67	83	2
43	47	8
88	112	2
124	124	11
28	34	2
106	113	1
18	20	7
2	43	7
35	35	12
104	108	1
126	126	11
26	29	2
76	84	1
128	128	6
29	31	6
130	130	9
84	85	4
132	133	5
87	87	13
131	131	19
17	17	19
56	56	8
97	106	3
82	82	6
79	80	6
62	63	2
95	95	8
89	97	7
132	132	14
114	114	1
75	75	12
37	38	2
50	58	3
34	35	6
84	84	14
60	61	5
107	119	4
59	62	7
21	27	7
108	122	1
3	3	8
37	37	8
66	67	2
71	77	3
120	120	11
59	59	6
102	102	15
29	130	1
95	117	1
106	132	4
90	91	4
79	81	2
37	41	1
77	85	2
60	60	13
112	113	16
28	28	12
59	65	2
11	11	22
76	76	19
85	86	7
27	45	5
129	129	7
31	31	8
77	86	2
65	66	7
6	6	6
98	103	2
13	15	3
10	43	5
39	72	2
4	5	3
88	95	5
91	91	11
40	41	7
31	38	2
64	64	9
44	44	6
79	82	1
15	16	2
118	118	9
96	96	11
18	29	2
36	41	3
37	72	3
2	2	9
97	99	2
94	133	2
11	12	1
67	67	5
7	8	6
78	78	17
114	115	12
101	101	11
119	119	17
5	21	1
83	84	3
111	111	11
71	75	1
108	109	6
40	40	17
120	130	3
81	114	3
79	79	12
129	130	2
2	3	7
1	1	4
33	115	2
58	58	12
47	47	14
97	97	5
119	120	2
122	122	7
77	77	15
124	125	7
121	121	15
94	94	10
18	18	10
71	71	9
95	105	7
66	66	9
105	112	2
93	94	5
110	119	2
5	6	4
8	42	4
100	100	7
121	122	3
120	121	5
109	116	1
48	49	1
26	27	2
19	19	6
44	46	3
8	8	11
73	73	9
110	117	4
13	14	4
46	46	16
128	129	4
6	20	3
125	128	1
29	29	9
94	95	7
110	111	10
64	72	1
42	43	1
105	106	5
115	126	4
2	6	1
57	57	6
66	75	1
86	87	6
85	121	6
30	46	1
73	128	4
74	76	1
109	110	2
36	104	1
57	58	1
73	84	4
1	11	3
22	35	1
45	45	14
115	123	2
123	123	5
76	77	3
57	77	4
127	127	14
96	98	2
33	35	4
72	72	9
90	92	7
30	30	4
48	48	2
101	114	1
92	96	1
55	55	7
0	118	3
26	26	9
110	114	3
22	22	3
70	100	3
64	67	3
9	14	1
85	85	1
24	24	7
86	95	3
40	42	2
6	9	4
11	13	2
9	13	2
4	6	3
121	123	8
85	87	3
80	80	10
82	83	5
82	89	4
104	104	7
29	30	5
62	62	7
86	86	5
0	1	3
95	109	3
23	34	4
17	37	1
100	113	4
44	47	1
73	76	2
45	119	3
84	114	2
25	25	9
130	134	3
109	122	2
33	40	2
112	116	1
17	25	4
72	85	2
121	133	3
115	116	6
96	99	2
95	99	3
93	113	2
32	33	7
14	25	2
91	104	3
67	119	2
71	81	2
63	63	12
33	37	3
14	14	9
73	105	5
32	32	13
104	119	4
36	36	6
92	99	2
92	104	4
127	128	5
123	125	1
100	106	4
59	63	3
11	18	1
92	94	8
29	37	4
65	67	2
134	134	9
97	100	3
66	73	2
117	117	5
28	30	4
33	33	9
31	66	5
116	126	2
12	13	4
86	97	1
74	74	11
34	43	4
89	89	1
10	42	1
13	13	1
9	17	3
111	114	1
81	92	2
61	62	1
9	15	3
16	24	1
66	77	1
103	116	1
94	96	5
90	93	2
80	85	2
39	39	1
5	7	1
88	92	2
16	21	2
127	130	3
70	84	1
51	51	3
123	129	2
69	69	7
70	71	2
61	63	1
93	93	4
59	60	3
82	93	2
102	106	1
13	21	3
15	25	5
69	71	1
20	20	11
116	125	1
109	112	2
21	23	2
93	134	1
116	117	2
73	86	2
107	110	1
7	7	4
19	23	2
78	93	1
113	114	2
55	58	1
122	124	2
61	61	6
33	36	3
35	36	3
37	40	2
21	33	4
9	10	2
0	6	3
72	73	2
81	81	3
6	26	3
16	16	2
14	15	3
111	113	8
97	101	2
42	49	2
113	113	3
77	78	1
33	103	1
22	23	2
99	109	1
82	86	3
62	71	2
109	109	5
21	22	3
69	78	1
21	26	3
72	84	3
42	47	2
94	112	1
51	56	1
91	92	3
40	43	4
87	88	3
32	37	1
89	93	1
56	57	5
97	107	1
18	63	4
19	84	1
87	97	2
86	119	2
99	99	6
38	38	3
75	91	1
23	23	4
50	50	4
131	133	1
0	66	2
45	120	3
21	21	6
78	81	1
86	92	2
102	103	2
1	5	2
122	123	4
117	118	2
85	120	1
57	112	5
25	77	1
64	69	3
69	95	1
107	117	2
102	114	3
122	126	3
103	103	2
87	94	3
11	26	1
4	4	3
107	122	1
72	87	1
22	26	1
69	70	1
71	72	2
102	104	2
59	61	2
130	133	1
70	132	1
98	98	3
93	95	1
92	93	2
129	131	1
107	126	2
113	119	1
112	134	1
78	79	2
27	28	3
17	24	1
126	127	1
5	8	2
37	47	1
18	21	1
16	25	1
20	21	2
124	126	2
113	115	3
10	18	1
108	108	4
117	119	2
103	123	3
22	27	1
11	20	2
27	27	4
131	132	5
112	115	1
7	9	2
19	20	2
56	112	2
122	131	1
32	35	1
115	119	1
45	48	1
64	65	3
93	112	2
33	34	1
110	118	2
73	134	2
105	132	1
133	134	2
87	91	1
115	125	2
35	40	1
105	130	3
100	111	1
127	134	1
44	45	2
76	83	2
45	72	2
46	47	1
96	112	1
126	133	1
33	61	1
101	102	2
35	48	1
74	119	1
45	46	2
20	22	1
39	105	5
119	122	1
95	104	1
99	102	3
118	119	1
107	108	2
77	79	1
101	103	1
125	127	1
70	79	1
127	133	2
71	91	1
55	56	2
91	93	2
109	120	1
36	129	2
84	105	1
120	129	1
75	119	1
37	46	1
31	33	1
65	74	1
43	44	2
107	107	2
102	113	2
22	28	1
97	112	3
107	113	2
16	35	1
37	44	1
44	48	1
80	83	1
105	127	1
109	111	1
80	86	1
124	130	1
1	119	1
116	118	2
107	109	1
54	54	1
8	14	2
125	126	1
118	121	2
115	134	1
85	91	2
82	96	1
68	77	2
85	88	1
124	128	2
82	95	1
31	42	1
104	129	1
101	109	2
95	97	1
38	41	1
23	43	1
10	47	2
107	123	1
18	19	3
47	48	1
28	36	1
13	25	2
23	24	2
36	39	2
17	77	1
121	129	1
68	85	2
67	75	2
44	62	1
74	86	1
97	98	1
15	23	1
126	128	1
35	63	1
78	80	1
120	122	1
29	36	1
45	125	1
28	37	1
51	55	1
17	18	1
30	38	1
42	42	1
93	105	1
39	43	1
96	108	1
79	84	1
34	36	1
58	72	1
97	110	1
