58	58	7
96	96	12
105	106	4
107	108	3
3	3	8
66	66	3
122	122	14
151	151	6
136	137	6
28	28	19
152	154	3
153	153	5
120	120	11
129	132	9
101	101	4
147	147	10
42	79	4
167	167	12
5	5	8
127	167	1
17	18	3
156	157	6
148	149	4
84	88	2
118	119	4
95	96	3
26	26	13
9	9	7
83	83	3
154	159	2
118	124	6
97	98	6
12	12	6
116	116	5
169	169	5
188	188	5
183	183	9
44	56	2
55	55	4
75	76	3
9	10	2
11	11	6
60	63	5
93	120	2
131	131	6
110	110	7
146	147	1
153	165	5
62	62	13
173	174	1
25	25	10
67	69	3
72	72	7
141	141	9
163	163	6
162	162	7
77	77	3
47	47	2
150	150	4
156	156	2
24	24	14
168	168	5
29	29	11
42	42	11
190	190	5
137	137	17
159	161	4
18	19	6
57	57	5
34	34	1
139	139	11
128	166	3
185	185	3
2	2	4
42	43	2
41	41	15
138	138	3
163	164	4
177	177	10
142	180	2
113	113	4
148	164	1
146	146	11
6	41	2
61	61	9
149	150	4
179	181	7
159	159	1
186	186	7
96	97	2
35	35	9
37	38	2
106	106	5
26	32	1
7	8	2
56	57	4
74	74	10
182	183	3
120	121	1
176	177	6
122	123	6
14	15	5
64	66	1
15	21	1
65	65	7
64	64	5
100	100	8
78	78	1
68	71	2
4	73	5
164	165	5
16	16	3
160	162	1
21	21	9
142	142	4
98	99	1
61	63	4
134	135	7
115	117	3
23	23	9
178	178	10
21	22	3
142	168	1
61	64	3
78	89	2
121	122	4
84	85	3
127	128	3
92	125	2
76	76	3
65	66	2
52	53	2
174	174	7
13	14	7
95	95	11
158	158	6
145	145	9
42	73	4
86	86	2
57	60	4
71	71	5
80	80	7
187	187	9
180	181	4
27	27	9
94	94	5
81	81	3
43	43	5
16	17	1
68	68	2
132	132	11
184	184	15
154	155	3
160	160	5
97	97	3
87	88	1
44	44	10
135	135	5
19	116	1
175	175	13
6	6	5
115	115	9
157	158	1
67	67	2
109	109	8
71	81	5
173	173	6
0	0	4
12	33	1
188	189	3
150	151	3
92	120	1
90	91	3
34	35	2
41	42	3
70	76	2
151	152	3
161	161	1
73	74	5
33	33	3
76	77	5
54	54	7
73	73	8
60	64	4
24	25	6
126	127	3
117	117	4
45	45	4
40	40	2
114	124	1
102	102	1
20	20	4
109	114	1
103	103	3
140	140	2
108	115	3
104	104	7
111	111	5
42	44	1
76	80	2
84	84	5
15	20	6
26	27	4
114	114	5
89	89	2
86	87	2
160	161	6
143	144	2
4	6	1
91	92	5
61	62	1
166	166	7
128	128	8
124	124	2
19	20	3
130	131	1
46	46	10
30	30	1
148	148	2
125	125	2
72	79	1
85	85	7
43	60	5
36	36	7
173	190	4
171	171	3
154	163	5
118	123	1
96	98	1
103	112	1
35	36	3
62	64	2
82	82	4
172	172	10
129	129	3
85	86	7
126	126	4
141	142	2
169	170	2
48	48	4
174	190	2
165	165	5
105	105	3
119	119	2
7	125	1
23	24	2
1	3	1
62	77	1
4	4	5
10	11	4
102	103	1
114	115	4
127	127	7
18	18	3
56	56	4
143	143	3
10	12	3
112	112	1
155	155	4
176	176	2
31	31	4
159	162	2
85	96	1
73	89	1
16	18	1
179	179	3
39	39	3
76	83	1
91	91	5
43	44	1
145	171	1
14	33	3
124	128	1
63	64	5
17	108	1
90	90	1
38	38	1
164	164	5
180	180	5
92	93	5
184	185	3
145	164	1
145	146	1
133	135	1
116	134	2
125	126	1
53	54	1
23	31	1
19	19	4
189	189	3
140	141	3
22	23	1
88	89	3
98	98	1
93	93	2
154	154	2
181	181	1
54	55	4
146	166	2
86	183	1
161	162	3
142	182	2
130	130	2
144	171	2
1	1	1
107	107	4
136	136	3
17	17	3
88	88	1
91	94	1
0	47	1
133	136	2
185	189	2
67	70	1
13	13	2
138	139	1
4	7	1
155	156	2
70	70	6
72	73	1
7	7	2
46	48	1
129	130	2
149	149	4
159	160	1
27	28	1
57	58	1
170	170	2
95	97	1
143	168	1
106	107	2
64	65	1
67	68	1
15	15	3
114	128	2
183	186	1
152	153	1
41	89	1
37	37	1
32	32	1
11	21	1
128	167	1
182	182	1
10	10	1
44	45	1
99	113	1
142	143	1
109	111	1
99	99	2
10	32	1
43	71	1
181	182	1
92	92	1
60	61	1
79	79	1
29	30	1
33	35	1
89	90	1
10	20	1
62	63	1
2	3	1
12	20	1
137	138	1
11	12	1
145	170	1
