201	202	1
112	112	14
154	157	11
242	242	15
241	241	9
238	239	5
96	96	14
202	202	7
62	62	10
43	43	13
220	221	14
164	164	19
166	166	8
243	243	11
204	204	23
226	226	9
236	236	18
192	192	23
82	95	1
209	209	18
245	246	5
193	226	2
32	32	20
176	177	6
119	145	2
166	169	2
23	24	4
31	31	12
6	112	3
50	50	5
45	45	18
21	205	4
42	85	2
51	52	2
83	84	7
225	226	5
76	76	7
244	244	17
153	153	13
47	88	1
68	68	25
99	99	7
53	53	15
214	243	5
173	173	15
75	75	9
48	48	11
199	200	5
0	0	3
238	238	20
224	225	8
169	169	6
99	101	1
233	233	11
159	189	2
205	234	2
222	223	6
14	14	7
93	93	7
213	214	3
219	219	21
183	184	11
162	162	13
205	225	3
24	25	2
191	207	4
212	216	2
204	207	6
199	210	2
248	248	11
247	249	5
3	4	7
6	6	17
184	185	3
239	240	3
15	15	5
24	24	11
52	54	6
197	199	2
202	205	4
10	244	4
17	17	15
197	197	18
147	147	7
146	146	3
65	65	6
29	29	9
228	230	2
178	178	20
25	25	8
1	1	6
56	60	1
229	229	2
91	91	19
200	200	8
82	82	21
224	224	12
110	110	8
44	45	4
181	181	11
21	21	7
214	217	1
114	200	2
203	204	7
158	174	2
39	39	7
170	170	10
190	196	4
214	224	2
33	33	13
106	106	4
156	167	4
112	113	2
221	221	18
228	247	3
8	8	12
103	103	7
150	151	4
232	232	12
176	176	10
21	22	4
26	26	8
214	220	3
101	102	6
161	161	25
203	203	24
184	184	17
85	86	7
30	30	20
51	56	2
35	35	18
38	39	2
3	3	16
243	245	3
171	171	4
16	16	11
119	119	5
232	233	7
79	81	6
191	191	10
120	120	5
36	37	2
201	201	24
198	203	5
193	203	1
205	205	22
89	89	12
27	27	12
12	17	1
48	50	3
6	23	2
218	218	17
227	227	9
231	231	7
222	222	15
237	247	1
19	19	27
154	154	19
215	227	2
72	72	9
160	160	12
225	225	16
101	101	4
212	232	4
197	198	3
215	226	1
7	7	10
75	76	5
223	223	15
186	223	2
4	4	9
226	234	3
210	211	4
151	151	17
88	88	6
94	94	8
41	41	4
38	38	13
75	78	3
17	18	3
209	211	2
69	247	4
174	174	6
46	46	11
183	183	10
81	94	1
182	182	13
185	185	6
2	3	1
213	213	17
23	23	18
51	65	2
212	224	2
58	58	9
204	205	5
59	60	6
239	239	11
45	46	4
90	90	9
36	36	5
196	198	3
179	179	11
96	97	4
77	77	3
229	246	2
182	183	4
18	18	7
225	246	3
194	194	12
199	247	1
85	85	10
111	111	8
242	243	7
23	27	2
37	40	1
211	211	21
47	47	18
230	231	6
191	192	4
221	222	9
162	167	1
10	10	11
245	245	11
187	187	3
51	54	1
220	220	10
208	208	11
11	11	8
180	199	2
37	37	7
93	107	2
232	234	1
228	229	3
51	55	1
180	180	8
211	220	1
61	72	1
115	116	2
81	81	13
206	206	7
44	44	15
12	12	19
244	245	2
108	108	5
70	70	1
54	54	12
218	219	10
173	174	4
22	22	10
86	86	11
167	167	8
234	234	19
165	211	2
4	5	5
247	247	8
237	237	4
11	12	5
214	214	19
114	116	5
19	44	1
6	114	1
240	241	4
185	197	1
94	95	3
24	27	1
228	228	19
53	54	3
100	100	15
66	67	7
240	240	20
168	182	4
51	51	11
57	57	10
92	93	2
57	58	3
118	118	14
66	66	9
154	155	6
42	42	12
187	223	1
145	145	3
6	7	4
19	20	2
83	83	7
199	239	2
85	87	5
189	190	2
172	172	3
49	49	11
186	187	4
80	80	6
35	120	2
114	114	8
237	238	2
232	237	4
111	112	2
159	159	7
95	96	1
52	53	2
226	228	3
195	195	4
155	155	18
97	97	11
209	213	7
153	157	2
116	116	8
186	186	6
229	230	5
177	196	2
47	48	3
199	199	11
242	247	4
191	193	4
207	207	9
212	214	2
198	199	2
169	170	5
161	162	1
87	87	3
216	217	9
74	74	6
212	212	9
75	77	2
68	70	1
235	236	2
198	198	6
64	66	5
239	246	1
63	63	15
164	165	1
213	224	2
193	194	4
89	90	4
37	38	3
170	171	11
73	73	4
203	230	4
193	195	2
230	230	13
158	160	3
56	56	5
212	245	1
178	181	2
113	113	18
78	78	4
51	84	3
33	34	3
150	150	13
165	166	5
200	201	2
38	84	1
27	28	2
208	209	3
202	212	3
172	173	3
109	109	10
206	207	2
69	70	6
5	5	4
86	87	4
226	238	2
91	92	6
71	72	5
56	61	1
214	233	1
88	89	3
87	88	1
156	156	16
167	185	3
115	115	9
197	204	3
83	93	4
9	9	20
46	47	2
232	239	1
50	55	2
158	181	4
100	202	2
113	114	1
58	60	3
37	44	1
199	240	1
30	31	6
196	196	6
212	213	7
210	210	9
93	94	1
224	232	1
7	112	1
55	56	4
28	29	3
217	217	7
78	79	2
61	61	11
9	114	3
158	158	8
59	59	7
189	189	4
70	71	1
185	209	1
117	117	3
220	234	2
5	6	1
55	55	6
50	76	2
69	69	6
231	232	2
195	214	2
177	177	11
98	99	4
220	223	4
240	243	1
217	218	4
246	247	2
195	232	3
104	107	2
28	28	18
31	32	3
20	20	10
84	84	8
200	211	3
66	247	4
201	243	1
40	40	6
237	241	4
68	84	1
174	175	1
214	228	3
216	220	1
175	175	8
63	69	1
236	246	2
238	241	5
85	93	1
216	216	11
80	81	2
99	100	2
105	105	3
197	205	2
74	80	1
214	215	5
101	103	1
184	189	2
164	221	2
246	246	8
151	152	6
237	240	1
240	244	1
49	66	1
211	212	5
193	193	11
223	224	1
34	37	4
205	208	1
194	197	3
235	235	5
35	44	1
207	212	2
169	183	2
35	36	3
202	227	1
230	236	6
223	245	1
86	104	4
186	197	1
220	226	2
67	67	6
29	31	2
11	33	1
101	104	4
61	62	4
1	2	4
153	176	1
185	186	6
56	57	2
98	173	1
205	241	4
29	30	2
39	40	1
216	229	2
227	249	1
195	196	2
210	212	2
62	83	2
7	8	4
38	43	1
168	209	1
69	99	1
161	196	2
156	244	2
201	225	1
40	41	3
168	169	1
64	64	5
240	246	2
97	98	1
64	65	2
190	190	3
222	224	1
90	103	2
197	201	1
63	65	3
192	202	1
175	221	2
239	242	2
166	167	4
34	34	5
116	117	3
208	234	1
67	104	3
167	170	1
63	86	2
249	249	4
210	234	3
208	228	3
33	36	2
167	182	2
163	163	7
201	224	1
213	217	2
163	165	2
95	95	9
41	42	3
179	180	2
52	52	6
168	168	4
206	211	5
204	206	1
207	209	1
247	248	1
86	96	1
49	50	3
197	234	2
191	199	2
221	223	6
234	235	2
55	68	1
80	107	2
46	229	2
94	106	1
157	182	1
8	205	1
68	77	2
218	232	1
243	244	1
109	110	1
238	244	3
90	91	4
22	23	3
176	179	2
226	227	1
79	80	1
169	181	3
201	204	1
7	28	1
71	73	2
158	182	2
104	105	1
100	101	4
157	157	10
69	81	5
234	237	1
229	240	1
121	162	3
74	75	2
174	177	1
194	195	2
114	180	2
217	219	1
174	197	2
186	208	2
171	177	1
12	14	2
77	87	1
81	82	2
151	153	2
115	197	2
50	51	2
192	193	2
158	191	2
3	33	2
208	236	1
159	160	1
236	237	3
76	77	1
16	247	3
82	85	1
98	184	1
223	242	2
235	238	1
59	74	2
233	234	1
206	210	1
169	185	1
115	182	2
201	249	1
85	113	1
232	236	3
202	204	1
68	69	1
71	71	4
55	86	1
179	197	2
218	220	3
62	102	2
101	106	3
82	83	1
236	240	4
241	242	1
196	199	1
192	243	2
215	215	2
208	212	1
156	157	1
47	75	3
34	35	2
182	212	2
66	72	2
102	102	4
164	172	1
226	247	1
205	209	1
80	105	3
107	107	2
152	152	5
178	180	3
13	34	1
227	235	1
155	156	1
67	68	1
44	63	3
96	172	1
227	241	1
5	34	3
200	202	1
31	78	1
95	97	2
67	72	1
20	204	1
157	165	1
238	246	1
112	115	2
41	43	2
200	227	1
194	234	1
162	233	1
16	42	1
58	59	4
57	62	1
222	244	1
194	243	2
89	94	3
77	86	1
105	106	3
92	92	1
110	111	1
170	182	2
109	205	1
195	209	1
223	243	1
14	15	2
158	166	1
77	78	1
229	233	1
163	166	2
203	205	1
237	239	1
145	226	2
199	238	2
107	116	1
22	63	2
144	145	1
245	248	2
83	85	1
78	87	1
46	51	2
70	78	1
8	206	1
211	213	1
6	12	2
71	84	1
209	235	2
64	69	1
45	51	1
178	179	1
83	95	1
3	8	2
33	38	1
204	230	1
61	71	1
195	197	1
172	188	1
191	247	1
196	208	1
195	223	1
79	79	2
49	65	1
164	168	1
51	78	1
206	208	1
239	241	1
1	28	1
183	208	2
216	218	1
96	106	1
103	107	3
96	98	1
158	186	1
114	115	1
10	22	1
197	248	1
189	194	1
55	77	1
90	100	1
31	85	1
86	97	1
208	214	1
70	75	1
144	144	1
201	203	1
195	198	1
193	205	1
155	157	1
94	113	1
214	230	1
80	94	1
205	231	1
205	232	1
18	40	1
203	208	1
151	191	1
196	224	1
95	98	1
21	31	1
118	120	1
17	20	1
179	181	1
6	227	1
35	54	1
