72	73	2
56	56	3
26	26	4
66	67	3
181	181	5
173	173	2
13	165	2
84	84	8
113	113	5
7	7	5
100	100	6
84	85	3
44	44	1
184	184	6
38	38	4
174	179	1
173	180	3
0	0	3
121	121	3
171	172	3
57	57	3
36	36	6
135	137	6
167	169	2
177	177	7
131	142	2
98	98	2
3	16	3
55	55	8
169	170	4
46	47	2
178	179	1
150	164	2
189	190	1
8	163	3
105	112	2
171	179	3
22	22	4
124	140	2
15	15	2
147	147	8
60	97	4
20	21	5
169	178	1
100	116	2
130	130	4
34	34	3
128	128	6
103	104	4
35	42	3
116	117	3
45	45	6
118	119	2
99	114	2
162	170	2
109	109	5
10	11	1
149	149	5
152	153	5
120	120	6
71	76	2
97	98	6
167	170	3
75	75	1
36	37	3
47	47	7
126	126	7
19	19	6
174	174	2
65	65	6
102	102	5
99	104	2
132	133	5
74	75	2
107	107	10
41	41	6
2	166	1
133	133	6
43	55	1
16	16	1
147	148	1
171	180	3
124	125	1
61	64	1
92	93	4
123	123	2
156	162	2
159	187	1
73	73	2
101	101	5
91	91	3
12	12	7
176	177	1
86	86	9
108	114	3
88	89	1
28	77	1
62	97	2
37	43	1
145	151	2
127	151	4
152	152	3
71	73	3
143	143	3
170	172	1
105	130	1
60	98	2
157	160	1
42	42	5
79	93	3
29	66	2
67	67	2
127	128	6
110	110	6
7	17	4
172	172	3
99	103	2
82	82	3
121	143	3
147	151	8
79	81	3
176	182	1
141	141	6
121	122	1
129	129	8
133	141	1
92	92	3
60	95	3
122	143	3
5	5	3
108	139	9
154	157	2
80	81	4
167	167	4
14	15	4
59	83	1
118	118	3
6	163	2
188	188	4
87	87	4
156	157	1
78	79	3
127	140	1
35	35	8
97	97	4
145	189	1
136	136	3
122	122	6
17	17	10
29	149	4
113	129	3
103	133	1
130	133	1
78	78	4
72	72	2
155	155	2
99	100	1
68	68	2
58	64	5
5	8	4
162	164	2
108	109	1
11	11	3
70	70	4
30	45	3
142	142	4
19	20	2
107	139	2
144	145	1
120	130	2
21	22	3
163	163	3
81	82	3
36	42	1
46	46	4
33	35	2
57	60	1
41	54	1
135	136	2
110	114	1
47	60	2
175	175	2
58	61	2
83	83	1
99	99	6
99	111	2
106	129	4
103	103	3
31	31	3
90	91	4
162	163	4
137	137	1
68	74	1
121	130	1
166	166	2
81	81	11
151	151	2
157	157	5
139	139	3
181	182	4
58	78	2
140	169	2
156	160	1
67	90	1
104	104	2
67	112	2
73	74	5
45	47	4
185	185	7
42	43	3
96	108	3
4	33	1
134	146	4
159	160	2
59	77	2
6	6	5
12	15	2
158	189	1
23	24	4
145	145	1
150	161	1
93	93	3
163	164	1
175	179	4
65	68	1
125	125	2
27	27	2
131	133	2
105	105	1
159	168	4
23	23	2
3	3	2
164	165	1
23	37	5
42	44	1
115	115	1
59	76	3
60	60	5
64	64	2
6	14	2
84	103	1
20	22	2
77	77	1
190	190	6
134	149	1
119	130	1
70	74	4
2	2	3
10	10	3
21	21	3
127	127	3
145	148	1
76	77	3
0	149	1
139	140	1
48	48	2
111	130	1
158	158	1
61	63	1
8	27	1
42	48	2
55	65	1
138	138	1
76	76	2
154	190	1
96	107	2
17	18	1
61	97	3
77	103	4
156	156	2
157	158	1
35	36	1
186	186	1
150	150	3
171	171	1
28	28	1
39	40	1
153	153	1
46	108	2
88	111	1
70	71	1
177	178	1
112	112	2
106	111	2
119	129	1
52	53	2
136	149	1
132	138	2
120	122	2
0	6	2
96	96	1
70	75	1
178	178	2
53	122	3
169	169	3
47	62	1
77	78	1
32	32	1
27	29	1
129	141	1
56	63	3
58	77	1
112	118	3
178	180	2
115	116	2
0	27	1
117	117	1
55	56	1
180	180	1
96	98	2
108	134	1
161	161	3
18	18	2
71	74	1
111	118	1
40	40	1
9	163	1
24	35	1
160	160	4
129	130	1
162	172	1
67	76	2
111	129	2
30	30	1
85	89	1
89	89	1
8	8	1
63	63	1
4	26	1
77	99	1
108	138	1
23	39	1
136	137	1
167	168	1
43	43	1
56	57	1
76	80	1
181	187	1
57	83	1
71	71	1
11	12	1
65	79	1
177	182	1
154	154	1
4	11	1
1	1	1
131	131	1
83	89	1
135	135	1
88	88	1
142	144	1
13	13	1
165	165	1
54	55	1
126	127	1
125	152	1
32	33	1
91	93	1
37	37	1
