52	97	3
56	56	8
32	38	1
110	111	2
124	124	11
103	116	1
95	96	3
91	116	2
115	121	2
95	120	3
103	104	5
52	72	1
63	63	5
19	19	7
71	71	2
1	1	12
43	57	3
122	127	3
53	128	3
57	58	1
44	44	11
9	57	4
20	20	3
37	37	4
30	31	2
26	26	25
105	105	7
103	125	3
65	65	7
39	44	4
93	94	1
102	104	4
5	9	1
18	19	3
14	14	7
74	74	11
116	117	2
130	130	8
68	71	2
66	72	2
87	87	9
4	4	2
32	37	1
83	83	20
87	108	2
118	123	3
66	66	3
98	128	2
82	84	5
120	120	7
58	58	2
52	69	1
0	0	3
58	59	2
66	79	1
25	30	4
108	112	5
9	9	12
50	129	3
6	18	4
22	57	1
84	91	5
25	25	6
3	3	9
77	78	4
27	29	7
90	90	13
123	123	3
62	63	1
82	100	5
95	118	7
71	77	4
89	89	8
27	28	3
70	70	6
130	131	8
6	57	1
6	24	5
92	106	2
108	108	5
105	135	2
45	45	6
95	95	11
123	126	2
15	15	5
54	67	2
120	121	3
27	27	2
115	118	2
28	28	10
49	107	2
69	79	3
21	21	9
25	29	3
2	2	4
98	98	9
29	29	7
7	14	4
103	103	11
128	128	10
126	126	8
121	121	2
133	134	7
34	35	2
6	6	13
64	81	2
75	97	3
121	126	12
36	50	1
61	61	6
115	117	2
60	61	6
4	5	7
113	113	4
15	29	3
67	83	1
52	61	3
106	131	3
65	79	4
12	13	1
98	102	1
117	117	7
118	118	3
65	66	1
72	73	4
23	57	1
19	20	7
115	116	8
16	22	1
132	132	8
90	91	4
2	4	1
84	84	5
90	110	6
119	119	4
24	24	6
90	93	1
0	1	2
94	118	1
109	109	5
119	121	1
102	103	5
67	82	1
73	87	5
97	97	4
134	134	5
5	5	6
32	43	2
105	111	4
79	79	8
32	32	9
76	76	8
67	73	3
94	94	3
86	101	3
50	53	4
99	125	1
64	86	1
122	126	5
93	113	1
55	55	1
11	11	2
27	38	3
64	64	3
8	8	9
83	84	3
122	122	11
43	45	4
127	129	3
10	17	2
116	118	4
102	102	5
84	104	1
0	62	1
5	22	3
92	92	10
16	16	6
86	86	7
127	127	7
56	59	2
87	103	1
61	72	1
59	60	2
62	73	1
13	21	3
67	81	2
53	130	4
31	32	2
59	68	1
118	119	7
109	132	4
60	78	2
79	80	6
18	18	4
59	59	12
67	67	2
53	54	3
4	18	1
63	81	1
9	26	2
107	132	5
8	9	4
4	20	1
108	129	1
93	118	2
13	50	1
3	32	1
44	68	2
47	48	1
0	18	2
13	19	2
73	73	4
71	73	1
3	7	2
99	111	2
88	88	9
105	121	2
15	21	2
105	125	2
7	24	1
47	116	1
116	116	5
80	98	3
47	68	7
66	99	2
42	42	3
35	35	7
53	53	3
77	77	8
106	108	3
33	36	4
92	101	1
133	133	10
13	13	9
79	92	1
78	78	2
52	63	3
110	110	1
60	60	8
81	116	2
25	26	5
23	23	3
114	129	3
84	119	1
125	125	7
100	109	3
4	19	3
81	82	2
100	108	5
68	69	2
109	123	4
90	129	2
2	3	1
10	10	5
25	44	4
62	62	3
22	22	2
83	85	3
86	103	1
115	115	3
35	45	4
10	11	3
54	54	1
72	97	1
84	85	4
105	124	1
112	124	2
76	78	3
71	82	1
75	75	3
96	129	4
6	59	1
62	65	2
81	88	3
105	106	4
68	68	4
46	46	2
0	3	1
126	127	1
117	134	5
94	95	4
7	62	1
114	133	1
34	56	1
75	90	3
85	117	1
80	80	3
101	101	4
80	92	3
8	23	1
16	33	1
98	99	1
77	79	2
83	88	1
8	25	2
49	108	1
27	44	2
29	30	2
3	13	1
83	100	3
18	34	2
64	122	1
36	36	2
3	15	1
92	108	1
114	114	6
92	93	3
99	99	3
14	26	2
106	109	2
31	31	1
3	23	4
109	113	4
115	135	2
106	106	3
60	63	1
86	132	2
30	36	2
12	12	4
77	92	2
0	7	1
71	86	3
93	93	2
109	126	2
121	125	1
38	38	2
110	121	1
12	28	2
38	48	2
109	111	2
22	23	1
122	134	1
81	81	10
52	52	6
63	66	1
0	34	1
5	57	1
4	9	3
19	22	3
58	74	1
112	129	1
37	53	2
37	43	3
129	129	8
78	92	1
50	106	1
117	118	2
91	91	2
100	125	1
67	120	1
32	35	2
71	104	2
112	123	2
65	78	2
30	42	2
98	111	2
54	60	1
3	19	1
49	49	3
108	132	3
65	132	3
76	95	1
85	86	1
20	25	1
129	133	2
9	18	2
5	16	2
33	33	4
43	43	2
15	22	1
76	81	1
71	92	1
111	124	2
32	34	1
46	55	1
76	94	2
107	128	1
53	67	1
130	133	2
128	130	3
79	85	1
47	47	1
106	128	4
82	121	2
94	110	1
52	55	1
85	85	1
3	25	1
60	79	1
54	127	1
122	131	1
60	134	1
7	37	1
87	100	1
27	32	2
75	105	2
119	120	1
49	106	1
96	125	1
91	92	3
5	8	2
18	25	1
87	88	3
107	107	1
80	85	1
33	47	1
104	104	3
82	87	2
93	102	1
88	94	1
112	113	3
66	80	1
83	113	2
31	33	1
53	56	1
0	6	1
99	115	1
57	62	1
17	17	2
109	117	1
105	118	1
17	23	1
97	105	1
56	57	1
6	22	1
26	28	1
61	64	1
60	123	1
94	104	1
14	30	2
109	131	2
53	58	2
6	8	1
108	131	1
30	30	1
50	62	1
86	89	1
101	102	1
100	100	1
84	86	2
113	116	1
69	82	1
69	69	1
108	130	1
53	65	1
8	26	1
120	128	1
7	7	1
2	38	1
63	71	1
71	72	1
9	10	1
26	29	1
