19	19	3
44	44	10
108	110	2
2	9	2
111	111	5
120	120	1
124	124	4
50	50	7
132	132	5
123	123	3
128	130	5
109	109	6
33	33	8
118	120	3
122	123	2
31	31	7
83	83	6
43	47	1
55	55	5
15	15	7
66	66	5
9	10	6
87	87	10
12	12	8
24	36	3
61	62	5
16	16	4
101	101	2
102	102	6
2	3	3
70	70	2
8	11	4
6	6	9
86	87	3
56	56	6
67	68	3
27	28	3
56	108	6
17	17	9
15	19	1
68	68	6
104	104	2
99	99	8
131	131	4
14	53	1
38	38	10
19	21	4
53	54	1
4	4	3
3	16	4
11	11	10
104	105	6
43	43	8
130	132	5
30	30	10
45	45	4
76	76	1
85	106	1
67	69	2
2	60	2
99	100	5
74	74	3
84	84	2
118	119	2
25	27	2
106	108	1
115	124	6
6	7	2
122	122	2
112	113	1
108	108	5
60	60	1
90	91	4
126	126	1
4	16	5
52	53	7
73	73	5
58	59	1
29	29	5
18	18	1
109	112	1
94	94	4
92	92	5
9	11	2
131	133	1
22	36	1
114	114	12
72	72	6
83	96	1
21	23	2
13	13	2
5	30	6
65	67	2
97	98	2
131	132	4
119	130	1
77	77	1
31	32	1
97	117	2
91	92	1
26	26	8
115	115	2
28	29	3
72	73	2
23	23	9
20	20	6
31	36	1
54	54	6
83	85	2
25	25	5
70	122	2
19	45	2
21	26	1
80	107	1
21	21	3
86	94	3
127	128	2
78	86	2
79	79	6
10	38	3
8	15	1
8	20	1
106	107	3
58	58	5
87	95	1
34	34	1
63	64	7
70	78	1
72	126	1
93	94	1
125	128	4
64	95	3
115	123	3
24	24	7
20	22	4
88	88	4
32	32	5
17	23	1
4	5	3
53	53	3
35	35	4
105	129	1
59	59	3
10	10	3
86	86	2
36	36	4
107	107	1
98	98	2
115	128	4
82	82	3
7	29	2
92	93	5
71	71	2
119	129	1
1	10	2
85	85	3
16	17	2
89	89	2
0	90	1
106	131	2
101	103	1
6	42	3
49	50	3
22	24	2
95	95	2
96	97	4
80	106	1
12	14	2
128	128	1
7	7	3
5	5	2
125	129	3
62	62	1
21	24	1
129	129	6
29	30	2
97	97	4
98	123	2
106	106	4
99	116	1
115	117	2
62	63	1
121	121	5
7	10	5
82	97	3
15	16	2
130	130	1
102	103	1
49	52	2
96	96	1
102	104	1
119	119	4
32	37	1
90	90	2
34	35	1
63	84	3
79	80	1
28	28	1
57	78	1
76	78	1
22	22	1
91	97	1
118	130	3
105	126	1
130	133	2
3	4	1
8	16	1
44	45	1
134	134	2
50	52	1
61	61	3
56	57	4
8	8	1
3	3	1
103	103	1
67	67	3
70	88	1
17	18	1
60	61	2
58	83	1
100	115	1
107	108	1
108	109	1
101	102	3
60	96	1
93	97	1
65	65	2
8	47	1
14	14	2
47	58	1
99	122	1
36	51	1
109	110	2
38	60	1
113	115	1
100	100	1
12	13	1
7	49	1
84	94	1
116	116	1
