72	74	4
45	45	15
185	186	4
236	236	13
79	102	4
86	86	13
115	115	14
28	28	14
170	170	13
234	234	10
30	31	4
239	239	11
19	37	5
83	83	16
198	198	4
231	231	5
112	112	9
75	75	18
18	39	7
185	219	3
36	36	5
111	112	4
49	49	16
54	54	18
9	9	20
153	153	13
213	213	14
160	160	15
1	1	8
240	242	3
243	245	5
226	226	9
64	72	4
110	110	5
107	107	10
216	216	7
184	184	16
8	9	5
184	196	1
216	219	3
18	20	4
62	116	2
40	40	9
237	237	12
168	170	7
201	201	15
150	150	15
178	178	12
38	38	22
210	211	5
197	198	8
203	203	7
154	201	2
43	44	4
75	108	4
173	196	7
12	12	10
40	53	3
153	156	2
55	165	5
3	7	4
116	116	8
66	66	10
219	219	17
42	42	30
112	114	2
202	202	7
173	174	9
38	202	4
13	13	3
165	172	5
194	196	2
191	191	1
109	110	1
181	192	1
92	92	5
81	81	6
22	22	20
73	74	6
161	161	6
38	155	1
23	23	18
52	52	14
174	174	7
152	230	3
215	215	9
212	212	20
53	53	25
85	85	17
60	60	5
171	171	9
183	183	25
72	72	11
79	80	9
151	151	16
106	106	8
179	179	10
14	14	20
29	29	14
87	87	12
186	186	14
245	246	9
175	175	6
205	205	8
100	100	14
236	240	2
50	59	1
92	95	2
88	88	22
56	56	11
184	226	1
159	204	1
89	89	10
20	20	7
241	241	14
225	225	19
41	41	14
27	27	19
90	109	1
233	234	5
39	39	7
81	95	2
82	84	2
244	244	14
204	204	11
238	240	6
31	31	20
24	24	8
160	197	3
172	175	1
66	67	1
11	11	15
235	235	14
76	91	2
214	214	18
11	15	4
68	68	18
188	190	1
190	191	1
159	210	3
91	107	2
232	233	5
232	234	2
225	226	5
13	14	2
48	51	2
1	16	1
100	101	8
192	193	2
53	54	3
30	30	9
206	206	8
90	90	11
69	69	16
224	224	5
98	99	3
162	163	5
26	26	12
174	176	2
51	204	1
65	65	8
151	154	6
243	244	12
73	73	4
49	118	1
74	74	4
160	244	5
94	94	14
182	194	1
57	104	2
64	73	2
77	78	2
4	4	3
9	11	4
19	19	15
27	28	4
111	111	5
209	209	6
76	109	4
188	188	5
155	155	9
238	238	6
59	64	5
227	228	8
39	181	1
8	87	1
172	172	11
116	117	4
67	67	13
29	30	6
71	72	5
48	180	3
81	88	3
75	76	4
5	37	3
110	111	9
103	107	3
82	82	14
61	90	3
8	8	1
98	98	10
199	199	6
182	182	13
54	55	4
94	96	2
198	199	9
4	5	6
185	185	11
17	17	18
14	34	2
222	222	6
223	223	10
232	246	2
187	188	5
76	76	3
218	218	8
3	35	1
60	61	2
163	163	2
192	192	17
174	175	1
32	32	4
44	44	11
183	230	2
63	64	4
158	158	10
165	165	28
108	109	2
18	30	2
55	56	3
172	173	1
246	246	10
21	21	14
71	71	6
157	222	1
15	15	8
153	154	2
207	207	10
2	2	3
64	64	6
196	198	2
181	181	10
117	117	5
159	230	2
111	113	2
49	50	2
115	116	7
58	60	7
189	189	3
157	157	5
45	46	3
32	45	1
118	119	6
99	99	8
210	213	1
25	25	7
182	246	2
90	91	1
154	228	1
9	10	2
55	166	1
180	180	10
59	60	4
242	242	16
35	37	2
145	145	6
167	167	6
104	104	2
58	59	5
1	12	1
184	185	5
87	88	1
170	171	5
181	217	3
55	55	10
63	63	8
150	151	2
53	200	1
164	164	10
93	93	3
33	33	12
179	192	2
6	20	2
228	228	16
46	54	8
211	211	11
232	232	16
51	54	4
47	49	4
158	227	2
50	50	6
59	59	5
101	101	15
242	245	1
17	38	1
78	108	5
41	42	2
62	62	7
42	43	2
180	226	2
218	219	5
185	209	3
236	238	7
157	232	3
152	152	10
215	217	7
231	234	2
57	60	3
2	33	4
168	168	6
152	156	2
200	200	9
56	69	4
214	216	1
186	214	1
85	95	4
95	95	8
180	184	3
7	8	4
110	116	1
206	207	2
184	210	11
240	240	6
149	149	2
173	173	15
98	102	4
80	81	3
169	170	3
102	102	7
152	153	2
7	34	2
89	113	1
15	18	3
193	193	7
37	42	1
156	230	3
190	190	7
118	118	11
217	217	7
82	83	3
229	229	7
196	196	6
167	168	3
164	165	2
144	145	1
49	57	3
34	34	9
180	181	5
48	48	3
197	245	3
104	107	1
87	120	2
94	95	4
16	16	9
197	199	2
109	109	12
162	162	10
244	246	5
37	37	1
188	189	3
186	190	3
235	236	9
69	70	4
213	214	6
46	47	3
35	35	6
184	214	1
162	177	3
214	218	1
85	165	2
51	63	6
61	61	3
19	33	1
185	213	1
247	247	5
153	231	2
156	156	10
245	245	4
65	71	2
59	167	1
155	238	1
192	196	1
33	40	4
85	86	5
183	231	4
97	97	8
154	155	4
247	248	2
193	195	7
151	153	2
177	177	10
97	101	1
81	102	1
58	165	2
108	108	8
119	119	4
95	116	4
166	166	5
230	230	13
194	194	11
233	241	4
195	195	7
22	28	1
187	187	5
220	241	1
70	195	2
151	161	2
168	197	1
227	227	9
105	105	7
79	81	1
64	65	2
222	237	2
40	200	3
152	231	1
58	58	8
52	155	2
197	197	3
82	87	2
91	91	7
6	6	8
159	160	5
157	221	1
210	216	3
43	43	7
44	45	2
197	244	1
78	104	1
158	159	4
69	71	6
57	58	4
90	94	3
236	237	1
55	65	1
50	119	3
31	32	3
40	44	1
3	3	3
183	211	2
61	171	3
211	247	4
193	196	1
66	68	4
61	95	1
210	210	4
81	82	5
71	195	2
78	78	5
146	147	1
96	169	1
233	242	4
94	112	4
7	7	9
93	94	2
51	59	4
90	95	1
76	152	2
186	191	2
231	232	3
21	22	8
186	207	1
41	178	1
51	64	2
50	55	5
199	200	3
52	61	3
46	46	5
77	77	5
106	107	7
10	10	7
32	44	5
166	174	3
158	230	3
106	152	2
156	157	1
228	229	1
6	8	3
154	154	5
159	208	3
165	166	1
114	114	7
213	215	2
113	114	2
183	189	3
169	169	8
80	80	3
205	228	2
113	113	6
18	18	3
16	40	2
54	202	1
18	37	2
184	193	1
176	176	10
159	159	1
76	107	3
91	92	1
46	202	1
19	20	1
77	96	1
55	172	2
91	102	2
17	224	1
31	228	1
86	113	1
215	216	2
90	115	2
104	106	1
52	53	2
61	71	5
50	57	3
10	11	2
233	246	4
221	237	1
16	35	2
84	84	3
167	171	1
32	38	1
56	165	2
159	228	1
109	113	1
77	109	1
92	93	4
150	229	1
156	220	1
70	70	3
212	213	1
168	169	1
58	71	2
89	90	2
120	120	1
218	230	1
63	71	4
36	41	2
96	109	1
147	147	5
17	19	1
96	96	1
2	37	1
16	206	2
220	220	6
78	99	1
79	106	1
78	96	1
188	211	1
241	246	1
163	166	1
38	182	1
169	172	2
183	184	2
211	212	1
70	71	4
161	162	2
79	79	1
159	207	2
224	225	1
61	69	1
47	64	2
57	57	3
61	92	1
175	176	1
47	93	1
25	26	1
76	77	1
107	109	1
214	215	2
47	50	1
47	47	9
46	167	3
103	103	1
28	29	1
58	167	3
10	12	1
223	224	1
62	75	1
233	245	1
248	248	1
214	217	1
185	208	1
150	204	1
79	92	1
95	96	2
17	156	2
145	204	1
38	39	5
243	243	2
171	172	1
65	66	1
78	92	2
91	108	1
60	74	1
37	202	3
208	208	1
37	43	1
83	120	1
70	75	1
84	85	1
38	235	1
204	229	1
80	108	2
87	161	4
166	167	1
174	191	2
96	97	3
15	37	1
56	166	2
235	243	2
57	69	1
208	213	1
120	145	1
114	115	1
160	245	1
67	68	1
14	15	1
144	206	1
81	90	1
0	0	1
117	118	1
221	221	1
236	242	1
36	37	1
228	230	1
182	183	2
82	85	1
214	219	1
7	19	1
163	164	1
207	208	1
174	192	1
160	161	1
240	241	2
175	177	1
217	223	1
22	23	1
97	100	1
159	211	1
235	238	1
208	210	1
180	192	1
51	51	1
194	195	1
12	15	1
186	192	1
156	247	1
188	212	1
152	164	1
18	19	1
202	203	1
105	106	1
219	220	1
47	48	1
