135	135	4
96	123	3
26	26	6
79	91	2
88	92	10
2	14	2
33	89	1
140	140	7
85	85	6
32	32	14
115	116	7
29	29	9
27	27	4
104	106	1
93	95	3
24	24	6
76	76	7
91	91	11
25	27	2
84	84	10
72	72	5
19	19	10
104	120	4
75	75	7
115	115	9
114	114	13
11	21	6
73	77	5
114	117	6
106	106	9
92	93	3
82	82	3
4	4	7
111	111	3
120	121	1
108	108	11
33	33	6
18	18	17
105	105	4
113	114	3
15	15	10
75	78	6
124	124	10
83	89	1
0	16	4
117	121	1
23	25	8
80	80	10
12	13	16
3	37	4
116	117	1
34	34	10
11	11	12
129	130	2
101	102	2
7	10	2
71	71	8
1	16	7
12	12	9
82	111	1
77	77	7
92	92	3
21	21	10
35	35	23
127	127	5
94	107	5
95	95	5
104	116	4
38	38	6
87	87	14
112	113	2
96	96	5
98	98	14
97	97	9
3	22	3
36	38	2
120	120	11
125	126	10
78	103	2
103	103	5
83	83	5
104	104	10
110	111	4
126	127	3
3	3	15
98	99	3
119	119	11
93	93	4
118	119	10
91	92	1
113	113	3
14	14	7
109	109	9
131	131	6
16	90	1
110	110	15
100	100	7
100	102	3
15	30	2
132	132	8
29	31	4
106	119	4
71	130	2
79	79	6
7	7	4
1	2	3
92	94	4
11	12	1
138	138	3
121	121	6
130	130	23
82	84	6
30	31	3
101	106	3
1	1	7
128	128	8
34	37	5
109	113	1
136	136	7
126	126	6
27	30	6
87	88	6
29	34	2
7	8	1
4	37	3
37	37	4
3	4	2
90	91	5
84	85	7
90	90	3
114	115	13
73	73	9
75	77	2
13	13	2
105	106	1
16	16	4
0	14	1
1	104	3
38	72	3
81	83	2
72	87	2
18	32	4
28	28	1
83	117	5
119	122	7
116	116	2
0	13	2
85	90	2
78	78	2
35	37	2
22	22	2
93	96	1
25	26	3
6	10	4
95	119	1
125	125	4
73	78	2
74	75	5
24	25	4
111	113	5
117	117	6
84	91	1
129	129	9
134	134	2
20	21	1
127	128	1
13	66	2
88	88	3
21	127	1
36	37	2
17	17	4
123	123	6
139	139	1
34	35	7
99	99	3
6	25	1
28	30	1
99	106	1
117	119	5
17	102	1
23	36	2
102	102	5
13	14	6
2	5	2
27	28	5
6	6	3
118	118	1
122	122	3
107	107	3
112	112	4
74	74	2
133	133	5
20	20	1
108	126	3
19	20	2
82	85	1
73	88	2
0	102	3
74	77	5
84	90	1
75	123	2
31	32	1
25	25	1
81	90	5
23	121	3
83	84	3
36	36	2
10	10	4
22	31	1
86	86	2
123	124	1
100	116	1
93	101	1
86	87	2
79	80	1
2	3	2
17	19	1
111	122	2
98	108	1
137	137	1
24	30	3
2	2	3
23	23	1
18	19	1
102	108	1
103	114	1
23	26	1
36	100	1
81	81	1
108	110	1
93	94	1
101	101	2
89	89	2
0	19	1
124	125	1
9	9	2
101	103	1
113	119	1
4	6	2
124	129	1
103	111	1
1	19	1
105	112	1
22	23	1
92	110	1
119	124	2
4	5	1
87	109	1
71	100	1
85	96	1
121	122	2
30	35	1
3	6	1
8	8	1
