65	66	4
70	70	3
5	5	8
30	30	10
146	197	1
113	113	4
82	82	3
9	9	17
27	51	5
152	191	2
13	13	10
132	132	12
64	65	2
94	94	2
137	137	4
196	196	4
56	56	9
73	73	8
69	69	9
191	191	9
153	186	3
8	14	2
121	121	12
39	39	3
89	89	9
141	141	10
195	195	4
129	129	6
107	107	9
182	182	10
102	102	8
40	43	4
135	135	9
116	116	7
124	138	2
95	95	9
79	80	6
168	178	1
120	120	7
68	68	2
173	174	5
103	103	6
48	48	15
47	47	9
42	42	7
76	77	3
67	67	6
7	7	4
111	145	3
131	131	10
106	150	4
28	29	2
156	196	1
164	164	9
61	61	7
190	190	5
56	111	4
87	87	9
5	6	1
28	28	9
75	75	4
15	38	2
113	121	3
58	139	4
27	61	13
98	98	2
36	36	16
150	151	7
191	192	2
96	96	5
165	165	6
142	142	4
144	144	5
31	31	13
158	159	1
7	9	1
50	52	2
95	182	2
113	140	2
171	171	2
3	10	3
170	170	4
189	189	6
134	134	15
109	109	11
107	176	7
44	44	3
4	41	1
14	14	9
110	110	24
53	53	11
162	194	2
148	148	4
4	5	1
7	24	4
12	12	10
112	112	4
119	181	1
54	134	2
51	75	2
22	22	2
83	83	9
35	35	3
154	159	2
33	38	3
187	187	9
49	49	10
139	139	3
72	72	5
178	179	2
12	31	2
26	28	1
156	156	7
162	162	4
157	157	16
108	123	2
74	76	9
73	74	2
167	178	2
3	3	6
18	19	3
45	45	6
115	115	11
28	30	4
159	159	13
86	87	3
83	85	6
185	186	1
186	187	3
153	191	1
65	117	2
43	43	6
145	145	4
154	154	5
143	143	2
166	187	2
193	193	7
163	163	3
15	15	7
58	58	9
152	152	5
53	54	2
41	41	8
174	174	4
84	84	6
20	20	5
169	185	3
97	167	3
81	86	4
34	34	2
125	126	4
179	179	22
119	119	11
106	106	3
138	138	4
45	79	2
159	194	5
40	40	4
60	60	2
24	24	4
51	149	3
45	46	9
46	46	14
20	22	8
29	167	4
116	124	2
149	149	10
122	122	9
192	192	8
175	175	6
177	178	4
39	68	1
148	152	2
168	168	5
10	10	4
161	165	1
127	127	1
76	82	3
31	58	5
61	123	7
35	40	7
29	29	4
133	133	6
32	32	9
18	18	9
39	77	3
23	77	3
155	155	3
76	76	13
57	57	3
185	187	2
104	104	4
63	63	5
146	146	4
56	129	4
37	37	2
160	161	1
156	164	1
182	183	3
188	188	1
158	158	5
187	188	2
47	48	5
171	173	1
65	70	2
74	74	6
38	67	5
16	69	1
65	77	4
50	73	4
117	118	1
27	27	2
31	94	1
42	50	5
192	193	2
39	40	1
8	8	5
48	52	1
59	59	7
140	140	11
40	41	4
63	64	3
116	183	2
85	87	1
168	174	4
21	21	4
88	89	2
109	111	4
177	177	3
112	141	1
165	166	1
17	17	5
99	99	6
120	197	3
83	86	2
42	49	2
173	173	2
153	154	3
124	125	2
2	59	3
126	128	3
19	20	5
60	62	2
79	84	3
50	75	1
56	65	2
150	150	9
9	11	4
30	31	1
3	133	2
125	125	2
183	184	1
84	134	1
103	170	1
38	49	1
97	97	1
11	11	6
173	175	3
52	52	4
46	51	2
171	172	5
44	51	2
148	150	6
183	186	3
116	117	7
184	184	6
107	171	3
79	79	2
78	78	11
126	135	2
37	48	2
48	50	2
172	172	5
166	166	3
113	197	3
127	149	1
197	197	2
109	110	1
161	161	2
185	185	3
52	56	2
73	75	1
33	33	6
28	32	3
1	1	3
174	176	1
81	81	1
38	38	6
135	170	1
61	69	3
55	55	11
103	150	2
186	194	3
65	65	4
126	126	3
110	111	4
94	95	5
170	176	2
159	161	2
103	133	3
3	4	2
179	180	3
152	194	1
2	2	3
168	169	2
178	178	1
55	56	2
15	20	2
88	88	10
62	123	2
114	114	13
62	63	2
65	104	4
176	176	4
135	173	2
145	146	3
169	169	5
6	6	2
119	124	1
94	183	1
108	137	1
123	124	4
9	45	1
183	183	8
0	0	1
66	66	3
155	187	4
188	189	1
142	143	1
61	62	1
158	194	1
98	99	3
60	61	4
50	50	4
23	23	3
17	18	3
26	26	1
18	20	1
4	38	2
15	24	1
102	166	2
4	34	1
174	175	1
158	179	4
159	160	1
23	74	1
96	132	2
52	54	1
157	181	1
99	101	2
55	60	1
87	89	1
95	96	1
98	100	1
77	77	1
194	194	4
4	4	2
14	23	1
161	163	2
173	176	1
141	182	2
10	11	3
63	134	3
93	96	1
99	131	1
12	13	2
113	139	2
18	50	1
70	74	2
9	10	2
111	111	1
57	138	4
190	192	2
100	100	2
143	145	1
64	66	2
43	44	1
130	130	6
66	142	2
105	105	3
75	78	1
58	127	1
106	147	1
153	153	3
71	71	1
25	26	1
54	55	2
112	197	1
96	98	3
134	136	2
47	133	1
8	22	1
3	13	1
136	136	4
110	184	4
2	60	2
54	54	7
41	42	1
27	132	1
124	127	1
29	31	1
84	135	2
151	151	2
147	147	3
85	85	2
118	118	1
117	117	4
9	38	1
94	178	1
24	69	2
113	114	1
52	57	1
161	162	1
112	113	1
124	124	1
81	85	2
165	167	1
134	137	1
24	36	1
112	143	1
118	147	1
24	25	2
127	128	3
144	145	1
58	121	1
153	196	1
49	50	1
186	190	2
93	126	1
186	186	2
163	190	2
69	73	1
104	105	1
58	140	1
16	18	1
4	29	1
128	128	1
15	52	2
111	140	1
196	197	1
150	152	1
9	14	1
111	144	1
157	160	2
62	70	1
187	189	1
160	160	1
7	23	1
176	177	1
6	10	1
123	123	1
127	156	1
167	168	1
180	180	1
84	85	2
89	117	1
31	64	1
103	151	1
119	126	1
181	181	1
65	85	1
138	149	1
86	134	1
184	185	1
127	148	1
73	82	1
