45	45	11
59	59	7
33	33	8
18	21	3
119	134	3
106	108	8
58	70	1
15	15	5
95	95	9
25	25	4
78	78	8
26	29	5
17	17	10
77	78	2
95	96	7
23	24	2
18	69	2
19	132	3
126	126	10
106	107	4
69	113	1
27	27	4
124	124	9
31	31	4
104	105	1
85	85	16
2	3	1
93	93	9
44	44	4
85	90	4
32	32	6
107	107	6
3	4	6
99	99	2
47	47	8
105	105	12
75	76	5
37	39	6
56	56	6
110	111	2
111	111	8
43	44	5
76	76	4
64	64	10
129	129	7
46	46	5
10	10	4
18	18	9
111	115	4
111	117	1
63	63	3
12	12	4
0	0	9
6	6	9
16	17	2
20	20	6
108	108	7
121	122	6
103	103	2
19	19	8
46	47	1
82	82	4
14	14	9
120	120	12
34	34	2
116	117	3
122	122	7
75	75	5
69	69	3
90	90	3
121	121	2
114	114	3
9	9	3
117	117	4
7	7	5
81	81	2
78	79	6
109	109	2
41	41	3
66	66	8
71	71	3
62	62	16
60	60	9
92	93	2
78	101	4
83	84	5
72	74	2
89	89	2
116	116	7
21	21	4
48	48	11
6	7	1
30	30	4
87	87	3
109	110	6
74	74	2
86	86	8
131	131	1
37	37	3
68	68	5
27	28	2
56	57	3
22	24	7
77	77	6
31	99	1
39	39	5
84	84	14
72	72	7
111	112	1
29	129	3
101	101	4
74	75	3
8	18	3
94	95	1
88	88	7
85	96	3
19	112	1
115	115	5
10	11	2
91	91	6
42	42	3
22	22	3
16	18	2
132	132	3
112	112	7
15	16	2
71	124	1
6	16	1
118	118	6
113	114	1
124	125	1
56	101	3
102	102	5
129	130	1
61	61	2
79	79	7
97	97	4
42	43	2
101	102	1
96	96	5
97	98	1
99	101	1
118	119	2
82	83	2
87	88	3
76	110	3
8	11	1
36	36	4
15	44	1
38	39	4
125	125	1
46	124	3
14	41	2
31	32	2
104	104	2
64	65	2
80	102	2
45	126	2
2	2	4
94	94	2
92	92	7
35	35	1
63	64	4
121	123	3
119	119	3
65	65	2
33	34	2
89	90	5
70	70	1
111	133	1
130	132	2
21	110	1
11	11	2
55	55	5
16	55	3
13	14	2
61	62	5
19	20	4
8	17	1
99	100	1
100	102	1
70	85	2
82	85	1
70	131	1
1	1	3
24	25	1
28	28	1
109	115	1
18	19	1
24	24	2
80	80	5
8	8	1
51	54	2
59	71	2
84	96	2
0	1	1
60	81	1
38	41	1
107	108	1
34	35	1
3	3	2
81	82	1
89	93	2
37	38	1
0	46	1
76	77	2
67	73	2
88	96	1
77	110	1
68	85	1
67	67	1
45	46	1
60	64	2
93	94	1
71	74	1
60	63	1
57	57	1
16	16	1
83	100	1
99	102	1
