96	97	9
26	26	2
106	106	10
82	84	10
66	69	3
37	38	10
48	69	5
46	46	14
74	74	7
93	94	6
39	73	5
27	27	7
64	64	18
40	73	4
96	99	6
37	37	6
108	108	22
80	81	4
80	80	11
63	63	6
105	105	18
100	100	9
109	110	2
70	70	18
32	46	3
85	86	8
91	91	16
93	95	6
89	89	9
65	78	5
43	44	5
75	75	25
65	66	6
25	25	1
99	99	24
30	30	4
110	113	2
53	62	2
68	68	14
56	57	9
104	104	14
85	98	3
83	83	15
75	89	1
79	79	14
71	71	7
60	60	10
87	96	1
65	77	2
59	59	14
86	86	7
39	39	20
104	105	5
62	94	6
100	110	2
100	101	4
96	96	3
101	103	4
63	91	2
73	73	13
39	72	7
60	61	3
76	76	13
79	98	3
109	109	18
87	89	7
53	53	6
83	101	1
114	114	3
77	80	2
74	75	8
90	90	5
81	81	7
20	23	9
83	87	5
39	41	6
38	38	13
92	92	17
43	43	6
25	27	4
95	97	3
77	78	8
26	27	3
35	35	11
67	69	8
69	69	7
103	105	3
103	107	2
38	107	5
112	112	5
98	98	8
66	66	12
24	24	6
66	71	3
81	88	2
75	76	10
111	113	6
102	102	21
108	110	2
58	58	3
95	96	5
86	90	1
23	48	6
92	93	9
53	60	3
97	98	2
78	79	10
38	79	4
72	73	6
44	45	2
111	111	5
71	72	8
95	95	11
81	101	5
31	31	6
39	40	6
85	100	1
38	39	7
47	48	4
88	91	5
73	74	5
82	91	3
56	56	10
97	97	7
25	26	2
81	89	1
82	94	7
84	84	21
110	111	5
99	112	2
65	88	2
84	99	1
69	70	5
106	107	13
36	36	11
57	57	7
105	107	2
53	59	5
59	60	12
50	50	5
101	112	2
80	87	8
62	62	7
82	85	5
34	36	3
101	101	14
98	103	2
49	51	3
85	85	14
62	96	5
64	91	3
85	87	1
65	65	23
43	72	1
37	72	1
60	85	2
94	94	3
44	44	3
91	97	1
103	103	12
107	108	6
79	80	5
72	91	2
99	100	6
54	55	1
22	23	4
36	38	3
54	54	3
41	41	12
76	78	2
47	55	4
64	66	8
78	78	7
59	97	1
29	32	6
73	76	1
74	88	3
107	107	15
41	42	1
93	93	4
97	99	3
40	96	3
30	31	5
19	19	2
90	91	3
75	81	8
82	82	8
63	93	4
70	71	4
80	86	3
40	41	3
94	95	9
47	47	4
48	48	3
21	21	6
70	77	4
102	103	7
87	94	2
73	75	2
45	45	5
56	58	4
61	95	3
110	110	14
113	113	4
48	49	2
53	55	3
53	95	2
82	83	4
49	63	1
36	37	3
71	73	3
47	59	3
87	90	2
105	108	2
60	96	2
29	62	4
76	80	1
56	59	3
55	59	5
98	100	3
87	87	5
60	93	2
105	106	4
91	94	3
83	106	3
35	36	2
81	82	3
90	94	3
80	88	1
70	76	1
40	42	3
77	77	6
96	98	1
49	49	4
98	99	7
55	55	3
104	107	3
79	105	1
61	61	2
35	72	3
109	111	2
89	93	1
51	52	1
37	69	2
42	72	2
35	40	4
37	75	1
47	56	3
87	97	2
40	40	3
62	91	1
29	29	2
74	77	1
24	51	2
30	32	4
82	87	2
49	95	4
34	63	2
81	87	2
66	67	9
80	101	2
102	104	6
37	39	6
86	97	1
34	35	3
101	109	2
23	23	1
64	90	4
79	85	1
63	64	2
22	22	4
33	33	6
62	66	1
48	56	2
49	52	5
62	90	1
23	47	1
20	20	2
101	102	3
77	91	2
81	93	1
89	91	1
38	78	3
49	50	2
84	97	3
106	109	1
59	61	2
114	115	1
68	69	1
24	28	4
88	88	4
74	76	3
58	94	2
32	33	2
46	47	2
109	114	1
84	107	2
84	98	1
58	59	2
108	109	1
91	92	1
63	94	4
64	88	1
86	87	1
33	34	1
24	25	1
34	34	1
63	68	2
84	85	2
62	63	1
64	65	5
57	58	2
72	72	1
98	114	1
22	48	1
42	42	4
35	47	1
112	113	5
37	77	1
78	80	1
89	90	4
37	95	3
83	84	2
57	60	1
28	46	3
65	67	3
58	60	2
82	100	1
63	92	1
48	54	1
53	54	3
27	28	1
48	94	1
28	29	1
51	51	4
32	32	1
107	111	1
43	95	2
28	51	3
42	93	2
47	60	2
27	46	1
70	74	1
84	106	1
36	72	1
29	30	1
82	98	1
25	46	1
76	77	1
67	68	1
103	104	1
48	93	1
34	74	2
79	101	1
48	52	1
21	54	1
37	68	1
19	26	1
88	89	1
80	95	2
76	81	1
52	52	1
64	89	1
