92	92	9
27	27	16
83	83	2
65	69	3
8	9	3
52	52	6
21	22	2
122	122	4
63	64	6
10	10	7
121	121	11
102	103	5
34	76	2
50	111	2
13	13	18
71	99	4
25	25	5
71	71	12
111	111	6
56	58	4
30	32	7
88	88	6
96	96	5
98	98	12
72	122	3
113	122	1
55	55	4
79	79	14
100	100	7
24	49	1
74	74	8
86	86	15
4	4	9
66	66	3
119	119	13
120	120	9
130	130	8
85	86	6
35	62	4
127	127	10
77	78	1
7	8	9
28	30	4
117	117	13
9	9	7
88	94	1
84	113	1
1	2	1
19	19	3
116	116	4
106	106	7
78	79	1
91	119	2
28	28	11
105	105	13
52	54	3
99	99	7
109	109	9
24	24	6
35	35	6
68	68	3
57	60	2
94	94	9
134	134	5
125	125	4
70	71	4
34	88	2
124	124	4
76	76	8
5	6	6
26	26	15
3	3	8
114	114	11
57	57	5
103	103	8
2	3	5
75	75	13
63	99	1
78	78	4
0	0	13
30	30	12
135	135	2
7	86	1
49	50	4
81	81	4
26	27	4
86	92	5
133	134	4
81	105	2
54	89	2
124	130	3
10	11	12
52	53	3
31	31	1
88	89	1
70	70	4
69	69	6
112	112	11
122	123	9
38	38	5
133	133	7
37	37	6
88	129	1
123	123	4
110	110	7
48	82	2
33	34	6
49	52	2
23	23	12
50	116	5
34	34	18
104	104	22
64	64	12
124	125	1
47	47	4
60	60	13
45	46	5
52	55	2
2	2	3
14	14	5
91	91	12
44	44	5
90	90	13
50	50	15
123	124	2
59	62	2
60	116	1
29	29	17
97	97	7
31	32	5
62	62	9
60	77	1
18	18	4
98	103	6
45	51	3
33	33	9
24	25	1
53	53	10
68	69	6
63	63	7
17	17	7
0	12	4
24	35	2
21	21	9
43	43	8
46	71	1
82	82	6
3	4	7
93	94	2
62	63	1
54	55	2
102	102	8
112	129	1
85	85	13
112	123	1
5	5	13
32	32	5
95	95	10
72	72	5
59	59	5
68	76	2
77	79	2
126	126	9
73	73	13
80	80	6
54	128	3
83	84	2
77	77	2
65	65	5
87	133	6
93	93	13
127	129	2
129	129	5
44	100	1
22	43	1
5	99	1
1	1	9
104	105	1
70	95	1
103	104	1
46	46	4
36	36	6
61	61	5
101	101	8
126	127	2
118	118	2
132	133	4
115	115	7
114	134	2
58	60	2
44	45	3
130	133	1
132	132	5
74	95	1
59	61	1
99	101	1
107	107	6
99	129	1
16	85	1
101	106	3
42	72	1
79	80	2
11	12	3
130	131	3
29	61	3
109	110	4
131	131	11
24	31	1
66	67	3
27	28	1
85	112	4
55	56	2
14	21	2
36	37	3
73	79	2
87	87	8
111	122	1
10	14	2
11	11	5
113	113	6
37	92	3
22	22	6
5	10	2
99	102	1
6	13	1
53	54	1
94	95	1
127	128	7
88	93	3
77	124	2
35	36	3
134	135	3
55	93	1
124	126	1
128	128	9
70	72	1
86	116	3
95	115	1
67	89	2
1	4	3
72	76	1
14	20	2
64	65	1
14	22	1
47	71	2
17	18	3
29	30	2
108	130	1
30	43	2
8	8	3
111	112	1
16	16	9
11	13	1
65	68	1
68	117	1
55	127	1
13	15	2
55	114	4
49	49	2
67	68	5
91	92	3
84	84	3
15	45	2
6	25	2
93	119	1
7	7	2
61	92	3
4	7	4
86	88	1
64	92	3
78	132	1
5	30	1
52	79	2
107	124	1
117	118	2
0	21	3
54	54	2
1	42	4
89	90	2
13	14	1
55	80	1
63	65	4
107	117	2
92	93	2
30	119	3
15	16	1
115	116	1
43	95	2
20	21	1
53	55	1
15	15	2
15	21	1
28	89	2
120	121	1
55	59	1
109	116	1
20	20	2
89	91	1
64	101	1
18	27	1
117	132	1
20	22	2
56	56	1
45	45	2
64	100	1
43	53	1
112	113	1
89	126	2
44	52	1
65	120	2
50	135	2
63	93	1
76	116	2
51	131	2
75	76	2
108	111	1
6	14	3
96	97	1
48	107	1
15	23	1
82	115	1
82	87	2
45	121	2
51	51	1
30	35	1
29	35	2
5	94	1
86	87	1
92	95	1
71	76	1
77	115	2
13	28	3
97	106	1
94	98	1
84	90	2
43	44	2
82	111	1
67	67	2
85	88	1
71	74	1
103	105	1
59	64	1
34	71	1
116	118	1
116	117	1
55	128	1
15	17	1
13	27	1
63	95	1
85	87	1
82	112	1
20	45	2
6	6	3
119	121	1
99	128	1
80	82	1
28	32	1
25	26	1
109	123	2
84	85	1
16	17	1
113	123	1
87	111	1
106	118	2
90	104	1
65	66	1
61	62	1
115	117	1
119	120	1
22	23	1
122	129	1
12	12	1
14	28	1
110	130	1
83	88	1
106	107	1
128	129	1
92	103	1
4	5	1
89	89	1
107	115	1
85	114	1
110	111	1
52	129	1
84	114	1
57	58	1
106	116	1
