33	33	6
77	85	3
70	135	2
147	147	8
94	116	7
157	157	13
16	18	2
101	101	11
100	100	11
151	155	4
9	9	10
109	111	5
127	127	8
66	66	13
114	114	5
75	75	24
1	25	1
30	30	7
100	148	3
42	42	16
77	77	8
118	120	1
15	49	3
72	72	9
5	5	8
140	140	10
31	31	6
130	131	9
32	40	2
45	46	4
94	97	2
43	50	1
146	158	8
53	56	1
40	40	10
134	134	7
133	133	7
104	104	9
86	86	5
90	90	11
63	153	4
106	106	10
16	16	12
31	34	4
89	89	10
22	22	7
77	106	2
141	142	6
0	151	4
91	92	2
116	116	8
74	104	2
145	145	12
37	37	10
39	39	3
73	73	14
95	97	3
26	26	12
44	44	8
126	148	1
21	21	12
131	131	18
24	25	4
113	115	1
40	81	4
1	1	13
29	30	6
121	122	7
93	93	4
123	123	10
70	70	1
8	13	2
85	85	5
8	9	1
29	29	5
69	69	6
91	95	3
38	38	2
78	78	11
119	119	3
0	1	4
0	25	2
82	83	2
67	71	7
66	157	3
5	6	7
120	121	2
32	33	6
112	112	7
152	152	2
105	106	1
1	2	4
19	19	13
148	149	5
4	5	3
95	96	3
98	98	10
144	145	2
69	157	1
30	148	2
122	122	2
11	11	8
24	24	7
111	111	2
146	146	8
128	128	10
133	134	7
142	142	5
55	56	1
123	124	9
99	101	3
132	132	3
128	129	2
22	23	2
144	144	15
105	127	1
35	36	6
94	94	15
0	0	10
23	23	6
128	133	2
93	96	4
106	113	1
131	132	2
112	130	2
40	41	2
103	103	10
123	155	1
83	85	2
41	41	9
156	156	5
125	125	6
39	132	3
51	51	1
139	139	8
147	148	5
75	100	1
83	86	1
87	87	6
103	138	1
68	136	7
12	13	2
147	157	2
52	52	3
29	35	1
65	139	1
129	129	4
27	27	7
113	113	3
83	108	3
43	66	4
97	97	7
8	11	1
120	120	8
22	45	5
126	147	3
10	11	2
77	112	1
80	80	6
2	2	13
87	90	1
13	13	10
121	121	6
130	130	6
92	96	2
34	40	1
92	92	4
47	47	2
62	70	1
144	148	1
46	46	10
54	54	2
154	154	4
36	72	4
81	82	5
151	151	5
65	66	3
42	43	4
26	142	1
19	21	1
138	138	6
150	150	5
111	112	1
117	123	4
15	156	5
93	94	3
34	34	9
118	118	4
64	64	5
114	115	2
67	68	5
65	65	8
20	143	2
17	18	5
107	107	6
114	116	2
102	102	3
24	99	5
25	26	1
8	8	3
43	44	5
4	4	9
28	47	1
148	158	2
5	25	3
2	4	3
141	141	5
96	96	4
129	130	2
7	7	6
50	50	8
4	52	5
14	14	8
15	15	7
38	39	2
108	108	2
134	135	3
3	3	4
23	24	2
105	105	7
79	81	1
25	27	5
99	99	13
49	49	1
88	91	4
10	10	3
117	117	7
48	48	2
109	109	4
88	88	5
81	81	2
20	20	2
2	5	2
9	10	1
153	153	5
155	155	8
148	157	2
28	29	2
52	53	3
6	6	4
0	150	3
20	32	3
21	45	1
39	133	5
136	136	7
36	36	4
91	111	1
124	125	3
29	47	4
22	26	3
76	76	4
148	148	6
124	124	4
119	120	4
18	18	6
62	62	1
68	88	1
47	51	1
3	4	2
73	129	3
103	106	2
110	115	1
158	158	6
34	47	1
108	111	2
102	104	1
36	67	2
131	134	1
149	149	2
15	16	2
72	147	1
63	136	1
110	112	3
43	43	2
19	20	1
23	25	5
87	91	1
115	115	7
88	89	1
103	104	1
25	25	2
32	32	3
20	21	3
6	8	2
65	151	1
135	135	5
4	48	4
25	47	2
137	137	5
73	74	1
12	12	5
73	150	1
88	90	1
117	118	2
123	153	2
41	158	1
68	69	3
123	126	3
89	105	1
5	8	2
14	48	1
68	71	2
68	68	2
68	70	1
69	88	3
94	105	2
64	128	2
156	157	2
23	99	2
146	148	1
4	9	2
69	137	1
30	132	1
110	111	2
88	103	1
140	141	2
155	156	3
86	87	1
17	19	1
35	84	1
57	57	4
95	95	1
146	147	1
128	139	1
46	52	2
135	136	1
16	141	3
113	114	2
126	126	2
146	159	1
71	71	3
33	44	1
21	22	1
39	158	1
90	125	1
64	129	1
35	35	4
24	100	1
74	129	1
76	77	3
79	79	1
104	105	2
39	66	3
110	110	4
91	91	3
152	153	1
1	23	1
92	117	1
31	46	3
1	21	3
82	82	2
14	16	3
89	108	1
55	68	1
125	126	1
51	52	1
47	48	1
77	125	1
52	64	1
83	83	2
108	112	1
14	19	1
23	140	3
18	27	1
29	150	1
56	68	1
38	45	1
36	40	1
80	124	2
85	86	1
50	51	2
116	117	2
80	123	1
62	63	1
92	110	1
127	148	1
143	144	2
9	35	1
12	18	3
34	48	1
45	49	1
136	137	1
133	137	1
30	144	1
80	81	2
87	107	1
53	53	2
123	127	1
129	131	1
28	28	1
21	46	1
