23	76	2
21	25	4
92	92	3
147	147	6
147	149	1
57	57	6
76	77	2
77	88	2
108	140	1
20	20	4
134	135	2
62	66	5
44	45	3
83	83	1
86	86	6
129	129	5
19	19	1
141	141	2
26	33	4
118	118	1
53	53	4
154	154	4
121	125	2
47	72	1
87	87	5
110	110	4
12	15	2
65	151	3
101	104	5
5	9	3
16	17	3
23	26	1
39	56	3
51	108	5
27	27	2
90	128	3
31	31	5
113	121	1
145	146	4
100	100	9
39	39	7
144	145	3
28	30	3
106	107	5
137	138	1
41	43	2
94	94	10
46	46	4
6	21	6
129	132	2
31	32	1
30	42	1
107	108	7
33	36	2
73	73	3
62	76	4
2	2	2
127	127	2
22	23	1
121	121	2
28	44	4
17	17	3
88	88	3
82	82	2
34	34	1
140	140	4
136	138	3
7	7	1
125	125	5
138	138	5
135	135	4
26	34	4
50	108	5
121	122	2
71	71	2
63	63	2
122	122	2
36	37	3
85	85	8
65	65	11
9	9	2
67	67	5
45	45	4
95	142	3
74	75	1
109	109	5
29	29	6
131	131	3
73	74	1
95	95	3
74	74	5
153	153	7
97	100	3
8	8	2
44	44	3
81	92	2
48	53	1
138	139	4
104	104	5
79	79	7
119	122	2
114	114	4
148	148	4
57	58	3
6	6	6
79	119	1
25	27	2
126	126	2
22	22	1
23	23	4
51	51	1
49	49	1
118	135	1
81	85	4
102	102	4
68	68	1
99	99	2
109	110	3
47	47	5
62	62	6
63	77	1
97	98	4
108	108	2
77	151	1
48	48	8
55	55	2
22	37	2
82	122	3
136	136	3
13	13	4
4	4	4
113	125	2
108	109	1
129	130	2
126	127	2
149	149	5
132	132	2
99	120	2
42	42	3
8	14	3
133	133	3
2	3	4
25	25	4
64	64	1
83	93	3
86	87	3
40	40	3
120	120	3
102	124	5
101	101	6
32	33	1
43	43	9
146	146	10
76	76	4
38	39	3
139	141	1
57	108	2
98	98	2
12	14	1
69	74	1
37	37	3
111	111	2
4	34	1
80	93	2
58	58	1
67	68	2
8	10	2
3	27	1
25	26	4
24	24	2
56	57	4
131	132	1
12	12	6
124	127	1
34	36	2
75	76	2
8	9	3
107	107	2
12	13	1
18	18	1
137	142	4
116	116	2
72	72	1
77	77	6
80	80	1
104	105	1
28	28	3
43	75	3
64	65	2
99	115	3
21	21	2
44	134	2
47	133	4
23	37	1
21	24	2
129	133	2
96	96	1
9	10	1
149	153	1
113	113	2
108	114	2
30	30	2
35	35	4
46	47	2
96	99	3
34	35	2
8	11	2
55	57	2
139	152	1
7	9	1
144	144	1
122	127	1
54	54	2
123	126	1
41	41	2
27	33	1
130	131	1
16	16	4
72	74	1
6	32	2
130	130	2
90	90	1
28	29	2
3	3	2
142	150	1
21	105	2
4	5	1
124	126	2
85	86	1
102	105	1
78	142	1
46	50	4
97	144	1
30	50	1
3	32	5
86	128	2
67	136	2
142	142	1
36	36	6
35	38	2
123	124	5
152	152	1
6	15	1
46	70	1
22	36	2
32	32	3
98	137	3
147	148	3
80	85	1
116	121	2
62	72	1
26	26	2
39	68	1
26	27	1
143	154	1
122	123	3
11	11	2
14	15	1
145	145	1
143	143	2
115	116	2
99	101	1
76	78	1
48	68	2
112	112	1
137	137	1
52	52	1
72	73	1
123	123	1
91	123	2
35	37	1
63	142	1
17	24	1
17	18	1
134	145	1
15	15	2
99	104	1
104	140	1
84	121	1
40	41	1
103	103	1
18	19	1
87	88	1
107	110	1
66	66	1
81	81	1
138	142	1
93	93	1
106	106	1
119	120	1
70	70	1
11	12	1
38	38	1
