168	168	12
99	110	1
177	178	4
145	149	3
45	68	1
56	58	2
103	104	5
102	102	12
154	154	28
158	158	12
43	43	19
15	15	14
30	31	7
179	180	10
5	5	11
3	4	8
113	142	1
104	105	6
134	135	4
75	75	4
150	151	4
112	113	3
112	141	4
155	161	1
34	34	12
39	39	15
93	93	9
64	64	9
146	146	14
58	58	3
88	88	37
139	139	21
94	95	6
13	13	5
130	131	7
24	24	8
44	44	15
44	89	3
89	89	14
171	171	13
107	107	2
180	180	14
16	27	1
31	32	4
27	27	16
163	164	14
119	119	7
120	120	9
122	122	16
162	162	6
81	81	5
114	124	9
61	61	11
152	154	5
148	150	4
31	31	16
55	58	4
149	149	8
132	132	12
114	118	1
65	95	2
115	118	6
119	120	5
35	35	9
100	100	2
141	148	1
87	88	5
158	159	8
113	113	14
8	9	5
112	112	23
95	97	2
90	90	13
8	8	2
82	85	3
152	152	6
15	27	1
37	37	16
150	150	13
58	84	3
2	3	1
167	174	1
15	16	2
97	97	8
161	161	9
89	90	6
135	137	2
62	62	12
178	178	8
76	76	10
45	45	10
175	175	8
72	73	4
173	173	4
94	94	4
2	4	3
58	59	6
1	1	8
156	160	2
12	12	4
13	87	2
58	92	1
83	83	4
30	33	4
171	172	5
136	137	2
66	66	11
79	79	8
63	63	17
83	86	3
80	81	4
134	136	5
157	157	10
144	144	11
116	116	12
18	18	3
143	143	7
55	56	5
108	108	5
85	85	5
36	36	17
114	115	18
5	7	2
164	164	6
8	10	2
45	57	4
19	20	1
33	33	8
65	65	13
163	163	7
104	104	5
77	78	4
38	39	4
147	147	18
12	13	5
128	128	6
64	82	6
14	14	7
142	143	4
167	171	3
166	167	8
22	22	5
64	65	1
135	140	3
57	57	3
138	138	4
153	153	4
121	122	10
7	8	4
120	121	1
24	37	4
52	58	3
44	90	3
70	70	3
84	109	1
131	132	12
160	160	10
147	173	3
7	7	6
103	103	8
55	64	3
102	130	1
6	6	3
54	54	5
1	2	2
164	165	3
65	66	3
140	140	12
19	21	2
134	134	13
111	112	4
174	174	12
39	115	2
88	89	5
77	79	3
177	177	9
109	109	9
170	170	6
99	99	2
159	159	9
60	130	3
133	134	1
157	158	3
37	38	6
25	27	7
84	85	2
117	117	5
123	123	13
50	95	3
148	149	1
36	41	4
53	98	2
153	159	1
14	17	1
44	45	2
71	71	16
125	125	5
19	19	3
165	165	11
52	52	15
74	74	10
152	173	3
176	176	7
147	167	1
126	127	12
87	87	16
10	10	8
148	148	4
141	141	15
105	105	12
124	125	8
86	86	1
68	68	3
130	130	7
38	38	4
165	166	7
16	25	2
50	50	7
66	84	2
51	51	4
147	171	4
176	177	8
1	87	3
108	114	6
154	170	3
40	40	13
106	107	5
62	81	5
155	155	3
15	26	2
167	167	9
90	112	4
113	127	6
92	92	5
114	114	9
45	46	3
80	80	13
104	106	2
126	126	7
36	40	4
55	55	9
71	72	4
3	14	2
117	118	2
152	174	1
22	38	4
78	78	7
109	110	6
139	140	3
25	25	7
103	128	5
124	124	7
3	86	3
169	169	5
18	19	6
83	92	2
140	141	2
159	162	5
125	126	4
95	95	4
3	73	1
133	135	1
0	0	2
36	37	5
23	23	3
72	72	6
167	170	1
60	96	2
102	127	1
175	176	3
8	20	2
75	79	5
159	160	3
179	179	8
115	115	11
138	139	4
2	2	6
133	133	6
137	138	2
6	10	6
78	79	4
171	174	3
30	30	14
84	111	3
158	168	3
61	62	1
105	106	2
60	60	9
1	15	1
106	106	9
54	68	2
151	152	5
149	150	2
65	131	1
5	15	1
3	13	3
95	116	3
25	37	2
16	17	2
118	119	1
27	36	3
137	137	9
76	78	2
174	175	2
147	174	3
71	80	1
33	34	1
35	36	3
172	172	13
91	91	4
106	128	1
41	41	9
151	151	2
82	82	6
14	40	1
6	15	5
17	18	1
73	73	4
41	42	3
90	94	2
27	41	2
14	15	1
156	156	5
154	155	3
49	94	1
26	27	4
5	8	2
54	180	1
91	92	1
104	107	1
66	67	3
161	162	2
11	13	3
72	83	2
59	59	1
155	157	5
113	126	3
96	96	6
121	121	9
59	129	2
71	73	2
169	173	2
76	77	1
84	84	1
52	53	6
166	166	12
4	12	2
11	11	5
145	145	5
98	98	4
16	16	3
125	128	2
30	54	2
123	161	1
143	170	1
72	86	1
151	158	1
134	137	3
113	114	2
127	127	5
65	68	4
96	97	2
71	76	1
135	135	2
10	79	2
5	6	3
34	90	2
77	77	4
122	123	3
53	54	1
28	30	2
124	160	4
146	151	2
53	53	4
40	41	2
14	87	4
115	121	1
142	144	4
155	156	3
129	129	2
151	153	1
42	42	5
108	111	2
63	64	4
142	142	5
43	73	4
178	179	6
100	110	1
110	111	1
56	57	2
127	128	1
83	84	1
134	149	1
70	71	1
53	55	2
112	172	1
117	121	4
145	148	1
3	3	6
132	144	1
27	28	1
107	108	9
156	157	1
98	109	2
6	73	2
59	87	1
108	110	2
112	147	1
4	13	1
153	171	2
126	168	2
67	67	2
99	100	1
148	174	1
153	154	2
26	26	7
67	68	1
147	172	1
54	58	1
38	40	1
168	174	1
43	76	1
140	142	1
172	178	1
17	17	2
86	87	1
5	72	1
154	156	2
165	167	5
25	40	2
110	110	2
56	97	1
175	177	2
108	109	2
72	74	1
74	76	1
95	96	3
50	51	2
59	86	1
44	58	1
136	144	1
74	79	1
171	175	3
111	114	1
56	63	1
90	91	5
100	109	1
101	101	2
9	9	5
118	120	1
112	127	1
160	163	1
151	174	3
118	118	1
169	172	1
49	49	2
28	28	1
55	96	1
129	131	2
36	43	1
74	75	1
53	58	2
92	93	3
166	178	1
136	136	1
44	56	2
20	20	1
18	20	1
32	33	2
60	61	1
118	121	1
71	83	2
133	162	1
56	56	3
24	25	1
61	64	1
10	17	1
156	170	1
127	143	1
36	50	1
46	54	1
32	32	4
54	55	5
55	65	3
146	173	1
149	167	1
116	118	1
79	80	1
105	107	1
141	142	1
143	169	1
82	140	1
116	117	2
61	63	1
115	168	2
145	169	1
12	20	1
71	81	1
146	147	1
131	131	1
131	133	1
71	78	1
28	32	1
21	22	2
106	108	1
125	129	1
7	11	1
123	124	1
85	111	1
54	137	1
132	133	1
104	128	2
16	39	1
167	168	1
102	103	1
0	1	1
4	7	1
79	81	2
14	20	1
124	126	1
42	73	1
0	77	1
35	41	1
169	170	1
