110	111	6
5	5	23
82	84	5
30	31	6
111	116	2
33	33	23
126	127	6
104	104	22
95	95	29
21	36	2
140	140	14
130	130	23
12	13	2
120	120	9
19	19	16
37	38	8
72	72	26
80	80	18
12	117	3
37	123	1
131	131	20
106	107	5
13	26	3
92	96	8
25	25	14
23	23	22
80	89	2
129	130	10
100	100	10
122	122	7
111	111	5
85	85	14
126	126	19
130	131	1
76	89	10
89	89	14
124	124	32
89	90	3
101	101	16
8	9	18
81	81	39
14	14	7
88	88	8
91	91	9
93	112	2
16	16	11
95	126	5
17	17	16
37	37	27
119	119	11
78	79	8
36	36	18
86	86	5
28	104	3
120	122	2
8	107	6
98	99	6
123	123	30
123	126	6
38	38	13
79	79	9
107	107	4
75	75	15
79	111	4
125	125	7
75	76	5
87	87	32
94	113	2
8	8	15
37	40	1
75	87	5
20	20	32
116	116	17
101	104	1
106	123	2
73	73	30
127	127	14
139	139	13
27	28	3
82	82	12
3	3	13
108	108	28
114	115	7
117	118	4
134	135	5
101	111	4
118	118	11
101	113	3
22	22	6
118	119	11
109	111	6
128	129	7
117	117	23
26	26	16
24	24	15
24	30	3
11	11	11
87	88	13
112	112	8
132	132	6
72	73	10
71	71	13
114	114	21
31	31	14
32	32	8
92	92	11
34	34	23
97	125	2
103	103	12
133	133	12
81	85	3
99	122	2
13	13	13
97	97	13
94	114	3
110	110	15
120	121	6
15	16	6
24	108	5
71	75	3
21	35	3
128	128	20
102	122	2
35	35	29
125	126	1
94	94	12
6	28	3
134	134	26
0	0	13
5	36	2
0	1	1
37	45	1
19	27	3
29	98	2
14	15	6
136	136	17
137	137	11
101	105	7
116	126	1
102	114	1
33	108	5
13	117	5
22	23	6
27	27	18
28	28	9
131	132	3
4	4	24
109	109	24
38	71	2
37	128	2
102	119	3
11	13	3
101	125	4
99	125	2
108	126	1
115	116	8
32	75	4
18	38	3
6	107	1
2	2	8
16	29	3
99	100	3
30	32	2
74	75	10
78	78	7
21	37	2
99	99	14
27	98	6
15	15	7
14	110	2
102	102	24
106	108	3
115	117	7
108	109	11
21	21	19
18	18	18
74	74	12
31	92	2
90	90	6
105	106	2
19	20	2
104	105	4
79	80	1
81	84	3
76	76	2
119	122	2
117	120	1
127	128	13
135	135	12
6	6	21
19	95	2
105	105	8
35	36	9
13	109	1
90	103	4
10	10	4
79	82	6
76	78	1
2	72	4
129	129	23
115	115	15
78	96	2
9	33	3
96	96	10
84	86	3
10	12	4
127	130	8
136	139	2
84	84	9
77	78	4
76	94	2
121	126	11
113	116	4
138	138	17
84	85	6
32	38	6
121	121	6
23	32	3
28	99	3
140	141	2
33	34	4
19	44	2
116	131	4
101	110	1
97	99	1
91	116	2
109	116	2
77	77	9
80	130	1
71	107	2
8	104	2
88	89	6
13	14	2
137	138	6
29	29	4
95	96	5
11	12	3
106	106	14
10	11	3
102	103	2
15	101	1
101	123	1
7	7	7
110	115	1
22	24	2
7	8	3
32	37	2
3	4	5
113	113	6
73	107	4
93	101	1
30	30	4
72	108	1
103	104	3
16	17	3
8	14	2
5	6	1
124	125	10
116	117	1
111	115	1
9	9	9
92	94	2
33	107	1
94	95	2
25	33	3
77	80	5
98	98	11
81	83	1
2	3	2
102	123	3
107	108	10
6	32	1
0	35	4
11	19	5
104	106	2
100	101	3
29	30	1
135	136	5
30	76	1
96	106	2
81	82	2
5	32	5
100	125	1
76	87	1
88	90	6
80	81	8
28	29	2
23	24	3
127	129	3
93	94	5
132	133	3
74	88	1
97	98	2
1	1	9
122	123	7
83	85	2
75	94	1
15	17	5
14	16	4
22	29	1
32	76	2
104	109	2
30	78	1
14	28	1
73	103	4
114	131	1
78	94	1
29	32	1
18	19	3
106	122	1
98	101	2
10	19	2
27	29	2
72	128	1
38	128	2
28	30	4
73	95	1
22	30	3
4	15	2
12	12	5
103	114	1
15	30	1
111	112	4
86	87	3
28	100	1
73	108	2
138	140	1
83	84	2
98	100	2
71	123	1
3	32	2
16	20	2
27	97	1
76	92	1
121	122	2
94	96	3
75	78	2
96	126	1
8	10	1
26	27	1
2	4	1
32	33	2
95	97	2
105	124	1
83	83	3
86	88	1
23	74	1
38	130	3
99	105	1
71	122	4
0	2	1
1	2	2
112	113	1
114	128	1
24	107	1
33	72	1
101	112	1
89	103	2
118	121	1
101	102	1
102	104	1
72	103	3
91	112	2
79	91	1
133	134	3
20	37	1
32	35	1
123	124	3
88	131	1
75	92	2
13	116	1
108	110	1
38	119	1
71	74	1
4	36	1
72	127	1
134	136	4
37	66	1
33	75	1
21	94	1
22	100	1
6	7	3
102	113	2
22	32	1
139	140	2
94	116	1
93	93	3
0	3	1
80	131	1
15	27	1
4	33	2
20	27	2
20	21	1
34	35	1
31	32	1
37	95	2
23	31	1
119	120	3
75	128	1
4	8	2
36	37	1
26	33	1
4	34	1
89	91	1
23	73	1
78	93	1
101	122	1
106	125	1
88	103	1
96	108	2
3	5	1
112	116	1
5	27	1
85	86	1
6	16	1
