20	21	4
16	16	7
67	67	6
21	22	7
39	39	9
41	41	12
53	53	5
100	100	14
24	24	16
124	154	2
27	27	12
7	8	4
151	151	11
13	13	7
15	15	10
23	23	18
107	107	9
2	2	3
68	68	14
111	111	6
123	123	9
109	109	3
42	42	11
26	27	7
140	140	2
73	73	14
7	11	3
69	69	5
81	81	6
54	113	2
132	132	9
7	7	5
112	158	6
134	134	6
12	13	12
17	18	13
127	128	4
7	47	2
138	138	1
129	129	15
65	65	7
18	18	13
56	113	4
156	156	7
8	8	14
21	21	12
55	55	12
105	105	10
16	18	4
95	95	17
62	62	5
126	148	5
52	53	3
136	137	4
33	33	3
120	121	3
152	152	7
101	151	3
83	83	13
119	119	4
34	34	4
28	28	18
9	9	8
56	56	3
16	36	2
66	66	7
154	154	9
30	30	10
139	139	6
35	35	6
143	143	2
27	28	6
93	94	3
103	103	13
158	158	6
64	65	2
85	85	10
46	46	6
26	26	6
29	29	14
152	153	5
99	99	9
78	78	3
107	108	3
5	5	6
70	70	10
33	34	1
74	74	2
23	24	4
110	110	6
39	40	5
51	51	13
123	126	2
149	149	5
110	111	5
102	102	5
104	104	7
71	71	6
53	55	3
131	131	7
128	128	13
5	99	2
93	121	3
128	157	4
99	100	2
130	138	4
142	143	1
22	22	5
95	96	6
31	31	2
10	12	3
93	93	7
52	52	8
150	150	9
90	90	6
106	106	10
150	155	2
101	143	5
25	25	6
117	117	14
18	19	5
122	122	10
114	114	8
37	37	8
79	79	14
130	130	4
22	25	3
98	112	4
50	104	2
81	85	3
11	39	2
48	102	2
11	12	4
116	118	4
6	6	6
90	98	1
17	19	5
14	114	4
133	133	9
78	87	5
47	47	7
35	48	2
12	12	5
98	98	7
24	52	3
140	141	3
88	88	5
43	43	5
115	115	6
126	126	3
157	157	4
67	69	5
1	2	3
84	85	9
103	104	3
80	80	6
147	147	3
68	71	6
91	91	11
94	94	6
27	31	4
38	38	2
104	105	4
18	30	4
93	95	2
86	107	2
39	43	1
89	89	2
67	68	5
4	4	4
97	97	3
68	69	1
135	135	5
49	49	10
48	83	1
149	150	2
50	50	10
45	45	2
141	142	2
24	25	5
76	128	3
136	136	4
146	146	2
36	36	6
44	44	5
43	45	3
126	144	4
3	4	4
31	34	5
10	10	7
19	19	6
40	40	7
33	40	2
101	101	11
37	42	4
0	0	5
87	88	2
2	43	2
92	116	3
93	96	5
108	108	11
124	124	8
90	91	4
86	86	12
10	11	10
22	23	6
83	106	1
141	141	9
94	95	1
83	84	2
79	80	2
31	36	2
127	127	9
116	119	1
17	17	7
87	87	10
77	77	9
155	155	3
84	84	10
65	66	2
116	116	10
122	123	3
87	89	2
44	51	1
88	89	8
77	79	3
154	156	5
1	1	5
32	36	1
109	118	3
105	112	1
48	48	6
20	20	7
6	84	2
13	14	3
51	53	7
156	157	2
121	121	2
65	67	1
125	125	2
41	42	2
3	3	3
55	106	1
4	54	4
92	93	2
39	41	1
117	154	3
124	126	1
64	66	2
131	133	1
148	148	6
143	145	2
134	135	1
78	88	1
63	63	3
32	39	4
106	111	4
89	90	3
63	96	2
36	42	1
126	127	3
153	153	2
146	147	1
54	56	1
77	78	4
1	43	2
50	55	1
97	138	1
144	147	3
29	30	2
48	103	3
31	32	1
30	32	1
34	35	1
10	16	2
55	56	1
70	71	2
108	119	1
33	44	5
2	12	2
112	113	2
137	152	2
144	146	2
38	40	2
118	118	5
16	20	2
75	75	3
90	99	1
31	37	1
112	112	2
26	28	1
133	134	4
48	49	2
96	99	2
149	155	3
50	100	2
122	126	1
149	152	1
91	138	2
11	83	1
117	132	1
145	147	1
124	127	2
100	101	3
84	114	1
55	105	3
26	29	1
72	72	1
137	137	5
30	50	4
36	37	1
96	96	6
95	97	1
82	82	2
120	123	1
7	9	1
120	120	8
12	45	2
38	41	1
123	124	2
128	129	2
66	70	1
32	32	5
79	86	2
32	44	1
121	137	1
30	35	1
13	41	1
149	151	1
102	103	2
129	130	2
106	108	1
32	33	1
132	138	1
129	139	1
45	46	1
30	51	2
146	148	1
36	45	2
44	46	1
83	114	1
144	144	1
137	138	1
35	36	1
148	151	2
143	156	1
92	92	1
11	11	3
130	131	1
113	114	1
107	110	1
45	52	1
75	104	1
86	87	1
63	64	1
29	51	1
119	120	1
151	152	1
78	121	1
15	31	1
25	29	1
66	67	1
85	86	1
57	62	1
153	154	2
80	81	1
20	22	1
