35	58	4
21	21	11
55	55	10
52	52	8
84	85	9
88	88	15
57	58	1
77	77	8
70	70	8
96	96	14
43	43	6
76	76	18
62	62	12
71	71	13
42	42	13
74	99	16
52	53	9
51	51	7
95	97	2
41	42	4
61	61	9
63	63	13
46	47	11
54	56	3
83	84	5
75	89	2
44	44	9
62	63	8
41	43	2
45	68	3
72	101	5
23	23	4
31	31	9
25	48	3
92	92	8
95	95	16
54	80	8
24	65	3
32	32	5
90	90	7
37	37	7
94	94	8
79	79	18
55	80	3
57	57	7
43	44	5
81	81	16
80	82	4
84	84	5
25	26	1
101	101	9
89	90	9
64	64	8
53	56	3
70	71	5
91	99	5
92	93	3
40	41	15
60	61	4
78	79	2
86	86	13
55	58	2
87	87	9
77	78	23
49	67	3
98	98	4
56	56	9
89	89	9
106	107	7
53	85	1
94	98	9
93	93	9
76	77	7
26	27	5
32	34	3
45	45	7
72	72	5
34	34	8
60	60	17
54	84	4
27	28	6
55	57	5
23	27	3
107	107	3
69	71	3
73	73	8
41	84	5
85	85	3
69	69	5
76	96	2
75	99	3
22	29	5
59	59	6
54	54	10
50	50	6
47	47	11
40	45	4
79	80	1
72	73	3
26	26	9
75	75	5
104	104	10
83	83	3
105	105	7
53	53	8
25	25	5
92	94	1
68	68	17
100	101	1
35	35	5
78	78	13
42	43	6
94	95	3
82	82	7
65	65	5
22	23	5
74	74	2
80	80	9
22	24	5
88	89	4
97	97	4
36	36	2
38	38	4
39	39	11
90	91	4
53	83	1
99	99	7
21	23	1
61	63	5
33	33	8
102	102	4
106	106	6
31	32	4
79	81	2
27	27	3
71	72	6
56	57	2
75	76	3
20	21	4
55	59	4
51	71	3
28	28	7
55	56	4
51	52	3
87	89	4
24	24	3
58	60	3
96	100	1
23	30	1
54	58	7
95	96	5
87	88	1
54	55	1
86	87	2
46	48	4
91	91	8
75	77	3
103	103	6
81	83	6
58	58	3
104	106	2
52	86	2
37	61	3
76	90	2
80	81	5
62	64	4
97	98	1
22	25	2
29	29	2
75	91	2
53	55	4
22	22	4
56	84	2
66	66	5
85	86	3
49	49	10
34	35	1
24	45	1
21	22	2
29	30	7
53	80	8
39	40	2
20	22	1
37	38	1
57	84	2
45	65	3
41	41	7
100	100	3
30	30	3
38	40	2
68	69	1
36	40	2
36	37	1
40	40	9
73	74	1
82	83	4
83	86	3
100	103	1
101	102	2
35	65	1
25	27	1
46	68	2
93	94	2
48	67	1
37	58	2
104	105	1
92	98	3
59	63	2
20	20	1
31	33	2
93	99	1
46	46	2
84	87	1
75	100	1
85	87	2
75	90	1
83	89	1
45	46	1
44	46	2
27	29	1
37	59	1
67	67	1
41	44	1
33	104	1
58	59	1
91	92	1
26	28	1
82	84	1
35	66	1
96	97	1
61	62	2
67	68	1
