25	25	12
19	19	19
7	7	12
32	33	3
0	5	3
38	38	16
186	187	2
194	194	6
179	179	7
110	110	6
191	193	3
74	75	4
142	144	6
162	162	3
152	155	3
77	108	1
28	28	10
105	105	15
42	42	17
61	61	6
51	51	15
90	90	6
106	106	7
4	8	6
22	24	8
80	80	6
49	49	22
24	26	4
18	18	5
22	22	10
116	116	8
172	173	8
41	41	13
72	74	2
178	178	4
12	14	6
3	82	3
131	133	4
150	156	4
153	154	5
140	150	2
39	41	5
101	101	14
24	30	1
11	12	7
154	156	2
32	35	4
65	65	15
23	23	5
54	57	8
130	132	5
187	187	12
149	169	2
179	180	6
123	126	3
133	135	4
159	181	3
97	97	2
100	100	17
163	164	8
66	67	5
4	4	3
167	167	13
114	188	1
150	150	11
148	148	8
186	186	10
118	118	10
6	8	4
120	140	1
196	197	2
86	89	2
98	98	11
76	77	6
143	146	3
49	50	12
188	188	6
165	165	8
69	69	4
154	154	8
100	101	4
144	144	5
84	85	11
27	32	2
85	179	7
69	71	2
127	128	7
149	149	5
48	49	10
180	180	6
193	193	12
56	57	3
72	72	12
144	147	3
24	24	10
141	142	5
130	131	4
60	60	4
87	88	7
2	4	2
87	87	7
4	5	3
176	176	6
126	126	6
168	168	10
141	141	7
140	149	1
15	19	3
52	55	11
23	30	5
82	82	11
21	21	7
134	135	6
76	80	8
125	126	1
67	68	6
161	161	14
14	14	19
37	38	4
102	103	4
120	120	9
70	73	3
148	152	1
26	39	3
185	185	12
159	159	15
17	17	9
23	25	3
146	148	2
63	64	13
40	40	5
53	54	4
195	197	6
134	134	6
82	87	2
168	169	3
22	35	1
123	124	2
80	82	3
151	152	6
3	4	5
184	185	8
35	36	14
9	11	1
134	139	3
8	13	1
59	59	13
179	181	1
85	85	9
118	119	6
140	144	8
104	104	11
11	11	8
119	119	6
175	175	13
76	79	6
131	132	5
62	64	2
18	24	5
21	22	4
60	93	2
104	105	4
129	129	2
58	58	14
57	57	9
9	108	1
10	10	8
34	35	7
129	130	7
172	172	6
143	143	7
126	132	1
101	102	4
5	17	3
100	103	6
121	122	6
8	8	12
96	98	2
64	65	3
147	147	13
24	37	6
122	123	17
168	171	1
190	190	9
175	177	7
36	36	12
33	33	6
181	181	10
129	131	5
73	76	6
127	127	2
26	28	3
62	63	7
173	173	5
146	149	6
95	97	3
163	163	7
165	166	11
45	45	10
174	174	8
171	172	4
188	189	14
1	1	11
9	12	1
46	46	6
156	156	5
158	158	4
115	115	8
181	182	11
106	113	1
35	35	8
55	59	10
5	5	8
89	90	4
185	187	6
75	75	2
167	168	2
128	128	6
137	137	7
145	146	1
123	123	15
67	71	4
30	31	9
122	122	1
104	106	4
77	77	12
105	111	5
108	111	8
109	110	2
115	119	1
113	113	5
190	191	5
94	94	15
191	191	7
121	121	6
23	26	4
24	27	6
162	163	4
94	95	5
30	30	9
84	84	4
15	16	1
47	64	2
13	13	9
93	115	2
166	166	1
125	125	2
66	69	3
193	196	1
71	73	2
157	157	10
166	167	3
103	103	6
73	74	3
182	182	1
69	79	3
160	160	8
55	55	6
187	189	4
108	108	7
72	73	11
43	44	1
184	184	19
66	66	15
27	27	5
114	117	4
70	71	1
61	64	3
142	143	4
102	186	4
5	19	1
155	155	6
1	2	5
181	183	1
112	113	2
171	173	1
65	66	5
17	21	1
85	88	1
21	27	1
38	42	5
183	183	8
1	155	1
102	102	10
147	152	3
187	188	8
155	177	2
136	136	4
44	45	7
115	116	4
36	37	4
89	89	8
27	38	3
53	53	8
18	22	3
150	176	1
7	9	4
30	37	1
26	26	4
113	114	1
134	136	2
190	195	3
47	48	3
153	156	2
162	165	1
23	29	4
121	125	3
20	20	4
77	78	3
184	186	1
173	175	3
111	111	3
109	109	5
64	64	6
89	113	2
93	93	3
56	58	4
88	89	4
194	195	5
5	8	2
96	96	8
52	56	1
43	43	2
185	186	5
189	194	2
160	163	2
131	131	3
171	171	5
155	176	4
15	15	15
110	111	8
189	191	4
177	178	4
102	106	3
59	61	1
16	16	7
71	71	4
34	34	7
32	46	3
189	189	10
3	3	6
11	45	2
73	73	2
98	117	4
169	169	7
79	81	6
5	13	3
99	119	2
29	29	6
99	99	2
119	120	7
37	37	6
157	173	1
55	58	4
108	112	3
138	138	6
9	45	3
147	148	4
196	196	11
86	86	5
4	84	4
38	41	4
142	145	4
130	130	5
88	88	3
133	133	3
40	47	3
191	194	1
0	4	3
25	26	3
103	185	1
13	14	1
93	95	2
67	67	4
180	181	5
25	39	2
7	21	1
61	63	3
57	63	3
116	118	1
106	107	2
80	83	2
124	124	10
158	159	1
97	126	3
139	139	5
56	56	2
42	44	2
114	114	2
48	48	5
146	146	3
62	65	5
6	7	11
66	68	4
95	95	7
95	96	6
100	111	3
69	73	2
55	57	7
153	153	11
71	72	4
157	158	3
172	177	3
19	21	2
111	183	1
75	76	3
0	0	5
128	129	5
10	11	1
102	104	3
182	183	3
54	54	6
38	40	4
84	110	3
95	183	2
158	173	2
156	174	4
55	56	10
85	86	3
39	40	7
57	60	1
116	121	1
54	63	5
97	98	2
151	151	4
110	114	3
54	55	3
140	140	7
141	144	6
123	125	4
2	2	6
31	32	2
139	141	1
76	76	7
34	36	2
38	39	2
173	180	1
192	192	6
197	197	6
6	6	3
83	84	4
99	115	3
107	107	3
4	10	2
34	37	1
9	38	3
160	161	4
111	112	2
78	79	1
146	147	5
109	117	2
78	113	3
42	63	1
81	81	7
98	99	6
110	184	2
116	117	4
28	39	6
189	190	5
5	7	3
28	29	5
85	102	4
118	120	1
135	135	11
58	60	4
192	195	2
158	178	2
193	194	1
107	109	2
18	21	2
47	47	5
104	108	1
158	176	2
52	53	1
52	52	7
23	34	1
132	134	4
79	79	9
150	173	2
45	46	5
146	168	2
80	81	3
70	70	5
141	143	4
164	164	2
142	142	7
108	110	2
39	42	2
78	78	3
109	114	1
35	37	2
119	125	2
12	13	2
70	78	2
114	115	2
165	167	4
186	190	3
32	32	7
95	127	1
170	171	1
69	70	4
74	74	10
4	86	3
100	102	3
160	174	3
161	162	2
9	10	3
40	41	6
126	127	3
170	170	2
149	150	5
61	62	1
117	117	5
14	15	2
154	155	2
170	172	1
120	121	7
103	186	1
108	109	1
44	47	3
141	145	2
41	43	2
177	182	2
82	83	3
112	112	3
158	181	1
141	147	3
85	89	4
186	188	2
151	156	2
30	33	3
98	107	1
148	149	4
7	8	3
109	111	3
171	174	3
152	152	1
136	175	2
145	148	1
97	107	1
57	58	2
177	179	2
105	112	2
105	183	1
53	56	1
105	107	3
175	176	1
63	63	1
113	118	1
76	78	2
73	77	1
20	21	1
103	104	2
159	165	2
11	65	2
44	44	1
5	10	2
119	121	1
16	19	5
19	20	2
178	182	1
42	43	5
107	184	1
165	173	2
117	118	1
168	174	2
95	101	1
178	180	3
94	104	2
107	112	1
12	12	2
171	175	2
120	122	2
47	50	3
98	114	2
56	59	1
177	181	3
39	39	7
179	182	3
148	150	2
17	19	1
1	4	1
155	157	2
83	83	1
64	67	2
62	62	3
23	24	1
108	113	2
145	145	3
50	50	2
48	51	3
166	168	2
39	45	1
195	195	5
98	100	1
17	18	2
150	172	1
78	106	2
83	101	2
67	70	5
27	28	1
53	59	2
111	113	4
27	29	2
101	107	1
138	140	1
188	191	1
149	152	1
54	56	2
160	183	1
11	47	2
155	156	1
159	178	2
104	107	2
187	191	1
114	118	1
0	19	1
151	155	3
104	111	1
11	43	1
84	96	1
105	185	1
99	100	2
157	160	2
31	31	1
65	67	1
143	144	3
117	119	2
15	17	1
115	117	2
61	65	1
116	120	1
155	183	1
84	86	1
150	152	3
127	129	2
93	94	4
116	123	1
137	138	1
32	37	3
14	27	1
161	163	1
5	6	2
99	114	1
24	25	1
16	31	1
39	44	1
120	125	3
125	133	1
4	7	1
22	25	1
148	153	1
117	121	1
37	41	2
27	36	1
95	134	1
175	179	1
57	61	1
58	61	1
169	170	1
157	159	1
8	9	2
175	178	1
97	99	1
176	177	1
65	68	1
173	174	2
11	14	1
14	44	1
135	138	2
152	153	1
80	101	1
64	122	1
192	196	1
26	29	1
180	183	1
144	170	1
28	31	1
188	190	2
88	118	1
110	112	1
28	46	1
126	128	1
