78	98	2
66	66	4
99	100	2
68	68	1
109	111	1
50	51	4
48	55	4
97	132	1
31	34	2
5	5	3
132	132	3
50	50	7
120	120	5
131	131	3
136	136	5
119	120	2
37	37	2
129	129	4
128	138	4
60	60	4
102	102	2
98	112	2
32	72	1
120	142	2
65	65	5
108	111	13
13	14	2
68	75	2
75	75	9
92	92	2
64	65	4
28	124	4
38	68	4
6	6	1
53	53	7
18	30	6
113	114	1
68	69	7
76	76	1
0	30	3
128	133	3
90	90	8
107	107	8
98	98	1
59	59	1
81	87	1
52	53	1
47	50	3
59	63	5
121	121	9
21	21	3
55	55	3
10	35	1
110	110	1
96	98	4
48	60	2
87	89	1
1	1	6
61	63	4
106	106	9
91	91	3
99	129	1
93	146	1
133	134	4
114	114	1
15	124	1
10	18	1
86	86	4
6	121	1
8	27	2
50	52	5
93	93	5
69	94	3
81	82	3
128	128	4
111	114	3
36	37	3
79	79	3
140	140	3
36	47	2
82	83	3
35	35	1
98	99	3
131	133	5
90	107	3
23	23	1
128	139	4
0	1	6
58	58	6
105	105	1
2	2	2
31	31	1
94	95	6
137	139	2
133	139	4
85	106	2
57	57	2
38	38	3
73	73	7
19	20	6
2	13	2
135	142	1
74	74	5
99	112	2
81	81	4
18	19	1
122	123	2
15	15	2
51	51	5
49	49	2
125	134	2
53	55	2
24	24	2
93	94	5
6	7	2
91	94	1
49	55	4
9	28	1
67	67	2
96	96	3
63	63	5
143	143	3
75	76	3
103	103	3
136	137	2
58	61	2
14	120	1
11	11	6
34	34	3
28	28	7
56	72	1
13	25	2
62	64	3
81	88	3
56	56	5
27	30	4
57	67	2
39	39	4
110	113	1
3	7	3
110	111	3
11	48	4
70	77	1
20	35	4
17	18	10
84	85	3
15	17	1
127	139	2
101	102	1
113	115	3
52	52	2
36	36	7
14	135	5
16	73	3
18	18	7
134	134	1
127	128	2
71	78	2
83	85	3
112	132	1
75	96	1
17	17	7
88	90	1
14	14	2
21	25	1
135	135	4
129	130	2
122	122	2
127	127	2
21	24	2
3	3	2
120	131	1
126	126	4
51	52	4
119	128	1
9	9	4
29	37	3
37	38	2
127	132	1
97	134	2
64	64	3
16	76	3
56	80	1
33	73	2
62	81	1
108	109	2
113	113	2
87	94	2
118	129	2
20	20	1
16	16	4
80	87	3
118	119	7
83	84	1
38	39	2
112	113	2
70	70	1
77	77	4
80	80	1
141	141	3
58	59	5
18	27	3
41	104	1
58	67	2
88	88	1
96	97	1
21	35	1
73	76	1
2	3	2
48	49	1
123	123	2
8	8	1
31	35	1
137	140	3
61	61	2
78	97	1
28	39	2
117	117	2
70	79	1
27	27	1
47	49	2
69	70	1
43	53	2
142	142	3
0	18	3
54	56	1
87	90	1
19	25	1
77	89	1
89	107	1
97	99	1
123	124	1
84	84	1
49	50	3
69	69	1
109	119	1
113	117	2
136	138	2
71	79	1
29	72	2
33	33	3
19	27	2
12	12	2
71	71	1
126	135	1
34	73	1
15	16	2
62	62	1
29	33	1
141	143	1
4	5	2
132	133	1
29	30	1
72	74	1
77	79	1
25	25	1
14	134	1
137	137	2
19	19	2
90	93	1
13	13	1
41	41	2
29	38	1
42	42	1
57	80	2
34	36	1
76	79	1
101	101	1
40	40	1
3	8	1
37	48	1
83	83	1
72	72	1
29	29	1
109	109	1
104	104	1
32	73	1
48	48	1
