43	43	9
67	67	13
84	85	6
48	48	3
29	29	3
100	100	3
98	99	5
79	79	12
98	98	11
23	23	4
52	52	1
60	60	7
95	95	7
34	34	2
111	111	8
75	98	2
52	78	2
72	73	3
44	44	9
84	84	5
78	78	1
112	112	6
76	77	1
24	36	3
105	106	4
89	90	4
30	30	3
85	86	1
30	31	4
68	68	12
113	113	7
82	82	12
82	83	1
26	27	2
81	82	4
48	50	2
38	38	3
67	70	5
96	97	8
89	91	3
40	40	2
55	56	7
36	36	5
77	86	2
47	65	4
70	70	1
87	87	10
39	39	3
92	102	8
50	51	9
28	28	15
82	85	5
45	45	7
51	51	4
27	27	15
38	39	4
21	32	4
99	99	6
31	31	11
66	66	3
81	81	1
48	49	3
61	61	5
62	65	5
92	93	9
51	52	9
42	42	7
104	104	5
105	105	5
28	30	6
50	50	13
71	73	2
57	57	11
109	109	3
71	71	8
90	90	7
101	101	7
62	64	2
77	77	6
74	74	6
75	75	10
25	25	6
69	69	12
28	29	2
95	96	4
22	23	3
53	53	5
40	41	3
33	33	13
53	55	1
58	58	2
73	73	1
56	57	1
19	19	1
52	53	2
97	97	6
102	102	9
41	67	3
37	38	3
20	23	3
65	65	2
96	96	4
35	35	6
114	114	3
22	22	2
37	40	1
60	61	3
49	54	3
83	83	5
90	91	2
62	62	5
94	94	11
49	49	7
55	55	4
29	30	1
47	48	2
77	91	1
88	101	2
105	107	2
78	79	2
58	62	1
25	35	2
36	43	2
33	36	1
92	103	1
51	103	3
68	70	3
34	35	4
32	34	2
37	39	1
106	107	3
73	74	3
67	68	1
20	21	1
46	60	1
72	72	1
57	58	1
57	59	1
32	32	1
24	24	10
54	54	2
63	63	1
87	91	2
93	94	1
46	46	9
69	70	2
41	41	2
64	66	1
88	88	1
82	84	2
107	107	1
109	110	4
29	31	2
25	38	2
43	72	1
93	93	4
54	57	1
108	108	5
21	21	4
80	108	2
106	106	3
77	97	1
44	45	1
43	44	4
91	91	2
76	76	2
63	65	1
36	37	1
20	20	2
78	80	1
70	72	1
47	58	2
22	27	2
39	40	1
54	55	4
59	59	2
53	54	2
54	58	2
41	42	3
26	26	3
24	75	1
111	112	1
86	86	1
97	100	1
42	43	2
80	80	3
51	80	2
47	47	2
61	62	4
64	64	1
92	92	1
63	66	1
102	103	1
45	46	2
96	101	1
49	50	1
44	72	1
47	59	1
59	62	1
53	101	1
