14	15	5
5	6	3
138	143	3
49	49	17
40	40	10
132	132	10
61	61	19
27	27	20
25	25	9
35	37	2
71	71	21
59	75	4
106	106	10
133	134	9
70	71	19
36	36	6
41	41	11
24	25	5
14	16	10
67	68	2
22	22	26
58	59	9
131	131	13
71	72	10
123	123	18
74	75	9
118	120	11
138	138	7
118	118	16
15	15	13
66	66	33
9	9	18
87	87	15
29	29	13
127	128	5
130	130	24
6	6	19
130	132	1
109	109	10
54	55	4
2	4	7
84	84	8
76	76	11
96	96	15
50	50	22
51	52	3
134	134	14
11	21	2
77	78	14
76	77	5
135	135	10
54	54	9
139	142	4
116	116	16
111	125	9
103	103	13
10	10	8
81	81	9
64	64	6
110	110	19
107	108	14
46	46	1
38	86	4
79	79	16
26	26	17
73	73	12
58	58	4
140	140	14
100	124	8
128	129	7
97	98	6
112	112	14
30	30	24
90	90	17
104	104	10
107	107	16
15	16	7
139	139	18
74	74	18
124	124	20
5	5	7
128	130	4
72	72	10
92	92	10
39	47	6
101	101	8
64	65	18
121	121	20
38	38	4
93	94	8
127	127	11
48	48	10
23	23	23
39	41	2
99	136	4
11	11	14
86	89	1
126	135	8
101	103	4
125	135	7
43	43	5
35	39	4
141	141	13
105	122	3
98	99	9
80	80	9
59	61	6
75	75	13
24	24	9
129	129	10
12	29	5
112	127	3
119	119	15
57	74	1
95	95	13
128	128	8
42	42	22
114	114	23
55	55	8
112	115	3
125	125	18
115	115	13
96	137	6
54	57	4
127	134	4
14	14	3
26	27	3
118	119	4
143	143	9
68	68	5
138	139	8
52	53	7
50	59	3
80	81	9
93	93	6
94	94	12
16	16	6
145	145	3
3	3	9
91	92	5
18	18	17
83	83	15
20	21	5
100	100	16
21	21	8
105	123	2
56	121	11
107	109	9
61	62	7
97	97	11
126	126	7
2	3	6
117	118	5
82	82	5
28	28	13
63	63	7
2	2	2
39	39	12
108	135	3
117	117	11
68	73	3
27	29	2
137	137	4
13	13	12
85	91	6
35	35	19
54	61	3
35	38	4
3	23	2
40	42	1
51	84	3
106	110	8
55	61	2
63	64	3
59	59	5
62	74	5
87	90	2
87	88	6
78	79	3
73	74	8
8	8	12
68	72	6
144	144	5
34	34	20
108	108	8
53	53	17
57	58	8
108	134	11
84	85	6
51	51	6
76	78	2
131	133	3
62	62	11
12	12	5
95	136	3
79	81	10
13	16	7
31	31	6
112	125	5
65	66	3
77	77	9
102	102	5
101	102	3
98	101	3
88	88	18
88	89	6
4	4	9
104	125	8
89	89	14
41	42	5
19	19	8
21	26	4
8	9	10
27	28	2
99	140	3
85	86	2
34	86	1
111	135	2
55	73	2
83	85	3
122	123	6
127	131	7
112	114	5
52	52	20
70	70	22
17	18	6
122	122	18
62	64	4
56	56	4
68	71	1
146	146	2
20	20	8
66	67	5
60	61	6
129	130	2
59	60	17
34	35	4
33	33	9
21	27	2
132	133	5
35	36	2
69	69	6
47	47	10
28	29	1
134	135	5
17	17	4
133	133	17
65	67	4
102	103	7
107	134	6
99	99	17
99	102	1
128	131	3
92	93	5
87	89	4
57	57	8
42	43	3
118	123	1
40	41	6
49	82	2
81	82	1
9	10	6
105	105	9
143	144	4
114	115	5
59	79	4
113	113	5
109	110	4
5	36	1
67	67	15
1	1	8
71	75	2
1	6	4
33	35	7
62	63	8
93	95	4
138	142	2
54	56	4
58	60	3
142	142	6
82	83	7
121	123	3
65	65	9
52	82	2
91	91	10
126	133	4
50	51	4
98	98	16
77	80	3
67	70	1
120	120	3
136	136	10
24	31	5
70	72	2
36	37	5
98	140	2
49	81	1
1	10	1
107	135	1
33	38	5
142	143	5
99	141	1
31	41	1
60	62	10
38	94	2
0	0	16
53	122	1
104	105	1
73	120	3
126	127	1
18	19	1
57	75	2
47	81	3
87	94	1
84	93	2
60	60	10
12	17	3
49	84	2
17	19	1
63	75	3
39	42	5
4	5	2
22	23	4
2	23	1
106	108	3
24	30	2
114	117	2
60	63	5
6	8	1
12	13	2
111	112	3
32	32	7
32	38	3
47	82	4
98	136	2
137	138	5
34	38	1
50	79	4
125	126	6
49	52	4
13	29	2
56	57	5
126	132	1
139	141	1
94	102	1
78	78	7
105	106	3
37	37	6
85	85	7
3	89	1
55	121	2
111	126	3
24	32	1
119	120	6
94	95	3
53	55	4
5	23	4
55	57	1
53	54	2
27	30	4
121	122	4
130	131	9
12	20	1
4	6	2
55	56	3
96	97	1
64	66	3
137	139	3
23	24	2
32	33	3
39	40	1
19	20	4
95	96	2
104	110	4
92	94	5
64	67	1
34	89	2
140	141	3
75	76	4
50	52	1
35	85	1
23	32	1
0	21	2
33	37	2
111	111	7
29	30	3
51	53	3
112	113	6
0	20	1
46	83	1
137	140	2
99	100	1
99	126	4
108	109	3
10	23	2
12	21	1
136	138	4
139	140	7
58	74	2
0	1	3
48	49	1
3	5	1
22	26	2
84	91	1
139	144	1
99	138	2
75	78	1
18	27	2
61	103	2
104	111	5
4	36	1
145	146	1
4	32	3
129	131	1
92	101	1
2	24	1
139	143	3
41	95	1
95	102	1
33	36	1
63	66	1
13	15	1
36	38	1
131	132	1
86	90	1
53	57	2
32	34	1
54	106	1
92	107	1
82	117	3
37	38	1
90	91	1
17	26	2
110	111	2
86	86	4
88	109	4
123	124	3
92	95	1
88	90	3
18	20	1
41	43	1
136	140	1
22	32	2
133	135	1
15	24	1
32	39	2
55	120	1
1	20	1
67	69	1
126	134	1
113	119	1
69	70	2
52	84	1
95	141	1
34	36	1
