70	70	7
75	76	4
66	72	9
59	73	3
31	36	1
9	9	1
18	18	1
76	76	10
29	31	2
36	37	3
16	16	5
6	6	3
21	22	1
4	10	6
52	52	20
14	14	3
37	37	4
13	13	6
56	57	3
72	80	3
42	61	4
63	63	10
30	34	2
44	44	4
17	17	4
57	75	1
3	16	1
73	73	15
33	33	7
47	52	3
78	78	5
9	14	3
28	28	5
64	76	4
28	29	8
2	2	9
10	10	6
39	39	2
75	75	3
27	76	4
64	64	13
59	78	4
9	20	1
49	49	5
69	69	3
53	53	15
71	71	5
40	40	8
67	67	4
63	78	4
11	11	2
27	28	4
7	7	8
12	14	3
70	71	3
51	52	9
53	69	3
31	33	2
55	56	1
1	1	6
53	67	6
25	26	3
56	56	5
34	38	2
79	79	2
49	51	1
42	42	4
44	59	5
36	74	1
58	73	2
47	65	3
2	6	3
77	77	2
36	48	3
60	60	8
15	15	6
54	71	2
32	32	12
31	32	1
67	71	5
40	41	2
34	36	3
35	39	3
57	60	3
69	80	5
50	51	6
64	68	2
65	65	5
59	66	4
55	55	3
35	35	4
7	10	1
41	41	3
55	57	1
5	6	3
46	46	8
57	72	1
41	42	3
42	57	2
52	53	3
36	36	4
51	51	3
64	67	2
51	72	2
19	19	3
35	62	1
18	19	1
61	61	13
48	48	8
68	68	4
67	68	4
62	62	2
50	64	2
56	78	3
47	47	4
27	48	1
22	22	2
27	30	3
37	40	4
10	11	2
8	8	5
52	74	4
27	27	7
5	5	4
39	40	3
17	21	4
52	56	4
58	70	1
36	42	3
80	80	3
62	78	2
12	13	3
57	57	4
67	72	3
28	40	1
12	21	1
41	46	2
58	59	2
64	71	3
3	9	1
56	66	1
12	12	1
15	16	1
33	41	1
50	50	6
26	26	2
17	26	1
31	41	1
59	77	2
73	79	1
51	54	4
53	57	3
27	72	1
36	39	1
57	71	2
35	76	2
48	52	2
54	65	1
54	54	1
3	5	1
69	70	2
31	31	7
59	65	2
66	66	1
53	64	1
2	8	1
52	70	1
37	53	1
62	63	1
66	70	2
75	79	1
56	70	5
76	77	1
34	34	1
1	2	4
26	31	2
67	80	1
25	25	2
52	63	1
72	73	1
69	73	1
14	21	1
46	47	1
51	58	2
5	16	2
0	14	2
59	59	1
72	72	3
49	50	1
8	10	2
45	45	4
56	60	1
60	61	2
1	4	5
41	51	1
8	22	1
68	71	1
3	15	2
66	69	1
62	66	2
53	65	1
65	67	3
20	20	2
3	3	1
15	21	2
43	47	1
73	80	1
47	61	1
74	74	1
68	74	1
74	78	1
49	78	1
43	43	1
54	79	2
28	35	1
38	38	1
4	7	1
17	80	2
7	12	1
41	49	1
57	70	1
26	28	1
21	21	1
71	81	1
48	61	1
40	47	2
21	25	1
30	35	1
17	18	1
46	62	1
47	48	1
27	41	1
56	59	1
19	40	1
4	4	1
2	18	1
35	41	1
62	68	1
41	76	1
36	50	1
42	56	1
34	37	1
