103	103	8
140	140	8
142	147	2
104	104	3
81	81	17
85	85	6
23	23	8
28	28	6
50	50	2
163	163	10
164	164	5
121	147	1
93	94	2
79	79	9
160	168	1
128	129	2
69	70	4
128	128	10
67	71	2
11	11	5
149	149	14
71	71	11
80	125	3
36	136	2
111	169	1
121	121	6
10	104	2
22	22	7
153	153	3
48	48	5
138	138	6
37	37	6
164	166	5
120	121	2
25	25	13
161	161	10
100	155	6
138	150	5
99	99	8
18	20	1
143	143	11
138	144	5
64	64	7
89	89	11
119	119	8
110	110	15
15	15	10
42	43	4
41	109	2
93	93	8
95	95	3
86	86	3
67	67	15
122	122	4
130	142	5
98	98	4
161	166	5
107	108	1
76	76	7
57	57	4
168	168	4
127	127	7
103	149	1
81	85	5
82	82	11
75	122	3
4	122	3
64	71	6
41	41	9
137	137	9
72	75	2
120	120	4
165	165	4
6	19	2
10	11	3
153	154	5
75	75	9
11	12	1
156	156	13
6	7	4
56	56	18
17	57	4
9	9	11
96	123	1
128	150	2
144	144	5
67	69	2
70	70	6
34	34	16
108	108	5
4	9	1
61	62	1
91	95	2
72	72	15
161	162	1
132	132	8
62	62	11
123	123	8
47	74	3
6	9	1
157	157	7
149	150	2
94	94	6
49	49	7
51	51	9
125	125	6
2	80	1
1	2	7
141	142	4
151	152	2
58	58	3
110	111	3
20	104	1
100	100	3
102	102	10
10	10	5
21	21	2
46	47	1
126	126	7
144	145	3
110	128	1
45	46	3
4	4	8
17	17	5
55	55	3
86	97	4
5	58	1
13	13	7
124	153	2
26	27	3
21	23	2
8	55	3
96	96	7
111	132	2
141	141	5
84	84	10
1	1	14
44	44	4
129	129	10
77	78	2
164	169	4
47	65	3
38	38	19
76	96	2
47	50	1
107	107	5
155	156	3
99	137	7
47	47	7
40	40	9
162	165	3
126	127	2
123	124	3
156	160	2
113	113	5
115	115	1
21	22	3
169	169	6
124	125	7
52	53	2
169	170	8
73	73	2
8	8	8
108	134	1
44	45	10
14	15	3
146	149	2
111	111	14
69	69	4
83	149	1
111	134	5
80	81	8
155	155	3
9	39	6
0	0	5
88	89	3
150	150	12
68	68	7
90	90	12
76	125	1
133	134	1
136	137	3
5	100	4
89	97	1
160	160	9
83	83	8
127	128	3
63	76	3
118	118	9
53	53	9
12	13	3
66	68	1
9	28	3
70	71	3
40	126	1
146	146	3
4	5	4
56	57	2
8	45	5
154	154	7
35	35	9
151	151	9
1	25	5
6	46	3
54	63	4
106	135	3
7	7	6
92	153	2
77	86	3
88	95	1
106	106	2
24	24	6
79	80	2
116	163	1
2	2	8
55	78	1
0	3	3
81	83	1
143	144	5
23	24	6
130	130	5
6	6	4
114	133	2
90	91	1
36	36	7
65	65	2
77	126	1
164	165	3
142	144	7
95	96	2
16	16	4
5	6	3
119	120	1
165	168	3
13	14	2
67	74	2
55	56	1
145	148	1
37	142	1
8	46	1
83	84	1
5	5	16
33	34	5
136	136	2
159	159	3
72	126	1
42	42	4
11	20	4
27	37	3
1	51	2
124	124	8
97	97	7
55	92	1
53	92	1
6	20	3
36	133	1
10	119	1
91	92	1
68	69	1
39	39	3
27	105	2
132	133	4
17	21	1
15	20	1
46	109	1
152	153	1
5	37	1
97	98	8
145	145	2
105	105	9
135	135	7
16	17	2
70	94	4
88	90	1
52	77	1
24	52	1
47	117	1
113	114	5
80	80	5
105	106	1
46	46	1
26	26	2
102	149	1
39	46	3
47	48	1
127	131	2
84	85	4
89	90	3
138	139	3
48	102	5
40	165	1
1	24	3
121	122	2
112	114	3
15	18	2
44	129	2
81	82	2
54	77	1
116	116	6
147	148	2
18	48	2
139	139	4
133	133	2
79	126	3
48	64	1
89	92	1
38	129	2
142	142	2
3	126	1
22	55	7
14	14	5
136	149	1
48	65	2
9	119	2
92	92	4
57	81	1
73	116	2
131	131	3
109	134	2
123	125	4
57	58	3
2	58	3
41	88	4
12	120	3
44	144	2
130	131	4
37	130	3
71	75	1
74	75	6
170	170	2
152	152	2
88	94	1
151	155	1
19	49	3
9	58	1
36	135	1
125	126	2
85	86	4
10	121	1
91	91	2
80	82	1
160	169	2
109	109	1
8	54	5
46	48	2
112	113	2
84	137	2
93	135	2
86	87	1
101	101	1
49	63	3
132	144	1
134	134	4
17	18	1
108	133	1
19	19	1
52	52	3
64	65	2
101	156	1
3	3	5
54	54	3
77	77	3
88	88	6
116	162	1
69	71	1
135	136	1
38	128	2
138	142	1
109	110	2
94	95	1
142	143	2
8	23	2
43	43	3
63	64	3
47	76	2
129	130	2
78	87	1
147	147	4
109	112	1
80	126	1
7	28	2
91	93	1
162	163	1
11	17	1
114	115	1
6	12	1
4	107	1
117	118	2
68	74	1
12	12	2
12	49	1
96	125	1
72	77	1
76	77	2
114	132	1
127	130	1
113	116	2
111	126	1
7	25	1
0	51	1
120	147	1
20	20	2
106	108	1
52	78	1
123	132	1
85	127	1
32	32	1
64	66	1
134	138	1
11	51	1
148	148	1
127	129	1
2	62	1
66	66	1
82	84	2
61	61	1
89	154	1
143	145	1
6	100	1
44	46	2
81	84	2
50	57	1
2	96	1
18	18	1
109	164	1
117	117	1
106	126	1
74	122	1
25	105	1
35	37	3
2	25	1
93	154	1
112	112	1
7	56	1
9	104	1
11	119	1
10	58	1
48	101	1
50	101	1
97	105	1
111	143	1
45	110	1
51	52	1
141	155	1
83	88	1
