143	174	3
2	2	5
169	169	8
182	182	8
115	120	6
155	155	15
146	155	3
114	114	9
168	175	1
121	121	7
41	41	7
10	10	8
147	155	7
18	18	12
30	30	4
186	186	6
38	38	15
145	145	7
125	125	6
65	65	7
134	143	5
35	177	2
153	153	8
156	158	5
172	172	6
108	108	5
138	139	3
91	102	2
113	113	4
56	56	7
129	129	5
160	161	9
184	184	2
53	110	2
63	66	2
78	78	2
185	185	4
9	12	2
127	127	6
138	138	5
114	115	10
6	34	4
180	185	1
76	77	5
142	143	5
92	92	10
42	43	5
94	94	5
67	67	9
137	137	7
96	97	3
140	140	14
77	77	7
24	24	6
43	43	8
129	130	1
189	189	8
28	28	9
143	143	14
87	106	2
148	148	12
90	90	10
171	171	2
40	40	6
6	6	9
104	104	19
13	13	9
164	180	4
4	4	8
120	120	5
54	54	1
70	70	11
45	45	9
149	149	4
183	183	7
47	47	6
85	91	1
31	37	4
187	187	6
26	26	6
173	173	14
90	100	1
106	106	10
53	56	2
147	148	4
108	109	4
89	89	9
17	17	6
168	168	5
57	57	5
122	130	1
151	151	11
166	179	1
112	122	2
157	158	2
159	181	1
12	22	1
61	61	2
136	136	4
88	88	11
8	8	6
163	164	13
100	100	5
178	179	3
139	139	7
60	66	1
105	106	3
33	37	3
173	174	8
1	2	8
60	65	2
134	136	2
112	112	5
171	172	10
40	48	1
117	117	7
53	53	6
155	174	3
20	21	5
188	188	9
33	36	2
156	170	3
184	188	1
62	62	2
160	176	3
119	136	4
145	146	3
158	165	4
36	37	5
151	182	1
47	48	2
118	118	14
34	34	2
170	177	1
169	170	3
134	134	6
113	117	1
19	19	7
137	139	3
110	111	1
11	11	2
84	85	3
54	85	2
39	39	3
148	149	8
181	181	7
119	119	6
98	99	1
107	107	6
41	42	5
165	165	1
98	98	8
43	44	8
36	38	6
60	60	8
97	97	14
16	40	12
111	112	2
56	87	3
121	128	4
150	150	10
93	93	7
32	36	1
190	190	13
128	129	1
126	127	7
67	87	1
177	178	1
87	87	4
44	44	3
182	183	1
105	105	7
155	156	6
149	150	2
125	126	3
31	31	8
157	157	2
76	134	1
149	153	2
7	23	1
37	37	2
109	109	3
46	46	9
80	80	12
130	130	10
189	190	2
152	153	6
128	128	2
179	179	5
115	115	4
14	15	4
71	71	10
122	122	6
154	174	2
78	79	4
91	91	5
32	33	4
1	1	1
101	101	2
157	159	4
163	163	6
135	135	5
141	142	4
4	6	1
97	98	3
151	152	3
92	103	1
145	160	2
3	3	5
146	146	6
25	160	4
18	46	1
42	42	7
20	182	5
130	133	1
22	22	3
164	166	4
150	172	1
18	20	3
102	102	2
83	83	6
82	82	3
55	57	1
56	57	2
145	161	3
101	102	4
75	85	2
187	188	3
29	85	1
69	86	1
36	41	6
159	159	6
131	131	7
93	106	2
28	29	4
114	120	1
4	5	1
72	72	5
14	14	6
127	137	4
33	34	3
103	103	4
136	137	6
99	103	3
154	155	1
71	72	3
38	39	3
120	128	1
45	81	1
166	180	4
63	64	2
152	152	1
29	30	9
101	103	2
154	157	1
7	7	3
47	120	1
33	33	3
160	160	12
24	25	4
126	126	8
108	116	2
161	179	1
76	76	7
48	48	4
81	81	1
45	47	2
170	178	5
167	167	4
111	111	6
83	84	9
0	0	3
83	87	2
116	116	7
181	182	2
86	86	2
96	96	6
27	28	3
25	25	5
124	124	5
110	126	5
64	64	3
11	24	1
35	36	6
143	144	2
7	81	2
45	53	2
175	175	4
132	133	3
188	189	2
141	141	3
5	5	5
19	20	6
32	32	3
137	138	3
146	148	2
64	65	1
17	18	5
35	175	1
109	110	3
12	12	6
48	67	1
146	160	1
7	8	3
22	23	1
47	102	3
99	99	9
58	59	5
97	99	4
21	21	4
15	44	2
160	162	2
53	86	8
35	38	1
85	85	4
79	79	6
79	94	2
176	177	2
68	68	3
91	92	4
185	186	3
128	134	6
146	147	1
54	55	1
95	102	3
170	170	10
32	39	3
5	6	3
13	82	2
181	183	2
77	85	1
133	133	3
114	117	1
66	66	7
124	165	2
8	22	1
73	73	7
6	83	2
25	26	1
150	174	1
0	5	2
37	41	3
97	101	2
23	23	1
172	173	5
16	125	1
87	88	1
153	154	1
156	162	3
147	161	2
175	183	1
171	175	5
121	163	1
12	13	5
174	175	1
12	14	6
101	105	2
94	100	1
74	133	3
143	151	2
71	94	1
82	83	3
118	119	1
42	56	1
66	67	1
58	58	4
55	66	1
100	102	1
74	75	5
92	93	4
148	153	1
122	123	2
94	95	1
35	35	6
164	164	2
117	118	1
72	74	2
20	20	3
143	148	1
123	123	4
61	62	4
10	39	3
104	114	2
108	117	2
85	89	1
23	24	2
93	100	1
12	40	1
178	178	2
32	43	1
47	88	1
113	116	2
91	96	2
120	121	2
141	143	3
165	167	3
3	7	3
133	134	1
123	178	2
13	39	2
42	44	1
66	77	2
63	65	1
6	40	1
121	180	2
40	41	3
115	123	1
36	36	1
30	32	1
13	14	1
132	135	2
84	137	1
95	96	2
154	154	1
124	164	2
78	81	1
15	15	1
95	95	2
129	131	1
184	185	2
27	30	1
185	187	2
5	7	1
158	158	2
108	111	2
52	52	1
6	7	1
140	177	1
46	47	2
110	112	1
30	85	1
86	89	2
48	120	2
9	10	1
110	110	2
169	172	1
165	182	2
71	74	1
14	17	1
174	174	1
45	96	1
121	122	1
161	177	1
144	144	1
