111	113	2
88	106	1
42	42	7
15	15	11
11	12	6
7	7	4
142	162	4
113	113	12
169	170	6
88	89	3
143	145	2
95	110	4
38	38	5
8	8	4
121	133	4
2	3	2
163	163	2
163	164	2
23	23	7
41	41	12
24	54	3
127	128	8
118	118	4
3	9	4
165	177	3
150	152	3
33	46	4
104	104	6
64	79	2
120	149	2
138	138	2
39	40	3
5	14	2
142	142	4
64	64	1
110	110	3
132	137	3
145	146	5
40	40	4
26	26	3
65	67	12
9	36	1
24	57	2
142	159	6
81	82	9
37	38	3
4	4	5
160	160	6
157	162	3
131	136	1
3	18	2
105	107	4
41	42	1
174	174	5
97	110	7
121	121	2
72	72	5
93	111	6
11	20	2
108	108	2
57	58	4
68	68	3
120	121	7
11	11	4
61	85	5
117	118	1
80	80	3
115	115	2
158	158	2
112	112	3
6	6	3
32	40	1
64	83	6
91	97	7
124	124	5
132	149	2
33	33	1
1	1	3
58	58	4
126	126	4
26	28	1
29	29	4
55	58	4
162	162	2
148	148	5
101	101	5
83	83	1
178	178	3
39	39	5
55	55	1
6	7	2
10	36	7
97	99	3
102	115	3
84	84	4
37	140	2
108	113	1
142	161	1
44	44	2
19	20	1
161	161	2
76	76	2
74	74	3
165	165	7
95	105	2
5	6	1
79	79	5
153	153	3
52	52	2
171	173	3
82	82	11
121	126	1
100	109	3
56	56	2
129	129	3
102	105	4
100	110	1
22	53	1
152	156	1
147	148	1
95	95	3
86	98	1
156	156	3
12	12	5
86	102	1
121	172	2
10	10	1
7	158	2
120	120	2
116	119	2
136	136	8
24	24	1
57	57	4
29	32	5
2	10	4
117	117	2
98	100	1
121	130	5
130	137	2
91	91	4
161	162	4
36	36	4
55	56	3
105	105	5
111	111	2
31	176	1
173	173	3
62	73	4
88	90	1
130	149	1
97	98	3
144	144	2
170	170	3
53	53	5
167	167	2
81	81	3
107	112	1
19	19	5
30	31	2
62	62	1
2	2	2
30	30	1
150	169	1
2	4	2
4	13	4
45	45	4
4	19	2
3	4	3
13	13	3
123	123	1
160	162	1
100	115	1
22	23	1
149	170	1
175	175	1
137	149	3
88	99	4
60	138	2
121	132	1
90	90	3
137	137	2
85	85	2
83	84	2
114	114	6
92	112	2
173	176	1
11	35	2
122	122	4
85	86	3
121	122	1
134	134	7
102	106	4
135	135	2
67	68	2
5	45	3
70	70	1
94	112	1
8	45	2
180	180	1
25	26	1
176	176	2
172	172	1
95	107	1
119	120	1
102	119	1
38	39	1
157	158	3
130	130	5
149	149	1
32	33	3
141	159	1
90	102	1
154	154	1
24	50	5
156	168	2
63	73	1
98	98	2
164	180	2
7	163	2
92	94	2
77	80	2
50	50	1
104	105	1
33	34	1
115	119	1
171	172	1
88	88	2
61	61	6
141	165	1
63	63	1
22	36	2
139	139	4
99	116	1
108	134	3
141	141	4
1	10	1
93	94	1
65	68	2
108	135	1
39	41	1
59	59	1
78	79	1
132	132	1
37	37	4
5	43	4
124	125	1
102	103	1
143	174	1
62	148	1
151	154	2
179	179	3
52	53	2
72	74	2
24	25	1
94	111	1
109	121	1
43	179	2
152	153	2
71	71	1
32	36	2
29	30	1
127	127	1
86	103	1
148	171	1
49	49	2
166	168	1
162	166	2
11	24	1
38	75	1
96	96	1
34	34	1
128	128	1
20	36	1
106	118	3
5	8	1
81	84	1
99	115	1
107	107	2
20	21	1
86	99	1
7	177	2
71	80	2
92	93	2
59	176	1
33	40	1
43	45	1
116	116	2
164	167	1
126	127	1
131	132	2
126	128	2
152	152	3
3	3	1
78	88	2
168	168	1
159	159	2
130	150	1
103	103	2
167	168	1
24	51	3
9	12	1
155	156	1
38	42	1
1	14	2
64	76	1
156	162	2
147	147	1
133	133	1
21	21	1
85	101	1
106	134	1
171	171	1
151	152	1
131	131	1
18	19	1
157	157	1
4	14	1
16	16	1
150	150	1
9	35	1
6	177	1
145	145	1
89	90	1
166	167	1
116	117	1
175	176	1
151	156	1
50	51	1
150	170	1
65	66	1
6	42	1
