87	98	2
162	169	4
120	122	11
13	18	1
40	41	6
143	151	3
38	39	6
38	43	5
157	159	3
108	109	1
119	129	2
166	167	7
61	64	1
109	116	3
126	136	2
11	11	7
40	40	10
174	174	12
174	176	10
112	112	21
161	169	3
55	55	7
16	16	4
154	156	4
123	123	6
78	82	7
86	88	5
59	59	8
77	81	3
66	67	8
168	169	10
101	104	2
146	148	1
140	142	4
141	146	2
141	141	9
33	38	7
19	19	10
91	100	8
50	52	6
104	104	9
122	130	5
135	142	1
171	172	2
159	160	7
18	28	5
40	46	3
118	121	2
93	93	12
96	98	4
121	122	4
130	131	4
56	56	4
171	180	1
144	152	5
139	139	10
32	41	2
90	91	4
133	137	7
93	99	6
94	96	4
60	73	3
54	54	2
154	163	2
80	84	3
176	177	10
50	51	12
146	150	4
85	88	3
119	119	4
160	160	7
21	21	4
81	87	2
32	35	3
178	178	6
84	84	1
130	136	3
133	134	6
141	143	7
151	151	3
14	14	2
86	89	3
166	169	7
79	81	1
118	118	6
155	155	11
97	104	4
29	29	6
19	24	2
173	173	4
88	96	2
71	77	1
161	162	5
17	20	6
149	150	9
123	131	4
158	161	2
109	109	14
11	20	2
3	3	7
150	152	3
115	122	3
89	93	5
61	61	6
5	10	1
0	2	2
111	111	8
79	80	4
180	180	9
163	163	4
148	148	16
114	119	3
169	178	3
168	177	1
157	157	4
156	156	5
107	110	4
154	154	2
110	112	4
16	60	5
153	161	3
104	106	2
152	152	3
140	140	10
5	7	10
147	150	2
136	138	3
34	34	4
153	157	1
142	143	1
135	135	6
138	139	2
40	43	3
121	121	4
114	117	6
73	76	4
24	24	4
97	99	3
122	122	7
17	23	4
127	127	7
134	142	8
149	155	1
105	106	1
79	92	7
170	171	6
133	133	13
96	104	2
35	38	8
75	83	2
163	165	2
153	153	10
171	178	4
12	18	3
107	107	21
1	3	2
38	38	5
81	81	5
139	140	5
66	66	6
53	62	2
115	116	6
9	9	7
14	17	3
151	152	1
159	159	6
22	33	2
167	171	1
6	7	5
53	53	7
27	28	1
103	106	2
14	20	3
97	98	8
161	161	3
74	74	7
136	137	6
169	169	7
105	105	6
12	12	2
149	157	3
51	54	5
39	39	5
144	157	3
119	130	1
5	6	12
155	156	4
0	5	5
122	123	2
160	163	4
62	62	4
107	108	12
172	179	2
96	96	5
52	56	4
129	135	4
53	54	11
4	4	10
42	45	5
113	113	3
162	163	3
119	123	5
8	8	7
123	128	3
158	158	7
4	7	1
141	150	1
176	178	6
119	127	5
108	117	3
60	63	2
111	114	5
126	130	2
27	27	7
2	13	4
25	30	1
67	68	10
78	78	2
42	43	2
24	36	5
21	24	3
128	128	1
40	42	4
170	173	3
118	120	3
49	63	2
136	136	4
168	168	7
50	50	3
144	144	8
32	39	4
110	110	13
142	142	7
132	132	1
10	16	3
4	8	2
28	54	3
18	21	1
142	147	4
149	153	2
124	129	1
65	65	4
132	137	1
10	62	6
57	66	1
146	146	9
84	98	7
18	22	3
30	30	3
108	111	3
102	102	7
108	110	2
18	18	4
148	149	7
153	154	2
167	174	5
120	131	4
138	146	3
23	23	4
11	18	5
94	98	3
115	115	8
56	61	6
13	14	2
131	131	4
139	141	3
166	166	6
156	159	5
83	94	1
162	162	7
35	35	8
20	20	7
163	169	2
9	13	5
12	14	2
10	83	2
97	97	4
171	171	9
74	80	3
12	20	1
107	116	3
172	180	1
3	4	5
43	43	6
5	5	11
151	154	2
94	94	4
80	80	5
21	30	1
22	23	6
169	172	1
173	174	2
154	159	5
81	83	4
26	31	2
57	68	7
63	63	4
71	72	2
163	166	1
100	105	1
21	22	2
166	174	1
144	151	6
85	91	4
10	10	7
95	99	3
55	66	5
46	46	3
143	143	10
2	4	6
11	13	3
131	139	1
114	120	4
103	103	5
152	153	2
1	6	1
167	179	5
179	179	7
1	2	2
95	95	8
154	162	3
113	115	1
1	4	2
84	87	1
127	129	3
108	122	6
128	129	4
71	75	3
2	2	2
72	80	3
10	81	2
176	176	8
160	165	3
58	60	7
177	179	4
43	45	6
28	33	2
15	15	7
108	115	1
54	56	3
85	85	3
11	12	2
43	46	2
6	10	2
13	17	3
41	44	4
89	92	5
24	32	2
64	71	2
151	161	2
90	90	1
129	129	3
11	92	2
140	146	8
36	41	1
60	60	6
61	63	5
68	68	1
138	141	3
42	42	2
134	134	3
71	76	1
24	28	1
109	115	6
99	103	3
10	13	2
164	164	4
166	171	4
108	133	1
85	93	3
159	168	1
15	16	4
98	104	3
166	173	1
18	25	2
158	160	4
140	143	7
134	144	1
53	55	3
142	152	2
141	149	1
3	7	2
158	165	2
10	11	4
135	140	2
39	43	2
72	73	5
70	71	5
153	155	2
89	89	2
58	58	3
39	41	2
98	99	2
102	105	2
95	98	3
15	19	2
87	87	2
105	108	4
142	149	2
57	57	5
171	179	2
57	59	8
149	159	2
73	75	5
10	20	1
52	60	2
155	158	1
81	82	2
10	14	1
130	137	2
99	101	2
54	58	2
61	66	2
29	32	3
85	94	5
80	81	2
84	91	2
100	109	3
126	129	2
111	120	2
143	144	1
81	90	2
96	100	6
125	126	6
7	14	1
95	96	2
26	63	4
143	155	3
64	83	1
63	71	1
78	81	5
129	133	2
33	33	1
41	41	3
163	170	1
6	6	10
29	53	1
153	158	2
152	161	1
52	54	2
52	53	3
151	160	3
37	50	5
165	167	5
178	179	2
53	61	7
84	90	3
2	3	2
76	77	1
155	157	1
99	99	6
49	54	2
87	89	1
14	81	2
34	40	3
160	161	1
172	172	5
56	58	1
133	144	3
60	65	2
112	115	1
122	124	2
119	122	1
177	177	3
44	44	2
103	105	6
171	173	1
122	128	3
95	105	3
84	89	3
70	70	2
150	153	3
125	128	2
21	26	2
156	171	3
71	71	7
118	119	5
74	83	1
100	101	4
33	41	2
108	108	5
149	149	1
29	38	4
66	71	4
162	166	1
98	98	2
133	145	1
13	15	3
167	168	2
65	66	2
92	95	1
64	66	1
149	151	3
5	144	1
172	173	1
16	17	1
157	160	1
79	79	4
58	59	2
67	72	2
96	101	1
83	83	3
159	163	1
129	130	1
8	15	3
8	17	1
131	147	1
127	138	1
130	130	4
89	102	1
32	33	1
119	125	4
135	147	1
153	163	2
106	107	4
139	146	6
30	31	1
145	148	3
77	78	1
0	3	5
91	92	2
153	166	2
97	105	2
12	24	2
31	31	1
120	120	1
1	1	4
3	5	1
51	51	1
95	100	1
52	52	8
97	111	2
78	84	1
84	97	1
156	160	1
175	177	1
120	132	2
124	125	2
2	86	2
1	5	1
138	142	2
82	93	2
76	76	1
76	84	3
4	20	2
32	36	4
20	25	1
104	108	2
164	165	3
153	160	2
56	62	1
103	113	2
18	29	2
165	165	2
148	153	2
12	19	1
109	113	1
137	138	2
27	37	1
36	40	1
127	132	2
139	142	3
80	92	1
100	102	1
90	97	2
173	180	1
59	60	1
125	125	4
23	25	1
83	92	1
42	44	4
165	170	2
78	88	2
122	129	2
21	41	1
116	117	4
32	32	4
152	171	1
103	117	1
170	170	2
18	19	1
138	140	3
27	31	1
110	111	1
77	90	1
2	8	2
26	30	1
64	68	3
11	14	3
92	92	1
89	90	3
9	10	1
108	113	3
175	175	1
67	71	5
55	64	1
162	165	4
134	135	2
179	180	3
0	0	1
174	180	1
143	170	1
161	172	2
128	135	3
79	83	1
51	52	2
86	86	1
134	151	4
22	28	1
31	36	2
62	65	2
57	61	1
23	26	3
113	118	2
28	28	2
15	28	1
32	42	1
97	106	2
163	164	7
52	57	1
136	145	2
167	167	3
91	95	1
13	13	1
75	75	2
79	82	1
137	140	1
17	17	3
25	27	1
92	93	3
27	30	1
2	89	1
67	67	3
123	126	1
50	61	1
63	75	2
72	77	1
123	124	2
114	118	1
64	76	1
104	114	1
137	137	1
72	94	1
169	170	2
156	158	1
167	172	2
131	132	1
134	155	1
3	9	1
119	132	1
4	5	1
49	57	1
147	151	3
173	179	1
61	62	1
106	106	4
127	131	1
88	88	1
130	133	1
120	123	2
124	126	1
7	7	2
107	111	1
125	127	2
14	19	2
175	180	1
62	63	1
80	89	1
14	15	1
144	148	1
148	150	1
43	44	1
78	85	1
65	74	1
147	147	2
5	18	1
156	157	3
129	136	1
101	101	1
24	27	1
114	115	2
55	56	1
151	155	1
23	28	2
83	84	1
124	128	1
126	132	1
19	21	1
140	150	1
86	87	1
72	81	1
16	61	1
160	166	1
116	119	2
125	129	1
112	114	1
11	23	1
177	178	1
37	37	1
26	26	1
56	59	1
161	163	2
53	81	1
117	126	1
34	36	1
96	113	1
110	119	1
99	106	1
37	38	1
55	62	1
157	164	1
167	169	1
86	92	1
154	161	1
23	30	1
19	22	1
111	118	2
175	176	3
89	91	1
153	156	1
49	49	1
16	81	1
174	177	1
98	105	1
57	60	1
142	151	1
116	116	1
117	123	1
