173	176	3
97	97	3
9	9	17
189	189	3
150	150	4
65	65	9
108	109	4
85	85	6
38	87	5
25	25	17
152	153	4
33	34	4
145	146	1
61	61	13
133	134	6
17	17	10
195	195	5
153	153	15
192	192	9
20	20	5
48	49	6
84	84	10
64	73	2
45	45	15
58	60	2
17	18	10
148	188	3
59	59	2
78	79	4
41	41	15
114	114	18
43	43	5
179	181	3
95	186	1
89	89	26
132	133	5
98	98	16
49	49	9
40	40	9
67	67	4
81	84	4
129	129	5
4	9	6
148	148	6
99	101	7
149	150	7
161	164	6
109	110	7
16	17	5
78	78	9
15	15	9
72	72	6
24	24	9
53	53	14
2	172	3
175	176	3
125	125	16
134	134	7
15	48	2
106	106	3
185	185	7
16	85	2
22	23	3
55	55	2
1	11	1
100	110	1
123	123	8
161	162	6
42	48	1
67	68	7
10	10	9
27	77	4
50	50	7
182	182	6
46	46	10
193	193	16
62	62	8
157	158	3
2	5	2
34	36	4
167	167	8
134	137	5
54	56	8
11	59	6
142	142	13
119	119	11
124	124	6
114	115	2
194	194	10
26	27	5
126	133	3
189	190	1
157	157	11
156	156	17
44	44	3
26	135	1
69	69	25
127	127	11
63	63	11
169	169	6
171	171	11
88	89	4
143	155	3
71	71	5
77	78	3
107	109	1
156	157	1
82	82	3
2	3	1
141	142	6
97	98	3
181	182	5
66	66	18
135	135	7
87	87	7
50	52	3
76	79	7
122	122	8
176	176	10
56	56	5
104	104	2
128	128	10
111	185	4
22	22	4
101	101	7
152	152	9
151	151	5
20	21	1
34	35	5
80	80	5
121	130	1
142	160	6
143	143	6
131	132	6
40	97	3
174	175	5
64	81	5
42	42	10
96	98	6
170	172	3
158	195	1
64	64	8
149	149	14
5	5	2
58	58	7
138	139	2
42	113	1
70	71	3
18	18	5
167	168	10
10	65	1
12	13	2
172	172	13
193	195	5
30	30	8
18	55	2
9	10	3
183	183	10
54	54	7
43	67	1
154	154	8
75	79	1
179	180	4
132	132	2
184	184	19
18	39	7
48	48	6
177	178	7
139	140	5
155	155	3
0	0	11
135	136	3
120	129	2
176	177	4
16	38	1
192	193	2
173	173	4
125	132	3
68	68	6
188	189	3
34	34	3
136	184	3
113	113	12
136	136	2
9	47	4
105	105	7
96	96	13
153	154	7
13	14	6
35	38	3
151	197	2
100	100	2
38	38	10
178	178	5
137	138	4
30	72	1
144	145	3
163	167	3
138	138	6
51	51	3
36	36	11
168	169	8
24	25	6
186	186	9
11	11	3
174	174	4
97	135	2
180	181	3
186	187	2
140	140	5
118	118	3
26	26	13
32	32	3
144	144	7
45	46	7
23	23	7
129	130	7
35	82	2
52	52	2
123	124	2
2	4	2
133	133	6
14	15	1
170	186	1
17	59	5
42	114	2
163	163	2
116	119	5
6	10	2
165	167	3
116	157	1
188	188	9
126	126	5
191	192	2
103	104	7
37	37	3
75	82	3
112	112	9
184	185	1
22	25	2
125	126	7
116	116	10
107	108	5
16	16	5
191	191	5
72	73	3
62	63	6
39	41	9
2	10	2
10	11	3
44	45	1
61	62	3
172	183	4
139	139	5
99	100	1
13	15	2
27	27	7
94	95	1
2	173	2
159	159	3
160	160	4
38	112	2
179	179	6
81	82	5
151	154	2
120	120	7
73	73	3
147	147	3
165	166	2
3	3	3
117	117	3
117	118	3
24	62	2
190	190	7
10	45	2
53	56	2
187	189	2
145	158	2
12	12	6
71	72	4
141	141	8
173	174	4
149	195	1
110	111	3
0	63	1
144	184	2
171	183	2
93	143	2
168	168	7
179	187	2
38	39	3
112	124	1
14	105	2
8	8	2
187	187	12
5	8	1
4	4	5
103	105	3
69	70	2
95	185	3
149	167	1
30	31	5
122	129	1
100	145	1
115	115	5
121	121	9
70	70	3
79	80	2
31	31	2
68	69	5
119	120	2
5	6	4
163	164	2
100	103	2
122	157	2
196	196	8
60	60	4
37	39	1
13	13	8
21	63	4
143	144	6
162	164	4
175	175	4
130	130	2
96	97	4
146	147	1
177	177	3
197	197	8
51	197	1
19	19	5
32	42	3
134	138	2
150	151	4
149	160	1
181	181	6
7	73	1
113	114	2
61	63	4
28	28	2
100	113	1
152	154	3
86	86	3
141	161	3
34	39	2
29	30	4
37	40	4
37	38	7
30	80	1
80	82	2
141	169	3
27	38	3
37	193	4
25	58	2
33	33	1
77	77	2
110	110	4
141	153	3
184	186	1
186	191	1
124	127	1
76	81	3
116	120	2
66	84	1
137	185	1
10	79	4
62	73	1
162	162	3
143	152	2
98	109	2
150	177	1
171	172	2
38	40	2
152	192	2
1	58	2
152	158	1
127	132	1
33	69	3
3	4	2
123	129	3
43	55	3
19	39	1
59	61	3
102	102	2
142	143	4
14	14	5
35	35	2
41	42	6
85	86	2
89	190	3
135	139	1
2	2	2
22	63	1
106	108	1
76	76	4
25	77	1
29	31	4
187	190	1
11	12	2
94	94	3
120	121	9
12	60	2
194	195	2
52	125	1
90	193	2
64	66	2
169	170	2
57	57	2
8	38	1
126	171	2
6	6	2
131	131	2
59	85	1
33	84	1
33	85	1
168	170	2
150	192	3
39	87	2
39	40	2
1	10	4
168	185	3
97	129	1
111	111	2
50	51	1
124	197	1
179	197	1
40	43	1
17	42	1
39	39	4
164	164	1
55	125	3
158	159	2
138	167	1
111	181	3
166	192	2
21	21	3
7	7	2
42	43	1
99	99	1
111	137	1
0	3	1
83	85	1
55	113	1
135	138	1
23	25	3
7	8	1
150	163	1
137	137	3
159	160	2
29	130	2
135	137	2
75	75	1
112	119	1
62	70	1
141	166	2
141	165	1
172	185	1
112	113	2
35	121	1
57	58	2
172	173	1
115	159	1
155	195	1
103	106	2
58	63	1
118	129	1
108	108	1
150	197	1
166	166	1
11	73	1
65	66	1
180	180	1
18	65	1
98	143	1
155	156	1
67	86	1
58	59	1
187	191	2
136	139	1
83	83	1
64	69	1
102	177	1
145	145	1
38	69	1
93	179	1
107	107	2
144	159	1
86	87	1
21	66	1
51	126	2
143	184	2
1	2	1
13	53	1
25	62	1
156	196	1
74	82	1
153	192	1
127	128	1
16	60	2
89	90	1
146	146	1
170	177	1
95	95	1
71	73	1
180	182	1
76	77	1
47	133	1
32	43	1
93	142	1
79	79	1
149	185	1
94	97	1
49	50	1
99	144	1
101	127	1
123	195	1
27	56	1
24	61	1
29	54	1
19	20	1
