12	12	4
56	57	2
4	8	6
28	29	2
33	34	5
69	71	3
80	80	2
42	48	5
39	39	2
7	7	6
73	73	4
62	62	3
41	42	2
50	53	2
54	69	1
40	40	3
33	58	4
15	15	2
70	70	6
19	19	4
43	61	2
33	36	5
11	12	2
57	61	5
52	52	2
73	76	7
0	4	2
1	6	2
0	2	3
5	5	1
29	29	2
5	17	2
69	72	2
66	72	1
37	41	1
9	9	6
27	27	4
61	61	5
50	50	7
60	61	1
9	21	2
37	38	5
48	50	8
4	4	1
62	64	2
10	10	1
15	17	5
68	70	7
53	56	2
31	40	1
74	76	1
60	63	5
56	58	1
20	21	5
3	4	4
55	55	2
76	80	1
75	76	2
62	63	2
31	34	2
48	48	2
17	19	6
18	21	4
11	16	1
26	27	2
36	38	2
68	73	2
60	62	2
31	31	3
68	69	1
33	33	6
49	49	5
72	73	4
42	45	1
5	8	5
27	47	1
58	59	5
26	30	3
46	59	2
49	53	1
47	57	3
52	69	1
61	65	1
39	42	2
48	49	2
57	65	4
1	3	1
65	65	2
10	17	1
3	3	9
75	75	3
41	41	2
16	17	2
2	2	3
45	46	2
66	67	4
6	6	7
75	78	2
67	69	2
2	3	1
69	69	2
76	81	1
74	75	2
63	63	4
70	72	3
68	72	2
55	56	2
49	50	2
35	35	2
67	68	1
27	28	2
53	55	2
46	78	1
32	56	1
42	55	1
0	3	2
61	64	2
47	49	1
21	22	2
3	9	1
69	73	4
58	58	2
74	79	2
0	0	1
50	69	2
30	34	2
53	53	3
51	78	3
57	59	1
34	36	1
36	36	1
34	37	2
66	68	1
78	79	4
48	57	1
30	30	4
10	12	5
67	72	7
12	17	2
49	69	1
37	37	2
34	34	2
74	74	5
15	16	1
68	74	2
59	76	1
8	12	1
67	70	1
48	54	1
42	42	2
14	14	5
67	67	4
70	73	1
12	14	1
17	18	1
6	15	1
38	43	2
62	70	3
43	45	1
64	64	3
7	8	6
50	54	1
9	12	1
15	21	1
25	25	1
31	32	2
35	54	1
54	56	1
68	68	4
77	78	1
9	10	1
35	51	2
26	29	1
35	40	1
58	61	3
73	78	1
9	14	3
20	20	2
79	80	2
53	73	2
0	1	1
41	45	1
36	54	1
42	43	1
53	69	1
37	39	1
58	78	1
76	76	1
47	51	2
54	74	1
75	80	1
18	18	2
49	62	1
6	13	1
3	12	1
64	70	1
52	62	2
18	20	1
47	47	1
34	43	2
30	31	1
54	57	1
72	72	1
76	79	1
59	59	1
59	64	1
