84	84	6
80	81	4
38	38	20
38	41	2
81	84	1
118	119	1
118	118	6
40	40	5
95	96	3
91	91	8
36	137	2
131	131	11
88	89	2
47	48	7
62	62	3
30	30	23
13	20	2
112	112	2
65	66	4
114	114	12
66	67	2
141	142	4
18	18	17
1	1	8
11	34	4
141	141	9
13	14	5
135	141	5
38	39	6
72	82	4
73	73	5
15	140	3
82	82	3
103	110	1
9	11	4
42	42	3
103	103	14
96	97	1
79	79	13
32	32	12
95	95	6
52	53	4
120	120	11
66	66	14
12	12	4
129	129	10
10	10	5
119	130	1
64	64	16
105	105	9
56	56	7
133	134	3
94	129	1
17	19	3
127	127	5
29	33	2
24	24	11
27	27	14
1	5	3
30	136	4
34	34	7
106	108	1
14	14	7
54	54	7
87	87	5
115	115	12
39	39	8
1	36	3
77	77	8
100	101	1
61	61	16
14	15	3
0	9	4
36	36	9
15	16	3
107	139	5
110	111	3
90	90	4
112	117	6
8	9	2
129	130	6
16	17	1
35	35	11
107	107	5
116	120	1
78	78	10
13	35	2
42	144	1
47	47	12
105	106	6
11	31	3
104	104	13
92	92	8
122	123	3
27	28	10
102	102	5
4	4	6
53	104	4
126	126	12
96	96	2
37	37	11
89	90	1
99	99	20
130	130	21
73	81	3
125	125	14
89	91	4
53	53	3
11	11	9
74	74	13
9	9	9
121	121	7
107	109	1
23	23	10
134	134	6
12	33	4
119	119	13
125	135	2
83	84	9
53	54	6
24	25	3
116	116	4
4	6	2
49	53	6
116	117	5
70	70	10
28	28	14
117	117	4
55	104	5
91	92	1
37	55	1
62	63	4
19	21	5
96	131	4
137	137	9
105	129	5
19	19	5
41	42	5
94	94	12
106	131	3
98	99	5
65	65	5
145	145	5
66	68	2
89	89	9
60	60	6
127	136	5
1	8	1
81	82	2
3	35	3
96	106	1
111	111	4
36	37	1
8	37	2
11	33	1
21	21	10
1	97	2
57	57	12
140	140	12
144	144	8
13	13	6
135	136	8
142	142	9
97	98	2
85	86	3
21	31	4
77	94	5
86	87	1
119	127	2
6	85	1
3	4	1
123	123	12
21	23	1
137	138	3
26	30	2
50	50	13
26	49	4
12	14	1
124	124	8
113	113	11
73	141	3
59	61	2
49	49	2
15	15	7
90	91	1
15	19	2
49	54	1
1	134	4
25	43	3
12	21	1
123	124	4
47	53	1
116	118	4
128	128	5
136	136	4
9	33	2
107	110	1
135	135	5
133	139	1
92	94	2
36	136	4
12	16	4
43	47	4
79	82	1
113	122	3
61	102	2
55	55	7
6	6	5
93	130	2
109	109	4
33	35	2
26	26	8
146	146	2
85	85	3
5	5	3
0	0	4
94	95	4
53	56	1
66	69	4
23	24	6
125	126	1
88	88	3
89	110	1
79	80	3
73	77	2
101	102	2
26	27	1
18	28	1
29	30	1
100	100	1
110	120	1
109	110	7
8	10	2
38	40	2
5	71	3
131	136	2
70	109	2
71	71	14
112	113	1
8	8	11
25	116	5
25	25	3
74	102	4
40	41	3
67	67	2
33	33	6
86	97	1
121	123	2
67	86	1
86	86	4
139	139	1
103	104	3
107	130	2
97	97	5
51	51	3
29	29	5
9	30	3
22	22	13
73	74	1
106	106	4
16	60	4
87	135	3
98	98	7
133	133	8
97	137	3
81	81	7
4	57	1
63	63	3
23	27	3
37	43	3
57	62	3
132	133	2
18	19	3
19	96	2
93	93	6
3	36	1
101	101	7
125	132	4
50	52	3
66	89	4
115	127	1
87	89	5
112	128	2
110	110	3
14	34	1
143	143	3
48	53	2
3	47	1
58	58	4
32	33	4
128	131	2
86	127	3
55	56	3
59	131	1
103	135	1
43	43	4
31	31	2
67	68	4
65	89	3
29	125	1
120	126	2
35	37	2
5	11	5
142	143	2
77	79	2
17	17	5
3	3	2
3	13	1
16	16	3
51	57	1
114	115	3
27	144	2
31	66	2
48	48	3
28	29	7
93	94	3
31	33	2
22	31	2
132	132	2
9	32	1
1	2	2
41	41	4
50	125	1
56	71	1
0	3	1
68	68	1
50	53	1
71	72	1
51	52	3
64	65	1
122	122	2
28	143	2
91	94	2
105	107	1
69	70	2
118	136	1
56	62	2
131	132	1
20	21	2
13	24	3
109	121	1
95	142	1
109	135	1
111	139	1
107	108	1
47	49	1
110	136	2
110	142	1
52	56	1
116	128	1
95	98	1
108	111	2
82	84	2
4	5	3
133	142	1
83	83	4
108	108	3
108	137	1
72	120	1
118	120	1
80	118	2
78	94	1
75	75	3
87	136	1
106	107	1
80	80	2
23	37	1
29	135	1
118	124	3
8	20	2
2	23	2
77	78	1
59	101	1
32	34	1
14	24	2
14	57	2
72	72	3
48	55	1
11	36	1
104	105	2
22	124	1
0	13	2
41	54	1
111	127	2
69	69	5
130	139	1
59	60	2
122	141	1
22	34	1
57	129	1
52	52	2
41	47	1
25	42	1
91	95	2
2	2	2
21	38	1
22	33	1
14	46	1
33	70	1
64	104	1
0	16	1
5	10	2
2	3	1
115	116	2
10	36	2
4	14	1
59	59	1
70	71	1
121	122	1
90	104	1
14	31	1
67	71	1
18	120	1
128	129	1
