150	150	7
50	120	2
110	110	3
64	65	2
53	54	3
185	186	5
167	167	3
207	207	6
158	165	3
67	67	5
218	224	1
22	51	4
198	198	11
73	73	8
171	201	1
39	40	1
103	103	13
30	30	6
202	202	8
172	172	5
86	86	8
210	210	6
66	66	16
105	105	4
152	152	8
96	96	6
42	67	2
171	212	12
172	191	2
63	63	4
12	12	6
19	19	9
35	114	4
4	96	1
91	194	1
29	31	6
109	109	3
177	177	11
55	56	2
175	175	9
16	16	4
70	175	3
89	89	7
6	6	2
229	237	5
159	162	4
164	196	4
3	3	11
154	156	2
156	156	2
63	119	3
91	91	8
218	228	2
117	117	4
74	74	5
184	236	5
199	208	6
79	170	2
167	204	1
173	204	1
53	81	5
90	90	2
188	209	2
95	95	4
26	26	10
187	187	5
177	195	1
76	101	1
24	24	7
177	196	1
185	185	2
146	163	5
175	248	4
34	34	7
6	12	2
217	242	4
170	170	6
218	219	11
151	153	1
17	17	6
209	209	8
57	88	4
246	246	7
152	191	2
161	203	1
232	232	10
181	182	3
14	14	5
111	206	3
33	33	2
229	244	2
241	241	5
152	218	2
190	190	7
101	101	6
54	80	4
236	237	7
114	154	2
245	245	15
104	104	10
15	15	6
160	230	4
118	118	6
113	113	8
171	171	5
6	112	1
91	92	7
79	79	5
93	93	8
64	64	7
179	179	7
27	27	14
27	78	1
10	10	3
98	98	8
31	103	6
39	39	6
22	22	3
78	78	2
236	236	5
192	192	1
61	61	14
179	180	5
48	68	1
228	241	4
56	56	6
223	223	4
64	119	3
174	248	4
58	58	12
194	196	2
154	154	8
100	100	8
115	115	1
37	37	8
36	37	5
164	164	8
42	50	3
92	92	2
159	159	3
8	8	12
161	236	5
21	52	1
173	173	6
230	230	10
196	196	1
69	74	1
222	222	5
215	217	2
66	182	2
50	50	7
221	221	4
162	162	4
112	112	10
43	43	9
11	28	2
110	111	4
87	87	4
13	15	3
13	14	2
79	118	2
119	119	9
57	59	5
235	236	4
37	176	2
221	222	5
153	196	4
99	99	11
109	110	2
88	168	2
213	213	4
63	78	4
34	39	4
185	236	3
200	200	6
16	17	3
28	28	4
201	201	5
184	235	3
145	164	3
45	45	8
44	46	1
97	98	7
50	119	8
173	188	1
105	106	3
52	53	5
17	34	3
225	225	7
114	115	2
91	100	2
120	168	3
20	20	5
9	9	6
77	175	6
204	204	4
57	57	5
22	55	2
200	208	1
157	168	1
233	233	11
157	158	10
85	88	5
113	116	1
13	18	2
76	76	3
237	237	7
81	81	9
176	176	3
25	25	5
32	33	2
239	241	1
204	223	1
97	111	1
107	107	3
42	49	3
194	194	6
29	30	3
189	247	4
146	151	2
41	41	7
239	249	2
205	205	3
247	247	14
40	47	1
55	96	3
158	158	1
38	40	4
174	174	4
70	196	1
216	221	3
247	248	3
116	154	2
188	188	8
229	229	5
46	47	3
36	36	5
91	98	3
11	11	3
168	169	3
38	38	3
240	245	3
7	7	3
88	88	9
42	112	4
105	107	1
43	112	5
76	77	3
231	233	3
224	225	3
191	217	6
32	32	5
116	116	3
72	72	3
182	183	2
173	192	3
29	33	1
234	234	8
83	88	1
160	160	4
160	213	4
219	219	5
3	8	2
239	239	5
204	206	1
149	149	3
238	238	3
70	174	2
31	32	1
213	214	1
85	85	8
75	75	5
71	71	9
30	101	2
70	70	4
145	145	1
214	216	2
18	36	1
156	173	1
229	233	1
119	173	3
57	62	2
80	80	4
181	181	2
56	80	2
120	158	1
94	94	3
5	5	3
244	244	5
221	227	1
35	104	3
201	213	2
238	245	3
84	93	2
29	64	1
59	79	3
102	102	4
166	167	4
55	61	3
215	245	1
77	78	5
2	2	5
44	45	1
168	168	3
11	12	2
44	59	1
40	40	2
150	151	2
111	111	5
31	43	4
62	95	3
39	59	3
175	195	4
191	247	2
84	84	2
21	23	5
171	207	1
149	162	2
193	193	4
165	166	4
160	236	1
154	155	1
163	206	2
64	152	3
170	192	1
54	55	2
108	108	1
35	36	2
25	51	2
244	245	2
16	18	2
182	182	2
212	219	1
203	203	2
17	181	3
218	218	2
49	49	3
29	155	1
20	21	8
161	208	1
48	48	7
3	228	1
41	43	1
106	107	2
55	55	2
47	84	3
151	151	5
52	81	2
46	83	1
119	178	1
68	68	5
118	119	4
46	46	1
22	73	1
44	96	2
70	71	2
25	47	3
211	226	2
82	82	1
44	58	2
65	66	3
20	25	2
23	23	3
82	83	1
59	60	3
206	206	2
65	65	3
52	52	4
216	216	4
230	236	2
93	175	2
69	69	3
197	202	1
35	35	4
186	203	1
169	169	5
155	240	2
193	195	4
33	113	1
200	240	1
22	23	4
102	105	3
235	235	1
160	212	2
240	240	3
96	101	3
38	39	1
191	191	2
234	235	1
27	28	1
68	78	3
6	7	2
28	169	3
177	197	3
79	162	1
86	87	2
214	228	1
217	217	2
220	222	2
147	147	2
42	42	6
197	197	3
47	47	1
69	98	2
39	107	1
1	9	2
48	85	1
228	243	1
1	1	4
118	152	1
60	61	3
212	212	3
155	155	2
36	43	1
79	82	2
83	83	1
59	59	4
19	24	1
99	106	1
237	240	2
31	115	2
89	169	1
114	114	3
40	43	2
210	211	1
152	164	1
178	178	2
38	108	2
173	195	3
150	195	1
35	43	1
166	166	6
215	218	1
44	44	4
64	228	1
80	158	1
218	226	1
31	116	2
20	42	1
61	62	6
172	200	1
106	106	1
240	244	2
208	208	2
248	248	2
161	205	2
231	231	2
17	18	2
177	178	4
24	26	1
54	54	2
240	241	2
199	221	2
153	153	2
162	211	2
195	195	2
196	197	1
49	50	1
31	31	1
33	60	2
80	83	1
157	157	2
189	189	2
200	244	2
153	164	2
59	113	1
173	175	1
111	202	1
218	221	1
173	196	3
28	79	3
89	91	2
230	233	3
115	154	1
116	117	3
184	187	3
225	227	1
163	163	2
147	219	2
65	111	2
111	159	2
29	32	2
190	192	1
183	183	2
42	66	2
52	88	1
28	80	1
8	24	1
180	181	1
51	51	4
158	205	1
151	191	1
160	215	1
243	243	2
228	229	1
175	176	1
31	101	2
226	230	1
226	226	1
156	246	1
79	111	1
8	10	1
33	43	2
58	59	1
60	112	1
206	207	1
38	43	2
9	26	1
224	224	3
97	97	3
158	159	1
84	86	1
175	239	1
25	113	1
4	5	1
95	110	1
29	80	2
5	109	1
167	205	1
33	101	2
70	75	1
145	147	1
184	184	1
176	177	1
80	156	1
56	57	2
101	102	2
14	198	1
100	101	1
45	96	1
242	242	1
60	60	1
168	171	1
51	52	1
38	41	1
36	95	1
31	33	2
232	233	1
165	165	1
228	228	1
226	234	1
37	196	1
4	4	1
52	157	1
9	23	1
175	247	1
18	18	1
215	215	1
