113	114	2
142	142	14
10	14	3
23	23	1
27	30	1
118	119	1
132	137	1
20	20	1
38	38	4
36	36	4
143	150	4
169	170	4
45	45	10
17	33	1
78	78	3
164	164	1
162	162	4
34	35	1
23	29	3
129	143	3
179	179	1
129	129	1
6	13	1
146	173	3
10	22	6
85	85	4
25	25	10
66	105	2
109	109	2
28	29	5
4	4	4
25	29	6
37	38	3
161	161	2
142	164	2
106	114	5
43	43	3
174	174	6
12	12	5
93	101	2
7	13	4
80	80	8
175	175	1
44	45	3
128	154	5
52	58	4
108	108	6
145	148	1
73	73	8
93	94	5
19	21	4
117	117	3
135	135	3
79	79	5
106	107	1
177	177	1
130	130	5
111	113	2
121	125	3
41	43	4
172	172	1
27	52	3
60	60	1
137	137	2
141	169	1
158	158	3
139	139	3
105	106	2
100	100	3
22	39	2
86	115	1
129	154	2
110	110	2
8	59	4
84	84	3
164	166	3
168	168	4
26	54	1
178	178	1
57	57	4
124	124	3
94	94	1
13	17	1
93	153	4
39	39	8
81	81	2
119	119	1
159	168	3
134	135	2
28	28	2
6	153	5
66	75	1
126	126	3
55	56	2
7	108	2
110	167	3
143	143	1
149	149	3
165	165	3
129	130	2
113	167	1
21	21	4
133	133	7
59	78	2
165	169	1
14	14	1
16	16	3
35	35	4
76	77	2
153	153	1
74	74	3
4	5	3
145	145	2
42	43	1
122	122	6
96	97	1
103	105	2
8	26	2
141	141	3
65	68	3
72	73	3
11	14	2
170	170	2
64	80	2
96	116	2
88	88	5
65	152	1
94	128	3
88	90	1
23	26	1
140	140	2
136	144	2
123	123	2
10	10	3
23	24	1
152	152	4
158	159	2
61	61	2
144	144	4
98	99	1
95	96	2
51	130	3
65	65	4
87	88	1
114	114	4
59	59	3
46	46	2
86	86	1
67	71	1
148	148	1
40	45	3
139	171	4
176	176	1
153	154	3
92	92	3
33	55	2
31	31	3
163	165	1
131	131	1
127	127	2
122	125	4
135	136	2
104	153	2
68	68	1
102	153	1
102	106	1
37	37	1
42	42	2
110	111	4
82	82	2
83	106	2
17	17	1
141	179	1
26	53	1
8	24	2
41	41	1
82	110	1
132	175	2
145	173	1
75	76	2
23	31	1
132	133	2
144	145	2
150	150	1
8	28	1
155	155	1
9	9	1
71	71	2
13	13	1
162	170	1
0	4	1
154	154	1
111	167	1
84	140	1
96	96	2
96	98	1
1	1	1
66	71	1
58	58	1
91	91	1
148	149	1
102	102	1
102	103	2
147	147	1
130	136	1
66	67	1
30	30	1
147	172	1
32	33	1
44	44	1
15	15	1
52	52	1
146	146	2
10	12	1
31	32	3
51	51	1
34	34	1
40	40	1
157	158	2
166	168	1
67	67	1
59	62	1
7	7	1
11	21	1
54	54	3
6	6	1
0	5	2
13	14	1
166	166	1
127	130	1
160	161	1
60	107	1
39	40	1
102	104	1
128	128	1
