79	84	1
82	82	4
75	75	12
47	47	11
54	54	8
55	60	3
100	100	6
112	112	6
48	49	5
75	83	2
96	96	11
98	98	11
103	103	15
91	91	5
86	87	2
55	55	6
24	24	15
109	110	2
32	34	3
56	56	2
114	114	8
96	97	10
63	63	5
62	63	3
28	28	2
105	106	4
61	61	10
42	43	9
83	85	4
111	111	15
29	29	7
84	84	5
67	67	9
76	76	14
50	50	9
21	21	4
42	44	3
41	41	8
99	99	10
62	62	5
33	35	9
52	52	2
77	78	5
70	70	8
97	99	1
110	110	6
48	48	8
90	91	4
36	36	6
24	55	3
71	74	2
101	101	10
93	93	10
68	68	5
95	96	6
73	73	14
113	114	3
25	70	2
59	59	7
33	33	9
108	108	4
43	43	11
37	53	7
101	103	12
94	94	4
78	78	12
58	62	1
63	70	3
26	31	1
53	53	21
97	106	2
22	22	8
25	25	8
23	23	4
69	71	4
76	78	3
82	85	2
76	77	7
36	46	2
33	40	3
94	95	1
36	60	6
107	107	9
91	98	1
38	39	7
79	79	6
90	90	7
114	115	1
64	97	2
33	34	3
51	51	5
72	77	2
72	72	7
19	19	3
87	90	2
87	100	2
102	102	2
73	75	3
49	49	5
86	86	10
26	27	5
109	109	3
40	40	10
32	32	6
45	50	3
70	71	2
97	97	6
63	93	2
110	111	4
31	31	9
37	37	15
58	58	5
87	87	2
35	36	1
76	84	2
69	69	11
42	42	10
80	80	5
81	81	4
60	83	1
50	51	4
106	107	2
53	54	3
56	57	1
74	75	4
41	42	4
34	53	5
48	64	2
88	89	2
61	62	6
72	73	1
92	92	7
77	77	10
27	27	10
65	65	5
73	102	3
74	74	4
24	25	1
42	108	1
95	95	4
94	103	2
34	34	3
104	104	3
47	49	2
26	26	6
77	83	2
39	39	5
31	37	2
32	37	2
42	60	1
27	54	1
47	48	1
44	56	3
30	31	3
70	72	1
35	56	1
87	91	3
63	64	2
60	61	1
95	99	2
55	83	1
102	103	2
60	60	7
28	35	2
29	31	3
32	52	3
44	44	3
89	89	1
115	115	4
105	105	4
67	70	3
46	46	5
39	40	2
98	114	1
97	100	3
104	106	1
35	35	2
73	83	2
83	84	4
25	35	2
83	83	5
98	99	1
113	113	3
71	71	5
78	79	4
95	113	7
85	85	3
73	101	1
107	111	1
20	21	3
84	85	1
41	44	2
43	44	4
66	68	2
66	93	2
77	91	2
79	82	2
74	77	1
19	81	1
66	66	5
36	37	1
55	62	2
91	94	2
57	57	2
81	82	1
71	100	1
38	38	6
74	83	3
51	54	3
28	29	4
71	91	1
63	67	1
88	99	1
27	29	2
57	62	4
52	53	1
50	60	2
111	112	3
30	71	1
107	108	2
67	69	1
93	99	1
76	87	1
71	75	1
28	30	1
82	83	1
88	88	1
35	110	1
102	111	2
106	106	1
112	113	1
19	20	2
39	46	1
40	41	2
48	99	1
20	74	1
21	48	1
88	104	1
34	35	2
29	30	3
34	96	1
54	55	2
103	105	2
52	113	1
61	72	1
26	55	1
50	97	1
37	38	2
58	59	2
79	85	1
64	64	3
81	84	1
28	44	1
27	28	2
45	45	1
101	102	1
64	65	1
21	85	1
20	75	1
91	110	1
57	58	1
73	76	1
40	42	1
85	86	1
57	59	1
98	100	1
21	26	1
59	60	2
66	67	1
20	20	1
35	39	1
88	90	2
71	72	1
76	86	1
