131	131	7
103	106	6
118	118	2
104	104	9
147	147	1
97	97	4
8	77	4
10	10	6
3	3	1
145	145	2
119	119	8
108	110	4
38	38	4
150	150	2
157	157	4
87	116	1
123	123	14
131	155	2
92	92	7
108	108	2
80	80	3
92	93	1
43	43	2
9	9	6
153	153	1
121	121	7
24	24	3
122	126	2
106	106	9
118	125	1
65	65	3
36	36	3
44	45	3
76	104	1
93	93	3
40	92	3
104	149	2
118	119	1
16	27	1
91	139	1
105	130	2
114	115	7
49	49	3
27	28	5
154	154	6
3	43	4
90	140	2
82	93	1
83	83	9
48	49	3
40	40	1
77	77	6
45	45	4
103	103	3
14	15	2
131	133	1
125	126	3
30	30	3
89	138	1
49	50	1
111	115	2
61	67	4
64	64	4
98	98	7
105	105	7
53	53	2
36	49	6
56	61	2
90	108	5
112	112	9
46	46	2
82	83	4
31	43	2
22	23	2
35	35	4
5	42	4
93	94	6
71	154	4
2	3	3
37	37	3
99	99	6
7	48	3
101	129	4
123	124	1
117	120	4
23	23	1
151	153	1
26	26	6
40	42	1
9	15	2
130	157	4
115	148	2
33	33	4
86	113	2
8	11	6
52	56	4
55	55	5
122	122	6
132	150	5
86	87	2
107	107	2
28	28	1
136	144	2
11	11	3
137	137	4
68	68	2
153	157	2
142	142	1
133	133	3
34	43	3
147	148	3
141	141	7
86	111	5
132	132	1
141	156	1
139	139	2
34	36	2
70	154	2
87	88	1
29	91	2
10	47	2
7	7	2
84	84	5
127	127	2
66	66	7
48	48	1
112	114	4
126	127	4
94	94	2
136	152	1
85	119	2
73	73	3
75	75	8
102	107	1
129	130	1
72	156	5
90	90	5
84	93	2
152	152	3
128	128	4
109	124	1
0	1	3
37	81	1
27	157	3
22	22	7
130	130	1
126	126	3
94	95	7
85	85	3
110	111	3
8	8	14
148	150	3
19	19	2
111	111	2
36	56	7
50	52	3
29	29	1
101	128	3
112	113	2
77	78	1
80	106	1
71	156	2
44	44	2
96	96	2
151	151	1
108	125	3
17	22	4
140	156	1
109	109	1
51	52	4
155	158	1
11	12	1
95	95	4
37	38	2
77	81	2
153	158	5
107	125	2
34	35	1
16	17	4
2	4	3
113	113	3
50	50	2
8	9	2
124	127	2
52	52	4
51	51	3
17	27	2
18	19	2
52	78	1
35	36	4
86	86	3
5	38	1
25	80	1
47	48	3
71	71	2
82	82	5
5	5	3
125	125	3
31	42	2
101	107	1
8	39	2
68	92	3
135	137	1
41	41	3
127	156	1
117	140	1
4	4	3
108	111	2
72	73	3
20	45	2
92	120	1
18	26	1
119	120	1
23	24	2
81	119	1
38	90	4
135	136	3
144	144	2
56	70	1
104	131	3
27	27	2
31	31	2
108	109	1
83	84	2
24	25	3
148	148	2
117	117	1
71	155	4
114	147	2
106	108	1
142	145	2
134	134	3
39	107	1
86	99	1
30	43	1
42	42	4
100	100	1
149	153	1
63	68	1
84	97	2
12	12	3
87	87	2
70	127	1
1	1	2
4	5	3
131	132	1
32	32	1
90	91	1
80	81	2
25	25	1
20	81	2
88	89	3
107	122	1
12	53	1
67	67	3
122	127	2
29	30	1
140	140	1
4	33	1
72	72	1
34	55	1
9	48	2
133	135	2
30	69	1
15	15	1
53	54	1
34	34	1
124	124	1
88	88	1
38	41	1
37	39	1
88	95	1
23	72	1
118	137	1
71	153	1
116	116	1
110	110	1
63	63	1
39	91	1
57	67	1
79	79	1
149	152	1
14	19	1
33	34	2
46	49	1
6	6	1
6	90	3
81	92	1
154	156	1
77	92	1
0	0	1
21	118	1
34	68	1
128	129	1
95	96	1
143	143	1
21	22	1
52	54	1
87	94	1
62	62	1
115	115	1
22	30	1
