22	25	6
35	45	4
51	51	8
62	62	8
76	76	3
39	39	8
52	53	10
27	45	3
24	40	6
92	92	2
22	96	1
79	79	5
55	64	2
100	100	2
41	42	2
103	103	8
88	88	10
101	101	17
81	81	9
50	50	1
65	66	9
80	80	7
25	25	8
74	74	8
82	82	8
73	73	24
95	95	23
91	91	5
56	56	10
27	27	9
37	46	3
84	84	8
49	50	3
55	56	2
52	77	3
65	65	8
35	90	5
86	86	5
62	88	4
69	69	3
56	99	6
42	94	3
33	35	3
21	21	8
87	89	2
59	59	8
22	22	15
40	40	8
106	106	7
39	40	6
49	49	5
90	90	1
68	68	5
76	77	1
55	71	3
55	55	4
37	37	7
34	34	2
73	74	1
98	100	6
57	69	2
61	61	6
97	97	4
72	73	1
89	89	3
66	66	11
77	77	5
67	67	8
20	20	5
31	31	2
24	24	6
35	59	2
51	62	4
54	54	11
39	44	1
98	98	4
69	72	1
96	97	1
99	100	2
93	93	8
63	63	8
105	105	4
52	69	3
35	92	4
21	34	2
96	99	3
48	49	1
62	64	1
53	53	11
78	79	4
95	96	4
104	104	9
60	60	7
64	64	2
66	74	3
25	26	4
89	90	1
54	60	1
46	98	6
57	57	6
56	57	5
33	33	1
78	78	6
61	62	1
45	45	2
75	75	6
35	35	7
96	96	11
56	65	4
23	23	10
70	70	2
72	72	12
38	38	3
75	102	2
94	94	6
56	104	1
98	99	2
85	85	2
61	63	1
76	102	1
28	29	3
69	78	3
52	52	8
59	60	1
44	62	2
53	54	1
36	36	9
48	48	2
73	106	1
53	82	1
63	65	2
45	47	2
20	21	6
66	67	2
43	44	2
74	75	3
99	99	2
24	45	2
65	70	3
52	87	1
42	63	1
41	41	3
40	104	1
67	68	2
40	72	2
54	56	4
58	58	2
34	92	3
75	92	2
53	55	1
59	102	1
81	82	1
26	27	1
26	26	1
51	53	2
73	79	1
85	86	1
104	105	1
52	89	1
67	70	3
54	61	2
101	104	1
83	84	3
102	105	1
30	30	3
93	101	1
42	43	4
39	91	2
87	87	3
101	102	1
83	85	1
57	58	1
106	107	1
97	102	1
36	90	1
22	37	1
82	89	1
44	91	2
78	90	1
59	71	1
25	39	1
47	48	1
71	72	2
32	32	1
44	45	1
52	88	1
65	73	1
36	37	1
71	73	1
58	59	1
87	88	1
96	102	1
