182	182	10
120	120	2
19	19	1
7	7	11
70	70	12
167	169	4
104	123	3
215	215	3
135	135	5
161	161	8
199	200	2
50	63	4
67	81	1
47	47	5
145	146	3
233	234	2
65	66	1
109	109	2
192	192	3
175	175	4
231	231	7
170	171	2
127	127	8
141	235	1
138	138	7
194	194	8
164	165	5
177	178	1
20	20	6
185	185	4
212	213	3
18	18	9
37	37	11
68	80	3
129	129	6
138	139	4
145	147	4
216	216	5
204	204	12
199	199	5
123	123	9
40	40	6
200	200	1
236	236	5
222	222	12
99	99	6
69	69	6
232	233	2
170	170	7
30	32	2
1	7	4
100	101	1
80	80	3
54	54	1
6	6	1
241	241	9
242	242	1
117	117	2
16	16	4
162	162	1
28	30	4
2	2	9
198	198	5
75	75	2
152	152	5
107	107	4
48	51	5
58	58	7
106	106	1
113	113	4
44	44	4
143	143	3
105	105	6
139	140	2
136	196	1
183	186	1
168	221	2
45	46	4
167	199	1
31	31	5
223	223	2
121	121	2
155	155	7
128	128	3
171	201	6
140	140	6
96	120	1
214	214	4
1	2	4
201	202	2
36	38	2
121	122	2
146	146	8
26	26	3
119	119	2
213	213	5
205	205	1
2	4	1
57	57	3
225	226	1
144	144	5
49	50	3
213	214	3
58	63	3
160	161	3
210	210	1
177	177	10
105	129	4
115	115	3
46	49	2
214	219	1
149	149	5
19	20	3
165	165	8
210	213	3
156	156	4
25	25	6
209	209	3
145	145	4
2	3	4
198	199	1
101	101	4
36	36	1
151	231	1
174	175	1
54	56	3
33	34	5
159	222	1
217	217	3
184	192	1
15	15	3
17	89	1
27	27	1
28	28	1
104	104	3
135	153	5
151	151	6
61	62	4
160	160	15
3	3	5
1	1	4
225	225	3
141	141	5
62	62	1
55	55	1
184	184	1
82	83	3
235	235	5
207	208	2
208	208	2
193	194	1
207	207	3
220	220	1
74	74	6
60	60	7
77	78	3
18	20	1
5	6	1
206	206	1
164	164	3
71	71	2
137	147	2
9	9	2
139	145	1
148	148	3
10	70	1
3	11	1
38	38	2
117	118	2
240	240	1
173	173	1
226	227	2
168	168	5
156	158	3
181	183	1
29	29	4
102	127	1
78	79	1
108	108	2
14	14	7
23	24	1
56	56	2
98	99	1
101	128	2
178	178	2
42	55	1
203	203	6
5	35	1
224	224	3
95	96	2
227	227	4
0	71	1
224	225	1
144	145	2
221	222	1
180	182	1
186	186	1
150	151	3
85	85	1
163	163	2
178	180	3
21	143	2
15	16	3
49	49	2
122	122	3
155	168	1
148	234	4
180	180	4
200	201	2
215	216	2
66	66	1
26	27	1
125	126	2
114	114	1
36	37	2
187	187	6
167	167	1
201	201	4
69	92	1
73	73	1
228	228	3
166	166	1
189	189	1
204	205	2
213	229	2
181	181	2
88	88	5
30	30	2
217	228	1
23	23	3
158	159	2
136	137	3
111	113	2
52	52	1
169	186	4
136	136	4
60	132	2
152	217	1
86	88	2
96	106	2
134	134	5
99	100	2
184	185	1
150	150	1
98	98	2
41	42	2
159	159	3
173	176	1
116	116	3
169	222	2
125	127	2
57	130	1
24	24	2
43	44	2
12	13	2
230	230	3
51	51	1
213	215	3
133	134	1
43	55	2
71	73	1
132	132	2
67	67	2
142	142	2
176	176	2
86	86	2
169	169	1
140	142	2
50	53	1
97	97	2
61	61	2
180	181	1
223	225	1
146	147	1
196	196	1
33	33	3
64	64	4
65	65	3
138	235	1
96	97	2
39	39	1
32	33	1
135	194	1
131	131	2
46	46	1
63	64	1
125	125	1
232	232	1
146	148	1
48	50	1
43	43	3
220	221	1
91	91	1
131	189	1
212	212	1
4	6	1
172	226	1
157	160	1
168	170	1
237	238	1
112	112	1
181	202	2
42	42	1
76	76	1
96	96	1
100	100	1
143	145	2
62	63	1
29	31	1
202	202	1
153	153	1
203	204	1
229	238	1
103	124	1
159	160	2
136	152	1
190	191	1
4	5	1
130	130	1
169	170	1
218	218	1
148	235	1
226	226	2
152	175	1
137	138	1
78	78	1
0	8	1
8	8	1
194	195	1
197	197	1
10	10	1
71	72	1
91	151	1
210	229	1
68	68	1
192	193	1
