68	68	5
154	154	5
220	222	2
59	75	2
234	234	12
56	57	3
84	84	7
53	54	4
107	107	8
225	225	7
191	191	2
202	202	4
205	205	4
151	151	14
174	218	3
107	162	1
78	78	6
72	72	13
13	34	4
113	113	5
80	80	4
232	232	8
75	75	4
80	123	2
74	74	2
169	171	1
209	209	4
146	146	6
179	179	4
222	222	3
47	58	6
174	175	2
83	83	3
226	227	7
123	125	2
108	114	1
154	156	6
219	219	1
163	166	3
128	130	6
158	158	7
42	50	4
129	129	8
4	5	4
198	198	8
172	172	12
114	150	1
62	62	18
53	55	4
237	237	1
0	38	2
171	171	2
18	19	7
184	210	5
143	144	2
122	129	2
107	129	2
129	202	1
179	182	1
37	37	3
135	163	3
78	79	8
80	84	1
49	49	12
208	229	2
235	236	1
140	140	7
143	146	4
117	117	10
136	136	7
20	20	10
178	178	7
5	5	13
119	119	3
173	173	10
121	168	5
2	3	10
229	229	7
164	164	11
89	89	1
76	76	7
228	228	13
30	30	7
184	196	2
135	167	6
101	101	7
28	28	7
138	138	7
97	97	5
61	61	14
85	86	3
37	38	2
1	56	1
99	99	9
111	146	3
0	6	2
130	130	3
203	203	5
154	155	3
81	82	5
203	228	3
170	185	4
155	213	8
159	159	3
211	211	3
187	187	6
6	6	14
162	162	6
154	185	6
2	56	3
29	29	8
12	135	2
10	11	4
72	73	3
118	118	3
195	195	11
6	8	4
24	24	4
39	39	7
48	61	2
15	16	8
27	27	5
172	178	4
110	110	3
145	145	7
33	33	4
2	22	1
236	236	1
147	169	3
3	3	2
77	77	4
220	220	6
116	143	4
41	41	5
219	230	2
116	116	3
150	150	5
178	181	1
26	26	4
150	151	4
115	184	4
32	32	8
216	216	11
168	186	2
39	56	2
186	186	4
16	16	12
95	96	3
128	128	4
120	120	2
149	152	2
202	226	8
151	152	1
212	212	6
1	1	5
82	82	10
117	162	2
81	81	4
214	215	1
6	41	2
141	141	9
161	161	3
125	125	14
148	161	2
95	95	2
183	183	2
160	160	5
73	74	2
35	35	5
119	120	1
12	12	3
23	23	7
59	69	9
155	155	6
48	48	7
41	42	2
76	109	6
214	214	2
217	217	8
39	41	3
167	167	3
77	113	2
204	229	1
193	193	4
197	200	1
88	88	6
104	153	1
195	196	2
86	86	4
181	181	4
50	50	6
105	152	1
185	185	4
122	154	1
223	223	14
178	180	3
177	177	4
177	216	2
55	55	4
6	152	1
242	242	3
213	213	5
221	222	4
13	13	6
180	180	7
181	182	4
66	67	15
4	4	2
13	134	2
40	40	2
22	22	9
165	165	1
157	179	2
173	218	2
38	38	2
43	44	1
47	50	2
191	192	5
206	206	5
142	143	3
203	204	3
107	143	5
237	238	4
56	56	12
229	230	2
45	45	3
225	226	5
129	163	4
19	21	1
157	213	3
115	115	4
116	147	2
70	70	6
63	63	5
0	1	1
197	197	4
218	218	10
147	168	2
2	2	3
69	71	3
126	132	1
157	157	10
137	137	6
34	34	10
8	35	3
71	73	5
108	108	4
136	165	3
71	71	10
71	102	2
133	134	2
139	139	3
221	221	7
148	148	4
35	38	2
9	9	3
147	148	2
33	86	1
103	106	2
7	38	5
178	206	5
105	219	12
25	27	3
3	27	3
56	85	3
201	201	6
176	176	3
174	220	3
171	213	2
65	66	2
205	206	2
182	195	3
204	207	2
206	212	2
69	74	3
60	88	5
210	210	11
125	127	3
133	133	1
54	54	3
19	30	2
240	240	5
140	141	5
135	166	4
29	30	2
199	237	2
182	182	6
157	158	3
146	152	1
42	55	1
8	20	3
208	208	5
69	69	11
23	38	2
17	17	3
123	126	2
171	178	2
100	159	4
130	136	1
33	85	2
169	169	1
141	142	1
122	164	2
62	88	1
226	226	2
165	167	4
103	103	2
188	188	5
198	199	3
139	168	2
25	25	2
137	138	5
79	79	8
241	241	2
145	147	1
207	208	5
31	31	1
239	239	3
204	208	2
52	52	5
44	44	3
135	164	2
152	178	1
40	59	2
183	196	2
15	15	3
227	227	9
152	152	9
32	57	1
26	45	5
43	43	5
155	171	3
20	34	3
21	22	1
123	148	1
199	238	1
200	200	2
53	53	6
11	11	2
141	191	2
106	106	4
18	18	2
199	199	5
199	200	2
166	166	2
65	65	5
105	231	1
70	71	1
231	231	3
40	41	1
6	19	1
118	128	8
138	189	1
0	12	1
138	139	3
139	140	2
48	49	2
81	86	3
26	44	1
171	172	1
187	189	2
50	67	1
118	163	5
122	122	1
7	7	6
219	240	1
235	235	1
222	223	1
109	109	2
74	75	4
234	236	1
46	67	1
126	126	2
106	111	1
215	215	3
137	140	1
36	36	1
64	64	4
56	59	1
26	27	1
30	31	3
192	192	3
52	53	3
23	26	1
67	67	2
149	151	2
51	51	1
175	175	1
3	21	2
54	60	4
60	60	3
21	31	3
207	209	2
47	47	4
112	162	2
24	26	2
238	238	2
169	185	2
141	152	1
154	160	1
156	156	2
98	98	5
21	21	2
142	188	1
120	181	2
95	112	1
230	230	3
149	150	1
118	159	1
173	174	3
174	174	7
17	18	2
121	121	6
4	22	1
150	178	1
173	175	2
198	239	1
112	113	2
104	104	2
7	15	1
8	8	2
211	212	2
10	10	1
47	59	1
134	134	1
183	224	1
142	142	2
7	37	1
58	58	3
54	59	3
169	170	2
157	214	2
183	220	1
167	168	1
100	101	2
186	187	1
118	121	1
35	36	2
182	215	2
70	74	1
41	45	3
55	56	3
145	146	2
132	132	1
131	131	2
6	7	2
123	123	4
172	177	1
120	121	1
149	158	2
168	209	1
102	102	2
185	186	1
189	189	1
166	167	1
40	45	1
149	162	1
154	213	1
190	190	2
124	133	1
121	128	1
9	81	1
137	139	1
64	89	1
183	191	1
21	33	4
5	8	1
140	167	2
19	35	2
127	134	1
146	147	1
202	227	1
165	168	1
206	211	2
107	111	2
169	186	2
193	194	4
152	177	3
178	179	1
232	234	1
20	39	1
190	193	2
165	166	1
139	189	2
228	230	2
70	103	2
233	239	1
149	176	1
69	76	1
169	195	2
105	105	1
136	138	1
109	110	2
135	136	2
194	194	1
136	164	1
67	68	1
198	240	2
175	231	1
140	168	1
18	20	1
11	166	1
153	217	1
190	192	1
143	143	1
1	12	1
156	169	1
152	174	1
16	31	1
206	216	2
168	168	1
201	223	1
15	37	1
11	19	1
79	80	1
170	170	2
137	188	1
114	114	1
192	243	1
234	235	1
22	33	1
208	209	1
50	52	1
163	163	1
