75	75	15
95	95	5
127	127	15
98	98	14
95	97	7
25	36	9
1	10	2
74	74	10
91	91	13
73	73	10
4	4	10
36	36	17
120	120	21
34	34	6
86	109	5
29	29	3
80	80	16
94	94	7
26	31	1
102	102	9
35	35	8
136	136	19
7	7	4
87	87	11
25	25	4
79	79	10
18	20	5
97	97	9
134	134	12
121	121	1
124	124	7
5	5	9
73	97	1
18	18	9
111	111	7
85	85	9
110	111	1
10	10	3
9	17	5
21	21	15
76	77	5
27	27	10
118	118	6
31	31	6
137	137	6
104	118	6
93	94	3
139	139	2
119	119	4
107	108	4
109	114	2
83	83	5
90	90	12
130	130	11
125	125	5
131	131	10
128	128	7
123	126	3
19	19	10
109	109	3
101	101	8
38	38	15
16	16	8
89	89	7
0	0	3
84	84	3
8	8	12
27	28	2
71	72	3
81	81	11
7	18	6
72	100	4
94	106	3
19	20	7
77	77	4
83	84	3
110	112	1
138	138	3
135	136	3
99	99	1
117	117	12
81	124	2
105	106	4
140	140	9
117	122	6
133	133	2
104	104	5
107	107	9
86	86	10
92	105	2
73	75	6
104	105	2
23	23	2
106	106	9
2	7	6
15	15	9
92	125	1
79	94	4
88	88	9
116	117	2
99	101	1
82	82	3
138	140	3
118	120	1
129	129	10
24	24	3
31	32	10
129	130	4
110	110	6
78	79	2
77	78	6
98	126	3
78	78	2
116	116	7
21	71	1
16	17	2
32	33	1
14	21	5
29	30	2
90	91	3
34	35	4
132	132	3
4	18	1
86	121	2
112	112	6
37	38	3
26	26	13
101	102	5
94	107	2
87	114	2
108	108	6
25	26	1
72	72	9
73	77	1
2	6	3
120	121	3
125	126	3
86	115	1
135	135	5
74	75	6
13	16	1
95	123	3
92	92	11
115	115	9
7	12	2
18	21	3
123	123	8
122	125	4
84	86	2
91	122	1
110	113	1
1	9	1
100	100	3
105	113	2
95	96	3
85	86	2
22	23	5
127	128	7
19	22	3
2	2	2
71	71	1
115	116	3
105	105	2
14	14	3
4	6	2
116	121	2
128	130	2
94	99	2
72	98	1
81	89	5
126	126	5
11	11	4
13	13	5
6	8	2
8	9	2
81	122	2
6	6	8
88	125	3
17	21	1
4	24	3
21	22	2
17	17	3
85	121	4
2	12	4
1	1	5
84	85	3
97	98	4
79	80	1
100	103	1
28	28	3
37	37	1
0	32	1
89	90	2
104	106	4
113	113	4
123	131	1
4	7	1
86	116	3
2	3	2
28	30	2
23	30	1
20	21	3
88	115	1
88	111	1
18	28	1
73	96	5
79	96	1
3	7	1
94	101	2
26	37	6
103	103	1
93	93	2
107	111	1
87	120	2
9	28	4
22	72	1
92	117	1
114	114	2
88	114	2
84	120	1
73	76	1
95	101	1
112	113	1
97	101	1
23	127	1
92	122	1
121	122	1
76	79	1
9	9	2
2	32	1
108	109	1
19	21	3
108	129	1
92	106	1
12	16	1
9	32	1
111	114	1
