140	141	1
85	85	2
44	44	7
133	133	5
3	3	1
43	53	2
35	37	2
50	51	1
71	72	1
150	150	4
49	49	2
51	52	6
89	89	4
97	151	2
37	71	3
86	86	4
14	14	4
37	67	5
144	144	5
72	72	5
142	142	9
112	112	1
8	8	7
7	8	2
146	149	3
132	133	2
12	12	4
70	70	7
121	121	6
29	29	4
33	33	2
134	146	1
102	103	2
13	13	2
36	36	5
45	49	1
12	15	4
10	10	2
110	110	6
127	127	6
14	15	1
155	155	3
6	6	3
15	15	1
70	120	2
3	46	1
79	126	3
57	144	1
19	19	4
27	27	10
97	98	1
94	118	3
8	9	3
75	75	3
90	90	6
131	149	2
129	129	4
86	92	1
0	1	5
89	91	5
39	39	7
56	64	2
124	125	4
26	28	1
33	43	2
144	146	4
78	79	5
92	124	4
115	115	2
130	151	1
42	42	1
155	156	3
38	38	10
26	26	9
42	44	2
2	2	3
138	139	3
132	132	5
156	156	8
82	126	2
114	114	4
101	101	3
47	48	2
50	50	5
69	119	2
80	80	5
37	38	3
6	8	2
158	158	5
0	0	3
157	157	1
111	111	2
117	117	6
25	26	1
93	94	3
22	22	6
128	128	2
2	30	1
85	93	4
151	151	3
139	141	2
102	107	2
52	52	5
96	151	3
148	148	3
99	99	5
138	138	6
95	95	4
35	35	1
112	113	2
40	41	3
54	54	3
138	140	1
20	21	1
18	19	1
118	118	1
108	108	2
94	94	1
134	134	11
123	123	8
28	28	12
63	64	2
154	154	3
106	106	1
66	66	3
131	133	3
56	56	5
103	103	3
148	151	1
137	137	4
77	78	2
141	141	1
106	108	1
142	155	1
98	151	1
35	136	3
114	116	1
78	78	1
25	25	8
63	136	2
113	113	3
61	146	1
108	110	2
86	95	2
35	158	1
147	147	1
28	29	2
105	106	3
137	138	1
65	65	2
4	5	1
100	100	3
19	21	1
0	3	3
105	105	4
83	83	1
79	79	3
104	142	1
24	24	1
23	24	3
17	19	2
16	17	3
77	77	2
56	66	1
119	119	2
11	18	1
153	156	2
23	23	3
71	71	2
48	49	1
83	125	1
87	91	1
146	146	4
69	120	2
22	23	2
96	96	1
152	152	1
43	43	3
140	140	2
40	40	3
41	42	3
81	81	2
67	71	2
0	30	1
83	126	1
67	67	2
73	73	3
46	46	1
87	87	2
68	68	1
143	143	3
130	130	1
139	139	3
117	118	2
86	122	2
98	98	3
131	131	1
15	17	1
122	122	3
48	48	1
69	69	1
92	92	1
131	146	1
38	72	1
126	126	1
57	57	2
32	50	1
100	158	1
83	84	1
153	154	1
20	20	2
99	130	1
69	70	1
91	91	2
32	32	1
57	145	1
136	136	1
11	11	1
153	153	2
93	93	1
71	148	1
17	18	1
43	44	1
83	96	1
111	112	1
33	54	2
102	102	1
123	124	1
47	47	1
57	157	1
41	41	1
75	77	1
30	30	2
99	129	1
34	147	1
97	97	1
97	142	1
97	143	1
95	96	1
70	157	1
