17	18	3
106	106	6
112	116	3
19	43	5
66	66	18
100	101	3
29	29	7
57	57	5
96	96	13
24	24	6
79	79	14
91	94	3
81	81	6
38	51	1
10	10	8
111	112	3
87	90	1
104	105	6
60	60	7
16	16	7
35	48	4
70	86	2
123	123	7
119	119	7
56	56	3
98	98	3
59	83	3
125	126	10
59	60	4
76	76	8
85	86	1
0	0	3
81	96	2
124	124	5
16	44	2
38	38	4
94	95	3
83	83	4
58	59	4
102	102	8
36	36	3
46	46	8
1	1	2
116	116	4
69	134	2
127	132	2
5	10	1
99	100	2
7	8	1
5	5	3
65	65	5
23	23	2
31	31	3
45	45	6
127	127	3
41	41	5
72	72	4
108	109	2
121	128	2
126	126	3
109	109	6
7	14	1
9	9	7
33	55	3
39	40	8
40	40	1
130	130	7
58	58	4
85	85	4
32	47	4
90	91	4
68	68	3
6	7	1
18	38	1
40	41	4
120	120	4
2	6	2
71	71	1
0	75	1
3	3	7
61	61	5
7	7	14
83	124	3
44	57	1
17	20	2
32	32	4
112	114	1
131	132	2
77	78	3
57	78	4
25	26	6
108	108	7
102	134	1
132	132	5
88	88	1
111	131	3
2	3	2
44	79	2
26	27	2
67	67	6
113	133	1
13	13	3
125	125	3
82	83	1
94	94	8
110	111	2
28	28	6
55	55	5
62	62	4
15	19	1
79	83	2
110	110	5
46	67	2
102	106	1
116	130	6
95	95	1
78	80	4
118	118	8
62	63	3
115	115	2
64	65	2
39	39	5
99	99	5
91	91	1
88	122	2
44	44	1
113	113	4
105	106	2
117	117	10
2	2	4
92	92	4
20	22	8
30	31	2
17	17	1
30	30	2
12	12	2
120	122	1
93	93	12
123	124	3
14	14	10
48	48	3
42	50	2
11	35	2
48	49	1
97	97	5
8	8	1
26	26	1
83	84	2
107	131	1
29	82	2
75	75	3
45	117	3
80	80	1
94	133	1
82	82	4
68	133	1
40	58	3
31	32	1
64	64	6
116	132	5
108	133	1
131	131	4
8	63	1
49	59	1
66	67	1
112	112	2
90	90	2
21	21	8
128	128	3
40	54	1
106	107	1
11	14	2
43	43	2
107	111	2
18	18	4
75	76	5
50	50	1
107	107	4
132	133	3
74	74	4
42	44	1
73	73	3
4	26	1
77	77	1
114	114	4
113	114	1
87	87	4
119	125	1
65	66	1
59	59	1
130	131	1
86	86	1
37	38	3
68	69	3
78	78	5
27	27	2
126	127	2
21	26	2
119	122	3
25	25	5
47	64	1
103	103	3
1	10	3
73	74	1
19	19	4
38	49	2
47	48	2
117	118	1
57	61	1
32	33	3
134	134	3
80	81	1
86	87	2
56	59	3
119	120	1
6	6	1
35	35	1
77	95	1
12	34	1
29	35	2
100	100	1
1	18	1
119	129	1
89	103	1
61	62	2
27	33	1
107	108	1
130	133	2
28	34	1
40	42	1
7	61	1
121	122	1
3	4	1
117	133	1
9	16	1
133	134	1
4	4	1
96	99	1
0	1	1
65	77	1
69	71	1
131	133	1
15	16	1
90	92	1
1	2	1
