29	39	2
178	178	3
122	122	6
63	90	1
26	36	2
75	75	7
47	47	13
14	15	4
111	112	2
159	191	4
182	182	3
154	195	1
13	14	7
3	3	9
193	193	9
31	31	5
20	25	4
167	168	4
179	179	1
68	68	5
46	46	5
26	34	2
52	52	3
42	50	2
149	149	4
168	168	7
99	100	5
53	53	3
48	76	4
145	147	1
87	87	9
6	6	2
123	123	4
7	7	9
17	51	5
60	60	7
5	31	2
156	160	4
33	67	9
185	185	8
21	21	6
118	118	9
28	31	3
25	25	12
115	115	4
26	118	4
41	41	11
177	178	3
124	125	2
138	138	11
60	71	4
132	132	8
109	121	3
69	70	2
139	140	5
182	187	5
159	160	1
61	62	4
61	86	5
158	158	1
12	12	7
164	177	4
27	28	3
194	195	3
4	64	3
84	86	4
18	19	3
154	158	4
27	35	6
16	16	2
17	17	2
59	69	3
146	146	5
104	104	2
116	158	5
186	186	8
87	88	3
42	43	2
61	72	3
119	119	2
163	193	1
162	162	4
63	63	4
18	52	12
156	159	6
3	4	5
33	55	2
36	105	3
22	22	6
114	114	8
107	107	5
49	49	2
74	74	2
120	120	5
177	177	4
121	121	4
52	68	3
47	81	3
156	195	8
107	122	7
148	182	5
77	77	3
75	82	1
101	141	4
124	124	12
71	71	4
62	63	8
65	65	7
149	152	2
48	48	4
169	169	2
193	194	7
62	73	4
161	161	3
20	20	9
95	95	8
160	187	4
167	197	3
11	41	3
100	102	1
106	116	2
135	135	7
106	106	3
77	112	1
102	102	2
178	183	8
43	51	2
17	19	2
89	89	5
11	40	4
72	73	4
161	193	3
128	151	3
105	113	2
25	39	3
116	117	9
103	103	4
145	150	1
59	59	3
16	17	4
15	15	5
4	4	8
28	54	4
179	187	3
8	8	11
176	176	5
158	188	3
25	27	2
2	2	2
121	123	4
0	0	10
129	129	10
113	113	5
0	5	4
89	90	3
83	98	2
108	121	1
101	122	2
134	137	7
148	158	1
72	72	5
173	174	3
72	85	2
130	130	4
81	81	3
175	175	6
57	58	5
28	68	2
23	23	2
177	184	2
101	131	2
194	194	2
13	13	3
97	98	2
157	190	1
149	158	1
164	164	5
27	55	3
143	145	2
0	29	2
8	9	4
39	53	4
120	121	4
1	70	2
148	157	1
151	156	1
39	39	3
170	171	1
68	83	4
23	37	7
29	30	1
137	137	2
94	94	5
26	26	1
148	192	1
172	172	3
49	50	4
10	10	5
188	188	3
184	184	13
12	52	3
134	136	4
153	155	5
71	72	6
37	37	2
148	148	3
17	18	2
126	130	2
153	158	1
154	154	10
72	86	3
45	45	3
150	150	6
51	81	2
129	150	1
65	104	1
1	28	3
116	148	5
111	122	1
152	159	2
99	106	2
169	177	2
42	42	5
197	197	2
128	144	3
116	118	2
106	117	1
175	180	1
180	182	1
99	99	5
131	132	6
167	167	8
64	64	7
160	197	3
44	75	2
36	37	3
43	43	4
20	21	3
72	113	5
88	94	4
29	29	4
54	54	6
102	116	4
103	117	2
84	85	5
12	40	1
117	118	5
4	5	3
38	46	1
60	66	2
169	197	5
64	89	1
118	149	2
158	183	4
106	118	1
100	100	2
68	69	1
18	60	2
14	48	2
118	153	3
19	46	4
147	161	1
152	152	6
173	173	7
156	187	2
35	105	2
187	187	2
133	133	3
67	67	5
111	152	2
151	151	3
55	110	3
126	126	5
62	71	2
38	39	4
78	78	4
109	144	2
1	5	3
44	44	2
35	35	6
180	183	2
43	50	1
127	143	4
135	193	1
21	23	2
140	140	1
79	101	1
127	127	1
191	191	3
146	147	2
51	58	3
157	164	1
124	130	1
84	84	2
108	108	8
132	137	2
187	188	1
69	69	5
144	144	1
129	145	6
56	107	2
133	136	1
37	194	5
131	151	1
177	191	1
153	153	6
5	8	1
171	172	1
5	33	3
88	88	3
168	177	1
1	83	1
178	179	4
2	4	1
44	53	2
0	35	2
56	56	4
80	80	1
155	186	2
0	83	2
128	128	9
12	41	2
3	6	2
158	159	1
39	54	2
16	41	1
61	61	4
82	83	2
136	136	1
147	186	1
57	57	2
181	185	1
171	171	3
134	173	1
98	107	3
109	143	5
37	38	2
41	52	2
38	38	3
74	99	1
153	196	1
101	106	1
43	77	1
45	53	2
101	101	3
29	54	2
156	182	2
103	105	2
157	159	1
12	15	3
50	50	2
63	104	3
141	141	5
108	123	2
64	65	2
179	180	4
37	196	3
58	58	3
17	44	4
169	178	1
115	145	1
52	53	1
11	11	2
25	35	1
187	197	3
182	190	1
126	151	2
183	189	1
35	36	1
120	130	2
35	55	1
134	134	3
1	1	1
136	161	1
30	31	2
126	143	2
12	53	4
161	163	2
67	68	1
43	82	2
40	40	2
195	195	1
131	147	1
84	98	2
34	35	2
27	34	3
142	142	2
148	186	1
9	9	2
42	73	1
163	179	2
163	163	2
86	86	1
58	69	1
122	123	1
183	188	1
49	76	1
115	131	2
86	113	1
154	194	1
168	178	3
51	73	1
110	110	1
101	110	1
27	59	2
11	20	1
33	66	1
66	68	2
62	72	1
5	5	1
154	187	2
143	165	1
159	192	1
29	35	2
157	158	1
116	149	1
103	116	1
128	138	1
158	160	1
16	52	2
36	117	2
12	13	1
3	89	1
58	62	1
107	123	1
1	30	1
34	34	1
51	51	2
153	154	1
112	112	1
