50	50	4
91	93	3
100	101	10
85	85	3
48	67	4
98	103	3
70	70	4
26	26	6
86	103	6
25	41	4
36	36	9
41	41	7
47	78	2
21	21	7
75	75	7
53	56	4
76	87	1
105	105	2
75	103	2
22	22	8
84	84	10
26	39	2
34	35	3
49	76	5
67	78	5
32	32	12
47	56	3
39	39	10
33	54	1
113	113	8
63	64	5
89	89	7
46	66	3
45	46	4
65	66	5
76	78	3
67	67	5
48	48	2
85	98	1
97	97	8
108	108	2
34	34	12
95	95	4
107	107	3
83	83	5
56	59	3
87	87	10
35	36	2
98	99	1
109	109	11
44	44	7
74	80	2
23	23	4
43	43	9
51	51	3
96	97	10
85	104	4
20	39	2
78	82	1
84	85	6
40	41	2
55	55	2
24	27	3
61	65	4
84	100	9
49	71	2
27	38	2
47	63	3
49	50	3
91	91	4
54	61	2
97	98	5
38	38	4
46	46	8
88	90	3
20	32	1
106	107	4
102	102	8
99	99	5
59	60	1
43	54	3
36	45	2
104	104	18
87	109	3
77	81	1
78	78	8
43	45	7
34	39	3
70	71	4
34	41	3
47	52	2
33	33	7
32	40	2
75	106	2
73	73	7
68	69	4
101	101	2
52	52	4
94	94	3
69	86	1
110	111	1
28	46	2
99	103	3
98	98	4
78	90	4
75	95	3
63	63	1
85	111	3
79	82	1
20	34	1
29	29	5
42	42	4
71	72	1
30	39	1
91	109	3
72	99	4
84	86	1
44	51	1
49	49	2
88	102	2
47	48	3
54	77	2
28	29	2
111	112	7
19	31	2
62	62	5
23	24	1
58	60	1
82	82	3
58	70	2
62	92	1
104	106	1
50	53	2
86	86	5
90	102	1
107	110	3
53	55	2
54	56	1
22	24	3
93	93	2
56	56	14
41	42	1
40	44	1
20	30	5
76	81	1
42	46	1
58	58	1
52	59	1
76	102	2
76	77	2
87	107	3
35	42	4
72	76	1
46	60	1
59	59	1
65	68	2
47	47	2
101	102	1
90	105	1
92	92	2
74	74	3
68	68	3
86	87	2
57	75	1
55	77	4
61	63	2
38	52	3
69	69	3
32	51	8
26	46	3
27	43	1
37	37	2
60	103	1
25	42	1
65	65	3
66	66	2
43	44	1
50	51	2
40	40	4
32	33	1
24	24	5
32	50	5
72	73	1
54	59	1
63	108	4
25	43	2
99	114	2
65	97	2
95	98	2
28	28	3
79	96	2
96	96	6
80	80	2
20	20	1
45	45	1
30	46	4
54	55	4
107	108	2
98	100	1
63	81	1
66	71	1
79	93	1
101	107	1
24	25	2
99	101	1
31	32	1
47	77	1
112	112	2
98	106	2
65	73	1
69	70	2
100	100	2
26	27	2
35	46	1
61	61	3
84	110	2
51	59	4
47	60	1
95	96	1
111	111	2
53	53	1
75	107	1
89	105	2
29	32	3
43	48	1
64	76	3
44	58	1
110	113	1
28	31	1
43	64	1
78	81	1
27	29	1
79	95	1
25	26	1
64	64	1
61	68	1
54	54	1
36	38	1
45	51	1
36	49	2
37	60	1
78	87	2
35	35	1
93	95	1
83	113	1
93	109	1
64	65	1
103	103	1
