31	167	2
239	239	6
197	197	3
233	233	4
45	45	9
1	1	6
20	20	3
6	6	16
175	182	1
105	105	10
246	248	4
54	167	1
153	154	3
5	6	2
220	244	2
245	247	5
212	212	9
238	238	5
175	175	9
78	79	1
179	180	1
213	213	2
48	49	4
25	86	2
58	58	9
111	112	3
49	75	1
180	180	8
221	221	7
89	90	1
59	59	9
79	80	1
223	223	11
186	186	6
96	96	10
240	241	4
157	157	6
231	232	4
198	198	2
207	207	9
190	190	12
69	69	8
158	166	3
110	110	8
210	211	8
35	35	7
107	107	4
34	90	3
0	0	3
195	196	4
218	218	1
9	9	6
215	215	6
184	192	5
106	106	5
242	242	20
24	24	10
84	89	4
241	241	9
199	199	20
77	77	9
27	111	2
86	87	2
89	89	5
80	151	1
236	236	6
234	234	19
67	67	12
18	37	2
47	47	9
161	161	11
31	80	3
50	90	2
52	52	9
197	198	18
224	224	12
76	76	1
228	228	7
99	99	13
221	244	6
2	6	2
168	176	2
116	119	2
187	187	12
41	41	2
18	18	9
188	189	6
38	38	9
220	220	3
14	14	6
222	222	10
30	30	11
118	118	2
7	7	3
11	42	2
97	97	9
48	48	9
32	32	9
27	27	4
68	70	4
62	62	8
63	63	11
54	55	10
242	243	3
94	94	3
214	214	4
167	167	9
11	11	5
72	72	14
52	59	3
184	184	9
98	98	11
201	201	11
169	169	4
0	27	3
160	161	3
101	102	3
237	237	10
199	200	2
37	37	7
74	74	2
71	72	4
154	154	5
62	73	6
191	192	6
15	16	4
23	23	7
51	51	7
31	48	2
192	192	13
23	230	2
78	78	10
71	71	7
2	2	2
178	179	5
80	80	2
163	163	1
44	45	4
78	172	2
10	10	13
56	57	6
64	64	8
216	217	11
156	156	8
158	159	6
231	231	6
21	36	8
32	167	2
19	21	2
65	65	6
91	91	8
207	248	1
172	176	5
224	225	1
151	151	6
73	73	16
78	87	2
152	157	1
171	172	9
159	159	6
109	109	10
17	17	1
217	217	4
81	81	2
185	185	5
187	188	8
222	223	11
100	101	6
191	191	7
115	115	10
56	56	11
113	113	9
66	66	8
36	37	2
173	173	4
21	21	6
66	67	2
102	102	3
42	42	11
193	194	4
203	203	15
92	92	6
26	26	6
245	245	7
116	116	7
57	57	6
49	74	6
232	232	6
196	198	4
90	93	2
226	227	1
183	183	8
108	108	11
101	103	4
82	82	7
93	93	3
45	47	3
204	204	13
146	147	1
90	90	8
182	183	3
158	171	1
85	86	5
16	16	4
103	103	4
243	243	1
68	68	7
55	55	10
232	233	3
4	4	5
79	79	2
50	51	4
28	28	12
215	216	5
40	83	2
165	165	10
5	5	5
79	81	1
193	193	5
75	75	23
53	53	3
170	200	4
112	120	1
175	179	5
50	50	2
187	189	4
205	206	2
82	90	5
12	14	3
202	202	13
61	65	5
24	120	2
62	68	3
88	88	5
33	36	1
62	65	3
18	19	1
179	179	5
178	178	8
161	162	2
50	59	1
231	233	2
218	219	1
206	207	7
84	84	8
142	142	1
191	195	3
87	87	3
8	9	1
67	71	2
211	215	5
24	25	5
229	230	5
196	196	13
150	150	6
181	181	11
33	33	12
176	176	6
246	246	5
213	214	2
225	241	1
169	200	2
170	170	3
30	31	3
165	166	3
244	244	4
163	164	1
62	71	1
180	181	3
43	43	4
78	109	3
101	101	5
1	228	3
177	178	2
70	70	5
112	112	4
192	198	1
63	73	2
219	219	3
54	91	1
40	40	7
4	5	1
74	108	4
69	70	6
153	153	7
226	226	8
54	54	5
188	188	8
116	117	4
162	162	3
22	23	1
221	225	2
29	29	5
174	188	1
42	44	2
207	211	2
63	72	2
39	39	2
104	105	4
95	96	4
238	239	4
8	8	4
172	172	4
147	177	2
228	229	3
95	97	3
195	211	1
51	55	2
241	242	4
46	46	3
104	104	1
243	244	6
216	218	2
192	195	4
221	246	3
245	246	5
87	88	3
84	85	3
205	213	2
4	14	1
54	166	2
177	177	5
205	205	3
114	114	2
46	47	1
228	231	1
209	228	1
104	106	1
78	80	3
244	245	5
186	189	2
228	230	2
165	170	5
174	174	4
18	21	6
170	205	7
153	157	1
86	88	4
221	222	1
19	19	8
206	206	4
60	60	5
208	208	5
229	229	4
215	218	1
51	57	2
52	55	1
81	86	1
230	231	1
57	58	1
105	107	4
147	161	1
192	199	3
240	240	5
90	91	1
83	83	4
160	160	2
57	105	1
216	216	6
95	95	2
147	147	1
29	110	2
106	107	1
113	114	1
111	113	2
186	188	2
32	33	2
180	182	2
102	112	1
26	27	2
55	56	3
34	37	1
47	72	1
49	49	4
83	84	4
94	95	2
200	204	2
65	66	3
61	62	2
185	186	8
23	24	2
96	97	2
159	193	1
212	213	8
3	3	1
206	210	1
115	116	5
183	188	1
57	75	2
49	50	1
80	88	3
233	234	2
72	73	4
182	182	6
217	218	4
76	109	2
72	79	4
171	175	1
19	30	1
105	106	2
30	113	2
210	210	1
174	185	1
157	158	4
81	92	3
32	34	1
195	195	3
167	200	2
51	174	1
53	167	1
192	220	2
249	249	2
57	78	2
84	156	2
158	162	1
86	86	3
165	167	3
69	217	1
51	62	1
77	82	2
48	69	1
227	227	6
162	163	1
208	209	1
103	109	1
200	201	2
151	161	1
180	183	1
168	168	1
95	98	3
61	61	1
5	12	1
60	109	2
25	25	3
59	80	3
57	208	1
232	236	1
17	220	2
229	231	1
83	91	1
194	197	1
19	65	1
117	117	2
41	85	1
247	249	2
152	152	3
235	236	4
21	64	2
26	35	1
206	226	1
158	158	3
24	35	2
214	219	1
47	48	1
41	42	1
114	152	1
183	186	3
166	171	2
34	35	7
114	116	1
0	16	1
40	82	5
169	170	2
9	26	2
202	203	1
74	75	1
1	204	1
157	159	3
64	65	2
166	166	3
190	198	2
158	163	1
171	171	4
189	189	1
77	109	2
15	15	2
31	31	2
173	191	1
77	108	2
44	44	2
120	120	1
53	173	2
18	34	1
107	190	2
233	235	1
90	92	1
58	208	1
96	197	1
230	230	3
189	190	1
167	171	1
224	243	1
65	67	2
60	178	2
91	92	1
181	184	1
164	165	1
238	240	1
34	34	1
108	109	1
111	158	2
236	238	1
205	214	2
36	36	1
101	112	2
172	188	1
12	12	1
239	240	1
211	214	1
164	164	1
203	204	1
228	232	1
47	231	1
106	108	1
113	119	1
76	90	1
175	186	2
58	91	1
76	78	1
247	248	1
211	211	1
14	44	1
13	26	1
215	248	1
16	17	1
77	99	1
174	181	1
110	111	1
25	228	1
71	79	1
63	64	1
146	160	1
39	40	1
199	201	1
201	207	1
