172	172	5
194	194	3
161	163	3
24	24	11
98	99	3
41	41	9
133	133	4
89	89	9
69	70	8
14	14	10
100	133	3
44	137	1
67	67	3
178	178	6
124	124	12
24	25	1
28	28	2
128	128	10
1	1	3
66	74	2
12	12	2
10	10	5
171	171	2
38	129	5
40	40	11
107	108	5
110	110	11
137	138	4
12	113	3
156	157	2
109	120	5
174	174	5
153	153	2
116	117	4
69	72	1
73	75	3
119	129	1
99	99	6
101	118	5
139	140	2
18	19	2
11	11	2
105	105	1
130	130	7
22	22	1
70	70	3
151	151	17
77	127	2
3	43	2
195	195	2
59	59	6
6	6	2
109	109	8
112	112	9
140	140	10
116	116	6
66	66	4
9	89	1
106	107	2
37	38	5
13	13	10
136	136	2
26	26	5
104	107	6
150	150	1
137	137	3
39	41	2
27	27	3
129	129	5
50	50	6
86	141	2
107	107	1
132	132	6
38	169	3
45	45	1
42	116	1
179	186	3
108	108	9
106	114	4
43	43	6
73	73	7
72	72	5
54	55	6
88	89	5
167	167	4
37	37	9
69	71	2
62	62	12
69	69	7
42	42	6
39	39	9
155	161	2
139	139	14
56	56	11
197	197	6
49	49	5
42	176	5
189	189	5
41	121	1
18	71	3
44	44	8
28	109	1
143	144	6
192	192	3
142	142	8
143	143	3
42	132	5
156	156	1
34	39	1
14	15	6
127	127	10
47	47	7
48	48	5
4	6	2
123	123	5
3	3	7
59	60	7
117	117	8
26	29	4
49	50	6
143	156	2
78	80	3
148	148	5
131	131	5
120	120	7
32	32	8
5	5	7
40	41	3
102	149	2
141	141	14
42	137	2
136	137	3
20	27	1
130	139	5
74	74	7
17	84	3
85	86	2
121	121	3
53	53	8
43	137	2
42	174	1
154	154	5
196	196	8
60	61	4
184	184	3
95	97	2
102	102	1
44	45	7
35	117	1
76	79	3
191	191	9
18	18	2
71	71	5
15	15	8
144	155	2
106	106	3
12	49	3
98	103	6
36	114	3
135	135	4
32	56	2
30	30	3
13	72	1
134	134	5
113	113	4
82	83	3
33	34	3
119	119	4
36	36	5
52	52	4
32	190	2
115	115	2
132	133	2
111	111	5
79	79	3
148	151	6
125	125	5
170	170	2
8	23	4
88	88	3
112	127	2
145	145	6
173	174	2
19	19	1
160	160	3
171	172	1
152	152	4
100	102	3
42	43	2
84	125	3
102	103	1
85	85	4
39	42	3
145	146	1
168	168	3
107	112	2
107	111	4
54	54	2
148	149	4
63	73	4
19	151	2
176	176	3
155	155	5
20	21	3
122	122	7
166	173	3
185	185	4
101	134	2
66	73	5
115	124	1
83	84	1
172	197	3
31	31	3
149	149	3
58	58	5
9	9	4
87	87	1
45	46	4
51	51	1
115	116	4
75	75	3
7	7	4
35	36	1
131	138	1
98	98	2
46	46	4
99	100	2
0	4	2
78	78	2
32	126	2
117	120	1
18	55	4
101	151	2
2	3	1
170	171	3
27	29	1
144	144	3
84	84	2
16	16	4
68	68	2
55	59	2
17	20	1
138	138	7
98	101	2
112	113	3
94	132	1
10	121	2
124	125	1
4	123	3
4	5	1
80	80	3
144	156	1
142	143	3
81	82	2
121	122	2
65	66	1
182	182	4
76	77	1
80	85	3
121	124	1
29	29	2
158	158	5
62	75	2
127	129	4
37	114	1
158	163	2
31	127	4
54	140	1
89	143	2
174	176	1
47	48	1
76	76	2
0	0	2
95	95	1
127	128	3
81	81	2
60	60	2
118	118	2
19	20	1
4	4	3
62	63	4
33	33	3
38	51	2
99	141	1
114	115	1
61	61	1
114	114	2
72	73	4
32	33	1
57	57	2
114	140	2
34	34	2
158	159	1
100	100	2
186	186	3
96	96	4
193	193	3
23	23	1
111	112	1
61	62	1
45	52	2
114	141	1
120	122	1
15	54	1
180	180	1
3	5	1
132	146	1
181	181	1
30	119	1
14	51	2
147	147	1
55	55	1
39	130	1
0	44	1
122	125	2
16	64	1
38	39	1
16	17	1
83	83	1
169	178	1
98	137	1
159	181	1
17	62	4
122	123	2
58	61	1
154	155	1
182	183	1
24	74	1
2	43	2
8	81	1
97	98	1
54	84	1
103	106	1
94	135	1
107	134	1
157	157	1
101	105	1
42	44	1
36	169	1
107	109	1
166	166	1
86	86	1
64	64	1
8	126	1
154	157	1
151	153	1
56	57	1
77	80	1
