66	68	3
64	65	10
128	128	6
165	166	1
103	105	1
195	195	2
7	12	2
34	39	3
142	144	3
173	174	8
173	184	6
129	132	2
103	103	8
181	181	2
180	182	2
0	5	8
109	109	7
97	108	5
32	36	4
24	24	16
179	186	2
0	0	2
26	28	8
186	190	9
155	155	9
45	45	9
146	147	5
82	82	1
110	114	6
68	68	5
174	182	4
105	107	11
58	59	3
37	43	2
39	39	6
12	17	3
62	62	2
162	166	2
169	170	12
191	193	9
9	9	12
136	137	10
78	81	3
189	190	6
171	177	8
35	39	4
69	71	4
1	3	9
126	131	4
106	109	3
191	196	2
39	40	5
104	104	5
161	161	3
99	99	5
190	193	5
115	119	4
196	197	2
117	117	7
105	113	6
111	117	3
80	85	7
119	119	2
192	193	7
102	103	3
5	5	7
108	111	3
44	51	3
175	177	2
37	38	4
107	109	5
98	102	7
13	16	3
155	159	8
173	176	4
42	45	3
62	70	6
166	166	9
11	27	3
88	88	5
181	183	6
58	64	6
167	184	2
51	58	1
132	139	3
45	48	1
183	185	4
157	158	1
43	50	3
184	184	9
162	165	3
7	13	2
147	171	2
15	16	7
108	108	3
40	40	8
118	118	3
23	31	2
8	9	3
163	163	5
118	121	1
23	24	4
75	75	4
17	17	16
95	95	7
87	87	6
106	108	3
52	56	3
128	130	1
14	150	4
100	102	1
178	179	8
34	35	2
152	152	2
36	40	2
116	116	8
121	127	5
141	144	5
37	37	14
6	8	3
28	33	2
151	153	8
156	161	6
50	50	9
187	188	3
177	177	12
145	157	9
177	179	3
62	67	2
4	6	4
98	106	6
45	50	6
170	172	4
73	77	2
112	114	14
30	30	5
133	133	4
49	61	3
59	60	8
175	175	5
85	87	2
148	149	5
143	144	3
54	57	9
58	58	6
108	109	5
154	154	4
171	180	4
119	121	3
28	29	1
47	50	5
77	79	9
53	53	8
106	106	7
156	160	2
138	146	3
25	26	9
22	22	7
51	52	10
171	181	2
44	44	6
47	52	2
58	62	3
35	35	1
111	128	2
110	111	3
19	20	5
8	12	10
147	147	7
68	74	2
105	110	1
71	72	12
66	70	5
166	170	4
103	109	7
121	123	7
98	98	6
35	38	2
186	188	4
31	32	2
144	150	3
41	42	6
178	178	7
116	121	6
4	17	1
131	144	6
62	64	5
2	5	2
26	27	3
160	169	1
193	194	10
71	79	4
21	21	9
119	127	3
13	19	4
182	185	2
63	68	3
59	59	7
172	173	3
56	56	11
77	78	4
120	135	1
44	61	1
11	13	6
61	67	6
17	18	2
19	27	3
6	6	4
25	27	3
32	32	6
97	103	3
155	160	3
27	28	3
18	22	2
96	104	2
29	32	1
29	30	3
105	105	4
0	4	6
46	47	1
52	57	2
146	149	2
13	15	5
33	39	2
86	87	6
150	150	3
70	73	4
193	193	10
127	128	6
112	115	3
151	155	3
27	27	4
32	33	9
15	22	2
73	74	4
26	33	5
49	60	3
1	6	2
54	62	5
147	154	2
76	77	3
55	56	3
136	142	2
81	83	6
96	99	7
138	138	5
15	15	8
133	134	4
164	168	2
96	98	1
34	34	5
141	143	7
27	43	2
42	47	4
179	185	1
131	143	3
197	197	4
44	45	4
8	22	5
86	89	1
26	26	7
137	137	5
3	6	1
101	106	1
182	182	3
18	24	1
101	101	11
172	174	5
94	96	2
94	102	2
168	176	2
4	4	7
122	122	9
55	106	1
124	126	2
83	88	4
21	22	3
130	143	3
168	168	5
194	194	10
115	115	4
111	111	1
11	16	3
133	139	1
29	37	4
34	44	3
95	96	1
187	190	13
55	55	6
2	2	5
76	84	4
27	36	1
168	189	3
120	121	3
85	86	2
105	108	1
20	24	9
161	162	1
68	71	3
65	89	7
83	84	3
187	189	2
56	65	3
156	157	4
130	138	4
160	160	1
38	43	2
3	11	5
183	187	1
184	185	9
49	52	1
3	3	5
153	153	7
72	72	11
149	149	11
52	52	12
52	54	1
30	36	7
194	195	1
184	186	1
134	147	3
132	132	9
96	105	1
63	104	1
22	32	2
129	129	3
190	191	3
65	65	5
143	150	1
123	124	4
174	178	2
60	69	2
172	189	2
64	64	12
112	117	3
143	153	1
18	19	6
134	145	5
180	180	7
175	176	3
180	181	3
123	123	2
57	65	1
83	85	8
139	140	4
86	86	3
179	179	4
107	107	5
143	143	2
87	88	5
38	44	3
192	197	9
111	114	2
51	51	6
3	4	3
97	98	2
34	41	3
73	73	3
193	195	6
33	33	4
29	31	5
124	134	2
46	46	1
100	103	2
142	152	2
1	1	5
139	147	3
137	139	1
95	114	3
135	137	2
68	72	1
101	102	5
188	188	9
49	50	4
160	171	4
30	32	2
100	109	4
8	8	5
35	40	5
140	145	5
81	88	1
123	129	3
158	166	2
154	156	3
119	120	8
76	76	5
36	43	1
125	127	4
179	187	1
161	163	2
114	114	2
43	46	3
44	47	4
163	167	1
83	83	4
24	25	5
48	49	10
12	142	2
98	109	1
38	39	3
69	70	3
57	57	4
164	166	6
89	99	2
118	122	6
170	170	8
114	118	3
99	107	3
97	105	2
3	7	2
1	4	3
22	24	4
107	111	2
188	190	6
0	9	3
143	148	1
142	149	1
154	161	5
48	52	1
148	150	3
186	186	2
43	44	2
136	136	9
65	74	5
149	153	1
121	124	2
144	155	3
57	69	3
7	7	11
187	187	3
152	159	3
143	145	3
13	13	4
78	78	8
46	48	1
9	11	5
64	69	4
126	129	4
69	69	2
143	147	1
12	12	6
119	132	2
100	101	2
58	60	3
120	122	3
38	41	2
109	110	2
160	168	1
45	47	2
42	42	9
113	114	4
130	130	7
58	61	1
2	4	3
85	85	3
102	102	4
19	24	2
101	109	1
159	161	9
170	171	2
148	148	3
179	180	3
161	170	3
67	105	1
61	61	2
21	23	1
159	166	1
75	83	3
52	55	3
104	106	4
72	73	3
61	62	2
26	29	6
22	23	3
179	189	5
185	193	2
151	152	1
116	117	2
39	42	4
191	197	3
178	181	1
89	90	5
90	90	1
147	151	2
72	79	1
1	9	1
116	122	6
5	7	4
159	164	1
57	60	2
40	41	4
158	160	5
162	169	2
4	11	2
166	167	4
17	19	3
93	101	1
192	195	3
126	128	1
0	3	3
36	36	1
124	124	9
6	14	2
114	117	1
37	46	1
38	42	2
78	80	2
1	5	3
4	13	1
20	26	1
29	33	3
55	57	4
157	157	3
0	159	1
157	159	2
105	114	1
31	38	3
191	191	4
103	108	3
117	120	3
128	129	7
155	167	2
96	108	2
41	41	3
88	89	2
54	59	1
178	180	1
45	46	3
76	81	3
125	128	2
113	118	1
162	164	1
174	180	5
54	54	4
93	96	2
195	196	6
76	80	5
28	28	2
134	136	3
74	75	5
191	194	2
93	93	4
159	159	3
138	143	1
115	117	5
78	79	1
78	84	1
107	108	3
115	121	1
54	60	1
60	68	2
191	192	1
69	83	1
103	104	1
161	164	2
40	47	3
73	75	2
48	48	3
50	52	2
28	31	2
33	43	2
115	116	2
41	51	1
42	46	7
57	58	3
39	44	3
48	51	5
117	118	4
6	13	3
33	34	4
66	71	3
155	158	1
121	125	3
119	126	1
24	29	3
18	20	1
62	68	3
10	18	4
134	134	2
136	138	4
188	196	1
132	134	1
15	18	4
121	122	6
55	63	2
28	30	4
7	17	1
131	140	1
193	196	3
77	83	2
181	189	4
52	59	1
140	141	4
59	72	3
131	132	1
9	10	5
63	65	4
51	53	1
94	97	1
1	2	1
87	89	1
185	189	2
64	72	3
2	13	2
169	171	6
6	12	5
179	184	1
89	89	1
14	21	3
95	103	1
25	25	5
37	44	3
34	38	2
139	146	3
153	160	1
110	113	2
10	10	4
162	163	5
63	71	1
176	177	1
165	165	4
17	22	1
134	138	3
130	132	2
172	172	2
29	34	4
70	74	3
111	112	1
158	167	4
54	68	1
8	150	2
125	125	2
144	158	1
26	30	2
164	165	1
125	134	1
104	108	1
22	28	3
36	38	1
77	77	1
140	142	2
34	37	1
94	94	4
72	77	3
180	186	3
96	100	5
165	171	2
12	131	2
175	179	3
183	188	1
47	56	2
102	120	3
79	83	2
43	45	1
54	56	4
70	72	3
71	73	1
160	163	3
3	16	1
185	186	1
147	148	2
140	140	3
81	98	2
174	175	2
140	143	1
20	20	4
154	165	1
166	168	2
139	152	2
10	26	1
168	173	1
169	169	3
95	100	2
158	158	3
29	44	1
145	145	3
22	33	3
124	128	2
112	112	6
151	157	2
39	50	1
164	164	1
96	102	3
176	183	2
19	19	1
36	39	1
159	162	1
111	116	2
43	54	2
158	161	1
169	172	4
149	155	1
53	56	1
138	141	2
67	81	2
177	186	1
81	81	1
194	197	3
15	21	1
60	60	3
11	12	1
56	60	1
23	28	1
175	180	2
153	158	2
123	128	1
67	74	4
107	117	1
100	100	1
67	69	1
38	50	1
25	31	1
126	126	2
93	100	1
138	139	2
7	19	1
63	63	1
134	139	2
123	130	2
123	125	1
135	135	4
176	179	2
8	19	1
42	51	1
9	12	3
108	113	1
18	18	2
52	60	3
180	188	1
126	137	2
6	7	1
71	71	1
165	172	3
24	27	2
102	105	2
119	122	2
84	87	1
79	79	3
70	70	3
84	84	1
73	78	1
53	61	1
144	144	2
157	163	2
184	187	2
76	78	2
11	11	5
60	65	2
126	130	1
38	40	1
13	18	1
109	111	2
164	172	3
118	119	3
59	63	1
189	193	1
118	124	2
59	61	1
141	148	1
126	144	1
2	11	1
153	155	1
48	50	2
54	55	2
118	125	1
162	168	2
96	96	1
67	71	1
34	40	2
146	153	1
55	59	2
66	72	2
17	25	1
112	113	3
24	33	1
128	133	2
89	96	2
131	131	2
51	55	1
150	154	4
50	66	2
135	143	1
194	196	3
122	124	2
67	67	1
141	142	3
0	1	1
16	16	1
185	187	1
47	48	3
144	149	4
39	43	1
30	31	1
31	33	2
137	138	1
174	174	1
180	183	1
137	149	1
182	184	3
22	37	1
12	15	1
142	148	1
97	109	2
43	49	2
130	134	1
120	126	1
74	83	1
75	76	2
80	84	1
167	168	3
66	69	1
56	59	1
135	136	1
163	165	1
152	158	3
176	176	1
173	173	1
181	188	2
119	124	1
120	128	1
49	54	2
12	16	1
124	133	1
178	184	2
133	140	1
121	129	1
177	183	1
110	110	1
118	135	1
104	107	2
165	167	2
152	157	1
59	67	1
32	34	1
108	112	1
151	158	1
43	47	1
169	175	1
185	185	1
74	80	1
21	27	1
66	67	2
192	192	3
133	136	1
74	74	1
156	159	1
183	186	2
110	112	1
3	5	1
135	140	1
33	37	1
188	191	1
117	124	1
8	10	1
36	37	2
61	70	1
124	143	1
123	131	1
43	43	1
137	140	1
66	66	1
106	107	2
38	45	1
111	115	1
40	43	1
60	61	1
40	44	1
122	132	1
190	190	1
115	134	1
109	113	1
102	109	2
120	120	1
55	62	1
124	125	1
117	129	1
12	13	1
82	84	1
23	23	1
152	154	1
125	129	1
152	153	1
16	18	1
94	98	1
45	56	1
154	155	1
168	169	1
139	143	1
