121	129	2
94	99	3
60	69	1
51	51	5
81	88	6
122	122	4
90	115	3
67	67	15
45	45	4
5	13	1
89	107	3
57	66	7
85	85	2
41	57	7
109	109	5
54	73	3
84	87	3
111	115	4
58	70	6
18	27	8
21	25	2
57	57	8
27	27	9
88	104	5
40	44	1
87	102	1
62	62	6
115	115	6
118	118	3
97	120	2
105	112	3
126	126	3
113	124	3
13	14	1
0	1	1
128	129	1
44	44	2
89	89	5
16	16	3
64	64	3
74	74	14
57	58	3
113	113	2
11	23	3
53	53	6
49	50	3
113	128	3
127	130	2
116	132	1
55	55	1
78	81	1
32	32	1
65	65	2
90	90	1
56	57	2
105	105	5
19	19	4
102	102	6
5	5	4
82	82	1
41	46	2
82	88	1
129	129	9
91	91	3
77	81	2
106	117	4
78	78	1
22	44	2
111	111	6
112	117	1
71	71	4
56	92	2
11	32	3
98	108	4
56	56	2
77	79	1
4	25	1
108	133	3
83	84	2
48	92	4
64	65	4
88	88	1
95	128	4
64	84	7
78	82	3
52	53	5
2	2	9
59	76	1
28	28	5
49	49	4
88	106	1
27	30	1
3	54	2
26	27	4
87	88	5
3	3	5
47	47	7
61	61	1
32	51	2
118	127	2
80	80	4
105	108	4
95	95	3
107	119	3
124	125	2
125	125	4
59	59	4
72	72	5
125	129	1
91	97	1
6	20	4
41	53	1
25	25	4
41	61	1
107	129	1
70	70	10
22	71	2
70	79	3
112	112	1
78	79	3
77	109	2
121	122	2
11	20	2
114	131	2
88	89	1
64	79	3
75	75	3
106	106	1
12	12	3
85	96	3
83	83	2
4	8	3
72	79	2
9	22	5
127	127	5
60	60	3
1	2	1
77	77	2
9	42	2
81	98	1
92	92	6
17	17	1
22	23	4
12	13	1
0	2	2
65	80	1
46	58	5
7	33	2
1	24	2
1	1	2
3	55	1
29	30	2
30	30	3
10	15	3
5	91	2
113	117	3
111	117	1
0	0	2
102	114	3
55	72	2
26	34	1
20	40	1
73	92	2
38	51	3
87	116	1
93	93	2
88	97	1
41	67	1
14	17	1
114	114	2
33	40	2
7	8	3
5	6	1
107	107	2
112	130	2
28	31	1
23	28	1
38	39	2
108	118	2
52	52	1
66	67	1
45	59	1
105	123	2
90	92	3
119	131	4
79	79	3
15	21	3
96	121	1
94	96	2
26	30	2
109	131	1
93	116	1
71	77	2
64	68	3
110	110	4
21	21	3
0	21	3
96	116	1
41	41	3
91	95	2
54	54	2
87	87	3
12	42	2
7	56	1
94	114	2
5	28	3
115	116	3
109	121	2
56	65	2
16	33	4
6	7	1
80	94	3
14	15	3
82	83	2
103	117	1
84	84	4
95	104	2
43	43	4
109	110	1
62	76	1
55	63	1
72	73	3
132	132	3
0	3	2
46	59	2
4	13	1
4	4	2
1	7	1
52	60	2
9	9	1
118	129	1
57	63	1
97	100	3
99	108	1
117	117	4
71	80	1
5	17	2
52	62	1
42	71	2
40	40	4
100	100	3
93	98	6
5	25	3
42	69	2
81	97	1
21	22	1
86	91	2
44	46	1
130	130	2
97	97	7
121	121	1
84	92	1
94	94	4
47	60	1
49	63	1
116	116	1
131	131	1
48	93	1
125	131	1
119	130	1
103	131	2
120	129	1
41	71	1
42	43	2
116	117	1
112	124	1
38	57	1
101	101	1
18	29	1
59	75	1
6	18	1
69	69	1
99	99	1
28	32	1
11	27	1
56	59	1
111	116	1
31	31	2
21	39	1
68	81	2
122	123	1
3	10	1
2	17	1
5	14	1
95	108	1
89	106	1
39	39	1
88	96	1
127	128	1
64	77	2
34	34	1
45	50	1
99	111	1
29	32	1
2	16	1
46	46	1
38	38	1
37	37	1
76	89	1
106	123	1
73	73	1
91	98	1
95	116	1
60	61	1
47	63	1
119	119	1
74	79	1
40	52	1
