34	34	1
9	9	4
24	24	5
90	90	1
13	13	1
86	87	1
48	49	2
84	85	3
47	47	5
44	44	5
39	40	1
56	56	5
103	103	8
102	105	2
130	139	1
91	91	10
126	126	5
132	133	2
137	137	4
51	51	4
109	109	5
2	3	1
79	79	1
97	97	6
10	10	7
18	18	2
19	19	4
33	33	7
118	118	3
7	16	1
99	99	1
102	107	2
3	3	5
115	115	7
29	29	5
2	2	9
20	20	7
131	131	8
20	21	2
0	0	7
26	26	6
131	132	1
86	86	3
90	91	5
6	6	2
109	110	4
108	108	7
105	105	2
32	33	4
104	105	2
26	36	4
5	5	2
40	42	3
129	129	7
1	1	4
96	96	1
87	87	4
17	17	6
52	52	10
33	45	2
138	138	7
139	139	1
23	24	3
78	118	6
44	116	4
81	81	6
88	88	5
32	32	1
125	125	12
25	25	5
45	45	3
120	120	5
130	130	7
121	122	7
69	69	1
83	84	1
127	127	3
43	43	6
150	150	8
4	64	4
92	92	5
35	35	3
7	7	6
16	18	2
100	100	4
43	44	1
18	19	1
77	91	5
151	151	3
103	113	2
24	25	2
46	50	2
124	146	2
21	22	3
84	84	2
40	41	1
89	91	2
103	104	2
31	32	1
68	68	1
65	65	1
109	112	4
82	82	7
114	114	3
12	12	1
135	135	1
48	48	4
101	101	4
32	43	2
95	96	4
50	50	2
39	39	2
77	77	4
28	28	2
119	119	2
11	14	5
133	134	1
137	138	2
6	9	2
77	80	2
36	56	2
142	142	7
21	21	4
8	8	5
136	137	2
83	83	4
127	130	3
81	82	1
30	30	2
10	11	6
141	141	5
45	51	3
89	108	3
73	73	2
124	124	6
14	14	6
153	153	5
103	111	1
93	93	10
23	23	5
66	72	2
11	11	3
41	41	3
134	135	2
80	82	1
156	156	1
36	36	3
135	154	3
57	57	2
42	42	5
144	147	1
123	123	4
75	75	2
132	132	3
104	140	1
0	1	4
14	18	1
121	121	3
105	118	1
11	12	1
65	72	1
104	113	1
88	89	2
136	136	1
46	46	4
107	107	1
145	147	1
80	98	1
147	147	2
85	86	2
35	36	3
140	140	3
15	15	2
8	9	1
85	85	1
94	94	1
39	42	1
129	138	1
133	145	2
27	27	2
117	122	2
136	142	1
38	38	3
42	43	2
5	16	1
135	137	1
75	76	1
70	70	2
36	37	4
122	122	3
4	4	2
16	16	2
143	152	1
107	127	1
15	17	1
119	120	1
106	107	5
22	22	1
104	104	3
112	112	1
135	152	1
124	125	1
22	23	2
116	116	1
95	95	1
141	155	1
121	126	2
158	158	1
40	40	2
25	26	2
105	106	1
137	141	1
149	150	1
18	134	2
55	57	1
148	148	1
37	70	1
112	113	1
24	66	1
131	133	1
24	71	1
155	155	1
133	150	1
88	108	1
86	88	1
98	98	1
106	118	1
130	148	1
43	55	1
55	55	1
90	101	1
13	16	1
66	69	1
140	142	2
155	156	1
12	22	1
89	90	1
89	101	1
21	133	1
52	63	1
