68	68	4
25	25	2
16	16	8
46	46	8
51	53	3
84	84	11
24	24	12
139	139	9
129	129	4
30	30	7
86	86	6
96	132	5
62	62	8
19	19	11
108	108	8
74	74	3
27	27	1
30	31	2
98	98	6
34	34	3
129	130	2
128	128	4
10	10	6
35	35	2
139	140	2
45	46	1
22	22	8
80	80	5
73	123	2
4	4	5
124	124	3
39	42	2
35	36	6
32	32	1
70	134	4
103	103	2
41	42	1
131	131	4
11	11	4
120	122	2
81	82	2
41	41	13
139	144	3
149	149	7
51	51	4
99	99	3
25	26	4
118	119	3
12	15	3
116	117	1
84	88	3
53	54	3
55	57	1
127	140	2
83	86	1
76	78	5
104	104	3
140	143	1
54	54	13
42	42	8
118	118	6
147	147	9
44	44	2
150	150	5
131	132	11
147	148	5
37	37	2
100	100	12
137	137	6
121	121	2
110	110	8
114	117	5
23	23	10
148	148	8
95	119	1
120	120	4
18	18	8
83	84	2
123	123	1
146	146	2
67	67	7
39	39	2
71	73	4
148	149	3
43	43	4
113	113	5
119	123	2
132	132	2
78	79	4
72	72	3
126	127	2
75	77	1
134	134	4
20	20	5
47	47	10
116	116	5
79	79	4
14	79	1
78	78	5
137	151	3
31	31	3
87	89	1
131	134	7
122	122	2
14	14	4
111	111	10
71	71	4
117	117	4
119	119	8
107	107	2
76	76	1
45	45	3
15	148	3
70	70	12
17	17	6
64	85	2
48	69	2
53	53	7
96	118	7
120	123	2
151	151	4
66	84	1
21	22	6
79	87	2
96	96	5
106	117	1
15	150	1
66	66	4
126	128	1
79	80	1
10	11	3
73	73	11
49	49	6
24	53	1
37	55	2
13	13	5
74	75	3
135	135	2
146	147	1
48	48	5
16	17	1
132	133	2
56	57	2
82	82	2
130	130	7
135	136	2
66	67	2
78	112	5
3	81	5
38	38	2
63	63	4
77	77	3
105	105	4
7	7	4
24	25	1
87	87	5
137	139	2
103	104	4
3	4	1
112	112	8
28	28	6
84	96	1
136	136	4
12	12	4
15	16	6
108	112	1
108	115	3
105	107	1
29	30	1
111	114	2
32	36	1
108	109	1
85	85	3
6	81	5
106	106	7
50	53	1
15	149	1
141	141	7
83	83	4
117	118	3
75	75	7
137	138	1
99	116	1
43	44	2
8	8	1
49	50	1
133	133	1
128	129	2
109	110	2
125	125	3
80	81	2
93	94	5
50	51	2
120	121	2
99	131	2
101	126	1
143	144	4
69	69	1
136	137	2
22	148	2
115	116	1
154	154	1
150	152	2
23	24	2
109	109	3
58	82	1
129	132	1
32	33	2
102	102	1
85	86	1
40	40	5
106	118	1
123	124	2
104	122	1
129	136	1
144	145	1
68	69	2
106	107	1
26	27	1
101	114	1
115	115	2
25	28	1
114	115	1
42	43	1
152	152	3
21	23	3
15	15	1
153	153	3
26	26	1
19	23	1
112	113	1
81	81	4
64	65	1
72	73	1
22	23	2
44	45	3
100	114	2
95	95	2
138	138	1
94	94	1
21	34	1
65	65	2
83	109	2
101	103	1
29	55	1
5	33	1
41	43	1
84	85	1
56	56	1
103	122	1
36	36	1
93	93	1
55	55	1
27	29	1
6	36	1
95	120	1
100	117	1
9	9	1
97	105	1
44	51	1
104	105	1
10	18	1
37	57	1
133	134	1
105	117	1
12	13	1
110	111	1
