6	6	3
79	79	4
78	109	2
114	125	1
157	157	4
109	120	5
137	144	2
127	127	16
137	138	5
161	161	7
146	146	4
100	100	3
107	108	1
138	138	6
25	38	5
143	154	2
3	10	4
66	66	10
106	106	4
177	178	3
12	45	4
76	80	5
180	180	5
102	103	1
171	171	4
110	118	1
109	123	2
174	174	6
140	144	3
64	65	6
58	58	9
71	71	15
115	118	1
56	60	2
80	103	2
110	110	3
81	81	5
17	31	3
173	173	4
87	88	1
39	42	4
42	42	4
93	97	2
0	1	4
30	31	3
32	32	9
173	176	2
169	169	3
83	87	2
160	162	1
27	28	2
2	3	3
65	74	3
113	113	5
96	97	2
78	107	1
163	167	4
27	27	11
133	133	7
15	15	3
168	168	4
125	125	6
175	175	5
139	151	1
109	109	4
80	104	5
93	93	6
143	143	2
45	45	3
51	52	5
52	52	4
15	16	2
82	118	2
20	20	2
143	147	2
140	140	5
61	61	6
158	158	4
62	63	4
2	2	13
107	110	2
163	165	5
92	92	1
145	145	11
128	128	3
104	104	4
162	177	1
126	126	2
150	150	7
101	101	7
132	141	2
73	87	2
165	166	3
112	112	5
8	29	1
55	71	3
27	35	3
108	108	2
89	90	1
148	148	1
119	127	1
55	55	6
9	10	1
23	29	1
106	107	2
86	86	4
24	25	1
16	16	1
31	31	2
77	77	2
35	35	1
114	114	6
107	118	1
117	118	3
107	107	4
76	76	3
158	176	2
76	77	4
170	179	1
98	98	5
103	103	2
19	19	1
87	93	1
121	146	1
121	121	11
133	147	2
168	169	3
63	76	1
157	158	4
128	138	1
150	153	2
141	141	4
64	64	3
16	18	2
25	25	3
176	176	5
73	73	4
145	146	2
149	149	5
100	101	3
37	43	4
4	28	1
132	132	2
153	153	3
136	137	2
160	160	8
165	165	2
88	89	5
138	144	2
53	58	2
163	164	1
32	40	2
124	124	6
56	56	8
106	121	1
104	105	2
135	141	2
61	62	1
170	170	10
87	87	6
174	175	3
159	159	7
18	18	1
93	94	1
134	134	10
21	29	3
23	23	4
83	83	6
60	61	2
94	95	2
71	72	6
93	96	1
52	56	3
91	92	2
171	179	1
72	80	1
126	127	2
65	86	1
101	146	4
27	30	2
8	8	4
88	88	5
22	24	2
144	153	2
119	119	5
116	116	2
90	90	4
153	169	3
167	168	2
38	38	3
136	138	1
67	67	2
178	178	2
78	78	2
121	139	1
3	6	2
80	80	4
16	19	1
131	149	2
115	115	8
102	102	2
2	39	1
105	121	2
15	90	2
117	117	1
59	63	2
35	36	2
9	11	1
87	89	1
26	33	2
21	22	1
72	73	1
95	96	5
49	49	3
81	89	1
93	124	2
77	80	3
111	131	2
7	25	1
138	155	1
92	94	4
139	149	2
15	40	1
30	39	6
13	13	2
15	43	2
84	85	3
95	106	1
53	53	1
166	166	2
116	118	2
10	26	2
155	156	3
146	149	2
74	83	1
74	75	4
63	63	3
136	163	2
13	22	3
133	150	2
123	129	1
43	43	1
138	156	1
134	135	3
53	56	2
153	160	2
57	58	3
97	99	4
128	143	1
99	108	2
22	22	5
66	85	2
99	101	1
136	136	4
115	123	1
111	111	2
167	169	1
107	109	1
123	141	1
170	176	2
24	24	3
94	94	2
51	83	2
101	109	2
164	166	1
140	141	3
58	60	1
179	179	4
75	75	4
23	35	3
105	105	2
30	36	3
156	157	3
167	167	2
130	130	8
5	5	3
5	45	2
118	118	1
63	71	3
29	29	6
2	6	2
140	142	1
147	150	1
123	123	5
29	30	1
102	146	2
123	133	1
179	180	1
58	72	2
151	152	2
51	58	1
135	135	1
81	88	4
37	37	6
86	102	1
80	117	1
154	166	4
164	178	1
10	19	1
144	165	1
19	82	1
148	149	1
51	68	1
141	155	1
132	134	1
82	104	1
113	118	3
112	114	2
122	130	1
86	87	3
99	99	1
75	88	2
94	112	2
14	119	4
1	9	2
16	17	3
171	173	2
30	30	4
140	153	3
86	96	3
158	159	2
66	78	1
55	60	2
73	86	1
95	95	4
21	21	2
152	170	2
28	28	4
66	68	1
108	109	2
96	102	1
21	38	1
55	56	1
5	9	1
50	74	1
23	39	1
60	60	2
79	98	1
122	122	3
162	162	3
73	74	1
164	164	4
82	82	1
116	119	1
129	130	4
65	66	1
159	172	1
139	139	2
16	30	1
91	91	2
88	111	1
155	155	5
172	172	2
97	97	2
165	168	3
159	162	2
79	96	1
123	126	1
149	174	2
163	163	2
13	14	1
12	120	1
12	12	1
30	32	1
51	51	2
145	158	2
50	50	2
92	136	3
4	120	1
62	62	2
51	57	1
130	137	1
156	159	1
83	85	1
168	180	1
50	51	2
143	144	2
76	176	1
3	5	1
59	59	4
79	83	1
87	92	2
133	134	4
10	10	2
80	81	2
74	74	2
3	3	1
154	154	2
33	33	1
121	136	2
59	75	2
43	44	1
137	137	1
110	112	1
121	123	1
14	14	1
42	43	1
68	70	1
133	146	1
73	75	3
1	13	1
100	109	1
34	42	1
81	82	2
175	176	1
4	12	1
0	14	1
139	169	2
136	149	1
81	104	1
94	109	1
26	35	1
78	79	1
118	119	1
119	122	1
2	4	2
156	156	1
135	136	1
30	44	1
136	152	1
123	124	2
141	154	1
37	45	1
142	142	1
3	4	1
28	36	1
50	62	1
106	122	1
8	11	1
133	136	2
154	174	2
120	120	1
100	146	1
122	123	1
143	167	2
139	140	1
16	24	1
139	145	1
150	151	1
23	34	1
129	145	1
119	120	2
176	180	1
84	98	1
177	177	1
105	106	1
39	39	1
156	158	1
22	23	1
149	150	1
125	127	1
25	26	1
151	158	2
129	131	1
120	123	1
110	149	1
130	131	1
53	57	1
65	65	1
144	154	1
4	5	1
89	89	1
0	0	1
36	36	1
137	141	1
32	55	1
92	109	1
