8	8	6
72	73	2
129	129	19
154	154	6
56	56	17
132	133	6
3	12	2
73	74	1
27	27	3
28	29	2
146	146	5
6	6	12
118	118	14
116	116	3
38	39	3
22	22	9
108	122	2
57	57	19
94	94	10
85	85	10
40	40	13
64	64	9
88	88	6
146	148	3
11	11	17
4	5	1
54	75	3
39	39	15
48	48	9
78	79	2
131	132	4
69	69	5
46	46	6
54	54	6
138	138	7
24	25	4
97	97	3
62	105	1
132	135	2
4	8	5
115	115	12
70	70	15
85	86	5
100	101	3
77	78	4
108	109	5
117	117	8
124	124	7
107	108	2
7	7	4
99	99	9
41	41	7
24	46	1
128	129	3
119	120	12
137	138	2
49	49	1
140	140	4
102	102	10
140	143	3
6	12	1
96	97	2
13	14	4
10	14	7
18	18	6
106	107	6
145	154	2
125	126	9
85	105	1
16	17	10
131	131	1
30	30	6
47	47	5
65	90	1
76	76	13
148	148	7
17	17	11
87	87	4
3	3	9
86	88	1
108	108	10
128	128	10
14	19	4
37	37	5
20	20	8
144	146	9
149	149	5
10	10	8
147	149	4
62	62	5
68	68	5
29	29	5
3	18	9
45	46	8
107	107	12
97	98	10
84	84	4
19	19	10
93	93	2
13	13	15
16	16	5
103	103	9
136	136	12
50	51	1
86	86	8
67	101	2
152	152	3
120	120	2
150	150	2
9	9	7
78	78	11
83	83	9
34	62	3
15	15	11
95	95	3
132	132	3
24	24	3
106	106	6
73	73	7
100	100	7
28	28	4
44	45	6
42	42	14
67	67	17
127	127	4
63	63	9
74	74	3
144	144	3
153	153	7
80	81	2
31	32	7
119	119	10
74	75	7
8	9	5
30	31	1
66	66	8
19	20	4
143	154	2
112	113	8
123	127	2
58	58	3
113	113	7
133	134	2
126	126	3
84	85	3
112	112	5
38	38	9
87	102	4
5	6	3
83	104	1
114	115	1
14	14	5
95	97	5
25	25	11
32	34	3
99	100	1
130	130	11
6	7	3
18	19	3
36	36	7
44	44	5
134	134	4
49	50	4
77	77	4
135	144	3
54	55	4
96	96	5
122	122	9
141	141	2
147	147	5
123	124	5
109	109	7
66	67	2
68	69	5
125	125	7
41	55	3
111	111	4
4	154	5
80	80	4
75	75	5
76	77	3
114	114	10
28	76	3
34	34	1
24	26	2
51	53	6
36	37	6
48	78	2
52	53	1
137	137	3
78	150	3
44	76	5
33	34	1
128	130	4
52	52	1
65	67	2
82	82	1
65	65	2
110	116	1
38	74	2
112	114	4
100	102	3
61	65	2
6	17	3
56	57	1
63	64	3
39	41	3
32	76	2
69	70	6
122	126	1
12	12	2
85	103	1
139	142	2
31	31	4
151	151	3
123	126	2
7	17	7
152	153	5
135	135	1
82	129	3
119	145	2
112	140	2
4	6	2
38	50	1
80	153	1
141	153	1
15	16	1
71	71	1
81	82	1
20	21	4
75	85	1
76	94	2
18	154	4
6	31	1
53	53	3
40	41	1
104	104	1
28	44	2
82	83	3
66	96	1
81	81	4
35	35	2
9	10	3
79	80	1
21	49	1
50	50	3
136	137	1
150	151	2
65	66	3
16	18	2
7	8	1
139	139	1
29	30	2
110	110	3
80	100	2
94	99	1
55	55	2
36	41	2
77	80	1
32	35	1
33	62	1
47	48	1
42	62	1
124	139	1
109	110	2
83	114	2
45	77	1
112	132	1
141	142	1
72	74	1
86	101	1
18	150	1
103	104	2
5	5	1
67	68	1
13	18	1
98	98	1
45	45	1
17	18	1
34	35	1
50	52	1
122	123	1
35	36	1
42	44	1
118	119	1
96	98	1
