160	160	13
109	138	5
186	186	7
116	194	3
158	158	6
135	137	4
43	43	10
185	185	5
57	57	8
53	53	13
50	51	3
136	136	13
176	176	16
15	15	27
96	96	15
192	194	2
23	23	14
66	66	9
169	169	12
167	168	2
0	8	3
146	146	27
59	60	1
58	59	5
14	39	1
11	42	7
55	155	1
98	130	1
124	124	12
96	97	2
164	164	10
89	89	7
111	111	16
152	173	4
26	26	14
127	128	6
167	167	14
173	174	8
36	40	2
22	22	13
126	127	6
157	158	3
15	17	1
183	183	17
88	89	7
105	105	9
141	141	13
101	101	10
172	175	3
143	190	1
177	177	11
182	183	1
118	118	15
166	173	1
19	43	1
64	64	6
4	4	14
82	82	7
190	190	10
41	41	12
28	30	1
151	151	7
187	188	2
139	139	8
111	112	9
162	162	10
9	10	2
122	122	11
36	39	4
22	26	1
43	44	4
38	38	12
27	27	16
56	57	7
21	68	4
89	90	7
27	28	5
128	128	22
187	187	13
48	49	9
120	132	5
152	152	6
125	129	2
30	31	5
3	3	10
49	52	1
109	109	7
181	181	10
4	17	1
14	14	8
45	45	8
176	177	11
44	44	16
148	148	11
37	38	7
119	119	10
175	176	2
35	35	9
12	12	9
13	44	7
114	114	10
118	119	2
110	110	17
126	126	10
29	30	7
168	168	6
15	42	1
51	51	12
132	133	6
53	182	1
32	32	9
79	79	10
55	55	6
135	136	4
88	88	12
160	161	6
130	130	6
9	9	9
42	42	16
17	17	11
60	60	12
117	191	2
125	125	4
33	83	1
179	179	8
189	193	1
75	75	7
48	48	11
25	29	2
121	121	9
109	110	7
144	144	8
7	8	1
39	39	15
172	172	16
33	35	3
178	179	3
10	10	11
56	56	6
197	197	6
123	124	3
121	126	1
109	142	2
132	132	3
173	173	9
189	189	17
106	112	1
156	157	3
188	188	8
8	8	2
58	58	12
80	80	4
28	28	5
102	106	4
133	133	16
62	63	2
154	159	3
127	141	3
115	127	2
83	83	9
6	8	6
196	196	10
139	140	4
103	104	2
47	47	8
40	41	3
13	13	17
87	87	17
26	27	5
100	134	5
20	23	6
66	70	1
67	67	7
0	0	9
2	2	12
49	49	12
114	170	1
150	150	8
171	171	5
73	74	4
191	191	10
74	136	2
184	184	11
84	86	1
73	73	13
101	130	6
133	134	3
183	196	3
149	149	7
24	24	10
99	149	1
11	11	5
83	85	2
156	156	11
99	99	4
136	137	6
52	52	7
33	33	14
65	148	2
72	73	6
142	187	6
40	43	4
63	63	9
122	124	5
25	25	6
155	155	16
69	70	2
106	106	16
8	9	5
153	153	3
61	62	3
78	78	9
119	120	5
23	35	1
167	173	1
22	23	1
74	75	2
72	152	4
182	182	10
120	139	4
66	67	6
144	145	2
168	169	11
68	144	4
52	61	4
96	121	2
130	132	2
146	149	3
87	90	3
119	131	2
75	89	4
184	185	4
65	178	5
147	147	6
149	151	2
131	132	4
5	7	2
20	20	8
33	34	5
57	58	2
50	50	8
69	69	6
42	43	2
178	178	11
37	71	3
57	173	4
103	103	8
126	140	2
14	15	3
20	21	5
61	61	6
51	182	2
6	6	9
71	71	7
123	123	4
34	34	2
103	131	1
112	190	2
166	170	1
56	60	2
143	192	2
110	111	3
101	133	2
25	26	4
166	166	5
120	120	6
87	111	1
150	151	1
70	71	1
12	13	2
19	31	3
131	131	9
154	154	10
172	173	2
117	117	12
70	72	1
70	169	3
29	29	5
107	149	3
66	76	1
157	157	10
158	159	3
64	65	7
19	19	8
40	40	13
95	96	5
108	190	2
142	142	4
47	48	5
137	138	4
36	76	2
6	9	7
193	193	10
38	43	9
138	138	8
116	117	11
0	1	2
162	165	2
80	81	5
117	118	9
113	113	8
105	106	1
163	166	2
100	118	1
5	6	7
140	140	4
161	164	7
42	46	2
118	150	2
14	62	4
195	196	2
21	44	1
59	59	6
10	42	1
38	42	7
1	167	2
195	195	4
85	86	3
99	118	2
18	18	10
76	78	2
115	139	2
115	115	8
56	153	2
127	127	4
116	116	10
23	33	2
121	168	2
54	54	11
196	197	2
70	70	8
145	146	4
107	146	1
15	16	3
36	74	2
34	35	2
145	145	11
53	54	3
115	116	1
194	194	8
19	36	3
179	180	5
93	95	1
118	126	2
135	135	3
72	72	3
100	100	6
14	18	1
102	131	1
7	7	3
170	170	8
165	166	2
73	121	1
4	5	3
20	81	1
118	143	1
175	175	10
30	30	9
76	76	11
68	68	7
140	141	4
126	128	1
116	122	2
158	160	3
64	66	3
107	107	10
103	106	1
12	41	1
24	25	5
94	94	2
67	69	2
77	85	1
154	155	3
81	84	4
85	85	1
16	17	5
156	162	2
137	137	5
1	160	2
39	46	4
177	183	1
186	188	3
37	73	1
60	61	9
175	178	3
24	26	2
121	127	1
130	131	3
171	174	3
114	141	3
108	109	1
1	16	5
24	27	3
81	81	6
101	160	2
191	192	2
180	180	6
174	174	7
104	104	8
30	32	2
62	62	3
20	36	1
109	144	2
28	29	4
3	4	3
113	190	2
171	173	1
33	80	1
112	112	3
31	31	5
19	34	2
143	144	1
161	163	2
146	147	4
76	77	1
114	140	3
94	95	2
15	64	3
148	189	1
194	195	3
60	63	1
77	77	5
12	46	2
86	90	4
151	152	3
24	78	1
21	21	9
49	50	5
159	159	3
153	154	3
163	164	1
5	13	2
3	79	4
185	186	2
90	90	2
113	115	2
68	146	1
72	151	5
54	181	2
3	5	1
6	7	2
124	184	1
58	64	4
192	192	7
35	77	2
103	135	1
65	65	3
161	162	1
107	108	3
67	68	1
74	74	5
190	192	1
123	125	3
86	86	3
158	193	2
177	178	3
125	126	2
55	56	2
157	160	2
175	177	2
84	85	6
9	16	1
105	112	2
143	143	1
156	192	1
8	31	2
37	37	9
10	16	1
81	82	3
139	141	1
155	157	4
97	139	1
27	29	4
106	107	6
1	2	2
118	141	1
181	182	1
51	53	1
104	105	1
78	79	5
2	3	2
51	52	1
155	195	2
88	137	1
55	171	2
5	30	2
4	39	1
4	40	3
100	159	4
10	15	1
7	41	1
40	79	1
142	143	6
121	122	1
16	16	5
5	42	1
122	126	1
25	27	2
54	55	1
114	119	1
171	172	2
161	161	3
101	159	1
102	159	2
30	78	1
85	145	1
17	18	2
63	65	3
174	175	1
41	42	1
152	197	1
65	66	2
84	87	2
114	117	1
117	125	1
129	129	2
149	150	2
95	95	1
161	165	3
5	11	1
115	145	3
117	122	2
41	168	1
39	40	2
99	151	1
117	126	2
85	143	1
98	194	2
36	41	1
154	166	1
5	10	1
120	137	1
123	133	1
118	191	2
37	47	1
166	167	1
155	192	2
162	171	2
152	153	4
115	126	3
134	135	2
71	73	1
161	170	1
97	135	4
15	34	2
173	179	1
122	123	1
20	22	2
114	142	1
5	5	2
104	106	1
100	145	1
158	192	2
87	104	1
95	116	1
15	39	1
67	70	1
36	36	5
102	102	2
189	190	2
95	121	1
8	29	2
108	146	2
63	64	3
82	83	2
101	105	1
38	47	1
21	86	1
57	60	1
1	1	7
135	140	1
46	46	2
112	113	1
190	191	1
58	150	1
60	65	1
39	44	1
113	133	1
144	146	1
98	99	1
160	163	1
32	81	1
108	108	1
183	184	1
24	79	1
74	76	1
58	60	1
180	181	2
98	118	1
93	93	1
172	174	1
53	155	1
127	195	1
19	27	1
6	36	1
109	188	1
121	136	1
131	151	2
22	35	1
174	178	1
1	17	1
128	169	2
64	177	1
176	178	1
86	87	1
113	119	1
34	43	1
18	29	1
86	147	1
115	143	1
124	125	2
14	66	2
9	17	2
32	37	1
59	66	1
15	32	1
27	30	1
67	146	1
52	53	1
153	159	1
116	140	1
162	166	2
94	116	1
8	28	1
183	197	1
189	192	1
134	134	1
98	98	1
127	196	1
8	17	1
101	138	1
126	173	1
