109	109	10
28	31	2
126	126	22
123	123	22
120	120	13
6	6	12
75	76	2
28	28	16
26	27	7
135	145	1
119	141	4
77	79	2
95	96	7
85	85	1
27	27	9
128	128	18
102	102	9
70	71	8
153	153	6
111	112	4
92	93	3
5	5	7
8	8	28
39	40	1
32	32	8
64	64	7
91	91	13
79	88	3
139	139	17
46	47	8
156	156	12
35	41	1
135	135	15
4	4	15
105	105	7
146	146	7
29	29	9
98	98	12
127	128	3
110	110	12
41	41	17
45	46	5
49	56	1
106	116	5
19	21	2
84	85	5
52	52	20
46	46	14
148	148	12
129	129	11
121	122	8
116	117	2
89	138	1
50	51	10
37	37	10
106	106	23
77	77	23
11	27	4
153	154	5
85	86	2
147	147	14
31	31	13
86	86	17
90	91	6
27	43	2
53	53	7
99	99	16
14	14	25
154	154	8
39	39	18
144	145	7
115	115	15
19	20	10
80	81	6
79	79	16
112	113	8
89	90	5
143	146	2
78	78	17
36	36	13
55	55	11
152	152	10
124	124	16
151	151	16
38	39	5
106	107	11
88	88	4
121	123	2
45	45	10
70	70	5
93	93	11
152	157	3
29	37	2
3	4	7
107	108	3
20	20	20
148	149	3
22	22	11
158	158	16
84	111	2
53	54	4
15	15	8
143	147	3
97	97	3
77	130	4
44	44	8
112	112	15
79	90	1
91	92	5
109	110	3
103	103	13
117	118	4
112	122	3
123	124	3
89	89	26
19	19	6
119	119	13
111	111	25
48	48	25
113	113	6
129	130	8
144	144	19
18	19	9
8	10	3
94	94	19
22	23	4
118	118	18
71	71	8
146	147	4
15	17	2
17	17	7
16	16	14
3	3	9
67	68	6
7	28	1
116	116	8
79	80	7
90	90	8
21	21	19
34	34	3
12	15	2
42	62	3
132	132	7
25	26	4
16	17	1
1	151	4
38	38	5
44	45	4
95	95	7
24	24	8
23	24	2
24	25	3
141	141	6
50	50	8
109	111	10
48	49	6
40	40	12
13	15	3
73	73	10
2	5	1
110	111	7
88	128	2
28	43	1
87	88	1
117	121	2
18	21	1
114	115	3
0	0	6
125	126	3
8	9	5
46	48	4
117	117	7
68	69	6
50	52	3
113	115	6
9	14	2
94	95	8
83	84	16
137	137	13
75	130	1
25	25	23
69	69	18
49	50	2
18	18	6
106	108	2
150	150	7
153	157	2
122	123	5
23	124	5
157	158	4
103	104	11
22	30	3
97	113	3
82	82	13
88	89	12
145	145	6
107	107	13
10	12	5
134	135	9
65	65	15
67	67	7
84	84	14
41	42	2
117	120	1
127	127	6
155	156	5
115	116	3
143	143	3
121	121	12
81	84	4
131	132	11
142	142	4
10	26	2
113	114	3
118	120	2
100	100	8
34	35	2
133	134	6
26	26	9
93	94	2
83	86	2
156	157	4
23	23	17
140	140	12
141	142	3
135	137	4
131	158	1
81	81	10
96	96	6
33	33	7
98	99	2
49	49	8
63	63	5
51	51	10
140	141	2
151	152	6
124	127	3
127	138	2
47	47	16
30	30	7
54	54	5
17	19	1
30	39	2
8	148	2
49	51	2
9	10	3
23	27	6
11	12	9
37	40	5
75	75	6
72	72	4
98	105	1
122	122	13
40	41	5
102	140	2
101	101	9
125	127	4
104	104	4
13	13	6
71	73	2
130	159	1
9	9	10
35	35	7
85	92	1
92	112	3
90	94	4
131	131	12
62	62	3
1	1	12
118	122	2
134	134	22
9	11	5
13	14	6
80	117	2
95	113	5
26	37	1
77	78	2
136	137	3
126	127	1
155	155	9
7	7	11
38	41	5
80	80	8
136	145	1
145	147	4
79	129	1
18	114	1
105	106	5
132	133	4
10	10	7
96	97	6
81	82	3
115	118	3
83	83	12
87	122	2
138	138	13
81	86	2
68	68	3
17	18	7
136	136	8
80	84	3
143	144	1
92	92	8
133	133	4
149	149	9
137	138	2
11	11	9
114	114	9
66	68	3
20	21	5
18	20	2
1	2	2
77	126	2
141	143	1
131	133	7
83	85	1
126	139	1
99	101	2
23	25	2
33	34	6
56	56	2
28	37	3
36	37	5
63	68	4
125	125	6
135	136	4
31	41	3
120	121	3
128	129	3
69	128	1
142	146	2
70	72	2
124	125	3
7	8	3
79	92	1
78	125	2
29	31	3
97	116	1
78	80	3
108	127	2
11	30	1
29	30	1
49	53	1
55	56	1
34	49	3
0	158	7
137	140	3
130	130	7
23	65	1
89	91	1
43	43	5
35	36	1
16	110	2
30	31	4
5	35	3
72	73	2
12	27	3
0	6	2
12	12	4
145	146	4
7	43	1
23	26	1
136	141	2
105	121	2
110	138	2
42	43	1
147	148	3
119	120	1
96	99	1
85	123	2
110	112	3
29	35	2
67	70	1
98	130	3
149	150	2
105	107	1
139	140	3
149	158	3
138	139	3
142	143	2
2	24	2
21	22	2
2	2	2
104	118	3
0	43	2
105	137	3
150	151	2
80	121	1
57	57	3
101	102	2
13	17	2
20	24	1
116	118	1
74	130	1
131	150	2
98	121	2
118	119	4
103	105	2
15	18	2
148	150	1
102	103	1
66	67	1
51	52	3
73	74	1
79	127	1
15	16	2
119	126	1
13	151	1
154	155	2
106	109	1
87	129	1
132	134	1
66	70	2
114	116	2
54	55	3
78	79	1
104	142	1
158	159	2
83	88	2
5	26	2
108	108	4
31	32	3
4	50	2
87	91	1
69	70	1
31	42	1
82	134	1
46	51	2
5	12	2
134	146	1
28	29	2
52	53	1
88	131	1
137	144	1
6	80	1
108	110	1
133	138	1
73	131	1
157	159	1
85	96	1
38	43	1
103	119	1
6	8	2
145	148	1
134	137	2
96	113	1
87	87	4
115	117	2
86	87	1
75	129	1
42	42	2
21	24	1
9	68	1
137	139	1
89	122	1
100	101	1
38	40	2
125	129	1
94	96	1
76	76	1
67	71	1
62	68	1
123	143	1
130	131	2
84	88	1
71	75	1
135	148	1
19	22	1
102	120	1
54	68	1
64	68	1
136	144	1
152	153	1
48	50	2
4	5	1
71	72	1
1	157	1
30	33	1
83	134	1
9	26	1
88	90	2
37	38	1
98	138	1
63	64	1
