232	232	23
25	25	12
234	235	2
53	56	3
47	47	11
219	220	6
32	55	1
56	56	10
124	126	4
80	117	3
24	50	2
159	160	7
202	203	8
33	34	5
111	112	5
115	123	2
196	196	6
212	213	4
109	177	1
101	101	19
189	189	15
156	156	10
124	125	3
18	18	16
99	203	3
127	127	11
14	41	2
185	185	8
36	36	18
2	5	2
155	155	8
29	29	22
157	157	22
133	134	7
164	164	8
179	179	4
171	171	17
187	190	1
138	138	14
160	160	17
115	115	12
62	63	7
218	218	9
116	116	8
9	37	1
35	35	6
120	121	5
60	106	3
176	177	3
17	17	17
195	195	11
191	191	16
16	16	8
128	148	5
180	180	20
131	146	1
63	63	9
217	218	6
150	157	1
68	68	4
86	86	11
178	178	5
212	212	18
18	19	6
173	174	7
76	76	13
113	178	2
25	26	5
163	165	5
9	29	4
78	78	17
38	38	22
31	35	1
60	61	2
180	183	2
220	220	15
122	122	10
217	217	8
158	228	2
228	228	8
214	215	2
152	152	20
178	179	6
85	85	9
209	221	1
202	202	19
95	95	3
193	193	4
193	213	1
219	219	10
0	0	6
11	11	12
64	64	11
106	106	21
36	37	2
57	58	1
150	150	14
206	206	15
194	196	3
149	149	14
102	103	6
40	40	14
46	48	2
37	37	13
224	224	8
136	136	8
119	119	11
20	26	3
54	54	8
175	175	23
59	60	4
161	161	17
137	138	2
143	145	9
26	28	2
74	74	26
184	188	2
196	232	3
15	16	5
28	28	12
31	31	12
12	12	9
236	237	1
171	173	4
52	52	9
137	145	2
226	226	6
166	169	3
167	167	3
114	114	7
27	27	23
165	165	10
30	35	2
154	156	2
114	146	3
142	142	14
7	7	7
167	168	5
81	81	21
208	208	12
241	242	5
51	55	2
210	210	7
135	135	14
174	174	21
51	52	4
61	61	17
211	211	4
220	221	1
227	227	18
67	67	6
19	20	1
119	120	8
206	207	3
239	239	10
39	39	15
163	169	4
107	107	6
238	238	11
15	15	3
25	239	1
32	32	9
231	231	4
128	131	1
218	222	2
121	121	5
46	46	9
216	227	1
77	77	8
162	162	9
212	215	3
214	214	9
150	151	2
191	192	2
123	124	7
4	4	9
6	6	2
10	37	2
191	230	1
53	53	13
1	2	7
139	139	10
26	26	17
20	20	14
203	204	11
204	204	13
114	116	2
147	147	4
216	232	2
103	107	1
131	135	1
177	177	18
23	23	5
36	49	4
144	145	3
21	21	12
221	222	5
181	182	11
125	127	3
30	31	2
43	43	25
91	124	1
172	173	5
15	26	1
166	166	8
89	108	1
210	224	4
13	17	2
69	70	3
38	48	1
154	154	10
62	62	10
198	200	1
73	73	15
200	225	2
45	45	8
8	8	8
59	59	6
207	208	5
207	207	15
163	204	1
205	205	8
80	109	2
79	79	5
205	206	3
197	198	4
65	65	11
72	72	17
129	129	2
210	228	2
33	33	4
215	216	6
102	102	4
181	191	2
173	173	12
11	12	1
113	113	5
66	69	2
127	141	5
146	146	4
48	48	10
213	213	11
41	41	9
141	141	14
50	50	9
8	41	2
60	60	7
132	132	1
169	169	7
198	198	11
7	50	2
131	141	1
35	186	1
211	223	4
225	225	10
88	88	5
0	22	3
128	128	12
222	223	2
49	49	7
239	241	4
99	99	11
31	32	8
123	189	3
3	6	1
14	14	12
171	172	2
8	9	3
151	151	3
186	186	7
226	229	2
17	222	4
69	69	3
70	70	8
229	230	4
42	42	8
217	219	1
4	5	4
25	47	3
82	83	2
184	184	4
117	117	7
70	71	3
198	199	2
194	194	13
119	131	2
138	144	3
39	40	7
234	234	9
154	155	3
201	202	4
53	54	4
71	71	10
199	199	4
168	168	7
230	230	5
27	28	3
25	27	3
203	203	8
102	113	7
118	131	1
222	222	8
30	52	5
179	181	11
53	71	1
55	56	1
189	230	5
196	197	2
21	23	1
5	5	4
121	122	8
137	137	5
158	158	6
103	103	2
2	3	2
223	224	9
37	47	1
10	10	4
55	55	2
104	123	1
5	36	3
37	38	5
97	122	2
120	120	7
162	234	2
7	8	1
187	187	10
22	22	8
24	226	3
165	218	2
105	106	1
148	148	6
3	3	15
97	97	4
45	62	3
172	172	8
157	160	3
138	140	4
9	9	13
167	200	2
115	117	1
85	86	4
159	159	12
99	100	3
197	197	10
143	143	4
193	194	1
75	75	3
156	157	6
175	176	1
110	110	4
224	225	6
105	105	4
22	23	3
58	146	2
48	50	3
24	24	6
119	133	2
183	187	4
32	37	5
66	71	2
63	64	5
134	134	6
114	115	4
1	1	5
153	153	6
13	15	2
183	188	1
29	55	2
230	231	3
60	186	3
147	148	3
131	142	2
139	140	4
47	148	4
98	98	7
200	200	3
44	45	4
116	117	3
44	44	6
122	189	3
107	108	4
106	136	3
34	35	4
53	57	2
140	142	2
45	46	4
9	16	3
164	165	5
58	58	11
112	134	1
76	82	2
34	34	5
116	121	1
181	183	1
47	48	3
30	30	8
49	50	7
202	204	1
242	242	8
66	66	9
10	11	2
73	74	2
180	181	4
192	192	8
209	212	1
161	179	1
209	209	3
218	219	9
127	128	2
36	225	2
95	117	2
139	148	1
201	225	1
2	2	14
184	185	5
46	74	3
235	235	16
3	10	1
157	192	2
111	111	5
149	173	2
68	71	1
138	142	1
189	196	1
135	233	2
130	130	1
229	229	9
235	242	1
103	134	1
188	188	5
129	133	7
191	208	3
237	238	1
138	181	1
80	80	4
158	162	1
117	118	1
19	19	6
237	239	2
146	147	2
67	68	5
75	76	6
84	84	4
201	201	5
233	233	6
108	108	7
112	112	2
241	241	6
115	116	3
163	163	5
33	36	1
104	104	4
190	190	6
53	61	3
228	231	1
209	210	1
102	124	3
177	178	1
205	235	3
223	223	4
199	201	3
140	141	3
191	229	1
173	175	1
174	179	1
207	210	2
156	169	1
236	236	3
165	167	2
237	237	3
83	115	2
183	184	3
131	145	3
42	43	1
35	36	8
211	212	2
41	42	3
28	29	1
109	109	4
125	125	6
7	51	4
16	40	2
20	25	3
107	237	3
13	14	3
192	230	2
144	144	8
103	104	2
204	235	1
4	6	4
153	156	3
136	178	3
13	13	5
17	20	2
3	44	1
66	67	5
112	113	4
169	170	3
197	200	2
98	99	1
118	118	4
128	129	4
193	200	1
78	79	1
141	142	1
122	123	3
157	187	1
123	125	1
79	80	1
4	7	3
51	51	4
123	123	4
24	25	2
205	207	2
211	231	5
187	230	2
141	144	1
68	69	1
187	225	1
240	240	2
174	205	1
138	139	1
158	159	1
46	47	1
227	228	3
143	144	3
17	18	3
233	234	2
163	193	1
19	21	2
100	100	2
97	98	2
5	6	2
122	127	1
189	190	1
139	142	2
161	163	1
54	55	1
109	118	1
7	19	1
60	79	2
168	169	7
148	149	1
74	242	1
65	66	1
124	133	2
170	170	1
184	231	1
239	240	2
96	96	4
215	215	1
0	3	1
136	176	1
135	137	1
18	20	2
194	198	3
161	200	1
47	54	2
172	174	2
100	101	2
33	35	2
58	85	2
182	182	7
106	107	1
138	235	2
166	218	2
191	207	1
125	126	1
217	227	1
131	131	2
124	124	2
171	180	3
102	127	1
10	38	1
14	21	2
162	200	1
100	183	1
30	32	1
2	6	2
88	103	1
137	235	3
102	123	4
159	228	1
136	137	2
81	86	2
121	177	2
9	10	2
163	166	3
119	128	1
126	127	2
103	105	2
113	148	1
226	230	1
221	221	2
74	75	2
157	158	1
128	147	1
199	202	1
114	120	1
100	120	2
183	183	5
182	183	2
140	140	2
164	190	1
100	109	1
114	134	2
32	34	1
188	216	1
49	238	2
114	117	2
83	83	2
162	163	1
145	145	1
63	65	1
219	224	1
216	216	4
151	153	2
175	222	1
137	143	1
192	217	1
55	61	1
160	161	3
157	172	2
53	73	1
184	187	1
77	79	2
71	73	1
216	217	2
214	217	1
14	15	2
136	153	1
192	200	1
207	228	1
37	41	1
125	130	1
50	81	1
90	108	1
25	103	1
148	160	1
216	228	2
226	227	2
7	17	1
190	201	3
71	72	1
232	233	1
145	152	1
18	21	2
20	24	1
170	171	4
179	180	2
11	15	1
181	181	2
16	17	1
2	4	2
176	176	2
55	60	1
152	153	2
89	102	1
10	25	1
96	97	1
209	216	1
187	227	1
81	82	1
193	222	1
194	200	1
2	34	1
204	206	1
236	241	1
219	223	2
220	223	1
97	112	1
149	177	1
101	172	1
200	226	1
30	33	1
184	189	1
21	24	1
115	148	1
148	176	1
61	101	1
99	151	1
163	201	2
5	8	2
65	68	1
183	208	1
120	174	1
83	85	1
52	62	2
197	201	1
82	82	1
46	63	1
83	84	1
238	239	1
212	238	1
200	205	1
66	85	1
