78	78	6
167	169	2
4	9	1
76	83	1
68	82	1
74	74	11
123	130	6
146	147	8
35	37	1
153	153	7
159	159	1
49	49	2
134	138	3
160	160	10
53	66	4
66	66	3
123	138	1
40	40	3
10	10	9
54	54	10
14	15	3
135	135	8
105	107	3
114	115	2
42	43	2
90	97	6
52	54	1
29	39	4
170	172	3
172	172	8
143	160	3
13	37	3
178	180	4
10	24	3
87	89	3
11	11	12
14	35	1
100	100	9
170	170	2
127	136	4
152	153	3
63	64	3
115	116	1
150	151	5
99	99	5
141	146	4
165	165	3
34	34	4
140	148	1
164	180	2
22	23	2
36	37	2
15	65	4
9	12	1
62	62	5
109	110	1
13	13	4
80	80	16
173	173	2
19	35	3
83	83	12
84	84	5
161	174	1
166	179	4
12	13	1
73	73	12
27	28	5
50	64	3
60	62	2
79	84	2
109	109	5
168	169	4
100	116	2
95	95	2
29	29	4
124	124	5
97	106	1
61	107	2
1	3	1
157	157	7
178	178	8
110	115	2
14	14	7
121	139	2
82	83	3
4	22	4
54	61	2
26	45	2
145	148	4
24	24	7
0	0	3
144	148	4
24	33	2
118	118	1
159	162	1
150	150	11
102	115	4
136	150	3
23	23	5
32	77	1
1	2	1
139	139	4
56	81	3
94	96	3
156	161	3
28	34	2
59	59	1
26	33	4
78	87	5
76	81	1
71	72	4
57	57	5
125	132	4
108	122	1
76	77	3
82	82	11
63	63	4
163	163	6
93	94	2
25	25	5
43	45	1
164	164	7
53	61	2
157	158	5
81	81	4
38	38	5
140	171	1
142	143	5
79	91	2
135	137	3
110	128	4
116	124	2
146	157	3
10	14	2
154	154	5
62	72	1
86	95	2
114	114	6
92	94	1
145	146	2
147	160	1
136	137	2
63	73	6
107	112	5
167	167	5
125	125	2
27	38	3
175	176	4
9	9	12
111	111	7
172	173	3
136	142	1
33	33	3
18	19	4
27	32	5
119	120	7
118	120	1
105	105	5
121	137	1
8	21	1
27	27	9
171	171	7
149	152	3
55	56	5
26	26	4
165	166	1
133	134	3
174	175	3
106	106	6
70	71	2
53	56	2
6	7	3
169	169	2
124	128	2
52	52	6
107	109	2
155	159	1
4	5	2
14	41	4
61	66	1
87	87	8
84	85	2
103	110	1
52	57	1
31	35	5
43	43	3
93	96	3
5	13	2
22	22	4
153	156	1
58	58	6
141	144	3
142	160	4
94	94	4
159	160	6
34	39	5
137	138	4
4	4	12
53	55	2
86	89	3
142	142	5
31	77	1
117	142	3
61	61	6
143	146	5
114	125	1
0	13	5
10	17	1
141	141	9
4	12	2
164	173	4
110	110	2
10	23	2
140	144	3
158	158	5
75	103	3
136	139	2
155	173	2
52	64	4
88	91	3
74	84	3
99	112	3
88	88	1
27	36	3
96	108	2
50	54	3
67	114	5
0	18	3
76	76	6
108	108	3
175	175	3
30	39	4
55	65	3
6	13	3
162	162	6
46	109	1
39	39	2
72	107	1
12	15	1
94	107	7
19	19	1
98	99	4
78	88	6
26	27	1
134	134	2
20	32	2
94	103	1
179	180	1
118	127	5
85	85	1
80	87	2
135	140	1
49	51	1
125	129	4
108	116	3
90	91	2
104	104	4
10	12	4
8	8	9
113	113	1
31	32	2
31	43	4
145	147	5
37	61	3
166	171	2
115	115	2
56	59	2
143	170	2
102	113	2
68	68	3
118	129	3
106	111	4
145	151	1
144	144	2
91	91	4
63	66	2
99	100	1
174	174	1
139	154	1
109	112	1
86	86	9
79	92	2
173	174	2
121	124	2
7	14	2
128	143	1
133	133	2
157	173	3
142	169	1
130	131	3
60	60	4
134	139	3
167	168	1
25	109	1
142	144	1
6	6	3
41	41	2
133	144	2
166	166	9
168	168	1
55	55	3
155	155	2
145	145	2
136	136	2
123	123	6
109	120	1
103	103	1
7	7	5
87	90	1
114	117	3
101	118	1
84	86	3
118	137	1
74	106	1
152	157	4
141	156	1
56	56	6
104	105	2
61	113	2
141	160	3
112	131	2
119	122	1
73	78	1
57	66	1
79	80	1
112	114	2
117	124	2
11	12	2
3	14	1
131	131	3
5	6	2
60	66	2
51	51	2
62	65	2
163	164	4
179	179	5
99	101	1
145	153	1
57	59	1
119	119	5
123	126	2
25	39	1
41	44	1
38	44	3
9	10	1
158	159	2
85	92	2
86	92	1
2	2	4
18	18	4
36	36	6
101	114	1
31	33	1
117	117	2
120	120	3
2	3	3
49	73	2
63	77	3
30	40	1
51	52	1
131	135	2
149	154	1
5	5	5
155	161	2
44	44	6
141	142	3
13	67	2
73	74	3
33	34	2
0	1	2
90	90	2
151	151	2
128	137	1
111	113	2
77	77	4
107	108	2
16	64	3
116	123	1
37	37	2
112	125	1
39	52	3
95	100	3
116	117	2
63	124	2
93	102	2
75	78	1
50	50	5
36	45	3
0	11	2
51	59	2
15	16	5
105	128	3
97	109	1
117	128	2
36	50	1
112	119	1
129	129	1
37	40	3
54	63	2
88	89	1
129	138	2
2	4	3
100	118	1
143	143	2
27	87	1
127	128	1
28	28	5
71	71	7
87	92	2
141	155	1
142	147	1
12	12	4
121	121	3
145	158	4
153	161	3
99	118	1
65	65	3
117	118	2
112	112	2
53	57	1
30	30	2
42	42	2
9	25	1
61	64	1
146	158	1
70	70	2
139	153	1
14	30	2
148	155	2
84	98	2
156	156	6
147	147	4
156	157	5
65	78	1
8	9	1
54	57	1
15	15	4
132	139	4
40	64	3
11	29	1
135	138	1
71	94	3
75	93	1
143	152	1
156	158	1
122	122	2
122	127	2
159	161	1
93	93	2
29	30	1
50	51	4
25	26	2
98	104	2
1	5	1
131	143	1
9	13	1
19	23	2
3	3	2
75	77	2
0	12	2
6	9	2
160	163	1
28	43	1
1	1	3
35	35	4
148	150	1
67	80	2
110	119	2
177	177	2
83	84	2
156	173	1
28	31	2
126	126	4
90	133	1
148	148	2
102	102	2
114	116	2
6	22	1
174	176	1
143	147	1
17	17	4
140	153	2
64	64	2
50	53	1
67	72	1
106	108	1
146	160	1
96	96	2
96	97	2
170	174	2
55	60	1
59	60	1
97	102	1
165	174	1
2	18	2
117	131	1
54	56	1
129	132	2
106	113	1
138	138	1
99	102	2
61	71	1
20	25	2
161	164	1
31	31	2
131	132	1
51	73	1
167	170	1
135	154	1
82	91	1
63	75	1
116	116	1
8	15	1
89	89	1
166	180	1
142	156	1
67	67	3
162	167	1
151	168	1
75	89	1
63	65	3
80	92	2
2	6	1
127	129	1
146	146	1
52	63	1
29	45	1
3	7	2
65	67	1
146	156	1
89	93	1
72	79	1
159	176	2
92	103	1
137	140	1
0	10	1
41	53	1
17	18	1
137	139	1
114	123	1
137	137	1
149	150	1
21	21	1
31	118	1
121	122	1
130	157	1
102	112	2
55	67	1
101	101	3
122	123	1
138	149	1
118	119	1
96	99	1
14	36	1
28	30	2
99	113	2
150	163	1
151	176	1
176	178	1
5	24	2
140	159	1
166	167	1
15	17	1
9	36	1
155	167	1
146	154	1
56	61	1
172	174	1
79	85	1
97	97	1
120	121	3
7	11	1
54	65	1
64	78	1
52	59	1
51	57	1
52	56	1
145	160	1
71	76	1
110	111	1
