15	15	6
38	38	7
127	128	17
140	141	12
33	33	12
30	31	5
108	108	18
98	140	5
34	35	5
106	106	4
45	45	9
55	55	8
122	122	8
112	112	14
86	91	5
135	136	12
9	9	5
50	50	7
147	147	9
153	154	6
138	139	6
89	89	4
116	116	10
84	85	3
5	6	1
113	113	13
36	36	23
8	9	6
9	53	1
84	84	25
37	66	10
133	134	6
19	33	1
80	80	6
78	78	11
11	12	3
109	134	5
144	146	9
30	30	6
16	63	3
135	135	18
55	57	3
136	137	6
145	145	12
83	83	7
25	29	1
118	118	9
103	139	5
117	117	21
78	79	8
31	31	4
25	25	8
14	14	18
101	146	5
13	14	12
95	96	2
115	116	5
71	71	5
125	125	11
153	153	9
144	145	8
19	19	5
82	82	11
37	37	8
111	111	8
136	136	6
88	88	7
150	150	10
14	15	7
90	91	2
116	117	12
75	77	9
100	103	4
121	121	3
97	99	4
139	139	3
22	23	7
65	66	3
62	62	12
112	114	6
70	70	13
74	82	2
41	41	7
138	138	8
146	146	7
128	128	23
66	66	7
36	38	7
115	117	3
73	73	8
87	87	14
93	93	8
32	33	4
110	111	5
124	124	12
48	48	11
42	42	9
104	138	4
27	27	13
49	49	10
106	135	1
26	26	10
127	127	5
34	34	6
119	119	17
39	39	8
63	64	7
139	147	4
32	32	3
101	143	1
97	138	5
16	16	5
19	29	3
133	133	13
141	141	7
126	127	4
120	120	3
81	81	13
78	80	2
68	68	5
18	45	5
77	78	3
105	105	17
142	142	20
75	75	6
86	86	9
79	79	5
24	29	1
21	34	5
40	40	8
77	77	10
25	26	4
5	9	2
132	132	15
4	4	11
89	90	3
7	7	6
87	152	2
132	136	3
10	27	2
103	103	7
150	154	3
29	29	11
94	96	4
121	150	1
75	82	1
110	110	12
124	127	3
15	114	3
115	115	4
11	11	11
149	149	7
124	125	6
146	147	1
100	100	6
144	144	10
92	92	9
76	76	10
71	80	2
39	40	8
102	102	4
94	99	2
63	63	12
20	20	1
17	17	6
48	54	3
118	119	1
20	22	2
10	11	11
131	131	11
36	46	2
4	6	3
65	88	1
21	24	3
121	122	1
28	29	2
94	98	2
107	109	3
3	3	2
74	75	1
9	29	3
18	18	4
145	146	2
69	71	5
69	69	4
53	53	7
130	130	5
142	143	1
2	2	3
46	46	14
134	134	3
114	114	7
53	112	1
19	20	1
48	111	3
103	104	5
43	43	4
13	13	15
112	118	1
66	67	2
24	24	7
48	49	1
67	67	9
15	16	6
112	113	5
97	139	2
62	63	1
129	129	10
21	21	5
137	137	13
98	98	3
99	143	2
94	94	8
43	44	3
99	99	8
6	6	5
113	114	5
104	104	10
95	97	3
35	36	1
67	68	2
96	96	2
130	131	5
126	126	10
85	85	5
21	22	1
128	130	4
47	47	2
87	151	4
19	28	2
106	107	5
120	129	4
64	64	4
129	149	3
114	117	1
19	34	4
152	152	2
20	21	8
8	8	2
92	149	3
118	123	1
97	97	2
123	125	1
33	34	3
149	150	3
114	116	4
20	23	2
109	110	1
73	76	4
22	22	6
35	35	6
53	55	5
148	148	1
64	65	3
45	46	3
6	12	1
92	93	2
93	95	2
114	119	1
70	71	3
120	128	5
93	94	2
132	135	4
62	65	2
53	54	2
6	11	1
95	95	3
44	53	2
151	151	7
10	10	3
107	108	3
76	77	6
119	120	1
109	109	7
139	140	1
103	105	1
140	140	5
44	44	3
143	146	1
66	90	1
29	54	1
16	87	1
116	150	2
18	54	1
122	124	4
48	51	2
82	83	2
20	24	3
117	118	1
80	81	3
57	58	3
129	130	2
100	101	1
18	35	4
143	143	3
17	63	1
27	30	2
104	105	1
30	57	2
98	146	1
70	73	1
98	99	4
41	42	1
104	148	1
76	78	1
67	69	1
120	121	1
29	30	3
28	32	2
107	107	4
87	93	4
123	123	3
72	80	1
19	57	1
137	138	2
74	76	3
83	144	2
65	69	1
17	18	4
87	153	1
27	31	3
142	144	3
4	5	2
125	127	1
103	106	1
6	10	2
133	135	2
49	50	1
94	95	2
35	62	1
31	32	1
87	141	2
45	47	1
20	37	1
123	124	5
48	52	2
19	53	1
28	28	3
149	152	2
48	57	1
20	34	1
51	51	4
32	35	1
36	37	2
47	51	1
72	72	1
94	97	2
12	13	1
70	91	1
36	67	1
84	99	1
5	8	1
5	5	1
42	43	4
121	123	1
101	142	2
85	86	3
98	141	2
90	90	1
19	54	1
61	61	1
99	100	1
68	73	1
130	132	2
65	65	2
132	133	2
26	27	1
67	71	1
40	41	1
122	129	1
85	93	1
6	7	1
115	154	1
14	16	1
48	50	1
151	154	1
62	64	1
51	54	1
37	38	1
129	131	1
