100	100	18
45	46	6
120	120	8
90	90	10
104	105	4
28	28	5
36	85	4
5	5	22
68	68	16
107	107	14
104	104	14
131	131	14
91	91	21
18	18	13
99	99	4
59	78	2
79	90	3
23	23	4
0	0	14
35	36	8
49	49	1
114	117	3
44	44	16
34	40	3
13	13	1
26	27	4
70	70	11
126	126	17
37	37	16
133	134	4
60	64	1
113	120	2
30	30	6
127	127	10
98	98	6
11	11	19
117	117	11
9	10	4
115	116	11
67	67	12
10	10	10
16	16	13
17	32	1
114	114	10
77	77	6
118	118	8
41	41	10
88	88	6
17	20	2
114	115	4
33	38	2
93	93	10
41	42	11
80	81	3
29	29	18
63	63	11
56	57	10
34	37	4
6	6	21
128	128	22
78	79	9
105	106	9
27	27	9
100	132	1
94	95	6
39	40	5
119	119	14
107	109	4
20	20	10
66	68	4
74	74	13
111	112	4
46	46	8
87	88	6
24	24	7
43	43	16
116	117	4
97	99	3
113	115	2
130	131	6
69	69	12
68	69	7
57	77	2
34	34	17
12	13	9
23	25	8
96	96	8
55	56	7
129	129	4
72	72	13
82	83	5
96	97	1
46	73	2
60	61	6
133	133	18
131	132	5
101	101	12
94	94	14
7	43	5
20	22	3
4	6	1
6	22	2
130	130	17
57	92	1
119	130	3
58	58	12
89	90	1
65	65	20
36	36	8
112	126	7
57	58	2
60	60	6
61	61	10
20	21	11
14	14	8
95	95	10
30	31	7
42	42	9
97	98	3
48	48	4
39	39	6
60	62	3
122	122	13
82	91	3
15	16	2
84	86	6
22	22	21
100	124	3
37	39	3
23	24	4
43	46	1
91	92	2
81	81	12
38	38	10
0	1	4
87	127	3
116	116	5
57	57	11
62	64	5
78	80	2
16	31	2
121	121	26
81	124	3
69	70	1
21	21	10
134	134	25
64	64	13
114	133	1
79	80	6
13	55	1
50	55	2
25	25	7
3	10	3
125	125	9
114	127	3
8	9	3
86	86	9
103	130	4
31	32	9
47	47	11
123	123	9
29	30	6
83	134	2
95	128	2
82	82	5
126	127	3
44	129	6
84	84	7
18	75	6
92	93	5
73	74	4
110	111	9
114	124	4
35	35	14
92	92	9
63	64	5
33	33	14
107	108	5
124	128	3
112	130	1
15	15	13
78	83	3
110	110	10
34	35	1
85	120	2
1	5	1
87	87	9
97	97	4
3	33	2
19	20	6
117	126	2
38	93	3
117	118	8
2	2	10
32	35	1
26	26	5
63	72	1
124	124	8
113	114	4
37	38	3
8	8	9
63	76	2
113	113	6
59	116	4
103	103	9
80	80	13
43	44	1
102	103	4
104	133	4
108	108	9
9	118	2
31	31	8
78	78	12
40	40	7
7	7	6
79	79	7
59	66	2
112	112	4
109	110	3
76	76	7
11	12	2
69	77	2
29	43	1
102	102	11
4	5	4
119	122	2
71	71	4
32	32	3
101	112	2
25	26	3
83	88	1
129	131	1
70	71	4
71	75	1
42	124	1
46	47	6
9	9	4
96	102	1
75	75	9
60	77	4
14	15	1
61	67	1
63	118	1
84	85	4
125	126	1
71	105	3
17	18	5
11	46	1
127	128	5
21	22	3
15	48	1
115	125	3
13	20	1
102	111	1
99	100	1
65	67	1
56	56	14
121	122	2
7	8	3
87	93	1
45	45	4
10	32	2
106	106	8
12	12	1
13	54	2
38	95	1
85	86	4
101	102	3
65	117	1
66	93	1
88	89	5
81	82	5
59	60	1
14	20	1
73	86	3
44	45	4
51	51	1
36	44	3
65	66	2
3	3	5
26	28	3
71	119	3
56	68	1
61	77	4
73	73	6
60	65	1
23	37	2
83	87	2
70	84	3
5	23	3
61	63	1
108	111	1
32	39	1
83	83	8
3	11	3
26	29	2
108	110	1
59	59	6
17	17	9
62	62	4
131	133	1
16	46	1
47	61	2
1	1	7
68	123	3
132	133	4
123	126	2
24	25	4
105	105	10
65	86	3
119	121	1
31	41	5
86	87	2
72	75	1
21	32	4
122	125	1
12	46	1
18	19	3
24	26	1
78	97	1
39	44	3
107	111	2
63	74	2
132	132	3
33	34	3
112	132	1
105	123	2
103	105	2
115	118	2
19	19	7
93	94	1
50	50	3
81	91	1
103	129	2
111	111	5
40	41	2
18	72	1
48	59	3
94	105	2
126	132	2
17	45	1
94	97	2
97	127	1
55	55	2
100	130	1
99	125	1
58	59	1
102	133	1
106	107	2
90	92	4
17	94	1
34	56	3
106	129	3
123	125	2
6	20	1
118	119	4
31	40	1
70	80	2
109	109	2
100	131	1
28	29	4
10	12	1
106	133	2
110	113	1
2	46	2
62	118	1
128	129	2
62	63	2
77	78	1
0	4	2
86	93	1
26	98	1
28	82	1
71	73	1
85	93	1
27	28	1
51	54	1
56	58	1
27	56	1
89	91	2
120	121	1
16	47	1
85	85	4
14	28	1
47	48	2
14	29	1
59	86	1
114	131	1
11	13	1
77	79	1
122	123	1
13	45	1
0	19	1
127	131	1
124	131	1
42	43	1
62	67	1
76	84	1
68	71	1
1	3	1
70	79	1
76	77	1
95	114	1
0	119	1
1	2	1
49	50	1
15	29	1
16	30	1
17	37	1
4	42	1
6	7	1
33	48	1
44	117	2
4	4	1
124	130	1
21	28	1
