92	92	7
82	82	5
23	23	3
70	70	19
30	30	5
86	86	9
85	85	23
81	81	13
56	56	7
67	68	8
41	41	10
64	64	32
87	88	6
79	79	16
36	93	5
25	25	7
85	96	2
36	36	5
77	77	27
80	80	15
71	74	6
98	98	5
79	84	4
47	48	2
84	84	8
45	45	5
25	26	3
49	49	5
65	65	24
69	70	7
72	72	16
37	37	7
39	39	7
27	27	13
67	72	2
64	65	6
63	63	19
58	58	7
26	26	11
67	69	2
83	83	14
72	73	8
38	38	2
51	60	1
48	60	3
57	57	9
54	55	8
72	74	5
57	58	11
89	92	2
66	66	21
98	100	1
63	65	2
93	93	8
40	40	6
22	22	9
74	74	29
34	34	4
54	54	6
35	94	2
61	62	1
35	63	2
67	67	12
73	73	13
44	45	2
69	69	11
78	78	16
87	87	6
23	26	1
68	89	1
75	75	20
68	68	13
31	31	2
101	101	13
83	85	3
80	85	1
89	89	10
59	59	6
33	33	3
48	51	4
56	57	4
90	90	6
62	63	6
70	71	5
76	76	23
44	44	7
71	72	3
42	43	6
74	76	1
66	75	7
60	60	4
49	50	2
95	96	7
24	92	3
35	37	3
42	42	17
27	28	1
69	89	1
36	90	3
46	46	2
88	88	6
68	69	5
86	97	4
68	76	2
85	86	2
71	73	3
75	76	6
35	35	4
71	86	2
33	37	4
43	43	5
65	66	5
60	61	1
71	71	13
51	51	8
62	62	13
91	91	3
63	90	1
36	37	2
88	89	5
79	98	3
51	52	4
50	51	2
65	68	3
74	75	1
26	27	2
80	83	1
34	57	5
97	97	3
20	22	3
61	88	2
61	61	1
76	77	12
36	38	1
29	30	2
86	93	2
29	29	3
96	96	3
79	80	5
91	93	1
66	67	2
49	51	2
32	32	2
66	68	4
87	92	2
67	77	4
52	52	1
87	89	2
95	95	2
64	66	1
56	59	1
100	100	3
31	34	1
82	83	1
48	49	4
65	69	1
48	48	2
50	50	4
80	98	1
63	64	1
86	87	1
53	53	5
41	42	2
94	95	3
40	89	2
80	84	1
94	94	1
83	84	2
22	32	1
68	70	1
80	81	1
79	85	2
25	27	1
40	41	1
68	71	2
55	55	2
81	84	1
45	46	2
88	93	1
41	66	2
52	56	1
84	95	1
47	60	2
43	44	2
102	102	1
90	91	2
30	55	1
23	32	1
43	45	1
40	93	1
56	63	1
93	97	1
52	61	1
51	63	1
