155	157	4
116	139	1
147	147	9
108	108	10
8	11	1
117	133	4
142	142	9
113	113	7
144	144	1
8	9	5
139	139	5
44	44	5
3	8	1
140	140	9
130	130	2
39	39	1
116	122	4
38	39	1
120	122	1
105	105	10
34	34	11
82	83	7
57	57	2
68	68	15
5	5	7
79	79	10
28	28	1
50	55	4
119	119	4
71	71	15
78	78	10
77	78	2
117	117	11
52	52	11
148	148	10
42	42	5
106	106	4
131	131	4
115	115	6
127	127	5
114	114	11
13	13	2
85	85	5
103	104	7
138	140	2
107	107	11
117	139	1
87	87	3
95	95	6
120	135	4
26	26	7
95	96	8
151	156	4
4	4	5
133	133	8
90	92	6
1	1	1
16	16	2
152	152	3
20	22	5
145	154	5
6	16	3
128	128	11
111	124	5
141	142	1
63	63	2
136	136	7
145	150	2
141	141	10
23	24	2
46	55	5
118	118	8
111	111	8
121	121	6
83	83	3
65	65	5
26	85	3
103	110	3
138	138	17
24	24	4
138	139	1
109	110	3
109	113	1
104	104	7
80	82	7
37	38	1
106	108	2
43	43	3
4	8	3
47	47	2
8	8	9
126	126	6
143	143	6
119	120	3
77	77	5
125	126	6
53	55	2
123	123	6
11	11	8
90	91	2
156	156	3
125	125	7
145	148	2
151	151	4
154	155	2
146	147	2
9	9	2
134	135	7
154	154	4
112	112	6
13	14	3
133	139	3
67	67	6
110	110	8
54	55	2
105	106	8
21	22	3
41	41	8
34	90	4
33	40	5
155	156	2
70	71	14
91	91	4
150	150	10
146	152	3
135	137	2
146	146	5
144	145	7
30	30	3
41	47	3
69	70	2
153	153	10
136	137	4
25	25	2
104	105	1
122	141	4
47	48	3
38	44	5
63	64	2
33	33	5
109	109	4
3	3	3
3	4	4
158	159	1
151	152	6
102	138	1
35	35	4
124	124	2
48	48	3
157	157	3
88	88	4
19	19	6
85	86	3
50	50	9
7	27	2
155	155	5
121	140	1
69	69	5
96	96	7
132	132	4
116	116	2
86	87	1
115	117	4
124	126	3
94	94	3
152	154	3
120	127	2
92	93	4
62	62	4
49	63	3
114	121	1
122	122	3
15	15	2
137	137	9
64	98	1
21	21	4
149	149	1
92	92	6
123	126	3
82	82	1
136	142	5
114	116	1
117	118	7
0	1	3
142	143	2
158	158	2
99	99	2
101	101	2
113	114	1
7	7	4
10	10	2
120	120	3
102	105	1
43	44	2
135	136	1
32	32	3
23	23	1
123	137	1
75	76	4
67	70	1
37	37	1
145	145	2
20	21	5
114	156	2
105	129	3
83	90	1
45	48	3
22	22	1
9	13	1
75	75	5
7	8	1
98	98	8
83	84	1
56	56	3
20	20	1
90	90	3
100	100	5
142	144	3
46	46	2
38	38	2
85	96	2
93	93	5
123	124	2
12	12	5
49	55	2
134	134	1
96	97	1
120	121	2
115	116	2
51	51	2
49	72	1
17	156	2
6	7	1
129	152	3
99	101	2
107	108	3
103	103	2
81	81	3
47	49	1
122	125	3
7	15	2
148	150	1
31	31	4
18	18	1
51	52	2
129	129	3
122	123	2
37	41	3
65	73	2
72	72	2
17	17	3
6	6	2
50	51	1
102	102	3
2	20	1
157	158	1
97	97	3
137	138	1
92	97	1
111	112	1
15	118	1
105	123	1
54	54	1
124	125	1
112	117	1
40	40	1
80	80	1
55	56	1
143	152	1
92	95	1
66	67	1
107	130	1
102	136	1
69	93	1
51	53	3
49	50	1
79	83	1
1	2	1
53	53	1
118	134	1
76	76	1
88	89	1
105	131	1
0	0	1
36	37	1
0	3	1
133	144	1
131	132	1
