84	95	3
29	30	5
45	45	3
22	22	8
87	87	12
65	65	5
51	52	1
41	46	1
59	59	7
45	46	6
51	79	1
58	58	6
46	46	16
51	51	6
106	112	3
38	38	9
34	36	1
83	85	4
41	41	2
44	44	3
21	21	10
111	111	7
34	34	10
84	84	4
30	31	8
59	60	3
97	97	3
73	77	4
35	35	9
97	98	2
87	109	2
54	54	12
61	61	5
91	91	5
31	31	6
90	91	2
26	27	3
23	31	2
47	48	4
46	47	1
100	100	1
77	77	9
29	31	3
52	52	6
46	49	8
50	51	4
60	60	5
23	28	5
102	107	3
95	95	5
94	94	4
79	79	9
73	73	6
64	65	3
25	36	4
22	23	2
113	113	4
26	26	10
88	89	3
30	30	4
40	40	8
104	106	4
86	86	3
62	63	2
50	50	15
72	72	9
31	35	1
76	78	5
83	83	12
110	112	2
47	47	2
78	79	2
101	101	2
37	37	5
60	87	2
54	60	2
109	110	4
95	97	1
115	115	2
29	29	4
48	48	3
27	30	1
68	69	4
53	54	1
20	20	4
24	24	6
32	32	5
105	107	2
55	55	6
99	99	3
57	58	5
89	90	2
49	51	4
97	101	1
105	105	3
102	102	3
96	97	8
55	56	1
106	106	4
56	60	1
42	42	12
108	109	3
33	33	8
92	93	3
25	26	7
82	94	4
24	25	1
48	89	1
41	97	1
53	56	2
57	57	3
68	68	8
74	101	1
20	21	1
22	27	2
32	38	1
33	34	3
85	85	2
73	76	4
25	25	2
23	23	3
90	90	3
62	62	5
46	48	2
78	78	5
47	90	1
103	105	2
39	66	1
53	57	1
65	68	4
67	67	3
61	66	1
26	35	3
89	91	2
85	95	3
49	49	5
22	24	2
90	102	1
41	45	4
65	66	2
34	35	3
23	24	4
37	96	1
31	32	2
35	70	2
111	113	1
71	72	3
47	51	2
53	53	5
94	97	2
62	67	1
98	101	1
103	114	1
93	93	4
45	52	1
75	75	2
54	55	1
44	91	1
104	104	2
69	76	1
67	72	1
20	25	2
100	114	4
53	77	1
41	42	1
108	108	1
112	112	2
54	93	1
103	103	3
68	73	1
97	113	1
105	109	3
76	76	3
81	85	1
93	94	2
36	36	1
88	108	2
66	67	4
74	74	2
88	88	2
25	37	3
28	29	1
98	98	2
104	112	3
85	86	1
65	85	2
103	110	2
28	28	1
71	79	1
74	75	3
72	73	1
41	43	1
27	27	1
40	87	1
85	110	1
24	30	1
27	33	1
92	92	2
69	69	2
52	53	1
32	33	2
26	30	2
39	39	1
102	105	2
83	88	1
44	53	2
76	77	1
64	66	1
82	88	1
113	114	1
80	80	2
37	38	1
86	88	1
26	34	1
