180	180	8
97	98	6
95	96	10
31	31	7
62	69	2
47	47	10
79	79	10
27	28	3
36	37	2
185	185	9
12	12	22
50	175	9
176	176	8
39	44	3
224	225	8
70	71	1
153	180	4
237	237	8
64	64	11
191	193	4
46	46	13
215	215	13
218	218	18
202	203	6
211	225	1
96	96	16
84	105	1
203	203	14
226	226	8
170	172	1
216	216	12
195	196	3
233	236	11
162	162	12
115	116	9
195	195	17
187	187	19
33	34	4
116	117	11
104	104	6
2	2	16
161	161	12
26	26	13
53	109	5
32	32	11
155	156	4
188	188	14
68	69	12
66	66	6
215	217	4
4	4	18
93	99	2
113	113	8
90	90	12
103	103	4
41	41	6
225	231	2
71	71	1
39	151	1
78	78	16
205	205	14
112	112	22
9	30	2
159	159	10
36	36	15
112	113	5
156	156	25
198	200	6
46	47	5
17	17	14
8	8	11
106	106	4
177	240	15
229	229	13
87	87	1
80	80	18
40	44	4
189	189	6
51	51	3
82	82	17
210	210	4
204	204	16
59	59	11
50	50	8
75	77	7
19	227	1
57	57	15
18	18	10
233	234	4
65	65	15
72	72	10
227	228	13
194	195	3
90	91	8
25	26	6
213	233	2
158	161	6
81	84	7
193	193	3
60	60	12
62	95	4
44	44	11
1	1	1
170	170	6
168	168	11
28	28	3
232	232	13
38	38	21
214	214	10
238	238	17
177	177	25
105	105	14
182	184	13
248	248	6
60	111	9
77	77	15
222	223	3
81	100	2
233	233	15
53	53	11
227	227	11
20	21	5
91	92	4
153	153	6
62	79	1
200	200	20
76	99	3
79	98	6
40	40	10
71	72	7
59	94	1
240	240	13
172	173	6
20	20	13
217	217	14
7	7	17
90	92	2
183	184	9
223	225	4
78	94	4
228	228	18
235	235	12
178	179	11
152	152	4
111	170	5
37	37	26
58	58	5
183	183	16
84	84	6
50	51	9
60	173	4
16	16	6
9	9	11
167	167	16
41	43	3
163	163	12
88	88	7
31	32	3
42	42	11
55	159	2
59	86	1
76	85	4
169	169	5
33	35	2
81	103	3
174	174	8
66	67	7
39	39	12
166	172	1
191	199	5
19	216	4
15	15	11
221	222	11
164	164	12
171	171	10
107	107	12
145	145	10
144	144	6
56	56	6
3	3	4
207	207	16
22	22	4
70	70	9
30	30	7
33	33	2
114	114	10
55	93	5
55	86	3
91	91	23
94	95	4
68	68	20
79	95	4
230	230	8
85	86	7
241	242	1
75	98	1
49	49	6
95	97	1
69	69	7
171	173	1
5	5	10
151	151	20
157	159	1
231	231	2
63	98	3
49	51	3
77	86	2
187	188	8
89	89	1
237	238	12
234	234	7
153	182	3
197	199	3
73	73	13
23	23	10
48	175	8
179	182	2
45	45	14
157	157	8
239	239	16
213	214	8
101	104	2
170	171	3
95	95	11
29	29	11
216	217	10
21	21	18
8	9	2
110	156	2
155	155	13
63	63	8
100	100	14
150	150	9
55	56	12
65	66	7
91	236	4
165	165	16
20	22	9
109	109	17
218	219	4
212	212	6
77	93	8
232	234	3
14	14	12
237	239	5
81	81	6
62	70	2
154	154	4
29	30	3
102	102	10
182	182	15
153	154	5
174	175	6
146	146	4
61	61	2
238	239	10
190	190	12
225	226	3
32	35	2
10	10	19
110	110	15
70	87	6
49	176	5
192	193	3
19	19	4
158	158	13
83	83	4
73	74	3
18	19	3
74	74	6
191	192	9
99	100	10
117	117	16
55	55	5
212	213	5
197	197	15
243	244	8
13	32	3
32	33	6
165	186	9
226	231	3
111	111	11
244	244	17
76	76	3
166	185	1
110	111	8
83	84	5
89	90	11
169	170	1
211	211	2
223	223	13
157	158	8
221	221	5
194	194	7
173	173	9
81	101	1
94	97	2
48	48	10
222	222	5
224	224	10
184	184	14
180	184	3
36	236	4
34	35	3
246	246	4
60	172	2
79	93	1
47	108	1
189	192	2
236	236	22
226	229	9
215	235	2
54	55	5
167	168	1
242	244	5
103	104	1
51	52	4
178	184	2
54	54	5
82	83	3
147	147	3
165	167	2
43	43	8
234	236	4
92	92	7
49	50	5
163	164	2
180	182	3
199	200	2
118	119	4
58	162	1
57	119	4
87	88	7
225	225	6
98	98	10
234	235	5
152	208	3
63	64	5
192	192	4
178	182	2
196	209	1
6	7	4
199	199	10
71	89	2
35	35	11
117	118	2
208	224	2
210	246	5
75	85	2
247	247	4
187	189	4
116	116	7
213	213	8
57	59	3
75	75	3
201	201	8
176	177	7
74	76	4
208	208	12
69	73	6
60	85	3
209	209	3
78	98	3
24	25	5
189	191	2
58	59	1
217	218	7
37	39	4
226	227	3
152	178	2
5	12	7
152	198	2
150	225	2
160	160	13
94	94	6
74	84	1
6	6	4
196	196	5
76	77	3
59	78	3
164	169	1
92	108	1
92	93	1
41	45	1
174	184	2
73	75	2
59	77	2
115	115	2
154	198	1
91	93	2
153	197	1
7	8	4
98	99	1
55	108	3
99	99	3
220	220	4
152	210	2
226	247	4
106	107	3
219	219	6
69	94	1
9	10	2
179	179	2
105	106	2
97	97	3
229	230	2
21	22	5
185	186	1
232	241	2
50	180	5
77	78	1
61	62	4
219	248	1
47	48	2
177	181	3
0	1	2
208	246	2
165	166	8
86	86	6
11	11	3
35	36	5
62	173	1
168	169	2
62	62	8
197	198	3
207	225	3
151	246	4
186	186	7
37	38	8
77	89	1
226	246	3
14	32	1
52	53	2
108	108	5
175	175	6
112	114	1
202	202	8
208	247	4
56	57	2
24	24	6
214	246	1
63	69	1
191	191	15
210	247	2
119	119	6
181	185	1
112	163	2
4	14	9
152	209	3
3	14	5
100	101	1
93	93	5
41	42	5
57	162	3
39	45	1
245	246	3
38	39	9
151	201	2
82	101	2
211	214	4
154	155	2
49	175	10
225	230	5
57	58	3
208	209	2
230	231	3
162	163	1
61	245	2
64	71	2
175	177	3
173	174	2
77	108	7
238	240	1
78	93	3
243	243	3
58	79	1
225	247	2
64	70	1
194	207	3
25	25	5
115	118	4
6	8	3
167	172	4
55	87	3
196	200	2
166	171	2
235	236	3
67	67	2
200	201	4
72	90	3
40	43	3
181	181	3
58	110	1
55	109	4
80	84	1
27	27	3
59	60	2
67	68	2
40	41	4
45	49	4
61	86	2
207	209	1
36	40	4
190	191	2
50	176	1
34	34	8
118	120	4
242	246	2
17	145	2
7	10	2
50	174	1
85	85	5
26	27	3
150	151	1
101	101	4
206	207	2
2	4	2
242	242	3
7	11	1
190	198	2
214	232	3
193	194	3
68	71	4
52	52	4
154	184	1
49	53	2
45	46	5
144	145	2
171	172	6
69	76	1
166	166	3
94	104	1
56	158	2
33	48	2
37	236	2
177	178	1
15	16	2
237	240	2
14	15	1
40	236	1
178	198	2
152	154	1
33	47	1
57	110	2
8	26	1
181	190	2
64	65	2
47	92	1
4	15	1
78	79	2
180	181	1
189	190	1
32	48	1
213	215	2
94	98	1
19	21	1
202	207	3
158	159	1
44	53	1
114	115	1
166	167	4
213	234	1
215	216	2
57	163	2
75	76	2
81	83	2
188	189	2
111	112	1
53	89	2
229	231	2
108	158	3
241	241	2
62	85	1
84	101	1
88	89	2
8	15	2
1	42	1
164	165	2
229	248	3
195	197	1
76	93	2
228	229	2
145	160	1
30	31	1
245	245	2
211	212	4
70	72	1
61	78	2
60	87	1
60	62	1
109	154	2
32	41	2
75	105	1
99	104	1
203	204	2
163	169	1
179	180	1
77	105	2
163	168	2
246	247	1
241	245	1
68	95	1
242	243	1
214	215	1
219	220	2
111	162	1
84	85	1
182	183	1
43	44	1
22	23	1
77	92	1
61	110	1
201	202	1
100	102	1
81	85	1
