140	140	6
121	121	3
119	119	6
81	82	1
42	42	10
109	110	3
147	148	4
69	92	3
126	127	3
150	150	11
149	149	3
83	113	2
40	57	3
17	18	6
122	128	1
9	9	8
97	99	2
64	66	2
145	145	8
17	72	4
76	76	6
136	136	7
134	134	5
54	54	5
6	6	2
19	19	9
7	7	7
140	142	1
106	106	10
92	94	7
39	39	10
130	130	10
118	118	23
77	77	10
122	123	4
63	63	3
48	48	7
38	71	3
132	132	4
100	100	10
146	146	5
85	93	5
106	107	6
5	5	7
20	21	1
102	102	10
40	40	9
71	71	3
9	11	2
103	145	1
135	135	5
32	54	2
13	44	1
35	35	6
116	123	1
30	30	6
50	50	9
29	29	11
51	66	2
77	78	6
3	3	9
105	105	6
107	107	4
72	72	8
53	53	5
40	41	2
148	148	4
23	23	15
32	78	1
43	53	3
49	49	1
23	99	1
86	88	1
33	33	7
40	67	3
69	86	1
67	71	2
80	81	3
69	69	7
138	139	1
55	56	5
47	47	8
110	110	8
27	27	4
50	51	11
30	38	2
84	84	7
81	81	2
108	108	2
143	143	3
32	36	3
42	51	1
4	4	3
73	76	3
116	122	2
36	37	1
57	57	3
25	26	2
100	101	1
99	99	7
87	87	4
82	96	2
16	81	2
20	20	2
62	76	6
153	153	3
103	103	4
17	17	9
78	78	6
122	122	7
18	19	7
28	29	9
36	36	3
120	154	2
43	44	4
83	85	2
11	11	13
73	73	7
115	115	2
98	142	2
63	145	1
41	53	2
16	16	4
111	112	4
18	18	10
42	52	2
120	120	3
111	111	5
21	54	2
128	152	3
16	17	1
37	38	3
114	139	2
132	134	6
151	151	1
86	90	2
123	148	1
114	114	14
123	123	6
117	132	3
15	53	1
85	85	6
68	68	9
147	147	5
10	10	9
22	22	3
15	17	2
108	109	2
142	142	3
95	96	3
5	9	2
37	37	6
150	151	2
132	135	1
99	100	2
81	93	1
69	108	5
55	55	1
70	77	4
109	111	1
117	117	4
154	154	6
116	116	8
131	131	12
95	108	1
76	77	5
28	28	3
31	64	2
118	119	2
12	47	1
7	44	3
8	10	1
128	130	2
152	152	3
75	75	5
128	128	1
21	21	1
22	67	2
127	127	3
64	64	7
7	58	4
109	109	3
4	5	3
65	66	3
83	83	1
15	15	12
113	113	7
124	124	4
38	39	2
8	8	1
52	53	1
133	144	1
15	16	2
12	12	9
139	139	6
85	102	2
33	100	2
25	25	6
124	125	2
129	130	1
24	29	2
133	133	4
80	80	4
110	111	2
115	130	3
24	24	2
87	114	1
101	102	3
41	42	1
64	67	4
118	135	1
73	74	5
45	45	5
14	17	2
22	23	2
118	134	2
101	101	5
4	8	2
38	38	3
74	74	3
13	139	1
138	138	5
84	85	2
41	41	3
79	79	4
144	145	3
13	16	1
5	45	3
72	73	1
94	94	6
8	67	1
31	32	1
21	27	1
98	99	2
86	87	1
47	48	2
95	95	7
86	86	3
74	79	3
7	84	2
87	136	2
81	84	1
76	78	1
44	44	1
36	77	3
6	62	2
69	117	1
82	89	1
3	4	4
67	67	4
14	50	1
112	112	4
65	104	2
97	97	2
62	62	5
70	70	5
66	66	4
79	80	2
99	142	1
119	121	2
49	51	2
113	114	3
43	43	1
6	45	4
70	71	2
117	118	2
94	95	1
78	81	2
10	43	2
100	137	1
113	135	1
145	146	1
53	54	1
144	144	2
114	137	1
46	46	2
84	114	1
113	136	1
68	104	2
106	132	1
82	83	1
129	129	2
35	36	1
77	80	1
38	55	3
54	55	2
103	104	2
68	107	1
153	154	2
68	69	1
93	93	2
21	22	1
30	64	1
86	141	3
35	104	2
14	14	1
23	26	1
42	43	1
114	132	1
44	147	3
134	139	1
146	147	2
139	140	1
42	53	1
103	137	2
109	129	1
5	40	1
69	70	1
35	39	1
13	14	1
83	84	1
14	18	1
88	88	2
71	72	1
144	148	1
20	40	1
10	31	1
140	141	1
3	6	1
11	12	3
45	46	1
137	137	2
41	54	2
25	99	1
3	7	1
103	144	1
14	15	1
106	109	1
5	6	1
113	119	1
112	113	1
93	124	1
