86	86	10
21	30	3
126	126	7
32	48	2
95	97	3
58	59	4
8	8	8
78	78	3
108	108	2
83	83	6
57	57	3
93	93	2
28	28	2
15	15	8
33	33	7
45	45	4
91	92	1
97	113	3
111	111	8
93	94	1
67	68	3
102	103	5
101	101	6
8	13	6
27	28	9
124	124	2
39	40	2
56	56	4
5	21	1
117	117	3
128	128	5
6	7	3
84	100	5
43	43	6
39	49	2
19	23	2
129	130	3
112	123	1
55	66	2
112	112	4
22	26	3
91	120	2
109	109	5
3	3	10
30	39	2
94	94	2
27	27	6
5	5	1
20	24	3
9	9	4
21	21	7
115	115	6
4	6	1
102	102	5
51	51	2
75	80	2
109	123	5
40	41	4
11	11	6
17	45	1
131	131	4
45	95	2
96	113	1
125	125	3
110	120	2
98	98	3
100	100	1
15	40	1
129	134	1
119	131	2
73	74	1
56	111	1
44	45	6
74	74	6
104	105	2
79	80	5
85	87	3
22	27	2
118	118	7
24	24	10
35	36	2
95	95	11
74	76	2
100	126	1
6	6	4
107	108	1
54	115	3
71	85	1
58	58	7
7	7	5
37	38	1
11	13	1
92	94	1
70	70	4
31	39	2
57	100	2
114	114	1
86	96	2
16	16	3
59	60	13
80	80	4
27	35	1
47	47	10
10	28	1
84	85	3
46	47	4
7	16	3
122	122	5
86	128	2
87	87	1
32	32	2
47	48	5
97	101	1
74	75	2
19	26	1
36	36	6
69	70	2
93	104	1
17	17	6
55	56	2
9	23	2
99	99	9
30	42	1
0	0	3
12	13	3
73	73	5
128	131	1
4	11	1
67	67	3
22	22	5
60	62	3
41	41	3
17	27	3
81	81	2
45	60	1
3	28	4
64	65	3
129	133	4
37	37	2
92	105	1
119	128	1
88	88	5
105	130	2
90	90	6
11	120	1
60	60	5
80	81	5
6	16	1
83	101	3
82	82	8
69	69	4
55	58	1
13	13	4
55	55	4
82	108	3
110	110	3
57	58	1
16	45	3
21	22	1
44	44	4
120	120	1
82	83	5
39	55	1
72	73	4
109	124	3
97	97	2
113	114	2
27	45	3
102	104	2
86	95	1
113	113	1
104	104	3
93	101	2
38	38	1
61	61	1
72	72	2
17	39	2
59	59	2
109	110	2
121	121	6
61	84	2
102	107	4
83	95	1
123	124	1
110	116	2
112	125	1
112	113	1
114	123	1
123	123	2
61	62	1
10	11	3
93	106	4
90	122	1
12	116	1
126	127	1
93	102	2
108	124	2
4	119	1
120	123	2
119	119	3
71	83	2
63	64	3
107	116	2
65	90	3
13	15	1
82	106	2
34	34	1
30	114	1
42	42	4
115	116	5
38	40	1
83	100	1
2	12	1
37	44	2
33	37	1
65	65	1
111	125	3
130	131	1
125	132	1
35	35	2
83	99	1
76	77	1
131	134	1
105	105	1
5	9	1
28	29	2
116	116	2
97	126	1
66	66	3
92	92	3
83	129	1
1	1	1
5	16	3
40	40	1
14	24	2
123	125	4
113	116	2
68	72	3
65	105	2
32	38	2
25	25	1
84	84	2
100	111	1
87	100	1
70	71	3
75	75	1
124	125	2
91	91	1
33	40	1
39	39	1
105	118	1
114	115	1
23	23	2
68	68	2
46	112	2
23	35	1
101	110	2
81	103	2
107	107	5
16	17	1
96	96	4
60	61	2
3	12	2
94	103	1
20	20	2
76	76	1
7	26	2
99	112	3
117	129	1
106	124	1
101	102	1
56	58	3
29	29	1
10	114	1
75	85	1
115	123	1
83	124	2
14	14	1
131	132	1
31	41	1
114	124	1
9	17	1
26	26	1
54	54	1
119	126	2
12	12	1
93	117	1
99	100	1
45	46	1
3	11	1
62	62	1
39	48	1
10	98	3
90	103	1
71	87	1
95	98	1
62	63	1
29	121	1
33	34	1
12	20	2
16	42	1
78	79	1
101	129	1
106	107	1
10	10	2
31	43	2
7	8	1
117	118	1
45	61	1
97	116	1
114	125	1
91	93	1
2	2	3
15	119	1
85	85	1
111	114	1
63	63	1
27	30	1
55	112	2
64	64	2
108	125	1
4	4	1
127	128	1
107	121	1
79	79	1
6	30	1
126	130	1
11	27	3
4	5	1
58	81	1
110	111	1
93	108	1
61	106	1
113	115	1
85	86	1
33	35	1
88	101	1
20	22	1
79	87	1
31	45	1
20	35	1
11	92	1
