53	53	5
136	136	5
60	69	2
102	102	3
137	138	5
102	115	2
192	193	2
165	167	3
37	37	10
15	16	1
142	142	5
144	144	1
17	17	2
23	24	2
9	9	4
195	197	3
130	131	1
150	151	2
11	11	6
51	51	2
8	80	2
36	38	3
123	124	3
116	116	3
157	157	2
112	139	2
22	22	5
131	131	2
141	187	2
49	49	2
182	184	4
19	60	1
127	127	5
0	1	1
100	100	5
62	62	4
178	178	2
7	7	6
26	35	2
107	134	1
97	147	5
76	76	3
153	153	3
79	79	1
36	36	1
176	176	4
11	72	4
96	96	3
195	195	2
180	180	1
176	177	2
1	1	4
53	57	2
13	13	2
25	83	3
97	97	2
72	72	6
87	87	3
118	118	4
87	88	1
10	65	5
101	101	4
12	21	7
181	182	1
60	60	3
3	3	2
194	194	6
44	64	3
95	96	1
2	2	1
166	166	5
148	154	3
32	171	2
67	68	2
45	46	3
6	6	3
188	189	3
173	173	3
85	86	2
12	13	2
4	5	2
111	111	1
58	58	3
40	40	5
119	120	5
186	187	6
177	178	2
5	6	2
113	113	3
168	169	2
137	137	2
86	86	12
174	174	1
7	22	4
183	183	1
27	36	3
33	33	4
161	161	6
101	161	5
112	112	1
103	103	4
89	89	1
160	160	6
64	65	1
152	153	3
154	154	2
129	129	4
79	80	6
26	27	2
24	33	1
110	110	2
0	0	1
134	134	6
15	15	5
56	57	2
52	52	1
124	158	1
125	168	3
117	119	1
51	75	1
152	152	4
27	27	2
98	103	2
156	156	2
126	126	4
84	86	1
100	103	3
23	23	8
29	29	4
191	191	1
114	114	3
85	85	3
28	28	2
140	140	7
130	132	3
188	188	4
34	37	2
11	22	1
61	61	4
117	117	1
147	147	2
144	189	1
97	163	1
193	194	1
98	98	3
52	53	2
155	156	1
41	64	1
119	119	2
94	96	5
35	35	2
5	8	1
117	121	1
106	107	1
193	193	2
132	132	1
171	172	1
172	173	2
46	47	2
138	138	3
150	150	6
71	71	1
175	191	1
22	76	1
137	142	1
44	44	2
46	46	1
184	184	4
145	145	3
1	28	4
59	59	2
17	59	1
57	57	1
136	137	1
99	103	2
163	164	1
166	167	1
23	35	1
28	84	1
105	151	2
162	162	4
144	179	1
2	4	4
186	186	5
182	195	1
159	161	1
18	18	2
118	122	1
37	85	2
20	81	2
67	67	1
28	29	3
2	3	1
4	4	2
64	64	3
139	139	2
170	171	2
54	54	4
2	34	4
179	179	1
190	190	2
70	70	2
10	10	1
20	20	2
98	100	4
81	81	1
112	113	2
112	132	1
116	118	1
20	22	1
31	31	1
45	62	2
45	45	2
143	144	2
30	30	3
135	159	1
86	87	1
10	74	1
96	148	1
134	143	1
46	48	1
43	44	1
103	116	1
82	85	1
104	106	1
24	24	1
185	186	1
192	192	3
120	120	1
4	39	1
117	118	1
102	132	1
6	7	1
47	47	2
19	88	1
76	77	1
38	38	1
102	116	1
160	163	1
177	182	2
75	75	1
20	21	1
102	106	1
165	166	1
141	141	1
17	18	1
49	52	1
41	63	1
177	177	1
109	110	1
189	189	1
43	43	1
122	122	1
39	40	1
55	55	1
