94	95	17
70	70	50
95	95	14
51	51	27
35	36	5
81	81	26
68	68	33
93	93	33
77	78	9
49	49	31
43	44	24
103	104	8
39	40	19
23	23	33
24	95	7
32	32	17
72	72	28
71	71	46
79	83	5
45	45	24
94	94	22
57	58	19
20	21	13
36	38	3
73	73	33
27	27	36
80	81	11
62	62	25
98	98	49
55	55	19
53	53	28
37	38	19
95	96	6
90	90	28
75	75	27
104	104	15
99	99	54
69	69	31
70	102	3
69	70	4
44	45	11
84	84	35
60	60	28
74	75	19
82	82	37
64	64	23
103	103	41
85	85	54
20	20	20
100	103	1
52	53	6
102	102	21
113	113	22
25	25	23
101	101	25
58	108	6
110	111	3
44	44	39
83	83	42
59	59	43
111	113	1
67	97	2
47	47	42
79	79	21
98	99	18
76	76	36
38	38	21
66	66	42
75	101	6
64	65	10
67	72	6
24	42	1
70	71	5
41	50	2
113	114	8
71	72	12
34	37	8
97	97	30
86	106	2
41	48	4
112	112	24
109	109	10
67	68	8
111	111	41
92	92	46
32	33	13
27	28	10
30	52	2
39	39	21
104	106	6
21	21	26
55	93	6
88	88	24
46	46	35
73	100	2
70	100	4
88	91	3
74	74	38
31	31	23
31	49	3
31	32	8
34	34	13
106	107	8
100	100	29
102	103	5
41	42	12
102	106	1
64	105	1
103	107	11
77	92	1
106	106	17
46	48	2
36	41	5
78	78	19
21	22	7
80	80	41
48	49	11
77	77	30
55	109	3
83	85	9
100	102	3
22	22	30
104	105	19
89	89	23
54	54	35
105	105	16
82	85	1
73	75	2
24	24	31
51	60	1
65	102	1
96	96	21
53	112	3
41	41	16
54	60	2
61	61	33
52	52	23
19	19	5
78	104	1
107	107	20
37	37	23
30	40	2
58	58	38
57	60	3
97	98	10
58	59	17
21	73	2
86	90	4
101	113	6
48	48	26
110	110	21
38	39	6
112	113	5
69	97	1
91	110	1
86	86	10
55	57	5
36	40	3
65	65	19
72	73	7
109	110	6
26	26	23
102	109	5
78	79	8
93	94	8
67	67	44
79	80	7
34	96	2
39	74	2
42	42	25
33	113	1
62	74	4
50	51	9
57	57	14
31	40	11
87	92	3
96	113	1
62	105	2
70	74	1
28	28	34
41	46	3
87	90	4
107	108	11
23	24	9
40	77	5
48	76	4
54	55	7
65	66	10
25	26	6
71	73	2
34	35	13
81	90	2
49	50	3
66	67	5
101	102	6
60	61	8
82	84	1
73	74	11
87	87	16
81	82	21
59	61	6
36	95	2
84	85	7
79	82	3
28	44	2
36	36	12
40	41	18
39	67	7
30	31	3
63	66	11
47	54	4
22	23	7
35	35	16
53	95	1
25	95	2
60	74	3
33	33	31
100	101	21
99	100	10
61	62	10
68	69	9
63	63	26
29	29	18
45	82	2
100	107	4
54	100	2
87	106	1
91	91	9
114	114	19
48	64	4
38	78	2
84	99	3
45	80	2
108	109	6
42	43	6
25	27	2
78	98	2
21	60	2
47	48	5
58	91	3
108	108	19
30	30	16
55	56	10
75	76	11
85	86	18
42	44	11
68	97	3
40	40	15
51	95	1
101	103	11
53	97	1
30	32	4
23	43	1
55	75	3
41	43	4
108	110	4
36	37	6
76	78	2
96	98	4
66	106	5
60	73	1
24	25	3
42	46	1
23	63	2
95	111	2
75	77	2
59	60	9
53	54	9
76	79	3
83	84	4
91	102	1
37	86	2
84	88	1
65	105	1
20	94	2
35	95	3
64	66	3
68	70	6
84	87	4
80	82	1
87	88	2
43	45	7
90	91	1
21	80	3
40	66	3
82	83	7
61	66	1
43	43	19
89	90	9
32	83	1
56	56	19
53	55	1
87	89	4
41	76	4
30	41	4
80	88	5
107	109	2
51	52	13
58	60	3
56	57	7
19	20	4
68	89	1
46	47	3
74	100	3
38	48	3
29	31	2
96	97	5
50	95	1
38	92	2
54	101	1
28	77	4
63	64	7
23	75	3
78	101	1
45	74	2
21	72	1
76	99	3
82	99	1
101	112	4
21	61	3
115	115	3
75	93	6
96	99	1
71	85	3
59	100	9
53	58	1
47	53	3
35	37	2
50	50	6
38	85	7
77	106	1
19	79	1
91	92	7
32	36	1
50	52	4
53	60	2
82	100	5
35	38	2
114	115	2
88	89	3
62	72	1
91	103	4
75	108	2
54	74	4
32	84	4
28	29	4
101	110	6
50	113	2
52	54	3
82	92	1
79	85	2
39	41	1
78	103	4
33	34	9
67	69	4
69	83	1
81	85	1
52	91	3
32	35	1
26	27	7
62	75	2
103	113	3
53	59	1
70	75	3
105	106	5
66	68	3
94	96	4
27	76	2
89	91	2
104	109	1
49	52	2
48	63	2
22	108	1
82	103	1
88	110	1
19	94	2
56	58	2
99	101	1
81	87	6
64	74	3
82	86	2
103	105	1
85	99	2
78	102	3
23	54	1
34	40	2
66	74	2
72	75	1
38	84	2
90	106	2
111	112	2
21	74	3
29	34	1
100	114	1
93	109	3
49	63	2
39	92	3
48	92	2
54	95	4
31	36	3
97	112	3
102	110	2
33	35	5
96	111	1
61	71	1
101	111	1
20	29	1
104	107	1
19	22	1
92	93	4
111	114	4
61	109	1
72	74	4
43	93	1
80	86	1
21	94	1
61	72	1
53	57	1
29	30	2
45	79	1
57	80	1
35	39	1
42	48	1
35	40	1
39	45	2
82	90	1
101	109	1
47	92	3
64	78	1
30	36	1
61	81	3
55	61	2
81	86	5
79	86	2
37	88	2
79	91	1
41	95	1
63	73	2
91	108	1
32	34	1
62	64	1
91	101	1
63	65	2
41	53	1
56	59	2
39	77	2
31	79	1
96	114	1
86	87	1
79	94	1
83	93	1
94	100	4
31	84	1
41	67	1
94	97	1
91	93	1
80	98	1
30	49	1
65	106	1
65	68	2
60	110	1
65	74	1
76	77	2
92	111	1
43	95	1
80	84	1
48	62	2
29	45	1
24	94	1
39	84	1
19	107	1
23	44	1
65	67	1
104	110	1
33	94	1
46	52	1
62	103	1
57	59	2
105	107	1
47	61	1
32	39	1
24	26	1
100	111	1
69	71	1
37	39	1
82	94	1
40	51	1
69	90	1
49	94	1
45	46	1
24	72	1
32	73	1
