38	38	19
48	56	4
121	121	21
128	129	8
7	7	10
70	76	2
128	128	16
27	41	4
77	77	9
34	35	8
86	86	5
4	5	3
17	17	9
100	101	3
37	37	5
19	19	8
12	12	2
125	125	14
101	106	2
106	109	2
134	134	3
10	10	7
56	56	12
78	103	8
84	84	16
100	100	7
23	23	5
109	127	2
131	132	6
44	45	3
123	123	9
78	78	4
110	111	5
29	29	6
76	78	2
9	10	8
28	39	2
117	125	2
2	2	5
66	66	3
133	133	10
25	51	6
119	122	2
118	118	9
83	83	7
3	3	5
122	123	5
102	102	13
82	109	4
108	108	15
28	43	9
128	132	4
74	74	7
55	57	3
119	119	10
14	15	7
67	67	7
115	115	18
80	80	11
41	41	6
112	115	2
111	111	5
21	21	11
73	73	5
82	82	7
31	32	2
13	14	1
93	93	4
3	21	1
114	134	6
62	62	6
131	134	2
31	31	8
99	122	4
8	10	5
124	124	15
18	18	8
97	112	2
57	57	8
37	39	2
60	77	1
0	3	4
75	75	4
132	133	4
117	118	5
33	35	8
82	84	1
78	79	6
112	113	12
76	76	8
20	24	2
9	32	1
82	83	1
93	117	2
107	108	3
119	121	2
97	97	2
11	31	2
20	21	1
85	85	2
122	122	7
127	132	1
45	45	3
34	34	8
64	64	5
85	107	1
69	99	4
127	127	17
10	11	7
68	68	6
118	131	4
116	116	8
56	57	3
63	92	4
58	76	1
131	131	11
112	112	8
20	20	3
85	86	4
103	121	3
33	36	8
6	22	3
4	23	1
92	107	2
71	128	1
102	119	4
43	49	6
23	37	1
30	31	1
84	86	3
30	36	1
7	17	5
88	101	2
73	76	1
106	107	4
116	134	4
130	130	2
60	70	3
48	48	7
115	116	6
30	30	7
92	92	10
94	94	4
44	132	3
74	80	4
58	61	4
113	127	6
73	74	2
125	127	2
92	118	1
132	132	16
62	80	1
33	33	9
87	87	11
47	47	5
93	125	1
38	40	2
44	44	4
95	97	2
5	6	1
113	113	12
86	87	2
107	118	2
59	75	5
9	9	5
92	111	1
110	112	4
116	127	3
48	51	6
114	114	9
59	65	3
15	15	6
70	70	7
101	107	5
35	36	3
90	123	2
104	106	3
95	95	5
14	27	6
43	43	6
77	82	4
109	109	6
87	125	1
67	86	2
109	129	3
58	58	4
27	32	1
77	104	5
58	59	3
6	7	7
94	102	3
102	120	3
16	16	4
66	84	1
27	27	1
110	116	5
107	123	3
99	100	3
99	115	3
70	71	2
70	72	2
65	67	4
107	107	11
96	96	3
101	109	1
101	101	4
39	132	4
96	133	4
133	134	5
14	14	2
42	42	5
40	55	1
103	104	3
44	123	5
45	123	1
60	60	5
65	65	10
40	40	2
105	105	2
8	30	2
19	24	3
122	127	2
22	26	4
69	85	1
101	102	2
69	69	6
43	101	1
17	38	3
103	103	5
59	77	3
94	95	3
59	59	11
7	14	4
105	118	1
127	129	2
112	129	2
41	126	2
3	18	1
46	46	6
95	96	1
96	130	3
41	123	2
3	15	1
4	16	1
32	33	2
6	6	7
28	45	5
2	29	3
89	90	1
1	1	3
103	122	4
99	120	1
119	120	1
126	126	4
64	102	1
113	116	1
40	44	2
7	11	1
26	41	1
49	50	1
22	22	3
109	117	1
90	90	2
106	108	1
39	40	4
44	118	2
35	35	2
122	125	4
128	130	1
110	126	1
111	122	4
79	79	7
15	16	2
37	38	4
110	110	3
0	121	3
3	19	1
74	77	2
98	99	5
74	85	3
12	13	4
112	127	1
81	81	7
75	80	1
97	98	2
58	66	2
3	20	1
36	56	1
2	6	1
106	122	1
82	104	1
104	104	4
112	114	1
116	129	3
1	5	2
45	102	1
36	36	3
120	121	2
90	113	3
8	8	5
26	83	2
24	39	3
12	14	1
114	115	3
24	25	7
129	129	6
125	126	4
41	102	1
108	130	1
28	28	5
14	34	2
41	56	1
93	99	5
117	124	1
40	41	2
20	33	2
132	134	3
119	126	3
56	80	2
126	131	2
72	103	6
61	61	2
42	46	2
110	119	1
82	85	3
23	25	5
50	50	1
24	24	1
113	114	3
106	134	1
90	91	2
32	40	1
104	108	6
30	35	1
55	55	2
4	7	2
114	116	1
79	80	3
88	88	4
56	74	2
64	66	2
2	16	1
115	117	3
41	43	2
33	34	2
72	72	4
6	17	1
80	85	2
85	98	4
11	11	2
25	40	1
126	130	1
49	49	3
117	117	5
26	26	5
78	81	1
22	24	2
75	85	1
41	42	2
59	60	2
91	92	3
119	134	2
91	91	1
83	106	3
77	118	1
47	61	1
63	91	1
42	57	2
29	36	1
63	87	2
82	107	2
35	46	2
74	100	1
21	22	3
54	54	1
16	31	1
72	73	2
128	134	5
10	36	3
101	114	1
85	102	2
54	73	1
92	130	2
123	124	1
66	118	3
11	22	1
44	126	2
109	130	3
5	5	2
76	102	2
111	112	3
92	119	1
0	13	1
130	133	1
93	100	1
120	125	1
120	120	1
110	124	1
71	71	2
93	118	2
74	75	2
13	13	1
124	125	2
97	119	3
71	94	1
7	26	1
98	98	2
86	113	1
94	115	2
45	46	1
100	124	1
87	93	2
93	130	1
27	28	1
73	78	1
105	112	1
63	63	1
123	128	1
4	12	1
84	103	2
110	114	1
0	0	1
25	38	1
49	55	1
91	130	1
30	34	1
124	132	1
57	58	1
26	27	1
108	125	1
1	2	1
123	129	1
51	55	1
82	95	1
12	17	1
4	22	1
6	20	1
67	69	1
39	41	1
99	105	1
124	126	1
2	5	1
77	81	1
27	44	1
0	1	1
79	88	1
104	130	1
106	106	1
