139	154	3
104	104	9
58	82	5
29	29	6
181	181	7
118	118	2
170	172	3
42	42	6
103	103	3
162	164	3
194	194	5
48	48	15
30	30	8
76	76	4
165	173	1
77	78	8
64	64	5
49	49	6
31	31	18
86	86	2
53	53	11
131	131	3
10	10	8
80	80	10
51	51	9
183	183	8
134	134	9
38	39	4
157	157	9
67	67	4
1	1	6
81	83	1
15	15	2
173	173	7
160	160	3
142	142	5
185	185	3
66	66	1
155	155	7
114	122	3
123	134	4
43	43	9
182	183	4
55	55	3
140	140	5
68	68	5
148	154	1
57	57	8
138	139	3
6	6	2
86	133	2
193	193	6
112	112	9
124	124	3
9	9	14
123	124	2
168	168	3
172	172	2
163	163	3
67	68	3
14	42	1
170	170	3
160	163	4
20	20	1
149	149	9
22	63	4
106	106	3
74	75	1
115	115	4
169	169	7
40	40	5
45	45	15
115	120	2
2	2	6
115	121	5
62	65	2
26	26	2
87	90	2
196	196	5
114	114	5
88	155	5
192	194	2
141	143	4
116	116	3
13	13	5
96	135	2
126	126	7
95	100	2
47	47	7
118	119	2
89	89	5
27	27	3
94	100	2
129	129	10
38	44	2
103	104	4
184	184	2
18	21	2
161	161	3
47	48	1
158	158	3
121	122	3
46	46	5
57	69	3
83	87	3
171	183	2
103	105	1
49	50	3
141	141	2
187	189	4
37	39	1
36	37	1
38	38	8
83	83	3
76	187	2
58	108	2
186	187	3
45	46	4
23	23	2
58	192	1
140	143	4
70	71	3
113	113	6
56	56	4
58	58	1
126	127	1
14	14	5
122	123	3
177	178	1
52	52	3
70	70	4
156	156	4
109	110	5
121	123	1
76	77	1
94	94	2
164	186	2
177	179	2
72	73	1
25	62	2
117	143	1
54	54	3
24	24	4
145	145	3
142	145	1
186	192	7
28	29	4
135	135	2
19	20	11
128	128	8
96	96	3
54	56	2
122	122	4
139	139	1
19	19	6
144	166	3
101	102	3
93	95	2
35	35	3
26	37	3
171	172	6
47	55	2
0	4	1
127	127	3
37	37	9
17	17	3
39	39	3
171	171	2
150	150	7
32	32	8
108	128	2
35	42	1
179	184	1
162	179	3
147	152	2
136	136	5
147	153	2
3	26	2
182	192	3
84	84	1
130	131	7
4	4	4
192	193	5
84	86	1
117	117	4
147	151	2
3	3	2
108	108	2
15	16	4
192	192	6
57	58	3
86	87	4
16	16	5
109	109	3
135	136	4
188	189	1
73	75	1
144	145	3
155	156	3
149	159	2
64	66	2
41	42	2
0	23	2
189	189	4
189	192	1
58	60	3
18	192	1
26	36	1
151	153	1
8	42	1
11	43	2
34	35	1
148	149	8
58	66	2
159	159	4
33	33	1
50	50	6
190	190	2
179	180	2
12	53	1
33	34	1
75	80	2
143	172	2
152	154	3
79	79	1
184	195	6
190	191	5
147	147	2
107	107	3
12	196	3
12	12	4
62	62	2
75	106	2
60	61	2
12	43	1
187	187	2
51	52	2
87	88	2
149	150	2
10	183	2
123	123	1
69	185	2
152	152	2
152	153	2
87	87	3
93	97	2
153	188	1
151	157	1
76	133	3
126	169	1
186	186	1
67	69	1
100	100	1
7	7	5
148	151	3
151	151	2
32	33	2
134	135	3
124	125	3
114	119	5
119	119	3
182	182	3
180	180	1
125	127	2
160	162	1
82	82	1
89	137	1
141	142	2
141	194	2
142	185	2
112	194	2
110	111	1
167	167	2
165	166	4
180	189	1
78	78	1
48	49	1
44	44	2
98	98	1
38	41	1
95	95	1
153	153	1
157	159	1
59	59	1
180	181	1
71	75	2
120	120	1
5	5	1
9	185	2
72	168	1
167	172	1
145	146	3
96	123	1
174	184	2
151	186	1
188	188	1
147	149	1
153	187	1
119	137	1
11	185	1
21	21	1
89	90	1
76	89	1
159	164	1
60	60	1
105	105	2
97	100	2
14	15	1
114	116	1
88	88	1
25	25	1
44	45	1
63	63	1
18	18	1
159	176	3
149	183	1
69	69	1
7	8	1
114	157	1
88	89	1
132	133	1
111	111	1
174	178	1
57	108	1
178	180	1
63	65	1
178	178	1
128	129	1
63	64	1
71	71	1
94	95	1
39	41	1
23	32	1
9	10	1
143	147	1
127	195	1
6	7	1
184	186	3
