58	58	12
111	111	5
17	205	4
43	43	8
112	112	10
40	40	8
237	237	8
50	114	9
167	168	5
66	107	4
162	162	2
214	214	2
78	78	9
184	184	9
60	61	1
54	55	6
154	154	7
62	62	7
31	33	2
194	195	2
202	202	8
243	243	1
181	181	2
153	157	2
153	155	2
109	109	9
69	70	4
185	185	3
153	153	14
77	77	6
3	4	1
88	90	1
95	96	3
95	95	4
41	41	9
57	57	3
223	224	13
46	46	5
83	83	3
50	87	3
39	39	6
243	244	8
38	38	4
25	25	7
49	49	4
113	113	5
28	36	3
103	108	3
82	84	3
200	200	4
101	101	15
34	35	1
225	226	7
219	219	5
226	226	8
7	34	5
2	9	3
175	175	1
65	65	5
221	221	1
33	33	3
178	179	11
168	169	3
193	193	8
51	115	2
227	227	4
45	45	10
19	19	7
29	32	2
156	157	2
240	240	3
91	91	5
222	222	3
87	88	5
200	201	4
16	16	3
167	167	1
111	112	2
192	193	2
176	239	3
67	109	4
6	6	3
205	205	5
107	111	1
203	203	10
236	236	5
29	31	2
98	98	3
81	81	4
72	110	3
180	180	7
53	53	5
194	217	3
72	72	2
179	179	5
15	37	1
171	172	2
45	46	2
44	112	3
192	216	1
115	115	3
68	69	1
49	50	1
2	2	3
85	85	3
37	37	3
66	104	6
189	189	2
88	88	6
117	117	3
233	233	1
36	36	2
70	70	2
20	20	6
97	97	6
242	243	2
31	31	3
202	242	4
109	112	3
69	69	6
6	38	5
116	116	6
206	211	2
152	166	4
216	216	6
59	59	1
215	215	2
21	22	1
28	28	6
228	245	1
232	233	1
22	23	2
47	48	1
22	22	3
160	161	1
179	180	2
94	94	4
40	95	5
1	1	3
93	93	2
196	196	5
187	192	1
159	159	3
150	150	1
160	174	5
2	3	1
6	7	2
225	225	3
23	23	4
104	111	1
160	160	4
18	22	3
64	64	5
183	183	3
61	63	1
209	209	3
190	211	4
99	99	7
65	96	2
168	170	1
82	82	4
186	187	2
44	44	3
223	223	3
197	200	2
218	219	2
185	186	2
201	201	12
75	76	3
227	229	1
238	238	2
176	181	2
90	90	2
201	203	2
75	75	5
5	5	2
36	240	2
81	82	2
23	24	2
153	163	6
212	213	2
114	114	4
55	55	1
163	164	3
173	173	1
61	61	3
23	242	1
236	239	1
10	10	10
105	105	5
188	189	7
16	28	3
35	35	4
200	214	2
208	208	1
80	81	1
5	7	1
47	47	2
211	211	3
18	19	2
232	235	2
157	157	6
11	11	7
18	18	2
235	235	3
183	226	2
110	110	9
180	236	3
62	101	1
182	184	2
16	27	2
245	245	5
152	152	1
158	158	2
241	241	1
89	89	6
197	231	2
55	58	1
55	57	3
196	231	2
15	29	1
176	176	1
204	204	2
105	108	2
59	60	1
50	88	1
220	220	3
79	84	3
85	112	1
10	11	2
230	231	2
92	93	1
51	52	2
24	24	3
195	195	1
229	229	4
198	198	1
242	242	2
203	204	1
219	230	2
87	87	1
74	74	2
199	199	2
30	34	2
157	158	1
51	116	1
67	67	1
217	217	3
182	183	2
71	109	4
80	80	4
57	58	2
237	238	1
178	178	1
93	95	1
153	164	2
41	43	2
18	205	1
65	89	1
51	95	2
118	118	3
91	97	1
219	224	1
213	213	1
8	12	2
54	95	1
45	145	1
145	145	1
86	86	1
44	113	3
92	92	2
199	202	2
8	8	2
228	228	2
208	225	1
92	113	1
203	214	1
75	77	1
149	149	1
79	80	1
18	244	2
190	191	2
156	156	1
106	106	2
231	234	1
67	68	1
218	218	1
98	99	1
178	181	1
64	101	1
119	119	1
212	226	4
83	84	2
151	151	3
212	212	3
244	244	2
179	205	1
63	100	1
109	110	1
205	244	1
228	229	2
16	17	1
197	197	1
174	174	1
217	218	1
18	242	1
113	114	1
57	90	2
52	52	1
17	17	1
51	51	1
14	30	1
179	181	1
120	120	1
166	166	1
194	194	1
22	205	1
64	97	1
180	203	1
3	3	1
152	164	1
12	33	1
186	188	1
14	14	1
183	185	1
27	27	1
1	8	2
67	69	1
158	160	1
