117	117	5
14	16	1
2	2	8
78	78	15
16	20	2
131	132	4
34	34	5
18	19	6
113	113	6
77	78	2
47	47	8
43	43	6
121	121	6
75	75	10
65	65	8
8	8	12
0	1	3
84	84	7
109	109	4
124	124	15
61	61	9
48	49	2
68	68	6
116	123	3
130	130	12
30	30	8
43	45	2
123	123	6
110	110	13
76	77	4
108	110	5
102	102	7
91	91	3
6	10	2
93	93	2
82	82	5
24	29	1
64	64	10
46	123	2
128	128	2
132	133	5
14	14	5
92	92	4
56	56	4
16	27	2
8	20	3
59	59	10
13	14	4
23	24	3
73	73	6
18	20	2
9	28	2
15	15	4
122	123	1
95	95	2
120	121	2
76	76	7
15	28	3
120	120	3
20	22	2
32	44	4
88	88	2
17	17	8
27	28	4
65	108	1
90	90	1
71	71	4
107	108	1
115	115	1
38	84	1
119	119	10
81	81	10
79	79	3
125	126	4
118	119	1
116	116	3
82	83	2
41	49	5
16	16	6
110	112	2
26	26	3
20	23	3
81	101	2
19	20	11
23	23	7
132	132	5
101	101	1
76	119	7
67	67	5
99	99	1
118	118	6
16	17	6
72	72	5
86	87	1
31	31	6
93	133	3
122	124	3
111	115	1
27	27	2
51	56	2
86	86	3
29	29	2
39	41	1
104	104	2
38	39	5
6	6	5
111	111	1
127	127	6
18	18	3
63	63	7
56	87	1
33	33	3
12	12	2
41	56	3
60	60	3
74	74	5
36	37	1
26	29	1
14	15	3
71	72	2
16	26	1
121	124	2
47	48	3
45	45	1
106	125	1
56	57	1
7	8	2
64	65	1
39	39	2
17	27	1
111	116	1
40	40	1
78	118	1
17	21	1
55	55	2
109	123	2
105	106	3
46	46	4
122	122	1
19	19	3
41	43	1
123	129	2
44	44	3
131	131	2
22	27	2
11	19	1
30	32	2
29	30	2
20	32	2
30	56	2
66	66	3
100	101	1
7	35	1
79	86	1
75	76	2
32	32	2
134	134	2
48	48	2
112	112	1
107	107	5
129	129	7
121	122	2
127	128	2
57	57	2
55	56	1
90	91	3
104	109	1
96	96	2
78	82	2
13	13	1
6	35	1
11	11	4
133	134	1
5	44	4
38	38	4
36	36	2
111	112	1
24	24	2
56	82	1
112	121	1
44	45	2
124	125	3
100	102	1
42	48	1
11	12	1
69	70	1
114	115	2
36	38	1
103	126	1
113	114	2
9	9	1
21	21	1
123	126	5
79	96	1
112	113	2
30	57	1
125	125	2
129	130	1
62	63	1
21	27	1
81	102	1
109	122	1
10	10	1
7	7	1
85	101	1
89	89	1
114	114	1
103	103	1
84	108	1
58	58	1
6	27	2
94	94	2
80	80	2
9	20	1
98	98	1
103	107	2
58	59	1
84	85	1
12	13	1
126	126	1
3	3	1
17	19	1
5	5	1
