118	119	6
58	58	11
108	109	5
28	28	12
32	32	7
4	4	11
36	39	5
75	75	1
127	127	6
84	84	5
135	135	13
71	71	7
8	24	3
119	119	9
60	60	20
17	17	7
16	16	24
126	127	5
144	144	3
90	90	17
80	128	2
141	146	2
24	24	13
137	137	13
124	125	10
30	30	14
101	103	3
136	136	21
34	34	11
115	115	12
82	82	10
9	9	9
70	72	2
128	130	3
101	101	17
70	70	16
78	81	2
6	6	9
103	103	8
117	117	10
29	29	13
97	112	2
79	79	4
81	81	7
140	141	7
125	125	11
20	20	13
89	90	7
70	71	6
86	86	9
101	102	2
80	80	13
61	61	14
31	31	12
50	53	3
127	128	6
13	13	11
35	47	1
96	97	16
69	69	14
59	59	18
78	78	6
143	144	10
24	25	2
94	94	10
140	140	11
0	0	9
79	94	2
133	133	21
25	34	1
98	98	13
68	68	12
19	19	3
11	11	12
40	40	9
91	92	4
116	130	3
134	141	1
139	139	11
63	63	16
73	127	2
100	100	3
142	142	5
39	39	25
42	42	10
38	38	23
15	49	4
2	4	4
127	129	4
43	43	7
118	118	11
74	134	3
111	111	12
18	18	7
123	124	4
105	105	19
0	1	4
77	77	12
138	138	8
36	36	22
133	134	6
121	121	13
131	132	3
65	65	14
2	28	4
100	101	10
62	62	16
129	129	22
132	132	18
131	131	6
69	70	6
89	89	10
37	37	18
91	91	13
72	87	2
103	104	3
86	87	3
134	134	14
113	117	1
87	87	18
99	100	7
5	6	1
5	5	10
2	2	17
73	73	15
88	88	9
107	107	19
23	23	5
99	99	8
128	128	11
71	93	5
104	104	13
50	52	2
110	117	1
114	114	6
81	131	1
96	96	15
98	99	16
141	141	12
10	53	1
124	126	1
129	130	3
91	105	7
39	54	4
26	26	21
139	140	3
51	51	9
59	61	7
100	107	1
23	38	2
50	50	3
134	135	2
34	35	8
21	22	4
124	124	19
117	119	3
85	85	9
132	134	1
53	53	10
97	97	12
15	15	8
96	98	5
23	24	4
138	139	6
26	38	5
110	110	17
62	63	4
32	34	2
31	32	6
120	121	6
47	48	1
30	32	1
57	58	3
56	56	5
116	116	13
55	56	2
3	3	12
70	75	2
102	103	2
51	52	8
102	102	22
38	87	2
93	98	1
18	19	6
27	28	4
128	131	6
1	3	2
121	122	6
108	108	10
114	118	1
8	9	6
138	140	4
107	134	2
54	55	5
97	98	6
108	121	4
40	41	5
54	54	10
113	114	4
33	33	8
116	118	3
99	102	1
123	123	5
71	72	6
95	95	18
92	94	2
124	142	1
96	99	3
126	126	8
57	57	12
64	64	7
96	142	2
57	63	1
55	55	6
34	36	4
22	22	9
10	10	6
19	53	3
16	51	2
52	52	9
61	62	4
100	129	4
4	5	5
49	49	10
13	32	4
66	67	4
76	77	2
68	93	1
112	136	3
112	112	9
128	129	5
116	117	5
74	94	3
111	112	6
113	113	12
74	74	7
75	96	2
120	123	3
25	25	11
29	31	4
12	12	3
143	143	13
115	116	6
130	131	2
24	35	2
16	17	3
1	1	12
93	93	10
2	3	9
64	65	4
125	132	2
68	94	2
33	34	8
139	141	1
142	144	2
123	131	1
27	27	18
76	83	3
83	83	9
52	54	2
59	60	4
88	89	7
136	137	8
106	106	14
83	84	4
60	61	9
20	21	2
93	94	6
122	122	9
120	120	4
72	73	2
66	66	4
15	16	3
12	14	3
87	88	1
80	130	5
8	8	5
119	122	2
109	109	5
94	95	3
120	124	1
74	95	2
117	120	1
65	66	1
105	106	5
92	92	4
99	121	1
20	22	4
48	54	2
36	37	6
25	26	2
35	35	8
145	145	3
68	69	3
35	36	9
66	95	5
88	121	2
74	100	3
108	115	2
57	59	1
67	67	6
73	95	2
21	21	14
98	105	2
119	120	1
6	7	2
78	105	1
48	49	3
104	106	2
125	126	7
82	83	4
77	79	2
114	116	2
22	23	3
37	86	2
3	5	4
63	65	2
106	107	3
49	50	6
88	90	6
146	146	4
130	130	19
76	97	1
125	131	1
137	138	2
99	129	1
13	68	1
13	14	2
110	111	3
116	141	1
78	97	2
97	142	1
72	72	6
77	82	1
106	134	3
114	117	1
17	56	1
63	91	5
72	90	4
84	85	15
112	114	2
69	72	1
58	61	4
135	136	3
136	138	1
134	140	1
28	29	2
68	70	1
126	131	3
69	94	1
60	90	3
16	49	1
96	144	1
42	85	1
36	86	1
38	68	1
109	113	2
117	118	3
9	10	3
40	42	1
83	95	1
10	23	3
65	94	1
141	142	2
104	105	3
91	93	3
24	34	1
9	11	1
67	68	3
123	125	1
110	115	2
76	76	2
32	33	2
106	135	2
73	74	3
135	137	1
107	135	2
84	94	3
38	93	1
85	87	2
53	54	3
48	48	2
9	35	2
36	47	2
74	120	3
14	60	1
52	53	1
67	93	2
83	85	2
77	78	2
132	133	3
62	64	1
72	74	1
81	82	1
96	133	1
130	142	1
14	14	5
37	40	1
143	145	1
65	95	1
107	108	3
65	92	1
40	43	1
97	99	1
30	48	1
123	127	3
14	16	3
26	33	2
85	86	3
142	143	1
98	108	1
113	115	2
114	115	6
25	38	2
41	41	1
110	114	1
80	81	1
76	81	1
47	47	4
56	57	1
80	99	1
3	4	2
93	102	1
75	82	1
76	79	1
140	142	1
63	102	1
69	146	2
15	51	2
12	13	1
128	133	2
105	121	1
37	38	2
95	96	1
99	142	1
100	102	1
90	106	1
8	99	1
66	92	2
116	124	1
116	133	1
10	33	2
9	33	1
133	138	1
6	13	1
109	117	2
1	4	1
93	120	2
90	121	1
76	78	1
29	30	1
107	141	1
15	60	1
55	58	1
74	75	1
57	66	1
90	122	1
134	136	1
134	138	1
19	22	1
27	29	1
67	146	1
129	131	1
6	12	1
131	133	2
49	52	1
71	73	1
0	6	1
50	51	1
37	43	1
107	132	2
79	82	1
93	96	1
14	15	1
26	29	1
9	19	1
12	19	1
