54	55	4
47	51	1
58	58	5
56	61	1
60	60	12
33	34	5
12	12	4
21	21	3
52	54	9
1	6	4
33	41	2
6	6	10
52	55	4
31	31	12
51	59	4
39	41	2
46	47	4
44	44	9
21	22	2
41	47	7
18	18	10
59	59	18
49	49	5
16	24	12
14	20	1
11	15	1
35	36	7
6	7	9
49	51	1
11	11	6
7	7	9
9	11	1
32	39	2
31	32	6
10	20	1
15	15	5
61	62	6
3	5	1
36	47	2
19	21	2
45	51	3
49	52	2
36	42	3
22	22	6
52	53	2
1	3	11
34	34	4
39	39	7
37	38	14
45	45	7
13	19	2
13	13	5
47	47	5
7	11	1
56	58	2
52	52	8
35	38	4
4	9	1
15	22	1
0	1	2
10	11	4
42	48	1
59	60	6
54	62	5
25	25	4
21	25	2
58	59	7
44	49	1
40	41	4
37	39	4
41	41	10
23	24	8
7	8	3
36	43	3
17	17	5
7	22	2
50	55	1
15	19	4
56	60	8
51	55	1
53	56	4
35	45	3
46	48	3
5	6	4
36	38	4
1	1	9
56	62	3
33	44	4
0	9	4
37	44	3
2	12	2
23	23	9
22	23	1
21	24	2
48	48	6
16	16	7
8	8	3
29	32	1
3	3	3
53	53	4
35	41	1
19	19	4
35	35	6
37	37	5
18	23	6
11	19	5
57	61	3
42	49	2
14	14	2
51	51	3
9	38	1
7	17	2
5	5	6
17	18	4
50	56	2
24	24	13
35	43	3
42	45	3
0	0	8
57	57	7
39	40	4
38	46	8
3	46	1
41	42	1
4	6	6
9	9	4
2	6	1
36	36	9
12	40	2
58	61	1
2	3	2
55	57	2
53	54	1
41	45	1
19	20	2
11	14	3
40	40	3
2	4	1
49	62	2
51	57	1
7	10	2
1	4	4
45	48	2
44	52	3
4	10	1
56	57	3
18	24	2
16	21	9
15	20	3
2	17	2
0	2	3
5	17	2
54	59	4
53	55	2
20	20	5
33	35	6
34	36	3
6	8	1
47	49	4
5	9	2
54	56	6
46	46	5
22	29	1
9	13	1
60	61	6
55	60	2
0	3	1
12	23	2
17	23	3
20	21	4
19	22	4
56	56	2
44	54	1
31	35	1
38	47	3
10	19	1
54	54	7
42	44	5
49	56	2
30	30	3
26	26	1
43	43	3
10	12	1
48	50	3
3	4	1
32	32	5
19	23	1
2	2	3
17	24	1
43	44	1
33	43	3
37	48	2
42	43	6
51	60	4
30	31	1
10	10	2
47	54	2
50	53	3
12	15	1
38	42	2
62	62	1
46	54	1
38	38	9
12	39	3
48	53	2
54	61	3
4	11	2
16	19	1
13	41	2
2	5	2
46	56	1
31	34	2
13	14	2
17	19	2
32	33	2
56	59	3
34	44	1
40	48	1
7	13	1
4	4	1
2	14	1
50	50	1
43	45	1
15	25	1
41	44	2
59	61	1
46	53	1
45	49	5
55	56	2
44	53	1
58	60	1
8	18	1
48	51	1
37	43	1
36	37	1
14	22	2
6	15	5
33	37	1
61	61	2
57	62	3
31	33	1
23	25	1
11	22	1
0	4	2
24	25	1
14	34	1
39	42	1
17	21	1
34	35	1
38	43	1
42	47	1
4	5	2
55	55	1
38	49	1
2	9	1
48	56	1
5	7	1
20	33	1
14	19	2
24	26	1
32	34	1
40	50	1
6	11	1
