72	72	12
33	34	5
43	43	6
46	51	4
68	68	7
90	90	5
102	103	5
66	67	2
24	24	5
37	39	2
104	105	2
70	70	9
78	79	1
112	113	1
76	76	9
82	82	3
110	110	4
32	33	4
87	91	4
55	55	3
74	75	4
85	86	11
53	57	1
19	19	1
104	104	2
66	66	1
108	108	2
61	61	8
83	83	8
73	75	2
21	21	7
34	82	2
29	29	2
68	75	1
46	46	3
33	33	3
103	103	6
79	110	2
28	99	4
51	51	5
91	91	2
80	80	3
60	60	5
36	37	2
107	107	7
107	113	1
73	74	3
67	67	9
86	91	3
97	107	3
95	96	6
63	63	3
41	41	2
26	26	10
37	47	2
113	114	1
54	55	3
27	27	4
86	88	3
98	98	7
52	53	1
75	75	2
33	50	1
88	88	5
100	100	6
58	59	4
54	54	2
105	105	4
110	111	2
79	79	4
23	23	2
57	57	1
92	95	2
33	42	2
65	65	1
104	114	3
44	44	4
53	56	3
37	38	3
86	86	1
78	84	3
69	69	6
93	93	3
105	106	1
59	83	1
39	40	1
89	89	1
39	39	1
62	62	5
35	60	3
113	113	1
42	42	4
77	77	5
96	96	3
32	32	2
97	97	4
65	71	2
90	112	2
108	109	1
74	79	3
109	109	7
35	36	4
78	78	3
56	57	3
24	36	8
76	88	1
70	71	2
71	71	5
93	94	2
34	34	1
44	87	3
84	84	3
23	37	1
34	35	1
83	85	1
43	44	1
107	108	4
67	72	2
95	95	4
68	69	1
46	49	1
66	105	1
64	64	2
87	89	2
52	52	1
52	87	1
35	35	1
58	58	2
22	23	1
21	48	1
82	83	3
30	30	10
57	58	2
31	31	4
84	85	1
74	93	2
25	26	2
38	38	3
94	94	1
111	111	5
48	48	4
87	87	1
85	85	4
71	72	3
74	74	2
30	46	1
56	56	2
92	92	1
22	22	5
19	23	1
45	45	5
40	40	2
101	101	2
44	45	1
73	73	2
100	102	1
41	44	2
106	106	1
57	62	2
32	42	2
51	63	1
47	47	1
37	37	4
81	81	2
30	50	1
38	39	1
53	60	2
59	59	2
61	62	1
90	91	2
35	38	1
67	68	1
51	66	1
49	50	1
20	49	1
66	68	1
61	64	1
35	37	1
67	71	1
98	99	1
96	108	1
27	29	1
22	47	1
53	55	1
