7	12	1
96	97	3
68	68	10
116	116	13
118	118	2
36	36	6
112	114	20
4	4	5
58	59	5
131	131	8
13	16	4
23	23	6
14	14	9
57	58	3
9	9	2
20	20	4
113	115	2
100	101	1
73	73	4
66	66	6
80	82	1
119	119	7
69	69	6
108	116	4
91	91	12
65	65	8
45	46	6
70	70	8
1	1	3
104	104	8
84	84	2
90	91	6
37	37	5
6	6	5
29	30	6
81	81	3
126	126	6
69	70	5
108	111	3
13	39	2
122	122	3
85	85	9
126	127	3
60	64	4
107	107	6
111	111	10
12	12	9
76	76	3
103	105	1
18	91	3
79	79	4
20	130	2
34	74	4
104	105	13
99	99	4
86	86	4
38	38	5
60	60	3
58	60	1
62	62	6
86	129	9
74	74	5
92	133	1
26	26	3
108	117	8
93	99	1
128	129	2
101	101	10
130	133	4
66	67	2
30	30	5
75	75	15
127	127	9
115	116	2
83	83	14
35	35	12
5	41	5
75	76	8
131	132	4
63	68	4
58	123	3
123	124	10
116	117	6
29	29	1
12	13	3
128	128	6
106	114	8
72	125	2
9	10	2
17	92	5
15	15	6
5	6	2
102	102	6
88	88	3
132	132	7
120	120	1
28	28	6
20	21	8
43	43	7
14	15	2
55	121	4
125	125	10
10	10	3
124	124	6
115	115	10
91	132	1
48	100	2
77	78	5
115	118	4
4	5	2
28	29	1
26	28	2
18	18	2
18	90	1
42	42	6
20	78	5
15	16	3
134	134	13
106	106	10
7	9	4
77	77	5
11	11	16
92	100	1
78	123	2
89	90	2
127	133	2
46	46	7
47	48	2
55	55	13
13	14	4
80	80	3
113	113	8
27	27	7
25	25	2
97	98	2
47	47	2
7	7	6
57	121	1
33	33	5
78	78	6
109	109	2
123	123	6
44	74	1
7	36	4
40	41	2
38	39	4
117	117	5
92	92	8
110	110	4
100	100	2
32	32	1
80	81	4
125	126	2
20	131	5
22	22	5
39	40	5
133	133	5
7	34	2
8	11	4
9	33	2
6	36	3
17	17	3
96	96	6
23	25	3
32	33	7
84	85	2
40	40	3
17	18	2
59	59	3
122	129	3
90	90	3
61	61	3
94	99	1
61	68	1
18	93	1
41	43	2
103	103	5
130	130	3
63	63	1
115	117	5
21	21	7
107	117	2
111	114	3
105	107	3
31	31	3
15	31	1
120	121	1
78	81	3
87	88	1
17	22	1
57	126	3
7	42	2
44	44	2
66	73	2
18	19	3
15	25	1
2	2	6
82	82	8
56	126	2
50	50	1
106	115	2
15	17	2
24	24	2
98	98	4
7	40	1
5	42	2
19	132	3
95	130	2
125	133	1
94	95	4
87	87	1
48	49	1
13	13	3
93	94	2
67	67	4
56	133	1
8	8	9
64	64	3
57	114	2
40	42	2
101	102	3
126	134	2
56	127	1
55	56	1
93	93	2
57	120	2
49	101	1
41	42	2
7	35	4
56	109	2
23	24	2
72	72	3
99	100	1
105	105	1
45	45	5
6	41	2
110	111	3
83	84	7
122	126	2
121	121	3
89	124	2
111	116	1
18	80	1
6	14	1
51	97	2
95	96	1
96	98	1
85	86	3
40	43	5
2	45	3
20	22	2
83	88	1
57	108	1
109	111	1
28	30	1
108	108	3
41	41	1
5	5	2
3	101	1
124	125	1
14	39	2
72	73	1
126	129	1
36	38	2
37	38	1
20	80	2
51	51	1
34	35	1
112	112	2
3	46	1
46	47	1
12	33	1
34	44	1
92	120	1
48	99	1
19	131	1
107	116	1
114	114	1
22	24	1
62	63	1
