146	147	2
149	149	9
42	43	6
45	45	8
212	213	12
11	11	6
33	34	8
182	182	6
210	211	4
14	14	9
181	181	10
233	240	4
122	136	5
156	159	4
199	200	15
36	36	4
34	36	9
157	172	2
153	176	2
125	125	13
88	88	11
78	78	27
135	135	6
52	53	4
12	32	5
185	185	4
171	171	11
172	172	7
0	32	6
189	189	1
150	150	9
190	191	2
85	86	6
10	128	5
144	144	5
227	228	3
20	20	19
188	188	3
13	13	7
205	205	7
56	57	3
36	54	4
74	74	18
57	58	7
232	233	4
153	153	13
15	15	7
24	24	6
222	223	5
124	124	7
91	107	2
29	31	1
35	37	2
198	198	7
212	212	11
239	239	9
72	72	4
230	230	10
56	76	4
156	200	5
32	32	8
236	236	5
103	104	13
24	208	2
101	101	10
85	98	1
220	220	7
33	33	25
233	233	3
32	37	1
15	16	9
18	18	24
48	48	4
203	209	3
139	139	4
30	30	8
9	10	8
157	157	4
19	165	2
176	176	8
217	239	4
40	40	16
126	126	10
64	64	13
3	3	11
12	13	4
21	21	6
128	128	9
213	213	13
70	70	14
131	131	8
27	27	20
230	231	5
101	102	2
11	30	5
129	129	6
190	190	7
196	196	3
165	191	1
144	175	4
218	218	14
180	204	1
224	225	8
195	195	3
178	178	14
80	80	8
229	230	5
26	26	22
106	113	2
22	23	9
173	173	2
138	138	6
192	193	4
166	166	6
219	219	6
67	68	5
147	147	3
235	237	4
6	6	12
201	201	3
224	226	3
156	157	4
71	71	8
204	205	1
238	238	4
234	234	3
65	65	9
97	99	1
174	174	6
100	100	6
242	242	5
224	224	19
204	206	2
86	86	10
111	166	4
98	98	13
63	63	7
69	99	5
41	41	5
5	6	10
99	99	8
221	221	19
139	140	4
220	221	6
229	229	10
215	215	4
105	134	4
4	5	11
61	61	15
164	165	8
167	189	1
66	66	17
23	23	8
0	8	3
169	169	7
57	82	1
143	143	6
11	15	1
123	126	1
2	2	6
2	22	1
174	175	10
152	152	7
65	84	3
112	113	2
233	234	7
79	79	4
61	62	7
54	54	7
113	120	4
142	142	8
207	207	9
161	162	5
227	227	10
198	200	1
204	204	11
128	149	1
154	155	3
197	197	10
53	54	2
155	156	9
112	112	3
18	19	7
49	53	1
239	241	3
3	6	5
14	17	1
222	222	6
123	124	3
132	132	2
160	160	15
192	192	4
99	104	2
147	148	10
184	184	5
238	239	7
65	79	3
37	37	4
164	164	14
65	67	2
43	43	10
167	167	9
193	193	6
52	56	1
196	197	6
240	240	6
123	123	8
122	122	9
128	135	2
129	132	1
198	202	2
211	211	9
172	203	4
183	183	9
202	202	8
0	0	4
180	181	2
196	198	2
216	217	2
60	60	9
51	51	13
9	25	3
25	26	2
102	147	6
103	103	2
119	121	6
181	182	17
104	104	6
200	200	6
84	84	6
48	49	2
177	177	9
134	134	4
197	198	6
12	34	2
46	48	3
223	223	4
142	143	7
173	178	2
156	156	4
40	41	2
163	163	7
137	137	2
141	141	9
136	136	15
111	111	3
194	194	7
8	8	6
63	73	4
204	207	10
38	38	11
236	237	5
187	187	8
119	119	14
56	56	7
104	199	1
25	25	11
175	175	5
120	121	2
96	120	2
154	156	8
29	29	5
58	60	4
35	35	6
62	63	8
11	29	4
145	145	5
52	52	14
122	165	3
69	69	3
9	9	8
155	209	2
26	134	6
55	55	16
170	170	18
220	225	7
171	172	2
15	76	3
4	8	4
42	42	8
118	118	3
205	208	1
3	184	3
226	226	7
82	82	6
170	171	11
11	62	1
231	231	15
145	146	3
83	84	9
70	101	2
233	235	3
107	107	5
221	222	3
116	242	1
73	73	7
160	161	3
115	115	5
59	59	8
155	158	1
34	34	2
224	227	7
78	79	4
218	219	7
113	113	4
9	32	2
121	121	8
0	2	1
186	189	3
100	101	4
38	39	2
187	190	1
7	7	7
196	222	1
59	60	8
126	129	2
162	162	5
13	14	6
31	31	12
67	67	6
133	133	4
210	210	8
60	61	1
8	31	1
155	195	1
128	148	3
17	18	2
79	80	4
75	76	5
81	82	2
228	228	2
108	119	1
209	209	5
161	161	9
10	174	1
159	159	6
10	10	10
76	76	1
77	77	6
232	232	5
85	85	5
151	151	1
168	168	7
84	85	3
83	83	4
133	134	4
39	42	1
207	238	3
7	8	6
199	199	4
47	47	6
102	103	4
3	7	3
158	158	1
2	4	2
216	216	17
241	241	6
57	57	4
104	138	1
220	222	4
206	207	2
181	183	2
120	120	4
19	21	4
122	123	1
203	204	4
191	192	6
54	55	6
24	36	4
143	146	3
19	41	1
99	147	2
132	137	3
210	218	1
169	201	2
64	80	3
28	28	3
100	105	2
183	200	3
237	237	10
29	30	6
143	162	3
46	46	2
95	95	2
226	227	1
75	75	5
5	5	11
218	237	2
35	161	2
17	17	5
208	208	6
6	7	6
106	106	4
137	139	4
181	184	1
105	123	2
1	3	3
97	98	1
154	154	10
148	148	3
223	224	7
140	140	4
55	61	3
16	17	3
107	108	2
194	195	9
6	8	1
117	117	1
136	139	4
55	136	3
157	162	3
125	126	2
41	80	3
7	199	1
100	102	3
4	4	10
39	39	4
116	118	4
96	96	3
213	231	2
142	205	3
59	80	1
191	191	14
203	208	2
35	205	1
82	84	1
182	183	1
58	58	8
122	126	1
153	192	2
118	119	7
110	110	1
184	188	2
129	133	3
138	139	3
77	78	7
143	147	3
97	97	4
21	22	3
49	50	1
137	138	1
98	99	3
225	226	3
61	73	2
129	130	2
8	30	4
174	178	5
89	89	4
37	202	2
20	206	2
210	223	5
153	160	1
237	238	2
76	184	5
107	109	3
116	116	3
45	46	5
58	116	1
217	217	3
77	79	6
206	206	2
235	235	3
68	68	7
147	175	8
163	164	1
198	199	1
171	179	1
203	203	4
194	217	2
0	1	2
12	30	4
180	180	2
105	105	3
157	166	2
71	73	2
53	53	4
49	49	3
201	225	3
235	238	3
136	137	3
168	169	1
56	79	2
207	208	3
213	216	4
2	8	1
44	45	4
1	21	1
50	50	2
34	35	2
215	225	1
105	126	4
151	192	2
12	31	5
107	110	1
197	201	1
150	151	6
134	135	2
62	62	1
102	104	1
147	149	2
26	62	1
26	27	1
214	215	6
40	54	2
29	33	1
37	38	1
148	152	1
191	193	4
6	21	1
170	217	2
102	165	1
217	218	3
32	41	1
31	71	4
209	210	2
122	147	2
159	162	1
49	64	1
157	159	1
221	224	1
234	235	5
110	127	2
2	3	1
1	2	1
169	171	1
206	208	1
50	158	3
1	1	1
112	166	1
117	118	1
208	209	1
169	170	1
60	79	4
208	210	1
39	40	1
17	34	1
123	133	3
12	33	1
144	146	2
31	32	2
184	185	1
28	72	1
201	202	1
43	64	1
181	197	1
152	160	1
204	217	1
204	208	1
66	76	1
76	78	1
149	150	1
134	136	1
228	229	3
35	204	2
78	184	1
53	84	1
145	154	1
43	44	2
128	134	1
174	179	1
164	191	3
127	128	2
107	117	3
85	97	2
29	32	2
116	120	1
56	58	1
149	152	3
203	211	3
39	85	1
6	18	1
86	98	1
25	37	1
66	67	3
104	107	1
44	44	5
109	130	1
109	109	1
85	187	1
68	69	2
78	80	1
130	130	2
105	106	2
224	230	1
161	165	2
120	136	1
76	187	2
118	120	2
106	117	1
221	229	1
21	35	3
30	31	1
62	74	1
137	180	1
17	20	1
137	207	1
215	224	3
210	215	1
32	34	1
21	23	2
186	187	1
159	161	1
52	158	1
167	168	2
54	56	1
188	190	1
179	180	2
211	212	1
182	222	1
151	152	3
88	108	1
126	168	1
179	207	1
69	70	1
0	31	1
106	115	2
46	50	1
35	36	3
18	74	1
16	16	2
19	19	2
124	129	1
97	136	1
101	105	1
20	39	2
119	133	3
216	220	1
236	238	1
200	212	1
63	64	1
7	9	2
175	176	1
67	69	1
172	197	1
236	240	2
130	133	2
155	197	1
12	12	1
159	193	3
193	194	1
81	84	1
207	218	1
10	164	1
108	109	1
192	196	1
138	219	2
61	164	1
60	65	1
71	98	1
75	79	1
54	175	1
18	20	1
96	128	1
124	125	1
115	134	1
209	211	1
80	81	1
79	182	1
119	120	1
222	225	1
13	30	1
81	81	1
24	38	1
214	216	1
126	145	1
14	29	1
187	188	1
62	139	1
