78	78	11
47	48	7
17	17	12
46	46	6
20	20	19
46	78	8
57	57	9
68	68	7
11	11	8
84	84	4
24	24	6
22	66	2
53	53	9
82	83	3
16	16	6
58	71	1
4	4	5
6	25	1
60	61	5
5	12	3
47	47	18
81	81	18
20	27	2
31	31	6
9	9	17
15	15	6
78	79	1
22	23	3
18	32	2
49	49	13
71	71	11
67	82	4
55	66	3
52	52	6
34	55	5
49	58	4
85	86	3
6	6	8
61	72	2
57	83	3
20	29	1
17	26	3
2	2	11
58	58	3
83	86	4
7	7	6
6	8	1
9	10	5
51	51	12
75	77	1
73	73	12
10	46	3
17	19	2
51	81	2
30	30	9
8	8	8
76	77	3
12	12	9
63	63	10
13	13	8
62	81	4
14	14	6
73	74	1
69	69	4
35	35	1
48	64	1
48	74	2
75	75	4
68	69	1
83	83	13
79	80	2
59	59	5
61	61	6
72	72	4
26	31	2
89	89	3
10	10	1
57	62	2
50	50	5
60	60	2
77	78	2
5	6	2
46	81	5
19	19	14
7	26	2
17	27	5
75	76	3
56	56	3
80	80	9
23	23	5
52	53	7
75	79	3
67	67	11
0	7	1
1	1	2
22	22	5
52	57	4
54	54	3
22	65	1
58	88	1
61	63	4
70	70	8
1	2	1
87	87	8
49	83	1
17	18	2
46	64	7
0	24	3
71	89	2
79	79	3
62	62	2
83	87	4
21	21	4
86	87	3
80	82	3
27	27	13
81	87	4
85	85	3
25	25	9
71	72	2
67	68	4
61	80	1
54	55	4
16	64	1
19	20	3
8	57	1
62	64	2
28	29	3
26	26	4
82	82	4
59	60	1
75	81	1
88	88	2
78	80	3
28	28	6
55	55	4
20	76	6
57	58	4
12	64	2
10	12	4
21	22	2
50	57	4
49	66	1
72	73	4
76	79	4
81	83	1
53	56	1
58	66	4
66	66	1
17	63	1
64	64	9
52	54	2
18	18	2
49	62	2
48	49	1
5	5	3
12	16	2
18	21	2
7	23	1
52	56	1
14	26	2
12	48	1
56	58	1
23	88	1
76	76	2
19	62	1
48	69	1
86	86	3
7	8	1
3	23	1
58	76	2
82	88	1
65	66	1
67	69	2
54	86	1
11	23	2
83	84	3
61	76	1
88	89	2
7	32	2
34	35	1
58	60	3
7	24	1
29	29	1
10	13	1
11	48	2
49	64	1
19	68	3
63	84	1
19	28	1
0	0	2
12	31	2
79	81	1
20	22	2
63	64	2
28	30	3
77	77	3
17	21	2
7	31	3
65	76	1
62	78	1
3	3	1
90	90	1
53	54	3
79	89	1
5	66	1
60	65	1
54	56	1
1	7	1
70	71	1
51	62	2
58	70	1
65	65	1
50	64	1
