104	105	3
244	244	12
198	198	3
39	40	1
6	15	2
116	116	14
239	239	19
84	84	6
152	152	8
9	9	8
26	26	11
166	166	13
180	180	14
38	49	1
212	212	3
209	209	17
90	90	12
241	242	2
94	101	2
205	205	8
163	163	14
111	115	4
151	151	11
72	149	1
158	159	2
208	208	5
38	38	7
8	9	5
67	67	6
171	230	4
169	169	6
183	183	10
53	53	9
17	17	3
225	226	6
218	219	4
214	215	1
65	65	9
217	217	9
85	86	2
65	102	4
237	237	9
224	224	10
168	169	3
69	69	4
187	238	3
88	102	3
206	206	3
86	86	9
62	62	7
70	70	7
165	165	11
217	219	1
35	35	3
167	168	1
70	71	6
94	94	6
81	81	6
9	10	1
203	203	17
92	92	15
203	204	6
162	162	5
188	188	5
181	181	2
21	21	5
241	241	2
84	85	18
50	51	5
166	239	6
37	37	19
55	55	12
214	214	11
206	207	2
216	217	5
111	111	9
238	238	8
173	188	2
19	19	9
30	31	6
62	102	1
41	41	9
187	196	3
231	233	1
18	47	3
191	191	5
77	77	4
210	221	2
174	174	5
59	59	6
19	38	2
225	249	3
184	184	18
200	201	3
247	247	2
150	151	2
81	83	1
120	120	2
76	76	9
193	193	11
227	227	5
57	73	3
4	4	5
73	73	14
164	242	1
176	176	7
247	248	4
35	36	5
227	246	6
80	82	4
40	43	10
99	99	9
102	102	7
210	210	10
226	227	6
197	198	2
109	110	5
208	209	1
64	65	2
108	108	6
235	235	6
156	156	14
166	240	5
40	40	2
6	19	4
189	190	3
20	20	13
236	244	2
39	39	13
219	219	14
6	14	2
158	158	7
175	201	6
216	216	5
53	92	4
12	99	5
215	215	18
41	42	6
14	14	7
160	160	16
213	216	6
15	15	5
221	222	2
222	222	5
24	24	7
236	243	1
87	87	4
25	26	6
60	60	4
172	248	4
167	167	7
178	179	3
166	241	2
172	233	3
11	11	10
50	50	4
14	92	4
197	197	11
4	20	1
58	58	7
14	94	1
30	30	20
43	44	3
157	157	11
221	221	5
60	198	2
199	200	4
18	18	8
227	232	2
66	104	2
229	229	10
12	12	11
226	245	2
182	183	3
238	239	4
36	36	3
89	94	3
248	248	8
22	22	8
228	228	7
51	52	6
182	182	10
98	98	2
187	188	4
15	93	8
246	246	8
57	57	9
118	118	6
165	241	3
150	150	7
51	51	17
93	93	5
4	98	3
101	102	5
85	85	8
227	228	6
155	155	13
187	190	4
75	75	5
72	73	3
23	23	4
78	79	1
110	110	7
5	5	7
119	119	3
3	3	13
61	62	8
109	109	12
236	236	2
234	234	6
79	79	8
153	153	9
166	167	2
177	177	6
79	80	6
64	64	14
202	217	3
171	232	3
15	18	6
114	114	4
231	231	2
168	239	1
61	63	1
42	42	10
230	230	10
172	232	6
171	171	7
245	246	3
45	45	3
95	95	10
60	244	5
223	223	7
162	163	4
56	82	2
198	199	1
2	3	2
169	171	5
88	88	8
211	211	6
39	53	1
168	230	1
32	32	7
60	157	3
220	220	12
14	18	12
192	192	9
235	245	2
172	234	5
196	196	2
202	202	2
245	245	6
80	80	4
112	112	11
105	106	5
28	29	3
232	232	2
69	175	1
230	231	7
117	117	7
167	235	3
116	117	2
37	39	3
172	173	3
183	185	3
207	207	12
80	81	4
163	164	7
68	68	8
210	219	3
111	112	8
77	78	1
71	71	6
240	240	2
218	218	4
76	77	3
28	31	2
103	103	6
29	31	1
147	228	1
10	10	6
225	225	3
187	191	3
62	157	3
52	52	3
44	44	7
168	168	6
216	218	1
29	29	3
157	244	2
78	117	2
178	178	7
62	63	6
226	246	3
89	89	8
235	243	3
219	224	2
193	194	1
63	63	6
86	87	2
249	249	2
28	28	5
7	14	4
101	101	2
175	175	9
165	240	3
172	172	12
14	15	2
57	66	4
185	215	1
51	63	1
51	104	3
173	248	2
94	100	1
174	236	2
209	223	1
118	119	5
69	71	8
43	43	16
165	166	3
164	164	7
173	173	3
189	189	4
187	187	4
154	155	1
212	213	3
102	103	4
170	170	7
100	100	6
2	2	7
68	203	2
72	72	1
1	1	3
192	194	5
204	204	6
31	31	6
48	48	3
48	50	2
54	54	1
89	100	3
233	233	2
55	56	2
211	212	2
190	214	1
176	200	1
61	61	2
194	194	2
191	192	1
184	185	6
38	39	5
96	96	6
106	107	8
51	81	2
99	101	1
167	241	1
54	118	3
97	97	5
49	49	3
146	147	1
185	185	3
66	75	5
174	175	2
243	244	2
219	220	1
33	33	1
69	72	2
180	181	5
61	157	4
150	228	2
24	25	3
48	51	2
55	80	2
20	96	1
65	71	1
185	186	1
113	113	2
176	177	1
17	18	2
74	107	3
52	63	1
155	235	1
34	34	10
175	176	2
88	90	1
23	24	4
6	6	5
157	243	1
57	58	1
56	59	3
170	230	2
210	222	2
223	224	2
15	52	2
73	199	2
105	105	6
8	10	3
115	116	1
59	60	2
224	225	2
91	91	4
75	76	1
84	97	2
7	91	1
83	84	3
89	92	1
160	161	2
92	93	3
174	235	1
15	17	1
65	82	3
215	216	4
37	38	6
100	101	7
110	111	4
242	242	6
47	47	1
66	66	2
70	243	1
145	145	3
194	195	1
72	176	1
50	107	2
56	106	1
177	181	1
65	104	1
234	238	1
157	162	2
157	245	2
173	247	2
192	193	4
88	91	2
236	237	3
96	97	2
31	32	1
164	165	2
54	55	1
226	226	2
58	199	1
55	82	1
227	245	1
202	203	1
69	70	4
44	45	2
77	108	2
190	190	1
8	8	2
231	234	2
200	200	5
16	16	2
226	231	2
175	200	2
86	102	3
85	161	1
60	65	3
71	199	1
213	213	3
83	103	1
7	7	4
67	203	1
158	163	2
82	83	2
159	159	4
246	247	3
211	213	1
174	215	2
62	64	3
94	99	2
228	229	4
64	102	1
81	104	1
210	211	1
174	201	2
190	215	1
232	233	1
198	200	1
109	114	1
199	199	2
64	81	3
175	183	1
83	83	1
95	96	2
66	74	1
220	222	1
21	22	1
80	117	1
70	244	1
57	59	2
27	27	2
67	202	2
50	80	1
232	248	1
88	89	1
218	248	1
59	160	2
56	56	2
69	174	1
154	154	2
181	182	1
189	198	2
178	181	1
151	154	3
4	39	2
6	7	1
155	234	3
155	156	2
79	118	2
230	232	1
65	67	1
112	113	2
244	245	1
195	196	2
174	188	1
75	177	1
90	91	1
40	41	1
177	178	1
26	27	1
187	199	2
201	201	1
206	224	1
59	70	2
113	114	1
52	53	1
190	218	1
0	224	1
112	116	1
186	214	2
119	120	1
22	24	1
46	46	1
207	223	1
8	14	1
51	65	1
106	106	1
89	90	1
242	243	1
225	227	1
71	73	1
147	147	1
48	81	1
170	171	1
99	100	1
7	8	1
27	150	1
105	107	1
245	247	1
18	19	1
