119	120	3
82	82	4
47	47	3
62	62	1
113	119	1
129	129	11
63	63	3
68	68	1
11	11	3
86	87	2
90	90	9
31	31	1
35	35	2
71	73	2
32	34	4
10	12	2
74	74	4
21	21	1
90	92	2
80	80	4
0	0	10
23	23	5
76	76	3
9	11	1
109	109	6
83	83	4
134	134	1
4	4	3
117	118	4
107	107	1
53	56	1
101	101	4
53	53	2
43	43	9
2	4	1
131	131	7
50	83	2
52	106	2
114	117	1
69	69	2
20	20	4
49	83	4
17	19	5
29	30	1
119	119	14
10	10	4
114	115	3
15	15	2
131	132	2
11	50	1
61	61	2
73	73	7
9	10	2
113	113	4
2	2	4
98	98	4
67	67	2
102	102	6
85	85	10
65	65	4
64	64	2
52	52	2
57	81	2
8	34	2
125	127	3
12	12	3
30	30	5
60	60	4
19	19	4
29	29	3
47	48	3
89	90	3
114	116	1
5	28	1
44	44	3
10	11	2
71	71	6
104	104	5
70	70	4
93	95	1
112	112	4
24	24	4
91	91	2
32	33	2
24	25	2
14	14	4
54	117	1
20	21	1
102	103	2
32	32	4
94	94	6
121	121	2
54	75	4
70	73	4
57	62	2
1	87	1
38	73	4
45	45	5
35	76	1
84	84	4
9	9	1
68	69	1
64	117	3
79	80	2
115	115	3
43	84	2
118	118	3
87	90	1
4	27	4
132	132	1
112	113	1
6	6	4
36	36	1
120	120	11
7	7	6
96	96	1
72	72	5
36	72	2
54	112	3
91	95	1
116	117	3
15	30	1
16	29	1
122	122	2
88	96	2
125	125	3
3	3	3
110	111	2
33	34	2
128	129	1
67	69	1
53	80	3
135	135	3
128	132	2
25	25	1
2	3	2
77	78	1
49	56	2
58	60	1
50	109	2
93	93	4
37	38	1
23	24	1
133	133	2
22	22	3
49	53	1
54	55	3
126	126	1
117	117	1
86	86	1
110	127	3
66	66	1
22	27	2
112	118	1
34	34	1
99	99	1
116	123	2
111	123	1
5	27	1
98	101	1
12	13	2
116	116	1
8	9	4
83	108	1
7	19	2
34	55	2
97	97	1
34	116	1
7	9	3
29	34	2
57	57	1
121	122	1
110	126	2
50	50	2
18	21	1
84	85	1
53	84	1
43	105	2
93	94	1
89	89	1
5	16	1
28	29	1
58	58	1
128	133	2
123	123	2
125	128	1
134	135	3
129	130	1
0	134	1
26	26	2
127	127	1
92	92	1
78	79	1
36	37	1
8	64	1
16	16	1
15	16	2
1	2	1
130	132	1
100	101	1
72	73	1
71	72	1
