175	176	2
111	112	1
59	60	4
231	242	2
24	24	8
155	156	3
23	23	9
90	104	1
161	165	1
177	177	4
167	171	4
212	215	3
40	40	10
158	158	1
110	169	4
174	179	3
168	169	5
193	193	4
152	164	4
118	119	1
8	8	12
31	31	5
243	244	7
112	112	7
208	208	6
41	41	5
189	189	2
32	32	9
78	78	6
3	91	7
36	36	7
7	7	6
197	199	7
2	4	3
58	65	4
202	202	3
214	215	2
158	159	5
21	21	1
51	52	3
225	225	3
34	34	2
169	169	7
186	189	2
8	31	2
97	98	3
102	102	2
107	107	4
12	12	1
224	224	7
186	187	2
64	86	1
12	30	3
92	109	1
46	46	8
144	144	6
243	243	9
43	43	6
155	155	9
167	193	3
29	29	4
224	226	1
2	45	1
231	233	2
57	202	3
49	55	1
171	171	4
68	68	11
181	182	5
14	15	1
222	240	2
115	235	2
19	19	5
161	161	1
58	58	3
50	50	1
95	95	4
90	94	3
72	72	4
4	4	7
113	232	1
77	77	4
114	114	9
95	97	4
205	205	6
221	221	5
193	196	3
9	9	6
109	110	5
198	217	2
39	39	3
8	9	4
25	25	8
45	45	12
187	188	3
36	46	2
191	191	1
145	244	2
56	56	8
214	214	2
180	182	1
238	238	2
226	243	1
73	73	3
240	240	5
71	71	3
209	209	6
157	157	7
32	33	1
101	101	2
95	96	1
223	225	1
164	164	5
210	210	3
198	199	4
145	145	2
156	156	7
47	56	1
100	100	8
15	15	4
13	13	5
113	113	3
27	27	3
204	216	1
182	182	1
26	27	6
75	76	1
6	6	10
195	197	2
159	159	5
208	240	4
168	176	1
100	101	2
150	150	6
55	57	2
106	106	6
231	241	1
169	170	2
248	248	5
7	30	2
209	211	1
206	208	2
224	232	4
91	105	7
57	166	2
100	103	5
77	118	4
153	153	5
47	47	5
199	199	5
110	110	4
192	195	1
120	173	2
12	46	2
196	209	1
235	235	6
196	196	7
84	84	3
104	104	1
77	79	1
52	52	3
99	99	5
222	222	4
47	172	3
28	28	9
183	183	6
22	22	9
165	165	2
37	37	2
225	226	4
154	155	2
160	160	7
88	90	1
168	168	1
62	62	3
92	92	3
46	52	4
209	222	3
103	103	5
180	181	1
109	109	3
52	171	1
70	70	3
59	59	3
102	103	2
116	117	2
30	30	1
241	244	6
108	108	3
242	242	6
80	80	2
220	220	6
188	190	7
190	242	3
227	227	3
62	63	3
89	91	1
201	201	2
103	104	1
67	68	3
217	217	4
37	102	2
219	219	8
48	64	3
93	233	3
88	88	4
221	223	2
7	56	1
33	33	5
244	244	1
90	105	7
221	231	3
48	55	2
170	170	5
151	151	4
17	52	1
90	90	1
119	173	4
184	184	1
203	203	6
38	38	1
205	206	3
181	181	3
216	218	3
20	29	6
35	35	2
233	233	4
82	82	5
111	173	1
197	197	1
187	213	1
68	69	3
221	222	1
72	93	3
2	3	2
16	52	2
4	5	1
183	184	1
146	148	1
190	191	2
86	86	1
165	197	2
167	167	3
193	195	2
163	164	1
65	65	2
190	190	2
17	20	2
215	218	3
10	10	3
175	181	1
117	117	4
91	106	3
93	108	1
215	221	2
49	53	2
159	226	3
152	165	1
228	229	6
2	36	1
208	209	1
178	248	2
240	241	2
149	149	2
207	211	2
177	180	4
86	87	6
163	163	5
111	231	2
189	243	1
185	188	2
97	104	7
198	198	1
232	237	2
112	118	2
229	230	3
23	24	2
163	166	5
54	63	3
187	187	5
171	174	2
105	107	1
74	74	3
212	214	2
96	97	1
39	43	1
162	184	2
179	179	2
194	196	2
171	205	2
18	18	3
11	11	2
31	32	2
16	16	4
233	241	1
236	240	1
230	230	3
64	92	4
49	76	5
26	26	1
39	41	1
180	180	2
97	97	4
81	88	4
48	49	3
60	60	3
222	242	2
211	211	2
66	66	3
206	206	4
16	24	1
44	45	2
173	173	7
229	229	2
14	14	2
34	35	3
50	77	1
77	163	1
17	17	1
6	10	1
31	36	2
85	85	2
162	162	3
214	217	4
50	171	2
21	22	2
247	247	1
79	167	2
38	39	2
8	11	1
185	192	1
110	170	2
210	236	1
213	214	1
195	195	1
204	204	2
190	192	2
208	236	2
4	56	1
29	34	2
120	178	2
185	246	2
236	236	2
80	85	2
161	167	1
174	174	3
71	74	2
218	218	3
5	49	2
87	87	1
8	28	1
1	1	3
76	76	3
226	226	6
115	115	3
30	31	3
147	147	2
234	235	1
97	111	2
94	94	2
238	240	3
215	215	2
214	222	1
6	20	1
152	152	2
203	213	2
34	105	1
120	120	2
236	237	1
5	5	1
75	79	1
70	71	1
208	210	1
230	243	1
216	217	2
223	223	1
165	166	1
105	105	1
176	180	1
84	88	1
226	227	1
69	69	2
187	212	1
200	200	2
88	245	2
116	116	3
245	245	2
169	173	1
150	232	1
81	81	2
209	221	1
54	54	1
177	178	2
67	67	2
6	33	1
237	239	2
188	188	2
193	194	1
3	6	1
84	87	1
60	174	2
3	3	2
212	235	1
195	196	1
198	218	1
53	53	1
197	217	1
63	63	1
87	105	1
152	163	2
154	154	2
160	161	1
220	226	2
168	192	1
16	67	1
57	57	1
11	28	2
158	193	1
234	238	1
230	242	1
164	183	1
84	90	1
219	220	1
238	239	2
145	232	1
62	118	1
190	213	1
246	246	1
84	91	1
77	85	1
12	14	1
94	106	1
212	212	1
75	152	1
49	50	3
7	13	1
204	205	1
2	37	1
