98	111	1
20	21	6
45	45	12
5	5	7
49	58	1
78	78	11
15	15	19
47	47	10
45	47	3
145	145	15
24	24	10
124	124	2
33	33	13
77	78	2
98	112	6
75	75	5
87	87	8
9	9	8
22	22	5
109	110	1
29	52	8
116	116	8
113	113	6
111	111	6
140	140	7
0	1	2
71	71	9
153	153	14
17	17	14
55	55	5
95	95	5
82	147	4
44	44	9
127	127	6
122	122	11
131	154	2
25	26	1
1	117	1
15	30	2
86	125	3
109	109	3
148	148	4
8	8	9
70	71	8
133	133	16
106	121	4
112	112	4
45	122	3
23	24	1
8	11	4
14	14	14
155	156	2
12	12	22
24	27	1
139	140	3
66	66	11
114	114	3
40	40	17
65	126	2
100	100	12
123	124	10
108	117	10
28	28	18
39	39	5
33	34	7
100	105	2
116	117	2
123	139	2
103	103	5
31	31	15
143	144	3
31	35	1
154	154	6
115	123	1
51	53	3
89	92	2
47	55	2
64	65	4
136	136	10
78	80	2
137	137	11
48	48	16
14	15	2
63	63	4
34	34	2
2	7	2
65	69	1
8	9	6
49	49	24
38	38	24
134	146	4
8	14	3
0	0	6
106	106	11
82	82	12
49	64	2
37	37	13
37	51	1
14	17	3
118	118	12
21	21	10
98	105	2
92	92	8
69	69	23
123	137	1
85	106	5
73	73	5
25	25	14
98	98	16
51	52	3
122	124	1
13	14	9
38	39	1
114	115	10
90	90	10
1	24	3
93	93	8
108	154	2
47	48	2
27	27	7
108	132	4
21	22	5
88	88	7
112	126	1
3	4	9
1	56	3
49	118	4
129	129	2
158	158	8
1	2	2
107	107	11
85	120	5
130	130	9
134	134	14
86	88	2
89	89	3
15	45	3
56	57	5
98	127	2
19	19	3
115	115	8
108	113	9
153	155	2
30	52	6
125	125	8
123	123	6
150	150	8
6	26	1
72	73	1
126	126	8
38	52	2
109	137	2
65	66	3
106	112	6
123	148	1
11	11	14
100	101	3
129	130	11
151	151	9
56	56	6
110	111	6
132	133	3
32	34	2
49	57	1
85	86	3
155	155	3
101	101	8
84	84	12
16	16	5
54	54	8
88	94	6
22	26	3
110	110	10
80	81	1
143	143	4
79	79	4
72	72	6
57	58	2
93	136	3
77	132	1
29	29	12
39	53	4
15	17	7
91	93	4
25	32	1
146	146	11
133	138	1
46	46	10
149	149	7
104	104	10
157	157	7
81	135	1
131	131	4
1	1	11
7	29	4
108	108	2
28	29	4
2	2	12
132	136	4
97	98	5
110	132	5
7	7	4
48	49	5
67	68	4
145	146	4
36	36	11
23	23	3
24	36	2
157	158	2
29	30	2
17	19	3
120	151	4
138	138	3
154	156	1
92	93	9
63	126	4
3	3	2
30	46	1
121	122	3
120	121	6
18	18	4
139	139	1
41	41	2
97	97	3
52	52	4
76	76	3
21	23	3
55	56	7
87	131	2
147	147	2
93	94	2
82	134	1
93	153	4
64	64	4
94	141	1
32	32	7
153	158	2
12	13	2
81	120	4
128	128	11
13	15	1
132	132	4
86	112	4
158	159	2
35	37	5
156	156	6
133	143	8
4	28	1
20	20	3
87	89	1
125	126	2
92	129	4
87	148	3
36	43	2
10	11	2
141	155	1
73	74	1
13	13	11
79	81	2
2	48	2
100	104	3
152	152	3
103	104	2
70	70	8
80	80	6
107	108	3
63	71	1
127	152	1
62	63	2
26	26	5
77	77	1
33	35	2
4	4	4
36	62	4
5	136	3
75	128	5
92	95	1
34	118	1
118	131	4
121	123	2
3	38	2
51	54	1
49	54	1
90	91	1
42	108	2
154	155	2
86	86	3
105	121	2
22	25	3
79	112	2
26	27	6
85	85	1
43	43	7
91	94	3
113	114	2
89	137	2
102	102	1
53	53	4
11	14	1
142	142	2
37	40	1
136	137	1
121	157	1
151	157	6
94	155	1
65	65	4
91	91	4
31	52	3
105	105	10
67	67	5
129	139	1
93	142	1
2	8	2
19	20	2
121	121	4
57	64	3
93	96	4
74	74	5
35	40	1
99	99	6
66	67	3
53	55	6
76	80	4
32	36	2
119	119	6
37	53	4
16	17	3
63	70	2
51	51	2
21	28	3
52	53	1
130	139	2
45	153	2
73	105	1
78	79	3
44	45	1
37	38	1
28	45	2
149	150	2
0	21	3
141	141	3
8	10	1
18	127	1
46	47	3
135	135	5
130	146	2
148	149	1
125	131	2
124	130	1
89	93	2
1	45	2
75	77	1
154	157	1
98	100	1
83	84	4
117	146	2
27	33	1
84	107	2
144	144	4
133	134	4
2	4	3
25	34	3
126	127	1
12	17	5
122	123	3
15	16	3
43	118	2
39	40	2
4	148	1
81	81	5
131	132	3
83	117	2
68	68	5
43	140	1
87	88	2
52	84	2
111	112	1
78	121	2
144	145	1
95	112	2
82	135	2
42	42	4
140	141	2
45	55	1
99	101	1
106	120	1
50	56	1
30	30	4
41	42	2
101	104	1
117	117	2
79	108	1
94	94	4
118	133	1
10	10	1
116	148	2
117	119	3
6	6	5
75	111	2
9	51	1
75	85	2
69	70	1
114	116	1
75	122	3
32	54	2
44	47	2
107	120	1
31	46	1
39	84	3
96	96	1
152	155	1
67	70	1
137	138	1
45	49	1
57	57	1
85	95	3
63	68	1
4	46	3
88	89	2
40	41	1
44	140	2
80	83	1
15	149	2
1	28	2
21	25	1
11	12	2
31	54	1
129	134	1
76	82	1
40	115	1
24	25	1
132	147	2
110	137	1
24	35	2
88	92	1
18	19	1
36	37	1
87	107	1
51	118	1
111	127	1
76	85	1
124	137	2
3	37	1
19	30	1
42	111	1
41	108	2
42	117	1
109	136	1
83	107	1
109	111	1
82	132	1
80	86	2
46	122	1
141	145	1
29	38	1
142	143	1
