131	134	4
20	22	3
38	38	12
134	136	2
102	103	10
36	37	5
134	137	4
161	162	2
150	150	13
121	122	8
87	88	2
43	43	13
162	162	11
163	166	6
167	168	3
5	5	9
123	123	4
57	88	1
11	11	21
146	146	9
28	28	3
16	17	12
36	36	7
95	97	7
20	20	8
72	73	8
19	19	11
156	156	7
105	106	5
100	100	9
107	107	11
120	121	1
152	152	15
7	7	8
48	53	3
46	46	13
46	48	3
11	12	5
86	87	4
45	58	1
92	92	16
78	81	3
81	81	5
168	168	7
94	99	3
106	106	11
133	133	6
169	170	6
132	132	8
23	23	21
58	58	4
120	120	6
24	24	9
102	107	3
49	49	10
158	160	2
142	142	17
143	143	11
97	97	8
88	88	3
142	143	3
41	41	3
164	165	7
136	136	7
85	86	6
76	76	17
34	34	16
9	10	5
12	12	7
80	81	9
168	169	12
37	37	7
63	63	6
139	139	11
66	67	5
56	92	3
73	73	8
6	6	9
41	43	2
95	95	8
128	128	11
0	1	1
8	12	1
90	90	8
57	57	5
67	67	19
3	3	29
153	153	3
10	10	4
112	113	3
155	157	2
44	44	7
3	117	3
101	101	7
79	79	18
126	126	5
148	149	10
46	47	3
82	82	4
45	45	6
84	88	5
55	56	3
7	8	7
90	96	5
47	47	6
89	95	6
25	25	13
147	147	10
13	15	11
116	148	1
39	39	6
17	18	3
141	144	2
125	157	1
125	168	6
90	91	8
108	108	15
104	104	14
5	6	13
66	66	4
81	82	5
63	64	3
154	154	4
129	129	10
51	51	2
26	27	1
139	140	5
13	17	2
148	148	11
72	72	4
149	156	3
20	24	2
159	159	6
89	90	2
161	164	5
15	18	4
35	36	5
91	91	8
97	102	4
74	74	10
84	84	8
89	91	7
113	116	2
45	47	1
54	56	7
109	110	10
85	85	11
102	102	11
78	98	1
78	78	11
134	134	9
73	74	11
147	149	1
158	158	16
104	158	2
100	103	6
51	154	1
16	16	13
152	153	14
94	94	14
120	122	4
45	49	1
11	13	6
161	163	2
21	21	12
93	95	4
58	62	3
77	84	3
86	90	6
76	78	1
84	86	3
121	121	8
62	62	7
49	52	6
150	154	2
64	64	6
110	110	8
98	98	6
54	64	3
88	89	6
149	149	17
160	160	8
22	22	10
40	43	1
15	16	6
35	35	12
25	26	2
155	156	8
97	160	2
17	17	17
75	75	5
36	38	4
135	135	3
38	39	3
38	40	3
67	70	4
78	79	11
47	50	3
163	165	6
96	96	6
117	117	9
54	54	12
53	56	1
44	45	3
41	45	1
111	111	21
133	134	8
71	73	1
169	169	6
140	140	14
162	163	7
155	155	9
162	164	3
33	33	5
34	35	15
119	120	5
135	138	3
40	44	3
80	80	6
163	163	3
8	9	5
83	83	6
122	125	4
52	52	8
144	145	10
136	139	1
140	144	4
99	103	1
156	157	3
69	72	3
165	165	9
95	160	2
19	23	4
164	164	8
42	42	6
150	151	4
114	115	5
135	136	3
55	55	8
131	131	17
93	93	8
104	155	2
44	47	1
70	72	2
106	107	6
72	76	2
50	50	14
13	14	6
119	119	8
167	170	3
18	20	6
134	135	3
113	113	6
79	81	3
4	5	4
35	37	2
8	8	17
37	40	2
99	99	12
151	153	6
127	127	9
9	9	11
13	13	11
17	19	1
9	12	3
105	108	1
39	56	4
115	144	1
53	53	9
79	80	4
48	49	7
46	49	5
150	153	1
166	166	7
140	141	2
126	129	5
159	161	2
99	100	10
167	167	8
70	71	1
83	84	4
161	161	7
144	146	1
124	125	2
115	115	14
13	20	2
62	65	7
166	170	1
0	0	5
136	138	6
4	6	4
40	45	4
39	40	6
153	157	4
3	6	2
91	93	3
117	122	3
1	1	14
156	158	3
141	141	6
151	151	5
113	114	4
157	157	7
17	21	10
93	94	5
157	158	6
13	16	1
73	76	4
138	138	5
130	130	3
26	26	5
106	113	1
130	131	7
166	167	1
96	102	5
122	148	3
131	132	2
101	102	3
56	56	4
65	65	10
109	150	2
118	119	4
16	50	2
136	140	3
68	69	5
151	154	2
7	12	5
57	63	2
152	154	2
132	134	4
26	47	4
49	50	6
140	142	1
133	138	2
103	103	6
110	115	5
69	74	1
109	109	5
15	15	8
75	77	2
113	115	1
27	27	3
135	140	1
48	48	5
18	18	6
149	150	2
77	80	6
145	145	12
132	135	1
77	77	2
124	157	1
133	136	6
89	107	4
127	130	1
137	137	5
11	36	1
117	145	2
166	169	3
70	70	5
42	43	4
99	164	2
87	87	9
146	156	3
116	118	6
125	125	10
144	144	9
36	39	2
47	51	1
76	77	6
73	75	3
128	129	5
163	164	6
41	42	3
76	79	6
51	53	4
161	165	1
19	20	3
48	50	5
117	119	4
2	2	2
80	82	5
104	106	2
107	159	2
104	161	1
120	124	2
109	111	5
4	4	7
16	51	2
92	93	6
122	122	2
105	105	7
156	161	2
14	15	3
149	157	3
164	170	1
5	7	4
69	69	3
37	39	5
40	40	2
45	46	1
87	89	2
126	128	2
6	7	2
9	14	1
67	68	6
72	74	2
72	75	4
98	99	2
125	126	5
18	19	3
125	128	4
79	82	3
159	160	8
96	154	2
160	165	2
158	159	5
23	24	1
76	82	1
20	23	3
64	90	2
89	97	3
130	132	1
54	91	1
9	16	2
123	124	1
148	158	2
116	116	2
89	89	3
162	168	4
112	112	3
143	146	2
153	154	2
20	21	1
116	117	4
100	102	1
134	138	2
132	136	1
110	111	2
104	105	2
95	96	2
64	68	1
15	21	2
6	8	1
45	50	1
26	28	2
96	97	2
117	118	3
150	157	1
75	76	2
145	146	3
124	124	3
85	90	2
113	148	3
41	62	1
38	109	2
92	94	1
52	53	2
143	144	1
47	48	2
144	148	2
18	23	2
105	107	7
158	161	4
14	45	3
42	46	1
77	78	2
86	86	1
92	151	1
118	118	6
121	154	1
3	4	1
88	106	2
65	66	3
71	71	2
86	88	3
114	150	1
49	64	2
137	138	2
62	64	3
40	41	1
138	140	1
24	46	1
2	3	1
91	92	2
55	93	3
140	146	1
88	90	1
143	145	1
165	166	1
114	114	3
145	147	1
11	14	1
69	70	1
68	68	1
81	89	1
87	90	1
99	163	1
139	141	1
17	51	1
6	13	1
22	24	1
8	10	1
136	143	1
123	126	1
1	3	1
137	145	2
164	168	1
106	111	1
122	126	2
129	132	2
1	4	1
10	12	2
133	170	2
115	116	1
138	139	2
119	122	2
23	25	1
11	15	1
120	149	1
103	162	1
21	23	1
142	144	2
157	160	3
76	83	1
132	133	1
102	105	1
51	52	1
113	117	1
94	108	2
82	84	1
153	158	1
14	14	1
147	148	1
146	147	1
162	165	1
146	148	1
110	150	1
78	82	1
156	160	1
91	94	1
12	15	1
114	116	1
21	22	1
78	96	1
106	155	1
52	92	1
12	14	1
57	65	1
