41	41	12
21	21	3
48	48	11
47	52	2
138	138	3
91	146	2
42	42	4
39	149	2
110	110	12
47	47	4
69	69	3
11	14	2
56	58	5
71	71	9
44	44	1
62	62	2
70	70	10
81	81	4
2	2	4
12	34	2
103	146	1
154	154	4
15	16	3
99	99	5
3	16	4
5	5	5
137	138	2
133	133	3
30	83	2
64	64	7
113	113	4
141	141	10
83	85	2
85	87	3
102	103	2
137	137	7
132	132	18
24	70	2
12	12	2
125	126	2
68	68	5
129	129	6
37	48	1
22	22	5
33	33	2
27	27	3
150	150	3
45	63	5
24	24	11
101	102	1
80	80	8
67	68	2
6	6	7
28	28	3
149	149	5
121	121	5
143	146	2
93	94	3
47	51	2
116	116	7
89	108	5
98	98	3
139	139	4
65	80	6
31	31	5
119	124	3
34	35	6
107	107	12
36	132	1
53	53	6
92	143	2
106	147	2
95	98	5
75	75	11
20	21	6
39	39	6
63	63	3
120	120	3
76	76	4
105	105	2
19	20	5
37	37	2
152	153	1
112	112	12
7	8	2
129	130	4
47	48	1
84	84	6
122	122	6
106	137	5
49	101	1
34	34	5
114	115	2
29	29	1
13	14	2
98	120	2
86	147	1
108	108	1
32	32	5
123	125	1
110	114	2
136	137	1
134	134	4
152	152	3
17	19	3
99	146	2
84	135	3
14	32	1
107	128	1
10	40	3
38	38	3
46	46	6
80	82	1
117	117	6
32	34	1
149	150	2
30	47	1
116	143	1
120	122	1
94	98	4
62	149	2
109	109	9
71	139	2
120	127	3
124	124	1
143	145	3
57	57	3
114	114	8
142	143	1
25	25	1
146	147	1
84	115	2
153	153	6
4	7	1
73	73	4
96	96	4
77	77	4
45	45	4
147	147	4
119	148	1
111	111	1
79	79	1
17	17	5
24	25	1
65	81	4
124	125	4
153	154	2
136	136	1
18	18	3
139	140	3
23	23	4
10	10	2
151	151	2
51	51	2
71	123	2
65	65	3
95	99	2
18	78	4
82	83	1
71	133	1
111	112	5
90	95	3
115	115	1
40	40	3
144	144	7
9	10	1
39	40	1
135	135	3
11	11	2
132	133	3
61	63	1
131	131	2
86	117	1
126	127	2
114	117	2
120	149	1
4	6	1
97	97	3
22	23	2
83	134	1
110	111	1
37	54	1
6	35	2
118	118	3
10	11	1
94	94	2
29	30	3
128	128	3
26	26	3
111	120	1
148	148	3
4	4	6
117	127	3
100	100	4
67	67	3
113	147	3
36	58	2
19	19	3
116	128	2
11	64	1
16	16	1
45	62	2
86	86	3
104	104	1
14	14	2
50	50	3
16	21	1
36	36	1
54	54	4
23	74	1
17	77	2
36	57	2
121	122	1
119	147	1
15	15	1
105	148	1
140	140	2
30	33	1
69	70	1
102	102	3
90	90	1
109	110	1
143	144	2
17	18	1
119	123	1
85	85	1
109	132	1
68	71	1
2	6	1
38	45	3
101	139	1
49	137	2
25	26	1
102	104	1
130	133	1
104	142	2
52	52	1
30	31	2
37	38	1
6	7	1
21	22	2
146	148	1
130	130	1
69	72	1
48	154	1
53	71	1
3	3	1
82	82	1
95	140	1
146	146	1
25	95	1
27	95	1
123	123	1
13	48	1
46	47	1
43	44	1
111	114	1
64	67	1
28	33	1
127	130	1
11	15	1
