134	134	12
137	138	6
106	106	7
119	119	10
9	44	4
56	57	1
90	90	4
167	168	5
103	103	10
141	141	6
24	24	14
30	31	5
165	165	15
51	51	9
109	109	6
136	136	4
96	150	3
108	108	10
104	105	1
3	3	5
144	145	3
144	144	9
40	41	5
76	77	3
139	140	10
81	82	1
61	169	3
54	54	11
75	76	4
174	176	3
146	146	5
88	88	2
127	153	2
123	125	10
16	16	10
179	179	5
120	124	3
110	111	3
154	154	4
126	126	9
171	171	6
111	111	9
174	174	7
10	75	2
124	125	2
94	94	4
130	130	10
77	78	8
29	29	1
41	41	4
102	103	3
161	161	3
81	81	11
25	25	7
155	155	2
128	128	7
26	26	2
117	118	1
119	120	3
76	76	9
65	74	4
50	51	3
73	73	12
78	127	3
95	172	3
153	154	4
53	53	3
143	145	2
160	160	5
82	112	1
123	123	16
89	89	5
140	140	6
136	173	1
148	148	4
68	68	1
5	6	5
96	96	3
30	30	9
139	162	3
124	124	10
143	143	7
105	105	6
114	115	1
79	128	4
64	76	1
115	116	4
59	59	6
130	131	3
67	67	2
115	115	3
114	114	11
58	58	3
149	149	5
176	176	7
121	121	3
84	84	2
95	95	5
56	56	3
62	62	1
18	63	1
131	131	5
54	102	8
78	89	10
123	124	3
129	129	7
36	36	7
50	50	1
35	35	10
73	74	6
34	34	4
91	91	4
132	132	3
86	112	3
27	28	4
175	175	4
18	18	4
162	162	5
73	75	2
66	66	5
120	121	2
16	87	2
139	139	8
31	32	1
92	125	4
149	150	3
125	127	1
165	166	4
122	122	16
87	87	4
113	113	1
112	112	12
91	92	4
22	43	3
173	173	5
37	37	4
6	6	5
172	172	9
127	127	6
138	138	5
150	150	2
11	12	1
39	39	5
153	153	9
8	8	7
125	126	1
130	157	3
87	88	1
128	130	4
95	96	2
57	57	3
6	43	2
127	128	6
118	119	5
16	86	1
106	107	2
14	23	2
72	72	7
163	165	3
157	158	2
22	22	1
79	79	10
82	82	3
74	74	6
93	93	7
135	135	9
107	107	3
27	27	4
14	16	3
97	100	6
17	17	2
3	36	5
10	10	7
100	101	1
163	163	2
142	142	5
26	68	2
145	145	6
43	43	8
176	177	5
93	123	1
92	92	20
179	180	8
4	4	4
161	162	2
77	77	10
100	100	3
122	125	9
70	70	2
40	40	6
159	159	5
162	164	1
86	87	3
59	60	7
172	173	3
24	71	1
90	125	1
170	170	2
87	95	5
10	23	2
31	31	4
137	137	4
101	101	4
10	44	1
28	28	5
45	84	3
119	130	2
88	89	6
108	109	2
133	133	9
71	71	11
52	53	3
5	5	4
66	67	10
153	157	1
33	33	9
74	76	1
66	85	2
78	78	1
36	38	2
86	86	4
80	81	8
36	37	2
144	146	4
60	60	6
2	2	6
158	158	8
75	102	3
96	127	4
85	85	3
156	158	1
43	63	1
125	131	2
78	81	3
34	35	6
170	171	1
173	174	1
14	22	3
98	101	6
21	21	1
125	125	1
55	55	2
28	32	1
180	180	6
13	13	2
54	74	1
111	112	3
26	27	5
64	64	6
45	111	1
16	17	1
17	19	2
49	57	3
166	166	7
117	117	4
98	98	3
25	29	2
27	35	2
65	65	3
74	75	1
9	18	1
119	122	3
129	157	1
119	129	2
97	152	3
32	33	2
154	156	3
44	84	2
97	126	1
11	22	4
11	11	1
98	99	2
131	153	4
79	125	2
55	87	1
118	118	3
15	87	2
6	7	2
0	1	4
102	102	4
52	52	7
167	167	1
114	128	2
61	61	2
72	73	1
65	66	1
58	86	3
120	120	2
17	18	1
155	156	2
44	85	2
45	45	1
103	104	2
130	156	1
23	23	1
162	180	2
89	115	1
160	161	4
164	164	4
53	54	2
49	56	1
44	44	3
104	106	3
82	111	2
32	32	4
157	157	1
152	152	1
133	180	2
137	139	1
128	152	2
128	153	2
1	2	2
63	63	3
154	157	2
23	24	2
169	169	3
92	94	1
141	142	3
129	130	3
116	116	1
161	163	1
80	126	1
99	100	1
30	32	3
81	83	1
168	169	6
147	147	1
63	81	1
43	64	1
8	19	1
55	56	2
89	126	1
15	15	2
57	58	1
16	22	1
10	22	2
109	110	1
2	3	2
9	65	1
20	20	1
80	112	1
145	146	3
38	38	4
127	152	1
117	132	1
110	110	1
151	151	1
107	111	2
77	96	1
56	77	1
142	167	1
97	98	1
151	156	1
65	109	2
11	23	1
88	125	1
39	40	1
112	113	1
41	42	2
162	163	1
75	111	2
19	19	3
11	83	1
68	70	1
109	111	1
90	91	1
83	83	1
92	93	2
158	160	1
49	49	1
81	112	1
141	167	1
0	2	1
63	64	1
96	97	1
81	113	1
0	0	1
14	15	1
