22	22	19
64	64	7
3	5	1
124	125	7
13	16	1
8	8	13
7	7	24
126	126	7
18	19	1
60	60	7
104	104	11
132	132	2
18	18	9
68	69	6
17	17	5
58	58	13
56	97	2
2	3	1
42	42	15
131	133	3
24	24	10
82	82	16
47	47	8
16	19	6
117	117	15
14	14	4
41	42	9
91	92	4
98	98	9
94	96	7
56	59	3
95	95	18
131	131	14
32	89	2
1	2	8
105	105	11
12	15	6
62	62	10
34	43	3
77	77	10
30	36	2
121	121	16
67	67	7
122	122	7
101	101	4
107	117	1
16	16	12
105	106	5
95	100	4
30	30	8
106	107	7
104	112	1
101	102	1
94	94	14
29	29	7
87	88	7
35	35	19
63	63	10
11	11	13
114	119	3
24	86	1
37	37	19
85	85	11
77	78	2
66	66	9
45	46	2
33	34	9
68	68	16
60	61	3
88	88	4
15	15	12
62	87	1
27	28	8
97	97	3
32	35	2
74	111	4
57	57	10
113	115	2
7	8	1
43	43	7
109	111	2
75	75	11
120	121	2
20	20	12
116	116	16
88	90	1
123	124	1
76	77	1
10	10	6
107	107	7
6	31	1
32	32	11
102	115	5
29	31	6
20	85	2
87	87	2
113	113	9
83	83	11
90	90	25
120	122	3
114	114	4
71	71	4
129	129	5
31	37	3
31	58	6
109	110	2
5	49	1
41	41	10
124	124	6
56	57	4
44	45	3
5	5	7
107	116	2
56	56	6
111	111	5
22	83	3
105	133	3
96	96	4
83	84	6
29	64	1
120	120	9
1	47	2
80	81	2
12	12	8
45	45	10
33	33	17
84	85	8
3	48	3
3	47	6
20	21	4
61	66	1
128	132	1
24	25	4
91	91	4
16	18	2
93	94	2
15	19	3
56	99	3
21	82	1
42	49	1
83	109	1
46	46	5
0	0	6
93	93	10
109	109	6
123	123	10
14	15	4
25	30	2
119	119	11
125	125	7
74	74	11
27	27	11
3	92	1
85	111	1
106	106	8
15	16	4
129	130	1
65	66	1
97	99	3
49	49	3
133	133	4
13	13	3
22	24	1
32	87	1
119	120	5
130	130	7
59	59	11
61	61	5
51	55	2
102	111	2
97	98	6
58	133	3
28	28	14
70	126	1
31	31	6
36	36	7
2	75	2
48	48	5
103	107	1
70	70	9
19	19	8
6	6	15
128	128	11
76	76	9
99	130	1
73	74	4
3	4	1
121	122	6
80	91	6
69	85	5
102	112	3
124	134	5
60	84	2
86	87	3
7	32	2
84	84	6
110	110	4
90	92	3
57	59	2
19	43	1
130	131	2
98	133	1
5	35	1
9	9	6
17	19	2
15	17	2
55	56	2
20	43	2
44	44	7
16	116	1
32	123	5
112	114	1
115	115	8
23	24	8
96	97	2
126	127	4
25	26	6
84	110	1
86	90	3
103	104	1
104	105	2
18	39	2
88	100	1
39	41	5
26	26	3
66	67	12
66	93	2
72	72	5
100	100	5
112	113	5
4	4	9
38	38	2
31	121	4
9	10	4
23	23	4
2	2	2
56	128	1
118	119	1
112	112	5
115	116	2
108	108	9
19	20	1
30	32	2
8	9	2
122	125	1
131	132	2
89	89	6
13	17	2
17	45	4
80	80	8
35	36	7
118	118	8
74	76	2
134	134	4
93	95	2
34	34	7
107	108	2
48	91	1
65	65	7
46	47	1
39	42	1
127	127	1
70	71	1
10	11	2
79	79	4
76	93	2
7	35	2
99	100	4
63	67	1
37	38	3
99	99	3
40	41	2
6	7	2
117	118	2
71	134	2
55	55	2
5	7	1
90	94	2
21	21	7
39	39	5
72	73	3
82	83	4
62	63	3
118	131	1
21	22	2
25	122	1
32	124	2
12	45	2
63	66	1
95	96	4
107	111	3
123	126	1
81	83	4
118	132	2
30	31	3
35	86	1
36	43	1
30	121	2
92	92	2
106	134	3
74	77	2
51	51	2
113	114	2
41	43	2
92	93	2
35	82	2
73	73	3
62	69	1
76	126	1
3	3	1
22	84	1
62	67	1
36	37	1
4	80	1
41	81	3
27	29	2
57	129	1
128	130	1
118	122	2
104	127	1
124	128	3
80	122	1
126	133	2
78	78	2
130	132	1
132	133	2
103	103	1
103	134	1
85	88	1
64	65	2
4	42	1
84	102	1
7	31	1
60	70	1
70	127	1
58	59	3
85	86	2
22	23	1
34	35	1
94	95	3
69	70	1
40	49	1
15	20	2
26	30	1
113	116	1
108	111	2
96	98	3
86	86	1
115	121	1
33	47	2
33	84	2
25	25	1
122	123	1
102	102	3
96	127	1
65	67	2
62	89	1
75	76	5
78	79	2
95	97	1
105	117	1
103	112	1
18	38	2
62	68	1
15	18	1
5	43	1
62	66	1
83	86	1
116	117	1
81	81	1
40	40	1
84	86	1
86	88	1
33	37	2
25	101	1
56	127	2
19	21	1
69	93	1
37	43	1
22	41	1
105	126	1
6	8	1
16	17	1
120	123	1
127	128	1
12	13	2
80	92	1
40	48	1
11	12	1
76	95	1
38	39	1
61	68	1
106	133	1
