169	169	6
168	168	13
73	133	2
61	64	6
96	96	4
169	178	6
42	160	3
159	159	19
37	57	1
60	67	2
146	146	9
106	107	1
12	12	5
57	165	1
158	163	13
51	51	8
131	131	15
98	98	5
177	178	4
140	141	6
122	124	3
129	129	6
44	44	3
65	65	3
35	35	4
107	107	7
106	149	2
157	157	4
90	148	2
122	122	6
23	23	1
17	17	5
58	81	6
143	148	2
104	104	6
139	139	1
152	152	14
168	179	2
92	94	1
112	148	3
13	16	2
83	84	6
119	119	1
175	175	8
85	106	2
94	94	8
56	56	7
126	126	4
24	24	2
129	130	3
116	158	6
154	154	8
101	129	1
134	134	6
172	175	1
24	25	1
135	135	5
111	111	13
93	96	1
7	7	2
2	2	3
107	138	1
163	163	11
38	39	4
132	132	2
57	116	1
76	88	4
97	113	8
9	10	2
161	180	1
36	153	3
65	71	4
165	165	4
32	32	2
76	76	2
57	66	2
131	148	3
138	138	8
176	176	15
174	174	10
167	175	5
45	45	8
161	162	6
81	116	2
79	79	16
117	166	2
35	38	2
78	78	7
158	180	3
169	180	2
122	151	2
11	11	8
39	39	4
117	168	2
99	177	5
0	80	7
155	155	2
128	131	2
54	54	12
133	133	4
59	156	3
178	178	3
99	121	2
95	107	2
111	114	4
114	114	2
55	55	10
154	171	5
64	64	8
77	77	21
124	124	17
126	137	1
18	18	6
92	92	13
86	127	2
68	68	10
104	160	4
143	143	5
132	133	8
21	31	1
164	165	5
159	161	5
94	95	4
60	84	3
60	61	3
126	128	2
100	145	1
84	84	4
99	116	5
94	123	1
72	76	2
107	119	4
0	15	3
107	110	3
33	140	4
150	150	9
21	68	3
116	116	5
5	5	3
34	34	7
141	146	1
66	67	1
78	80	8
117	176	2
59	61	7
59	78	1
137	148	2
140	140	6
107	111	1
16	75	3
100	136	1
115	116	3
167	167	7
10	14	2
52	54	5
41	41	6
173	174	3
118	118	13
98	113	1
95	95	6
109	109	9
101	115	5
151	168	3
90	90	11
55	131	6
90	151	3
177	177	4
112	113	2
81	150	3
6	7	1
136	136	6
153	153	4
141	149	1
87	121	2
144	144	5
123	123	5
93	93	7
54	55	2
122	132	4
121	122	1
40	41	2
148	148	4
80	80	2
133	138	1
1	2	1
88	107	3
145	145	2
111	112	6
168	169	7
89	90	2
37	112	3
120	120	4
112	112	4
78	171	3
14	14	4
143	172	4
74	74	3
32	35	2
33	34	2
38	41	3
178	179	9
102	102	7
127	127	5
123	132	5
74	88	3
91	92	9
179	179	9
6	14	7
162	162	21
67	68	2
55	104	1
113	162	4
67	74	3
71	71	6
125	125	2
12	19	2
166	167	3
67	67	8
82	82	3
57	72	2
10	10	3
28	28	2
43	43	3
89	107	1
147	147	13
84	85	1
13	18	1
14	16	4
67	77	2
94	96	4
49	49	5
127	154	1
61	62	4
172	178	1
14	51	1
171	171	3
119	156	3
152	165	4
13	17	6
19	19	5
110	111	1
19	45	1
75	76	1
39	42	3
23	24	1
79	80	6
75	75	3
114	162	1
87	91	5
173	173	3
62	71	3
38	38	4
37	104	2
124	144	2
151	151	4
172	172	6
97	97	5
128	168	2
124	125	3
95	96	6
60	60	2
119	154	3
72	72	1
152	168	2
126	138	2
50	54	3
100	100	3
154	164	1
50	52	3
73	157	2
60	82	2
2	3	2
136	163	7
170	172	2
103	105	1
149	150	2
13	13	4
53	53	1
114	115	3
149	149	1
122	146	1
21	21	6
87	87	6
89	89	5
83	83	1
37	37	1
83	85	2
105	166	3
52	52	5
86	86	5
31	44	1
5	6	1
81	131	4
10	11	1
131	168	5
100	101	2
113	161	1
142	142	5
43	99	3
125	143	2
103	103	4
55	121	3
115	115	6
122	123	1
66	73	3
117	117	5
59	59	3
96	124	1
64	71	2
180	180	5
141	141	3
123	141	2
82	119	1
1	1	2
56	100	2
58	106	1
112	156	2
71	74	3
4	18	1
57	158	4
5	13	3
98	127	2
50	68	3
55	56	4
84	116	1
134	135	1
98	100	3
37	131	1
99	164	1
12	18	2
105	105	1
3	5	1
22	22	1
73	75	2
171	172	4
120	151	1
119	121	1
149	169	3
26	44	2
66	66	3
99	129	2
130	177	3
103	111	1
37	157	1
65	68	1
36	36	2
88	88	2
21	22	2
26	27	1
93	137	1
92	93	4
101	162	1
85	87	1
109	110	3
103	104	1
86	87	3
108	110	4
170	170	5
179	180	1
60	62	1
2	66	1
16	16	3
56	112	1
78	79	4
146	147	1
59	71	1
19	21	1
161	161	2
102	106	4
172	173	1
102	104	1
110	110	2
80	171	3
118	121	1
82	84	1
166	166	1
71	72	6
113	154	1
107	123	1
13	19	3
3	3	1
172	174	2
104	111	3
73	74	1
106	176	1
1	16	1
108	108	2
125	140	2
75	114	3
141	145	2
90	152	2
10	13	1
156	166	2
120	159	2
86	124	3
22	23	1
78	170	3
58	58	1
142	143	1
38	43	1
127	148	1
57	157	5
122	145	1
58	73	1
3	18	2
24	26	1
138	139	3
151	169	2
109	147	1
169	170	1
41	42	2
43	67	1
106	106	2
113	113	2
128	128	1
158	158	3
8	15	2
45	50	1
27	43	2
96	137	1
56	132	2
135	137	2
167	168	2
170	178	1
160	161	2
129	140	1
57	62	1
55	166	1
36	104	2
62	63	1
77	78	1
58	71	2
0	16	1
56	63	1
77	81	2
62	62	2
151	153	1
74	76	1
99	100	1
176	177	1
175	176	1
89	108	1
39	41	2
64	159	1
151	175	1
58	116	2
169	179	1
53	65	1
176	179	1
130	130	1
178	180	1
106	112	1
63	117	1
73	73	2
81	81	2
162	178	3
2	4	1
22	35	1
35	142	2
45	65	1
43	58	1
88	108	1
25	25	1
23	37	2
87	101	1
22	24	1
137	162	2
132	139	2
126	141	1
68	74	1
157	158	1
90	91	1
99	101	1
83	90	1
153	162	1
59	81	2
55	89	1
85	85	1
59	84	1
0	0	1
86	128	1
101	114	1
37	73	1
76	112	1
91	91	1
40	40	1
6	51	1
7	18	1
62	64	1
153	154	1
57	65	1
95	150	2
88	102	1
95	124	1
101	116	1
59	83	2
108	109	1
87	104	1
31	32	1
104	116	1
37	56	1
41	71	2
118	119	1
157	159	1
114	137	1
50	53	1
57	57	1
29	41	1
131	154	1
