81	82	3
114	114	3
22	22	5
61	61	4
70	70	5
88	89	1
115	116	3
24	24	12
75	75	8
52	63	2
119	119	10
5	5	2
123	128	3
95	95	8
137	157	3
166	166	9
3	3	5
74	74	4
162	162	7
30	30	5
131	131	3
65	159	3
41	41	11
122	124	2
132	132	4
164	165	2
63	66	6
55	55	8
66	66	12
146	154	1
42	42	2
31	31	9
92	93	6
149	149	8
87	88	7
44	44	5
137	137	7
75	76	3
54	55	3
36	36	10
154	154	8
56	56	2
28	28	3
27	31	3
71	71	15
20	20	2
77	139	1
76	131	1
167	167	8
5	6	4
118	118	2
168	168	10
146	146	6
91	91	2
106	106	9
10	10	5
77	78	7
59	68	3
139	139	6
140	140	10
53	53	4
155	155	2
29	29	2
8	9	1
165	166	3
125	125	4
156	156	4
90	90	12
80	80	3
173	173	5
61	62	5
58	58	5
62	62	6
153	168	1
131	141	2
165	165	12
98	98	1
7	18	2
65	98	2
175	175	5
41	149	2
171	172	1
43	64	1
46	46	3
153	154	2
76	77	4
106	107	5
8	8	2
84	84	10
80	81	3
134	134	8
147	147	3
108	108	12
94	94	5
99	151	2
30	31	2
72	72	3
57	57	6
104	104	4
2	35	4
65	160	2
3	7	2
117	117	4
138	138	12
123	123	15
75	77	6
38	41	2
150	150	6
157	157	8
57	141	5
118	157	3
180	180	3
170	170	1
76	78	4
107	107	3
103	103	16
34	34	3
13	13	2
153	153	6
157	177	1
149	150	3
54	54	7
151	151	4
87	87	1
131	132	4
130	130	8
11	11	4
17	31	1
79	79	4
116	117	6
34	35	3
15	15	8
43	43	3
7	33	1
86	87	5
13	14	3
43	149	3
133	133	1
169	169	3
121	121	3
52	53	1
89	89	3
9	9	3
155	156	4
7	7	2
93	93	4
130	131	2
90	91	4
148	148	5
176	176	4
141	141	4
12	14	2
103	107	1
56	58	1
158	168	2
128	128	1
174	174	4
44	150	2
39	39	3
79	80	3
36	44	2
102	102	3
27	37	2
50	50	4
158	171	7
163	163	7
145	145	5
77	77	9
100	100	2
81	81	4
51	51	4
159	169	2
116	116	6
113	113	5
40	40	2
67	97	3
3	4	4
11	14	3
161	162	1
109	109	1
99	100	4
92	111	1
88	88	2
2	156	3
12	30	1
115	140	3
77	137	1
37	37	1
3	35	4
152	152	1
126	126	5
78	78	2
25	25	3
76	76	3
172	172	2
127	127	2
120	120	3
150	157	1
143	144	3
139	140	1
60	61	2
100	101	2
111	111	3
52	52	2
16	16	4
23	23	1
53	54	1
65	65	2
98	101	1
112	112	5
17	17	2
164	164	5
2	137	2
114	115	3
178	179	2
38	40	1
53	64	3
159	160	3
24	33	1
3	15	2
42	94	1
171	171	2
52	64	3
161	161	2
179	179	2
40	58	3
157	166	2
141	143	1
148	170	1
177	178	1
50	51	2
27	27	2
173	174	1
60	60	1
124	124	1
86	86	1
23	24	3
97	97	2
101	102	4
32	33	2
16	17	1
28	29	4
147	154	2
38	56	1
105	105	2
28	30	3
40	149	2
52	68	1
178	178	3
152	154	2
0	149	1
96	100	1
87	138	2
158	170	1
120	156	1
120	127	1
123	124	2
83	83	1
107	108	2
50	53	2
26	26	3
49	49	1
33	33	1
13	42	2
29	30	1
71	116	3
17	18	1
115	115	2
152	158	1
120	128	1
32	32	4
3	172	1
147	148	1
68	68	2
122	122	2
14	23	1
124	126	3
167	168	1
67	121	2
100	102	1
70	78	1
41	93	1
129	129	2
95	112	1
72	73	1
1	172	1
114	120	1
62	63	1
159	159	3
82	82	1
93	94	1
158	158	3
111	114	2
38	42	2
14	14	2
38	38	1
49	50	1
108	112	1
63	63	1
35	36	1
163	164	1
60	157	1
141	144	2
17	32	1
82	85	1
9	32	1
147	155	1
42	111	1
73	73	1
70	116	1
59	59	1
11	42	1
174	175	1
175	176	1
