64	64	27
118	119	14
65	65	39
121	121	20
24	24	37
66	66	32
66	99	1
129	129	24
95	95	34
99	99	44
24	25	10
81	81	29
113	133	1
102	105	5
104	104	26
61	61	25
44	44	33
70	119	3
20	20	51
117	118	10
62	64	10
89	89	24
110	110	34
48	48	33
1	3	3
39	39	20
51	51	42
53	53	35
30	30	19
62	62	23
83	85	15
93	94	12
85	85	25
60	60	24
56	56	51
47	47	30
12	12	24
112	112	52
70	70	20
57	57	33
78	79	22
132	132	20
27	27	39
122	122	21
49	49	37
52	53	12
79	80	10
15	15	30
45	46	10
75	77	13
107	111	1
75	75	35
57	58	8
100	100	26
98	99	2
114	116	6
69	82	3
31	69	3
82	82	37
2	3	12
86	86	29
20	21	6
29	30	15
62	100	5
101	102	16
91	92	17
23	41	1
19	19	26
107	120	3
100	101	10
63	64	12
52	52	32
22	22	29
2	2	44
61	62	14
56	64	4
85	86	4
17	17	36
38	39	7
60	72	3
71	77	9
1	1	14
75	76	21
107	107	54
32	32	28
25	25	28
80	80	37
76	76	28
18	18	31
42	42	34
96	96	40
16	18	3
113	125	3
65	66	13
23	39	1
93	93	41
126	128	11
62	65	3
130	130	12
94	94	50
25	80	1
125	127	1
115	115	29
107	108	14
16	16	25
4	4	34
109	109	28
21	21	18
96	105	2
74	74	31
18	19	22
83	86	4
5	5	41
77	77	28
98	103	5
77	89	7
72	72	38
62	71	5
14	15	10
98	98	19
50	50	30
65	77	5
113	114	21
125	125	27
7	58	2
103	103	38
48	83	1
6	6	30
126	127	14
45	78	5
43	43	27
128	128	30
54	55	6
69	69	34
128	129	9
28	29	12
132	133	7
53	105	5
48	49	13
88	89	14
83	83	36
49	53	2
30	38	2
55	55	31
81	111	2
91	103	2
23	84	2
84	84	17
5	34	4
92	116	2
87	88	14
72	74	7
46	48	4
0	0	43
8	8	18
50	51	4
34	71	4
6	7	9
102	119	3
105	105	32
42	57	2
10	14	3
58	58	12
89	103	2
9	9	18
10	10	27
71	75	7
42	81	2
101	119	5
108	111	4
120	122	3
91	93	6
39	45	2
57	76	2
54	54	29
120	120	21
63	63	29
18	20	8
60	66	2
92	92	48
72	76	1
21	22	7
49	51	3
67	71	1
68	68	28
90	97	3
13	13	26
116	116	38
13	14	8
45	102	9
123	123	36
90	90	26
71	76	7
34	34	22
89	99	8
23	24	10
127	127	10
68	69	12
57	62	5
75	111	4
4	28	1
39	85	2
117	117	39
67	67	26
109	120	12
97	107	2
76	125	5
46	46	43
133	133	17
31	31	16
46	47	8
115	116	21
126	126	20
86	87	16
14	14	31
131	132	10
27	28	3
90	100	3
12	25	6
61	114	1
69	79	4
11	11	19
56	121	1
80	81	10
26	28	1
57	64	3
73	73	31
121	122	6
118	118	29
47	98	2
91	96	1
23	23	25
10	11	14
81	86	1
111	111	47
58	88	6
82	83	9
106	106	42
19	21	1
3	3	25
112	113	13
45	45	24
19	20	8
118	130	1
5	65	5
27	29	12
59	59	23
9	10	15
114	114	51
22	28	1
113	113	35
118	122	4
108	108	18
61	127	3
41	96	3
15	21	7
44	46	2
69	70	8
33	33	30
26	116	4
96	116	1
105	119	3
33	34	7
92	93	8
59	101	3
90	91	13
105	106	2
78	78	11
76	77	8
71	71	10
102	102	22
110	111	2
4	5	5
47	49	2
17	58	3
95	97	3
93	122	2
83	122	4
48	94	1
12	13	5
126	130	5
41	41	25
7	7	26
39	40	8
64	87	3
65	125	5
40	77	2
131	131	23
51	52	6
67	68	13
84	85	4
21	23	6
65	124	4
114	120	4
80	82	3
81	85	1
70	71	3
109	110	5
89	93	1
17	33	2
101	101	41
97	97	21
47	90	1
72	73	19
17	18	6
50	107	3
96	98	5
124	124	35
110	120	4
41	42	13
16	17	15
64	80	4
71	72	4
29	29	16
97	112	1
58	90	2
122	123	9
14	20	2
44	45	10
24	78	2
22	55	3
20	22	6
43	44	6
22	24	3
25	26	17
88	88	15
42	55	2
128	130	5
4	30	2
67	115	3
7	64	3
44	47	5
94	95	12
26	26	24
65	78	3
42	43	4
41	43	12
100	113	3
40	40	19
1	24	2
99	100	28
14	17	1
91	91	22
60	61	6
11	13	1
79	79	16
70	125	2
67	131	4
124	132	4
101	111	1
68	70	2
83	84	9
56	57	7
60	65	3
116	117	5
56	105	2
67	75	1
21	32	1
87	87	14
31	55	3
117	119	3
63	67	6
57	100	2
108	117	5
28	28	20
56	110	2
58	101	1
45	103	2
13	15	1
65	131	1
106	111	2
43	82	2
80	91	1
60	78	2
6	14	2
59	67	1
85	88	4
125	131	4
96	97	7
56	125	1
20	43	3
88	93	3
114	125	3
94	121	1
40	67	6
16	31	2
115	117	6
19	59	3
60	71	4
68	77	4
88	112	1
9	11	2
45	48	2
40	43	2
56	65	3
68	71	1
39	60	1
8	9	6
124	131	1
47	48	3
21	28	6
120	125	2
31	104	1
119	132	3
50	120	4
85	123	1
41	81	2
97	99	11
45	62	7
62	63	6
24	29	2
103	111	3
115	128	5
67	73	3
58	126	2
38	38	9
51	94	2
64	99	3
26	27	5
64	65	10
119	119	35
57	67	3
93	127	3
32	33	5
106	113	6
16	33	2
61	64	2
59	73	2
58	105	1
94	110	1
23	34	2
22	25	3
127	128	8
46	76	3
69	72	2
49	95	4
55	129	2
114	126	2
102	103	11
13	17	3
59	62	9
104	105	13
23	26	1
14	33	2
1	2	6
32	39	6
60	69	4
44	49	4
8	19	2
96	101	5
77	78	8
117	125	5
105	108	4
66	115	2
2	7	3
62	127	3
7	8	1
15	20	5
26	114	8
82	87	2
55	67	6
11	12	8
73	74	11
13	54	1
6	70	3
53	54	3
10	12	3
62	74	6
129	130	5
115	121	3
40	44	1
71	78	4
30	31	7
14	16	1
114	115	2
93	96	2
23	25	2
91	94	1
58	63	3
43	75	5
88	90	4
11	19	4
20	42	4
69	71	1
58	59	9
50	95	2
127	129	4
108	112	4
1	9	1
48	111	2
39	71	3
55	102	2
25	32	4
39	43	3
126	129	2
52	54	2
100	112	3
31	32	4
25	27	1
85	107	3
48	72	2
2	4	2
100	103	2
97	98	16
118	120	1
57	121	3
61	63	2
99	107	6
3	4	5
80	83	1
17	20	2
15	16	1
124	125	5
20	104	1
67	132	1
95	96	4
72	78	3
122	132	1
109	133	2
93	121	3
21	33	3
55	107	4
86	108	2
130	131	10
111	124	1
0	53	1
71	128	6
19	31	3
75	90	3
90	115	1
70	77	1
41	64	2
98	113	1
48	104	4
40	78	3
45	93	1
97	102	4
28	117	1
74	75	5
54	106	1
93	95	5
2	23	3
43	78	3
108	109	3
40	45	1
114	118	1
5	13	5
24	27	2
52	123	1
79	93	3
72	75	3
53	80	2
27	31	3
84	86	1
42	116	2
106	109	3
89	91	4
46	83	2
62	72	1
66	72	8
14	18	2
53	125	2
77	117	2
30	32	1
42	54	6
65	71	2
25	79	1
70	83	2
26	31	2
111	112	9
44	102	1
118	125	2
105	120	7
2	65	1
72	80	2
6	31	2
99	103	5
17	19	2
102	104	4
95	101	5
113	116	1
73	132	2
13	53	2
51	102	2
63	74	2
89	100	5
85	90	3
68	74	1
103	132	1
85	89	1
112	118	1
18	59	1
113	124	1
45	85	1
48	110	2
66	67	2
13	108	3
48	51	2
56	68	1
54	67	2
89	96	1
29	117	2
83	101	2
75	94	2
80	95	6
100	106	1
81	82	2
50	57	2
78	84	1
27	117	2
13	16	2
25	121	5
23	30	3
4	6	4
106	108	2
79	81	6
40	48	2
90	92	1
86	99	2
4	7	2
44	103	1
87	111	2
61	66	2
14	47	1
10	23	2
62	118	1
76	102	1
116	120	1
89	90	7
13	34	1
19	32	1
78	80	2
2	5	2
48	113	1
103	104	1
0	24	1
48	114	1
112	125	3
38	47	3
81	105	1
81	94	3
51	123	1
48	107	3
39	47	1
89	97	2
42	56	7
23	38	1
73	76	3
11	38	1
101	107	1
61	67	1
52	95	4
117	128	1
92	102	1
39	63	2
27	32	1
21	40	1
81	92	2
90	99	1
108	114	1
24	42	3
29	79	2
78	81	4
33	38	1
0	11	2
55	115	3
85	91	1
31	81	1
72	79	2
88	94	4
38	48	2
87	97	2
22	23	1
88	95	1
44	51	1
58	60	1
79	86	1
98	118	1
80	97	2
82	84	2
4	33	1
11	62	1
59	125	1
63	79	3
99	104	1
0	2	1
10	42	3
47	91	1
118	124	1
113	131	1
22	29	2
64	66	3
102	112	1
94	100	1
48	103	4
48	56	1
44	86	2
6	106	1
24	41	3
49	116	1
44	105	1
31	49	1
39	75	2
86	88	3
82	92	2
69	118	1
70	118	1
62	69	1
43	56	4
46	85	1
12	34	1
11	16	1
6	54	2
5	7	1
101	114	2
13	22	1
103	129	1
119	120	2
28	30	1
112	114	1
12	16	2
56	60	2
52	80	1
79	92	1
97	120	3
64	72	1
42	53	1
29	69	2
4	26	4
107	127	1
60	62	1
22	40	1
101	110	2
0	122	1
62	68	1
77	81	1
41	46	1
0	1	3
114	127	1
120	121	1
54	120	1
82	85	1
57	63	1
53	56	1
58	64	1
115	129	1
122	124	2
1	17	1
77	84	2
32	41	1
43	45	1
59	64	1
5	11	1
61	75	1
43	49	1
96	106	3
26	78	1
54	131	1
87	89	1
52	106	1
69	75	1
27	92	1
50	56	2
30	68	1
30	55	1
88	91	1
59	88	2
110	112	1
56	122	3
64	121	1
40	47	1
40	41	1
107	109	1
39	42	1
82	104	1
50	83	1
49	84	1
75	114	1
122	133	2
89	107	1
0	121	3
55	56	1
89	104	1
26	104	1
4	14	2
58	65	3
32	81	1
85	121	1
0	51	1
93	99	1
59	60	1
48	108	1
83	88	1
31	34	1
19	28	1
69	76	1
88	98	2
96	102	2
73	96	1
117	132	1
4	23	1
0	120	1
75	127	1
56	101	1
57	106	1
60	115	1
80	85	1
77	87	1
22	33	1
53	132	1
69	120	1
