148	149	2
142	142	19
115	115	5
143	148	1
114	114	5
152	152	14
77	77	11
39	39	4
79	80	4
109	109	4
159	165	6
147	147	6
92	92	12
48	48	6
5	6	7
27	27	4
149	149	8
97	97	7
127	127	4
67	67	8
0	0	3
105	136	4
40	40	6
139	141	4
117	117	10
137	137	13
129	130	2
78	79	6
11	119	1
90	90	11
55	67	4
95	95	5
23	24	1
87	87	2
146	146	7
84	96	3
101	103	5
45	45	5
37	38	2
52	57	5
136	136	9
109	110	2
44	45	5
73	73	6
145	145	8
101	101	1
38	38	2
163	163	7
12	12	7
122	123	3
52	168	2
75	75	9
16	118	3
54	54	3
14	15	1
54	55	3
67	68	5
86	86	10
16	16	7
36	36	6
37	37	6
164	164	1
105	105	11
69	71	1
166	167	1
9	9	7
150	150	10
166	166	8
81	81	12
21	21	6
63	102	3
118	118	5
70	70	7
18	37	2
152	153	2
108	108	7
26	27	4
4	6	2
14	14	10
104	104	6
131	131	7
12	125	4
55	55	9
63	147	4
38	40	1
85	85	8
22	23	3
69	69	2
165	165	8
52	52	10
72	133	3
8	8	10
107	107	2
41	41	6
160	160	4
124	125	2
1	2	5
162	162	4
25	64	4
19	19	3
168	169	3
154	154	5
92	93	5
112	114	6
123	124	2
23	23	6
93	93	7
135	136	2
137	138	3
113	113	8
20	38	3
88	88	10
84	84	4
155	157	2
148	148	6
79	79	2
2	41	1
99	99	2
24	24	5
52	65	3
139	140	5
1	1	10
101	102	4
133	134	2
72	131	4
169	169	15
44	44	2
118	123	2
11	13	3
162	164	5
125	126	2
43	44	3
94	94	6
113	114	4
115	126	1
128	128	7
26	97	1
14	118	1
100	102	5
18	18	13
63	65	5
52	53	1
71	71	1
89	89	3
63	63	2
25	154	1
4	13	3
88	90	6
130	130	11
147	148	3
64	64	1
44	47	5
163	164	4
34	35	2
55	65	1
66	67	5
117	118	1
169	170	1
142	143	5
50	50	8
21	128	7
139	139	5
115	116	2
10	10	2
58	58	1
144	145	2
36	111	1
98	99	5
131	132	5
75	135	2
111	111	6
93	138	4
53	56	7
103	103	3
25	25	3
130	131	4
13	13	2
7	7	2
155	155	4
70	106	1
20	20	5
46	46	7
28	28	3
6	14	1
18	20	1
121	121	8
5	13	2
132	132	6
129	129	6
0	45	5
15	16	7
62	62	2
167	167	6
112	113	2
3	7	3
114	128	6
106	151	3
56	68	2
106	107	2
12	13	2
70	71	3
35	35	6
64	65	3
19	39	4
47	47	4
7	13	2
119	120	2
8	9	3
27	28	2
110	110	9
68	123	2
65	67	3
109	149	3
90	91	1
74	74	3
78	78	1
20	24	2
72	72	6
97	100	2
56	64	3
82	138	1
143	143	5
118	124	2
76	77	2
57	57	2
49	49	6
53	54	2
42	42	2
62	63	1
111	112	4
43	43	8
123	123	5
15	15	3
120	120	3
5	5	2
64	152	1
140	142	4
158	164	1
81	83	4
12	118	1
112	112	6
135	135	3
83	94	1
3	3	5
112	115	1
170	170	1
80	80	5
63	106	3
19	23	1
56	151	1
116	116	3
134	135	1
142	145	4
91	91	7
86	89	1
138	138	3
153	167	4
35	37	1
16	18	4
12	126	1
145	146	2
52	58	1
168	170	2
33	33	3
53	97	1
27	98	1
99	100	1
113	129	1
133	133	2
17	17	5
82	82	3
154	157	1
127	128	1
4	4	1
89	90	1
21	22	2
120	124	2
19	38	2
50	52	1
103	105	1
9	10	2
86	100	3
159	167	2
161	161	3
83	84	2
66	66	2
55	105	1
69	70	1
45	46	2
47	48	1
39	40	3
51	51	6
6	13	2
16	119	1
100	100	2
141	142	1
77	136	1
161	170	1
101	151	2
119	119	1
63	155	1
141	141	2
144	144	1
128	132	1
95	96	1
118	125	2
94	95	2
96	96	2
10	119	1
153	153	3
76	78	1
111	113	1
151	151	1
6	6	2
106	106	2
57	58	2
91	93	1
76	76	1
118	119	2
11	12	1
36	113	1
122	122	1
75	134	2
162	163	1
108	110	1
156	156	1
129	131	1
7	11	1
6	12	1
138	151	2
11	11	1
158	158	1
128	129	1
50	168	1
15	37	1
85	86	1
104	105	1
55	68	1
20	22	1
161	165	2
63	107	1
168	168	1
26	26	1
163	166	1
