15	15	55
11	11	41
119	136	2
118	118	23
10	133	5
64	64	31
88	88	31
149	149	18
36	128	1
45	47	4
7	7	44
7	8	8
34	40	8
80	80	23
139	139	36
106	107	6
124	124	18
142	142	16
132	133	13
132	132	39
121	121	52
32	33	18
85	85	25
111	111	36
6	6	20
113	121	6
82	82	45
118	147	3
28	28	31
131	131	29
120	120	48
24	43	5
26	92	1
139	148	3
13	13	27
116	117	14
92	150	3
115	117	5
24	25	11
66	67	4
137	137	38
144	144	24
50	62	4
104	105	14
155	155	32
16	16	32
97	97	41
87	88	15
100	100	45
91	91	33
92	92	39
79	80	5
79	79	32
129	129	38
102	102	22
105	105	49
48	117	2
151	151	36
148	149	10
43	43	17
151	152	16
17	19	5
67	67	10
53	54	5
114	121	10
29	30	13
51	51	26
117	117	50
21	21	43
159	159	4
78	79	8
27	27	25
20	51	6
0	4	5
143	143	10
134	135	15
148	148	29
35	35	29
51	53	8
14	14	41
99	100	3
10	35	2
109	109	23
146	153	2
3	4	16
36	114	2
86	87	16
104	106	9
47	47	24
3	105	7
92	93	16
41	41	22
131	132	10
77	77	50
98	98	43
34	34	21
116	116	32
138	138	36
44	44	31
127	127	32
130	132	1
65	65	16
93	93	37
45	45	25
137	138	21
133	134	9
115	115	14
55	63	5
126	126	35
114	122	5
122	122	46
78	82	7
40	41	16
41	43	9
53	53	5
156	156	30
114	126	2
106	106	33
91	96	1
49	49	33
36	36	29
146	147	6
18	18	48
140	140	30
47	100	2
19	19	24
124	127	2
83	84	18
105	134	8
107	107	32
118	152	2
93	115	2
103	104	12
84	87	3
81	81	27
99	99	28
157	157	16
33	33	24
114	115	23
144	145	14
9	137	3
44	50	3
113	113	25
5	5	25
26	26	30
124	125	18
2	2	25
114	114	62
118	120	5
12	12	28
85	143	2
92	113	8
12	17	5
18	89	2
23	43	4
95	108	10
89	89	27
83	85	2
96	107	5
39	39	27
24	24	32
128	128	38
57	63	3
22	23	16
40	53	5
49	64	1
25	26	4
14	77	4
147	147	47
102	103	8
134	134	59
113	114	19
17	17	41
48	48	36
133	139	1
125	125	37
94	94	46
8	8	45
152	152	24
31	31	19
124	126	6
120	144	3
107	108	14
7	48	4
104	104	26
99	101	4
112	138	5
67	68	18
32	34	3
30	30	54
123	123	57
101	101	28
42	42	34
154	154	13
93	116	5
38	38	32
129	130	9
111	120	4
31	55	8
149	155	3
90	90	29
50	50	32
84	84	46
15	16	21
23	23	26
86	86	27
3	3	34
56	91	3
30	35	14
66	73	2
142	143	9
145	146	2
145	145	28
68	69	22
96	96	45
72	127	2
33	53	2
48	89	7
10	11	26
70	70	35
80	82	2
150	150	28
156	157	4
97	136	2
90	107	5
52	52	25
78	78	40
5	43	2
146	149	5
75	75	18
77	78	20
11	12	18
106	112	1
110	150	2
48	49	6
95	95	27
85	86	10
24	30	6
23	24	8
29	51	1
21	22	24
119	119	36
127	155	3
27	36	2
28	38	1
86	90	2
31	32	8
50	51	18
155	156	4
67	126	1
63	89	3
12	15	2
122	154	6
101	140	3
63	63	14
66	66	13
98	102	2
141	141	40
57	57	5
153	154	10
90	91	14
69	157	2
110	110	39
22	22	28
46	47	2
37	37	20
19	20	8
92	144	2
107	137	2
91	108	1
83	83	37
130	131	19
69	77	2
108	112	1
112	112	38
40	84	4
106	120	4
42	43	8
46	46	10
54	54	15
4	4	26
96	108	5
20	20	19
144	149	3
114	119	2
47	50	6
2	3	6
100	101	11
118	142	3
0	0	24
110	135	6
11	19	1
82	86	2
120	121	10
158	158	20
35	36	7
29	31	2
71	72	6
44	45	12
10	134	1
47	55	1
108	113	4
69	69	22
38	40	5
8	9	21
68	71	2
1	3	5
30	31	1
74	74	7
2	5	4
20	91	4
57	62	2
11	14	7
66	71	6
50	63	2
87	91	6
13	14	13
29	32	2
140	141	27
52	86	1
10	14	6
28	81	3
40	40	13
88	89	12
135	135	25
52	81	2
36	115	4
67	69	5
89	90	5
143	145	4
37	54	1
10	10	25
37	44	3
9	9	29
91	155	5
65	77	2
109	110	3
33	35	2
136	137	11
107	121	2
123	141	4
82	93	5
133	133	25
100	126	6
142	144	3
2	11	3
29	29	12
43	44	2
48	116	3
13	18	5
1	1	23
31	40	2
20	21	14
84	155	1
50	65	1
46	56	1
3	106	1
67	71	8
103	119	2
1	44	2
8	11	5
103	103	27
71	71	19
93	140	2
95	107	2
97	98	8
95	148	1
31	34	3
9	10	17
25	29	3
135	147	2
108	108	30
7	49	4
96	152	3
65	72	1
111	112	4
75	94	2
9	53	3
146	146	14
157	158	7
52	53	7
153	153	5
130	130	24
128	129	8
18	20	5
154	155	3
137	147	2
84	85	10
76	77	6
110	111	13
96	97	8
94	95	5
122	123	6
79	82	8
32	47	4
70	71	8
12	13	14
79	83	2
109	111	10
51	52	13
34	46	4
117	118	11
81	82	13
68	68	19
96	143	1
55	57	2
32	32	11
5	6	7
71	101	3
95	118	2
142	154	1
51	64	2
22	24	4
87	87	19
15	22	2
36	37	6
91	92	3
114	132	2
50	64	3
140	158	1
91	107	3
105	121	3
6	135	2
94	114	1
14	18	6
37	46	3
121	122	10
132	135	4
47	64	1
92	108	1
92	112	7
4	106	2
121	126	1
31	54	6
135	137	4
70	157	3
80	93	2
143	148	2
77	83	4
39	40	10
96	141	6
51	84	3
20	22	1
56	56	12
56	57	1
145	154	1
117	137	1
14	117	2
128	135	4
11	120	1
45	64	4
147	148	8
95	96	17
47	116	1
136	136	20
95	138	3
30	33	1
20	53	1
73	73	19
102	128	3
102	105	1
25	25	26
66	128	2
133	159	4
151	153	1
82	114	2
122	141	2
1	2	11
115	120	1
106	119	1
85	87	3
56	89	1
123	155	4
141	142	4
143	144	9
16	20	5
113	118	3
27	82	1
39	49	5
121	142	2
14	15	2
96	111	2
65	66	5
56	62	7
80	131	1
28	51	3
77	130	1
123	124	11
33	47	2
105	130	3
97	139	1
3	103	2
115	116	3
0	158	2
10	13	1
118	119	10
106	117	4
28	29	8
54	56	1
92	94	8
120	122	3
31	41	1
3	107	2
86	149	1
114	120	4
82	83	9
108	111	7
25	28	3
98	140	4
12	14	5
94	109	1
103	105	2
119	120	2
43	64	3
55	56	7
115	135	6
110	138	9
136	144	3
61	61	1
8	14	4
7	136	4
152	153	7
18	132	4
104	131	4
27	28	7
32	63	1
105	106	12
78	80	1
37	56	1
36	116	3
26	29	2
118	122	4
149	150	4
133	135	4
104	132	2
55	55	9
41	42	8
105	138	2
45	85	2
5	51	4
154	156	4
144	148	1
15	19	2
64	65	1
38	54	1
52	56	3
13	17	2
34	53	2
98	99	6
87	90	3
67	70	1
115	137	1
97	141	3
10	47	5
112	122	2
111	113	3
8	137	2
112	113	6
138	139	3
88	119	2
3	104	2
115	132	1
76	80	2
37	38	2
136	143	2
43	77	1
76	76	3
108	109	7
73	74	1
8	10	4
107	114	1
48	156	3
106	118	1
125	126	5
31	57	1
120	139	2
117	134	3
23	91	2
52	84	4
126	127	5
1	26	1
38	39	5
71	154	1
27	75	3
0	1	6
19	81	1
68	70	3
2	45	3
156	158	1
34	62	2
75	134	2
19	151	2
38	83	4
150	154	1
85	94	2
117	150	2
106	137	5
6	21	4
44	101	2
9	78	2
22	52	2
88	90	2
114	134	3
14	17	5
17	18	7
144	154	7
94	107	6
106	138	1
114	137	2
52	54	2
142	145	4
40	54	2
68	153	3
40	79	2
19	82	3
41	45	1
102	151	1
93	135	1
24	35	3
18	79	1
41	53	1
90	115	1
103	120	1
72	72	7
129	139	2
67	121	3
135	136	4
122	136	2
2	20	1
93	94	9
2	18	2
78	131	3
15	17	4
97	157	1
127	131	2
34	35	5
95	116	1
48	79	1
16	17	9
69	70	5
108	110	2
40	42	7
88	152	2
48	84	1
97	158	2
47	49	4
36	107	2
69	71	1
45	50	1
128	130	1
146	148	1
50	52	4
144	147	1
42	52	3
86	91	1
14	32	1
62	63	4
79	81	2
116	134	3
95	109	6
13	15	8
105	147	2
83	121	1
128	139	3
45	51	1
11	13	5
68	155	1
24	48	4
14	116	3
69	96	3
96	149	1
131	133	2
122	133	1
113	132	1
37	47	4
96	109	1
125	127	1
3	35	2
108	114	4
95	142	2
71	125	3
134	139	1
148	156	2
127	132	2
47	58	1
70	121	1
108	115	3
44	99	3
35	65	1
2	24	2
98	156	2
56	63	1
40	77	1
18	30	3
139	143	1
39	48	1
66	158	1
33	46	1
32	53	1
138	155	2
82	85	1
75	129	1
143	154	4
101	102	4
44	75	1
148	155	1
110	112	1
16	35	1
84	93	1
4	28	1
66	102	2
104	151	1
28	82	3
8	12	2
77	84	3
66	72	3
82	84	2
35	37	2
94	113	2
98	150	2
68	154	1
39	43	4
48	50	2
0	154	3
150	151	1
28	30	2
11	15	2
113	115	2
123	137	1
23	87	1
67	77	3
131	134	1
97	110	2
119	122	1
10	30	1
141	148	1
86	89	2
50	56	3
4	11	1
16	48	2
90	92	1
93	117	1
37	43	2
11	125	2
142	147	1
139	140	3
87	147	1
97	148	1
103	122	1
99	140	3
65	73	3
97	150	1
78	84	2
45	46	2
47	51	1
97	112	2
127	135	1
10	53	3
1	5	1
68	126	1
122	153	2
38	51	1
34	55	1
18	87	1
137	139	3
80	81	2
112	116	1
54	55	9
81	86	3
22	29	1
119	121	1
152	154	1
122	126	2
66	96	1
9	138	2
131	136	1
113	117	1
26	27	4
126	147	2
144	150	3
14	31	5
107	111	2
142	146	1
103	151	1
68	97	1
37	39	1
101	128	1
51	65	1
138	140	1
46	62	2
25	38	2
127	130	1
94	108	1
90	93	1
17	89	1
127	128	2
87	120	1
26	37	2
121	127	1
96	144	1
104	148	1
84	122	1
106	121	1
20	50	2
31	53	1
77	82	2
114	135	1
97	151	1
141	143	1
47	48	1
23	26	2
134	148	1
121	136	1
150	152	2
70	96	3
133	141	1
97	149	2
66	88	1
35	76	1
2	103	1
9	11	1
39	52	1
12	34	1
104	122	1
104	116	1
127	157	1
81	133	1
66	70	1
96	98	1
140	143	1
32	36	1
46	54	2
127	139	1
87	92	2
23	25	1
32	40	1
97	107	1
131	140	1
67	156	2
114	116	3
32	54	2
38	50	1
12	77	1
6	65	1
13	81	1
102	121	1
96	110	1
55	83	2
70	126	1
105	136	2
24	38	1
10	50	1
27	29	2
21	26	1
13	133	1
46	57	1
14	35	1
87	119	1
114	117	1
19	89	1
129	156	1
121	152	1
38	46	1
85	91	1
25	30	1
8	13	1
143	151	1
6	43	1
72	112	1
96	106	1
134	137	2
8	66	1
118	146	1
123	126	1
21	50	1
87	89	1
46	49	1
97	142	1
95	150	1
104	117	1
104	139	1
124	141	1
49	50	1
33	34	1
