84	86	2
71	71	12
19	19	15
65	80	1
77	77	9
23	23	13
88	88	4
20	20	6
5	6	2
60	62	1
87	87	9
18	20	6
69	69	6
78	78	4
89	90	4
74	74	6
8	15	5
27	27	13
57	66	3
12	52	2
59	69	2
24	24	7
18	24	2
53	53	2
20	32	3
34	34	7
3	7	6
75	75	6
49	49	12
59	59	20
60	60	2
76	76	4
9	13	8
9	9	2
64	64	6
14	16	3
83	85	3
5	7	7
22	23	6
77	79	7
46	47	3
65	73	5
15	16	3
84	89	3
13	17	8
86	86	10
59	63	2
19	20	4
4	7	6
7	9	2
62	64	1
12	12	1
11	11	4
61	61	6
8	10	5
85	86	8
70	70	7
3	3	10
8	20	1
12	15	1
24	28	6
10	14	2
83	83	12
54	55	3
59	68	13
10	20	8
66	67	4
24	29	2
17	17	2
27	29	1
58	64	2
68	71	4
4	6	1
22	22	5
60	61	3
9	30	5
58	66	4
55	57	1
49	54	1
84	84	6
30	30	3
58	67	2
56	56	1
25	27	5
74	76	3
76	77	3
17	19	6
88	90	2
79	80	3
16	16	13
21	21	3
63	74	2
9	12	1
0	1	7
8	13	1
8	8	5
51	51	4
55	58	3
67	69	4
59	62	1
67	68	4
11	24	2
5	5	9
10	19	4
65	67	1
74	75	5
48	56	8
47	47	3
52	53	2
66	71	3
17	24	12
48	48	7
69	74	5
57	60	3
59	60	3
75	80	4
68	75	5
4	4	4
87	88	3
10	10	5
0	3	2
4	8	3
75	81	1
46	48	3
50	54	3
89	89	8
54	54	1
47	53	2
63	72	4
62	62	5
14	15	2
70	76	4
29	30	4
50	50	1
64	71	2
79	83	2
11	52	2
72	83	3
30	31	7
0	0	2
77	86	1
58	69	1
49	52	1
84	85	4
5	9	4
73	76	1
53	56	1
77	82	4
69	72	1
47	55	2
68	69	1
9	11	6
19	24	1
7	10	5
59	65	6
68	81	4
50	51	3
5	12	2
2	15	1
2	3	3
1	2	3
63	66	2
78	83	4
14	33	1
59	61	2
72	72	2
52	56	3
85	85	6
3	13	3
5	8	1
11	12	1
19	25	2
74	78	2
4	5	5
83	87	5
76	83	4
53	59	1
73	77	5
51	57	3
33	33	6
66	69	1
47	56	4
68	68	8
58	58	3
62	66	5
48	54	2
66	70	4
2	2	4
55	56	1
75	86	3
76	80	3
78	79	7
57	58	3
26	27	1
31	31	2
54	61	1
1	4	4
14	14	4
11	48	2
11	63	1
25	25	1
12	19	2
63	63	2
65	65	4
78	84	2
65	69	2
6	10	3
61	64	1
29	33	1
85	87	1
52	64	1
51	62	2
52	62	1
55	61	3
87	90	1
65	72	5
57	64	3
79	88	1
46	46	1
47	48	1
6	59	3
79	89	1
6	8	2
85	88	1
11	13	1
86	87	1
7	13	3
52	55	1
69	80	2
66	72	4
22	25	1
20	22	1
55	60	2
80	82	2
67	73	3
7	7	2
1	1	1
28	30	1
57	57	2
19	28	2
25	26	3
82	83	1
5	14	1
8	16	2
83	84	4
20	21	4
82	82	2
68	74	1
50	52	1
6	13	1
6	17	1
5	11	1
23	27	2
0	7	2
62	67	2
21	28	1
11	15	1
75	84	3
57	59	2
51	52	3
48	50	2
66	73	1
73	75	1
3	8	2
11	21	1
6	6	2
77	78	1
5	20	2
10	52	1
81	81	1
62	71	1
65	66	2
75	76	3
56	57	2
55	65	2
14	17	1
79	79	2
6	12	1
51	54	3
80	80	1
75	87	1
9	22	1
11	16	1
84	90	1
55	66	2
3	4	3
54	65	1
13	13	1
19	23	1
57	61	2
8	19	2
50	59	1
32	32	1
70	75	1
0	2	1
23	24	2
9	68	1
80	81	1
71	75	1
4	9	1
10	12	1
46	57	1
71	78	1
1	8	1
19	54	1
18	19	1
11	14	1
