41	45	1
131	131	10
167	167	1
133	133	3
181	181	16
88	88	5
61	63	6
134	149	3
189	189	6
32	32	3
182	189	4
120	120	5
163	186	1
71	82	1
161	161	2
11	11	3
187	187	3
170	176	2
22	24	2
16	22	5
3	23	1
7	38	1
163	167	2
78	78	3
96	102	2
44	44	3
136	149	4
51	60	1
162	163	1
58	66	3
157	158	2
69	69	9
130	135	1
60	60	15
21	21	2
194	196	2
20	20	8
159	161	2
96	96	9
155	155	1
159	159	2
29	30	6
49	60	3
162	162	6
39	39	4
94	114	4
185	185	2
196	196	3
17	38	2
40	42	1
144	146	3
148	154	4
179	187	4
155	166	3
6	6	3
72	79	6
22	33	4
59	59	4
5	5	2
53	53	5
89	89	5
125	138	4
45	45	7
7	7	4
186	197	3
31	31	1
15	17	2
187	191	3
128	128	8
9	9	1
168	168	7
197	197	3
137	146	2
109	121	1
14	31	5
76	79	3
169	171	3
190	190	6
195	196	2
180	187	1
58	65	2
54	56	2
24	24	1
190	195	2
11	13	2
123	123	3
124	124	3
88	99	2
27	27	3
35	49	2
73	73	12
152	169	4
127	127	8
70	70	6
179	179	2
53	60	5
94	104	3
180	180	4
99	175	3
162	170	4
48	48	3
179	184	4
184	184	1
84	84	4
158	158	5
113	113	3
141	141	9
134	170	3
139	140	4
25	25	9
137	190	1
23	23	3
134	169	2
0	0	5
59	80	2
77	85	6
8	37	2
157	163	1
158	179	1
111	113	1
117	117	3
171	171	8
163	163	11
154	166	1
65	73	1
30	30	5
1	1	6
77	77	2
18	36	2
85	90	6
177	195	1
54	54	5
61	67	2
4	15	2
64	84	1
96	109	3
147	162	2
81	81	2
48	57	1
191	191	3
7	19	3
55	55	6
63	69	2
63	63	3
157	157	3
2	2	2
102	102	6
139	161	2
69	109	1
103	189	2
45	53	3
108	108	6
106	106	2
132	135	6
174	177	1
39	57	3
113	125	1
135	135	9
73	74	1
37	37	5
114	131	2
171	172	4
115	120	6
156	158	4
44	87	1
19	24	2
15	55	3
54	72	1
105	136	4
107	107	3
138	147	3
57	57	3
15	15	3
136	139	1
18	23	2
6	18	4
8	26	2
7	8	5
185	194	3
166	182	1
8	32	2
156	171	3
4	22	4
65	68	2
138	186	7
127	132	2
84	85	1
117	134	4
158	169	1
105	134	5
176	189	1
95	95	3
119	119	1
89	137	2
67	67	2
62	63	2
33	33	4
114	114	4
113	117	4
194	194	6
53	179	2
58	58	3
76	76	4
100	104	2
182	190	2
106	108	2
182	184	2
126	129	1
65	65	4
100	100	1
104	104	1
15	16	5
77	80	2
40	115	2
143	148	3
118	131	3
4	5	3
150	157	3
40	48	2
139	139	4
114	124	2
130	130	3
8	53	2
110	110	9
90	90	3
106	112	1
29	41	2
145	165	1
67	77	1
115	147	1
36	49	1
18	18	6
148	160	3
82	84	1
126	131	2
14	14	3
152	164	1
174	175	2
52	52	2
28	80	2
83	83	3
77	78	1
34	56	2
3	16	1
29	134	2
175	193	3
83	86	6
1	19	2
142	147	2
47	47	1
12	12	1
155	156	1
68	72	5
175	175	4
134	134	1
188	188	3
103	103	1
184	185	2
170	178	4
64	64	1
82	82	2
32	33	1
149	149	3
64	80	1
7	56	2
71	71	4
76	81	2
183	183	5
196	197	1
116	116	1
14	44	3
85	85	6
156	156	1
131	140	1
38	38	1
168	182	2
119	124	2
129	129	2
39	43	3
154	187	2
125	125	3
53	54	6
16	17	1
108	118	1
54	61	1
15	41	2
29	48	1
155	162	1
166	184	2
120	129	1
8	31	1
152	152	1
192	192	2
118	139	2
63	65	1
111	131	3
76	90	2
86	94	1
19	40	1
17	17	1
103	124	1
195	197	3
148	148	2
72	89	1
83	121	1
104	106	1
118	118	2
164	175	2
68	68	4
146	146	2
171	174	1
103	104	1
106	118	1
178	190	1
182	183	4
4	12	2
132	138	3
170	170	2
28	46	1
10	11	3
40	46	2
122	136	4
51	51	1
43	56	1
103	107	1
156	162	2
2	11	2
193	197	2
133	134	4
101	101	2
87	93	1
146	164	2
14	25	1
27	40	4
140	140	2
87	94	1
60	61	2
49	50	2
145	145	4
79	85	3
121	122	1
195	195	3
45	50	1
17	20	1
16	30	5
35	82	3
144	144	6
41	41	9
179	180	2
175	192	2
150	170	3
48	49	1
153	153	1
34	34	1
1	2	1
124	126	2
178	184	1
82	89	1
136	136	1
17	18	2
97	100	1
15	21	3
146	150	1
110	115	2
167	179	1
174	174	7
150	150	2
24	37	3
167	182	3
36	192	1
177	177	4
125	143	2
34	45	3
60	66	1
112	112	2
29	29	2
88	95	2
128	129	2
112	149	3
161	162	1
106	113	1
121	121	3
111	111	2
40	40	1
5	7	1
108	111	3
193	193	1
108	109	1
133	142	3
174	176	3
142	142	4
120	121	4
29	44	1
177	180	1
82	90	1
181	186	1
27	45	1
68	70	1
62	70	1
119	120	1
85	89	1
61	61	1
9	10	1
117	118	2
110	120	4
147	147	1
34	35	1
146	162	2
26	28	1
180	193	1
113	118	1
30	48	5
14	29	1
105	107	2
185	195	2
100	101	1
49	59	1
75	75	1
135	144	1
136	191	1
97	97	1
168	184	1
44	54	1
130	133	1
126	126	1
160	161	1
33	62	2
83	109	1
107	119	2
129	135	1
124	146	1
26	26	3
154	156	3
168	170	1
22	22	2
0	137	2
33	48	1
11	44	1
69	77	2
163	181	1
187	196	1
59	70	3
194	195	2
169	169	3
39	68	1
3	28	1
43	43	1
54	141	1
138	138	1
183	184	1
110	131	1
145	152	1
172	185	1
50	50	5
46	46	2
36	37	1
2	12	1
57	58	2
88	93	2
21	38	2
189	190	2
52	160	2
190	197	2
153	190	1
68	86	1
19	19	1
20	28	1
62	87	1
105	105	1
135	152	1
17	29	1
151	169	1
11	12	1
96	105	1
125	126	1
14	56	2
4	7	1
81	82	2
179	181	1
173	176	1
42	42	1
172	172	1
115	115	2
52	55	1
151	151	1
170	172	1
5	12	1
72	73	1
27	39	1
99	99	1
8	8	1
145	157	1
58	62	1
132	132	1
115	118	1
58	84	1
170	191	1
95	106	1
167	170	1
84	86	1
4	4	1
66	66	2
43	192	1
137	137	1
168	169	1
17	36	1
39	52	1
122	134	1
5	28	1
157	161	1
58	74	1
105	111	1
62	85	1
116	136	1
14	54	1
192	193	1
60	85	1
129	145	1
