184	185	3
173	173	2
120	120	3
3	3	6
154	155	4
217	217	8
238	239	3
223	223	3
211	223	2
222	222	5
112	113	5
30	30	6
203	203	4
28	28	9
26	26	4
216	219	2
162	162	4
214	214	9
63	63	8
107	107	1
9	9	7
42	43	2
81	82	1
105	105	6
54	54	1
39	161	2
171	172	2
7	7	3
237	238	2
154	160	4
55	59	1
44	44	2
103	103	2
19	19	10
102	102	2
167	167	7
110	110	4
215	215	12
8	8	4
42	42	5
210	210	6
56	57	3
53	53	3
3	6	3
57	73	4
68	68	3
46	236	2
94	94	6
176	176	3
64	65	2
10	10	15
204	204	4
234	234	2
48	51	3
170	170	9
112	112	2
87	87	7
220	220	6
50	50	8
227	227	9
151	151	8
25	26	1
157	157	2
154	154	9
70	71	6
118	170	1
160	160	4
212	212	10
37	37	5
156	156	3
181	181	6
82	212	1
187	191	3
21	21	1
61	62	3
114	114	4
72	72	6
81	81	4
65	65	8
226	246	2
48	48	2
45	46	1
61	61	2
163	224	2
226	226	3
36	37	4
90	91	4
43	236	1
104	208	1
91	92	2
34	34	4
71	71	2
216	216	6
35	36	1
2	2	4
29	32	3
162	208	2
231	231	3
34	35	6
8	62	2
179	179	3
228	228	1
52	53	3
163	163	4
153	205	4
55	55	10
183	183	9
191	191	1
27	27	4
95	95	9
86	87	6
197	197	6
174	175	1
230	230	2
89	90	1
246	247	1
196	196	7
183	197	1
27	28	1
199	199	2
19	20	4
24	24	4
86	99	2
82	84	1
229	230	9
208	208	4
109	109	6
157	159	3
43	43	3
218	218	2
106	107	3
201	201	7
116	116	4
47	47	1
31	32	2
178	178	9
14	14	3
88	88	1
47	48	3
71	87	1
16	16	4
165	165	1
235	235	8
161	161	11
237	237	2
155	155	3
91	91	3
49	49	3
95	96	4
232	232	2
76	76	5
193	193	4
113	113	4
84	85	2
87	88	5
110	111	1
195	196	3
192	193	1
52	55	3
224	224	3
94	95	4
117	118	2
232	233	2
32	34	2
89	92	1
167	209	2
182	183	2
2	9	2
101	102	5
219	224	1
75	85	1
170	171	3
218	225	4
177	177	3
198	199	2
1	1	2
74	75	3
2	3	3
33	33	1
205	205	1
114	115	3
106	106	1
54	55	1
186	187	2
246	246	1
11	11	4
150	150	5
239	239	1
18	18	3
5	6	2
16	35	1
185	185	1
6	7	5
225	226	5
100	100	6
197	198	1
215	237	2
215	216	2
244	244	4
115	117	1
45	45	5
225	225	10
6	6	6
97	97	1
188	189	2
41	235	3
22	22	3
152	176	2
226	227	3
32	32	1
73	73	3
5	5	3
162	167	1
149	178	3
25	25	2
77	101	2
40	53	1
182	225	1
15	16	1
75	99	1
162	166	1
220	222	2
60	65	1
117	171	2
67	68	1
61	66	2
176	177	3
38	39	2
158	158	2
117	117	7
20	100	1
80	81	4
10	11	1
187	197	3
180	181	1
17	17	5
84	100	2
211	211	2
236	236	3
85	85	4
60	60	1
20	21	2
37	38	2
167	168	2
99	99	4
229	229	3
55	212	2
76	119	1
181	182	1
79	80	2
67	72	2
182	197	3
20	20	2
39	39	1
77	78	4
69	70	1
187	187	3
51	236	1
67	67	1
40	41	1
92	92	2
174	174	4
51	51	2
54	83	2
60	68	1
35	35	3
171	171	4
104	104	2
184	184	1
225	246	2
147	147	1
22	23	4
108	171	1
149	179	1
24	155	1
31	31	1
38	38	2
208	209	2
6	64	1
49	50	3
23	23	1
162	209	3
213	220	3
219	220	3
57	57	3
93	94	1
180	199	1
154	156	2
178	179	2
66	66	1
18	54	2
4	6	1
155	159	1
51	214	1
118	118	3
32	33	2
96	96	1
57	58	1
150	151	1
202	202	4
209	209	1
70	70	1
116	117	2
83	83	1
155	156	1
152	152	1
245	245	1
96	97	1
200	200	2
15	37	1
111	111	2
15	15	1
57	80	1
75	75	2
172	172	1
186	190	1
244	247	1
244	245	1
237	239	2
8	55	1
29	29	2
16	32	2
40	40	2
52	52	1
69	69	4
51	213	1
169	176	1
180	180	1
188	188	1
199	200	1
56	73	2
186	192	1
166	166	1
242	242	1
59	65	1
4	47	1
110	115	1
119	120	1
101	101	1
