134	134	8
105	107	6
120	121	3
6	6	8
165	165	12
22	84	5
53	53	2
43	44	2
171	171	2
77	77	6
6	43	1
145	145	4
41	42	8
101	106	4
60	61	3
162	166	2
159	178	2
166	166	5
106	125	3
63	63	4
82	82	7
67	67	3
120	120	2
0	36	2
79	79	6
75	76	2
92	110	2
66	67	4
36	169	2
175	176	2
66	90	3
179	179	1
74	74	3
167	167	1
174	175	1
164	164	5
14	14	3
56	56	3
141	141	3
153	153	3
168	168	2
130	130	2
114	115	4
115	115	3
41	78	2
131	131	4
116	118	5
34	35	1
22	23	3
55	55	8
110	111	2
35	36	3
155	156	4
3	3	4
105	105	2
60	77	1
38	38	1
18	20	2
29	29	2
137	138	6
121	121	8
33	33	7
103	103	1
73	73	10
159	159	3
95	95	3
90	90	5
138	179	5
42	42	1
180	180	6
152	152	3
144	144	5
124	124	3
65	90	1
173	173	4
12	13	2
94	94	2
36	36	3
99	99	5
37	38	2
81	82	3
32	32	5
76	76	7
39	41	2
89	89	4
97	98	2
10	10	3
133	133	1
126	126	3
40	41	2
163	163	3
162	163	1
91	168	6
46	62	2
127	127	2
109	109	3
10	11	4
169	170	5
54	119	1
80	80	3
65	91	1
71	125	4
119	129	2
137	137	2
87	87	4
103	129	1
117	117	2
8	13	1
136	136	1
11	13	1
120	136	3
19	20	1
86	87	5
61	61	1
88	88	4
142	142	4
23	60	1
116	117	3
71	71	6
126	127	1
79	80	3
75	75	2
40	40	4
30	30	8
96	97	2
140	141	1
114	114	3
84	84	2
100	155	1
67	108	1
5	10	3
138	138	1
107	107	1
150	151	2
108	108	1
166	169	1
104	105	1
139	139	1
8	8	1
179	180	2
63	109	3
34	34	3
59	59	3
169	169	4
62	62	3
140	140	3
83	85	2
41	41	1
148	148	1
150	150	1
83	86	1
176	176	1
111	111	4
134	139	2
155	155	2
84	87	1
156	156	1
86	86	2
12	145	1
132	132	1
118	126	1
81	81	3
120	146	2
160	160	2
64	65	1
61	154	2
148	149	1
55	56	2
3	4	1
39	40	1
168	173	1
123	125	1
128	129	1
82	83	1
147	147	2
13	13	2
157	159	2
15	15	2
50	144	1
22	76	1
78	79	3
9	9	1
140	167	1
29	33	1
72	72	1
21	21	3
60	60	1
171	172	1
110	154	3
50	51	1
113	113	3
16	16	3
77	109	1
13	45	2
2	2	1
64	88	1
73	170	1
160	161	1
5	7	1
73	171	1
31	32	1
52	138	2
135	137	1
65	67	1
153	156	1
12	12	1
57	58	1
133	172	1
35	35	4
125	125	1
57	60	4
84	85	1
64	64	1
123	124	1
17	17	1
61	84	1
128	128	1
139	174	1
63	64	1
83	83	1
130	131	1
43	43	1
101	101	1
107	108	1
