116	117	12
105	105	7
98	99	7
54	54	7
28	28	3
31	31	9
62	62	18
45	45	6
74	74	9
107	107	10
47	48	2
49	49	8
125	125	18
106	106	12
86	86	9
18	18	9
32	32	7
123	123	6
103	103	8
22	22	12
98	98	3
12	15	2
145	145	5
94	116	8
14	14	9
96	97	4
95	95	5
141	141	7
11	14	3
13	13	8
19	19	14
144	145	8
154	154	9
56	56	7
108	108	10
120	121	2
35	36	8
66	67	8
93	93	10
149	149	13
115	115	7
97	97	6
39	39	6
56	57	3
5	28	2
127	127	9
73	85	1
76	78	1
21	45	4
113	125	1
100	100	4
25	25	7
33	35	5
147	147	6
46	46	9
25	27	1
29	30	3
128	128	6
142	146	1
23	44	1
38	43	5
46	152	3
30	30	2
124	124	7
142	142	3
119	120	6
46	71	4
7	9	5
105	108	5
12	12	8
128	141	1
40	41	5
100	102	7
21	41	5
57	77	4
42	42	7
104	104	3
132	132	6
112	145	3
134	134	3
21	21	15
34	34	7
70	71	2
121	142	3
140	148	2
78	78	2
42	48	2
126	126	2
71	130	3
120	122	5
24	25	10
133	148	3
101	101	6
21	23	2
69	69	2
66	66	4
130	130	5
150	151	6
93	95	2
70	70	7
72	72	5
84	88	3
128	149	3
119	119	9
72	146	1
131	131	17
3	4	2
118	118	5
122	122	12
83	83	6
27	37	3
109	110	7
11	11	11
126	141	4
145	146	9
44	44	12
137	137	11
147	148	1
112	149	1
47	47	8
23	24	1
112	112	19
80	81	3
138	138	4
81	82	7
70	73	5
48	48	7
152	152	4
29	29	9
102	102	14
131	132	4
10	11	4
28	129	1
72	73	2
120	120	9
109	109	2
16	16	5
84	84	2
142	144	6
53	54	4
57	58	2
153	153	8
71	104	2
17	17	9
130	131	2
17	19	1
10	10	5
18	26	4
134	154	2
53	53	7
47	49	2
55	58	1
121	121	7
27	27	8
16	33	3
79	80	6
22	23	2
53	55	1
36	36	4
12	13	9
19	21	1
81	83	3
5	5	9
34	35	2
92	92	4
8	8	5
93	115	2
82	82	3
143	143	4
133	133	5
22	26	2
123	124	6
110	110	6
72	74	3
64	65	4
9	9	9
76	76	6
32	34	1
114	114	7
38	57	3
34	39	3
110	138	2
100	101	5
144	144	12
57	57	4
37	37	6
6	7	4
27	29	4
96	96	4
19	20	5
125	126	1
23	42	5
126	131	1
50	51	2
81	81	7
33	33	7
116	116	5
65	65	5
99	100	6
42	56	2
139	139	6
56	66	2
80	80	1
11	145	5
148	148	3
30	31	5
7	7	3
111	111	4
121	146	3
129	130	4
88	139	1
85	85	4
18	45	2
25	32	2
38	42	2
14	16	3
74	75	4
40	40	5
92	94	1
77	77	8
136	136	3
79	79	5
68	68	3
112	122	2
104	105	1
13	14	4
24	30	2
67	68	1
131	135	3
14	15	3
122	142	2
5	6	7
68	69	2
67	67	5
113	114	1
133	137	3
36	37	1
71	108	3
113	123	1
26	151	1
143	146	1
86	88	3
20	151	1
3	3	2
113	124	1
140	140	2
71	71	2
32	33	1
9	17	2
4	4	5
7	28	1
15	15	1
77	81	1
114	119	1
89	89	1
25	26	2
92	93	1
148	149	1
23	23	1
93	94	1
38	39	4
97	98	1
24	40	1
146	146	2
94	94	3
124	128	1
78	79	1
6	8	2
36	39	3
84	86	2
151	151	5
87	88	1
28	29	3
4	6	3
30	32	2
37	38	2
78	85	3
22	42	1
24	24	1
8	137	1
56	75	2
42	45	1
26	27	1
124	125	2
143	144	2
99	99	4
131	140	1
22	37	1
55	55	1
18	19	1
8	10	2
58	63	1
104	106	2
93	98	2
16	28	2
13	15	1
19	22	1
26	26	3
72	141	1
8	9	2
117	117	3
136	139	1
119	123	1
99	136	2
87	104	2
71	72	1
125	128	1
126	127	1
17	18	1
136	137	1
39	40	4
6	27	1
114	116	1
87	87	1
20	21	1
51	51	1
139	140	2
23	30	1
15	33	1
129	132	1
33	34	1
112	113	1
11	15	1
136	138	2
127	130	1
102	105	1
105	106	2
38	38	1
103	104	1
149	150	1
147	150	2
5	30	2
107	109	1
96	99	1
41	41	1
106	107	1
73	74	1
121	122	1
129	129	2
139	145	1
39	44	1
103	137	2
35	35	1
19	78	1
90	90	1
134	135	1
11	141	1
43	44	2
2	3	1
113	122	1
43	43	1
41	56	1
2	2	1
18	27	1
147	149	1
90	92	1
