39	39	5
62	62	12
127	128	5
139	139	4
56	56	10
54	54	5
21	21	2
88	88	5
67	68	2
103	103	4
26	70	2
98	98	10
102	103	9
3	4	5
86	87	2
140	140	10
83	84	1
40	41	1
130	131	7
89	89	8
83	83	5
92	92	7
87	87	3
55	55	2
33	33	8
27	27	4
41	41	10
97	98	6
59	59	19
80	80	10
13	15	2
121	121	13
20	20	6
59	70	4
90	90	10
128	128	4
110	123	4
109	109	12
102	102	9
125	125	2
131	132	8
36	51	1
65	66	10
64	64	12
33	36	3
1	47	1
79	79	2
111	111	4
30	30	6
33	65	3
77	78	8
58	60	2
94	117	2
99	99	12
19	19	9
29	29	11
26	26	5
67	67	10
38	38	5
63	65	2
73	74	4
132	132	5
24	31	5
11	11	7
35	35	8
115	116	5
105	105	14
23	25	9
101	101	18
106	106	9
96	96	10
88	90	1
37	47	4
113	118	2
27	63	4
76	76	9
5	5	3
117	117	2
98	99	2
52	52	5
100	100	7
72	72	9
60	60	7
126	126	17
68	69	7
64	66	5
91	92	4
118	118	6
94	94	8
136	139	1
61	62	3
58	58	8
6	6	4
75	79	3
22	22	11
111	112	3
15	17	4
120	120	4
53	53	9
108	108	6
62	67	1
115	117	3
71	72	7
94	123	2
129	129	7
112	113	6
18	18	5
121	140	7
66	66	4
10	10	17
143	144	2
23	31	3
39	42	3
78	104	2
35	36	5
109	122	1
4	4	3
12	17	2
71	71	1
139	140	2
75	75	2
137	139	3
117	118	2
8	8	11
65	65	8
97	100	2
93	95	5
31	60	1
123	123	7
32	33	6
87	91	1
131	131	9
108	121	1
43	43	6
13	36	4
9	9	4
137	137	3
73	73	12
105	106	3
28	28	11
80	82	2
104	104	5
135	135	3
100	101	1
18	32	3
141	141	6
20	21	8
142	142	7
127	127	6
107	120	5
130	130	4
15	16	1
82	83	4
14	15	4
37	37	9
20	37	1
0	2	5
90	111	1
95	95	8
98	101	1
49	51	3
107	107	7
124	135	1
115	115	2
19	21	2
1	1	3
81	117	6
123	124	5
137	138	4
63	63	10
81	81	2
97	106	2
136	136	8
13	13	8
40	40	5
61	61	9
25	26	8
82	82	4
29	81	2
96	105	1
85	85	3
21	63	3
92	93	4
36	36	2
15	15	3
60	84	3
77	77	4
48	48	7
50	50	1
63	64	3
138	138	1
17	17	6
60	61	4
101	102	3
4	5	3
39	40	2
18	33	2
143	143	4
18	19	3
68	68	4
59	75	4
34	36	2
23	30	1
32	32	2
92	110	1
49	49	5
141	142	1
41	42	4
74	79	1
61	63	3
137	140	2
112	112	2
108	120	2
16	16	6
59	67	1
116	116	3
78	83	1
2	4	1
119	119	1
72	73	3
57	57	3
128	130	4
142	143	2
21	22	1
97	97	3
1	48	2
80	86	1
31	31	3
97	118	2
113	114	4
9	10	3
78	78	2
93	93	11
32	67	2
99	107	3
110	125	1
95	98	2
57	72	3
24	87	3
70	70	6
54	55	2
14	43	4
127	137	2
106	109	2
26	27	1
116	117	4
93	108	2
20	36	3
78	114	2
25	27	2
10	11	5
48	49	2
33	34	2
29	30	3
23	23	5
47	47	1
14	16	2
23	32	1
25	25	3
27	28	2
30	31	1
110	110	3
62	63	1
146	146	2
15	43	2
69	69	3
13	33	1
3	3	1
53	54	3
113	116	2
114	114	1
2	3	3
82	85	3
145	145	2
96	97	3
64	67	2
28	94	1
134	134	2
33	52	2
96	118	1
92	95	3
128	129	2
53	58	1
28	116	1
84	84	3
29	86	1
2	2	1
19	33	1
53	56	1
103	105	1
113	113	1
109	112	1
58	59	1
8	9	1
133	133	2
88	89	4
104	105	3
31	86	1
77	114	2
56	68	1
19	20	1
92	124	2
13	14	1
126	134	2
60	75	1
76	77	3
109	120	1
20	38	1
6	43	1
55	56	1
144	144	2
76	78	1
42	42	1
82	84	1
61	81	1
75	80	1
49	50	1
18	23	1
136	140	2
8	38	1
80	81	1
60	82	1
76	79	1
108	123	2
122	123	1
74	75	1
27	29	1
1	2	2
74	77	1
123	135	1
90	125	2
91	91	1
91	110	1
132	133	1
113	115	1
126	127	1
78	103	1
73	75	2
75	76	1
122	138	1
114	115	1
62	64	1
53	67	1
81	83	1
34	34	2
110	111	1
98	107	1
38	42	1
