115	115	7
115	117	1
20	190	3
15	15	16
229	230	2
172	173	1
3	3	10
212	212	16
15	22	1
18	20	2
227	227	15
65	65	10
225	226	12
187	187	9
154	154	11
1	1	7
192	192	13
158	158	9
236	237	4
199	210	2
29	31	1
176	177	4
133	133	11
119	119	9
63	63	5
81	82	5
209	209	12
179	179	6
97	119	5
220	220	3
28	62	4
121	121	9
84	85	2
213	214	7
58	60	1
31	33	6
73	73	13
187	191	1
33	36	4
17	17	10
146	146	5
40	40	4
20	22	1
201	202	3
46	46	4
106	106	17
80	81	11
123	123	8
154	184	4
176	176	17
71	73	3
158	161	2
191	192	3
1	58	3
27	30	4
85	85	19
68	69	4
76	109	5
107	107	4
210	211	7
162	162	18
75	75	8
125	129	5
170	170	12
121	122	4
27	27	12
236	238	5
74	74	11
31	107	2
140	140	7
72	72	14
150	153	9
205	205	7
215	217	1
21	22	4
215	215	9
150	150	9
27	29	12
100	101	8
59	59	4
81	81	15
226	226	9
28	29	7
218	218	18
109	109	12
183	183	4
6	8	4
136	136	8
102	113	3
216	217	1
239	239	9
143	144	4
201	201	16
135	136	8
38	69	1
99	103	4
161	161	2
218	222	6
143	146	5
52	54	5
169	169	2
147	148	10
79	81	6
195	195	13
193	193	9
233	233	13
45	45	4
135	135	6
39	41	10
142	146	5
236	236	7
137	137	4
156	163	6
10	26	3
229	229	13
149	152	1
218	219	5
4	8	12
198	214	3
155	155	23
74	75	8
18	19	1
231	232	5
78	78	2
191	191	10
214	217	3
163	163	16
181	184	6
58	59	9
224	225	5
144	161	4
57	58	5
63	65	6
199	199	10
149	153	3
36	39	1
60	64	2
168	169	8
194	194	15
180	180	6
52	56	2
151	153	5
171	172	3
186	187	16
222	222	5
82	83	13
83	83	13
11	11	16
211	216	2
73	75	1
208	209	5
37	53	4
84	84	7
8	8	6
42	43	7
214	214	7
0	214	3
17	191	3
43	43	9
29	29	15
166	169	3
196	197	9
237	237	22
124	128	2
0	1	11
66	70	2
188	188	18
220	221	12
18	18	16
33	33	14
122	124	7
66	66	17
1	22	7
223	224	6
67	69	5
208	208	4
62	67	1
176	178	2
238	238	7
227	229	7
30	31	4
138	138	13
233	235	4
98	231	3
155	156	15
207	207	10
177	178	6
12	16	1
66	67	9
49	50	5
78	79	7
74	109	3
225	228	6
145	145	4
56	59	4
168	168	15
33	35	4
174	178	1
204	204	19
154	155	7
116	116	12
178	180	1
49	53	1
129	129	6
203	203	9
185	185	11
97	98	2
210	210	11
51	52	5
52	52	18
221	228	5
112	112	5
143	143	10
140	144	1
100	100	10
69	69	12
32	32	6
48	51	4
141	141	3
4	5	2
12	12	8
41	41	12
22	22	15
102	103	2
130	130	9
77	79	3
144	144	8
216	216	8
206	211	1
80	83	3
165	168	1
167	172	2
197	198	5
182	182	6
159	159	7
173	176	7
43	44	5
114	114	2
2	9	3
200	200	7
45	47	8
241	241	9
55	61	1
33	38	1
139	139	6
111	112	2
156	156	10
202	202	5
203	204	4
113	114	4
156	159	5
19	19	5
76	78	3
0	60	3
28	31	2
64	65	1
192	193	2
39	45	2
1	6	3
199	201	1
101	101	6
2	3	5
134	134	3
223	227	3
4	4	14
170	171	3
103	103	11
143	147	2
134	141	4
234	234	6
5	7	8
62	62	7
159	160	3
126	126	14
37	37	8
120	121	3
198	200	1
173	173	3
122	122	7
211	213	4
64	224	3
47	54	4
88	88	14
156	157	4
8	9	1
152	152	9
13	16	2
70	70	12
37	38	9
16	20	3
141	146	3
221	221	9
71	71	6
137	138	6
238	239	2
36	36	9
83	84	5
169	170	2
64	64	12
105	106	1
24	194	1
219	219	5
217	218	8
159	161	2
15	16	5
135	140	2
79	79	6
177	241	3
140	141	5
11	13	4
124	126	3
212	214	9
155	157	3
72	75	8
3	9	4
34	34	16
7	9	3
161	163	1
100	236	3
68	68	6
171	174	1
228	229	8
4	20	2
116	118	13
55	55	8
157	158	4
149	149	7
9	11	1
10	10	12
39	39	8
2	2	4
31	31	17
108	108	6
175	175	10
119	120	4
47	48	1
79	82	1
49	51	2
84	86	5
168	170	5
124	125	8
52	53	2
162	164	2
104	105	10
109	110	4
133	134	8
189	189	15
170	197	2
198	199	8
167	171	3
37	40	3
64	219	5
35	36	4
164	164	4
82	85	1
30	30	6
5	5	6
227	228	6
190	190	8
61	61	7
242	243	2
187	195	3
1	4	3
63	64	5
6	7	6
59	60	1
107	108	2
160	161	6
20	20	9
194	196	1
54	55	2
52	59	2
171	171	14
78	82	1
16	16	5
147	156	1
141	148	6
177	177	5
38	43	1
182	231	2
128	129	5
214	218	4
20	23	1
0	0	8
65	66	2
54	59	1
195	196	10
221	227	3
32	62	2
177	180	3
198	198	7
148	148	10
235	235	12
240	240	4
205	208	2
165	167	3
179	185	2
39	67	1
16	17	5
13	109	2
80	80	7
70	72	3
103	104	5
201	241	1
196	199	1
205	206	12
26	27	5
173	174	1
14	14	2
211	211	16
185	186	2
139	141	3
197	201	1
57	57	11
27	28	1
242	242	6
95	95	1
109	114	3
2	5	2
101	118	5
183	188	2
128	128	5
42	42	11
202	228	1
3	10	6
234	236	5
188	189	6
136	137	2
99	101	4
117	118	9
21	23	1
237	241	2
174	174	9
167	167	1
170	172	2
80	82	3
225	225	8
177	179	1
125	126	3
13	15	4
28	28	5
207	212	4
114	115	12
86	86	7
222	227	3
178	179	6
164	168	3
228	228	6
141	143	2
18	23	4
67	67	10
231	231	4
184	184	6
6	6	5
234	235	4
0	2	2
239	240	3
238	240	2
190	191	1
228	231	5
117	119	2
222	228	1
23	24	1
209	213	1
43	46	3
178	181	5
200	201	3
201	206	1
76	76	1
36	37	8
73	76	1
211	214	1
197	197	10
235	237	2
95	96	3
11	12	4
166	166	1
196	200	1
12	13	4
120	120	19
175	177	4
44	44	3
50	50	10
56	56	13
222	231	1
169	171	5
181	183	2
75	77	3
47	47	6
55	59	4
58	58	7
175	176	2
33	34	8
211	220	1
138	140	3
123	124	3
83	86	1
206	206	11
9	9	5
223	223	13
181	182	1
197	202	1
84	87	1
10	11	5
150	152	5
195	198	2
54	58	1
105	108	6
125	125	6
5	6	7
26	26	6
196	196	2
149	150	1
202	204	1
7	7	1
77	78	6
27	241	3
4	14	4
41	42	2
232	233	1
147	147	5
132	133	1
105	105	5
205	237	1
113	117	5
158	160	5
163	167	1
24	24	6
199	200	2
19	21	1
26	242	1
51	51	3
19	20	1
147	150	2
127	129	2
39	53	1
134	137	3
23	23	7
44	46	1
113	113	6
42	44	4
123	125	1
166	171	1
230	230	6
168	203	3
121	123	7
232	232	3
32	64	5
62	68	2
187	188	1
70	71	2
28	30	4
70	73	3
99	99	6
230	231	2
1	2	3
230	232	5
218	238	2
118	120	2
98	98	3
131	131	3
96	97	1
114	118	5
76	77	3
166	167	8
24	212	3
9	60	1
147	149	4
162	163	2
156	158	2
63	68	7
35	35	3
18	26	4
49	49	5
217	221	2
72	76	1
73	74	6
174	175	3
99	100	2
151	151	2
82	84	2
182	186	1
54	56	3
186	186	6
145	152	1
209	210	4
124	124	2
49	54	2
100	237	1
54	54	3
134	135	2
114	117	1
36	56	1
44	45	6
184	197	1
79	80	6
55	56	1
204	205	3
150	151	8
219	224	1
1	3	1
188	193	2
9	19	2
141	144	1
161	167	1
144	149	1
138	139	2
113	116	1
220	227	1
179	180	2
228	230	2
165	165	2
10	25	2
77	77	3
38	67	2
207	208	2
157	157	5
205	236	1
103	105	2
34	35	2
226	228	1
75	78	3
220	223	1
223	226	4
16	22	3
38	38	5
180	197	4
135	138	3
121	124	1
194	195	3
38	39	1
225	227	1
67	68	5
98	119	1
221	224	2
237	238	3
60	60	9
162	168	1
63	70	1
223	225	2
226	230	2
213	216	3
207	237	1
165	166	1
73	108	1
171	173	1
96	96	1
235	236	2
96	102	1
206	210	2
193	194	1
105	109	2
37	68	3
145	146	4
53	54	2
103	232	1
130	132	2
170	179	2
234	238	4
8	14	2
184	185	2
163	165	2
233	234	1
128	130	1
26	28	1
211	212	1
51	71	1
160	160	9
110	110	5
104	104	7
208	212	1
172	174	3
152	153	5
143	145	1
145	182	1
119	123	1
178	178	3
42	48	1
138	141	2
154	161	1
118	119	3
29	71	2
2	7	2
222	223	3
18	21	3
98	121	1
201	203	1
188	190	2
25	25	3
151	158	2
45	48	1
95	97	1
3	7	1
53	53	7
12	22	1
192	194	1
82	82	1
215	218	2
135	139	2
51	69	1
75	111	1
192	196	1
122	176	2
17	18	4
172	172	2
61	74	3
153	154	2
210	213	3
134	139	1
56	57	1
130	131	1
9	10	1
66	69	1
22	23	2
142	142	6
17	19	2
29	107	2
161	162	2
52	55	1
181	188	1
34	36	2
157	165	1
164	165	1
109	113	1
117	117	1
213	213	1
186	188	5
146	150	3
32	224	4
104	111	1
35	52	2
64	70	2
45	46	2
139	140	2
212	213	2
199	209	2
60	66	1
3	8	2
30	32	1
215	216	3
151	154	1
98	101	2
107	109	1
118	118	6
25	26	2
4	6	1
183	184	1
153	153	1
170	180	2
37	39	2
89	89	2
58	61	2
48	53	1
119	121	3
201	208	2
67	70	1
240	241	2
98	99	1
77	108	1
156	160	1
18	24	1
211	218	1
217	217	3
101	103	1
33	64	1
51	53	3
206	207	2
20	21	2
147	153	1
193	195	2
211	217	1
2	6	1
132	132	1
214	216	1
162	165	2
117	130	3
112	114	1
21	24	1
92	96	1
48	48	1
103	106	1
202	203	1
163	169	1
122	123	2
30	74	1
224	224	1
111	111	1
75	81	1
43	45	1
16	19	1
5	8	1
213	217	1
106	107	1
89	90	1
169	197	2
205	210	1
140	143	2
24	26	1
204	208	1
158	170	1
119	122	1
144	145	1
58	62	1
155	161	1
217	220	1
226	227	1
142	143	1
78	108	1
101	228	1
159	162	2
221	222	1
86	87	1
102	102	1
86	89	1
85	86	1
144	146	1
196	202	1
125	127	1
26	29	1
201	204	1
219	221	1
231	234	1
14	20	1
116	117	1
203	206	1
210	212	1
22	192	1
75	109	1
158	169	1
180	181	1
28	238	1
