14	15	3
39	42	2
128	128	6
33	33	4
150	156	3
132	132	8
45	46	2
69	138	8
12	13	3
67	135	2
154	158	2
88	88	10
112	137	2
44	44	10
79	81	1
49	50	3
79	79	8
11	15	1
72	111	4
98	98	13
54	54	5
3	4	2
123	124	4
81	82	2
118	119	3
40	41	2
25	25	13
75	75	9
78	78	7
68	139	2
32	32	5
4	4	7
13	13	6
131	131	16
103	104	16
51	51	2
35	43	6
83	83	8
153	154	4
40	40	8
50	50	15
0	105	3
117	122	2
113	114	7
95	95	11
139	140	7
127	127	14
56	56	2
42	43	4
120	121	6
29	29	5
70	70	2
24	25	2
43	43	3
144	145	4
84	84	5
45	146	5
112	112	3
104	105	2
119	126	4
48	48	4
36	36	3
42	42	6
102	103	2
23	24	4
86	86	16
1	1	11
70	137	2
15	15	7
12	12	10
26	26	8
147	147	9
2	2	8
43	45	1
62	62	3
120	147	3
151	152	6
111	111	8
132	133	15
16	16	8
142	142	7
126	126	9
94	94	4
118	118	9
33	34	3
44	91	4
101	101	15
48	52	5
103	103	4
21	21	12
38	38	11
104	104	5
137	137	9
116	116	7
31	31	3
150	150	10
18	18	7
19	21	4
143	143	11
120	120	5
122	123	8
32	48	2
141	142	10
145	145	1
134	134	3
114	115	3
140	140	8
70	71	2
14	14	13
122	122	9
114	117	8
103	155	2
106	106	6
78	91	3
138	138	11
95	96	3
102	132	2
133	133	3
142	143	3
106	107	5
100	100	15
121	145	2
51	52	2
128	129	2
83	87	1
38	40	1
71	71	7
18	51	1
92	92	8
118	126	4
46	136	3
79	90	6
5	5	14
89	89	4
47	47	11
145	147	2
154	154	6
93	93	5
30	30	3
92	94	1
68	80	1
35	41	2
52	52	4
111	112	1
39	39	9
96	96	2
44	45	5
144	146	1
15	17	3
28	28	7
86	124	1
78	79	5
15	20	2
8	8	2
104	134	3
27	27	6
152	152	7
97	98	1
114	114	9
117	118	1
155	155	4
102	102	3
101	135	4
37	38	6
69	69	6
148	148	9
125	125	2
89	91	3
135	135	3
113	113	3
3	135	6
113	115	5
73	73	10
65	65	1
103	105	3
17	17	5
71	136	1
105	106	4
153	153	1
7	7	5
86	87	9
138	142	2
107	108	2
9	10	2
154	155	5
3	70	2
82	82	6
118	122	2
77	77	5
115	116	3
139	139	6
2	96	2
126	127	3
90	90	9
30	31	2
16	20	5
129	130	3
11	16	2
27	97	3
11	13	2
19	19	7
53	53	1
32	33	5
107	107	8
81	81	6
6	126	3
18	124	1
99	99	6
34	34	2
20	21	3
117	138	2
144	144	3
24	24	3
141	141	7
3	54	1
156	156	3
53	55	1
69	72	1
111	136	4
95	136	1
68	68	12
27	28	4
36	41	5
63	63	3
119	119	6
19	20	2
29	30	3
35	35	3
157	157	6
18	21	1
108	108	4
115	117	1
131	132	1
8	10	2
10	10	4
84	88	1
41	41	3
148	151	1
33	47	1
155	156	4
22	22	10
36	37	4
146	146	3
23	23	2
115	115	2
90	91	4
136	136	1
55	55	4
44	73	1
158	158	4
67	68	1
97	97	2
10	11	3
0	0	5
2	27	1
109	109	6
4	54	1
104	133	2
37	39	2
151	151	7
25	27	1
89	90	3
67	67	13
73	74	3
55	124	4
9	9	2
6	120	3
109	112	2
130	131	1
33	45	1
77	78	4
76	76	2
152	154	1
34	45	2
87	87	7
66	66	2
121	121	5
1	2	4
120	126	2
4	57	1
64	64	2
105	134	1
105	105	5
67	70	1
135	136	1
69	70	2
46	46	4
16	127	1
109	142	2
99	134	4
37	37	5
13	126	2
74	91	1
75	82	2
131	133	1
116	117	2
11	11	8
93	94	1
109	110	4
92	93	1
83	85	4
29	96	2
145	146	1
20	20	3
22	24	2
123	123	4
50	56	1
29	31	1
18	22	1
110	110	2
117	117	1
149	155	1
121	122	1
94	95	1
154	156	1
36	38	3
121	123	2
45	71	2
17	119	1
49	49	3
55	56	2
149	149	2
158	159	2
120	122	2
43	44	2
26	27	2
82	83	1
124	125	1
17	22	1
45	45	1
61	67	1
130	130	1
124	124	1
137	138	1
129	152	1
140	141	1
18	19	1
11	12	1
107	141	1
101	155	1
12	14	2
35	40	1
129	129	1
91	91	2
4	5	1
66	68	3
50	51	2
76	77	1
16	17	1
77	90	1
3	3	1
15	125	2
28	30	2
113	117	1
85	86	1
16	126	1
46	48	1
66	67	1
67	69	1
52	56	1
72	137	2
97	135	1
45	47	1
44	68	1
87	88	1
68	70	1
50	55	1
42	87	1
43	89	1
86	88	1
