1	2	7
118	159	4
126	126	7
186	186	7
194	194	4
152	152	2
138	138	4
33	33	12
80	81	2
194	195	2
61	62	5
80	96	1
104	104	9
25	25	2
125	125	1
173	174	1
149	177	3
16	18	1
36	36	4
105	139	2
166	166	1
74	74	3
132	132	7
153	153	2
182	182	6
19	33	6
160	161	1
54	76	4
156	156	3
29	29	4
1	1	8
187	188	2
104	139	4
111	112	2
107	111	8
51	78	6
44	72	1
144	155	4
35	35	6
17	18	3
5	5	4
50	52	4
154	154	3
97	98	4
70	70	1
62	72	6
144	152	1
61	61	2
157	157	5
49	49	5
37	63	6
58	58	2
23	23	2
3	9	3
176	178	5
30	64	2
96	96	5
57	58	3
172	173	1
34	66	2
139	139	1
7	9	4
167	167	5
4	5	2
109	120	1
102	102	1
2	26	3
143	143	6
116	116	4
147	149	4
7	7	2
57	57	5
108	108	5
85	85	6
114	121	3
76	76	7
151	152	2
53	53	2
171	171	3
73	73	3
4	9	2
98	98	1
16	16	2
39	39	3
144	144	1
34	59	4
84	84	2
72	82	1
15	33	3
16	34	2
181	185	2
88	93	2
48	48	5
74	81	1
145	151	3
90	97	5
26	36	2
17	24	3
107	107	4
6	7	2
83	83	2
8	8	9
3	4	2
46	47	2
71	103	5
54	55	3
119	159	3
48	50	1
64	65	2
48	81	2
10	10	1
141	142	8
154	155	2
190	190	3
106	106	7
152	177	1
89	89	2
19	20	3
148	174	1
57	114	1
35	36	3
120	121	1
193	193	3
96	98	2
116	117	1
138	165	2
88	89	1
134	135	2
52	52	5
2	2	1
46	159	2
136	136	1
110	113	2
163	163	3
52	53	3
111	111	3
22	22	2
88	88	3
187	187	1
158	158	2
108	163	2
44	62	5
75	76	1
17	17	3
140	144	1
129	129	2
41	41	3
175	175	2
38	59	1
145	145	1
40	42	3
133	138	1
21	22	1
27	27	2
95	102	1
40	67	4
45	46	2
142	142	4
59	59	5
169	179	3
177	177	2
139	151	2
5	6	4
109	110	1
183	183	4
122	123	1
110	136	2
21	21	1
42	66	3
168	168	4
0	189	3
37	37	3
1	189	1
145	146	3
169	169	3
47	47	2
79	102	3
112	133	1
122	142	1
60	62	4
82	82	1
7	25	1
183	194	2
131	131	2
58	63	2
164	178	3
34	68	2
60	61	1
14	43	2
189	189	4
112	114	1
161	162	1
14	14	3
149	149	5
69	69	3
184	194	1
82	93	4
36	67	1
189	190	2
45	45	1
147	177	2
51	51	2
152	156	1
13	14	1
26	26	1
11	31	4
113	142	1
18	63	3
157	158	1
123	124	2
148	173	1
79	101	2
185	185	1
9	9	3
48	114	2
60	77	1
106	170	1
32	32	2
81	112	2
38	38	1
58	62	1
178	178	2
34	34	1
191	192	1
147	173	2
63	63	1
141	141	1
137	168	1
45	72	2
16	37	1
178	179	1
130	130	1
0	1	2
72	72	3
164	164	1
66	66	3
39	63	1
124	124	1
114	124	2
127	127	2
65	167	1
196	196	2
64	64	1
67	67	1
164	170	1
73	74	1
147	147	1
159	159	1
135	158	2
181	182	2
168	187	2
37	41	1
121	121	1
122	122	2
30	30	1
10	11	2
162	163	1
35	42	1
50	50	2
7	8	1
96	99	2
154	176	1
96	103	1
181	191	3
124	132	1
17	38	1
134	134	1
182	185	1
42	42	1
139	140	1
123	123	3
58	74	1
24	25	1
3	3	1
43	67	2
18	58	1
103	103	1
144	151	2
