86	86	2
82	87	3
34	77	4
61	61	4
78	113	2
73	73	4
71	103	1
35	35	6
75	75	6
107	111	5
68	68	8
53	53	8
101	101	11
26	29	5
98	99	5
20	21	2
97	97	5
26	26	15
109	110	4
103	108	6
104	105	5
24	25	7
44	44	11
54	57	3
73	74	5
77	81	8
109	109	15
19	19	13
34	36	3
106	106	13
87	89	10
58	59	5
21	21	3
82	82	7
58	58	2
43	43	14
36	84	5
110	110	4
46	46	5
65	65	15
102	104	2
64	66	3
104	104	4
77	77	13
79	79	6
96	96	5
47	47	4
114	114	7
111	111	7
103	105	6
23	26	3
60	60	8
23	23	2
68	69	8
34	34	7
66	67	7
93	95	4
80	83	2
100	106	1
92	92	11
106	107	3
22	23	7
100	100	4
56	57	3
49	49	6
96	97	4
22	22	2
113	113	8
87	109	2
93	97	1
110	111	4
54	54	8
50	50	13
112	112	7
108	114	6
79	80	2
37	37	6
71	74	4
76	76	4
36	36	10
50	51	11
60	63	3
32	32	4
93	93	5
88	89	8
108	108	5
94	94	7
96	98	11
35	38	1
42	42	16
67	68	8
87	87	7
72	108	4
29	29	3
27	27	5
21	37	4
104	106	5
66	66	10
22	29	5
79	114	2
59	79	4
105	111	2
52	59	4
62	91	3
33	33	9
87	88	5
108	113	2
103	103	6
84	84	16
86	88	5
59	59	7
105	105	11
45	46	4
86	100	1
95	97	2
51	51	8
55	87	1
44	45	1
41	42	6
56	56	2
27	29	4
90	110	4
80	87	1
107	108	1
75	76	6
87	111	2
22	78	1
46	48	1
60	61	4
91	91	13
35	36	7
38	48	3
47	48	2
78	79	4
33	48	1
64	65	2
86	87	2
89	89	13
83	84	5
25	25	3
107	109	6
88	93	2
80	84	1
95	95	4
38	40	3
73	76	4
90	91	6
86	92	2
31	31	4
46	47	2
55	55	8
24	52	2
29	32	2
80	80	6
74	74	1
49	65	2
43	44	7
69	75	3
53	58	2
70	70	6
71	73	1
78	88	1
57	60	2
95	103	1
39	39	5
62	62	8
27	31	2
21	23	4
78	81	3
64	64	6
24	72	1
70	73	1
45	45	9
55	57	2
98	101	2
105	107	1
83	83	5
50	54	1
78	78	5
69	69	3
45	111	1
30	30	2
63	63	5
53	55	3
62	80	4
95	96	4
63	64	4
48	48	5
79	83	2
47	113	1
35	84	1
85	85	9
97	98	2
71	77	1
54	56	5
34	61	1
71	109	1
51	56	3
102	102	2
115	115	1
38	38	14
94	97	1
48	53	2
44	96	1
81	81	2
57	57	3
33	35	2
21	98	4
22	26	1
78	86	3
99	105	1
48	59	5
35	42	4
100	103	4
20	30	1
86	91	1
111	112	2
72	106	2
81	82	1
76	77	5
72	72	10
63	68	1
38	41	1
71	72	5
25	28	1
93	94	6
52	52	5
43	45	2
68	72	2
77	113	1
92	105	2
25	34	1
101	103	3
52	65	1
77	112	2
79	88	1
113	114	4
59	64	2
108	109	2
102	103	3
74	77	7
107	107	3
99	107	1
92	93	4
110	112	4
42	43	2
52	53	5
34	49	1
72	107	1
80	82	4
107	112	1
40	40	1
49	76	3
61	62	3
20	22	3
25	30	1
57	108	2
24	24	3
89	90	2
66	68	1
59	62	2
84	89	1
77	82	1
53	57	1
82	89	4
22	24	5
43	114	1
41	107	2
64	67	1
95	105	1
62	63	2
36	37	1
86	99	3
90	90	1
70	77	2
101	102	1
99	103	1
32	48	2
47	58	3
108	111	4
25	26	5
84	85	2
83	89	3
76	81	1
37	44	2
79	81	1
98	98	5
76	82	2
38	39	1
55	58	1
27	28	4
71	71	1
34	35	1
92	96	1
86	97	2
51	53	1
51	62	1
90	92	2
57	78	1
34	81	3
43	109	3
33	34	3
43	96	2
47	112	1
67	74	1
34	60	1
33	76	3
73	75	1
91	96	1
41	114	1
72	73	1
23	24	1
42	50	1
36	38	2
112	113	2
44	98	2
21	27	2
21	24	1
53	54	1
96	100	1
88	88	2
104	111	3
26	28	1
57	74	2
56	58	1
41	41	1
40	50	3
51	80	1
77	87	1
21	22	1
29	49	2
28	36	1
29	30	3
92	94	1
40	44	1
82	86	1
56	63	2
23	29	1
61	64	1
54	78	2
51	58	1
26	31	1
39	40	2
52	76	1
38	95	2
86	95	1
101	105	1
25	29	1
37	43	2
35	51	2
34	47	2
52	57	2
28	28	1
26	30	4
41	44	1
100	101	2
22	89	1
71	107	1
75	81	1
67	76	1
70	71	1
41	115	1
80	81	1
19	21	1
70	72	1
67	67	1
59	81	2
40	52	2
55	56	2
58	74	1
22	25	1
95	98	1
59	63	1
97	100	1
26	40	1
48	49	1
24	53	1
