70	71	7
126	126	8
55	57	5
187	187	26
174	174	8
73	73	8
43	43	6
64	64	10
72	72	9
128	128	5
62	62	6
61	61	8
67	98	3
16	109	2
47	47	14
154	154	18
182	182	2
151	153	7
13	48	4
29	29	3
57	57	16
113	113	6
102	102	10
77	77	12
26	57	4
38	77	1
130	130	6
145	145	13
86	86	8
9	27	2
96	97	4
38	38	11
66	66	6
187	188	4
166	171	1
2	2	16
124	125	5
152	153	9
167	168	3
171	171	7
90	90	23
98	115	3
167	167	9
167	169	1
42	82	1
104	104	7
190	190	7
159	159	9
127	127	9
124	170	2
135	136	6
79	79	11
53	53	10
45	46	2
189	189	9
178	178	3
61	63	2
41	41	13
138	138	10
90	116	1
61	62	4
23	81	3
181	181	11
101	101	13
10	10	2
146	146	8
156	156	9
144	170	1
165	166	6
136	137	3
44	48	1
149	149	15
135	135	6
34	52	3
71	71	10
148	148	12
177	181	7
74	75	4
5	5	11
117	118	1
81	83	1
73	74	4
39	39	8
117	129	2
83	83	6
170	172	2
53	56	3
109	109	5
67	67	9
169	169	10
140	140	10
96	96	7
147	147	8
107	108	1
143	143	4
149	153	5
57	58	4
121	121	11
123	125	3
133	138	2
36	36	3
22	22	9
56	57	2
97	97	8
165	170	3
120	120	15
182	183	6
95	95	15
12	27	2
83	84	3
58	63	2
150	150	5
40	40	7
54	56	1
63	63	2
82	82	2
23	23	8
98	98	4
184	184	2
57	89	11
64	108	4
80	80	7
17	18	9
92	94	2
36	37	1
54	54	9
124	124	9
106	107	4
25	26	3
48	48	8
14	22	3
168	168	1
119	120	4
21	22	5
152	152	12
88	88	10
115	115	7
164	165	8
128	183	2
114	135	2
79	84	1
175	175	7
43	45	3
92	131	1
102	104	1
42	42	7
129	187	4
34	37	2
90	115	3
0	0	7
188	189	4
68	68	10
112	112	5
34	34	14
59	62	1
172	172	4
125	125	13
113	119	2
11	12	1
16	17	8
96	140	1
129	129	5
74	74	6
151	151	8
113	124	2
42	85	3
78	79	1
186	186	10
106	111	5
111	111	6
17	17	7
103	108	2
55	55	4
34	38	1
140	141	2
125	126	6
91	92	1
43	44	4
16	16	12
99	100	2
41	42	1
15	15	16
99	99	16
44	44	12
54	55	3
92	144	5
27	27	6
77	78	3
119	119	14
8	8	4
168	170	5
6	6	8
183	183	14
139	140	2
92	92	7
17	79	1
23	82	2
13	14	2
7	8	5
37	83	1
69	69	1
87	127	2
134	134	6
165	165	7
9	10	1
25	25	8
107	107	3
35	35	10
131	131	5
129	131	1
60	60	2
13	43	3
104	119	3
22	24	2
38	103	2
123	124	1
69	144	1
106	106	14
7	7	9
178	180	1
171	172	2
27	42	1
126	186	3
106	109	3
116	116	2
4	4	10
5	6	3
155	155	7
18	19	5
1	1	13
132	139	1
145	146	3
58	58	4
115	139	5
46	47	2
34	35	4
17	20	1
180	181	2
91	91	3
146	148	3
42	44	1
78	78	6
13	27	2
13	37	3
164	164	9
91	114	1
144	174	3
84	85	2
101	102	2
103	114	3
19	19	2
144	144	4
13	60	1
146	176	3
120	147	3
57	113	1
161	161	6
162	163	4
93	131	2
160	160	2
31	31	3
157	157	14
33	33	7
112	113	3
84	84	7
48	111	3
137	137	6
103	103	3
129	130	1
177	177	6
34	53	1
26	48	1
21	23	1
108	109	1
123	123	12
64	103	3
68	69	2
185	185	5
0	1	1
89	89	7
23	36	3
170	170	12
12	12	4
37	76	2
75	76	6
139	139	8
159	162	2
154	155	7
37	38	2
38	41	1
117	117	1
166	166	2
93	94	2
13	13	3
37	37	3
94	142	3
76	79	4
60	61	4
87	145	1
130	131	1
1	2	1
154	167	6
124	185	1
122	122	8
53	70	2
169	170	3
158	158	9
79	164	3
102	103	3
92	120	2
30	32	1
76	76	1
77	140	1
75	75	3
15	78	4
54	61	1
110	171	2
0	191	1
90	119	1
28	32	1
36	59	1
133	133	1
41	78	1
27	28	2
113	120	1
166	170	1
28	28	7
108	108	7
24	24	10
97	98	1
10	12	7
114	119	1
20	20	5
68	144	1
128	152	1
184	185	2
6	7	1
71	72	1
121	176	1
151	152	3
113	134	1
142	143	1
35	59	1
18	18	3
187	189	3
142	172	1
64	65	3
16	58	1
103	141	2
159	160	3
136	136	9
143	171	1
79	158	1
7	42	3
56	56	2
94	101	2
95	141	1
6	47	3
85	86	1
30	30	2
170	171	1
162	162	2
176	177	1
21	80	2
153	153	11
163	168	3
91	151	5
87	88	3
165	167	1
46	46	1
125	128	1
106	121	1
142	142	3
118	118	4
88	128	1
20	27	1
12	14	2
52	53	1
164	171	2
125	183	1
86	155	1
155	157	1
173	173	1
94	94	2
88	89	1
116	117	4
91	174	1
163	163	1
171	173	1
3	3	4
30	41	1
175	176	3
100	102	2
154	166	3
110	110	2
188	188	7
72	143	4
52	52	5
30	33	2
58	146	1
15	17	1
37	85	1
33	34	1
70	70	3
20	21	1
72	73	1
65	148	1
48	76	2
76	77	1
15	16	1
157	169	1
95	134	1
65	66	1
87	87	6
14	15	1
66	180	2
42	83	2
123	174	1
58	60	1
112	114	1
32	34	2
76	86	1
66	67	1
39	116	1
14	14	3
114	189	2
76	164	3
13	61	1
81	81	1
97	104	1
141	172	1
153	154	1
7	83	1
122	186	1
38	39	1
110	111	2
163	166	1
65	65	1
28	29	2
155	169	1
86	152	1
115	150	1
176	176	1
11	11	3
139	187	1
19	21	1
58	61	2
77	102	1
89	94	1
114	114	2
90	150	2
30	31	1
178	179	1
141	141	2
76	78	1
90	120	1
189	190	1
23	24	1
128	153	1
173	174	2
9	44	1
105	105	2
67	182	1
32	32	1
94	133	1
159	169	1
105	106	1
31	32	1
110	164	2
18	109	1
90	114	1
17	25	2
188	190	1
85	85	1
76	165	1
16	110	1
9	12	1
130	188	1
21	21	1
180	180	1
26	26	1
3	79	1
9	13	1
183	184	1
26	39	1
131	137	1
132	132	1
66	105	1
156	157	1
10	11	1
