179	179	7
216	216	13
0	29	2
109	112	6
26	26	6
0	0	6
127	129	4
148	148	1
24	54	4
236	239	5
7	7	6
164	164	11
84	84	4
112	115	1
55	61	3
234	234	5
1	1	5
30	30	3
174	174	8
64	64	3
39	39	3
206	206	1
95	95	4
212	212	2
43	73	2
42	72	2
146	159	6
65	65	9
135	136	4
30	39	3
138	138	3
37	37	3
204	204	5
80	80	7
227	227	2
23	23	10
115	115	8
15	15	3
203	203	8
202	202	17
170	170	5
141	141	3
104	104	3
14	14	2
222	233	1
242	242	1
38	38	6
28	28	3
193	193	6
75	75	2
211	239	3
138	140	2
34	58	1
22	50	2
38	39	6
35	59	5
119	119	2
170	174	4
166	192	2
17	17	2
176	176	2
215	215	4
82	98	1
86	86	3
228	228	3
168	169	1
107	107	3
47	47	3
46	76	2
67	67	3
27	27	3
232	232	4
52	53	1
156	156	6
57	57	4
150	150	2
105	131	3
237	237	3
224	230	1
188	188	4
109	109	5
106	143	2
105	128	3
223	223	5
64	71	1
11	11	5
124	124	3
145	180	1
155	155	3
98	98	4
113	122	4
150	151	3
217	218	3
35	48	1
235	236	3
51	51	4
12	12	2
71	74	4
142	142	3
65	129	2
82	108	1
110	110	2
13	13	4
36	36	3
50	50	1
80	81	2
209	209	4
66	126	1
33	63	6
49	49	2
171	172	1
100	100	6
191	191	3
221	221	5
198	198	1
217	217	3
145	177	2
188	189	1
159	190	2
56	57	3
241	241	1
69	96	3
125	125	2
222	222	4
47	95	2
41	41	1
221	223	1
117	117	6
96	96	1
166	194	3
211	211	5
126	126	3
3	3	2
137	140	5
193	226	2
236	237	4
181	181	2
190	191	3
48	62	4
220	220	1
69	83	4
239	240	1
172	172	3
88	88	2
51	52	1
160	160	3
229	229	8
165	165	5
68	125	5
10	20	4
71	71	7
115	116	2
207	207	6
125	129	1
163	167	1
25	156	5
155	174	4
58	58	4
24	24	2
155	173	4
44	44	9
237	240	1
159	183	2
89	89	2
139	155	1
160	227	1
199	221	2
137	137	2
218	218	6
194	194	4
238	238	1
65	126	3
2	2	1
50	56	1
210	211	2
158	187	2
223	229	1
197	197	1
158	161	1
2	11	2
202	204	3
171	204	1
178	178	2
5	5	1
102	102	1
120	120	1
185	206	2
118	133	1
219	240	2
162	169	1
37	41	1
183	183	2
230	230	2
136	137	2
55	55	3
105	105	2
170	206	2
18	18	6
7	8	1
231	231	3
1	3	2
84	88	1
214	215	3
26	27	2
25	25	5
54	54	2
142	190	1
234	238	2
102	115	2
100	102	3
20	20	2
8	192	1
170	188	1
62	68	2
47	122	1
139	183	3
139	159	1
145	183	2
206	224	1
225	225	2
131	131	1
228	239	2
22	22	1
18	19	1
104	135	1
122	122	1
35	35	2
35	77	3
200	227	2
24	141	2
42	42	2
59	60	1
38	41	1
6	28	2
80	123	4
195	223	2
59	59	2
56	60	1
112	113	2
146	146	1
144	201	3
103	136	2
4	30	1
100	116	1
32	55	1
141	143	1
96	99	1
6	6	3
200	200	1
130	130	1
171	171	1
237	238	1
136	148	2
46	46	2
137	143	1
219	228	1
15	164	1
16	16	1
45	45	1
104	134	2
219	236	1
53	53	1
184	186	1
176	197	1
144	144	1
86	87	1
99	130	1
6	7	3
105	106	1
205	206	1
43	72	2
153	153	1
11	189	2
19	34	1
137	138	1
177	185	1
168	168	3
23	40	1
40	63	1
99	132	2
81	95	1
214	214	1
177	177	1
158	188	1
38	62	3
68	69	2
83	83	2
46	75	1
148	149	1
40	45	2
173	173	2
39	61	1
175	175	1
237	241	1
85	85	2
205	205	1
135	135	1
195	207	1
20	22	2
106	106	1
20	41	2
79	80	1
100	150	1
78	78	1
129	129	1
183	191	1
201	201	1
99	99	1
175	227	1
10	60	1
116	117	1
132	133	1
18	20	2
192	194	1
158	189	1
169	188	1
136	153	1
52	52	1
193	194	1
37	106	1
143	144	1
195	231	1
37	55	1
22	60	1
