29	54	1
9	9	8
64	181	4
194	209	1
155	155	1
98	98	1
19	19	8
15	15	5
247	248	5
241	241	3
43	43	5
215	215	13
203	203	4
221	221	2
94	104	1
42	42	7
37	37	8
27	32	5
239	239	6
240	240	7
33	33	6
230	231	5
237	237	3
61	62	3
63	90	1
216	216	9
78	78	6
106	106	19
179	179	3
98	99	3
90	106	7
77	78	6
201	212	1
99	99	6
34	34	2
5	5	4
100	100	1
63	63	9
99	107	4
207	207	3
80	80	10
26	26	9
157	177	2
208	208	5
201	201	2
247	247	5
187	187	8
55	55	2
15	16	4
85	85	4
84	85	1
170	207	9
217	217	2
34	38	2
70	202	5
165	166	2
91	106	2
236	243	5
193	207	2
233	234	2
169	208	3
48	48	3
161	161	3
41	41	4
55	62	4
59	59	7
11	11	2
173	173	12
170	208	3
222	222	6
23	180	1
27	27	6
81	81	5
12	12	3
211	211	2
60	77	2
193	209	2
29	29	3
59	61	6
69	69	7
171	171	1
192	192	9
198	221	3
24	48	3
32	32	2
223	223	4
245	246	1
214	244	2
22	73	2
226	226	2
87	88	2
56	78	2
200	201	3
216	218	3
198	198	7
51	51	6
244	244	2
30	30	2
174	191	4
196	207	3
152	162	2
178	178	3
168	170	3
232	233	4
162	164	2
172	190	2
193	208	5
174	174	3
8	8	15
207	209	2
57	57	1
183	183	3
198	212	2
154	154	2
160	162	7
115	115	5
15	37	4
79	80	4
3	6	5
25	51	2
53	53	6
7	8	2
67	72	4
188	188	7
201	203	2
95	95	1
92	92	3
19	119	5
109	109	1
167	169	3
150	150	4
33	35	1
66	184	2
234	234	2
66	66	4
204	204	2
188	193	3
186	187	4
18	41	4
157	157	6
37	38	2
173	178	1
42	147	2
45	45	8
156	156	14
58	58	4
111	112	4
167	168	2
28	54	3
61	61	6
246	246	5
54	54	5
205	209	1
176	176	1
207	208	2
173	174	7
93	93	5
213	213	4
107	107	3
188	205	2
229	229	4
235	245	6
112	112	5
219	219	4
235	235	7
169	169	3
101	114	1
168	168	3
99	100	1
14	14	4
55	57	4
150	155	2
172	187	4
88	101	4
166	166	1
84	84	4
200	211	2
68	70	1
1	1	5
71	71	4
116	116	6
49	213	5
177	177	4
214	214	1
45	47	1
20	119	6
228	228	1
220	220	3
102	145	3
118	118	4
32	35	3
242	243	3
10	10	3
227	227	2
31	35	1
225	226	3
102	102	10
104	104	1
19	115	3
40	149	1
60	61	3
23	23	1
184	184	3
204	212	1
76	76	2
205	205	2
174	175	1
82	83	4
176	184	1
101	115	1
151	151	12
204	224	3
14	37	2
89	90	2
188	189	1
153	153	4
195	195	2
190	199	1
9	10	3
187	209	1
196	196	1
55	79	1
216	240	2
67	67	4
18	18	6
19	116	5
72	73	2
194	194	1
164	165	2
50	50	1
196	209	2
182	183	2
164	164	2
90	90	4
191	191	1
88	88	1
236	236	2
21	21	4
31	39	2
68	68	8
210	210	2
203	212	1
197	197	6
165	165	1
9	14	1
19	118	2
173	191	1
117	119	1
77	77	1
6	7	1
17	147	1
218	219	1
96	96	2
186	186	5
219	223	2
163	164	1
156	206	1
22	22	1
8	12	1
189	189	2
25	53	5
5	14	1
194	195	1
56	56	1
188	194	3
7	9	4
79	79	2
29	53	1
49	49	2
236	242	4
24	24	3
31	31	3
162	162	4
215	236	1
28	28	3
50	69	3
158	159	1
90	91	2
72	183	2
16	16	2
69	201	2
221	222	1
100	101	2
70	70	2
51	52	5
185	185	2
159	177	1
199	199	2
144	144	1
94	94	3
46	46	4
110	111	1
38	38	6
10	11	5
177	179	1
20	20	3
238	238	1
172	172	2
88	104	3
17	17	2
218	224	1
200	200	2
194	196	2
62	62	4
230	230	1
24	26	1
222	223	1
242	242	1
223	224	1
175	175	1
65	175	3
14	34	1
174	187	1
187	191	1
83	83	1
61	99	2
21	23	1
158	163	1
197	210	2
159	159	2
224	224	2
169	207	1
198	239	1
29	30	1
27	28	3
202	203	1
111	111	2
56	57	1
87	87	1
181	181	1
85	103	2
92	106	3
210	211	1
52	53	1
62	99	1
152	172	2
43	183	2
152	152	2
197	198	1
59	106	1
14	38	1
160	178	1
229	231	1
203	223	1
91	91	2
58	78	1
87	103	2
173	199	1
91	92	1
9	46	1
21	40	1
153	160	1
74	181	2
101	101	1
12	37	1
12	15	1
72	74	1
206	206	2
49	71	1
66	183	3
149	151	1
107	108	3
83	84	1
245	245	1
74	74	4
76	77	1
89	89	2
16	17	1
105	107	1
99	101	1
55	167	2
75	75	1
81	86	1
56	103	1
57	86	1
233	233	1
236	244	1
115	116	2
235	244	1
215	216	1
36	36	1
7	7	1
39	39	1
20	120	1
97	97	1
236	237	1
65	65	1
105	106	1
114	114	1
233	235	1
22	45	1
234	241	1
105	105	1
