159	160	2
108	122	3
99	121	3
23	44	3
16	44	2
15	47	1
143	149	5
81	81	9
12	12	3
86	127	2
17	18	7
58	58	10
141	141	12
36	37	3
81	83	3
35	36	2
176	185	6
105	106	2
13	15	3
40	40	12
137	137	7
68	68	13
148	148	8
101	101	5
188	190	5
130	164	4
95	107	2
10	11	3
156	182	1
148	149	5
175	180	4
143	143	14
91	104	6
180	180	5
62	63	1
147	147	10
131	131	7
151	151	10
31	32	2
123	129	4
61	63	3
75	75	11
23	26	3
43	61	5
17	36	1
7	7	11
160	178	1
122	122	6
106	130	4
133	133	9
25	25	7
78	86	2
147	155	1
3	3	3
38	38	5
64	64	6
76	76	13
21	22	3
138	138	10
168	168	12
2	2	6
70	70	4
104	119	2
5	179	3
99	99	7
151	153	2
103	172	1
110	110	10
11	11	5
112	116	1
170	170	1
126	126	10
183	185	1
112	139	8
61	96	1
13	13	3
143	153	2
168	188	3
56	56	4
20	34	7
34	34	14
48	48	11
15	39	4
134	136	1
145	149	4
173	173	8
155	155	3
189	189	4
144	165	5
53	55	4
31	44	11
21	25	5
73	73	5
66	99	7
4	4	6
89	89	5
107	107	4
143	144	2
28	47	2
14	23	1
54	54	8
22	24	1
79	79	7
115	159	4
33	34	6
169	173	3
47	47	9
136	137	2
95	96	4
0	21	4
144	189	1
1	25	1
24	63	1
187	189	1
84	85	3
90	90	11
153	154	1
71	99	3
173	174	9
53	53	5
177	177	10
92	94	3
22	22	11
129	177	1
29	29	7
165	165	14
62	152	1
158	158	4
165	167	2
77	77	10
135	137	4
5	6	3
115	116	5
157	157	10
159	159	3
117	117	8
21	21	2
123	123	8
62	62	7
115	146	2
159	175	3
5	7	10
1	1	3
138	158	3
96	96	1
132	133	3
6	6	6
16	49	2
60	60	6
55	56	6
139	177	2
109	109	6
140	153	1
15	15	8
58	59	3
82	147	6
39	39	9
161	161	5
113	113	4
23	24	2
92	92	8
108	108	15
31	31	8
87	87	8
12	14	3
190	190	7
68	69	2
64	81	2
33	33	5
66	95	4
68	88	4
11	17	3
132	132	6
175	175	3
116	116	4
86	86	4
163	163	12
144	145	3
67	67	2
73	74	1
72	72	10
176	177	3
146	146	4
55	55	9
105	123	3
43	47	2
45	46	5
61	130	4
57	57	4
143	154	3
94	94	1
83	83	4
114	137	2
166	166	6
118	118	2
54	55	4
71	88	1
88	88	13
120	120	4
141	146	3
130	176	4
115	115	12
59	71	4
65	68	2
84	118	1
16	83	2
140	140	5
140	141	4
171	172	1
45	58	2
154	157	2
85	95	2
46	47	8
66	66	6
59	59	4
19	19	5
17	17	3
35	35	3
60	63	3
74	77	1
105	105	2
112	112	4
184	189	3
179	179	4
144	144	1
129	155	1
19	22	4
24	25	4
85	85	4
186	187	4
115	128	1
89	93	4
97	97	4
148	150	1
141	142	1
127	155	2
24	24	5
99	118	3
124	178	1
28	29	2
176	176	8
44	44	3
39	111	1
167	167	7
123	145	3
80	99	1
127	127	5
19	30	3
49	52	3
87	113	2
39	135	3
87	90	2
80	80	2
74	74	1
92	108	1
186	186	4
80	105	2
166	177	2
12	23	1
0	0	11
15	63	1
8	8	2
1	26	3
10	43	3
129	136	1
95	120	1
162	162	10
82	82	3
85	86	2
72	112	2
178	178	9
62	127	2
5	5	11
155	156	1
114	114	1
174	174	8
52	53	3
182	185	4
163	166	2
31	55	1
65	96	1
27	28	3
30	43	3
23	23	7
146	159	4
147	148	2
93	93	7
72	73	4
46	56	3
96	98	3
63	63	7
187	187	2
93	118	2
162	190	1
96	97	4
127	148	2
36	40	3
45	45	4
97	107	1
27	46	1
139	139	6
60	62	1
102	136	3
60	71	2
184	184	2
149	150	5
54	83	2
43	59	1
169	169	2
175	179	1
179	181	3
156	156	2
37	37	3
175	178	2
162	184	2
32	32	4
41	41	6
18	20	1
117	118	1
145	145	5
11	16	3
108	110	2
147	185	1
25	26	4
155	164	1
27	30	5
84	93	1
102	115	1
27	27	2
11	12	6
129	162	4
23	32	1
6	26	1
133	164	1
0	4	3
18	18	2
131	136	1
42	42	1
36	36	6
53	54	2
98	98	4
72	86	1
153	153	8
53	56	1
9	25	1
124	128	2
20	22	3
114	145	1
129	130	3
67	95	1
119	119	4
125	164	2
9	10	1
3	4	2
164	165	1
26	35	1
149	149	6
107	108	2
27	29	3
177	179	1
128	128	1
104	114	2
4	5	1
172	174	1
181	183	1
2	35	2
124	124	2
187	188	1
74	99	3
149	183	2
0	35	4
148	183	3
38	41	2
183	183	4
130	130	2
84	84	1
52	98	1
61	61	1
93	94	3
22	42	2
169	179	2
92	105	3
113	145	3
172	172	6
54	84	2
162	177	6
20	38	1
184	187	2
45	155	6
43	78	2
60	61	2
73	77	2
134	137	1
107	144	2
114	115	3
100	120	6
15	23	2
69	69	3
115	117	2
141	151	2
0	17	2
114	127	1
99	122	3
71	71	1
128	153	3
101	120	1
181	181	2
102	104	2
188	189	1
91	92	1
67	97	1
27	81	1
106	115	2
20	21	3
26	26	2
121	124	1
4	161	3
144	153	3
42	45	2
58	120	3
16	35	3
56	62	2
186	188	1
171	171	4
166	184	1
102	116	2
126	150	2
142	143	1
88	89	4
66	87	2
161	162	1
108	117	1
71	86	5
175	177	1
166	176	1
13	14	2
164	181	3
164	164	3
132	134	1
121	121	5
154	155	1
91	102	2
39	40	1
77	79	1
40	69	2
99	101	3
180	182	1
5	28	1
108	109	3
160	190	1
122	164	1
142	148	1
135	163	1
108	124	4
129	129	1
36	38	2
186	189	1
26	55	1
99	100	1
101	102	3
158	182	4
12	13	2
20	20	6
8	185	3
114	160	3
26	27	2
162	166	1
145	146	1
100	100	1
157	176	1
125	125	9
171	177	1
118	163	1
42	44	2
156	186	1
80	81	3
78	78	3
106	166	2
36	41	2
126	127	4
70	88	1
94	95	1
141	162	2
6	13	1
19	29	1
178	186	2
135	135	1
57	158	1
22	44	1
28	66	1
152	152	3
111	128	3
64	128	1
12	32	1
160	163	2
151	156	1
98	99	2
104	104	4
95	95	1
101	124	1
25	45	3
182	182	2
57	98	2
30	30	1
102	106	2
82	109	1
65	65	1
171	174	3
40	65	1
65	72	1
160	162	2
86	87	3
166	179	3
65	66	2
111	111	2
136	136	2
12	16	3
16	16	1
150	156	1
164	179	1
65	70	1
54	92	1
75	91	1
132	175	1
32	33	1
14	14	5
11	13	1
52	91	3
46	46	1
114	159	1
155	182	1
32	44	2
96	118	1
67	86	1
15	62	1
37	38	1
104	123	1
98	101	1
86	104	1
182	183	1
150	150	1
78	124	1
124	126	1
25	30	1
40	41	1
177	178	1
166	169	1
47	83	1
13	37	1
94	96	1
113	147	1
37	134	1
55	81	1
130	131	1
87	92	1
34	40	1
116	117	1
108	126	1
64	72	1
11	22	1
153	155	1
15	37	1
61	71	1
107	122	1
143	155	1
