121	121	3
51	52	6
0	0	10
2	2	4
127	128	3
16	16	2
26	26	6
110	110	19
104	104	8
29	30	4
99	128	1
14	14	9
127	127	16
73	73	2
55	55	4
62	68	3
67	68	3
28	29	2
119	119	4
11	11	17
102	102	14
68	70	4
76	77	7
45	47	4
104	105	7
114	115	8
46	75	2
2	4	4
99	131	1
120	120	5
52	52	5
101	101	14
6	107	3
64	64	5
59	59	8
7	7	12
4	4	8
86	87	2
126	127	9
122	122	16
9	10	4
97	97	8
76	76	6
18	18	4
113	113	7
25	26	4
20	20	4
27	27	7
56	56	10
123	123	11
44	126	1
49	49	19
123	124	3
94	95	3
0	3	2
132	133	1
8	8	5
94	112	3
3	3	8
93	94	5
116	122	2
114	114	19
91	91	5
84	84	11
88	88	2
52	65	2
116	116	12
45	75	5
62	67	3
83	84	4
52	62	4
24	27	2
95	95	13
19	31	2
118	120	4
57	58	2
107	108	2
83	83	8
7	9	1
124	124	2
96	96	3
113	114	4
80	80	7
63	63	4
69	71	2
50	50	13
10	12	3
122	123	2
31	31	7
15	15	7
7	107	1
57	57	7
69	69	12
96	97	2
25	25	15
102	129	5
59	67	3
93	93	14
6	54	1
5	5	5
48	48	12
32	40	2
10	132	2
8	9	1
49	121	2
21	24	3
28	28	5
1	1	14
14	15	2
58	58	12
107	107	7
90	111	3
42	43	1
29	29	3
101	102	5
88	131	2
100	100	4
73	74	4
56	59	3
12	12	3
85	86	1
40	41	1
46	48	2
78	79	3
89	89	7
88	89	2
71	72	5
38	38	3
54	68	4
21	22	3
102	104	5
115	115	4
61	61	6
43	43	8
32	125	10
39	45	3
130	130	2
46	104	2
21	21	6
111	111	12
81	82	4
79	86	3
66	66	5
94	94	4
32	32	6
77	107	5
93	96	5
132	132	12
7	77	3
84	86	1
33	33	6
47	100	4
30	31	1
22	23	8
48	76	2
47	47	7
117	117	17
54	54	7
19	22	4
39	40	3
34	127	9
52	67	5
93	95	6
117	118	4
63	67	3
48	124	2
20	21	4
51	51	4
40	40	6
86	86	5
74	76	3
112	112	8
68	69	2
89	93	2
4	8	1
106	106	16
46	73	2
70	70	2
89	98	1
53	53	6
3	4	7
30	30	7
95	97	1
115	117	5
23	23	4
5	6	2
24	28	6
3	53	3
9	9	4
49	123	2
57	62	5
128	130	3
53	122	2
109	110	1
88	97	3
51	58	2
7	132	8
32	33	2
18	19	2
53	54	2
109	109	8
59	61	1
61	62	5
115	116	4
92	92	4
10	10	4
133	133	1
75	104	2
125	125	3
24	24	2
80	86	1
33	40	2
63	64	1
98	98	1
91	93	2
105	107	2
122	133	1
1	4	2
21	25	1
79	79	4
87	88	5
53	55	1
17	17	3
26	27	2
120	121	1
19	19	6
95	96	4
31	32	3
99	100	1
81	83	2
87	87	3
2	5	3
105	106	4
118	118	5
101	104	2
82	82	5
77	77	4
131	131	4
108	108	5
77	88	1
15	16	2
43	44	1
17	43	4
103	103	1
62	62	3
31	44	1
86	88	1
121	122	1
91	92	1
108	132	1
87	127	6
16	43	4
6	6	5
90	91	2
100	102	1
14	81	1
75	75	3
90	90	1
1	104	4
49	124	3
88	99	1
5	105	1
129	130	1
7	54	1
97	98	2
95	111	1
105	105	6
41	41	2
71	71	5
11	109	4
128	129	2
13	81	4
54	62	4
67	67	4
126	126	2
12	13	1
24	25	2
18	42	3
60	60	3
78	108	1
89	90	2
120	122	2
77	125	1
110	111	2
9	132	1
85	88	3
46	125	3
15	33	1
14	42	3
99	99	3
65	65	3
89	91	1
16	30	1
42	42	2
11	108	1
41	44	2
12	82	2
39	39	1
128	128	2
125	132	2
17	20	1
103	129	1
79	126	1
46	46	1
13	82	2
81	81	4
18	20	3
75	76	2
13	14	1
85	87	2
119	120	1
27	28	1
47	77	2
7	110	1
27	49	2
1	3	1
111	112	1
130	131	1
60	61	2
41	42	2
72	72	2
45	46	2
129	129	2
49	77	1
78	78	1
99	103	1
32	82	1
13	13	1
121	123	2
70	71	1
58	110	1
12	109	1
20	27	1
76	107	1
12	131	1
100	104	1
