169	169	17
142	142	11
108	109	5
164	164	20
110	110	7
45	50	3
194	194	11
195	195	17
170	171	2
184	184	21
32	32	9
137	137	7
132	132	16
117	117	14
90	90	2
101	101	17
8	8	13
133	135	2
15	15	15
113	143	4
111	111	7
94	94	8
193	195	4
172	172	12
136	187	5
188	189	5
23	23	10
25	25	15
189	189	13
51	55	2
161	163	7
136	136	11
138	138	25
74	74	8
157	161	3
141	141	27
83	84	8
5	5	12
139	139	10
136	138	2
61	61	9
19	19	12
66	67	1
138	140	3
135	135	7
163	165	3
56	56	10
32	33	12
141	142	3
88	88	15
106	134	2
153	153	10
137	150	4
123	123	16
170	195	1
143	144	7
63	66	3
81	81	20
73	73	15
43	44	7
115	116	4
58	73	3
185	185	18
128	128	10
115	115	7
150	150	11
160	173	4
148	148	15
37	47	2
44	47	3
13	13	11
145	147	6
69	69	15
118	118	13
16	16	18
129	134	1
21	38	5
160	160	5
193	194	2
188	188	8
119	120	1
163	164	7
134	134	11
146	154	3
143	150	1
51	52	6
50	51	9
63	63	18
40	40	7
149	149	22
42	85	1
113	113	12
133	133	14
181	181	18
133	146	1
102	102	5
0	0	16
103	103	7
112	112	9
76	165	2
66	74	1
87	87	10
197	197	6
106	106	7
59	59	9
18	197	2
85	87	6
187	193	1
149	150	6
4	19	2
30	30	16
121	121	7
46	46	16
4	4	8
25	30	1
182	182	15
38	38	28
13	134	1
64	64	7
26	28	2
169	175	2
50	50	12
4	10	2
71	72	5
71	71	6
107	107	4
190	190	9
94	106	6
44	44	13
47	47	16
196	196	25
174	174	7
149	163	2
167	178	4
35	35	9
143	143	10
17	18	2
77	111	3
101	106	3
51	51	11
140	159	4
177	177	25
9	9	5
93	93	5
123	124	1
140	140	12
124	127	4
176	176	7
145	181	1
0	2	2
68	68	15
127	140	2
147	148	2
166	166	13
42	42	9
1	1	13
128	129	5
4	15	5
70	70	19
178	178	9
130	130	6
86	86	11
162	162	4
186	186	16
113	115	4
73	98	1
31	31	15
114	119	1
107	110	3
191	192	10
76	76	10
67	130	4
121	195	1
143	153	3
144	145	12
172	174	3
196	197	5
56	61	3
152	174	3
34	34	13
156	156	19
174	191	5
127	127	11
12	35	2
23	25	5
17	19	6
33	33	17
45	46	4
2	28	1
42	90	5
157	160	2
35	36	3
15	52	2
173	173	12
83	183	3
100	100	13
28	28	10
119	119	13
171	171	13
126	126	11
7	7	16
24	44	1
2	17	2
14	14	15
152	153	4
97	97	16
71	110	3
120	120	3
94	104	2
37	37	9
72	72	31
17	17	18
62	62	13
152	152	12
122	135	3
67	77	2
115	135	1
21	21	8
4	40	8
79	82	1
168	168	14
12	12	11
20	20	32
78	78	4
187	187	7
30	47	2
13	16	3
36	36	12
7	10	1
123	142	2
168	171	1
145	145	6
94	126	1
81	110	7
45	48	2
147	147	12
141	149	1
108	111	3
27	27	8
105	105	9
66	66	5
170	170	7
14	116	6
104	104	4
20	24	4
73	75	2
126	127	4
122	122	11
68	73	2
108	108	19
115	134	2
11	11	6
124	124	15
109	110	5
3	87	3
38	46	2
189	192	5
180	194	4
15	25	9
10	10	18
44	64	3
145	146	1
185	189	2
129	129	9
159	159	9
70	137	7
155	155	9
61	128	1
122	123	3
96	97	1
2	3	1
76	105	1
103	118	2
114	114	21
48	48	10
102	104	2
43	43	13
95	99	1
65	65	19
193	193	24
166	172	1
144	144	6
111	124	3
20	21	5
4	16	1
105	135	1
177	194	2
45	47	2
179	181	5
179	179	17
73	74	1
68	156	5
18	18	17
111	112	4
41	41	7
52	54	6
13	53	5
160	165	2
2	2	9
164	190	1
9	22	2
126	128	2
112	117	2
106	131	3
45	45	13
113	114	3
54	128	6
146	161	2
17	20	1
191	191	8
157	157	14
96	98	3
129	130	1
96	96	5
78	81	3
161	167	2
121	122	2
83	83	8
55	55	14
52	69	2
86	102	1
79	79	13
167	167	4
183	183	16
5	6	2
26	43	1
65	67	5
76	77	3
6	6	4
138	139	6
114	125	3
57	57	15
24	25	2
49	49	12
53	53	10
104	105	2
44	45	1
8	44	6
9	172	2
185	186	6
169	170	6
80	80	1
169	171	1
79	85	1
46	73	1
143	159	1
93	98	2
76	78	5
70	71	10
36	39	1
22	22	9
174	177	1
145	149	2
158	158	12
103	128	2
67	67	7
66	70	3
65	66	2
155	158	2
17	118	2
165	165	13
161	162	2
8	36	2
67	68	8
135	137	3
84	84	6
88	89	3
25	42	1
31	36	3
29	29	5
144	173	1
54	55	9
134	135	3
26	27	2
1	2	2
140	148	3
5	8	3
38	39	4
154	156	1
15	22	1
36	52	1
192	193	5
69	129	2
12	44	2
113	117	2
96	107	5
121	148	4
133	140	3
28	30	1
58	58	12
12	17	1
6	7	2
51	54	1
89	89	5
40	139	4
47	48	6
15	45	1
113	124	2
154	155	1
18	30	4
95	112	2
98	98	4
131	150	1
57	63	3
24	43	1
18	45	3
33	35	2
62	168	4
192	192	13
179	180	2
53	54	7
22	33	2
126	129	1
146	146	8
13	14	6
85	85	12
179	193	3
27	29	1
19	21	1
35	59	2
35	45	5
60	64	4
165	166	9
19	95	1
48	49	7
60	60	11
175	179	2
105	106	3
54	54	11
135	136	1
64	65	5
16	117	3
71	73	1
172	187	3
9	10	3
42	51	2
175	175	11
103	106	2
101	107	1
120	121	7
122	148	1
112	113	7
81	88	3
142	149	4
131	131	7
131	133	5
155	157	1
151	168	1
162	177	1
132	133	5
118	119	6
109	109	3
85	110	1
149	152	3
4	148	1
190	191	1
111	136	2
161	195	1
104	107	1
157	195	1
115	117	5
40	41	2
26	41	1
33	34	1
97	101	1
4	6	1
86	87	1
24	26	1
116	116	4
89	90	1
158	161	1
77	77	6
133	137	3
3	3	4
134	136	1
150	183	1
169	174	2
77	87	1
18	20	3
4	7	2
189	193	2
165	168	3
12	14	2
141	170	3
21	37	5
111	129	1
26	37	4
154	154	5
67	86	2
147	154	1
13	192	2
147	151	3
7	8	1
189	190	5
3	6	3
84	85	1
35	41	2
64	181	2
101	116	2
96	101	1
123	140	3
6	16	3
99	99	11
180	190	3
119	131	2
61	62	3
12	13	2
41	42	1
0	3	3
152	195	1
4	31	1
21	41	1
142	143	5
33	123	1
159	187	1
98	100	3
111	125	2
168	169	6
97	111	1
56	57	4
171	194	1
123	146	2
148	149	1
130	136	2
180	180	3
8	9	3
26	26	6
71	83	4
140	142	1
56	58	3
23	45	3
52	57	1
14	20	1
151	151	1
174	176	6
7	13	1
164	192	2
79	80	6
3	8	2
55	78	3
3	13	1
114	118	2
98	99	3
188	191	4
56	153	2
190	193	1
187	189	1
156	161	1
23	24	3
24	24	9
63	65	1
2	8	3
124	131	3
155	170	1
25	46	5
74	75	4
97	98	4
35	55	2
178	179	4
55	70	2
113	127	2
25	26	1
25	37	1
88	90	4
128	139	1
149	154	1
174	175	6
10	104	2
73	85	2
12	28	1
130	131	1
52	52	3
21	34	2
5	17	1
43	71	3
17	24	2
44	57	1
128	138	1
182	187	2
10	12	2
26	29	3
46	47	1
83	110	1
17	44	1
123	181	2
64	74	2
88	128	1
119	132	2
172	190	1
39	44	1
17	21	3
58	75	2
137	148	1
195	196	1
100	101	3
162	163	1
113	116	2
75	87	3
3	5	1
22	23	2
163	166	1
21	40	2
18	19	2
158	174	1
68	78	1
29	166	2
52	53	3
27	33	3
125	125	3
134	155	1
83	103	4
14	15	1
136	137	2
185	188	1
31	32	1
133	148	1
3	4	2
65	170	2
29	30	2
44	59	1
39	39	5
180	181	2
82	82	11
34	41	1
19	20	1
23	38	2
185	187	3
85	86	3
37	40	1
143	145	3
125	127	6
16	28	2
187	188	3
181	184	1
154	157	1
177	178	1
101	147	1
95	96	1
167	169	2
159	179	2
39	41	3
96	103	3
133	134	1
152	176	1
82	84	1
27	193	1
47	72	2
34	46	1
93	101	1
4	42	3
120	132	1
141	144	2
83	102	1
167	182	1
114	115	2
69	149	1
101	126	1
161	161	1
34	47	2
153	176	1
22	35	2
38	59	1
3	18	1
170	172	2
49	50	2
155	194	1
93	95	1
37	45	2
125	131	2
14	16	1
94	138	1
157	185	1
190	196	1
143	154	1
134	137	1
30	31	4
49	51	3
183	194	1
151	159	3
148	156	2
5	19	1
36	41	3
184	187	1
47	132	1
28	31	1
149	184	1
132	139	1
94	95	3
3	28	1
112	118	1
44	62	2
11	12	1
17	22	1
60	61	3
122	156	2
97	102	1
164	165	3
139	143	1
32	42	1
99	104	4
58	60	2
18	23	1
36	53	1
143	151	2
50	52	2
156	157	1
35	53	3
42	43	2
190	192	1
182	183	1
47	76	2
14	29	1
156	172	1
73	86	3
37	38	2
65	84	1
153	156	1
43	46	2
2	19	1
176	193	1
87	97	1
87	88	1
148	163	2
127	128	1
174	188	2
34	39	1
14	128	1
102	121	1
15	196	1
171	174	2
70	75	1
106	115	1
133	149	1
11	21	1
69	71	1
31	53	1
163	163	2
53	67	1
176	194	1
151	152	1
141	158	1
27	28	1
42	64	2
74	80	1
57	62	1
12	29	2
139	140	3
104	119	2
94	97	2
36	50	1
184	185	1
138	148	1
170	175	1
86	88	1
6	122	1
112	124	1
63	64	1
69	74	1
14	30	1
110	111	1
152	167	1
145	154	1
160	184	1
88	115	1
20	37	2
0	7	1
62	72	1
45	49	1
57	58	1
43	62	1
99	177	1
93	115	2
127	129	1
52	78	1
158	162	1
25	47	1
109	129	1
56	143	1
74	87	2
48	86	1
76	169	2
80	130	1
137	138	1
42	61	1
61	72	1
175	176	1
145	151	1
115	149	1
16	31	1
120	137	1
29	43	2
37	106	1
133	158	1
16	21	1
98	102	1
131	156	2
97	117	1
47	50	1
15	27	1
173	178	1
104	106	1
39	42	1
168	172	1
15	191	1
59	61	1
111	126	1
5	39	1
51	118	1
151	176	1
33	50	1
59	60	3
55	56	1
69	73	1
57	128	1
44	101	1
69	82	1
121	125	1
49	100	1
1	7	1
20	22	1
52	89	1
106	118	1
125	146	2
116	119	1
10	14	1
60	62	1
107	125	1
145	157	1
10	13	1
116	117	1
49	57	1
51	63	1
31	45	1
23	40	1
36	105	1
115	125	1
151	170	1
62	63	1
95	95	1
38	86	1
17	42	1
102	122	1
188	192	1
22	24	1
24	39	1
55	77	1
39	40	1
23	46	1
26	44	1
191	193	1
150	182	1
