47	47	6
20	20	9
60	60	9
112	113	4
209	223	1
58	58	5
232	232	10
9	9	13
34	35	5
8	8	4
105	105	16
198	198	18
108	125	2
47	120	3
69	69	8
137	215	2
19	86	3
3	47	1
61	61	11
45	46	6
174	174	24
139	217	1
74	74	18
37	38	5
118	118	10
122	122	9
168	168	10
124	124	6
111	125	3
73	73	7
157	158	2
43	43	17
210	211	5
12	12	7
182	182	14
8	30	5
67	68	2
134	134	15
202	202	12
108	127	4
70	174	2
50	108	2
5	5	7
171	171	7
199	199	7
180	180	3
159	159	8
56	56	8
4	5	5
181	234	7
71	71	14
205	221	3
163	164	3
183	183	11
175	176	7
62	62	6
56	104	1
150	150	9
186	186	6
208	209	1
200	213	1
107	107	10
55	55	7
221	222	4
34	34	2
26	26	7
169	170	1
136	136	11
193	193	7
235	235	14
178	179	4
14	17	4
152	152	7
25	25	11
204	204	5
27	27	19
203	234	3
158	167	1
103	104	4
53	57	7
81	82	7
111	111	4
195	195	12
213	213	2
20	62	2
161	162	2
151	207	5
229	229	4
131	131	6
220	220	11
2	80	1
22	23	5
206	221	2
101	101	3
237	238	2
99	99	5
160	160	3
42	42	12
23	23	3
150	151	4
61	70	1
127	127	14
86	86	20
106	110	2
67	67	11
113	113	2
167	168	2
197	199	3
53	53	9
9	20	4
81	81	9
56	105	3
80	80	10
95	122	1
2	6	3
181	181	10
220	221	2
235	238	6
141	142	8
155	155	12
2	2	7
59	59	15
145	145	10
85	85	9
153	186	8
143	232	1
195	196	4
224	225	2
200	200	16
225	225	9
173	173	7
28	28	3
38	38	15
214	214	5
113	164	1
158	162	1
24	24	15
226	227	4
203	203	14
208	208	6
158	158	6
112	112	7
179	179	13
178	178	5
40	40	6
44	44	7
65	65	18
57	57	7
216	216	3
135	135	4
236	236	15
45	45	5
58	59	2
103	127	2
66	67	5
138	218	3
185	186	2
177	178	1
10	44	1
100	100	10
192	192	6
223	224	4
240	241	7
14	49	3
161	161	15
124	127	1
103	103	2
222	223	3
115	186	3
135	172	2
104	105	3
154	154	4
55	101	3
200	221	8
5	76	1
146	148	3
231	231	7
119	119	2
204	205	2
164	164	5
217	217	11
175	175	12
177	177	12
143	146	1
144	152	4
140	140	7
199	200	2
156	156	4
12	56	2
75	75	5
71	119	6
197	197	2
15	15	6
128	128	8
30	30	4
10	10	19
239	239	7
32	37	3
39	41	4
162	163	3
114	114	9
201	216	3
138	138	4
151	172	2
143	153	7
47	48	7
12	35	5
222	241	2
237	237	1
200	222	3
22	45	3
140	153	1
172	172	8
162	166	2
206	220	5
71	72	5
124	125	2
33	33	2
73	79	1
14	14	8
190	190	4
59	60	4
39	39	15
3	7	4
149	149	5
78	78	5
13	13	4
234	234	5
120	120	4
127	128	6
66	135	4
233	233	10
220	222	3
219	219	12
211	224	2
196	196	8
10	11	5
212	213	12
21	21	5
96	97	4
209	210	2
38	45	1
4	6	2
40	41	5
16	16	8
56	101	3
210	210	7
54	55	2
192	193	4
8	41	1
80	81	5
58	60	1
143	143	1
55	57	4
225	226	1
11	11	5
100	106	3
146	149	1
7	7	4
2	5	1
146	195	2
153	153	5
108	108	7
137	218	2
88	89	1
218	218	3
3	3	4
98	101	1
82	82	8
180	202	1
170	170	5
155	189	1
32	36	1
95	96	2
118	123	1
121	122	3
31	31	3
160	165	1
102	130	2
184	184	9
137	148	1
238	238	2
198	199	1
169	169	4
133	133	2
154	193	2
215	216	6
97	97	3
141	141	4
159	166	2
32	32	5
176	176	11
15	86	4
153	154	5
180	181	2
134	135	4
179	181	7
115	116	3
50	50	3
220	226	6
54	54	6
81	85	1
56	69	2
240	240	3
167	167	2
52	52	10
41	42	2
26	27	4
19	19	5
206	207	1
104	104	3
83	83	3
145	148	2
148	148	1
211	212	4
151	151	5
200	201	2
35	35	3
115	115	3
187	187	3
61	90	2
194	194	1
12	57	2
166	191	2
13	54	1
165	165	10
48	48	7
5	6	7
215	215	4
145	218	2
39	168	3
124	126	3
64	64	11
163	163	8
37	37	11
230	230	6
9	97	1
173	174	1
214	215	1
100	122	6
162	162	4
0	1	4
53	55	1
16	17	2
126	126	2
72	76	2
35	36	1
207	208	4
31	33	3
242	242	13
186	198	2
53	56	4
236	237	1
153	197	2
226	226	2
117	118	6
146	146	7
226	228	1
147	148	1
133	134	1
168	188	2
79	79	2
8	9	2
67	134	4
29	30	1
74	127	1
79	83	2
223	225	3
135	163	3
34	36	3
199	223	1
88	88	3
139	139	8
174	175	4
96	96	4
144	146	2
6	78	3
6	6	6
223	223	3
18	19	5
24	28	2
209	209	3
70	70	5
49	49	2
22	22	3
98	126	1
208	219	1
97	129	2
51	51	4
147	147	4
187	189	2
109	109	4
238	242	2
17	17	3
89	89	2
143	152	3
120	121	1
219	224	2
2	3	2
21	56	1
124	170	2
121	121	4
139	143	1
223	227	4
154	155	3
140	141	3
185	185	1
21	22	4
206	206	6
235	236	4
81	84	4
146	190	1
158	166	1
34	78	3
66	134	3
62	131	3
29	42	2
221	221	3
102	104	1
36	36	3
221	231	2
9	10	1
207	207	3
96	131	2
187	188	2
100	102	1
7	30	1
4	4	6
113	135	1
172	208	1
130	130	7
0	0	5
183	203	2
231	232	3
136	148	2
33	35	1
149	219	1
153	191	2
109	116	1
126	170	1
105	106	2
174	176	3
66	133	3
123	123	3
70	71	1
31	34	2
73	91	1
9	68	1
19	120	2
65	66	1
76	76	1
202	217	1
77	77	3
155	196	1
61	65	1
49	50	2
11	45	2
152	195	1
63	63	5
201	201	3
188	188	1
102	103	1
89	114	1
192	197	2
69	148	1
1	49	1
232	233	1
234	236	1
180	237	2
121	177	1
147	190	1
136	190	1
7	34	1
102	102	1
136	137	1
113	186	2
224	224	1
150	219	1
41	41	1
229	230	2
107	108	2
66	66	1
77	119	4
144	145	4
84	84	3
157	157	2
27	28	1
73	80	1
217	218	2
141	189	1
56	102	1
119	123	3
201	202	1
209	212	1
230	231	1
24	25	1
134	167	1
43	45	2
12	32	1
140	142	1
84	88	1
202	203	1
166	166	1
77	106	2
68	69	1
18	18	4
17	120	1
189	189	1
156	165	1
139	140	1
4	75	2
101	102	2
191	217	1
180	183	1
64	73	1
23	25	1
145	150	2
142	142	2
61	100	1
144	144	2
154	228	1
135	136	1
1	42	2
46	46	3
14	15	2
64	74	1
60	122	1
150	173	1
191	191	1
153	232	2
19	20	2
195	229	1
15	16	1
58	105	1
86	88	1
69	97	1
228	228	2
123	126	2
30	31	1
61	62	1
100	101	1
82	83	1
7	31	1
143	144	1
203	204	4
77	78	1
222	222	2
91	115	1
160	161	1
57	58	1
172	178	1
96	127	1
160	170	2
125	125	1
113	189	1
109	110	1
193	198	1
8	78	1
16	121	1
81	124	1
144	219	1
190	217	1
1	91	1
158	159	1
216	229	1
51	52	1
138	212	1
73	74	1
137	137	1
72	73	1
33	34	1
98	98	1
227	231	1
140	226	1
182	186	1
