20	20	8
91	91	4
212	214	4
193	193	3
186	187	2
147	147	1
190	190	4
33	91	3
94	95	1
23	23	3
162	174	6
176	178	4
30	30	5
188	214	1
41	41	4
175	176	4
118	119	4
47	93	1
3	3	1
201	201	2
59	59	6
22	22	3
44	44	7
225	225	10
199	199	3
227	227	5
28	29	4
110	110	5
73	74	6
184	186	1
53	53	2
208	210	6
196	196	6
1	29	1
98	99	2
109	109	3
0	0	3
226	226	5
15	62	1
29	30	2
184	201	1
194	206	2
113	114	10
190	213	1
167	167	6
14	246	4
223	238	3
168	170	1
112	112	3
242	242	3
96	97	2
198	198	4
43	43	6
26	234	1
76	79	2
103	103	6
70	70	6
47	50	2
145	149	3
195	195	6
173	173	5
176	176	7
237	237	2
202	202	4
61	61	10
171	172	2
9	42	1
119	119	4
117	117	5
213	214	1
234	234	2
95	95	4
88	88	2
55	56	1
226	227	2
96	96	2
32	33	6
229	229	6
194	195	1
79	79	6
206	211	2
80	80	2
169	169	1
37	37	3
78	78	13
177	177	3
95	96	3
53	54	1
40	236	2
91	92	7
49	49	6
182	182	3
114	114	5
165	166	2
175	175	5
72	72	4
94	94	5
160	160	8
151	151	4
216	221	1
181	182	2
102	102	5
35	35	10
82	82	6
170	170	2
223	224	3
163	163	11
152	152	13
155	155	3
44	49	3
21	22	1
40	40	4
15	15	6
63	63	5
17	54	2
89	89	3
188	189	2
216	216	5
221	221	8
178	178	4
157	157	2
80	81	3
239	240	2
225	226	1
172	172	3
145	161	2
98	98	7
64	64	9
200	200	1
31	97	1
217	217	7
233	234	2
58	58	3
197	197	6
196	197	1
184	200	1
213	213	6
231	232	1
91	93	1
244	247	2
168	168	2
219	219	4
167	172	1
20	30	3
52	53	1
108	108	1
112	114	7
68	68	3
197	200	1
99	102	1
60	60	6
185	185	3
214	215	1
7	47	2
49	50	3
32	32	2
66	66	4
167	193	3
26	26	2
204	204	2
174	176	2
222	222	8
186	186	3
200	225	1
238	240	4
20	35	1
61	65	1
31	31	12
94	96	1
215	230	2
207	207	1
105	105	6
210	210	5
18	18	6
99	100	5
233	233	3
192	210	1
161	162	1
106	106	5
8	8	4
55	55	1
162	171	4
189	190	7
160	162	2
236	237	2
76	76	1
35	36	2
45	45	1
218	219	8
223	223	3
54	54	4
34	34	4
189	189	2
29	29	3
157	158	2
224	224	1
54	55	3
185	223	2
9	10	2
38	38	4
184	197	1
93	93	2
171	171	6
19	19	4
116	117	1
234	235	2
85	85	4
33	33	7
209	209	6
147	183	2
66	71	1
158	158	1
208	208	5
239	239	4
214	214	6
19	202	2
80	102	2
205	205	2
28	149	2
116	120	1
38	39	3
159	160	4
99	99	5
53	66	2
67	67	6
12	43	3
57	57	7
222	227	2
201	202	4
164	164	1
179	180	2
188	188	4
23	30	2
232	233	2
154	156	1
46	46	3
242	244	1
245	245	1
183	183	5
87	87	3
150	150	3
15	61	2
243	243	1
19	101	1
56	57	2
13	14	3
28	28	4
216	218	2
228	228	2
42	66	2
23	28	5
183	200	4
203	203	1
205	213	1
107	107	5
150	151	3
238	238	4
165	165	8
48	48	6
27	27	3
236	236	3
66	67	2
180	183	3
111	152	1
3	5	1
20	21	2
240	240	2
105	106	1
27	231	1
219	221	2
2	2	2
58	59	3
4	4	2
73	73	3
237	239	1
60	61	1
35	197	3
231	231	3
17	19	1
10	10	2
230	230	1
156	156	4
35	63	1
235	235	3
90	94	1
62	62	1
115	115	2
28	150	1
24	24	1
199	226	3
22	30	2
27	156	1
3	25	3
84	84	5
209	211	1
86	86	3
229	237	1
237	240	4
233	240	2
52	52	2
109	180	1
205	210	1
25	25	2
35	37	1
157	175	2
72	73	1
82	207	1
244	245	2
19	55	1
50	50	3
60	66	1
26	27	1
191	191	2
184	184	4
199	236	3
19	36	1
110	153	1
218	218	3
182	183	1
71	71	3
215	215	2
75	75	3
185	186	2
168	169	2
84	97	2
248	248	1
113	113	2
212	212	1
82	83	2
115	116	2
245	246	2
229	235	1
160	181	1
57	58	2
16	16	2
180	180	3
11	11	1
181	181	4
90	90	2
217	219	1
62	75	3
81	81	2
232	234	3
47	47	2
44	50	1
100	100	3
71	225	1
39	39	1
35	55	1
12	12	5
37	78	1
111	120	1
21	240	1
97	98	2
167	171	1
30	98	2
152	154	1
237	238	1
163	175	1
221	222	3
232	232	1
47	48	1
64	65	1
85	87	1
153	153	3
165	167	1
85	86	2
188	216	1
161	161	3
8	9	2
238	239	1
116	116	1
34	37	1
192	211	2
152	173	1
34	36	1
209	210	2
220	220	1
43	44	1
150	181	1
55	70	1
243	245	2
62	78	1
210	219	2
112	113	1
152	169	1
211	211	1
58	62	1
42	42	4
20	31	1
166	167	2
159	159	1
36	36	1
76	97	1
164	181	1
97	233	2
216	220	1
36	37	3
88	89	1
151	174	1
111	115	1
210	211	1
92	100	1
152	172	1
34	223	2
65	65	1
14	60	1
56	58	1
26	28	1
173	174	1
199	200	1
13	245	1
20	23	1
146	147	2
97	97	1
62	77	1
247	247	1
58	64	1
51	51	1
190	206	1
28	232	1
76	77	1
224	246	1
104	106	1
68	70	1
206	206	1
