102	102	10
31	31	1
46	46	6
77	103	3
54	54	5
82	83	5
93	101	2
74	74	7
32	32	10
63	63	9
22	97	7
35	35	13
92	95	2
90	91	11
83	83	2
92	92	6
78	79	1
72	72	10
55	55	1
98	98	4
22	22	10
75	75	16
45	74	3
87	87	2
20	20	3
45	75	3
30	101	1
67	67	11
30	30	1
103	103	2
54	74	4
71	71	9
57	57	6
73	74	1
59	60	1
29	29	3
92	93	2
91	91	6
64	65	3
104	104	6
45	45	13
24	61	1
23	23	4
26	26	2
27	27	6
73	89	1
48	49	1
37	37	1
62	62	3
65	73	3
65	65	7
44	44	11
22	23	4
93	94	1
83	86	2
77	97	5
55	56	3
84	84	6
57	65	2
61	61	10
38	38	3
100	100	10
59	59	3
47	78	1
49	49	11
52	52	2
21	21	7
35	37	1
64	64	13
73	80	2
94	96	2
86	87	7
107	107	2
80	81	2
24	26	2
73	73	3
82	90	2
37	82	1
79	79	7
37	39	2
50	50	2
74	75	4
51	51	7
99	99	2
45	50	3
95	95	9
84	85	1
77	99	1
40	73	1
94	94	3
46	58	2
20	78	3
47	47	8
68	68	4
54	55	1
38	51	3
28	28	7
47	79	3
56	66	1
76	76	4
69	69	4
97	100	2
77	77	3
63	64	5
104	105	3
36	36	6
59	63	1
35	36	4
39	39	2
42	42	2
47	48	3
90	90	3
24	64	2
91	92	1
89	90	8
33	33	4
32	90	2
49	56	1
78	97	1
71	106	1
44	64	2
32	65	3
85	93	2
106	107	1
88	88	1
37	54	1
70	105	1
51	68	1
70	70	1
93	93	1
85	86	1
80	80	3
87	88	1
56	57	4
79	80	2
53	53	2
56	56	2
21	88	3
49	66	2
36	90	2
63	70	1
84	86	2
86	86	2
85	85	1
34	35	1
55	64	3
39	70	4
37	38	2
29	30	1
97	97	1
21	87	2
40	52	1
38	52	2
33	96	1
33	34	5
50	57	1
58	58	3
34	34	1
26	28	1
51	52	1
46	72	1
24	24	2
62	63	1
71	73	1
97	99	1
96	96	3
68	69	2
76	103	1
25	88	2
21	24	1
40	72	1
102	103	1
23	101	2
66	66	1
49	67	2
46	48	1
57	61	1
41	41	1
87	98	1
33	53	1
82	82	1
42	70	1
46	104	1
53	72	1
66	67	1
31	47	1
82	88	1
71	72	1
23	96	1
