77	77	3
150	150	8
82	83	2
54	93	5
80	80	6
154	154	13
78	78	7
74	86	4
32	33	4
27	27	3
9	9	13
102	102	4
139	143	4
40	40	5
127	127	9
17	17	4
22	22	6
101	101	7
140	141	2
13	13	3
76	77	2
144	145	7
141	141	1
121	122	7
81	82	4
39	39	8
75	75	5
25	30	2
133	133	3
135	135	9
152	152	10
76	76	6
46	46	12
46	53	4
118	118	6
104	107	1
108	108	3
28	117	3
107	107	7
95	96	8
26	30	1
128	128	11
138	139	4
10	10	6
65	65	5
33	33	10
63	63	5
77	100	1
11	12	10
115	143	3
18	18	4
137	137	10
70	70	13
34	34	2
30	30	4
149	149	8
7	7	7
108	109	1
132	132	10
30	31	2
112	112	10
127	128	3
124	124	7
33	34	6
128	130	2
110	130	2
113	148	2
6	97	2
18	21	1
20	21	2
26	26	4
146	146	3
104	104	3
49	50	2
83	83	8
24	24	10
9	10	3
132	133	3
117	119	2
118	131	1
32	32	3
129	129	6
139	142	5
67	91	1
123	123	2
80	81	3
69	69	3
100	101	2
105	105	7
19	19	5
36	36	4
31	32	6
47	48	7
119	119	10
67	67	6
38	114	5
71	71	9
44	44	4
111	111	16
129	131	5
12	28	1
48	49	6
38	45	2
103	104	3
120	120	8
119	120	2
147	147	4
50	54	2
115	117	2
98	99	4
113	128	6
43	43	6
51	51	7
64	75	5
142	143	1
37	121	3
104	105	6
8	107	2
6	6	6
58	58	6
56	56	8
81	83	5
55	55	2
53	53	14
76	78	1
33	36	1
65	80	1
87	87	6
85	85	8
103	106	1
65	66	3
122	122	3
109	109	10
99	99	5
28	28	12
23	23	4
73	73	6
18	19	6
111	116	1
103	103	15
134	136	2
110	111	1
144	144	12
62	62	1
57	94	2
36	109	3
32	129	1
92	92	6
33	121	3
134	135	1
62	68	1
110	110	8
51	53	2
110	123	3
21	21	4
10	16	1
67	69	2
12	13	5
81	81	5
10	11	3
116	127	3
11	21	1
37	37	9
48	48	7
50	53	1
16	17	6
152	153	9
49	79	2
138	138	5
8	8	6
28	29	3
106	106	7
139	141	1
121	121	4
51	52	3
75	78	4
84	85	4
139	139	3
77	78	4
33	152	1
102	103	10
153	154	5
58	84	3
130	130	3
37	45	1
82	82	6
66	68	2
49	49	4
131	131	11
38	38	7
38	49	1
136	136	2
40	118	5
31	31	3
134	140	1
47	50	3
29	29	6
16	23	1
96	97	2
50	50	3
12	14	2
86	86	6
94	96	4
92	94	4
125	125	11
64	65	3
32	150	2
78	107	1
74	74	6
45	46	5
55	56	4
150	152	2
80	82	4
92	95	1
47	47	2
73	75	2
36	37	1
101	104	1
104	108	2
127	130	2
115	146	3
43	51	1
64	104	3
6	12	2
101	129	3
57	57	3
22	26	3
43	44	2
35	55	1
117	117	4
3	4	2
34	36	2
56	81	1
23	122	3
45	45	1
100	100	10
115	116	3
61	61	4
25	25	5
68	68	5
13	15	1
41	41	6
75	79	2
149	151	3
101	108	2
66	67	2
29	117	2
57	86	3
34	109	2
71	73	1
69	93	2
51	54	1
69	106	1
98	98	4
145	145	5
32	115	2
133	136	3
3	3	5
4	5	1
7	8	1
78	108	1
72	72	2
116	117	1
84	84	1
72	73	2
67	68	3
63	69	4
11	11	4
114	146	1
58	83	1
115	115	1
113	114	2
48	50	3
58	79	1
79	79	1
5	5	2
21	22	1
86	88	3
126	126	3
113	113	3
75	76	4
97	97	3
64	64	1
29	30	2
27	28	5
94	94	1
75	80	2
13	14	2
69	86	3
62	104	1
100	107	2
4	4	2
93	94	2
6	25	1
122	124	1
151	151	3
53	55	1
114	114	1
46	149	1
8	9	2
72	80	2
40	42	2
118	122	1
142	145	1
103	128	1
96	96	4
42	42	1
65	87	1
18	23	1
75	77	1
42	51	2
113	133	1
141	142	1
124	125	2
148	148	3
46	52	1
88	88	1
134	134	3
100	110	1
95	95	1
100	132	1
132	136	2
35	35	2
41	44	1
32	36	1
94	98	1
62	80	1
53	78	2
90	95	1
49	77	1
21	26	1
63	67	1
52	52	1
4	9	2
2	3	2
124	126	2
153	153	2
39	40	1
7	93	2
17	107	1
125	126	1
90	90	1
24	25	1
10	15	1
56	57	1
71	80	1
146	148	1
151	152	1
149	150	1
119	129	1
100	105	1
34	35	1
6	24	1
124	137	1
35	36	2
75	81	1
33	122	1
130	131	1
143	144	1
56	94	2
66	93	1
31	115	1
51	83	1
