140	141	2
36	36	5
95	95	3
39	39	3
81	82	2
23	23	1
147	147	9
7	14	4
96	96	8
127	127	2
152	152	3
70	70	3
7	7	12
149	149	4
47	47	4
15	30	2
103	103	4
119	119	2
44	84	3
21	21	5
12	12	6
17	17	5
109	136	3
41	46	2
53	54	1
49	49	1
119	120	4
120	120	1
111	111	3
16	28	4
97	97	10
129	130	3
133	133	4
84	84	3
85	85	2
41	42	4
138	138	7
135	136	5
104	105	2
50	51	2
98	98	4
63	63	1
38	38	1
57	101	2
110	110	4
73	73	1
109	131	1
33	74	3
131	131	8
16	27	4
10	11	3
123	123	16
121	121	4
108	108	6
105	105	3
11	11	8
13	13	4
144	144	1
40	76	1
26	26	2
99	101	2
36	37	1
78	78	12
34	34	1
77	77	4
122	122	5
10	10	9
93	95	2
6	6	2
151	151	3
77	79	1
21	22	4
78	80	2
92	94	2
129	129	3
25	25	3
34	75	2
40	40	3
16	23	2
116	116	1
142	142	3
117	118	1
45	45	3
73	74	1
37	37	2
10	34	4
128	128	5
107	107	2
18	18	3
44	44	1
152	153	3
132	132	5
53	53	9
6	14	3
109	109	1
114	118	3
108	109	1
16	16	3
121	123	1
119	122	2
68	91	2
22	24	2
97	108	3
80	81	5
45	46	5
86	86	2
143	143	1
32	75	3
90	90	3
14	14	4
67	68	2
89	89	1
118	118	5
120	138	4
131	133	1
142	145	1
106	106	3
50	50	1
104	104	3
19	19	5
91	91	1
125	125	1
108	128	2
3	3	1
126	127	1
30	30	4
8	8	2
115	115	2
146	146	1
88	88	2
137	137	3
67	85	1
97	100	1
130	130	3
35	35	1
124	125	1
140	154	1
123	124	1
80	80	1
48	48	1
154	154	1
145	146	1
56	56	2
17	18	4
84	85	3
57	106	1
20	23	2
28	28	4
92	92	2
32	32	2
75	75	1
141	141	4
85	86	4
141	142	3
12	14	1
99	99	1
83	83	1
100	100	1
39	40	1
124	124	1
36	39	1
120	139	1
22	22	2
43	85	1
20	20	1
68	68	2
122	123	2
133	134	1
29	29	2
53	98	2
122	124	2
117	117	1
5	5	1
124	137	1
97	109	1
15	16	1
113	113	1
72	72	1
136	136	1
92	93	1
116	117	1
66	67	1
52	54	1
9	31	1
24	24	2
112	112	1
113	114	2
136	138	2
136	137	1
95	97	1
64	85	3
141	143	1
68	69	2
27	27	1
114	114	2
110	111	1
120	151	1
55	93	1
23	24	1
17	19	1
65	65	1
100	101	1
72	73	1
9	34	1
31	38	1
33	33	1
