77	77	12
5	18	1
20	20	9
30	31	2
14	14	5
65	65	7
2	2	12
26	32	3
47	47	10
57	81	2
73	75	7
51	78	5
58	58	4
9	9	9
10	21	1
73	74	1
76	76	15
15	15	4
57	67	5
24	24	11
23	23	7
73	76	2
64	76	4
71	71	12
70	70	3
19	19	11
72	72	11
27	27	7
63	77	6
51	51	20
54	54	12
17	17	11
56	56	5
54	56	1
48	51	4
6	6	10
22	23	7
12	65	1
55	59	2
4	22	2
73	73	16
30	30	11
86	86	4
57	57	8
56	57	8
58	74	1
66	67	1
82	83	6
24	28	1
81	85	2
63	63	10
63	84	2
66	66	20
82	82	10
78	78	14
31	31	6
35	35	1
28	28	6
48	50	4
58	84	1
26	27	1
50	50	8
79	79	5
68	68	17
11	11	12
48	48	6
81	81	22
8	8	3
23	31	3
52	52	20
83	83	13
85	85	14
80	80	8
75	76	6
59	60	4
61	61	13
48	85	5
12	12	16
50	51	5
7	7	2
26	26	4
10	13	1
8	9	11
3	3	12
1	2	5
53	54	6
24	81	4
8	86	3
22	22	7
62	62	3
64	64	7
87	87	3
54	55	6
11	14	3
48	53	7
17	32	7
25	27	1
9	23	5
77	82	1
48	83	2
65	66	1
88	88	9
47	48	2
29	29	8
46	60	4
69	69	7
14	21	1
20	21	2
46	81	1
58	90	2
67	67	15
75	75	10
28	29	2
61	83	2
60	60	5
62	63	2
60	62	4
21	75	1
5	5	5
46	46	3
19	20	1
60	66	1
1	1	8
50	85	1
19	63	1
84	84	8
25	33	2
48	49	3
89	89	5
33	33	3
8	66	2
14	19	2
4	5	3
50	54	3
7	64	2
63	74	1
13	13	7
50	83	2
63	76	5
12	25	2
59	59	3
23	24	2
77	80	1
23	30	1
53	53	5
10	12	1
6	27	2
88	89	3
10	20	1
27	31	1
11	21	3
74	74	5
55	56	7
12	14	6
67	68	1
77	81	2
32	32	1
21	21	4
14	15	1
10	65	4
25	26	2
64	65	4
19	62	1
79	80	6
6	8	1
49	50	2
23	81	1
7	66	1
59	62	4
25	25	4
85	86	3
29	30	1
6	13	2
26	67	1
0	0	3
69	70	2
55	55	2
14	20	1
3	4	1
55	82	1
76	77	2
11	28	1
60	61	2
5	6	5
81	87	2
8	46	2
66	86	1
9	65	1
0	1	1
78	79	1
49	49	1
7	65	1
58	89	1
8	80	1
3	29	1
10	66	1
68	69	4
73	77	4
57	68	1
4	4	2
9	64	1
49	82	1
74	77	1
63	72	1
64	77	1
78	80	2
59	61	2
48	59	1
9	78	3
48	54	1
57	84	2
20	22	1
9	14	1
48	82	2
86	87	1
10	10	3
47	53	1
9	46	1
61	62	4
51	52	1
24	74	1
46	53	2
6	17	3
13	20	1
80	82	1
60	84	1
34	34	4
72	78	1
4	23	1
5	13	4
68	85	1
49	84	2
64	73	1
21	85	1
49	83	3
32	34	2
10	78	1
78	81	1
6	9	1
8	65	2
4	85	1
77	79	1
10	25	1
58	71	1
23	58	1
9	77	1
23	27	2
11	25	1
66	78	1
56	62	1
9	10	2
10	79	1
11	12	2
18	18	1
46	47	1
63	73	1
49	63	1
6	57	2
8	20	1
4	89	1
9	80	1
58	66	1
12	23	1
