87	104	2
41	89	1
56	82	3
54	109	3
61	63	2
107	108	1
89	89	7
117	117	7
126	126	4
82	121	1
87	87	2
40	43	3
104	105	6
42	42	1
80	107	1
11	72	4
29	48	3
28	115	6
117	118	3
130	130	9
56	69	1
76	76	1
2	2	7
27	48	2
61	61	1
70	70	3
82	82	3
0	0	6
129	129	3
18	18	4
111	111	11
33	33	4
10	10	3
95	102	2
121	121	7
49	49	7
39	39	6
88	88	4
128	129	4
6	6	5
20	20	2
110	111	5
75	75	4
7	8	5
97	97	4
128	128	4
55	55	2
92	92	7
5	5	5
63	63	3
29	31	3
101	115	1
69	69	1
102	131	1
98	130	2
40	88	1
42	43	7
12	12	5
58	63	2
106	109	1
26	26	1
13	24	1
113	113	1
43	78	11
78	78	9
67	68	6
28	28	6
83	84	3
48	78	4
27	113	1
29	30	2
102	130	2
112	113	2
54	54	6
84	85	4
44	44	1
24	33	1
77	77	2
3	3	3
7	7	5
41	44	2
41	58	1
114	114	2
81	81	3
103	104	2
108	108	1
113	114	2
91	99	1
93	93	2
13	13	3
105	106	5
107	107	3
31	31	1
96	97	3
51	52	2
112	112	4
31	48	3
78	79	3
4	21	2
73	73	3
14	14	5
45	46	4
11	13	1
120	120	12
25	26	4
56	65	3
49	50	3
59	59	1
79	105	3
85	85	4
69	133	2
99	99	5
27	29	2
4	4	1
62	62	2
81	105	2
80	81	2
16	16	2
83	83	6
120	129	2
130	131	2
93	96	2
74	74	1
46	46	3
60	60	1
27	27	4
26	73	1
15	16	2
47	71	2
57	57	6
45	45	4
62	63	2
76	77	2
48	48	1
41	41	2
111	113	1
110	110	2
23	29	2
70	72	1
76	92	2
64	64	4
55	65	1
88	89	5
34	34	6
103	103	6
66	66	3
1	31	1
39	59	1
48	71	3
111	112	2
91	92	4
24	24	6
115	115	2
68	68	3
125	127	1
124	124	1
52	52	3
43	115	1
37	45	1
1	63	1
91	93	3
71	74	3
50	50	3
98	98	2
105	105	2
41	42	2
105	107	2
94	94	1
104	104	2
56	56	1
22	22	1
31	32	1
47	47	1
76	91	1
38	39	2
109	109	1
3	4	1
53	53	2
27	115	2
125	125	2
99	102	2
103	119	2
91	91	1
84	84	2
68	84	2
12	24	2
15	15	1
37	46	2
72	72	1
79	79	4
126	128	1
80	80	1
131	131	3
29	29	1
17	17	1
40	68	1
127	130	2
38	38	1
128	131	1
106	110	1
123	123	2
92	93	1
30	30	3
11	11	1
16	17	1
8	9	1
122	122	1
106	106	1
69	70	3
14	20	1
44	45	1
87	103	1
118	119	1
19	19	2
52	53	1
83	85	1
76	78	1
54	108	1
71	75	1
78	110	1
24	30	1
58	66	1
63	64	1
65	65	1
103	117	1
115	116	1
