117	118	8
155	156	2
132	133	1
128	129	2
109	109	5
64	67	1
96	142	4
117	145	3
64	65	3
20	20	11
111	111	7
105	106	2
16	46	5
33	33	12
51	92	2
131	131	7
26	72	2
128	128	3
110	110	7
110	158	1
146	148	4
39	39	14
65	79	1
117	117	11
83	83	10
144	144	5
87	87	5
89	125	3
14	19	6
6	25	1
137	137	5
90	124	4
9	9	1
9	10	8
151	155	2
113	141	4
11	11	7
25	25	6
47	49	2
21	22	3
94	94	7
110	132	2
94	123	1
48	51	2
154	154	7
93	93	10
43	43	8
20	39	6
137	138	1
118	120	1
70	141	4
27	27	7
146	149	5
6	23	2
125	127	4
63	70	2
108	109	7
65	65	1
93	124	3
120	157	1
9	38	1
120	121	13
52	72	2
5	8	2
94	122	4
53	67	4
87	100	1
53	72	2
56	71	1
26	54	3
81	81	6
8	8	3
115	158	4
99	99	2
45	46	1
18	36	2
77	77	7
39	45	5
134	134	6
118	145	2
35	35	6
125	125	3
124	127	2
115	155	2
11	55	1
8	17	3
108	108	6
22	22	1
112	112	4
106	140	2
7	12	1
41	56	5
96	96	2
94	95	4
75	96	3
123	124	2
118	118	4
12	119	5
42	42	7
109	152	6
45	45	11
85	85	4
103	110	3
156	156	3
129	129	3
27	120	1
15	15	7
14	14	2
55	55	5
133	133	4
95	95	6
139	139	5
55	56	2
133	134	5
113	113	2
66	88	3
115	116	4
112	151	2
3	3	7
18	18	1
121	121	5
1	1	1
112	140	3
122	122	4
146	147	2
10	10	7
67	92	3
62	62	2
150	150	3
34	34	2
39	47	3
46	47	2
68	68	5
51	51	3
70	96	2
18	19	5
56	57	2
47	47	8
116	154	2
122	127	4
3	4	5
70	70	2
88	88	6
2	6	1
51	52	1
34	48	4
147	147	3
114	114	1
117	123	7
130	130	4
36	37	1
132	134	9
13	15	3
38	38	4
29	36	1
119	119	7
125	136	2
147	158	3
76	76	2
31	70	2
26	26	2
113	140	2
12	145	3
28	54	1
21	21	3
146	158	2
48	48	2
63	64	4
97	98	2
158	158	3
28	67	1
68	90	1
11	37	1
114	115	3
91	93	2
110	153	1
84	84	8
4	22	1
66	66	3
17	17	1
123	127	3
18	23	1
79	79	3
146	146	4
71	72	5
73	152	3
78	78	7
86	86	2
124	124	2
110	148	2
139	154	3
7	7	5
109	159	2
106	106	2
41	42	5
81	90	2
111	112	1
10	51	5
135	143	1
66	101	1
73	74	2
35	36	6
14	45	2
88	138	1
67	81	3
113	150	1
87	91	3
13	20	3
23	24	2
135	135	4
13	13	1
3	19	2
87	92	2
116	158	1
131	139	1
29	80	3
146	151	3
10	46	1
136	136	5
36	54	2
10	39	1
66	70	2
37	46	1
140	140	2
39	40	1
115	115	3
107	157	2
110	157	2
2	2	7
9	49	3
10	49	3
107	110	2
73	108	1
80	81	2
32	32	1
34	36	1
106	107	3
89	124	1
11	12	1
91	91	4
107	159	3
24	41	2
157	157	2
127	139	3
0	0	2
127	127	4
22	38	2
53	81	6
97	97	2
0	84	1
72	72	1
47	51	3
30	31	2
46	50	2
108	110	2
41	41	2
25	29	1
31	31	5
127	130	1
99	144	1
67	100	2
14	15	3
98	98	2
123	126	2
26	29	1
74	74	1
113	151	1
46	46	2
40	40	1
68	69	2
127	148	1
106	131	1
5	5	1
112	158	3
23	41	1
3	21	2
116	121	1
111	153	2
28	28	2
127	153	2
139	142	1
114	128	1
112	113	1
107	107	1
8	12	2
74	78	1
96	97	1
84	92	1
13	46	2
75	79	1
135	136	1
132	150	2
34	71	2
76	78	1
6	6	1
89	89	4
75	100	5
56	56	1
99	113	1
95	96	1
53	53	1
75	76	2
101	101	1
24	26	1
17	44	2
105	142	1
14	40	2
99	105	1
100	105	1
103	127	1
30	80	1
1	2	1
34	55	1
26	62	1
91	131	1
138	142	2
88	123	1
130	139	1
99	115	1
52	52	1
131	157	2
65	87	2
111	147	1
125	135	1
131	150	1
98	141	1
44	57	1
4	4	1
19	21	1
10	15	1
