97	97	8
93	93	3
45	46	1
87	96	2
126	126	11
53	53	13
40	64	1
111	111	10
38	41	2
52	53	11
84	84	6
80	94	1
42	42	13
45	58	2
97	102	1
65	65	19
69	73	1
91	92	10
82	99	5
118	118	9
22	31	2
127	128	4
99	99	3
126	127	4
15	16	6
59	59	1
114	114	13
44	59	2
6	6	8
63	78	1
4	4	17
70	72	3
90	95	2
45	65	3
92	92	5
6	23	2
91	93	1
125	125	10
57	57	6
41	41	8
73	74	7
92	105	1
114	133	1
79	105	3
65	84	4
11	40	2
5	5	7
119	119	11
21	25	8
4	7	2
68	68	7
39	40	2
109	120	3
122	122	5
7	7	10
72	73	5
124	124	6
7	58	6
108	108	6
111	120	2
122	123	8
71	74	2
26	26	10
14	14	13
47	66	2
22	22	1
25	25	7
103	103	6
70	82	1
85	102	5
15	65	5
18	20	3
47	55	7
48	115	2
90	90	10
18	21	2
83	98	9
74	74	2
82	82	8
41	74	3
107	115	2
76	76	2
30	30	6
83	99	3
71	75	4
58	58	2
56	69	3
12	12	2
13	33	1
90	91	5
60	78	3
105	121	1
89	89	4
1	5	5
101	103	2
96	96	3
39	39	5
110	110	6
89	103	1
43	43	17
28	28	11
20	20	6
29	29	5
85	106	1
5	21	3
108	113	1
48	51	5
60	61	1
24	74	1
52	94	1
117	118	3
46	66	7
51	78	2
44	44	8
123	124	3
58	66	1
27	28	1
80	86	4
56	62	2
2	2	11
93	115	3
101	102	4
102	106	1
33	33	8
92	94	6
23	26	5
75	91	5
52	58	4
114	122	2
67	67	9
13	13	6
26	29	7
48	64	4
42	59	4
70	84	1
101	101	4
53	72	1
63	64	5
114	115	2
48	48	4
91	91	10
99	100	3
70	71	3
130	130	9
19	19	11
0	0	3
43	66	4
58	69	2
3	3	6
104	104	3
70	88	3
45	76	3
81	81	11
25	26	2
67	75	5
86	87	2
49	115	4
46	46	2
47	47	4
109	109	9
95	95	5
115	115	5
21	33	4
100	106	1
43	62	1
79	79	11
11	27	3
131	131	7
120	125	2
39	69	2
27	48	2
28	29	5
4	5	3
114	125	1
14	16	4
72	105	4
38	40	4
89	97	4
58	64	1
18	18	1
74	84	2
91	96	1
68	71	2
3	24	1
24	24	4
126	130	1
0	10	4
72	72	2
16	16	3
87	87	2
85	85	5
128	128	4
98	98	6
88	88	9
19	42	2
6	32	2
2	20	1
10	12	2
8	8	2
27	32	7
66	71	3
63	72	1
108	128	1
77	77	4
29	30	1
120	121	2
43	45	1
76	78	4
52	93	4
106	106	8
123	125	1
67	69	3
50	50	5
88	97	2
100	100	1
33	38	7
107	107	2
99	103	5
2	63	2
17	22	2
68	70	1
107	118	2
34	34	4
81	82	4
1	2	2
58	61	4
26	30	2
95	115	4
102	102	1
113	123	4
64	64	4
132	132	2
111	128	5
60	84	3
105	105	5
10	13	3
121	133	7
54	54	6
63	63	2
120	128	2
52	111	3
123	123	8
117	119	1
62	67	4
102	103	2
74	75	7
87	92	4
127	129	1
117	117	8
89	115	1
23	33	3
56	67	1
49	49	4
56	103	2
97	108	1
11	11	5
55	57	4
101	121	3
81	85	2
2	9	1
98	100	2
52	55	1
112	124	2
33	47	1
40	42	1
129	129	3
130	131	3
75	75	6
71	73	1
127	127	5
9	53	2
66	66	5
46	67	2
89	90	2
52	52	6
116	116	6
96	97	1
82	84	2
87	90	1
47	90	4
32	51	4
48	91	1
2	8	2
51	106	4
62	62	4
13	14	1
7	14	1
27	27	3
39	70	1
49	114	3
109	111	4
49	67	3
60	63	3
22	28	1
72	86	2
68	80	4
55	56	5
0	1	6
21	21	3
78	99	1
60	60	7
39	49	4
69	69	1
8	54	3
116	117	1
34	39	1
50	116	5
63	69	2
8	48	1
17	23	3
109	110	6
66	88	3
94	95	1
19	24	1
33	74	4
63	71	6
65	104	2
51	85	1
71	92	1
56	101	3
4	6	1
85	100	2
81	111	1
52	100	1
38	39	2
43	56	1
31	32	2
100	115	2
109	128	2
71	71	3
20	22	4
75	77	1
69	75	2
95	113	3
92	95	2
6	7	1
31	31	5
85	88	2
104	105	1
99	111	1
5	6	1
76	77	2
58	59	1
113	132	1
21	22	2
0	5	2
19	29	1
64	72	1
40	70	1
58	102	3
107	119	3
107	114	1
64	73	1
38	89	3
6	12	2
124	125	1
45	54	1
52	69	2
1	60	1
12	13	2
18	19	3
41	62	1
125	127	1
10	10	4
64	65	1
77	94	1
53	73	1
7	55	2
113	113	1
110	120	4
110	125	1
23	25	2
1	1	2
121	121	1
121	122	1
82	83	3
10	24	1
8	12	3
99	120	1
80	82	2
102	118	3
111	125	1
78	79	2
19	20	4
56	56	3
47	115	3
62	73	1
103	104	2
5	18	2
121	124	1
50	54	1
45	48	2
7	102	1
23	24	1
112	113	1
50	66	1
70	70	2
120	120	1
110	119	1
6	26	2
77	78	2
83	85	2
83	100	1
98	99	1
52	57	2
1	7	1
51	116	1
16	65	1
34	68	2
80	97	2
70	73	2
80	81	1
102	104	1
82	101	1
81	83	1
32	41	2
21	34	1
53	69	1
80	88	1
38	38	3
52	59	1
56	57	1
74	94	1
46	47	1
93	114	1
12	15	1
79	106	2
78	78	1
51	51	2
12	28	1
107	121	1
19	22	2
61	62	1
64	66	1
112	114	1
39	76	2
110	113	1
111	114	1
50	51	1
98	113	1
126	128	1
124	127	1
130	133	1
24	30	2
94	103	1
112	112	1
53	96	1
99	101	1
61	64	1
