33	35	2
77	77	6
54	55	1
36	36	12
91	91	4
30	30	11
128	128	18
136	136	15
97	97	6
98	99	2
57	57	1
6	6	11
140	140	6
98	98	14
66	66	6
71	71	7
36	134	3
53	53	6
40	40	10
93	93	4
137	137	7
101	102	7
108	109	1
51	52	2
72	72	11
139	139	6
107	108	6
83	85	5
63	63	8
19	19	9
110	110	13
134	135	4
58	115	2
120	120	8
24	24	10
29	29	18
99	99	12
118	118	3
34	34	6
73	73	12
92	92	8
20	21	3
75	75	1
135	136	5
27	27	5
90	90	5
104	106	6
21	21	4
32	133	4
13	13	3
122	122	8
9	10	6
55	79	7
23	23	8
49	49	6
38	38	9
9	9	5
9	18	2
104	104	10
118	120	1
5	5	10
131	131	11
1	1	5
116	116	6
11	11	4
51	51	9
62	62	4
69	93	1
15	16	5
83	84	3
102	103	1
17	17	2
55	55	6
123	123	6
89	106	7
6	49	1
33	33	11
41	41	3
106	107	4
67	67	3
70	71	3
96	96	2
32	32	10
123	126	2
25	25	6
14	14	4
36	93	7
65	65	18
68	68	2
22	94	2
18	18	12
87	87	7
20	20	10
111	116	2
53	54	5
0	1	4
65	119	1
39	39	6
62	63	3
110	116	4
105	106	3
81	82	2
59	59	4
120	121	9
115	115	2
66	67	3
31	31	8
82	82	9
22	22	6
91	92	3
125	125	2
117	117	4
3	4	2
48	48	7
64	64	7
129	130	1
20	97	3
105	105	5
26	26	10
145	145	5
106	106	4
55	78	2
84	85	3
31	32	6
95	95	6
6	7	3
42	42	2
143	143	6
3	3	5
85	85	2
54	86	3
52	52	5
108	108	1
92	93	2
112	112	4
81	81	1
89	89	5
127	129	2
104	133	4
132	132	6
60	60	10
70	70	7
102	102	3
87	88	3
48	54	1
74	74	3
8	17	3
40	41	4
138	138	7
79	82	1
33	34	6
40	140	5
69	70	1
59	113	3
103	104	2
93	94	1
58	58	4
100	100	3
61	61	7
63	69	4
30	134	2
83	83	3
65	66	6
35	35	1
119	119	5
101	101	2
35	36	4
145	146	1
43	99	3
117	121	4
88	90	3
82	83	1
107	107	1
79	81	1
141	141	8
89	100	1
69	69	3
54	54	7
53	71	4
103	103	9
114	114	6
77	78	7
65	68	1
0	0	3
111	112	3
121	121	2
21	23	2
2	2	8
134	134	5
127	128	2
2	3	4
15	15	4
144	145	2
86	108	2
28	28	3
128	130	4
28	29	1
18	97	1
43	97	1
121	122	3
72	73	4
117	118	1
100	101	3
65	93	1
29	41	1
109	109	3
33	137	2
48	51	2
56	56	2
99	100	2
55	56	1
39	41	1
41	140	1
4	4	2
50	51	2
108	132	1
30	37	1
123	129	1
109	110	5
25	26	3
141	142	1
97	98	1
135	135	3
29	134	3
75	78	1
71	108	3
136	137	2
80	80	1
80	81	4
76	77	4
56	115	2
113	113	4
48	50	4
2	13	1
35	138	1
53	72	3
130	131	1
71	72	3
57	80	1
108	111	1
75	76	2
127	127	7
129	129	4
20	23	2
110	117	1
106	109	2
16	16	10
56	57	2
96	97	2
41	42	1
78	79	2
119	126	2
47	50	1
86	86	1
144	144	4
59	60	2
122	130	1
73	111	1
75	81	1
20	96	1
49	50	1
80	82	1
130	130	2
10	18	2
16	79	1
22	23	1
9	19	1
94	97	1
19	141	1
94	94	3
103	129	1
87	90	1
123	127	1
4	137	1
78	78	1
52	105	1
90	101	1
87	100	1
126	126	2
103	131	1
91	99	1
61	63	1
43	43	1
132	133	1
133	133	1
136	139	1
58	113	2
110	130	1
8	8	2
67	68	1
27	40	1
37	37	1
75	77	1
126	127	1
111	111	1
133	134	1
101	103	1
88	88	1
115	116	1
