60	92	2
68	96	1
102	103	2
88	90	3
73	73	2
42	42	8
18	18	9
111	111	6
136	136	5
136	138	2
143	144	5
89	89	11
125	125	3
66	66	8
122	122	3
80	80	5
8	102	3
87	90	1
99	141	3
130	130	7
134	135	7
52	53	2
114	117	4
0	0	7
9	9	3
133	134	3
22	41	6
107	138	3
57	57	4
138	138	4
97	97	2
15	52	1
33	48	2
135	136	6
31	31	2
20	43	2
140	140	7
19	19	10
81	81	7
21	22	3
67	68	4
53	53	4
36	36	2
18	19	4
57	73	2
8	8	1
58	59	3
22	22	2
123	123	14
62	99	2
127	128	2
124	124	4
40	40	1
88	88	5
128	128	6
57	59	3
59	92	4
21	21	3
114	114	5
67	67	3
115	118	5
14	14	4
64	64	3
84	86	1
55	56	6
102	102	1
24	24	9
110	111	2
32	32	3
139	141	2
40	41	3
83	83	3
64	123	1
16	17	2
89	90	2
37	37	4
2	3	1
26	27	3
83	84	3
144	144	2
5	5	9
2	47	1
119	119	2
11	11	8
41	42	5
16	16	15
118	118	1
75	75	5
11	20	4
30	30	4
77	77	6
4	4	3
58	58	2
122	123	4
39	40	1
39	39	9
123	124	2
84	85	3
116	117	4
52	56	3
135	135	3
26	26	2
141	141	6
51	52	4
27	28	1
28	28	6
17	19	3
48	48	3
21	40	1
14	47	4
19	20	2
38	38	5
20	21	3
57	78	2
92	92	7
111	113	2
74	74	4
127	127	5
25	25	5
102	135	2
27	27	3
118	119	2
59	59	3
30	38	3
137	137	4
48	134	2
50	50	6
139	139	9
98	141	2
100	100	1
94	94	3
93	94	1
59	91	1
61	70	3
62	64	1
23	23	5
11	19	5
112	116	2
79	79	2
129	129	8
34	34	6
33	75	1
17	17	1
93	93	5
124	133	1
25	38	1
12	12	1
57	58	3
120	120	3
87	87	2
69	69	7
108	108	3
73	104	1
71	93	3
49	75	2
29	29	3
95	96	3
70	146	3
71	74	3
95	95	6
136	137	4
131	131	4
98	98	4
14	39	3
68	68	5
47	47	2
11	18	1
112	115	3
56	56	2
101	101	1
22	23	4
109	109	9
72	72	2
71	75	2
142	142	2
103	104	3
62	62	1
49	52	1
85	85	3
21	42	3
15	15	1
70	70	3
23	101	2
71	72	1
99	100	2
13	13	5
21	26	1
57	91	2
113	115	1
88	89	1
35	35	1
59	62	1
107	134	1
64	66	1
115	115	2
116	116	1
145	145	1
86	87	1
48	102	1
82	88	2
29	37	2
108	140	1
104	104	3
32	33	2
100	142	1
10	19	1
103	103	3
10	20	2
28	30	2
129	131	1
11	12	1
47	48	2
65	65	1
23	24	2
117	119	2
23	135	1
86	86	2
110	110	2
51	78	1
105	106	2
107	107	1
118	120	1
0	5	1
63	64	1
2	137	1
59	61	1
30	48	1
66	67	1
82	82	1
121	122	1
52	52	1
6	6	2
63	98	1
91	91	2
38	39	1
90	94	1
2	2	3
96	96	1
63	63	1
120	121	2
76	76	1
13	16	2
129	130	2
29	31	2
117	117	1
60	60	1
126	127	1
105	105	1
