75	84	2
75	75	8
81	113	5
104	107	4
65	65	2
32	32	3
107	107	11
109	109	5
19	91	2
39	55	9
21	26	1
94	101	3
79	82	3
109	110	1
61	62	6
47	47	6
35	51	1
28	28	1
76	76	10
88	91	3
33	35	3
87	87	6
90	90	4
96	97	2
45	47	1
42	42	8
89	91	2
95	95	5
83	84	2
80	80	2
41	41	3
110	110	7
26	26	6
35	35	5
104	108	3
106	108	2
81	81	3
92	106	4
87	103	1
99	99	7
23	23	1
91	91	2
96	96	8
47	48	3
94	97	1
109	113	2
100	101	2
33	33	2
94	96	1
24	50	1
60	60	5
38	55	1
83	86	2
31	31	3
96	98	1
44	64	2
56	59	5
66	108	1
91	95	1
74	74	2
70	89	2
43	57	4
48	48	5
94	94	4
25	26	2
64	64	3
36	36	3
78	78	8
66	66	2
52	54	2
71	71	9
85	85	4
24	25	4
29	36	1
28	29	7
99	107	3
113	113	5
37	37	1
88	96	1
101	101	6
23	34	3
42	54	3
93	93	3
100	100	10
106	106	11
85	90	2
98	99	3
87	91	1
20	91	1
75	81	1
34	55	1
32	37	5
92	92	3
27	27	2
61	77	1
52	53	1
44	44	1
44	50	1
45	56	4
35	97	1
55	55	4
72	75	3
89	106	5
43	59	2
37	63	2
97	97	5
86	89	2
78	83	2
106	111	2
38	38	3
33	37	1
32	33	5
101	106	3
54	83	1
62	62	7
88	90	2
56	90	2
47	85	4
45	45	7
73	83	2
77	82	1
56	87	4
55	61	4
72	77	1
86	112	2
38	57	1
40	41	1
43	43	1
49	50	1
67	68	4
20	29	3
29	42	2
83	96	1
23	33	2
20	21	1
42	53	3
46	52	3
81	83	1
71	73	5
24	24	6
20	32	2
83	83	2
66	68	1
64	70	1
38	59	2
44	49	1
40	40	3
51	51	3
33	46	1
108	108	2
30	42	1
27	42	1
41	42	1
57	61	1
114	114	4
50	54	1
53	54	3
67	67	4
96	113	2
20	50	1
69	81	1
68	69	1
61	61	3
36	52	4
91	108	3
22	22	1
65	76	2
66	67	1
48	104	1
23	113	4
107	109	1
34	34	3
85	87	3
58	60	2
92	95	1
38	39	1
56	56	1
35	59	3
102	102	1
40	108	1
101	104	4
68	70	1
105	108	1
29	29	3
72	72	3
58	77	1
68	68	2
72	88	1
21	39	1
67	77	3
23	24	3
73	94	1
40	43	3
38	41	1
52	57	1
25	25	1
71	85	2
104	104	1
30	31	2
47	83	1
35	46	2
53	57	2
93	106	1
55	57	1
97	102	1
103	103	1
53	53	3
30	35	1
37	64	2
30	30	2
89	89	1
54	54	2
100	107	2
81	101	1
59	60	1
44	61	1
59	71	2
45	61	1
47	52	2
112	112	3
24	32	2
77	78	1
96	111	1
41	106	2
29	63	1
25	38	1
54	78	1
45	48	1
81	94	1
27	29	4
57	109	1
88	88	1
110	111	1
84	93	1
77	77	1
84	84	2
98	102	5
106	109	2
75	78	1
39	44	1
51	54	2
35	40	1
92	109	3
92	93	1
47	63	1
19	20	1
21	21	2
96	103	1
79	79	1
70	73	1
50	63	1
39	39	1
48	61	2
29	30	1
69	69	1
111	111	1
97	115	1
51	63	1
61	72	1
54	57	1
49	87	2
39	40	1
52	52	1
27	28	1
50	50	1
