148	148	1
68	68	4
94	95	3
86	86	5
57	57	1
133	137	3
72	81	1
156	158	2
166	166	10
65	65	4
40	40	6
179	179	2
160	177	6
180	180	6
84	104	2
155	155	5
151	162	3
148	164	4
57	76	6
32	40	1
59	59	10
65	66	1
77	77	6
158	158	4
37	48	1
78	78	2
120	131	2
66	85	1
96	100	4
180	186	4
145	145	3
70	73	2
154	154	6
81	81	9
159	159	3
180	183	1
36	40	4
28	38	3
173	189	4
6	6	11
162	162	3
3	15	8
70	92	5
130	130	5
4	24	3
17	21	4
93	107	1
147	161	2
158	169	4
54	54	4
98	121	1
2	22	2
31	32	1
46	102	3
138	145	2
3	3	1
56	63	4
165	190	4
85	85	1
32	55	3
34	42	2
68	74	1
127	129	4
84	100	3
116	119	2
28	34	1
71	71	2
71	92	2
32	32	4
33	33	7
111	113	3
102	114	2
172	172	6
114	130	5
32	33	3
29	29	1
160	160	4
18	18	4
129	129	6
186	186	1
24	24	1
81	96	3
124	128	3
134	134	5
168	176	2
5	6	8
178	188	2
55	55	6
146	146	4
76	76	6
135	135	3
59	60	2
20	21	1
84	84	7
96	126	3
131	168	1
86	92	1
127	127	2
43	43	2
156	156	6
115	115	4
115	122	2
167	167	3
88	88	3
123	129	6
105	116	2
25	33	3
54	55	2
22	23	5
120	134	1
2	13	1
115	127	5
27	31	6
161	161	9
73	73	3
175	188	3
68	70	2
99	99	7
8	8	2
164	166	1
110	110	4
188	189	1
10	28	2
141	141	4
11	39	1
134	136	1
149	156	1
166	174	1
117	117	2
134	149	2
112	112	3
2	17	2
109	109	4
107	118	3
138	140	3
27	27	3
36	39	2
170	170	6
127	148	3
13	47	2
94	141	2
40	57	2
133	142	3
23	39	3
119	143	4
15	15	5
32	48	1
5	23	3
104	117	2
59	73	1
12	12	9
67	74	1
60	60	1
95	95	9
120	120	1
189	190	1
48	87	3
74	79	2
147	147	3
124	125	2
146	160	1
91	91	1
17	17	3
66	67	1
166	181	1
170	174	3
121	121	3
55	76	1
70	71	6
83	84	2
131	140	3
95	96	3
189	189	1
0	18	1
98	114	3
10	10	3
174	174	2
161	165	1
188	188	9
168	187	2
2	7	5
83	83	4
93	97	2
41	41	4
60	80	2
22	22	1
153	171	2
94	113	1
185	186	1
173	186	2
148	150	5
23	23	2
164	187	3
1	1	1
175	189	2
164	174	5
152	163	1
44	44	2
34	34	2
139	141	1
101	105	1
185	185	3
46	46	6
130	133	1
26	26	3
186	187	3
172	185	1
79	92	2
41	45	1
19	19	3
16	17	6
164	168	2
22	25	2
46	53	2
56	90	5
107	126	1
110	128	1
34	41	1
94	107	2
183	183	7
5	5	4
116	131	2
164	165	1
98	102	5
152	152	4
143	143	13
22	26	1
105	105	6
64	68	1
15	21	1
107	120	3
118	134	3
139	154	2
131	131	6
153	168	4
30	40	1
154	155	4
10	29	1
87	106	3
62	63	1
139	159	3
120	122	1
71	73	3
61	66	3
97	100	1
134	137	4
129	141	4
136	137	2
77	86	4
65	72	1
38	49	2
3	4	2
80	80	1
110	122	1
96	96	2
89	106	1
89	90	5
103	103	3
148	166	1
94	94	1
183	184	2
12	41	2
31	46	3
98	113	1
188	190	1
141	153	1
157	160	1
70	85	4
150	152	2
98	98	2
177	177	2
37	106	1
38	42	1
9	32	3
5	7	2
107	125	1
100	100	4
66	80	3
74	74	1
3	6	1
103	114	1
104	104	3
19	23	1
146	161	3
147	150	3
17	35	1
177	178	1
163	164	2
61	61	2
187	187	4
33	41	1
123	135	3
57	60	2
79	114	2
13	26	2
75	78	2
59	74	3
101	114	1
40	47	1
150	158	3
6	7	1
176	187	1
143	163	3
87	87	6
25	25	5
10	43	1
65	73	1
11	11	4
172	179	1
159	169	1
171	171	4
145	157	1
2	15	1
108	108	1
108	110	2
20	20	2
133	144	1
67	67	7
71	81	3
137	138	2
7	23	1
107	110	2
130	146	1
184	186	2
170	172	3
135	141	2
102	119	2
172	173	3
14	29	2
48	48	2
137	153	1
73	81	1
119	119	6
55	65	1
2	23	1
156	160	2
120	135	1
77	134	1
44	60	6
138	154	3
108	125	1
148	151	2
136	136	9
28	31	1
152	167	1
82	82	1
182	182	2
108	126	2
4	20	1
72	74	1
7	17	3
154	160	1
11	13	1
190	190	1
100	101	2
100	115	1
39	40	2
151	151	3
71	78	1
103	106	3
12	27	1
0	3	2
175	178	2
21	37	1
131	134	2
177	179	1
42	42	1
122	122	1
147	163	3
158	161	1
10	19	1
46	52	2
131	141	1
24	30	2
110	125	2
183	189	2
2	39	1
79	80	2
114	123	3
176	181	2
54	92	2
181	181	2
109	126	4
160	163	1
1	19	1
25	26	1
73	97	2
55	56	2
116	126	2
118	118	3
26	35	1
121	124	1
13	13	1
42	43	1
149	149	1
112	132	1
27	44	1
106	118	1
148	186	1
163	163	1
157	167	1
46	57	3
107	122	2
19	35	1
110	123	1
25	27	1
45	94	1
114	115	1
184	185	1
89	92	1
153	166	4
109	110	1
13	103	2
138	155	1
97	114	1
165	188	2
79	100	1
166	173	4
28	28	3
67	85	2
67	68	1
178	179	2
141	156	1
121	125	1
33	46	2
107	107	3
89	96	1
116	129	1
45	48	1
52	92	2
105	112	1
139	140	1
157	169	1
115	123	1
101	107	2
20	37	2
35	35	3
61	80	2
178	178	1
82	106	2
84	94	1
169	183	1
30	33	1
73	91	1
104	107	2
126	129	1
113	113	1
16	16	1
105	114	1
126	128	1
56	57	1
16	38	1
29	30	1
144	152	2
176	176	1
92	92	3
152	174	1
99	102	1
47	47	1
75	76	2
94	135	1
113	128	1
176	179	1
5	20	1
7	8	1
60	74	1
129	133	1
53	64	2
84	102	1
16	21	2
12	26	1
72	72	1
23	43	1
115	116	2
32	37	1
88	104	1
102	115	1
168	172	1
173	178	1
14	14	1
78	80	2
26	27	1
128	139	1
63	63	1
107	108	1
184	188	1
60	75	1
120	121	1
130	148	1
110	117	1
80	101	1
32	136	1
58	65	1
160	187	1
90	95	1
30	106	1
2	6	1
36	38	1
