118	118	9
38	38	2
154	154	4
93	93	2
95	121	1
62	62	4
71	71	9
12	13	6
2	7	3
117	117	7
79	79	6
25	25	2
37	37	7
46	47	7
46	46	3
10	24	6
132	132	5
7	34	3
13	13	11
94	95	2
142	143	2
11	11	3
118	119	2
81	82	2
55	56	4
136	138	4
47	62	5
20	20	2
24	24	8
70	70	9
18	18	7
133	133	10
77	77	4
86	86	2
92	92	2
117	118	2
68	68	8
8	8	3
45	45	5
47	47	5
65	75	5
100	102	1
27	27	4
99	103	4
103	103	4
95	122	1
27	149	1
91	91	1
53	53	14
2	24	2
9	9	7
83	84	5
46	48	1
94	94	15
139	139	5
29	29	12
134	134	4
14	14	3
96	96	7
8	9	1
76	76	4
109	109	4
21	21	16
11	26	2
73	73	3
135	135	6
6	8	1
3	3	2
63	76	3
99	99	4
109	110	5
16	16	7
153	153	11
114	114	5
136	136	10
66	66	2
28	28	4
43	43	2
72	73	3
10	10	10
36	36	4
19	19	19
141	141	6
50	128	4
131	132	4
150	150	6
11	23	4
50	51	2
23	23	8
85	85	3
113	113	4
69	69	3
17	17	7
74	74	1
78	81	4
40	40	10
18	19	4
144	144	2
111	111	5
83	83	1
12	12	1
67	67	2
44	46	6
93	112	2
86	88	2
99	131	3
142	142	3
109	111	2
101	101	1
136	137	5
122	122	10
57	57	6
62	126	1
108	133	2
132	133	5
77	78	1
54	54	2
115	115	4
107	107	5
112	112	3
39	39	6
3	8	1
80	80	3
54	129	2
42	42	4
151	151	4
31	32	2
4	6	5
129	129	11
96	97	2
78	80	3
78	79	1
111	112	1
64	66	2
141	142	1
97	97	7
103	104	3
138	138	3
54	130	1
32	37	1
143	143	1
67	77	1
91	123	1
31	36	2
68	69	1
70	71	1
129	130	3
10	25	5
7	36	1
66	67	2
121	122	3
145	145	6
126	128	2
92	123	2
142	144	2
11	22	3
41	41	3
28	149	1
106	106	3
34	35	2
102	102	1
42	43	1
16	18	2
116	116	8
9	30	1
100	100	8
30	53	1
79	82	3
75	75	4
66	125	2
40	41	3
58	58	3
22	22	1
149	149	1
30	30	2
26	151	1
25	26	2
81	81	1
65	65	1
19	147	1
148	148	3
106	107	2
95	97	3
147	147	1
84	85	4
51	129	1
96	99	3
107	108	1
121	121	2
44	44	3
95	95	1
67	76	2
135	138	1
28	152	3
5	5	2
73	74	3
125	126	3
82	85	2
72	72	1
102	149	1
128	128	2
103	149	1
12	14	1
13	24	2
99	100	3
28	29	1
93	123	4
51	54	1
124	125	2
127	128	1
5	36	1
29	30	1
17	19	1
96	131	2
63	67	1
23	154	1
48	48	1
123	123	1
16	17	2
28	30	1
50	50	1
3	14	1
45	46	1
32	33	1
12	15	1
96	132	1
38	39	1
40	47	2
126	127	1
20	22	1
94	121	1
110	111	1
26	26	1
119	119	2
127	127	1
33	33	1
131	131	1
37	38	1
137	137	1
55	55	2
147	148	1
106	110	1
15	15	1
28	129	1
95	123	2
98	98	1
50	94	1
109	139	1
149	150	1
82	84	1
49	49	1
53	54	1
130	130	1
130	151	1
89	89	1
106	122	1
101	145	1
102	103	1
56	56	1
78	78	1
53	55	1
7	7	1
152	152	2
82	82	1
