47	48	5
96	98	3
95	98	2
48	96	4
49	52	2
63	63	9
46	49	1
54	56	1
52	84	2
86	86	4
73	73	8
26	27	3
55	56	5
48	60	1
24	24	4
90	91	2
41	41	2
31	35	2
20	20	5
71	101	2
48	48	1
90	90	2
28	28	1
89	104	1
39	39	5
59	60	5
95	96	2
71	71	2
40	41	4
71	72	2
96	97	4
36	40	2
80	85	3
42	43	3
58	104	1
93	96	6
46	53	1
30	37	3
75	75	4
51	51	4
55	55	4
34	34	3
58	59	9
50	79	1
82	82	7
26	26	4
100	102	1
63	64	4
42	42	3
91	91	4
27	41	2
65	65	5
102	102	6
53	95	1
64	67	2
71	78	1
91	97	1
54	54	3
29	40	1
63	66	7
79	80	1
21	21	9
95	95	4
59	63	3
41	43	2
78	80	2
97	97	1
50	52	2
64	65	1
33	34	5
94	94	5
45	45	3
101	102	1
56	56	11
98	98	4
44	47	4
44	44	5
92	92	3
26	32	2
85	98	5
80	81	4
32	32	2
50	51	1
49	49	3
103	103	2
22	25	3
68	69	2
57	60	1
74	85	1
26	79	1
47	59	3
43	44	1
77	88	1
93	93	3
21	106	1
35	35	6
74	74	1
70	82	1
82	83	4
30	30	2
51	52	2
31	33	1
106	106	3
23	23	3
46	54	3
43	47	2
47	47	2
45	55	2
84	84	1
27	53	4
22	81	2
45	46	2
100	100	2
102	105	2
76	76	7
24	25	2
37	37	3
61	62	4
28	40	2
30	31	5
78	78	4
31	54	2
71	76	1
89	93	2
58	58	3
25	25	4
78	105	2
99	99	2
69	69	6
100	103	2
61	76	2
50	57	3
59	59	5
88	103	3
31	56	1
35	40	4
64	64	2
69	77	1
73	80	4
70	81	3
36	41	2
69	74	2
57	64	3
87	95	1
24	81	1
73	81	7
88	95	2
51	57	3
71	100	2
81	93	1
20	21	2
45	50	3
89	100	1
60	61	1
46	55	1
35	36	2
61	61	2
68	71	1
80	94	4
80	80	3
32	33	1
92	93	1
60	60	5
55	83	1
96	96	4
57	76	2
67	67	2
24	27	2
38	39	1
25	78	2
52	53	3
56	57	1
25	37	2
36	49	1
96	101	2
24	28	1
75	76	2
83	83	3
99	100	1
62	63	2
77	105	1
40	40	2
47	54	2
81	88	4
85	86	2
53	53	2
63	70	1
38	49	1
66	66	2
105	106	2
44	51	1
29	30	1
95	97	1
75	77	1
58	76	2
57	104	1
80	102	1
91	106	1
91	92	1
71	77	1
68	72	2
71	102	1
59	104	1
34	49	1
89	90	1
38	38	1
104	104	4
31	31	3
31	32	1
103	104	3
41	67	1
60	65	1
47	49	1
96	100	1
57	57	1
101	101	1
52	52	1
22	26	1
104	106	3
91	101	1
32	34	1
66	74	1
99	104	1
71	73	1
36	36	1
43	43	1
58	70	1
36	38	1
105	105	1
35	39	1
87	98	1
72	77	1
53	68	1
34	35	1
30	81	1
23	24	1
