165	166	2
223	226	3
72	72	5
22	23	3
24	117	3
164	164	7
9	9	7
104	106	4
14	14	6
2	3	1
112	113	4
157	157	13
43	43	16
7	7	9
42	42	17
67	67	11
197	198	6
155	155	6
35	63	1
112	241	4
8	8	2
203	203	8
17	17	6
29	29	2
174	174	11
242	243	4
41	151	3
29	30	5
105	105	2
151	151	4
218	218	8
110	110	7
249	249	4
220	220	15
18	19	10
113	115	3
10	11	5
20	21	4
93	100	1
69	108	1
116	116	2
50	50	2
46	47	4
32	32	2
23	23	10
117	117	9
234	234	8
115	115	14
86	88	3
6	145	1
157	158	3
218	219	4
30	30	14
31	31	5
16	16	5
183	183	10
45	183	2
11	113	1
178	179	4
34	34	5
146	146	2
62	62	10
207	207	4
233	234	5
232	233	2
95	95	10
112	112	16
8	9	4
80	80	9
109	226	2
224	225	4
53	53	7
63	63	8
84	85	7
242	242	5
48	64	1
177	243	2
89	89	4
95	96	6
192	192	8
21	21	12
237	239	5
152	152	2
221	221	4
181	182	2
172	172	16
182	182	5
10	10	9
80	85	1
90	90	2
87	88	6
49	49	3
42	229	2
214	214	17
47	47	5
18	18	11
176	177	4
11	36	3
26	26	5
181	181	5
36	38	2
180	181	5
54	246	4
175	175	4
39	39	4
30	31	6
28	28	7
75	75	8
248	248	2
180	180	5
51	51	8
165	165	12
183	184	4
186	247	4
84	84	6
105	106	7
55	213	1
215	216	2
110	111	6
154	154	6
109	109	6
109	236	1
206	206	12
159	159	6
82	84	3
37	37	7
11	11	5
161	161	7
70	70	7
12	12	6
230	236	2
70	71	5
89	101	1
60	60	3
81	93	3
39	40	1
218	227	3
246	246	7
33	34	3
191	191	3
33	155	2
113	113	2
68	68	6
119	120	2
208	208	4
155	156	2
235	245	1
100	101	3
221	222	2
35	35	11
14	33	2
101	101	3
147	150	1
238	238	7
177	177	6
44	44	4
27	27	7
48	65	3
87	87	7
205	205	7
211	213	1
160	194	1
31	32	3
6	6	7
149	230	1
14	62	2
73	89	2
88	88	11
198	198	2
66	66	11
230	230	4
193	193	6
30	113	2
103	104	1
240	240	12
211	212	7
57	57	9
238	239	2
167	227	3
86	86	8
92	92	6
19	19	5
204	204	9
210	210	5
213	214	3
247	247	9
99	99	6
109	110	6
181	196	2
182	185	1
64	65	7
169	170	4
17	19	1
82	82	6
15	34	2
15	16	3
216	218	7
203	204	3
58	61	2
224	224	5
38	44	2
233	233	1
215	215	5
45	45	8
145	147	3
162	164	4
28	206	1
33	33	7
241	243	2
229	229	5
100	100	4
99	103	5
64	64	3
175	239	2
184	184	8
67	68	2
61	245	2
212	234	4
228	228	4
97	97	6
44	47	4
2	145	4
40	41	2
94	94	4
4	4	7
36	53	3
61	166	1
178	231	1
105	107	2
76	77	1
227	227	3
75	76	10
223	223	4
238	243	4
24	26	1
150	150	5
173	174	2
25	25	2
219	220	3
187	188	6
106	106	1
13	56	2
231	231	8
79	81	4
200	200	6
219	219	6
69	69	1
114	115	1
241	241	3
163	165	1
116	118	1
179	179	2
68	100	2
26	27	1
102	102	7
83	85	6
69	71	1
156	156	2
209	209	3
85	85	5
201	201	6
164	166	4
237	237	1
38	100	2
166	191	2
47	48	2
168	168	5
14	36	1
89	90	2
225	225	4
200	201	2
43	178	1
8	231	2
54	54	10
199	200	6
197	197	3
40	40	9
25	26	7
169	241	3
88	89	2
59	60	1
9	10	1
209	221	3
11	170	2
20	212	3
144	149	1
195	195	3
41	41	1
54	155	2
170	171	2
208	222	3
171	171	5
162	162	3
64	110	3
72	74	1
161	178	1
199	199	4
163	164	1
212	212	3
51	63	1
76	76	2
65	66	1
187	187	4
94	95	1
90	100	2
161	225	1
42	44	1
11	39	1
77	78	3
160	160	4
43	44	1
48	49	5
20	20	4
190	191	1
108	108	5
243	244	4
114	114	14
38	38	3
92	93	3
174	247	3
158	159	2
185	185	8
55	62	2
160	210	1
236	243	1
115	119	2
155	229	1
2	2	3
45	46	1
170	170	8
103	103	2
46	46	6
95	112	2
205	206	1
120	120	9
217	217	4
32	33	1
168	171	2
111	111	2
52	53	6
96	96	5
14	153	1
93	95	3
68	70	1
58	58	2
16	19	2
66	67	1
166	166	3
162	174	3
232	232	4
229	236	1
146	150	4
77	77	4
81	82	1
57	58	3
56	57	4
55	56	1
39	42	1
201	202	3
48	48	3
241	242	1
244	245	1
1	2	1
189	190	2
68	244	2
222	223	1
5	5	1
56	56	2
147	228	2
194	194	2
48	50	1
235	235	5
85	87	1
246	249	2
224	227	5
239	239	1
190	190	3
83	144	2
22	22	1
188	188	3
174	186	1
22	33	1
1	1	2
36	36	4
245	245	4
77	108	1
115	116	2
186	186	3
211	211	2
20	211	1
159	160	1
85	86	3
149	149	1
3	3	2
147	147	2
98	105	1
21	23	3
158	158	2
14	61	2
68	69	2
113	240	2
80	88	1
21	212	2
226	226	4
74	74	1
180	207	1
186	233	1
179	181	1
174	215	1
244	244	2
52	55	2
169	169	2
182	184	3
213	213	1
15	15	1
176	176	3
49	50	2
94	99	2
21	144	1
171	234	1
177	239	2
118	119	1
37	54	4
181	184	1
71	71	1
27	157	1
154	155	2
55	245	3
25	153	1
93	99	1
53	54	4
46	52	1
164	170	1
38	83	2
190	233	1
91	91	1
117	185	2
16	227	1
65	65	3
113	242	1
196	196	1
14	210	2
37	38	1
16	18	5
167	167	2
29	31	2
92	99	1
19	20	1
230	234	4
42	43	1
56	62	2
246	247	1
200	246	2
55	55	1
118	118	1
189	189	2
178	178	1
121	121	1
151	152	2
63	103	1
180	182	1
59	59	3
94	96	2
101	102	2
34	35	1
220	232	1
153	153	3
166	168	1
119	119	2
81	81	1
57	60	1
166	169	2
147	229	4
212	213	1
13	13	3
179	198	1
73	74	2
78	78	2
66	71	1
54	55	1
97	109	1
221	223	1
204	205	1
32	179	1
214	233	1
75	92	1
111	112	1
72	75	1
156	157	1
83	84	1
6	11	1
61	61	1
170	189	1
142	142	1
148	150	1
153	161	1
68	108	1
161	175	1
182	183	1
173	215	1
189	241	1
143	208	1
162	175	1
169	171	1
216	217	1
243	243	1
176	238	1
236	237	1
192	193	1
198	199	1
173	173	1
228	247	1
56	60	1
91	106	1
202	203	1
62	235	1
