16	132	1
53	56	8
17	182	1
49	50	4
48	48	10
59	59	7
12	14	2
106	130	2
174	180	2
6	6	4
42	42	10
47	47	5
117	172	1
33	36	3
123	124	3
169	169	6
182	182	6
170	171	6
186	187	6
37	47	7
49	49	5
113	113	3
154	180	4
177	177	6
50	52	2
54	70	3
13	64	1
24	24	6
82	83	3
136	136	6
179	179	4
67	67	8
126	126	16
22	22	3
117	117	5
17	17	7
18	19	7
153	153	6
176	178	4
79	86	1
40	42	2
119	119	6
188	188	13
15	15	3
153	180	4
131	132	7
51	51	12
61	61	6
134	135	1
70	70	7
26	26	11
119	178	1
180	180	8
176	176	8
15	85	2
78	78	7
18	23	2
147	147	8
169	177	3
112	112	13
108	108	9
15	35	3
72	72	6
136	140	1
157	176	1
68	75	3
116	142	2
53	54	2
45	45	10
99	99	10
11	47	3
143	143	3
66	81	5
41	41	3
81	84	6
157	157	3
154	154	8
183	183	17
11	11	3
102	112	8
155	157	2
159	176	6
149	149	8
18	108	4
155	156	3
88	134	1
75	75	3
55	55	6
14	14	11
47	48	6
62	74	2
150	184	3
123	170	3
50	57	1
106	110	1
69	71	7
175	175	5
21	34	1
9	9	9
14	128	1
71	71	4
108	153	2
0	1	4
167	167	2
162	162	7
5	6	3
107	108	6
52	52	2
58	64	3
190	191	1
160	160	3
19	19	6
58	58	3
101	138	1
138	138	4
173	173	8
159	159	8
33	33	9
120	120	3
187	192	1
44	49	5
116	119	2
10	47	2
125	125	4
184	185	3
194	195	1
34	34	5
19	110	1
186	186	5
117	118	5
161	164	3
168	169	1
152	152	11
148	179	3
32	32	3
158	163	5
33	37	2
194	194	6
3	3	2
123	123	6
95	95	2
181	181	10
0	2	2
17	23	5
60	60	8
54	54	5
102	139	8
171	171	6
185	186	2
155	155	5
36	37	3
31	31	16
192	193	3
133	133	7
83	84	3
144	144	1
158	159	4
130	137	1
165	166	6
53	53	10
118	180	1
182	183	3
98	98	4
190	190	1
16	33	1
74	76	3
115	115	2
156	156	9
16	16	5
38	41	1
64	64	6
162	192	5
43	44	3
5	8	1
127	127	5
79	79	10
41	42	1
168	168	5
185	185	9
159	191	1
187	188	2
13	63	3
191	192	4
118	118	5
129	129	5
21	24	10
12	37	3
96	97	1
164	164	4
177	178	1
84	84	3
97	97	2
26	34	1
1	2	1
28	30	2
59	78	3
13	13	1
74	74	1
63	63	6
27	40	1
106	111	3
170	170	5
118	144	2
54	80	6
16	17	1
140	140	7
151	151	4
76	76	1
172	172	6
43	50	1
112	128	2
38	38	3
191	191	3
52	62	1
163	166	3
27	28	2
141	141	4
167	168	3
132	132	5
152	153	3
16	35	3
56	75	2
61	62	3
21	22	3
60	61	3
10	10	2
178	179	3
50	50	6
30	31	4
124	169	2
35	35	2
102	103	2
62	173	2
7	7	5
62	62	4
196	196	6
56	65	2
173	174	2
145	146	3
19	20	2
174	178	5
119	120	1
106	107	1
149	185	3
32	37	3
101	101	3
99	135	5
117	119	1
146	147	3
6	7	2
112	140	1
122	123	2
137	138	3
12	12	6
26	39	1
179	180	3
12	47	3
100	101	1
86	87	4
54	68	3
104	130	3
25	32	1
68	68	2
8	9	1
149	150	6
168	170	3
138	140	3
17	127	3
64	65	1
112	117	2
10	11	2
9	10	5
35	36	3
94	96	4
150	150	5
66	66	1
124	124	4
94	95	2
5	5	3
7	8	2
80	81	1
44	44	2
141	142	5
135	135	1
160	192	1
147	148	2
189	189	3
68	69	1
86	86	4
20	20	1
27	27	1
18	18	5
130	130	2
154	174	1
0	0	2
42	43	1
159	160	1
107	173	2
40	41	5
2	4	2
131	131	11
147	179	1
143	148	2
196	197	1
20	129	3
16	109	2
57	57	9
123	169	1
162	187	2
12	32	4
21	21	2
103	103	1
46	46	4
23	23	5
100	100	2
127	128	1
124	149	1
160	188	2
80	80	4
122	122	3
13	66	1
142	142	3
154	155	4
87	130	1
31	64	5
23	24	1
55	56	7
81	81	5
193	193	3
25	25	2
96	96	2
184	184	3
113	114	1
133	134	1
187	190	2
16	18	4
85	85	3
39	40	2
116	116	6
195	195	2
79	85	1
153	172	2
111	112	4
125	184	2
166	177	2
108	172	1
4	5	1
109	128	1
39	39	2
45	46	6
83	83	2
93	93	1
24	25	3
155	185	2
26	36	2
185	195	3
150	181	6
78	79	2
102	138	2
103	137	2
88	88	5
63	133	2
111	111	3
119	148	2
156	187	1
149	180	3
75	77	2
148	180	1
131	133	1
44	129	3
100	135	2
144	169	1
165	167	1
197	197	3
82	82	1
114	114	3
158	162	1
130	131	1
114	140	1
57	58	5
59	60	2
123	171	1
189	190	3
142	143	3
152	180	2
134	134	1
192	192	2
158	158	3
73	73	2
180	181	1
58	59	1
187	187	3
155	174	1
65	65	1
125	182	1
163	163	1
89	89	1
145	145	1
84	85	1
55	65	1
160	178	1
148	149	2
84	86	2
109	109	1
85	86	4
37	37	2
139	139	3
69	69	1
158	160	2
106	106	1
174	174	2
4	4	1
89	133	1
81	83	1
22	24	1
9	47	1
34	36	1
46	49	1
42	44	1
188	191	2
150	156	1
103	139	1
12	50	1
165	165	1
66	67	2
63	85	1
37	38	1
123	168	1
136	138	1
174	175	1
103	106	1
72	73	1
113	140	1
43	43	1
125	126	1
181	182	1
141	170	1
24	26	1
46	48	2
24	32	2
56	57	1
132	133	1
120	122	1
122	144	2
121	121	1
28	31	1
41	50	1
69	72	1
112	126	1
112	113	1
110	111	1
12	33	1
