47	47	18
8	28	1
85	85	15
19	20	2
14	14	3
103	104	5
102	102	11
216	216	9
59	60	14
224	237	3
159	162	1
187	222	1
119	126	3
119	138	6
103	105	2
21	21	5
20	57	3
194	194	8
31	31	6
102	123	2
63	73	4
133	179	3
242	242	9
9	9	6
228	235	5
61	62	2
228	228	4
40	40	11
59	59	18
163	163	5
203	215	1
135	142	3
140	140	5
139	140	5
176	176	4
91	91	4
160	162	4
130	136	1
52	53	4
133	136	3
223	224	5
151	173	5
103	127	1
65	67	1
70	70	11
84	84	8
89	113	3
120	131	2
231	233	4
75	75	10
168	168	9
74	77	3
55	55	5
5	5	7
4	5	2
119	121	6
225	225	5
231	231	3
47	53	3
83	83	5
101	101	7
179	179	7
197	198	1
71	72	1
62	64	2
156	170	7
219	219	12
77	78	10
63	63	5
235	235	8
168	169	1
241	241	7
143	144	2
83	146	5
54	54	4
201	201	11
240	240	9
215	215	10
169	187	1
29	30	2
185	186	2
185	185	6
197	197	11
38	79	2
207	241	2
10	10	8
227	227	8
192	192	3
137	137	11
209	211	3
81	81	4
116	135	3
131	131	1
22	23	6
16	16	7
2	5	8
68	69	3
4	4	4
227	228	2
12	12	6
46	46	3
32	37	2
186	187	4
103	126	5
7	7	16
226	226	8
150	150	7
212	213	3
41	41	9
222	222	5
129	129	9
61	61	4
158	158	6
98	98	2
106	107	3
80	88	3
45	45	9
36	220	4
200	200	6
50	50	16
193	196	1
226	227	1
86	86	7
66	66	3
103	146	2
8	8	13
99	99	10
224	235	1
217	241	1
172	175	7
201	212	2
127	127	5
47	52	4
181	223	2
220	220	7
10	238	3
53	53	6
105	109	7
164	164	1
50	60	2
183	209	2
139	180	3
211	211	2
54	58	3
152	155	1
95	96	5
20	69	3
1	2	6
206	206	3
177	180	3
234	234	1
199	200	4
65	66	3
56	58	1
134	137	3
225	240	1
108	108	11
13	14	2
189	189	5
179	180	2
224	236	2
111	111	8
154	154	6
21	38	2
191	191	7
35	35	13
155	155	10
121	128	1
37	37	2
17	17	5
225	239	4
182	182	5
100	100	4
106	108	2
186	196	5
201	207	1
124	127	2
134	135	2
126	130	4
142	142	4
233	235	1
131	192	3
121	131	1
11	11	4
34	36	3
181	183	4
202	207	1
22	52	2
157	158	10
185	200	3
11	12	4
27	27	7
202	202	8
125	125	2
171	233	3
6	6	8
104	123	5
174	174	2
29	29	2
37	159	2
149	149	4
96	97	7
83	84	1
60	60	11
32	65	1
136	136	5
181	181	6
234	235	8
88	113	1
232	242	2
43	43	5
0	57	3
99	110	3
206	238	3
23	64	3
208	208	12
21	22	5
166	166	2
16	238	2
53	62	1
207	207	13
180	190	4
11	220	2
141	145	4
158	193	1
204	206	6
133	133	8
37	41	3
120	120	6
9	40	2
153	153	4
205	205	8
109	109	2
208	242	3
15	58	6
26	29	1
218	240	5
183	190	3
170	178	1
68	79	3
181	208	2
135	149	1
76	79	6
20	29	2
156	156	1
163	165	1
171	191	4
36	36	4
62	65	2
122	123	6
72	212	1
126	161	4
152	208	1
52	73	5
56	56	9
155	156	3
34	34	9
11	17	6
38	77	2
42	49	1
104	112	4
173	173	7
34	35	3
74	76	5
112	133	3
204	204	1
205	206	4
217	236	9
193	194	6
129	135	3
116	174	2
77	88	4
117	117	1
162	162	8
183	187	2
216	240	1
80	85	3
14	15	8
135	147	3
170	190	2
48	48	2
170	170	6
141	142	3
9	10	3
116	116	8
183	185	4
32	33	1
6	12	3
35	36	1
28	28	6
104	105	5
9	237	2
18	18	3
130	159	2
175	211	4
18	19	2
161	161	5
219	242	3
133	137	2
18	20	5
96	122	3
105	105	3
214	214	4
49	49	4
113	119	1
217	228	2
232	232	2
204	211	1
184	184	1
102	135	2
44	122	5
199	238	1
204	207	6
12	16	3
26	26	4
58	61	1
3	5	3
206	240	2
215	240	4
180	181	4
196	196	7
45	75	4
236	236	2
200	228	5
158	192	5
227	240	2
62	69	6
106	106	8
74	74	7
0	6	3
218	218	10
22	43	1
51	51	11
10	12	1
15	15	1
2	92	1
79	79	10
193	197	1
80	108	10
42	43	1
180	186	1
186	195	3
46	73	3
153	164	1
40	44	2
81	84	1
144	145	1
20	56	1
153	154	1
95	108	1
200	201	4
85	89	1
188	188	3
126	126	4
60	108	2
0	19	3
37	79	2
222	226	4
45	61	4
60	61	2
118	126	1
76	76	2
221	222	1
180	180	3
143	145	5
14	17	4
122	157	2
152	152	2
142	158	3
219	232	2
121	121	1
195	195	7
6	7	7
239	239	6
103	113	2
2	30	2
182	208	3
229	229	3
201	204	1
3	8	1
171	217	7
107	107	3
229	234	2
10	11	3
2	240	1
131	135	1
151	174	3
129	142	5
186	186	2
175	178	1
166	167	2
72	73	1
104	104	8
120	121	2
64	66	6
238	238	7
47	54	3
160	163	2
128	129	3
236	237	3
122	122	1
115	124	2
141	241	2
160	164	3
216	217	5
4	204	2
80	84	1
145	166	1
39	40	3
56	88	2
101	113	2
103	123	3
97	125	2
74	75	1
103	103	4
167	168	3
113	123	2
46	68	1
82	84	4
211	235	2
75	77	2
149	150	3
124	189	1
102	103	2
139	178	3
71	73	2
122	230	3
217	217	3
213	213	6
105	143	2
71	71	4
24	26	1
70	212	2
167	200	2
148	174	1
107	127	1
186	190	3
209	209	5
2	17	1
156	160	3
51	52	1
133	134	3
13	13	4
147	148	2
20	20	13
56	57	4
81	82	1
192	220	1
75	87	1
147	147	1
144	166	2
4	21	7
72	75	1
36	37	1
217	218	4
117	118	1
192	193	3
53	55	2
206	227	3
7	8	2
122	130	1
171	186	5
14	233	2
107	108	4
119	119	1
194	196	2
202	204	5
166	174	1
173	179	1
135	136	4
175	175	9
199	234	7
228	232	3
224	224	3
62	62	7
199	216	1
144	144	3
21	75	1
134	148	3
76	159	1
189	213	1
1	88	1
203	206	2
68	68	1
109	123	1
114	124	1
132	134	1
172	205	1
172	206	2
96	96	1
136	191	1
128	128	1
108	119	1
40	73	2
67	145	1
16	226	3
191	192	1
98	99	1
17	201	2
7	9	3
59	108	1
34	222	1
185	188	1
96	107	1
57	63	1
222	224	1
177	177	4
39	48	3
230	231	2
229	231	3
23	35	3
158	229	3
67	96	1
132	167	1
3	209	1
39	42	2
124	124	1
32	161	1
63	212	2
140	142	1
20	41	2
112	112	2
190	234	1
135	140	3
1	61	1
33	33	2
141	141	1
223	223	8
37	38	1
3	3	7
188	212	1
42	42	2
118	124	2
152	173	1
46	130	2
23	23	1
69	69	3
226	239	1
2	2	4
72	72	5
201	216	1
21	47	4
147	149	2
16	21	1
11	14	2
175	213	2
49	51	2
178	178	2
159	161	1
137	141	1
162	232	2
4	15	2
48	51	2
211	234	4
185	190	4
177	179	1
237	237	6
219	238	1
21	52	2
211	212	2
11	13	1
82	86	1
58	58	4
0	0	7
99	101	1
171	188	2
185	213	2
171	232	1
219	239	2
57	57	3
196	222	3
3	241	2
224	228	1
172	174	1
22	42	2
43	53	1
198	198	3
69	70	1
143	230	5
151	151	4
130	130	1
225	227	2
64	69	1
110	124	3
183	230	1
216	233	2
200	229	3
214	216	2
205	238	2
60	62	1
187	188	1
104	109	1
67	108	2
120	149	1
115	119	1
38	38	8
12	13	2
146	147	2
67	106	2
197	200	1
75	76	2
115	117	2
164	174	1
118	118	4
50	59	3
106	115	1
24	25	1
73	79	2
52	69	1
62	73	1
6	29	3
46	69	1
80	80	4
12	22	1
139	158	1
138	161	1
31	50	2
64	65	4
171	171	1
35	41	1
182	189	4
135	135	3
150	152	1
172	187	1
135	138	2
97	100	2
131	191	1
169	169	3
184	216	1
81	83	3
128	135	3
65	65	3
131	132	1
199	199	3
18	50	2
124	145	1
202	210	3
30	30	2
24	238	2
211	213	1
113	113	1
148	148	3
34	38	1
218	236	1
228	234	1
9	203	3
31	32	3
67	68	2
14	20	1
144	146	1
198	216	3
239	240	3
29	71	2
188	234	1
20	43	3
37	69	4
44	44	3
214	217	1
0	1	1
234	236	1
34	223	2
14	57	2
23	46	1
160	160	1
183	183	2
3	14	2
45	55	1
187	187	6
229	230	1
134	154	2
72	160	3
22	22	1
32	32	3
129	140	2
47	58	1
67	67	3
218	219	1
189	191	2
142	161	1
84	86	1
176	178	1
217	240	1
2	4	1
143	149	2
169	186	1
203	203	1
49	58	2
109	110	1
118	120	1
32	35	3
14	63	2
193	211	1
220	225	2
55	56	1
73	73	1
219	220	1
207	210	1
225	226	1
120	127	1
70	75	1
115	115	2
111	117	1
32	105	1
111	118	1
134	136	1
104	111	1
176	230	1
95	99	1
19	19	1
56	78	1
39	41	1
25	122	1
184	187	1
185	224	1
205	210	1
128	160	1
122	125	1
57	71	1
39	39	1
192	197	2
102	122	1
198	218	1
199	229	1
3	23	2
136	140	1
76	77	1
29	72	1
137	177	1
172	172	1
49	53	1
132	135	1
165	196	1
139	143	1
221	221	1
138	156	1
136	171	1
159	163	1
151	152	1
226	228	1
114	115	1
171	198	1
200	208	1
188	195	1
151	187	1
75	159	1
96	99	1
209	210	1
157	188	1
156	157	1
225	235	1
145	145	2
32	68	1
142	174	1
111	113	1
6	17	2
190	190	2
7	16	1
85	124	1
177	187	2
200	222	2
95	95	2
169	179	1
80	81	1
1	1	3
29	52	1
132	192	1
173	175	2
0	113	1
138	174	1
134	134	1
18	28	1
213	215	1
60	114	1
232	233	1
119	139	1
26	28	1
69	172	1
6	13	1
6	26	1
207	209	1
149	151	1
43	226	1
184	185	1
195	196	1
201	202	1
209	241	1
