170	188	3
63	63	4
150	150	11
217	218	1
158	161	3
230	230	13
225	230	1
72	75	6
87	87	4
165	165	12
24	25	3
73	73	6
0	0	1
67	68	2
156	159	3
56	56	5
21	21	18
54	54	11
207	208	2
217	219	2
234	234	10
162	162	2
246	246	6
222	223	2
161	161	4
172	172	12
183	235	5
101	109	2
159	234	5
7	17	4
114	114	5
179	179	4
35	40	2
152	159	2
79	106	3
11	60	2
232	233	2
28	28	13
214	214	8
101	101	5
49	49	11
65	65	11
72	72	4
165	167	3
9	9	9
105	106	7
94	94	10
8	8	9
198	198	8
60	105	5
176	176	11
53	53	4
175	238	2
231	231	10
156	229	3
154	154	8
116	118	4
225	225	5
11	12	2
85	85	15
181	203	3
166	166	6
44	45	9
221	221	9
99	100	1
96	98	4
169	169	4
167	167	4
42	209	1
52	52	14
160	161	2
213	218	2
70	109	2
207	207	12
165	170	3
77	78	1
100	100	7
97	107	5
159	159	12
5	5	11
117	117	12
228	233	1
64	65	9
168	168	9
98	98	9
181	211	3
199	199	5
116	116	9
79	79	1
216	216	7
221	223	1
235	235	23
66	67	7
233	234	2
7	44	1
224	225	7
218	218	5
207	218	3
210	210	8
15	15	14
245	245	10
70	70	6
213	213	5
4	55	3
77	77	5
107	108	4
58	102	7
187	187	5
29	29	11
7	92	2
166	167	5
147	147	3
1	2	5
226	226	6
89	89	1
30	34	5
69	69	9
152	156	2
196	200	1
51	51	9
95	98	6
46	46	2
164	186	1
248	249	3
171	174	1
99	99	7
80	81	3
145	150	1
215	215	7
171	171	6
7	94	1
240	240	6
110	110	6
119	119	6
191	191	3
156	157	2
49	105	4
147	227	1
18	18	10
186	186	5
216	217	3
223	223	16
25	64	2
183	183	8
35	77	1
84	85	5
29	33	2
1	1	3
177	178	3
111	111	12
33	33	5
22	22	5
18	39	3
80	80	7
166	208	4
11	38	2
159	168	1
247	247	8
205	205	10
3	19	4
231	232	9
41	108	2
38	38	10
209	209	3
190	190	8
193	193	11
118	118	13
162	166	5
24	24	4
192	192	5
152	168	4
230	231	2
244	244	12
60	61	1
195	196	5
47	48	2
178	178	3
154	224	3
241	241	2
236	236	7
6	6	7
40	41	4
29	30	5
203	204	4
195	197	1
213	214	4
221	222	9
198	223	9
75	76	4
32	33	7
180	180	15
31	50	2
156	156	20
71	71	14
143	201	2
160	203	3
175	243	1
220	220	10
93	93	7
31	31	5
35	35	8
33	66	1
3	18	1
112	118	2
112	120	3
160	160	5
3	3	4
196	196	8
68	68	5
152	152	6
229	231	3
242	242	7
34	34	13
166	193	2
26	26	5
48	48	11
222	222	9
168	183	2
115	115	3
15	16	4
83	83	3
61	74	3
205	228	1
29	59	3
12	12	3
182	182	11
217	217	5
238	244	3
2	2	13
42	42	4
232	232	10
200	200	11
213	234	8
155	155	8
74	106	1
36	36	6
208	208	16
228	228	2
155	156	1
92	93	1
54	55	9
50	81	1
57	59	5
165	166	3
71	73	5
197	197	5
90	90	7
169	170	4
243	243	6
11	11	3
229	230	2
95	119	1
158	158	5
177	177	2
16	17	5
177	179	4
113	114	7
227	228	6
30	30	2
188	188	7
112	112	5
55	55	5
224	224	9
5	6	2
41	59	5
158	208	1
82	82	1
190	196	3
8	91	6
92	92	10
168	169	10
74	74	5
211	211	11
195	195	10
23	26	1
50	50	7
210	222	1
83	84	1
58	58	6
4	117	2
190	191	7
10	10	9
106	106	9
216	220	1
157	157	6
206	207	3
56	112	2
216	223	5
169	171	1
14	98	2
189	190	5
202	202	6
4	4	4
44	44	3
68	69	8
31	48	2
56	109	2
13	95	1
43	63	1
201	201	7
168	171	2
7	43	7
14	97	1
200	218	2
165	171	5
67	67	3
153	159	5
88	88	6
112	114	2
192	194	1
228	229	2
18	20	1
236	243	1
41	69	1
243	244	7
83	90	1
81	83	4
153	182	5
4	5	1
219	226	1
188	224	1
107	107	2
198	199	6
175	175	6
79	91	3
163	166	3
40	40	7
169	199	2
27	27	4
157	248	6
206	206	4
71	75	1
208	210	3
61	73	2
48	49	4
105	105	3
205	236	1
79	105	2
186	188	3
230	232	1
202	203	2
110	113	1
112	115	3
232	240	1
21	31	3
81	81	1
237	239	1
216	247	1
97	97	1
59	60	5
80	89	7
55	110	1
154	188	1
26	27	3
37	37	9
144	145	3
172	213	3
219	244	1
104	105	2
73	74	3
226	228	1
19	19	1
23	23	6
20	20	4
181	181	8
184	184	6
175	239	6
4	79	4
174	174	2
185	185	9
146	146	3
147	184	2
14	14	8
190	194	1
23	207	2
214	248	1
111	112	3
169	188	2
226	227	2
96	96	6
109	110	1
87	88	3
164	233	1
210	225	1
219	247	3
7	7	3
226	247	1
35	36	1
6	100	1
145	145	5
152	170	1
45	45	6
225	235	1
199	200	2
172	225	2
158	163	1
147	148	1
25	25	4
57	58	3
180	211	2
114	115	2
183	223	1
6	43	1
174	238	4
170	170	4
168	203	1
60	60	4
248	248	3
73	75	2
239	239	7
116	117	2
66	66	6
34	77	2
70	71	4
214	215	1
211	247	3
34	106	1
65	66	1
235	236	1
16	16	2
72	73	1
93	94	1
42	56	3
17	17	5
14	109	1
5	119	2
96	97	3
162	167	1
66	73	1
24	40	1
227	227	4
46	47	1
41	41	2
162	171	1
61	62	2
150	151	1
185	186	1
30	48	2
163	163	3
89	90	1
76	76	3
2	3	2
159	160	1
52	60	1
158	174	3
7	93	1
30	78	2
17	19	2
240	248	2
153	153	6
158	194	1
177	245	2
144	144	1
76	77	2
212	212	7
211	216	1
229	247	1
120	120	3
210	213	1
151	151	3
63	64	1
151	167	5
53	119	1
163	165	2
57	119	1
161	174	1
172	179	4
229	229	1
173	173	9
120	144	2
237	237	2
194	220	2
23	28	1
177	204	3
201	202	3
216	218	2
95	95	1
170	197	2
180	185	1
189	189	2
167	168	2
203	203	3
35	47	1
198	217	2
53	118	1
4	97	1
41	58	1
85	93	1
164	164	2
176	208	1
74	102	1
179	180	2
193	222	4
91	91	3
38	39	2
42	60	2
66	68	1
211	221	2
245	246	2
171	196	5
227	238	2
194	194	4
71	72	3
236	237	1
213	216	1
84	84	3
32	32	8
155	224	2
176	178	1
43	43	2
225	226	2
23	24	2
68	70	1
156	169	1
37	47	4
220	221	2
239	240	2
35	105	1
194	247	4
67	75	1
106	107	2
75	104	1
80	86	2
29	51	2
65	93	1
5	93	1
102	102	1
95	96	3
204	204	1
14	15	3
158	165	1
59	59	2
54	63	1
48	64	2
50	51	1
26	45	2
204	228	2
201	204	1
152	162	1
194	196	1
37	38	1
49	98	1
35	209	1
191	192	2
78	78	4
78	92	1
205	211	1
209	239	2
173	203	1
0	21	1
71	109	3
25	26	2
43	69	1
151	183	2
19	20	1
27	35	2
108	108	2
208	211	1
31	32	1
46	63	1
170	171	1
165	186	2
53	114	1
157	208	2
166	174	1
161	165	1
74	75	2
10	11	2
72	93	1
167	172	1
51	53	1
211	212	1
4	118	1
219	219	2
27	46	2
178	179	1
179	210	1
79	80	2
70	75	1
9	10	1
49	50	1
30	92	1
112	113	1
3	5	1
47	47	1
36	44	1
176	182	1
243	245	2
37	61	1
238	238	1
15	101	1
182	225	1
238	240	1
75	107	1
18	19	1
167	173	1
43	47	1
157	166	1
170	176	1
195	248	1
229	232	1
52	84	1
62	72	1
43	68	1
35	38	1
173	236	1
167	170	1
113	113	1
186	191	1
191	195	1
76	106	1
98	99	1
163	167	1
231	235	1
