182	182	8
109	123	2
71	72	4
181	181	10
23	25	2
4	4	7
94	94	17
87	99	1
130	130	10
132	161	5
140	140	10
109	114	4
130	133	1
0	81	1
87	87	15
61	63	2
67	189	2
187	187	7
5	9	1
5	5	5
177	177	8
167	167	21
66	80	1
166	168	1
61	65	2
10	45	3
91	91	8
24	24	12
5	48	3
11	11	13
100	100	10
104	106	6
116	116	1
45	151	3
163	166	3
78	78	12
34	35	3
58	67	4
177	181	5
71	80	3
55	55	11
168	168	18
106	106	14
73	74	4
118	118	13
32	35	8
170	170	15
122	122	14
102	102	15
10	10	15
25	26	4
113	113	20
95	95	13
117	119	2
41	41	17
164	164	11
29	40	1
31	32	3
25	25	11
91	92	4
85	85	17
35	35	7
98	103	3
48	53	3
34	34	9
16	18	1
112	122	5
179	180	8
32	38	5
106	161	11
23	24	9
174	187	2
37	37	7
56	89	2
148	149	4
152	152	9
163	164	4
82	89	4
12	23	5
133	133	2
54	54	7
59	61	8
72	75	2
47	47	18
48	48	7
109	118	3
26	26	8
174	174	13
26	28	5
117	117	11
6	6	4
100	105	1
105	112	2
27	27	10
128	128	9
43	46	2
186	186	11
82	85	5
146	146	5
133	141	1
4	20	1
16	16	6
8	8	8
83	85	2
143	145	2
154	154	6
183	183	13
89	89	11
113	114	8
53	96	6
10	46	3
145	145	13
30	35	1
145	146	1
101	102	5
58	58	8
115	119	3
63	64	4
172	172	5
108	108	9
166	167	6
170	178	6
122	129	2
177	178	1
149	160	2
56	57	2
106	112	2
87	89	4
32	33	4
97	97	13
3	3	12
0	0	11
53	53	6
151	151	17
175	175	5
181	182	2
150	150	12
142	142	16
2	2	13
37	38	6
136	140	1
164	165	1
135	135	3
36	37	2
140	176	1
120	122	5
121	121	10
186	187	5
178	182	2
72	81	2
29	57	1
106	115	2
81	81	14
14	122	2
44	44	17
31	56	5
165	166	5
2	9	4
145	149	3
122	131	2
26	27	1
89	90	3
155	168	3
163	172	2
161	164	4
30	34	1
65	66	6
35	159	1
162	173	2
75	81	2
15	44	2
134	138	2
188	188	15
75	76	4
139	139	12
19	19	11
131	131	5
0	15	1
159	160	9
2	3	3
89	95	3
98	102	3
114	115	5
153	153	5
40	152	1
15	17	1
91	102	1
156	156	12
22	22	6
81	93	1
34	36	4
82	82	9
33	34	4
81	83	2
123	124	2
148	148	19
167	172	4
86	86	6
36	36	9
112	113	2
178	178	24
154	168	4
106	111	2
153	154	1
158	167	6
121	122	3
23	23	5
114	160	3
59	62	1
154	157	4
170	174	4
0	31	2
98	104	1
138	139	7
70	72	1
136	136	8
80	86	2
78	81	6
54	90	3
115	115	11
190	190	8
59	59	8
42	151	1
167	179	3
101	101	5
173	174	3
20	20	12
40	40	5
137	137	11
136	144	2
179	182	4
13	52	2
159	159	17
119	119	10
62	71	5
33	33	5
126	127	2
112	120	6
83	84	11
105	124	1
134	137	3
144	144	5
142	144	10
68	68	10
153	156	5
144	145	5
32	55	3
167	180	2
3	13	4
80	80	2
147	147	8
127	128	18
99	105	6
21	21	8
148	150	3
169	169	6
99	99	10
79	80	2
38	38	18
43	43	20
16	23	1
20	27	4
55	59	2
97	104	3
98	98	6
100	101	2
161	161	11
16	17	5
19	22	3
165	170	2
25	38	1
110	111	2
91	95	1
39	40	4
102	107	1
54	55	4
156	160	1
157	158	2
40	54	2
141	141	8
85	92	1
70	71	7
140	143	6
110	154	1
185	188	1
41	42	7
12	13	6
175	179	1
130	132	4
189	190	6
155	155	5
163	173	1
169	170	6
46	46	6
185	187	2
86	87	5
63	67	3
95	101	4
120	121	2
81	90	1
176	178	1
109	119	1
175	185	3
36	45	3
168	177	2
39	46	4
41	46	4
180	180	8
163	175	3
77	83	1
64	68	2
132	162	2
128	131	5
132	132	4
73	77	4
13	13	9
161	171	2
17	45	4
124	125	4
64	64	4
104	105	4
156	157	2
14	14	13
123	126	1
164	166	4
23	26	2
2	13	1
56	70	1
11	23	1
127	136	3
83	83	10
17	18	3
70	76	1
65	65	13
42	42	11
24	25	7
165	165	11
108	113	5
102	105	1
158	158	8
12	46	2
131	132	8
67	76	5
113	118	2
52	55	1
117	127	2
119	121	1
118	120	1
67	67	4
37	40	1
3	7	3
84	84	9
29	32	2
173	173	5
142	147	4
14	37	1
117	143	1
72	72	2
13	16	2
149	150	4
103	155	2
189	189	12
3	6	1
61	169	4
89	91	5
109	110	2
32	36	1
185	185	12
39	39	2
60	60	3
42	43	3
160	166	3
15	15	6
58	59	4
105	106	2
161	162	3
61	62	6
8	149	2
112	114	4
144	146	2
62	62	5
94	99	2
138	138	3
120	120	7
120	130	3
65	74	6
11	18	2
71	83	2
77	77	16
111	118	2
1	2	4
110	110	16
139	142	1
77	82	2
17	27	1
101	114	1
155	157	3
109	124	2
29	30	1
29	29	6
22	23	2
94	104	5
140	148	1
114	114	4
163	168	3
7	8	4
14	24	3
125	125	6
138	140	1
174	177	3
147	163	1
105	114	4
62	85	1
116	118	1
164	176	2
60	74	1
122	123	4
129	129	7
62	123	1
9	9	3
36	40	4
32	32	7
28	106	2
113	123	2
167	168	3
84	86	2
134	135	1
57	81	1
78	83	1
21	22	4
39	53	2
135	136	4
171	171	5
178	179	1
90	91	2
125	127	1
154	160	3
57	57	3
56	90	2
132	133	6
41	43	2
68	72	1
98	99	1
172	182	2
67	68	2
90	107	3
84	133	1
12	12	7
121	162	1
35	151	1
53	54	6
85	99	2
31	31	5
79	81	3
63	85	5
111	119	2
112	123	2
112	112	2
12	33	1
8	10	2
169	172	1
92	92	5
153	183	3
63	69	1
1	1	3
81	87	2
56	56	14
142	164	1
185	186	2
64	72	3
90	90	12
84	85	4
82	88	1
68	74	2
135	137	5
162	167	4
175	190	1
54	65	2
110	129	1
142	148	2
32	44	4
138	147	2
180	187	4
166	190	1
96	96	2
59	87	3
77	78	3
111	112	3
79	91	1
26	36	2
158	159	1
10	11	2
13	36	3
130	135	2
101	162	3
74	75	3
25	47	5
134	136	1
160	167	4
119	137	4
44	45	5
52	54	1
89	94	3
29	31	2
93	93	1
96	97	1
6	66	2
8	48	1
180	186	1
71	71	4
109	109	6
6	169	2
7	7	5
177	190	2
175	189	1
96	110	2
114	126	1
19	20	6
4	24	2
165	173	3
134	134	3
162	169	1
111	129	4
94	130	3
6	86	2
54	96	3
135	139	1
176	177	4
182	183	1
177	182	1
137	147	3
146	150	3
59	68	3
184	184	7
140	141	2
60	90	1
179	181	2
119	135	2
37	43	3
100	109	1
131	133	1
129	131	2
63	63	4
18	44	1
88	89	1
26	40	1
153	163	2
133	139	2
97	125	1
60	61	10
7	22	1
131	145	2
101	169	1
71	74	1
103	103	8
66	66	2
53	55	3
154	164	2
105	116	1
83	88	1
73	73	5
127	127	9
12	14	1
42	44	3
94	98	1
179	179	3
63	66	1
57	67	1
18	18	4
10	16	2
32	34	7
150	159	1
20	45	3
56	74	1
99	111	2
143	143	5
139	161	1
23	34	2
177	180	2
5	10	3
183	185	1
67	180	1
8	11	4
6	7	1
154	166	4
153	157	1
163	163	8
162	163	2
73	75	2
103	110	1
111	111	5
54	95	1
81	88	1
45	45	5
73	79	1
56	99	1
15	16	4
88	91	1
37	42	3
133	159	1
105	107	4
175	187	3
150	187	2
17	17	7
157	166	2
11	20	2
116	127	4
61	61	3
85	95	1
78	138	1
178	180	1
48	76	3
132	139	1
1	14	4
7	18	4
152	160	1
59	86	1
0	1	2
97	100	2
19	31	2
152	182	2
17	29	2
159	163	2
68	101	2
15	28	1
87	109	1
101	104	3
141	154	1
160	161	2
58	69	1
62	65	3
57	72	1
80	170	4
92	129	1
104	114	1
152	162	2
176	176	1
154	158	3
75	75	4
115	116	1
103	107	1
92	96	1
13	17	2
175	176	3
54	60	1
53	58	2
105	155	3
79	79	3
57	60	2
122	124	1
13	23	2
74	81	1
60	65	4
156	158	1
186	189	5
121	123	3
88	88	6
76	78	2
98	109	1
154	155	3
170	171	2
173	175	1
168	190	2
93	102	1
176	179	4
134	140	1
102	103	1
184	185	1
161	172	1
106	107	2
27	30	4
14	15	6
174	175	1
158	162	1
172	175	1
151	153	3
73	137	2
109	113	1
164	167	4
77	166	2
179	186	1
108	115	1
166	166	4
43	44	3
142	146	1
30	30	4
98	106	1
137	158	1
118	162	1
174	179	1
105	113	1
165	169	1
18	19	3
167	173	2
18	42	3
128	130	2
88	92	3
9	37	1
9	16	1
30	39	1
177	184	4
76	79	3
24	26	2
17	19	1
92	97	1
8	12	2
68	76	1
17	22	1
182	185	3
58	64	1
150	161	3
57	58	1
132	137	4
4	13	1
103	104	2
159	161	2
60	108	1
165	174	1
93	94	2
134	157	1
105	105	3
70	79	1
71	78	1
160	160	3
169	182	2
161	169	1
56	92	2
156	161	1
104	112	1
62	69	1
21	24	1
139	140	3
11	19	3
41	44	4
28	28	1
78	79	1
180	182	3
16	33	4
16	113	1
103	108	1
58	61	2
12	21	2
109	154	2
77	79	1
187	190	3
126	128	1
77	84	1
141	157	2
63	86	2
81	86	1
133	135	2
59	63	1
107	107	2
124	132	1
33	42	2
91	103	2
150	179	1
79	86	1
22	25	1
7	86	2
145	155	1
52	59	2
169	171	1
0	2	1
121	131	1
157	157	3
85	86	6
11	17	1
58	85	1
164	172	1
54	57	1
186	188	2
76	76	4
118	142	1
150	151	2
93	138	1
30	41	1
11	29	1
182	184	1
120	123	1
40	42	2
76	77	7
83	86	2
183	184	1
22	24	2
56	59	1
150	153	1
69	86	1
100	102	1
5	7	1
118	130	3
29	75	1
124	124	1
87	88	1
95	103	1
62	67	1
138	148	2
18	46	2
94	134	1
107	120	1
155	159	2
81	85	1
167	181	1
127	137	1
72	80	2
56	93	1
36	69	1
78	80	1
43	45	1
88	108	2
180	183	1
81	89	1
111	113	1
75	78	1
10	15	2
38	88	1
75	79	1
105	123	2
139	149	1
128	129	1
109	111	3
139	159	1
143	164	1
93	98	1
68	78	1
12	24	1
188	189	1
125	134	1
39	45	1
128	137	1
82	86	1
104	155	1
108	111	1
7	14	1
23	41	1
64	65	1
46	47	1
94	103	1
56	58	1
68	169	1
6	37	1
4	6	1
130	136	1
92	93	1
128	139	1
116	146	1
138	142	1
54	91	1
18	21	1
136	138	2
100	107	1
8	9	1
70	70	1
9	26	1
126	139	1
18	43	1
63	70	1
72	74	1
106	125	1
105	160	1
3	5	1
81	82	1
117	118	2
36	41	2
127	160	2
177	189	1
141	158	1
9	10	1
111	125	1
76	81	1
60	71	1
10	21	1
147	148	4
164	175	1
169	178	1
30	36	2
132	134	1
14	46	1
86	99	1
162	162	1
166	169	1
149	149	2
26	32	1
4	5	3
29	33	1
35	68	1
180	184	1
96	107	1
116	119	1
136	143	1
70	88	1
91	93	1
78	90	1
108	161	1
121	126	1
123	123	1
125	137	1
32	42	1
163	171	1
12	16	2
154	172	1
187	188	1
43	68	1
97	102	1
6	14	1
34	43	1
126	133	1
67	72	1
142	149	1
116	143	1
43	48	1
11	32	1
44	48	1
54	71	1
66	74	1
113	127	2
140	174	1
108	114	1
12	22	1
0	3	1
124	133	1
47	48	1
60	83	1
88	110	1
