122	122	12
98	98	8
42	111	1
127	127	12
71	71	6
71	72	2
65	65	2
84	84	2
114	115	3
8	10	6
116	117	1
126	126	12
86	87	6
117	117	13
127	130	1
93	93	5
85	85	6
47	47	3
124	132	2
2	2	7
106	106	2
67	86	1
16	16	8
22	22	3
62	63	2
3	4	6
90	90	8
89	96	1
81	81	2
89	90	4
112	113	3
125	132	4
119	119	4
80	80	9
78	78	3
70	70	5
64	64	8
33	33	7
124	124	5
63	64	6
77	77	7
66	66	6
63	63	2
110	111	5
7	7	5
84	85	5
27	27	2
9	12	1
28	28	13
51	95	3
103	103	5
13	13	5
49	49	4
94	94	4
74	81	2
69	78	1
88	88	7
5	6	2
113	113	3
72	72	4
111	111	15
43	43	1
76	76	8
65	66	2
85	86	9
29	30	6
46	47	4
39	59	1
56	56	1
50	50	9
109	109	3
74	131	1
80	81	2
117	118	2
26	26	6
58	58	3
82	83	3
64	108	2
133	133	6
12	13	1
83	83	14
88	90	6
44	44	3
109	111	3
73	73	4
49	50	3
128	128	7
69	74	1
107	123	1
125	126	2
22	24	5
30	30	6
128	130	5
120	120	10
82	82	3
48	48	7
79	79	2
9	54	3
114	114	6
52	52	4
74	74	2
54	54	5
110	110	3
65	67	1
118	118	4
91	91	6
21	22	4
42	42	6
105	105	4
25	25	2
55	55	4
99	99	5
18	18	3
104	106	4
67	85	7
34	34	2
82	94	3
71	102	1
105	106	4
6	53	3
84	92	1
69	69	10
82	92	1
55	56	1
21	21	4
97	97	1
32	32	1
53	59	4
57	57	2
129	130	1
31	31	4
116	116	3
15	15	3
52	53	2
82	93	1
53	53	2
19	19	2
73	74	1
104	105	1
25	26	4
4	4	4
125	125	8
132	132	6
107	107	7
101	101	3
23	24	1
8	8	2
92	94	2
12	12	3
5	5	1
6	6	9
10	54	1
24	24	2
87	88	1
3	3	1
68	68	2
125	131	1
26	117	2
129	129	2
112	112	3
87	87	2
126	131	3
79	80	2
106	120	1
24	25	2
39	39	5
0	0	1
127	129	2
82	84	2
4	6	1
40	40	2
51	52	1
94	109	2
46	53	1
96	96	1
126	127	2
105	127	3
115	115	3
91	92	1
46	52	3
11	12	3
7	9	2
121	122	1
99	101	2
95	95	2
10	10	7
68	71	1
1	2	1
39	40	1
10	47	1
62	62	2
9	9	1
38	38	1
23	23	1
118	125	1
74	78	1
102	102	2
97	98	1
131	131	1
122	123	1
75	80	1
46	46	1
89	89	1
79	81	1
90	91	1
104	125	1
61	62	1
11	11	2
67	68	1
47	114	1
6	8	2
103	104	1
60	60	1
27	30	2
113	115	1
14	16	1
