11	11	13
121	122	8
83	83	14
98	107	5
70	71	8
142	144	1
60	62	2
18	18	8
41	110	3
106	106	12
123	123	28
56	57	4
15	15	8
126	126	20
61	61	17
23	23	10
78	79	14
55	55	12
6	6	12
130	131	6
131	136	8
85	92	5
130	130	9
73	73	9
107	107	16
59	80	3
123	124	1
0	33	5
86	86	9
116	116	15
1	1	8
93	93	5
38	103	3
92	94	8
99	104	2
110	111	2
108	108	23
99	100	15
66	66	7
20	40	1
144	144	10
41	41	14
9	9	15
6	98	2
74	75	7
74	74	22
33	40	11
69	69	10
103	103	10
16	17	7
32	72	4
54	56	3
22	22	26
66	129	3
111	111	3
91	91	14
120	124	2
30	30	25
92	113	4
92	92	10
65	127	1
80	80	5
71	72	12
52	52	5
33	33	6
118	118	21
49	80	2
101	101	9
33	41	2
54	54	8
68	68	8
71	71	7
59	133	4
138	138	6
26	101	7
107	108	6
14	71	3
49	49	16
38	38	3
115	115	13
53	73	5
125	125	10
1	37	2
81	82	5
76	76	5
72	72	5
39	112	4
2	8	4
95	95	15
87	126	3
114	115	3
76	77	3
141	142	5
50	50	12
3	4	5
58	60	4
34	36	5
20	21	4
87	127	3
93	102	3
24	24	14
79	80	9
59	60	7
142	142	5
23	24	2
85	85	15
81	81	10
57	65	5
63	63	12
103	104	8
139	139	5
40	40	14
94	94	14
109	109	19
95	125	3
83	84	8
16	31	2
143	143	10
134	139	6
67	67	14
50	128	3
39	39	8
32	32	9
60	60	10
8	8	11
98	99	3
110	112	2
37	37	13
21	22	2
19	34	1
113	115	4
117	117	16
35	36	6
90	90	5
3	3	6
96	96	14
70	70	18
8	9	6
43	56	7
6	96	6
82	82	9
88	88	6
141	141	10
124	124	15
57	138	2
135	136	5
136	137	5
96	127	4
104	104	8
95	98	2
61	141	6
112	112	12
64	64	5
116	117	4
75	76	3
136	136	13
50	130	2
66	69	1
5	13	4
113	113	5
118	119	9
142	143	9
102	102	6
48	52	5
79	79	4
14	15	3
117	120	4
96	129	2
107	129	2
89	89	4
62	64	5
62	68	3
1	23	1
58	58	9
43	140	4
132	135	5
99	99	8
39	40	4
97	97	7
78	137	2
39	101	3
49	51	3
84	84	15
135	138	4
2	3	1
94	95	6
129	129	9
43	57	1
121	121	15
54	73	3
91	92	4
91	104	1
48	48	10
1	20	2
6	29	2
89	93	1
93	103	1
41	42	7
100	100	9
13	34	3
79	83	6
102	104	1
13	97	3
120	122	4
16	16	15
53	53	12
50	51	8
26	26	15
57	66	7
28	28	16
61	65	3
0	34	3
19	20	1
2	2	3
126	140	3
48	53	3
38	39	7
68	69	3
14	14	7
12	30	5
77	77	5
64	65	2
88	90	1
1	9	3
126	137	1
57	68	6
105	105	2
59	59	11
138	139	2
102	103	5
67	68	6
25	33	6
112	116	4
31	32	9
77	79	1
34	34	4
125	144	1
106	122	4
104	105	1
64	140	2
88	89	5
134	134	5
56	56	6
28	102	1
19	23	5
1	8	2
145	145	5
10	11	5
21	21	8
122	122	5
42	53	3
104	109	8
98	98	5
73	74	4
128	128	9
92	93	4
97	98	3
114	116	2
126	127	4
17	17	5
52	53	3
59	61	2
18	29	6
75	75	15
0	0	5
132	140	5
26	28	3
143	144	3
26	33	4
132	132	4
129	130	7
43	73	2
56	72	3
117	119	1
12	32	2
25	25	10
48	131	1
49	50	4
119	119	11
62	62	10
62	63	6
107	123	5
10	37	1
89	90	6
8	10	5
104	118	3
34	35	2
87	88	8
42	42	4
90	105	3
110	110	5
113	117	3
57	140	4
52	56	1
116	118	1
3	96	1
137	137	3
97	127	3
86	141	4
2	36	4
60	82	5
15	70	6
27	27	2
119	122	4
31	31	6
115	116	4
3	9	3
51	64	3
10	27	2
5	5	2
122	123	2
19	32	4
99	103	1
135	135	9
105	107	1
14	19	1
29	29	7
54	55	3
62	81	4
6	97	4
37	99	1
14	16	1
25	39	2
132	133	1
114	114	3
124	141	6
61	84	1
78	78	3
87	90	1
81	124	1
78	80	1
104	119	2
130	140	2
131	141	1
94	116	3
97	130	2
13	21	2
48	68	1
42	48	1
137	139	1
79	120	1
32	33	2
10	10	2
14	23	1
41	43	3
137	140	3
135	137	1
127	136	2
5	36	3
89	96	2
56	62	3
25	36	1
20	20	6
69	71	1
13	19	1
120	120	2
97	128	2
18	19	1
47	49	1
105	128	2
76	80	5
146	146	2
27	101	4
47	47	6
12	12	3
14	72	3
94	102	2
38	74	2
14	31	1
87	87	3
53	54	2
57	57	5
81	141	3
40	111	3
77	78	1
25	38	1
54	71	2
58	66	1
4	14	1
120	121	1
11	39	1
17	18	3
90	91	3
51	56	1
55	73	2
93	94	6
9	26	2
0	1	3
4	10	1
13	14	1
83	85	2
89	92	2
88	125	2
131	131	3
14	20	1
8	26	2
144	145	1
22	23	5
19	29	2
55	56	2
19	19	2
89	91	1
87	89	1
128	130	1
43	75	1
3	36	2
80	82	2
23	25	1
11	20	1
127	127	3
119	120	2
128	133	1
106	128	1
104	110	1
27	28	1
117	118	2
60	61	1
5	33	1
104	108	1
47	73	2
131	142	1
57	133	1
140	140	2
28	101	1
84	87	1
30	31	2
107	118	1
58	59	1
84	85	1
113	114	2
88	96	1
15	16	1
3	6	1
41	73	1
65	65	2
99	101	2
127	128	2
5	6	1
138	140	1
82	108	1
6	20	2
60	80	1
92	114	1
36	37	1
95	144	1
42	54	1
24	25	3
105	106	1
40	41	1
114	118	1
133	140	1
108	109	1
127	131	1
57	62	1
57	78	1
