109	130	1
114	114	4
148	151	7
176	185	1
121	121	1
19	20	2
38	38	8
150	151	7
151	151	8
149	170	3
194	194	2
118	118	2
73	73	5
61	61	9
2	5	3
115	115	5
110	110	5
58	58	6
174	175	9
85	86	3
135	135	4
141	141	7
128	128	1
162	162	1
68	68	9
30	30	2
37	37	15
24	25	9
154	154	8
21	21	10
179	180	1
112	112	6
11	11	1
140	141	4
21	22	5
13	13	3
129	129	2
64	64	2
49	49	4
42	42	13
151	152	1
29	30	1
47	47	7
123	123	2
65	65	7
77	77	7
149	149	4
36	42	6
173	173	3
23	27	4
42	43	2
54	55	1
45	45	5
62	63	1
10	29	7
167	168	6
76	77	2
168	168	6
186	186	5
51	51	3
134	135	2
44	44	8
25	25	5
80	80	3
161	161	6
46	46	3
12	12	4
111	130	2
72	72	3
194	197	3
173	175	2
181	187	1
124	124	3
44	66	4
10	10	4
100	100	1
190	191	1
112	113	1
152	152	3
97	97	2
190	190	2
67	67	5
138	138	12
177	186	2
39	68	1
122	122	1
98	99	1
45	53	3
7	7	2
182	183	3
184	184	5
179	179	4
93	93	7
36	36	7
169	173	4
166	166	1
64	65	2
43	43	1
109	110	3
0	0	1
151	158	3
193	193	9
90	90	2
48	48	4
29	29	3
169	170	1
108	108	5
17	18	3
170	170	1
178	178	7
152	154	3
160	161	6
174	176	1
4	4	2
45	46	1
180	180	2
163	163	4
63	63	4
159	159	9
38	41	1
33	33	6
59	59	2
139	154	3
138	154	4
22	24	1
157	157	4
143	143	4
124	127	4
5	5	3
159	160	2
87	87	4
2	4	3
153	153	4
1	17	1
6	7	3
197	197	1
70	70	3
0	176	2
3	4	2
40	41	1
172	172	2
27	33	1
148	149	1
76	76	2
151	172	2
39	40	2
27	27	6
107	107	3
181	181	3
73	104	1
31	31	2
20	20	2
148	148	4
136	136	2
101	101	1
82	83	2
30	31	2
140	140	2
177	178	2
124	125	1
23	24	5
110	111	2
63	79	2
56	56	1
15	15	2
70	71	1
1	16	1
145	145	1
155	160	2
59	61	1
99	100	1
32	39	1
136	137	2
63	78	2
150	169	1
95	95	1
167	167	1
60	60	1
61	62	1
153	172	1
19	19	1
155	161	1
119	119	4
17	17	1
179	186	2
18	18	1
96	97	1
16	16	1
76	78	3
161	164	4
184	185	5
142	142	1
190	193	1
185	186	1
3	177	1
2	2	1
58	196	5
60	69	1
35	40	1
171	171	1
69	69	2
104	105	3
127	127	2
188	189	3
31	190	1
146	146	3
39	77	3
120	120	3
28	28	1
195	195	2
52	58	1
22	29	1
89	89	1
14	15	2
144	145	1
87	98	1
126	135	1
71	71	3
24	24	2
193	195	2
23	23	2
191	193	1
156	156	1
192	192	2
79	79	2
63	67	1
126	126	1
165	178	1
111	111	2
109	109	2
152	161	3
26	26	1
170	171	3
84	84	2
158	158	1
74	74	1
34	35	2
75	76	1
150	150	3
131	131	1
37	40	2
168	176	1
176	177	1
149	150	1
148	157	1
164	180	1
47	48	1
182	182	1
109	134	1
31	40	1
94	94	1
11	38	1
9	190	1
139	139	1
188	188	1
51	52	1
41	41	3
97	100	1
27	37	1
97	105	1
28	36	1
14	14	1
187	187	1
167	178	1
30	34	1
49	191	1
117	122	1
88	88	2
54	54	1
