64	64	5
49	49	3
138	139	4
91	91	6
124	124	7
141	141	2
127	127	2
9	9	4
129	135	1
119	119	5
66	66	5
21	21	8
35	35	4
29	29	3
33	42	2
102	102	7
87	87	3
48	48	3
41	41	5
18	19	2
28	28	7
117	117	10
84	85	1
131	133	4
97	97	14
15	16	3
78	86	7
144	146	3
4	4	1
19	19	10
37	37	3
113	114	1
42	42	5
76	77	4
0	0	2
59	87	1
13	14	3
31	31	5
17	17	9
93	93	7
112	125	1
114	128	2
103	129	3
134	134	10
52	52	9
89	91	1
89	89	2
18	18	5
81	81	1
12	12	2
105	105	4
24	24	6
79	79	5
143	143	4
22	22	2
4	5	1
19	46	3
63	63	13
5	25	1
96	100	3
126	141	4
38	38	2
83	85	2
75	75	6
88	88	1
74	74	1
43	43	5
67	67	5
113	141	1
98	107	1
83	84	4
92	95	4
77	79	7
66	67	2
117	123	1
84	84	3
72	72	3
34	35	6
82	82	6
90	93	2
68	69	2
140	140	4
108	108	4
98	98	3
144	144	7
56	56	1
36	36	2
76	76	5
99	102	2
123	124	2
115	123	3
100	109	1
61	61	3
9	10	2
40	41	6
111	127	1
61	90	1
3	16	2
49	55	3
48	55	1
95	96	1
103	135	2
123	123	3
133	137	3
93	94	2
59	59	1
135	140	1
73	73	5
118	123	3
34	34	5
53	53	3
32	42	2
60	75	1
134	135	3
8	32	1
75	76	2
125	125	3
142	144	1
114	115	1
120	120	6
99	101	4
83	114	1
15	15	3
23	23	2
69	69	1
94	94	2
140	141	1
57	78	1
10	15	1
97	98	2
129	132	2
96	96	2
114	114	1
118	118	2
129	129	6
103	103	3
112	113	4
141	142	1
65	66	1
5	5	1
90	95	1
23	33	1
6	6	3
61	62	2
14	14	3
124	125	3
77	77	1
27	27	4
52	84	1
106	106	1
26	27	1
86	86	5
101	101	6
95	95	2
85	86	2
90	90	2
8	8	1
134	137	1
10	11	2
40	40	3
86	112	2
1	24	1
31	41	2
39	40	2
70	70	3
92	92	3
53	79	1
102	135	3
0	1	2
116	123	1
1	1	3
138	140	1
99	111	1
82	83	1
6	25	1
18	20	4
68	68	2
11	11	2
129	134	1
112	140	2
3	33	1
64	65	2
81	82	2
58	59	1
142	142	2
80	80	2
87	88	1
107	108	1
126	126	1
138	138	2
20	20	4
130	133	1
5	29	1
76	79	1
122	123	1
71	73	1
3	3	1
18	34	2
61	78	1
49	56	1
2	9	1
71	72	1
137	137	2
116	116	2
50	50	2
96	97	1
102	105	1
130	130	1
81	83	1
2	2	2
70	92	2
74	75	1
128	128	1
132	132	1
33	33	1
111	111	1
50	51	1
125	144	1
72	73	1
139	140	1
77	78	1
