29	29	6
74	74	2
18	42	1
88	125	4
103	103	4
15	178	3
11	42	2
139	139	7
76	118	2
1	4	4
153	153	3
24	25	2
64	73	3
110	110	6
146	146	6
75	124	4
2	134	2
77	77	4
73	73	4
37	38	5
23	28	2
157	157	6
122	125	3
121	121	4
99	119	1
42	51	4
14	14	3
23	27	2
26	113	6
76	76	2
114	114	5
6	22	2
77	179	2
10	10	7
115	115	11
105	105	10
73	74	2
19	21	2
96	96	5
166	166	5
143	143	6
130	130	4
120	120	8
129	178	3
144	161	2
41	41	9
39	39	6
44	51	1
153	154	3
82	84	1
61	61	7
175	175	4
170	170	3
6	6	2
92	92	5
37	37	2
95	95	2
15	15	8
82	113	1
50	50	4
76	125	1
85	143	4
42	42	7
17	42	4
15	17	1
22	22	3
161	166	1
8	21	1
84	84	6
3	3	4
10	34	4
98	98	6
126	126	6
130	141	4
38	41	2
82	82	4
68	68	5
111	111	2
84	111	5
3	4	3
128	129	2
101	101	4
31	31	6
154	155	3
59	59	2
176	176	6
36	36	1
130	142	1
97	97	5
19	19	4
169	169	6
41	43	2
148	164	2
85	129	1
22	23	1
7	8	2
137	138	4
158	158	4
4	4	1
163	163	8
109	119	1
9	10	2
26	81	4
140	140	4
74	118	2
28	28	1
81	81	1
31	176	1
130	145	2
17	17	2
3	111	3
149	149	3
143	164	3
60	60	2
159	159	8
65	73	4
4	15	2
40	40	5
94	94	3
78	78	3
67	67	1
142	142	4
55	55	2
38	38	6
144	151	1
10	42	2
123	123	4
22	49	1
73	139	1
44	44	6
136	136	3
100	100	3
90	90	1
71	179	1
119	124	4
104	116	1
90	122	1
13	13	3
107	107	4
79	112	1
134	135	2
117	117	4
133	133	2
151	151	4
75	139	2
94	122	3
119	120	2
147	147	1
87	87	1
123	124	5
163	174	1
58	58	2
85	148	1
162	162	1
13	178	2
66	67	2
156	157	2
98	126	2
32	32	2
105	107	2
115	116	3
164	164	10
173	173	6
116	117	2
52	52	1
102	102	1
124	124	5
85	141	1
30	30	4
111	112	1
66	68	1
13	15	1
7	32	2
141	141	2
35	35	1
108	108	1
83	84	1
77	112	1
16	16	2
7	7	3
10	35	1
128	143	3
11	14	1
20	110	2
132	134	1
119	119	3
86	113	2
174	174	1
148	148	1
15	20	1
128	128	1
107	108	3
93	93	2
179	179	1
9	49	1
74	138	1
162	163	2
122	122	2
39	57	2
57	57	2
25	25	1
34	34	2
40	54	1
128	149	2
80	81	1
116	116	3
150	150	1
91	92	1
130	146	3
58	62	1
24	24	1
145	147	2
138	138	1
118	118	1
99	99	3
8	45	2
161	161	1
39	40	1
5	5	1
63	63	2
75	75	1
147	148	1
45	45	1
112	112	1
173	174	1
21	45	1
163	171	1
131	134	2
23	23	1
13	16	1
156	156	1
167	167	1
118	121	2
143	144	1
177	177	1
86	142	1
83	83	1
30	31	1
80	175	1
154	154	1
82	114	2
56	56	1
95	125	1
116	118	1
21	51	1
172	172	1
