116	116	4
50	51	2
70	73	3
150	151	1
123	169	2
94	146	4
37	37	1
119	120	3
127	127	3
4	4	4
71	72	2
159	159	6
103	103	2
158	158	1
16	38	3
18	53	7
160	160	5
74	74	5
2	2	7
89	89	4
115	115	4
22	22	8
155	156	2
23	24	2
109	109	9
155	155	7
85	87	3
121	122	4
140	140	3
82	83	1
168	168	3
75	80	3
151	151	3
91	134	1
8	8	2
104	104	10
16	16	6
62	113	2
142	143	3
17	17	5
54	54	6
140	141	1
23	23	2
36	37	1
0	1	1
86	86	5
56	56	3
102	102	8
83	83	2
46	46	2
147	147	5
79	117	2
38	38	8
15	15	2
162	162	7
135	135	6
73	73	1
26	26	4
129	148	3
79	79	2
99	100	2
77	86	1
134	134	3
93	94	2
52	53	4
128	147	1
34	35	5
111	111	1
84	84	1
70	71	1
57	63	1
98	98	4
24	24	4
49	53	1
133	133	6
92	92	3
124	162	4
138	138	7
154	154	6
113	114	4
67	67	11
7	7	4
13	14	1
3	3	4
19	19	2
85	85	2
53	53	5
120	120	3
70	70	1
145	146	2
132	132	2
33	33	2
112	113	3
40	49	2
25	25	1
127	128	1
126	126	6
47	48	4
9	9	2
90	90	2
52	52	3
20	20	3
163	163	1
44	44	1
141	141	4
8	10	1
97	116	1
144	144	5
88	88	4
51	51	8
123	170	2
168	169	1
144	145	3
132	133	1
100	104	1
147	148	3
165	165	2
66	66	1
166	166	11
47	47	2
34	34	1
55	55	2
11	11	1
76	133	3
125	126	2
15	52	1
84	85	1
64	64	2
125	135	1
72	72	6
66	99	2
100	101	2
124	170	2
75	75	4
128	153	3
39	57	2
28	28	3
46	67	1
124	147	1
123	123	2
99	99	6
157	158	1
5	9	1
77	78	2
71	71	2
8	9	1
113	146	4
96	96	3
11	12	1
64	95	1
68	68	3
135	154	2
114	114	2
76	143	3
141	142	3
81	104	1
112	112	5
164	169	1
69	136	1
106	106	1
5	5	1
48	53	2
4	10	1
50	50	2
165	166	2
46	58	1
25	47	1
128	129	1
153	154	2
164	164	1
72	93	3
128	128	1
123	124	5
5	7	3
26	141	2
110	111	1
27	55	3
64	108	2
69	69	5
93	93	2
124	124	2
53	54	2
113	115	1
46	64	1
69	70	2
42	42	2
157	157	1
167	167	1
129	130	1
47	53	2
89	99	2
108	132	1
78	86	1
92	122	1
109	110	2
90	137	1
95	97	4
137	138	2
34	111	2
51	52	1
116	131	1
17	90	3
124	125	1
9	19	1
151	152	1
130	130	2
87	102	3
169	169	2
48	48	3
162	163	2
136	136	2
0	19	1
162	164	2
0	13	1
107	120	1
159	160	4
125	125	2
0	0	1
78	82	1
95	95	3
49	49	2
1	2	2
27	56	1
97	97	1
167	168	2
1	1	1
144	149	1
40	50	2
94	94	1
119	119	2
67	68	1
156	156	2
112	114	1
121	121	1
106	107	2
5	22	1
74	86	4
39	50	2
69	73	2
80	80	2
136	139	2
83	84	1
77	77	1
41	41	1
35	35	1
62	63	1
94	95	2
149	149	1
63	63	1
10	151	1
148	148	1
6	9	2
37	38	1
145	145	1
73	77	2
8	11	1
22	41	1
104	134	1
140	153	1
164	167	1
40	40	1
1	20	1
73	74	2
96	112	1
3	4	1
48	49	1
146	147	1
101	101	1
146	146	1
27	27	1
148	168	1
163	165	1
67	69	1
153	153	1
12	12	1
20	22	1
154	155	1
75	132	1
