15	15	8
96	96	8
83	83	3
39	39	10
92	92	18
137	137	2
107	107	10
103	103	7
95	95	10
107	108	3
152	152	5
49	49	5
105	105	8
88	89	5
23	137	1
13	13	6
123	127	5
99	99	14
73	149	2
64	64	8
140	140	13
108	109	8
148	149	5
77	77	16
115	115	5
130	131	1
33	33	17
93	94	5
132	133	5
18	20	6
14	14	5
27	96	2
143	143	6
51	52	4
16	16	7
128	128	3
27	27	4
125	125	10
139	139	6
134	134	3
28	28	11
100	100	11
9	19	2
103	105	4
16	56	2
23	24	3
134	147	2
1	1	6
26	26	7
89	92	3
113	123	1
87	88	7
113	114	1
7	7	9
66	138	4
11	12	9
154	154	8
90	90	10
77	78	10
135	155	1
3	3	5
124	133	3
69	69	7
8	10	3
148	148	5
42	42	10
27	28	2
136	136	5
89	89	5
76	84	4
111	111	11
0	29	3
45	45	3
44	44	7
110	111	4
40	40	7
0	0	9
72	139	5
21	21	8
35	35	10
12	12	13
50	50	6
126	126	8
26	33	1
90	92	6
71	71	9
67	67	4
30	30	6
78	78	5
37	40	2
10	10	7
142	142	9
28	96	1
118	118	10
111	112	4
133	133	3
42	43	10
126	154	2
79	79	9
121	121	7
145	145	3
141	147	1
19	20	1
123	123	7
75	136	3
148	158	4
7	8	2
91	91	15
94	94	6
0	151	3
29	44	5
147	147	6
88	97	3
113	113	9
25	26	2
131	131	8
120	120	6
4	4	10
104	104	9
28	29	3
82	82	9
149	149	2
132	132	6
22	138	2
127	127	6
98	98	8
8	11	1
119	120	3
18	51	1
102	102	2
73	73	11
68	126	2
22	23	3
158	158	6
125	140	1
21	52	4
73	77	1
76	77	5
50	51	3
41	41	2
66	97	1
114	114	8
144	145	2
39	40	3
23	23	2
96	100	1
151	151	7
80	80	8
138	138	7
20	21	8
19	51	2
71	72	3
119	119	13
44	45	6
20	20	7
150	151	1
155	155	8
119	149	2
135	144	1
55	55	7
127	129	4
124	124	3
25	25	4
37	37	3
75	75	5
72	119	1
126	140	1
26	27	6
79	82	1
116	116	8
68	69	3
122	122	3
90	116	1
53	53	4
63	64	3
87	87	5
134	149	1
88	88	12
108	111	1
77	93	2
84	84	7
18	18	15
129	129	4
114	115	2
31	31	1
69	70	1
156	156	8
47	47	8
22	22	2
16	17	4
140	156	5
43	43	1
150	150	7
10	11	1
41	43	1
52	52	3
0	35	3
53	54	1
65	65	2
154	157	2
106	106	5
15	64	1
29	29	11
56	131	1
86	147	3
5	21	3
66	67	2
93	93	5
129	130	3
3	54	5
51	51	13
30	31	1
139	140	6
121	122	1
67	144	1
117	117	6
32	32	4
98	140	4
99	101	3
131	132	5
141	141	2
34	34	4
115	116	2
5	5	2
144	144	2
8	8	4
85	85	1
82	83	3
6	22	2
129	151	2
54	54	3
86	119	2
81	120	4
46	54	5
154	155	2
116	137	1
105	106	1
2	12	2
13	15	2
9	16	2
123	125	3
70	70	3
38	39	1
79	84	1
142	157	1
146	147	1
6	6	3
24	24	2
81	138	1
86	154	2
0	36	2
124	125	2
57	57	3
2	2	7
33	35	3
45	53	2
104	105	2
49	50	6
51	53	2
108	112	3
90	113	2
155	156	1
109	109	4
81	81	3
87	138	1
81	86	2
12	13	2
101	101	10
67	68	5
7	35	1
11	18	2
140	141	1
48	48	6
95	96	5
0	129	1
98	126	2
84	85	3
109	110	1
18	34	1
91	113	1
97	97	1
1	29	2
30	137	1
78	79	3
89	150	1
38	38	6
105	110	1
123	124	3
31	43	1
130	130	1
95	103	1
152	157	2
29	30	3
43	54	3
91	116	1
1	41	2
72	72	2
116	121	4
78	99	1
34	35	1
133	134	5
99	100	1
118	122	1
68	70	2
147	148	4
27	39	1
17	18	1
9	9	1
18	22	1
71	119	3
67	82	1
108	108	3
101	102	2
3	11	3
36	43	1
76	76	1
91	106	2
8	9	1
6	7	1
157	159	3
78	84	2
84	93	2
131	151	1
73	75	1
19	19	5
46	46	2
147	155	1
12	44	1
67	142	3
96	97	3
93	117	1
65	69	2
56	57	1
31	42	1
11	17	3
91	114	1
135	135	2
33	45	1
11	11	4
157	157	1
78	130	1
109	111	2
66	66	1
21	22	3
30	34	1
110	110	1
74	120	1
118	119	1
61	63	1
64	140	1
11	15	1
146	146	1
51	54	1
43	44	1
90	120	1
113	115	1
122	154	1
4	6	1
14	15	1
73	99	1
97	130	1
4	5	2
143	144	1
29	36	1
1	2	1
12	36	1
4	43	1
68	124	1
35	46	1
36	36	2
69	71	1
54	55	1
104	144	1
87	89	1
112	112	1
9	17	1
103	106	1
68	142	1
