174	175	8
134	134	25
94	140	3
67	67	4
51	51	14
157	157	2
60	60	6
179	179	17
87	96	2
150	150	23
46	46	16
47	48	3
17	17	18
73	73	26
24	25	5
108	109	8
184	184	10
111	111	9
147	147	17
142	143	5
63	63	4
162	164	6
94	94	8
118	118	9
55	55	7
18	67	2
167	167	16
157	167	7
26	26	18
127	143	1
88	88	5
32	32	18
143	143	4
174	174	18
110	111	2
27	27	10
116	118	1
73	75	8
141	142	2
80	119	2
180	180	14
148	148	19
133	133	24
46	48	4
186	187	4
42	42	11
63	68	1
44	44	17
10	10	21
43	43	27
63	67	4
28	154	3
25	25	17
85	85	14
97	99	6
174	178	4
41	42	2
165	166	10
71	71	19
116	116	16
161	161	12
162	162	6
128	128	7
21	21	6
73	124	1
172	182	6
193	193	17
85	115	6
82	85	9
34	34	5
43	58	3
138	138	4
133	134	3
136	137	7
70	71	9
9	10	5
168	168	7
179	181	2
53	54	5
8	8	9
177	177	22
94	95	10
177	179	3
9	9	8
152	152	6
129	129	10
152	153	10
118	171	2
83	83	16
82	82	8
104	107	3
84	84	5
23	23	11
49	50	7
77	77	11
31	77	9
186	186	24
136	136	7
130	130	6
159	159	4
30	30	18
151	153	8
98	112	1
124	124	16
74	74	13
185	185	7
37	37	5
79	80	3
160	160	5
185	186	9
7	8	5
45	46	4
11	66	5
113	113	13
1	25	1
40	41	13
0	0	17
119	119	20
52	52	12
53	53	28
103	104	7
118	167	3
19	21	7
68	68	8
43	46	1
126	128	3
48	48	16
183	185	1
154	154	14
25	26	4
127	127	10
120	124	5
114	114	23
73	74	15
196	196	19
158	167	7
163	164	11
15	15	10
153	154	12
56	58	4
62	62	17
50	51	13
29	29	8
46	52	4
113	141	2
2	2	9
49	49	16
57	57	8
189	189	8
131	138	4
169	170	12
83	86	4
39	41	4
136	140	1
171	171	18
64	64	7
4	20	4
148	150	2
171	181	4
112	112	11
98	101	3
104	105	2
157	160	4
30	31	11
145	146	3
33	33	9
64	65	7
13	13	12
103	139	2
184	188	9
43	45	2
69	69	11
119	120	9
149	150	7
22	22	9
11	11	4
4	4	10
39	40	2
99	99	6
55	56	7
120	121	5
161	162	3
154	155	6
169	169	19
135	136	4
79	79	7
183	184	7
60	61	1
100	101	4
161	172	1
70	70	6
101	101	9
24	28	1
156	156	20
145	153	3
122	196	1
48	49	4
192	192	6
32	33	4
186	193	1
37	154	5
174	192	6
181	182	12
21	149	3
187	187	16
155	155	13
142	168	2
170	170	5
46	47	8
183	183	14
31	31	16
52	54	2
135	193	2
3	3	7
135	140	9
134	135	3
53	55	2
61	61	13
82	83	7
142	142	3
30	32	1
31	32	8
125	125	2
97	97	14
6	8	13
77	78	9
184	194	4
172	172	8
6	7	7
108	108	16
2	19	2
194	195	4
193	194	1
11	170	4
121	121	4
188	188	2
28	36	4
0	155	2
109	109	4
7	190	1
108	115	1
118	148	2
149	149	2
191	191	14
1	26	5
14	14	10
78	79	3
89	89	8
181	181	8
29	71	3
117	148	3
135	135	8
7	7	11
114	116	4
1	19	5
126	126	16
9	23	2
108	110	6
184	185	2
56	57	8
70	169	1
80	85	6
196	197	6
157	192	1
10	11	4
108	197	2
146	146	22
80	81	3
146	148	7
86	89	1
190	190	2
141	141	21
189	190	4
148	155	4
123	124	2
140	141	4
45	45	10
100	100	10
167	168	5
78	78	4
34	35	5
143	144	3
122	122	5
76	76	2
40	40	5
192	193	11
93	93	4
74	75	4
107	107	14
140	142	1
41	54	4
132	132	7
34	65	4
180	182	5
178	178	3
144	144	7
98	100	1
2	37	6
129	193	1
182	182	5
59	60	5
197	197	11
3	150	2
134	136	6
120	120	12
128	129	3
96	97	4
84	114	3
4	5	2
161	165	5
76	77	3
146	147	3
164	165	4
124	182	5
162	163	10
72	72	8
161	164	2
81	81	6
127	128	1
58	58	8
161	180	2
47	47	18
145	145	2
1	1	4
12	65	5
137	137	16
148	149	2
59	59	16
62	68	3
35	35	2
38	39	6
44	45	2
83	115	2
24	24	11
122	146	2
114	115	10
101	106	3
98	102	1
106	106	11
38	65	3
182	186	2
112	113	4
11	12	9
14	66	1
105	106	1
24	37	2
151	152	1
56	56	14
38	150	2
184	187	3
81	83	5
172	175	3
31	50	3
130	180	4
18	18	5
38	38	13
2	39	2
115	115	6
35	74	2
132	133	3
21	23	5
39	39	11
142	193	3
103	105	4
65	65	7
122	168	2
102	103	1
36	36	7
102	102	5
122	171	2
153	153	12
5	8	6
33	41	1
56	60	2
143	148	2
191	192	2
174	179	2
93	94	2
121	123	6
117	119	1
57	58	6
123	173	2
33	65	1
171	172	2
158	158	5
157	158	5
85	111	2
71	72	9
31	60	1
109	112	6
125	126	2
54	54	14
133	156	4
151	151	8
117	118	3
79	116	4
5	5	9
87	87	6
68	197	2
176	193	2
19	19	3
12	12	9
175	178	2
135	137	3
31	70	3
101	107	1
81	82	7
101	103	2
166	166	5
165	167	3
86	86	10
158	178	7
131	131	11
20	20	6
9	39	2
170	172	4
122	182	1
175	176	1
179	189	3
168	169	2
95	95	3
99	108	2
20	21	9
177	178	3
164	164	3
117	167	3
74	104	1
179	194	7
161	163	1
28	74	1
28	28	4
115	116	5
173	173	5
162	173	4
0	28	1
195	195	3
140	140	3
102	107	2
41	41	6
117	117	4
24	80	1
50	50	4
160	161	3
75	75	2
18	78	1
0	2	3
131	137	1
63	66	3
130	138	6
166	167	3
66	69	4
176	176	3
88	90	2
54	55	2
98	98	8
69	70	7
71	121	2
119	156	3
4	19	1
5	7	4
121	167	2
159	177	4
167	177	2
44	55	1
19	28	2
175	179	3
1	24	1
131	132	2
194	194	8
113	115	5
3	4	1
110	110	1
25	27	1
112	114	2
153	166	1
113	116	1
172	181	2
182	183	4
110	149	1
185	188	3
176	177	6
103	103	2
39	54	1
158	159	4
159	173	2
125	128	2
80	80	3
130	131	1
159	163	2
147	151	2
70	125	1
47	51	2
46	54	2
175	175	2
84	86	3
70	120	3
117	120	3
17	19	2
0	82	4
186	195	5
157	185	2
77	119	2
1	2	2
71	73	2
61	126	1
14	15	2
26	151	3
158	181	2
41	55	2
122	173	2
118	119	3
29	78	3
188	189	4
80	84	2
97	140	1
150	169	1
165	165	5
16	16	10
123	123	5
174	181	1
71	119	3
150	151	1
1	37	1
105	105	2
77	124	3
136	142	2
116	120	2
137	138	1
108	112	4
159	164	2
77	79	2
117	161	2
16	68	1
36	37	1
75	78	3
99	100	1
27	151	1
76	79	1
26	27	1
63	64	1
15	16	4
163	163	2
30	70	3
0	4	1
19	24	2
18	19	2
178	179	1
29	79	1
147	155	2
16	18	4
74	127	3
131	191	3
126	127	1
184	186	2
32	107	1
28	150	1
41	63	3
72	73	1
0	1	1
124	125	2
142	196	4
80	121	2
68	85	1
104	106	2
168	172	1
41	60	1
149	197	1
40	42	1
87	101	3
82	86	1
130	137	2
158	160	3
122	123	3
47	50	5
116	117	1
79	121	1
115	117	2
62	63	2
173	174	3
156	168	1
83	84	3
145	158	1
24	42	2
21	24	3
153	158	1
36	152	2
114	128	1
140	168	1
99	102	2
0	37	2
166	178	1
129	191	3
16	20	1
97	111	2
84	85	1
69	124	1
13	64	2
52	53	2
85	86	1
113	128	1
138	140	1
6	22	1
70	124	1
70	122	1
22	23	1
70	85	1
86	87	1
157	181	1
42	43	2
61	62	2
12	57	1
158	185	2
9	189	1
29	73	1
73	103	2
139	140	2
127	197	1
152	168	1
116	119	1
136	183	1
13	14	1
28	73	4
8	189	2
32	42	1
23	27	2
69	169	1
152	154	2
108	149	2
14	197	1
94	96	1
128	193	1
23	42	1
104	104	1
128	142	1
66	66	1
96	96	1
123	172	1
20	22	1
24	39	1
98	99	1
101	102	3
161	168	2
28	37	1
45	67	1
129	136	2
23	26	1
68	69	2
93	95	1
22	42	1
9	42	1
38	40	1
143	145	1
95	96	3
64	183	1
89	140	1
64	66	1
16	17	1
100	102	1
97	98	3
79	84	1
