59	59	5
56	56	13
54	55	3
29	30	9
1	22	1
105	105	8
67	68	7
112	112	7
114	114	3
10	10	5
115	160	3
71	72	14
172	172	14
22	25	2
0	0	5
113	116	3
192	193	3
89	89	3
122	122	14
20	20	6
126	193	2
59	60	4
2	2	7
169	169	7
29	77	7
194	195	5
44	44	6
133	133	28
49	49	9
117	117	6
144	144	8
40	41	3
83	85	4
184	184	17
79	79	14
67	67	9
136	136	8
76	76	5
17	17	9
59	136	2
1	3	2
180	182	2
7	7	1
110	110	12
36	36	17
123	123	8
78	78	5
154	154	18
86	86	3
135	136	3
42	122	2
143	143	15
185	187	2
14	14	10
167	175	2
116	116	10
45	127	1
141	142	5
37	41	1
58	68	1
153	190	3
120	123	1
148	148	2
69	69	15
196	196	9
126	127	2
79	80	10
95	95	8
33	33	19
152	152	6
60	61	6
45	45	16
108	108	19
39	80	3
24	65	1
155	155	13
50	50	5
9	10	1
58	58	10
176	177	3
18	21	1
70	70	6
159	186	2
50	51	11
18	23	2
6	7	2
24	24	2
192	192	6
80	173	4
22	22	7
158	189	2
4	4	6
41	42	5
31	31	13
144	155	2
52	52	12
46	54	5
42	43	5
160	160	8
15	15	10
181	181	14
100	100	13
170	171	10
74	74	11
191	191	11
164	164	4
104	111	5
97	125	2
29	70	1
99	99	8
28	29	4
33	42	2
66	66	8
51	51	6
98	142	6
106	107	4
72	72	8
149	149	10
139	139	16
114	115	2
120	120	5
136	137	1
45	192	7
166	166	16
32	32	10
59	61	2
7	8	4
134	135	9
32	33	4
39	39	14
23	23	6
193	194	3
13	13	22
60	60	10
115	118	5
119	171	3
1	6	2
160	192	1
194	194	4
152	153	2
47	48	3
22	23	5
95	97	2
93	109	4
49	50	5
25	64	1
4	14	2
138	139	1
26	26	6
168	169	2
89	155	2
153	153	9
48	48	14
138	138	14
162	162	7
146	146	5
88	134	1
38	38	9
37	123	4
84	84	10
42	60	4
11	11	6
140	140	7
141	141	10
76	77	5
195	195	9
113	113	19
135	135	6
185	185	15
142	142	13
183	183	4
161	161	8
145	145	15
87	90	5
28	109	1
57	58	4
21	23	2
61	62	4
139	140	6
64	64	14
44	46	1
109	112	1
75	87	2
146	147	3
137	139	4
96	96	3
42	42	1
168	179	2
30	122	2
121	183	7
85	85	14
88	88	2
189	190	1
15	16	6
180	180	5
134	157	8
38	131	3
113	114	7
116	165	1
80	81	7
121	121	10
41	41	7
167	169	3
78	79	2
69	70	5
98	98	7
13	14	2
80	80	12
177	177	8
130	130	6
167	167	9
156	156	12
26	59	1
30	30	25
53	54	3
9	9	11
20	21	8
11	12	4
27	70	2
150	150	7
28	40	1
104	104	7
174	175	2
115	116	4
0	1	5
102	102	11
185	186	5
189	191	2
60	86	4
107	107	13
109	110	10
10	11	9
61	86	1
188	189	5
126	133	2
45	183	1
27	27	14
81	81	15
193	193	6
27	42	1
173	173	5
37	38	5
165	165	8
87	87	3
81	83	1
78	80	2
62	62	8
161	162	4
44	57	3
25	25	11
197	197	4
120	149	1
33	36	2
104	106	2
54	54	4
108	109	3
64	66	1
153	154	4
30	31	1
39	59	5
27	40	3
154	155	10
179	179	9
129	129	4
103	103	5
186	186	8
46	46	12
63	68	3
77	78	5
70	71	2
48	50	1
26	27	4
126	126	10
61	61	5
2	27	2
5	78	1
16	16	7
190	191	8
70	72	3
35	35	5
116	174	2
14	17	3
123	124	8
137	138	3
124	125	4
57	57	12
132	132	8
44	131	4
188	188	5
89	157	2
19	19	3
171	171	6
178	178	3
151	151	2
150	151	1
52	57	2
122	123	7
37	37	7
159	159	4
132	133	4
120	181	2
3	3	9
136	139	3
36	37	1
111	111	13
94	140	1
158	158	3
87	88	1
20	22	8
119	173	2
66	68	3
121	146	1
171	172	1
167	168	8
172	173	3
47	47	5
168	175	3
149	150	2
124	137	4
100	113	4
128	128	4
25	26	4
134	142	4
21	73	6
137	137	7
44	126	4
73	73	6
133	140	4
131	131	2
159	160	2
93	94	3
178	179	6
191	192	4
143	144	4
114	160	1
45	70	3
66	69	3
109	109	4
149	167	5
119	119	6
172	176	2
4	11	4
8	78	2
148	150	1
0	71	2
58	64	6
24	68	3
95	143	3
16	24	2
160	187	2
173	174	5
172	180	1
189	189	3
75	154	2
72	84	5
155	156	4
144	153	1
125	142	2
54	64	1
130	132	3
71	71	7
160	161	3
77	77	4
109	113	1
8	8	1
55	55	10
83	83	2
145	146	2
152	156	1
36	41	1
18	34	5
6	6	1
195	196	1
118	119	8
173	178	1
127	127	6
98	159	3
182	183	2
12	13	1
4	9	3
46	51	1
55	118	3
114	140	1
16	23	2
188	190	1
169	170	1
121	122	5
144	145	11
169	174	1
34	35	5
3	4	4
99	115	1
98	144	1
93	159	1
32	181	2
5	6	5
82	85	1
15	24	2
119	160	2
162	163	1
148	149	4
87	144	3
11	13	2
26	63	2
177	178	1
119	167	1
168	168	10
6	18	2
127	181	1
3	8	2
15	69	2
175	179	2
5	10	2
53	55	4
68	68	1
17	20	4
5	5	3
34	34	1
16	17	3
171	178	1
54	138	1
75	75	2
56	193	3
156	157	3
23	35	1
162	164	4
29	73	1
96	141	2
147	147	2
48	51	1
12	12	12
49	52	1
74	75	2
182	182	7
2	3	3
117	143	3
158	159	2
84	86	2
86	87	2
9	71	1
63	63	3
127	128	3
26	60	3
43	43	8
57	61	2
42	61	6
105	106	1
101	174	4
106	106	1
9	79	2
187	187	4
37	79	2
65	66	2
72	75	4
123	192	1
37	124	1
118	120	2
153	155	1
100	101	1
56	58	1
187	193	1
25	143	1
111	112	2
174	174	1
120	121	2
88	157	1
163	164	4
38	120	1
130	131	1
19	39	1
94	94	9
58	66	5
18	18	1
140	141	2
170	170	2
134	134	4
9	11	1
63	90	1
74	76	1
186	187	1
21	21	4
49	51	2
62	63	1
181	182	3
121	123	4
135	137	1
184	185	2
176	176	1
171	174	1
55	56	4
168	173	1
26	35	3
107	108	2
143	156	1
82	82	3
153	193	1
125	134	3
15	43	3
17	19	3
29	29	4
39	146	2
87	89	1
63	66	1
8	9	3
52	127	1
33	134	1
38	136	2
151	152	1
129	131	1
191	193	4
32	120	1
60	69	1
190	190	2
99	111	2
119	168	3
53	53	2
125	193	1
59	69	2
96	97	3
167	178	2
101	101	2
105	111	1
19	20	3
124	124	2
133	134	3
136	140	1
175	176	2
27	28	3
6	10	1
114	150	2
40	40	3
79	86	1
2	8	2
0	3	1
163	163	1
75	78	1
128	192	1
103	105	1
168	181	1
148	163	1
26	41	1
9	76	1
56	57	4
116	118	1
0	23	1
98	143	2
1	29	1
53	137	2
66	67	2
39	40	3
175	177	2
115	115	1
104	105	1
46	192	1
183	184	4
146	151	1
60	70	3
120	127	1
0	2	1
52	56	1
1	1	1
46	193	2
103	104	1
130	181	2
4	71	1
72	73	2
126	194	1
98	112	2
157	157	1
119	120	1
1	75	1
58	59	3
180	181	1
46	47	1
151	168	1
25	33	1
15	46	1
14	45	1
157	159	1
38	134	1
83	88	1
57	60	1
86	154	1
43	44	1
33	80	1
44	192	1
117	144	1
58	135	1
165	166	1
95	140	1
45	194	1
103	110	1
157	188	1
51	52	1
175	178	2
55	138	1
39	61	1
148	152	1
114	118	1
124	196	1
169	182	2
166	167	1
25	69	1
65	89	1
45	125	1
112	113	1
24	66	1
18	20	1
45	47	1
119	132	1
97	97	1
8	68	1
63	134	1
81	88	1
119	144	1
168	172	1
97	98	1
74	155	1
