110	110	6
131	131	14
105	106	1
86	87	4
4	4	8
52	53	6
124	126	3
125	125	12
76	76	7
158	158	14
2	2	3
92	92	9
42	42	6
12	20	3
53	54	4
24	24	10
46	47	2
66	66	2
78	112	2
57	57	6
86	153	4
48	48	11
14	14	10
101	101	5
1	99	5
71	71	6
135	135	11
132	132	10
143	143	4
150	150	14
5	7	3
81	81	14
65	65	4
91	91	20
15	18	2
92	93	3
108	111	8
155	155	8
77	78	1
123	123	10
82	83	6
45	46	6
105	128	2
15	17	2
77	83	1
83	83	9
157	157	10
139	140	1
116	116	20
113	113	9
82	82	8
107	107	24
83	84	2
121	121	15
69	69	4
12	12	10
134	134	18
105	105	11
122	125	2
91	98	3
129	130	3
34	34	2
17	17	5
27	27	15
114	114	11
149	149	6
25	25	14
51	52	3
11	12	6
106	106	3
87	88	7
101	102	10
75	75	17
12	13	2
80	131	1
72	73	3
112	112	13
134	135	4
100	100	9
124	146	5
78	78	8
104	105	5
140	141	4
41	41	7
19	21	2
149	150	3
13	71	3
117	118	8
97	97	9
88	90	3
155	157	1
124	139	1
28	29	5
26	27	1
99	100	3
47	47	6
121	125	2
88	89	4
19	19	6
122	124	4
84	85	4
125	126	12
138	138	8
141	155	2
93	94	4
18	21	2
56	56	1
103	103	3
127	127	7
18	18	9
108	108	15
141	141	9
13	13	2
137	137	9
27	28	6
136	137	4
80	80	4
115	115	8
96	96	8
7	7	4
54	68	1
146	147	6
128	128	5
35	35	6
39	39	9
96	97	2
33	33	1
119	120	5
157	158	1
3	3	2
110	111	7
98	98	10
114	115	5
148	148	5
145	145	6
102	102	6
77	87	2
129	129	12
139	139	10
73	73	6
93	93	1
79	79	12
93	98	2
144	144	6
26	26	6
92	148	2
91	128	2
11	11	7
17	18	5
127	129	4
30	30	10
106	107	5
108	109	2
120	120	12
16	17	2
122	122	5
90	90	9
146	146	5
117	117	30
10	11	1
94	95	5
145	147	3
76	77	6
122	123	3
15	68	7
137	138	2
89	89	11
105	110	5
83	141	2
44	45	4
89	99	3
140	140	16
5	5	5
21	22	4
117	136	4
13	14	3
88	140	4
103	105	2
111	111	6
130	131	4
140	154	2
154	154	5
83	85	4
38	38	2
27	38	1
153	153	3
104	106	1
121	122	3
109	110	5
52	52	2
46	46	4
21	21	4
124	127	7
86	86	5
14	16	3
92	106	3
45	45	5
12	29	3
31	68	1
132	136	1
77	88	2
94	94	6
10	10	5
156	156	9
8	8	6
80	81	1
119	119	7
124	125	8
124	124	3
126	126	4
49	49	3
116	126	4
105	132	3
117	135	1
2	102	2
151	151	10
2	3	1
135	136	2
39	40	1
81	82	6
77	77	9
95	95	4
148	149	2
118	118	3
9	9	6
33	45	1
147	147	1
51	134	4
142	142	1
105	127	1
141	154	2
7	8	1
49	55	2
29	29	6
105	133	1
133	133	9
119	121	1
99	99	3
11	30	4
88	88	5
87	87	3
124	156	2
96	121	1
22	22	3
144	148	4
138	139	3
24	25	4
80	112	3
54	55	1
16	16	4
128	130	2
95	97	3
100	102	1
117	119	2
97	98	3
78	79	2
20	138	3
6	6	1
84	84	1
44	44	2
134	156	2
1	1	3
3	68	2
113	116	2
41	42	2
88	152	1
22	23	4
68	68	7
23	25	2
95	96	5
120	121	4
70	129	1
138	140	2
16	30	2
65	71	3
36	36	2
55	55	1
112	116	1
18	19	1
31	31	2
89	107	1
23	29	3
117	125	1
43	43	2
32	131	2
134	137	4
152	152	3
84	87	1
148	151	2
61	61	1
113	114	2
43	44	1
63	63	1
109	109	1
25	36	2
1	100	1
69	70	3
82	113	1
136	136	5
102	103	2
20	20	4
74	74	2
4	5	1
130	130	4
37	38	2
20	22	1
115	125	1
99	139	1
85	85	1
29	36	1
24	26	1
118	119	2
93	144	3
94	96	1
32	46	2
23	23	1
28	28	4
146	148	2
91	144	4
9	10	1
131	132	1
114	141	1
90	91	1
130	137	1
116	128	1
83	139	1
135	137	1
80	137	1
77	89	1
104	104	1
67	67	1
93	123	1
40	40	1
8	10	1
31	32	1
8	9	3
128	135	1
144	145	1
145	146	1
44	99	1
46	49	1
144	150	1
113	115	2
10	26	1
49	101	1
95	123	1
142	143	1
30	34	1
75	76	1
128	158	1
34	48	1
90	153	2
93	147	1
6	74	1
50	50	1
151	152	1
150	151	1
49	50	1
0	0	1
14	17	1
69	130	1
