21	21	11
136	136	6
95	95	13
4	4	17
7	7	3
91	91	16
123	123	15
14	17	7
130	130	18
102	102	14
33	33	3
114	114	13
105	106	3
76	76	5
5	13	4
81	84	2
15	15	4
134	134	4
103	104	1
112	113	3
112	112	5
121	121	7
102	103	4
101	101	2
104	108	1
124	125	2
5	5	8
79	81	6
6	6	2
126	126	7
89	89	4
14	18	3
102	105	3
133	133	4
128	130	4
94	95	2
34	34	3
9	11	4
105	113	4
101	110	2
116	119	1
2	6	2
2	2	7
83	83	3
3	4	5
27	28	2
138	138	2
104	104	3
23	27	2
11	11	3
129	129	4
73	127	2
78	78	6
81	81	3
131	131	16
126	127	5
85	85	4
119	119	3
103	117	1
113	113	10
3	3	14
35	35	14
79	79	6
15	16	5
102	111	3
7	9	2
124	124	8
86	86	7
77	85	2
14	15	2
9	9	2
19	19	2
17	17	3
10	13	4
27	27	6
81	83	3
32	32	4
29	29	4
118	118	5
100	100	5
30	30	6
139	139	2
86	91	3
108	108	2
92	117	3
8	14	1
11	19	1
77	78	1
16	22	1
10	10	10
24	24	5
138	139	1
37	95	1
111	111	3
84	85	2
122	122	9
0	0	4
71	71	2
73	73	3
22	23	4
11	26	2
117	117	2
110	110	2
16	19	3
120	121	4
127	130	2
96	99	3
26	26	5
28	28	4
98	98	3
12	13	3
98	99	1
10	12	10
96	98	1
25	25	7
2	28	1
116	130	1
8	8	7
7	12	4
82	82	2
77	77	4
121	123	2
122	123	2
8	17	2
12	12	7
118	119	2
90	90	10
20	20	6
0	2	3
72	72	2
94	94	4
88	92	4
128	128	6
34	35	2
14	19	3
109	123	1
68	77	1
104	111	1
127	132	1
75	85	1
31	31	2
96	96	1
102	104	2
130	131	1
115	115	2
131	132	1
13	19	6
88	89	1
96	97	1
13	14	2
74	74	4
108	116	2
0	19	1
28	31	3
24	25	1
32	111	2
113	119	3
104	106	1
88	88	5
88	94	1
134	138	2
73	130	1
1	5	3
18	37	2
29	111	2
120	120	4
1	12	4
95	116	3
135	135	3
27	31	1
33	34	3
113	118	2
103	103	4
2	8	1
109	109	4
6	9	1
79	80	3
81	91	2
1	1	5
106	106	1
81	85	2
121	122	1
1	27	1
38	38	2
137	137	5
116	116	2
11	28	1
110	113	1
6	7	1
11	12	1
75	75	5
102	107	1
14	14	1
22	22	2
77	81	1
15	21	1
5	6	1
9	17	1
82	94	1
23	24	2
86	88	1
75	86	1
88	91	2
76	108	1
23	23	2
72	94	1
96	115	2
4	18	3
109	110	2
5	125	2
29	105	1
16	16	3
117	119	1
99	100	1
74	86	2
2	4	1
25	26	1
95	115	1
111	117	2
10	11	1
120	122	1
72	73	2
108	109	1
80	80	1
116	120	1
87	91	1
18	18	1
97	97	1
37	38	1
105	105	1
10	21	1
