93	93	5
59	59	17
101	102	4
80	81	3
75	75	19
42	42	5
55	55	15
32	32	10
92	93	5
46	46	6
91	91	17
76	76	5
43	43	8
22	22	3
29	87	3
72	72	9
20	20	10
40	40	1
63	63	11
68	69	9
60	60	6
105	105	6
50	50	12
70	70	7
89	89	12
60	61	5
101	103	1
101	101	7
87	87	12
72	98	2
74	74	10
20	68	1
88	89	5
25	25	16
71	71	6
36	36	11
49	76	3
29	57	1
91	92	6
31	31	9
76	77	4
39	39	5
24	24	9
99	99	14
102	102	7
35	42	1
77	77	9
49	50	3
73	73	12
66	83	3
97	97	12
59	60	1
61	61	10
92	94	2
88	88	4
82	82	10
96	103	2
67	67	3
103	104	3
47	48	2
33	33	3
30	30	3
98	107	1
74	75	6
81	81	9
100	101	4
63	64	4
24	90	1
50	51	7
78	78	3
83	87	4
29	29	4
83	83	5
49	49	10
92	92	10
35	36	1
94	94	10
65	65	4
34	34	7
40	58	2
56	57	2
69	69	8
45	56	1
35	37	2
41	42	2
56	56	9
96	96	2
54	54	6
26	27	8
44	107	1
103	103	6
53	55	1
27	27	4
84	85	11
61	62	8
80	80	12
48	48	10
52	52	6
22	88	3
35	35	10
56	60	1
51	51	3
85	86	2
86	86	7
93	94	1
100	104	1
20	67	5
38	38	4
51	74	2
37	38	3
62	62	8
31	34	1
90	90	5
89	90	2
70	71	2
68	68	3
47	47	3
51	55	2
91	94	2
30	72	2
98	98	8
94	95	1
45	46	1
23	23	5
66	66	3
36	65	1
85	85	3
78	79	2
67	76	3
64	64	2
37	37	3
87	88	1
100	100	3
48	49	8
21	21	3
96	104	1
26	26	12
31	32	4
69	71	2
82	83	1
96	100	2
41	41	2
23	24	3
45	45	4
64	69	2
39	51	2
79	80	3
86	89	1
25	26	1
58	58	1
84	84	8
54	65	1
56	65	1
74	99	2
64	65	1
97	98	1
97	99	1
57	57	6
35	60	1
33	34	2
90	91	2
42	43	1
102	104	1
22	69	3
20	21	1
44	44	1
66	67	2
95	95	5
104	105	3
81	95	1
98	99	4
106	107	2
47	54	1
71	72	1
86	87	2
97	100	1
45	47	1
57	58	1
46	48	1
27	87	2
67	90	1
53	53	2
72	99	2
24	25	1
55	57	1
78	90	1
73	74	3
86	88	2
104	104	1
65	67	1
52	77	2
29	88	1
20	75	1
43	44	1
106	106	2
45	58	1
39	40	1
22	24	1
54	59	1
35	94	1
99	104	1
81	83	1
78	82	1
58	59	1
