103	104	1
58	58	1
2	5	3
21	29	3
103	103	2
76	95	2
0	1	1
98	99	3
106	107	8
14	14	7
18	20	3
98	98	4
91	91	3
27	55	1
55	59	2
128	128	3
50	50	2
43	43	3
124	125	1
1	1	12
116	117	3
124	124	2
120	121	2
27	27	2
55	55	4
60	60	4
56	56	3
41	41	1
42	43	5
129	129	4
113	113	4
119	121	8
76	94	1
59	59	4
128	130	2
97	98	2
23	23	3
28	39	2
12	12	2
82	82	5
9	18	3
93	94	2
61	61	5
119	119	2
87	101	5
33	34	1
26	30	2
68	68	3
105	106	6
8	9	2
78	83	2
49	49	4
100	101	2
1	51	1
62	62	4
115	117	3
112	112	5
6	6	1
26	28	2
87	87	4
7	8	4
75	75	3
21	28	2
105	105	2
86	86	1
48	49	3
88	88	3
92	92	2
48	48	4
13	13	5
47	48	3
24	24	1
119	120	2
130	132	1
52	53	1
50	51	3
95	95	1
94	94	3
96	101	5
53	53	6
78	78	3
2	3	2
107	107	5
79	79	6
26	26	1
7	17	1
5	5	5
63	63	3
67	68	4
65	67	2
125	125	1
80	80	2
93	93	1
65	131	2
103	127	6
11	12	2
114	115	1
61	73	2
107	111	2
90	90	4
59	60	1
66	67	4
97	97	3
54	54	2
54	55	1
116	116	3
90	92	2
72	72	4
99	99	1
110	110	1
81	81	4
32	32	1
40	40	3
84	84	1
2	6	2
120	122	1
44	44	8
17	18	1
69	69	3
63	101	1
106	108	3
19	20	1
98	101	3
19	19	2
92	93	3
114	114	2
87	88	2
90	91	1
101	101	2
102	130	2
17	30	3
25	26	2
14	15	1
52	54	2
29	30	2
24	55	1
107	110	1
17	17	3
124	127	1
67	67	2
33	40	2
47	51	4
58	59	1
19	104	1
34	34	1
29	29	2
76	76	2
4	4	3
72	92	1
86	90	1
48	50	1
47	47	1
52	52	1
22	24	1
51	53	1
123	123	3
25	27	1
58	96	2
126	126	2
70	70	1
26	27	1
88	90	1
1	6	2
21	24	1
104	104	1
42	42	1
73	73	3
88	89	1
13	15	1
100	100	1
97	99	1
71	72	1
106	106	1
20	20	1
38	39	1
30	30	1
63	64	1
125	126	1
82	84	1
28	42	2
44	45	1
60	74	1
33	39	1
117	118	1
0	0	1
102	102	1
