10	10	10
76	76	18
95	95	22
100	100	16
94	94	13
101	103	1
114	114	13
91	91	9
108	108	9
71	71	7
117	117	19
3	3	13
101	101	13
35	67	6
34	34	13
89	89	5
73	73	21
53	54	2
52	52	13
104	104	10
132	133	8
100	101	3
106	106	4
104	105	4
99	99	4
33	34	4
85	106	5
2	2	34
131	131	9
28	29	2
52	53	5
55	55	4
115	122	3
69	69	14
121	122	7
8	8	13
114	128	3
33	36	5
119	119	12
68	98	2
106	112	1
65	65	10
27	28	3
50	50	9
21	21	14
90	90	10
49	49	7
25	26	7
44	45	5
130	130	10
54	54	4
72	72	19
26	26	9
36	36	13
44	44	13
132	132	10
85	87	3
75	75	10
35	35	12
123	123	14
30	30	14
16	16	30
86	87	8
18	20	1
79	114	4
61	61	8
124	124	9
12	13	14
57	57	9
22	22	8
105	106	9
45	45	9
103	103	22
85	119	3
98	98	17
64	64	21
80	80	18
94	95	4
55	87	2
122	122	18
4	26	3
49	110	5
11	11	4
111	111	12
7	7	8
20	20	11
31	31	9
70	74	3
105	105	24
99	100	8
76	79	3
88	104	2
126	126	17
92	92	7
0	82	2
113	113	22
3	4	9
64	65	9
35	37	4
13	77	2
79	79	15
112	114	5
107	107	10
8	9	5
125	126	3
86	86	7
98	99	4
29	29	13
72	73	2
51	51	4
37	38	6
43	43	4
6	7	1
7	9	5
88	88	6
21	22	7
95	97	1
9	11	4
68	70	1
70	70	3
70	73	3
62	62	5
31	34	1
18	57	3
60	60	7
62	67	1
78	78	14
14	14	9
28	28	17
44	112	1
25	25	4
32	33	3
79	129	1
13	13	17
13	25	1
84	84	8
59	59	12
74	74	13
82	82	21
80	97	1
8	85	1
91	92	9
63	63	12
84	88	1
33	64	3
19	19	11
89	90	9
18	18	5
54	55	10
23	26	4
3	21	4
106	110	1
27	27	8
75	77	3
34	35	6
61	81	3
96	96	9
5	5	6
116	116	7
111	119	2
120	121	1
16	17	2
102	103	4
94	134	4
108	109	3
121	121	9
15	15	8
111	112	4
84	106	2
111	114	2
58	60	3
108	111	2
0	0	6
115	115	7
127	128	4
4	11	3
20	23	2
58	58	5
127	127	12
128	128	4
12	15	1
129	129	9
87	120	2
97	98	2
99	101	3
23	23	6
128	130	1
66	66	7
130	132	4
60	61	5
102	102	8
85	85	7
61	64	1
95	96	16
115	119	1
128	132	2
46	48	3
134	134	10
78	79	6
17	62	5
97	97	11
60	93	4
90	95	3
37	37	3
48	48	10
112	112	13
42	108	1
53	83	2
68	68	13
115	129	1
9	9	11
65	66	2
79	80	3
53	53	6
106	111	1
81	81	7
130	131	4
46	49	3
110	110	9
76	77	6
0	1	5
86	88	4
80	81	2
1	1	9
44	81	5
82	83	1
120	120	8
71	72	3
4	4	5
12	12	6
42	42	1
31	32	4
111	118	1
16	19	1
24	24	14
21	23	1
83	131	1
4	5	5
68	69	10
125	125	12
107	108	4
13	35	4
81	82	1
31	37	3
122	125	2
96	97	2
89	91	5
56	57	4
14	35	1
65	77	1
52	54	2
118	118	6
66	67	1
57	59	3
77	77	7
109	109	8
88	121	1
17	18	7
47	47	4
29	32	1
90	91	4
118	119	1
33	33	2
110	113	1
4	16	1
47	110	2
121	123	3
77	78	6
34	65	1
29	30	4
16	53	2
55	56	1
76	78	3
10	12	2
17	17	6
87	87	7
85	86	2
127	129	1
109	117	2
117	118	3
14	18	1
88	109	3
33	35	3
116	118	3
14	65	2
7	82	1
20	52	1
46	81	2
1	2	1
93	93	1
54	56	2
0	3	1
3	13	1
104	121	1
43	44	2
14	15	1
26	30	2
93	94	4
115	116	3
15	16	5
112	113	6
71	98	3
14	36	1
20	21	2
12	60	3
6	6	6
92	93	5
42	84	1
62	64	4
119	120	3
92	95	4
50	53	2
97	101	1
56	56	2
108	122	1
8	32	3
119	128	2
58	59	1
113	118	1
126	127	2
36	37	1
12	33	1
70	71	2
57	58	1
101	102	2
118	129	3
118	128	1
129	131	1
94	112	1
88	89	1
71	79	2
35	65	2
17	69	4
98	103	1
123	124	3
133	133	1
109	112	1
84	107	1
72	86	1
98	101	1
38	38	2
106	116	1
3	17	2
46	46	2
130	133	3
88	95	1
67	68	3
89	109	2
2	13	2
99	103	1
84	87	1
26	27	4
85	122	2
83	84	2
69	73	1
116	123	3
9	10	1
1	82	2
2	3	3
67	67	2
34	43	1
10	11	1
87	109	1
65	69	2
53	55	3
92	98	1
96	98	2
55	75	1
3	6	1
73	74	1
60	62	1
122	123	1
55	109	1
116	117	1
2	14	3
76	82	1
90	92	1
135	135	1
89	121	1
45	46	1
50	111	1
25	55	1
79	130	1
128	133	1
25	27	1
7	12	1
103	105	1
119	124	1
67	79	1
5	7	1
68	79	1
124	125	2
53	84	1
53	82	1
91	96	1
49	50	1
122	127	1
24	25	2
6	12	1
25	123	1
133	134	1
59	116	1
115	128	1
31	35	1
