21	21	11
10	10	6
25	25	17
35	35	4
123	123	7
91	94	4
49	49	14
24	24	12
68	68	14
17	17	6
7	7	11
138	138	8
27	27	4
106	106	5
141	141	9
110	111	6
4	42	1
8	8	11
28	28	11
13	13	5
67	142	3
30	31	2
96	96	8
38	39	5
103	103	1
150	150	9
11	11	15
93	95	3
108	108	5
55	55	9
77	78	12
119	135	3
105	105	4
81	81	7
29	30	2
45	65	6
118	131	4
78	123	3
87	88	3
156	156	5
36	36	7
42	151	4
80	81	3
48	48	14
55	56	1
103	148	3
50	51	5
126	126	4
39	39	10
120	120	11
128	128	7
70	70	9
116	116	5
46	46	11
139	139	6
99	99	2
30	30	15
104	104	16
143	143	3
140	140	7
119	119	8
100	139	2
131	131	10
150	151	3
33	33	7
100	100	5
94	94	6
144	144	7
29	29	18
102	102	7
43	99	2
78	105	6
83	116	1
91	137	2
78	78	6
67	67	11
130	131	10
20	21	5
48	50	3
76	127	5
11	12	7
127	127	4
28	29	1
85	85	10
3	3	4
125	125	7
47	47	8
2	43	3
1	1	7
90	90	1
91	138	2
82	109	6
98	98	3
153	158	1
111	112	2
114	114	7
5	5	8
157	157	2
144	149	5
6	6	4
15	15	11
10	11	1
13	14	6
62	64	2
22	22	4
68	71	4
142	143	4
75	139	1
69	69	8
111	111	11
156	157	2
20	22	1
87	87	3
94	111	5
79	79	4
12	12	6
135	135	4
50	50	7
23	23	10
98	99	4
101	101	9
80	80	8
148	158	1
154	155	3
8	9	6
78	107	2
71	72	3
18	18	16
77	140	3
12	13	8
15	18	1
44	44	2
42	42	12
6	18	3
47	49	1
130	130	4
95	95	2
41	41	1
142	142	7
129	129	7
25	43	3
127	128	2
52	52	5
136	137	1
95	107	1
23	24	5
154	154	6
75	75	1
9	9	2
3	4	5
70	72	1
27	28	6
19	19	4
145	145	2
137	137	6
76	78	2
90	114	2
80	135	1
18	30	1
53	53	3
37	37	10
31	31	1
43	43	3
103	104	4
158	158	5
48	49	1
121	121	3
90	91	1
15	16	2
16	16	3
151	151	7
23	28	2
71	71	7
110	110	8
93	93	3
27	38	1
4	4	2
1	44	2
107	107	6
137	138	9
23	27	1
2	2	5
54	54	4
23	29	3
65	127	1
115	116	8
66	72	2
42	63	2
148	150	3
78	80	4
46	49	1
123	124	5
56	56	1
83	117	1
139	140	2
149	150	2
85	86	1
124	125	2
106	107	2
82	82	1
32	32	1
131	132	6
102	138	1
134	134	1
87	89	1
0	0	1
38	38	5
47	48	1
82	136	2
29	39	1
26	26	6
64	64	3
93	94	1
75	140	1
70	123	1
135	139	1
101	138	4
152	152	4
92	92	9
106	108	2
82	112	2
108	141	5
146	153	1
79	80	1
7	8	5
83	114	5
122	122	5
74	74	3
46	47	3
17	19	2
73	73	7
148	148	1
14	15	1
150	158	2
109	112	2
63	63	1
129	130	4
117	117	2
137	139	1
133	133	3
144	145	1
72	72	1
133	134	1
23	39	2
1	2	1
82	110	2
81	82	3
95	96	2
135	140	2
118	118	3
112	115	1
84	84	2
123	126	2
9	10	1
9	11	1
21	22	3
112	114	1
77	101	1
119	132	1
115	115	2
70	82	1
155	156	2
66	66	3
103	107	1
105	149	1
20	31	1
158	159	3
29	37	1
65	124	1
77	141	3
73	125	1
89	137	1
95	102	2
153	153	1
102	107	2
149	149	5
101	139	1
112	112	2
81	140	1
143	144	2
69	70	2
22	38	2
140	141	1
118	119	1
153	154	1
110	113	1
89	89	2
11	14	2
45	46	2
57	61	1
68	69	1
88	88	1
141	142	1
11	13	1
155	155	1
14	16	1
85	89	2
51	51	2
97	97	1
22	23	1
86	88	1
113	113	2
156	158	1
65	65	1
65	125	1
129	150	1
83	83	1
76	76	1
73	74	1
6	29	1
