2	3	4
128	129	1
117	117	9
163	163	3
52	52	2
144	144	4
51	55	2
163	165	2
142	142	9
140	140	5
60	87	4
60	75	1
30	30	5
134	134	5
128	169	5
147	147	9
164	166	3
100	112	4
109	109	11
174	178	2
86	86	5
61	61	4
123	123	5
84	84	2
110	110	12
74	74	8
28	28	10
81	114	2
91	91	5
80	80	10
24	24	4
23	23	3
0	1	5
114	114	7
89	89	3
63	65	7
8	12	1
127	127	6
135	136	1
152	160	2
61	62	3
27	56	2
60	68	1
5	5	3
158	158	1
176	176	2
92	92	2
176	177	1
101	123	2
119	121	5
102	102	6
19	19	4
149	150	10
83	83	9
152	153	1
68	68	2
49	49	5
87	87	4
105	141	4
139	149	1
74	94	1
170	174	3
150	151	2
97	161	3
32	39	2
120	121	1
128	170	2
171	174	3
27	36	2
16	38	7
165	166	1
77	77	8
62	64	1
114	115	8
14	14	5
107	127	6
148	148	4
138	138	11
164	164	3
142	144	3
169	171	3
162	163	2
70	70	3
169	169	3
149	149	6
44	44	4
122	139	4
6	9	3
50	51	3
85	108	4
72	78	2
60	60	8
136	174	1
91	95	4
33	33	3
18	45	5
21	43	1
150	150	1
174	174	3
173	173	2
0	5	3
16	25	1
49	52	2
151	174	4
81	84	3
110	111	2
16	40	1
172	172	5
73	73	8
79	79	10
153	156	2
129	129	5
25	25	9
115	115	5
51	54	3
170	170	4
133	133	4
26	26	7
62	62	2
101	161	1
23	24	2
35	35	6
171	171	1
84	100	3
157	157	11
53	53	3
162	162	6
163	166	5
140	175	1
88	88	3
41	41	5
9	24	4
113	113	5
1	1	2
56	56	2
107	107	2
96	97	1
8	9	3
9	18	3
9	21	1
137	170	3
16	17	3
50	50	3
135	135	1
150	162	4
156	156	5
168	168	10
63	63	4
80	81	2
45	45	5
7	15	1
166	166	4
59	60	1
151	162	6
148	152	1
136	163	4
121	161	1
3	6	2
131	131	1
26	36	1
103	103	3
180	180	2
38	38	8
151	151	5
106	159	1
78	80	2
20	20	3
31	31	2
53	55	1
30	31	4
106	174	1
8	23	3
129	135	2
52	173	3
95	95	6
96	96	4
139	139	4
8	11	2
15	38	4
64	67	2
5	23	3
175	175	1
73	74	1
36	36	4
15	18	4
164	165	3
100	100	1
143	144	1
93	94	1
125	125	5
68	107	1
159	167	3
152	152	3
177	177	1
136	162	2
149	154	2
74	95	3
66	66	3
88	90	4
38	57	2
63	98	6
161	161	1
149	152	1
65	108	2
38	39	3
15	15	4
112	114	4
148	156	3
35	37	2
145	156	2
98	98	1
101	101	2
80	83	1
78	78	3
37	50	1
29	33	2
9	17	2
85	85	3
112	112	2
32	32	4
6	6	4
120	120	4
94	95	3
21	21	3
99	99	4
11	11	2
21	26	1
143	147	2
83	109	3
103	105	2
29	29	4
94	132	1
90	90	2
76	76	2
38	52	2
45	46	3
142	145	2
119	119	1
159	159	2
35	36	3
54	55	2
167	167	2
0	27	2
29	30	2
155	156	1
71	129	1
103	141	4
141	141	2
167	178	1
111	111	1
177	178	1
148	178	2
62	63	2
155	179	1
71	97	1
170	171	1
108	108	4
0	10	3
59	97	1
155	155	3
100	162	1
67	101	3
97	97	2
157	158	1
103	156	2
12	12	3
78	79	4
169	170	1
36	57	3
124	125	3
57	57	1
91	92	3
8	19	2
10	10	2
76	77	2
41	42	1
84	92	4
39	39	3
54	87	1
104	127	2
37	37	2
13	22	2
102	143	1
60	61	2
29	52	3
98	99	2
151	154	1
115	133	2
49	51	1
18	22	2
136	137	4
40	40	1
104	104	3
4	4	5
1	3	2
146	146	1
143	155	1
3	3	2
118	140	1
82	82	3
127	130	1
146	147	1
51	143	1
136	136	1
50	57	2
94	126	1
10	16	1
106	106	2
79	134	1
36	38	1
71	71	2
60	71	1
22	23	1
156	159	1
51	51	2
39	44	1
108	109	3
130	169	1
161	162	1
33	57	4
43	43	1
97	129	1
164	178	1
149	170	1
27	29	1
1	4	2
179	179	1
53	54	2
66	67	1
106	123	1
8	8	2
99	140	3
175	178	1
132	133	1
123	124	2
9	11	1
33	36	1
29	53	2
94	94	1
119	120	1
71	72	1
92	135	1
6	7	1
135	158	1
81	101	1
141	157	1
82	83	1
155	174	1
165	165	2
16	16	1
49	50	1
1	7	1
118	126	1
75	75	1
72	72	1
8	13	1
152	174	1
142	158	1
21	22	1
118	118	2
42	42	1
102	105	1
124	150	1
91	135	2
148	149	1
163	164	1
14	22	1
64	64	1
105	108	1
111	113	1
65	65	2
19	24	2
34	34	1
