1	1	15
0	0	12
9	18	2
38	38	8
3	3	7
116	117	5
176	180	6
4	4	7
186	241	2
211	212	7
102	102	7
58	58	11
184	184	16
168	168	11
153	153	14
195	196	7
182	182	19
62	74	2
40	40	10
85	85	22
100	100	6
0	4	6
119	119	7
51	51	13
67	67	12
64	65	7
236	238	5
48	48	13
65	65	10
177	177	18
32	32	11
14	16	5
211	211	8
152	152	12
167	169	8
235	235	10
62	63	7
150	150	8
27	44	2
196	196	18
20	20	24
205	206	7
151	152	1
159	159	22
230	230	4
186	187	8
39	39	14
5	6	5
136	136	3
75	75	25
242	242	18
203	203	24
61	61	15
49	50	1
55	55	24
185	185	7
28	29	10
127	127	8
189	189	5
193	194	1
43	43	13
65	66	1
43	197	2
79	89	2
25	98	5
111	112	1
145	145	10
45	55	1
207	207	22
164	164	8
128	128	18
152	157	7
25	25	10
26	26	13
202	202	12
229	231	3
106	106	19
113	113	23
48	197	3
210	213	2
72	73	6
205	205	10
16	16	7
143	143	12
63	63	12
223	225	4
127	137	4
105	105	12
114	115	1
155	159	3
160	160	8
159	161	6
16	30	6
103	126	6
110	110	11
203	204	10
75	116	3
7	65	1
133	133	10
22	67	1
42	43	6
183	183	11
153	154	7
84	84	8
187	242	2
200	231	1
88	88	3
201	219	4
132	133	6
165	230	2
37	55	3
47	47	5
212	212	11
47	148	4
15	15	13
219	219	13
98	98	7
155	155	19
1	12	4
27	27	9
157	157	9
50	50	10
54	54	10
3	7	3
17	17	10
28	82	2
44	44	19
109	119	2
167	167	5
120	120	21
12	12	8
173	175	1
22	22	10
207	208	6
217	217	9
43	44	3
68	68	8
135	136	3
53	53	5
177	235	2
138	139	3
228	231	2
215	216	11
147	148	10
166	166	8
232	232	11
22	29	1
31	31	10
0	150	3
199	200	1
109	109	5
223	224	1
78	86	1
102	122	2
130	130	10
199	240	3
117	117	17
78	80	5
196	230	3
204	212	2
204	204	12
5	7	9
46	47	6
18	19	3
142	143	2
214	215	9
164	230	3
224	224	19
213	213	15
207	212	2
146	146	10
209	210	5
148	148	6
180	181	3
227	227	27
218	218	8
60	63	2
44	45	5
151	151	17
16	17	5
1	34	3
11	30	3
96	96	5
135	135	8
141	143	1
45	45	5
171	171	14
226	226	4
70	182	2
88	237	2
28	28	12
152	158	6
72	72	9
6	34	1
233	233	10
70	70	22
198	201	2
104	113	2
115	115	6
179	180	3
164	204	5
95	96	2
158	158	14
170	171	10
147	147	13
220	233	1
58	60	3
236	236	4
13	13	11
7	9	3
199	201	2
64	64	11
60	60	8
241	241	11
35	112	2
217	219	4
28	143	2
0	12	2
31	32	3
121	121	14
156	156	14
145	146	5
21	21	4
198	198	15
123	123	12
201	202	1
153	156	5
181	181	8
13	14	8
72	172	3
6	57	2
30	30	7
175	180	1
186	186	9
210	211	7
228	228	3
209	209	6
19	19	11
118	119	5
168	169	3
178	178	12
230	231	6
7	8	18
150	159	2
174	174	6
197	198	1
138	138	12
56	57	7
99	99	13
101	152	1
158	159	6
222	222	16
52	53	2
23	30	3
71	71	8
6	6	15
137	137	5
101	101	7
229	229	9
224	225	8
238	238	6
64	74	1
121	122	6
163	163	4
173	241	5
176	191	4
169	170	5
139	141	2
175	175	9
69	69	20
187	187	13
37	37	11
122	207	2
9	10	1
7	12	1
41	41	7
221	225	2
124	124	4
183	190	2
3	34	2
173	198	4
72	183	6
165	214	1
188	188	11
220	220	16
8	59	3
107	107	5
136	137	3
17	20	3
14	14	7
115	116	8
112	113	5
154	155	6
144	144	8
57	57	4
74	74	10
101	102	3
132	132	2
162	165	2
221	222	4
190	190	16
53	162	1
103	103	5
51	54	1
162	163	6
194	195	4
84	85	5
171	172	4
140	140	10
164	212	3
206	206	15
149	205	1
154	156	4
199	199	7
173	173	14
5	5	7
4	5	5
95	95	2
215	215	2
66	66	4
82	83	9
14	15	7
43	55	2
225	225	14
47	169	2
7	42	3
161	161	16
195	195	3
15	50	2
54	55	4
241	242	5
237	237	7
190	191	7
109	216	2
118	118	8
62	62	6
153	155	1
14	50	2
192	221	2
29	29	11
20	21	2
10	11	4
117	118	5
191	191	10
7	7	2
170	170	18
184	185	4
112	112	3
80	80	6
193	193	4
50	51	2
46	46	10
35	35	8
125	126	5
189	190	3
225	238	2
165	231	2
124	127	5
226	227	3
140	210	2
114	117	1
23	29	4
144	147	7
45	46	5
0	19	2
46	169	1
172	174	7
221	221	7
8	11	1
125	125	7
9	194	2
236	240	2
102	123	6
121	207	5
165	203	1
61	115	1
3	4	4
174	199	4
162	164	3
239	239	1
85	136	6
134	134	3
15	32	3
65	67	7
47	194	1
216	216	1
9	9	8
28	154	2
116	120	1
128	131	3
165	165	7
239	240	2
162	162	6
201	201	5
63	64	1
142	142	2
38	43	1
56	66	2
195	197	1
160	161	3
124	126	5
152	208	8
74	128	3
33	33	3
233	234	9
141	142	7
18	18	10
42	42	9
122	208	2
129	130	4
197	197	10
77	77	4
24	24	8
21	23	3
74	75	3
15	54	2
128	137	2
201	216	1
2	6	4
36	38	1
122	122	3
223	223	8
107	108	2
172	172	11
176	176	20
194	194	13
200	201	6
2	2	4
200	200	15
169	169	14
26	27	2
27	139	3
9	27	1
114	114	8
180	180	14
59	59	1
206	207	5
192	192	3
73	171	1
221	226	2
165	229	2
228	229	3
49	49	7
104	104	7
56	56	12
73	73	7
175	178	1
29	30	1
104	108	4
228	230	2
96	133	5
75	76	2
108	108	3
198	199	4
187	188	3
175	219	3
150	151	3
208	208	9
75	99	1
109	110	1
39	186	3
25	26	1
139	144	1
148	149	4
231	232	4
106	214	1
122	125	1
33	47	3
4	56	1
73	137	5
76	76	11
4	75	3
3	41	3
85	102	1
195	229	1
116	116	7
13	15	4
227	228	1
61	62	4
103	106	1
149	149	3
17	21	4
176	220	1
56	68	4
68	208	4
82	84	3
76	80	5
146	147	3
87	88	1
15	29	1
83	83	7
22	31	3
81	81	4
186	188	2
205	207	1
70	71	1
83	84	3
171	220	3
133	137	2
21	22	3
103	130	5
80	81	2
208	213	1
57	58	6
81	86	1
154	154	10
35	56	1
78	78	5
133	134	4
221	223	5
26	40	2
62	116	1
0	1	2
99	109	1
206	213	4
220	221	5
139	139	9
138	141	2
17	18	1
143	144	1
44	122	1
214	214	8
34	34	2
205	213	2
14	17	4
212	215	4
82	82	5
56	58	3
114	119	1
44	55	2
152	153	2
236	237	2
173	174	2
129	129	1
175	176	2
48	52	2
49	162	1
25	29	1
158	207	3
82	143	2
61	64	2
231	231	8
27	30	3
97	203	1
185	186	2
100	101	4
200	240	2
165	204	3
76	86	3
115	118	1
193	195	3
210	215	1
220	226	2
125	141	3
27	156	2
240	240	8
54	167	1
77	78	4
1	32	1
2	8	1
71	73	4
86	86	4
167	168	3
11	11	3
163	164	2
203	237	3
196	222	2
1	3	2
78	79	2
203	213	2
122	127	1
102	104	1
193	230	1
151	159	2
210	210	5
27	54	3
141	141	5
9	32	4
149	207	2
9	58	1
11	46	1
2	38	2
10	27	1
95	140	2
6	7	2
192	196	1
173	218	2
211	231	2
10	10	6
54	169	4
200	213	3
59	60	4
91	124	1
27	28	1
79	79	3
157	158	2
110	219	2
173	219	2
59	65	3
76	88	1
40	41	2
190	242	3
211	213	2
66	67	2
232	233	2
27	157	1
40	42	1
179	179	6
139	140	1
222	225	1
67	80	1
197	215	1
19	20	1
225	226	2
73	127	2
159	211	4
178	179	1
187	189	2
234	234	3
8	8	7
9	191	1
167	217	4
30	31	1
60	117	1
50	52	1
151	163	1
99	171	1
213	217	1
91	125	2
88	89	1
32	58	1
126	126	3
67	68	2
85	88	1
4	6	5
4	58	2
71	171	1
52	52	3
215	231	1
63	67	2
180	189	3
31	66	3
176	181	6
108	216	1
45	147	1
214	216	1
8	224	1
15	53	1
48	198	2
113	118	1
203	215	1
39	187	3
35	36	2
238	239	6
156	157	2
193	222	1
72	182	2
125	127	3
196	197	1
85	86	2
32	59	1
216	218	3
25	81	2
121	126	1
37	38	3
22	35	2
97	97	2
152	159	3
163	165	2
124	129	2
57	60	1
15	16	1
21	35	1
175	191	1
181	182	1
159	160	1
0	51	1
193	221	1
175	181	1
108	113	4
23	23	1
149	150	1
51	52	1
36	149	1
125	138	2
39	113	2
44	70	2
73	136	2
204	238	1
22	32	1
158	161	2
41	42	1
1	4	1
35	113	3
235	236	1
111	111	1
8	9	1
117	119	3
50	163	2
134	135	1
11	15	1
70	220	1
53	197	1
103	104	2
3	5	1
60	61	1
36	36	2
64	70	1
212	213	1
12	13	1
149	206	1
38	148	1
43	182	1
16	18	1
155	156	1
165	198	1
25	99	1
165	166	1
32	51	1
48	50	1
11	44	1
143	145	1
99	105	1
216	217	1
5	56	1
225	237	1
197	214	1
50	53	1
43	120	2
67	81	1
161	163	1
0	5	1
217	218	1
195	223	1
7	227	1
160	163	1
181	183	1
144	146	1
113	115	1
129	137	1
186	234	1
191	192	1
119	120	1
131	131	1
