41	73	1
23	48	3
57	57	3
59	60	2
53	100	2
96	96	2
25	25	9
80	80	5
44	44	3
100	102	3
78	84	3
112	112	4
29	29	8
23	23	6
46	46	13
69	69	10
88	89	1
86	87	8
111	111	8
40	40	15
37	37	4
20	20	4
103	108	2
31	49	1
43	43	12
75	75	6
30	45	5
71	71	2
32	32	6
42	42	9
103	103	15
59	89	3
89	90	2
39	40	4
72	72	9
104	107	2
59	59	3
95	98	5
30	30	7
30	86	3
70	70	2
95	95	1
32	35	7
53	53	12
73	73	9
55	55	2
34	36	5
24	25	1
61	62	1
88	88	2
23	47	3
22	22	10
30	31	2
50	50	11
22	43	1
39	39	1
104	104	3
45	45	4
98	98	13
71	72	1
21	21	5
33	34	2
31	78	2
31	31	8
42	43	2
23	46	1
62	62	5
43	44	4
94	94	4
38	38	1
62	63	3
92	94	3
110	110	3
47	47	8
26	26	7
78	78	1
101	101	6
23	29	3
84	84	4
98	99	1
21	22	6
32	36	1
49	49	9
100	113	1
54	56	2
92	92	2
105	107	2
99	99	10
40	74	1
78	87	3
38	74	1
114	114	2
39	74	1
93	105	2
107	107	7
66	66	4
102	102	1
90	90	4
33	33	7
109	109	2
24	74	2
108	108	2
28	28	5
56	57	1
31	79	3
89	91	2
26	66	2
28	47	3
38	39	1
26	27	6
24	24	3
36	36	3
70	71	1
44	46	5
57	112	1
24	65	1
28	30	2
65	65	3
98	107	3
62	65	3
77	77	4
23	24	3
50	82	3
57	109	5
41	41	1
56	56	3
51	51	5
77	78	1
78	85	2
28	76	1
59	91	3
110	111	2
76	90	1
40	41	1
31	36	1
110	112	1
113	113	2
30	48	1
63	63	2
48	48	1
100	100	4
105	106	1
37	39	1
27	27	2
34	34	1
67	67	1
32	33	1
63	64	1
80	81	1
58	58	1
106	106	3
101	104	2
68	69	2
60	60	1
78	80	1
93	94	1
52	113	1
105	105	2
61	61	1
79	79	1
22	46	2
79	85	1
38	40	1
63	65	1
29	76	1
22	44	1
34	35	2
57	81	1
81	82	1
29	47	1
54	54	2
68	68	1
62	64	1
60	91	1
91	91	1
102	103	1
30	78	1
67	73	1
81	81	1
99	100	1
