58	116	1
124	125	3
126	134	1
2	4	5
62	120	1
86	87	3
4	17	1
48	48	4
64	75	4
128	128	6
111	122	6
59	59	10
70	70	3
93	93	5
79	81	5
130	131	2
81	88	1
2	22	4
121	122	5
128	129	8
22	22	4
95	120	1
80	81	3
73	73	5
121	121	2
10	11	2
56	77	2
60	60	5
127	127	3
83	87	4
77	78	5
83	101	4
85	85	3
22	23	3
43	58	5
105	105	4
75	79	1
95	126	5
66	66	6
0	0	8
45	45	5
52	52	3
117	132	1
101	101	5
1	21	3
20	21	6
32	33	4
106	106	5
68	68	2
43	43	3
71	71	2
21	21	4
30	30	1
71	73	3
58	58	1
129	131	8
3	3	4
56	68	1
91	106	2
57	57	11
93	94	4
0	18	2
120	120	2
62	126	3
71	74	1
3	4	4
110	111	2
70	73	2
82	87	2
63	76	4
134	135	1
25	26	3
1	2	4
84	84	7
2	2	1
100	100	1
132	133	1
117	117	4
105	122	1
94	121	1
65	66	2
12	12	3
79	80	2
118	128	4
97	101	2
115	135	4
4	18	1
23	23	3
14	15	2
107	107	7
9	11	5
77	77	6
29	29	6
50	50	6
17	17	4
1	1	3
113	113	7
134	134	7
57	58	5
133	133	4
87	98	3
92	93	1
121	126	2
76	134	3
59	129	2
122	122	3
8	9	3
108	111	3
49	50	3
99	101	1
26	26	1
37	37	3
99	99	2
46	46	5
97	97	1
19	19	3
106	121	2
49	49	1
83	108	1
90	90	2
122	124	7
103	103	1
7	9	1
111	113	3
67	67	2
37	38	2
53	133	4
98	98	2
78	78	6
95	95	3
110	110	2
25	61	3
129	129	2
119	119	3
91	91	4
23	45	2
33	34	5
85	99	1
24	66	1
125	125	7
72	75	1
43	59	2
65	68	1
28	29	1
16	16	2
117	130	1
62	62	2
84	85	7
70	90	3
102	103	2
66	78	2
34	34	3
13	13	2
60	62	1
19	120	2
123	123	4
76	77	2
89	103	1
118	118	1
23	65	2
54	54	1
8	10	2
20	23	1
76	76	2
111	111	6
94	94	3
2	38	2
82	83	1
55	116	2
66	67	1
98	105	1
6	6	2
66	79	1
132	132	1
109	109	6
79	79	2
27	28	1
81	101	1
82	82	1
83	83	2
0	13	1
74	75	1
113	114	2
115	116	1
38	38	1
69	69	2
68	80	1
104	104	1
130	130	1
81	81	1
11	11	4
119	120	2
101	102	2
86	86	3
54	58	2
96	106	4
23	73	1
64	76	1
22	24	1
25	49	1
53	53	1
20	20	1
91	102	2
96	122	2
30	48	1
35	61	1
0	71	1
100	108	1
100	109	1
96	115	1
104	105	2
9	9	1
19	23	1
30	42	1
126	127	1
73	74	1
36	36	1
87	88	1
9	10	1
28	28	1
32	32	2
95	123	1
5	5	1
80	82	1
1	32	1
113	126	1
4	5	1
31	32	1
82	97	1
62	119	1
89	89	1
108	108	1
36	44	1
33	33	1
8	8	1
74	74	1
64	103	1
55	57	1
108	125	1
44	44	1
22	38	1
56	56	1
27	27	2
50	56	1
