12	12	15
67	89	4
81	81	8
45	45	7
197	197	16
49	49	20
52	121	3
46	46	20
52	52	19
159	168	2
105	105	17
122	135	1
137	137	15
97	131	7
37	150	4
154	154	3
65	65	14
13	58	4
39	40	5
128	128	9
174	175	5
187	187	11
66	68	7
16	17	5
132	176	3
120	120	22
178	191	7
87	87	17
139	139	13
16	16	10
163	164	5
164	165	2
8	8	14
107	107	12
57	121	4
151	153	3
57	153	4
98	171	4
174	174	2
177	177	31
2	2	26
130	130	29
166	166	18
34	52	4
125	129	2
175	175	14
11	11	16
117	197	4
32	32	19
85	85	21
53	53	16
186	186	14
7	7	26
94	94	13
180	181	9
100	101	3
64	64	18
141	141	15
161	164	3
157	165	1
14	14	22
182	184	4
132	132	10
119	120	4
133	134	9
82	83	4
173	173	8
95	96	1
9	9	5
73	74	9
13	13	16
103	160	3
163	163	10
158	160	9
171	171	16
108	109	6
160	160	10
115	197	7
149	149	25
32	57	2
157	158	12
27	27	7
94	101	3
28	162	2
185	185	7
43	43	21
100	131	2
172	178	4
55	55	18
108	110	6
127	127	11
28	180	5
99	99	13
34	34	23
120	186	1
100	161	5
58	58	13
4	9	4
150	150	7
41	41	13
34	37	3
103	106	8
146	147	4
100	105	3
33	35	7
118	118	22
195	197	3
143	144	8
177	191	9
144	144	15
181	181	32
127	138	2
143	146	1
156	171	4
182	192	8
97	97	15
119	119	13
80	85	3
83	85	2
119	187	3
129	129	22
84	85	6
17	17	15
194	194	9
187	188	14
93	97	7
42	42	10
40	40	13
121	122	9
167	167	11
31	31	12
94	95	10
195	195	10
20	20	14
29	29	15
71	74	3
155	155	6
36	36	20
8	10	4
18	18	19
25	25	11
138	138	10
38	38	21
50	50	14
61	61	26
165	165	7
152	160	1
43	59	2
168	168	22
156	190	3
20	21	14
122	122	12
35	36	2
0	19	2
78	78	10
44	126	4
108	166	4
176	177	8
78	79	5
8	9	4
82	84	8
56	56	8
58	152	3
133	133	8
115	115	19
57	57	13
21	21	27
171	187	3
75	136	2
130	132	1
87	88	6
44	44	6
183	193	1
69	146	4
4	4	21
111	111	6
190	190	23
59	59	25
96	97	15
30	182	1
131	131	12
109	195	5
115	117	1
2	26	4
23	23	9
180	189	1
4	82	2
60	61	9
94	96	2
73	73	22
26	26	6
110	194	2
175	176	9
117	133	3
170	177	3
11	104	2
121	125	3
145	145	24
134	134	18
26	27	6
125	125	10
25	26	5
41	42	13
135	165	3
121	121	11
152	155	4
35	101	8
47	47	7
49	178	3
45	154	4
70	70	17
156	156	22
24	24	23
82	82	14
166	168	6
98	98	16
60	60	13
196	196	17
102	105	3
52	55	3
166	167	3
54	54	15
159	159	10
171	185	4
3	9	2
116	170	1
176	180	7
146	164	2
95	111	2
39	39	15
0	0	5
102	165	2
180	192	6
66	67	3
1	1	4
15	16	4
83	83	20
108	151	3
10	42	3
164	166	1
176	176	9
22	22	3
153	157	4
5	5	22
117	172	4
58	61	5
3	5	2
101	101	8
68	68	15
127	168	5
102	190	2
64	74	2
30	115	4
176	197	2
7	39	2
15	72	1
17	46	1
118	119	3
179	179	10
172	172	7
182	182	3
180	180	13
51	51	30
143	145	8
164	189	1
52	141	2
112	112	10
84	87	2
89	89	15
116	125	4
55	137	3
73	80	3
109	193	2
135	154	3
66	66	12
157	157	23
178	178	25
6	17	2
119	130	2
59	153	3
53	55	3
10	10	18
46	104	3
101	183	2
138	174	5
33	141	3
48	48	18
111	113	4
37	141	2
6	6	6
110	173	1
83	168	4
162	177	2
14	40	3
101	108	1
145	146	5
108	108	5
164	164	8
14	29	1
81	182	1
113	114	6
97	100	3
161	161	13
130	133	3
30	34	2
184	184	23
158	180	4
125	145	1
28	30	8
0	22	7
177	179	3
95	112	1
67	71	1
68	69	8
0	10	2
104	167	4
69	69	8
50	138	3
115	125	5
155	174	2
79	79	9
165	168	1
24	42	4
1	173	6
183	183	8
136	136	16
10	12	2
63	63	10
1	20	1
81	83	5
93	95	4
88	88	4
181	182	7
118	122	4
59	62	2
108	194	3
192	193	1
162	162	5
116	116	6
28	77	1
162	180	6
68	71	10
5	7	7
135	136	4
133	136	4
191	191	23
123	123	19
101	107	7
37	51	5
185	189	5
45	47	1
107	194	3
139	140	15
45	80	3
63	76	4
24	25	2
3	16	4
158	158	7
158	161	4
123	174	2
19	19	11
139	173	4
39	154	1
60	152	3
33	101	2
141	159	4
102	102	10
12	122	6
64	65	2
33	86	1
177	190	1
149	150	5
96	96	10
33	37	3
172	186	2
26	146	1
151	172	2
4	45	1
106	106	8
7	12	1
135	137	5
76	81	1
100	100	10
185	196	6
143	143	11
148	148	8
87	150	7
62	90	2
150	151	5
160	161	9
39	153	3
64	66	1
40	41	11
117	131	1
104	106	4
75	75	8
71	72	7
103	113	2
193	193	15
105	106	6
148	184	3
164	182	1
109	110	11
35	35	16
155	171	7
30	30	4
13	151	1
109	109	16
151	174	4
148	170	5
33	33	13
8	22	3
153	154	3
62	62	7
62	63	6
101	103	6
169	170	3
159	160	4
11	12	3
13	21	5
126	126	7
93	98	5
71	80	3
36	38	2
72	72	17
3	19	2
67	67	12
120	168	7
193	195	3
22	39	1
81	82	4
14	45	1
140	142	3
34	101	1
144	148	1
37	123	2
26	155	1
107	169	5
147	147	19
94	98	1
75	81	1
110	169	3
4	20	3
161	162	7
103	104	1
54	55	12
7	153	3
27	33	2
157	182	3
79	86	3
98	100	3
151	151	9
86	87	4
6	8	5
142	145	1
55	175	5
115	116	1
77	78	10
107	108	9
136	160	2
74	77	2
18	183	4
76	76	11
177	189	2
103	130	1
195	196	2
9	21	4
64	76	1
20	29	5
116	150	2
104	111	7
3	3	15
69	86	1
150	196	1
6	7	5
89	138	1
9	45	1
1	17	1
12	150	2
15	15	16
113	113	9
116	119	4
136	137	6
2	25	1
140	140	17
50	61	2
105	108	10
124	124	6
180	182	3
47	48	4
115	128	2
192	192	6
72	73	2
152	158	2
152	152	10
167	189	4
107	134	1
55	56	3
86	86	10
6	22	4
125	132	2
137	138	5
146	148	5
109	169	1
142	143	18
114	148	4
191	194	5
10	11	9
149	179	2
125	126	5
0	2	13
157	159	1
65	69	3
157	183	4
0	21	4
115	170	1
22	24	4
43	85	2
139	148	3
118	123	1
34	35	5
0	8	3
54	103	1
77	148	3
170	181	4
188	188	12
27	170	1
111	112	6
50	51	2
72	113	1
17	72	4
137	173	2
59	61	10
76	146	1
35	37	3
157	179	4
34	36	4
56	60	1
7	17	7
74	74	10
71	71	9
152	170	4
135	135	11
64	68	5
157	161	4
103	103	8
155	156	8
20	47	2
25	44	11
154	156	1
11	42	4
107	168	8
190	192	3
144	145	7
3	47	5
36	55	6
127	128	9
67	77	4
58	59	5
28	29	1
191	192	5
47	175	2
13	158	6
97	132	1
34	40	1
15	34	2
7	10	3
175	178	5
38	39	4
28	28	4
3	28	1
131	134	2
25	43	1
53	56	4
27	37	5
6	41	3
155	190	1
76	77	4
46	47	2
50	52	4
142	144	2
46	81	2
168	169	5
31	47	1
88	99	2
12	15	3
104	104	8
62	138	3
80	80	8
12	13	5
7	18	1
137	147	2
185	188	3
67	78	2
104	108	4
56	59	3
22	42	4
152	153	9
37	50	2
161	182	1
162	191	3
37	37	4
13	31	5
1	4	1
107	126	3
11	149	2
156	185	3
39	41	6
123	124	8
114	125	3
148	169	2
0	9	2
190	191	6
167	171	1
44	136	4
41	154	3
10	57	4
37	42	2
90	90	3
52	53	5
44	45	3
177	185	1
43	141	3
56	153	1
114	115	10
9	47	4
1	2	6
70	72	4
94	151	3
125	197	3
5	16	1
117	175	1
133	183	1
159	192	2
31	32	4
31	55	5
158	193	4
43	128	2
3	64	2
31	122	3
45	76	2
156	163	2
138	168	2
17	21	1
59	60	3
129	130	4
186	189	4
7	40	2
185	186	8
120	134	1
43	44	3
86	102	1
69	71	6
9	22	1
128	141	1
142	142	7
114	114	10
3	81	2
98	99	7
63	64	2
4	19	1
0	1	2
64	71	1
93	113	1
103	134	4
51	52	2
46	102	1
76	83	5
40	44	2
8	97	3
5	8	4
156	173	2
138	151	1
179	181	2
146	150	1
85	99	1
162	166	1
142	151	3
93	93	1
23	24	5
52	143	2
128	129	3
12	14	2
9	60	2
102	160	2
126	127	6
124	136	2
6	40	7
12	155	1
42	44	5
17	18	2
156	157	1
169	187	1
29	30	1
153	195	2
29	169	3
6	28	7
118	141	1
131	139	3
163	191	2
130	131	2
165	167	2
36	102	1
110	111	4
98	106	3
145	163	3
46	107	2
117	150	5
190	193	2
33	50	1
136	163	1
27	163	1
25	37	1
151	152	4
118	120	4
59	63	1
114	142	5
8	46	1
2	8	2
28	102	2
84	84	9
35	146	1
38	40	4
153	171	4
94	131	1
2	3	1
64	121	4
179	180	3
110	110	11
127	129	2
35	137	2
0	43	2
121	186	4
54	100	1
103	135	2
74	85	1
9	160	2
22	23	3
168	171	2
2	7	4
63	114	3
75	102	3
149	195	3
36	139	3
29	115	4
184	185	2
31	46	1
26	28	2
120	124	2
37	145	1
62	65	6
8	21	1
99	104	2
160	176	2
116	157	1
79	82	2
106	110	1
5	6	3
101	154	2
61	74	4
165	166	5
187	189	3
26	37	4
128	185	2
170	170	8
105	111	2
35	138	5
101	102	1
37	38	2
104	105	3
89	127	4
51	57	1
141	172	3
47	50	2
49	108	3
68	90	1
3	15	2
56	57	2
42	45	6
178	192	3
14	15	4
5	39	2
123	139	3
21	22	8
121	151	1
104	169	2
93	99	2
18	46	2
175	177	1
49	51	1
131	140	4
155	163	1
141	142	3
35	39	3
90	180	1
11	155	2
134	168	3
94	99	4
108	195	1
113	146	4
163	171	1
134	135	1
171	172	4
124	125	1
90	124	1
140	146	2
1	16	7
181	187	3
80	81	2
122	183	1
117	118	6
117	117	6
69	87	1
115	183	3
4	27	1
79	85	2
68	78	1
174	176	1
72	136	1
183	184	3
73	75	3
62	75	1
3	17	1
105	107	2
25	27	5
145	196	1
19	46	1
116	117	4
74	78	1
82	168	2
112	113	2
122	184	2
67	75	2
153	153	6
14	18	1
116	189	2
48	145	2
80	83	2
1	45	1
95	95	4
94	97	4
155	178	1
34	41	2
8	27	2
33	34	1
40	161	1
169	169	7
28	76	1
59	100	1
56	174	3
11	57	2
173	176	2
196	197	3
167	168	3
119	124	2
44	60	3
35	140	1
80	86	5
67	73	2
60	88	3
135	183	1
32	51	2
114	127	1
53	81	2
107	114	2
112	147	1
32	33	3
9	23	1
84	102	1
57	88	4
120	187	5
180	191	1
149	194	3
44	46	1
143	163	2
65	129	1
180	190	3
23	139	1
34	53	1
174	192	2
186	187	5
89	136	3
1	40	3
155	172	4
121	124	3
105	110	2
52	138	1
30	31	4
155	179	2
85	168	1
132	134	3
65	75	1
138	139	1
149	192	1
3	4	1
45	46	3
159	164	2
25	30	1
85	100	3
5	26	1
22	27	1
102	168	3
156	177	3
48	58	3
37	41	2
13	14	6
47	107	2
70	93	3
13	145	3
24	138	1
153	155	2
12	46	3
25	42	1
7	154	1
20	28	2
177	178	3
113	130	2
2	19	2
24	54	3
49	52	1
0	24	1
7	8	4
87	89	2
62	102	1
120	123	1
4	28	1
122	172	2
143	197	1
108	120	2
118	187	1
64	72	2
5	81	1
172	179	1
163	166	1
16	18	2
82	89	1
30	38	1
162	164	1
149	172	1
114	147	1
171	178	2
116	185	2
189	189	4
74	75	3
146	196	1
105	194	1
11	106	1
152	186	1
67	68	1
37	44	1
8	53	1
108	117	1
51	95	1
1	39	2
5	25	2
105	160	1
63	72	1
71	149	1
73	84	2
35	40	1
135	188	1
65	114	5
57	58	1
94	113	1
82	88	1
119	169	2
82	85	2
62	168	1
19	86	2
123	185	1
161	175	1
53	57	1
51	140	1
74	148	1
58	121	2
67	85	2
127	173	2
192	197	2
88	135	1
155	157	1
57	89	1
88	89	1
15	35	2
31	43	1
159	165	2
109	149	2
132	135	3
79	80	2
65	72	3
104	109	1
70	75	1
53	54	2
44	59	1
108	165	1
22	25	2
169	171	1
137	168	2
57	120	1
96	104	2
95	99	1
15	40	2
60	134	2
185	193	3
146	146	2
153	196	1
159	170	1
5	40	1
36	50	1
1	14	1
93	114	1
173	174	2
181	193	1
189	190	3
86	88	1
173	179	2
13	152	1
148	167	1
152	192	1
116	177	1
3	69	1
47	49	1
169	175	1
178	179	2
84	182	1
55	110	1
9	24	2
75	159	1
42	43	2
0	174	2
116	172	1
81	99	1
103	193	1
99	105	1
4	47	1
2	6	1
13	54	1
147	150	1
37	40	1
143	153	3
166	187	1
26	83	1
97	112	1
155	158	1
161	170	2
104	147	2
113	183	1
8	156	1
113	193	1
63	69	1
26	34	1
153	156	1
42	87	2
47	52	2
38	47	2
19	22	2
11	98	2
161	165	1
21	28	1
152	196	1
72	124	1
128	197	2
3	82	1
77	77	1
157	162	1
74	80	1
89	161	2
111	150	1
57	61	2
29	168	1
138	145	1
116	123	1
102	162	1
149	174	1
174	177	1
64	122	1
13	19	2
24	31	1
133	175	1
186	188	1
4	7	1
21	74	1
48	182	1
136	140	1
170	172	1
105	195	1
134	189	1
172	177	1
132	133	1
48	143	1
8	60	1
30	190	1
36	177	1
109	166	1
131	133	1
36	37	1
5	10	1
73	93	1
100	103	1
1	158	1
75	87	3
141	150	2
37	116	1
88	130	1
48	167	1
102	103	1
63	137	1
23	43	1
102	106	1
85	167	2
10	25	1
144	149	1
124	149	1
89	143	1
3	26	1
71	88	1
94	100	1
62	74	1
3	10	2
77	118	1
50	141	1
162	163	3
95	146	2
8	45	1
151	197	1
116	126	1
114	183	1
118	134	1
29	32	1
133	197	1
118	172	1
135	138	1
137	148	1
57	123	1
28	81	1
69	78	1
183	186	1
30	153	1
103	161	1
3	27	1
128	186	1
29	163	1
173	178	2
152	178	1
23	37	1
161	163	1
70	113	1
162	182	1
96	105	1
100	160	1
55	101	1
