72	82	3
81	81	6
9	9	15
6	6	9
33	33	6
2	2	5
51	54	4
71	79	2
105	140	6
44	44	7
28	35	1
67	114	4
0	1	1
110	110	4
131	131	1
167	167	3
61	61	7
150	157	10
138	138	10
72	73	5
156	156	15
158	158	8
64	68	5
87	87	2
56	61	2
31	31	2
95	95	3
180	180	6
82	124	7
60	83	6
7	130	1
131	141	3
52	145	4
12	49	3
153	153	1
31	145	2
16	26	4
41	41	7
58	102	7
3	3	2
18	18	5
45	45	8
13	13	6
166	166	3
111	111	2
165	166	1
6	7	4
140	142	2
57	68	3
109	110	1
159	159	5
91	101	3
7	7	3
15	122	1
75	75	4
19	24	2
83	83	6
56	83	4
123	123	2
23	25	6
116	131	1
164	165	2
128	149	3
165	165	10
96	96	8
90	92	3
55	56	4
60	61	5
75	113	2
98	98	5
66	67	2
152	152	3
5	144	2
50	50	14
97	100	4
87	88	5
106	106	4
21	21	5
60	60	2
50	115	3
24	61	2
85	126	5
74	74	10
59	161	1
14	15	3
28	28	2
32	32	5
95	99	1
128	143	4
171	173	2
76	77	3
49	50	1
128	133	1
135	135	6
91	92	5
178	178	6
164	164	12
56	72	1
31	33	1
160	160	6
120	120	2
115	116	1
68	68	2
178	179	2
108	125	2
29	39	2
35	36	8
75	76	3
93	101	5
61	63	1
110	111	6
108	110	3
141	141	5
104	105	6
92	92	8
30	30	5
81	82	1
131	158	2
84	84	3
15	123	7
14	50	6
19	83	3
54	54	5
29	29	5
63	105	2
55	55	2
53	128	2
126	130	1
137	138	4
105	108	1
151	151	5
157	157	5
74	75	2
14	51	3
79	80	1
134	134	9
107	107	6
2	3	4
163	166	1
130	131	7
59	59	3
23	163	4
59	62	2
127	127	5
25	165	2
52	115	2
7	151	4
65	65	7
136	136	2
63	63	4
8	13	1
16	163	2
71	71	4
32	33	2
105	105	3
129	129	2
34	34	1
61	62	2
93	102	1
11	11	3
11	31	2
124	124	4
78	78	5
5	7	3
153	154	3
149	149	9
60	113	1
108	108	2
17	24	2
168	168	4
114	114	7
82	161	3
23	23	4
71	171	4
151	152	1
112	114	2
83	85	2
170	171	2
74	119	1
0	90	3
116	117	3
83	109	2
89	101	2
16	85	1
121	121	3
172	172	3
36	36	4
145	145	1
28	29	7
143	143	3
92	93	4
13	19	4
133	134	1
90	90	2
14	14	1
90	93	5
8	9	2
66	66	4
171	171	2
72	72	6
88	107	2
13	49	2
27	166	1
80	80	4
177	177	3
155	155	2
110	112	2
35	35	2
99	99	8
104	127	2
20	20	4
67	113	1
62	62	4
130	155	3
11	146	1
118	118	4
113	113	3
140	141	5
145	149	5
111	112	1
19	25	3
154	154	4
54	115	5
59	170	2
103	106	4
79	79	4
80	81	3
168	169	3
60	62	5
105	106	1
9	126	2
98	102	1
27	164	2
76	76	2
91	91	6
39	40	3
19	85	2
68	70	4
51	51	1
10	10	3
132	144	1
77	77	1
64	64	5
122	122	2
145	146	1
58	104	1
73	120	1
53	143	2
65	66	3
18	104	2
40	40	1
25	163	3
8	110	3
148	148	2
34	37	2
81	136	2
13	18	1
12	12	3
106	107	4
63	68	2
103	103	4
73	75	4
72	162	2
7	142	2
114	127	3
130	158	2
146	146	2
142	142	5
4	4	2
36	37	2
50	54	3
85	85	1
5	128	4
73	73	2
127	143	1
105	141	3
0	89	1
39	39	2
13	20	1
15	36	3
10	52	2
5	5	1
57	57	1
53	54	1
86	86	5
6	132	3
16	16	2
137	137	4
56	57	1
112	112	3
18	125	1
94	94	2
97	97	4
57	162	3
59	159	2
98	101	1
117	120	2
15	115	1
117	117	1
162	163	2
133	136	2
162	162	2
38	40	1
130	130	2
82	130	3
63	160	1
11	145	2
18	58	2
153	159	3
141	142	1
147	147	1
157	158	2
148	149	1
16	18	1
174	174	1
81	135	2
5	158	1
9	13	1
118	119	1
155	157	2
123	131	2
3	111	1
124	125	1
15	26	1
119	120	2
114	135	2
27	27	1
73	74	1
52	55	2
70	70	1
113	134	2
113	135	3
83	170	1
23	24	2
11	14	3
51	122	1
59	160	2
175	175	2
15	15	3
67	67	2
86	103	3
45	46	1
163	167	2
18	21	2
53	53	1
72	121	2
42	42	1
5	142	2
50	52	2
51	124	1
64	81	1
104	111	2
13	52	1
150	150	2
15	34	1
8	18	2
56	82	2
32	44	1
128	129	3
96	97	2
132	149	1
11	13	3
55	121	2
163	164	1
5	133	1
8	20	1
77	78	1
179	179	1
37	41	2
177	178	1
116	120	2
86	106	1
141	155	1
130	143	1
89	89	1
17	18	1
169	169	1
170	170	1
126	129	1
82	136	1
102	107	1
173	173	2
58	106	1
11	12	1
9	16	1
68	71	1
9	10	1
108	109	1
1	3	1
128	128	1
81	162	1
