132	132	10
146	146	9
109	109	15
89	89	20
159	159	23
90	138	4
123	124	20
170	170	4
122	126	6
83	84	7
168	168	7
105	105	11
66	66	9
152	152	15
155	156	4
97	98	8
3	4	3
21	27	5
27	27	8
11	11	11
102	104	1
78	78	8
7	7	20
140	140	23
130	130	19
136	136	18
97	128	3
43	44	3
103	103	18
129	129	11
39	39	12
107	108	4
51	51	19
55	55	11
82	82	14
82	84	2
67	68	9
124	124	24
88	88	7
64	65	8
149	149	7
82	83	4
166	166	14
133	143	4
46	46	27
100	100	25
140	149	1
36	37	4
137	138	13
65	66	10
78	80	2
115	121	1
52	53	4
33	33	11
98	98	11
102	102	17
134	135	4
112	112	16
71	71	7
161	161	13
2	2	14
147	148	9
49	49	9
133	133	12
25	25	18
72	72	32
141	142	2
21	22	2
128	128	12
18	21	2
118	128	2
6	7	17
142	142	7
81	81	9
138	138	11
24	25	9
1	1	24
4	106	6
41	41	17
114	115	5
9	15	3
76	134	1
145	145	10
91	91	8
69	69	4
86	86	6
127	127	10
161	163	5
12	13	5
14	14	13
26	26	5
46	47	4
120	131	11
20	24	10
134	134	16
110	111	8
107	114	4
116	118	4
96	97	3
119	131	2
77	77	19
50	50	14
36	36	14
79	79	9
164	164	14
92	134	1
154	164	3
95	127	1
94	94	18
157	160	1
169	169	6
132	134	2
86	119	3
106	106	11
64	83	3
42	42	16
3	3	12
13	13	9
65	65	13
87	87	10
0	1	1
123	123	13
93	93	9
109	110	2
38	38	15
139	142	7
4	5	8
114	114	18
1	18	8
33	34	6
153	154	10
53	57	1
20	20	4
10	10	24
20	22	4
118	118	14
113	114	4
83	83	15
153	156	5
16	16	10
165	166	1
115	122	1
163	164	9
86	132	6
5	108	5
85	85	10
38	39	5
125	125	8
27	110	2
162	162	11
143	144	4
37	37	13
70	71	3
68	71	5
95	95	8
62	62	6
49	50	5
55	57	1
1	11	3
144	144	8
101	101	17
76	77	4
73	73	8
119	120	10
47	47	5
139	139	18
77	136	3
4	8	2
160	160	11
126	126	11
62	63	13
25	27	3
99	126	3
75	75	16
80	80	11
9	9	13
103	104	2
71	78	3
48	49	6
70	72	2
148	149	10
119	119	13
28	106	1
115	115	12
47	54	4
92	93	2
54	54	12
22	22	13
101	102	7
4	6	3
115	124	2
58	110	1
17	17	14
88	90	2
23	23	18
140	141	9
150	150	15
90	146	3
34	34	6
63	85	6
99	99	4
77	79	3
165	165	7
131	133	1
7	110	2
94	95	4
110	110	29
117	117	22
71	73	5
70	70	15
156	156	15
151	151	12
143	143	19
95	96	3
105	106	5
57	61	6
35	36	9
14	15	4
109	111	1
64	64	6
47	53	7
57	57	10
45	46	5
52	52	6
5	34	4
67	67	8
108	129	4
91	92	6
102	103	5
5	6	8
44	44	8
90	91	5
116	116	17
19	24	4
15	16	4
48	48	12
63	117	7
137	165	1
117	120	1
33	35	2
100	101	3
127	142	3
87	133	1
24	104	2
5	5	13
95	132	3
161	164	1
19	22	2
91	93	4
131	132	11
159	160	3
145	146	6
45	45	10
10	11	2
122	122	12
3	114	6
99	100	2
92	92	11
81	86	2
99	122	4
11	12	4
10	13	1
66	67	4
121	121	13
8	9	3
97	129	2
2	18	2
108	108	16
94	133	2
96	96	9
56	144	1
43	43	16
74	74	5
94	131	2
55	56	6
1	2	7
125	126	4
91	137	3
77	78	3
132	133	13
151	152	8
118	119	5
80	135	4
120	120	11
153	165	3
97	97	6
63	63	7
6	6	7
137	137	12
33	36	2
11	13	4
144	146	3
19	19	10
9	37	1
8	8	6
139	140	1
157	158	6
40	40	4
97	99	1
15	15	13
144	145	6
157	157	2
94	127	3
155	155	5
9	36	3
40	41	5
147	147	3
1	12	4
107	107	4
17	23	1
91	144	2
126	127	2
148	150	2
105	125	2
78	79	6
12	12	10
51	110	1
84	84	12
18	25	1
127	128	3
93	144	2
90	90	14
71	72	4
58	62	2
163	163	8
94	128	5
104	104	3
54	55	3
24	24	5
73	74	3
52	57	3
116	120	2
97	127	3
12	50	2
121	122	8
163	166	1
112	119	2
22	23	1
116	119	1
0	0	5
56	56	15
87	132	1
153	153	4
39	40	6
20	103	1
133	134	3
34	35	3
68	68	7
142	143	9
168	169	3
18	18	3
12	123	2
109	112	2
138	142	9
21	25	2
154	154	3
35	43	1
96	99	2
88	89	4
128	130	6
76	76	10
107	121	1
64	67	1
46	49	3
3	26	1
169	170	2
18	123	3
117	119	3
147	149	3
135	135	18
19	25	3
145	147	1
11	15	1
90	92	4
160	161	3
128	129	7
149	150	5
80	81	8
64	84	2
95	134	3
142	144	4
19	21	2
74	75	4
121	126	1
90	134	2
56	57	2
53	53	3
98	99	1
94	143	2
164	165	4
71	79	1
21	23	1
6	8	1
28	105	3
120	121	4
88	130	3
92	132	2
119	130	2
4	4	3
14	37	1
138	140	3
114	116	1
112	113	3
135	137	2
35	35	6
148	148	5
13	14	3
166	167	4
155	157	1
2	26	1
90	136	2
23	24	2
146	148	2
111	118	2
21	21	6
161	162	2
78	81	1
37	39	5
28	28	7
117	118	1
113	113	3
109	129	2
44	46	4
37	38	1
50	113	1
129	131	2
1	4	1
162	165	4
131	131	9
136	137	1
157	161	1
129	130	1
141	141	1
26	27	1
5	106	1
138	144	1
152	153	1
93	94	1
49	53	2
79	87	2
2	123	3
135	138	2
1	25	2
91	143	4
79	88	1
68	69	2
91	146	3
150	151	2
111	112	3
93	143	1
56	65	3
42	43	1
69	70	1
71	82	2
53	54	6
51	112	1
162	163	2
140	142	1
156	157	1
95	128	1
158	159	1
99	107	2
167	168	1
135	136	2
53	55	1
130	131	1
111	111	2
105	108	2
108	126	1
66	68	1
115	116	1
108	109	3
121	123	1
50	51	3
44	49	1
81	82	1
92	136	1
2	10	1
86	131	1
92	135	1
114	122	1
110	112	3
56	62	3
78	87	3
162	164	2
108	125	3
6	109	1
122	125	1
146	147	1
58	58	1
69	71	1
20	23	1
12	113	1
94	96	1
18	104	1
3	7	1
18	24	1
43	111	1
103	112	1
36	38	1
158	158	2
11	113	1
106	108	1
99	125	1
91	145	1
15	131	1
85	86	1
163	165	1
89	130	1
145	149	1
9	10	1
5	8	1
