121	125	2
51	51	5
129	129	3
134	135	2
24	24	1
117	117	3
68	70	2
81	82	1
129	139	2
44	44	5
98	98	4
126	127	3
37	37	1
34	34	1
11	11	4
32	33	1
15	69	5
53	54	1
45	47	2
152	152	3
3	41	1
137	139	1
116	116	3
88	89	4
94	94	3
118	118	8
10	10	2
132	132	1
23	24	2
42	42	2
107	107	6
66	70	3
141	141	1
81	81	5
52	97	1
112	112	1
93	93	1
16	42	1
137	137	3
119	120	3
78	78	5
124	124	7
8	8	2
19	19	7
130	138	2
83	83	4
68	69	2
106	106	8
23	23	2
8	9	2
5	5	1
94	96	2
71	71	4
16	16	3
146	146	3
28	28	5
89	89	4
35	35	3
125	125	4
129	130	3
73	73	2
86	86	1
100	101	1
26	26	2
99	100	1
88	90	1
119	119	2
50	50	4
101	101	2
155	155	4
45	45	3
95	96	1
104	114	2
12	12	2
24	56	1
133	134	6
9	9	1
134	134	6
11	32	1
108	108	1
67	67	3
30	39	1
36	67	1
107	134	1
27	45	1
142	142	3
18	19	2
17	17	5
79	79	5
21	23	3
12	32	2
32	38	1
72	73	2
24	25	3
43	43	5
82	82	2
86	114	2
21	22	2
148	148	3
155	156	1
12	30	1
102	102	1
91	92	2
13	13	2
127	127	3
17	24	1
29	30	1
88	88	3
111	111	5
51	92	1
82	83	4
104	108	1
136	136	1
152	158	1
138	139	2
49	49	1
76	101	1
19	21	2
45	71	2
3	42	1
13	14	2
82	116	2
91	91	3
109	109	1
97	97	2
151	151	2
92	92	1
45	68	3
84	84	2
62	64	3
77	77	5
50	51	2
65	66	1
20	20	1
138	138	2
128	129	2
47	47	2
130	130	1
15	15	1
36	36	1
38	38	4
21	21	2
140	140	1
69	69	1
151	152	1
7	141	1
25	26	1
108	111	1
10	141	1
22	22	1
2	2	1
126	126	1
90	90	1
117	120	1
48	48	1
1	1	1
7	7	1
32	32	1
8	140	1
50	54	1
85	85	1
3	43	1
46	46	1
148	149	1
90	92	1
25	28	1
75	103	1
149	149	1
144	144	1
72	72	1
75	75	1
96	97	1
147	147	1
79	92	1
108	109	1
