56	56	2
73	74	7
24	25	3
66	68	1
37	37	10
84	84	3
79	92	2
103	104	3
48	48	6
99	100	11
40	40	10
26	27	3
22	22	9
109	109	9
23	23	1
32	33	5
45	45	10
19	109	3
29	30	3
50	50	3
77	85	3
47	48	2
100	100	6
105	105	6
23	56	1
82	82	10
103	106	2
70	73	4
114	115	2
79	79	3
78	111	4
39	39	7
54	54	8
41	41	7
96	96	5
60	84	1
73	73	6
43	44	2
63	63	5
51	51	10
64	65	3
34	35	3
42	42	5
96	97	1
25	25	2
46	46	6
40	41	2
36	99	1
35	35	5
56	57	5
83	83	5
55	55	2
78	78	11
36	36	9
110	110	3
112	112	5
99	99	2
44	45	7
42	114	2
76	87	4
44	44	5
32	34	2
37	39	1
38	38	7
33	76	1
93	94	4
26	26	8
28	28	10
60	65	2
49	49	3
23	25	2
102	109	3
104	104	7
55	58	1
24	53	1
41	44	1
61	61	3
36	37	5
43	45	2
97	97	1
81	89	3
65	67	1
21	21	6
100	111	1
104	105	3
76	76	4
74	75	3
31	36	1
31	93	1
53	54	1
58	59	8
35	36	5
77	77	2
57	58	7
67	109	2
79	86	2
77	81	2
36	68	2
91	91	6
72	72	3
27	28	3
21	73	1
85	85	3
92	92	7
100	101	2
55	78	3
81	82	1
48	49	1
75	75	2
68	68	2
88	88	3
82	109	3
99	101	1
94	94	5
27	27	4
64	75	1
114	114	1
52	92	1
113	113	6
87	100	5
49	108	2
50	52	1
30	81	1
57	57	2
105	106	3
37	38	1
106	106	2
29	29	5
37	99	4
64	107	1
101	101	3
21	93	1
26	30	2
22	25	2
62	62	3
103	110	3
46	111	1
39	43	1
74	82	1
87	87	1
82	100	2
60	60	6
55	57	1
36	108	1
99	113	3
84	86	1
47	47	1
32	32	1
36	50	2
21	54	3
72	93	3
101	103	2
53	53	2
47	50	1
82	83	4
54	55	6
31	111	1
31	31	3
36	45	4
58	58	2
22	23	2
52	52	3
98	99	2
94	95	1
59	59	6
103	105	1
30	30	6
37	43	2
102	102	2
89	111	1
86	100	1
87	88	2
65	78	1
52	53	3
77	80	1
64	64	1
90	91	1
93	93	2
111	111	2
69	69	2
43	43	1
89	91	1
58	60	1
92	111	2
51	53	1
103	111	1
36	90	1
68	70	1
22	92	2
23	26	3
107	107	1
78	79	1
101	102	1
76	77	1
54	56	1
66	66	1
95	95	2
92	105	1
49	72	1
20	21	1
46	98	1
108	108	1
70	93	1
89	89	1
20	20	1
39	42	1
80	80	1
32	98	1
55	56	1
28	84	1
70	70	1
