58	58	21
101	101	17
82	87	3
25	25	11
31	31	11
50	50	13
87	87	14
73	73	18
92	92	9
76	76	29
84	84	24
24	24	6
72	72	14
38	38	8
90	90	4
66	73	6
68	69	5
47	47	5
74	74	15
42	82	4
69	77	1
75	75	15
52	100	2
21	23	1
41	41	13
99	99	4
103	103	14
43	43	3
46	48	4
88	88	8
86	88	2
68	68	15
36	36	5
93	96	4
97	97	14
23	51	5
22	22	10
69	69	12
45	71	3
48	48	10
96	96	22
40	41	4
22	24	1
78	78	20
37	38	6
38	48	3
53	54	5
36	62	3
69	70	1
51	101	2
49	49	13
77	77	17
81	81	21
37	37	7
46	46	11
80	80	10
82	85	1
20	20	11
80	82	3
54	54	9
20	40	1
31	61	3
57	57	9
35	36	2
92	93	3
59	61	2
97	106	1
87	88	3
63	87	3
33	34	9
39	45	1
83	83	10
21	21	2
23	24	5
30	38	3
27	27	8
55	57	3
55	63	1
82	82	22
32	33	1
102	102	18
89	95	6
70	70	12
91	91	8
93	107	2
34	34	11
51	52	7
79	81	6
60	60	8
30	39	3
70	78	2
36	40	6
33	36	3
64	64	9
101	102	2
94	95	4
55	56	2
29	30	3
74	76	8
62	62	13
26	26	9
56	57	5
44	46	1
91	92	11
95	95	3
68	74	1
34	35	1
98	98	5
25	26	14
51	51	18
59	64	2
38	41	2
60	61	7
49	50	4
52	52	11
49	53	3
73	74	2
26	27	1
53	53	6
56	56	1
35	35	7
31	39	2
23	23	7
61	61	11
70	71	2
20	43	1
63	63	4
54	55	1
38	42	4
96	100	6
62	63	20
92	94	2
53	61	2
33	33	5
41	45	4
82	83	5
77	78	1
72	84	3
103	106	1
86	98	1
57	61	2
59	59	9
94	94	7
96	97	4
40	45	3
79	80	10
20	21	2
78	104	2
50	51	1
39	39	2
59	60	5
65	65	4
95	96	5
71	75	1
93	93	6
68	72	1
79	82	1
45	45	4
80	81	9
68	75	1
32	32	2
39	46	4
42	43	5
76	104	1
66	67	11
47	72	1
29	29	11
36	74	3
42	42	5
33	64	1
71	72	5
50	72	3
107	107	2
88	99	2
106	106	1
105	105	7
40	40	2
39	40	2
100	100	7
38	40	2
75	76	1
67	67	4
66	76	2
98	99	4
40	43	1
86	86	4
31	35	1
24	26	2
31	72	2
46	47	4
22	23	4
82	84	4
66	66	5
84	85	4
57	105	1
66	70	1
77	103	1
55	55	3
27	28	4
66	68	3
33	35	2
104	104	8
30	45	1
69	71	1
42	59	2
74	75	1
79	79	12
64	65	4
76	102	2
28	29	1
73	78	1
97	98	4
71	71	1
53	65	3
85	85	4
58	59	2
33	73	1
42	44	2
93	97	1
51	100	1
47	49	2
50	77	1
28	28	2
27	49	1
20	28	3
69	85	1
32	55	2
61	62	3
22	37	1
39	85	3
30	50	1
30	30	2
31	52	1
21	22	1
71	73	1
23	35	1
42	45	2
24	25	1
83	84	1
37	45	1
103	105	1
89	90	2
21	85	3
90	99	1
49	51	1
31	32	1
76	83	1
89	89	2
102	103	1
77	90	2
38	49	1
64	74	1
29	31	1
67	68	2
83	86	1
35	72	1
85	86	1
93	94	1
85	87	1
100	101	1
81	82	1
84	89	1
56	67	1
