89	91	3
55	56	4
94	94	9
23	23	12
38	38	5
51	51	19
39	40	3
26	27	7
100	100	6
58	58	9
80	80	4
25	25	5
66	66	14
42	44	3
96	96	12
103	103	8
20	21	2
79	80	2
28	44	1
98	98	18
28	29	6
49	60	2
34	35	2
81	81	3
66	67	13
103	104	8
33	33	15
64	64	10
60	67	1
22	22	14
72	72	7
32	34	3
77	77	4
71	71	6
98	99	2
20	20	5
33	96	1
104	104	7
50	91	2
46	46	3
59	59	16
60	60	10
68	68	15
86	86	21
24	24	24
71	72	2
69	69	4
27	27	14
50	50	5
53	53	11
91	92	2
59	98	1
52	53	4
34	34	3
99	99	12
86	98	5
53	59	1
83	84	3
106	106	8
46	47	1
60	65	3
102	102	11
72	73	1
35	35	8
25	38	1
85	86	5
61	62	9
82	82	6
35	90	1
37	86	1
50	102	2
21	21	17
73	85	1
57	57	11
79	88	2
28	28	7
26	26	4
90	91	2
92	92	4
101	101	5
49	49	5
48	49	2
51	64	5
88	88	10
51	52	6
97	97	6
81	89	4
37	37	4
44	44	9
40	41	5
36	37	6
20	29	3
75	75	7
65	65	13
30	37	3
70	70	14
42	45	2
90	90	7
70	73	1
31	31	8
22	23	7
62	62	13
79	79	7
29	30	5
36	36	9
36	39	4
87	87	2
68	82	2
20	70	5
24	25	1
37	38	7
56	56	17
25	98	8
61	61	3
93	93	2
81	82	2
50	51	5
30	30	9
64	65	6
67	67	4
47	48	9
40	40	4
94	101	4
74	74	6
85	85	2
78	78	11
86	87	2
46	106	2
63	63	3
55	55	8
48	48	4
56	57	4
92	101	3
67	93	1
83	83	5
47	47	8
95	95	3
22	81	1
99	100	1
33	34	2
67	69	8
32	32	6
55	61	1
67	84	2
43	43	5
107	107	1
31	74	2
31	36	3
45	46	8
76	77	2
91	91	8
57	58	3
95	96	4
74	75	2
83	85	5
75	76	3
77	82	2
35	36	2
52	65	1
77	106	2
89	89	6
78	93	4
32	52	1
22	98	3
91	93	1
46	51	1
54	83	2
38	39	4
37	46	1
75	90	4
61	97	2
97	98	1
39	73	1
76	76	5
69	96	1
67	68	8
100	101	1
96	97	2
42	42	3
20	25	2
52	52	2
29	88	1
65	89	2
29	29	1
69	91	2
53	67	1
76	96	1
60	61	3
106	107	4
39	39	5
32	35	2
52	71	2
34	82	1
31	32	2
41	41	1
35	39	1
83	87	3
97	104	2
53	58	2
105	105	6
26	36	1
101	102	3
69	94	2
63	64	2
89	90	2
50	92	1
84	84	2
96	102	3
23	30	1
78	79	4
84	85	3
65	68	1
53	55	1
35	68	1
73	74	1
48	50	2
20	40	1
87	88	1
55	64	1
70	72	1
54	59	2
51	63	2
26	30	1
62	64	1
82	86	1
70	71	3
23	24	1
68	84	1
32	103	1
41	44	1
94	104	1
82	83	1
41	81	2
59	60	1
42	43	2
82	97	1
37	47	1
66	87	1
54	54	2
65	85	2
30	72	1
42	63	1
21	24	1
78	80	1
22	46	1
30	57	1
97	99	2
