45	45	5
77	118	6
5	6	2
73	73	9
108	108	3
12	13	6
64	64	10
115	115	8
124	124	5
15	16	3
122	123	1
106	106	6
96	96	4
121	121	14
36	37	2
97	97	8
74	74	8
35	35	14
88	89	2
21	21	10
133	133	7
51	52	3
77	117	6
125	125	2
101	101	4
70	74	2
116	116	7
94	94	2
123	123	18
112	112	6
75	75	8
82	84	3
50	71	2
78	117	2
12	12	6
62	62	6
86	86	5
79	82	4
34	34	6
11	11	6
61	61	4
59	73	1
50	50	8
63	64	5
131	131	2
77	77	3
128	132	1
79	119	2
132	133	9
6	6	6
91	92	7
95	95	6
27	27	9
129	133	3
59	61	3
58	119	3
13	13	6
106	107	1
102	102	5
26	26	9
109	109	8
10	11	2
29	36	7
114	114	11
17	17	8
118	118	3
98	99	1
105	105	5
4	4	1
91	91	2
71	71	10
28	28	5
22	23	1
43	43	4
111	111	3
129	131	2
50	69	5
111	112	5
2	2	3
24	25	1
6	12	6
21	25	1
42	49	2
120	120	10
72	73	5
36	36	7
101	102	4
126	126	9
0	0	6
72	72	2
81	81	7
0	1	3
97	98	4
134	134	3
67	67	5
22	22	7
21	23	1
42	42	1
109	111	1
75	80	3
59	68	1
91	120	3
69	69	1
24	24	4
88	103	3
46	46	3
49	49	1
16	16	1
76	76	6
56	56	5
29	29	4
10	10	9
126	127	5
119	120	3
9	11	2
102	103	6
90	90	8
71	74	6
32	32	15
28	29	2
25	25	3
30	46	1
107	107	2
88	88	3
8	10	4
84	84	5
29	35	3
94	95	1
19	25	2
87	87	1
8	8	2
3	4	3
47	53	2
122	122	4
89	96	1
87	90	3
113	113	5
6	43	2
70	71	8
83	120	2
83	83	1
78	78	5
15	15	4
119	119	2
58	122	2
110	110	2
54	54	8
56	116	3
55	56	3
82	83	3
59	59	3
80	80	2
104	104	3
14	14	6
103	103	4
79	79	5
126	133	2
60	60	4
65	67	5
93	93	3
30	34	1
102	115	1
30	30	1
57	57	2
70	70	3
79	84	4
88	121	4
47	47	3
3	3	3
33	34	6
67	68	2
128	128	3
115	116	1
22	34	1
88	118	6
87	118	1
63	63	5
112	114	3
52	52	3
23	23	4
9	10	4
33	33	3
72	97	1
127	127	1
92	107	1
58	58	2
106	121	2
130	130	5
102	104	2
92	105	1
60	61	1
77	86	1
66	67	1
8	9	1
47	51	1
7	7	2
2	63	1
65	65	2
44	45	1
56	114	1
55	55	4
92	93	2
85	86	2
48	48	3
99	99	3
66	66	3
19	26	1
76	116	2
44	50	2
16	24	1
5	5	3
71	72	2
1	1	4
86	120	3
16	17	1
129	129	3
64	65	2
125	126	2
82	82	1
27	28	10
22	36	1
73	74	1
128	129	1
19	20	2
8	20	1
89	90	1
23	37	1
54	115	2
134	135	1
83	119	4
114	116	1
22	30	3
85	85	2
37	37	2
82	85	2
9	26	1
110	118	1
100	100	1
80	81	1
35	43	1
15	24	1
45	53	1
108	110	1
103	104	1
95	96	1
31	31	1
19	28	1
78	79	1
88	120	1
17	18	1
