67	74	2
180	180	4
167	167	2
95	111	1
32	139	4
104	105	1
103	122	2
29	40	2
31	189	1
22	237	2
119	126	2
61	62	4
26	26	6
104	104	2
175	176	1
133	133	5
238	238	5
128	128	2
86	140	3
213	221	2
121	121	7
57	57	1
155	210	4
151	151	5
119	119	5
187	187	1
86	87	1
146	146	9
184	185	4
138	146	2
82	82	3
30	31	1
123	125	4
152	152	6
4	6	3
236	236	6
37	49	2
23	23	1
89	89	3
120	120	1
19	208	1
170	170	2
210	210	4
75	151	4
150	170	4
143	143	5
59	59	1
234	234	1
25	232	1
47	134	3
9	9	2
69	71	1
34	130	3
4	4	2
31	31	6
44	44	3
83	83	5
187	189	3
154	154	2
63	63	1
237	237	3
116	116	2
17	17	4
4	71	2
40	40	1
21	23	5
229	229	5
157	159	1
66	66	2
154	219	3
130	130	5
209	231	10
192	193	3
189	189	8
25	240	3
8	8	4
96	99	1
163	171	3
14	56	2
124	124	8
47	47	8
134	135	5
227	231	1
213	214	2
207	207	1
60	60	3
42	42	6
11	56	2
185	185	4
153	154	4
38	38	3
3	56	2
82	85	1
73	73	1
63	64	1
181	190	1
179	179	6
188	188	1
101	126	2
209	214	4
172	172	3
36	38	5
136	136	2
148	177	4
103	108	3
56	198	2
34	35	3
219	219	2
183	183	3
44	45	3
194	195	1
184	184	3
214	217	2
235	235	6
109	109	4
64	64	1
13	13	3
124	125	2
156	156	5
46	47	3
179	191	1
52	52	4
68	68	2
5	6	5
212	212	6
1	4	1
160	160	1
164	164	1
88	88	1
35	131	2
46	128	1
175	175	3
2	60	2
208	218	3
161	161	1
157	157	3
2	2	4
13	57	2
105	105	8
173	173	3
182	184	1
11	14	2
70	70	3
10	10	2
7	7	2
209	216	3
232	232	9
104	125	3
178	178	3
84	84	2
199	200	2
224	224	7
143	151	1
235	240	4
107	108	2
174	174	4
45	85	3
54	54	1
86	86	3
222	222	5
143	147	3
163	163	3
126	126	1
48	136	3
20	20	2
35	46	1
217	218	1
216	216	6
39	49	5
77	77	3
0	0	3
168	168	1
162	162	3
236	238	3
48	48	4
170	171	3
212	227	3
217	217	3
13	14	1
50	50	3
115	115	1
144	152	2
30	40	2
125	125	9
220	221	2
180	192	2
98	98	7
193	195	4
62	62	1
137	137	4
61	67	3
31	197	3
159	159	6
192	192	3
213	213	4
161	175	1
163	174	1
22	22	3
194	197	5
24	159	1
80	80	4
7	78	1
56	57	1
75	75	1
221	221	1
55	55	1
170	203	1
129	129	2
144	147	1
37	37	5
42	85	2
22	153	1
75	159	3
50	51	4
21	22	1
205	205	3
240	240	2
1	16	2
3	43	3
140	141	1
141	141	4
114	114	2
65	79	1
147	148	1
29	30	1
227	227	5
72	72	2
51	51	1
169	176	4
234	235	1
233	233	2
7	8	1
70	83	1
198	198	5
34	129	2
39	39	1
102	102	6
122	122	1
40	41	2
187	193	1
190	190	1
144	145	1
174	175	3
33	33	4
165	166	1
97	101	2
103	103	2
225	225	3
41	191	1
233	236	1
166	169	2
113	113	2
127	127	3
14	15	1
187	188	2
131	134	1
7	9	1
9	61	2
49	49	3
2	21	1
165	165	2
118	118	2
142	142	1
64	65	2
142	230	1
102	120	1
41	41	2
113	114	2
213	223	1
164	242	2
226	226	2
23	156	1
24	24	1
36	36	2
4	5	1
23	65	1
46	46	1
241	241	2
30	197	1
102	123	1
138	138	1
67	151	1
76	152	1
224	233	3
160	176	1
209	209	1
15	17	1
66	156	3
1	22	1
238	241	1
158	158	2
2	7	1
163	176	1
153	156	2
15	15	1
2	4	1
109	119	2
28	55	2
228	228	2
40	136	1
228	229	2
28	29	1
107	107	1
112	112	1
210	215	1
149	149	1
206	206	1
38	128	1
239	239	1
101	102	1
71	71	1
85	85	1
69	69	1
4	8	1
194	194	1
242	242	2
182	192	1
43	79	1
0	1	1
150	203	1
0	14	1
203	203	1
77	78	1
10	11	1
151	152	1
25	238	1
