116	116	8
3	4	6
132	132	7
69	69	9
14	14	2
9	9	6
124	124	4
81	81	11
34	34	2
123	124	2
101	103	2
97	109	5
129	129	5
18	18	3
146	147	3
83	83	8
62	62	10
111	138	4
39	40	6
11	122	8
13	48	1
36	36	9
107	107	7
56	56	6
96	96	4
119	124	3
69	76	4
38	38	7
13	13	11
134	151	1
71	71	6
136	136	7
135	135	5
106	107	3
16	16	9
66	67	2
9	121	1
140	140	1
101	101	3
85	86	7
117	117	9
106	106	16
45	45	9
120	123	3
20	21	1
126	151	5
123	123	3
114	114	6
154	154	10
121	121	3
7	7	4
72	73	2
46	46	16
86	86	4
153	153	4
142	142	2
63	63	5
17	18	7
41	43	3
70	70	12
119	119	7
8	35	1
53	53	14
29	29	6
73	73	5
105	106	1
113	114	3
145	151	4
145	146	4
67	121	5
69	70	2
140	142	4
43	43	5
33	33	1
78	78	5
51	51	3
39	39	6
72	72	10
125	141	1
40	40	14
144	144	5
139	139	4
132	133	1
21	21	5
104	104	3
101	102	1
151	151	1
120	121	2
128	128	11
42	45	1
105	108	4
95	115	3
27	30	6
3	19	1
122	122	2
74	79	2
117	130	4
94	100	3
118	118	14
111	111	8
17	30	3
118	131	1
147	148	3
149	149	6
67	67	4
76	76	7
42	42	1
64	64	7
147	150	3
7	126	1
23	23	4
112	112	1
13	47	2
147	147	2
53	54	2
6	7	5
48	48	6
31	34	3
30	30	4
133	135	1
66	66	2
98	108	1
79	79	4
87	87	5
27	29	2
113	113	5
87	88	5
110	110	2
114	131	2
24	24	4
92	92	3
124	134	3
99	100	2
57	64	2
120	120	2
30	33	2
9	36	3
5	5	2
133	133	12
122	123	8
110	114	4
107	111	1
47	47	1
21	22	2
19	21	1
14	39	2
26	26	1
129	130	2
141	141	3
109	109	6
93	94	8
46	48	3
24	43	2
143	143	1
108	108	7
149	150	3
125	135	5
31	31	1
136	137	1
44	46	1
16	17	3
10	41	2
116	130	3
16	28	1
142	144	1
148	149	2
4	4	4
99	99	2
88	88	3
100	100	5
95	116	1
98	98	2
20	20	5
17	17	2
54	54	3
107	108	4
32	32	2
26	27	1
12	12	2
74	74	4
94	130	3
22	22	6
19	19	4
28	28	3
143	146	1
126	126	2
67	68	1
142	143	2
27	28	1
131	132	2
3	6	1
134	135	2
17	31	2
150	151	1
76	77	3
19	20	3
92	93	2
94	94	2
85	87	2
102	103	2
146	146	6
50	50	10
46	49	1
96	131	1
84	84	5
80	80	1
37	37	3
5	33	3
42	43	1
82	82	2
38	39	1
25	25	1
12	41	4
141	145	1
44	68	1
9	11	1
44	44	5
69	80	2
152	152	3
9	12	1
90	100	3
97	97	1
116	129	1
95	117	2
68	68	4
44	70	1
134	145	1
145	147	1
11	11	4
13	38	1
129	134	1
104	116	2
136	139	2
137	137	1
121	122	2
26	31	1
10	10	1
75	79	1
96	108	2
130	130	3
124	135	1
82	83	1
104	130	1
150	150	1
65	65	1
103	123	2
68	69	2
6	6	1
127	151	1
43	61	3
115	115	1
41	41	1
141	142	3
30	32	1
57	65	1
15	39	1
68	80	1
8	8	1
124	128	1
96	97	1
30	37	1
79	80	1
28	29	2
15	15	1
86	87	1
20	22	1
80	81	1
15	16	1
55	56	1
11	121	1
138	138	1
