4	19	3
8	8	7
85	85	3
73	74	3
34	34	10
15	15	2
93	94	1
101	102	5
2	2	5
100	100	5
73	73	12
123	124	6
127	127	11
3	3	4
18	18	10
73	106	1
107	107	14
14	14	9
3	4	3
8	27	2
19	19	10
32	32	3
77	79	3
121	121	2
7	23	6
136	136	11
90	90	7
5	5	10
7	37	2
102	102	8
129	129	7
25	25	8
11	12	2
104	104	3
5	6	6
77	78	3
135	135	4
35	35	10
83	117	2
0	14	3
115	115	6
35	97	1
0	0	4
116	116	3
1	1	6
125	125	7
0	33	1
78	79	4
132	132	12
82	82	3
79	123	8
8	9	3
20	20	1
98	98	13
118	119	3
137	137	3
22	23	3
21	21	8
125	127	3
10	10	3
128	128	9
14	32	4
138	138	5
71	71	3
4	5	4
4	8	6
23	24	4
32	90	1
30	31	3
86	86	10
16	16	2
112	112	13
107	114	5
109	109	4
28	30	2
88	88	4
115	116	3
92	113	3
105	111	1
85	86	3
4	36	2
75	75	10
109	110	8
133	133	4
124	124	11
76	77	2
1	24	1
77	77	5
23	23	1
95	95	4
97	101	1
29	29	2
5	21	2
120	120	4
85	118	3
3	7	2
84	118	4
90	117	2
96	116	3
1	100	4
130	130	7
3	20	3
103	103	10
96	96	4
24	25	4
113	113	2
4	4	1
105	106	8
91	91	4
119	119	4
114	114	5
89	89	1
77	81	3
38	38	4
76	76	1
108	108	4
6	7	3
120	121	1
72	72	5
7	7	4
74	74	3
6	6	4
26	26	5
1	2	4
122	122	2
125	126	7
97	98	5
13	13	4
78	78	3
126	126	7
121	122	1
18	19	5
23	25	2
24	24	2
86	87	5
29	113	1
129	130	2
30	30	4
117	117	7
31	31	3
27	27	6
87	87	4
131	132	2
74	75	2
118	120	3
98	99	1
91	92	2
127	129	2
21	22	1
33	36	1
96	100	1
31	91	1
79	79	3
94	94	3
37	37	9
134	134	10
139	139	6
37	38	1
103	113	4
140	140	2
85	87	1
101	119	1
102	103	1
79	80	2
19	31	1
84	84	2
12	13	1
124	132	6
22	27	1
25	27	3
99	99	1
9	9	5
2	3	4
81	81	3
12	20	1
28	32	1
16	18	1
136	138	1
113	121	5
123	123	1
101	101	2
17	17	2
1	101	1
86	122	3
111	111	2
119	131	1
2	4	3
74	107	1
124	125	3
31	32	2
131	131	1
83	101	1
26	28	1
6	21	1
2	21	1
118	121	1
12	12	1
36	36	4
127	128	1
107	108	1
22	22	1
84	89	1
106	106	1
5	10	1
116	117	1
120	122	1
