77	77	3
57	57	6
96	96	6
109	110	1
148	150	3
18	18	7
87	87	3
5	159	1
167	180	2
60	61	6
36	36	15
94	95	7
123	123	4
29	30	5
157	158	2
189	189	4
166	166	5
171	171	3
185	185	7
150	150	11
65	67	6
66	74	1
39	39	4
62	62	4
109	109	8
39	40	5
186	186	2
84	89	3
188	188	5
145	145	7
88	88	5
85	85	2
188	189	8
3	4	2
40	41	6
142	143	4
143	144	4
26	26	2
14	46	6
171	173	1
155	156	1
141	142	2
160	163	5
68	69	3
76	92	2
2	2	2
22	23	6
180	180	4
73	73	6
179	179	3
170	170	2
159	165	3
71	71	4
117	118	1
163	163	7
63	63	8
5	5	6
76	76	11
116	116	6
83	83	4
38	39	1
89	89	3
123	125	1
152	153	1
118	118	2
122	148	3
75	75	5
70	70	2
122	122	5
121	121	4
176	176	1
157	165	2
120	120	4
81	81	7
122	123	1
142	142	7
141	165	4
6	6	7
187	187	9
149	149	3
21	48	4
82	82	5
174	174	10
25	26	3
85	86	3
169	174	2
37	37	4
118	121	2
136	136	3
84	84	3
80	80	3
94	94	4
125	125	1
145	169	1
171	172	2
22	22	6
98	98	4
138	139	1
13	13	7
182	183	3
74	74	3
169	170	3
41	41	6
101	101	6
131	133	2
15	17	2
164	164	4
104	104	2
154	154	2
91	93	1
7	42	1
162	164	1
146	146	3
177	178	2
113	113	6
68	109	2
90	91	1
99	99	2
106	160	4
87	88	1
159	159	6
180	181	2
55	55	4
95	95	4
10	10	3
73	98	6
91	92	2
0	0	7
129	129	5
55	76	3
24	24	4
40	40	7
61	61	4
68	68	5
77	79	1
67	67	2
72	72	6
100	100	4
23	23	3
144	144	3
8	8	3
111	112	3
24	26	1
168	170	2
96	98	1
95	96	3
163	164	4
179	187	1
164	165	2
105	106	1
87	91	1
35	35	8
86	91	1
65	68	3
148	148	1
43	43	6
22	37	3
159	160	2
169	169	4
5	7	1
28	28	4
127	139	1
75	93	5
14	15	1
115	115	4
97	97	2
27	27	3
9	13	1
73	99	2
27	34	1
76	91	1
13	14	2
19	20	1
162	163	2
147	147	4
29	29	8
58	59	1
110	110	3
17	17	1
157	157	1
90	90	2
55	62	1
78	113	1
16	16	2
178	184	1
143	143	4
108	109	4
18	37	1
178	178	2
139	139	1
11	45	1
130	132	1
102	104	2
44	44	3
65	65	3
25	25	4
137	137	2
1	1	3
160	160	2
56	56	1
140	140	2
151	151	3
126	126	1
66	66	4
64	64	2
145	170	1
7	7	1
112	112	2
53	53	5
128	128	2
141	141	2
58	58	2
179	180	1
101	102	1
173	173	1
103	104	2
19	19	2
72	73	2
185	186	1
47	48	4
98	100	2
79	82	2
93	93	3
162	162	1
92	92	4
5	6	1
17	28	1
133	133	1
95	122	3
99	103	1
145	171	1
183	184	4
82	83	1
167	167	2
103	103	2
3	3	1
153	153	1
138	138	2
116	121	2
131	131	5
43	45	1
141	164	1
119	125	1
140	144	1
38	38	1
7	41	3
117	134	1
32	33	2
132	132	1
178	183	1
108	108	1
117	117	1
10	11	1
183	183	1
89	91	1
135	135	1
155	155	1
174	175	1
53	54	2
56	62	2
79	79	2
14	14	1
147	155	1
114	114	1
54	55	1
77	111	2
103	105	2
10	45	1
107	108	1
177	177	1
32	32	1
26	36	2
160	161	1
186	187	1
172	172	1
130	130	1
58	60	1
99	100	1
140	141	1
60	60	1
95	123	1
170	186	1
126	127	1
