65	65	5
156	158	2
106	111	4
190	190	7
111	113	2
179	179	7
58	58	11
2	123	2
4	4	7
100	105	2
172	172	4
6	6	8
57	57	9
17	17	1
31	31	4
48	48	4
121	121	6
153	153	8
29	29	6
151	151	17
66	190	1
136	137	4
157	157	7
5	13	4
15	16	5
136	136	12
92	93	4
94	94	10
180	180	6
156	156	2
148	149	7
117	117	5
164	164	7
88	88	9
87	177	2
152	152	6
86	87	3
58	189	1
26	26	12
74	74	8
99	100	5
152	153	4
81	81	7
188	188	3
46	47	2
88	89	7
80	80	6
27	27	5
70	70	9
177	187	2
13	26	4
105	105	6
24	25	13
184	185	4
52	53	2
159	159	4
118	118	3
25	25	13
71	71	14
127	128	7
116	117	1
84	84	3
14	14	7
113	114	1
52	52	5
148	148	15
166	168	2
114	114	6
56	57	5
44	44	4
157	158	1
53	55	1
37	38	3
24	24	5
123	123	7
40	40	3
106	106	4
77	77	3
42	159	3
106	107	3
35	35	6
184	184	6
93	93	5
29	30	7
13	13	14
150	150	9
152	155	3
174	174	5
99	99	6
28	29	5
99	103	4
126	126	5
36	36	5
130	131	3
165	165	3
20	20	6
75	76	3
63	63	4
149	154	3
145	145	5
79	79	5
71	73	4
74	76	1
66	66	5
73	73	10
46	46	7
74	142	1
142	142	9
139	145	2
90	185	1
60	145	6
16	16	8
114	136	2
53	53	8
107	107	2
45	159	1
113	113	15
91	92	3
137	137	6
62	63	7
55	56	4
56	56	8
155	156	3
182	183	6
7	7	2
71	118	3
58	182	4
108	168	6
18	18	10
162	163	4
20	21	3
168	168	7
26	31	1
1	39	3
66	176	3
2	3	4
54	54	3
53	54	3
45	94	5
183	183	2
63	145	1
28	28	13
26	27	5
108	112	2
71	72	9
16	26	4
55	110	2
176	176	8
147	147	8
60	60	6
41	44	3
86	188	2
41	41	9
27	28	1
17	25	3
0	8	1
22	24	4
147	148	5
185	186	3
87	87	2
5	5	4
58	148	3
64	64	11
131	132	1
58	150	1
57	58	3
75	75	2
97	97	3
128	128	9
98	98	7
22	28	1
38	39	4
33	100	1
72	72	5
74	117	3
55	81	2
119	120	3
124	124	5
95	95	9
61	61	7
108	109	1
58	74	5
57	88	3
108	165	3
187	187	9
104	104	9
59	142	2
132	133	7
178	178	10
116	116	3
15	38	4
11	11	5
12	13	5
112	112	9
3	3	5
22	37	2
107	108	3
8	9	3
161	161	10
60	180	2
71	82	10
148	152	2
154	155	4
148	150	2
103	103	13
113	137	1
22	22	10
14	16	3
169	169	6
167	167	7
59	143	4
93	94	2
134	134	4
181	181	3
85	85	4
106	139	2
182	182	3
18	20	1
177	179	2
89	89	10
33	34	5
45	46	2
140	140	5
175	175	4
126	165	3
35	36	1
42	42	3
8	42	3
59	59	2
78	78	6
141	141	4
186	186	4
1	1	2
2	2	8
91	108	2
172	179	3
91	171	1
82	86	1
38	95	1
6	7	8
60	182	1
21	37	1
60	64	4
23	23	2
75	79	2
76	92	3
154	154	4
166	166	6
163	163	6
143	143	4
169	172	2
15	15	2
105	106	3
139	140	7
55	79	1
138	138	7
122	122	6
127	135	3
39	95	1
27	30	1
92	94	1
15	26	2
25	26	1
134	135	1
36	42	1
78	125	1
54	55	3
135	135	5
13	14	3
11	31	2
68	140	2
60	74	1
68	163	1
10	15	4
129	133	1
39	40	2
149	149	5
140	159	4
108	126	1
134	145	2
77	88	7
30	30	1
55	55	4
16	17	2
147	150	2
101	101	4
82	82	3
39	39	7
171	171	4
83	84	2
184	187	2
160	161	6
15	27	2
164	165	2
137	138	2
96	96	2
160	160	2
58	188	1
41	42	3
91	91	6
82	83	2
122	123	2
10	10	4
100	100	4
164	174	1
120	121	1
188	189	4
129	140	1
58	146	2
91	99	2
17	26	3
185	187	1
7	10	2
126	129	1
125	125	4
171	172	2
95	98	1
38	38	2
62	62	6
71	86	2
108	108	1
83	85	2
58	59	3
132	135	1
29	74	1
63	118	1
140	164	4
15	42	2
131	131	5
147	149	2
96	97	3
0	0	6
76	148	3
11	23	2
25	42	1
76	155	1
78	86	1
64	118	1
102	102	4
111	111	5
67	143	2
82	85	3
120	120	3
132	146	1
139	142	1
101	102	2
164	169	1
79	86	2
59	63	2
84	85	3
169	173	2
77	125	1
122	124	2
44	156	1
74	80	1
8	8	2
173	174	1
34	34	5
43	43	1
78	162	2
97	98	4
126	127	2
115	115	5
31	33	3
82	110	1
92	92	6
127	127	2
66	67	2
133	133	9
4	13	2
73	162	2
4	5	1
66	68	1
149	150	2
47	161	2
59	68	3
170	170	2
70	156	2
67	186	1
32	32	3
123	167	1
1	2	2
80	87	2
158	158	2
57	148	1
108	166	1
141	142	5
12	12	3
180	187	1
37	37	2
112	113	1
67	67	2
84	119	4
69	162	2
13	37	1
42	44	1
165	176	1
91	94	3
169	175	2
30	42	1
91	104	2
33	33	5
30	115	2
19	20	2
80	92	2
109	123	2
174	175	1
60	61	1
132	132	1
144	145	1
14	15	1
47	47	2
19	19	3
45	45	1
90	90	3
102	103	4
129	129	2
189	189	3
130	130	1
13	30	1
64	70	1
55	111	1
10	17	1
81	82	1
172	173	2
173	175	1
68	68	2
114	125	2
6	31	2
77	78	1
47	48	1
187	188	1
72	73	2
143	145	1
146	148	1
179	180	2
109	112	1
155	155	1
3	4	2
16	27	1
123	124	2
171	173	2
173	173	2
0	31	1
161	162	1
72	120	2
78	79	1
13	31	3
69	70	2
86	86	1
10	43	1
146	147	1
32	34	1
125	126	3
13	41	1
99	105	1
19	21	2
178	180	1
76	76	1
185	189	1
151	157	1
43	45	1
7	8	1
171	178	1
107	164	1
0	3	1
36	37	1
144	146	1
129	137	1
139	139	1
33	109	1
106	131	1
127	149	1
