240	241	2
34	34	5
84	84	7
175	197	2
239	247	2
187	231	7
177	177	9
78	90	2
158	158	10
227	228	3
152	152	8
87	90	3
77	78	8
52	52	5
172	172	2
61	62	4
92	92	5
205	205	3
38	38	8
189	189	6
107	108	8
73	73	9
20	22	6
47	47	5
32	52	1
177	178	3
180	180	4
182	182	10
112	112	4
180	181	7
68	69	2
36	36	10
4	37	4
109	115	1
5	5	5
230	230	3
66	66	3
240	240	8
203	203	5
64	75	2
44	44	2
48	49	2
170	170	3
39	50	4
56	56	7
118	118	9
204	205	5
156	156	11
72	90	2
190	222	5
159	181	4
91	91	3
165	165	3
186	190	6
74	75	4
47	49	2
212	237	2
186	186	9
113	121	4
116	121	3
176	177	2
176	176	8
96	98	7
6	6	2
71	71	4
220	220	6
222	227	1
182	184	3
24	24	5
92	98	8
64	64	1
81	81	2
214	214	6
84	86	8
206	206	2
31	31	17
10	10	6
6	7	4
183	183	3
116	116	3
16	16	6
166	166	7
247	247	1
7	7	7
144	153	5
65	65	10
94	94	2
191	191	15
9	10	5
214	221	2
61	61	6
160	160	5
39	39	8
153	153	3
77	77	2
246	247	2
111	112	4
109	109	2
200	200	2
97	99	2
158	159	2
190	190	6
9	9	7
12	54	1
43	44	5
175	175	2
62	62	5
50	58	3
186	188	4
5	34	1
82	82	5
243	243	1
2	150	4
1	1	4
60	62	3
224	224	3
72	72	3
42	53	1
10	38	9
52	200	1
187	187	5
217	217	5
238	238	2
154	154	7
171	171	4
0	0	2
219	219	6
3	3	2
223	223	2
8	16	4
6	15	3
154	204	1
99	100	1
194	194	5
54	54	12
230	231	2
57	57	4
102	102	4
210	211	3
184	184	6
204	204	6
100	100	3
104	104	1
185	221	3
76	76	7
51	51	4
90	90	3
222	234	1
246	246	3
209	209	12
245	246	8
43	43	2
107	120	2
35	235	2
212	213	2
232	232	4
185	196	1
85	85	4
49	49	9
90	91	2
221	222	6
198	199	4
42	45	1
79	80	3
210	210	3
74	74	7
50	50	5
83	83	4
48	48	7
177	191	2
19	19	4
86	86	7
155	155	2
147	157	1
97	97	10
56	107	2
216	216	2
201	201	3
163	163	2
72	89	4
191	210	2
94	200	1
20	20	1
224	226	2
227	227	3
221	221	4
153	158	3
45	45	4
115	115	7
86	98	3
216	217	3
187	220	2
159	159	5
103	103	5
12	56	1
22	22	7
58	76	3
244	244	6
172	175	1
95	95	6
52	53	2
91	92	3
91	94	3
8	8	7
230	237	2
192	211	1
151	151	7
161	161	6
114	114	3
50	59	7
110	110	5
10	62	1
155	160	2
174	174	6
17	17	1
46	46	7
77	79	2
179	180	2
78	78	4
226	226	3
231	232	2
111	111	4
226	227	4
27	27	7
214	242	1
58	58	2
169	172	3
81	84	3
33	33	8
196	196	4
41	41	4
247	249	2
89	89	1
75	75	6
104	108	1
241	241	1
232	233	4
49	50	2
5	18	2
32	33	4
197	225	3
223	234	5
207	207	5
79	79	4
21	21	3
245	245	2
181	181	1
89	199	3
14	15	1
200	202	2
199	199	2
168	168	3
10	53	1
4	4	4
57	58	2
187	224	1
86	97	1
218	219	1
64	65	2
157	157	3
59	60	4
107	107	3
177	185	4
5	14	5
224	225	4
213	221	4
214	219	3
242	242	3
215	215	2
60	60	4
198	198	4
221	234	1
98	98	6
114	118	2
103	199	2
105	106	1
192	192	2
237	237	1
73	74	1
201	202	2
228	235	1
76	78	1
11	15	3
197	197	4
70	71	3
185	244	2
120	120	11
36	39	3
234	234	3
145	145	3
15	15	3
88	92	2
88	88	1
26	26	4
55	55	4
188	189	2
3	37	2
67	67	2
9	201	3
101	101	2
26	46	1
47	73	2
14	14	1
242	243	1
159	165	2
161	162	1
78	83	2
182	244	1
51	54	1
185	222	3
171	186	1
150	150	2
80	80	2
70	70	3
241	247	1
168	186	2
243	244	1
214	215	1
18	150	1
154	160	2
51	52	1
233	233	4
94	98	4
96	96	4
229	229	1
113	113	2
26	32	6
119	119	1
32	32	1
168	178	2
213	213	1
58	59	1
78	79	1
158	214	3
169	169	1
207	208	1
218	229	4
183	227	1
171	172	1
239	239	1
154	206	1
11	11	1
64	66	1
54	95	1
5	248	1
234	235	1
221	229	1
211	212	2
193	193	2
76	80	4
234	236	1
203	204	1
63	63	3
23	24	2
218	231	1
231	233	3
236	241	1
173	174	4
81	92	2
230	234	4
189	192	2
164	165	1
86	99	1
228	228	4
18	67	1
87	98	2
4	11	1
12	12	1
218	218	3
152	153	1
167	167	3
175	177	1
76	77	3
63	76	1
25	26	2
116	117	1
33	40	3
145	151	1
217	239	1
173	173	1
63	78	1
208	208	1
56	194	1
146	146	1
216	218	1
19	35	1
178	178	3
9	40	1
213	242	1
236	236	2
185	236	1
207	217	1
89	107	2
20	236	1
47	56	1
151	177	3
249	249	1
12	34	1
197	198	3
16	27	1
155	156	2
56	193	1
162	162	1
37	37	1
172	177	1
162	164	1
55	107	1
212	212	1
29	29	1
10	11	2
89	104	1
208	226	1
170	195	1
206	214	2
35	38	1
239	246	1
30	30	1
60	61	1
181	182	1
108	108	1
