101	101	8
33	33	2
10	10	5
122	122	3
114	114	6
23	102	3
71	71	3
152	152	10
159	159	6
11	64	1
105	105	2
16	16	2
8	8	4
144	144	2
25	25	1
16	17	2
161	161	3
155	157	2
146	146	1
14	102	4
118	119	5
70	71	8
95	95	2
48	48	1
54	55	4
44	45	4
70	70	3
46	46	2
7	7	5
89	89	2
120	120	4
62	62	2
134	161	2
108	109	2
34	35	2
140	140	1
11	12	6
79	80	5
125	126	2
38	38	3
127	127	8
126	126	3
128	149	2
87	87	1
6	6	1
10	11	4
115	115	5
143	143	4
52	52	8
93	146	1
130	130	3
100	103	1
138	139	3
134	134	1
138	138	4
165	165	4
12	13	2
26	26	1
86	86	5
114	115	3
152	153	3
168	169	6
161	162	3
148	148	4
77	77	4
4	4	4
37	37	9
26	71	2
1	1	2
133	133	4
22	22	2
112	112	1
128	129	6
149	149	4
46	47	2
123	123	2
75	75	1
139	139	1
93	94	3
15	15	4
40	40	3
113	113	10
100	100	1
135	136	2
71	72	5
81	81	4
69	69	4
111	112	2
17	17	6
168	168	8
27	27	4
64	88	1
79	79	5
112	115	2
124	124	7
135	135	3
151	151	2
42	42	1
139	141	1
102	102	6
142	142	3
82	86	1
41	41	2
57	57	3
45	45	4
12	15	2
106	146	1
35	35	3
145	145	7
133	134	3
91	144	1
8	10	2
13	14	1
164	164	1
66	66	3
95	96	1
164	165	1
66	72	2
13	13	2
106	107	3
7	25	1
47	78	2
106	106	4
166	167	2
23	24	1
95	97	2
88	88	5
122	130	2
50	51	1
19	19	1
163	163	1
48	54	1
24	24	1
82	82	3
98	98	4
35	36	1
37	41	1
2	3	2
137	137	6
162	162	5
72	73	1
9	9	3
116	116	5
91	93	5
64	64	2
65	65	1
101	102	3
92	133	2
56	56	1
6	7	1
129	129	4
84	84	2
49	79	2
155	156	1
14	15	2
147	149	1
55	55	4
150	150	2
80	80	4
136	165	3
56	128	1
67	67	3
105	167	1
15	169	2
140	141	3
134	135	1
126	127	1
139	140	3
65	66	1
155	155	1
159	160	1
98	105	1
150	151	1
8	25	2
36	36	2
51	75	3
104	104	1
116	146	1
53	54	2
87	88	2
148	149	1
0	0	1
131	146	1
160	161	1
99	99	2
2	2	1
34	34	1
14	14	1
136	136	1
93	93	1
125	125	1
39	39	1
132	132	1
94	94	1
0	1	1
151	157	1
108	145	1
92	93	2
67	70	1
148	150	1
57	62	2
43	44	1
1	2	1
117	130	1
