116	117	4
113	195	3
159	159	15
30	30	26
32	32	16
70	71	1
3	3	7
184	184	14
143	144	12
41	41	9
116	118	4
179	180	4
23	23	25
55	55	18
80	80	9
10	10	26
73	73	13
39	64	3
13	13	10
194	194	18
142	142	13
46	46	13
193	194	3
2	2	23
5	6	9
173	175	2
151	151	10
24	112	5
95	95	12
111	114	2
134	134	24
87	87	17
79	80	5
123	140	7
99	100	7
154	155	6
177	177	13
191	191	23
124	141	2
70	70	8
45	45	23
136	136	18
21	22	8
94	95	17
98	98	25
56	62	2
115	115	8
183	183	16
43	43	18
137	137	18
9	9	25
22	22	18
74	74	25
79	79	24
63	63	22
49	49	17
127	127	18
29	32	3
142	143	12
186	186	17
94	94	20
145	145	13
194	196	6
137	139	2
170	172	1
175	176	7
47	47	22
101	102	12
161	180	2
35	35	13
101	101	24
113	190	4
155	156	4
133	133	11
170	170	10
42	42	19
16	16	14
98	113	1
187	187	17
168	168	29
27	27	18
146	171	1
139	140	9
192	192	5
0	0	22
46	47	4
146	146	13
48	48	21
88	89	9
68	68	24
179	193	11
19	19	25
123	124	9
164	179	2
96	96	7
138	139	10
136	138	10
35	36	4
51	51	18
119	119	21
153	153	13
99	99	24
172	177	2
5	5	22
119	123	11
111	111	21
121	122	9
109	110	15
185	185	15
71	72	3
93	93	6
36	36	20
19	20	2
165	168	6
100	101	12
180	180	23
50	50	23
197	197	7
120	120	15
23	191	2
26	26	16
66	82	1
66	66	22
44	44	17
7	7	26
102	102	27
116	116	28
67	67	25
109	109	13
77	77	4
106	109	5
14	14	23
175	178	5
34	35	2
75	80	3
37	37	11
9	10	1
15	192	1
0	1	5
1	1	12
166	166	17
123	125	1
36	83	2
156	170	4
181	182	12
52	53	1
158	158	13
119	120	5
109	112	3
149	149	5
175	175	11
146	170	2
1	35	3
167	167	18
80	82	3
20	21	18
196	196	16
150	170	1
165	165	14
179	181	5
28	29	3
51	53	3
85	85	10
60	61	5
108	108	25
52	52	19
124	125	8
89	89	24
134	135	7
174	174	19
0	89	4
65	65	14
58	58	14
33	33	22
82	82	15
3	4	8
4	4	15
191	193	2
54	54	13
174	175	2
6	6	12
141	141	18
1	33	3
106	107	4
160	160	14
98	99	9
127	128	4
128	128	13
147	149	5
6	34	1
182	182	22
34	34	14
148	148	16
53	53	20
171	171	18
56	56	21
77	78	7
38	38	15
195	195	12
98	190	7
83	83	13
173	174	3
152	152	6
110	111	9
172	172	9
114	114	13
110	110	11
184	186	7
72	126	5
189	189	13
69	69	27
64	65	9
161	161	13
21	21	10
72	72	25
135	136	5
97	97	9
7	8	1
40	42	3
70	127	1
71	71	24
118	118	20
163	163	11
147	172	4
143	143	14
132	133	11
76	81	1
24	25	7
103	103	8
176	176	18
57	57	25
93	94	7
121	121	9
31	32	4
189	190	9
41	82	5
40	40	19
12	12	25
78	78	6
15	15	19
32	33	6
113	192	1
17	18	9
16	17	12
126	127	13
25	117	1
53	54	3
24	24	13
169	169	13
43	44	4
1	27	2
193	193	13
179	189	3
112	112	12
59	60	8
178	180	3
138	138	12
104	104	23
10	11	11
131	132	3
150	150	16
28	82	1
107	107	21
126	126	9
3	27	5
14	15	2
125	125	12
150	156	2
39	39	9
25	113	1
72	73	5
30	31	4
117	117	15
105	105	11
56	61	3
160	188	3
6	7	8
76	78	9
26	117	3
157	158	8
162	162	14
122	122	24
28	28	12
99	189	3
186	188	1
177	178	8
29	29	16
62	62	22
180	181	5
155	171	4
99	161	2
156	156	19
171	194	5
172	173	3
131	131	8
65	67	5
75	75	5
183	195	5
29	30	4
179	188	2
61	61	23
162	181	3
1	2	3
30	33	2
76	77	6
10	12	2
15	16	4
122	123	7
35	81	3
144	145	8
164	165	4
8	9	8
137	138	4
18	18	15
169	179	4
152	164	2
179	191	3
40	41	10
144	144	10
133	134	1
12	13	1
147	147	12
179	179	14
8	28	4
170	171	9
159	160	2
100	100	17
133	184	2
96	97	4
31	31	12
139	139	9
154	154	15
155	155	20
2	3	3
118	119	6
134	185	1
149	150	8
81	82	2
122	124	3
67	68	3
39	40	15
40	64	6
87	146	4
16	32	4
23	24	6
15	31	7
107	108	5
177	180	1
58	59	2
171	172	3
54	55	7
11	11	17
0	2	3
42	55	3
9	95	3
121	124	2
166	167	7
96	184	2
195	196	1
64	67	2
6	9	1
37	38	1
124	124	12
84	84	15
114	115	8
177	179	1
88	88	10
27	95	2
84	85	10
134	136	4
17	17	13
162	163	4
74	75	7
115	195	3
73	79	2
113	113	8
8	8	8
59	59	9
125	127	3
61	69	2
175	179	2
58	61	4
143	146	3
87	147	1
188	188	18
186	190	1
112	114	3
130	130	8
44	45	2
42	44	1
25	25	16
25	26	5
55	56	6
132	132	14
188	189	6
184	185	2
86	86	13
60	60	9
71	127	3
140	140	20
130	131	6
1	118	4
175	177	4
173	178	2
181	184	2
25	192	1
187	188	4
36	81	4
76	76	11
66	67	8
190	190	14
0	30	2
85	89	2
140	171	1
73	80	1
34	37	4
117	118	5
174	176	4
50	51	3
97	99	6
73	74	5
76	80	3
123	123	11
174	177	1
185	186	11
77	79	6
64	77	2
136	139	1
0	35	2
86	87	3
164	164	12
135	137	6
89	118	2
41	42	4
81	81	11
166	168	1
111	112	5
80	86	7
113	186	1
38	39	2
181	181	14
97	184	2
106	110	1
100	190	2
121	123	8
107	110	3
88	97	2
127	136	1
178	178	8
54	56	3
183	184	3
30	76	2
113	114	3
13	14	3
20	154	2
104	105	3
158	159	3
57	58	1
49	50	7
55	65	3
63	64	8
22	118	2
61	62	3
74	85	4
168	169	7
27	30	2
18	26	1
157	157	8
134	187	1
152	153	4
32	37	3
26	27	6
2	28	1
54	64	1
178	182	1
159	186	3
108	109	4
173	173	21
44	46	3
160	161	5
22	24	3
95	96	16
196	197	4
167	168	1
135	154	1
0	36	2
181	186	4
0	4	1
132	139	1
142	171	4
138	141	3
173	176	2
161	162	3
90	90	3
25	115	1
54	170	2
83	84	4
10	16	6
151	152	1
116	119	3
183	185	2
176	177	4
123	141	2
148	161	2
12	43	1
134	157	1
161	171	3
104	106	3
69	88	1
161	163	3
129	129	6
51	52	2
5	8	2
137	142	2
66	80	2
146	173	2
105	108	1
11	32	3
106	106	12
69	120	3
27	94	1
88	90	4
162	171	1
189	192	3
161	166	3
165	166	1
16	29	4
125	126	6
77	80	4
113	180	1
73	75	6
35	83	2
141	142	1
131	185	2
194	195	5
63	78	3
71	73	2
20	20	7
68	80	1
115	194	1
45	46	3
160	163	1
22	23	1
61	63	1
105	190	2
48	49	2
53	64	1
140	141	1
129	130	1
151	170	1
156	158	2
163	164	2
73	78	1
74	195	2
97	115	3
12	15	1
69	86	3
82	83	8
145	171	1
33	37	1
19	21	5
105	191	4
4	5	4
191	192	2
118	124	1
22	115	2
37	39	1
1	28	1
151	153	2
145	146	3
64	64	2
135	139	1
23	116	1
140	169	1
135	135	7
193	196	1
33	34	1
113	189	1
39	63	1
113	194	1
2	4	3
179	182	1
173	177	4
43	58	2
5	7	2
174	179	1
147	162	1
97	181	2
156	157	1
151	171	1
110	143	1
124	140	2
31	153	1
27	28	2
122	139	1
65	66	1
158	187	4
6	123	2
139	169	1
120	121	1
78	79	2
168	170	1
135	169	2
25	114	2
111	148	1
117	119	4
51	54	1
134	154	1
169	170	1
101	104	2
192	193	3
126	129	1
1	34	1
26	114	1
56	64	1
37	81	1
47	48	2
178	188	1
160	162	1
63	66	1
94	101	1
80	83	4
112	194	4
96	98	2
113	115	1
107	143	1
1	3	1
108	110	2
28	66	1
114	195	2
121	140	1
108	141	1
157	159	1
23	109	2
119	183	1
157	187	2
98	184	3
23	115	1
28	30	1
145	147	2
80	81	4
178	179	1
74	84	1
146	147	2
70	88	1
186	187	1
31	69	2
43	45	3
31	33	1
109	111	1
94	100	1
151	168	1
41	56	2
41	77	3
29	63	1
21	118	1
24	192	3
160	189	1
38	84	1
3	31	1
34	76	2
58	60	3
53	173	1
172	193	1
35	78	1
148	169	1
26	95	1
89	123	1
38	81	1
11	55	1
87	173	1
37	84	1
15	17	1
132	140	1
156	183	2
136	137	2
88	183	1
154	156	1
51	55	2
169	171	1
146	149	1
15	117	1
102	103	2
66	69	1
37	127	1
1	117	1
109	114	1
60	63	1
32	34	2
93	180	1
157	185	1
155	170	1
122	128	1
109	143	1
116	185	1
56	57	1
150	171	1
169	177	1
149	173	1
60	126	1
3	76	1
36	89	1
147	150	2
25	193	1
17	119	1
143	145	1
