82	136	1
145	145	5
140	140	5
18	24	5
108	108	10
114	114	9
115	115	3
10	15	3
138	138	4
41	46	2
105	105	7
24	24	4
80	84	2
94	94	9
62	62	7
57	57	5
65	65	4
87	88	5
78	135	1
115	116	2
11	87	1
62	64	3
96	96	6
33	95	2
93	142	2
121	121	7
103	138	2
101	108	1
109	123	2
113	113	7
54	86	2
93	95	1
80	80	3
12	12	3
132	132	4
66	66	10
82	103	2
51	51	6
141	153	1
69	119	1
49	49	5
141	149	2
93	93	2
62	111	1
109	109	7
48	48	1
147	147	4
70	76	6
82	87	2
120	120	4
22	22	9
93	100	1
137	154	6
63	115	4
7	7	5
20	50	3
99	99	4
11	11	2
27	27	5
47	47	8
110	110	4
18	18	7
63	67	4
122	122	3
39	39	5
105	129	4
90	109	2
4	5	3
66	81	4
122	126	5
95	95	2
77	132	1
146	146	4
153	153	3
70	70	3
33	34	1
133	133	6
107	107	6
13	14	3
64	64	5
130	130	5
125	125	2
14	14	9
137	137	7
79	105	2
55	55	3
25	25	5
151	151	7
17	18	5
82	82	3
12	154	1
7	112	3
79	80	1
49	50	1
62	66	2
26	27	2
138	147	2
34	34	2
95	96	2
108	135	2
43	43	3
31	31	2
42	51	1
83	83	1
6	31	1
76	144	2
44	44	4
69	69	6
110	111	3
71	115	1
92	92	1
23	23	5
127	127	4
77	77	8
11	35	1
148	148	6
113	114	4
83	84	1
63	64	2
112	112	5
38	38	4
17	17	3
84	134	2
131	132	6
13	13	7
65	101	1
56	56	2
15	16	3
116	116	6
14	15	2
36	36	4
40	86	2
20	21	2
119	121	1
77	78	3
126	127	1
88	88	4
149	149	5
116	117	1
111	111	5
128	130	3
76	76	4
131	133	2
66	67	5
97	103	2
136	137	3
10	11	3
74	82	1
37	37	2
4	4	2
152	152	2
98	99	3
76	78	1
85	86	5
85	85	11
42	42	3
142	146	1
150	150	3
24	25	3
68	146	1
125	126	2
67	147	2
13	45	3
77	87	3
8	8	3
75	145	2
84	84	8
70	71	1
111	115	3
74	78	1
102	105	4
13	19	1
13	104	1
15	15	6
73	73	3
21	21	4
7	50	1
3	38	1
10	42	1
65	79	3
100	101	1
10	10	1
9	9	1
96	98	3
107	129	2
139	141	1
6	6	1
15	95	1
142	142	1
9	12	2
3	3	1
124	124	7
138	144	2
27	28	3
96	97	4
28	28	3
19	51	3
87	98	1
139	139	2
40	41	2
4	23	1
136	136	2
86	86	4
78	78	1
138	142	1
53	53	2
104	104	6
7	18	1
145	149	2
102	106	2
5	20	2
31	33	1
103	103	1
65	114	2
85	88	2
44	46	2
44	107	1
29	30	5
45	110	1
72	153	1
5	7	1
117	117	4
3	64	1
123	123	5
31	32	1
91	91	4
43	47	4
44	45	1
42	43	1
97	98	4
70	72	1
38	123	2
40	40	5
11	145	1
27	53	1
45	45	2
74	74	3
86	110	1
33	99	1
101	102	2
129	129	3
107	110	2
10	19	1
66	69	1
50	50	1
74	143	1
39	47	1
68	68	1
24	110	3
32	51	1
106	129	1
141	141	1
83	132	1
75	84	1
114	136	1
105	117	1
79	79	2
19	19	3
39	40	3
53	57	1
152	153	1
67	67	5
29	29	3
6	50	1
7	57	2
88	107	1
83	85	2
34	52	1
4	33	1
97	97	2
142	144	1
22	26	2
68	130	2
52	52	1
141	144	1
76	85	1
119	119	5
121	122	1
113	134	2
98	98	6
131	131	2
62	130	1
74	76	1
73	74	1
12	17	1
74	75	1
35	54	1
17	37	1
28	29	1
4	135	2
102	102	2
75	75	2
93	94	1
118	118	1
44	48	2
88	109	2
37	107	1
6	145	1
107	123	1
117	120	1
55	56	2
22	43	2
135	135	1
7	34	1
85	90	1
26	50	1
50	52	2
63	63	1
14	97	2
134	134	1
25	26	1
118	119	1
26	26	1
22	32	1
49	123	1
121	146	1
6	8	1
46	46	1
117	121	1
112	119	1
9	20	1
132	133	1
78	127	1
137	147	1
5	11	2
7	119	1
30	30	1
67	130	1
126	128	1
36	54	1
27	50	1
69	129	1
41	41	1
126	126	2
92	93	1
32	32	1
85	87	1
54	54	1
43	45	1
122	123	1
137	141	1
101	101	2
81	82	1
116	126	2
68	69	1
44	100	1
146	151	1
86	87	1
40	52	1
76	132	1
147	148	1
62	82	1
20	118	1
71	71	1
