69	70	12
28	97	1
144	144	5
75	76	5
56	56	7
153	153	21
135	135	11
143	143	12
23	24	2
126	126	4
159	165	6
119	120	5
165	165	16
139	147	3
103	103	7
86	87	6
3	7	4
39	41	3
2	2	9
161	161	5
3	4	4
114	114	11
97	97	12
92	92	2
17	56	1
124	124	18
13	13	6
51	69	2
12	39	5
20	20	22
13	61	5
142	142	3
73	73	21
88	88	14
114	116	4
157	161	4
76	76	14
146	146	20
52	52	18
159	166	11
126	127	5
134	134	12
102	103	5
70	71	4
65	65	5
35	35	13
28	123	3
38	38	13
47	47	9
81	81	4
158	158	10
105	106	4
76	88	3
123	143	2
107	107	21
72	72	6
114	123	2
25	103	3
133	133	6
41	42	3
159	163	1
34	34	16
11	11	9
110	110	14
106	106	1
167	167	7
149	149	5
36	42	1
52	70	5
101	135	2
28	90	3
20	23	2
119	119	7
94	94	3
22	22	6
85	87	2
123	124	6
124	136	2
101	102	3
45	77	1
26	27	1
56	57	3
137	144	2
117	117	8
79	79	1
44	44	6
151	151	14
95	95	4
90	90	11
38	41	1
66	67	9
127	127	4
90	91	3
84	84	8
123	123	13
44	77	3
6	157	7
3	3	10
125	125	4
144	146	3
36	37	1
64	70	8
18	18	10
27	27	5
12	12	11
83	83	5
49	49	8
37	66	3
126	144	4
22	57	2
153	169	5
9	9	4
39	40	4
80	80	6
119	137	8
88	89	8
126	132	4
90	93	1
131	131	1
36	36	24
136	136	9
154	168	2
131	132	1
40	40	8
73	74	7
137	137	8
145	146	8
39	49	2
89	90	2
62	62	5
70	70	4
168	168	5
138	139	2
120	120	4
50	62	6
114	115	7
50	64	3
57	62	3
68	68	5
109	139	2
115	121	1
145	169	5
140	141	4
107	109	1
89	89	7
98	98	10
125	126	12
45	92	1
1	1	4
71	71	8
43	43	11
42	43	2
160	160	7
139	139	6
122	122	9
10	44	1
152	152	7
51	51	4
146	148	2
96	123	4
46	93	1
110	111	2
23	23	2
50	52	3
36	88	3
82	82	5
12	49	3
88	111	3
116	116	3
27	43	1
90	113	2
115	116	4
54	55	5
24	48	5
91	91	5
22	47	2
69	69	7
19	19	5
148	149	6
91	93	9
164	164	10
150	150	5
85	85	5
119	121	5
103	125	6
155	155	7
111	114	1
98	99	2
41	41	12
8	21	2
53	53	15
162	163	8
17	57	4
109	110	1
111	111	5
134	136	5
75	75	2
42	42	11
129	132	1
157	157	19
48	48	4
14	14	3
63	64	2
81	83	5
162	167	2
66	66	4
145	145	5
25	25	4
8	23	7
77	79	2
12	63	2
87	88	1
79	80	2
129	129	4
27	28	3
37	37	7
72	73	4
3	5	6
128	148	3
105	105	4
26	26	2
93	94	1
77	80	3
57	57	4
101	106	4
109	109	4
91	94	1
44	45	1
0	138	4
25	104	1
159	159	2
94	96	2
118	140	3
147	147	6
35	36	1
112	112	8
163	163	2
37	76	3
152	154	2
38	76	3
169	170	2
7	21	2
151	168	3
104	104	4
136	144	1
9	46	3
162	162	5
128	144	5
19	25	2
129	134	1
33	33	3
13	14	1
154	154	9
116	119	1
16	16	2
21	135	4
63	63	3
113	113	2
1	6	2
157	158	4
78	78	3
77	90	1
67	67	2
136	137	1
44	53	3
50	50	3
20	22	2
76	79	6
93	95	1
17	17	6
10	96	1
61	61	3
152	167	1
139	145	2
113	122	1
7	8	2
154	166	2
72	74	8
164	166	1
21	48	1
144	145	4
21	21	3
117	145	1
100	100	3
84	86	2
125	133	1
144	148	4
130	130	5
2	137	3
138	138	3
160	166	8
46	46	4
99	99	3
5	6	1
102	134	1
23	104	3
103	127	1
140	163	3
127	128	1
18	19	1
74	74	4
82	83	1
159	161	3
41	49	3
104	125	2
2	138	1
8	8	2
53	54	2
107	150	4
96	96	1
118	118	1
116	123	1
24	24	1
89	111	3
15	56	2
45	45	3
20	21	3
20	125	1
140	140	5
84	87	2
115	115	1
119	143	2
34	35	2
54	54	1
64	69	1
28	28	3
156	158	2
6	6	2
50	51	1
21	23	1
16	70	1
28	93	1
53	57	1
15	15	3
77	93	2
20	133	3
166	166	2
7	10	1
75	81	2
0	0	2
126	133	1
44	92	3
20	102	2
126	143	2
12	40	1
121	122	2
16	52	1
93	93	3
63	70	1
148	148	2
156	156	6
65	66	2
146	147	3
90	110	1
101	134	2
121	121	4
113	123	3
75	80	1
101	101	2
99	110	2
51	52	1
7	105	3
157	162	1
106	109	1
141	141	1
8	96	2
169	169	1
39	65	1
108	108	3
105	109	1
108	137	1
9	96	1
114	117	1
155	156	1
158	159	1
95	96	3
80	90	1
140	162	2
140	158	2
21	57	1
9	40	1
8	92	1
152	155	1
13	16	1
47	92	1
26	106	1
43	53	1
39	39	3
26	105	1
64	68	1
21	22	3
112	114	1
11	12	1
55	55	1
65	67	1
33	34	1
97	110	2
76	80	1
19	23	1
9	39	1
86	86	1
10	94	1
10	10	2
4	5	2
132	134	2
2	139	1
117	137	1
147	148	1
78	90	1
102	102	1
91	92	1
