125	125	7
104	104	2
72	73	9
78	78	28
6	6	13
91	158	9
174	175	10
108	109	1
12	12	3
18	59	2
16	55	4
150	150	14
40	56	5
75	75	8
111	114	6
68	71	3
166	166	5
7	8	2
26	26	11
170	170	5
99	152	5
79	79	3
154	154	7
71	71	8
94	166	1
136	136	8
11	45	9
10	11	4
97	97	6
17	17	2
18	35	5
96	96	10
148	150	5
173	173	4
29	30	9
175	175	5
139	140	5
124	124	1
83	83	8
166	186	3
155	156	6
66	66	6
19	24	5
103	103	7
67	67	15
65	68	2
55	55	4
84	84	6
3	3	10
85	85	5
61	61	8
163	163	2
149	149	7
12	13	10
40	40	8
53	53	8
89	89	4
87	182	2
74	141	1
29	29	5
35	37	3
60	60	4
146	147	3
127	127	13
20	20	8
184	184	4
186	186	13
57	57	7
109	110	3
35	35	2
178	178	1
59	59	2
171	171	5
152	152	6
134	136	1
141	141	10
129	187	5
90	90	7
167	167	6
18	58	2
146	146	5
5	5	3
156	156	6
1	1	6
41	41	9
79	82	2
137	139	4
20	60	6
33	33	2
10	13	3
89	183	8
175	176	3
93	107	2
151	151	5
126	126	16
63	63	4
159	159	10
169	169	15
43	43	12
21	21	4
77	77	13
134	134	9
155	155	8
47	47	11
55	56	2
46	46	2
99	99	5
26	41	3
81	83	3
143	159	4
77	78	1
4	67	5
174	174	4
28	28	7
14	43	2
45	46	6
144	144	3
48	48	13
98	98	6
124	127	6
9	10	6
33	36	8
61	62	12
28	29	3
47	49	3
13	13	10
170	187	1
72	72	7
119	119	5
188	188	4
24	25	2
130	130	4
114	114	7
116	118	3
64	67	3
76	86	3
84	146	5
76	78	5
106	107	3
54	54	5
145	145	5
165	165	2
137	137	2
177	178	4
45	45	2
21	22	3
142	142	3
27	29	3
88	88	6
168	168	6
158	162	1
30	34	3
87	87	7
32	32	2
27	27	2
101	102	2
167	169	1
56	56	3
78	82	3
104	106	1
188	189	4
121	122	6
73	73	6
153	153	11
66	67	1
176	176	8
153	158	1
93	93	6
104	107	3
4	102	2
9	9	5
183	183	4
16	16	7
81	82	5
140	140	8
42	42	3
62	62	13
2	2	1
4	61	1
158	158	7
43	44	1
122	122	7
89	152	2
116	116	4
78	81	2
78	79	4
17	57	2
60	61	4
92	92	4
7	7	10
53	54	3
138	159	3
71	72	1
108	108	7
24	93	1
25	25	2
123	123	5
91	94	3
7	44	4
60	66	1
137	165	1
109	111	2
81	81	3
162	162	6
30	30	2
100	100	4
97	98	10
12	56	3
18	18	1
63	67	3
37	38	3
138	138	2
99	153	3
156	158	3
15	42	2
165	183	1
125	128	1
115	119	1
171	174	1
53	55	1
190	190	6
101	101	12
120	120	4
98	99	8
65	67	2
86	155	2
2	57	2
65	66	4
143	143	5
106	106	4
86	87	4
94	94	4
28	34	1
109	109	3
1	2	2
104	110	7
165	166	3
170	171	2
102	103	2
154	155	2
86	86	8
19	19	8
15	16	1
105	106	1
88	157	1
128	129	1
38	38	7
111	112	2
173	189	2
123	130	3
40	41	4
117	118	1
91	91	4
89	185	2
70	70	4
57	58	1
151	152	3
95	95	3
0	0	7
68	68	1
117	117	4
130	131	3
76	77	3
8	44	3
160	160	2
182	182	2
4	5	3
125	126	4
124	126	1
177	177	10
115	115	1
37	37	3
147	147	3
153	154	4
182	184	6
114	124	2
94	95	3
143	149	1
110	114	2
139	139	5
89	154	5
91	159	3
67	68	1
10	10	2
181	181	8
89	91	1
9	46	2
31	37	1
5	6	4
134	137	2
133	133	4
34	39	1
180	180	1
74	142	4
169	185	2
113	113	2
148	153	2
63	66	4
76	76	7
168	169	1
34	34	2
135	136	3
150	151	2
98	100	1
8	15	2
42	55	1
182	183	5
24	24	1
164	164	1
186	187	2
92	93	2
112	112	5
0	70	3
189	189	1
88	158	1
91	93	2
106	108	1
35	58	3
161	161	3
0	65	1
8	8	1
4	103	2
135	138	2
144	155	1
111	113	1
22	22	4
120	122	1
164	186	2
115	120	2
11	11	1
111	111	3
94	165	2
110	110	4
92	138	1
120	121	2
74	74	3
138	165	1
127	128	2
75	145	2
75	143	1
158	165	1
23	24	2
75	76	3
80	81	1
31	33	1
157	163	2
148	149	1
162	163	3
129	133	1
87	88	2
164	167	2
124	125	3
134	135	1
39	39	2
64	65	1
3	6	1
174	181	2
187	187	1
59	60	2
176	177	1
10	46	1
122	123	1
145	151	2
6	7	2
172	172	3
36	37	2
158	161	1
121	123	3
98	101	1
7	110	1
135	166	1
0	71	1
77	86	1
129	129	3
169	171	1
165	167	1
153	156	1
148	148	2
4	108	1
71	116	1
115	117	1
179	179	1
151	154	2
187	190	1
71	141	1
44	44	2
70	71	1
