18	21	2
137	147	5
121	121	11
58	58	9
42	43	6
144	144	13
16	16	8
49	53	4
97	97	5
106	106	21
122	123	3
9	9	27
76	76	6
71	71	12
13	13	19
136	136	21
108	108	12
27	27	9
104	124	1
19	19	7
158	158	13
46	46	20
168	169	9
57	57	16
42	42	16
151	151	20
87	87	6
96	119	3
139	139	9
104	104	8
57	63	2
146	146	12
33	33	8
122	148	1
112	136	1
112	113	1
70	90	1
79	79	11
72	73	5
89	89	13
8	8	18
100	100	24
134	134	15
18	18	10
161	161	8
94	94	14
107	124	1
54	54	8
55	56	3
45	46	4
160	170	3
47	53	1
6	6	18
28	28	8
90	111	5
111	112	2
87	88	11
85	94	1
114	142	2
160	160	10
12	12	8
101	134	4
40	40	10
14	150	2
82	82	15
129	129	10
112	120	10
108	109	5
90	90	10
69	69	18
85	85	7
1	18	5
110	124	2
76	79	2
77	77	17
110	112	1
143	145	3
56	57	1
93	105	2
144	150	2
77	80	6
119	119	17
144	148	1
16	17	4
107	108	3
7	18	1
71	72	7
35	56	1
80	80	6
96	96	9
48	48	7
72	72	11
131	137	2
26	28	2
156	157	3
133	133	15
166	168	2
52	66	3
118	118	4
137	137	25
122	122	5
97	109	2
131	131	11
38	38	8
20	20	10
6	10	2
121	127	1
43	43	24
56	56	14
18	22	1
39	39	14
152	158	3
41	41	18
167	167	11
150	150	18
63	88	2
95	101	1
113	151	3
53	54	13
97	100	4
163	163	19
138	139	3
125	127	2
43	44	1
69	70	9
111	163	1
5	7	3
107	107	9
128	138	2
11	13	1
63	63	9
89	105	2
5	6	5
138	141	2
126	161	1
11	114	1
120	120	10
74	74	11
154	154	19
94	120	3
17	25	4
3	3	15
75	88	1
125	131	1
102	121	2
14	14	26
149	150	3
148	148	9
11	11	13
92	92	6
166	166	5
93	93	10
105	105	11
14	15	3
39	40	12
138	150	3
146	147	8
81	82	4
144	162	1
77	92	1
142	142	4
14	107	1
40	54	1
105	110	1
132	132	7
95	95	2
162	163	3
139	140	1
22	24	5
54	57	3
101	121	2
126	134	1
54	65	1
136	137	2
37	37	7
115	116	1
114	166	4
122	136	1
102	104	9
126	148	2
9	116	1
21	22	3
101	116	2
156	156	12
159	159	6
155	155	14
25	25	6
0	0	9
23	27	2
67	67	5
100	118	2
110	111	5
46	47	3
77	78	2
169	170	9
20	23	3
34	34	8
119	121	2
18	19	3
68	68	8
36	37	4
49	55	2
140	140	9
160	168	3
24	24	9
70	70	21
125	125	15
25	37	2
169	169	11
123	123	4
103	103	4
49	49	3
54	64	1
20	25	3
108	114	3
92	100	3
78	78	10
149	151	7
17	21	4
99	99	28
26	26	5
100	122	5
35	35	16
2	18	1
165	165	1
133	154	5
86	89	1
47	47	9
113	114	2
153	153	9
67	79	2
135	135	12
118	137	3
38	41	1
15	15	9
147	147	12
23	23	7
3	4	2
117	120	1
115	115	9
79	95	5
142	157	2
84	85	5
99	102	2
44	44	12
145	145	20
166	170	3
130	131	4
62	62	3
138	138	23
88	89	2
62	63	2
151	152	3
166	167	1
63	64	2
124	124	11
109	109	4
116	116	15
107	111	1
0	33	2
118	120	1
4	4	12
114	114	10
41	111	1
4	8	2
66	66	12
152	152	13
3	5	5
76	92	2
43	49	3
75	98	2
96	98	2
67	69	1
113	113	10
52	52	12
96	97	4
9	22	5
35	36	4
73	78	3
142	143	1
0	4	2
100	106	3
126	126	10
1	2	4
17	131	2
50	50	7
140	141	7
112	121	2
127	133	2
88	88	11
2	130	1
6	7	4
11	22	6
128	128	4
34	35	7
84	84	10
83	87	6
110	114	3
64	64	22
129	138	3
117	137	4
91	91	5
102	102	12
81	84	3
38	42	5
145	146	1
101	133	5
38	39	5
14	47	1
83	94	3
112	112	6
154	155	1
37	54	1
98	141	1
140	143	2
75	75	8
83	86	5
73	74	1
124	147	1
126	127	4
114	115	7
167	168	9
66	86	4
110	110	10
92	116	3
147	148	4
155	157	1
164	164	7
150	152	4
62	67	1
21	21	15
153	158	1
111	136	2
58	62	2
62	64	1
33	35	1
2	19	1
82	84	6
55	55	5
22	114	2
51	51	5
76	77	1
5	5	10
104	110	1
105	126	2
36	36	8
7	8	6
100	128	1
10	10	14
132	153	1
92	133	3
130	130	2
127	127	6
112	115	2
36	80	4
89	90	4
83	83	13
7	132	1
135	166	1
164	165	2
119	120	7
149	149	10
25	26	1
124	132	1
106	111	2
153	154	6
50	77	2
113	144	3
117	117	6
109	110	3
64	93	1
38	55	3
139	142	5
116	136	2
123	124	5
143	159	2
147	152	4
45	45	4
34	74	4
91	92	1
33	90	2
105	123	1
99	100	4
108	117	1
111	111	16
126	139	4
49	101	1
153	169	2
70	71	3
15	16	2
132	145	1
108	135	1
134	139	1
143	143	6
157	157	7
15	20	1
53	53	25
17	26	2
135	137	4
162	162	10
120	166	1
12	25	2
168	168	5
65	66	1
75	77	1
68	69	2
66	67	1
144	167	1
65	65	4
127	130	3
135	138	2
98	99	2
114	151	1
126	132	3
47	114	1
13	14	3
10	125	2
97	114	1
121	122	2
65	79	1
83	100	4
170	170	8
50	74	1
130	132	1
96	99	1
117	118	7
33	36	1
136	166	1
145	147	1
92	93	4
5	13	1
80	100	1
46	49	3
57	77	3
2	2	11
71	78	1
85	86	6
124	125	4
114	149	1
4	24	1
46	48	1
103	159	2
78	87	1
40	46	1
157	158	5
121	152	4
90	97	2
36	56	1
129	147	1
2	155	1
0	1	4
144	158	2
142	167	2
151	161	2
135	136	2
40	41	2
159	161	2
104	107	2
15	27	2
101	101	11
65	69	5
37	55	1
67	70	1
1	1	2
51	52	4
133	136	1
95	98	1
54	55	3
11	131	1
75	85	1
19	23	2
68	77	1
45	48	2
134	154	3
128	129	5
27	62	1
146	168	2
115	124	3
116	120	1
33	38	6
61	72	2
12	116	1
114	117	1
7	17	2
38	40	4
83	104	1
120	133	1
19	24	3
101	105	4
156	161	1
4	5	2
82	83	2
151	154	3
51	80	3
47	57	1
79	81	3
161	163	2
38	49	4
19	131	2
7	10	3
88	90	1
74	94	2
39	53	3
141	141	4
148	149	2
161	162	2
155	156	4
56	81	1
16	33	1
80	84	3
100	116	1
53	79	1
126	135	3
82	114	1
83	84	3
90	95	1
5	10	3
133	148	4
20	24	2
129	131	1
119	122	1
78	85	4
110	113	1
67	76	2
109	124	1
47	48	2
19	115	1
42	46	3
0	23	4
108	138	1
120	123	1
99	119	1
7	7	4
98	98	4
43	48	1
90	98	3
138	140	4
47	49	1
101	119	2
132	133	1
107	159	1
91	106	2
79	96	2
101	102	2
86	86	4
17	23	2
81	81	3
66	69	2
97	98	1
73	73	5
150	154	3
141	142	1
143	155	1
19	20	3
75	76	1
58	63	1
13	24	3
51	58	1
165	166	1
110	137	2
80	99	2
116	117	4
151	155	1
117	159	1
91	120	1
116	123	2
78	84	2
79	98	1
161	164	2
75	89	1
50	51	1
100	101	1
67	80	2
26	27	1
18	44	1
64	65	1
112	132	1
45	107	1
110	138	2
109	115	1
37	53	3
149	169	1
74	75	2
67	72	2
17	130	2
168	170	1
22	23	4
43	52	1
3	11	1
37	38	1
111	132	3
18	115	1
106	108	1
12	41	2
39	54	1
118	119	2
63	72	2
101	117	1
90	112	1
113	131	1
135	157	1
132	140	1
74	90	1
0	2	1
8	10	1
142	148	1
42	55	1
34	41	1
140	142	2
26	37	1
49	50	1
144	152	1
122	149	2
22	22	1
93	96	2
23	25	1
125	126	1
12	68	1
105	106	3
3	36	3
84	93	1
141	160	1
91	123	1
133	145	2
136	138	1
104	119	1
138	159	1
91	112	2
131	148	1
69	71	2
86	100	1
25	141	1
112	131	1
0	5	1
137	167	1
78	79	1
139	169	1
107	145	2
153	157	1
107	166	1
125	146	1
18	45	1
97	117	1
65	98	1
112	122	1
23	24	1
163	165	1
34	54	1
147	150	1
15	132	1
89	96	1
0	15	1
165	167	1
124	126	1
102	103	1
44	45	2
12	13	1
12	23	1
95	105	1
8	12	1
111	166	1
97	118	1
20	21	2
101	103	3
91	93	1
139	159	1
47	50	1
134	135	4
116	138	1
66	85	2
129	130	1
144	145	2
116	124	1
17	17	2
147	166	3
36	47	1
5	19	1
125	136	1
135	149	1
53	56	2
24	25	1
12	21	1
106	117	1
57	62	2
4	18	1
114	139	1
152	154	1
10	12	2
19	25	1
88	137	1
37	39	1
115	129	1
64	78	1
149	152	1
90	91	1
3	16	1
57	110	1
38	52	1
13	25	1
9	18	1
37	46	1
123	133	1
97	99	1
1	4	1
50	54	1
63	65	1
17	132	1
17	114	1
46	56	1
134	137	1
137	138	1
82	85	1
147	151	1
48	107	1
88	103	1
62	98	1
104	123	1
1	26	1
13	16	1
11	12	1
56	84	1
4	19	1
