52	56	4
87	88	3
103	104	8
97	98	3
39	39	14
100	101	6
69	69	9
74	74	8
47	47	14
44	44	12
45	51	2
48	48	9
106	107	1
20	22	5
25	25	14
29	29	11
78	78	9
70	70	8
47	49	2
99	106	1
29	30	5
20	20	10
96	96	4
31	56	1
38	38	5
34	34	20
95	95	11
112	112	7
75	76	4
29	37	3
104	104	7
54	55	1
61	61	8
93	94	2
66	67	7
84	85	5
77	79	3
109	109	14
63	89	3
44	45	6
46	46	13
78	103	1
43	43	6
28	28	6
32	32	13
26	26	16
52	53	2
92	92	18
30	56	3
83	83	24
20	21	5
30	33	1
102	102	14
65	67	1
33	33	20
91	106	1
103	103	14
97	97	14
113	113	21
23	25	4
81	81	9
99	100	1
107	107	7
51	51	7
49	49	10
94	94	11
46	60	1
52	52	6
57	58	2
89	89	7
45	45	7
40	40	11
58	59	2
105	105	12
82	82	5
40	41	5
27	50	1
79	79	15
36	36	11
71	71	8
42	42	8
37	38	5
83	84	5
88	88	10
99	102	2
68	68	9
32	94	3
60	60	5
56	56	7
91	91	10
23	28	5
33	36	5
61	62	10
105	106	4
101	101	5
50	50	2
32	33	3
21	22	6
22	22	9
73	74	3
72	72	6
56	57	4
45	46	5
80	80	8
53	53	11
37	37	9
111	114	2
37	39	1
23	23	15
62	62	9
49	51	1
99	99	12
62	72	1
66	66	2
53	54	8
21	21	13
59	60	3
104	109	3
30	30	8
87	102	3
111	111	12
87	87	8
85	97	1
56	58	3
50	71	1
86	86	1
67	74	5
54	56	4
22	29	1
21	66	3
77	77	7
31	31	14
91	101	1
68	69	3
98	99	1
72	73	2
28	29	3
106	106	10
75	75	10
91	102	1
84	84	5
88	89	5
58	58	10
32	46	1
85	85	10
75	91	3
74	75	1
41	42	3
75	105	3
110	110	14
73	73	9
83	108	1
86	88	4
108	109	1
76	76	11
65	65	6
67	68	6
107	108	3
30	31	3
65	72	4
61	75	2
63	63	12
78	79	6
40	57	3
39	40	2
108	108	5
80	81	3
98	98	6
43	50	1
27	27	9
98	107	4
68	72	1
65	71	2
64	64	5
100	100	3
64	75	3
43	44	1
20	87	3
55	56	3
70	94	2
26	27	3
51	52	2
42	44	3
65	66	3
29	44	1
75	90	2
24	25	2
20	47	1
28	30	1
36	43	2
27	28	3
92	93	3
93	95	2
101	102	1
59	59	2
78	80	1
106	110	1
114	114	2
33	34	5
76	79	2
82	84	3
73	94	1
113	115	3
69	71	2
47	78	2
23	24	2
29	38	1
67	98	4
19	19	1
49	53	2
32	34	2
110	111	3
73	75	1
99	101	4
41	78	1
25	26	2
90	90	2
71	72	2
57	57	4
65	90	2
83	88	3
48	49	2
37	41	2
51	69	3
67	67	3
44	47	2
108	110	2
39	42	1
34	97	3
24	37	2
107	113	1
42	62	2
70	98	2
88	90	4
19	87	1
41	41	7
52	54	1
50	51	3
95	96	2
55	55	6
32	36	1
20	53	2
56	93	1
104	105	7
69	70	3
64	66	2
66	68	2
35	35	3
34	35	1
62	86	3
94	95	1
54	57	3
43	82	1
24	24	7
33	95	1
94	96	1
97	99	1
21	49	1
41	52	2
104	110	2
95	97	3
24	31	1
19	22	1
30	83	2
42	43	2
39	48	1
57	87	1
35	36	2
41	51	1
60	87	2
85	86	1
57	89	1
19	20	1
43	95	1
96	97	1
36	73	2
45	79	1
46	51	1
49	50	2
80	85	1
37	112	1
51	98	1
62	87	1
52	55	1
114	115	1
22	27	1
50	52	1
89	90	5
87	89	2
93	97	2
96	106	1
31	33	1
42	47	1
55	57	1
103	106	1
93	107	1
68	70	1
26	28	1
20	46	1
33	35	1
44	46	1
46	47	2
63	75	1
64	65	1
44	56	1
54	69	1
80	93	1
