78	78	8
72	73	3
86	86	12
22	23	1
69	69	3
51	55	1
70	70	19
38	38	8
41	91	5
72	72	12
41	41	7
78	79	1
26	26	5
38	53	3
95	95	5
48	48	8
23	23	10
71	72	9
94	94	8
92	95	1
50	52	2
87	87	22
40	40	4
52	52	4
64	65	4
86	89	5
29	29	4
61	69	2
50	85	1
54	55	8
60	60	12
44	52	1
83	83	6
68	89	5
48	72	2
88	88	18
66	66	13
67	67	13
25	25	7
63	64	3
86	87	8
79	79	13
23	24	1
56	57	8
33	33	4
35	35	9
48	52	1
77	77	19
42	89	1
27	28	3
40	91	1
81	84	3
63	63	12
42	42	6
82	82	5
41	75	6
79	85	3
82	89	3
36	36	7
22	22	3
47	47	9
94	95	6
38	48	5
85	85	6
37	51	4
99	101	1
59	59	2
67	68	3
79	83	5
80	80	12
73	73	8
50	86	4
95	98	3
63	72	1
98	98	4
65	65	16
92	92	3
76	80	2
75	75	11
62	63	3
66	67	6
52	74	10
63	70	1
50	51	5
20	20	6
91	91	10
39	39	1
20	47	3
45	48	3
37	37	1
38	52	1
83	84	7
68	70	5
76	76	5
92	99	3
55	95	3
31	31	8
71	71	14
77	83	2
62	70	5
95	96	2
53	55	9
58	58	6
66	91	1
89	89	3
31	73	3
39	82	2
68	73	2
84	84	12
32	45	1
43	43	5
45	80	4
40	41	1
50	50	8
34	35	2
27	27	11
62	87	1
44	78	4
101	101	11
69	71	6
44	89	4
69	70	4
81	81	6
62	62	8
64	64	13
38	86	2
97	97	8
81	82	2
74	75	6
100	100	3
57	57	5
68	69	3
53	89	3
20	46	1
72	74	6
28	29	2
99	100	3
23	35	1
84	88	2
26	36	1
22	45	1
56	56	1
25	26	1
61	61	3
74	74	8
28	28	3
102	102	3
84	89	3
22	39	1
49	77	1
24	46	6
93	94	1
51	51	1
40	45	5
40	101	1
73	74	1
78	89	4
48	53	2
65	68	1
68	79	2
68	68	4
34	34	2
75	77	1
32	32	5
55	73	1
45	45	3
62	85	2
52	78	3
40	43	1
57	58	1
44	44	5
22	88	1
90	101	2
56	94	3
40	49	1
70	79	1
38	89	1
32	33	2
31	36	1
53	82	3
53	84	1
46	47	3
24	25	1
77	88	1
61	62	6
44	45	1
40	99	1
29	74	1
24	24	1
53	81	2
40	67	1
42	44	1
79	99	3
49	49	2
26	27	1
25	27	1
55	55	1
96	97	1
52	85	1
60	62	2
76	77	1
61	72	1
33	34	1
59	89	1
23	25	1
92	93	1
70	71	1
39	81	1
60	61	2
26	34	1
42	76	1
65	66	2
56	99	1
69	74	1
42	52	1
36	37	1
54	54	1
87	88	1
39	47	1
