64	77	2
29	43	5
101	107	4
110	110	4
65	65	3
74	75	2
52	55	3
3	29	5
92	92	3
128	128	12
69	78	4
127	127	4
116	116	4
5	5	3
8	9	1
88	106	3
94	94	2
69	75	2
56	56	8
32	32	3
69	81	1
121	127	2
32	49	2
41	41	1
104	118	2
99	107	3
73	97	2
6	8	3
102	124	2
86	90	1
7	7	2
127	128	2
95	110	1
108	112	1
99	99	1
64	64	5
83	98	2
4	5	2
90	93	1
110	111	2
117	117	3
108	131	2
80	80	5
104	104	2
81	82	6
19	20	2
112	112	1
71	88	2
112	116	2
91	92	3
57	57	3
21	24	2
127	133	2
55	71	4
42	56	2
70	85	2
88	104	5
129	129	2
110	113	2
15	15	2
42	43	5
39	66	1
32	37	6
65	69	2
81	97	2
126	126	4
4	22	4
47	66	1
98	101	2
68	68	1
115	115	3
80	84	12
65	82	5
106	124	2
44	48	1
14	14	3
75	75	3
83	84	4
127	132	3
91	101	8
89	90	5
63	63	5
42	42	4
2	2	7
14	23	3
98	99	3
9	10	2
48	58	1
51	51	1
105	126	3
130	130	1
123	127	1
25	32	3
62	65	3
125	125	3
23	33	1
114	117	2
109	111	2
85	88	2
89	98	3
92	99	3
39	39	1
1	9	2
2	3	1
70	71	4
74	117	3
69	69	2
61	67	1
65	99	2
44	60	1
10	12	1
69	70	1
81	99	2
91	91	3
11	11	1
18	19	1
41	56	1
100	100	1
85	90	2
85	85	3
48	48	4
11	24	3
97	112	2
27	27	7
47	62	1
6	6	3
56	57	1
114	132	3
30	30	2
90	98	1
17	19	2
26	26	2
58	68	1
44	45	2
109	114	3
5	14	1
23	23	1
24	24	5
83	83	1
9	9	2
3	16	2
28	28	1
74	76	1
108	133	1
62	63	2
88	105	1
38	52	1
58	58	1
10	23	1
63	64	1
39	44	2
103	103	3
102	102	5
7	9	1
121	121	5
3	3	5
99	106	4
121	122	1
74	94	2
48	56	1
124	132	1
96	104	1
107	123	1
66	75	2
15	21	1
49	59	1
58	70	3
31	32	1
120	122	1
131	133	1
78	78	2
79	95	2
22	37	1
5	27	3
86	97	2
45	48	2
115	116	1
95	97	1
70	91	1
46	46	1
33	34	1
25	25	1
8	13	2
64	66	1
38	41	2
13	21	2
8	8	2
102	105	1
30	32	1
33	33	1
100	117	1
96	97	1
109	122	2
82	82	2
17	17	2
64	74	2
133	133	1
66	70	3
96	106	1
110	122	1
96	96	1
116	127	1
57	91	1
0	4	1
30	31	1
92	115	1
81	81	2
107	109	1
82	98	1
19	19	1
113	114	1
108	123	1
49	50	1
129	133	1
48	60	1
59	59	1
108	108	1
55	67	1
92	107	1
2	15	1
