74	74	2
190	190	10
220	220	9
185	185	9
5	67	3
95	95	9
200	200	12
71	72	2
183	183	4
62	63	4
101	101	2
85	85	7
33	33	4
238	238	2
46	46	4
226	226	8
60	60	1
32	32	7
199	199	5
157	157	8
151	205	3
230	231	2
120	120	3
83	84	5
155	155	2
46	47	2
70	70	2
9	202	4
80	80	2
244	244	6
92	92	8
223	223	2
180	180	7
204	204	6
166	167	2
231	232	3
62	62	7
63	63	3
77	78	2
19	20	6
205	205	3
29	29	11
233	234	3
150	150	7
59	59	4
15	15	10
224	224	6
60	67	2
53	54	11
46	118	4
210	210	3
164	164	3
66	72	1
8	8	3
61	69	1
6	6	11
99	99	4
2	2	7
49	52	2
37	37	5
176	176	2
245	246	2
22	89	3
156	156	6
226	232	5
31	31	5
183	184	3
214	214	3
38	40	7
79	80	3
8	236	1
42	43	1
166	166	4
82	82	5
64	64	3
201	201	9
117	117	3
109	109	2
182	182	3
86	86	5
145	161	3
203	203	4
22	23	3
187	187	5
211	211	3
51	51	1
153	153	5
22	22	5
44	44	11
77	77	7
24	25	6
218	218	10
66	66	3
172	172	1
193	193	5
173	173	4
39	39	3
2	3	2
107	107	4
103	108	7
212	212	2
208	208	2
36	38	4
77	79	2
1	19	2
192	192	4
204	230	2
100	100	3
110	110	8
54	54	3
61	61	3
113	114	3
1	1	5
49	49	3
88	88	6
241	241	5
11	11	2
27	27	8
196	196	14
233	233	1
175	175	6
248	248	4
40	40	4
236	236	8
99	100	2
43	44	2
113	113	2
59	61	1
240	240	1
4	4	1
29	40	1
2	16	2
39	40	1
98	98	2
2	17	1
165	165	4
162	162	6
171	171	8
118	118	3
163	164	4
230	230	9
184	188	2
194	194	3
34	35	4
168	168	1
58	58	2
84	85	1
94	95	1
3	4	1
216	216	7
154	154	10
184	222	2
53	53	3
235	236	4
246	246	10
10	10	10
243	244	1
188	189	3
105	105	3
89	90	1
234	234	2
200	201	3
216	218	2
56	56	11
158	158	2
110	116	6
102	102	2
1	3	2
77	104	1
87	87	1
235	244	2
195	195	3
169	180	1
219	219	2
161	161	4
108	108	2
36	36	3
242	242	7
115	116	1
75	75	1
66	71	2
198	199	2
112	112	8
83	83	4
172	173	5
167	167	2
26	26	1
198	198	3
12	12	4
67	67	9
5	5	3
31	32	2
23	26	1
17	17	1
48	48	1
4	5	1
91	91	2
229	229	4
5	59	6
72	73	5
65	65	3
61	68	1
104	106	2
96	97	3
237	237	5
103	103	6
5	60	1
206	206	1
24	24	2
16	16	3
179	179	2
217	217	9
93	93	3
93	95	2
64	65	1
119	119	7
2	6	2
222	222	4
240	248	1
102	103	5
170	170	1
25	25	5
221	223	1
11	12	1
146	152	1
15	16	1
177	178	2
145	145	4
191	239	2
187	188	1
69	69	1
84	84	1
181	182	3
7	7	2
186	187	3
17	234	4
43	43	5
71	71	4
91	92	5
227	227	5
92	93	1
16	23	2
61	62	1
96	96	1
18	19	1
79	82	1
81	82	3
70	82	3
72	72	1
207	235	1
201	202	1
245	245	1
4	14	1
221	221	3
231	231	1
114	114	1
214	216	1
87	88	3
160	160	2
57	58	3
197	197	2
3	3	3
144	145	2
70	84	2
17	18	2
12	15	4
118	119	3
74	75	2
159	159	8
90	91	2
227	228	1
27	28	1
110	111	1
178	178	2
225	226	1
207	208	1
209	209	2
41	41	4
21	21	1
79	83	1
11	201	1
115	115	1
184	184	2
111	112	1
42	42	3
151	151	1
50	50	3
158	159	1
235	235	1
76	84	1
168	231	3
32	33	1
68	88	3
228	228	2
216	219	1
106	106	1
47	47	3
189	246	1
65	66	1
9	9	2
89	89	3
76	83	3
6	12	1
185	186	1
213	213	1
149	149	1
169	170	1
39	42	1
30	30	3
237	240	1
237	239	1
110	112	1
177	177	2
76	76	2
35	35	4
146	146	2
40	42	2
221	222	1
33	34	1
216	228	1
34	34	1
20	20	2
168	169	1
73	73	1
176	177	1
202	202	2
240	243	2
23	87	1
78	78	1
248	249	1
1	2	1
78	107	1
68	70	1
211	212	1
215	215	1
244	245	1
13	13	1
207	236	2
225	225	1
243	246	1
95	96	1
79	79	1
55	57	1
189	189	1
159	160	1
154	155	1
14	14	2
182	183	2
163	163	1
178	195	1
214	220	1
62	68	1
218	219	1
247	247	1
37	38	1
221	224	1
188	192	1
