65	66	5
35	89	6
78	78	45
67	67	17
71	72	3
65	65	25
54	54	7
72	74	6
91	94	5
63	86	2
47	47	2
25	25	1
86	89	2
79	79	11
62	62	18
76	76	16
68	68	16
72	72	10
49	49	3
63	70	4
97	97	6
78	81	2
60	68	5
92	92	4
66	66	17
87	87	12
102	102	1
86	87	8
79	84	2
83	85	2
51	79	7
85	85	12
77	77	26
92	99	1
25	26	4
43	43	5
27	27	14
63	63	35
51	51	10
41	41	12
48	48	9
60	100	2
60	60	14
31	38	2
31	40	3
42	42	14
35	35	13
76	85	9
76	77	15
95	97	3
52	101	3
75	75	15
69	69	10
63	69	3
70	72	1
52	91	3
74	74	26
65	68	1
84	84	13
74	86	1
51	52	3
57	60	2
77	78	3
101	101	8
81	81	11
37	85	3
31	101	5
96	97	3
71	71	32
64	64	30
89	89	26
52	53	4
70	71	9
34	100	1
61	87	2
63	71	3
34	34	4
84	89	4
87	88	3
45	48	1
58	101	3
31	31	5
99	99	5
92	95	1
79	80	17
91	91	7
45	45	5
70	70	13
82	82	10
79	97	4
96	96	4
50	51	5
90	90	5
65	75	5
26	26	7
31	100	2
93	93	11
44	44	13
100	100	12
33	33	14
23	23	3
50	50	8
93	94	4
83	83	13
40	40	7
36	36	10
94	94	6
101	102	1
92	97	4
28	28	2
97	98	4
27	28	1
37	37	7
45	47	1
36	37	2
89	90	3
40	52	1
65	69	3
52	52	2
64	76	3
51	86	2
32	32	4
83	86	1
61	89	1
95	95	8
32	99	2
46	46	10
66	75	2
57	58	7
25	68	3
26	28	7
45	86	2
88	89	5
91	95	5
38	101	1
66	73	3
84	88	1
65	77	1
57	57	8
88	88	12
32	89	2
33	35	4
61	61	7
29	29	1
86	86	5
68	76	1
66	69	7
68	69	2
69	70	6
47	48	3
58	58	11
73	73	4
48	100	5
22	46	1
66	67	4
32	39	1
65	71	2
80	80	12
63	64	3
67	68	3
56	56	1
67	69	4
77	85	3
73	74	2
25	62	4
71	73	2
78	80	1
50	63	2
22	24	2
98	98	4
34	35	2
39	39	5
59	59	5
78	79	5
62	85	1
38	38	7
92	93	1
40	41	4
63	87	1
24	25	1
60	61	2
95	99	3
81	82	5
74	75	8
25	94	1
66	71	5
45	50	2
27	99	4
31	32	2
21	25	1
35	36	2
80	98	1
100	101	3
72	73	1
46	92	1
35	37	1
85	86	2
91	92	1
96	99	1
40	100	3
78	102	1
26	27	2
40	82	2
55	55	5
92	98	1
36	38	1
62	84	1
22	25	1
53	53	2
68	87	1
79	83	1
30	30	1
80	81	2
71	86	1
53	55	2
69	89	1
51	78	1
22	26	1
72	75	2
63	68	2
30	67	1
36	100	1
30	99	1
64	65	1
99	100	1
