142	142	9
152	153	3
161	161	4
32	32	6
179	179	5
98	98	5
112	115	1
154	154	3
107	107	8
65	65	2
21	23	1
10	40	2
142	143	3
155	157	3
133	134	3
1	1	11
124	124	11
87	87	2
29	32	4
169	169	10
14	78	5
153	154	5
27	27	6
74	83	1
10	41	4
31	31	4
146	146	8
31	34	2
0	0	10
178	178	3
120	120	3
0	1	2
168	171	2
95	95	5
98	147	1
33	33	1
178	179	1
157	157	8
129	129	2
168	168	9
128	128	4
24	27	1
105	105	2
173	173	9
102	125	2
111	111	5
63	64	3
177	178	2
59	59	2
143	144	3
3	3	7
83	83	2
63	105	2
75	128	2
130	130	7
90	90	10
162	162	7
122	122	5
74	77	1
105	107	3
127	152	2
163	163	10
24	42	1
97	98	4
165	165	5
142	152	2
170	170	7
140	140	1
53	105	4
72	123	1
56	56	5
180	180	1
165	166	3
28	28	2
38	38	5
164	164	3
10	10	7
64	65	8
78	78	4
115	115	4
126	126	10
75	75	4
40	40	3
58	62	1
144	157	2
137	137	3
143	148	3
62	62	3
88	88	4
42	42	3
139	140	2
88	92	3
131	131	1
101	153	1
72	72	4
84	97	1
11	16	6
77	77	5
93	94	2
91	91	6
53	54	1
164	166	3
171	171	2
154	155	3
97	101	3
85	89	2
99	101	1
123	123	1
57	62	4
139	139	5
77	78	3
151	151	6
124	125	2
92	94	4
159	159	6
64	64	1
134	134	8
97	99	1
82	82	4
18	19	1
148	148	4
14	15	2
167	170	1
16	17	2
160	163	1
49	51	3
32	114	2
67	67	2
55	108	1
16	42	7
158	158	2
160	160	3
56	124	1
53	53	2
77	124	3
35	38	6
13	14	1
132	132	2
15	15	2
80	82	1
138	138	12
90	93	1
95	145	1
6	6	3
76	76	2
116	116	5
34	34	4
22	44	4
74	74	7
116	119	3
127	127	4
35	35	4
17	17	1
132	133	2
144	145	6
51	120	3
13	13	4
91	167	4
86	86	7
75	77	1
146	148	3
86	88	2
63	66	2
129	130	1
166	166	3
60	60	4
88	89	4
12	20	1
41	41	10
39	40	2
44	44	4
23	23	2
66	104	1
54	54	3
98	151	1
114	115	3
53	109	2
26	26	7
121	121	1
7	9	1
114	114	2
76	78	1
177	177	2
130	131	5
16	16	3
145	148	3
67	68	3
31	32	1
92	93	6
37	37	6
36	36	2
167	167	4
76	124	3
131	132	2
91	92	2
121	123	1
12	12	1
95	96	1
40	41	1
84	84	2
151	152	1
116	117	1
106	106	3
86	89	1
143	143	1
113	113	2
155	156	3
110	113	1
18	18	1
144	144	2
102	129	3
112	112	3
8	8	2
103	103	4
15	16	1
176	176	3
121	122	1
7	8	2
2	2	1
13	20	3
86	87	1
108	108	2
156	156	3
111	113	3
87	92	2
88	94	1
138	139	1
71	76	1
101	101	2
144	164	1
93	93	2
28	29	3
55	124	1
94	94	6
123	124	1
9	9	3
133	133	2
106	107	3
159	160	1
11	42	1
68	68	4
52	52	1
80	83	1
72	125	1
79	97	2
79	80	1
25	25	2
175	178	1
103	104	1
143	146	1
52	58	2
22	22	2
102	102	1
55	122	4
117	117	1
67	129	1
119	119	1
44	82	2
37	38	4
141	150	3
62	106	1
175	175	2
71	123	1
177	179	1
174	174	2
26	28	2
97	97	2
39	39	1
51	52	2
89	89	3
73	74	3
118	118	2
27	34	1
54	57	1
128	129	1
52	53	2
55	55	1
150	150	3
137	138	1
49	120	1
2	3	1
24	26	2
164	165	2
104	104	1
27	114	3
26	27	1
45	45	1
43	43	4
21	21	3
108	110	1
66	67	1
29	29	2
76	141	1
118	119	1
142	154	2
58	60	1
144	163	2
166	167	1
71	124	1
84	96	2
63	63	3
149	150	1
25	26	1
66	66	1
145	145	1
11	22	1
81	82	1
161	163	1
81	81	2
42	120	1
35	36	1
32	33	1
153	153	1
9	28	1
77	96	1
4	4	1
147	151	1
135	135	1
42	43	1
79	79	1
167	169	1
96	97	1
149	149	1
73	102	1
89	97	2
136	136	2
71	104	1
78	150	1
71	71	1
