51	51	20
82	83	5
22	22	7
75	75	3
79	79	9
55	66	3
66	66	26
81	81	8
49	49	7
86	86	7
60	62	3
9	9	12
52	53	12
2	28	3
0	0	6
53	54	8
7	73	1
26	26	7
19	19	3
68	68	20
6	6	11
76	76	15
27	27	5
7	7	8
59	59	15
10	27	2
20	22	5
74	86	5
13	13	16
34	34	11
74	74	18
25	26	5
20	20	11
85	85	8
65	65	14
12	12	12
10	10	9
25	25	6
5	10	1
59	60	4
30	30	3
64	64	8
53	53	6
87	87	9
22	23	3
82	82	12
67	67	8
57	57	2
77	77	10
62	64	3
4	28	3
76	77	2
8	8	23
54	54	9
69	69	13
58	58	14
56	56	15
89	89	19
85	86	5
50	51	6
47	47	9
19	72	4
60	60	8
9	53	1
79	80	2
60	65	4
78	79	7
11	27	2
5	6	6
4	4	12
59	79	2
11	11	15
9	17	1
78	78	9
15	15	4
20	21	3
55	55	7
51	52	2
90	90	5
20	54	1
65	66	5
19	53	5
73	73	15
72	73	9
15	20	3
25	27	9
5	17	1
48	49	5
80	80	11
1	1	8
8	73	1
62	62	10
83	83	5
79	82	2
19	48	2
7	10	4
24	25	3
19	66	5
17	17	5
11	46	1
50	50	7
70	88	1
8	24	3
60	61	5
77	78	4
2	2	3
58	81	1
52	52	17
3	3	6
65	72	3
31	31	5
3	4	6
78	87	1
24	24	3
81	82	5
21	21	9
5	5	13
3	48	4
82	89	2
46	47	2
62	63	4
17	26	1
18	19	3
10	31	1
6	8	3
70	70	10
72	72	2
48	48	2
66	67	2
11	56	1
22	24	4
88	89	3
61	61	1
4	5	2
16	16	3
73	74	4
52	75	2
70	74	2
11	86	2
57	85	2
19	20	4
9	11	1
86	87	4
7	32	1
47	48	4
7	8	3
79	89	1
84	86	2
23	23	2
57	83	2
31	64	1
58	60	2
56	69	1
28	28	10
14	17	2
59	63	3
8	9	3
11	64	2
18	72	4
12	52	1
29	53	2
88	88	4
49	54	2
48	52	1
61	75	1
53	56	2
24	58	2
32	33	1
48	74	1
25	55	1
9	10	1
77	79	2
21	23	1
7	9	2
13	46	3
33	33	3
34	63	1
14	14	6
8	72	1
50	87	1
47	52	2
47	53	1
47	64	2
27	28	3
79	81	1
63	63	3
10	14	2
20	29	3
29	30	1
34	64	1
19	23	3
3	46	1
6	56	2
50	55	1
5	56	1
55	68	1
13	16	1
83	84	1
13	14	1
5	23	2
18	18	2
50	52	2
84	85	1
78	80	2
32	32	1
26	32	2
33	34	1
12	28	1
2	4	1
10	17	2
87	88	1
7	24	1
71	71	2
16	17	1
8	74	1
14	15	1
71	74	1
60	81	1
0	1	1
59	66	1
10	66	2
56	57	1
54	79	1
