195	196	1
43	44	2
184	185	7
174	175	2
115	116	4
110	111	1
183	183	3
193	193	1
115	115	7
167	167	7
184	184	5
30	30	10
70	149	2
187	187	2
47	47	14
80	84	4
37	38	10
44	44	10
229	229	7
9	10	3
137	138	1
172	197	1
20	20	6
80	80	14
136	136	5
32	75	2
53	53	6
131	131	2
200	200	7
24	24	8
7	7	5
238	238	3
76	76	6
105	105	18
107	107	2
127	129	4
13	13	6
2	2	16
64	64	8
173	191	2
119	120	3
13	14	1
37	37	5
66	66	5
233	233	11
125	125	5
18	18	18
54	55	2
188	210	4
156	157	4
226	226	4
227	227	8
169	169	6
177	179	1
166	167	2
131	135	7
101	102	3
86	86	19
195	195	2
39	39	19
0	0	5
134	134	8
204	204	7
49	50	4
161	161	5
19	19	5
0	4	1
119	119	16
210	210	8
232	232	11
144	144	6
117	117	3
148	148	7
10	11	16
218	218	6
150	151	5
119	130	1
145	146	8
54	54	5
28	29	6
153	153	6
208	208	4
216	216	9
230	231	9
242	242	5
176	178	5
25	31	3
191	191	4
51	51	5
120	121	4
166	166	5
177	177	10
144	145	3
113	113	12
43	43	10
71	71	1
104	104	7
231	239	2
156	156	5
123	123	4
77	77	6
235	235	8
40	40	8
211	212	5
33	33	6
58	59	5
21	21	8
108	108	6
201	202	2
225	225	8
89	89	6
214	215	8
56	75	5
149	151	3
100	100	7
56	56	8
228	228	2
138	157	2
1	1	3
97	97	10
105	107	5
114	114	6
103	103	1
214	214	5
197	200	1
220	220	6
141	141	5
159	159	4
27	27	7
213	213	8
202	204	5
95	100	2
191	192	2
225	226	2
231	232	5
234	235	4
35	35	7
143	145	2
72	72	3
168	168	4
155	155	13
49	49	6
6	20	1
170	170	3
9	9	7
189	189	4
232	233	1
95	95	4
157	158	2
4	159	2
211	211	5
51	68	2
83	83	2
173	174	2
52	54	3
6	21	1
230	238	5
239	239	3
46	46	4
132	133	2
109	110	1
85	85	4
24	25	3
63	64	2
126	126	10
28	28	12
80	83	3
38	38	9
57	57	9
99	99	6
36	36	12
197	198	3
164	164	8
112	119	4
30	227	1
16	16	7
183	191	2
81	81	3
209	209	10
207	208	3
4	4	8
118	119	2
14	33	1
7	8	3
68	68	8
207	207	9
81	82	4
99	105	4
84	85	2
128	128	7
45	45	2
50	50	8
127	127	14
209	226	4
48	72	3
74	75	3
101	101	2
88	88	4
181	181	7
173	181	1
65	70	3
84	84	3
116	116	5
219	219	4
142	142	5
124	125	3
80	81	2
197	199	1
205	206	5
226	228	3
194	194	6
124	124	3
12	13	2
74	74	4
42	42	5
198	198	4
163	163	3
102	102	2
173	173	4
33	77	4
206	206	6
154	154	6
62	62	7
98	98	1
70	70	2
52	52	7
199	200	7
22	22	4
182	182	10
32	33	2
26	27	2
8	8	4
17	17	7
7	12	2
60	62	3
226	227	3
203	204	4
176	177	6
197	197	6
172	172	3
110	110	1
222	222	5
241	241	1
24	31	1
97	98	1
161	162	3
75	75	4
181	182	1
29	30	3
149	150	2
47	48	3
10	10	2
34	34	1
15	15	3
176	176	3
32	32	2
79	83	1
231	231	4
159	163	3
203	203	5
48	48	1
180	180	3
136	151	2
82	82	4
188	188	7
31	31	3
139	139	3
106	106	5
130	130	2
151	151	2
70	147	5
165	165	6
183	184	1
112	112	1
134	140	1
240	240	4
234	234	3
50	144	4
29	29	2
41	41	3
28	30	3
68	69	3
79	79	1
85	86	3
118	118	4
192	193	1
51	52	4
80	88	3
152	152	5
224	224	1
132	132	4
224	225	2
0	2	1
19	22	2
41	42	3
191	196	2
161	167	2
23	23	3
65	65	4
138	139	4
137	137	1
67	67	2
202	202	2
52	53	1
53	88	3
73	73	7
77	79	2
121	122	1
56	88	2
3	3	6
146	146	1
72	73	3
79	80	2
97	108	2
100	103	4
69	69	1
171	173	3
159	160	4
78	78	1
174	174	2
192	192	3
240	241	4
66	68	1
161	180	1
95	96	1
49	143	1
56	89	2
221	221	1
25	26	2
14	14	2
127	133	4
12	12	3
204	205	4
229	230	1
207	216	2
138	162	1
24	29	1
230	230	3
135	135	1
69	70	1
133	133	6
143	143	3
116	117	3
160	160	1
190	190	3
236	236	2
143	155	1
163	164	3
122	122	1
199	208	1
175	175	2
188	189	2
105	106	1
140	140	4
58	58	3
165	166	1
4	168	1
152	153	2
31	34	2
13	34	2
150	150	2
117	118	1
122	123	1
145	145	4
223	223	3
189	190	1
107	108	1
21	22	2
105	115	2
237	237	1
234	237	1
82	83	2
212	213	1
26	26	2
71	72	2
186	187	1
116	118	1
231	237	1
69	144	1
114	115	2
180	182	1
66	67	1
157	157	2
127	147	1
162	163	2
0	5	1
131	132	1
184	191	1
222	223	1
179	179	1
55	56	1
172	173	2
6	6	4
237	238	1
204	206	1
5	5	1
117	119	1
217	218	1
183	186	2
175	176	2
192	196	2
197	218	1
11	12	1
176	179	1
199	199	1
215	215	1
64	69	1
136	140	1
34	35	1
187	190	1
109	109	1
161	166	1
234	236	1
80	82	1
33	78	2
200	221	1
201	201	1
76	77	1
217	217	2
54	75	1
6	9	1
221	222	1
178	179	1
40	41	1
15	44	1
125	126	1
196	196	1
65	66	1
64	110	1
208	211	1
61	62	1
208	210	1
142	157	1
58	66	2
