101	101	3
6	17	5
79	81	1
22	22	2
127	127	4
123	124	1
124	124	8
104	104	1
10	33	4
3	63	4
106	107	3
70	71	2
28	28	3
106	125	1
65	65	3
81	81	2
5	65	6
72	116	2
87	87	1
122	126	5
17	31	1
130	149	3
17	17	3
146	149	6
94	94	4
111	112	1
133	133	1
16	16	15
55	55	4
37	37	6
13	63	1
35	37	2
146	147	1
149	150	1
11	11	2
145	145	2
24	37	1
113	114	5
75	75	3
145	146	2
142	142	4
135	135	1
68	106	2
149	149	1
23	23	16
82	82	1
51	51	2
51	53	7
34	34	3
19	19	8
78	82	1
50	118	3
77	77	2
17	33	4
120	128	1
9	9	3
121	121	1
131	131	7
141	149	2
136	136	3
48	48	3
8	8	4
74	74	2
42	42	3
92	108	3
82	128	3
13	15	1
43	43	2
47	135	1
110	139	2
39	41	1
3	3	1
150	151	5
43	103	1
75	77	3
92	104	3
56	56	3
47	47	4
97	97	2
3	65	2
118	118	8
38	38	4
111	111	3
63	63	3
90	102	2
6	34	1
103	136	2
28	39	7
84	93	2
151	151	1
106	106	3
119	119	1
12	12	2
89	103	1
8	31	2
14	14	3
26	26	5
46	46	2
66	67	1
144	146	1
80	112	2
67	67	1
93	93	4
72	72	2
140	140	3
38	41	2
123	123	3
86	133	1
13	13	3
57	57	3
109	109	5
104	107	1
115	116	2
128	128	1
73	73	2
140	142	1
54	54	1
77	117	2
83	83	6
53	53	2
15	16	1
28	29	2
99	102	1
41	41	4
24	24	2
141	141	1
103	103	2
133	153	3
152	152	4
121	122	5
94	99	1
78	111	3
17	19	1
29	29	1
134	134	3
39	39	1
120	138	1
38	42	1
138	138	2
44	51	2
45	119	2
138	139	2
69	69	1
83	139	1
147	147	1
64	64	1
148	148	2
75	117	2
25	29	1
35	35	2
125	125	1
11	19	1
124	126	1
108	108	1
13	14	1
20	20	1
100	140	2
45	46	1
122	125	1
90	90	2
20	23	1
115	115	1
144	144	1
12	13	2
126	127	4
47	53	1
78	78	2
70	70	3
129	143	2
29	66	1
132	153	1
44	129	1
27	28	1
150	150	1
32	33	1
88	88	1
130	150	1
33	33	1
40	40	1
45	135	1
105	106	1
96	97	1
110	120	1
137	137	1
94	98	1
99	100	1
109	110	1
73	116	1
27	87	1
148	149	1
24	40	1
