9	9	7
38	38	6
23	23	5
64	64	7
72	72	2
37	37	5
112	112	8
111	111	13
60	60	12
118	118	4
60	63	6
68	81	4
117	118	8
77	77	4
109	109	18
91	91	6
33	33	3
45	81	2
39	39	9
18	76	4
110	110	10
13	13	8
102	102	8
85	85	14
29	29	12
78	80	6
133	133	8
92	112	6
126	126	6
98	98	14
16	27	1
84	85	1
108	109	5
124	131	3
40	40	5
76	77	3
79	79	8
103	103	8
17	17	10
134	134	10
15	15	9
96	97	5
26	26	5
106	106	5
30	39	1
99	99	6
56	57	1
88	91	2
11	11	11
133	134	10
112	115	2
24	30	2
80	80	4
126	127	1
131	131	3
19	30	6
120	120	15
72	120	3
25	25	4
62	66	1
105	108	1
62	62	13
0	1	3
100	100	9
96	96	7
2	2	6
92	92	3
115	116	5
30	30	5
70	74	3
26	27	4
123	123	9
57	91	2
75	76	6
129	129	11
58	58	5
18	19	3
58	59	3
12	12	6
7	7	6
36	36	6
101	102	2
61	61	10
22	22	8
1	1	7
129	130	6
43	43	6
6	6	2
112	134	3
42	90	2
101	101	9
124	124	10
42	42	3
8	8	11
64	90	2
121	121	2
88	88	7
27	27	10
16	84	1
39	40	1
5	5	6
117	117	1
125	126	6
127	127	7
78	78	5
57	57	9
123	133	2
116	118	4
87	87	2
36	37	11
99	100	1
6	7	3
119	119	9
81	81	3
65	66	4
114	133	2
83	83	3
128	129	3
116	117	4
77	78	7
14	14	7
81	82	1
20	20	2
4	4	4
90	91	5
22	34	3
68	68	3
97	97	5
66	66	2
118	125	1
131	132	4
108	108	5
124	125	2
66	67	2
26	42	3
30	64	3
96	103	3
18	78	3
45	45	21
126	129	2
25	30	3
6	13	2
33	40	1
116	116	10
18	75	2
97	98	6
87	88	4
24	43	3
16	16	4
114	114	4
92	93	3
92	113	4
89	97	2
74	75	3
132	132	3
82	82	5
125	125	7
107	108	6
107	107	7
122	122	4
26	43	1
72	74	5
121	123	4
93	93	7
19	19	3
113	113	8
19	20	2
70	80	3
59	59	6
128	128	8
84	84	5
112	114	1
30	42	3
70	71	4
10	11	1
35	43	7
105	109	1
67	67	3
105	106	5
90	113	1
109	110	1
34	34	9
68	77	2
98	115	5
32	32	11
8	9	5
6	8	3
32	33	2
78	81	1
35	35	3
94	114	2
91	92	7
7	14	1
123	124	3
0	32	1
55	58	1
18	18	3
48	48	3
75	75	6
65	65	4
41	50	1
5	7	1
60	65	2
76	76	5
28	37	2
84	96	2
71	72	3
5	6	4
47	47	3
63	71	1
73	73	5
63	63	1
64	65	4
114	131	2
35	37	3
3	3	2
90	90	5
21	21	1
40	109	1
27	31	1
100	101	1
132	133	2
41	86	1
9	12	1
69	74	1
112	113	3
131	133	4
69	69	1
130	130	3
98	101	2
23	27	5
29	30	3
105	105	2
27	57	1
26	31	2
44	45	2
2	3	1
98	99	1
14	29	1
28	28	4
67	75	1
39	41	1
113	116	2
46	49	4
35	36	1
104	104	4
25	31	3
74	74	7
80	81	3
34	58	1
44	44	1
79	82	2
95	100	2
20	21	1
75	84	1
19	78	2
19	82	1
38	112	3
96	100	1
61	65	1
91	97	1
78	79	2
23	25	2
40	43	1
10	10	4
22	44	2
55	56	2
0	0	3
117	133	1
95	95	7
91	94	1
77	84	1
109	111	1
37	105	1
26	92	4
64	93	1
81	95	2
118	120	1
28	30	1
40	41	1
0	47	1
41	58	1
102	129	1
31	31	2
115	115	4
124	127	1
49	56	1
78	83	1
61	62	1
106	107	1
70	70	1
16	32	2
3	4	3
125	128	1
92	105	2
121	122	1
94	94	1
83	84	2
40	58	1
72	118	1
82	83	2
27	38	1
115	129	2
103	104	1
106	109	1
69	80	1
67	76	1
86	88	1
110	122	1
59	60	1
110	121	1
11	12	1
31	34	1
57	58	1
34	41	1
62	63	1
119	120	1
85	97	1
