73	83	9
92	92	24
79	79	53
82	82	16
68	68	31
60	85	4
71	71	42
72	72	36
56	56	31
73	73	46
33	33	20
48	48	22
55	56	8
41	41	18
71	72	1
77	77	38
23	24	2
88	88	19
66	66	59
90	90	27
98	98	15
43	43	12
24	25	1
93	93	22
51	51	28
89	89	40
65	65	50
40	50	3
70	70	42
22	22	9
50	51	12
67	67	42
50	52	16
74	74	45
70	71	4
69	70	15
51	52	19
87	88	12
31	72	1
62	89	4
93	100	2
52	52	38
59	69	4
39	39	19
32	32	6
67	68	22
63	63	46
58	58	20
29	29	10
42	42	24
45	45	11
44	44	26
36	37	4
40	57	3
28	28	6
48	49	5
42	43	10
75	75	38
69	69	23
87	87	19
34	53	7
85	85	29
67	69	5
84	86	1
80	80	32
44	45	3
33	35	1
27	28	13
62	62	28
38	38	10
91	100	6
24	92	2
99	100	6
24	24	6
80	84	1
84	84	19
74	91	2
80	83	1
78	78	48
50	50	21
73	77	1
45	46	1
59	59	21
91	91	19
25	25	18
92	97	10
53	53	12
61	62	4
73	79	3
83	85	3
30	30	6
48	85	2
61	61	26
55	55	13
79	81	3
54	56	1
49	49	12
57	58	5
60	60	5
79	80	11
55	57	3
23	25	2
96	96	12
97	97	14
83	83	37
34	55	2
57	57	15
81	84	4
22	23	6
90	91	2
35	36	8
81	83	2
33	34	6
64	64	45
32	43	3
76	76	61
95	97	3
49	57	1
31	32	2
40	40	17
75	76	3
63	64	22
81	82	6
31	44	5
80	81	9
77	78	13
95	95	14
80	88	3
31	31	15
101	101	15
59	60	5
76	77	17
99	99	30
78	79	9
24	27	1
34	34	7
48	50	4
65	78	2
56	57	6
41	51	4
92	101	2
45	48	1
96	97	1
36	36	4
85	99	7
58	59	6
86	86	9
93	99	1
47	47	7
41	42	6
34	35	6
66	67	9
46	46	9
75	77	3
85	86	4
66	68	5
60	61	6
94	94	15
101	102	3
35	35	5
34	50	6
81	87	2
64	72	4
92	95	3
25	28	4
31	40	4
34	44	4
62	63	3
73	74	7
35	57	4
63	68	6
49	50	1
86	88	4
68	90	1
62	81	2
23	28	1
72	73	2
58	68	7
37	38	2
47	49	1
43	100	3
81	81	14
33	53	2
80	86	4
98	102	1
40	41	2
62	71	4
37	43	1
54	54	4
68	70	5
47	48	14
74	75	5
88	89	5
37	37	5
65	66	7
93	94	5
91	102	5
42	44	2
39	40	2
29	39	3
77	79	3
91	92	1
35	37	3
23	23	1
94	98	10
91	99	4
27	27	4
43	85	2
90	101	2
90	100	5
84	87	1
73	102	4
43	44	7
61	81	2
29	33	2
81	85	2
69	75	1
82	84	4
62	84	2
73	76	3
82	86	2
26	27	2
45	50	1
52	57	2
27	92	4
33	54	2
62	64	5
24	28	2
64	71	1
26	26	5
40	52	2
100	100	3
100	101	3
25	27	2
68	69	1
68	75	1
30	86	2
48	82	3
89	92	3
71	75	1
59	85	2
25	26	3
31	77	3
32	79	3
31	51	2
83	84	2
42	77	3
62	70	4
45	69	2
38	54	2
62	66	3
94	95	1
64	65	4
45	85	1
52	53	2
32	48	2
50	53	3
66	70	1
48	53	1
67	77	3
36	39	1
70	74	1
86	87	1
64	78	3
72	80	1
33	49	1
49	81	1
84	89	2
20	24	1
36	43	1
33	50	2
91	93	1
30	31	1
63	85	3
62	67	2
69	101	2
22	25	5
49	85	1
75	78	3
46	47	5
61	80	1
34	54	1
89	101	2
72	78	5
44	60	1
98	101	1
46	102	4
64	66	2
73	75	1
102	102	4
34	42	1
85	91	1
38	40	1
31	39	1
36	54	2
63	79	1
79	82	1
86	89	2
58	69	1
72	79	4
33	55	1
67	72	1
28	39	1
97	98	1
32	42	1
53	54	1
32	50	2
69	74	1
20	20	1
43	51	1
76	78	1
32	45	2
66	75	1
22	24	1
32	86	1
74	78	1
34	43	1
34	41	1
48	55	1
