139	139	6
79	94	5
79	79	4
137	147	5
180	187	1
74	74	2
86	112	4
14	17	5
62	81	3
38	38	3
53	53	2
149	149	5
48	53	2
21	177	2
72	72	3
70	70	4
157	159	1
56	56	2
125	136	3
164	177	1
30	39	2
26	44	2
5	5	4
19	154	1
148	151	2
178	180	4
166	167	2
2	174	7
138	138	9
130	130	5
26	43	3
9	9	3
141	145	2
153	153	4
56	57	1
118	137	3
95	111	2
143	143	3
143	151	1
104	107	3
48	56	1
88	96	1
156	156	4
86	105	4
47	53	1
45	45	5
0	6	2
113	128	5
175	188	2
95	104	1
85	113	1
155	166	4
115	128	1
169	169	1
166	166	6
101	105	1
47	65	3
114	118	1
69	73	2
181	185	4
71	72	1
156	159	2
146	161	1
155	155	3
101	116	5
146	150	3
70	109	3
102	141	2
63	63	1
171	171	3
1	27	5
19	19	3
140	155	4
106	109	3
6	6	2
115	115	2
47	47	1
100	100	3
85	100	1
34	34	2
71	71	2
20	26	1
30	30	2
184	184	4
115	118	3
148	148	3
44	46	1
102	105	1
151	168	4
39	56	1
57	64	1
161	161	1
26	40	1
25	32	1
137	158	3
71	74	2
169	172	5
170	170	7
54	60	2
84	84	2
9	33	2
127	127	3
188	188	5
186	186	4
42	44	2
87	104	6
163	167	1
106	116	2
143	179	2
0	5	1
121	152	1
70	144	1
77	83	1
105	116	2
134	134	2
60	76	2
152	153	4
41	41	4
184	189	4
57	57	5
154	156	1
128	143	1
110	157	2
95	122	2
163	176	1
44	48	2
105	121	2
107	107	2
24	35	2
174	174	6
28	44	1
154	154	6
161	171	3
55	55	1
10	15	2
71	79	3
7	7	1
48	54	1
136	145	3
8	27	2
92	92	4
168	178	2
167	167	9
146	159	1
106	106	1
68	69	1
7	47	2
141	157	1
107	135	2
48	48	2
130	131	1
4	4	1
13	44	3
157	157	6
8	26	1
98	98	4
88	98	1
134	136	2
60	64	2
90	106	1
136	147	3
171	181	1
66	66	5
117	125	2
180	180	2
40	40	1
126	128	2
4	20	1
7	38	2
73	89	2
128	129	2
10	10	2
78	90	2
86	86	2
154	155	2
37	44	2
103	121	2
98	104	2
64	64	1
190	190	2
23	23	3
135	135	1
154	160	1
58	75	2
122	136	4
9	14	2
89	91	2
86	100	1
19	39	3
22	38	1
160	160	2
119	124	2
135	143	2
114	119	1
123	124	1
40	41	2
121	121	1
73	75	2
127	131	1
99	103	1
146	158	2
159	159	3
14	14	4
187	189	1
60	63	1
88	88	1
152	152	2
33	33	2
24	24	3
36	36	3
36	37	1
17	32	1
162	177	2
124	135	3
176	187	1
174	180	2
110	115	5
94	109	2
172	172	4
29	36	1
153	155	4
164	179	1
140	149	2
29	29	2
0	9	1
182	182	2
148	161	1
114	117	1
96	96	1
112	128	1
169	178	1
39	39	2
42	42	2
118	118	2
154	159	1
105	106	3
4	5	1
147	147	1
118	131	2
25	25	1
19	38	4
96	128	1
163	163	1
145	145	1
85	86	1
135	136	1
179	184	3
184	188	1
120	123	1
15	15	3
99	112	1
112	115	1
175	189	1
84	85	2
2	7	1
137	149	1
181	182	1
167	184	1
109	109	3
13	15	1
78	78	2
175	177	1
31	37	2
125	125	1
83	83	1
114	116	1
54	76	1
67	67	2
45	47	1
124	152	1
95	113	4
58	58	1
41	42	2
169	170	1
113	113	1
84	103	1
172	186	1
61	63	1
35	42	2
77	82	1
3	4	1
66	71	2
137	139	1
159	161	2
120	120	1
122	122	1
169	183	1
72	82	1
18	34	2
61	64	1
104	123	1
97	99	1
13	13	1
19	33	1
178	178	1
78	94	1
125	129	1
173	182	2
14	46	1
118	133	2
110	111	2
61	61	1
62	62	2
61	62	1
182	183	1
84	110	1
80	80	1
96	118	1
12	12	1
165	165	1
101	101	1
185	190	2
94	94	1
