74	74	17
57	63	4
38	38	12
95	95	8
83	83	16
79	86	5
81	81	21
28	28	8
25	25	5
63	77	1
63	67	3
32	33	1
62	76	3
33	33	18
77	77	16
51	51	7
85	85	23
63	63	27
74	85	2
92	93	5
101	101	9
69	69	9
39	39	6
87	102	8
47	47	6
50	50	10
43	43	11
52	52	9
86	86	19
31	32	2
67	67	18
99	100	2
68	68	29
28	39	2
39	40	4
57	58	4
69	70	4
72	72	18
82	82	8
89	89	22
94	95	3
65	65	11
88	88	26
45	57	2
47	86	2
82	83	3
48	85	1
83	84	4
85	86	8
54	55	10
53	53	5
70	70	31
37	37	10
69	77	3
79	92	5
73	73	11
36	36	6
90	90	8
81	82	11
49	49	3
58	63	1
58	58	12
67	70	1
78	78	15
94	94	4
28	35	3
48	48	8
71	71	25
42	42	13
51	59	4
72	73	4
35	36	4
35	46	4
71	89	3
45	45	5
75	84	2
25	56	1
60	76	1
36	38	2
40	40	11
26	54	3
80	81	5
57	59	1
66	66	21
76	76	25
100	100	13
95	98	6
81	92	2
97	97	19
80	80	11
93	95	3
24	24	5
26	26	21
79	79	16
53	65	1
65	75	1
57	57	9
52	53	11
74	76	2
60	60	7
50	51	2
33	34	2
58	60	7
76	77	17
55	56	4
62	63	5
54	56	3
28	33	1
50	85	1
36	49	2
88	98	2
49	63	4
34	49	1
87	87	12
47	49	2
89	90	3
62	62	14
94	98	4
39	42	3
62	65	5
27	28	5
32	32	1
77	91	5
57	82	1
46	47	5
57	70	2
92	94	6
64	64	13
63	64	6
91	91	10
96	96	8
64	65	1
95	100	3
64	85	1
74	88	5
55	55	13
99	101	3
60	61	6
87	90	1
39	55	1
61	61	10
40	41	4
91	92	8
59	76	2
35	95	1
59	72	5
65	68	6
58	59	2
64	66	2
35	39	2
56	56	12
27	27	5
92	92	8
36	44	7
69	89	1
39	44	1
43	46	2
60	94	5
73	74	5
47	61	2
101	102	5
39	56	1
75	75	19
67	78	4
61	74	3
67	68	1
81	84	1
96	97	2
68	80	1
26	28	3
38	46	2
31	31	4
52	56	4
65	67	3
82	89	1
75	76	3
36	46	2
59	59	5
98	102	2
85	101	4
71	72	2
33	89	3
95	96	3
72	76	1
47	51	1
72	83	3
54	54	4
68	81	3
34	89	1
84	86	1
33	88	3
43	64	2
86	87	4
46	46	5
78	93	3
100	101	3
65	66	5
29	29	7
99	99	9
77	88	4
66	67	5
37	38	1
36	94	4
90	91	3
68	92	1
63	81	2
44	44	2
42	64	4
52	57	2
77	78	6
52	58	1
25	26	2
67	83	3
93	93	3
64	67	4
87	88	2
102	102	2
43	56	1
78	81	1
47	60	2
68	73	1
60	88	3
84	89	2
23	26	2
73	76	1
44	45	6
81	88	2
66	77	2
80	97	4
98	98	5
87	98	1
86	88	2
84	84	3
61	63	4
88	89	2
56	57	4
38	91	2
22	22	3
24	27	1
94	96	2
97	99	3
91	93	2
20	59	1
35	38	1
23	30	1
71	77	1
84	87	1
29	31	1
34	34	2
55	67	1
30	30	2
57	77	1
70	77	1
77	87	2
96	100	1
59	64	1
61	62	1
78	85	2
36	39	1
68	76	1
77	83	2
60	92	2
65	80	3
27	87	2
45	90	1
53	54	1
100	102	1
79	80	1
22	58	1
84	91	1
76	78	1
50	67	1
84	93	1
74	78	1
41	41	1
43	45	2
29	30	1
51	52	1
44	47	1
61	65	1
35	35	1
31	67	1
59	69	1
72	78	1
