170	170	6
32	59	2
115	115	10
175	175	8
106	106	3
136	136	11
146	146	4
181	181	5
1	1	5
149	149	10
125	167	5
148	148	12
35	36	6
17	17	4
88	88	3
70	99	3
154	154	1
140	140	10
113	113	13
93	94	2
23	23	2
77	77	5
68	86	2
147	147	7
79	80	1
112	112	6
152	153	8
36	36	5
78	78	14
7	8	5
145	145	8
84	84	2
56	86	3
68	108	1
39	39	11
124	125	2
18	28	4
190	190	3
95	96	5
28	42	3
182	183	4
127	129	1
44	44	8
56	56	4
58	58	6
150	150	2
162	162	3
58	63	4
17	28	3
119	119	5
163	164	1
130	130	3
11	14	2
114	114	9
53	53	5
43	43	2
140	141	5
116	116	2
169	170	4
5	5	11
159	159	9
115	135	2
154	183	4
41	41	5
95	95	4
77	78	2
101	101	11
72	84	3
64	88	5
159	176	1
139	139	5
153	153	1
125	158	5
18	20	4
171	171	4
43	55	3
158	160	3
91	94	2
85	85	4
108	109	6
128	128	4
93	95	4
158	158	6
154	155	3
3	4	3
188	188	13
114	115	3
162	163	8
114	128	3
7	7	6
182	182	8
74	74	6
104	106	2
18	18	9
109	109	13
58	86	1
54	54	3
81	81	7
99	99	3
80	80	6
186	186	4
178	178	8
47	47	9
18	19	5
127	127	1
42	60	2
81	82	5
125	126	3
48	48	9
37	38	1
176	176	3
109	130	3
101	102	3
90	90	4
98	98	1
168	168	2
159	175	6
84	99	2
111	133	2
36	44	2
138	151	4
63	63	4
138	138	2
26	26	3
20	20	11
107	107	1
33	34	5
129	133	4
155	176	2
116	117	5
105	109	3
117	118	1
112	113	2
137	137	5
135	159	1
55	70	1
70	70	1
6	6	4
30	30	8
27	27	9
79	79	5
142	142	4
0	0	4
12	12	4
165	165	10
14	34	2
34	35	1
67	67	4
87	88	3
4	8	1
109	110	1
151	151	7
189	189	3
19	19	4
83	83	8
125	125	5
160	162	1
161	161	3
110	110	5
22	22	2
55	55	8
97	98	4
3	3	8
120	121	1
125	127	2
44	46	1
13	33	2
123	123	9
73	73	4
96	96	7
115	116	5
57	58	1
181	182	4
2	2	4
54	55	1
102	103	1
136	139	3
164	174	3
155	155	11
4	4	3
184	184	6
36	46	2
38	38	4
132	133	5
112	117	1
126	127	3
176	177	2
142	145	4
153	181	1
141	146	1
46	46	9
163	163	4
15	15	4
157	157	4
173	173	6
91	91	6
123	156	3
52	52	3
13	18	3
84	85	3
102	102	2
68	68	3
114	123	3
4	39	2
114	157	1
113	128	2
157	183	1
11	11	1
127	128	1
124	153	4
94	109	1
165	170	2
165	167	2
82	82	4
38	53	1
65	65	1
98	107	1
42	42	1
131	131	1
169	169	2
162	172	1
111	112	1
179	179	1
112	115	4
124	124	1
18	33	1
77	100	1
97	97	1
35	42	4
188	189	1
105	112	3
121	121	5
138	139	2
104	104	3
56	70	2
167	168	1
68	70	2
95	107	1
160	160	1
174	174	5
164	164	5
89	89	2
134	137	3
161	172	1
38	48	1
57	88	4
146	150	1
37	37	3
21	21	2
24	24	4
30	59	2
66	66	10
38	49	1
139	151	1
100	102	4
71	71	5
135	136	2
101	118	2
8	8	2
183	183	2
60	60	4
177	177	1
152	169	2
158	175	2
111	129	2
184	186	3
181	183	2
84	100	3
10	15	2
0	1	2
56	57	2
156	175	1
171	172	1
155	156	2
37	44	2
10	10	4
107	110	3
114	116	1
166	166	1
146	148	2
151	163	1
9	10	1
103	104	2
180	180	2
108	108	1
89	95	3
11	12	2
143	144	1
167	167	1
156	157	1
43	44	1
25	25	3
185	190	1
100	100	4
32	34	1
13	13	3
183	184	1
135	173	2
98	99	1
59	60	1
71	72	2
58	60	2
159	160	1
35	44	1
152	152	1
131	137	1
134	134	1
40	53	1
16	16	1
112	129	1
165	190	1
28	29	1
187	187	1
20	21	1
126	126	1
145	150	1
129	129	1
133	133	1
165	166	1
173	174	2
46	48	1
13	42	1
85	99	1
111	111	1
61	61	1
122	123	1
10	11	1
137	138	1
64	65	1
180	183	2
130	133	1
172	172	1
59	59	1
106	107	1
65	89	1
62	62	1
61	62	1
156	159	1
54	71	1
86	86	1
13	14	1
10	13	1
140	151	1
87	93	1
