77	79	5
67	68	3
36	36	2
102	102	12
86	86	12
217	218	3
216	216	4
153	197	1
181	181	8
174	174	6
137	137	6
178	178	6
190	191	5
31	31	10
188	188	6
177	177	5
180	180	13
215	223	6
161	162	9
153	154	6
64	64	2
127	127	5
33	33	9
95	95	1
15	15	4
11	61	6
154	154	3
157	158	1
229	229	10
69	70	4
145	145	6
186	186	6
26	135	2
133	133	7
224	225	4
164	165	9
71	71	15
161	161	7
99	99	11
98	128	1
26	26	9
235	235	15
230	231	6
173	174	3
156	156	13
192	219	7
146	146	21
164	164	17
199	199	9
107	107	6
229	230	9
203	203	5
76	76	6
40	40	9
237	237	3
151	151	18
114	114	4
71	81	1
161	208	3
127	129	8
134	176	3
15	84	4
214	215	2
1	23	4
46	73	4
20	20	10
57	59	1
9	72	1
152	152	6
98	98	7
51	52	2
201	201	11
30	31	5
96	96	8
48	48	9
191	191	11
162	165	2
189	200	2
176	176	14
131	174	2
165	165	6
113	113	4
70	71	2
200	211	1
165	166	5
56	57	4
122	122	14
37	37	6
20	21	1
52	52	6
61	62	6
41	41	10
138	201	3
227	230	1
17	17	8
54	54	13
49	49	13
187	187	18
137	178	1
68	90	2
240	240	11
168	169	5
132	134	1
197	197	4
38	40	4
134	134	9
62	64	2
10	71	4
60	60	11
12	12	8
108	108	11
148	149	4
1	7	4
219	219	17
34	42	2
14	14	18
5	78	3
97	97	4
16	16	12
27	27	7
157	157	7
78	78	6
215	225	3
223	223	12
30	158	3
234	234	11
200	200	7
61	61	9
129	130	2
197	199	1
36	155	2
198	198	10
58	58	11
118	118	7
53	53	10
140	140	17
175	175	2
139	139	14
194	194	8
27	28	2
16	57	1
117	118	3
195	195	11
210	210	13
0	23	3
4	5	3
190	190	8
55	55	4
231	231	11
113	178	6
99	122	9
145	147	5
43	43	1
231	232	2
84	84	19
133	170	1
7	7	4
16	59	1
88	88	20
138	138	6
154	155	1
63	63	5
168	168	6
144	145	6
83	84	7
38	39	3
0	1	5
226	229	3
238	239	5
71	72	3
141	142	2
111	111	10
193	194	3
225	235	3
16	60	1
2	2	3
50	51	4
13	14	5
32	32	11
1	9	1
66	66	17
167	167	12
74	171	6
220	220	5
9	20	4
171	174	3
134	135	2
42	43	2
9	9	10
236	239	3
69	69	17
29	30	2
8	8	5
29	152	3
147	148	3
9	54	2
115	115	7
158	158	3
100	100	7
213	213	4
99	101	1
225	230	2
11	54	3
132	133	3
154	156	7
103	103	4
204	204	3
171	171	8
194	213	2
153	153	7
85	85	10
185	185	4
224	224	10
74	172	4
143	143	9
100	127	1
228	235	4
221	221	7
238	238	10
58	59	6
39	39	6
65	65	7
116	162	3
42	42	6
146	147	10
79	79	15
219	220	1
125	127	3
174	175	9
218	219	4
70	70	14
127	128	2
63	64	3
1	1	8
12	68	2
141	144	5
102	127	6
101	128	1
230	238	1
15	16	1
145	158	1
30	159	6
8	53	1
155	155	6
166	166	7
119	119	12
128	128	12
18	19	6
51	51	9
131	131	3
5	77	2
144	146	3
227	228	1
106	125	1
141	141	6
214	214	4
197	198	7
205	205	14
141	145	2
32	152	1
4	4	7
47	47	10
230	230	6
150	150	8
212	212	6
13	13	8
204	205	2
189	189	1
215	215	7
241	241	13
217	236	3
45	47	1
196	196	7
236	236	12
21	21	1
67	67	13
218	218	10
123	123	5
169	170	4
179	204	2
34	35	4
184	186	4
235	236	3
196	220	2
225	226	9
11	11	8
11	56	2
137	138	3
182	182	2
136	136	13
239	239	4
116	116	4
109	119	6
38	38	3
196	233	1
171	172	3
107	124	3
21	22	6
167	208	2
85	96	1
3	3	8
197	213	2
145	160	4
157	196	1
138	208	3
29	29	7
124	125	1
19	19	7
227	227	8
34	34	7
9	53	4
187	188	2
25	25	5
12	60	1
198	212	2
105	119	6
170	173	3
154	225	2
222	222	10
138	139	5
89	90	3
31	211	2
185	186	1
215	224	4
232	232	3
228	228	9
75	172	3
104	104	3
99	100	3
192	193	4
35	36	3
73	73	5
53	54	2
101	101	6
159	212	5
170	170	5
59	60	3
146	149	1
160	160	10
188	189	3
0	0	6
83	83	4
4	22	2
50	50	6
217	219	1
217	217	5
114	205	4
159	211	3
4	6	7
212	213	3
170	174	1
135	135	7
162	162	5
5	5	1
209	211	2
52	53	3
110	118	1
79	80	3
181	182	5
236	237	2
199	210	1
135	174	1
2	8	2
44	44	3
109	109	3
134	139	3
115	206	1
152	153	2
169	169	9
24	24	5
72	72	7
194	195	3
163	166	2
135	171	1
144	144	3
77	81	2
219	223	3
109	110	1
209	209	2
81	81	7
57	58	1
116	163	1
150	151	3
77	77	6
1	4	3
215	226	1
84	88	4
46	46	5
19	76	3
179	189	1
32	33	3
99	127	1
199	200	11
74	74	18
129	129	4
38	42	2
105	107	1
18	82	1
98	99	3
125	125	7
144	148	1
184	185	1
18	80	3
202	202	5
6	21	1
149	149	4
28	28	4
60	61	7
183	184	2
40	41	2
148	148	3
183	191	1
62	62	4
210	211	2
2	23	1
163	163	2
4	77	2
143	209	3
149	150	3
37	154	1
181	191	1
147	147	4
68	69	5
186	187	2
179	179	3
228	231	3
111	168	3
40	155	1
86	87	1
31	149	3
156	157	3
227	238	1
57	57	5
195	196	4
30	30	6
203	204	7
56	56	8
214	226	1
102	104	2
106	127	4
75	75	4
166	167	3
110	119	3
105	105	2
172	172	1
133	134	2
31	151	6
22	22	1
172	173	3
59	59	9
190	200	2
149	152	2
14	15	9
24	75	3
27	242	2
207	208	3
49	52	2
10	10	2
207	207	4
140	169	1
24	25	3
233	240	2
121	121	3
5	6	2
48	49	1
173	173	4
61	64	4
32	36	3
76	80	2
24	172	2
226	227	2
178	208	2
80	80	7
35	35	6
76	79	2
69	86	1
82	170	4
71	73	1
214	216	2
68	101	1
106	119	3
36	37	1
15	70	2
162	208	1
151	156	1
25	74	2
160	161	1
181	190	2
240	241	8
184	184	6
37	38	2
132	137	1
48	51	2
108	119	1
139	161	2
179	183	1
175	177	2
19	85	1
37	39	2
192	192	1
104	105	4
0	2	2
109	117	1
170	171	1
28	136	2
105	106	4
31	150	1
161	199	2
141	168	2
145	210	1
19	53	4
101	127	2
181	183	1
31	33	4
13	67	2
95	169	1
193	193	4
31	32	1
125	126	2
45	45	4
179	182	1
162	164	2
19	20	2
180	206	1
20	74	2
116	205	1
134	137	1
174	176	1
205	206	6
161	210	1
216	218	2
198	220	1
225	228	3
159	160	2
113	204	1
143	144	1
74	75	1
45	72	1
46	47	3
133	174	3
57	61	2
130	130	1
79	151	3
123	125	1
115	205	1
68	68	4
7	8	2
23	23	4
35	157	2
124	124	1
65	66	1
120	121	1
233	239	1
111	167	1
106	106	5
120	120	2
152	154	1
136	242	1
200	201	1
171	173	3
106	121	3
4	7	1
143	145	1
112	112	1
206	207	1
181	189	1
49	50	1
69	98	2
195	223	1
60	62	1
214	224	2
143	167	1
28	30	2
85	86	2
36	40	1
35	40	1
21	23	1
81	148	2
233	233	2
90	129	1
206	206	2
82	82	5
25	174	2
140	141	2
12	66	1
105	129	2
117	117	3
100	101	1
208	208	2
164	167	1
1	2	1
11	60	1
102	126	1
73	74	5
180	182	2
116	117	3
173	175	1
65	68	2
49	51	2
211	211	1
29	201	1
69	85	1
134	140	1
105	167	1
20	52	1
28	201	3
142	210	1
29	159	2
203	207	1
179	188	1
39	41	2
152	157	1
115	179	2
220	221	1
13	15	1
216	227	1
101	102	1
195	215	1
9	46	1
10	46	1
51	55	1
99	128	1
97	131	1
104	109	1
163	205	1
108	125	1
223	224	2
54	55	1
142	143	1
190	221	1
108	123	1
21	77	1
216	235	1
80	81	1
225	234	1
20	55	1
145	148	1
18	18	1
