168	169	1
216	217	5
28	28	12
90	90	12
41	42	6
199	199	9
37	37	7
191	196	2
235	235	9
85	86	2
42	51	3
37	201	2
155	155	6
92	93	4
95	95	15
241	241	3
23	25	5
230	233	3
62	65	3
243	244	3
59	60	7
237	237	10
26	26	17
87	87	2
19	19	8
34	37	2
38	38	14
68	186	2
194	198	6
154	167	2
232	241	3
175	175	4
110	110	10
88	88	9
96	101	3
211	243	3
91	91	11
96	96	10
100	100	11
144	145	4
36	200	1
235	236	3
156	156	4
82	82	10
73	73	11
198	198	5
184	184	4
29	29	4
86	232	1
94	94	9
110	111	2
105	105	6
46	46	13
193	198	5
209	235	4
190	190	3
90	98	5
44	154	5
176	194	3
201	204	6
80	80	5
221	237	5
87	91	4
214	219	1
181	181	4
66	75	3
12	12	6
184	185	3
116	116	7
222	222	3
17	18	5
207	224	1
70	70	19
18	116	3
76	76	9
156	167	2
159	159	3
185	196	1
37	210	3
115	115	8
17	17	6
53	225	2
61	61	8
238	238	10
218	222	2
96	220	2
54	54	12
75	98	1
200	200	13
172	176	3
21	21	6
244	245	2
212	212	11
201	213	3
192	192	4
41	211	2
182	203	3
49	174	1
231	231	10
157	181	2
234	235	2
165	189	3
63	64	3
196	213	1
37	115	1
36	37	3
92	92	9
43	201	2
39	39	7
44	45	11
162	175	1
41	41	4
244	246	1
25	26	3
34	49	6
197	197	10
182	183	3
200	213	1
201	202	3
2	2	8
209	209	5
104	105	1
68	68	10
11	12	2
230	230	3
16	16	7
195	195	5
232	232	5
56	214	1
53	53	4
110	186	1
175	196	4
211	212	2
71	71	4
15	15	6
26	27	2
21	29	3
87	89	2
234	234	10
43	209	2
192	195	2
225	225	2
145	145	6
220	225	1
206	207	4
205	205	5
57	57	7
98	98	4
6	32	1
10	10	6
183	201	9
110	201	1
7	10	4
28	120	3
56	58	2
54	59	4
210	210	2
101	105	5
98	101	1
6	16	2
36	41	8
160	161	3
213	213	3
52	227	6
151	151	4
161	161	8
48	48	2
20	22	4
69	76	3
151	152	2
51	115	2
0	1	2
107	108	2
9	21	2
64	85	3
84	84	2
206	227	5
184	198	1
208	227	5
5	14	4
180	213	2
85	85	10
30	30	6
13	17	4
207	207	1
11	11	19
42	50	3
40	109	2
79	81	2
172	173	4
9	9	8
208	208	2
236	237	4
180	187	2
154	164	1
180	189	4
221	227	3
232	240	1
46	47	4
45	163	2
58	58	5
164	164	6
8	8	12
33	33	5
116	147	2
79	85	6
159	171	2
47	47	2
34	36	2
46	156	2
154	155	9
39	185	2
18	117	2
60	62	1
68	109	1
8	10	3
202	206	2
49	49	8
62	187	3
219	219	4
50	111	2
201	201	7
101	101	3
49	118	2
111	145	2
4	4	6
161	164	2
78	98	3
35	36	4
162	191	7
177	177	1
153	160	1
19	21	4
107	107	1
96	180	4
7	31	1
17	234	1
227	227	2
117	119	2
50	85	5
44	44	12
214	215	3
17	36	3
114	201	3
111	147	5
35	42	1
215	215	7
215	219	1
179	187	3
89	233	2
189	189	3
102	102	4
187	188	2
41	114	1
36	36	9
20	20	4
79	79	2
229	229	3
24	24	5
12	14	3
8	11	2
76	77	5
49	117	2
230	242	1
43	43	7
228	228	2
244	244	2
97	101	2
66	66	6
22	23	2
200	212	2
2	38	6
73	74	5
193	193	6
150	150	2
36	38	1
98	102	1
35	209	2
78	94	1
118	119	7
154	156	2
34	34	4
153	153	3
28	29	4
38	40	6
64	213	4
182	211	1
194	194	2
189	190	1
49	248	1
218	227	5
167	167	8
82	85	6
145	226	2
87	90	2
77	98	3
170	170	5
34	59	3
82	234	2
53	202	2
240	240	4
33	56	3
179	201	3
173	173	5
48	119	1
34	203	1
210	212	4
63	63	10
86	238	1
202	204	1
111	111	1
62	62	2
168	170	1
45	46	4
113	113	4
219	220	2
6	215	2
230	231	4
185	185	2
224	224	6
74	74	5
27	27	8
49	177	3
165	165	4
193	210	3
89	90	2
93	94	5
87	88	5
52	52	2
9	11	2
31	31	3
28	34	4
67	193	2
69	180	4
24	26	1
220	239	3
153	154	1
247	248	1
118	150	1
201	205	1
32	32	5
233	233	3
234	247	1
71	72	3
67	68	3
178	243	1
97	99	4
44	153	2
88	89	2
117	117	3
42	111	2
180	180	2
31	34	1
238	239	2
23	23	4
109	184	1
51	52	7
29	30	3
233	234	2
163	163	2
58	73	3
77	166	1
93	93	4
202	202	2
39	41	2
65	66	3
157	157	1
30	34	4
27	29	1
48	202	1
245	245	4
35	37	1
183	184	4
174	190	1
109	224	2
36	203	1
51	51	3
36	111	4
214	214	4
183	202	2
236	236	4
169	170	1
193	194	1
16	147	1
115	116	2
97	97	4
193	196	1
161	198	1
233	247	2
164	172	4
188	191	2
169	169	2
6	206	3
16	32	3
151	153	5
195	196	5
145	203	1
159	160	4
170	236	1
86	91	1
181	183	2
78	78	5
35	203	2
72	75	2
24	25	1
75	221	3
212	226	1
161	197	2
60	60	4
152	154	2
191	191	4
201	203	2
54	62	2
114	213	1
203	203	6
10	11	3
120	120	1
200	201	3
182	182	1
8	9	3
170	171	5
173	192	2
23	24	4
183	205	1
86	86	1
59	94	1
226	227	2
174	178	1
153	157	2
45	45	3
18	111	1
197	200	2
172	172	3
103	103	1
48	49	3
72	72	5
17	41	4
171	171	4
174	176	1
62	189	2
203	207	1
220	220	2
195	212	2
37	200	2
119	119	3
65	65	2
96	108	1
179	180	1
75	75	1
55	59	3
77	77	1
86	90	1
202	209	1
181	186	1
160	160	1
16	17	1
52	54	2
4	5	1
218	219	2
55	63	2
97	98	3
34	146	1
58	94	2
78	95	1
166	240	2
51	113	1
120	144	2
72	89	1
184	197	4
54	212	2
194	195	3
42	42	1
182	212	2
239	239	2
38	42	2
174	194	4
51	114	4
41	50	1
51	229	3
60	71	3
74	97	3
210	211	1
43	204	1
2	9	1
23	26	3
103	108	2
82	83	1
15	221	2
32	36	2
77	82	1
9	27	2
188	188	3
198	199	3
226	226	3
106	107	1
204	205	1
43	46	1
84	86	2
10	12	1
112	112	1
32	217	2
47	209	4
34	202	3
2	27	1
81	82	2
15	16	4
161	186	2
147	147	1
27	28	3
237	238	1
96	98	3
174	192	1
216	218	2
102	106	1
108	194	1
7	8	1
243	243	2
186	186	2
158	158	1
86	89	1
166	166	3
85	91	2
39	199	2
59	63	1
50	50	2
162	198	3
113	117	2
111	112	2
203	205	1
48	61	1
41	52	1
39	40	2
182	204	1
192	196	1
100	101	1
247	247	1
76	78	1
72	73	1
194	196	2
13	16	2
77	81	2
108	109	3
93	97	1
53	205	1
186	192	1
110	212	3
6	6	2
187	191	3
197	201	1
65	190	2
202	203	1
50	213	1
196	196	3
7	7	1
67	67	2
64	64	6
13	13	1
51	53	1
104	104	1
19	22	1
110	113	2
104	108	1
240	241	2
59	59	3
69	69	4
76	83	1
47	48	1
38	111	1
64	71	1
53	113	1
203	213	1
180	190	1
201	209	1
62	64	1
72	98	1
196	199	1
149	149	1
192	197	5
217	217	1
52	182	2
47	117	1
73	89	1
102	104	1
79	84	1
8	34	1
75	76	1
55	55	1
154	154	3
185	201	3
41	210	1
1	31	1
109	109	1
70	189	1
65	92	1
6	33	2
196	197	1
95	96	1
30	31	2
166	237	1
150	151	2
89	89	2
45	167	1
156	166	2
156	172	1
44	167	1
227	228	2
179	179	1
33	68	1
15	36	1
49	50	1
13	221	1
166	238	1
87	101	1
90	233	2
56	62	2
164	236	1
57	58	1
52	226	1
77	93	1
170	172	1
159	163	1
35	35	1
51	200	2
40	41	1
47	61	1
105	106	2
69	70	1
35	119	1
186	212	1
77	97	1
41	200	1
156	157	1
169	172	1
205	227	1
177	179	1
162	201	1
112	233	1
81	239	1
188	190	1
46	163	1
150	202	1
3	6	1
55	62	1
179	186	1
246	246	1
178	219	1
186	196	1
78	163	1
