70	70	5
0	0	4
131	132	5
41	41	15
116	117	4
32	32	8
48	49	3
58	58	3
152	152	13
121	122	5
183	183	12
182	182	4
150	150	6
81	82	5
64	64	4
141	143	3
28	29	12
195	195	8
140	140	6
167	167	7
36	38	2
24	24	3
37	39	1
122	122	7
93	94	2
101	102	11
12	12	10
20	20	15
129	130	3
56	57	3
30	30	12
185	186	3
130	130	10
187	187	3
89	98	1
197	197	17
40	40	5
158	159	3
169	182	9
35	35	3
2	22	2
168	173	2
65	65	5
132	135	1
131	131	11
52	53	4
152	153	3
108	108	6
186	186	6
59	61	1
124	125	4
3	3	14
50	50	6
78	78	10
154	167	2
166	166	8
153	153	7
16	16	4
163	164	7
127	127	5
144	145	6
133	135	7
112	112	6
49	49	5
1	1	3
111	113	5
105	168	3
126	126	4
170	170	5
89	89	8
23	23	11
181	181	5
169	169	11
31	32	3
151	160	3
51	52	4
52	52	4
142	142	13
105	105	2
68	68	9
148	148	3
16	17	8
45	124	5
161	179	1
66	68	4
143	145	6
4	8	5
114	115	2
194	194	12
84	84	4
11	11	14
48	48	9
37	37	4
172	172	6
190	190	3
111	111	2
37	38	2
102	103	4
165	165	3
139	139	7
7	7	1
178	178	4
57	57	8
38	38	1
8	8	4
191	191	13
100	100	16
145	160	2
185	185	6
85	85	7
175	177	2
33	74	2
135	135	3
51	51	7
30	129	1
69	69	3
87	87	11
114	114	10
39	39	3
28	28	4
154	154	4
26	27	8
134	134	9
44	44	4
108	148	2
0	8	3
146	146	4
67	68	3
101	129	3
57	58	8
72	72	10
85	86	4
77	78	3
100	101	2
133	134	1
11	12	5
9	10	1
192	192	9
55	56	3
180	180	1
108	153	4
157	157	6
9	9	2
67	108	2
128	128	4
125	170	1
179	179	15
113	115	2
49	52	3
123	124	1
149	149	2
132	132	7
115	115	2
125	125	6
112	113	1
175	176	3
151	151	5
25	25	2
150	151	3
78	79	1
66	66	3
134	135	2
5	5	13
45	45	7
137	137	11
160	162	2
10	10	9
79	79	3
171	173	6
138	139	3
187	188	4
42	45	3
42	42	7
163	163	6
6	7	2
96	96	2
13	14	4
174	174	2
119	120	4
14	14	10
139	140	6
102	102	2
17	17	3
32	73	1
153	154	1
22	76	2
94	95	2
179	180	2
119	119	6
164	164	3
145	145	6
159	160	1
54	60	3
27	27	10
82	82	5
62	63	7
4	132	2
155	155	4
168	168	2
15	15	1
110	110	6
33	33	3
58	59	5
34	34	6
82	84	5
125	171	1
53	53	3
34	38	1
61	62	7
22	23	1
126	183	1
184	184	2
43	43	1
182	183	3
196	196	2
31	31	3
156	156	6
50	53	2
40	41	1
158	158	2
17	18	3
61	61	1
41	42	3
136	136	1
54	54	2
138	142	1
160	160	2
177	177	3
107	183	5
36	36	2
173	173	2
62	64	3
113	113	11
127	183	2
61	67	5
5	6	2
143	144	11
104	104	4
22	81	3
99	100	1
176	176	3
81	81	6
124	124	5
73	73	1
84	86	1
118	118	2
97	97	6
6	39	1
34	84	1
107	107	2
123	195	2
31	73	1
98	98	4
10	18	2
71	82	2
49	50	3
130	133	2
151	182	6
162	164	4
154	155	1
87	132	2
188	188	2
46	46	9
16	64	1
88	88	2
195	196	5
165	166	4
83	85	3
141	141	4
163	166	2
191	193	1
27	32	1
95	95	1
98	99	1
59	120	2
76	78	1
42	46	1
190	191	2
109	111	4
9	107	1
180	181	1
109	109	1
33	36	2
103	103	1
83	83	2
53	54	4
127	128	2
67	67	3
126	170	1
2	2	2
84	85	1
2	4	3
72	73	1
19	19	5
13	13	2
108	109	2
193	193	1
154	165	2
196	197	4
63	63	3
129	129	4
167	168	1
75	75	3
60	61	2
127	184	2
161	161	2
106	106	2
109	112	1
101	101	2
133	133	2
43	45	3
121	121	5
1	21	3
171	171	3
126	184	1
189	189	1
159	159	3
47	47	3
60	60	2
84	143	3
8	32	1
144	144	3
66	67	1
18	18	2
56	60	1
105	107	2
87	89	1
52	62	1
142	187	1
50	51	2
71	71	2
158	188	1
27	73	2
95	96	1
170	172	1
174	175	4
170	181	2
19	20	1
63	64	2
137	138	1
10	44	1
148	164	1
55	125	1
34	73	1
128	182	2
109	110	2
141	142	3
123	123	1
147	189	4
58	121	2
40	42	2
34	37	2
12	49	1
110	111	1
140	141	1
65	66	2
139	141	1
33	35	4
21	22	4
138	138	2
39	137	1
102	143	2
12	69	1
151	180	1
70	85	2
96	97	2
26	35	2
49	53	1
158	161	1
143	143	1
8	33	1
24	26	1
69	102	1
87	88	1
135	192	1
110	166	1
125	126	1
136	137	1
34	35	1
0	9	1
80	80	1
