78	79	3
44	45	6
119	120	3
14	14	8
73	73	6
43	43	8
92	92	9
11	11	6
62	62	6
15	46	3
16	16	12
93	94	6
107	132	1
119	119	5
21	22	6
91	91	20
74	74	9
1	3	3
102	109	7
34	34	10
10	17	1
40	40	19
77	77	11
25	27	1
48	49	3
128	129	10
4	4	6
0	0	2
56	56	16
32	33	2
116	116	10
123	124	2
27	27	9
79	80	6
19	20	4
94	94	11
93	93	12
132	132	13
13	13	18
115	115	9
62	63	10
91	92	3
111	111	13
38	38	7
58	62	2
0	49	12
9	9	11
95	95	2
125	125	4
108	108	10
88	102	5
23	28	1
96	96	14
101	101	6
99	99	9
118	118	14
7	119	6
21	21	11
110	110	7
26	28	4
67	67	9
126	126	13
123	123	11
25	26	4
121	121	3
130	130	17
129	129	4
22	24	7
90	91	8
104	131	2
58	59	7
64	64	6
56	57	4
124	125	5
97	97	15
7	7	16
104	104	17
120	120	14
79	79	3
86	87	10
18	20	3
13	14	16
44	44	15
87	102	3
57	57	11
3	104	6
100	100	7
102	102	14
52	56	1
43	61	3
32	32	7
112	112	13
70	70	13
98	98	12
43	58	4
109	109	13
69	69	11
126	129	2
41	46	1
38	39	3
84	84	2
77	79	3
83	84	2
65	65	14
41	41	16
50	50	1
42	42	7
31	32	2
75	78	4
49	49	11
8	78	6
82	82	4
69	70	7
53	53	10
5	5	4
16	47	2
69	83	4
128	128	6
89	105	5
83	85	2
118	119	3
59	60	4
120	121	3
113	113	3
16	17	5
25	25	8
72	72	9
55	56	2
106	107	3
86	88	4
114	114	9
63	63	4
42	46	3
122	122	8
95	98	2
87	88	1
39	39	9
44	48	1
126	128	3
0	14	3
21	23	2
55	80	5
124	124	5
15	15	7
117	118	3
71	71	2
9	10	9
18	18	5
86	86	7
65	66	5
23	33	2
73	74	2
133	133	2
127	127	7
125	126	2
83	111	2
6	6	13
54	54	4
108	132	3
104	105	6
14	76	4
85	85	8
7	8	4
63	66	1
46	46	8
63	76	2
61	61	2
90	101	5
0	48	2
84	106	6
88	88	4
2	114	3
52	52	4
59	61	5
17	17	8
51	51	5
131	131	7
113	114	1
12	12	5
11	12	2
47	47	12
73	85	2
77	78	3
32	34	1
102	104	2
88	105	4
103	103	9
107	107	11
66	73	2
66	66	6
106	106	4
15	45	2
58	58	12
127	128	10
72	73	3
76	79	4
108	133	4
12	13	6
79	85	5
129	130	7
117	117	7
30	30	3
60	60	7
45	45	5
10	10	7
21	33	2
23	23	6
27	39	3
81	81	5
84	89	4
3	4	5
96	111	1
30	31	4
88	89	6
15	47	6
89	90	2
15	33	1
120	128	1
110	111	7
43	48	1
5	115	1
103	129	1
7	86	4
78	78	5
97	98	11
80	80	6
98	99	1
42	44	1
89	89	4
39	40	1
48	48	3
27	28	7
90	90	6
59	59	6
56	58	2
24	24	8
41	44	4
4	77	1
41	61	5
97	99	2
3	78	4
8	128	1
68	82	1
7	87	6
33	34	3
28	28	4
22	22	6
57	60	3
130	131	2
27	29	3
50	56	1
67	68	4
1	1	6
41	43	2
76	76	13
87	103	1
105	105	3
125	127	4
33	33	2
83	83	7
91	99	6
109	110	2
132	133	3
14	79	2
64	80	1
75	85	3
87	87	4
80	81	4
95	110	4
44	47	2
27	32	2
25	30	3
33	40	7
26	27	2
106	111	4
126	127	2
40	58	1
71	72	2
41	42	2
10	118	1
68	70	2
26	26	4
29	30	2
75	75	10
55	57	2
15	48	1
109	111	3
8	8	5
68	68	3
2	3	1
62	76	2
26	29	2
61	64	2
29	31	3
4	5	2
70	71	5
49	50	1
84	85	2
39	46	1
1	49	1
19	19	1
33	44	1
20	20	4
11	13	3
41	45	1
8	13	3
63	64	3
5	6	2
115	116	2
75	77	3
77	86	2
6	91	2
64	65	1
99	100	2
3	79	1
116	117	5
46	47	1
83	89	2
10	11	1
1	2	1
2	2	1
64	75	1
45	46	3
15	16	2
29	29	2
43	59	1
9	118	1
72	74	3
18	19	4
121	122	2
95	96	1
108	109	1
37	40	1
38	40	1
24	25	1
44	46	1
61	62	2
75	76	2
42	45	1
19	48	1
107	109	1
22	23	1
95	99	1
62	64	1
19	27	1
45	49	1
68	73	1
91	93	2
112	113	1
46	79	1
39	58	1
11	16	1
105	106	1
84	95	1
107	108	1
41	63	1
20	21	1
31	40	1
