27	28	4
102	102	3
116	119	2
88	88	16
51	52	2
38	38	4
38	74	8
2	2	4
4	73	1
48	48	2
34	34	7
40	50	1
166	167	4
26	26	3
28	34	2
135	135	1
148	154	4
12	12	1
167	168	2
25	25	2
120	120	4
142	142	1
166	166	3
87	87	2
1	2	4
80	81	4
136	138	2
93	94	7
36	36	12
28	28	5
65	66	2
13	13	13
85	85	4
124	124	7
89	90	3
7	7	7
155	163	2
146	148	4
22	22	1
44	45	1
165	165	5
155	155	2
5	10	2
24	24	7
11	12	4
6	7	5
163	163	4
70	70	4
113	113	4
76	77	1
105	106	5
62	62	3
3	14	3
16	16	6
141	141	3
66	69	3
117	118	7
26	119	2
55	55	3
2	4	7
160	160	2
15	15	14
133	149	3
118	118	6
127	128	2
161	161	7
14	14	6
41	41	6
111	111	9
10	10	6
83	83	4
130	130	5
90	111	1
62	64	3
137	138	1
34	35	6
81	81	1
73	73	4
45	45	4
137	137	4
17	17	1
65	65	2
151	151	2
9	9	2
33	33	4
41	42	1
99	99	6
12	54	1
56	56	3
143	143	8
101	101	6
40	40	3
43	43	2
149	149	7
2	3	1
67	125	6
149	150	1
99	136	1
131	132	2
104	104	2
132	133	2
133	148	6
18	22	2
21	22	1
37	37	3
150	150	1
93	126	3
54	54	5
75	75	6
0	0	2
110	110	2
74	74	2
109	109	2
108	108	3
152	152	14
18	18	8
23	23	3
103	103	4
117	117	3
28	126	1
128	128	8
133	133	5
73	118	2
6	11	3
91	106	1
100	100	4
131	131	5
76	76	4
89	116	4
154	154	1
86	86	3
89	89	3
68	69	1
118	120	2
124	125	2
136	137	5
78	85	2
93	97	2
38	49	3
138	139	1
70	71	4
107	107	7
160	165	4
116	121	2
36	106	2
130	131	2
122	122	2
3	3	3
49	51	2
96	97	1
6	6	3
130	153	6
65	70	1
157	158	4
48	51	2
22	51	1
147	148	1
90	90	1
93	93	3
50	50	2
13	57	1
67	67	2
19	51	1
108	109	2
26	121	2
8	9	2
132	132	2
155	156	3
66	66	2
24	52	3
145	145	2
125	125	3
52	53	1
119	119	2
156	158	1
100	138	2
27	27	3
157	157	4
159	166	1
97	106	1
52	88	1
20	20	2
135	136	1
98	98	1
79	79	3
94	94	3
19	24	1
5	5	1
162	163	1
42	42	2
4	4	1
134	147	3
125	126	1
139	140	2
97	103	2
140	140	1
159	160	3
110	112	2
74	75	1
87	89	1
8	8	2
64	64	2
44	44	1
53	53	2
18	24	1
77	87	1
170	170	2
46	46	2
131	151	1
61	62	1
110	111	1
88	89	1
63	63	2
84	84	1
123	123	1
