34	34	13
89	89	2
19	22	3
120	120	4
98	98	8
102	103	4
92	92	2
90	90	3
27	29	2
136	136	5
37	37	6
113	113	2
36	36	2
75	75	6
130	131	3
14	14	6
19	19	7
112	116	4
72	73	4
29	29	5
86	86	8
103	108	3
13	14	4
112	112	11
114	116	3
99	100	3
76	76	14
3	7	2
1	10	3
119	127	4
130	130	13
87	87	14
117	118	2
74	80	5
16	17	5
32	37	8
83	83	6
118	119	6
78	78	11
124	128	3
78	91	6
126	126	5
73	75	3
99	99	2
107	109	4
115	115	3
36	38	8
85	85	1
117	117	7
90	91	3
79	84	1
138	138	4
95	95	6
131	132	3
124	124	1
107	126	1
89	105	3
109	109	13
135	136	2
4	10	1
30	30	3
134	134	4
21	26	4
90	100	1
21	21	3
0	0	12
125	125	7
124	132	4
22	23	4
116	116	3
107	123	2
112	127	6
17	38	3
140	140	5
100	100	7
78	89	3
1	15	2
73	83	2
77	119	1
80	94	1
17	19	3
7	7	5
17	17	8
95	112	3
110	111	3
27	34	1
110	110	3
81	82	11
23	23	3
21	23	3
85	91	1
32	32	5
22	25	5
88	90	2
109	124	1
137	137	8
7	9	2
88	88	2
75	104	3
121	121	6
24	24	3
82	82	4
6	13	3
75	76	2
24	26	2
19	21	4
36	37	1
111	111	5
15	15	3
111	112	4
125	126	3
91	94	6
18	31	1
12	13	7
96	111	2
96	108	3
135	135	5
107	107	2
113	116	3
100	108	5
26	27	1
115	120	4
93	93	3
1	5	2
22	22	6
129	130	2
73	73	4
30	32	2
131	131	4
127	127	2
12	18	2
82	87	2
120	123	4
123	126	1
18	23	3
20	20	6
112	113	1
83	95	3
108	108	3
88	104	1
33	33	4
7	26	1
1	3	2
25	25	6
28	29	2
118	118	7
102	104	10
30	33	1
92	105	1
108	110	2
21	27	4
84	84	1
81	87	1
98	99	1
4	6	5
94	94	10
5	5	3
18	18	4
121	122	1
106	107	1
126	132	1
90	119	2
99	102	2
132	133	1
91	106	1
13	15	2
81	81	12
18	26	3
72	98	1
89	91	3
115	117	1
128	129	2
91	116	7
136	139	2
132	132	2
96	121	1
75	83	1
0	2	7
15	19	1
1	1	3
32	35	1
98	104	4
114	114	3
88	100	1
76	78	1
93	94	3
107	113	3
3	3	7
136	138	4
99	101	1
13	13	4
9	9	4
36	94	3
127	128	1
26	26	2
8	28	1
96	101	2
82	83	3
11	32	2
128	128	2
4	7	3
100	120	2
2	2	2
92	101	1
97	97	8
71	71	6
13	25	2
85	102	1
77	90	2
17	32	1
114	131	1
94	104	2
4	4	3
123	123	1
128	133	1
81	83	2
77	79	1
82	100	1
111	117	1
125	127	1
7	8	2
91	91	3
109	110	2
74	74	1
15	28	1
129	131	2
0	10	1
119	119	2
109	116	1
124	126	2
122	123	1
30	31	1
113	114	2
71	72	3
94	110	2
77	77	1
100	109	2
16	16	1
6	30	3
25	35	1
82	106	1
115	127	1
71	84	2
82	85	1
26	28	1
17	28	2
6	17	1
11	24	2
100	111	1
82	94	1
2	13	2
138	139	1
30	89	2
89	97	1
117	119	2
85	86	3
101	114	1
108	123	1
115	116	3
20	27	4
31	31	1
72	80	1
91	118	1
34	37	1
0	12	1
9	10	1
79	117	1
1	11	1
35	35	2
1	2	2
116	117	1
89	92	1
31	37	2
85	87	1
105	109	1
17	30	2
34	36	1
133	133	1
105	105	1
10	12	1
139	139	1
103	107	1
100	105	1
79	80	1
113	115	2
89	90	1
81	89	1
84	90	1
14	16	1
96	96	1
20	32	1
97	114	2
94	95	1
117	132	1
134	135	1
80	83	2
1	6	1
119	121	1
110	115	1
119	123	1
2	8	1
118	120	1
0	19	1
79	90	1
74	86	1
101	101	1
