160	160	5
115	115	7
37	37	4
125	129	2
102	102	2
125	127	1
166	166	5
159	159	5
86	86	2
77	77	5
161	162	1
90	90	2
110	111	5
168	170	1
67	77	1
148	155	1
112	112	11
130	131	1
32	33	2
115	120	3
97	97	4
157	157	10
106	106	3
90	93	4
61	61	4
30	30	2
7	7	4
137	137	1
118	118	3
170	170	4
58	66	1
114	114	6
98	131	2
85	85	1
119	122	4
89	89	1
66	66	3
32	32	4
107	107	3
179	179	4
130	144	1
108	108	4
0	0	4
121	121	3
9	9	4
75	75	2
175	177	1
94	117	3
127	128	1
154	154	9
138	165	3
150	150	1
65	80	1
143	144	3
133	133	7
65	65	4
87	87	1
86	107	2
98	98	3
44	44	7
141	141	3
27	27	2
176	176	12
36	37	3
147	147	3
171	171	5
156	157	5
151	151	1
102	103	1
96	96	2
67	67	3
104	108	2
119	119	2
160	162	3
80	87	3
40	41	3
38	107	2
8	9	4
41	41	1
43	61	3
138	138	9
34	64	1
101	101	1
29	29	4
158	159	3
53	53	5
113	113	5
54	56	1
167	167	2
124	124	7
78	133	1
43	43	1
99	99	1
123	123	3
130	130	4
84	84	1
14	16	2
51	52	3
92	92	1
137	140	3
145	145	1
12	36	3
85	89	3
15	15	2
104	104	4
54	54	1
157	162	3
91	91	1
137	149	2
117	117	3
9	10	1
59	59	5
168	169	1
70	70	2
24	30	4
5	5	2
146	146	1
98	99	4
120	120	3
42	42	1
164	164	2
17	17	1
144	144	2
6	6	4
175	175	2
73	73	3
88	88	2
42	43	1
45	45	2
89	123	2
115	116	1
28	28	3
13	15	2
116	116	1
147	154	2
164	167	3
82	82	1
56	56	1
148	148	4
33	41	1
126	126	1
60	61	1
96	97	3
140	140	4
0	1	1
139	139	7
139	140	2
71	72	3
169	169	4
20	20	1
143	145	1
71	71	1
25	30	1
40	40	2
135	135	1
108	109	1
167	168	2
178	178	2
34	34	1
12	13	1
57	57	2
16	17	1
13	13	4
14	14	1
62	65	1
110	110	1
83	84	2
100	100	1
134	134	4
127	127	2
162	162	1
50	60	1
103	117	1
172	172	1
94	94	1
74	75	1
55	55	4
95	95	1
44	45	3
77	78	1
4	8	1
118	119	2
111	111	1
53	64	1
131	142	1
171	175	1
59	60	1
100	101	1
68	138	3
65	66	1
158	158	2
125	125	1
3	4	1
59	80	2
131	131	1
128	131	1
103	108	1
60	60	1
168	168	1
128	136	1
74	74	1
171	176	1
62	80	1
25	31	1
64	64	1
173	173	1
7	20	1
50	50	1
