138	138	12
90	90	6
96	96	7
82	82	7
10	10	11
116	116	5
165	165	11
9	11	2
144	158	2
80	81	6
74	74	19
174	174	3
113	131	7
89	133	4
105	106	2
74	75	5
162	177	2
41	41	8
84	86	3
72	73	4
50	50	23
5	6	4
31	40	4
53	53	8
59	59	27
149	149	4
35	35	16
21	56	4
131	133	9
23	43	1
139	170	1
147	147	9
29	30	4
175	179	4
85	87	1
68	68	3
99	99	8
99	100	2
110	111	7
127	127	5
118	118	10
173	173	7
44	61	5
26	45	3
32	32	2
132	133	3
15	16	3
133	133	2
74	79	3
73	82	8
128	128	4
13	13	4
15	15	10
81	81	11
43	61	1
54	103	4
50	55	5
6	6	2
100	100	6
7	7	8
168	168	16
154	154	9
14	14	10
124	124	8
36	36	8
125	125	2
102	102	2
67	67	3
153	153	12
148	150	6
37	41	4
66	66	6
147	148	2
176	176	2
119	119	12
2	2	10
163	165	2
92	92	6
164	166	6
75	75	14
102	119	2
113	113	7
31	31	7
150	150	13
108	108	3
98	98	7
44	45	2
5	7	3
60	66	6
103	103	7
12	12	2
16	16	16
109	109	7
58	59	5
30	38	1
174	175	7
60	64	2
51	51	6
39	39	6
40	40	11
160	160	15
37	38	1
179	179	7
50	76	1
104	104	2
80	80	9
73	73	5
146	146	7
15	25	1
10	36	2
23	23	8
81	87	2
169	169	3
10	12	3
57	57	8
78	78	8
139	158	3
157	157	2
78	107	6
105	105	2
148	148	11
71	71	4
134	134	15
0	1	1
79	79	16
102	104	1
11	11	11
104	106	2
158	159	11
64	64	9
83	83	6
128	129	3
132	132	14
130	130	12
30	30	6
125	127	1
77	78	2
112	114	5
88	88	5
158	158	7
115	143	6
122	122	6
30	31	2
113	114	2
93	94	3
27	39	1
24	24	6
168	170	5
137	138	4
142	145	3
31	35	2
142	142	3
52	55	2
178	178	8
101	119	2
130	140	5
72	72	8
104	105	2
117	117	8
106	106	3
114	114	11
27	30	3
25	25	5
147	156	4
65	70	1
140	140	11
138	164	3
66	68	1
166	166	5
77	77	6
104	108	2
124	125	3
59	61	7
56	56	6
43	44	5
118	119	7
178	180	1
45	45	9
153	167	2
129	129	12
139	160	2
171	171	9
134	135	6
91	93	3
37	37	4
15	28	3
10	32	2
66	67	3
0	2	1
96	115	2
157	158	2
95	95	5
82	87	2
115	116	3
40	77	3
83	84	4
56	89	3
167	169	3
76	77	4
19	19	2
50	51	9
42	42	10
18	19	1
76	94	2
61	61	2
98	100	3
72	95	1
88	91	2
9	9	3
38	38	9
58	62	5
145	159	2
67	68	3
104	109	1
34	34	4
144	145	1
83	91	2
17	17	5
55	55	10
44	44	1
4	4	7
135	152	3
7	9	3
22	38	3
13	32	3
29	29	2
32	38	3
75	76	3
129	135	1
92	93	2
112	142	2
80	107	3
54	54	1
10	11	6
91	91	7
123	141	2
91	92	8
152	152	4
180	180	1
18	18	5
163	163	7
79	81	1
19	21	4
144	144	2
84	84	6
26	26	8
97	97	7
96	98	2
172	174	1
60	60	3
61	63	2
139	168	2
87	89	4
141	142	1
159	159	6
159	162	3
23	38	1
0	0	4
164	164	11
62	62	2
106	115	2
8	8	8
16	42	2
162	162	4
131	131	13
16	17	5
10	35	1
144	146	4
102	121	5
126	128	5
155	155	3
87	87	2
155	156	2
28	30	1
126	126	5
111	111	4
150	168	4
90	92	4
172	173	3
95	97	1
52	52	9
73	75	2
107	107	6
27	44	1
123	123	2
28	43	1
122	123	3
136	136	5
150	151	2
86	93	1
93	93	8
27	27	2
145	158	3
27	28	2
97	98	3
76	76	4
138	139	1
40	41	2
8	20	2
30	55	3
57	83	1
85	86	1
135	136	1
125	128	1
115	115	2
65	65	6
21	49	2
122	130	2
156	156	6
33	60	3
58	58	5
162	163	2
70	71	3
38	40	1
161	162	3
42	44	3
153	168	5
31	33	1
158	160	2
134	149	3
54	56	1
58	63	1
3	4	1
114	115	5
27	43	1
43	43	2
136	137	1
169	170	4
145	145	2
110	110	4
85	85	4
5	5	4
37	39	3
112	112	5
154	168	3
63	65	1
147	169	1
159	174	3
71	83	2
13	35	1
111	113	1
72	85	1
112	143	2
3	3	4
118	124	1
34	35	2
89	89	2
86	86	5
60	62	1
21	55	3
62	63	1
6	36	5
86	94	1
104	139	3
60	61	2
121	121	1
155	170	3
173	174	1
97	116	1
51	52	2
137	137	1
142	143	2
72	119	2
130	134	1
170	170	3
22	22	2
17	22	1
164	165	1
129	130	4
10	13	1
116	117	2
53	54	1
143	143	1
20	49	1
127	128	2
96	97	1
52	54	4
22	39	1
111	112	1
107	121	1
33	33	4
52	58	1
172	175	1
73	74	2
131	132	4
148	151	1
41	42	1
136	153	1
151	152	3
139	169	1
135	149	1
134	136	2
111	117	2
14	15	1
17	18	2
21	21	1
114	143	1
22	23	2
31	36	1
122	141	2
40	42	2
175	180	1
39	40	1
11	32	1
127	129	1
1	1	1
16	36	1
63	66	1
127	151	1
63	64	2
63	63	3
84	94	1
19	20	2
107	122	1
14	35	1
99	104	1
153	154	2
71	72	2
82	95	1
139	139	1
96	107	1
120	123	2
42	43	1
60	71	1
68	90	2
151	151	2
44	59	1
135	135	1
28	89	1
169	171	1
35	61	2
169	172	1
59	62	1
83	94	1
170	171	1
76	79	1
1	65	1
170	178	1
125	143	1
80	109	1
