16	16	2
83	83	24
57	58	4
70	70	11
54	54	16
84	84	13
9	14	5
20	21	4
57	57	15
1	1	7
60	60	14
12	82	3
26	28	3
73	74	5
60	61	5
46	50	4
63	63	11
62	63	7
55	55	12
59	59	15
86	87	3
81	82	3
77	77	20
71	74	4
76	80	2
53	54	10
89	89	8
5	5	11
23	24	17
10	13	6
31	31	14
72	74	10
55	79	1
15	16	5
13	13	9
67	67	17
61	62	3
29	30	7
75	76	6
85	85	10
8	8	6
87	88	2
88	88	12
11	13	2
56	56	15
6	6	9
47	47	14
64	64	7
8	9	3
58	81	9
17	26	9
75	75	11
87	87	13
29	29	5
64	76	5
27	27	11
68	68	16
14	14	11
9	9	13
20	20	10
76	76	8
10	14	5
50	51	6
65	65	10
66	66	7
10	10	18
11	11	7
46	81	2
3	3	15
35	65	4
82	82	7
26	26	8
17	28	3
2	2	12
53	53	11
79	80	2
53	55	1
52	53	4
65	81	2
35	63	1
12	12	11
17	17	8
25	25	10
51	51	14
62	76	2
69	70	7
6	7	11
51	52	6
3	5	2
7	14	6
48	82	1
30	30	10
0	5	2
1	6	2
28	28	6
64	65	8
6	14	1
66	67	7
88	89	6
74	75	2
11	20	2
69	69	10
48	48	3
81	81	15
79	79	25
23	25	1
46	46	5
64	80	3
15	15	7
19	19	8
9	30	1
78	83	2
69	72	1
61	61	10
71	71	4
0	0	7
10	15	5
18	19	6
77	79	2
55	56	5
61	63	5
62	62	5
56	74	2
17	27	6
52	52	5
21	21	8
7	7	4
62	64	5
23	23	15
12	67	4
4	4	6
87	89	6
26	27	2
12	13	3
13	14	1
34	34	13
24	24	9
66	80	3
9	10	8
5	14	1
72	72	7
10	11	4
50	50	13
7	16	4
73	76	6
80	80	6
13	19	2
18	47	3
82	83	5
67	68	1
68	69	5
59	60	3
65	79	4
78	78	6
86	86	6
33	33	3
74	74	3
72	73	1
24	26	2
77	78	3
22	22	2
20	22	1
18	18	5
76	77	3
8	14	2
54	68	5
19	20	10
3	7	2
62	80	1
19	83	3
3	4	1
49	49	7
47	81	3
0	1	2
49	50	2
65	66	8
47	48	4
75	79	1
54	55	8
58	58	4
47	49	2
73	73	4
19	84	3
18	66	2
10	12	1
85	86	2
58	80	1
32	78	2
4	5	3
11	19	1
32	64	1
11	12	1
60	63	1
78	80	2
54	57	1
21	71	2
5	6	1
14	15	2
14	59	2
59	81	2
75	77	1
34	61	1
14	25	1
78	79	2
46	47	1
59	62	1
67	71	2
18	82	1
48	49	1
12	66	1
25	28	2
65	80	1
47	50	1
59	61	1
34	35	1
25	26	1
10	22	1
19	68	1
