5	5	2
145	147	4
68	70	4
124	124	3
30	30	7
83	89	2
124	125	1
14	14	2
26	26	5
81	93	4
42	42	5
84	85	1
100	150	1
25	26	3
70	84	1
49	50	2
24	24	4
100	155	5
148	156	3
23	23	5
96	96	9
7	94	4
65	66	2
117	126	3
119	120	3
123	123	3
12	13	1
4	10	1
8	10	6
3	3	2
71	71	6
28	73	1
17	50	1
18	23	5
68	84	2
36	36	9
90	90	7
141	141	6
39	103	1
138	138	1
19	19	4
152	152	8
51	55	2
36	64	1
142	143	2
146	147	1
150	150	6
152	153	3
66	70	4
131	131	4
105	122	4
48	48	7
98	98	3
80	106	2
83	83	5
89	89	12
91	91	11
99	101	1
129	129	5
27	27	16
44	45	4
95	96	6
22	22	2
140	140	6
70	70	6
84	84	6
127	127	5
41	41	3
110	110	5
52	52	7
104	157	2
105	105	3
18	19	1
151	152	3
82	82	4
11	48	4
90	91	1
21	22	4
1	1	4
41	93	5
39	39	5
32	32	2
120	121	1
112	112	9
22	23	2
83	90	2
48	55	2
96	97	1
116	117	2
21	21	7
103	104	2
114	114	7
102	102	3
119	119	1
12	14	2
131	142	4
123	148	2
36	37	4
150	152	2
47	47	5
104	105	1
4	5	3
48	51	1
16	17	4
72	72	1
92	92	2
65	93	2
117	117	4
20	20	1
113	113	5
35	77	2
9	10	2
149	149	2
84	88	1
134	134	5
148	148	6
50	51	1
154	155	1
92	93	1
144	153	1
137	152	2
85	85	3
106	106	7
78	78	4
2	2	5
23	48	2
45	46	2
133	133	4
117	120	2
54	55	2
100	100	1
132	132	5
86	87	1
73	73	6
43	43	3
108	108	2
13	15	2
64	64	2
138	150	1
113	114	4
42	91	1
122	122	5
77	77	5
135	136	1
126	126	5
13	16	1
37	37	5
8	52	2
20	22	1
107	108	1
65	65	2
133	136	5
40	40	7
11	11	3
123	147	2
95	97	1
131	137	2
43	72	1
63	64	2
121	121	2
29	97	1
34	35	1
107	107	5
101	101	2
95	95	5
52	53	2
18	18	3
119	121	2
99	99	2
153	154	7
0	0	2
98	99	3
1	75	2
16	16	4
19	20	1
6	6	2
132	133	5
99	120	3
39	80	3
104	104	3
4	4	3
91	92	3
125	125	4
69	69	4
8	9	1
69	85	1
44	47	3
106	118	1
33	33	4
120	120	1
112	122	1
118	121	4
45	56	1
153	153	2
100	148	1
45	45	2
37	42	1
155	156	1
68	71	3
56	56	3
78	119	3
106	119	1
106	108	1
7	7	2
8	32	1
30	52	1
109	110	1
76	76	1
151	156	1
31	49	5
32	36	2
6	10	2
57	71	2
92	94	1
49	51	2
94	94	3
130	130	1
14	17	2
151	151	2
127	128	2
125	126	3
44	44	3
68	69	1
99	105	1
64	83	1
143	143	1
139	139	4
79	80	1
46	53	3
54	54	1
68	68	1
100	117	1
137	137	1
85	86	1
97	97	1
53	53	2
5	95	2
128	128	1
67	67	1
116	116	2
29	29	4
155	155	1
39	92	1
158	158	1
67	68	1
74	74	2
33	34	1
88	88	1
19	21	1
35	36	2
35	35	1
111	111	1
93	93	1
80	80	2
17	17	1
1	76	1
140	141	1
76	97	1
87	87	1
37	91	2
103	103	1
50	50	1
38	82	1
86	86	1
156	156	2
30	92	2
88	89	1
145	145	1
20	21	2
19	73	1
126	127	1
39	94	1
100	116	1
34	36	1
146	146	1
43	65	1
118	118	1
29	30	1
26	73	1
109	109	1
34	34	1
100	128	1
