61	61	5
4	4	1
44	44	4
75	111	1
49	49	8
78	78	9
2	103	2
101	106	3
40	44	3
20	21	5
106	106	7
63	63	4
102	102	5
26	26	8
6	6	7
57	73	2
44	48	6
55	55	3
93	94	10
24	24	7
70	71	8
46	46	7
90	90	6
91	91	5
16	16	7
77	100	5
89	89	9
60	61	3
48	48	10
7	7	10
67	67	24
119	119	8
46	58	5
61	62	4
19	19	2
14	14	11
55	71	6
127	129	4
113	113	3
94	94	10
97	97	5
114	115	5
119	120	5
62	62	8
22	23	5
66	67	3
71	88	3
33	39	2
64	65	4
79	79	3
18	19	4
95	96	1
56	100	4
11	12	6
84	84	11
68	100	3
52	52	6
22	22	11
58	60	6
71	71	6
102	103	1
115	115	3
130	132	4
114	114	11
25	25	9
116	118	2
94	102	1
69	69	6
34	39	4
83	83	7
29	29	4
111	111	7
109	111	2
56	56	11
43	43	23
27	27	6
53	53	10
21	71	2
31	32	2
3	4	7
12	12	4
85	85	4
118	119	2
96	96	5
107	107	7
93	93	15
126	127	2
97	120	2
21	25	2
108	108	9
100	103	7
104	104	3
83	84	3
57	57	17
42	42	12
2	4	2
121	121	10
3	3	9
95	95	5
34	34	1
0	0	3
2	2	1
13	13	5
64	64	3
116	116	3
98	98	6
110	111	3
115	118	2
39	40	5
113	114	4
125	126	2
17	17	5
8	8	2
40	40	5
76	76	3
129	129	2
73	73	9
21	30	3
103	103	1
50	50	5
80	80	10
62	66	2
52	53	2
30	30	9
17	18	9
49	93	1
23	23	6
62	115	5
73	74	1
15	15	8
63	64	8
9	9	3
28	28	3
3	5	1
18	18	4
59	59	9
109	109	3
65	65	9
86	86	2
41	41	2
15	16	7
131	131	2
94	95	3
92	92	6
128	129	2
47	47	5
130	133	2
74	77	3
127	128	4
124	125	2
84	85	2
132	132	2
12	32	2
61	116	5
72	73	2
59	120	1
21	21	2
88	88	5
100	100	4
123	123	11
55	79	3
63	114	2
76	105	4
94	105	2
128	128	1
110	110	4
133	133	2
101	101	8
23	24	4
126	128	4
75	98	3
28	30	2
75	77	1
78	95	1
49	94	2
55	56	3
48	49	1
106	107	1
99	99	3
55	70	3
29	31	1
61	66	2
79	102	1
39	39	3
68	69	1
125	125	5
118	118	4
120	121	1
87	87	6
91	92	5
61	68	1
58	58	7
117	118	2
3	40	1
116	119	3
82	82	6
25	30	2
3	41	1
45	45	7
58	67	4
121	123	2
47	48	3
86	89	3
90	91	1
121	122	3
29	30	4
75	75	3
47	55	1
50	123	2
52	69	1
104	105	2
86	88	9
82	89	2
25	27	1
82	85	1
124	124	2
16	17	2
105	105	1
38	38	2
91	93	2
59	61	1
70	89	2
58	98	2
81	105	1
6	8	2
43	44	2
104	106	2
84	89	1
80	81	2
90	93	1
27	28	1
58	120	1
7	8	1
3	42	3
131	133	2
54	54	1
122	122	1
69	70	2
68	68	2
92	93	3
100	101	2
5	5	9
127	130	1
31	31	1
45	47	2
59	115	2
103	104	2
30	65	2
71	72	2
0	50	3
15	39	1
97	98	1
74	74	1
10	33	1
19	26	2
87	88	2
90	95	1
10	10	1
95	110	1
120	120	1
44	45	2
78	94	2
77	77	1
25	26	1
57	58	1
42	44	1
1	2	2
5	6	1
21	22	2
32	32	1
111	112	1
23	69	1
38	39	1
11	32	1
10	40	1
60	62	1
