27	27	8
51	51	15
86	87	1
76	76	22
57	57	11
33	33	13
65	65	24
64	65	4
33	34	2
34	39	2
72	73	3
64	64	21
70	71	5
86	86	9
75	75	29
40	40	13
45	77	4
35	39	4
70	70	18
67	67	4
78	78	7
80	81	3
79	80	4
85	85	16
96	99	3
68	78	1
90	90	8
42	42	16
53	97	3
68	68	17
89	89	11
25	27	5
79	79	21
97	97	12
39	59	5
22	28	8
61	62	3
41	41	30
69	70	3
62	63	4
63	84	2
61	84	3
77	77	19
91	91	6
73	73	9
59	60	1
92	92	10
81	81	10
62	88	1
69	71	6
86	92	1
44	44	7
65	66	9
59	59	5
23	23	7
43	43	4
56	57	9
29	29	8
71	71	5
53	57	5
28	36	1
89	93	3
87	88	2
38	38	14
55	57	6
61	61	15
63	63	20
81	86	1
37	37	7
60	60	8
72	72	9
25	25	7
47	77	2
66	67	4
82	88	2
56	86	3
76	83	2
48	48	8
20	20	7
58	59	3
41	74	3
54	54	5
88	88	10
96	96	6
48	49	3
44	45	2
35	36	1
97	98	2
67	68	3
47	47	2
64	67	1
58	58	5
43	50	2
41	44	4
62	62	7
74	74	10
66	68	3
88	89	2
34	34	6
31	32	2
75	78	1
75	77	3
52	54	4
68	69	1
46	46	1
67	86	1
74	75	3
66	66	6
95	95	2
55	55	3
80	80	5
65	89	8
60	62	5
99	100	1
63	85	2
55	68	1
87	87	12
35	38	3
94	94	4
30	30	3
83	92	3
54	70	1
100	101	2
35	42	1
56	92	1
80	83	2
72	74	2
62	89	3
93	93	4
36	36	6
82	82	3
41	62	4
30	33	1
71	72	1
25	26	4
69	69	3
66	72	2
46	81	1
45	45	6
86	88	1
65	93	1
87	91	1
61	88	2
57	90	1
68	70	4
83	83	3
98	98	5
46	77	2
99	99	2
91	92	1
56	56	2
33	35	1
78	81	1
89	96	1
71	78	1
49	49	3
77	83	1
51	52	1
21	21	3
50	70	2
47	48	1
69	72	1
67	73	2
84	84	3
47	81	2
62	68	1
97	100	1
72	78	1
31	31	1
36	37	1
43	77	2
39	39	1
81	87	1
61	89	3
79	81	1
26	26	1
98	101	2
44	71	2
93	101	1
56	93	1
61	86	1
68	71	1
101	101	1
81	82	1
