50	157	2
99	122	2
163	232	1
30	30	6
38	38	9
138	150	2
164	164	7
218	218	5
10	10	16
75	75	5
220	220	18
221	221	9
76	77	3
31	31	10
98	186	5
212	212	8
25	25	5
53	53	7
171	171	9
7	7	1
14	14	5
203	203	7
163	163	7
34	34	4
170	170	13
136	136	11
220	223	7
70	70	4
46	137	5
240	240	25
72	72	12
34	79	2
65	66	3
238	238	6
45	45	6
105	105	7
22	108	2
239	239	5
81	167	1
196	196	11
100	159	5
19	20	3
150	150	3
104	137	2
197	198	8
179	179	12
65	65	7
152	152	5
107	107	3
115	115	12
74	74	4
187	188	4
89	132	3
51	51	7
95	95	3
71	72	8
191	191	6
98	174	1
126	126	7
161	161	9
204	230	2
179	241	3
185	186	3
241	241	15
88	199	2
137	137	5
36	36	11
148	148	3
70	71	4
135	136	3
218	223	2
106	107	7
227	227	9
51	52	3
192	192	5
182	236	7
168	168	14
219	228	5
100	160	1
60	60	16
145	146	3
48	49	6
35	106	2
37	37	6
176	176	5
208	208	10
210	210	8
40	41	2
139	139	1
149	149	11
231	231	4
35	35	10
86	86	5
217	217	5
116	116	11
186	186	12
101	101	8
228	228	11
158	172	3
16	17	1
19	19	10
133	133	10
194	195	4
169	172	2
156	158	2
0	0	6
194	194	3
111	111	5
102	127	3
128	139	3
8	8	5
237	237	7
141	142	6
143	143	7
187	187	8
206	206	8
135	135	8
121	148	1
199	200	8
104	142	2
144	144	4
157	157	6
75	76	3
166	166	2
223	223	3
80	80	7
151	151	4
109	109	2
154	155	1
164	165	1
134	134	10
160	160	9
48	48	6
185	185	4
61	61	4
202	202	8
69	69	2
1	1	8
124	187	3
204	229	4
100	100	1
57	132	2
156	156	7
111	113	1
212	214	2
2	3	3
180	181	3
222	222	5
125	126	5
20	69	3
68	68	2
33	202	1
223	225	1
211	211	8
211	219	2
183	184	2
181	241	2
10	64	2
31	68	4
3	179	1
123	188	1
174	174	9
18	19	3
161	162	1
111	116	1
55	157	3
129	129	6
11	11	5
83	83	3
127	127	6
67	67	4
2	10	1
166	168	3
161	168	1
108	108	8
104	134	2
139	140	5
3	71	3
55	55	8
141	141	6
101	142	3
205	205	6
85	170	5
121	121	7
63	63	12
129	197	2
66	67	9
44	45	4
78	82	1
226	227	13
181	181	5
89	144	3
188	189	5
172	175	2
30	238	1
46	151	2
151	192	1
41	41	2
47	47	6
55	154	1
196	197	4
90	90	1
219	221	2
32	32	11
242	242	5
17	17	3
188	188	5
162	164	2
20	20	6
18	18	5
89	89	1
27	27	8
208	210	1
19	163	3
225	226	3
109	136	1
178	178	7
23	23	8
24	24	8
104	104	5
43	43	9
26	26	8
33	34	3
5	5	3
178	196	3
112	112	2
32	68	5
120	120	2
223	224	7
59	59	8
24	167	2
229	231	1
216	217	1
214	225	1
99	99	1
119	119	9
14	79	3
140	140	9
216	216	6
154	154	3
42	42	9
222	227	2
182	182	3
9	9	5
6	6	4
141	186	4
73	73	6
180	192	3
133	194	1
98	98	5
215	216	10
103	103	14
165	165	7
135	145	2
51	102	1
108	118	3
86	160	6
29	67	2
127	161	2
34	109	2
154	234	2
49	54	1
113	116	4
201	201	14
183	183	11
16	16	3
76	76	5
51	53	3
102	104	3
54	54	3
32	33	2
184	184	3
131	133	2
73	74	4
42	47	1
209	209	6
56	58	2
124	124	3
61	172	3
219	219	2
182	183	1
66	66	3
123	123	5
167	168	1
33	33	7
101	105	3
145	145	3
77	77	2
71	71	3
21	21	7
179	180	5
3	4	2
78	79	3
108	119	2
202	203	3
134	194	1
230	231	3
78	78	11
189	190	4
172	172	2
114	114	3
173	173	3
146	146	2
192	193	1
144	145	8
15	225	1
88	88	1
2	7	2
189	189	5
197	232	4
97	97	3
13	36	2
112	113	2
137	139	1
49	50	1
200	200	3
56	106	2
193	193	6
5	240	4
155	156	2
210	229	3
36	96	2
102	103	2
102	119	3
170	197	2
235	236	2
108	109	4
30	36	1
61	62	1
156	157	2
193	194	3
131	145	1
122	123	3
169	169	6
204	228	1
228	229	5
28	28	4
180	180	6
0	1	4
140	141	1
37	38	2
222	223	8
106	143	3
178	192	1
60	199	4
17	86	2
159	160	2
53	103	1
150	151	6
52	52	1
230	230	2
4	4	8
30	111	3
122	122	3
118	119	2
195	195	2
190	196	2
200	201	2
13	13	5
15	15	4
190	204	2
20	164	3
171	172	3
46	46	6
40	40	5
56	56	6
130	130	5
151	180	1
123	201	2
49	49	8
79	79	2
233	234	1
58	58	2
27	28	3
240	241	4
81	81	3
64	64	2
125	125	6
22	22	1
106	148	4
52	103	2
44	44	4
82	82	1
2	2	5
29	29	4
109	145	1
118	142	1
212	213	3
55	156	1
217	230	1
118	118	3
7	8	2
195	196	1
124	163	1
10	11	4
214	215	2
235	235	5
237	241	2
177	177	3
54	75	1
126	134	3
82	133	2
148	183	1
3	3	7
236	236	2
62	62	2
128	128	2
84	84	3
5	6	3
106	110	2
206	209	4
118	125	1
187	190	2
8	201	2
204	208	2
128	159	3
229	229	1
82	135	1
191	192	1
116	128	2
117	117	1
106	167	3
205	229	1
106	106	7
30	202	2
153	154	2
26	28	1
54	56	1
109	110	1
111	112	2
199	199	1
20	206	1
81	136	1
6	8	1
116	196	2
116	117	1
162	162	3
3	11	2
12	21	1
123	124	2
43	44	2
129	131	2
61	63	1
233	233	3
181	182	1
187	189	1
142	142	2
20	21	1
12	12	2
206	207	1
3	8	1
44	149	3
213	214	3
204	205	3
205	206	2
142	143	2
57	59	1
203	204	3
1	4	1
214	214	5
178	191	1
5	66	1
13	202	1
202	207	1
219	220	2
187	215	1
137	198	3
158	159	1
70	85	2
228	230	1
59	104	2
6	72	1
11	65	2
175	176	1
155	155	2
82	137	2
218	221	2
28	97	2
105	133	1
31	32	1
14	15	1
34	40	3
204	204	2
131	131	1
59	60	1
4	6	1
10	20	2
153	153	2
113	113	4
103	134	1
217	218	3
167	167	4
198	199	2
213	213	3
203	241	1
39	40	1
193	197	2
204	206	1
115	148	1
195	205	1
129	133	1
13	79	1
130	163	2
0	76	2
8	9	2
163	165	1
125	158	1
176	177	2
132	159	1
144	156	2
202	206	1
153	194	1
12	22	2
17	18	1
224	224	5
196	237	1
104	143	1
191	202	1
63	162	2
223	233	2
209	210	2
193	229	1
18	144	2
147	147	1
83	84	2
48	50	2
190	190	2
5	9	2
136	142	1
225	225	1
136	154	1
36	183	1
58	59	1
21	22	1
96	96	1
57	57	1
198	198	4
120	121	1
176	179	1
50	50	3
147	157	2
217	219	1
39	117	1
39	39	4
128	134	1
31	34	1
170	172	2
126	127	1
207	207	1
226	226	1
37	97	1
56	124	1
80	100	1
152	196	1
88	198	1
159	159	1
20	181	1
78	236	1
111	118	2
232	232	2
24	97	1
113	146	1
203	230	1
226	228	1
79	80	1
95	108	1
26	37	2
180	238	1
121	186	1
51	103	1
98	99	1
69	130	1
211	220	1
38	47	1
159	190	1
32	34	1
220	222	1
50	51	1
123	162	1
