71	71	16
117	117	18
181	181	16
27	27	14
110	110	15
236	236	24
204	204	15
58	58	20
12	12	20
8	87	1
150	150	27
22	22	11
93	93	17
168	170	6
185	185	8
166	244	6
29	29	13
155	155	25
213	214	2
100	100	29
234	234	15
52	53	4
53	53	17
2	3	5
168	176	6
6	6	8
196	198	7
13	152	2
59	59	14
221	221	9
194	194	11
85	85	29
197	197	7
161	161	11
225	226	2
199	199	11
4	99	1
186	186	13
217	233	2
9	9	8
4	5	4
62	65	7
49	49	6
3	114	2
60	61	6
224	225	4
119	152	2
46	59	3
229	230	5
195	195	10
32	33	8
111	111	25
1	1	26
232	232	15
78	91	3
107	118	1
171	171	18
43	153	9
38	38	7
39	39	14
109	109	19
101	101	13
162	162	15
31	31	18
40	40	27
10	10	26
220	220	17
144	145	5
19	37	6
90	91	10
28	28	19
198	198	12
105	112	5
154	154	25
20	38	5
212	212	18
104	104	17
242	242	13
70	70	10
95	95	16
203	203	7
220	243	3
14	154	5
218	218	8
162	205	2
173	173	16
26	26	18
228	228	10
20	21	7
36	36	22
95	96	8
118	118	9
87	87	18
196	196	3
100	145	5
227	227	7
182	182	12
35	35	13
48	48	13
26	27	6
171	225	2
101	102	3
44	44	31
208	209	5
163	164	2
160	236	5
214	214	10
197	198	6
5	105	2
82	82	24
244	244	10
25	25	16
241	242	3
17	17	17
217	217	9
151	151	25
62	62	12
168	169	10
211	235	2
62	79	3
209	209	18
65	65	11
90	90	15
202	203	2
14	153	3
23	23	8
166	166	10
170	211	2
113	113	12
93	94	4
159	172	1
237	238	4
15	16	6
184	184	13
16	16	11
183	205	3
66	66	19
188	188	10
67	67	10
84	84	8
231	231	4
210	211	2
177	178	6
52	52	10
149	150	4
178	178	8
215	218	2
180	180	9
150	151	8
187	188	2
78	92	4
89	89	20
177	177	11
223	224	1
75	76	4
1	32	2
242	243	8
175	175	8
47	47	17
223	223	10
181	243	2
112	117	9
235	235	18
78	78	10
6	7	3
66	182	1
116	117	5
210	210	14
21	21	8
53	54	4
102	102	9
46	46	23
202	202	12
35	110	2
108	111	2
45	45	24
57	57	15
180	188	4
72	73	7
0	1	2
113	145	1
75	79	4
76	114	1
6	70	1
0	110	3
22	40	1
83	106	1
10	11	5
187	213	2
106	107	6
206	212	3
229	229	10
45	46	8
51	52	10
206	206	14
14	14	9
102	103	6
54	54	22
173	174	2
107	107	14
11	11	36
113	114	5
107	112	2
187	187	21
241	241	13
226	226	8
119	119	7
99	99	10
33	33	12
78	97	2
4	60	7
92	93	2
245	245	7
56	63	2
6	99	3
246	246	12
93	98	6
158	158	11
30	31	6
12	15	1
116	116	12
238	238	6
226	229	8
33	109	2
109	110	7
173	175	4
145	145	8
184	186	6
214	215	3
80	80	7
153	153	13
188	218	2
30	30	8
195	245	3
10	38	2
55	173	2
243	244	3
67	110	4
207	207	8
31	110	7
193	197	3
152	152	5
240	240	3
199	200	3
180	186	3
57	114	1
248	248	9
181	185	10
91	91	12
160	160	5
8	8	8
225	225	15
53	203	4
112	112	20
57	113	2
14	77	1
200	201	3
18	18	15
161	189	3
5	5	8
51	171	1
203	204	4
25	26	4
232	233	12
28	31	2
50	50	14
67	68	11
226	227	2
206	209	2
147	147	8
145	212	1
181	182	3
165	166	2
32	32	9
191	192	6
144	144	3
51	51	10
146	146	2
183	183	15
237	237	5
39	48	2
76	77	9
244	247	3
103	103	13
174	174	4
190	190	13
208	211	5
201	204	1
68	70	2
98	105	2
96	96	16
57	184	1
92	92	11
152	209	1
168	228	2
191	191	18
76	76	9
193	199	1
114	119	2
37	37	6
97	97	9
42	42	10
156	225	1
63	63	12
118	119	5
216	232	1
151	152	3
166	167	3
19	19	13
222	222	5
51	173	1
235	236	3
155	204	1
49	50	3
245	247	4
167	167	14
31	52	4
196	199	3
231	232	3
230	230	9
8	9	9
81	81	18
99	102	5
105	106	4
87	88	4
159	233	4
42	66	5
105	105	5
77	77	6
34	35	6
205	205	13
172	228	4
191	207	4
195	219	1
180	185	3
191	218	2
83	83	5
211	211	12
20	20	14
168	168	8
218	237	3
45	154	6
218	219	6
62	63	2
99	100	6
34	34	12
4	57	3
73	73	8
176	177	2
41	184	4
41	41	17
17	18	1
169	169	7
168	214	2
169	215	3
186	191	1
62	64	3
91	107	1
159	171	1
233	234	4
162	214	2
7	7	5
200	200	8
43	43	7
215	216	4
56	81	4
165	200	4
119	120	2
201	201	14
162	163	4
68	68	9
57	58	8
108	116	4
224	224	17
194	246	2
157	179	8
72	72	5
15	15	17
87	167	3
56	57	1
120	120	3
106	115	1
40	43	3
179	179	10
157	178	2
114	114	10
64	64	17
69	70	5
73	239	4
159	159	3
218	220	6
70	120	1
163	167	3
202	205	5
66	176	4
174	203	3
176	176	10
19	20	4
68	76	1
173	180	3
28	29	5
43	71	4
80	81	10
185	211	2
233	237	4
30	111	5
69	69	14
190	194	5
105	107	9
153	202	2
51	62	2
193	195	8
106	106	8
96	97	1
94	94	9
173	206	1
58	60	2
240	241	6
170	170	5
37	235	4
88	89	3
76	110	3
239	239	10
81	90	3
156	183	4
57	60	3
182	204	1
14	15	3
163	165	2
7	8	2
145	167	2
239	240	1
75	75	5
62	66	1
99	109	3
103	104	3
161	193	6
56	56	10
107	108	2
86	89	3
56	62	2
193	239	2
79	79	7
169	170	5
183	239	3
163	168	4
234	248	3
171	227	5
192	192	5
22	25	2
169	213	3
166	209	2
88	167	1
76	101	1
221	223	2
111	112	6
63	64	2
75	120	2
86	86	9
14	61	3
82	98	2
149	149	5
98	98	8
149	170	3
181	186	5
63	116	1
31	32	7
55	55	8
214	242	2
159	190	1
68	75	3
178	180	3
227	228	2
19	38	1
103	105	2
204	209	1
65	184	1
165	169	1
79	80	8
243	246	3
98	99	3
54	55	3
178	210	1
161	206	1
72	74	1
6	10	4
86	87	4
34	37	2
156	224	2
49	171	2
13	13	1
67	70	1
3	3	4
12	35	1
160	208	1
218	236	1
175	201	1
66	68	2
204	205	2
216	217	2
169	230	3
163	163	14
65	75	1
191	196	3
4	4	3
62	76	3
67	71	2
14	152	3
62	207	3
213	213	10
156	156	8
15	60	3
155	206	1
208	237	2
115	115	14
85	147	5
6	44	1
61	61	11
41	93	2
164	168	1
184	201	1
56	60	1
5	71	1
71	72	1
65	71	2
108	108	6
88	88	7
23	64	3
156	220	1
72	111	1
176	223	3
158	178	1
40	91	2
83	85	1
179	180	5
62	77	1
157	157	1
194	195	3
10	12	3
236	237	1
205	211	2
42	69	1
218	221	3
210	214	2
58	64	2
223	229	1
185	203	6
189	189	12
211	212	6
198	199	2
171	175	1
235	247	2
235	242	2
171	214	1
162	213	4
197	199	7
178	242	1
180	212	6
63	212	2
119	154	4
71	74	2
183	184	3
86	105	2
211	214	3
234	235	4
52	54	2
18	38	2
211	224	2
153	154	4
187	191	2
66	67	3
152	153	2
69	71	3
201	202	5
70	106	1
241	249	2
145	229	3
5	106	2
30	112	5
71	113	2
14	26	1
106	114	4
159	176	1
208	223	4
171	226	2
196	220	2
186	240	2
24	24	9
247	247	8
65	73	4
69	105	6
18	19	2
186	187	2
11	12	2
60	174	2
44	101	2
172	172	9
47	48	3
6	45	2
93	95	2
8	15	2
56	67	1
161	228	4
58	63	2
215	215	10
200	223	2
188	237	4
73	75	2
43	44	1
109	112	1
65	66	4
56	59	2
22	24	3
90	119	3
110	111	1
164	220	1
178	241	4
236	239	2
178	233	2
164	164	2
48	49	2
61	68	2
85	92	2
180	181	1
216	216	4
110	113	1
174	179	1
64	74	1
162	223	2
60	60	1
162	165	3
171	230	3
74	74	5
157	158	2
75	118	3
161	209	1
238	239	1
39	242	1
14	105	2
233	233	5
97	98	1
38	48	1
180	213	1
9	10	2
165	165	2
223	246	3
201	206	4
182	237	1
83	216	2
202	206	1
193	193	1
74	116	1
186	238	2
236	238	1
38	242	1
29	30	2
7	87	1
179	204	3
104	106	1
14	35	1
8	108	2
21	87	3
91	92	3
149	210	1
159	234	2
162	200	1
45	145	3
233	235	2
78	120	3
37	39	2
149	152	1
27	40	1
195	231	3
5	8	1
197	208	1
233	242	1
169	214	1
155	156	2
159	188	3
154	155	1
97	104	1
243	243	5
46	47	5
8	43	2
66	181	2
38	229	2
38	244	2
85	89	1
69	75	2
188	191	1
8	68	2
214	230	2
192	246	2
98	104	2
225	235	2
247	248	2
63	77	2
102	107	2
208	208	3
82	83	2
92	113	1
220	233	1
163	166	2
108	119	1
47	50	1
30	52	1
113	117	1
209	242	1
64	65	1
209	211	3
219	219	4
2	2	4
56	66	1
153	201	1
168	213	1
180	247	1
244	245	1
232	234	1
23	24	2
193	240	3
73	237	4
41	85	1
38	39	4
181	208	1
215	220	3
189	216	1
162	164	1
117	118	1
50	51	2
9	12	3
22	23	1
189	195	1
161	211	2
13	14	1
220	222	1
171	221	2
4	92	1
188	195	1
175	176	1
4	112	1
219	220	1
32	63	1
92	98	1
165	222	2
189	192	2
171	176	3
166	205	1
207	209	2
224	226	1
78	80	1
209	247	2
57	77	1
84	92	2
182	201	1
50	221	1
34	64	1
186	241	1
186	192	2
169	171	1
52	205	1
200	220	1
228	229	1
193	194	1
63	174	1
82	84	1
212	236	1
157	172	1
40	235	1
210	242	1
239	245	2
177	180	1
165	167	1
110	117	3
185	186	1
46	56	1
35	65	1
115	116	2
46	199	2
157	225	3
181	184	1
170	210	1
28	43	1
190	192	1
211	223	2
8	236	1
173	177	1
40	237	1
196	197	1
5	7	1
209	223	2
78	119	1
179	210	1
176	183	1
59	60	1
60	105	1
113	115	2
5	43	1
171	228	1
70	113	1
105	108	1
238	241	1
20	39	2
84	85	1
215	232	1
192	208	1
169	228	1
182	224	1
11	26	3
214	221	1
84	86	1
112	114	1
66	76	1
196	215	1
6	59	1
1	19	1
60	90	1
210	235	1
216	218	1
46	52	1
159	224	1
151	204	1
21	22	1
80	119	1
222	223	1
20	37	1
