84	84	9
96	96	4
76	76	4
115	115	2
108	115	6
78	83	2
93	94	5
25	26	4
121	121	7
38	38	17
86	86	4
12	12	2
21	21	8
9	43	3
116	116	8
81	81	5
118	119	1
7	8	5
110	110	3
11	11	8
4	11	2
127	127	8
133	133	8
82	84	1
36	36	9
79	79	7
17	18	4
3	4	2
31	31	7
28	28	5
7	7	13
134	135	7
76	80	4
134	134	9
87	87	15
19	29	6
89	90	1
34	34	5
17	76	3
106	106	13
99	99	2
78	78	5
117	117	7
101	101	4
18	18	2
100	118	2
6	6	12
113	115	2
30	30	13
113	113	6
13	14	2
2	2	11
107	107	12
132	132	3
25	25	18
37	37	3
100	103	2
13	13	4
102	113	1
119	125	3
29	29	8
29	31	5
72	72	15
121	122	3
104	115	3
4	4	8
16	78	2
130	130	10
14	18	2
100	100	11
85	117	1
22	24	2
9	11	2
9	10	1
105	105	11
77	82	2
140	140	3
108	108	3
21	26	3
82	83	2
8	19	7
8	8	7
5	5	13
126	133	1
118	124	1
89	89	15
104	105	2
131	131	5
3	3	3
110	111	3
74	74	5
71	71	9
83	83	8
122	123	2
75	75	3
91	97	6
23	23	2
129	129	8
137	137	5
120	127	1
9	20	1
0	1	2
136	136	2
87	117	1
0	16	3
120	123	2
17	17	9
16	79	1
7	19	2
16	16	4
24	24	5
123	123	4
27	27	2
77	77	5
118	118	6
20	84	1
123	127	2
128	128	4
112	112	3
5	27	4
16	28	5
101	106	4
36	37	1
2	11	4
14	15	2
86	131	1
1	1	11
88	88	3
4	5	3
119	119	8
12	14	3
75	111	3
33	33	3
76	79	3
35	35	6
126	126	6
106	107	1
9	12	4
105	116	1
121	123	1
73	116	1
135	135	1
124	127	1
122	122	8
2	20	4
138	138	5
139	139	1
118	126	3
94	94	1
9	9	3
109	109	5
1	73	1
139	140	4
125	125	1
22	22	2
14	14	3
107	130	3
85	85	2
100	113	1
78	81	1
90	99	4
117	126	1
31	68	3
10	11	3
92	94	2
2	3	3
111	111	1
118	125	1
98	98	2
79	80	3
124	124	4
114	114	3
32	32	2
105	110	1
0	28	3
75	77	1
1	16	2
0	0	3
75	91	2
118	120	1
4	27	2
86	87	1
100	101	3
121	126	1
95	95	6
75	102	1
86	90	6
99	136	1
33	34	2
82	82	1
91	91	1
93	93	2
71	104	1
88	89	3
2	4	2
89	100	2
128	129	1
7	30	3
16	72	1
16	18	2
92	98	2
26	26	2
19	19	1
136	140	1
44	84	1
120	120	5
20	20	3
75	82	1
104	110	4
132	133	3
24	25	1
92	92	1
8	29	3
107	108	1
131	132	1
99	102	1
104	104	1
76	77	2
19	20	1
15	15	2
103	111	1
114	115	1
102	102	1
115	126	1
101	104	1
100	115	1
130	132	1
37	38	1
124	126	1
