0	15	1
105	105	2
84	84	6
11	12	7
110	110	8
90	90	6
95	124	6
109	115	1
94	94	11
88	88	5
122	122	13
71	71	7
82	113	2
97	97	5
113	113	9
86	86	3
1	12	10
79	79	9
35	68	6
83	84	5
134	134	4
7	36	2
27	27	13
139	139	5
129	129	7
12	12	6
112	112	16
1	4	6
19	20	9
117	120	3
109	109	3
112	113	2
30	31	5
100	100	15
23	25	1
75	107	3
72	110	2
111	126	1
77	78	6
4	4	7
79	106	1
136	137	2
132	133	1
103	106	2
137	137	10
8	8	9
9	32	4
100	101	3
1	2	6
92	92	4
77	80	1
77	77	11
91	122	3
119	119	4
111	111	20
97	98	3
114	116	1
21	21	11
13	13	5
110	112	3
125	127	2
83	83	8
101	120	2
29	31	3
126	126	8
7	7	11
108	113	5
136	136	4
117	117	8
124	125	6
114	115	2
6	6	19
78	78	11
19	21	2
107	107	4
102	102	26
99	99	3
140	140	7
33	33	8
22	22	6
92	93	3
73	73	4
31	31	11
16	18	1
104	106	3
20	23	2
82	84	5
130	130	5
14	14	18
125	125	2
107	108	4
104	114	2
115	115	14
133	133	8
127	127	11
37	37	18
113	114	1
114	119	3
20	20	15
17	18	3
106	106	5
95	95	8
106	116	3
5	5	9
3	4	4
29	29	6
108	108	7
114	117	7
18	18	10
134	135	6
3	3	8
120	120	15
84	110	1
119	120	4
35	37	3
26	26	14
2	31	4
1	1	13
121	121	8
75	75	3
2	2	11
15	15	3
85	85	3
78	79	4
0	0	5
28	28	8
36	36	5
128	128	3
91	91	6
87	104	2
0	6	3
116	116	10
118	118	5
72	84	1
10	11	8
114	114	3
120	121	6
138	138	2
103	103	10
5	7	1
23	23	2
110	111	6
102	103	2
14	15	2
82	82	5
131	131	8
132	132	5
130	131	3
109	113	3
82	83	7
16	16	2
87	109	1
74	74	6
24	24	5
6	7	5
76	77	1
97	110	1
11	11	9
35	35	5
72	72	6
123	125	3
139	140	1
101	101	7
127	129	1
13	14	1
10	14	4
89	89	3
38	38	4
28	29	4
98	98	3
117	121	3
29	30	5
96	96	2
80	80	9
32	32	5
25	25	5
2	15	1
81	82	2
93	93	2
103	118	2
7	8	3
90	96	2
18	19	1
83	85	1
73	74	1
94	95	2
15	17	3
107	116	3
97	99	1
101	102	2
85	86	1
135	135	4
22	23	2
19	27	1
86	116	2
93	94	1
75	76	1
8	9	2
72	111	1
117	122	2
72	73	1
30	30	2
104	129	1
9	9	5
117	118	3
16	17	2
23	24	1
76	76	6
5	6	2
120	122	1
81	81	5
125	130	1
121	123	3
37	38	1
78	94	1
95	96	1
109	120	1
80	81	2
91	93	2
25	27	2
118	119	2
111	114	2
34	34	2
104	104	1
15	21	2
8	32	2
19	19	2
129	131	2
124	124	4
117	119	2
22	26	1
104	130	1
93	124	2
93	95	1
108	117	4
111	112	1
92	94	1
116	117	1
104	107	2
122	123	2
82	108	1
18	33	1
93	96	1
10	10	3
34	37	1
7	13	1
123	123	5
0	5	1
87	88	1
79	113	1
78	129	2
92	96	1
0	14	2
129	130	1
14	17	1
77	121	1
99	100	1
72	112	1
8	12	1
91	117	1
4	5	1
79	81	1
77	79	1
