40	40	20
56	57	13
75	75	8
58	58	2
53	54	7
12	12	10
60	61	4
53	70	5
25	26	1
48	48	7
76	77	6
68	72	1
73	73	17
48	51	7
21	21	7
54	54	21
33	33	6
11	12	7
31	31	13
52	53	11
71	71	10
52	52	22
58	61	1
20	20	3
37	38	4
62	62	13
8	39	4
72	72	9
69	70	6
64	64	10
41	41	8
66	66	20
4	5	2
80	80	11
63	64	7
76	78	8
75	76	3
7	7	18
3	3	9
58	59	4
10	12	5
65	65	9
79	79	4
28	33	6
57	57	12
50	51	13
69	69	7
48	70	2
18	18	4
29	35	6
12	13	4
3	4	5
13	13	4
33	34	2
15	15	5
55	55	23
53	53	14
27	27	13
39	39	15
46	46	6
45	45	10
8	9	1
51	51	9
72	73	4
56	56	8
35	35	9
28	28	7
43	43	2
66	72	3
55	56	5
71	72	1
31	32	8
12	15	3
36	36	8
6	6	7
68	69	8
27	28	11
47	47	9
14	14	13
22	69	3
8	40	5
19	20	3
38	38	13
2	2	9
25	30	5
49	50	5
5	5	9
67	68	5
76	76	5
26	26	9
16	16	2
60	60	5
68	68	12
51	52	3
9	9	2
10	37	1
74	75	4
22	22	2
67	67	2
19	19	25
49	49	16
10	11	5
78	78	3
7	8	4
57	58	2
0	0	5
50	53	3
47	48	1
66	67	1
74	74	6
45	46	4
42	42	5
57	62	5
14	25	1
59	60	4
29	30	6
17	18	1
44	66	1
47	55	6
34	34	1
11	13	6
5	6	4
50	50	3
61	62	2
33	35	2
16	38	2
61	61	6
16	33	1
10	39	1
39	40	2
0	3	3
63	63	9
37	37	6
79	80	2
3	7	1
1	1	8
25	25	5
70	70	6
58	60	3
30	30	3
44	44	1
2	3	2
43	44	2
42	62	2
73	74	1
8	8	6
70	71	2
26	28	3
4	4	6
20	21	5
34	35	2
45	48	1
59	59	3
45	62	1
10	10	4
1	2	2
16	17	2
20	71	1
30	31	1
54	55	2
41	66	1
67	72	1
11	15	3
51	54	1
6	7	2
51	70	1
0	2	1
9	10	1
32	32	1
17	17	3
0	4	1
77	77	1
39	72	4
10	15	2
41	42	1
29	29	3
19	65	1
48	66	1
38	39	2
21	71	1
11	11	2
2	4	1
49	51	1
19	41	1
30	33	4
51	69	1
9	16	1
48	49	1
16	39	1
20	28	1
78	79	1
48	71	1
62	63	1
46	47	1
