1	12	1
58	58	9
5	5	7
41	41	9
49	51	2
21	47	6
23	23	9
25	25	2
73	73	5
21	54	1
21	25	3
10	12	3
3	4	4
52	52	6
36	37	5
46	47	1
54	54	9
3	3	7
53	53	5
46	46	6
62	63	1
38	45	2
10	10	7
30	32	2
13	35	4
68	68	6
5	6	4
72	73	8
48	48	9
27	40	1
52	53	4
24	26	2
57	57	2
68	75	7
44	44	10
64	64	6
20	26	4
4	4	13
9	9	8
59	64	3
40	40	8
27	27	4
25	26	9
34	34	9
41	51	1
13	13	3
43	54	3
42	42	3
11	11	9
22	24	2
31	31	7
14	41	2
61	62	4
2	2	8
77	77	5
0	2	5
28	28	6
43	44	5
61	63	4
7	12	4
3	8	1
28	29	1
37	37	5
30	36	5
2	8	3
21	31	4
24	25	8
20	53	2
50	75	1
32	32	4
73	75	3
70	70	7
47	47	3
59	59	11
1	1	5
35	37	2
4	5	5
57	58	6
12	12	3
28	36	1
1	11	1
10	51	4
55	55	7
23	24	1
26	26	5
21	30	2
73	74	1
68	69	1
13	14	1
23	72	1
75	76	3
30	33	1
27	41	3
40	41	6
54	55	4
60	67	3
55	68	1
64	73	1
50	70	2
69	69	6
22	22	3
18	50	4
19	23	1
64	71	4
69	70	5
50	50	3
60	60	1
3	9	4
55	56	1
42	68	1
1	14	2
29	32	2
54	67	3
37	74	3
21	34	4
38	39	2
7	8	1
37	50	5
54	76	1
63	63	1
14	14	3
66	67	4
19	21	3
46	49	2
6	8	1
69	71	1
53	57	5
18	19	3
37	38	3
36	52	1
36	36	6
37	60	2
39	40	2
60	68	1
65	73	1
6	50	4
19	19	5
37	77	2
72	72	2
29	29	6
22	65	1
22	23	2
41	42	1
53	67	1
62	62	3
66	75	1
59	72	2
43	43	7
27	28	3
35	52	4
35	36	3
49	75	2
64	66	1
54	68	3
39	41	4
23	25	4
19	26	1
44	45	6
56	57	2
58	62	3
30	50	3
51	51	5
31	58	1
54	60	3
39	39	4
21	43	3
47	53	2
71	71	2
41	43	2
42	54	2
51	74	1
6	6	3
34	39	2
65	66	3
59	61	1
23	68	1
48	51	2
14	15	3
35	35	2
46	52	1
66	66	3
26	39	1
66	68	1
39	67	1
56	63	2
24	43	2
6	11	6
61	66	4
60	65	1
20	49	1
29	45	2
58	72	2
67	67	3
2	4	4
55	60	1
42	44	2
6	47	1
42	70	1
28	55	1
45	45	2
49	50	1
55	58	1
31	34	2
51	53	1
49	52	1
27	38	2
10	11	2
24	24	3
38	56	3
8	8	1
75	75	3
33	33	4
31	32	1
53	65	1
21	24	1
38	43	1
38	38	5
7	9	1
49	49	1
58	59	2
1	2	1
7	13	1
1	3	3
76	76	1
45	48	1
9	10	2
18	18	1
42	72	1
41	46	2
75	77	2
72	74	2
29	40	1
70	76	1
10	30	1
35	38	1
53	54	1
66	77	1
65	67	1
0	3	1
53	61	1
2	3	1
74	77	1
39	58	1
60	61	1
63	75	1
30	30	1
11	32	1
3	10	1
0	5	1
61	61	2
63	65	1
56	64	1
18	27	1
11	12	1
49	68	1
55	70	1
66	72	1
31	45	1
18	35	1
12	13	1
22	29	1
28	51	1
32	39	1
76	77	1
23	50	1
