26	26	4
25	25	6
15	17	3
7	9	1
24	24	10
107	107	5
79	79	3
104	107	3
0	0	1
71	72	1
126	126	2
115	115	1
11	11	7
110	121	4
124	124	5
34	35	6
27	27	2
7	28	2
128	128	3
17	17	7
32	32	2
104	112	1
33	33	7
88	108	2
111	111	2
20	20	5
108	108	10
9	101	2
125	125	7
93	93	9
17	19	1
18	23	4
135	135	4
73	73	2
112	112	7
4	5	5
71	113	4
132	132	5
121	121	2
99	99	3
105	106	4
72	74	1
76	105	2
31	31	8
17	18	1
127	128	1
96	96	10
28	28	7
4	37	2
120	120	8
117	123	3
90	90	2
75	75	1
24	136	1
88	89	5
16	16	9
9	20	2
34	34	6
95	95	9
72	73	9
130	130	5
106	106	3
6	28	1
71	71	5
112	113	5
74	123	1
97	97	8
6	6	2
4	27	3
80	92	2
11	29	5
119	119	1
107	108	2
82	82	5
98	98	6
86	86	2
5	6	1
7	8	2
4	4	1
21	21	4
127	127	2
134	134	12
122	122	3
87	119	3
12	25	1
135	136	1
113	113	1
71	114	1
117	118	5
8	8	4
88	88	5
84	85	5
139	139	7
119	124	2
109	109	2
74	74	2
13	14	1
130	131	4
22	22	2
109	130	1
110	110	8
6	7	1
7	29	1
4	44	3
35	36	3
3	10	2
87	87	7
113	114	2
2	2	3
14	16	3
14	15	3
138	138	2
30	31	2
81	81	4
136	136	2
131	131	3
33	129	1
99	100	7
80	133	1
5	7	3
91	91	2
18	18	3
34	37	1
75	108	1
140	140	2
119	122	3
118	124	2
1	90	1
7	7	2
36	36	3
116	116	1
71	102	1
30	30	6
114	114	2
87	88	2
100	101	1
24	25	1
80	87	1
13	24	2
3	135	1
137	138	1
37	37	2
35	35	4
121	122	3
138	139	1
77	77	3
111	120	1
76	76	2
94	96	1
2	16	1
3	3	1
33	34	2
90	93	1
81	125	1
131	132	2
100	100	3
89	89	1
81	83	1
21	25	1
76	116	1
108	109	2
77	81	1
5	5	1
80	80	1
129	129	1
94	101	1
9	9	1
75	130	1
12	13	2
72	72	1
101	104	1
133	133	1
26	31	1
22	24	1
33	95	1
18	19	1
14	14	1
110	122	1
8	26	1
114	115	1
103	103	1
