72	72	11
98	98	5
27	28	15
37	37	15
0	1	4
23	25	3
3	3	9
8	8	2
27	27	11
96	96	6
34	34	19
1	2	5
135	135	4
79	82	3
5	109	1
20	31	1
94	118	5
111	111	6
29	29	2
88	88	1
2	23	4
123	123	14
15	16	1
118	119	9
21	30	2
110	110	4
1	1	1
83	85	4
92	106	2
102	102	14
30	31	2
36	37	3
25	25	6
91	91	3
18	18	5
109	109	9
139	139	10
37	38	3
81	83	7
7	7	9
14	14	4
95	98	3
35	35	17
130	130	9
108	108	3
5	5	7
16	16	10
119	119	4
28	29	3
74	74	9
82	83	6
132	132	9
112	112	3
114	123	3
75	75	13
113	113	5
139	140	5
125	125	17
93	94	4
80	126	5
124	124	13
128	128	4
22	22	8
24	25	4
125	126	2
131	131	8
129	129	3
10	12	3
80	113	3
71	72	4
86	86	8
83	83	4
94	117	2
20	20	9
81	81	7
76	76	3
118	118	2
36	36	11
85	85	8
116	116	9
101	106	2
33	33	11
93	119	3
103	120	1
16	20	4
89	101	2
127	127	6
133	134	2
19	19	9
6	6	10
7	9	4
102	106	2
80	82	1
109	114	3
11	12	2
77	77	4
7	10	2
115	115	9
137	137	8
72	73	9
7	8	7
26	26	4
82	82	4
73	73	12
110	111	1
21	21	3
2	2	11
22	24	2
80	84	2
23	24	2
0	0	1
24	24	8
98	99	6
89	89	4
128	129	7
117	117	9
104	120	3
85	86	2
94	95	2
97	98	5
4	4	4
16	17	8
38	38	6
114	114	1
32	32	9
74	75	2
84	84	7
79	79	9
111	117	1
134	134	5
117	118	5
80	80	6
92	102	1
4	5	2
100	100	3
23	23	1
95	95	1
11	13	1
94	119	1
132	133	1
93	110	3
78	78	4
121	121	6
19	34	3
107	108	4
126	128	3
82	125	2
101	101	4
90	90	3
78	79	2
87	87	3
25	26	3
31	32	1
94	102	1
117	119	2
99	99	5
1	73	1
133	133	3
97	101	1
9	9	5
105	105	2
76	77	1
71	71	6
136	136	3
17	17	1
33	34	1
94	94	4
80	125	1
112	114	1
138	139	1
126	127	2
90	91	1
90	92	3
8	9	1
104	111	2
16	29	1
105	107	3
140	140	3
131	132	2
21	24	2
17	31	2
111	118	2
97	97	4
126	126	4
89	92	2
22	23	1
18	19	1
104	104	5
115	116	2
80	81	2
31	31	1
88	99	3
2	71	2
108	116	4
10	10	3
29	30	3
106	106	1
112	122	2
15	29	3
37	109	2
80	124	1
114	115	3
76	78	2
30	30	1
92	92	2
2	73	2
9	10	1
127	128	4
30	32	1
91	119	1
80	127	1
80	123	1
19	20	2
134	135	2
28	28	1
14	28	1
108	123	4
11	11	1
21	32	1
122	122	1
32	33	2
105	120	2
13	13	1
91	94	1
86	87	3
17	34	1
129	130	2
17	19	1
107	107	1
87	89	1
71	73	1
79	125	1
21	29	1
123	124	1
86	129	1
105	106	1
12	14	1
15	15	1
20	21	1
82	112	1
86	101	1
95	116	1
