4	4	18
9	9	10
77	77	3
65	78	3
57	75	2
27	28	2
72	73	8
19	69	4
58	58	17
54	54	13
67	67	23
26	32	2
13	13	13
50	55	3
62	62	18
66	68	5
22	22	6
19	20	8
53	54	8
15	15	11
7	15	3
3	3	6
23	23	23
55	73	2
64	64	8
86	86	11
47	75	4
63	64	9
78	79	10
5	34	1
26	26	13
89	89	10
31	31	15
67	68	7
60	60	3
11	13	1
59	59	21
47	48	3
50	50	14
72	74	7
26	49	1
30	30	14
9	10	7
61	71	2
88	89	1
19	19	12
15	25	2
10	10	10
79	79	12
26	27	2
56	56	26
24	24	12
80	80	10
7	8	3
28	28	6
52	81	2
75	75	18
81	81	24
57	57	11
49	51	4
84	85	5
48	48	7
27	27	10
10	12	4
17	17	9
64	81	9
47	66	1
6	6	1
29	29	3
81	82	1
87	89	1
27	31	5
11	11	17
8	9	1
53	53	15
52	52	4
11	12	3
57	58	1
54	55	4
24	47	3
51	51	15
75	77	2
56	87	1
69	69	18
76	76	9
84	86	1
75	86	2
70	70	9
59	61	3
52	55	1
48	49	2
15	16	3
6	7	5
77	79	2
22	54	1
79	82	8
28	72	3
73	73	9
63	63	3
17	18	3
14	31	4
80	82	5
55	55	4
71	71	17
20	24	3
7	16	4
5	5	4
68	68	14
83	84	1
84	90	4
69	70	2
83	83	2
34	34	4
49	49	3
47	47	3
18	18	2
0	1	8
53	69	1
66	66	4
65	83	2
16	16	3
26	31	2
0	88	6
48	79	2
84	84	10
71	74	1
77	83	1
49	50	10
21	22	6
82	83	5
86	88	1
53	88	1
21	21	2
17	27	2
85	85	11
74	74	10
5	11	4
49	84	1
8	8	5
17	49	2
20	50	4
77	81	4
61	61	3
87	87	5
82	82	5
65	65	4
50	72	1
59	71	2
52	83	3
10	31	1
53	86	2
6	10	2
23	26	2
25	26	3
52	53	6
12	48	2
17	78	2
84	89	1
50	52	5
19	25	5
1	1	4
59	60	6
12	30	1
23	24	8
7	10	3
25	25	5
52	87	2
46	48	1
27	29	1
14	87	1
17	31	2
14	25	1
75	76	2
7	7	4
61	62	1
58	67	4
50	74	3
78	78	6
61	75	1
9	26	1
65	66	1
20	23	2
25	27	5
73	85	1
27	50	4
14	14	4
5	12	1
2	2	2
46	46	3
14	26	1
61	63	5
65	79	1
68	69	1
63	78	2
3	30	2
9	12	2
23	54	1
64	65	3
47	77	1
34	65	3
8	20	1
29	30	1
7	17	3
21	71	1
14	48	1
71	72	1
70	71	2
20	20	3
13	46	1
0	0	5
64	77	2
57	66	3
64	83	2
55	83	1
46	49	3
84	87	1
6	34	1
25	31	2
27	49	3
16	17	3
8	15	1
22	74	1
54	87	2
22	57	4
28	71	1
86	87	2
62	72	1
33	65	2
20	58	1
9	22	1
79	80	1
72	72	1
24	25	1
35	46	1
19	50	2
59	64	3
55	56	2
22	24	1
55	74	1
31	32	1
5	21	2
15	24	1
12	12	2
77	80	2
47	79	1
12	14	1
77	78	1
88	88	2
52	86	1
26	48	2
20	64	2
62	65	1
30	81	1
57	73	1
61	72	2
1	2	1
33	34	1
12	21	1
56	74	1
27	48	1
17	63	1
3	4	2
16	20	1
29	72	1
74	85	1
13	83	1
17	19	1
60	61	1
65	82	1
57	87	1
5	8	1
17	20	1
80	81	1
32	32	1
