46	46	6
3	4	6
224	224	7
11	11	4
82	83	7
206	206	9
222	224	3
104	129	5
168	168	3
233	238	1
186	186	3
223	223	7
161	161	9
239	239	5
103	107	2
28	29	3
154	154	2
63	66	9
212	213	4
215	215	3
173	173	5
36	36	2
120	120	5
168	195	3
235	236	2
227	228	6
171	240	3
209	209	6
200	201	2
190	190	1
84	84	6
7	7	3
239	241	3
231	231	3
79	79	3
159	159	6
205	206	2
55	64	4
204	204	6
17	17	4
119	120	2
0	1	5
130	130	5
200	238	2
59	59	6
30	39	2
169	192	4
42	131	4
83	83	9
214	215	5
27	44	1
140	140	4
23	23	6
17	18	2
151	151	7
207	207	6
208	208	2
123	123	1
166	167	1
189	190	5
59	166	2
49	49	5
70	71	2
11	12	6
19	33	2
163	163	2
236	239	2
102	131	2
226	231	3
35	35	1
240	240	3
119	119	3
9	18	5
172	172	4
153	153	4
226	228	2
195	196	2
188	189	2
7	34	2
54	239	4
198	198	2
160	201	3
209	210	2
45	45	4
176	178	3
85	85	6
138	138	3
207	208	6
211	211	7
22	23	5
47	47	4
134	135	3
226	226	2
105	134	2
28	53	1
165	166	6
168	189	4
9	131	1
86	86	10
7	19	2
107	108	1
236	236	7
219	219	12
112	115	2
170	171	3
50	50	4
3	3	4
179	179	6
150	158	1
184	184	2
152	157	5
205	205	14
81	82	2
175	175	5
155	155	5
12	12	5
53	53	5
19	20	1
200	200	2
68	76	3
37	38	4
61	61	5
233	233	4
43	43	8
182	182	2
25	25	3
20	65	3
231	235	6
226	227	5
127	127	2
213	213	1
0	68	3
36	37	3
173	174	3
228	234	5
38	38	6
10	10	4
101	108	11
180	180	4
179	187	1
80	81	2
39	74	1
240	242	1
146	146	2
20	20	4
143	143	8
0	78	4
9	9	2
116	116	4
82	82	4
192	192	6
29	30	3
42	42	3
102	129	1
68	86	1
26	109	2
205	207	1
142	149	3
46	241	1
100	100	4
122	178	2
166	166	6
137	137	7
163	169	3
201	201	5
96	96	2
81	84	3
216	216	3
10	13	1
164	164	3
48	48	2
197	197	5
3	78	1
105	105	5
40	100	1
152	153	2
156	156	3
153	204	1
60	61	1
122	122	4
222	222	6
232	233	1
160	160	5
13	14	3
74	75	1
15	15	4
163	168	2
175	179	6
65	66	6
127	128	3
39	39	2
67	67	4
34	34	1
107	107	1
71	83	3
140	149	1
52	52	2
145	146	3
24	24	2
28	164	1
44	45	7
25	121	1
151	185	2
169	170	2
221	222	1
84	85	1
75	75	3
63	63	4
169	174	2
65	68	6
218	218	3
162	163	4
97	102	1
187	187	4
6	67	1
110	110	2
1	3	2
152	217	1
119	127	2
47	50	1
45	47	2
142	142	5
214	222	4
152	152	3
30	30	4
223	225	4
174	174	1
76	82	2
55	55	4
129	129	4
150	152	1
45	170	1
85	86	1
207	212	1
37	37	2
176	176	7
214	214	6
88	88	3
140	148	2
19	19	3
181	181	1
32	86	2
153	154	1
235	235	1
12	14	1
56	56	5
177	178	2
24	163	3
171	241	1
2	6	1
153	156	2
111	111	3
185	186	5
108	108	3
204	208	5
81	81	3
64	64	6
31	167	2
24	25	2
75	76	1
9	19	3
193	194	1
73	73	4
23	191	2
77	79	4
31	32	1
18	19	2
142	186	2
26	110	1
8	8	1
185	185	2
3	6	2
217	218	2
171	171	5
201	202	2
150	156	1
225	225	2
121	121	2
63	65	2
223	224	2
217	217	6
66	67	3
95	102	5
42	134	1
175	187	2
121	122	1
62	62	1
32	131	1
189	191	1
4	5	2
150	151	1
220	222	1
54	56	1
72	72	2
97	97	1
128	128	1
59	60	3
136	137	1
221	221	2
147	147	3
38	39	1
74	74	2
240	241	1
149	157	1
29	29	2
233	234	1
169	169	2
234	239	1
184	185	1
241	242	2
101	101	2
114	114	4
179	180	1
108	109	1
66	66	1
147	148	1
41	42	3
229	237	1
118	118	2
191	191	2
191	192	2
135	136	4
150	150	5
80	80	3
182	184	1
158	159	2
27	27	2
189	189	1
32	36	2
43	241	2
104	132	1
149	149	1
23	168	1
139	139	1
165	165	1
30	122	2
115	116	1
177	177	2
136	140	3
32	32	2
149	203	1
104	107	1
19	21	1
241	241	1
202	202	1
33	167	1
187	188	1
136	136	1
237	237	2
230	230	3
168	169	2
136	138	2
193	193	1
194	195	1
101	120	1
161	186	2
208	212	1
237	238	2
8	16	3
16	17	1
33	33	2
7	9	2
199	237	2
23	28	1
25	128	1
144	144	2
139	143	1
157	157	2
231	233	1
28	28	2
14	15	2
26	26	2
135	135	1
170	172	1
157	160	1
83	84	2
170	170	2
230	234	2
32	167	1
47	239	1
0	69	2
168	178	1
139	187	2
63	68	1
208	209	1
0	0	2
7	8	1
204	205	2
230	237	2
47	48	1
85	87	1
114	117	1
77	77	2
68	68	1
158	199	1
23	31	1
4	4	2
2	2	1
238	239	1
131	131	1
59	61	1
102	103	1
218	222	2
43	171	2
210	210	1
25	43	1
214	218	1
21	62	2
159	160	1
235	239	2
109	109	1
188	190	1
238	238	2
162	193	1
158	200	1
21	21	1
177	179	1
242	242	1
92	92	1
68	165	1
171	239	1
203	203	1
7	35	1
55	128	1
234	235	1
181	183	1
4	6	1
55	58	1
234	234	1
1	1	1
