93	93	10
69	69	9
54	55	5
29	29	4
79	79	11
57	57	15
59	59	6
63	63	7
92	92	12
40	40	9
64	65	2
59	72	1
94	94	10
88	88	13
35	35	6
99	99	14
24	24	7
91	91	8
86	86	3
70	70	7
46	49	1
57	58	2
78	78	15
58	58	8
32	34	4
67	67	9
83	89	1
30	30	11
53	53	6
70	71	5
52	52	4
50	50	16
89	89	6
49	104	3
34	34	5
64	64	13
102	102	11
65	65	11
46	47	1
95	104	5
56	56	4
106	106	6
60	60	5
44	44	8
67	69	1
90	91	3
77	77	10
73	74	10
61	90	1
21	67	2
61	61	2
90	90	17
39	40	1
100	100	11
37	37	2
31	31	5
21	21	14
80	80	8
40	43	1
28	57	1
67	68	4
47	49	3
25	25	1
51	52	5
68	68	3
104	105	8
97	97	6
45	45	5
74	74	9
60	61	1
88	89	6
51	51	13
26	26	5
87	87	4
46	46	5
36	36	11
42	43	9
103	103	8
81	91	2
66	66	4
61	80	3
39	43	5
73	73	17
58	59	5
39	73	1
45	46	1
40	41	9
29	30	5
39	39	3
105	105	11
23	23	3
33	33	1
104	104	5
95	106	1
82	82	9
101	101	6
86	88	1
42	42	2
62	65	2
75	75	4
28	28	4
50	87	1
56	82	5
26	27	4
47	47	2
63	64	1
29	31	2
22	22	7
71	71	5
36	37	4
55	55	4
30	54	1
23	73	4
53	87	3
48	48	4
79	82	3
80	81	5
93	94	2
20	28	3
36	42	3
95	95	9
32	90	1
32	32	6
76	76	3
86	87	3
23	94	2
72	72	4
25	26	6
61	62	2
30	47	2
81	90	4
21	22	7
54	54	4
28	58	1
67	70	3
39	44	3
97	99	4
89	90	1
49	49	4
83	83	5
26	56	2
85	85	3
47	103	1
33	34	4
66	67	4
98	106	2
29	56	4
75	102	3
57	103	4
96	96	1
30	35	2
68	106	2
22	98	2
84	85	5
62	63	1
98	99	1
91	92	2
20	65	1
46	103	1
30	39	2
82	86	2
37	39	1
41	41	4
56	57	4
22	27	1
48	50	2
29	47	2
60	90	3
42	44	2
31	50	3
52	100	2
24	30	1
51	57	2
106	107	1
20	20	3
61	71	1
97	98	2
85	86	1
81	81	2
54	78	1
55	100	1
96	100	3
40	44	1
43	43	1
33	45	1
69	71	3
41	46	1
50	51	1
42	49	2
77	100	1
27	27	1
32	60	2
78	79	1
74	75	1
31	41	1
82	84	2
81	82	1
26	69	2
38	67	1
52	53	1
60	78	1
38	40	1
78	86	1
40	42	1
38	38	1
61	70	1
25	63	1
