58	68	1
131	131	3
68	69	2
73	96	3
115	121	6
119	126	1
117	134	1
59	60	4
5	13	3
48	48	4
56	68	2
139	139	9
26	26	6
119	128	3
90	106	8
65	66	3
36	36	8
81	81	1
81	110	2
94	94	4
53	53	8
17	17	8
108	110	2
128	128	2
106	107	4
102	102	2
66	72	1
127	128	5
79	84	2
47	48	1
77	108	1
143	143	5
21	22	2
111	128	13
47	47	3
19	19	8
96	99	7
70	82	2
75	75	15
133	133	14
41	62	2
24	41	2
42	42	23
53	84	3
72	95	3
68	68	7
62	62	16
40	40	8
133	144	2
84	84	8
79	79	5
141	142	2
58	58	7
5	94	2
116	117	6
5	5	3
104	105	4
6	12	3
118	118	7
38	42	4
70	70	12
0	97	2
51	52	2
111	122	2
23	27	3
133	134	4
122	126	4
11	11	11
57	57	9
22	22	10
90	90	5
33	49	5
38	38	10
61	61	11
74	93	2
113	118	2
126	139	2
85	85	5
93	93	18
62	79	5
118	134	3
111	111	5
71	120	2
132	132	10
100	141	2
67	84	3
88	88	4
9	16	3
71	85	1
114	115	3
121	121	10
80	80	13
108	108	4
144	144	11
8	8	7
114	114	4
121	122	4
12	33	4
47	97	4
102	122	3
87	102	3
0	0	1
91	91	6
81	84	2
138	139	4
15	29	5
97	122	2
95	95	5
50	50	7
23	23	7
4	5	6
5	11	4
5	6	4
52	52	2
121	133	3
136	136	9
74	77	3
25	25	2
134	134	3
63	63	10
105	105	4
57	68	3
103	103	8
104	133	2
53	54	6
69	69	4
51	91	1
136	137	4
20	47	1
123	123	7
120	143	1
69	70	5
39	53	1
66	66	6
47	72	1
89	89	6
120	120	5
135	135	13
77	77	13
119	125	1
91	92	5
55	56	1
109	111	4
111	115	3
139	140	9
82	82	11
8	20	2
10	15	3
122	122	7
22	62	7
96	97	3
54	54	5
124	125	2
74	74	12
125	125	2
64	64	3
106	109	3
106	141	4
5	14	2
110	110	2
6	28	1
52	64	1
134	136	4
70	85	2
123	144	1
87	92	2
32	32	10
50	52	5
31	32	2
59	64	2
24	24	8
28	28	2
0	57	1
1	15	4
104	107	1
68	71	3
136	141	1
50	54	1
71	130	1
80	95	6
104	104	4
59	59	4
39	39	9
105	106	5
73	73	4
75	92	3
86	86	3
32	33	4
109	109	6
10	26	4
100	100	4
84	105	1
24	25	5
107	107	7
82	84	2
1	83	2
97	123	1
108	109	6
33	34	3
38	41	1
126	143	2
83	83	3
71	71	2
85	104	2
132	133	1
127	135	1
4	28	5
9	10	4
101	112	3
18	18	5
49	49	4
115	115	4
19	49	1
89	133	1
124	127	5
137	139	2
102	118	1
119	138	2
6	16	2
9	11	4
21	25	1
140	140	8
97	143	2
103	112	2
73	86	1
2	2	11
56	56	7
13	13	3
9	25	4
10	10	9
74	78	1
119	132	1
124	124	9
119	136	2
142	142	4
4	96	2
99	100	4
1	16	4
53	66	1
101	122	1
13	14	1
145	145	3
138	142	3
60	60	6
67	67	6
70	71	1
81	102	3
12	30	1
2	5	1
95	122	5
103	121	2
116	125	1
6	6	8
28	29	5
125	137	7
24	27	1
136	138	2
53	68	3
73	75	3
130	134	2
56	65	2
51	78	2
99	99	3
41	47	2
90	115	1
35	35	5
82	85	5
111	127	2
10	33	2
129	129	7
125	145	2
23	54	7
34	34	6
21	43	2
64	65	2
98	134	2
119	119	5
127	143	1
20	20	5
59	95	1
103	104	4
143	144	3
103	122	1
69	83	1
98	123	3
94	98	1
70	83	2
80	87	1
20	43	2
85	121	1
4	22	1
29	43	1
124	141	1
70	95	1
3	4	5
97	99	1
10	17	1
11	23	2
138	138	2
6	33	1
118	127	1
10	47	3
41	42	3
102	103	2
112	134	3
83	84	3
71	113	2
97	98	2
49	72	2
117	118	2
53	58	2
28	31	1
10	22	1
2	3	3
57	81	2
96	103	4
105	119	4
78	79	5
83	100	3
55	58	1
131	143	1
83	106	1
118	119	4
109	110	2
120	135	1
115	120	2
89	91	2
87	87	2
16	16	1
69	75	4
104	121	1
111	136	1
58	63	1
90	114	6
23	40	1
69	84	1
97	97	3
113	113	6
15	15	1
119	142	1
128	142	1
48	61	5
4	4	3
47	49	2
97	101	1
79	81	1
142	144	1
22	24	1
137	138	1
128	129	3
27	28	3
65	73	4
122	123	1
0	3	2
23	38	4
137	144	2
50	55	2
5	83	2
141	141	3
76	88	5
104	122	1
23	33	5
56	78	2
27	27	7
124	128	2
18	39	1
37	47	1
123	141	1
64	84	2
56	57	2
67	103	1
87	88	2
128	135	2
55	60	2
15	16	1
80	96	3
69	95	1
13	25	3
71	103	1
29	30	1
13	15	3
27	109	1
116	116	5
76	77	2
12	12	2
47	65	1
37	37	3
90	92	1
2	32	2
70	94	4
98	99	4
74	85	1
119	122	1
122	141	3
27	33	1
11	95	1
87	109	1
129	134	2
126	131	2
114	118	2
125	127	3
37	68	1
6	94	1
119	139	1
78	78	1
27	42	1
48	95	2
75	81	3
27	40	3
57	66	1
55	98	2
53	91	1
126	138	1
50	51	1
54	57	1
41	41	1
111	130	2
62	74	2
106	106	4
23	25	1
20	21	2
38	43	2
5	22	5
4	15	1
120	141	2
61	76	1
29	29	2
112	113	1
93	94	1
20	55	2
49	50	2
89	104	1
79	80	1
127	139	3
87	91	2
96	96	2
126	135	1
76	76	1
19	30	1
34	39	1
31	65	2
73	83	1
73	79	1
60	61	1
58	66	2
92	92	2
109	123	2
36	51	1
25	38	1
14	14	3
22	29	1
20	25	4
130	130	2
98	124	1
98	98	2
84	91	2
21	55	1
80	82	2
8	9	1
68	81	2
2	14	1
126	127	4
83	96	1
0	47	2
37	40	2
57	84	2
34	38	1
59	61	1
26	42	3
51	51	2
55	66	1
106	116	1
98	102	1
75	79	1
101	109	2
0	84	1
114	136	1
68	72	1
34	35	1
0	1	1
120	129	1
137	137	2
111	117	1
75	80	1
49	58	1
95	96	1
14	16	1
55	62	3
47	57	1
79	82	1
2	10	1
23	42	1
92	93	2
75	76	1
49	53	1
124	137	1
10	27	2
1	21	1
112	137	1
79	91	1
1	1	1
4	10	2
2	30	1
116	121	1
77	79	1
75	93	1
83	118	1
67	142	2
65	65	1
68	105	1
111	131	1
72	72	1
85	89	2
128	144	2
99	117	1
60	63	1
0	20	1
89	92	1
126	140	2
24	53	1
76	78	1
75	87	1
30	30	1
76	91	1
99	110	1
84	86	1
90	101	1
