28	28	8
71	71	8
72	72	1
39	42	3
87	108	4
76	76	5
39	45	3
14	14	3
80	80	3
121	121	8
65	83	2
69	69	1
20	20	1
51	51	8
79	80	1
13	13	4
109	112	5
129	130	2
88	88	2
34	34	2
122	122	8
87	87	7
91	94	4
24	30	2
13	26	2
16	16	1
12	32	3
32	32	5
83	92	4
52	57	3
12	12	5
112	112	7
119	128	2
8	8	1
101	101	9
86	86	3
70	70	4
71	79	2
29	29	3
7	7	7
123	123	1
59	59	7
62	62	3
77	78	3
63	63	6
43	43	4
51	52	5
126	127	5
16	18	3
110	110	6
83	83	1
58	65	9
131	131	4
94	94	4
6	21	3
65	92	4
84	84	5
93	96	3
117	125	1
48	48	2
82	101	2
125	128	3
39	44	2
111	111	9
31	31	6
79	101	3
53	106	2
103	103	1
89	93	2
97	97	3
53	53	2
9	32	5
92	95	3
11	11	2
92	92	3
17	17	1
61	61	6
54	54	5
89	94	6
6	8	1
14	16	1
6	6	4
40	40	3
46	128	1
27	28	1
117	118	2
58	58	6
85	85	5
49	49	1
47	98	2
77	77	2
118	119	1
75	76	2
56	56	7
39	93	1
94	96	1
81	95	1
45	119	1
91	129	2
93	104	2
18	20	2
54	66	2
89	103	3
3	3	2
130	130	3
90	90	3
44	44	2
52	53	1
13	15	2
2	87	1
43	61	2
7	40	6
98	114	2
91	116	1
80	93	2
14	32	3
68	76	1
105	106	1
3	15	2
41	61	1
0	0	1
34	86	3
45	60	1
109	109	3
26	33	1
64	65	2
39	89	2
8	87	1
63	91	1
1	87	1
86	108	2
4	6	1
18	24	3
84	85	1
120	120	6
55	55	3
91	92	1
14	31	2
78	104	3
63	128	2
124	124	1
93	93	2
47	93	2
25	28	1
115	115	2
84	91	1
54	67	1
113	113	3
82	82	1
10	10	1
100	116	1
58	129	1
119	126	1
48	53	2
45	45	1
15	17	3
21	21	1
90	102	1
30	30	7
2	2	2
52	52	2
114	131	1
65	67	2
129	129	1
33	33	2
126	126	3
40	44	2
61	91	3
11	15	1
70	71	2
133	133	3
60	60	2
73	74	1
68	75	2
50	50	3
59	96	1
85	86	1
105	105	1
94	100	3
66	67	1
108	108	1
125	125	2
42	93	2
86	87	1
78	78	2
2	7	4
15	32	1
8	17	1
57	131	1
18	18	2
21	24	2
3	9	1
95	107	1
83	105	4
57	57	2
23	31	1
66	77	1
66	66	3
46	132	1
38	91	2
15	34	2
72	79	1
78	105	1
65	82	1
6	7	1
104	105	1
116	124	1
4	4	1
78	111	1
38	42	1
70	77	1
127	129	1
41	102	1
58	64	1
56	57	1
89	96	1
39	94	1
55	66	1
71	77	1
67	67	1
95	116	1
