222	222	14
154	154	12
231	231	8
127	128	3
28	28	13
133	133	21
161	189	3
213	213	12
211	211	15
48	48	6
170	172	5
203	203	11
75	75	14
212	233	2
32	32	19
193	193	12
81	81	14
139	139	5
191	191	8
55	55	12
218	218	13
209	209	8
225	225	16
217	218	6
225	226	3
200	200	14
74	74	15
105	105	14
181	182	13
152	152	12
164	164	9
230	230	9
31	31	6
24	24	9
4	6	1
127	127	7
63	63	9
27	28	1
239	239	6
17	17	10
214	214	10
146	147	13
164	231	2
143	144	4
165	229	2
224	224	13
68	70	2
161	161	4
59	59	11
171	171	8
1	15	2
56	56	14
64	64	1
113	113	19
64	67	5
215	215	12
199	200	15
133	134	3
76	76	8
8	8	9
14	15	12
39	42	5
205	206	10
130	132	1
84	91	4
184	185	6
116	116	7
122	122	6
204	206	1
52	52	8
69	69	10
102	102	13
66	68	8
134	134	9
147	148	7
54	54	15
65	66	4
241	241	4
234	234	10
195	195	12
22	23	4
45	46	11
2	4	2
57	57	4
12	12	12
140	140	12
53	53	20
36	36	7
18	19	2
166	227	3
124	124	6
240	240	9
44	44	18
212	212	10
183	194	1
108	108	8
205	205	10
75	165	4
237	237	13
237	241	7
220	220	5
20	20	25
10	20	3
166	166	4
77	77	13
70	70	9
131	131	4
187	187	6
14	19	2
104	104	13
100	100	9
179	179	6
19	36	8
62	62	3
42	42	8
58	58	16
223	223	11
45	191	1
16	16	18
224	237	2
170	170	7
14	14	11
158	171	4
40	41	2
232	232	8
228	232	3
15	16	5
210	210	26
219	219	15
98	99	3
180	180	19
159	159	6
219	220	3
190	206	5
1	1	16
212	213	10
121	121	9
190	213	3
79	79	8
29	44	3
180	184	3
166	167	2
11	13	2
20	21	8
202	202	9
53	67	1
25	25	15
124	150	7
106	117	2
103	103	15
14	16	4
107	107	11
17	27	2
210	238	2
153	205	5
61	61	14
202	215	7
164	165	5
109	127	2
201	202	7
233	233	6
84	84	17
9	14	3
37	41	3
22	22	12
206	234	1
156	156	13
144	145	9
48	49	1
29	29	8
46	48	4
200	213	2
67	67	5
174	174	19
42	50	3
123	123	13
19	19	6
52	82	4
42	51	3
98	98	8
194	222	4
128	145	2
71	178	5
233	235	6
152	153	3
207	225	5
55	68	5
200	222	2
33	34	12
9	10	2
142	142	3
123	124	6
218	219	13
128	128	24
34	47	4
228	228	3
163	163	3
41	41	12
119	119	8
137	138	2
191	200	3
139	140	2
170	171	9
137	144	5
158	180	3
101	101	8
129	129	7
187	188	7
33	127	1
160	161	7
173	175	3
158	160	4
163	231	1
50	50	10
172	172	6
35	51	3
153	153	8
134	135	3
1	2	1
223	239	2
69	81	5
118	118	11
137	137	7
133	136	1
36	37	2
58	62	3
215	216	7
165	165	6
155	155	4
5	6	3
116	117	4
26	45	1
75	99	3
71	71	11
226	226	12
158	159	5
3	3	14
68	69	4
172	174	2
128	134	2
147	179	4
153	154	4
47	47	12
63	64	1
207	207	7
15	15	3
23	23	18
222	237	1
73	73	3
191	193	4
221	226	1
136	145	1
7	8	3
162	162	15
220	221	4
51	51	6
138	138	11
143	239	1
236	236	11
33	35	5
196	202	3
108	116	2
78	78	7
33	33	13
21	22	3
23	42	4
206	206	4
138	142	2
82	83	2
162	175	1
169	174	2
158	158	11
81	82	7
43	74	2
177	177	12
4	4	6
2	14	2
13	13	6
145	145	9
228	230	4
235	235	9
98	122	1
208	208	5
166	169	3
83	83	5
136	138	2
11	11	12
151	164	5
101	134	2
137	149	2
65	65	9
38	38	5
66	67	5
7	7	10
196	213	3
129	137	4
97	106	4
58	60	5
52	72	1
40	40	8
202	203	3
221	221	8
24	228	3
114	114	3
43	43	18
105	153	4
189	189	12
10	40	3
148	148	4
21	33	3
97	100	1
157	158	7
228	229	2
91	91	1
110	110	1
107	126	5
10	10	2
99	99	17
208	210	3
173	173	2
87	87	1
204	220	3
39	39	13
199	199	2
146	146	4
97	120	8
120	120	8
109	109	8
183	183	5
126	126	10
183	184	4
38	40	3
197	198	7
116	118	2
34	34	12
66	66	8
6	8	9
130	130	6
224	225	8
73	75	2
147	149	2
147	152	5
27	27	10
23	24	3
106	106	6
136	148	2
86	86	10
48	69	3
200	202	2
198	204	3
45	45	10
214	224	1
46	47	1
170	173	3
124	134	4
55	70	5
50	54	3
151	151	5
124	125	3
22	24	2
136	136	8
2	2	8
8	38	2
55	76	3
223	237	1
131	134	4
102	103	3
164	171	1
75	110	3
58	59	3
138	139	5
214	217	3
206	217	2
19	42	2
229	241	2
148	181	2
2	3	2
238	238	6
135	150	2
106	153	4
0	12	4
11	38	1
3	5	5
62	65	4
152	177	2
201	201	3
129	131	2
176	185	5
85	85	12
47	48	3
216	233	1
0	1	2
175	175	8
76	78	3
217	217	20
75	88	1
114	124	2
82	125	4
221	222	6
97	97	3
112	113	2
27	44	2
190	190	2
223	224	3
176	176	3
54	57	1
198	198	5
25	43	1
209	210	3
26	36	2
160	162	1
28	40	5
229	229	9
60	60	3
210	214	3
169	169	12
186	186	6
150	150	6
188	188	2
184	184	1
159	160	7
211	217	1
57	72	1
104	130	3
50	79	2
235	236	3
37	37	12
211	212	5
124	126	3
242	242	3
11	12	5
46	50	4
46	70	2
35	36	2
97	98	1
141	141	7
210	213	3
125	125	5
132	133	2
39	56	1
173	174	8
194	207	1
177	178	5
72	72	8
140	141	2
143	145	3
185	185	5
111	111	3
181	181	12
15	40	2
157	157	6
9	9	8
114	116	4
97	113	1
73	77	3
119	134	3
142	151	1
193	203	4
38	39	4
161	183	3
163	176	4
241	242	1
149	149	3
196	196	5
31	32	3
143	169	2
240	241	4
164	170	3
34	45	5
199	209	6
68	68	7
18	25	4
46	46	2
221	223	8
97	107	5
82	85	2
207	208	3
201	213	3
157	161	3
148	149	5
32	61	3
204	212	4
147	150	1
51	66	2
5	5	3
195	196	3
197	197	8
189	190	1
100	113	1
73	74	3
168	169	1
161	188	5
8	22	1
167	179	1
9	12	3
223	233	3
131	132	1
16	17	1
26	40	2
26	27	1
150	152	1
129	130	5
183	195	3
178	238	5
178	178	5
55	56	1
167	167	9
182	186	1
67	70	4
188	196	2
192	222	1
204	223	2
143	143	8
229	230	6
82	82	3
194	194	2
18	77	2
159	218	2
178	179	2
180	189	3
221	237	1
216	216	7
48	74	1
71	73	6
177	180	3
210	222	3
119	123	3
208	209	10
44	45	2
210	220	3
88	88	3
237	240	1
220	222	2
124	140	2
165	186	4
157	168	1
111	125	3
159	161	3
198	213	2
70	71	1
79	80	1
188	189	2
95	106	1
56	71	2
80	82	1
234	236	3
175	189	1
25	46	2
141	142	2
135	136	4
64	65	2
83	127	6
181	206	2
67	68	3
116	123	1
115	118	1
51	81	2
95	95	2
129	140	2
238	239	9
0	0	7
194	200	2
51	58	4
26	41	1
33	38	1
46	171	2
78	79	2
57	58	1
155	156	4
168	168	2
32	58	1
195	197	4
204	207	2
105	106	5
175	176	8
208	216	1
50	52	2
64	66	2
36	63	3
86	133	1
31	62	2
135	137	1
49	49	7
51	52	1
162	163	1
177	188	1
26	26	6
36	57	2
203	217	3
157	175	2
216	232	1
103	155	5
24	39	1
50	51	4
190	215	1
62	63	2
85	88	2
54	69	4
65	69	2
142	143	1
155	160	1
182	183	3
97	102	2
114	129	3
60	61	3
88	91	2
177	186	2
227	229	1
172	176	3
12	18	1
51	53	3
115	115	13
104	124	1
3	4	1
1	4	1
21	21	4
83	107	1
73	167	1
64	69	1
205	207	4
52	55	3
190	191	1
20	25	2
166	189	1
67	141	1
10	29	1
202	206	1
106	233	4
141	153	4
103	109	1
63	77	2
161	186	2
89	99	1
26	39	2
100	106	3
205	209	2
116	120	2
76	95	1
24	25	2
156	157	3
234	235	1
107	111	4
194	196	2
190	217	1
123	135	2
161	180	2
117	117	5
148	152	1
112	112	3
178	180	1
165	190	2
146	149	3
125	127	1
56	61	4
106	127	1
100	135	1
4	5	2
103	106	1
36	38	2
49	59	1
41	55	1
138	157	1
107	127	2
16	42	2
184	189	3
29	30	4
18	18	4
14	43	1
79	84	1
10	17	2
147	147	2
192	192	8
230	237	2
178	181	2
111	112	1
28	29	1
169	189	2
61	65	1
35	41	1
142	154	2
61	62	2
129	153	2
89	100	1
120	135	2
103	128	3
132	132	2
53	54	1
59	61	1
97	101	1
18	20	3
108	109	1
136	144	2
166	177	1
210	218	1
76	77	1
206	212	5
188	216	2
20	22	1
11	36	3
146	179	2
8	25	1
107	129	1
154	157	4
1	13	1
146	160	3
8	9	2
192	204	1
142	155	1
80	80	2
125	136	1
72	73	3
145	146	2
42	43	3
125	134	1
22	33	2
30	37	1
203	208	1
30	38	3
218	233	1
30	34	2
204	211	2
206	207	2
73	79	1
35	35	1
71	174	1
136	137	1
151	159	4
193	198	1
75	78	1
151	152	1
180	193	1
163	230	1
156	173	1
190	200	2
21	24	3
161	179	2
200	201	3
202	211	1
202	207	1
39	50	3
206	225	1
196	212	1
86	190	1
211	213	5
212	223	1
107	122	1
128	129	1
36	218	1
160	160	4
49	73	1
10	11	4
23	51	1
152	165	2
214	215	1
99	100	2
151	240	1
47	60	2
137	151	1
80	81	1
62	80	1
13	14	1
37	38	1
103	116	1
17	34	1
10	34	2
57	59	1
3	13	1
126	182	1
111	123	1
203	204	2
50	61	1
75	76	1
155	216	1
76	80	1
148	241	2
150	151	1
49	62	1
30	30	2
6	7	2
129	159	1
188	194	1
218	220	1
180	185	2
182	182	3
11	20	1
153	159	1
86	99	1
99	129	1
11	15	1
191	202	1
146	181	1
179	232	2
14	18	1
206	209	1
11	29	2
148	157	2
54	55	2
128	141	1
191	220	1
12	20	1
77	98	1
195	207	1
20	169	1
42	49	1
50	58	1
37	65	1
119	127	1
80	83	2
83	89	2
152	206	1
4	19	1
68	103	1
71	72	2
135	148	1
219	227	2
1	30	1
74	88	1
179	180	2
154	155	1
32	33	2
61	190	1
43	50	1
229	231	1
105	125	1
217	220	1
148	184	1
227	228	1
10	14	2
55	67	1
128	130	1
169	197	1
9	27	1
57	75	1
10	44	1
12	13	1
220	227	1
180	234	1
20	170	1
26	28	1
193	194	1
117	118	1
163	177	1
185	186	1
2	9	1
178	235	1
188	190	1
104	105	1
217	233	1
189	214	1
136	151	2
135	135	1
182	190	1
225	230	1
