30	30	3
127	127	1
5	8	3
133	133	9
3	7	3
88	92	1
22	26	3
110	117	1
152	152	5
44	44	3
145	145	4
54	54	6
129	129	6
43	43	4
78	79	2
118	118	1
48	48	3
127	146	4
134	135	4
78	78	5
125	125	3
82	82	6
12	12	2
74	74	3
28	29	3
108	108	8
87	87	9
83	84	6
23	23	3
21	21	5
40	40	1
113	114	4
15	16	3
117	117	8
57	57	5
56	56	6
150	152	2
144	144	2
68	68	4
112	112	9
128	128	3
17	18	5
135	135	2
122	122	5
41	41	1
98	98	7
131	131	10
96	96	4
80	80	4
114	114	5
50	50	10
21	26	1
100	101	3
81	82	8
148	149	1
93	93	9
81	89	2
16	16	4
129	131	2
85	85	5
97	98	1
113	113	9
17	17	4
33	33	3
102	103	2
66	68	5
39	39	3
107	108	7
19	19	12
45	45	7
34	35	1
52	67	3
150	150	4
38	39	4
99	102	3
124	125	2
38	40	3
84	84	5
146	146	1
126	126	10
47	47	3
151	152	4
7	7	4
95	95	3
132	132	9
55	55	5
13	13	3
136	136	3
50	103	3
154	154	4
140	140	4
129	147	3
53	53	7
137	137	2
130	130	4
69	69	3
32	37	2
65	66	5
75	75	7
86	86	2
5	5	3
120	121	6
103	105	2
99	99	2
49	49	5
51	51	6
65	65	6
94	94	3
69	70	2
126	141	1
13	15	2
141	141	2
47	58	2
7	26	2
24	24	4
32	34	4
153	153	9
73	73	2
138	138	4
93	96	2
111	111	2
22	22	3
92	92	2
45	46	5
102	102	3
66	66	1
63	65	1
148	148	4
28	28	2
137	138	4
95	97	1
110	110	4
34	34	8
142	142	1
71	73	1
2	3	4
77	79	1
14	15	2
119	119	1
107	107	1
76	76	2
107	109	3
94	95	4
14	27	1
31	32	1
111	118	1
97	97	5
103	103	2
124	124	8
20	25	1
81	81	4
141	142	2
67	67	2
4	5	2
42	42	4
104	104	2
11	11	6
63	63	3
4	4	1
41	43	1
15	15	1
129	130	3
32	32	3
12	39	3
83	83	2
3	6	1
9	10	3
127	145	1
120	146	2
110	120	3
48	49	2
46	46	2
123	147	1
70	70	6
25	138	2
76	84	1
75	93	1
54	133	1
106	106	3
101	101	2
151	151	1
46	47	1
134	134	2
25	25	2
64	66	1
6	23	1
4	10	3
36	36	1
51	62	1
4	43	2
145	146	1
5	6	1
76	77	1
123	123	1
9	9	2
103	104	2
96	97	2
47	48	1
26	26	1
38	38	1
90	138	2
3	44	1
75	79	3
80	81	1
77	84	1
31	42	2
120	120	1
149	149	2
49	50	1
55	57	1
6	6	1
116	117	1
123	146	1
34	36	1
57	118	1
121	121	1
71	105	1
64	65	1
125	153	1
40	41	3
29	121	1
14	14	1
2	30	1
80	83	1
10	10	1
