93	93	10
133	133	4
108	108	7
81	81	4
71	71	2
45	45	15
22	22	5
58	59	1
13	13	5
35	40	3
15	16	3
103	103	6
12	108	2
117	118	3
14	14	3
64	64	8
15	15	8
19	20	1
100	128	3
109	109	3
16	16	7
42	42	3
47	48	1
34	35	2
103	124	1
74	74	5
121	121	6
134	134	9
102	123	4
63	64	3
92	93	3
34	34	11
119	119	8
86	134	3
123	126	1
107	107	4
82	82	3
36	36	6
55	55	3
44	44	4
83	84	6
102	105	3
43	43	4
84	84	7
76	76	3
85	86	3
25	25	1
84	95	3
85	85	3
94	95	2
57	57	2
59	59	2
113	121	2
78	78	2
99	133	3
33	43	9
18	26	6
95	95	12
30	31	2
130	130	1
63	63	1
100	134	6
101	101	1
87	87	1
73	73	2
75	75	7
77	78	3
5	104	3
11	11	4
70	70	4
66	66	7
17	18	1
85	100	3
96	131	4
12	12	4
114	114	3
51	54	1
10	10	6
92	94	4
56	56	6
107	111	5
85	132	1
47	47	8
62	62	3
130	132	3
98	133	1
92	115	1
19	19	3
32	32	1
97	97	2
128	128	1
28	28	1
91	93	1
12	100	2
20	20	3
32	43	1
131	131	1
26	26	5
17	17	2
117	117	3
81	120	3
44	56	1
113	115	2
7	7	3
94	94	2
47	64	3
13	129	6
13	133	1
35	35	3
96	112	1
111	111	5
45	47	1
98	134	3
82	128	1
96	96	2
11	108	2
97	116	2
17	27	2
10	108	1
71	72	4
80	80	1
83	100	2
99	129	1
65	65	3
18	30	2
38	39	2
77	77	4
21	21	2
27	28	5
9	9	1
21	31	1
82	108	1
86	86	2
54	54	3
1	1	3
101	102	1
118	118	1
68	68	4
84	87	1
92	128	1
4	4	2
129	133	1
14	129	1
110	114	2
57	59	2
72	72	3
40	41	1
46	46	1
61	61	1
69	69	2
83	107	1
24	34	3
129	130	1
84	97	2
35	38	2
106	106	2
26	27	1
31	31	2
116	116	3
96	108	2
33	36	1
46	75	1
60	60	1
102	102	2
83	128	2
44	45	1
92	114	1
91	91	1
102	103	2
79	81	1
123	127	1
32	70	1
111	123	1
130	131	2
78	79	1
33	48	1
22	34	1
109	114	1
