98	99	4
30	30	13
75	76	2
97	97	7
91	91	6
37	37	6
109	111	4
73	73	4
12	12	4
14	15	6
123	123	2
5	5	3
80	87	4
20	21	2
21	43	13
111	129	2
127	128	4
2	2	6
79	87	1
94	94	6
120	120	4
16	19	1
27	27	3
4	4	1
44	44	6
95	95	7
103	103	9
52	52	2
2	34	4
75	75	7
36	37	10
62	62	6
68	68	6
25	26	4
86	86	12
7	7	4
129	133	1
18	18	4
114	124	2
50	50	2
21	21	12
101	101	5
12	15	1
104	105	2
74	74	4
79	79	4
28	28	4
105	105	7
20	20	3
65	65	3
26	26	2
91	126	2
14	14	3
87	108	3
110	131	3
81	81	6
16	16	2
24	24	5
121	122	3
98	98	6
35	35	5
0	0	2
22	22	7
23	32	1
69	70	2
16	17	3
72	72	2
108	130	3
47	107	5
43	50	2
21	24	2
19	19	5
77	78	1
92	94	3
64	64	3
21	23	4
13	13	11
28	29	2
46	107	1
110	110	2
68	85	1
78	78	4
99	99	5
122	123	1
1	1	2
109	109	2
0	3	2
15	15	4
87	87	3
133	134	1
78	128	1
108	133	4
61	61	6
74	75	4
92	92	6
34	34	6
132	133	1
93	93	3
124	124	6
24	28	1
104	104	6
113	113	6
66	69	1
125	125	3
53	53	3
43	43	2
32	32	6
83	84	1
90	90	2
27	28	1
6	11	4
130	131	4
119	119	1
12	18	2
26	27	4
12	13	3
130	130	4
21	48	3
85	86	1
111	111	1
38	38	2
112	129	3
18	103	3
25	31	1
125	126	1
67	67	2
33	33	4
52	121	3
83	83	2
126	126	2
60	60	5
102	102	3
70	70	5
17	18	3
21	50	3
110	130	4
113	114	1
19	21	1
89	89	2
124	126	2
127	127	7
8	8	2
77	77	3
8	9	1
78	112	1
36	36	2
122	124	1
59	116	4
59	59	3
31	31	2
2	33	1
55	117	1
94	95	1
52	109	2
135	135	1
69	69	2
29	30	2
60	109	1
52	80	2
17	19	3
96	96	5
122	122	2
106	106	2
110	133	1
7	11	2
68	70	2
11	13	1
24	26	2
111	130	1
23	23	3
25	25	1
82	83	6
45	46	1
80	80	3
121	121	5
87	133	1
116	117	1
54	116	1
71	71	1
131	131	3
114	114	3
107	107	3
23	82	1
54	59	1
2	3	2
70	72	2
132	132	1
8	10	1
77	95	1
72	89	1
25	30	1
29	29	3
18	19	2
54	55	2
54	54	1
129	129	2
55	55	4
5	7	4
84	106	1
17	17	1
12	16	1
121	130	1
21	49	1
78	110	2
21	22	1
116	116	1
7	8	1
48	50	2
44	45	2
23	25	1
30	31	2
44	110	1
108	108	2
35	38	1
3	3	1
65	66	2
93	101	1
66	66	1
89	90	1
3	8	1
2	4	1
22	23	1
100	100	1
48	49	1
15	16	1
68	69	1
93	94	1
103	104	1
3	33	1
76	91	1
60	61	2
110	132	1
11	11	1
