15	15	8
22	49	4
153	210	1
109	109	7
7	220	5
68	69	1
220	220	5
238	239	3
42	42	1
195	195	2
168	181	3
32	32	2
150	150	7
164	173	2
120	120	3
195	196	2
173	176	2
215	215	10
61	62	2
177	185	2
87	87	2
181	197	2
225	232	2
182	182	2
164	171	3
104	104	10
194	201	2
38	38	4
204	208	1
101	114	4
93	93	5
94	94	2
110	110	4
72	72	3
96	96	3
31	49	4
35	35	1
74	74	4
70	71	3
84	84	1
68	68	8
217	242	2
145	173	2
48	57	2
217	217	7
215	223	2
41	50	2
198	217	3
198	246	2
72	83	2
213	214	1
189	194	1
236	236	2
69	70	11
26	38	2
95	107	3
15	34	3
152	152	1
177	194	2
34	34	3
176	176	1
210	218	2
232	233	3
239	239	3
229	229	3
233	246	5
170	171	5
12	22	2
69	89	5
64	65	4
39	117	1
58	59	2
159	159	7
226	227	3
205	205	6
70	70	2
231	231	6
229	230	3
82	82	4
218	219	2
23	28	2
177	197	1
187	188	1
29	29	6
25	25	2
22	22	10
49	58	1
54	55	3
46	46	8
216	226	7
21	21	7
199	200	3
103	103	2
233	233	2
91	116	3
178	179	1
167	209	3
37	37	6
247	249	1
177	244	2
19	19	9
97	118	1
150	154	1
22	38	2
110	219	3
233	244	3
207	207	7
20	20	1
10	40	3
79	79	3
244	245	1
247	247	2
210	210	1
195	208	5
165	169	1
145	151	2
10	10	4
70	77	2
52	52	5
199	217	2
58	77	2
153	153	3
55	64	1
64	67	3
108	108	1
16	16	5
53	66	1
88	97	1
28	28	3
237	237	3
60	60	6
10	12	1
186	213	1
154	154	2
52	88	1
174	195	3
19	27	2
190	190	2
75	84	2
157	162	4
37	89	2
201	202	2
95	95	3
21	36	4
163	169	3
106	106	6
165	182	4
243	243	6
78	78	2
90	111	4
7	7	11
20	28	1
21	47	4
227	248	1
191	191	3
212	227	1
71	86	1
235	246	2
52	72	1
59	76	3
177	187	3
180	180	5
156	239	1
96	101	3
44	78	1
109	111	2
17	17	4
30	30	7
158	171	1
41	41	2
49	55	3
116	120	2
91	155	4
202	202	4
15	32	1
199	199	7
225	225	1
168	192	4
173	173	4
161	161	2
178	178	8
94	101	3
160	171	1
244	244	1
109	211	4
49	90	4
246	246	3
91	91	3
188	189	2
113	114	3
34	35	4
80	80	3
51	51	2
158	158	4
242	242	8
98	100	6
71	72	3
94	109	3
75	85	1
211	211	2
112	117	4
169	191	1
219	221	1
224	224	1
38	43	1
54	54	5
227	247	3
83	83	2
228	228	2
155	155	1
203	203	6
156	193	5
156	156	3
74	75	2
175	175	6
77	77	3
172	205	1
173	200	1
87	92	1
30	66	2
221	221	4
232	237	4
98	98	1
25	39	1
113	113	4
204	231	1
54	66	5
36	36	3
43	100	1
6	22	1
57	64	3
79	83	2
170	193	3
56	56	2
118	119	2
118	120	1
55	66	3
240	241	1
223	223	2
33	42	1
38	39	1
196	217	2
176	191	1
71	90	2
11	22	1
204	204	4
89	91	1
235	247	1
81	82	2
76	88	1
231	244	2
111	118	1
228	242	3
212	212	6
53	59	2
172	245	3
176	177	2
159	163	1
6	10	1
146	174	3
200	200	2
71	71	5
239	240	1
160	160	3
198	243	1
151	151	2
6	6	3
146	146	1
209	209	2
85	85	5
33	33	3
243	244	1
73	87	2
10	23	2
64	64	3
47	70	1
50	51	1
72	88	2
102	102	2
174	175	3
168	175	1
246	247	2
3	15	1
212	222	3
35	205	1
55	68	4
80	88	1
179	180	1
154	161	3
15	67	2
182	184	3
7	200	1
195	197	2
245	249	1
26	46	1
167	182	1
7	198	2
77	84	1
153	209	2
174	174	2
31	32	1
184	207	2
102	112	1
74	83	2
117	117	1
166	166	1
72	73	1
213	213	1
234	234	1
1	6	3
26	41	1
58	83	2
60	61	2
35	37	1
98	112	3
162	191	1
43	43	1
9	12	3
89	114	1
44	44	1
6	21	1
100	100	3
224	225	1
223	243	1
175	192	1
190	192	4
181	181	3
9	23	3
195	210	1
164	164	3
97	97	3
245	245	2
167	183	1
157	172	2
205	207	1
59	87	3
70	196	3
206	206	2
171	171	1
75	77	1
14	14	3
230	230	1
162	162	3
77	85	2
222	222	2
56	57	2
226	246	3
173	174	2
66	66	4
24	24	1
227	227	1
9	9	2
165	165	3
235	235	2
186	209	1
81	81	2
223	224	2
196	241	1
201	242	2
27	205	1
45	45	1
196	209	1
179	182	1
74	96	1
26	34	1
116	116	2
9	16	2
176	187	1
40	40	2
186	194	2
210	224	1
205	213	1
32	34	2
243	246	1
211	225	1
105	105	2
180	181	1
2	26	1
95	104	3
68	70	2
4	9	1
80	85	2
210	213	1
112	152	1
50	72	2
182	183	1
221	222	3
64	66	1
200	202	1
212	231	2
198	198	2
98	108	2
2	9	1
234	235	2
199	216	5
170	170	1
177	177	1
101	118	1
97	120	2
117	118	1
152	167	3
2	7	1
217	223	1
57	57	1
11	11	2
27	28	1
150	160	3
5	5	3
182	187	2
216	216	3
72	159	2
31	31	3
221	237	1
121	121	1
74	99	1
15	204	2
73	80	1
88	88	1
214	224	1
197	197	3
193	201	1
30	47	1
184	184	1
191	205	1
237	238	5
9	21	1
26	95	2
4	11	1
18	18	2
218	218	1
104	118	1
219	219	1
112	116	3
44	64	1
180	195	1
92	104	1
167	167	4
51	67	1
52	55	2
193	202	1
241	241	1
49	50	4
26	45	1
12	12	1
231	248	1
71	80	1
75	76	2
155	160	1
111	115	1
210	212	1
25	68	1
63	66	1
74	87	1
178	194	1
183	183	1
112	112	1
63	63	1
11	29	1
242	243	1
49	49	1
162	176	1
185	200	2
23	23	2
119	119	1
178	180	1
199	221	1
184	209	1
164	165	1
46	56	1
7	12	1
94	108	1
19	36	1
206	209	2
46	65	1
234	236	1
89	113	1
33	91	1
30	49	1
23	26	1
230	240	1
175	190	1
67	67	1
15	16	1
33	37	2
172	193	1
180	187	1
58	88	1
163	177	1
116	153	1
60	89	1
83	107	1
25	47	1
203	212	1
30	57	1
146	150	1
13	14	1
33	43	1
119	120	1
102	103	2
212	226	1
26	54	1
118	118	1
29	52	1
100	109	1
35	36	1
70	78	1
82	107	1
69	69	1
