27	29	4
38	39	10
11	13	5
67	67	13
34	35	5
117	117	15
43	43	11
39	39	15
95	134	3
83	83	9
153	153	10
139	139	10
10	10	19
57	57	7
106	106	20
95	95	10
6	7	7
55	55	11
97	97	6
16	154	2
140	140	9
137	137	16
17	17	14
80	80	4
111	111	3
78	79	10
112	112	8
114	123	1
76	76	3
110	110	11
123	124	1
141	141	8
48	48	15
46	57	2
35	35	4
46	46	16
154	154	6
41	41	11
143	143	10
87	127	4
98	111	5
107	107	12
145	145	10
141	142	10
147	148	7
98	99	4
64	140	2
18	18	16
150	150	8
7	7	5
40	40	19
129	129	11
38	38	11
130	130	6
99	99	6
29	30	3
80	143	7
19	19	17
18	50	2
122	122	4
113	113	12
49	49	12
72	72	9
25	25	19
3	3	9
66	67	6
47	47	13
107	136	3
24	24	26
13	14	7
78	152	3
42	42	6
70	133	2
108	108	11
29	29	8
38	54	1
148	149	2
112	113	8
33	33	8
69	69	3
135	135	5
128	128	9
44	76	2
109	109	8
36	36	9
86	86	13
98	98	5
91	129	4
14	14	6
114	115	12
127	151	1
72	73	10
47	49	2
42	120	3
96	97	14
116	145	1
128	129	4
62	131	1
94	94	16
62	139	2
115	125	3
101	103	5
129	130	5
19	39	3
100	100	8
5	5	10
6	6	4
30	31	4
146	147	3
4	146	1
132	132	28
73	105	2
124	124	17
116	116	5
109	129	4
108	109	5
115	115	5
87	88	6
23	24	5
66	66	17
56	57	3
82	151	1
119	135	5
149	149	9
70	70	19
115	116	2
27	67	4
81	81	4
87	128	4
121	121	10
134	134	4
152	152	4
112	128	2
64	76	5
86	87	3
94	124	3
40	68	3
71	71	15
146	146	3
40	41	9
75	75	11
45	45	7
93	94	4
103	103	6
65	65	6
12	63	1
121	122	1
62	62	8
90	90	4
85	86	12
84	84	6
68	68	20
37	37	9
15	15	6
15	25	4
102	106	3
93	93	7
31	32	5
34	34	6
136	137	10
8	33	3
27	27	4
147	147	8
102	108	2
22	22	19
74	107	1
42	44	1
64	64	3
79	151	1
136	136	14
30	30	1
111	112	3
121	145	2
95	96	9
97	114	2
44	44	4
3	49	2
107	108	5
62	63	2
85	125	1
20	20	5
80	81	5
16	32	6
37	40	4
138	138	10
11	11	3
99	100	1
20	23	1
28	28	15
102	102	11
106	108	1
39	40	4
98	100	4
131	131	12
2	118	1
92	92	4
125	149	5
144	144	12
22	23	3
26	34	5
115	124	3
122	123	2
32	34	3
16	16	6
42	92	1
49	51	1
63	63	8
21	21	6
31	31	8
51	51	6
110	111	1
15	56	1
13	73	2
54	54	7
123	123	16
124	125	4
107	131	3
11	126	4
81	143	3
151	151	4
142	142	8
145	146	4
23	23	6
88	88	5
126	132	5
13	13	9
125	146	3
12	12	6
40	70	2
85	128	2
45	46	2
73	73	6
63	79	1
81	127	5
35	36	16
18	19	3
21	38	1
116	146	1
4	4	7
19	20	1
109	110	2
63	137	3
132	133	7
114	114	8
28	29	3
69	70	3
13	23	3
4	143	3
113	125	2
50	73	1
85	85	4
125	125	8
16	17	3
56	56	4
153	154	5
120	144	1
27	65	2
4	6	6
97	100	2
66	86	4
136	143	3
20	39	2
36	39	2
31	132	2
129	135	3
41	42	2
126	131	3
4	5	2
88	132	1
126	126	2
84	136	2
40	54	2
36	37	2
17	67	1
11	22	4
10	40	1
68	133	3
10	21	1
7	27	2
48	53	1
86	128	1
105	105	4
79	79	4
12	147	6
43	44	4
104	105	3
18	132	3
124	146	1
8	9	4
99	112	1
37	65	1
115	148	1
9	21	2
100	112	1
7	22	3
67	84	1
110	123	1
96	96	6
25	28	2
82	82	5
133	134	2
8	8	1
8	39	1
50	50	5
7	8	1
132	138	1
85	89	2
27	28	3
16	52	2
87	87	1
42	43	6
10	16	4
102	107	3
37	39	1
86	99	1
68	84	4
62	130	1
43	45	2
14	56	3
86	88	2
63	78	3
3	28	1
64	81	4
19	34	2
141	143	2
100	117	2
94	95	2
149	150	2
143	144	1
137	138	4
98	116	1
148	148	9
123	129	1
119	136	1
124	126	1
17	18	2
64	78	1
106	107	1
5	6	2
104	104	4
101	108	1
141	144	1
139	141	2
99	116	1
118	118	2
114	117	2
18	20	2
30	32	3
37	38	2
130	135	1
120	122	1
108	135	2
77	78	2
127	127	1
3	42	2
78	78	2
58	62	2
13	41	1
17	24	1
93	132	2
20	21	4
111	113	1
50	52	2
93	131	1
9	15	1
95	113	4
67	77	4
62	66	1
53	53	3
102	103	4
54	56	1
119	119	1
56	75	2
138	139	2
117	119	1
19	85	1
68	69	1
5	7	2
81	83	1
70	71	1
79	84	1
46	47	1
79	80	1
53	71	2
91	92	2
3	144	1
10	31	1
122	144	1
32	48	1
113	128	2
8	26	2
78	151	2
73	134	1
77	77	1
9	25	2
133	133	1
75	107	1
74	74	2
81	82	1
15	16	5
128	131	1
81	135	1
3	7	2
9	9	2
32	33	1
61	61	1
84	87	3
120	120	1
98	101	1
118	121	1
62	138	1
79	83	1
101	101	1
13	54	1
19	26	1
10	23	1
94	113	1
54	102	1
26	27	1
22	47	1
113	114	1
58	58	1
