78	79	5
26	26	17
27	27	8
80	80	10
74	105	1
81	121	3
10	31	5
59	59	14
61	66	2
64	64	10
136	136	10
116	116	10
16	16	12
130	130	8
127	127	9
113	116	2
144	144	9
10	11	1
34	34	5
18	18	5
30	30	9
48	71	3
129	129	8
124	125	12
142	142	9
8	8	10
70	101	3
20	24	2
121	122	5
70	70	5
102	102	4
51	52	5
60	62	8
73	106	2
102	103	5
87	88	1
21	35	4
134	140	4
99	135	1
101	101	9
117	117	7
36	36	3
13	13	4
56	58	3
146	146	6
115	115	10
99	101	3
33	39	3
67	67	2
99	99	4
94	95	8
1	1	10
60	60	15
125	126	3
21	24	4
37	37	9
48	48	7
57	57	6
63	131	1
36	37	3
139	141	3
112	115	1
40	41	2
95	96	2
3	4	4
98	135	1
61	94	2
104	118	6
80	81	3
84	84	9
20	35	1
59	60	3
110	111	2
74	103	1
48	90	3
106	106	4
42	42	10
23	26	4
18	38	2
111	111	16
121	121	6
40	40	13
47	47	1
111	125	1
22	33	4
43	43	1
33	33	2
68	68	14
39	39	2
122	122	8
82	120	8
77	77	10
51	51	2
64	66	4
125	125	17
28	28	8
112	135	1
58	58	5
54	54	6
13	14	2
77	91	2
42	94	4
38	63	3
66	66	4
8	67	2
108	110	2
96	96	6
30	31	5
75	75	2
81	81	9
29	29	3
83	83	4
114	133	2
78	78	2
124	124	12
47	48	9
31	32	17
4	5	4
142	143	5
4	18	1
120	123	1
73	74	8
53	90	2
0	11	1
74	126	3
137	137	3
21	23	2
141	141	6
13	56	3
88	89	4
91	92	1
41	41	6
66	85	1
2	2	2
133	139	1
37	42	1
93	94	3
107	107	5
38	58	6
23	24	3
22	22	11
126	126	6
95	95	1
109	109	7
144	145	1
69	69	14
82	127	2
79	79	3
48	70	1
82	82	4
5	5	8
94	94	5
135	140	5
128	128	9
92	92	11
112	114	3
38	38	10
24	24	3
113	113	3
117	118	4
131	131	7
13	15	6
114	114	1
109	110	2
134	134	8
32	33	2
19	40	3
52	53	2
2	114	2
120	120	4
103	107	2
3	36	3
74	74	8
123	123	11
93	93	6
85	85	5
37	67	5
19	30	1
98	99	5
63	63	2
100	109	1
32	32	5
122	123	7
114	115	6
2	48	2
10	10	1
98	98	5
3	3	2
67	68	1
135	135	6
14	20	2
42	64	1
9	9	8
92	93	5
112	113	3
52	52	6
76	140	3
80	87	3
49	49	2
76	77	4
118	118	6
50	57	3
25	25	2
108	131	2
145	145	5
120	121	1
9	31	4
123	134	3
61	61	7
11	11	4
97	97	5
82	83	1
77	78	1
89	89	2
55	55	3
36	39	1
64	71	2
123	124	6
9	33	4
41	42	2
72	72	4
9	10	2
23	25	2
75	103	3
115	144	1
86	86	4
79	80	2
38	41	4
133	134	1
73	108	4
79	97	1
128	129	3
61	62	7
71	71	4
75	100	2
14	14	3
77	79	3
132	132	2
31	31	2
19	41	2
123	131	3
71	129	1
126	127	7
22	37	1
140	140	2
21	21	6
103	105	2
110	110	3
133	133	4
123	125	2
74	75	1
100	100	1
62	62	1
107	108	3
120	122	1
53	55	1
33	40	1
79	136	3
131	134	3
8	58	2
50	50	3
13	19	4
17	17	6
91	126	4
76	136	1
56	68	2
75	124	1
88	108	2
110	112	1
50	53	3
141	142	7
73	73	1
5	19	5
19	19	5
99	107	1
66	67	1
115	116	1
4	4	1
78	80	2
84	125	1
64	65	1
68	69	2
92	94	4
8	9	1
25	26	1
104	125	2
53	53	3
80	140	2
113	114	1
73	107	3
136	137	2
12	25	1
104	104	2
84	86	1
71	72	2
35	36	1
137	140	6
60	66	1
55	57	2
112	112	1
91	91	2
90	90	8
2	24	3
3	22	1
76	137	2
68	70	2
14	16	2
43	90	1
5	18	3
53	58	1
129	133	1
15	15	4
80	129	1
54	55	1
88	88	3
5	6	1
127	128	2
10	33	2
100	101	3
18	39	1
75	131	1
0	0	3
127	129	2
61	63	1
12	13	1
62	67	3
143	144	1
12	21	2
22	94	2
76	130	4
71	88	1
59	61	1
118	119	1
23	41	1
108	108	1
58	59	1
97	142	1
56	56	1
49	50	1
63	92	1
66	86	2
71	91	1
124	128	2
89	90	2
105	105	3
9	14	1
62	64	1
81	128	1
138	139	1
15	16	1
57	67	1
51	57	1
113	134	1
74	110	1
21	40	1
78	140	1
34	35	1
124	131	1
128	138	1
87	91	1
91	95	1
