215	215	4
16	31	1
218	218	6
113	114	3
248	248	2
193	193	1
42	42	5
168	204	2
78	78	2
11	245	3
85	237	7
22	22	2
86	88	3
233	233	3
45	45	7
50	50	5
2	2	5
153	155	2
247	247	9
15	32	3
209	209	3
70	71	4
94	94	3
46	46	4
35	233	2
207	209	1
102	102	2
115	153	2
4	237	1
26	26	4
101	101	5
164	164	5
111	111	4
34	34	1
239	242	3
231	231	5
145	201	1
28	28	6
229	229	1
7	7	10
110	117	3
63	63	7
119	119	3
11	11	4
157	171	1
99	102	2
199	199	5
145	145	1
110	110	7
166	172	4
72	72	2
200	219	4
244	244	6
91	91	3
101	109	4
90	90	6
8	8	2
183	192	1
35	241	1
184	185	1
17	19	1
38	38	5
69	69	1
182	182	5
241	242	2
43	43	6
168	183	8
101	102	5
221	222	2
185	220	1
18	29	1
197	199	2
100	100	5
43	226	3
203	203	4
153	153	1
47	47	6
173	173	2
169	178	2
70	70	1
61	61	2
186	187	1
168	168	9
224	224	5
165	165	2
195	195	2
115	115	2
205	205	5
34	240	12
216	218	6
92	92	5
24	24	1
6	6	2
187	188	2
16	16	4
5	5	2
220	220	1
73	74	2
10	10	4
214	214	5
115	116	2
147	199	2
99	99	4
198	209	2
213	213	4
51	54	2
170	170	3
171	171	3
169	169	5
41	43	2
54	54	1
60	62	2
32	32	2
98	98	2
112	112	2
55	55	2
34	35	1
118	119	4
152	153	1
106	106	2
4	233	1
184	242	4
17	230	1
44	45	3
40	40	2
245	245	7
61	62	1
35	36	3
217	218	6
38	39	1
237	239	3
44	44	2
87	88	2
216	216	2
162	162	2
33	234	1
245	247	1
163	163	3
109	109	5
161	161	4
51	56	1
37	37	4
35	231	3
190	190	3
186	186	2
64	65	2
211	211	2
62	62	2
225	225	5
41	41	1
59	62	1
176	177	1
76	77	1
93	93	1
81	81	3
56	92	2
39	220	1
154	155	2
218	219	2
167	167	3
241	241	2
246	246	5
74	74	5
204	205	2
40	41	1
235	236	1
197	198	2
166	168	1
231	244	1
48	48	1
180	180	1
150	153	2
111	114	1
113	151	2
116	116	4
167	180	3
4	35	1
197	197	1
238	238	4
95	95	1
33	33	2
4	6	1
228	229	1
104	104	2
38	243	3
53	53	4
58	181	1
238	239	1
27	27	1
222	222	4
159	170	4
56	61	1
54	93	2
108	108	2
235	235	1
56	56	2
90	91	2
96	97	1
40	204	1
9	9	1
6	231	1
242	245	1
65	65	1
179	180	1
47	149	2
4	4	1
12	15	1
18	18	1
181	181	1
204	206	1
172	172	1
200	200	1
57	58	1
184	184	1
214	215	1
150	150	2
242	242	2
36	36	3
164	165	1
95	96	1
82	84	2
43	45	1
185	185	2
29	29	6
87	87	2
49	64	1
39	39	3
12	12	2
56	60	1
225	228	2
180	181	1
223	243	3
89	89	1
88	88	1
73	73	1
223	223	1
64	64	1
237	237	2
107	107	1
35	236	1
175	175	1
85	87	1
149	203	1
205	206	1
188	192	1
196	198	2
234	234	2
114	114	3
183	183	2
21	23	1
12	230	2
10	19	1
160	161	1
35	35	2
168	169	1
64	167	1
76	76	2
94	95	1
62	172	1
243	243	1
65	88	2
180	235	1
84	237	1
230	230	2
223	224	2
11	213	1
158	170	1
190	191	2
160	160	1
212	213	1
19	29	2
176	188	2
210	210	1
12	18	1
183	184	2
62	63	2
187	190	1
85	86	1
165	167	1
227	227	1
85	85	2
39	204	1
219	219	1
198	198	1
216	217	1
