71	71	7
96	96	16
117	154	3
140	140	8
103	103	5
63	138	1
68	68	9
144	145	1
146	146	1
151	151	18
63	63	7
83	83	4
78	78	10
26	27	2
40	40	9
129	129	12
138	138	11
97	97	9
109	109	7
125	125	4
15	15	8
38	38	7
134	134	6
67	68	7
76	151	3
170	170	4
153	153	13
69	98	5
41	41	7
111	111	6
144	144	4
80	80	3
39	39	8
149	149	12
4	17	3
91	93	2
94	149	2
3	3	15
64	64	1
149	150	8
25	25	4
158	158	4
18	19	6
8	9	7
34	34	8
123	123	7
137	137	5
91	110	1
115	115	2
90	160	3
166	166	8
14	14	8
157	158	5
99	99	15
118	118	6
156	156	2
23	24	2
21	22	1
131	131	5
135	136	5
93	118	6
41	43	4
139	139	3
23	162	4
156	167	2
118	119	2
79	79	9
17	17	2
132	132	4
36	36	5
42	42	5
147	149	1
117	117	12
87	88	8
27	28	3
136	136	10
113	113	4
168	169	3
161	161	6
16	16	4
116	155	4
82	96	3
108	149	5
21	21	9
122	124	5
163	163	6
0	1	6
74	127	3
87	87	4
98	98	9
41	90	3
91	91	7
53	53	5
114	114	11
160	160	10
101	102	3
24	24	4
50	51	2
48	48	3
109	158	6
37	37	10
102	103	1
7	7	1
107	107	9
88	88	8
84	84	9
115	116	4
50	50	5
106	106	8
12	12	1
126	153	2
17	18	2
63	64	3
0	0	3
13	144	1
90	90	13
5	5	3
74	130	1
11	11	10
49	49	2
7	9	1
7	10	10
20	20	5
110	115	3
80	96	1
132	133	3
9	144	4
52	52	18
67	67	12
95	95	4
1	2	2
138	146	8
1	1	1
123	155	2
106	152	2
92	92	3
39	46	1
167	167	6
152	153	1
74	129	1
158	159	3
139	140	3
105	105	7
45	46	5
139	145	6
43	43	14
155	155	5
39	40	5
13	13	3
110	110	5
38	40	2
162	162	3
74	75	2
27	27	5
76	94	4
26	161	1
22	23	15
83	116	3
57	62	1
35	35	13
92	162	1
68	69	8
26	26	3
44	44	6
10	11	3
36	37	3
132	134	2
55	55	6
51	51	8
46	46	5
74	76	2
134	135	4
54	54	6
120	167	1
154	154	7
2	2	6
98	135	5
112	112	3
63	146	3
148	148	5
71	96	1
108	108	5
4	4	5
68	70	1
16	23	4
22	144	2
66	66	5
41	67	2
77	78	3
6	6	4
106	130	1
102	102	5
19	20	1
93	93	15
77	77	6
96	130	2
81	81	11
4	10	2
80	129	2
109	160	7
69	70	5
122	123	1
63	145	2
68	98	1
54	55	1
142	164	4
150	150	1
70	70	7
64	146	3
164	165	5
45	45	4
111	112	1
157	157	5
79	80	3
142	143	3
56	57	3
76	127	3
27	38	1
121	121	2
50	52	3
73	151	2
34	35	6
66	69	3
146	147	3
77	80	1
3	4	1
4	7	1
88	89	1
73	75	2
91	160	2
90	135	1
71	136	1
89	89	5
62	70	1
143	144	4
79	137	1
22	24	4
89	137	4
21	56	3
133	136	6
77	148	2
93	94	1
116	116	4
37	43	3
134	136	1
94	123	1
74	74	7
49	52	7
72	72	4
141	142	6
56	56	10
71	89	1
23	23	3
17	163	1
11	13	2
75	75	4
128	128	1
65	65	2
120	120	3
82	95	7
110	111	4
154	155	2
85	85	3
116	160	2
145	145	2
168	168	3
114	117	1
119	120	2
116	117	3
100	101	3
122	122	1
88	137	3
122	155	3
6	7	4
142	142	4
10	10	6
116	159	2
130	130	1
62	63	1
107	151	4
10	15	2
68	99	1
160	161	4
69	69	2
95	126	6
14	16	1
121	123	3
143	143	1
37	44	1
9	9	1
74	105	1
87	132	1
105	106	2
67	70	1
91	149	6
33	35	1
39	45	1
127	127	2
126	126	2
112	113	2
155	157	2
104	130	1
16	18	2
16	17	1
91	117	1
135	135	2
152	152	4
105	130	1
114	159	2
165	165	1
8	144	1
53	56	1
0	2	2
101	101	1
47	47	2
124	124	3
84	86	1
141	141	3
133	134	2
12	146	1
138	139	2
90	136	2
113	114	3
33	33	1
27	41	3
51	52	1
159	159	1
140	147	3
58	58	1
86	86	10
70	136	2
119	139	1
145	146	3
58	62	1
130	131	1
19	19	2
81	96	1
22	22	1
147	147	1
8	143	1
119	119	2
140	146	1
47	48	1
62	62	3
18	18	2
99	100	1
76	77	2
113	165	1
28	28	2
84	85	2
150	157	2
86	131	1
72	75	1
89	90	1
83	96	1
140	143	1
120	121	1
76	126	1
126	127	1
76	76	1
75	105	1
4	6	2
75	130	2
86	87	1
147	148	1
159	160	1
36	44	1
81	82	1
40	45	1
125	127	1
55	56	1
38	47	1
123	127	1
28	137	1
64	138	1
151	152	1
150	151	1
21	23	1
