112	112	6
158	158	19
102	102	6
89	121	3
52	52	11
174	174	9
124	130	1
103	103	7
0	0	3
52	53	3
61	85	2
137	137	8
166	166	7
80	107	1
130	130	4
60	89	2
3	6	3
66	66	7
125	126	4
59	59	5
105	105	3
67	67	2
145	174	2
30	31	7
24	24	13
42	43	5
136	177	1
44	44	9
77	77	4
156	156	9
12	12	2
150	150	4
176	176	7
93	116	1
111	112	2
16	35	3
125	125	7
171	173	1
28	33	3
145	146	5
90	91	3
95	95	4
100	100	2
18	18	2
43	43	6
122	122	7
139	140	4
5	6	6
101	101	6
28	29	2
33	33	5
153	154	3
149	149	14
30	30	5
49	54	3
151	153	2
134	134	5
87	87	5
68	68	4
112	145	2
100	101	2
131	131	8
92	94	2
135	135	1
178	179	2
16	16	7
18	20	5
128	150	4
115	116	2
114	114	7
123	124	7
81	81	7
10	10	7
133	137	1
31	31	9
50	72	5
132	132	6
14	14	6
90	90	8
45	45	4
178	178	3
27	27	1
159	159	17
162	164	2
54	54	7
140	140	7
93	93	3
71	75	1
167	172	1
84	85	4
172	172	2
177	177	3
8	9	3
146	167	4
113	113	3
94	116	1
60	65	3
110	168	1
50	51	4
79	79	13
34	34	5
2	8	5
171	172	1
130	151	2
121	121	11
83	84	2
28	30	2
15	15	3
155	155	3
16	56	1
88	92	1
106	106	7
127	127	7
120	121	6
111	114	3
138	138	6
137	138	6
150	151	3
130	141	5
57	57	3
98	98	6
159	160	1
130	149	2
62	63	1
168	168	6
65	65	14
23	23	2
72	73	3
92	92	6
128	130	5
40	41	1
86	86	6
166	167	7
73	74	1
112	114	2
167	167	4
141	157	2
80	80	3
96	96	8
94	94	3
71	71	7
73	73	5
89	89	6
134	137	1
61	61	12
3	3	5
115	149	3
36	44	1
2	3	4
136	161	3
84	84	2
133	179	1
96	97	2
163	163	1
91	109	2
42	42	4
4	4	3
154	154	9
115	115	6
169	170	1
117	117	3
74	75	2
41	41	6
55	55	5
37	37	3
86	87	7
132	140	2
63	63	5
50	54	1
179	180	3
101	111	4
155	156	2
2	2	4
136	136	4
157	158	2
40	40	1
21	22	1
108	108	5
139	139	8
11	18	2
51	51	1
62	62	5
80	83	1
148	148	2
113	114	3
153	153	2
5	11	1
14	15	2
177	179	1
146	146	3
67	68	2
123	123	7
11	20	1
131	132	7
173	174	1
130	131	1
22	27	3
130	142	2
81	90	3
35	35	4
56	56	5
120	120	2
147	148	1
133	133	4
2	15	1
2	21	1
151	152	1
134	136	1
120	122	2
97	97	1
168	169	3
71	74	2
81	85	1
136	179	1
107	107	3
59	84	1
173	173	6
165	166	1
87	92	1
93	94	2
95	97	1
146	147	3
144	148	2
23	38	1
144	144	1
58	59	4
3	5	2
6	13	1
144	145	1
123	125	3
76	76	4
64	64	10
55	56	3
99	100	1
43	44	2
90	93	3
92	95	1
175	175	2
129	130	2
17	19	1
172	173	4
156	179	2
143	144	5
78	79	3
53	53	6
56	57	1
11	11	2
116	116	6
157	157	2
3	55	1
90	95	1
85	86	2
158	159	1
27	28	3
129	129	1
6	9	2
44	45	3
124	124	2
156	157	1
25	25	2
16	17	1
42	75	1
71	72	1
16	22	3
81	87	3
6	7	1
74	80	2
24	65	1
95	96	3
165	165	2
75	75	1
142	156	1
14	35	1
50	50	4
78	78	2
74	74	1
31	36	2
28	28	4
4	5	2
169	169	4
141	141	1
25	26	2
61	65	2
132	133	1
110	110	1
135	160	3
170	170	1
27	29	1
93	110	1
94	110	2
61	62	4
39	39	1
82	87	1
18	38	1
8	8	1
62	64	1
166	170	1
121	149	1
16	23	1
72	72	1
60	60	2
143	155	1
104	104	3
152	153	1
80	106	1
83	83	1
126	126	1
1	7	1
67	106	1
38	38	1
145	145	2
80	81	1
1	1	2
167	173	1
15	16	1
177	178	1
36	36	5
88	88	2
101	102	1
75	80	2
56	58	2
94	114	1
134	135	1
87	116	1
110	115	1
91	91	1
3	49	1
60	70	1
176	177	1
127	128	1
49	50	1
89	90	1
99	99	1
135	152	1
146	173	1
79	80	1
151	151	1
111	111	1
19	21	1
60	61	1
17	17	1
56	80	2
179	179	1
44	73	1
27	34	1
119	126	1
143	143	1
22	23	1
138	141	1
161	165	1
