36	36	8
74	74	11
54	76	2
54	54	6
65	65	8
64	65	3
61	62	2
20	20	15
0	76	3
64	64	16
24	24	20
5	5	6
50	57	1
8	29	1
62	63	5
34	34	9
53	62	1
23	23	11
28	29	2
9	9	6
32	32	6
18	19	3
0	10	2
63	63	17
13	14	2
67	69	5
13	13	6
29	29	3
6	7	5
8	8	7
7	7	5
2	2	4
60	60	5
55	56	4
50	50	7
72	72	8
38	39	11
29	31	7
59	59	10
46	46	13
20	21	1
37	37	5
35	38	2
23	25	2
73	74	3
34	35	3
4	32	4
30	58	6
56	56	9
21	21	10
33	34	4
67	72	2
37	38	10
1	1	10
64	66	3
68	69	4
72	73	4
27	27	9
53	61	6
39	39	11
26	26	7
53	53	2
51	59	5
7	9	1
8	10	4
33	33	9
0	0	4
46	47	1
12	12	6
77	77	7
47	55	6
51	51	4
43	44	4
69	70	2
42	42	6
67	67	7
9	27	1
56	57	5
7	50	3
41	41	5
19	19	10
45	47	4
22	42	2
25	32	2
67	70	4
25	26	8
27	29	3
40	41	4
43	43	10
31	32	7
22	22	4
61	61	8
9	26	4
36	37	1
4	9	1
58	58	7
76	76	9
39	40	4
12	13	1
1	2	4
3	3	3
27	28	5
34	38	2
65	66	3
42	43	5
55	55	4
4	4	2
40	40	7
71	72	4
45	45	2
4	51	2
52	52	4
69	69	7
5	6	3
28	32	3
44	44	3
74	76	4
45	46	4
8	9	2
33	40	2
28	28	2
0	2	4
22	24	1
30	30	5
11	11	3
48	48	4
47	47	2
7	8	1
47	48	3
62	62	3
10	10	5
66	66	4
25	25	8
71	71	2
70	70	1
49	49	8
7	10	1
57	59	1
22	23	9
59	60	2
11	33	2
37	39	3
45	48	2
26	32	1
52	74	2
18	18	6
46	55	1
31	31	5
0	3	1
67	71	1
11	13	2
60	77	1
58	59	2
6	59	1
21	42	1
60	66	1
4	5	2
65	67	1
14	14	1
13	49	1
66	73	1
60	75	2
38	38	6
75	75	1
57	75	1
34	39	2
48	56	1
9	13	1
35	35	2
7	11	2
75	76	1
9	14	2
11	12	1
12	36	1
23	24	2
34	36	1
52	60	1
68	71	1
63	64	1
6	8	2
38	40	1
22	25	1
52	61	1
49	56	1
52	54	1
53	60	1
66	68	2
60	65	1
8	30	1
64	69	1
64	68	1
51	52	1
73	73	2
9	10	1
