116	116	22
99	99	30
11	12	1
156	156	14
139	139	23
68	68	4
115	116	7
100	107	5
124	125	3
40	47	3
128	140	2
21	22	6
2	2	27
27	27	17
151	151	10
25	25	16
49	49	7
31	32	7
88	88	25
134	134	14
37	37	6
67	68	12
124	124	11
141	154	9
92	92	13
142	142	13
145	145	12
138	139	6
104	104	18
24	24	14
123	127	5
65	65	5
148	148	18
120	120	17
11	11	17
131	133	2
78	78	10
93	93	33
22	22	14
125	127	16
2	3	8
145	157	3
103	103	14
26	39	5
38	39	3
31	31	15
1	1	10
0	0	13
84	84	5
16	16	24
86	86	13
140	141	3
4	4	10
7	8	8
25	26	6
20	22	5
79	79	19
155	156	5
7	7	8
73	73	19
38	42	3
96	96	12
33	33	17
115	115	6
8	8	5
84	87	7
98	98	13
123	123	11
19	19	4
13	80	2
71	71	9
143	144	1
97	98	6
94	94	25
117	126	5
122	122	20
138	138	19
44	44	9
11	80	5
125	125	7
35	38	3
154	154	8
6	11	3
47	64	2
9	9	8
41	41	3
83	83	6
26	27	3
137	138	14
63	64	2
79	80	3
47	80	5
108	109	3
34	34	8
3	56	1
99	104	1
119	120	6
87	87	16
69	69	8
52	53	7
47	47	14
46	49	9
95	95	15
96	97	10
75	75	24
109	114	3
80	80	19
26	26	14
64	64	4
43	43	24
14	14	11
69	75	2
121	121	11
54	55	3
8	10	5
53	53	9
105	105	16
50	50	6
110	110	11
85	147	3
50	51	6
55	63	1
106	112	9
146	146	8
23	23	8
23	24	12
14	18	3
144	144	8
101	101	25
86	147	2
57	57	4
144	147	2
130	130	6
39	40	4
39	39	27
129	130	15
95	96	15
118	119	4
89	89	15
107	140	4
110	112	1
140	140	13
149	150	4
21	42	1
111	111	11
102	117	2
131	131	6
29	30	7
52	52	6
36	36	18
8	18	4
3	46	1
18	18	9
129	134	1
90	90	12
78	85	4
66	66	10
5	6	7
146	147	12
4	32	3
106	106	6
43	44	2
103	105	5
150	150	10
30	129	3
19	22	3
3	4	10
100	100	5
138	151	3
104	106	1
137	137	12
91	91	9
41	43	4
106	107	7
67	67	12
132	135	1
69	70	5
145	146	1
38	38	7
114	114	12
133	133	3
85	85	11
132	133	9
132	132	18
88	90	3
157	157	6
12	81	1
28	28	21
136	136	10
117	117	10
88	89	16
9	19	2
141	141	12
29	130	3
125	126	7
38	41	2
30	130	2
97	120	4
147	155	4
104	105	2
8	9	10
98	100	4
46	55	5
63	63	3
9	10	4
40	40	9
27	28	5
29	29	11
70	71	12
51	51	6
118	118	3
15	15	11
116	140	2
55	56	1
126	126	11
153	153	7
82	120	2
17	17	5
70	70	7
10	10	13
32	32	9
3	3	12
80	81	11
140	156	3
32	36	2
137	139	3
54	54	9
158	158	8
82	83	6
35	40	1
82	84	2
77	77	12
114	121	2
115	136	1
112	116	3
47	131	7
135	141	5
22	43	2
110	116	2
78	79	2
16	18	4
141	142	3
49	50	8
15	16	2
81	82	6
30	30	9
81	81	15
115	135	3
17	18	5
5	5	13
107	110	3
102	102	2
23	129	2
112	115	3
130	132	2
38	106	2
82	122	3
20	20	7
35	36	5
16	17	1
53	54	5
92	94	5
1	98	1
84	85	7
4	5	7
67	151	3
64	98	2
73	74	1
18	42	4
22	32	1
33	44	3
135	139	2
128	128	9
46	54	2
22	23	7
28	127	3
147	150	2
44	45	4
46	46	9
45	131	6
113	137	2
91	93	2
66	67	2
131	134	3
135	135	15
146	157	2
91	92	3
23	35	4
131	138	6
113	114	5
14	41	2
152	152	5
28	29	2
114	115	4
34	40	3
153	159	4
129	129	11
111	112	3
131	157	2
29	129	2
113	113	14
78	138	2
103	127	1
39	104	2
110	111	3
129	131	2
105	112	3
46	68	3
22	39	5
67	71	7
6	38	2
98	99	1
108	111	4
8	31	1
88	99	3
103	104	9
48	48	5
150	152	4
3	32	1
108	121	3
19	41	3
107	132	2
5	46	1
20	42	1
107	107	4
69	72	2
42	42	2
6	8	5
18	19	2
97	97	6
69	73	2
93	94	3
112	112	4
116	139	4
35	97	2
66	71	1
53	95	3
56	62	2
72	72	10
46	48	5
152	153	2
1	2	6
108	110	3
95	97	1
6	12	1
85	93	5
147	147	8
21	21	12
10	11	1
153	154	2
12	13	3
46	47	3
36	37	4
32	123	2
69	76	4
15	32	3
84	121	1
119	128	2
55	55	2
105	110	1
51	52	1
13	14	2
23	30	2
85	86	9
32	53	2
114	133	2
65	96	1
32	126	1
18	20	3
77	107	2
155	155	4
128	130	2
94	112	3
105	111	1
14	33	1
45	47	4
77	105	1
130	131	1
82	82	10
78	84	1
5	39	6
45	46	1
139	140	1
156	157	1
6	6	2
62	62	1
131	150	1
20	31	1
92	149	2
83	117	2
15	121	1
68	72	1
119	119	9
40	41	5
30	39	2
19	20	2
35	35	5
142	143	2
127	128	1
51	95	4
102	103	3
132	155	1
129	133	3
157	158	1
134	141	3
26	141	1
18	23	2
52	96	1
29	126	3
135	137	2
144	146	3
109	109	6
132	152	4
99	100	2
3	31	5
100	102	1
49	52	1
79	119	2
136	137	2
4	39	1
86	92	1
119	121	1
109	110	1
9	11	1
47	50	3
45	45	5
44	47	2
132	158	4
108	108	2
116	117	2
101	105	2
151	155	1
84	147	2
73	75	1
126	127	1
145	155	1
42	43	3
94	95	3
78	119	1
71	159	1
145	153	1
51	54	1
111	116	1
72	73	2
137	142	1
133	137	1
30	31	3
106	108	2
8	19	3
150	158	2
33	34	1
83	138	1
113	134	2
75	76	3
127	127	1
116	128	1
1	99	1
69	71	1
78	81	1
142	145	1
111	123	1
95	112	2
117	128	2
136	141	1
112	114	1
34	41	1
130	142	1
0	1	1
108	135	1
77	78	1
31	133	1
12	41	1
28	128	1
149	149	1
83	84	2
101	129	1
23	25	1
129	138	1
65	95	1
28	30	2
22	42	2
0	2	2
134	148	1
133	149	1
16	31	1
106	110	2
122	123	3
144	148	1
154	155	1
93	117	1
86	87	1
143	143	2
123	124	3
79	81	1
55	123	1
151	157	1
84	86	1
12	12	1
110	117	1
2	4	1
41	46	1
144	145	1
