107	140	3
93	93	6
46	46	8
102	102	6
84	85	1
34	34	2
139	139	18
37	37	5
121	121	7
75	76	1
140	140	9
78	78	5
107	144	4
146	146	2
3	3	2
151	151	3
56	57	1
103	103	14
92	94	4
153	153	2
91	91	7
49	49	5
44	44	13
80	81	3
124	125	4
148	151	4
88	89	7
104	104	4
53	54	8
47	48	2
12	12	2
130	130	3
94	96	4
18	38	5
129	129	10
5	5	7
119	119	1
51	51	2
94	94	6
55	71	3
135	135	6
44	45	4
115	115	5
20	20	7
137	137	6
33	33	10
150	150	5
38	38	5
68	71	2
27	27	9
127	127	11
48	48	1
111	111	5
25	25	5
10	37	3
21	26	1
16	16	17
24	25	4
2	4	3
22	69	4
98	156	2
139	140	1
116	116	2
26	26	6
6	6	8
87	88	1
43	43	10
100	100	1
79	107	3
67	67	1
127	134	8
39	84	2
36	36	6
88	88	4
80	80	5
133	133	6
122	122	4
16	33	3
132	133	3
148	148	6
154	154	4
42	42	2
29	29	6
115	117	5
157	158	4
39	40	3
134	138	3
74	74	3
106	106	3
11	11	7
38	82	1
106	131	1
125	125	6
4	4	10
138	138	1
22	22	3
71	71	2
18	18	9
107	107	5
0	6	1
31	32	1
63	63	2
50	50	9
0	1	5
90	90	3
133	134	1
68	68	3
108	149	2
41	41	3
52	52	10
15	54	1
68	70	1
131	131	1
26	63	1
10	10	2
48	49	2
129	157	4
31	31	3
117	118	3
79	80	3
128	128	6
89	148	1
90	91	4
80	82	2
77	79	1
9	9	7
100	157	1
110	111	3
64	64	5
128	135	4
157	159	2
123	123	5
30	30	5
49	54	3
157	157	1
95	95	2
40	40	3
20	21	6
26	27	5
119	144	6
85	86	4
15	19	3
113	113	1
108	108	2
77	77	5
4	5	2
91	92	1
66	66	1
45	67	5
112	113	2
114	114	4
8	9	4
65	65	5
128	134	1
25	66	1
93	147	2
2	5	2
105	159	1
33	34	1
131	132	2
98	98	6
134	134	3
79	88	4
19	20	1
70	70	3
25	62	1
117	117	7
39	41	1
99	99	4
109	110	4
21	27	4
14	14	3
81	82	3
48	71	2
38	39	2
42	87	3
138	140	4
28	29	2
62	62	1
87	87	4
47	47	1
120	120	1
96	97	1
122	123	1
8	8	2
1	2	2
101	157	2
146	147	3
52	53	1
53	53	1
142	151	3
106	141	4
126	139	1
124	124	4
101	156	1
144	146	2
125	126	3
96	100	1
23	24	3
95	96	3
94	149	2
103	104	2
88	90	5
150	151	3
11	30	3
99	156	2
21	21	3
69	69	4
107	148	1
142	159	3
6	22	1
112	112	6
83	84	2
81	81	3
0	0	1
158	158	4
132	132	2
15	57	1
119	142	2
92	93	3
19	19	5
116	155	1
42	83	1
46	47	1
136	137	2
56	71	1
106	135	1
73	73	1
68	69	3
142	152	2
114	126	2
39	82	2
45	45	4
89	89	4
39	39	5
54	64	1
15	15	1
1	1	2
77	82	1
13	13	4
136	136	2
123	125	1
92	92	2
6	8	2
75	75	1
137	138	2
140	154	5
84	86	1
50	52	1
15	16	1
91	99	2
45	71	2
49	51	1
155	155	2
142	142	1
126	126	1
141	154	1
92	99	1
86	86	3
84	84	1
152	154	1
11	13	1
56	56	2
7	20	1
128	129	1
92	95	1
105	105	1
14	16	1
50	55	1
131	135	1
155	156	2
83	83	3
69	70	2
96	96	2
120	151	1
73	75	3
1	6	1
132	134	1
109	109	1
141	141	1
127	128	1
93	94	1
118	143	1
97	98	1
128	140	1
70	71	2
152	152	1
127	135	1
145	147	1
35	36	1
138	139	1
23	68	1
83	87	1
6	7	1
154	155	1
54	54	1
