106	106	14
67	67	13
44	45	7
145	145	7
151	151	4
85	86	7
98	98	8
74	75	3
103	104	2
33	34	3
37	37	8
64	64	17
76	76	11
13	13	10
81	81	7
20	21	3
95	105	4
57	57	8
77	79	2
95	95	5
13	70	3
95	97	4
94	95	10
94	94	7
15	15	1
38	38	11
144	145	4
102	102	18
71	71	16
2	2	3
56	56	7
75	75	4
104	104	7
118	118	7
109	133	1
132	133	7
13	74	2
115	122	3
8	9	2
53	53	4
144	144	4
26	26	12
49	49	7
45	45	2
24	24	3
147	148	1
96	97	4
120	120	3
62	151	3
100	105	2
48	53	1
18	28	10
97	98	4
136	137	4
110	133	1
141	142	4
70	70	4
22	22	11
45	46	5
7	7	9
141	141	5
34	36	1
87	87	3
97	97	3
122	122	7
66	68	6
65	65	5
99	99	9
22	24	2
115	115	15
5	5	6
3	46	2
50	102	3
142	146	2
16	16	5
96	96	15
138	138	13
3	8	1
17	135	2
67	80	4
146	146	1
42	110	1
78	78	3
124	133	1
93	93	2
38	40	1
11	12	5
88	88	1
34	34	4
13	14	2
126	126	2
25	25	9
96	102	4
6	6	9
140	140	5
121	121	5
48	48	9
36	36	3
117	117	4
130	130	3
68	68	3
4	6	4
116	117	2
149	150	2
80	80	16
32	32	2
147	147	8
52	52	7
44	44	4
11	11	10
34	35	3
40	40	4
103	103	3
154	154	11
35	106	2
140	150	2
79	79	2
83	83	5
130	131	4
58	58	6
111	113	3
134	134	9
124	124	1
126	141	1
113	113	3
3	9	2
18	18	2
123	123	1
28	30	1
132	136	4
41	55	1
116	116	6
92	93	1
43	44	1
41	44	1
120	152	3
12	13	3
41	46	1
55	55	2
84	86	1
27	27	1
15	62	1
56	58	2
101	101	2
6	7	2
121	122	2
41	42	1
33	35	1
33	33	3
124	141	3
94	96	2
66	66	3
73	73	1
148	148	3
119	119	4
9	19	3
68	69	9
131	131	4
128	128	8
39	40	5
12	12	3
50	50	10
67	68	4
86	86	7
34	38	1
64	68	2
51	51	3
43	43	2
20	20	2
152	152	4
78	79	4
111	112	3
119	120	3
109	109	6
100	100	4
71	72	1
93	94	3
80	81	2
6	31	1
84	85	3
123	125	2
137	137	5
4	4	2
100	101	2
54	54	3
72	73	1
38	55	1
82	82	3
120	146	3
127	128	3
114	114	5
137	149	1
131	132	3
107	108	3
108	108	6
86	87	3
17	18	3
128	132	2
7	8	2
106	108	3
63	68	2
107	129	1
143	143	1
36	48	6
98	99	1
75	78	2
27	28	2
33	37	2
74	74	4
8	36	4
101	131	2
139	139	5
106	107	2
109	110	3
64	67	1
13	71	3
153	154	2
62	62	2
41	41	2
82	83	3
21	21	2
10	49	3
49	50	2
32	35	6
63	63	1
9	40	2
111	115	1
28	29	1
110	110	4
17	17	3
42	43	2
68	82	1
47	47	4
142	142	2
132	132	5
63	64	2
140	141	1
122	142	3
85	85	5
135	135	3
94	97	1
146	148	2
100	102	1
98	102	1
27	29	1
47	95	1
5	9	1
117	118	1
76	78	2
66	67	2
149	149	3
136	136	2
77	77	1
39	46	2
133	133	3
39	43	2
75	77	2
15	17	1
57	104	1
41	110	1
112	112	2
92	92	1
113	114	2
22	25	1
42	42	2
4	25	2
14	14	2
153	153	2
30	40	1
97	103	1
140	142	2
40	41	1
62	95	1
26	27	1
136	139	1
99	102	1
72	72	1
47	137	1
96	99	1
33	58	1
115	117	1
107	107	1
