20	22	7
104	104	5
92	93	7
85	85	12
72	72	15
84	84	7
76	78	1
80	80	12
24	24	12
30	30	15
27	27	15
21	21	16
50	54	1
92	92	7
91	91	15
46	47	2
88	97	3
36	38	6
70	73	1
43	45	3
103	103	9
55	55	12
64	65	3
76	77	5
65	66	17
39	51	3
54	54	19
63	63	7
56	56	26
29	29	15
48	48	19
40	40	10
100	100	10
31	33	2
59	59	6
35	59	3
97	97	5
48	49	5
79	80	16
43	43	9
102	103	4
52	53	9
66	106	3
32	32	12
42	43	4
105	105	8
88	88	15
35	35	11
68	68	24
83	83	14
32	40	2
23	23	12
49	49	5
75	75	25
67	67	19
79	79	11
93	93	15
62	62	13
33	34	7
95	95	11
38	96	1
71	72	8
98	106	2
84	85	8
94	94	10
41	42	7
47	48	5
76	76	15
52	52	14
77	79	4
98	99	6
26	26	13
37	37	6
28	28	9
60	60	6
22	24	1
33	33	16
87	106	4
86	86	9
43	44	4
87	92	3
56	58	2
77	77	13
20	23	4
45	48	1
87	87	13
59	60	5
51	52	7
104	105	6
37	43	11
67	83	2
22	80	2
43	50	4
81	81	14
46	48	3
97	100	4
38	38	9
35	52	2
30	43	2
20	20	11
36	36	15
62	63	3
26	54	2
36	43	2
63	64	5
58	59	2
99	99	5
50	50	3
90	95	6
19	78	3
55	57	5
65	65	5
58	58	7
85	91	5
97	101	6
59	78	6
84	107	1
71	71	14
73	80	2
45	45	6
91	92	5
78	78	19
56	57	4
31	31	9
26	27	8
27	38	2
46	46	14
54	55	4
71	74	2
64	64	14
35	36	2
74	74	15
41	41	8
72	73	8
51	51	16
100	106	3
58	60	2
69	70	3
90	99	3
91	106	5
25	26	4
61	62	2
98	100	2
86	87	1
47	47	11
96	96	11
73	74	4
53	54	5
40	46	1
93	94	4
89	89	12
83	85	4
22	22	5
81	82	2
48	60	1
50	67	1
87	95	6
39	39	5
44	72	1
70	70	9
61	61	3
44	44	6
22	96	1
75	98	1
86	91	2
36	37	3
74	75	7
100	102	2
94	95	6
75	76	1
21	23	2
89	90	5
40	42	3
57	57	11
90	90	9
81	84	1
45	46	4
22	37	2
52	54	2
94	98	1
42	44	3
98	98	8
39	44	1
101	101	12
72	95	2
102	102	7
39	55	2
51	54	2
79	81	2
70	71	3
53	53	7
88	89	4
38	58	3
66	66	6
73	73	15
96	97	3
31	42	1
97	98	9
68	69	4
55	59	2
19	20	2
54	106	1
65	77	2
40	43	2
80	81	1
25	25	10
50	53	1
82	82	2
98	101	1
78	79	3
30	31	2
54	95	4
51	53	2
78	88	1
106	106	5
34	34	6
88	91	3
20	25	1
57	92	2
59	83	3
72	94	1
83	84	2
94	104	1
88	95	3
44	73	1
50	65	2
99	101	4
83	86	2
30	38	1
49	61	3
82	85	3
69	69	4
24	51	2
27	96	2
67	106	2
85	86	2
42	42	1
39	40	2
56	70	2
32	57	2
69	75	1
55	56	3
44	47	2
50	51	2
91	95	3
27	37	2
71	95	1
104	106	1
84	86	2
24	25	1
91	93	2
37	38	1
64	68	1
60	61	1
66	67	1
77	78	2
39	99	3
94	96	1
99	100	1
23	24	2
100	101	2
37	39	1
74	80	2
71	73	1
69	73	1
88	96	1
23	25	1
31	41	1
22	23	1
88	94	1
76	90	1
106	107	1
66	92	1
77	102	1
67	68	1
29	31	2
34	78	1
87	88	1
55	58	1
36	39	2
76	89	1
93	106	1
49	50	1
94	99	1
