3	3	1
70	70	2
110	138	1
49	49	1
97	97	2
70	77	2
39	40	7
97	158	1
56	56	4
123	124	4
92	93	2
135	135	3
154	154	1
97	130	2
48	48	8
114	146	2
145	145	2
131	136	2
18	19	2
89	89	1
7	45	1
83	85	3
55	55	3
19	19	4
123	123	4
152	152	3
101	125	7
157	157	4
82	140	1
71	90	1
120	121	3
108	122	1
36	37	1
140	140	4
21	21	4
139	139	4
116	137	5
66	91	3
144	145	3
141	141	3
111	119	1
70	90	6
131	131	5
5	5	5
57	57	4
28	29	1
98	103	3
150	150	3
156	158	2
79	131	4
25	25	5
147	147	8
83	87	1
66	141	1
13	15	2
110	110	4
117	117	2
8	49	1
134	135	3
20	20	10
111	118	4
69	70	1
32	32	1
40	40	7
90	90	4
11	11	3
17	17	4
13	13	6
146	146	1
124	125	3
28	28	3
96	96	4
95	95	1
139	140	1
13	52	2
148	148	6
102	102	3
133	139	1
4	4	1
158	158	2
99	99	3
37	37	2
6	24	3
80	81	1
22	22	4
113	117	1
10	21	1
106	106	5
130	130	1
109	109	4
78	79	1
142	144	2
132	132	1
116	116	4
84	102	3
30	30	1
47	49	1
67	67	2
135	155	2
46	46	4
122	122	4
149	150	2
10	10	1
15	16	1
8	14	3
23	97	2
62	64	4
77	78	2
15	45	3
9	9	3
35	35	1
23	23	2
29	30	2
31	31	3
151	153	2
132	133	1
118	144	2
2	100	1
92	92	1
128	128	2
73	73	1
126	126	5
47	78	1
133	133	6
26	26	4
94	96	1
98	116	1
117	152	2
94	95	1
112	112	1
79	80	2
0	0	2
29	29	1
69	69	4
1	152	2
86	95	1
66	66	2
14	14	6
84	140	3
85	87	1
92	94	1
113	113	1
103	103	1
79	117	1
42	42	1
15	43	1
54	54	2
1	1	3
108	108	1
83	83	1
155	155	2
6	9	1
118	143	1
11	12	1
125	125	2
156	156	2
46	62	2
116	138	1
124	124	1
76	139	1
80	80	4
65	74	1
135	141	1
153	153	1
71	71	1
66	72	1
100	100	1
87	87	1
48	54	1
1	27	1
13	14	1
88	88	1
65	65	1
149	149	1
71	95	1
91	91	1
0	1	1
68	68	1
16	29	1
12	12	1
84	84	1
43	43	1
17	18	1
140	141	1
86	86	1
2	2	1
13	62	1
41	41	1
50	50	1
