7	7	29
24	26	2
26	26	34
4	4	12
207	208	12
101	101	24
221	221	32
48	48	15
3	58	5
165	166	16
15	15	18
240	240	17
22	23	10
201	201	15
164	164	29
33	49	2
164	165	6
103	103	20
233	235	7
107	108	6
195	195	17
56	82	6
3	7	3
146	146	32
41	42	11
222	222	9
57	59	4
166	166	28
178	178	17
36	157	4
5	6	12
69	69	24
225	228	5
134	134	22
76	76	5
183	240	3
177	177	19
238	239	3
9	30	5
62	64	4
100	100	17
128	185	1
208	208	19
17	18	3
67	68	8
165	165	16
3	39	1
212	212	14
143	147	2
49	49	15
175	176	13
54	54	17
21	22	11
235	236	7
37	37	33
20	61	2
203	204	6
3	54	1
43	43	38
179	189	1
77	81	2
3	3	11
9	9	21
167	167	15
37	53	1
81	81	26
204	205	3
153	154	10
10	10	24
122	125	3
183	187	5
36	36	38
66	66	42
140	140	21
39	41	2
237	238	13
209	209	15
27	27	25
137	138	10
69	212	5
113	113	13
214	214	19
12	12	17
105	105	30
184	184	11
139	141	2
51	51	28
129	129	6
152	152	18
188	188	23
197	197	32
161	161	29
110	218	4
122	123	12
173	173	26
0	80	1
34	34	16
162	162	24
85	86	11
0	1	8
159	161	1
63	63	19
217	218	23
134	135	6
186	186	18
75	75	24
76	77	5
15	16	8
202	202	19
205	205	20
0	84	7
102	102	28
135	148	4
127	127	13
42	42	17
108	109	4
206	230	3
116	116	37
168	168	19
84	85	3
27	40	1
119	119	19
171	171	22
86	86	13
195	196	8
135	136	4
115	165	11
32	177	5
11	33	3
116	134	8
159	159	14
25	25	24
210	210	26
165	167	2
11	11	36
182	182	22
79	108	3
213	213	27
176	177	11
241	241	40
164	178	2
190	191	10
16	16	13
39	39	20
207	207	19
73	73	10
233	233	33
156	160	1
174	174	11
151	154	14
133	133	16
140	141	7
217	217	28
79	79	13
1	3	7
44	44	25
115	117	5
46	46	26
85	85	17
198	198	18
31	31	21
111	111	21
33	33	23
145	145	12
32	32	12
45	45	16
133	134	3
192	192	28
141	141	31
190	190	18
199	199	13
181	183	1
30	30	38
175	177	3
24	25	9
24	162	1
239	239	19
84	108	2
197	198	9
114	114	20
52	52	16
209	210	6
136	136	16
204	209	4
187	187	18
2	3	7
239	241	3
208	212	2
111	172	1
65	128	2
181	182	10
229	229	5
147	147	7
225	225	35
49	50	11
26	65	3
167	168	7
230	231	9
216	216	38
241	242	9
26	122	4
218	218	16
48	49	15
47	65	1
232	232	22
126	126	17
0	0	17
196	196	17
88	89	2
144	145	14
204	204	22
110	111	2
98	98	21
140	204	1
192	206	2
0	13	2
194	195	4
44	45	13
130	130	17
129	130	2
193	194	3
59	60	10
60	82	4
219	219	21
35	157	3
150	150	17
65	66	6
124	126	4
74	74	22
155	159	2
98	102	5
117	206	4
124	124	6
62	63	8
184	185	10
214	215	15
108	130	4
128	128	18
176	176	22
70	71	4
20	20	25
36	84	2
109	109	17
18	18	30
149	181	2
70	70	28
62	62	12
44	101	4
17	58	1
189	190	9
181	181	21
148	148	15
196	197	5
18	19	8
55	81	3
174	178	2
240	241	12
138	157	5
59	59	15
139	160	3
220	220	11
146	184	8
200	202	5
54	74	3
50	50	30
58	60	4
106	106	21
95	95	7
194	194	19
106	109	1
58	58	22
189	189	17
120	120	17
47	47	36
224	224	13
203	203	18
107	107	15
125	125	14
57	57	13
115	144	2
50	53	7
153	153	28
67	67	26
109	131	4
227	228	3
193	193	13
11	20	1
226	226	11
173	174	3
126	127	9
227	227	26
100	129	2
116	123	3
198	199	8
165	169	4
78	80	5
138	138	16
80	80	20
183	183	11
108	134	1
144	146	1
236	238	6
8	8	17
142	143	14
191	191	16
28	32	2
77	78	3
128	132	1
61	85	2
47	48	12
50	51	4
137	152	4
104	142	2
148	149	8
72	73	4
104	104	17
164	167	2
170	170	21
8	29	2
156	156	9
71	71	21
42	63	5
68	68	25
0	15	4
177	178	2
185	185	10
44	46	3
238	238	23
6	7	4
28	28	16
169	169	17
211	212	8
223	223	8
234	234	39
167	185	3
7	36	4
14	16	3
15	29	4
123	123	10
14	14	10
185	236	2
1	1	11
118	202	2
64	65	13
117	117	15
234	235	3
4	5	1
105	141	2
184	186	3
97	97	15
228	229	9
183	185	4
171	174	4
124	125	8
65	65	5
213	231	2
201	202	8
72	77	4
157	157	8
5	7	3
11	28	4
146	157	3
121	122	6
191	192	16
5	5	2
231	231	15
228	228	23
176	179	4
60	60	11
34	208	7
35	35	13
189	191	4
29	219	5
242	242	17
84	84	17
99	99	31
52	53	7
125	126	13
29	31	4
200	200	13
87	87	1
193	196	1
53	53	13
182	183	7
155	155	20
139	139	20
198	210	1
154	154	24
7	17	4
188	192	3
40	42	2
38	38	21
154	155	12
21	59	1
36	212	6
27	28	4
209	216	4
139	140	6
65	85	3
78	78	17
142	164	1
230	230	20
64	73	4
206	208	3
71	72	8
3	88	5
55	55	17
74	75	16
53	55	2
172	172	21
141	142	7
180	180	14
53	54	3
168	169	3
188	189	9
122	129	7
104	105	7
18	20	5
29	30	4
23	23	23
113	222	1
31	46	5
183	186	4
33	51	2
8	34	4
22	22	10
192	194	2
118	118	17
223	224	9
117	164	4
98	99	4
236	236	14
1	55	5
218	234	3
97	101	4
0	20	1
24	37	1
211	211	15
117	133	2
115	115	21
29	45	5
231	232	7
17	17	9
59	68	1
109	152	2
199	200	11
137	137	9
172	173	5
8	9	7
21	21	10
5	59	7
115	116	17
135	210	1
198	206	3
120	121	8
212	216	2
114	128	1
145	146	8
130	131	4
65	68	8
56	57	6
131	134	4
9	86	2
156	162	2
41	160	3
58	59	7
105	196	3
72	72	15
7	12	9
144	144	15
85	110	7
129	131	2
84	109	4
46	49	6
0	83	3
56	88	1
57	58	9
13	211	2
237	237	29
160	160	14
12	24	2
26	39	4
30	31	4
3	36	1
108	108	26
205	228	2
206	207	4
116	117	3
36	119	6
43	101	5
28	30	3
100	101	5
165	168	2
36	131	4
102	110	1
232	233	3
0	33	1
71	74	3
163	163	14
61	61	21
204	226	5
50	153	2
12	13	7
152	155	5
159	160	3
115	199	3
112	112	9
137	139	3
143	144	1
45	46	9
126	200	3
42	43	1
16	241	2
171	172	8
11	12	6
101	114	5
82	82	16
106	107	1
25	214	4
88	88	13
215	216	3
223	234	1
54	55	9
153	159	3
6	6	15
64	200	4
61	63	3
158	158	13
119	120	6
83	83	14
222	223	8
55	56	6
186	187	7
64	64	6
12	14	3
141	170	1
47	50	3
136	152	11
200	223	4
187	191	3
113	144	1
99	100	6
218	235	2
96	109	2
38	120	2
27	65	2
142	142	11
29	29	10
170	171	14
73	75	1
137	160	4
174	175	4
28	70	1
232	235	3
17	148	1
51	52	6
242	243	6
96	96	11
105	106	3
151	151	15
45	73	2
11	34	3
123	124	2
102	108	8
146	183	1
9	29	3
111	114	4
146	147	5
19	19	21
23	24	4
41	63	2
32	219	1
224	225	15
19	20	13
188	191	1
163	197	2
66	67	7
61	62	6
25	64	5
135	149	1
206	228	3
235	235	5
12	59	3
71	119	1
176	178	5
70	75	2
136	137	6
135	135	6
138	139	12
24	24	11
29	220	5
42	44	4
180	184	5
131	131	3
41	156	5
192	198	2
26	29	3
202	207	2
115	225	2
134	138	4
47	106	1
102	137	2
2	2	10
161	171	1
41	41	18
180	182	3
203	205	1
192	205	1
143	143	8
158	160	1
39	40	2
23	60	1
118	119	3
69	70	1
29	44	2
84	150	2
29	146	3
28	39	1
161	164	2
145	147	4
69	192	3
188	190	7
17	65	3
65	203	4
187	188	12
190	231	2
70	116	3
100	137	1
158	159	7
135	147	1
206	206	30
115	233	4
190	192	4
192	208	1
122	122	12
215	215	7
117	193	2
0	14	3
200	201	3
179	179	23
219	220	8
25	26	7
99	105	1
172	174	5
159	162	3
103	109	1
38	121	3
56	56	9
12	57	6
221	222	5
147	149	1
136	148	3
178	179	4
119	132	3
228	230	2
229	236	1
172	181	3
173	178	2
77	79	4
144	187	3
19	56	2
183	184	1
205	230	1
163	185	1
169	171	3
123	125	3
120	181	1
29	46	1
138	161	4
113	238	3
103	105	3
40	40	9
80	81	4
163	165	3
221	223	1
220	236	3
46	85	1
77	77	3
10	11	4
119	186	2
17	60	1
204	208	3
20	59	3
121	121	10
21	23	3
58	200	2
152	153	1
210	211	7
90	90	2
109	130	1
10	73	1
2	57	4
1	23	1
169	198	1
37	231	3
127	199	4
218	219	6
38	161	2
172	217	2
32	33	5
49	140	2
147	158	2
223	230	2
173	175	3
68	102	2
1	2	1
27	179	1
128	129	8
212	214	1
119	135	2
156	168	1
101	102	6
43	44	1
208	209	5
105	124	3
185	186	3
37	38	9
142	165	1
122	130	2
151	155	1
28	68	1
109	110	1
168	187	2
36	100	5
1	22	1
177	189	3
151	152	5
82	84	1
96	119	2
8	15	2
72	221	1
0	30	1
140	142	2
30	102	1
47	64	2
193	199	2
39	203	3
166	167	4
73	76	4
169	170	3
142	211	5
51	53	2
83	85	1
45	176	3
79	80	3
239	240	7
31	108	1
175	175	8
45	171	2
205	206	5
220	235	2
145	148	2
49	52	2
114	181	2
151	210	1
134	145	1
9	11	4
58	202	1
143	148	4
68	195	1
4	15	1
158	169	2
149	149	1
117	151	5
221	232	4
21	215	2
114	145	3
13	13	5
59	61	3
28	177	2
33	34	4
191	216	2
65	84	3
197	208	1
202	203	4
134	153	1
219	239	1
236	237	4
43	176	3
83	84	2
71	75	1
48	153	2
137	190	1
48	175	1
120	133	2
44	241	2
10	27	1
142	213	2
11	30	1
36	216	2
54	75	2
6	14	4
192	193	3
146	154	2
46	177	1
47	237	1
1	4	2
39	188	1
45	241	1
181	185	5
3	4	2
157	158	6
8	31	4
112	201	1
40	161	5
4	7	1
120	132	1
217	219	5
84	152	1
232	234	2
149	152	2
205	226	1
190	221	2
225	227	3
81	83	2
157	159	4
149	150	3
18	75	3
13	14	3
117	118	1
21	60	2
41	159	2
202	228	3
72	75	2
160	171	1
188	213	1
111	112	2
174	239	1
37	39	3
46	95	2
117	125	1
104	127	2
16	17	1
11	32	1
38	45	3
77	98	1
132	132	1
15	58	1
80	84	1
151	153	2
156	158	2
68	69	2
33	47	4
41	43	2
33	153	2
118	200	2
170	192	1
156	157	2
213	214	6
179	180	4
5	8	1
78	95	1
233	234	3
28	66	2
168	186	1
70	76	1
221	237	2
225	230	3
102	104	3
12	58	1
46	47	2
48	50	1
20	38	2
178	181	2
19	23	1
202	231	4
20	22	2
162	164	1
32	36	2
66	205	1
142	144	2
63	64	2
226	227	1
64	85	1
43	73	3
194	206	1
39	122	2
47	85	1
207	214	1
2	13	1
105	142	1
43	45	5
135	140	3
73	74	2
221	226	1
83	140	1
85	113	1
186	213	1
117	139	3
20	82	2
150	159	2
89	124	1
161	162	2
150	151	2
136	208	1
36	41	2
67	203	3
20	21	1
212	213	3
51	157	4
79	91	1
40	157	1
105	108	2
205	229	1
198	205	5
82	83	1
148	151	1
15	24	1
24	43	1
49	51	2
135	224	2
101	153	1
97	121	1
89	89	2
150	160	1
96	175	2
119	136	1
53	82	1
143	185	1
160	161	3
66	129	1
19	82	2
147	148	4
81	90	1
71	73	2
189	211	2
46	67	1
180	183	1
102	106	1
199	236	1
81	95	1
55	57	1
9	39	2
116	118	2
117	144	1
141	143	1
169	183	2
85	88	2
214	231	1
36	231	1
190	193	2
11	49	3
143	146	3
9	237	1
138	164	2
134	144	2
193	205	1
217	232	2
76	79	2
19	21	2
114	115	1
37	230	1
115	146	1
34	35	4
126	165	1
29	32	1
12	47	1
71	78	1
36	215	1
58	237	2
166	221	1
24	62	1
105	195	3
68	85	2
90	95	3
191	222	3
145	161	2
103	108	2
167	169	4
109	170	1
42	64	1
140	163	1
2	81	1
65	69	1
83	154	1
191	193	1
122	167	3
39	42	1
228	231	1
204	227	1
110	110	1
116	124	1
196	230	1
128	131	1
165	179	1
63	201	1
191	202	1
0	41	1
33	46	1
116	226	1
158	162	1
17	239	1
86	109	2
137	157	1
44	239	1
201	232	1
1	56	3
25	179	2
76	84	1
53	57	1
69	84	1
120	183	1
97	100	2
72	185	1
216	217	1
38	39	1
0	79	1
148	152	1
60	61	1
117	224	1
224	226	1
51	54	1
117	138	1
135	215	2
33	208	1
54	81	1
37	120	2
81	82	2
103	104	2
10	202	1
140	202	1
8	11	1
228	235	1
35	83	1
15	31	1
0	12	1
135	161	1
116	137	1
149	158	1
203	227	1
180	188	1
36	40	1
220	232	1
118	148	2
102	129	1
34	131	1
147	150	1
33	36	1
117	135	1
15	239	3
229	230	2
104	153	1
78	81	1
100	136	1
164	183	1
165	184	1
118	154	1
163	168	1
205	209	2
4	88	1
114	116	1
37	201	1
109	137	1
113	179	1
210	212	1
25	122	1
174	179	2
196	199	1
12	56	2
155	156	1
173	181	1
119	169	1
149	202	1
75	120	1
61	152	1
112	206	1
152	171	1
208	215	1
190	230	1
149	153	1
20	23	1
201	231	1
103	154	1
100	118	1
40	41	1
118	168	1
66	202	1
137	171	2
106	127	1
25	209	1
38	97	1
114	122	1
207	232	1
217	237	1
9	219	1
173	177	1
3	165	1
30	46	1
61	83	1
163	166	1
0	42	1
