64	67	8
27	27	7
54	61	6
66	70	2
64	64	7
20	20	11
36	36	11
53	55	9
23	23	11
66	67	19
52	54	11
45	45	16
67	67	12
32	32	8
24	24	13
7	7	10
69	69	8
13	14	2
40	52	4
29	30	5
77	77	7
71	75	5
61	67	4
6	11	5
53	53	16
22	22	3
23	32	4
59	60	8
23	24	4
63	65	2
68	69	10
36	40	6
23	27	2
56	61	1
54	54	15
59	64	5
19	22	7
42	42	8
0	0	10
9	11	3
28	29	4
37	38	1
9	9	3
62	63	11
20	21	1
73	76	1
27	28	8
52	52	3
59	59	8
63	64	13
46	46	3
13	13	18
50	50	18
57	58	5
6	6	7
42	45	3
61	62	4
71	74	2
30	30	13
50	51	8
61	61	5
41	42	6
38	38	11
28	28	3
26	28	7
11	13	2
5	5	4
58	59	6
75	75	8
27	30	1
31	34	3
26	27	6
65	65	5
67	69	4
43	43	11
24	25	12
34	38	5
40	40	7
47	47	4
69	71	5
71	72	7
41	41	6
18	19	6
29	29	9
76	76	6
73	74	2
40	41	2
26	26	11
31	31	9
52	53	3
19	19	5
47	48	6
65	67	9
32	34	4
49	54	3
57	57	17
0	3	2
64	65	4
59	61	6
53	57	2
2	3	8
25	25	6
44	48	1
71	73	5
69	70	1
7	8	8
58	61	6
60	62	2
58	58	8
33	34	4
44	44	6
25	26	2
6	9	2
34	34	9
24	27	4
11	11	11
73	78	2
48	49	10
10	10	9
33	35	1
0	2	5
26	30	4
22	23	2
51	52	1
39	41	4
48	50	3
62	62	7
38	60	3
63	63	5
12	13	2
0	1	4
42	44	9
12	12	3
4	5	7
3	6	2
37	61	7
3	3	6
72	75	2
73	73	9
5	6	6
54	56	4
68	68	10
35	35	5
70	70	3
24	26	1
57	59	1
72	72	5
41	43	5
33	36	1
26	29	5
39	40	6
4	4	2
58	60	1
29	31	4
42	46	1
76	77	3
48	53	2
74	74	7
44	46	1
34	36	1
37	39	1
56	56	4
48	48	6
55	59	1
62	66	2
66	71	1
32	33	8
19	20	5
21	21	11
33	33	9
55	56	3
70	71	3
55	55	6
59	63	1
30	32	1
8	8	2
19	21	4
59	62	2
66	66	3
49	50	6
8	10	1
14	14	4
44	45	6
62	64	2
40	43	4
49	49	3
75	76	4
60	60	5
6	10	1
36	38	3
54	59	1
43	45	2
70	73	3
65	66	5
42	43	2
34	63	4
21	22	3
35	41	2
30	31	5
74	76	1
9	10	2
1	5	1
42	48	1
36	37	3
25	28	4
2	2	2
41	45	1
73	77	1
70	76	2
38	39	2
61	63	2
25	27	1
18	20	3
45	47	3
37	40	1
1	1	1
40	44	1
56	57	1
60	69	1
51	51	2
46	47	2
42	62	1
74	75	4
3	4	2
37	37	2
10	11	1
35	40	2
8	9	1
46	48	2
28	30	1
44	49	1
25	29	1
65	69	1
43	44	1
40	53	3
30	33	1
39	43	1
39	39	1
1	2	1
34	57	1
