12	12	3
90	182	4
108	108	2
184	184	10
89	89	5
131	134	5
41	83	2
177	178	2
178	182	2
185	185	10
1	1	3
130	130	3
7	7	9
90	90	3
68	68	8
63	63	2
74	74	2
61	62	9
8	15	1
55	55	4
114	114	3
160	160	3
13	14	4
154	155	2
88	96	2
157	157	5
133	163	1
169	170	3
62	62	1
83	157	1
45	45	1
25	25	7
180	180	1
89	184	3
87	87	5
2	2	6
131	131	4
148	149	4
67	67	7
158	158	6
99	100	1
146	147	5
129	130	3
20	23	1
12	38	4
39	134	3
100	101	1
150	166	2
45	46	3
35	57	1
135	135	2
8	13	2
120	121	1
59	59	3
150	150	9
5	6	4
129	129	5
101	127	2
125	132	2
142	142	5
95	180	3
78	79	6
53	53	1
56	56	8
8	8	1
96	99	1
140	141	1
22	22	3
5	5	10
40	120	1
91	93	4
133	136	2
43	43	5
70	70	8
106	106	5
11	12	2
145	145	3
30	136	1
117	117	2
190	190	3
99	99	6
47	47	1
175	175	4
104	110	1
15	18	1
34	35	1
110	110	1
54	55	3
170	170	4
132	133	2
93	93	1
55	115	1
84	120	1
127	127	4
73	75	1
53	54	8
57	57	2
186	186	7
48	153	2
187	189	1
82	83	6
40	41	5
73	73	5
108	131	1
166	166	4
0	0	2
181	182	1
54	115	1
66	76	3
55	57	6
40	42	2
183	183	1
101	101	10
159	162	1
147	147	2
64	150	1
179	181	2
84	84	3
86	92	2
159	159	1
0	2	2
39	39	1
6	7	2
23	23	2
113	114	1
46	46	1
8	12	1
4	4	2
6	6	3
13	15	2
16	17	1
78	78	3
19	19	4
76	76	4
98	98	4
152	155	4
79	79	4
35	35	2
17	17	3
86	86	2
142	185	2
5	95	3
91	91	4
17	37	1
159	160	1
165	166	1
58	59	1
81	84	2
148	150	1
18	136	1
77	77	7
41	55	1
30	33	3
125	125	1
116	118	2
26	139	1
118	118	3
123	123	1
155	158	4
171	176	1
58	116	2
41	42	3
95	98	1
89	182	2
97	97	4
58	58	2
104	105	1
174	176	1
145	180	2
154	154	3
60	62	2
149	149	3
3	3	2
139	139	2
114	151	1
33	33	1
122	122	1
182	182	4
151	159	1
142	145	2
82	94	1
27	27	3
20	169	2
71	71	6
24	25	1
41	41	2
19	20	2
124	130	1
185	189	1
107	117	1
163	163	4
28	30	1
173	173	2
29	33	1
84	113	1
170	171	1
24	24	2
101	104	1
143	143	1
112	114	2
188	189	1
141	141	2
18	19	1
31	38	2
155	173	2
6	8	2
110	140	2
1	2	1
90	184	1
4	40	4
14	14	1
120	120	4
105	105	2
112	138	1
98	183	1
87	88	1
169	181	1
26	136	1
25	137	1
3	89	1
167	167	1
175	177	1
37	37	1
169	169	1
75	76	3
112	112	2
65	68	2
44	157	1
72	72	3
121	123	1
171	171	2
47	48	1
26	40	2
42	42	1
143	145	1
127	128	1
40	40	1
131	133	1
136	137	1
96	96	3
83	83	1
87	92	1
76	81	1
36	55	1
174	175	2
104	133	2
67	158	1
75	75	2
115	117	1
136	139	1
97	98	1
26	26	1
30	38	1
60	60	1
17	26	1
168	168	1
40	119	1
112	115	1
140	157	1
152	152	1
79	86	1
