144	144	6
21	22	1
91	112	2
83	84	3
128	128	4
18	19	1
7	13	1
65	65	2
26	27	2
80	89	4
161	162	1
23	24	4
66	66	1
148	148	5
136	136	3
163	163	3
79	79	7
120	123	1
46	64	5
69	69	7
90	90	15
42	42	12
22	22	6
37	37	11
157	157	12
21	21	11
8	8	1
168	169	1
106	107	6
137	137	19
133	133	2
91	92	3
110	122	3
26	86	1
142	142	4
86	87	1
53	53	11
14	14	10
143	145	4
62	62	5
27	27	6
7	7	2
78	79	7
135	135	8
41	41	5
136	137	2
138	138	7
99	99	5
72	139	3
170	170	2
99	141	1
48	67	3
97	97	6
9	12	2
71	71	6
120	120	3
145	145	4
129	129	11
125	125	10
77	94	2
55	56	6
78	148	5
55	55	5
106	106	7
11	11	6
1	1	5
13	13	4
3	3	15
154	155	1
118	118	15
107	107	9
127	127	1
84	84	7
126	126	3
44	45	3
150	150	2
42	43	4
162	162	3
154	154	6
97	99	2
24	86	3
131	131	10
167	167	9
75	146	1
20	20	9
76	96	4
141	141	4
151	151	7
70	72	1
169	170	2
12	13	4
6	6	3
14	16	1
43	43	6
110	110	4
16	16	3
0	147	3
159	160	7
24	25	1
156	156	3
76	76	10
119	119	5
111	150	3
10	10	9
74	97	2
34	34	4
112	150	2
103	103	3
105	105	12
2	2	5
73	73	8
134	154	2
63	83	1
50	50	3
124	125	2
81	81	4
155	157	2
102	137	3
11	20	10
135	136	2
46	46	7
47	48	1
1	44	2
38	38	1
163	165	4
39	40	2
86	86	7
100	100	5
117	117	14
40	40	1
116	116	3
160	167	3
70	74	4
96	96	2
90	111	2
88	88	1
64	82	3
99	100	3
124	124	2
5	6	5
130	166	8
125	133	3
89	90	2
19	19	4
1	2	3
87	88	1
133	134	2
91	91	2
122	122	4
77	148	5
114	114	1
159	161	2
96	145	2
22	23	6
115	122	2
10	11	1
97	98	3
17	41	5
44	44	4
67	68	3
14	15	2
148	149	3
2	64	2
43	90	4
124	136	3
28	28	2
147	148	1
142	144	2
54	54	1
115	127	1
11	13	3
116	117	2
115	115	2
140	140	2
92	115	3
95	96	3
113	113	8
4	4	3
38	41	3
101	104	2
158	159	1
51	51	1
142	145	3
146	146	2
18	18	5
36	36	10
57	57	7
132	154	1
63	63	1
130	130	2
47	49	2
19	25	4
89	91	4
109	122	1
134	135	2
110	111	2
17	18	3
1	45	1
21	170	3
10	12	1
132	133	2
15	15	3
134	134	1
10	20	3
1	66	2
164	164	6
99	144	1
89	89	8
23	23	2
56	57	1
24	24	2
158	160	4
165	166	1
5	5	3
35	35	4
95	95	5
17	17	7
147	147	1
25	26	2
109	110	2
77	77	1
160	161	4
81	83	1
38	44	1
158	158	3
107	108	5
112	129	1
131	166	1
79	148	1
53	54	5
160	160	1
132	153	2
9	9	1
87	87	2
75	76	3
54	55	1
44	82	1
157	158	2
52	52	1
128	129	2
130	131	1
135	155	1
84	87	2
5	7	2
156	157	1
33	33	5
107	118	1
65	66	1
86	162	1
115	116	1
101	101	1
141	142	1
83	83	1
6	13	1
111	111	3
75	75	1
80	80	1
169	169	1
108	108	5
67	67	1
70	70	1
47	64	1
39	39	2
49	55	1
4	19	1
4	5	1
20	21	3
13	14	1
96	117	1
123	124	1
166	166	1
119	120	1
114	150	1
138	143	2
133	154	2
92	92	1
125	136	3
4	17	1
74	74	4
149	149	1
150	151	1
105	106	1
82	82	2
94	94	1
76	120	1
163	164	3
25	25	1
3	41	1
112	112	1
26	83	1
149	150	1
118	119	1
56	56	3
90	91	1
94	114	1
118	144	1
56	66	1
129	160	1
20	170	1
57	147	1
98	99	2
101	144	1
79	147	1
48	48	1
109	109	1
