96	96	5
101	101	12
13	13	14
173	173	14
18	18	9
95	95	4
122	123	1
152	154	1
21	21	7
3	5	2
3	6	7
161	161	6
37	37	10
143	143	11
48	49	2
129	170	4
136	138	1
102	158	2
15	37	2
67	68	2
11	14	1
30	39	4
113	113	3
140	153	3
14	14	11
188	189	3
117	117	4
169	170	2
84	84	5
130	132	1
92	106	3
158	158	7
115	116	3
144	146	7
10	21	2
145	145	10
159	166	3
25	25	5
55	55	3
142	143	3
26	26	3
85	115	4
76	80	2
86	156	1
180	180	4
149	149	6
38	38	4
2	2	5
111	114	6
74	90	11
27	37	2
109	110	1
30	30	9
91	95	4
53	74	2
23	23	10
156	185	2
83	103	1
100	101	3
25	35	2
83	108	5
72	74	1
123	124	1
132	132	2
97	97	2
79	79	4
37	38	1
82	83	1
151	151	9
114	116	1
118	179	2
82	110	1
102	103	3
44	46	4
7	7	3
46	46	4
135	139	3
179	179	5
31	35	2
150	151	2
184	184	1
48	48	1
91	93	3
39	39	6
91	94	4
166	166	4
147	147	4
142	142	5
22	36	1
34	34	2
187	188	3
161	162	1
31	31	1
40	40	5
118	118	4
146	155	2
108	182	2
182	183	2
156	187	1
126	126	3
152	152	2
167	168	4
103	103	3
53	94	1
87	115	7
28	29	4
187	187	6
123	123	3
177	177	3
85	126	4
16	16	5
170	170	4
189	189	2
168	168	5
173	174	1
60	60	2
56	56	3
75	75	1
110	183	1
136	136	1
109	109	4
16	17	3
107	117	1
171	171	3
4	153	3
77	77	8
4	5	1
97	100	5
174	189	4
141	141	4
181	181	7
62	62	1
97	101	4
65	65	4
59	59	4
134	137	2
114	114	5
55	73	2
4	7	1
15	45	2
74	75	2
18	20	3
155	155	2
140	141	3
80	80	2
148	148	1
128	128	3
19	47	2
90	90	4
130	130	2
15	19	1
13	14	4
53	71	3
73	73	3
93	106	2
162	162	4
156	156	5
114	182	2
78	80	2
157	158	1
104	106	1
178	178	2
63	63	3
99	147	1
148	150	6
102	102	2
6	6	2
36	36	5
174	174	2
21	31	4
139	169	2
58	71	1
14	18	2
163	165	1
169	169	2
110	151	2
86	184	3
6	26	1
52	55	2
126	127	4
27	36	4
135	135	4
177	187	3
10	14	1
85	159	1
101	102	4
22	44	1
99	144	3
10	11	6
81	104	1
171	172	1
139	139	2
29	29	3
154	185	2
86	86	1
125	125	2
42	48	3
105	105	1
186	186	1
183	184	1
116	176	2
151	175	1
27	27	5
12	23	1
9	10	2
42	42	3
131	131	4
20	23	4
164	165	2
165	165	2
11	11	1
159	160	1
54	54	2
15	16	2
146	158	1
107	107	2
122	122	2
53	53	4
3	3	4
178	179	2
8	31	1
13	24	5
32	32	1
92	92	2
172	172	1
115	127	2
60	71	1
34	35	2
18	22	1
69	92	1
138	139	2
25	39	2
176	190	1
45	45	1
74	74	1
105	106	1
132	159	2
166	167	1
89	89	1
188	190	3
68	68	1
154	155	2
11	40	6
47	47	7
8	8	1
110	181	3
0	0	3
105	108	3
167	167	2
105	109	1
1	2	2
76	76	3
85	85	2
182	182	1
73	79	1
19	22	1
153	153	1
99	100	1
52	52	3
25	33	1
71	71	2
65	66	4
106	107	1
138	138	5
154	154	2
69	91	2
175	176	1
127	128	2
54	90	2
88	89	1
82	82	2
58	58	2
86	142	1
100	103	2
140	140	4
174	190	1
24	39	2
5	5	1
157	157	4
90	95	1
12	14	1
52	143	2
148	186	1
150	175	2
84	85	2
12	12	2
20	20	1
60	61	1
175	177	1
53	54	3
92	104	2
96	98	2
23	24	1
105	110	1
177	178	3
46	47	1
117	180	1
160	160	1
99	143	1
11	21	1
9	9	1
120	120	1
138	153	2
143	144	2
27	35	1
41	147	1
189	190	2
31	36	2
137	137	2
106	106	1
84	128	1
6	7	1
154	156	2
76	94	1
183	183	1
30	33	1
81	82	1
78	79	1
86	182	1
146	146	1
116	116	1
180	181	1
150	177	1
75	79	1
99	146	1
176	176	1
159	182	1
107	180	1
3	34	1
104	112	1
2	41	1
3	7	1
150	181	1
163	167	2
94	94	1
15	15	1
123	127	1
46	78	1
104	117	1
10	22	1
21	37	1
19	43	1
121	121	1
0	31	1
110	110	2
22	37	1
