74	76	5
103	103	7
100	100	11
110	118	1
102	103	1
7	17	2
25	32	2
18	18	4
4	7	3
98	99	1
115	117	3
116	116	10
116	122	4
28	28	3
86	86	8
101	101	1
17	17	5
11	22	2
9	17	2
29	30	3
6	6	4
17	19	3
82	82	4
5	13	3
112	114	3
23	23	10
28	31	1
105	105	3
15	15	2
107	108	6
25	26	4
74	74	7
5	6	4
8	8	10
92	101	4
34	34	7
29	29	2
16	16	10
4	16	2
14	17	2
127	127	7
75	120	4
94	94	1
71	74	2
102	117	1
86	101	1
75	76	2
138	138	2
96	98	1
126	126	7
99	100	2
111	111	1
83	83	4
97	128	3
3	3	7
77	78	7
81	84	2
23	26	3
25	36	4
103	113	4
104	112	6
12	13	10
110	110	1
134	135	2
120	120	5
112	112	9
19	21	3
78	104	1
1	1	3
109	111	4
132	132	6
26	26	7
101	104	3
72	95	1
11	12	4
33	33	1
113	113	5
99	99	2
83	89	1
17	101	3
98	103	2
81	83	1
105	109	2
4	5	2
82	86	4
123	124	3
71	120	1
75	75	3
112	113	2
97	97	2
74	75	1
8	20	4
12	12	6
76	78	3
96	96	4
20	20	7
13	13	2
124	124	1
104	104	1
119	120	2
32	33	2
128	128	2
89	89	8
81	91	1
14	14	3
78	94	4
127	128	2
118	121	3
91	94	1
83	88	3
132	133	3
135	137	4
22	30	2
21	27	3
87	95	2
97	99	2
122	126	2
10	13	3
83	85	3
85	85	2
73	74	1
108	109	2
16	20	1
73	94	2
134	137	1
20	25	3
113	114	5
122	122	8
103	116	1
86	92	2
36	36	2
127	130	1
87	87	2
93	106	1
92	92	1
95	95	1
33	34	1
0	3	2
37	37	4
22	29	3
3	102	1
118	118	1
117	117	1
25	25	7
27	31	4
102	126	2
109	121	2
85	87	1
80	88	3
107	107	2
76	88	1
14	18	3
131	132	2
72	72	3
0	0	2
106	117	1
136	136	1
11	25	1
85	92	1
5	5	3
18	20	1
21	22	3
122	123	1
121	123	1
21	25	1
9	10	2
80	86	2
5	8	2
21	32	2
75	86	1
26	34	1
0	15	2
80	80	3
88	95	3
86	88	1
111	122	1
104	106	1
99	113	1
21	21	1
7	7	2
98	128	1
87	101	4
16	17	4
82	87	1
111	112	3
78	107	1
114	116	2
0	1	1
21	29	1
7	8	4
35	35	1
27	27	5
18	19	2
120	122	1
88	94	2
35	36	2
5	14	2
1	2	1
79	79	4
102	105	1
72	75	3
19	19	2
0	2	1
17	27	2
78	79	1
4	9	1
137	138	1
134	134	3
74	77	1
93	100	2
26	27	2
103	111	1
98	100	3
115	119	1
121	122	2
109	115	1
119	119	2
91	91	2
111	116	1
102	115	2
98	98	1
19	33	4
85	88	1
125	125	2
27	28	1
32	32	2
20	21	2
106	106	3
3	17	2
108	108	1
75	77	1
23	31	2
114	119	1
4	4	1
73	78	1
24	25	1
123	123	1
131	133	2
137	137	2
129	129	1
136	137	1
5	18	1
37	38	1
19	22	1
24	24	1
78	84	1
1	4	2
71	71	1
126	129	1
18	32	1
71	96	1
19	27	1
84	90	1
105	106	1
73	73	1
84	85	2
82	85	1
7	11	1
109	109	1
38	38	1
126	128	1
82	94	1
