35	36	2
157	157	5
156	157	3
102	103	2
53	55	3
83	106	1
19	19	3
1	139	1
129	129	3
58	61	3
38	38	3
125	125	5
30	30	6
168	168	1
96	96	3
162	163	5
100	100	1
188	188	4
55	55	4
123	151	3
104	104	10
21	21	3
44	44	1
158	180	3
53	54	8
33	34	1
58	58	3
170	170	4
121	122	4
166	167	6
29	30	4
54	106	2
7	7	2
77	77	1
76	80	3
34	34	2
171	171	5
149	186	2
114	114	2
83	105	2
53	53	5
65	65	4
85	85	4
109	110	9
78	78	3
101	102	2
97	163	5
10	10	6
23	23	2
84	152	2
80	80	3
27	27	2
142	143	2
109	109	6
159	159	5
39	39	1
144	144	2
164	164	4
108	108	9
32	32	7
82	106	2
67	70	3
123	123	2
108	109	1
101	101	4
139	139	4
111	112	5
71	75	2
63	133	1
127	127	2
187	187	3
116	116	4
178	178	3
120	150	4
63	131	1
117	175	4
93	129	1
140	141	1
114	115	4
4	29	1
174	175	1
156	156	5
118	118	3
135	138	2
66	68	1
13	64	7
103	103	4
91	91	4
190	190	2
135	136	1
141	142	2
58	64	5
159	178	4
103	104	2
22	30	4
110	111	3
134	137	1
166	166	3
95	98	3
61	62	2
33	33	2
107	108	1
63	63	3
71	71	3
81	82	2
130	131	3
122	122	1
76	77	3
11	11	1
45	74	5
15	15	2
17	17	4
54	55	5
86	86	2
180	180	1
154	154	2
162	162	1
11	14	2
24	24	6
149	149	2
112	160	2
101	135	3
91	129	1
34	143	1
148	162	1
182	182	2
113	113	1
187	188	1
141	141	2
85	125	1
87	88	3
172	172	3
78	79	1
66	66	1
23	37	2
128	129	4
37	37	1
132	132	1
110	113	1
138	138	2
110	110	2
145	145	2
29	29	4
45	73	1
11	12	2
30	37	1
19	42	3
22	24	1
142	142	1
152	152	1
47	47	4
15	48	2
126	128	2
169	169	2
41	41	2
140	140	1
168	170	2
56	56	6
99	99	2
97	97	2
167	167	2
171	172	3
1	2	1
57	60	1
79	79	1
75	77	2
135	135	1
105	105	1
74	74	1
5	5	3
181	182	1
2	3	2
16	16	1
115	115	1
13	63	2
3	138	1
158	159	1
102	102	1
158	158	1
180	181	1
155	155	1
64	64	1
77	81	2
118	177	3
156	178	1
2	2	1
73	73	1
36	134	1
14	14	2
60	61	1
79	107	1
179	179	2
187	189	1
120	176	1
147	148	1
55	56	1
2	139	1
114	150	1
90	129	2
119	120	1
184	184	1
42	44	1
184	185	1
81	81	2
116	181	1
56	57	1
2	169	1
47	48	1
109	153	1
95	95	2
87	87	1
13	14	1
134	134	1
112	112	1
84	154	1
145	146	1
