150	150	8
28	28	16
155	155	14
81	81	9
192	193	4
189	190	4
56	57	15
59	59	14
219	219	11
55	114	2
166	166	3
28	31	6
172	175	2
120	121	1
26	27	9
21	23	3
175	175	3
10	10	10
105	109	1
65	67	4
118	118	9
77	77	14
45	45	24
145	147	4
235	235	7
25	26	5
39	74	9
190	190	7
64	64	6
82	85	1
48	48	6
89	235	2
65	66	5
88	88	16
153	154	10
159	159	15
89	89	7
6	6	22
33	33	12
186	187	9
112	112	6
36	36	10
225	225	4
107	107	7
207	210	1
228	228	7
56	56	9
75	76	8
93	93	8
116	185	4
193	198	1
89	95	3
29	29	18
50	50	5
210	228	4
61	62	3
79	80	6
207	208	3
96	96	2
151	151	15
239	239	5
35	74	1
165	165	16
195	196	4
59	63	2
85	117	3
201	201	12
247	247	13
197	198	7
159	162	2
241	243	2
109	109	15
145	145	15
21	22	1
227	230	6
238	238	11
211	213	4
167	168	6
221	222	4
52	119	3
35	35	15
218	218	11
181	182	10
45	190	2
15	15	20
230	230	8
4	5	6
30	73	3
66	66	9
220	220	7
174	174	8
154	163	2
172	177	2
92	94	3
192	195	2
39	39	13
232	232	10
111	112	2
102	105	1
182	182	8
70	73	3
103	105	1
170	171	1
246	246	6
197	200	1
38	38	15
231	231	10
110	202	1
210	220	5
46	88	1
53	53	12
108	108	4
104	190	1
211	211	11
209	209	16
231	233	5
176	176	8
199	224	3
204	204	14
243	243	3
102	104	5
76	98	3
72	72	4
46	46	11
193	193	11
173	173	12
36	40	4
30	30	11
74	167	4
177	177	4
212	212	7
210	210	6
14	14	11
188	190	3
116	116	11
14	15	3
185	185	6
173	225	1
177	178	6
59	75	4
232	234	1
160	160	12
61	61	10
66	67	2
191	191	15
155	176	2
238	245	3
71	75	4
197	203	5
58	58	5
89	90	6
169	169	12
177	221	2
155	161	3
201	204	1
82	86	4
152	152	13
189	189	8
95	95	14
181	191	4
18	18	10
156	156	21
208	212	1
15	34	5
59	62	4
199	199	18
163	163	2
153	153	14
241	241	12
110	110	22
171	184	3
105	105	5
203	204	2
213	217	1
86	96	2
236	240	3
170	170	10
164	171	4
10	39	1
63	63	11
3	24	3
11	11	7
22	22	6
11	14	2
229	230	5
73	166	3
12	16	2
240	241	6
53	58	1
76	78	8
103	113	3
202	202	16
188	189	3
172	178	6
100	100	19
166	215	2
166	167	9
227	227	11
76	77	3
54	54	7
40	40	16
23	23	16
173	174	6
103	103	5
192	192	10
27	27	12
66	68	3
196	241	1
215	215	8
11	12	10
204	205	4
214	218	4
172	197	2
166	181	6
163	169	6
235	236	2
194	195	2
20	37	3
20	20	7
32	32	18
221	221	5
101	103	7
89	92	3
75	75	5
48	49	6
238	241	1
59	60	4
65	65	8
26	26	12
189	196	1
2	22	1
80	80	10
9	9	13
247	249	6
19	19	11
178	178	8
165	166	3
146	147	3
203	203	12
87	88	12
70	75	2
34	36	2
55	55	7
61	81	4
28	109	1
207	207	5
91	92	4
160	161	4
169	170	3
113	113	9
241	242	9
227	228	7
114	114	10
186	186	23
209	232	2
60	60	4
202	203	15
67	67	13
71	71	21
14	16	2
118	119	5
119	119	4
40	160	1
213	219	1
62	95	3
12	12	12
58	64	3
59	64	3
242	243	3
243	244	3
144	231	1
59	66	5
20	21	4
85	86	2
213	216	2
179	179	11
234	235	1
104	104	3
57	57	4
67	68	7
21	21	16
182	184	3
186	188	5
226	226	8
217	217	6
5	5	9
54	200	3
166	170	5
232	233	5
91	91	2
10	11	8
176	178	2
68	68	12
13	15	3
151	235	1
74	78	1
222	222	5
248	248	13
3	4	2
161	165	1
195	198	3
37	37	15
162	167	4
16	16	9
205	205	11
228	245	3
188	193	2
157	158	4
172	172	9
229	231	5
30	71	1
82	82	11
108	109	2
111	152	2
196	196	9
213	213	9
111	113	2
4	102	3
236	236	8
169	174	1
172	173	4
236	237	4
6	11	1
56	58	4
44	44	9
74	170	1
166	169	5
222	247	2
19	21	4
52	54	5
5	106	4
91	94	3
38	39	4
53	62	1
79	81	4
58	237	6
70	72	5
43	43	4
214	214	13
7	18	2
3	3	3
51	51	1
222	228	2
94	94	11
154	171	4
54	192	3
218	232	1
0	42	1
213	214	2
101	104	1
14	231	1
193	197	1
41	41	8
1	231	2
161	161	7
100	101	2
61	66	2
101	101	3
194	218	2
46	62	3
167	169	1
163	165	2
115	115	4
39	108	2
90	90	8
158	165	1
201	202	1
57	109	2
80	85	3
54	57	3
192	218	4
51	228	2
101	102	5
115	117	4
202	204	3
150	153	2
216	218	2
46	49	1
40	41	5
111	111	4
219	231	2
234	234	7
213	221	4
1	1	14
212	220	2
176	177	3
89	116	4
107	109	2
150	151	2
156	157	6
14	118	4
27	28	5
44	200	1
95	96	4
208	208	20
160	164	1
162	162	2
47	47	10
15	224	1
56	111	4
223	227	2
94	95	3
42	42	10
168	169	7
42	229	2
173	177	3
230	231	3
41	153	2
216	217	7
181	189	1
70	70	13
197	204	1
167	167	6
180	180	1
56	59	1
195	195	9
83	225	1
67	107	3
164	164	8
34	34	6
210	222	2
177	195	2
156	199	2
156	161	1
201	203	3
67	118	2
175	176	4
25	25	5
41	44	6
180	181	4
67	70	3
6	224	1
42	187	4
100	103	2
144	147	1
185	193	2
64	65	2
171	171	2
55	234	1
157	161	1
183	183	14
88	89	1
20	94	1
64	77	1
30	31	2
29	30	8
224	224	5
58	110	6
58	108	1
108	159	4
196	215	2
155	156	1
222	225	4
90	229	3
84	84	1
214	217	1
242	242	4
221	223	2
177	181	5
245	245	8
29	32	2
200	203	4
218	225	5
9	10	1
175	177	2
99	99	11
223	224	3
157	177	1
197	197	3
184	184	6
12	111	1
35	36	1
29	109	1
185	186	6
12	15	1
198	230	4
179	197	2
105	106	2
21	24	3
51	59	6
4	30	2
163	174	3
193	196	3
80	81	4
188	191	4
1	11	2
200	200	6
62	101	4
199	200	3
108	116	1
94	97	2
116	119	7
29	102	3
44	69	2
76	76	8
157	157	4
52	52	12
234	242	2
44	45	5
205	208	1
97	97	4
71	82	1
94	99	1
183	185	2
109	110	2
154	183	2
69	69	1
178	197	1
74	75	3
8	8	4
78	85	5
184	186	4
49	49	7
244	244	4
79	84	2
214	225	2
57	65	2
61	99	2
244	245	1
61	95	1
176	219	1
24	25	2
230	239	1
45	191	2
45	46	3
19	20	5
237	237	6
176	186	3
51	84	6
158	158	1
192	196	1
145	149	3
37	151	4
22	24	7
83	84	2
231	232	3
31	33	2
182	187	1
68	72	2
245	246	3
86	160	2
1	93	1
71	174	5
160	165	2
61	100	3
157	159	2
89	91	6
47	119	1
86	86	3
177	184	1
187	187	4
7	7	3
218	219	3
230	233	1
4	4	2
223	223	11
90	118	2
216	216	5
73	74	6
14	119	1
43	189	2
3	17	3
195	205	1
72	74	5
56	152	1
113	115	2
156	160	2
3	32	2
150	235	3
6	7	4
60	62	2
226	227	3
8	15	3
194	197	2
92	93	3
85	224	2
182	183	3
154	154	4
76	79	3
168	174	1
30	32	2
181	181	2
62	97	3
168	168	2
98	98	6
36	39	2
65	82	3
206	208	1
41	42	5
167	170	3
193	233	1
208	215	2
158	164	1
198	200	1
79	88	3
159	222	1
71	73	3
146	146	2
29	101	2
70	74	2
105	211	1
192	198	1
4	18	2
100	164	2
76	81	2
0	1	4
59	107	1
183	186	1
229	229	4
60	61	6
165	191	2
44	47	1
105	107	2
198	198	3
201	205	1
225	226	3
193	194	1
51	52	2
70	71	1
107	110	1
73	167	1
184	185	2
160	180	2
230	232	1
79	79	6
177	191	1
97	98	4
28	30	1
0	2	2
206	207	5
183	190	1
241	245	1
178	190	1
218	220	3
1	4	1
233	234	3
87	90	1
58	59	2
50	51	1
17	18	3
90	91	2
43	44	5
217	221	1
110	120	2
183	184	4
18	19	2
23	24	1
158	166	2
7	34	3
52	99	1
26	34	2
191	193	3
249	249	2
71	80	3
17	19	2
17	17	1
83	83	5
73	73	2
234	245	2
37	38	1
112	113	1
223	226	1
85	85	6
210	214	1
225	227	2
9	212	1
87	87	2
228	229	1
39	40	1
161	163	2
175	178	1
65	194	1
147	147	2
168	170	3
46	89	2
113	182	1
31	31	8
117	119	4
56	207	2
87	89	2
1	3	1
69	70	3
30	67	1
17	75	3
228	244	2
62	62	3
172	176	2
10	16	2
63	65	2
158	174	5
208	209	3
103	104	1
200	202	4
5	105	1
100	210	1
17	21	2
163	166	2
198	199	2
209	218	1
244	246	1
34	110	3
219	221	2
182	248	1
177	208	2
34	43	1
31	32	1
98	99	6
152	232	1
61	63	2
51	65	1
18	21	3
214	220	4
153	171	1
152	228	1
195	204	3
106	191	1
154	155	3
113	211	2
16	113	2
145	153	1
153	235	2
1	5	1
57	63	1
117	118	3
45	49	1
9	11	2
86	89	1
229	233	1
12	13	1
190	192	1
24	24	5
52	218	1
57	58	3
85	144	1
119	120	2
238	239	1
75	77	1
33	34	1
215	216	1
215	218	1
225	230	3
38	45	1
78	78	5
37	204	2
224	225	1
187	189	1
7	107	2
96	111	1
199	201	4
49	51	1
176	194	1
206	206	2
7	112	1
77	78	2
94	112	3
181	186	2
52	53	9
57	114	1
34	35	2
92	118	1
64	92	2
15	19	1
48	193	1
60	112	2
26	52	2
240	240	2
104	112	2
51	56	1
88	90	1
47	87	3
162	165	3
86	87	2
46	47	1
151	167	2
187	188	4
45	213	1
178	179	1
10	12	1
101	107	1
96	97	1
181	198	1
30	75	2
102	103	1
109	145	1
85	102	1
235	238	1
96	98	1
159	160	3
37	39	1
157	200	1
8	12	1
149	150	1
84	85	2
50	80	1
5	7	3
177	213	1
3	11	2
11	150	3
61	97	1
28	103	1
83	85	1
212	214	2
214	226	2
13	14	1
167	171	2
179	180	2
77	81	2
5	115	2
146	153	1
68	70	2
171	190	1
117	117	3
10	167	3
114	116	2
236	238	2
14	21	1
157	191	1
198	201	2
238	247	1
242	246	1
116	145	1
190	191	2
55	115	2
208	234	1
191	192	1
212	213	1
47	76	1
90	104	2
180	185	1
187	211	1
172	174	1
16	20	1
190	194	1
153	156	2
74	74	4
226	229	1
215	221	2
28	29	1
11	231	1
22	40	1
90	119	1
170	188	1
70	77	2
233	240	1
152	214	3
33	73	1
63	67	1
221	248	1
40	100	1
157	165	1
245	248	1
154	170	2
106	106	2
218	231	2
47	94	2
32	39	1
211	212	2
191	218	1
16	17	2
52	56	1
200	224	2
152	153	1
61	85	1
8	9	1
22	23	1
189	191	1
214	229	2
209	210	1
177	197	1
21	226	3
172	184	1
1	26	1
154	184	1
159	161	1
98	104	1
32	34	1
53	55	1
93	94	1
5	6	2
96	99	1
186	244	1
72	73	2
1	21	1
45	103	1
171	197	1
114	118	1
6	18	1
43	54	1
108	118	1
205	206	1
3	5	1
154	169	1
156	163	1
222	224	2
39	41	1
34	38	1
205	230	1
107	159	1
55	57	1
197	230	1
29	33	1
178	193	1
177	182	1
111	184	1
24	26	1
108	117	1
49	50	1
49	209	1
155	158	1
228	230	1
121	121	1
170	173	1
33	44	1
182	185	1
102	102	2
3	29	1
175	225	1
169	171	1
227	244	1
237	238	1
218	221	1
5	29	1
220	223	1
37	43	1
193	219	1
230	234	1
246	247	1
58	61	1
