131	131	11
116	116	5
11	12	14
116	120	6
135	136	3
104	104	17
106	106	4
96	96	14
75	75	9
137	137	9
25	25	10
139	139	15
138	138	21
99	100	10
110	110	6
87	87	14
102	102	2
147	147	12
85	85	3
43	43	7
8	8	4
79	79	5
93	94	2
2	150	1
125	125	16
71	78	2
103	106	2
129	130	5
28	28	18
130	131	1
69	70	6
50	51	1
42	43	2
8	48	2
124	124	16
27	28	5
32	32	8
104	105	3
111	112	2
143	147	2
26	26	8
6	6	10
33	33	4
22	22	11
17	17	4
18	18	11
107	132	4
152	154	1
23	24	9
41	108	4
38	104	2
42	42	12
123	123	12
126	127	2
16	16	24
130	139	8
88	88	12
100	100	7
51	51	7
15	15	9
128	128	7
119	120	3
116	117	6
27	27	11
22	23	4
11	11	7
30	30	6
129	129	9
37	46	5
40	69	3
35	103	3
84	84	10
134	135	2
82	82	6
117	117	7
46	46	17
97	97	4
88	97	2
140	141	4
151	151	5
52	80	2
68	68	9
38	52	4
142	142	8
20	24	3
77	103	3
77	116	1
78	78	6
10	10	7
123	140	3
36	37	4
30	48	5
50	50	2
121	122	5
158	158	7
4	4	7
80	80	13
148	148	14
66	156	1
72	72	5
122	122	7
127	127	13
52	54	3
5	5	3
149	149	4
127	129	2
103	104	2
83	83	6
122	123	5
10	11	4
111	122	3
107	107	7
107	120	2
69	69	10
130	140	3
30	133	2
28	29	2
12	12	14
127	128	2
120	121	6
71	71	3
15	17	7
69	103	2
31	31	10
52	52	5
13	14	2
17	18	5
113	113	9
90	91	1
50	73	2
1	2	8
91	91	11
98	98	18
11	55	4
0	0	7
70	70	11
123	124	6
67	70	1
66	66	6
113	114	3
92	92	3
12	13	3
4	47	1
55	55	8
81	81	22
14	14	4
83	102	1
111	116	2
143	146	2
104	106	7
83	84	2
108	109	8
114	115	3
133	133	9
73	75	5
91	94	6
155	155	14
8	54	2
38	38	10
32	78	1
8	52	3
106	134	2
74	74	2
44	45	3
44	44	11
143	144	2
20	20	4
76	77	2
121	121	4
48	48	5
39	133	6
3	3	2
65	75	1
119	119	2
94	94	19
150	150	6
7	8	7
84	136	5
131	133	15
103	103	18
33	79	3
106	107	6
134	134	14
98	103	1
131	137	2
144	146	8
106	117	2
2	152	2
24	24	6
29	65	1
46	47	4
93	93	2
65	65	9
27	29	3
2	2	6
80	81	3
32	49	1
50	52	2
139	140	2
105	105	3
134	138	2
25	76	1
108	110	2
107	108	8
132	132	9
136	137	3
143	143	2
34	61	1
13	13	3
8	9	4
78	80	5
1	55	1
89	148	3
142	145	2
30	38	1
67	67	5
66	153	1
33	77	5
7	7	11
64	64	2
30	50	3
64	71	3
105	122	2
52	55	2
136	136	2
23	26	1
38	50	1
110	111	5
45	101	1
31	39	2
36	36	1
20	21	6
73	76	4
90	90	4
112	112	1
141	141	8
79	80	2
35	35	7
28	75	1
82	83	3
21	21	11
84	115	3
19	19	4
115	120	3
111	111	9
132	133	3
23	23	5
51	52	2
118	118	9
133	141	1
135	135	6
84	88	1
16	17	1
2	3	4
68	69	3
32	37	2
63	63	1
108	108	1
56	56	3
31	45	1
75	101	2
53	53	5
105	106	6
41	110	5
128	129	2
11	82	2
89	89	12
101	101	10
126	126	6
48	49	3
155	157	1
64	66	2
40	40	9
114	114	13
47	48	3
39	39	4
1	1	4
70	71	3
10	17	1
118	119	3
73	73	8
147	149	2
39	73	2
156	157	2
25	26	1
64	156	2
38	39	4
90	93	1
75	76	1
29	29	6
77	78	2
52	81	2
49	49	3
140	140	5
116	121	2
65	66	4
21	23	2
48	122	2
142	143	1
18	22	2
28	30	4
115	115	3
137	138	4
77	102	3
97	98	2
30	103	2
18	19	1
54	55	2
89	95	3
145	145	3
37	53	2
47	47	4
93	145	1
41	42	2
11	77	7
151	152	1
34	67	2
79	82	2
107	116	4
86	142	1
107	111	2
9	9	4
7	45	3
152	152	7
88	89	2
120	136	2
120	120	7
56	57	1
87	88	7
84	142	3
41	41	4
6	44	1
2	42	1
54	54	3
107	109	1
102	103	1
87	144	3
6	7	3
36	103	1
85	86	2
150	154	1
83	132	2
76	76	2
48	149	1
51	132	3
89	91	1
2	151	1
81	82	5
94	95	2
4	158	2
31	32	1
132	136	5
129	140	1
108	111	2
37	37	3
14	17	4
77	77	2
30	76	2
42	44	1
84	89	2
39	72	1
115	119	1
94	144	3
32	33	2
57	57	1
39	103	2
89	92	1
97	148	1
95	96	1
48	121	2
3	71	1
117	137	2
5	6	1
78	79	1
28	103	1
27	30	3
35	38	1
99	99	4
48	50	5
157	157	6
95	95	1
84	85	4
155	156	1
67	71	1
15	16	2
104	130	1
63	71	1
13	80	1
36	51	1
86	86	3
12	17	1
156	156	4
86	101	2
81	137	2
144	144	2
77	119	3
18	25	1
72	155	2
131	132	5
114	120	1
43	44	1
24	25	2
32	79	2
67	69	3
36	49	2
142	146	1
106	120	2
81	106	1
100	101	2
36	50	1
39	40	1
39	105	2
36	104	1
78	81	1
133	134	1
115	118	3
4	40	1
67	68	1
34	35	1
63	64	1
125	126	2
148	149	1
130	138	1
107	110	1
42	155	1
98	99	1
144	145	1
150	151	1
36	83	1
86	94	2
72	99	1
14	18	1
127	130	1
0	3	2
0	63	2
106	137	1
37	51	2
82	90	2
157	158	2
95	99	1
45	45	1
4	5	1
143	145	1
14	82	1
37	50	1
44	129	1
16	24	1
143	148	1
122	124	1
50	146	1
44	114	1
40	68	1
3	5	1
121	124	1
26	27	1
24	27	1
77	79	1
123	127	1
152	155	1
122	127	1
33	34	1
51	83	1
94	141	1
40	73	1
132	142	1
130	130	1
7	46	1
