25	25	16
51	51	19
9	9	8
117	117	8
40	40	6
66	66	9
99	100	1
29	29	15
24	25	8
46	46	15
27	27	21
104	104	10
106	126	2
17	18	10
39	39	16
4	12	4
53	53	27
8	44	2
66	67	4
139	144	3
69	152	2
132	132	30
118	118	15
115	116	4
34	36	3
145	145	14
110	111	1
98	98	14
114	114	21
76	79	2
134	134	14
144	146	4
44	117	3
81	82	5
135	135	17
27	29	4
63	65	5
115	120	3
85	117	2
115	122	2
107	107	16
122	122	26
41	42	5
97	97	19
79	79	9
16	16	15
47	47	31
13	15	5
12	12	15
113	113	32
110	110	19
105	117	3
31	31	13
133	133	15
48	48	19
34	35	5
147	147	15
28	46	3
96	96	16
37	38	12
148	149	1
117	122	3
63	78	8
123	123	14
86	115	3
30	30	5
100	100	7
39	40	11
149	154	7
7	7	13
49	50	3
143	144	6
129	130	9
101	102	8
41	128	3
39	43	2
5	5	3
74	74	9
119	119	5
96	99	2
153	153	3
27	28	8
71	71	16
18	19	5
87	111	4
111	111	21
112	113	5
44	86	2
137	137	15
31	32	5
148	148	5
121	121	6
15	15	10
6	14	3
20	22	1
68	68	5
13	48	4
143	143	4
78	78	14
149	150	16
43	43	8
48	49	2
99	99	20
129	129	7
105	105	16
70	109	3
44	44	10
75	76	5
22	23	9
3	4	4
94	94	17
86	113	6
35	67	4
82	142	5
36	36	8
69	69	9
131	131	22
13	13	8
26	26	6
3	3	12
26	29	4
24	24	14
150	150	13
130	130	13
84	87	1
42	44	4
17	17	13
35	36	1
67	67	6
54	55	1
141	141	19
113	114	7
11	11	9
109	111	4
27	49	2
72	72	12
22	24	8
94	95	10
122	124	1
94	98	6
84	113	2
84	84	18
102	102	12
139	141	5
122	123	9
37	41	1
84	85	16
22	29	3
66	73	1
147	148	10
100	107	2
126	128	5
127	127	4
10	11	2
38	41	9
83	83	8
45	46	5
23	26	3
80	80	8
55	55	8
103	103	7
118	129	2
45	45	14
69	77	4
24	50	1
106	107	3
137	138	3
88	92	5
64	64	11
65	73	2
136	137	11
98	99	15
139	139	15
32	32	10
73	73	17
10	10	6
39	48	1
126	129	1
130	132	1
108	109	7
80	94	1
33	34	8
145	146	3
121	122	5
99	104	1
35	52	2
85	87	3
85	85	11
124	124	9
20	20	17
62	63	8
108	108	9
19	19	13
109	109	23
20	125	4
84	86	6
97	98	13
81	81	6
68	69	5
27	50	9
38	38	8
150	151	2
136	136	17
112	112	12
116	116	13
100	102	2
67	72	2
142	142	9
66	144	5
63	63	10
3	14	1
5	14	2
76	94	5
72	81	2
93	93	6
144	144	9
9	13	2
101	101	10
8	8	17
47	48	8
56	56	12
120	120	8
33	131	3
67	69	2
57	58	2
70	70	8
74	86	1
52	54	3
85	86	15
138	139	2
86	93	7
50	57	2
64	151	1
3	26	2
25	26	7
96	97	2
152	152	10
38	42	2
14	28	1
130	131	6
80	81	2
49	104	4
56	57	4
12	13	7
39	131	3
43	46	5
151	151	13
128	129	6
29	30	4
95	96	9
37	37	3
109	110	3
149	149	7
70	83	3
35	35	9
20	21	3
83	84	2
36	131	2
65	145	4
133	135	2
82	82	5
99	123	1
30	31	1
75	75	9
23	23	11
52	52	7
152	153	6
57	57	2
74	75	1
42	128	4
54	134	2
38	50	1
79	89	1
22	22	6
123	124	4
135	136	3
146	148	6
8	26	2
69	70	5
86	86	8
49	49	7
68	152	1
125	125	2
43	45	4
82	93	2
80	111	2
22	26	6
50	50	13
138	138	14
42	118	1
82	118	7
28	30	5
62	64	2
42	43	1
106	106	6
15	16	4
124	130	1
73	74	7
31	91	1
88	90	5
99	122	1
146	146	5
90	92	2
118	140	3
146	149	2
62	62	5
95	95	5
28	29	4
42	42	5
63	104	3
77	77	7
128	128	10
67	151	2
84	116	1
136	143	1
4	4	5
107	108	5
33	35	6
16	17	4
29	149	2
33	94	1
41	41	18
14	14	5
13	14	4
154	154	5
53	54	1
35	51	1
19	24	1
65	65	2
62	78	1
4	6	4
18	18	6
5	8	2
2	3	2
76	78	2
100	112	1
35	37	1
33	33	3
141	150	1
52	55	2
12	14	2
147	149	2
144	145	6
105	107	2
21	53	3
17	20	2
71	125	1
118	133	1
103	104	2
54	54	4
75	77	1
65	99	2
9	10	7
89	92	2
7	8	1
92	92	3
67	68	5
102	103	4
68	153	1
54	57	4
70	74	2
125	127	1
19	20	1
140	141	4
29	46	2
115	121	5
66	72	1
58	93	2
31	139	4
69	147	5
22	54	1
6	8	1
46	84	3
6	6	7
64	105	1
16	21	1
110	121	3
124	125	5
134	135	2
32	36	2
142	143	2
45	55	2
112	114	3
101	110	2
34	34	1
126	126	3
39	41	1
50	51	1
137	143	3
127	140	2
112	139	1
39	44	4
138	143	2
58	58	1
75	79	3
33	138	3
151	152	2
125	144	2
8	35	2
44	50	1
79	93	1
111	112	2
74	93	1
152	154	4
111	142	1
145	150	2
133	134	1
62	87	4
87	87	1
151	154	1
146	147	2
63	73	5
28	28	3
110	129	2
83	92	1
4	5	1
90	90	1
36	136	4
75	81	2
102	104	4
139	150	1
132	133	1
37	129	1
119	130	1
62	69	1
104	105	1
34	131	1
77	98	1
123	125	1
48	54	1
78	94	1
140	140	5
43	116	1
144	151	2
15	19	3
52	53	1
109	116	1
36	37	1
19	21	1
42	50	1
76	77	2
44	46	1
135	139	1
65	66	2
36	130	1
128	130	1
78	96	1
71	116	1
93	97	1
112	120	1
8	58	1
7	11	1
89	90	1
41	43	1
148	150	1
82	120	1
120	122	1
101	108	1
30	149	2
21	22	1
127	142	1
5	57	1
112	115	1
35	131	1
126	143	1
33	88	1
136	138	1
73	98	1
77	79	1
16	20	2
146	151	1
100	114	1
49	51	1
11	12	1
131	132	1
32	37	1
37	128	1
119	120	2
100	101	1
102	107	1
