26	28	2
23	24	9
30	30	17
35	37	10
41	73	5
11	11	6
18	18	6
3	3	13
22	24	1
51	51	7
43	44	3
66	66	20
6	10	3
43	43	14
25	25	8
21	21	23
10	10	7
14	73	2
29	56	2
63	63	14
73	74	2
59	59	8
50	52	3
24	24	6
64	64	16
8	8	11
1	1	6
29	35	1
46	46	21
22	22	14
55	55	14
59	60	6
38	39	8
45	45	5
34	54	3
37	37	11
37	38	15
27	28	5
33	43	6
36	37	3
42	73	4
8	9	3
7	7	20
35	36	4
71	71	15
72	72	13
71	72	4
13	43	4
31	32	3
61	63	1
47	47	20
42	42	26
2	61	4
10	11	2
28	29	6
48	77	5
22	23	6
75	76	4
41	72	3
62	64	7
30	75	8
4	4	10
13	13	10
41	41	4
25	26	7
33	76	2
27	40	4
57	57	12
55	59	6
32	33	5
34	55	1
5	6	3
38	38	8
39	39	13
58	58	14
6	7	3
45	48	2
69	69	8
28	57	1
28	28	11
27	27	16
37	69	5
13	72	5
54	55	2
62	63	3
68	68	12
66	67	5
35	35	5
65	66	6
55	56	6
50	50	6
23	76	6
56	56	24
13	14	3
30	46	1
31	31	16
0	28	2
25	28	5
49	49	8
0	0	8
53	53	5
74	74	11
41	42	5
54	54	8
40	66	2
67	67	11
48	48	8
72	74	3
63	64	15
46	47	6
30	58	3
24	25	4
51	71	1
7	11	4
5	23	1
39	40	10
60	64	1
2	2	17
68	69	15
24	26	1
19	19	11
12	18	2
52	55	2
46	52	4
28	51	2
49	51	2
34	40	2
77	77	7
23	34	2
61	61	6
40	40	8
39	69	1
23	32	2
39	41	1
9	12	1
1	10	3
21	24	3
64	65	4
43	73	3
6	6	11
20	20	10
62	65	1
0	67	1
44	44	9
42	51	3
49	53	1
9	9	8
47	52	4
50	51	8
53	60	4
72	73	3
49	52	3
11	43	3
33	33	9
34	34	5
14	14	1
30	69	2
9	11	2
63	66	2
35	42	7
13	77	2
27	58	4
48	55	3
71	73	4
7	8	2
60	60	5
62	62	7
65	67	4
56	57	2
35	65	6
76	76	6
19	20	2
44	73	2
2	3	9
40	67	2
6	8	2
40	44	6
33	71	4
42	69	2
35	41	3
32	32	3
57	69	2
69	70	6
39	46	2
58	68	3
20	77	1
36	36	6
13	19	7
73	73	13
9	10	1
24	28	4
30	74	1
70	71	4
53	54	5
36	41	4
75	75	5
66	69	1
38	49	1
11	12	2
50	71	1
5	10	2
3	9	4
47	48	2
70	70	8
29	29	7
5	5	10
29	59	2
0	1	4
31	69	2
45	47	1
55	71	1
65	65	2
21	32	1
34	39	1
5	8	4
45	46	1
34	66	2
45	71	1
45	51	2
75	77	3
68	70	3
45	53	7
14	75	1
13	20	2
61	62	2
1	2	3
24	44	1
61	64	1
41	51	2
31	75	2
26	26	5
49	50	4
57	70	2
36	67	1
43	74	3
6	23	3
35	68	1
66	70	1
36	43	1
26	32	1
37	42	3
6	11	1
2	60	1
34	71	1
24	31	1
34	70	1
34	42	1
2	67	1
12	12	5
58	60	2
13	18	3
43	72	1
68	71	2
63	65	1
60	61	3
0	66	2
51	52	1
64	66	1
33	34	2
48	76	2
30	38	2
30	56	1
52	53	3
29	43	1
33	77	2
14	43	1
27	59	1
66	68	1
21	22	3
34	35	1
27	50	1
36	62	1
13	60	1
27	61	1
32	71	1
39	45	1
71	74	2
7	10	4
11	14	1
3	4	1
21	47	2
49	75	1
59	66	1
49	55	1
4	5	1
26	27	1
29	31	1
48	51	1
30	31	1
12	19	1
18	19	2
12	43	3
59	61	1
21	46	1
3	59	1
12	44	1
48	53	1
31	74	1
49	76	2
49	71	1
40	69	2
27	29	1
29	34	1
27	31	1
26	29	3
23	30	1
42	43	2
33	72	1
51	53	1
74	75	1
11	72	1
57	58	1
30	73	1
54	59	1
