5	5	14
21	21	15
11	37	3
130	132	1
25	25	1
108	108	8
62	99	6
29	31	2
40	40	6
62	62	7
103	103	10
77	77	6
4	5	2
71	74	5
28	28	24
16	16	11
70	80	5
101	102	3
125	128	8
133	134	1
105	109	4
118	119	2
34	37	2
113	114	6
23	24	5
142	144	1
16	32	2
90	90	8
74	74	7
29	29	14
140	140	16
132	143	9
128	138	5
106	107	3
104	104	10
38	38	18
89	89	6
131	142	2
107	108	1
77	80	1
18	18	11
94	94	9
95	95	5
69	69	5
107	107	15
49	50	3
135	135	17
1	35	7
110	110	18
75	75	8
96	97	2
84	84	8
119	125	8
87	96	4
118	118	9
22	22	14
55	83	5
37	37	14
52	56	2
10	19	8
122	123	14
17	17	6
70	81	4
53	53	10
132	132	12
92	92	3
81	81	5
120	120	6
41	41	11
9	9	1
34	34	16
68	70	1
86	87	3
36	36	6
104	105	2
58	91	8
15	77	2
24	39	1
101	103	5
3	14	2
57	57	5
113	113	12
84	87	3
141	141	4
2	6	9
27	27	9
49	49	6
112	118	1
111	112	1
116	116	6
127	140	4
76	77	4
121	121	7
13	19	2
4	4	8
10	10	11
100	100	15
84	85	9
66	66	12
120	123	4
66	100	4
65	100	8
55	55	4
14	14	6
83	83	7
87	98	7
16	80	1
97	98	11
114	114	6
68	69	3
11	11	3
100	103	1
13	21	2
93	93	15
6	20	2
40	41	5
73	73	9
91	91	6
124	124	9
2	10	5
71	71	8
25	26	5
137	139	1
112	112	3
123	123	15
110	112	2
128	131	1
25	27	4
126	126	6
28	29	2
6	19	1
134	134	4
6	18	1
20	20	2
10	11	5
60	60	3
116	117	6
131	143	4
27	28	3
64	65	2
99	99	10
26	26	7
129	129	4
82	82	7
48	48	9
2	3	4
142	143	3
145	145	8
31	53	7
102	107	1
22	37	7
19	19	6
19	20	1
90	98	4
16	106	1
70	74	2
56	59	2
42	42	6
88	89	3
86	96	3
98	98	12
64	100	2
115	115	8
66	107	3
65	65	3
133	133	11
29	53	2
126	127	3
5	9	3
29	30	4
88	99	4
55	58	2
55	56	3
47	48	1
142	142	3
14	15	6
23	23	8
126	140	1
65	66	1
143	143	5
68	75	3
24	24	6
96	96	5
28	59	1
114	115	3
58	58	7
29	37	1
63	63	8
128	128	1
93	94	4
70	70	5
88	103	2
88	96	4
104	106	5
37	38	1
30	54	6
97	118	1
134	139	1
66	143	2
110	133	6
120	122	1
72	72	7
97	97	6
141	142	2
85	85	6
79	105	2
81	86	1
132	140	2
105	106	3
57	82	1
64	66	3
30	30	7
61	76	2
77	79	7
31	31	6
14	32	1
29	54	3
10	18	2
87	102	5
2	2	6
38	41	1
80	80	1
107	139	4
111	111	5
50	51	4
28	41	3
58	59	5
67	104	1
134	140	2
92	93	2
61	61	10
62	64	3
78	78	4
29	32	1
146	146	2
67	107	2
127	127	5
110	111	1
19	21	2
0	0	1
51	51	3
69	70	8
35	36	4
32	32	6
120	121	3
43	57	2
125	125	3
8	8	2
0	36	3
79	79	2
22	38	2
136	138	5
70	71	1
35	35	1
108	109	4
133	139	1
51	57	1
125	135	7
121	122	2
89	90	1
141	144	3
136	139	2
67	99	2
108	111	6
100	102	3
102	102	9
128	136	3
67	67	9
131	132	3
119	119	3
47	47	6
1	36	1
11	19	2
59	59	4
56	56	3
50	50	2
140	144	1
122	122	1
68	68	2
31	33	2
89	99	1
140	141	5
60	61	1
54	54	5
131	131	2
13	13	2
87	90	1
42	93	2
61	92	1
6	6	2
8	116	1
119	120	2
108	112	2
123	124	2
12	34	3
129	130	2
135	139	1
127	138	2
64	64	1
52	53	1
85	96	1
0	1	1
26	38	1
144	144	8
78	79	2
3	20	1
17	78	3
52	52	6
39	39	1
131	134	2
82	95	1
83	84	1
85	91	1
3	5	1
128	129	1
31	32	2
83	96	2
60	92	1
106	106	2
105	105	1
140	143	1
69	80	1
77	78	2
10	21	2
9	12	1
29	33	1
115	117	1
57	58	1
76	78	1
3	19	1
130	131	1
125	126	2
136	136	2
135	137	1
118	134	1
12	12	2
54	55	2
27	39	1
131	138	2
113	118	1
85	90	1
30	59	1
1	1	1
77	106	1
15	16	1
84	96	2
137	137	2
16	77	2
1	22	1
65	140	1
130	138	1
3	30	1
24	25	1
60	84	1
69	102	1
15	15	2
0	35	1
20	21	1
5	7	1
34	53	1
3	3	1
13	20	1
