214	214	3
201	201	7
54	54	10
190	190	9
193	237	2
223	223	9
61	62	7
137	137	4
112	152	2
214	230	2
53	53	10
46	46	10
61	61	7
170	170	6
21	23	2
158	158	7
29	30	4
178	178	10
218	218	3
62	62	2
24	24	4
235	235	8
224	225	5
114	134	4
224	224	3
164	165	2
58	74	2
240	241	3
135	182	3
15	21	1
30	54	3
29	29	16
42	42	7
27	27	8
37	37	4
84	84	2
79	79	3
150	150	14
36	147	2
240	240	5
101	101	8
237	237	4
43	44	5
147	147	8
69	70	3
242	242	3
83	83	4
151	151	3
170	181	2
102	102	8
44	44	9
122	142	2
15	15	3
152	152	8
177	200	5
136	137	3
75	75	7
55	55	8
183	183	5
122	123	4
32	40	1
106	106	2
28	28	11
53	57	2
61	63	1
208	208	3
115	115	6
190	197	4
153	153	3
10	10	10
54	55	6
134	135	3
199	200	3
132	132	1
179	197	3
138	138	11
122	124	1
239	239	3
238	238	5
186	186	3
73	73	8
30	42	2
18	18	4
112	112	3
190	209	1
89	89	3
145	145	3
179	179	6
177	177	6
74	109	4
171	173	2
222	222	8
128	128	9
216	217	5
38	38	11
206	211	2
20	29	2
165	165	1
82	83	3
71	72	1
8	8	2
182	182	8
48	71	1
18	19	2
144	150	10
15	39	1
162	163	1
171	171	3
63	69	2
161	166	3
121	122	5
69	69	3
100	100	7
33	33	6
160	160	4
153	154	5
58	60	2
68	68	4
45	45	8
188	189	2
166	166	4
192	192	2
44	45	5
135	135	6
64	64	7
105	105	5
234	234	5
121	161	5
66	66	3
191	191	3
225	225	2
62	69	6
189	189	3
124	125	2
72	73	1
20	20	11
236	236	1
168	168	7
121	121	4
207	208	4
52	52	2
142	142	3
56	56	2
181	181	2
176	176	4
228	228	4
11	21	1
109	109	2
108	108	1
84	85	6
60	71	2
188	205	1
32	32	3
28	45	2
159	159	4
14	14	3
3	9	1
25	25	6
21	22	5
119	119	5
133	154	3
23	23	5
71	71	3
157	161	3
74	74	2
24	25	7
136	136	3
141	141	7
57	57	3
29	37	3
163	163	6
207	212	2
174	174	3
187	187	5
139	143	1
203	203	5
144	184	3
78	80	2
220	221	3
51	51	5
103	103	5
63	64	4
129	129	4
207	207	5
139	139	2
16	16	9
53	84	1
143	143	4
17	17	3
122	122	1
96	97	4
88	88	3
210	210	4
85	85	3
26	26	10
140	141	4
184	184	3
129	135	3
58	58	1
114	116	3
162	164	2
123	126	2
175	175	7
62	73	5
112	153	2
118	119	2
158	159	4
198	198	7
203	204	1
41	138	1
36	37	1
180	182	2
217	217	8
226	226	2
1	1	2
65	65	5
76	77	1
186	188	1
35	145	1
97	97	4
219	220	3
144	144	10
98	98	3
104	117	2
241	241	1
168	211	2
51	147	1
64	65	2
50	50	1
145	146	1
125	125	2
79	80	3
214	215	3
15	203	1
102	103	5
72	72	6
31	31	2
60	70	3
48	48	9
82	82	4
36	36	4
107	108	4
117	118	4
188	188	2
228	230	3
173	173	2
25	26	1
149	152	1
20	23	2
86	86	3
1	3	1
47	47	10
8	198	1
76	76	7
192	228	3
217	218	3
74	75	2
32	58	1
175	176	1
179	180	7
203	206	1
211	211	4
195	196	3
220	220	3
112	173	2
120	153	1
85	86	2
134	155	2
67	67	3
43	47	1
41	41	4
181	182	2
70	70	6
34	35	3
165	166	1
77	77	1
115	116	2
73	74	3
133	133	3
169	169	6
59	59	3
139	151	1
4	5	2
65	66	2
35	35	1
9	27	1
226	227	2
99	99	3
197	199	2
223	224	2
120	120	3
231	231	6
63	63	5
134	134	2
5	5	1
202	202	2
188	213	3
41	82	1
173	174	5
232	232	2
141	143	4
12	12	4
219	219	2
213	213	4
221	221	7
86	108	1
60	62	2
110	110	1
227	227	3
66	67	3
30	30	2
157	157	3
11	11	2
7	7	1
234	241	1
138	147	2
10	27	4
60	60	5
13	13	3
191	224	2
3	3	3
199	199	4
15	16	1
194	195	2
28	44	4
178	180	2
170	171	2
162	162	3
97	176	2
204	204	2
113	113	3
218	219	1
12	13	1
192	208	1
19	19	1
11	12	1
37	51	1
218	242	1
127	153	2
58	59	1
29	55	1
161	161	3
86	95	1
17	21	4
131	131	1
44	46	1
200	200	3
117	210	2
40	40	7
101	102	1
19	22	2
218	232	2
180	180	2
220	225	1
138	142	1
128	135	4
128	180	2
36	38	2
117	117	1
86	136	1
167	169	1
9	9	4
76	103	1
15	32	2
124	126	1
144	145	3
230	230	3
160	161	4
73	75	1
109	127	1
24	75	1
46	174	1
241	242	5
39	39	2
27	28	2
42	43	1
157	160	1
184	210	1
30	47	1
138	143	1
125	133	2
58	71	1
136	145	1
147	148	1
186	189	2
36	59	4
6	7	1
141	142	3
120	143	2
215	216	2
178	179	1
79	83	2
164	164	2
185	185	2
159	161	3
133	134	2
168	169	2
204	205	1
107	107	1
61	96	1
118	118	1
169	172	2
222	223	1
149	149	2
78	206	1
165	206	3
97	99	1
21	21	1
14	215	1
213	216	3
0	199	1
131	132	1
212	212	1
205	205	3
71	204	1
216	216	2
213	225	1
150	151	2
76	116	2
20	25	1
7	8	1
174	181	1
123	123	1
129	133	2
112	171	1
233	233	1
86	87	1
68	69	1
123	127	3
156	156	1
161	171	2
33	41	2
223	232	1
212	213	1
234	238	1
98	99	1
119	182	1
42	85	2
198	199	1
70	71	1
131	138	1
78	105	1
111	112	1
80	80	2
177	178	1
24	27	1
49	50	1
20	44	2
11	198	1
109	122	1
36	205	2
8	47	1
195	195	1
80	81	2
53	54	2
124	124	1
2	4	1
81	81	1
128	153	1
234	235	2
31	41	1
155	155	1
86	106	1
26	27	1
1	22	1
192	193	1
37	38	1
73	88	1
215	230	1
75	98	1
104	105	1
17	19	2
113	171	1
108	133	2
40	41	1
124	128	1
200	202	1
42	136	1
233	238	1
39	55	2
137	138	1
191	192	1
168	183	1
1	2	1
221	222	1
9	197	1
102	104	1
32	207	1
217	219	1
142	164	1
168	191	1
13	14	1
