145	145	2
183	183	5
185	187	2
68	69	4
97	97	7
121	121	2
226	226	8
194	194	3
65	66	6
85	85	6
64	64	9
104	108	3
211	223	5
170	170	5
21	21	6
11	12	3
24	25	1
78	78	1
187	187	9
174	174	6
65	65	7
170	223	3
153	203	3
118	196	5
179	179	10
29	29	7
75	75	6
221	221	2
7	31	3
20	23	2
167	167	4
238	239	2
15	15	5
217	217	3
134	134	6
11	11	5
145	146	3
191	191	4
171	171	2
55	55	8
12	12	1
43	43	3
45	45	5
235	235	13
176	176	4
37	64	6
9	9	9
233	233	10
55	61	2
122	122	11
40	40	2
200	200	7
208	208	6
15	191	1
56	191	2
41	41	11
227	227	4
62	79	4
235	236	2
44	71	4
110	120	6
67	67	4
62	62	3
13	13	8
146	147	4
187	188	1
226	227	11
201	230	1
70	79	3
33	33	3
120	120	7
135	135	5
126	126	3
60	60	2
30	31	6
150	151	1
175	175	2
131	131	2
165	213	2
6	6	11
34	34	10
1	1	2
153	153	5
46	47	1
37	37	7
38	38	15
10	20	3
126	127	4
181	182	2
215	215	4
175	177	1
16	17	2
54	55	4
179	203	4
169	169	6
140	140	7
172	207	3
137	137	3
20	20	6
88	194	2
219	219	13
172	219	7
212	212	6
96	96	3
172	172	10
25	25	8
78	79	2
209	210	5
190	191	4
64	65	5
136	136	8
212	213	5
107	107	1
14	15	2
151	151	6
181	181	10
146	146	11
134	144	3
193	193	1
109	109	3
150	150	2
44	45	4
79	79	3
130	130	3
58	58	5
154	197	4
8	21	2
206	206	2
37	38	1
30	30	5
139	139	5
77	78	5
118	143	2
220	220	4
108	108	2
34	35	3
200	231	3
16	16	5
56	57	5
88	125	1
201	201	8
177	177	8
19	19	6
216	216	1
213	213	3
26	26	11
80	80	7
231	231	2
43	71	6
32	32	4
63	63	3
133	144	3
192	194	3
178	178	11
223	224	5
211	213	6
74	74	5
43	61	7
99	120	2
164	165	1
163	217	3
47	75	1
4	4	2
124	125	2
14	14	4
210	223	9
98	200	4
221	222	3
17	17	7
229	230	1
213	230	2
27	27	9
161	161	5
202	202	3
238	238	7
28	28	4
234	235	2
228	228	4
79	80	5
48	48	5
20	24	4
166	167	2
190	190	1
213	229	1
168	168	2
46	75	2
144	145	4
143	143	2
81	81	1
123	123	1
198	198	3
232	232	4
135	136	2
160	160	4
213	214	3
0	1	1
154	154	6
10	10	2
205	205	1
160	171	4
49	49	2
83	84	6
158	158	7
8	9	5
61	62	3
69	78	5
180	180	6
57	58	4
84	84	3
0	0	4
232	233	1
66	67	4
162	162	1
69	70	1
148	148	2
173	174	1
72	72	2
157	157	6
147	147	1
38	68	3
147	148	2
5	34	1
154	155	2
3	5	1
23	23	2
9	19	1
209	209	3
112	113	2
202	216	2
149	149	4
143	147	2
24	24	4
156	156	4
173	173	3
103	103	2
184	186	2
204	204	3
46	98	2
121	203	2
85	86	4
69	74	2
69	69	4
47	47	3
240	240	1
239	239	3
161	173	2
127	128	1
42	42	5
110	110	2
149	150	1
132	133	1
59	60	5
18	18	1
61	61	7
118	118	4
195	196	2
95	184	3
27	28	3
13	15	2
39	39	1
73	74	3
196	198	2
76	76	6
158	159	2
16	18	2
218	218	2
158	179	1
229	229	2
102	102	2
97	112	2
4	205	1
123	124	4
5	6	2
21	30	1
140	143	1
41	73	1
45	46	1
74	79	1
105	105	4
173	207	3
24	26	1
2	4	1
222	222	1
119	197	2
31	31	3
41	115	4
189	189	5
162	236	3
5	5	1
111	113	1
241	241	3
210	211	3
58	60	2
125	126	5
73	73	2
92	102	2
12	63	3
159	159	3
36	70	4
59	207	1
225	225	1
144	144	2
160	208	4
203	203	2
15	97	1
46	73	2
21	22	4
125	125	1
55	190	2
19	31	1
122	123	2
59	59	2
39	40	3
95	95	1
210	210	1
124	124	2
211	212	1
22	22	2
52	55	2
148	149	1
8	31	1
80	81	1
152	152	9
152	180	1
101	108	2
177	178	1
149	151	2
172	232	1
11	85	1
234	234	7
51	53	1
128	128	1
70	70	3
64	68	2
166	166	3
128	136	5
44	44	4
50	60	2
182	182	3
7	7	1
130	134	1
26	80	1
82	83	4
163	233	1
128	131	1
67	68	1
36	36	3
54	54	2
131	195	2
68	68	1
100	100	2
153	155	1
51	51	3
9	17	1
182	205	1
171	172	2
24	219	1
201	213	1
161	179	1
174	238	2
2	34	3
25	26	3
19	20	1
234	236	2
205	206	1
139	178	1
54	106	4
46	46	1
61	85	1
56	56	1
175	180	1
50	53	1
9	219	1
98	120	1
7	30	1
201	202	1
163	236	1
136	137	1
117	117	2
119	119	1
155	197	2
104	104	1
201	216	1
176	179	1
213	217	2
106	106	1
128	129	1
126	196	1
223	223	1
159	168	1
155	195	1
100	188	1
102	193	1
