6	6	2
127	127	2
40	41	11
19	19	5
80	80	6
76	76	3
43	43	6
67	68	5
46	50	1
107	107	8
15	38	1
156	159	3
108	108	2
3	3	12
144	145	4
147	147	5
122	122	7
168	168	11
25	25	2
179	181	2
104	105	4
132	132	2
78	79	6
150	150	1
81	88	3
178	178	2
141	141	3
79	79	2
28	29	5
176	176	7
47	47	5
68	74	13
48	48	9
64	64	4
149	149	4
117	118	5
89	90	3
1	118	1
105	109	7
41	61	1
41	46	2
108	110	4
173	177	3
55	55	6
11	12	3
20	118	3
68	68	6
126	126	2
113	116	1
139	140	1
60	60	1
121	122	3
114	116	1
61	61	4
70	70	9
157	158	1
114	147	7
8	8	8
167	167	3
110	110	2
65	65	7
137	137	4
63	64	1
67	75	1
107	108	3
155	164	2
84	84	5
123	123	4
17	17	9
58	74	2
128	128	1
15	15	1
13	13	2
108	151	1
164	164	5
0	1	2
101	155	2
178	183	3
11	11	4
188	188	6
79	88	3
127	136	2
27	27	8
151	151	2
160	169	3
67	73	1
5	14	3
167	195	5
110	151	2
149	150	2
145	145	3
93	160	1
94	94	2
0	20	2
32	32	2
62	63	2
98	98	5
79	82	2
10	10	3
155	177	2
180	182	2
57	62	1
14	14	2
196	196	2
41	41	1
189	189	2
197	197	1
154	155	4
129	137	2
23	23	2
165	187	1
64	65	3
1	1	2
175	177	3
100	101	1
83	85	1
0	5	2
26	26	2
36	68	2
130	130	1
31	31	4
178	180	1
46	46	1
162	162	5
109	111	1
78	88	3
15	17	1
42	44	1
173	173	5
191	191	12
20	21	1
40	40	3
166	184	4
123	124	3
134	134	1
158	159	7
67	67	7
93	96	4
23	24	1
2	3	2
124	124	1
22	22	1
152	154	1
139	139	4
70	71	1
51	51	4
170	171	3
3	147	3
158	158	5
55	174	3
75	76	3
44	61	2
62	62	1
125	191	1
184	184	2
2	146	1
180	181	2
1	18	4
100	154	2
186	193	1
153	153	2
31	43	5
111	111	3
65	80	1
15	122	3
194	194	3
79	81	1
75	75	1
7	7	3
133	133	1
9	13	1
29	29	5
78	78	3
118	118	7
148	148	6
54	54	1
179	179	5
185	185	2
4	22	2
33	33	5
153	154	2
106	146	1
186	186	1
142	142	2
131	133	2
113	113	1
96	96	3
115	115	1
183	183	2
101	101	1
39	39	5
22	143	1
50	50	2
192	192	2
77	77	2
45	45	2
3	23	1
100	100	3
112	112	1
30	30	4
187	188	2
5	21	1
20	144	1
88	88	3
2	111	1
193	193	3
72	73	2
64	80	1
97	154	2
9	9	1
155	163	3
24	24	2
57	57	1
136	136	3
86	86	2
1	2	1
174	174	1
188	189	2
59	59	2
20	20	3
4	4	1
42	51	2
34	67	1
160	160	2
71	71	1
35	39	3
50	70	1
14	24	1
113	145	2
44	44	2
102	102	1
135	135	2
52	56	1
134	135	2
35	69	1
74	74	1
6	18	1
68	73	1
4	5	1
41	43	1
195	195	2
169	174	1
71	72	1
24	84	2
45	46	1
36	37	1
185	186	1
5	5	2
83	87	1
85	85	1
185	193	1
180	180	1
34	35	1
27	82	3
155	159	1
34	73	1
167	175	1
53	56	1
114	114	1
155	155	1
178	179	1
28	28	1
82	88	1
7	8	1
156	156	1
64	66	1
127	137	1
