91	91	6
7	7	2
5	5	3
88	89	2
49	57	2
108	109	3
29	30	2
79	79	5
62	71	2
119	120	2
60	60	7
74	74	1
74	76	1
55	56	5
82	94	1
30	30	2
124	124	13
129	129	2
40	40	1
83	83	5
101	101	4
17	17	2
4	4	4
13	13	3
66	67	1
1	1	7
123	123	11
32	33	1
111	111	2
27	28	1
56	56	2
80	80	3
2	2	6
24	24	6
16	16	3
3	3	10
33	33	2
99	99	4
14	14	1
84	116	2
68	133	1
78	81	3
6	6	5
76	76	4
27	27	8
20	21	3
27	75	1
42	43	3
107	107	5
1	2	1
105	105	1
63	63	2
103	104	1
103	103	4
66	90	5
72	74	1
128	128	4
61	91	1
99	100	1
25	25	5
97	97	2
4	14	1
67	90	2
10	73	1
119	128	1
60	69	2
18	45	1
85	89	3
82	93	4
66	66	4
34	34	1
72	73	4
43	58	1
43	61	1
121	121	4
43	46	3
64	110	1
10	76	6
57	57	3
83	85	1
54	54	8
67	68	1
20	20	12
87	87	2
48	48	1
41	60	4
72	75	7
59	59	2
49	116	2
41	41	2
19	22	1
72	78	1
92	92	1
51	51	7
23	23	1
89	92	2
64	64	1
91	92	1
110	110	6
107	108	1
13	15	1
108	108	1
45	45	2
120	120	1
0	12	1
46	46	4
21	24	1
9	9	2
99	103	1
117	117	4
78	78	3
128	133	2
112	112	5
95	95	1
113	113	8
4	13	6
49	118	1
67	102	3
40	66	1
67	133	1
61	61	1
65	66	2
117	118	3
26	76	1
55	55	4
21	22	2
47	47	4
14	15	1
28	82	1
3	6	1
100	101	2
58	58	3
46	47	1
67	67	5
58	74	3
29	29	3
84	88	2
25	26	1
87	96	1
99	129	1
44	45	1
18	18	5
31	32	2
87	97	1
68	71	4
125	131	2
62	92	2
97	100	1
69	69	1
126	126	2
88	94	2
22	22	2
92	133	2
2	4	1
104	104	4
62	64	1
84	84	1
86	95	3
17	75	1
28	29	1
11	26	2
119	125	1
44	47	1
62	63	1
53	53	1
100	100	3
97	130	1
112	113	3
96	96	2
52	52	1
39	39	1
77	77	1
44	44	1
128	130	2
77	78	1
59	69	1
71	71	1
116	116	2
52	53	1
39	40	3
33	46	1
62	62	1
81	82	1
3	5	1
54	109	1
98	98	1
90	90	1
78	93	1
10	10	2
33	34	1
126	130	2
97	99	1
126	129	1
95	96	1
59	60	1
7	9	1
49	49	1
32	32	1
85	94	1
49	56	1
68	68	1
62	91	1
110	111	1
99	128	2
11	13	1
50	133	1
14	18	1
26	27	1
126	127	1
82	82	1
8	8	1
28	78	1
13	14	1
