146	146	11
5	5	9
8	20	2
49	50	10
41	41	13
30	30	15
128	128	11
228	228	7
106	106	8
58	60	8
182	182	21
73	74	1
229	229	10
4	11	2
165	165	15
21	21	12
23	23	11
3	3	13
140	143	4
204	205	2
183	183	25
212	212	10
68	68	19
134	134	19
170	173	3
61	61	11
210	211	6
88	88	10
25	25	10
102	102	19
133	133	17
211	212	10
5	9	4
135	135	12
233	236	2
151	151	11
233	233	5
7	7	9
226	227	4
191	192	4
155	155	13
30	31	6
31	31	12
67	67	20
205	206	12
170	170	11
20	20	11
71	73	2
19	31	1
18	18	12
161	161	20
4	5	2
237	237	9
59	59	14
1	2	9
226	226	6
172	174	5
29	29	17
53	69	1
125	125	6
76	77	4
137	141	6
58	58	21
185	186	3
100	101	12
31	32	4
37	37	15
99	99	12
23	29	3
214	214	6
231	232	4
185	185	17
142	143	8
33	35	6
15	15	19
12	18	6
35	36	8
25	158	9
129	129	20
71	71	6
236	237	10
1	1	8
161	162	2
126	126	11
190	190	20
207	208	14
196	198	2
17	17	7
239	239	19
48	51	2
201	202	7
46	129	4
125	203	5
54	54	6
85	85	22
55	55	15
182	193	1
40	42	3
225	225	9
207	207	10
43	46	2
120	120	18
201	201	13
123	177	2
150	151	10
1	6	8
26	27	2
217	217	19
70	71	7
115	115	7
188	189	3
66	66	12
218	218	16
31	35	4
63	63	8
176	177	4
191	191	23
164	186	2
99	108	8
209	210	8
194	196	3
180	180	9
79	79	11
234	234	14
56	56	4
241	241	12
44	44	12
194	210	1
37	38	13
132	133	4
52	52	2
147	147	18
133	135	4
218	219	3
109	130	5
141	141	8
222	223	2
122	122	18
219	219	13
162	209	1
140	142	3
153	153	18
9	10	6
172	172	10
167	167	12
46	46	10
188	190	4
49	80	6
22	22	12
50	51	3
220	220	13
124	124	5
48	86	7
53	53	11
43	43	13
10	62	2
44	45	11
220	221	10
108	109	1
178	213	6
84	84	13
14	14	17
170	172	5
26	28	6
77	77	6
158	162	2
145	146	1
134	208	1
123	125	3
163	163	12
138	138	6
103	141	3
177	221	7
147	211	3
200	201	4
166	167	4
227	227	12
40	40	7
209	211	7
36	37	1
179	179	8
155	157	3
73	73	12
125	126	6
193	193	13
51	51	19
137	137	24
195	214	3
43	53	3
118	118	12
177	177	16
164	164	4
74	75	8
198	200	3
54	55	15
210	210	9
49	49	7
50	75	3
39	40	10
202	202	15
11	12	4
208	208	7
32	34	4
192	192	19
146	147	8
96	97	4
187	187	10
192	199	2
72	73	6
79	80	4
135	208	1
35	160	1
16	16	13
60	60	8
9	11	5
160	161	14
209	209	5
232	232	12
99	100	6
223	223	5
199	200	6
171	194	1
30	78	4
46	47	2
182	183	9
124	133	2
66	67	6
47	47	9
75	76	6
115	119	2
169	187	4
121	122	8
198	203	2
65	66	7
199	199	8
27	27	17
235	235	16
242	242	5
204	220	3
234	235	10
142	142	7
17	18	4
62	63	10
45	100	1
26	26	13
72	84	2
104	126	2
211	211	13
221	226	3
10	11	3
156	157	3
238	238	26
231	231	17
98	103	3
13	54	1
167	199	4
195	195	16
24	25	7
24	24	5
10	36	5
109	114	3
101	101	12
35	35	9
139	139	17
140	140	15
200	200	8
65	65	14
116	117	3
2	5	2
8	8	4
76	91	1
21	22	9
156	158	3
25	39	1
198	201	4
196	196	12
165	166	5
216	216	11
12	12	17
109	109	13
221	222	10
127	128	3
19	19	17
168	168	5
223	227	3
186	186	14
171	171	6
60	105	5
146	188	3
232	233	1
214	216	3
111	117	1
239	240	3
186	187	5
150	153	3
113	113	10
235	236	7
156	156	15
64	100	5
205	205	11
117	118	3
48	48	11
147	148	6
34	35	8
64	64	11
197	197	8
188	191	4
96	96	5
31	33	3
127	127	9
158	159	9
57	77	1
180	181	9
176	219	4
110	110	2
204	204	16
222	222	12
189	190	7
131	131	7
142	213	3
172	173	4
170	215	2
45	45	12
145	162	2
70	70	11
98	99	3
10	55	2
121	121	9
151	188	3
158	160	3
36	62	1
162	162	17
80	80	14
39	39	18
4	7	1
234	236	6
13	15	1
107	107	13
18	21	2
194	194	8
154	154	9
76	76	17
204	208	3
5	6	3
126	214	2
170	171	1
240	241	6
100	162	1
50	50	10
125	127	2
34	34	3
144	144	8
164	191	2
181	182	7
32	32	6
0	1	7
144	145	3
175	176	10
162	176	1
107	108	7
115	116	4
115	117	3
132	132	5
150	150	5
141	142	8
159	159	14
16	39	6
111	111	14
183	216	1
238	241	2
223	224	12
139	140	7
230	231	6
229	230	4
161	186	3
98	98	13
120	121	4
152	158	3
198	198	7
206	206	5
128	152	3
40	41	14
171	173	6
144	146	7
128	130	1
220	223	5
105	105	7
119	119	15
82	82	12
174	174	19
137	138	1
140	141	13
107	113	2
33	33	10
130	130	6
150	211	4
213	213	12
12	19	2
62	65	2
216	219	8
63	64	3
169	169	4
124	204	5
7	8	4
208	209	2
14	23	1
102	103	5
175	193	3
84	85	4
64	65	9
103	108	4
74	89	4
151	152	2
121	123	4
15	22	3
86	86	13
149	149	10
78	78	5
137	151	1
179	184	2
41	44	2
127	133	2
136	136	4
179	180	6
55	75	2
27	172	2
198	199	8
160	160	5
64	97	3
13	13	7
203	212	1
193	195	3
213	217	4
160	164	3
157	157	13
189	189	13
0	13	5
133	134	6
117	156	3
97	97	11
158	158	8
35	162	2
199	207	5
233	234	2
96	98	5
101	110	4
111	112	4
57	57	8
46	100	5
175	175	11
148	149	2
9	32	2
176	176	5
103	103	6
85	86	2
25	47	1
209	221	1
221	221	8
56	91	1
106	112	1
150	152	4
74	74	4
123	124	1
65	68	2
163	165	3
227	229	7
19	20	7
4	4	8
36	36	15
104	105	1
185	196	2
203	203	11
48	79	4
79	95	3
136	137	3
83	83	5
28	28	10
241	243	2
65	77	3
27	41	3
162	189	1
72	72	6
33	66	2
2	2	7
139	142	3
116	116	5
33	36	1
175	189	1
126	205	4
181	181	6
11	11	2
17	69	2
27	28	6
196	213	1
179	186	1
62	64	1
237	239	3
169	210	4
125	206	3
236	238	2
117	117	14
240	240	8
52	74	3
102	107	1
101	109	1
16	99	1
184	184	7
161	164	3
123	123	7
7	11	1
103	106	8
3	8	5
103	107	3
15	64	3
148	148	8
165	193	1
47	51	2
65	138	2
82	84	6
145	145	6
2	7	1
135	185	2
221	223	3
98	106	11
122	203	2
83	84	2
111	131	2
100	100	4
173	173	5
167	169	2
10	10	9
3	4	3
145	152	1
135	136	4
142	144	5
8	9	4
0	0	5
5	34	1
47	50	1
237	241	2
166	166	2
143	143	4
143	214	2
214	230	2
170	210	1
6	6	6
145	148	2
228	230	1
234	241	1
28	75	1
123	207	1
16	66	3
190	191	7
133	200	1
129	130	8
39	41	4
23	31	2
95	96	1
215	215	4
215	216	2
16	17	3
32	33	2
69	69	11
191	209	1
221	225	1
177	200	2
59	60	8
95	95	3
202	203	2
32	78	2
82	85	1
178	183	6
62	62	14
168	189	3
42	42	10
77	78	4
128	129	4
43	47	1
215	230	1
45	56	2
167	177	1
218	224	1
4	67	1
236	236	7
114	114	4
163	164	2
178	178	13
184	185	5
75	75	5
54	62	1
144	188	3
122	123	4
158	168	2
62	68	1
8	48	2
138	146	1
22	24	1
55	66	1
27	29	1
152	190	2
9	64	1
9	9	4
57	58	1
219	221	2
153	155	1
133	199	7
187	211	1
151	186	1
55	79	2
79	81	3
140	198	1
104	125	1
158	164	2
230	230	2
225	226	2
169	171	7
149	150	3
9	109	2
141	143	1
35	56	3
7	9	1
213	215	1
148	150	3
103	104	2
118	121	1
236	239	1
69	86	4
172	176	2
149	187	3
141	146	1
81	91	1
220	222	2
69	74	1
168	201	2
171	172	1
146	189	3
108	108	2
41	43	1
25	26	2
106	125	2
41	121	2
215	221	4
119	176	2
51	53	4
142	166	1
200	207	3
6	67	1
116	137	1
79	103	2
5	32	1
149	171	1
141	220	7
174	175	3
53	64	1
103	105	1
177	219	2
78	84	1
185	187	1
102	109	5
56	57	2
184	216	2
18	20	4
44	46	2
172	175	2
192	194	3
165	173	3
68	69	1
42	44	1
55	56	1
235	237	5
197	198	2
114	116	1
202	204	2
6	19	1
139	153	3
38	38	14
54	56	1
237	238	5
104	104	3
217	218	4
150	210	3
98	105	2
33	34	3
43	45	3
180	182	5
23	30	1
11	15	2
136	219	2
70	85	3
175	177	1
149	151	2
27	48	1
186	190	3
53	54	2
190	209	2
183	186	3
69	174	1
7	74	1
56	69	1
163	206	1
227	232	1
81	105	1
81	84	3
120	170	3
1	3	3
241	242	2
195	196	1
79	104	1
233	235	4
73	88	1
139	169	1
119	177	1
74	88	1
129	164	1
124	125	1
146	168	1
173	174	3
106	214	2
83	106	2
0	3	2
128	131	2
191	198	2
131	133	3
10	44	1
29	60	2
22	23	1
70	86	2
188	188	2
114	117	1
219	220	1
43	44	2
213	216	1
201	211	1
135	161	1
113	114	3
52	69	1
45	110	1
42	43	1
114	115	2
29	31	3
169	189	2
37	128	1
29	59	2
178	205	1
191	194	1
44	49	1
106	171	1
169	170	1
74	87	1
141	154	1
20	29	1
88	142	1
175	217	1
217	219	3
224	224	4
22	29	1
205	207	2
135	184	3
155	183	1
127	152	1
8	64	1
51	52	3
28	29	1
19	21	2
24	64	1
183	220	1
143	152	1
182	202	1
145	172	1
65	75	1
122	171	2
125	171	2
168	169	1
167	188	1
41	45	1
179	213	1
41	42	1
206	208	1
192	196	1
9	66	1
128	135	2
18	53	5
81	81	1
154	155	4
15	16	1
185	212	1
234	242	2
190	213	1
203	204	1
50	98	1
57	69	1
16	21	2
193	194	3
126	133	2
40	49	2
125	210	1
42	73	1
229	231	1
57	59	2
9	47	1
208	213	1
142	145	1
42	46	1
159	160	2
171	210	1
119	120	3
192	193	4
43	52	1
195	212	2
74	95	1
172	219	1
36	124	1
45	46	1
46	120	4
232	235	1
143	146	1
42	50	2
121	157	1
19	35	1
175	230	2
218	223	1
165	205	2
157	159	2
29	30	1
171	220	1
176	183	2
189	227	1
28	38	1
192	211	1
167	175	1
98	100	2
176	193	2
55	65	1
213	232	1
144	217	1
79	106	2
42	45	1
57	76	1
117	157	1
28	30	2
18	22	1
27	46	1
138	139	2
228	229	3
206	209	1
80	81	1
51	80	1
25	64	1
162	164	1
32	36	1
177	178	1
203	207	1
126	128	1
32	142	1
43	48	1
10	47	1
21	23	1
99	163	1
111	113	1
222	229	1
30	38	1
211	223	1
162	163	1
6	9	1
76	156	1
41	46	1
7	13	1
54	175	2
177	205	2
43	51	1
173	175	1
187	190	1
88	89	1
170	242	1
158	184	1
126	130	1
174	183	1
109	110	1
229	235	1
58	59	1
71	108	1
