162	182	6
241	241	20
212	212	24
204	204	18
41	41	13
237	237	17
99	117	1
155	155	18
212	237	5
25	25	15
24	40	4
185	207	2
6	21	4
89	90	3
220	220	18
86	86	25
236	236	15
113	113	21
71	71	20
160	184	4
204	205	6
151	152	2
239	239	21
36	36	24
19	19	10
117	117	16
14	14	18
171	171	13
118	118	22
155	156	3
73	73	16
52	52	13
29	38	4
68	68	31
21	21	27
85	101	2
145	152	2
210	210	10
235	235	23
86	89	2
167	167	39
17	17	18
234	234	21
37	37	17
146	158	4
188	195	1
35	35	15
55	57	2
200	201	9
23	23	29
90	90	18
50	76	2
163	163	23
20	33	1
175	184	9
29	40	7
198	198	26
170	173	6
168	175	1
149	150	3
205	220	6
68	86	10
229	230	6
22	22	15
242	242	30
230	233	2
41	212	5
13	13	1
208	208	18
107	119	2
82	83	4
62	62	19
79	79	12
229	234	8
87	87	19
212	226	4
31	32	12
29	30	10
12	16	3
33	35	3
42	57	3
221	222	6
199	230	1
60	60	15
119	120	1
55	55	19
71	91	2
175	175	16
191	191	8
171	172	2
47	50	8
76	76	11
160	160	14
7	7	10
198	207	3
189	189	13
145	145	15
28	40	2
214	219	2
158	162	1
9	10	2
178	180	2
111	111	19
105	105	14
101	102	3
20	99	1
34	34	10
23	30	4
107	107	11
116	116	17
24	25	3
162	166	3
203	204	5
238	238	23
70	96	3
183	183	26
153	153	21
165	166	6
225	225	17
85	104	7
49	50	5
193	193	12
198	217	1
224	229	5
53	67	3
28	28	34
24	53	1
223	233	1
63	63	13
232	235	2
232	232	31
156	156	38
81	81	18
70	71	8
192	197	5
187	190	1
203	203	28
229	229	33
5	8	2
180	207	5
1	28	2
46	46	26
26	28	3
189	193	3
57	58	4
174	195	4
155	172	1
230	230	18
48	48	14
214	214	20
219	219	22
183	184	5
75	78	3
160	161	4
49	49	17
106	106	14
85	85	24
187	188	18
227	227	14
242	244	8
84	84	26
209	210	7
168	171	1
154	231	3
176	192	2
211	230	2
196	199	2
228	228	16
10	10	17
173	173	20
149	149	6
154	155	1
211	229	1
33	33	28
160	176	2
58	64	2
110	113	1
52	53	3
27	27	22
207	247	5
40	44	1
4	4	26
172	182	1
245	246	3
233	234	6
156	161	4
3	15	6
56	56	29
147	155	2
78	79	14
157	161	7
112	113	8
117	119	1
116	117	5
102	102	29
100	117	2
38	39	19
217	217	19
210	211	12
169	169	16
74	74	14
50	50	14
42	42	25
206	211	1
182	183	3
22	28	6
201	201	24
22	86	1
96	96	16
187	196	3
180	180	7
168	170	5
19	41	1
146	146	9
29	29	28
199	199	12
10	11	4
2	2	12
181	181	22
4	5	11
168	169	8
88	91	2
6	6	12
93	93	14
61	63	7
169	171	7
208	209	7
64	77	2
114	114	14
3	3	16
167	169	1
43	43	12
222	228	2
239	240	4
195	195	16
159	182	3
150	150	28
224	224	22
4	187	1
216	217	11
171	190	7
52	88	1
165	192	1
204	225	2
44	199	5
18	22	4
224	225	3
205	208	2
223	223	9
81	100	4
12	235	2
172	172	9
54	91	2
114	115	5
99	119	4
95	107	4
60	61	7
153	154	10
168	168	11
9	9	19
152	152	12
82	82	11
8	102	3
196	197	9
36	37	2
98	114	3
159	175	2
193	202	3
51	51	14
32	36	3
68	69	13
31	36	1
244	244	11
44	44	18
154	154	14
240	240	13
117	118	3
67	108	1
184	184	19
161	162	2
197	197	26
74	95	1
40	40	14
185	195	3
164	178	5
70	70	11
84	91	1
198	199	8
179	181	1
181	182	2
203	223	1
34	48	9
157	157	16
75	75	9
222	222	9
80	80	10
53	53	11
26	26	15
81	114	1
79	100	4
158	158	13
169	195	2
98	111	1
11	17	1
209	209	19
205	205	22
118	119	4
12	12	18
112	112	25
5	5	21
192	192	18
238	239	13
77	77	20
187	187	16
216	226	2
89	89	20
200	200	27
41	45	3
224	236	4
90	91	3
32	32	22
211	211	9
88	88	25
229	232	4
57	73	3
47	47	13
83	83	15
239	247	5
11	11	5
30	30	23
147	164	5
226	236	1
16	16	17
85	86	6
176	179	1
225	239	1
174	176	1
83	84	2
27	36	1
212	215	1
20	36	3
227	228	5
88	89	3
9	21	2
48	49	6
72	72	20
196	196	13
164	164	31
214	215	3
55	82	1
51	52	2
145	150	3
102	109	3
10	112	2
16	154	3
160	163	5
3	16	3
159	238	4
169	173	5
230	240	5
21	24	7
216	223	4
67	87	3
208	228	3
30	165	1
202	202	21
162	162	13
173	194	1
165	165	18
119	119	13
186	188	5
103	104	3
54	54	28
69	70	8
28	41	5
221	221	20
194	199	7
39	112	3
164	165	3
173	174	4
235	236	6
6	55	3
41	46	2
104	115	4
169	170	8
192	239	1
177	179	2
209	211	3
71	79	1
190	198	5
163	180	3
147	154	4
178	178	16
243	243	10
154	157	2
186	186	17
204	219	2
91	91	13
215	221	1
21	25	4
78	78	17
39	40	4
180	181	3
58	58	12
91	107	2
104	104	16
74	94	3
165	178	1
231	234	3
27	28	8
158	165	1
40	51	2
168	223	1
151	151	23
50	51	8
4	6	2
186	194	1
192	210	3
100	100	15
170	170	5
67	68	7
168	182	3
84	85	8
168	200	2
188	191	6
165	180	3
31	31	9
243	248	2
61	68	7
184	197	4
111	114	2
182	189	3
66	66	10
170	191	2
211	212	16
115	118	1
179	179	10
39	39	15
62	68	1
103	117	2
89	198	2
57	57	12
248	248	10
185	185	19
201	202	3
217	218	7
87	105	1
74	80	2
39	44	1
194	196	5
175	189	1
167	168	6
108	113	1
51	101	2
14	15	5
162	165	2
213	213	18
110	110	23
18	19	4
9	45	1
79	80	3
229	231	4
45	46	4
60	65	2
203	225	2
9	19	1
69	94	3
108	108	10
220	229	2
4	48	1
45	51	2
167	170	1
237	245	2
181	196	1
158	166	4
65	65	19
21	22	2
62	94	6
115	115	21
191	194	4
214	223	2
6	24	4
109	109	20
158	159	5
72	84	1
190	190	16
159	160	6
56	58	9
225	241	4
215	229	2
218	219	8
195	196	2
247	248	7
14	16	9
161	161	14
93	105	1
96	97	4
19	20	5
52	85	1
18	115	3
40	41	6
235	246	4
216	216	9
71	74	1
215	216	1
190	202	3
18	38	3
153	156	6
35	54	2
97	97	14
23	28	6
247	247	9
95	95	22
207	207	14
178	202	1
26	35	2
8	8	20
89	110	3
34	37	6
165	167	2
184	186	3
51	57	3
198	216	3
71	76	2
97	102	1
32	33	7
166	166	14
94	94	24
245	245	18
64	76	2
52	70	1
45	45	16
47	79	4
159	168	2
186	240	1
165	193	2
158	207	4
159	159	6
9	28	5
213	214	2
172	191	2
61	62	7
181	194	6
238	249	4
202	212	1
222	238	1
2	3	4
231	231	20
193	194	12
5	22	3
102	111	2
59	59	22
65	72	1
4	7	3
196	198	2
162	247	4
246	246	17
242	248	1
187	242	2
170	177	2
198	205	1
187	191	3
92	92	5
38	38	13
69	69	11
234	247	1
54	67	2
147	147	3
235	241	1
167	240	1
227	239	5
44	45	3
54	55	9
230	231	4
18	18	15
212	246	3
108	119	1
20	237	2
107	110	2
86	87	3
44	81	1
71	84	2
237	238	3
63	65	5
225	237	1
113	114	2
95	96	6
101	101	17
212	227	2
72	73	2
45	48	2
15	26	3
109	110	4
57	69	4
207	208	4
245	249	1
10	96	1
103	103	11
92	94	2
39	46	6
82	88	7
1	1	6
223	244	3
194	194	9
218	218	9
120	145	2
53	246	2
30	38	1
190	191	3
41	44	2
3	8	6
64	64	4
225	227	4
6	191	1
15	20	1
174	223	2
69	84	7
185	200	1
149	151	2
197	198	1
161	202	1
61	61	12
20	100	1
164	173	3
184	185	5
8	9	3
182	182	14
110	111	3
80	107	2
23	37	4
106	225	2
198	200	4
182	190	1
87	112	1
80	99	7
227	229	2
42	91	2
63	74	2
20	20	19
32	38	6
4	60	2
244	245	5
226	226	13
193	210	6
88	113	2
181	202	2
156	171	1
11	12	3
172	177	3
67	67	22
197	199	6
181	192	3
70	87	1
97	119	2
15	35	3
36	38	3
177	177	5
176	176	10
204	231	1
33	38	3
233	233	13
90	98	3
67	109	1
114	117	2
216	238	2
160	165	2
153	202	2
7	8	3
47	59	1
198	219	4
208	210	4
23	26	1
98	115	3
159	172	2
161	175	3
41	64	1
223	224	4
153	157	1
224	230	2
53	82	2
61	66	2
30	36	2
211	215	2
106	196	1
145	146	1
155	166	1
20	38	1
230	246	1
211	213	2
22	23	7
204	222	3
225	240	2
164	171	1
43	54	3
215	215	11
188	192	1
226	246	3
55	107	2
176	177	4
181	183	1
79	106	1
5	228	3
80	83	3
221	232	3
58	236	3
97	100	1
11	15	8
74	78	2
218	220	2
201	219	3
228	229	6
46	86	3
56	57	6
30	53	1
209	216	3
227	231	1
92	93	2
156	172	3
77	80	3
52	66	2
186	232	1
170	187	2
85	107	1
91	92	8
85	151	1
201	218	4
185	201	2
100	110	1
165	171	1
77	78	3
42	56	1
75	84	3
100	118	3
77	79	3
103	112	2
64	71	1
78	94	2
233	247	3
168	222	2
18	23	2
10	26	1
108	174	4
96	101	4
155	181	1
80	100	2
200	203	3
37	110	3
7	23	1
88	96	2
239	248	2
178	179	7
76	77	5
221	230	2
66	67	5
78	86	2
77	83	1
1	33	1
163	164	3
24	24	9
232	236	3
194	195	2
218	240	1
202	214	1
100	116	3
185	186	3
163	179	2
155	159	1
79	86	1
162	163	7
24	169	1
145	151	1
22	32	1
212	213	4
173	187	3
45	111	5
44	68	1
215	225	2
64	91	3
93	104	1
208	217	5
10	45	1
1	17	3
77	100	6
157	158	3
2	7	1
72	94	1
73	237	1
203	227	1
64	65	8
20	46	4
21	70	1
226	245	2
180	205	1
159	164	2
28	29	2
208	221	3
173	224	2
195	204	3
192	194	3
9	47	1
187	189	3
39	41	5
226	238	2
95	101	1
164	177	2
10	25	1
70	84	1
215	242	4
8	14	1
17	20	2
97	109	3
11	24	2
111	112	5
22	30	2
63	144	2
25	66	1
190	196	1
120	120	7
94	95	6
224	242	1
97	101	2
157	159	4
174	196	2
232	233	5
40	66	4
75	76	4
106	107	5
73	92	1
151	157	5
166	180	1
94	104	1
101	104	5
154	233	2
99	104	1
115	116	4
188	188	13
11	14	6
161	182	3
187	194	1
174	174	6
185	199	2
84	93	1
111	115	1
55	245	2
72	92	4
15	15	9
236	238	2
167	173	2
218	230	1
87	106	1
162	164	1
74	99	4
10	200	2
56	76	1
146	147	2
160	171	2
187	222	2
70	100	1
98	98	7
81	82	5
109	114	3
226	240	1
68	76	3
71	102	2
93	95	1
217	234	2
184	199	5
186	189	1
170	179	1
12	43	4
47	51	1
81	89	1
173	205	1
207	228	2
6	23	3
230	232	2
170	199	1
217	220	1
229	233	1
68	88	1
215	227	1
203	205	3
12	28	3
55	224	1
98	102	1
208	218	2
203	208	1
50	56	1
163	176	2
170	197	2
55	89	1
191	196	1
153	155	2
172	175	1
17	35	2
61	73	4
206	206	5
7	232	3
94	238	1
79	98	1
169	222	2
86	152	2
25	28	2
56	64	2
146	182	1
202	205	1
204	217	1
73	81	2
1	45	2
169	179	1
183	199	2
183	185	2
215	223	2
40	42	3
172	190	1
148	157	1
10	44	5
172	173	4
166	174	3
26	27	3
25	40	2
174	175	4
37	39	1
212	233	1
196	214	1
113	118	1
214	216	4
231	240	1
30	50	3
94	107	2
155	201	1
5	227	1
236	239	1
194	208	1
174	183	3
20	98	1
32	39	3
66	70	1
201	204	1
72	108	2
6	60	3
240	245	2
211	226	1
235	245	3
213	233	1
164	174	1
51	68	2
174	177	1
6	8	4
78	107	2
147	161	1
112	116	3
207	213	3
98	106	2
22	215	1
53	236	1
157	173	2
61	67	1
233	237	1
75	77	3
199	201	2
228	232	1
71	77	2
154	217	2
105	106	1
175	177	2
71	73	3
96	98	3
66	119	3
77	88	1
10	24	2
72	85	4
98	108	1
34	35	1
52	57	1
186	187	7
68	70	2
62	120	2
99	115	2
78	98	2
109	117	2
48	64	2
72	101	3
65	118	2
240	241	3
227	244	1
59	64	1
151	161	1
5	14	1
172	187	1
7	34	1
71	89	2
239	241	2
48	61	2
238	242	3
29	203	1
193	208	1
81	88	1
107	200	3
180	189	1
100	111	1
219	220	1
217	239	2
189	191	1
171	196	1
160	175	1
81	92	2
184	247	3
104	225	1
7	19	1
18	33	1
4	20	4
120	121	4
49	60	1
153	167	1
224	237	4
210	219	1
73	74	2
42	54	2
78	93	1
21	44	1
5	7	2
55	56	2
43	52	1
192	206	3
29	32	1
3	5	1
167	189	1
76	93	2
45	247	1
99	99	7
98	104	2
243	247	2
64	74	1
6	200	1
16	23	3
216	218	2
74	89	4
7	235	2
29	59	2
182	184	1
212	220	1
163	165	2
17	18	4
60	64	3
96	102	1
221	231	2
144	145	2
102	118	3
33	36	3
56	245	1
35	194	1
236	240	4
34	39	2
8	24	2
149	153	1
150	151	1
214	217	1
7	214	4
12	14	1
20	21	1
171	202	2
42	43	5
185	232	2
47	64	1
40	117	1
67	70	1
38	46	1
19	114	1
91	188	1
42	58	1
174	191	1
169	182	3
84	94	1
229	235	1
102	103	2
9	26	2
47	56	3
218	224	1
53	70	1
95	216	1
208	214	1
220	221	6
35	36	2
45	55	1
166	179	1
5	60	1
177	180	1
118	157	1
30	31	1
93	242	1
180	182	2
6	9	1
205	235	2
86	99	4
216	224	1
144	151	1
170	196	2
23	24	2
213	229	1
4	230	2
196	223	2
152	163	2
6	19	2
204	227	1
175	178	1
16	17	1
29	33	3
16	183	1
102	113	1
65	66	2
37	44	1
147	151	1
86	93	2
111	118	1
170	172	1
59	60	3
47	81	1
6	7	1
203	239	1
173	192	1
47	48	5
71	85	1
145	149	2
110	154	1
15	23	1
66	84	2
94	101	3
68	90	2
56	105	1
163	166	1
29	113	1
158	175	3
154	175	1
13	208	2
8	19	1
100	107	1
162	237	1
246	247	2
184	201	2
34	43	1
208	229	4
48	71	1
173	189	3
4	223	2
236	242	1
4	226	3
167	224	1
20	37	1
220	242	1
220	222	1
23	27	2
67	85	1
215	217	2
21	86	3
57	62	1
7	16	1
165	174	2
7	24	1
157	225	1
8	23	1
158	167	1
223	225	2
104	105	3
18	29	1
110	155	2
16	22	1
192	195	1
200	204	2
80	94	1
181	184	1
15	16	1
191	207	1
40	75	1
30	34	1
55	63	1
152	154	1
107	197	3
51	67	1
189	190	3
179	192	1
179	180	1
160	179	1
58	62	1
189	202	1
211	234	3
98	100	1
150	161	1
109	111	1
226	227	2
168	192	1
188	190	1
162	169	2
52	64	2
46	67	2
71	95	1
31	35	1
181	191	1
193	239	1
162	170	1
70	82	1
55	156	2
156	157	1
173	191	1
50	58	1
75	87	1
242	243	1
53	55	1
224	226	3
99	111	1
111	116	1
205	219	1
232	240	1
43	51	1
0	3	1
151	172	1
58	65	1
207	233	2
175	201	1
28	116	1
37	46	2
95	215	1
108	115	1
56	79	1
28	38	1
1	13	2
43	47	7
58	172	2
7	26	1
174	189	1
34	36	1
162	176	1
44	82	1
194	207	1
45	63	2
121	121	1
170	210	1
204	220	2
150	152	2
196	231	3
167	239	2
217	222	1
35	115	2
114	116	2
81	90	1
7	18	1
89	111	2
185	240	2
59	63	3
100	101	1
157	224	2
97	105	2
192	193	2
172	192	1
43	110	3
74	88	1
113	152	2
5	19	1
71	92	2
215	230	1
3	224	1
73	75	2
41	156	1
51	245	1
210	225	1
210	248	1
90	92	3
34	50	2
45	47	1
170	202	1
20	45	3
14	195	1
157	164	1
173	210	1
18	27	2
169	186	2
177	184	2
80	81	1
185	194	1
235	244	1
30	42	1
220	233	1
61	76	1
86	114	3
151	153	1
77	89	3
79	84	1
224	244	2
49	79	2
105	108	1
206	228	1
3	6	1
163	178	1
42	67	2
67	75	1
99	101	1
51	99	2
168	174	2
111	113	2
6	35	1
170	174	1
51	96	1
31	38	1
161	205	2
28	151	1
144	152	1
76	95	1
92	98	1
225	226	1
47	82	1
161	183	2
47	86	1
17	19	3
64	66	1
208	211	2
197	208	2
67	76	1
8	26	2
213	241	2
18	35	1
102	116	2
222	236	1
199	218	1
226	237	1
1	10	1
227	232	3
52	60	1
176	197	1
206	212	1
234	235	1
14	27	1
108	112	1
76	88	3
96	153	1
70	75	1
19	21	1
113	121	1
223	243	1
175	225	1
9	152	1
169	229	1
62	77	1
19	26	1
12	15	2
189	231	1
25	26	2
61	65	2
154	229	2
94	216	1
26	32	1
45	52	1
102	106	1
108	110	1
158	160	1
221	239	1
56	66	1
19	188	1
71	108	1
230	234	1
75	104	1
173	182	1
226	228	1
115	170	1
170	185	1
206	246	1
177	210	1
16	174	2
193	195	2
153	170	1
172	174	1
36	40	1
59	69	1
81	83	1
105	116	1
0	1	1
49	61	1
105	117	1
83	103	1
22	34	1
225	229	1
5	224	1
69	86	2
48	50	2
113	120	1
92	115	2
50	65	3
72	102	1
81	97	1
54	57	2
185	191	1
183	194	1
209	221	1
85	94	1
183	200	1
17	33	1
219	221	1
227	246	1
52	59	1
80	86	1
237	239	1
156	182	1
87	192	1
160	221	1
93	94	1
67	74	1
76	81	1
101	103	1
51	153	1
8	28	1
218	246	1
223	242	1
87	175	1
119	121	1
65	71	1
159	223	1
198	211	1
7	12	1
212	230	1
33	151	1
235	242	1
