33	33	9
52	52	13
5	5	7
72	72	9
62	62	10
60	60	11
14	96	4
19	19	3
78	109	2
63	63	9
49	107	3
29	99	2
18	18	6
88	89	1
0	25	3
61	61	9
100	100	10
86	86	7
47	47	5
103	104	2
71	71	5
92	93	2
93	93	7
52	115	1
30	30	9
15	15	6
53	53	2
124	124	1
55	55	5
101	101	8
96	98	1
29	29	6
21	92	2
27	27	5
19	26	1
127	130	1
133	133	3
126	134	1
119	119	1
121	129	2
122	122	12
114	134	1
113	113	2
9	11	7
97	97	16
58	58	3
69	91	2
85	85	1
82	107	1
84	84	5
99	99	8
12	12	19
62	64	1
34	35	1
35	35	12
96	96	7
38	38	5
61	71	4
57	58	2
14	14	5
22	22	4
67	68	3
1	4	4
84	113	2
124	125	3
104	104	9
87	87	6
120	120	16
70	70	10
74	74	19
5	55	2
69	72	1
103	118	2
65	65	8
43	49	3
25	25	12
118	118	12
64	64	4
3	3	5
52	116	3
116	117	4
72	73	4
10	11	5
98	98	4
121	121	7
22	25	2
61	115	1
127	128	17
76	76	5
78	107	4
79	80	3
126	128	6
56	57	2
1	1	7
57	57	5
56	56	2
46	90	1
44	44	14
3	4	5
54	54	8
68	69	7
78	78	2
127	127	14
0	0	15
84	85	2
65	66	3
132	132	2
100	110	5
58	59	4
70	71	3
13	14	5
0	127	2
129	132	1
26	27	8
2	2	10
130	130	6
32	32	5
4	84	1
15	17	1
75	75	3
15	28	3
80	80	7
75	134	2
54	64	3
17	23	2
7	7	5
82	82	3
100	134	3
28	28	6
92	92	5
15	27	3
112	112	8
31	31	2
26	30	1
88	88	2
126	126	3
59	59	5
71	72	4
90	90	3
91	91	1
24	25	2
34	34	1
75	77	1
16	16	7
91	96	1
43	43	4
95	95	6
36	36	3
33	82	2
35	36	4
120	129	7
135	135	1
106	106	7
46	47	1
11	13	3
83	83	2
125	126	4
62	63	11
49	50	2
8	8	1
114	114	4
59	60	2
103	103	4
115	115	6
110	132	2
89	89	1
77	77	8
66	66	3
20	20	6
50	50	4
79	105	2
5	59	3
91	92	5
37	37	2
91	95	3
110	133	3
13	13	2
1	2	1
106	108	2
109	110	3
52	80	2
81	81	2
122	124	1
10	10	3
24	26	3
112	130	3
24	24	3
131	131	6
110	110	6
55	60	2
26	26	3
89	105	1
67	98	2
24	59	1
16	17	6
2	4	1
0	1	1
78	113	4
97	98	1
13	18	3
108	108	4
68	75	3
60	61	4
3	54	1
71	93	2
80	132	2
3	29	1
23	24	1
111	111	1
119	129	1
38	44	1
6	35	2
94	94	7
107	133	2
94	95	2
73	126	1
98	99	1
44	86	4
90	124	2
109	109	9
18	21	3
102	102	4
64	65	1
68	68	3
23	23	7
54	62	1
30	31	3
60	101	2
11	11	1
118	119	4
110	118	3
2	3	2
52	75	1
5	24	1
129	130	7
14	15	2
69	69	2
121	127	2
61	62	2
6	6	5
134	134	7
54	60	2
123	123	1
79	79	5
1	5	1
95	96	4
6	12	2
101	116	3
6	7	3
7	10	1
4	4	4
72	102	1
81	104	1
4	5	1
87	88	3
15	19	2
116	116	1
33	34	1
49	113	2
16	128	1
93	95	1
125	125	6
44	78	2
56	117	1
117	117	3
30	33	3
14	17	2
106	113	1
47	86	1
111	116	2
16	37	2
17	17	1
22	23	1
128	128	2
33	71	2
56	78	2
90	91	1
110	130	2
72	74	3
5	11	3
115	119	1
105	105	1
50	108	1
48	98	1
49	108	1
92	95	1
109	128	2
128	129	1
25	26	1
57	60	1
67	69	2
81	132	1
64	67	1
55	68	1
12	22	1
106	107	1
73	73	2
32	80	1
63	69	1
9	9	1
71	73	1
80	130	3
6	10	2
80	127	2
108	109	1
93	104	1
80	81	1
43	61	1
79	82	1
104	105	2
73	74	1
64	66	1
97	99	1
42	52	1
50	77	1
2	31	1
