33	33	11
62	62	4
26	81	2
131	131	7
101	133	2
43	45	2
45	45	10
107	107	12
82	82	15
35	37	6
94	94	11
29	29	5
112	112	2
5	6	6
35	36	5
146	146	8
19	19	9
36	36	10
90	90	3
23	25	2
134	134	5
83	84	2
35	35	21
86	87	5
11	11	3
141	142	5
75	75	12
72	75	4
48	48	7
118	118	9
133	133	8
47	48	1
132	133	3
125	127	10
77	107	5
84	84	3
105	105	7
44	44	1
146	148	1
107	108	4
75	77	7
38	38	17
129	129	13
37	38	9
136	137	6
15	31	5
101	102	4
99	99	13
6	6	11
72	73	4
23	23	9
95	95	13
18	18	4
81	81	10
76	76	8
129	141	2
37	37	8
43	43	9
31	31	17
93	93	5
78	78	13
70	70	9
20	20	4
20	21	5
87	87	5
8	11	2
149	149	8
7	8	6
71	128	5
16	16	8
101	101	4
77	77	5
21	21	6
121	127	6
91	95	3
68	69	6
115	115	11
56	57	1
28	29	13
113	113	13
20	40	3
94	147	1
66	66	4
16	41	9
24	24	5
144	144	9
4	5	3
136	136	14
15	16	7
145	146	2
80	81	1
123	128	6
142	142	9
13	13	5
80	86	1
67	67	6
42	42	9
96	96	4
142	143	3
108	108	4
121	121	6
106	106	11
34	34	9
55	55	4
67	68	2
30	31	6
80	80	15
147	149	3
119	119	2
40	40	5
78	79	4
84	86	2
110	113	3
29	82	4
26	27	8
120	127	3
103	104	2
135	138	3
102	102	5
26	26	6
5	9	5
104	104	9
109	109	8
65	65	7
122	137	2
77	79	9
94	95	7
71	133	2
138	138	11
33	34	1
82	83	2
74	102	5
17	20	3
56	56	14
66	85	3
10	10	5
103	103	13
72	72	4
110	110	8
63	64	3
77	106	1
74	74	14
124	125	4
111	111	2
20	37	2
122	127	3
130	142	1
4	6	4
49	49	2
27	27	14
123	124	12
46	46	5
14	22	1
28	28	2
39	40	4
66	83	1
93	95	3
81	82	8
64	65	6
76	79	1
138	139	2
152	153	8
32	32	5
62	107	3
123	123	10
147	148	4
143	144	1
79	107	4
96	98	3
135	136	3
120	120	17
82	87	5
73	88	1
51	54	2
150	150	13
100	102	1
13	23	5
21	37	3
122	125	2
152	152	3
104	128	1
92	92	5
151	151	8
139	139	3
53	54	3
34	35	1
77	78	3
51	52	2
137	138	1
71	100	2
100	100	3
109	110	8
141	141	3
124	128	3
119	127	2
127	128	2
122	122	1
10	11	5
145	145	11
17	17	8
76	106	6
68	68	7
81	90	1
12	13	1
117	118	3
3	3	5
93	94	6
9	9	8
127	127	2
44	57	3
62	108	1
65	66	5
24	25	3
82	90	3
139	143	2
143	143	5
134	135	1
88	88	5
130	132	1
23	24	5
142	144	1
73	93	1
129	133	5
24	28	1
98	98	2
11	12	4
23	31	2
79	79	2
153	153	4
49	50	4
106	108	2
111	112	1
76	80	4
96	147	2
147	147	4
73	74	2
70	71	4
119	120	2
131	137	4
20	39	3
94	99	4
9	11	2
126	126	1
57	57	3
148	148	3
96	99	5
22	23	3
123	126	1
54	54	3
47	47	1
16	17	5
25	25	4
38	39	3
132	132	2
124	124	4
46	47	1
63	68	2
17	41	1
8	8	11
19	76	2
30	30	3
16	21	2
39	39	6
14	14	6
44	45	1
101	103	2
144	146	2
124	127	2
26	31	1
66	67	5
12	12	7
137	137	3
130	130	5
68	71	2
150	151	3
154	154	7
132	144	3
117	117	1
27	29	2
19	41	1
100	101	2
133	134	2
58	58	2
69	69	2
63	70	2
46	50	1
83	83	3
77	85	3
22	22	5
103	131	1
67	85	4
4	4	6
104	105	1
50	51	3
41	41	2
12	25	1
5	5	5
25	29	2
120	124	2
140	141	2
76	77	3
105	127	1
129	130	1
135	135	6
72	104	2
29	30	2
26	29	2
94	146	2
93	101	2
34	80	2
135	137	4
8	9	4
30	83	2
121	139	1
116	116	2
139	140	1
118	119	2
131	132	1
15	15	2
73	73	2
50	52	1
18	86	2
119	124	1
16	18	1
73	102	1
48	49	3
50	62	2
149	151	1
18	19	2
50	50	2
120	139	2
126	127	1
22	31	3
121	123	2
79	87	2
63	67	4
73	75	1
146	151	1
57	58	2
66	99	2
76	78	1
114	114	2
120	141	2
101	148	1
45	46	1
27	28	1
105	107	1
130	143	1
104	143	2
85	86	1
65	86	1
21	39	1
97	98	2
19	20	1
53	53	2
128	132	2
31	32	1
116	117	1
95	98	1
63	85	2
141	143	1
122	123	1
56	58	1
14	21	1
8	10	1
4	8	1
28	83	1
72	74	1
97	97	1
62	63	1
88	90	1
49	54	3
87	88	1
68	76	1
2	2	1
102	104	1
81	84	1
18	84	1
108	109	2
63	63	2
71	104	1
145	147	1
146	147	1
130	131	1
69	70	1
106	107	1
121	122	1
