38	38	10
50	51	7
98	98	9
96	97	5
78	78	9
71	85	5
96	96	9
42	42	6
78	80	3
52	53	13
78	97	2
44	44	11
79	80	1
73	73	12
88	89	3
34	54	3
100	100	5
45	45	4
60	60	7
51	54	1
81	82	3
57	57	16
62	62	18
25	25	5
65	66	2
94	94	7
70	70	14
95	95	4
31	33	3
31	31	12
90	90	16
52	52	16
35	35	4
42	43	6
68	68	13
46	46	5
74	74	10
83	83	13
77	77	5
71	71	13
50	50	4
79	81	4
93	93	9
85	85	7
46	47	3
59	60	5
39	39	12
64	64	7
53	62	1
92	93	1
67	67	20
83	84	3
61	61	10
80	98	1
88	88	10
86	92	1
68	70	7
101	101	7
51	52	1
53	53	6
22	22	5
89	89	3
81	81	15
69	69	7
52	59	1
67	68	2
29	29	7
91	91	9
102	102	3
87	88	2
64	66	2
49	50	1
34	46	4
79	98	3
34	48	3
75	75	10
91	92	4
86	86	11
40	40	4
65	65	13
56	57	3
25	26	6
56	56	14
84	85	2
34	51	2
67	70	10
79	79	13
63	63	14
23	24	2
86	89	6
92	92	13
28	28	4
72	85	3
97	98	3
61	62	5
78	79	13
41	41	5
66	73	1
99	99	3
73	74	1
76	77	2
66	66	8
52	61	2
49	49	5
58	59	3
74	75	4
68	69	1
59	59	5
70	71	7
27	33	2
52	89	1
45	49	2
87	87	4
76	76	11
52	55	2
58	58	3
79	84	3
55	55	7
53	89	1
24	25	1
43	43	3
47	47	3
48	48	11
52	60	1
57	58	4
83	86	2
24	24	3
34	34	2
86	87	2
52	88	2
72	72	2
66	67	3
37	37	3
33	33	6
39	46	1
84	84	10
26	26	2
36	36	6
36	84	2
31	32	2
54	54	2
45	48	4
65	67	3
85	86	1
75	76	3
60	61	2
80	80	2
82	96	1
63	64	2
34	57	3
94	95	1
43	76	2
48	56	1
36	41	1
77	80	1
91	94	1
93	96	2
94	96	1
51	51	5
71	87	1
41	42	1
79	90	1
28	29	2
30	32	1
71	72	2
80	81	2
32	33	1
93	94	2
75	78	2
69	71	2
35	51	1
82	82	3
23	25	4
87	94	1
32	32	1
33	46	2
97	97	1
101	102	2
50	55	1
83	96	1
33	34	1
50	56	1
66	68	1
77	78	1
