149	151	6
88	88	28
16	16	16
42	42	19
27	27	17
25	25	24
4	4	8
63	64	6
181	189	1
72	73	10
53	53	21
184	184	19
159	159	22
63	63	16
96	96	29
140	140	16
129	130	1
78	78	19
142	142	6
106	108	1
116	116	18
14	44	3
86	86	22
49	49	21
168	168	30
172	172	16
150	152	5
130	130	22
102	102	27
177	178	8
132	132	17
64	64	24
148	149	4
6	6	14
39	39	23
12	157	4
112	113	9
13	181	5
59	59	26
128	129	8
99	99	16
72	72	17
191	191	28
47	48	5
141	141	23
43	43	27
179	179	16
38	42	6
57	99	1
181	181	19
99	101	5
186	186	5
100	100	17
133	136	2
118	194	4
3	3	20
192	193	7
17	17	23
36	37	16
127	127	25
167	167	16
6	7	12
61	61	11
119	171	7
50	51	9
14	14	16
157	159	7
113	113	32
13	13	32
154	154	35
164	164	16
28	76	5
173	173	20
108	116	2
67	67	28
125	125	19
145	145	10
127	133	1
40	42	6
133	133	20
173	174	4
66	66	10
30	30	25
39	87	4
97	97	17
98	98	24
12	12	22
151	151	9
106	106	14
118	118	18
46	46	26
123	126	10
74	74	15
112	112	13
0	1	7
139	139	23
62	62	23
150	150	9
119	119	12
18	18	24
57	57	15
114	114	11
137	140	10
11	156	8
23	135	3
189	189	13
124	124	17
126	126	12
159	171	5
174	174	7
17	18	9
156	156	31
28	28	19
158	158	27
140	141	6
38	39	12
133	134	7
23	23	21
95	188	7
89	89	17
48	48	24
9	9	32
131	132	8
1	1	25
148	148	40
165	165	16
163	164	11
143	149	2
111	112	7
129	129	12
42	44	3
153	153	19
112	155	2
56	56	15
143	143	28
178	178	13
24	24	19
13	54	4
70	70	19
152	153	9
65	65	8
78	114	1
185	185	19
14	15	1
108	108	14
170	170	12
26	160	2
96	97	6
123	128	3
6	75	7
30	194	2
11	11	37
59	72	2
156	171	1
111	158	12
8	86	7
44	44	17
41	41	27
111	111	28
37	37	13
71	71	25
27	29	3
87	87	20
187	187	16
180	180	22
134	134	14
178	179	4
47	47	19
31	195	4
7	7	11
131	131	21
22	22	22
162	162	21
161	161	14
37	42	1
39	42	5
100	102	2
69	69	36
66	68	12
121	133	3
196	197	4
21	21	27
5	8	2
15	56	1
119	120	5
34	39	2
80	85	4
2	2	14
45	158	5
175	175	23
95	95	15
19	21	7
143	145	5
34	35	12
1	2	9
8	8	17
11	12	3
109	109	16
71	183	3
162	167	2
160	160	20
165	167	4
15	44	6
73	73	17
82	82	11
31	33	4
35	35	23
163	163	27
98	99	12
138	140	11
135	135	14
60	60	12
135	136	2
22	28	1
144	154	6
45	46	3
88	89	5
178	180	1
86	87	6
93	95	2
147	151	3
155	156	14
106	107	4
34	34	28
24	133	1
66	67	3
128	128	23
84	84	18
136	168	6
188	189	8
186	187	3
21	22	4
105	105	9
15	15	20
75	76	9
81	90	2
197	197	9
22	24	8
64	109	1
33	33	24
73	79	1
73	78	4
120	195	4
123	123	29
119	174	6
38	38	19
149	149	14
64	65	7
10	10	13
68	68	27
25	26	4
65	68	4
162	163	4
55	103	1
189	190	12
160	161	2
45	47	2
171	172	7
37	44	5
80	83	3
190	190	23
126	140	1
31	31	28
193	194	13
107	107	21
179	180	6
62	63	6
95	96	6
55	55	10
101	101	16
55	56	9
16	17	14
121	142	4
183	184	5
51	52	4
97	161	3
137	137	14
138	138	15
25	31	4
15	16	3
166	166	18
152	152	26
58	58	23
103	103	26
103	132	4
0	2	5
80	80	9
147	147	17
194	194	7
79	79	22
32	32	22
77	77	8
115	115	22
121	121	25
165	166	6
94	95	14
36	36	28
196	196	19
156	158	4
136	169	3
170	172	5
14	18	1
81	81	12
46	47	8
164	166	1
5	6	13
60	145	2
19	19	13
134	135	5
59	98	2
13	114	1
144	144	6
70	71	8
83	84	4
183	183	42
120	133	6
40	40	17
176	176	6
59	75	4
120	121	3
185	186	5
24	161	1
113	197	8
132	133	4
99	169	2
167	168	6
116	173	6
9	10	9
53	54	7
187	188	19
44	45	7
51	51	10
8	14	2
108	110	2
160	163	1
122	123	2
117	118	11
195	195	9
95	104	4
164	165	13
132	162	6
54	55	10
71	78	4
155	155	9
12	13	10
85	89	4
173	175	6
117	168	4
5	34	1
105	106	8
29	192	4
74	80	2
93	93	9
18	37	3
19	20	10
104	104	15
110	110	9
157	164	1
106	113	1
193	193	18
7	8	4
35	36	5
69	85	1
8	75	6
53	55	7
136	137	7
22	23	6
136	136	26
121	122	11
0	0	23
64	68	3
50	50	15
22	26	4
26	26	35
135	137	4
116	118	4
185	188	4
16	18	5
20	20	18
169	169	9
25	162	1
57	58	3
145	158	4
79	89	4
37	38	6
125	126	4
120	120	19
182	182	8
130	132	6
29	29	7
38	43	5
11	113	2
146	147	5
114	115	12
79	80	4
45	45	13
166	167	10
81	82	4
139	184	3
127	183	5
115	176	1
122	122	12
83	83	29
24	89	3
19	80	2
191	192	6
50	52	3
113	157	1
168	169	5
62	100	1
150	151	6
40	41	9
2	3	9
180	182	2
41	87	1
126	127	6
94	94	6
20	21	9
11	136	1
184	186	3
157	157	19
145	155	5
1	87	1
43	44	1
71	72	1
174	175	12
156	166	4
145	146	9
166	168	4
142	143	3
3	4	6
67	71	3
117	117	7
98	103	2
107	108	5
58	59	6
30	135	1
138	139	5
71	196	3
5	5	16
109	113	3
130	144	7
128	140	4
172	174	4
116	175	1
99	162	1
71	182	4
78	184	5
87	88	6
141	142	3
15	17	2
120	170	5
113	115	1
185	195	4
190	192	1
39	40	12
42	43	5
19	81	4
76	77	6
5	7	6
108	111	1
63	65	1
190	191	6
175	176	2
75	80	1
169	172	1
123	124	4
137	166	2
33	39	4
100	101	7
52	52	11
116	117	8
49	50	3
170	173	5
32	33	3
141	184	3
158	159	7
145	149	1
23	33	2
3	6	3
177	177	17
4	8	3
60	73	1
30	31	8
136	165	4
22	89	3
122	141	4
57	70	3
188	190	1
113	114	6
83	85	5
0	5	2
54	54	20
99	100	1
98	161	1
6	94	1
159	170	1
28	115	2
159	160	2
118	119	7
24	25	8
56	109	2
78	178	1
45	111	2
41	42	3
108	109	9
23	134	2
27	115	4
19	34	1
147	162	2
176	177	10
10	14	3
43	45	4
117	119	1
30	136	3
115	116	1
139	140	10
129	141	4
3	12	2
61	69	3
101	103	3
163	166	5
141	179	1
60	61	4
27	136	4
73	75	3
171	171	8
25	159	5
154	155	10
61	62	2
119	196	2
175	185	1
192	192	11
76	78	2
42	75	2
117	169	2
146	154	3
104	143	3
27	28	1
65	73	1
82	84	1
45	110	1
120	134	1
153	154	1
95	97	3
184	188	7
181	184	1
180	181	3
97	98	8
94	105	1
188	188	4
25	174	2
169	170	2
2	41	6
143	159	2
26	27	2
25	27	2
195	196	5
17	32	3
139	172	2
142	184	1
151	152	3
62	101	3
127	128	4
34	38	1
10	56	1
190	193	3
110	158	2
80	81	4
130	131	6
103	104	2
88	90	2
171	174	2
38	40	2
155	161	1
119	178	1
2	4	4
76	76	8
47	55	2
147	148	5
29	30	7
145	171	1
16	81	1
134	142	1
31	32	6
143	161	1
56	107	2
25	160	3
113	159	2
146	146	3
136	139	2
155	171	1
93	94	2
77	78	6
54	181	1
13	55	2
36	84	5
4	6	2
102	103	7
137	138	3
21	24	3
149	152	4
54	59	2
118	159	2
127	139	2
162	168	1
109	158	3
131	162	2
29	113	3
16	36	1
56	104	1
97	105	2
158	167	3
159	187	1
112	134	3
42	106	2
6	19	1
34	40	2
85	86	2
73	74	2
8	10	2
74	77	1
174	177	2
95	187	1
142	181	1
85	85	4
59	62	1
104	105	3
114	143	2
68	70	2
38	44	1
31	101	1
142	178	5
62	93	1
72	79	3
12	109	2
154	171	1
104	158	1
100	135	3
2	81	3
10	11	2
114	176	1
176	178	3
58	89	1
135	169	1
79	182	2
5	33	2
48	108	2
173	178	2
160	194	2
116	196	1
3	41	2
110	139	1
21	28	3
13	61	2
134	141	2
99	103	2
127	140	1
160	186	1
161	162	2
84	85	2
170	171	1
34	37	1
195	197	1
13	14	1
155	157	2
82	83	1
9	44	3
99	161	1
167	169	1
110	111	1
145	161	3
116	190	4
101	165	2
23	24	2
125	127	2
42	195	2
124	125	2
179	189	1
144	148	1
156	157	1
36	86	1
155	159	5
84	87	1
69	72	1
37	43	1
12	108	1
126	128	2
120	172	2
122	129	1
71	73	1
100	161	1
79	82	2
101	160	3
45	76	1
134	138	1
53	105	1
20	23	2
77	115	1
60	101	3
66	71	1
111	113	2
36	39	2
119	173	2
12	136	1
18	19	1
41	94	1
11	30	3
142	148	1
117	175	1
131	163	1
186	188	3
121	137	4
101	109	1
69	71	1
163	167	2
78	180	2
44	56	1
70	196	1
95	154	1
1	3	1
143	152	1
58	61	1
181	185	3
78	79	2
43	56	1
64	93	2
1	82	2
101	107	2
94	187	1
78	177	1
33	37	3
8	13	1
0	41	2
56	85	1
9	14	1
64	66	1
134	140	2
112	156	1
138	171	1
122	140	1
0	112	1
54	114	1
96	98	1
113	158	1
27	159	1
77	80	1
121	134	1
162	169	1
156	164	1
87	90	1
105	107	1
57	59	3
95	192	1
179	182	1
49	52	1
90	90	1
114	195	1
23	25	1
47	54	1
49	184	1
102	106	1
80	82	1
146	157	1
120	132	1
59	60	1
74	89	1
52	106	1
66	69	1
184	185	1
123	125	1
35	39	1
33	57	1
38	45	1
161	163	1
11	31	1
