211	211	7
33	33	9
22	22	8
125	187	4
144	144	5
235	235	2
233	235	4
30	30	7
240	240	13
72	72	7
56	56	1
28	31	3
230	230	7
123	123	7
83	83	6
117	117	9
109	109	9
80	82	4
231	231	6
178	179	2
208	208	13
0	1	2
138	209	3
42	49	1
122	123	8
163	163	7
171	171	4
134	135	4
12	56	3
69	69	14
233	233	6
112	112	6
181	181	6
209	211	2
223	223	6
194	196	2
203	203	9
89	89	6
70	70	4
191	191	7
170	170	9
86	86	12
127	127	5
66	67	3
59	59	7
210	210	6
117	118	4
21	21	7
9	9	7
69	74	2
64	64	13
208	224	2
81	81	7
59	60	2
163	164	1
126	183	1
204	225	1
143	143	5
84	84	13
29	30	3
37	37	10
136	136	8
203	208	1
60	60	9
206	206	12
52	53	7
33	49	4
65	67	4
14	14	12
223	226	1
66	66	4
84	85	4
190	190	8
180	180	12
12	12	8
85	85	14
44	45	1
179	179	4
206	210	2
199	199	5
156	156	7
216	230	2
204	204	5
237	237	6
115	115	4
39	39	9
227	227	6
47	47	5
66	68	1
43	43	7
195	220	5
123	124	7
118	118	8
32	65	3
216	216	4
139	139	5
41	42	4
219	219	8
104	105	3
212	212	3
16	16	4
225	225	1
67	67	10
226	226	8
188	190	2
227	228	2
63	64	2
145	148	1
155	155	11
205	207	5
127	163	1
194	195	3
49	63	3
105	105	7
30	42	5
6	6	3
140	140	6
173	173	7
62	62	4
5	5	4
145	145	3
215	215	14
36	36	2
217	231	5
8	8	1
135	135	4
232	232	8
184	184	9
4	5	12
159	160	4
24	24	10
178	178	6
200	200	8
75	75	6
229	229	9
66	69	4
85	233	3
11	12	2
25	25	8
222	222	5
167	168	7
40	41	7
61	61	7
198	199	2
31	31	8
58	58	11
135	200	7
100	100	6
205	205	6
171	203	2
177	177	7
165	168	2
48	48	7
182	191	2
164	167	2
7	7	15
26	37	3
102	102	5
148	150	3
82	82	4
54	55	2
196	196	1
232	233	1
116	116	5
147	147	3
202	202	2
119	119	8
191	192	1
137	224	3
160	160	8
185	185	6
1	2	5
106	106	3
133	133	3
128	128	2
201	202	2
236	236	6
146	146	8
138	138	6
11	11	10
40	40	9
37	38	4
49	49	4
238	239	4
57	57	4
77	77	4
49	50	4
54	54	7
121	121	5
193	195	2
142	142	5
170	174	2
38	38	5
46	46	8
164	165	5
35	35	2
172	172	7
170	191	3
212	229	1
237	238	2
187	187	5
134	139	2
165	165	1
204	206	2
151	151	5
21	22	2
150	151	5
126	126	5
209	210	1
144	145	1
176	176	4
180	232	2
204	231	2
131	131	1
73	152	2
103	103	2
0	0	9
91	91	1
218	218	4
68	68	4
212	213	6
113	113	3
136	137	2
35	37	5
182	182	3
232	236	2
201	201	1
104	104	2
169	169	10
236	237	5
26	38	3
2	2	5
193	194	1
115	116	2
213	229	3
228	228	7
60	62	4
147	180	3
123	125	5
74	74	3
8	9	3
2	3	3
110	114	2
41	41	5
4	4	4
207	209	2
80	80	5
42	43	7
176	210	3
50	50	5
187	188	3
31	33	4
240	241	1
193	193	3
32	32	2
130	132	2
28	28	3
148	148	3
174	174	2
166	167	1
99	99	2
144	149	1
14	76	3
211	212	3
137	137	4
95	96	2
12	13	2
72	73	3
174	178	2
26	26	4
99	121	3
234	235	1
198	198	4
125	125	6
122	122	4
229	231	5
207	207	2
78	79	6
15	44	2
55	55	2
101	159	1
53	55	1
116	189	2
175	175	11
241	241	3
49	60	1
118	119	6
146	233	4
20	30	4
213	214	2
20	20	3
137	138	3
126	166	2
195	195	8
71	71	4
223	224	2
127	134	4
1	1	2
33	47	1
111	152	2
111	111	4
195	196	2
109	119	2
132	136	1
215	216	2
207	228	1
95	95	1
23	24	1
34	60	2
56	57	3
176	178	3
186	186	1
76	76	6
159	159	5
7	13	2
111	112	3
108	120	1
25	26	3
51	51	1
69	70	1
179	205	1
146	147	1
50	51	3
181	182	5
8	15	2
171	194	1
15	16	7
75	88	1
242	242	8
234	234	2
18	52	2
101	101	8
214	214	10
53	53	5
162	162	1
153	153	4
204	205	2
154	154	3
107	107	1
42	42	8
199	200	4
150	150	2
43	49	1
204	207	2
97	97	6
220	220	3
11	75	2
39	40	1
18	18	3
133	134	2
98	109	1
76	77	4
7	8	6
79	80	3
183	183	1
1	3	4
35	36	2
73	73	6
173	174	1
197	197	3
14	15	2
158	158	7
185	230	1
13	13	3
163	165	1
75	76	1
10	47	3
226	227	3
145	146	2
170	192	1
2	95	4
61	63	1
164	164	1
239	239	9
230	231	2
174	176	1
214	215	2
161	163	1
78	88	2
134	134	2
151	152	2
167	190	1
120	120	5
73	74	2
15	15	5
192	193	2
224	224	3
1	107	1
149	149	4
50	62	1
141	160	2
177	178	1
18	19	1
201	203	1
167	167	2
31	32	1
166	166	1
209	209	1
213	213	2
172	173	1
197	198	3
233	236	1
139	167	3
220	221	1
48	62	1
208	209	3
108	189	1
114	114	1
36	60	2
198	221	1
65	65	1
23	23	2
183	186	1
228	231	1
67	68	2
6	35	2
217	218	1
141	141	3
152	152	1
81	150	1
52	55	3
22	23	2
101	156	2
124	189	1
174	175	2
141	182	2
194	194	2
83	84	1
75	189	2
111	150	1
17	17	4
37	43	1
34	34	4
43	60	1
63	66	2
233	238	1
3	8	3
128	162	1
221	223	1
137	200	1
191	204	1
84	145	4
147	148	1
76	90	2
63	63	2
57	58	2
44	44	1
180	183	2
132	132	1
238	238	6
45	63	1
0	119	1
20	21	1
211	229	2
69	71	2
118	124	1
85	146	1
124	124	2
214	216	1
116	118	2
120	121	1
62	65	1
192	192	1
19	19	1
22	24	1
176	206	2
108	108	3
122	190	1
188	188	2
27	28	1
183	184	1
213	216	1
29	47	1
126	163	1
127	133	1
27	27	1
2	4	2
182	183	1
23	25	1
70	72	1
7	16	1
7	14	1
153	237	1
131	201	1
29	29	2
205	230	2
91	117	1
233	240	2
164	168	1
43	58	2
153	154	1
46	62	1
8	95	1
123	166	1
137	199	1
29	31	1
19	55	1
78	84	1
162	163	1
108	114	1
157	157	1
119	120	1
86	151	1
98	156	1
145	147	1
212	230	1
160	161	1
102	105	1
10	10	1
