161	161	3
50	50	3
53	110	2
2	2	2
93	93	1
60	64	2
180	209	1
16	16	11
9	226	2
181	182	5
165	165	10
36	36	3
90	90	1
201	201	1
103	119	3
154	156	2
238	239	2
92	92	7
82	83	3
178	178	1
228	229	1
174	174	4
177	177	2
118	119	5
85	85	4
102	102	10
234	234	6
167	204	2
101	101	4
45	46	1
111	111	9
107	107	5
202	230	4
183	183	2
113	113	6
54	66	1
115	115	5
23	23	6
202	202	2
246	247	2
248	248	2
0	26	4
103	113	1
73	73	4
54	65	1
36	37	2
50	247	4
37	37	3
207	231	1
22	22	5
221	221	2
216	218	4
51	51	1
201	206	6
61	61	5
97	97	3
191	193	4
79	88	1
166	166	2
217	218	2
214	214	3
185	185	4
228	228	2
57	119	1
14	15	5
152	152	2
57	67	2
32	32	5
203	203	3
33	41	1
177	186	4
211	219	7
200	200	1
158	158	1
210	211	6
41	41	4
74	92	1
118	118	3
239	239	7
247	247	2
196	197	4
58	60	3
224	224	2
216	216	2
227	227	4
54	80	2
155	155	2
26	26	1
117	117	2
72	72	3
38	38	4
213	220	2
5	5	2
49	90	1
51	52	1
1	1	4
48	50	2
19	22	2
75	75	11
240	240	1
90	91	1
21	21	2
116	116	1
218	219	1
99	100	1
233	233	1
77	77	4
167	167	3
163	164	2
49	89	3
62	152	1
114	114	3
175	175	6
80	84	1
145	239	1
7	11	4
114	173	1
86	116	1
109	109	5
115	116	1
31	31	3
90	245	1
69	69	3
74	74	2
60	61	5
212	222	4
204	204	2
229	229	2
62	64	3
42	43	2
9	9	2
151	151	5
81	82	3
45	60	3
203	204	5
215	215	4
11	15	5
96	96	4
192	192	2
161	172	2
48	90	1
159	159	2
4	5	4
24	24	3
93	96	2
202	244	1
78	88	4
98	98	4
211	211	1
186	186	2
66	67	2
110	111	1
179	179	6
96	224	1
111	247	1
37	39	1
86	88	4
212	232	3
113	234	1
189	189	2
88	89	1
231	243	1
68	69	2
193	194	4
11	11	5
41	43	1
49	49	1
220	232	2
225	226	2
6	16	1
5	99	1
99	105	1
3	90	2
53	68	1
176	176	6
78	78	4
190	190	3
195	212	1
101	102	4
76	76	3
228	244	3
62	62	1
33	33	2
39	79	1
34	34	4
56	77	2
205	205	3
54	54	2
95	98	2
40	40	4
33	37	3
70	70	2
113	230	2
15	25	2
178	232	1
200	223	1
30	30	3
33	76	3
91	91	1
216	219	1
169	169	4
44	44	1
160	174	1
157	157	1
204	205	1
212	213	3
196	196	1
102	103	2
89	247	1
155	164	3
8	8	3
104	104	3
60	60	1
27	27	1
57	57	2
195	221	1
63	63	2
111	112	1
10	10	1
56	78	1
6	246	1
156	156	2
213	213	3
68	68	3
164	164	2
81	81	2
162	162	1
206	206	1
20	20	1
159	192	1
35	35	1
209	209	1
218	218	4
85	109	1
155	158	3
40	42	1
30	47	1
6	7	3
159	172	1
197	197	1
14	14	1
170	170	4
216	217	1
95	200	1
78	86	2
235	238	1
194	194	1
89	101	1
207	241	2
29	29	1
154	155	1
187	187	1
15	16	1
12	12	1
58	58	1
22	36	2
18	18	1
30	31	1
158	166	1
74	75	2
214	215	1
10	201	1
52	109	1
10	11	2
56	66	1
38	39	4
53	77	1
28	28	1
237	237	1
59	59	1
13	13	1
231	231	1
72	73	2
167	173	1
46	46	1
173	173	1
226	226	2
189	241	1
86	86	1
113	114	1
56	56	1
233	240	1
181	181	1
