51	51	7
74	74	3
41	42	7
89	89	4
25	25	6
132	132	4
124	124	6
110	110	14
11	12	2
98	98	4
130	131	4
44	44	9
31	31	3
107	107	10
38	38	2
83	84	2
13	13	7
47	47	6
3	3	4
2	2	5
11	14	4
103	103	2
5	5	2
59	60	2
18	29	3
116	116	3
29	31	5
27	68	2
22	24	2
102	102	5
82	82	13
112	113	1
57	57	8
112	112	8
122	122	4
14	14	9
87	99	2
128	128	1
121	123	2
103	104	5
5	12	5
60	60	4
6	6	8
11	11	13
133	133	3
91	91	2
109	124	3
47	101	2
63	63	5
46	46	6
71	71	15
41	41	10
130	130	7
65	66	5
52	52	5
96	96	1
4	4	11
27	27	2
32	32	4
17	17	5
72	72	6
99	99	6
22	22	9
81	81	5
25	26	3
115	115	9
110	113	1
18	19	2
79	79	3
95	95	4
28	28	3
79	80	3
101	102	1
42	42	4
19	19	4
33	33	4
100	115	2
111	111	1
39	39	13
22	23	2
15	15	5
102	103	3
32	33	3
87	87	4
43	43	3
92	92	4
77	77	5
126	126	3
40	40	5
41	99	2
85	85	3
100	101	3
64	64	9
121	121	2
73	73	4
80	80	4
113	113	1
10	10	4
117	117	6
120	121	4
114	114	4
118	118	4
119	119	2
56	56	3
48	48	4
23	23	3
55	55	4
0	1	1
92	97	4
125	125	4
59	59	7
83	85	2
54	54	4
61	61	8
106	106	6
16	16	6
129	129	2
115	124	2
83	83	4
88	88	2
104	104	5
94	94	4
20	39	1
39	40	4
84	84	2
13	40	1
45	45	3
18	18	4
105	106	3
63	64	8
17	70	2
9	20	1
86	114	3
82	92	1
88	89	2
81	84	1
104	106	2
128	129	3
21	21	4
69	69	8
60	74	2
30	30	4
100	100	2
29	29	5
92	93	2
53	53	2
49	50	3
105	107	1
85	88	2
62	63	1
26	26	9
67	67	3
62	62	7
9	10	3
109	109	3
123	123	1
61	62	6
67	69	2
82	84	3
105	105	5
66	89	2
96	97	2
93	93	5
91	92	2
88	94	1
75	75	5
64	82	2
65	92	1
86	86	9
8	8	3
118	126	1
70	86	3
50	50	7
78	78	4
116	117	2
26	68	1
9	9	2
119	132	1
28	29	2
76	77	4
68	68	2
89	90	4
49	49	2
13	44	3
87	88	1
83	131	2
105	124	3
66	66	6
95	96	3
87	102	1
117	118	2
38	39	3
127	130	3
118	125	3
125	131	2
61	73	1
45	85	2
108	108	1
7	7	3
131	131	2
120	120	8
70	70	7
59	61	1
89	92	1
77	78	1
62	82	1
76	76	5
113	117	1
21	22	1
86	87	1
69	85	2
60	61	3
49	57	1
80	81	2
18	22	1
13	41	1
93	111	2
101	114	1
84	92	2
124	125	2
68	69	1
64	65	1
14	15	1
5	26	1
97	97	3
97	98	1
58	58	1
67	91	1
90	90	2
1	1	2
5	6	1
12	12	1
101	101	2
59	75	1
126	127	1
104	105	2
131	132	1
50	51	1
45	46	1
114	116	2
62	75	1
55	62	1
70	72	1
17	18	1
108	109	1
19	20	1
53	54	1
0	0	1
12	13	1
20	20	1
74	76	1
56	57	1
40	41	1
121	122	1
2	3	1
6	67	1
5	11	1
