30	30	5
1	4	3
152	152	5
99	100	3
154	174	2
151	151	4
129	130	1
160	160	3
192	192	5
94	96	1
165	166	6
46	46	4
174	175	1
123	123	5
188	188	2
49	49	4
128	128	3
103	104	1
174	174	2
31	31	8
41	41	4
18	18	2
101	101	2
13	14	1
110	110	3
14	14	6
136	136	4
100	100	4
4	4	3
151	174	3
115	191	1
161	162	2
161	163	2
44	44	3
9	44	2
11	11	9
86	86	1
137	137	8
193	193	7
165	165	2
19	20	4
69	69	7
82	100	3
34	35	5
119	119	4
135	136	2
151	152	4
166	166	4
129	139	1
32	32	5
127	127	5
19	19	6
95	106	3
78	78	2
130	130	3
79	81	1
74	84	2
9	9	3
52	53	2
19	70	1
61	62	2
157	157	7
180	182	2
50	50	2
117	117	2
21	22	1
168	168	3
53	194	1
55	56	3
29	29	6
149	184	2
87	87	4
156	156	2
12	13	1
190	192	2
59	59	3
29	30	1
62	62	1
25	25	3
148	149	2
73	74	3
145	145	1
58	58	5
178	179	1
13	13	1
64	65	2
109	110	1
105	105	4
179	179	1
155	188	1
27	27	3
15	61	1
67	68	8
131	131	1
9	10	1
7	7	2
76	76	2
158	158	3
180	180	6
40	40	2
168	184	4
154	154	3
169	170	4
156	188	3
141	141	7
22	22	6
161	161	1
30	89	2
194	194	2
70	86	2
115	115	1
96	96	3
4	27	2
42	42	1
36	37	2
53	56	2
39	39	2
173	173	2
17	17	1
135	135	2
80	81	2
107	107	1
43	44	3
106	109	2
158	159	2
133	133	5
102	103	1
56	135	2
112	119	3
98	98	6
169	169	6
102	102	2
54	56	3
114	153	2
6	7	4
159	159	3
126	127	2
90	90	2
61	61	2
59	60	1
146	146	4
30	90	2
30	31	1
47	47	4
172	175	5
185	185	3
72	72	3
150	150	5
45	45	1
118	118	2
82	83	2
56	56	3
119	120	1
83	83	2
64	64	3
142	142	2
122	122	1
94	94	1
84	85	4
182	182	2
153	153	2
108	190	2
191	191	6
24	24	1
70	71	3
18	72	1
68	69	1
134	134	3
162	162	1
143	144	1
145	146	2
21	23	3
178	178	2
121	121	2
108	193	2
60	60	4
194	195	2
175	175	1
101	106	1
28	28	2
124	124	4
126	126	1
152	188	4
192	193	2
99	99	3
143	143	2
17	18	2
10	10	2
189	189	2
80	80	3
76	78	2
141	180	1
82	82	3
67	67	2
76	77	2
47	48	1
62	64	1
54	54	1
16	16	1
168	169	3
3	3	2
187	187	4
176	177	1
164	164	7
176	176	2
84	84	1
33	58	1
63	66	1
116	116	2
10	11	4
5	5	1
22	23	1
190	191	1
139	139	1
12	139	2
186	186	2
7	8	1
164	170	1
21	21	1
93	95	1
72	73	2
14	54	2
154	175	1
125	125	2
51	51	1
81	81	4
73	73	4
144	144	1
183	183	1
106	107	1
75	78	1
156	169	1
85	85	1
110	111	1
95	95	2
57	58	1
12	12	3
181	181	2
30	32	2
147	147	3
43	43	2
148	170	2
129	129	1
55	55	1
112	112	4
51	52	2
138	139	1
171	171	1
8	8	2
117	152	1
10	46	2
121	122	2
136	137	1
79	79	2
50	125	1
13	53	1
31	32	1
34	34	1
58	60	1
23	23	1
113	113	1
166	167	1
111	111	1
77	77	1
68	68	1
71	72	1
52	52	1
123	128	1
117	118	1
48	48	1
71	71	1
12	51	1
