37	139	3
14	47	6
57	57	4
121	141	1
35	35	3
38	47	1
56	124	4
75	88	3
144	144	4
20	20	1
65	65	3
51	57	3
33	42	4
115	116	2
34	37	3
129	143	1
63	63	8
94	101	2
39	138	3
116	116	5
100	104	1
21	29	1
2	16	2
56	67	1
0	18	6
8	29	4
6	8	5
74	74	5
38	38	3
118	121	5
58	130	5
36	36	6
9	16	4
138	138	4
18	18	1
25	25	7
67	87	2
32	121	3
88	91	1
2	13	3
43	47	4
22	22	5
66	68	1
37	37	8
49	50	2
72	84	1
62	63	4
5	5	6
133	136	4
95	95	4
108	108	6
131	131	7
72	72	3
93	106	1
114	130	1
116	117	3
30	30	4
13	32	9
129	134	1
32	35	1
135	137	2
73	76	2
105	121	4
104	123	1
109	132	1
109	139	3
51	93	2
128	135	1
29	29	1
61	77	2
85	85	1
12	30	2
126	131	1
79	79	9
83	83	9
82	82	6
85	135	2
125	141	3
49	106	8
124	124	8
91	91	7
53	53	4
56	57	2
133	133	3
0	0	6
128	130	4
20	21	2
96	96	3
3	3	1
132	133	7
105	105	4
76	79	5
48	48	2
141	141	4
112	112	3
104	104	7
64	77	1
11	109	2
20	32	2
60	87	5
107	107	6
13	34	2
13	16	6
102	102	10
47	48	2
67	83	4
49	126	3
104	106	1
89	89	10
116	144	1
86	100	2
135	136	5
143	144	4
22	23	6
120	120	8
82	87	5
40	42	1
113	115	6
31	123	3
50	54	2
28	40	2
131	135	2
40	40	2
111	132	1
78	78	3
51	53	4
15	102	2
82	117	1
2	2	5
79	90	2
97	97	4
19	32	2
110	114	2
17	21	1
55	76	1
65	67	2
130	130	5
93	93	11
81	81	3
54	54	1
28	28	1
83	96	1
72	88	2
53	57	3
123	123	4
58	127	1
68	68	7
17	17	1
0	2	1
98	98	5
50	65	2
101	117	2
6	9	4
72	75	1
58	105	4
100	100	3
58	73	1
31	36	2
95	100	1
131	132	2
27	33	1
18	32	1
34	57	3
80	95	1
50	124	1
71	74	4
131	134	1
87	115	1
60	76	2
63	66	1
34	43	2
78	93	3
103	106	2
94	94	4
50	50	3
123	141	2
73	87	2
61	107	4
60	60	2
133	143	3
111	131	1
71	71	6
105	108	1
87	87	5
49	57	2
104	105	2
119	126	2
47	47	2
106	106	1
55	96	1
14	18	2
83	132	1
13	24	1
140	140	2
110	137	1
58	91	3
139	140	7
139	139	2
89	105	1
105	106	1
19	19	1
113	119	3
114	115	5
14	15	2
58	69	1
10	10	3
26	27	1
112	129	1
50	127	2
76	76	4
21	21	2
52	56	1
66	66	4
40	43	2
110	110	2
26	124	3
2	18	1
49	49	6
121	130	1
51	55	3
104	122	3
141	145	5
0	32	3
136	139	1
16	17	1
127	131	1
111	111	4
35	40	2
145	145	5
109	109	1
99	116	2
123	124	4
56	127	1
83	86	1
61	62	2
107	110	2
80	83	3
39	39	3
33	33	1
113	113	2
13	13	2
67	70	2
59	59	1
63	76	1
14	114	1
63	64	2
67	67	2
138	142	2
23	29	1
27	42	3
93	117	1
69	82	2
43	43	2
33	35	3
134	136	5
75	84	2
63	87	3
81	96	1
9	23	1
93	94	2
70	86	1
89	92	2
90	111	1
81	82	2
34	36	1
58	59	1
114	114	3
122	123	1
118	118	2
134	134	1
1	2	1
77	77	2
71	86	3
85	92	2
58	58	2
81	83	1
90	90	3
14	14	3
74	85	1
128	128	2
57	126	1
8	8	5
6	34	1
114	119	3
11	91	2
59	77	2
108	120	1
34	34	1
101	106	1
48	51	1
75	75	1
86	86	2
77	79	2
71	89	1
103	108	1
70	82	1
15	97	1
47	50	1
41	41	3
90	107	4
86	133	2
110	111	1
124	126	2
67	86	1
77	87	1
110	119	1
122	124	1
108	110	1
75	77	1
117	117	1
62	62	2
138	140	1
23	23	1
42	42	2
65	70	1
26	26	1
114	136	3
118	126	1
14	29	2
29	33	2
113	116	1
126	126	1
126	139	1
32	32	3
80	81	3
16	118	2
122	122	3
9	9	2
61	64	2
58	77	1
106	119	1
127	127	1
141	143	1
14	28	2
125	125	1
24	38	2
61	61	1
140	141	3
92	92	3
88	88	1
37	41	2
11	11	4
3	19	1
27	35	1
123	131	1
129	145	1
48	49	1
83	85	3
89	104	1
2	15	1
1	20	1
9	10	2
130	133	1
1	23	1
73	91	1
99	100	1
74	81	1
115	117	1
69	69	1
2	8	1
108	137	1
96	106	1
48	50	1
17	35	1
135	135	2
143	143	1
73	74	1
4	6	1
27	28	1
116	126	1
80	80	1
10	12	1
53	59	1
112	116	2
63	79	1
27	27	2
70	84	2
67	71	1
