116	116	11
146	146	3
23	23	14
24	24	1
55	55	4
164	164	4
56	56	13
6	6	3
67	67	3
69	78	1
91	104	4
108	109	4
86	86	8
151	151	6
163	163	3
90	95	3
49	50	6
101	101	12
75	75	3
71	71	4
46	46	3
39	39	9
149	149	2
161	162	2
110	169	2
20	20	14
157	157	2
82	83	1
25	25	10
68	72	5
143	163	1
165	165	3
139	142	1
129	137	2
0	39	1
133	157	1
83	83	5
112	112	4
128	128	3
126	154	1
123	168	1
147	160	1
120	120	4
91	92	1
65	65	6
93	103	5
77	77	10
98	98	3
108	108	3
0	5	3
36	36	3
131	131	6
98	99	3
1	1	6
137	138	2
7	7	2
44	45	2
137	137	4
150	150	6
137	139	3
63	72	8
67	71	3
11	58	2
22	22	9
43	101	2
9	66	4
118	169	7
84	84	2
90	91	2
42	42	5
144	145	3
103	103	3
38	94	1
34	34	5
70	71	2
38	42	2
125	126	1
115	115	9
126	126	6
69	69	3
124	169	1
111	111	4
47	47	2
133	133	2
150	151	2
97	97	5
118	120	3
119	119	7
18	18	1
109	109	4
113	113	3
109	110	2
107	112	2
129	152	2
10	42	2
130	130	6
135	160	3
140	157	3
119	120	5
57	57	5
63	71	1
10	41	1
124	124	6
88	88	4
74	74	3
114	115	4
87	88	2
141	141	2
48	48	3
89	89	3
102	102	2
106	106	14
145	145	1
72	72	10
74	76	4
115	150	1
116	150	1
74	75	2
64	65	2
37	37	1
92	92	5
91	91	5
63	63	3
12	12	1
68	68	4
16	17	2
21	22	1
144	144	2
134	134	4
135	135	6
105	170	2
11	12	2
0	1	1
8	84	2
19	19	1
9	9	3
143	144	4
68	79	2
159	159	3
54	54	3
169	169	3
51	51	5
21	21	6
86	87	4
152	152	7
154	154	3
145	146	3
96	96	6
138	138	7
88	89	3
107	107	6
105	105	4
80	80	5
45	45	6
49	49	7
156	156	4
123	124	3
135	136	2
40	40	4
20	23	3
0	58	1
140	148	1
158	159	1
121	122	1
163	165	2
124	125	4
18	19	7
120	124	3
0	4	4
43	43	3
128	137	2
39	40	2
136	139	2
154	155	2
47	49	1
158	158	2
17	17	3
163	164	4
161	161	4
110	117	3
121	121	3
112	115	3
3	3	3
11	11	1
85	85	1
73	76	2
167	167	7
91	98	2
64	64	4
18	26	3
127	127	2
143	143	5
73	73	1
110	118	3
117	117	4
82	82	5
41	41	2
8	85	3
166	166	6
38	38	4
50	52	1
62	62	1
136	150	2
136	141	3
148	160	2
108	112	1
114	114	2
132	132	4
10	10	5
132	135	2
33	33	6
129	129	8
122	122	1
13	13	1
8	39	1
121	168	1
122	123	1
93	96	2
18	20	3
6	58	1
13	53	1
23	24	1
47	50	2
143	164	2
139	143	1
13	22	5
160	160	6
19	24	5
8	86	3
102	103	1
50	50	2
150	157	5
115	121	2
118	118	3
81	85	1
17	18	4
115	116	5
14	14	3
139	140	2
165	166	1
4	4	2
2	3	2
157	158	2
130	156	2
100	100	2
70	70	6
144	146	2
95	95	4
40	93	1
78	78	1
81	82	2
12	13	1
42	102	2
35	35	4
133	158	2
8	8	4
35	111	1
73	77	1
136	137	1
155	155	1
120	122	1
44	44	6
100	101	4
49	82	2
130	131	2
0	0	2
81	81	2
142	142	1
62	87	2
93	93	3
129	154	2
123	123	1
128	155	1
62	84	1
66	66	1
50	51	1
125	125	1
13	14	1
136	148	1
104	104	1
38	39	1
53	57	1
167	168	1
164	165	1
124	133	1
24	25	1
125	132	1
61	86	2
96	97	1
125	134	1
58	87	1
45	48	1
19	120	1
148	148	3
3	11	2
14	15	1
143	151	1
106	170	1
169	170	1
7	58	1
5	5	1
127	138	1
121	150	1
91	101	1
79	79	1
53	53	1
150	168	1
147	147	1
87	93	1
142	160	1
