14	14	3
55	66	3
187	188	2
236	236	4
126	126	15
158	158	5
146	147	1
98	128	4
49	49	4
206	206	1
198	198	7
58	58	11
44	44	5
155	155	3
34	64	9
136	136	3
81	81	3
121	121	3
98	98	2
135	139	1
199	199	1
152	153	1
36	36	4
180	180	9
71	72	2
168	168	2
231	232	2
220	220	3
37	57	4
38	203	1
158	201	4
188	189	1
63	176	2
236	237	3
174	174	2
157	160	1
120	136	2
217	217	5
187	187	6
183	201	1
186	186	7
166	201	1
141	141	5
14	119	1
20	20	2
215	215	6
163	163	2
7	7	5
238	238	2
124	124	3
104	104	8
129	129	6
169	170	1
32	32	6
45	45	4
48	48	6
3	11	1
159	159	2
228	229	4
206	224	3
201	201	1
189	190	2
169	169	2
6	32	2
225	227	2
59	60	3
17	17	2
127	128	3
201	202	1
119	139	3
178	178	3
195	199	3
133	147	1
68	68	3
189	189	4
96	108	7
39	39	3
120	120	3
38	38	7
105	106	3
241	241	5
113	120	2
143	143	2
70	71	1
233	240	3
0	18	2
3	10	1
6	6	3
233	237	3
56	56	4
81	177	3
42	42	4
221	239	5
0	32	2
147	147	4
161	161	5
227	233	3
72	73	3
10	10	2
37	38	3
47	47	9
26	26	5
34	57	3
81	109	4
209	209	4
42	44	2
175	175	1
86	86	2
25	39	1
143	163	2
48	63	1
15	15	3
119	120	2
26	69	2
204	205	1
2	11	1
18	18	3
231	231	4
210	213	2
205	205	4
5	6	3
118	118	1
207	207	5
207	208	2
136	137	1
110	110	3
135	137	2
99	100	4
16	18	3
87	87	4
192	196	2
121	140	4
150	206	1
21	46	3
140	145	3
28	29	1
100	117	1
33	52	4
135	135	3
83	83	1
195	197	2
213	213	1
231	240	2
85	85	3
31	31	2
48	80	3
123	123	2
40	44	1
123	162	1
33	36	1
149	149	2
119	119	3
133	133	7
153	153	3
83	176	1
54	55	1
51	65	1
43	43	4
46	46	6
31	33	1
47	179	1
56	83	1
13	13	2
21	24	3
108	109	4
232	242	1
197	197	1
148	148	2
171	171	2
74	75	1
212	224	4
28	111	1
160	160	7
146	146	3
75	75	3
167	195	1
105	137	2
58	78	2
113	115	1
3	193	1
19	46	2
70	70	2
156	156	1
84	84	4
106	112	1
138	139	1
14	15	1
232	234	2
227	229	5
222	222	4
173	178	3
145	146	2
2	3	2
122	122	3
34	34	3
23	23	2
188	188	3
40	40	5
16	16	1
2	5	1
114	121	2
166	168	3
101	101	1
57	57	4
121	180	1
72	72	1
27	27	2
107	112	2
134	134	5
60	60	2
143	150	2
63	63	1
181	181	1
9	10	1
84	108	1
232	233	1
6	7	2
127	127	2
139	139	5
11	11	3
68	138	2
25	25	2
61	61	7
193	193	4
63	65	1
186	199	2
28	28	1
9	37	4
3	3	3
195	196	2
190	190	3
46	122	2
10	47	1
96	148	2
152	191	1
64	65	5
61	78	1
177	177	3
11	36	1
172	172	2
179	179	1
41	41	2
56	66	3
229	229	1
3	120	2
168	169	1
102	102	1
157	165	2
58	59	1
224	227	1
215	240	1
51	52	1
62	62	1
167	167	3
242	242	1
214	216	2
49	50	1
182	182	1
200	201	2
186	187	1
241	242	1
40	111	1
0	11	1
141	142	2
20	22	2
27	38	1
76	101	1
226	230	2
61	137	2
179	201	1
220	221	1
32	33	1
108	118	1
162	162	1
153	195	1
26	32	2
237	237	1
129	187	1
18	68	1
209	213	1
192	194	1
214	225	1
130	130	1
33	100	3
195	195	1
105	105	1
59	59	1
99	103	3
78	78	1
209	210	1
107	108	1
211	215	1
79	105	2
157	159	1
22	66	1
50	50	1
29	128	1
88	88	1
