119	119	14
68	68	6
90	90	6
17	17	9
140	140	6
76	76	17
167	167	10
84	84	10
25	47	1
162	163	6
137	137	14
163	164	5
75	75	4
157	158	6
21	23	3
120	122	2
76	77	3
17	18	3
20	21	12
0	1	4
27	27	6
143	143	4
1	17	6
21	21	15
2	2	9
154	154	3
43	138	2
37	37	13
6	6	11
46	46	2
107	108	15
108	111	2
137	138	5
69	69	3
88	88	14
4	27	7
87	149	3
148	148	15
124	125	1
169	169	8
43	44	2
63	63	4
117	121	2
81	81	8
93	97	3
133	133	7
166	166	21
97	151	3
20	22	1
118	156	1
70	109	2
16	28	3
149	150	3
54	54	5
97	97	8
34	34	4
39	48	2
45	46	5
51	51	9
119	120	5
49	49	7
115	115	4
80	82	2
97	99	6
167	168	3
67	68	2
68	69	4
17	35	6
92	92	6
135	157	1
130	130	8
43	43	12
107	110	5
98	99	5
110	110	6
153	159	4
134	134	7
87	87	10
120	120	7
96	96	8
44	46	4
156	156	2
3	3	15
158	158	4
13	14	2
1	1	10
116	117	3
41	137	2
129	150	2
92	93	2
164	164	3
162	162	8
52	52	9
90	106	4
4	4	2
14	14	10
15	15	3
66	153	3
41	41	10
2	3	8
119	157	1
10	10	11
71	115	1
46	47	2
19	19	7
18	19	6
4	5	7
133	134	2
165	165	6
24	25	4
77	77	2
158	159	4
82	83	5
135	144	2
65	65	3
99	99	9
44	44	5
147	147	4
86	161	2
168	168	12
79	123	1
69	70	6
145	146	5
35	35	16
168	170	1
97	119	4
68	151	2
7	54	1
8	8	2
139	139	10
22	151	2
26	134	2
16	102	3
132	132	3
137	139	1
57	99	3
135	135	5
12	12	10
40	46	6
94	94	2
47	47	3
2	52	2
69	71	4
90	105	2
42	43	9
156	157	3
11	135	1
86	86	13
91	92	7
70	70	3
96	145	4
49	50	6
89	90	1
85	103	2
157	157	11
112	112	4
162	168	1
16	16	11
7	103	2
89	89	8
54	55	2
85	85	5
118	159	3
62	62	2
146	146	3
123	123	1
160	160	7
103	104	2
140	141	5
141	141	4
38	38	5
4	51	1
93	93	6
152	152	6
13	13	4
104	104	3
83	86	3
9	9	2
0	0	5
163	163	5
51	54	3
16	101	1
108	113	2
118	119	2
103	103	1
123	125	4
82	82	2
76	87	3
47	48	2
6	12	4
64	64	2
91	91	3
24	24	10
13	102	1
93	169	2
118	120	1
127	127	1
74	74	4
160	164	7
106	151	3
151	151	9
109	110	4
64	147	3
8	9	4
6	7	5
79	79	3
22	22	4
143	147	1
52	54	1
20	20	4
144	147	1
56	138	1
71	113	5
19	23	1
50	50	6
117	118	7
149	149	7
6	51	2
102	102	9
100	100	1
48	135	6
66	66	2
83	83	4
0	150	3
144	145	1
35	36	9
88	89	3
151	163	1
78	122	1
101	104	5
150	150	4
82	85	1
117	117	3
6	58	1
53	53	7
5	6	2
125	128	5
50	51	1
11	11	7
99	101	2
142	142	1
101	102	1
102	104	2
34	163	1
68	123	3
153	154	3
105	105	6
95	95	7
100	117	3
48	50	1
128	129	3
170	170	5
48	48	4
129	148	3
155	155	3
23	23	5
4	24	1
153	160	2
3	20	2
18	18	5
111	111	5
124	124	1
100	101	4
109	168	1
37	151	1
161	170	2
4	23	1
118	118	5
15	99	3
10	16	2
126	126	3
105	106	6
146	147	1
87	159	2
145	145	4
33	33	3
57	73	1
143	145	1
6	49	2
129	129	2
70	167	1
90	93	1
101	117	1
57	64	2
148	149	2
133	140	3
120	121	2
138	145	2
122	122	3
101	101	4
4	19	2
78	78	3
87	88	5
39	39	3
16	105	2
56	57	1
40	40	3
132	133	2
106	106	5
115	116	2
144	144	6
126	146	2
101	103	2
109	109	3
128	128	2
95	96	1
21	22	3
84	85	3
68	78	3
75	78	1
22	66	1
152	161	2
78	105	1
152	153	1
41	42	4
5	7	1
136	136	3
52	53	2
94	111	2
34	106	1
131	131	1
114	115	2
138	139	6
44	135	3
88	105	1
46	52	1
134	154	2
75	126	2
131	132	6
113	114	1
47	137	3
75	146	1
117	119	4
3	28	2
97	118	1
65	97	1
159	159	5
44	45	1
25	25	3
84	100	1
125	127	2
6	26	1
84	88	3
55	55	3
82	89	1
26	26	4
5	5	1
132	134	1
82	100	1
67	67	2
112	114	1
115	117	1
151	152	2
65	170	2
71	71	2
42	42	2
17	42	1
40	49	1
52	56	1
77	78	2
130	159	1
57	63	1
108	108	3
116	116	1
106	113	1
64	68	2
13	84	1
39	49	1
79	89	1
1	3	1
74	75	2
39	47	1
14	15	1
137	140	2
7	53	1
84	87	1
130	131	2
159	160	1
77	82	5
107	107	3
4	49	2
74	78	2
150	151	2
68	79	1
71	114	2
129	159	1
128	145	1
8	12	1
153	153	1
14	88	1
19	20	1
38	39	1
113	113	3
53	54	2
10	26	1
64	67	2
56	135	1
71	108	1
34	35	2
28	74	1
80	80	2
9	133	1
138	138	1
80	99	1
163	167	1
122	123	3
126	147	1
128	130	1
129	136	1
8	25	1
162	165	1
62	63	1
93	95	1
163	165	1
114	114	1
112	113	3
122	169	1
22	23	1
2	20	1
114	116	1
57	57	1
117	154	1
