57	57	9
155	155	7
2	2	3
184	185	3
54	56	5
189	189	2
25	25	7
68	68	8
109	109	3
111	112	2
71	71	8
138	138	5
45	46	6
32	38	5
184	184	4
108	108	7
85	85	12
154	154	10
44	45	5
117	117	9
10	68	4
81	81	5
181	181	6
160	160	7
165	165	5
53	54	1
187	187	2
88	88	2
20	22	1
18	19	3
32	33	4
151	151	6
100	100	20
178	178	8
95	95	5
130	131	1
146	151	1
156	174	2
91	91	3
165	166	2
21	21	5
185	185	8
188	188	11
43	43	12
15	82	1
14	15	3
134	139	1
15	15	10
118	118	2
124	124	6
30	31	7
76	76	6
96	102	1
112	112	3
158	158	5
20	20	13
94	94	2
82	82	1
77	77	7
152	176	4
134	134	10
54	54	12
116	117	2
132	132	3
123	143	2
145	149	3
53	53	5
150	151	7
84	84	4
126	127	2
23	23	7
41	42	2
48	48	6
142	142	4
101	105	1
177	177	12
46	47	4
118	119	1
81	111	3
22	23	1
26	26	13
143	146	1
106	106	5
32	32	2
91	92	6
99	99	6
13	13	6
183	183	5
8	8	2
40	40	12
68	74	3
186	186	12
55	55	3
181	182	3
124	125	2
152	152	5
163	164	3
179	179	4
96	97	6
97	99	1
90	90	8
27	27	5
93	93	6
89	89	6
16	16	9
78	78	5
63	64	8
25	30	2
120	120	1
84	85	4
108	109	4
157	157	2
10	10	9
63	63	4
72	72	10
147	147	11
172	172	4
103	103	3
170	170	4
41	41	6
135	137	8
88	89	1
44	44	4
149	149	11
3	3	3
62	62	3
27	77	1
64	64	1
174	174	7
153	153	6
29	29	3
31	31	2
90	110	6
173	175	3
128	140	2
171	173	4
4	57	9
95	113	2
82	85	2
140	140	2
86	86	5
114	115	7
140	141	1
5	109	2
4	4	9
107	107	4
125	146	2
165	167	1
142	147	2
164	166	2
0	1	1
152	169	1
61	61	3
4	6	1
141	141	2
128	128	2
129	140	1
145	145	1
2	3	3
89	90	3
151	169	2
164	164	1
121	121	5
182	183	2
35	35	8
190	190	3
170	171	4
9	79	1
105	108	2
93	95	2
76	77	1
170	177	2
146	147	3
81	82	3
47	47	1
85	86	4
166	167	1
11	11	4
126	126	3
143	143	3
177	185	1
8	77	6
0	0	3
6	6	6
17	42	3
39	39	7
59	59	3
97	101	4
66	66	4
135	136	3
31	36	2
163	166	5
38	38	2
187	190	2
140	160	1
96	96	1
39	41	2
153	154	7
100	104	3
154	155	4
136	136	3
152	153	2
90	102	1
7	7	2
110	110	3
95	96	2
28	30	1
30	30	1
12	12	2
168	168	4
143	144	4
127	127	2
1	1	5
58	58	1
90	105	2
5	5	3
110	111	1
156	156	2
93	94	7
22	22	3
116	116	4
88	110	1
173	173	2
146	146	2
123	124	5
129	129	3
187	188	2
36	36	8
66	67	1
169	170	6
70	71	1
142	143	4
99	100	2
72	75	3
170	176	3
162	162	2
154	175	1
101	102	3
6	110	1
56	56	3
166	166	4
176	176	4
24	24	1
61	62	6
61	71	1
1	2	2
137	138	4
26	28	3
90	91	1
164	165	2
5	52	1
89	112	1
169	169	1
17	17	6
42	42	4
72	73	4
55	56	4
52	52	1
28	29	2
12	79	1
73	73	2
176	181	1
86	88	3
92	127	1
123	123	6
69	70	2
137	137	4
167	167	1
14	14	2
175	175	2
37	37	6
182	182	5
148	149	1
158	159	1
13	80	3
87	87	2
180	181	2
67	74	1
155	156	3
24	25	1
149	150	1
87	88	1
18	18	1
23	37	1
40	41	1
55	72	2
130	130	2
71	72	1
98	98	1
36	37	2
74	74	1
65	65	2
6	7	1
171	171	2
11	12	2
159	159	3
100	105	1
115	115	1
47	76	4
113	113	1
75	75	2
132	140	2
119	119	2
38	39	1
16	24	1
34	34	1
176	183	2
162	163	1
46	49	3
100	101	1
171	176	1
26	27	2
122	142	1
106	108	1
150	150	2
132	133	1
155	175	1
54	55	1
23	24	1
178	179	1
105	105	1
4	52	1
56	57	1
13	78	1
54	76	2
163	163	2
136	137	2
33	33	1
15	17	2
28	28	1
122	122	2
12	78	1
7	111	1
106	107	2
180	180	1
126	147	1
77	78	1
115	116	1
91	95	1
92	95	1
25	28	1
44	76	1
2	7	1
47	53	1
114	114	1
109	110	2
153	165	1
117	135	1
111	111	1
25	43	2
134	136	1
80	80	1
