66	66	17
45	45	9
70	70	20
90	96	3
73	78	3
76	76	8
90	90	10
69	70	10
92	95	3
91	91	12
74	74	22
78	78	13
60	60	2
32	32	6
39	39	7
81	81	11
48	61	1
79	85	2
27	27	4
34	34	7
100	101	5
89	89	11
74	75	1
68	68	15
67	67	12
83	83	14
61	61	7
29	48	2
57	57	6
93	95	2
70	72	7
101	101	2
71	71	10
47	49	7
90	91	3
23	25	3
54	55	4
85	85	7
53	54	1
73	73	18
80	80	10
38	38	12
23	23	3
73	74	11
55	55	4
40	41	3
60	67	3
88	88	17
59	62	3
50	63	2
43	77	5
22	22	7
41	41	5
67	68	7
62	62	8
24	25	5
69	74	1
47	48	2
26	27	3
76	77	7
63	64	5
48	49	1
79	79	7
27	28	3
69	71	2
75	75	14
47	47	6
33	38	4
66	75	3
84	84	16
60	68	1
87	87	10
22	88	2
83	84	3
59	59	4
97	99	3
102	102	3
44	44	10
51	52	3
65	65	9
34	35	1
93	94	4
63	63	7
83	86	1
95	98	2
97	97	4
50	50	6
58	100	1
64	64	7
42	42	9
72	72	4
53	56	2
26	26	5
71	72	3
54	54	3
64	66	3
22	23	3
20	24	3
92	92	7
67	101	2
70	71	1
95	95	4
68	90	3
58	99	3
86	87	2
54	81	3
92	93	4
68	78	1
65	75	4
31	31	2
68	72	2
34	51	2
41	42	2
33	33	5
31	33	2
28	28	2
36	36	2
55	57	1
86	96	1
69	78	4
86	86	6
47	63	2
47	101	2
46	47	1
94	94	5
68	70	1
93	93	4
98	98	3
92	98	1
69	69	3
62	64	3
28	61	2
80	81	1
29	29	1
62	73	2
65	66	1
58	66	3
20	29	1
22	87	1
52	52	5
20	20	3
99	99	2
82	96	4
48	82	3
54	82	1
86	89	2
37	37	2
65	76	1
22	24	1
37	51	1
50	61	2
96	96	7
33	35	2
45	59	1
31	54	3
60	61	1
99	100	2
36	37	1
94	100	1
77	85	1
51	51	8
44	45	2
33	34	2
40	40	6
100	100	8
58	58	3
79	83	2
46	48	1
51	62	1
22	91	1
59	99	2
98	99	1
30	47	2
34	53	1
54	97	1
84	85	2
56	56	2
79	80	3
77	77	2
71	74	1
88	89	1
87	88	1
68	83	3
35	38	2
32	82	1
60	81	3
57	101	1
49	102	1
85	86	2
31	32	1
92	99	1
25	47	1
46	46	1
90	99	1
23	89	2
44	81	1
61	64	1
81	89	2
87	91	1
45	46	1
42	43	1
59	61	1
80	83	1
25	26	1
76	85	1
87	92	1
60	78	1
72	73	1
37	39	2
35	36	1
