125	125	17
15	37	5
37	37	6
13	13	19
108	108	22
47	47	32
128	128	21
100	100	13
14	14	16
10	12	4
21	22	2
33	33	27
60	61	2
116	116	13
16	16	16
2	45	1
127	127	12
72	72	11
69	69	27
20	20	16
78	78	21
35	35	12
25	25	6
67	67	12
99	100	4
107	108	7
95	95	9
121	121	18
61	75	3
44	44	20
59	59	20
107	107	18
86	87	3
76	76	19
18	18	15
114	117	3
107	109	3
75	75	8
27	27	19
111	111	8
61	61	23
57	114	1
93	93	13
9	10	6
68	68	24
27	28	12
113	118	1
30	30	15
85	85	21
103	104	7
115	116	5
80	80	13
6	6	26
8	8	22
45	45	21
66	66	26
62	62	15
48	49	3
78	130	1
57	99	5
106	106	11
45	46	5
126	126	10
58	78	6
85	86	7
120	120	6
98	115	3
121	123	2
49	50	2
0	17	4
15	40	3
65	65	18
54	55	8
97	97	6
33	34	2
42	42	3
23	24	2
79	79	15
41	41	15
83	85	3
14	42	11
12	116	2
60	62	1
134	134	16
26	27	5
46	46	19
96	124	4
64	64	32
110	110	13
6	7	6
5	6	6
104	105	3
124	124	2
74	74	11
15	35	5
43	43	16
18	31	3
84	86	8
105	105	19
17	18	4
32	32	7
91	93	4
99	114	2
101	101	16
5	5	6
57	57	24
102	102	14
41	43	9
0	16	3
50	50	4
94	94	9
124	126	1
99	99	9
113	117	3
77	78	3
60	60	29
26	29	4
59	60	4
73	73	9
23	23	9
133	133	11
91	92	4
116	117	2
115	115	7
70	71	5
97	98	2
125	133	3
57	58	4
117	117	26
36	36	7
17	17	20
7	7	26
16	17	9
64	65	3
79	102	10
17	48	2
63	76	3
2	2	13
121	122	5
104	132	4
4	15	1
26	26	19
38	38	10
0	0	6
24	25	8
31	31	12
87	115	2
70	122	5
34	34	15
95	97	1
76	77	3
15	58	2
91	91	10
3	33	2
87	124	1
20	21	6
19	20	3
32	33	1
63	118	2
86	88	4
129	129	14
4	4	7
93	96	1
90	90	10
92	92	6
88	88	10
119	119	12
63	63	5
112	112	18
120	121	7
9	9	19
81	81	13
82	82	23
104	104	11
87	87	6
73	74	2
8	9	4
11	11	22
130	131	8
51	51	3
74	75	2
131	132	1
109	110	7
15	42	1
85	95	2
89	89	5
112	113	1
83	83	4
31	32	8
55	55	6
72	73	2
132	132	5
96	96	8
122	122	6
67	68	1
22	22	11
24	26	7
4	33	1
69	70	4
70	70	8
1	1	17
28	28	15
125	126	3
2	3	6
39	39	4
87	88	6
111	116	2
61	119	5
124	134	3
118	118	14
56	106	4
41	42	5
132	134	2
117	118	5
86	86	13
131	131	3
19	19	6
47	48	1
27	32	3
35	36	9
77	77	26
110	121	3
132	133	2
95	96	4
17	45	1
75	76	2
113	113	19
84	84	3
10	10	13
43	107	1
29	30	5
90	94	2
111	117	1
8	12	2
82	84	3
30	42	2
101	102	3
115	126	2
98	98	6
30	40	4
111	112	2
92	93	7
130	132	5
71	71	8
87	123	1
25	26	1
92	94	2
36	59	4
76	78	2
33	47	4
18	19	3
13	34	1
60	120	1
17	32	1
10	85	6
0	5	2
90	93	3
41	49	1
93	104	2
40	41	2
94	125	2
11	12	3
54	107	4
12	12	10
16	56	1
48	48	3
56	56	5
111	114	3
103	103	11
95	120	4
95	115	4
36	40	2
13	84	2
114	114	3
83	84	1
24	29	5
94	97	4
19	21	4
35	42	3
15	36	2
63	113	1
87	127	1
123	123	8
57	97	5
106	109	1
94	95	4
23	32	3
27	30	1
35	56	3
84	85	4
100	132	3
80	102	1
108	117	1
13	36	3
61	97	1
2	9	2
92	97	1
61	62	1
46	47	7
124	125	5
6	11	2
59	61	2
42	43	4
58	58	7
15	15	1
60	86	2
39	56	2
13	35	2
5	80	3
81	122	1
130	130	9
38	39	2
14	16	3
108	109	1
105	107	2
90	91	2
43	111	2
0	1	3
16	27	2
77	93	1
3	3	3
80	104	3
102	121	1
2	35	3
49	49	2
15	16	2
78	82	1
82	86	2
1	2	1
14	35	3
62	63	2
40	43	1
86	96	1
21	21	2
91	98	2
41	91	1
48	112	2
24	24	1
57	115	2
4	80	1
93	108	1
17	60	2
10	11	2
23	26	1
63	117	1
109	118	1
58	59	2
119	120	3
113	114	3
37	40	1
3	17	1
36	76	1
30	32	1
36	38	1
16	40	1
96	97	1
15	108	1
86	95	1
50	112	2
79	124	2
104	131	2
51	55	1
87	94	2
82	83	1
109	109	3
129	134	2
7	14	1
106	112	1
56	100	1
133	134	1
122	123	1
128	129	4
111	123	1
123	124	1
93	105	1
87	116	1
22	23	1
40	40	1
57	79	1
101	103	2
73	82	1
99	127	1
65	67	1
110	119	1
94	124	1
69	75	1
80	126	1
109	119	1
19	30	1
34	44	1
111	128	1
90	92	1
62	75	1
37	38	1
66	67	1
84	121	1
124	130	1
