92	104	2
30	30	7
95	109	2
64	64	12
33	33	7
24	24	4
52	52	13
133	133	3
131	131	6
93	94	3
78	78	6
11	11	1
49	49	6
20	21	2
113	117	6
41	41	4
18	18	4
65	66	5
124	124	13
113	113	5
47	47	10
86	86	2
86	87	6
27	27	6
11	55	1
102	131	3
78	80	2
118	119	5
3	3	5
51	51	9
40	41	7
70	70	5
121	121	9
99	100	1
19	19	11
102	102	11
100	102	3
26	26	3
115	116	1
64	65	7
3	5	3
27	30	5
55	55	11
110	110	5
40	40	2
67	68	2
34	34	3
69	69	4
54	54	3
7	9	1
73	90	1
109	109	8
4	14	8
83	83	6
119	119	11
94	97	3
57	57	6
97	97	9
32	32	2
93	93	3
107	107	7
77	77	6
68	68	3
123	123	8
94	94	7
66	66	3
102	125	4
77	78	5
15	26	3
41	76	2
125	125	6
53	53	5
39	40	5
56	57	4
47	58	1
62	76	2
73	74	1
114	115	2
75	76	4
70	71	2
12	13	1
41	42	2
120	120	4
127	128	6
14	15	3
108	108	5
15	15	7
15	18	1
99	101	1
81	84	1
101	101	7
89	93	2
65	65	6
22	26	6
79	124	5
22	23	1
5	21	1
124	125	1
109	114	6
83	102	4
101	104	2
15	16	2
42	43	4
89	89	3
118	118	8
48	58	5
79	85	1
23	23	5
1	1	3
56	56	8
5	13	4
114	117	2
3	14	3
95	120	1
111	111	9
17	17	2
50	111	3
83	85	4
122	125	4
13	13	4
110	116	2
55	56	2
48	48	6
105	122	4
12	12	1
9	9	11
74	74	2
105	105	6
11	12	3
106	123	7
129	129	4
4	10	3
114	114	1
81	81	2
94	107	1
127	127	3
73	75	1
25	25	1
31	32	1
43	62	1
67	67	7
102	103	2
122	124	2
82	82	2
84	84	3
17	18	1
129	130	6
21	21	2
97	99	2
58	58	2
45	45	2
117	117	1
14	26	2
104	105	3
76	76	6
72	72	2
49	56	1
7	7	1
116	116	1
113	118	3
5	5	2
18	19	3
63	63	1
25	27	3
61	61	3
26	27	1
75	77	4
71	71	1
25	26	2
41	75	2
44	44	1
27	28	1
99	105	2
22	22	2
90	91	4
90	93	1
81	83	1
17	25	2
89	91	1
4	4	2
59	60	1
9	50	1
87	118	1
60	60	4
79	80	1
4	11	1
58	70	1
103	103	2
31	53	1
79	82	3
130	130	1
96	97	2
93	106	1
48	49	1
3	13	1
6	6	3
101	102	1
112	112	2
21	25	1
125	126	1
85	85	1
74	75	1
108	115	1
122	122	3
81	85	2
109	117	1
104	104	3
106	106	3
39	43	1
2	2	1
95	95	3
111	112	1
115	115	4
69	70	2
88	88	2
22	24	1
109	120	2
94	95	2
42	62	1
45	58	1
62	62	1
98	99	1
6	14	1
50	50	1
92	99	1
38	38	1
32	33	1
92	94	1
54	56	1
33	54	2
16	18	1
102	104	2
57	58	2
39	56	1
100	100	1
86	88	1
126	127	1
128	128	1
46	46	1
3	10	1
84	85	2
15	25	2
29	29	1
5	6	1
58	69	1
72	74	1
