24	24	5
153	166	2
10	10	5
21	21	3
35	35	1
25	26	2
11	46	1
167	167	3
95	95	1
81	81	1
94	97	4
152	152	5
124	124	5
99	113	1
147	147	5
56	56	5
57	91	2
55	55	1
53	53	4
135	143	1
112	162	1
152	153	3
135	135	3
84	84	3
95	96	3
91	92	1
89	102	3
15	25	3
1	2	6
10	11	2
42	42	4
159	159	6
166	166	2
34	34	1
37	37	2
113	114	2
39	39	6
96	96	2
92	93	3
66	66	1
37	42	4
66	91	1
169	170	3
144	146	3
159	160	1
130	131	3
146	147	1
99	148	1
88	88	6
133	133	3
107	107	2
146	148	4
8	8	2
122	165	3
5	7	2
26	41	1
55	58	1
129	149	2
21	22	2
123	127	2
4	4	2
105	105	4
97	97	4
163	168	5
169	169	7
28	42	1
46	47	2
17	17	4
1	1	12
77	79	2
150	151	1
130	130	1
36	36	2
67	71	3
98	102	1
144	144	6
128	129	2
154	155	1
86	161	1
155	155	4
164	165	4
82	83	2
20	22	1
132	139	4
55	56	2
20	23	1
16	16	6
87	120	1
131	156	3
80	80	1
43	136	1
116	116	3
116	117	2
33	33	1
88	105	3
99	151	1
43	79	4
100	103	3
48	50	1
7	8	1
11	11	6
145	145	2
111	111	3
14	14	3
18	18	1
33	34	2
120	120	3
98	98	3
128	128	1
69	97	2
3	3	2
90	90	2
77	121	1
61	62	2
25	25	3
93	94	1
115	115	2
39	49	3
24	26	2
50	53	1
98	130	2
158	159	2
108	108	5
89	90	2
63	86	2
94	94	2
98	99	1
73	73	1
114	114	1
125	126	2
26	28	3
126	126	2
102	102	1
0	13	2
103	104	1
154	159	1
112	164	1
45	45	4
137	142	2
36	38	1
166	169	2
135	136	2
106	106	2
138	142	1
89	149	1
70	70	4
28	36	4
97	98	1
103	103	1
81	147	1
133	164	1
129	148	1
125	127	1
129	132	1
163	163	2
137	139	1
50	71	2
8	9	1
142	142	1
162	163	2
79	80	1
38	39	4
136	136	4
160	170	2
21	24	2
98	131	1
92	117	1
132	155	3
131	131	3
50	51	1
36	54	1
86	86	3
58	80	1
100	120	1
88	90	1
81	82	1
111	116	1
138	139	1
74	74	1
164	164	1
5	6	2
6	6	4
44	108	1
127	127	2
26	26	2
37	54	1
111	112	2
41	43	1
52	55	1
102	118	2
164	166	2
139	141	2
68	68	1
9	42	1
118	153	1
15	15	1
149	149	1
52	57	1
122	122	2
139	139	2
92	101	1
66	67	1
72	75	1
147	165	1
47	47	2
92	92	5
153	153	3
156	156	2
151	151	1
123	124	2
142	143	3
40	40	1
87	87	1
86	98	2
128	146	1
88	89	2
101	101	1
99	99	1
52	52	1
21	38	1
96	97	1
69	76	1
142	144	1
121	126	1
48	48	1
107	108	1
104	131	1
147	166	1
2	2	1
51	74	1
7	7	3
117	117	1
15	40	1
132	166	2
44	44	1
146	146	2
137	137	1
57	58	1
21	109	1
138	138	1
139	140	1
136	144	1
64	64	1
107	155	2
24	25	1
45	46	1
89	120	1
90	96	1
38	158	1
79	79	1
109	109	3
17	18	2
5	5	1
8	46	1
77	78	1
