110	111	1
128	129	2
50	50	15
52	53	2
49	49	16
6	6	16
93	93	10
20	21	2
46	84	2
34	34	8
3	4	2
91	92	4
53	76	3
122	123	5
113	113	24
123	123	14
16	16	4
77	102	5
71	71	7
114	114	10
116	116	11
31	31	4
76	76	21
121	121	14
74	74	4
105	105	15
68	69	4
86	86	6
2	2	10
48	48	10
1	1	9
90	94	1
13	14	1
51	51	7
61	61	13
96	117	6
3	31	2
68	68	6
80	80	18
44	44	3
108	108	4
104	104	2
117	117	13
59	70	4
88	88	6
107	107	5
70	70	7
102	102	8
118	118	11
110	110	16
30	30	10
9	113	5
92	92	3
13	13	17
29	29	3
130	130	3
132	132	5
94	94	14
13	48	2
84	84	9
29	30	7
121	122	6
58	113	6
54	54	17
71	82	4
51	81	2
26	31	3
43	43	4
32	32	7
51	68	1
10	10	6
124	124	11
127	127	6
30	48	3
63	63	14
19	62	3
48	80	3
13	33	3
4	4	8
57	57	13
87	87	5
24	25	2
46	68	1
116	117	3
102	118	3
104	114	1
0	52	1
5	5	4
77	103	4
56	56	16
90	90	8
11	12	4
7	7	3
10	93	1
78	79	8
128	128	2
75	75	1
65	66	1
52	52	9
0	2	2
125	125	14
113	114	3
91	93	2
73	73	13
112	113	2
58	58	3
19	19	9
53	53	8
44	45	9
87	88	6
39	43	4
109	109	8
61	72	1
97	98	4
38	38	4
117	118	5
85	85	5
8	8	9
42	56	1
48	83	2
25	25	6
39	40	3
106	106	5
82	82	10
12	12	6
32	50	3
111	111	15
59	59	4
12	63	4
20	20	5
51	69	1
26	26	11
18	19	3
128	130	3
45	45	7
63	64	2
66	66	12
46	80	2
69	89	1
18	18	7
81	81	1
122	122	8
64	64	3
60	70	2
72	75	2
53	64	1
114	126	2
69	69	8
29	31	1
81	82	8
59	77	1
85	93	2
62	63	2
15	15	7
118	119	1
60	60	9
72	72	8
23	23	10
23	27	3
46	67	6
55	55	5
99	115	1
3	13	2
58	59	3
27	29	1
107	125	2
67	67	7
51	124	1
115	115	8
119	119	6
127	130	4
7	8	2
58	70	1
106	107	3
129	129	4
57	113	4
126	128	1
42	84	2
28	28	10
96	102	1
103	103	5
90	91	3
64	69	3
75	103	2
22	42	2
24	24	4
101	101	7
41	41	5
17	17	1
3	3	10
16	17	3
11	11	2
88	89	1
21	81	2
108	109	1
93	94	5
102	117	3
6	19	4
95	95	6
4	6	3
46	46	8
76	99	4
27	27	7
27	31	2
110	124	3
4	5	3
21	21	3
91	91	2
49	121	1
9	10	2
77	117	4
84	85	2
6	7	1
77	133	1
106	110	2
14	15	6
38	39	6
126	126	6
2	3	1
89	89	3
99	99	2
54	64	1
44	92	1
64	65	2
129	132	2
100	100	7
4	18	1
7	50	3
56	57	2
67	68	6
62	62	4
39	42	4
97	97	1
60	62	1
87	92	3
127	128	4
82	93	1
31	32	1
43	68	1
45	92	2
79	79	7
0	0	8
50	52	1
16	18	1
112	112	8
42	42	3
120	120	3
22	27	2
113	116	2
102	103	2
86	88	3
111	124	1
17	22	1
123	124	4
32	33	1
6	12	2
70	71	2
25	26	6
65	65	7
102	115	1
42	86	1
3	50	2
27	32	3
72	73	3
103	104	1
83	83	4
96	99	1
9	80	1
30	52	1
77	126	2
1	53	1
47	47	3
33	33	3
12	13	2
89	90	1
52	67	1
130	133	1
59	87	1
32	51	1
51	54	1
111	112	2
19	20	1
14	14	3
54	73	2
110	112	1
22	22	1
120	123	1
8	56	1
103	119	1
125	128	1
88	92	1
102	131	2
39	46	1
60	91	1
21	27	2
13	34	1
107	108	2
96	96	3
46	79	1
96	116	1
45	46	1
71	72	1
114	132	2
38	41	2
61	62	3
105	106	1
39	39	2
88	91	1
42	68	1
76	128	3
19	31	2
104	116	1
124	125	1
75	127	1
48	51	1
32	81	1
111	121	1
83	95	1
43	46	1
54	72	1
130	131	2
42	94	1
69	84	1
126	129	1
62	64	1
104	106	2
20	27	3
78	78	3
10	11	1
129	130	1
41	43	2
63	69	1
126	130	1
47	67	1
8	50	1
82	92	1
103	117	1
127	132	1
55	56	1
56	111	1
