48	49	14
57	76	1
95	95	18
72	72	27
54	54	29
69	69	23
25	66	4
39	40	1
47	81	2
90	90	9
54	82	2
34	34	15
62	62	10
103	103	9
75	75	15
92	92	19
75	78	3
76	77	1
39	44	4
73	74	4
70	70	10
59	59	17
37	37	11
88	90	6
45	49	4
29	29	7
25	50	4
35	37	5
101	101	16
93	93	9
86	86	14
38	38	16
52	52	17
28	29	2
48	70	4
33	33	12
40	61	4
35	35	17
26	28	2
38	95	3
95	101	3
61	100	1
96	96	23
87	87	21
32	32	20
74	74	9
54	57	2
25	25	12
38	39	7
78	78	6
98	98	18
21	50	2
74	76	4
91	103	7
79	79	12
57	57	21
94	103	5
80	80	13
37	86	3
73	73	17
35	82	1
50	50	20
76	76	17
47	47	25
95	96	5
26	26	12
74	75	4
28	28	3
67	67	23
94	94	13
91	91	30
80	87	5
92	93	10
38	88	1
23	23	24
101	102	7
65	65	9
73	75	3
92	104	3
82	87	3
89	89	15
89	98	2
81	81	7
19	86	2
56	79	2
69	78	2
55	57	3
102	102	12
84	99	2
85	85	8
87	93	9
25	26	6
21	22	5
77	77	25
36	40	6
69	74	1
84	98	4
68	68	9
21	21	14
24	39	3
45	45	14
44	44	14
88	89	9
30	99	3
97	97	15
47	48	13
81	102	3
20	107	1
54	85	1
79	80	7
39	92	5
71	79	3
66	85	5
82	82	17
24	24	26
83	83	16
60	60	9
20	98	3
91	94	2
64	64	21
100	101	6
95	100	1
61	62	12
106	106	5
62	63	6
48	48	14
53	53	17
40	41	11
95	103	2
88	88	10
58	58	11
30	87	4
50	51	3
53	66	3
31	35	4
68	72	7
100	100	11
42	43	8
49	70	4
21	84	1
27	41	1
66	66	12
71	71	11
81	87	2
59	64	2
68	69	4
31	31	13
46	90	1
45	90	1
91	92	6
55	55	8
77	78	5
33	34	10
55	66	3
25	54	2
47	49	2
30	31	2
26	38	1
63	63	13
92	101	3
84	84	9
99	104	4
29	30	2
32	33	8
46	54	4
29	37	2
82	88	2
51	54	4
87	88	3
23	24	3
30	58	1
52	54	3
41	82	2
81	85	2
64	65	4
82	83	11
20	45	2
105	105	12
33	82	3
80	81	3
69	79	3
102	103	1
51	55	3
22	22	23
39	39	9
89	90	8
103	104	1
71	72	5
30	30	4
22	79	4
46	46	9
61	61	22
45	47	3
87	92	5
58	59	3
56	59	2
66	69	1
92	94	2
83	85	3
35	102	4
60	66	7
41	42	3
36	36	13
36	37	6
46	50	2
107	107	3
95	104	5
40	40	9
27	27	14
65	79	3
104	104	7
44	45	6
98	99	2
99	99	14
88	98	4
23	102	1
69	72	4
68	73	5
56	56	15
68	79	1
43	46	1
85	93	1
25	37	1
41	41	4
24	25	3
49	49	11
30	66	3
25	38	4
86	98	4
84	86	2
38	97	2
44	82	2
79	106	2
45	88	3
29	31	3
58	60	8
22	78	2
27	28	4
28	38	3
53	54	3
82	104	3
23	94	1
55	56	5
93	94	2
60	67	2
60	61	6
67	68	1
46	53	3
54	58	4
21	45	1
31	39	1
44	46	3
65	66	4
64	87	1
54	55	2
70	73	3
22	104	4
97	98	3
104	105	2
50	53	3
70	71	1
29	34	3
20	66	2
57	81	4
69	75	4
21	68	2
39	45	3
25	51	1
50	56	4
24	50	2
43	44	4
43	43	4
99	100	2
27	86	3
69	88	2
67	71	7
79	81	1
74	78	1
30	38	1
51	56	1
53	56	3
56	57	3
39	41	2
54	71	2
50	55	3
51	51	2
67	77	1
63	64	3
57	71	5
20	21	6
31	99	1
82	105	3
31	34	3
70	85	1
23	30	2
51	67	2
71	73	4
94	97	1
21	47	3
31	97	2
85	86	1
32	37	4
59	62	4
32	98	2
82	92	4
63	107	2
67	78	2
67	69	1
37	99	2
82	85	1
65	94	4
23	98	1
64	97	1
28	34	2
95	105	1
94	105	1
84	85	6
52	85	1
59	60	4
100	102	2
33	38	4
87	91	1
25	34	2
93	105	1
51	85	1
99	105	2
54	84	1
91	98	2
96	97	1
24	46	1
49	54	2
35	36	1
63	67	3
52	57	1
25	46	2
86	97	1
45	48	1
52	53	3
20	25	3
42	42	2
30	106	1
70	78	1
87	94	2
89	96	1
56	65	2
89	94	3
38	64	1
25	81	1
21	72	1
51	52	1
69	70	1
79	101	4
96	98	1
21	70	2
63	80	1
90	104	2
41	96	1
38	42	1
64	94	1
56	58	1
77	80	1
37	87	1
40	96	2
51	64	1
81	97	1
40	43	1
49	55	1
39	42	1
64	80	1
42	45	1
88	92	2
94	95	1
31	37	1
31	36	3
95	97	1
29	99	1
20	20	2
24	81	1
27	93	1
22	23	1
37	38	1
97	99	1
30	42	1
20	22	1
27	39	1
56	60	1
34	37	1
95	102	1
26	93	3
24	94	1
64	66	1
21	100	1
88	96	1
47	53	1
36	103	1
72	73	1
21	23	1
29	88	1
89	92	1
98	107	1
75	76	1
58	65	1
65	67	1
57	58	3
93	96	1
32	103	1
30	40	1
68	78	1
33	37	1
54	107	1
88	93	1
59	61	1
