117	117	6
34	35	4
74	98	3
13	13	6
104	105	3
18	18	5
7	21	1
104	104	4
30	30	4
5	5	3
120	126	2
78	106	3
75	75	3
16	27	4
79	79	13
132	132	2
118	118	6
38	84	3
112	112	1
12	12	5
120	124	1
72	72	3
85	85	8
103	103	3
109	112	1
22	37	1
78	80	2
3	4	4
121	125	1
116	133	3
128	128	3
122	122	2
113	114	6
104	128	4
120	120	7
116	116	3
125	125	2
138	138	5
81	82	3
97	97	9
137	137	4
109	109	2
101	107	2
118	133	1
20	22	1
19	19	7
97	98	2
119	119	6
92	93	1
109	113	3
8	8	3
9	9	2
21	33	5
94	110	2
83	83	4
103	104	2
91	108	1
89	90	5
7	26	5
36	36	3
113	113	5
7	8	2
0	0	2
78	78	2
106	107	2
11	12	3
102	102	7
105	106	2
32	32	2
88	88	3
121	121	3
3	3	3
94	98	5
25	25	4
134	134	4
90	100	4
73	74	1
80	80	3
71	71	1
2	7	2
10	31	2
4	4	2
4	25	2
116	120	1
99	100	2
108	131	1
89	89	6
35	35	3
23	24	2
90	96	1
127	127	2
130	130	2
115	115	4
87	118	1
91	96	1
131	131	1
14	15	3
37	37	2
5	7	2
96	118	1
20	20	2
34	34	1
1	1	4
114	114	6
7	29	3
5	21	3
86	86	1
2	5	2
116	127	1
101	125	3
77	77	3
71	73	1
78	84	1
121	122	1
29	29	1
85	86	1
123	129	1
8	11	2
74	74	2
3	26	1
89	91	4
115	119	1
26	26	2
96	133	2
128	129	2
95	96	1
6	22	1
124	124	4
126	126	4
107	114	3
30	31	3
90	90	1
91	91	1
110	110	2
28	28	1
10	12	1
113	125	3
2	2	2
76	97	1
102	112	1
99	106	2
22	38	2
6	29	1
10	10	4
4	6	3
38	38	1
83	85	1
92	92	4
76	76	1
24	24	3
11	11	1
6	6	1
111	132	2
88	132	1
5	18	1
17	17	1
9	27	1
103	118	1
10	11	1
136	136	2
111	111	1
104	112	2
107	108	2
23	23	1
103	120	3
77	93	1
79	94	1
73	73	2
16	16	1
72	81	2
103	113	1
123	124	2
129	129	1
22	23	1
102	105	1
101	113	1
75	90	2
0	29	1
90	119	1
77	101	1
93	101	1
123	125	1
96	111	1
15	15	2
74	78	1
117	118	1
0	8	1
72	75	1
81	81	1
