1	15	2
121	128	5
130	130	2
94	95	4
173	173	7
104	104	5
194	194	13
127	127	11
118	119	4
55	69	1
6	6	9
156	158	3
168	181	1
95	95	7
123	151	2
149	149	7
9	9	4
80	83	2
184	186	2
58	78	1
172	176	2
38	105	6
97	100	3
13	17	3
1	1	5
107	107	7
66	78	3
112	121	1
96	99	1
100	100	13
126	127	6
88	88	17
169	171	4
144	154	2
192	192	11
36	39	5
69	107	4
153	154	3
60	60	3
51	51	3
20	39	2
86	88	2
196	196	4
11	23	6
12	16	2
157	158	3
0	7	2
3	4	3
115	142	3
60	70	5
30	31	1
47	52	3
148	148	12
168	177	5
1	21	1
79	80	5
24	88	3
156	156	5
143	143	8
81	81	7
81	84	3
147	158	3
162	162	1
39	42	4
127	148	1
66	66	3
8	8	2
117	118	2
83	83	11
18	18	15
143	144	1
45	45	6
40	40	2
8	22	2
18	21	3
33	48	3
131	131	10
103	104	2
109	114	3
141	142	1
96	96	4
145	146	2
54	56	3
60	72	3
102	114	7
107	117	9
67	67	8
125	132	1
51	52	1
29	34	2
140	140	9
140	143	2
0	5	3
48	48	14
175	175	10
141	141	9
24	39	3
128	142	1
56	56	6
46	58	8
145	148	6
112	168	2
24	24	1
144	145	2
187	187	9
52	52	2
94	105	4
113	116	1
181	183	6
72	73	4
130	138	1
12	12	10
175	176	8
10	23	3
16	17	1
155	171	2
157	157	14
110	124	5
127	145	3
71	75	1
52	53	4
154	154	9
132	142	1
46	63	3
121	129	1
188	188	11
16	161	9
35	45	1
153	172	5
9	21	2
89	89	12
4	10	4
90	90	1
189	189	5
36	36	6
108	108	4
70	79	3
127	141	1
139	142	1
19	21	1
102	178	2
49	52	5
192	193	2
40	42	4
116	118	5
112	123	1
80	82	1
182	182	7
152	152	1
93	97	3
122	122	5
138	138	1
102	102	7
177	196	4
87	87	6
117	117	3
133	146	1
180	183	6
36	38	3
67	70	5
41	42	4
114	116	4
56	117	1
136	136	3
98	98	5
94	94	1
128	136	1
128	145	3
150	150	7
14	28	6
166	166	6
110	110	1
169	193	1
113	129	1
44	45	2
155	155	5
159	159	9
59	81	1
96	197	1
107	119	2
34	44	4
160	171	1
31	31	8
147	173	3
172	172	7
10	10	2
120	120	3
155	159	1
117	121	2
166	168	2
107	108	2
194	195	6
172	175	3
119	119	5
79	79	3
112	125	1
141	156	1
179	179	4
42	44	2
191	191	6
31	33	2
144	166	2
47	47	7
104	107	2
38	62	2
57	57	3
59	77	4
109	109	1
177	189	2
117	132	2
56	71	5
65	65	2
150	158	4
71	71	3
127	142	4
25	26	2
66	87	1
177	191	1
29	29	3
123	126	1
182	183	2
27	27	2
36	37	1
125	125	2
31	36	2
163	175	3
109	111	1
134	134	9
16	16	8
4	4	7
146	147	4
155	162	2
121	134	4
135	135	3
118	118	5
61	61	7
51	64	1
7	14	1
75	75	2
54	54	5
47	51	2
96	101	1
53	54	6
133	133	2
20	21	1
147	147	2
161	162	4
120	141	1
20	20	10
125	126	1
4	6	2
96	112	1
165	177	4
164	178	2
24	38	3
8	10	6
102	103	2
3	3	3
36	64	3
43	43	7
126	133	1
1	7	8
56	61	3
135	152	4
115	118	2
35	35	2
165	167	3
189	192	2
21	21	5
60	82	2
61	69	1
168	170	1
26	27	2
30	59	1
171	171	1
58	70	2
129	129	10
30	32	5
183	185	2
46	49	1
37	49	5
185	186	9
132	132	3
120	121	3
101	103	5
78	79	1
139	139	12
64	68	1
183	183	3
163	163	5
110	111	1
191	192	3
85	86	4
159	170	4
44	44	4
86	86	5
135	148	2
142	142	6
119	121	3
109	110	5
60	71	2
59	63	3
95	97	4
190	190	5
151	153	3
160	163	5
195	196	1
1	2	2
49	187	1
113	124	1
2	2	3
3	8	3
124	126	1
184	187	3
119	195	2
124	124	1
64	187	2
147	165	2
30	62	2
76	77	3
15	15	1
59	59	4
167	167	2
39	40	3
84	84	3
0	3	1
188	189	3
104	106	1
101	101	5
99	99	1
26	43	1
172	196	1
45	46	1
193	194	3
39	44	1
112	124	1
43	54	3
49	49	3
123	123	10
169	169	6
84	89	3
134	135	1
172	173	1
76	79	1
136	137	2
168	169	4
151	151	2
167	168	2
17	17	5
38	106	4
14	16	3
100	113	1
88	90	2
55	58	4
154	174	1
144	147	1
47	98	1
177	177	1
140	153	3
18	29	2
190	192	2
159	172	2
85	85	2
186	197	3
156	160	1
78	78	3
81	82	1
155	156	8
20	35	2
11	11	7
20	34	1
100	104	3
21	36	4
20	26	2
100	102	2
46	47	3
164	177	2
70	83	2
121	121	7
121	122	1
0	4	1
81	83	3
148	149	8
173	175	1
160	162	1
165	174	1
69	69	4
178	183	1
120	125	2
114	114	7
19	20	2
99	104	4
184	184	3
116	116	5
81	88	1
53	53	3
32	32	1
165	166	1
37	37	1
55	55	4
57	59	2
150	163	6
133	138	2
56	67	4
70	70	2
46	48	2
6	7	2
101	106	1
103	103	1
158	169	1
112	112	1
32	33	1
1	10	4
145	147	1
72	76	3
136	138	4
18	32	2
33	47	2
176	176	3
50	61	2
143	155	2
83	84	1
131	133	2
129	130	2
154	162	2
32	35	4
178	178	3
106	132	1
54	55	2
19	35	1
56	58	2
167	181	3
142	143	2
139	140	4
196	197	2
80	80	2
143	149	1
146	146	2
38	39	4
161	164	5
63	64	2
58	58	2
151	173	4
39	39	3
113	113	2
5	7	4
125	127	2
146	151	2
161	173	3
19	124	1
45	59	2
7	11	2
1	76	3
153	179	7
123	143	2
184	185	2
124	125	5
9	11	2
73	79	1
99	113	3
157	159	1
69	70	1
13	56	1
146	149	3
4	148	3
153	173	4
185	185	3
158	171	1
71	83	3
43	44	2
0	0	4
43	52	1
62	65	2
17	26	1
19	25	1
77	77	3
114	115	3
168	197	1
58	59	1
5	5	4
161	161	2
133	134	7
128	156	1
176	179	3
0	77	1
163	164	5
116	117	4
95	99	2
74	75	1
40	99	1
22	34	1
30	61	2
106	106	3
39	41	1
136	142	1
170	177	1
95	96	1
23	23	4
84	85	1
88	98	1
132	133	2
114	119	1
137	137	1
22	43	3
128	128	2
180	180	2
153	153	1
34	35	2
14	15	2
111	111	2
170	170	2
193	193	4
17	18	2
97	183	2
28	42	1
101	104	1
93	94	1
30	34	1
186	186	1
169	170	1
15	18	1
50	69	3
190	196	1
155	158	7
178	180	1
150	153	2
133	145	3
42	53	1
67	86	1
34	36	1
3	5	4
69	83	1
94	102	1
74	74	2
96	97	2
54	70	1
189	190	1
62	62	1
2	7	2
11	17	2
8	21	3
116	132	1
124	128	1
102	106	2
131	143	1
139	178	1
150	165	1
144	146	1
56	57	5
94	96	2
47	55	1
26	26	4
94	100	2
52	64	1
197	197	4
28	28	1
11	12	1
153	155	1
32	49	2
183	184	2
26	35	1
71	72	1
168	174	1
191	193	3
13	13	3
146	154	1
72	72	2
168	168	2
23	25	1
133	144	1
179	180	1
144	144	2
169	182	1
41	57	1
98	116	1
2	79	1
32	46	1
60	132	3
65	67	2
63	77	2
110	112	1
124	134	1
79	81	2
46	59	1
109	115	2
111	128	1
142	144	1
33	129	1
22	37	1
97	97	3
46	89	1
43	104	1
114	134	2
46	61	1
79	82	2
27	157	1
99	105	2
103	107	2
155	182	1
64	64	1
178	179	1
195	197	2
11	14	1
42	155	1
30	30	1
136	149	1
43	45	2
40	55	1
113	168	2
68	100	2
128	131	1
56	69	1
138	153	1
47	64	1
87	88	1
126	126	2
107	123	1
153	167	1
85	103	1
116	130	1
164	164	1
68	68	2
178	192	1
110	120	1
156	163	1
98	109	1
66	70	1
35	87	1
14	14	1
98	99	1
87	100	1
123	125	1
42	42	4
29	35	1
77	105	1
31	47	1
34	49	1
53	63	1
23	24	1
123	137	1
195	195	1
65	66	1
108	109	1
0	14	1
108	119	1
123	156	1
58	63	1
12	13	1
24	28	1
7	9	1
25	27	1
38	38	1
158	158	1
168	173	1
179	183	1
172	188	1
8	9	1
164	167	1
87	89	1
50	50	1
75	77	1
185	192	1
140	141	1
57	58	1
38	104	1
27	37	1
115	122	1
119	120	1
29	60	1
2	12	1
