10	13	5
2	2	11
57	57	9
37	61	2
9	9	8
35	35	9
76	76	17
64	65	7
18	27	5
33	66	3
5	5	2
5	6	7
50	50	11
52	65	4
54	55	6
55	55	17
30	31	5
62	63	7
56	56	15
36	36	11
32	38	2
66	66	15
0	2	4
34	43	2
17	17	12
16	16	3
48	48	10
38	38	14
70	75	5
77	77	8
51	63	6
63	63	17
14	14	20
4	4	20
48	49	2
35	36	1
25	32	3
66	67	2
28	31	3
0	0	7
79	80	4
78	78	15
47	47	5
20	33	5
55	64	3
26	34	4
51	51	9
39	39	24
25	25	13
40	40	14
53	63	1
42	42	14
13	30	1
31	31	9
73	74	3
1	1	11
19	35	4
29	30	2
66	68	3
4	6	1
9	10	1
28	35	1
75	75	15
33	44	2
3	4	5
59	59	3
43	43	2
61	61	7
52	63	1
10	10	15
14	15	3
70	79	4
73	73	11
58	58	8
35	37	2
65	65	13
77	80	2
33	35	3
69	69	12
16	17	7
8	8	17
11	21	2
58	66	3
74	78	3
68	68	9
4	5	1
12	12	3
47	55	2
42	73	1
65	66	4
49	49	2
64	66	1
15	15	15
64	64	6
38	40	4
56	57	3
0	56	1
30	30	7
65	70	3
51	53	6
41	42	4
70	70	4
41	41	22
19	19	9
31	32	2
42	46	4
30	37	5
52	53	4
60	60	13
60	63	3
20	35	6
59	71	2
12	33	3
2	3	2
74	75	3
20	21	3
12	14	2
37	37	11
49	50	5
46	46	16
69	73	2
36	37	7
34	52	3
13	13	7
81	81	2
69	72	2
26	49	2
11	11	5
7	7	15
13	14	8
55	69	2
15	16	9
1	2	8
45	45	9
6	10	3
27	35	1
52	52	7
67	67	2
74	76	2
79	79	13
29	29	6
50	54	2
45	50	1
63	64	8
45	46	1
54	54	10
62	62	4
61	62	11
55	63	3
49	52	2
1	4	4
56	67	1
46	47	7
32	32	5
26	32	2
57	59	7
74	74	9
28	40	4
40	41	6
51	54	3
70	72	2
71	71	6
72	72	6
32	34	1
28	28	4
32	33	9
11	12	4
75	76	4
68	70	1
69	70	7
26	29	2
7	8	2
80	80	6
20	26	4
6	6	3
5	14	2
11	17	1
26	26	3
7	11	1
67	70	2
39	42	2
9	11	3
3	18	1
19	26	2
30	36	1
50	53	1
59	69	2
78	79	1
0	10	1
20	36	3
53	53	2
10	11	3
66	71	2
71	72	3
19	27	1
55	56	2
3	3	5
18	18	2
33	33	3
3	5	2
38	39	2
47	49	1
5	9	1
60	67	2
60	61	1
53	62	2
8	17	1
45	51	2
53	68	3
52	54	2
21	21	3
2	4	2
17	18	2
70	71	4
34	59	2
74	77	1
58	67	1
27	28	8
70	74	1
66	70	2
13	17	4
20	20	5
48	58	1
29	34	5
68	69	6
72	75	3
50	60	3
76	77	4
6	8	4
36	42	4
11	22	2
12	26	1
46	49	1
31	38	1
37	39	1
49	51	2
3	55	1
0	1	1
49	57	1
58	60	2
37	38	3
78	81	3
60	64	1
67	68	3
5	16	5
13	15	2
32	53	2
8	19	1
58	59	7
0	7	1
42	50	1
34	34	6
0	6	1
27	27	1
47	48	1
44	44	2
39	48	1
33	59	1
75	77	1
51	61	1
55	65	2
33	34	1
59	66	1
6	7	1
53	54	1
17	20	1
9	13	1
55	59	1
9	12	1
25	26	1
25	30	1
3	54	1
66	72	1
65	71	1
19	20	1
40	42	1
55	62	1
65	67	1
11	14	1
56	58	1
69	71	1
69	77	1
41	53	1
1	18	1
9	15	1
14	22	1
