136	137	1
135	136	5
118	118	8
80	80	8
164	165	3
137	137	2
34	34	3
100	100	5
6	7	3
10	10	13
165	165	2
6	6	1
37	37	8
132	133	2
49	49	2
138	139	12
53	53	9
129	129	6
21	166	3
125	126	1
9	9	8
108	109	3
145	145	4
148	149	1
33	34	2
110	110	4
16	16	13
155	155	4
103	120	2
121	122	9
80	81	4
82	82	5
144	144	4
63	64	2
4	5	1
39	39	5
113	113	7
13	13	6
125	127	1
23	24	3
134	154	2
41	42	5
127	132	4
109	109	4
166	166	5
42	42	6
73	124	2
158	158	6
168	169	3
169	169	8
22	24	3
17	17	4
41	41	5
91	91	4
44	45	2
88	107	3
90	148	2
89	89	7
99	99	8
123	124	3
1	114	2
97	145	5
3	3	9
90	90	2
73	147	2
141	142	6
135	154	2
8	18	2
128	128	2
87	122	3
97	97	4
84	84	9
66	66	4
152	162	4
100	101	4
51	51	2
135	135	1
111	111	12
142	142	8
62	62	2
167	168	3
132	132	4
114	116	3
126	126	8
105	105	4
162	162	9
46	87	2
66	67	5
114	114	4
11	11	3
100	119	4
6	10	4
120	122	2
91	148	1
43	43	3
48	49	2
23	23	10
74	74	5
34	35	3
130	130	1
63	68	1
146	146	1
159	160	5
78	93	3
117	118	3
157	157	2
22	84	2
138	138	6
101	103	3
69	93	2
45	53	3
140	140	1
150	150	6
106	106	12
28	28	5
72	72	3
115	116	1
170	170	1
5	5	5
86	86	5
83	84	2
56	56	6
92	93	2
17	18	3
151	151	4
73	99	2
47	48	2
169	170	1
64	64	4
119	119	7
102	102	2
46	46	1
70	70	2
108	108	2
101	122	5
41	52	1
149	149	7
7	7	5
35	35	4
96	96	3
45	116	4
47	49	5
136	158	1
160	160	3
85	87	2
11	14	2
43	44	4
94	94	3
25	44	3
90	146	2
26	26	4
24	26	2
74	160	2
48	48	4
65	65	3
54	55	1
82	104	2
120	120	1
135	137	1
93	146	3
116	116	8
27	27	2
137	138	3
99	105	1
77	77	1
52	52	2
83	83	2
109	152	2
144	145	3
37	38	4
25	25	2
79	79	3
118	168	2
74	75	1
103	103	4
79	117	2
106	126	3
67	67	2
107	107	2
111	112	3
116	117	3
44	44	3
73	73	3
122	122	1
153	153	4
124	125	3
78	117	2
20	25	1
39	40	1
108	138	1
49	51	3
124	124	2
82	83	3
88	89	4
40	40	3
105	106	1
156	156	3
157	158	3
154	155	2
55	55	2
78	92	4
107	120	1
38	38	2
20	23	3
120	121	2
4	6	1
71	71	5
127	127	2
167	167	1
168	168	2
2	44	1
45	85	1
51	169	1
143	143	2
72	150	1
125	125	1
41	162	1
8	14	1
0	8	2
159	159	1
95	113	1
42	43	1
123	152	1
63	63	1
155	156	1
81	81	2
152	152	6
86	118	1
101	121	3
141	141	2
121	136	1
4	11	1
123	123	2
86	88	5
153	162	1
164	164	1
82	162	1
70	74	1
78	78	1
3	16	1
100	120	1
42	165	2
92	92	2
121	169	2
166	167	1
24	146	2
22	112	2
133	133	1
98	98	1
93	94	3
0	39	1
112	112	2
69	70	1
154	154	1
139	141	1
109	111	1
26	42	1
93	93	1
1	1	2
142	154	1
82	84	1
18	18	1
133	134	1
38	40	2
8	9	1
25	167	1
77	78	1
9	10	1
152	163	1
163	163	1
47	47	4
57	57	1
44	51	1
20	21	1
24	24	1
14	15	1
7	169	1
34	36	1
13	14	1
73	74	1
