87	88	9
66	66	19
84	84	15
74	74	18
79	79	19
34	38	1
44	44	23
88	88	27
73	73	21
40	40	30
80	80	16
70	70	14
64	64	27
65	66	9
50	50	6
52	52	10
51	51	15
67	68	22
53	53	2
101	101	9
40	41	2
67	67	38
63	63	41
83	83	23
71	71	16
27	27	13
97	98	3
33	34	2
76	76	35
72	72	30
35	35	13
77	77	29
31	86	2
86	86	13
98	98	14
24	24	7
48	48	8
25	25	12
35	36	10
38	45	1
68	68	27
87	87	14
78	88	3
34	52	1
37	37	9
23	25	1
66	68	2
76	77	2
55	56	5
71	72	6
63	64	7
52	56	3
78	78	19
75	75	25
57	57	7
34	34	6
26	26	6
82	82	7
36	36	7
27	28	5
25	92	3
47	48	5
60	72	3
62	62	18
45	60	1
81	81	21
65	77	6
54	54	14
23	23	2
63	91	1
92	92	16
20	79	3
95	95	6
69	83	8
61	80	7
53	57	3
96	99	4
51	52	2
66	67	2
79	86	3
34	44	1
85	89	3
47	47	9
99	99	7
102	102	7
95	98	3
43	43	3
61	61	20
64	65	12
78	79	4
22	96	2
89	89	11
42	42	29
96	98	1
83	84	1
38	38	7
56	58	2
93	93	12
58	58	17
32	33	2
36	37	7
60	79	4
22	22	5
29	29	16
94	94	5
79	82	3
45	45	6
93	94	5
69	70	11
24	25	2
52	60	2
49	49	16
31	31	8
100	101	2
46	46	3
65	65	24
25	26	4
60	60	11
62	80	1
95	97	3
92	93	5
36	83	1
62	63	3
65	78	2
27	88	2
28	88	3
61	87	4
23	27	4
27	91	4
69	69	11
62	67	2
20	20	3
53	55	1
89	93	2
54	55	1
55	55	15
90	90	10
39	39	7
91	96	4
25	83	1
65	93	4
41	41	12
30	30	1
27	30	2
48	49	3
33	33	3
100	100	9
86	87	2
42	43	2
72	74	6
64	83	3
32	35	1
30	87	1
38	46	2
57	58	1
63	69	1
91	91	1
81	100	12
75	76	1
96	96	3
84	92	1
70	73	3
66	86	2
41	72	4
97	97	4
56	56	7
30	37	1
59	59	16
85	85	9
73	74	4
81	82	7
94	98	4
70	71	2
51	73	9
93	95	2
66	76	2
76	84	1
62	101	1
32	32	2
68	77	3
62	83	1
59	71	1
74	75	6
88	89	2
52	53	3
56	57	1
22	46	2
101	102	2
26	93	2
95	96	3
23	40	1
63	89	6
68	69	5
36	46	1
61	88	2
66	69	2
61	63	4
73	100	3
40	56	1
85	86	3
35	56	5
58	59	1
63	67	2
90	91	2
73	75	4
83	86	1
94	95	5
48	59	1
77	78	3
49	50	3
59	75	1
34	48	2
60	63	1
33	35	2
65	85	1
94	97	2
24	26	1
71	74	2
64	67	1
86	89	1
40	45	1
82	83	1
99	100	1
60	61	1
23	28	1
67	80	1
22	52	1
79	85	1
89	90	1
78	86	1
91	95	1
81	83	1
82	84	1
61	62	1
79	88	2
80	81	1
91	93	1
39	80	1
52	58	1
