125	126	4
80	80	1
28	44	4
132	133	4
91	106	1
36	36	5
19	19	2
119	119	7
81	81	5
103	103	3
7	45	1
25	25	6
68	68	5
8	8	6
16	16	2
29	32	4
120	120	2
82	111	4
64	64	8
62	71	1
43	43	5
131	131	1
67	67	9
75	75	7
10	19	3
101	125	1
65	65	11
24	24	1
96	99	8
13	35	1
32	32	3
110	110	2
63	63	5
77	77	6
9	9	6
10	18	5
69	71	1
76	76	10
50	59	3
95	95	5
34	34	4
0	0	2
46	47	1
127	127	8
93	93	1
88	88	4
66	67	1
51	55	1
6	6	6
129	133	1
109	109	5
17	17	3
130	130	6
114	114	2
66	66	3
100	100	1
73	95	1
5	5	4
85	85	3
11	11	5
94	106	1
59	59	10
14	25	3
30	30	7
55	56	3
20	21	3
89	89	2
59	60	1
73	73	3
43	44	5
19	20	2
14	26	7
134	134	1
59	113	2
129	129	2
78	78	4
60	113	2
37	37	2
101	101	4
47	47	7
60	60	6
40	41	1
86	86	2
55	58	4
22	25	1
41	41	1
13	13	1
7	123	1
98	104	1
91	105	2
104	105	2
129	132	1
35	35	8
92	92	6
108	110	4
20	46	2
112	113	2
21	21	2
62	63	3
13	36	1
25	31	2
99	100	5
72	72	7
87	87	3
11	12	3
7	7	6
1	1	2
7	29	1
61	62	1
55	55	5
59	112	2
74	75	4
10	10	1
71	71	3
29	29	1
84	84	2
38	38	2
44	44	7
90	108	2
121	128	3
125	128	1
94	96	1
105	106	1
85	89	1
82	82	4
83	89	2
3	3	1
132	132	3
94	105	1
69	69	2
106	106	1
28	31	2
112	112	1
58	58	1
92	105	1
75	76	3
86	123	2
98	100	1
23	66	1
39	39	2
57	86	1
121	121	3
130	131	6
20	41	2
61	67	2
96	98	1
23	23	6
102	129	1
7	48	2
11	33	1
31	32	1
30	31	1
126	131	1
79	79	4
107	107	2
97	98	1
19	21	1
23	24	1
126	126	3
107	108	1
59	63	1
83	85	2
27	56	2
81	112	1
127	131	1
91	91	3
14	33	1
71	72	2
61	61	1
91	102	1
115	115	2
125	125	2
8	45	2
63	64	1
87	88	1
18	18	1
132	134	2
30	32	1
14	14	2
118	118	1
21	31	2
70	76	1
46	46	3
20	20	4
117	117	1
4	133	1
62	62	2
93	101	2
86	87	1
25	28	1
94	95	1
97	97	1
56	56	1
60	62	2
116	117	1
94	94	2
2	2	1
2	5	1
31	31	1
82	89	1
99	99	1
83	109	1
121	122	1
9	46	1
123	123	1
40	40	1
124	124	2
59	111	1
93	99	2
15	15	2
7	44	1
