1	2	9
127	130	5
26	29	1
34	34	12
122	122	19
73	74	9
29	29	16
24	25	4
95	95	16
127	127	21
0	116	6
19	21	2
97	98	2
80	86	5
136	136	10
9	10	5
129	129	14
36	37	3
25	28	1
118	120	4
122	126	1
77	118	4
31	31	14
139	140	2
101	101	15
36	38	1
119	120	11
108	109	5
37	37	12
113	113	16
15	15	9
131	131	12
73	73	24
94	95	3
120	120	12
126	127	11
3	3	21
102	118	5
102	102	10
18	21	3
92	92	5
72	73	4
5	5	28
19	19	29
35	35	40
89	89	5
13	14	5
32	33	1
19	20	5
0	0	16
93	93	7
31	37	1
20	20	11
34	36	2
76	76	11
72	72	20
71	71	20
4	5	8
91	91	18
126	126	11
12	13	6
102	103	6
105	105	7
10	10	15
97	97	5
124	124	21
80	80	28
100	100	17
22	23	7
81	81	14
9	20	5
130	130	20
100	123	5
8	8	33
85	85	10
100	101	8
125	125	18
82	82	14
2	2	13
9	9	19
23	24	14
17	17	17
28	28	13
21	22	7
25	75	11
131	132	3
38	38	23
124	126	5
82	85	3
33	33	17
117	118	3
22	22	14
103	117	3
127	128	8
103	104	1
78	79	8
73	84	4
99	99	15
28	29	5
83	83	12
75	75	15
6	7	2
138	138	14
119	119	11
27	117	5
120	121	5
7	8	5
121	121	8
94	94	12
17	21	4
112	114	5
35	36	9
78	78	9
77	77	7
25	25	11
23	23	20
99	100	5
96	96	12
74	74	12
79	94	2
123	123	14
139	139	18
95	96	9
24	24	6
132	132	15
107	107	23
90	90	7
11	15	3
9	110	4
95	98	7
111	118	1
37	127	4
104	104	7
30	31	9
84	87	4
14	14	8
136	139	4
98	98	15
115	115	5
31	38	3
13	19	2
118	119	5
133	133	4
87	87	19
114	115	5
29	116	1
17	18	1
88	88	18
12	14	1
4	4	25
140	140	6
106	106	7
72	80	2
108	108	7
76	80	5
80	81	12
122	123	7
98	103	3
84	85	4
13	13	9
134	134	4
77	80	3
111	111	12
79	80	4
27	27	3
117	119	2
18	19	5
102	105	4
128	129	6
79	79	13
101	118	2
100	118	2
24	26	4
117	117	9
0	1	6
137	137	2
88	117	3
82	84	6
109	111	7
111	112	8
16	16	10
26	26	8
124	125	4
86	86	14
18	18	13
111	115	3
33	115	1
30	32	2
112	112	18
108	118	2
87	88	3
114	114	14
1	88	4
88	89	7
75	85	2
36	72	3
109	109	6
33	34	6
0	4	1
80	99	2
7	7	2
79	123	1
135	135	11
73	75	1
93	112	2
36	139	3
8	26	2
109	118	1
8	71	5
37	38	4
27	75	2
83	89	4
128	128	19
103	103	8
37	73	2
7	72	5
10	73	3
32	32	9
87	121	1
107	108	8
1	87	4
77	78	6
90	92	1
81	118	4
81	82	2
0	2	3
74	75	1
134	138	4
125	130	2
27	28	3
75	77	4
11	12	2
92	93	2
130	131	4
102	113	4
8	13	4
6	31	7
75	76	1
7	22	2
96	108	3
87	89	4
6	6	5
123	124	6
34	35	1
36	36	8
121	122	8
16	86	3
15	22	2
104	107	2
138	139	6
77	84	1
37	75	4
6	24	2
25	26	1
91	93	3
94	96	1
116	117	3
84	84	4
8	24	1
27	29	1
112	115	3
35	37	2
88	100	1
103	105	6
2	90	1
127	131	1
116	116	10
96	99	1
3	124	3
1	5	2
12	74	1
104	111	1
78	81	1
135	136	1
118	118	8
7	21	2
84	91	3
132	133	1
0	66	1
83	84	4
131	133	2
85	91	4
86	106	4
127	129	2
12	12	4
129	132	2
120	122	1
11	11	8
121	125	1
122	124	1
89	91	1
3	4	1
36	98	1
108	116	1
9	11	1
2	3	3
7	9	1
91	94	1
125	126	4
104	110	2
1	1	3
8	138	1
8	9	5
119	127	1
96	109	2
108	115	1
76	77	2
9	73	2
133	134	2
80	83	1
80	105	1
95	115	3
13	25	3
25	33	2
35	139	1
129	130	3
93	94	2
24	27	1
90	91	2
104	105	1
81	84	4
110	110	1
25	27	2
15	18	1
110	118	1
72	93	1
97	116	1
2	89	1
32	116	1
78	82	2
21	21	1
31	79	1
98	112	1
136	140	1
136	138	1
30	30	1
115	116	1
0	117	1
75	78	1
23	25	1
32	38	1
