120	120	8
142	142	3
95	95	7
135	136	2
47	47	5
53	53	10
102	102	8
130	130	15
9	11	1
129	129	5
110	110	2
97	145	4
131	131	5
54	54	7
106	106	7
60	63	3
103	131	1
99	99	5
14	79	3
59	61	6
50	85	2
119	119	2
30	30	9
31	31	9
51	52	5
13	18	4
122	122	8
114	114	7
9	9	2
104	104	11
13	13	3
136	136	14
28	28	11
61	63	6
97	97	4
52	52	6
121	127	1
29	30	9
27	30	3
115	115	7
2	3	2
114	117	1
2	2	6
62	62	6
70	70	7
67	67	8
138	138	3
113	113	14
98	146	5
54	55	5
63	67	6
114	115	1
27	27	10
133	134	3
126	126	4
2	38	7
26	26	11
48	113	5
32	32	18
108	109	4
134	134	15
8	8	6
96	96	15
87	87	2
8	9	2
31	42	3
105	105	7
66	66	7
110	111	1
76	76	10
133	133	5
60	60	12
33	33	12
92	93	3
122	123	5
58	61	4
93	93	8
97	98	6
81	89	3
91	91	11
50	51	7
74	74	10
81	81	11
23	24	4
100	101	4
38	38	10
18	18	4
39	39	9
29	29	8
98	98	10
32	33	3
56	56	4
20	20	2
132	133	4
23	23	15
64	64	12
130	132	2
127	127	13
36	36	2
22	27	1
24	24	4
63	63	12
135	135	8
41	41	8
94	94	15
75	75	6
59	60	4
68	90	2
102	103	5
71	71	27
96	127	1
20	21	3
34	100	2
5	51	1
61	61	15
88	93	2
116	116	3
116	117	1
66	67	4
27	82	3
68	68	9
139	139	6
21	21	6
67	68	4
68	69	1
144	144	4
107	108	3
106	114	4
4	5	2
121	121	6
25	54	1
32	37	1
40	40	6
38	62	4
17	17	10
92	144	1
69	69	3
55	55	8
117	118	2
70	80	4
22	23	1
103	103	4
15	15	11
57	58	4
53	112	1
79	137	2
121	125	1
110	113	6
72	72	11
59	59	12
92	92	6
103	104	6
4	10	2
43	43	3
84	116	1
78	78	8
79	79	3
125	126	3
4	6	1
84	85	3
73	124	2
99	100	6
121	140	2
123	123	11
73	74	5
4	4	5
146	146	5
75	103	2
132	132	3
15	16	8
3	3	9
51	51	11
63	119	1
132	139	2
49	50	1
117	136	5
122	126	1
102	104	4
48	85	3
143	143	5
65	65	2
105	106	3
22	22	3
58	59	2
82	83	3
56	78	4
111	112	2
93	144	3
103	116	2
12	18	2
129	130	2
130	143	2
90	90	7
72	73	1
88	88	6
8	54	6
93	126	1
24	29	1
113	114	3
145	145	2
107	131	4
77	135	2
8	146	4
2	20	3
33	35	3
81	83	2
96	133	3
109	111	1
81	135	1
122	140	2
91	93	3
48	87	2
73	73	4
14	14	7
68	92	2
137	139	1
80	125	1
101	101	10
100	116	5
31	32	1
15	17	1
111	111	5
11	11	3
13	15	1
89	89	4
130	131	1
87	88	6
72	74	1
71	82	2
86	87	3
18	22	5
70	75	2
77	78	2
12	13	2
6	6	4
108	108	2
78	89	1
31	47	3
33	43	1
25	25	5
22	82	1
21	53	3
128	136	4
2	19	2
123	125	3
113	115	2
105	114	1
88	89	1
119	120	4
50	50	4
143	144	1
114	131	1
132	140	1
20	35	1
32	35	1
28	29	3
113	116	1
134	139	1
5	52	2
37	37	1
117	117	1
56	115	1
95	96	3
109	109	2
58	58	4
82	84	1
5	11	1
42	42	8
100	100	1
136	137	1
141	141	6
48	50	1
70	127	1
124	124	2
35	35	1
62	63	4
71	83	2
84	84	4
129	132	1
59	62	3
17	41	2
76	80	1
112	113	1
72	126	3
77	137	3
108	142	1
76	77	4
101	133	2
137	138	2
59	108	3
118	134	2
137	137	3
80	121	3
54	95	1
83	84	3
100	104	1
22	42	1
69	79	2
107	107	4
38	143	1
68	120	1
100	105	1
17	42	1
16	16	2
77	77	2
57	57	1
100	113	1
88	127	1
77	79	1
128	128	2
69	81	2
19	19	2
117	137	1
102	128	2
76	103	2
48	48	1
145	146	1
25	26	2
104	116	1
77	117	2
118	118	1
93	141	1
16	41	2
35	43	1
112	116	1
72	123	1
94	140	1
77	88	1
54	56	2
67	143	1
85	85	1
37	38	1
115	117	1
3	12	1
60	61	2
87	140	1
98	104	2
14	16	1
39	41	1
112	112	1
130	140	1
75	78	1
103	114	1
132	134	1
18	24	1
80	123	1
92	102	1
55	67	1
49	49	1
33	38	1
64	65	1
38	144	1
98	99	1
38	39	1
81	145	2
91	142	1
1	3	1
62	66	1
