115	116	2
13	71	1
79	79	13
57	57	1
96	96	2
13	92	1
55	55	7
91	91	5
80	80	11
94	94	1
36	55	4
112	157	6
95	95	5
56	57	2
131	131	5
92	92	3
33	33	3
115	155	2
46	49	2
81	81	7
106	106	6
134	134	4
29	29	11
2	2	6
126	126	3
152	152	2
1	1	4
138	150	2
46	46	4
93	96	3
7	10	6
137	137	2
50	55	1
93	93	3
51	51	1
118	124	2
73	100	1
146	147	1
6	6	5
66	66	4
20	20	7
5	10	1
16	16	2
70	71	3
83	86	2
89	91	2
136	158	2
89	89	4
108	111	1
138	138	1
129	129	2
0	0	12
56	56	2
105	105	5
65	66	1
130	130	5
44	44	5
13	14	5
126	143	3
102	102	1
51	54	3
134	139	2
39	39	6
114	114	1
77	79	4
30	30	1
148	148	1
53	56	6
47	47	5
41	91	4
103	103	1
115	118	7
62	63	2
68	71	2
98	98	3
50	50	1
35	35	3
52	52	2
65	65	2
41	41	3
87	89	1
4	4	2
152	155	2
156	156	2
140	141	2
86	86	3
117	155	3
72	73	1
14	14	2
71	71	6
100	100	6
155	156	2
125	143	1
113	144	6
123	124	2
158	158	6
39	69	1
15	15	5
3	67	2
23	23	4
113	114	1
143	143	3
63	68	4
142	142	1
83	83	4
17	54	1
21	21	2
130	147	2
18	18	3
139	139	3
111	112	2
127	145	3
147	147	1
106	117	2
40	68	1
104	104	1
101	101	6
76	146	2
116	142	6
106	113	1
10	10	3
14	15	2
75	75	1
42	42	5
155	155	2
43	43	2
24	24	2
125	149	2
87	87	5
114	154	1
25	25	6
72	72	1
93	94	4
48	48	1
42	43	1
109	110	6
48	51	1
3	71	1
45	82	1
82	82	2
13	13	1
116	117	3
92	93	2
79	83	3
73	86	1
28	98	2
73	87	1
124	125	1
49	49	2
69	69	2
121	121	1
118	146	2
67	68	2
77	78	1
41	67	1
113	113	2
129	130	1
119	119	1
100	101	2
117	117	4
120	127	2
77	84	2
12	12	3
107	117	2
68	75	1
55	70	1
87	88	1
34	53	2
112	112	4
40	46	1
27	27	1
65	72	1
124	148	1
136	136	3
108	115	1
97	97	3
79	80	1
104	144	1
81	82	3
157	158	1
40	40	1
7	7	1
73	73	3
40	69	1
45	47	1
119	122	1
45	127	1
156	158	2
136	154	2
118	118	1
36	36	1
108	131	1
139	140	1
133	133	1
37	40	2
76	76	1
66	71	1
157	157	1
118	121	2
26	27	1
85	85	1
21	22	1
121	146	1
79	81	1
88	88	1
123	123	3
15	16	1
135	148	1
154	154	1
13	16	1
83	92	2
27	71	1
49	50	1
70	70	1
141	141	1
34	35	1
128	130	1
86	122	1
