116	150	1
126	130	2
110	110	9
169	169	12
128	128	7
8	8	6
106	106	8
39	39	6
137	156	6
45	45	14
46	49	7
129	130	3
66	68	3
19	41	1
83	90	2
75	78	3
162	162	8
46	71	7
1	11	4
159	159	10
150	150	13
134	155	5
5	5	4
126	126	3
102	109	4
114	116	4
129	129	3
85	85	13
14	15	6
66	66	8
140	142	1
135	135	12
15	15	9
90	123	3
0	0	2
54	55	3
23	23	16
101	122	1
168	168	8
21	21	7
163	163	13
116	153	3
76	77	5
43	43	11
54	54	4
72	109	2
19	42	1
3	78	1
27	27	4
145	153	4
36	36	10
94	94	5
55	55	7
76	78	4
170	170	16
151	151	10
76	76	4
95	95	2
12	34	6
137	137	10
53	56	4
9	9	11
10	10	9
4	4	5
69	69	8
144	144	8
90	102	1
80	83	10
101	105	6
72	74	1
120	127	1
99	99	3
20	23	2
149	149	6
86	86	9
104	138	3
80	84	1
144	148	4
92	93	4
7	8	7
83	83	3
69	92	3
105	105	2
57	64	2
7	22	4
42	42	3
16	19	3
48	49	6
126	127	1
28	28	6
166	166	3
148	148	8
2	3	3
44	44	10
75	75	3
139	140	4
58	95	4
1	3	2
1	1	10
107	108	4
72	73	1
106	114	3
167	168	1
138	139	4
80	80	9
147	169	3
14	14	5
71	96	1
168	169	1
5	43	4
167	167	5
122	123	2
73	73	3
3	42	2
39	40	2
8	79	3
36	37	2
80	86	7
34	34	5
11	11	4
79	80	6
22	23	3
71	71	5
142	169	3
15	44	1
67	70	3
52	74	2
7	10	2
26	41	3
140	140	3
100	117	2
140	160	1
82	82	9
81	81	2
14	43	2
1	20	4
136	168	3
50	50	10
7	80	3
100	104	4
132	153	4
19	24	2
67	71	3
144	164	4
143	150	2
159	162	3
114	114	4
133	167	2
88	115	1
63	132	7
79	79	4
103	105	6
9	83	1
62	93	1
111	112	2
49	49	7
93	93	7
125	126	4
77	77	7
67	67	4
78	78	2
133	133	7
127	127	5
160	160	5
26	26	4
155	155	7
134	134	2
165	165	8
127	129	2
37	37	4
132	132	6
53	53	5
2	2	2
127	130	2
136	140	5
56	56	1
1	2	2
158	158	5
97	120	3
139	156	5
4	43	3
80	81	6
68	68	4
163	164	3
18	18	6
91	91	6
22	24	7
5	9	1
63	63	8
62	79	1
131	137	3
15	52	1
161	162	2
123	153	3
153	154	6
101	102	3
8	22	2
77	95	2
21	35	3
6	21	4
123	128	1
104	121	3
151	152	4
52	58	2
147	149	6
17	17	1
107	107	6
125	125	6
113	113	4
118	118	5
25	25	7
2	14	3
12	12	4
99	132	3
124	134	1
122	122	3
149	151	2
38	38	3
6	7	9
77	152	3
41	41	3
100	101	8
67	68	3
161	161	6
63	81	2
49	51	3
85	95	2
87	108	1
47	47	5
104	104	2
152	152	7
134	139	1
150	155	3
146	146	8
134	136	2
144	153	2
97	97	1
119	132	1
62	85	3
70	90	2
5	42	2
89	89	4
51	52	3
57	58	1
142	144	5
51	51	4
1	50	3
66	93	2
164	164	7
20	20	4
78	85	1
102	155	1
39	52	4
154	154	3
22	22	5
40	40	5
123	123	3
120	120	3
144	145	2
132	157	4
43	77	3
118	146	4
141	141	4
142	142	3
143	143	3
161	163	1
136	137	4
33	33	3
131	144	2
106	109	2
99	153	1
89	117	2
16	16	7
115	117	4
64	64	4
62	96	3
45	49	1
117	118	1
88	88	4
7	81	2
90	90	1
6	49	1
18	19	2
131	142	1
103	103	2
133	134	3
128	129	3
164	165	1
112	112	3
127	144	2
56	69	4
122	168	1
48	48	6
118	122	1
4	5	1
145	156	3
88	103	1
114	152	4
68	98	3
44	74	2
130	130	1
102	119	2
112	116	4
147	147	6
15	25	2
134	168	1
10	49	1
21	24	1
8	78	3
5	7	5
87	102	1
109	109	5
77	81	1
75	85	1
7	7	4
70	97	2
143	153	2
33	42	2
161	165	1
153	153	3
24	24	3
116	148	2
108	110	3
65	66	6
0	12	5
54	56	1
146	157	1
38	70	1
3	3	3
139	139	2
70	70	4
52	53	2
118	119	1
55	73	2
1	15	3
104	116	4
88	90	2
35	38	1
2	4	1
13	17	1
35	35	1
122	126	1
2	23	1
111	111	1
52	52	2
106	107	3
67	69	1
143	147	2
101	104	1
47	49	3
97	125	2
65	65	3
98	98	1
53	73	1
45	56	1
149	153	3
6	6	3
8	46	1
73	91	1
17	21	2
78	91	3
6	78	2
10	27	4
145	145	4
89	90	2
92	92	1
142	151	1
35	37	3
50	52	2
46	46	1
14	23	1
66	124	1
62	62	4
105	106	2
84	84	2
157	157	3
102	102	2
101	101	6
133	168	2
105	115	2
13	13	4
115	115	1
40	41	1
81	84	1
115	118	3
155	160	1
112	114	1
5	8	2
165	166	2
75	79	2
122	141	3
128	130	6
5	82	2
85	89	1
143	144	1
12	111	2
48	56	1
139	143	1
103	131	3
104	136	1
74	78	1
119	119	1
147	153	2
136	136	3
24	25	3
82	83	2
35	36	2
160	161	1
80	95	7
33	36	1
67	119	3
2	78	1
23	25	1
137	145	1
17	20	1
19	20	2
79	89	1
14	52	1
78	112	3
11	34	1
77	79	2
41	79	1
58	112	2
19	19	1
93	97	1
131	131	2
154	155	1
17	38	2
3	48	1
90	107	2
41	42	1
123	124	1
80	107	1
135	163	1
97	98	1
135	165	2
46	47	1
151	157	1
44	47	5
21	25	1
118	153	1
96	96	2
6	8	1
146	165	1
76	153	2
68	119	1
94	124	1
91	122	1
99	155	1
100	139	2
81	85	1
124	130	1
10	16	1
93	103	1
48	64	2
72	72	1
7	43	2
85	91	1
9	12	1
155	158	2
13	15	1
125	128	1
142	152	1
140	144	1
117	117	1
10	90	1
27	41	1
100	100	1
150	160	1
124	126	1
87	92	1
