140	140	8
130	130	3
59	63	2
55	55	4
159	159	7
158	168	3
64	64	8
66	67	3
47	184	5
114	116	6
68	68	8
121	141	3
172	172	6
161	162	2
67	67	4
61	61	6
54	186	3
0	0	4
127	127	8
43	45	5
19	19	3
197	197	4
109	109	4
111	112	6
156	156	1
105	112	1
80	81	3
33	36	4
37	37	6
158	159	5
185	185	14
139	139	3
165	165	1
106	107	2
141	142	4
5	5	5
121	122	3
125	125	2
160	160	2
147	150	1
99	108	3
167	168	9
14	39	2
29	30	2
58	58	6
66	178	7
171	171	1
183	183	5
97	97	6
71	71	2
194	194	4
151	153	6
82	82	3
167	167	8
128	128	6
152	153	3
67	68	6
44	45	3
154	154	1
195	196	3
20	20	8
129	129	4
23	23	9
97	98	8
169	169	8
16	16	7
85	180	1
52	53	2
160	161	5
52	52	5
3	21	1
164	164	2
98	98	2
158	158	9
107	123	1
11	11	10
134	134	3
1	1	1
52	183	1
122	122	3
192	193	3
150	150	2
48	48	4
95	168	1
153	153	5
130	186	1
39	41	1
17	17	6
74	74	4
179	179	4
66	68	1
126	126	3
193	193	2
134	135	2
71	72	4
120	120	1
43	43	2
137	150	3
6	6	4
21	21	1
135	137	3
65	67	1
3	187	2
58	59	2
38	38	5
149	150	1
161	161	2
30	31	1
65	178	2
162	162	4
151	151	2
56	56	8
64	65	2
145	145	3
138	149	1
84	85	3
177	177	5
0	99	2
50	50	7
3	4	1
156	157	1
14	14	2
118	120	3
196	197	2
87	87	4
176	178	2
58	61	1
7	7	1
50	184	2
190	191	2
117	118	3
55	76	3
60	60	6
10	10	3
51	127	3
154	160	1
30	30	2
60	62	1
54	171	1
27	28	1
4	6	2
164	165	2
126	127	5
22	22	5
79	81	2
183	184	6
3	9	1
108	133	2
142	143	2
2	2	3
132	134	3
26	26	5
38	39	1
36	190	3
124	124	8
59	62	1
80	178	1
72	72	7
13	14	2
138	138	1
28	28	4
16	17	3
192	192	2
110	110	4
137	138	3
191	192	5
62	62	1
101	101	2
26	189	3
17	18	3
51	126	1
63	64	1
191	191	7
89	179	3
36	36	1
149	149	3
123	124	2
22	190	1
15	15	4
105	105	8
180	180	2
60	63	3
69	69	4
9	182	2
107	107	2
84	84	2
32	32	2
55	60	1
18	18	1
130	131	2
99	99	1
118	119	4
57	57	7
144	144	1
9	39	1
5	8	2
74	76	2
81	81	2
106	115	1
152	152	3
157	157	1
108	108	1
34	35	3
190	190	2
39	43	5
39	40	1
6	7	4
155	156	4
81	82	1
114	114	2
88	88	3
93	93	1
11	41	1
143	143	4
25	28	3
109	110	2
135	153	2
39	182	1
63	63	3
155	155	4
156	158	1
116	116	5
96	168	3
135	135	1
107	127	2
159	175	2
1	130	2
58	65	1
124	125	3
196	196	1
178	178	2
119	144	1
48	49	1
158	160	1
23	24	2
60	90	2
21	22	2
39	76	2
65	65	3
47	49	5
136	136	1
73	73	4
136	137	1
122	127	1
26	28	1
163	163	1
146	146	3
51	51	1
181	187	1
9	9	3
174	174	2
35	35	1
45	45	3
78	79	1
186	186	1
168	168	2
78	78	1
62	64	1
25	190	2
74	75	1
87	88	3
184	184	4
55	56	2
45	46	1
90	90	1
137	137	1
52	96	1
175	176	2
107	121	1
86	86	3
123	123	1
70	71	1
7	8	3
33	33	2
29	29	1
98	99	1
65	66	1
96	96	2
165	167	2
86	88	2
79	80	1
173	175	2
37	98	1
59	60	4
10	13	2
94	96	1
142	144	1
110	111	1
154	155	1
132	132	1
24	32	1
180	185	1
76	76	2
1	2	1
189	189	1
41	41	1
42	42	1
61	66	1
147	147	2
54	82	1
24	24	2
118	118	1
75	76	1
166	166	1
34	34	1
181	181	1
135	150	1
103	103	1
160	163	1
12	17	1
195	195	1
141	141	1
98	130	1
12	12	1
20	23	1
188	188	1
62	63	1
