2	4	3
82	82	7
130	130	5
95	95	4
79	79	8
5	5	18
71	71	9
85	85	5
23	23	9
13	14	4
109	109	2
79	80	7
78	78	5
109	110	4
18	26	4
35	115	2
88	93	3
121	121	8
22	23	1
77	85	1
96	96	9
38	38	12
9	9	4
37	37	8
108	109	4
0	1	3
89	89	3
20	20	3
87	92	2
13	13	6
111	111	6
137	137	1
11	11	5
22	22	2
101	101	4
21	21	3
136	136	7
104	104	6
4	5	2
113	113	13
30	31	2
14	14	11
78	81	3
36	36	3
35	35	5
0	4	3
7	7	17
110	110	1
81	82	5
16	17	3
94	94	4
4	4	5
8	9	4
73	73	6
114	114	7
122	122	2
87	93	2
97	97	7
32	34	3
106	106	5
81	81	1
125	125	7
17	17	3
19	19	9
86	86	8
131	131	5
112	112	7
73	74	2
32	32	2
10	12	1
140	140	3
90	91	5
5	6	4
78	79	2
15	15	2
102	102	3
111	115	1
18	18	2
89	90	3
105	105	4
104	105	1
91	91	5
127	127	6
31	32	3
92	92	2
115	115	5
6	6	3
75	75	6
27	31	1
97	100	1
74	76	3
27	30	2
26	26	6
132	132	4
34	34	1
77	77	2
119	119	1
17	32	2
35	36	2
124	124	10
98	98	4
34	36	3
134	134	3
116	117	2
99	99	7
138	138	3
81	118	3
123	123	4
22	74	1
44	44	1
2	2	1
126	126	2
100	116	4
24	24	6
8	8	1
33	33	5
28	28	2
120	120	7
107	107	6
132	133	1
126	127	2
80	80	4
31	31	3
135	135	6
16	33	2
91	93	2
102	118	3
3	4	5
110	111	3
108	108	2
18	90	2
28	29	1
1	2	1
117	118	2
18	19	2
100	100	7
30	30	2
16	18	2
101	117	1
72	72	1
129	129	11
3	5	4
28	31	1
102	103	4
88	88	2
27	27	2
0	0	1
29	29	3
11	12	2
133	133	4
80	119	1
12	12	1
1	1	3
2	13	1
71	77	1
87	87	2
93	94	1
71	75	1
25	26	2
75	77	2
9	10	1
103	103	4
122	123	1
81	117	1
12	13	1
129	130	1
74	74	2
103	119	1
23	24	1
106	107	1
120	122	1
13	15	1
102	106	1
116	116	1
118	118	1
36	37	1
88	89	1
117	117	1
8	16	1
113	114	1
81	116	1
16	16	1
