6	6	16
2	46	3
11	17	2
31	31	31
45	45	23
47	49	2
0	42	7
54	54	15
0	1	1
60	60	8
56	57	12
14	14	8
8	9	5
52	52	14
53	53	14
40	40	8
45	46	9
57	57	23
34	35	8
6	17	2
38	38	6
1	1	23
37	37	12
30	31	14
20	25	2
19	37	4
13	13	21
32	32	29
21	21	11
0	46	1
10	10	31
11	13	9
48	48	15
14	20	3
16	16	5
15	15	6
12	12	9
54	57	5
10	11	7
33	33	20
18	47	1
1	2	2
21	37	3
17	17	13
56	56	13
44	44	19
11	11	11
25	30	4
4	55	2
25	40	9
51	51	22
5	52	6
55	55	8
58	58	6
35	36	2
7	17	2
9	9	12
31	32	3
46	46	9
19	19	12
61	61	11
5	7	1
2	2	34
51	52	5
8	8	8
7	8	6
34	34	19
17	50	3
17	18	5
7	7	8
37	49	3
24	24	13
35	35	13
18	18	10
50	50	10
42	42	10
39	43	3
42	43	6
41	41	7
49	49	26
39	39	4
0	0	15
3	3	15
32	33	8
20	37	5
19	21	2
33	34	1
49	50	7
4	4	10
32	36	3
40	58	2
5	5	14
38	40	3
29	30	1
8	31	3
30	30	12
47	47	8
5	6	7
22	23	3
46	47	7
25	25	11
19	20	12
40	59	2
11	12	3
26	26	1
29	29	1
48	49	5
39	40	7
43	43	11
62	62	13
9	30	4
1	3	2
18	19	3
9	16	1
49	52	1
31	60	2
50	51	3
56	58	1
32	35	2
4	56	2
33	35	1
16	17	2
11	14	1
22	39	2
20	20	9
14	15	1
25	54	4
6	10	4
50	52	2
6	18	1
22	54	2
44	45	2
43	47	4
3	18	4
24	25	4
23	54	4
4	5	7
36	36	8
37	44	1
8	10	5
40	41	5
1	45	3
8	53	1
36	37	3
1	44	1
5	17	3
24	40	1
5	35	1
3	4	4
0	2	1
40	43	3
54	58	1
37	41	1
47	48	3
30	60	4
49	51	1
18	20	1
1	46	1
22	24	2
31	37	3
10	14	1
43	55	1
26	42	1
8	17	2
25	60	1
6	51	1
23	25	2
21	53	1
20	39	2
23	23	2
40	55	1
55	56	5
53	54	3
14	16	1
59	59	2
54	55	1
25	26	1
8	21	2
57	58	1
9	10	1
20	21	1
13	15	1
7	9	1
0	35	2
33	36	1
30	36	3
18	46	2
24	58	1
21	46	2
9	19	1
18	52	2
9	15	1
45	51	1
23	40	1
