138	149	3
153	155	3
176	176	18
167	167	18
106	106	24
177	179	3
29	30	7
107	114	1
73	73	12
134	134	22
65	81	3
62	84	3
11	35	5
177	177	10
74	74	11
65	65	10
152	172	3
160	163	3
36	36	8
16	16	30
0	24	3
123	146	3
140	174	2
87	87	23
24	24	23
152	152	15
109	109	15
161	167	5
178	180	2
145	158	1
138	138	16
102	102	27
113	114	1
120	165	3
77	84	1
76	76	9
108	108	8
22	22	12
158	158	10
168	168	12
10	10	23
75	75	5
58	58	5
115	115	12
132	133	9
5	6	2
29	29	16
38	38	32
20	20	10
13	15	3
131	151	3
163	163	20
28	28	8
127	127	17
92	97	10
55	55	15
157	158	15
141	141	32
127	128	5
43	66	1
132	132	20
171	171	25
51	60	1
70	71	6
152	174	2
110	110	17
154	161	1
166	166	16
170	170	11
107	107	24
7	7	12
101	101	3
60	80	4
136	136	13
12	12	14
105	105	14
135	135	16
122	139	2
10	11	1
33	39	1
118	121	3
41	43	5
35	38	2
13	23	2
158	159	4
121	121	15
73	77	3
175	179	3
112	112	15
53	115	1
180	180	22
2	2	14
17	17	7
40	41	4
114	114	18
122	123	8
129	129	24
88	88	8
8	20	4
144	144	15
7	17	3
15	15	18
27	27	12
3	16	1
71	71	26
173	173	20
62	62	17
140	176	2
88	89	5
1	64	2
135	159	7
147	147	13
80	81	4
136	145	6
149	149	14
77	77	24
90	90	11
95	95	11
150	153	4
52	65	8
6	9	1
92	93	5
130	130	5
98	98	8
24	39	3
72	77	4
0	5	6
25	25	16
165	165	21
146	146	24
118	118	13
65	128	1
50	50	24
59	73	3
137	153	4
153	153	20
179	179	20
0	18	3
91	92	4
161	161	26
39	45	1
77	79	6
99	99	4
111	114	5
79	79	23
103	103	15
101	111	2
132	138	2
43	45	1
59	59	7
131	148	3
99	120	1
154	156	3
78	90	3
31	31	12
70	70	2
66	66	15
142	166	4
65	66	12
152	153	3
27	30	3
117	126	3
89	89	26
28	30	2
97	97	12
112	165	2
140	152	1
24	33	1
139	139	20
13	13	22
120	120	13
127	143	4
8	8	8
125	125	15
90	91	3
141	159	2
154	154	11
113	113	23
126	126	21
7	45	1
83	83	8
6	6	20
26	40	5
132	149	7
73	85	2
104	126	4
11	11	16
10	14	5
101	172	2
84	84	16
45	45	14
164	164	19
2	11	2
140	143	3
37	41	3
77	78	4
53	54	4
149	150	2
130	150	5
117	117	12
40	40	12
158	172	3
155	155	18
154	178	3
80	93	3
165	179	4
134	138	4
140	141	1
168	171	7
112	127	4
97	98	7
118	119	3
39	39	11
2	4	2
9	15	1
111	116	3
35	35	16
89	106	3
78	78	26
128	128	16
111	111	14
49	50	7
42	42	20
10	28	1
107	171	1
149	171	2
14	14	14
32	32	16
143	144	10
164	165	4
58	82	4
160	160	9
167	173	2
143	143	15
145	145	14
115	121	1
131	132	3
73	84	1
175	175	15
8	29	4
123	123	17
58	65	4
26	28	8
87	95	1
24	25	7
43	43	17
30	30	9
36	78	3
114	158	2
140	146	3
94	98	1
4	25	2
135	172	1
164	171	4
51	51	6
44	82	1
141	146	4
103	108	4
156	156	19
151	152	5
137	137	9
143	150	6
151	158	1
54	67	4
75	88	2
130	144	3
18	18	13
81	81	11
34	50	2
159	164	7
124	124	19
93	93	8
5	5	7
94	94	11
9	16	3
119	119	17
44	61	2
4	4	20
125	126	2
44	53	4
52	54	4
64	106	2
90	112	1
157	172	1
1	2	7
86	89	3
142	162	3
15	26	2
80	90	5
160	161	2
114	117	1
103	105	3
102	103	3
140	170	1
57	57	10
154	174	3
153	168	2
169	172	1
34	38	1
85	85	9
56	86	2
31	32	8
0	16	1
91	103	5
57	62	4
101	118	1
82	82	7
62	168	1
91	113	2
96	107	5
33	33	10
116	128	2
150	150	3
51	55	4
52	60	2
117	118	6
133	171	2
2	6	2
23	32	1
158	178	2
126	147	2
156	162	2
145	160	2
148	148	11
11	17	2
150	169	2
64	65	5
80	80	4
57	103	4
153	154	6
8	33	5
31	88	3
82	83	4
60	60	6
37	37	14
54	54	16
52	52	14
123	124	8
35	36	3
155	156	10
122	138	5
165	171	1
53	68	2
165	166	8
133	151	3
162	162	13
67	67	12
174	174	11
19	19	7
163	164	2
56	56	13
140	140	8
96	96	8
27	31	2
68	68	15
172	172	16
92	116	6
111	162	2
96	110	4
5	72	2
141	153	2
0	19	3
90	92	2
16	25	2
62	64	3
137	138	11
91	91	14
154	167	3
151	153	2
151	161	1
22	23	5
142	142	5
142	161	1
35	45	2
9	33	2
3	4	13
122	122	13
6	89	2
106	114	5
98	99	1
157	157	27
79	85	3
75	95	6
41	49	1
60	87	2
37	38	4
155	178	4
153	171	4
143	155	7
120	126	4
86	87	1
116	148	3
61	61	15
129	143	1
0	121	4
23	24	2
132	141	5
145	146	4
92	99	2
20	22	3
92	92	14
11	12	2
96	172	1
110	119	1
134	139	2
115	116	7
159	159	9
72	72	10
111	128	1
151	175	3
178	178	15
143	154	4
17	33	1
176	177	3
125	154	3
79	125	3
145	150	1
119	120	5
164	169	7
148	150	4
67	89	1
102	113	1
103	106	3
159	170	1
32	43	3
136	146	1
15	18	4
78	79	2
100	103	4
131	137	1
98	113	5
133	169	2
113	117	1
104	104	6
54	55	6
169	169	24
116	117	5
12	13	7
144	146	5
36	42	2
121	122	9
80	94	2
23	29	2
168	169	4
92	127	1
112	113	5
133	133	20
106	119	7
136	148	1
109	113	2
91	96	2
55	91	3
44	44	8
147	169	1
20	39	7
6	27	1
161	180	8
6	28	2
131	131	7
50	135	1
100	100	9
111	112	4
56	58	2
129	137	5
41	41	11
36	60	4
44	45	1
0	1	4
49	49	2
141	164	3
86	86	13
122	125	6
7	15	1
161	162	3
137	145	5
43	44	4
9	9	9
5	28	2
152	158	1
28	32	5
76	79	3
34	37	1
2	3	5
1	19	1
151	172	2
97	109	3
8	156	1
151	151	12
148	149	3
130	148	2
59	63	1
163	170	3
124	125	8
55	56	2
107	170	2
116	116	9
3	3	7
158	165	1
114	115	10
60	61	2
72	76	3
30	43	1
148	166	3
50	60	2
118	128	2
81	89	1
23	23	7
115	119	2
158	162	2
126	131	1
84	85	5
76	93	3
74	76	2
72	125	1
131	162	3
104	123	1
147	157	2
43	53	1
125	158	3
111	118	3
26	26	13
142	164	4
99	100	4
119	160	1
37	73	1
25	33	1
21	22	1
21	21	3
141	167	1
107	108	8
56	87	5
58	80	1
91	105	1
4	10	2
149	159	3
9	29	4
50	64	1
22	44	4
50	65	2
35	46	1
79	83	3
130	133	4
95	96	3
141	158	4
17	118	1
83	86	3
127	129	2
65	71	3
7	8	1
58	84	1
5	25	3
115	122	3
54	62	2
6	7	3
171	176	1
125	151	4
65	87	1
105	116	1
34	44	1
25	130	2
152	157	6
31	39	1
110	112	1
127	153	3
146	147	3
8	27	1
7	26	2
155	173	1
83	89	3
154	157	1
142	145	2
63	63	5
23	36	1
45	52	3
66	126	4
8	154	1
55	66	4
78	95	2
53	53	9
126	127	5
8	9	2
30	31	2
122	130	2
33	41	1
131	145	3
142	147	2
87	141	3
56	83	2
82	84	4
77	89	1
148	155	1
7	14	1
15	17	1
101	116	1
150	151	2
7	12	2
135	157	2
64	66	3
53	71	3
140	145	1
95	98	2
22	29	1
4	11	4
27	28	4
141	142	10
124	151	2
3	10	1
76	77	7
33	35	2
33	44	1
2	18	3
96	115	2
87	89	6
32	44	2
63	79	1
94	143	6
8	24	1
59	77	4
153	158	1
97	99	7
169	171	1
140	142	5
4	37	1
110	121	2
52	53	5
75	87	3
5	12	2
16	19	5
83	88	2
58	72	3
15	24	1
18	40	2
26	33	3
126	141	3
175	180	2
64	67	3
0	0	7
156	161	1
6	157	2
9	10	2
134	137	1
61	62	1
148	158	1
164	166	1
132	169	1
65	89	4
139	149	1
2	12	4
142	171	1
121	140	2
90	100	1
39	43	4
132	137	1
133	143	5
87	88	3
54	71	2
129	144	2
81	82	2
134	140	2
61	108	4
138	139	2
31	35	2
173	176	1
96	171	1
1	1	8
44	81	1
16	20	1
15	42	4
106	111	3
95	143	1
143	147	2
177	178	2
24	53	1
32	33	2
3	157	5
74	89	1
62	86	1
94	108	1
54	87	1
1	14	4
41	45	1
32	36	2
18	30	4
102	143	3
127	144	4
15	35	3
147	150	3
154	159	5
168	172	7
146	149	6
152	155	1
123	133	1
4	6	4
97	111	1
103	138	2
171	174	4
95	142	1
2	17	1
89	90	6
98	101	6
112	118	1
56	59	1
71	90	2
158	171	1
31	33	1
148	171	2
13	17	6
89	102	9
142	143	2
9	39	1
0	139	1
107	119	2
55	57	3
30	45	1
9	14	1
95	102	1
4	12	1
8	15	1
166	167	2
45	46	2
2	5	1
122	124	5
160	167	3
94	141	1
153	161	1
120	121	2
61	77	1
134	135	2
58	73	3
123	131	1
107	110	5
131	139	4
112	131	1
8	26	1
83	95	4
124	132	1
19	39	3
107	121	1
38	41	3
136	162	1
18	52	2
133	158	3
52	136	1
100	120	1
52	57	1
10	16	2
168	175	2
95	101	1
120	153	2
153	160	2
95	146	1
152	173	1
98	100	2
97	113	2
32	39	1
153	159	1
33	34	3
55	78	2
165	167	1
166	168	1
39	40	6
62	63	8
80	98	2
92	98	3
35	40	1
74	97	2
34	34	2
25	29	1
130	158	3
121	135	4
144	145	3
156	165	3
101	126	1
94	145	1
39	41	1
142	158	1
126	145	1
131	146	1
15	41	1
1	21	1
93	111	1
104	105	1
148	157	1
100	101	2
156	158	1
84	108	3
100	119	4
169	170	1
133	168	2
55	82	1
155	159	1
19	38	1
86	90	1
134	177	2
9	130	2
32	41	2
128	154	1
64	83	1
97	173	1
56	60	1
73	88	2
53	62	1
135	145	4
16	33	1
1	3	2
57	137	1
59	60	4
10	12	4
154	160	3
58	62	3
7	9	1
6	14	1
101	147	1
55	85	2
33	38	2
61	82	2
84	87	3
88	141	1
82	88	2
73	75	1
139	140	2
0	65	2
104	108	2
20	21	2
9	11	1
137	141	2
123	150	2
64	81	1
132	152	1
7	10	5
54	63	3
108	109	3
123	153	2
119	129	1
32	60	1
173	174	1
22	24	1
155	165	1
87	110	2
114	130	1
127	154	1
133	152	2
110	111	3
157	160	2
101	102	2
116	138	1
111	129	1
92	143	2
85	111	1
143	179	1
16	44	1
150	164	2
43	50	1
140	156	2
8	11	1
26	31	2
66	128	2
55	58	2
110	129	1
149	158	1
63	64	1
106	107	2
26	30	2
78	88	1
133	146	1
64	64	4
152	160	1
85	86	1
49	51	3
158	167	3
58	86	1
13	20	1
89	94	2
140	148	2
62	169	1
150	154	2
172	180	2
156	167	2
105	117	1
4	5	4
144	147	2
15	16	2
101	173	2
168	170	3
136	157	2
56	65	1
12	14	2
154	155	1
135	154	3
115	117	1
92	101	1
97	100	2
130	146	1
8	12	1
61	63	1
134	136	2
15	155	1
102	121	1
19	81	1
142	146	1
84	94	2
84	86	1
80	95	3
143	153	1
42	50	1
35	42	1
143	146	2
124	160	2
98	111	1
170	173	1
5	158	1
123	138	1
101	128	2
23	40	1
71	86	1
66	67	2
157	180	1
40	42	2
127	135	1
72	85	1
124	157	1
4	19	1
175	176	1
179	180	1
104	111	2
90	121	2
93	98	1
25	44	1
124	138	2
123	125	1
2	21	1
17	117	1
10	23	1
28	37	1
11	19	3
88	93	1
92	141	2
46	46	1
100	116	1
18	19	4
100	110	1
109	167	1
28	31	1
31	44	1
116	119	1
107	113	1
149	155	1
30	65	1
147	155	1
118	134	1
168	180	1
119	127	1
151	159	1
174	175	2
104	166	1
96	97	2
55	65	1
42	45	2
75	93	1
96	174	1
24	88	1
53	60	1
55	63	1
35	75	1
105	175	1
165	174	1
28	41	1
99	104	1
55	80	1
1	6	1
31	45	1
7	25	2
106	113	2
94	121	3
175	178	1
126	130	2
97	104	1
174	180	1
132	173	1
51	53	1
55	90	1
134	160	2
76	86	1
23	41	2
13	70	1
130	156	1
133	147	1
67	68	1
162	163	1
102	114	3
73	74	2
78	93	1
163	167	1
124	150	1
56	61	1
5	38	2
3	22	1
104	110	1
138	146	1
2	10	1
168	174	2
103	113	1
58	97	1
100	102	2
5	159	1
57	83	1
105	108	1
50	52	1
163	165	1
105	106	1
121	167	1
143	157	1
142	153	1
9	18	1
156	157	1
154	166	1
135	136	1
80	84	1
93	107	2
65	83	1
25	26	3
107	124	2
114	131	1
70	80	2
45	82	1
45	63	1
75	76	1
151	157	1
136	153	1
17	53	1
93	95	2
141	180	1
125	141	1
0	12	1
96	109	1
82	91	1
7	19	1
33	60	1
143	151	1
67	75	1
75	77	1
67	70	1
79	80	1
133	134	1
24	38	1
141	143	1
99	106	1
58	88	1
102	107	1
88	107	1
35	84	1
106	167	1
18	53	1
144	154	2
120	134	1
43	55	1
68	79	1
96	167	1
151	160	1
11	13	1
143	145	1
27	29	1
71	125	1
21	34	1
23	42	1
166	172	1
96	106	1
138	178	1
153	169	1
114	116	1
22	41	1
102	104	1
49	136	1
59	123	1
51	52	1
