98	98	3
179	180	6
23	23	10
43	43	8
7	7	4
197	198	6
16	16	9
153	153	9
118	119	4
75	76	3
113	114	3
30	30	9
7	32	1
240	240	5
159	159	4
57	89	4
60	166	5
156	232	7
197	216	1
34	34	19
173	174	1
73	74	9
8	31	5
225	226	1
204	205	4
36	36	4
70	164	1
11	54	4
69	86	6
26	76	1
118	118	4
180	180	4
38	38	16
17	227	3
58	105	1
35	35	7
101	101	16
86	86	2
199	200	4
115	115	13
93	102	8
26	26	11
105	105	8
151	182	7
19	30	3
215	238	2
39	39	6
119	120	3
216	216	4
185	239	1
217	217	7
32	32	17
46	46	17
76	121	1
94	94	4
246	246	8
119	119	10
202	207	4
94	101	5
96	97	3
192	230	3
186	187	6
51	51	14
161	162	6
5	5	2
110	110	8
24	25	2
152	166	2
185	185	12
226	226	4
77	77	1
145	145	4
11	15	2
208	208	5
213	213	4
218	218	2
82	82	8
73	73	4
230	230	5
163	164	3
92	92	3
113	113	2
69	69	4
93	93	1
179	183	1
172	172	3
178	178	10
54	54	3
207	207	8
21	21	7
97	98	7
20	20	4
238	238	11
187	187	5
245	245	2
204	204	5
62	62	4
10	11	2
202	202	7
209	209	3
168	169	3
199	199	9
190	191	5
8	8	8
195	195	3
201	201	3
107	107	3
216	217	5
53	54	4
11	11	5
211	211	11
31	31	7
225	225	2
218	219	3
198	217	2
33	33	6
80	80	7
156	156	6
85	85	2
97	97	12
92	106	3
27	27	6
44	44	5
235	235	5
72	74	1
29	29	6
58	58	3
239	239	3
90	105	6
150	151	4
50	189	5
58	59	5
171	175	4
163	168	5
151	156	3
177	177	7
102	102	9
198	198	2
163	163	3
114	114	6
18	30	4
83	84	2
222	222	12
68	71	5
227	227	2
91	91	3
63	64	3
19	31	2
104	104	2
12	12	5
6	6	3
217	239	4
234	234	2
197	218	2
46	47	2
236	236	2
65	77	1
196	196	7
117	117	15
224	224	6
105	165	4
14	190	4
190	217	4
214	214	5
55	58	1
48	108	3
205	205	9
4	4	5
103	103	10
152	152	1
147	147	2
219	222	2
47	47	2
42	225	8
209	210	5
163	183	2
183	183	7
65	65	3
22	22	9
25	25	1
90	90	3
153	179	1
67	68	3
241	241	6
149	155	2
96	96	4
227	234	5
232	232	3
193	193	6
86	87	1
79	79	2
26	62	2
45	112	4
110	111	2
25	53	2
170	170	4
163	178	2
18	22	6
168	168	4
228	228	3
186	186	1
247	247	1
60	69	1
214	241	4
164	164	8
74	74	5
194	216	4
81	81	5
28	28	6
151	151	1
110	114	1
98	101	2
191	191	4
65	93	3
228	237	2
57	64	4
178	184	1
174	174	10
155	166	2
111	112	1
48	48	4
206	206	4
59	59	8
149	149	8
42	42	6
233	233	8
231	233	1
89	106	2
87	163	3
66	66	4
40	40	13
200	229	3
194	194	3
215	215	7
173	183	3
152	167	5
228	229	2
82	83	3
3	33	2
10	40	4
150	150	6
56	56	6
237	237	2
109	109	7
120	120	4
221	221	7
61	61	7
71	74	7
219	219	2
50	50	6
152	182	2
61	107	4
68	68	8
223	223	3
188	188	5
48	55	2
95	95	1
181	181	6
80	81	1
219	248	1
167	167	2
158	177	1
78	78	4
100	100	8
16	235	3
204	238	1
45	45	8
99	99	9
157	157	3
26	63	1
203	203	5
15	15	4
41	41	3
99	100	6
220	220	6
54	55	2
55	55	7
229	229	7
3	32	1
221	222	3
111	111	4
31	32	1
171	172	2
156	183	3
22	23	4
7	8	4
52	52	6
175	175	9
188	189	1
87	87	7
65	68	1
4	33	1
154	154	7
229	230	1
58	61	5
38	39	1
82	84	3
53	53	2
242	242	3
100	101	4
160	160	5
6	7	1
190	193	1
221	247	1
116	118	2
154	207	1
67	72	3
19	29	1
227	228	1
198	223	3
84	84	5
84	98	2
89	90	1
37	37	5
10	47	2
182	182	3
116	116	4
164	171	4
10	10	3
182	230	4
249	249	2
192	192	6
114	115	5
18	29	4
81	86	3
65	71	3
1	45	1
48	61	1
49	50	1
105	107	2
15	45	3
172	173	3
61	77	5
187	188	5
8	32	2
2	32	1
48	50	3
17	21	3
106	106	1
242	248	1
14	14	5
70	170	2
78	79	1
36	37	3
69	170	2
204	213	1
25	26	1
116	119	1
14	15	2
54	62	3
64	64	4
60	60	6
183	184	2
63	77	3
77	80	1
39	44	1
155	155	3
121	121	1
56	64	2
49	49	3
46	197	3
44	45	1
80	106	6
155	183	1
228	234	3
206	207	2
6	226	1
176	176	2
50	59	3
77	78	1
80	107	3
179	233	1
219	247	3
185	186	3
112	113	1
49	108	1
169	169	3
56	71	2
75	75	1
243	243	1
198	216	1
186	188	1
12	53	2
8	19	1
108	108	2
71	71	1
41	223	1
66	170	2
244	246	4
201	202	1
21	23	2
197	197	2
35	40	1
153	181	1
57	57	1
65	85	1
1	24	1
210	210	1
24	24	2
101	118	2
88	95	1
163	184	3
19	19	2
83	92	1
64	90	1
189	191	2
227	236	1
211	239	2
208	209	1
59	166	1
57	63	1
17	22	1
192	239	2
67	67	1
58	166	2
164	174	1
7	225	2
184	232	2
70	70	2
5	7	1
72	92	2
85	92	2
83	85	1
63	63	1
86	104	1
99	115	1
173	196	1
62	63	1
112	112	6
153	231	1
155	205	1
222	223	1
65	75	3
94	117	1
162	162	1
164	169	2
113	115	1
175	208	3
65	92	2
218	222	1
99	120	1
115	145	1
88	88	1
164	165	1
224	225	1
56	80	1
49	56	2
72	75	1
78	94	1
190	190	1
106	107	1
41	42	2
109	110	1
87	88	1
110	113	1
208	210	2
145	204	1
9	9	3
15	51	2
16	17	1
204	206	1
169	174	1
173	240	1
12	55	1
35	47	1
211	238	1
145	237	1
214	237	1
194	217	1
89	89	1
30	31	1
212	213	1
83	83	1
195	217	1
117	118	2
59	60	1
198	199	1
55	108	1
158	158	1
212	212	1
166	167	1
