166	167	1
35	35	5
114	114	5
167	167	1
112	112	2
32	32	2
60	61	6
5	6	2
79	80	4
81	125	1
151	151	3
122	123	1
117	117	4
82	85	4
141	141	10
126	126	10
171	172	3
106	106	4
11	11	7
51	93	3
88	88	6
164	166	3
118	119	3
118	118	2
54	97	4
95	95	2
143	143	5
123	124	3
152	153	2
178	178	6
157	158	4
109	109	2
53	53	4
150	150	2
165	175	4
78	78	3
73	124	1
102	102	3
79	79	8
55	118	2
127	127	4
103	103	6
41	41	11
80	80	7
95	96	2
33	33	4
149	149	3
53	115	2
135	135	2
53	114	2
42	42	10
75	75	4
21	85	1
29	29	5
56	56	5
62	62	3
110	110	6
148	149	7
65	65	3
147	147	3
26	27	1
146	148	2
171	171	1
173	173	7
52	113	5
72	72	8
175	175	2
101	102	1
76	128	2
52	116	1
58	58	6
168	168	3
14	14	4
107	107	1
98	100	1
23	23	1
136	136	1
4	4	3
166	169	7
9	10	1
103	118	1
162	163	1
143	144	2
77	77	5
23	32	3
55	55	2
50	51	3
3	4	2
49	49	2
155	156	1
103	104	3
83	83	3
22	22	1
127	153	1
165	165	4
113	113	6
72	73	1
2	3	6
120	121	3
10	11	4
124	124	4
164	179	3
68	68	1
9	9	3
146	150	3
144	159	1
68	70	1
169	173	1
57	171	2
140	141	3
138	173	1
158	158	2
125	125	2
10	10	9
121	122	1
42	43	1
144	145	2
139	139	2
18	19	2
122	122	2
30	30	8
73	73	2
53	96	1
62	63	2
86	86	3
61	61	4
148	148	5
172	174	2
56	68	1
150	151	1
39	39	1
82	82	4
104	106	2
99	99	1
44	44	2
163	163	5
57	57	2
76	76	1
103	106	1
7	7	1
28	28	4
132	132	3
27	27	2
65	66	1
160	163	4
93	93	1
169	169	2
121	121	2
105	107	2
66	66	4
21	21	2
113	114	1
101	123	2
16	16	1
138	145	3
140	143	2
128	128	1
155	157	1
27	30	2
74	130	2
170	170	2
27	52	2
98	113	1
166	168	1
136	157	2
43	43	2
111	111	2
130	130	1
145	146	1
119	119	2
137	172	1
2	2	2
20	20	1
172	172	3
63	63	2
59	64	2
25	26	1
25	25	3
89	90	2
137	137	3
64	108	1
13	13	1
117	118	1
51	55	3
36	37	1
149	150	1
81	81	3
72	79	1
129	129	1
159	160	1
134	154	1
0	16	1
163	164	2
7	45	2
131	131	2
147	148	1
135	154	1
14	20	1
64	107	1
76	77	1
173	174	1
61	62	1
127	134	1
71	71	2
18	18	1
145	145	1
21	119	1
143	145	1
103	117	1
154	154	2
19	19	1
53	113	1
87	87	2
51	52	1
54	54	1
133	133	1
170	172	1
115	115	1
90	90	1
3	3	1
155	155	1
44	45	1
94	94	1
124	125	1
59	61	1
134	134	1
6	45	1
