36	36	5
13	13	15
113	113	4
113	125	2
136	137	3
139	139	6
113	114	7
117	117	7
3	4	5
93	94	1
115	118	5
33	34	1
21	21	4
38	38	7
48	49	1
84	84	2
156	156	4
25	43	5
124	124	2
88	136	1
79	79	1
127	127	9
170	170	10
80	81	7
125	125	5
144	149	6
160	160	3
116	135	3
146	147	4
109	109	6
51	51	5
7	7	13
133	134	3
47	50	1
41	41	9
152	152	8
96	96	2
121	121	4
140	143	5
35	35	2
147	148	3
8	8	7
105	105	4
71	71	4
87	87	11
63	63	4
98	98	11
163	163	5
11	17	4
66	66	3
101	162	3
108	109	7
26	26	6
6	20	1
47	47	6
20	20	2
19	19	7
42	43	2
22	22	7
124	126	6
159	160	3
127	130	1
154	154	8
27	27	9
26	27	1
155	155	5
151	157	1
147	147	4
106	106	6
158	158	10
114	118	3
146	170	1
62	63	7
141	141	9
74	74	2
151	152	2
112	112	1
20	23	2
90	90	8
23	24	4
21	22	9
40	40	10
14	14	2
92	124	6
167	167	10
66	67	5
144	145	3
98	136	3
43	43	2
88	91	4
94	94	1
118	118	8
151	156	1
50	51	3
150	150	4
11	11	2
102	160	2
133	133	9
81	81	3
88	88	14
140	141	4
78	80	3
91	169	1
96	142	2
65	65	4
92	146	1
129	129	5
16	16	4
17	25	1
116	118	8
77	77	4
107	109	1
137	137	11
143	143	1
9	10	1
85	86	3
78	78	5
157	158	1
114	115	1
119	119	5
100	100	4
142	142	3
45	45	4
19	62	1
136	136	7
65	81	2
56	56	3
3	41	1
138	140	3
169	169	3
160	161	3
48	48	2
68	70	2
23	49	1
52	52	8
139	141	1
65	73	1
33	33	2
120	122	5
116	116	8
66	68	3
80	80	1
65	68	2
104	123	2
102	102	6
23	23	5
93	93	6
62	64	8
10	17	1
23	51	5
138	138	2
87	146	3
152	154	1
63	64	4
85	85	7
111	111	8
88	146	1
86	126	1
83	83	4
97	99	1
0	0	3
134	134	6
135	135	3
7	18	1
55	55	5
136	143	4
54	54	4
122	124	1
123	124	2
5	24	1
17	17	3
99	99	1
108	108	3
18	21	1
67	68	2
155	156	1
4	24	3
68	68	2
144	164	1
68	69	2
163	167	2
17	18	3
12	12	2
64	64	1
140	140	3
72	72	2
82	89	2
119	122	1
158	160	1
76	77	4
137	144	2
6	7	1
112	114	1
148	148	3
98	99	2
116	131	1
132	132	3
92	93	5
6	6	4
1	97	2
120	120	2
67	67	3
115	117	2
117	118	5
91	92	3
97	97	1
167	168	2
156	157	1
21	82	1
100	107	2
0	24	2
72	85	3
3	3	7
77	80	2
42	42	3
90	93	3
165	166	3
133	142	1
103	106	5
130	130	1
101	101	2
131	131	3
151	151	6
105	109	1
2	2	2
134	135	1
126	127	2
122	123	2
46	48	2
10	10	2
82	85	4
129	130	3
140	144	2
56	58	1
123	123	1
44	44	4
168	168	6
0	1	2
146	146	2
5	5	5
152	153	1
102	133	3
122	122	1
1	38	1
145	146	1
46	46	2
110	110	6
138	139	6
164	164	3
88	141	4
37	37	1
46	47	3
69	69	1
115	115	1
92	92	1
128	128	4
5	6	1
15	16	7
168	169	1
20	21	2
14	15	3
93	95	1
1	1	3
92	143	2
111	112	5
124	125	1
57	62	2
8	95	1
34	34	2
133	163	2
78	85	1
141	151	1
10	16	1
97	103	2
93	124	1
149	149	1
143	151	1
79	80	1
0	43	1
39	41	1
97	98	1
53	53	1
9	20	1
109	113	1
44	49	2
49	49	1
166	166	2
25	25	2
106	111	2
149	150	1
21	25	2
166	167	1
27	28	3
76	76	3
151	162	1
103	103	2
107	107	2
88	89	2
20	24	1
119	121	1
20	22	1
165	165	2
123	127	2
57	57	1
8	9	2
165	167	1
144	144	2
87	88	1
148	149	1
112	113	2
3	42	1
147	153	1
138	142	1
1	4	2
161	162	1
90	136	1
162	162	2
43	44	1
15	15	3
53	55	1
162	163	1
91	91	3
24	45	1
1	2	1
153	154	1
90	97	1
36	37	1
83	164	1
164	165	1
150	151	1
89	89	1
