119	130	2
149	149	3
160	167	3
153	153	5
29	29	8
42	42	4
108	108	4
126	146	1
26	29	2
86	87	2
56	56	3
19	19	3
122	132	1
13	46	2
17	65	1
50	50	3
156	156	5
23	23	5
151	177	1
62	62	7
116	120	1
133	133	8
52	52	5
135	136	4
21	23	2
81	82	2
25	34	3
104	105	2
165	166	2
103	125	2
176	176	5
59	59	7
79	79	7
88	88	6
83	83	5
105	105	3
7	12	4
16	66	2
84	84	6
66	67	1
36	37	1
55	57	3
86	86	6
125	128	2
177	178	3
128	128	3
14	14	5
44	44	2
72	72	2
61	100	2
148	150	2
66	66	3
127	127	1
96	96	5
152	152	7
107	125	1
65	67	3
164	164	7
148	148	5
54	54	1
39	45	2
34	35	4
3	3	1
2	6	2
151	178	4
109	127	2
153	154	2
45	49	1
5	15	7
51	52	1
74	74	5
90	90	2
174	174	2
8	8	2
113	157	3
140	140	3
160	168	1
12	12	2
102	107	1
163	163	2
141	141	2
111	129	4
18	67	2
93	93	1
95	96	4
138	138	7
55	55	2
97	97	1
157	157	6
155	155	2
59	84	1
11	11	2
167	174	4
150	151	2
9	11	4
63	64	1
114	114	2
97	100	1
64	85	8
68	68	4
147	147	6
154	158	1
135	135	3
160	160	3
149	154	3
119	120	2
26	28	8
163	174	1
151	151	7
157	158	4
88	90	4
37	39	3
38	38	3
57	57	9
130	130	5
81	81	2
8	12	1
18	62	2
112	117	1
19	61	2
127	131	1
5	13	1
80	83	4
109	122	1
122	157	1
33	35	6
39	41	2
166	166	5
25	40	2
23	138	1
15	91	2
6	6	5
152	177	3
155	162	3
92	94	3
112	112	2
116	155	5
106	106	2
108	158	2
27	27	2
145	145	1
102	102	1
5	14	2
149	178	1
67	71	3
122	127	3
117	129	2
117	117	1
101	101	3
94	94	1
103	105	1
13	45	1
0	0	4
10	43	2
95	144	1
126	152	1
170	170	4
2	2	3
98	98	2
10	10	3
95	95	2
8	9	3
97	107	1
29	30	1
103	103	4
115	116	1
120	120	3
85	86	2
28	28	1
22	27	2
1	1	3
65	66	1
179	179	1
111	131	1
32	32	4
96	105	1
119	119	3
12	53	1
65	65	1
77	79	2
73	73	1
7	7	2
145	158	2
76	77	2
159	160	1
71	71	2
87	88	1
67	67	2
9	12	2
126	126	5
102	148	2
13	13	1
161	162	2
3	4	1
22	22	4
80	80	2
6	39	3
49	49	4
121	122	5
100	100	1
59	60	1
82	83	2
132	132	1
123	123	1
122	130	2
82	82	1
119	122	2
150	150	9
168	168	1
45	45	2
51	51	1
106	132	1
53	53	1
80	131	1
43	44	2
133	141	1
24	24	3
177	177	1
146	147	2
129	129	1
31	31	3
113	113	3
13	49	2
111	112	1
59	85	1
163	172	1
85	85	3
76	114	2
26	62	3
85	87	1
3	38	2
134	134	1
30	30	3
108	111	1
8	11	2
164	165	1
151	152	2
142	142	1
78	79	2
149	177	1
106	107	1
1	2	1
161	161	3
124	124	1
15	15	1
162	169	1
5	5	2
158	158	2
111	111	1
142	143	1
147	153	1
121	121	1
167	167	1
9	9	1
141	143	1
50	58	1
118	121	2
159	159	1
113	115	1
78	78	1
12	44	1
127	128	1
116	116	2
111	154	1
173	173	5
21	99	1
50	55	1
75	75	1
13	55	1
132	143	1
59	61	1
52	87	1
99	99	1
84	87	1
96	98	2
18	39	1
133	142	1
160	162	1
14	93	1
5	10	1
41	41	1
16	16	1
109	123	1
149	151	1
63	63	1
91	91	1
24	38	1
42	56	1
90	131	1
107	124	1
123	127	1
58	60	2
64	110	2
6	44	1
145	146	1
128	129	1
172	172	1
