229	242	1
95	96	1
17	17	8
119	120	4
231	234	2
14	39	2
23	46	2
162	163	5
25	25	1
200	200	3
14	15	8
199	200	3
83	83	3
183	184	2
92	120	7
156	156	1
87	87	7
170	171	6
88	88	11
15	16	3
41	41	18
80	84	7
47	47	15
205	207	5
93	93	4
98	116	1
228	231	1
99	101	2
156	157	3
196	196	8
150	150	6
43	44	8
195	195	5
190	190	11
234	234	9
153	155	3
29	42	2
221	222	6
170	172	5
221	221	8
106	111	4
41	43	3
189	189	6
162	162	11
169	169	3
202	202	15
51	52	2
6	7	3
173	173	8
111	118	3
29	29	6
162	165	5
188	188	7
223	223	6
86	87	5
102	102	6
44	44	13
53	73	5
3	3	2
154	155	2
222	222	4
103	103	11
56	72	2
93	116	4
19	19	10
104	112	3
109	110	4
72	74	2
43	63	1
48	50	4
89	91	2
153	153	2
37	37	9
212	234	1
85	86	3
110	110	2
117	117	3
22	22	11
112	112	14
11	11	17
232	236	3
97	97	18
38	38	4
212	219	2
190	192	1
107	107	5
85	85	6
184	184	7
68	77	2
67	86	7
96	96	9
230	230	10
4	4	8
31	31	8
6	6	3
191	191	10
18	19	3
212	214	8
34	50	7
196	197	3
116	116	14
21	21	5
15	15	4
108	108	13
45	61	5
63	64	3
43	43	6
207	218	5
205	246	7
218	220	1
9	9	6
185	186	2
154	163	5
64	86	2
82	85	2
36	36	6
211	211	16
209	216	3
69	70	1
198	199	6
163	167	1
46	53	4
20	20	21
37	38	4
44	45	1
107	108	7
188	196	1
56	56	2
75	76	4
184	185	4
106	107	7
57	57	2
101	101	9
36	37	1
6	22	3
162	180	4
112	114	11
154	154	7
151	156	2
192	193	4
7	7	5
10	10	12
145	147	3
159	159	2
80	80	8
172	176	3
174	175	3
58	58	6
67	67	8
204	204	11
82	82	4
100	100	15
95	95	9
161	181	2
231	231	24
84	84	6
13	26	7
206	206	2
58	74	1
56	76	1
193	198	4
154	162	2
232	232	7
66	67	1
48	51	3
236	236	7
246	246	8
161	161	7
55	71	1
87	88	2
163	164	7
69	69	2
187	187	11
152	177	3
70	70	7
83	100	1
225	234	3
247	247	3
59	78	3
42	43	1
184	188	4
160	167	7
193	220	4
86	86	6
76	76	2
41	42	6
56	71	4
65	82	2
38	39	2
176	176	18
26	27	6
210	210	12
39	39	14
183	183	4
170	170	7
35	35	9
59	60	3
203	203	9
154	168	3
201	201	7
190	202	2
85	89	7
21	27	2
164	164	8
174	174	3
165	190	1
231	235	6
205	205	5
79	79	6
42	44	2
173	191	2
84	156	8
227	227	8
41	63	1
81	93	2
7	19	2
65	65	4
160	169	2
112	115	4
145	145	2
46	54	2
197	197	1
157	157	12
167	178	1
1	1	4
209	209	2
58	70	4
166	166	8
236	237	9
8	9	7
244	244	2
12	41	1
92	105	3
160	160	11
60	61	3
155	165	2
177	177	2
111	113	3
152	152	9
166	200	1
60	62	5
180	180	5
157	178	3
53	53	2
162	170	7
178	185	2
214	215	10
70	88	3
168	191	3
110	116	2
241	241	19
209	210	3
226	226	5
43	108	3
239	239	4
167	172	1
34	34	4
93	95	5
97	107	2
59	59	10
96	97	1
28	28	2
181	182	5
229	230	4
156	167	1
89	89	10
194	207	3
94	94	5
217	233	5
182	182	2
224	228	3
224	224	6
203	204	2
142	142	1
208	208	6
109	109	9
245	245	8
61	61	6
228	243	2
233	233	3
217	234	2
116	120	2
199	201	4
175	175	5
182	210	2
65	85	3
60	93	3
179	210	2
61	62	2
184	194	2
151	151	8
227	244	4
84	85	4
188	212	2
73	73	3
150	167	3
66	89	2
59	80	1
171	172	3
116	117	2
164	165	1
172	172	5
1	5	1
46	46	8
114	114	6
240	240	4
169	171	4
165	176	1
62	62	2
76	82	2
71	76	2
167	184	1
193	205	3
232	234	5
198	198	3
57	76	1
169	195	3
58	86	1
233	234	3
49	57	2
84	89	3
213	213	10
63	63	9
169	191	2
199	199	4
119	119	7
113	114	5
65	68	4
166	198	3
146	147	3
92	117	1
59	70	2
18	18	5
33	34	2
57	59	3
228	228	3
108	112	2
81	81	1
67	74	1
208	209	4
158	158	8
187	188	1
219	221	2
71	71	3
45	57	1
106	108	2
29	31	1
34	49	2
209	228	4
105	106	4
43	107	3
27	53	5
238	238	15
21	82	1
8	8	11
81	82	3
226	238	3
29	32	6
108	109	2
16	16	4
219	222	3
106	106	4
78	96	1
69	76	4
187	208	1
232	233	4
208	220	1
2	2	7
112	117	1
31	51	2
52	52	6
235	235	3
45	45	4
64	66	2
240	247	1
55	75	1
235	236	2
111	120	2
201	202	4
219	219	3
66	79	5
214	214	1
224	225	3
12	14	1
42	42	7
24	27	2
39	40	5
15	38	1
171	188	1
25	26	4
163	186	4
166	197	1
92	92	12
81	83	2
31	32	2
20	21	2
25	31	2
83	84	2
192	192	2
207	221	1
163	163	3
158	159	2
168	182	2
49	49	6
31	34	4
79	98	3
55	67	4
156	201	1
149	149	1
5	8	4
147	147	3
111	115	2
30	30	7
30	31	7
154	175	1
151	154	1
214	229	2
71	73	4
29	30	3
170	192	2
42	57	6
12	24	2
114	116	2
45	108	4
24	24	7
87	104	1
108	119	1
164	188	1
81	118	1
217	238	3
242	242	6
184	186	3
248	248	3
152	159	2
7	20	2
86	117	1
69	71	2
155	157	2
77	77	1
45	79	1
49	50	3
16	22	5
62	81	2
2	35	2
236	238	1
99	99	1
27	27	7
78	78	2
193	193	6
92	110	1
67	96	1
206	207	1
39	58	1
47	73	6
172	189	2
169	192	2
93	118	6
35	37	3
10	19	4
40	58	3
185	199	3
69	84	5
46	47	4
221	232	3
5	5	5
209	220	1
207	224	1
160	161	1
120	120	3
74	74	3
154	211	2
78	79	2
59	67	3
191	205	3
57	77	3
1	27	4
216	216	5
12	12	4
102	177	1
109	111	4
188	189	2
181	181	7
204	235	4
90	90	3
11	19	3
101	119	1
67	87	1
194	194	1
98	98	1
30	64	2
225	225	4
233	235	2
65	66	5
46	58	1
243	246	1
93	98	1
230	231	2
48	49	4
218	219	4
4	5	7
205	220	1
21	22	1
48	48	2
155	156	1
155	159	1
66	73	1
31	47	1
226	239	1
203	205	2
153	199	3
203	233	1
214	240	3
207	229	3
164	168	4
191	192	1
160	187	2
51	66	3
184	201	1
111	111	6
195	199	2
66	66	4
48	66	1
23	23	9
232	237	1
9	10	1
79	110	2
109	117	2
174	198	2
41	62	1
19	20	2
165	165	4
235	244	3
68	76	1
54	55	1
45	81	1
118	145	1
210	218	2
171	171	4
237	238	1
157	167	1
35	52	3
172	173	2
103	156	2
50	66	2
218	218	3
187	189	2
36	52	3
32	47	1
40	40	4
169	174	1
189	205	2
34	44	2
208	221	2
182	197	2
154	173	1
216	226	2
18	22	2
211	213	1
200	215	5
47	53	2
91	91	3
73	79	2
179	179	3
18	44	3
105	108	1
173	175	2
194	200	2
55	55	2
55	77	1
168	202	1
11	34	2
226	242	2
113	113	3
194	213	2
63	69	2
2	3	1
78	107	1
75	75	3
194	212	2
86	88	2
207	207	6
225	243	1
111	117	3
105	105	1
215	215	1
59	75	1
212	215	2
64	82	1
164	173	1
237	237	4
115	115	2
76	77	2
56	75	2
43	45	1
201	216	2
145	156	1
74	96	3
14	19	1
155	168	1
42	107	1
208	219	3
221	240	1
191	197	1
8	21	1
103	115	2
229	229	8
14	14	1
25	40	1
66	69	1
21	28	1
183	186	1
59	62	2
236	246	1
98	115	1
118	118	2
96	107	4
158	178	2
71	93	1
183	197	1
203	220	1
155	167	2
220	221	1
6	29	1
27	28	1
212	213	2
183	203	2
24	25	1
233	241	1
23	54	1
79	95	2
185	185	1
243	243	1
1	15	2
30	51	1
53	58	2
167	193	1
78	87	1
68	73	2
100	115	2
224	240	1
34	35	1
237	242	2
85	156	1
50	50	4
220	222	1
175	192	1
48	73	2
61	80	2
181	199	2
180	193	1
11	12	1
152	166	1
225	238	1
63	75	1
68	97	3
53	55	3
84	86	1
194	216	1
153	165	1
35	39	1
225	227	2
150	151	2
149	158	1
33	33	1
205	206	1
216	233	1
55	72	1
183	190	1
50	73	1
225	246	1
4	14	1
193	194	1
178	178	2
169	184	2
197	205	1
71	74	2
40	41	1
72	72	1
188	191	2
33	55	1
17	18	1
74	75	1
155	174	1
226	246	1
217	217	1
100	101	2
167	167	1
86	90	1
212	212	3
0	0	1
195	196	1
117	118	2
192	209	1
225	231	1
8	83	1
12	27	1
162	171	1
94	96	1
6	28	1
171	195	1
155	155	2
65	87	1
94	95	1
204	206	1
161	162	1
57	58	1
57	96	1
111	116	1
181	213	1
32	51	1
20	23	1
19	22	1
87	97	1
150	170	1
201	211	1
209	233	1
211	228	1
224	231	1
54	54	1
79	87	2
163	187	1
18	31	1
189	195	2
14	17	1
92	116	1
1	26	1
193	197	1
