21	21	4
23	24	2
106	106	10
30	30	5
12	12	8
131	131	8
27	37	1
123	123	6
17	17	6
130	130	9
28	28	3
86	86	6
6	6	6
11	11	4
133	133	6
113	114	4
122	122	9
15	15	12
136	137	1
12	18	1
104	104	6
80	80	8
78	78	10
97	97	7
124	124	7
136	136	6
91	91	4
72	72	1
89	89	9
2	2	7
95	95	6
100	100	5
4	31	3
114	114	15
99	100	4
24	24	3
134	134	4
33	34	5
32	34	3
14	14	5
126	126	4
116	117	3
22	25	1
8	8	7
98	98	7
22	22	8
102	103	1
96	96	1
95	96	5
100	101	2
35	36	2
24	25	2
29	29	6
132	132	9
102	102	5
94	94	5
0	0	3
135	135	5
137	137	7
97	98	3
116	116	3
20	20	5
112	112	6
129	129	7
21	28	3
118	118	2
81	81	11
84	105	3
113	113	5
111	111	9
110	110	4
71	71	6
91	92	4
9	9	3
1	2	2
100	124	2
22	23	2
15	78	2
34	35	2
16	17	3
107	107	8
123	124	4
4	4	5
109	109	2
18	19	3
73	74	3
2	4	3
110	111	3
6	115	3
116	127	2
2	3	1
85	85	4
119	120	1
79	123	2
79	79	1
101	130	1
117	117	3
124	125	1
18	18	2
127	129	1
120	122	5
117	118	3
89	90	5
83	83	5
129	130	1
118	119	4
128	129	2
27	27	5
6	96	2
140	140	13
7	7	5
19	20	2
138	138	3
1	1	2
110	112	3
75	75	6
81	122	2
10	10	6
28	29	1
31	31	3
25	37	2
104	105	1
20	21	1
107	108	4
24	36	2
3	4	2
119	119	10
92	92	5
82	82	5
37	37	3
120	121	3
84	104	2
36	36	1
80	90	1
74	74	1
73	73	5
100	129	1
120	120	2
115	115	7
86	87	1
4	72	2
106	107	3
77	78	1
117	127	1
34	34	9
5	5	5
77	77	7
103	103	3
127	127	1
38	88	1
92	115	1
9	10	2
16	16	6
0	4	1
91	112	1
19	19	2
24	27	1
79	118	1
121	122	1
101	126	1
85	111	2
7	8	2
84	84	1
125	125	3
99	99	3
10	11	2
35	35	5
81	106	1
31	32	1
93	93	3
23	23	4
30	31	3
13	13	3
7	114	3
130	131	1
37	38	1
85	86	2
18	20	2
105	105	1
117	126	2
112	113	3
88	88	1
82	118	2
87	87	1
126	127	1
139	140	1
121	121	1
96	97	1
66	80	2
11	12	1
128	130	1
14	15	1
74	124	1
114	115	1
79	125	1
82	83	5
83	121	1
101	101	2
97	119	1
4	18	1
13	73	1
13	15	1
76	76	2
136	138	1
128	128	1
115	116	1
108	108	1
5	8	1
26	26	1
15	18	1
101	103	1
1	18	1
97	99	1
116	126	1
10	21	1
137	138	1
26	27	1
74	76	1
32	32	1
