56	57	1
140	140	3
52	79	1
100	100	3
128	129	4
31	31	3
41	41	10
93	141	2
16	16	6
134	135	2
98	99	4
92	141	4
12	13	2
79	80	2
6	6	1
102	103	4
122	122	6
33	35	2
115	116	2
94	97	3
28	28	1
41	48	4
123	123	1
120	121	2
113	113	2
115	115	3
11	11	6
48	48	5
20	21	1
22	22	8
30	31	1
82	83	1
78	78	2
96	98	3
95	95	3
70	70	3
43	105	1
17	18	3
73	73	2
133	136	2
71	78	1
73	74	3
50	50	3
33	34	2
24	35	2
99	99	5
79	79	2
59	59	9
119	120	1
14	14	1
131	131	7
4	4	2
42	80	1
62	62	9
85	86	1
37	37	1
121	121	3
65	66	1
75	121	4
146	146	2
120	120	1
86	86	3
84	85	2
113	115	2
60	61	2
109	110	1
127	127	2
116	117	3
43	43	4
9	10	7
71	71	3
85	85	2
10	11	2
29	29	7
138	138	3
87	87	2
69	69	5
79	102	2
111	141	4
64	120	3
90	90	2
49	89	2
55	109	1
67	68	3
78	79	3
85	103	1
113	130	3
68	69	2
9	28	2
102	102	7
92	92	4
83	84	1
57	121	1
55	55	3
66	66	3
56	132	3
18	18	6
105	105	6
57	57	1
26	26	4
9	27	3
90	91	1
30	30	8
140	141	5
104	105	1
64	64	2
124	125	4
134	134	1
52	52	1
136	136	1
142	142	4
96	96	6
112	112	3
42	42	2
74	74	5
41	42	1
78	80	2
50	51	2
9	9	1
123	124	2
77	78	1
128	130	3
25	26	1
48	49	3
32	32	5
67	67	5
12	12	2
25	25	3
94	94	4
49	72	1
88	88	1
117	117	4
143	143	6
114	128	3
108	115	1
19	19	1
141	141	5
54	54	3
50	71	4
8	8	2
49	83	1
17	17	3
38	38	2
144	144	2
21	21	5
63	63	3
81	81	3
97	126	2
24	26	2
138	139	1
118	119	1
114	114	3
70	74	4
83	83	2
64	65	2
70	71	1
135	135	1
133	133	6
60	132	2
92	94	3
57	59	1
35	43	3
99	100	1
118	118	1
52	91	2
2	2	1
33	33	1
75	75	2
3	32	1
54	56	1
124	124	1
100	124	1
61	61	3
132	136	2
101	102	1
113	140	2
137	138	1
37	40	1
35	95	1
36	40	1
145	145	2
84	104	2
51	72	1
108	109	1
139	139	1
18	19	2
100	102	2
76	76	2
113	116	3
125	126	2
25	33	3
91	91	2
101	101	1
60	60	2
113	137	1
22	23	1
40	40	1
39	40	1
3	4	2
107	108	1
75	76	1
79	107	1
2	33	1
84	84	1
57	109	1
23	23	1
60	64	1
48	105	1
104	104	1
58	58	1
10	10	1
95	100	1
63	64	1
5	34	1
122	124	2
51	51	1
53	53	1
126	126	1
116	116	2
97	97	1
71	72	1
91	92	1
68	78	1
13	13	1
131	142	1
98	98	1
68	68	1
5	5	1
80	80	1
