45	45	9
97	98	4
39	39	7
108	114	1
114	114	10
85	134	2
116	116	6
110	110	3
86	87	3
9	9	16
17	74	1
106	106	10
16	30	1
27	27	13
103	104	8
104	105	1
35	36	7
121	121	8
37	38	5
11	11	9
15	15	13
24	25	5
99	99	15
130	130	8
96	96	5
73	73	11
108	110	2
34	35	5
73	84	4
116	126	1
21	56	2
69	69	13
33	33	9
45	60	5
56	59	3
44	59	2
38	38	10
126	126	6
12	12	6
57	57	8
92	92	10
34	34	3
23	23	7
132	132	6
94	94	9
21	21	9
80	86	4
82	95	3
107	115	3
4	5	4
107	107	5
16	16	7
0	44	4
78	79	9
7	7	5
110	113	1
87	88	1
82	82	6
13	13	3
27	38	1
19	20	4
90	90	4
101	101	9
71	116	5
95	95	5
82	85	5
124	124	5
134	134	9
40	41	4
106	109	6
31	31	7
94	97	1
22	22	7
62	62	2
93	93	13
97	99	7
78	80	3
83	120	1
77	77	10
22	50	2
113	115	2
63	63	6
80	80	2
51	55	2
5	5	9
56	56	3
30	30	9
62	69	4
106	112	3
73	74	3
43	43	6
74	83	1
49	49	3
51	51	1
67	111	6
78	78	2
44	45	5
119	125	1
67	67	11
87	134	2
25	25	4
131	134	2
6	6	13
36	47	3
83	117	4
112	133	3
110	111	4
128	131	1
18	18	5
61	61	5
6	25	2
3	7	4
55	55	7
96	99	2
33	34	4
73	93	4
1	1	5
2	45	3
60	60	4
3	34	2
89	93	1
115	125	3
17	17	10
41	41	6
26	31	3
79	80	3
101	132	2
113	114	2
46	46	3
65	65	8
87	87	2
131	133	7
79	79	5
103	103	7
94	107	4
111	120	1
28	28	1
115	115	6
78	86	2
114	115	3
39	132	1
46	66	1
85	90	1
123	123	4
48	49	2
89	89	5
85	85	9
105	105	5
18	19	3
126	127	5
31	56	4
109	109	6
109	134	2
27	48	1
79	81	4
112	114	7
22	34	3
106	114	4
49	50	3
47	47	11
42	58	3
14	85	2
117	119	1
113	113	3
19	19	11
48	48	1
76	76	5
58	58	3
1	60	1
119	134	2
129	129	4
71	74	2
86	134	3
27	50	2
114	126	1
15	91	1
86	100	3
113	126	5
43	48	1
16	31	3
46	61	1
111	111	11
4	24	2
88	115	1
108	113	2
7	13	1
76	84	2
44	60	1
72	117	1
108	111	5
125	125	3
20	21	3
91	92	1
19	30	2
99	130	4
66	66	7
1	69	3
32	46	2
39	40	2
46	47	3
14	14	2
48	57	1
130	131	1
109	110	6
29	29	2
131	131	7
15	92	1
69	71	1
115	116	2
92	93	4
37	128	4
8	8	5
68	111	1
35	35	1
98	130	4
88	104	1
48	50	2
108	108	7
74	74	4
123	124	2
2	2	3
36	36	3
70	70	1
102	102	3
104	109	1
10	10	2
42	42	4
13	14	2
119	119	3
110	114	1
29	30	1
19	48	1
32	56	1
127	127	2
44	44	6
14	60	1
118	118	5
33	36	1
126	132	3
32	32	2
59	59	3
91	91	5
93	94	3
74	76	2
70	76	2
71	73	2
72	94	1
37	40	2
80	81	2
26	26	1
128	128	3
37	37	8
124	125	2
15	16	2
67	84	2
119	120	2
57	58	4
98	98	1
39	96	2
86	86	1
72	107	2
108	112	5
90	93	2
39	61	2
117	117	1
15	83	2
25	26	2
0	0	1
16	83	2
1	70	1
88	91	2
64	64	4
25	48	2
70	108	1
128	129	2
133	133	1
109	112	2
72	74	1
84	86	2
83	83	5
19	59	1
0	2	1
87	91	1
110	120	3
19	35	1
40	40	1
3	3	1
111	134	2
78	94	1
71	71	1
32	33	1
24	24	2
55	79	1
77	128	2
78	93	1
72	72	1
56	57	2
108	109	1
83	91	1
116	118	1
18	33	2
89	91	1
70	115	1
11	12	1
28	35	2
57	82	1
112	112	1
13	91	2
86	96	2
82	117	1
90	91	1
131	132	1
88	88	1
68	68	2
75	75	1
27	29	1
27	34	1
102	104	1
28	30	1
15	21	1
81	81	1
56	81	1
14	48	1
