80	88	2
49	49	20
1	1	9
57	94	4
125	125	4
6	20	2
58	67	3
83	83	15
19	20	1
77	125	1
95	95	3
100	101	4
118	118	5
93	93	17
55	55	4
57	57	8
89	89	8
4	4	12
100	100	14
111	111	11
65	65	10
21	21	10
15	16	1
69	69	4
40	44	7
104	104	9
58	58	15
20	20	15
18	19	12
118	125	4
107	110	1
56	56	21
4	5	4
13	13	10
109	109	6
123	123	7
98	98	5
75	96	1
19	32	4
53	53	17
106	106	9
34	38	3
1	2	2
48	48	11
94	94	16
5	5	13
60	60	7
111	120	2
24	24	17
82	82	8
120	120	15
33	33	4
40	76	2
117	117	9
97	97	8
126	126	12
28	28	4
0	27	1
25	25	4
77	77	9
52	52	4
14	14	12
14	15	6
63	83	1
130	130	5
46	46	6
131	131	3
69	93	3
10	10	12
112	112	17
70	97	3
85	88	2
129	130	2
87	87	4
50	50	14
133	133	3
114	119	3
25	28	7
78	78	5
41	101	1
67	67	4
63	63	5
115	115	9
91	92	9
58	97	4
39	39	16
62	62	11
59	59	3
78	79	1
30	30	2
49	50	2
80	80	8
68	68	9
103	104	2
52	53	1
15	33	4
47	47	4
119	119	2
73	73	10
11	30	6
22	24	2
29	29	7
6	31	1
18	20	3
81	81	5
19	19	11
41	104	1
39	110	4
88	100	4
81	94	3
76	77	4
56	82	4
62	67	2
59	60	3
14	24	3
129	129	2
71	71	7
46	48	2
50	82	1
128	129	8
49	105	4
26	26	5
101	101	4
39	71	2
99	99	16
40	40	14
18	18	3
54	54	8
103	103	10
102	102	8
68	72	4
85	86	2
107	107	5
89	99	1
8	63	2
117	120	1
61	61	7
23	23	7
43	76	2
26	27	1
63	66	1
110	110	9
0	0	8
38	39	3
90	92	1
27	27	4
57	72	2
68	70	3
93	101	3
67	70	1
7	7	3
72	91	3
67	68	5
3	5	6
92	92	11
70	98	4
120	121	4
83	128	1
73	74	4
90	90	8
114	117	4
49	93	4
14	17	1
101	104	4
2	2	2
79	80	2
57	80	4
81	82	1
122	122	11
8	8	3
113	113	11
116	116	2
43	43	6
6	6	4
89	90	4
17	43	2
93	94	3
15	15	8
104	108	6
12	31	2
128	128	6
104	105	1
80	105	3
86	87	5
70	70	6
126	127	7
4	7	1
32	33	3
7	10	3
64	64	7
39	40	6
17	17	7
42	105	1
116	117	2
29	30	3
50	81	3
9	105	1
64	66	1
26	28	3
66	73	1
115	116	2
39	70	3
69	78	4
106	107	1
124	124	4
32	32	7
121	121	7
55	56	1
53	54	6
44	44	2
83	85	1
59	67	4
93	96	1
38	38	11
80	81	4
67	98	1
127	127	6
10	11	3
80	82	3
114	116	1
33	64	2
74	75	2
61	62	2
105	110	1
97	98	6
109	115	1
86	100	4
16	16	3
63	74	1
77	118	1
41	41	4
114	114	6
105	105	3
40	102	3
45	47	1
60	61	2
42	106	1
50	124	1
68	76	1
9	12	1
73	117	3
16	20	1
104	106	2
85	85	4
82	95	3
3	3	2
124	125	1
13	65	2
85	100	2
63	73	1
60	98	1
70	71	1
85	90	2
88	103	2
40	68	1
78	84	3
11	16	6
66	66	7
56	110	2
82	113	2
16	82	2
17	18	3
9	9	2
132	133	2
108	108	6
31	31	6
72	72	4
118	120	2
16	19	6
86	130	1
60	67	4
117	119	3
74	74	5
5	13	3
97	99	7
132	132	7
66	70	1
42	45	1
59	99	1
9	11	2
57	107	2
83	89	1
123	124	1
24	25	4
8	83	4
46	60	2
40	42	2
12	12	5
112	123	6
47	48	2
34	90	1
72	73	1
27	28	1
88	88	5
128	130	4
55	131	2
42	42	8
129	131	3
25	26	3
96	96	1
11	11	4
14	44	1
129	133	1
79	79	2
64	65	3
77	83	1
87	88	1
31	83	2
76	76	4
92	101	3
23	24	3
5	20	2
80	108	1
62	70	2
13	14	4
98	99	2
90	99	2
6	45	1
9	10	1
33	65	1
30	31	1
54	64	1
131	132	1
70	74	1
95	98	1
50	51	1
90	91	2
63	64	1
3	4	2
94	96	2
91	91	1
109	110	2
53	120	1
69	72	1
34	75	1
86	86	1
126	128	2
33	66	1
75	92	1
83	84	2
29	31	2
61	77	1
130	132	2
49	102	3
38	68	2
73	90	2
58	99	1
75	89	1
69	77	1
69	70	2
115	117	1
42	104	1
119	125	1
101	109	1
114	127	1
14	33	2
39	43	1
85	132	2
41	43	1
69	79	1
38	108	1
93	102	1
57	69	2
77	78	2
11	32	1
6	12	2
105	106	2
74	90	2
39	47	1
17	44	1
4	30	1
41	42	1
39	104	1
13	59	1
112	113	1
56	109	1
48	49	3
0	1	1
3	19	1
77	95	1
57	78	1
91	93	2
9	14	1
71	72	1
86	101	1
95	96	1
82	84	2
7	65	1
54	55	1
62	97	1
82	94	1
7	63	1
82	88	2
51	51	1
121	122	1
51	53	1
81	84	1
