17	18	6
124	124	13
108	108	5
46	46	6
1	1	5
32	32	11
44	44	6
78	78	10
102	102	11
109	110	1
82	84	1
49	49	6
84	84	15
120	120	16
32	33	6
69	69	15
88	88	5
6	6	5
111	111	9
47	47	4
25	25	8
27	30	2
114	114	11
89	92	2
63	63	9
57	57	8
5	5	2
99	99	6
0	0	2
42	42	5
41	41	6
70	96	1
74	74	10
38	38	4
94	103	6
83	83	3
113	113	6
45	45	7
48	48	9
19	19	12
50	50	18
115	115	6
104	121	2
130	130	2
23	24	4
14	14	6
42	43	1
16	60	2
104	122	2
94	104	1
76	76	10
47	97	1
28	65	2
109	121	3
92	93	2
63	64	3
67	99	3
81	82	4
91	91	4
18	18	12
125	125	5
40	40	9
83	84	6
33	33	10
117	117	6
67	102	1
105	122	4
76	79	1
86	95	1
65	65	9
40	44	2
70	71	2
118	125	2
49	106	3
13	13	4
116	116	1
101	101	8
121	121	2
116	125	1
80	81	4
119	119	9
52	52	2
29	29	5
68	69	2
113	114	11
80	87	2
9	11	3
91	92	1
41	42	6
45	60	1
82	83	3
4	34	1
14	20	2
4	4	2
94	94	4
56	62	3
78	79	3
93	94	1
15	15	5
115	116	2
67	68	4
7	7	3
129	130	1
43	43	2
100	100	5
87	88	9
111	114	2
61	61	4
11	11	8
70	87	2
62	62	2
57	68	1
34	34	2
86	87	6
77	77	3
8	8	2
107	107	4
72	72	6
124	125	1
30	30	6
56	56	5
21	22	1
75	75	2
130	131	2
17	22	1
0	1	1
71	71	4
3	3	3
54	54	6
106	106	7
96	96	3
55	55	5
22	32	1
27	29	4
46	83	1
19	62	1
49	96	1
39	39	1
24	24	4
20	20	1
67	73	2
66	66	1
86	86	6
102	103	3
26	26	2
75	80	3
27	27	4
75	100	1
67	79	3
2	2	4
89	89	6
87	96	2
118	118	2
93	93	3
70	70	6
96	104	5
88	91	1
22	22	2
82	82	6
106	107	2
114	116	2
16	16	4
21	24	1
15	33	2
98	99	2
2	3	3
75	76	1
112	114	2
119	120	1
53	53	9
90	90	2
71	73	1
96	103	1
126	127	1
39	40	2
68	79	2
64	100	3
48	63	3
122	123	4
79	79	1
56	57	1
82	94	3
110	118	1
18	60	1
59	60	3
50	106	2
67	67	2
18	21	1
117	119	3
104	106	2
80	80	3
1	12	2
9	9	1
104	104	2
121	131	3
82	95	1
85	86	1
3	5	1
44	45	1
80	103	3
95	96	1
109	109	3
123	123	3
85	85	3
58	60	1
117	118	2
38	39	2
1	11	1
120	121	1
21	21	1
97	98	6
68	68	1
46	55	2
71	72	1
132	132	2
38	59	1
52	109	1
60	60	1
88	89	2
128	128	1
7	51	1
71	74	1
48	49	1
58	58	2
18	63	1
133	133	2
110	110	1
126	126	1
101	102	1
14	15	1
12	13	1
21	23	1
105	105	2
16	58	3
122	122	1
94	123	1
28	28	1
121	122	1
103	103	1
84	85	1
77	78	2
16	19	1
20	39	1
111	112	1
107	109	1
112	112	1
22	29	1
13	38	1
75	79	1
13	34	1
23	26	1
64	64	1
