55	55	1
44	44	4
132	132	6
12	12	3
80	81	3
54	54	7
14	22	1
90	98	3
69	69	7
130	130	2
91	92	5
8	43	5
56	56	7
65	102	2
65	65	17
65	93	1
1	4	2
55	61	2
84	84	2
75	76	6
124	124	7
32	67	2
7	7	6
108	108	9
119	120	2
82	82	3
81	81	8
32	33	4
41	41	8
96	97	5
74	74	2
28	29	4
43	44	1
94	95	3
3	3	11
23	23	10
24	99	3
117	117	5
71	73	2
46	46	9
72	72	5
58	104	1
26	30	2
1	2	2
126	126	1
105	107	4
78	83	1
42	42	2
39	39	6
0	0	1
50	50	7
108	109	2
70	70	5
25	25	2
114	114	7
29	29	3
53	54	1
79	79	7
92	92	3
51	51	3
85	88	2
15	15	2
120	120	4
22	23	1
38	38	5
102	103	3
129	129	4
12	13	3
117	119	4
40	41	3
24	24	7
106	106	8
93	94	3
111	111	4
14	14	3
78	78	10
76	76	4
53	53	6
42	45	1
43	43	1
64	65	5
112	112	1
83	93	1
27	124	2
2	2	3
26	26	4
19	19	4
68	100	3
93	93	2
125	125	4
16	18	2
80	80	9
77	77	6
122	122	4
90	90	3
107	107	1
65	74	2
104	105	10
8	8	2
33	33	5
130	131	1
66	99	2
87	87	1
75	75	5
46	48	3
17	20	4
18	18	6
126	128	3
84	85	2
94	94	2
89	89	2
25	96	2
23	25	1
83	84	2
9	10	3
63	105	3
15	102	2
9	9	2
27	27	6
73	73	4
9	43	1
108	119	1
47	48	3
123	132	1
121	122	3
25	26	4
125	131	2
9	41	3
105	105	2
74	75	1
66	66	6
83	83	4
48	48	9
116	117	3
64	64	2
34	34	4
113	113	1
78	79	3
79	80	2
30	30	4
97	97	3
63	63	2
88	88	1
15	21	2
23	123	2
127	130	3
115	115	2
99	101	1
22	22	3
100	100	2
31	33	4
20	21	2
33	100	2
13	13	3
52	52	3
20	59	1
102	102	3
62	62	2
114	115	4
114	116	2
73	74	2
18	49	2
32	32	2
75	77	1
64	93	2
71	71	3
88	89	3
72	73	1
45	46	2
124	125	2
58	59	1
60	60	3
45	45	1
55	105	2
66	91	1
123	123	1
78	82	1
87	130	3
123	124	2
11	12	2
73	75	4
6	6	4
31	31	1
99	100	2
68	68	1
91	91	1
104	104	5
81	82	1
101	101	1
11	14	1
31	32	2
65	76	1
57	120	1
98	99	1
112	123	1
47	47	1
1	3	2
86	86	1
13	14	1
89	94	2
75	101	2
66	96	1
98	98	2
109	119	1
21	55	1
85	89	1
7	46	1
67	100	1
86	88	1
116	116	2
96	125	1
66	100	1
6	7	1
57	57	1
115	116	1
5	59	2
109	109	2
126	130	1
20	20	1
0	1	2
16	16	1
99	99	3
84	92	1
26	27	1
28	28	1
62	63	1
121	121	1
15	103	1
77	92	1
118	119	1
