120	131	2
103	116	3
35	35	4
63	64	1
138	140	4
0	17	3
93	93	1
153	153	5
114	116	1
58	60	3
13	13	2
65	66	2
77	87	5
164	164	7
7	10	3
28	33	1
151	153	6
145	145	1
108	118	1
37	44	2
116	124	2
62	63	5
159	169	1
121	130	1
163	163	3
176	188	2
70	70	3
56	56	2
73	73	2
24	24	2
183	184	1
67	76	3
95	100	2
83	88	3
123	137	1
162	178	1
20	20	3
103	107	1
41	46	1
111	117	3
145	154	2
121	123	1
37	40	3
15	29	3
179	179	4
26	41	2
76	84	1
51	65	2
23	23	3
132	140	3
161	161	6
168	179	2
83	83	2
49	55	1
33	38	3
37	37	3
178	182	1
196	196	3
130	130	4
97	98	2
12	12	4
47	50	6
17	18	4
158	159	1
117	132	4
170	170	1
115	118	4
70	80	2
127	127	4
187	193	2
132	132	8
138	138	3
134	143	1
21	34	2
21	28	1
11	22	2
184	185	2
142	157	1
168	183	1
53	53	2
103	105	1
38	38	6
42	43	5
184	189	1
193	193	7
118	131	1
185	187	5
11	23	2
127	128	2
170	171	2
35	36	2
15	28	2
39	41	1
132	133	3
163	166	1
64	64	1
61	72	1
161	178	3
144	155	2
19	23	2
164	187	1
180	195	4
127	135	2
53	54	2
54	68	2
120	122	4
99	99	1
124	124	9
172	172	1
61	61	2
101	107	1
54	56	3
3	10	2
65	65	4
146	165	2
6	21	1
95	95	6
120	133	3
87	89	2
43	46	1
167	169	1
7	7	9
50	58	1
31	31	1
135	137	2
157	160	3
55	59	1
140	140	4
41	43	2
177	177	4
173	175	2
82	88	2
30	31	2
69	78	1
52	52	2
36	50	2
98	101	4
58	58	1
28	39	1
63	65	2
32	36	3
179	184	2
52	54	1
5	8	4
46	46	10
56	62	1
61	67	1
116	116	4
169	171	4
106	106	6
134	136	2
157	167	2
79	79	6
39	42	2
127	132	1
176	187	2
101	102	1
138	153	2
27	42	2
60	71	2
80	81	4
96	102	1
171	179	4
86	88	4
114	114	2
17	19	7
136	141	2
112	114	2
14	25	1
129	136	2
70	79	1
127	129	4
72	74	3
36	45	1
22	23	3
109	110	1
44	47	1
62	65	1
24	25	3
65	76	4
64	74	1
40	46	2
19	21	3
84	86	3
178	178	2
4	13	2
179	182	2
118	118	1
18	21	1
38	46	3
50	52	2
117	131	2
136	137	4
131	145	1
161	170	4
177	178	2
130	131	5
136	138	2
4	11	2
59	66	2
137	137	2
13	26	3
67	72	1
83	85	1
139	141	4
71	72	2
16	16	4
97	106	1
184	195	1
69	83	2
195	197	2
78	81	3
68	76	1
42	46	1
21	21	1
134	144	1
174	187	1
57	59	2
185	189	2
85	86	1
167	167	1
160	160	3
138	144	2
167	178	2
78	80	4
20	30	3
79	99	1
29	29	5
86	86	1
160	161	4
30	40	2
10	17	1
3	9	4
30	34	1
156	156	2
49	49	1
77	77	2
111	113	2
35	42	5
0	0	2
154	171	2
154	154	2
59	59	2
189	189	2
175	175	2
129	129	2
129	133	1
26	30	1
84	84	1
41	56	2
68	69	3
34	34	1
99	106	1
68	68	2
104	108	3
153	163	4
188	188	6
31	38	1
146	153	2
144	145	2
68	72	1
29	37	4
48	52	2
192	197	2
118	122	1
174	176	1
47	52	1
103	103	3
152	153	1
104	105	2
12	22	1
67	68	3
25	28	2
10	23	5
96	97	5
74	109	4
6	9	2
82	83	2
177	182	1
72	72	3
32	35	2
66	73	6
126	129	1
34	45	1
94	94	4
113	117	2
146	146	2
22	22	2
32	33	1
114	117	3
129	135	1
120	121	2
64	73	1
157	162	1
117	117	2
61	71	3
134	157	2
153	156	1
1	4	1
62	62	5
175	180	4
71	71	2
42	42	6
104	115	2
86	87	1
103	109	3
102	106	1
148	149	2
180	196	2
17	23	3
94	95	2
171	176	2
163	176	2
172	173	1
114	118	3
170	177	2
195	195	1
169	175	1
179	181	1
64	72	3
48	50	3
83	84	2
33	44	1
142	143	1
51	51	4
109	118	4
33	37	1
168	168	2
41	44	2
58	62	1
151	152	3
140	150	2
111	112	1
149	149	3
50	60	1
69	69	6
186	193	1
82	89	3
73	109	1
65	73	1
50	51	1
35	37	1
74	83	2
169	170	1
5	5	2
24	36	2
0	4	2
159	160	1
111	124	1
160	173	4
31	33	2
172	182	1
31	46	3
47	47	3
94	96	2
159	166	4
154	160	1
191	192	2
150	152	1
148	150	2
158	167	2
129	138	1
156	179	3
61	62	2
130	140	1
188	191	1
38	53	4
35	43	1
188	192	3
184	186	3
166	170	1
1	7	1
39	43	1
25	26	1
171	182	1
95	101	1
7	9	3
126	133	1
41	41	3
52	53	1
174	186	1
181	188	1
77	82	1
192	193	1
31	35	1
56	59	2
24	32	1
178	180	2
171	171	2
118	119	4
168	169	2
183	190	1
194	196	1
165	165	1
24	34	1
21	23	1
43	43	2
58	59	2
105	106	1
107	108	1
23	24	1
85	89	1
180	189	3
1	1	2
99	121	1
118	123	1
73	74	1
71	76	2
120	125	1
152	155	3
63	73	1
40	55	1
146	159	1
122	122	2
65	68	1
122	124	1
173	183	1
147	147	1
66	82	2
63	80	1
117	120	1
112	113	1
151	161	1
30	32	1
68	86	3
66	69	1
70	83	1
54	54	1
80	80	1
40	48	1
142	144	1
15	17	1
182	195	3
23	25	1
98	104	1
123	123	1
179	186	3
43	47	1
40	44	3
8	13	2
120	129	1
21	30	1
40	41	3
3	5	1
49	59	1
104	110	1
19	26	1
77	86	1
116	125	1
67	67	1
2	3	2
183	183	2
55	55	1
109	117	1
156	167	2
44	44	1
110	121	1
139	143	1
33	34	1
40	40	2
182	182	1
27	27	2
150	166	1
46	54	1
37	38	1
105	105	2
154	157	1
158	168	1
148	148	1
154	158	1
73	75	1
176	184	4
170	183	2
35	50	1
43	44	1
158	158	1
53	60	1
49	52	1
158	177	2
100	106	1
5	10	1
117	133	1
110	120	3
14	16	1
25	29	2
45	45	2
13	14	2
52	56	1
129	141	1
63	71	1
139	148	1
5	14	1
159	171	1
150	168	1
108	109	1
150	156	1
170	172	1
57	65	1
59	73	3
10	22	1
176	182	1
194	194	1
48	49	1
141	143	1
185	186	2
178	183	1
168	172	1
55	57	1
6	12	1
138	164	2
34	35	1
6	6	1
49	50	1
103	110	1
151	163	2
122	123	1
115	115	1
35	41	1
60	65	1
78	99	1
89	99	1
177	186	1
150	158	1
113	114	1
0	11	1
187	187	1
13	15	1
184	190	1
79	87	1
155	155	2
134	134	1
108	108	1
100	101	1
122	141	1
178	179	1
121	131	1
108	120	1
66	68	1
115	124	1
127	144	1
50	50	1
180	185	1
133	133	2
83	87	1
32	46	1
171	172	1
129	130	1
143	145	1
36	37	1
164	174	1
120	128	1
56	57	1
149	165	1
100	104	1
9	9	1
