110	111	4
29	29	4
18	23	3
17	17	2
82	82	4
77	78	1
39	48	2
71	81	5
82	83	2
53	53	6
112	113	7
107	107	4
124	125	5
110	112	2
56	56	4
42	42	8
95	95	7
31	123	3
44	119	1
62	64	4
32	33	2
31	32	2
96	96	7
113	113	1
118	118	2
81	82	1
27	122	3
48	56	3
106	107	2
103	103	3
95	96	4
54	56	1
79	79	5
2	2	4
14	33	3
52	52	2
70	70	4
92	97	4
105	106	1
62	96	3
33	33	3
101	101	1
48	48	5
69	69	6
39	39	1
13	13	8
126	126	2
33	38	3
104	106	3
101	128	2
78	78	3
121	121	5
0	2	5
86	88	2
3	3	3
12	12	4
114	114	7
16	16	3
46	48	3
24	24	9
104	104	3
41	41	3
92	92	2
1	1	3
57	57	5
131	131	5
45	118	1
83	84	2
80	80	11
24	26	3
34	34	2
46	46	1
53	54	1
100	104	3
16	19	2
16	24	1
83	83	5
57	58	1
0	1	1
81	81	8
30	30	3
81	85	3
70	81	2
2	3	2
45	46	1
71	71	3
69	82	3
25	100	8
123	123	3
112	112	8
88	90	4
8	8	2
49	49	4
107	108	2
85	86	1
102	102	3
63	63	6
13	33	2
82	85	3
110	110	5
50	50	4
116	116	3
54	113	3
77	77	4
25	31	5
23	23	4
64	69	2
91	93	1
125	125	2
54	54	7
11	12	1
18	18	6
132	132	3
98	102	2
40	40	2
129	129	2
108	108	2
7	7	2
15	15	1
111	111	1
74	74	2
18	126	1
42	43	2
73	73	4
132	133	1
89	89	2
128	128	2
125	129	2
91	97	2
41	42	2
25	25	5
15	125	1
43	43	1
72	104	2
98	98	2
30	34	1
63	64	3
19	19	3
122	122	2
44	45	3
11	13	1
126	128	1
120	120	1
56	57	3
6	7	1
94	94	2
1	2	3
105	105	4
27	27	2
68	68	4
90	90	3
52	53	1
12	32	1
128	130	3
10	40	4
58	65	2
117	117	5
11	19	1
6	6	1
45	132	2
10	11	2
58	61	1
72	72	1
30	113	1
133	133	3
62	62	1
116	117	2
75	77	1
93	94	1
69	71	1
64	64	1
12	114	1
77	104	1
47	47	1
14	129	2
21	102	2
124	124	2
21	21	3
26	26	1
29	30	1
130	130	1
115	115	1
45	45	2
59	60	1
59	67	1
10	48	1
49	50	1
121	122	1
100	102	1
62	79	1
22	24	1
5	6	3
55	115	1
46	71	1
55	55	1
22	100	1
9	16	1
23	24	1
38	56	1
57	76	1
10	39	1
31	31	1
48	49	1
15	101	1
104	105	1
73	76	1
66	66	1
93	93	3
15	17	1
76	76	1
