41	42	2
7	61	2
57	67	3
139	144	1
50	69	2
75	79	1
49	50	4
79	79	8
112	130	2
40	93	4
153	153	5
141	141	3
99	99	7
31	31	5
9	9	5
85	85	4
18	18	4
17	28	1
110	110	9
132	132	8
62	62	3
13	43	4
6	6	6
40	41	3
84	124	3
66	67	3
98	98	4
124	124	2
69	69	11
56	56	2
32	32	4
39	40	2
136	136	6
116	116	4
54	84	1
3	57	3
90	90	3
7	8	2
85	88	2
142	143	2
43	44	1
30	30	5
67	67	4
127	127	4
29	29	5
38	39	3
134	134	7
142	142	7
6	9	1
50	50	12
139	141	1
84	86	1
43	45	2
103	115	3
84	113	2
39	39	12
4	34	1
38	38	3
100	100	7
65	65	5
34	34	8
10	44	2
115	115	2
84	84	3
103	103	5
37	37	3
97	97	5
14	15	2
108	108	4
118	118	5
31	66	2
95	95	8
130	131	2
71	71	5
144	145	2
31	32	3
107	120	1
125	125	7
94	95	4
16	51	4
135	136	3
83	84	3
116	118	2
87	87	5
19	19	5
25	25	10
45	45	4
114	114	6
151	151	3
27	27	1
62	74	2
57	57	6
110	117	1
33	82	3
82	82	4
121	121	14
11	12	2
62	81	1
40	40	7
79	80	2
108	120	2
137	137	5
44	44	4
148	150	2
46	48	2
38	40	1
64	64	1
97	98	4
34	35	1
128	128	2
62	87	2
16	50	2
29	30	2
68	69	3
106	107	4
18	19	4
77	99	1
71	74	1
54	54	3
37	38	1
21	21	5
10	10	9
87	95	2
9	55	1
35	35	5
111	112	3
145	145	1
66	66	4
8	9	1
148	148	2
3	3	2
23	23	3
12	12	3
24	24	3
88	88	3
83	83	5
22	22	2
119	141	1
17	19	1
63	64	1
69	70	4
22	43	1
24	129	3
145	146	2
106	106	3
78	78	4
5	6	1
92	92	2
112	113	4
86	86	2
25	67	4
54	55	1
28	29	5
68	68	2
140	141	2
120	121	2
112	114	2
7	7	4
85	87	2
152	153	1
103	138	1
25	69	2
17	17	7
12	13	1
70	70	2
94	94	6
129	131	2
135	135	1
143	143	4
83	86	2
18	26	3
126	142	1
150	151	4
13	13	5
4	6	1
51	52	2
4	4	3
11	33	1
42	42	1
11	11	4
128	129	2
105	106	1
138	138	1
141	142	2
129	130	2
15	44	1
131	131	3
126	146	1
109	118	2
106	108	2
94	112	1
30	31	4
47	47	1
73	74	2
82	84	2
111	131	1
78	79	1
123	128	1
139	139	1
130	130	3
102	121	1
46	46	4
96	100	1
38	44	1
77	79	3
80	80	2
82	121	1
4	8	1
70	130	2
5	5	6
101	101	1
142	146	2
82	88	1
81	113	1
49	49	4
102	131	1
21	23	3
20	46	1
73	73	1
113	113	3
35	63	1
38	43	1
133	133	1
26	27	2
115	116	2
21	22	2
93	93	5
57	68	1
136	139	1
23	37	3
23	52	1
112	112	4
77	127	1
117	117	1
24	68	1
97	113	2
2	3	1
11	15	1
36	64	2
121	143	2
5	30	3
20	21	3
20	20	1
31	37	2
119	119	1
35	74	1
63	63	1
6	57	3
81	81	2
11	32	1
75	107	1
44	45	2
147	147	1
77	77	1
15	41	1
15	15	2
98	99	1
40	70	2
75	75	1
153	154	1
137	138	2
12	14	1
132	139	2
111	119	1
72	72	1
86	101	1
40	49	1
110	132	1
69	72	1
16	29	1
96	96	1
114	117	1
123	123	1
144	144	2
80	81	2
84	109	1
76	78	2
51	51	1
96	97	2
96	112	1
5	29	1
75	86	2
71	72	1
28	28	1
85	119	1
3	56	1
42	43	1
32	33	1
147	150	1
100	122	2
48	50	1
143	144	1
109	109	1
52	52	1
84	106	1
94	97	1
