98	98	9
35	61	4
42	47	4
148	149	7
80	103	1
95	95	10
143	144	7
23	24	3
69	70	9
21	21	8
21	23	4
63	111	3
146	149	3
127	127	3
134	135	2
137	142	2
110	110	11
96	96	9
74	85	4
106	106	12
142	142	13
62	62	16
100	100	10
39	67	6
78	78	9
113	141	3
26	26	4
6	6	15
12	12	13
93	151	5
74	122	2
13	13	13
145	145	5
132	132	8
99	152	3
4	27	2
97	97	3
43	43	5
153	153	6
28	28	5
125	125	8
113	113	11
49	50	1
107	107	5
101	102	3
10	27	1
79	95	2
104	154	3
75	75	3
131	131	9
38	38	5
87	89	5
73	73	16
131	132	5
83	105	1
2	104	1
63	64	5
151	151	7
145	146	7
84	84	3
29	30	1
140	141	3
102	116	2
54	54	7
137	137	7
24	24	8
93	145	3
7	27	5
67	67	4
108	111	6
32	87	6
80	133	1
92	92	8
83	83	10
74	83	1
31	56	1
113	135	3
9	30	2
106	113	3
26	100	4
36	36	5
10	11	1
141	141	2
129	129	13
79	120	1
7	12	5
95	98	4
82	83	3
56	56	5
22	22	4
20	20	9
87	87	3
22	23	3
139	139	5
116	116	5
138	139	4
119	120	2
99	147	5
104	141	3
62	103	1
130	137	2
112	113	1
64	109	3
154	154	5
77	77	3
69	69	7
34	34	2
94	130	3
32	32	6
144	145	3
144	144	10
126	149	1
19	19	14
93	99	2
109	109	12
102	102	8
29	29	2
124	125	4
35	35	2
135	135	7
147	147	4
5	113	1
130	145	3
42	42	2
122	122	11
51	99	2
78	122	1
25	25	10
112	112	7
71	106	1
66	66	12
30	109	4
79	99	3
47	47	6
4	4	7
14	31	1
68	68	2
129	149	3
150	150	3
74	74	5
46	46	7
5	7	2
71	71	4
107	109	2
45	46	7
64	64	4
33	87	1
153	154	1
15	19	2
65	65	4
123	129	5
38	39	4
115	116	1
93	144	9
56	67	1
18	18	6
58	93	2
15	20	3
97	152	2
147	148	2
48	48	9
150	151	9
138	141	3
9	9	11
11	33	4
30	31	1
46	53	1
118	118	5
41	43	2
33	33	4
88	88	3
104	104	5
57	140	1
85	85	8
17	17	5
13	16	1
117	118	2
35	79	1
80	132	3
31	36	3
40	40	5
53	53	11
96	97	1
62	63	1
97	147	2
80	80	4
86	87	3
124	137	2
122	129	1
86	116	1
107	112	2
11	34	1
84	85	5
55	56	3
123	124	3
7	7	10
118	119	4
5	6	4
124	124	2
131	134	2
5	5	3
3	104	3
14	20	2
111	111	5
128	128	5
41	42	6
113	114	5
146	147	3
19	20	1
109	110	3
21	22	5
6	7	1
44	55	1
72	72	6
105	105	1
8	8	4
8	10	2
27	27	5
49	51	1
67	90	1
72	81	5
152	152	5
37	37	1
37	39	2
79	79	7
93	93	2
66	67	4
136	150	1
7	9	2
4	5	1
50	50	2
99	99	1
74	129	3
138	138	3
38	92	1
15	16	2
80	82	1
34	87	2
96	147	1
148	150	1
83	84	2
85	86	6
119	123	4
81	82	5
44	45	1
57	57	2
79	121	1
133	133	4
49	49	11
32	56	4
29	114	5
129	136	3
69	103	3
8	116	1
98	143	1
84	121	3
45	54	1
137	140	1
67	94	1
76	78	2
95	142	2
77	94	2
39	39	2
98	142	1
94	142	2
130	130	12
16	16	5
71	80	1
3	39	2
86	112	1
12	13	1
61	93	3
134	134	5
30	30	3
40	67	1
139	144	1
149	149	1
55	110	1
143	143	3
144	147	2
63	63	4
43	62	2
36	37	4
65	87	2
45	47	2
47	153	1
44	53	1
51	58	1
120	120	3
100	102	1
47	51	1
115	115	1
62	75	1
2	26	1
14	14	1
81	81	1
31	33	2
72	73	4
98	122	1
35	36	1
6	38	1
32	34	3
70	72	2
119	119	3
103	104	2
130	136	1
33	120	1
9	11	2
8	11	1
35	76	1
33	34	3
99	141	1
84	87	1
35	37	1
92	143	2
136	136	4
69	118	2
76	76	2
91	91	1
76	119	2
129	130	4
23	25	1
11	11	1
31	31	3
80	120	4
62	108	2
52	56	1
74	119	2
39	40	1
77	79	1
54	64	1
108	114	1
122	130	1
64	65	1
32	54	2
16	54	1
72	80	1
114	115	2
40	41	2
34	37	1
76	117	2
10	18	1
147	154	1
18	19	3
78	120	2
77	78	1
41	41	3
50	51	1
53	55	2
23	23	3
31	55	1
128	129	1
65	66	3
73	92	1
36	38	1
131	135	1
139	140	1
84	128	1
102	148	1
114	136	1
32	132	1
31	131	1
44	44	1
22	28	1
136	137	1
9	18	1
67	69	1
114	117	3
73	80	1
75	76	1
22	26	3
24	50	3
133	134	2
99	150	1
75	78	1
124	136	2
80	104	1
80	81	2
96	121	1
55	55	1
125	151	2
65	75	1
78	141	1
75	77	1
18	23	2
78	96	1
92	93	1
108	113	1
9	12	1
57	58	2
10	10	1
111	112	2
17	18	2
68	134	1
32	36	1
131	141	1
84	92	1
140	143	2
3	6	1
148	148	1
3	25	1
12	32	1
83	128	2
35	38	3
85	121	1
144	146	1
87	88	1
124	129	1
84	86	1
34	35	1
99	142	1
8	9	1
107	108	3
84	129	1
117	117	1
68	80	1
52	53	1
122	128	1
3	27	1
