81	81	9
125	132	3
48	48	3
147	147	3
111	111	8
93	138	2
158	158	6
106	115	1
7	7	9
116	123	2
134	134	3
152	152	22
110	110	14
68	68	22
115	116	6
2	3	1
109	109	9
79	80	2
32	32	5
137	138	5
0	1	7
151	152	3
137	157	1
126	126	12
43	43	21
153	153	2
100	100	11
77	77	7
29	29	15
48	49	7
116	116	7
98	98	5
139	139	15
26	37	2
108	112	4
5	5	4
104	147	2
38	38	7
28	28	13
130	130	6
85	85	13
88	89	3
121	121	6
148	148	15
18	27	4
31	68	1
154	154	7
87	87	13
154	157	6
73	73	10
11	11	1
140	140	8
137	137	5
117	117	3
113	113	11
114	114	14
8	9	5
89	89	4
82	83	1
18	19	2
3	3	9
9	9	11
75	75	13
92	93	1
127	127	5
129	129	3
23	28	1
49	49	20
20	20	9
40	46	2
119	126	7
147	150	2
90	91	7
6	6	7
154	156	1
156	157	5
55	55	6
1	2	6
45	47	5
122	122	4
96	96	11
85	86	3
99	99	14
116	129	2
93	158	1
79	79	11
24	24	10
90	90	9
28	29	2
33	34	2
128	128	9
11	111	4
12	13	9
47	48	1
152	153	1
44	84	2
40	49	4
118	119	12
34	34	3
91	91	12
69	72	4
12	12	14
8	28	4
128	143	4
57	62	5
30	33	3
22	42	1
155	155	2
108	108	17
33	33	6
19	20	7
14	14	4
63	63	5
68	69	4
95	97	4
104	104	12
45	45	9
45	51	2
138	138	13
63	64	5
104	112	5
93	118	6
50	51	1
78	78	24
123	123	12
146	147	2
51	52	9
86	86	4
133	133	12
81	82	6
93	93	6
10	10	6
41	41	7
151	151	5
25	26	3
13	13	8
39	39	11
107	107	5
54	54	11
124	125	3
77	92	1
26	26	10
109	110	4
36	36	9
97	97	8
29	66	1
101	101	18
56	56	9
52	52	9
46	46	4
149	150	1
27	27	2
131	133	2
50	50	5
0	0	2
88	88	5
75	87	9
102	140	1
97	119	2
48	81	1
33	35	5
70	70	7
96	126	5
1	1	7
79	105	3
110	122	1
22	22	2
22	26	1
7	25	2
54	55	2
6	7	4
153	154	5
44	81	2
13	14	1
65	66	7
110	114	2
150	150	4
105	105	9
138	139	5
129	130	4
13	16	5
111	135	1
20	22	3
77	78	5
141	141	2
122	123	1
119	119	7
46	87	1
149	156	4
35	35	3
109	111	3
71	105	2
53	54	8
132	132	14
3	4	5
139	140	2
25	25	7
145	145	7
45	48	2
124	127	1
106	106	4
19	29	1
139	141	2
120	121	4
94	95	1
32	35	1
96	119	2
80	80	5
136	136	8
37	37	2
27	30	1
8	8	6
92	92	7
150	155	1
15	15	4
101	107	2
115	115	5
157	157	9
30	31	2
45	46	3
94	119	1
31	33	3
75	76	2
12	14	4
36	63	6
76	76	2
143	143	9
46	71	1
40	40	14
17	17	8
135	135	5
32	34	1
116	121	4
70	71	3
121	122	3
81	116	1
47	47	3
46	54	3
123	126	4
43	46	2
72	72	7
118	118	6
76	77	1
17	18	3
13	111	1
40	41	2
21	21	7
128	148	3
47	120	1
2	138	6
73	83	5
57	57	9
125	125	2
76	78	1
15	16	2
53	53	1
42	42	3
27	31	2
55	67	4
136	150	1
147	153	6
2	2	8
64	64	3
41	55	3
149	149	4
46	85	3
107	131	3
117	122	2
30	30	4
19	19	8
46	47	1
132	133	5
39	69	3
55	111	2
94	97	1
151	156	4
50	53	3
95	95	13
36	37	4
75	133	1
127	135	1
93	96	1
109	143	2
66	66	4
31	35	2
82	82	6
118	120	1
147	148	1
41	49	2
46	49	4
134	146	1
25	65	1
142	142	3
32	33	2
89	130	3
83	85	2
49	71	2
25	40	2
113	137	4
146	146	4
144	145	1
4	4	5
130	133	1
126	146	5
49	53	1
106	107	1
83	84	1
62	63	3
26	27	4
127	133	1
71	71	2
15	42	1
44	44	5
44	73	1
43	56	1
138	141	2
18	18	11
30	36	2
67	67	9
65	65	3
80	87	1
31	32	2
23	23	3
105	146	3
64	65	1
95	124	2
87	88	2
17	22	1
4	67	1
133	134	1
128	129	2
103	103	3
141	143	2
40	43	1
88	130	2
79	103	2
46	145	1
7	12	2
89	90	1
77	144	1
50	105	2
21	22	1
110	111	5
96	97	3
126	147	2
49	55	2
36	38	1
108	109	2
6	130	5
11	14	1
97	143	3
47	86	2
131	131	3
91	94	1
39	40	4
18	42	1
7	11	3
69	70	1
5	39	1
82	100	2
80	81	2
94	94	2
34	57	1
120	120	1
112	112	3
38	39	1
133	137	2
124	124	2
105	130	1
24	25	1
75	151	3
5	11	1
100	128	1
20	21	1
9	10	2
83	83	1
0	2	1
80	90	1
156	156	1
131	132	4
51	53	2
87	105	3
4	5	1
38	63	2
94	120	1
57	66	1
101	102	1
67	70	1
144	144	2
12	110	3
56	63	2
11	12	4
51	51	1
28	30	3
2	69	1
23	25	1
44	72	1
114	115	1
65	72	1
102	111	1
73	91	2
114	116	1
7	28	2
41	42	1
113	114	1
67	68	1
116	127	2
63	69	1
14	16	1
71	106	2
64	66	1
79	88	2
69	69	1
44	106	2
7	8	1
44	45	1
76	140	1
18	111	1
152	154	2
25	27	1
35	36	1
100	101	1
117	134	2
16	16	1
132	134	2
49	50	1
17	43	2
43	65	2
70	107	2
77	100	1
99	100	1
15	17	1
30	66	1
98	99	1
98	152	1
