145	145	1
167	167	9
204	204	10
9	62	1
44	44	9
171	172	4
82	82	2
101	101	12
79	80	6
77	77	1
121	121	6
200	200	7
191	191	7
198	198	7
156	156	7
173	173	8
83	173	3
47	48	2
226	226	9
170	171	3
54	54	6
118	119	4
149	149	3
135	157	3
0	1	6
45	45	7
3	4	1
164	164	3
144	144	2
116	116	2
50	50	6
48	189	2
141	142	2
158	158	4
130	173	6
142	142	8
37	50	3
203	233	1
25	38	1
233	240	1
81	82	6
53	53	10
43	44	5
107	107	4
147	148	8
29	29	11
217	217	14
81	81	3
41	42	4
135	161	3
33	33	3
16	17	5
50	109	6
61	62	2
31	31	16
123	124	6
209	209	7
234	235	2
155	155	3
169	169	3
185	185	4
166	166	6
27	97	4
134	137	1
233	233	7
131	131	7
189	189	16
40	40	7
192	193	3
136	157	1
63	63	4
107	108	4
140	141	2
136	206	1
100	101	7
61	127	1
208	208	10
148	207	1
131	174	2
203	203	6
8	40	1
14	15	4
20	20	3
60	60	9
8	22	1
175	175	5
205	205	4
61	61	6
14	49	3
88	88	4
23	229	3
195	195	10
28	29	3
149	206	1
190	191	3
112	112	1
74	74	3
165	165	5
216	216	7
239	239	5
230	230	9
164	166	3
200	211	2
86	86	5
219	220	2
241	241	6
238	238	10
27	27	4
212	218	1
193	193	1
187	187	5
106	106	10
207	208	3
100	100	9
214	215	2
174	174	2
47	49	3
237	237	9
188	188	4
168	168	4
130	130	4
215	216	11
139	139	4
69	69	2
201	202	1
109	109	1
29	30	4
199	199	8
90	107	1
180	181	2
159	160	4
96	96	3
113	115	3
12	231	1
240	240	9
197	197	5
17	17	10
153	153	11
222	222	9
30	30	13
11	22	2
219	219	5
179	179	8
18	18	6
133	137	1
196	196	7
152	239	3
221	221	13
172	173	2
30	31	2
0	33	2
64	64	7
119	169	4
3	28	2
28	69	5
229	229	6
31	32	5
46	47	4
179	195	2
83	83	6
85	85	7
235	235	2
8	8	1
10	232	1
14	14	5
78	84	4
204	240	1
164	165	3
75	75	6
208	210	2
239	241	2
102	103	2
178	178	15
120	120	10
148	149	2
186	186	6
62	62	1
24	24	7
4	5	4
157	157	7
40	219	2
25	25	8
65	65	6
97	97	2
49	74	1
15	15	1
118	118	3
238	241	3
24	38	1
184	184	17
52	52	4
60	61	3
227	227	9
99	99	5
119	153	2
7	8	2
180	180	4
80	80	6
104	104	2
68	68	14
32	37	2
156	157	1
14	19	3
124	126	4
8	23	3
146	146	8
172	172	4
101	102	3
11	11	6
183	184	2
195	196	3
159	159	5
113	177	2
238	240	5
141	141	6
232	233	3
34	108	1
218	218	2
134	135	5
4	6	10
32	82	4
58	60	3
8	9	6
26	26	6
27	71	5
136	140	4
125	125	2
116	117	1
52	53	3
32	32	6
9	65	4
224	224	6
195	211	3
133	143	2
170	170	3
206	210	1
68	69	1
105	105	4
50	51	4
185	186	4
147	207	2
78	78	2
175	176	1
128	128	6
70	70	3
6	184	2
31	33	3
148	148	2
160	161	1
161	161	10
171	171	3
212	212	4
37	37	5
182	200	8
0	0	1
10	10	9
234	234	5
214	214	7
210	215	5
73	95	2
24	37	1
182	182	8
73	73	7
43	43	3
127	129	2
69	70	2
71	71	2
46	46	14
80	117	1
19	19	3
195	220	2
143	143	5
128	129	4
103	105	3
59	61	1
69	72	4
16	16	2
65	67	1
58	58	3
149	217	3
76	78	1
42	42	8
169	170	1
117	117	9
182	183	6
21	21	2
202	203	1
205	218	1
242	242	15
1	3	3
241	242	6
159	161	3
111	111	10
1	1	4
150	150	2
98	141	1
120	121	5
119	120	2
231	231	10
179	219	1
80	81	4
10	11	5
226	227	2
128	175	1
129	129	1
23	23	8
3	56	1
69	105	2
2	3	1
51	51	3
183	196	2
99	100	4
38	62	2
114	114	3
144	145	2
55	110	5
113	113	2
194	194	2
84	85	2
135	136	1
49	49	4
11	187	5
137	137	3
135	135	3
148	169	1
192	192	3
9	12	2
33	34	4
163	163	2
81	84	1
202	213	2
78	79	4
9	10	2
79	79	1
102	104	1
83	84	2
136	136	5
210	210	4
5	5	2
58	59	3
12	228	1
176	176	6
36	36	4
160	160	8
205	206	1
147	150	2
28	28	4
66	68	1
71	72	6
12	13	5
211	212	1
57	57	3
20	187	1
225	226	2
98	101	2
55	56	3
236	236	14
137	138	1
183	199	1
187	217	2
63	134	1
213	214	5
48	48	6
72	72	3
127	149	1
16	20	2
3	39	1
37	38	4
82	83	1
228	228	2
9	9	4
119	119	3
133	133	4
66	66	2
152	152	3
103	103	5
162	163	1
0	23	2
75	86	2
9	184	2
17	19	3
213	213	6
86	129	2
59	60	2
233	234	2
168	189	1
192	194	5
76	95	1
225	225	7
8	184	3
26	54	4
48	49	3
196	197	2
220	220	7
173	175	2
25	37	1
33	76	1
202	221	2
115	115	1
9	40	2
76	79	2
16	202	2
149	197	1
123	123	3
76	85	3
29	106	1
138	181	2
142	143	3
45	216	1
63	136	1
193	194	4
136	137	2
100	105	1
119	123	1
209	210	2
53	76	2
51	52	5
13	14	3
203	240	2
50	52	1
148	222	1
65	66	1
28	71	4
64	65	4
206	206	1
95	95	1
135	173	2
131	132	2
41	41	3
12	12	3
157	158	4
34	35	4
22	23	1
45	46	3
73	74	1
140	140	2
177	177	1
206	207	1
72	73	3
63	172	1
3	3	2
3	109	1
203	205	1
154	154	6
21	188	1
19	20	1
232	232	1
218	219	1
223	224	1
182	199	1
234	236	4
213	215	2
130	132	1
199	200	1
114	202	2
124	124	1
38	48	1
182	220	2
6	59	1
1	5	2
138	138	1
86	87	1
13	13	1
221	222	4
47	47	2
56	57	3
213	232	2
239	240	2
8	228	1
39	176	1
40	176	1
102	102	1
198	199	1
162	162	2
64	183	1
61	74	2
36	184	2
142	156	1
40	41	1
133	134	1
168	169	2
207	207	2
127	127	2
129	132	1
202	202	3
183	183	2
122	122	3
134	167	3
85	173	1
151	151	2
76	76	2
206	217	3
11	20	2
84	84	2
12	197	2
112	114	3
34	229	1
39	122	1
171	183	3
125	126	3
149	150	1
98	98	2
192	220	1
51	53	1
179	218	1
155	167	1
23	152	1
141	156	1
203	223	2
16	231	1
39	39	3
77	78	2
27	29	2
0	4	1
14	202	1
204	222	1
9	61	1
119	128	1
158	159	2
146	147	1
81	117	1
27	28	1
0	7	2
151	152	1
54	55	1
212	232	1
31	103	1
136	161	1
134	134	1
122	200	1
147	147	1
214	216	2
38	55	1
137	143	1
225	227	1
59	59	1
29	105	1
229	230	1
53	60	1
39	118	1
119	152	1
142	166	1
204	205	1
13	23	1
2	2	1
4	4	1
21	22	1
181	184	1
144	207	1
