28	31	1
103	105	4
46	67	2
110	110	7
104	108	1
70	74	4
25	32	1
69	79	1
100	101	10
29	29	1
35	35	4
39	39	5
47	48	4
27	27	4
104	107	1
33	34	2
20	32	3
50	51	5
65	70	2
43	43	2
46	48	2
100	114	2
102	109	5
109	113	1
23	23	6
50	57	3
31	38	1
73	82	1
64	68	2
52	52	3
55	62	2
56	62	4
63	69	1
81	87	1
35	40	3
71	75	5
51	65	2
22	32	3
36	46	6
88	88	1
65	73	2
109	110	3
19	23	1
49	72	2
31	31	5
58	59	1
70	97	2
76	76	4
65	69	1
77	77	1
29	39	5
67	67	2
110	111	5
79	83	1
82	84	4
63	66	3
30	34	3
93	98	2
67	68	2
102	103	3
41	41	2
114	114	1
81	89	2
88	104	4
70	71	4
32	38	2
49	49	2
74	74	2
89	94	1
61	71	1
34	34	2
40	44	1
82	82	2
88	105	3
76	89	1
57	57	2
23	27	1
49	50	4
36	36	5
100	104	3
24	34	1
91	91	2
84	90	2
60	68	2
88	91	1
72	72	3
34	37	5
33	33	1
56	60	1
69	70	3
85	94	1
113	114	2
81	81	4
44	56	3
112	115	3
71	72	3
73	73	2
60	70	4
86	94	3
47	64	2
87	102	3
44	45	1
21	21	3
51	52	1
76	87	4
56	56	1
20	20	2
51	58	1
92	104	1
56	63	1
63	63	4
84	97	4
54	54	1
90	103	1
69	75	3
71	78	2
87	87	1
70	79	2
43	46	2
40	40	4
80	101	2
43	49	2
39	40	2
65	65	2
60	64	1
85	85	6
68	77	2
24	24	1
57	58	1
101	101	1
90	98	1
51	51	2
35	38	1
22	25	2
32	32	2
50	52	2
45	45	1
98	99	1
58	60	6
22	24	1
37	37	1
23	25	3
55	64	1
40	43	2
32	40	1
35	49	1
44	54	1
94	94	1
91	94	1
37	43	1
79	79	1
47	52	1
72	83	1
44	44	2
46	69	1
54	55	2
58	70	1
63	76	3
96	99	2
26	36	2
80	83	1
77	78	1
109	109	4
46	46	2
47	54	2
56	68	1
103	112	2
84	98	1
95	95	1
102	104	1
62	62	5
20	21	3
70	81	1
104	110	1
85	89	1
22	23	3
58	64	1
102	102	1
46	50	1
75	75	2
81	92	1
99	109	1
76	77	3
58	58	1
63	64	2
22	22	1
102	105	2
102	108	2
62	70	1
50	50	1
98	112	1
85	96	1
77	81	2
47	62	2
71	71	3
74	78	2
107	112	2
33	37	1
50	56	1
86	86	4
42	43	2
97	98	2
45	49	2
59	60	2
67	105	2
64	64	1
39	50	2
56	61	2
30	38	2
105	112	1
91	95	1
49	59	1
48	51	2
40	53	2
62	72	1
45	60	1
61	79	1
99	99	1
100	100	1
60	61	1
44	61	1
63	70	1
38	38	2
21	29	1
46	47	1
105	105	1
49	58	1
79	81	1
86	98	1
83	83	1
68	73	1
97	109	1
73	75	1
71	74	1
103	108	1
53	53	1
53	60	1
85	86	1
108	110	1
36	47	1
42	53	1
95	110	1
100	105	2
70	80	1
84	93	1
106	109	1
90	94	1
96	97	1
25	34	1
68	68	1
101	112	1
42	46	2
107	107	1
76	81	1
80	87	1
52	54	1
39	47	1
53	55	1
97	101	1
90	99	1
56	78	1
35	36	1
46	65	1
80	90	1
60	60	1
101	102	1
27	33	1
36	38	1
