238	238	4
192	192	9
45	45	7
162	163	3
58	58	8
80	96	3
218	218	5
199	200	7
59	59	3
95	100	1
4	95	1
211	212	3
64	64	7
52	68	2
57	59	5
170	175	1
25	25	7
72	72	5
234	247	1
85	86	5
115	115	7
159	159	2
232	248	1
157	157	5
197	197	2
119	120	4
80	101	3
56	58	1
74	75	1
240	240	4
185	185	7
179	179	6
77	78	3
21	21	3
16	16	7
59	219	3
61	61	2
227	227	2
223	223	9
163	163	1
222	231	4
37	37	10
50	50	5
217	217	4
104	104	12
74	74	3
35	35	4
245	248	2
65	65	1
112	112	8
184	191	1
204	204	5
199	199	9
108	109	5
222	234	2
204	205	2
207	207	3
9	9	2
176	176	5
237	237	11
221	222	1
98	98	3
76	76	2
99	99	8
116	116	4
168	171	1
117	117	3
97	101	7
201	225	6
43	43	2
49	49	11
1	1	2
18	18	3
64	65	7
210	210	4
102	103	8
197	198	3
44	44	6
203	203	3
30	30	6
46	46	1
224	224	1
5	5	5
66	67	2
114	119	3
228	228	3
220	220	2
75	75	2
69	69	5
244	245	2
7	7	4
107	107	5
174	206	3
97	97	4
174	174	9
94	95	1
216	241	2
187	189	1
55	55	1
97	105	1
88	88	6
46	47	4
200	213	2
113	113	6
213	220	4
146	146	5
96	100	5
150	241	1
167	167	4
195	195	9
71	71	2
71	72	3
163	223	1
10	10	3
81	81	7
42	46	2
227	228	1
15	15	7
113	208	3
242	242	1
66	106	4
47	48	3
48	89	2
51	83	2
89	90	4
230	230	12
226	226	2
184	184	6
157	176	1
183	183	2
163	167	2
6	8	2
84	84	6
78	97	3
202	202	2
235	235	2
150	238	3
23	23	4
152	152	2
170	170	4
78	78	6
229	229	7
96	96	3
211	211	5
87	87	1
156	156	2
246	246	9
3	6	4
236	237	1
215	216	1
107	114	1
179	180	1
36	36	7
198	199	2
221	221	3
15	46	1
59	60	1
22	22	4
53	53	6
4	4	1
186	221	1
175	175	4
82	82	5
63	63	4
168	168	2
245	247	1
218	219	4
92	92	3
153	215	2
164	164	1
48	49	4
196	196	2
8	8	3
159	160	4
205	205	2
85	85	6
47	69	3
163	164	4
169	169	5
194	213	3
83	84	1
60	60	1
243	244	2
197	212	2
16	208	2
172	172	4
160	243	4
89	89	3
51	51	4
153	153	2
6	11	1
158	168	1
22	101	1
187	187	2
38	39	2
161	246	1
31	31	6
62	218	1
110	110	5
59	61	2
10	40	2
15	36	2
38	38	5
29	29	5
80	80	2
66	66	8
51	87	3
68	68	5
48	48	3
80	82	2
98	100	3
73	74	1
196	217	2
161	166	2
38	47	2
53	67	2
32	33	3
55	145	4
195	196	1
52	52	3
39	39	5
31	32	1
53	73	1
40	94	1
63	64	5
18	89	1
33	33	6
118	118	5
41	42	2
79	80	4
188	188	4
26	27	1
181	181	4
207	208	4
179	226	1
171	172	1
8	29	1
90	91	4
178	178	4
44	45	5
172	211	1
153	154	3
190	235	1
110	119	2
86	86	2
84	85	3
245	246	1
150	150	1
243	243	1
233	234	1
8	9	2
208	209	6
88	90	1
241	241	1
19	19	1
4	5	1
157	158	3
109	110	1
245	245	6
42	43	3
7	31	1
26	26	4
18	38	1
194	194	3
6	41	1
67	68	3
191	192	1
222	222	1
36	47	1
165	165	3
234	234	2
28	30	2
171	171	1
203	204	4
90	90	5
213	213	4
173	174	1
106	106	2
194	224	2
96	102	3
28	29	1
81	112	1
60	239	2
83	112	2
192	193	1
14	33	2
49	50	1
154	180	4
18	39	2
177	177	4
165	223	1
200	200	2
219	219	3
155	155	2
206	206	1
184	189	1
35	36	2
79	96	1
34	39	2
4	19	4
165	171	1
247	247	1
24	24	4
209	209	2
5	7	2
92	93	5
90	92	1
32	32	3
54	155	1
37	90	1
233	233	5
217	220	3
109	109	1
106	107	3
179	181	1
239	239	4
232	232	5
12	19	2
166	167	1
11	11	1
18	46	1
224	225	4
220	222	1
168	213	1
111	111	1
106	111	3
193	195	1
213	214	1
70	70	4
184	230	2
174	211	1
94	94	4
176	177	1
208	208	1
95	95	6
198	198	2
34	34	3
195	222	1
38	50	4
247	248	2
116	118	1
172	180	2
14	39	2
102	102	6
210	211	1
76	78	1
69	70	1
118	120	2
54	54	2
14	15	5
57	58	2
56	57	3
186	187	1
2	23	3
111	112	3
183	184	3
156	180	1
186	186	1
169	178	1
91	92	2
36	46	1
238	239	2
14	36	2
235	247	3
105	105	2
50	51	1
81	103	1
28	28	1
61	62	1
83	83	1
170	171	1
216	216	1
211	213	1
189	229	1
24	26	1
190	223	1
162	162	4
54	56	2
111	119	3
156	202	1
11	85	1
238	240	1
170	180	1
158	176	1
248	248	2
215	234	1
107	108	2
146	147	2
190	190	2
60	61	1
160	160	2
212	212	1
63	147	1
236	236	2
155	202	1
58	59	1
198	214	1
108	108	1
206	207	2
79	79	1
174	242	1
59	62	2
144	145	3
215	220	1
187	190	2
216	240	1
8	28	1
145	145	1
217	218	1
67	67	3
20	20	3
214	214	1
173	176	1
71	75	1
57	57	1
215	241	1
206	209	3
39	95	2
67	73	2
2	2	1
165	166	2
99	101	1
216	220	1
56	56	1
100	100	1
166	168	1
106	112	1
65	113	2
199	201	1
20	41	1
187	188	1
64	114	1
10	11	1
220	233	1
182	182	1
232	233	2
1	3	3
76	93	3
224	231	1
97	103	1
161	163	1
55	56	1
182	184	1
17	18	3
216	217	1
191	191	1
118	119	1
231	232	1
19	38	1
6	6	1
119	119	1
19	84	2
54	55	1
219	220	2
154	155	1
5	11	1
10	12	1
193	193	1
5	6	1
78	87	1
246	247	1
185	230	1
62	147	2
57	71	1
120	120	2
75	81	2
149	150	1
6	22	1
168	179	1
34	37	1
188	191	2
145	210	1
177	178	1
198	200	1
73	73	2
218	220	1
35	37	1
167	236	1
183	202	1
174	208	1
165	167	1
237	241	1
16	17	1
215	222	1
189	189	1
158	173	1
50	71	1
215	215	1
167	235	1
185	189	1
1	6	1
161	162	1
168	169	1
81	82	1
16	54	1
