187	187	14
152	154	1
57	57	14
151	153	2
171	171	6
106	106	12
67	70	2
142	142	3
65	65	9
188	200	2
105	105	16
202	216	2
150	150	5
151	154	3
165	165	7
53	53	11
209	209	5
38	39	1
75	75	7
162	162	2
2	2	4
201	205	1
203	203	1
86	88	2
5	5	6
205	205	8
16	33	3
215	216	7
154	154	4
161	162	4
140	142	5
52	57	4
45	48	2
48	55	2
215	215	6
173	174	2
189	190	4
15	15	3
148	148	8
182	182	7
62	62	6
7	7	9
8	8	9
215	217	1
236	236	6
17	21	1
195	195	17
77	79	5
194	196	4
32	101	4
108	108	9
228	231	2
129	129	8
172	172	4
214	214	2
141	142	2
73	73	4
59	61	6
138	139	1
190	190	6
176	177	2
206	206	8
144	145	5
84	84	12
138	141	4
27	28	8
153	153	1
211	213	6
234	234	4
85	85	7
197	197	5
116	117	5
63	64	4
48	48	2
81	81	4
224	224	6
33	42	2
28	28	5
226	227	2
135	135	6
237	239	3
209	210	6
4	6	10
166	168	7
239	240	6
176	234	1
37	37	17
86	91	3
30	30	3
144	144	6
204	204	7
13	14	1
211	215	3
6	6	3
39	88	3
128	129	5
239	241	6
37	38	7
60	60	6
26	26	6
17	18	2
24	24	5
3	3	2
49	50	11
116	116	5
57	206	1
86	160	2
124	127	1
232	232	6
235	238	2
145	145	10
103	103	9
3	4	5
121	121	5
16	40	2
152	152	5
163	163	6
70	71	4
133	134	2
11	14	1
98	98	8
27	27	8
28	30	1
179	180	2
151	152	1
29	75	4
233	233	3
134	136	1
64	64	7
67	67	5
133	133	9
77	78	1
82	82	11
123	124	4
83	83	3
25	25	1
38	40	2
6	66	1
21	29	6
221	221	9
39	56	2
212	212	4
218	220	4
24	26	2
98	100	3
113	113	4
118	120	7
120	124	5
211	211	10
52	52	2
138	157	2
32	32	5
146	146	6
141	141	2
60	62	4
225	228	6
136	137	3
43	43	2
184	184	4
33	33	1
45	47	6
46	106	4
0	3	7
25	27	7
82	83	3
28	74	2
9	9	4
208	228	2
18	18	3
219	219	4
196	196	2
175	176	2
142	143	9
235	235	8
112	112	3
13	15	4
54	54	6
146	148	1
43	61	4
105	110	2
97	97	5
21	21	3
45	46	1
47	47	9
176	180	4
76	78	4
232	233	5
186	197	4
174	174	4
163	166	1
143	146	1
1	1	3
198	198	2
163	164	3
119	120	1
19	19	4
183	183	3
216	219	2
79	79	4
188	193	5
45	63	1
199	199	7
213	213	10
145	146	4
75	82	1
48	49	5
142	145	4
166	166	16
203	209	1
193	193	5
217	217	3
81	84	5
140	165	1
208	209	10
118	118	4
155	156	2
220	221	5
36	36	4
45	51	3
234	237	2
81	82	4
209	212	4
196	197	1
221	226	1
184	187	4
150	160	2
175	225	3
178	178	8
20	20	6
223	238	3
119	121	3
8	9	3
230	230	9
62	63	4
53	54	5
157	157	11
71	74	4
99	117	3
227	234	6
29	29	1
124	126	2
46	47	1
16	23	2
210	210	7
218	219	3
231	231	6
222	228	2
29	30	6
208	214	2
189	189	2
200	200	2
54	62	3
59	60	2
191	191	6
239	239	5
75	76	2
117	118	4
51	52	3
241	241	4
99	99	2
100	100	7
58	58	4
139	142	3
163	168	1
179	182	2
156	156	2
101	129	2
12	13	1
205	206	4
120	123	2
64	65	3
33	40	1
153	158	3
136	136	3
151	151	2
194	195	2
39	39	12
139	139	9
20	23	3
25	26	3
69	69	5
160	161	5
176	206	1
102	102	1
223	224	4
226	228	1
207	207	7
50	52	3
53	55	2
107	107	4
76	76	3
177	178	1
17	22	1
147	147	5
12	16	3
223	226	6
201	201	3
55	56	1
7	8	4
61	62	3
179	179	3
170	170	5
34	34	5
68	70	2
170	207	3
143	143	3
183	185	4
43	46	4
235	237	4
125	125	1
28	32	1
238	240	6
40	45	3
128	128	3
0	0	2
36	44	3
58	59	2
234	238	4
234	235	2
22	76	1
127	129	1
4	4	6
48	53	2
119	123	2
126	126	4
98	101	3
180	180	2
126	129	1
221	225	6
230	232	3
177	177	5
194	194	7
115	115	1
72	72	1
49	49	7
228	229	5
5	6	1
141	177	2
1	4	2
188	188	8
125	130	2
59	80	1
56	60	1
198	201	4
16	24	1
23	23	6
157	158	5
44	44	2
69	70	2
70	73	1
100	103	1
104	104	5
15	23	3
120	120	1
33	34	2
197	224	1
159	161	2
131	131	5
27	29	1
83	85	3
161	164	2
70	70	9
158	158	2
187	192	2
9	11	3
176	176	2
28	168	1
208	219	1
193	196	3
52	55	1
160	160	4
224	229	4
57	60	2
126	127	4
191	199	3
41	41	2
114	116	1
156	157	1
192	203	1
198	200	2
212	215	2
16	21	2
213	219	1
218	223	2
141	146	2
171	173	1
58	60	1
11	11	1
142	144	3
174	206	2
36	37	3
182	183	2
226	226	3
111	111	3
181	181	2
240	241	6
51	51	1
96	96	1
122	123	1
212	213	1
223	223	1
39	40	1
12	14	2
46	46	2
103	105	2
161	161	5
162	165	2
242	242	2
77	83	1
86	86	3
194	223	2
186	187	1
227	227	4
208	208	4
74	80	1
128	130	2
59	59	5
203	204	2
183	184	1
0	23	1
102	103	4
122	124	1
12	12	2
195	196	2
139	140	1
198	226	2
137	141	1
71	71	1
218	230	1
186	189	1
152	177	1
155	155	1
53	57	3
26	31	2
164	164	2
52	53	2
18	19	1
185	186	1
35	37	2
168	168	2
208	231	3
134	135	3
175	175	2
39	160	1
35	36	2
30	31	1
237	241	1
14	14	2
32	36	1
135	139	1
65	67	3
184	185	1
178	181	3
165	169	1
216	217	1
207	215	1
31	83	1
74	74	1
96	104	2
143	144	3
122	122	6
106	208	2
68	68	2
51	53	1
137	137	2
123	125	2
143	163	1
138	147	1
119	145	1
225	225	3
36	38	1
45	172	2
29	33	1
139	146	1
125	126	2
151	180	1
3	59	1
124	124	1
172	174	1
9	10	1
180	182	1
115	118	1
110	110	2
102	105	1
66	68	2
45	45	2
139	143	1
23	64	1
0	40	1
127	127	3
183	208	1
76	77	1
95	97	1
102	128	2
227	229	1
168	169	1
68	69	1
210	211	1
146	150	3
173	207	1
46	151	1
4	196	1
11	13	1
58	64	2
8	10	1
22	98	3
77	80	1
22	67	2
192	192	1
225	227	2
55	106	2
194	201	2
205	218	1
47	48	1
35	99	1
131	135	1
95	158	1
222	229	1
45	153	2
187	188	4
220	220	1
167	167	2
154	159	2
65	107	1
203	205	1
7	9	1
40	47	2
56	56	1
201	203	1
200	201	1
32	33	2
229	230	1
148	149	1
218	218	2
109	109	2
84	85	1
125	131	1
67	233	1
234	236	1
101	101	1
50	50	1
21	24	1
208	210	1
21	78	1
12	17	1
155	157	1
63	63	1
177	180	1
80	83	1
240	240	1
159	159	1
61	63	1
44	45	1
