179	180	4
57	58	2
107	107	4
78	78	5
102	102	5
19	19	4
18	24	2
62	62	4
82	137	1
164	165	2
112	145	2
104	104	7
74	74	6
9	43	3
135	136	3
161	161	2
36	36	5
79	79	6
168	168	4
141	147	5
123	124	4
8	9	3
58	58	1
142	143	2
95	131	4
11	35	1
12	13	3
33	51	1
123	123	5
44	44	4
73	145	1
15	16	2
6	161	4
71	71	1
49	68	1
56	60	2
102	174	3
139	139	3
41	41	1
154	160	2
148	148	4
46	46	2
18	22	4
67	111	2
87	87	1
33	161	2
158	159	2
1	1	1
121	122	2
31	37	2
99	99	7
81	88	3
115	161	4
94	143	2
143	144	5
154	154	4
26	44	4
21	50	1
120	120	4
105	137	4
10	30	2
42	57	3
14	14	6
153	153	11
18	18	4
25	25	3
24	25	3
149	149	2
19	26	3
5	166	1
126	126	1
146	146	1
110	115	2
51	52	1
118	123	1
84	136	6
42	42	2
67	150	3
50	50	4
19	50	1
81	81	7
105	105	5
176	176	2
121	121	5
152	155	2
133	149	1
101	101	5
122	143	1
164	164	3
141	141	1
106	121	2
57	63	2
122	122	4
67	67	1
95	95	2
32	43	2
68	68	1
108	127	2
169	170	1
173	174	4
124	124	4
2	2	4
130	166	1
132	132	2
10	44	2
16	16	1
84	84	2
22	22	1
54	54	2
139	176	1
12	12	1
35	35	2
151	151	2
156	156	1
54	91	1
53	53	4
140	140	2
10	43	2
93	140	2
5	44	4
91	92	1
162	162	5
6	24	4
101	109	1
53	136	4
167	169	3
143	149	2
63	68	1
106	118	1
0	61	3
76	76	2
116	116	1
179	179	1
172	172	4
64	114	1
91	91	4
154	171	1
75	75	6
144	144	2
115	115	1
40	40	2
137	137	1
96	96	1
129	131	2
3	144	1
19	49	2
171	171	5
71	84	1
145	145	6
157	160	3
5	6	1
32	32	5
94	94	2
10	13	4
53	55	1
38	38	6
38	66	2
165	167	1
87	88	2
125	163	1
163	168	2
83	84	1
158	158	2
112	123	3
119	119	2
7	38	2
109	130	1
94	142	1
13	43	4
128	162	5
0	2	1
30	32	1
108	108	2
143	143	1
136	136	2
33	33	2
9	9	2
93	93	1
52	52	2
7	161	2
129	166	2
29	29	2
131	131	1
126	132	1
45	45	1
54	136	1
54	57	1
55	90	2
33	34	2
4	5	2
136	137	3
31	31	1
88	88	2
109	117	1
153	177	2
51	51	1
13	13	1
97	97	1
43	43	1
60	61	3
49	161	1
93	94	1
153	163	1
27	28	5
153	160	1
5	5	3
58	102	1
7	7	1
86	86	1
101	102	1
3	4	1
12	14	1
80	81	2
65	104	2
43	44	1
118	118	2
134	136	1
98	102	2
112	112	1
36	55	1
133	133	1
5	7	1
10	11	1
74	84	1
42	55	1
0	0	1
4	4	3
16	23	1
90	90	1
20	21	1
30	30	1
20	20	1
100	144	1
134	134	2
160	160	1
83	86	1
10	10	1
7	11	2
174	175	3
61	84	1
91	93	1
139	140	1
41	71	1
17	17	1
127	128	3
26	26	1
120	121	1
180	180	1
63	67	1
106	106	1
121	145	1
