103	103	4
1	1	5
16	16	3
43	44	1
112	112	5
57	57	11
111	111	8
24	24	8
63	64	2
9	9	2
12	12	7
44	44	9
73	73	2
82	82	4
92	92	7
67	67	12
66	66	14
30	30	6
75	75	2
23	25	4
99	104	1
106	107	3
68	69	3
22	22	4
117	118	4
87	87	3
5	5	1
5	7	2
42	42	3
49	49	9
9	10	2
68	68	13
81	82	5
76	76	4
80	80	5
94	96	4
6	12	2
74	74	12
48	48	3
25	25	3
27	28	5
8	8	2
78	78	4
50	50	9
59	62	4
29	30	5
32	32	3
11	11	9
13	13	9
123	124	2
128	129	1
103	104	2
38	39	4
112	125	2
129	129	2
23	24	7
45	45	8
109	109	10
127	127	1
88	88	8
126	126	6
8	9	4
59	59	4
56	56	6
58	65	5
19	25	2
90	90	8
116	116	7
29	29	5
12	14	5
56	57	3
64	104	1
123	123	9
56	71	1
122	122	7
125	125	2
128	128	6
129	131	2
69	72	2
32	60	2
118	127	4
20	20	4
118	120	3
40	42	1
118	118	5
116	119	3
82	83	6
64	64	5
69	70	2
92	93	3
65	65	7
62	62	3
10	10	2
111	112	2
94	94	14
84	93	1
113	113	2
86	86	3
17	17	4
100	101	4
72	72	7
51	51	9
41	60	3
58	59	5
52	52	2
16	17	1
4	11	1
53	53	8
124	125	4
93	125	1
50	55	1
3	12	1
67	68	3
17	18	10
62	63	1
97	97	5
85	85	3
55	55	3
15	15	3
19	19	3
52	53	3
60	62	1
126	127	4
88	89	2
4	4	5
107	107	6
31	31	1
81	81	7
121	121	4
77	77	3
110	110	2
95	95	2
3	49	1
0	0	3
91	91	1
43	55	2
61	62	3
14	33	3
96	96	3
105	106	1
78	79	4
46	46	2
63	63	1
79	79	3
40	68	2
17	47	3
79	80	7
99	99	10
53	122	2
104	104	6
130	130	5
89	89	6
75	76	1
20	27	3
16	20	1
109	110	1
55	66	2
106	106	5
20	21	1
34	34	3
31	48	1
43	57	2
75	77	1
119	125	1
82	88	1
62	64	1
93	93	2
41	42	3
74	75	1
122	123	4
69	69	4
3	3	6
41	41	2
18	18	2
114	114	5
88	95	3
38	38	4
33	33	1
98	99	2
27	29	2
116	117	2
15	19	2
14	14	1
58	58	3
76	77	3
101	101	1
117	117	6
132	132	1
26	27	5
114	115	4
4	5	1
86	88	1
89	90	5
121	132	1
55	68	2
115	116	2
47	47	3
75	90	3
46	96	1
53	54	4
125	126	2
61	61	3
60	61	1
115	115	5
40	45	1
99	100	1
6	6	5
83	85	1
54	106	1
28	33	3
75	122	1
115	118	1
78	87	1
120	120	4
97	98	2
105	105	1
117	127	2
96	101	2
40	41	2
1	5	1
127	129	1
40	40	1
25	26	3
30	31	1
113	114	2
21	28	3
14	15	1
100	100	1
58	66	1
108	109	2
124	124	2
26	26	2
49	57	1
61	65	2
18	19	2
87	89	1
71	71	1
95	100	1
133	133	2
39	39	1
102	103	1
49	53	2
45	54	1
19	27	1
115	132	1
7	7	2
127	128	1
120	132	1
67	71	1
131	132	1
29	31	2
42	60	1
12	13	1
19	20	1
118	119	1
27	27	1
41	43	1
98	98	1
43	51	1
111	113	1
