71	71	9
89	90	2
131	132	8
138	139	1
7	11	3
147	148	2
27	30	4
150	151	7
30	30	9
113	113	8
58	58	8
125	126	3
124	154	3
10	10	11
64	64	5
56	56	5
125	125	3
26	26	7
3	3	10
54	149	1
100	145	1
106	106	6
116	116	5
12	12	3
7	7	4
75	75	5
86	86	6
9	9	3
32	36	1
25	27	7
87	88	2
16	17	6
110	110	4
81	81	5
97	128	2
21	21	12
14	14	8
70	71	6
67	126	1
150	150	16
72	73	4
50	54	2
131	131	7
135	139	4
48	48	4
76	76	6
50	50	4
128	128	5
138	138	4
102	103	9
117	117	6
114	148	1
80	81	1
102	102	8
94	94	12
24	24	15
35	36	4
137	138	2
78	78	2
67	67	6
93	93	9
72	72	6
103	104	9
38	38	6
54	55	5
111	113	4
95	95	13
19	19	2
73	73	4
136	139	1
43	43	12
45	45	20
20	20	5
109	110	2
105	105	5
128	129	3
125	151	4
4	5	1
68	68	3
25	25	5
104	104	3
145	146	2
32	32	3
77	77	6
84	85	1
121	126	3
114	118	4
145	145	3
54	54	11
34	34	7
18	18	2
142	144	5
82	82	8
126	126	2
141	141	3
23	28	3
136	136	11
27	27	6
4	4	2
101	101	5
20	21	3
108	108	9
134	134	2
16	16	2
105	113	4
149	149	13
149	150	1
96	97	4
55	56	3
45	46	1
49	49	9
99	135	1
111	147	1
6	14	3
112	113	2
152	152	6
100	100	1
112	112	3
67	68	1
63	64	2
153	153	6
54	61	2
151	151	16
14	15	2
81	83	2
99	146	2
75	77	2
114	132	2
146	147	4
41	46	1
119	119	5
53	54	1
135	136	3
2	20	1
92	92	2
2	2	5
47	62	2
124	124	7
139	139	5
55	62	1
101	106	5
148	149	4
28	28	9
50	55	4
115	118	3
130	130	6
107	108	4
12	13	5
107	107	12
131	134	5
137	141	1
133	133	4
122	122	3
117	124	2
66	66	1
32	149	1
17	17	9
85	85	6
114	128	2
143	143	5
50	149	2
30	31	3
74	74	7
106	107	2
38	51	2
129	130	1
148	148	2
32	33	1
147	147	3
94	120	4
41	41	4
98	132	4
115	115	2
62	62	1
129	129	2
127	127	5
27	29	5
69	69	3
84	84	4
31	32	2
120	120	2
99	131	1
8	8	6
11	11	5
5	7	5
57	57	5
42	42	5
10	11	1
36	36	2
98	136	5
90	96	2
84	86	4
123	153	2
6	6	4
142	142	5
11	12	3
143	144	1
123	123	8
73	79	1
14	31	2
99	99	1
87	87	5
33	33	5
41	42	3
96	139	5
118	118	6
109	147	3
94	95	1
51	51	4
95	97	1
135	135	1
66	122	1
19	20	1
25	26	2
104	106	1
35	35	2
99	100	2
117	118	1
49	54	1
97	98	1
75	76	1
4	26	1
146	146	6
39	39	6
150	152	2
15	16	2
90	131	3
115	116	1
144	144	2
151	154	2
33	37	4
123	152	1
121	127	2
123	124	1
77	78	3
40	40	2
29	29	3
131	147	3
115	128	1
126	127	6
147	149	3
57	62	1
132	132	2
103	103	1
22	22	5
119	120	3
23	29	1
96	96	1
82	84	2
114	130	1
5	6	2
69	95	1
76	77	2
111	111	2
124	151	2
137	137	2
111	150	2
13	13	1
5	5	1
40	41	2
150	154	2
8	9	1
40	42	2
77	81	1
15	31	1
53	53	1
74	76	2
114	114	1
65	65	3
13	14	2
15	15	3
55	55	1
33	34	1
42	43	1
116	130	1
22	23	1
149	153	1
96	140	1
113	149	1
109	109	2
26	27	1
80	80	1
68	69	1
37	50	3
98	144	1
111	148	1
93	94	1
27	28	1
69	91	1
94	97	1
115	154	1
120	121	1
83	83	2
79	80	1
34	35	1
62	63	1
47	47	2
67	122	1
51	52	1
102	105	2
25	32	1
85	87	1
51	63	1
67	69	2
117	123	1
24	25	2
154	154	1
23	23	1
38	45	1
97	122	1
101	146	1
70	70	1
44	44	1
97	97	1
58	62	1
78	87	2
79	79	1
121	128	1
9	10	1
136	137	1
85	86	1
