55	55	3
93	105	2
16	16	7
22	110	2
90	99	1
92	92	5
78	78	2
77	105	1
18	19	5
54	55	2
104	104	2
11	11	2
123	123	2
41	41	3
2	3	1
1	2	4
88	88	4
21	21	6
117	117	4
127	131	4
93	94	1
73	85	3
47	47	4
63	63	1
88	102	3
87	87	5
129	131	3
49	49	5
3	3	5
106	107	1
88	96	1
85	97	2
118	118	1
44	55	1
7	7	5
54	54	4
68	70	1
70	71	7
121	122	2
17	18	2
77	77	5
18	23	1
17	17	1
23	27	2
50	50	6
115	115	3
63	66	3
99	100	5
53	53	4
6	18	1
62	62	8
18	18	3
129	129	3
122	122	3
39	121	1
68	68	9
19	22	1
30	30	1
99	99	5
110	110	5
86	97	1
107	107	8
15	19	2
119	119	1
31	31	2
125	125	1
89	91	1
51	53	4
5	5	3
116	116	4
82	82	7
114	114	6
25	25	5
101	119	1
103	127	1
83	83	3
89	90	4
21	33	2
60	75	2
87	103	1
61	63	1
13	13	1
91	97	3
33	33	5
1	1	7
40	41	2
26	26	5
31	124	2
22	22	7
97	100	3
133	133	3
79	85	1
46	46	7
120	128	5
8	8	2
103	104	3
67	67	5
31	32	2
100	100	3
57	57	4
18	39	1
66	67	4
0	0	2
60	60	2
76	116	1
56	58	1
85	85	6
3	12	2
59	59	2
4	4	2
118	119	2
45	54	2
44	44	6
12	13	1
87	91	1
112	112	4
69	69	5
128	129	2
78	104	1
74	80	5
74	83	2
68	69	2
118	128	2
78	79	1
9	9	1
15	15	1
77	126	3
131	131	1
57	58	2
113	114	2
51	132	1
120	126	1
61	61	3
42	73	2
128	128	4
10	10	6
59	66	1
132	132	1
7	24	1
42	42	2
110	113	1
109	115	1
96	96	3
50	51	3
126	127	2
79	82	2
113	113	5
79	79	3
23	23	2
109	109	1
4	5	2
80	125	2
97	101	1
94	94	4
81	81	3
64	64	3
52	52	1
97	97	1
22	32	2
27	27	5
103	120	4
99	101	1
22	30	1
46	54	1
57	128	4
115	118	2
93	93	2
3	4	3
22	23	4
53	57	1
101	109	1
43	63	2
58	58	1
119	131	1
48	48	3
42	43	2
29	29	2
126	128	2
67	72	1
32	32	1
24	25	1
64	72	2
44	56	1
116	124	1
40	40	1
86	108	3
76	76	3
90	97	1
84	84	1
74	74	1
114	116	1
14	34	1
80	80	1
16	17	1
95	95	1
24	24	1
39	39	1
15	26	1
54	56	1
14	14	1
48	122	1
121	123	1
93	95	1
0	1	1
76	82	1
98	98	1
20	34	1
17	20	1
91	92	1
63	72	1
0	38	1
67	68	1
39	40	1
89	89	1
6	16	1
77	93	1
6	7	1
