51	51	7
43	44	3
39	39	6
64	65	1
38	38	6
97	106	1
36	41	1
26	26	5
51	113	1
55	55	3
106	106	8
57	57	8
22	22	8
37	37	21
41	41	8
52	52	9
74	108	1
25	25	3
88	91	3
60	60	4
22	47	2
70	70	12
27	27	10
73	106	3
40	40	16
61	62	1
61	61	3
50	50	2
20	20	6
72	72	12
96	104	6
62	65	4
105	106	4
76	76	3
55	57	3
41	42	4
59	59	2
33	33	8
92	92	6
97	97	2
90	91	4
109	110	8
43	43	7
30	34	1
97	99	1
88	88	5
58	58	2
21	47	3
65	65	2
61	98	1
40	97	2
110	110	3
40	71	2
95	95	6
81	92	1
56	63	1
104	105	3
54	55	6
54	88	3
83	83	3
28	29	7
23	24	3
78	79	2
46	46	11
54	54	4
87	87	7
30	30	5
105	105	4
73	73	10
81	81	4
79	80	4
71	73	6
24	24	6
51	52	5
20	102	2
29	29	8
37	40	1
73	99	1
47	47	6
96	96	6
97	105	5
28	28	8
44	44	4
57	77	5
89	89	3
101	111	1
45	45	12
94	95	1
114	114	5
74	74	2
68	76	4
31	32	3
87	90	4
90	90	5
66	66	1
42	42	7
34	43	2
49	49	3
71	72	3
113	114	3
103	103	5
32	32	3
59	64	2
21	21	6
93	108	1
50	51	7
109	109	5
26	27	7
39	40	3
52	53	3
73	74	2
36	42	2
59	94	1
67	67	9
78	78	5
93	93	8
99	100	1
19	19	1
107	107	4
78	107	2
88	89	4
25	71	3
56	56	5
56	57	5
96	98	2
33	34	6
69	76	1
104	104	4
61	97	1
34	34	4
106	107	3
98	98	1
28	31	2
82	82	3
108	108	5
59	95	2
101	109	3
71	97	3
22	49	3
80	80	3
35	35	4
35	101	3
94	94	2
68	69	3
74	105	2
91	104	3
86	86	3
27	49	1
86	87	2
58	82	1
101	101	10
38	39	4
61	111	1
75	75	13
77	77	4
88	90	6
80	83	5
25	73	2
111	111	1
48	48	3
37	38	1
64	64	2
109	112	3
91	91	1
58	108	1
36	37	5
21	23	1
27	72	1
82	83	3
53	57	2
92	94	3
55	58	1
112	113	2
35	36	5
101	103	2
31	45	1
42	46	2
36	40	1
47	48	1
58	60	1
63	95	1
20	32	1
100	100	3
56	67	2
36	36	1
90	110	2
62	68	3
99	99	2
39	112	1
79	79	1
74	75	1
31	31	6
55	108	1
71	71	1
30	32	2
60	66	2
59	68	2
113	113	2
30	112	1
55	59	1
32	39	1
75	79	1
102	102	1
103	113	1
65	67	1
20	30	1
27	32	1
32	112	1
84	86	1
39	67	1
21	46	1
75	106	1
52	76	1
76	79	1
39	71	1
23	50	1
66	67	1
58	83	1
57	76	1
68	111	1
115	115	1
