95	141	3
24	24	5
73	73	7
105	105	12
137	140	4
46	52	1
114	122	3
21	21	8
123	142	2
3	4	6
17	17	6
135	135	18
102	102	5
134	135	8
150	150	11
98	98	10
69	69	7
112	112	5
16	16	9
128	157	1
89	89	14
68	68	7
63	64	4
7	16	2
39	40	12
91	92	3
90	93	3
43	43	11
151	151	7
13	14	6
109	109	11
28	28	5
29	29	3
110	110	8
106	107	9
112	135	5
31	99	5
39	39	7
105	106	4
117	138	2
5	5	2
68	98	5
0	32	3
70	71	3
71	112	2
68	69	4
90	90	3
99	99	6
132	132	3
75	77	1
88	90	1
67	69	2
63	63	2
72	77	1
137	137	9
142	144	5
80	87	4
64	64	7
49	49	2
128	159	2
75	75	7
18	18	9
9	11	2
8	8	5
84	85	2
148	151	2
80	80	3
86	86	6
137	138	4
134	134	5
37	44	3
122	124	3
95	95	8
14	29	3
145	145	6
80	88	1
136	136	10
125	157	5
93	94	4
94	94	3
7	26	6
147	147	6
157	157	5
31	41	2
42	42	8
87	87	6
106	106	4
103	103	8
118	119	4
28	29	2
87	88	1
146	146	4
42	44	5
52	52	12
34	34	8
158	158	5
153	153	4
20	22	1
148	148	10
53	55	1
11	11	3
41	41	3
157	158	6
33	33	8
50	50	8
128	128	14
92	92	8
13	13	10
76	76	1
5	152	3
2	41	1
6	23	4
20	20	6
85	85	4
18	19	4
78	79	4
10	10	19
122	122	4
94	95	1
143	144	3
152	153	3
49	50	3
14	151	2
119	120	1
25	25	10
138	138	6
32	32	3
104	104	5
144	144	2
70	102	1
114	114	9
46	48	1
71	71	14
83	84	5
131	132	5
124	124	4
35	35	9
12	13	2
7	7	3
124	142	1
101	101	5
77	116	2
130	130	4
82	83	3
116	117	2
133	133	4
127	127	7
26	26	1
47	47	17
122	123	2
85	86	7
74	74	1
38	38	4
6	26	2
158	159	2
62	97	2
10	12	3
100	101	2
2	2	2
15	15	3
27	27	5
17	19	3
40	40	4
146	147	3
67	101	3
0	0	9
52	54	2
114	117	2
143	156	2
103	105	5
100	100	5
118	118	2
15	36	2
70	70	5
102	104	1
81	81	5
129	140	1
93	93	4
129	129	4
152	152	6
107	107	8
143	145	1
37	37	8
37	39	3
36	36	4
115	115	7
9	9	2
89	90	3
83	83	12
63	70	1
137	142	6
95	125	2
155	155	7
39	41	4
54	54	4
65	66	1
96	119	1
150	155	2
65	107	1
77	77	1
30	33	1
149	150	4
24	25	1
55	80	1
23	23	2
117	120	4
77	78	1
14	150	1
147	149	2
123	123	6
46	50	2
79	79	7
65	67	1
81	86	2
133	141	2
139	139	2
2	32	2
96	96	1
11	12	2
88	88	6
46	46	3
46	47	2
7	25	2
82	82	3
39	148	4
91	91	3
73	100	2
66	66	3
119	119	1
46	55	5
124	125	1
10	11	2
120	120	4
17	18	3
123	125	1
39	91	2
22	22	4
122	132	2
144	155	1
3	96	3
149	151	3
111	111	2
84	86	2
44	44	2
49	62	1
48	50	4
7	8	5
27	28	2
108	108	3
41	46	2
44	45	1
6	6	3
149	149	6
40	148	1
31	32	5
38	46	2
19	19	6
17	43	1
116	124	1
84	93	1
50	51	8
67	67	1
4	5	2
1	1	4
128	130	1
31	31	3
143	143	3
48	48	2
4	4	3
156	157	2
125	126	2
114	115	3
50	95	2
122	147	3
149	152	3
62	62	3
116	116	3
153	154	4
140	140	3
12	12	1
126	142	4
131	131	2
117	141	3
51	51	3
120	123	1
43	44	1
13	16	2
11	40	1
129	130	3
37	80	1
97	97	1
80	81	1
151	153	2
66	67	1
48	49	1
17	20	1
154	154	2
32	33	1
42	43	3
7	10	2
25	26	2
135	136	5
52	98	1
52	104	1
1	33	1
139	140	1
28	30	3
35	36	1
151	152	2
38	39	1
132	141	2
79	89	2
54	98	1
149	153	1
8	9	1
24	26	1
138	139	2
48	52	1
123	124	1
119	146	1
65	65	2
30	30	1
4	33	1
78	78	1
1	2	1
121	121	5
26	29	1
52	81	1
135	140	1
113	114	1
112	114	1
150	154	1
64	135	1
6	38	2
117	117	1
52	61	1
3	3	1
55	55	1
6	18	1
82	113	1
125	125	1
110	112	1
126	131	1
95	118	1
3	49	1
12	24	1
66	106	1
154	155	1
36	94	1
66	110	1
40	45	1
41	42	2
54	62	1
127	128	1
22	23	1
