185	214	1
136	136	5
174	174	7
53	53	1
59	63	6
119	167	2
62	62	1
66	67	1
229	231	2
15	15	8
65	65	4
23	56	2
27	28	2
77	123	1
151	152	2
227	227	3
2	11	2
41	41	4
2	2	6
236	236	2
36	119	6
9	9	4
202	202	3
101	123	3
228	228	8
230	230	6
144	144	6
103	129	2
180	180	3
37	105	2
194	194	3
75	75	3
81	81	6
126	127	1
20	21	2
59	60	4
134	171	2
218	219	1
10	10	5
127	178	1
102	102	5
126	126	4
206	221	4
79	92	2
70	70	5
43	43	7
160	160	5
52	53	3
177	178	1
135	135	6
119	120	4
14	14	6
48	48	5
122	122	2
119	164	1
199	200	4
28	28	3
158	160	1
0	0	3
222	222	4
80	104	2
132	132	2
103	103	5
46	46	2
38	38	3
19	19	5
34	51	6
169	169	7
188	189	2
17	17	3
147	158	1
234	240	2
161	165	5
34	34	2
191	191	2
168	168	5
145	145	3
224	224	4
194	203	3
104	126	2
3	30	2
63	64	5
186	193	1
205	206	5
83	84	2
71	72	1
165	166	2
108	108	9
39	120	6
35	119	2
39	39	4
151	151	6
138	138	1
105	105	4
45	45	8
174	175	2
71	219	1
213	216	5
177	177	2
110	110	2
232	232	3
182	182	2
21	57	3
231	231	3
63	182	1
71	71	1
203	204	1
44	44	2
226	226	2
203	203	2
239	239	2
7	184	4
214	214	4
96	96	4
137	137	2
210	210	4
161	161	2
76	76	4
200	202	3
105	121	6
149	149	1
160	171	4
209	227	1
25	25	2
141	142	4
119	119	3
64	64	6
162	162	4
234	234	7
137	138	2
107	168	2
202	204	1
210	216	1
29	30	2
200	201	2
77	77	2
107	107	1
188	188	2
153	153	2
109	109	2
125	125	3
155	156	2
20	32	2
11	13	4
55	55	5
189	189	3
148	148	3
108	164	2
183	186	3
179	179	4
62	71	1
27	27	3
165	174	1
145	147	1
139	140	4
32	32	7
210	228	1
158	158	1
4	29	2
107	117	2
9	23	4
8	8	6
113	113	4
98	98	2
139	139	3
1	214	3
201	201	4
213	213	4
138	139	4
153	154	1
185	185	2
31	31	2
141	143	4
196	196	1
86	178	1
74	75	4
85	85	3
148	160	2
140	141	2
184	184	1
238	239	3
211	211	2
72	72	3
16	31	1
225	226	2
5	6	2
69	69	4
134	134	1
22	59	2
36	36	4
63	71	1
74	74	4
190	190	2
1	1	1
33	53	1
97	97	4
18	163	2
81	82	3
129	129	2
207	207	1
44	45	4
68	79	2
23	23	3
104	122	2
205	210	1
205	205	2
216	216	3
3	9	1
172	172	5
123	124	1
220	220	10
13	13	1
210	213	1
54	54	1
124	127	1
2	3	2
60	60	1
103	104	1
147	160	1
171	171	2
7	7	1
195	195	3
182	194	2
59	81	1
101	132	5
226	227	2
26	26	4
68	69	1
220	221	2
167	167	1
205	223	2
51	51	1
99	99	2
238	238	1
57	78	2
121	121	2
0	1	3
201	202	1
2	6	1
217	217	5
18	35	2
76	78	1
17	19	1
112	114	1
67	67	1
63	63	3
49	49	2
40	41	2
64	66	1
66	66	1
223	226	1
191	196	3
152	152	2
217	218	1
183	183	2
238	241	1
68	68	1
72	218	2
237	241	1
35	166	2
37	37	1
157	157	2
35	36	1
68	100	1
193	193	1
47	47	3
114	135	1
189	190	1
100	100	3
241	241	1
36	40	1
69	89	1
33	33	1
30	30	2
96	97	1
178	178	2
179	187	1
128	128	2
154	154	1
186	186	1
124	126	1
4	4	1
128	130	1
143	143	2
24	24	1
207	208	1
50	54	1
83	187	1
206	217	1
79	80	1
61	61	1
52	54	1
22	57	1
96	133	1
71	218	1
83	83	1
175	175	1
225	227	1
38	44	1
2	5	2
127	128	1
50	52	1
199	202	1
199	199	1
129	130	1
