78	78	7
168	168	10
126	126	21
162	162	4
34	34	6
85	85	6
14	26	3
109	112	1
18	27	4
153	169	1
71	72	6
120	143	5
103	104	4
129	129	4
38	38	15
45	45	13
124	125	3
99	99	15
5	5	12
87	87	5
126	127	5
76	76	9
68	70	2
27	27	16
160	160	6
135	135	24
139	149	5
79	79	14
9	9	14
153	158	1
132	132	18
105	115	3
131	131	27
22	24	7
45	73	2
86	86	16
39	73	4
0	8	6
105	105	8
107	107	8
144	144	7
71	71	8
91	91	7
133	133	22
141	143	3
103	103	14
87	103	6
68	88	1
3	3	18
165	165	9
109	133	1
11	12	5
33	34	4
114	115	5
3	19	2
169	169	2
109	109	6
8	9	5
143	143	2
2	2	17
84	84	13
105	106	1
150	152	2
119	119	5
136	137	1
76	80	2
15	15	8
97	97	9
3	18	2
111	111	22
159	161	7
109	115	1
63	64	5
119	148	5
6	6	9
151	151	13
2	18	1
109	123	10
70	70	11
43	43	8
110	110	8
75	75	11
88	94	2
106	107	8
65	80	8
47	48	1
155	157	2
62	62	6
67	67	12
113	113	3
80	81	7
168	169	7
49	49	7
47	55	2
150	157	1
101	101	3
36	36	7
100	100	17
145	145	10
7	7	6
135	137	4
28	28	7
108	108	8
47	47	18
43	55	3
140	140	3
141	142	4
160	169	1
157	157	9
61	63	5
1	1	13
24	25	8
120	123	2
9	11	1
164	164	13
64	65	1
160	164	5
73	73	4
68	68	8
89	111	1
23	23	14
108	115	5
122	122	12
159	159	15
153	153	8
155	155	5
161	161	14
119	137	3
120	121	2
42	48	3
72	72	9
69	69	6
149	150	4
137	137	8
85	87	5
147	147	8
112	118	4
128	129	4
39	39	4
4	4	6
96	96	13
17	17	2
7	11	5
25	148	5
139	140	5
10	10	13
37	84	4
120	146	4
40	41	3
102	105	2
116	116	10
138	138	9
116	122	3
58	58	5
153	154	3
18	18	7
139	141	2
77	77	2
45	71	3
41	43	2
25	36	3
57	67	1
68	99	4
46	73	6
137	153	1
50	51	5
170	170	9
68	69	8
154	155	1
105	111	1
135	136	1
159	162	2
90	102	2
133	134	4
91	105	4
50	72	2
107	114	1
115	115	10
167	167	8
110	111	2
21	21	10
130	130	9
158	160	6
94	94	2
123	123	10
50	50	5
134	134	12
156	162	4
97	98	7
117	117	3
24	24	12
130	144	2
48	49	2
18	36	2
6	7	2
54	54	7
121	121	10
3	16	2
8	168	3
42	42	5
0	2	9
140	141	5
117	137	3
92	93	1
88	88	8
161	170	1
125	125	5
53	53	8
46	47	1
77	80	1
119	121	2
104	104	17
162	167	2
119	120	3
54	135	2
23	24	1
136	136	13
37	37	2
51	51	10
20	20	13
89	90	2
124	124	5
127	127	8
0	56	4
89	105	1
85	86	3
163	164	2
162	163	4
111	112	3
14	14	4
48	48	10
22	22	5
146	146	8
83	83	6
158	158	7
120	120	10
98	99	8
23	157	2
77	94	1
21	22	1
81	86	1
101	111	3
81	84	3
81	98	4
144	147	1
57	58	3
92	94	1
145	146	1
40	40	6
76	93	4
86	95	4
74	74	7
138	139	8
125	126	4
68	86	1
151	152	3
106	112	1
129	130	1
68	89	2
106	118	2
63	66	3
79	85	4
20	22	7
16	28	2
21	23	3
117	154	2
156	156	4
47	74	4
149	149	8
44	45	1
6	23	3
106	106	4
151	155	4
85	94	3
154	154	6
166	169	1
166	166	5
56	56	14
92	92	8
26	34	2
13	13	8
16	16	3
101	107	1
80	84	1
104	113	2
102	115	5
52	52	12
64	64	3
48	56	2
51	135	3
11	11	6
113	114	3
73	93	3
41	44	1
14	15	10
93	93	3
44	44	6
130	131	4
151	161	1
40	43	2
106	144	3
90	90	10
63	65	6
33	33	2
127	130	3
43	69	1
34	45	1
112	113	3
71	74	1
69	78	2
26	26	2
47	68	1
98	111	2
82	82	10
100	101	6
118	118	3
19	19	4
94	96	2
128	128	6
41	41	5
40	56	2
66	72	2
3	36	5
27	34	4
91	96	3
140	142	3
19	21	2
19	20	5
45	98	2
46	48	2
150	150	2
74	75	8
166	167	3
0	0	2
108	119	1
12	12	4
121	122	4
21	25	2
111	120	1
28	36	4
43	44	3
98	98	5
114	114	8
91	92	1
12	20	3
126	129	1
126	152	1
36	37	4
41	46	9
40	73	1
112	112	5
90	107	1
62	65	1
167	170	1
12	23	1
2	3	1
72	92	2
38	79	1
3	26	6
169	170	1
44	74	1
14	17	4
56	57	6
53	55	1
19	27	2
113	117	1
0	14	1
50	68	3
83	87	2
143	145	3
22	23	4
35	35	6
94	95	3
127	131	1
50	55	2
132	133	1
50	58	2
162	164	2
6	11	1
127	128	4
16	20	3
160	165	3
38	80	3
20	24	3
155	156	4
27	37	1
76	82	2
84	85	1
28	50	4
8	8	1
95	97	1
111	131	1
156	158	2
107	149	2
65	65	4
64	67	2
124	130	1
25	35	4
55	55	8
166	168	1
52	53	2
160	161	2
78	80	3
25	25	4
129	139	2
109	121	3
91	102	2
79	89	2
78	79	1
75	76	4
18	25	3
57	70	2
20	21	5
85	88	2
79	84	1
18	24	1
16	18	1
117	121	3
3	14	1
81	88	2
141	141	4
152	154	5
148	148	2
150	151	1
57	57	5
120	144	1
111	117	5
164	169	2
152	152	2
76	77	3
163	165	2
15	24	1
165	166	2
16	24	1
76	79	2
150	167	2
137	145	1
101	110	1
81	94	3
109	110	4
144	145	3
155	158	3
162	168	2
1	2	1
2	19	2
82	88	2
39	40	2
164	165	2
86	114	2
38	56	2
108	150	1
134	138	1
89	89	3
33	83	4
109	120	2
142	142	3
86	87	6
45	49	1
130	158	1
156	159	4
134	135	4
79	81	2
15	16	2
101	112	1
87	88	3
149	169	1
80	82	1
125	127	1
26	35	1
41	97	1
65	67	3
41	54	2
74	76	1
49	64	2
92	95	2
18	35	1
8	167	1
91	99	1
101	103	1
93	95	1
77	78	1
7	10	3
2	5	1
39	41	1
157	160	1
19	35	2
66	66	3
78	83	2
103	113	1
109	124	2
167	168	2
25	133	1
88	90	1
18	34	1
37	44	1
124	131	2
137	164	1
34	37	1
3	25	1
50	53	1
125	135	1
46	46	4
157	159	2
113	128	1
38	39	2
37	38	1
62	63	1
150	168	3
127	132	1
69	79	2
70	72	1
139	148	1
115	147	1
24	28	2
42	43	2
1	56	2
128	143	2
45	74	1
128	142	3
73	79	3
88	100	1
34	49	1
88	101	1
165	167	1
57	65	1
125	153	1
5	18	2
81	85	2
146	147	2
132	141	1
92	96	1
155	167	1
106	108	1
45	72	1
143	146	2
54	57	1
83	84	1
25	49	2
26	27	1
114	151	1
95	96	2
157	158	1
163	163	1
81	81	5
5	17	1
53	56	1
156	164	4
101	117	1
34	39	2
12	14	1
87	101	1
101	109	1
133	135	1
49	58	1
140	143	2
46	56	2
107	108	1
80	94	2
133	140	1
120	122	1
42	44	1
4	57	1
125	139	2
117	120	1
101	102	1
13	151	1
57	62	1
102	102	1
9	17	1
120	136	1
66	67	1
139	156	2
2	56	1
53	137	1
21	24	1
83	100	1
131	132	1
108	109	1
65	71	1
79	80	1
106	121	1
151	166	1
50	52	1
102	103	1
149	154	1
