79	79	6
24	24	8
106	106	12
105	106	3
14	17	3
75	77	1
46	47	5
46	46	7
15	105	1
49	49	14
42	42	4
112	112	10
93	123	1
6	6	6
15	15	7
128	129	1
97	97	6
94	105	2
39	39	9
28	29	1
118	118	5
66	66	7
12	12	8
103	103	3
109	110	3
21	21	2
49	50	4
90	91	6
104	105	3
76	76	10
44	63	1
43	64	7
26	27	9
110	110	12
61	61	7
54	54	13
68	68	10
62	63	2
9	10	5
56	56	6
47	61	4
39	40	1
120	120	7
102	102	2
7	8	2
110	111	1
71	71	9
59	62	2
101	101	8
75	76	5
78	79	7
44	46	2
16	17	1
49	57	1
105	105	4
95	95	12
4	4	4
77	84	3
80	81	7
29	30	3
3	3	6
127	129	3
109	109	2
24	25	2
98	98	5
44	44	6
102	103	2
1	1	7
114	114	7
57	113	3
27	27	4
77	77	6
58	58	9
12	18	1
86	87	1
108	108	10
131	131	6
69	69	2
64	65	3
18	19	6
4	9	2
16	16	4
38	38	2
116	116	12
106	107	3
64	64	2
127	128	2
38	47	3
55	55	4
11	11	2
101	102	2
65	69	2
95	123	1
102	126	3
23	32	8
26	26	5
60	60	2
54	55	3
59	61	11
32	32	7
115	115	6
78	78	4
19	19	6
75	84	3
111	111	12
0	1	2
8	9	2
18	18	4
5	6	2
93	93	5
27	29	1
78	89	1
50	50	3
10	10	6
9	9	3
41	43	1
94	94	2
85	85	8
100	100	2
84	85	3
25	27	2
63	64	3
67	68	4
43	43	3
51	51	9
103	115	1
75	111	1
78	85	2
130	131	3
45	48	5
20	20	7
2	2	6
8	8	4
122	122	1
104	104	2
19	23	2
23	23	4
116	117	1
6	8	3
5	126	4
0	0	4
31	31	4
72	73	2
5	103	2
80	80	4
77	114	1
53	53	6
119	119	2
91	91	1
73	73	4
70	70	1
33	34	2
66	67	1
112	113	1
96	96	2
45	60	5
123	124	3
25	25	3
5	117	3
10	11	3
11	13	1
45	45	4
33	33	2
120	122	2
3	9	5
104	114	6
33	40	4
122	124	1
124	124	4
47	47	5
6	128	1
2	3	4
16	20	2
7	7	2
81	86	1
38	39	5
126	126	1
63	70	2
107	107	4
81	81	4
51	52	2
48	48	2
10	12	3
52	82	4
63	63	1
65	65	3
46	60	1
78	87	1
127	127	1
99	99	5
77	115	2
50	52	1
28	28	4
0	30	2
53	54	2
6	7	3
3	10	2
107	108	3
63	65	2
96	98	1
74	74	3
89	89	1
113	113	6
54	110	1
80	85	2
20	32	1
57	58	1
90	114	2
57	110	1
31	32	1
1	48	1
86	86	2
58	63	1
29	29	3
101	125	1
79	86	1
117	117	5
121	122	5
44	60	1
130	130	8
88	89	1
67	67	4
83	83	2
13	15	2
132	132	2
16	38	1
13	13	4
58	59	2
50	51	1
92	92	4
95	124	1
96	99	2
82	83	2
56	57	2
61	62	1
115	117	1
108	109	3
82	82	1
5	11	1
21	22	2
57	57	8
129	130	1
42	44	1
115	116	2
5	5	2
52	53	2
93	94	2
77	78	1
1	2	4
121	121	2
11	15	1
91	92	2
80	111	1
58	62	3
3	31	1
73	84	1
77	91	1
122	133	1
123	123	2
56	107	1
30	30	1
111	112	2
62	62	3
90	104	1
75	75	1
14	14	1
121	133	1
118	119	1
94	96	1
90	90	2
119	120	2
94	118	1
78	80	1
19	20	1
9	12	1
4	103	1
61	63	1
84	84	1
10	15	1
72	72	1
78	84	1
44	65	3
46	115	1
9	11	1
33	39	1
89	90	1
1	3	1
75	104	1
83	85	1
89	91	1
22	24	1
114	117	1
