20	43	1
81	81	10
60	60	4
64	101	5
50	50	14
65	65	16
33	33	5
100	100	19
86	86	7
82	86	1
28	28	5
34	35	2
73	73	8
53	54	3
94	94	8
21	21	8
91	92	7
63	67	6
21	44	4
101	102	4
77	77	6
42	42	14
29	36	3
63	63	12
103	103	20
59	69	1
49	49	3
36	72	3
93	93	6
56	57	5
80	80	3
82	82	12
75	75	14
36	36	12
85	86	5
48	49	5
61	61	9
84	84	12
102	102	11
89	90	4
28	30	5
37	87	2
54	55	1
25	26	3
62	62	16
92	92	10
36	88	2
79	79	7
39	39	12
74	74	6
90	92	1
91	91	15
35	74	2
68	68	5
31	31	7
33	34	6
35	35	14
55	99	1
87	87	3
24	37	1
71	92	4
69	69	15
106	106	3
94	99	4
41	44	2
29	29	4
26	26	3
68	69	8
66	66	10
62	63	2
75	77	3
23	23	4
78	78	8
25	28	1
59	63	2
98	98	3
101	101	11
25	25	2
67	67	4
78	83	1
57	57	9
42	44	3
24	38	2
83	86	4
39	40	1
37	37	6
44	44	7
97	97	4
34	34	6
90	90	15
38	72	1
32	32	5
70	70	15
23	37	4
72	72	5
83	83	5
23	71	3
64	103	1
81	91	5
99	99	12
53	105	3
45	95	2
47	49	2
31	89	1
64	66	3
88	88	3
43	95	3
52	52	6
64	64	6
71	72	4
105	106	3
27	27	1
61	101	2
40	49	4
58	58	7
29	58	5
96	96	5
47	48	4
55	55	7
37	84	3
45	45	7
38	39	4
71	71	8
87	88	1
76	77	5
24	24	14
94	96	2
105	105	5
95	95	5
43	45	1
89	89	4
47	47	6
40	40	4
95	96	4
60	61	1
40	41	2
79	80	1
98	99	3
35	64	1
56	56	5
31	33	2
27	36	2
63	101	1
64	65	3
71	87	1
26	27	7
57	59	1
53	53	3
48	48	5
79	81	1
21	24	3
102	103	2
51	52	4
91	96	1
26	28	4
33	92	1
34	71	2
20	20	4
50	97	1
80	81	3
38	38	2
23	77	2
94	106	3
37	38	2
28	47	1
55	57	1
104	104	4
30	60	1
65	91	1
78	81	5
90	91	4
51	51	2
59	59	3
64	91	1
59	66	1
39	97	2
41	99	2
63	64	4
31	32	2
40	70	2
66	67	4
28	60	1
59	101	1
43	43	1
22	22	4
54	54	1
103	104	1
73	77	4
61	62	2
97	98	5
25	60	1
55	56	1
26	59	1
51	53	1
39	42	1
23	76	2
29	31	2
44	45	2
22	39	1
34	72	2
43	97	1
62	101	2
74	75	2
27	28	1
23	82	1
100	101	2
30	30	1
93	96	1
41	41	1
57	91	1
53	57	1
78	79	1
32	34	2
59	91	1
84	87	1
22	23	1
37	71	1
29	30	1
