21	21	6
104	136	1
152	152	2
97	97	2
148	148	5
54	54	14
133	134	6
137	137	2
3	22	1
86	90	4
27	27	5
136	136	5
130	131	5
8	8	7
48	49	6
99	99	11
96	98	3
39	39	4
3	4	3
35	35	9
15	15	7
94	94	8
43	43	10
8	9	1
100	100	13
70	70	19
118	118	20
23	23	3
30	30	11
79	82	1
144	145	3
99	100	2
113	113	5
82	82	6
78	80	2
143	143	4
19	19	10
104	104	4
16	17	2
24	24	14
26	27	2
9	43	3
115	115	1
44	44	11
6	6	6
116	116	8
87	87	8
147	147	9
36	36	3
149	149	5
153	153	5
119	119	4
49	49	6
146	146	2
128	128	4
101	102	3
30	31	1
83	83	11
92	152	3
13	14	2
122	122	7
101	101	1
144	146	4
4	4	1
25	26	5
18	18	2
148	149	1
135	135	7
142	149	1
4	35	2
29	30	1
31	31	6
85	85	7
79	121	1
13	13	12
25	25	5
10	11	5
39	40	7
132	132	6
78	78	5
34	34	6
20	20	8
133	133	12
45	45	3
19	20	2
134	134	6
50	50	9
15	17	1
140	140	2
29	29	4
117	118	1
129	130	5
117	117	18
141	141	2
51	69	2
63	64	2
80	80	3
114	115	3
62	62	3
15	16	4
57	57	8
145	145	4
73	73	11
150	150	10
21	42	2
137	152	2
93	93	4
84	84	5
79	79	1
83	86	1
114	114	9
120	121	3
16	16	2
108	108	8
111	111	10
81	82	1
21	67	3
81	83	4
75	87	2
40	40	5
93	97	2
103	104	4
98	98	4
103	103	2
120	120	2
33	34	3
63	63	2
11	33	2
113	114	4
28	28	5
9	9	5
142	142	3
98	99	2
76	86	2
48	68	1
47	53	1
112	136	1
85	86	3
87	151	2
42	42	2
144	144	3
11	31	5
109	109	4
122	123	1
16	24	2
7	7	7
21	22	1
11	11	5
138	139	2
123	123	9
53	68	3
132	134	3
137	138	3
79	81	2
126	127	1
62	63	2
82	92	1
12	12	8
74	75	2
129	129	4
37	37	7
25	32	1
81	81	3
64	64	3
78	81	1
138	154	1
17	17	13
5	9	3
67	67	5
32	32	1
5	146	3
102	103	1
35	82	1
106	106	3
86	86	5
54	56	3
26	26	1
124	125	5
151	151	3
2	2	1
47	47	11
53	65	4
49	50	1
101	127	1
69	69	7
62	66	4
107	107	3
104	137	3
61	61	1
45	57	1
154	154	4
48	48	6
75	98	1
9	35	3
127	134	3
127	127	2
79	80	1
116	117	1
34	35	1
123	129	2
11	15	2
41	53	1
81	92	3
46	46	2
87	93	2
51	51	4
138	152	1
14	16	1
105	105	4
86	87	1
10	10	3
108	109	2
28	29	2
124	124	1
96	96	5
97	98	2
68	93	2
71	71	8
53	53	2
102	102	4
123	124	1
2	3	1
119	122	2
7	9	8
4	22	1
104	117	1
116	119	2
74	74	2
7	149	1
141	142	2
128	129	3
69	132	2
109	110	1
66	66	2
112	113	2
132	133	3
83	84	2
121	122	2
41	41	1
128	136	3
125	126	1
82	121	1
65	65	1
144	147	2
93	95	3
84	86	1
144	148	1
122	134	1
42	44	1
45	46	1
22	23	2
77	77	4
118	119	1
38	40	1
72	97	1
46	48	2
96	97	2
17	19	1
33	33	1
131	131	3
72	73	3
56	57	1
82	126	1
120	122	1
65	66	3
100	101	1
21	66	2
12	13	1
106	107	1
76	77	1
77	78	1
3	23	1
38	38	2
94	96	1
117	119	1
47	48	1
4	143	1
112	112	1
107	110	1
55	57	1
42	46	1
10	33	2
75	76	1
130	130	1
77	98	1
6	7	1
115	120	2
106	119	2
149	152	1
17	18	1
67	68	1
99	102	2
95	95	1
63	65	1
71	152	1
106	110	1
78	79	1
6	145	1
5	5	1
92	92	1
51	52	1
71	153	1
72	75	1
131	132	1
136	145	1
3	3	1
31	37	1
