61	86	2
44	44	5
18	18	4
34	34	4
96	96	1
55	57	2
28	28	2
138	139	1
5	6	5
42	42	4
123	123	8
142	142	10
46	47	4
99	99	6
17	17	13
44	45	1
118	118	4
27	27	2
26	26	2
45	45	4
56	56	3
63	63	4
138	138	2
116	117	3
91	96	6
50	55	2
53	55	7
62	62	1
11	11	4
36	36	2
124	124	5
114	115	3
88	107	5
115	151	1
164	164	3
165	166	5
148	149	3
65	68	4
157	158	4
152	152	3
42	108	2
83	83	2
45	46	1
85	99	2
121	121	3
24	24	1
113	113	5
39	39	3
94	94	2
106	106	4
69	71	2
129	131	3
117	117	13
17	24	6
25	25	4
170	170	3
115	115	1
0	0	6
101	102	1
139	140	2
53	53	4
120	149	2
116	116	9
10	47	3
161	163	1
12	117	1
157	157	4
55	55	2
137	137	1
119	122	3
16	17	1
39	123	8
26	111	2
92	92	1
105	106	2
5	5	8
1	1	2
114	114	4
153	154	4
78	78	1
37	126	2
127	127	1
141	141	5
129	129	7
135	135	3
66	68	4
122	122	2
139	145	1
149	149	2
39	41	1
91	97	5
43	43	3
81	81	1
37	37	2
35	35	1
94	105	1
160	161	3
65	65	1
17	18	1
89	90	1
78	81	2
114	128	2
6	6	2
86	86	2
40	40	2
74	76	2
8	8	1
41	42	1
121	128	1
137	140	5
13	123	2
5	11	3
71	71	3
131	131	1
132	152	3
144	144	5
19	23	1
122	127	3
133	133	6
139	139	6
11	12	1
44	49	1
9	9	1
137	138	2
2	2	4
109	109	1
119	119	4
134	135	2
85	86	2
101	101	3
14	15	4
153	153	1
140	140	1
20	20	4
3	11	3
39	85	2
108	108	3
162	165	2
76	76	2
52	52	3
151	151	4
50	50	2
124	126	1
90	90	1
72	72	3
93	94	3
154	170	1
117	118	2
147	147	6
86	100	2
163	163	3
22	23	2
138	150	2
139	157	2
140	159	1
15	15	2
91	91	1
8	47	2
69	69	1
84	86	2
18	19	2
120	147	1
5	12	1
66	66	1
164	165	1
7	7	3
125	125	1
20	24	1
107	107	2
130	130	1
79	79	1
117	121	1
13	13	2
46	49	2
100	100	3
57	57	1
23	23	2
69	70	2
10	10	2
4	4	1
155	155	5
21	111	1
64	71	1
127	129	1
70	70	7
1	144	2
135	141	1
159	159	1
56	57	1
33	34	1
73	75	2
15	42	1
75	83	1
169	170	1
129	149	1
143	143	4
150	150	1
108	110	1
126	126	1
80	80	2
147	148	1
41	85	1
95	97	1
128	128	1
153	169	1
95	95	1
120	120	1
6	7	1
