135	135	12
184	184	6
136	136	12
166	198	3
111	111	3
191	191	5
153	153	13
23	23	9
48	48	11
78	79	1
228	228	8
47	48	2
75	76	2
69	69	11
114	116	2
207	207	3
15	15	9
203	204	4
65	65	6
159	159	19
178	178	7
19	19	7
120	120	9
237	237	10
81	82	1
75	75	11
86	86	8
32	46	6
28	30	4
225	225	6
232	232	5
192	193	8
107	108	2
74	74	3
181	181	4
85	85	6
37	38	8
117	119	2
30	30	3
102	106	2
27	27	12
222	222	15
179	195	2
140	163	1
82	82	7
139	139	7
4	4	5
140	143	5
151	151	10
20	20	3
0	0	5
0	2	5
155	155	3
66	66	3
70	70	8
226	227	3
218	218	13
131	131	11
227	227	13
105	105	6
150	150	5
189	189	3
153	154	1
225	228	2
112	112	3
239	239	11
68	68	5
103	103	4
205	205	7
173	173	13
204	222	1
219	219	6
181	184	2
163	194	1
27	30	2
38	38	8
84	84	3
172	172	7
11	11	13
102	102	20
124	127	2
63	173	4
77	77	10
88	88	4
154	156	3
67	67	10
196	197	2
18	20	2
8	9	8
24	24	5
209	209	3
212	212	6
208	208	9
32	32	19
71	71	10
234	234	8
72	72	9
162	162	2
138	147	4
59	59	2
66	68	2
158	158	5
220	221	4
129	129	10
69	70	4
37	37	7
118	118	3
115	115	3
25	25	6
11	15	3
184	185	5
122	122	7
98	99	4
44	44	9
164	164	14
175	175	4
233	233	4
242	242	5
193	195	4
183	183	11
169	169	4
42	42	11
28	28	2
134	150	3
63	64	7
136	137	4
141	141	4
228	235	2
236	237	5
55	55	3
22	23	4
202	218	5
221	222	5
161	161	5
157	157	7
79	79	4
46	47	5
176	176	2
39	39	5
157	216	1
3	3	6
116	116	7
54	55	2
139	170	1
192	192	4
136	138	2
85	86	4
144	149	8
98	98	8
182	182	5
145	160	2
25	26	1
206	206	5
110	110	1
158	159	2
99	99	10
1	3	2
71	73	3
52	52	3
214	215	2
166	166	9
229	229	9
86	99	1
140	142	3
2	2	4
56	56	4
108	108	5
232	233	2
17	17	8
60	60	1
21	21	3
164	196	3
26	26	5
217	217	7
213	216	1
160	160	9
22	22	5
177	177	6
54	84	1
47	47	5
53	61	4
187	187	4
2	6	2
169	192	1
7	8	6
64	65	6
142	142	3
66	69	4
155	161	3
43	43	3
137	138	2
76	77	1
107	124	4
190	217	2
144	147	2
133	134	4
222	223	6
221	221	7
128	128	5
123	123	2
120	121	4
106	113	3
104	105	2
204	224	1
171	171	4
39	48	2
8	8	8
167	167	10
127	127	3
220	220	7
241	242	3
152	152	3
117	117	3
119	120	4
231	231	12
211	213	2
149	149	5
51	52	3
141	142	2
233	235	2
202	203	2
154	154	2
64	64	7
163	163	3
79	84	3
236	236	4
28	29	1
240	240	9
46	46	9
76	76	6
12	12	6
200	200	7
146	146	6
36	36	2
69	131	3
121	121	8
31	31	7
10	10	4
40	40	7
198	198	10
49	50	3
35	35	3
45	45	2
61	63	3
168	168	4
111	113	1
1	1	1
207	217	3
150	151	4
78	78	3
68	69	3
77	79	2
140	140	3
77	84	2
154	155	3
201	201	10
235	235	4
139	140	2
125	125	6
61	61	1
143	147	3
174	174	1
53	53	7
177	178	1
56	84	1
45	46	1
203	203	8
16	17	1
201	237	1
123	124	2
50	51	1
107	107	7
183	200	1
63	63	7
126	126	6
78	98	1
204	204	4
240	241	2
14	15	4
20	21	4
96	96	2
126	127	6
134	135	3
223	223	2
213	213	9
151	174	1
138	180	1
131	135	2
161	178	3
207	208	5
235	236	3
58	58	3
6	6	3
206	208	1
217	218	2
0	1	2
165	165	2
7	41	3
170	170	1
197	197	3
29	29	6
29	30	5
31	46	3
137	168	2
21	23	3
139	169	2
108	109	1
189	190	5
205	206	4
44	45	3
89	113	2
17	39	2
160	179	1
77	78	1
6	7	1
175	177	2
17	36	2
62	62	8
16	35	6
57	57	3
165	198	2
156	160	3
57	58	2
129	130	1
225	226	2
124	124	3
137	137	3
0	19	3
202	219	4
224	226	1
160	161	2
106	112	1
124	125	1
73	73	3
36	38	3
149	150	2
138	138	4
103	104	1
26	27	3
208	209	1
230	231	1
182	202	2
66	67	2
172	173	2
112	113	1
180	180	4
18	18	8
5	8	1
157	178	1
206	207	2
238	239	2
170	171	2
207	209	2
232	235	2
147	148	1
143	144	1
215	215	5
191	214	1
241	241	4
54	58	1
135	136	1
9	9	5
13	14	2
230	237	1
125	126	3
224	224	4
130	130	4
139	142	1
106	106	3
54	54	2
195	195	1
215	216	3
179	179	1
171	175	2
41	41	1
144	144	2
103	105	3
224	228	3
118	119	3
101	101	2
216	216	2
214	214	4
60	64	1
199	199	2
153	158	1
14	14	3
88	89	2
85	99	1
157	158	1
9	10	1
210	211	1
177	214	1
156	156	1
203	223	2
114	117	1
113	113	2
196	196	1
187	189	4
188	190	3
21	22	4
184	200	2
2	3	1
81	84	1
5	6	4
12	15	1
184	199	2
176	177	2
238	238	2
30	31	1
208	210	1
39	47	1
191	192	2
109	115	2
19	20	1
4	6	2
201	202	1
190	190	2
212	213	1
199	225	1
145	180	1
60	63	1
169	180	2
96	97	1
162	178	1
133	133	2
187	190	1
81	83	1
36	37	1
97	97	5
67	68	2
147	147	1
148	148	1
41	42	2
53	56	1
100	100	1
29	32	2
211	211	1
104	104	1
171	172	2
84	86	1
20	40	1
7	9	1
200	201	2
186	187	1
151	152	1
152	153	2
166	167	1
197	198	1
108	110	1
188	188	1
47	49	2
217	220	1
39	136	4
175	217	1
114	114	1
18	19	1
156	157	1
140	141	1
84	85	1
86	130	1
39	45	2
137	139	2
201	224	2
160	178	1
138	139	1
142	145	1
234	235	1
49	49	3
182	199	1
186	186	1
178	179	1
3	9	1
3	40	1
95	95	1
13	13	1
187	192	1
