16	16	5
142	142	14
45	93	2
55	56	2
105	105	7
112	112	6
47	47	2
126	126	2
6	6	1
62	64	1
10	11	2
25	25	7
64	64	5
21	21	6
144	144	9
3	16	1
85	101	3
143	143	7
46	65	2
129	129	7
20	37	6
83	83	5
119	140	1
109	152	2
98	98	3
53	53	6
85	85	4
31	31	7
38	39	4
116	116	11
86	86	7
141	142	1
12	20	4
97	97	2
43	43	2
98	100	7
48	48	6
21	42	1
87	87	2
109	110	1
125	145	5
103	103	6
124	144	3
128	130	4
29	29	5
46	46	2
88	99	4
122	123	4
87	104	1
120	120	2
30	30	11
24	24	4
22	22	4
5	36	2
36	37	4
108	108	4
133	133	5
44	44	5
9	9	7
48	65	3
100	104	3
130	132	5
137	137	6
11	11	7
72	72	4
24	41	3
39	44	1
12	12	3
110	111	2
29	47	2
72	93	5
42	42	4
87	116	1
26	26	3
131	146	2
120	143	2
139	139	5
118	118	3
42	43	3
58	62	2
79	79	6
75	75	3
104	104	2
95	96	2
138	138	2
31	32	2
107	120	2
73	93	3
147	148	6
20	20	8
138	140	1
94	107	2
151	151	3
27	27	5
65	65	3
136	136	3
61	61	2
81	98	4
131	132	3
62	99	3
95	122	2
111	111	5
113	114	5
94	98	1
103	111	7
92	103	1
3	15	2
117	121	2
129	146	2
96	133	3
117	126	2
57	57	5
153	153	3
9	25	2
7	16	4
14	14	4
63	99	2
50	50	8
78	78	5
66	81	1
12	19	2
144	148	2
61	65	2
105	116	1
76	77	2
9	24	2
36	56	2
8	16	6
19	19	9
86	122	2
149	149	14
110	110	2
21	23	2
81	82	3
69	69	6
127	127	2
62	63	3
7	7	6
129	130	8
123	123	4
92	116	2
125	150	3
4	4	2
15	15	2
67	68	2
25	29	2
78	79	1
119	119	5
17	31	1
73	73	1
23	23	1
41	41	5
94	96	4
90	112	1
24	25	2
77	77	3
75	83	1
111	115	1
88	88	6
76	76	8
11	12	5
33	33	2
69	86	1
138	139	2
117	117	3
74	75	4
20	21	1
77	82	2
135	135	3
51	56	2
71	101	1
71	84	1
109	109	3
76	95	1
40	40	5
95	95	4
92	108	2
18	18	6
114	114	4
146	146	2
67	73	1
106	133	1
125	137	1
101	101	2
58	58	6
13	13	3
25	43	1
44	45	1
55	55	4
7	10	6
37	37	8
56	56	5
70	70	3
75	76	5
88	124	3
45	46	4
109	134	2
51	65	2
121	147	3
120	133	1
125	125	3
11	35	3
81	99	2
122	136	2
74	74	1
63	63	2
66	66	2
68	69	1
92	92	2
121	142	2
128	128	3
50	67	3
63	66	2
12	15	1
79	104	2
125	126	1
124	127	1
6	26	3
128	129	3
24	46	2
117	138	2
56	57	2
134	139	1
25	51	1
139	142	1
14	44	2
77	86	1
94	141	1
40	57	1
67	67	4
93	93	2
93	94	2
50	68	1
84	106	6
34	37	2
80	99	1
78	83	1
124	138	2
24	43	2
38	57	3
39	40	1
49	71	2
72	74	2
115	123	1
136	137	2
45	73	2
147	147	2
51	51	4
113	113	3
20	47	5
49	49	4
41	42	2
86	87	3
35	69	1
122	145	1
48	62	2
119	121	1
34	35	1
51	52	2
100	100	4
83	84	1
113	131	1
99	114	1
69	70	1
22	23	2
122	137	1
32	43	2
63	65	2
11	33	1
121	121	1
148	148	2
132	154	1
8	43	1
104	105	1
4	6	1
132	148	1
45	48	1
132	132	1
94	118	1
66	98	1
124	124	2
92	128	2
27	29	1
39	39	1
152	152	1
9	10	1
71	96	1
30	48	2
112	145	1
122	146	1
106	106	3
105	132	1
124	137	1
82	83	2
115	115	2
5	5	1
32	32	1
24	26	1
17	17	1
105	137	1
50	51	2
36	39	2
135	140	2
77	83	1
25	27	3
125	152	1
97	98	1
11	32	1
28	28	2
68	81	1
83	104	1
36	36	1
48	49	1
5	33	1
94	115	1
106	110	1
115	144	1
3	12	1
85	88	1
10	135	1
68	68	1
68	73	2
3	3	1
131	131	1
142	151	1
120	128	1
145	151	1
146	148	1
45	45	1
5	31	1
108	118	1
10	40	1
38	38	1
140	149	1
152	153	1
52	64	1
