74	74	7
153	153	1
141	167	3
29	30	5
175	179	1
160	160	9
9	9	5
70	71	2
53	53	8
84	84	6
118	118	9
100	101	3
171	173	3
116	116	7
229	229	4
140	143	9
25	25	3
42	42	4
209	209	5
19	28	1
201	202	1
227	227	6
55	55	3
207	218	2
112	113	2
8	27	1
51	53	4
180	182	8
37	63	2
14	14	14
29	35	1
22	22	6
202	202	6
17	17	7
37	38	2
60	74	1
125	125	8
100	100	6
232	236	4
48	48	3
36	36	4
184	186	4
134	134	12
138	139	5
152	152	8
103	107	5
108	108	7
221	221	5
217	217	7
57	57	6
62	62	7
97	98	1
161	161	11
124	124	2
40	41	5
156	158	5
182	203	1
18	19	2
85	85	3
103	103	9
3	75	1
4	4	9
172	172	9
46	46	3
208	208	8
208	217	5
0	2	1
152	226	2
20	20	9
73	78	1
128	128	7
150	153	2
153	154	3
176	176	1
230	230	4
61	61	6
149	150	1
239	242	1
149	149	5
210	211	5
236	238	2
4	5	7
30	36	4
171	171	5
187	187	6
174	178	1
216	216	11
102	102	3
65	65	3
76	78	2
168	168	6
177	177	7
200	200	3
40	40	4
35	35	3
81	81	6
69	69	2
154	154	3
236	236	6
118	120	2
136	136	1
121	121	1
114	114	3
238	238	6
178	178	6
144	145	1
135	136	7
185	187	1
219	220	2
24	24	4
81	84	2
231	231	10
181	182	5
167	167	3
23	37	1
206	206	4
190	227	1
192	242	7
130	130	2
7	35	2
60	60	7
180	180	9
189	190	4
175	175	4
188	188	8
197	197	4
158	158	3
233	234	5
47	47	4
1	1	8
95	95	2
221	222	6
157	228	4
30	31	3
42	43	4
12	12	5
183	183	9
18	20	1
106	106	5
6	6	4
155	228	2
109	109	3
241	241	4
152	153	7
190	190	2
144	144	9
82	83	4
138	141	1
153	164	4
58	60	1
220	220	2
67	67	3
4	60	1
7	7	5
32	32	5
84	85	1
156	174	1
203	203	4
127	127	2
104	105	1
217	219	1
163	166	2
8	34	1
226	229	2
215	230	3
211	211	7
205	206	4
194	194	3
151	187	3
198	199	2
181	181	4
120	120	6
185	202	3
88	88	1
233	233	6
237	237	7
222	222	7
157	157	7
195	195	6
239	239	1
52	52	9
165	166	4
13	13	4
98	98	4
70	70	8
71	71	4
20	21	1
186	186	4
78	157	2
10	10	4
49	50	2
107	107	7
146	146	11
183	226	4
228	229	3
156	157	3
184	200	2
148	151	3
8	8	9
21	21	4
214	214	6
235	235	4
80	80	6
34	35	1
113	113	5
174	174	4
148	168	4
148	149	1
41	43	1
225	225	4
234	234	4
155	157	3
3	3	2
142	142	2
226	227	1
63	63	3
147	148	3
114	115	2
96	106	3
212	212	3
207	207	2
2	2	4
151	154	5
127	128	1
104	117	3
172	173	2
78	78	3
82	84	2
140	140	3
214	215	5
39	39	2
199	200	3
139	140	1
72	72	1
68	68	2
1	79	2
210	210	4
143	143	8
63	64	2
44	44	1
232	232	5
170	172	1
59	59	7
204	205	1
18	18	3
239	240	5
191	191	8
5	5	3
6	59	2
56	56	4
72	80	2
137	138	2
2	3	1
129	130	2
51	52	2
42	65	2
242	242	5
76	76	1
145	145	3
101	101	4
77	77	3
44	113	2
7	29	3
169	170	4
12	13	2
25	38	2
138	138	4
189	206	1
176	182	3
161	165	1
51	54	1
148	148	2
154	164	1
79	220	1
156	156	6
102	105	1
115	115	3
133	133	3
123	123	3
173	174	3
166	166	2
34	34	4
191	217	2
26	26	3
59	60	3
137	137	3
135	135	4
65	67	1
179	180	1
123	135	2
16	16	5
125	126	3
204	204	3
143	144	2
27	27	4
159	160	2
163	163	10
110	110	1
187	189	2
55	57	1
15	15	5
52	55	1
32	33	1
155	155	3
232	239	3
45	45	3
144	146	1
60	76	1
24	28	1
140	142	2
158	159	2
192	192	2
124	125	3
5	6	3
159	162	2
19	19	4
139	142	5
23	24	2
14	15	4
193	194	2
207	217	4
30	52	3
49	49	4
231	238	2
99	176	2
134	135	5
217	218	4
151	151	6
11	11	2
179	179	2
128	129	2
126	127	2
183	184	3
173	175	2
196	196	4
146	164	2
164	165	1
215	215	1
149	164	1
201	201	1
29	29	1
50	62	1
190	193	2
103	105	2
240	242	1
172	175	1
207	208	4
83	83	2
2	4	3
228	228	5
20	23	1
31	34	2
79	80	1
224	237	3
141	141	3
23	23	1
41	42	1
163	167	2
105	120	1
224	224	1
193	215	2
126	126	2
208	218	1
22	23	1
25	37	1
77	221	2
164	164	1
170	170	2
122	122	2
131	133	2
117	117	3
9	11	1
77	78	2
133	134	1
186	187	2
54	54	1
240	240	1
165	165	3
231	237	2
52	53	2
142	143	1
192	195	1
154	155	1
188	197	1
235	239	2
37	37	2
192	203	2
98	99	1
188	189	1
182	204	2
2	23	1
185	186	1
193	193	4
11	13	1
44	46	1
24	36	3
216	230	3
218	218	2
73	73	1
151	152	1
219	219	2
148	179	3
64	65	2
190	191	1
216	229	1
159	159	1
42	116	1
144	168	1
114	132	1
147	149	3
199	199	1
64	64	1
145	166	2
166	167	1
189	189	2
212	213	1
169	169	1
184	185	1
162	162	1
230	231	1
147	165	1
194	209	1
230	236	1
185	185	1
74	75	1
97	99	1
147	147	1
223	229	1
50	50	1
119	119	1
114	119	2
5	59	1
43	44	1
145	146	1
11	33	1
131	131	1
