75	75	5
119	120	1
121	121	5
132	133	2
67	68	2
118	118	5
47	47	2
136	137	1
110	114	4
89	89	9
81	81	2
69	69	3
119	119	4
78	91	5
74	74	9
9	56	1
52	54	2
68	70	5
72	77	4
137	138	1
73	75	1
56	56	2
72	73	1
93	93	6
105	105	5
129	129	8
26	26	5
4	34	2
35	36	2
125	125	4
1	2	1
90	90	3
81	134	2
73	73	10
70	75	5
2	2	5
27	28	2
55	56	3
34	36	5
85	85	4
93	94	2
118	119	3
31	31	4
61	61	5
13	17	2
115	115	5
82	136	1
49	49	6
91	91	10
1	25	3
58	58	9
102	140	4
119	129	3
4	4	5
110	110	3
128	129	4
132	132	3
54	54	7
8	33	1
128	128	5
56	57	1
130	130	6
9	10	1
35	38	4
23	41	1
72	119	1
122	122	4
19	20	6
1	34	2
135	137	1
87	88	1
110	120	1
17	17	2
53	54	5
131	131	8
116	125	6
133	133	2
111	111	4
103	104	1
77	99	1
101	101	1
94	94	5
32	32	4
138	138	10
114	114	3
20	20	3
12	24	2
108	110	4
49	54	2
73	74	4
70	72	2
76	78	4
36	36	3
88	88	7
27	27	7
80	80	1
76	77	2
105	133	2
67	67	3
89	93	1
123	123	10
13	24	1
81	82	3
62	62	6
75	100	2
128	131	2
84	84	1
34	34	4
40	55	1
39	40	2
42	42	3
48	70	1
109	110	1
24	24	5
40	41	3
105	108	1
20	21	3
82	95	4
127	127	9
63	63	12
10	58	1
116	116	4
11	11	2
101	102	5
82	82	6
105	107	2
103	103	2
16	17	2
70	71	5
120	129	1
30	30	4
104	108	1
9	9	2
96	96	4
131	132	1
29	30	1
72	72	6
4	14	1
13	13	1
50	51	3
126	126	6
134	135	2
15	17	1
79	79	1
21	21	4
27	31	3
30	32	1
59	59	2
3	3	5
117	121	1
42	55	1
65	92	2
22	22	3
130	132	1
21	24	2
139	139	6
87	87	2
112	131	2
132	140	2
4	6	2
48	48	4
32	33	3
8	39	1
18	28	1
95	95	2
141	141	5
38	38	5
113	114	1
100	100	4
69	71	1
21	36	1
142	142	3
130	131	4
64	72	1
99	99	5
8	8	4
135	139	3
50	52	1
12	23	1
75	119	2
3	6	1
91	97	2
62	76	4
98	144	1
41	56	1
47	48	2
116	117	3
21	26	1
50	50	6
36	39	3
92	94	2
42	59	2
23	23	7
144	144	1
2	35	1
60	60	4
60	62	2
54	63	4
68	92	1
61	62	1
10	10	1
34	35	1
101	120	1
64	65	2
35	47	2
78	87	1
66	125	1
51	51	3
89	90	1
104	115	1
4	8	1
54	80	2
68	68	4
119	126	3
57	57	1
18	19	4
16	16	1
18	20	1
35	35	1
10	11	1
99	100	1
54	107	1
57	62	1
127	133	1
47	50	1
12	12	4
28	29	2
119	128	1
26	27	3
47	83	1
62	63	1
77	120	2
140	140	2
43	61	1
92	92	1
5	18	2
134	134	3
5	5	2
84	85	2
25	25	2
120	121	4
98	99	1
73	77	1
1	13	2
102	102	3
90	142	2
18	18	2
81	108	1
6	6	1
124	124	1
135	135	1
137	137	1
28	28	2
2	3	1
41	55	2
65	65	3
113	126	3
65	103	1
110	111	2
66	67	1
63	105	1
142	143	1
70	70	1
78	78	1
13	51	1
131	133	1
47	49	2
71	71	4
91	92	1
15	15	4
109	109	2
53	55	1
37	38	2
2	34	2
10	64	1
55	55	1
0	0	1
113	113	3
104	104	1
118	120	1
54	55	2
42	108	1
116	134	1
72	120	1
136	136	1
118	121	1
111	120	1
2	24	1
109	127	1
14	34	1
108	108	1
71	99	1
63	94	2
21	25	1
48	49	1
40	40	2
91	143	1
107	107	1
106	106	1
52	52	1
127	128	1
29	76	1
18	27	1
24	39	1
66	126	1
