27	32	4
175	177	2
123	123	3
79	79	8
139	139	4
37	38	6
1	10	4
140	141	5
99	105	2
152	154	8
9	9	7
1	26	2
38	38	2
35	35	2
44	97	3
160	160	3
99	108	3
123	129	4
32	32	6
73	111	2
120	121	3
142	145	1
31	32	6
161	161	1
39	58	3
16	17	4
6	7	2
121	125	4
169	170	4
54	55	6
128	138	2
156	161	3
43	44	2
174	174	3
147	155	1
159	159	8
80	80	2
11	35	1
42	43	5
0	21	4
10	10	5
140	174	2
55	55	8
38	40	2
123	158	2
118	135	1
26	33	1
53	53	4
7	12	1
140	175	6
89	95	3
161	172	3
65	71	5
141	168	6
18	19	1
110	110	3
37	37	1
3	10	2
144	146	1
158	164	4
153	160	4
147	147	4
10	33	2
27	29	6
7	34	1
11	30	2
1	6	2
24	28	4
72	88	1
8	8	3
67	67	5
87	88	2
142	152	4
79	86	2
137	138	1
98	98	2
16	27	1
92	113	2
178	180	1
125	132	1
153	156	2
40	40	4
133	140	4
54	57	3
136	138	5
151	151	2
156	156	1
126	128	2
19	24	1
159	177	1
160	162	2
43	45	1
45	46	2
170	170	4
121	123	2
29	29	1
13	29	1
67	95	6
127	148	1
141	150	1
86	173	2
176	176	5
168	169	8
75	78	5
56	76	2
168	168	2
117	148	6
16	16	3
166	167	2
123	127	2
2	23	5
74	89	1
31	31	4
50	53	4
171	178	9
4	7	5
38	43	3
8	100	3
88	88	4
150	157	1
140	140	4
10	14	1
97	113	2
6	12	2
3	4	4
164	164	7
71	101	4
87	87	5
89	102	4
134	138	1
36	38	3
103	104	3
4	4	8
166	171	4
5	5	10
76	90	2
110	179	2
26	27	4
162	162	5
31	73	2
125	125	1
96	97	2
19	21	4
165	166	6
13	15	3
122	128	2
127	128	4
145	145	4
157	165	5
40	51	5
126	127	7
40	44	1
0	13	2
105	123	4
128	132	3
38	46	3
58	78	1
119	119	2
76	76	5
172	176	3
86	87	8
135	136	4
72	75	4
74	83	3
50	50	2
113	113	5
112	118	2
11	11	1
62	62	7
64	64	1
68	76	2
63	96	1
49	56	1
127	137	3
124	124	1
115	117	2
110	122	2
7	9	3
0	10	3
127	154	4
35	38	5
134	135	2
80	81	1
19	26	3
62	63	1
66	75	1
39	76	3
72	72	5
126	146	3
119	139	2
166	166	7
93	98	2
10	30	3
107	167	5
145	177	2
164	168	2
32	43	3
88	93	2
21	24	3
153	153	2
66	68	3
17	17	2
9	10	3
104	114	5
73	73	1
179	180	3
24	41	1
75	101	5
156	176	2
130	132	3
105	114	1
14	14	3
146	152	1
2	2	3
72	74	1
103	105	2
72	79	2
131	133	1
122	123	2
61	61	2
112	120	2
162	165	3
29	33	2
37	51	3
19	20	4
92	114	1
158	159	6
86	115	3
55	56	1
89	89	1
29	117	4
6	30	2
116	117	1
157	157	6
127	127	1
14	17	4
121	121	1
109	118	3
105	111	5
158	172	1
101	121	1
74	76	2
72	73	1
115	149	1
81	81	1
34	36	4
111	111	5
131	132	1
153	155	4
78	80	1
93	96	2
122	124	4
13	14	1
115	115	3
163	170	3
158	176	3
129	133	3
150	159	3
54	54	6
13	13	1
159	172	1
130	135	2
113	114	2
33	36	2
99	109	2
118	136	1
23	25	3
108	112	7
86	86	3
86	113	1
54	58	3
131	151	3
36	37	1
113	115	3
73	74	2
150	155	2
4	13	2
179	179	5
58	59	2
28	31	1
142	142	3
27	28	1
143	143	2
128	129	2
104	107	4
101	105	2
139	160	3
85	93	4
129	144	1
60	85	1
33	45	1
131	137	1
50	52	4
152	162	2
3	3	7
114	114	1
0	3	3
158	160	7
102	102	2
166	170	5
78	78	4
170	171	1
129	137	2
33	33	3
122	139	3
0	1	5
18	27	2
141	141	2
75	75	1
15	18	2
133	134	2
96	98	1
158	158	3
25	40	1
41	42	2
166	174	4
68	68	2
176	179	2
3	5	1
91	104	2
54	61	1
60	76	1
121	124	1
33	34	2
105	105	3
141	167	1
61	72	2
6	21	1
148	169	2
2	3	1
8	9	2
160	177	1
112	113	1
124	132	1
7	15	1
18	21	1
138	145	2
30	31	1
84	96	1
29	31	2
105	118	1
61	71	1
16	30	1
33	40	1
59	60	2
12	28	1
30	41	1
146	146	2
129	131	1
139	158	2
96	96	3
172	179	1
137	157	1
167	171	4
134	137	2
74	74	2
0	8	2
96	115	1
172	172	6
128	128	1
26	29	1
72	77	1
40	41	1
50	56	2
35	40	2
65	66	2
33	39	2
156	158	3
136	137	3
39	40	3
24	25	1
129	143	2
74	75	1
140	143	1
167	167	2
60	60	2
171	176	1
110	130	2
66	74	1
132	134	4
4	30	2
172	173	1
100	102	1
73	123	1
156	180	2
15	20	1
107	110	1
130	134	1
6	13	1
154	166	3
6	10	2
75	77	3
121	138	1
162	176	1
91	91	5
84	86	1
159	160	1
0	0	1
154	169	3
149	169	1
120	120	2
112	115	1
61	78	2
170	180	1
5	9	2
1	8	1
154	160	3
107	111	5
118	134	4
123	124	1
84	87	2
156	165	2
138	168	2
19	34	1
5	10	4
57	57	1
68	89	2
140	167	1
78	83	1
45	51	2
93	173	1
77	81	1
104	105	1
95	95	3
125	147	2
64	77	1
24	33	4
83	84	1
16	25	1
94	94	3
129	154	1
150	150	1
2	15	1
90	96	2
146	147	4
85	108	1
140	157	1
30	30	2
109	124	1
24	32	2
21	30	3
122	122	1
32	34	1
65	65	3
120	127	1
124	125	1
124	126	1
101	112	1
124	131	1
37	40	1
33	38	3
72	91	1
39	44	1
131	138	1
164	166	1
55	59	1
26	26	2
4	11	1
52	55	3
141	144	1
149	154	4
88	90	1
153	159	2
104	104	2
51	95	1
53	68	1
133	167	1
171	171	3
4	6	1
60	68	1
11	14	1
130	130	2
112	119	2
80	94	1
147	168	1
156	167	2
131	148	1
62	65	1
147	153	1
21	26	2
166	168	3
169	179	1
115	129	2
42	53	2
39	46	2
164	169	1
24	24	1
109	109	2
176	178	1
155	167	1
159	164	1
87	114	1
13	18	1
104	109	1
116	119	1
94	96	1
22	24	1
0	33	1
18	18	1
41	117	1
6	6	2
134	175	1
144	144	1
155	160	3
92	92	1
63	64	1
63	102	1
97	97	1
177	180	1
53	59	1
2	17	1
120	122	1
155	158	1
99	145	1
70	79	1
127	156	2
102	148	1
138	138	1
79	80	1
0	4	1
112	114	1
122	138	1
153	162	1
76	78	1
120	153	1
160	169	1
107	108	1
130	137	1
16	24	2
42	44	2
82	84	2
133	152	2
117	130	1
174	175	2
117	123	1
25	25	1
101	109	1
109	110	1
42	42	1
24	29	1
165	171	1
13	33	1
139	163	1
51	58	1
163	165	1
133	143	1
29	34	1
166	179	1
123	138	1
53	65	1
74	80	1
31	35	1
93	93	1
1	33	1
3	7	1
