139	140	3
192	192	14
113	114	2
78	79	4
135	135	3
30	31	3
220	220	5
151	151	5
15	15	7
81	81	12
103	106	1
7	8	2
123	123	9
236	236	10
104	104	6
41	41	4
58	59	6
37	38	2
5	7	1
140	140	7
61	61	4
202	202	17
66	68	1
239	239	9
77	77	3
95	122	6
39	40	8
206	206	7
200	200	9
144	179	3
85	85	8
8	13	2
11	11	12
116	116	6
158	158	12
207	207	17
118	119	2
141	195	4
190	238	1
160	160	5
200	201	3
119	119	7
198	198	13
115	115	13
8	8	4
229	229	5
151	203	2
80	80	5
110	127	2
98	98	7
182	183	7
50	50	10
128	128	3
148	148	9
138	141	7
190	233	3
56	56	8
22	33	2
106	106	7
234	235	8
155	159	1
21	21	9
88	124	2
54	54	3
179	179	6
208	208	14
151	205	1
161	161	14
238	238	7
101	147	5
222	231	6
144	144	14
65	65	7
58	183	4
64	64	2
24	170	2
205	205	9
17	17	7
48	49	15
158	163	5
27	27	5
178	178	12
210	210	15
220	221	3
3	9	7
133	133	5
115	116	3
15	41	1
219	220	1
22	22	13
144	145	3
228	228	9
157	157	7
136	136	9
126	126	2
108	109	3
231	231	11
18	128	3
101	101	7
221	221	9
159	159	3
76	76	10
39	39	8
43	43	9
239	241	1
202	203	2
124	138	4
12	12	16
72	72	9
15	16	4
142	142	5
20	37	2
222	230	2
27	144	2
24	24	3
59	61	2
32	32	8
76	79	2
110	110	1
168	168	2
30	30	19
80	84	4
217	218	4
37	37	5
133	135	3
167	167	5
180	180	7
74	171	7
177	177	11
71	72	5
9	9	9
162	165	4
153	153	7
137	141	6
197	197	9
183	183	12
99	99	11
233	234	6
149	150	11
120	169	2
241	241	14
100	212	2
120	120	12
51	51	5
185	185	5
102	197	1
173	173	9
2	4	1
174	174	4
128	129	2
170	170	3
20	20	10
118	169	1
71	71	8
49	50	6
139	205	1
209	211	3
213	217	2
14	14	9
242	242	5
14	15	4
189	189	5
139	172	2
137	137	18
101	105	2
114	116	2
179	180	5
137	138	1
62	63	7
182	182	13
36	36	2
194	194	6
230	231	10
199	200	2
10	10	13
237	237	9
168	170	6
42	231	1
21	22	2
166	166	6
103	121	5
74	75	2
84	84	5
12	14	1
173	175	1
147	148	3
149	149	4
188	189	4
125	125	2
238	239	2
106	211	3
45	63	4
70	71	3
72	73	3
184	184	4
78	78	2
44	53	5
221	223	6
122	139	2
29	29	7
205	206	6
212	212	15
219	219	7
115	164	1
15	17	2
139	233	2
134	135	2
82	83	4
109	109	5
176	176	11
22	23	6
51	53	2
68	68	7
100	100	8
181	181	4
199	199	6
194	220	4
121	122	1
207	208	4
51	52	2
46	46	14
63	63	8
108	145	5
38	220	1
138	138	11
216	216	2
159	160	2
69	70	3
98	121	1
141	141	4
2	5	5
223	224	3
121	121	8
145	146	7
64	242	3
139	139	3
118	118	4
194	195	3
55	55	7
8	85	3
75	75	9
23	24	4
214	214	5
175	177	2
134	134	9
218	218	9
58	58	4
105	105	3
235	239	3
238	241	2
102	199	2
147	147	4
122	122	5
100	211	5
131	131	5
179	187	1
177	178	4
25	25	12
47	170	4
3	3	4
42	75	4
234	234	11
67	67	14
47	47	11
217	217	13
42	42	2
48	48	7
186	186	4
0	19	2
108	108	3
203	203	2
2	3	2
164	164	3
113	146	3
66	66	5
192	219	1
225	225	10
43	45	2
58	60	1
158	159	5
80	81	2
171	171	12
227	228	1
45	46	4
195	196	2
102	118	3
18	78	3
28	71	1
132	133	3
212	213	6
14	58	1
107	108	7
39	232	2
196	219	3
190	191	4
113	113	7
232	233	2
60	62	2
82	82	2
165	166	2
211	211	6
38	38	9
189	190	4
10	109	3
174	175	9
159	164	2
13	13	1
60	60	8
49	49	5
40	55	1
28	217	1
233	233	3
96	96	1
26	28	3
0	6	2
110	211	1
112	112	5
195	195	6
116	117	4
204	205	1
124	124	1
16	16	9
44	45	3
12	31	1
213	213	9
75	76	5
19	107	3
62	73	1
240	240	7
88	123	6
148	213	1
71	73	1
215	215	5
153	154	2
178	196	3
152	152	4
187	187	8
214	215	6
65	68	1
216	223	2
62	62	10
70	70	4
183	184	2
105	106	2
190	190	10
188	188	2
175	175	5
50	51	5
18	19	4
40	40	5
191	191	5
56	62	1
60	66	1
127	127	5
172	172	8
227	227	12
130	130	1
111	111	5
175	178	1
57	57	3
232	232	4
224	224	3
7	33	2
11	32	2
55	63	1
148	149	3
12	81	2
122	144	1
230	230	10
73	240	5
170	171	3
74	74	5
59	59	5
203	204	6
34	34	3
173	177	2
60	229	2
47	169	1
196	196	4
109	144	2
86	86	10
19	20	4
149	178	3
151	204	1
218	219	1
178	238	1
64	68	2
172	173	2
27	28	5
10	11	1
146	196	3
180	240	1
20	21	1
201	201	3
87	89	6
171	172	3
33	79	3
7	34	2
117	117	6
158	162	4
81	83	1
174	176	1
201	203	2
156	156	5
168	197	2
118	200	3
31	31	4
162	162	2
114	115	2
163	163	4
229	230	2
53	53	4
61	62	3
169	169	7
226	227	6
170	172	2
150	150	6
225	226	1
100	150	1
103	124	1
41	227	2
54	55	5
201	202	4
18	18	2
88	88	2
210	211	2
34	79	3
187	188	6
127	128	2
97	97	4
38	39	3
79	79	1
138	139	4
148	157	2
157	158	2
102	102	5
4	4	3
16	46	4
139	149	2
48	50	2
28	28	2
114	114	4
20	216	5
145	145	4
106	128	3
222	222	6
0	128	1
195	197	2
33	33	1
19	19	3
222	229	1
140	142	1
208	209	3
146	195	1
166	178	1
182	184	1
191	233	2
24	28	4
164	201	1
3	34	3
11	15	1
109	110	3
86	99	2
192	196	1
69	69	4
123	146	2
19	216	1
112	113	1
3	15	1
2	2	2
142	195	1
120	121	3
46	47	3
26	26	4
235	235	4
85	86	1
168	180	1
15	40	1
24	25	5
173	174	2
41	226	2
235	236	1
18	45	3
209	209	3
204	204	3
159	161	1
95	123	1
23	23	2
177	239	1
156	157	2
51	63	2
153	157	1
64	65	2
53	54	3
45	45	2
43	62	1
34	36	1
9	84	1
115	117	1
20	35	1
7	9	1
162	163	1
160	200	2
152	153	2
196	197	2
9	15	1
223	223	2
146	146	2
225	227	2
44	44	6
32	76	1
198	199	3
225	228	1
73	73	2
85	87	1
128	179	2
29	32	1
55	56	1
122	123	1
184	185	1
17	46	1
105	111	1
35	35	4
25	37	1
20	23	1
42	55	1
8	97	1
122	146	1
68	69	1
3	78	1
103	103	1
64	69	1
15	33	2
63	239	1
26	242	1
127	129	2
196	224	2
38	74	1
5	5	1
143	143	1
65	229	2
84	85	1
148	177	1
226	226	2
231	232	1
196	216	1
169	179	1
141	143	2
183	187	1
161	165	1
176	201	1
192	193	1
154	154	2
150	151	1
2	17	1
153	158	3
85	99	1
107	125	1
20	30	1
5	6	1
239	240	2
193	194	2
91	92	1
144	178	1
172	177	1
119	168	1
140	149	1
167	196	1
12	30	1
232	242	1
96	97	2
103	126	1
71	240	1
63	189	1
106	123	1
167	197	1
110	112	1
32	33	2
0	0	1
158	160	1
169	171	1
9	85	1
67	68	1
115	192	1
8	32	1
103	168	1
16	55	1
102	168	2
103	146	1
0	1	1
10	26	1
180	182	1
103	200	1
209	212	1
