42	42	10
64	64	8
19	20	7
27	51	3
40	40	16
65	65	12
10	10	18
58	58	11
44	44	11
74	74	3
50	68	2
47	47	10
13	13	16
66	66	12
7	7	24
26	26	9
70	70	11
57	57	6
49	49	18
75	75	13
61	62	5
51	51	20
26	28	5
2	3	7
20	20	8
48	50	1
34	34	1
19	19	9
52	52	17
34	35	1
69	69	10
62	62	12
28	60	1
53	53	9
0	2	6
44	45	1
54	54	12
72	73	10
36	36	5
59	59	5
71	73	6
13	18	1
41	42	3
23	25	2
31	32	15
56	57	3
28	30	3
25	29	8
25	50	1
25	25	4
46	62	2
0	3	2
29	29	4
36	37	5
41	41	6
60	60	5
55	56	8
73	73	13
24	24	13
67	67	6
51	54	1
46	47	4
10	13	4
43	43	13
27	27	9
7	8	4
49	50	11
46	46	21
28	54	1
35	36	3
50	50	7
37	37	9
0	0	11
4	4	10
21	21	13
55	55	9
76	76	7
4	5	1
54	55	5
68	70	2
7	11	1
11	11	11
22	22	14
3	4	3
33	56	3
35	35	4
19	22	2
2	11	2
38	38	3
28	56	5
63	64	4
19	21	1
6	6	9
68	68	9
46	57	2
9	10	1
31	37	1
26	27	4
21	23	1
48	48	3
53	54	7
31	42	3
44	61	1
61	61	9
34	37	1
23	23	5
77	77	4
75	76	3
18	19	3
65	75	3
12	13	3
26	48	2
8	9	2
71	71	4
73	74	3
35	37	3
8	15	1
13	21	2
28	52	3
36	39	3
23	24	5
42	58	1
52	53	2
63	63	7
33	33	5
8	13	1
32	33	6
39	40	1
62	64	6
61	64	1
12	12	8
9	12	3
37	39	1
21	22	4
66	67	5
60	61	2
35	38	1
28	29	11
39	39	7
32	37	1
43	44	3
5	7	2
59	60	1
13	14	2
51	52	2
66	71	2
45	45	5
3	3	3
18	18	4
8	8	2
6	11	4
45	46	3
5	6	6
33	34	2
25	26	7
38	39	1
48	71	2
11	12	2
72	74	2
2	2	4
41	43	2
29	60	4
21	45	4
53	56	3
67	68	2
1	1	2
32	41	1
46	59	1
64	65	1
18	61	1
29	30	3
76	77	2
11	55	2
56	56	2
30	30	5
30	59	1
33	43	2
28	28	1
75	77	2
61	63	1
70	71	1
37	38	1
39	43	1
28	57	1
58	59	1
9	9	1
74	76	1
42	59	1
27	52	1
