99	99	9
109	111	3
88	88	2
31	31	2
87	87	4
39	40	5
78	78	5
31	35	2
45	45	3
103	103	6
36	47	3
55	55	2
58	59	1
102	103	9
97	97	3
41	73	3
34	41	2
47	48	2
46	47	4
77	79	3
42	42	3
20	20	5
104	104	3
83	83	9
104	105	1
30	30	4
35	35	3
54	55	5
91	112	4
96	96	5
39	39	4
76	81	6
109	112	3
98	98	6
87	105	1
62	62	6
24	31	1
40	48	3
70	70	1
107	112	3
89	90	1
33	34	2
88	105	2
70	87	1
92	99	3
24	25	3
68	68	5
111	111	4
19	23	4
94	94	5
47	77	1
64	81	2
57	57	3
28	52	4
107	107	3
77	77	2
105	106	3
77	95	1
94	108	2
33	33	5
106	110	3
87	90	4
72	72	7
20	34	1
39	52	5
52	52	1
79	79	2
49	49	2
60	75	1
76	76	3
83	85	5
105	105	4
97	113	3
70	107	1
105	107	2
69	70	4
25	25	3
84	84	4
23	33	5
32	32	1
21	34	1
89	89	3
29	46	1
69	71	4
20	21	2
81	81	4
78	90	2
63	76	1
89	109	1
84	112	2
95	95	1
25	26	1
44	53	1
76	80	1
28	28	3
80	81	4
22	29	2
106	106	2
86	86	2
109	109	4
61	61	1
28	29	2
85	85	3
43	45	2
112	112	1
79	88	2
28	31	2
85	86	2
73	73	1
113	114	2
28	105	2
44	44	1
71	71	1
60	74	2
60	60	2
33	48	3
74	74	3
67	67	1
23	29	2
96	100	5
56	56	6
97	98	1
60	90	1
76	106	1
40	40	3
38	38	1
69	69	1
64	66	2
44	45	1
82	82	1
82	85	4
85	100	2
43	46	1
87	88	1
40	71	3
114	114	2
26	48	1
102	102	1
91	91	1
59	59	1
57	62	1
19	41	1
48	48	1
49	89	2
78	102	1
26	26	2
74	75	1
101	103	1
91	102	1
62	89	1
22	22	1
40	49	1
28	80	1
89	112	1
58	89	1
56	57	1
112	113	1
57	65	2
50	92	1
76	90	2
93	93	1
59	81	2
24	24	1
54	54	3
78	82	2
35	36	1
20	41	2
40	52	1
43	47	1
71	99	1
49	52	1
108	108	1
33	50	1
44	55	3
94	109	1
54	56	1
56	76	1
32	34	1
103	113	1
43	57	1
36	49	1
51	74	1
54	64	1
76	79	1
24	26	2
40	55	1
104	110	1
38	54	1
