28	29	4
21	21	9
208	208	9
13	15	4
230	231	3
8	8	3
217	217	7
139	139	2
205	205	3
158	159	3
100	171	2
20	217	1
126	126	2
88	88	4
124	163	2
147	148	2
242	242	5
156	156	5
182	182	7
115	115	7
27	27	7
0	15	2
121	122	7
70	70	9
143	143	11
156	158	2
120	120	5
102	102	9
61	62	2
212	214	1
62	62	2
159	159	6
195	196	2
53	53	5
188	188	9
221	221	11
225	225	13
221	222	3
238	238	3
16	16	11
58	58	8
78	78	5
38	38	6
105	105	7
121	121	5
5	5	3
229	229	7
10	99	4
138	138	5
77	77	2
164	164	11
129	130	1
83	83	3
128	128	9
214	230	2
210	212	4
154	154	10
171	171	7
234	235	4
55	55	10
185	186	7
195	195	7
174	175	2
114	114	4
42	42	9
228	228	6
47	242	1
96	153	2
101	101	6
3	6	1
106	106	3
28	28	5
189	191	2
144	144	6
117	117	7
214	216	1
13	13	9
76	76	2
165	165	10
144	146	4
59	59	6
18	18	3
66	66	11
184	184	6
49	49	6
56	56	9
154	155	3
26	27	1
61	61	5
147	149	4
55	95	4
14	14	4
236	236	7
163	163	9
191	191	4
172	173	2
203	203	10
96	96	3
201	202	1
98	98	4
144	145	2
178	178	6
196	196	5
1	9	2
20	20	8
15	15	9
37	86	4
231	231	5
54	76	1
42	118	2
50	51	4
145	146	1
17	17	6
136	136	5
37	37	6
197	198	1
54	54	2
122	127	4
107	108	4
129	129	4
153	153	8
76	77	2
1	1	2
36	36	5
130	209	2
45	45	4
18	20	2
14	15	2
224	224	10
153	154	2
74	74	10
43	43	2
52	53	2
100	100	1
32	33	2
81	81	8
11	12	2
173	173	5
25	25	3
150	150	6
88	121	2
21	67	1
146	146	11
20	21	12
189	189	6
10	10	9
197	197	9
237	239	3
32	32	6
22	77	1
60	60	1
157	164	2
165	168	1
3	3	4
215	235	3
133	134	7
164	165	3
217	220	1
63	96	1
146	147	7
23	24	3
105	165	2
11	15	2
139	143	1
231	232	2
204	205	1
42	43	6
187	187	5
181	182	3
40	40	4
64	64	5
172	172	7
227	227	6
188	189	4
223	224	1
123	169	1
98	237	4
170	171	2
177	193	3
158	158	3
210	210	5
208	213	3
223	223	5
43	44	4
100	101	4
71	72	2
235	235	2
4	4	4
95	95	3
149	149	5
150	152	1
169	180	4
103	104	6
0	1	2
47	47	9
58	59	4
1	237	1
33	33	3
199	200	4
232	232	5
194	195	1
89	89	1
125	126	2
169	169	2
160	161	2
192	201	2
40	41	3
178	179	1
118	135	3
12	12	4
162	163	7
106	180	2
214	215	3
75	75	2
176	177	3
113	114	1
140	140	2
232	233	1
187	209	1
143	145	1
187	188	1
228	229	2
200	200	3
192	193	3
99	233	6
134	134	2
239	240	3
18	221	1
157	157	6
173	174	1
189	190	8
44	45	2
5	6	2
11	106	1
41	117	1
190	190	2
151	152	2
215	216	1
141	141	1
116	117	1
97	97	9
9	224	4
186	186	8
49	53	3
88	115	1
108	109	1
222	222	13
140	142	2
84	84	7
122	168	5
35	35	6
123	123	4
151	151	6
122	178	2
142	142	4
66	68	3
212	237	2
51	51	7
68	69	4
213	221	1
122	169	3
19	20	2
40	69	2
68	71	1
211	215	2
159	184	4
130	130	3
17	19	2
155	155	4
29	61	2
233	234	3
65	65	4
114	116	1
117	119	1
226	226	3
57	57	3
60	61	1
2	2	3
166	167	1
226	227	5
51	73	5
80	80	9
34	79	1
81	82	4
9	10	2
169	170	4
2	3	2
31	31	2
132	133	1
47	48	6
130	131	1
62	63	2
107	107	3
48	48	1
137	147	1
176	176	3
7	7	1
167	168	1
113	113	3
83	84	15
41	77	2
43	75	1
24	24	3
194	194	4
209	209	3
180	181	1
39	39	6
213	213	4
218	218	8
206	206	3
15	218	3
237	237	5
49	50	1
88	134	2
216	216	7
89	105	3
118	118	9
119	119	3
116	116	1
104	105	1
57	58	2
108	108	3
52	52	1
188	191	2
2	4	4
177	177	6
198	226	1
86	86	7
239	239	3
162	226	3
135	136	2
18	22	1
3	12	1
191	225	2
171	173	2
179	179	9
222	223	1
167	167	1
201	201	4
193	201	1
118	121	3
67	68	1
112	112	1
174	174	3
58	80	1
29	29	6
210	211	1
101	102	3
44	46	3
80	81	1
219	219	5
212	213	3
138	139	5
50	50	4
227	228	2
98	99	2
19	19	4
97	192	2
212	218	1
158	163	2
183	183	2
153	207	1
170	228	1
30	30	1
104	104	4
207	207	2
15	223	2
71	73	3
141	215	1
22	22	2
76	78	1
54	63	1
148	148	4
220	220	2
58	60	1
200	201	1
104	166	2
99	100	1
198	198	4
212	236	1
11	11	4
27	97	2
124	124	4
194	196	2
224	225	2
73	73	3
147	147	2
211	211	5
128	129	1
181	183	4
186	187	1
157	158	1
133	133	1
9	9	1
8	238	5
204	204	1
37	38	1
36	38	2
220	221	2
216	218	1
47	50	3
184	185	1
33	34	2
69	69	5
53	54	2
138	142	2
131	175	1
48	50	3
82	82	2
18	140	1
41	41	2
2	6	3
185	185	1
44	44	1
215	215	2
0	3	1
160	186	1
168	197	1
168	168	7
192	192	1
45	80	1
193	193	1
86	151	1
127	127	2
139	140	1
34	35	1
72	73	3
51	52	1
229	230	1
98	145	4
234	234	8
0	0	1
137	137	5
166	166	3
211	212	2
9	12	2
31	45	1
45	133	1
233	233	3
184	187	1
79	79	3
54	55	1
213	214	1
152	154	1
72	72	3
135	135	4
39	63	1
175	175	1
75	78	2
99	145	1
191	204	1
54	62	1
123	168	1
227	231	2
177	178	2
17	57	1
10	11	2
207	208	1
128	232	1
149	150	2
68	68	4
54	74	1
159	160	2
55	58	2
28	32	1
67	67	1
110	174	1
199	199	2
103	103	3
208	231	1
214	214	2
176	178	1
183	207	2
145	145	1
132	202	2
217	218	2
28	30	1
12	16	1
36	57	1
161	186	1
0	25	1
214	221	1
63	64	1
155	156	1
64	65	2
65	67	1
46	47	1
69	70	1
3	5	1
110	110	2
44	54	1
182	183	1
50	82	1
191	192	2
156	159	1
144	190	1
161	161	1
181	181	1
179	180	1
46	46	2
23	23	1
125	163	1
63	63	1
0	17	1
26	26	1
124	125	1
135	137	1
199	223	1
16	17	1
45	54	1
123	165	1
180	180	1
42	78	1
120	133	1
211	221	1
