34	35	4
32	32	16
134	134	14
28	123	2
85	85	11
91	118	5
17	33	4
110	111	16
57	57	5
98	98	24
28	29	1
7	7	17
111	111	25
35	35	10
11	11	11
16	17	6
128	128	27
58	132	2
133	133	12
65	97	2
0	0	9
43	43	10
19	126	3
14	15	4
16	16	18
63	64	2
88	129	4
68	68	15
78	86	2
90	91	9
115	115	8
93	93	15
26	26	5
44	44	18
108	109	7
7	26	3
55	55	6
92	101	6
38	90	6
36	38	2
106	107	10
48	48	6
61	61	19
59	60	4
20	100	1
76	84	2
19	19	15
40	43	7
108	108	9
62	62	14
70	71	7
118	130	10
132	133	2
46	46	16
105	111	5
24	24	12
90	105	5
12	12	9
40	40	2
15	15	17
87	87	24
88	134	3
56	118	1
128	129	10
106	106	21
16	21	8
93	115	4
62	121	2
74	122	5
37	38	5
83	84	7
3	3	8
119	123	2
62	120	2
55	85	1
47	57	6
10	10	16
79	79	14
5	5	10
114	116	3
90	90	26
73	73	14
41	110	5
11	13	8
9	10	5
16	20	2
28	28	12
110	115	4
24	25	2
73	117	8
58	58	18
125	125	11
120	120	20
96	129	2
59	59	23
14	21	3
15	76	3
90	104	1
124	133	4
7	46	4
130	130	16
42	42	11
131	134	1
85	91	3
27	27	3
94	96	12
21	21	9
34	34	3
50	50	5
56	56	7
111	116	1
80	86	2
91	91	6
17	111	7
67	67	8
4	36	6
40	132	7
57	58	3
74	74	15
103	105	6
113	116	3
9	122	2
25	25	10
13	13	9
127	127	26
72	72	7
4	5	1
36	36	7
103	103	10
45	45	11
51	92	2
59	121	2
124	124	17
24	124	1
114	115	15
26	47	2
84	86	6
129	129	7
109	109	6
120	121	7
12	31	1
16	23	4
111	114	5
14	14	8
34	102	2
85	87	2
84	84	23
113	114	9
74	127	5
9	9	7
86	118	5
11	14	6
11	12	6
41	41	8
86	86	6
123	123	12
7	108	3
92	130	3
92	93	2
70	70	11
132	132	9
32	35	2
97	97	9
29	29	10
78	82	1
4	106	3
123	125	3
104	104	11
6	6	19
39	43	1
74	85	3
38	38	29
58	59	11
14	130	1
114	114	19
85	106	6
78	94	3
68	82	6
19	20	4
78	102	2
113	117	1
35	39	1
4	19	1
102	103	4
105	105	9
21	38	3
83	125	5
55	82	1
27	31	1
11	72	3
82	82	8
17	18	7
80	85	2
12	13	3
93	103	4
98	122	1
99	104	1
31	31	17
71	95	3
97	134	2
79	82	3
73	78	2
85	115	1
93	112	2
76	108	5
18	124	2
56	92	3
104	105	9
94	122	2
126	126	13
86	125	1
69	69	19
62	70	2
38	39	5
101	102	1
95	118	6
75	107	5
60	122	5
1	109	1
110	114	3
55	104	2
79	94	3
45	66	3
39	39	5
83	83	6
56	84	1
33	33	24
56	133	3
101	101	10
117	117	14
47	109	1
20	21	10
27	39	2
56	57	5
98	102	1
7	23	2
110	112	3
37	37	15
78	78	17
73	118	3
6	24	11
2	2	12
122	122	15
87	89	2
92	92	19
38	40	1
69	123	1
61	66	4
7	22	4
97	121	2
56	90	1
17	32	2
10	68	7
89	89	5
23	23	11
118	118	10
20	20	9
39	40	3
121	121	14
35	132	3
73	79	5
4	133	2
47	47	5
29	30	8
89	96	1
23	24	8
41	42	8
14	103	3
91	119	4
10	13	4
40	130	7
38	109	4
63	63	6
64	70	2
4	4	8
64	64	9
110	117	1
29	45	2
91	122	1
40	99	3
87	105	1
68	69	8
75	75	6
37	58	1
112	112	15
0	34	2
108	111	3
40	45	2
119	127	4
12	14	3
66	118	6
49	49	1
44	123	1
44	117	2
109	112	1
11	126	2
6	124	5
57	113	1
61	62	4
110	110	11
81	96	2
3	35	3
43	118	5
70	134	3
102	102	12
10	46	2
2	89	2
0	18	4
26	27	7
8	8	9
57	89	1
18	18	14
106	109	5
76	76	6
8	63	2
59	131	1
7	8	2
17	112	2
18	102	1
3	19	2
35	112	1
72	113	1
60	71	10
120	122	5
55	89	1
82	104	1
64	121	5
43	85	1
21	32	1
36	37	12
96	100	2
12	22	2
50	84	4
119	119	12
0	6	1
38	131	8
35	114	5
4	29	1
99	99	6
113	113	14
80	80	9
20	86	1
5	8	1
27	28	4
94	134	1
27	29	1
93	99	5
130	131	5
25	47	1
96	98	6
74	92	1
10	66	3
94	94	19
107	107	9
92	100	5
97	99	2
15	72	1
103	130	2
42	93	5
110	113	3
27	32	2
103	125	4
77	78	3
72	95	4
23	30	3
59	84	1
58	129	1
43	130	4
94	121	3
3	34	1
95	117	6
39	57	1
95	131	1
9	63	2
88	88	8
94	95	4
90	106	3
100	100	15
73	120	2
57	131	2
125	132	2
73	95	3
131	131	14
90	128	4
65	65	10
26	28	3
72	74	2
119	130	2
4	26	3
5	34	1
54	89	1
0	14	3
69	80	3
13	39	4
8	124	5
61	102	2
86	89	1
22	33	2
96	131	3
41	128	2
81	81	4
57	121	3
40	75	6
23	68	6
62	67	2
73	121	4
83	100	2
14	39	1
15	30	2
112	115	1
1	2	4
28	36	3
33	34	4
4	107	1
69	106	2
15	103	3
81	111	3
30	32	4
93	106	3
18	56	2
38	84	5
42	43	8
57	107	4
82	83	4
56	60	4
46	106	1
94	99	1
59	120	2
67	134	1
66	130	2
66	66	7
101	106	4
46	116	1
7	18	3
91	117	1
100	103	3
45	46	2
27	30	9
22	47	2
6	7	3
37	40	1
60	85	3
17	48	3
93	95	3
95	119	1
118	131	3
77	77	10
35	36	2
40	48	3
31	35	1
44	63	3
115	116	3
77	130	2
99	100	3
80	94	2
81	83	5
103	116	1
103	106	1
27	38	2
92	99	4
84	101	2
28	43	1
16	19	3
62	77	2
10	67	2
19	100	1
122	127	2
6	25	3
37	39	3
77	116	3
85	93	3
13	64	1
46	107	1
0	90	1
80	83	1
17	17	7
17	108	2
3	30	1
16	101	1
33	63	4
95	95	9
62	128	1
15	19	4
99	101	2
50	95	5
22	107	2
86	104	1
78	112	1
8	9	2
14	44	2
29	31	3
88	89	2
21	22	3
94	101	3
127	130	4
10	14	3
80	87	2
100	104	4
88	112	1
9	62	2
11	18	1
76	77	3
126	129	3
31	32	3
42	131	2
18	19	4
98	99	2
51	51	2
69	70	7
68	102	1
45	79	1
30	30	2
78	79	5
4	24	3
47	48	3
41	117	3
23	83	2
80	113	3
81	110	1
43	44	5
125	126	2
10	30	3
13	36	2
81	82	9
3	5	1
64	69	2
60	120	4
66	77	1
127	132	1
86	119	3
108	126	2
43	47	1
60	76	3
60	65	4
116	116	5
97	127	2
60	60	11
16	58	1
56	74	1
74	120	2
40	128	2
43	45	1
70	75	3
69	133	2
76	85	1
82	103	3
66	79	1
100	101	3
6	47	3
41	114	4
78	83	1
47	64	3
57	73	2
108	120	1
10	63	3
81	105	2
83	115	1
101	103	4
32	34	1
11	106	3
6	15	1
3	27	6
43	127	3
122	124	2
47	100	1
42	44	1
77	118	3
117	120	1
129	130	1
84	107	3
73	134	2
38	113	3
13	14	4
71	113	1
72	134	1
97	100	5
10	18	1
44	55	1
89	90	2
96	96	8
39	41	2
83	86	1
8	10	3
55	65	1
2	16	2
22	23	1
7	70	2
11	68	2
26	34	1
95	102	1
61	83	1
99	103	1
48	50	1
15	21	2
86	87	4
12	30	3
2	33	1
8	25	1
22	22	8
91	100	1
79	83	2
6	26	1
101	122	1
48	116	1
71	134	1
84	96	2
20	62	2
5	32	1
88	131	1
39	50	1
88	91	2
73	97	1
113	115	5
68	99	1
41	96	1
14	45	2
83	92	3
123	124	3
81	94	1
87	92	1
101	107	1
73	74	1
72	125	1
36	39	1
29	38	2
87	112	1
121	133	1
89	113	1
22	36	1
59	113	2
19	25	1
82	99	1
23	106	1
46	47	1
58	72	1
23	108	4
43	129	1
104	120	4
12	39	1
37	84	2
82	131	2
41	43	2
55	71	3
14	18	2
106	134	4
68	70	2
124	125	2
20	22	1
32	38	1
75	76	1
81	85	1
1	88	1
71	122	4
22	25	1
82	90	2
38	91	1
2	133	1
28	125	2
41	44	1
103	129	2
43	101	2
12	123	2
64	128	3
90	100	2
40	76	1
95	96	2
65	133	1
57	59	1
102	131	1
114	117	1
8	14	1
76	107	2
94	112	2
87	101	2
71	102	1
87	91	2
80	127	3
87	129	1
74	112	1
26	42	3
73	133	1
21	29	2
96	97	2
85	128	1
30	39	2
87	88	1
93	94	1
34	36	1
100	125	1
61	125	1
13	65	2
81	90	4
117	129	1
106	112	1
100	133	2
91	104	1
77	102	3
28	41	1
109	115	1
62	75	1
63	123	1
94	119	1
63	66	1
84	92	2
126	130	1
121	122	1
24	33	2
48	56	4
48	63	3
43	48	2
77	124	2
42	49	1
61	70	1
91	105	1
3	133	1
10	11	1
71	71	1
10	108	2
22	35	3
48	106	1
12	66	1
82	134	2
127	128	2
125	131	1
30	109	1
79	80	1
61	103	3
72	73	1
68	78	1
27	46	1
1	1	3
107	129	1
24	34	1
69	126	1
65	119	1
113	131	1
118	119	1
7	113	1
21	31	1
97	98	1
60	125	1
83	99	1
78	81	1
17	110	1
82	112	1
2	88	1
122	125	1
45	124	1
45	49	1
44	64	1
13	37	1
24	47	1
3	24	1
46	129	1
6	55	1
92	103	1
91	92	1
74	128	1
10	40	1
4	27	1
28	122	1
109	134	1
3	48	1
12	16	1
