105	154	6
109	114	1
170	173	2
51	71	2
119	119	16
179	179	2
161	162	5
133	133	4
4	4	15
19	19	1
35	45	2
122	123	4
60	64	1
98	98	2
114	114	9
90	106	2
79	79	7
6	6	2
42	42	3
18	53	4
142	142	5
119	126	2
15	15	9
90	90	16
94	99	1
39	40	2
17	42	3
141	141	3
23	50	6
132	132	6
174	174	2
9	10	3
113	113	3
67	67	5
30	30	3
35	95	2
2	16	1
146	146	12
17	41	2
122	122	2
106	106	9
20	20	4
117	136	4
107	135	2
112	114	7
167	167	1
123	123	3
132	135	4
2	2	3
145	145	4
14	14	6
104	106	1
64	64	6
94	100	4
99	99	1
52	58	2
75	75	1
96	96	1
3	3	3
71	71	2
137	172	1
142	143	1
94	94	5
22	52	2
58	64	2
96	97	2
112	112	6
178	180	2
140	140	2
128	131	2
94	101	3
92	101	3
27	27	6
154	154	2
25	34	5
121	124	3
86	89	2
13	13	2
7	7	3
38	38	1
93	99	2
59	59	2
109	109	7
152	152	4
157	158	3
117	117	3
75	83	4
126	134	3
111	146	2
166	166	1
104	104	3
11	50	2
104	105	6
149	149	14
123	125	4
103	104	6
150	150	6
135	135	1
136	136	11
178	178	3
61	61	4
131	131	2
115	115	3
88	96	3
137	137	2
147	156	2
60	60	3
54	54	5
77	77	2
43	43	2
84	167	3
33	33	4
2	7	2
163	163	1
74	76	1
8	8	4
18	40	1
81	81	3
118	125	2
45	45	7
154	157	2
177	177	5
130	130	3
140	147	3
19	32	2
87	87	5
35	178	6
21	21	1
164	164	1
20	21	1
103	103	2
140	143	7
55	56	2
55	55	1
106	171	1
82	84	2
81	82	1
101	103	1
157	157	3
119	134	2
131	137	2
3	11	1
118	120	1
147	152	2
57	57	1
84	166	3
110	114	1
24	27	3
88	88	2
121	121	2
42	44	3
153	156	2
65	96	6
143	143	2
134	134	4
101	101	4
23	24	1
120	120	3
54	94	1
108	108	1
37	41	2
74	86	2
93	94	1
50	51	2
175	176	2
76	77	7
28	28	1
85	167	2
97	97	1
110	110	3
122	126	1
41	42	2
113	114	2
148	148	1
60	61	1
28	31	3
86	86	2
80	81	2
74	74	2
165	165	5
128	128	2
37	39	1
117	127	1
140	141	1
58	59	1
6	7	1
38	41	1
152	153	1
125	125	1
9	44	1
170	170	2
96	98	2
131	136	2
125	133	2
124	124	6
151	152	1
138	138	2
174	175	1
40	40	2
109	113	2
30	31	2
135	136	2
166	167	4
11	11	2
169	169	2
15	16	1
172	172	2
66	66	1
173	173	1
25	29	1
99	101	1
9	9	1
56	57	2
99	103	2
68	75	2
11	13	1
8	9	1
99	100	2
126	126	1
95	95	6
82	82	1
156	169	1
62	63	2
124	125	1
49	49	3
176	176	4
109	110	1
125	126	1
141	144	1
162	162	4
171	172	1
105	106	1
10	10	1
63	102	2
59	179	2
76	153	2
39	41	2
16	16	4
6	53	1
141	142	1
133	135	1
59	60	2
65	65	1
162	168	1
115	118	1
171	175	1
91	91	1
4	13	2
80	80	2
107	107	1
32	32	1
17	17	1
78	78	6
84	84	2
111	111	1
26	33	1
12	12	1
72	72	3
167	168	1
137	138	1
98	177	1
52	52	1
88	89	2
104	111	1
170	174	2
120	121	1
66	71	1
127	127	1
26	27	2
130	131	1
21	25	1
156	158	1
36	36	2
53	57	1
139	139	1
76	76	1
26	26	1
28	29	1
156	156	1
36	41	1
128	129	1
25	33	1
50	50	1
62	62	1
95	97	1
153	159	1
1	43	1
107	108	1
