65	65	16
68	68	10
70	72	3
65	68	4
59	59	14
67	67	16
37	37	11
91	92	1
77	77	11
83	83	15
35	38	4
58	80	3
49	50	8
31	94	4
95	97	1
43	43	4
72	72	6
66	83	4
53	53	7
71	71	22
26	26	9
86	88	3
33	33	6
61	61	8
89	91	7
86	86	6
63	64	3
60	61	6
74	74	16
23	23	4
62	81	1
68	69	3
73	76	4
101	101	10
63	66	3
99	100	4
62	88	4
75	75	18
85	85	9
88	88	7
68	97	4
52	52	9
50	50	9
80	80	12
97	97	8
63	63	12
74	75	5
31	97	2
98	98	5
39	39	6
53	86	2
64	64	11
48	48	7
52	101	5
84	84	10
66	66	15
28	33	3
29	33	3
73	73	6
44	44	4
41	42	8
93	93	3
51	51	14
34	34	8
64	65	8
60	60	8
84	87	4
87	87	8
88	89	9
68	72	1
73	75	3
87	88	3
31	101	4
32	48	1
79	82	2
97	98	4
69	69	7
58	82	1
53	54	4
89	89	6
41	41	2
72	76	1
68	78	2
86	87	1
57	57	10
32	47	1
27	101	3
69	77	3
86	89	1
76	76	11
49	100	1
26	27	2
62	63	3
20	46	1
55	56	4
55	55	11
42	42	7
35	35	5
71	72	5
45	45	8
63	68	2
79	80	1
58	58	8
61	87	4
45	51	2
67	71	10
95	95	1
96	97	2
77	78	9
92	98	2
70	70	6
59	61	4
49	93	3
30	30	4
65	69	2
81	81	6
32	100	1
49	49	4
47	48	2
27	27	3
62	62	4
56	75	1
38	38	2
31	31	3
40	57	4
96	96	9
78	78	6
68	79	1
47	51	2
64	66	1
20	22	2
61	65	2
91	91	7
53	101	1
100	100	2
90	91	1
70	73	3
101	102	1
70	79	1
65	70	2
81	84	3
63	65	2
46	47	5
69	70	2
75	76	3
56	56	3
88	98	4
94	94	1
27	47	2
69	72	1
61	77	1
24	33	1
80	81	1
20	20	1
54	55	1
81	82	2
46	86	1
79	83	3
93	94	1
70	82	1
61	89	1
52	53	4
88	92	3
52	55	2
48	50	1
65	89	2
42	43	5
68	77	1
98	100	1
100	101	1
62	66	2
89	93	1
91	93	2
99	99	2
89	101	3
62	82	1
94	95	1
48	52	4
29	32	2
32	33	3
73	78	1
88	101	2
79	79	4
61	62	2
47	99	1
25	25	2
65	66	3
52	57	1
59	79	1
54	54	2
67	69	1
58	86	4
42	45	2
74	76	1
33	47	1
67	70	1
83	87	1
61	80	1
67	85	1
24	27	1
47	47	1
27	46	1
79	84	1
72	73	1
95	99	1
69	83	1
65	67	1
70	76	1
78	79	2
24	25	1
65	71	1
32	35	1
