76	76	3
31	31	3
121	121	2
88	88	3
38	38	7
2	2	4
83	83	2
67	67	2
63	63	4
23	23	5
66	67	1
9	9	5
92	92	3
32	32	3
59	105	1
79	79	2
81	89	2
30	32	3
96	96	3
19	19	4
133	133	2
35	35	2
84	86	4
107	108	4
50	50	2
11	24	4
64	64	4
40	40	1
36	37	2
85	85	3
54	55	1
110	110	2
61	118	3
127	135	2
88	89	1
107	130	3
127	139	3
143	143	3
100	100	2
109	132	2
128	128	8
10	10	2
26	26	4
15	114	4
43	43	3
19	119	2
122	122	6
11	11	1
136	137	1
82	87	3
24	24	2
115	115	6
52	52	4
127	127	2
145	145	3
50	52	3
59	62	2
102	102	2
53	75	1
75	95	1
83	87	6
13	13	1
96	125	3
84	85	1
34	34	5
17	19	2
95	95	4
108	131	2
41	41	2
53	90	3
105	123	1
9	16	2
145	146	1
55	137	1
140	141	3
17	116	1
65	67	1
25	25	3
84	84	2
36	36	2
53	53	2
124	130	2
105	105	5
48	48	3
119	119	4
37	37	3
75	75	2
105	106	2
53	70	2
91	95	8
3	3	2
16	16	2
112	112	3
49	66	4
124	124	3
139	139	3
8	141	2
0	21	1
19	20	1
26	29	1
56	56	4
15	15	3
106	106	1
4	4	5
33	41	2
53	72	5
5	32	2
34	35	4
92	95	2
81	82	2
82	82	1
72	90	1
144	144	1
62	64	1
60	90	2
114	114	2
50	51	1
68	68	2
140	142	2
93	93	2
118	118	4
29	30	2
47	111	1
111	114	2
54	54	1
58	64	1
86	86	3
138	138	3
8	8	2
5	12	2
61	62	1
126	134	2
28	28	4
70	70	3
123	125	1
133	135	1
110	112	2
106	127	2
50	71	4
106	132	1
134	134	2
90	104	1
78	78	3
140	140	1
118	140	1
99	99	1
9	62	1
112	113	2
58	118	1
58	72	1
83	84	1
48	94	1
126	126	3
9	15	1
141	141	1
0	0	2
142	142	1
104	122	1
94	94	1
128	129	1
11	13	1
2	13	2
108	126	1
21	122	1
74	92	2
129	143	2
26	38	1
20	20	1
124	140	1
20	136	1
131	131	1
124	139	1
57	58	1
29	34	1
65	65	1
26	27	2
104	105	1
17	17	2
128	130	1
90	90	3
81	90	1
80	80	1
27	27	1
49	49	1
134	136	1
60	61	1
101	101	1
50	66	1
111	132	1
117	117	1
87	88	1
142	143	1
73	73	1
17	124	1
