88	88	8
98	98	10
2	2	8
11	12	2
66	66	5
12	12	13
30	30	4
17	21	3
116	116	10
34	34	3
0	0	7
66	68	1
106	106	5
92	92	15
72	72	12
76	121	2
107	111	2
23	23	6
130	130	5
3	3	6
14	14	6
125	125	10
33	34	3
94	94	14
70	70	16
103	103	14
97	98	9
60	60	10
37	37	5
129	131	4
61	62	12
84	85	9
7	69	2
99	99	6
93	93	8
35	35	3
35	62	3
10	10	8
62	62	6
85	85	4
122	123	6
59	59	8
18	18	6
76	76	6
69	69	9
26	26	10
20	96	1
62	90	4
113	113	19
13	32	4
17	17	5
53	53	7
29	29	8
80	80	3
65	65	14
57	128	5
82	83	4
86	86	6
115	115	4
102	102	8
28	28	5
109	109	5
64	65	6
9	9	2
133	133	6
0	5	1
68	68	8
121	121	4
24	24	7
13	13	18
28	29	8
106	134	4
131	131	11
103	104	4
126	126	9
91	91	7
99	103	5
43	44	2
45	130	2
80	85	3
81	83	4
108	109	1
90	90	3
107	107	2
21	21	3
0	99	1
71	71	11
89	89	5
57	129	5
112	114	1
16	16	5
52	53	8
36	36	3
71	80	1
102	123	3
45	45	3
101	101	6
96	96	5
112	112	3
21	22	6
89	90	2
118	118	6
17	96	5
50	52	1
10	31	2
83	87	1
74	74	8
73	73	4
5	5	10
70	71	2
43	43	2
38	52	2
63	63	7
20	20	3
124	125	10
117	117	8
66	67	6
71	79	1
8	8	4
79	79	8
22	25	1
129	129	3
84	84	6
129	130	3
100	100	4
73	74	6
68	69	1
119	120	6
56	56	4
15	21	3
83	83	3
57	58	4
1	2	2
64	64	2
51	131	3
120	120	1
96	97	7
78	78	5
84	119	1
104	104	5
15	15	3
1	8	1
82	82	6
114	114	3
104	105	3
74	75	7
33	63	2
105	105	4
0	1	3
86	88	5
16	19	1
81	81	9
45	46	1
124	124	5
4	34	3
11	11	2
130	132	3
135	135	1
74	89	3
110	111	1
22	22	5
4	4	2
47	100	1
111	111	5
72	102	1
27	27	3
21	26	2
7	7	5
109	110	1
65	67	2
4	36	2
6	6	1
91	92	5
108	108	2
61	61	10
44	44	1
92	93	2
54	57	1
25	25	5
114	126	1
72	74	2
37	61	1
57	57	2
50	59	1
44	83	2
61	85	2
79	116	2
52	52	1
83	84	2
125	126	1
134	134	1
126	127	3
23	25	5
14	34	1
50	110	1
44	108	3
33	33	1
98	99	1
112	113	2
87	88	4
35	98	3
5	64	5
6	43	1
2	8	4
117	118	1
53	129	2
60	113	2
2	7	1
54	120	1
50	50	2
123	123	1
63	65	2
60	130	1
105	111	1
60	114	1
86	115	1
43	45	1
45	129	2
16	17	4
31	32	2
70	122	1
20	95	1
123	124	2
57	79	1
32	32	1
52	58	1
119	119	1
93	94	1
87	87	3
27	31	3
108	131	1
113	130	1
106	111	2
6	7	2
105	112	2
8	45	1
59	90	1
97	97	1
110	110	2
106	114	1
48	48	1
77	78	1
72	124	2
115	118	1
35	37	1
34	35	1
58	58	3
71	72	1
75	75	1
31	31	1
68	70	1
8	11	1
28	30	1
9	10	1
16	95	1
122	122	1
106	110	1
16	18	1
53	54	1
34	112	1
13	15	1
12	13	1
54	54	1
