110	112	7
98	112	2
72	72	3
66	75	1
36	36	6
99	106	8
95	95	3
100	100	6
73	74	2
78	78	6
101	102	5
29	29	6
24	24	3
69	69	8
91	110	3
84	85	6
67	67	4
102	102	9
72	73	1
32	32	9
97	97	1
40	40	12
66	67	6
107	107	4
104	104	1
74	74	14
105	107	1
22	57	4
31	31	3
19	19	2
39	44	1
82	85	5
64	66	2
42	44	5
74	75	2
37	37	4
22	22	11
59	59	6
63	63	5
44	44	6
98	98	2
43	88	2
25	37	2
91	91	6
62	66	1
103	103	3
20	70	2
106	107	4
100	101	7
92	93	2
22	23	4
103	106	3
93	93	6
46	89	1
54	56	7
47	47	8
76	76	6
27	35	1
53	69	2
46	46	2
28	35	2
43	43	2
103	105	6
34	34	8
22	89	4
112	112	2
78	110	3
79	79	4
56	56	4
106	106	5
87	87	6
30	87	1
27	98	4
80	80	1
56	58	5
21	21	9
93	103	4
98	104	4
86	86	3
98	105	2
48	48	2
110	110	5
63	78	3
64	64	2
49	49	8
28	29	4
41	41	3
38	38	6
26	26	1
74	85	1
99	99	6
44	89	3
28	46	2
76	114	2
103	109	3
30	31	2
91	105	5
19	70	2
41	42	1
75	75	6
104	106	3
30	35	3
61	61	6
57	57	1
20	20	4
52	72	3
57	59	2
95	96	1
36	113	2
42	42	4
53	61	8
94	94	5
92	98	3
64	96	2
21	24	3
46	47	3
30	30	4
89	113	2
37	46	3
101	101	5
83	83	10
35	35	7
95	99	5
53	58	4
82	82	8
56	57	2
90	91	4
65	97	2
74	86	2
31	33	1
23	23	1
53	54	2
36	78	3
39	39	4
28	28	8
44	47	3
87	88	3
109	109	4
54	54	3
54	55	2
71	71	5
92	94	3
96	96	4
92	92	2
75	82	3
61	88	3
94	98	1
39	47	3
77	77	1
27	27	3
108	108	5
22	30	1
111	111	6
26	27	4
42	43	2
54	60	1
38	91	1
32	90	1
29	62	1
45	89	2
49	68	1
73	84	2
105	109	1
21	76	2
54	61	2
30	46	2
104	109	2
68	70	1
111	113	2
109	110	1
88	88	1
83	84	4
62	87	3
113	115	3
58	58	1
38	90	1
77	114	2
51	52	1
68	69	2
86	87	2
52	52	1
110	114	3
45	45	1
62	69	1
36	97	2
24	37	1
49	51	1
21	114	1
65	65	1
85	85	1
96	99	2
26	37	1
69	87	1
36	96	1
26	35	2
94	102	2
53	71	1
30	91	1
68	68	1
38	88	1
99	101	1
67	76	1
67	75	1
