139	145	3
41	41	5
7	7	15
90	109	2
160	163	1
158	158	8
141	141	12
71	71	12
61	62	6
153	154	5
189	190	3
61	61	9
6	6	11
106	106	7
126	126	5
33	33	7
9	10	5
81	81	9
87	89	7
21	22	16
9	9	10
106	108	2
147	147	7
42	42	7
100	101	3
105	106	5
128	129	4
157	157	10
43	43	11
169	169	5
57	57	18
0	1	3
77	77	12
11	11	10
58	59	2
30	32	1
137	141	3
56	56	13
176	176	13
28	29	8
2	3	1
186	186	18
102	102	5
101	103	2
27	27	11
122	123	1
29	56	1
54	56	4
22	23	4
142	142	11
93	118	2
146	147	6
117	137	4
16	16	14
97	164	1
37	37	12
161	162	4
107	108	5
12	12	21
177	177	12
73	74	6
40	40	9
152	152	10
93	94	4
138	145	3
181	182	3
150	152	3
149	149	11
100	100	5
17	17	11
18	18	9
140	140	11
21	24	5
82	82	10
84	84	7
101	102	4
155	158	4
73	73	3
121	121	6
95	142	2
104	106	1
132	132	4
175	175	9
19	19	5
84	85	8
60	60	8
87	88	2
93	142	2
146	146	14
14	15	1
126	138	6
74	74	4
161	161	6
21	23	2
97	97	10
125	125	10
165	165	8
47	47	4
187	187	11
34	35	3
136	137	3
83	83	9
127	128	2
58	60	3
174	174	8
172	172	4
66	66	11
123	123	5
39	39	16
13	14	2
109	109	7
1	1	3
178	178	4
84	136	1
108	109	1
164	164	4
104	104	14
36	82	1
80	80	4
118	158	3
159	159	6
107	107	5
166	166	5
85	85	20
26	28	1
26	26	11
180	181	1
96	96	7
96	174	2
18	19	6
190	190	5
171	171	7
184	184	10
168	169	2
38	38	3
27	28	3
127	127	7
48	48	7
103	113	2
94	94	7
137	138	6
181	181	10
55	55	5
113	161	1
175	176	11
145	145	7
8	8	6
93	93	8
49	53	5
92	93	4
30	31	7
90	91	4
118	118	5
63	63	3
34	34	2
59	59	8
91	112	4
173	173	10
79	79	3
170	171	1
37	46	1
74	78	4
15	15	6
17	21	3
78	78	5
15	38	2
9	22	2
44	44	9
98	99	4
2	2	9
5	6	2
117	117	2
154	154	8
109	110	1
115	115	7
25	25	6
111	111	8
153	153	10
98	98	4
129	129	6
19	20	3
99	99	8
24	24	5
101	101	7
37	77	2
113	113	3
125	126	7
29	29	4
163	163	5
182	182	3
156	157	2
25	26	1
21	21	5
139	139	4
188	188	1
114	114	6
150	150	2
131	134	2
11	12	1
58	62	3
90	132	2
39	40	3
109	128	4
91	91	3
123	124	2
151	152	1
128	128	8
86	86	4
16	17	2
45	45	9
102	103	1
111	114	2
82	85	3
76	76	7
160	160	2
95	95	5
13	13	5
18	78	1
0	0	8
104	107	1
22	24	2
161	163	3
5	12	2
85	98	4
112	112	4
104	105	1
35	46	2
159	162	1
133	133	2
134	135	2
5	5	4
111	112	3
58	58	4
36	81	3
105	105	2
131	131	6
108	108	7
122	122	2
185	185	6
31	31	6
22	25	1
32	35	1
113	114	2
184	185	3
20	20	10
168	168	8
138	139	3
64	64	4
124	124	2
63	64	3
15	54	1
126	127	6
63	70	2
92	105	2
75	76	4
14	14	4
141	142	3
54	54	11
174	186	1
134	134	6
142	180	4
94	101	5
101	114	1
112	114	1
132	148	6
8	42	1
118	120	2
143	143	3
19	85	1
6	135	2
54	89	1
127	131	2
25	53	4
5	13	1
154	165	1
12	13	3
7	8	2
126	153	2
136	136	2
155	155	2
3	3	8
138	157	3
103	103	1
87	87	5
149	150	3
75	75	3
169	178	5
113	155	3
106	107	4
167	181	1
137	137	5
21	82	1
110	111	2
116	118	1
23	24	4
45	46	3
183	184	6
172	174	1
117	157	1
129	146	2
70	168	1
185	186	1
164	174	3
77	78	3
135	141	3
53	54	2
24	57	3
102	115	1
88	90	1
121	174	1
107	148	1
74	75	1
176	178	1
38	81	3
39	78	2
88	89	2
94	95	1
146	154	1
82	83	4
180	180	2
15	16	2
13	15	1
46	46	8
137	139	1
181	184	1
187	190	2
88	119	1
52	53	2
48	53	2
110	110	2
62	62	4
160	165	1
4	188	1
12	100	1
43	44	2
54	55	2
5	120	3
148	148	7
142	143	2
17	18	1
1	110	1
60	61	1
53	53	8
182	183	3
36	36	3
144	144	4
130	130	7
42	48	2
143	144	2
10	10	4
70	70	6
88	108	1
68	68	3
18	20	4
180	186	2
42	77	1
166	167	2
17	19	2
148	149	1
151	151	2
119	174	2
177	178	1
1	2	2
89	89	2
19	22	1
122	174	3
163	164	3
39	42	1
169	171	2
22	22	3
167	169	2
99	172	1
33	35	2
140	141	2
0	37	2
157	158	3
129	130	2
56	75	3
176	177	2
91	111	1
12	14	1
183	183	2
123	125	1
138	141	1
119	173	1
158	177	1
98	105	3
33	34	2
103	104	1
106	109	1
37	44	2
10	49	1
29	60	1
100	125	1
26	33	2
162	162	1
10	11	2
28	30	1
149	161	2
44	46	1
65	66	2
11	22	2
9	15	3
126	140	1
123	131	2
101	108	1
130	182	1
40	75	1
35	35	1
91	92	5
160	161	2
5	7	1
145	146	1
66	67	3
44	65	4
24	25	2
39	152	1
170	172	1
117	119	1
82	84	1
35	38	1
148	176	1
84	107	3
173	179	1
46	47	1
4	4	1
152	184	1
162	165	1
147	148	1
88	88	2
23	46	1
38	80	1
105	132	1
176	181	1
36	37	2
97	174	1
67	67	1
133	158	1
119	119	1
72	72	2
129	150	1
82	89	1
62	63	3
24	37	2
56	57	1
186	187	2
23	23	2
116	116	1
26	52	1
157	176	1
120	174	1
79	82	1
141	178	2
23	28	2
174	176	1
66	68	1
96	97	1
11	32	1
37	42	1
99	103	1
137	142	1
170	170	1
69	69	1
62	64	1
97	98	1
38	58	1
29	30	2
167	167	1
26	43	1
110	158	1
88	121	1
92	92	1
114	115	1
57	159	1
155	157	1
