38	38	13
104	104	7
66	67	6
140	140	8
74	74	17
68	68	11
42	142	1
115	115	4
181	183	4
120	130	3
126	126	7
24	143	4
175	190	1
136	185	3
78	78	10
77	78	7
30	31	8
111	112	2
11	12	7
186	187	2
85	98	2
22	22	10
28	28	8
64	65	3
77	77	2
123	123	12
169	169	14
81	87	2
161	161	12
149	150	3
95	95	3
174	174	8
63	73	3
62	62	5
48	73	3
100	144	1
76	76	5
27	27	6
44	44	24
122	122	8
100	100	8
61	61	14
145	168	4
128	149	2
157	186	8
48	48	25
106	106	2
139	139	11
151	152	11
12	12	13
3	3	6
167	167	10
148	148	8
152	153	7
75	75	4
80	80	8
188	188	13
47	125	2
24	24	6
179	180	1
157	157	14
158	158	5
182	183	6
14	14	8
25	25	19
159	159	10
103	103	6
43	56	4
63	63	4
79	80	6
110	110	5
23	23	27
179	193	3
138	180	3
65	65	10
20	20	4
182	182	15
50	74	3
124	124	7
37	132	3
125	126	5
171	171	14
156	158	2
41	41	10
144	145	3
2	2	10
175	175	16
73	73	5
52	52	10
118	121	6
10	195	1
118	119	2
67	152	1
29	29	6
29	42	6
10	10	18
37	38	4
53	53	14
57	57	15
153	153	9
132	132	19
83	83	5
167	168	10
167	169	2
53	56	2
34	34	7
186	186	11
69	74	3
125	125	11
16	17	4
88	89	1
193	193	17
177	177	7
37	37	3
173	173	11
150	150	4
116	116	6
152	152	13
70	70	17
9	9	13
128	128	5
137	137	21
185	185	10
65	66	3
130	153	2
81	81	4
166	166	15
183	184	5
37	40	4
72	72	10
88	183	2
170	170	14
126	129	2
3	24	2
53	65	2
56	56	13
176	177	5
134	135	1
168	168	11
32	32	13
90	90	7
18	53	2
174	175	4
108	159	1
46	122	2
165	166	8
15	15	8
101	101	4
84	84	10
13	13	19
40	40	12
49	49	13
150	151	16
158	159	6
109	109	10
69	70	3
163	164	10
115	144	1
162	165	2
1	100	1
18	18	8
70	143	2
123	124	3
68	101	2
43	43	4
187	187	8
132	135	1
136	196	1
98	98	4
55	55	21
113	120	1
11	11	18
5	6	2
110	111	1
173	180	3
58	63	1
137	138	1
51	51	12
66	66	5
98	103	1
19	21	2
4	11	6
47	47	29
194	195	5
106	180	1
9	10	4
64	64	3
69	69	13
163	167	1
166	180	2
0	11	2
14	45	5
17	17	16
111	111	6
131	131	7
21	170	1
8	9	1
30	30	10
82	82	5
145	171	2
102	102	5
38	64	2
136	136	11
181	181	12
170	171	2
56	57	5
191	191	4
36	36	7
103	106	2
183	187	4
74	146	3
129	129	4
52	74	2
31	32	7
33	33	6
18	106	3
53	74	2
16	18	5
169	180	1
143	144	2
54	56	3
169	181	1
69	118	2
114	143	4
45	45	10
16	16	8
11	15	1
163	181	1
80	81	1
99	146	1
61	62	2
58	72	2
133	133	13
160	160	8
7	7	6
40	41	5
113	114	9
165	165	4
4	4	10
19	37	1
174	194	5
178	179	7
113	113	6
140	149	2
111	160	4
45	71	4
186	188	2
71	71	7
117	118	12
2	27	2
89	89	13
99	106	2
153	154	1
62	66	3
88	88	12
47	60	1
67	68	5
130	130	11
71	88	4
147	147	4
127	127	6
134	134	9
102	104	6
84	87	2
50	52	2
142	142	10
189	189	13
39	39	10
132	133	9
190	190	1
100	152	1
117	117	6
141	141	6
190	192	3
102	105	1
112	112	3
99	117	5
176	179	2
178	178	5
51	53	6
3	18	2
47	55	1
47	48	2
114	114	7
99	99	8
192	192	10
137	140	3
80	84	2
100	101	1
9	193	1
141	144	4
24	61	2
177	178	9
123	125	4
99	161	1
164	164	5
55	170	2
95	146	2
42	42	10
1	1	9
196	196	10
148	149	2
59	130	2
24	31	3
23	26	2
10	194	1
85	85	2
49	50	6
6	24	1
18	28	1
158	160	1
46	46	8
181	197	2
172	172	7
183	195	2
115	117	2
84	86	2
85	86	4
78	80	4
148	153	2
4	5	3
58	58	12
189	195	1
104	106	5
145	146	1
126	170	1
87	88	1
113	149	3
23	24	1
107	108	4
156	167	2
84	85	7
88	151	1
180	180	9
125	128	2
49	70	2
31	31	10
99	126	1
89	121	2
82	123	2
197	197	10
93	94	2
31	37	3
62	63	6
179	182	1
16	38	2
54	55	5
86	89	2
190	191	6
0	0	2
155	155	17
120	120	4
0	37	2
104	140	1
69	116	2
58	75	2
32	36	2
41	104	1
145	145	4
118	118	5
126	147	1
168	169	2
105	106	2
109	130	1
195	197	1
185	193	1
160	161	3
143	164	1
73	75	3
62	116	5
40	42	1
101	130	2
38	39	3
129	135	2
59	60	2
136	179	4
74	147	1
152	165	3
138	138	5
96	96	9
99	100	1
15	159	3
55	56	1
99	119	1
136	138	6
5	5	2
66	69	2
54	54	2
87	90	1
20	23	5
168	181	2
194	194	4
183	183	15
86	156	1
183	188	3
45	121	4
8	8	5
127	128	4
71	73	4
34	36	1
82	83	1
113	134	1
65	102	3
157	158	3
89	99	2
144	144	7
4	70	2
78	85	2
45	46	5
159	160	1
18	22	4
70	71	2
3	4	1
35	35	4
146	159	3
62	169	4
115	157	2
154	187	2
192	193	4
86	87	4
141	142	2
59	59	7
130	131	2
98	171	3
187	188	2
33	69	1
103	117	3
97	153	1
78	140	2
0	7	3
41	42	3
161	162	6
143	143	7
108	108	7
94	104	1
163	163	2
132	167	3
96	97	2
196	197	2
103	104	3
174	191	1
107	107	5
184	184	3
60	60	10
94	95	5
53	57	2
73	110	2
162	162	5
3	6	1
135	187	2
149	161	3
136	139	3
17	30	1
25	65	2
0	8	3
27	28	3
25	30	3
14	193	2
55	95	4
179	179	3
60	69	1
23	190	2
179	191	2
176	182	1
15	19	1
30	36	2
96	98	1
86	86	7
56	62	1
97	125	3
0	2	2
88	161	2
111	141	2
33	36	1
48	52	2
97	97	1
67	67	6
42	45	1
149	149	7
19	153	1
21	21	5
143	160	1
17	18	3
98	117	4
17	51	1
121	121	3
78	136	1
138	172	3
130	133	3
55	57	1
5	28	1
53	54	1
126	127	1
13	150	2
11	149	6
172	193	1
6	7	2
135	135	5
1	42	2
141	150	1
118	153	1
21	63	2
10	11	6
6	6	5
149	152	2
120	136	3
39	40	6
123	130	1
26	26	5
19	20	1
132	184	1
175	183	2
11	194	2
195	195	5
15	193	1
146	146	5
4	188	2
100	149	1
63	116	2
43	44	5
25	26	3
46	47	1
127	141	2
9	11	1
80	141	2
8	154	1
64	70	1
70	88	2
160	165	2
60	76	2
95	102	1
185	187	1
94	94	4
173	174	2
85	187	1
113	170	2
135	137	1
60	74	2
125	127	1
185	195	2
135	139	1
162	164	3
29	30	1
104	105	2
138	140	2
173	189	2
73	149	1
15	183	1
119	119	4
19	36	2
18	20	2
34	35	2
19	41	3
57	66	1
98	99	1
50	50	7
23	44	1
2	17	1
32	48	2
86	111	2
0	1	1
28	29	3
5	197	2
163	165	2
124	126	2
165	168	1
143	147	2
42	123	2
67	70	1
79	79	4
7	25	2
143	145	1
76	77	3
36	131	1
74	128	2
151	159	2
103	105	1
32	65	2
150	183	1
68	69	5
31	33	1
193	194	1
46	71	1
37	117	2
21	190	1
4	189	1
99	104	1
156	159	2
138	139	4
175	191	2
134	184	1
52	53	1
31	44	1
8	43	4
18	56	2
79	96	1
42	44	1
2	34	1
71	121	1
60	61	2
68	151	1
135	136	1
24	74	2
42	170	1
21	83	2
65	112	3
112	114	1
109	110	1
106	107	1
73	74	1
148	159	1
154	154	3
119	123	2
154	195	1
0	15	1
8	12	1
11	143	1
44	53	1
35	99	1
55	73	1
143	165	2
68	100	1
81	95	1
22	63	2
148	152	1
7	8	1
48	53	1
4	37	1
150	159	2
46	149	1
48	49	1
171	174	1
19	19	2
101	166	1
42	119	1
40	64	1
100	108	1
114	144	1
156	156	2
99	103	1
168	179	1
48	195	1
114	115	1
80	83	1
160	179	1
183	185	1
70	73	1
68	116	1
151	169	1
101	116	1
16	19	1
163	173	1
87	142	1
58	59	2
21	22	1
87	87	1
32	37	1
172	190	1
115	118	1
52	73	1
108	130	1
117	148	1
38	40	1
16	32	1
142	143	1
116	155	1
44	46	1
122	143	1
11	38	1
20	21	1
67	76	1
88	97	1
47	49	1
171	173	1
109	169	1
72	75	1
0	24	1
142	148	1
111	121	1
101	102	1
129	136	1
107	171	1
14	100	1
5	33	1
106	118	1
107	180	1
79	85	1
147	148	1
27	30	1
69	71	1
105	172	1
140	142	1
134	137	1
139	140	1
105	133	1
117	157	1
149	168	1
8	11	1
17	173	1
23	112	1
112	113	1
33	42	1
88	162	1
