101	101	4
58	58	8
12	12	3
93	93	5
122	122	8
115	117	3
55	55	5
50	50	7
97	97	5
50	51	1
14	14	2
92	94	2
68	69	6
51	51	7
107	132	1
21	108	4
10	10	2
105	105	7
40	40	5
130	130	3
123	123	2
102	103	3
23	23	4
73	73	3
38	38	3
102	124	1
85	85	4
112	112	3
74	74	10
125	125	2
22	135	4
6	29	4
121	121	3
71	72	2
118	118	3
106	106	8
38	39	8
111	112	2
143	143	1
137	137	6
23	135	1
117	117	6
59	60	2
29	40	4
129	136	1
30	31	2
72	87	2
146	146	1
2	2	2
8	9	4
67	67	6
124	124	2
33	33	2
5	5	1
70	70	2
0	72	2
74	75	4
82	83	2
88	89	2
113	115	1
84	91	1
9	9	4
136	137	2
24	26	5
83	83	2
129	135	3
34	36	2
72	72	2
12	13	2
2	8	1
99	100	3
8	8	2
112	113	4
49	49	2
30	41	5
50	66	6
109	132	3
141	144	2
84	84	2
96	104	2
80	80	3
57	57	3
1	34	1
96	96	8
73	82	1
91	91	5
22	22	2
107	107	1
76	93	2
89	89	1
90	90	1
113	145	5
2	9	1
61	72	1
138	138	1
103	103	2
15	15	1
33	62	2
102	102	9
142	144	2
69	70	1
64	64	5
77	79	2
24	24	1
18	18	1
51	52	1
56	56	1
67	68	2
127	128	2
105	106	3
9	38	4
113	116	1
3	31	7
13	136	4
25	25	3
39	39	1
79	79	2
115	118	3
42	71	3
100	120	1
107	131	1
133	133	1
13	13	5
135	140	3
71	71	2
135	135	1
36	36	2
76	76	1
52	52	2
120	121	1
60	60	2
54	54	2
35	35	1
99	124	3
126	126	3
9	10	1
46	46	2
50	59	1
121	122	1
10	11	1
29	29	1
90	91	1
119	119	1
132	132	1
131	131	3
53	57	1
64	65	1
136	136	3
142	142	1
110	133	2
134	134	1
134	140	1
16	16	3
83	85	2
131	132	1
2	31	2
96	97	1
3	61	1
125	132	2
61	61	4
111	111	1
110	110	1
56	78	1
82	86	1
99	99	4
21	39	2
20	20	1
10	28	1
15	16	2
8	41	1
34	34	2
32	32	1
83	89	2
61	62	1
81	91	1
58	59	2
127	127	1
48	48	1
0	34	1
60	61	1
112	114	1
68	70	1
144	144	1
37	37	1
82	82	1
27	27	1
