47	58	4
98	101	9
95	95	7
25	33	4
101	101	6
58	58	6
54	65	1
93	105	2
66	77	2
94	107	3
48	52	2
27	27	3
74	75	2
34	34	8
69	85	2
103	104	10
53	57	2
64	69	3
28	31	3
97	98	2
44	46	2
82	82	2
20	28	2
99	100	1
98	98	6
68	69	1
45	51	1
51	62	1
76	87	3
46	48	6
64	75	2
52	65	1
99	99	14
72	72	4
32	32	14
43	43	4
101	102	2
80	80	4
46	60	2
86	97	1
100	105	1
102	102	4
52	53	2
60	61	1
55	55	16
78	91	2
63	74	1
77	95	2
88	88	6
93	94	1
60	85	2
87	95	3
37	50	1
102	103	5
76	106	2
61	65	3
38	44	2
28	55	3
37	37	1
102	105	3
35	39	1
73	74	2
45	46	2
61	69	2
64	78	5
23	23	3
20	24	2
49	54	2
100	100	8
29	40	1
76	79	2
80	82	2
85	86	2
94	94	2
68	68	9
62	66	2
99	105	2
70	70	7
45	57	2
94	98	2
59	69	3
42	43	1
85	85	7
80	85	4
86	94	1
56	69	2
41	41	12
83	85	1
40	40	3
98	100	2
70	83	3
72	77	3
65	65	9
28	40	2
98	99	4
61	64	1
85	101	2
42	42	14
25	25	4
44	57	3
61	61	8
62	75	1
51	51	5
48	48	5
97	97	11
23	24	6
21	35	4
51	52	1
61	75	2
67	75	3
20	20	4
83	86	5
84	96	3
87	101	4
54	66	9
56	59	1
66	81	4
87	93	1
100	101	4
82	83	4
67	67	1
87	99	3
33	39	4
77	89	5
87	89	1
75	85	8
72	73	4
85	98	4
96	101	4
39	50	3
47	67	4
21	21	9
31	32	1
23	37	2
80	86	4
92	94	4
53	53	4
95	98	6
36	36	2
91	102	2
40	41	3
89	90	5
47	47	2
82	89	3
69	69	2
69	70	2
65	69	1
31	41	1
62	63	3
35	38	1
48	50	4
73	73	7
71	71	7
27	39	5
26	26	2
37	46	2
79	99	2
87	87	3
64	64	8
57	57	1
49	56	1
36	37	3
90	96	1
53	59	3
55	59	3
72	81	2
45	52	2
63	63	1
93	93	5
79	92	3
22	23	4
75	75	1
53	63	1
104	105	6
72	85	1
38	49	1
49	49	5
70	82	2
86	98	1
101	103	2
47	62	2
73	81	1
43	72	1
105	106	2
100	103	6
31	42	5
67	71	1
89	89	1
40	43	4
34	37	2
77	77	4
68	75	3
46	50	2
79	79	8
60	60	4
94	95	2
38	38	5
35	48	2
68	72	1
39	53	2
92	93	4
26	27	6
57	59	3
35	35	3
76	88	2
21	31	3
37	51	3
83	83	4
81	83	3
21	23	1
50	54	1
54	69	2
33	36	1
77	78	4
59	59	4
90	106	1
97	105	3
21	34	1
42	55	2
22	38	1
90	90	1
36	48	1
96	96	1
64	65	3
86	99	3
80	87	3
45	48	3
100	102	2
58	59	1
84	94	1
75	77	5
46	46	4
76	77	7
68	71	2
24	24	4
66	69	3
68	76	1
23	35	4
82	96	1
88	101	2
107	107	1
76	76	5
52	57	1
74	74	4
88	92	1
97	100	1
47	81	2
63	64	1
84	84	3
73	78	3
95	97	1
43	45	1
104	104	3
73	79	4
77	81	1
105	105	4
81	85	1
21	32	1
72	74	2
94	106	1
26	38	3
57	68	4
52	52	5
90	91	4
24	25	1
89	98	3
60	75	2
44	44	2
89	91	3
65	77	1
30	43	2
27	29	1
84	92	1
65	66	1
24	37	1
97	103	2
38	39	1
90	100	3
62	62	1
33	33	1
84	98	1
79	89	1
44	59	3
89	99	5
33	35	1
52	54	1
47	50	1
32	50	2
29	31	1
85	88	3
106	107	3
39	56	3
91	92	3
78	97	2
59	60	3
36	46	1
66	66	1
43	58	1
48	74	1
54	54	6
106	106	1
74	83	1
31	39	3
75	79	1
95	103	2
62	74	2
58	75	2
69	92	1
94	97	1
57	72	1
38	40	1
80	88	1
103	103	6
41	55	2
58	72	1
33	49	2
74	77	3
88	96	1
54	61	1
68	85	1
49	61	1
91	104	1
27	41	2
57	64	1
64	76	1
54	57	1
21	36	3
55	66	1
78	78	3
90	103	2
63	65	1
74	89	1
97	101	2
24	34	1
74	95	1
50	67	2
28	42	2
63	69	1
42	45	1
61	73	1
73	88	1
64	89	1
105	107	2
53	67	3
60	66	1
81	102	1
30	50	2
53	55	1
20	30	2
52	63	1
91	94	2
33	41	1
92	101	1
98	104	2
39	39	3
80	91	1
69	77	1
50	61	1
22	25	1
86	93	2
27	32	1
27	40	1
83	97	1
82	84	1
41	42	1
31	40	2
69	78	2
89	96	2
95	99	1
87	94	2
62	67	1
87	88	1
30	37	1
22	22	1
48	61	1
25	26	1
20	27	2
28	30	1
66	67	1
84	104	1
44	45	2
68	95	1
87	90	1
67	74	1
52	61	1
75	95	2
32	40	1
79	85	1
30	38	1
40	50	2
57	58	1
77	90	1
51	63	1
30	35	1
57	66	2
92	106	1
54	56	1
68	74	1
29	43	1
96	98	1
95	96	2
50	63	1
59	63	1
55	73	1
70	77	1
97	102	1
40	58	1
19	20	1
84	87	1
64	68	2
63	73	1
64	77	1
