23	23	6
129	129	3
85	85	8
93	124	1
50	116	1
123	123	7
69	69	5
2	14	4
105	105	16
85	87	3
54	57	6
48	106	5
1	2	6
103	103	5
119	119	3
52	52	3
121	121	11
64	64	11
92	101	3
14	30	4
21	33	2
3	3	8
32	32	16
65	65	7
94	94	5
107	107	5
8	8	14
95	95	7
100	100	7
87	87	5
112	112	12
3	6	2
79	80	2
74	74	8
47	53	3
99	99	13
35	35	13
34	34	12
22	22	7
9	19	2
82	82	4
127	127	3
20	20	7
56	83	8
97	97	5
70	70	9
71	71	4
7	88	1
49	49	10
113	113	14
55	55	4
109	109	8
0	1	3
18	27	1
57	57	3
76	76	6
61	61	5
37	37	9
91	91	1
83	86	4
93	93	9
58	96	4
32	33	2
132	132	9
4	5	8
26	26	2
80	80	7
2	2	5
73	73	6
33	33	7
122	123	6
61	62	3
1	1	6
77	77	5
1	37	2
104	104	12
86	87	4
2	78	5
71	88	2
10	11	1
101	101	3
6	18	1
6	44	4
95	96	3
134	134	3
8	86	2
68	68	3
27	27	14
86	86	9
56	56	5
125	125	9
84	85	7
26	30	3
96	96	3
10	10	10
75	90	2
102	102	9
108	123	3
17	17	5
77	82	2
3	64	5
45	52	3
59	63	2
115	115	5
91	92	7
98	98	8
21	21	7
81	82	3
60	60	6
19	21	3
55	56	4
4	4	6
52	112	1
29	29	10
78	82	6
59	59	14
24	24	7
108	109	3
3	24	1
84	84	7
89	89	3
6	6	9
118	118	6
122	122	13
0	86	2
66	69	1
106	106	5
99	121	3
11	11	13
58	82	4
51	51	2
36	36	6
0	14	7
72	72	3
88	88	3
35	58	1
131	131	9
28	61	4
83	83	4
110	110	8
57	59	1
3	4	4
126	126	7
87	132	5
117	117	7
56	57	2
54	56	3
15	18	2
113	130	4
118	122	2
106	134	1
0	82	2
92	92	5
82	91	2
92	99	1
44	44	6
50	50	4
76	134	1
81	81	2
7	9	3
62	63	2
79	98	2
45	120	4
2	32	3
7	19	7
55	59	6
91	99	3
77	84	3
62	62	7
30	30	5
14	14	11
111	111	10
23	33	1
20	23	6
59	64	5
24	25	2
31	32	1
6	65	4
64	65	8
0	0	9
78	88	1
72	91	1
58	63	3
65	66	1
45	46	1
130	130	2
76	79	4
0	37	3
6	7	6
99	100	1
25	29	5
135	135	1
30	34	1
84	87	2
15	80	1
99	101	4
35	38	3
28	28	6
57	58	6
67	68	4
65	67	3
108	117	1
110	117	2
66	66	2
48	54	1
6	9	2
66	67	3
5	5	5
53	66	2
29	37	1
133	133	1
18	18	3
63	63	4
15	82	1
6	83	1
107	118	4
82	85	4
19	19	6
78	87	1
60	62	2
83	108	2
112	113	4
9	9	6
28	65	2
82	84	2
7	7	1
29	30	2
76	120	1
104	115	1
125	129	1
108	108	2
54	55	1
28	29	5
12	70	2
124	124	1
8	20	4
65	70	1
17	18	3
22	26	1
53	60	3
9	11	2
114	114	5
87	88	3
31	31	7
37	54	2
11	22	2
127	129	1
27	117	2
60	109	2
37	53	1
74	126	2
58	59	2
58	81	1
77	131	5
94	95	2
12	12	3
25	25	1
1	38	2
123	124	4
34	35	2
18	29	2
124	125	4
128	128	8
126	129	1
6	15	1
54	62	2
116	116	2
91	122	2
1	3	1
97	102	1
52	110	2
66	68	1
79	79	9
107	117	1
46	46	1
103	104	1
43	43	1
102	103	1
78	78	4
25	31	2
84	97	1
30	32	1
108	129	1
81	96	1
82	86	1
50	135	2
77	78	2
7	8	1
117	130	2
26	27	2
53	53	7
58	58	2
111	114	1
30	31	1
13	91	1
121	134	1
25	33	1
87	97	3
101	133	1
8	10	1
2	79	1
15	16	2
92	93	2
82	133	1
8	87	1
125	126	1
11	12	1
45	47	1
17	23	2
44	45	1
16	16	1
122	130	2
11	23	2
17	82	1
89	93	1
88	91	1
23	24	1
90	90	2
45	45	1
21	22	1
0	76	2
119	120	1
13	13	1
126	127	2
54	54	2
75	75	2
52	53	1
124	129	1
37	38	1
119	122	3
48	48	1
48	53	1
93	126	1
67	67	1
10	67	1
26	28	1
105	106	1
22	33	1
96	97	1
13	24	1
123	126	2
75	104	1
85	88	1
118	119	1
30	69	1
74	123	1
78	117	1
104	105	1
8	84	1
27	28	1
