26	26	7
70	70	14
50	51	2
52	52	21
25	26	4
28	28	11
51	51	19
74	74	10
50	50	6
50	52	3
76	76	3
75	75	4
10	10	11
48	87	1
82	83	4
85	86	2
19	19	8
46	46	13
62	78	2
56	57	5
13	13	11
30	30	9
6	13	2
58	58	9
22	23	2
48	48	12
51	83	1
53	54	3
75	77	2
14	14	7
66	66	3
12	15	3
10	26	1
79	79	6
29	29	8
87	87	5
63	63	5
84	86	2
72	88	1
84	84	7
81	81	3
74	75	2
69	69	5
6	7	6
88	88	3
61	61	7
64	65	6
17	83	3
54	62	5
23	24	2
86	86	7
49	49	2
11	12	2
11	11	9
7	7	8
33	33	2
5	5	5
56	74	7
12	12	6
85	85	10
55	55	7
29	30	3
49	57	4
24	25	6
23	23	4
9	25	2
6	6	5
72	72	11
80	80	8
61	62	1
24	24	9
82	82	4
70	84	1
75	76	2
19	25	1
20	20	10
15	85	2
51	52	7
15	15	2
85	89	3
3	3	7
16	17	3
2	2	2
17	25	2
87	88	3
5	13	7
83	83	4
10	47	1
73	74	10
23	31	2
67	67	8
61	78	2
59	59	3
12	13	4
62	62	9
17	17	7
25	25	4
16	16	1
76	77	5
20	79	2
73	73	8
4	4	12
28	29	1
75	80	2
8	8	11
9	12	7
10	25	2
89	89	6
48	49	5
60	60	4
5	6	3
5	9	1
27	49	1
68	68	4
18	18	3
53	53	4
3	5	1
9	9	8
77	77	3
64	64	8
65	65	2
13	47	2
62	81	3
20	75	1
7	46	4
70	71	2
22	22	5
65	81	2
7	8	1
58	59	2
0	0	5
77	79	1
21	21	5
11	31	2
16	24	3
25	33	1
58	62	6
71	71	7
59	80	1
65	66	2
89	90	2
61	63	2
11	67	1
52	53	7
7	64	3
13	74	2
49	50	2
54	54	13
3	4	2
9	66	1
9	10	2
27	48	4
47	47	4
72	74	1
28	30	1
71	72	3
68	88	1
46	61	4
11	48	1
16	69	1
20	21	2
4	10	3
21	22	2
23	85	2
17	64	2
82	84	1
77	80	1
83	84	2
85	87	1
21	69	2
1	2	1
67	68	1
1	1	6
31	31	3
50	56	1
79	81	1
80	84	1
56	56	3
63	64	1
65	78	2
14	89	1
59	64	1
8	47	2
27	28	1
25	27	2
27	27	2
31	84	2
68	74	1
79	80	1
53	55	1
54	55	1
57	57	2
34	34	1
54	83	1
56	90	1
62	63	1
23	74	2
69	85	1
5	31	1
78	80	1
34	47	1
10	11	1
23	48	1
5	10	1
81	82	1
