2	50	5
116	116	14
73	73	5
172	200	4
173	173	13
207	207	3
176	176	5
14	14	2
9	46	4
177	180	3
40	40	4
75	75	9
117	125	3
29	29	8
66	66	14
102	134	6
205	237	1
150	150	6
99	149	1
137	138	2
74	74	24
56	56	3
219	219	10
197	230	2
125	125	16
179	202	5
233	233	10
201	201	6
163	163	8
123	123	6
195	195	5
223	223	5
70	71	3
162	163	4
12	12	12
50	50	2
97	97	4
148	148	16
72	88	5
28	28	7
36	36	14
213	214	1
231	242	2
35	57	5
45	45	6
22	38	1
239	239	17
217	218	3
27	27	16
215	215	5
18	19	2
115	115	4
15	15	17
119	119	4
228	228	9
104	105	3
234	236	2
80	80	11
114	120	4
233	235	6
197	222	1
194	196	2
68	79	3
129	130	5
109	109	5
166	166	7
222	222	10
108	108	10
0	0	7
138	168	3
134	134	9
241	241	20
204	237	2
80	82	1
127	127	12
152	152	6
26	26	10
12	39	2
197	197	3
229	229	11
40	56	3
59	59	8
236	236	6
162	162	6
65	72	2
99	112	2
153	156	10
34	34	6
9	27	1
171	201	1
25	38	1
147	147	7
211	212	7
200	200	3
44	76	3
183	183	19
5	8	2
149	149	10
106	106	15
85	85	11
52	52	12
185	186	4
25	25	4
78	78	6
120	120	5
238	238	12
23	23	11
128	128	7
153	153	6
101	113	2
204	236	3
231	236	5
73	75	2
101	102	1
144	147	2
79	107	7
225	232	4
6	6	3
204	204	4
72	210	4
136	156	3
175	175	1
67	67	9
220	227	5
96	96	4
120	123	1
7	8	8
210	210	1
135	135	4
57	82	1
59	88	4
46	47	3
159	159	2
145	155	2
45	184	3
45	81	3
76	76	3
129	131	3
49	50	2
163	167	2
189	189	6
204	205	7
143	167	5
220	225	1
103	103	3
164	164	8
172	172	13
134	135	2
135	164	1
220	220	7
9	9	14
57	57	8
145	148	2
227	227	3
71	71	12
206	218	1
171	171	4
4	16	4
167	167	6
212	213	4
99	114	4
221	221	14
208	209	4
221	222	10
183	197	3
198	200	4
223	236	2
177	177	7
195	208	1
145	145	3
218	230	3
209	211	3
210	230	2
103	104	3
8	8	17
216	216	4
53	85	3
105	105	6
184	184	4
185	185	4
158	168	2
128	176	5
187	187	2
212	229	4
99	100	2
237	237	12
113	123	3
1	1	12
107	108	4
46	46	2
137	137	4
79	79	3
234	234	12
213	213	14
236	240	2
179	179	14
98	98	8
63	63	4
180	180	3
111	111	4
202	202	10
2	3	1
55	55	8
133	163	2
62	62	8
17	115	3
155	174	2
216	232	1
76	78	6
183	187	1
207	241	2
127	135	4
154	155	3
102	107	1
25	43	4
175	200	1
128	148	7
138	152	3
33	58	5
212	212	4
27	30	2
151	164	2
72	72	4
120	134	1
184	222	1
2	2	7
95	100	3
48	48	3
17	18	1
220	221	1
115	131	2
208	223	2
147	170	5
209	214	1
214	214	11
122	122	4
165	177	5
164	200	4
86	86	8
0	6	1
169	169	4
166	179	2
69	69	9
32	32	12
37	37	9
35	35	6
182	183	3
202	228	8
124	126	2
69	78	1
82	82	6
138	176	1
143	177	2
231	231	12
165	165	7
150	158	2
108	124	3
160	160	10
42	42	15
74	75	9
124	124	2
176	178	9
106	119	3
177	186	4
58	58	9
179	180	4
81	81	6
159	162	3
5	5	8
210	215	2
165	166	3
2	28	3
225	234	2
109	110	2
22	22	7
133	133	5
16	17	9
162	176	1
193	194	4
51	51	1
31	35	1
208	208	7
99	101	2
55	57	6
101	151	1
2	7	1
49	49	7
38	38	6
202	229	1
189	212	3
22	42	2
16	16	4
141	155	2
206	207	3
130	130	8
198	217	3
156	156	8
88	88	4
216	218	4
5	13	1
43	77	3
177	239	2
184	189	4
104	104	10
156	169	3
198	219	1
50	52	4
189	190	3
24	65	3
44	63	2
33	34	3
19	19	6
6	7	4
171	172	3
64	64	8
156	166	1
34	36	1
4	7	4
232	235	4
210	211	1
83	83	5
198	226	2
45	63	7
214	215	5
53	53	7
103	133	2
76	77	2
104	127	1
211	237	1
217	217	8
237	239	2
224	224	8
17	52	2
51	68	2
124	125	1
37	60	1
60	60	5
190	190	9
11	186	3
219	235	1
37	39	3
65	223	1
206	206	4
18	18	8
106	116	2
22	37	5
32	220	2
240	240	5
104	141	2
211	242	2
30	133	3
49	101	2
86	98	1
188	188	8
60	239	1
180	182	4
56	57	5
68	68	4
49	68	3
118	118	1
47	47	13
123	157	3
218	218	7
47	74	3
2	52	3
189	218	2
126	161	2
98	100	3
18	20	1
234	241	3
228	233	1
60	115	1
57	60	2
168	168	5
1	2	1
120	125	2
211	211	9
126	126	3
141	177	2
55	218	2
69	114	3
7	7	5
108	121	1
233	234	6
79	119	2
39	39	6
185	221	1
151	158	6
48	82	3
118	132	1
210	212	2
61	61	7
102	102	9
236	237	3
232	232	12
118	133	1
31	31	10
28	33	1
118	134	3
33	33	9
157	157	10
42	44	1
79	103	6
149	150	3
205	235	2
99	99	4
206	236	1
182	182	4
98	135	1
191	218	2
166	202	3
54	54	5
109	115	3
17	32	2
163	190	6
10	20	3
106	150	2
128	132	2
164	165	1
223	224	1
136	169	4
127	130	1
11	13	3
17	17	3
233	240	4
97	117	3
110	110	2
143	143	3
64	66	4
2	19	2
24	24	4
70	131	2
138	177	1
216	227	5
207	235	1
13	40	3
14	15	3
138	193	1
69	209	5
29	218	2
46	83	2
6	15	2
208	235	2
180	199	3
205	205	3
108	131	1
19	20	5
140	140	11
230	230	8
20	37	2
71	218	1
11	11	3
34	35	3
150	151	6
123	124	2
226	227	2
59	61	3
97	171	4
83	84	4
152	154	1
181	197	2
202	204	2
25	57	4
199	227	1
143	178	1
167	190	4
136	136	1
61	62	3
123	151	1
25	74	2
102	135	1
20	54	2
177	201	4
0	20	2
170	170	5
78	80	2
138	147	4
45	47	1
212	221	1
10	10	5
148	149	1
214	216	1
139	148	5
19	39	2
67	68	2
53	88	4
2	4	2
0	33	1
153	162	3
222	237	3
20	20	8
36	39	4
27	61	3
163	187	2
121	121	7
33	36	1
117	118	8
13	13	2
120	122	2
56	80	3
1	6	4
151	151	4
33	73	1
48	52	2
221	236	2
194	194	2
226	226	5
116	145	1
188	189	4
5	6	3
10	21	1
234	235	1
26	232	1
12	43	1
178	178	1
182	222	1
166	199	3
44	77	3
109	111	3
121	130	1
160	161	4
72	136	1
146	147	2
146	177	1
77	77	2
158	158	3
70	70	2
29	52	1
46	77	3
185	187	2
130	137	3
205	233	1
166	168	2
80	81	1
0	3	2
33	35	1
0	19	1
43	43	6
79	118	1
171	218	1
182	198	1
208	220	2
162	192	4
203	203	3
46	168	1
86	110	2
68	77	1
117	117	2
139	140	1
239	240	4
67	79	1
107	107	4
14	25	2
166	167	1
47	75	3
128	143	1
60	114	2
161	191	2
0	224	3
146	156	1
54	55	1
28	133	2
34	57	1
15	16	2
153	154	4
8	30	2
227	237	5
174	174	3
163	194	1
160	185	2
144	145	3
140	142	2
43	106	1
18	52	1
207	231	1
88	109	1
88	239	5
183	189	1
20	21	3
199	200	2
104	133	2
57	84	1
181	184	1
113	114	1
181	181	2
118	131	2
33	53	1
144	144	3
181	182	5
208	229	2
152	242	1
188	212	1
207	230	2
9	10	1
70	73	2
16	34	2
21	38	1
36	37	2
169	171	4
158	159	2
161	175	1
27	29	2
203	238	2
125	154	2
13	41	2
19	130	1
191	192	5
198	198	4
211	213	1
199	199	2
127	129	1
191	191	6
141	141	2
22	23	1
177	190	2
23	39	2
113	113	3
189	210	3
9	11	1
59	113	1
18	53	1
163	189	1
146	146	4
226	237	2
194	226	1
14	76	2
50	51	2
156	157	3
208	222	3
163	178	1
137	177	1
40	41	2
235	236	2
117	124	1
77	78	1
172	230	2
30	30	1
58	90	1
197	198	3
200	201	2
20	194	1
4	5	2
22	36	1
88	99	2
166	187	3
193	193	1
58	60	1
3	33	1
178	180	1
70	72	1
179	183	1
8	240	2
103	121	1
72	133	2
100	165	1
131	151	1
197	227	1
26	29	2
224	231	1
139	139	2
105	146	2
128	130	1
150	156	2
10	192	2
4	4	2
57	81	3
116	187	1
209	226	3
50	162	2
117	179	1
196	227	1
131	131	1
161	174	1
231	232	1
104	139	2
13	68	4
26	27	3
14	24	1
136	175	2
17	20	4
45	77	3
225	226	1
115	119	2
168	169	2
138	138	1
216	233	1
45	78	2
108	116	1
21	22	2
30	31	2
42	43	1
112	112	1
32	33	2
25	39	1
171	189	1
238	239	4
146	148	2
142	143	1
25	26	1
235	235	5
101	101	2
19	21	1
158	163	2
1	38	1
192	192	6
142	142	3
43	44	1
47	73	1
215	216	1
4	31	1
31	33	1
55	128	3
180	187	2
42	83	1
10	45	1
192	193	1
205	231	1
232	238	2
102	113	1
230	240	1
140	141	1
50	53	1
31	36	1
223	241	1
215	220	1
28	30	1
190	193	1
103	126	2
12	41	1
208	231	2
111	154	1
79	82	1
199	201	1
161	161	1
62	85	1
221	223	2
21	194	1
182	213	1
136	137	1
217	223	1
52	53	1
179	182	2
104	122	2
164	191	1
10	184	3
100	137	1
206	231	1
62	78	2
67	69	1
25	95	1
159	163	1
129	129	1
219	224	1
242	242	1
106	122	1
173	175	1
192	195	2
141	142	1
155	156	1
123	150	1
202	216	1
185	211	1
28	217	1
20	23	1
200	229	1
65	73	1
113	121	1
25	46	1
50	130	1
173	174	1
38	67	1
204	229	1
219	227	1
188	232	1
100	104	1
