182	182	17
159	159	22
186	187	4
154	157	2
149	149	20
188	188	9
164	167	1
168	168	25
184	190	6
144	145	2
64	65	4
0	119	6
119	119	10
150	150	13
20	20	13
123	123	7
121	121	14
42	42	11
41	42	5
2	3	10
197	197	4
5	6	2
147	147	4
158	159	4
153	153	12
26	87	5
175	176	5
122	122	10
145	177	1
184	184	16
172	172	8
118	133	1
33	79	5
99	102	2
163	163	5
135	135	10
13	13	21
9	9	16
3	4	13
26	27	8
34	34	9
47	48	8
57	57	9
72	72	12
195	195	11
13	14	7
11	33	1
193	193	18
17	19	5
119	140	1
0	3	3
14	15	7
148	156	6
158	158	6
85	85	2
124	127	5
144	144	10
94	104	1
32	32	21
101	101	9
6	6	14
62	62	2
18	63	2
188	189	10
104	104	2
8	8	15
15	15	15
166	166	13
111	111	6
25	89	1
63	86	2
66	66	11
8	34	4
100	112	3
186	186	24
155	155	21
46	46	2
11	12	6
179	179	12
140	141	5
136	137	3
51	51	7
142	168	9
179	180	8
187	187	13
173	174	6
38	38	7
47	47	7
19	24	4
133	139	3
154	154	4
0	0	13
80	80	6
115	141	4
175	175	15
161	164	1
142	170	4
99	165	4
190	190	13
41	154	3
81	82	9
187	189	7
26	43	3
189	189	4
69	69	7
45	123	4
129	129	16
156	156	6
29	30	3
176	176	6
23	23	12
0	136	1
78	78	10
133	167	2
76	76	8
41	41	5
192	192	20
49	57	2
27	140	2
194	194	17
8	145	1
143	143	9
188	190	3
44	124	1
152	173	1
97	97	9
154	161	5
161	161	16
112	119	4
170	171	5
166	171	7
109	111	6
183	183	19
138	138	10
152	152	11
81	81	4
60	60	10
49	49	8
128	128	8
151	152	9
102	115	2
161	162	6
45	45	14
125	127	5
108	112	3
55	55	20
61	61	11
114	178	6
43	44	3
152	153	8
182	183	3
132	139	2
102	102	6
89	118	5
83	86	3
70	70	2
196	196	10
101	105	1
170	170	14
160	160	5
88	88	10
145	146	5
27	42	2
66	69	1
185	185	10
113	113	9
19	19	15
24	24	14
80	81	4
50	50	9
174	175	3
0	23	2
109	109	9
176	177	8
29	29	8
18	33	3
30	30	7
63	85	5
58	58	11
53	53	6
108	151	2
7	8	6
157	157	12
24	25	3
165	166	6
65	65	14
39	39	8
153	154	4
137	138	3
79	79	10
103	104	10
164	164	5
156	157	3
149	150	5
164	171	2
115	115	10
49	128	2
68	69	1
21	22	5
116	187	1
173	175	2
0	2	2
131	131	12
25	27	2
17	63	2
9	44	3
186	194	2
2	28	1
66	68	2
173	173	22
189	190	2
102	112	6
1	23	3
47	57	2
97	183	2
106	110	5
4	9	2
178	179	1
142	143	10
69	71	2
170	186	7
141	141	8
27	27	10
39	40	6
2	2	6
108	108	7
31	31	18
117	117	7
133	133	14
37	37	5
21	21	3
101	177	6
99	173	1
130	131	3
146	146	10
17	17	17
169	169	15
55	79	2
112	112	18
83	83	7
178	192	1
147	149	4
148	148	3
8	42	5
16	16	7
47	122	2
73	74	4
136	136	5
108	109	6
114	115	7
19	25	6
98	105	3
116	179	1
174	179	2
102	121	3
54	55	5
74	78	8
109	113	1
55	56	4
74	74	4
127	127	6
181	181	11
33	33	4
116	117	6
34	36	3
42	43	1
56	57	4
118	118	13
0	1	2
168	169	1
131	185	2
115	119	4
98	100	3
174	191	2
150	159	3
124	125	4
178	178	13
14	14	10
151	163	2
144	150	1
134	135	8
151	151	6
103	115	2
117	187	1
18	22	1
165	165	10
162	166	2
60	78	4
183	184	3
119	196	3
187	188	2
159	161	1
155	158	2
31	32	5
74	75	4
118	120	4
142	153	3
185	186	5
8	43	2
9	43	3
93	94	3
44	44	5
3	187	4
121	184	4
149	151	5
132	132	4
191	191	15
175	180	1
40	40	8
145	149	1
94	94	11
23	117	2
43	43	6
134	134	5
17	35	1
0	16	1
163	164	2
89	89	17
50	51	3
119	141	2
110	110	1
162	163	1
56	56	12
20	23	7
35	39	2
50	56	2
97	184	2
61	76	4
117	118	3
113	114	5
47	55	5
86	86	5
67	67	2
116	118	3
191	192	3
68	68	17
61	62	10
35	85	1
16	30	1
10	10	6
52	52	9
5	5	4
23	116	2
19	31	1
36	36	11
174	174	8
97	173	1
131	167	1
122	127	1
120	121	2
137	137	6
124	133	3
71	71	8
28	28	7
88	89	8
157	172	2
27	76	1
16	17	1
26	26	2
37	79	1
108	197	1
105	107	3
73	73	3
124	140	3
159	160	5
36	37	2
105	105	6
177	177	5
143	144	3
20	31	1
181	182	2
47	49	2
20	79	1
96	96	2
12	12	13
98	99	7
54	54	8
12	32	4
65	71	4
20	62	1
142	177	1
192	193	9
103	120	2
167	171	1
33	34	4
8	9	5
87	89	2
171	191	3
18	18	10
84	86	5
1	1	10
180	182	4
115	138	4
48	49	2
146	147	2
194	195	4
143	173	3
87	87	2
193	194	1
175	179	2
108	113	1
106	107	3
148	151	4
29	87	4
95	121	4
28	83	3
59	59	2
0	5	3
63	63	6
0	4	3
172	187	1
112	114	1
78	81	3
94	98	5
139	139	2
3	5	2
172	173	1
35	35	6
171	171	7
95	135	1
123	126	1
95	95	8
130	134	2
0	21	2
116	116	8
5	23	2
20	21	1
116	131	1
4	23	1
82	82	3
49	50	5
59	81	3
46	125	2
38	39	2
22	23	2
129	138	1
132	133	8
86	87	2
80	84	1
114	114	5
130	141	2
57	122	1
99	99	7
157	178	2
98	98	2
53	54	2
169	170	6
22	22	2
51	118	2
100	100	9
107	185	4
151	157	2
7	34	2
65	66	2
67	68	4
43	98	1
163	167	6
105	111	1
152	172	3
9	23	3
23	169	1
48	48	2
126	127	2
38	42	1
103	106	2
110	153	3
31	78	1
167	167	4
11	11	9
136	141	4
58	60	1
9	40	1
63	64	2
102	103	2
4	4	6
66	67	2
103	103	6
27	141	1
55	57	3
23	24	1
144	153	3
103	165	2
135	136	9
116	160	2
118	146	4
139	140	3
11	122	1
36	86	2
104	106	2
174	192	3
9	38	3
40	155	1
167	168	1
57	123	1
64	64	3
144	159	2
62	67	5
13	15	2
95	96	3
57	58	3
132	138	1
84	133	2
133	134	4
83	84	1
28	29	1
26	42	3
25	25	6
108	195	3
5	20	6
123	124	3
130	136	3
12	13	6
189	191	7
141	177	1
102	105	3
120	133	1
57	71	2
121	126	1
175	178	2
23	30	2
119	120	1
180	180	9
15	69	3
64	74	1
73	75	4
119	134	2
128	136	2
100	119	2
196	197	3
100	104	1
47	58	1
56	60	1
109	185	1
18	27	1
88	101	1
101	139	3
27	89	1
109	110	2
72	79	1
149	160	4
101	196	1
165	167	4
110	184	2
31	79	3
93	93	4
130	132	3
124	124	1
51	79	2
107	184	1
27	29	3
176	179	2
160	161	3
106	106	6
20	22	4
100	175	2
117	160	4
101	107	1
121	122	2
59	60	6
111	112	1
88	119	1
15	89	1
106	111	2
4	5	3
95	134	2
190	191	2
6	9	2
109	184	2
48	123	1
145	145	2
9	45	2
69	70	2
142	142	2
7	7	8
169	186	6
11	60	2
184	186	1
49	58	1
138	139	1
177	178	1
166	168	3
77	77	2
123	127	3
137	140	3
94	95	2
34	38	1
74	76	1
166	167	1
127	128	2
97	99	1
2	6	1
127	140	1
24	141	1
52	53	1
40	43	1
30	31	1
130	130	3
142	185	1
6	8	3
65	67	1
160	179	1
120	151	1
148	149	1
154	155	1
37	38	1
60	61	2
120	120	1
130	135	1
144	146	3
145	151	1
131	140	1
116	133	1
7	151	1
32	33	1
157	158	1
100	101	1
93	98	1
94	134	1
157	165	1
99	183	1
40	41	1
6	7	2
161	163	1
125	126	1
25	31	1
163	166	2
45	46	1
72	73	1
0	118	3
186	190	1
144	152	1
110	111	1
84	124	1
31	53	3
135	138	1
112	152	2
179	188	1
19	20	1
34	43	1
162	162	1
13	90	1
165	171	2
55	78	1
56	128	1
50	57	1
25	29	1
15	30	1
195	196	1
86	99	1
82	83	1
61	85	1
79	80	1
80	85	3
122	162	1
3	3	1
17	24	1
61	74	1
68	82	1
149	152	1
122	123	1
3	8	1
148	163	1
144	175	1
9	10	1
170	174	1
33	42	1
94	97	1
125	125	1
77	78	1
122	129	1
