19	31	5
171	190	3
31	36	1
118	118	6
19	19	4
1	1	9
108	108	3
105	105	8
171	172	3
38	38	6
164	164	9
121	179	1
30	30	10
83	185	2
181	181	10
180	190	6
19	20	7
134	135	1
78	179	4
114	114	8
87	183	5
174	176	4
78	79	4
146	147	3
74	149	1
177	178	7
77	77	9
15	15	14
74	74	9
6	6	8
60	60	1
105	107	1
42	42	10
94	94	5
17	17	9
110	110	18
11	12	9
124	186	2
129	129	14
99	100	8
54	54	9
53	53	10
31	31	6
67	80	3
81	81	2
22	24	5
17	80	2
89	89	8
10	10	1
59	60	2
85	85	9
29	29	4
54	55	7
171	173	1
100	100	6
56	56	7
14	121	3
31	32	5
154	154	4
8	8	10
32	32	9
0	0	5
143	143	14
156	156	6
62	63	5
173	190	4
187	187	5
75	75	4
2	2	10
98	178	1
87	184	1
156	160	3
80	83	1
86	86	6
38	39	3
97	98	4
57	57	11
139	139	6
43	118	7
78	78	5
155	159	7
137	137	9
177	177	5
127	127	13
16	17	4
55	56	2
102	102	6
97	97	12
27	27	9
134	137	3
88	88	9
96	96	16
78	183	4
146	146	10
166	166	6
172	172	2
153	153	9
155	155	3
42	125	1
150	151	5
187	189	1
7	57	1
25	25	3
131	135	1
5	5	4
91	91	8
59	184	2
142	143	1
126	133	4
55	55	6
7	15	3
61	63	1
186	186	10
149	149	4
178	179	3
65	67	4
18	20	2
108	109	1
171	187	6
15	16	6
152	152	8
40	40	9
174	174	10
18	92	4
124	124	4
122	122	8
103	113	3
95	96	2
105	115	3
157	157	4
148	148	5
130	181	1
167	167	7
52	52	2
113	113	11
158	158	7
41	42	4
111	111	7
72	72	4
74	76	2
46	46	4
159	159	15
183	183	5
66	99	1
80	135	2
76	76	5
56	139	4
106	106	7
126	126	8
103	103	5
10	53	1
7	7	2
189	189	9
121	121	4
43	43	4
22	112	2
113	114	4
35	36	3
110	111	3
140	140	5
135	135	2
84	84	10
115	116	3
79	79	3
70	70	1
12	12	2
21	21	3
90	90	5
152	153	4
37	38	2
101	130	3
70	77	3
163	163	2
16	16	4
24	24	2
111	115	2
28	28	1
55	146	2
71	77	2
3	3	8
25	113	3
151	151	11
45	45	7
107	125	1
100	101	4
25	64	4
73	73	9
115	115	7
88	149	1
117	118	7
63	127	1
101	102	2
179	179	9
4	15	3
71	71	3
107	108	5
117	123	5
138	138	6
80	80	4
149	150	6
66	66	3
145	145	4
54	186	2
148	168	2
2	3	5
62	62	9
98	99	4
59	59	5
2	39	1
169	169	7
182	182	4
119	120	3
133	135	2
123	126	3
93	94	3
124	178	2
39	61	3
13	15	4
61	62	2
37	37	7
73	74	2
29	47	4
142	142	2
144	144	6
102	108	2
40	127	1
19	21	3
34	34	4
62	89	2
4	5	5
12	14	2
87	87	6
112	112	2
170	170	5
150	150	8
110	112	3
0	128	3
90	91	1
32	46	1
41	43	2
21	29	3
125	125	6
4	85	4
108	150	2
26	26	1
91	94	1
63	65	4
57	62	1
179	180	5
99	99	6
73	172	2
165	165	10
103	104	1
143	144	2
67	67	9
184	184	8
65	65	2
102	114	4
123	123	4
48	120	2
137	140	3
82	120	1
47	47	4
82	83	3
102	109	1
67	128	2
101	101	2
101	181	1
65	66	3
136	136	3
25	109	2
171	171	2
106	162	2
36	36	3
87	182	2
98	98	4
86	91	1
73	184	2
9	10	1
82	82	3
9	47	3
108	156	2
60	61	4
66	67	3
54	141	1
167	168	1
65	68	1
185	185	7
21	22	3
132	133	1
178	188	1
1	4	1
48	48	4
131	131	2
44	44	3
175	180	2
184	187	3
18	88	3
91	96	1
188	188	4
138	139	3
16	85	1
13	13	4
77	85	5
35	35	2
188	190	1
106	161	1
32	47	3
74	75	4
134	134	4
104	104	4
19	53	2
173	176	1
14	15	3
23	23	9
88	183	1
4	4	2
112	113	3
154	169	3
9	30	1
104	163	2
68	68	3
1	5	1
142	146	3
168	170	1
141	141	5
56	140	1
127	128	2
53	143	1
73	103	1
160	160	1
65	135	4
112	116	1
82	107	3
94	100	1
20	20	2
40	43	2
132	136	2
106	145	4
40	41	2
54	93	2
135	141	1
41	41	7
83	83	2
116	116	3
13	48	1
146	168	2
26	77	2
18	46	2
18	18	2
37	47	2
144	146	1
32	33	1
33	34	2
190	190	3
85	184	1
52	143	1
132	132	4
33	33	1
15	123	1
103	164	1
5	189	1
162	165	1
109	109	4
120	123	3
39	39	3
2	7	1
66	98	1
128	129	1
30	31	2
22	22	3
26	70	1
18	31	1
151	153	1
122	178	1
52	95	2
169	170	1
95	95	1
175	175	1
113	172	3
153	154	1
59	61	1
71	76	1
30	32	1
130	148	1
23	24	5
61	136	2
125	128	2
101	109	1
136	178	2
56	138	2
106	114	1
130	130	2
154	155	1
7	139	1
168	168	2
47	120	3
79	83	1
87	95	1
188	189	1
111	114	1
156	157	4
162	170	1
111	112	1
119	119	2
4	170	2
185	186	2
136	137	2
72	73	1
8	47	1
3	4	2
11	11	1
170	171	1
171	174	2
138	140	1
100	135	1
25	33	1
118	125	1
77	171	1
32	36	2
39	119	1
82	85	1
92	92	2
40	42	1
18	21	2
14	14	1
15	23	1
128	128	2
15	24	3
15	120	2
124	129	3
63	63	2
95	97	2
102	110	1
118	126	1
176	176	3
106	116	1
29	30	1
149	151	1
15	39	3
30	46	1
134	136	1
6	128	1
175	177	1
10	92	1
52	53	1
2	48	1
33	36	1
117	121	1
43	127	1
39	120	1
117	117	1
85	86	1
77	187	1
25	26	2
144	145	1
56	135	1
69	70	1
160	165	1
