45	45	11
106	106	7
184	186	4
112	112	6
197	197	22
64	64	9
62	205	1
13	13	5
104	124	4
51	52	3
137	177	4
63	71	1
114	115	6
213	224	1
225	228	2
64	68	1
193	194	6
124	124	11
33	33	12
197	209	4
103	107	2
65	67	3
108	109	3
201	201	18
59	60	5
115	129	2
207	207	12
1	23	4
121	160	1
80	80	12
26	26	12
34	34	16
45	68	1
25	25	19
86	86	27
102	126	2
200	200	4
149	149	7
27	49	2
38	38	16
52	52	11
215	215	4
233	233	13
1	33	2
234	235	7
224	225	5
84	85	3
7	20	3
1	22	1
187	187	6
57	60	4
73	73	12
187	190	1
77	77	8
59	59	6
155	156	8
12	188	5
121	121	14
186	186	9
170	170	12
33	34	3
166	166	9
185	215	4
175	223	3
21	72	6
80	111	2
123	124	4
168	168	2
39	39	22
179	187	2
35	35	3
161	161	14
44	45	2
51	51	5
181	197	2
20	21	5
54	54	10
66	67	7
58	58	6
161	171	7
18	18	5
25	26	2
46	46	10
30	70	2
227	228	3
213	225	4
208	208	13
228	228	12
202	202	13
74	181	2
31	31	10
141	141	9
222	222	13
11	20	1
129	129	19
166	167	3
27	27	18
183	183	6
199	199	12
170	179	3
181	182	1
240	240	7
147	148	2
17	224	2
152	152	15
195	196	6
99	100	6
56	57	4
156	157	7
157	157	11
9	9	11
154	154	6
39	78	1
239	239	8
63	63	4
148	149	7
237	238	4
43	49	8
153	156	1
8	8	9
21	22	6
69	69	10
137	137	16
139	140	1
9	27	2
210	211	10
53	53	6
104	105	2
187	238	1
49	78	3
221	221	8
20	74	5
115	116	7
235	235	19
220	221	6
48	48	11
18	19	4
67	67	13
164	207	5
68	68	10
82	83	3
6	6	14
63	123	3
82	82	11
238	238	12
47	47	12
198	198	16
0	200	1
163	199	3
114	120	2
174	175	4
226	226	11
146	149	1
97	97	6
66	66	3
24	25	4
229	229	3
88	89	1
172	236	4
135	135	9
194	194	12
32	32	8
175	176	2
207	231	1
216	216	10
220	220	8
88	88	16
201	202	5
60	60	8
67	68	3
144	145	3
153	153	4
182	183	4
105	105	12
28	28	3
24	24	10
0	1	2
111	126	3
174	174	10
37	37	4
101	101	10
74	220	1
203	204	4
160	179	2
212	212	13
20	20	8
55	55	4
193	193	2
139	139	12
189	201	1
174	176	1
134	134	7
224	224	4
160	160	5
28	45	2
163	166	4
103	192	3
173	173	10
228	232	2
118	126	2
222	223	5
238	240	1
119	120	1
70	70	13
234	240	2
228	230	7
186	214	1
123	123	10
39	86	3
196	196	10
105	106	3
15	15	9
65	66	4
113	135	2
154	187	3
234	242	4
198	208	1
16	17	8
182	182	7
74	74	14
29	29	12
214	215	10
83	84	1
165	165	5
7	7	4
83	83	4
23	23	5
36	36	9
117	117	9
156	156	4
213	213	5
117	119	9
5	6	11
103	104	8
73	99	4
184	184	14
48	49	9
77	143	1
220	225	2
145	145	2
12	12	5
100	153	1
85	85	11
211	221	3
160	208	2
56	95	2
231	231	4
49	49	15
204	204	3
118	118	6
22	23	2
158	158	8
227	227	12
111	135	4
76	76	13
204	206	2
152	154	2
213	216	6
172	234	2
17	17	9
133	148	1
154	156	2
103	125	2
180	180	8
21	23	2
155	155	10
65	65	11
39	54	1
114	118	2
44	48	1
217	233	2
118	164	3
74	75	7
136	136	10
109	109	7
59	88	7
186	187	5
217	218	7
79	137	3
217	232	2
190	191	6
2	89	3
125	127	1
21	21	3
3	68	2
11	11	16
120	134	2
75	77	1
143	143	10
214	214	13
205	205	10
194	195	3
122	122	6
103	145	3
51	53	14
192	192	17
102	107	2
120	128	3
99	99	1
179	192	2
68	230	4
20	22	2
9	10	6
226	227	10
210	210	8
164	164	8
211	213	3
196	207	1
162	162	11
39	81	1
137	138	6
146	146	15
106	107	3
175	175	15
113	113	10
47	48	8
62	74	4
228	229	5
125	125	6
5	68	4
72	73	2
241	242	5
29	46	3
19	19	10
163	163	8
79	79	6
62	63	5
230	230	12
163	197	2
52	53	8
20	80	4
10	10	5
197	207	3
39	40	2
34	35	2
187	189	1
229	231	5
156	187	1
52	55	5
108	108	3
159	159	6
37	65	4
65	236	1
145	147	1
188	189	3
167	167	10
17	19	3
232	234	3
50	50	9
159	192	1
3	3	12
184	185	2
76	77	2
169	169	10
27	28	1
120	120	10
206	206	7
5	5	10
18	20	1
0	2	2
140	142	5
19	20	2
112	161	4
175	222	3
128	129	2
59	78	2
172	172	10
190	190	11
40	41	3
217	231	2
6	18	2
203	227	2
3	4	2
60	61	1
191	191	5
84	84	4
199	204	1
179	232	2
14	16	2
198	199	1
42	42	3
181	208	2
128	173	3
242	242	9
138	139	5
241	241	9
140	140	12
84	238	2
75	75	9
170	171	5
133	134	6
27	30	1
175	179	6
38	41	1
199	210	3
218	218	5
107	108	2
196	216	2
127	127	7
133	204	1
82	85	1
71	128	3
152	153	2
129	191	3
95	148	3
31	33	3
37	38	1
105	108	2
4	5	8
197	230	6
235	238	5
150	150	5
14	14	7
196	226	1
169	170	4
238	239	4
81	81	3
139	143	1
162	164	3
104	107	1
154	155	7
105	153	2
49	50	2
0	23	1
145	146	2
198	200	2
27	80	1
167	180	2
201	236	3
22	34	5
149	153	2
128	128	3
28	62	4
153	215	2
76	107	3
1	1	5
100	100	7
170	172	1
104	129	2
122	123	2
176	233	1
83	136	5
57	142	1
55	60	2
103	117	2
42	55	3
151	151	13
91	91	1
117	130	3
23	81	3
217	217	9
61	61	13
236	237	4
16	16	11
234	236	1
225	227	4
175	178	1
71	209	2
118	119	1
208	220	3
34	46	1
219	219	9
224	226	2
1	2	1
101	102	3
237	237	12
19	240	2
6	67	4
20	68	2
11	30	4
5	8	2
38	61	2
220	222	2
43	43	10
150	151	6
109	120	4
139	141	1
223	223	11
162	165	1
32	212	1
4	4	9
217	219	5
24	56	1
242	243	1
0	0	8
176	176	2
181	181	8
36	68	3
73	74	3
181	234	3
17	23	1
189	189	6
216	234	3
168	169	2
120	121	2
138	138	2
57	57	6
223	224	4
144	144	9
76	78	1
136	137	6
114	114	4
55	61	1
40	52	3
58	77	5
102	102	6
13	14	1
3	65	4
126	130	2
50	51	5
159	160	6
127	174	1
65	76	2
71	71	5
108	117	4
98	138	1
69	133	2
45	54	3
120	127	2
194	200	4
185	185	8
116	181	1
159	187	4
203	203	7
210	212	3
104	151	1
211	211	5
107	107	11
10	11	2
64	69	2
18	198	2
115	115	5
107	124	3
175	177	3
173	195	1
170	204	1
118	159	1
119	119	5
147	147	4
30	137	2
217	230	2
188	197	3
68	71	1
126	126	4
153	154	4
236	240	1
10	30	1
11	15	4
9	65	1
23	24	2
221	222	3
225	225	3
172	192	1
116	116	2
142	143	3
195	195	4
158	161	2
28	29	1
106	109	2
167	170	4
198	205	1
216	217	2
170	181	2
62	62	2
102	110	2
2	23	2
107	166	1
197	198	2
204	227	1
215	227	2
103	103	5
78	78	2
191	203	1
24	240	2
122	126	1
192	231	1
18	53	1
137	166	1
205	235	5
55	56	1
32	35	4
78	82	2
80	129	4
84	100	2
125	126	1
136	145	1
9	11	1
98	99	2
180	186	1
129	195	2
65	68	1
43	46	1
53	70	3
103	105	2
234	234	3
207	227	1
129	173	2
189	190	5
179	179	8
38	72	1
98	98	4
50	72	2
149	150	2
181	232	3
136	160	6
95	95	2
107	143	1
43	63	2
55	73	1
128	189	3
42	43	1
199	200	3
40	40	4
218	222	2
135	149	1
76	183	4
30	30	1
119	127	6
2	33	1
105	159	1
111	111	4
30	64	1
168	183	1
227	230	2
149	152	2
44	74	3
157	158	3
64	65	2
95	96	3
215	216	1
193	207	1
87	89	3
112	113	1
102	103	2
152	155	1
192	218	1
171	171	3
209	209	4
63	64	1
216	220	1
86	222	1
41	116	2
113	114	2
221	226	1
151	189	1
48	73	2
118	123	1
115	189	2
46	233	3
139	142	4
105	173	1
145	186	2
99	206	1
218	237	1
233	238	1
18	22	1
65	84	4
40	42	2
150	152	2
179	208	3
43	133	1
173	174	1
106	159	1
39	41	2
21	52	1
15	97	1
98	235	1
172	173	1
38	39	2
212	218	1
12	49	1
162	163	2
185	187	1
185	186	2
151	152	2
77	142	2
100	101	1
20	217	1
88	91	1
41	41	9
141	142	1
134	135	1
32	37	2
15	17	2
187	209	1
186	209	1
236	236	5
179	240	3
164	165	1
207	224	2
43	52	2
64	242	1
121	179	1
24	181	1
116	117	1
72	72	2
21	57	2
48	50	1
58	61	1
28	32	1
132	134	1
9	52	1
217	239	1
179	180	3
44	44	3
76	145	4
175	220	1
197	210	2
110	138	1
209	214	1
170	193	2
2	2	4
233	234	2
0	4	1
46	89	1
38	73	1
122	127	2
138	146	4
165	166	2
30	31	1
204	205	2
180	183	1
220	223	1
142	142	1
200	236	2
42	61	1
164	194	3
197	239	1
213	240	1
53	63	2
132	215	1
208	232	1
110	110	3
114	119	1
99	150	1
60	80	1
223	237	1
141	147	1
161	162	2
153	155	1
138	148	2
124	126	1
207	219	1
3	63	1
202	210	3
148	148	2
1	3	1
1	30	2
213	214	2
166	191	1
235	236	1
139	178	1
110	180	1
115	117	1
58	59	1
31	32	1
159	193	2
200	201	1
81	160	1
12	13	3
102	149	1
45	47	2
124	125	1
40	53	1
200	209	2
6	69	1
197	238	2
237	240	1
34	69	1
47	110	2
49	75	1
234	237	1
122	167	1
11	12	1
98	128	1
80	81	1
81	82	4
28	38	1
105	107	1
61	62	1
155	187	2
65	73	2
227	229	1
192	206	2
37	72	1
24	206	1
61	238	2
153	157	2
8	61	1
202	219	1
190	192	3
20	24	1
56	76	1
12	31	1
184	187	1
134	203	1
208	218	1
1	35	1
12	143	3
103	153	1
0	30	1
82	84	1
221	223	1
56	56	1
208	217	1
97	99	1
26	27	2
159	161	1
140	141	1
156	162	1
25	234	1
62	149	1
28	71	1
89	89	1
78	79	1
57	59	1
22	38	1
73	161	1
57	58	1
14	15	1
211	212	2
29	144	1
46	85	1
9	29	1
38	40	1
230	235	1
116	119	1
159	189	1
75	186	2
153	164	1
142	184	1
68	69	1
135	166	1
178	179	1
232	233	2
21	79	1
243	243	1
230	231	1
28	39	1
17	51	1
233	242	1
212	226	1
