38	38	2
47	129	1
21	22	7
21	34	2
13	14	3
95	96	3
104	104	6
155	155	2
40	40	3
94	94	2
131	131	4
82	82	9
144	150	3
109	113	1
34	35	5
149	150	3
130	130	3
11	11	4
29	30	2
114	114	5
120	121	4
36	36	8
91	92	4
32	33	3
95	95	3
152	155	1
41	54	4
34	37	1
119	119	7
137	137	14
141	141	6
45	45	5
41	46	3
127	133	2
53	55	4
23	23	7
136	136	4
113	114	2
15	15	4
148	148	1
111	145	1
91	105	1
52	126	1
107	107	3
90	106	1
114	123	1
87	88	3
26	26	8
46	50	6
41	49	2
112	112	7
98	103	2
71	71	4
86	86	3
13	13	4
152	152	7
34	34	1
8	10	3
120	120	5
124	125	3
88	90	4
44	44	8
36	38	3
88	89	6
78	78	4
91	91	2
13	79	1
22	23	2
2	24	3
86	150	2
110	110	6
83	84	7
154	154	1
29	70	3
55	55	4
90	90	7
133	133	3
10	10	3
71	158	1
93	94	3
54	54	4
118	118	1
18	18	9
98	102	2
127	127	4
131	132	1
79	79	8
130	131	3
99	100	1
133	138	1
132	133	3
22	22	3
70	70	7
43	43	11
31	32	5
28	30	1
80	80	5
27	27	7
117	117	4
121	121	6
67	156	1
114	141	6
41	41	3
24	24	5
113	113	5
65	124	1
8	8	6
52	54	1
29	69	2
63	63	3
147	147	3
33	33	5
25	78	1
38	39	2
92	94	3
48	48	3
2	2	3
129	130	3
149	149	1
20	21	4
109	109	4
142	142	2
83	147	1
145	145	7
42	42	9
26	28	3
126	127	4
16	16	5
118	123	2
31	80	2
147	151	1
132	135	1
78	79	2
7	16	3
25	25	11
135	138	1
158	158	2
84	85	2
93	95	2
67	68	2
131	133	1
106	106	3
12	18	1
106	107	5
40	53	1
108	108	2
56	61	2
44	45	3
123	124	5
94	97	1
90	92	1
1	1	3
52	53	1
101	101	4
0	0	2
88	88	3
26	27	2
93	93	2
18	19	2
156	156	9
151	151	1
84	84	3
144	145	4
19	19	12
109	110	4
34	36	1
14	14	1
127	138	1
62	62	2
108	141	2
81	158	2
56	157	2
138	138	6
126	126	2
15	16	1
7	8	2
105	105	1
70	103	2
155	159	1
48	49	2
157	158	2
68	158	2
9	9	4
73	73	1
96	96	1
90	91	2
5	5	5
32	32	3
113	141	2
107	108	1
4	4	5
134	134	9
146	147	2
122	125	2
89	89	3
148	151	6
29	29	2
92	93	6
104	106	2
85	85	2
68	71	1
21	21	1
116	116	4
67	67	3
109	111	1
16	17	3
42	43	4
104	105	1
81	81	1
68	69	2
139	140	1
10	11	1
74	74	1
30	30	1
80	81	2
50	51	3
55	56	2
77	156	1
38	40	1
69	69	4
18	21	1
153	153	4
82	147	1
85	86	2
23	24	2
62	127	1
109	136	1
111	112	1
2	3	1
28	28	2
115	115	1
140	141	6
140	140	5
88	120	2
47	50	1
107	111	1
116	117	2
111	142	2
88	148	2
17	19	1
110	111	1
93	96	1
31	31	6
108	110	3
125	127	2
110	113	2
35	35	3
87	108	1
69	70	2
79	84	1
128	128	3
135	137	1
135	135	2
75	75	1
17	17	1
66	66	2
105	148	1
57	123	1
12	12	2
99	99	3
7	84	3
57	82	2
100	100	4
124	124	2
72	72	1
3	3	1
117	123	1
138	140	1
125	125	4
119	120	1
7	7	1
47	48	1
91	99	3
132	141	1
37	45	1
47	140	1
46	46	1
92	106	1
88	158	1
111	111	3
103	104	2
49	49	2
70	71	1
6	6	1
42	44	3
19	20	2
51	51	1
68	68	1
47	47	2
97	97	1
87	87	1
50	50	1
132	134	2
144	144	3
55	121	1
9	10	1
108	109	1
93	98	1
86	145	1
129	129	1
139	139	3
136	137	1
80	82	2
87	89	1
64	64	1
33	34	1
100	104	1
50	63	1
87	111	1
114	119	1
118	119	1
31	33	1
34	38	1
89	132	1
18	20	1
106	149	1
14	15	2
36	37	1
50	127	1
112	144	1
92	92	1
