34	34	14
76	76	7
36	36	7
49	51	10
13	13	35
19	19	16
47	47	20
38	38	37
53	54	5
12	18	3
28	28	11
27	27	16
5	5	17
49	54	2
33	37	3
7	8	5
64	64	12
28	36	3
27	28	12
61	61	22
6	7	8
45	47	6
21	29	7
19	63	3
9	9	25
57	59	3
11	71	4
73	75	1
23	24	6
61	64	2
22	23	6
71	73	11
50	53	3
26	28	2
3	3	13
71	71	9
29	30	6
44	45	8
32	32	10
1	10	2
27	30	2
20	20	22
0	43	4
0	0	19
77	77	9
4	8	8
39	40	8
1	2	10
1	1	14
35	35	29
37	42	3
5	6	21
41	41	11
58	58	17
44	44	14
57	60	6
68	70	5
74	74	16
23	32	4
40	41	6
24	24	16
60	61	6
70	71	5
68	69	5
7	7	14
12	12	8
70	70	15
55	55	15
20	22	4
4	4	15
3	33	4
50	71	4
43	50	3
31	31	15
65	70	2
2	2	9
45	45	9
21	31	7
47	53	2
40	40	19
26	27	7
75	75	21
0	37	1
52	67	2
22	22	18
42	42	12
69	69	11
30	32	1
62	62	5
6	6	20
9	10	1
11	11	17
54	60	4
66	67	1
68	71	1
29	29	25
67	67	13
20	29	2
54	54	10
41	42	15
23	23	4
39	41	2
54	61	3
48	48	11
37	44	2
21	26	6
6	13	2
65	65	8
48	51	2
21	21	13
57	57	10
67	68	8
28	35	1
68	77	7
2	13	3
43	43	19
63	63	9
50	50	6
4	10	2
49	49	10
0	1	2
4	77	3
68	74	2
69	74	2
26	32	1
56	59	8
54	77	2
30	30	7
60	60	6
24	25	4
8	8	7
33	34	3
56	56	17
32	35	4
20	21	3
37	37	12
62	67	2
22	31	5
49	50	7
0	8	4
72	74	2
43	44	5
7	11	4
36	75	2
11	75	3
4	43	4
62	64	3
64	65	3
51	52	3
33	64	2
6	8	5
59	60	6
36	39	1
73	74	2
14	14	5
34	41	2
58	70	8
55	58	1
63	64	9
3	4	4
6	11	3
32	33	1
10	11	8
65	66	5
64	67	1
8	19	2
73	73	13
10	10	3
62	63	9
56	57	5
52	53	8
55	59	2
74	77	2
14	20	2
51	51	3
50	61	3
18	18	1
53	53	14
41	46	2
26	26	4
42	47	1
31	34	1
12	34	1
66	69	4
39	39	7
9	19	3
8	9	5
52	64	2
59	59	17
48	77	2
9	39	2
48	49	6
75	76	10
68	68	9
34	37	1
2	3	1
20	33	3
39	42	1
5	8	4
70	75	7
33	36	2
28	29	5
36	41	2
35	36	8
29	37	2
58	61	4
37	38	4
69	70	3
49	52	1
32	71	2
12	13	4
0	34	1
9	74	1
12	76	4
39	63	4
32	39	1
34	35	8
71	75	4
72	72	7
30	36	1
39	44	1
38	41	2
37	40	1
9	32	3
66	66	10
10	32	3
51	69	2
61	62	5
56	58	1
6	75	1
50	75	1
20	46	1
72	73	7
5	68	1
52	52	3
46	50	1
25	25	6
44	47	3
59	67	1
19	62	2
69	73	6
46	62	3
5	12	2
11	25	2
31	35	1
58	60	2
38	40	4
38	39	7
5	38	4
5	13	4
20	34	2
46	46	7
44	74	3
4	7	1
5	77	3
33	33	10
19	46	1
44	48	3
50	55	4
64	72	2
9	12	1
5	73	2
9	29	3
37	49	1
8	12	4
5	11	3
71	76	4
14	31	1
26	31	3
28	52	1
32	34	2
52	62	1
33	63	1
20	62	2
48	62	1
54	55	2
51	53	2
36	45	1
45	50	1
34	36	1
14	30	1
51	68	1
3	5	1
22	34	1
22	29	4
49	69	2
45	63	2
55	56	4
46	49	1
25	71	1
22	28	2
31	32	1
42	43	3
57	71	2
53	77	2
55	61	1
36	37	1
72	77	1
53	66	1
54	58	2
23	77	1
50	51	1
34	38	3
37	39	1
55	64	3
50	62	1
23	46	1
45	46	1
6	77	1
2	32	1
18	77	1
31	74	2
39	45	2
41	73	2
31	40	2
53	65	1
71	72	1
56	62	2
37	41	2
57	58	1
4	42	1
35	37	1
8	32	1
21	23	2
12	33	1
54	73	1
48	59	1
43	48	1
52	74	2
12	74	1
50	77	1
37	76	1
19	22	1
13	15	1
4	47	1
21	22	2
7	73	1
25	33	2
58	66	2
12	30	1
30	31	1
61	65	1
7	10	1
