93	94	3
58	111	2
135	135	3
68	68	14
14	14	4
4	5	6
4	25	2
45	45	4
129	133	4
113	113	1
75	75	18
129	130	1
63	105	9
114	114	17
50	100	1
44	46	1
131	131	5
76	76	2
42	42	4
49	50	4
98	98	5
129	129	2
104	105	2
143	144	3
64	105	4
109	149	2
83	84	1
147	147	11
51	51	11
87	89	5
26	30	1
52	52	5
83	83	5
25	25	3
48	49	2
80	81	2
50	50	7
100	101	1
77	78	4
22	31	2
44	62	6
127	128	5
137	149	3
57	111	2
139	139	7
73	93	1
107	110	1
145	146	3
85	88	2
71	71	5
127	127	4
120	130	4
66	66	3
14	16	1
76	77	1
118	129	5
128	128	5
36	36	4
13	13	4
40	40	1
47	47	2
118	118	8
20	20	6
153	153	3
65	67	2
53	53	4
38	39	4
149	149	4
64	67	1
17	17	3
48	48	4
54	54	3
134	135	7
69	76	4
17	32	2
87	87	3
103	104	3
23	24	1
137	137	2
138	138	3
98	99	5
108	151	1
126	127	1
41	41	2
71	73	1
87	90	1
146	146	2
97	98	1
132	132	6
136	136	2
95	95	4
94	94	3
78	78	4
141	144	1
105	137	1
115	116	1
129	132	2
23	29	2
19	19	5
102	103	3
24	25	3
102	102	2
74	74	1
9	9	1
70	96	2
17	18	7
104	104	2
23	23	1
111	111	4
44	52	1
47	152	5
123	145	1
136	137	2
73	87	5
109	109	2
106	150	1
94	95	2
77	79	4
126	126	1
52	62	1
65	104	1
128	130	2
2	2	1
13	14	2
57	57	3
112	112	3
128	129	2
27	27	3
154	154	5
136	138	1
37	37	2
140	140	1
142	145	1
138	148	2
130	130	2
30	30	1
7	7	3
116	116	2
22	22	1
45	46	3
134	134	2
121	121	3
88	88	2
61	62	1
110	110	8
21	21	8
146	147	3
82	82	4
39	39	1
96	96	2
144	148	1
12	12	1
105	105	2
150	150	3
138	139	2
99	99	2
86	91	5
31	31	4
100	102	1
145	145	2
56	57	4
110	150	1
120	120	6
125	126	1
143	145	2
64	64	1
10	11	4
67	84	1
81	89	1
11	11	3
22	23	3
49	49	2
21	31	1
122	131	1
9	10	2
62	62	2
103	103	1
127	130	1
13	15	2
6	6	2
109	110	1
108	108	1
15	15	2
67	67	1
106	106	2
45	57	1
107	108	1
111	112	1
151	151	3
54	114	2
142	142	2
144	145	1
121	123	1
133	133	3
107	107	2
86	87	1
24	24	2
77	77	1
57	58	1
99	100	1
84	88	1
65	65	2
101	102	1
17	21	2
112	114	1
47	48	1
122	124	1
56	114	1
4	6	1
10	10	1
85	85	2
45	56	1
144	144	1
40	41	1
36	100	1
