131	131	5
77	121	2
128	128	3
27	62	2
153	153	1
67	69	1
9	9	6
33	34	3
101	110	6
0	0	7
82	82	1
63	63	3
109	109	5
131	139	6
77	77	5
107	107	2
158	158	2
99	99	6
86	86	5
37	37	7
142	142	1
110	110	1
15	15	10
69	82	2
6	87	5
137	137	4
21	21	5
135	151	2
41	41	4
42	43	4
0	10	1
48	48	4
36	36	4
66	67	7
24	35	2
76	123	2
25	25	6
44	45	3
122	123	1
71	77	2
63	100	2
72	116	4
65	65	3
26	26	3
42	84	2
135	145	7
53	53	6
19	19	6
64	68	5
73	117	3
55	55	6
98	99	1
91	93	2
88	88	7
7	7	4
157	166	2
8	87	1
93	95	2
106	107	2
71	74	4
170	170	1
0	25	4
125	125	2
98	130	2
141	141	2
40	40	6
169	169	4
111	111	2
156	161	2
156	156	10
124	124	1
52	53	4
101	105	1
165	165	2
86	100	2
92	95	3
136	136	3
6	6	3
102	102	2
105	105	9
51	54	3
76	134	1
0	6	3
129	153	5
46	47	4
167	167	7
85	85	2
57	57	4
67	95	1
1	1	3
72	72	1
79	79	5
123	124	3
20	23	6
164	165	1
1	3	1
54	54	1
129	129	1
168	168	7
126	126	1
127	147	1
63	68	2
2	2	1
156	160	1
84	84	4
100	102	2
95	95	6
74	77	4
43	43	5
154	155	2
84	115	5
13	13	4
3	41	2
4	4	2
101	101	6
83	83	1
6	40	1
116	116	5
87	106	2
92	92	8
78	78	5
144	144	2
151	152	2
73	73	1
69	84	2
67	109	1
3	3	6
18	18	4
49	49	2
147	147	4
160	166	1
11	11	2
36	41	1
81	81	2
98	98	2
101	106	2
70	70	6
123	123	2
111	114	2
132	157	1
157	157	4
138	139	2
106	123	2
65	69	5
139	142	3
46	46	4
89	89	3
115	115	2
118	119	2
67	67	4
87	87	2
54	55	3
38	40	3
149	149	1
76	76	5
140	141	1
90	90	7
36	37	1
151	151	2
119	119	2
78	131	1
57	83	3
87	89	2
88	89	1
50	55	1
69	70	6
162	165	1
71	71	1
56	56	4
11	14	4
112	112	3
122	122	1
6	7	1
52	52	1
23	114	3
153	156	1
158	159	1
99	138	3
161	163	1
23	23	1
113	113	1
145	145	3
42	42	1
143	143	2
116	132	1
138	138	1
45	45	1
27	27	3
58	58	1
108	143	3
28	63	1
157	158	1
155	170	2
131	141	2
149	151	1
132	132	4
20	24	2
8	8	4
34	34	1
74	74	3
49	50	1
150	150	1
87	88	1
103	105	2
38	48	1
0	1	1
25	91	4
10	10	2
39	45	1
124	125	2
54	65	1
53	55	1
38	38	2
121	141	1
93	93	2
120	120	1
16	16	2
113	137	1
17	20	1
155	155	1
4	86	1
4	105	1
152	152	2
71	75	1
50	54	1
11	16	2
162	163	2
35	36	1
24	24	2
35	35	2
44	44	1
48	81	1
10	56	1
162	162	1
146	146	2
136	152	1
101	113	1
5	5	1
83	130	2
148	154	2
70	74	1
131	132	1
141	143	1
75	75	1
134	135	1
99	114	1
7	51	1
140	140	1
103	118	1
42	114	1
85	86	1
58	67	1
47	47	2
104	104	1
96	130	1
20	20	1
68	68	1
4	21	1
62	62	1
86	102	1
22	22	1
74	82	1
