116	125	1
123	123	24
58	86	3
27	28	4
108	124	3
50	50	21
104	107	8
91	114	1
53	53	18
107	107	18
73	73	11
110	110	19
119	119	37
128	128	15
111	115	6
56	56	30
8	8	11
79	80	4
92	92	19
74	75	5
33	33	17
80	98	1
118	118	25
48	48	12
7	7	20
115	115	11
128	129	3
41	41	20
115	125	4
121	121	28
124	124	17
38	47	1
2	2	14
19	19	12
51	53	1
107	123	4
109	119	3
69	69	22
51	51	19
39	54	4
96	96	14
39	39	20
80	80	19
115	116	9
53	108	2
117	118	17
113	114	14
132	132	14
69	85	1
83	83	11
108	108	14
16	18	8
69	128	1
24	25	12
63	113	3
98	102	3
23	23	21
28	28	20
98	98	27
125	125	10
9	9	15
70	70	22
61	72	3
42	57	2
104	113	3
88	89	8
31	31	9
52	52	13
99	118	3
41	42	3
29	31	6
104	112	7
72	72	31
117	117	29
101	101	14
116	116	21
39	40	4
114	114	29
26	27	2
59	60	2
94	107	2
104	104	29
7	12	2
108	114	2
30	30	14
12	22	1
104	122	4
110	112	3
65	131	1
93	93	16
109	109	16
103	131	2
67	68	12
63	64	8
10	11	7
45	45	20
49	50	16
106	106	19
111	111	25
23	52	2
82	84	1
4	79	1
122	122	20
128	133	2
77	77	24
87	94	1
3	3	18
60	71	1
71	71	10
24	28	3
100	118	2
110	122	9
125	126	4
75	75	10
71	128	4
124	125	2
54	54	17
49	49	29
40	44	1
101	108	4
109	132	3
112	112	24
40	46	3
116	119	7
43	46	3
43	43	25
37	48	1
66	66	20
10	10	15
95	95	24
61	61	22
29	29	2
42	42	21
129	131	6
53	54	3
0	6	1
126	126	22
24	24	11
72	77	5
14	15	5
65	65	23
16	16	29
18	18	10
91	91	14
115	119	3
80	90	2
114	123	3
103	115	1
63	63	9
29	30	11
81	97	3
8	29	3
22	22	10
21	21	8
79	79	16
27	27	18
102	104	1
82	90	1
75	110	2
71	101	3
110	121	5
49	57	3
120	120	18
18	19	8
97	102	1
32	32	22
86	88	1
14	14	18
89	90	5
81	89	5
41	55	2
1	1	21
131	131	11
131	132	10
57	58	9
71	78	4
15	17	1
86	86	9
64	64	13
59	59	13
85	85	28
86	87	12
88	100	2
46	53	6
74	74	9
105	105	22
23	24	4
97	97	14
81	82	8
22	49	2
75	91	3
93	95	4
94	95	1
55	55	17
76	76	23
62	62	22
99	99	12
67	67	10
25	25	10
75	94	1
21	56	3
8	9	2
6	6	16
11	12	11
0	0	12
101	116	8
70	132	2
17	18	2
94	94	25
50	52	5
101	115	2
1	48	5
130	130	13
51	68	4
81	81	10
72	128	4
94	101	7
78	101	1
104	121	3
1	22	1
52	92	2
88	88	14
98	99	5
84	85	8
54	55	1
76	77	4
43	44	8
58	73	3
94	110	6
113	113	19
40	40	9
53	68	1
116	117	5
51	60	4
96	109	1
127	133	1
73	75	4
59	61	2
129	129	21
32	33	3
40	52	2
15	15	14
14	16	4
66	103	1
57	57	15
48	52	1
96	103	2
4	6	6
52	108	3
4	5	2
113	130	3
68	75	6
37	38	3
17	17	19
85	88	4
95	106	2
98	104	6
127	127	10
1	6	6
47	47	8
5	7	2
12	12	19
52	53	7
60	61	5
87	87	17
61	63	3
34	34	5
2	4	5
132	133	3
112	113	3
70	78	3
75	76	4
47	48	5
40	48	1
24	48	1
110	132	3
40	45	3
64	77	1
1	12	5
100	100	11
95	96	3
56	70	2
106	117	1
120	133	3
103	103	14
80	81	3
87	88	4
44	45	5
1	3	3
73	74	6
40	51	3
11	11	13
82	82	17
66	69	1
90	90	12
50	51	8
10	16	4
20	20	8
57	94	3
104	105	13
41	54	1
78	79	8
53	57	4
68	68	14
99	105	3
46	48	2
130	132	3
5	5	13
65	88	1
17	24	2
76	95	2
67	129	1
108	125	2
97	99	5
118	119	2
28	33	2
20	21	3
104	110	1
37	53	1
90	91	2
26	26	9
133	133	14
111	112	7
127	130	3
69	74	1
60	60	7
20	27	4
13	13	21
120	132	4
24	46	3
90	102	1
44	44	10
3	15	6
69	120	3
64	69	1
44	49	1
131	133	2
63	69	2
105	125	3
112	114	7
73	106	1
82	83	7
19	40	1
109	120	2
57	69	2
71	72	1
22	32	1
76	109	1
46	46	25
25	41	1
21	22	11
103	104	7
34	113	2
105	110	6
51	56	1
23	46	1
7	16	1
120	126	6
65	99	2
26	101	2
2	23	4
130	131	6
77	87	2
89	89	14
126	127	8
128	130	3
15	16	4
57	109	4
65	66	8
5	30	2
19	26	1
11	20	5
78	81	3
70	85	3
48	133	3
78	94	5
12	34	2
72	106	3
93	96	4
71	129	2
38	41	2
8	13	3
70	83	5
80	97	2
109	117	5
83	84	2
105	120	1
23	28	9
84	84	7
43	55	2
129	130	3
25	26	1
9	12	1
51	69	1
0	17	2
58	61	2
122	123	3
122	133	3
15	23	1
66	107	3
101	104	2
16	17	1
60	62	5
71	77	1
76	89	1
17	26	1
107	108	1
64	66	2
119	126	4
24	27	1
1	49	3
70	72	4
17	30	2
9	29	4
81	84	1
83	97	2
48	53	3
47	54	6
109	113	3
65	68	1
76	97	2
41	118	3
111	126	2
109	110	5
110	111	4
75	77	2
3	50	1
38	38	8
93	94	3
109	114	3
121	124	1
42	43	4
7	85	3
70	71	4
107	124	2
78	78	15
74	76	4
1	14	1
104	115	4
12	14	4
40	53	1
80	84	1
96	97	4
21	33	1
95	110	1
6	19	2
105	117	2
91	109	2
113	131	1
94	123	1
82	89	5
1	50	3
111	125	1
42	44	1
72	73	2
66	67	2
126	128	3
34	38	5
84	94	1
8	12	1
97	98	4
46	47	2
57	72	3
103	119	2
85	87	5
38	45	2
73	94	3
56	109	2
79	81	2
61	70	2
28	30	1
97	124	1
15	32	3
74	82	1
78	83	1
111	121	2
39	48	1
59	74	1
98	114	1
22	116	1
107	109	1
89	92	3
87	90	1
73	87	1
93	110	4
128	131	2
49	123	2
118	127	3
90	99	2
129	133	1
58	58	9
54	110	2
114	116	3
109	129	1
29	33	1
79	120	2
91	92	3
63	80	3
21	46	4
94	124	5
21	58	2
2	6	1
82	102	1
72	131	1
83	87	3
73	93	2
25	32	3
126	132	3
96	114	4
6	10	1
102	102	15
27	30	1
109	111	4
38	39	1
92	100	2
73	83	1
4	34	2
81	83	1
52	66	1
114	115	3
19	49	1
45	57	1
17	29	1
0	3	1
62	80	1
20	58	3
76	82	2
99	108	5
106	120	1
48	50	4
2	5	2
16	27	2
82	101	2
91	124	1
93	118	1
60	92	1
48	49	4
66	104	2
119	123	1
64	131	1
67	107	2
72	129	2
84	103	1
122	132	1
121	122	5
100	116	2
19	29	1
6	44	1
106	107	3
120	122	2
82	86	3
16	34	2
86	89	3
12	15	2
5	22	2
0	15	1
47	107	3
94	106	1
26	29	2
82	85	1
27	33	2
76	79	1
6	8	1
62	64	2
61	62	5
119	129	4
81	109	1
111	128	1
9	10	2
11	16	1
13	14	4
66	75	1
67	80	1
9	14	3
8	87	3
78	92	1
60	67	2
61	71	1
99	116	1
100	126	1
97	114	1
69	77	1
40	115	4
42	47	3
111	124	2
114	121	1
81	96	1
71	83	2
14	32	1
2	50	1
106	121	1
97	118	1
38	74	1
2	3	1
3	4	3
0	14	1
105	118	3
87	93	2
79	93	3
62	81	5
50	53	1
14	20	1
113	115	2
105	106	2
82	88	1
45	66	1
61	90	2
105	128	2
84	87	2
44	64	5
59	81	1
102	103	2
121	123	1
100	101	2
46	49	3
104	116	2
28	29	5
107	111	1
42	53	1
26	31	1
80	89	1
82	94	1
21	28	1
68	80	1
121	128	1
44	57	1
93	100	2
100	113	1
25	31	1
78	80	1
16	33	1
74	94	1
100	110	1
22	48	1
110	116	1
56	114	2
102	109	3
4	4	4
80	112	1
38	50	2
58	118	1
98	109	2
118	124	5
33	34	2
4	12	1
45	46	1
27	29	1
52	107	1
95	102	2
34	37	2
106	111	2
78	106	2
121	125	1
24	44	2
42	117	1
23	30	2
66	98	1
1	18	3
100	107	2
82	97	2
100	117	1
71	91	2
38	40	1
45	116	2
76	132	1
17	23	1
84	86	2
51	70	3
76	92	2
93	124	1
73	88	1
99	114	1
77	100	2
22	114	1
14	22	1
61	73	1
29	60	1
71	85	2
77	83	1
15	18	3
126	131	2
50	62	1
74	88	1
77	82	1
85	86	2
47	56	1
112	122	2
5	43	1
38	77	1
19	54	1
127	128	3
104	131	1
101	105	1
55	75	1
10	14	1
71	76	1
110	120	1
80	94	1
94	100	1
66	88	1
65	69	3
32	38	1
55	56	1
98	106	1
115	124	1
72	74	1
58	59	1
21	51	1
65	67	2
43	60	1
105	119	1
19	20	1
7	8	1
123	132	1
99	107	1
58	66	2
114	128	1
18	33	3
83	86	1
22	55	1
77	120	1
76	93	1
40	43	1
45	49	1
51	66	1
74	78	1
52	54	2
0	16	1
22	23	2
63	65	1
81	98	1
66	89	2
66	76	1
8	10	2
54	56	1
57	98	1
51	52	2
91	99	2
37	46	2
103	126	1
77	78	1
67	89	1
83	89	1
39	53	1
3	27	1
4	14	2
73	89	1
13	26	1
50	55	1
32	34	1
58	65	1
106	132	1
57	60	1
121	132	1
3	54	1
17	33	1
33	41	1
5	27	1
63	81	1
47	53	1
0	21	2
88	104	2
81	86	1
76	106	1
98	105	1
92	93	1
1	29	1
64	118	1
56	57	1
102	105	1
42	52	1
4	22	1
25	115	1
101	102	1
25	29	2
40	47	1
68	69	1
108	110	1
106	108	1
84	90	1
32	40	1
42	56	1
53	123	1
72	107	1
84	100	1
114	117	1
69	71	1
58	117	1
25	56	1
