21	21	23
20	20	4
85	85	21
63	76	1
105	127	1
102	102	16
123	123	6
115	120	3
76	76	14
1	37	2
25	25	17
108	111	3
75	75	8
120	121	16
53	53	6
92	92	16
134	134	25
70	70	11
57	57	15
43	88	4
43	44	10
37	37	13
106	108	1
96	96	14
79	80	9
127	128	10
2	4	4
114	115	4
60	60	15
11	15	5
86	86	15
8	8	7
105	105	14
74	74	17
28	29	9
26	29	4
17	17	7
107	131	4
91	130	3
67	69	1
111	112	14
81	81	12
105	133	3
12	12	10
122	122	3
6	6	11
18	18	19
44	44	6
71	71	27
102	103	6
36	57	4
31	68	6
100	100	8
78	78	9
3	4	4
67	68	8
98	98	9
106	106	14
25	26	5
73	73	15
34	62	7
82	82	15
122	123	7
92	93	8
44	83	2
63	63	11
103	103	14
89	89	9
59	60	4
105	130	3
26	26	10
14	14	18
126	131	3
1	5	1
7	7	6
83	89	4
19	19	10
54	56	10
53	55	7
14	15	4
119	122	4
118	119	2
116	116	8
19	20	8
79	127	5
32	32	16
114	114	16
5	44	4
61	62	9
112	112	17
5	7	1
35	35	9
97	98	8
107	107	1
50	50	6
99	99	13
22	22	15
80	80	7
84	85	6
65	67	9
0	0	25
65	65	14
5	5	7
73	99	3
91	97	3
34	76	1
113	113	20
2	3	1
95	95	23
29	29	13
106	118	6
104	104	11
30	30	5
130	130	5
10	10	13
4	5	3
106	107	6
57	58	7
119	119	8
92	97	2
33	33	32
111	111	4
24	24	16
83	84	5
1	1	7
79	90	1
97	97	7
21	87	2
77	78	8
38	38	5
88	89	4
45	45	5
93	94	4
55	55	6
68	68	8
126	127	7
112	113	4
117	117	10
82	116	4
85	122	2
78	79	2
110	126	2
13	13	6
4	4	2
27	27	7
126	126	12
43	49	1
90	90	4
75	101	3
101	101	25
5	87	1
48	49	1
61	63	2
3	3	7
21	22	5
71	94	2
11	11	6
128	133	1
69	69	7
120	120	5
62	62	22
54	58	3
15	15	14
92	98	7
77	79	4
132	132	10
9	9	6
72	72	14
2	85	1
43	43	11
96	97	11
70	102	3
98	99	3
54	54	13
133	134	7
73	74	7
34	35	3
102	135	2
36	36	8
116	123	2
94	95	2
44	45	9
23	23	5
112	115	3
37	57	6
83	117	1
88	88	10
5	88	1
26	27	3
61	61	10
6	9	2
35	58	2
87	87	5
74	75	6
6	7	1
33	34	9
110	111	4
80	81	1
122	124	3
115	124	5
34	34	15
110	112	3
84	116	2
13	14	5
35	76	2
110	116	2
85	86	4
78	96	2
84	84	9
118	118	6
54	64	2
1	86	1
56	56	1
64	64	1
17	19	1
121	121	3
1	87	1
109	109	11
127	127	12
59	59	7
2	5	4
45	48	5
25	36	1
32	33	5
10	16	1
76	78	3
53	56	5
18	20	1
135	135	7
25	27	6
13	15	4
52	52	1
67	67	7
110	125	3
127	129	1
83	83	8
84	86	1
28	28	6
47	47	5
122	125	2
107	130	4
91	91	2
79	95	1
57	59	5
86	105	4
131	131	1
82	115	5
8	9	2
70	71	6
90	126	4
113	114	4
66	66	5
111	116	3
82	112	1
49	50	1
7	9	2
110	110	2
82	85	2
84	122	4
74	102	2
74	99	1
2	84	2
2	13	1
42	42	2
128	130	1
112	114	1
44	46	2
106	111	3
123	124	2
49	53	4
4	9	1
90	91	5
16	23	3
85	87	1
78	88	1
45	83	2
70	72	1
1	6	3
93	93	7
65	69	2
34	37	4
3	38	1
6	72	1
77	77	3
70	93	2
131	134	3
111	121	4
85	88	2
128	129	1
129	133	4
99	100	6
128	128	12
27	28	1
11	14	1
58	60	3
100	101	2
9	69	2
8	20	3
125	126	1
115	115	5
20	21	2
129	129	8
75	76	4
9	11	2
123	125	5
93	98	1
47	55	2
125	125	2
77	130	2
94	94	8
16	19	1
107	108	2
5	6	2
95	96	3
16	17	3
91	134	1
85	105	4
117	119	3
66	69	2
10	12	2
15	16	4
91	92	1
101	103	1
108	117	3
117	125	2
133	133	5
31	31	5
124	124	1
35	36	1
107	118	4
124	126	1
61	64	1
72	102	3
37	77	1
12	16	2
68	69	3
2	2	1
55	56	2
50	53	2
31	37	5
25	39	2
29	30	1
1	38	3
109	110	1
27	29	1
74	101	1
119	120	2
3	7	2
30	34	2
87	88	1
79	128	1
116	117	6
21	23	2
89	90	1
16	22	1
31	69	3
89	96	2
76	93	1
69	70	1
22	23	2
115	117	2
36	37	2
85	111	2
101	102	1
43	81	1
52	65	1
55	60	1
64	65	2
10	11	1
32	94	2
2	37	1
15	23	3
113	115	2
54	123	1
9	16	2
57	77	1
48	83	2
92	96	1
54	57	3
19	21	2
131	132	1
85	112	2
71	72	1
45	82	1
7	8	1
109	116	1
76	96	1
115	116	1
25	35	1
13	49	1
30	32	1
14	43	1
115	119	1
106	131	1
22	85	2
71	102	1
53	54	1
108	127	1
127	131	1
114	117	1
