166	166	1
163	183	5
58	90	2
73	97	4
121	121	5
138	138	3
136	136	3
34	34	6
59	60	2
65	66	2
131	131	1
82	82	8
83	83	2
42	48	5
65	65	1
176	176	6
124	124	4
31	31	4
5	23	5
88	88	5
74	84	1
86	86	4
44	72	1
53	53	7
16	16	4
54	71	2
171	180	1
102	153	2
135	135	12
42	57	2
144	144	3
105	105	4
6	7	1
150	150	7
146	146	2
145	145	9
15	17	3
178	178	9
132	132	5
87	87	2
67	67	4
95	98	1
91	91	1
145	148	2
141	141	5
127	140	2
37	37	1
0	3	1
47	47	1
165	165	3
26	26	1
58	58	4
113	113	8
130	130	3
85	85	5
6	6	3
125	125	7
38	38	1
97	98	4
110	113	1
100	117	2
144	168	6
100	159	3
5	5	7
161	161	9
152	152	12
175	176	3
71	71	1
35	35	5
160	161	1
136	137	2
12	23	2
118	118	2
96	96	7
112	150	4
152	154	5
95	139	5
112	112	3
82	105	1
108	109	2
42	68	3
153	153	6
4	4	10
157	157	3
150	151	2
60	60	4
156	156	7
82	120	1
190	190	5
183	183	7
104	106	1
132	142	4
19	21	1
126	139	3
107	110	2
163	174	1
89	90	4
142	142	4
83	145	3
117	118	1
103	104	2
169	170	5
168	168	4
126	127	6
41	41	8
78	79	2
182	182	6
139	139	4
161	162	1
147	148	1
55	55	2
19	19	8
13	13	2
46	47	2
100	106	3
61	68	2
149	150	1
156	171	2
75	81	1
44	89	2
185	185	3
170	171	1
15	20	2
81	110	2
37	38	2
66	66	1
35	36	2
182	183	1
32	33	4
48	48	1
27	28	3
96	98	1
75	96	4
7	25	3
56	121	2
151	151	6
188	188	6
44	44	5
155	159	2
40	40	3
114	116	4
38	39	3
154	154	1
94	94	4
109	138	1
36	42	1
98	169	1
112	113	1
123	124	2
76	125	6
161	180	1
170	185	2
85	131	1
108	110	1
18	18	2
54	56	5
186	186	3
42	42	5
72	72	3
65	125	3
155	155	6
15	15	1
184	184	3
146	147	1
189	190	3
134	134	2
162	162	4
79	110	3
14	19	4
70	107	1
166	168	2
160	186	1
52	53	3
128	128	1
174	180	1
178	179	3
147	147	9
73	79	2
129	129	3
124	125	2
59	68	3
177	177	1
96	164	2
157	158	2
84	155	1
38	81	1
180	181	1
136	143	2
11	14	2
142	143	1
118	121	1
21	31	1
111	112	2
159	159	5
148	149	1
167	167	5
141	157	1
67	68	1
23	23	3
5	77	1
69	107	1
114	115	2
62	137	2
107	117	1
163	163	1
173	173	3
68	69	2
43	43	4
10	10	1
90	92	4
25	25	3
155	186	2
114	165	1
168	187	1
158	159	2
63	63	5
169	179	1
137	137	2
167	180	2
66	67	2
45	89	1
167	169	2
141	155	1
161	179	1
78	80	1
10	23	2
93	93	3
173	180	2
117	117	2
10	24	2
110	110	1
25	27	1
104	105	1
60	64	3
102	103	1
17	17	1
57	57	2
92	92	1
174	174	3
164	164	2
148	148	3
11	11	2
103	103	6
44	46	1
45	47	1
109	110	1
109	118	1
39	47	2
89	89	4
68	68	1
38	43	1
162	165	1
107	108	1
2	16	1
101	136	1
4	32	1
106	106	2
175	175	3
127	127	1
5	80	3
163	184	1
176	180	2
0	4	2
7	7	1
1	2	1
57	110	1
167	168	1
174	176	2
42	71	2
84	85	1
153	154	1
61	65	1
163	180	1
90	90	2
39	120	1
14	16	1
39	39	4
81	104	4
8	8	1
27	30	1
102	106	1
111	111	4
99	99	3
177	178	1
61	61	2
96	97	1
105	131	2
33	47	1
148	154	2
38	40	1
97	122	1
23	24	1
160	160	3
106	107	1
133	133	2
162	180	1
102	102	2
43	44	2
4	29	2
187	187	1
57	67	1
104	113	1
27	27	1
156	185	2
84	86	1
39	41	1
28	35	1
107	107	2
138	141	1
14	14	3
46	87	2
56	57	2
125	126	1
145	146	1
5	10	1
42	44	1
90	91	1
108	117	2
7	8	2
178	184	1
29	32	1
110	111	2
123	129	1
70	71	1
116	116	2
73	74	1
11	25	1
4	36	3
118	130	1
167	171	2
103	140	2
119	119	1
19	23	1
178	182	1
81	81	1
140	140	3
83	106	1
189	189	2
73	73	2
28	29	1
179	180	1
163	171	1
95	96	1
46	46	2
39	153	1
28	33	1
159	160	1
80	82	1
5	6	3
85	130	1
166	186	1
73	98	1
161	173	1
180	180	3
166	167	2
13	23	1
106	171	1
20	20	1
176	189	1
100	101	1
181	189	1
101	101	2
16	17	1
172	172	2
54	122	1
22	22	2
167	179	2
2	2	1
58	65	1
116	119	1
164	180	1
88	89	1
102	145	1
59	59	1
73	75	1
5	78	1
64	64	2
159	172	1
88	137	1
156	186	1
37	79	1
39	42	1
42	43	1
