101	101	24
74	74	16
57	57	16
23	24	5
131	132	11
131	131	7
8	33	5
134	134	13
84	94	1
8	10	1
47	47	13
115	115	4
121	122	9
36	36	6
104	104	16
106	107	3
97	97	11
31	31	14
127	128	5
29	29	15
129	134	2
43	44	4
33	34	12
7	36	4
129	133	5
4	4	17
75	75	13
0	0	10
87	88	2
110	110	25
75	77	2
55	80	4
115	116	7
67	67	12
107	108	4
16	17	2
83	119	4
61	61	18
93	93	21
12	12	18
25	25	8
118	118	11
24	55	3
72	72	15
130	130	8
10	10	14
93	94	8
55	56	6
77	77	6
63	63	17
124	124	10
106	106	22
118	119	5
18	19	1
33	33	20
132	132	15
107	107	11
17	18	7
20	20	11
32	32	15
56	56	15
21	21	10
30	30	11
28	28	12
45	45	19
133	133	11
77	78	8
42	43	9
26	55	4
122	122	14
55	55	11
30	31	1
42	42	19
105	105	7
109	109	20
1	1	6
108	108	10
113	113	14
75	76	3
117	117	12
13	13	11
1	2	9
98	99	3
34	34	13
103	103	14
78	78	14
94	95	2
61	62	4
79	79	16
83	83	3
124	125	7
86	86	18
78	80	4
40	40	7
95	95	9
98	124	1
99	99	19
13	27	3
62	63	4
7	7	10
9	9	6
91	91	8
125	125	14
98	98	6
71	72	3
2	2	5
91	104	2
116	117	2
60	61	2
82	82	9
18	18	13
121	121	9
54	54	3
90	90	17
28	29	1
37	37	16
70	70	21
97	99	5
19	19	18
116	116	15
100	100	11
42	59	1
27	27	7
128	128	11
46	46	9
81	83	6
31	35	1
38	38	12
66	66	17
60	60	8
88	112	5
68	71	2
83	113	4
97	98	2
94	94	9
85	85	5
8	8	14
44	45	5
100	124	3
76	76	11
5	39	3
26	43	1
112	112	4
117	120	1
32	37	5
104	105	10
71	71	7
59	59	11
79	81	1
65	65	10
15	16	4
120	120	11
4	13	3
101	102	6
83	97	1
5	5	4
113	115	1
45	46	2
27	29	6
102	102	21
105	106	2
24	25	3
41	41	8
68	68	6
17	17	13
83	84	8
84	84	3
16	16	14
59	60	1
99	100	9
92	92	9
70	71	4
122	123	2
43	43	7
89	89	7
44	44	5
17	19	2
111	111	10
126	126	18
62	62	17
32	46	2
15	15	12
20	22	4
23	23	10
81	81	12
63	64	4
101	106	7
19	20	3
6	6	17
0	2	3
37	40	3
76	77	3
34	35	2
69	69	3
39	39	12
6	7	11
73	74	2
91	94	3
26	26	5
28	46	3
87	99	4
8	9	4
11	45	3
58	58	6
21	42	3
72	73	4
73	73	5
9	10	5
29	30	3
71	73	4
70	74	2
128	129	2
14	14	7
123	123	8
86	87	1
114	119	2
132	133	3
43	45	6
105	110	2
47	57	1
81	100	2
51	55	1
4	5	6
41	42	1
13	93	2
116	122	1
126	127	1
88	120	1
3	3	4
84	100	2
96	97	3
12	22	2
39	40	5
80	80	5
38	39	2
87	111	3
46	77	1
33	35	5
24	24	3
119	119	5
87	87	7
86	124	3
95	96	2
49	50	1
108	111	1
13	123	2
78	82	1
32	33	2
113	114	3
88	96	1
11	70	5
47	73	3
48	49	7
103	104	4
122	127	1
19	72	2
85	86	1
67	68	1
108	110	3
77	80	2
114	115	5
130	132	4
85	101	3
24	44	3
11	11	12
11	12	4
96	96	8
80	81	8
99	104	2
117	119	1
28	30	2
31	32	1
57	58	5
15	75	2
119	120	9
6	39	3
5	7	4
64	64	3
41	43	3
38	40	5
109	110	3
101	105	1
129	129	6
64	65	3
92	93	1
88	95	2
79	80	4
108	109	3
47	77	1
29	38	2
20	21	4
27	46	2
12	13	4
123	125	1
114	114	5
57	67	1
78	79	3
102	103	1
49	49	2
74	76	2
35	36	1
17	23	2
68	72	4
127	127	7
87	110	1
10	11	1
40	46	1
50	50	2
91	92	2
62	64	4
21	22	2
131	134	2
58	59	2
14	74	1
19	73	1
40	41	1
95	101	2
76	78	1
121	126	1
5	6	1
108	120	3
86	111	3
15	74	1
14	15	1
87	101	1
129	131	5
3	7	3
120	122	2
90	91	1
3	4	2
34	69	1
120	126	2
56	78	1
35	35	2
112	119	2
66	67	1
73	76	1
112	115	2
32	45	1
28	31	2
86	112	1
96	99	2
14	16	1
84	85	4
35	46	1
78	83	2
90	93	2
47	59	2
54	55	2
88	88	5
0	34	1
75	116	1
26	27	2
102	104	1
120	125	1
14	25	2
69	70	1
96	131	1
82	85	1
22	24	1
80	83	1
37	38	5
13	14	1
79	82	1
111	112	1
112	113	3
36	38	1
115	120	4
95	97	1
116	119	2
79	108	1
85	134	1
31	45	1
13	15	1
85	96	1
48	48	1
85	88	1
72	77	1
58	61	2
40	44	1
84	99	1
85	111	1
85	128	1
48	50	1
5	72	1
22	22	1
66	113	1
4	71	1
7	8	1
110	111	1
86	101	1
3	5	1
0	66	1
115	117	1
