128	134	3
64	64	13
23	88	4
4	4	9
77	78	9
70	70	8
85	116	1
82	105	3
15	16	6
133	134	6
50	50	16
44	44	20
120	120	7
52	52	11
8	8	3
73	73	5
31	31	9
86	86	7
118	118	9
27	27	11
105	105	4
42	42	4
133	133	9
124	125	10
90	90	5
87	87	12
85	111	3
43	43	6
94	95	8
55	57	8
123	123	11
113	114	6
84	84	5
25	25	9
114	114	9
35	35	11
49	49	3
83	83	6
124	124	3
104	104	7
98	99	2
62	63	2
55	55	8
92	92	7
33	34	10
17	38	1
98	98	9
115	115	13
58	59	5
29	29	18
61	70	2
65	65	6
112	112	18
111	111	4
32	34	1
85	108	1
80	80	11
115	116	7
58	60	3
78	78	11
50	127	1
19	20	5
112	113	5
3	35	1
99	99	10
94	94	12
61	61	8
20	21	5
19	19	7
45	45	2
27	89	2
128	128	8
121	123	1
28	29	3
100	100	12
15	15	9
135	135	3
103	114	2
103	120	3
91	91	6
102	102	8
126	126	9
71	72	3
24	25	4
62	64	2
102	103	5
111	116	1
122	122	6
5	5	10
59	59	8
53	53	6
23	23	11
114	119	3
93	93	5
30	30	5
121	121	10
108	111	5
13	14	4
96	96	11
16	16	15
102	116	1
34	34	7
61	62	4
106	106	10
109	109	10
30	35	1
103	103	8
45	117	3
63	63	8
12	12	7
32	32	9
100	111	3
46	116	3
64	69	3
52	129	4
69	69	9
132	132	13
3	3	10
78	80	2
120	121	9
17	17	3
101	120	3
72	72	9
0	0	13
107	107	4
127	127	14
50	101	1
68	68	6
64	65	5
10	11	6
60	62	2
79	80	4
89	90	7
50	133	2
36	37	2
89	89	5
67	67	7
63	64	12
62	62	3
83	84	2
21	21	3
93	94	9
108	108	10
17	18	2
45	46	7
121	122	3
21	43	4
99	101	3
3	60	2
50	51	2
77	77	7
22	23	4
75	75	6
46	51	1
101	102	2
4	10	1
51	104	1
14	14	7
98	111	1
50	128	3
6	6	6
16	17	1
108	109	6
5	70	1
102	104	4
20	20	5
113	113	4
47	125	2
88	88	1
123	134	3
48	48	2
25	87	1
132	133	7
9	15	3
74	74	8
13	13	5
83	118	1
14	15	2
72	73	6
30	32	2
32	35	1
66	69	3
1	1	7
65	67	1
58	58	3
67	69	1
33	33	4
3	54	3
26	26	9
85	85	5
74	131	5
55	56	2
84	111	1
86	111	2
7	7	14
11	12	5
106	118	2
95	95	5
128	129	1
129	129	7
2	2	7
101	103	7
9	9	3
71	71	5
24	24	6
44	45	3
123	124	3
98	114	4
18	18	8
34	35	5
13	31	9
65	68	1
117	117	1
47	47	4
49	132	1
122	123	2
90	92	2
47	115	2
126	127	2
61	68	2
125	131	1
119	119	1
53	129	1
96	97	2
102	133	2
101	101	5
86	96	3
34	102	1
22	22	2
101	115	3
53	56	2
21	44	1
54	54	1
36	36	3
9	10	5
31	32	4
56	57	5
81	81	4
23	24	1
28	28	3
127	128	1
65	70	2
48	122	1
91	92	4
67	70	2
102	120	1
82	118	2
125	125	2
29	34	2
134	134	3
10	10	4
5	12	1
67	68	2
107	116	1
86	87	2
116	116	1
48	132	3
81	122	2
38	38	2
95	96	7
110	111	3
0	1	1
6	69	1
11	11	3
78	79	2
72	126	1
75	76	2
73	74	1
97	97	2
110	110	3
34	128	1
71	126	1
57	58	1
107	115	3
54	58	1
75	124	2
8	11	1
104	123	1
73	126	1
37	37	1
76	76	7
68	70	2
59	60	1
3	5	1
60	61	1
50	132	1
16	36	1
45	116	1
124	133	1
85	110	2
65	69	1
79	122	2
90	94	1
1	3	1
87	96	1
131	131	2
79	79	4
79	106	3
134	135	1
24	86	4
4	5	2
51	51	2
104	105	2
76	80	1
98	100	1
60	67	2
130	130	1
9	11	1
30	34	1
29	30	3
0	102	1
8	15	3
10	35	1
25	28	1
111	112	2
10	15	2
101	114	1
19	28	3
5	9	1
48	130	1
20	24	1
44	52	1
84	108	1
25	26	1
109	112	2
86	100	1
82	82	1
23	28	1
54	57	1
12	31	2
33	35	1
115	119	1
11	15	2
111	114	2
82	84	1
54	128	1
0	33	1
10	37	1
125	126	1
57	57	1
57	129	1
1	128	1
