78	78	14
68	152	2
50	50	5
151	152	1
131	131	4
36	36	5
139	139	2
12	12	2
105	157	5
77	77	2
86	87	2
140	142	2
105	105	5
28	28	4
6	6	2
104	104	3
94	94	10
2	3	1
105	107	1
34	35	2
110	110	8
123	127	1
64	107	2
36	37	2
7	8	3
5	5	2
69	69	4
132	132	8
124	125	3
30	30	5
23	23	2
72	72	1
39	39	3
9	9	2
65	65	2
90	92	1
15	15	3
158	158	2
87	87	8
51	51	3
44	44	2
35	35	2
85	86	2
138	139	2
22	22	6
90	90	5
18	18	6
43	43	7
148	148	3
8	12	2
88	88	7
97	97	2
3	6	5
155	156	5
145	146	4
52	52	5
81	81	2
133	134	3
75	75	5
137	138	4
122	157	3
29	29	4
16	16	1
22	24	2
69	83	1
52	97	1
45	45	3
67	67	3
129	129	2
108	110	3
149	149	3
2	26	2
37	37	4
85	85	1
4	4	5
69	150	3
114	114	7
151	151	2
90	95	3
89	89	4
101	101	4
26	28	2
142	143	1
32	32	2
135	137	1
68	68	3
38	39	4
64	64	1
46	46	4
70	70	3
144	144	5
78	79	6
21	21	9
81	92	1
155	155	1
107	107	2
128	141	1
99	99	2
142	142	5
113	115	2
96	96	6
77	97	3
134	135	2
20	20	3
141	142	1
82	121	1
47	47	3
130	130	1
106	106	3
7	33	3
95	104	1
80	81	1
156	158	2
85	90	2
92	92	7
153	154	1
119	120	2
99	129	1
118	123	1
42	42	2
141	141	2
0	1	3
48	48	1
102	102	2
130	131	2
140	140	4
67	71	1
120	120	3
53	53	3
116	116	5
86	86	2
48	158	1
121	121	3
45	154	1
2	2	2
115	115	3
147	147	2
79	79	2
55	155	1
51	52	1
71	112	1
95	95	2
93	93	10
49	49	1
45	48	2
86	89	2
26	26	11
33	33	5
30	31	2
126	147	1
41	41	1
152	152	2
11	12	1
136	138	1
111	111	3
127	127	3
67	68	1
134	134	4
117	117	2
108	111	1
1	1	1
45	55	1
87	105	2
19	19	2
75	128	2
100	100	3
77	93	1
26	27	1
18	21	1
54	111	1
104	105	1
8	8	1
56	56	2
35	36	1
126	126	3
66	68	2
17	17	2
143	143	3
73	73	2
13	14	1
68	69	2
47	51	2
98	98	2
157	158	1
84	84	1
154	154	1
81	121	3
38	38	1
82	148	1
156	156	5
7	7	1
113	116	1
18	19	1
78	109	1
14	14	1
95	105	2
103	104	2
91	91	3
14	15	1
55	55	1
119	125	1
13	13	1
145	145	2
98	99	1
62	63	1
78	92	2
81	82	1
20	41	2
137	137	2
31	34	1
25	25	2
128	140	1
66	66	1
1	22	1
86	151	1
40	40	1
54	112	2
90	132	1
37	38	2
0	0	1
84	85	1
92	108	1
27	27	1
136	136	1
143	144	1
112	112	1
133	133	2
119	119	1
146	146	1
120	124	2
73	107	1
98	103	1
92	112	1
152	157	1
144	145	1
83	89	1
3	11	1
130	132	1
80	80	1
20	21	2
117	137	1
3	3	1
11	11	1
116	137	1
