94	94	8
76	76	10
124	124	10
139	139	4
132	133	2
83	83	1
53	119	6
67	67	8
153	153	5
131	132	5
71	71	21
12	12	12
41	41	5
32	50	2
13	13	12
18	18	8
22	22	12
147	147	14
18	19	9
122	123	2
78	79	3
31	32	3
120	120	5
105	105	11
120	122	2
17	153	3
83	147	3
44	44	7
107	107	12
92	92	4
139	145	3
61	62	1
82	82	3
66	100	2
133	133	5
37	37	6
128	128	8
138	140	4
136	136	13
122	122	10
131	131	9
3	3	3
83	84	3
101	102	2
113	114	4
63	63	3
84	85	3
78	78	3
17	17	5
55	58	1
115	115	2
24	24	3
57	57	8
154	154	8
47	47	13
20	20	7
33	38	2
86	86	3
40	40	6
118	118	18
42	43	4
45	45	9
71	72	4
62	62	14
50	50	11
110	111	6
4	4	6
121	124	1
70	70	4
133	134	8
21	21	7
55	55	12
69	154	2
38	38	7
39	40	4
134	134	5
38	130	8
36	36	7
106	106	4
16	152	2
67	68	4
100	150	1
5	75	2
138	138	13
39	39	1
117	118	6
95	95	8
85	95	1
91	91	3
64	65	5
53	53	11
69	69	6
20	29	4
34	34	1
25	52	1
47	52	1
87	87	2
68	69	3
77	78	2
55	56	4
93	93	3
4	5	3
58	65	1
108	108	8
113	113	3
42	42	11
93	116	4
68	68	10
34	43	2
151	151	6
21	22	7
30	30	9
106	107	3
102	102	10
141	141	4
17	19	2
111	113	6
38	129	1
72	135	2
14	14	6
125	127	3
112	113	2
56	67	5
101	150	1
103	103	4
84	84	9
79	79	2
73	149	5
66	142	2
73	73	5
82	148	4
120	121	3
46	46	11
90	90	4
56	126	3
39	41	3
85	86	3
58	58	6
28	67	1
93	94	3
125	125	4
9	9	7
64	135	4
110	110	7
104	151	4
140	140	9
146	146	5
22	25	2
51	52	1
111	116	1
117	117	6
97	98	4
81	81	4
130	130	6
96	97	4
31	31	6
114	114	3
7	75	2
19	20	3
107	150	2
57	67	3
7	8	1
72	136	3
120	123	5
121	123	1
102	103	4
30	31	8
108	109	1
100	101	1
76	79	1
80	80	7
23	23	8
111	111	5
83	148	3
19	19	7
38	39	5
69	70	4
136	137	7
137	137	9
85	97	4
139	140	2
36	37	1
92	93	2
7	78	1
40	132	9
128	129	5
73	152	2
85	85	6
135	135	4
56	56	2
64	64	9
19	135	2
25	30	8
132	132	10
119	119	4
57	99	5
123	128	1
80	150	2
53	68	3
49	49	10
147	148	3
28	28	5
26	27	2
123	130	2
77	77	8
54	119	2
43	43	9
103	104	6
12	15	4
142	142	1
11	11	5
38	40	2
146	148	2
54	54	1
109	109	3
95	96	2
102	152	2
16	16	5
142	143	9
152	153	3
31	55	2
5	6	4
81	82	4
97	100	3
123	123	2
2	2	4
87	88	2
53	129	3
100	100	5
112	112	3
89	90	1
116	116	2
99	99	6
86	106	1
74	74	5
145	146	5
28	138	6
67	135	2
135	147	3
25	25	3
16	102	1
65	68	1
68	134	1
71	73	4
149	149	3
103	151	1
121	122	3
47	48	3
51	51	4
114	115	1
20	25	4
8	9	5
28	29	1
152	152	4
26	26	4
20	26	1
87	95	1
4	79	1
137	138	2
10	151	4
73	74	4
105	151	2
104	104	2
84	99	1
123	124	2
150	150	5
118	132	1
37	38	4
84	88	1
72	72	1
129	129	1
134	135	1
127	128	2
144	145	3
29	29	9
139	141	1
65	65	2
34	38	3
17	135	1
12	77	3
85	108	3
107	108	2
140	141	2
145	145	2
88	88	1
33	33	5
53	133	1
72	149	2
23	24	1
31	50	1
68	70	1
100	141	1
130	131	5
102	150	1
136	148	2
9	73	1
20	51	1
143	143	3
6	7	1
62	139	3
33	35	3
127	127	1
42	48	1
20	21	2
25	65	1
27	27	1
43	44	1
79	81	3
143	144	1
56	127	2
74	75	2
119	130	1
34	35	1
15	15	2
8	8	1
21	26	3
97	97	2
3	81	1
13	14	1
10	10	4
129	131	2
32	41	1
149	150	1
80	105	1
138	145	1
98	149	2
129	130	1
4	6	1
41	42	2
144	146	1
50	51	2
56	58	1
2	102	1
117	120	1
63	145	2
41	43	2
67	134	1
39	132	1
86	88	1
47	49	1
100	149	1
48	48	1
53	54	1
3	80	1
66	66	1
86	87	1
54	55	1
44	45	1
92	94	1
109	110	1
148	148	1
106	151	1
81	83	2
52	52	1
7	7	1
