27	27	11
38	40	7
25	25	8
109	109	6
82	139	6
153	153	6
67	67	6
116	142	4
102	102	7
49	49	10
150	150	8
38	43	3
51	51	5
62	62	7
140	146	3
15	15	6
80	82	3
28	28	8
142	143	2
41	41	1
24	25	5
14	15	2
39	39	5
18	18	2
133	133	6
26	26	7
68	69	5
140	140	5
2	57	4
103	103	5
123	125	4
12	12	2
148	148	8
119	121	5
130	130	9
117	117	7
132	132	4
63	63	3
40	40	8
43	44	8
30	30	1
46	47	4
10	25	1
29	30	5
76	76	6
29	29	15
136	136	6
125	125	1
54	54	16
106	106	9
144	144	4
135	135	4
4	4	3
69	70	9
77	77	5
152	153	4
57	57	4
42	42	12
13	20	3
98	99	2
46	46	12
78	130	1
38	38	4
70	70	14
119	143	1
143	143	3
97	97	2
36	36	5
69	69	5
107	152	2
10	24	3
47	47	7
48	48	8
68	68	4
45	46	4
94	95	1
146	146	2
100	100	3
41	43	5
50	50	5
147	147	10
38	41	2
122	143	2
129	129	4
73	73	4
124	124	2
16	16	3
84	93	1
72	72	4
111	112	3
37	38	3
116	118	2
23	24	2
112	113	2
12	13	2
138	138	3
88	88	2
113	114	3
112	114	1
115	146	4
142	142	8
131	131	4
20	20	5
95	95	5
116	116	16
113	154	2
101	147	1
17	17	6
22	23	4
86	87	3
21	21	6
130	131	3
14	16	3
106	107	4
75	77	1
99	99	4
76	77	1
86	86	1
79	137	2
107	113	4
19	19	2
84	85	2
134	135	1
104	104	5
138	144	3
118	145	2
66	131	2
114	121	1
37	37	1
94	94	4
151	151	1
64	64	5
74	77	1
9	9	3
19	20	3
28	29	5
65	65	5
39	40	2
66	66	17
119	119	4
13	14	1
107	151	4
43	43	6
104	105	3
139	139	5
12	15	2
96	97	2
81	82	2
98	98	4
87	87	3
45	45	5
9	68	1
99	100	3
36	62	3
150	151	1
149	149	11
18	19	2
3	3	7
20	21	1
96	96	5
124	125	2
144	145	1
67	68	2
93	93	9
22	22	3
115	115	6
79	79	2
24	24	1
74	76	2
21	22	1
23	23	3
111	111	4
35	35	2
142	144	2
74	74	4
107	107	4
114	114	3
45	48	3
44	44	2
6	6	2
78	137	3
77	78	3
120	120	1
78	131	1
146	148	1
118	119	1
44	51	3
53	53	6
14	14	3
137	137	4
134	134	1
121	121	2
55	55	3
7	34	1
83	84	1
13	13	5
118	118	1
149	152	2
112	112	1
39	45	1
74	75	2
41	85	2
83	83	1
92	92	3
110	110	1
47	48	1
122	122	2
83	94	1
53	54	3
80	80	1
54	55	1
43	46	1
152	152	1
117	119	1
11	11	2
154	154	2
17	18	3
113	113	3
97	98	2
68	132	2
129	132	2
108	109	1
135	136	1
27	28	3
78	78	3
49	50	1
145	145	3
82	99	1
52	54	1
84	84	1
93	97	4
113	121	1
2	19	1
49	52	1
115	116	1
10	10	4
7	58	1
25	30	1
55	84	1
85	85	1
21	23	1
117	118	1
10	11	1
31	32	1
138	139	1
107	109	2
5	5	1
16	17	1
71	71	1
15	16	1
108	151	1
66	67	1
80	148	2
20	71	1
109	110	1
54	73	1
4	7	1
