56	56	2
71	71	2
154	154	14
124	124	7
40	40	7
103	103	9
176	176	8
24	26	7
127	127	13
125	125	12
91	94	4
37	37	2
143	147	1
182	183	9
81	82	3
151	151	5
25	25	4
101	101	12
62	64	7
58	177	1
30	30	4
57	58	4
91	93	2
122	163	2
141	141	15
171	172	3
71	72	2
1	1	5
173	173	5
35	35	9
119	119	7
148	148	13
129	129	8
170	170	12
11	11	3
19	20	6
150	150	8
81	81	2
187	187	6
52	53	4
157	158	4
54	54	12
61	61	6
149	149	14
43	43	6
23	45	1
163	163	8
155	155	5
65	65	4
7	7	5
63	63	3
83	83	13
185	185	3
182	184	1
24	24	3
178	178	16
15	15	2
42	43	1
67	67	4
97	97	6
135	135	9
89	89	15
13	13	4
7	10	1
99	99	7
143	168	3
156	156	8
168	168	1
150	151	3
183	183	9
103	127	1
162	167	3
159	159	6
86	87	4
178	180	6
142	142	7
179	180	5
174	174	13
16	16	6
77	123	2
130	131	5
25	26	2
15	16	3
147	147	17
161	161	10
64	69	2
86	86	6
7	38	4
175	175	6
27	28	5
47	48	4
182	182	5
10	11	1
85	85	18
74	74	5
75	77	3
31	31	6
4	5	1
126	126	8
133	139	2
131	134	5
138	138	5
95	108	1
32	34	4
108	108	6
133	133	7
166	167	4
110	110	5
61	74	3
75	75	1
77	78	3
77	77	12
8	8	8
93	93	6
137	137	3
180	180	5
27	27	3
6	7	6
120	120	6
168	170	2
29	29	4
68	69	2
39	39	9
4	4	7
177	177	1
96	96	6
20	21	3
4	26	2
188	188	3
123	123	6
87	140	2
100	102	6
109	160	1
172	172	7
142	149	2
145	145	7
12	12	4
181	181	6
186	186	13
148	149	2
146	146	5
91	91	6
119	120	1
3	5	5
98	98	6
142	148	2
31	54	2
36	37	6
96	99	1
48	48	9
105	106	2
132	133	1
88	88	14
95	95	7
5	5	3
111	111	5
158	158	1
92	94	6
28	28	6
16	41	4
143	143	3
103	125	2
87	100	2
14	14	5
1	66	3
125	126	1
31	32	1
36	36	1
7	22	3
156	157	4
53	68	2
152	152	9
97	98	2
30	31	4
2	2	5
105	105	3
163	164	1
104	104	4
79	79	1
3	3	5
77	129	2
12	13	4
70	75	3
68	68	2
18	21	5
184	184	2
33	33	5
45	45	6
113	113	1
17	17	4
158	159	4
15	17	3
152	153	2
106	169	2
6	6	7
170	181	2
100	100	3
16	181	1
175	176	5
84	84	2
116	116	5
22	23	3
169	170	5
93	107	3
73	74	1
43	48	4
90	90	5
129	130	3
96	97	4
59	70	2
54	55	4
122	122	5
139	139	5
117	119	2
41	41	4
55	55	4
106	106	6
46	46	2
151	153	2
4	28	3
127	128	7
72	73	3
76	76	5
69	70	3
80	80	5
40	42	1
8	38	1
184	185	6
169	169	5
160	160	2
44	45	2
19	21	2
114	187	1
124	125	3
56	72	1
165	165	2
134	135	2
136	137	1
87	87	5
4	17	1
59	59	3
34	34	3
25	37	1
140	140	4
118	120	4
180	186	1
0	31	1
71	177	5
110	114	1
37	41	1
26	27	4
167	167	2
174	175	1
180	181	1
40	41	2
112	112	1
179	179	6
146	147	2
70	76	1
70	73	4
21	22	2
1	2	1
153	153	2
128	129	1
85	106	3
119	124	3
134	136	4
92	93	2
53	53	5
72	72	2
86	106	1
138	149	2
42	42	8
157	159	2
62	113	3
87	88	3
136	136	3
123	125	4
8	11	3
9	11	1
187	189	1
23	156	1
56	76	1
102	102	2
97	99	2
75	76	2
170	171	4
114	114	3
2	3	1
32	33	1
131	132	3
166	166	3
153	166	3
189	189	3
82	173	1
60	60	2
56	78	3
0	68	1
54	178	2
58	61	1
16	17	1
47	47	2
159	189	4
84	85	3
65	66	1
19	19	1
181	182	1
57	57	1
101	102	5
118	119	1
134	134	1
20	20	3
143	144	1
78	78	2
124	183	1
5	17	3
26	26	2
132	132	1
134	137	2
134	138	1
80	89	1
177	180	1
72	82	1
114	137	1
122	164	3
71	75	1
164	164	2
172	173	1
97	110	1
135	137	1
32	32	2
95	99	1
111	113	2
39	40	1
157	157	2
8	10	1
104	108	1
119	127	3
151	152	1
149	150	1
84	103	1
109	109	1
83	85	3
91	92	1
66	68	1
169	171	2
102	103	1
17	18	3
142	143	1
33	52	1
5	6	1
154	155	1
58	60	1
92	92	2
94	95	1
100	107	1
89	90	1
74	117	1
126	128	1
124	126	1
139	149	1
27	48	1
61	92	1
126	184	1
116	117	1
115	116	1
38	41	1
25	36	1
146	148	1
0	0	1
10	10	1
8	13	1
64	65	1
144	146	1
62	62	2
5	24	1
162	164	1
131	131	1
171	171	1
