169	169	17
52	52	8
37	38	3
96	96	9
154	154	11
18	18	14
165	165	15
39	39	23
150	151	4
142	142	6
54	54	10
42	42	18
83	83	10
46	46	24
114	115	3
106	107	5
153	154	5
90	90	10
80	85	3
104	104	11
102	102	20
106	106	16
129	129	11
116	117	5
38	38	13
140	140	5
72	72	19
69	69	8
10	10	13
17	109	4
84	84	23
12	136	2
162	165	2
150	150	18
1	1	18
12	12	19
112	112	8
4	4	20
69	107	3
11	12	6
21	22	9
7	7	6
21	21	12
66	67	3
111	111	12
107	107	21
130	131	7
27	28	2
54	55	2
78	79	5
7	9	1
120	120	11
156	156	13
128	128	7
146	146	4
26	26	11
156	157	10
19	123	3
34	34	14
155	158	1
36	36	19
56	56	15
120	121	10
110	111	12
81	82	9
143	143	10
133	133	7
117	117	15
36	130	1
82	83	11
87	87	16
55	57	1
108	108	11
94	94	8
77	78	2
21	64	1
43	44	5
49	51	4
149	149	14
24	111	1
62	62	4
148	148	14
99	99	9
91	92	10
159	159	14
15	15	18
144	149	6
65	65	6
137	138	3
19	19	12
125	125	10
81	81	19
132	132	22
66	66	12
67	67	16
93	93	10
158	160	3
92	92	12
96	97	2
103	103	9
44	46	4
101	102	9
137	137	21
164	165	5
25	25	14
158	158	21
162	162	12
63	63	6
113	113	8
76	76	9
70	70	8
166	169	1
9	9	15
80	86	2
17	18	4
130	130	8
18	64	6
71	71	14
139	141	11
13	52	5
17	17	20
20	20	17
142	143	1
67	94	4
95	104	3
64	64	4
85	86	7
8	8	16
16	16	16
80	87	1
114	114	11
148	149	5
66	70	1
43	43	17
86	86	6
79	80	8
121	121	8
139	139	14
73	73	16
77	100	2
90	105	1
123	149	4
95	95	4
76	137	2
101	105	4
27	27	13
126	128	5
170	170	10
80	80	9
13	13	17
147	148	4
128	157	2
98	98	8
101	128	2
93	94	5
72	78	1
24	24	12
160	160	15
40	40	7
8	75	4
88	88	19
95	97	8
129	145	2
161	161	16
112	113	6
111	120	1
124	125	4
8	126	1
162	164	2
143	144	4
12	57	1
53	53	12
23	23	16
75	75	8
7	126	5
166	167	1
133	137	4
166	166	3
125	126	2
0	0	24
120	154	2
49	52	5
109	109	6
155	155	6
22	23	4
44	48	2
136	146	2
37	37	13
50	96	5
79	79	7
91	91	5
142	149	4
100	100	3
74	75	6
107	128	2
131	131	6
105	106	1
35	35	7
6	10	3
118	118	6
124	124	7
126	127	1
123	145	2
2	2	16
82	84	3
50	51	3
0	41	5
48	48	8
135	135	7
163	163	9
152	153	5
100	101	6
155	156	8
88	89	10
119	119	7
152	152	5
123	125	1
51	95	1
6	7	3
35	109	2
22	22	6
10	11	3
157	157	13
70	71	3
4	5	8
51	51	13
14	14	11
97	99	2
82	82	12
7	8	10
151	151	16
5	5	9
131	132	12
139	142	2
21	25	1
122	122	12
11	11	6
135	136	1
107	108	5
73	78	1
25	143	1
61	62	3
80	90	5
107	109	4
41	41	13
104	126	2
113	114	4
44	44	7
3	3	14
2	3	3
68	69	10
73	74	2
136	136	9
56	57	3
18	19	5
3	111	3
65	66	5
145	145	11
122	123	1
152	155	4
110	110	8
105	105	11
2	110	2
12	13	4
102	103	4
33	33	7
4	6	1
85	85	7
131	139	2
144	144	6
121	122	1
12	63	4
103	104	5
116	116	13
141	141	2
7	145	5
44	45	8
20	21	9
39	40	8
69	71	2
80	82	3
14	15	5
65	94	1
72	107	5
123	123	9
74	74	2
86	116	2
151	152	3
42	54	2
55	55	12
72	80	1
72	73	2
133	138	2
87	89	5
123	124	3
134	137	5
87	88	3
100	116	1
61	65	3
26	143	1
28	28	2
103	106	2
132	133	8
102	105	1
37	131	2
120	129	5
147	149	1
28	64	1
52	53	1
140	141	7
47	47	8
62	63	6
73	98	1
6	6	5
97	97	13
3	5	1
117	154	1
61	63	1
97	100	1
108	109	6
127	127	9
159	160	9
11	17	4
89	89	5
122	158	1
98	99	8
94	95	9
57	57	4
137	143	2
72	102	2
153	153	9
24	45	1
126	126	6
169	170	3
68	68	10
17	22	3
106	156	1
119	120	3
90	91	1
118	119	2
79	82	1
111	150	2
79	105	1
64	65	2
53	55	3
16	17	5
134	135	4
95	96	1
34	40	1
86	87	3
37	130	1
49	49	11
50	50	10
0	1	5
13	51	2
135	146	1
117	118	2
15	16	4
96	98	5
160	163	1
117	121	7
95	100	1
133	141	2
78	81	2
22	24	3
2	132	1
113	116	1
168	168	4
99	102	4
67	68	2
106	108	5
34	109	1
160	165	5
20	22	1
87	115	2
9	10	1
144	145	1
62	67	2
1	2	2
23	24	5
53	54	1
103	125	1
137	145	1
125	146	2
40	58	1
13	57	6
43	49	1
141	142	2
153	155	3
115	115	6
46	47	4
84	85	2
166	168	3
26	27	1
54	63	1
114	151	3
164	164	8
127	128	2
49	50	3
10	146	2
138	138	15
167	169	2
75	78	1
161	164	2
18	20	2
101	103	8
18	21	2
4	117	1
153	159	2
91	133	1
78	78	3
77	77	6
11	63	3
104	127	1
57	64	1
130	140	2
147	147	3
121	142	1
11	14	1
123	147	3
121	144	2
65	67	1
167	167	4
139	140	1
13	50	2
127	152	1
20	25	3
19	64	1
146	147	5
11	146	1
10	12	2
118	149	2
123	130	4
95	101	1
116	161	1
20	23	1
84	88	1
76	77	6
86	88	3
93	96	1
11	57	1
24	25	2
36	131	4
57	58	1
72	81	2
134	134	7
67	69	3
35	36	2
2	28	2
38	39	3
145	148	1
80	81	3
13	49	1
53	95	2
72	100	2
66	94	1
3	133	1
136	137	3
78	92	1
55	56	1
168	169	2
43	45	1
73	91	2
116	153	1
51	52	1
21	23	2
25	26	1
63	64	1
57	63	1
13	134	1
14	16	1
51	54	4
109	110	1
86	115	1
76	133	1
130	139	1
25	142	1
73	90	1
158	170	1
41	42	2
128	129	2
126	145	1
17	21	2
74	78	1
117	129	1
12	50	1
54	66	2
55	58	2
123	143	1
7	50	1
114	164	1
163	164	1
112	114	1
66	69	3
128	130	1
71	98	1
58	58	1
79	88	1
117	140	1
33	34	1
72	90	1
101	101	1
45	45	1
19	135	1
125	148	2
74	99	1
162	163	1
154	155	1
40	41	1
116	118	1
120	140	1
167	168	1
24	142	1
148	155	1
144	148	1
34	35	1
155	165	1
105	107	1
142	148	1
40	55	1
129	139	1
3	132	1
