84	84	12
100	100	11
80	80	9
58	58	9
41	42	4
71	72	10
24	24	11
98	98	13
63	63	29
77	77	15
96	96	15
50	50	5
89	89	8
92	92	6
68	68	18
90	99	4
55	55	6
68	69	3
55	56	5
57	57	8
32	32	1
76	76	7
48	48	9
95	95	8
80	81	3
66	66	17
40	40	11
39	39	14
71	71	18
51	51	10
70	70	18
31	45	3
65	65	15
69	69	17
78	78	13
67	67	23
36	37	4
85	85	17
86	88	3
53	53	8
77	78	6
88	88	14
92	93	2
38	39	3
26	26	4
73	73	10
29	30	4
102	102	2
94	94	6
94	98	2
61	62	2
82	82	3
85	86	4
57	58	5
93	93	4
86	86	5
36	36	7
73	74	4
56	57	4
46	46	12
60	60	5
31	31	6
66	67	4
81	82	4
100	101	10
54	55	6
99	99	6
75	75	10
91	91	5
81	81	11
59	59	8
90	90	14
50	51	7
96	98	3
72	72	16
30	30	1
69	74	2
63	81	2
33	44	1
76	77	5
68	78	1
64	64	14
38	38	7
92	95	1
63	64	4
74	75	2
54	54	5
51	55	3
72	86	1
45	46	1
35	44	2
42	42	2
47	47	4
87	87	14
63	71	2
83	83	4
43	43	5
95	97	4
59	60	2
33	33	9
41	41	2
27	28	3
74	74	6
99	100	2
45	48	1
25	25	3
89	90	5
79	79	7
31	32	4
29	29	2
32	33	2
34	36	2
49	50	7
58	86	1
43	70	1
26	27	6
97	97	5
62	66	2
66	79	1
30	55	1
52	52	7
47	53	2
61	63	1
85	95	2
33	79	1
44	44	8
38	50	3
101	102	4
87	88	6
62	62	8
33	53	2
70	73	2
57	62	2
101	101	12
57	76	1
61	84	2
86	87	1
79	88	3
47	82	1
23	23	4
62	96	1
23	29	1
94	95	1
58	69	3
79	80	4
61	61	9
67	84	3
45	45	3
35	37	3
62	63	3
52	53	2
85	100	1
93	94	3
87	101	3
35	35	4
58	71	2
69	70	2
67	72	1
72	74	1
67	68	2
77	88	1
32	44	2
81	87	3
27	78	1
84	85	1
48	49	3
72	77	2
67	86	1
55	76	1
40	41	1
91	92	3
62	64	1
74	77	2
81	86	1
34	35	2
65	66	1
49	49	3
68	74	1
57	90	3
86	94	3
26	80	1
62	98	1
27	27	2
37	37	2
60	61	1
78	79	1
55	90	1
31	70	1
59	66	1
37	97	1
69	73	1
52	54	1
58	59	2
22	24	1
31	54	1
84	87	1
32	47	1
79	81	1
38	40	1
78	80	1
31	85	2
22	22	1
39	89	1
34	100	1
21	22	1
75	77	2
66	80	1
82	83	1
37	38	1
63	65	2
57	69	1
48	51	2
60	62	2
70	71	1
27	55	1
34	34	1
26	54	3
66	74	1
93	95	1
88	89	1
58	70	1
62	89	1
64	78	1
