2	3	7
77	89	8
78	78	11
104	104	6
127	127	14
16	16	14
132	132	10
15	15	22
41	42	1
128	130	6
126	128	6
68	69	18
3	3	25
24	24	13
72	73	15
6	6	24
59	59	10
54	54	21
70	70	11
71	71	21
42	92	3
30	30	24
26	26	20
77	77	10
100	101	6
22	22	22
127	128	5
112	112	11
10	10	6
83	84	4
87	88	7
95	95	12
17	17	20
65	65	13
107	107	9
129	129	12
116	116	31
14	27	2
67	67	14
115	116	5
129	130	11
98	98	20
1	3	4
23	24	18
39	39	17
68	71	2
126	126	15
47	47	9
121	123	6
86	87	5
50	50	8
96	96	10
81	82	6
74	75	7
120	120	11
49	50	3
110	111	2
57	61	3
44	103	10
58	59	5
103	103	8
19	19	10
95	96	10
43	43	8
77	78	14
1	107	12
112	113	6
57	57	13
65	66	5
85	85	14
62	62	12
57	81	6
28	29	4
10	11	10
49	49	16
20	20	18
123	123	26
30	31	6
104	105	6
114	114	8
90	90	12
5	5	11
118	119	12
45	45	10
125	131	1
7	97	5
12	17	1
21	21	13
110	110	6
122	132	1
97	97	9
22	24	6
53	53	10
38	38	17
33	33	7
118	118	7
74	74	19
46	47	7
11	11	10
57	58	2
128	128	12
84	84	7
117	119	1
63	63	19
11	12	3
119	119	18
23	23	12
26	27	5
105	106	7
91	91	11
18	18	21
58	58	24
14	14	9
102	106	1
81	81	11
51	95	5
115	118	10
90	91	3
130	131	4
12	12	21
40	40	20
1	4	4
24	26	1
53	54	2
79	79	10
83	83	9
115	115	16
46	103	2
108	108	15
122	124	2
51	51	10
40	42	6
8	8	12
117	117	7
106	106	8
130	130	11
55	55	22
41	44	6
111	111	19
0	0	9
73	73	15
14	16	4
61	62	8
14	32	5
70	71	11
125	125	7
80	124	1
131	131	2
25	26	5
12	16	6
120	121	4
88	88	15
54	56	4
46	89	5
104	106	5
24	25	7
49	64	1
66	66	23
92	92	15
77	86	2
72	74	4
76	79	1
42	42	7
90	103	2
87	87	19
27	27	17
48	48	24
18	39	1
29	29	5
122	122	2
22	23	4
110	112	5
28	28	12
34	34	16
82	82	24
66	86	3
61	61	16
29	33	2
42	43	4
86	88	2
44	44	16
86	86	16
124	132	2
80	80	18
44	45	3
79	80	4
128	129	13
102	102	8
42	93	1
65	87	7
97	99	6
44	91	4
131	132	1
126	127	3
63	64	21
83	85	4
94	94	17
124	125	6
4	8	4
60	60	10
7	7	2
13	33	7
101	101	8
7	8	1
96	97	5
38	46	2
64	64	12
31	31	7
25	29	5
109	109	16
25	25	20
46	46	8
69	69	11
29	30	2
6	117	1
88	91	2
55	56	7
82	83	6
78	79	4
119	120	7
4	108	1
70	73	4
67	126	4
17	41	3
32	32	13
41	41	12
72	72	8
60	61	8
12	32	7
13	13	12
13	16	7
56	57	5
124	124	7
25	28	4
114	115	4
60	86	2
80	81	3
26	29	4
59	60	4
108	109	4
1	108	4
84	85	1
113	113	11
109	112	1
68	68	15
106	107	3
19	20	7
31	32	3
97	98	5
3	53	4
97	100	7
123	124	2
4	4	13
107	108	4
94	96	2
105	105	6
85	86	8
75	75	7
121	121	9
76	78	4
88	89	4
133	133	3
9	9	10
103	104	5
49	63	2
64	86	2
17	40	5
13	17	5
25	27	6
38	39	5
128	131	2
65	75	2
117	118	4
0	101	3
55	61	4
93	95	3
116	118	3
93	93	9
74	91	4
4	51	2
91	94	2
4	6	1
18	19	6
68	75	3
89	89	8
66	125	3
103	106	4
110	114	1
117	125	1
44	92	6
76	76	13
1	8	1
75	77	4
5	6	1
39	102	2
99	101	2
20	21	3
98	100	1
100	100	5
47	89	3
59	83	1
109	113	2
52	52	10
53	121	1
2	2	3
117	120	2
113	114	1
54	64	2
129	131	4
15	16	5
3	4	10
102	105	3
101	102	4
122	123	5
113	115	3
52	115	8
93	94	2
125	128	3
13	15	1
65	67	2
109	110	2
63	80	3
64	81	2
0	1	5
48	49	2
73	74	2
66	126	1
1	2	6
71	72	2
67	125	4
39	42	1
82	85	2
2	108	1
17	39	1
27	31	2
2	4	1
57	59	1
0	50	3
18	40	1
66	127	1
27	29	1
1	113	2
52	53	2
92	104	1
99	100	1
56	56	5
99	99	6
14	15	1
116	117	7
81	83	2
42	106	1
13	14	1
70	72	2
102	103	1
9	100	2
44	46	2
59	61	1
80	121	2
51	79	3
51	96	1
114	116	2
132	133	3
48	50	1
75	76	2
54	61	1
45	106	2
47	49	3
27	28	1
79	96	1
91	92	1
1	1	2
7	98	1
63	78	2
125	126	1
118	120	1
38	41	1
91	93	2
111	112	2
60	62	2
37	37	1
60	84	1
49	87	1
101	108	1
66	85	3
43	101	3
1	114	1
24	27	1
40	41	2
64	79	1
39	45	1
121	124	1
65	68	2
60	87	1
64	65	1
67	68	1
129	133	1
48	62	1
7	99	2
62	64	3
92	93	1
81	125	1
49	53	1
4	5	3
0	8	1
51	52	1
71	73	1
18	25	1
66	67	1
77	91	2
114	120	1
4	52	2
126	130	1
115	121	1
8	121	1
76	94	1
74	90	2
53	64	1
82	84	1
20	28	1
65	125	1
