169	179	3
150	150	11
79	80	8
181	181	13
187	187	8
78	78	10
57	84	1
36	36	11
143	143	10
16	16	7
164	164	4
83	83	14
24	25	4
110	110	15
115	154	4
163	167	1
172	172	7
155	180	2
15	16	9
154	155	9
103	136	4
117	117	11
87	88	3
72	72	8
0	0	19
45	45	11
96	96	8
55	55	11
154	154	11
157	158	2
134	134	11
87	87	18
23	23	14
122	122	7
169	170	4
81	81	10
168	168	5
183	184	5
146	146	10
148	148	21
27	27	6
165	165	7
107	146	2
128	128	7
125	125	22
44	46	6
60	60	13
184	185	10
169	180	7
1	1	9
100	101	3
30	30	19
99	99	10
13	13	6
114	116	2
74	74	16
38	38	12
107	107	10
59	59	10
59	63	4
34	35	7
137	137	24
29	29	7
13	14	4
24	24	8
75	76	9
186	186	16
182	182	11
174	174	26
162	164	2
179	179	13
154	181	1
98	138	1
163	163	14
158	158	16
60	64	4
120	121	2
14	14	11
62	134	3
166	166	8
171	172	13
77	77	10
94	94	25
37	37	16
63	64	2
57	57	11
112	113	7
123	123	9
4	4	16
135	137	6
58	58	8
142	143	3
124	124	16
183	183	21
68	68	15
114	114	11
15	15	7
47	48	4
168	170	3
159	159	17
144	144	8
93	93	7
138	139	1
179	180	6
38	39	6
106	106	17
117	118	5
154	159	1
53	53	8
142	142	17
14	15	8
177	177	22
34	36	1
144	145	6
43	44	5
118	125	4
66	66	5
157	160	2
71	71	10
77	78	5
67	67	12
155	155	12
5	5	6
93	94	5
81	82	1
104	104	13
175	175	7
100	102	4
127	127	15
140	140	5
39	39	10
189	189	6
107	112	4
117	122	7
162	162	10
39	53	1
75	75	17
71	72	1
58	59	7
188	188	10
157	157	10
33	33	12
116	116	9
89	89	11
62	62	9
135	136	5
139	139	15
88	88	13
108	108	6
98	98	16
22	22	7
20	20	2
43	43	13
8	8	8
150	151	8
109	109	7
62	104	2
46	46	14
91	95	2
63	105	1
36	37	6
136	136	8
63	85	2
18	18	11
86	86	10
55	84	2
153	153	13
85	85	10
70	70	12
124	125	4
57	85	1
156	156	15
113	115	2
28	29	8
180	180	13
143	147	4
58	86	1
62	63	8
101	101	5
123	167	4
11	11	13
54	55	12
42	42	19
2	2	15
0	99	3
160	161	6
12	13	11
12	14	5
141	142	3
119	119	8
163	168	3
176	178	3
171	171	5
17	20	2
126	158	1
21	21	18
185	187	1
135	135	10
138	138	15
131	131	16
70	71	3
121	121	10
66	67	5
113	114	9
121	122	7
56	87	3
28	28	15
55	56	5
32	32	12
169	169	7
35	35	2
4	5	3
32	36	2
111	111	11
9	9	4
170	170	7
54	54	6
94	139	2
108	113	1
72	73	3
6	6	6
96	97	4
19	19	13
28	30	2
80	80	10
76	76	12
67	68	3
161	161	11
147	148	3
145	145	4
181	182	4
123	125	1
17	17	11
78	79	4
73	73	10
79	79	5
106	135	1
139	151	1
9	26	1
94	97	1
103	103	11
160	160	13
65	65	3
152	153	5
132	132	2
4	109	3
56	56	5
107	108	6
97	97	13
21	23	3
35	36	5
127	129	3
5	6	1
124	188	2
167	167	16
155	156	8
133	133	12
130	131	7
114	115	5
44	44	8
61	61	15
115	116	2
141	141	10
153	164	1
122	123	3
21	22	3
26	26	14
84	84	9
105	105	7
8	42	2
181	185	4
19	53	2
0	7	2
58	62	6
41	42	3
91	92	6
60	61	9
136	137	3
17	26	1
102	103	5
40	40	6
168	169	7
186	187	2
184	184	9
48	57	1
92	92	13
90	90	11
45	46	2
25	25	5
65	66	5
132	134	3
110	148	2
66	84	3
7	12	3
166	167	5
129	129	13
53	54	2
89	98	1
149	162	4
40	83	3
173	174	1
19	20	1
33	35	3
89	90	3
102	102	6
159	163	1
153	158	2
27	29	5
102	110	3
56	57	7
8	10	1
173	173	17
91	91	5
178	178	7
74	75	4
151	151	16
119	123	4
70	72	1
94	99	2
185	185	7
86	87	5
10	10	22
176	176	2
48	81	2
8	41	2
64	64	14
113	113	4
3	3	6
100	100	10
126	129	3
7	38	2
105	135	4
143	144	4
180	181	3
170	180	1
66	76	5
146	148	2
154	165	1
149	151	7
116	127	1
118	127	2
3	4	2
15	23	3
152	152	9
34	34	1
1	27	3
97	98	12
130	130	16
126	128	2
58	60	3
107	136	3
82	82	11
115	115	13
129	130	11
171	174	3
4	7	1
69	70	1
110	111	3
18	19	4
10	15	3
158	159	7
109	110	11
95	96	9
29	154	2
141	151	5
147	147	12
167	168	5
177	178	3
102	135	1
94	120	1
153	154	2
123	164	1
126	127	2
94	100	2
1	2	3
11	16	1
10	11	4
25	34	2
24	30	1
29	92	1
41	41	8
149	149	7
33	34	4
12	12	15
39	90	2
143	155	1
106	134	2
124	189	2
159	160	11
133	134	2
26	27	3
132	133	6
120	120	3
157	183	4
7	7	7
174	175	4
123	124	5
133	137	1
185	186	5
62	133	2
117	121	1
40	79	2
14	21	3
115	162	3
170	171	4
9	12	2
137	138	3
131	145	4
134	136	2
190	190	9
23	24	5
108	109	2
48	48	15
16	17	3
69	69	3
53	91	2
10	12	5
175	176	4
40	41	1
61	95	1
140	148	2
101	102	5
31	32	3
159	162	5
108	136	3
162	163	4
58	63	2
116	130	2
107	114	1
122	124	1
39	41	1
33	45	2
122	170	2
127	128	2
41	43	1
3	110	1
56	97	2
34	40	4
26	28	1
11	12	7
36	46	3
126	126	2
148	149	5
122	169	1
105	113	2
37	43	2
176	177	2
35	45	2
53	94	1
107	109	1
76	82	1
7	15	3
15	29	1
40	48	2
41	55	1
19	145	6
73	74	4
44	47	7
10	17	1
101	103	2
34	37	2
20	21	4
115	139	2
118	118	6
57	59	2
20	22	3
95	95	9
68	81	2
47	47	2
118	133	3
153	156	2
102	134	2
121	133	1
24	33	1
156	159	2
170	172	1
79	81	1
16	27	2
126	186	1
154	161	3
181	184	4
31	31	2
125	126	4
74	77	1
119	120	2
70	73	1
149	163	2
116	134	3
163	164	2
15	17	4
82	83	1
105	106	2
15	25	2
112	112	4
109	111	1
125	130	1
59	108	1
93	95	3
83	88	2
110	146	2
95	98	1
33	36	3
46	47	1
166	179	2
19	52	1
182	183	2
170	179	1
96	98	3
0	1	3
104	111	1
116	117	1
114	161	1
30	36	1
10	32	1
111	112	2
6	7	3
89	97	1
6	39	1
90	92	2
87	99	3
63	63	4
161	162	1
62	100	1
2	103	1
37	38	2
62	65	3
99	133	1
66	80	2
158	187	1
178	179	1
140	151	3
22	24	1
165	166	1
84	86	1
22	41	1
18	30	1
66	68	2
144	147	1
60	62	1
150	163	1
155	181	1
64	65	1
114	139	1
151	152	2
103	135	1
15	24	1
148	150	1
69	73	1
87	98	2
85	86	2
42	47	1
30	31	2
54	106	2
1	140	1
171	180	2
172	173	4
62	132	1
24	31	1
92	93	3
128	137	1
111	113	1
128	129	1
106	107	1
118	130	1
94	95	1
130	132	1
116	128	1
125	186	1
157	159	1
48	79	1
37	47	1
188	189	2
131	146	1
38	43	1
72	74	2
146	147	2
28	31	1
22	23	1
121	130	2
183	186	1
32	33	2
143	152	1
29	30	1
106	113	1
167	177	1
79	83	1
102	138	1
158	160	1
182	184	2
58	102	1
4	6	1
127	162	2
117	120	1
164	165	1
23	33	1
58	93	1
59	60	1
145	146	1
25	27	2
115	117	1
65	67	1
8	9	1
27	142	1
61	62	1
27	28	1
137	139	1
107	147	1
18	20	1
45	57	1
