46	46	2
50	50	5
88	88	5
52	52	5
109	109	10
89	89	6
3	3	2
119	119	6
90	90	10
30	64	2
120	134	1
35	37	2
104	104	3
87	87	4
114	129	2
28	28	10
60	60	6
9	9	5
107	108	3
130	131	7
9	44	4
35	35	5
20	20	8
94	94	12
15	16	6
15	26	4
96	96	1
25	25	3
22	27	1
10	74	1
48	48	3
56	57	1
82	99	2
32	33	6
11	11	1
1	2	5
125	125	6
78	78	2
130	130	5
77	77	14
106	107	3
1	1	3
6	6	3
110	111	5
57	57	6
6	77	1
26	27	2
84	84	2
0	1	3
105	105	6
32	32	7
17	17	6
116	116	17
98	98	6
86	86	12
101	104	3
103	105	5
128	133	7
61	61	5
109	110	1
24	24	2
67	67	4
102	102	2
108	109	6
108	108	9
7	7	7
12	12	5
117	117	7
16	17	2
81	82	2
36	36	4
5	5	6
113	113	10
10	10	1
78	79	7
35	94	3
30	30	7
13	13	3
128	129	4
124	124	2
97	97	2
123	123	3
120	121	1
126	126	6
44	44	1
79	79	6
114	115	2
107	107	5
66	66	3
27	27	4
19	20	7
0	0	4
9	45	2
91	91	10
16	16	1
101	101	2
59	60	4
53	53	6
74	74	1
115	115	5
87	109	4
2	96	1
19	19	3
115	116	6
26	26	4
128	132	3
81	107	3
102	103	1
99	99	5
8	44	2
72	72	5
71	72	2
45	47	2
2	3	1
31	32	1
90	91	1
86	107	1
34	34	2
75	75	4
58	59	2
64	65	6
120	120	5
122	122	10
4	38	2
85	85	9
92	93	1
6	7	2
25	26	8
134	134	1
100	100	3
19	21	1
62	62	4
88	99	1
109	114	2
43	45	1
82	84	1
86	105	4
115	129	2
61	62	1
15	15	2
111	111	3
33	89	1
31	31	6
29	30	2
12	51	2
80	81	2
114	114	4
79	80	2
105	133	2
131	132	1
95	96	1
50	53	2
24	25	3
129	129	2
76	76	2
87	88	1
110	110	3
32	61	1
106	106	3
124	125	1
36	58	2
49	49	2
65	65	1
60	61	1
12	13	1
35	36	3
68	68	4
16	65	1
14	14	3
112	112	1
97	100	1
128	128	1
13	52	4
55	55	5
29	29	1
83	83	3
34	35	1
22	23	1
103	103	5
82	82	3
118	126	1
8	8	1
121	127	1
125	128	1
8	47	1
80	80	5
95	108	1
118	118	2
54	55	1
112	113	1
22	22	1
99	100	1
71	71	2
5	6	1
45	45	1
117	118	1
52	53	3
21	36	1
86	87	1
1	96	1
127	127	1
92	94	1
20	21	1
121	121	1
33	62	1
126	127	1
10	11	1
95	109	1
56	59	1
113	129	1
