10	10	9
129	129	12
162	162	6
140	140	6
83	161	2
151	151	5
160	160	10
81	81	8
33	33	13
90	90	4
172	172	4
109	109	6
163	163	5
71	72	5
99	99	5
92	179	4
148	148	6
52	52	6
110	120	1
64	171	2
40	45	2
175	175	3
62	81	3
42	42	3
146	146	3
124	124	2
45	45	1
100	100	8
127	127	9
108	108	7
58	58	6
150	179	2
115	138	4
22	22	10
23	35	1
51	51	6
161	169	1
73	73	4
70	113	2
13	27	2
160	161	4
60	60	2
35	35	6
170	170	3
54	56	3
144	145	6
149	165	1
145	146	1
146	147	1
104	106	1
59	65	2
26	26	4
169	169	4
111	113	2
126	127	4
66	78	1
161	162	3
66	66	4
64	64	4
49	121	1
70	70	1
84	84	4
135	171	3
86	86	5
6	8	3
104	110	2
165	165	4
154	155	3
164	164	12
130	131	4
132	148	1
24	26	5
176	176	6
171	171	10
123	123	6
28	28	1
59	60	7
99	100	3
43	43	3
87	87	3
30	30	5
61	61	2
78	78	5
28	30	2
145	147	1
4	4	6
13	17	1
96	96	5
158	159	3
139	150	2
18	18	3
168	168	7
115	115	1
19	29	2
154	156	2
18	19	8
144	144	4
106	155	2
127	131	1
36	37	3
80	81	2
174	174	3
150	150	4
53	129	2
157	157	2
170	171	2
153	154	3
68	68	3
143	143	3
179	179	8
122	128	3
112	112	5
104	104	8
62	63	1
54	54	4
3	3	9
13	13	8
121	127	2
147	148	2
169	170	1
8	8	5
111	112	1
97	97	9
130	130	5
142	154	2
107	113	2
16	16	5
117	129	1
107	108	4
44	44	1
126	131	1
57	62	3
126	132	2
0	0	6
82	151	2
52	95	1
21	42	1
0	128	5
5	6	3
98	98	6
14	26	1
19	33	1
37	37	5
166	166	8
95	157	2
55	57	3
27	27	4
10	11	4
115	133	1
165	167	5
121	121	9
131	131	2
156	156	3
89	125	1
81	165	5
125	125	2
92	95	1
93	94	2
53	88	1
53	53	4
128	128	3
142	143	1
113	113	5
153	155	5
21	21	3
89	89	3
8	9	1
102	102	3
72	73	2
98	102	3
56	79	3
154	154	5
25	38	1
173	173	3
120	120	4
135	154	2
15	27	4
145	167	4
92	92	3
32	39	1
28	31	2
173	175	2
149	149	12
173	174	2
141	141	5
88	89	2
110	119	1
18	159	1
67	112	3
64	65	2
119	119	4
175	176	3
64	104	1
3	22	1
113	114	3
91	92	2
70	72	2
12	13	4
97	98	2
80	80	2
60	102	1
107	107	6
57	57	2
152	152	8
39	40	3
15	16	3
73	79	1
24	24	4
15	15	6
39	39	2
101	101	4
25	25	3
123	146	1
82	84	2
72	143	3
140	149	1
136	136	3
83	85	4
85	86	3
104	105	1
93	93	5
82	82	6
51	81	6
83	83	4
73	85	1
67	67	3
108	114	2
40	41	1
36	36	5
68	162	3
56	61	1
117	117	8
118	118	7
63	75	2
138	138	2
4	19	1
68	80	1
50	50	1
11	11	5
151	153	1
98	120	1
171	172	1
98	147	1
23	23	6
161	163	1
6	6	2
141	148	1
116	116	1
153	153	4
89	123	2
127	156	1
118	119	3
74	93	1
159	161	5
71	71	5
20	20	2
40	40	3
13	38	3
141	178	1
25	45	1
112	114	3
74	75	1
74	74	6
92	94	2
105	107	2
7	8	4
9	9	3
10	121	1
135	135	4
20	34	1
94	100	2
7	19	1
49	53	1
135	136	3
56	63	1
60	78	1
115	116	1
27	28	2
143	155	1
134	134	5
1	3	2
122	122	6
0	170	2
137	137	1
166	169	1
101	136	1
131	147	1
91	95	2
143	153	2
19	21	1
52	56	1
64	70	2
11	85	2
161	168	2
25	26	1
90	100	1
102	110	2
121	180	2
166	167	2
152	158	1
96	135	3
62	62	4
32	33	2
5	10	1
4	5	1
86	101	2
52	80	1
83	84	1
41	58	1
20	21	1
16	18	2
13	32	2
113	180	1
137	162	1
38	39	1
139	152	1
29	29	5
129	133	1
71	119	4
90	91	3
112	121	1
109	110	2
79	114	2
133	133	3
132	132	6
56	56	2
96	97	1
60	173	1
152	174	1
59	59	4
106	108	1
65	65	4
90	97	2
55	55	2
6	88	1
163	170	1
180	180	3
134	161	1
67	71	3
92	180	2
61	80	1
44	140	1
87	103	1
88	88	5
121	128	1
151	152	2
164	167	1
59	111	1
92	150	2
144	147	1
31	31	3
150	180	1
21	41	2
61	76	1
17	18	1
77	77	2
6	23	1
157	158	2
7	17	1
145	145	1
91	91	3
70	180	1
2	51	1
156	157	1
56	57	1
117	118	2
39	44	1
137	138	3
73	74	1
105	106	1
75	75	3
72	87	2
52	65	1
115	117	3
59	61	1
139	139	1
41	41	1
90	146	1
61	79	1
87	94	1
12	12	3
40	109	2
19	23	1
150	164	2
89	92	1
106	107	2
167	167	3
94	94	2
27	31	2
155	156	2
106	106	1
68	81	1
118	132	1
114	114	3
87	89	1
59	125	1
165	166	2
143	178	1
115	118	1
163	164	2
95	96	1
126	175	1
102	104	1
90	126	1
103	103	1
110	110	2
90	143	1
136	169	1
26	30	1
42	81	1
91	101	1
75	83	1
49	128	1
72	81	1
86	94	1
92	93	1
77	78	1
16	17	1
113	137	1
84	87	1
41	44	1
63	81	1
15	39	1
117	124	1
85	85	1
147	154	3
24	27	1
5	5	1
38	38	2
137	139	1
62	64	1
6	21	1
98	125	1
50	54	2
131	175	1
10	18	1
81	82	1
43	76	1
2	2	1
3	4	1
53	54	1
50	119	1
18	37	1
145	179	1
