98	131	3
81	81	3
57	58	3
15	17	1
164	164	7
99	125	4
73	73	4
84	85	4
96	97	3
169	169	7
12	13	2
107	107	2
1	1	4
83	83	2
44	44	6
120	120	2
147	151	3
48	122	3
18	18	5
64	66	2
78	79	1
86	86	4
58	58	1
9	9	5
127	128	2
101	106	5
122	122	8
105	105	1
158	158	2
8	8	3
159	159	4
51	51	2
50	50	3
167	168	1
55	55	5
37	37	1
11	12	7
96	136	3
137	137	6
89	90	1
14	24	2
91	124	1
97	97	5
7	7	5
128	129	3
1	2	2
53	54	3
33	34	2
140	140	9
47	47	6
117	119	4
152	152	10
26	26	2
52	52	6
10	11	2
139	139	3
48	48	6
25	25	4
108	109	5
71	72	2
64	64	3
27	27	3
38	38	6
13	13	3
148	149	4
151	151	1
62	62	7
46	46	6
3	3	5
11	11	1
141	141	2
57	57	1
82	82	2
66	67	5
23	23	3
19	19	4
24	24	6
69	70	4
135	135	3
48	110	2
147	148	2
50	51	1
136	136	2
164	165	3
13	20	6
109	168	5
143	143	4
26	27	1
22	23	2
106	106	7
145	145	2
166	166	3
45	46	1
34	34	3
146	146	2
150	151	3
163	164	3
142	142	5
150	150	4
130	130	4
125	141	1
148	151	1
76	76	5
166	167	1
114	115	4
7	10	1
149	150	2
112	112	5
12	12	2
157	157	1
99	99	1
149	149	4
154	154	1
47	121	1
15	15	2
133	134	4
90	90	6
52	53	3
88	124	3
10	10	3
85	85	8
5	109	1
100	101	1
42	42	4
84	84	2
6	7	1
4	4	3
49	50	3
170	170	3
43	44	1
165	165	3
94	94	4
165	169	1
34	35	1
91	91	3
156	157	2
47	48	3
36	36	2
110	111	2
19	20	1
102	102	1
16	16	1
127	129	3
69	71	2
40	40	3
89	118	1
10	52	2
95	127	1
132	132	2
16	18	3
15	16	1
128	128	4
4	6	1
153	153	3
82	83	3
37	41	1
66	66	4
33	33	1
89	89	2
58	63	1
68	68	3
102	103	1
96	96	1
108	120	1
87	87	3
77	125	2
35	36	3
70	70	1
65	65	2
105	161	1
104	105	2
152	153	3
120	121	1
16	23	1
134	134	1
115	115	1
41	41	1
6	114	1
26	28	2
2	3	1
123	124	2
145	146	2
133	133	1
14	14	2
71	71	5
106	154	1
20	20	1
74	74	2
49	121	1
17	17	1
140	141	1
67	68	1
95	97	1
162	162	1
56	56	3
74	75	1
42	157	1
94	125	1
12	24	1
45	107	1
119	119	2
3	5	1
9	113	1
139	140	1
