84	84	4
43	46	2
110	110	2
19	19	1
87	87	8
91	91	4
107	115	2
71	71	10
13	56	5
99	99	2
13	13	2
36	36	2
66	66	8
3	4	1
50	65	2
73	73	2
49	49	3
88	88	11
80	96	2
54	54	1
114	133	3
122	122	4
25	25	3
62	63	2
74	79	4
23	23	1
94	94	1
77	78	3
96	97	1
45	45	1
22	22	2
135	135	1
8	8	1
121	121	1
104	123	4
14	28	1
125	126	1
37	37	6
10	11	4
43	44	2
105	105	4
106	113	5
18	18	1
47	96	1
17	17	4
70	70	4
119	120	2
52	58	3
59	59	4
7	8	2
63	63	5
78	78	6
6	18	1
4	42	1
59	60	3
112	130	3
15	27	3
56	56	2
92	92	1
116	116	1
14	19	2
32	33	6
37	62	1
55	55	2
130	130	4
36	78	1
58	59	4
17	18	2
129	129	1
72	88	1
4	5	7
36	37	1
6	15	2
60	60	1
14	56	1
106	107	4
4	4	2
29	29	1
82	96	3
68	68	4
13	19	2
71	72	4
12	12	2
14	14	2
115	115	5
1	2	1
68	69	5
98	98	2
15	15	3
62	62	1
24	25	3
77	77	4
55	56	2
75	75	4
30	43	2
106	106	3
64	64	2
124	124	5
80	98	1
100	100	2
99	113	2
126	126	1
122	128	1
110	132	5
72	72	4
78	79	1
50	50	1
20	20	2
35	36	1
80	90	3
54	56	2
58	58	3
20	46	1
128	128	2
27	29	1
95	101	1
3	32	1
67	69	1
45	47	2
35	35	1
3	3	2
94	95	1
69	69	1
65	66	5
88	98	1
52	64	1
131	133	2
114	114	3
123	123	2
34	34	2
65	74	2
122	123	1
30	30	1
99	102	1
102	127	1
70	91	1
134	134	2
34	35	1
60	61	2
3	29	1
108	108	1
95	102	1
37	57	1
57	57	1
24	35	1
110	111	1
17	22	2
46	46	1
38	44	1
54	57	1
6	19	2
110	128	1
83	83	1
85	85	3
43	43	1
1	3	1
15	16	2
64	67	1
15	38	1
53	53	1
38	38	1
109	127	1
19	21	1
108	111	1
80	89	1
127	129	1
9	9	2
117	117	1
42	42	2
57	59	1
2	2	1
64	65	1
79	96	1
36	60	1
61	61	1
100	113	1
31	32	1
110	130	1
75	81	1
26	26	2
120	120	1
98	99	2
119	119	1
13	55	1
108	110	1
