47	57	2
102	102	9
129	129	2
86	127	3
74	102	2
10	10	6
126	128	1
82	82	7
53	97	4
136	143	3
56	84	4
82	86	4
92	92	2
69	69	2
63	63	2
72	118	4
141	142	4
32	32	4
50	50	1
28	30	1
36	88	1
1	35	1
38	60	2
52	64	2
69	70	3
106	133	1
4	34	6
83	88	2
137	137	7
88	126	1
95	95	10
13	14	3
121	121	6
144	144	2
88	88	3
72	72	2
90	91	3
30	31	4
4	4	2
24	25	1
74	101	3
108	108	6
28	28	7
139	139	6
36	36	2
101	106	1
67	95	2
73	103	1
62	62	6
18	19	4
74	79	3
40	40	4
67	67	2
101	141	3
8	8	2
77	77	4
94	102	2
114	115	3
23	24	5
119	119	8
113	114	2
130	130	1
75	75	3
104	144	1
8	43	3
105	138	3
35	35	4
48	48	3
124	128	1
80	80	2
99	101	2
87	127	4
104	104	3
134	134	3
103	118	1
59	59	1
136	136	1
79	97	1
100	100	2
126	127	2
64	138	2
53	85	4
39	39	3
120	120	2
99	145	1
116	116	3
31	31	2
76	89	2
93	94	3
36	64	2
115	115	3
37	37	4
113	113	3
83	126	1
52	52	2
126	126	2
27	35	1
116	122	1
107	108	4
135	135	4
109	109	3
79	93	1
128	143	4
59	62	2
16	27	3
125	125	2
22	54	1
21	21	1
2	2	5
99	104	2
11	11	8
43	83	3
15	15	4
128	128	3
133	133	1
66	84	1
86	86	1
8	33	4
0	37	1
20	57	3
68	69	1
8	41	3
17	17	5
85	85	6
106	143	1
61	64	3
68	68	1
25	25	3
108	109	2
139	145	1
99	105	1
73	73	3
83	91	3
77	79	2
37	39	2
5	29	3
76	128	3
52	53	2
78	90	2
79	79	2
83	92	1
117	117	4
91	93	7
142	142	3
124	124	4
76	76	1
71	72	1
115	116	2
29	29	3
19	19	6
66	97	2
59	84	1
49	49	3
104	105	2
63	76	5
76	77	4
75	76	2
99	100	4
41	42	4
106	106	1
64	100	2
102	120	2
15	23	4
111	132	1
112	112	2
54	55	1
27	27	1
107	121	1
115	118	1
94	94	4
62	141	1
84	85	2
78	78	1
77	78	1
107	131	1
43	43	1
129	130	2
65	140	3
91	92	3
76	78	2
42	42	2
59	79	2
41	41	1
3	35	2
114	123	3
135	142	2
33	33	2
64	65	2
118	118	1
110	110	2
91	91	1
78	91	1
82	127	1
26	35	1
5	5	4
82	126	1
24	24	2
109	124	2
65	101	1
9	9	4
51	66	1
80	90	1
64	64	1
135	136	2
57	57	2
13	24	1
74	117	2
18	18	2
115	124	1
78	97	1
52	85	1
143	143	2
103	103	4
122	122	3
86	92	1
2	25	3
130	132	1
104	137	2
60	83	1
77	98	2
111	133	1
81	94	2
66	93	3
33	39	1
5	30	1
144	145	1
64	77	3
81	81	1
72	73	1
105	128	1
26	26	1
33	41	1
23	42	1
30	33	1
94	96	2
117	118	3
76	105	2
79	94	1
60	85	1
135	137	1
30	30	2
16	16	3
104	106	1
115	122	1
105	134	2
60	60	2
83	83	1
43	82	1
72	95	1
3	3	1
134	143	1
108	111	1
123	123	1
138	138	1
23	23	1
16	42	1
6	6	1
2	26	1
53	53	1
118	120	1
18	64	2
132	132	1
25	26	1
125	129	1
