18	18	6
63	63	2
101	133	5
43	43	9
66	68	4
177	178	3
150	150	3
49	49	5
2	34	2
47	47	12
155	156	5
31	31	5
21	21	2
172	172	3
50	51	3
22	22	9
15	16	3
109	110	2
25	26	2
61	61	3
182	182	9
159	159	4
24	24	5
105	107	4
86	87	1
42	43	3
68	69	6
192	193	12
152	152	3
10	10	5
186	186	6
66	66	2
57	57	9
104	105	1
50	50	6
64	64	12
154	154	7
43	44	3
192	192	9
153	155	2
167	167	2
128	128	4
145	145	1
7	7	4
94	94	6
155	155	10
55	56	5
1	1	3
94	130	2
46	46	4
88	88	7
59	72	5
125	126	4
189	189	5
132	132	3
156	177	2
68	68	4
177	177	6
63	65	5
22	23	1
106	106	5
14	14	16
34	34	4
87	87	1
121	121	8
157	162	4
123	123	7
37	38	2
69	69	4
93	93	7
120	127	2
152	154	2
38	40	5
133	133	7
61	73	1
72	72	6
56	56	5
84	84	3
26	77	1
5	5	4
193	193	3
79	79	1
9	9	13
20	20	3
13	82	1
17	18	7
29	33	1
135	135	4
67	68	4
100	100	9
80	80	4
149	149	1
127	128	3
94	129	2
26	26	6
37	37	5
142	142	7
173	174	2
197	197	6
44	44	8
107	156	2
88	89	4
120	121	1
126	126	5
133	134	2
168	168	5
161	163	3
41	41	7
126	127	4
9	20	1
77	77	5
109	109	3
89	98	2
176	176	3
179	179	4
39	40	1
120	126	8
35	35	4
73	74	2
0	0	1
154	155	6
42	42	5
9	10	2
24	78	2
130	130	2
116	117	2
98	99	1
48	48	1
178	189	3
191	192	7
179	181	4
185	185	8
196	196	2
23	23	3
188	188	7
178	178	7
188	190	7
3	3	9
117	151	3
157	175	2
138	138	4
122	122	3
103	103	3
144	145	2
24	54	2
122	123	1
141	141	6
140	141	5
15	15	13
74	74	4
38	38	5
124	128	1
89	99	1
151	151	7
81	81	4
30	31	2
153	154	7
158	159	8
25	78	4
170	171	2
36	37	2
127	127	5
48	49	5
71	71	3
30	30	5
2	2	6
111	111	2
96	98	1
36	36	2
135	136	4
153	153	3
184	184	4
105	106	4
126	131	1
117	117	1
65	65	1
102	106	2
158	175	3
25	25	8
139	140	3
76	77	4
120	120	4
23	35	3
16	16	1
163	164	1
127	129	2
143	144	2
62	62	6
148	148	3
162	162	8
37	54	1
51	51	7
134	145	2
58	58	4
176	179	2
59	59	4
101	101	6
180	180	3
19	19	2
32	32	2
59	78	1
165	166	3
158	158	5
82	82	2
102	147	2
113	115	1
40	40	5
83	84	5
49	50	2
53	55	3
61	62	1
132	137	1
114	114	4
172	173	1
45	45	4
99	131	4
66	69	3
57	58	2
63	64	1
47	48	1
54	56	5
58	78	1
102	102	1
112	186	1
13	124	2
144	144	3
90	90	2
45	46	2
137	138	2
89	89	3
53	54	1
20	123	1
143	143	4
41	42	2
131	131	1
139	139	4
169	169	3
129	129	10
14	121	1
171	171	5
62	63	1
45	57	2
124	125	1
130	131	2
86	86	2
148	172	1
119	125	1
102	104	2
33	33	2
33	34	2
113	156	1
88	100	2
108	108	3
124	124	2
48	50	1
160	161	1
67	71	2
70	71	1
100	147	1
4	4	2
52	52	1
194	194	4
54	71	1
119	119	4
128	129	2
136	136	2
39	39	3
17	17	6
1	2	5
0	1	2
28	28	4
118	118	2
118	150	2
98	100	1
15	17	1
140	140	2
132	140	3
173	176	3
100	132	2
134	135	1
6	6	2
158	167	1
83	83	2
12	13	4
85	85	2
8	8	2
148	162	4
174	176	3
78	79	2
165	165	3
148	161	2
72	73	1
84	85	1
55	58	2
76	76	3
157	157	2
55	60	1
183	183	3
95	95	1
26	28	1
115	151	1
12	12	1
1	16	2
171	172	2
191	191	1
108	156	1
6	8	1
189	190	1
156	156	1
168	169	1
56	60	1
37	123	2
156	158	1
69	70	1
122	127	2
194	195	1
175	175	1
95	97	1
162	175	2
186	187	2
116	116	2
121	122	1
13	13	3
11	11	1
2	35	1
113	175	1
94	95	1
27	28	1
125	125	1
161	172	1
46	48	2
170	174	2
71	72	1
99	100	1
73	73	1
3	4	2
110	111	1
40	59	2
108	109	2
146	146	1
166	166	1
115	115	1
132	133	1
143	146	1
74	75	1
187	188	1
113	114	1
120	128	1
27	27	1
100	131	1
149	172	1
55	55	1
106	150	1
187	187	1
160	172	1
60	71	1
96	96	1
93	96	1
31	32	1
54	54	1
20	21	1
107	107	1
