7	7	16
48	48	3
17	18	2
122	122	4
11	12	10
94	94	13
110	110	12
133	133	4
121	129	4
60	85	2
98	98	9
57	66	1
43	43	8
112	121	5
13	13	5
83	83	24
84	88	2
116	127	2
22	22	16
5	40	2
21	22	1
73	73	9
82	83	3
41	42	5
59	60	6
66	88	5
97	99	3
81	87	3
123	123	10
77	101	6
13	27	2
77	118	2
68	68	3
2	3	7
73	92	2
128	130	4
113	114	1
44	44	19
45	47	5
114	114	15
53	53	16
58	61	4
28	28	10
125	125	4
29	29	8
57	57	18
100	100	15
88	88	4
59	61	5
72	74	8
104	104	12
90	90	16
8	54	2
47	47	12
44	45	5
132	132	4
117	117	5
69	87	1
15	21	5
60	60	14
129	131	3
80	80	14
55	55	13
57	80	5
68	69	6
45	46	6
18	18	1
74	74	4
78	98	12
124	125	5
71	71	10
20	20	4
115	115	2
39	105	1
6	6	15
96	113	1
66	66	5
132	133	2
61	87	1
21	21	7
19	19	6
0	30	4
62	62	4
64	81	1
86	86	1
112	115	2
99	99	8
103	103	4
83	96	1
42	42	9
89	96	2
63	64	5
13	33	2
10	10	7
42	43	4
57	58	10
84	84	6
108	109	7
81	81	1
13	14	3
81	82	8
120	120	9
3	3	8
106	106	10
24	25	7
106	109	2
103	114	2
78	79	7
93	93	7
4	4	20
92	92	16
76	76	4
108	108	6
32	32	12
61	61	7
5	31	5
96	96	10
26	27	4
25	57	5
105	105	11
110	111	3
101	101	1
89	89	11
65	65	8
45	45	6
85	85	3
80	81	7
64	64	3
4	11	3
14	14	9
75	76	9
43	44	3
127	127	7
70	70	12
111	111	8
95	110	6
104	106	7
126	126	1
93	95	1
0	0	12
8	10	1
39	39	14
42	115	2
5	5	3
101	102	2
4	9	4
67	67	10
96	98	5
63	63	16
103	105	3
93	94	15
103	132	4
111	113	2
11	11	6
72	72	16
4	5	10
49	49	4
117	118	3
56	56	7
59	59	10
39	43	6
112	112	6
72	73	3
121	121	6
97	100	9
116	118	1
65	66	2
25	26	5
23	23	8
84	87	4
22	30	3
49	63	4
75	85	2
32	42	4
46	46	4
69	70	8
102	126	1
19	20	3
29	66	4
30	30	4
31	32	2
61	64	2
29	40	2
19	69	5
75	75	12
126	127	7
129	130	1
88	90	2
1	2	4
66	67	2
124	124	9
15	16	5
107	107	7
34	34	3
105	106	5
113	113	13
61	62	2
18	69	3
17	17	6
31	31	2
73	91	3
82	82	5
24	24	7
75	103	4
95	95	13
105	118	2
67	71	6
58	58	6
115	128	2
32	40	1
21	67	2
69	69	8
86	87	2
91	91	4
75	91	1
39	55	4
18	19	10
43	48	1
10	16	1
61	63	3
40	40	7
130	130	3
12	33	2
109	109	4
83	102	1
19	68	3
51	51	14
8	9	3
56	64	2
46	47	3
10	13	2
118	119	3
22	29	3
128	128	4
4	29	1
85	86	2
109	120	3
12	122	1
78	78	5
90	91	3
32	67	1
50	50	4
30	57	1
26	26	6
4	6	4
12	12	9
57	65	1
23	24	2
118	118	4
22	34	2
56	63	1
105	107	4
29	30	2
105	123	3
59	85	1
5	28	2
87	88	7
117	120	1
40	43	1
116	116	5
6	41	1
112	117	1
33	71	4
110	123	2
54	54	4
19	21	2
21	33	5
87	87	1
77	77	1
52	52	4
16	17	5
39	40	3
30	31	3
16	18	5
115	116	7
119	120	1
46	90	1
80	85	2
33	39	2
69	74	2
119	119	2
129	129	1
1	1	3
84	102	3
32	108	2
49	50	3
7	8	1
15	15	4
104	115	2
7	25	1
83	84	3
122	123	2
42	45	1
116	117	4
25	25	3
45	58	1
27	27	6
102	102	4
27	28	5
21	30	1
73	74	3
65	69	2
80	83	1
38	38	2
73	75	1
37	41	3
12	25	1
88	91	2
84	85	3
103	104	2
83	88	2
94	95	4
58	62	1
31	107	1
119	127	2
62	82	2
24	26	1
102	111	1
7	21	1
52	115	2
112	113	1
53	113	1
101	106	1
44	51	3
18	20	1
46	48	3
88	89	3
24	43	1
120	121	3
78	97	2
66	69	2
130	131	4
42	80	2
63	88	1
25	80	1
121	122	1
101	124	3
0	1	2
111	117	1
76	77	1
131	131	5
68	70	2
103	124	1
33	34	1
5	52	2
94	108	1
9	9	2
75	102	1
60	62	1
109	110	1
104	105	1
112	133	1
54	56	1
124	131	1
79	84	1
20	126	1
11	14	1
41	120	1
121	124	2
11	30	1
116	119	1
38	45	2
38	40	1
20	21	2
104	126	1
60	61	1
80	82	1
5	10	1
33	67	1
6	23	1
16	16	1
26	45	1
96	97	1
64	84	1
103	126	1
89	90	1
61	84	1
