31	47	3
105	105	18
41	42	3
32	32	6
95	95	9
122	122	5
25	25	1
50	52	1
79	79	7
134	140	1
19	58	1
27	27	5
100	110	1
24	24	4
41	41	8
27	30	1
18	18	9
93	93	8
110	110	8
22	22	8
3	3	5
10	10	11
65	65	6
49	50	9
115	115	3
76	76	12
122	123	2
77	83	7
124	124	2
107	109	2
106	106	6
5	5	7
139	139	12
3	14	2
76	118	3
50	50	4
94	94	9
85	85	9
47	47	5
136	139	3
35	35	9
43	49	3
33	33	10
145	145	2
83	83	6
131	131	10
76	77	2
72	73	4
102	102	9
64	64	8
111	111	3
116	116	7
127	136	2
40	40	9
13	51	3
120	121	7
30	30	3
133	133	3
145	146	1
15	16	1
114	114	3
81	81	4
3	52	2
57	57	4
100	119	1
100	101	2
16	51	4
128	128	18
26	27	1
99	99	6
141	141	7
0	0	5
91	92	3
21	43	2
16	17	2
53	53	4
23	39	1
29	29	9
90	96	2
75	75	4
64	65	2
36	36	7
74	75	3
69	70	6
17	51	1
63	63	12
136	136	13
101	134	1
62	62	8
112	113	2
52	52	4
101	101	10
97	97	6
17	17	3
51	51	2
77	77	3
74	74	12
93	94	6
61	61	5
58	59	5
143	144	2
106	107	6
21	40	2
48	48	3
55	55	4
102	142	1
127	139	1
28	28	1
4	6	9
104	132	3
20	52	1
53	54	9
103	103	3
90	90	2
78	78	4
100	100	3
21	22	3
54	83	4
125	125	3
108	131	2
60	60	3
3	34	4
123	124	6
11	11	2
26	26	10
67	67	5
24	25	2
137	138	8
130	130	5
69	97	2
108	108	6
50	51	3
91	121	1
89	89	11
56	56	1
49	49	10
13	13	4
16	16	6
24	39	2
21	51	1
71	71	5
42	42	2
113	114	5
82	82	6
120	120	4
119	120	2
123	136	2
87	87	2
99	100	1
59	60	5
9	9	5
101	103	2
77	118	1
125	126	4
118	119	2
10	49	3
88	88	7
70	71	2
28	30	4
0	48	4
84	84	11
137	137	4
121	122	1
134	134	6
121	141	2
140	140	6
15	15	7
18	19	8
56	57	4
142	142	13
113	115	4
0	1	4
6	6	4
128	130	3
70	70	5
30	31	4
1	6	2
59	62	2
121	121	6
135	136	2
98	98	6
107	107	5
144	145	2
110	111	2
30	32	1
116	118	2
68	68	6
72	72	4
77	78	3
141	142	3
91	91	10
4	34	3
73	73	9
129	129	6
54	54	6
34	34	4
19	42	3
105	106	7
47	49	3
117	117	9
138	138	4
90	91	1
59	59	4
51	52	1
57	58	2
80	81	1
119	119	7
139	140	1
32	35	1
63	66	2
127	127	6
80	80	5
20	21	4
129	130	1
4	4	3
37	52	1
87	90	2
2	3	1
75	117	1
123	123	2
4	5	2
104	104	1
97	116	4
21	21	6
33	34	1
125	136	2
37	37	13
92	93	2
118	118	2
75	111	3
128	132	1
68	115	3
90	118	1
98	99	3
66	66	3
82	83	1
20	20	6
38	57	2
15	18	3
31	31	6
124	136	2
89	92	5
14	14	6
1	47	1
40	51	1
29	30	4
96	97	2
133	134	1
76	78	3
40	41	3
55	56	4
71	79	2
83	84	3
77	79	2
21	52	4
69	113	1
1	1	1
88	90	1
2	2	3
19	19	1
92	92	4
20	51	2
115	117	2
101	102	1
65	66	1
85	86	1
77	112	3
121	123	1
2	34	1
23	23	1
75	116	1
32	33	2
80	82	1
4	8	1
107	108	5
88	92	3
130	132	1
17	18	1
23	26	1
36	37	2
86	90	1
5	8	2
111	115	1
19	41	1
100	120	1
62	63	1
69	69	3
144	144	2
63	65	1
143	143	1
131	132	1
96	96	1
3	33	2
106	108	2
89	90	1
61	62	1
68	69	2
95	96	5
126	127	1
70	76	1
15	40	1
88	89	1
86	86	2
12	12	1
121	134	2
87	89	2
79	80	1
126	126	2
80	83	2
6	33	1
117	118	1
87	119	1
97	98	1
132	132	1
105	121	2
122	135	1
31	33	1
37	53	1
99	134	2
27	81	1
116	117	1
0	6	1
95	98	1
58	60	2
112	118	1
88	91	1
15	17	1
25	26	1
20	40	1
47	48	1
43	52	2
103	104	1
110	119	1
60	61	1
21	23	1
108	109	1
