131	132	2
128	129	2
53	53	2
47	47	3
71	71	4
83	85	1
107	121	2
5	5	9
15	15	3
73	73	6
101	119	2
88	88	5
87	88	2
115	115	2
65	66	5
29	29	7
87	89	2
2	4	6
92	92	10
102	102	3
19	20	2
107	107	4
63	63	2
1	1	3
90	91	4
98	98	3
22	22	6
104	116	1
11	11	8
133	133	1
111	111	4
8	11	3
76	77	4
124	131	1
49	54	2
28	28	6
83	83	3
112	112	4
41	47	1
39	39	8
42	80	1
26	26	9
119	119	7
108	125	4
24	24	3
131	131	3
61	68	2
130	131	3
30	32	1
89	91	4
94	94	3
33	33	5
75	103	2
8	8	8
23	23	1
22	33	2
31	33	3
123	123	4
57	69	1
79	79	3
91	91	3
25	25	11
108	109	1
16	17	1
115	127	1
32	32	4
57	57	3
76	76	6
72	93	2
87	87	1
101	101	3
130	130	2
46	46	3
0	0	8
56	69	3
5	47	2
50	50	4
49	50	1
109	110	3
7	8	2
102	103	4
6	6	1
42	42	4
127	127	4
129	129	2
89	89	10
93	93	11
85	90	2
126	126	1
115	122	2
49	53	3
42	44	5
21	21	3
52	52	6
9	56	1
60	60	8
7	46	1
47	48	2
122	122	3
21	31	3
86	91	3
105	106	8
110	110	2
67	67	4
99	99	6
2	2	4
117	119	7
84	100	5
106	107	1
40	55	1
33	34	2
115	116	4
31	31	2
69	69	3
91	92	1
9	10	2
43	79	1
124	124	4
12	12	1
120	120	1
54	54	1
55	55	4
77	78	2
66	66	1
51	51	3
58	58	2
50	51	4
65	65	6
4	4	1
3	56	1
80	80	1
61	66	1
49	49	4
108	108	2
72	94	2
45	45	3
106	106	3
40	54	1
14	28	1
10	10	4
68	68	3
58	59	5
118	118	5
72	74	4
3	3	4
13	13	7
104	105	2
109	109	4
48	48	6
42	43	3
27	30	2
118	119	1
29	44	1
84	84	4
14	14	2
117	117	3
0	30	2
41	46	1
75	75	2
73	90	1
93	94	2
104	118	2
72	72	3
116	133	2
0	12	1
23	24	3
0	1	4
7	7	3
19	19	1
128	128	2
78	78	3
100	100	6
96	97	4
79	80	3
83	87	1
3	9	1
5	13	1
86	87	1
95	97	2
86	86	3
60	80	1
17	17	2
101	104	2
85	87	4
54	55	1
97	99	3
63	66	1
68	126	3
62	62	3
64	69	1
94	123	1
100	118	3
124	125	3
97	97	2
2	3	2
1	50	1
108	112	1
116	128	1
114	114	2
9	9	1
65	99	2
81	81	2
86	88	1
44	44	3
116	116	4
8	12	1
90	90	3
3	7	2
127	130	3
112	113	1
88	89	1
15	16	3
27	29	1
5	7	2
42	45	1
5	55	1
96	109	1
74	74	2
18	19	1
22	24	2
48	59	1
85	85	1
95	95	3
77	77	1
70	70	2
83	84	1
103	103	1
27	27	1
109	111	1
48	49	1
73	74	1
1	55	1
109	125	2
121	121	1
38	39	1
95	96	1
86	107	1
54	57	2
48	55	1
81	82	1
54	110	1
68	132	1
117	118	1
132	132	1
30	30	2
48	57	1
105	117	1
59	60	1
34	34	1
104	104	1
84	85	1
72	91	1
125	125	2
27	28	1
43	44	1
38	38	1
99	102	1
37	39	1
41	60	1
92	93	1
62	63	1
18	18	1
119	120	1
3	53	1
