35	38	1
76	88	5
88	99	3
92	94	2
76	76	2
49	63	1
106	106	1
102	102	3
45	46	3
75	90	4
92	92	5
85	88	1
67	74	1
74	75	1
87	97	2
63	65	2
68	68	3
26	40	1
55	56	7
73	77	2
85	86	1
77	84	2
26	28	3
32	50	2
25	37	3
75	85	1
88	98	1
58	61	2
100	101	1
98	99	2
65	68	1
71	73	2
32	32	3
35	35	4
63	79	1
97	99	3
67	81	2
24	24	3
32	41	1
57	77	2
62	73	2
75	75	4
49	61	6
71	79	2
94	94	5
58	59	5
55	63	3
29	29	2
94	97	1
54	55	3
82	82	1
65	67	8
40	40	5
73	73	5
44	61	2
76	98	2
93	96	1
81	81	1
64	79	1
35	37	2
86	100	1
70	71	2
35	44	2
94	96	4
34	35	3
87	88	1
86	98	3
59	63	2
98	100	3
64	66	1
21	21	4
85	92	2
20	31	2
94	101	1
37	42	1
93	94	4
97	97	3
24	25	3
96	96	1
85	91	1
91	91	2
28	29	1
22	22	1
57	69	2
68	69	1
93	107	6
77	79	4
92	93	2
78	79	2
41	45	1
31	40	3
78	78	1
22	31	2
38	38	2
39	39	4
82	87	3
60	60	5
91	96	2
91	92	2
58	58	6
40	43	1
67	68	3
50	50	2
43	52	2
41	53	2
55	55	1
40	49	2
56	65	1
59	61	3
94	95	2
98	98	7
51	65	3
20	20	1
23	23	3
28	28	2
97	102	2
52	65	2
53	62	1
103	106	1
78	93	2
48	49	1
43	43	1
53	53	2
87	99	1
22	44	1
61	64	2
50	51	1
104	104	2
78	86	1
35	46	3
44	45	2
90	91	2
23	25	2
89	89	3
98	101	1
35	42	1
38	42	2
22	26	2
42	56	1
49	62	6
50	64	4
33	34	2
89	90	2
32	46	1
80	85	1
89	92	1
71	72	2
51	55	2
59	59	1
92	96	1
88	91	4
20	27	2
35	36	1
25	33	1
53	65	2
99	102	2
65	70	2
60	82	1
74	78	1
45	52	1
76	92	1
63	82	1
104	105	3
50	58	1
78	91	1
78	83	1
96	106	5
47	63	1
100	105	3
81	85	4
77	77	1
99	107	1
76	82	3
26	32	1
43	46	1
63	64	2
46	47	1
74	77	1
22	30	1
71	80	1
103	105	1
59	68	1
97	100	3
102	103	1
80	92	1
55	60	1
71	82	1
34	37	1
80	83	1
64	65	2
34	48	1
32	34	1
93	93	2
81	82	1
25	28	1
42	42	1
72	72	1
41	41	1
83	98	1
54	57	1
59	62	1
32	42	2
29	41	2
51	51	1
20	21	1
44	48	1
36	51	1
87	87	1
47	47	1
72	87	1
42	53	1
92	98	1
86	86	1
37	37	1
23	29	2
75	77	1
34	34	1
40	42	3
55	57	1
47	49	1
56	56	3
84	84	2
39	49	1
84	89	2
81	99	1
46	46	1
75	79	1
70	70	1
103	104	1
34	42	1
81	86	1
21	32	1
45	50	1
66	66	1
101	102	1
60	63	1
27	29	1
87	95	2
99	100	2
29	36	1
61	73	1
57	68	1
68	71	1
54	54	1
36	36	1
83	85	1
72	74	1
30	32	1
