128	128	13
93	97	1
158	160	1
108	109	12
80	80	7
76	76	21
53	53	2
130	130	17
4	54	3
91	94	5
116	116	5
2	2	11
118	118	3
169	169	7
3	3	12
146	146	11
68	69	1
28	28	5
163	165	1
66	66	8
64	64	2
145	145	5
113	113	2
14	14	12
23	23	4
136	136	10
5	5	12
37	38	4
94	94	9
1	1	17
102	103	6
46	46	8
160	160	4
170	170	10
66	141	2
4	53	1
21	21	13
67	67	3
4	19	9
80	127	1
73	73	16
36	36	16
165	165	8
8	81	6
127	127	7
131	131	9
102	102	19
17	17	10
74	141	3
0	8	1
80	129	8
57	57	6
154	155	4
13	13	10
134	135	6
43	43	18
117	117	10
159	160	6
49	49	10
22	36	1
34	34	9
149	149	7
132	132	9
47	48	2
105	149	2
26	26	8
140	140	8
121	121	4
112	112	16
129	129	13
12	12	9
145	155	1
104	104	13
20	20	8
21	22	7
56	56	9
34	35	5
155	155	4
19	112	1
35	145	1
87	87	5
168	168	6
38	38	7
98	98	11
17	110	5
92	93	2
139	141	3
164	164	4
24	24	3
119	119	7
124	125	9
155	158	4
79	79	6
81	138	4
35	36	3
45	45	12
107	107	6
11	11	9
50	51	8
92	92	8
134	134	6
43	44	2
89	89	6
128	129	2
167	167	7
77	77	7
70	102	2
110	110	6
159	159	18
107	110	5
118	119	4
62	77	2
37	37	9
56	137	8
114	114	7
153	154	6
88	88	8
4	6	3
166	166	14
152	153	3
97	97	6
108	108	12
137	138	9
9	81	3
142	143	10
151	151	15
109	109	14
7	92	4
71	81	3
123	124	1
22	22	12
25	26	2
48	48	6
48	52	2
90	90	13
126	126	7
18	54	2
99	99	12
93	94	3
169	170	3
156	156	8
117	118	6
27	168	5
57	62	3
142	162	3
124	124	8
158	159	2
18	18	11
5	18	1
34	38	4
120	120	6
15	15	7
35	35	12
25	25	3
50	50	3
104	122	1
86	87	1
86	86	7
15	136	3
23	24	5
93	93	4
71	99	4
168	170	1
123	123	4
162	162	5
105	155	4
63	63	2
99	141	1
157	161	2
27	28	6
19	20	7
55	56	4
111	111	5
28	123	7
7	7	12
19	19	3
125	125	7
69	75	2
158	166	1
137	137	8
74	74	3
72	72	2
126	127	4
90	93	4
133	133	22
157	157	10
55	86	3
47	47	9
73	82	2
153	153	7
144	144	8
53	54	1
166	167	3
91	91	12
16	16	3
10	10	5
62	63	4
81	81	8
139	139	8
10	116	2
143	143	2
148	154	1
148	148	4
105	106	4
73	79	1
158	158	9
34	37	3
8	123	2
7	83	1
125	134	1
143	161	2
101	101	12
69	69	4
142	142	1
4	4	7
42	43	1
105	118	2
115	115	4
35	108	3
106	107	1
155	156	4
98	99	1
27	27	7
147	147	1
163	166	2
101	102	5
150	150	1
71	71	4
105	159	1
70	139	1
65	95	1
92	97	1
54	54	5
39	40	3
82	82	8
122	122	3
128	133	1
105	105	1
84	84	5
42	53	2
85	85	12
39	118	2
40	40	10
112	114	5
106	106	5
13	139	3
8	8	8
6	7	2
157	166	5
0	1	1
112	113	6
16	136	2
145	170	1
3	4	2
16	17	1
138	138	11
74	80	1
85	86	3
44	44	7
11	13	2
144	156	2
4	5	2
63	159	2
19	120	3
150	152	1
28	127	2
99	100	2
37	40	1
43	52	4
0	0	2
106	138	2
67	68	1
55	55	7
151	152	2
72	159	1
42	46	2
1	3	2
71	103	1
10	78	1
84	85	2
163	163	4
161	161	3
65	67	1
157	163	1
99	101	5
78	79	1
75	75	5
83	84	8
1	82	5
12	76	1
154	154	5
84	92	6
100	100	11
41	41	9
99	143	1
18	20	1
114	115	1
5	114	5
16	84	3
90	137	1
49	51	3
73	169	3
105	121	1
38	41	2
162	163	1
18	93	1
24	25	1
86	107	1
52	52	4
10	101	1
150	155	1
143	144	1
99	105	1
57	63	2
131	132	4
130	131	3
47	49	3
73	74	2
95	104	2
39	45	1
111	151	1
72	75	1
92	138	2
14	15	3
101	116	5
7	58	1
74	75	6
7	17	1
132	133	4
33	34	2
16	82	1
95	113	2
2	5	1
93	156	3
1	2	4
14	57	1
88	89	5
42	42	1
90	136	3
64	69	1
123	125	3
91	96	2
140	161	1
15	82	3
66	101	2
75	169	2
15	87	1
6	6	3
10	11	1
147	153	1
58	58	2
15	74	2
105	108	1
8	115	2
78	78	4
41	117	2
9	9	3
70	73	1
83	83	3
22	24	1
76	138	2
96	97	2
69	158	1
143	145	1
46	47	2
25	44	2
123	150	1
22	23	2
90	105	2
70	70	1
81	140	1
106	161	1
15	89	1
65	94	1
24	122	2
40	41	2
118	120	1
74	140	2
90	92	2
58	62	1
91	93	1
99	159	1
79	128	1
80	81	1
35	37	1
39	39	3
93	114	1
107	146	1
151	157	1
122	141	1
109	166	1
9	10	1
150	151	1
99	138	1
65	68	1
156	157	1
64	121	2
77	98	1
16	55	1
135	135	1
33	33	1
141	141	1
122	154	1
102	157	1
54	55	2
123	144	2
0	6	1
154	157	1
79	81	1
13	14	1
69	102	1
147	154	1
86	165	1
152	154	1
72	92	1
105	154	1
148	153	2
85	89	2
88	164	1
104	105	1
109	110	1
10	15	1
139	169	1
51	51	1
82	83	1
28	168	1
89	90	1
3	7	1
20	24	1
14	107	1
17	18	1
51	55	1
65	65	1
52	56	1
