77	77	14
4	4	27
18	18	9
0	0	18
29	29	13
53	53	20
50	50	27
51	51	11
3	3	18
70	70	16
50	51	1
58	61	2
72	72	27
14	14	7
56	56	15
37	37	22
73	73	15
7	8	18
41	41	28
60	60	11
78	78	7
64	64	12
45	45	10
68	68	15
19	19	12
3	6	13
42	42	18
65	65	11
11	11	11
13	14	14
32	32	18
26	27	11
52	52	15
64	65	3
27	27	29
15	15	8
40	40	13
12	53	1
39	39	22
74	74	25
76	76	11
69	69	12
31	31	18
80	80	14
21	21	11
49	49	19
12	12	17
7	7	16
75	75	23
63	63	21
3	4	4
49	50	12
31	32	7
22	22	3
6	6	10
8	9	9
38	38	5
8	8	21
34	34	17
71	71	14
70	71	6
10	11	3
59	59	16
47	47	23
48	48	20
78	79	5
74	75	3
65	66	1
28	28	16
33	34	2
36	36	10
59	60	2
62	62	11
79	80	3
26	69	5
10	10	19
31	70	2
63	64	7
43	43	6
41	63	1
9	9	13
35	35	22
67	68	5
17	27	1
2	3	3
47	48	6
46	46	20
35	36	5
32	33	10
72	73	3
0	1	2
49	53	1
25	26	6
54	54	20
73	78	1
25	25	7
30	30	13
27	28	2
33	33	17
51	52	9
66	66	8
50	54	5
66	67	2
13	13	6
69	70	7
35	63	1
12	14	2
53	54	11
4	80	2
28	29	6
50	53	3
75	76	5
26	26	8
26	28	6
54	55	5
26	46	1
4	5	1
61	61	11
57	59	3
11	55	5
71	77	1
2	2	10
38	39	9
67	67	18
31	34	2
13	15	3
55	55	15
60	61	8
9	26	4
26	55	1
5	17	2
8	12	5
16	17	7
4	17	1
5	28	1
5	7	1
17	17	11
5	5	4
68	70	3
1	1	8
16	16	6
75	78	2
34	35	5
68	69	12
58	58	7
61	62	2
29	30	1
44	45	1
35	78	5
26	63	2
34	39	3
76	77	4
5	25	3
2	5	2
41	68	1
58	59	5
58	60	3
41	42	2
46	47	4
40	72	2
62	63	1
6	7	2
20	21	4
77	78	1
31	40	1
49	52	4
8	27	4
6	26	2
5	6	4
13	54	1
79	79	7
57	57	5
20	20	4
11	12	2
77	79	2
17	18	4
15	68	3
30	59	1
11	14	1
5	27	1
12	13	2
40	65	1
75	77	2
25	54	3
16	41	2
25	55	2
67	70	2
9	10	1
40	62	1
32	72	1
16	20	1
31	64	1
8	26	1
3	7	1
73	74	1
37	38	2
12	15	1
1	28	1
49	51	1
52	53	1
13	50	2
28	30	1
74	78	1
1	2	1
53	55	1
