118	118	6
154	154	9
101	101	5
145	166	1
137	138	8
209	214	7
39	40	1
199	199	4
64	64	9
193	211	7
155	155	5
50	53	2
242	242	8
41	41	8
119	119	9
146	146	3
189	204	2
26	26	8
115	115	5
105	109	1
187	187	5
51	51	8
149	149	11
108	113	3
228	228	11
163	163	7
206	207	3
144	144	7
7	72	1
30	33	2
56	56	9
223	223	6
205	229	2
58	58	9
122	122	5
220	241	1
157	157	11
10	11	4
127	127	4
21	21	11
141	143	5
159	193	4
6	6	7
200	200	7
165	166	5
211	212	7
18	150	2
74	74	11
180	210	1
145	203	1
213	213	8
102	102	7
216	216	10
22	22	15
175	175	7
141	141	7
79	79	6
227	227	20
4	77	1
165	165	6
4	153	3
192	193	3
46	73	4
184	205	2
183	183	2
156	158	1
189	194	2
195	195	12
153	154	9
221	222	4
166	166	23
197	197	8
97	99	2
137	162	3
230	230	2
71	71	16
148	166	2
100	114	2
129	129	8
128	197	4
33	33	10
2	3	7
29	29	10
205	206	2
27	67	2
15	15	16
233	234	1
73	73	11
192	192	4
192	195	3
150	150	4
51	70	2
113	113	15
4	4	13
107	107	2
232	233	2
88	88	2
82	83	3
67	67	6
207	207	3
108	108	4
28	28	15
197	212	3
114	114	7
169	171	2
14	23	6
123	124	3
12	14	2
18	18	6
19	19	10
145	213	2
107	115	2
238	238	3
80	81	2
139	140	2
14	148	2
180	180	4
140	141	5
46	46	3
125	125	5
135	135	8
139	143	1
157	158	4
225	225	7
44	46	1
129	234	2
108	109	5
160	160	5
117	117	4
156	157	2
54	54	3
106	106	2
37	48	4
70	70	7
159	159	2
71	73	10
14	14	8
5	91	1
151	151	7
124	124	8
208	230	4
158	158	8
53	53	3
26	69	1
19	21	4
77	77	3
102	222	5
45	45	5
186	186	6
20	20	2
203	204	2
28	62	1
221	221	5
241	241	4
6	8	3
125	204	2
223	224	3
126	189	1
208	215	1
181	181	6
135	158	1
146	215	1
161	161	6
9	9	5
24	24	7
16	22	3
8	8	9
148	148	11
59	59	2
196	197	5
162	162	5
188	188	9
214	216	4
196	196	5
10	68	1
145	145	4
38	38	7
15	42	2
104	208	1
57	58	7
120	120	8
172	173	5
197	209	1
85	85	7
135	136	4
143	143	21
42	42	8
55	55	4
121	121	1
153	153	4
226	227	6
14	26	3
91	91	2
1	3	1
39	39	3
37	85	5
203	203	6
1	4	1
81	83	2
210	210	7
202	202	5
16	17	1
231	231	2
61	61	1
224	224	7
131	131	3
44	159	3
152	159	3
140	140	4
27	28	2
169	235	1
188	189	1
209	209	3
220	220	6
12	12	5
128	128	6
13	14	2
9	84	1
54	166	2
106	233	1
97	111	1
136	136	7
70	71	1
78	80	1
95	95	2
127	212	4
8	103	3
121	127	3
226	231	1
138	138	6
144	191	1
160	161	3
36	36	2
204	204	13
31	79	2
133	134	2
12	15	4
81	82	6
155	241	5
211	211	6
134	134	10
235	237	3
0	0	3
98	100	2
7	8	2
99	99	5
63	63	7
163	167	2
217	217	5
4	5	3
129	165	1
168	217	1
97	110	1
169	169	10
72	73	5
209	210	1
1	7	1
179	179	2
104	104	3
159	189	2
80	80	3
119	120	3
191	191	2
103	107	1
126	199	3
186	194	1
37	37	3
110	173	1
116	116	4
65	65	5
154	240	1
30	59	2
236	236	5
85	86	1
3	4	1
78	78	5
62	63	3
2	103	1
41	181	3
240	240	1
193	193	2
194	199	2
152	152	2
119	229	2
122	197	2
15	16	3
219	242	3
217	242	1
75	75	2
145	167	1
55	85	1
196	209	2
152	161	1
222	222	3
25	25	5
30	75	3
78	79	2
23	24	3
72	72	8
31	31	2
9	48	2
167	167	3
15	40	2
189	189	1
190	190	8
17	18	3
6	152	3
29	84	4
3	3	2
97	97	6
210	211	2
50	201	3
19	20	3
119	220	1
7	21	1
12	19	1
186	193	2
137	137	8
219	219	6
164	175	5
232	232	2
236	237	6
5	89	2
208	217	2
214	214	3
170	217	1
1	84	3
128	241	1
13	23	2
29	31	3
27	27	4
97	98	1
84	84	6
165	189	6
215	215	4
121	124	4
217	218	4
185	185	6
9	46	3
115	116	3
177	177	2
237	239	1
43	202	1
44	44	8
9	113	5
122	208	1
53	166	5
171	175	4
57	231	2
137	140	1
122	124	3
46	74	2
149	150	2
164	165	3
145	146	2
111	111	1
147	148	3
68	84	1
109	135	2
98	98	2
51	52	7
168	168	3
140	219	1
218	218	4
184	185	3
18	20	2
162	163	1
227	231	4
3	103	1
138	139	1
57	80	2
32	33	3
206	217	1
96	96	3
51	231	2
75	79	2
177	178	1
131	151	1
206	219	1
171	174	2
179	180	6
205	205	6
118	231	2
110	110	2
45	77	4
162	176	4
174	174	3
43	43	5
25	42	2
83	84	3
232	242	2
76	76	6
233	233	3
68	69	1
47	48	4
201	201	2
109	109	3
37	73	2
63	64	1
123	123	3
229	230	3
226	226	6
86	86	2
167	168	7
30	32	3
104	219	2
11	47	1
183	200	2
239	239	1
5	31	2
77	80	2
212	212	2
123	195	2
235	235	3
67	68	1
103	103	3
69	72	3
18	19	3
1	13	5
69	69	4
19	225	2
45	58	1
144	166	2
56	57	1
133	137	3
34	34	2
237	237	3
16	16	7
201	202	1
133	133	5
78	84	2
164	190	1
200	201	2
176	190	1
196	207	3
32	46	2
142	142	1
44	45	2
5	5	4
13	26	1
187	191	2
143	194	3
105	106	4
115	227	2
9	47	1
139	139	3
182	182	2
54	55	1
4	33	1
190	191	1
183	192	1
134	135	1
23	23	1
138	142	3
8	71	1
115	231	2
151	190	2
144	145	1
166	174	1
198	198	3
25	26	2
45	147	2
103	105	2
0	84	1
60	60	1
132	133	2
62	62	2
172	178	1
229	229	1
161	240	1
155	156	1
13	15	3
69	70	1
50	203	1
142	143	1
209	213	1
113	152	1
198	199	1
38	39	1
116	117	1
112	113	2
83	83	4
192	210	1
13	13	3
2	6	1
205	218	1
48	49	1
81	81	2
56	59	6
108	112	1
11	12	1
30	30	2
34	35	3
112	112	3
103	104	4
176	176	3
1	31	1
99	102	1
214	215	2
145	147	1
173	174	1
143	148	1
169	234	1
134	136	1
10	55	1
9	112	1
104	143	1
223	225	2
10	10	2
16	23	1
146	150	2
195	209	2
62	64	1
22	23	1
108	118	1
136	137	1
2	154	2
34	38	2
63	68	2
148	192	1
123	189	1
77	78	1
46	95	2
208	208	1
49	51	1
220	221	1
56	146	1
82	82	1
235	236	1
173	173	2
164	164	1
196	211	1
197	198	1
155	240	1
185	200	1
26	83	1
171	171	1
131	189	1
172	172	1
129	130	2
206	206	3
15	17	1
206	231	1
185	209	2
1	1	2
63	65	2
137	141	1
220	222	1
17	17	2
35	35	1
50	50	1
0	151	1
107	118	1
89	89	1
184	184	1
76	79	1
158	233	1
164	188	1
11	35	1
109	116	1
171	178	2
28	68	1
4	167	1
107	108	1
36	71	1
74	75	1
144	172	1
3	9	1
100	115	1
194	196	1
