51	62	4
33	33	13
27	27	15
26	26	18
99	99	10
60	60	12
81	81	18
77	77	19
66	67	7
66	75	1
74	74	21
89	89	15
97	98	8
75	75	12
68	68	13
48	49	10
48	72	3
95	96	3
58	85	1
88	88	15
92	92	3
79	79	22
48	48	14
80	80	9
77	78	8
25	25	9
69	69	7
40	41	6
61	61	17
38	39	2
66	77	3
76	76	12
69	78	7
43	43	11
75	76	3
70	70	13
85	85	13
45	45	11
66	73	4
51	51	11
72	72	10
53	100	2
71	75	6
71	72	9
44	44	3
68	76	1
72	82	1
65	65	17
66	66	4
46	47	5
67	67	11
74	75	9
78	78	16
94	94	4
73	73	16
83	83	7
91	91	11
42	42	5
58	59	7
80	82	1
34	34	3
81	83	2
67	80	5
50	62	1
102	102	2
59	59	3
47	47	3
82	83	2
86	86	8
46	46	10
70	78	1
87	87	4
52	52	1
82	82	3
62	62	13
58	58	4
36	36	3
76	77	8
40	40	1
86	91	3
99	101	2
49	50	3
60	64	1
46	94	2
67	68	12
37	38	2
22	22	2
37	37	4
71	71	11
31	31	5
60	65	2
57	57	5
49	49	1
24	24	1
51	96	2
85	86	2
100	101	2
25	26	2
50	50	3
95	95	6
64	64	4
93	94	3
55	55	5
56	100	2
54	54	7
78	79	4
26	27	3
36	37	2
35	36	3
48	93	1
84	101	2
92	100	1
26	28	2
90	90	6
63	63	5
76	79	1
86	95	2
65	66	2
73	76	2
84	84	5
100	100	4
48	50	3
61	63	5
62	63	4
30	64	2
29	29	3
30	32	2
49	51	2
23	23	1
63	64	4
80	81	2
33	45	7
69	70	6
97	97	2
57	99	1
34	65	1
56	56	7
61	62	3
39	39	3
41	41	5
64	65	2
91	97	4
26	53	2
72	73	4
93	93	1
83	84	1
44	51	1
83	96	1
53	53	2
24	25	1
96	96	2
32	32	1
28	31	1
98	99	1
45	46	1
82	84	2
52	90	1
25	27	1
54	55	1
21	21	1
53	54	3
56	57	1
34	35	1
59	83	1
45	51	1
55	68	1
55	57	1
22	28	2
37	96	1
68	83	1
29	30	1
55	66	1
88	100	2
22	24	3
84	86	1
74	85	1
74	83	1
29	34	1
90	99	2
72	83	2
33	84	1
50	90	1
38	38	1
28	28	1
20	20	1
