71	71	7
90	90	6
32	32	4
115	115	5
66	67	4
61	62	3
41	48	2
224	224	5
3	11	2
179	194	2
36	36	4
72	82	1
118	118	9
18	19	3
155	155	4
95	95	4
145	146	4
102	104	3
73	73	3
57	69	3
169	182	1
213	213	4
117	118	2
52	52	3
113	114	2
110	111	3
78	78	6
78	81	3
194	204	3
97	97	5
245	245	2
157	157	8
92	92	6
120	145	3
243	243	2
62	62	8
70	70	9
214	214	3
224	225	4
245	246	2
77	77	9
247	247	1
104	108	1
212	212	9
158	163	3
51	54	3
20	20	5
184	184	7
54	55	2
25	25	6
236	237	2
61	78	1
180	183	1
84	99	1
4	4	4
172	173	7
167	167	9
244	247	2
185	185	2
68	68	1
54	73	3
102	102	8
204	204	5
146	146	4
146	147	1
31	47	2
29	31	3
219	219	5
3	3	5
74	74	3
53	54	5
102	108	5
48	49	2
212	214	2
113	113	6
40	48	3
188	188	8
232	232	5
223	223	7
33	203	1
205	206	5
52	64	1
90	92	3
208	209	3
116	116	4
202	203	1
168	168	6
41	41	7
206	213	1
119	120	2
220	221	2
70	92	3
146	150	1
36	45	1
179	196	1
117	117	4
84	84	1
69	69	1
23	23	4
213	214	2
154	155	6
54	65	5
154	154	6
66	72	1
2	2	1
190	190	2
233	240	1
47	47	7
156	156	5
63	63	5
242	242	6
165	166	3
146	168	2
216	216	5
97	118	3
58	69	2
230	230	1
183	184	5
2	88	2
231	231	5
58	71	3
229	230	2
92	109	2
189	189	4
96	104	2
88	88	7
213	227	2
67	67	10
192	194	2
12	12	7
16	16	3
48	51	3
80	82	2
98	104	5
241	245	2
93	93	4
152	171	1
74	75	2
15	16	1
183	203	2
34	35	1
236	236	8
166	168	4
2	3	2
70	73	3
229	229	12
162	162	6
56	57	2
208	208	3
99	99	2
50	51	1
181	181	9
145	160	2
11	11	6
169	169	6
68	69	3
214	219	1
62	63	2
30	31	1
96	97	4
114	114	5
180	180	8
51	82	5
42	43	5
239	239	15
150	150	5
18	18	6
107	107	5
101	101	6
187	191	3
79	79	2
199	199	6
29	32	1
59	76	1
161	165	1
7	7	6
26	30	2
22	230	1
111	111	5
10	10	8
153	153	1
51	179	1
202	202	7
215	215	6
207	225	3
200	204	1
165	165	2
244	245	3
34	34	6
11	17	3
193	216	2
51	53	2
232	233	5
213	225	2
77	164	4
183	185	4
207	207	18
28	53	2
11	14	2
49	49	3
11	20	1
170	171	1
211	212	2
179	179	3
49	53	2
20	26	2
118	119	4
91	91	1
70	71	1
232	241	1
105	105	1
76	78	1
193	194	2
101	106	2
175	216	5
222	222	2
82	83	2
45	65	1
59	65	1
94	94	1
34	39	2
89	92	2
152	159	3
203	203	3
35	51	1
205	205	6
20	28	2
75	75	3
164	165	1
87	98	4
21	36	1
40	40	6
100	116	2
187	210	2
85	85	7
185	204	2
216	217	2
160	161	3
106	109	4
191	191	5
71	84	1
80	80	2
109	109	1
100	100	2
159	159	4
158	158	4
81	94	1
94	100	2
11	19	1
37	37	4
8	8	6
81	82	2
166	167	1
95	96	4
39	39	4
220	220	3
116	117	3
208	223	1
87	88	1
218	245	1
86	86	5
72	73	2
31	31	4
206	207	2
195	195	2
189	193	4
226	226	4
166	166	14
192	192	5
159	160	2
54	64	2
77	103	1
220	227	1
43	44	1
164	164	5
163	163	5
104	104	2
89	90	1
94	95	3
110	110	3
170	170	6
175	192	3
198	199	1
105	106	1
36	201	1
40	68	2
69	70	4
87	87	7
175	177	1
148	149	1
235	235	3
65	66	1
60	60	2
193	193	3
175	176	1
45	45	6
105	110	4
172	172	1
109	113	1
200	200	2
238	240	4
223	233	2
212	213	1
47	164	1
198	198	2
145	181	1
54	81	2
83	84	4
40	76	1
38	38	2
58	58	2
33	42	1
178	178	2
240	240	1
65	72	1
104	116	1
55	57	3
232	234	3
24	24	2
110	112	1
217	217	4
178	194	4
40	41	6
26	27	1
57	59	1
207	208	1
224	246	2
222	234	2
51	51	1
99	100	2
57	61	3
49	77	1
83	83	3
197	200	2
59	60	3
58	60	3
65	65	2
237	237	8
180	194	4
199	201	1
185	223	1
235	236	1
220	223	2
22	23	4
191	202	2
45	77	1
147	156	2
184	196	2
109	110	1
82	85	1
219	226	2
243	244	1
49	58	1
27	28	2
248	248	3
55	55	2
1	84	1
9	10	1
233	234	1
186	186	7
211	211	5
98	98	4
87	89	1
82	84	3
89	102	1
66	71	4
201	203	2
177	177	1
72	72	1
195	202	3
109	111	1
60	161	1
80	93	2
240	244	1
220	242	1
178	179	2
52	72	2
52	83	2
60	65	4
56	56	1
40	50	2
37	46	2
192	219	1
46	61	1
37	58	1
152	158	3
45	57	1
236	241	1
196	196	5
16	43	2
64	64	4
193	221	2
48	50	3
166	172	1
187	195	1
6	6	3
66	66	2
208	225	1
241	244	2
177	178	1
213	246	1
27	31	2
238	238	1
58	59	2
20	21	2
224	228	2
28	148	3
98	103	5
175	202	2
73	82	2
42	62	1
35	35	2
107	115	2
64	65	2
2	235	3
79	80	2
173	173	3
31	34	2
97	117	1
7	8	1
92	96	1
9	9	3
16	17	1
26	26	1
216	219	1
1	1	4
5	15	1
6	15	2
221	221	1
81	91	1
210	210	1
185	189	2
66	81	2
167	176	1
227	227	5
172	189	1
50	50	4
61	170	1
174	195	1
85	87	6
217	232	1
113	115	1
46	60	1
46	196	1
244	246	1
64	74	1
171	171	3
112	113	2
88	94	1
21	28	1
238	241	1
52	145	2
246	246	2
79	90	1
90	91	2
100	105	2
26	28	2
43	43	3
206	221	2
217	218	3
27	27	2
175	175	2
226	227	1
33	34	1
36	37	2
32	202	1
4	19	3
161	161	1
92	102	2
119	119	1
48	63	1
110	118	2
193	219	2
166	176	3
237	238	2
12	23	1
152	179	3
242	243	1
181	201	2
17	17	2
93	94	1
213	215	1
52	54	2
88	93	1
210	211	1
15	15	2
86	87	1
92	105	1
225	225	4
170	182	1
182	182	2
175	181	1
1	11	2
244	244	1
22	22	1
162	168	1
184	185	1
75	85	1
191	192	1
184	197	1
197	197	2
32	34	1
9	14	2
29	178	1
34	59	1
186	228	1
206	206	1
196	198	1
47	78	1
55	56	1
164	176	1
90	93	1
55	62	1
108	109	1
102	103	1
84	85	1
199	200	1
163	164	1
39	63	1
103	103	2
20	37	1
218	218	2
36	197	1
108	112	1
157	166	1
6	8	1
53	73	1
181	183	1
116	118	1
30	178	1
46	84	1
4	5	2
182	196	1
35	201	1
48	59	1
234	236	1
230	245	2
99	111	1
177	181	1
10	11	1
114	116	1
47	76	1
29	60	2
33	202	1
174	191	2
160	166	1
10	19	1
38	39	1
68	71	1
111	114	2
20	158	1
25	28	1
29	29	1
28	28	1
80	81	1
93	113	1
193	203	1
29	43	1
91	100	1
31	35	1
92	106	1
38	158	1
219	222	1
192	199	1
75	77	1
89	89	1
174	174	1
44	44	1
86	95	1
53	53	1
