103	133	2
73	74	6
39	53	2
100	111	9
196	197	2
167	168	11
171	181	5
110	111	3
138	139	4
103	104	4
37	37	5
54	54	6
15	19	6
40	89	1
0	0	7
172	173	3
137	141	1
144	144	6
6	19	4
34	37	1
95	95	7
63	90	1
28	65	1
20	25	3
43	55	1
61	61	2
182	183	3
158	158	2
61	62	3
195	195	6
34	67	6
107	108	8
50	51	1
25	25	5
26	26	15
126	143	6
115	116	4
14	14	3
19	19	9
176	176	6
172	172	3
113	113	8
102	104	5
173	173	10
100	100	6
138	158	2
117	117	12
67	67	7
114	118	3
53	56	1
176	179	2
143	150	5
86	87	4
194	196	5
111	111	9
36	39	1
63	64	2
83	83	5
3	4	5
12	12	7
132	141	2
62	65	4
169	169	8
53	62	3
33	33	6
154	154	9
2	10	3
11	47	4
10	120	2
115	130	2
86	86	2
80	81	12
18	19	9
140	150	1
101	101	7
22	22	2
16	18	2
10	26	5
40	40	11
171	177	5
131	133	4
38	39	2
168	168	6
47	47	11
3	3	9
184	185	3
31	31	11
101	126	2
147	162	3
160	161	6
160	182	3
70	70	8
22	26	3
127	127	2
131	143	2
97	102	1
168	169	2
186	188	4
5	26	1
161	178	2
102	114	3
86	109	3
117	118	3
108	114	2
54	58	4
15	31	2
173	185	3
141	142	5
20	20	10
98	102	3
97	98	11
5	13	2
106	106	6
194	194	4
23	23	5
63	63	5
62	62	7
127	128	8
9	10	1
19	20	4
89	143	5
56	66	9
124	126	1
45	56	2
173	175	3
24	24	7
121	123	5
171	180	5
185	185	6
18	18	15
154	162	3
63	79	1
43	46	3
63	68	2
122	127	1
68	70	1
109	109	1
56	94	1
96	97	8
145	145	11
27	85	1
130	130	9
2	36	4
50	65	2
118	118	5
112	113	2
47	55	3
174	175	5
2	3	5
133	146	3
129	129	8
59	60	4
154	156	1
3	5	3
2	5	11
58	60	2
190	191	5
55	55	2
124	125	1
166	166	6
81	81	8
125	126	3
128	128	7
4	12	1
17	20	2
95	96	4
5	5	11
194	197	6
165	165	11
51	51	9
30	32	4
196	196	11
105	115	7
76	77	4
33	82	3
11	50	2
77	77	9
178	178	2
54	55	3
140	141	3
88	88	7
109	118	1
53	60	1
3	19	3
156	156	16
187	190	1
20	42	1
7	97	1
151	160	2
46	46	8
131	131	4
36	36	7
141	141	11
135	135	6
63	78	4
108	125	4
137	145	1
179	183	1
41	43	3
143	157	4
172	181	2
13	13	15
161	161	6
57	57	6
107	116	3
79	79	6
58	68	3
120	138	1
191	196	2
133	133	1
66	67	7
140	140	17
68	68	7
72	73	4
97	97	9
29	29	2
29	79	4
157	158	11
65	65	13
125	134	3
108	134	3
111	113	3
192	193	8
49	49	8
15	15	5
164	166	3
138	147	2
151	164	3
42	45	2
89	89	5
34	117	2
160	176	5
21	21	13
115	155	1
136	138	3
46	61	2
157	160	3
26	27	1
3	8	2
102	109	3
152	152	5
149	150	8
83	85	2
75	81	4
193	193	4
59	62	6
142	142	9
74	76	4
35	39	1
166	171	2
11	11	5
99	99	7
143	145	3
148	148	2
137	162	1
129	195	1
42	51	2
101	110	1
78	79	2
120	143	1
60	60	8
6	39	1
189	190	2
15	36	4
172	174	3
69	76	2
111	122	3
174	174	5
38	44	1
164	165	2
87	131	2
46	62	1
118	121	2
143	166	5
107	107	5
46	52	5
156	166	5
188	188	7
93	112	1
136	136	4
9	12	4
72	78	1
107	127	1
65	70	2
134	143	1
143	154	1
4	4	8
178	182	4
58	58	3
41	47	2
188	190	1
69	81	2
2	98	4
6	80	3
35	35	4
113	115	2
45	57	1
80	82	1
67	73	2
131	132	3
103	139	4
17	17	4
195	197	5
6	21	7
21	22	3
45	62	1
28	44	2
34	34	7
129	132	5
15	27	1
99	109	6
32	32	5
43	44	4
136	141	3
120	124	2
68	76	1
120	121	1
101	137	1
54	56	1
93	102	2
143	147	1
81	82	2
27	27	5
141	143	2
146	148	5
57	62	1
185	186	1
97	113	1
12	13	3
120	122	3
158	164	2
87	88	5
127	140	3
123	126	3
1	1	6
87	87	3
187	189	4
42	42	11
22	88	1
153	153	6
8	14	5
41	54	2
27	63	1
130	135	5
101	116	5
174	187	2
2	7	1
44	53	4
128	144	2
78	78	6
2	2	6
186	190	6
35	44	2
39	39	2
19	24	1
184	184	4
114	129	1
54	69	1
142	143	3
72	80	1
179	180	1
158	162	4
1	5	3
16	16	2
10	37	3
183	184	2
143	143	9
183	183	3
124	138	1
33	85	1
115	115	5
160	173	3
160	160	10
95	97	4
166	189	1
183	193	1
139	139	4
97	115	2
13	29	3
167	170	1
40	41	6
46	147	3
31	111	1
99	107	1
23	34	1
73	73	5
94	96	5
169	170	1
102	102	7
142	179	1
71	80	3
9	9	4
48	48	7
127	142	1
70	113	2
30	43	2
50	61	1
54	59	3
163	165	3
33	34	1
163	163	2
67	68	5
151	151	13
64	64	7
124	124	1
20	21	2
161	175	1
123	124	7
163	179	3
120	144	3
43	53	2
177	178	1
186	186	7
67	72	2
171	179	1
126	127	1
30	76	2
132	133	2
43	59	1
104	137	1
56	62	1
95	98	1
72	74	4
56	59	2
103	103	4
136	137	1
192	192	2
66	66	5
52	67	2
157	157	4
136	139	2
158	161	4
109	143	3
138	145	1
13	118	2
105	110	2
119	128	3
21	42	3
116	118	1
120	120	7
134	147	1
38	52	3
58	59	2
76	80	1
110	122	4
94	98	5
67	80	3
81	87	2
66	74	1
85	85	4
84	89	1
47	49	2
180	180	7
171	182	1
155	178	1
102	116	1
137	137	5
82	82	6
125	125	4
139	147	1
137	138	2
110	110	1
79	80	2
165	167	1
28	30	1
100	109	1
85	90	2
30	38	3
140	178	3
66	86	2
36	90	3
107	111	2
48	58	1
111	112	2
80	80	2
178	180	2
14	15	11
155	164	3
152	153	1
23	29	2
61	110	1
85	89	3
140	143	2
58	65	1
2	15	2
38	128	1
52	52	1
166	169	3
0	1	5
185	197	2
145	152	1
84	84	4
111	125	3
68	69	1
23	24	4
191	191	8
85	86	7
110	126	1
165	178	1
20	43	1
79	84	1
109	116	2
108	108	8
164	177	2
192	194	2
24	88	1
44	46	6
30	30	3
37	38	2
39	65	1
133	140	1
20	36	1
159	161	3
164	164	7
6	16	1
44	44	4
14	19	1
28	28	4
59	59	2
110	115	4
0	32	2
29	30	3
162	162	5
41	45	1
41	41	3
179	179	6
136	153	1
161	162	3
102	103	1
176	181	3
5	6	2
174	188	1
69	70	1
28	31	2
104	104	3
7	7	4
149	154	1
37	50	4
155	157	1
43	43	4
116	122	3
30	31	3
10	10	2
132	146	2
181	181	2
134	138	1
58	71	1
120	136	2
127	130	2
17	145	1
114	114	3
159	159	2
44	48	3
169	173	1
109	111	1
27	65	1
79	88	5
70	76	2
31	64	2
47	69	1
137	139	3
126	126	2
24	33	1
15	16	1
129	137	2
31	32	2
69	73	1
138	138	4
48	68	1
177	177	4
169	175	1
143	144	3
126	132	1
171	171	4
147	147	7
83	84	1
77	78	1
126	147	1
169	171	3
155	156	4
112	117	5
32	78	1
65	85	1
36	44	4
93	111	1
168	170	2
6	6	6
132	132	2
140	142	2
154	159	2
122	122	3
115	118	1
141	155	1
176	178	1
167	179	4
180	183	2
193	195	2
128	129	4
129	135	2
197	197	4
158	163	2
150	150	1
180	182	2
155	155	6
93	93	1
114	132	2
119	120	1
174	181	1
3	39	2
70	74	1
115	128	1
10	12	1
6	7	2
47	60	1
170	170	4
8	8	2
44	51	1
44	97	1
24	89	1
173	186	1
173	178	2
187	187	4
14	35	3
175	175	1
145	149	1
57	58	1
163	172	5
103	144	4
179	191	1
105	126	1
74	84	1
134	151	2
159	163	2
152	181	2
17	34	1
7	8	1
69	69	1
14	18	2
27	67	1
118	119	3
125	129	1
131	149	1
17	18	1
99	117	2
4	192	1
76	76	3
37	46	1
27	44	2
145	147	1
35	40	1
11	33	2
50	50	3
127	144	1
126	142	2
180	181	1
174	177	1
71	79	1
166	178	2
37	39	3
87	89	2
167	167	3
16	23	1
162	164	1
150	151	1
123	146	1
52	57	1
110	112	1
102	131	2
47	48	1
125	128	1
82	83	2
110	127	1
159	165	1
86	88	2
120	127	2
116	135	1
33	67	3
176	188	2
45	147	1
132	137	1
149	149	1
26	43	1
121	121	4
16	17	2
133	181	1
12	14	1
28	35	2
58	63	1
74	74	3
38	53	2
152	161	1
130	131	2
112	112	2
123	123	1
154	160	1
182	182	1
13	14	1
171	172	1
103	126	1
135	148	1
10	50	1
34	35	1
54	65	1
10	11	2
173	177	1
104	144	1
39	40	3
116	116	2
77	79	2
45	45	2
19	42	1
156	162	3
46	146	2
104	193	2
96	111	1
54	57	1
123	128	1
40	42	1
179	186	1
170	183	2
71	73	1
100	101	1
159	160	1
145	146	2
175	178	1
130	133	2
13	25	1
117	124	1
20	35	2
103	152	1
186	187	1
146	146	1
55	57	1
42	53	1
178	181	2
29	76	1
18	24	2
71	72	1
114	116	1
9	32	1
39	46	2
113	135	1
134	134	2
49	56	1
85	88	1
183	195	1
53	55	2
96	96	2
59	61	1
155	172	1
119	130	1
11	22	1
152	163	1
30	45	1
46	58	1
94	94	1
16	142	1
48	60	2
50	118	1
85	87	1
106	156	1
15	49	1
72	72	2
121	195	1
6	8	1
165	169	1
160	169	1
172	178	1
187	195	1
54	68	2
120	193	1
149	155	1
119	119	1
3	104	1
159	162	1
193	194	1
