12	97	5
12	12	8
67	107	3
43	44	1
31	31	7
63	75	4
71	74	3
114	114	4
5	5	4
112	113	2
1	110	4
62	102	2
15	15	5
40	111	3
76	76	2
94	94	3
108	108	4
68	68	7
66	66	2
74	74	7
90	99	1
19	20	2
112	112	10
107	107	5
48	96	1
93	93	5
26	30	1
21	21	12
105	105	4
124	124	5
131	131	6
110	110	4
117	118	1
53	53	3
83	104	1
99	99	3
100	100	3
65	65	1
111	111	12
85	105	4
3	32	2
7	7	5
69	69	3
11	11	3
77	77	1
58	69	4
14	18	3
23	23	6
77	79	2
116	116	4
59	131	1
49	49	6
61	108	2
37	48	1
61	61	2
44	44	5
72	74	2
57	120	2
65	69	1
113	113	6
58	60	1
41	63	1
100	101	2
54	54	2
122	122	4
3	25	2
76	111	2
29	32	1
1	1	2
40	76	1
92	117	1
71	72	2
103	103	4
56	56	7
2	25	4
59	59	2
70	70	2
47	99	2
8	9	2
49	121	1
40	41	4
4	13	2
2	4	1
91	91	3
6	6	3
75	111	3
66	68	2
25	26	1
20	20	3
89	93	1
92	92	1
30	32	2
115	115	4
62	63	2
102	103	1
77	85	1
87	88	5
55	55	4
70	71	1
2	2	2
13	14	1
60	61	2
86	99	1
71	71	5
128	128	3
82	106	2
29	29	1
63	63	2
116	117	3
12	22	1
29	30	3
87	87	3
97	97	3
8	8	1
39	39	2
19	19	3
41	41	3
46	46	2
10	11	1
86	88	2
25	25	4
1	11	3
82	82	3
0	116	1
110	111	1
24	24	3
17	74	1
55	94	3
68	127	2
75	90	1
8	17	1
114	117	2
4	4	6
86	87	1
13	62	2
126	126	1
1	2	2
23	24	1
38	119	2
24	67	1
72	72	4
20	22	1
89	89	2
120	120	2
86	103	1
32	34	1
119	119	1
92	115	1
27	27	3
101	103	1
18	18	2
88	88	2
98	111	1
129	129	2
86	86	1
97	98	1
0	99	1
14	19	1
113	120	1
109	109	1
26	27	2
24	25	2
91	120	1
16	74	1
72	73	1
22	97	1
61	131	1
67	68	1
7	16	1
64	64	2
62	62	2
38	85	1
128	129	1
58	110	1
90	93	1
2	7	1
75	132	1
80	81	1
108	130	1
58	58	1
22	22	2
121	121	1
22	110	1
19	98	1
28	28	1
90	90	1
