45	45	8
64	100	2
57	57	12
34	34	4
95	95	13
63	64	8
60	60	23
41	42	6
102	102	3
25	26	1
63	65	1
41	41	22
79	79	20
78	78	24
71	72	8
88	88	17
68	68	25
96	96	8
75	76	5
83	83	10
72	72	15
38	38	9
40	40	12
33	33	6
87	87	10
85	85	14
66	66	35
43	43	10
65	65	17
70	70	26
62	62	24
36	36	6
93	94	3
27	32	1
60	61	11
100	100	8
86	88	4
24	25	2
74	74	11
76	76	21
76	77	7
35	35	7
86	87	15
69	71	8
81	81	11
47	47	11
91	91	8
54	55	7
64	64	14
69	70	5
22	24	3
45	86	4
79	80	7
77	77	14
67	67	6
78	80	3
64	90	2
30	71	8
55	56	1
69	69	12
36	51	5
24	55	5
34	86	3
77	78	9
81	82	3
25	29	1
97	97	10
66	67	7
51	51	8
75	75	17
34	45	5
50	50	9
70	72	1
61	61	31
101	101	10
78	91	5
82	82	9
54	54	11
97	99	3
80	81	5
93	93	12
42	42	17
34	70	2
84	84	7
92	92	7
68	70	2
90	91	11
33	38	2
69	72	2
47	48	3
84	91	6
39	39	10
80	84	3
72	74	2
73	73	15
23	25	4
80	80	9
89	90	5
49	51	1
94	94	8
71	71	19
27	28	7
47	51	1
67	75	5
27	27	2
52	52	2
46	47	2
49	49	8
98	98	7
25	25	4
89	89	12
68	69	8
97	98	5
52	99	2
49	69	2
86	86	12
81	84	3
25	27	2
65	66	8
55	55	7
21	22	1
39	40	1
27	51	4
80	83	4
59	59	4
23	40	4
36	37	5
92	102	3
51	91	1
63	63	6
37	37	5
90	90	6
87	88	7
91	93	5
91	92	4
35	36	4
38	39	9
56	56	5
40	56	1
72	73	4
54	59	2
77	90	1
99	99	6
61	62	5
27	33	2
29	29	1
53	53	8
31	31	15
92	94	2
84	85	1
47	95	6
50	51	6
99	100	5
87	89	1
51	52	5
48	48	6
26	26	3
84	88	2
20	20	6
27	88	1
83	89	5
85	86	3
85	88	2
65	68	2
51	53	2
33	34	2
21	21	4
58	58	3
94	95	3
46	48	1
31	32	3
54	61	1
57	59	1
22	30	1
44	45	1
42	43	5
64	65	4
26	54	4
76	83	1
62	90	4
33	73	2
30	30	2
78	79	2
36	38	1
55	58	2
36	85	1
66	69	1
37	47	1
46	46	3
21	36	1
44	44	1
48	49	1
36	50	1
78	90	1
60	89	1
92	93	2
40	41	2
65	77	1
101	102	1
80	86	1
23	27	1
83	90	1
82	83	1
93	96	1
99	101	1
49	50	3
91	101	1
70	71	1
62	63	1
23	23	1
65	90	1
81	89	1
28	28	1
81	83	1
39	55	1
48	50	1
64	85	1
52	91	1
