99	99	10
22	25	4
118	119	3
25	25	4
87	89	2
85	85	9
122	123	8
30	30	6
18	19	1
116	116	14
79	80	2
109	113	2
83	84	3
20	20	20
97	97	5
21	22	5
4	4	5
15	17	2
25	27	5
108	114	4
95	96	3
119	119	10
136	136	3
26	26	6
101	101	12
9	12	3
80	81	6
0	0	7
123	124	4
7	73	2
19	28	1
80	83	3
27	27	10
134	135	2
118	118	2
22	23	7
110	110	9
19	30	5
16	16	6
36	36	4
21	21	8
86	86	10
72	72	16
5	7	9
125	126	2
15	16	3
71	71	17
5	6	5
77	77	8
122	122	8
88	88	5
87	87	14
13	14	14
128	129	17
12	14	3
135	135	3
83	83	17
129	129	15
85	86	1
106	107	7
128	128	13
104	104	9
13	13	7
92	102	8
117	118	9
19	20	6
31	32	2
94	94	9
80	82	5
76	76	6
31	31	12
11	12	14
66	74	4
102	103	3
6	6	7
124	124	12
4	5	5
113	114	2
81	101	2
130	131	1
75	75	9
35	36	3
81	81	5
134	137	3
91	91	7
120	120	9
103	103	10
13	17	4
95	95	9
34	34	7
26	31	2
91	109	3
23	23	8
86	113	5
120	121	3
16	17	5
83	85	6
131	132	7
35	109	1
28	29	10
36	71	4
17	17	12
83	88	2
71	73	3
24	24	9
19	29	6
107	108	6
6	121	3
79	79	13
105	107	1
29	29	13
11	11	10
96	98	5
98	98	6
33	35	3
88	112	1
29	77	1
19	19	5
93	93	7
86	87	3
12	18	7
78	78	20
32	32	7
127	129	5
11	13	5
17	18	10
91	107	3
89	89	8
10	12	9
14	14	21
18	18	7
86	89	2
38	38	2
80	80	3
119	120	2
9	9	12
75	76	7
8	31	1
78	79	3
8	8	9
112	112	3
85	87	2
22	22	5
26	27	6
132	132	1
100	101	3
114	114	4
5	8	4
92	92	3
89	114	3
90	91	3
121	122	2
73	74	5
112	114	5
7	8	7
8	21	1
5	34	4
100	100	6
93	94	11
6	7	4
90	108	4
109	109	6
101	102	4
4	6	3
22	24	3
73	73	8
123	123	4
138	138	8
126	126	12
72	73	11
115	116	3
84	88	4
129	130	2
36	37	7
22	35	3
29	31	1
27	28	3
0	113	3
4	109	2
6	13	3
9	11	2
107	107	1
12	12	10
125	127	3
73	78	2
87	88	6
77	100	5
98	101	4
81	89	6
112	113	3
32	33	1
117	117	5
131	131	14
105	105	9
24	25	5
29	32	2
30	31	2
37	78	2
102	102	6
110	113	4
1	1	7
74	99	1
120	122	2
82	82	4
74	80	1
3	3	4
114	115	3
79	81	2
20	22	7
28	28	9
137	138	2
115	119	1
113	113	3
74	74	10
133	133	3
35	38	2
81	82	3
106	113	3
137	140	2
1	4	3
37	109	2
14	35	1
21	24	1
21	23	5
27	29	8
97	98	6
37	37	2
100	103	1
107	119	2
124	125	1
103	104	3
89	112	2
71	78	1
87	90	4
7	9	3
106	106	1
75	80	2
96	96	2
93	95	1
11	18	1
111	111	9
92	93	3
20	21	2
107	121	1
0	5	2
35	35	2
140	140	3
76	77	4
74	75	4
80	99	3
110	111	5
27	72	1
116	129	5
72	74	3
27	30	1
2	34	2
132	133	1
77	78	3
121	121	9
29	30	4
84	85	2
2	3	6
34	36	1
85	113	2
136	137	1
131	133	1
137	137	3
25	26	2
126	127	2
10	10	5
77	79	4
6	18	2
91	92	2
7	13	2
97	99	2
138	140	5
91	111	3
105	106	1
108	109	5
114	119	1
18	32	1
9	10	2
31	38	2
126	128	3
19	32	1
0	4	1
82	83	1
102	115	2
13	15	4
100	102	1
13	38	1
80	102	2
115	115	2
94	125	2
117	119	1
134	134	1
134	138	1
8	9	4
33	132	2
104	113	3
71	97	2
33	33	2
91	93	4
107	116	2
130	133	4
91	108	2
34	35	3
14	18	1
84	84	3
2	2	1
37	108	2
117	123	1
105	116	1
117	122	1
81	83	1
86	114	2
26	73	2
15	15	2
68	68	3
130	130	1
3	37	1
3	4	2
17	34	2
93	102	2
3	36	2
90	90	1
6	32	1
0	1	2
8	35	3
23	24	1
7	38	2
0	33	1
88	108	1
33	131	1
5	35	1
107	112	1
107	118	1
2	20	1
108	108	1
28	78	1
91	120	1
103	119	1
108	110	1
91	121	1
14	15	1
17	19	1
106	117	2
125	125	1
28	31	1
139	140	1
119	121	1
83	86	1
8	36	1
82	103	1
104	105	1
112	115	1
6	16	1
