162	162	5
109	109	1
137	138	2
8	9	5
104	104	7
150	150	3
139	139	2
114	147	1
121	121	5
151	151	3
54	54	5
0	0	2
147	147	4
78	78	4
44	52	2
8	54	5
83	83	9
90	106	8
169	169	3
136	136	11
47	47	1
3	4	4
74	74	1
56	56	6
164	164	3
11	11	6
159	159	3
147	148	2
97	98	2
66	67	4
84	113	1
24	24	6
133	134	5
132	132	7
146	147	1
82	82	1
25	25	2
153	153	5
118	143	4
45	45	8
133	133	2
111	148	3
157	157	5
86	86	5
90	93	1
101	111	5
150	156	3
71	76	3
23	23	4
107	107	7
126	132	3
3	168	5
57	57	1
143	145	1
79	82	3
75	75	4
160	162	1
38	38	6
41	41	5
82	97	3
158	158	3
145	145	3
21	21	9
72	73	3
50	55	1
40	40	4
96	97	2
97	97	10
167	167	3
85	87	2
12	19	3
166	166	5
50	50	2
81	99	2
2	2	8
8	14	1
39	39	6
73	78	1
137	137	2
93	93	1
66	66	2
47	50	3
65	67	1
115	115	2
62	62	3
46	46	2
90	90	6
76	76	1
7	7	3
67	67	5
38	39	1
8	12	2
123	124	1
36	36	6
110	110	5
111	111	2
127	130	1
134	134	4
33	34	1
120	120	1
119	121	2
156	156	3
42	42	1
63	68	2
57	84	3
125	140	1
114	114	2
118	146	1
28	28	3
66	108	4
15	15	6
168	170	4
1	1	6
91	91	2
39	41	1
170	170	3
81	91	2
3	3	5
161	164	6
131	132	3
83	107	1
93	98	2
39	51	4
131	131	8
124	135	2
69	69	1
122	145	3
12	18	3
70	70	1
117	117	1
73	74	3
95	96	2
63	63	5
154	154	2
41	54	2
62	104	1
52	52	3
91	100	1
88	88	2
57	97	4
138	157	3
113	114	1
18	18	4
153	154	2
72	72	2
126	126	1
18	19	3
105	105	3
94	96	3
39	50	1
47	48	3
160	161	3
108	108	2
155	155	2
158	159	1
44	45	3
128	142	1
124	124	8
6	6	1
34	163	1
16	46	2
62	63	1
72	75	1
118	118	2
150	151	1
69	70	2
121	122	2
97	113	1
8	8	4
134	135	1
19	19	3
23	57	1
75	94	2
54	55	1
129	129	2
109	154	3
108	109	1
123	125	2
9	9	2
80	80	3
42	43	3
135	135	4
117	145	2
16	53	1
102	104	1
94	94	1
107	111	2
9	13	1
35	42	2
142	142	1
62	107	2
26	26	1
104	115	1
155	161	1
64	64	2
22	22	2
94	99	1
130	130	3
16	16	3
1	2	2
148	153	3
163	163	2
23	24	3
66	154	1
143	144	1
95	95	1
109	110	2
152	158	3
67	107	1
67	109	1
103	103	1
157	158	1
117	129	1
127	141	1
113	113	2
100	100	1
147	149	1
37	38	2
65	154	1
14	15	1
24	33	1
49	49	1
19	47	2
126	140	1
114	115	2
68	108	1
12	39	1
39	56	1
10	10	1
90	91	1
14	14	1
102	102	2
135	136	1
125	136	3
96	96	1
36	38	1
146	146	1
98	98	2
37	37	1
162	163	1
103	153	2
160	160	1
13	15	1
10	19	2
5	67	1
48	55	1
128	128	1
4	5	1
7	13	1
164	165	2
5	5	2
17	17	1
148	149	1
24	34	1
71	75	1
73	73	1
