65	88	1
137	137	15
2	2	13
172	172	12
57	57	8
74	74	17
51	51	17
111	113	2
175	189	2
32	32	12
94	94	7
142	143	3
30	31	14
173	182	2
7	7	12
28	54	1
125	150	1
34	38	3
48	48	11
76	80	6
27	27	11
158	158	10
95	114	2
158	160	2
119	119	4
25	48	2
5	5	23
179	181	2
149	149	16
62	62	16
173	192	1
70	89	1
11	14	2
10	10	7
156	156	8
153	153	13
89	89	15
68	68	5
98	99	3
100	131	5
107	107	4
120	120	7
21	39	2
113	113	7
182	183	3
27	158	3
169	187	3
166	185	2
154	157	2
34	34	8
140	140	14
39	39	5
51	63	1
36	84	2
195	195	10
30	48	2
61	61	14
186	188	7
27	41	3
43	51	3
178	193	9
125	125	5
106	112	5
144	145	7
42	46	2
104	138	5
116	116	17
179	179	12
59	65	6
25	25	15
53	53	12
8	9	3
58	58	3
22	25	5
143	144	4
38	48	1
25	30	5
62	66	1
40	49	2
155	156	4
107	108	3
52	69	2
146	161	4
10	26	2
169	170	7
134	134	10
99	105	4
141	153	2
142	142	3
76	77	6
138	158	3
95	110	5
161	161	13
147	147	11
73	73	11
147	148	6
27	36	9
161	162	5
134	135	7
104	104	8
45	45	21
60	64	4
124	126	2
75	87	1
39	46	4
10	15	3
73	74	2
20	21	3
71	73	3
24	45	3
16	16	7
135	135	3
26	27	2
106	122	5
7	8	8
71	71	20
54	55	8
163	165	5
26	30	4
166	167	7
181	183	3
66	66	2
162	162	6
182	182	13
130	133	3
126	126	7
9	39	3
173	178	2
178	180	2
122	127	3
15	16	4
42	47	3
35	36	9
23	25	9
66	128	2
183	183	16
54	76	1
95	95	5
49	49	6
55	57	2
29	30	3
101	131	2
126	136	2
110	110	4
151	153	5
185	186	3
0	2	9
49	56	6
123	134	3
122	122	5
109	123	5
28	39	4
188	188	15
20	23	7
160	160	12
97	121	3
124	124	7
179	180	8
37	37	10
46	46	11
40	40	7
170	170	9
125	127	1
130	140	1
43	43	15
150	166	4
55	55	9
122	123	4
65	66	2
181	181	12
75	140	3
176	176	8
95	96	6
90	90	1
30	30	10
111	112	3
3	4	2
57	79	3
188	189	3
65	77	1
103	110	3
58	65	2
77	77	8
23	23	7
93	93	4
165	178	3
18	18	11
124	143	3
50	50	17
108	116	3
35	35	10
64	64	7
58	80	10
22	35	1
1	30	2
15	27	2
95	106	4
97	97	6
0	1	4
131	133	5
29	48	4
127	129	2
21	21	4
64	155	3
50	51	6
23	24	6
24	24	6
143	149	6
105	122	3
132	136	1
29	29	11
114	128	5
26	33	2
172	194	2
100	100	13
1	2	7
84	85	8
154	154	4
87	88	6
117	117	9
49	50	5
63	63	12
78	83	3
182	191	1
151	151	3
36	36	11
34	50	2
26	26	12
94	98	1
110	120	7
53	69	2
192	192	9
82	82	9
100	132	2
44	44	12
102	105	3
47	47	13
176	177	7
130	131	8
37	55	5
58	69	3
115	115	7
16	19	1
139	149	3
0	0	7
155	171	1
108	110	4
118	118	8
173	175	3
155	170	6
25	45	1
11	12	8
167	168	8
60	61	1
38	38	7
152	152	9
95	105	3
96	98	4
101	101	4
133	133	3
25	41	1
106	106	17
184	184	7
83	83	9
164	165	3
133	136	4
41	41	14
99	128	8
81	83	6
42	42	7
64	65	9
3	3	10
183	190	2
141	141	9
40	42	1
148	153	5
148	148	9
49	53	2
173	173	4
56	56	5
14	30	5
63	78	3
144	146	6
104	153	6
189	189	17
159	160	4
12	12	18
185	185	6
30	58	4
22	22	16
41	42	2
122	139	2
38	51	1
132	132	9
116	131	2
166	166	10
145	146	6
44	53	2
139	150	2
188	191	2
84	84	5
71	96	1
123	123	6
106	132	5
141	151	2
168	168	8
119	120	4
122	135	5
98	152	1
167	178	3
53	72	2
40	67	2
95	119	2
172	173	4
140	150	3
111	129	2
176	178	6
15	15	8
60	73	2
5	6	5
112	112	4
4	8	2
4	17	4
9	33	2
159	166	6
127	128	2
84	90	1
140	171	3
12	13	2
100	116	5
124	149	5
61	67	2
155	155	10
113	127	1
9	9	6
37	67	4
13	13	20
72	73	2
24	25	6
60	60	7
168	174	2
74	75	4
187	187	9
124	125	2
72	83	7
82	87	2
126	141	4
39	51	2
169	177	1
88	89	4
38	46	4
75	82	1
159	159	5
63	82	3
108	132	8
125	133	1
196	196	14
167	167	10
35	51	3
125	126	1
146	146	4
131	131	6
57	80	3
94	96	3
178	179	2
6	8	4
2	3	5
83	87	2
65	65	4
158	180	4
86	88	2
86	87	1
99	120	1
95	127	5
174	186	4
10	37	2
20	20	7
120	121	1
36	39	1
7	185	2
116	118	2
139	148	1
150	156	5
43	44	2
27	28	4
76	79	5
45	50	2
67	67	13
145	145	7
121	121	4
8	30	3
123	124	4
96	107	1
5	21	1
151	170	1
108	108	1
152	153	6
136	138	3
109	110	4
70	70	4
122	138	2
33	39	2
176	192	3
146	177	2
144	150	3
193	193	14
69	69	10
154	155	6
47	60	1
54	56	2
100	123	3
28	33	1
151	152	7
76	83	1
194	194	3
102	103	6
70	72	1
187	188	8
96	96	5
117	120	1
76	102	6
14	14	10
104	114	2
8	8	7
45	46	4
157	157	6
22	36	2
95	98	4
76	78	1
44	48	2
27	48	2
168	173	7
186	192	2
186	186	10
137	139	1
182	194	2
6	7	3
51	52	4
18	195	3
88	102	3
88	97	5
40	41	3
193	194	1
115	132	4
179	190	1
168	185	3
94	127	3
75	75	4
28	29	3
30	42	1
93	94	3
54	59	4
27	29	1
54	54	11
106	137	2
95	107	4
107	112	1
107	121	2
139	140	4
141	149	2
17	17	2
0	25	3
106	107	5
189	190	2
1	21	4
27	40	3
165	166	2
137	147	2
150	150	5
157	163	2
111	118	1
57	58	3
101	130	1
52	53	2
79	79	5
73	85	2
172	180	2
95	116	1
136	136	4
30	49	4
19	20	4
20	43	1
139	152	2
4	4	6
176	197	3
144	167	3
73	140	1
97	98	4
97	122	1
175	175	14
158	159	4
26	38	1
64	70	3
141	146	3
15	36	3
2	15	3
120	140	4
123	130	2
177	177	3
139	139	7
144	152	3
28	28	5
21	24	2
37	63	2
9	28	3
88	88	10
166	170	1
138	138	7
31	57	2
129	129	6
7	42	1
54	68	6
179	194	1
39	40	2
109	120	3
127	127	6
160	162	1
126	144	1
66	70	2
146	157	2
126	159	2
93	102	1
12	26	2
37	76	3
78	78	7
157	170	2
10	13	1
114	114	5
56	82	1
174	174	3
159	180	3
33	47	1
101	110	1
175	186	2
0	32	3
63	79	4
105	105	5
191	192	5
130	130	6
37	38	5
77	85	2
141	157	3
26	41	3
18	187	2
101	111	2
34	40	3
190	190	7
133	181	1
59	62	3
81	81	7
108	115	5
16	37	1
156	178	2
107	132	5
56	80	3
87	115	4
54	80	1
164	164	10
123	142	1
106	119	2
113	115	2
52	52	5
197	197	1
95	130	1
126	140	1
180	180	4
2	24	1
87	87	11
2	20	1
64	83	1
141	142	5
31	31	12
37	77	1
196	197	2
94	97	2
19	33	1
87	110	3
178	178	3
120	152	1
33	43	2
189	191	1
135	149	2
85	85	1
70	71	5
137	141	2
4	5	1
152	156	2
167	185	4
144	144	3
26	58	1
58	77	2
180	181	2
50	53	3
82	175	3
36	37	4
167	175	2
62	63	2
147	150	1
87	89	1
165	179	1
99	99	2
106	110	2
69	75	1
163	164	2
143	145	2
166	169	2
99	100	2
69	72	3
24	26	2
102	102	3
172	186	2
10	12	2
98	104	2
136	167	1
98	116	2
191	191	2
41	172	1
108	118	2
4	38	2
130	132	2
192	193	3
132	137	1
111	111	10
160	186	1
94	103	3
27	42	1
61	78	1
109	109	1
30	32	1
129	132	1
139	156	2
32	97	1
162	163	2
7	10	1
85	87	4
31	33	2
68	72	2
40	64	4
47	75	2
153	157	1
188	190	2
56	60	1
172	181	2
136	137	4
155	157	1
126	170	3
175	176	1
32	33	1
31	32	1
101	103	1
33	33	4
83	84	2
177	179	3
98	98	3
140	160	1
157	161	1
160	181	3
69	70	2
19	38	2
78	79	3
79	80	1
10	144	2
9	12	1
117	133	1
31	36	2
16	49	1
40	46	2
137	138	1
96	113	2
70	99	4
171	172	1
113	131	1
46	47	2
47	48	1
2	5	2
131	137	2
102	115	1
159	162	3
104	111	1
0	14	4
18	38	2
171	171	1
24	38	1
115	116	2
102	104	2
169	183	1
111	125	1
178	195	1
35	50	1
31	35	1
158	169	4
127	130	2
1	25	1
157	168	1
58	60	1
132	133	1
140	142	2
193	196	1
77	78	1
64	82	1
59	85	1
122	170	1
168	169	4
96	118	1
153	184	1
126	139	3
194	196	4
87	107	2
98	122	2
39	64	3
22	34	1
71	81	1
96	97	1
37	65	1
170	171	1
20	40	3
101	107	1
87	90	1
72	72	2
149	150	1
148	150	1
42	44	1
26	31	2
50	63	1
161	163	2
18	19	2
160	185	1
141	158	1
114	115	2
121	136	1
37	52	3
158	165	1
10	11	1
59	59	3
4	27	2
153	155	1
58	79	2
82	83	1
101	123	1
182	186	1
140	158	1
72	75	2
115	127	1
0	4	3
116	133	2
1	1	2
65	81	2
9	36	1
34	35	1
102	110	1
32	36	1
105	132	1
165	167	1
175	188	1
41	43	2
81	88	1
12	32	1
181	190	1
5	20	2
43	54	1
0	19	2
41	56	1
3	16	1
47	57	1
81	82	1
107	114	2
13	31	2
25	36	1
0	3	1
60	81	1
170	172	1
28	40	1
125	141	1
115	117	1
128	128	1
157	158	1
18	21	1
172	178	1
19	19	2
24	32	1
47	138	1
148	180	1
46	113	1
30	59	1
138	166	2
175	191	1
181	182	1
124	154	1
6	6	1
16	17	1
95	99	2
63	64	1
68	69	1
187	192	1
169	184	1
64	78	1
58	66	1
24	55	1
56	83	1
83	103	1
29	49	1
135	138	2
34	49	1
22	27	1
19	34	1
122	129	1
156	175	1
30	185	1
122	136	1
138	149	1
73	76	1
159	179	1
113	117	1
177	181	1
48	75	1
75	83	1
59	60	2
22	23	1
101	138	1
86	86	1
0	9	1
22	50	1
115	118	1
69	71	1
117	118	2
