122	122	18
77	152	3
128	128	8
103	103	9
100	100	3
106	106	12
92	92	7
73	76	3
108	108	3
115	115	7
92	100	1
121	121	13
11	31	2
15	15	17
136	136	17
146	146	8
141	141	10
29	105	6
91	91	4
20	104	2
25	26	6
14	18	1
65	65	4
152	152	6
31	32	7
80	86	4
146	147	8
113	145	4
98	139	5
50	50	6
133	134	4
98	98	5
127	127	6
5	7	8
36	37	1
19	19	9
79	79	10
145	146	3
48	48	18
82	87	6
140	146	1
124	124	8
46	46	21
50	51	7
82	107	2
50	56	5
32	44	1
90	90	7
100	154	5
81	107	9
130	154	1
45	45	8
29	29	5
34	35	7
11	40	1
12	12	13
38	38	4
10	10	6
4	8	4
18	18	16
116	149	2
41	41	4
111	113	3
47	50	3
114	134	1
138	139	5
102	121	2
110	141	3
78	79	4
149	150	3
80	84	4
138	144	3
33	62	5
9	13	2
66	91	5
80	80	10
116	117	2
99	99	10
23	23	7
47	47	10
109	138	1
79	80	4
115	117	6
75	77	3
43	44	5
94	94	6
135	135	10
56	56	5
89	89	11
6	6	8
101	102	8
143	143	5
137	137	4
32	34	2
82	82	15
107	107	2
73	88	4
101	110	3
34	34	7
130	130	8
16	16	8
33	37	3
85	86	8
105	105	17
57	57	8
61	62	6
113	113	7
81	87	1
9	9	5
75	88	4
65	67	5
45	51	1
31	35	2
109	113	4
29	63	2
72	72	6
116	135	2
102	105	2
70	70	4
83	108	5
121	125	3
154	154	13
77	150	2
27	51	3
114	130	1
63	87	1
40	40	9
134	134	6
81	84	1
118	118	6
36	62	5
79	81	5
123	123	4
107	132	5
77	77	9
37	37	1
75	75	3
43	43	10
125	126	10
13	14	5
28	28	4
35	58	1
136	152	1
102	142	2
141	142	5
100	109	2
72	149	3
140	142	2
73	80	8
112	115	3
129	130	2
28	105	5
41	43	3
42	43	9
71	71	2
127	128	4
147	147	5
108	136	2
27	28	5
53	53	5
122	145	1
32	43	1
81	81	12
72	76	2
120	122	1
84	108	1
33	36	3
9	65	1
131	131	2
69	69	14
66	66	5
81	85	1
68	68	5
115	121	7
20	71	4
40	41	5
118	119	7
41	42	3
119	128	4
5	6	2
74	87	5
64	64	5
24	24	4
84	84	9
148	148	7
81	82	5
114	114	4
133	133	4
16	21	1
12	20	1
28	30	1
104	104	13
109	110	1
110	111	2
33	33	8
142	143	2
67	68	7
120	120	4
25	25	3
114	115	1
79	103	3
93	93	2
140	140	4
14	14	5
3	3	8
95	95	8
86	86	1
74	86	3
28	39	1
6	11	2
29	30	9
17	17	8
20	105	2
109	109	10
90	106	1
98	113	4
19	71	1
102	102	4
137	138	7
6	14	5
30	30	4
23	105	4
13	13	8
113	114	2
42	42	4
132	132	4
139	139	5
92	99	3
125	125	7
38	55	4
131	132	1
115	116	6
116	139	2
31	31	3
145	148	1
80	147	2
123	125	2
9	69	3
97	97	2
5	5	6
32	46	2
33	35	2
67	67	7
45	46	1
22	47	5
21	105	4
63	63	6
15	21	2
104	142	3
49	49	3
32	32	1
96	96	5
66	68	2
94	112	1
71	129	2
62	62	2
91	92	3
116	148	3
62	68	2
80	113	3
130	152	2
139	141	4
19	20	5
23	101	8
118	144	1
133	153	1
144	145	8
144	144	10
39	39	8
142	142	6
3	22	1
76	77	3
10	68	2
85	85	15
64	68	1
71	75	4
73	73	8
108	131	2
129	129	3
77	83	3
88	88	2
127	147	1
108	128	2
130	151	4
106	138	4
149	149	4
113	141	2
150	150	10
18	19	2
12	38	1
21	47	2
26	40	2
30	31	2
7	7	5
36	36	7
117	149	1
146	148	2
39	40	3
81	147	2
52	56	2
130	131	4
17	19	2
23	54	3
150	151	4
63	64	7
52	52	2
119	120	4
14	15	2
76	110	6
18	37	2
115	124	1
10	11	3
16	151	3
111	111	5
127	141	2
24	54	1
147	148	1
30	32	1
74	74	2
28	51	5
57	58	1
13	19	2
27	38	1
128	129	1
20	21	1
97	110	2
121	122	5
117	117	5
129	153	1
55	55	2
82	83	5
82	108	3
21	49	2
103	151	1
23	56	2
76	76	8
30	35	3
118	125	2
8	9	4
33	50	2
114	118	1
114	126	2
7	17	5
21	22	5
4	5	3
53	62	1
36	41	1
108	109	2
119	122	1
92	102	4
24	55	2
138	138	5
9	16	3
43	45	3
48	49	3
23	41	3
21	104	1
48	50	1
57	63	2
4	4	2
66	79	2
145	145	4
44	57	3
23	26	2
126	126	3
119	119	2
3	4	1
127	145	1
47	66	1
56	57	4
77	103	4
22	22	2
136	138	2
114	125	2
55	63	3
7	11	1
51	66	3
19	50	1
123	124	1
128	148	1
81	91	1
95	96	3
44	44	2
82	143	1
64	66	2
23	36	1
9	68	2
10	16	1
112	112	3
111	118	1
40	132	1
10	56	1
32	61	2
54	55	2
8	65	2
143	145	3
8	33	1
21	21	2
64	67	1
69	77	1
8	8	1
35	49	1
11	11	6
20	20	5
3	21	2
75	76	2
90	96	2
78	148	1
77	79	2
47	48	3
116	116	1
39	53	1
27	27	5
41	107	1
16	17	1
94	123	2
31	44	1
110	110	1
87	87	2
97	98	1
71	72	2
151	151	1
17	18	3
120	129	1
30	33	1
26	26	1
12	14	1
120	147	1
106	107	2
78	104	1
50	58	1
2	63	3
122	151	1
35	35	1
15	37	1
19	37	6
153	153	1
55	56	1
26	37	1
128	146	1
98	111	1
99	100	1
28	35	1
30	34	1
71	73	2
4	7	1
83	112	2
76	146	1
34	50	1
49	52	2
132	133	1
100	133	1
54	54	1
81	113	3
107	131	2
110	113	2
46	54	3
83	83	2
48	62	2
131	136	1
49	71	1
103	120	1
11	53	1
