35	35	9
36	61	3
60	60	10
101	106	3
32	32	8
33	33	6
68	68	8
93	93	3
73	73	8
98	98	7
36	37	5
59	60	2
32	80	2
45	49	1
62	63	3
82	82	6
34	45	2
26	28	3
91	91	5
46	46	4
99	99	4
95	95	8
85	85	10
47	47	4
35	93	2
87	97	1
44	44	8
47	48	1
76	94	2
83	83	8
42	42	12
95	96	1
28	28	6
66	66	7
77	77	5
34	34	6
75	77	1
88	89	1
59	64	1
71	71	13
84	84	8
90	90	3
80	81	8
40	42	3
65	90	3
101	107	1
104	105	4
52	52	8
78	78	18
52	58	2
67	67	1
25	25	4
58	58	11
92	104	4
27	55	5
31	32	4
96	96	5
72	72	1
104	104	8
100	105	5
98	100	7
27	27	2
70	70	5
81	81	3
89	95	3
49	49	7
56	68	1
34	48	2
41	41	4
103	103	7
74	74	3
94	95	5
76	76	7
63	63	5
65	66	2
48	49	3
54	54	13
20	25	4
40	40	1
61	61	7
90	91	3
79	81	1
45	50	4
97	97	6
44	45	4
88	96	2
94	94	17
92	93	1
84	85	3
53	54	2
77	78	1
23	24	1
34	35	1
26	26	4
58	59	1
39	39	2
58	60	2
43	44	7
22	58	5
41	42	3
29	29	1
78	79	3
53	53	5
56	81	1
81	88	4
86	86	5
64	64	5
84	86	2
54	77	1
24	24	4
25	26	3
72	73	3
101	101	3
57	57	4
49	82	5
72	91	6
79	79	2
45	45	3
65	89	2
40	44	1
98	99	2
63	64	2
24	30	1
51	52	2
65	65	5
88	88	1
29	69	4
56	63	2
102	102	5
84	87	2
30	30	4
50	51	2
51	64	1
92	92	6
27	95	3
100	101	4
25	27	6
82	83	3
59	59	9
62	62	2
27	56	2
41	63	1
31	51	4
31	105	1
33	45	1
69	70	1
21	21	2
22	60	1
92	99	2
78	81	4
55	55	8
50	50	2
43	43	4
75	75	4
100	102	3
48	88	3
105	105	3
76	95	1
79	80	3
53	59	3
31	35	2
35	50	3
87	87	2
56	69	1
95	107	2
36	59	1
58	69	2
21	24	2
21	102	2
91	93	1
69	69	1
22	29	2
100	100	2
38	38	3
35	99	2
56	74	1
32	64	1
29	31	2
106	106	1
103	104	1
80	80	1
89	89	1
52	54	4
31	77	1
71	92	1
48	48	1
23	23	1
96	97	3
68	69	1
107	107	2
90	95	1
56	72	1
43	45	2
67	86	1
101	102	1
66	90	1
64	74	1
89	94	1
36	38	1
60	81	1
71	72	1
102	106	1
89	91	1
49	94	1
59	69	1
49	50	1
33	34	1
56	56	1
37	37	1
