78	107	6
82	87	5
49	49	15
120	120	10
54	54	9
113	113	18
40	41	3
59	60	1
19	19	14
111	111	9
24	26	3
76	76	8
62	77	6
46	47	1
20	29	6
105	125	4
28	28	8
50	50	19
115	115	11
93	93	9
53	54	3
61	61	8
118	118	2
90	90	8
87	87	6
25	27	3
101	101	8
10	11	1
81	81	15
55	55	2
108	108	10
72	72	4
81	107	2
121	121	8
58	58	5
110	110	14
91	92	5
41	41	1
100	100	5
95	95	8
117	117	8
27	27	7
17	17	6
66	67	3
25	25	14
41	42	1
102	102	6
104	133	2
74	74	10
116	116	4
112	112	18
16	16	16
0	0	4
21	21	8
104	105	3
26	26	3
109	109	13
24	24	13
18	19	7
68	68	9
113	114	4
124	124	6
45	45	4
108	126	5
64	87	1
51	55	3
107	108	2
97	126	1
44	44	9
34	34	2
4	4	10
38	38	13
129	129	6
97	119	2
129	130	11
131	131	7
41	68	2
91	91	5
43	44	2
96	96	8
92	92	3
16	31	1
56	56	11
10	67	2
12	12	3
23	23	6
98	118	2
130	130	3
71	74	6
105	105	10
5	5	5
69	69	3
80	107	6
73	73	7
15	15	6
31	45	2
67	68	1
86	86	8
67	67	4
49	50	1
80	88	1
17	18	6
80	87	1
4	10	1
125	125	3
33	33	4
82	94	5
65	65	2
85	89	5
82	85	3
13	13	19
15	52	3
97	100	3
127	128	1
83	83	6
82	84	1
76	95	4
20	30	3
122	122	3
89	89	2
95	105	4
111	114	2
9	45	1
7	15	1
55	60	3
80	80	3
52	52	8
11	11	4
44	46	2
126	131	4
106	106	4
53	53	5
133	133	5
123	123	2
107	107	7
100	120	3
128	128	3
40	66	1
94	94	9
28	29	1
58	64	3
19	20	2
63	63	10
58	76	8
95	108	1
76	81	2
99	99	2
71	71	6
85	85	4
72	73	2
43	43	5
44	45	2
22	22	2
112	113	1
6	6	3
88	89	2
55	132	1
104	104	3
86	87	2
70	71	2
128	130	1
122	123	4
61	70	4
7	7	3
98	119	2
60	90	3
84	84	6
14	14	3
25	26	2
118	126	1
48	48	3
78	78	4
33	34	1
77	77	2
51	51	9
0	1	6
43	45	5
8	9	2
42	42	4
103	103	3
2	2	6
74	96	3
29	29	2
40	52	1
75	108	1
23	26	1
127	131	1
51	56	1
63	65	1
51	54	1
62	62	4
75	77	3
31	31	2
106	107	2
126	128	3
20	31	2
56	57	6
57	57	4
9	9	2
47	48	1
119	119	2
98	98	2
19	27	2
82	82	5
32	32	4
31	34	1
14	15	5
132	132	2
71	99	1
10	10	4
8	33	3
70	72	1
114	114	1
70	70	4
100	102	2
0	40	1
100	101	2
17	43	1
47	47	2
21	29	2
1	2	1
113	115	1
60	62	2
118	128	2
64	65	1
76	97	1
1	1	3
18	18	2
60	70	2
20	21	4
4	5	1
5	11	1
88	88	3
62	63	1
73	75	3
114	115	4
66	66	3
15	40	1
75	76	3
105	106	2
23	28	2
131	132	2
110	113	6
56	96	1
58	59	1
5	7	1
1	7	1
121	122	2
0	66	2
106	109	2
30	30	2
62	70	1
20	45	3
9	10	1
75	75	1
46	46	2
64	94	3
65	66	1
98	120	2
91	93	2
34	51	1
24	25	1
65	90	2
128	129	1
44	100	1
42	43	1
8	8	1
104	118	3
126	129	1
77	78	2
76	77	2
92	94	2
80	81	2
127	127	1
60	69	1
63	70	1
91	94	1
6	11	1
89	90	2
56	127	1
78	79	1
99	103	1
120	123	1
81	82	1
22	24	1
61	63	1
55	61	1
102	120	1
29	30	1
39	39	1
3	4	2
3	3	1
59	59	1
1	3	1
64	64	1
