80	83	3
67	67	12
52	52	11
34	34	6
47	48	7
58	59	5
72	73	3
58	58	5
76	76	14
74	74	14
74	75	11
100	101	8
67	71	8
33	33	10
93	93	19
88	89	15
25	25	14
63	63	11
85	85	10
22	50	5
20	20	1
88	88	17
73	73	18
55	56	8
80	81	11
68	72	5
78	81	3
71	73	4
37	37	4
79	79	5
53	53	6
78	83	1
65	65	17
70	70	12
41	41	11
95	97	7
85	96	6
51	51	24
26	26	5
67	68	10
35	40	4
78	90	4
30	30	10
49	50	6
24	24	6
31	31	10
79	80	10
39	39	1
100	100	6
57	59	5
91	92	3
39	40	2
81	81	5
79	85	3
64	64	14
71	71	13
62	62	35
94	94	4
86	86	13
57	57	7
26	27	4
75	75	5
44	44	2
54	54	2
71	72	5
62	65	5
76	77	7
50	51	2
72	72	22
59	83	4
63	64	1
84	84	10
78	79	3
69	69	12
101	101	18
60	60	3
62	72	4
33	34	4
69	72	1
61	92	8
48	48	1
97	97	8
87	87	4
28	28	3
48	49	1
80	80	7
69	70	5
85	86	3
70	73	2
55	55	8
40	41	2
50	50	1
56	57	8
68	69	1
99	99	14
43	43	6
62	66	2
66	66	13
22	22	5
56	67	2
52	53	2
47	47	11
68	68	18
78	78	17
66	67	2
86	87	4
32	32	3
101	102	2
23	24	1
56	56	4
70	71	5
93	97	3
49	49	12
72	74	2
25	27	1
61	61	12
91	93	3
46	46	4
92	92	17
42	43	5
89	89	4
32	33	3
92	93	1
90	90	5
39	54	4
62	63	4
27	27	7
38	38	5
23	23	3
57	68	3
45	45	2
67	69	4
61	62	1
75	76	4
81	82	3
44	45	2
38	39	3
35	37	2
83	83	8
82	82	5
83	85	3
53	54	2
29	29	5
59	59	1
81	88	2
64	66	4
42	42	4
31	36	4
34	35	5
39	55	2
36	36	4
96	97	3
70	72	2
44	53	2
65	66	1
37	38	1
25	26	1
84	97	2
77	77	2
91	91	3
55	57	1
94	98	4
73	74	1
74	79	1
36	37	3
87	88	3
93	98	1
46	47	2
28	31	1
64	70	2
93	94	1
66	68	1
27	33	1
58	60	1
77	78	1
95	98	2
91	98	1
31	37	1
35	35	1
83	86	1
96	96	1
60	92	1
26	39	1
