91	96	2
33	34	13
16	16	5
127	127	7
24	28	3
87	113	1
113	120	2
36	36	8
131	131	11
112	122	2
111	124	2
79	79	14
107	107	11
11	11	11
104	105	3
61	61	11
99	99	3
97	115	1
113	125	3
123	123	15
78	79	7
65	65	12
45	55	6
123	129	4
110	111	15
94	94	14
14	15	2
84	84	16
118	118	8
56	58	3
2	2	14
50	50	13
49	50	4
96	96	11
28	28	8
68	68	8
84	94	3
22	22	4
64	66	2
35	36	5
109	110	2
106	106	11
21	29	1
125	125	8
118	131	6
122	123	8
27	27	12
58	102	2
79	134	5
84	85	5
110	110	4
128	128	10
28	34	2
130	131	10
121	121	18
32	32	6
91	99	3
90	98	2
130	130	19
16	69	9
24	24	9
12	13	4
81	85	4
89	89	8
86	86	9
77	77	12
93	93	9
83	88	3
33	35	4
96	106	4
45	53	3
23	23	13
20	20	8
122	122	8
117	121	2
44	84	1
64	70	3
120	120	6
94	105	3
129	129	9
59	70	2
115	126	3
119	135	2
19	19	7
52	52	10
53	53	9
13	13	10
17	20	3
54	56	4
122	131	3
51	101	5
6	6	10
80	82	6
77	86	2
105	105	9
3	3	13
5	5	20
68	69	2
21	21	11
76	76	15
85	86	5
63	63	16
106	107	3
122	130	4
61	62	3
82	83	5
114	114	7
97	97	4
70	70	11
10	10	20
18	20	1
134	134	10
31	57	5
23	24	7
86	87	7
98	99	4
30	30	4
45	45	4
34	34	6
90	90	8
118	119	2
83	85	2
105	117	3
7	17	1
52	60	2
44	45	8
100	100	10
76	90	3
6	12	2
103	103	10
114	125	1
113	116	5
96	98	2
43	63	1
76	80	2
114	115	5
83	83	7
131	134	2
91	92	7
123	124	9
121	122	4
0	1	4
95	96	11
53	55	4
99	110	6
58	58	2
3	15	2
78	80	6
69	69	16
59	59	5
4	5	5
91	91	1
109	109	10
37	37	6
119	119	16
75	75	9
1	1	7
18	21	1
45	49	4
95	95	9
126	133	6
27	60	1
14	14	24
77	82	3
102	102	13
17	76	2
82	82	10
27	36	4
117	123	1
2	5	2
103	113	6
64	90	1
33	33	8
104	110	2
27	28	2
15	53	2
17	23	2
54	54	1
129	130	6
84	95	4
72	72	9
80	81	2
83	86	9
45	46	5
106	118	3
3	26	3
121	132	1
16	21	4
126	126	9
15	21	1
57	59	3
77	78	4
64	98	2
124	126	5
15	15	5
134	135	3
112	124	2
48	48	3
74	74	26
116	117	7
57	57	8
132	133	5
62	64	4
3	13	1
2	26	1
54	57	2
7	7	8
117	118	8
131	132	3
87	95	1
85	98	2
66	67	2
30	34	2
111	111	9
73	98	1
12	12	5
120	122	3
114	123	1
55	55	10
66	66	6
93	95	2
92	92	8
111	114	2
22	36	1
62	85	1
1	3	7
46	66	2
94	95	1
31	31	7
29	29	15
130	133	3
86	90	1
97	106	2
38	38	4
64	64	9
15	29	1
47	47	4
49	70	3
117	124	3
133	133	8
132	132	4
125	128	3
1	5	1
105	107	3
107	109	2
76	93	4
100	108	5
5	37	2
127	129	1
48	54	1
115	119	2
26	29	2
129	131	8
13	91	1
24	26	3
112	131	2
88	88	13
14	23	1
117	117	5
22	24	3
108	114	3
102	103	6
124	125	3
73	74	1
113	113	4
85	85	5
31	32	1
65	94	1
79	80	4
46	47	3
1	2	6
104	117	2
0	5	5
125	133	1
73	73	5
103	120	2
81	81	3
78	81	1
35	35	5
109	111	2
99	101	2
9	9	8
55	56	2
68	105	2
55	60	2
28	33	2
18	18	4
43	43	7
87	87	10
22	30	2
87	88	6
93	98	1
130	132	14
85	94	1
63	64	5
25	26	6
71	71	6
112	116	1
93	104	5
112	112	6
37	38	6
26	28	2
73	82	1
101	101	9
9	35	1
118	120	1
4	4	11
10	33	1
56	56	4
36	43	1
0	24	4
60	65	1
11	15	2
93	94	3
108	109	3
50	51	1
96	101	2
18	33	1
104	104	7
7	8	2
92	95	3
61	76	3
5	8	3
112	114	3
71	72	6
84	99	1
87	99	2
20	29	1
60	60	2
44	54	4
9	10	5
115	115	3
65	72	8
69	71	4
118	121	4
122	125	6
12	21	1
108	108	3
92	93	1
79	81	5
106	108	2
101	114	1
80	91	6
116	123	1
100	111	1
16	22	1
85	103	2
105	111	2
49	49	3
77	79	2
48	66	3
113	114	1
3	5	4
116	129	3
103	104	3
112	115	1
128	129	2
24	31	1
101	102	2
124	127	2
16	23	3
124	132	2
80	80	4
49	55	1
78	78	6
42	44	4
102	111	1
94	96	4
74	75	1
19	31	1
87	131	4
95	99	1
19	21	5
82	96	1
8	8	9
60	61	1
38	59	1
44	44	2
13	23	1
97	98	3
8	106	2
88	90	3
53	54	5
10	11	1
129	132	1
98	98	3
78	93	2
71	78	1
71	75	1
43	60	2
54	60	2
22	23	5
124	129	1
30	35	3
103	107	1
90	92	2
62	62	6
15	16	3
8	53	2
114	121	3
17	27	3
109	125	1
47	53	1
62	65	3
82	99	1
75	79	1
76	77	1
55	58	1
92	96	4
16	49	1
116	116	1
74	90	1
83	84	1
21	30	2
57	107	1
69	70	1
67	70	7
72	98	3
125	126	1
45	65	1
99	108	1
25	25	5
62	63	1
96	97	1
2	20	1
22	26	2
60	67	4
16	17	1
122	132	4
75	111	4
121	130	1
121	123	1
92	103	1
127	128	2
99	104	2
12	24	2
27	31	6
39	42	1
20	21	1
6	89	2
27	35	2
72	80	1
127	130	1
65	98	2
68	107	1
90	93	1
18	26	1
32	38	2
67	74	1
1	26	1
54	58	2
72	95	1
77	107	1
17	33	1
19	23	2
126	128	2
30	31	1
5	88	1
5	7	3
44	90	1
67	67	4
21	22	2
46	56	1
7	9	1
110	112	2
92	106	1
55	62	1
29	31	2
32	34	2
83	110	1
125	132	2
87	89	1
111	112	1
9	11	1
22	28	1
59	69	4
119	120	1
128	130	1
51	51	1
110	113	2
32	35	2
0	0	1
45	83	1
19	129	2
127	133	1
97	101	1
66	98	3
123	131	2
12	16	1
119	132	2
80	92	1
65	90	2
68	96	1
46	54	2
21	89	1
21	25	3
10	12	2
112	113	2
0	4	1
114	116	1
100	109	1
11	92	3
11	21	1
10	13	1
126	127	1
111	123	1
91	93	1
82	84	1
29	35	2
66	97	1
54	55	2
58	74	1
94	107	1
92	100	1
4	47	1
68	78	1
83	95	2
29	32	1
82	110	1
65	68	1
86	103	1
17	22	1
32	37	4
2	3	2
22	88	1
82	109	2
122	127	1
15	31	1
21	55	1
49	101	1
114	118	1
9	14	2
57	63	1
29	33	2
112	121	1
2	10	1
3	4	1
22	29	2
56	57	1
98	104	1
107	111	1
66	68	1
19	24	1
17	17	2
8	9	1
31	58	1
45	84	1
75	87	1
22	25	1
101	117	1
83	87	1
65	85	1
89	91	1
58	59	2
124	124	1
1	4	1
116	120	2
92	105	1
62	66	1
84	98	1
76	79	1
113	118	1
125	134	1
78	127	1
113	119	1
72	83	1
120	121	1
106	117	3
23	31	1
16	52	1
4	49	1
8	35	1
