117	117	6
40	40	9
23	23	2
123	123	13
35	36	6
105	107	1
33	33	9
165	165	5
53	53	10
118	118	7
10	10	4
130	131	3
14	16	3
75	75	6
152	153	2
47	47	9
132	132	10
38	39	7
27	27	5
156	156	4
159	159	3
71	74	2
90	90	13
141	141	16
77	77	4
22	23	6
21	45	5
57	57	3
18	48	3
18	18	6
64	75	2
139	140	3
105	106	7
21	22	2
65	65	4
83	83	7
20	24	2
85	86	2
44	44	6
111	114	3
78	78	12
86	86	4
111	119	2
22	22	2
70	70	3
4	4	4
120	120	4
80	80	5
134	134	3
73	73	6
165	166	5
100	117	2
162	165	3
164	164	3
52	52	12
159	168	3
11	11	15
41	42	4
20	21	3
35	35	9
162	162	10
112	119	2
154	155	4
69	69	11
68	132	1
167	168	3
18	47	9
137	137	8
1	2	8
64	64	4
36	38	6
158	159	6
136	136	5
167	167	4
48	48	6
66	67	1
43	43	4
160	160	5
88	88	16
15	15	5
153	153	4
12	66	2
45	45	3
74	74	6
66	70	2
45	46	5
141	152	3
56	56	10
100	100	3
167	169	4
99	101	1
119	120	1
113	151	4
139	141	3
26	26	3
129	129	2
68	68	3
88	89	2
147	147	8
49	49	2
107	108	3
75	90	8
151	151	10
170	170	2
84	85	2
19	20	10
2	2	5
150	150	11
52	54	1
149	149	7
105	105	12
1	1	6
51	51	5
27	28	7
95	96	2
9	9	3
16	17	3
122	122	5
78	79	4
102	102	6
154	154	5
84	84	1
24	24	9
134	135	1
44	45	5
36	37	4
110	110	10
153	154	1
99	99	8
21	21	2
113	113	4
145	145	11
93	93	4
157	158	3
90	91	6
39	39	5
114	114	3
161	167	2
89	89	4
98	99	3
10	11	2
65	68	4
144	145	1
143	144	3
119	148	5
103	104	4
95	95	6
155	155	5
107	107	13
157	157	3
14	14	10
7	45	1
135	136	5
2	7	2
163	164	1
20	43	3
114	115	2
13	90	4
97	97	4
131	131	3
91	122	2
67	67	1
11	47	1
14	79	3
113	114	1
41	41	5
96	97	10
144	144	7
13	14	1
13	44	2
37	37	1
129	130	1
109	110	1
5	47	2
127	128	1
3	3	4
108	109	2
78	80	2
19	19	1
135	135	3
133	133	7
34	34	4
94	94	1
20	89	3
130	130	6
149	150	3
46	48	2
62	62	3
44	46	1
37	38	1
53	55	5
54	54	6
7	7	6
125	125	5
34	36	1
38	38	6
154	157	1
160	167	4
118	120	2
41	101	2
146	146	4
116	117	3
162	163	6
27	40	4
165	168	1
121	121	1
127	135	2
6	6	2
5	6	5
48	55	1
6	7	2
15	88	4
91	91	5
104	105	2
147	148	1
139	139	4
24	25	1
130	136	2
10	47	3
140	140	2
51	53	1
21	90	2
111	111	5
143	143	4
140	145	2
108	108	1
104	163	4
163	163	5
8	8	1
142	151	1
137	139	2
89	90	1
0	0	1
73	74	4
66	72	1
45	72	1
22	94	2
47	48	1
55	57	4
142	143	6
128	128	3
111	151	2
63	77	1
23	24	4
87	106	1
144	146	1
12	15	2
46	47	1
87	87	1
78	134	2
152	154	1
101	101	1
13	24	1
17	17	1
93	138	2
73	75	1
126	126	2
109	109	4
106	107	1
12	12	1
169	170	1
11	66	1
42	43	1
155	158	1
26	43	1
160	170	1
11	12	2
124	146	2
14	18	1
98	98	2
81	82	3
46	46	1
13	13	1
42	42	2
10	48	1
28	28	1
156	157	1
112	112	3
124	124	2
66	66	1
72	72	2
126	128	1
13	15	1
36	41	1
62	77	2
18	19	1
85	85	1
117	118	2
19	80	1
62	64	1
22	24	1
74	75	1
79	79	1
91	136	1
139	142	1
116	116	1
82	82	1
15	16	1
4	49	1
133	136	1
