53	53	6
91	94	1
96	120	2
144	144	2
49	86	1
115	116	1
73	74	4
89	89	9
24	26	5
88	88	4
95	95	17
28	28	8
13	13	10
118	118	9
19	20	3
136	136	8
20	20	4
29	61	2
5	94	4
35	35	10
62	63	6
11	11	8
59	59	7
125	125	7
2	9	3
121	131	1
5	5	9
29	33	2
66	66	4
61	61	7
134	134	16
88	90	2
134	139	2
4	10	2
132	133	1
15	15	7
80	80	5
13	21	8
67	67	7
94	94	14
95	101	2
42	42	7
97	97	7
1	1	7
70	133	6
66	136	2
138	138	13
122	122	6
131	133	2
129	130	2
119	120	2
91	91	5
57	57	6
27	27	8
136	140	5
65	65	13
93	104	1
64	64	18
86	86	4
62	62	11
58	59	3
84	88	4
89	90	2
97	121	2
135	136	4
8	104	3
82	83	1
133	138	3
124	124	9
4	4	14
37	38	4
123	123	4
26	26	3
39	39	9
124	130	3
137	137	7
25	25	5
65	66	3
77	77	6
75	75	3
140	140	9
81	88	3
16	19	7
78	78	6
135	137	3
14	15	8
116	116	7
60	126	2
82	96	2
10	10	7
98	121	3
136	141	1
39	40	1
53	56	2
21	21	6
50	51	11
71	71	4
3	3	3
24	24	4
19	133	2
119	119	4
102	102	3
82	82	3
83	132	1
13	36	2
104	119	1
47	47	2
93	94	2
111	112	2
110	111	5
68	68	10
139	140	4
64	76	1
91	92	2
13	14	2
38	38	8
121	121	6
63	63	6
9	16	1
56	120	1
98	127	2
60	60	4
2	13	2
127	128	9
9	36	3
51	51	6
109	109	4
98	98	10
36	36	7
79	80	9
39	120	1
108	110	3
25	37	2
89	103	2
47	117	1
118	119	3
136	137	3
86	87	4
106	106	8
145	145	6
49	49	8
58	58	7
24	25	1
11	12	2
87	87	4
23	23	5
88	89	2
42	120	2
114	114	7
63	134	2
104	104	7
35	36	5
103	103	6
107	119	4
50	73	3
107	109	3
101	101	8
60	80	3
80	81	3
54	54	2
29	29	11
52	52	7
143	144	1
83	120	1
134	135	1
1	10	2
0	0	6
100	103	5
128	129	5
112	114	5
85	85	5
115	117	1
123	124	3
18	19	4
19	19	7
94	95	1
130	136	7
118	120	1
58	81	1
68	90	3
90	95	1
41	41	3
76	77	3
134	138	2
17	17	10
128	128	10
90	90	5
96	99	3
30	30	11
110	110	8
113	115	2
64	138	1
71	79	1
22	22	15
6	6	7
40	40	11
41	89	1
121	122	5
16	16	5
14	31	1
50	114	1
1	2	5
29	34	1
65	76	2
133	133	4
141	142	8
49	116	3
135	138	4
31	31	5
55	56	2
84	86	3
117	118	4
53	54	2
61	62	1
72	72	10
99	99	5
120	120	5
70	70	4
27	28	1
18	18	3
52	71	1
107	107	1
130	130	8
100	105	1
62	79	1
111	111	10
72	74	2
70	73	2
48	94	1
19	36	2
129	129	6
81	82	2
69	69	2
83	83	2
135	140	2
75	78	3
92	92	3
130	131	2
100	100	6
126	140	1
25	26	2
81	81	8
47	92	1
127	127	3
52	84	1
115	115	1
32	32	6
34	35	3
84	112	2
139	141	1
5	9	2
135	135	7
56	57	2
108	108	5
8	9	4
59	68	2
50	50	4
20	24	4
51	52	2
17	22	1
95	96	9
131	131	4
93	93	3
126	126	6
0	1	1
62	82	2
40	119	2
70	80	1
24	126	1
84	84	3
14	27	1
50	72	3
33	37	1
77	81	1
92	94	2
3	21	2
140	141	2
8	98	1
125	126	1
112	112	6
122	123	2
116	117	3
6	9	1
57	58	1
14	14	2
68	74	1
3	34	2
12	12	1
2	2	3
70	71	3
72	127	2
29	36	2
41	120	2
11	144	2
56	56	1
0	15	1
15	17	1
51	115	4
42	124	1
76	76	2
142	142	1
69	84	2
8	13	1
41	47	2
32	57	4
139	139	4
99	100	2
0	10	1
53	57	3
19	43	1
74	74	2
141	141	4
79	79	1
25	35	3
33	34	1
70	134	1
60	81	2
66	67	1
92	93	2
38	42	1
8	8	3
32	33	1
23	25	1
64	78	1
88	112	1
138	140	2
78	84	2
64	135	4
55	55	8
105	106	2
41	121	1
30	33	1
131	141	3
97	107	2
75	90	1
9	34	2
52	54	6
48	48	6
51	112	1
32	53	1
50	111	2
67	75	1
16	23	1
78	83	3
95	121	1
88	95	1
63	77	1
43	138	1
52	80	2
73	91	2
49	111	2
83	84	1
17	32	2
69	70	4
96	96	3
86	135	2
60	69	1
63	65	2
102	103	1
60	61	1
20	37	1
61	126	2
124	129	2
4	5	3
129	136	2
25	34	1
20	125	1
117	117	1
14	18	1
0	26	3
96	108	1
37	37	3
59	60	1
19	131	1
15	16	1
88	113	1
73	73	1
55	94	1
64	84	1
20	22	3
100	101	1
60	63	1
62	141	1
104	105	1
136	138	2
97	106	1
38	40	1
101	102	3
108	111	1
111	116	1
84	85	1
30	57	1
71	72	1
11	26	2
13	37	1
146	146	1
127	129	1
58	60	1
83	94	2
84	99	1
43	43	2
78	79	2
1	4	1
23	126	2
111	115	1
30	59	3
132	132	1
64	134	2
38	82	1
6	54	1
128	131	1
63	76	1
95	118	1
19	26	1
40	104	1
144	145	1
47	78	1
2	4	1
31	52	2
67	136	1
0	2	1
31	32	1
74	93	1
20	123	1
13	34	1
77	80	1
18	20	1
51	88	1
18	22	1
