110	110	18
8	8	24
73	74	4
64	65	11
13	13	24
80	81	13
96	96	13
41	44	6
31	33	12
111	111	21
59	59	17
86	87	8
94	94	19
57	65	2
117	117	20
98	98	11
93	94	3
126	126	10
90	90	20
116	117	7
71	71	16
14	15	9
60	61	4
107	108	4
102	104	4
57	57	21
105	106	11
72	73	11
113	114	13
63	63	19
20	49	5
116	116	22
92	92	31
109	109	7
88	89	15
89	89	14
47	47	22
88	88	8
77	77	20
52	52	9
112	112	13
30	41	2
42	42	14
72	95	1
95	95	17
24	25	3
125	125	21
40	40	10
26	26	22
45	45	14
7	8	3
41	41	12
80	80	19
22	23	4
115	116	14
81	85	2
55	55	26
82	82	24
113	113	23
127	127	16
21	22	6
79	79	23
15	15	10
16	16	14
101	101	10
68	69	12
23	24	11
22	29	7
22	22	14
120	120	17
48	48	27
108	108	29
92	93	3
123	123	13
104	104	17
46	47	4
12	115	2
132	132	10
73	73	22
114	117	2
90	92	2
56	56	17
3	4	4
123	124	8
3	3	12
30	30	14
17	18	4
27	27	6
43	47	6
68	68	15
87	87	17
38	38	13
107	107	15
64	84	2
105	105	7
8	16	2
12	12	11
85	86	7
109	110	3
25	25	9
21	21	17
1	1	11
65	65	10
93	93	30
4	4	17
99	99	25
33	33	22
79	80	13
61	62	10
41	98	3
60	66	3
9	12	1
6	49	3
46	46	10
24	24	10
75	76	2
129	129	15
71	72	6
64	64	16
20	33	1
110	111	3
102	102	26
40	41	6
49	50	9
133	133	6
103	103	16
67	67	18
43	46	3
50	50	7
20	20	9
67	68	12
14	14	28
0	2	2
6	6	12
101	105	5
94	95	4
42	44	3
0	0	16
83	83	22
104	106	6
70	70	24
100	100	11
80	82	6
31	31	6
8	52	4
97	100	1
115	115	22
44	103	1
114	114	26
86	86	6
34	34	8
31	32	8
74	75	7
104	105	10
62	62	15
118	118	12
124	124	11
131	131	8
2	2	18
6	44	8
65	66	25
32	58	3
130	131	5
126	127	11
18	19	11
45	46	1
11	13	2
90	91	4
84	84	13
88	97	4
90	102	3
87	101	6
15	16	8
109	120	3
44	44	7
19	19	15
69	69	16
29	29	14
19	20	5
84	85	8
94	101	5
88	106	2
63	64	3
77	78	7
53	54	4
105	107	1
50	51	6
128	128	20
39	39	13
9	10	2
111	122	1
53	116	5
66	67	4
66	66	17
38	99	1
28	28	17
16	17	4
57	58	4
82	85	2
89	91	2
89	101	4
114	116	3
62	71	3
119	127	3
102	103	5
54	54	17
70	102	5
121	121	14
101	103	5
130	130	13
97	97	13
53	53	18
51	51	14
52	53	10
75	75	20
75	77	8
38	39	4
70	71	6
78	78	21
32	104	1
73	83	3
40	45	3
28	40	3
0	6	4
87	88	8
32	32	9
22	42	2
56	57	5
102	107	1
61	61	5
29	30	4
49	123	2
21	29	2
17	17	22
59	60	9
91	91	7
5	7	5
16	59	1
17	19	6
49	49	17
1	2	11
76	76	15
113	115	1
52	55	1
124	125	2
10	11	3
49	57	2
58	59	8
24	45	2
122	123	5
78	85	1
118	119	7
74	103	2
43	44	4
109	118	1
5	6	9
62	63	4
23	23	8
68	84	2
110	114	4
82	83	4
74	74	17
72	83	2
118	120	3
11	11	8
119	119	10
96	101	4
30	32	3
0	1	8
85	85	4
72	74	1
101	102	6
117	118	4
54	55	4
106	106	9
2	3	3
61	63	1
118	126	4
19	96	2
7	7	10
107	109	2
88	90	7
126	133	8
23	46	1
50	56	9
61	71	2
96	98	1
72	72	12
125	127	2
3	51	1
124	133	6
119	126	4
2	5	8
97	98	6
9	9	7
28	29	5
72	84	4
91	92	9
95	96	5
89	105	1
43	43	12
67	69	3
21	103	4
117	127	2
119	120	2
75	82	3
51	54	1
27	29	2
77	91	1
38	101	4
60	68	1
51	55	2
28	31	2
14	58	1
81	81	13
105	108	1
39	110	3
125	126	3
25	26	2
83	84	3
0	5	3
42	97	2
60	65	2
121	122	6
79	92	2
122	122	4
87	89	5
44	45	3
76	77	4
60	60	15
5	5	6
33	34	1
111	117	5
10	131	1
81	82	4
85	91	4
108	119	3
50	54	1
49	107	2
39	41	3
99	100	2
26	41	1
79	84	2
127	129	2
29	40	3
41	43	2
8	9	3
91	102	1
106	107	4
127	128	6
42	43	5
87	94	2
13	14	8
9	116	1
58	58	3
11	12	4
111	115	2
101	106	1
54	57	1
21	104	1
86	90	2
11	126	3
128	129	3
45	101	1
10	117	1
62	70	4
95	100	2
39	101	3
41	47	1
104	107	2
110	119	2
89	97	3
41	42	1
51	52	2
48	54	1
18	18	11
53	107	4
42	45	1
24	107	2
58	60	2
26	27	6
8	51	1
52	108	3
103	104	6
89	90	3
57	112	3
120	126	2
11	14	2
110	122	1
29	31	2
76	83	2
112	113	5
27	32	2
18	63	2
107	125	2
22	24	1
48	50	3
80	124	2
32	105	1
2	4	2
48	107	1
4	5	5
108	118	3
37	37	1
89	96	2
96	100	1
56	65	1
30	33	2
21	33	1
98	99	3
49	56	1
9	62	1
27	42	2
108	109	4
21	45	4
88	91	2
10	10	3
20	48	2
0	3	1
62	72	1
126	129	3
66	68	1
34	60	2
73	100	1
88	105	1
77	83	1
118	129	1
28	30	2
45	48	4
74	85	2
117	120	1
12	131	1
76	85	1
110	118	1
56	110	1
126	130	1
39	40	3
18	33	1
24	26	1
81	84	2
34	61	1
11	130	1
77	93	1
114	115	3
15	59	1
48	49	1
80	105	1
9	15	2
27	28	1
56	119	1
60	64	1
100	101	2
81	112	1
59	126	1
7	19	2
18	20	1
20	21	2
81	123	2
79	86	1
103	105	1
3	5	1
98	100	1
0	7	2
48	56	1
84	103	1
129	130	2
74	128	1
81	124	1
43	45	2
84	90	1
118	128	1
10	14	1
28	33	1
108	112	1
9	50	1
76	93	1
64	68	1
106	124	1
64	83	1
21	44	1
119	125	1
