26	29	6
64	64	10
49	50	5
47	47	8
11	27	6
43	44	3
2	4	3
48	48	5
1	1	17
3	4	3
43	43	9
57	57	10
20	20	12
9	9	19
38	38	13
21	24	3
46	46	2
63	63	5
4	4	8
41	41	13
45	45	4
56	56	29
19	19	20
62	64	4
59	62	1
23	26	4
21	23	4
62	62	8
58	58	13
40	42	4
29	30	5
36	37	6
28	28	6
20	21	1
71	73	3
4	6	4
75	76	10
75	75	16
33	33	7
43	49	2
73	77	8
64	65	2
56	58	1
21	21	13
41	42	2
27	33	2
10	10	9
73	73	12
35	36	7
18	22	3
70	71	5
54	55	5
59	59	8
76	76	10
74	74	5
12	12	5
13	13	11
6	10	1
39	39	11
43	51	2
63	69	9
27	28	3
21	22	4
24	40	3
25	25	8
0	0	16
67	67	5
62	63	4
3	6	1
5	5	8
10	11	3
33	34	5
23	27	1
24	26	4
51	51	11
68	70	4
1	3	1
20	69	3
25	28	2
7	7	6
2	3	7
56	59	2
22	22	8
4	10	2
70	70	3
53	53	8
24	24	5
50	61	1
53	57	2
47	49	2
34	34	9
65	65	8
60	63	3
21	25	2
71	74	3
48	49	6
31	36	2
48	54	2
48	55	2
26	26	3
30	30	2
30	31	5
40	40	1
8	8	2
6	6	14
35	35	11
57	58	2
77	77	4
46	52	2
20	34	3
20	44	3
43	45	3
62	66	2
60	66	2
66	66	13
24	25	5
38	40	1
11	11	12
22	23	10
70	73	3
31	31	3
61	62	5
54	72	3
50	57	5
68	68	10
51	54	3
0	3	2
54	74	3
27	27	6
29	29	12
72	72	11
68	69	5
42	43	2
41	43	4
0	1	6
32	33	7
2	55	2
28	29	7
73	75	4
6	7	10
61	61	9
29	31	1
39	40	4
13	75	1
44	45	3
52	53	3
44	49	2
41	48	2
43	48	2
39	43	4
58	59	5
20	39	2
14	14	6
44	44	12
42	42	5
36	36	10
43	47	1
38	39	1
59	68	2
50	58	3
50	51	5
51	76	4
42	44	3
33	38	1
48	60	5
30	36	1
44	50	3
36	38	2
76	77	4
49	51	6
45	48	1
3	3	5
23	23	5
32	32	9
59	60	1
74	76	2
58	72	2
9	12	2
25	26	3
18	18	3
27	30	3
55	55	3
5	11	3
37	44	5
12	13	1
37	37	1
0	2	2
47	50	2
7	9	4
23	71	2
43	52	2
49	49	5
55	60	1
7	8	2
14	43	2
51	53	3
74	75	2
2	2	5
25	27	2
4	5	5
60	67	2
18	21	3
5	6	5
8	56	5
50	50	3
5	55	1
20	26	2
61	63	2
39	74	1
64	72	4
36	40	1
60	60	2
5	7	2
63	66	1
1	2	2
31	33	1
33	77	1
33	48	2
22	27	2
0	7	2
63	64	3
69	69	3
34	40	2
71	71	3
60	62	2
40	74	2
37	38	6
39	41	3
3	10	2
13	14	1
20	25	2
66	67	1
46	50	2
50	67	2
30	63	1
52	72	1
46	56	1
31	32	2
1	60	3
25	41	2
2	46	1
54	54	3
38	44	1
73	76	1
55	56	1
51	52	2
23	32	1
40	46	4
59	67	1
9	10	2
37	40	2
5	9	2
28	77	3
20	43	1
34	41	2
9	11	1
9	74	1
52	69	1
4	7	3
52	52	3
2	10	1
54	60	2
4	8	1
57	59	1
64	69	2
48	66	1
41	45	2
44	67	1
4	56	2
69	72	1
15	35	3
24	30	1
64	67	1
71	75	1
19	21	1
69	70	2
67	70	1
37	42	1
44	51	1
65	66	1
27	31	2
61	64	1
42	45	1
21	55	1
19	46	1
5	12	1
27	29	2
26	35	1
22	38	1
56	60	1
18	45	1
19	20	1
46	47	1
10	41	1
42	48	1
73	74	2
