111	111	4
122	123	6
60	60	11
158	159	3
130	131	2
127	127	4
141	151	8
114	115	6
133	133	3
79	79	1
18	18	3
59	61	1
185	185	7
46	46	4
66	66	4
154	155	7
58	59	2
182	182	13
121	122	3
175	175	16
37	79	2
14	15	7
159	160	4
73	73	6
99	100	4
25	25	3
74	74	2
143	144	5
13	16	2
64	64	8
118	119	4
97	98	9
136	136	11
154	156	2
114	114	9
183	186	1
154	154	7
62	62	10
188	189	1
10	12	3
48	171	6
150	151	2
0	0	5
176	176	4
20	20	10
22	22	5
154	157	1
42	78	1
122	155	4
108	109	3
148	148	14
35	35	3
85	85	19
90	90	3
39	41	2
54	55	3
29	30	8
138	138	17
59	59	3
37	37	3
123	138	1
41	41	11
24	24	17
102	102	9
134	134	16
172	172	9
166	166	7
164	164	8
21	22	4
63	65	7
101	109	4
105	108	1
131	142	6
182	183	8
106	109	6
46	47	2
8	8	5
163	164	2
141	141	5
119	119	7
43	46	3
54	54	6
173	173	6
38	38	6
71	71	9
62	63	7
24	99	6
138	140	1
184	184	3
110	111	4
83	83	7
143	143	3
101	104	3
163	166	2
152	153	2
30	35	2
183	183	7
175	177	3
59	62	1
186	186	12
55	55	5
55	56	1
121	121	1
89	89	3
144	144	5
181	182	4
181	181	5
13	13	5
169	170	2
157	158	4
57	57	3
3	3	3
32	33	5
39	40	3
60	152	4
1	1	5
145	146	3
72	72	10
28	28	1
138	155	1
158	158	10
32	37	3
66	115	1
75	75	10
57	58	2
159	182	2
44	44	10
15	17	3
4	17	4
103	109	4
91	111	3
132	141	1
135	135	12
84	84	3
95	95	4
120	155	2
96	96	8
120	120	10
2	2	4
38	39	2
109	109	8
33	36	3
178	178	9
165	165	6
140	141	5
76	76	2
162	162	7
183	184	5
174	174	5
4	169	1
36	37	1
187	187	5
65	65	7
155	157	2
108	108	1
115	116	1
171	171	1
124	136	2
8	16	1
15	15	6
32	34	1
127	128	2
170	181	1
146	147	3
112	113	4
139	139	1
124	124	5
159	164	1
18	105	2
56	58	1
162	164	1
118	179	1
53	54	1
42	42	8
23	24	4
129	151	4
82	165	3
166	172	2
88	88	9
169	169	3
56	56	4
160	160	7
98	98	10
113	113	9
188	188	2
45	46	2
181	183	1
34	34	3
20	170	3
82	83	2
73	74	3
6	6	3
29	29	12
56	88	2
77	77	7
68	68	3
185	186	2
95	109	4
124	125	2
103	104	6
27	27	6
28	29	3
120	121	7
66	67	3
126	126	11
150	150	6
146	146	2
145	145	1
136	137	4
110	110	6
11	23	2
92	93	1
102	104	2
29	35	4
17	17	6
124	151	1
155	156	3
123	123	3
129	145	1
15	20	1
7	7	5
95	96	1
73	128	3
92	92	1
5	7	2
157	157	7
129	129	4
170	170	2
96	102	2
5	5	1
174	183	1
98	99	1
105	105	2
81	81	6
12	45	4
151	151	3
101	101	3
101	102	6
26	26	1
105	109	1
71	72	5
78	78	13
107	107	4
161	161	4
128	128	7
119	152	2
48	48	2
76	77	1
19	22	2
177	177	3
47	47	5
106	106	2
184	185	1
94	95	2
115	115	1
7	41	1
36	36	1
67	67	4
54	110	1
68	70	1
65	66	2
16	16	2
175	176	2
57	61	1
12	23	3
106	107	3
166	167	1
120	128	2
160	161	1
63	70	1
10	44	2
30	31	2
149	149	2
153	153	3
87	87	4
57	190	1
89	109	2
90	95	1
130	134	1
4	4	5
9	12	1
21	21	1
170	189	2
14	26	2
43	43	1
104	117	2
77	78	2
139	140	2
153	175	1
133	141	1
100	100	1
106	111	3
159	159	2
98	100	1
68	129	1
147	147	2
189	189	4
96	97	4
168	168	2
11	12	1
129	131	2
116	129	1
111	113	1
56	62	3
125	125	4
104	116	1
155	155	3
67	68	3
177	178	6
127	148	1
100	101	1
53	53	2
87	102	1
75	76	1
137	137	1
104	104	1
101	108	1
99	99	2
128	148	2
27	28	1
10	46	2
172	173	4
14	25	1
19	20	2
63	63	4
58	174	2
52	104	1
44	71	1
7	39	1
126	151	1
56	77	2
125	127	1
52	53	2
70	70	3
78	79	1
152	152	2
12	12	2
73	127	1
112	112	1
69	69	1
62	75	1
7	74	2
116	116	1
63	163	1
169	171	1
132	149	2
130	135	1
167	168	2
118	118	2
39	39	2
35	36	1
95	102	1
85	114	1
163	163	2
60	61	2
82	82	1
91	91	1
25	45	1
4	57	2
156	157	2
4	5	1
124	153	3
116	117	1
140	151	1
9	9	2
7	8	1
19	19	1
71	74	1
15	22	1
164	165	1
137	139	2
121	128	1
17	18	1
93	94	1
34	68	1
10	10	3
125	144	2
103	103	1
142	142	1
97	99	1
161	162	2
126	127	2
89	110	1
56	63	2
90	109	1
72	73	2
4	7	1
59	139	1
2	169	1
68	71	1
134	137	1
80	81	1
81	82	1
156	156	1
27	30	1
169	177	1
99	110	2
122	122	1
190	190	2
47	48	1
61	61	1
23	23	1
100	108	1
123	130	1
180	180	1
73	126	1
65	114	1
111	112	1
87	96	1
91	92	1
57	189	1
53	55	1
