25	25	14
90	90	19
1	19	2
77	77	10
73	104	1
27	36	5
87	88	9
128	128	23
19	20	9
131	131	15
96	96	32
4	4	13
112	112	15
37	129	4
23	27	5
123	123	24
78	101	2
78	90	5
17	17	26
83	84	13
125	125	15
27	27	10
78	78	15
12	12	16
33	33	14
129	129	24
117	119	4
29	32	3
5	15	4
2	8	5
130	130	26
109	109	27
38	38	11
119	119	15
14	14	17
11	23	3
23	23	16
75	75	24
74	74	33
86	86	20
72	73	13
101	101	14
140	140	11
82	82	15
1	1	27
77	79	1
24	25	7
81	81	14
85	85	20
32	32	18
104	105	4
15	15	9
19	32	4
110	111	4
35	35	27
120	120	14
30	30	23
133	133	19
82	86	3
135	135	20
19	19	14
0	26	2
134	134	29
0	36	2
136	136	9
72	72	20
109	120	2
89	91	6
112	113	4
118	118	17
71	71	15
37	37	28
15	16	7
114	115	11
38	39	1
17	21	1
88	88	19
108	113	3
6	6	26
98	98	21
78	111	4
124	124	33
73	73	21
96	114	1
8	17	2
106	111	1
87	87	26
4	75	1
98	101	4
85	86	3
99	100	7
15	28	4
72	92	3
24	27	4
117	129	1
133	134	7
108	108	11
8	9	7
103	103	11
85	88	2
88	89	1
18	18	15
26	37	2
116	116	10
11	11	21
103	104	4
72	77	3
79	80	5
87	89	5
73	79	2
104	118	3
109	116	1
113	113	19
116	117	12
107	116	4
111	111	33
102	115	4
88	94	3
108	116	3
134	135	6
81	95	2
4	15	2
94	95	6
99	99	7
37	130	3
8	13	5
3	3	20
28	28	12
128	129	9
0	4	9
105	106	1
117	120	4
93	93	7
6	8	2
104	104	11
114	114	23
4	5	3
122	122	20
115	115	32
74	75	5
76	76	26
120	122	3
31	31	18
75	76	4
2	19	6
125	126	8
0	1	4
24	24	14
89	89	21
102	102	18
36	36	22
34	126	3
25	32	5
12	36	2
84	96	3
98	99	10
36	37	5
91	92	5
99	103	2
28	31	4
117	117	11
3	18	5
0	0	18
118	119	13
16	20	5
2	2	19
114	122	4
29	30	4
105	107	3
15	17	8
115	116	11
97	120	2
129	130	6
18	19	8
102	103	2
8	37	2
105	105	11
116	118	3
89	94	5
107	119	4
18	28	2
83	85	2
80	82	1
6	20	1
9	9	20
80	80	14
29	29	12
94	94	7
92	92	13
117	122	1
114	123	1
13	14	11
91	91	18
27	34	1
95	95	17
73	90	2
3	8	1
6	21	2
97	97	11
13	25	2
85	101	1
108	109	7
10	23	4
9	23	2
22	23	10
79	79	14
137	137	9
97	119	3
132	132	15
89	93	6
134	136	1
94	110	3
140	141	2
88	101	2
111	119	3
100	100	11
137	138	5
103	125	2
28	29	6
106	106	11
14	19	3
93	94	3
84	84	10
119	120	6
11	20	3
8	8	20
20	36	2
118	122	2
25	27	2
130	131	5
33	38	6
106	110	2
31	33	1
33	34	5
34	35	7
14	37	2
27	38	1
75	78	1
126	126	16
93	101	1
87	98	2
1	2	5
8	12	2
109	110	2
110	110	25
78	82	2
78	89	4
35	132	2
7	12	2
13	13	10
34	34	15
92	93	9
11	30	3
121	122	5
13	30	4
71	72	2
107	124	2
19	21	1
31	32	3
86	93	1
29	31	5
94	114	5
20	22	6
24	32	1
107	107	11
3	17	2
81	82	2
72	105	3
87	103	1
10	30	2
112	122	1
7	7	15
89	92	2
16	17	6
22	22	5
3	5	7
110	117	1
86	106	2
21	26	1
97	115	1
138	138	7
72	85	2
75	123	5
76	78	3
77	78	1
84	85	6
105	122	5
28	47	1
10	10	15
12	28	2
36	95	4
74	78	4
81	89	1
104	108	7
93	105	3
128	132	4
123	127	1
121	121	11
127	127	12
106	123	1
1	5	8
89	101	2
127	132	3
20	20	12
81	83	2
84	93	1
132	133	6
108	110	2
82	91	2
123	126	3
98	100	1
23	37	3
131	132	5
12	27	2
21	22	3
73	76	3
114	120	1
77	96	3
73	81	1
84	90	1
38	98	2
10	11	15
94	103	4
112	120	1
136	140	1
2	3	3
90	91	3
88	115	2
83	83	13
73	85	3
101	102	2
99	121	1
18	25	2
32	34	1
117	123	1
118	120	2
26	27	1
113	125	4
0	19	1
94	102	3
17	20	3
21	27	2
94	116	3
85	102	7
21	102	3
139	139	5
98	122	1
95	96	3
124	125	4
1	16	1
94	96	3
81	90	1
103	106	3
93	114	2
81	87	1
4	16	4
85	87	1
73	82	4
10	26	1
106	113	2
100	112	4
105	119	2
71	106	1
72	88	1
30	31	5
100	128	2
116	121	3
107	125	2
128	130	3
113	120	4
89	100	2
21	21	13
105	115	1
74	123	1
97	98	4
81	93	3
25	26	1
114	121	2
10	16	2
77	121	2
35	36	2
117	121	2
1	8	1
74	87	1
2	30	1
3	6	1
82	103	2
104	106	3
2	15	1
6	24	1
98	103	2
15	66	1
86	89	2
5	5	8
82	83	4
108	115	1
2	17	2
90	97	4
83	96	6
73	106	4
27	29	3
112	123	1
19	34	3
84	104	2
9	11	1
127	129	1
108	127	1
130	132	1
74	91	6
101	103	3
73	74	2
106	126	2
83	102	1
113	118	2
23	32	1
26	26	4
8	32	1
78	93	2
34	37	4
111	130	4
126	128	1
106	107	2
7	8	7
139	140	2
11	12	4
115	117	1
33	96	2
76	91	3
92	94	1
101	122	3
116	128	2
29	116	1
114	125	1
13	18	2
82	90	1
94	100	3
71	82	1
92	112	2
76	79	2
27	32	2
79	89	2
99	112	2
17	18	2
35	133	1
74	84	1
111	112	1
80	120	2
135	137	2
81	85	1
37	38	4
15	18	1
10	29	2
126	127	3
23	24	4
100	101	4
110	126	1
87	100	1
97	112	2
33	134	1
87	104	1
127	130	1
84	100	1
141	141	1
22	36	3
76	77	1
134	140	1
12	15	2
112	121	1
100	117	1
11	18	2
13	27	4
75	99	1
94	107	1
84	103	3
121	123	2
99	120	2
18	20	1
119	121	1
9	18	1
20	21	1
36	38	1
101	106	1
120	121	8
14	28	1
97	124	1
7	14	2
5	18	1
87	92	1
76	92	1
108	120	3
3	4	2
31	36	2
96	113	1
91	93	1
10	20	1
100	103	1
87	93	1
111	115	2
117	124	1
104	115	1
28	34	1
31	110	1
90	105	1
19	100	1
3	13	2
108	118	2
81	94	3
24	99	1
21	99	4
18	21	1
6	9	1
6	12	1
77	89	3
110	112	1
73	100	1
100	127	1
120	123	1
107	108	2
74	81	1
107	113	1
74	76	1
77	95	1
79	132	3
86	97	1
2	16	1
96	111	1
26	72	1
66	86	3
11	38	1
4	76	1
78	108	2
115	119	1
99	111	4
88	100	1
0	17	1
80	81	3
97	101	2
111	126	1
117	118	3
81	84	3
93	103	2
8	86	1
133	135	1
78	79	1
122	123	1
109	122	1
16	32	1
86	88	1
96	97	1
18	37	1
14	17	1
16	16	1
12	13	1
11	26	1
1	21	1
14	32	1
75	81	1
71	75	4
105	117	2
32	37	1
110	115	1
87	90	1
8	99	1
94	115	1
86	108	1
23	26	1
79	82	2
68	68	1
114	127	2
9	35	1
5	9	1
84	101	1
14	38	1
72	89	1
18	36	1
75	79	1
70	70	1
97	103	2
7	9	1
104	122	1
83	101	1
122	124	1
83	105	1
82	88	1
14	30	1
84	89	1
21	32	1
89	105	1
108	125	1
73	103	1
123	124	1
16	31	1
29	37	1
5	7	1
