52	52	13
2	2	19
74	75	8
48	48	14
72	78	5
53	53	18
30	59	2
11	13	5
38	38	27
8	8	22
28	28	23
20	20	4
11	12	11
41	41	30
65	65	24
60	60	32
27	27	21
1	1	14
58	58	14
74	74	23
1	2	11
42	42	20
17	17	14
35	35	19
46	46	27
45	56	4
30	30	19
37	39	3
55	55	47
70	70	6
25	31	5
15	47	3
32	55	1
34	34	21
5	7	4
39	50	3
61	61	12
5	6	12
45	46	4
18	18	16
8	73	8
78	79	3
64	64	19
54	54	9
36	36	11
67	70	4
38	41	3
75	76	1
6	6	23
61	62	3
12	13	4
37	37	15
4	4	22
19	20	3
26	31	1
73	73	27
77	77	13
57	57	9
71	71	7
19	26	4
18	41	4
47	47	35
31	31	12
6	74	4
47	60	2
14	14	3
63	63	10
13	14	5
15	15	4
78	78	23
59	59	16
39	46	10
69	69	13
31	63	4
18	19	5
33	33	9
16	77	3
73	74	3
76	76	12
25	25	7
5	5	6
26	27	9
38	39	9
10	12	2
3	3	7
11	11	10
29	59	7
27	28	4
32	49	6
7	7	12
75	75	7
3	4	8
21	21	5
75	80	5
40	41	9
5	49	2
33	70	2
7	8	5
66	67	8
56	57	6
17	29	2
59	62	1
41	56	4
43	43	7
26	26	19
45	45	9
29	29	6
73	79	1
26	29	1
15	20	6
20	21	5
51	51	3
39	40	3
33	48	3
66	70	5
9	9	5
71	72	2
62	62	9
53	54	5
10	14	1
40	42	1
4	5	4
79	79	13
51	64	1
68	68	2
49	62	4
19	25	2
2	39	1
26	51	1
26	54	3
2	3	4
72	72	4
4	49	3
40	40	15
39	39	13
56	56	14
19	66	1
34	46	2
16	16	3
46	47	2
53	55	1
53	56	2
19	55	1
76	77	4
40	56	1
6	7	8
25	53	4
35	78	2
14	21	5
48	49	5
19	19	10
22	22	4
2	10	1
50	52	2
42	43	1
71	77	1
66	66	6
47	57	2
15	19	1
18	58	3
55	56	3
51	52	7
7	75	1
1	34	1
10	10	9
50	71	1
48	60	3
80	80	9
39	47	5
12	15	1
74	76	2
27	60	1
30	65	3
35	36	3
79	80	4
4	6	1
1	49	3
21	65	1
76	78	8
50	50	4
29	66	1
12	69	1
67	67	6
65	66	2
9	30	1
17	26	3
72	76	2
7	73	2
13	13	6
18	56	2
21	22	3
49	50	1
3	77	4
70	77	5
67	71	2
55	61	1
17	74	6
49	71	2
10	68	2
3	50	2
49	49	4
31	32	2
29	30	4
37	38	1
20	45	2
51	65	1
17	18	2
3	71	2
15	25	2
10	20	2
13	63	1
33	46	2
8	9	1
68	70	1
32	57	2
10	11	2
47	48	1
14	49	2
57	62	1
1	30	3
32	35	2
63	64	2
32	32	3
41	44	3
41	42	1
53	59	1
16	57	2
29	57	2
0	0	3
11	15	2
33	72	3
42	45	2
63	65	1
47	62	1
56	62	1
40	45	1
14	32	1
21	27	1
69	73	1
67	68	1
34	39	1
59	60	2
0	1	1
38	40	3
3	15	1
69	70	2
33	34	3
10	67	1
4	7	2
6	75	1
65	75	1
32	33	2
18	60	1
37	42	1
77	78	1
70	71	2
9	15	1
72	73	1
8	30	1
71	78	1
60	62	1
