92	92	10
24	25	6
69	70	8
97	98	7
70	70	17
36	36	6
33	34	2
72	72	15
31	31	6
49	49	8
39	62	2
90	90	13
75	75	11
70	73	4
89	89	18
39	39	4
95	96	3
88	88	10
40	41	3
74	74	11
87	88	10
41	41	17
81	81	17
91	92	6
65	65	21
85	86	3
78	78	14
63	64	4
50	50	7
79	79	8
95	98	1
67	68	5
79	80	3
63	63	14
98	98	6
25	27	3
85	85	13
63	75	2
47	47	14
90	92	2
56	56	6
39	94	5
51	58	4
61	61	6
27	27	10
67	74	3
87	87	7
66	69	5
60	60	7
76	77	12
76	76	8
67	67	22
66	85	1
64	64	28
58	58	9
84	84	4
66	66	7
33	33	1
59	59	8
32	32	3
23	25	1
75	76	1
70	71	8
53	53	2
65	69	1
47	70	2
97	97	10
98	99	5
95	95	6
57	57	12
72	73	3
68	68	7
26	26	6
86	88	11
80	80	11
86	86	10
68	69	4
50	51	3
26	27	4
25	25	3
44	44	13
44	45	8
66	68	4
82	83	4
36	37	7
87	93	1
65	67	1
62	62	14
65	66	6
80	81	8
66	67	4
38	63	3
47	48	1
40	40	14
91	91	4
46	46	8
101	101	5
69	69	10
86	87	4
99	101	5
33	83	3
42	42	16
35	35	5
45	46	2
55	55	4
99	99	7
93	93	4
73	73	12
92	93	6
34	35	2
102	102	1
38	38	1
74	75	6
73	74	1
38	46	1
71	74	1
22	93	3
75	77	1
23	26	3
77	78	5
79	81	6
71	72	3
29	29	5
77	77	5
22	23	3
82	82	3
52	98	1
66	72	2
94	95	4
55	58	1
58	59	3
70	79	3
53	98	2
46	47	1
71	71	4
64	65	1
94	94	4
38	92	1
51	63	2
53	54	6
83	83	2
38	91	1
32	72	2
38	62	2
72	74	2
52	52	2
100	100	3
48	49	1
80	83	1
65	91	1
49	50	2
54	54	2
43	43	4
36	38	1
51	56	1
23	23	1
35	36	2
26	28	2
51	51	6
88	93	1
37	37	2
24	28	1
42	43	2
35	37	1
48	48	2
74	83	1
36	40	1
47	80	1
87	92	1
83	84	1
88	89	4
73	75	4
78	79	1
30	30	1
84	85	3
49	52	2
80	101	1
39	60	2
88	92	1
41	42	1
20	20	1
38	39	1
27	34	1
54	86	1
24	24	1
60	61	1
22	68	1
62	63	1
69	81	1
20	25	2
81	82	1
79	89	1
35	86	1
65	89	1
