101	101	9
65	72	3
70	71	4
88	88	6
116	116	10
111	111	10
13	14	2
66	66	25
21	30	2
18	18	15
14	14	12
39	39	14
96	96	13
31	31	12
62	62	15
63	63	11
17	19	2
76	76	25
27	27	19
33	35	2
102	102	16
29	30	3
32	32	21
55	132	1
108	108	11
48	48	8
6	6	20
36	38	10
84	84	8
78	116	4
94	95	3
8	8	19
94	94	5
116	120	1
55	55	7
88	89	2
126	133	4
25	25	10
35	36	9
15	16	6
44	44	14
0	0	5
119	119	24
62	74	4
115	115	34
110	111	5
80	80	15
97	98	7
99	99	15
20	21	6
113	113	17
59	59	10
68	68	27
4	7	2
115	116	5
122	123	7
129	129	13
5	5	9
69	69	15
65	65	21
12	12	16
126	126	12
109	109	12
75	75	15
26	26	16
92	92	24
73	73	15
15	15	23
105	105	15
14	40	1
77	78	2
100	100	10
22	109	3
128	129	3
35	35	7
131	131	13
21	26	3
27	39	1
83	84	3
34	34	5
77	86	6
7	7	23
30	32	1
26	83	2
107	107	14
78	78	30
11	11	10
64	64	11
9	9	7
54	55	2
20	20	19
30	31	5
81	83	1
47	47	16
45	45	22
117	117	28
23	23	7
101	102	6
97	97	13
11	18	8
22	47	2
1	1	9
2	3	4
78	79	8
74	78	9
68	76	2
44	121	1
121	122	10
18	19	3
10	10	26
122	122	12
56	56	4
46	46	6
2	130	2
16	16	27
77	77	8
42	42	12
124	124	15
125	125	9
40	40	14
62	66	1
27	28	5
41	42	12
76	77	6
85	85	15
82	82	15
49	49	10
83	94	3
120	120	19
8	10	2
26	49	7
17	17	7
87	87	15
102	103	4
22	22	10
22	38	3
37	37	4
21	21	16
43	43	14
72	72	9
130	130	11
26	27	5
118	118	20
21	22	2
77	85	1
95	95	7
29	32	4
134	134	24
29	29	12
132	133	6
66	67	4
93	112	4
106	106	8
103	103	13
57	58	5
103	104	8
74	74	9
126	132	1
64	66	1
70	72	1
81	114	2
89	89	3
19	20	4
113	122	2
110	110	7
19	19	12
133	133	9
71	71	16
34	58	5
38	43	1
60	60	10
1	2	6
118	119	6
105	106	4
91	91	17
128	128	10
41	41	15
79	83	2
14	16	4
88	116	4
86	87	4
13	13	5
99	100	7
48	123	1
8	12	2
12	18	3
123	123	13
70	73	2
55	56	4
83	112	2
21	28	3
24	24	12
23	24	11
125	126	2
27	41	2
93	93	9
24	25	9
70	70	7
32	33	1
33	33	12
86	86	12
36	47	2
127	128	4
61	100	1
0	1	1
56	124	5
121	121	9
58	58	13
30	30	10
125	128	1
37	38	3
115	121	1
117	119	1
54	131	1
60	68	2
17	18	7
82	83	7
43	45	4
29	34	2
55	131	6
34	35	4
79	79	11
91	93	1
127	127	2
97	106	5
83	98	3
111	112	2
33	47	2
38	38	19
38	41	2
28	28	9
90	91	2
133	134	8
66	129	1
98	98	17
11	12	8
90	90	11
114	114	11
106	107	6
112	112	10
67	67	12
10	11	7
12	36	2
81	82	5
104	104	4
50	56	1
81	115	5
96	107	2
27	29	4
74	77	3
18	45	3
89	90	3
12	19	4
116	117	3
56	57	5
101	105	2
50	128	1
4	4	13
32	103	2
132	132	9
114	115	5
124	125	4
22	23	1
91	111	4
129	130	1
4	5	2
47	58	4
9	23	4
3	5	3
3	3	9
19	33	3
80	82	2
65	66	6
87	134	3
94	107	1
25	26	4
93	113	2
28	30	1
100	101	3
68	69	4
36	36	7
83	83	12
12	13	3
92	110	3
109	131	1
75	76	4
128	130	8
79	80	1
36	57	1
12	35	1
62	75	2
75	87	1
24	48	1
29	31	1
108	109	4
61	103	1
51	123	2
82	84	1
5	128	1
97	99	1
71	72	2
61	61	8
85	86	3
13	17	2
114	122	4
40	41	3
117	120	6
63	72	1
97	108	2
81	97	1
94	105	2
11	44	1
44	45	3
117	121	2
61	74	3
3	128	1
126	130	2
23	25	1
89	106	3
124	129	1
14	20	1
56	127	1
59	126	2
66	117	2
72	73	3
63	64	4
14	17	2
63	68	2
80	116	2
58	129	1
27	121	1
82	115	1
26	107	1
112	123	1
74	86	4
114	116	3
87	123	1
35	56	1
43	44	2
45	119	2
3	130	1
51	51	4
4	130	5
84	85	3
31	83	1
32	87	4
98	100	1
39	41	4
27	60	1
2	2	5
44	100	1
46	116	1
92	93	2
79	117	2
39	42	2
30	103	1
36	37	3
17	34	1
9	17	1
84	93	3
131	132	3
120	121	6
33	59	2
89	95	1
26	30	3
20	79	2
110	123	2
92	112	1
6	7	1
127	131	1
24	82	2
32	82	1
109	110	4
29	33	1
54	54	4
20	27	3
21	42	3
3	50	2
45	46	3
81	81	8
75	77	2
82	114	2
6	57	1
39	40	1
3	48	3
119	120	1
34	59	1
78	80	2
62	64	1
108	121	2
2	7	2
78	87	2
22	43	3
98	108	1
113	114	1
5	13	1
33	34	1
61	75	1
104	105	2
17	45	2
94	96	3
79	85	2
109	123	2
22	83	1
17	46	1
76	85	1
23	38	1
79	116	1
37	39	1
44	47	1
17	44	2
38	39	1
126	129	1
57	57	4
34	57	2
0	2	1
29	58	1
16	17	1
100	106	2
113	131	1
90	96	1
62	63	1
30	101	1
87	88	3
20	43	1
91	95	1
56	128	1
63	77	1
112	113	1
22	24	1
66	69	1
86	123	1
15	48	1
95	106	1
74	76	1
95	116	1
20	32	1
42	44	1
37	44	1
