43	48	3
63	63	15
130	130	16
153	153	17
26	26	28
98	98	5
104	104	7
6	6	10
154	154	8
161	161	8
178	178	19
4	5	3
24	27	7
34	34	12
14	21	2
132	133	1
25	25	28
74	82	5
20	20	13
170	170	15
177	177	21
73	121	1
129	129	20
23	24	3
58	63	1
118	118	15
104	106	2
68	103	3
134	137	3
124	125	7
112	112	22
162	162	11
141	141	5
135	135	13
78	78	10
8	8	5
107	107	2
45	45	3
66	74	2
76	81	1
188	188	20
65	89	6
150	150	6
18	19	2
123	138	3
74	74	10
61	61	6
69	70	3
55	56	8
31	32	3
93	98	6
159	159	24
160	160	9
113	113	13
182	183	6
137	137	21
134	135	5
10	10	4
86	114	2
17	17	9
21	27	3
148	148	10
67	67	13
42	42	25
151	152	9
94	95	1
38	39	3
106	139	3
24	28	8
99	99	18
142	142	2
110	111	9
162	163	3
62	62	10
171	171	5
164	166	4
4	4	10
14	14	10
106	106	7
97	98	4
162	175	4
174	177	4
146	146	4
85	114	3
95	169	2
139	139	13
110	110	8
105	107	4
108	109	10
37	38	6
55	72	6
18	18	4
100	106	3
15	15	11
1	1	16
99	111	6
53	54	4
54	111	2
89	148	1
155	155	6
97	97	15
67	68	6
54	54	17
163	163	7
146	147	5
66	89	2
7	7	8
176	177	3
166	166	7
69	102	2
21	22	5
179	179	6
169	170	10
119	139	5
13	13	24
142	143	3
44	44	9
83	85	1
38	38	25
126	126	7
178	180	2
77	77	26
164	164	11
53	53	7
134	167	5
160	168	4
126	127	1
62	63	6
82	83	3
65	65	4
124	124	6
44	46	3
30	30	9
147	150	1
132	132	3
172	172	14
76	76	17
148	149	9
173	173	7
88	89	3
107	108	5
40	41	2
116	116	10
133	133	17
95	96	7
10	12	5
106	107	1
154	159	2
136	136	17
186	186	10
111	111	14
41	42	2
2	2	21
133	135	2
169	169	13
29	29	15
138	139	8
75	83	3
182	182	10
56	56	15
94	94	20
31	31	5
22	39	1
189	189	9
17	52	2
127	127	8
143	143	6
187	187	7
169	174	1
15	22	4
160	161	3
87	87	13
78	122	5
103	104	5
94	98	4
15	21	9
34	53	1
17	20	4
184	184	12
102	102	14
152	153	10
19	20	6
93	132	1
166	167	6
46	46	9
172	175	2
188	189	8
91	91	4
153	154	3
91	92	4
55	69	1
25	43	4
32	33	1
101	102	10
128	128	15
114	114	12
129	130	4
151	151	10
139	140	2
24	24	13
65	66	2
138	138	8
47	47	5
13	14	7
74	78	5
35	35	21
80	80	7
144	144	8
80	82	8
12	14	2
72	121	1
99	168	7
150	151	6
96	96	15
86	122	4
167	167	4
55	55	13
88	146	6
23	46	1
20	22	5
157	157	15
104	169	2
143	150	2
5	5	5
99	167	3
105	106	6
186	187	5
68	68	8
102	103	6
158	188	2
6	7	6
97	99	2
80	81	10
75	75	5
113	167	4
54	72	2
99	114	6
176	176	10
23	23	3
156	157	2
123	124	8
70	71	2
134	136	9
158	158	15
109	110	2
115	116	10
20	21	2
147	149	1
170	183	3
59	59	2
70	70	1
15	16	2
149	149	18
152	152	16
119	119	18
130	145	4
109	109	13
78	79	2
43	43	5
179	180	4
74	150	1
43	44	7
42	76	5
115	115	9
108	108	13
18	20	4
75	76	6
164	165	2
120	120	10
91	95	3
154	162	4
71	71	8
117	119	1
156	156	12
181	181	8
83	83	9
170	184	3
95	95	15
16	16	6
11	12	2
52	53	5
122	122	7
48	48	14
158	161	2
98	153	2
38	42	3
134	134	6
44	47	12
57	57	7
181	183	4
184	185	4
66	67	8
183	183	5
3	3	9
157	158	5
145	145	13
142	146	1
41	47	8
17	40	3
81	81	4
39	39	8
123	123	9
24	25	7
91	109	3
131	132	3
127	129	2
4	11	3
40	40	20
127	131	1
140	140	6
83	103	9
125	125	6
10	112	3
79	79	12
94	141	1
173	189	1
8	25	2
103	103	8
36	36	7
160	187	1
102	115	7
81	82	1
33	36	3
12	13	3
41	41	9
142	147	1
32	36	2
161	162	5
45	46	3
14	45	1
21	45	4
97	174	1
64	64	7
1	10	2
82	82	6
27	27	4
189	190	3
171	172	5
93	93	3
174	174	19
146	158	2
74	77	4
146	165	1
58	58	6
71	73	2
94	147	3
37	43	2
10	27	2
105	105	8
30	47	1
92	93	6
64	65	2
14	15	4
16	21	1
16	17	3
95	98	4
22	27	2
0	0	8
100	100	6
22	22	3
177	178	6
159	169	4
180	180	8
77	141	3
12	12	7
72	89	2
165	165	20
22	23	2
93	112	3
159	172	2
57	85	2
99	100	5
168	168	5
57	61	1
73	120	2
63	67	2
125	126	1
121	122	3
94	114	8
88	157	1
16	22	1
54	110	4
186	190	3
3	88	2
92	131	3
149	160	2
162	176	2
58	59	4
130	132	4
175	175	7
0	1	4
95	152	3
39	40	4
88	88	2
4	110	1
72	72	7
156	158	1
88	154	2
106	109	4
115	117	1
59	60	3
173	174	2
68	77	2
2	41	2
117	117	4
87	155	4
116	117	5
93	97	1
89	89	9
41	48	1
91	98	1
37	37	6
170	171	4
118	119	1
162	164	3
56	85	3
86	86	7
33	33	6
114	116	1
54	55	5
151	170	2
15	107	4
10	30	5
96	113	1
6	8	1
53	55	2
77	140	3
105	112	2
123	128	2
118	157	1
11	23	1
132	138	1
56	57	5
22	24	2
20	47	1
140	141	8
12	31	1
96	166	1
30	45	4
69	121	4
100	105	4
33	34	1
145	147	1
73	73	3
80	91	1
144	158	1
42	47	5
90	90	5
19	19	3
58	60	2
117	120	3
147	148	3
90	149	1
81	134	1
71	89	1
100	113	1
73	77	2
159	187	1
147	147	9
87	88	3
101	103	1
171	185	1
128	129	3
160	169	4
77	78	3
92	92	1
32	32	5
129	132	3
100	104	4
94	99	2
111	112	7
185	185	2
141	143	2
5	6	1
30	46	1
9	27	2
142	144	2
168	176	3
133	134	1
22	37	1
90	96	1
90	148	1
136	137	1
11	31	2
49	49	3
172	174	1
119	121	2
33	53	2
62	79	1
148	182	3
143	144	4
28	28	2
123	125	4
159	162	2
9	9	3
85	85	3
174	186	3
25	27	4
101	101	9
172	173	1
13	23	2
18	39	1
23	28	4
61	62	2
144	170	1
96	98	3
97	162	2
24	48	3
180	181	4
131	131	4
132	142	1
120	121	3
171	173	2
71	72	3
84	152	1
17	18	2
10	28	2
76	88	1
77	79	1
99	108	1
169	176	2
137	139	1
142	149	2
99	113	5
141	142	3
84	84	1
143	147	1
83	119	1
88	113	1
159	160	2
23	27	2
97	163	1
5	8	1
85	128	2
117	157	2
153	162	1
53	105	1
3	13	1
76	83	1
57	60	1
118	161	1
94	151	2
144	159	2
21	21	3
66	66	1
168	169	3
1	4	1
114	115	1
60	60	3
148	150	1
60	61	1
88	156	2
100	115	2
43	47	1
73	85	3
18	28	1
183	184	1
55	71	1
68	83	2
91	93	2
115	165	1
101	106	1
58	66	2
119	120	1
126	128	1
62	64	1
54	56	2
100	129	1
23	48	1
108	111	1
85	86	1
12	106	1
11	14	2
9	112	1
76	77	1
42	43	1
133	139	1
73	74	1
7	8	2
127	128	1
67	81	1
47	48	1
120	139	1
19	21	2
13	21	1
72	96	1
12	110	1
122	128	3
85	120	1
100	103	1
83	156	1
46	47	1
79	80	1
11	11	1
100	108	1
15	18	1
174	176	1
65	76	1
