5	5	18
3	3	6
108	108	7
117	117	5
3	18	1
35	35	12
33	33	8
79	125	3
31	35	1
29	30	2
32	32	7
90	90	12
129	129	7
92	92	9
75	75	7
4	4	10
136	136	13
105	106	5
18	88	3
78	78	8
98	98	7
73	102	2
23	23	15
122	122	12
104	104	11
12	15	3
126	126	11
1	2	1
79	80	3
111	111	6
14	14	10
76	77	4
100	100	5
17	17	5
1	1	10
26	26	5
72	114	1
113	120	10
118	119	1
15	21	2
11	11	10
80	80	4
23	26	4
104	105	7
129	130	6
12	12	2
38	38	11
88	88	4
6	6	9
27	27	10
94	94	8
71	71	6
9	9	8
106	108	2
134	134	20
15	16	5
8	8	12
130	130	12
103	103	4
1	20	3
18	18	2
3	7	3
116	116	8
67	103	2
81	82	4
83	83	8
84	84	11
10	10	12
137	138	1
140	140	6
99	99	11
74	74	8
17	24	3
11	12	1
94	95	6
109	109	17
34	35	9
90	91	7
24	24	11
93	93	9
2	2	13
16	88	2
72	83	1
0	0	7
37	38	3
24	26	1
29	29	9
132	132	4
10	11	4
14	15	3
86	86	6
114	115	5
25	25	14
121	121	4
110	111	1
73	74	10
7	8	6
133	133	8
112	119	3
78	79	5
3	5	5
112	112	8
95	96	3
12	13	4
127	127	8
107	107	9
72	75	6
115	117	1
17	19	2
105	105	5
132	133	1
89	89	1
113	113	5
21	21	16
10	20	1
128	128	2
101	101	4
106	106	8
95	95	3
72	73	1
137	137	1
139	139	12
118	118	14
21	24	6
26	27	6
87	102	4
76	76	7
20	20	7
16	19	9
19	21	9
106	109	2
8	9	4
124	124	7
22	22	6
79	79	2
94	96	2
3	6	5
3	4	6
91	91	6
74	107	5
87	87	2
120	121	5
106	107	4
135	135	4
4	6	3
77	81	1
110	110	8
71	72	7
66	88	2
8	13	1
123	123	4
30	30	5
7	7	2
15	15	9
71	76	3
8	10	4
16	21	1
92	93	4
72	72	6
131	131	3
131	132	3
139	140	3
84	86	3
111	114	2
0	19	2
81	81	9
85	85	3
86	123	2
31	31	4
80	82	1
90	123	1
124	125	3
72	84	1
113	114	6
18	20	1
34	34	7
27	29	3
74	75	5
22	26	4
138	138	6
114	114	4
76	87	1
73	73	13
120	122	3
102	102	3
13	13	5
26	33	1
18	19	1
23	24	1
134	135	11
76	103	2
0	90	3
36	36	7
19	19	2
31	33	2
138	139	3
71	102	1
88	89	2
12	14	1
22	23	4
112	113	1
4	123	1
77	77	6
105	108	2
121	122	2
112	115	1
22	35	1
4	7	2
97	98	3
93	96	2
16	16	5
96	96	4
110	116	1
93	95	1
19	20	2
102	103	3
82	83	2
3	89	1
97	97	4
105	107	3
26	28	1
126	127	4
133	134	3
125	125	3
125	127	1
75	76	3
43	43	1
89	122	1
119	119	2
21	22	3
77	79	1
13	14	1
82	82	5
17	20	1
1	3	1
2	3	1
112	120	1
25	26	1
79	81	4
71	132	3
92	94	1
115	115	1
76	102	2
28	30	2
73	107	1
84	121	1
29	31	1
21	26	2
6	7	1
73	104	1
85	86	1
33	34	1
136	137	2
38	39	1
71	84	1
37	37	1
117	118	1
130	131	1
77	78	1
72	101	1
1	5	1
22	24	1
34	36	1
