178	242	1
116	116	3
209	211	5
68	100	1
241	243	1
185	185	5
234	236	2
97	98	2
160	160	3
245	245	3
156	156	3
240	240	2
239	239	2
112	113	4
19	19	5
103	103	3
52	52	7
83	84	2
72	245	6
182	207	5
108	108	4
241	244	2
84	85	5
96	96	5
168	168	6
70	70	1
211	221	3
177	177	2
38	38	2
149	149	3
49	49	6
86	86	2
201	201	4
9	9	3
10	109	2
111	117	5
39	52	2
106	106	3
188	189	1
57	57	2
153	153	3
88	88	3
159	160	8
177	194	4
93	102	3
102	104	2
26	26	1
244	244	2
36	107	2
152	172	4
25	28	1
209	209	2
159	159	2
30	30	4
187	187	1
1	1	2
248	248	4
176	176	3
92	92	5
221	221	3
193	201	3
12	12	3
12	76	4
42	42	3
27	61	1
55	99	3
171	171	10
240	246	2
189	189	4
115	115	5
78	78	6
2	3	2
14	32	1
170	171	1
40	40	2
31	31	7
190	193	1
112	173	1
95	96	2
11	208	2
214	214	3
197	197	3
151	151	1
7	14	1
227	227	4
56	56	5
150	150	9
41	42	2
203	203	2
113	113	5
32	32	3
63	63	4
80	84	2
10	10	3
115	121	2
71	71	2
159	176	1
226	226	2
146	150	4
59	60	1
44	44	4
38	48	2
72	72	1
196	196	3
229	229	3
226	230	2
17	18	1
62	66	5
83	247	1
5	5	1
31	52	2
12	108	1
227	228	3
163	223	2
50	50	1
190	190	7
161	163	1
60	60	3
152	152	1
61	61	3
14	31	2
185	186	2
156	157	1
2	5	3
102	106	3
81	244	2
106	108	2
224	224	4
69	69	3
179	242	2
90	91	3
169	171	2
111	118	1
55	55	1
39	40	4
11	177	1
247	247	3
181	181	5
215	215	3
75	75	1
183	183	3
175	176	2
81	82	1
83	83	1
80	243	2
195	196	1
166	166	2
214	220	1
166	177	3
162	162	2
195	197	2
56	58	2
166	178	3
221	233	2
185	224	3
241	247	3
25	25	2
105	109	1
107	107	3
67	67	1
187	190	3
11	206	2
45	45	4
53	53	3
172	172	2
215	216	4
77	77	2
175	175	1
232	232	1
10	245	2
188	188	3
191	223	1
7	101	1
76	77	2
186	186	4
15	32	1
207	245	1
64	118	2
230	230	6
238	238	3
224	225	1
236	238	1
111	111	1
11	106	1
15	58	3
155	155	3
183	184	1
118	118	5
2	2	2
234	238	2
48	66	2
29	29	1
169	170	1
8	55	1
64	79	1
231	232	1
155	196	1
14	14	1
78	118	2
234	234	3
165	165	2
31	35	2
164	183	4
174	174	6
110	115	2
153	173	1
186	222	1
145	145	1
13	57	1
114	117	1
86	110	2
113	114	3
205	205	1
182	183	1
102	102	1
68	68	1
229	230	1
52	53	1
190	212	1
112	112	1
39	39	1
46	47	1
72	78	1
105	105	1
198	198	2
33	68	1
117	117	2
208	248	1
222	226	1
246	246	2
30	48	2
38	75	2
236	239	1
104	104	1
235	236	2
218	218	2
184	184	2
72	90	2
27	27	3
184	185	1
180	180	2
74	88	1
21	21	3
218	219	1
186	188	1
18	18	2
178	207	1
84	84	3
26	64	1
154	154	1
10	11	3
34	49	1
183	223	2
241	245	1
38	54	1
157	166	1
12	30	2
99	99	1
28	28	1
62	62	1
100	100	1
235	235	1
43	120	1
164	164	2
59	59	2
196	221	1
214	215	2
198	221	1
35	35	1
3	3	1
203	204	3
206	206	1
96	97	1
213	214	1
194	195	1
217	217	2
206	248	1
31	100	1
221	223	1
98	98	1
178	179	1
201	204	1
170	170	1
87	88	1
101	101	1
36	40	1
26	67	1
119	119	1
56	59	1
144	144	1
178	178	1
161	204	1
144	150	1
104	105	1
242	243	1
48	48	1
69	71	1
37	37	1
