32	32	8
48	48	5
45	45	7
34	34	5
27	31	2
53	54	7
42	42	7
94	95	10
68	69	5
83	83	8
78	79	4
76	76	2
78	78	6
95	95	11
52	114	6
103	103	19
71	71	1
57	57	2
27	27	8
22	23	1
100	100	5
59	59	6
84	84	2
39	60	3
27	28	4
100	102	2
94	94	4
74	75	3
81	81	3
49	49	10
69	69	3
42	43	6
32	33	2
48	80	2
98	99	2
40	40	1
50	50	5
103	104	1
59	61	1
65	65	3
82	82	7
28	34	3
56	56	1
55	55	4
101	101	4
53	53	12
110	110	3
97	97	3
104	106	2
70	71	4
63	66	2
79	113	2
43	44	4
79	79	7
45	85	5
30	30	3
22	114	3
105	106	6
101	104	6
29	31	1
25	25	9
77	77	3
26	79	1
98	98	3
91	105	3
80	112	2
92	93	2
21	21	13
91	91	5
28	31	4
96	96	3
73	74	1
58	58	3
74	74	2
28	51	2
76	77	2
36	36	5
56	61	2
69	70	1
49	51	2
51	51	5
37	48	3
90	91	5
59	60	1
47	114	2
103	105	1
55	56	4
85	85	2
105	105	4
38	38	4
22	110	1
106	107	1
44	44	5
53	60	1
53	68	1
99	99	3
66	66	5
41	42	5
113	113	5
47	49	2
38	46	3
111	112	2
111	113	1
35	35	2
104	107	5
26	114	3
90	90	2
66	67	2
67	68	1
61	61	3
86	86	3
26	27	2
104	109	1
27	114	1
109	109	2
34	74	1
55	62	2
46	46	15
19	110	1
65	66	3
44	61	2
57	59	4
81	82	5
38	42	1
49	52	1
63	63	3
77	78	1
34	35	1
39	39	3
54	56	2
102	102	6
30	36	2
23	49	2
39	47	1
104	104	2
29	53	4
69	83	1
47	84	1
31	51	2
69	82	2
71	72	4
21	22	2
82	83	1
106	106	3
45	83	1
64	65	1
72	72	5
43	62	1
35	53	1
47	115	1
78	84	1
79	80	3
112	112	3
111	111	3
41	41	4
36	53	1
34	75	2
41	45	1
62	67	2
24	25	2
29	75	1
31	31	2
26	110	1
49	50	3
92	92	5
41	46	1
54	58	1
48	49	1
62	66	2
32	74	1
22	88	1
64	64	3
68	68	1
61	62	1
38	40	2
30	31	1
28	50	1
21	86	1
47	47	1
70	80	1
36	51	1
64	69	1
101	102	1
51	82	3
20	109	1
37	40	3
39	40	3
44	85	1
101	103	1
95	96	1
89	91	4
51	61	1
89	89	1
72	73	2
20	20	3
60	60	2
64	67	1
75	75	5
93	96	1
27	52	1
23	91	2
31	52	1
37	37	3
85	86	1
83	84	1
88	90	1
108	112	1
108	108	2
42	44	2
50	79	2
83	85	1
53	55	3
48	114	3
22	22	1
23	113	1
67	69	1
28	74	1
38	57	1
47	110	2
23	23	1
97	99	2
100	101	1
99	101	2
37	43	1
33	34	1
28	28	1
110	111	1
22	47	1
22	106	2
109	112	1
103	108	1
62	62	1
24	24	1
88	88	1
90	109	1
33	33	1
61	68	1
87	87	1
43	43	1
43	57	1
