221	221	10
46	46	12
162	162	3
143	147	1
59	60	7
200	201	2
187	187	4
26	26	6
111	111	3
209	209	10
49	49	9
37	37	8
220	220	6
63	147	3
168	168	12
216	217	5
117	163	6
63	63	6
140	140	4
197	223	1
68	69	2
145	145	4
150	151	2
168	169	5
152	152	3
123	124	3
102	102	6
199	229	4
161	170	6
170	170	6
54	54	2
5	5	7
32	32	2
218	236	2
106	116	4
86	86	6
62	62	3
98	98	2
190	195	4
154	154	8
184	185	2
24	34	2
4	6	4
31	31	3
167	169	3
67	67	5
146	154	1
20	20	7
2	2	9
163	163	6
68	68	5
144	147	1
80	80	4
151	151	7
119	119	5
103	108	2
156	188	1
195	196	6
4	4	2
197	197	3
15	15	6
10	15	3
41	41	3
192	192	8
157	157	7
101	101	3
176	191	4
1	61	5
217	218	4
193	195	5
164	164	10
15	16	3
73	82	1
29	30	2
82	82	6
37	62	3
67	76	4
39	54	2
134	134	3
64	70	2
226	226	4
18	19	7
209	210	2
212	212	6
3	3	3
77	78	3
230	231	6
17	17	6
146	146	4
35	36	1
58	145	3
222	229	2
21	21	8
182	182	9
122	122	11
107	108	2
137	137	3
27	27	11
159	175	2
24	24	6
141	142	9
170	171	2
99	99	5
52	52	4
2	5	3
50	52	2
195	195	5
12	14	2
206	206	4
197	198	12
191	191	6
117	117	7
138	138	5
211	211	2
72	72	12
202	203	5
180	180	6
43	44	5
66	66	8
227	238	6
114	153	4
167	167	2
103	103	2
79	133	3
60	60	5
104	104	10
219	219	7
174	174	12
229	229	5
108	108	12
110	110	3
237	237	8
214	216	2
3	54	3
227	227	3
205	216	4
136	138	2
85	89	3
97	188	1
153	154	10
198	198	7
203	203	8
133	133	6
22	23	1
0	0	7
34	36	2
162	189	4
159	186	1
103	128	2
71	71	5
120	120	4
54	55	2
81	81	3
125	125	3
61	64	3
96	97	1
8	8	9
97	97	4
19	19	4
166	166	6
199	199	10
8	63	3
235	235	7
12	13	3
43	43	4
171	171	11
156	156	2
224	224	4
39	41	4
102	103	1
5	59	2
153	153	1
132	135	3
107	118	3
233	233	4
103	107	3
36	36	6
181	212	3
33	33	14
223	224	1
179	179	11
40	41	7
152	153	6
8	19	1
57	184	2
88	89	2
232	232	4
28	28	1
126	126	1
147	148	3
240	240	2
2	3	4
176	225	1
110	148	2
35	35	5
29	29	3
34	34	4
193	193	5
204	205	3
5	6	5
14	14	5
176	198	2
7	7	3
114	114	6
139	140	1
199	200	3
164	189	6
115	115	13
58	59	2
186	187	1
185	185	5
145	146	3
69	69	1
107	107	4
74	75	6
155	157	1
50	50	4
155	183	4
205	205	1
84	85	3
83	83	3
40	53	3
71	79	1
201	201	6
175	188	2
25	62	2
179	180	3
57	57	5
222	228	1
83	84	4
135	135	3
76	76	2
132	132	1
218	218	1
115	117	2
44	44	6
51	51	4
204	214	2
242	242	1
102	131	1
167	168	4
139	148	3
103	119	3
77	140	2
6	6	3
100	100	2
70	70	6
124	124	4
177	177	3
191	194	1
56	56	7
149	149	6
42	42	13
178	178	4
82	138	2
139	139	4
78	80	1
223	223	1
88	88	1
98	99	3
164	191	1
118	118	2
210	210	8
135	137	6
199	223	2
58	58	8
86	87	1
11	42	1
23	54	1
188	188	9
162	170	2
234	234	3
25	175	2
191	196	4
23	23	2
39	52	1
155	160	1
24	56	1
48	48	2
27	28	3
143	146	3
58	60	4
187	188	2
67	68	3
234	236	3
29	31	1
1	2	1
39	39	3
181	183	1
169	170	2
59	59	3
219	236	2
129	135	3
172	172	7
72	76	1
61	61	10
13	13	2
241	241	2
209	211	2
106	107	2
29	202	3
217	217	7
213	213	4
180	181	1
141	141	7
24	37	2
230	230	7
61	182	1
183	183	1
115	150	4
157	158	2
214	214	1
30	30	2
162	164	3
47	47	6
157	184	1
149	150	1
217	227	3
72	80	1
147	147	1
85	85	4
106	106	4
181	182	2
222	222	2
81	84	1
74	74	7
47	48	2
125	126	3
35	50	2
121	121	13
238	238	5
49	50	1
21	22	6
198	213	4
203	208	1
109	135	2
160	161	2
131	131	4
144	145	2
227	228	3
81	83	1
78	78	3
233	234	2
82	83	1
212	213	3
225	226	2
20	66	1
129	129	2
112	113	1
160	160	2
188	189	3
7	8	2
150	150	3
65	69	3
38	62	1
194	194	1
229	230	3
53	53	2
32	56	2
79	79	2
220	221	1
183	184	1
201	202	1
18	20	1
228	228	2
194	195	2
216	216	5
136	137	1
5	16	1
57	59	2
128	128	4
0	145	1
163	164	1
196	196	4
200	200	4
225	227	1
105	105	2
30	31	2
35	41	2
12	12	3
181	181	3
30	33	1
80	83	1
11	11	1
75	75	9
210	211	3
204	209	3
115	116	3
45	45	3
32	57	1
143	145	1
21	54	2
55	55	3
114	115	1
23	56	3
65	71	1
156	158	1
234	235	1
159	171	1
9	9	7
231	231	1
19	20	2
220	226	2
73	74	2
225	225	1
184	184	2
200	202	6
81	85	2
235	239	3
241	242	2
116	116	1
207	208	2
189	189	2
158	175	3
81	82	1
95	95	1
204	218	1
61	184	2
235	236	1
100	127	1
214	215	1
1	70	1
0	1	1
202	202	3
155	156	1
77	132	1
25	25	1
77	77	1
104	120	1
84	84	2
226	239	1
129	130	2
182	184	2
17	18	2
176	176	1
12	15	3
155	184	1
22	22	1
182	183	1
123	123	4
61	63	2
24	31	1
197	226	1
103	127	2
25	26	1
155	155	3
58	144	1
215	215	1
8	9	1
58	181	1
176	177	2
154	155	1
234	238	1
55	60	2
103	120	2
165	166	1
219	238	1
150	175	1
175	175	1
165	165	1
8	64	1
217	228	1
51	52	2
115	154	1
38	43	1
27	178	1
16	16	1
156	187	1
116	117	1
161	162	1
144	146	2
158	180	1
189	190	1
68	75	1
104	115	1
18	67	1
37	38	1
226	231	3
24	181	1
205	209	2
105	119	1
191	195	2
182	185	1
159	162	1
198	199	1
164	165	1
222	223	1
68	71	1
24	54	1
64	64	1
100	103	1
138	140	1
191	192	3
32	33	2
4	5	1
236	237	1
114	152	1
75	76	1
130	132	1
158	181	1
155	161	1
91	91	1
218	219	1
65	65	1
193	194	1
15	18	1
40	42	1
143	143	1
190	190	1
205	206	1
63	64	1
