95	95	3
83	83	5
127	144	3
129	154	2
100	107	5
139	139	1
118	118	1
33	40	1
47	49	1
82	82	6
137	145	3
53	63	3
105	127	5
2	23	2
57	57	2
61	62	2
28	42	2
121	122	2
53	55	1
101	101	1
80	85	3
86	145	3
107	107	13
5	6	2
66	66	2
93	100	1
7	25	3
21	26	3
77	77	4
97	118	2
131	131	5
48	53	1
96	114	1
56	56	5
136	154	1
6	19	2
75	83	1
86	95	3
78	88	2
5	13	1
6	7	2
145	154	1
14	14	8
126	142	2
97	121	3
104	116	1
69	74	4
142	142	5
29	29	3
92	92	6
150	150	5
101	115	1
9	9	6
33	39	3
105	113	2
128	139	1
43	44	2
123	124	1
64	69	3
107	119	3
51	57	6
131	132	1
98	99	5
135	135	4
43	43	3
3	5	2
73	84	2
56	66	1
134	134	7
75	94	4
123	139	1
128	128	4
101	102	1
74	83	5
145	145	8
37	37	2
127	150	1
8	15	3
10	11	1
105	105	3
144	144	2
101	113	1
86	86	2
112	141	1
81	99	1
8	37	4
11	15	6
122	138	1
67	68	1
63	63	2
79	99	3
9	32	1
109	125	2
14	22	1
99	99	5
7	8	1
88	91	1
87	92	1
121	121	1
69	69	4
39	39	1
64	64	6
32	33	1
72	73	2
108	113	1
125	125	1
24	29	1
128	144	2
26	30	2
121	145	2
31	34	1
4	4	1
105	119	2
30	43	2
75	85	3
23	23	2
104	105	1
27	41	3
50	53	1
128	142	1
73	73	1
117	118	1
120	135	2
94	100	2
10	16	1
152	153	2
115	115	1
54	54	5
106	119	1
65	86	4
114	114	1
36	36	5
128	143	1
15	15	2
140	151	1
25	42	1
40	40	3
74	74	3
4	7	3
67	80	1
10	10	2
37	38	4
104	104	2
146	146	2
31	33	2
80	80	4
63	66	2
38	38	2
126	126	1
139	146	1
63	80	1
6	6	1
92	108	2
142	151	2
119	138	2
92	93	4
147	147	4
123	123	2
17	19	1
100	112	1
21	21	2
62	65	2
112	112	1
81	103	1
67	72	1
142	148	5
26	44	1
40	47	1
47	47	1
104	117	1
126	151	1
65	65	1
66	82	1
4	23	2
115	116	1
39	67	1
84	100	2
136	149	1
22	23	1
97	97	1
96	116	2
29	56	3
43	45	1
64	76	4
113	113	2
70	70	2
26	28	1
3	24	1
41	55	3
18	19	1
26	27	1
4	5	1
132	147	1
62	62	1
111	112	1
82	87	1
93	93	1
87	97	1
40	42	1
123	140	1
36	64	1
97	122	1
13	13	1
54	56	1
129	148	2
110	112	1
29	45	1
83	93	1
102	110	1
15	39	1
134	141	1
3	3	1
81	81	1
7	7	1
50	64	1
63	74	1
64	77	1
116	116	1
122	124	1
143	143	1
20	21	1
64	67	2
61	81	2
146	147	1
23	35	1
17	17	1
11	120	1
40	46	1
