113	113	5
16	16	3
103	103	2
45	45	6
46	46	8
133	133	4
5	24	4
172	173	1
40	42	4
152	152	3
145	149	1
80	80	2
58	59	2
190	190	3
0	2	4
10	11	2
165	165	3
185	185	3
184	184	11
170	171	8
167	170	1
51	52	4
121	122	5
53	53	9
108	108	2
119	120	1
102	103	2
52	52	3
183	183	6
16	17	1
13	13	6
109	109	3
86	86	3
97	97	6
119	119	2
14	14	2
21	32	4
193	193	6
17	17	1
155	155	8
10	10	3
98	98	2
115	133	1
39	39	4
69	100	2
80	82	1
178	180	3
117	138	4
115	116	7
27	34	1
63	63	2
108	111	1
73	73	2
72	75	2
141	141	8
21	21	3
129	129	2
4	20	3
64	72	3
41	42	2
72	72	1
93	133	1
9	9	4
25	25	9
36	36	2
104	107	2
95	95	2
196	196	4
118	140	3
28	28	1
30	31	3
56	56	3
125	125	5
12	12	5
82	83	1
138	138	3
23	25	3
7	8	3
140	140	2
167	167	2
42	46	1
93	93	1
50	50	1
161	162	1
64	65	1
55	55	1
33	34	3
37	40	3
11	138	1
101	102	1
42	44	2
168	168	4
158	158	1
87	87	6
144	144	6
87	89	3
52	56	2
172	183	2
139	139	1
13	14	5
8	8	7
33	33	5
114	115	6
58	58	1
59	62	1
195	195	2
104	104	4
99	103	2
114	114	7
186	194	2
47	47	6
177	177	2
2	88	2
44	44	3
100	100	2
105	107	2
81	81	2
18	18	2
67	67	3
175	175	1
21	27	2
173	174	1
57	57	6
171	172	6
79	79	2
124	124	3
192	192	5
152	153	2
95	158	1
127	127	2
23	24	1
19	19	3
15	15	8
3	3	2
32	32	4
5	20	1
169	169	3
48	48	5
147	159	1
137	138	2
84	178	3
23	23	5
182	183	1
160	161	1
148	166	2
147	147	2
50	51	2
44	45	3
116	116	2
38	39	1
110	110	3
163	163	2
30	30	3
107	111	1
190	192	1
78	78	2
181	181	4
49	49	3
59	61	2
148	148	1
1	2	2
138	140	2
24	25	4
70	70	2
82	82	6
131	131	1
24	24	2
168	182	3
170	170	1
35	35	2
64	64	2
164	164	1
3	25	4
59	60	2
85	85	1
47	48	2
157	157	2
37	42	2
11	11	2
3	87	1
143	143	4
19	20	1
162	162	2
5	6	2
144	146	1
5	5	2
64	71	1
89	128	1
6	23	1
28	36	1
1	3	4
4	4	1
191	191	4
42	79	1
182	182	2
166	166	1
126	138	2
141	168	2
36	37	1
160	160	1
187	187	2
42	42	1
195	196	1
123	123	2
121	121	1
31	31	2
150	150	4
185	186	1
90	135	2
169	171	2
99	99	3
94	97	1
186	186	1
69	71	2
197	197	1
156	156	1
49	50	1
129	131	1
144	174	1
37	38	2
60	60	1
137	137	1
54	55	2
2	2	1
4	89	1
100	101	1
90	90	3
123	197	1
74	75	2
112	112	1
38	38	1
88	130	1
29	29	1
10	14	2
51	51	1
58	63	1
61	61	1
136	136	2
116	117	1
101	101	2
14	15	1
134	135	1
22	22	1
143	151	2
22	23	2
173	173	1
12	128	1
117	118	2
130	131	1
27	27	2
107	107	1
116	140	2
180	191	1
144	152	1
59	63	1
131	132	1
84	89	1
144	145	1
115	115	1
59	59	2
2	129	1
77	77	1
45	46	1
120	120	1
189	189	1
89	89	1
