112	113	3
133	133	4
120	120	2
16	17	1
24	24	4
84	84	2
75	75	5
37	37	7
35	115	3
22	23	1
124	124	4
25	25	2
111	111	7
20	121	1
90	91	8
127	127	7
1	20	1
3	3	1
99	99	2
125	125	5
34	34	4
4	19	3
136	136	1
87	90	2
18	20	3
30	30	6
28	84	3
118	122	3
130	130	6
114	115	1
26	30	2
78	78	3
135	135	13
138	138	3
34	35	3
113	122	3
36	37	2
3	4	4
32	32	2
23	23	1
77	92	1
28	28	6
74	74	3
7	7	4
12	13	4
94	94	3
30	80	1
131	132	2
104	104	2
120	121	3
132	133	2
109	109	1
31	31	5
11	16	3
1	21	1
140	140	1
99	101	2
120	122	2
22	22	1
131	131	3
139	140	3
132	132	4
128	130	1
44	83	1
29	29	4
33	33	3
103	103	2
8	9	1
100	108	1
12	20	2
98	98	5
137	137	1
23	26	1
27	27	1
72	72	3
116	116	5
24	26	1
139	139	2
28	81	1
85	85	5
73	91	4
108	110	1
37	108	1
101	117	3
20	78	2
128	128	5
13	15	1
0	0	4
112	112	1
10	17	2
1	12	2
105	105	7
73	73	3
134	134	5
100	102	4
94	95	2
119	119	5
9	16	3
4	4	3
106	106	7
24	25	3
13	14	2
18	18	1
5	5	1
6	17	2
1	1	2
10	10	3
135	136	3
87	87	4
15	15	2
113	114	1
81	82	1
8	19	1
110	110	1
117	117	1
103	111	1
75	90	1
115	116	1
19	71	2
8	16	2
66	77	2
29	30	2
2	4	3
104	105	2
126	127	1
68	83	1
99	118	1
126	126	2
2	3	1
76	88	4
21	80	1
107	110	1
101	110	2
97	97	5
73	74	1
81	83	2
36	36	1
9	13	1
11	17	2
96	96	2
83	85	1
80	80	1
20	20	2
71	71	3
6	6	3
99	117	1
35	35	1
76	87	3
129	129	1
26	26	2
71	72	1
27	81	1
124	125	1
2	2	2
78	80	1
21	78	1
108	108	1
102	102	3
76	76	1
28	32	1
18	71	2
121	121	2
14	14	1
81	84	1
12	12	1
99	112	1
71	94	2
79	84	1
5	6	1
30	32	1
10	11	1
123	123	1
92	92	1
28	79	1
81	81	1
66	66	1
79	79	1
86	86	1
89	89	1
13	13	1
