2	2	15
151	151	16
135	135	14
23	23	28
27	28	3
127	140	5
65	85	2
116	122	2
87	152	5
157	157	11
47	47	22
24	24	8
48	48	12
102	102	4
23	36	1
105	108	4
146	146	9
87	87	6
67	67	11
120	120	13
82	82	14
69	155	2
140	140	38
25	25	18
83	85	6
80	80	12
112	112	21
100	100	11
27	27	18
20	20	18
98	103	8
37	37	12
17	18	10
19	19	11
130	130	21
52	118	3
104	140	3
14	55	3
101	101	20
71	155	1
67	71	1
11	12	6
38	38	8
115	116	4
29	47	5
84	84	11
30	33	2
39	41	3
132	132	9
148	148	18
97	97	7
18	18	26
31	31	14
117	117	9
63	112	1
114	114	8
8	10	5
113	124	4
109	109	6
132	133	6
22	22	12
99	100	11
144	150	4
99	99	24
128	128	10
68	70	2
8	8	17
119	119	10
156	156	17
118	123	2
41	41	9
43	43	15
20	23	2
41	42	5
66	66	16
9	83	3
93	94	3
136	137	1
7	7	20
33	33	8
4	4	12
103	103	15
23	26	4
1	1	12
116	116	16
3	62	1
28	28	15
156	158	5
158	159	4
150	150	23
141	142	7
67	154	2
123	124	4
42	71	1
31	32	4
25	30	6
36	47	5
50	51	2
90	103	5
121	121	13
84	88	2
139	139	21
87	89	5
6	6	9
134	135	14
141	156	2
39	39	23
15	15	13
109	112	9
94	95	1
119	122	5
77	77	12
92	96	3
20	21	3
50	50	8
3	3	8
71	71	21
143	143	6
128	129	4
36	45	1
110	110	12
8	9	12
54	54	7
78	78	14
36	55	2
20	41	2
3	26	7
41	55	4
98	98	12
45	45	12
13	13	5
14	44	1
44	44	15
96	97	8
155	155	16
9	9	10
76	77	4
138	138	25
90	91	2
66	67	4
85	86	3
149	149	3
91	92	3
159	159	9
49	49	12
152	152	14
114	115	12
34	54	2
0	0	17
105	105	11
26	26	10
125	125	8
95	97	4
124	124	12
106	108	3
95	95	9
94	94	29
29	36	1
52	53	11
106	106	10
17	17	25
78	79	6
104	106	2
107	107	8
39	40	3
127	148	1
14	14	8
75	75	18
104	104	6
131	131	5
40	100	2
147	147	12
10	10	9
110	111	12
111	111	6
11	40	2
15	21	4
46	46	10
68	68	4
5	5	18
16	16	12
95	96	6
32	32	4
129	129	16
7	30	3
17	53	3
142	154	1
36	46	2
35	36	3
54	57	4
94	146	1
21	22	5
145	146	1
88	88	12
140	141	5
105	114	1
109	110	4
30	30	11
52	52	3
110	137	2
45	46	5
69	70	3
53	54	5
141	155	1
21	21	14
64	64	14
35	38	6
92	92	7
118	139	4
69	71	1
39	132	4
141	141	3
76	76	3
91	91	8
7	8	4
50	52	11
87	88	3
55	55	9
2	128	2
26	28	4
110	112	2
126	126	14
115	115	12
73	73	10
91	104	2
36	36	7
117	124	1
47	80	1
144	144	12
96	96	4
127	127	13
14	151	4
35	46	4
22	79	1
91	120	7
67	68	3
26	43	4
4	47	2
29	29	13
113	113	11
90	90	15
83	83	20
127	154	1
53	90	3
86	86	3
80	81	2
28	99	5
153	153	12
11	11	9
123	123	14
26	27	12
113	134	7
105	110	2
74	74	2
34	35	1
93	137	2
157	158	3
12	153	1
108	110	2
48	49	5
114	134	5
105	127	2
55	56	1
46	56	2
110	114	3
16	17	8
2	23	5
70	71	3
134	134	12
125	126	8
89	89	7
4	6	4
17	52	2
94	138	2
131	133	2
97	111	2
151	154	1
92	121	4
16	18	3
67	86	3
121	122	2
3	4	2
48	81	2
94	101	2
139	140	5
63	63	2
73	127	2
92	137	3
152	153	2
0	1	7
2	100	1
100	101	2
121	123	1
42	43	2
3	28	1
9	15	2
138	139	5
7	11	1
77	79	7
117	118	4
56	87	1
151	152	5
122	122	10
75	77	5
8	84	1
153	157	4
79	82	1
144	147	2
22	24	1
42	70	3
42	42	9
29	30	5
135	136	1
2	39	5
117	123	3
12	12	9
28	29	5
48	66	3
120	121	2
77	78	4
118	120	7
148	149	2
49	50	5
13	106	6
32	46	2
50	81	3
118	119	3
51	51	6
113	114	4
39	43	1
87	115	1
139	151	5
84	85	1
131	132	2
9	10	10
40	40	14
18	93	1
57	57	1
154	154	5
91	102	1
67	69	3
123	136	3
158	158	5
51	53	2
34	34	5
127	128	3
65	65	6
30	31	4
154	157	2
122	125	2
35	48	2
129	131	1
68	69	3
79	81	2
86	87	2
33	85	2
104	129	2
70	70	6
15	17	2
97	145	2
89	94	3
145	145	3
14	36	2
32	69	1
12	29	1
103	104	2
121	148	1
21	130	1
67	70	2
27	30	3
30	35	2
83	153	1
133	133	5
96	114	1
36	38	2
53	53	5
5	6	2
129	130	5
19	117	2
156	157	2
93	93	3
142	142	5
144	145	2
101	130	1
54	55	2
75	76	2
24	109	1
81	82	3
24	37	1
33	34	1
69	69	4
56	56	4
97	142	1
98	124	2
5	47	1
153	156	1
62	68	2
2	4	3
8	17	3
116	117	1
3	63	2
82	83	4
19	20	3
140	147	1
130	131	3
26	106	1
18	40	2
48	83	1
47	55	1
104	133	3
128	141	1
66	69	3
109	115	1
107	109	2
71	158	1
142	144	2
120	139	1
1	44	1
52	90	1
124	125	3
128	130	1
70	154	2
7	20	2
90	149	2
104	131	4
137	137	4
11	52	2
12	41	1
12	13	9
72	155	3
27	66	1
95	98	2
46	61	2
26	29	1
137	139	1
122	135	3
46	49	2
45	47	2
143	148	1
88	89	7
91	103	1
15	148	1
10	18	1
9	86	4
40	41	3
32	67	4
85	85	3
92	135	2
87	116	2
27	32	4
13	14	1
22	23	5
9	95	1
24	25	2
107	123	1
142	145	1
78	81	1
105	111	6
92	95	3
115	133	1
38	55	2
4	45	2
35	35	5
91	94	1
45	57	2
40	84	4
130	152	1
50	55	1
136	136	2
137	138	2
47	64	1
72	72	4
97	102	1
79	79	3
108	109	2
81	81	2
106	114	1
118	118	2
47	48	1
65	66	1
21	36	1
47	50	4
19	125	3
1	26	2
65	72	2
39	127	3
78	80	1
111	127	1
70	155	2
112	113	1
2	129	1
92	93	1
44	47	1
90	93	1
122	139	1
38	39	2
92	94	1
137	140	2
15	16	2
155	157	1
66	70	1
108	108	3
23	24	2
51	52	1
0	4	1
8	96	1
124	139	4
66	127	1
142	143	1
98	99	3
25	26	1
124	126	2
44	45	3
25	27	1
63	65	2
9	11	3
20	110	1
13	37	1
122	123	1
155	156	2
8	88	2
15	53	1
24	111	1
34	85	1
63	67	2
90	147	1
43	54	1
95	144	1
119	137	1
9	16	2
29	141	1
146	148	2
80	82	1
113	135	1
25	89	1
97	112	1
31	33	1
95	146	1
31	34	1
103	116	1
118	137	1
133	134	3
55	57	1
18	126	1
87	90	1
57	89	2
11	82	2
54	56	1
8	81	2
132	134	1
52	54	1
35	55	1
72	105	1
79	80	1
73	75	1
65	138	1
62	135	1
23	126	1
92	136	1
2	3	2
43	70	1
66	151	1
115	122	1
31	53	1
20	116	1
2	30	1
17	20	2
117	122	2
32	83	1
117	135	1
4	158	1
99	102	1
103	130	1
155	159	1
32	142	1
6	26	1
7	93	1
98	141	1
114	135	1
93	95	1
83	84	1
