77	100	6
148	149	8
109	109	18
74	145	2
24	24	19
57	155	2
144	144	22
107	107	16
116	116	29
141	141	16
54	54	19
76	76	24
71	71	14
33	33	14
142	143	8
37	37	16
171	171	12
128	152	2
57	66	4
104	105	4
53	54	7
18	18	23
164	165	9
147	147	20
17	17	21
58	58	17
126	126	17
32	32	13
25	114	5
22	22	40
78	78	34
133	133	12
166	166	17
63	64	6
151	151	13
114	114	20
93	93	18
130	130	25
82	82	37
84	84	28
163	163	20
118	118	14
159	159	9
148	148	17
19	109	4
123	123	14
59	59	11
72	72	8
16	16	8
145	145	14
97	98	14
134	134	14
68	78	1
187	187	15
175	175	16
17	115	4
90	164	2
40	40	31
152	153	9
115	117	3
45	47	4
71	141	3
77	77	21
21	21	21
57	57	1
0	14	4
99	99	16
86	87	2
3	6	2
73	73	20
60	61	6
150	150	17
105	145	3
85	86	4
121	121	21
170	170	12
56	57	8
160	161	7
47	101	4
27	27	15
84	85	6
122	122	16
25	25	18
88	102	1
56	56	25
70	71	8
10	10	20
84	172	3
12	14	4
12	12	15
152	152	18
136	136	12
80	81	5
18	19	12
24	45	4
6	6	16
163	164	12
115	115	19
113	113	25
154	154	15
3	7	3
26	26	20
111	114	2
111	111	4
98	98	13
128	128	12
52	53	6
20	154	5
100	100	14
117	121	1
136	139	5
113	114	8
186	186	16
154	155	9
79	79	26
84	169	1
183	183	14
130	131	11
91	92	3
158	158	25
44	46	3
35	36	3
80	85	4
13	19	3
7	7	12
81	81	10
89	89	23
83	83	22
149	149	25
53	103	3
156	158	3
114	149	4
63	67	3
58	59	9
155	155	18
90	90	7
89	164	5
0	4	3
23	23	28
181	181	17
46	46	6
124	124	8
42	42	22
141	142	4
107	110	1
22	26	2
165	165	17
149	150	7
86	86	12
82	104	2
94	95	6
20	24	4
110	111	4
87	87	14
48	48	14
67	76	5
32	36	1
39	39	13
96	96	19
69	69	2
15	46	2
180	181	10
119	119	7
123	125	7
153	153	12
74	74	24
31	31	11
34	36	3
164	164	9
14	36	2
96	97	8
131	132	8
47	47	12
133	134	3
147	148	3
95	96	7
5	5	9
167	167	19
102	102	18
139	141	4
172	172	13
29	29	12
60	63	5
47	48	12
105	105	18
93	94	9
33	34	5
102	103	12
127	127	12
76	77	2
79	80	4
141	146	3
117	117	15
64	64	16
184	184	8
188	188	11
63	63	12
45	45	12
81	104	4
19	19	13
106	106	21
3	3	16
176	176	15
126	127	7
83	183	1
173	173	15
18	24	2
174	174	16
98	126	2
182	182	8
177	177	25
85	85	15
184	186	5
12	45	4
91	129	1
117	118	5
11	14	9
36	37	9
120	121	6
43	102	2
28	28	10
175	176	4
65	68	3
38	38	10
13	45	2
142	142	15
56	62	4
73	74	11
68	70	3
172	173	9
4	4	14
79	84	3
95	126	4
168	168	29
178	178	9
82	171	1
156	162	2
99	100	12
65	66	7
62	67	1
175	178	1
140	140	10
94	94	16
21	22	7
87	88	6
171	172	8
135	135	18
67	68	2
185	185	16
53	104	1
180	180	17
78	105	6
36	36	19
159	160	17
44	44	22
55	55	19
179	179	16
125	126	4
60	64	5
8	8	8
53	53	15
20	20	11
72	92	2
65	65	6
72	146	1
9	9	10
16	17	11
106	107	3
43	44	11
17	75	2
119	122	2
152	154	1
71	90	5
78	104	2
19	20	9
35	35	18
43	43	13
10	12	5
173	174	6
91	91	9
156	156	14
61	61	6
60	60	12
132	137	1
178	180	2
11	46	1
139	139	31
91	99	1
16	25	2
6	108	4
92	93	11
39	62	3
11	13	10
103	104	5
23	24	13
79	137	2
17	151	2
30	31	2
34	34	14
134	135	8
46	48	5
190	190	7
125	125	19
124	126	3
166	167	9
143	144	17
30	30	7
100	140	2
64	65	6
74	146	3
1	2	2
137	137	14
26	27	5
4	110	1
116	120	3
0	1	6
160	160	9
136	137	1
64	68	1
189	189	13
133	135	5
161	161	8
72	81	2
63	96	2
41	46	2
169	169	11
135	136	6
68	68	18
174	175	4
130	132	2
77	78	14
25	29	7
65	67	4
118	119	9
58	62	2
114	115	5
61	122	1
77	85	3
95	95	15
88	88	17
184	185	7
112	112	13
70	70	10
67	67	10
162	163	6
80	112	2
97	97	10
173	179	5
92	92	14
48	49	3
30	37	2
103	103	15
147	150	1
2	3	4
162	162	13
46	47	3
75	76	5
146	146	3
41	41	14
162	190	4
38	39	7
165	166	2
119	132	1
84	184	1
18	75	1
18	23	3
173	177	6
74	75	5
132	133	8
4	8	3
25	26	1
157	158	2
88	89	2
75	75	16
116	119	1
14	15	4
15	16	7
126	158	3
52	52	10
66	66	15
48	103	4
90	91	4
77	99	3
80	80	14
139	140	8
176	177	6
132	132	5
167	170	2
61	62	10
128	134	3
157	157	10
144	147	7
76	88	1
72	73	5
6	7	7
66	70	1
104	130	1
20	21	7
166	169	4
140	141	7
91	167	7
131	131	11
62	63	9
121	122	3
74	100	2
101	103	4
83	185	2
79	106	2
187	189	4
15	15	12
131	136	2
161	190	5
15	22	4
7	8	1
143	143	21
87	123	1
27	54	6
127	128	5
56	71	1
62	118	2
102	144	2
1	1	4
6	122	2
110	110	11
77	123	8
57	165	2
167	168	2
0	5	2
77	86	2
53	73	2
60	132	1
63	123	3
77	125	2
70	79	4
101	101	3
72	140	5
55	73	2
81	82	6
105	106	4
13	15	4
88	135	3
180	182	1
93	100	1
131	133	3
12	46	3
9	10	5
62	141	2
14	14	16
0	0	10
85	172	2
189	190	2
132	147	3
105	107	1
4	111	3
13	16	3
164	166	3
78	135	5
44	47	1
71	73	1
116	118	3
20	109	2
182	184	2
75	106	2
169	170	7
120	120	12
95	97	1
34	35	10
56	165	1
135	137	3
101	141	1
88	177	2
84	182	1
61	144	2
146	147	4
19	154	3
118	132	1
168	169	1
82	111	1
75	151	1
25	112	1
98	99	1
137	139	7
128	129	2
27	28	4
116	117	2
21	111	1
31	34	1
56	123	1
10	16	4
71	79	1
71	77	4
82	167	2
108	108	11
179	180	1
104	104	8
151	152	1
100	137	1
131	135	3
97	136	1
2	2	4
46	49	2
73	146	2
72	74	3
153	154	3
139	144	2
68	76	1
76	146	1
88	157	1
45	46	7
81	85	3
138	139	7
115	116	2
154	156	1
135	143	4
10	11	6
72	141	4
52	122	3
88	97	1
59	150	2
148	150	2
81	83	2
158	159	2
181	182	6
24	47	3
54	55	6
8	108	2
79	100	8
55	56	1
119	130	1
90	165	2
31	32	7
133	137	2
62	62	9
53	76	2
54	71	2
101	102	4
138	138	16
146	150	1
61	63	1
89	165	2
185	186	4
169	171	4
102	123	2
27	32	3
27	29	4
40	41	4
83	110	4
45	48	1
116	148	1
188	189	1
77	122	2
4	126	1
137	140	1
182	183	3
172	174	1
13	14	1
129	130	3
6	13	2
135	144	2
129	129	5
166	168	1
29	30	1
145	148	1
119	120	2
10	110	1
14	46	2
183	184	6
85	124	1
43	45	3
48	76	1
82	102	1
77	95	1
156	157	2
13	13	4
11	11	5
105	118	1
63	68	1
70	163	1
70	137	1
59	60	3
155	156	3
158	160	3
98	127	1
4	7	4
17	24	2
16	26	3
74	76	2
120	122	1
112	116	1
63	65	2
78	137	2
21	154	1
18	150	3
122	123	1
14	21	1
28	29	5
54	76	1
0	84	2
137	142	1
83	85	2
13	21	1
75	78	1
70	162	3
170	171	1
12	13	2
96	101	1
31	35	1
106	121	2
42	43	6
169	173	1
32	35	3
108	109	2
61	96	1
126	157	3
27	33	1
26	29	3
161	180	1
60	120	1
56	70	2
137	138	3
24	25	2
109	110	1
186	188	1
14	45	1
159	161	1
116	121	2
31	46	2
163	187	1
64	94	4
80	117	1
100	129	1
71	163	2
78	79	2
84	124	2
37	58	2
112	114	3
145	150	2
25	113	1
66	67	2
38	57	1
170	182	1
169	172	2
86	137	1
178	179	4
153	158	1
11	12	3
9	41	2
79	104	2
118	148	3
59	63	2
55	74	1
80	83	2
161	162	1
62	151	1
125	127	2
165	180	1
89	90	1
18	27	1
177	178	2
140	142	1
173	183	1
42	44	2
13	110	2
95	98	1
11	15	1
2	128	1
111	112	3
37	38	3
17	20	1
82	83	2
187	188	1
66	156	1
85	87	2
64	118	1
36	59	2
57	58	1
106	157	2
88	136	1
41	47	1
92	133	1
71	76	2
48	102	1
15	24	1
126	153	1
12	20	1
20	22	3
107	159	1
136	138	1
147	149	1
73	147	1
188	190	1
150	151	3
27	30	1
79	117	1
80	115	1
23	45	1
156	159	1
69	162	1
94	96	3
30	32	1
107	108	1
80	86	1
144	145	1
77	102	1
119	133	1
98	101	1
7	110	1
110	114	1
72	143	1
86	173	1
118	121	1
71	91	1
107	124	1
73	144	1
84	123	1
42	99	1
33	35	1
83	84	1
57	68	1
116	122	1
109	128	1
130	134	1
75	146	1
89	97	1
68	69	1
161	166	1
109	153	1
93	168	1
54	103	1
76	78	1
59	154	1
96	98	1
73	100	1
