95	95	17
65	65	3
88	88	18
70	70	5
18	18	10
71	75	2
62	62	16
0	0	4
47	47	11
97	97	8
120	120	12
48	62	2
4	4	7
4	13	2
41	41	3
105	105	11
67	67	4
23	23	13
49	49	12
59	59	2
122	122	3
71	71	11
83	96	3
70	99	5
32	33	8
5	129	3
111	111	7
93	93	10
60	60	2
54	55	6
82	82	4
91	91	7
7	20	1
59	62	4
80	96	3
105	106	4
25	25	9
78	81	3
82	87	4
96	96	11
124	124	9
54	54	4
4	14	2
125	125	5
114	115	7
32	32	8
30	31	1
18	29	8
132	132	3
112	112	17
30	30	9
44	44	8
107	107	4
24	25	2
106	106	5
28	29	4
44	45	3
64	64	6
16	16	9
12	12	16
76	76	6
15	15	6
114	114	5
70	71	6
93	94	4
84	84	15
53	53	9
79	79	10
45	45	12
43	43	7
72	127	1
81	81	11
56	56	11
58	64	4
78	78	12
109	109	3
108	108	3
108	109	9
83	113	3
52	52	9
84	88	3
88	89	7
83	83	15
9	38	3
131	131	9
26	26	7
57	57	7
34	34	6
56	57	1
109	110	8
63	63	5
41	42	4
20	21	6
130	130	5
127	127	4
2	2	6
119	119	4
116	116	10
51	51	4
61	61	3
115	116	1
5	16	1
85	85	9
28	28	12
8	9	4
110	110	8
4	6	3
42	42	8
89	89	7
103	103	1
49	51	2
68	68	8
40	40	5
39	40	3
72	72	7
129	130	5
27	27	9
70	80	5
100	100	3
42	43	2
117	120	4
18	25	6
50	50	10
43	93	6
3	3	1
21	21	3
110	111	5
121	125	3
69	69	8
18	19	4
123	123	5
92	92	5
59	61	1
58	58	7
7	18	7
17	17	8
122	123	2
71	72	2
5	13	4
4	131	2
99	99	9
31	67	4
31	32	2
31	31	7
18	27	2
104	104	7
20	20	11
121	121	13
55	65	1
6	123	1
90	93	2
94	95	4
75	75	7
30	54	2
63	64	4
19	19	3
1	1	4
11	130	2
29	29	4
22	22	4
17	18	2
13	131	1
102	102	3
19	20	2
104	105	1
100	114	2
69	77	4
72	73	4
117	117	3
67	68	4
113	113	5
6	122	2
54	65	2
69	70	2
96	118	4
55	56	2
46	48	2
13	13	8
81	82	2
66	66	3
94	94	3
5	5	5
80	83	3
7	19	2
33	33	7
106	133	3
6	6	6
101	101	5
77	115	2
41	89	2
83	95	2
50	51	1
97	98	5
101	104	6
77	77	7
52	53	3
23	24	4
32	39	4
79	80	1
43	45	1
84	89	1
10	31	3
113	114	2
85	95	4
13	124	2
71	80	1
3	132	4
10	16	4
90	92	1
9	9	2
63	65	3
109	111	5
49	52	1
42	90	5
82	83	2
89	91	1
128	131	2
77	96	1
39	39	2
46	47	1
10	10	1
77	80	3
78	79	2
103	127	2
45	46	1
73	73	1
89	117	2
120	121	1
56	63	1
62	63	2
8	8	1
41	43	2
55	63	1
47	48	1
116	117	3
82	84	2
56	58	2
83	85	1
80	80	4
15	28	1
11	11	3
57	58	1
46	46	3
21	25	1
69	97	1
33	66	1
89	90	1
10	73	1
9	23	1
100	101	1
26	27	1
76	117	4
121	122	1
3	15	1
13	128	1
62	64	1
71	100	1
2	3	2
10	72	1
124	131	2
111	112	1
12	13	1
129	129	2
46	68	1
119	120	2
128	128	1
88	91	1
14	15	1
68	71	2
92	93	1
55	55	2
43	44	2
7	30	1
53	54	1
15	16	1
80	81	1
64	65	1
22	25	1
1	2	1
82	113	1
9	10	1
102	106	1
73	74	1
101	102	1
107	111	1
74	74	1
