133	133	7
36	47	1
78	78	6
69	69	4
95	95	12
38	39	5
146	146	4
57	57	5
45	45	14
131	131	10
8	8	15
98	98	11
48	49	1
124	128	2
50	50	5
150	151	3
77	107	6
139	147	3
149	149	12
96	96	15
77	77	9
43	45	5
141	141	9
37	38	5
75	75	24
69	82	3
30	49	4
124	125	2
27	27	14
46	50	2
64	65	3
150	150	9
47	47	12
102	104	5
6	7	2
98	113	2
20	87	3
112	112	6
18	18	9
129	129	5
86	86	5
26	29	3
97	97	4
127	127	10
8	22	5
23	23	13
93	93	11
41	42	2
17	31	5
108	108	13
25	44	3
102	102	12
119	119	9
10	15	10
84	84	7
29	32	8
13	13	15
29	112	8
104	104	8
36	36	8
73	75	1
71	77	3
27	111	1
150	153	2
120	120	9
85	85	4
106	121	3
35	36	9
154	154	2
112	113	1
84	95	6
145	149	2
135	135	5
10	10	12
143	143	11
122	122	12
3	6	5
121	121	13
99	100	2
24	25	5
43	43	6
123	133	4
69	78	1
49	49	5
30	128	2
48	122	4
43	51	5
76	77	1
123	125	10
75	86	7
26	115	2
82	82	8
128	128	4
107	107	3
117	117	8
4	4	2
117	153	3
9	10	6
111	112	2
99	99	3
34	56	5
134	134	12
44	44	17
113	118	2
144	146	1
29	42	3
14	14	9
114	130	5
116	154	3
103	109	5
147	147	12
50	51	3
67	67	7
81	81	8
62	65	8
15	15	14
116	116	11
19	123	4
3	3	8
32	128	3
83	83	8
94	95	11
107	108	7
145	145	3
139	139	16
88	92	3
137	145	4
63	64	7
63	63	12
31	41	2
35	35	2
144	144	3
40	40	8
26	27	3
132	132	7
63	68	2
26	38	5
70	70	12
146	148	2
66	73	3
51	51	5
104	118	1
79	79	6
20	20	6
92	92	12
121	122	2
10	19	1
4	5	3
110	113	6
25	25	16
113	113	9
153	153	5
64	64	6
103	103	3
33	33	8
110	122	2
140	142	7
123	123	16
103	104	4
53	54	4
40	48	1
82	96	5
20	21	5
110	114	5
52	52	5
34	50	1
13	14	5
5	28	5
11	11	10
84	85	2
120	121	10
136	137	8
94	94	3
21	23	2
103	107	5
118	118	3
137	137	8
64	75	2
51	114	2
29	111	7
48	48	18
106	106	9
28	31	2
115	128	5
26	26	12
47	123	4
20	25	2
6	8	2
124	124	7
39	39	8
153	154	2
11	34	1
116	117	1
110	110	13
142	142	8
41	41	8
5	5	9
87	87	3
21	21	8
77	104	4
30	112	1
123	152	4
105	106	3
93	96	1
19	107	2
88	124	2
19	21	2
113	115	3
56	56	5
130	130	7
70	71	4
114	114	5
127	129	2
111	120	4
77	78	4
16	16	4
30	30	10
3	14	1
37	37	4
108	110	3
30	67	9
44	55	3
147	148	11
29	53	7
78	83	2
14	15	2
53	53	6
9	9	4
5	20	5
142	143	5
31	100	1
96	98	3
5	105	1
87	95	4
42	53	3
31	32	3
103	117	2
127	128	1
115	116	3
75	77	5
101	102	3
115	115	10
75	76	4
83	84	2
100	110	3
97	114	3
89	89	2
114	116	11
21	22	3
136	136	2
144	145	3
43	55	4
46	48	3
43	52	3
34	126	3
132	143	3
74	74	7
34	34	5
80	80	3
123	138	1
140	141	5
5	7	2
115	117	3
123	126	3
72	72	6
111	111	3
151	151	7
6	6	4
109	109	4
55	55	2
80	81	7
47	48	2
28	107	1
42	51	4
19	19	6
54	56	5
18	19	4
111	124	3
51	69	1
56	58	1
125	125	12
125	136	2
132	134	3
24	24	14
146	150	3
56	57	4
87	88	4
122	123	1
64	79	2
26	33	2
90	92	2
139	141	8
131	141	3
14	21	7
71	72	4
137	146	1
42	42	8
32	32	5
71	71	8
51	55	2
4	19	1
70	79	2
31	31	4
63	65	2
24	46	5
140	140	4
28	28	8
128	134	2
118	119	5
45	47	4
121	129	1
78	81	1
11	126	3
91	109	2
123	144	2
16	17	3
8	21	4
6	9	3
85	87	3
102	103	2
20	88	1
2	2	2
139	140	2
80	96	1
31	113	2
98	114	1
84	87	4
38	38	3
53	55	4
97	101	4
131	143	2
30	113	4
45	46	2
76	79	1
127	139	1
48	50	4
130	140	3
114	123	2
7	7	7
66	66	4
66	95	1
73	101	2
144	148	1
50	55	5
121	138	1
109	113	1
6	19	1
35	37	3
7	30	2
30	38	2
67	127	2
81	99	6
131	142	3
39	40	3
40	41	2
138	138	5
77	92	1
126	137	3
99	107	1
117	118	2
67	68	2
85	132	2
73	76	1
101	108	5
113	116	1
61	61	1
138	139	2
19	29	2
85	86	5
22	22	3
141	154	1
98	99	2
109	111	5
152	153	7
23	38	2
100	100	4
148	148	1
110	111	2
147	151	1
43	44	1
101	101	4
87	142	3
2	3	4
96	97	1
135	148	1
144	147	2
65	65	1
23	24	3
92	93	1
117	141	2
31	42	6
73	85	1
29	29	3
113	123	1
132	135	2
105	110	1
3	4	3
21	28	1
134	135	1
148	149	1
33	44	1
30	123	2
90	136	2
28	29	5
129	144	1
58	58	2
101	117	3
10	11	3
12	16	1
122	152	2
130	135	4
67	69	4
81	85	1
94	116	2
61	65	1
83	98	2
50	58	1
95	132	1
81	82	2
109	119	1
94	96	1
17	19	2
26	36	1
44	124	1
115	127	1
94	108	2
46	46	2
30	129	2
129	130	1
84	93	2
3	9	1
117	121	1
90	138	3
51	129	1
105	108	3
72	73	4
26	122	1
15	17	3
104	108	1
79	80	3
123	124	1
27	29	2
97	100	3
37	39	1
8	10	1
33	34	3
130	131	1
29	108	1
131	133	1
24	44	2
68	68	1
132	144	2
148	150	1
112	114	3
17	17	2
49	112	1
15	16	1
49	51	3
110	115	1
18	42	1
79	82	1
138	144	1
20	24	2
145	146	2
39	47	1
36	39	2
78	92	1
75	81	1
71	99	2
6	122	1
113	114	2
73	77	2
62	70	1
106	108	1
83	93	1
43	53	1
101	118	2
42	43	1
86	87	1
145	151	1
85	140	1
11	22	1
134	143	1
10	24	1
18	124	1
7	8	1
145	154	1
11	16	1
149	150	2
136	138	1
147	152	1
72	86	2
73	73	1
105	105	1
69	92	1
76	76	1
25	26	1
148	152	1
95	131	1
36	45	1
48	117	1
73	74	1
80	82	1
