56	56	15
65	67	7
30	98	2
52	52	16
31	31	11
24	25	18
32	32	2
44	73	6
64	64	30
46	46	9
35	36	4
83	83	32
76	76	20
71	71	36
73	74	5
86	87	11
97	97	12
79	79	27
54	54	6
76	77	5
83	93	2
66	66	40
29	87	6
66	67	11
75	75	30
85	85	35
79	80	14
78	78	39
70	71	2
35	35	5
91	93	8
23	23	11
26	26	16
93	94	6
34	34	11
77	77	22
53	53	14
74	75	12
43	68	4
80	80	23
63	63	54
53	55	5
75	76	7
36	37	7
41	41	25
89	89	20
81	81	33
68	68	19
45	45	17
67	67	33
25	81	5
48	48	7
52	55	5
88	89	12
50	50	14
42	42	23
62	63	4
25	25	7
33	33	12
58	58	4
23	34	3
72	72	29
34	96	3
99	99	10
91	91	13
81	82	7
48	54	3
22	25	2
73	73	15
68	69	5
69	69	29
31	99	1
86	86	27
43	43	7
99	100	4
49	49	5
65	65	28
95	101	3
24	24	8
48	50	2
87	101	2
95	97	10
44	68	3
62	62	26
34	36	7
52	56	1
27	27	14
84	84	8
80	81	14
37	37	22
82	82	18
57	57	20
88	88	24
65	66	14
77	79	6
100	100	11
47	47	14
47	53	5
70	70	20
96	97	2
55	55	21
85	86	3
45	49	2
22	22	15
61	61	19
67	68	12
45	50	1
43	76	4
87	87	13
94	94	8
82	84	6
34	47	3
83	89	1
29	29	7
101	101	9
26	27	6
58	64	4
74	74	36
101	102	3
25	83	3
70	73	2
77	78	11
44	67	3
51	79	2
65	78	1
44	44	14
81	87	2
57	59	2
56	57	6
94	97	1
92	92	11
34	39	8
52	85	2
88	92	6
59	59	15
29	96	2
55	56	2
40	40	18
30	42	3
41	42	7
22	63	1
69	71	2
81	90	2
78	85	2
87	88	4
38	38	14
67	77	8
36	52	5
94	98	3
82	88	3
92	93	5
39	39	17
35	37	3
70	74	1
50	54	1
51	51	6
54	55	8
52	53	3
96	96	5
64	89	4
52	80	1
51	61	2
32	38	3
49	50	10
54	79	8
52	61	2
63	64	9
22	38	1
77	84	6
20	22	3
60	61	4
95	100	3
53	56	3
51	58	1
69	70	1
102	102	3
35	52	6
60	60	5
31	52	1
61	62	1
38	81	1
84	86	5
80	83	4
40	43	3
37	40	4
36	36	14
20	25	5
29	76	1
36	38	5
89	90	3
98	98	3
25	34	5
25	62	1
79	82	3
64	65	5
45	52	2
60	83	3
30	43	3
70	72	2
27	28	7
45	48	1
40	42	1
35	39	2
93	93	11
84	87	3
100	101	3
91	92	3
46	47	4
30	30	3
63	65	3
23	25	5
28	29	2
39	79	1
26	79	1
41	74	1
95	95	8
59	63	1
59	85	1
43	63	2
64	90	2
34	40	1
47	54	1
28	28	8
80	84	1
40	59	1
49	91	2
82	93	1
97	99	4
39	42	1
46	50	1
95	96	1
89	93	1
50	51	2
85	90	1
47	49	1
50	59	1
79	83	2
35	70	2
29	86	1
40	41	2
41	45	3
96	99	2
25	78	2
45	63	2
50	56	2
74	78	2
48	53	3
95	98	1
53	62	1
66	68	1
48	64	2
29	99	1
47	48	2
89	91	1
35	51	2
33	38	2
32	39	1
94	96	2
77	85	2
45	76	1
71	72	1
56	88	1
40	75	2
23	24	1
79	88	1
77	81	1
23	44	1
29	88	1
68	74	1
49	56	1
66	75	1
34	45	1
33	34	1
60	84	1
58	59	2
89	96	1
40	50	1
80	87	1
30	95	1
82	87	1
93	100	1
37	47	1
66	78	1
56	59	1
45	47	2
49	62	1
64	76	1
85	88	1
51	60	1
34	62	2
26	86	1
63	74	1
29	63	1
53	54	1
66	86	1
51	52	1
83	85	1
32	45	1
40	51	3
76	98	1
