85	85	13
48	49	5
91	104	2
42	42	3
37	37	6
69	70	4
65	65	8
51	51	7
76	76	7
79	79	13
56	58	2
68	70	5
54	55	6
32	32	8
45	50	2
47	47	8
103	103	9
26	27	9
75	75	10
68	95	6
95	95	17
97	97	12
93	94	7
59	59	3
33	33	7
100	101	15
79	103	7
82	83	2
62	62	9
79	107	1
74	75	1
26	31	1
29	29	13
70	78	6
113	113	9
91	91	9
112	112	9
30	59	4
52	52	6
101	101	10
36	37	6
78	78	4
80	80	6
85	99	1
22	22	4
24	24	10
106	106	6
100	100	5
37	38	14
84	84	7
38	39	4
107	107	8
73	73	11
60	60	5
87	87	5
57	58	3
83	83	4
59	60	1
44	44	10
99	99	15
51	64	5
40	40	7
61	62	5
60	62	2
90	113	6
44	45	11
69	92	1
109	109	9
77	77	7
80	90	5
71	74	8
86	87	6
63	63	14
42	43	2
94	95	3
88	89	10
47	48	6
59	62	3
111	111	9
110	110	7
46	46	8
78	107	3
71	73	7
92	92	5
87	90	1
88	88	2
99	100	3
39	40	4
58	59	1
68	69	14
36	38	3
49	49	3
70	109	1
96	96	7
41	41	5
56	62	1
89	89	4
28	29	1
114	114	14
28	28	6
20	22	1
96	100	5
38	48	5
108	111	3
112	114	2
81	81	6
66	103	1
98	98	7
23	59	2
35	35	3
63	64	1
94	94	9
31	31	9
29	47	2
75	110	1
76	108	1
66	79	3
58	58	6
104	107	3
101	102	2
97	102	3
87	89	4
83	84	6
19	20	5
25	25	6
73	110	1
104	105	1
56	71	2
53	53	4
67	67	5
74	74	2
69	69	14
68	68	7
80	113	1
54	58	2
56	57	8
106	109	2
48	48	4
95	98	5
105	105	9
21	21	2
82	82	6
30	31	3
53	54	1
71	71	6
64	64	9
70	70	1
72	72	7
24	25	3
72	76	1
45	46	1
27	27	4
70	73	2
30	30	5
24	31	1
67	72	2
27	28	2
80	81	4
31	32	2
39	41	3
86	86	9
104	104	7
80	83	1
81	87	2
36	36	1
64	73	2
57	59	2
59	64	1
60	64	2
61	61	5
81	82	1
19	19	1
95	97	2
97	98	1
23	24	2
81	91	1
56	72	3
115	115	1
45	45	7
111	112	2
70	71	3
34	34	5
24	28	1
69	103	1
102	103	1
92	104	2
79	111	2
102	102	1
63	66	1
37	49	2
104	109	1
92	94	3
108	108	5
50	95	1
34	58	3
54	54	1
95	102	1
52	96	2
22	23	2
90	103	1
21	26	2
63	67	1
93	93	1
20	20	3
50	50	2
57	57	2
36	50	1
81	88	2
78	104	2
65	66	1
71	76	2
26	28	2
62	71	1
29	30	2
21	22	1
94	102	1
67	69	1
23	23	1
67	68	1
25	27	1
35	54	1
26	26	3
55	71	1
90	90	3
62	63	1
43	43	3
75	76	1
68	94	1
68	93	1
96	97	2
32	33	1
105	106	1
34	35	1
65	67	2
36	55	1
109	110	1
113	114	1
54	56	2
66	70	1
30	34	1
51	52	1
79	80	1
36	49	1
