14	14	13
97	97	7
22	23	2
84	84	15
108	108	22
110	110	4
78	78	10
17	19	2
41	41	9
65	66	5
129	129	4
105	106	3
59	59	7
31	31	6
111	111	9
89	93	4
96	96	8
104	104	5
103	110	2
59	62	2
85	85	11
34	34	7
98	98	6
4	5	4
118	118	15
24	24	13
63	63	3
90	90	2
86	87	3
57	76	5
12	12	5
20	20	6
18	18	12
6	6	9
91	92	2
77	78	3
22	22	6
61	61	10
131	131	2
44	45	2
13	115	5
70	71	1
25	25	6
15	15	14
113	113	9
8	9	8
93	93	8
74	75	6
116	117	3
66	69	2
58	62	4
62	122	1
103	103	10
112	113	3
3	3	8
60	60	3
63	64	2
112	112	11
13	14	11
82	83	7
47	47	16
79	80	7
87	87	3
9	9	7
0	0	4
26	27	8
58	58	4
6	7	3
2	2	12
17	33	2
120	120	6
76	77	4
46	46	6
128	128	16
125	125	8
130	131	12
37	37	10
61	119	1
44	44	10
109	109	7
105	109	4
32	34	3
123	123	11
3	11	7
36	37	6
126	128	3
26	87	5
99	99	10
133	133	4
78	133	2
67	68	3
54	55	4
72	72	20
99	100	5
12	113	4
42	43	1
76	76	18
12	13	3
11	11	6
18	57	2
80	80	6
48	49	3
27	27	2
124	124	9
83	84	1
5	5	8
34	35	2
75	75	7
131	133	7
35	35	1
29	29	6
15	116	3
109	110	3
93	106	2
93	94	7
131	132	9
123	127	2
79	79	5
94	111	1
45	45	18
41	42	3
119	119	5
17	17	6
16	16	8
93	111	1
130	130	3
122	122	4
16	59	3
77	77	4
15	16	2
36	36	5
83	83	2
105	105	5
99	110	1
121	121	4
100	101	5
33	111	2
32	33	1
43	43	4
86	86	2
69	70	2
19	19	13
34	112	3
65	65	8
33	33	7
78	122	3
73	74	3
10	10	3
60	69	1
20	24	1
78	126	3
40	41	9
8	8	9
69	69	2
121	122	2
64	64	8
75	76	2
107	107	2
23	23	7
99	104	2
124	128	2
31	101	5
59	74	2
74	74	5
94	95	2
126	126	3
123	129	3
13	13	11
57	57	15
82	82	8
17	34	3
34	119	3
3	4	8
56	57	1
6	38	2
134	134	6
30	134	3
66	66	3
1	1	3
102	133	1
15	58	2
84	85	3
95	95	5
111	112	2
122	125	1
81	81	3
23	24	2
29	133	4
28	28	3
21	21	3
105	108	2
66	68	4
94	108	3
107	108	8
97	98	3
22	24	2
39	39	5
78	123	1
20	93	1
79	126	1
39	40	2
71	74	1
90	91	2
96	110	6
117	117	6
102	103	1
115	116	3
38	38	2
22	90	1
106	107	2
40	40	2
32	32	4
35	46	5
123	124	1
116	116	2
94	94	1
130	132	5
36	47	3
67	67	2
17	62	1
102	102	2
62	64	3
29	30	1
12	115	1
50	50	1
72	75	1
71	71	4
95	109	3
17	18	1
26	90	1
15	19	1
120	121	1
127	127	4
128	129	1
58	59	1
4	6	1
37	39	1
21	22	1
62	75	3
27	79	3
55	56	1
83	85	2
25	55	2
123	128	1
114	115	1
42	42	3
30	31	2
15	114	3
92	111	1
14	15	2
70	74	2
82	85	4
95	96	2
63	121	1
70	70	2
132	133	1
114	114	2
99	101	2
95	110	1
62	63	3
92	110	2
96	109	1
50	51	1
119	120	4
73	73	1
60	74	3
31	32	1
100	100	2
49	49	2
62	62	1
93	103	2
91	91	3
18	44	1
123	126	1
106	106	1
45	113	2
68	68	2
25	42	1
67	71	1
35	113	2
127	129	1
92	92	1
51	51	1
7	7	1
122	123	1
78	79	1
46	47	1
