91	92	1
125	125	7
108	109	4
104	104	2
96	96	7
36	36	8
25	26	2
124	125	2
173	173	11
152	152	1
70	71	5
60	61	4
79	79	3
67	67	2
5	44	4
140	140	10
170	171	2
110	111	4
55	55	9
138	138	12
14	14	5
63	64	2
73	73	4
41	41	8
51	51	4
117	117	10
86	86	3
133	133	5
146	147	2
150	150	3
40	40	4
60	65	1
163	163	11
62	62	1
63	63	4
53	53	2
34	34	2
18	18	4
61	87	5
167	168	4
169	169	7
25	29	3
102	102	1
103	106	3
60	60	6
83	111	1
8	8	4
72	73	2
102	103	3
0	180	1
23	24	1
50	51	1
68	68	2
2	2	5
22	22	2
64	64	5
91	91	6
71	71	5
128	128	6
142	143	3
111	111	3
7	9	4
113	116	1
137	139	1
64	66	2
136	136	6
77	132	2
87	87	2
99	99	3
105	105	5
52	52	2
2	3	2
140	142	5
133	137	1
102	169	3
172	175	3
116	116	2
129	129	8
5	6	1
110	130	3
127	128	7
42	42	2
158	158	3
115	115	2
77	77	3
31	31	4
84	84	4
95	95	3
163	164	2
122	122	5
75	76	1
145	145	7
12	12	2
150	151	1
82	129	1
161	162	2
120	120	3
89	89	7
80	80	1
21	21	1
92	92	2
59	84	1
117	155	2
140	141	1
175	175	2
109	109	3
113	162	1
27	28	3
119	119	5
18	20	2
141	142	2
45	45	1
50	50	5
119	155	1
154	154	5
119	120	3
160	161	1
168	168	2
141	141	1
106	108	3
173	174	2
72	72	2
145	159	2
167	167	3
176	176	1
114	158	1
161	161	3
78	78	5
132	132	2
35	36	1
74	74	5
123	123	3
39	94	1
112	112	2
149	149	5
160	160	3
101	101	1
167	169	2
39	39	3
31	32	3
11	11	3
82	110	1
29	29	1
5	5	4
136	137	1
164	164	3
118	155	1
146	146	1
56	56	1
91	96	1
10	11	2
23	23	1
135	136	3
134	137	1
1	1	2
49	49	2
107	107	3
139	158	2
37	37	2
35	35	3
43	43	4
120	121	3
30	30	1
62	86	2
153	153	2
97	98	1
126	128	1
104	107	1
38	38	4
57	57	2
125	127	1
82	82	1
10	38	1
138	149	3
94	94	1
88	89	5
118	118	1
73	74	1
60	107	1
67	81	1
76	76	1
60	83	2
90	90	1
83	83	1
27	27	2
66	66	1
85	109	1
52	53	3
67	125	1
147	147	1
139	145	1
143	143	1
61	83	1
93	94	1
65	66	2
0	1	3
16	16	1
142	142	1
58	58	2
155	155	1
51	57	1
95	96	2
12	13	1
157	157	5
160	162	1
71	72	1
122	123	1
166	167	1
29	30	1
9	10	1
174	174	1
92	94	1
154	155	4
159	160	2
89	96	1
153	154	1
3	3	1
39	42	1
97	97	1
126	126	1
98	98	1
26	26	1
162	162	1
53	54	1
