239	239	7
38	38	15
114	114	16
27	27	22
198	198	22
95	95	27
106	106	19
57	57	27
169	171	3
63	64	4
147	147	6
11	37	1
110	110	9
3	3	9
187	187	19
1	1	7
113	114	2
44	101	4
116	116	24
241	241	36
46	145	1
145	201	6
232	232	38
49	49	27
218	218	22
37	38	8
179	179	3
211	213	3
223	224	4
69	70	9
180	180	27
100	100	15
180	181	12
80	80	13
55	55	15
109	109	18
42	42	26
225	225	14
157	157	16
245	245	26
10	10	16
14	14	23
204	204	41
102	102	16
47	47	6
175	177	1
56	111	5
46	182	4
77	77	25
36	36	13
92	92	16
223	223	18
150	182	4
182	182	24
2	3	5
192	196	1
240	241	3
195	195	8
15	38	3
191	192	9
113	113	16
208	208	19
61	73	5
46	46	12
68	79	1
69	119	2
183	183	24
24	24	10
68	70	11
117	117	21
119	119	15
29	36	2
5	7	7
117	118	8
65	65	14
71	71	19
11	11	17
72	72	15
219	219	11
186	186	22
62	73	1
211	212	13
238	238	20
230	230	38
51	209	6
100	101	4
156	156	14
21	21	14
85	89	3
31	31	12
62	62	16
236	236	19
12	12	17
207	207	13
48	48	12
242	242	6
96	98	4
115	115	21
240	240	20
206	206	15
226	226	22
120	120	10
86	87	6
219	220	7
212	213	3
161	236	2
22	22	12
43	43	15
190	190	21
65	84	2
164	164	28
159	159	24
178	178	17
40	40	21
61	65	4
120	145	5
41	41	18
216	241	3
192	194	5
220	220	17
166	166	14
83	84	2
175	175	28
86	86	14
46	204	1
224	224	23
88	104	2
147	247	3
45	45	25
104	104	15
195	196	4
181	213	6
193	194	3
213	243	1
75	221	3
160	164	5
64	64	19
192	193	5
61	61	12
18	18	20
54	94	1
34	34	35
29	29	19
74	74	19
67	113	3
17	17	25
35	36	8
165	165	22
152	179	2
227	227	19
217	218	6
168	169	13
94	95	4
160	160	23
171	171	13
5	6	4
74	114	2
146	154	1
79	79	15
81	81	14
237	245	1
237	237	21
26	26	11
216	218	3
76	170	2
150	151	2
89	89	14
63	112	7
51	51	24
108	108	9
39	40	8
46	179	6
73	114	2
75	240	1
163	163	15
145	145	7
161	161	10
33	33	18
89	106	7
151	151	15
58	111	3
88	88	17
165	166	8
84	84	18
231	231	15
211	211	10
4	5	7
44	45	16
67	114	5
192	192	12
58	59	9
81	82	8
80	168	7
154	154	23
197	202	3
12	34	1
68	68	17
30	49	1
50	50	25
176	177	5
23	23	20
22	23	9
220	236	3
214	218	2
168	168	14
66	73	5
69	69	13
166	168	5
50	178	2
161	171	6
196	196	7
62	64	3
52	171	1
162	162	24
47	146	2
3	51	3
160	168	1
112	112	25
16	16	11
219	221	3
243	243	16
234	234	19
239	240	5
52	52	14
167	173	1
217	217	13
185	185	15
77	78	10
80	103	3
233	233	15
218	219	9
222	222	16
4	4	8
78	78	11
213	218	4
53	54	5
203	203	19
9	9	9
181	181	14
198	199	8
32	33	6
90	90	10
210	211	5
8	8	17
70	72	1
172	229	4
191	191	15
87	88	5
52	111	4
188	188	12
248	249	2
3	4	2
55	56	5
54	70	4
97	168	4
91	215	1
102	104	10
150	203	4
57	58	6
227	236	2
177	177	25
105	105	25
75	76	9
57	111	3
58	62	1
33	34	4
94	94	26
221	221	27
207	208	8
44	44	17
30	31	9
97	97	20
11	35	3
214	215	3
160	236	1
155	200	2
146	152	2
59	64	2
91	91	24
161	162	9
164	165	3
56	56	16
157	163	1
85	85	12
104	107	1
192	199	3
152	154	4
75	75	28
176	176	6
83	83	10
209	211	1
82	84	3
64	111	2
201	201	34
201	202	7
118	118	14
212	212	11
75	219	4
87	87	23
19	19	12
160	161	2
89	108	2
32	32	28
31	33	5
103	103	17
179	181	3
75	77	3
247	247	9
50	176	7
223	225	2
200	201	5
111	111	11
55	57	4
66	66	14
101	101	12
207	228	5
31	32	6
228	228	7
30	48	4
209	209	29
7	7	14
174	174	18
215	219	2
67	67	19
210	210	14
63	63	5
107	107	16
242	243	14
88	91	2
146	146	12
214	217	5
144	145	4
68	69	9
45	121	2
48	229	1
195	226	1
48	49	6
39	93	2
196	197	1
99	100	5
200	242	2
199	199	12
193	193	15
82	83	6
8	9	13
85	86	7
47	48	8
216	217	11
110	111	5
222	223	6
157	239	5
196	218	1
189	189	12
156	183	3
179	232	2
84	94	2
173	173	8
156	161	1
184	186	2
25	26	4
248	248	6
170	170	18
213	214	7
214	216	1
171	235	3
152	152	12
209	233	1
121	144	1
208	209	9
205	205	17
59	59	21
194	194	15
54	55	2
38	39	15
208	237	4
76	76	13
76	77	14
54	54	18
150	150	7
25	25	13
35	35	9
63	111	1
58	58	20
55	115	2
246	246	17
234	235	9
214	214	21
48	176	3
101	102	8
192	198	2
98	100	3
99	99	40
56	57	17
217	239	1
69	118	2
244	244	11
82	82	21
53	53	10
249	249	3
11	34	1
60	60	16
181	183	2
46	110	2
40	93	2
78	220	1
209	210	5
39	39	10
2	2	2
53	82	1
182	183	4
146	153	4
153	179	2
158	158	5
115	116	7
211	219	2
157	159	5
231	233	5
197	197	20
180	210	3
235	235	8
149	150	2
69	116	13
203	204	6
187	188	4
67	97	3
67	109	3
6	81	2
65	90	4
58	60	4
197	198	13
155	155	13
73	115	5
21	22	1
212	232	5
228	229	5
103	104	4
157	247	3
231	232	3
213	213	11
86	107	5
91	93	3
106	107	7
199	200	19
157	165	2
23	24	6
169	169	14
4	7	3
160	247	3
229	230	4
202	202	18
42	43	5
211	220	3
57	108	1
53	113	5
54	57	1
86	89	3
167	167	9
80	82	4
70	78	1
164	239	2
56	58	8
160	166	7
76	95	2
112	113	6
12	35	3
28	28	8
46	68	1
96	97	4
172	230	2
6	167	1
102	103	6
47	50	4
204	205	4
157	158	5
24	25	5
105	107	3
221	225	3
240	244	2
47	178	2
81	83	1
92	93	2
151	203	2
213	216	2
26	27	3
43	44	5
156	214	2
200	215	3
29	30	3
37	37	11
163	164	9
163	239	5
183	199	3
166	167	3
183	184	3
144	144	7
62	66	1
51	234	5
56	60	1
216	216	9
62	63	1
30	30	8
72	118	1
37	39	3
117	119	2
93	93	11
67	87	2
16	27	2
12	15	1
175	176	3
184	185	6
162	163	4
156	157	3
229	229	11
225	226	4
49	50	2
59	61	1
96	96	19
75	90	1
65	66	3
5	43	2
99	169	2
189	190	7
191	193	1
2	4	1
196	225	2
222	224	4
159	160	1
158	247	3
19	20	3
10	11	5
185	194	4
60	61	8
177	248	4
95	96	5
107	108	4
71	72	9
109	110	12
213	217	1
2	8	1
73	73	17
62	67	1
153	153	15
172	173	4
93	94	2
217	237	1
61	74	3
177	187	4
187	190	3
81	101	1
210	212	3
170	175	1
114	116	2
58	79	2
20	20	14
196	221	3
227	235	4
121	175	2
242	244	3
36	177	3
62	65	3
89	92	1
245	246	2
202	204	8
184	184	5
25	27	1
155	181	1
101	103	5
11	14	1
172	174	3
211	234	1
27	28	4
237	238	5
70	70	12
178	179	2
62	112	1
238	241	3
145	178	1
5	247	2
43	92	2
159	247	2
146	178	1
114	115	3
152	153	9
71	117	1
52	64	2
74	97	4
47	49	2
154	155	4
160	235	3
247	248	3
55	109	5
98	98	4
232	238	1
73	227	3
186	199	1
206	207	1
118	119	3
155	213	1
5	5	12
202	203	4
52	117	1
18	20	4
184	194	4
221	231	1
84	85	3
166	174	3
234	236	4
45	187	1
101	167	2
226	236	2
227	228	7
119	120	3
57	109	2
46	47	1
99	103	1
163	165	1
159	174	1
219	238	1
52	173	4
90	109	2
67	69	2
95	106	1
88	93	1
6	6	9
11	36	3
3	6	2
233	238	1
48	177	1
88	105	2
70	90	2
201	203	3
215	216	1
176	240	1
82	94	1
213	244	2
58	61	1
166	248	2
83	160	4
74	75	3
61	62	4
75	220	1
209	231	1
42	94	2
85	94	1
82	95	1
63	82	2
28	29	2
215	217	6
215	215	13
9	89	1
80	81	7
92	94	3
220	224	3
17	20	1
186	248	3
186	189	2
9	10	5
244	245	5
168	174	1
15	35	1
82	85	1
179	180	3
209	234	2
49	176	1
12	36	2
174	176	3
78	93	4
172	172	7
20	21	4
15	16	3
60	62	2
76	169	1
195	243	2
46	150	1
25	37	3
52	172	2
40	41	1
99	158	1
144	245	1
12	14	2
18	19	6
0	6	1
230	231	1
197	199	3
236	237	4
14	37	1
159	248	3
3	5	2
41	42	1
102	159	2
74	220	1
95	109	1
86	108	1
74	222	2
170	171	1
72	78	1
118	245	2
145	151	1
77	79	2
4	6	1
215	218	2
172	175	1
220	223	2
191	199	1
158	165	1
185	199	2
176	194	1
14	15	1
52	53	2
187	193	2
193	195	2
55	110	2
116	226	2
32	117	1
212	234	1
158	237	2
183	226	2
0	0	1
149	149	1
49	110	1
95	97	3
246	247	1
45	173	2
72	75	2
210	218	1
233	236	1
151	152	1
43	45	1
195	225	1
48	211	3
96	100	1
209	217	1
156	217	1
116	225	1
205	206	1
55	111	2
88	92	1
119	145	2
50	51	2
75	96	1
216	238	1
213	215	1
90	91	6
49	73	1
44	189	2
186	187	2
63	67	1
233	234	2
53	94	1
26	157	1
240	248	2
39	41	1
151	154	2
180	213	1
162	167	2
15	15	2
156	218	2
81	99	2
232	236	2
29	31	2
222	225	1
245	248	1
59	62	2
78	79	3
181	232	2
172	240	2
162	164	1
40	91	1
178	249	1
150	204	2
93	95	1
64	65	2
56	110	1
59	65	2
186	188	1
196	215	3
104	105	1
70	170	1
171	173	2
183	204	1
146	147	2
55	70	2
51	176	1
13	14	1
52	175	2
221	222	1
173	174	1
238	239	1
224	226	1
87	107	1
72	73	1
28	40	1
87	120	1
83	94	1
213	239	2
45	145	1
230	233	1
47	177	1
189	193	1
51	52	1
97	169	1
211	221	2
13	35	1
66	67	1
53	111	1
107	247	1
232	233	1
74	221	2
6	7	1
72	74	1
16	26	1
198	200	2
158	240	3
60	114	1
159	165	1
188	189	1
53	171	2
78	83	1
213	233	1
73	116	1
161	167	1
52	54	1
67	68	1
220	221	1
184	195	1
50	175	1
6	43	1
54	112	1
71	157	1
155	180	1
15	36	1
180	188	2
169	170	1
59	60	1
221	233	1
200	200	1
103	107	1
