54	54	7
15	15	10
116	116	3
74	80	4
27	27	8
121	125	3
52	71	5
107	107	7
77	77	10
125	125	3
74	75	2
101	101	3
34	35	8
13	13	2
45	63	4
86	106	1
132	133	1
5	6	2
12	12	5
4	11	4
33	34	3
1	1	6
74	74	6
38	38	1
30	30	9
109	111	6
17	19	6
4	20	3
126	127	1
86	87	5
31	32	5
79	80	5
104	104	7
102	102	6
16	17	4
4	4	4
103	103	5
19	45	2
36	44	6
74	100	2
108	108	4
57	57	1
85	100	3
80	80	4
95	95	10
5	35	3
102	104	4
80	81	5
122	122	4
49	49	2
23	23	3
109	109	8
78	91	1
92	92	12
84	85	4
30	31	3
124	125	5
67	67	3
22	22	8
29	29	5
15	21	1
31	31	8
105	106	1
25	26	2
91	91	6
36	36	6
71	71	7
111	111	3
113	113	5
20	20	3
99	99	13
9	9	6
70	70	8
79	79	10
75	75	3
105	105	3
85	85	7
1	2	4
61	61	5
88	88	2
89	90	3
134	134	7
112	112	5
92	93	2
117	128	2
34	34	2
64	64	11
82	82	5
25	25	12
121	121	7
32	33	4
21	22	8
4	25	1
109	110	3
59	60	5
62	63	2
106	131	2
115	115	4
95	96	5
7	8	2
43	43	2
130	130	4
114	114	7
87	87	1
16	16	10
106	107	3
129	129	3
28	28	3
52	52	9
124	124	5
10	11	6
64	66	1
117	117	5
0	0	4
65	66	3
56	56	4
33	33	7
17	17	2
26	26	3
82	83	1
89	89	7
127	127	6
115	116	3
8	8	7
28	29	2
35	35	5
17	85	3
11	11	5
62	62	4
107	108	2
93	93	1
60	61	1
46	46	2
57	58	2
78	100	3
78	78	1
63	63	4
12	13	2
4	5	1
54	55	3
94	94	2
6	7	3
2	2	1
68	69	1
48	48	4
11	27	2
37	50	1
72	73	2
126	126	11
18	100	2
120	120	8
58	78	2
44	44	5
76	76	2
107	130	1
24	24	2
15	20	2
90	90	4
113	131	4
94	96	2
55	55	3
10	30	3
118	119	2
68	68	5
6	6	3
130	132	2
116	117	1
55	56	1
20	21	2
49	50	2
3	4	2
72	72	1
129	133	1
7	7	8
19	19	5
33	35	5
60	60	2
35	36	1
76	78	1
103	104	3
128	128	5
5	63	1
100	106	1
123	123	2
106	106	3
2	24	4
5	7	1
118	128	2
18	105	1
3	3	5
70	71	1
131	131	7
50	50	1
78	101	2
119	119	4
48	50	1
73	74	1
112	113	1
3	9	1
107	110	1
114	115	4
88	94	3
132	132	2
14	15	2
90	106	3
53	53	2
23	24	1
5	5	1
86	86	3
58	58	1
66	66	2
126	129	2
7	23	1
4	14	1
120	121	2
43	50	2
112	129	1
96	96	2
104	131	1
32	32	2
102	131	1
125	126	1
98	100	1
38	39	1
97	97	2
102	133	3
71	72	1
127	128	2
102	103	1
131	132	2
44	50	1
110	112	3
67	68	1
4	9	1
33	36	1
77	78	1
135	135	1
84	84	1
8	37	1
119	120	1
0	1	1
63	66	1
74	79	1
51	51	1
37	37	1
10	14	1
110	130	1
61	63	1
