24	25	12
18	18	17
61	62	2
37	38	2
67	67	15
2	2	11
128	128	4
25	25	14
10	25	3
99	99	3
84	86	3
7	7	19
10	28	3
55	55	6
77	77	9
28	28	2
123	124	5
56	56	21
85	85	11
89	89	8
14	14	3
50	50	7
91	92	6
70	70	10
71	72	8
12	12	8
126	126	12
10	54	4
132	133	6
121	121	15
57	57	13
43	43	5
92	95	4
83	83	10
93	94	4
76	76	12
53	53	15
33	33	11
90	114	4
103	103	8
61	61	13
4	5	4
120	120	5
106	106	13
27	31	2
66	66	5
112	112	5
36	36	12
59	60	3
13	14	4
5	31	1
102	126	5
111	111	4
98	98	7
91	118	6
90	90	14
74	74	9
72	72	5
95	98	2
64	64	4
22	22	6
32	34	1
105	105	16
92	118	2
34	34	16
77	78	10
82	85	2
21	21	16
56	57	5
113	113	16
16	21	3
127	127	4
135	135	3
84	121	1
100	100	13
133	133	8
26	31	1
114	114	14
113	115	6
128	130	5
27	32	1
4	4	7
3	3	4
107	109	3
64	65	8
19	19	10
81	100	2
95	105	1
117	117	10
5	5	8
8	8	12
0	1	3
84	85	3
58	59	1
13	15	1
34	71	6
69	69	9
12	33	3
92	92	9
33	34	7
90	91	2
115	116	3
96	123	4
9	10	7
116	116	17
118	119	6
16	16	11
71	73	1
125	125	13
6	7	9
130	130	4
7	13	3
97	97	12
109	110	7
95	96	6
52	83	3
13	13	8
93	95	5
115	115	11
126	127	2
16	19	3
52	85	5
84	120	5
79	79	12
119	122	1
73	74	4
71	71	3
65	65	6
78	78	6
102	102	5
75	126	8
24	24	9
89	90	6
86	86	10
29	29	18
30	30	3
62	62	5
38	38	4
20	20	6
28	29	3
82	82	4
9	9	4
73	73	11
21	23	2
6	12	3
124	125	3
133	135	2
131	131	4
37	45	1
54	54	9
98	127	3
94	94	8
104	104	4
87	87	11
6	6	4
95	120	2
21	52	1
75	75	7
1	1	4
32	32	7
101	101	7
23	23	10
96	96	6
66	90	2
128	129	6
65	68	1
108	108	14
119	119	10
63	63	4
98	99	5
93	93	8
0	0	5
96	126	1
22	23	3
119	120	7
79	125	3
98	126	2
90	112	4
82	84	4
7	9	4
111	114	2
85	86	4
110	117	3
26	26	8
53	54	4
95	118	2
11	26	2
20	21	5
88	88	3
124	124	1
34	49	1
28	30	6
91	91	8
30	61	1
56	83	3
11	11	4
118	118	1
36	50	2
21	22	6
35	50	4
114	115	3
95	127	2
104	105	5
72	74	2
65	117	4
72	130	2
31	31	5
55	58	2
52	53	5
1	2	1
8	24	2
95	95	6
129	129	8
59	69	2
12	32	2
29	30	7
78	122	4
107	107	2
122	122	5
96	97	5
80	97	1
53	85	4
44	44	10
58	58	3
84	119	1
134	134	2
75	123	2
77	123	1
83	84	6
126	128	1
7	8	3
67	69	2
67	68	3
112	116	2
6	11	2
22	52	1
59	59	4
106	107	3
66	113	5
60	60	3
31	32	2
92	93	2
14	15	1
72	73	4
29	60	4
127	129	3
80	80	8
70	71	4
60	61	3
25	26	1
74	129	2
43	44	1
111	112	5
112	113	2
108	111	3
45	45	7
2	3	1
49	49	2
44	48	2
102	103	1
105	106	2
47	47	1
70	72	1
35	36	1
56	58	1
109	111	1
36	37	6
27	27	3
75	76	1
100	101	2
23	25	2
3	4	2
109	109	2
80	81	2
102	134	3
68	116	1
23	24	2
116	120	3
61	71	1
103	104	1
35	37	1
66	106	1
95	124	2
80	120	1
123	123	2
129	131	1
59	70	3
9	11	2
76	77	3
24	33	1
107	108	1
68	115	1
19	23	2
87	115	1
49	50	2
32	73	1
52	82	5
109	117	1
19	20	1
121	122	1
52	54	2
65	121	2
97	101	4
37	37	2
116	118	1
131	132	2
38	45	1
11	12	2
9	12	1
62	124	1
64	77	1
50	82	1
35	35	1
79	121	1
102	128	1
1	3	2
68	68	2
91	96	1
10	10	1
36	38	1
11	27	2
62	63	1
113	114	1
122	125	1
