51	86	4
35	35	8
52	52	14
75	75	25
95	95	27
87	88	10
85	85	30
57	57	23
47	65	3
65	67	1
67	68	8
67	67	31
64	65	12
22	22	16
61	61	25
103	103	19
74	75	9
26	27	8
89	89	19
65	65	18
54	54	27
59	59	18
34	34	14
79	79	19
27	31	4
100	102	3
93	93	22
105	105	21
42	44	5
71	71	20
31	31	26
32	32	6
21	22	5
63	64	3
39	43	1
46	46	11
82	97	3
107	107	7
83	83	10
26	26	29
68	68	11
31	32	6
95	96	10
106	106	9
104	104	19
85	86	12
53	54	8
74	74	22
36	36	9
72	72	14
69	70	4
82	82	15
23	23	31
76	77	7
73	73	17
47	47	7
40	40	14
102	103	3
33	33	28
76	76	13
30	30	32
29	29	21
44	105	1
67	69	2
20	25	5
97	97	30
80	80	25
101	101	22
70	70	24
41	43	8
81	81	24
62	72	1
37	37	19
81	95	2
45	45	17
79	82	1
48	48	14
37	38	6
78	78	22
102	102	23
38	38	21
60	82	4
24	24	17
73	74	4
20	20	9
92	92	15
44	45	5
21	91	2
89	90	9
60	61	6
52	54	7
64	64	10
98	98	16
53	65	2
66	66	19
99	99	31
62	62	13
97	99	17
51	65	3
83	99	2
82	90	3
25	27	3
79	80	12
87	87	13
100	101	2
72	73	13
21	21	12
25	25	13
78	105	4
20	58	1
65	72	2
43	44	10
20	98	1
75	77	4
60	60	13
44	44	15
60	98	2
59	60	8
92	94	3
54	70	3
27	27	24
51	51	16
78	99	1
49	49	12
94	94	30
100	100	17
54	92	2
88	88	6
64	69	4
91	92	3
51	59	2
41	41	23
23	30	3
55	69	7
33	34	9
84	84	16
47	48	7
71	73	3
68	69	9
78	91	3
78	83	2
24	60	2
58	58	19
104	105	1
77	79	8
39	39	20
84	86	5
53	55	6
43	101	2
52	53	8
54	57	2
40	41	11
53	60	1
27	28	2
82	83	4
62	64	4
27	29	3
55	56	3
35	36	3
61	63	5
50	50	23
72	82	1
71	72	15
86	88	4
34	35	7
79	96	10
57	59	12
55	55	13
98	99	4
69	69	9
71	79	2
42	42	7
96	96	14
84	85	11
72	81	2
58	60	5
38	39	6
27	91	1
43	43	20
56	66	3
41	42	4
51	52	7
92	93	2
84	87	3
54	55	11
45	46	3
31	33	4
96	97	3
61	62	14
32	34	10
56	56	14
89	97	7
94	95	3
91	91	18
55	91	2
93	106	5
77	77	20
45	48	1
65	66	7
46	48	4
21	82	1
93	96	5
23	24	4
78	79	7
33	36	3
70	71	7
25	41	2
22	26	4
90	93	4
103	104	1
83	89	7
77	95	1
86	86	5
101	106	2
46	47	2
43	93	1
48	49	4
54	58	3
54	86	1
90	90	16
79	89	1
62	63	4
80	91	1
88	90	2
28	28	5
83	85	4
51	97	5
46	88	4
24	30	1
89	93	2
73	103	4
30	40	1
63	75	2
45	100	2
90	91	3
36	38	2
41	44	1
78	88	1
50	71	1
36	37	12
97	98	3
94	104	1
86	87	2
30	99	3
57	70	2
88	89	1
73	96	3
25	26	4
50	56	2
78	95	2
73	78	4
73	75	4
38	46	1
22	25	1
20	28	1
70	76	3
26	82	3
60	86	2
47	49	1
58	59	4
80	81	2
56	70	1
53	53	9
63	63	6
68	75	4
63	73	4
77	78	5
71	77	3
30	42	1
50	55	1
84	89	2
75	102	1
32	33	1
64	103	2
70	73	1
49	52	2
53	67	1
52	61	1
73	76	1
106	107	3
49	50	1
73	79	1
22	60	2
57	58	3
61	72	2
75	95	2
26	29	1
40	44	3
22	24	1
71	82	2
51	70	2
78	82	1
74	92	1
34	75	1
20	60	2
50	70	1
70	72	1
33	35	1
75	76	2
57	60	2
93	94	6
49	51	1
46	97	2
60	62	1
20	22	2
60	88	1
90	94	2
20	27	2
72	77	2
34	36	5
88	94	2
54	91	1
53	64	2
55	64	1
39	45	2
58	82	2
101	102	1
25	104	1
51	67	2
92	95	1
21	30	2
32	36	3
21	90	1
28	29	1
63	88	1
81	82	1
27	82	1
66	69	1
22	56	1
74	95	1
21	27	1
50	51	2
53	63	1
83	84	1
69	75	1
62	65	3
55	74	1
24	59	1
100	106	1
50	95	1
71	76	1
57	91	1
43	89	1
94	106	1
52	71	1
42	43	1
44	48	1
76	78	1
82	89	1
100	105	1
78	100	1
53	85	1
56	57	1
22	23	1
