111	111	7
10	10	5
33	33	1
11	11	3
76	76	3
6	7	2
130	130	9
122	123	1
108	108	7
57	57	3
93	94	2
127	127	8
66	66	7
120	120	2
101	101	3
133	133	3
129	134	1
116	116	8
65	65	3
9	9	5
96	131	5
47	47	2
99	122	4
6	6	3
133	135	1
101	124	3
0	0	8
61	61	4
49	80	2
114	120	4
86	112	1
53	53	3
2	9	3
92	92	3
123	123	4
5	27	6
64	68	2
8	8	6
1	5	2
97	98	6
25	25	5
56	87	2
54	77	3
3	6	3
89	120	5
59	59	1
75	75	7
105	133	1
3	7	6
26	26	12
121	121	6
15	15	1
87	87	2
25	26	3
90	90	2
124	130	6
83	99	2
15	24	3
84	115	2
124	124	15
43	43	2
82	82	4
52	52	6
127	129	1
71	71	2
56	60	3
109	109	7
79	79	9
37	43	3
63	63	4
52	94	1
98	98	2
106	126	3
77	121	2
4	4	3
48	87	3
106	106	2
15	17	1
60	60	3
4	5	1
64	64	3
56	78	1
70	70	1
16	16	3
34	34	1
68	68	3
32	73	1
102	102	4
55	56	3
117	117	2
86	86	3
130	132	1
118	118	3
19	19	2
78	79	7
1	1	1
3	5	3
21	35	2
32	32	4
46	46	1
79	115	3
76	77	1
104	104	2
25	27	1
116	117	2
106	132	3
28	28	2
84	85	1
69	123	4
78	78	2
22	22	2
27	28	1
79	120	1
82	119	1
111	112	2
103	103	2
38	38	2
45	46	2
102	135	2
112	112	1
95	95	2
24	29	1
99	101	2
129	130	4
52	63	1
88	88	6
65	70	1
98	132	1
131	131	1
122	122	4
36	36	1
8	9	1
67	68	3
106	133	1
5	9	5
27	27	2
100	101	1
59	108	1
105	105	1
5	5	2
23	23	2
24	24	3
16	17	1
2	2	1
107	107	1
44	44	2
105	126	1
82	113	3
100	100	1
95	108	3
69	69	2
10	28	2
42	43	1
79	86	1
36	75	1
77	77	1
1	2	2
97	97	2
61	95	1
65	86	1
108	109	1
113	113	2
94	95	3
54	65	5
50	50	1
129	129	1
1	6	1
128	128	2
117	118	1
94	109	1
119	119	1
7	7	2
50	52	1
62	63	1
113	131	2
81	81	2
57	122	1
57	99	1
85	85	1
62	62	1
31	31	1
114	114	1
