45	88	3
108	110	5
22	23	3
82	82	6
39	39	18
72	73	7
33	61	4
97	98	5
77	77	2
47	48	2
32	32	18
37	38	5
30	30	10
27	28	5
74	75	1
46	96	5
29	29	3
28	28	7
112	112	7
54	55	3
84	84	5
99	99	3
54	54	5
53	53	18
76	76	10
43	44	2
49	50	2
71	71	22
34	34	7
113	113	6
42	42	5
40	40	9
59	59	9
45	47	5
108	108	4
71	72	3
65	66	2
33	36	1
94	94	11
50	50	7
48	87	1
48	48	4
73	73	3
31	31	3
66	67	3
51	51	12
39	40	2
35	35	13
69	70	3
100	100	4
72	72	6
69	69	5
91	92	2
109	109	5
97	97	5
41	41	4
98	99	4
98	98	3
97	99	2
44	44	5
60	60	5
78	78	3
22	22	2
26	26	5
102	102	5
57	57	4
76	91	3
85	85	10
20	20	2
27	29	3
92	92	10
106	106	4
28	30	1
38	39	2
73	74	2
89	91	1
61	61	17
38	38	6
114	114	8
44	45	2
50	95	1
87	87	6
40	84	4
105	106	4
37	43	3
74	74	5
42	86	1
30	73	1
95	96	1
37	37	8
87	89	2
20	21	2
62	73	2
70	71	6
77	110	2
36	43	3
107	107	6
96	97	2
64	70	2
32	52	3
23	64	3
26	27	3
86	87	3
43	86	1
103	103	2
94	95	3
101	101	3
105	113	2
58	60	1
38	56	5
111	111	3
45	45	10
115	115	3
41	42	2
49	49	6
55	59	2
33	33	2
23	63	2
55	55	3
110	110	4
47	47	2
105	105	3
103	104	1
75	75	1
90	94	1
44	95	1
46	46	7
36	37	1
93	94	1
40	41	1
111	112	7
25	25	4
23	23	2
24	26	2
81	81	2
33	34	1
65	71	1
46	79	5
51	52	1
90	90	3
87	91	1
53	54	2
64	64	1
21	22	3
24	24	2
113	114	2
44	93	2
90	91	1
96	96	3
89	90	2
57	60	2
42	84	1
21	24	2
59	60	1
80	80	2
42	43	2
89	89	1
98	108	2
78	109	3
88	88	1
79	98	1
21	74	2
81	82	1
87	88	2
84	85	1
95	95	1
89	96	1
94	97	1
40	87	1
52	52	2
58	58	1
109	110	1
36	36	1
56	57	1
103	108	1
99	100	1
36	44	1
79	79	1
21	21	1
43	43	1
