21	21	2
90	90	2
54	106	5
115	121	1
31	31	8
116	116	16
9	10	1
135	135	4
3	20	3
75	130	4
89	89	7
98	98	4
143	144	3
84	84	7
55	106	1
47	138	5
100	100	8
70	70	14
144	144	3
105	106	3
120	120	7
129	129	8
37	37	6
81	81	5
30	30	14
4	5	5
103	104	1
145	145	4
79	79	7
41	41	6
106	106	3
108	108	8
92	92	8
137	137	7
107	107	11
5	27	2
4	20	3
49	111	1
16	39	3
102	102	3
78	79	2
97	97	7
74	94	6
128	140	5
67	77	2
67	76	1
96	104	3
40	41	2
16	38	2
109	111	3
92	93	4
118	118	1
51	51	3
15	15	3
32	32	7
87	90	3
86	86	4
95	142	4
62	62	8
10	10	3
71	74	1
58	59	2
60	60	5
124	131	4
127	128	4
8	8	3
80	80	2
143	143	8
88	88	8
115	115	2
82	82	3
117	117	3
116	117	2
66	78	2
108	111	3
14	41	4
132	133	2
130	130	3
124	124	3
64	64	7
63	63	2
141	141	2
68	69	5
135	138	2
87	104	2
16	16	4
55	55	2
106	107	2
43	47	2
67	67	4
101	101	7
42	42	3
48	124	1
34	34	3
101	114	4
59	72	2
140	140	3
131	131	11
73	74	6
88	120	1
104	104	6
142	142	3
127	127	2
22	22	4
122	122	5
69	69	10
113	114	2
78	78	2
5	6	2
113	113	3
110	110	3
129	130	4
48	48	5
59	59	5
56	117	2
130	140	1
107	110	4
136	136	2
122	123	3
35	36	6
26	26	3
26	27	2
93	94	2
126	127	3
108	112	2
109	109	5
112	112	2
38	38	8
90	93	1
73	73	4
58	73	3
92	145	2
19	19	5
111	111	2
65	78	3
94	94	5
83	92	1
76	76	6
75	129	3
126	126	4
9	9	4
57	118	3
42	107	1
51	52	3
59	60	2
3	34	2
125	138	3
2	36	3
53	53	8
71	80	5
144	145	2
84	91	3
74	74	2
76	77	2
103	103	3
94	95	1
61	63	3
9	33	2
36	37	1
85	85	2
91	91	2
9	32	1
71	71	1
112	113	3
49	109	1
137	138	1
61	62	1
39	39	2
146	146	2
114	115	1
131	135	1
28	28	2
111	124	1
89	117	4
54	54	1
57	58	1
1	1	1
24	24	1
40	40	3
89	90	1
119	120	1
119	119	1
20	20	1
29	31	1
36	40	3
56	56	1
122	137	2
3	35	1
142	143	1
57	57	1
120	121	1
75	119	1
13	13	5
22	28	1
12	96	1
58	118	2
1	21	1
102	116	3
64	66	1
132	132	2
57	75	2
47	122	1
27	27	2
59	82	1
139	139	2
134	135	1
95	96	2
53	107	1
19	21	1
17	17	1
57	120	1
68	70	1
88	118	1
23	23	2
96	96	1
94	120	2
46	46	1
29	29	3
99	100	3
108	113	4
25	25	2
95	103	1
118	119	3
11	13	1
24	25	2
8	32	2
76	80	1
66	66	3
11	41	1
70	77	1
84	85	1
125	136	2
138	139	1
6	6	1
8	28	1
126	128	1
121	121	1
58	72	1
97	98	1
128	129	1
46	47	1
29	30	1
59	81	1
18	40	1
58	58	1
70	71	1
33	33	1
