108	110	1
22	22	3
10	10	9
149	150	8
126	126	11
125	125	1
176	176	23
68	68	10
82	82	6
66	67	2
104	105	4
42	42	4
137	138	5
76	76	3
179	179	6
127	128	3
57	112	3
52	52	15
13	13	2
170	170	6
116	116	11
79	79	1
135	136	5
30	33	1
84	86	7
148	149	5
166	166	5
4	4	2
17	17	8
130	131	5
147	147	6
165	165	2
117	120	7
62	62	3
169	169	3
144	144	7
176	180	1
161	161	7
133	133	10
110	110	7
112	113	9
149	149	4
15	15	4
155	155	8
81	81	5
21	21	2
32	95	2
131	132	2
67	67	8
104	126	1
72	72	7
32	33	4
67	93	4
45	45	11
116	118	3
25	26	1
72	73	4
55	56	10
90	110	2
134	134	5
77	78	3
86	86	3
172	172	3
87	114	2
52	94	1
38	38	2
43	43	3
30	31	10
33	97	2
34	34	10
61	61	7
153	153	3
80	80	7
140	141	4
119	128	3
114	114	6
66	66	7
55	55	6
119	129	2
107	107	7
75	140	4
60	61	3
150	150	3
18	41	1
109	109	3
88	88	4
95	95	6
31	31	5
9	10	5
84	84	9
131	131	10
32	97	5
130	146	2
81	123	1
96	96	10
97	97	4
108	108	5
163	164	2
105	105	6
124	124	4
173	173	6
82	104	1
142	142	10
56	57	1
23	23	2
157	158	4
123	123	3
144	160	1
57	111	5
130	143	2
12	13	3
90	91	2
106	126	1
62	63	2
35	35	8
136	136	5
51	52	5
44	52	1
26	26	5
50	62	3
74	74	5
51	51	1
65	95	4
17	37	2
65	65	2
70	71	6
26	27	7
41	41	4
101	101	3
92	93	4
76	108	4
54	54	6
87	87	3
140	140	5
111	111	2
81	82	3
9	9	7
35	36	3
137	179	4
138	138	3
11	12	2
84	85	2
137	139	6
100	100	4
174	175	3
22	23	3
10	11	1
71	71	1
3	3	8
87	118	4
7	7	11
91	112	2
120	120	12
50	50	2
87	88	1
122	126	1
162	162	5
174	174	5
177	178	2
99	100	2
141	141	8
25	37	1
19	19	4
40	40	4
16	16	5
178	178	4
91	111	2
151	151	4
106	107	3
129	129	2
93	94	2
15	24	4
168	168	3
64	64	2
121	121	4
53	53	3
24	37	6
17	18	2
111	112	3
14	14	1
126	127	1
119	119	2
11	11	7
156	157	3
133	137	1
94	94	1
110	111	1
36	36	4
178	180	4
116	117	2
164	164	3
12	45	3
100	101	6
157	159	4
105	168	1
37	37	2
156	156	4
152	152	1
167	167	3
104	164	1
127	170	4
153	173	2
130	130	4
27	27	7
113	113	5
49	49	1
29	29	3
86	90	2
148	148	8
142	160	5
120	121	2
18	18	3
85	89	1
169	170	3
151	153	5
97	98	1
56	111	1
86	89	2
73	75	3
94	95	3
146	146	4
35	43	1
93	93	3
5	5	4
163	163	4
34	35	2
132	136	1
117	117	2
63	63	3
132	132	1
103	105	1
86	87	3
122	122	2
73	73	4
19	20	2
59	62	2
31	32	1
127	127	2
96	97	1
59	59	2
160	161	5
131	163	2
0	1	3
24	42	1
28	34	1
40	41	1
67	108	2
143	143	2
6	6	2
104	104	1
115	115	3
8	8	3
160	160	4
42	44	1
177	177	1
27	35	1
90	92	2
126	168	1
158	159	1
88	89	2
59	61	1
78	78	2
25	25	1
54	66	1
112	112	2
77	77	1
159	159	1
121	122	2
63	113	1
67	68	1
155	156	3
117	119	2
136	140	1
136	137	1
1	1	1
92	92	3
75	75	3
2	3	1
90	90	1
57	57	2
124	168	2
157	157	3
121	126	1
17	54	1
56	56	1
106	106	1
0	0	2
144	145	1
135	137	2
152	153	1
60	60	1
39	40	1
7	8	2
67	90	2
97	109	1
158	158	1
117	118	1
81	125	1
15	37	1
102	102	1
15	38	2
75	102	1
132	135	2
147	148	1
6	7	1
103	103	1
150	172	1
86	91	1
115	116	2
15	16	1
25	36	1
150	151	1
2	2	1
7	10	2
