140	141	8
73	73	3
123	123	11
17	153	2
34	34	5
10	24	2
113	113	13
175	187	2
104	104	6
99	100	9
39	39	11
110	146	2
163	163	5
103	105	1
101	101	6
149	151	2
135	136	3
124	124	8
76	76	11
140	140	3
110	110	13
112	112	5
47	47	13
35	36	4
77	77	3
4	4	4
88	88	7
95	104	4
141	141	4
174	176	2
93	93	2
88	89	3
89	89	4
103	103	6
148	148	5
52	53	4
26	26	12
92	92	3
85	85	5
154	154	14
91	96	1
182	182	17
153	153	5
54	54	6
13	13	5
19	19	6
111	111	6
7	8	4
63	114	2
173	173	4
6	6	12
17	19	1
164	164	2
160	161	3
186	186	1
25	25	2
80	80	3
48	48	10
40	42	1
41	103	2
38	39	3
44	158	3
54	55	1
182	186	3
91	106	1
116	116	5
91	92	2
86	86	7
3	3	15
99	99	8
138	138	4
151	151	4
58	143	2
181	181	8
24	25	2
113	129	4
187	187	8
138	139	2
84	84	6
136	136	4
85	87	6
89	90	3
145	145	11
162	162	5
90	90	12
129	129	6
59	59	2
58	58	2
62	73	2
15	16	2
149	149	10
14	14	2
161	161	1
168	168	2
96	151	2
20	20	8
2	2	2
135	135	7
16	152	4
75	76	4
103	104	1
125	125	4
39	40	2
64	64	1
122	123	4
146	147	1
155	155	3
65	66	1
23	24	3
57	57	3
180	181	3
25	27	5
53	53	6
146	146	13
1	1	1
184	184	4
150	150	6
79	79	5
156	156	7
62	79	2
71	102	2
28	28	3
24	37	4
2	7	2
150	151	3
178	178	2
76	128	1
24	24	4
114	115	3
41	41	12
147	147	8
152	153	3
87	87	2
7	62	1
182	183	3
134	161	1
133	133	5
134	134	4
43	108	3
158	158	5
40	40	1
133	139	5
14	15	6
154	155	2
109	110	3
62	63	4
46	47	3
91	91	3
167	174	1
76	77	2
63	63	5
143	144	1
9	38	2
165	165	5
10	12	3
121	174	1
78	78	6
133	161	2
17	17	5
170	171	2
16	16	3
169	169	3
84	88	2
116	118	4
8	8	7
84	85	2
124	165	3
36	36	5
177	177	7
8	9	3
81	83	2
160	160	3
38	38	7
176	183	1
131	131	6
21	21	3
144	144	2
157	157	9
159	159	8
127	128	6
88	112	1
142	142	4
59	60	1
108	108	8
42	63	1
40	41	1
98	98	3
27	27	2
33	33	2
114	114	5
41	42	1
119	119	1
126	128	2
95	95	2
161	162	3
61	61	7
53	61	3
30	30	2
65	72	4
47	101	1
168	174	5
174	175	1
52	52	3
92	94	3
131	166	1
42	42	2
170	184	5
113	133	2
180	180	3
117	117	3
130	130	5
97	171	4
94	94	3
187	188	6
170	170	4
74	74	3
81	111	3
19	20	2
179	180	3
55	55	6
23	23	3
109	109	5
113	115	5
142	181	2
18	19	2
121	121	4
72	72	2
87	109	7
22	26	2
165	166	3
108	150	3
142	143	1
7	7	7
143	188	3
168	171	3
5	74	2
172	173	2
139	139	2
1	6	2
131	133	4
58	60	2
147	159	1
183	184	2
10	10	1
81	131	3
12	12	2
114	134	1
60	62	2
0	1	2
134	135	3
166	166	2
29	29	7
185	185	2
176	176	1
159	160	2
132	132	4
152	152	5
93	108	1
43	43	3
86	110	2
157	164	1
190	190	2
125	126	2
169	170	1
78	148	2
145	146	2
163	164	1
58	59	1
65	69	1
47	139	2
92	93	5
108	111	1
82	82	2
175	175	2
170	181	1
55	57	2
98	129	3
106	106	1
139	140	1
35	35	2
18	20	2
15	15	3
5	5	3
151	152	2
30	31	1
134	138	2
83	83	3
85	86	1
137	137	1
176	187	1
119	129	2
97	97	1
16	17	1
167	167	1
61	62	2
18	18	2
14	16	1
102	102	1
33	34	1
37	37	1
46	46	1
8	38	2
114	130	2
147	148	1
60	60	3
67	108	1
124	125	2
122	166	1
127	127	1
172	172	1
118	129	1
168	170	1
32	32	1
105	106	2
88	110	2
119	120	1
96	96	2
66	66	1
179	179	1
185	186	1
118	118	1
26	40	1
120	120	1
81	82	1
39	110	2
56	101	1
141	185	1
57	141	1
125	175	1
