8	8	6
92	92	16
81	81	3
9	11	6
52	77	1
16	16	6
64	64	10
128	138	3
18	18	10
54	77	6
32	32	2
119	142	1
33	33	6
17	49	4
31	31	19
115	116	1
15	15	11
8	107	3
21	21	3
25	26	1
109	109	17
105	105	5
68	95	5
155	155	7
125	125	13
38	38	11
46	46	26
134	134	8
107	108	4
42	42	8
89	89	14
95	95	6
68	68	13
77	79	3
21	22	8
51	51	14
147	147	5
144	145	2
7	11	3
123	124	6
32	45	8
142	144	4
54	54	10
62	71	2
1	1	5
150	150	6
119	123	1
53	55	3
101	101	13
49	52	5
115	115	2
87	87	26
6	133	2
118	141	4
55	68	5
82	82	16
94	94	9
118	118	13
19	20	6
117	118	6
13	14	10
91	91	5
129	129	3
23	23	17
93	93	10
0	0	3
55	55	9
82	107	5
85	85	12
66	96	2
127	127	18
25	25	6
133	133	12
51	70	2
48	48	6
143	143	11
111	112	7
121	121	1
43	43	17
122	122	16
22	22	8
50	50	9
151	151	8
39	39	8
65	68	6
2	2	8
17	17	9
17	18	5
126	126	12
118	125	4
38	40	2
108	110	1
4	5	5
12	13	9
74	74	1
125	127	1
29	30	3
93	94	3
40	40	2
35	35	5
28	28	19
112	112	6
19	48	1
37	37	8
65	65	6
145	145	8
119	119	10
3	4	4
53	53	8
105	106	2
141	142	2
145	146	9
32	33	5
109	110	3
110	110	2
82	83	2
136	138	5
79	81	4
47	47	14
67	67	12
106	106	9
8	87	2
86	86	9
153	154	5
56	56	8
98	99	2
49	54	2
130	130	12
16	17	2
96	96	15
124	124	5
118	119	3
44	44	6
108	108	16
29	71	2
139	139	4
77	78	5
137	139	5
28	71	2
52	52	11
55	56	4
157	158	3
124	135	2
95	96	7
67	71	3
151	156	5
124	138	1
138	140	3
113	113	3
80	80	9
30	43	5
144	144	8
110	112	1
119	120	4
48	49	3
73	73	5
126	127	1
99	99	15
150	158	3
8	9	4
78	78	13
53	54	8
89	90	5
7	87	1
116	116	7
104	104	10
37	38	12
136	137	2
143	144	4
120	120	4
35	36	11
71	71	4
116	118	2
138	138	4
19	19	6
130	131	5
100	100	3
66	98	2
38	39	6
114	114	5
108	111	4
41	41	5
128	129	9
0	1	1
136	136	8
110	111	6
62	62	4
26	26	7
18	20	3
120	121	5
72	73	1
4	4	9
97	98	1
135	139	2
69	69	17
34	34	8
107	112	1
123	136	2
116	140	1
98	98	2
150	159	1
141	141	3
137	138	13
132	134	2
97	97	6
146	146	2
78	79	2
11	11	2
71	73	2
66	66	4
144	147	3
5	5	3
131	131	7
29	138	1
10	10	8
68	71	2
80	82	5
79	82	1
45	45	10
80	81	4
115	120	5
42	73	2
127	142	2
30	30	5
111	111	7
123	123	8
103	103	8
123	142	3
68	70	1
82	84	1
70	70	12
91	96	2
131	133	3
142	142	10
57	57	2
107	107	6
77	77	3
135	138	1
66	67	6
83	83	5
20	20	7
116	117	4
92	94	2
7	8	7
100	101	3
90	90	4
23	154	2
22	26	3
135	135	2
85	93	6
7	7	7
12	12	3
128	128	5
117	117	8
6	6	2
87	89	5
30	51	2
9	9	5
17	48	2
132	132	7
79	79	6
89	91	2
8	12	2
54	55	8
153	153	3
81	108	1
12	15	4
31	32	2
66	69	3
10	11	7
137	137	10
131	134	5
125	126	2
129	140	6
148	149	6
152	152	2
27	27	1
83	85	1
157	157	10
88	88	7
152	157	2
149	149	3
9	12	2
31	43	2
154	154	7
40	41	7
9	10	3
52	53	5
156	158	1
24	24	10
84	85	2
156	156	3
30	50	3
62	76	1
18	19	2
20	21	2
82	108	1
112	113	2
50	55	4
86	108	3
11	13	2
85	86	6
121	122	3
140	140	4
7	108	4
148	148	6
22	25	1
76	77	3
42	55	2
142	145	1
1	2	5
126	128	4
138	139	1
109	133	5
69	71	2
33	43	2
31	47	1
51	52	2
67	68	4
38	41	2
52	74	1
64	65	1
2	5	4
6	98	1
151	157	3
75	75	7
86	107	1
99	103	3
84	112	1
115	118	3
68	69	2
11	12	3
23	76	3
46	47	2
84	84	4
118	127	4
2	3	3
29	29	5
14	79	1
10	12	2
49	49	1
118	126	1
125	145	1
149	151	1
116	127	1
102	102	4
18	27	2
26	27	4
99	104	1
96	98	1
16	22	1
108	109	3
61	68	1
133	134	1
31	50	3
15	16	3
7	133	2
6	91	2
115	141	2
13	13	2
94	95	1
42	54	2
127	128	3
91	95	1
140	141	1
36	36	2
125	128	1
3	3	5
8	13	1
28	29	2
88	90	1
91	97	2
132	133	1
86	93	1
57	71	1
90	91	1
145	147	1
9	17	1
68	90	1
56	71	1
72	72	1
33	34	1
79	80	2
87	93	1
67	69	2
100	104	1
5	98	1
36	37	1
27	28	1
66	97	1
63	64	1
65	83	1
47	48	2
123	138	1
120	123	1
113	115	1
152	158	3
130	140	1
113	141	1
42	43	1
28	50	1
97	99	1
111	113	1
