55	80	1
92	92	2
14	14	5
112	112	6
125	125	4
98	98	5
75	75	2
10	10	9
95	134	2
154	154	5
103	106	2
29	30	9
94	98	3
147	148	6
94	94	3
100	110	1
23	65	2
40	101	2
120	121	6
44	44	4
78	142	7
18	19	8
84	86	6
76	82	4
55	56	1
104	104	11
49	64	2
2	2	3
120	125	5
45	45	4
145	146	5
43	43	11
119	119	7
25	25	7
29	29	6
21	21	10
26	68	2
86	86	3
144	144	1
24	26	5
135	140	2
65	95	2
56	56	4
36	45	3
149	150	3
5	17	2
96	125	2
5	42	2
23	34	5
133	133	13
97	97	7
17	17	9
20	24	13
81	86	2
6	18	3
16	17	6
118	118	8
148	148	4
22	25	3
138	138	4
135	135	9
63	66	2
145	145	5
127	128	7
20	110	3
93	96	4
38	39	2
24	41	1
136	145	4
39	40	9
8	8	18
99	125	4
122	122	7
126	127	7
70	70	8
63	63	4
5	5	10
115	122	4
113	113	5
78	89	3
24	24	17
93	98	2
16	16	7
40	42	2
44	125	4
41	44	2
73	73	12
13	13	5
42	42	2
92	96	4
128	129	2
49	49	4
143	143	4
108	109	12
40	40	8
116	135	3
83	83	7
12	12	5
106	106	7
132	132	6
129	129	8
66	87	3
70	92	2
46	46	8
15	15	4
4	5	1
113	128	2
147	147	9
103	103	6
28	30	1
38	38	13
127	127	11
78	78	7
9	11	2
6	7	6
123	124	5
131	132	10
39	39	7
32	32	6
79	123	1
118	128	1
101	101	1
64	64	5
143	144	2
126	128	3
138	139	2
71	71	3
48	48	5
130	134	1
23	127	4
70	127	5
76	76	2
95	95	2
112	132	1
22	35	2
67	68	1
152	152	2
18	18	8
48	49	6
28	35	3
16	19	1
68	139	3
33	33	6
22	22	6
95	98	1
21	26	7
53	54	4
117	154	1
70	128	2
23	25	4
114	119	2
65	68	2
94	99	1
37	37	3
26	32	2
137	137	6
123	123	3
46	47	4
99	100	2
98	143	1
10	42	2
37	40	1
110	110	14
57	76	1
41	41	8
9	9	10
11	11	11
112	133	2
93	99	1
99	99	12
102	102	7
24	39	1
9	35	4
32	35	3
57	64	3
63	86	3
120	120	16
21	22	1
50	50	5
137	138	4
64	76	2
40	41	1
106	123	2
19	19	4
83	86	2
29	47	2
102	103	8
118	119	2
6	6	11
27	44	1
150	150	10
87	87	3
142	146	2
120	142	1
105	105	5
132	134	5
74	75	2
23	23	8
6	28	1
62	62	2
67	70	2
36	38	3
31	31	9
46	114	2
89	90	2
84	99	1
67	90	3
7	7	9
107	107	5
13	15	1
54	54	2
27	75	2
30	40	2
29	45	1
93	94	5
89	121	5
128	128	7
57	128	2
68	121	1
32	34	6
2	3	1
127	148	1
64	95	3
67	67	4
84	85	5
66	72	1
4	113	3
116	128	2
83	85	2
27	29	8
70	129	5
100	100	2
127	146	2
56	65	2
20	46	5
153	153	9
26	31	5
49	56	3
79	125	1
8	29	1
88	120	3
123	128	3
72	72	1
19	109	1
98	99	2
33	38	1
85	85	2
141	141	2
112	131	2
65	67	4
111	111	2
149	149	3
92	107	1
80	81	2
8	9	5
139	139	3
39	55	4
113	124	1
6	9	3
12	13	1
96	124	2
35	36	3
117	148	2
112	113	2
24	42	1
6	109	3
68	84	1
24	25	1
80	88	1
3	3	1
152	153	4
116	122	2
142	142	1
4	42	2
12	41	4
41	42	1
35	39	3
114	114	11
27	27	5
121	122	5
53	124	2
117	117	2
8	41	1
68	68	4
75	78	3
84	84	4
117	118	4
65	65	2
95	99	2
36	36	4
50	84	1
19	25	1
121	145	3
75	82	1
72	73	3
80	80	3
113	131	2
83	84	2
30	30	7
68	140	2
65	101	1
87	98	4
98	121	2
82	82	5
112	129	1
51	51	2
4	4	4
39	132	2
6	8	3
116	148	1
34	39	1
55	106	2
49	80	2
66	78	7
16	41	1
96	123	3
70	131	1
8	31	1
126	126	4
58	58	1
6	29	2
129	130	3
92	139	1
144	150	2
96	153	1
4	109	2
48	119	2
79	79	1
54	56	2
66	92	3
117	122	2
64	96	1
66	67	1
22	31	2
113	154	1
138	141	1
3	9	3
81	81	1
44	122	1
53	53	2
55	55	2
96	119	1
69	85	1
87	125	1
96	96	3
26	26	1
56	88	1
104	108	3
53	109	4
66	104	3
113	129	1
136	138	2
23	32	1
20	25	2
131	131	2
143	145	5
81	84	1
41	100	2
63	112	1
67	85	3
96	97	2
34	38	1
140	140	2
6	54	4
82	85	1
122	125	1
4	6	6
42	43	2
90	106	1
126	143	1
74	95	1
68	102	3
62	120	1
95	96	4
48	112	1
139	140	1
57	69	1
4	8	2
109	109	1
87	88	2
47	47	4
22	26	2
63	77	1
103	107	1
42	122	1
23	39	2
41	122	1
132	133	1
77	86	1
41	123	2
10	36	2
122	123	6
74	74	1
48	50	1
97	125	1
68	136	1
148	149	1
81	101	1
74	93	2
48	120	2
16	46	2
71	72	4
77	128	1
45	107	1
19	119	1
119	120	1
5	6	1
27	47	2
72	75	1
40	46	1
105	106	1
66	70	1
3	4	1
67	77	1
34	34	2
69	70	1
2	108	1
52	97	1
95	97	1
12	14	1
29	50	1
5	29	1
5	109	2
34	37	2
97	124	1
20	20	3
14	47	1
54	55	1
23	31	1
130	130	2
49	72	1
82	105	1
105	125	2
70	82	1
22	23	5
37	42	1
108	108	1
70	75	1
23	24	1
34	35	1
28	28	1
22	104	1
66	85	1
100	126	3
137	146	1
151	151	1
134	134	2
44	124	1
30	107	1
70	90	1
82	92	2
91	107	1
151	154	1
124	124	1
20	22	1
70	132	1
66	68	1
57	57	1
3	45	1
70	114	1
23	30	1
33	35	1
88	125	1
93	93	1
14	15	1
