67	67	15
10	10	5
76	77	1
69	70	2
34	34	2
72	72	6
56	56	12
98	98	4
13	13	10
63	63	5
114	114	9
120	120	6
11	11	4
54	54	7
129	129	6
32	32	4
62	63	4
98	99	5
7	7	7
102	102	10
86	86	6
34	35	4
27	27	6
79	85	2
104	105	2
85	85	4
104	104	17
69	69	10
91	92	4
134	134	10
43	124	1
30	30	3
22	22	3
108	111	7
113	113	6
61	69	5
26	26	4
109	110	4
3	12	2
101	101	11
17	17	8
19	21	1
43	43	4
24	24	3
61	62	4
52	52	7
93	93	5
2	44	3
117	117	3
80	80	5
111	129	2
122	122	6
5	5	9
72	76	4
126	126	3
76	76	4
84	85	2
83	83	2
94	94	4
81	85	5
15	59	2
103	103	3
6	6	7
0	0	5
124	124	2
50	50	4
55	60	3
36	36	1
12	12	6
96	96	3
71	71	5
60	131	5
67	82	3
78	86	3
123	123	7
126	127	2
77	86	3
18	27	1
16	34	2
58	59	2
104	135	3
122	124	2
130	130	10
18	18	6
61	133	1
87	113	3
117	119	1
105	105	9
128	128	7
65	65	4
70	70	4
109	109	3
121	123	4
42	54	3
59	59	8
90	90	7
107	111	3
61	125	1
8	8	8
100	100	2
112	112	3
91	91	7
74	74	7
113	114	3
132	133	2
19	20	1
2	2	3
49	49	4
77	77	5
122	123	1
79	79	2
129	131	1
119	119	1
106	106	1
24	28	2
111	111	8
11	13	1
38	38	7
114	115	4
81	82	1
58	58	6
35	35	9
55	55	3
62	62	7
89	89	4
2	4	2
133	133	1
15	58	1
127	127	4
79	83	2
86	117	1
61	61	8
33	33	5
108	125	1
14	14	1
56	57	1
120	121	10
23	23	8
10	29	2
64	67	1
84	84	5
73	73	4
1	1	1
133	134	1
124	130	4
87	116	1
118	118	1
16	17	6
95	95	5
3	3	7
100	115	2
81	81	5
43	50	1
25	26	2
121	121	4
12	13	4
61	105	2
6	8	2
16	16	1
60	61	4
57	57	2
97	97	3
99	102	1
75	76	1
28	29	3
45	56	2
29	29	10
88	88	3
25	29	1
0	13	2
83	84	1
81	112	1
131	131	3
8	9	2
25	25	6
14	15	3
75	75	7
96	97	4
13	123	1
125	125	3
68	82	4
7	8	1
1	13	1
121	122	2
68	68	1
108	112	2
127	128	2
66	76	1
117	118	1
45	48	2
26	28	3
7	103	4
68	69	3
60	60	7
44	44	1
73	74	1
115	115	4
9	44	1
120	122	1
32	33	3
89	90	2
107	124	2
22	23	2
53	78	1
100	111	1
112	129	3
83	85	1
116	118	3
82	108	1
20	20	3
86	113	1
88	116	1
31	31	1
22	24	1
29	30	4
129	134	1
54	55	1
87	114	1
47	47	2
0	2	1
131	132	1
9	9	2
92	92	2
64	64	2
130	132	1
33	35	2
44	50	1
88	89	2
130	131	1
10	12	1
52	54	1
71	76	2
24	25	1
45	45	2
59	76	2
13	38	1
21	22	2
21	21	1
127	134	1
110	129	1
14	46	1
60	132	2
131	133	2
28	30	1
5	37	1
56	60	1
106	107	1
45	118	1
