147	147	4
0	137	3
121	121	4
77	77	3
105	105	6
18	19	3
75	75	4
30	30	1
2	2	5
100	104	1
82	82	3
46	46	4
10	11	4
113	114	1
6	6	5
21	36	2
121	122	5
26	26	11
122	122	3
80	80	2
81	81	3
115	115	4
50	103	1
82	90	1
2	71	4
148	148	2
107	135	1
111	141	3
15	41	1
25	25	4
36	38	6
70	70	6
42	43	2
31	32	3
124	124	9
34	34	6
11	11	11
104	104	4
4	4	5
84	84	7
46	95	2
112	128	2
8	8	6
138	138	6
125	125	3
1	140	1
37	37	4
18	29	2
88	88	5
109	111	6
28	28	1
29	29	5
102	102	2
88	89	6
142	142	8
80	98	1
118	146	1
23	24	4
71	71	4
90	90	6
110	127	1
140	140	3
118	118	3
109	124	2
23	23	4
7	8	2
156	156	4
1	1	4
36	39	3
62	67	3
16	16	5
109	110	3
81	92	3
48	48	1
87	87	2
17	20	2
127	127	5
64	70	5
70	71	2
43	45	1
109	113	2
26	27	7
116	116	3
12	18	3
11	12	3
153	153	2
108	124	7
54	99	1
17	34	3
120	120	3
9	10	5
3	3	1
2	99	4
43	97	1
73	73	1
86	86	3
110	112	2
123	123	4
84	93	2
92	92	3
84	94	4
53	63	1
46	54	3
46	97	1
53	54	3
140	141	4
66	69	2
78	78	4
106	137	1
51	51	2
155	156	3
6	23	2
106	106	5
139	139	3
42	42	1
5	5	3
114	114	6
45	101	2
55	55	4
65	65	3
138	139	3
2	100	1
106	141	2
131	131	4
129	130	2
33	33	2
6	44	3
151	151	1
38	40	2
134	135	2
103	103	3
112	112	3
43	43	1
137	140	4
119	119	1
146	146	7
13	40	1
116	146	2
111	111	3
117	143	1
8	9	1
117	117	2
67	68	2
44	44	2
41	41	3
132	134	2
14	42	1
97	98	1
157	157	1
50	50	1
92	93	3
153	158	2
45	45	3
32	32	3
149	149	2
128	128	8
44	45	4
151	155	1
135	137	1
126	126	3
132	132	2
148	149	1
47	47	1
22	28	3
92	94	1
15	15	6
4	104	1
86	87	1
14	20	2
13	13	3
13	14	1
85	85	2
50	57	2
67	70	5
90	91	1
68	68	2
33	34	1
83	84	3
133	133	4
38	39	1
141	154	1
22	22	2
14	14	1
1	2	3
94	94	1
135	135	1
13	42	2
31	31	1
110	111	2
40	42	1
100	100	3
48	77	1
96	98	6
6	84	1
53	100	2
133	134	1
127	152	1
67	157	2
35	35	1
55	56	1
158	158	2
144	145	2
54	57	1
21	21	3
96	96	4
150	150	3
155	155	3
112	113	1
115	116	1
141	152	1
86	108	1
98	98	1
142	145	1
46	101	1
39	39	3
99	100	1
49	101	2
12	12	1
143	143	1
134	134	1
0	0	1
95	96	1
79	81	1
36	37	2
75	139	1
20	39	1
82	88	1
141	155	2
67	67	2
52	52	1
11	36	1
110	110	1
106	140	1
64	71	1
