16	16	7
11	11	3
118	122	2
69	70	1
47	47	6
119	144	1
150	152	6
117	117	9
98	99	9
26	26	13
97	97	8
17	19	2
15	20	3
109	109	7
147	148	7
39	39	5
99	99	2
129	129	7
44	46	5
13	13	6
47	48	4
85	85	4
66	66	6
66	67	6
27	27	1
131	131	9
35	35	4
77	77	7
132	133	3
69	69	6
63	65	2
147	147	14
107	107	1
119	142	1
23	23	6
65	105	3
140	140	5
25	25	8
20	21	3
44	44	3
46	46	5
105	105	2
143	145	3
138	139	3
33	33	4
20	20	3
30	48	1
95	95	2
84	84	8
62	102	4
78	135	3
139	139	5
115	141	4
106	106	2
145	145	6
76	77	2
67	68	3
76	76	6
67	67	5
68	68	2
44	52	5
102	102	1
86	88	4
37	37	5
47	68	2
130	132	2
130	130	3
23	37	5
135	135	6
10	10	6
148	148	6
73	74	3
71	71	5
122	122	4
21	21	17
105	106	1
118	118	2
82	82	3
70	70	5
48	48	3
17	17	5
120	123	1
19	20	4
14	14	7
114	114	1
6	94	2
72	72	1
154	154	7
84	85	6
41	41	2
136	136	7
153	153	4
96	96	2
131	132	10
19	19	8
129	130	2
143	143	3
113	144	3
95	96	2
112	112	2
4	10	1
118	119	2
74	74	1
104	104	6
136	137	2
49	50	4
125	126	3
21	22	3
34	43	4
24	40	3
22	22	7
134	134	1
142	144	1
34	38	4
145	150	3
137	137	3
77	100	2
4	94	4
62	63	2
76	79	1
119	123	2
15	16	3
94	95	1
6	6	3
103	103	3
149	149	2
16	17	1
40	40	3
43	43	1
64	64	1
8	8	2
34	41	2
5	8	2
123	124	1
116	116	2
46	48	2
111	112	2
108	108	5
149	150	4
4	92	2
46	104	1
103	104	1
146	146	4
31	31	7
2	3	4
63	63	1
102	103	5
128	128	2
7	7	8
22	23	2
36	36	2
101	103	2
106	107	2
27	29	1
150	150	2
100	102	3
110	110	5
100	100	5
26	28	3
9	10	1
80	147	2
38	85	1
13	14	3
80	82	1
132	132	8
29	29	3
75	75	1
35	42	1
37	41	2
123	123	1
36	37	2
117	136	1
44	49	1
120	125	2
54	54	1
131	133	3
64	65	2
83	84	2
24	25	1
15	15	2
87	87	2
85	86	2
80	80	1
121	126	1
24	24	2
39	53	1
28	29	2
67	107	2
117	124	1
107	110	1
121	122	1
65	66	1
108	109	4
42	53	1
99	101	1
24	37	1
42	42	2
146	148	1
88	88	2
50	50	2
77	135	1
93	93	4
125	125	2
113	150	6
115	116	1
45	46	1
56	56	2
76	81	1
26	32	1
120	146	1
118	152	2
97	98	1
3	3	3
4	6	1
92	93	2
77	83	1
77	122	1
75	79	1
49	49	2
45	48	1
4	4	1
110	111	1
39	40	1
152	152	1
18	18	2
77	128	1
112	114	1
93	97	1
55	56	1
63	105	1
82	86	1
