13	13	8
9	11	6
66	66	14
48	49	2
73	73	2
34	34	19
28	28	7
53	53	11
75	75	7
19	19	7
78	78	15
58	58	9
25	80	1
48	54	1
6	32	1
21	21	10
7	7	4
71	71	8
6	6	16
78	85	2
12	14	5
72	72	8
25	25	6
50	55	2
20	21	2
22	22	13
85	85	11
26	26	6
57	57	15
47	59	2
67	70	3
64	65	1
61	61	5
15	15	6
59	59	10
4	13	2
70	71	2
64	64	15
9	10	3
4	4	3
48	48	18
5	5	9
2	51	2
31	31	4
49	52	4
79	79	4
21	22	8
52	54	3
0	1	19
19	22	4
54	74	1
63	63	11
13	48	1
69	72	3
34	48	3
50	53	5
9	31	9
67	67	21
1	1	14
51	51	12
74	84	3
24	24	3
27	54	1
21	26	5
86	86	14
47	50	2
88	88	6
87	87	6
57	58	7
18	19	8
51	54	1
6	26	6
47	84	1
8	27	1
54	54	5
46	83	6
4	16	3
27	27	9
56	56	13
49	57	3
17	17	7
73	74	3
64	67	4
3	3	12
50	50	8
35	35	7
50	51	6
12	24	8
84	85	2
6	12	2
63	78	4
65	65	11
8	8	13
4	15	1
81	81	7
46	46	1
18	18	5
30	30	4
49	49	2
5	13	4
0	0	7
52	84	5
22	23	4
88	89	1
48	64	5
50	61	2
69	69	9
2	4	2
83	83	2
82	83	4
8	30	4
6	8	1
70	75	4
12	12	8
14	20	1
52	59	2
23	23	9
53	54	3
6	13	1
51	53	4
20	20	7
89	89	3
56	61	8
14	28	1
1	2	2
54	55	6
10	10	1
6	17	4
56	59	2
8	31	3
9	9	6
84	84	6
77	77	5
80	88	1
11	31	2
3	16	1
5	27	3
47	47	6
23	26	1
80	82	2
64	77	1
82	82	2
29	29	5
4	5	4
67	68	1
68	68	5
0	19	1
57	59	2
3	19	2
24	25	4
49	50	3
67	69	2
72	86	1
76	76	2
55	55	7
85	88	6
73	84	1
58	60	1
10	31	3
14	14	4
56	63	3
63	84	1
60	60	2
78	79	2
51	55	3
70	70	2
33	33	3
2	3	1
56	66	1
74	86	1
80	80	6
74	76	2
55	58	1
52	75	2
3	22	1
72	73	1
29	30	3
54	65	1
62	62	4
52	67	3
64	87	6
54	60	2
7	8	2
6	7	1
49	55	1
52	53	4
3	49	1
11	11	3
9	23	1
80	81	1
26	27	3
5	17	2
57	64	1
65	79	2
74	74	1
59	60	3
13	79	1
47	48	2
8	15	1
60	61	3
58	63	1
51	60	1
66	74	1
77	80	2
81	90	1
55	73	2
32	32	2
79	81	1
71	75	1
9	29	2
53	67	2
49	77	1
31	33	1
8	16	2
61	62	1
34	35	1
65	77	2
16	28	3
13	27	1
62	86	1
48	50	1
86	89	1
66	67	1
63	64	2
75	76	1
8	9	1
69	77	1
12	15	1
58	66	1
52	56	3
65	66	2
21	23	1
15	25	2
75	77	1
80	89	1
71	78	1
54	73	1
57	76	1
52	66	1
5	12	1
6	16	1
28	30	1
7	27	1
68	69	1
70	80	1
55	56	1
4	21	1
25	26	1
68	87	1
17	80	1
26	46	1
