45	45	1
154	154	33
146	146	20
143	143	5
148	148	24
156	156	16
70	70	15
76	76	6
153	153	16
122	123	15
151	151	22
12	117	8
69	69	14
67	67	39
29	29	24
140	141	7
32	129	4
81	81	18
25	25	18
46	46	19
11	12	8
68	68	36
128	128	14
80	133	1
19	50	1
120	120	22
44	44	21
16	16	17
150	151	7
113	116	2
124	124	18
112	112	27
85	86	14
108	109	3
99	99	25
22	40	3
34	34	40
68	116	1
105	106	12
147	147	13
36	36	32
92	92	18
28	72	4
116	120	6
27	27	14
54	54	28
119	120	9
40	40	21
52	53	7
4	5	1
16	114	3
24	24	26
123	123	20
110	112	8
75	75	17
133	133	25
142	142	13
130	130	5
48	49	14
91	91	33
115	116	8
14	14	24
145	146	4
37	40	6
28	134	3
121	156	5
104	104	13
79	137	6
57	57	10
66	68	9
110	110	20
77	77	18
30	30	14
155	155	17
107	107	17
32	36	3
141	141	19
26	26	19
129	130	12
120	122	5
3	4	5
107	108	8
73	73	30
9	9	13
52	52	15
37	37	24
8	8	17
68	69	9
120	121	17
77	151	2
24	35	3
87	87	12
121	122	11
106	110	7
12	13	6
109	111	7
98	98	27
32	33	5
2	3	8
144	144	13
33	36	1
157	157	6
39	39	14
21	22	10
43	43	36
17	18	14
111	111	18
32	138	2
90	91	7
93	93	21
131	132	7
88	88	14
114	114	15
66	66	15
135	135	16
24	36	2
113	113	14
145	145	17
17	19	8
11	11	25
4	4	25
3	3	20
2	2	19
96	97	10
33	33	13
109	109	17
35	35	12
75	150	2
12	12	21
141	146	3
28	96	3
87	89	7
116	116	21
70	71	5
106	106	21
28	29	14
140	140	19
94	94	34
22	131	3
64	64	10
79	81	10
50	51	10
67	68	19
135	137	3
129	129	20
131	131	28
37	70	1
41	42	8
19	19	22
67	70	6
138	138	16
153	154	8
121	121	24
63	63	19
84	84	5
0	1	3
18	18	13
18	37	5
139	139	15
158	158	22
78	146	1
109	112	2
15	15	15
91	92	5
55	55	18
1	66	2
69	158	3
42	43	5
89	89	17
126	126	5
6	6	18
148	149	8
31	107	3
134	135	8
92	96	3
129	131	4
47	47	25
45	46	5
136	136	25
38	39	9
153	158	6
81	82	7
71	71	14
79	79	17
51	52	10
79	144	3
114	115	3
30	107	3
13	13	18
49	49	12
119	119	24
117	117	16
101	101	6
28	28	17
33	147	3
0	159	1
128	141	3
27	29	3
17	17	19
97	98	7
37	38	5
70	158	1
74	74	5
100	100	10
87	88	6
20	20	6
118	118	23
90	90	17
38	129	2
20	21	6
35	44	1
20	22	6
105	105	10
144	145	4
31	64	3
110	155	2
39	40	2
45	47	2
38	38	13
67	136	2
142	152	1
83	101	2
112	142	5
56	62	7
43	45	4
33	34	7
122	122	9
19	20	1
1	2	2
76	77	5
31	136	8
31	31	19
1	101	4
99	105	4
41	44	4
15	114	2
42	42	5
125	125	9
108	108	13
32	32	12
67	69	5
1	1	5
77	140	3
104	105	7
138	139	1
41	41	23
114	116	13
28	92	7
17	22	4
79	80	2
36	37	4
128	129	3
112	121	1
110	111	5
3	146	3
0	0	10
131	134	1
5	5	15
152	152	12
19	22	2
123	124	1
17	112	1
23	24	6
80	80	22
28	30	8
117	118	6
126	127	8
51	51	13
79	82	1
56	56	23
34	35	4
6	7	3
130	138	4
54	56	5
49	156	1
75	106	3
10	11	3
28	31	1
77	150	1
150	150	16
78	81	2
137	137	25
9	15	3
82	85	8
108	152	1
54	55	8
31	32	11
8	9	4
69	127	2
112	113	2
89	90	3
138	141	1
80	137	2
82	82	6
53	53	4
97	97	20
117	119	2
130	131	1
134	134	8
102	102	8
98	99	4
109	110	10
95	96	4
93	94	2
46	49	2
110	113	5
94	95	7
114	117	5
83	85	7
14	15	4
9	10	6
103	103	16
68	71	3
43	94	1
47	48	8
115	115	9
36	38	7
7	7	14
93	138	3
115	118	2
88	89	14
125	126	11
132	133	8
85	85	7
32	70	3
79	95	4
144	152	4
139	140	5
115	117	2
135	150	3
38	70	3
86	86	14
18	20	1
111	112	2
96	96	9
48	48	13
34	38	1
78	78	12
29	92	3
48	56	4
1	4	2
155	156	11
138	150	1
50	50	8
127	127	13
21	38	1
30	137	2
23	23	9
69	70	4
21	21	9
45	55	3
18	36	2
95	95	9
75	107	4
31	38	2
22	22	9
2	5	2
82	145	2
50	52	4
92	138	2
133	134	4
139	141	1
99	100	3
33	94	2
31	63	2
125	140	4
19	36	1
116	117	5
46	157	2
137	138	9
80	81	3
13	127	1
88	90	6
29	72	1
30	93	2
110	122	4
45	54	2
87	99	2
106	107	3
157	158	2
23	131	2
79	147	1
151	152	4
26	27	7
153	155	1
61	61	1
26	28	2
25	26	8
66	137	1
66	69	4
20	52	3
18	19	2
11	16	1
156	157	1
124	126	6
27	32	1
84	104	2
122	156	3
16	17	6
46	53	2
100	102	1
49	71	5
61	112	4
120	123	2
39	43	3
15	117	3
16	107	2
0	4	3
117	126	2
10	10	8
132	132	7
57	157	3
84	85	3
48	123	2
130	136	4
29	73	1
83	83	6
44	45	1
125	128	3
71	157	1
31	69	1
13	14	2
2	4	4
8	10	3
55	57	3
83	86	2
22	95	1
104	106	3
131	138	1
41	56	3
46	47	5
130	132	1
23	25	2
17	107	1
80	82	2
65	65	8
17	94	1
120	141	1
127	139	4
94	132	3
36	42	1
116	126	4
124	127	4
21	39	4
0	3	2
27	48	3
43	51	2
51	53	1
33	143	2
139	147	2
53	54	3
124	125	11
149	149	5
73	100	6
51	126	4
71	144	5
18	22	1
93	95	5
28	71	3
40	130	2
152	153	8
148	157	4
131	136	2
34	146	2
25	73	1
68	143	1
142	149	1
22	23	1
100	129	3
40	42	2
43	44	2
77	80	2
114	120	2
149	158	2
34	39	3
62	62	6
84	97	2
92	93	3
47	49	5
113	114	3
115	122	5
28	93	5
121	155	2
63	64	6
15	111	2
122	125	3
121	157	1
128	140	1
65	66	1
126	140	3
46	55	3
125	138	1
72	72	1
101	102	1
38	40	2
142	144	1
16	127	3
115	121	1
155	157	3
71	72	2
93	96	1
136	137	2
48	53	2
22	43	3
33	70	2
0	147	2
102	105	3
45	56	1
131	139	2
34	37	2
127	128	5
43	55	1
28	44	1
24	131	1
10	12	2
111	127	1
151	154	2
8	11	2
107	142	3
40	41	4
78	79	1
27	28	1
10	14	2
50	126	1
13	15	1
136	149	1
15	16	3
39	42	1
56	58	1
91	93	1
82	86	3
28	133	2
29	30	2
0	146	1
54	57	1
1	3	1
86	87	1
103	105	1
107	109	1
48	71	1
141	144	1
82	83	1
21	153	1
83	84	2
107	112	2
62	63	3
147	148	1
107	128	1
146	148	3
25	27	2
87	101	2
28	95	1
32	45	1
149	152	1
55	56	1
123	126	1
14	117	1
49	50	1
24	135	1
77	78	2
7	11	1
152	154	1
95	97	1
19	51	2
68	70	1
39	137	1
30	73	1
91	96	1
158	159	1
44	93	1
10	26	1
141	151	1
149	156	1
52	54	1
