50	50	1
123	124	2
148	148	3
86	86	11
6	140	5
97	97	1
6	112	1
146	146	14
126	135	3
68	69	1
8	9	2
37	37	4
142	142	2
105	111	3
54	54	7
85	86	3
43	64	3
56	87	4
99	99	5
28	30	1
132	132	11
105	105	9
34	34	4
71	71	3
62	86	1
100	101	7
95	96	6
133	133	5
118	118	13
8	112	1
40	46	2
83	84	3
113	113	6
35	40	1
104	121	2
57	57	13
128	128	6
14	14	4
51	52	3
33	45	3
127	128	3
75	75	3
104	139	2
35	37	1
107	107	7
84	85	5
39	45	6
66	68	5
71	76	3
124	128	3
31	34	1
35	38	2
23	23	6
115	116	1
19	19	9
30	34	2
53	53	1
153	153	3
12	13	5
47	47	4
112	139	2
139	143	1
109	118	3
144	144	6
6	7	1
42	43	5
89	91	3
143	143	3
101	101	4
143	150	2
17	33	1
95	134	3
40	40	2
5	5	3
49	49	4
151	151	4
111	111	7
46	46	2
110	110	5
43	43	3
93	132	2
139	139	3
26	26	1
96	96	2
146	148	1
67	96	1
58	58	1
2	3	2
106	106	6
132	133	4
70	70	3
128	135	3
10	11	6
44	44	1
143	145	4
66	89	1
19	58	3
141	141	2
10	25	2
7	7	4
124	124	10
30	40	1
100	130	2
119	119	2
127	136	1
94	134	2
82	82	3
26	34	4
101	102	2
73	84	2
96	97	8
90	95	1
39	39	5
19	21	2
103	121	3
17	17	6
119	120	3
47	52	1
73	73	4
130	130	4
121	123	2
20	20	6
116	116	2
19	34	1
98	98	2
69	118	1
104	104	4
62	73	1
78	79	2
112	115	3
16	18	3
14	15	4
145	146	3
107	108	1
145	145	4
75	76	3
111	112	4
35	35	3
32	32	2
79	79	1
144	148	2
108	108	5
84	84	4
28	28	2
2	2	1
103	103	2
103	145	2
85	85	3
74	74	3
129	129	1
8	104	1
48	49	1
43	67	2
13	13	1
111	147	2
76	78	2
139	141	1
96	98	2
31	32	1
34	63	3
24	24	4
16	17	3
77	77	2
9	10	1
69	69	3
35	36	2
102	102	1
135	136	1
9	9	1
71	74	2
43	44	1
21	21	2
93	93	4
28	29	1
27	27	2
80	82	2
30	31	2
81	81	1
74	79	1
100	100	6
4	4	2
87	87	2
106	108	3
37	41	1
12	12	3
65	65	1
6	6	4
122	122	9
22	22	2
105	139	2
50	53	1
28	109	1
149	149	2
133	134	1
105	106	1
15	16	1
16	45	2
115	117	1
51	53	2
70	119	1
64	64	1
97	98	1
71	78	1
30	30	1
131	131	1
80	80	2
10	24	1
121	121	5
93	133	3
27	28	1
124	125	1
45	45	1
33	33	2
78	78	1
151	152	1
120	120	1
134	134	2
53	54	1
147	148	2
51	51	2
48	50	1
10	15	2
138	138	2
95	99	2
109	109	1
126	145	1
26	33	2
10	10	1
125	127	2
38	63	3
103	104	1
15	33	1
62	79	1
21	22	1
112	140	1
150	150	1
69	97	1
24	25	2
154	154	2
137	144	1
42	42	1
56	56	1
38	38	2
16	33	2
103	147	1
129	130	1
66	67	2
112	112	1
19	31	1
123	123	1
55	56	1
4	25	1
4	8	1
68	119	1
66	66	1
136	136	1
18	19	1
112	113	2
120	122	1
