70	71	9
101	101	11
115	115	24
34	35	16
116	116	7
47	49	7
31	33	4
65	65	25
122	122	6
17	17	11
16	16	6
135	136	5
103	106	5
48	48	13
112	112	5
47	61	4
1	1	4
20	20	17
119	119	14
139	140	15
79	80	7
16	18	3
3	4	4
73	73	15
106	106	7
118	118	16
30	30	12
40	40	5
140	140	8
15	15	11
111	114	2
95	96	3
144	144	13
78	84	8
90	90	17
75	75	16
28	28	16
36	37	7
58	59	5
0	2	3
95	117	5
38	38	16
91	91	14
61	62	2
29	29	18
122	125	4
76	77	3
52	52	11
42	42	14
110	110	8
120	120	7
22	26	3
129	129	5
38	40	4
69	70	4
109	109	12
127	128	5
71	73	10
110	111	8
120	121	6
78	78	5
18	18	12
95	95	10
4	4	4
119	122	7
69	74	6
68	68	12
63	63	9
136	136	8
100	101	2
105	105	7
2	2	7
103	103	5
66	67	7
77	80	9
96	97	4
19	19	7
96	98	9
122	124	2
133	133	14
9	9	12
138	138	8
62	65	4
31	32	7
141	141	4
5	5	6
84	89	2
41	41	22
122	128	1
33	33	16
4	6	7
80	80	15
29	33	1
90	91	9
113	113	6
128	128	8
117	117	10
140	141	13
124	124	7
102	104	3
123	125	5
99	101	2
137	137	6
121	121	15
84	84	3
133	134	6
130	131	9
119	120	14
100	100	4
76	76	9
55	58	3
43	47	4
94	94	10
75	76	6
54	56	1
111	115	1
57	72	2
77	78	8
97	98	9
29	32	1
13	13	4
53	53	16
107	107	9
139	141	4
49	49	10
88	88	2
27	32	3
92	92	3
122	123	6
33	34	11
69	69	8
24	24	10
105	106	2
104	121	5
136	137	7
117	121	1
114	115	2
19	21	9
49	51	1
0	26	3
134	134	6
19	35	6
34	34	10
64	64	3
8	8	3
113	114	5
38	39	2
135	135	6
89	91	5
23	26	6
71	71	9
54	54	6
93	93	10
89	89	8
116	118	4
78	79	7
32	33	3
74	75	4
62	66	2
37	38	16
33	35	2
111	111	9
12	21	4
105	107	4
145	146	2
13	14	5
128	131	1
68	70	5
14	15	5
20	24	3
133	135	4
77	84	4
97	97	7
9	13	2
21	27	1
27	27	5
92	93	7
80	81	4
98	98	7
87	87	7
26	27	6
142	142	10
23	24	5
1	4	1
37	39	2
71	75	3
30	31	6
59	59	4
74	74	12
102	102	17
88	92	3
123	124	5
10	11	8
121	122	5
57	57	12
29	35	3
23	25	4
69	71	2
134	136	7
50	50	5
101	103	3
3	8	2
37	37	10
56	62	2
94	95	7
101	102	5
107	109	2
111	112	8
117	118	8
112	113	14
3	6	5
71	77	2
51	52	4
41	43	2
124	129	3
83	84	3
95	98	6
82	84	6
56	57	2
3	26	5
96	96	3
129	131	8
24	27	2
58	72	3
62	62	5
94	96	1
140	142	6
8	11	8
43	43	8
109	110	2
82	82	13
54	59	1
142	143	1
108	108	7
38	92	1
126	132	1
31	31	9
30	32	1
77	77	7
97	103	7
13	21	1
102	103	6
21	21	3
26	28	3
62	63	4
2	3	1
121	125	4
67	67	11
99	99	4
51	56	4
120	124	1
115	121	1
140	143	3
19	27	1
139	139	2
88	90	3
56	56	5
114	114	8
87	116	3
3	3	1
92	96	3
47	58	1
136	138	1
40	41	1
2	4	6
60	60	10
39	39	6
8	9	5
61	61	5
71	72	1
36	36	6
14	14	3
82	83	2
105	133	4
79	89	4
80	84	2
132	132	3
6	6	2
48	98	2
52	57	1
118	119	8
33	36	1
112	114	2
106	107	5
53	61	5
21	22	2
70	70	7
132	133	4
52	53	3
72	73	3
6	23	2
87	117	3
110	114	2
104	104	11
111	113	4
125	125	3
73	76	2
134	139	4
20	21	5
10	10	7
27	30	1
72	72	5
26	26	8
85	90	5
47	50	3
59	62	3
87	93	1
60	62	2
144	145	2
89	90	4
25	40	1
16	17	4
102	119	1
51	51	4
103	104	4
68	69	4
28	33	1
32	32	5
2	23	3
135	140	1
87	88	5
81	82	5
35	35	4
50	52	2
11	12	2
79	79	6
22	22	10
29	31	1
119	123	1
39	40	7
1	5	1
19	34	1
127	127	4
83	85	1
48	50	2
47	47	3
3	5	1
84	85	4
65	67	3
58	58	4
4	23	3
66	66	4
141	146	2
34	36	7
126	126	8
73	75	1
25	25	7
103	107	3
138	140	3
97	101	2
24	25	2
132	136	2
81	81	1
57	60	5
121	123	3
60	63	1
130	130	4
127	129	2
96	100	2
123	123	3
69	72	2
113	116	1
62	91	1
50	60	2
96	116	3
134	135	1
138	139	4
48	51	2
83	83	3
28	29	2
55	56	1
49	50	2
124	126	1
17	18	1
53	58	1
104	105	6
28	64	1
120	122	4
63	64	6
121	124	2
5	6	3
128	129	2
11	11	5
133	137	2
27	33	3
146	146	1
116	117	2
40	42	1
135	137	5
103	119	2
75	77	1
78	85	3
56	60	1
59	77	2
6	8	2
41	42	2
88	91	1
59	64	1
103	123	1
114	121	2
15	21	2
19	20	2
36	39	1
35	36	1
57	59	1
56	61	1
100	121	1
86	86	1
126	127	1
15	17	5
99	100	1
142	144	2
52	56	3
138	141	3
74	76	2
132	134	2
53	54	1
91	93	1
47	55	2
50	91	4
122	127	2
71	84	1
126	129	2
89	92	1
131	134	2
35	37	2
100	123	1
86	87	2
130	134	1
55	55	3
56	58	1
23	23	1
102	106	2
61	64	2
70	90	2
63	66	1
57	58	2
85	87	2
98	100	2
32	35	1
84	86	3
91	92	1
145	145	3
76	79	1
79	84	1
10	16	1
65	66	1
110	112	1
13	15	1
89	113	1
54	60	1
98	99	1
5	9	1
78	80	2
57	84	1
63	65	1
53	57	1
107	108	1
73	74	1
95	99	1
120	123	1
82	85	1
135	138	2
38	43	2
9	10	3
22	27	2
123	126	3
125	126	1
67	68	2
122	126	2
36	40	1
129	132	1
61	63	1
30	34	2
15	18	1
84	90	1
60	93	2
139	143	1
57	93	1
81	83	1
49	54	1
96	103	1
117	119	1
129	135	1
143	143	1
52	54	1
87	89	1
108	135	1
0	3	1
102	118	1
129	130	1
112	115	1
75	78	1
85	95	1
