145	145	2
149	161	2
233	233	9
225	225	5
77	77	17
43	62	1
226	226	7
74	74	12
15	15	18
153	157	9
139	139	8
198	198	15
120	137	4
24	24	5
146	146	7
106	106	4
62	114	3
36	36	8
172	240	4
46	206	1
113	200	2
240	240	4
79	81	6
71	71	12
101	101	7
86	86	7
210	210	6
191	191	9
77	78	2
70	70	14
165	165	13
163	168	4
31	87	3
58	58	7
159	228	1
239	240	3
129	129	5
157	157	18
215	216	3
4	5	1
27	27	12
229	230	3
195	195	5
73	73	6
20	24	1
169	187	5
228	232	6
0	21	3
177	177	11
128	128	13
57	57	9
133	135	2
163	163	10
100	117	1
104	104	3
17	18	5
33	33	2
204	209	1
182	183	5
105	105	3
159	165	2
109	109	11
236	236	9
228	231	1
125	146	4
18	18	4
220	220	3
124	124	5
83	83	10
134	136	2
21	21	5
171	171	6
42	42	7
69	69	10
2	2	7
2	7	1
104	132	3
209	210	4
4	4	5
0	1	6
215	215	13
198	199	2
13	14	3
155	192	4
108	109	10
133	134	7
17	41	2
4	6	4
149	149	14
160	160	4
113	113	5
45	45	6
125	125	2
178	178	11
117	124	2
19	51	5
9	43	1
121	121	7
202	202	15
66	109	7
168	215	1
28	28	8
207	207	5
217	217	6
199	199	12
141	141	4
219	219	5
103	105	1
161	161	7
114	115	3
98	99	2
120	120	3
159	185	6
64	64	11
26	26	9
98	98	3
201	212	4
114	126	1
136	136	6
65	65	7
221	223	6
29	30	9
123	125	1
47	47	12
100	100	21
183	183	10
176	177	3
117	118	3
202	208	4
3	42	5
74	75	5
138	138	5
33	34	3
22	23	5
221	231	5
229	229	5
164	164	5
115	115	4
158	158	9
51	51	9
216	217	2
43	43	15
114	118	5
5	8	2
196	196	6
112	112	2
20	38	1
230	231	3
214	214	5
162	171	4
25	25	5
74	136	3
108	108	12
119	119	10
168	168	4
228	228	7
232	232	12
181	181	10
205	205	7
37	38	1
76	77	4
16	16	9
22	33	4
235	239	3
51	52	4
132	132	4
142	143	2
188	189	9
174	174	2
166	166	5
130	130	6
211	211	5
122	123	1
129	132	3
179	219	2
44	49	2
230	230	12
105	108	1
140	230	1
15	24	3
10	10	2
106	109	1
169	169	7
3	4	7
97	97	7
203	203	7
165	223	4
30	32	1
163	211	3
60	60	7
137	137	5
137	138	4
41	78	4
38	38	2
52	52	12
176	176	11
184	185	6
6	35	5
206	206	15
14	14	2
179	179	15
32	73	2
209	220	1
223	223	3
63	63	9
115	116	9
46	138	4
143	143	3
147	147	15
13	13	2
204	204	10
150	150	9
152	194	2
40	80	7
88	88	2
15	35	1
70	172	2
193	193	16
100	101	2
61	61	12
103	103	10
115	117	1
57	58	10
19	19	6
195	196	3
220	223	2
204	205	6
83	84	7
209	209	5
46	46	15
40	126	1
186	186	4
31	34	2
142	225	2
19	52	1
125	126	1
192	192	4
208	208	4
201	201	5
106	141	4
175	175	6
182	182	6
43	45	1
70	206	2
121	135	4
5	5	8
6	6	7
75	118	2
135	135	11
238	238	11
114	114	3
184	184	6
220	224	3
185	185	8
81	84	5
66	66	5
44	45	5
12	13	3
68	69	5
30	30	8
80	80	10
78	78	4
159	159	5
68	68	2
228	230	1
160	175	3
221	221	4
7	8	8
150	212	1
54	54	2
24	54	5
71	112	3
78	80	2
213	213	3
234	237	1
242	242	6
59	59	5
81	81	5
185	211	1
221	224	3
111	120	4
239	239	11
193	194	1
116	116	3
224	224	11
99	99	10
116	117	1
210	211	1
186	187	6
145	146	2
56	125	3
20	23	3
133	133	5
18	19	4
84	84	4
168	222	3
189	189	4
227	229	1
3	22	5
221	227	3
199	200	2
25	29	2
164	165	3
99	148	1
17	17	9
140	143	2
9	9	4
177	178	1
237	237	5
49	52	1
158	174	4
0	16	1
46	47	4
167	198	4
79	79	6
65	66	2
197	197	7
8	8	8
185	224	3
9	69	2
218	218	6
154	156	2
110	110	2
48	48	15
20	20	3
185	195	5
156	156	4
53	54	1
184	218	3
224	233	1
129	131	1
159	226	4
44	205	4
153	226	2
199	210	2
5	34	2
37	37	3
192	222	2
189	197	3
155	169	2
118	119	2
129	133	1
162	162	9
25	47	2
7	7	10
158	224	1
17	22	2
224	226	3
103	104	1
27	76	1
183	186	4
75	77	3
70	112	1
153	153	12
41	41	7
102	102	8
179	180	2
40	40	7
121	137	1
30	55	1
220	221	4
124	144	2
220	231	1
184	188	1
10	42	2
22	22	3
224	225	1
200	200	4
212	212	2
30	76	1
163	167	3
173	219	2
144	146	3
115	126	5
190	216	1
142	142	3
102	194	2
29	29	9
72	72	7
0	2	4
11	12	3
12	12	5
3	17	2
182	228	3
197	227	2
1	41	1
48	98	3
91	91	2
154	158	1
107	107	4
14	15	1
222	222	2
216	216	2
120	134	2
71	74	2
55	55	9
152	153	4
220	222	1
75	75	4
130	218	4
49	50	2
66	240	2
31	31	2
76	76	2
67	68	1
36	69	2
2	16	1
17	20	1
180	180	7
158	162	3
1	1	2
85	88	1
81	82	1
160	165	4
46	207	1
100	194	2
202	219	3
44	44	12
194	194	8
9	10	2
50	64	2
55	113	3
33	36	1
89	89	1
205	206	1
144	144	4
118	126	3
62	112	3
155	155	3
57	124	2
96	96	4
53	53	2
221	230	2
0	17	3
204	207	2
85	85	5
84	85	1
210	229	3
113	207	2
42	126	2
173	174	3
188	188	2
45	129	1
147	161	1
31	35	3
132	133	1
152	160	1
181	183	2
229	231	1
82	82	3
214	216	5
95	109	1
185	187	1
232	233	2
160	166	2
56	124	2
154	223	2
47	74	3
234	234	2
124	125	1
62	75	1
160	161	1
28	56	3
124	127	1
10	69	2
160	184	1
104	121	5
10	241	1
160	162	3
182	218	2
32	32	5
107	129	1
4	34	1
30	52	5
175	176	3
203	204	5
103	151	2
172	200	3
43	49	2
69	74	2
52	122	1
2	3	2
156	170	2
100	103	1
21	23	1
227	227	2
57	125	1
1	7	2
15	20	1
108	114	1
108	129	3
189	190	1
167	167	3
9	11	1
153	173	2
28	72	1
44	135	4
45	70	5
194	195	4
241	241	1
49	49	4
57	129	1
167	201	1
192	194	2
132	134	1
40	81	1
29	76	3
11	17	2
121	122	5
174	175	1
233	234	1
53	62	2
11	11	2
27	47	4
62	62	4
71	203	2
109	127	3
220	232	1
187	187	3
150	152	2
210	228	4
211	229	1
189	217	1
134	135	2
148	148	7
212	234	1
225	226	1
123	124	2
35	36	1
109	129	1
39	39	3
25	26	2
185	233	1
0	0	2
156	157	3
89	90	5
50	50	2
82	83	3
143	148	1
24	29	1
120	138	1
241	242	3
123	123	3
172	173	2
62	122	1
150	151	1
201	211	3
104	124	1
231	232	1
153	158	1
122	146	1
181	182	1
211	230	2
179	222	1
139	170	1
23	23	1
38	42	1
39	113	1
164	196	1
237	238	1
153	154	2
199	201	3
114	117	1
1	16	2
110	221	1
228	229	1
150	222	1
217	219	1
200	213	3
11	37	1
221	233	1
72	109	1
172	177	1
36	123	1
56	60	1
205	207	1
154	154	4
222	233	2
35	35	6
7	18	1
161	171	1
164	168	1
44	71	1
166	167	1
56	56	2
108	119	1
8	9	1
21	36	2
198	204	1
5	7	1
203	232	1
118	118	1
68	238	2
43	44	1
109	111	1
192	196	1
155	187	1
139	143	3
183	184	1
42	86	1
200	212	1
143	225	2
15	37	3
169	175	1
6	11	1
103	191	2
126	126	2
235	235	1
70	202	2
2	5	1
48	62	1
210	212	2
192	207	1
162	176	2
101	102	1
214	238	1
31	32	1
151	181	1
1	21	1
2	17	2
138	208	1
170	180	1
100	124	1
67	67	2
151	151	1
212	213	1
172	175	1
21	33	1
13	22	1
23	24	1
150	195	1
154	155	1
59	116	2
216	220	2
115	138	2
148	172	1
148	177	1
204	218	1
231	231	1
24	26	2
155	186	1
192	193	1
34	34	1
151	152	1
60	120	1
171	172	1
209	224	1
115	119	1
24	25	1
38	39	1
168	174	1
202	203	2
95	129	1
30	33	1
56	57	1
69	216	1
55	109	1
173	201	1
104	105	1
19	129	2
3	3	1
64	66	1
26	48	1
107	119	1
81	83	1
139	208	1
34	35	1
156	158	1
47	136	1
95	134	1
129	130	1
62	113	1
15	23	1
166	197	1
193	223	1
71	72	1
