99	99	20
128	129	9
133	133	2
58	58	3
23	24	2
69	69	6
8	10	5
26	27	2
37	37	6
91	95	5
97	97	3
128	128	7
126	126	8
70	70	11
112	115	5
84	127	1
92	92	5
54	56	7
3	4	10
8	8	6
31	31	10
115	116	1
132	132	18
49	92	2
132	133	5
106	109	3
21	35	2
14	14	5
84	84	13
54	63	2
64	65	3
11	11	1
83	128	2
93	93	9
95	95	19
5	5	8
10	10	5
7	7	4
44	80	3
125	125	4
3	3	3
90	90	5
33	33	2
127	127	4
123	123	9
56	56	4
99	129	4
55	55	4
61	61	9
22	22	4
73	73	8
21	21	9
16	38	6
84	128	6
72	133	6
124	124	10
82	82	2
34	34	14
120	120	6
72	73	2
77	133	1
16	17	1
70	72	5
131	131	3
86	89	1
32	32	8
107	107	6
71	79	3
95	96	1
117	117	8
42	42	1
91	91	3
54	60	1
80	121	2
55	60	1
79	79	8
109	110	6
37	38	2
20	36	1
71	119	1
119	119	15
52	106	7
44	132	4
93	94	3
73	114	1
63	63	4
36	36	5
13	13	7
72	72	6
59	60	1
34	35	2
59	59	2
75	75	3
96	98	4
46	46	1
29	87	4
26	26	3
96	96	1
70	73	1
9	10	5
100	100	13
86	88	2
104	112	3
49	98	1
62	62	22
87	88	1
57	57	12
68	68	7
71	71	5
45	107	2
35	35	3
4	6	5
27	28	6
80	122	3
102	103	9
121	122	6
87	89	3
49	49	2
100	101	2
23	23	3
58	60	1
0	0	10
130	130	6
74	115	6
118	118	2
15	16	3
15	15	12
78	119	3
76	76	13
12	12	6
83	126	1
11	21	2
52	53	5
35	36	2
30	30	4
50	50	4
75	76	4
102	102	7
4	5	1
7	8	4
2	62	2
42	97	2
1	1	8
122	122	6
94	94	2
89	89	2
116	117	4
65	65	2
67	67	1
11	12	7
68	69	2
19	19	9
134	134	4
83	84	5
58	59	2
53	53	2
71	77	7
9	9	5
3	63	2
67	69	9
110	110	1
49	97	4
19	21	4
74	75	3
111	111	6
10	11	3
66	66	9
11	18	5
4	4	1
77	80	1
71	81	1
66	68	2
94	96	6
115	115	9
45	135	3
34	85	1
21	23	1
105	105	3
29	29	3
13	15	3
130	131	3
45	45	4
17	100	1
30	32	5
13	18	2
17	17	3
85	85	3
60	60	5
55	57	1
83	83	2
109	109	2
104	104	12
2	2	3
30	86	1
0	91	1
54	54	6
121	121	6
30	31	2
64	64	3
46	106	2
0	17	4
27	27	4
50	106	6
64	66	3
5	64	1
70	74	2
55	93	3
11	24	1
14	61	2
26	31	1
50	91	1
80	81	2
13	17	3
31	32	6
49	50	8
114	114	4
22	23	6
85	131	3
81	81	5
2	18	5
86	87	1
81	131	3
127	128	1
91	92	2
15	20	1
16	16	2
38	39	1
9	24	1
113	113	2
20	20	2
69	70	1
28	29	2
113	114	2
18	18	4
133	134	3
61	62	3
28	84	2
6	18	1
92	93	4
25	26	1
1	2	1
14	15	1
121	123	2
28	28	2
44	44	1
87	87	2
129	129	1
3	62	3
87	125	2
85	128	2
45	106	1
13	55	2
103	103	4
101	130	3
77	77	5
52	52	2
58	68	1
92	100	2
44	131	2
32	90	1
1	6	2
2	3	3
74	74	2
108	108	2
25	25	1
6	6	1
37	130	1
13	14	2
87	124	2
38	38	2
43	129	4
84	85	1
80	80	2
36	37	1
104	105	3
29	85	1
99	100	2
78	116	1
46	97	2
100	130	1
74	116	1
118	120	2
99	101	2
87	126	1
20	37	2
56	57	3
108	109	1
61	69	1
53	105	3
55	56	1
25	87	1
60	61	2
124	125	1
125	127	1
45	47	1
29	128	1
44	81	1
77	78	1
131	132	2
84	126	1
67	68	1
24	24	1
101	101	1
4	64	1
12	13	1
106	106	1
72	74	1
125	126	1
126	127	1
61	63	1
54	57	1
45	134	1
95	98	1
