60	60	3
128	128	11
116	116	16
16	25	2
10	36	1
103	103	4
73	73	2
135	135	3
87	87	8
102	102	1
8	9	7
73	89	2
80	80	10
2	2	3
14	16	1
5	35	4
28	28	9
121	121	2
122	123	2
75	75	6
101	101	10
89	90	6
106	106	6
75	78	1
100	101	3
79	79	2
124	124	8
38	38	20
81	81	5
48	48	3
137	140	2
55	65	4
70	70	15
0	48	2
96	97	1
51	51	8
132	135	1
133	133	3
98	99	3
104	104	11
32	32	6
41	41	6
14	14	4
97	97	4
37	37	4
74	74	7
65	65	3
113	114	2
115	116	3
55	55	6
18	18	11
95	95	4
88	88	5
11	11	4
8	8	4
105	105	5
98	98	4
21	42	3
81	114	1
130	130	8
54	54	10
51	52	3
0	66	2
104	105	2
119	119	2
51	138	1
56	140	3
61	61	3
27	27	5
76	77	1
94	94	18
24	48	4
52	108	2
37	84	3
134	134	3
92	119	5
16	16	4
22	22	6
91	91	5
89	89	4
82	88	1
10	10	2
21	21	2
71	72	2
50	50	5
93	121	2
86	86	5
2	33	4
115	115	7
117	117	4
56	137	2
40	40	4
91	120	8
30	30	9
49	110	4
92	92	2
111	112	3
47	47	4
9	55	2
124	125	4
18	19	1
136	136	5
63	113	1
75	110	1
90	91	1
140	141	1
33	37	1
49	49	7
106	109	1
19	97	2
50	108	5
144	144	3
100	131	3
84	84	4
97	99	2
31	31	1
39	39	2
0	0	1
100	100	7
61	62	5
56	56	6
49	52	2
9	9	7
29	29	6
57	57	7
24	24	2
67	67	3
142	143	1
4	139	4
141	141	8
120	120	3
73	111	1
71	71	1
59	59	3
33	33	3
93	93	3
123	124	2
76	76	3
142	142	3
41	83	1
35	35	1
52	129	1
63	64	3
0	63	1
127	127	2
134	141	1
93	117	1
26	26	2
6	42	3
23	23	5
125	126	3
3	3	2
0	3	1
68	69	3
57	134	4
99	100	2
67	141	2
55	107	2
79	82	2
131	131	8
130	131	2
25	25	5
40	83	2
63	63	3
25	31	3
143	143	5
116	117	2
53	76	2
27	97	1
127	128	1
41	84	2
26	27	4
111	111	5
60	132	3
9	11	2
94	95	2
54	55	1
126	126	1
12	15	2
96	98	4
64	64	3
113	113	6
20	21	1
65	66	1
16	21	2
77	77	1
96	96	1
52	138	1
61	96	1
66	67	2
10	24	1
15	15	2
4	5	2
12	12	1
34	34	1
123	123	1
107	107	1
101	102	1
69	69	1
49	134	1
102	104	2
52	131	2
68	68	4
68	70	1
10	21	1
85	85	1
48	59	3
11	65	1
92	94	2
129	129	1
58	58	2
56	135	1
2	6	1
57	137	1
109	109	2
53	54	3
124	131	1
50	51	1
76	78	2
16	17	1
20	36	1
51	60	2
84	85	1
140	140	1
85	87	1
84	112	1
30	31	1
99	99	2
52	130	1
39	40	1
48	141	3
62	62	1
92	120	1
73	74	1
80	125	1
47	48	1
88	121	1
49	139	1
74	95	2
86	112	1
88	89	1
78	79	2
141	142	2
21	22	1
72	72	2
4	16	1
83	83	1
118	118	1
56	134	1
43	43	1
69	71	1
56	136	1
