30	31	15
6	6	12
128	128	13
78	86	3
135	135	6
7	7	12
132	132	18
0	0	9
92	92	4
122	122	4
2	4	4
3	35	6
100	100	9
111	111	2
80	80	3
19	19	13
118	118	6
71	71	5
7	9	5
107	107	4
114	115	15
9	9	10
89	89	9
81	81	3
82	84	5
90	114	5
131	131	15
96	96	16
13	13	11
90	91	3
14	14	6
100	101	5
128	129	7
124	125	3
83	83	14
93	94	5
108	108	3
36	36	10
106	108	3
95	95	6
125	125	3
8	9	2
33	33	17
35	36	4
99	99	4
117	121	4
105	106	5
119	121	6
18	18	11
71	72	2
123	123	14
10	10	3
2	2	14
30	30	4
4	4	7
35	35	13
17	17	8
18	19	5
72	125	4
138	138	5
97	101	2
72	123	3
127	128	3
15	15	6
113	113	4
98	99	2
4	5	6
114	114	4
37	37	2
119	122	5
3	3	7
34	34	12
121	121	7
28	29	2
94	94	9
10	31	1
109	109	5
86	86	1
11	33	2
109	114	4
12	15	3
103	106	5
87	87	5
118	122	7
102	107	5
111	112	4
83	85	6
109	110	3
75	76	1
3	4	1
127	127	14
126	126	12
78	117	1
34	35	5
111	113	4
23	23	4
26	26	4
88	88	2
100	105	2
133	133	4
124	127	2
7	16	1
87	88	1
90	111	6
129	130	2
85	85	3
139	140	1
24	24	4
129	133	2
81	83	2
8	8	6
100	103	2
76	121	4
135	137	2
25	25	6
74	74	1
78	78	10
116	116	4
81	82	1
11	20	2
102	102	4
28	98	2
6	7	3
38	38	2
75	75	11
98	98	12
79	79	12
140	140	1
0	1	1
84	86	4
90	92	1
91	91	4
11	19	4
77	79	2
83	84	3
15	17	2
28	99	3
136	137	2
134	134	1
27	32	1
73	73	8
12	12	4
130	130	12
20	20	7
77	118	2
124	124	6
14	18	1
112	112	7
81	86	1
125	126	5
15	16	1
81	95	1
118	119	5
23	26	2
32	32	2
17	107	3
15	33	1
110	114	4
115	115	5
77	83	1
10	11	4
134	135	2
139	139	7
35	73	3
101	103	3
29	29	4
11	12	1
29	103	2
31	102	2
129	129	7
21	31	4
85	91	3
101	111	2
72	121	6
99	103	1
135	136	2
97	97	1
93	93	1
84	84	1
38	39	1
21	21	3
117	117	1
4	6	4
130	132	2
90	90	1
110	111	5
76	82	2
133	134	1
23	25	1
14	17	2
28	97	2
82	83	3
88	89	5
120	121	1
7	10	1
33	34	2
3	33	1
72	72	4
14	16	2
16	17	1
78	88	3
33	35	3
109	113	2
119	119	4
74	75	3
94	102	1
31	31	3
104	104	6
80	82	1
24	25	1
26	98	7
94	108	1
83	87	4
130	131	4
16	16	8
81	84	2
37	38	2
75	86	3
3	5	1
117	120	2
131	132	1
136	136	4
118	121	1
112	113	1
12	17	1
7	15	3
109	111	1
1	1	1
124	126	2
97	98	1
137	137	1
17	19	1
76	76	2
78	118	1
87	116	2
91	92	1
82	82	2
15	25	1
96	106	1
104	106	2
14	26	3
101	102	4
101	110	1
73	125	3
102	103	1
91	93	1
120	120	1
27	27	2
37	128	1
35	37	1
22	25	1
13	23	1
102	116	1
5	5	1
95	96	2
16	26	1
13	14	2
87	90	1
92	93	1
113	114	1
