128	128	18
56	109	4
60	60	10
121	121	10
82	84	1
23	25	8
65	66	16
4	4	5
3	19	4
40	87	1
97	97	11
14	16	8
58	59	7
120	120	17
80	80	9
43	46	3
113	113	15
115	115	9
132	132	11
127	127	8
92	92	16
68	69	3
23	23	6
111	111	18
66	66	8
8	8	16
112	112	12
124	124	8
44	46	2
77	86	4
72	74	2
86	88	4
20	21	3
7	8	3
27	27	20
1	2	6
64	64	8
30	31	2
72	72	14
47	48	2
94	94	16
89	89	11
76	79	8
52	52	8
70	74	1
65	65	17
98	98	7
59	59	16
18	18	17
93	93	22
10	10	18
45	46	10
7	14	6
106	106	3
76	76	18
83	83	9
90	90	10
65	67	1
130	131	5
22	22	11
102	102	10
109	109	12
56	108	2
44	44	10
17	17	11
0	0	2
112	124	3
4	19	2
79	79	12
63	78	3
6	8	2
30	48	2
43	43	11
34	44	4
12	12	22
131	131	9
3	3	15
48	48	5
3	39	2
116	116	8
108	109	5
43	77	3
100	101	2
69	69	22
78	79	7
44	55	4
61	125	5
57	57	11
25	26	3
2	2	24
46	46	21
50	51	10
126	127	8
119	120	9
105	105	3
87	93	5
32	32	7
0	1	1
88	88	9
83	84	3
44	47	8
126	128	5
58	58	28
61	132	1
10	12	2
58	60	8
82	82	21
41	42	2
13	26	3
114	115	4
125	125	12
96	96	15
128	129	12
95	95	12
124	125	12
55	55	12
72	77	2
19	19	11
94	95	7
72	73	7
75	78	1
118	125	2
6	6	27
16	16	20
29	30	4
40	40	10
85	85	13
91	92	5
118	127	2
18	19	4
19	20	4
100	103	2
1	5	4
45	45	6
21	24	2
7	7	4
24	24	10
105	106	4
49	52	3
31	31	9
104	104	5
33	33	6
99	104	4
72	89	1
55	102	1
38	38	6
13	24	2
63	63	6
74	75	5
26	26	14
117	124	1
11	12	4
63	64	7
112	113	7
42	53	2
81	81	6
4	10	4
130	130	8
4	21	9
78	78	11
39	42	3
13	15	7
119	119	8
78	80	7
5	5	12
44	45	4
75	75	5
121	122	6
17	18	6
21	21	3
25	25	6
63	65	2
114	116	6
81	82	5
63	77	4
102	107	2
99	103	2
73	73	9
92	93	2
40	41	2
126	130	1
82	83	5
70	71	1
122	122	9
98	101	2
93	94	3
91	91	9
3	20	3
3	11	4
59	77	1
10	11	5
93	106	1
13	13	7
5	15	4
70	70	8
1	1	18
110	110	17
59	64	2
100	100	11
47	47	6
110	111	1
73	74	2
74	76	4
92	102	2
79	80	7
24	25	5
28	29	16
30	30	2
133	133	7
109	117	2
56	102	3
39	39	2
94	105	1
118	131	1
113	116	3
90	92	3
31	32	8
79	81	4
62	113	2
97	102	2
60	62	4
14	14	9
29	31	4
50	50	9
67	70	1
12	14	2
46	48	3
99	99	7
66	74	2
117	117	9
129	130	3
53	53	9
82	85	1
0	2	1
100	102	6
114	114	16
59	83	3
107	108	3
118	118	6
126	126	3
42	42	14
12	22	2
68	68	10
115	119	1
81	83	3
1	93	1
86	86	4
15	15	11
119	125	1
42	51	5
95	102	2
64	65	2
58	81	2
56	94	2
42	55	1
48	122	1
107	107	5
44	77	1
68	74	2
96	97	9
44	60	2
9	10	9
103	103	7
48	49	3
71	71	6
75	77	5
57	81	1
85	86	2
110	112	1
12	25	4
116	124	2
114	127	5
62	127	1
41	41	2
118	119	3
89	91	4
51	54	3
114	119	1
12	27	4
54	54	5
1	49	1
62	62	4
22	24	4
71	125	3
85	88	2
125	132	3
93	105	2
64	96	7
104	105	7
74	78	3
85	87	2
109	110	4
7	11	2
14	15	1
101	102	3
83	86	1
21	22	3
87	87	6
77	77	7
65	68	6
75	94	3
95	100	4
7	10	3
53	76	2
24	26	1
12	15	1
99	102	3
88	89	6
73	77	1
77	87	5
28	28	7
123	123	11
129	129	4
13	14	3
5	6	2
115	116	2
116	117	2
1	19	2
12	24	2
34	40	6
113	114	3
103	127	1
101	101	9
76	83	1
11	11	8
49	49	2
34	38	3
2	20	2
96	100	1
56	57	1
23	24	2
16	18	4
114	117	1
64	124	1
127	129	2
114	124	1
99	100	2
84	84	3
22	23	1
26	31	3
132	133	1
12	13	1
6	24	1
2	46	2
115	127	1
117	129	1
4	22	5
67	67	2
111	125	1
22	46	2
30	47	1
51	51	3
61	61	6
111	112	2
57	58	1
6	46	1
33	34	2
5	18	1
83	92	2
66	67	2
74	74	8
59	60	2
109	111	3
45	47	1
27	28	5
72	75	4
108	108	5
90	106	1
78	114	1
88	90	2
24	27	1
86	87	2
119	127	2
53	54	4
90	129	2
3	4	1
55	110	1
98	100	1
44	62	1
39	41	1
68	71	1
96	109	6
71	74	1
7	34	3
90	91	3
80	81	2
59	62	1
98	99	1
95	96	5
51	52	1
62	64	2
29	29	2
4	34	3
39	60	1
49	51	1
76	82	1
75	83	2
55	61	3
41	46	2
113	120	1
64	66	3
117	126	1
32	47	1
95	113	2
63	74	3
16	17	2
14	20	4
130	133	2
87	88	1
5	38	3
13	25	2
26	28	1
76	77	3
101	121	1
94	96	3
91	132	1
68	125	2
56	56	3
102	103	1
31	33	2
20	20	2
79	114	1
115	124	1
8	25	1
15	34	2
102	108	1
59	65	2
21	23	1
76	78	1
52	53	1
52	54	4
101	120	1
120	125	2
125	133	2
67	74	3
12	19	1
9	48	1
95	101	2
101	109	1
3	47	1
20	45	1
79	116	1
34	34	1
95	99	1
115	117	1
29	32	1
2	3	1
0	3	1
91	105	1
116	118	1
42	48	2
45	61	1
32	33	1
5	22	1
5	45	1
109	113	1
57	83	1
14	33	1
54	55	1
125	130	1
112	123	1
126	129	1
0	7	1
37	37	1
0	12	1
128	130	1
