63	75	1
50	50	7
62	62	11
47	53	2
59	79	4
53	59	3
97	97	4
73	73	7
62	63	4
47	47	6
79	79	6
68	70	2
96	96	7
86	86	20
26	41	4
26	42	2
26	26	6
82	82	7
45	48	4
71	71	2
30	49	2
85	85	22
78	78	13
42	46	2
72	72	6
69	69	9
51	53	2
68	68	4
86	94	1
64	70	2
66	66	17
42	56	4
36	36	3
33	33	3
96	97	4
36	37	3
81	81	10
63	64	2
32	39	2
74	74	9
51	51	9
24	24	4
42	42	2
25	25	7
46	49	3
80	80	7
66	71	1
81	83	3
27	27	2
67	67	7
49	49	6
87	90	6
70	70	3
75	75	5
84	84	2
85	94	2
73	81	3
63	63	16
44	44	3
72	76	3
61	61	9
67	69	2
65	77	1
76	94	6
77	81	3
92	92	3
75	76	5
55	81	2
43	43	2
59	59	4
72	82	1
55	55	6
66	78	4
100	101	2
39	47	3
89	89	4
66	67	1
70	83	1
39	39	2
48	56	2
81	82	2
87	87	3
57	58	4
53	57	1
93	93	2
48	53	1
88	94	2
30	30	1
76	90	2
44	48	1
71	77	3
47	58	1
99	99	5
67	74	4
20	26	1
86	91	2
77	77	3
65	85	4
50	51	1
88	97	1
53	53	6
48	48	3
76	92	1
47	63	9
34	56	2
63	87	2
23	24	1
64	64	2
60	62	2
88	88	5
52	57	4
86	89	1
69	70	3
101	101	2
98	98	5
58	58	2
71	76	3
39	79	2
71	80	1
91	92	2
22	35	2
31	31	2
86	87	6
45	46	1
29	96	2
53	66	4
52	52	3
23	39	1
53	65	2
63	80	1
75	98	2
36	61	1
100	102	2
76	76	2
71	87	4
55	66	1
38	38	5
32	34	1
20	87	4
41	42	1
99	102	3
39	101	3
49	68	1
38	49	6
65	78	2
74	81	1
72	78	3
53	61	2
83	83	2
34	62	1
83	84	2
78	84	3
71	91	1
46	47	1
45	45	2
75	92	2
28	51	1
75	86	3
69	83	1
40	58	2
39	42	1
25	27	2
20	22	2
92	95	2
22	23	1
74	75	2
40	40	2
56	66	2
75	77	1
57	57	3
46	62	1
52	55	1
68	74	2
47	48	2
76	80	3
32	36	2
80	99	1
34	34	1
64	81	1
85	87	1
20	20	2
60	60	3
65	65	4
93	98	2
74	78	2
31	44	1
20	60	1
54	79	2
91	91	2
64	72	2
87	88	2
29	29	2
61	64	2
37	37	1
88	89	1
23	25	1
101	102	1
69	91	1
83	85	1
46	46	1
98	100	1
20	33	1
63	84	1
54	54	1
88	101	1
90	97	1
79	80	1
56	58	1
85	89	1
67	72	1
27	32	1
90	90	1
73	78	1
