52	55	1
130	131	2
48	48	10
99	99	8
1	1	14
197	197	12
32	45	6
57	58	9
93	96	1
168	168	9
53	53	19
36	89	2
38	38	12
186	196	2
141	141	8
62	63	3
196	196	14
125	125	2
142	142	6
128	128	5
100	101	9
22	22	7
68	76	2
166	168	3
62	62	7
164	165	2
173	174	2
182	182	7
175	175	9
4	5	4
71	71	4
22	28	8
15	16	5
107	174	1
43	43	9
16	24	4
82	82	6
111	113	3
116	116	15
50	50	1
154	155	4
40	41	4
153	157	1
98	98	12
185	185	19
147	147	4
8	8	10
119	120	3
31	44	3
159	159	11
184	184	6
68	68	4
187	187	9
20	20	5
143	144	10
10	122	2
162	165	1
4	7	1
93	93	3
121	133	2
186	187	2
131	131	8
4	4	4
47	48	4
144	145	8
96	96	2
161	161	2
75	75	3
171	172	10
81	83	3
150	170	2
155	188	2
47	47	5
119	119	10
118	118	5
0	9	5
69	70	6
135	135	10
114	116	5
33	33	7
120	120	7
12	12	10
30	30	5
16	127	3
88	88	6
86	86	9
155	158	2
167	188	2
136	136	7
36	90	5
98	153	5
178	179	3
127	127	9
72	72	20
108	109	4
123	123	6
150	156	4
96	97	6
162	163	1
134	134	1
176	190	1
55	56	6
87	87	7
77	77	8
106	106	3
176	177	4
133	133	7
44	44	3
144	146	6
171	171	3
170	170	9
123	132	2
100	100	14
15	141	2
190	190	11
7	7	15
10	11	1
23	71	3
93	94	3
36	38	2
69	69	9
170	171	4
15	15	7
155	156	13
122	122	6
121	121	5
126	126	6
22	42	1
179	179	1
46	47	3
60	60	7
105	125	1
191	191	8
4	8	4
192	195	1
42	132	4
102	102	9
83	83	3
39	39	7
193	193	3
83	84	7
80	83	3
177	177	4
94	94	2
16	89	3
54	54	7
45	45	16
151	152	7
94	150	3
28	32	3
180	180	8
14	15	4
37	37	4
162	164	1
29	29	1
181	182	2
3	3	8
168	169	3
3	9	1
68	69	1
18	18	7
110	110	8
108	108	5
193	194	3
72	73	1
136	137	2
109	109	14
79	81	2
46	46	9
2	2	1
126	128	1
70	70	1
85	85	3
156	156	12
31	33	2
112	112	9
192	194	1
149	149	5
6	6	7
148	190	1
163	165	6
17	17	2
95	95	6
146	146	5
51	51	7
108	170	2
138	138	5
129	129	6
165	165	2
146	180	2
87	88	5
137	137	2
80	81	1
174	174	6
40	40	2
58	58	12
78	79	2
78	78	11
73	75	2
144	192	1
25	26	1
124	125	3
19	19	9
64	64	2
162	162	2
147	148	3
97	100	4
49	58	2
5	5	7
27	27	10
123	149	7
11	124	4
183	184	5
31	31	11
74	74	8
127	128	1
154	154	5
153	153	2
139	139	15
76	76	3
98	100	5
164	170	3
71	128	1
195	197	2
169	169	8
168	187	1
25	78	1
159	167	3
25	25	2
50	64	2
167	168	3
106	107	1
16	138	2
95	160	1
1	2	2
0	0	8
130	132	2
54	55	1
103	106	1
183	183	2
20	90	2
41	41	6
73	73	7
143	143	4
177	178	4
17	41	1
131	132	2
117	117	2
84	84	8
165	167	1
182	183	1
180	182	3
55	55	6
41	134	1
151	151	1
188	188	8
14	14	4
176	176	4
178	178	4
55	70	1
37	86	4
4	136	1
65	65	2
130	130	3
124	124	4
44	86	1
153	156	1
122	128	2
101	102	4
50	54	3
67	67	12
18	19	4
173	173	5
144	168	1
76	83	3
11	45	3
49	49	3
122	123	3
89	89	2
73	74	3
45	88	1
165	168	2
42	42	2
115	156	2
80	80	3
39	40	1
50	51	2
173	189	3
145	145	1
104	104	5
23	23	4
181	181	2
28	28	3
9	9	3
0	24	2
147	177	2
105	121	1
8	9	1
114	114	5
116	117	4
192	192	2
132	132	3
159	168	2
103	103	1
160	160	1
187	188	3
26	26	2
102	149	1
172	175	1
57	57	5
120	129	1
51	52	1
10	25	6
146	176	3
36	36	8
142	143	2
15	196	1
52	52	1
74	75	2
115	115	3
53	127	1
144	197	2
6	116	2
113	119	2
105	105	4
112	113	2
151	157	2
179	181	1
51	62	2
10	10	6
79	79	1
19	20	7
141	142	2
158	159	1
185	196	6
179	180	3
186	186	3
0	21	3
84	85	4
42	133	1
68	83	1
117	118	2
42	43	1
121	131	3
117	135	2
54	56	2
61	61	5
127	130	1
131	164	2
38	83	2
107	107	3
195	195	2
3	4	2
27	64	1
111	111	4
7	19	3
115	117	2
167	167	6
172	174	1
97	97	2
24	26	3
27	28	1
175	180	3
123	124	6
26	35	3
176	179	2
24	24	2
28	30	1
111	188	1
93	159	1
36	37	4
43	44	3
13	13	2
155	155	4
156	157	2
173	187	1
13	14	2
102	123	2
90	90	1
194	195	1
10	136	1
61	62	3
194	194	1
2	8	1
81	81	1
34	34	2
150	150	2
60	71	1
101	104	4
59	61	1
128	130	1
140	140	4
67	68	1
5	7	3
41	43	2
99	150	1
76	78	4
130	176	1
35	35	2
36	88	2
189	191	2
53	55	1
60	62	1
45	46	4
151	160	1
16	16	1
42	137	1
106	123	2
109	110	1
118	162	1
155	176	2
185	186	1
116	120	1
152	169	1
81	82	1
32	32	3
172	172	3
162	166	2
157	190	3
22	34	1
58	60	1
138	139	2
190	191	1
157	158	2
118	119	1
115	137	1
84	86	3
107	109	3
11	11	1
122	124	1
104	105	1
21	21	2
133	134	2
20	43	1
50	52	1
38	48	1
161	162	1
135	136	2
110	111	2
164	164	2
40	42	1
141	145	1
16	17	1
166	166	2
101	101	2
189	190	1
59	70	1
38	39	1
93	95	1
51	54	1
52	61	1
104	148	1
163	163	1
148	149	1
175	176	1
115	147	1
189	189	1
188	192	1
44	87	1
175	181	1
129	131	2
70	71	2
95	163	1
168	170	3
173	186	1
98	99	3
105	106	1
41	42	1
36	78	1
35	87	1
2	3	1
62	66	1
7	162	1
196	197	1
64	69	1
195	196	1
106	121	1
