99	101	1
3	3	4
5	6	3
86	86	8
106	107	3
63	64	5
68	69	3
78	78	12
136	136	4
17	17	4
133	133	3
6	7	4
46	46	13
130	131	5
107	107	6
109	109	9
35	35	12
62	63	7
47	48	2
7	7	8
54	55	3
132	133	2
152	152	6
90	91	3
0	0	8
158	158	6
14	14	8
20	20	9
33	35	1
36	36	13
39	39	4
44	45	15
154	154	2
100	105	2
63	72	2
146	146	1
13	17	2
53	53	6
108	108	10
64	72	1
127	128	2
134	134	6
14	57	2
160	160	3
1	4	2
56	56	5
9	9	3
86	88	2
55	56	2
21	21	4
52	52	2
24	26	1
123	123	7
63	73	1
66	66	4
156	166	2
24	28	1
54	54	4
155	155	6
82	83	5
43	105	2
119	120	3
26	26	2
118	142	3
44	47	5
90	92	5
157	158	2
71	71	8
149	149	5
137	137	7
163	163	12
48	49	2
110	110	4
92	92	6
12	12	10
111	111	4
165	166	1
76	77	1
139	142	1
93	94	3
48	84	5
162	162	3
77	79	2
150	157	2
4	4	3
13	18	4
101	101	8
126	127	6
169	169	5
138	138	7
80	80	3
117	117	6
136	137	2
69	69	5
82	82	11
23	25	1
48	48	7
79	80	4
47	49	4
67	67	5
20	21	6
166	166	9
34	34	2
135	135	2
63	85	5
50	56	1
113	116	1
118	118	2
92	97	3
79	81	2
112	112	2
148	149	3
148	148	3
39	40	1
131	131	5
123	154	4
113	113	6
88	89	3
40	46	1
76	76	5
111	112	7
161	162	1
37	37	5
156	156	7
79	79	3
128	139	3
137	147	1
147	148	6
103	103	5
107	109	1
167	168	3
95	96	13
125	125	1
24	24	3
50	50	1
161	161	5
8	8	5
91	102	4
72	85	4
151	151	5
45	45	3
142	143	2
110	115	2
16	16	4
96	99	2
112	113	1
85	87	2
128	128	1
97	97	5
92	99	2
162	164	2
51	51	3
140	142	2
68	68	2
91	92	5
2	2	4
46	48	1
47	47	4
118	119	3
159	159	5
45	87	2
143	143	2
144	145	2
75	80	1
62	62	4
43	43	1
13	14	1
124	124	2
105	105	1
153	153	4
102	102	3
144	144	1
7	10	2
103	104	2
74	74	5
5	5	3
126	126	3
87	87	5
124	125	3
122	123	5
64	64	1
114	114	2
81	81	2
22	22	2
73	90	1
140	141	2
146	147	1
18	84	1
107	122	2
40	40	4
42	42	7
93	97	2
159	160	2
11	12	2
152	154	1
33	34	1
25	25	9
23	24	1
131	132	2
13	13	3
18	18	3
107	108	2
62	87	4
70	70	4
128	154	1
113	118	1
46	47	1
25	26	2
90	90	3
147	147	2
127	127	2
33	36	1
129	130	1
18	19	1
83	83	1
115	116	3
28	28	2
73	74	1
78	79	1
57	57	5
160	161	4
84	84	2
6	6	3
94	95	1
94	94	1
85	85	2
91	91	4
130	130	1
105	143	3
9	10	1
19	19	1
97	108	2
27	27	4
113	114	2
17	18	1
120	130	2
88	88	1
84	85	1
33	33	1
74	76	2
64	85	2
93	93	4
132	134	1
151	157	1
23	23	2
0	6	1
135	137	2
9	53	1
2	3	2
93	95	4
72	72	1
24	78	2
21	22	1
43	49	3
106	141	2
89	89	1
73	84	1
44	87	1
136	143	2
50	57	1
95	111	2
100	100	2
129	151	1
63	63	2
139	139	2
106	109	2
67	68	1
73	91	2
17	86	1
11	11	1
142	142	2
94	111	1
129	129	1
7	58	1
50	51	1
95	95	1
74	103	1
163	164	1
69	70	1
1	1	2
24	80	1
38	38	1
55	55	1
98	98	1
15	15	1
100	102	1
108	109	1
168	168	1
40	44	1
157	166	1
