183	183	6
1	4	1
59	68	1
109	196	4
95	98	1
78	79	2
2	2	7
83	83	2
120	120	4
171	173	4
148	148	2
17	69	2
150	150	9
66	66	8
35	35	4
100	101	3
174	174	12
51	51	1
149	149	5
4	4	2
111	111	3
96	96	3
6	7	6
153	153	6
11	19	1
73	73	6
100	129	1
113	113	7
182	183	4
105	106	5
6	14	1
123	123	6
168	168	5
194	195	1
142	142	6
1	23	2
79	179	2
14	158	1
81	81	7
139	139	13
146	147	10
133	133	8
134	134	5
164	187	2
138	138	3
68	83	1
108	126	4
21	21	3
40	41	3
19	19	9
177	177	3
107	107	5
2	6	2
157	158	1
7	7	4
112	159	3
34	34	4
161	181	3
98	98	11
70	70	4
126	135	2
79	80	2
145	145	3
106	106	5
180	182	2
17	17	9
111	113	3
54	66	3
143	144	1
70	71	3
16	28	1
188	191	3
191	191	5
136	136	5
116	119	2
53	53	2
146	189	1
94	95	5
94	94	7
160	161	3
42	66	1
99	99	10
0	38	1
53	54	1
196	196	3
42	42	5
154	154	4
64	64	9
104	151	1
38	38	7
135	135	2
18	18	5
29	63	2
127	169	2
26	26	6
12	12	8
162	162	3
159	166	2
155	155	5
151	151	2
79	79	4
121	121	3
3	3	5
35	36	3
30	30	3
126	182	6
94	162	4
85	85	2
158	158	4
80	80	2
22	36	2
6	22	3
42	43	2
137	137	3
36	36	9
21	117	1
99	107	3
58	59	1
172	172	17
63	63	6
125	179	1
127	180	1
59	59	8
192	192	2
108	128	1
20	30	1
29	30	1
33	33	6
98	103	1
22	22	6
38	59	1
6	6	7
99	122	2
95	95	7
77	78	1
95	96	3
43	43	1
139	140	3
13	109	3
12	13	2
126	126	5
57	57	3
73	75	1
74	74	5
1	1	9
11	11	5
100	119	1
188	188	4
105	105	1
88	90	5
90	90	1
9	9	3
101	106	1
15	17	1
0	1	1
167	190	2
9	83	2
180	181	3
184	184	5
58	61	2
98	99	1
132	152	3
93	145	2
82	84	5
75	83	2
17	85	1
148	149	2
61	61	4
121	181	1
60	60	5
116	116	6
88	89	1
62	64	2
94	99	2
51	67	2
56	56	1
78	78	5
2	4	1
32	32	8
125	126	3
167	167	6
118	143	1
84	84	4
69	69	2
87	87	7
95	140	2
53	61	1
44	44	4
31	31	6
96	180	4
197	197	1
114	114	3
185	186	7
65	66	4
162	167	1
146	146	5
160	160	4
108	110	2
53	181	2
189	191	1
119	180	2
58	58	5
37	75	1
104	116	4
20	20	6
176	178	2
88	157	2
15	113	2
77	77	3
131	138	2
129	129	3
99	102	1
23	64	2
156	156	2
88	88	1
158	184	1
76	76	1
62	62	6
112	112	4
135	136	1
163	167	1
69	70	3
108	108	6
100	179	1
110	110	4
171	171	3
19	21	1
73	74	1
157	188	3
41	41	5
42	65	1
51	72	1
8	87	1
107	125	2
128	135	1
40	40	3
99	181	1
132	132	1
23	24	5
176	177	1
140	141	1
170	172	1
169	169	2
148	163	3
137	138	2
30	31	2
29	29	3
111	112	2
100	135	1
22	25	1
161	184	6
65	65	5
193	193	1
173	173	1
60	108	2
143	147	3
124	124	1
126	127	3
23	23	1
122	124	1
45	45	5
144	144	1
24	73	1
102	120	1
0	23	1
9	38	1
56	184	1
24	26	2
17	24	1
24	24	6
100	100	1
46	46	3
166	167	1
55	56	1
170	174	3
16	16	5
152	175	2
130	174	1
54	54	3
187	187	3
169	170	4
42	44	1
18	88	2
132	140	2
33	47	1
33	85	3
64	71	1
140	153	2
176	176	5
39	39	3
114	115	1
118	118	4
19	164	2
130	131	3
5	7	1
25	25	4
15	58	3
189	189	3
114	122	1
139	144	2
159	159	3
139	148	2
177	178	1
173	174	1
126	128	3
31	196	1
68	68	3
131	131	3
90	178	2
101	101	3
143	143	4
0	81	1
64	65	1
0	0	3
43	98	1
86	87	1
109	110	1
59	60	1
28	29	1
19	23	1
67	67	3
1	157	2
41	43	1
38	72	1
54	181	1
130	137	2
87	88	2
7	8	1
15	15	1
112	124	1
147	147	3
179	180	2
17	60	1
187	188	1
149	150	3
48	48	5
172	174	2
181	181	2
81	86	1
40	51	1
49	49	8
187	191	2
190	190	3
103	104	2
14	14	2
189	192	1
163	163	1
28	28	5
170	170	1
133	197	2
46	65	1
81	192	1
117	117	2
88	124	2
166	166	3
97	97	1
94	96	3
52	52	3
58	78	1
127	127	1
12	65	2
0	75	1
162	164	1
132	133	1
64	84	1
178	178	1
164	164	4
93	135	3
2	3	1
151	169	1
94	98	1
163	187	1
37	37	4
26	42	1
122	123	1
150	159	1
30	45	2
62	82	1
155	158	1
19	142	2
157	157	3
36	82	1
195	195	1
96	97	1
79	90	1
164	165	1
9	61	2
61	110	1
186	186	1
16	30	1
194	194	1
103	116	1
79	85	1
184	185	1
9	87	1
103	176	1
58	150	2
86	117	1
0	2	1
10	22	1
16	17	2
0	79	2
20	21	1
8	33	1
52	57	1
24	70	1
19	33	1
167	180	1
6	90	3
48	49	1
15	33	1
150	160	1
120	124	1
188	190	1
68	74	1
191	192	1
11	12	1
143	152	1
29	34	2
130	132	3
3	23	1
185	185	1
162	163	1
187	190	1
71	71	1
115	115	1
3	36	1
60	171	1
159	191	1
179	179	3
50	50	2
102	102	3
10	10	3
101	102	1
72	73	1
82	188	1
174	175	1
11	44	2
33	36	1
12	156	1
5	6	1
25	29	2
50	181	1
45	46	1
125	128	2
10	65	3
49	73	1
17	84	2
3	72	1
140	146	1
52	54	2
60	68	1
31	113	1
4	86	1
71	72	1
65	71	1
99	180	1
109	118	1
112	143	1
117	123	1
165	166	1
10	87	1
158	193	1
80	81	2
103	107	1
140	140	1
20	43	2
3	69	1
156	190	1
171	186	1
105	107	1
32	33	1
28	36	1
95	146	1
143	145	1
93	93	2
119	124	1
55	66	1
27	124	1
75	75	1
134	135	1
89	89	1
169	179	2
37	38	1
158	159	1
18	20	1
158	191	1
67	142	1
119	176	1
47	50	1
161	161	1
130	130	1
98	100	1
30	80	1
135	139	1
180	180	2
151	177	1
106	116	1
65	70	1
122	122	1
34	36	1
109	109	1
8	8	1
175	175	1
67	169	1
98	104	1
79	167	1
23	87	1
6	8	1
141	141	1
21	22	1
129	130	1
41	42	1
81	82	1
9	11	1
