75	75	10
120	120	2
208	208	6
4	5	1
195	195	7
157	203	5
21	21	9
19	19	7
40	55	4
92	92	5
165	165	4
154	205	2
45	70	2
224	224	2
178	181	3
45	45	5
162	162	1
151	161	4
50	50	6
76	76	3
85	86	3
13	149	2
193	193	4
206	206	6
167	167	2
38	55	1
191	191	12
214	215	2
170	226	2
79	79	12
90	90	1
40	40	10
87	192	4
68	83	2
4	20	1
150	150	10
225	226	3
219	219	5
155	155	3
172	172	8
8	8	1
50	85	2
194	221	5
94	94	6
181	181	5
55	55	12
211	218	2
220	220	6
21	23	4
101	101	3
5	18	1
156	156	6
186	238	3
236	236	3
69	69	11
175	179	2
80	85	1
183	243	2
29	54	3
37	209	2
24	24	1
160	175	2
64	64	2
34	34	5
99	99	1
112	112	10
170	171	4
119	119	5
44	44	11
73	75	4
77	80	2
66	75	3
246	246	6
104	106	3
178	207	2
152	152	2
72	73	1
72	75	4
42	247	4
73	73	7
244	244	3
178	241	2
58	59	2
212	213	3
190	190	4
180	181	2
214	214	3
227	227	6
70	70	4
227	229	2
188	189	1
63	64	1
42	42	3
56	56	10
173	173	4
26	26	2
97	97	3
4	19	4
23	27	2
38	39	4
192	194	1
33	33	7
4	4	4
183	207	1
175	175	4
70	150	1
194	212	1
196	196	3
232	232	4
11	12	3
36	36	3
92	96	3
194	196	3
118	146	2
164	206	3
157	166	2
42	43	2
66	66	6
160	160	3
226	227	2
209	209	7
68	90	2
116	116	5
227	244	2
146	160	3
170	170	7
157	157	8
168	168	5
178	178	6
173	182	3
27	28	1
62	110	4
177	177	5
150	151	2
105	111	2
107	107	7
34	35	2
19	20	5
9	9	3
17	18	1
182	182	4
218	218	2
81	81	4
18	18	4
227	230	5
92	93	1
29	52	1
11	11	3
209	211	2
95	95	2
94	97	1
54	215	2
187	187	2
59	60	2
247	247	4
14	166	1
183	183	4
145	145	3
94	95	3
113	114	1
103	103	3
68	68	3
75	79	1
7	7	6
209	248	3
216	216	1
236	246	1
157	202	1
10	10	5
231	231	2
85	85	9
239	240	5
110	150	2
220	224	3
77	77	2
31	31	3
154	154	2
36	40	4
230	230	1
158	165	1
229	229	8
62	109	2
35	41	2
211	211	2
23	23	2
30	30	3
89	89	2
154	162	4
20	20	1
110	111	3
117	117	4
95	96	5
77	85	1
245	245	4
233	233	9
78	184	1
184	185	1
168	169	2
41	46	1
57	59	1
98	98	1
158	158	2
74	74	1
41	42	1
107	108	1
32	32	5
2	3	2
210	210	2
180	180	6
201	201	1
203	204	1
168	195	3
51	52	4
117	146	2
37	39	1
186	188	3
40	178	1
118	118	6
110	113	2
166	166	3
167	183	1
197	197	4
159	160	1
114	114	3
46	47	1
107	109	2
188	190	2
218	230	2
54	54	4
81	84	2
52	85	1
152	176	2
239	248	3
235	235	1
240	243	1
215	216	2
173	188	3
187	188	2
15	15	1
17	17	1
2	6	1
6	6	4
33	36	1
159	159	1
65	65	2
202	202	5
38	43	1
48	49	2
115	152	1
153	153	8
71	71	4
213	218	2
212	212	6
61	61	1
198	198	3
28	28	1
211	212	1
222	222	1
41	41	4
234	234	3
109	151	3
110	110	4
113	113	10
66	67	1
163	163	3
176	242	2
80	80	3
221	247	2
111	204	2
224	225	3
43	44	2
236	239	2
174	175	2
101	106	1
186	190	2
99	100	1
103	205	2
86	104	1
32	52	1
43	43	5
73	76	2
152	173	1
108	111	4
93	121	3
222	230	1
22	22	3
93	93	2
216	217	1
157	162	1
109	109	5
245	246	2
238	238	2
209	210	2
23	24	1
86	88	1
100	100	4
82	83	3
75	88	3
51	51	2
83	84	1
189	190	1
39	39	1
237	248	4
58	65	1
115	115	1
48	51	3
77	83	3
76	77	4
73	82	1
48	48	2
40	186	3
104	104	4
20	28	2
188	188	2
179	179	2
194	208	1
40	182	1
173	174	2
18	19	1
102	116	1
108	108	5
74	75	2
52	52	1
223	231	2
154	159	1
97	98	1
62	62	3
147	147	1
2	2	1
76	90	1
184	184	2
55	93	1
87	87	1
198	199	3
226	226	3
91	91	2
169	170	2
27	27	1
52	145	1
83	83	4
187	215	3
239	239	2
62	63	1
78	78	2
214	217	1
15	26	1
31	32	2
48	78	1
215	215	1
190	213	1
41	54	2
192	192	1
158	182	4
169	169	2
38	38	3
205	205	1
218	219	1
112	113	1
186	186	1
168	191	1
59	110	3
13	13	2
176	176	3
58	58	2
15	16	1
38	209	1
162	205	3
14	16	2
32	42	3
210	211	2
164	205	1
221	221	2
220	238	1
170	195	1
32	54	1
204	204	1
116	152	1
232	245	1
75	112	1
64	65	1
30	36	1
222	246	1
12	12	1
94	121	1
242	242	2
164	165	2
21	22	1
26	230	2
0	0	2
88	88	1
182	183	1
217	222	3
162	163	2
188	242	1
57	57	2
60	60	1
97	118	1
170	190	1
96	97	1
69	70	1
37	38	2
218	222	1
60	62	1
233	234	1
225	225	2
247	249	1
171	171	1
147	154	1
237	239	1
241	241	1
4	18	1
106	106	1
13	16	1
84	85	1
100	101	1
163	164	1
176	186	1
53	53	1
96	96	1
