162	162	10
121	121	8
42	42	5
11	11	7
137	146	1
166	166	13
53	56	4
122	122	4
114	114	16
76	79	3
62	62	15
176	177	2
9	9	7
32	33	2
135	141	3
3	4	5
115	116	7
26	27	1
130	130	1
103	104	4
98	98	4
125	125	11
36	36	10
106	106	6
22	36	3
140	140	10
150	159	8
111	111	13
57	57	3
72	72	11
159	160	2
137	138	1
91	91	13
40	40	5
126	126	8
32	32	10
108	108	7
6	6	15
79	80	3
129	130	4
147	147	10
81	81	10
118	118	11
82	82	10
90	90	18
5	5	10
124	125	8
60	60	6
64	65	9
115	129	1
174	174	17
161	161	5
44	44	12
1	2	4
26	26	5
67	67	7
113	120	3
146	148	4
94	94	13
78	78	8
28	29	5
72	73	1
56	56	7
122	124	2
6	34	3
142	143	3
92	93	4
63	63	8
112	112	3
95	95	13
169	169	7
116	116	6
163	164	3
34	34	8
92	94	3
150	152	7
99	99	8
90	94	2
178	178	4
97	97	19
104	104	5
144	144	5
17	18	1
150	150	10
80	80	8
52	52	3
86	86	6
41	148	8
111	120	3
74	75	3
95	96	5
10	27	1
60	61	4
30	30	21
25	26	4
148	148	4
105	105	11
51	51	3
173	174	1
14	14	16
154	156	3
27	27	14
127	127	4
45	46	5
54	84	1
53	54	12
108	122	7
66	66	7
172	172	16
60	63	3
58	84	5
114	117	1
90	96	2
98	99	3
154	159	4
16	16	9
33	34	3
29	31	3
163	163	9
55	55	11
150	151	5
35	35	14
76	77	2
119	119	5
124	126	2
76	76	8
91	92	6
139	139	7
58	58	5
31	31	10
152	160	4
128	128	6
84	85	3
10	13	1
2	2	17
96	96	5
136	136	9
40	142	1
157	164	1
155	155	7
168	168	1
115	136	4
8	8	3
22	26	3
115	130	2
10	33	1
128	129	3
179	179	2
107	107	5
38	38	4
120	122	1
110	110	5
64	64	6
84	84	2
159	159	7
73	74	2
28	28	4
175	175	3
146	146	9
57	85	5
73	73	5
55	56	4
142	142	4
174	178	4
29	29	7
176	176	8
83	85	3
133	133	8
31	32	2
113	113	8
53	83	2
135	135	2
127	128	2
93	94	3
160	160	5
23	23	4
57	58	3
42	129	4
43	43	4
39	39	6
10	14	2
153	155	7
24	24	13
88	88	5
180	180	3
156	156	6
43	52	1
19	19	3
75	75	9
56	58	4
50	50	1
15	16	1
11	12	3
173	177	2
12	12	6
103	103	5
70	71	1
100	100	4
74	74	2
105	107	3
7	10	3
59	62	2
123	123	4
41	41	7
113	127	5
118	119	3
61	61	10
59	59	3
53	53	9
124	124	6
18	37	1
102	102	12
152	159	2
18	21	4
58	62	8
138	138	4
89	89	7
22	22	10
17	39	4
135	137	1
81	87	2
173	173	7
15	19	1
171	171	1
125	126	2
131	132	1
126	127	2
79	79	4
54	54	7
66	67	2
89	94	2
153	154	3
141	141	6
169	170	1
131	131	7
77	79	2
167	167	5
165	165	4
91	93	1
140	141	2
138	140	1
17	17	5
149	167	4
139	140	10
123	124	3
6	27	3
115	117	1
1	1	2
15	15	5
86	87	1
151	152	3
112	113	4
44	52	1
135	136	4
54	134	3
177	178	1
62	63	5
90	91	4
149	159	1
41	144	3
93	122	3
87	87	3
152	152	8
40	41	2
158	158	2
170	171	3
71	71	9
20	21	4
147	148	8
117	135	1
89	90	3
59	60	2
7	23	2
18	18	2
130	131	4
122	125	1
170	170	3
153	161	4
143	146	3
122	123	1
157	158	1
67	68	1
43	128	1
59	61	2
164	165	2
13	13	3
106	107	3
54	56	2
38	39	6
134	136	1
25	25	2
3	3	3
58	59	3
121	122	4
151	151	1
7	7	2
155	156	5
81	82	2
4	5	1
37	37	6
116	145	2
159	162	2
174	175	1
154	154	5
39	40	3
148	151	3
43	44	1
21	21	5
155	158	1
1	3	1
109	109	5
114	119	6
171	172	1
115	115	3
71	72	3
90	95	2
158	159	1
115	118	4
147	152	3
146	147	3
101	102	1
56	82	1
8	13	3
35	36	5
119	120	2
153	159	1
92	92	2
165	166	3
39	62	1
153	158	1
10	10	4
129	129	2
104	105	3
33	33	2
13	14	1
120	120	4
164	164	1
177	177	2
157	157	1
61	66	3
53	84	1
53	128	1
132	132	1
41	42	1
143	148	1
134	134	3
64	82	1
100	101	1
63	64	1
75	77	1
39	163	1
160	161	1
75	76	1
134	135	1
95	101	1
42	43	2
93	93	1
12	46	1
114	134	3
41	142	1
49	49	2
43	54	3
16	17	1
70	70	1
53	132	1
109	110	1
133	134	1
56	57	2
8	25	2
83	84	2
77	77	3
149	151	1
14	33	3
149	150	1
152	153	1
43	130	1
79	87	2
141	142	1
143	143	2
149	149	2
86	125	1
138	139	1
80	81	2
96	97	2
116	117	1
134	140	1
115	135	2
159	166	1
107	108	1
148	149	1
117	118	1
145	145	1
65	65	1
99	100	1
34	36	1
20	20	1
