35	35	7
81	81	3
247	248	6
40	40	8
111	111	2
11	11	4
216	217	8
76	76	3
247	247	5
248	248	2
94	200	3
66	112	3
198	198	6
90	93	1
45	46	3
98	98	2
55	55	9
28	28	8
235	235	2
32	32	4
65	87	3
197	197	6
152	152	3
60	60	5
231	232	2
25	33	12
166	166	4
2	3	3
1	1	3
115	115	3
64	64	5
231	231	6
225	225	2
43	43	3
7	9	3
54	55	5
71	71	5
156	156	4
24	24	7
115	117	2
148	168	1
9	11	2
21	21	2
32	33	1
31	31	10
25	25	3
7	7	5
34	34	1
101	101	4
194	196	1
155	156	6
228	229	3
90	90	6
65	66	3
69	69	8
83	83	7
236	237	3
180	181	4
158	165	3
103	103	7
190	237	4
221	221	4
4	10	1
189	190	3
113	118	2
200	200	1
84	84	7
80	80	11
9	14	3
58	58	5
13	14	2
167	168	2
95	103	3
207	208	6
175	175	8
205	207	4
50	50	3
22	22	8
95	201	1
240	241	3
211	244	3
67	67	4
40	42	3
173	173	2
45	45	3
180	180	2
211	211	3
83	197	4
214	214	5
151	171	3
87	87	6
50	169	3
193	193	5
228	228	1
190	190	2
209	209	4
180	230	1
51	202	5
179	181	2
153	153	3
77	79	1
165	165	6
219	219	14
29	30	1
119	119	10
117	117	4
174	174	1
191	199	1
211	212	8
183	183	5
75	75	7
6	6	3
82	82	4
85	85	3
61	86	9
185	185	2
216	216	6
80	81	4
102	102	2
210	211	2
33	33	3
204	204	2
227	227	3
23	24	1
92	92	5
3	3	8
115	121	3
161	161	8
27	27	1
213	213	3
92	98	3
106	106	1
62	62	5
59	160	3
36	36	8
233	233	1
74	75	1
4	6	5
15	16	2
39	39	4
149	150	3
205	205	4
14	42	2
34	36	1
201	204	2
192	214	2
30	30	4
26	29	1
175	176	5
15	15	4
48	48	5
95	98	6
116	116	3
52	52	4
190	239	3
18	19	4
199	199	6
48	94	2
84	85	3
203	203	4
180	236	2
150	150	6
41	41	8
49	172	3
104	104	4
111	112	7
215	215	2
96	104	1
38	42	1
184	184	1
10	10	2
75	111	2
240	240	4
4	5	2
100	100	2
37	37	5
113	113	1
244	244	3
218	218	2
158	164	2
91	91	1
187	187	4
179	179	3
47	47	1
212	212	4
91	92	1
155	155	2
179	204	1
210	210	3
95	209	2
175	177	1
38	38	8
99	99	4
35	36	1
93	94	2
245	246	3
203	205	3
241	241	2
69	70	3
118	118	3
48	176	2
77	77	1
184	185	3
232	233	3
202	204	2
41	42	3
28	33	1
160	160	4
181	181	1
9	41	4
94	94	2
77	78	3
12	12	3
23	23	4
202	202	3
171	172	2
95	99	2
214	231	1
67	71	1
224	225	5
176	176	2
164	164	1
232	232	9
17	18	2
109	110	2
71	117	3
1	100	2
59	60	3
206	211	1
198	199	4
205	209	1
99	100	2
218	221	3
66	67	4
186	187	2
218	219	1
38	41	3
10	200	1
21	26	1
178	179	2
96	240	2
11	12	3
59	81	2
169	169	1
48	200	1
170	170	1
47	51	3
192	192	1
54	54	4
202	203	4
180	232	1
214	215	3
151	151	1
19	19	5
42	42	2
182	182	1
84	91	1
188	188	2
162	162	1
21	22	2
98	99	1
99	104	1
239	241	2
1	2	1
59	197	1
16	16	2
17	25	1
67	68	3
66	118	2
8	8	2
112	112	1
103	205	1
60	68	2
51	52	1
164	165	1
217	217	1
18	18	1
96	96	1
68	68	1
61	62	2
238	238	1
110	110	1
171	171	1
185	236	2
92	94	1
76	78	1
88	88	1
105	106	1
243	244	1
154	154	1
162	173	1
243	243	1
9	10	1
30	31	3
187	225	1
67	112	2
75	107	1
73	73	2
158	158	1
209	241	1
20	24	1
207	207	1
229	229	1
242	242	1
67	70	1
93	93	1
