50	53	2
23	24	2
46	71	6
24	27	2
83	86	7
12	12	14
68	68	9
19	19	8
85	85	9
57	58	4
4	67	2
27	27	9
50	63	3
78	79	4
8	15	3
59	76	5
56	56	6
73	73	14
12	14	8
76	76	7
17	17	15
46	46	3
63	63	3
62	62	7
88	88	2
83	83	9
71	79	3
23	23	12
79	79	8
77	79	4
89	89	8
21	29	5
49	49	2
0	0	10
53	53	4
64	64	15
60	61	8
54	90	2
71	82	3
67	67	18
11	14	2
1	1	4
13	13	8
11	11	6
54	55	5
55	55	15
70	70	8
46	82	3
75	75	5
86	86	7
84	84	15
25	25	19
81	81	8
22	66	4
66	66	7
69	69	6
58	77	1
5	7	1
4	47	2
23	66	1
34	34	1
6	6	5
58	62	3
3	3	13
14	25	3
87	87	6
57	85	5
31	31	18
72	73	3
26	66	3
27	56	1
57	57	5
27	31	2
57	87	2
31	86	1
20	21	2
80	80	5
22	22	2
83	85	4
78	80	2
11	33	1
26	27	2
55	70	6
16	23	2
29	29	1
68	70	3
16	16	1
50	50	3
8	8	5
66	85	2
14	23	4
47	47	11
9	11	1
72	80	5
55	77	2
19	64	3
28	28	15
5	19	1
77	77	9
7	34	3
71	81	6
48	85	1
54	54	3
2	2	6
19	20	5
58	58	9
4	4	6
8	11	3
13	35	1
21	21	4
24	28	5
74	77	1
7	7	1
7	56	2
4	22	2
65	86	1
85	86	2
12	13	1
15	15	9
14	30	3
23	64	1
53	54	2
13	16	2
11	56	2
30	30	6
9	9	2
78	78	2
3	68	2
60	60	4
7	10	2
10	10	4
74	75	1
16	17	3
48	48	4
74	74	4
4	29	1
20	20	2
25	26	4
60	63	1
29	30	1
4	53	1
56	57	2
75	77	4
65	65	5
82	82	3
27	55	2
12	32	1
69	70	5
22	23	5
19	22	1
51	64	6
47	48	4
5	20	1
26	26	1
72	72	5
31	85	1
73	74	2
24	65	2
82	84	2
5	26	2
50	64	1
14	14	1
28	31	1
68	89	1
6	20	1
5	5	3
57	81	1
25	65	1
23	65	1
49	50	5
56	90	1
59	59	2
79	82	1
28	30	1
50	56	2
51	52	2
71	73	1
35	35	1
51	51	3
3	4	1
61	61	2
6	9	1
60	64	1
59	80	4
71	71	1
61	62	3
67	84	1
87	88	2
4	88	1
77	80	1
58	76	1
50	88	1
57	72	1
81	83	1
59	61	1
64	65	1
63	64	2
67	68	1
