73	93	1
4	6	2
75	75	3
30	36	7
114	114	3
50	50	4
121	122	7
10	21	3
99	103	1
134	137	1
77	77	12
104	112	2
127	127	7
120	128	2
21	21	7
73	100	1
45	45	2
154	154	7
84	85	11
93	95	3
138	148	9
24	26	2
113	149	3
46	46	5
117	117	12
25	25	7
135	135	6
71	71	4
135	143	1
49	50	2
108	109	3
13	13	3
79	80	1
79	82	2
40	40	8
104	104	4
22	23	3
65	69	3
153	153	4
37	46	5
132	132	6
17	21	5
65	67	1
30	30	10
73	73	4
113	154	1
125	125	5
139	139	2
62	103	1
39	43	1
62	72	4
105	106	8
129	129	3
4	4	12
146	147	2
98	100	2
78	79	1
142	144	4
150	150	3
33	53	2
69	69	6
136	148	1
132	141	2
43	43	2
12	13	2
53	126	2
18	18	6
93	93	6
85	85	4
145	148	3
53	54	2
13	27	3
138	146	3
41	41	3
38	38	1
132	134	2
111	125	3
74	74	10
140	142	2
150	154	3
81	81	4
57	57	4
101	101	3
28	28	4
142	142	1
86	92	1
127	129	1
132	133	6
123	126	6
83	83	2
16	16	2
136	136	5
138	150	2
92	97	3
110	148	1
74	75	2
110	122	3
76	77	4
126	127	2
48	48	5
91	91	4
42	42	2
14	14	5
42	50	2
53	53	3
122	122	7
120	130	2
111	111	8
109	109	8
152	152	6
83	84	6
24	31	3
85	86	2
3	3	8
100	100	8
26	27	1
20	20	4
112	115	3
107	107	8
66	66	1
10	10	3
84	84	6
8	8	2
142	148	2
54	55	2
62	95	1
19	31	1
129	131	6
74	80	1
25	27	2
109	110	2
73	75	4
130	147	1
42	43	1
78	80	1
65	105	1
63	63	13
77	78	2
38	97	5
113	113	4
68	68	7
27	32	2
138	141	1
63	74	1
122	135	3
131	148	1
81	82	1
4	5	1
52	53	2
150	152	3
131	131	6
33	33	2
80	82	3
49	51	1
76	79	1
78	85	1
26	29	2
22	122	1
141	148	1
16	21	2
82	95	2
48	71	1
116	116	2
12	15	2
145	151	1
37	37	2
29	29	6
49	74	1
103	118	3
97	107	2
80	80	2
46	51	1
15	15	1
132	144	1
87	98	2
58	58	2
13	14	2
127	132	1
10	12	3
22	26	3
67	69	2
36	38	2
74	84	3
22	121	2
114	139	5
70	71	1
24	24	4
144	148	3
17	17	2
133	134	4
72	83	2
27	28	3
85	87	2
148	148	1
135	136	1
64	75	1
70	74	2
126	128	2
123	136	1
133	136	2
74	83	1
33	44	3
6	7	3
137	143	2
141	144	5
137	137	1
111	123	1
134	134	7
40	41	2
67	68	4
24	36	2
23	123	1
33	34	2
32	33	2
114	127	2
125	127	6
153	154	4
42	83	1
31	35	5
21	37	1
16	17	1
99	100	2
62	64	1
146	146	2
32	32	2
102	102	1
130	130	3
72	73	2
92	95	1
26	30	1
117	128	1
6	6	3
118	122	1
104	106	2
47	49	1
11	16	1
35	35	3
47	47	1
142	143	2
109	143	2
95	95	3
133	133	2
139	146	4
130	131	3
54	54	9
30	31	4
88	88	1
25	28	2
110	146	2
75	76	2
120	120	2
115	115	2
75	105	2
126	126	2
76	76	2
100	115	1
19	20	1
99	99	5
44	44	2
94	94	3
73	95	3
22	24	1
49	49	4
100	104	1
115	118	1
113	118	1
92	92	2
69	134	2
138	140	2
133	137	1
46	48	1
100	102	2
70	70	4
115	126	1
15	17	1
45	47	2
103	110	1
14	17	1
11	13	1
124	124	1
90	109	1
26	26	3
6	16	2
108	110	1
108	108	3
62	62	1
136	139	3
68	79	1
9	19	2
39	39	3
120	124	2
20	24	2
133	135	1
8	22	3
27	27	4
119	123	2
26	35	1
47	48	1
19	19	1
71	83	1
7	7	1
119	121	1
147	150	1
19	30	2
41	45	1
62	93	1
63	64	1
75	79	1
71	76	1
46	47	2
147	147	2
128	136	1
118	138	1
123	129	1
25	26	1
113	114	1
129	138	2
77	81	2
78	78	2
25	29	1
132	140	1
118	118	1
87	89	1
46	131	1
8	121	1
110	123	2
28	29	1
42	44	1
27	37	1
4	9	3
9	9	3
22	22	3
13	16	1
28	43	1
56	104	1
10	17	1
144	145	2
55	56	4
11	12	1
73	86	1
86	95	1
4	17	2
25	36	1
110	110	1
50	97	1
70	79	1
145	145	1
32	39	1
63	67	1
149	149	1
131	133	1
34	34	1
100	101	2
139	149	1
18	23	1
25	37	2
34	35	1
74	78	1
139	151	2
31	125	2
31	31	1
128	137	1
121	121	1
14	25	1
109	112	1
5	5	1
130	132	1
115	125	1
67	67	1
122	123	1
114	115	1
97	98	1
