229	236	8
101	101	25
173	173	8
72	72	20
143	191	2
103	111	4
18	18	16
167	175	2
235	235	8
56	56	15
0	0	14
79	79	17
129	196	3
213	213	22
97	98	6
130	130	7
202	223	3
102	102	12
141	141	10
112	112	5
116	116	16
19	161	4
76	76	16
31	31	37
122	136	3
8	8	10
202	202	12
137	181	6
66	66	32
232	242	2
165	166	10
0	1	3
230	230	23
4	81	2
100	137	2
109	109	3
78	78	21
51	52	7
33	33	17
207	207	14
169	216	6
241	242	6
197	200	2
169	169	6
57	58	5
219	219	7
75	75	14
50	56	4
25	25	13
50	54	3
150	152	4
112	228	2
133	133	6
70	70	33
9	167	3
193	194	8
16	16	20
124	124	20
104	108	5
73	151	2
178	178	13
42	43	7
34	37	5
36	56	2
97	97	18
171	171	10
134	134	12
156	156	16
61	69	2
205	205	14
63	63	23
174	209	6
121	122	5
215	215	11
49	50	6
119	119	7
84	84	21
122	123	5
81	161	5
41	50	12
168	168	21
60	60	17
221	221	25
172	172	15
43	62	9
40	40	16
192	192	9
42	42	17
20	20	5
106	106	23
201	226	4
9	35	7
105	105	20
107	110	1
103	126	4
153	153	24
69	69	13
81	91	1
169	197	3
54	77	8
4	4	9
56	57	1
89	89	6
122	122	17
180	200	1
66	70	1
177	193	6
155	208	5
137	138	8
229	229	20
85	85	11
32	32	16
17	17	21
153	155	6
20	21	12
67	69	5
34	35	8
221	222	13
147	151	2
226	226	4
1	43	2
144	145	3
120	171	3
9	9	5
107	108	5
102	122	2
22	35	2
124	206	3
232	232	11
177	197	2
206	206	21
218	218	4
39	39	16
67	67	28
128	128	13
139	151	6
54	73	4
6	6	16
206	212	2
190	190	12
149	149	4
61	61	23
210	210	12
101	121	2
191	235	3
15	15	24
28	35	7
32	55	1
120	120	19
82	83	7
42	219	3
62	62	14
190	193	4
133	134	14
103	103	19
155	172	14
231	235	1
107	107	8
208	208	12
35	35	12
18	21	3
99	104	1
201	203	2
3	54	1
29	29	15
46	46	13
57	61	6
152	152	13
113	115	10
143	143	14
53	53	18
72	75	3
55	55	8
209	210	12
203	203	9
182	182	16
24	24	21
34	77	5
43	65	1
128	240	2
16	19	1
47	47	7
127	143	2
120	130	2
115	118	3
99	103	4
118	127	11
73	73	9
142	142	13
193	193	13
231	231	23
175	175	11
149	241	1
29	30	2
41	42	6
106	112	2
62	67	2
59	69	4
56	70	4
65	66	13
158	158	23
129	158	5
224	224	18
178	179	2
12	33	3
17	19	8
69	70	4
76	84	2
227	227	33
81	82	5
10	10	23
136	136	7
207	233	2
25	30	5
14	37	1
120	192	3
202	205	9
150	182	2
7	8	13
155	157	3
225	226	3
113	116	2
193	196	3
43	43	8
66	80	1
82	82	20
232	238	5
220	221	5
152	156	2
119	124	6
79	159	2
2	34	6
189	239	3
214	214	9
138	139	6
154	154	8
68	68	11
222	222	20
150	151	3
29	40	2
223	223	14
139	176	3
3	53	3
84	155	4
22	22	18
52	58	1
30	71	4
155	156	6
116	124	3
64	64	11
45	120	3
5	7	7
116	173	9
37	37	15
113	113	19
168	182	4
199	200	4
37	38	10
7	7	10
15	19	5
189	192	2
51	135	3
188	188	24
162	162	14
59	60	2
132	132	4
190	241	3
106	109	4
176	176	8
159	162	6
192	219	6
88	141	3
76	77	9
127	127	13
166	167	8
167	167	12
211	238	2
135	137	4
37	48	1
138	138	10
12	81	1
135	135	12
106	123	1
45	67	5
65	85	1
175	183	2
198	198	11
27	27	20
13	14	12
11	33	7
125	131	3
124	125	7
240	240	7
77	77	8
102	233	3
191	191	12
74	201	4
133	135	8
207	209	1
51	53	4
135	172	3
61	62	8
104	105	2
206	210	1
182	233	3
128	129	2
51	51	18
170	197	7
140	150	4
216	217	2
165	165	6
216	238	1
122	124	6
104	104	15
148	149	11
185	193	1
225	227	6
132	133	1
199	199	11
119	173	2
56	61	1
159	198	2
39	53	4
162	212	3
236	237	1
167	168	14
105	123	1
160	198	2
100	100	8
120	137	3
199	205	1
38	40	13
159	159	19
145	146	4
122	144	3
28	28	24
38	38	14
37	67	1
36	57	1
213	238	5
16	17	4
194	194	8
67	68	5
234	234	12
122	128	2
216	218	2
187	187	23
144	144	9
50	51	5
80	80	13
166	166	11
11	29	4
213	217	5
163	166	4
57	57	18
41	46	2
200	200	14
210	222	2
18	19	5
163	168	3
216	223	2
143	144	11
15	16	15
56	60	2
181	182	9
59	59	12
164	164	8
58	58	12
12	12	20
180	183	1
135	140	1
7	9	2
142	219	1
177	201	5
145	145	7
211	211	9
158	233	1
96	147	2
35	57	2
35	84	2
155	202	1
179	180	1
131	131	10
126	140	1
48	48	34
64	65	1
169	170	5
139	227	2
117	117	11
159	160	11
50	222	4
168	177	2
126	126	6
28	31	1
202	210	2
116	207	2
109	110	2
183	183	7
9	10	5
186	186	19
81	81	9
211	212	3
54	54	8
23	23	15
35	54	2
215	228	3
210	211	9
163	167	2
13	13	29
99	101	7
80	83	6
118	118	5
147	147	8
237	237	11
233	234	3
241	241	5
197	197	4
170	182	3
4	6	13
184	185	4
84	110	1
68	69	4
195	195	20
65	84	3
38	39	6
163	175	3
224	241	1
24	160	1
225	225	6
139	185	4
40	56	4
166	235	2
123	123	23
218	228	1
134	136	1
114	114	11
196	196	7
36	36	22
80	81	3
185	185	11
133	156	2
123	125	5
128	242	3
174	175	6
125	125	13
169	195	3
160	160	17
148	148	13
128	130	5
56	89	1
229	230	5
76	102	2
12	26	3
130	143	7
58	140	1
3	69	2
33	54	2
113	114	3
5	5	18
163	163	7
11	42	4
191	192	1
88	102	1
4	5	8
222	223	3
140	140	14
228	236	12
168	180	4
232	233	6
172	173	6
144	146	12
9	45	2
230	231	8
111	111	13
188	194	2
56	167	1
41	41	6
67	141	2
108	110	1
238	238	13
160	195	4
44	46	6
242	242	14
192	194	1
194	195	4
190	196	1
15	54	8
232	234	1
120	121	5
54	55	16
201	202	5
138	141	3
177	178	1
104	107	6
76	79	1
173	183	4
214	215	7
11	165	2
54	89	2
99	99	15
201	227	2
181	181	21
158	166	3
238	241	4
113	123	7
46	232	2
11	11	13
207	208	3
74	86	4
2	2	17
168	197	5
74	75	6
169	189	2
205	224	3
105	106	3
166	168	4
96	96	9
21	22	8
30	30	9
49	49	23
179	179	8
123	124	7
201	206	5
32	58	2
127	233	1
156	157	2
45	68	3
9	36	2
29	32	1
31	60	5
46	50	2
107	189	5
198	212	1
143	148	3
7	28	5
0	43	3
33	77	2
191	193	1
209	209	19
156	160	2
86	86	12
168	169	2
121	130	2
184	184	17
140	141	4
202	203	4
14	14	6
180	187	1
49	223	1
98	98	6
132	134	2
213	214	1
21	21	21
163	182	2
19	98	1
88	88	8
166	172	4
24	114	5
40	70	1
204	204	13
212	214	5
15	32	4
147	178	5
46	79	1
140	149	4
5	20	2
176	178	13
105	176	1
53	120	2
59	66	5
15	30	3
8	113	2
20	223	4
96	97	2
103	105	7
176	177	2
2	3	11
152	153	8
171	200	3
43	47	4
138	142	2
186	187	9
216	216	7
76	103	2
226	227	6
29	31	8
231	240	2
79	84	2
149	155	2
143	164	2
160	161	5
174	174	13
175	176	6
63	64	3
158	175	2
79	85	7
61	70	1
46	47	9
169	173	2
141	184	3
11	14	4
129	162	2
16	18	2
181	194	1
141	219	2
102	113	2
106	127	2
38	81	1
29	33	1
217	217	7
151	242	1
203	228	4
220	240	1
45	45	13
88	133	3
40	50	1
139	187	2
97	171	1
14	36	2
172	200	5
236	236	16
189	189	4
34	34	14
100	103	1
166	182	2
28	70	3
8	39	2
50	52	6
123	143	1
98	99	1
168	170	4
191	194	1
157	157	6
125	127	1
212	213	4
55	70	2
101	103	1
17	45	5
6	7	7
71	71	6
119	120	2
231	234	6
170	170	4
233	233	7
8	33	2
158	159	2
209	220	4
44	128	2
206	208	2
57	69	1
147	148	2
51	222	1
69	77	3
109	113	7
163	184	2
34	36	10
52	52	5
122	127	5
153	177	1
139	196	1
2	111	1
200	206	1
226	228	3
228	229	2
115	115	12
198	215	1
83	86	2
70	85	4
201	229	2
240	241	3
102	137	1
238	240	6
133	179	1
139	139	9
188	189	3
212	212	7
10	11	3
74	74	9
205	227	3
171	172	2
177	179	2
80	123	2
56	59	1
203	209	1
144	160	4
61	63	2
8	21	2
13	31	1
23	112	2
116	118	12
119	196	4
48	53	3
3	3	17
222	226	1
71	74	2
51	63	2
220	220	11
198	205	3
81	84	2
26	95	3
75	188	2
159	181	4
200	205	9
80	82	3
13	20	2
214	216	3
136	137	6
109	152	1
76	147	2
200	212	1
95	176	5
194	235	1
79	80	4
12	56	4
222	240	2
164	171	1
212	216	1
137	137	13
234	235	4
12	14	2
180	180	9
177	190	3
6	8	4
192	196	1
196	200	4
84	85	9
38	166	1
78	106	2
121	134	3
107	146	1
224	227	3
161	163	5
71	80	1
80	131	1
172	179	8
228	230	1
159	178	4
145	175	2
150	157	2
38	47	1
12	20	1
32	78	2
108	111	1
216	236	2
40	41	3
161	167	3
15	25	1
170	173	1
44	44	9
88	99	3
3	9	2
118	147	1
153	154	6
125	126	1
79	205	2
234	239	5
0	6	3
23	28	7
178	192	1
17	18	11
62	63	6
213	218	3
151	183	1
101	173	4
99	100	4
190	191	2
201	225	1
99	152	2
107	193	3
144	147	3
198	199	5
39	46	4
67	86	2
96	101	1
228	231	2
55	56	5
129	180	1
216	222	2
100	108	2
224	225	2
37	39	3
145	161	2
19	19	5
16	26	3
139	161	4
14	15	2
144	161	5
15	34	1
129	129	3
204	229	5
26	45	1
187	188	3
231	236	1
41	43	4
171	174	4
126	224	4
156	236	4
1	50	1
213	220	3
52	53	5
128	177	4
170	196	1
65	65	18
33	35	2
157	176	1
30	31	5
21	49	1
171	234	1
192	193	8
211	239	3
218	220	4
86	106	2
20	216	2
73	74	1
0	38	1
201	201	7
115	116	2
12	13	4
141	187	1
4	100	2
150	150	13
105	128	4
121	121	11
16	56	3
111	130	3
137	174	3
127	144	3
145	147	1
26	26	5
52	221	2
139	140	5
127	129	1
132	135	1
107	197	2
115	131	1
149	150	3
131	173	2
167	208	4
126	205	2
28	37	2
53	118	1
24	85	1
203	204	8
22	23	6
169	183	5
202	242	2
204	209	1
161	165	1
67	83	1
131	179	3
192	218	2
60	136	1
95	95	6
172	180	2
166	179	3
48	202	5
37	46	4
200	211	3
134	171	4
160	169	1
136	183	2
31	59	4
203	220	1
214	218	4
196	197	1
228	240	1
18	20	4
73	96	1
126	197	1
140	192	2
35	36	4
39	41	2
174	176	4
48	85	1
163	164	1
228	228	3
65	89	3
99	117	2
105	182	1
231	238	1
18	197	2
128	176	1
152	182	2
210	220	2
140	142	4
165	167	2
26	28	3
65	155	3
99	119	3
164	165	4
127	128	3
190	238	4
37	123	2
83	84	4
237	238	4
169	219	3
23	113	1
24	30	1
107	118	3
61	64	2
155	204	4
30	41	3
6	11	3
15	36	2
202	216	1
199	217	3
189	190	9
161	235	3
139	143	3
104	136	1
163	185	2
169	171	1
7	34	3
69	83	6
154	156	2
45	47	2
162	211	4
32	67	2
177	229	2
137	139	4
185	186	4
102	103	2
65	67	3
80	89	1
101	109	2
116	119	1
151	151	2
175	227	3
191	223	2
108	109	3
199	211	3
129	130	4
68	70	4
217	218	7
18	162	1
39	44	1
17	69	2
160	175	1
225	230	2
89	105	2
67	82	1
196	224	2
42	50	1
117	195	4
8	57	2
12	37	3
21	100	2
10	32	1
196	231	1
185	195	1
66	67	4
161	161	11
163	165	1
95	104	1
8	54	1
77	78	2
135	136	6
171	204	1
161	166	2
131	163	1
201	212	1
220	222	4
40	66	1
108	191	1
51	147	1
168	175	1
70	71	2
162	163	3
107	126	3
122	174	2
146	146	4
45	96	2
102	125	1
182	242	1
227	229	2
60	85	2
161	212	3
149	209	2
202	221	1
54	56	2
7	54	1
5	6	3
58	61	1
123	235	1
15	24	3
105	124	4
150	197	2
102	124	1
205	206	5
139	195	3
189	219	5
164	201	4
177	188	2
170	171	1
131	149	2
215	217	1
129	235	1
200	207	3
198	208	1
128	138	1
105	114	3
42	44	1
232	235	1
215	216	1
48	49	3
100	101	2
22	36	5
42	54	1
232	239	3
227	230	1
154	155	2
173	201	2
214	237	1
112	126	3
19	83	1
32	46	1
88	110	4
220	233	2
77	161	2
21	64	1
16	97	1
85	86	2
126	129	1
233	242	2
17	83	4
133	138	3
44	63	1
116	192	1
148	209	2
11	20	1
218	236	2
8	167	3
189	191	2
179	183	3
103	124	1
80	84	1
118	126	1
155	155	3
153	172	1
238	239	2
139	193	1
6	28	2
9	55	2
187	190	2
157	233	2
170	219	4
67	70	1
118	124	4
136	166	1
31	58	1
139	192	3
111	122	1
138	140	2
1	1	10
104	119	2
128	174	1
39	40	2
37	42	1
177	177	4
95	96	2
48	50	3
163	183	1
221	232	2
69	156	2
168	216	1
106	108	4
202	206	3
219	220	1
58	141	1
28	75	2
88	123	2
75	190	1
85	206	2
51	136	2
58	157	2
165	175	3
79	170	2
217	236	2
200	213	1
185	194	1
3	39	1
40	65	1
23	78	3
44	55	1
210	213	1
80	108	1
212	225	2
71	72	1
75	85	1
36	38	2
147	149	2
67	179	4
11	31	1
220	232	1
61	65	1
52	120	2
142	144	1
223	224	2
150	207	1
169	198	3
30	40	2
3	8	2
200	225	2
52	55	1
23	24	1
60	66	1
19	21	2
12	29	1
48	72	1
60	140	1
140	187	2
143	147	1
125	197	1
107	122	1
210	240	2
103	128	2
161	162	2
128	233	1
148	231	1
107	191	3
19	20	2
29	75	2
95	135	1
21	24	3
49	68	2
35	77	1
195	235	3
177	189	3
28	32	3
33	36	1
141	145	1
49	62	2
162	164	3
78	79	4
223	241	1
128	141	1
38	46	2
14	40	2
6	35	1
172	235	3
18	160	1
202	220	1
179	182	1
209	221	2
0	5	1
61	135	1
20	36	2
76	158	2
38	43	1
9	56	1
115	117	1
155	158	1
214	238	5
127	231	1
88	127	1
42	65	5
167	178	1
131	132	1
179	242	3
196	215	2
78	113	3
176	227	3
172	198	1
110	185	3
2	4	1
49	69	2
109	114	1
197	216	1
122	130	1
208	211	2
114	208	2
198	204	1
21	23	1
141	174	1
59	141	2
12	36	1
215	224	2
187	189	5
111	112	1
116	117	2
230	242	2
125	204	3
56	68	1
202	224	1
239	239	3
4	53	1
11	26	1
196	214	1
102	115	2
170	183	1
77	84	1
186	223	3
154	202	1
60	142	1
158	179	2
92	92	1
34	41	1
1	2	4
46	55	1
153	190	2
44	45	3
183	184	4
177	200	3
0	34	2
72	73	1
101	138	1
130	179	1
183	226	1
120	218	1
225	229	1
75	77	1
138	149	1
219	230	1
53	56	1
140	144	1
51	125	1
24	117	1
179	226	1
31	57	1
125	129	2
148	173	1
234	240	3
49	74	1
40	57	1
48	79	2
78	86	1
154	157	1
200	201	2
211	213	3
15	45	1
123	192	2
31	33	1
8	206	1
104	138	2
109	123	1
165	203	1
44	61	1
218	222	1
76	157	1
193	228	1
23	70	1
147	236	1
154	189	1
130	176	1
50	55	1
19	81	3
100	115	1
151	152	1
218	231	1
87	88	1
65	75	1
118	122	1
103	104	1
119	197	1
108	126	1
15	53	1
218	223	1
211	221	3
45	46	2
44	56	1
101	105	1
103	137	1
29	57	1
114	177	1
203	211	1
55	57	1
95	154	1
144	196	2
105	133	1
202	235	1
51	88	1
24	65	2
53	113	1
50	57	5
233	241	2
9	111	2
214	222	1
38	105	1
134	174	1
173	216	1
54	63	1
228	238	2
20	39	2
45	99	2
7	13	1
78	88	3
192	216	2
134	142	1
3	111	1
21	111	1
204	205	2
76	85	1
139	172	1
217	220	1
229	235	1
11	12	1
36	37	1
205	214	1
78	83	1
76	80	2
225	228	1
117	126	2
37	164	2
159	163	1
10	128	1
36	43	2
26	164	1
25	68	1
199	213	1
58	66	1
192	195	1
120	197	1
187	232	1
195	227	1
15	23	1
28	34	2
230	232	1
20	222	1
35	56	1
20	71	1
121	171	1
25	29	2
99	116	1
110	110	1
172	234	1
1	40	1
46	62	1
183	187	3
77	79	1
51	54	1
3	7	1
169	201	3
82	234	1
135	170	1
21	48	1
91	101	1
58	60	1
45	55	1
105	125	1
33	79	1
20	22	1
68	83	1
128	149	2
219	239	1
128	237	1
78	107	1
11	166	1
236	239	1
141	142	1
179	187	1
13	15	1
158	162	1
95	102	1
124	197	1
188	229	1
102	108	1
75	88	1
210	218	1
4	40	1
14	17	1
119	121	1
24	74	1
1	4	1
33	34	1
81	155	1
189	193	1
