146	146	10
45	45	12
110	110	2
81	81	5
104	104	5
16	16	5
83	163	1
168	169	4
141	141	7
4	4	6
109	110	4
35	35	5
112	144	1
5	24	4
31	31	6
95	95	2
99	113	4
163	163	3
50	70	1
23	24	5
185	186	2
135	136	2
76	76	4
166	166	5
62	81	2
28	30	6
12	12	8
19	19	4
51	113	4
80	81	3
140	140	7
192	193	5
97	99	1
10	10	3
47	47	12
123	123	4
29	29	4
44	44	9
136	136	5
183	183	3
112	146	1
135	135	5
132	134	3
119	120	2
173	189	1
40	40	12
26	39	5
105	105	3
7	7	3
7	8	4
54	54	8
36	87	2
52	53	4
15	15	2
5	10	3
152	158	2
106	106	3
32	33	4
116	117	2
194	195	2
119	119	7
22	22	4
27	34	1
142	142	6
176	176	5
35	37	5
66	66	2
1	3	5
196	196	3
17	17	1
83	83	5
116	116	6
57	70	4
165	180	1
21	22	1
62	63	3
79	116	1
10	11	1
174	174	3
165	166	7
96	111	1
0	0	3
182	182	6
152	152	5
26	26	5
141	150	2
178	191	5
14	14	7
149	149	8
133	133	2
179	179	10
66	69	3
104	105	1
165	167	2
168	168	6
38	39	4
172	189	4
151	152	2
108	109	1
96	96	1
157	157	5
154	154	13
188	188	6
11	11	6
194	194	3
41	41	4
71	72	4
114	114	5
166	185	1
178	180	2
109	109	6
120	120	8
57	57	7
185	185	4
72	74	3
144	144	2
62	64	1
5	5	1
43	44	3
189	189	4
176	177	4
193	193	3
44	52	1
162	163	2
73	73	5
39	46	1
125	125	3
103	112	3
66	67	2
20	20	5
9	9	2
85	85	7
100	101	3
161	162	4
138	138	3
156	157	2
117	117	3
68	68	4
60	60	2
55	55	2
5	33	3
155	155	3
139	140	6
59	59	4
34	35	2
115	156	1
171	172	2
124	124	4
125	126	4
15	16	3
57	61	3
82	82	3
149	158	1
67	68	3
161	161	5
191	192	3
21	21	2
67	67	3
159	159	7
63	63	2
21	25	2
80	117	2
9	10	3
98	99	1
39	45	1
103	103	4
150	151	1
102	104	1
108	108	3
83	131	1
21	34	2
88	88	4
33	130	3
16	17	3
124	126	2
1	1	7
63	67	1
160	160	3
6	26	6
190	192	2
64	65	6
164	164	6
118	149	4
53	53	5
38	38	4
149	150	4
50	71	1
41	42	1
30	30	5
39	39	2
107	107	4
189	190	2
3	5	4
146	147	1
112	112	4
122	122	2
56	56	3
107	109	1
3	3	2
154	155	11
29	31	1
61	70	1
120	137	2
134	159	2
75	76	6
160	161	3
70	70	4
28	29	3
78	78	9
173	188	2
83	84	4
173	173	4
37	81	1
58	59	2
191	193	1
137	137	2
145	145	1
39	40	1
152	157	4
165	165	2
63	64	3
69	70	1
23	23	8
111	111	2
107	119	1
111	113	4
99	125	4
47	86	1
135	137	1
64	64	6
186	187	1
5	192	1
138	159	2
44	45	2
141	142	5
177	177	5
171	171	3
119	121	1
68	90	5
40	41	1
161	163	1
178	178	5
72	72	8
82	83	3
148	151	2
94	96	1
153	153	1
128	128	3
172	173	2
115	133	1
134	134	4
101	101	2
109	186	2
99	99	3
62	62	4
171	176	1
159	162	2
89	89	1
32	61	1
55	56	1
87	87	1
96	97	2
24	128	1
28	83	1
108	140	2
121	122	2
48	48	4
64	95	1
192	192	3
43	43	2
117	157	3
69	69	2
151	176	1
8	8	3
140	181	2
116	154	1
97	100	2
58	58	3
54	56	1
143	144	2
29	171	1
76	80	3
118	118	3
138	152	3
32	32	3
132	133	3
130	130	2
3	6	2
3	7	1
114	115	3
148	148	5
171	187	2
62	94	1
170	171	2
46	46	3
5	22	1
5	6	2
167	167	3
78	79	2
142	143	4
77	78	2
70	71	3
172	172	2
183	184	2
187	192	2
157	158	2
84	85	1
122	123	4
0	2	1
23	39	1
170	170	2
50	51	1
173	174	2
153	157	1
139	139	2
75	75	2
78	136	3
118	161	1
80	136	2
80	80	1
9	186	1
52	52	5
135	180	1
130	131	2
129	156	1
147	148	2
49	49	2
6	33	3
107	156	1
36	36	2
81	82	2
66	68	1
8	21	1
26	27	2
132	167	2
77	77	1
110	147	3
44	124	1
118	132	1
30	170	1
17	19	2
30	171	1
100	121	1
136	141	1
13	13	3
133	148	2
126	126	3
190	193	1
81	86	2
122	136	1
25	26	2
144	145	1
46	84	1
33	33	1
84	84	1
102	103	1
129	129	2
115	115	2
4	10	2
30	169	1
34	50	2
97	97	1
40	118	1
190	190	1
175	176	2
98	100	1
147	147	1
133	134	1
58	96	1
108	156	1
170	194	1
48	88	1
22	26	1
85	168	1
59	88	1
129	166	1
110	112	4
186	186	1
103	114	1
188	189	1
180	181	2
158	158	1
20	21	1
150	150	3
113	113	1
42	43	1
113	128	1
79	79	1
48	89	3
100	110	1
195	197	1
98	147	1
37	37	4
32	79	1
38	42	1
132	132	1
110	111	1
6	6	1
63	68	1
61	61	2
4	24	1
187	188	2
171	174	2
155	156	1
74	74	4
25	25	1
64	84	1
43	82	1
86	164	2
118	156	1
190	191	2
156	156	1
154	161	1
167	188	2
100	106	1
3	8	2
71	73	1
75	138	1
78	126	1
170	193	1
152	153	2
150	152	1
78	80	1
61	69	2
191	191	1
76	79	1
0	1	1
8	26	1
167	168	1
197	197	1
2	2	1
74	75	1
33	35	1
156	173	1
142	144	1
101	103	1
10	196	1
0	7	1
1	25	1
42	42	1
