114	115	2
116	116	4
111	111	6
110	110	4
14	14	7
25	26	2
83	83	1
40	75	1
121	121	1
23	45	4
76	78	8
47	47	6
88	98	3
125	131	6
49	50	3
41	41	3
57	57	2
91	92	2
28	28	5
58	102	4
88	93	4
66	69	3
102	102	15
46	48	3
107	107	4
59	67	1
68	68	3
51	52	1
65	66	1
110	112	2
6	6	4
108	108	6
2	2	6
102	119	1
32	46	4
41	42	5
119	119	4
96	96	7
69	69	5
63	64	3
32	32	6
87	87	4
30	30	1
108	117	1
81	92	3
10	16	1
90	99	1
58	66	4
32	72	2
77	77	6
8	19	4
101	102	6
73	73	2
29	31	3
33	34	7
92	92	5
41	75	3
17	18	2
8	8	2
109	117	1
17	17	6
102	103	8
12	61	4
105	105	2
128	128	3
95	95	4
127	127	4
44	44	3
42	42	8
4	4	11
88	88	3
89	89	5
94	94	8
29	34	1
55	55	4
38	48	1
1	1	3
67	71	2
104	104	1
107	125	3
80	80	4
83	89	2
104	105	5
66	123	1
104	115	3
117	131	1
102	120	1
101	101	2
15	77	6
62	62	5
88	105	4
51	51	1
45	45	7
6	7	1
106	106	4
133	133	2
11	14	3
20	20	1
112	112	1
74	74	5
4	5	4
108	113	4
113	113	1
97	97	10
19	19	4
48	48	4
71	74	1
28	44	3
54	54	2
17	19	3
14	77	1
86	86	2
70	70	5
92	94	2
32	38	2
0	0	1
64	102	2
109	109	5
99	115	1
65	65	2
76	76	5
86	88	5
12	13	1
7	7	2
100	101	4
89	91	2
88	95	2
118	123	1
82	82	11
80	81	3
86	97	1
38	39	1
98	115	1
71	71	8
50	50	5
39	39	2
89	90	1
122	122	3
60	79	2
87	88	5
78	79	1
16	16	5
61	64	2
49	49	3
34	34	2
19	28	1
83	85	5
99	99	2
24	26	3
120	120	5
90	90	4
130	130	3
32	48	1
107	113	2
3	3	4
100	100	1
103	119	3
126	126	2
83	93	2
26	45	4
94	95	1
93	94	2
46	47	2
40	76	2
102	121	2
65	69	3
23	23	5
57	133	1
53	53	1
109	111	1
60	61	2
13	13	5
118	121	4
22	23	2
29	32	2
18	18	2
16	29	1
81	81	1
22	22	3
40	40	5
58	58	3
41	46	1
84	84	2
10	31	2
14	32	3
103	128	5
56	56	2
128	131	1
124	124	4
123	123	2
118	118	3
128	129	2
38	38	3
75	75	4
106	125	1
109	112	1
67	100	1
11	11	1
45	47	4
93	93	2
4	8	1
96	105	1
8	9	2
98	99	1
58	128	4
64	64	3
46	46	1
29	30	1
66	66	3
112	113	1
102	118	1
10	10	2
57	69	1
5	9	2
106	107	3
24	27	1
26	27	2
97	98	1
127	130	2
115	116	2
26	47	2
67	67	2
117	132	1
86	95	2
58	64	1
127	128	1
84	85	2
15	15	1
43	47	4
93	95	1
5	7	2
125	125	1
68	71	1
91	91	2
75	77	2
68	69	2
66	73	1
26	26	1
43	43	1
67	68	2
24	24	1
12	12	2
85	86	2
129	130	1
28	29	2
103	103	1
88	89	1
60	60	1
104	108	1
1	2	2
27	43	1
117	117	1
48	49	1
75	76	1
125	126	1
