73	73	8
131	133	5
52	53	2
100	100	24
28	28	15
53	53	18
80	82	1
114	114	17
106	116	18
108	108	8
78	78	22
45	45	28
94	95	16
42	42	9
113	149	4
17	17	37
62	62	5
92	136	2
48	48	16
135	135	20
9	10	7
80	83	5
117	118	2
122	122	11
45	46	4
140	140	9
112	112	8
14	14	10
31	33	8
54	67	1
56	57	2
87	92	4
76	77	10
82	130	3
65	67	2
39	39	9
43	43	7
84	84	12
10	11	2
130	131	9
9	9	18
40	40	13
94	97	4
24	24	9
94	96	3
101	101	7
23	23	12
71	129	4
115	117	4
141	145	3
48	55	2
25	27	2
18	19	3
87	108	4
31	31	5
111	111	12
41	42	3
46	46	22
144	145	2
93	93	15
138	138	4
11	30	4
130	130	12
106	107	7
98	98	14
97	97	8
74	103	2
136	137	4
25	25	21
110	110	13
27	50	1
83	83	11
4	6	1
2	2	4
51	51	9
48	54	4
85	147	2
7	7	16
113	113	22
27	38	2
143	144	5
72	72	20
150	150	28
124	124	3
83	84	5
75	76	3
71	71	17
148	148	9
47	47	16
96	97	8
67	67	18
153	153	5
80	129	2
57	57	8
143	143	7
105	105	18
38	38	6
69	69	7
96	98	3
16	16	13
27	27	3
29	29	12
71	109	3
123	123	9
115	115	10
44	45	2
76	76	8
12	13	7
127	127	5
39	48	2
127	128	5
104	105	9
128	128	23
67	68	9
102	128	3
124	125	5
41	41	10
147	148	9
48	50	5
123	124	1
18	18	11
132	132	9
48	100	3
42	50	1
116	116	11
103	128	7
102	102	16
144	144	15
107	107	9
99	100	6
87	87	8
49	50	4
11	20	4
139	139	12
21	123	2
35	36	1
64	68	5
111	152	3
20	21	1
17	112	3
86	86	7
84	146	2
19	19	17
79	129	1
151	152	2
64	74	2
63	125	3
21	22	9
41	43	4
48	53	1
125	125	5
29	131	1
32	45	3
70	70	17
139	143	1
126	126	7
21	21	9
85	85	9
80	80	6
149	149	11
103	103	13
119	120	9
16	17	3
117	121	2
137	137	12
131	131	15
114	115	8
134	134	25
17	18	5
31	50	4
98	99	3
4	4	5
63	63	11
32	34	2
75	77	8
36	36	6
11	12	2
133	133	18
112	113	4
109	110	9
145	145	2
124	126	2
136	136	24
118	118	23
64	64	6
3	6	4
21	25	1
106	106	17
70	122	1
132	133	2
99	99	10
23	24	4
50	50	20
11	11	5
35	35	6
85	86	7
4	50	4
56	64	2
12	12	7
44	105	2
128	131	2
55	55	3
66	66	9
64	65	3
34	38	2
142	144	4
80	144	2
13	53	2
10	10	7
7	9	4
102	103	3
150	152	3
96	96	14
15	16	2
62	63	3
136	138	2
78	139	2
117	117	6
69	70	5
94	98	4
149	150	8
13	14	2
95	95	14
85	135	2
44	44	11
79	79	1
6	6	8
106	125	1
81	82	4
34	34	8
107	108	3
99	134	4
54	54	17
38	39	3
92	102	1
131	132	7
5	6	2
152	152	4
53	54	4
62	125	2
36	104	5
74	74	10
22	22	7
109	109	17
83	85	4
77	78	4
116	117	3
63	65	1
37	44	8
74	78	3
152	153	4
15	47	2
147	147	17
16	45	2
12	15	1
94	94	9
39	40	3
86	145	5
117	122	3
74	77	4
8	8	6
113	114	3
28	29	2
141	146	1
90	100	1
107	113	1
96	99	1
58	66	1
115	152	2
33	35	2
15	15	5
12	23	3
37	110	1
83	136	1
97	99	3
91	98	1
74	104	5
49	49	6
90	102	2
19	20	1
31	37	2
110	111	1
78	128	1
3	3	1
154	154	4
123	125	3
121	121	6
62	115	2
120	122	4
95	96	1
12	14	5
103	109	3
57	123	1
138	144	3
22	23	3
6	7	1
76	93	1
28	30	1
20	39	2
30	30	3
106	114	1
119	119	14
88	88	2
33	33	3
20	20	7
78	79	3
142	145	1
26	47	1
24	25	2
8	9	2
21	69	1
135	138	3
120	120	6
125	126	1
11	15	1
56	56	5
77	77	3
121	122	6
49	51	1
13	54	3
153	154	2
54	57	2
24	67	2
137	138	2
34	35	1
104	104	5
25	29	4
129	129	5
68	68	3
116	121	1
128	130	2
5	51	2
27	36	1
55	64	3
42	43	4
80	108	2
41	44	2
26	52	2
35	105	1
79	142	5
138	139	1
67	69	2
52	52	6
47	48	1
15	55	1
151	151	3
3	4	2
63	122	1
109	113	1
39	47	3
75	75	2
81	83	4
9	22	1
78	144	1
111	154	4
74	75	2
93	103	2
110	153	1
4	5	3
66	67	1
32	32	6
46	47	2
136	139	1
6	8	4
87	88	1
84	85	1
64	128	3
24	57	1
129	130	3
128	129	6
23	26	1
100	101	3
11	13	2
43	44	1
36	38	4
133	135	1
81	88	1
10	49	1
27	28	2
73	104	1
47	58	1
141	141	3
26	26	1
68	69	1
146	152	3
13	23	1
125	127	2
36	43	1
140	144	1
4	7	1
75	144	2
36	37	2
31	32	1
48	49	2
13	13	2
9	11	2
3	23	1
64	151	1
68	123	1
27	29	1
70	71	1
7	8	1
74	81	1
72	73	1
26	56	2
86	143	2
51	52	2
10	27	2
5	49	2
113	129	2
118	119	3
37	43	1
65	65	1
8	11	1
63	64	1
105	125	2
28	99	1
122	123	1
81	87	2
14	31	1
30	49	1
23	25	1
105	106	2
148	149	1
37	37	1
50	52	2
146	146	1
97	111	1
102	132	2
73	125	1
95	97	1
5	5	2
47	51	2
150	151	2
36	41	1
48	51	1
39	41	1
63	123	1
146	147	1
147	154	1
30	31	1
20	22	1
130	133	1
85	144	1
61	62	1
142	142	1
