177	177	6
146	146	8
136	154	2
53	54	4
64	64	2
122	122	12
158	159	2
34	35	4
114	114	17
103	103	9
149	149	3
158	158	14
121	129	2
117	117	12
115	131	2
138	138	4
92	94	2
118	119	2
140	141	9
127	127	9
128	128	3
24	24	7
22	23	4
93	93	6
60	60	5
8	8	3
4	4	10
125	125	19
82	108	1
107	108	2
37	37	20
87	88	4
163	163	11
157	157	4
10	32	1
0	0	2
99	99	9
18	30	5
16	44	2
133	179	2
91	106	2
28	28	2
8	12	2
104	105	2
10	10	2
90	90	13
163	173	2
146	148	6
35	38	3
123	129	1
145	145	8
95	95	10
176	176	8
26	26	6
163	164	6
135	136	2
6	6	7
137	137	2
96	96	4
29	29	9
173	173	18
156	156	4
134	134	2
86	86	8
131	153	3
23	23	5
16	16	6
68	114	1
68	81	1
142	142	6
177	178	6
13	45	1
137	138	2
158	163	4
56	56	5
180	180	10
16	19	3
102	102	6
126	127	6
145	146	2
109	109	9
144	144	19
112	179	4
100	108	7
106	107	5
153	153	10
179	179	8
140	140	3
41	123	2
63	64	3
124	124	5
136	155	1
73	73	7
175	175	4
32	32	13
50	129	2
119	145	4
13	19	2
36	37	5
75	75	11
126	126	2
107	107	5
42	43	6
38	38	6
39	39	4
142	143	5
61	61	9
0	18	5
64	141	1
54	58	4
143	145	4
27	27	7
174	174	4
5	45	3
90	94	4
159	159	6
13	13	9
169	169	4
154	169	3
72	73	2
55	65	3
125	126	2
168	170	4
59	59	8
168	168	10
63	63	13
9	9	7
101	106	2
53	53	2
24	44	3
167	174	3
70	70	3
52	57	1
141	141	7
62	62	3
171	174	2
16	17	12
116	149	1
8	15	3
134	135	3
90	96	2
31	31	9
157	160	1
80	80	11
105	105	6
7	7	8
113	133	1
147	153	2
103	104	5
132	141	2
25	25	13
6	8	1
22	22	3
74	74	9
160	174	1
27	44	2
167	167	5
61	64	1
1	1	4
0	23	1
147	147	6
165	165	4
15	15	2
140	153	3
76	76	8
40	40	10
129	136	3
124	127	2
5	26	3
166	166	6
15	20	1
66	66	13
91	93	2
66	85	1
113	114	4
75	112	2
72	72	3
29	30	1
30	30	5
101	105	1
150	174	3
135	135	8
33	33	12
123	125	1
50	61	1
84	84	3
106	106	11
28	45	9
36	36	8
99	108	2
67	76	3
80	81	2
119	120	3
91	98	1
30	59	2
30	31	2
81	81	15
112	119	2
85	87	4
64	68	1
83	83	1
17	17	6
123	136	5
133	133	6
78	79	5
55	55	5
139	139	3
11	13	3
130	135	4
31	34	3
94	94	10
1	4	1
102	107	1
167	172	1
18	19	1
133	134	3
32	36	1
32	35	1
157	159	4
165	166	6
64	114	2
55	74	1
26	29	2
65	65	4
164	164	8
122	125	2
5	5	2
51	51	9
42	42	5
1	19	1
160	170	2
153	155	2
88	88	3
78	78	2
131	131	5
43	43	10
115	116	1
108	108	6
139	140	2
172	172	1
97	119	3
114	135	1
61	63	4
160	164	1
21	29	1
107	161	1
15	16	1
123	123	11
5	29	4
19	19	4
11	11	4
148	148	8
54	76	2
164	165	2
100	100	2
121	121	11
41	41	9
148	149	2
112	114	2
162	176	4
175	177	2
158	174	1
141	142	1
150	163	2
44	44	2
111	113	6
161	162	4
97	97	3
162	163	2
45	45	3
120	120	2
61	62	4
171	171	3
130	130	6
147	149	2
132	132	8
125	144	1
129	129	3
67	67	1
123	124	5
87	87	3
116	117	4
178	178	7
72	82	1
89	102	1
2	3	3
100	102	1
14	14	10
152	153	1
121	142	1
169	174	3
12	15	3
113	113	2
31	32	6
77	113	2
71	72	2
25	44	5
54	134	1
10	14	2
7	12	2
39	42	1
18	18	6
113	119	3
60	65	3
9	13	2
82	85	1
151	151	2
12	12	4
51	53	2
2	2	2
40	43	3
92	92	4
57	57	6
5	6	3
82	82	4
164	168	2
10	11	4
20	46	2
115	115	5
96	98	2
97	99	2
146	156	3
27	31	5
36	38	2
1	87	3
7	11	1
74	75	3
34	36	3
138	139	1
74	76	4
59	61	1
101	102	1
98	98	7
34	34	3
169	173	1
83	163	3
161	170	2
90	138	2
63	81	3
150	150	4
58	63	2
118	118	2
124	136	3
110	125	2
92	96	6
116	116	3
74	134	1
40	42	1
139	155	1
114	115	2
21	24	2
159	160	2
112	112	7
87	108	4
65	77	7
3	28	2
56	62	3
170	174	1
12	20	1
122	173	2
143	172	1
21	23	2
29	36	2
112	113	2
98	99	1
81	102	1
73	75	3
54	57	2
93	97	1
144	145	3
71	71	3
91	91	2
105	127	3
16	62	1
116	156	1
64	67	3
54	54	3
143	143	4
169	175	1
67	80	1
108	109	1
53	116	1
157	158	1
9	15	1
52	63	2
110	121	3
111	122	2
74	115	1
24	87	1
160	161	2
51	129	1
90	95	2
85	85	4
72	91	2
103	108	2
170	170	4
148	150	1
65	66	1
136	177	1
62	115	2
50	116	3
31	35	3
62	65	3
118	141	1
167	173	2
89	90	2
87	107	2
94	95	2
143	144	1
101	123	2
131	177	2
16	61	2
154	154	1
155	156	6
68	112	3
173	175	3
52	52	3
118	120	1
143	148	2
50	142	1
114	133	2
11	12	1
24	45	2
7	9	3
40	124	1
161	161	2
38	40	2
5	24	1
54	61	3
23	41	1
121	122	2
122	124	1
3	3	2
110	165	1
77	84	2
91	92	1
107	109	1
131	135	4
33	37	1
136	136	1
112	115	2
29	34	2
66	68	3
101	103	2
56	59	1
121	143	3
167	168	1
29	32	1
35	35	2
50	53	2
119	148	1
26	68	1
60	61	2
77	77	3
143	178	1
55	76	1
78	83	1
171	172	1
42	87	1
142	146	2
41	42	2
86	87	1
89	94	3
64	134	1
56	115	1
155	155	2
18	61	2
53	56	1
110	158	2
126	179	1
124	125	2
19	20	1
6	11	1
139	141	1
83	89	2
63	67	1
78	84	1
65	85	1
93	96	1
16	59	1
81	94	3
8	11	1
84	85	1
101	101	2
41	101	1
51	158	1
131	178	1
104	104	2
111	157	1
74	79	1
110	111	1
99	102	1
100	106	2
67	87	1
64	146	1
42	44	2
91	94	1
50	62	1
89	106	1
79	79	1
122	144	1
163	168	1
9	11	1
163	165	1
7	10	1
51	56	1
164	169	2
111	111	3
157	177	2
55	56	1
169	171	1
156	178	1
5	16	1
118	154	1
160	160	1
82	110	1
68	68	1
23	44	1
1	24	1
84	94	1
29	33	1
111	118	1
55	149	1
12	18	2
58	58	1
131	170	1
35	42	1
92	93	1
