100	100	5
146	146	1
56	56	10
72	72	5
161	161	4
120	134	1
26	26	6
162	162	3
14	18	4
151	151	3
171	172	2
9	10	3
41	41	8
45	45	4
57	108	6
163	176	1
185	185	4
148	148	4
103	103	1
122	123	3
187	187	9
18	20	2
177	177	10
172	172	5
91	91	5
20	22	6
64	90	7
78	78	2
105	105	2
111	111	5
122	131	1
76	76	7
144	149	4
96	97	2
110	110	5
65	92	2
176	176	1
39	39	2
158	158	5
3	3	2
190	190	5
100	149	1
105	146	4
112	112	2
175	175	7
34	35	5
46	46	6
47	47	4
137	137	6
2	7	2
114	141	3
121	121	5
56	76	3
1	1	4
174	176	2
66	67	2
67	67	3
104	147	3
88	142	1
88	88	1
154	154	1
78	79	2
23	23	2
169	170	5
186	189	4
139	139	2
179	189	2
55	56	1
6	48	2
77	77	5
166	167	7
106	108	5
137	138	4
109	109	3
17	31	2
42	42	1
13	13	4
71	71	1
75	75	6
87	87	2
16	16	3
7	8	5
17	48	1
109	110	1
120	120	2
76	77	4
179	180	1
181	181	6
77	84	1
99	99	2
79	79	5
126	139	1
70	70	5
159	160	4
54	71	1
42	44	5
34	34	3
92	92	1
66	66	6
4	4	6
89	89	3
90	92	1
55	57	1
57	60	1
36	36	1
168	168	3
102	102	4
115	115	1
12	20	1
58	58	2
138	138	2
68	68	1
95	96	3
30	38	2
183	183	3
174	174	2
23	24	3
0	0	1
178	178	2
6	13	1
179	186	1
127	127	1
109	139	1
29	30	1
32	32	3
86	142	1
81	81	1
29	29	1
167	167	4
63	99	2
126	134	1
14	22	1
27	30	3
14	14	3
115	144	2
176	180	1
93	93	2
188	188	1
184	184	3
60	60	5
119	155	1
22	22	2
102	128	4
11	16	2
53	57	1
97	97	1
92	93	2
25	25	1
113	113	3
17	17	3
94	97	1
118	118	1
0	72	2
18	18	1
84	84	3
55	55	3
59	82	1
37	37	6
3	48	1
86	86	1
96	96	2
130	130	1
167	172	2
89	95	1
164	171	1
33	35	5
14	15	2
98	98	2
11	11	4
38	45	1
52	53	3
163	163	3
71	78	1
19	19	2
35	46	5
5	5	5
13	20	2
154	177	1
97	100	1
164	165	1
85	85	1
143	143	1
65	90	1
157	163	3
32	33	1
44	44	1
145	145	2
39	41	1
63	63	1
62	62	1
166	166	3
73	73	1
116	116	1
129	146	2
62	85	1
80	80	1
165	165	3
35	35	3
106	106	1
8	8	1
124	124	1
171	171	1
188	190	3
96	99	1
128	135	1
119	158	1
189	189	1
64	64	1
149	149	1
164	167	1
104	104	1
156	156	1
160	160	2
87	88	1
94	94	1
123	123	2
7	7	1
164	164	2
30	31	2
39	42	1
61	62	1
151	158	1
15	15	1
36	47	1
6	6	1
162	178	1
102	110	1
186	186	1
122	122	1
132	132	1
158	159	1
