46	46	8
111	111	6
4	4	12
135	135	21
24	31	1
102	102	16
134	135	3
155	155	22
194	197	1
45	45	14
156	157	3
110	110	9
169	170	5
141	142	8
66	66	13
11	37	2
101	101	15
3	3	12
63	63	9
157	169	3
66	68	3
73	73	19
122	122	25
41	41	21
126	126	6
0	26	4
169	169	21
188	189	2
8	10	1
173	173	15
3	5	2
3	6	2
127	128	2
80	85	2
123	123	15
175	182	2
184	184	15
88	88	7
43	43	15
143	143	11
12	12	12
139	139	13
33	33	13
72	72	15
139	140	7
39	42	3
86	87	12
14	15	3
39	39	12
117	117	19
182	182	12
128	128	16
101	102	3
99	151	7
111	115	1
179	179	26
30	33	5
152	152	10
178	178	11
18	18	20
114	114	13
196	196	12
177	177	9
145	145	16
100	100	8
113	113	22
110	113	3
155	165	5
79	89	6
147	147	15
194	194	17
110	111	3
53	54	4
32	32	11
47	47	27
150	158	3
24	24	29
172	172	11
126	127	4
8	9	11
140	140	9
105	105	16
48	48	13
16	17	4
60	60	12
19	22	3
125	125	10
9	9	28
149	149	21
123	149	2
50	50	15
23	23	32
26	28	1
197	197	13
18	20	2
159	159	4
192	192	6
94	94	10
124	124	7
38	38	14
12	15	1
180	180	10
104	107	3
7	7	22
112	113	8
83	86	3
100	101	8
0	3	1
144	145	4
188	188	10
170	170	13
93	93	4
150	150	9
25	25	16
40	41	4
6	24	4
17	17	16
189	189	14
151	151	6
116	147	2
176	176	10
132	132	15
82	82	6
173	194	2
94	139	2
174	174	6
186	186	23
133	133	9
119	155	1
137	137	7
38	63	4
11	12	9
158	158	11
32	71	1
111	130	1
29	75	2
121	132	4
97	150	4
98	99	1
42	42	11
65	65	15
94	98	4
40	59	2
156	156	13
169	180	5
26	26	10
116	116	15
68	68	16
144	144	10
187	194	3
0	24	3
101	142	3
114	187	4
167	170	5
45	49	4
28	28	7
27	39	4
73	74	4
103	103	13
0	1	4
2	3	7
67	76	3
153	153	8
44	45	4
116	117	3
89	89	12
78	78	8
149	150	10
26	27	1
167	167	9
76	77	1
53	53	11
190	190	11
22	22	9
27	27	16
86	89	5
157	157	20
79	79	14
49	50	8
37	42	2
157	158	9
11	11	23
37	48	1
18	19	6
10	10	16
87	87	11
67	67	10
19	20	3
30	30	8
191	191	11
3	4	11
164	164	16
98	98	6
14	14	15
170	172	5
177	189	1
108	108	4
171	171	19
107	107	23
19	21	2
97	97	13
195	195	17
82	84	12
96	96	5
70	71	9
84	85	1
13	13	14
52	52	23
181	182	9
8	139	4
168	168	19
165	165	11
161	161	19
104	109	2
175	178	3
186	195	4
48	49	10
51	52	2
141	143	1
101	110	1
58	59	5
69	69	15
165	185	2
64	65	2
6	6	6
43	58	4
95	96	3
25	73	3
107	108	14
5	6	7
99	99	9
123	158	4
98	118	6
129	129	25
166	188	2
40	40	7
65	67	1
29	30	2
1	4	1
118	118	7
55	56	5
8	55	4
0	0	15
104	130	3
54	54	6
34	34	11
24	25	6
122	193	1
94	97	2
154	154	11
22	23	6
49	49	18
161	162	1
20	20	14
57	57	20
136	136	12
164	166	4
70	70	12
27	28	5
16	16	4
112	112	17
80	80	7
191	192	8
8	8	4
67	106	2
183	183	12
55	55	10
97	99	5
80	87	1
20	21	6
45	51	4
124	127	1
160	179	1
82	83	2
118	187	3
53	57	3
27	80	3
45	47	4
151	152	4
8	102	3
21	23	1
100	115	2
15	15	19
86	86	9
174	176	2
142	152	2
75	75	6
134	137	2
177	180	4
85	85	8
104	108	3
83	83	5
146	147	2
19	42	4
74	74	12
90	90	8
4	5	4
146	146	16
44	44	19
76	81	4
2	81	3
109	109	5
119	119	5
53	56	2
163	164	3
66	73	2
163	166	4
118	189	5
145	148	3
21	21	9
113	114	2
182	183	4
115	115	16
176	177	4
152	157	3
142	142	9
77	78	5
68	69	4
131	131	4
103	104	3
37	38	1
69	90	2
148	184	3
184	185	7
31	31	4
194	195	4
64	64	14
106	106	8
138	138	6
165	166	5
32	72	2
41	42	2
121	121	13
115	116	4
28	29	4
104	104	13
19	19	16
2	2	13
190	191	3
51	51	10
43	44	1
138	168	5
96	97	1
12	37	6
168	170	2
159	160	4
148	149	1
37	37	12
137	162	2
36	36	12
169	184	4
191	193	2
105	163	3
160	160	10
22	34	1
166	187	3
20	23	2
111	112	2
167	191	2
63	73	5
18	21	5
62	72	3
99	140	2
94	133	1
195	196	3
29	73	3
61	61	5
150	156	5
136	137	6
17	18	3
11	13	4
59	59	3
2	23	1
96	155	2
141	141	7
165	186	3
44	56	4
136	138	1
136	157	3
160	161	2
6	90	1
67	85	3
131	151	3
5	23	2
71	71	11
171	185	1
62	87	4
148	148	6
72	73	6
175	175	11
70	77	4
85	86	2
143	144	4
94	95	3
44	65	1
166	166	5
105	108	4
35	35	12
101	109	1
106	108	5
96	99	5
43	50	2
77	77	9
80	81	2
193	193	8
132	133	5
171	176	1
9	10	4
29	82	3
98	106	1
24	34	3
115	117	4
39	40	2
57	58	1
56	56	17
21	142	1
68	77	2
137	141	2
95	134	2
99	101	2
38	42	7
114	115	1
71	72	4
189	191	1
167	171	1
127	141	1
69	108	3
178	179	5
104	105	2
175	176	3
44	57	2
66	69	1
166	186	4
16	19	1
31	32	4
61	62	6
93	97	1
134	134	7
45	46	4
117	139	1
14	113	1
62	62	4
57	89	1
155	196	2
79	81	5
120	137	3
13	48	3
102	104	3
46	53	2
95	95	7
143	165	1
166	167	3
163	163	3
29	70	1
88	90	2
112	181	3
189	190	2
152	153	2
89	110	1
142	154	2
8	12	1
138	139	3
150	160	4
38	72	1
162	162	10
11	24	7
185	185	14
130	131	2
108	111	4
25	27	2
29	66	1
140	141	1
120	120	5
84	84	7
1	1	5
78	84	1
63	64	1
146	161	2
0	22	1
181	181	4
4	22	1
81	81	9
67	68	8
93	94	2
114	145	1
69	88	1
121	122	2
117	118	3
10	12	1
60	73	4
186	190	3
27	33	1
162	163	2
32	33	3
124	131	1
161	163	4
181	184	1
93	99	3
79	80	3
109	110	3
119	167	5
108	109	4
165	192	1
34	35	4
30	31	2
179	180	5
66	67	1
94	138	4
135	140	6
130	130	4
99	150	2
97	143	2
15	24	1
46	47	7
143	149	2
13	16	3
8	108	2
187	189	5
26	39	1
114	142	1
76	76	3
119	120	1
5	5	4
114	149	2
73	143	1
152	176	3
54	64	1
43	51	1
10	11	2
181	194	2
77	96	1
147	177	1
158	159	1
183	184	3
102	103	1
12	38	1
121	133	1
4	30	1
70	72	1
60	64	3
13	53	1
118	156	1
56	57	2
54	57	2
168	169	2
137	138	4
151	153	2
9	34	1
130	132	1
65	66	4
35	106	2
33	35	2
170	171	5
64	66	1
171	173	1
102	115	1
54	56	6
12	77	1
166	180	3
95	142	3
3	78	1
108	110	1
60	61	3
135	136	7
181	188	2
187	187	10
96	160	2
64	141	3
125	126	2
42	43	1
102	111	4
100	152	4
171	172	1
44	46	2
23	74	3
29	67	1
142	143	2
25	26	1
1	2	3
87	103	1
81	83	2
84	100	1
99	120	1
173	174	1
127	129	1
22	181	2
114	143	2
101	117	1
177	191	1
45	48	2
5	109	1
59	60	4
68	73	1
78	79	1
157	160	3
85	87	2
18	52	2
30	39	1
81	82	2
27	44	1
14	19	1
177	178	4
156	158	2
164	165	3
172	176	1
4	23	2
64	139	1
168	194	1
124	125	4
161	164	1
173	175	2
160	169	3
54	55	1
99	139	1
69	137	2
175	188	1
2	7	2
127	127	2
178	188	4
116	171	2
42	71	2
15	52	1
164	172	1
43	45	2
6	51	2
13	15	1
155	185	1
83	84	3
2	18	1
108	139	2
22	111	1
60	74	1
180	182	3
24	33	1
58	58	3
2	84	1
28	30	3
15	113	3
16	24	1
134	138	1
166	182	1
174	175	2
180	189	1
187	188	1
131	139	1
177	179	1
117	187	1
6	11	1
62	63	2
38	86	1
69	70	1
179	185	1
44	60	1
76	79	2
10	13	1
123	148	1
106	107	1
122	133	2
145	147	1
154	155	2
25	32	1
50	51	1
154	168	1
21	30	1
156	196	1
133	156	2
169	185	1
95	133	1
3	26	1
148	178	1
148	150	1
75	81	1
176	182	1
94	96	1
38	62	1
166	174	1
157	167	1
144	162	1
107	133	1
75	83	2
165	167	1
155	156	1
135	137	1
122	125	1
120	187	1
19	106	1
151	168	1
20	74	1
77	81	2
19	187	1
148	183	1
143	162	1
180	181	1
102	132	1
170	179	1
6	109	1
113	142	1
168	193	1
88	89	1
16	18	1
20	40	1
144	183	1
11	47	1
116	187	1
48	53	1
103	107	1
104	106	1
33	39	1
66	141	1
185	195	1
84	159	1
28	66	1
