102	103	1
125	125	3
78	78	9
133	133	9
112	133	6
154	154	6
20	27	3
21	21	4
124	124	14
99	166	6
146	146	3
89	90	2
27	27	7
108	137	4
23	69	1
158	169	1
149	163	1
24	92	2
165	165	3
26	26	11
169	170	10
148	148	8
113	113	4
14	14	5
86	87	7
5	5	10
57	170	3
163	163	1
137	141	2
42	42	9
41	43	1
120	121	4
119	120	2
80	82	1
24	24	6
62	63	3
96	96	4
0	86	1
123	124	7
119	119	5
105	116	3
54	55	2
121	121	2
166	166	1
74	74	4
52	52	6
102	102	1
45	46	1
37	37	11
133	152	6
97	97	15
106	151	2
128	134	1
64	67	4
54	54	4
128	128	8
40	40	12
19	19	4
23	50	3
3	18	5
104	151	1
141	141	1
88	88	8
90	90	4
101	101	3
50	50	4
18	19	3
70	71	4
115	115	5
67	69	2
9	9	7
77	77	8
110	134	1
160	169	2
116	116	5
164	165	5
1	1	8
47	48	2
87	87	2
28	28	3
44	57	2
147	152	3
134	135	6
144	144	2
33	34	2
56	56	3
139	139	3
123	123	4
122	122	5
143	143	6
71	73	1
35	98	1
138	139	2
101	102	2
44	44	8
91	124	2
53	63	1
88	92	3
92	93	3
34	35	2
22	24	2
157	158	5
108	109	3
67	68	5
78	103	1
108	134	4
82	83	1
55	62	1
74	78	2
89	89	2
33	33	2
151	151	11
110	142	2
111	111	5
53	53	5
112	112	8
6	6	7
46	46	7
162	162	5
138	145	2
80	80	4
68	68	3
66	67	2
72	72	4
152	152	6
66	167	1
69	71	2
99	99	6
15	19	3
64	64	7
12	12	12
4	4	3
100	101	1
136	148	1
116	117	5
145	145	4
105	105	3
94	94	2
73	73	1
25	27	3
36	36	1
145	162	4
50	51	8
57	64	1
87	94	2
85	100	1
112	113	3
159	160	5
90	123	1
1	3	3
160	163	1
126	126	1
160	160	4
163	164	2
44	46	2
137	149	1
3	17	1
38	38	3
136	136	2
133	134	2
144	157	1
55	64	2
83	83	2
108	135	1
17	17	4
20	20	5
5	8	2
98	98	6
1	24	5
77	80	2
149	149	3
133	135	1
74	76	1
28	51	2
85	85	8
55	55	4
146	154	2
135	135	1
109	109	7
110	145	4
142	144	3
142	143	2
99	147	3
94	96	2
137	138	2
103	103	2
97	101	1
10	13	2
71	148	1
28	36	1
87	88	2
15	15	5
65	65	7
45	45	4
99	100	1
106	106	5
75	76	5
93	95	1
35	35	3
8	8	5
88	89	3
49	51	2
67	167	1
152	153	3
38	39	3
70	70	3
108	108	6
76	76	2
19	20	2
150	151	1
113	114	6
77	79	1
101	166	2
98	128	1
137	137	1
22	80	2
16	16	2
50	58	1
145	159	3
0	0	1
101	103	2
142	142	2
63	65	3
22	23	2
150	150	1
7	7	6
74	75	2
52	56	1
58	62	2
53	167	2
91	93	5
109	134	2
110	110	2
166	167	1
6	9	2
169	169	4
111	139	1
81	157	2
10	10	2
85	97	3
117	118	4
1	2	3
134	152	3
108	110	3
47	47	7
132	133	4
46	47	2
52	53	1
121	122	3
81	95	2
65	67	1
67	164	2
25	48	2
143	144	1
23	23	1
153	153	2
114	115	1
93	93	2
85	87	3
138	138	4
84	84	4
136	149	1
153	154	2
156	156	2
9	10	2
67	67	1
170	170	1
132	132	12
91	95	2
25	25	1
46	52	3
140	141	2
51	52	1
124	127	1
155	166	1
2	87	1
28	49	1
35	85	1
21	22	2
168	169	2
41	41	6
143	155	1
49	50	3
100	100	1
2	2	7
148	149	2
27	28	1
12	13	3
54	56	1
129	129	3
105	121	1
37	42	2
73	103	1
124	126	1
92	92	2
3	3	10
151	152	3
127	127	2
167	168	1
34	156	1
21	84	3
62	64	1
62	66	1
74	99	2
82	84	2
140	140	5
39	40	1
15	16	1
168	168	3
84	166	1
20	21	4
81	81	3
67	73	1
85	129	3
4	5	2
0	1	3
122	123	2
132	134	1
72	73	3
49	49	1
22	79	3
40	47	1
53	56	2
98	101	1
71	71	5
117	117	1
11	11	5
90	122	1
161	161	2
114	152	1
68	69	1
23	79	2
53	55	2
69	104	1
57	65	2
125	127	1
43	44	4
95	96	2
16	17	2
20	35	1
57	57	1
53	54	2
120	120	1
48	49	1
34	34	3
83	84	1
91	91	3
18	18	2
118	119	2
130	133	1
64	66	1
19	26	1
155	155	2
79	79	4
70	73	2
6	7	3
3	19	2
85	166	1
157	170	1
14	15	1
10	12	1
82	82	3
92	124	1
24	25	2
94	95	1
43	43	4
21	28	1
1	88	2
147	147	2
138	149	1
72	149	4
75	77	1
95	95	1
110	157	2
114	114	1
10	11	1
76	77	1
81	82	1
86	86	4
23	24	1
69	70	1
63	63	1
148	150	1
107	107	1
61	62	1
74	79	1
26	27	1
5	6	1
17	18	1
165	166	1
11	27	2
86	129	1
81	93	2
73	104	2
97	98	2
101	151	1
94	97	1
125	126	1
63	66	1
148	164	1
22	22	1
13	13	2
57	62	1
98	152	1
161	162	1
75	122	1
104	104	1
73	100	1
