60	60	4
13	13	11
46	46	9
71	72	6
46	47	1
11	39	1
34	34	6
65	81	3
30	30	7
3	3	9
35	35	9
37	39	2
75	75	4
63	63	12
2	8	3
1	3	5
4	26	2
63	78	1
80	80	2
78	78	9
1	1	16
79	80	1
74	76	4
46	48	3
5	8	4
65	65	12
49	80	1
31	61	1
5	5	3
9	9	2
1	2	1
58	58	11
46	50	2
8	14	4
74	74	9
29	35	3
26	26	4
59	59	7
60	74	3
69	80	4
62	78	6
31	67	1
51	51	7
64	64	7
76	76	4
28	30	1
19	20	1
48	48	4
4	4	7
21	21	5
9	22	2
10	14	4
70	70	5
42	73	2
2	2	7
7	7	1
55	55	9
50	68	1
69	69	14
8	8	7
26	28	3
52	64	3
52	65	1
15	16	7
44	59	4
50	75	2
11	15	3
31	31	1
16	16	7
32	32	8
48	80	2
53	65	6
69	70	1
38	38	10
61	80	1
50	50	4
72	73	3
71	75	5
43	57	2
11	11	4
8	12	1
77	77	5
61	61	9
27	27	4
15	15	6
36	37	1
43	47	2
42	43	2
39	39	8
61	73	2
1	7	4
53	66	1
11	68	5
72	72	7
27	37	6
66	66	9
74	79	2
39	49	7
27	28	3
41	41	6
53	53	1
54	54	8
17	17	3
3	8	1
67	68	5
7	8	4
37	43	3
57	58	3
43	43	2
71	71	4
60	61	1
31	49	3
11	12	4
65	66	5
14	14	2
37	37	4
10	10	10
25	25	11
13	14	1
70	72	2
53	70	5
44	44	2
41	55	3
10	49	5
56	57	1
26	49	1
46	62	3
29	33	1
39	45	2
56	56	8
37	66	4
73	74	5
33	50	2
37	54	2
74	80	5
35	52	2
29	30	1
35	62	1
19	28	4
9	15	2
13	15	2
55	56	2
53	67	3
10	50	3
4	6	4
2	3	2
14	15	2
71	78	2
45	61	1
36	36	1
49	62	2
41	56	2
48	52	2
47	48	2
0	2	3
45	45	2
56	67	1
7	12	2
49	49	4
57	57	4
49	67	2
37	47	1
33	37	2
67	67	3
42	42	3
79	79	1
62	62	3
43	55	1
9	12	1
33	33	5
38	40	3
62	65	2
6	71	2
66	67	1
48	62	3
35	46	1
10	13	1
48	68	3
74	77	1
55	70	1
28	32	2
1	36	6
8	13	1
29	29	2
66	68	2
67	75	1
31	32	1
28	28	3
17	37	1
20	42	2
11	63	1
35	49	3
35	39	1
2	41	1
6	18	1
10	31	1
11	14	3
68	75	1
9	10	2
64	70	1
49	52	2
59	70	2
37	56	1
16	17	1
12	12	1
35	48	1
34	48	1
38	51	1
47	47	1
12	13	2
14	25	1
5	6	4
45	59	1
48	64	1
30	45	2
70	71	1
32	45	1
16	18	1
51	64	1
33	47	1
61	74	1
36	47	1
4	5	1
26	61	1
76	79	2
38	39	1
34	35	2
40	40	2
10	11	1
46	80	1
68	69	1
34	47	1
45	62	1
20	26	1
61	67	1
8	22	1
