50	50	2
94	94	12
102	102	11
17	17	23
111	112	11
125	125	13
131	131	14
38	38	11
76	76	11
19	19	7
98	99	5
41	42	4
41	41	19
79	79	15
57	57	15
129	129	11
15	15	10
108	109	6
114	114	15
45	45	13
126	126	16
34	34	16
6	6	8
35	43	2
79	86	6
61	61	7
7	7	14
38	40	6
20	56	3
55	55	9
122	122	10
37	37	10
117	117	21
78	78	21
87	87	13
71	71	9
25	25	6
21	21	12
28	34	7
47	47	11
8	8	24
112	112	13
70	76	1
82	82	8
112	113	6
107	107	13
5	6	3
109	109	12
128	128	18
60	60	8
33	33	16
121	121	6
28	28	7
79	102	3
43	44	7
92	93	11
85	85	12
98	105	5
123	124	5
123	123	5
46	46	12
16	16	12
58	58	2
13	37	3
3	27	2
103	103	21
129	130	2
103	126	3
94	107	2
20	20	7
130	131	2
60	65	2
13	41	2
41	84	4
67	67	8
119	120	2
0	0	8
16	20	8
35	42	4
22	22	6
91	92	2
42	69	4
59	59	14
9	9	16
134	134	12
94	95	1
66	66	11
10	10	4
118	118	7
1	3	5
42	42	9
11	11	15
92	92	15
90	91	3
9	17	4
101	101	17
62	70	2
33	45	2
64	71	2
115	115	6
68	68	12
90	90	7
71	72	4
13	15	3
105	105	17
86	86	5
1	2	4
69	69	16
12	23	2
119	119	9
58	59	5
130	130	2
63	67	2
93	96	3
112	116	3
27	50	2
84	84	8
65	65	21
91	129	1
4	5	4
101	102	3
29	30	5
35	35	4
133	133	7
65	66	8
109	115	1
99	106	2
112	117	1
55	60	1
9	40	1
127	127	11
5	5	9
83	87	5
74	74	14
64	70	2
12	12	8
124	124	7
11	36	3
79	81	1
80	82	3
120	120	8
2	2	6
32	47	2
70	71	2
62	63	3
132	132	16
103	104	6
89	90	3
31	31	17
15	50	2
97	98	10
12	13	4
129	133	4
64	67	4
104	104	15
9	23	1
105	110	8
81	102	4
70	70	10
100	127	2
43	43	5
15	41	4
7	36	3
18	18	2
116	116	2
3	3	9
16	28	6
95	95	12
56	91	2
4	4	13
28	29	1
4	24	3
80	80	26
12	41	2
112	131	2
72	75	1
86	107	1
87	88	4
26	26	8
100	111	5
19	20	3
55	84	3
113	113	4
49	83	2
12	35	1
57	80	1
101	114	2
75	75	10
63	70	2
44	72	1
13	27	1
2	3	1
23	23	9
112	114	1
16	36	2
101	104	7
120	121	1
11	13	2
130	133	2
14	14	7
63	63	13
93	93	10
128	129	2
18	33	1
45	88	1
19	33	3
67	68	4
78	79	5
29	29	8
58	101	6
46	64	1
93	97	4
110	111	7
13	14	1
44	45	5
72	72	3
73	73	8
59	75	3
56	56	8
14	34	3
115	116	4
112	115	1
95	133	1
64	64	12
68	69	4
96	96	2
131	134	3
98	98	2
37	39	2
100	102	1
83	83	3
117	119	4
24	24	9
129	134	3
30	77	1
39	39	7
91	91	2
46	60	2
97	99	3
77	77	10
110	110	3
46	47	1
95	134	2
61	120	2
89	91	1
40	40	2
56	92	1
30	30	10
116	120	1
61	69	1
60	90	1
64	65	2
33	48	2
114	115	6
79	82	1
24	40	2
14	22	5
113	115	4
119	121	2
24	26	3
126	129	1
97	97	2
82	83	3
77	87	2
40	41	3
1	1	5
35	36	2
114	132	4
98	115	3
95	96	1
113	117	1
57	58	1
88	106	2
81	81	5
111	114	2
74	118	2
32	33	1
27	27	6
32	32	1
13	16	6
100	112	1
126	134	1
67	82	1
61	62	3
117	118	1
71	78	6
15	22	2
82	86	3
98	100	1
47	74	2
43	83	1
76	79	1
101	115	2
111	111	9
23	24	3
103	110	2
33	110	2
63	118	1
61	78	2
90	107	1
16	35	2
33	34	1
67	107	1
36	36	7
14	21	3
112	120	3
94	96	6
44	88	2
106	107	1
17	18	2
83	84	5
8	17	1
84	90	3
27	36	1
60	61	2
99	99	4
34	63	1
74	76	1
11	34	1
113	125	2
31	32	1
100	100	4
73	74	5
43	50	1
106	132	1
22	24	2
84	85	1
10	48	1
16	27	1
108	108	1
78	82	1
43	45	4
73	75	1
113	114	2
20	23	1
124	125	3
71	73	1
21	27	1
56	81	2
10	13	1
39	40	4
38	39	2
55	56	2
105	106	1
21	22	3
96	97	2
70	85	1
96	99	1
15	16	3
96	98	3
14	32	2
88	88	1
107	108	1
35	47	4
38	50	1
13	13	1
131	132	2
11	43	2
72	73	2
119	126	3
105	107	1
15	40	1
4	23	2
11	12	1
17	35	2
87	89	1
126	128	1
89	89	1
131	133	1
113	123	4
42	49	2
10	11	1
122	123	2
57	87	1
103	114	1
45	87	1
75	119	1
106	112	1
36	48	1
37	38	3
29	87	1
56	57	1
88	96	1
126	131	2
118	119	2
20	50	1
29	31	1
11	26	1
19	21	1
62	62	1
59	60	1
37	50	1
46	65	2
120	122	1
113	124	1
24	27	1
13	38	1
11	14	1
9	10	1
127	129	1
94	129	1
31	83	1
14	15	1
90	92	1
106	106	1
109	117	1
