129	129	4
9	10	1
83	107	2
137	138	3
55	60	2
91	91	5
95	95	1
82	82	7
15	15	2
113	114	4
55	62	2
121	123	2
136	136	3
127	134	1
116	120	4
114	115	1
86	89	2
33	41	2
62	64	2
18	18	3
63	74	1
2	23	2
94	94	2
52	52	3
64	71	2
93	93	7
96	96	6
3	10	4
124	127	4
65	65	2
93	97	1
62	62	4
135	139	1
76	78	1
79	85	2
8	8	11
19	21	5
85	85	2
38	42	1
65	79	1
86	90	2
52	53	1
93	109	1
73	102	4
126	127	6
128	141	3
42	42	5
79	81	3
17	17	1
20	20	8
2	2	3
135	143	1
130	143	4
79	84	1
108	109	2
71	73	2
84	89	1
136	137	3
140	142	2
92	93	2
101	110	3
98	112	2
129	131	2
80	82	2
86	87	2
109	120	4
74	85	4
51	51	7
26	28	1
131	134	1
12	12	3
17	22	2
16	17	4
5	19	4
49	51	3
56	57	1
71	78	4
138	143	4
48	48	3
114	114	5
113	122	1
0	5	3
123	123	2
128	128	3
96	98	1
125	125	5
95	97	3
99	102	4
23	28	1
19	23	2
0	2	1
1	16	1
97	105	1
118	133	5
68	68	3
102	102	1
140	143	1
128	129	4
58	64	1
69	71	4
28	36	5
90	101	2
13	25	1
98	110	3
97	109	3
92	103	1
68	74	2
54	54	4
113	113	4
75	76	6
104	104	2
74	74	2
133	133	1
34	38	2
97	97	6
71	80	1
107	110	1
33	34	1
101	101	2
119	120	2
132	138	3
131	131	8
6	15	1
87	98	1
77	77	4
63	63	2
40	41	3
34	43	2
49	50	3
5	11	2
33	42	1
71	72	3
130	130	7
82	87	2
58	59	3
87	87	4
11	11	3
128	140	3
140	140	6
25	26	7
29	31	2
58	85	1
70	85	1
94	107	1
124	141	1
108	108	5
133	135	1
6	9	3
27	27	1
79	79	2
105	105	1
52	58	1
8	73	1
34	34	4
126	140	2
103	116	2
53	59	4
67	68	1
3	17	1
2	11	2
2	8	1
135	135	1
70	84	4
82	83	1
4	18	2
110	117	1
25	30	1
25	25	7
3	3	2
122	122	2
132	134	4
4	17	4
133	138	4
92	92	1
13	64	1
96	109	2
76	77	2
136	140	2
40	40	3
71	71	1
36	38	2
36	37	2
128	130	1
78	92	2
133	139	1
8	19	4
64	77	1
112	113	1
24	28	3
101	105	1
99	99	3
29	29	3
93	105	2
11	27	1
96	107	1
118	144	1
127	131	1
47	56	3
35	35	2
58	58	5
3	11	4
124	143	3
107	108	1
37	39	1
23	25	1
107	109	1
108	114	2
127	127	4
110	110	3
69	77	2
19	34	2
58	65	2
100	100	3
1	14	1
24	24	2
24	25	1
103	103	3
121	121	2
33	33	2
5	9	2
11	12	1
57	58	1
129	130	2
122	123	1
112	112	3
47	48	1
129	140	2
53	54	3
22	32	1
89	111	1
73	78	1
74	84	1
83	85	2
60	66	2
56	78	2
67	67	2
76	88	2
22	30	3
115	116	2
100	107	1
38	40	2
125	134	1
144	145	1
109	110	1
104	105	1
96	112	2
56	58	1
65	66	1
139	143	2
57	57	2
110	113	1
113	127	4
23	23	1
127	135	1
13	18	3
72	72	2
124	128	2
49	56	1
124	125	1
78	81	2
98	101	2
90	93	2
88	88	1
90	103	1
18	19	1
19	33	3
61	62	1
118	136	2
122	128	2
22	27	2
29	32	6
144	146	1
10	15	2
125	127	2
107	119	1
129	142	3
0	4	2
119	134	3
98	107	1
130	132	2
4	4	2
41	42	2
2	4	1
48	49	1
116	117	3
4	6	1
14	14	1
1	2	4
111	114	1
69	69	2
137	137	2
13	26	1
16	16	5
97	98	1
87	90	1
132	133	2
131	132	1
47	53	1
6	11	2
50	63	1
141	141	1
107	111	1
9	9	2
20	73	1
0	8	1
84	84	1
34	55	1
55	55	1
128	139	1
118	119	2
34	41	1
15	22	2
23	38	1
13	27	1
38	38	1
134	136	1
95	103	1
19	30	1
50	59	1
60	61	1
91	94	1
135	144	1
81	94	1
3	14	1
128	144	2
93	94	1
28	37	1
76	76	2
110	116	1
116	122	1
53	55	1
83	95	1
84	87	1
105	107	1
75	75	1
106	113	1
121	126	1
4	11	2
117	130	2
89	90	4
26	26	1
140	141	3
83	83	1
120	120	1
132	139	1
19	19	1
106	124	1
91	100	2
105	118	1
74	87	1
123	140	1
88	100	1
118	127	1
4	10	1
42	43	2
8	12	1
120	122	2
1	20	1
116	116	1
97	110	2
39	39	2
71	85	1
55	57	1
76	90	1
129	133	1
68	85	2
47	47	2
54	62	2
144	144	1
128	142	1
39	41	2
3	20	1
77	90	1
121	139	1
88	90	1
123	128	1
2	9	1
48	50	1
115	115	1
14	24	1
89	98	1
127	128	1
134	140	2
106	107	1
136	139	1
107	120	1
2	6	1
74	88	2
89	97	1
51	52	1
118	118	1
46	48	1
35	38	1
69	72	1
98	114	1
126	134	1
9	12	1
70	72	1
96	102	1
101	104	1
4	26	1
36	43	2
52	64	1
2	10	1
99	113	1
104	107	1
9	20	1
4	23	1
101	111	1
138	138	1
124	126	1
26	27	1
3	9	1
117	122	1
131	143	1
