56	58	2
84	85	6
95	96	1
49	50	5
36	36	10
39	40	1
28	29	11
53	53	7
28	28	9
78	78	5
85	86	1
59	59	9
92	92	6
72	72	7
60	61	3
46	46	25
26	46	3
100	102	8
85	85	8
55	57	2
33	41	2
40	41	21
42	42	10
101	102	4
57	57	8
82	82	10
58	59	12
55	55	5
104	104	3
23	23	7
39	39	3
57	103	3
82	84	9
26	47	2
106	106	5
73	73	9
55	56	5
102	113	4
77	77	10
64	68	3
33	40	2
108	109	2
74	74	3
21	24	3
64	64	6
35	36	2
44	44	7
69	70	2
111	111	4
105	105	8
81	82	6
67	67	14
101	101	9
31	31	8
56	59	4
71	71	6
33	33	9
113	113	5
89	89	9
70	70	18
72	73	6
43	44	2
97	97	6
54	54	14
55	109	6
51	51	18
60	60	4
64	67	1
70	71	2
20	20	9
114	114	7
54	55	11
24	24	12
45	45	16
81	81	10
24	49	3
19	19	5
95	95	16
94	95	1
76	76	6
64	65	2
27	27	8
96	96	8
49	49	6
79	79	5
109	109	10
20	81	1
67	72	6
71	92	3
58	58	18
52	52	2
38	38	8
41	41	12
107	107	5
48	48	11
42	79	2
68	68	5
36	37	2
94	94	15
38	41	1
92	95	1
34	34	9
107	108	1
82	83	10
52	89	3
30	30	1
63	63	2
71	72	11
98	98	9
73	74	15
61	94	7
32	33	4
56	63	1
93	93	3
29	29	7
62	62	3
103	111	1
97	98	1
44	46	3
98	105	1
102	102	8
34	35	5
67	68	4
55	106	2
43	43	1
105	106	6
44	98	3
89	91	2
25	27	4
37	41	1
88	88	2
103	104	4
50	50	7
109	110	2
66	66	8
84	84	3
103	103	5
86	86	4
50	51	6
34	108	2
61	62	3
75	76	1
100	101	1
35	35	9
29	30	6
113	114	3
47	48	6
61	61	6
25	26	3
21	21	1
26	26	7
100	100	2
62	67	3
50	83	2
68	110	3
49	86	2
87	87	2
35	45	2
75	75	8
70	78	1
88	89	1
42	43	2
74	75	2
97	99	1
41	42	4
77	78	2
68	69	2
49	77	3
51	86	1
55	58	2
55	107	1
71	77	2
25	25	3
28	47	3
65	65	8
80	82	1
41	43	1
38	42	2
27	28	3
40	40	3
62	66	1
80	80	1
86	90	3
67	73	1
63	64	1
90	91	4
56	57	1
69	69	6
65	88	1
88	91	1
37	37	6
110	110	3
22	22	1
52	53	2
45	46	1
90	90	7
87	90	1
108	108	8
35	108	1
88	94	1
106	107	2
54	107	3
83	83	2
22	23	2
88	90	2
20	21	1
112	112	3
38	39	4
80	81	1
50	76	2
34	40	1
72	92	1
109	111	4
19	29	1
98	99	4
104	105	2
96	99	3
36	45	2
32	32	2
56	56	6
63	65	2
53	107	1
37	38	2
99	99	1
91	92	1
112	113	2
66	67	1
103	109	1
33	111	1
31	45	1
62	63	1
37	79	1
75	113	1
85	94	1
31	44	1
110	111	1
23	47	1
51	113	1
51	91	1
72	75	1
