93	124	1
4	4	4
35	35	6
100	100	2
132	133	2
148	174	1
89	107	5
22	22	6
169	171	3
13	25	5
28	28	4
32	33	5
49	49	2
175	175	3
26	26	7
167	167	10
148	162	2
154	155	3
88	106	1
15	16	2
71	81	1
171	171	3
31	31	5
60	60	11
168	168	4
157	157	2
40	40	3
176	176	5
166	166	8
133	144	6
72	72	6
130	160	3
107	108	3
171	178	1
115	154	1
169	174	4
88	107	5
38	57	1
106	106	9
151	151	5
5	5	3
7	7	6
105	105	3
136	136	6
149	150	2
147	147	4
76	76	2
38	39	1
111	111	6
79	87	4
174	174	11
126	126	10
71	85	6
53	53	4
138	138	4
68	97	6
88	88	6
102	142	1
144	144	4
146	177	2
92	92	2
163	173	3
58	58	2
113	123	3
72	80	5
156	156	2
46	46	4
89	104	4
149	149	1
126	131	7
97	116	5
118	119	1
117	117	1
148	177	2
73	73	3
52	52	6
153	154	1
24	28	5
151	162	2
56	62	5
42	43	2
148	148	5
38	38	2
136	150	3
150	151	1
25	25	5
6	7	1
135	152	1
70	100	1
121	121	3
108	108	1
90	92	4
132	143	3
95	95	3
56	56	2
159	160	2
55	72	2
176	177	6
103	123	3
144	159	2
107	137	2
127	127	3
127	156	6
102	102	3
66	66	3
128	130	4
75	75	3
25	28	3
71	71	3
32	32	6
13	13	3
52	53	5
111	112	3
164	164	3
59	59	3
124	149	6
19	45	2
41	41	6
53	64	1
82	82	3
99	121	3
170	170	1
169	169	2
119	122	1
123	151	6
139	146	1
159	159	7
142	142	3
7	21	1
42	45	4
37	58	2
162	162	9
61	62	6
124	124	3
140	147	6
16	17	4
74	74	2
81	82	4
21	21	3
103	141	1
1	3	2
165	167	3
178	179	7
16	16	1
30	30	1
17	17	3
56	57	1
43	43	4
106	128	2
71	82	2
27	74	1
20	45	1
143	143	2
153	156	1
89	89	9
110	111	4
32	49	3
130	131	1
172	174	4
101	104	3
38	58	1
113	113	1
15	15	2
171	172	1
165	168	2
8	8	2
78	78	3
8	9	1
143	161	1
70	70	4
139	139	4
106	107	5
90	91	3
3	4	1
147	177	1
155	155	1
91	92	1
160	161	1
83	113	2
91	91	4
108	141	1
179	179	1
2	2	1
14	14	1
30	77	1
130	161	1
51	51	3
153	153	2
37	37	1
50	61	2
146	147	1
158	158	1
115	121	1
119	140	1
6	33	1
24	26	3
44	44	1
148	151	1
124	150	2
22	41	1
6	22	2
23	23	1
173	173	3
27	32	2
84	104	1
2	11	1
54	71	1
104	105	1
79	79	2
97	118	2
73	79	1
119	153	3
83	112	1
168	173	1
156	158	2
34	34	1
36	40	2
127	157	1
9	9	2
12	12	3
140	165	1
135	147	1
128	135	1
175	177	1
43	44	1
122	157	1
87	87	1
172	173	1
72	114	1
148	178	2
30	31	1
114	155	1
5	34	1
85	86	1
161	164	1
49	61	2
12	24	1
152	152	2
22	44	1
150	150	1
119	119	1
12	26	1
20	25	1
153	157	1
41	44	1
39	39	1
126	160	1
178	178	1
