70	70	10
74	75	1
124	124	9
63	63	2
24	24	2
10	10	1
86	87	4
30	30	10
85	87	4
26	26	8
119	120	3
134	134	7
19	19	2
16	35	2
5	82	1
61	61	13
16	16	9
99	99	18
13	13	6
33	33	9
2	2	7
75	75	7
72	72	13
89	90	3
103	103	7
6	6	9
126	126	2
11	11	8
29	35	2
31	32	6
53	53	5
80	81	2
35	36	5
10	32	3
34	34	9
36	38	1
21	21	3
0	43	2
87	87	6
44	50	4
64	65	4
102	102	13
11	16	5
114	114	13
94	95	9
93	93	5
82	97	2
67	67	4
128	128	10
45	47	2
112	113	1
59	61	2
71	71	4
91	91	3
104	104	10
77	77	12
97	98	4
109	109	7
118	118	6
90	90	13
47	48	1
112	112	2
113	114	6
85	85	2
117	117	8
110	110	7
22	23	3
3	3	2
12	12	6
73	73	5
77	101	2
123	123	4
3	130	1
79	79	9
111	111	1
23	23	5
131	131	11
62	62	5
120	120	4
14	14	10
10	31	2
115	115	6
121	122	3
122	122	3
8	8	5
67	68	2
102	105	1
54	55	7
101	101	3
71	72	6
119	119	5
5	8	4
36	36	3
115	116	4
99	100	4
22	24	2
124	126	2
85	88	4
17	17	3
92	92	2
5	5	4
29	29	17
58	60	1
68	68	3
132	133	5
111	112	2
129	129	10
74	74	3
73	103	4
33	35	2
27	27	7
87	122	1
79	126	2
0	0	3
88	88	5
43	75	1
1	1	3
130	132	4
42	45	1
121	121	5
49	49	4
71	76	2
58	58	2
35	35	6
119	122	3
2	3	6
19	67	3
125	125	6
114	115	2
116	116	4
97	97	6
120	122	4
60	61	1
62	97	1
49	83	2
100	100	2
37	37	3
2	4	1
37	38	2
105	105	4
64	118	2
20	26	3
4	4	2
0	134	1
62	66	2
95	95	4
71	102	2
5	38	4
96	96	5
44	127	1
56	58	3
50	53	3
127	127	2
76	76	5
94	94	3
83	83	2
112	114	1
2	131	1
87	88	3
44	97	2
55	55	2
97	127	1
43	43	2
31	33	4
127	128	1
116	129	1
36	37	1
17	34	1
80	80	1
132	132	4
19	35	2
115	127	4
65	65	3
27	29	2
82	95	1
44	125	2
7	7	4
101	117	3
26	28	2
31	45	2
64	64	5
76	104	1
18	18	2
15	15	2
20	21	3
81	81	1
120	121	1
79	80	1
61	62	5
62	69	2
52	52	1
3	8	1
133	133	1
117	119	2
99	123	1
56	59	1
11	31	2
65	69	2
7	10	1
25	36	1
45	45	1
78	78	2
75	131	1
44	49	1
1	118	1
9	9	4
58	91	1
19	20	1
46	47	1
11	74	1
113	113	1
46	52	1
65	121	1
116	117	1
7	8	1
22	55	4
98	98	1
54	54	1
31	31	2
44	44	1
21	22	2
29	30	1
32	32	1
84	85	1
90	91	1
111	116	1
47	80	2
99	113	1
86	86	1
59	59	1
102	103	1
89	89	1
108	108	1
65	71	1
65	66	1
107	107	1
92	95	2
75	135	1
53	117	1
35	37	1
56	56	1
78	99	1
