35	35	22
41	41	9
51	52	2
1	1	8
7	7	13
7	12	4
34	34	16
6	9	10
25	25	9
30	31	4
30	30	26
5	21	2
55	55	17
39	39	9
18	19	12
33	33	12
14	14	11
46	47	6
32	32	26
48	48	16
25	26	4
1	31	3
29	31	2
49	50	3
3	23	2
11	11	6
47	48	8
53	54	5
59	60	8
21	21	11
2	2	13
45	49	5
15	19	6
18	22	7
17	17	21
4	42	4
12	13	2
16	16	4
45	46	4
6	6	9
10	22	3
10	10	9
21	25	2
52	52	16
54	54	4
20	23	2
31	31	12
18	18	10
51	51	9
52	53	8
43	47	1
54	59	4
39	43	1
42	45	5
31	32	8
22	22	3
50	50	21
11	12	7
8	8	8
36	36	10
22	51	5
59	59	2
45	45	12
22	59	7
5	5	6
2	52	1
20	20	15
3	15	3
15	18	5
13	13	8
54	58	3
40	40	11
22	53	2
5	10	3
12	12	12
6	7	3
19	22	5
17	18	7
16	17	2
43	43	10
58	58	6
19	50	4
41	59	4
4	14	2
53	53	8
44	44	15
24	24	7
19	19	4
45	50	4
23	23	12
15	15	9
62	62	12
18	49	2
56	57	4
8	9	4
46	46	13
41	54	3
31	33	5
8	18	3
3	60	1
0	1	6
20	21	6
6	17	4
23	25	3
9	9	10
14	15	3
53	59	6
18	21	1
60	60	2
17	20	2
3	3	17
54	55	4
15	23	2
25	44	2
47	47	18
8	10	2
19	52	4
38	38	9
56	56	7
14	19	7
43	45	4
5	6	2
42	51	2
57	57	4
3	25	3
37	37	8
4	7	2
10	11	6
3	42	1
4	4	10
36	37	4
16	19	2
15	16	11
58	59	3
7	10	2
6	24	1
6	20	1
23	40	5
58	60	3
9	11	6
22	60	2
40	45	2
9	12	2
4	41	2
10	23	1
6	10	2
20	49	3
57	60	2
32	33	3
44	49	3
4	23	3
7	24	2
4	24	5
11	13	4
3	39	1
37	38	4
1	62	2
13	23	4
61	61	6
42	43	2
49	49	4
7	8	1
15	22	1
57	58	4
3	44	2
0	16	1
46	49	2
33	34	2
42	49	1
45	47	2
3	16	4
0	39	2
32	34	2
54	56	2
13	14	6
40	42	2
42	42	4
21	59	2
3	58	1
21	42	1
9	10	3
23	24	1
40	50	1
43	44	2
35	36	1
14	16	1
39	51	1
29	29	2
6	18	2
18	42	1
61	62	1
0	0	6
25	30	1
26	26	1
57	59	1
48	50	1
4	40	1
7	20	1
25	32	1
36	61	2
39	42	1
4	22	1
15	17	1
2	3	1
19	21	1
56	60	1
41	42	1
25	31	1
