88	88	12
97	98	4
45	50	1
29	30	11
33	33	9
36	36	15
22	22	13
90	91	4
95	96	7
40	40	18
87	87	17
34	51	3
71	71	13
94	94	8
79	79	15
70	70	14
56	94	3
28	28	22
83	83	18
61	61	14
89	90	2
21	21	10
91	91	16
87	88	4
105	106	8
37	37	14
76	76	23
27	62	3
26	26	16
43	45	9
53	53	12
25	98	8
82	82	9
32	32	15
54	72	1
90	90	5
51	52	10
92	93	13
58	58	16
34	34	5
24	24	11
39	39	8
80	81	5
84	85	5
47	48	6
27	27	28
75	75	4
63	85	2
64	65	6
56	57	3
85	85	13
92	92	4
93	94	14
82	83	7
40	42	6
65	66	11
93	93	17
96	96	20
56	56	13
23	105	4
67	67	6
101	102	2
48	48	8
85	87	8
27	28	12
26	87	1
72	72	6
26	27	9
86	86	5
74	74	16
42	42	5
69	70	8
100	100	6
41	41	6
43	44	8
107	107	5
62	86	4
35	35	6
54	73	1
76	77	4
78	78	4
103	105	2
43	43	3
84	84	14
60	61	5
104	104	6
69	69	6
26	30	8
44	44	10
67	74	4
97	97	10
68	68	13
73	73	3
36	37	9
85	97	4
96	98	2
33	34	20
47	47	6
62	62	10
51	51	25
95	95	10
39	42	5
50	50	28
25	26	5
49	49	12
42	44	2
30	30	5
56	58	1
55	57	8
91	92	4
54	54	19
31	31	10
99	99	7
69	73	4
46	46	8
57	57	3
55	56	2
64	64	12
28	85	4
80	80	13
39	40	1
65	65	4
63	84	3
72	101	1
52	53	4
38	41	2
45	45	4
63	64	4
60	63	6
38	39	4
35	45	4
66	67	4
89	89	14
73	74	4
71	73	2
31	99	3
59	59	13
62	63	5
106	106	5
23	23	6
59	64	5
25	97	12
105	107	6
62	84	1
24	25	7
60	60	5
57	63	3
102	103	3
58	80	1
48	50	2
61	62	11
58	83	1
78	79	8
55	55	6
79	82	3
86	87	4
100	101	5
29	29	6
27	29	1
98	99	7
53	54	2
79	88	1
49	88	2
24	97	2
91	95	1
81	81	5
92	94	4
54	55	1
91	93	1
26	28	3
59	63	1
68	69	13
72	73	5
59	65	4
29	63	2
28	45	2
83	84	1
42	43	4
52	52	2
41	43	2
83	85	1
98	98	6
60	62	2
63	63	6
90	95	2
41	42	4
47	49	5
86	88	4
45	46	6
22	23	3
101	101	3
20	20	5
78	81	2
53	100	2
24	45	1
105	105	5
53	55	3
75	76	4
28	30	1
24	26	2
66	66	6
29	85	1
57	84	2
59	62	2
42	45	2
77	77	3
25	86	1
24	98	8
103	103	1
88	89	9
74	103	1
38	38	5
31	36	1
102	102	5
82	87	1
79	80	1
62	97	5
25	25	3
80	83	2
85	86	2
77	78	1
70	72	2
74	75	1
60	64	1
20	22	1
49	89	2
50	89	4
52	55	1
25	27	2
47	88	1
20	21	2
50	95	1
31	33	1
57	83	2
25	47	2
82	90	1
42	46	1
45	52	2
106	107	1
55	74	1
49	50	1
75	93	2
56	100	1
82	85	1
103	104	2
59	74	6
36	44	1
40	41	1
34	35	1
54	66	1
51	93	2
57	59	2
64	74	1
37	38	3
26	45	1
22	104	1
35	36	1
35	44	1
71	72	1
99	100	1
36	43	1
24	35	1
104	105	1
79	83	1
71	100	1
28	29	1
54	100	1
70	71	1
