103	104	4
25	26	2
47	47	5
101	102	2
80	93	1
36	36	8
32	33	5
22	112	5
88	88	2
68	72	4
45	45	11
21	31	3
20	20	13
72	72	4
75	98	1
95	95	3
68	68	2
106	106	5
69	71	4
69	69	4
33	43	2
52	113	5
63	63	3
111	113	3
105	105	3
61	61	5
78	79	1
60	72	2
37	37	4
109	109	9
33	33	13
23	23	9
104	104	12
99	99	2
99	102	2
58	58	5
111	111	3
27	27	16
79	79	4
43	43	2
66	72	3
84	84	4
88	89	2
32	32	3
27	28	7
82	85	3
111	112	4
25	27	7
39	39	8
59	59	3
34	34	3
85	85	16
82	99	4
74	75	3
23	105	3
96	96	4
26	26	7
58	59	5
97	98	5
56	57	2
44	44	8
70	70	8
93	93	6
20	21	4
55	55	6
26	27	2
84	96	1
50	50	5
28	47	2
91	91	5
103	107	2
36	52	2
97	97	10
28	28	9
86	86	5
29	29	3
83	83	5
84	88	3
37	52	5
36	37	2
21	29	2
29	31	3
105	109	3
19	19	1
77	90	1
74	74	10
54	54	4
76	76	8
107	107	5
53	53	7
43	44	2
90	97	1
40	40	4
30	30	8
80	80	3
57	72	1
86	98	1
21	47	4
27	29	1
110	112	2
79	102	3
25	30	4
62	69	1
38	41	2
71	88	1
81	94	1
112	112	2
94	95	3
71	71	3
94	94	3
48	48	8
60	60	4
66	106	2
75	94	3
57	63	1
83	84	2
64	64	2
34	46	1
102	102	2
72	73	2
69	88	2
39	96	3
46	111	3
47	48	4
98	99	3
73	73	2
41	41	8
87	88	2
60	64	3
56	111	3
106	111	5
82	83	1
34	35	7
68	73	4
84	93	1
25	25	10
80	102	2
103	108	3
91	95	2
56	110	2
21	21	1
113	113	2
67	69	1
100	100	3
75	75	1
80	81	1
54	59	2
32	47	2
35	42	3
78	78	6
92	94	2
81	93	1
114	114	4
79	105	1
61	62	1
54	99	1
84	85	2
36	43	2
99	100	5
57	57	2
100	101	4
77	78	1
79	94	1
89	98	2
56	74	2
92	93	1
81	92	1
82	88	7
89	90	5
102	104	2
103	105	1
56	91	2
113	114	2
26	29	1
49	49	2
67	106	1
81	81	1
82	82	2
108	108	3
91	96	1
85	97	1
38	97	1
49	50	2
83	96	1
85	86	1
30	47	1
57	62	1
68	69	1
22	22	2
112	113	1
92	108	1
64	68	1
91	92	2
87	87	1
42	42	3
93	94	1
46	114	1
93	95	3
32	48	3
106	110	1
63	67	2
80	83	1
31	31	4
92	92	1
101	101	1
35	45	1
51	51	1
103	111	1
63	64	1
20	32	1
87	111	1
26	100	1
55	109	1
86	87	1
34	42	1
110	111	1
35	50	1
55	61	1
81	90	1
