129	149	4
117	145	4
19	21	3
34	87	4
63	63	3
44	44	2
108	108	9
142	142	3
55	55	1
128	128	10
116	116	2
23	23	5
11	12	6
95	95	2
25	102	2
108	109	1
108	142	2
139	139	8
105	105	2
7	7	7
97	97	7
114	114	3
20	20	7
107	107	6
98	99	1
35	35	4
83	99	4
43	43	5
73	77	7
49	49	1
125	125	4
56	56	1
11	11	7
117	117	2
81	82	3
17	17	5
73	76	3
21	21	3
7	12	1
54	54	3
28	28	7
121	121	2
67	68	3
111	112	3
94	94	6
20	21	1
113	113	4
82	116	2
121	122	5
130	130	6
135	135	5
88	109	1
27	28	4
85	96	3
45	75	2
62	77	8
50	50	4
16	16	2
66	66	11
127	127	8
153	153	10
88	88	1
54	94	4
72	72	2
10	10	5
123	123	5
129	129	5
105	106	5
40	134	1
70	70	1
5	5	6
63	64	4
123	127	2
79	80	1
32	33	3
45	45	14
124	124	9
124	146	2
79	86	2
30	99	2
87	87	5
41	41	6
13	13	1
123	124	10
83	96	1
24	133	2
52	52	4
33	87	3
121	124	3
110	110	5
146	146	4
68	69	2
136	136	5
26	27	2
138	138	1
40	133	5
31	83	2
75	75	4
133	133	4
106	107	3
78	87	1
132	132	3
68	68	1
6	6	5
140	141	3
52	56	2
63	69	2
27	27	2
63	82	2
126	127	5
96	97	3
101	102	2
126	128	2
46	46	2
4	4	4
38	38	2
111	111	11
18	18	9
25	26	1
2	2	2
103	103	4
145	145	2
82	82	2
29	29	4
84	85	5
118	119	2
77	77	2
98	102	2
23	24	1
70	75	2
152	152	4
141	141	2
31	32	3
144	145	1
83	106	3
36	88	5
39	134	4
7	8	2
109	111	2
67	80	2
139	150	2
10	11	5
90	95	2
51	51	1
99	106	1
80	80	1
85	86	7
109	109	4
84	84	1
37	37	4
24	132	1
134	134	2
107	109	2
93	93	3
65	65	6
9	9	4
41	98	2
32	109	1
62	62	2
36	109	1
137	137	6
45	46	2
85	97	1
126	151	2
45	47	3
96	96	4
55	57	1
64	64	1
53	70	1
99	99	3
36	36	1
29	30	2
148	148	2
147	147	1
101	101	1
41	43	1
15	15	2
86	86	2
127	128	2
51	55	2
104	104	3
79	79	3
108	135	1
120	122	2
96	105	2
6	7	2
80	85	1
30	30	5
25	25	2
122	122	3
112	112	1
94	96	2
47	47	3
44	45	2
49	51	2
121	146	1
46	47	2
144	144	1
33	33	1
100	107	3
149	152	1
118	118	3
122	124	2
4	6	1
34	98	1
31	31	2
41	48	2
67	103	1
53	53	3
32	32	2
49	50	1
100	105	1
24	24	1
25	38	1
38	39	1
116	145	1
43	45	1
119	121	1
69	81	1
139	140	1
80	95	1
83	98	1
98	105	3
57	57	1
119	119	1
54	70	1
124	147	1
88	113	3
73	73	1
117	118	1
84	95	1
40	40	1
32	88	1
100	100	1
106	106	1
147	148	1
126	126	1
4	7	1
98	98	1
115	117	1
144	146	1
