8	26	9
166	166	13
128	128	11
185	185	15
56	56	11
136	136	6
33	60	4
183	183	14
90	90	7
66	66	25
137	138	10
157	157	7
156	156	9
59	60	7
88	88	3
47	47	27
102	111	4
113	113	6
19	19	22
135	135	19
36	42	3
56	70	3
139	140	8
156	157	2
113	114	5
1	2	5
34	34	13
61	62	4
39	40	4
40	40	7
151	151	17
77	77	9
49	50	2
163	163	13
161	162	10
79	79	21
102	151	2
115	116	3
152	152	3
94	94	19
160	160	15
171	173	5
39	39	16
181	181	7
109	109	12
87	132	4
142	194	6
59	59	6
110	110	23
57	57	24
164	164	18
3	8	3
178	178	16
114	114	14
142	142	13
2	2	9
115	115	26
167	167	17
102	102	14
125	125	14
130	130	11
29	30	8
67	67	14
23	24	10
193	193	16
126	127	4
105	105	16
59	62	3
156	175	9
152	177	3
182	182	11
81	81	14
97	153	6
31	31	16
64	64	17
24	27	6
192	192	3
124	124	6
8	8	7
119	119	14
34	39	2
197	197	4
69	69	13
16	16	15
169	169	17
142	149	2
68	68	15
108	109	10
106	106	19
38	38	19
187	187	9
95	95	8
74	74	31
45	45	15
36	62	5
107	107	24
24	37	1
20	21	8
163	165	4
9	9	14
71	71	10
114	186	8
144	144	12
38	50	3
120	120	8
182	195	1
8	23	1
131	131	7
61	61	8
70	71	3
165	179	3
107	111	4
80	80	11
40	41	10
99	111	2
18	160	4
99	182	9
46	77	2
177	178	6
82	82	22
30	30	15
75	87	1
46	46	34
113	115	1
51	51	11
62	63	9
187	188	6
168	168	23
100	181	2
112	112	11
29	29	13
26	26	10
35	36	8
98	179	3
120	141	2
37	38	11
116	135	1
113	169	3
120	197	3
122	122	18
196	196	15
34	40	4
55	55	22
75	75	6
159	176	1
171	172	7
131	139	1
107	185	3
82	86	2
64	73	3
176	177	8
137	137	10
158	158	7
3	153	1
24	83	4
18	18	1
182	183	1
1	1	7
34	35	4
15	15	4
189	189	13
179	181	2
48	196	3
132	132	3
109	139	2
78	79	5
7	7	17
118	118	10
101	101	10
95	102	8
50	50	18
63	64	4
193	194	4
99	103	1
22	22	6
49	114	3
58	62	1
146	146	10
15	16	5
53	56	1
153	153	6
54	55	8
63	68	1
76	76	15
13	160	7
6	6	12
0	9	1
58	58	10
103	103	6
186	186	17
149	149	14
140	148	2
28	28	14
169	186	5
48	48	11
65	66	13
172	172	7
161	161	13
89	89	13
13	15	4
27	30	15
12	196	4
17	17	15
60	60	10
190	190	6
130	135	4
98	98	11
155	155	5
10	10	10
41	43	6
53	55	4
132	133	10
32	32	17
168	178	10
111	111	13
49	49	18
18	38	8
16	17	7
26	28	3
151	152	6
137	147	3
173	173	5
101	103	5
176	176	4
154	154	10
113	152	2
110	111	6
178	179	5
152	153	2
85	85	14
120	195	6
78	78	19
82	85	2
116	116	10
70	72	5
147	189	4
194	194	7
172	173	4
191	191	5
108	108	16
143	143	12
173	184	3
144	147	2
165	167	1
117	117	14
119	196	2
150	192	3
164	165	10
163	164	4
111	112	8
127	192	3
116	117	3
19	22	6
143	144	6
16	89	4
0	2	3
190	191	3
129	129	14
35	35	8
157	159	13
99	100	4
0	151	8
70	70	10
116	188	3
161	164	4
67	87	7
96	96	5
169	173	2
100	101	5
84	84	8
77	85	1
184	185	4
51	168	2
160	163	5
42	43	2
147	149	2
27	27	15
88	89	10
20	20	10
135	151	1
95	98	1
159	159	17
148	149	5
162	162	1
33	33	6
140	141	5
64	65	2
58	71	5
93	149	3
99	99	7
142	143	2
174	174	17
192	193	3
119	120	2
114	151	4
136	187	3
170	181	2
36	76	5
16	164	1
180	183	2
168	169	12
130	148	1
116	143	1
121	123	1
105	106	4
141	141	8
3	3	9
184	184	11
53	53	8
104	105	4
147	147	2
100	100	17
161	165	1
134	135	12
0	0	7
40	165	5
62	74	1
140	140	10
159	182	3
170	171	2
93	93	4
69	89	7
86	86	11
38	46	5
40	163	1
99	101	2
6	7	7
33	36	3
100	102	2
154	177	4
65	83	3
140	196	1
172	174	11
5	7	5
130	139	4
186	187	6
24	24	20
128	193	3
138	143	6
119	197	5
34	38	1
58	61	1
52	52	12
154	170	2
165	165	11
171	171	5
142	152	1
121	121	8
181	182	6
143	149	5
170	170	6
136	137	5
103	104	2
195	195	10
117	144	2
20	81	2
55	56	2
75	132	5
60	70	3
87	90	1
62	62	13
12	12	15
154	157	1
119	185	1
66	118	1
116	134	1
149	150	3
169	172	5
131	190	2
142	151	1
123	141	1
148	148	16
60	69	1
43	43	9
98	178	4
135	136	8
140	146	3
17	37	3
2	8	5
63	63	7
76	78	3
138	139	2
168	180	2
71	74	1
69	84	6
44	44	8
160	173	3
132	135	2
162	163	2
183	184	4
84	86	3
177	181	4
74	86	3
104	104	11
11	145	2
4	22	3
162	165	1
78	80	2
41	164	2
108	129	1
90	117	1
119	149	3
157	158	8
174	176	6
36	36	19
112	119	4
141	150	2
128	140	3
119	189	2
179	180	7
38	47	3
38	39	6
75	130	1
37	76	4
25	25	11
10	14	1
113	174	4
13	13	11
4	5	4
3	9	3
79	80	7
96	114	2
65	65	10
113	183	2
150	150	13
93	94	2
23	42	1
96	102	3
66	69	7
100	185	2
166	168	4
24	25	3
150	151	5
168	170	4
13	17	2
54	54	6
4	4	3
73	74	4
184	195	2
192	194	5
54	85	4
15	158	2
27	29	4
171	176	5
142	144	3
61	63	2
37	37	9
47	49	4
13	46	1
150	178	8
151	154	6
47	158	3
5	40	1
26	27	2
16	47	3
131	138	3
129	141	3
10	12	2
121	127	1
11	53	1
85	87	1
87	89	2
25	28	2
23	23	9
147	148	11
96	103	2
179	179	15
174	175	5
83	84	5
143	146	2
59	61	7
168	195	5
175	175	3
87	87	8
134	134	9
122	124	3
168	179	2
74	83	3
102	109	2
188	188	11
40	43	2
4	40	4
39	47	1
115	146	3
21	21	7
73	73	14
138	138	3
126	126	5
99	106	3
24	26	4
174	188	2
72	72	5
117	147	1
51	126	2
114	155	2
123	128	6
94	148	1
51	52	8
28	29	5
35	38	3
35	43	1
150	193	1
93	179	2
99	180	2
0	152	2
41	41	7
137	148	6
32	74	2
108	185	6
116	147	5
34	48	3
22	23	5
98	101	4
0	153	2
47	157	1
17	81	3
117	195	1
167	179	3
43	44	5
11	12	4
36	38	2
109	110	8
47	48	2
42	42	10
75	86	1
54	61	2
83	83	8
64	66	2
79	81	4
114	115	4
6	19	4
19	21	1
13	14	1
5	8	4
105	107	3
102	118	1
130	133	5
33	61	3
76	85	3
143	152	2
1	39	1
101	185	2
129	192	1
73	75	2
77	78	6
64	86	1
101	175	1
97	114	1
96	179	2
25	26	3
39	163	1
152	182	1
51	182	1
118	133	2
81	161	2
172	185	1
7	18	2
179	186	1
121	122	4
147	191	1
19	26	1
133	133	5
139	139	6
107	118	1
47	53	4
107	109	2
127	127	8
30	31	2
170	184	2
32	73	3
14	16	3
116	182	1
128	148	1
110	149	1
166	167	1
107	108	6
74	131	2
60	61	3
3	44	3
97	97	9
155	157	2
8	28	2
3	43	2
101	104	4
50	51	6
83	85	2
86	87	2
14	14	9
119	129	2
29	68	1
103	153	1
191	192	2
35	76	2
128	141	3
130	131	3
69	88	2
146	147	2
138	142	1
50	177	2
9	14	2
132	134	2
149	191	2
169	182	1
5	6	1
151	153	1
60	62	3
129	133	2
14	196	1
0	6	1
146	188	1
97	151	2
189	192	3
124	126	1
156	160	2
94	95	4
73	86	3
100	105	4
44	46	2
52	58	1
161	163	1
5	5	10
134	139	1
140	143	3
39	46	3
101	178	1
70	85	3
38	42	2
48	53	3
173	176	3
15	143	1
140	142	1
171	174	5
98	99	4
105	175	2
169	171	5
3	4	3
131	132	2
9	26	3
117	118	3
165	166	3
107	110	1
155	156	4
99	181	2
112	117	2
103	154	3
31	70	2
99	107	1
196	197	2
145	188	1
31	71	2
9	10	1
162	191	1
41	165	2
180	180	3
13	18	4
66	71	1
0	8	1
167	169	1
98	100	5
121	128	1
81	82	3
37	51	2
167	168	1
54	56	3
95	96	4
97	115	1
148	190	1
95	168	1
1	7	1
96	165	2
55	70	1
175	176	4
112	148	1
41	42	4
104	175	2
99	114	3
172	176	2
116	189	2
122	141	1
99	113	1
102	186	3
35	41	1
144	145	3
84	88	1
143	148	1
95	100	1
3	41	2
31	69	1
30	88	3
103	116	1
97	150	3
42	44	1
12	141	2
116	148	2
121	197	1
32	78	1
71	72	1
62	67	1
120	194	1
152	155	1
11	14	1
4	11	1
64	72	1
81	84	2
41	188	1
94	146	1
106	108	2
74	75	2
6	41	2
12	142	4
140	147	2
132	136	1
132	190	2
10	20	2
117	185	1
112	139	2
76	77	4
10	53	1
145	150	3
69	70	1
16	23	2
185	195	2
134	188	1
16	38	1
105	156	1
55	180	1
66	140	1
94	168	2
42	46	1
52	128	1
191	193	2
135	137	3
17	18	1
177	177	4
95	115	1
41	166	2
111	118	1
31	32	2
1	153	1
133	134	2
170	186	3
68	69	1
155	170	2
123	149	1
142	150	1
26	86	3
108	118	1
170	172	1
84	85	2
109	112	2
34	43	2
97	98	1
42	45	1
145	187	1
101	153	2
155	159	1
155	158	1
144	153	1
67	68	4
9	24	1
60	63	2
103	118	1
171	183	1
0	3	1
0	18	2
17	23	1
86	89	2
115	188	1
106	110	2
11	11	2
186	195	1
123	123	1
95	179	1
57	144	1
119	128	2
157	160	1
74	78	1
112	113	1
103	105	1
167	180	1
90	132	1
161	167	1
48	49	2
120	150	2
83	86	1
131	136	1
29	87	1
189	190	2
12	13	2
98	104	1
71	73	2
99	174	1
118	185	1
4	19	1
118	135	1
98	177	1
146	193	1
136	188	1
82	83	1
18	41	1
112	140	1
27	28	1
144	196	1
114	145	2
109	111	1
0	1	1
15	196	1
136	138	1
123	124	1
0	39	1
16	35	1
101	106	1
52	56	1
35	39	2
2	9	1
54	63	1
95	97	3
90	133	1
66	145	2
16	157	1
108	112	1
100	106	1
17	162	1
69	132	1
9	15	1
98	166	1
2	3	2
145	146	2
34	36	1
158	160	1
121	147	1
114	119	1
16	24	1
145	145	1
145	147	1
64	69	1
65	88	1
24	28	1
89	90	2
33	58	2
7	8	1
3	5	1
18	34	1
25	27	1
87	88	1
98	103	1
96	97	1
81	85	1
130	138	1
187	190	1
51	183	1
