111	111	9
8	8	23
120	121	2
87	87	4
19	19	9
92	92	16
47	129	5
20	133	1
76	76	8
37	41	3
2	19	3
10	10	13
59	60	2
0	0	4
58	100	2
129	134	4
86	86	14
5	6	5
46	46	3
97	98	8
17	18	8
45	45	6
123	123	7
110	112	3
16	16	6
127	127	6
39	39	10
10	11	5
81	81	7
60	60	11
61	118	3
125	125	16
84	94	6
45	65	2
85	85	3
24	24	3
44	44	8
14	14	5
48	55	1
71	72	1
78	78	8
114	116	3
61	75	3
74	74	11
123	124	3
129	129	10
47	47	7
114	114	15
29	29	7
17	17	8
66	67	2
113	114	9
80	80	14
116	116	11
65	66	2
115	116	4
95	105	1
109	131	2
15	16	4
56	56	5
73	73	6
88	88	5
59	80	2
5	5	13
103	103	14
7	7	16
110	110	12
91	92	4
117	117	10
72	72	7
9	21	5
103	106	6
1	1	8
77	103	1
101	102	4
43	43	12
111	123	2
41	41	4
9	45	1
88	92	1
21	26	2
71	71	5
112	113	4
67	68	1
58	58	3
119	119	13
28	28	5
134	134	5
111	117	3
13	13	4
88	102	3
109	109	5
88	129	2
128	132	1
82	82	10
77	80	3
83	83	4
129	130	2
38	39	2
62	62	11
65	65	15
93	93	16
107	130	1
10	45	3
107	107	9
120	120	7
113	116	1
77	77	4
103	105	5
34	34	12
84	84	5
97	97	7
95	123	2
34	44	1
15	15	6
7	22	2
4	69	1
2	64	1
82	83	4
115	115	10
18	18	9
90	90	3
124	124	6
67	67	10
36	36	12
22	24	1
59	59	13
82	93	3
11	11	9
84	88	4
106	128	3
108	108	7
75	75	9
81	83	2
69	69	3
63	63	5
128	128	6
72	73	1
60	61	2
108	130	3
33	44	2
37	37	7
27	43	1
95	96	2
25	25	2
101	101	5
118	119	4
9	59	1
57	59	1
57	57	5
28	29	2
33	76	1
57	58	1
35	44	1
96	98	3
111	112	6
112	112	4
46	123	1
124	130	1
124	125	5
33	33	12
32	32	3
121	121	5
21	21	7
5	16	2
61	61	5
133	133	6
31	31	5
87	88	1
4	128	4
27	28	2
78	79	8
2	3	4
42	42	3
112	130	4
89	94	3
104	131	3
104	104	4
130	130	11
98	98	6
3	3	1
24	102	1
94	95	1
81	82	4
108	119	1
68	68	2
30	30	5
89	92	1
108	131	2
2	2	11
38	38	3
94	94	6
58	102	1
105	105	1
20	134	2
40	41	6
34	36	4
111	124	3
48	48	6
47	123	2
85	86	9
106	106	4
107	128	1
76	77	2
117	121	1
66	66	4
22	22	1
96	97	1
91	91	3
13	14	1
35	35	2
109	110	1
96	96	2
54	54	4
128	129	2
4	4	2
79	79	7
119	123	1
68	69	1
102	103	3
65	68	3
97	106	2
20	24	1
114	115	2
9	9	3
85	98	5
108	122	1
20	22	2
100	101	3
94	96	3
90	92	1
64	66	1
122	122	3
3	18	1
83	84	1
121	122	3
59	75	3
80	104	1
44	61	2
119	122	1
118	118	7
3	10	2
42	43	2
37	38	2
108	124	1
39	40	2
18	27	1
16	17	2
35	74	1
26	26	1
94	124	1
92	93	1
21	22	1
126	126	6
26	27	1
12	13	2
27	27	3
69	70	1
7	121	1
113	113	2
16	39	2
102	102	2
84	85	1
70	70	1
44	57	3
20	20	6
3	5	1
8	43	2
111	126	2
64	64	3
33	34	1
126	130	1
12	12	2
12	15	2
115	134	1
114	117	1
62	65	1
60	123	1
107	108	2
62	63	1
11	12	1
8	9	2
66	71	2
122	123	3
40	40	4
6	6	3
132	132	3
55	55	5
95	95	5
24	113	2
61	62	4
55	56	2
100	100	1
74	75	1
19	20	2
58	60	1
98	99	2
86	94	1
45	74	1
60	96	1
84	132	1
35	36	1
133	134	1
36	43	1
104	105	1
119	130	1
89	89	1
16	37	1
33	38	2
109	124	2
26	28	1
124	126	1
2	4	1
4	20	1
45	46	1
116	117	1
80	81	1
3	63	1
17	19	1
7	14	2
69	71	1
82	116	1
34	35	2
27	40	1
126	128	1
49	100	1
9	11	1
112	115	2
131	131	1
75	76	1
106	123	1
78	80	1
130	131	1
106	110	1
34	43	1
85	115	1
22	26	1
