14	14	28
7	7	24
81	81	12
122	123	9
86	87	7
92	92	25
24	24	37
126	127	15
74	74	25
67	67	18
118	118	18
10	10	17
83	83	10
129	129	26
31	32	11
71	71	22
27	27	19
127	127	21
124	124	25
45	45	17
78	78	21
32	32	13
19	19	17
64	64	30
63	63	22
16	16	32
18	19	4
43	43	9
90	90	27
22	22	10
8	8	12
8	38	5
106	106	22
71	72	12
12	12	32
123	123	22
77	77	15
115	116	10
44	44	24
7	36	2
18	32	5
70	71	4
49	50	10
2	5	7
73	74	17
68	68	14
23	24	1
111	111	13
114	114	24
30	33	4
95	98	6
121	121	21
72	73	10
82	82	19
126	126	18
28	28	30
61	61	18
26	26	34
58	59	13
101	102	13
116	120	3
66	66	14
120	128	3
4	56	3
8	23	1
80	80	31
19	24	1
60	60	24
133	133	12
86	128	4
102	103	6
0	1	8
112	113	9
14	15	2
45	51	1
113	113	23
50	50	16
99	126	3
107	107	15
105	124	7
17	57	3
32	33	29
86	88	1
77	78	21
109	109	17
85	91	5
96	96	21
30	30	27
33	33	25
27	28	17
85	85	23
115	115	18
3	36	2
54	54	15
49	49	12
79	79	13
93	94	8
93	93	21
131	131	19
70	70	19
72	72	16
42	66	3
0	77	2
75	76	5
58	58	13
13	13	29
119	119	28
122	122	28
95	95	19
125	125	25
29	29	14
17	17	5
2	2	19
96	97	14
98	98	15
29	35	4
15	15	13
100	105	4
101	101	22
111	112	12
73	73	22
85	128	2
6	9	3
37	37	14
76	76	22
104	104	20
106	109	2
94	94	18
69	94	4
23	23	14
98	101	2
88	88	13
79	123	3
6	6	17
70	76	3
84	84	22
64	67	4
5	5	22
59	68	2
59	59	28
75	101	2
127	131	3
3	3	17
0	30	1
128	128	10
5	29	1
62	62	28
62	63	14
108	108	7
1	1	24
12	13	11
25	26	4
130	131	14
15	16	4
66	67	5
9	9	8
94	95	17
60	61	14
0	0	15
105	105	15
37	38	3
100	100	27
48	50	3
91	92	12
1	38	1
25	25	16
124	129	1
11	11	13
50	51	1
30	34	1
89	89	11
43	44	12
3	4	14
86	91	3
35	35	12
6	37	1
2	3	3
130	133	4
85	130	2
65	66	13
11	24	3
6	12	2
120	120	17
15	20	3
45	46	1
18	18	10
31	31	21
75	75	26
57	58	8
116	116	17
10	11	6
84	86	2
72	74	4
84	110	6
36	36	5
116	118	1
19	20	6
55	55	5
21	21	15
132	133	12
85	109	11
64	65	13
69	70	2
0	70	2
69	69	20
97	97	7
99	100	6
54	70	3
101	105	3
80	81	7
86	107	1
2	44	4
47	48	5
99	109	7
92	93	16
8	27	2
127	129	8
0	62	4
112	112	11
132	132	22
80	85	1
101	114	1
44	45	6
53	53	17
117	118	11
8	9	9
106	111	3
68	69	7
9	11	1
78	126	5
75	112	4
1	4	6
99	99	8
130	130	13
108	131	1
82	87	2
52	52	9
87	87	12
63	64	7
29	70	6
24	25	9
77	127	1
59	60	3
87	88	6
109	127	3
78	79	6
82	110	4
0	103	4
125	126	8
134	135	9
114	115	6
67	68	4
79	127	2
107	116	5
85	118	2
54	55	5
97	98	7
119	120	13
3	30	3
17	27	5
118	119	5
77	135	1
102	102	16
118	120	3
110	110	6
74	97	3
3	7	3
9	10	10
61	68	5
91	91	11
95	96	7
67	86	2
89	95	4
52	56	4
116	117	1
57	57	10
90	91	7
103	104	5
1	44	2
73	75	2
106	108	4
129	131	2
127	128	6
51	51	7
84	85	12
16	19	13
8	24	3
6	7	5
98	106	7
77	80	2
82	85	1
89	90	9
67	69	7
98	99	5
44	76	2
104	111	1
29	34	1
76	78	4
78	80	9
85	86	3
15	21	5
17	18	3
6	13	3
103	103	11
45	62	3
8	28	2
48	48	5
126	130	3
123	124	6
24	111	1
124	126	3
22	24	11
4	4	7
7	17	4
19	23	1
64	68	1
6	10	4
81	111	2
73	102	2
34	34	23
49	52	8
91	127	6
27	50	8
60	69	4
124	128	4
127	130	2
42	42	5
63	92	3
101	106	1
16	21	8
83	110	3
0	121	2
117	117	10
47	103	5
11	12	5
44	121	1
45	55	4
71	96	3
10	20	3
11	16	5
88	89	6
121	122	6
96	125	3
80	125	1
28	31	1
82	83	4
2	4	1
107	133	2
109	113	8
13	15	1
62	67	1
24	26	1
104	105	2
86	86	9
133	134	3
1	47	1
21	94	1
81	88	3
82	128	1
32	34	2
50	57	4
77	79	3
63	71	1
116	133	2
8	132	3
94	97	2
124	125	3
6	11	3
84	118	1
72	124	2
29	30	3
45	47	3
61	62	6
71	95	3
38	38	5
43	69	3
99	135	1
50	54	1
79	124	2
111	115	3
29	32	3
102	121	1
105	117	1
62	68	1
56	57	4
3	43	4
11	22	2
74	75	2
47	47	9
81	127	1
64	66	2
59	63	2
45	68	1
7	8	8
68	91	2
107	132	5
88	131	1
42	44	1
16	17	6
19	53	1
52	54	1
21	22	4
95	105	1
10	25	4
20	20	8
33	34	8
72	119	2
68	70	2
62	64	5
90	117	1
9	19	3
56	65	1
78	125	2
79	80	6
134	134	4
65	65	11
48	124	3
1	56	1
75	114	2
21	23	2
24	35	1
33	35	5
63	90	1
20	21	3
77	124	1
14	27	5
108	130	3
94	126	2
85	87	2
56	56	5
83	111	1
124	127	1
81	129	2
68	75	3
7	24	1
17	20	3
5	35	1
30	31	6
83	107	3
79	126	1
88	90	2
52	53	2
132	135	1
129	130	1
15	17	1
6	14	4
50	52	2
59	61	1
34	123	1
131	132	2
85	135	2
120	121	2
68	76	2
72	118	1
88	93	2
19	91	3
5	69	2
89	91	3
6	28	1
35	36	4
91	94	2
135	135	6
7	35	2
17	58	2
13	14	5
92	94	2
101	134	1
48	49	1
4	5	3
1	2	1
7	11	1
31	72	1
31	90	1
15	18	2
6	8	1
107	108	2
90	127	1
82	119	2
21	96	2
78	128	5
2	9	2
117	124	1
5	6	1
22	23	5
101	133	1
108	110	4
85	92	1
54	60	2
91	93	1
130	132	2
46	81	1
70	124	2
83	84	2
36	37	6
33	129	1
94	96	4
61	65	3
44	119	2
65	85	2
105	126	2
120	127	1
115	125	2
50	53	1
117	132	2
19	39	3
65	80	1
118	122	2
24	112	1
23	26	1
126	128	1
49	55	1
7	12	1
53	54	1
87	92	1
79	129	1
4	43	1
3	5	1
46	49	1
18	52	1
17	19	1
100	135	1
30	70	1
2	68	1
75	124	1
8	18	2
17	28	1
88	99	1
71	76	1
78	127	1
28	29	1
1	134	1
108	109	2
110	111	2
120	125	1
46	46	1
106	126	1
87	93	1
104	121	1
27	59	1
80	113	1
43	52	1
111	113	1
120	129	1
100	101	1
58	69	1
46	51	1
30	32	1
20	30	1
11	13	1
124	133	4
112	115	1
16	56	2
113	114	1
1	45	1
102	104	1
35	47	1
23	95	1
86	90	1
106	117	1
20	101	1
114	118	1
125	129	1
