144	144	7
112	112	6
145	145	4
39	39	11
104	105	3
10	10	8
28	28	16
18	18	6
32	32	20
84	132	5
47	48	2
141	148	1
113	113	12
82	84	2
80	81	3
5	6	10
84	84	4
20	20	16
149	149	9
4	5	10
126	126	10
118	118	7
109	122	3
75	75	10
14	14	16
97	97	10
86	88	6
123	124	1
41	43	4
76	76	11
81	81	4
99	99	4
152	153	2
110	110	6
42	45	3
96	97	4
101	104	2
129	129	14
29	30	4
79	79	8
100	104	5
8	8	10
7	8	2
8	9	3
17	17	5
72	73	5
96	102	3
104	104	15
67	67	14
82	83	1
85	85	7
12	14	3
126	127	4
133	133	16
53	55	7
48	50	2
7	10	3
10	33	1
146	146	9
150	150	12
73	73	7
44	44	9
5	5	4
10	11	9
152	152	6
84	85	9
36	36	4
68	69	2
139	139	12
108	108	9
148	148	6
37	37	19
28	29	3
83	83	12
122	123	9
137	137	6
133	134	5
26	34	3
111	112	9
50	65	2
34	36	2
120	120	4
61	62	7
144	145	7
126	128	7
85	86	3
18	19	7
109	109	12
119	119	10
138	138	23
64	91	1
128	130	4
130	130	6
34	34	11
7	7	9
67	69	2
27	27	7
53	56	6
86	86	8
82	82	22
123	123	16
20	22	2
116	116	8
111	111	11
66	66	7
74	75	6
87	87	5
100	100	7
22	22	6
87	126	1
35	35	5
142	142	12
49	50	3
28	40	2
127	127	9
45	46	5
6	6	13
53	53	16
140	140	3
132	132	11
134	135	5
32	33	2
25	25	8
151	151	9
100	101	2
132	133	6
129	130	5
15	15	3
65	65	10
80	80	5
6	19	2
78	78	21
35	63	2
43	43	10
92	92	7
47	47	5
53	143	2
93	94	6
23	24	2
56	57	4
44	45	1
124	126	1
105	105	11
23	23	5
38	38	6
27	28	5
105	127	3
116	150	3
63	63	10
87	127	2
98	98	4
28	42	3
106	106	21
109	110	2
64	64	11
120	138	3
74	81	1
96	100	1
122	122	11
19	19	13
88	88	6
26	26	9
85	99	1
98	99	4
71	89	1
62	62	6
105	108	2
49	55	3
80	85	2
121	127	1
99	120	2
68	68	8
103	104	9
41	73	3
29	29	4
57	57	11
13	13	10
21	22	4
107	119	2
102	102	14
4	57	4
51	51	5
70	70	9
114	114	4
30	30	18
83	84	6
115	115	8
115	116	2
48	49	6
131	132	6
23	25	2
109	113	1
125	125	9
86	87	1
15	16	3
111	144	3
136	138	1
130	141	4
6	7	5
41	42	5
75	77	3
28	30	1
106	108	2
33	33	7
40	40	11
56	56	4
141	141	5
8	10	5
10	32	5
48	48	4
42	42	17
22	23	3
51	52	3
7	37	2
53	68	2
56	58	1
114	115	1
10	55	2
100	123	5
95	96	5
21	21	6
140	141	18
55	55	3
99	100	1
154	154	12
40	64	3
39	40	5
95	99	2
42	50	6
27	41	2
110	111	3
147	148	3
136	136	15
99	101	2
106	107	11
69	78	5
14	18	1
97	98	5
75	76	1
67	90	1
103	121	1
147	149	2
71	73	2
117	117	8
141	144	1
72	72	5
65	67	1
102	103	3
3	50	2
54	55	3
69	69	16
122	127	2
49	52	1
107	107	7
11	11	5
8	32	4
120	121	1
30	37	2
106	128	1
135	135	4
34	57	2
9	9	4
24	24	6
32	34	2
114	117	4
5	8	2
135	143	2
108	122	4
147	151	2
40	43	3
17	20	1
9	36	3
113	144	1
12	113	1
49	51	3
9	25	1
16	16	6
25	26	2
136	137	3
34	43	1
53	57	2
4	4	5
42	48	1
100	122	1
66	68	4
130	153	3
31	32	3
119	120	4
130	134	2
38	49	2
77	77	5
64	67	3
9	10	1
71	71	9
54	54	5
148	152	1
121	122	4
9	11	1
12	13	8
45	45	5
45	51	2
65	104	3
12	12	8
50	50	5
36	79	3
101	102	7
11	25	3
37	38	1
122	124	1
13	19	1
3	3	1
123	125	3
112	113	4
42	43	5
153	153	3
128	129	2
46	47	2
143	146	1
138	151	2
49	49	4
115	117	3
31	31	7
105	106	1
102	105	1
47	50	3
124	125	3
14	66	2
74	74	7
147	147	5
14	17	4
78	80	1
43	44	3
143	143	5
38	40	2
45	47	1
78	79	7
38	39	4
23	26	2
137	150	1
93	93	5
144	146	1
68	78	1
14	15	2
131	138	2
105	107	1
46	52	1
33	34	4
125	128	3
148	150	2
14	23	1
127	128	3
147	154	1
66	67	4
75	121	2
119	121	1
4	22	1
100	108	1
125	127	1
4	8	5
143	145	3
117	139	1
103	122	2
103	136	1
113	114	1
150	151	3
25	53	1
124	124	2
149	150	5
146	151	5
116	117	2
98	101	1
9	67	1
24	25	3
81	82	4
67	70	2
27	37	2
35	36	1
117	118	1
15	19	3
7	25	3
137	138	2
121	121	1
11	80	1
41	41	4
138	139	6
42	44	1
132	134	2
8	20	2
12	24	1
132	135	1
111	114	1
100	102	1
20	21	1
73	74	2
137	141	1
103	103	3
147	150	1
145	146	3
109	114	1
87	88	4
7	9	1
37	43	1
95	95	3
143	144	1
132	143	1
96	96	6
46	46	2
36	57	1
134	134	1
132	139	1
17	24	1
77	81	3
40	80	2
110	113	2
90	90	1
98	105	1
116	118	1
11	12	2
27	29	2
73	75	2
37	44	1
5	7	1
86	93	2
85	128	1
146	147	1
108	120	1
128	131	1
53	64	1
72	75	1
3	4	2
9	20	1
13	114	1
18	20	1
50	51	1
150	152	1
81	88	1
17	21	1
131	135	2
29	46	1
124	131	1
130	150	1
70	71	1
58	58	2
16	17	1
24	55	1
9	15	1
79	80	1
39	41	2
8	11	1
105	121	1
152	154	1
8	26	3
103	107	1
106	109	1
136	142	1
74	77	2
107	117	1
109	112	1
118	119	1
37	48	2
40	42	1
32	57	1
93	120	1
3	6	1
81	84	1
14	68	1
17	18	1
83	119	1
69	71	1
83	86	1
70	81	1
149	152	1
141	142	1
