10	10	8
62	62	7
68	68	20
63	63	18
83	87	1
131	131	2
16	16	18
15	16	1
117	120	3
75	75	5
106	113	12
32	32	7
23	24	2
106	107	1
5	32	2
111	111	6
4	27	2
103	103	8
5	6	2
9	9	5
20	20	7
71	71	3
42	42	12
99	101	1
63	71	1
60	72	3
121	121	2
65	66	2
109	109	8
102	108	8
98	98	4
13	34	3
115	115	8
122	122	14
8	8	6
37	38	2
132	132	8
4	28	3
76	76	4
106	106	7
90	91	3
13	13	10
28	28	13
91	91	4
24	68	1
87	131	4
36	36	4
43	43	13
81	87	6
45	45	8
43	44	2
129	129	16
46	46	7
39	39	14
40	40	3
97	134	4
81	81	10
18	18	2
55	58	2
116	116	7
12	12	10
26	26	8
44	44	5
101	101	5
7	7	12
107	107	11
33	33	6
17	17	4
13	36	1
38	38	11
45	46	4
106	112	1
126	132	2
57	57	4
96	96	2
35	36	3
15	15	8
92	93	8
7	16	2
29	30	1
100	100	9
8	63	2
17	28	1
2	17	4
70	70	6
89	115	3
73	73	4
118	118	7
111	134	6
112	113	2
113	134	2
127	127	6
79	82	2
61	62	8
19	21	1
19	19	1
6	66	4
84	84	5
79	79	9
31	32	4
4	4	10
14	14	6
13	35	5
92	92	7
37	37	8
80	88	2
56	58	1
133	133	9
12	13	2
110	113	2
73	74	8
123	123	12
28	35	5
79	80	3
48	48	7
119	120	3
78	80	3
109	116	2
105	105	16
108	123	2
129	131	8
41	41	5
72	72	10
21	21	10
121	123	1
67	68	4
76	79	4
2	3	3
85	102	3
41	42	4
36	105	9
44	61	6
83	83	6
24	41	1
4	5	2
69	70	3
64	65	5
119	121	4
93	128	1
80	80	6
7	17	2
56	56	8
64	64	5
99	106	1
108	110	2
11	11	6
26	49	2
124	124	3
90	90	5
23	28	4
119	125	3
42	56	4
24	24	2
86	86	7
47	47	12
110	110	11
10	12	3
39	41	5
94	94	6
5	5	3
115	117	5
14	22	1
19	38	5
109	134	1
19	49	4
10	32	12
74	74	7
82	82	6
40	106	4
79	118	2
73	125	1
62	70	2
65	65	7
38	89	2
23	26	3
46	47	2
116	118	3
20	21	3
117	117	7
127	128	5
26	28	2
126	126	2
6	7	1
130	132	3
119	123	1
29	47	1
30	35	3
95	95	5
17	18	2
88	88	6
66	66	12
14	25	2
4	17	2
112	112	5
119	119	2
59	75	1
36	48	1
111	112	1
16	17	5
134	134	2
8	18	1
72	78	2
19	37	3
37	79	1
114	114	3
92	94	5
102	102	7
68	97	1
69	69	5
25	25	7
37	39	6
44	45	8
120	121	4
92	122	4
90	123	1
6	6	8
89	90	1
35	105	2
109	111	5
100	134	1
59	59	11
14	42	3
94	96	2
70	118	3
127	132	5
35	35	6
58	99	8
112	119	1
7	33	5
64	67	1
30	31	1
10	13	3
30	30	6
107	108	1
109	114	2
40	41	4
10	43	3
91	96	1
1	9	1
95	96	2
95	104	1
104	104	2
80	89	2
72	73	2
86	88	3
79	103	2
46	62	2
23	23	3
119	122	1
1	12	2
81	83	3
72	84	1
27	28	2
61	75	3
39	59	2
115	124	2
8	9	2
91	92	4
19	20	1
128	128	2
105	112	1
84	86	4
6	18	2
0	12	2
22	22	5
98	129	2
38	106	4
62	64	1
130	131	4
80	87	1
34	35	2
55	55	3
6	42	1
36	40	7
75	76	4
1	19	1
19	31	2
130	130	9
113	113	4
112	122	1
117	125	3
122	124	1
64	74	2
24	47	1
35	69	2
55	86	5
93	94	2
78	97	1
81	82	3
100	128	3
33	35	2
60	60	1
91	123	1
85	85	3
38	79	2
21	25	1
5	26	4
98	100	1
81	107	1
87	90	3
56	83	1
9	12	2
21	22	1
11	69	1
103	130	1
132	133	3
8	12	2
2	2	2
39	40	4
98	130	4
50	60	1
93	99	1
56	62	4
87	87	5
108	134	1
24	34	1
42	59	2
92	95	1
99	99	1
78	78	2
6	12	1
108	108	2
10	21	1
35	38	2
7	10	1
87	88	4
7	115	1
122	134	1
93	93	1
6	43	1
93	122	2
46	65	1
12	50	1
69	71	2
77	77	4
87	133	1
128	130	4
45	63	2
102	104	2
124	125	2
57	85	1
100	109	1
3	3	2
20	27	2
38	88	1
40	49	3
73	126	4
105	134	1
94	112	2
4	16	1
74	75	1
94	101	1
19	28	1
55	56	1
68	131	2
17	118	1
120	124	1
3	15	2
30	38	1
89	108	1
33	34	1
66	67	1
121	122	2
6	16	1
71	73	1
111	122	1
48	49	1
61	61	1
73	79	1
32	33	1
104	127	1
69	81	1
97	100	1
28	32	1
127	133	1
90	130	1
1	1	1
27	27	1
57	62	1
22	27	1
102	110	1
60	78	1
89	132	1
91	93	1
