2	112	4
22	22	7
65	65	11
16	16	8
149	153	1
79	79	10
147	147	7
128	135	3
103	103	11
168	169	5
101	101	12
94	94	12
155	155	10
78	80	7
95	98	2
75	134	2
3	3	12
95	96	13
67	84	2
57	87	1
167	169	1
124	127	1
100	144	5
70	72	3
104	104	17
1	1	17
112	129	1
38	38	9
97	97	12
69	79	3
81	81	10
43	43	14
102	103	3
141	141	10
98	98	14
26	26	12
99	99	15
7	7	18
146	148	6
46	46	12
75	75	16
105	105	11
42	42	44
95	122	3
41	41	30
133	133	16
144	144	12
126	126	11
130	130	13
100	146	4
154	154	16
91	93	7
83	83	1
2	2	12
36	36	18
117	117	19
107	107	16
138	138	14
52	52	12
107	117	2
146	147	4
143	143	19
112	132	1
8	8	5
57	57	6
157	157	8
148	148	9
100	142	5
69	69	10
81	109	2
153	153	4
129	129	11
67	68	10
14	14	14
159	168	1
102	102	11
43	52	5
116	117	5
127	129	6
51	51	18
14	110	4
100	101	2
88	89	8
4	5	3
163	163	12
18	18	12
91	92	8
104	122	3
15	53	3
72	76	3
63	78	2
129	130	5
95	95	3
23	63	5
11	21	1
50	51	6
159	160	8
118	118	22
128	128	8
102	108	3
70	70	17
64	114	3
45	50	2
11	11	14
69	70	5
73	73	14
120	120	13
40	40	17
82	88	2
161	161	12
159	159	9
84	84	16
165	170	4
86	87	9
129	136	5
153	156	2
117	118	8
118	120	1
117	167	3
145	149	4
9	9	4
130	132	5
15	15	7
147	148	1
16	18	6
168	168	8
113	113	8
125	165	4
150	150	11
139	139	17
160	160	17
154	156	7
13	13	6
73	85	3
130	134	1
39	40	8
79	96	1
139	140	10
106	107	5
95	97	1
109	109	6
105	153	7
44	44	18
42	72	2
49	49	10
64	87	4
143	145	6
64	64	10
108	108	12
136	136	6
162	163	10
44	46	6
134	135	7
134	134	15
3	5	2
116	116	12
119	151	4
148	149	3
23	23	6
70	89	4
108	135	3
72	72	6
123	127	6
17	19	4
2	108	2
138	144	6
42	53	5
125	125	9
147	156	1
132	134	3
123	123	13
152	154	1
82	83	2
3	119	3
90	90	11
35	35	17
97	99	2
48	48	18
7	48	5
37	38	6
27	27	8
46	47	5
142	142	9
93	94	7
22	27	2
19	20	2
135	135	9
84	85	1
55	55	7
149	151	10
63	72	1
97	141	6
156	161	3
154	155	10
167	168	12
74	75	5
5	6	7
163	164	5
3	4	5
74	74	6
51	52	3
45	47	2
120	165	5
57	119	1
54	54	13
7	9	4
162	162	5
80	80	6
91	91	8
117	120	2
36	37	2
1	135	1
37	37	14
90	136	1
87	87	6
6	48	2
111	111	22
138	139	11
62	75	2
152	152	7
2	131	8
88	88	6
146	146	13
50	50	6
123	128	2
96	96	5
135	136	4
71	72	3
68	68	9
104	152	1
44	64	2
85	85	5
34	34	24
56	56	12
156	156	7
6	7	8
104	121	3
119	119	7
126	167	4
96	97	11
37	42	1
153	154	5
149	149	10
118	153	4
105	128	1
47	48	3
166	166	17
140	143	4
79	92	4
100	145	3
3	106	1
98	100	7
125	127	3
132	142	4
145	145	17
20	21	9
115	115	6
20	20	10
52	53	9
22	24	3
121	148	8
17	17	7
21	21	14
24	24	10
170	170	11
104	151	1
44	45	3
169	169	13
77	77	6
10	10	18
0	0	9
48	52	1
140	141	2
83	84	3
69	80	2
165	166	8
21	22	3
137	137	14
11	17	1
132	132	5
93	93	15
118	166	5
73	100	2
132	141	2
121	122	4
121	150	2
44	53	8
80	82	2
130	136	3
65	66	5
165	165	8
106	123	5
129	162	1
122	122	7
136	137	6
102	132	1
123	124	3
85	86	3
47	47	3
112	130	2
158	158	18
113	115	1
77	86	4
137	151	1
97	98	6
117	166	2
72	74	4
150	151	9
102	152	1
23	55	4
0	2	2
103	153	1
100	133	1
80	81	1
142	143	7
73	78	3
53	53	8
24	25	6
25	27	2
5	13	4
63	119	2
163	165	1
152	156	1
143	144	5
115	125	2
151	151	29
4	4	9
83	110	2
6	127	3
78	78	6
99	100	3
57	63	1
4	111	2
5	5	11
66	68	1
16	110	3
51	54	2
137	147	1
106	168	2
125	137	2
15	16	3
11	24	3
157	158	3
114	114	3
26	27	1
0	1	11
76	78	4
9	39	2
126	127	7
106	124	2
41	55	2
19	19	5
6	6	14
167	167	3
119	121	1
109	110	5
137	138	4
18	19	4
23	24	3
12	12	8
3	146	1
105	151	3
113	114	2
122	137	2
89	89	10
145	162	2
164	164	10
122	123	7
112	112	6
4	41	3
95	100	4
13	15	3
5	7	2
46	48	6
66	66	5
11	22	1
41	50	2
83	92	1
159	169	1
81	82	2
10	49	1
14	46	3
149	150	7
76	76	8
65	87	3
140	140	3
107	158	1
64	75	1
76	135	2
112	113	3
71	99	1
102	153	2
78	91	2
91	97	1
50	55	2
111	149	3
154	160	1
22	25	4
119	120	2
159	165	1
140	142	1
115	123	7
89	134	1
124	124	9
56	133	2
25	25	5
124	125	4
58	58	3
3	108	2
4	10	2
104	120	1
11	25	1
50	58	4
98	99	4
28	28	2
22	62	1
84	92	2
92	138	2
4	44	3
77	97	1
62	62	2
77	91	3
72	141	1
140	144	2
7	49	2
65	86	3
92	137	3
50	57	1
17	18	1
55	56	4
125	135	3
88	111	2
63	63	6
133	134	4
10	13	3
77	85	4
101	104	1
39	39	7
51	56	5
66	84	3
148	152	1
91	94	3
96	99	1
46	51	2
145	146	1
169	170	3
77	78	4
101	163	2
104	146	2
125	166	2
106	106	2
11	12	7
53	57	1
99	147	2
67	67	9
35	133	2
168	170	1
126	130	2
100	147	2
100	100	3
91	144	2
90	99	3
72	102	1
150	163	1
95	99	2
70	101	4
64	65	1
69	90	3
112	114	10
6	46	3
23	25	3
90	134	1
64	113	2
21	117	3
87	88	2
40	50	2
66	86	1
131	142	5
164	165	5
161	165	2
124	136	1
44	51	2
71	89	1
153	155	3
81	83	1
110	111	1
131	131	1
126	166	2
65	68	5
75	76	3
14	15	1
162	164	2
93	95	1
127	127	4
102	104	1
161	163	3
108	109	2
98	145	1
54	55	2
157	160	1
80	99	1
130	131	3
154	163	2
39	41	2
0	135	2
82	82	6
18	54	2
92	92	4
9	12	2
14	45	2
159	167	2
154	161	2
9	10	4
16	49	2
68	69	2
86	86	6
152	168	2
24	111	2
35	36	2
79	86	2
3	12	1
117	121	1
122	147	4
4	120	1
90	91	4
41	43	2
126	129	1
120	121	3
62	63	4
49	50	6
103	142	1
147	160	1
34	35	7
75	77	2
161	168	2
87	118	3
121	121	6
48	49	1
128	131	2
19	23	2
166	167	2
26	88	4
12	13	2
50	62	2
39	49	3
1	56	2
56	108	1
160	165	1
27	88	1
75	132	1
4	116	4
45	46	2
41	62	1
54	56	2
12	24	1
123	163	1
16	108	2
62	132	1
39	42	2
101	102	3
71	71	3
63	64	1
83	89	3
131	132	1
155	156	4
84	87	2
11	16	2
118	148	2
3	14	1
11	23	1
0	133	2
113	116	2
12	21	3
106	117	2
98	142	3
70	71	2
39	57	2
10	12	1
0	74	2
112	118	1
89	135	2
102	121	1
113	126	3
0	132	3
25	26	1
122	150	1
14	21	1
128	136	4
70	134	1
115	116	4
69	101	1
13	19	2
152	163	2
67	69	5
116	120	1
114	117	2
8	10	1
136	138	1
132	145	1
51	55	1
13	110	1
80	109	1
103	150	1
101	135	2
13	16	1
79	100	1
88	91	1
73	134	1
76	99	1
111	112	1
23	89	1
12	23	3
8	131	1
35	134	3
85	92	1
13	17	1
144	151	1
116	118	1
86	114	2
90	101	1
125	126	2
83	87	1
69	100	1
75	131	1
45	45	1
7	41	1
102	151	2
83	93	2
155	160	1
87	114	1
137	145	1
10	15	1
118	119	1
20	22	1
65	67	2
47	49	1
131	141	1
118	149	3
138	145	1
39	44	1
41	44	1
152	161	1
21	111	1
166	168	2
125	164	1
158	159	1
21	24	2
144	145	3
150	161	2
104	105	1
44	48	1
82	84	1
118	165	2
44	52	2
160	168	3
110	110	4
1	132	1
125	138	1
10	47	2
45	76	2
43	44	1
119	149	1
8	9	2
45	120	1
67	89	1
71	80	1
103	104	1
166	169	1
113	122	1
92	123	2
78	79	1
90	124	2
79	80	1
63	118	1
90	129	1
62	76	1
33	34	1
101	103	1
44	119	1
66	67	1
47	52	1
81	84	1
69	71	1
141	143	1
80	87	1
115	118	1
6	8	1
107	113	1
137	143	1
67	87	1
