69	69	17
67	68	2
145	146	8
37	37	15
161	161	17
169	169	6
79	79	14
47	52	3
72	72	4
141	141	9
18	57	3
137	138	4
3	4	6
44	45	4
14	14	18
6	6	15
99	99	18
18	20	2
67	67	6
70	122	1
39	45	1
152	152	12
125	125	10
94	94	11
112	112	15
74	74	9
160	160	23
43	44	3
54	54	6
65	66	11
159	164	2
127	146	1
153	153	7
90	132	4
0	10	1
157	159	1
22	22	16
48	48	10
166	166	15
6	7	6
84	85	7
17	41	3
130	130	13
68	69	3
78	129	3
14	149	1
82	84	3
41	41	19
77	81	3
156	156	16
70	70	6
148	148	10
42	42	17
86	168	2
67	69	1
4	4	14
92	93	2
168	168	12
98	99	11
46	46	12
145	145	12
136	136	8
118	161	5
117	117	8
40	41	1
82	103	2
125	134	4
5	5	18
15	16	2
92	143	2
130	142	3
121	121	6
99	168	1
73	75	2
92	92	13
68	68	7
102	102	10
155	156	15
115	115	7
138	139	5
163	163	6
139	139	10
21	23	4
17	18	4
52	52	17
170	170	9
69	70	6
9	12	1
151	151	19
21	24	2
5	6	3
157	157	4
155	155	18
0	0	6
18	83	3
11	18	3
109	109	9
20	22	2
35	36	7
100	100	20
124	136	2
119	119	6
47	47	24
129	129	20
97	104	2
34	34	16
72	122	5
96	97	7
51	62	4
81	81	8
15	15	13
73	165	2
114	114	17
156	167	5
26	27	2
79	165	6
63	63	3
144	144	9
111	111	16
139	140	2
51	52	2
14	164	1
45	45	15
84	84	8
35	35	16
73	73	11
127	127	6
123	141	4
129	130	8
49	49	8
103	141	3
96	102	1
27	27	11
72	73	1
113	113	10
23	45	3
3	3	5
118	118	12
105	106	9
107	107	16
50	50	10
119	125	3
97	97	14
154	154	13
1	1	9
82	145	3
72	144	3
80	80	7
155	157	4
149	151	1
10	10	16
14	15	9
124	125	3
81	82	2
8	9	2
19	19	7
75	75	13
43	43	10
90	91	3
66	66	2
135	136	4
35	43	3
71	71	13
131	131	11
13	50	1
122	122	7
85	168	5
84	168	5
82	82	6
127	147	3
89	89	9
88	89	8
85	85	6
83	83	13
92	123	2
102	103	4
142	143	6
95	95	11
91	104	3
15	52	6
83	84	1
162	162	13
101	101	7
9	9	7
61	63	1
101	153	5
110	110	12
27	53	1
20	21	5
64	143	2
18	18	12
55	55	7
106	107	3
91	132	4
143	143	11
37	49	5
8	8	6
74	95	3
7	37	3
25	25	15
55	56	4
44	44	9
78	78	6
126	128	3
104	105	7
135	135	8
101	103	5
125	126	6
120	131	4
10	38	2
41	42	2
66	131	4
25	26	9
39	39	8
84	123	2
129	138	1
144	145	3
116	116	12
0	93	3
71	127	2
26	26	10
46	50	2
42	43	3
117	118	1
64	66	3
13	14	2
61	62	3
17	17	8
70	76	1
150	150	10
13	36	8
96	103	8
88	88	10
95	130	2
53	55	4
85	169	2
161	162	8
44	83	1
36	36	5
76	78	2
132	145	1
90	130	1
114	115	10
90	90	10
66	69	3
153	157	2
126	126	16
120	121	5
120	120	8
96	96	6
21	21	15
128	146	2
140	140	4
67	70	2
16	70	3
116	118	1
105	105	15
147	147	7
11	12	5
151	152	3
40	40	13
132	134	1
112	125	1
134	135	6
36	37	4
119	120	6
77	77	7
98	98	13
165	165	7
36	38	2
56	56	4
97	98	4
90	138	1
23	23	10
38	38	13
96	100	3
80	150	2
69	72	2
133	133	7
134	134	14
125	157	1
120	130	1
36	43	1
4	5	2
72	141	3
53	53	14
99	159	2
16	49	1
132	132	6
11	11	9
111	112	2
2	2	6
12	44	5
119	126	1
86	148	3
107	150	4
113	149	1
139	141	4
142	142	3
57	57	5
53	54	5
121	144	1
8	38	5
16	168	3
3	14	2
24	24	12
112	116	3
47	56	1
14	52	3
127	129	2
133	135	2
83	145	3
62	62	2
0	87	2
149	149	10
45	51	2
122	124	3
103	103	2
79	80	2
5	13	2
76	162	2
80	82	1
45	46	3
27	83	4
27	170	3
20	20	9
7	8	3
164	164	9
87	87	5
14	70	2
122	152	2
158	158	5
76	76	4
73	74	2
8	24	2
12	51	1
113	148	1
33	35	3
95	117	1
91	91	4
110	156	3
124	126	3
16	17	2
18	24	2
168	169	5
77	86	4
164	165	1
6	39	1
155	159	2
86	86	8
13	45	1
66	71	1
70	71	1
7	7	10
101	102	11
167	168	3
13	13	8
64	70	1
108	108	3
103	144	1
11	14	3
108	109	8
123	127	2
94	130	2
137	149	1
128	142	1
137	143	4
48	56	3
123	130	5
86	92	1
78	79	1
144	169	2
76	161	2
121	122	4
89	132	1
128	147	2
138	138	6
167	167	10
39	40	8
104	168	4
1	90	2
77	78	2
143	153	1
145	150	3
123	123	3
93	94	1
21	22	3
115	116	3
37	38	1
93	93	7
150	151	1
88	90	2
18	25	1
64	76	2
112	113	4
27	55	3
71	140	1
66	67	3
98	117	3
77	90	1
51	58	1
128	128	17
118	166	1
113	115	5
35	42	2
97	118	1
12	12	9
122	139	5
122	142	2
119	127	1
159	160	4
153	154	3
100	101	1
42	74	1
38	49	2
71	145	2
88	154	1
88	155	2
47	48	1
16	16	9
159	159	8
63	78	2
113	114	3
103	153	2
131	132	2
82	87	2
44	51	4
78	81	1
76	163	2
89	90	2
71	84	2
89	126	13
97	99	1
65	65	2
12	131	2
103	106	1
74	75	1
34	35	3
17	39	2
10	12	3
57	68	1
21	47	2
122	162	1
5	37	1
16	167	2
6	13	1
137	137	12
140	141	1
79	91	1
107	137	3
125	128	2
71	122	2
111	153	1
1	87	1
85	146	1
168	170	1
121	154	1
143	154	3
114	148	3
17	57	3
35	44	2
16	80	2
11	38	2
150	152	1
1	2	2
99	121	1
84	86	1
130	147	2
110	114	1
104	104	2
27	56	1
90	129	1
12	45	2
27	28	2
84	92	4
64	142	1
95	100	2
91	123	1
64	64	4
122	165	2
26	74	3
24	25	5
18	19	3
106	169	5
71	151	2
69	140	3
64	73	1
105	163	2
111	124	1
65	91	2
112	170	1
33	33	2
103	104	3
115	152	2
146	147	2
115	147	1
100	146	3
12	39	2
154	159	1
103	167	1
58	58	2
146	146	9
57	77	1
106	106	7
46	49	1
133	134	1
101	161	2
21	52	1
147	148	3
74	76	1
2	24	2
122	132	2
83	127	1
92	101	1
64	65	1
52	54	1
51	51	3
151	153	2
10	131	1
152	153	1
73	105	1
111	151	1
81	83	1
96	104	2
136	141	2
91	92	1
78	80	1
75	76	2
10	66	1
107	153	1
0	17	3
156	166	3
85	147	1
128	148	1
41	43	2
80	81	2
40	52	1
112	114	2
124	124	5
63	64	2
82	116	1
53	56	2
126	127	1
82	83	2
19	22	1
21	50	1
54	55	1
71	121	1
134	140	1
67	74	1
96	101	1
70	134	1
95	99	2
143	147	1
46	55	1
123	126	1
11	16	1
7	65	2
75	86	1
56	57	1
51	87	1
79	81	2
74	93	1
10	11	1
110	111	1
120	126	2
92	153	3
80	86	1
138	145	1
69	73	1
46	47	1
8	19	1
91	146	1
44	46	1
72	159	1
18	23	1
150	153	1
15	129	1
50	51	1
79	162	1
49	83	1
112	138	1
138	168	3
108	127	2
23	28	1
165	166	2
5	40	1
94	128	1
77	80	1
0	16	1
169	170	1
62	63	2
71	136	1
64	124	1
10	90	1
110	134	1
68	153	1
73	136	1
81	132	1
7	42	1
132	135	1
79	164	1
76	154	1
100	102	1
95	153	1
105	159	1
11	40	1
73	157	1
88	136	2
73	131	1
58	132	1
71	128	1
18	66	1
126	147	1
117	157	1
143	144	1
109	110	1
94	159	1
2	5	1
19	20	1
103	157	1
106	108	1
20	23	1
110	151	1
107	109	1
17	49	1
158	159	1
88	127	1
48	49	2
102	145	1
72	75	1
0	38	1
136	138	1
102	141	1
