112	112	4
12	19	3
167	169	2
130	130	1
161	190	3
238	238	19
44	47	4
85	119	5
84	108	10
175	179	4
219	219	2
207	208	1
178	180	4
104	119	2
148	148	4
15	15	2
52	53	5
79	89	2
204	209	2
194	194	3
189	189	4
101	230	1
156	156	2
39	39	6
191	191	2
218	218	8
102	163	2
106	106	7
96	96	2
84	130	1
129	129	2
70	70	7
52	52	6
103	122	3
169	169	3
47	47	1
2	8	3
6	7	6
27	52	3
151	151	4
77	78	7
234	242	1
174	174	3
42	43	7
202	202	3
211	211	2
19	22	4
234	239	2
197	197	1
55	55	2
207	207	7
117	118	1
222	222	2
23	23	3
146	147	1
21	60	2
230	230	4
34	36	3
167	167	3
24	24	4
163	163	7
196	196	1
11	11	2
154	154	3
13	19	2
96	121	3
84	84	3
34	34	5
24	25	4
10	10	1
144	144	4
28	28	2
71	113	1
15	16	6
111	111	2
1	2	1
141	141	2
95	95	2
13	14	4
56	56	2
29	78	3
65	65	3
236	239	1
138	138	1
197	216	1
185	185	5
158	158	1
5	5	5
13	13	6
235	235	1
72	72	1
198	198	1
241	241	2
17	34	1
187	201	1
22	60	2
105	119	4
232	232	4
37	37	1
97	114	2
100	100	4
191	192	1
214	229	5
54	54	3
201	232	2
98	98	1
206	206	2
60	60	5
237	237	6
175	175	1
97	97	2
67	67	2
20	34	1
9	11	1
119	130	3
217	217	3
229	229	3
126	145	3
173	174	3
192	192	4
35	36	2
85	85	5
146	146	3
137	137	3
136	136	3
30	85	2
107	108	1
236	236	1
142	162	1
128	128	5
15	88	1
187	197	1
159	159	2
30	30	6
203	203	3
105	105	9
14	36	1
8	8	5
155	155	3
48	49	1
152	152	2
150	151	1
1	4	5
63	63	1
201	231	1
166	182	6
68	74	1
22	22	2
14	14	5
82	82	2
86	86	4
79	79	1
84	119	2
38	46	2
119	119	5
186	186	2
216	216	3
15	75	1
42	42	4
201	201	3
188	197	3
134	134	2
38	39	1
101	229	2
1	1	5
116	189	3
98	135	1
64	64	2
106	108	3
140	140	2
101	101	4
6	22	2
115	177	2
104	104	1
4	5	2
165	165	1
176	176	1
81	81	1
164	164	2
142	142	2
56	65	1
184	184	4
27	73	1
182	207	2
19	19	6
20	20	2
46	46	4
122	122	2
199	213	3
72	113	1
215	229	1
177	177	4
75	75	4
3	3	5
223	241	4
88	88	1
160	160	3
18	18	1
29	29	2
178	178	1
199	200	1
34	56	1
36	36	5
224	224	2
103	103	5
7	7	1
126	126	1
157	159	2
43	44	1
116	116	1
86	169	1
133	209	2
217	222	1
178	179	1
208	208	1
59	59	2
183	208	2
82	83	2
121	121	2
116	160	1
140	142	1
52	55	1
124	126	1
225	227	2
186	187	1
59	67	1
62	62	1
32	32	1
200	213	1
58	58	3
137	160	1
161	161	1
165	176	2
192	197	1
123	129	1
26	26	1
115	153	2
221	221	2
1	5	1
49	49	2
89	89	1
114	165	2
147	148	1
220	222	2
4	4	2
50	50	1
190	190	1
12	12	1
22	23	1
123	123	4
9	10	1
162	193	1
135	135	1
116	183	1
3	11	2
95	128	3
103	209	4
122	125	1
137	138	2
16	16	1
195	196	2
40	41	1
198	226	1
225	225	3
170	174	2
203	208	1
139	147	1
215	227	1
110	133	1
2	2	2
58	162	1
145	145	2
0	0	1
133	133	3
171	171	1
226	226	1
148	149	3
40	40	1
228	230	1
139	140	2
151	152	1
158	159	1
2	3	2
204	205	1
68	68	2
32	109	1
167	174	1
102	102	3
109	109	1
31	31	1
115	135	1
193	193	1
99	99	1
59	65	1
214	225	3
32	34	1
220	220	1
143	144	1
233	233	1
136	137	1
100	101	2
58	59	2
147	147	1
78	78	1
30	77	1
23	57	1
70	109	1
234	234	2
198	200	2
37	45	1
83	83	1
44	44	1
100	230	1
