67	67	17
58	115	3
19	19	8
107	108	6
26	26	11
59	59	10
34	89	2
133	229	2
231	235	3
166	166	7
219	233	8
74	74	14
205	205	19
129	238	3
180	180	26
160	160	10
237	237	16
86	86	14
202	202	15
238	238	18
112	112	7
13	54	1
61	85	2
85	88	1
165	168	6
63	63	24
139	146	2
55	55	19
181	181	16
203	203	33
145	145	22
194	194	4
133	133	2
51	53	5
84	84	8
218	218	10
80	80	16
203	204	4
18	68	1
99	105	4
170	171	7
207	232	5
88	88	6
210	213	7
25	25	29
126	127	7
54	55	18
61	61	15
24	161	6
157	157	25
60	62	2
168	168	13
104	113	2
177	177	6
24	24	39
27	27	25
233	241	2
174	174	16
170	189	3
21	21	9
16	16	8
131	131	5
64	64	15
32	32	27
136	136	19
8	8	11
55	116	2
95	109	2
12	22	2
174	175	4
34	34	11
107	107	6
56	78	7
128	128	26
175	175	20
152	152	11
210	210	7
232	232	9
18	18	21
29	31	8
24	66	2
171	171	13
236	237	8
126	139	1
141	141	12
143	143	9
216	216	4
115	115	5
234	234	27
121	203	1
176	177	7
40	40	14
104	107	6
212	212	7
19	78	1
201	201	11
186	187	12
235	236	6
100	100	15
127	127	7
66	66	9
120	121	3
214	216	6
105	105	7
77	79	1
134	134	4
62	62	19
144	147	6
226	227	8
168	190	3
119	119	10
142	196	3
129	218	1
213	213	11
189	197	2
178	178	21
73	74	3
163	168	2
9	9	28
222	222	15
183	186	1
137	137	27
207	208	6
115	117	3
101	101	11
233	233	13
104	104	10
52	54	2
0	0	7
38	38	13
75	80	3
148	149	6
172	172	19
227	227	18
37	37	15
159	159	12
82	102	5
121	157	6
45	46	8
171	172	6
24	25	4
223	225	1
17	18	8
179	180	6
80	83	7
36	36	22
189	189	12
145	146	7
167	191	1
146	204	3
129	129	14
5	5	7
134	135	7
85	85	29
75	75	12
142	142	5
242	243	4
100	101	3
2	5	5
185	185	8
25	73	2
73	75	1
75	77	1
83	83	14
34	35	5
102	102	23
168	220	5
170	170	20
84	85	3
119	152	2
116	116	6
165	166	3
27	28	3
148	148	14
48	49	4
118	118	17
61	62	8
54	54	18
103	103	8
138	138	11
221	223	3
3	3	8
29	243	4
224	226	5
164	164	13
82	85	6
51	51	5
164	201	3
224	225	1
157	160	1
49	49	6
122	122	3
230	230	11
197	197	10
209	219	5
225	225	15
15	15	21
200	200	14
118	125	3
125	208	6
190	191	8
28	28	7
69	69	16
139	140	4
18	76	6
183	204	7
229	229	11
172	177	1
198	198	8
33	33	12
136	189	1
150	185	2
115	128	2
117	126	1
52	53	3
179	179	16
68	68	13
79	79	8
120	152	9
12	12	14
104	131	6
184	186	3
135	222	4
78	78	6
27	85	5
119	171	2
13	13	8
231	231	15
134	177	2
108	108	8
206	206	11
163	213	2
171	218	2
45	45	14
95	114	1
98	99	2
66	68	1
20	70	4
33	34	4
2	3	4
104	126	6
77	77	8
29	29	11
9	10	14
149	208	3
82	83	7
14	79	2
236	236	6
153	194	2
129	130	3
10	11	1
44	44	7
225	226	3
204	204	7
172	206	4
81	81	32
226	226	5
36	40	2
163	163	12
111	111	4
212	224	3
20	198	4
123	123	17
158	240	4
220	220	31
176	176	10
150	150	13
147	147	11
156	218	1
216	225	1
209	220	2
229	230	7
53	188	4
23	23	11
186	186	11
204	206	6
25	70	2
106	106	6
102	106	6
207	207	8
213	222	2
166	191	4
4	4	7
199	200	20
152	184	2
8	11	3
75	79	2
15	49	2
39	39	29
20	20	18
18	67	3
115	213	5
223	223	18
165	165	7
199	199	15
103	129	3
37	74	2
18	78	2
89	89	4
65	68	3
188	188	9
65	65	22
154	155	1
121	121	8
126	126	12
153	186	1
6	7	1
39	40	3
120	120	5
217	218	7
209	209	16
42	42	13
154	154	6
202	203	4
223	228	3
114	114	5
14	15	8
26	27	11
60	60	18
119	177	1
221	221	12
30	30	12
172	173	3
67	68	3
192	192	8
82	82	6
20	160	2
242	242	19
72	72	6
216	224	3
124	124	6
179	208	3
11	11	11
130	131	3
47	73	1
161	161	5
122	139	6
210	224	1
63	64	2
65	66	5
7	7	8
56	57	14
182	182	13
235	235	9
0	1	4
14	23	1
165	167	1
107	122	3
152	183	3
50	50	10
50	155	2
50	51	2
171	206	2
74	75	7
135	176	5
178	187	4
140	141	3
228	228	19
33	83	2
187	197	5
6	6	6
114	198	1
222	230	2
56	65	1
237	238	3
183	184	3
144	145	4
196	196	11
87	88	1
142	147	11
53	53	13
195	195	11
135	135	10
166	168	2
56	56	12
44	81	2
240	240	13
137	138	6
15	16	5
223	226	2
149	149	9
141	187	2
57	59	2
81	84	4
187	188	4
160	161	5
70	70	11
109	109	6
152	177	1
3	77	2
217	217	9
62	86	1
187	187	5
144	144	2
5	6	1
130	130	5
98	98	10
171	234	4
70	71	3
76	76	6
71	71	8
241	241	15
10	10	10
153	153	8
67	85	3
181	182	2
125	197	3
31	36	1
195	199	1
19	20	5
190	195	2
222	223	3
22	79	1
111	112	2
56	58	1
203	205	2
206	207	3
62	63	5
17	17	14
29	30	4
121	160	3
116	120	7
187	193	4
162	162	11
46	237	4
151	151	5
110	241	6
191	191	9
237	239	5
171	178	6
127	201	2
11	13	4
17	69	3
200	201	4
215	215	8
135	136	3
47	55	1
22	22	6
113	113	6
172	205	2
190	190	7
20	43	5
138	211	3
117	117	4
2	2	9
7	8	3
118	182	1
29	42	3
22	24	2
136	208	6
184	184	10
110	110	3
6	16	1
125	125	5
107	119	1
198	199	6
11	12	4
13	16	2
76	78	4
52	230	2
145	203	3
47	47	18
58	59	4
219	219	6
189	190	4
133	170	4
73	73	5
139	141	9
151	152	14
26	63	1
149	151	3
47	128	2
79	80	6
48	50	2
115	118	1
102	103	2
113	126	4
41	45	1
81	82	3
180	181	4
82	84	3
145	153	4
99	99	5
31	31	7
210	240	3
5	8	5
140	140	8
47	75	2
64	70	6
16	44	3
210	227	1
97	97	7
95	95	3
170	241	1
73	237	2
57	57	4
167	189	2
164	168	3
208	208	4
169	205	3
220	229	2
192	202	1
143	148	3
142	143	2
24	44	3
126	131	2
167	167	5
119	124	2
173	173	10
9	64	2
56	66	2
84	102	3
128	133	3
28	32	3
22	30	1
148	203	4
55	88	2
41	41	8
111	161	2
127	197	1
133	211	3
188	189	5
58	58	6
224	224	11
85	86	1
20	161	3
224	230	5
159	195	1
68	108	5
116	119	2
3	9	1
125	186	2
220	222	2
138	208	2
107	126	6
43	43	9
49	52	1
183	183	14
136	209	1
99	107	5
232	233	2
220	238	2
50	53	1
211	212	3
145	148	2
8	80	1
77	80	8
161	162	1
33	238	2
133	217	1
140	187	1
124	131	1
136	192	1
6	13	2
0	36	5
155	156	1
119	120	5
178	179	3
234	240	2
106	119	1
13	15	2
96	96	1
6	14	3
213	227	1
167	168	4
18	22	5
125	191	4
62	75	5
57	58	4
123	125	3
193	196	2
192	196	1
6	22	4
197	198	3
16	17	1
4	5	6
105	210	1
65	69	1
11	49	1
80	81	5
146	147	2
32	61	3
144	207	2
146	146	3
164	165	2
166	167	4
169	169	5
61	100	1
145	147	1
0	79	1
221	222	1
62	74	4
95	102	4
219	238	4
118	155	2
209	225	2
35	36	2
142	156	2
67	108	6
49	72	1
155	155	14
15	81	1
45	54	3
22	119	2
102	125	1
147	148	1
87	87	2
239	239	10
211	211	4
63	65	1
46	46	9
28	82	4
123	124	3
57	68	2
69	70	1
156	156	4
216	217	1
165	214	2
0	12	1
26	39	4
81	83	5
76	119	1
136	144	2
20	55	1
215	216	1
42	45	3
184	185	2
21	118	2
171	239	4
48	52	2
20	21	3
32	42	1
237	240	1
122	131	1
140	151	1
206	208	3
140	198	6
207	222	1
226	230	1
163	165	2
99	100	2
169	220	1
162	163	2
128	237	1
141	142	5
49	83	1
182	238	1
127	179	1
78	79	1
17	19	2
147	150	1
15	43	1
218	220	4
193	193	1
63	114	3
178	198	1
64	85	1
23	24	2
111	182	1
233	234	3
115	211	3
12	15	2
230	231	1
31	34	2
100	105	1
55	56	2
158	161	2
42	43	2
24	70	4
46	109	4
141	152	4
149	150	2
52	52	2
136	147	1
1	56	2
52	128	1
15	44	2
137	210	1
153	184	1
229	231	3
4	21	6
160	166	3
64	65	4
22	29	1
55	61	2
31	77	1
35	41	3
19	23	2
35	35	1
131	177	3
62	69	2
46	75	1
64	71	1
212	217	1
114	115	4
18	19	4
19	77	1
25	153	1
159	160	4
75	114	1
158	158	5
156	157	7
51	78	1
0	3	2
10	157	2
228	230	1
152	178	1
83	84	1
164	200	1
34	36	5
26	109	1
48	54	2
194	195	2
189	191	1
14	155	1
180	182	1
22	23	7
139	139	1
16	83	1
155	240	1
138	188	1
122	126	1
142	157	1
2	6	1
121	122	3
111	160	1
152	153	1
42	44	2
67	109	1
49	50	3
53	230	4
199	201	2
61	78	2
117	118	2
86	116	1
209	223	3
20	162	1
156	158	2
142	155	3
216	219	4
160	192	2
235	237	4
217	233	1
120	198	4
152	182	2
150	151	1
23	80	1
189	202	3
136	204	1
219	226	1
56	60	1
23	75	1
38	63	3
122	201	1
35	108	4
116	117	2
188	190	2
38	40	1
167	214	1
33	82	2
127	128	1
2	7	3
128	176	1
51	52	1
49	230	1
79	83	2
240	241	3
15	18	1
105	156	1
208	219	2
214	215	1
36	41	2
30	109	3
9	11	1
181	223	1
104	105	2
208	228	3
214	214	5
238	239	1
20	42	1
239	240	1
209	213	1
172	236	1
223	224	1
79	84	1
25	27	1
72	85	1
68	69	1
50	65	1
187	198	1
199	226	1
132	133	1
116	160	1
44	45	1
32	34	2
190	200	2
7	80	1
220	224	2
40	41	1
180	202	1
123	140	1
42	62	1
133	208	1
24	75	1
169	172	1
29	108	1
185	186	1
31	78	1
18	20	2
191	192	1
196	197	2
200	213	1
162	213	1
146	208	1
1	1	2
92	92	3
21	40	1
14	118	1
185	195	1
115	116	2
7	67	1
47	52	3
48	48	1
19	31	1
21	22	5
131	134	1
128	157	2
241	242	2
114	120	1
52	132	1
32	82	1
116	159	2
123	139	1
95	108	1
219	240	1
8	65	2
138	210	2
167	190	1
54	111	1
7	10	1
109	113	1
177	178	4
6	72	1
226	228	1
77	78	1
227	238	1
114	118	1
61	63	1
129	217	1
116	141	1
108	111	1
5	13	1
129	209	1
141	186	1
95	106	1
36	42	1
209	221	3
49	71	1
233	242	1
183	207	2
172	235	1
12	13	1
161	216	1
190	194	1
124	134	1
135	185	2
14	14	1
221	231	1
136	201	2
140	156	1
17	81	1
26	114	1
188	194	1
43	44	1
187	215	1
133	134	1
55	60	1
80	84	1
127	150	1
103	128	1
228	229	2
47	74	1
55	70	1
128	209	1
132	187	1
191	196	1
101	115	1
125	126	1
28	102	1
71	73	1
14	16	1
191	213	1
149	179	1
12	68	1
75	78	1
156	240	1
