116	116	2
42	42	5
26	29	4
58	58	11
132	132	8
30	30	6
8	8	4
93	93	7
102	125	1
122	122	7
17	17	2
61	102	2
106	106	9
35	35	7
11	39	2
130	130	15
11	41	1
6	6	6
108	108	5
87	113	7
11	11	6
5	47	2
67	72	1
57	57	15
82	82	9
22	24	3
90	90	6
86	86	8
59	92	2
68	68	17
82	83	5
72	72	6
66	67	2
46	46	6
103	128	1
62	62	4
46	48	3
5	6	4
120	120	6
131	131	13
87	110	4
110	110	12
126	126	4
127	127	5
15	18	4
86	125	2
18	19	3
66	66	9
79	79	7
50	50	9
100	104	1
38	38	4
74	74	6
55	55	2
22	22	4
36	36	3
27	29	2
3	90	2
70	70	8
118	118	7
27	44	2
86	109	5
126	131	6
124	125	3
11	34	2
102	118	1
6	30	4
85	85	16
37	37	2
112	112	13
102	102	5
47	47	9
82	124	3
14	17	4
35	36	1
129	129	7
94	94	3
73	74	1
119	123	4
126	132	6
11	40	2
79	132	4
45	73	3
18	18	8
16	23	1
91	91	4
11	12	4
2	2	16
82	87	1
28	44	3
92	92	9
83	84	4
114	114	4
6	46	2
14	15	3
41	42	1
19	19	5
101	101	7
39	39	9
12	19	1
123	124	5
74	127	1
79	131	3
103	124	4
99	103	4
28	35	7
41	41	2
46	47	4
65	65	7
81	81	5
110	111	6
8	36	1
126	133	4
26	104	3
63	63	5
100	101	6
97	97	4
128	128	4
84	84	5
55	56	6
30	73	1
76	76	13
13	13	4
57	99	2
61	119	2
111	111	3
60	60	3
123	125	4
64	64	3
88	111	3
109	109	2
57	115	1
62	63	1
91	92	3
33	33	1
34	35	5
89	92	6
20	21	1
94	116	2
7	7	2
78	128	2
34	34	4
8	30	6
113	114	2
3	25	1
59	59	9
19	21	2
65	66	6
99	106	1
0	0	1
99	99	8
45	45	1
93	115	2
10	11	1
57	94	3
10	10	6
95	96	2
36	41	7
101	102	2
24	50	2
10	14	5
47	48	3
24	24	4
2	23	2
29	37	5
26	26	2
131	132	2
108	121	1
28	70	3
75	76	3
5	117	3
45	119	2
87	87	2
15	15	6
43	43	3
26	27	4
121	121	8
34	36	3
19	27	1
100	100	2
59	93	1
1	40	3
99	105	2
32	32	2
95	95	4
114	116	2
18	48	3
132	133	1
1	15	3
6	45	1
115	116	4
107	107	7
100	105	2
40	40	3
80	80	3
18	117	1
107	108	1
9	9	3
75	75	1
17	48	1
48	50	3
77	133	1
73	73	2
81	128	3
69	69	3
27	27	2
58	114	4
96	96	2
63	64	2
61	115	2
76	126	3
88	113	2
83	83	2
55	57	1
56	96	3
16	16	2
57	95	1
113	113	4
7	73	1
14	14	2
105	105	2
74	133	2
92	93	4
67	67	2
45	120	2
8	28	2
126	130	1
51	96	1
78	78	6
86	88	1
58	116	1
44	71	1
88	89	2
29	29	1
81	82	2
4	91	1
80	81	1
25	25	2
39	41	3
57	114	3
23	23	1
86	103	1
88	115	1
7	74	1
64	65	1
48	49	1
26	40	2
57	97	1
104	104	2
119	119	3
130	131	1
57	113	1
56	99	1
103	106	1
89	89	2
3	17	1
71	71	3
30	37	1
106	107	1
115	115	1
8	44	2
95	115	3
15	26	1
98	98	4
21	24	1
124	124	2
88	110	1
89	90	2
86	108	2
19	23	2
62	81	2
75	134	1
20	20	4
105	107	1
81	83	2
62	79	1
117	117	2
134	134	4
86	100	1
44	44	1
79	128	1
21	22	1
82	125	1
1	19	1
55	99	1
18	49	1
61	79	1
27	73	1
61	61	2
57	58	2
21	21	1
79	80	1
103	130	1
81	124	1
44	46	1
14	24	1
78	79	1
11	19	1
12	12	1
103	103	1
84	85	1
129	130	1
