116	117	1
14	14	15
129	129	10
8	8	4
60	60	3
121	121	13
13	13	10
54	54	12
29	29	13
92	125	2
68	68	10
118	118	6
124	125	4
5	5	12
18	18	6
90	91	5
58	59	3
94	94	1
47	97	1
34	34	5
51	51	12
120	120	7
17	18	6
85	86	5
89	90	8
85	108	3
22	22	7
98	98	2
73	73	4
76	76	4
69	70	2
2	90	3
0	1	2
4	4	8
49	130	1
9	20	2
47	63	1
77	77	7
9	54	2
88	88	11
96	96	3
72	72	10
84	84	3
113	130	7
42	42	6
16	16	8
20	21	1
34	102	1
91	95	3
13	28	1
24	24	6
75	75	7
52	52	12
122	122	11
33	33	7
104	104	8
11	11	6
107	107	12
80	80	13
103	103	9
127	127	4
25	26	6
16	18	2
49	49	16
91	92	10
114	114	10
32	42	1
40	71	2
125	125	12
53	53	8
116	116	5
24	70	3
109	109	7
55	58	5
64	68	4
11	48	3
109	110	3
81	81	4
55	73	1
74	77	4
105	105	8
23	23	8
115	116	6
128	128	9
41	42	2
102	102	8
108	130	2
85	93	6
60	108	3
124	124	5
65	65	6
115	115	6
61	106	2
68	69	2
106	106	7
66	66	10
0	0	5
45	46	3
46	92	3
6	6	6
113	113	6
56	56	10
48	78	3
17	17	5
115	119	2
12	30	4
50	50	7
76	77	2
53	122	2
117	119	2
44	44	4
61	61	4
63	64	2
115	118	3
59	74	6
28	29	3
82	82	4
87	88	1
93	93	10
88	89	4
94	123	3
6	7	2
26	85	3
30	30	2
4	46	4
60	62	4
102	117	5
7	15	1
112	112	3
83	84	8
2	2	7
67	68	5
81	125	2
130	130	6
43	125	2
91	91	9
77	78	1
7	20	2
92	92	9
26	26	7
6	58	3
3	33	4
54	58	5
82	83	7
19	19	6
30	32	2
7	7	5
25	123	2
45	45	1
62	63	1
25	92	1
83	83	6
1	1	6
88	97	3
47	98	4
97	130	3
85	128	2
59	59	2
11	19	1
108	108	5
56	63	5
58	58	4
99	99	4
64	64	8
117	120	1
10	10	4
110	110	2
89	89	3
101	101	4
95	95	3
46	103	7
96	99	2
47	62	3
40	60	2
125	132	7
85	85	9
48	48	1
47	47	7
43	43	3
57	57	8
86	86	5
61	117	2
98	99	4
64	117	1
22	26	3
27	27	4
78	118	1
70	70	6
85	96	2
78	79	1
62	108	1
40	43	4
54	111	4
103	104	2
21	21	8
108	128	1
62	75	2
26	91	1
38	66	1
72	73	1
117	117	6
29	30	6
22	24	3
69	69	3
65	74	4
49	99	1
11	12	1
104	128	1
55	55	5
119	120	1
118	130	2
19	21	2
24	25	2
44	48	1
18	19	2
8	54	5
132	133	1
71	80	1
82	111	1
40	91	4
4	42	2
73	86	1
114	120	3
111	111	5
21	24	2
118	124	1
40	89	5
60	61	1
86	117	1
46	47	3
41	43	3
71	71	2
45	100	1
90	90	2
71	100	5
49	112	3
7	19	2
80	81	2
118	129	3
3	3	3
9	12	2
71	130	1
71	108	2
39	93	2
120	125	1
45	47	2
72	74	4
100	119	2
55	63	2
104	107	8
27	28	5
23	43	2
101	106	2
3	4	1
20	20	2
107	109	1
6	133	1
101	102	2
15	15	2
99	100	2
40	92	3
127	128	2
100	100	6
123	124	2
74	74	2
117	131	2
126	126	3
111	112	1
131	131	1
1	2	3
129	130	3
87	87	3
73	89	1
121	122	2
96	98	2
16	17	1
13	14	1
0	67	1
43	55	1
5	6	3
116	120	3
114	128	1
54	59	3
93	104	1
4	79	1
38	38	2
66	68	1
126	131	1
12	12	1
113	118	1
60	103	1
105	110	1
5	41	1
77	95	2
12	46	1
92	93	1
71	124	1
112	117	1
63	72	1
43	47	1
23	44	1
31	125	1
114	132	2
51	121	1
127	131	2
64	93	1
87	97	1
9	9	1
70	130	1
111	131	2
62	66	1
6	38	1
49	98	1
49	68	1
66	75	4
24	31	3
51	52	1
126	128	2
120	128	1
22	113	1
13	15	1
40	41	1
70	110	1
9	10	1
70	97	2
11	33	1
104	105	1
13	94	1
62	128	1
14	27	1
97	97	2
2	91	1
90	132	1
75	78	1
66	99	1
126	127	3
132	132	1
14	17	1
102	104	1
8	9	1
39	39	1
99	103	1
67	107	1
28	31	1
25	25	1
44	46	1
123	123	3
113	114	1
60	107	1
65	66	2
70	71	1
46	96	1
40	40	1
85	109	1
84	85	1
119	119	2
33	34	1
11	45	1
15	29	1
100	106	1
15	17	1
67	67	1
