116	116	6
58	58	13
29	29	14
113	113	17
22	25	2
18	18	16
90	93	3
127	127	16
97	97	17
58	70	3
65	70	1
98	98	11
61	73	1
6	7	6
93	108	1
35	35	13
85	85	9
10	10	6
53	55	3
56	114	2
131	131	9
43	43	14
21	21	12
100	100	6
127	128	3
95	121	4
106	132	1
2	2	15
101	101	21
86	87	5
44	68	2
27	27	3
45	45	8
118	118	9
84	106	2
43	44	8
61	87	3
59	72	1
114	115	6
64	122	2
64	77	1
134	134	10
50	50	14
126	126	21
108	123	1
99	103	3
21	32	2
43	85	4
44	44	11
30	32	6
86	86	6
88	88	11
70	70	9
65	65	12
103	104	4
68	68	2
50	107	2
1	4	2
68	76	5
28	28	10
101	102	2
13	15	2
62	62	18
120	120	12
12	12	12
124	127	1
3	3	13
116	118	1
8	8	16
71	75	5
57	58	4
16	16	15
87	88	10
48	48	4
119	127	5
96	97	5
47	62	2
63	63	15
20	33	9
124	124	9
94	94	8
30	30	18
105	105	12
9	11	8
91	109	2
71	71	16
75	134	1
126	129	3
49	49	4
29	36	1
59	59	14
130	130	15
37	38	2
114	114	7
115	115	19
36	37	3
15	15	12
73	73	19
82	97	5
79	79	11
83	83	14
84	85	7
83	132	1
76	76	31
28	34	2
20	20	2
119	119	12
56	57	6
57	57	8
49	67	3
43	57	1
47	47	6
56	56	10
95	95	20
9	65	1
92	93	2
83	84	5
121	121	18
13	13	5
109	132	4
80	97	2
7	7	13
111	111	5
132	133	2
84	84	6
67	67	6
117	125	1
14	14	19
17	17	9
69	79	1
31	32	5
8	36	3
23	23	7
83	97	2
109	109	9
55	59	8
56	59	2
24	24	12
53	53	10
70	73	1
72	72	5
75	75	14
3	4	3
82	82	11
124	125	3
110	110	9
64	64	8
25	30	2
95	96	5
92	92	6
84	98	1
104	104	8
22	24	1
2	3	6
131	135	2
13	17	2
22	29	1
19	43	2
36	36	3
108	108	8
7	11	1
89	90	2
70	76	3
108	133	2
75	77	2
66	66	12
11	12	5
23	24	8
26	26	15
45	48	3
52	63	1
25	25	13
61	62	2
49	83	1
87	106	1
69	70	1
91	91	14
63	101	5
78	78	8
22	22	11
80	80	9
19	20	3
69	69	4
103	103	21
32	32	12
123	123	11
1	15	2
69	97	6
6	6	11
55	55	9
119	120	10
118	126	1
68	97	3
11	101	2
4	18	3
62	90	1
71	91	1
31	31	6
43	65	2
11	11	7
93	94	3
50	52	3
128	129	4
132	132	15
129	129	11
27	30	3
75	76	3
55	57	7
74	74	9
9	9	8
7	10	2
34	34	12
122	125	3
117	117	9
63	115	1
130	131	2
81	81	4
19	19	7
61	61	7
90	90	17
125	127	2
6	32	2
109	127	2
38	53	5
57	66	2
81	82	8
133	134	1
93	100	2
115	119	3
70	71	3
80	98	1
4	5	4
23	58	2
110	114	5
14	76	1
6	12	2
5	7	1
106	106	11
116	128	2
94	112	2
15	75	3
112	132	2
20	35	1
12	31	2
98	101	2
82	83	4
99	104	3
90	113	2
75	102	1
27	37	3
112	113	3
135	135	2
84	89	1
66	68	7
11	22	1
62	71	1
107	107	13
115	120	2
47	79	3
122	122	8
33	33	9
52	52	8
20	34	1
11	19	3
128	128	7
125	125	7
74	78	2
67	76	1
76	128	1
89	89	5
131	132	3
13	74	2
59	60	5
97	127	1
129	131	7
121	125	2
113	126	4
95	100	4
44	48	3
127	135	1
126	131	1
16	17	1
71	77	1
99	99	6
106	107	7
94	99	1
20	24	3
37	55	3
42	52	1
78	106	1
60	60	10
93	93	6
80	81	3
77	77	22
42	59	1
49	52	4
9	64	2
98	99	3
73	81	1
4	4	10
71	126	3
12	13	1
12	14	3
109	110	1
25	37	2
121	124	1
87	97	2
65	75	1
102	103	7
94	103	1
102	102	8
5	5	2
109	111	3
98	108	3
131	133	5
23	57	2
34	35	2
12	33	2
106	113	1
6	8	1
49	50	8
31	33	3
52	80	1
38	63	1
10	26	2
67	69	3
5	54	2
121	122	5
89	96	2
64	78	1
23	47	2
82	85	1
27	35	1
54	55	9
76	93	1
43	60	1
112	112	3
58	76	3
122	123	7
116	120	5
3	5	3
61	81	2
14	15	1
21	23	1
60	117	1
38	38	3
37	43	1
52	62	2
104	123	2
33	34	4
99	120	2
0	0	4
99	100	3
99	124	1
77	92	1
25	64	3
9	10	2
69	92	2
110	130	2
19	34	2
35	48	1
52	81	2
105	124	1
106	115	1
5	67	2
82	87	4
85	100	2
76	77	2
7	13	1
121	123	3
95	98	1
25	26	5
74	123	2
61	85	2
104	135	1
90	102	2
130	133	4
84	100	3
85	86	4
111	118	1
30	88	1
6	57	2
25	29	1
28	29	2
1	1	1
58	77	3
98	100	2
102	120	1
15	17	1
72	73	1
128	134	2
88	97	1
123	124	5
35	75	3
128	133	2
54	54	2
91	123	2
43	48	3
60	62	1
105	114	1
100	127	3
133	133	10
85	113	1
79	106	5
65	69	1
9	58	1
57	64	1
42	48	1
50	83	1
22	63	1
7	58	3
77	78	1
22	33	1
108	113	3
82	86	2
18	20	2
32	33	2
105	123	1
30	33	1
87	87	4
79	115	1
56	113	1
0	14	3
111	130	1
55	56	1
88	91	2
35	37	1
84	107	6
98	109	2
107	111	2
80	89	2
98	120	1
106	108	2
10	47	2
87	96	1
3	7	1
123	127	2
90	111	1
52	53	2
35	36	1
43	78	1
7	37	1
22	23	1
96	96	5
74	79	2
36	45	1
52	78	1
2	36	1
69	94	1
111	113	1
104	105	1
103	126	2
78	108	1
71	72	1
53	68	1
44	52	1
99	102	1
47	70	2
11	15	1
60	63	2
116	121	4
104	126	1
85	115	1
45	47	1
28	36	1
2	10	2
125	134	2
56	63	1
67	68	3
50	84	1
108	110	2
42	83	1
92	96	2
18	30	2
70	102	2
88	120	2
11	23	2
51	81	1
30	34	1
130	132	2
18	19	1
99	119	1
8	19	1
94	134	4
24	26	1
10	11	1
107	131	2
90	91	1
105	112	1
53	99	1
81	93	1
86	103	1
93	112	3
73	126	1
85	87	2
59	70	2
115	118	1
128	130	2
54	66	1
25	31	2
43	115	1
11	27	2
42	50	2
33	45	1
70	129	2
62	63	2
51	62	1
64	84	1
13	14	1
82	84	1
62	74	1
110	127	1
1	2	3
0	3	2
0	9	1
76	134	2
64	124	1
23	25	1
30	45	1
68	87	1
127	129	1
13	23	1
65	66	1
60	82	1
7	8	1
100	125	2
26	27	1
114	132	1
107	132	1
9	33	1
50	61	1
106	130	2
28	54	1
96	126	1
116	117	2
26	37	1
119	122	1
74	75	1
95	120	1
15	101	1
91	120	1
89	99	1
97	98	1
47	56	1
64	90	1
55	114	1
96	104	1
63	100	1
92	95	1
7	9	1
91	92	1
106	112	1
128	131	1
