148	163	11
125	126	10
161	162	10
20	22	3
154	154	28
124	125	8
152	153	7
151	151	22
148	148	15
31	31	11
149	164	1
44	44	21
76	76	21
132	133	5
50	50	20
61	61	15
110	110	17
109	110	3
71	71	16
45	45	26
62	62	11
174	174	11
102	144	6
112	112	7
102	102	7
104	104	24
9	9	12
178	178	13
56	56	17
150	154	1
119	119	14
101	101	14
55	61	3
23	26	3
94	94	9
152	152	20
6	6	20
1	2	8
23	23	13
131	131	10
8	11	1
105	107	2
128	128	7
117	118	7
142	142	15
179	179	16
95	95	18
84	84	14
162	162	17
146	146	9
19	19	14
65	65	5
18	19	4
143	143	8
144	144	22
59	59	8
80	80	19
87	88	8
61	62	4
150	150	9
8	9	5
54	54	12
71	74	3
155	161	2
138	159	5
142	144	4
140	140	17
103	103	12
27	27	11
81	81	10
10	11	3
133	172	3
5	23	11
66	67	4
164	164	4
35	35	20
167	167	18
171	171	9
173	173	13
126	126	14
66	66	19
113	114	3
112	132	3
14	14	17
24	31	1
144	146	1
63	66	2
134	173	2
125	125	6
136	136	4
39	67	2
52	52	5
32	33	4
62	83	5
103	107	9
33	33	14
163	163	26
150	162	5
20	20	10
42	42	23
64	64	23
18	18	22
43	52	4
96	96	20
53	53	10
88	88	20
10	10	15
54	55	12
5	22	3
107	108	1
30	30	7
145	145	6
150	151	3
91	94	11
90	93	2
72	72	5
21	22	6
165	179	3
74	75	5
60	60	9
172	173	12
5	10	3
25	26	5
41	41	4
44	45	19
37	37	10
71	73	5
32	38	2
32	34	9
141	141	14
78	78	6
66	76	1
133	133	12
172	172	10
134	134	14
82	83	5
25	39	3
106	107	7
116	159	1
97	97	11
12	12	7
20	21	12
113	115	4
111	113	3
155	156	13
98	98	9
72	73	6
99	99	3
13	13	19
63	64	12
166	166	6
127	127	12
120	120	16
3	3	8
129	129	10
68	68	10
110	111	9
159	159	19
40	76	4
13	14	6
170	170	26
156	156	5
177	177	5
91	92	3
36	36	4
24	24	8
115	117	2
5	5	9
142	143	11
67	68	5
139	140	3
118	118	7
3	79	1
41	65	3
16	17	1
123	123	18
100	100	8
1	1	11
138	138	16
40	40	6
168	169	5
38	41	7
21	21	1
58	59	4
66	80	10
114	115	10
25	25	8
109	130	6
15	15	14
43	44	6
74	74	11
147	147	13
21	33	7
32	37	5
81	94	2
118	119	8
27	28	6
167	169	1
90	91	4
95	101	8
35	36	2
115	131	4
114	114	10
92	92	8
136	170	3
55	55	11
137	156	4
68	96	3
63	63	14
75	76	11
19	22	5
6	7	5
140	141	5
62	63	6
8	8	13
116	116	8
17	17	9
160	160	21
103	118	4
91	91	16
165	165	9
57	57	13
155	155	7
99	103	2
123	125	4
19	20	10
135	136	7
153	154	7
84	105	5
6	10	3
58	58	20
12	14	4
39	76	2
124	124	4
113	113	9
11	12	2
93	93	10
128	129	3
29	29	13
37	38	6
88	91	2
67	67	8
41	42	5
165	166	7
49	50	11
171	172	3
24	38	3
2	98	4
108	108	8
77	78	6
137	137	15
86	86	10
167	168	11
127	128	7
76	77	4
107	115	2
116	119	5
93	95	4
96	97	12
130	131	6
39	39	10
28	31	2
36	38	3
99	100	4
38	39	1
73	73	21
176	176	8
71	72	1
38	38	13
11	11	14
151	152	4
160	161	1
52	53	2
126	127	7
168	168	7
26	32	2
26	31	5
82	82	8
22	22	9
169	169	6
10	12	6
4	33	1
123	124	9
103	104	3
122	123	3
26	26	11
90	94	1
134	136	6
22	23	2
80	81	12
51	51	13
135	135	6
4	32	1
89	89	8
148	149	6
158	158	11
81	96	6
32	39	5
111	111	7
63	82	1
176	179	3
109	109	12
17	18	5
135	137	3
17	20	1
68	72	6
46	50	3
103	117	3
68	70	1
23	24	5
106	138	2
117	117	9
26	27	2
57	59	6
132	132	8
163	164	7
5	6	3
15	17	3
84	85	6
138	139	2
79	80	1
68	71	4
2	2	8
146	147	2
157	158	11
4	24	2
43	51	4
136	137	1
79	95	6
30	31	5
171	177	3
88	104	4
115	116	3
65	66	5
56	59	2
107	107	7
175	178	2
105	106	4
93	94	3
19	21	3
28	28	10
18	20	2
106	106	13
104	105	5
43	43	18
180	180	8
110	114	1
15	16	2
16	16	1
23	29	2
62	86	3
137	138	4
112	115	1
116	131	1
149	149	11
105	124	1
0	1	4
88	89	1
85	86	2
17	19	1
83	103	3
148	159	2
173	174	5
179	180	3
121	122	4
131	132	1
169	170	3
108	109	11
40	75	2
16	18	2
98	99	5
96	98	7
26	30	3
95	96	1
56	57	5
60	94	2
59	109	4
122	122	2
49	49	3
161	161	2
119	122	1
149	168	1
90	90	9
112	114	3
32	32	6
14	15	1
33	34	3
89	90	1
115	115	4
85	85	5
113	143	1
37	41	2
95	118	1
151	153	4
61	91	2
55	60	3
120	121	7
87	87	4
171	173	1
36	37	3
83	86	2
158	159	5
1	3	1
150	161	2
23	25	3
79	79	2
149	150	5
101	102	2
117	144	2
116	132	2
117	141	1
139	139	14
107	131	2
2	3	3
62	64	1
105	105	1
174	175	1
7	8	3
175	176	3
105	118	2
153	153	4
15	19	2
170	171	2
126	128	5
24	25	6
102	103	1
103	105	3
86	88	3
147	148	2
108	110	3
24	26	1
73	74	1
143	144	3
6	11	1
129	130	5
163	166	1
83	83	10
83	89	2
4	4	3
135	170	2
52	54	3
9	10	1
12	13	3
130	130	5
178	179	3
81	93	1
5	11	2
112	116	2
117	119	2
138	167	2
95	102	5
23	30	2
92	93	4
24	33	3
157	157	3
53	54	1
25	38	2
34	35	5
144	145	1
141	142	2
77	77	2
22	24	1
166	167	4
1	68	4
160	162	1
41	77	3
142	145	4
56	63	1
10	13	3
28	30	1
83	99	3
99	105	1
85	87	2
133	134	2
21	36	1
101	118	1
115	132	2
55	56	6
99	102	1
89	102	1
33	38	2
155	160	2
159	160	1
146	165	2
56	58	1
39	74	2
80	82	2
141	180	3
42	43	1
74	76	2
101	117	1
3	4	3
0	133	1
127	130	1
89	125	1
6	29	2
100	102	3
105	109	3
39	40	1
81	82	3
136	171	1
116	117	1
88	126	1
97	98	1
121	121	1
100	101	1
86	87	2
140	143	2
23	31	2
108	129	1
71	97	1
58	61	2
102	118	1
71	81	1
2	4	2
51	55	1
40	77	1
106	108	1
75	75	1
123	131	1
175	175	1
137	169	2
67	81	2
6	9	1
40	42	1
88	127	1
90	122	1
137	154	1
82	96	1
