92	122	3
42	42	5
112	112	9
134	134	1
26	26	5
150	150	13
154	154	6
114	114	4
61	61	5
74	74	13
53	53	9
9	9	5
132	133	3
78	78	2
65	65	4
62	62	5
119	119	4
29	29	5
135	135	2
100	101	4
62	146	4
3	3	6
34	34	1
167	167	3
82	84	8
30	31	5
110	110	3
123	126	3
176	176	5
86	86	1
17	17	8
114	165	2
133	133	5
117	118	1
78	79	3
81	170	2
175	175	5
77	78	3
56	56	3
120	121	1
18	18	6
112	159	4
32	33	6
145	145	9
58	161	2
125	126	1
90	91	1
60	130	2
140	141	5
40	40	5
95	95	1
94	98	1
61	128	2
39	45	2
104	104	4
72	72	2
113	161	3
103	104	1
94	128	2
45	45	7
28	28	3
179	179	4
111	111	7
130	130	1
123	123	3
60	129	4
81	81	2
121	121	2
34	35	2
118	118	1
109	109	10
91	92	6
36	36	7
141	141	3
139	154	2
23	23	6
11	11	3
30	32	1
93	93	3
16	16	7
126	130	5
113	113	3
147	160	2
158	158	2
137	145	6
109	132	1
87	87	4
172	174	3
15	15	2
5	10	3
52	53	1
178	178	3
94	94	3
106	106	1
105	106	7
149	149	4
139	140	2
75	75	4
135	139	3
102	102	3
160	160	3
136	137	2
24	24	6
92	92	6
112	148	2
65	66	4
111	112	3
180	180	1
101	105	3
172	172	7
80	81	3
133	134	3
5	5	4
61	62	4
13	19	3
21	21	3
71	72	3
159	159	1
87	133	3
88	89	1
105	105	4
27	28	1
32	32	2
117	117	2
51	51	3
99	100	4
36	37	1
107	107	2
163	164	1
43	43	3
131	131	3
71	71	3
12	12	1
81	84	1
155	156	1
36	38	2
15	30	1
5	19	1
37	37	2
9	10	5
153	153	5
170	171	4
53	167	2
165	165	6
169	169	6
68	158	1
91	91	1
103	103	1
165	166	1
177	177	1
174	176	2
14	19	1
90	90	2
30	40	2
156	156	1
171	171	1
124	124	2
26	28	3
14	17	1
136	154	1
60	146	3
171	174	1
122	122	4
140	140	1
168	168	3
50	51	2
128	128	2
70	71	2
114	115	1
93	128	1
96	96	3
67	67	4
59	60	4
56	110	2
39	39	3
89	90	1
98	98	1
130	131	1
90	132	2
56	111	1
127	127	1
12	13	3
115	117	1
50	50	3
54	54	1
57	57	3
144	145	1
130	133	1
110	123	1
35	35	2
92	93	1
157	157	1
25	25	1
157	158	2
68	68	2
70	78	2
159	160	2
89	89	1
14	16	1
175	180	1
27	27	1
126	127	2
173	173	1
14	14	1
73	73	2
55	55	2
20	20	1
90	127	1
77	77	1
142	145	1
36	44	1
126	131	1
76	77	1
52	52	1
5	6	1
83	83	1
31	31	1
132	132	1
79	80	1
123	125	2
122	127	1
163	165	1
107	108	1
19	20	1
54	168	1
1	2	1
97	97	1
76	76	1
55	168	1
13	38	1
151	151	1
