106	108	2
4	9	2
129	129	4
30	30	2
39	40	1
28	28	1
25	25	3
63	63	4
66	88	3
3	3	1
94	94	4
72	74	2
105	106	5
91	91	2
96	96	9
76	77	2
66	67	4
111	111	5
132	133	4
63	64	4
23	24	5
14	14	2
34	54	1
15	15	4
47	47	12
20	20	3
31	31	3
46	46	5
50	50	2
114	114	6
75	77	1
115	116	2
62	63	9
11	11	6
6	6	3
122	122	5
17	17	4
91	92	2
119	119	6
55	55	7
49	78	2
120	120	4
57	58	1
56	57	5
130	130	2
44	44	5
92	92	3
2	2	4
21	21	1
40	40	2
99	99	1
116	116	1
71	72	4
23	23	9
54	55	2
32	32	3
61	61	4
63	81	1
33	55	6
7	46	6
78	78	3
45	45	4
86	86	5
100	100	2
106	106	4
68	70	1
83	83	3
43	45	2
105	105	4
39	39	3
88	89	4
107	107	2
71	71	1
129	130	2
49	49	3
103	103	5
125	125	5
95	96	3
27	27	3
11	15	2
38	40	2
131	131	5
93	93	1
11	13	1
66	68	2
74	74	6
48	48	2
47	48	2
99	100	3
78	79	1
76	76	4
47	76	1
90	90	7
51	52	2
97	99	4
104	105	3
8	8	3
15	44	1
10	11	1
26	26	4
0	0	1
41	42	5
18	19	3
66	66	2
42	43	3
4	4	1
82	82	1
80	80	1
64	81	1
43	43	4
58	58	5
57	78	1
52	52	5
1	1	3
95	97	1
13	14	1
128	128	1
7	7	1
121	121	6
20	21	3
30	31	4
110	110	1
113	113	2
29	43	1
67	67	3
104	104	2
38	45	2
109	110	3
17	19	1
123	123	2
84	84	3
116	120	1
94	109	1
118	118	2
81	81	1
102	103	2
60	61	2
92	95	3
70	70	2
68	68	1
57	57	1
31	32	2
20	44	2
15	16	1
72	73	2
19	19	1
72	72	3
54	54	3
81	83	1
65	66	1
115	115	2
24	25	1
101	101	1
78	80	1
98	98	2
118	119	1
34	56	1
18	18	1
108	109	2
56	56	2
60	63	1
65	71	1
49	50	2
75	76	1
117	117	1
103	104	1
6	8	1
121	122	1
125	128	2
112	112	4
124	124	1
52	53	1
108	108	1
38	38	1
65	65	1
61	62	1
22	22	2
89	89	1
24	24	1
94	96	1
95	95	1
42	42	1
59	62	1
10	10	1
58	62	1
100	101	1
60	60	1
103	116	1
21	22	1
