2	2	8
143	143	7
140	140	6
137	137	6
125	125	7
15	54	6
35	36	3
58	67	7
62	62	11
136	136	11
118	119	5
61	62	6
53	74	8
80	80	6
129	136	2
34	34	2
32	33	7
135	136	2
13	13	4
35	35	2
15	16	4
9	10	3
49	50	5
102	102	4
70	70	2
3	3	7
118	118	4
27	32	6
24	39	1
66	111	4
77	77	3
48	48	7
92	93	4
73	73	15
99	100	4
2	3	2
89	90	4
29	29	17
38	38	7
77	78	2
61	61	2
60	62	4
48	86	2
119	119	1
65	65	15
128	129	4
1	23	1
119	127	2
119	120	11
72	72	7
141	141	2
5	5	9
55	81	3
47	70	2
25	25	6
90	91	4
107	107	5
126	130	2
12	12	8
134	134	14
15	38	5
135	137	5
100	100	10
116	121	4
97	98	9
72	95	4
27	28	1
40	40	4
49	106	6
66	66	2
19	19	5
18	37	4
92	122	2
4	4	1
0	39	3
138	138	4
11	19	2
89	89	5
67	67	6
48	104	2
96	96	3
96	98	3
9	9	7
105	105	2
50	50	6
130	131	2
133	140	3
101	101	6
19	23	6
51	93	2
121	121	4
28	28	9
52	52	15
37	37	8
120	121	1
136	138	3
111	113	2
66	67	1
10	106	2
110	110	4
71	72	5
82	105	3
31	31	4
142	142	10
24	25	4
54	82	2
85	105	1
116	116	3
57	133	3
60	60	2
74	74	3
8	9	3
43	43	4
18	23	2
58	134	4
128	128	5
106	107	9
54	54	5
25	26	5
55	55	2
5	106	1
117	117	3
20	20	3
57	59	2
50	105	1
132	132	3
49	104	1
58	124	2
114	115	2
47	126	1
59	59	2
93	122	1
78	78	3
10	15	6
105	106	5
30	30	4
115	115	4
75	75	1
133	137	3
133	135	1
6	6	2
90	124	1
69	70	3
27	27	3
42	81	1
105	107	5
10	10	3
122	122	5
0	0	6
34	35	4
0	20	2
26	33	1
60	61	1
51	52	5
23	89	4
74	124	2
41	41	4
134	135	3
78	79	2
69	69	4
95	95	2
16	17	8
109	109	8
131	131	5
112	112	3
4	19	2
135	135	1
76	78	1
132	133	2
145	145	4
47	47	4
18	18	2
94	94	2
85	85	3
92	92	4
42	42	2
33	33	4
82	82	4
57	134	1
0	24	2
25	33	1
36	36	2
22	25	4
95	96	1
76	76	5
88	124	2
26	26	3
1	34	1
144	144	5
24	27	3
61	145	2
87	89	1
122	126	1
110	116	3
51	51	1
83	83	3
88	116	1
48	71	1
57	58	1
24	33	3
96	97	2
37	38	1
86	86	4
130	130	3
90	90	3
81	81	2
72	73	2
56	56	1
87	131	3
12	13	2
53	123	1
51	85	2
16	104	5
84	96	1
57	57	1
79	79	2
121	131	2
26	31	2
40	78	2
68	68	2
32	32	1
71	74	2
138	139	1
102	103	2
76	128	1
69	90	1
24	24	1
3	21	1
33	34	1
46	46	1
1	1	1
47	75	2
70	72	1
83	104	1
53	129	2
4	35	2
40	77	1
99	99	3
39	40	1
88	89	1
109	116	1
141	142	1
58	66	1
69	117	1
129	129	1
133	134	2
16	16	1
114	114	1
123	123	1
111	111	1
53	55	1
56	76	1
71	73	1
11	11	1
