145	145	6
126	126	5
153	154	4
11	15	2
12	14	3
115	115	8
127	127	2
99	99	3
57	57	3
9	9	5
27	27	2
47	47	3
124	131	1
128	128	5
17	17	4
70	71	5
101	101	2
113	113	8
84	85	1
78	78	4
70	70	1
97	98	3
14	14	4
49	49	2
11	11	4
67	68	2
34	37	3
128	129	2
32	33	2
114	114	1
22	23	3
131	133	2
96	96	2
102	102	2
2	2	2
133	133	5
105	105	3
95	96	2
129	141	3
11	13	1
34	35	3
106	106	2
79	104	2
6	26	1
28	28	2
85	112	1
8	8	3
100	100	2
84	118	2
154	154	8
140	141	1
139	144	1
21	21	4
107	107	1
39	40	5
151	151	3
76	76	3
113	114	4
124	144	3
77	78	3
80	81	1
71	72	3
152	154	2
150	150	2
120	122	3
65	89	3
130	130	6
21	51	3
152	152	7
137	138	2
148	150	1
139	139	4
126	127	2
123	123	2
106	107	2
122	122	2
4	4	4
142	142	1
28	29	4
131	131	1
106	108	1
77	77	3
140	140	1
120	120	2
75	75	3
107	108	1
92	92	1
41	41	4
98	99	2
79	83	1
111	111	2
85	85	3
4	6	2
46	46	2
45	45	1
36	37	1
3	3	2
51	51	6
109	109	2
49	63	2
31	31	1
125	125	2
142	144	2
80	84	2
98	130	1
75	85	3
56	56	1
20	23	3
68	68	1
147	148	3
5	5	2
84	117	2
40	41	3
108	108	1
82	82	1
15	15	3
101	102	5
95	95	1
10	10	3
44	44	2
130	140	3
80	94	4
126	128	1
135	135	2
52	52	1
64	65	1
64	64	2
45	46	1
112	112	5
84	84	1
26	27	1
149	149	2
54	54	3
86	86	2
71	71	5
38	39	3
125	126	2
118	118	6
136	136	1
75	79	2
85	114	1
6	25	1
25	25	2
94	94	3
97	97	3
13	13	2
124	125	1
74	75	2
147	147	1
122	123	1
107	139	1
27	28	1
10	14	2
112	113	1
87	87	3
53	54	1
107	119	1
110	110	3
75	77	1
98	98	2
132	134	3
54	55	1
103	106	1
111	114	3
81	82	1
121	121	1
37	37	6
133	134	1
5	37	1
83	83	2
6	27	3
2	3	1
38	40	1
47	70	1
111	115	1
31	32	1
47	63	1
127	144	1
80	80	1
5	38	1
72	112	1
148	148	1
129	129	1
149	150	1
147	150	1
98	100	1
80	136	2
24	24	1
103	103	1
14	15	1
17	18	1
19	19	1
91	93	1
43	45	1
109	110	1
7	40	1
55	57	1
