56	56	5
2	2	12
158	158	2
48	52	2
111	112	6
136	142	2
124	125	1
27	27	4
146	146	2
25	190	2
46	46	2
104	120	5
22	22	2
157	157	4
137	138	2
185	185	1
101	103	1
95	95	4
72	72	9
170	170	1
65	65	5
87	115	1
53	53	5
93	96	1
102	124	3
141	141	3
153	153	1
1	1	3
173	173	2
137	137	2
13	13	2
77	77	7
182	183	3
114	120	1
42	53	1
121	121	2
81	81	3
3	3	4
120	120	2
83	83	2
12	12	7
20	20	6
25	25	6
162	162	1
111	111	2
104	104	1
188	189	4
96	96	2
33	33	6
17	18	2
182	185	2
2	24	1
178	178	6
31	115	2
87	87	2
69	80	1
52	52	2
179	190	1
166	166	3
78	87	1
183	183	3
118	118	4
0	2	1
171	174	2
95	96	1
109	109	3
93	97	5
98	99	3
112	197	1
64	66	2
98	98	2
1	163	4
37	37	5
184	184	5
123	124	1
89	89	3
177	177	2
101	115	1
125	125	4
153	154	1
112	113	1
138	138	4
58	64	1
110	110	2
78	79	2
63	118	3
84	85	2
164	167	4
69	70	1
169	169	3
113	113	5
82	85	1
44	44	4
154	158	2
113	184	2
55	55	1
189	189	3
196	196	4
5	5	3
49	50	5
172	175	3
24	86	1
191	191	3
97	97	2
63	129	1
103	103	2
163	163	1
73	75	1
122	125	1
56	61	2
107	107	2
25	26	2
78	78	2
174	174	2
185	186	3
192	192	6
90	122	2
144	144	4
93	95	5
29	44	2
172	172	3
79	79	2
88	88	2
109	160	2
45	45	5
136	136	3
134	134	7
76	76	1
195	195	1
187	188	1
119	119	4
104	124	2
6	6	4
61	151	1
66	66	1
49	49	2
140	184	4
28	28	3
122	122	4
90	90	1
82	82	3
151	151	4
127	127	3
115	116	1
150	153	1
142	143	2
8	15	4
189	191	1
86	87	1
8	8	4
7	7	2
126	126	4
71	86	1
36	36	1
128	150	3
71	71	2
161	161	1
73	73	1
183	184	1
161	163	1
117	118	1
62	62	2
93	93	1
71	73	2
40	138	2
17	21	2
106	107	1
190	190	2
110	185	1
167	167	2
46	69	3
69	69	1
102	103	1
86	140	2
116	118	5
123	123	2
38	38	1
128	128	3
130	130	2
18	19	4
140	141	1
19	20	1
11	12	1
94	95	2
3	4	3
29	29	1
112	112	4
42	52	1
17	17	2
100	100	2
65	66	2
7	190	3
174	175	1
174	176	2
186	187	1
114	114	2
179	179	4
95	132	1
168	168	1
131	142	1
156	156	1
0	0	1
18	129	1
98	101	1
192	193	3
10	33	1
132	132	1
140	140	2
70	70	1
1	172	1
81	82	1
67	83	1
60	60	1
54	54	1
147	147	2
24	28	2
28	43	1
42	42	1
31	75	1
95	149	1
59	59	1
163	164	1
155	155	1
143	143	1
169	177	1
94	105	1
74	75	1
16	19	1
82	84	2
167	168	1
186	186	1
53	55	1
85	85	1
124	124	1
158	159	1
139	139	1
166	189	1
157	158	1
26	147	1
136	137	1
194	195	1
169	170	1
180	180	1
133	133	2
121	123	1
173	174	1
