92	93	3
187	188	3
34	34	5
0	46	2
144	166	3
148	148	5
174	174	4
64	65	5
47	47	3
20	88	3
71	72	1
53	53	7
110	111	1
2	2	4
54	84	3
114	114	6
185	185	2
13	13	6
170	170	3
29	29	2
3	3	4
72	72	2
91	91	2
19	19	3
57	57	5
103	104	2
181	182	2
41	42	6
165	166	1
90	90	4
33	33	4
79	79	13
96	102	1
106	108	1
6	7	6
155	155	2
82	82	9
90	91	2
149	149	8
34	35	5
117	117	2
163	163	5
84	84	1
160	162	2
35	35	4
85	93	4
18	37	2
27	27	4
184	184	3
156	156	7
118	118	1
86	86	5
110	110	2
113	113	5
12	13	1
136	136	2
141	141	2
137	137	3
19	20	3
169	169	4
166	168	1
88	88	2
148	149	2
131	142	1
127	127	5
157	157	1
55	55	5
108	109	1
186	187	2
92	94	1
158	158	2
134	134	2
120	120	6
73	73	1
67	67	4
29	30	3
52	52	4
139	139	5
159	159	4
161	161	3
183	183	2
24	24	10
98	98	1
0	0	7
46	46	4
65	65	1
27	30	1
40	40	6
28	29	3
71	71	4
22	22	5
136	137	2
83	83	3
62	63	6
5	5	3
119	133	1
45	46	2
122	122	3
138	138	2
171	171	1
31	31	3
74	74	4
128	128	3
100	102	1
145	145	5
30	30	2
125	151	1
180	180	3
53	55	4
177	177	4
92	92	3
17	18	2
80	107	2
21	21	7
10	10	1
177	178	1
70	73	2
108	108	1
160	160	13
178	178	1
189	189	1
142	142	2
38	52	2
38	38	1
94	94	2
179	180	2
36	36	1
164	164	4
88	93	1
7	7	1
53	54	2
54	55	2
71	73	3
175	175	3
77	77	3
104	104	2
5	8	1
134	135	1
2	39	1
23	23	3
142	143	1
11	43	2
186	186	5
61	61	3
96	96	4
15	38	1
140	141	1
24	31	1
28	28	2
61	62	2
70	70	3
20	20	1
17	17	2
103	168	1
153	153	2
101	101	2
78	79	1
146	146	1
16	37	1
146	147	1
155	156	4
87	87	4
32	32	1
126	126	1
167	167	3
55	56	2
100	101	3
164	165	2
165	169	1
152	159	2
30	132	1
109	109	5
171	173	2
122	128	1
69	69	2
75	75	1
97	99	1
147	148	1
21	87	1
78	78	2
74	75	3
66	66	2
89	89	2
143	143	2
123	165	1
152	152	1
103	103	1
43	43	2
4	13	1
171	177	2
105	105	2
15	37	1
125	125	2
58	75	1
15	16	1
48	48	1
171	172	1
184	186	1
123	124	2
119	120	2
22	37	1
80	80	1
15	23	1
25	25	1
160	177	1
55	61	1
176	176	3
97	98	1
115	116	1
63	63	1
103	106	1
159	160	1
58	76	1
11	11	1
4	5	1
91	97	1
6	6	2
4	4	1
129	129	1
94	187	1
68	70	1
119	119	1
154	154	2
111	112	2
150	150	1
182	184	1
58	58	1
111	111	1
103	169	1
5	12	1
43	44	1
