135	143	2
37	70	1
8	8	13
113	113	10
53	56	2
129	129	3
13	13	12
33	33	5
1	1	15
66	119	3
73	73	3
37	37	7
98	99	8
155	155	16
71	133	3
117	117	5
153	153	6
167	168	3
9	10	2
21	21	10
27	28	4
105	105	10
14	14	7
68	68	6
71	71	8
67	67	4
120	136	3
40	40	10
7	7	4
130	130	16
39	39	9
79	79	8
152	152	6
57	62	1
157	157	5
20	20	4
3	3	4
15	15	10
88	89	4
26	27	3
160	160	7
99	100	5
83	83	11
99	102	2
23	24	6
164	164	4
106	107	12
111	111	5
116	116	6
2	2	3
153	154	2
147	147	12
133	133	10
115	116	4
93	146	4
102	102	16
126	126	2
158	158	3
88	88	2
82	83	1
98	154	3
127	127	3
93	95	3
45	45	1
116	117	4
92	92	3
87	89	3
159	160	2
97	102	1
10	11	3
34	34	7
85	85	7
103	103	9
135	135	7
142	142	7
75	75	4
4	4	8
1	17	5
27	27	1
38	38	5
140	140	7
167	167	12
84	84	10
114	114	3
124	131	2
66	66	6
156	156	22
120	120	3
36	36	4
169	169	6
11	12	1
108	108	6
56	56	6
139	140	2
160	161	2
64	64	2
95	96	2
22	23	8
19	19	10
44	44	3
70	70	2
0	0	5
157	161	1
87	87	2
3	4	2
78	78	8
84	121	2
165	167	1
100	100	4
48	48	5
126	127	4
169	170	2
52	55	2
91	161	1
131	131	9
12	12	5
137	138	2
149	168	6
149	150	1
157	158	3
42	42	6
93	93	5
89	89	4
115	115	4
90	94	3
96	131	1
22	45	2
64	68	3
65	66	11
47	55	2
74	74	3
65	65	7
43	43	8
121	121	9
134	143	2
96	97	4
102	105	2
94	94	2
109	110	2
124	124	4
155	162	1
151	151	7
134	134	3
106	106	3
26	26	6
163	163	2
72	72	3
53	53	4
99	160	1
68	69	2
122	122	4
23	23	4
105	106	6
55	55	11
132	132	8
89	149	2
149	149	6
81	81	1
151	152	4
117	120	3
165	166	4
77	115	3
43	47	2
34	35	3
128	130	1
53	54	3
91	91	2
91	92	1
135	136	1
5	5	2
41	41	4
64	65	1
11	13	1
91	122	4
89	94	3
49	49	14
98	98	5
123	131	3
150	152	3
70	77	1
156	159	2
155	156	3
52	52	2
22	24	4
136	142	1
98	153	1
119	119	10
97	97	3
24	24	6
73	74	1
47	47	5
137	137	6
170	170	3
154	154	3
163	164	3
145	146	1
132	133	1
143	143	2
136	136	4
69	69	2
95	95	2
97	98	1
40	41	3
74	125	1
55	56	3
148	169	1
165	165	5
77	102	3
5	6	5
143	145	1
122	123	4
145	145	5
168	168	5
17	18	3
156	157	3
139	142	2
98	105	2
129	130	2
75	81	3
118	118	3
118	119	1
62	62	2
121	122	1
128	128	4
6	6	3
17	41	2
123	123	4
6	7	2
147	148	1
72	73	2
134	135	3
25	25	3
83	84	3
11	11	6
134	138	4
150	150	3
17	17	1
21	24	1
46	47	3
125	125	4
86	86	4
105	153	2
4	5	3
166	166	1
90	111	1
76	76	2
128	129	1
163	166	2
102	104	1
99	99	1
78	160	1
96	102	1
77	160	2
142	143	4
10	10	2
64	80	1
84	122	3
94	147	1
19	64	2
97	105	1
98	104	1
148	150	3
83	132	3
120	121	3
146	146	3
54	54	4
63	63	3
80	117	2
79	80	8
112	112	2
57	57	3
100	101	2
18	24	1
82	132	2
136	137	3
158	159	2
46	46	7
6	8	2
78	79	2
8	9	1
108	151	3
74	75	2
144	144	2
157	160	1
17	49	2
35	35	3
100	125	1
87	88	2
159	159	2
42	43	1
96	96	3
66	67	1
44	52	1
101	101	1
36	37	1
162	162	3
141	141	2
69	77	1
13	14	1
138	139	1
41	42	4
144	145	3
94	95	1
107	107	1
16	17	1
18	19	3
91	93	1
76	102	2
154	155	1
96	104	1
50	51	1
16	16	1
26	28	1
77	78	1
17	47	1
113	142	1
0	1	1
14	17	1
150	163	1
51	51	2
161	165	1
102	103	2
21	48	1
89	90	1
153	160	2
162	165	1
57	81	1
88	144	2
114	116	1
71	134	1
18	141	1
14	15	1
103	104	1
93	150	1
77	77	1
65	80	1
76	77	1
24	25	1
18	20	1
114	137	1
20	22	1
166	167	1
140	141	1
162	164	1
18	18	1
