104	118	2
42	42	12
96	97	11
120	121	3
125	125	16
122	123	9
3	3	29
61	61	22
151	151	17
53	54	7
22	22	14
114	165	2
92	92	20
169	169	23
153	153	34
27	28	8
36	36	31
81	81	26
51	82	5
124	124	11
152	153	1
2	2	17
75	75	19
73	132	1
144	144	21
78	79	20
94	95	14
121	121	46
174	174	43
148	148	24
14	14	22
72	74	5
138	154	4
136	139	3
78	78	23
41	41	22
50	50	21
141	162	1
152	152	11
16	18	1
157	159	8
145	145	25
163	166	2
134	134	25
161	161	11
118	122	4
104	108	2
120	120	19
84	84	14
91	92	7
39	41	2
74	122	5
105	119	1
159	160	4
122	122	14
90	90	27
0	0	24
137	137	19
107	107	29
17	38	5
168	168	15
169	170	6
158	158	15
151	154	5
100	100	8
95	95	12
147	148	4
3	4	4
111	112	4
99	100	14
130	130	10
84	85	9
64	64	26
177	178	9
33	33	30
82	93	5
133	133	20
63	63	13
163	163	38
157	157	13
167	170	5
110	160	3
15	15	15
94	94	22
77	77	15
73	73	19
14	16	3
149	149	18
172	173	12
42	126	2
54	55	8
72	72	24
162	165	2
60	61	10
65	66	9
81	83	2
71	72	4
50	51	7
89	90	11
167	167	21
108	109	3
96	107	1
37	37	37
34	34	5
88	88	24
162	162	19
39	40	7
60	60	23
125	126	3
135	135	26
60	129	1
131	131	14
114	114	21
30	30	15
150	150	12
35	35	33
57	57	19
53	53	20
159	159	20
63	148	4
147	153	5
13	13	10
111	116	3
91	93	4
129	129	19
66	68	5
105	106	6
104	105	9
127	127	20
27	27	25
102	102	26
176	177	3
98	98	15
1	44	1
155	156	15
91	91	18
125	135	7
16	16	21
55	55	18
111	111	20
87	87	23
121	122	19
40	127	3
154	154	13
107	117	3
10	12	3
76	77	8
65	65	20
71	71	25
131	148	1
14	15	1
150	159	4
142	142	20
115	116	6
82	82	23
123	123	19
107	108	10
13	18	4
166	167	6
177	177	13
101	101	17
88	89	14
158	159	10
18	18	16
106	106	39
139	140	6
27	34	4
106	124	3
32	32	14
85	85	12
140	140	31
27	38	1
143	163	1
137	138	3
59	59	9
135	136	15
9	36	8
142	143	8
76	76	19
4	4	16
140	142	7
52	52	28
6	43	3
9	10	6
1	1	19
79	79	25
89	119	1
19	21	4
38	38	29
122	124	4
108	152	2
83	84	9
168	170	1
109	109	11
108	119	1
158	176	7
165	165	22
12	12	10
98	110	5
139	139	21
110	110	24
146	146	30
119	119	14
83	83	9
76	89	3
81	96	4
165	167	6
97	97	27
7	51	2
178	178	41
44	44	12
176	176	20
170	170	39
81	82	9
59	66	8
103	106	3
51	51	9
132	132	7
66	67	12
108	108	22
129	133	2
1	76	2
54	54	16
161	162	2
164	167	1
23	26	5
173	173	26
116	155	3
162	169	4
133	134	6
111	113	3
166	166	20
142	155	2
70	70	5
180	180	17
99	99	6
155	158	1
62	62	10
175	175	18
104	104	13
103	126	4
86	86	11
95	96	6
24	26	8
170	172	1
66	171	5
43	44	13
149	150	9
45	45	22
40	40	15
144	145	6
29	29	9
31	32	8
75	92	3
93	93	19
147	147	17
138	138	18
61	62	7
56	56	18
31	31	18
7	7	13
23	24	4
71	73	2
143	147	1
64	65	4
16	124	5
75	77	1
28	34	1
15	24	4
21	21	4
160	160	13
24	24	30
134	135	8
156	156	25
103	103	26
16	122	2
116	116	24
118	118	10
107	154	1
2	87	5
113	113	16
44	45	2
115	115	26
99	108	2
52	54	3
162	163	13
171	172	12
25	25	16
72	95	5
39	39	14
149	156	2
17	17	14
66	174	4
112	112	21
43	43	28
68	68	13
136	136	18
8	8	14
171	171	16
100	101	4
122	139	4
172	172	19
107	118	2
4	42	3
102	108	1
132	150	2
15	38	6
9	9	24
2	3	19
166	170	3
26	29	1
113	114	5
38	39	13
13	50	3
34	35	5
52	60	1
164	164	16
116	118	1
16	38	5
21	23	6
30	62	1
63	150	3
3	44	3
26	27	4
126	164	2
9	11	2
6	6	15
66	90	3
128	129	10
96	96	12
170	171	9
4	5	1
30	31	7
12	13	6
155	155	21
67	67	14
115	118	2
175	176	5
63	64	6
98	99	2
85	111	2
163	164	2
86	118	1
98	121	8
89	89	17
59	60	8
28	119	1
28	28	11
151	153	1
116	156	2
28	29	7
33	71	1
141	141	14
179	179	22
105	105	18
19	19	4
159	163	2
129	130	6
54	76	4
56	59	1
148	149	2
97	98	6
71	74	6
67	68	1
167	173	5
126	126	14
25	145	1
140	170	3
54	124	1
23	23	5
5	5	10
80	95	4
132	145	6
19	35	2
4	44	2
101	102	10
26	26	5
132	133	5
23	25	1
80	80	24
112	113	3
15	17	2
56	65	3
3	6	2
116	157	1
110	116	2
66	66	4
156	157	6
95	128	2
122	126	3
166	173	5
110	122	1
102	106	1
80	81	5
102	103	4
148	153	8
144	146	3
29	30	4
93	94	4
78	126	2
10	10	10
98	127	2
62	63	1
160	163	3
149	152	6
52	53	15
70	93	2
143	143	9
110	111	4
36	37	7
61	64	5
126	127	8
117	118	9
82	84	2
18	20	2
34	40	5
173	174	3
97	101	1
18	19	5
123	149	3
105	115	2
163	165	6
33	67	2
119	155	7
148	150	2
74	74	16
94	96	2
150	154	3
146	147	5
8	17	1
151	152	10
83	93	2
155	163	4
30	35	1
1	2	6
104	127	1
82	83	5
76	126	4
68	94	1
74	75	1
170	175	1
76	78	5
2	5	3
73	80	3
161	163	1
109	142	2
131	134	2
117	154	1
60	62	1
89	100	4
54	75	3
5	6	5
40	42	1
2	4	4
138	173	2
153	154	1
88	93	2
136	138	2
98	125	1
91	149	4
108	153	4
17	37	4
12	40	2
131	132	4
159	166	5
7	23	2
18	23	3
51	52	1
142	151	1
20	34	2
28	71	1
77	79	3
119	120	3
20	20	7
52	80	2
25	26	2
74	77	1
141	142	6
30	66	2
76	137	1
146	151	1
154	160	5
103	105	2
61	130	4
103	104	10
44	46	1
106	107	5
88	91	1
114	116	3
116	117	7
90	172	2
75	76	6
78	100	1
131	133	2
8	36	3
87	88	6
150	153	3
101	107	1
13	14	1
16	17	6
104	106	2
86	87	2
124	126	3
101	103	1
19	42	3
54	73	2
22	23	4
127	130	2
21	34	1
111	160	2
32	33	11
165	166	5
5	43	2
72	82	3
86	89	5
27	29	3
42	124	2
16	42	3
128	128	5
102	125	3
95	104	1
40	41	5
17	18	7
54	74	4
130	131	3
144	162	2
19	20	7
150	151	2
138	139	1
75	123	2
6	10	3
154	155	1
35	36	3
49	50	3
17	21	2
71	92	3
117	117	14
57	64	2
154	157	1
21	22	6
76	102	4
108	115	2
79	92	1
87	116	2
58	58	5
53	64	4
171	173	5
15	16	4
10	16	4
140	141	3
45	46	1
133	150	2
60	128	3
61	131	3
118	158	1
127	128	1
6	13	5
174	175	3
30	60	2
86	88	3
97	109	1
92	93	8
7	8	5
144	159	1
89	115	2
53	70	4
83	85	2
7	9	2
33	34	2
147	154	2
143	144	2
108	128	1
115	117	2
8	9	3
10	11	2
132	142	1
58	59	1
60	64	2
135	141	3
52	92	3
178	180	5
149	151	1
4	7	1
6	7	1
11	11	2
60	74	2
121	126	3
29	31	1
160	161	3
117	155	2
100	142	1
167	168	2
46	46	2
16	37	1
147	151	1
132	156	1
124	125	8
151	155	2
5	44	1
90	92	3
53	56	1
77	96	1
111	122	2
137	139	1
145	146	2
72	136	1
73	76	1
105	126	5
77	122	2
139	152	3
140	154	2
90	153	1
89	118	3
102	124	1
53	55	1
146	148	2
79	81	1
21	37	2
11	13	4
5	8	5
75	78	1
92	149	1
85	113	2
108	171	1
18	38	1
41	42	2
0	1	2
52	90	1
40	65	1
7	44	2
8	10	1
41	65	1
75	95	1
24	25	2
136	141	1
122	128	2
2	89	2
168	169	4
123	124	1
30	38	1
178	179	2
85	110	1
145	147	1
132	134	2
66	93	2
42	128	1
42	43	1
110	124	1
11	26	1
40	92	4
164	166	1
29	37	1
127	144	3
71	81	1
31	63	1
76	123	1
81	111	1
2	99	1
92	102	1
148	157	1
126	133	1
73	74	2
152	154	1
156	170	1
1	7	1
110	136	1
54	81	1
72	73	2
86	98	3
163	169	1
78	80	1
139	157	2
68	70	2
14	23	1
72	90	1
8	24	1
50	93	1
28	31	1
175	177	3
132	157	1
29	42	1
170	173	1
164	165	2
5	98	3
130	132	1
55	56	1
53	79	2
103	107	1
5	22	1
53	94	2
177	179	2
11	12	1
106	123	2
43	124	2
86	117	1
167	169	1
139	180	1
156	161	2
141	171	1
77	78	1
135	142	1
23	43	1
49	90	1
74	102	1
56	93	1
157	174	1
95	97	1
2	107	1
55	84	1
60	95	1
143	166	1
162	164	1
88	90	1
70	71	1
129	131	1
75	137	1
57	59	1
100	104	1
12	20	1
95	127	1
4	6	1
149	157	1
168	174	1
