143	156	3
152	152	4
38	53	2
85	86	4
124	124	9
70	70	3
87	118	2
39	39	4
71	71	5
55	69	1
150	156	1
7	7	3
15	15	3
56	56	3
16	106	2
128	129	4
165	165	2
24	127	5
94	94	6
5	5	5
163	163	7
16	16	4
107	107	4
124	125	3
40	40	3
75	77	1
37	52	2
36	132	1
57	76	3
6	6	6
17	17	2
169	169	1
75	75	8
53	67	3
156	156	7
96	97	5
65	92	3
125	125	2
9	9	17
148	154	6
144	144	3
48	48	3
125	126	3
4	4	2
76	128	2
63	63	5
85	85	2
129	130	2
52	52	3
61	61	2
56	69	6
99	99	3
128	168	3
49	49	4
142	142	3
88	89	1
9	10	4
36	36	6
103	103	4
104	104	1
162	164	3
130	130	5
142	154	1
140	140	2
126	126	2
8	8	7
89	113	1
139	139	5
72	127	2
135	138	3
4	14	1
127	127	5
1	2	1
21	126	3
45	47	1
144	145	5
41	74	4
155	156	2
143	143	9
128	128	4
117	119	1
64	64	2
25	47	1
50	50	3
84	141	1
98	115	3
112	136	4
38	39	2
38	38	1
21	21	1
85	100	1
113	115	1
124	159	2
2	2	11
95	98	2
74	74	2
58	58	3
146	146	3
130	131	1
71	77	3
87	87	1
143	144	1
80	81	2
164	164	4
147	148	2
22	24	4
100	102	2
162	162	1
134	134	5
3	11	6
109	109	1
148	148	1
129	135	1
134	137	2
127	129	1
143	149	2
11	12	1
104	126	1
143	154	3
5	8	3
122	125	2
153	154	1
4	25	2
51	51	2
166	166	4
129	129	3
14	24	1
40	54	2
66	67	1
6	8	2
149	150	1
84	84	3
92	92	7
22	22	2
45	45	2
160	160	1
38	41	3
25	25	6
135	136	1
168	168	2
93	94	1
147	147	2
90	90	3
168	169	3
114	114	6
16	17	2
158	169	3
67	67	2
42	42	5
21	25	2
1	1	1
116	116	1
117	117	6
97	97	1
69	69	3
155	158	3
161	162	1
151	152	1
56	75	1
68	69	2
113	113	1
72	78	1
39	54	1
106	107	1
101	102	3
74	78	1
21	42	1
146	147	2
14	130	1
20	23	1
145	145	3
24	47	1
155	155	5
17	131	3
102	102	1
97	101	2
121	121	3
71	109	1
57	57	3
115	115	2
33	33	2
15	16	1
151	162	1
79	82	1
161	166	1
69	70	4
19	20	1
103	126	1
46	48	3
88	88	1
167	167	1
65	65	3
152	154	1
107	109	1
107	108	1
96	104	1
57	92	1
119	120	1
120	141	1
138	155	1
18	131	1
11	11	4
141	141	3
54	54	1
144	149	1
100	100	1
24	25	1
44	46	2
105	105	2
122	141	1
35	132	1
120	121	2
10	10	2
86	96	2
23	127	2
122	124	1
72	160	1
39	40	2
101	104	2
56	77	1
80	80	3
24	130	1
150	150	1
27	51	1
99	118	1
131	131	1
53	53	1
17	130	1
41	41	3
103	124	1
87	88	2
55	55	1
5	6	2
89	99	1
74	76	1
36	44	1
12	166	1
1	5	1
90	91	1
34	35	1
17	148	1
158	168	1
55	76	1
140	141	1
33	35	1
63	65	2
26	26	1
153	153	1
158	160	1
28	28	1
146	148	1
56	57	1
123	151	2
120	142	2
148	150	1
0	6	1
8	12	1
62	62	1
92	110	1
2	20	1
95	95	2
62	92	1
91	93	2
66	68	1
67	109	1
161	161	1
159	169	1
82	82	1
112	112	3
67	68	1
143	150	1
101	101	1
0	12	1
20	20	1
53	55	1
86	86	1
73	79	1
128	131	1
162	165	2
93	93	1
83	83	2
99	115	1
103	123	1
3	3	1
18	130	1
46	75	1
96	96	1
