101	101	8
71	71	15
128	129	5
97	98	7
105	105	9
31	32	5
126	133	2
24	26	2
31	31	5
10	11	4
27	27	10
117	120	4
81	81	5
17	17	15
0	1	6
59	59	7
129	129	10
96	97	2
29	29	5
63	65	6
45	73	6
15	19	4
55	55	8
107	107	11
89	90	2
109	109	15
104	104	11
73	73	5
106	111	6
122	122	9
120	120	9
38	38	7
0	0	15
13	13	7
69	69	2
116	116	8
111	112	2
56	56	25
51	51	3
26	26	4
103	103	14
58	58	13
125	127	1
13	14	8
20	53	7
47	47	12
97	97	2
16	16	6
89	94	2
52	53	3
82	82	9
97	99	2
48	49	4
94	94	4
59	60	4
111	111	13
46	76	2
63	63	15
48	48	3
56	95	3
47	67	7
128	128	6
58	59	3
14	15	5
70	101	2
46	47	5
32	32	12
45	46	9
94	95	4
122	125	9
111	122	2
28	28	8
4	5	6
93	94	4
125	125	9
110	110	10
67	67	16
5	6	2
62	62	10
79	79	14
24	28	3
41	42	2
71	103	6
27	29	1
98	98	10
125	131	8
68	69	1
91	98	5
121	121	14
132	132	7
21	22	8
127	127	3
39	45	3
6	6	12
113	113	12
25	26	4
86	86	10
20	58	1
41	41	5
9	32	6
38	39	5
54	55	3
90	90	10
126	126	3
29	59	4
72	76	7
46	80	3
1	1	4
89	89	10
72	72	4
76	76	10
49	49	8
15	16	3
129	130	7
74	84	4
114	114	16
2	2	7
88	88	11
128	131	6
52	52	14
61	64	1
13	55	3
66	66	8
44	77	2
75	76	6
11	11	3
101	102	1
50	50	3
57	58	5
75	75	3
103	117	4
64	96	1
133	133	3
64	65	2
54	54	9
115	116	10
9	10	4
115	115	8
46	67	1
104	105	10
1	2	6
32	41	3
4	6	2
119	119	4
80	88	4
7	7	2
78	78	7
82	83	1
105	110	3
44	45	5
25	25	21
33	33	3
74	74	5
119	130	1
123	124	3
22	23	8
104	114	2
72	77	2
4	4	5
84	84	3
88	89	4
95	95	8
118	119	3
56	57	8
45	45	7
70	72	3
37	37	3
99	99	4
65	66	1
100	100	4
24	24	4
15	72	3
82	85	5
10	12	2
68	68	2
7	8	5
10	10	8
77	77	5
46	48	5
108	108	13
56	110	1
109	121	4
94	96	2
127	128	7
34	60	1
112	112	5
12	12	8
23	53	1
107	113	1
131	132	2
131	131	3
46	46	2
83	83	4
80	80	1
120	121	2
15	15	6
19	19	2
4	52	1
76	77	4
18	19	4
110	111	3
60	62	4
123	123	5
8	8	6
104	106	3
78	85	1
72	83	6
119	131	3
114	115	7
91	91	1
108	109	2
92	92	6
110	114	2
70	70	3
85	85	10
4	12	1
117	117	7
106	106	3
122	123	1
16	20	3
22	69	2
126	128	5
2	3	2
126	127	2
125	128	1
91	92	8
66	73	1
20	20	2
57	57	4
15	17	2
14	14	7
130	131	1
62	63	1
47	73	2
96	96	4
105	106	3
64	64	7
72	74	2
91	93	1
95	96	3
81	128	1
18	55	5
85	96	1
44	44	3
101	103	2
40	41	2
119	123	2
109	110	2
61	61	7
86	97	1
120	131	2
92	94	4
67	68	2
70	71	1
92	93	1
65	65	3
117	123	2
130	130	1
40	50	1
113	117	4
10	22	1
89	91	4
124	124	3
113	114	5
117	121	2
96	98	1
125	133	1
101	104	2
40	40	2
92	97	3
39	39	4
21	21	1
26	27	2
3	3	4
87	88	5
71	74	2
23	24	2
102	102	3
63	75	3
72	85	3
128	133	1
56	132	1
18	18	1
9	9	3
69	70	3
5	5	7
94	98	1
23	23	5
22	24	1
5	52	2
39	70	2
56	58	2
124	125	1
67	108	1
84	85	2
12	22	1
16	18	2
59	62	3
46	79	1
74	75	1
20	21	3
87	87	2
49	65	1
126	129	1
63	64	3
78	79	1
83	84	1
116	132	3
75	77	1
11	107	1
11	12	3
112	122	2
54	112	1
19	56	3
79	80	1
39	46	1
66	67	2
2	4	2
71	86	3
29	30	1
90	91	2
100	129	1
30	30	2
22	22	2
5	23	1
112	113	1
100	101	1
132	133	1
45	80	3
86	87	1
90	92	1
69	72	2
98	99	2
11	21	1
17	18	1
67	73	3
30	60	1
79	89	2
38	43	1
66	72	1
99	100	3
28	29	1
55	103	1
46	85	1
100	118	1
116	117	1
29	31	1
53	53	1
2	6	1
42	42	1
121	124	1
56	61	1
6	112	1
76	82	1
70	76	1
119	120	1
21	70	1
53	122	1
82	86	1
27	28	1
28	32	1
42	43	1
108	116	1
73	97	1
33	45	1
29	58	1
76	94	1
25	91	1
33	47	1
