167	182	2
111	111	8
120	121	5
49	57	2
1	1	4
39	41	7
23	27	4
122	122	10
114	118	1
55	60	4
103	108	1
198	198	6
33	33	4
191	199	3
218	218	9
95	95	6
219	222	3
184	186	2
65	66	1
207	227	2
152	161	4
119	119	6
22	22	6
169	172	3
230	230	5
192	192	6
118	118	4
43	47	2
80	89	2
26	26	4
4	4	5
78	194	2
19	19	8
149	154	3
144	144	8
200	200	10
175	194	4
70	70	13
38	49	2
41	41	12
12	12	8
73	73	5
231	231	9
2	3	8
121	131	1
32	117	1
8	19	4
192	201	6
81	86	2
98	98	14
74	74	9
145	145	4
21	21	2
221	238	2
122	125	1
215	216	5
7	50	7
207	208	7
97	228	2
6	6	12
112	120	1
28	29	5
65	73	1
233	233	12
34	34	5
65	65	9
212	213	10
138	140	2
9	9	11
32	33	5
178	178	9
239	239	4
136	136	6
179	180	4
158	160	2
182	197	3
37	38	2
145	146	1
109	109	3
47	47	6
38	42	2
139	140	3
142	146	4
15	15	6
7	7	6
27	27	8
76	138	1
165	171	3
168	168	6
30	224	1
227	227	6
142	145	2
85	229	3
136	176	1
2	6	3
207	207	4
46	46	3
2	2	12
181	222	5
146	146	1
107	113	3
211	211	1
75	75	11
17	17	10
24	24	8
130	131	3
6	11	4
73	84	2
72	72	13
148	148	2
71	71	8
180	183	4
194	200	2
131	131	3
121	227	1
209	213	3
48	48	5
190	196	3
56	68	1
212	212	3
17	20	1
8	28	1
25	25	15
220	220	4
197	198	7
168	172	3
133	133	10
52	59	4
230	231	2
168	183	2
186	187	3
156	156	2
21	22	2
16	17	2
5	6	4
198	200	2
215	215	4
188	188	4
0	4	3
186	190	3
225	235	1
6	22	1
196	197	3
176	176	9
100	101	2
61	61	1
46	50	4
80	80	4
69	69	4
71	73	1
140	141	2
35	35	4
113	154	2
232	233	6
147	157	3
13	13	4
203	203	3
169	169	3
226	226	14
115	116	8
235	235	5
145	155	1
161	161	3
4	5	7
181	181	2
133	144	2
153	237	1
105	105	3
49	49	13
58	238	2
32	32	3
166	166	2
170	180	1
127	127	2
209	216	2
211	217	2
216	216	5
229	229	6
189	189	5
209	209	2
240	241	4
222	223	2
224	225	3
55	70	2
26	30	4
122	126	2
206	207	1
113	113	7
173	176	4
229	231	1
14	16	10
193	197	1
170	179	1
48	192	2
118	150	5
191	193	2
36	79	2
165	176	2
78	79	2
105	106	4
138	138	13
152	155	3
159	160	3
180	189	3
8	8	5
106	112	2
118	122	1
115	117	4
77	78	3
165	168	2
232	240	3
170	170	6
33	40	1
115	118	1
62	68	2
171	172	2
54	54	4
38	41	3
1	123	2
82	82	6
102	102	5
134	137	1
196	196	6
184	184	9
209	226	2
19	21	2
229	230	1
36	37	1
116	116	2
45	46	3
206	206	8
135	138	2
108	109	4
162	163	3
4	7	3
73	96	1
78	193	1
192	196	2
72	73	2
236	237	2
0	79	1
11	11	9
28	66	1
99	103	4
102	104	1
217	217	8
234	242	1
13	15	6
238	238	3
19	31	3
3	3	2
14	15	4
143	176	4
153	169	3
183	183	8
60	202	1
140	140	4
175	184	3
208	214	3
44	44	8
222	222	3
40	76	4
46	75	1
175	178	4
32	40	4
144	146	3
209	218	2
115	115	3
104	104	11
181	186	3
127	128	5
220	223	2
51	57	2
214	214	10
72	190	3
133	169	3
161	187	2
184	187	1
29	29	4
221	222	5
30	30	1
204	216	3
77	77	12
152	200	1
121	203	3
72	140	1
28	84	3
11	28	3
72	142	5
161	163	1
82	85	3
195	199	3
128	131	1
38	38	5
120	120	3
56	56	6
126	126	4
124	124	9
43	43	2
172	172	5
14	14	6
242	242	6
26	28	3
147	190	2
147	147	7
63	65	3
97	98	3
124	126	2
21	84	6
143	143	6
53	56	3
79	79	3
24	49	3
176	182	2
153	153	1
96	114	3
73	76	2
4	80	3
42	42	7
144	201	2
150	154	5
25	27	2
173	173	8
37	37	3
156	159	5
108	108	1
121	129	2
193	195	4
181	182	4
150	155	1
223	234	4
221	234	5
103	103	16
110	110	1
178	181	1
128	129	2
163	163	4
213	218	3
95	122	4
140	143	3
86	205	3
134	135	1
158	186	3
4	21	1
144	149	2
152	154	1
117	127	1
211	234	4
179	183	3
16	20	2
137	215	1
137	137	8
72	89	1
36	69	1
31	44	3
201	201	10
65	123	2
173	194	3
20	20	8
208	215	2
196	204	3
139	139	5
34	57	2
126	236	2
219	219	6
37	197	2
52	53	2
10	10	2
11	29	1
107	107	3
225	231	2
114	122	1
67	67	4
15	16	4
0	32	1
180	181	2
116	126	1
105	187	2
191	195	2
200	217	2
9	10	4
41	48	1
64	66	3
121	121	8
171	182	2
84	84	7
185	187	2
106	120	2
50	50	9
98	102	3
63	67	4
113	128	4
190	198	2
44	45	6
53	53	2
51	54	3
31	32	6
78	103	3
6	7	1
204	217	3
143	155	2
120	125	1
105	108	1
161	162	4
135	136	4
76	197	3
114	114	4
0	35	3
191	205	3
196	201	3
181	189	1
218	228	3
152	153	1
29	30	1
153	154	1
46	144	4
191	192	4
190	190	5
35	38	3
149	149	1
78	78	4
58	58	4
142	147	2
146	154	1
147	148	3
125	126	2
33	34	2
159	171	1
51	61	1
36	52	4
223	225	1
225	228	1
208	208	2
190	200	3
236	236	4
116	130	3
203	208	1
206	210	2
12	13	2
13	21	3
117	128	1
191	203	1
118	124	2
121	122	5
58	73	3
57	57	4
102	103	6
136	145	1
171	179	7
129	132	3
65	67	3
193	193	5
191	191	5
74	88	1
57	199	1
225	233	4
64	77	2
213	220	3
84	85	1
60	60	2
116	131	2
88	88	3
221	221	4
237	241	5
233	238	1
35	50	3
55	55	3
140	142	1
5	5	5
188	191	5
70	71	6
211	212	3
154	163	4
1	23	2
47	48	2
194	201	2
185	210	2
228	230	4
151	163	1
227	230	3
135	171	2
44	54	2
196	206	3
50	183	1
187	190	2
34	35	3
195	196	2
157	168	1
165	165	7
103	106	5
141	152	3
217	218	1
128	128	4
86	86	3
16	32	1
192	198	3
179	179	7
151	161	1
180	180	10
237	237	2
174	175	5
51	200	1
108	126	1
75	201	6
113	114	3
113	188	1
44	50	2
122	123	3
4	6	5
194	194	7
199	201	1
44	57	2
11	66	1
54	55	5
169	171	1
83	84	1
195	204	2
24	27	1
109	110	3
110	186	1
205	206	3
220	240	1
5	73	1
141	173	2
25	32	1
6	28	1
153	196	2
19	27	1
107	119	2
41	174	1
192	204	1
131	133	2
123	123	3
241	242	1
134	134	3
20	35	3
143	207	1
1	128	2
217	238	5
225	226	6
66	66	1
160	203	4
59	224	2
32	73	3
241	241	7
233	237	1
21	25	2
119	124	1
101	111	2
39	39	7
158	158	2
3	13	4
31	37	1
163	176	1
228	228	2
175	175	4
66	86	1
106	111	1
205	216	2
52	201	1
182	182	5
187	187	7
224	224	7
203	205	1
19	22	1
222	224	4
19	56	4
101	103	4
134	218	4
68	71	2
119	226	3
58	60	2
100	103	2
123	233	1
11	13	2
157	171	3
183	200	2
200	206	1
216	221	1
120	123	3
128	236	1
157	161	2
101	101	4
45	88	2
105	125	3
139	148	1
162	162	2
156	158	3
116	120	1
63	63	3
155	156	1
32	42	2
16	16	1
26	35	1
212	217	1
0	6	3
121	123	2
148	149	4
15	18	2
68	68	6
178	202	5
75	76	2
185	199	1
176	177	1
117	121	3
227	233	3
11	12	4
161	179	2
60	155	2
118	176	1
164	164	9
158	159	4
170	181	2
20	21	6
28	34	2
24	33	1
18	19	2
187	189	2
115	120	1
83	83	6
103	126	1
191	197	1
134	138	2
52	52	1
4	16	2
142	142	2
218	219	3
6	66	2
152	169	2
106	106	2
139	147	3
107	192	2
42	43	3
222	226	1
49	50	1
179	200	2
55	67	2
195	231	2
226	228	1
185	185	4
38	54	2
155	183	1
186	198	2
210	210	1
222	230	5
76	81	2
111	126	1
118	121	2
36	36	7
225	232	1
152	152	2
222	237	1
13	29	1
146	147	2
119	120	1
67	68	2
140	167	2
64	64	2
201	206	1
69	71	4
155	155	2
72	141	1
17	29	2
195	202	1
55	57	3
58	61	1
178	205	1
47	49	1
236	242	2
174	176	1
60	66	2
166	178	1
64	69	3
141	141	1
0	2	1
209	210	1
156	157	2
24	28	3
139	145	2
135	219	2
177	192	1
30	43	1
232	237	1
111	147	2
203	216	1
156	166	3
155	161	1
5	28	1
79	86	1
29	36	3
233	240	2
215	219	2
161	177	4
65	77	1
75	81	1
129	129	1
38	39	1
41	47	1
132	133	2
223	223	2
111	138	1
160	160	1
120	134	3
167	172	1
35	39	1
41	44	1
174	174	5
159	168	3
51	146	3
53	54	1
138	166	1
80	85	2
55	58	1
27	86	1
40	40	5
214	215	3
178	221	1
149	160	1
59	63	3
21	23	1
14	27	1
223	235	1
48	50	3
96	96	2
48	62	2
18	18	4
36	89	1
96	98	1
57	183	2
167	167	3
140	173	3
28	28	2
213	243	1
181	223	1
175	176	3
140	150	1
207	209	1
117	125	2
103	118	1
135	147	1
58	62	3
74	75	3
161	170	1
40	41	2
176	230	1
220	221	1
176	178	2
16	29	1
99	105	1
198	199	1
4	14	2
62	63	1
13	16	4
20	55	2
65	80	2
124	143	2
156	184	1
150	152	1
232	232	4
229	233	1
71	74	1
132	134	1
168	169	2
165	167	2
179	203	1
217	230	1
226	227	1
8	65	1
142	143	1
49	62	1
233	234	6
44	55	2
119	222	2
169	184	1
31	33	3
236	241	1
230	236	1
100	100	4
152	163	1
199	202	1
48	81	1
117	118	1
6	15	1
2	86	2
103	104	1
61	73	1
32	82	1
56	182	1
104	124	2
67	82	1
136	144	1
52	57	1
70	139	1
9	67	1
186	186	1
177	178	1
36	47	1
22	23	5
45	45	2
57	67	1
51	51	3
27	29	1
23	28	2
45	143	1
130	130	3
208	224	2
125	125	2
211	218	1
228	229	1
76	76	2
109	125	2
156	177	1
150	173	1
32	56	2
239	240	1
124	125	1
237	238	2
23	24	1
20	29	2
5	24	1
101	113	1
202	233	1
239	242	1
49	88	1
7	8	1
97	104	1
82	83	1
147	149	1
59	59	3
97	179	1
154	154	1
75	110	2
62	62	2
96	97	1
161	189	1
203	204	1
56	57	1
25	122	2
179	195	1
195	195	3
116	124	1
115	123	1
43	85	1
103	167	2
207	210	1
223	230	2
197	197	1
135	135	1
118	137	1
40	42	1
68	73	1
20	22	1
177	177	1
78	89	2
127	130	1
183	221	1
145	154	1
85	96	1
205	220	3
228	240	1
110	241	2
103	110	1
80	81	1
70	77	1
39	40	2
234	241	1
153	158	1
3	27	1
220	222	1
3	20	1
224	227	1
134	170	1
83	118	1
163	173	1
121	133	2
110	160	1
99	99	1
205	207	3
172	174	1
43	45	1
30	31	1
145	182	1
202	203	1
138	239	2
203	217	1
30	32	1
171	171	1
205	213	1
123	130	1
9	35	1
180	202	2
20	44	1
116	167	1
37	44	1
46	48	1
2	21	1
129	142	1
234	235	1
212	218	1
215	217	1
28	63	1
2	4	2
221	223	1
159	161	1
34	79	1
74	76	1
202	213	1
207	221	1
158	161	1
85	99	1
24	26	1
114	117	1
191	234	1
162	174	3
48	51	1
224	231	1
116	127	1
125	171	1
81	81	1
76	139	1
102	108	1
