134	137	1
64	64	1
116	127	4
50	50	2
8	25	3
4	4	3
92	92	11
64	65	3
128	139	1
3	3	5
49	49	8
77	77	4
81	81	4
36	36	2
130	163	3
104	104	11
121	121	5
73	73	5
38	40	2
17	39	1
10	10	3
50	78	2
154	154	3
104	155	2
130	132	5
37	38	1
56	72	3
19	19	4
15	22	5
112	116	3
81	83	6
120	121	6
111	129	1
114	114	1
14	14	6
51	51	8
48	48	8
160	161	4
62	63	3
143	148	3
3	102	1
141	141	2
156	156	4
46	47	3
24	24	1
79	79	9
152	152	5
119	120	7
133	133	4
115	116	5
111	111	5
151	151	2
105	105	5
17	17	8
56	57	4
49	77	1
143	143	8
90	132	4
47	47	6
83	83	6
22	22	5
81	82	1
144	144	7
80	81	5
130	130	1
53	54	5
145	145	4
100	100	6
45	45	7
163	163	4
65	65	5
154	161	5
102	126	2
149	149	5
131	131	8
62	62	8
41	41	1
4	5	1
46	46	4
125	125	6
163	165	1
25	25	5
74	74	4
78	83	2
147	147	3
141	162	4
8	10	1
143	144	3
42	43	2
108	108	3
144	145	3
165	165	3
101	101	5
128	154	4
111	144	1
134	134	1
15	16	5
55	55	8
129	129	8
135	135	5
107	107	3
84	86	2
69	69	9
157	157	2
159	159	9
18	19	1
131	139	4
128	129	3
113	113	6
104	105	1
5	5	12
56	56	8
24	25	9
105	156	2
124	125	2
164	164	5
122	122	7
71	85	1
98	98	8
120	120	1
137	137	10
54	54	1
166	166	12
126	152	3
12	13	5
133	134	2
40	40	2
71	83	3
11	12	2
9	10	3
78	78	3
141	167	2
106	106	4
51	56	4
85	85	5
115	115	1
119	119	2
129	144	2
167	169	4
158	165	2
127	151	3
52	52	2
92	101	1
140	140	3
91	94	1
71	84	3
96	97	4
166	167	4
57	57	2
123	123	4
68	68	1
18	18	8
49	79	1
14	15	1
128	128	1
38	38	2
42	44	2
35	81	4
155	155	4
82	82	7
109	110	1
72	73	2
85	90	1
58	58	2
68	74	1
21	24	1
139	139	5
159	161	1
18	35	1
75	75	4
136	136	3
34	34	2
122	125	3
96	98	2
142	144	4
113	114	1
1	1	2
114	151	6
156	160	1
132	132	3
110	110	3
11	11	3
64	68	2
39	40	2
169	169	4
21	27	1
138	138	6
146	146	4
36	37	3
67	85	1
97	97	5
95	95	1
127	153	1
132	133	1
51	82	4
91	92	3
127	127	1
119	121	2
27	27	1
101	102	4
100	121	4
21	25	4
6	6	2
16	16	3
42	42	3
9	9	3
55	79	2
73	74	2
13	13	1
123	125	2
123	124	2
103	103	3
99	100	2
109	109	6
89	89	2
148	149	1
155	161	1
155	157	1
82	95	2
100	122	1
141	150	1
112	151	1
88	94	1
135	136	2
160	160	2
10	11	2
5	6	2
161	161	1
114	115	1
121	122	3
69	85	3
90	90	1
47	48	1
18	24	2
158	158	4
92	93	2
150	151	1
22	24	2
35	35	1
70	70	1
97	99	3
63	64	1
75	76	2
42	76	1
167	167	1
135	137	3
136	137	1
17	53	3
135	162	2
6	52	2
8	9	1
153	153	1
169	170	1
150	150	1
62	67	1
112	112	1
142	142	1
47	76	1
117	117	1
12	12	1
