5	5	8
65	123	6
127	127	7
60	60	17
18	18	11
122	123	4
77	77	4
6	113	1
45	45	9
53	53	4
95	95	15
119	120	3
96	100	1
115	120	4
11	97	3
68	68	5
94	94	10
56	57	5
124	133	5
4	4	8
87	87	5
66	119	3
87	96	2
21	22	6
95	96	2
14	16	3
14	14	7
90	90	11
70	70	7
47	49	5
80	80	3
24	82	2
92	93	5
115	119	3
6	37	1
89	89	2
17	17	8
99	99	9
120	121	4
83	83	2
38	85	1
2	44	8
102	102	4
84	85	2
112	115	2
28	28	13
35	35	11
62	62	9
42	58	3
79	134	2
23	25	1
96	96	7
52	53	2
85	90	3
73	73	6
7	35	1
65	121	4
84	86	3
34	34	14
52	52	4
70	71	7
65	65	11
93	93	14
4	5	1
93	94	2
113	113	3
50	113	2
29	29	3
76	76	11
125	125	3
50	108	4
77	128	6
114	115	1
66	68	5
63	63	11
58	58	7
69	101	2
27	27	3
3	44	7
115	116	5
7	7	10
44	44	2
108	108	11
81	130	2
78	78	5
110	110	15
24	126	4
12	127	3
54	57	3
130	130	3
102	104	3
132	133	2
30	102	3
66	110	6
97	97	11
114	114	2
126	133	3
49	49	2
133	134	2
120	120	6
109	110	1
59	60	1
116	117	2
101	102	2
85	124	1
21	21	3
122	122	3
126	126	6
126	127	2
20	23	2
7	11	4
118	119	4
31	32	5
20	20	6
56	59	2
47	47	1
86	96	1
10	10	8
97	98	3
105	105	5
72	72	3
113	114	1
30	30	9
44	45	1
2	91	4
43	45	1
98	98	16
105	107	2
92	92	4
61	107	1
66	66	2
69	97	2
52	106	1
101	101	9
69	69	7
1	5	1
7	8	2
7	86	2
15	16	4
50	50	4
6	86	2
12	12	5
109	109	7
45	50	1
48	65	5
102	103	1
86	87	4
0	0	8
20	93	4
24	24	4
88	88	7
31	31	3
100	101	1
85	85	2
43	43	3
63	65	3
61	61	4
58	100	1
58	60	3
33	33	5
4	19	2
72	90	1
91	92	3
0	1	7
43	101	4
71	72	3
15	17	1
103	104	5
70	72	2
98	99	5
117	130	3
124	124	1
16	17	4
71	71	3
90	112	2
43	63	1
27	28	6
134	134	5
76	134	2
67	68	1
64	64	7
50	99	2
85	86	3
37	95	1
107	110	3
54	55	4
75	112	2
19	19	1
24	26	3
12	73	1
116	116	5
65	119	4
56	56	13
91	91	11
42	42	8
12	126	2
17	73	2
106	106	1
23	26	1
108	109	2
36	37	1
11	11	5
35	37	1
118	127	2
95	119	2
123	123	2
104	104	5
67	119	1
55	55	1
45	91	2
26	27	2
54	54	2
18	21	4
42	65	2
99	100	1
131	131	5
118	128	1
48	52	2
53	54	2
75	75	3
6	6	4
106	107	3
67	67	5
0	18	2
121	123	3
122	129	1
30	34	2
5	37	2
89	90	5
3	4	2
5	6	6
84	84	1
59	96	2
90	98	2
1	1	3
22	28	1
13	13	2
91	94	1
73	126	2
73	74	4
68	69	3
9	9	4
6	7	2
81	124	2
53	56	3
13	68	1
131	133	1
128	128	3
101	105	1
79	79	5
50	58	2
8	8	5
93	111	1
114	121	1
30	33	2
79	80	5
104	121	1
100	100	5
74	76	1
67	106	2
59	59	3
128	129	1
2	2	1
112	112	1
11	81	1
112	114	1
74	74	2
115	115	3
60	61	3
32	32	4
17	21	1
94	112	1
8	119	1
78	129	2
55	56	2
33	34	1
12	13	1
12	34	2
77	133	1
105	106	2
65	66	5
74	134	2
111	112	2
105	112	2
130	132	1
79	120	1
104	105	2
16	16	3
103	103	2
60	111	1
107	108	2
14	72	2
130	133	1
125	126	1
117	120	1
80	120	1
85	87	1
74	79	1
17	19	2
14	15	2
82	84	3
25	25	1
114	128	1
132	132	2
67	69	2
45	60	1
0	5	1
52	109	1
71	90	1
81	81	1
87	114	1
36	36	1
77	78	1
81	95	1
26	26	1
107	107	1
58	59	1
3	78	1
8	84	1
57	58	1
66	67	1
18	20	1
98	100	1
