228	228	2
17	18	2
223	224	1
81	82	4
183	190	3
147	149	5
209	209	1
187	187	6
48	48	6
6	22	1
165	167	1
166	166	9
17	17	2
34	45	2
194	204	1
39	65	2
108	111	1
39	50	1
179	191	4
15	15	5
157	157	13
179	179	4
231	231	2
101	101	4
48	49	1
62	77	2
24	52	5
173	173	2
205	205	4
177	177	6
12	16	2
205	206	13
103	108	1
42	42	3
150	166	5
21	22	2
163	163	10
46	46	3
179	197	2
81	81	10
226	226	4
72	72	12
99	100	1
21	24	2
146	146	4
62	62	10
170	170	3
213	213	3
51	51	8
218	234	2
105	106	3
38	38	2
148	148	12
13	13	6
33	36	2
49	49	8
198	198	4
142	142	5
4	9	3
22	22	8
102	102	4
64	64	7
59	59	5
230	236	4
232	232	4
236	239	5
0	1	2
140	141	7
120	120	1
143	144	4
1	1	2
174	174	4
233	234	2
193	200	2
116	116	4
197	197	4
207	208	7
161	162	1
82	82	2
25	25	4
44	44	7
149	157	3
111	111	10
32	32	1
31	31	4
9	9	1
19	41	5
131	131	5
35	43	1
118	118	8
235	237	5
76	76	6
9	23	1
189	189	5
169	169	11
99	99	4
112	145	1
58	59	1
103	107	4
41	41	3
139	139	10
199	200	2
23	23	4
61	61	6
137	153	1
121	139	1
164	176	1
227	236	2
161	161	9
226	227	6
199	199	6
57	78	1
62	63	2
184	184	4
23	43	1
242	242	10
126	126	5
7	9	4
225	225	7
95	105	2
225	226	4
3	7	1
176	176	2
186	186	3
36	36	5
104	108	3
215	223	2
140	140	3
141	149	1
223	223	4
98	98	8
27	28	4
187	200	4
69	69	9
150	151	3
70	71	5
37	37	5
100	100	6
29	29	6
204	225	4
140	155	7
68	69	3
107	107	6
147	147	4
178	178	4
221	221	5
182	182	3
207	222	1
235	235	3
73	74	1
41	71	3
13	15	3
154	154	5
223	227	1
14	15	1
17	20	1
165	165	6
40	40	3
211	215	2
26	65	2
196	196	4
34	58	2
224	224	5
129	130	2
8	8	4
19	30	5
102	105	2
172	173	8
20	20	2
180	191	1
153	164	1
43	43	6
24	31	2
133	133	3
158	158	4
77	85	4
115	116	1
48	62	3
217	217	7
74	74	2
137	137	3
201	201	4
5	7	1
103	127	2
13	17	4
61	80	2
43	47	1
34	34	1
135	135	3
188	188	3
229	229	1
195	196	2
219	235	2
129	129	2
220	220	6
222	224	1
154	156	2
122	127	1
65	66	1
209	212	2
230	231	3
123	123	3
86	86	1
236	236	5
46	47	1
221	223	1
0	9	3
211	211	3
124	124	1
240	241	2
18	19	3
199	224	3
24	25	1
181	181	8
133	134	2
208	208	4
14	14	4
177	184	1
104	121	1
131	134	1
206	227	1
2	193	2
84	85	2
18	29	2
77	78	2
168	189	1
214	239	2
190	191	1
128	129	1
21	21	6
3	6	1
168	168	7
222	222	2
106	114	1
115	115	7
227	230	1
193	193	5
96	96	1
83	86	2
233	233	11
148	149	1
5	5	1
19	45	1
113	119	2
141	160	1
78	78	3
2	67	4
229	230	1
236	242	1
155	167	2
238	238	7
105	105	5
47	48	4
209	223	1
165	166	3
219	219	7
227	227	9
65	65	4
97	97	2
66	66	9
205	225	3
3	4	3
153	153	2
138	157	1
225	230	3
67	67	2
180	182	4
230	237	1
185	185	3
147	148	1
104	104	4
167	167	2
172	175	1
37	51	3
170	171	4
4	4	6
126	127	3
141	147	1
166	169	5
149	185	1
200	201	3
58	58	4
18	30	1
173	179	2
26	41	1
45	45	9
154	155	2
160	161	1
54	64	2
117	117	1
32	238	1
27	27	4
155	155	2
109	110	5
200	200	5
237	237	2
58	60	1
69	85	1
127	127	11
72	88	1
49	50	1
66	67	6
54	54	6
161	169	1
15	16	1
145	146	2
30	31	2
180	180	4
24	24	2
194	194	1
7	8	1
53	74	1
25	26	1
29	30	1
36	55	2
45	46	3
145	156	2
75	76	3
141	141	3
107	108	3
133	141	3
43	216	3
26	26	1
193	194	3
95	97	2
123	126	2
35	46	1
163	164	2
63	63	4
162	162	4
59	74	4
114	115	3
32	235	1
204	204	4
102	103	1
234	235	1
153	154	2
21	30	3
39	54	1
222	226	1
234	234	2
80	82	1
78	105	2
142	143	1
98	139	1
201	202	1
12	15	2
190	192	1
37	45	3
23	54	3
227	241	1
68	68	3
212	212	5
4	19	3
178	181	2
152	169	1
206	206	6
31	46	1
137	138	2
158	160	1
214	214	1
96	109	1
201	212	1
113	121	1
159	160	1
22	23	1
135	137	1
193	197	3
203	204	2
215	216	4
41	42	1
84	111	1
191	191	3
107	121	2
121	121	3
164	164	4
37	55	1
151	174	1
138	139	2
42	216	1
218	236	3
172	183	2
151	159	3
179	184	3
203	210	2
125	125	2
119	119	2
13	25	1
57	75	1
55	56	2
62	74	1
185	186	1
113	113	1
209	210	1
97	137	1
156	156	3
237	238	2
213	223	1
147	155	1
172	172	4
144	145	3
19	20	2
12	12	5
26	29	2
118	119	1
36	50	2
203	205	2
128	145	1
36	37	2
16	16	2
210	221	4
218	218	3
109	120	1
58	73	1
11	19	1
44	219	3
155	172	3
123	124	1
52	53	1
27	35	1
9	10	2
67	79	1
57	59	1
7	7	3
157	170	1
208	213	2
109	113	1
47	47	3
237	239	1
117	118	2
188	189	2
10	20	4
239	241	2
211	212	1
144	144	1
195	203	3
162	163	1
36	51	2
64	67	1
221	225	2
42	57	1
202	204	1
28	28	3
176	180	1
9	21	2
192	192	1
138	141	1
193	238	1
183	185	3
80	83	2
152	153	2
239	239	4
170	184	1
200	202	1
217	218	1
53	53	4
60	60	4
0	23	2
159	162	2
171	172	1
160	160	2
210	210	10
33	33	1
128	128	2
8	30	1
57	58	1
85	85	1
128	132	1
19	19	3
207	219	2
122	122	3
59	62	1
203	224	1
0	0	1
144	146	1
138	138	1
8	12	1
60	61	1
218	222	2
63	64	1
54	61	3
7	10	1
71	71	2
105	121	3
75	75	1
165	197	1
76	172	1
118	136	1
120	128	1
109	109	1
37	58	1
123	133	2
189	194	1
18	18	2
150	150	1
161	167	3
155	171	3
105	120	2
228	231	1
55	55	3
60	73	1
223	241	1
56	57	1
42	55	2
11	17	2
111	116	4
124	125	1
62	64	2
161	163	1
32	176	1
45	47	1
149	149	1
139	141	1
122	126	1
192	193	3
185	202	1
186	196	1
233	239	1
64	69	1
102	111	1
90	95	1
172	190	1
0	65	1
155	156	1
57	57	1
105	107	1
9	11	1
130	130	3
207	209	1
26	27	1
212	213	2
143	143	2
171	173	2
198	219	1
48	184	1
225	229	1
118	131	1
112	113	1
2	5	2
241	241	1
29	32	1
155	166	1
78	108	1
52	192	2
186	187	2
209	224	1
228	229	3
26	42	1
50	50	2
91	104	3
137	154	1
153	166	2
132	133	1
36	42	1
54	55	1
218	228	1
203	221	1
80	80	2
40	41	1
147	172	1
202	220	2
214	215	1
134	134	1
122	147	1
108	108	1
96	133	1
38	39	1
236	238	2
185	192	1
190	190	1
34	36	1
12	14	2
216	237	1
59	60	1
126	132	1
171	171	1
101	117	2
200	207	1
207	223	1
9	15	1
206	223	1
223	231	1
185	200	1
1	6	1
122	125	1
157	162	1
26	28	1
240	240	2
50	64	1
16	17	1
3	3	1
170	172	1
4	7	1
203	208	1
202	222	2
206	225	1
84	130	1
160	165	1
69	78	1
71	73	1
191	195	1
12	19	1
176	177	1
207	207	1
171	181	1
143	162	1
217	243	1
230	230	1
66	69	1
135	144	1
216	217	1
27	29	1
182	183	2
47	54	1
113	114	1
146	157	1
198	232	1
60	72	1
123	128	1
149	150	1
119	132	1
167	168	1
37	44	1
213	216	1
102	118	1
0	24	1
3	44	1
