105	105	29
101	128	2
4	132	3
102	102	8
9	9	7
32	79	3
35	35	17
18	18	12
4	4	4
96	103	3
81	81	10
12	13	4
129	129	6
97	110	4
13	24	2
88	88	12
110	110	8
134	134	13
15	21	2
38	38	3
127	127	8
110	131	3
110	122	2
0	0	7
125	126	3
27	29	5
11	12	3
74	74	11
88	90	3
1	1	7
77	104	2
113	113	5
76	76	8
81	83	5
107	107	7
29	31	4
31	32	9
116	116	13
93	93	19
73	73	3
29	29	4
93	101	2
33	34	5
110	111	10
122	122	4
75	75	5
7	33	3
103	103	4
98	131	3
108	108	2
18	19	2
115	116	1
82	117	3
78	78	12
0	1	4
23	106	2
81	120	2
24	24	7
86	87	3
26	117	6
23	23	5
84	87	2
20	21	3
113	114	3
36	36	7
92	92	11
19	19	9
134	135	1
71	72	2
15	15	6
111	111	3
32	32	6
0	7	5
7	7	12
100	100	15
132	132	1
117	123	1
80	80	4
37	38	4
104	105	6
37	37	4
111	115	2
95	95	9
125	125	1
109	109	7
4	11	5
99	104	2
82	82	4
98	98	13
97	97	6
104	106	1
87	87	9
96	106	2
117	122	3
99	99	3
119	122	6
11	11	5
86	86	5
96	96	9
14	14	12
31	31	8
18	21	2
36	37	2
79	117	3
136	136	5
19	21	4
124	124	2
86	88	2
89	89	15
25	25	3
27	27	5
29	71	2
72	72	5
13	16	2
6	7	1
26	26	4
93	94	5
104	104	8
2	9	4
90	90	5
33	33	5
118	119	6
22	22	8
21	22	1
120	120	3
77	77	7
28	29	1
10	11	1
77	98	1
28	28	3
19	23	2
16	16	6
21	21	4
16	31	5
101	102	4
140	140	5
1	2	2
6	6	6
85	91	7
95	96	8
97	98	1
34	34	13
119	119	13
131	131	2
128	128	2
114	114	5
19	35	1
85	85	6
5	5	1
131	132	1
15	16	1
87	112	5
139	139	5
137	137	7
34	37	2
115	115	6
27	28	2
82	83	5
20	20	2
120	127	3
94	95	2
33	88	1
28	122	2
84	86	5
132	133	2
128	133	4
31	125	2
1	13	2
80	81	4
93	95	6
76	125	4
79	82	3
71	71	4
20	23	2
7	10	1
73	74	2
84	116	4
84	122	2
73	103	1
10	10	4
113	115	1
78	89	1
2	2	1
122	123	1
30	83	2
71	83	1
130	130	3
108	109	3
31	92	1
30	31	2
16	29	1
9	83	1
30	30	1
28	38	3
88	120	4
8	12	2
3	4	2
118	120	2
112	116	1
123	123	9
19	34	1
16	71	1
84	84	3
99	112	1
28	94	1
8	8	3
79	81	5
79	83	1
94	94	4
103	107	1
117	120	4
13	13	2
128	129	3
89	120	2
98	117	3
26	111	1
17	17	1
15	19	2
7	8	2
106	106	4
8	10	1
79	79	3
33	126	1
66	94	1
12	12	2
84	88	1
28	83	2
116	131	2
117	117	2
95	104	1
98	110	1
135	135	2
138	138	1
80	121	1
16	18	2
86	113	1
90	91	1
79	98	1
21	67	1
80	120	1
39	75	1
91	91	2
3	24	1
79	89	1
86	90	1
115	123	3
81	119	2
16	20	1
91	98	1
12	89	1
3	20	1
122	126	1
95	116	1
126	126	1
0	3	1
3	3	1
133	133	1
112	123	1
123	132	1
117	128	1
95	106	1
78	119	1
82	127	1
81	89	1
