69	90	2
26	29	10
51	51	26
39	39	3
86	86	7
89	94	2
25	25	6
66	68	2
102	102	20
49	52	3
89	89	7
46	46	3
71	100	1
34	34	9
52	52	15
97	98	6
50	51	6
45	45	8
49	49	8
40	40	12
24	24	11
97	99	4
67	98	2
22	49	2
60	60	2
71	71	5
86	104	5
68	68	6
32	34	1
36	36	23
48	48	4
58	63	3
28	28	3
45	46	4
77	77	14
80	80	2
76	76	8
98	99	4
33	33	7
45	47	2
30	30	12
77	85	2
88	90	1
64	64	6
98	98	2
74	74	14
79	79	10
24	101	3
85	85	23
39	41	3
71	72	5
35	74	1
92	95	3
95	96	3
104	104	7
78	78	15
41	41	10
56	56	11
37	40	1
54	54	10
55	56	10
32	32	13
54	55	3
63	63	13
104	105	10
75	75	6
23	23	10
95	99	3
96	99	1
22	22	7
40	44	7
105	105	14
20	22	3
47	48	5
72	76	2
72	72	11
59	60	5
35	93	4
91	100	3
94	94	10
65	67	10
102	103	5
67	67	8
69	69	28
90	90	8
40	41	4
75	79	4
85	104	1
66	67	2
51	55	2
27	27	17
87	87	6
29	79	1
95	105	3
100	100	8
38	40	5
43	51	1
50	50	11
20	37	1
58	58	7
22	23	1
75	76	2
103	103	13
70	70	9
56	103	1
36	37	8
89	90	2
56	57	7
66	66	14
107	107	2
27	32	1
95	97	2
27	29	6
34	37	2
88	88	13
84	85	4
40	63	2
38	38	16
91	91	13
31	33	3
23	49	1
83	91	4
92	92	1
69	104	1
49	51	2
91	92	2
65	66	4
86	87	4
73	106	2
93	93	14
66	101	5
55	55	4
53	55	4
75	99	3
52	56	3
80	85	1
58	62	1
76	77	8
90	91	3
64	65	6
60	62	2
94	95	2
50	52	4
73	74	6
26	27	3
67	105	1
65	65	13
73	73	8
73	83	2
70	101	3
81	82	6
67	71	2
77	82	2
31	31	8
101	101	6
35	36	2
26	37	1
96	96	7
35	44	1
57	77	4
37	37	1
39	40	2
99	99	6
51	52	5
47	47	5
49	55	1
93	94	3
31	34	2
56	58	1
37	38	1
82	83	1
79	106	6
75	78	3
75	81	1
35	35	8
43	43	4
80	81	3
57	64	2
43	44	1
29	29	10
80	99	1
61	61	7
35	38	4
27	28	4
65	96	3
68	69	8
26	30	2
94	96	1
57	63	4
70	71	3
52	62	2
90	92	1
88	89	7
46	47	4
65	87	4
24	100	4
95	95	10
85	94	1
60	65	2
85	87	3
67	72	1
21	53	1
41	46	2
21	21	3
89	99	1
38	39	3
84	84	3
88	97	3
29	30	5
74	102	2
67	68	1
61	66	1
99	100	2
67	83	2
79	81	1
30	52	1
73	92	1
97	97	1
58	59	2
52	53	1
79	101	3
29	36	2
73	85	3
37	91	2
76	100	1
31	64	1
100	101	4
61	103	1
24	25	5
83	87	1
24	47	3
53	53	4
57	57	12
37	41	1
72	86	2
60	83	1
48	99	2
43	63	1
20	21	1
68	77	2
92	96	2
24	50	1
48	50	1
51	64	2
91	93	3
55	62	2
79	88	2
81	88	2
72	73	4
20	20	7
43	61	1
42	43	4
28	35	1
84	86	2
101	102	5
60	61	4
53	57	2
81	81	2
66	73	1
82	85	2
62	62	3
19	46	3
67	100	1
23	24	3
40	42	1
59	59	3
78	81	3
66	102	3
82	82	3
23	27	1
41	42	1
70	72	2
29	50	2
61	62	2
25	97	2
42	45	1
83	100	5
33	34	2
57	78	2
96	98	1
53	60	2
42	63	2
29	94	1
44	44	6
66	87	1
83	83	2
85	90	1
101	106	1
36	53	2
20	38	1
27	49	1
79	97	1
25	89	1
56	59	1
54	56	1
38	44	1
55	103	1
71	73	1
22	27	1
78	82	2
97	100	1
71	82	2
90	97	1
31	45	1
45	51	2
69	71	1
63	76	1
46	63	2
82	97	1
59	64	2
26	26	2
30	31	2
89	103	1
24	96	1
27	50	1
22	48	1
76	78	1
56	84	2
38	69	1
106	106	1
60	64	1
46	60	1
61	63	1
92	94	1
42	61	1
102	105	1
96	97	3
36	38	1
48	49	2
43	47	1
28	29	1
24	31	2
78	86	1
92	101	1
61	64	1
56	60	1
25	26	1
82	87	1
39	45	1
42	42	2
20	24	2
86	89	1
26	28	1
103	104	1
71	102	1
76	104	1
29	33	1
35	40	1
