2	24	2
78	78	4
19	22	3
124	124	5
136	136	7
95	95	6
134	134	4
110	111	2
7	8	1
138	139	2
121	122	1
2	2	2
24	24	7
13	14	1
83	85	2
81	81	9
83	83	11
27	27	15
76	76	6
101	102	3
112	112	3
78	81	1
113	118	2
4	4	3
0	1	3
20	20	4
108	109	3
30	30	8
31	32	6
76	77	3
0	0	4
114	115	1
111	111	6
11	12	3
130	130	5
31	123	3
22	23	2
33	88	6
81	120	5
25	26	3
99	99	3
83	84	6
6	6	5
31	31	4
137	140	2
98	98	9
120	121	2
109	109	3
13	13	7
117	117	2
104	104	8
77	77	5
98	99	2
105	106	3
35	35	9
102	102	6
103	105	1
32	86	1
6	7	3
35	37	3
88	88	4
14	14	4
129	130	4
32	34	1
86	86	4
82	82	4
118	118	3
73	73	6
3	3	8
73	74	3
20	21	3
72	124	1
94	95	5
88	92	2
107	108	2
84	84	4
96	112	1
119	119	11
19	19	4
2	3	1
77	78	4
30	31	2
16	44	2
132	132	3
85	86	1
120	120	4
113	113	2
0	25	1
21	21	2
89	90	1
18	18	3
110	112	6
81	122	1
82	115	2
82	114	2
26	26	2
24	25	4
116	117	2
89	91	2
12	12	2
117	118	2
101	101	5
25	25	4
28	28	4
108	108	4
80	121	1
101	103	1
17	17	1
107	107	2
86	87	2
92	92	3
7	7	8
115	116	1
74	76	1
119	121	2
137	138	3
23	23	1
131	131	4
4	5	5
140	140	2
84	122	1
86	120	1
114	117	1
97	97	1
109	110	1
110	110	6
74	74	5
16	16	6
72	72	5
93	93	2
72	74	1
125	125	4
93	94	3
113	114	2
36	36	3
126	126	4
29	29	4
127	127	1
33	34	2
38	38	1
90	90	3
24	26	2
19	21	1
92	93	1
87	88	1
126	127	2
37	37	1
74	75	1
121	121	1
123	124	1
96	96	3
94	100	4
115	115	1
134	135	1
122	122	1
139	139	2
90	93	1
115	120	1
14	15	3
82	85	1
114	114	1
23	25	1
27	120	1
23	24	1
88	93	1
98	100	1
80	80	2
34	90	1
135	135	3
34	34	3
32	89	1
85	120	3
5	5	1
94	98	1
116	119	1
82	120	1
36	37	1
71	72	1
7	9	1
116	116	4
8	8	3
86	119	2
102	104	1
34	35	1
84	123	1
97	98	1
79	79	2
22	22	2
138	138	2
120	122	2
92	94	1
28	74	1
13	15	1
137	137	1
2	37	1
6	8	3
91	91	1
75	75	3
91	102	1
91	103	1
3	4	1
26	27	1
78	79	1
1	2	1
19	37	1
10	11	2
105	111	1
83	103	1
128	128	2
123	123	1
128	129	1
71	71	1
102	116	1
