152	152	9
42	42	6
97	97	5
75	75	6
8	8	4
88	110	4
139	139	24
123	123	19
107	107	3
38	38	8
134	134	25
140	140	4
68	68	15
47	47	6
106	107	5
27	27	14
34	37	5
32	32	11
8	24	2
62	62	2
128	128	5
25	27	1
79	79	15
38	39	6
109	109	2
110	110	10
87	87	8
8	28	4
135	135	9
118	118	5
4	36	10
142	143	5
49	50	2
91	91	4
83	84	3
154	154	5
45	46	2
86	87	7
138	138	8
128	129	8
148	148	8
157	157	3
25	25	15
51	67	2
2	2	3
25	28	9
130	131	6
125	126	1
25	26	6
105	106	4
120	121	6
49	49	6
26	26	12
81	81	3
117	117	11
114	114	6
45	45	4
94	94	5
15	15	10
115	115	3
133	133	5
21	21	4
77	77	17
99	99	9
149	150	2
131	132	4
63	63	4
43	43	13
150	157	4
86	86	6
13	14	4
137	138	8
11	11	10
85	85	12
17	18	3
146	147	3
28	28	3
102	103	1
25	101	2
156	156	4
90	91	5
115	150	2
116	117	1
22	22	15
113	113	1
4	4	11
39	40	4
93	93	5
13	13	3
127	127	10
88	89	2
72	72	1
44	44	2
88	88	5
116	116	9
1	1	6
66	70	1
67	111	4
54	61	3
0	0	9
6	7	3
65	65	1
37	56	2
92	92	4
52	52	3
41	42	6
77	78	4
108	108	9
35	35	3
80	83	2
108	112	2
17	19	2
4	5	1
111	111	9
77	96	2
41	43	1
33	33	4
40	42	3
145	145	4
120	120	6
96	96	2
52	67	5
74	93	3
158	158	1
5	5	6
121	121	1
35	56	5
98	98	8
22	133	1
2	4	1
94	96	1
16	16	3
67	68	1
22	23	3
40	40	7
124	136	5
23	23	5
12	13	2
89	111	2
7	7	2
100	100	13
131	131	20
124	124	10
26	27	1
44	45	2
19	19	2
21	24	2
82	82	6
132	133	2
54	54	3
73	92	2
31	32	13
140	151	2
130	132	2
55	68	1
132	136	2
89	89	5
10	10	3
48	48	3
152	153	1
92	97	2
87	121	1
151	151	9
18	127	1
10	11	2
66	69	3
103	103	9
5	6	1
141	152	2
144	144	2
52	55	1
73	75	4
129	129	4
83	83	1
102	102	4
45	56	3
137	137	7
48	49	1
20	21	2
93	96	3
105	152	5
129	130	3
135	137	5
2	36	2
148	158	3
123	141	2
64	110	3
103	104	3
154	156	1
55	55	6
143	143	3
95	96	7
66	68	2
84	84	3
69	111	2
80	81	1
70	71	3
41	41	3
104	105	3
140	141	3
120	122	3
19	136	3
126	126	5
100	101	5
3	3	2
10	12	1
50	50	2
146	146	4
4	101	2
150	150	2
105	105	5
31	31	3
2	101	1
144	154	2
66	101	3
39	39	3
104	104	3
155	156	4
119	119	3
51	51	8
31	33	2
52	53	2
15	16	1
97	98	2
108	111	1
114	115	1
87	91	3
131	135	5
37	61	3
30	30	2
20	20	2
52	71	1
78	78	1
127	135	2
26	42	1
127	134	1
17	17	5
129	134	2
141	156	1
24	24	4
4	65	1
147	150	2
32	33	1
91	92	3
151	155	1
149	149	3
36	55	1
118	158	2
109	110	6
74	74	1
115	116	3
115	117	2
88	90	1
90	90	2
101	101	2
80	82	1
87	89	4
67	67	5
108	109	3
71	71	5
12	14	1
38	40	4
104	107	1
112	112	1
2	3	2
64	64	2
68	69	5
123	125	3
95	95	7
1	2	1
0	1	1
46	46	1
122	122	5
89	96	2
50	51	3
36	37	3
85	86	1
98	100	2
34	63	1
135	138	3
34	34	1
96	97	2
151	152	1
29	29	2
39	42	2
110	131	1
87	93	1
53	54	2
9	10	2
87	112	1
33	34	1
10	14	2
51	52	2
155	155	1
9	11	1
33	35	1
20	22	1
80	80	1
117	118	1
66	66	1
154	155	2
11	14	1
24	28	1
92	102	1
139	140	1
122	123	1
145	146	2
53	53	4
16	17	1
18	20	2
14	15	1
109	111	2
43	44	1
132	132	1
35	38	3
111	112	1
55	56	1
6	6	1
125	125	1
52	54	2
56	56	1
5	25	1
153	155	1
57	71	1
44	50	1
18	18	1
