75	82	1
49	63	3
67	67	6
65	65	6
3	3	6
62	64	5
61	61	4
63	64	1
69	74	6
31	31	1
89	89	3
24	66	1
22	22	8
13	13	6
24	25	1
4	5	1
50	50	5
47	47	5
55	59	1
87	87	5
70	73	1
59	59	7
51	63	3
48	49	1
34	49	1
46	56	3
75	77	1
10	11	1
78	83	7
54	54	5
27	27	5
58	58	4
82	83	2
80	82	5
8	8	3
60	60	6
22	89	2
8	9	2
0	0	3
76	76	7
20	20	3
24	27	1
6	19	4
47	48	3
55	55	3
64	64	2
12	12	1
56	59	2
53	55	2
5	5	2
49	56	1
13	17	1
55	66	3
9	16	3
26	26	3
58	68	3
25	26	4
8	13	1
78	84	1
48	48	1
2	4	2
85	85	5
15	24	2
48	50	3
54	61	1
52	52	2
2	2	4
30	31	1
61	63	2
56	57	1
17	19	2
51	62	1
4	4	4
17	25	1
7	9	1
71	71	4
58	60	1
25	31	1
6	6	4
23	29	2
2	3	3
62	62	1
3	10	3
72	72	1
7	10	1
63	76	3
51	54	1
50	59	1
23	24	2
60	67	1
53	53	1
19	20	1
50	51	1
81	81	2
80	81	1
57	58	5
77	84	2
27	28	2
71	87	1
8	10	3
63	73	2
55	67	3
17	20	2
48	51	3
72	74	3
25	25	1
23	31	1
17	26	3
66	69	2
14	15	1
5	8	1
73	75	4
10	22	1
77	78	7
73	76	1
70	70	3
51	52	2
81	87	1
69	69	3
84	84	4
73	73	2
50	53	2
17	23	1
59	78	3
16	23	1
77	77	3
7	8	2
75	75	4
85	90	3
11	27	3
76	83	1
77	80	1
15	29	1
54	55	2
60	62	2
74	74	7
21	22	3
26	28	2
28	28	3
79	79	5
0	1	1
57	81	1
55	63	1
81	82	2
54	65	1
24	79	1
66	66	5
17	17	1
55	77	1
52	62	2
81	84	1
71	72	1
64	71	1
17	18	2
64	73	1
21	21	4
19	66	5
30	30	1
51	51	1
75	76	3
70	71	1
9	9	1
74	76	2
64	77	3
74	85	1
53	59	2
51	60	1
46	59	1
12	17	3
52	54	2
60	77	2
56	84	1
53	75	2
31	33	1
74	75	1
68	83	2
11	16	1
59	77	1
68	68	3
74	82	2
80	86	2
67	85	1
19	19	3
60	75	1
56	56	3
75	80	1
72	78	1
82	82	1
58	71	1
13	14	1
72	73	1
73	74	1
78	80	1
2	13	1
20	22	1
24	80	2
83	83	2
7	7	1
49	57	1
29	85	1
50	56	1
71	88	2
21	88	2
24	87	1
6	13	1
65	73	1
22	23	1
61	80	1
18	66	1
