37	37	3
27	27	9
192	192	1
181	181	2
180	180	8
126	126	7
30	31	1
103	104	2
209	210	3
229	229	5
115	123	2
159	159	4
14	14	1
10	10	10
98	98	3
11	37	2
124	125	3
172	172	1
45	45	6
54	64	5
69	69	3
61	61	6
155	155	7
133	133	1
118	119	5
166	172	5
6	6	6
225	225	2
152	152	8
119	123	4
9	9	5
137	178	4
202	202	4
9	10	3
68	68	1
174	174	5
125	153	3
122	122	1
167	211	6
171	171	3
111	112	3
173	173	2
67	68	4
62	62	3
7	201	6
238	238	4
123	123	2
158	159	3
148	149	1
162	162	2
4	4	5
180	217	4
231	231	1
139	139	1
213	213	4
223	228	3
34	34	3
75	75	4
167	168	3
219	219	7
148	148	8
241	241	1
52	53	3
12	12	4
50	51	3
43	43	6
72	72	7
117	117	4
101	101	4
86	86	5
136	136	6
12	16	2
105	106	4
204	204	6
51	52	1
213	216	4
20	20	9
12	15	3
154	154	1
122	144	1
24	24	7
143	143	3
66	66	2
24	43	6
116	116	2
158	158	2
0	23	2
12	14	3
186	186	1
19	23	2
75	76	7
70	70	6
199	199	1
49	50	3
178	178	4
81	84	2
156	165	3
73	73	3
42	42	2
75	85	1
183	183	4
217	217	3
175	175	5
61	181	3
237	238	1
47	47	8
14	19	4
129	129	2
120	120	1
178	179	4
39	42	5
78	79	3
5	23	2
103	103	5
237	237	8
124	124	2
26	26	10
198	198	3
57	82	1
164	165	5
206	214	2
215	217	1
55	56	2
128	128	5
17	17	4
205	206	1
182	182	1
204	218	2
21	23	3
59	59	2
210	211	4
17	18	3
174	183	2
39	40	3
214	217	2
218	218	5
130	130	3
184	184	1
148	152	1
82	82	3
223	223	1
21	22	3
215	215	2
189	190	2
215	225	3
64	64	10
13	13	4
236	236	5
197	229	1
15	15	3
189	189	4
69	121	2
56	56	2
25	25	2
163	187	4
28	28	1
126	132	1
208	209	2
58	58	3
237	241	1
74	74	7
197	197	1
35	36	1
199	200	4
60	60	3
198	203	1
44	44	4
235	235	2
123	153	1
190	190	3
127	127	1
62	64	1
170	170	3
51	64	1
5	5	4
51	53	2
11	11	1
227	227	5
33	34	2
144	147	2
214	215	2
150	151	2
15	38	1
78	78	1
18	19	1
137	137	2
207	227	3
50	76	3
8	60	1
15	19	2
62	128	2
99	114	1
15	16	1
162	163	2
170	172	1
165	165	1
38	40	2
187	188	2
200	201	1
15	18	2
139	140	1
206	206	1
221	221	2
7	9	2
168	168	1
105	105	2
5	7	1
70	106	3
76	76	2
23	23	6
7	8	1
242	242	5
5	6	3
97	97	3
49	49	4
77	78	1
175	176	2
179	181	2
60	197	5
142	188	1
164	164	1
8	20	1
233	233	1
232	232	3
119	119	2
88	88	1
1	1	2
54	54	4
60	62	1
196	196	2
121	153	1
239	239	3
140	140	1
46	47	1
97	106	2
168	169	1
95	95	2
22	22	2
85	86	1
71	71	1
39	39	1
74	86	1
230	232	1
80	80	2
147	147	1
33	33	1
129	130	3
193	193	2
14	23	1
240	241	1
135	135	1
27	28	2
30	30	2
150	150	3
169	169	1
121	121	1
19	19	2
70	96	2
144	145	1
85	85	1
230	230	1
9	27	1
26	27	1
222	222	1
66	67	1
46	46	1
109	109	1
225	226	2
44	45	1
127	129	1
47	54	1
6	19	3
55	61	1
70	71	2
81	81	1
63	85	1
0	0	1
32	32	1
101	111	1
205	205	1
74	75	1
53	53	1
109	114	1
12	13	1
209	209	1
207	208	1
31	31	1
151	152	1
122	125	1
113	113	2
43	44	1
63	65	1
177	177	1
1	3	1
62	84	1
179	200	1
179	179	1
204	206	1
