73	73	11
89	89	7
115	115	5
26	26	12
20	20	14
136	136	10
28	30	1
123	123	5
82	82	13
99	100	2
9	9	7
99	99	5
23	92	3
71	71	8
84	106	1
4	4	3
14	74	4
106	106	6
78	78	6
104	112	1
19	19	5
17	19	5
16	38	2
23	23	11
72	72	16
86	86	2
129	129	7
34	34	11
114	115	1
36	36	22
92	92	5
28	29	8
132	132	11
113	113	12
131	131	11
84	91	3
112	119	3
13	13	8
79	79	6
109	109	6
77	79	4
111	111	5
80	80	5
5	12	3
74	75	3
130	130	8
83	90	2
92	93	5
73	75	7
0	1	4
133	134	5
116	116	3
33	33	7
18	18	7
107	108	4
7	71	1
117	119	3
124	124	7
75	111	2
119	120	3
35	35	11
74	74	5
12	15	2
117	117	5
21	21	3
110	110	6
100	100	9
97	97	7
30	30	5
37	37	17
83	117	1
83	83	6
127	127	9
139	139	6
75	75	6
9	10	3
90	93	2
13	14	7
22	22	5
127	128	3
3	3	5
102	102	4
77	77	5
84	84	7
37	38	4
93	94	2
84	117	2
95	95	15
75	109	4
10	10	3
126	127	2
115	116	6
15	17	4
14	14	4
136	137	2
104	106	2
125	125	7
80	111	7
80	104	1
86	117	2
89	90	2
134	134	5
12	73	1
119	119	8
120	120	8
94	94	10
107	107	3
25	25	4
93	93	3
2	2	6
23	24	3
38	38	17
90	90	3
87	118	2
30	31	1
112	113	3
32	32	11
7	8	2
96	96	8
6	6	2
95	117	1
86	92	1
121	121	10
122	122	2
14	36	3
28	28	10
22	23	2
114	114	4
17	17	7
18	19	2
7	7	5
16	16	6
112	112	4
106	110	4
140	140	2
108	108	3
78	79	3
100	101	3
16	17	1
128	128	1
3	31	1
81	82	1
73	99	1
10	25	2
0	0	3
24	24	4
35	36	1
8	11	1
91	93	1
87	87	1
88	88	2
2	3	1
8	8	4
134	135	1
11	27	1
75	79	1
112	117	5
98	98	2
15	15	3
15	27	2
85	87	4
71	72	2
78	108	2
28	32	1
15	74	1
77	121	1
17	18	1
11	11	5
27	32	1
29	29	4
75	123	2
103	103	2
94	95	2
87	95	1
76	76	4
91	91	4
87	120	3
91	94	2
76	77	1
5	5	2
94	115	2
130	131	2
80	82	2
83	89	1
88	90	1
31	31	3
124	125	2
90	96	2
36	132	1
110	120	1
5	6	1
34	35	1
16	19	2
84	86	1
0	81	1
109	123	1
3	71	1
29	30	1
9	11	1
108	109	2
75	80	2
82	86	2
139	140	2
1	1	3
88	118	1
133	133	2
27	28	1
126	126	4
124	129	2
97	98	3
83	112	1
28	74	1
135	135	6
15	28	1
3	14	1
32	37	1
105	105	2
21	22	2
71	86	1
82	83	2
101	110	1
137	138	1
11	25	2
77	108	1
24	88	2
72	73	1
118	119	1
9	12	2
138	138	2
111	118	2
136	139	1
1	36	1
118	118	2
8	12	1
77	107	1
3	4	1
85	89	1
133	135	1
127	129	1
10	20	1
75	106	1
9	81	1
79	107	1
