127	127	10
64	73	1
83	83	3
170	170	8
44	44	5
113	113	1
79	83	4
133	133	1
111	111	2
141	141	5
156	156	5
17	17	1
121	122	3
84	84	2
52	52	3
37	37	9
125	125	11
97	98	3
33	34	2
129	129	4
93	93	9
128	180	1
137	138	2
38	38	1
62	62	2
188	188	6
60	60	2
2	127	5
61	61	8
59	59	2
40	40	5
143	147	4
146	146	7
24	24	1
185	185	3
176	176	2
72	72	4
19	21	3
159	186	2
63	75	4
55	55	1
172	172	5
71	73	3
182	182	6
39	99	4
106	106	5
184	184	1
138	154	2
148	149	4
133	138	1
56	56	5
139	139	3
186	186	3
67	67	6
15	15	5
166	166	6
86	86	4
130	131	1
75	75	4
99	99	4
91	92	3
176	177	2
186	187	3
7	7	4
16	22	1
80	80	1
189	190	5
156	159	1
33	33	3
113	150	4
135	135	6
71	71	4
123	123	7
84	85	6
100	100	5
117	117	5
6	6	7
19	20	5
119	119	2
98	98	7
54	55	4
6	7	3
81	81	4
22	23	4
47	66	3
124	124	6
123	128	4
162	170	1
145	145	13
174	174	8
105	107	4
35	35	8
134	135	3
150	150	5
105	105	8
103	103	3
70	70	3
57	58	7
160	160	4
92	92	6
104	104	4
96	97	1
126	178	2
58	65	2
83	90	3
30	30	4
177	177	6
162	171	4
108	108	2
43	43	3
180	181	5
27	27	4
114	114	13
161	161	3
174	175	8
8	8	1
120	120	2
62	87	2
175	175	8
160	170	2
170	171	3
160	178	8
157	157	9
12	36	3
160	171	8
148	152	1
161	173	2
165	165	6
153	153	9
38	39	4
11	15	2
75	79	2
142	143	3
126	126	3
80	92	2
66	66	2
0	0	6
30	140	2
140	153	1
0	2	1
10	11	2
139	153	1
183	186	3
173	173	4
28	35	1
152	152	3
111	149	3
14	14	4
59	60	2
189	189	5
128	128	6
125	126	4
144	147	3
153	154	2
162	162	3
122	127	3
42	42	2
64	65	1
1	3	7
5	6	2
123	144	2
105	106	2
16	38	1
56	57	5
164	165	1
65	67	3
33	36	2
18	21	4
179	180	1
171	171	3
29	151	1
76	76	3
132	133	2
73	73	2
109	109	3
36	37	1
131	131	3
101	103	2
149	149	3
0	26	4
12	13	2
6	12	1
188	189	1
19	55	1
143	143	4
7	8	1
130	130	5
111	121	5
147	148	3
112	144	4
88	108	1
21	21	1
2	2	10
72	87	1
126	128	1
4	183	2
160	161	1
24	25	3
107	107	1
178	179	4
161	163	5
120	140	1
165	169	2
79	79	2
58	58	2
187	187	1
116	116	1
40	95	1
77	77	2
178	178	4
82	82	3
142	180	4
137	137	2
142	142	2
40	41	3
34	34	1
117	118	3
16	40	3
21	22	1
118	118	2
19	38	3
3	3	4
93	94	2
124	127	2
53	54	3
175	176	4
41	41	4
42	43	3
179	190	1
154	154	3
80	82	1
70	71	5
158	158	4
87	87	5
98	106	1
73	88	2
169	171	1
46	47	2
85	85	1
20	20	1
146	147	1
161	177	1
16	23	1
57	57	1
164	164	1
131	145	1
65	88	1
7	11	2
107	108	2
172	173	3
15	17	4
6	8	1
53	139	1
22	53	1
89	89	6
116	118	1
8	10	1
18	18	2
15	38	2
101	101	2
59	84	1
181	181	2
64	64	2
182	183	1
147	147	2
29	120	1
148	148	3
169	170	3
136	136	1
1	1	1
14	36	3
183	187	1
169	169	1
140	140	1
20	21	1
161	174	1
112	113	1
5	8	1
90	92	1
94	104	2
10	10	2
100	101	2
60	63	2
60	64	1
68	68	1
110	111	1
143	144	2
5	5	2
151	151	2
78	78	2
12	12	2
107	118	2
159	160	1
5	11	1
140	151	1
13	15	1
98	111	1
73	84	2
71	72	1
114	151	1
121	123	2
95	102	1
160	187	1
13	14	1
131	148	1
13	13	1
13	38	1
89	90	1
81	92	1
118	137	1
23	23	1
45	47	1
183	183	1
112	116	1
76	89	1
155	156	1
122	123	1
39	40	1
4	184	1
140	152	1
11	11	1
170	189	1
90	90	1
94	94	2
35	36	1
162	163	1
141	142	1
