1	1	16
35	35	3
139	139	5
26	27	5
61	61	10
40	40	3
33	57	4
91	92	3
114	114	11
146	170	2
44	44	2
21	24	6
45	46	6
90	159	2
60	98	6
174	174	3
156	156	9
83	83	7
93	93	9
0	1	2
143	143	5
67	67	3
121	121	5
54	84	4
141	141	9
25	26	2
118	118	1
88	88	12
1	76	1
25	25	10
178	178	9
99	100	8
12	28	2
11	27	2
26	26	5
101	119	5
159	159	6
102	102	8
70	70	2
151	151	9
16	153	4
109	109	15
126	127	6
190	190	5
132	173	6
61	166	5
98	103	3
110	115	3
133	183	3
130	131	4
146	146	12
63	65	4
30	36	2
12	126	4
42	42	7
90	161	2
85	86	2
53	55	4
96	97	10
2	77	3
17	35	2
145	145	2
38	38	3
55	55	19
14	45	6
64	64	1
149	149	10
172	173	3
157	157	2
82	121	1
132	132	2
55	56	4
58	58	5
126	126	7
186	186	22
4	4	8
116	116	7
169	170	7
125	125	8
14	37	1
89	108	1
71	71	8
74	74	5
172	172	2
154	154	4
75	75	4
29	35	4
162	167	2
156	163	5
6	7	5
112	113	2
78	78	2
32	32	7
87	88	2
3	6	1
110	110	3
20	36	3
87	87	10
185	185	6
21	23	6
0	0	9
106	106	3
38	39	3
100	100	2
101	101	1
48	124	5
129	129	6
183	184	3
36	37	1
119	121	3
161	161	3
182	182	12
135	135	7
36	36	4
77	86	2
133	133	6
158	158	2
15	15	7
33	33	5
171	171	2
183	183	15
99	99	6
25	29	2
175	176	5
34	104	2
138	138	11
113	113	10
28	29	1
62	63	9
81	83	7
79	88	2
23	43	1
97	98	4
96	96	9
109	113	3
43	44	7
57	57	3
150	151	1
145	169	4
134	134	8
128	128	3
80	86	1
17	17	9
179	187	4
118	119	1
26	141	1
177	177	9
18	36	2
28	28	5
22	41	2
58	65	3
92	92	5
34	37	1
82	82	6
79	87	1
85	85	4
131	131	6
3	4	1
120	120	2
181	182	5
13	62	9
179	179	9
174	181	2
21	42	2
68	70	2
180	186	4
117	117	8
121	122	4
103	103	7
173	174	7
175	175	3
135	137	1
16	35	3
180	180	4
108	110	5
150	150	5
7	7	4
16	90	2
81	81	4
34	34	4
189	190	3
48	48	2
13	57	1
16	16	3
57	67	2
150	154	2
138	139	4
91	91	10
13	13	7
18	31	2
154	155	2
133	134	5
156	167	1
160	160	4
61	165	7
115	115	7
139	140	1
120	122	6
160	161	4
123	123	10
168	168	8
132	133	3
148	149	3
94	94	2
136	137	1
54	54	6
177	178	1
169	169	4
78	86	3
104	107	3
85	120	2
124	124	5
170	170	3
140	141	4
13	126	3
127	127	7
62	142	1
152	152	5
181	185	5
17	34	3
188	188	6
92	94	1
130	130	4
90	90	1
140	140	9
22	22	2
155	155	2
107	107	7
97	97	1
68	68	2
98	98	5
76	76	6
11	12	1
162	163	3
53	53	9
10	11	3
41	41	3
37	37	3
27	144	5
86	86	3
95	109	2
111	111	2
164	164	5
119	119	4
75	76	3
89	114	2
156	157	2
102	120	4
14	21	1
97	116	2
12	165	2
126	128	1
122	122	5
84	85	3
176	177	9
60	60	6
6	6	9
135	136	1
110	111	1
184	184	8
165	165	6
187	187	3
52	54	1
57	69	2
104	104	3
146	147	3
39	39	8
29	30	2
95	95	5
136	136	1
130	135	2
166	166	3
54	55	2
137	137	2
137	144	1
100	101	3
88	119	2
77	77	1
172	174	2
176	176	1
182	183	2
123	125	5
82	123	3
13	56	1
63	63	1
60	61	5
61	62	2
145	148	1
187	189	1
79	79	2
73	73	4
16	165	1
131	135	1
115	116	2
27	28	3
148	148	6
134	182	1
93	95	1
54	106	2
24	39	2
131	136	3
20	21	3
122	123	1
12	27	6
62	62	2
91	94	5
2	2	4
46	46	5
89	90	2
8	8	3
89	89	4
57	59	1
143	166	1
10	42	2
77	84	1
130	134	2
144	144	4
53	54	1
10	23	3
106	119	1
72	72	1
108	108	2
89	116	1
157	160	5
71	73	1
158	161	2
113	114	3
12	13	2
31	37	1
158	159	1
87	114	1
20	20	1
5	5	3
55	123	3
21	41	1
112	112	2
173	173	2
81	120	1
77	119	1
151	169	2
59	59	3
27	140	1
61	98	2
24	25	3
10	126	2
144	145	2
80	120	2
47	47	2
21	21	3
84	84	1
147	173	1
94	95	3
133	182	1
144	169	1
26	144	2
96	116	1
57	65	3
133	181	1
124	125	1
19	20	1
3	3	1
147	147	1
16	17	1
15	16	3
29	29	2
19	44	1
80	85	2
96	117	2
167	167	1
93	94	1
41	42	1
179	180	1
33	89	1
59	60	1
182	184	1
106	114	1
80	80	2
159	160	1
105	105	1
143	168	1
103	106	1
32	37	1
76	77	1
99	101	1
145	146	1
14	14	2
22	23	1
43	43	1
30	32	1
81	82	1
53	84	1
132	182	1
18	19	1
68	126	1
114	119	1
113	115	1
12	45	1
130	132	1
65	65	1
154	167	1
