122	132	5
123	123	13
97	99	2
26	56	1
116	116	3
52	112	3
53	53	14
99	99	6
2	2	15
42	63	3
64	89	2
25	26	10
5	55	1
29	29	18
64	69	5
91	91	15
127	128	4
49	49	7
85	97	5
70	70	36
50	53	1
3	24	5
44	44	8
52	52	9
5	5	12
74	82	3
85	88	1
34	35	4
15	16	4
119	119	17
129	129	22
114	114	11
106	107	4
45	51	1
125	125	6
121	127	1
76	76	30
122	123	10
71	71	14
1	33	2
7	7	14
26	26	13
83	106	5
134	134	11
95	95	7
80	105	1
90	90	9
122	122	8
93	93	9
130	130	7
102	102	21
115	115	16
78	106	1
0	71	3
11	11	11
68	68	15
97	97	10
69	69	8
128	128	8
78	78	16
79	111	4
64	64	9
45	45	8
65	69	5
27	27	11
12	34	5
98	98	17
120	120	16
19	21	2
6	7	13
82	83	6
118	118	23
33	33	9
48	107	9
50	51	1
37	37	7
99	100	6
77	107	1
76	114	5
4	4	12
101	101	15
22	22	12
25	25	14
43	88	1
78	84	3
19	19	11
6	6	9
21	23	4
112	112	16
52	105	3
100	100	15
74	74	19
8	8	15
54	54	11
78	107	3
20	31	3
9	14	5
64	65	5
34	34	15
21	21	9
107	107	3
76	126	1
35	35	9
108	108	13
6	8	4
106	127	1
116	117	5
18	74	2
91	93	6
23	32	3
11	34	4
80	80	11
25	31	4
61	61	8
132	133	2
121	121	11
104	104	18
115	116	8
86	86	15
126	126	8
15	58	2
77	77	11
48	111	3
23	24	4
84	85	2
88	88	22
4	5	1
37	38	1
8	9	5
56	56	6
17	17	6
16	16	11
1	23	3
112	113	2
33	34	3
83	127	1
88	89	8
9	10	3
111	111	6
57	58	6
122	131	2
87	87	22
26	69	3
109	109	12
57	60	6
118	119	5
62	62	12
63	63	10
31	31	15
77	78	3
15	15	11
114	118	6
18	18	6
1	6	2
126	134	6
124	124	12
78	81	1
24	24	19
92	93	8
112	122	5
73	128	3
7	9	8
10	10	15
13	14	7
84	84	7
22	23	5
12	13	2
12	12	24
3	5	2
110	110	7
3	3	6
80	81	4
67	67	4
5	24	1
77	118	6
46	47	2
23	23	12
130	133	6
67	86	6
117	119	9
19	20	5
107	108	2
66	66	7
48	130	1
94	98	5
55	56	3
38	38	2
65	65	14
19	23	4
89	90	6
120	121	2
15	33	5
76	105	1
9	9	6
93	119	3
125	127	3
19	134	3
81	115	1
7	37	3
47	88	2
78	79	4
4	42	1
44	115	5
8	14	3
107	110	4
32	34	3
84	119	4
117	117	11
91	97	6
133	133	3
84	115	4
96	96	7
48	48	2
73	73	14
75	75	11
103	103	11
42	42	5
54	56	2
61	62	2
79	79	4
44	97	2
81	81	3
57	87	1
132	132	14
32	32	3
89	89	9
30	33	1
106	109	3
28	28	15
44	82	2
0	34	1
50	50	9
60	62	2
130	132	3
95	96	1
85	86	2
91	99	3
53	108	1
53	64	2
13	17	3
77	126	2
94	94	2
25	35	1
72	89	1
62	63	5
29	30	2
19	31	1
70	89	1
69	70	5
20	20	8
2	4	1
52	111	2
51	52	3
44	95	1
113	115	2
68	69	5
50	91	3
8	13	1
35	36	2
70	71	3
82	107	2
83	83	9
72	72	6
108	128	1
30	30	5
109	110	1
1	1	9
14	14	5
7	21	4
113	114	3
36	37	5
43	43	6
49	114	4
53	54	2
111	112	4
21	32	3
46	87	2
105	105	3
58	59	5
3	4	2
44	66	1
131	131	12
0	55	4
47	86	1
98	99	5
25	110	3
9	60	2
29	63	3
74	81	2
86	90	2
54	71	1
44	47	2
76	79	3
43	47	2
92	92	7
58	58	3
6	11	2
80	108	1
33	35	4
16	17	4
121	123	3
18	77	2
5	54	3
108	130	1
44	85	1
57	63	2
93	122	2
59	69	3
86	111	1
94	95	3
66	67	2
82	82	11
43	54	5
71	72	6
124	125	10
1	5	1
110	111	6
108	110	2
85	85	3
106	106	7
13	13	2
12	35	4
108	109	1
90	91	5
32	37	1
93	100	1
113	113	5
123	124	2
7	8	1
105	106	2
114	119	1
79	108	1
76	101	5
54	62	1
74	75	7
97	100	3
130	131	5
94	97	3
8	10	2
59	59	7
67	68	3
25	27	2
117	120	1
127	134	2
24	53	4
128	129	1
36	38	3
1	14	2
114	116	3
26	38	1
7	30	2
95	116	3
30	103	1
7	38	7
24	27	2
91	92	2
14	15	1
4	63	1
46	65	2
42	43	1
60	60	3
33	37	2
1	3	7
0	74	4
23	31	3
8	11	1
43	83	1
79	82	2
102	103	1
66	68	5
134	135	2
52	53	9
129	131	6
77	84	3
0	62	1
49	50	1
56	57	3
133	135	1
1	2	1
0	0	6
129	130	6
97	111	1
63	90	1
30	37	2
31	32	2
79	85	1
44	45	3
8	37	1
75	104	2
93	94	2
125	131	4
2	31	1
101	116	1
9	37	1
2	3	7
8	59	4
72	73	1
100	115	1
93	116	1
11	37	1
95	127	1
55	55	5
20	29	1
22	76	2
47	51	4
65	66	2
1	12	2
85	113	2
126	130	2
73	74	4
57	57	4
117	118	5
79	88	1
26	63	1
93	98	2
87	88	2
45	85	2
127	127	3
121	133	1
114	115	2
0	127	1
48	108	1
20	63	1
124	130	2
21	74	1
1	72	1
48	96	1
50	112	2
47	91	1
108	129	1
85	96	1
21	31	1
104	105	2
22	30	2
3	14	2
73	93	3
124	133	3
123	134	2
61	134	1
31	78	1
24	28	1
43	45	1
3	54	1
131	132	8
43	46	2
53	62	1
59	63	1
107	116	3
24	31	1
93	95	4
62	88	2
78	117	1
36	36	6
77	81	1
49	91	1
21	30	1
97	98	2
11	15	1
5	7	7
43	79	2
44	90	3
25	38	1
99	118	3
6	13	1
49	113	1
30	31	1
122	126	3
86	87	3
3	87	1
75	112	2
5	6	3
122	125	1
81	118	1
82	96	1
75	100	1
83	107	2
30	32	2
71	89	1
56	63	1
27	28	1
68	86	3
12	15	2
18	37	1
56	79	1
63	64	1
95	120	1
75	76	1
0	5	1
43	51	1
76	106	1
3	11	1
85	90	1
5	75	1
10	11	3
22	80	1
21	77	1
48	110	1
112	125	2
128	133	1
15	21	1
20	111	1
19	53	1
43	44	1
99	101	2
79	127	1
62	64	2
126	135	1
84	113	1
119	121	1
77	106	1
102	105	1
114	120	1
61	71	1
31	38	3
15	18	1
42	53	1
0	12	1
47	60	1
83	84	1
101	105	1
121	124	1
117	122	1
63	87	1
118	120	1
96	97	1
46	46	2
75	126	1
4	9	1
44	106	1
48	112	1
124	132	1
91	95	1
68	96	1
63	85	1
