125	125	2
7	7	6
42	42	2
99	99	5
12	12	4
58	60	1
52	113	4
4	33	1
24	25	2
64	64	6
81	82	2
101	102	10
133	133	3
124	125	4
0	32	2
30	30	1
41	41	6
31	31	8
27	27	2
123	123	4
2	2	6
47	47	1
86	87	1
84	84	7
119	119	1
124	124	8
30	32	1
58	58	1
113	114	2
67	67	1
93	94	3
90	106	1
1	1	1
28	28	8
32	32	3
23	23	7
103	103	3
48	49	4
71	72	1
107	107	2
73	79	1
73	74	2
114	114	11
94	96	1
85	86	3
86	86	4
54	69	3
38	40	2
10	10	5
117	117	4
62	62	2
94	95	3
56	69	2
40	40	6
87	87	2
50	50	2
80	91	3
18	18	8
48	48	2
106	107	8
90	104	1
113	113	5
81	92	2
63	103	3
70	70	4
84	85	2
22	22	5
85	85	1
78	78	2
65	66	1
10	11	3
118	118	7
104	105	5
6	6	2
33	33	4
122	122	4
19	20	2
46	96	2
8	8	5
105	106	1
21	21	6
65	65	11
109	109	5
96	100	1
121	121	1
89	105	2
106	106	3
108	119	1
94	94	6
111	111	2
20	20	3
54	54	1
19	19	3
127	127	3
101	101	4
60	60	2
115	115	1
76	76	4
110	111	2
113	116	2
54	55	2
24	24	7
66	66	1
71	71	1
29	29	2
69	70	4
102	102	5
0	0	2
105	118	2
77	80	2
68	68	3
50	51	4
53	54	1
15	16	2
116	117	2
13	14	2
5	11	2
123	124	1
112	113	1
132	132	4
103	104	2
129	129	3
82	82	2
90	103	4
3	4	2
16	16	1
1	39	2
117	118	1
69	69	1
112	112	3
46	46	2
57	57	2
14	14	6
4	4	2
46	47	1
73	126	1
61	61	1
89	90	3
59	103	3
44	44	1
15	15	5
78	79	3
43	43	2
13	13	4
75	75	1
130	130	1
96	96	2
53	53	3
57	105	1
79	109	2
127	129	1
21	22	2
53	56	1
90	90	2
119	120	1
79	79	1
110	110	1
114	118	1
116	116	1
44	45	2
5	5	1
92	92	1
5	6	1
29	30	1
58	59	1
120	120	2
99	104	1
72	72	1
75	76	1
59	63	1
81	81	1
23	24	1
126	126	1
8	9	1
6	7	1
98	98	1
74	127	1
95	95	1
