22	47	7
71	73	2
18	42	4
120	120	6
92	92	5
111	111	7
126	126	5
10	12	3
15	16	2
150	150	4
75	76	2
77	79	2
128	154	2
97	97	7
46	47	5
157	157	2
111	112	1
41	41	1
92	93	2
148	158	2
124	124	2
0	15	2
163	164	3
47	64	2
132	134	2
68	68	8
86	87	2
141	141	3
20	23	4
135	135	5
85	85	5
3	3	2
27	27	2
144	144	1
77	117	2
137	137	1
10	11	4
4	4	9
151	151	1
132	132	5
87	87	9
11	11	2
100	104	5
156	158	5
0	0	5
82	82	2
19	19	1
44	45	3
8	12	1
143	144	2
57	57	2
139	153	1
129	130	3
140	140	2
18	46	2
127	127	2
42	43	1
110	151	4
47	47	5
99	117	4
100	100	5
46	46	4
53	54	1
112	112	4
48	48	3
77	78	1
153	153	10
102	102	2
145	145	3
122	122	1
106	106	2
146	147	1
23	23	4
50	64	4
170	170	9
37	37	2
147	153	4
16	45	1
76	76	1
119	119	6
133	133	4
139	140	4
77	77	2
125	132	3
146	148	2
26	44	1
80	82	2
7	41	1
105	145	2
134	137	1
107	139	1
134	135	1
94	95	1
81	82	5
152	152	3
158	158	3
26	26	6
8	9	1
130	130	5
54	54	2
79	80	1
40	40	11
88	88	2
80	80	2
54	64	3
108	109	1
123	131	1
74	74	6
55	55	2
79	79	6
166	166	2
16	48	2
20	20	1
108	131	2
159	160	1
13	17	1
138	138	4
21	21	4
43	43	1
82	119	1
149	150	1
98	103	1
117	117	3
49	49	1
34	34	4
114	114	3
23	57	3
15	24	1
57	74	2
148	148	2
1	2	4
73	73	7
164	165	1
84	84	2
146	146	1
17	37	2
19	22	1
72	72	3
62	62	5
160	160	4
162	162	2
148	154	1
76	77	1
84	117	2
159	163	1
101	105	3
23	63	3
9	10	3
131	136	2
85	86	1
91	91	1
127	134	1
35	35	1
69	70	2
102	105	2
50	54	1
72	78	3
150	151	1
152	153	1
168	168	1
98	98	3
10	10	2
9	11	2
123	123	2
116	116	1
86	117	2
118	118	1
104	104	3
94	94	2
95	95	1
124	169	1
15	15	3
156	156	2
21	43	1
162	165	1
1	65	2
56	70	1
101	102	2
105	105	1
56	62	1
8	8	2
90	97	2
51	51	2
98	99	3
125	125	1
52	54	1
99	99	2
78	78	2
163	163	3
142	143	1
13	16	1
9	9	1
13	13	1
94	114	1
36	36	1
9	12	1
133	134	1
71	74	3
2	3	2
160	162	2
6	49	1
74	75	2
73	74	1
153	154	1
33	34	1
129	129	2
107	133	2
70	83	1
41	57	1
68	70	1
128	128	1
90	94	1
169	169	2
96	96	2
17	17	1
111	122	1
86	119	1
158	159	2
34	35	1
91	92	1
105	109	1
160	165	2
40	75	1
124	130	1
132	159	1
106	137	1
20	24	1
19	58	1
53	53	1
101	101	1
