109	111	2
170	174	3
142	142	5
170	170	5
181	181	3
30	31	5
152	153	5
59	59	4
63	65	2
99	161	7
57	68	2
121	176	1
160	160	5
99	156	6
179	188	1
102	102	1
134	164	5
123	152	1
87	87	2
172	173	3
176	177	8
57	57	2
92	150	4
184	185	3
55	115	3
112	112	6
17	17	4
89	89	5
128	170	3
23	28	1
53	105	1
97	98	2
73	148	3
94	95	1
118	170	3
56	58	5
109	109	2
81	82	5
84	84	5
167	167	5
68	111	1
125	125	5
130	166	4
166	166	7
5	10	5
46	48	1
26	26	5
165	165	6
163	163	6
159	160	3
30	89	1
78	78	4
118	118	1
134	134	1
137	137	4
125	126	1
48	48	1
34	38	3
96	97	2
77	87	1
134	135	3
101	102	7
180	190	2
45	45	5
73	74	6
14	43	1
18	18	3
16	17	3
36	36	5
7	7	4
35	37	1
101	103	2
53	113	5
129	158	6
28	28	3
107	155	1
70	71	2
79	79	6
53	53	3
12	12	6
149	149	4
57	91	2
29	54	5
33	34	3
184	184	1
113	113	3
126	127	2
118	165	3
101	101	3
181	182	3
14	14	7
129	130	2
94	119	4
132	132	2
122	123	2
32	33	3
172	172	4
177	177	7
117	117	5
188	189	3
39	39	4
40	40	3
46	46	1
78	79	1
61	65	3
96	163	3
22	22	7
80	80	2
60	61	5
120	122	7
72	84	3
165	166	4
42	42	5
25	26	9
76	76	4
24	24	4
108	109	1
151	151	6
144	146	3
26	151	2
53	108	2
19	19	8
100	100	3
73	85	3
13	13	5
144	144	1
158	158	4
81	81	2
20	106	2
32	32	7
61	63	1
93	94	2
146	146	3
77	89	1
92	121	2
90	90	3
28	30	1
9	54	3
129	129	6
35	35	10
96	162	5
35	124	1
8	16	2
21	21	3
186	186	7
92	92	9
23	46	3
130	130	3
57	155	3
100	161	4
136	136	4
94	94	4
27	27	5
18	19	1
131	133	1
91	92	3
77	77	3
74	143	1
135	147	1
22	28	1
95	95	1
184	186	2
67	67	5
140	140	2
190	190	4
173	174	3
175	178	3
54	112	5
68	68	4
127	128	2
62	67	3
58	109	3
93	178	2
23	24	2
33	33	2
120	121	4
12	13	2
174	175	1
142	147	2
38	39	2
19	114	1
71	77	2
124	124	1
134	136	5
162	162	2
74	74	4
62	156	1
9	29	1
179	181	2
116	116	6
143	147	3
44	46	2
26	177	1
10	13	1
167	168	3
152	152	5
55	55	2
92	93	2
147	147	1
21	22	2
122	122	1
70	149	1
151	177	1
175	175	1
20	20	1
80	143	2
2	2	3
66	66	1
78	89	1
10	108	2
133	133	2
111	112	1
151	181	1
127	127	3
111	111	2
55	183	1
126	126	3
82	82	1
27	120	1
55	107	1
54	56	2
166	167	3
143	145	1
91	177	2
123	123	3
11	11	5
173	173	1
106	106	1
118	167	1
25	34	2
38	38	3
155	155	5
91	91	6
37	37	1
183	183	2
116	117	2
143	146	1
135	137	1
126	189	2
98	98	1
145	145	2
42	47	5
156	156	2
28	56	1
14	15	1
56	108	5
151	152	1
166	169	1
149	167	1
86	86	1
165	171	1
119	153	1
56	56	1
31	31	2
96	168	1
188	188	1
130	133	1
157	157	1
15	15	2
159	159	1
3	48	1
110	112	1
6	6	1
64	64	2
12	115	1
10	11	1
5	44	1
63	157	1
95	96	1
4	8	1
135	135	1
57	111	2
70	78	1
55	56	1
8	8	1
135	165	1
5	5	2
75	75	1
58	58	1
7	80	1
179	179	1
62	157	1
121	151	1
3	3	1
28	29	1
36	180	1
74	75	1
138	138	1
79	154	1
152	154	1
