44	82	2
115	120	3
101	101	3
104	109	4
42	43	1
103	109	4
87	87	5
24	24	5
61	61	2
45	45	9
100	126	2
133	133	4
25	25	10
60	60	11
4	6	1
112	123	4
125	130	6
28	29	3
18	18	5
97	98	1
17	17	7
112	112	3
127	127	4
114	116	2
126	126	8
95	96	3
113	126	2
116	116	3
123	125	3
59	129	4
68	70	1
27	28	6
13	13	7
36	37	3
8	8	3
94	130	5
19	19	11
87	88	1
57	124	3
71	72	3
62	63	3
34	35	3
38	38	2
15	15	5
40	40	4
17	19	4
112	125	2
23	23	2
94	134	3
11	12	2
108	109	4
58	128	4
84	94	4
39	39	7
20	20	2
67	67	1
124	124	3
13	14	7
128	128	6
78	78	5
86	95	3
1	10	1
18	19	3
1	1	2
119	119	4
103	103	5
84	85	3
7	7	4
93	93	6
92	92	7
35	35	7
105	106	2
35	36	3
95	95	5
132	132	2
68	68	7
80	81	2
122	126	3
30	30	1
66	66	1
29	29	8
110	112	4
65	66	3
107	107	3
71	71	3
83	83	4
27	27	4
50	50	3
77	77	6
47	70	1
4	123	1
59	60	4
100	100	1
12	12	5
114	114	6
113	125	1
79	81	5
118	118	4
108	110	4
22	28	2
120	125	1
24	25	3
86	87	1
81	81	3
34	34	6
134	134	3
131	131	8
36	36	6
42	42	1
10	11	1
47	47	3
113	113	1
37	37	4
104	104	4
3	110	2
97	97	7
51	51	3
10	10	1
44	132	4
104	105	2
94	127	2
123	134	1
14	14	10
4	4	2
21	23	3
102	108	5
16	16	4
124	128	1
65	65	4
99	99	3
110	110	2
121	121	7
94	94	1
55	55	3
44	44	6
43	43	4
115	121	2
106	106	2
122	122	4
15	16	3
22	22	3
84	84	3
125	125	1
58	58	2
46	68	2
111	111	1
46	46	3
0	11	2
4	5	5
33	33	2
11	11	4
45	68	1
31	32	2
56	56	1
107	108	3
57	126	2
72	73	7
66	67	1
84	95	1
76	76	2
126	127	2
79	80	3
108	108	3
129	130	2
69	71	1
14	15	3
91	92	2
104	107	3
57	58	3
104	106	1
75	75	4
43	82	1
83	84	1
121	125	2
109	109	2
73	73	3
57	57	6
86	93	1
69	69	1
74	74	1
115	115	2
133	134	1
47	80	3
41	41	2
124	125	2
85	108	1
3	125	1
20	21	1
85	86	2
14	32	2
60	66	1
16	17	4
0	0	3
93	94	1
26	26	2
67	88	1
102	107	1
64	64	1
17	18	1
70	71	1
94	95	1
117	117	4
32	34	1
121	122	1
46	67	1
79	79	2
9	10	2
57	128	1
70	70	3
68	69	1
6	6	1
11	34	1
2	121	1
120	120	1
112	122	1
64	65	1
98	98	4
9	9	3
45	47	1
62	87	1
3	3	1
66	68	1
82	88	1
127	130	1
40	41	1
56	123	1
107	118	1
113	116	1
