23	23	32
65	68	3
101	101	18
32	52	1
22	29	2
98	98	12
27	27	15
56	56	26
93	96	4
48	48	12
55	57	5
71	72	14
44	56	1
104	104	20
77	77	18
66	66	5
50	50	9
65	65	18
71	73	4
45	46	5
44	84	3
92	92	7
36	39	4
80	80	14
45	45	17
55	90	5
31	31	18
67	68	7
81	81	15
28	28	13
25	25	9
76	76	14
38	39	1
94	95	4
28	44	4
88	88	13
75	75	11
80	81	11
38	41	1
64	65	8
77	78	7
86	86	10
76	79	2
32	32	8
56	57	18
106	107	5
55	55	18
29	29	23
64	64	19
83	85	4
20	20	4
100	101	8
70	70	19
83	83	7
52	52	6
57	57	25
78	87	1
37	38	3
31	46	4
67	67	9
82	87	4
44	45	2
19	25	5
53	53	15
74	74	16
34	34	8
57	58	3
63	63	18
52	91	2
31	32	5
102	102	17
30	30	17
39	39	11
61	61	7
91	91	12
44	44	16
22	25	5
99	99	3
79	87	2
58	58	18
87	87	12
71	71	16
36	38	5
35	35	14
29	60	1
97	98	6
89	89	8
69	69	11
97	97	19
37	37	12
33	67	3
68	68	21
43	70	4
35	70	5
21	21	11
100	102	4
26	27	7
58	59	3
100	100	14
25	27	3
47	90	2
95	96	4
23	30	8
36	36	8
44	47	1
43	43	16
64	90	10
27	28	2
22	22	21
60	60	16
82	82	12
85	86	4
43	45	1
40	40	15
22	24	8
66	67	3
24	50	3
64	89	5
83	90	1
93	93	4
73	73	7
62	62	17
32	90	1
105	105	17
33	33	29
24	24	17
35	86	1
36	81	3
22	23	1
89	90	10
37	39	2
40	41	3
64	66	7
52	53	3
72	72	8
35	36	4
39	41	3
83	87	4
78	78	9
103	103	14
106	106	10
62	88	3
94	94	14
34	67	1
66	82	2
80	82	2
62	63	5
22	30	1
28	39	5
36	37	2
68	73	1
46	46	6
26	26	11
42	42	10
70	82	2
79	81	6
62	89	3
21	50	2
20	21	5
70	79	6
47	47	3
83	89	4
25	26	5
78	79	10
84	86	4
68	74	10
81	82	3
39	40	1
34	70	4
38	38	6
30	46	1
31	50	4
104	106	7
51	51	12
66	71	4
93	94	4
32	33	1
61	62	8
58	83	2
46	47	3
95	98	2
45	49	3
78	80	5
76	77	5
69	77	3
84	84	8
33	34	6
50	51	3
41	41	5
85	85	5
29	30	2
72	78	4
37	41	1
76	80	1
34	50	4
49	49	7
46	90	4
43	61	4
74	77	2
25	107	2
35	50	1
21	30	1
57	84	1
53	92	2
45	91	1
79	79	8
34	82	1
65	66	1
59	59	6
45	47	4
26	28	2
75	76	2
40	42	1
65	92	1
98	99	2
23	96	1
57	85	2
54	95	6
84	85	12
23	59	1
70	72	1
67	74	2
31	33	3
54	54	5
25	28	2
68	92	2
31	100	1
24	31	2
46	67	2
68	69	3
74	76	1
28	46	2
50	99	1
90	90	8
47	48	4
59	60	2
43	62	1
69	78	2
34	69	4
48	49	2
51	74	2
83	88	2
35	37	4
33	97	3
83	103	1
27	49	1
55	56	3
96	96	5
90	91	4
45	90	1
88	89	4
43	84	2
25	106	1
23	24	2
54	92	3
52	95	2
51	54	1
24	59	3
69	70	2
49	50	1
67	71	3
33	66	1
70	87	1
53	56	1
66	70	2
43	44	8
50	52	1
60	88	2
103	105	2
102	103	1
44	64	2
76	94	1
76	102	2
41	42	2
79	80	2
53	63	1
39	61	1
34	45	3
63	67	1
93	100	5
92	93	2
23	25	2
55	100	1
82	83	3
20	50	1
33	91	2
24	26	1
78	81	1
54	99	2
31	54	3
21	23	1
20	33	1
24	104	3
63	64	3
21	22	1
65	69	2
39	62	1
107	107	1
70	78	1
96	99	1
32	91	1
20	23	1
35	78	1
67	83	1
45	84	1
104	105	1
102	104	1
25	50	1
42	43	2
51	52	2
82	84	1
51	68	2
33	64	1
87	88	1
52	54	2
75	101	1
33	68	1
24	96	1
35	65	1
67	82	1
83	86	1
51	53	1
22	57	1
43	54	1
49	71	1
24	106	1
73	74	1
55	78	1
98	100	1
29	89	1
35	82	1
92	94	1
