42	42	1
27	27	3
132	133	2
23	39	6
118	118	4
141	141	10
126	126	7
12	12	5
6	6	6
31	50	1
72	72	6
26	26	3
148	148	11
134	134	4
55	55	3
154	157	3
139	140	4
33	33	2
52	54	4
91	91	7
102	102	6
149	150	3
127	127	4
52	52	3
155	155	2
99	99	2
133	133	2
3	3	4
30	30	8
23	98	2
32	33	7
109	109	3
45	45	4
46	49	7
97	97	6
53	54	1
139	139	3
146	146	2
116	116	4
19	39	2
117	153	4
34	34	10
35	36	3
69	69	6
44	44	4
28	29	3
41	41	6
40	41	5
108	109	6
129	130	3
154	154	3
130	130	8
156	157	2
106	106	1
81	101	1
68	68	3
108	108	18
63	63	1
103	103	7
85	85	6
64	64	3
48	48	1
158	158	8
76	100	7
47	47	12
24	24	3
86	86	3
122	122	2
12	16	1
96	96	1
124	124	2
84	84	3
125	125	3
77	128	3
1	70	1
2	2	3
77	77	4
131	149	3
39	69	3
121	121	2
38	38	4
40	40	4
120	120	4
131	131	1
19	19	2
6	9	2
90	91	1
119	119	2
4	4	4
9	9	1
0	71	3
83	83	1
14	14	1
99	128	1
151	151	2
89	89	3
90	90	2
15	16	3
32	85	4
123	123	1
50	51	3
31	32	1
102	106	2
156	156	2
19	20	2
140	141	1
12	13	2
123	124	2
36	36	1
128	128	3
22	22	1
22	23	1
86	88	4
32	32	4
142	143	3
46	48	2
1	1	3
23	24	2
28	28	2
31	42	1
71	71	2
53	55	1
25	25	4
46	46	2
49	50	1
149	149	1
87	88	3
92	93	3
39	39	3
92	92	3
57	61	1
87	87	1
19	22	2
80	80	4
29	88	4
35	69	1
118	119	1
94	94	4
84	85	1
155	156	4
13	17	3
140	140	2
95	95	2
43	67	1
89	102	1
131	137	1
79	122	2
67	71	1
115	115	2
35	35	4
117	117	1
30	86	2
30	87	2
101	101	1
41	68	2
112	112	2
17	18	1
66	66	3
104	104	2
116	117	2
98	99	1
20	38	1
4	5	1
14	15	2
101	104	1
88	104	3
28	78	2
11	16	1
138	138	1
67	68	1
15	15	2
67	67	2
89	90	1
2	3	1
123	126	2
136	137	2
95	158	1
93	112	1
33	36	1
10	10	1
141	142	1
109	110	1
119	122	1
9	18	1
80	81	1
82	82	1
100	100	1
142	142	1
104	105	1
4	8	1
110	110	1
132	134	1
93	93	2
152	152	1
78	80	1
92	112	2
143	143	1
69	71	1
111	111	1
132	132	1
17	126	1
17	17	1
125	126	1
44	50	1
31	31	1
63	64	1
