74	74	15
64	64	24
41	41	13
80	80	14
69	70	4
86	86	15
36	36	12
67	67	24
72	72	8
92	92	13
51	51	3
57	57	14
46	46	6
37	37	9
83	83	11
92	98	5
28	28	2
91	92	4
29	90	3
61	62	3
32	40	2
66	67	7
76	77	11
26	26	10
60	60	11
69	69	7
85	85	26
93	93	15
100	101	7
56	57	3
95	97	1
67	68	3
79	79	15
70	79	2
57	60	4
95	98	1
45	45	11
23	23	6
96	96	11
50	50	6
84	84	18
44	45	3
34	34	4
78	78	15
93	94	4
75	75	14
26	97	8
95	96	3
32	32	4
58	58	3
42	42	9
73	73	39
51	61	5
101	102	2
39	39	6
66	66	17
68	68	20
70	80	2
77	77	11
75	76	1
71	71	13
70	70	10
69	77	1
62	62	9
48	48	6
99	99	4
81	81	15
38	81	6
44	44	15
63	63	21
45	49	1
45	57	3
63	65	2
101	101	7
43	43	20
47	48	8
52	53	3
71	72	3
34	35	3
91	91	11
68	76	1
37	38	6
45	48	1
35	35	3
29	100	4
26	27	4
76	76	10
33	33	6
33	34	1
94	98	6
78	79	4
53	53	4
63	66	3
38	38	10
82	84	4
20	88	3
26	96	3
57	58	5
87	87	3
20	20	3
33	40	3
64	83	2
59	66	2
25	96	1
79	80	6
22	22	4
25	25	8
38	96	1
49	49	5
94	94	10
82	82	6
27	27	5
29	29	3
88	88	4
86	87	2
72	73	2
39	40	3
47	50	2
59	70	3
54	54	8
95	95	2
63	64	6
62	63	7
72	74	5
90	99	3
68	69	2
65	65	4
58	59	5
84	85	2
66	68	2
44	59	2
20	23	2
89	89	14
90	100	2
96	97	3
70	71	3
90	90	4
64	68	1
33	39	1
61	61	7
33	82	3
27	95	2
75	80	2
41	80	2
80	81	2
40	40	3
60	61	4
35	37	1
81	82	2
69	73	1
31	31	2
52	52	5
73	74	4
68	78	1
64	65	1
91	100	1
35	36	1
75	77	1
30	30	3
54	56	3
80	83	1
85	86	2
29	72	3
52	59	5
62	86	1
44	71	3
89	96	1
52	61	2
99	101	1
98	98	3
65	66	1
86	88	1
82	83	2
64	66	1
59	59	3
28	97	1
33	96	1
35	38	1
31	42	2
100	100	3
56	56	1
53	60	2
25	28	1
48	50	1
88	95	1
71	80	1
47	47	2
86	89	1
21	22	1
47	49	1
77	83	3
91	99	1
97	97	1
23	28	1
