126	128	3
12	37	2
9	9	16
130	133	2
0	1	7
99	99	7
48	48	15
113	144	1
37	39	3
105	105	10
37	37	13
84	85	5
3	27	2
122	126	2
82	83	1
94	94	18
86	122	3
39	40	9
132	132	11
76	78	8
108	129	4
24	56	7
93	93	18
94	121	1
104	119	1
87	87	22
36	36	18
54	55	6
106	106	14
42	42	10
101	101	18
29	29	21
108	109	6
96	97	9
113	114	6
62	63	3
122	122	11
119	120	3
121	121	21
72	97	2
88	88	6
27	28	4
6	6	4
102	102	5
69	69	8
5	13	1
12	13	4
29	41	3
16	16	27
134	134	15
133	133	11
52	52	13
126	145	3
64	65	6
144	144	4
126	127	1
65	70	3
54	54	13
76	76	5
109	109	12
133	140	3
115	115	8
130	132	3
78	78	6
37	72	1
128	128	11
136	136	10
140	140	14
113	113	8
23	24	8
49	49	20
12	12	7
22	26	1
139	139	13
58	58	9
68	88	2
66	66	11
39	39	5
85	100	3
76	146	1
104	104	17
75	77	4
92	108	2
76	90	2
70	71	3
32	33	3
59	60	8
129	129	7
130	131	9
118	118	6
57	57	6
75	75	8
142	142	14
23	23	11
13	13	11
100	105	2
120	122	1
100	100	23
14	54	4
65	106	3
116	116	10
81	83	3
116	146	5
34	34	4
23	25	1
48	49	5
119	125	1
128	130	5
88	121	1
105	109	2
60	79	1
124	124	5
123	123	9
3	3	15
129	130	5
68	69	6
103	117	1
62	62	12
114	136	4
25	25	5
130	130	2
138	143	2
1	1	7
53	67	4
6	11	2
38	38	17
104	107	7
9	39	1
30	31	6
74	74	18
15	15	11
2	2	10
63	63	21
90	90	10
57	60	1
138	138	12
14	41	1
13	17	1
10	10	16
84	84	7
131	139	3
1	3	5
26	26	11
93	96	10
94	95	1
47	48	3
117	117	8
141	142	3
118	125	2
5	5	11
68	68	7
35	35	8
137	137	12
51	64	1
19	19	9
5	20	3
87	88	3
54	61	4
50	50	11
21	21	14
31	41	6
11	11	7
32	32	21
40	40	9
33	55	3
124	126	1
92	111	2
120	128	5
17	30	2
22	22	27
134	143	1
122	123	2
122	125	5
141	141	16
82	114	2
77	77	14
68	91	4
108	108	10
9	10	1
11	27	7
107	107	8
75	76	4
85	85	7
53	53	12
14	14	3
13	29	1
112	141	3
10	26	2
47	59	4
81	81	13
71	74	7
30	30	16
10	22	2
90	91	2
55	56	6
72	72	6
62	68	3
53	82	1
98	101	3
18	18	6
107	108	3
10	15	3
122	124	4
27	27	7
10	36	6
142	143	4
95	95	7
14	23	1
131	132	3
67	67	5
118	119	1
70	72	2
101	102	5
41	41	4
60	62	3
76	77	4
3	25	1
132	133	4
22	23	4
92	110	3
119	119	14
82	109	1
138	139	2
32	43	4
96	98	1
26	42	3
67	68	3
43	49	1
24	30	3
115	116	8
22	27	4
28	28	13
31	55	2
18	19	2
135	135	17
60	86	2
127	127	8
66	67	1
4	15	5
123	145	1
134	135	4
51	85	3
129	132	5
35	56	2
24	24	12
61	95	1
93	105	3
86	86	4
4	36	2
38	48	2
114	114	3
70	70	11
78	79	3
81	124	1
64	69	3
48	60	1
91	91	16
55	55	7
97	97	10
20	27	1
70	87	1
102	117	1
128	129	2
14	36	2
119	138	1
48	52	4
82	82	11
92	118	2
71	72	4
33	34	2
25	72	3
126	126	1
143	143	3
99	107	2
4	4	8
53	58	4
60	60	5
109	110	3
19	35	4
49	58	2
61	71	1
15	16	5
112	119	1
75	87	2
70	73	1
40	41	3
129	138	1
125	125	7
11	33	3
11	34	1
59	70	1
36	43	3
51	52	6
123	143	2
67	71	2
8	10	1
83	83	4
98	98	7
92	105	2
95	96	5
20	25	1
94	97	2
84	92	2
59	64	2
15	36	2
141	145	2
51	51	16
89	89	12
83	84	2
79	87	2
54	56	1
40	96	3
11	40	2
123	127	1
2	6	1
0	3	2
63	64	2
71	71	9
102	103	1
121	146	2
130	135	4
117	118	10
0	9	1
36	49	1
93	94	6
135	136	11
81	84	2
24	62	1
112	125	1
121	140	1
120	126	3
20	21	4
43	66	1
80	84	3
109	112	2
15	100	5
6	10	2
114	119	1
135	137	2
77	97	4
89	90	3
64	66	3
135	138	5
31	31	4
76	79	4
93	113	4
61	61	12
0	22	2
26	64	3
64	64	5
34	37	1
15	30	1
65	66	2
41	74	1
9	38	1
3	15	2
88	89	2
76	87	1
2	3	5
8	26	1
4	29	3
59	87	1
43	43	3
63	72	2
33	58	1
120	120	6
124	130	2
24	27	3
96	96	15
42	70	1
54	99	1
20	20	7
137	138	1
15	136	2
116	127	2
97	99	2
56	61	2
23	56	1
14	35	1
49	52	4
65	65	6
108	110	1
23	58	1
81	121	1
86	103	1
133	134	5
34	35	4
110	110	4
103	108	1
46	52	1
74	75	9
10	41	3
69	96	2
108	127	1
66	79	1
18	41	2
106	107	2
28	48	1
36	41	2
0	0	6
109	111	1
28	29	2
47	47	6
131	131	6
76	97	2
75	79	1
18	22	1
79	79	2
139	140	3
128	138	1
31	39	3
109	117	2
145	145	6
114	116	1
37	143	2
81	123	1
11	31	4
33	33	8
49	54	1
60	61	2
133	135	5
134	141	4
36	98	2
112	112	3
39	41	3
51	66	4
114	131	2
63	68	3
3	28	1
26	40	1
54	73	1
52	56	1
55	58	1
91	108	2
104	105	5
96	113	1
102	126	2
101	120	1
127	130	3
19	21	1
49	50	3
27	41	1
16	38	1
36	40	3
126	129	6
59	63	1
1	24	3
114	115	1
51	57	1
22	48	3
80	81	2
4	6	4
4	5	1
42	43	3
103	104	1
123	125	3
19	22	1
67	97	3
40	43	2
14	15	3
73	77	2
41	42	4
73	73	5
119	139	2
56	56	5
8	11	2
57	58	2
67	72	1
0	23	2
2	15	2
59	59	3
21	27	1
82	85	5
118	121	1
112	113	2
13	14	2
111	112	1
65	67	1
70	99	1
30	70	1
63	85	1
77	79	2
103	103	4
61	62	3
8	8	7
30	65	1
9	11	1
62	87	3
83	85	4
111	113	4
50	73	1
121	122	1
74	78	1
102	142	1
73	74	2
31	52	1
94	96	1
14	30	2
80	86	1
69	70	5
136	137	4
80	80	4
49	59	1
103	121	2
50	51	3
37	38	2
53	60	2
113	115	1
81	86	1
2	12	1
116	117	1
76	104	1
32	37	1
36	47	4
92	98	2
32	42	1
90	92	2
3	29	1
111	111	6
19	56	2
92	92	6
114	144	1
132	140	1
16	17	1
20	35	2
132	135	2
123	124	1
32	35	2
99	124	2
11	26	3
57	62	3
17	17	3
135	141	2
127	134	1
59	146	2
31	32	2
58	61	1
125	126	2
82	107	1
68	97	1
43	48	3
35	36	6
103	143	2
73	99	1
84	96	1
18	33	2
95	97	1
140	143	2
24	25	1
72	75	1
70	95	1
4	33	1
98	122	1
63	73	2
67	73	2
76	120	3
69	98	1
6	24	1
27	70	2
7	28	1
55	61	1
121	124	3
65	71	1
109	124	2
3	5	1
59	89	1
146	146	3
110	133	1
36	37	2
112	143	1
102	104	1
113	133	1
3	6	1
21	85	1
112	118	1
29	34	1
38	39	2
28	102	1
59	66	2
86	88	1
26	27	1
4	18	1
135	143	2
75	95	1
128	131	2
14	20	1
13	43	1
128	140	1
31	57	1
33	43	2
12	15	1
79	80	1
105	106	1
33	98	2
9	31	1
22	35	1
109	126	1
70	88	1
76	81	1
125	138	1
82	105	1
1	5	2
135	144	1
63	70	1
104	122	1
127	138	1
17	63	2
3	26	1
140	141	1
63	80	1
2	21	1
113	117	1
67	74	2
101	122	1
60	74	1
124	125	4
94	98	1
99	100	1
71	100	1
14	21	1
16	31	1
65	81	1
12	29	1
112	114	1
112	129	2
132	138	1
80	121	2
114	117	1
128	141	1
58	62	1
102	124	1
13	34	1
2	14	1
106	123	1
71	73	1
50	52	1
73	92	1
16	39	1
90	96	1
112	132	1
16	59	1
120	138	1
