17	17	10
6	6	5
116	150	1
130	130	9
127	127	6
97	98	3
139	139	19
145	146	5
1	2	3
84	84	7
165	165	10
43	43	3
117	117	11
49	49	9
88	89	2
85	88	2
67	124	2
76	76	16
65	66	1
107	112	5
4	4	15
20	20	10
33	78	4
142	143	4
50	51	6
92	92	3
8	9	2
144	144	13
69	69	2
53	53	11
27	27	20
9	9	7
50	50	9
13	13	7
135	135	14
169	169	8
161	161	6
24	24	2
146	149	7
41	41	7
36	36	6
69	83	1
124	125	3
0	1	3
47	47	13
105	110	3
44	45	2
133	167	1
134	150	5
51	51	12
15	108	7
36	91	4
97	97	2
160	160	5
17	18	2
57	57	12
22	111	5
158	158	3
8	47	2
140	140	6
145	149	5
111	114	2
90	90	11
146	148	3
107	108	1
44	44	6
65	92	4
114	114	4
74	74	9
52	63	3
5	6	1
90	98	1
7	7	3
78	79	1
106	106	2
111	111	6
161	163	4
90	123	5
107	114	1
3	3	11
52	52	6
88	88	6
17	19	4
95	97	6
0	0	3
150	150	4
114	126	3
119	119	4
19	19	5
40	42	3
7	47	2
118	128	1
118	120	1
132	132	5
114	127	5
5	84	3
149	150	2
165	166	3
159	159	3
112	112	3
50	153	1
81	81	4
133	134	5
80	92	3
56	56	13
138	143	5
117	131	1
102	102	8
7	17	1
13	51	3
63	102	1
152	152	7
86	89	1
138	138	3
89	90	3
93	154	2
0	108	2
72	146	2
137	137	6
35	35	3
57	145	1
64	72	1
80	93	3
143	167	2
143	144	2
148	148	4
56	121	1
48	48	5
167	170	3
10	14	4
71	147	5
54	54	3
107	116	4
101	101	9
34	34	11
40	84	5
126	126	10
58	58	2
168	168	12
2	38	2
100	119	3
73	73	3
129	129	9
93	93	8
134	134	5
143	143	6
98	98	1
49	87	3
18	19	1
106	145	3
85	85	11
33	89	1
149	149	7
14	16	4
108	109	3
96	96	4
1	1	6
64	65	9
62	84	1
114	115	3
94	119	1
110	110	7
74	75	1
17	24	4
164	164	4
91	91	7
83	83	3
38	53	2
130	131	5
111	146	3
58	118	1
15	15	4
108	108	6
120	121	2
47	52	4
113	116	3
163	163	17
80	147	3
11	12	2
13	56	6
0	5	3
151	153	2
106	114	1
0	54	2
113	113	5
103	104	3
121	127	1
13	128	1
10	11	3
28	42	4
82	82	8
23	23	4
26	26	3
126	127	6
51	79	3
41	54	2
12	12	11
75	82	3
118	118	8
122	130	1
62	62	1
45	45	4
164	165	8
39	39	5
53	86	4
14	14	2
88	160	2
97	162	2
91	92	2
56	86	1
86	86	2
167	167	3
85	87	3
10	10	6
73	144	1
115	115	1
56	57	1
146	147	2
106	113	2
158	166	4
40	40	2
68	68	5
15	16	3
111	144	3
134	135	6
98	99	1
17	88	3
107	107	8
2	2	6
79	105	2
33	33	3
136	148	3
42	43	1
157	157	6
41	49	1
89	97	2
25	25	6
113	114	1
166	166	3
97	160	3
89	89	6
21	21	5
87	87	4
48	52	6
122	131	1
49	52	3
26	27	2
122	145	1
100	100	3
40	41	2
95	95	2
101	157	2
93	148	3
82	95	3
18	24	2
10	24	2
136	136	5
51	110	1
53	81	3
7	45	2
78	78	5
128	128	1
71	152	3
48	69	1
112	126	3
105	107	3
89	101	1
34	35	2
4	6	2
79	79	5
16	16	1
99	99	4
105	113	2
2	52	4
3	5	3
82	83	4
102	157	1
94	156	2
97	152	2
87	122	2
151	151	3
63	63	6
94	94	2
50	79	1
146	154	1
74	151	3
125	125	1
38	41	1
145	145	1
75	76	1
84	86	1
81	91	1
2	3	2
80	80	4
47	49	2
14	111	1
46	47	2
122	122	4
105	105	4
99	101	1
13	108	2
13	14	1
21	22	1
72	72	1
39	54	1
27	28	2
1	51	2
63	119	2
91	97	2
38	38	2
10	16	2
70	85	4
37	58	1
46	46	4
37	37	5
123	124	2
67	67	1
63	69	2
121	122	2
45	46	1
18	18	5
57	103	3
50	63	2
40	54	1
92	99	4
113	150	1
11	93	1
112	151	1
153	153	2
24	25	2
105	106	1
74	129	2
168	170	1
105	114	3
66	155	4
152	157	2
37	55	4
163	165	1
96	159	3
77	77	2
15	75	1
116	116	2
155	155	1
86	161	1
10	79	2
87	101	2
65	71	2
74	82	3
8	8	2
141	143	1
154	154	1
156	156	2
116	142	1
7	84	1
8	13	1
64	64	1
110	111	1
140	141	1
155	166	3
74	152	1
26	28	2
38	52	2
133	133	1
5	5	1
96	103	1
169	170	1
87	119	2
74	132	1
9	13	1
63	134	1
75	79	1
141	141	2
135	136	1
35	36	1
42	42	1
91	99	1
75	75	1
77	90	1
11	102	2
103	123	1
115	142	1
109	109	1
39	40	1
111	112	1
22	24	1
81	93	1
15	111	1
40	48	1
134	136	1
