84	96	3
17	17	23
101	101	37
13	13	11
93	108	3
17	18	8
1	1	22
98	152	3
184	184	26
145	147	3
79	80	6
167	168	6
42	47	6
114	115	9
59	60	13
19	20	7
88	90	9
156	156	23
168	168	9
42	42	16
157	157	30
154	154	19
14	133	2
2	2	23
11	24	1
181	182	3
121	123	1
133	134	8
94	94	36
131	131	6
79	79	22
169	170	1
67	67	18
18	18	21
109	109	16
148	151	4
62	106	1
66	66	29
164	166	4
187	188	18
38	39	9
185	188	1
150	150	36
28	28	21
123	123	6
155	155	36
108	108	20
144	144	21
109	177	2
77	77	29
119	119	15
75	75	32
130	132	6
16	18	2
169	169	27
115	151	4
166	166	22
106	107	8
35	35	14
141	141	19
26	38	2
89	89	26
20	20	17
71	79	4
56	56	27
11	12	5
55	55	24
174	175	7
115	115	26
73	74	2
102	102	7
174	174	13
48	48	26
12	13	6
36	36	11
88	88	30
80	80	21
67	68	5
52	54	5
41	41	29
100	100	24
86	86	15
15	15	15
182	182	22
141	142	5
145	145	31
187	187	15
139	141	11
170	171	3
120	120	27
7	7	18
84	85	12
57	57	25
62	62	10
103	103	15
112	112	20
62	68	1
111	111	24
129	129	24
127	127	13
157	159	1
60	61	12
39	39	19
95	103	2
63	63	19
40	40	28
142	142	8
2	3	13
158	158	19
106	110	4
96	103	3
76	83	4
92	93	8
101	104	6
27	27	12
32	32	18
162	162	17
37	37	33
160	161	9
105	105	18
53	54	11
62	63	12
97	105	6
52	56	3
124	124	25
87	87	12
109	110	10
116	117	7
110	110	16
102	103	7
179	179	13
103	104	8
165	165	10
52	52	5
134	135	28
122	122	14
129	130	5
137	137	29
180	180	13
74	94	4
136	137	5
117	119	9
78	79	4
160	160	20
95	95	21
53	53	37
126	127	11
28	40	5
184	185	11
61	61	14
10	13	3
142	175	2
76	76	20
90	90	22
178	178	24
71	71	27
128	128	18
130	130	31
104	104	17
15	133	2
2	5	9
65	65	16
19	87	7
84	95	2
176	176	18
9	9	12
16	16	31
13	16	2
26	26	33
117	117	18
136	136	25
121	122	7
99	100	12
185	185	14
161	161	10
114	114	4
58	82	1
62	67	1
101	171	4
140	186	2
81	82	1
118	118	12
177	178	15
18	19	10
4	4	21
155	156	1
74	75	2
5	5	20
139	139	21
46	82	5
90	91	5
170	170	18
45	45	14
91	92	11
53	88	2
91	91	29
12	12	13
135	136	9
177	177	18
76	77	8
7	8	17
126	126	14
79	105	6
3	3	21
8	8	18
122	143	2
3	4	3
99	99	24
148	148	28
57	83	2
153	153	14
53	113	3
117	118	5
23	23	11
19	19	15
74	74	20
81	81	17
70	70	12
11	13	4
146	146	13
33	34	10
125	126	2
27	32	10
25	48	2
79	173	2
125	125	17
82	82	11
6	7	17
6	6	19
183	183	18
188	188	20
117	151	5
152	152	15
112	177	4
86	93	5
15	16	10
71	75	3
189	189	18
85	85	14
88	89	5
42	43	3
21	21	10
106	106	14
186	186	17
133	135	6
72	72	12
143	144	5
177	179	2
133	133	29
171	171	13
163	163	19
138	167	5
94	131	3
166	172	3
84	84	13
0	0	20
27	28	9
28	29	11
97	97	19
113	113	15
119	120	4
165	184	2
22	22	16
127	128	2
23	24	18
57	84	4
115	165	2
43	43	7
83	152	5
130	131	5
169	182	2
143	143	37
151	153	2
29	29	17
120	121	6
85	96	2
135	135	19
164	188	3
20	22	2
134	134	10
96	97	8
31	31	16
54	54	10
38	44	1
68	69	6
76	103	2
73	73	19
78	105	1
17	23	2
34	35	4
137	138	7
83	83	20
146	149	5
66	67	7
173	173	21
79	172	3
54	84	3
152	189	2
24	24	22
26	41	1
167	167	12
101	142	1
14	30	1
95	96	4
30	38	2
182	183	4
88	91	2
168	169	8
61	65	3
107	130	1
101	102	20
77	169	3
149	149	35
38	40	3
148	150	5
121	121	21
97	98	3
61	62	8
96	96	11
89	90	2
63	64	6
176	177	4
14	14	21
6	8	5
8	22	4
151	151	15
142	151	2
10	11	2
111	177	5
173	174	9
77	78	7
147	147	13
56	123	1
87	93	3
113	114	6
140	140	15
159	159	13
181	181	17
94	107	1
98	109	4
31	35	4
146	147	10
116	116	6
64	64	14
141	167	1
39	47	2
79	81	4
46	46	10
25	25	12
116	162	2
148	149	3
126	144	2
27	29	4
65	66	9
44	44	9
157	158	6
121	146	6
37	38	6
148	163	2
92	92	12
10	18	4
101	103	3
174	176	4
74	84	2
7	9	5
131	172	1
109	175	1
57	71	1
97	128	1
47	49	5
12	137	7
108	109	11
64	66	3
68	68	23
6	15	2
94	96	3
75	76	11
26	37	5
72	100	4
175	175	22
156	161	2
82	83	7
159	160	13
30	30	12
71	82	3
87	106	5
125	141	4
115	116	2
11	11	10
152	153	7
54	114	4
4	8	2
76	79	2
151	152	7
154	155	4
38	42	4
179	181	1
16	17	7
29	64	2
156	157	3
183	184	7
24	37	1
47	48	6
173	176	3
55	56	5
52	53	5
128	130	1
134	178	5
151	159	5
93	93	7
86	87	1
126	129	3
132	132	4
19	23	3
156	159	2
45	81	4
147	148	2
124	126	4
100	103	1
160	162	1
134	158	2
114	116	3
21	22	6
180	182	2
36	37	5
68	144	1
74	107	4
122	123	6
190	190	7
10	10	15
24	25	8
100	101	5
63	72	2
56	57	8
163	170	5
47	47	13
54	111	2
41	42	4
150	154	2
33	33	7
28	44	4
112	173	3
85	97	3
35	36	4
0	4	2
78	78	20
88	94	1
91	108	3
166	167	6
166	183	2
141	152	3
84	113	3
144	166	2
94	106	2
53	55	5
86	110	3
46	47	7
48	84	2
24	26	9
105	106	1
83	111	2
138	181	3
45	46	9
44	115	2
113	170	2
4	5	3
56	71	3
149	150	2
138	139	11
182	184	1
171	172	2
107	107	10
180	181	1
14	36	1
58	126	2
164	165	4
12	49	1
53	111	4
96	136	4
27	31	4
75	91	1
153	154	2
164	164	6
59	59	13
158	162	5
124	125	3
1	16	1
77	108	5
132	134	1
67	100	1
55	112	4
160	188	1
11	44	3
27	41	2
138	138	15
88	92	1
157	160	2
172	172	1
115	174	1
0	1	2
25	41	3
163	190	1
185	186	5
98	98	11
31	37	2
58	125	3
1	2	4
61	66	1
158	160	1
112	113	1
9	10	2
150	151	2
95	106	4
179	180	2
112	119	1
1	5	1
32	35	4
142	170	1
167	183	1
58	58	8
61	63	1
34	34	12
121	144	1
13	25	3
110	114	5
66	105	1
26	34	2
66	68	1
188	189	6
14	15	7
86	96	1
55	88	2
44	47	2
165	166	5
27	37	2
76	90	2
72	81	2
129	135	2
140	142	2
189	190	5
85	95	4
21	52	1
38	48	3
90	155	2
5	18	2
128	190	3
60	62	1
96	104	1
19	21	3
82	108	1
39	82	4
140	141	6
38	38	10
40	41	8
57	58	3
163	164	5
71	72	3
24	34	3
94	95	6
43	44	5
127	186	1
119	147	2
54	55	4
86	111	5
109	111	1
173	175	2
96	135	1
45	47	1
135	140	2
13	87	3
18	27	2
116	119	2
175	176	10
93	107	2
139	153	1
176	178	2
149	174	2
73	75	1
14	35	3
87	88	4
70	71	4
37	42	2
142	145	1
98	118	3
93	94	7
181	184	2
121	141	3
55	72	1
91	95	1
13	86	3
80	81	1
155	176	1
144	145	2
74	156	1
81	157	3
88	109	1
111	112	4
24	48	4
110	111	1
127	135	1
85	86	2
47	66	3
77	101	3
20	90	4
74	81	2
154	165	2
11	26	2
160	166	2
58	59	7
121	142	1
69	69	1
161	169	1
67	71	1
13	43	2
82	109	1
119	127	1
28	38	1
161	164	2
150	162	3
177	181	1
83	84	4
104	105	5
25	26	4
32	33	2
156	160	2
136	178	1
87	110	1
126	128	1
77	79	2
72	109	1
30	63	3
79	157	1
89	91	3
74	127	4
152	154	1
12	33	3
27	30	1
44	45	3
135	173	2
83	129	1
19	86	2
75	79	1
73	85	1
5	6	3
47	67	2
4	6	3
62	66	2
42	81	1
31	62	2
85	94	3
76	109	2
161	162	5
88	95	1
154	174	1
171	173	3
56	72	3
60	60	4
103	105	1
162	163	1
179	186	4
111	172	4
97	137	1
39	41	1
10	30	1
16	44	3
114	130	1
14	132	1
130	133	1
161	163	2
72	82	1
33	35	2
98	99	1
25	34	2
159	162	1
124	127	1
21	86	2
108	176	1
105	110	2
6	42	1
170	175	2
157	162	1
161	171	1
154	157	2
85	87	3
135	137	1
118	119	8
138	183	1
149	151	1
42	78	1
118	166	4
171	180	2
123	124	2
30	32	1
97	99	3
48	86	1
126	186	3
124	129	1
14	24	1
172	173	1
31	32	2
170	172	1
186	187	3
16	24	1
64	65	1
78	172	2
132	133	1
137	180	4
87	95	2
121	127	1
121	150	1
86	154	2
136	190	1
20	23	2
2	7	1
113	186	1
70	99	1
159	161	2
102	104	1
142	174	1
13	32	1
126	130	3
118	164	1
77	170	1
158	159	1
148	175	1
186	189	2
153	165	2
79	169	2
98	169	2
107	108	2
38	41	1
25	30	1
0	6	1
98	178	1
13	14	1
166	168	1
176	180	1
4	7	1
123	135	1
78	83	2
186	188	1
17	20	2
47	115	1
84	112	1
60	63	1
58	60	1
119	128	1
63	139	1
106	129	1
85	88	1
178	179	1
17	73	1
108	175	2
142	143	1
40	48	1
27	34	1
100	105	1
115	133	1
21	23	1
71	85	1
168	170	1
53	82	1
14	42	1
