121	122	2
155	155	1
26	26	6
1	1	1
141	141	2
65	68	3
96	99	1
6	16	1
35	35	6
138	138	6
65	66	3
15	15	4
97	97	1
57	57	1
4	18	1
18	18	1
9	10	5
57	58	1
4	4	2
45	45	6
105	106	2
51	73	2
100	100	7
74	79	2
50	53	2
159	159	2
36	36	8
145	145	9
124	124	5
12	18	2
47	90	6
83	85	5
46	75	2
7	8	9
8	12	3
9	9	8
86	86	2
133	133	4
152	152	3
129	131	2
44	44	1
164	165	5
54	54	5
80	80	8
119	126	4
20	20	3
48	49	1
88	88	4
135	135	7
102	103	2
53	53	4
136	136	3
11	12	9
35	66	1
102	104	2
126	127	2
84	84	2
73	73	10
109	109	5
127	127	4
131	131	7
34	34	1
65	87	2
7	7	5
64	64	3
161	161	2
38	38	1
124	125	5
50	50	4
105	111	8
37	37	1
113	114	4
71	71	3
6	6	2
74	75	2
40	41	6
144	145	4
147	147	1
168	168	4
130	131	2
43	44	1
117	126	3
11	19	1
110	110	4
12	12	3
93	95	2
7	16	7
85	85	2
74	74	2
91	92	1
83	103	3
70	70	2
157	157	6
40	107	4
92	100	2
107	107	3
128	128	1
98	98	1
33	34	3
55	72	5
68	68	2
102	102	1
11	23	3
165	165	2
21	21	2
41	41	3
106	107	3
42	43	1
151	151	5
100	104	2
45	53	4
48	48	8
108	108	2
13	15	4
22	23	5
2	2	4
27	27	3
117	117	3
168	170	1
76	81	1
4	17	1
79	79	2
69	69	3
87	87	4
111	111	4
64	71	2
38	42	1
90	97	1
125	125	1
149	149	2
34	35	2
23	23	4
119	119	4
49	49	1
143	143	2
104	104	5
53	74	3
137	144	1
112	144	1
9	56	2
81	81	2
137	137	3
81	82	2
158	158	4
162	166	3
129	130	3
65	67	3
132	132	4
78	78	6
166	167	1
77	82	2
102	105	3
118	118	1
121	124	2
138	144	4
89	90	1
14	14	1
89	89	1
127	131	1
20	21	3
123	169	2
164	164	2
106	146	1
148	149	1
142	142	1
143	144	2
103	105	2
38	106	1
76	77	1
156	156	2
160	160	7
0	0	1
40	106	1
163	163	1
114	114	1
36	88	1
39	146	3
153	153	1
71	75	2
7	11	2
40	40	1
81	101	1
139	139	1
71	72	1
36	37	2
35	36	3
130	152	1
11	11	3
105	105	1
144	144	2
91	91	1
90	91	1
97	99	2
79	80	1
42	42	2
4	5	1
83	128	1
52	74	1
105	131	1
106	148	1
128	129	3
98	116	1
137	138	1
45	92	1
25	25	1
148	148	3
146	155	2
23	58	1
129	135	1
140	162	1
111	119	1
88	89	1
151	152	3
25	27	1
55	55	1
162	162	1
44	78	1
15	16	1
35	76	1
108	109	1
115	116	1
122	122	1
96	96	1
34	43	1
66	88	1
8	8	1
14	57	1
70	71	1
120	122	1
