42	42	13
152	152	8
110	143	2
39	39	3
50	50	8
98	100	1
170	170	2
103	150	1
29	29	6
0	41	4
53	142	8
92	100	1
160	161	3
16	17	2
87	87	4
148	149	4
118	119	1
79	79	5
164	166	2
102	111	2
32	33	1
71	83	4
4	4	5
144	170	3
33	34	3
31	31	6
174	174	3
88	129	3
111	122	2
61	174	6
175	175	1
34	34	3
180	180	6
159	159	7
89	90	3
67	67	3
111	174	1
82	86	5
104	104	1
91	91	2
148	161	2
113	155	4
94	162	2
92	92	6
30	30	1
110	110	5
101	107	3
89	129	5
169	169	3
101	108	6
46	52	1
168	168	7
133	133	4
133	155	2
145	169	1
91	98	2
150	150	2
151	152	3
29	33	2
103	104	4
62	62	3
19	19	1
107	109	3
115	115	2
8	10	1
127	127	2
171	171	4
3	23	1
102	103	3
146	147	2
50	52	3
96	96	3
93	144	4
1	1	1
142	143	4
124	124	1
140	140	2
5	5	1
17	20	4
84	84	3
9	9	2
125	125	2
25	39	1
128	169	3
171	172	1
14	17	2
11	11	2
151	158	1
18	18	3
43	44	2
61	173	1
147	147	2
7	45	4
169	171	1
95	95	1
93	146	2
13	13	1
98	98	1
149	149	5
60	119	4
85	85	4
50	80	1
138	138	1
155	174	1
119	119	7
1	3	1
61	62	4
118	118	4
123	173	4
135	136	3
105	126	3
162	162	1
123	124	2
167	167	3
24	41	3
155	156	2
50	51	1
147	149	4
41	42	6
120	160	3
60	61	1
122	122	2
114	174	4
58	131	1
134	134	3
127	128	5
63	64	2
26	26	3
55	135	1
176	176	2
130	131	3
91	124	2
102	110	3
83	83	2
72	73	4
168	169	1
64	84	1
164	164	3
2	2	2
5	24	2
44	44	6
11	39	1
165	166	2
165	165	4
166	167	6
97	97	2
74	74	5
12	30	1
161	161	6
56	63	2
141	141	3
7	41	3
66	67	2
90	132	2
67	68	2
29	40	6
98	99	1
107	107	2
57	135	1
152	172	2
122	180	4
82	82	4
54	54	2
111	111	1
45	45	2
109	109	3
173	173	1
132	132	2
144	144	3
98	147	5
117	117	2
119	161	2
24	25	4
99	99	2
56	56	4
81	82	2
38	38	3
112	121	1
38	40	3
157	157	1
6	6	5
36	38	1
23	23	4
123	149	1
2	3	1
29	30	2
134	135	1
125	172	1
13	16	2
153	154	2
53	140	3
14	15	1
59	59	2
92	95	1
151	153	3
72	72	2
114	173	1
89	164	1
28	28	2
122	159	3
103	114	1
146	146	2
66	66	10
51	51	1
3	4	3
106	106	1
42	43	3
154	173	1
93	93	1
179	179	3
124	125	1
88	130	1
144	167	1
5	25	3
163	164	2
105	127	1
90	92	1
105	106	2
66	68	2
129	130	1
88	89	2
108	108	1
61	61	1
22	38	2
154	154	1
30	31	2
112	115	1
86	123	1
22	23	4
53	141	1
163	163	2
115	116	1
12	12	2
156	176	3
137	137	2
68	68	3
80	81	1
0	0	1
63	63	1
106	127	1
40	40	1
104	139	2
18	19	1
25	28	2
77	77	3
71	71	2
147	148	1
85	173	1
141	142	2
32	35	1
37	38	1
88	147	1
148	148	1
6	36	1
73	73	1
139	139	1
24	24	1
27	28	1
60	63	2
59	63	1
160	160	1
119	120	1
121	121	1
27	27	3
156	158	1
65	65	1
111	163	2
39	40	1
35	35	1
102	113	1
100	101	2
55	139	1
