145	174	5
28	186	3
159	159	11
152	152	9
60	127	4
116	116	15
169	169	10
27	27	8
67	67	17
196	196	10
151	151	14
236	236	10
69	71	3
182	182	4
147	147	8
58	59	8
56	57	7
41	201	3
106	106	13
205	206	6
125	125	7
70	70	15
128	128	7
39	189	3
30	31	3
183	183	10
167	167	6
108	130	5
60	61	2
73	74	2
182	198	5
220	220	14
25	25	6
38	39	2
43	44	3
28	187	5
55	55	9
178	201	1
165	165	15
184	184	7
169	217	7
58	58	12
193	193	8
120	120	12
186	186	5
71	113	1
81	82	3
213	213	3
208	208	4
10	10	8
71	141	6
43	45	1
52	52	2
176	176	5
237	237	10
195	200	3
172	172	8
109	109	4
223	223	5
1	39	1
160	160	11
124	125	5
230	230	6
142	142	2
141	141	9
233	233	8
34	35	1
23	23	4
156	159	1
226	231	2
7	7	9
198	198	14
62	62	11
97	134	2
209	209	10
192	192	7
153	153	10
24	24	11
99	99	6
53	53	3
145	204	1
144	144	15
71	74	3
36	36	6
108	108	1
120	175	4
68	69	4
150	150	4
177	177	6
83	83	4
62	63	8
43	43	4
95	95	6
18	18	9
185	185	9
133	133	8
97	135	2
77	77	4
114	127	1
30	30	8
68	127	1
187	187	6
34	189	3
164	165	4
171	171	12
100	100	6
101	102	6
36	37	7
199	199	6
231	231	8
204	204	4
119	158	4
189	189	7
5	5	9
145	145	5
225	225	11
76	77	2
175	175	7
170	208	1
71	148	1
103	103	9
59	59	9
172	206	3
238	238	2
134	134	5
9	10	4
111	111	5
214	214	9
139	139	11
179	179	13
226	226	8
179	218	7
54	191	2
43	46	3
204	206	2
74	148	5
119	152	3
85	128	2
143	144	2
51	51	10
174	174	14
235	235	11
22	22	15
148	148	3
52	53	3
28	28	13
153	154	8
112	112	4
61	62	5
105	105	9
79	80	3
79	79	8
25	27	1
61	61	3
188	190	2
147	149	4
181	181	10
202	202	23
41	199	2
63	192	2
183	184	5
85	85	6
227	227	9
186	187	7
97	97	7
176	180	2
31	31	3
40	182	1
63	186	4
190	190	6
117	117	6
119	119	1
81	84	5
41	200	3
191	192	6
128	130	1
167	213	3
218	218	3
67	123	4
84	84	6
234	234	14
161	161	6
30	32	6
4	4	6
207	207	5
21	21	8
5	6	2
150	152	1
200	200	9
102	103	2
154	154	8
107	107	2
47	48	9
182	183	5
227	228	6
28	39	1
129	130	3
173	173	6
42	200	5
56	192	1
212	212	8
34	34	4
143	143	5
69	69	9
75	75	2
19	19	13
16	16	4
66	66	4
206	206	3
123	123	3
114	114	3
78	78	2
228	230	1
119	154	3
108	129	1
130	130	4
82	82	6
120	159	2
178	178	3
21	53	2
216	216	9
131	131	7
161	205	6
79	84	1
155	155	14
232	232	3
137	137	10
18	19	3
179	199	4
91	106	1
213	215	2
203	204	5
197	197	7
189	198	2
234	235	1
47	47	5
33	33	6
210	210	8
166	166	9
156	156	13
116	117	7
222	223	4
37	37	2
99	102	2
121	121	4
46	46	9
29	29	10
6	7	3
144	147	4
74	139	3
119	156	1
39	39	7
221	222	6
146	146	5
211	211	3
229	229	6
136	136	2
182	185	3
48	49	5
45	45	4
122	122	3
118	118	3
19	20	6
201	201	8
102	102	10
242	242	6
175	202	3
20	51	1
72	128	1
60	60	2
132	133	1
44	46	2
195	195	5
200	201	4
168	213	2
64	192	1
82	83	1
173	206	3
149	150	4
81	83	5
2	2	4
30	33	3
228	228	7
44	44	5
207	208	8
145	149	2
208	209	4
104	114	2
63	64	2
40	40	7
72	72	6
29	38	1
58	60	2
48	144	2
203	203	3
214	216	7
104	104	1
115	115	8
26	26	5
15	15	5
42	42	10
162	162	5
184	185	3
17	17	3
135	135	6
146	172	1
194	195	3
96	96	11
14	14	3
86	128	2
54	55	4
62	64	1
66	67	2
0	0	2
240	240	3
213	216	1
2	34	2
32	36	2
14	15	10
68	68	3
152	153	1
42	157	2
80	80	6
160	174	2
187	188	4
8	11	2
235	236	4
164	164	5
145	146	2
31	32	2
59	60	1
168	168	6
42	198	4
99	100	5
90	108	2
3	27	2
215	215	4
113	113	1
221	221	6
121	149	1
49	50	3
88	88	2
234	236	1
194	194	4
231	232	3
71	71	2
60	100	3
43	65	1
123	124	2
12	12	7
40	41	3
192	193	2
167	212	1
36	39	2
9	9	8
182	184	3
220	223	1
19	22	3
86	86	4
149	149	6
212	213	2
217	217	3
32	33	4
192	196	5
20	20	5
202	203	4
225	231	2
156	158	2
140	140	5
122	150	3
122	151	3
57	57	1
60	70	3
74	74	2
59	127	1
86	88	1
179	207	1
64	65	5
179	181	2
115	116	3
50	50	2
161	174	2
158	158	2
146	174	1
65	122	2
185	199	1
52	57	1
177	201	1
136	137	1
8	8	3
202	204	4
217	218	1
101	101	4
38	38	7
15	27	1
127	127	3
179	180	3
222	222	18
1	18	1
233	234	3
1	1	3
180	202	5
23	50	3
225	226	1
13	14	4
65	153	1
193	196	2
63	63	4
146	203	1
76	76	3
201	202	5
110	110	1
70	149	2
59	67	2
48	48	1
42	44	1
11	11	6
47	121	1
81	81	3
196	197	1
126	127	1
6	6	1
26	27	1
155	157	1
155	194	2
52	56	1
24	25	1
157	175	1
219	219	3
111	112	1
30	36	1
138	138	1
2	3	2
134	135	1
26	54	2
37	38	1
69	70	3
73	73	2
165	166	2
56	56	4
178	180	2
89	89	2
119	151	1
61	214	2
124	151	1
19	191	1
32	32	2
174	202	1
162	176	1
49	49	1
65	65	4
60	68	1
64	64	2
9	11	1
75	76	3
133	134	1
215	216	1
223	224	2
57	58	2
181	182	1
71	72	1
10	11	4
161	176	3
29	30	1
191	193	1
241	241	1
190	196	1
232	233	1
239	239	1
197	198	2
50	62	1
163	164	1
210	211	2
70	175	1
163	165	1
240	241	1
191	191	2
161	173	1
80	84	1
1	17	1
65	66	1
167	170	1
224	224	2
19	50	1
2	36	1
56	194	1
84	85	1
166	209	2
175	176	2
180	180	3
41	42	1
6	35	1
3	8	1
84	98	1
214	215	1
140	141	1
199	200	1
3	3	1
54	54	3
23	24	1
146	147	2
155	156	1
165	177	1
39	187	1
96	97	2
153	155	1
129	129	2
211	212	1
80	81	1
84	101	1
162	163	1
69	128	1
40	198	1
43	49	1
157	157	1
67	127	1
88	105	1
1	16	1
188	189	1
46	47	1
147	148	1
205	205	1
97	136	1
137	138	1
118	124	1
195	196	1
114	126	1
13	22	1
1	55	1
