124	124	7
18	18	6
64	64	5
59	65	2
118	118	2
94	95	5
124	125	5
115	115	2
58	59	6
46	46	10
17	17	8
36	36	5
70	74	6
32	32	2
68	68	6
19	19	6
38	40	5
121	122	2
113	113	5
23	23	6
10	11	1
0	0	6
111	112	3
104	105	2
69	70	3
17	33	2
40	41	5
101	114	1
19	22	2
87	87	6
21	21	9
128	128	2
35	37	2
42	42	5
23	24	3
85	85	8
6	12	6
11	11	10
27	27	5
79	79	1
65	65	2
122	123	2
39	39	7
125	126	4
80	80	1
82	83	4
45	45	7
93	93	9
28	29	8
77	77	7
68	69	1
5	5	4
30	30	4
122	128	2
112	112	2
102	102	5
122	122	5
90	91	4
39	55	1
112	113	5
10	12	2
75	75	2
59	59	7
81	81	2
96	97	3
37	37	8
106	106	6
132	132	2
22	22	6
88	88	9
4	16	2
35	36	6
117	117	16
111	111	7
65	69	1
38	38	4
70	70	4
83	83	5
134	134	2
10	10	5
56	56	7
29	29	4
71	73	1
103	103	2
44	44	7
48	48	5
20	21	2
61	61	5
1	1	4
97	97	11
107	108	3
118	119	2
9	9	7
69	69	9
116	117	2
62	63	6
115	117	2
110	133	2
110	110	1
128	129	2
126	126	4
124	127	1
121	128	3
62	62	5
12	12	6
20	20	7
92	93	4
11	18	2
99	100	5
133	133	2
109	133	4
109	109	1
107	107	3
121	121	2
76	76	4
114	114	3
113	115	3
108	108	5
42	54	1
119	119	4
57	57	2
24	34	2
83	84	2
108	109	3
3	3	1
99	99	1
78	78	5
84	85	2
123	123	1
87	121	2
108	110	1
24	36	2
87	130	1
31	31	7
39	51	3
125	125	9
19	21	3
38	39	2
33	34	1
95	95	3
25	25	3
60	77	1
50	50	1
99	114	2
91	91	5
26	26	8
127	127	1
12	13	1
121	123	5
4	5	1
89	90	1
28	28	4
72	72	3
27	29	1
59	108	2
13	13	2
27	28	3
130	132	3
73	73	5
82	82	3
87	97	2
34	34	6
101	102	1
94	94	4
15	15	1
39	42	2
26	27	2
61	62	6
11	12	1
129	130	2
84	84	1
60	60	3
1	33	1
123	127	1
100	100	1
132	133	1
36	38	2
16	16	1
41	42	1
58	58	4
119	120	5
66	66	2
78	80	2
67	69	1
101	101	4
14	14	5
71	71	1
130	130	2
7	7	4
33	33	4
120	120	5
105	106	2
16	26	3
2	2	1
22	44	1
67	67	1
15	16	2
73	74	2
60	78	2
79	80	3
72	73	2
131	131	1
17	34	1
115	133	1
25	26	1
94	97	2
58	103	1
109	110	1
2	3	1
14	15	1
18	33	1
113	130	1
120	121	1
81	82	1
90	90	1
107	134	1
82	84	1
24	24	4
6	7	1
17	18	1
99	115	1
105	105	3
49	49	1
85	86	1
88	122	1
35	35	1
6	6	2
79	81	1
22	31	1
