1	4	1
55	55	11
49	49	21
2	2	17
17	17	18
13	13	7
52	53	10
39	59	8
0	1	5
22	23	11
50	50	9
3	3	14
14	20	10
7	7	12
23	37	2
4	12	4
9	9	12
14	60	1
30	30	25
42	42	8
15	16	7
18	18	9
8	8	16
43	43	18
49	50	3
33	33	18
16	16	23
24	24	12
36	36	10
4	4	15
1	24	4
4	56	4
13	42	4
0	0	8
52	54	4
6	40	1
6	45	5
12	12	10
54	54	12
40	40	8
5	5	9
46	54	2
53	54	4
34	34	21
56	56	21
14	25	1
23	24	3
2	45	4
41	41	13
13	17	6
61	61	13
38	39	7
11	57	7
23	23	13
55	56	4
7	31	3
0	30	7
21	21	11
22	22	32
3	11	4
40	42	4
45	47	6
21	22	9
35	35	13
10	10	7
16	18	3
48	48	19
4	5	4
4	9	2
15	15	4
62	62	12
38	38	12
20	20	14
6	32	3
1	10	2
32	32	8
6	37	8
30	50	1
1	58	3
60	60	14
59	59	9
58	60	8
21	44	3
53	56	8
58	58	10
44	44	20
24	37	2
48	56	2
8	42	4
51	51	15
0	33	3
37	60	4
43	44	2
19	20	5
17	21	4
22	40	2
46	47	7
8	11	5
51	54	7
14	18	7
43	45	5
11	11	13
60	61	1
14	14	13
6	7	11
7	54	1
8	50	3
5	38	2
35	36	7
57	57	15
45	45	24
40	41	5
7	8	3
18	19	2
11	12	10
10	20	3
47	51	7
33	46	5
17	18	5
30	47	2
31	32	7
58	59	2
6	6	10
8	40	4
2	5	1
10	11	4
46	46	13
52	56	1
14	58	4
52	52	17
21	23	4
12	13	5
30	32	1
20	21	5
25	57	2
29	47	1
3	4	3
44	45	5
46	50	1
14	16	2
31	31	8
2	10	2
7	51	3
37	40	2
19	19	18
5	20	2
1	11	1
0	62	1
37	37	6
16	40	1
39	46	13
48	60	2
56	62	2
21	59	4
5	56	3
44	54	2
37	53	1
19	59	2
13	15	6
30	40	1
1	3	4
57	58	1
30	62	1
33	34	3
55	61	2
25	39	2
1	1	10
44	50	3
41	53	1
22	58	1
38	41	4
26	57	1
13	22	2
50	51	4
4	6	2
16	19	3
33	61	3
37	39	4
53	53	3
6	24	2
23	25	2
40	45	1
48	52	1
32	43	4
42	43	5
32	49	3
39	39	4
34	42	1
2	25	4
2	3	2
30	61	1
15	19	1
46	55	1
0	11	3
14	15	3
52	57	2
8	9	3
54	55	2
45	46	3
10	51	2
30	52	1
47	47	6
39	60	2
47	48	1
9	46	1
21	24	3
59	60	2
24	56	2
3	25	1
25	25	2
25	46	1
38	59	3
3	47	2
17	49	2
45	56	1
55	57	1
4	46	1
12	19	2
8	32	2
51	53	3
12	57	1
7	30	2
50	54	1
41	54	3
31	42	1
22	56	2
19	38	3
37	46	1
22	24	1
14	19	1
22	38	2
37	38	4
30	31	4
15	18	3
1	8	3
16	17	2
2	57	1
10	50	1
26	26	3
41	56	1
51	52	1
25	58	3
53	57	1
30	42	3
40	46	1
8	10	1
0	16	2
41	47	2
2	22	1
6	38	1
9	11	3
2	58	1
6	44	1
50	52	1
14	38	1
39	47	1
12	17	3
13	50	1
33	37	1
0	12	1
12	16	1
46	52	1
3	24	1
14	17	1
37	42	2
13	16	1
5	6	1
32	42	1
13	14	2
39	58	1
13	20	1
20	47	1
1	13	1
37	55	1
33	55	1
17	20	2
32	61	2
17	45	1
5	9	1
39	55	1
11	24	1
55	60	1
34	35	1
12	47	1
