99	102	2
101	102	1
6	7	8
113	113	6
63	64	3
63	116	1
128	128	2
103	104	2
50	51	2
12	12	8
59	59	4
30	31	4
51	53	2
95	96	3
105	107	2
72	74	5
17	17	2
93	93	2
47	47	4
108	108	3
5	5	1
49	49	4
81	81	2
91	91	1
26	26	1
2	27	3
117	117	4
60	71	1
5	13	5
43	45	10
57	57	9
50	50	3
95	95	8
65	66	2
53	53	7
86	86	3
113	133	2
97	100	3
88	108	3
64	64	6
30	30	8
51	52	2
79	79	8
110	124	2
67	67	3
75	75	5
98	100	1
109	109	5
28	29	5
21	33	1
63	63	6
51	51	18
65	84	3
123	123	8
30	39	2
129	129	5
119	130	6
52	52	6
31	32	3
42	44	1
74	74	4
89	90	1
39	39	4
50	110	6
0	0	3
127	131	4
127	130	1
1	1	4
128	130	5
80	81	3
112	112	6
78	78	3
31	31	3
124	124	3
3	28	1
59	61	4
50	81	1
19	31	3
44	44	4
34	34	7
89	93	1
21	21	1
3	27	1
87	88	2
94	98	2
71	71	2
61	70	1
13	13	2
41	41	4
105	105	1
56	56	3
47	48	1
61	61	2
119	119	1
1	2	6
16	16	2
15	15	6
65	106	2
110	110	5
51	80	1
3	31	2
55	59	1
7	11	3
128	129	2
60	65	1
102	105	1
103	103	2
88	89	2
127	127	1
2	2	2
92	92	2
98	98	3
122	122	7
83	83	3
100	100	1
9	11	2
118	130	1
111	111	1
24	53	1
76	76	4
9	10	1
113	114	3
13	16	2
32	33	2
76	83	2
65	75	2
22	22	3
9	12	2
60	70	4
6	6	1
62	70	2
96	96	1
48	48	4
21	24	1
94	94	1
72	72	2
87	87	1
14	14	1
68	68	1
42	61	2
92	93	1
107	109	1
117	118	1
19	19	1
89	89	1
69	69	2
112	113	2
40	71	1
54	54	2
38	39	1
73	73	3
42	110	2
106	116	1
65	116	1
81	82	1
132	132	3
7	7	2
12	19	1
24	33	1
84	84	1
33	33	2
58	58	1
27	27	1
104	107	1
33	34	2
71	75	1
14	15	1
102	102	1
49	124	1
94	122	2
8	9	1
120	121	2
64	66	2
8	8	1
77	77	1
48	93	1
115	116	1
19	20	1
27	28	2
129	130	3
102	104	1
10	10	1
64	65	1
71	72	1
114	114	1
57	58	1
