111	112	4
47	47	4
204	204	7
177	177	6
119	119	12
86	86	11
82	83	2
11	44	2
97	97	12
161	162	2
48	69	2
214	214	7
192	192	5
155	156	4
102	103	8
186	186	8
172	177	8
27	27	9
174	174	6
169	171	1
189	189	8
235	235	2
194	195	2
192	193	1
157	157	8
104	157	2
49	51	2
28	28	8
49	49	3
101	103	1
166	169	3
24	45	3
246	249	1
78	78	4
7	7	6
179	182	1
223	223	7
98	98	10
21	21	6
168	174	3
1	1	6
60	60	10
225	226	4
24	24	7
9	9	5
34	34	4
233	233	7
30	30	4
111	111	7
225	225	7
76	76	4
171	171	14
218	219	1
210	211	2
234	234	5
45	45	5
80	81	1
167	167	11
200	200	7
37	37	10
194	194	5
209	209	12
23	23	4
247	248	2
184	184	6
246	246	8
216	218	1
229	229	7
88	88	8
13	13	4
145	145	8
202	202	6
150	215	1
244	245	2
6	7	6
166	166	9
78	226	6
56	115	1
163	164	4
104	107	1
191	191	3
92	92	1
149	149	1
216	216	2
171	185	1
83	84	4
178	179	3
17	17	3
222	222	2
101	106	3
161	161	4
95	95	4
247	247	5
66	66	15
36	37	3
14	15	5
171	176	1
10	10	7
196	196	6
108	108	10
6	6	8
4	5	7
208	209	2
230	231	2
64	64	5
178	184	1
102	102	6
26	26	2
195	195	1
83	83	1
107	107	2
32	32	5
99	99	7
54	54	9
101	101	7
231	234	3
245	245	6
103	103	6
36	36	7
207	208	1
90	90	4
188	189	3
94	95	2
104	108	2
151	151	9
32	33	3
68	68	5
244	244	9
57	57	5
212	213	5
228	228	2
181	181	5
79	102	4
120	120	5
81	81	6
82	82	2
63	63	5
152	152	7
1	2	1
39	39	3
191	192	3
82	218	1
22	22	3
237	237	6
38	41	1
248	248	3
8	8	5
183	204	2
212	231	1
193	207	4
100	101	4
231	231	4
159	159	9
160	160	12
162	162	1
100	100	18
175	175	4
61	62	2
157	158	1
197	197	8
65	66	1
110	110	7
91	91	8
146	147	1
99	100	2
172	172	5
183	183	7
238	239	3
117	118	2
175	176	5
29	30	1
29	29	1
236	236	4
61	61	5
51	52	3
116	116	6
70	70	3
197	198	1
151	203	1
200	224	3
88	247	3
205	205	6
105	107	2
42	42	5
74	74	9
187	188	1
146	146	1
199	200	3
10	11	3
43	44	4
115	116	1
151	152	3
207	213	2
188	188	3
176	177	1
178	178	7
101	157	6
163	163	7
240	240	4
115	115	2
239	241	4
190	190	7
2	2	3
206	207	4
208	208	10
239	240	3
246	247	2
11	43	2
114	115	2
185	185	6
117	117	9
158	158	5
65	120	3
201	201	11
6	217	1
55	114	1
74	117	1
150	150	4
172	173	3
164	164	11
85	85	4
198	198	6
59	61	3
87	87	3
227	228	2
56	56	3
67	68	2
21	30	2
101	102	3
3	3	1
153	153	9
36	150	2
171	210	2
5	5	3
106	106	4
84	85	3
153	154	6
183	205	1
25	26	5
201	202	1
66	94	1
180	181	1
78	81	3
207	207	2
62	63	5
62	80	2
50	56	3
179	179	3
185	186	2
242	242	2
163	174	1
15	15	4
167	169	3
38	40	1
210	210	8
241	241	5
27	28	4
216	217	4
152	166	2
20	20	6
62	62	1
146	200	1
42	43	2
71	71	5
18	19	1
80	99	1
63	164	2
74	120	1
220	220	1
69	70	5
174	177	1
31	32	4
54	55	1
112	112	4
55	55	5
154	154	2
96	97	1
243	244	2
199	199	3
161	163	2
84	84	3
226	226	8
25	28	1
67	67	2
72	72	3
39	42	1
105	105	2
154	160	1
182	185	1
224	226	2
212	214	2
108	109	1
156	156	6
72	73	1
55	56	4
173	173	8
48	48	4
53	53	4
158	177	2
235	236	1
204	206	2
110	112	3
65	65	6
96	96	10
155	155	3
44	44	4
16	16	1
81	83	1
186	187	3
5	52	1
98	99	2
106	107	4
177	209	1
51	51	1
221	222	1
59	60	1
25	85	2
30	31	1
63	162	2
109	109	3
187	187	2
158	159	1
203	218	2
211	211	4
12	12	4
49	115	3
75	76	1
217	217	2
118	118	3
14	14	2
205	206	2
62	79	1
159	160	1
203	203	9
93	94	1
224	224	2
103	104	2
52	52	2
73	73	2
183	184	2
75	81	1
59	59	5
61	118	1
171	172	3
199	220	2
35	35	2
229	231	2
69	69	2
236	237	1
57	67	3
61	119	2
218	218	4
77	78	2
87	88	2
238	238	4
242	243	1
239	239	2
74	75	1
227	227	3
186	242	1
234	235	2
166	167	1
85	87	1
232	233	5
221	221	2
70	71	2
89	89	1
169	169	1
201	203	2
93	93	1
105	106	1
94	94	3
79	79	1
90	94	2
144	144	1
185	203	2
187	242	1
2	3	1
71	73	2
168	168	4
113	114	2
243	243	2
146	229	1
183	203	1
175	177	2
77	77	6
198	199	3
38	38	2
226	227	1
215	215	2
185	236	2
33	33	1
196	208	2
193	193	2
187	243	1
55	115	3
104	104	3
60	61	4
55	110	1
219	219	3
100	181	1
52	53	1
46	46	3
35	36	2
152	153	2
169	217	2
165	165	6
75	75	2
171	209	2
38	39	1
89	90	1
36	46	1
31	31	1
230	230	6
180	180	1
46	54	1
197	206	1
82	90	1
58	58	3
175	178	1
168	169	2
172	189	1
150	229	1
91	225	1
19	19	2
85	94	1
18	18	1
19	22	1
196	233	2
86	87	1
60	119	1
49	50	2
160	165	1
53	54	1
203	204	2
39	40	1
86	248	1
65	68	1
120	144	1
189	200	1
78	79	1
232	232	1
201	232	1
113	113	1
4	4	1
102	111	1
46	47	1
47	48	2
200	201	1
240	241	1
167	168	1
173	174	2
43	43	1
186	189	1
182	182	1
63	64	1
200	231	1
90	93	1
114	114	1
