46	46	16
74	76	1
31	81	3
26	26	21
69	69	7
33	33	17
56	56	7
31	31	21
53	53	17
40	40	10
16	16	12
55	80	1
61	61	18
63	64	3
25	25	5
11	11	18
8	27	2
68	68	7
31	33	11
7	7	15
56	57	3
12	12	6
14	14	14
8	8	19
21	21	3
17	19	1
48	48	7
37	37	15
62	62	15
75	75	9
50	50	13
17	17	9
53	54	4
17	18	1
52	52	12
27	27	8
42	43	4
70	71	4
31	32	9
66	66	19
10	10	11
2	4	1
63	63	17
3	4	2
79	79	11
73	77	2
0	0	12
57	57	22
70	70	12
43	43	8
36	36	15
72	72	23
20	30	1
65	65	12
64	64	20
74	74	9
67	67	7
29	30	5
26	29	3
68	70	3
20	79	2
6	6	22
47	47	20
13	14	11
54	70	3
58	60	1
15	15	16
28	28	7
78	78	8
72	73	1
39	39	16
73	73	15
50	51	12
45	45	10
32	32	19
1	1	22
9	9	9
10	11	14
60	80	3
2	3	5
40	41	7
67	69	1
67	68	5
38	38	12
64	65	2
80	80	14
71	71	19
15	37	1
3	6	7
59	59	5
41	42	1
15	16	4
9	10	5
8	9	3
55	61	2
32	39	1
4	5	8
2	2	7
66	67	4
49	49	21
49	51	3
42	42	11
34	35	3
37	58	3
19	19	15
49	50	4
41	41	16
77	77	9
65	71	3
6	7	5
30	30	15
54	55	1
45	46	2
35	35	22
54	54	18
32	57	2
70	72	2
11	12	6
20	20	4
55	55	16
40	48	2
60	60	8
5	6	2
25	28	4
28	29	2
67	70	2
71	72	4
76	77	2
13	13	8
51	52	5
77	78	4
51	51	12
55	72	3
75	76	3
14	15	2
54	56	3
62	63	5
33	34	3
33	67	1
65	66	2
58	58	6
4	4	12
53	55	4
13	15	2
59	60	4
9	16	1
6	18	1
30	39	1
25	26	6
10	25	3
0	7	1
79	80	1
41	57	1
50	57	2
7	26	1
18	19	3
44	44	2
27	28	3
5	5	15
36	70	1
18	20	2
9	17	2
55	57	2
49	54	3
38	43	1
76	76	9
48	49	1
75	77	1
37	42	3
57	58	2
78	79	3
26	27	4
34	34	4
20	36	4
37	38	4
35	46	2
39	41	1
35	37	1
21	60	1
6	79	1
34	37	1
47	72	3
73	74	1
26	30	3
12	13	1
33	70	1
68	69	2
57	72	1
42	46	5
26	38	2
41	56	1
36	42	1
10	13	2
73	80	1
58	59	1
56	58	2
29	29	5
2	5	1
56	75	1
6	20	1
32	33	2
55	56	1
61	78	1
47	48	1
3	5	1
10	27	1
7	8	3
21	22	1
18	18	2
69	70	1
3	12	1
53	57	1
5	12	1
61	80	1
9	12	1
38	39	1
14	18	1
14	17	1
35	36	1
8	20	1
60	61	1
