23	24	1
22	23	2
119	119	4
10	10	10
134	134	6
121	124	2
48	48	2
124	126	1
105	140	4
30	31	5
151	152	3
118	118	9
152	152	6
120	120	7
125	125	8
96	98	3
18	19	1
127	127	9
126	146	4
8	11	1
108	109	2
35	35	3
85	86	5
91	91	4
126	145	2
20	20	6
54	54	9
29	29	2
47	49	4
4	5	2
88	89	8
87	87	2
84	135	3
16	16	7
38	38	3
35	37	4
107	107	2
78	78	10
153	153	7
23	23	8
103	103	6
68	71	2
10	15	2
113	113	4
98	98	8
42	42	3
80	80	10
86	121	5
155	155	10
106	106	3
101	101	5
138	138	4
69	69	2
55	55	3
11	11	17
151	151	6
30	30	2
131	135	5
139	139	3
43	43	2
79	97	4
34	34	2
115	115	8
137	137	6
12	13	2
50	50	2
117	117	7
25	25	7
22	22	2
17	18	4
110	110	5
112	112	9
66	66	2
87	94	5
21	97	7
91	92	4
129	129	4
158	158	2
102	102	3
99	139	4
47	47	4
103	113	2
4	11	2
148	148	3
41	42	3
14	15	4
6	6	9
96	111	3
28	29	3
28	28	2
75	75	7
63	63	7
126	150	1
146	146	6
27	27	9
36	36	1
146	148	4
99	99	5
129	130	1
95	122	2
9	11	4
100	127	1
136	154	3
95	96	6
110	111	5
26	26	8
0	0	1
53	53	5
136	136	3
135	153	3
76	76	2
39	39	13
105	109	6
28	49	2
25	26	2
100	100	12
95	97	2
54	55	1
84	86	3
133	134	3
17	20	2
79	80	4
69	70	2
46	49	4
13	13	12
140	141	2
117	122	4
133	133	4
157	157	4
21	21	4
104	107	1
152	156	6
41	43	1
121	121	1
9	10	3
93	93	4
18	18	1
70	70	1
150	150	8
31	31	6
86	86	2
104	104	6
156	157	1
135	135	3
128	128	1
43	99	2
102	151	1
85	113	1
87	89	2
0	158	2
88	88	3
52	53	3
2	2	3
35	73	1
145	145	3
44	44	1
123	123	1
44	99	4
123	149	2
71	71	1
109	110	2
154	154	1
141	141	5
144	144	2
104	121	1
57	57	1
95	98	1
140	140	7
94	95	1
20	21	5
18	26	2
21	137	1
1	1	5
127	143	4
111	111	2
132	133	5
0	6	2
95	144	2
82	82	5
77	80	2
150	151	1
29	47	6
7	54	3
89	89	1
83	83	4
156	156	7
149	149	2
83	96	1
14	16	3
75	148	1
105	105	1
102	103	1
105	152	2
101	120	1
0	38	2
92	93	1
97	97	1
13	14	1
92	112	2
82	83	2
152	158	1
71	149	1
12	12	3
24	24	3
77	77	2
106	132	1
94	125	2
3	4	1
32	32	1
81	90	1
123	124	3
136	137	1
107	151	4
78	80	3
86	94	1
21	135	1
87	90	1
18	138	2
5	5	1
109	111	2
68	68	2
85	85	1
108	112	1
71	112	1
45	45	1
131	132	1
136	156	2
135	156	1
123	126	1
87	95	3
51	72	1
146	147	3
3	17	1
135	137	3
96	97	1
67	127	2
51	51	3
50	54	1
19	19	2
76	77	2
94	94	2
78	81	2
14	14	3
5	44	1
64	64	2
37	37	1
5	28	1
116	117	1
47	48	1
93	112	1
105	133	1
67	71	3
98	99	1
29	44	1
132	142	1
1	2	1
62	64	1
42	46	1
19	20	1
103	121	1
78	79	1
15	15	1
53	54	1
39	138	2
34	35	1
17	22	1
132	132	5
56	56	2
52	52	2
44	137	1
122	145	1
135	138	1
77	81	1
131	131	1
90	90	1
15	18	1
39	41	1
70	113	1
101	121	1
93	95	1
48	49	1
81	91	1
40	40	1
84	85	1
83	84	1
22	26	1
4	29	1
86	87	1
117	120	1
107	124	1
