50	51	4
66	66	28
69	69	8
40	40	14
57	57	10
89	89	11
58	58	9
73	73	10
87	87	19
32	32	2
96	96	10
90	99	2
75	75	26
70	70	19
50	50	14
48	48	2
62	63	11
94	94	10
74	74	13
88	88	25
81	81	16
33	53	5
78	91	4
81	102	2
27	27	8
80	80	15
28	28	3
86	88	8
72	72	17
52	52	18
78	78	29
37	37	12
95	95	12
82	82	11
51	59	1
80	90	6
64	65	5
92	93	6
68	68	9
85	93	3
84	84	12
31	91	2
47	47	2
59	59	7
66	67	2
71	71	9
84	100	1
85	85	11
51	51	12
91	91	3
61	61	11
22	33	4
65	77	1
26	27	1
45	45	5
36	37	3
63	63	14
98	98	5
77	84	1
56	56	3
86	86	20
60	60	10
79	90	7
22	22	4
100	100	10
38	39	3
45	69	2
46	46	2
20	22	1
26	46	1
68	76	3
36	36	7
31	31	10
56	57	6
62	62	14
65	65	23
42	42	3
99	99	3
47	48	5
76	77	6
69	71	3
55	55	8
73	87	2
71	72	2
67	67	5
35	35	13
97	97	7
30	31	3
30	44	1
85	86	6
69	91	4
83	83	11
73	74	5
94	102	3
68	79	5
60	62	2
92	94	12
48	56	2
49	49	5
49	50	11
53	53	12
86	98	2
60	93	5
33	46	5
81	82	1
26	26	2
95	102	1
86	87	6
80	81	7
65	71	1
90	90	12
54	54	11
79	79	8
79	80	7
99	100	4
100	101	2
48	49	1
64	64	13
87	88	13
62	64	4
23	23	3
95	96	2
74	75	3
91	92	4
50	52	1
44	44	4
77	77	20
45	52	3
94	97	7
85	100	4
61	87	2
101	101	4
30	30	8
61	62	3
43	43	6
68	69	5
41	41	7
89	100	4
67	72	2
65	76	3
41	42	4
83	84	8
39	39	4
52	91	3
29	29	1
25	25	4
76	76	1
51	52	1
92	92	5
93	93	4
52	55	1
37	38	1
96	97	4
34	35	1
44	50	2
78	79	7
25	48	3
58	59	4
54	55	4
69	70	3
79	89	1
31	39	5
32	37	2
60	61	10
67	68	3
26	40	2
66	76	1
50	80	2
80	83	4
47	75	3
62	96	1
71	82	2
63	71	1
57	58	1
24	25	4
26	59	2
52	60	2
50	60	2
34	34	5
77	78	1
25	34	1
22	23	1
66	83	1
75	76	2
29	31	2
53	72	2
98	100	1
68	75	1
37	71	1
84	85	1
79	99	2
55	66	1
36	57	2
24	26	2
78	93	1
78	80	4
46	81	1
50	54	2
68	70	6
48	69	1
63	64	2
40	41	1
46	47	2
95	97	1
21	21	2
33	33	2
22	52	1
81	85	1
72	82	1
59	75	1
64	86	1
69	74	2
77	92	1
42	43	2
49	68	1
36	73	4
65	66	2
102	102	2
25	46	1
24	24	3
20	20	2
25	27	1
61	97	1
69	94	1
49	82	1
92	95	1
61	93	2
83	85	1
89	90	1
51	70	1
23	48	2
91	93	2
41	47	1
59	77	1
34	50	1
61	63	1
64	72	1
81	88	1
