62	64	2
66	78	7
27	27	8
40	40	3
11	11	6
38	51	4
8	21	1
45	46	4
71	78	3
68	68	1
55	55	8
66	77	4
28	28	3
1	14	1
61	62	7
56	56	5
65	65	13
1	1	4
70	70	3
45	55	2
70	72	2
4	12	3
63	80	2
49	59	3
1	5	2
75	76	1
26	26	5
41	41	4
51	51	2
37	38	3
63	63	4
41	47	4
41	50	1
28	32	2
2	4	2
59	61	3
35	35	3
63	64	1
60	74	2
61	61	7
57	60	1
52	66	1
79	79	4
64	66	3
25	25	3
55	65	6
40	47	3
49	50	1
62	62	2
13	15	4
7	8	4
54	55	4
36	41	1
71	71	1
64	65	3
30	32	2
12	13	2
3	3	8
56	71	1
77	77	2
41	48	2
6	68	2
51	62	2
54	54	5
73	74	6
11	38	2
6	10	2
32	32	2
61	70	2
5	5	2
57	57	2
26	27	1
78	78	4
42	52	2
0	0	2
28	34	2
75	75	5
46	53	7
58	61	1
37	37	2
64	68	4
67	67	2
42	42	7
74	74	5
72	72	6
0	14	2
10	11	3
17	17	3
66	76	2
44	44	1
68	74	2
2	13	6
34	45	2
13	56	4
16	19	2
38	38	3
39	39	4
12	12	4
64	64	13
10	21	1
80	81	1
59	66	1
67	68	3
35	39	1
1	2	2
43	55	2
9	61	6
32	40	1
32	34	1
18	18	1
47	48	1
13	29	3
52	65	2
33	33	9
79	80	5
7	10	1
58	58	4
13	13	4
5	9	1
37	45	5
15	15	3
25	28	1
15	19	2
1	4	3
8	12	3
55	57	3
74	76	3
51	68	5
65	67	4
13	17	1
9	9	4
41	42	4
4	4	5
12	43	1
0	56	5
59	59	3
2	6	2
38	47	2
60	60	3
26	28	4
15	17	3
11	19	2
27	37	3
33	45	1
5	54	6
47	49	2
37	49	3
74	75	4
9	16	2
6	16	2
68	73	2
12	59	1
66	70	4
78	80	7
17	20	2
76	76	2
17	41	2
31	31	3
46	52	3
22	33	3
69	71	3
45	45	2
31	34	3
53	55	1
7	7	5
31	42	1
50	50	4
40	41	2
31	37	1
42	56	2
67	72	3
66	66	6
48	48	1
65	71	3
72	73	1
38	39	3
31	43	2
0	1	1
39	58	1
64	78	4
54	69	5
69	69	1
6	6	6
28	33	1
71	74	5
8	9	2
52	58	2
63	78	1
72	76	1
67	76	1
31	41	2
39	48	1
2	16	1
2	14	2
52	52	4
3	14	3
72	77	1
46	51	3
1	61	2
45	52	1
38	60	1
47	56	2
10	10	6
29	31	2
5	7	5
5	10	1
29	34	1
72	74	2
7	16	1
78	79	4
42	47	1
63	66	3
50	53	3
42	54	1
42	65	1
70	71	3
19	19	2
1	3	2
46	56	3
13	45	3
56	58	2
3	16	2
5	14	3
40	48	3
58	63	3
60	78	1
76	80	1
48	53	1
1	9	2
53	68	1
8	18	3
48	49	1
12	15	3
29	39	4
14	14	3
65	66	1
47	47	2
42	51	1
60	63	3
59	63	1
67	79	1
62	63	1
52	53	1
8	15	1
10	65	2
8	8	4
52	54	3
26	30	1
48	57	1
30	31	1
41	46	2
66	67	4
70	73	2
32	33	4
3	67	4
47	60	2
25	26	1
7	9	2
29	29	2
35	36	2
4	17	1
41	61	1
3	9	1
41	49	1
25	32	1
69	75	1
57	65	1
66	68	1
77	78	1
6	14	1
1	59	1
29	33	2
51	65	1
67	75	1
64	70	1
76	77	1
71	75	2
73	73	1
35	40	1
21	21	1
0	13	1
40	42	1
46	59	1
34	36	1
3	11	1
30	41	1
6	18	1
49	52	1
36	39	1
73	77	1
8	67	1
16	17	2
29	30	1
63	65	3
37	40	2
8	13	1
80	80	1
2	12	1
26	31	1
65	70	1
11	15	1
29	36	1
0	5	1
60	65	2
2	8	1
36	36	2
55	70	1
57	66	1
10	42	1
7	79	1
