43	66	2
102	102	2
6	6	5
96	124	2
60	60	3
8	8	5
101	101	2
64	77	2
104	108	1
126	126	4
12	12	7
2	2	4
101	111	1
89	89	4
74	74	11
21	21	1
132	132	1
11	12	5
65	65	7
5	47	4
13	13	5
116	117	3
82	84	9
86	129	4
118	118	3
94	94	6
21	22	4
56	56	7
11	13	2
54	56	8
83	83	4
59	59	4
67	80	2
98	98	1
3	3	2
25	25	2
10	11	2
127	128	2
72	73	2
133	133	5
16	20	2
17	17	3
85	85	5
40	41	3
10	10	5
54	54	2
48	113	1
66	66	3
7	7	2
80	80	6
33	38	2
65	66	3
91	91	5
100	104	2
18	45	2
47	47	2
5	5	5
41	41	4
25	28	2
54	60	1
45	45	1
15	20	1
14	44	1
11	11	4
5	13	2
42	43	2
96	120	3
106	106	1
113	113	3
92	92	2
13	44	1
25	26	2
109	115	5
123	123	3
3	6	3
86	87	5
23	23	3
18	19	1
86	86	2
100	105	4
59	89	4
7	60	1
4	4	2
66	102	1
73	73	1
30	30	2
53	53	5
34	113	1
110	110	1
71	71	6
104	105	2
78	124	5
68	68	4
48	54	4
63	63	3
81	81	4
119	128	1
111	111	4
48	88	1
5	9	1
109	113	3
91	92	5
46	46	3
93	95	2
120	120	3
82	85	3
69	69	4
100	127	1
33	34	1
7	8	1
57	57	1
40	40	1
116	116	1
14	16	1
13	34	1
83	84	2
127	127	5
67	67	3
96	96	1
70	70	2
76	100	1
108	111	2
3	111	3
119	119	5
10	95	2
63	99	2
64	109	4
32	32	2
78	78	4
107	107	1
48	48	2
32	34	1
93	93	4
19	19	1
19	27	1
88	104	3
112	112	2
128	129	1
61	61	1
9	9	7
130	131	1
72	72	1
77	126	2
15	21	3
27	43	1
89	94	1
119	125	1
58	89	1
43	43	1
17	21	1
75	75	3
75	126	2
24	24	3
50	50	1
67	106	2
14	14	2
92	131	2
20	20	2
57	110	2
125	125	3
100	100	2
60	113	1
63	77	1
4	112	1
74	75	2
15	15	1
96	125	1
85	87	1
108	112	1
42	42	1
106	107	1
131	131	2
7	11	1
4	5	1
22	22	1
26	26	1
16	16	1
78	96	1
114	128	1
68	79	1
55	55	1
82	82	1
118	119	1
114	114	1
23	28	1
115	115	1
113	114	1
122	122	1
10	12	1
4	113	1
73	129	1
