68	69	7
26	26	1
111	111	16
124	125	3
134	134	4
47	47	5
31	31	6
103	136	1
125	142	2
50	50	5
114	154	1
35	82	2
64	118	2
94	99	1
116	116	2
146	146	2
62	62	8
79	79	9
129	129	6
25	25	9
46	46	10
42	42	6
7	34	3
34	34	5
101	101	9
13	15	1
126	127	1
147	147	17
97	97	4
27	29	5
123	124	6
5	5	7
30	30	8
82	82	4
114	114	12
125	141	1
69	73	5
35	35	11
44	44	3
41	41	4
23	78	1
122	122	2
24	24	10
49	49	4
66	67	6
51	55	2
3	3	7
104	104	3
100	100	5
132	132	13
51	52	6
53	53	3
84	85	5
95	95	6
21	37	3
9	9	5
131	131	13
32	32	9
147	148	9
32	76	3
127	127	14
7	57	4
7	9	2
149	149	8
136	136	6
22	22	4
106	106	3
150	150	5
6	6	7
23	23	4
126	126	4
151	151	14
69	76	1
67	76	3
77	77	7
55	55	3
119	119	13
19	122	2
70	70	1
113	114	2
88	88	4
143	143	4
128	128	10
154	154	5
105	106	3
3	127	2
63	63	9
112	113	6
13	13	8
48	48	4
81	81	6
142	142	7
10	38	2
126	145	7
152	152	8
78	78	4
25	77	1
23	57	4
71	71	2
110	111	3
99	99	6
18	18	4
113	116	4
141	141	8
136	137	3
80	80	2
32	77	2
133	133	2
109	109	4
71	81	3
108	108	3
139	139	14
27	27	10
117	117	3
6	8	4
45	45	2
119	120	1
144	145	3
83	83	2
5	33	1
69	70	2
16	17	3
5	121	2
65	120	3
115	115	3
105	126	2
75	75	12
30	34	1
37	37	4
19	19	2
126	146	1
10	15	1
23	30	1
97	99	2
129	130	3
4	23	1
84	84	10
103	103	3
49	57	1
6	10	3
148	148	2
40	40	4
27	90	3
85	85	8
65	65	5
36	36	4
123	130	2
129	140	1
145	145	2
49	50	1
109	110	3
11	11	7
20	21	3
135	135	9
42	44	1
152	153	1
124	124	4
74	74	3
96	96	8
107	107	11
73	73	2
87	88	3
130	130	3
39	39	5
87	87	5
29	49	1
72	73	3
125	126	1
110	110	5
118	118	5
64	64	2
106	136	1
145	150	3
12	12	8
6	55	1
67	116	1
29	30	1
43	147	1
93	94	2
57	57	4
123	129	1
120	120	1
8	31	3
33	87	3
21	21	4
14	14	6
51	56	3
116	152	4
54	54	6
112	112	2
10	11	2
76	76	2
4	8	1
94	94	4
24	119	5
4	86	1
58	58	2
96	98	3
94	95	3
23	31	2
138	138	4
100	118	2
14	15	1
17	51	2
18	31	1
4	4	5
33	35	4
24	52	1
8	23	1
89	114	2
15	45	2
17	50	1
148	151	2
34	35	3
153	153	6
103	144	3
5	122	1
140	140	7
27	28	1
115	116	2
107	108	4
67	68	2
30	37	2
15	16	2
101	123	2
17	19	2
144	144	3
86	86	1
22	23	5
32	34	3
75	76	2
17	17	3
65	67	1
118	135	3
98	98	8
104	137	1
26	27	1
137	137	2
67	67	5
4	6	2
96	100	1
124	128	1
11	38	1
110	113	2
19	85	1
32	57	2
20	48	1
37	79	1
78	79	2
101	102	1
127	145	1
52	52	1
15	46	2
92	94	1
69	71	2
33	33	1
54	55	1
36	81	1
118	149	1
31	38	2
73	74	1
80	82	1
68	68	4
31	32	1
7	8	1
28	29	2
80	81	2
3	4	2
34	54	1
2	122	1
121	121	1
79	82	1
105	105	1
114	117	3
26	66	1
96	152	2
51	51	1
67	77	1
137	138	1
121	122	1
26	50	1
26	29	2
93	93	1
34	38	1
142	143	2
15	15	1
38	39	1
4	122	2
47	48	1
25	66	2
29	117	1
26	90	1
43	44	1
23	90	1
144	150	1
123	123	2
83	84	2
48	49	2
24	147	1
28	111	2
142	145	2
102	103	3
73	82	1
19	20	3
26	79	1
4	7	1
36	82	1
49	88	1
4	5	2
41	128	1
56	84	2
143	145	1
29	111	1
36	80	1
3	56	1
33	34	1
132	133	1
113	113	1
123	151	1
106	107	1
69	69	1
36	37	2
55	86	1
10	10	2
50	113	1
56	56	2
3	55	1
70	152	1
74	82	1
83	152	1
104	138	1
100	102	1
