97	97	13
67	67	8
130	130	8
54	55	3
55	117	4
104	110	7
165	165	2
130	131	5
74	74	6
39	39	4
153	153	10
55	55	9
138	138	3
59	61	5
21	21	4
132	135	6
74	80	5
95	95	12
176	176	16
1	1	6
151	151	3
58	58	4
73	74	8
180	180	3
91	94	1
28	28	11
159	159	5
17	17	8
174	174	6
148	174	1
73	73	9
51	51	15
27	27	2
14	14	13
81	82	6
82	82	6
179	179	13
54	54	13
87	128	2
62	63	1
7	7	6
103	103	9
91	91	6
136	136	7
9	9	3
10	13	2
166	167	5
19	19	4
131	131	8
129	129	8
72	72	23
108	109	6
64	64	7
135	140	10
121	121	6
28	30	3
66	84	2
123	124	9
127	127	9
150	150	5
153	154	3
108	108	18
140	140	15
64	65	3
8	8	2
66	67	10
40	40	13
95	96	5
27	28	5
65	179	4
15	22	6
86	86	3
157	157	9
6	6	4
78	124	4
160	161	4
75	78	5
93	94	3
116	116	2
42	43	6
60	180	3
155	156	8
53	121	1
117	117	7
137	138	2
150	171	3
22	22	2
102	102	6
52	52	10
131	132	1
140	178	5
32	34	4
92	92	4
141	141	4
59	59	3
149	175	4
155	155	8
161	161	1
121	125	1
16	16	3
110	113	2
136	137	3
35	37	5
32	32	8
95	121	1
38	38	11
147	147	2
142	142	10
148	159	2
23	23	9
50	51	1
88	88	10
53	119	2
104	104	8
45	45	3
116	118	4
24	25	3
148	148	4
143	143	10
7	8	1
105	105	4
15	15	8
63	64	2
137	137	10
114	114	4
142	143	2
79	79	4
159	162	2
126	126	11
78	79	2
76	76	8
66	66	6
118	119	4
27	29	1
30	30	6
148	175	1
96	97	1
92	94	6
134	134	9
53	53	9
43	43	7
118	118	4
112	112	1
167	167	4
119	121	3
3	3	13
80	80	2
29	29	4
26	43	5
79	123	4
35	35	10
9	45	2
88	89	11
12	21	3
10	10	11
164	164	12
61	62	1
133	133	12
26	26	4
151	173	4
171	171	3
99	100	3
14	22	2
57	147	2
87	134	1
122	123	7
177	177	3
120	120	4
30	31	1
83	84	4
56	56	3
125	128	2
150	156	3
89	89	4
166	166	6
130	133	4
144	144	7
77	124	3
89	158	2
117	118	5
55	56	3
115	115	13
163	163	10
11	13	3
100	100	9
175	175	4
122	122	7
63	63	2
82	83	2
36	36	2
123	123	3
71	71	4
112	115	2
150	151	4
86	121	2
87	87	11
114	115	5
132	133	2
66	73	3
52	55	5
31	31	4
25	27	3
33	40	3
56	86	2
124	125	9
132	134	7
34	35	1
74	107	3
146	146	3
96	96	1
22	23	4
115	119	3
178	179	6
16	179	5
85	128	2
145	145	2
68	68	3
80	81	2
14	45	2
173	175	1
34	34	2
139	139	11
154	154	2
75	114	3
33	39	3
148	176	4
94	94	7
18	18	5
14	15	2
81	81	3
37	38	2
135	178	4
5	5	2
21	22	1
164	165	2
78	78	4
168	168	4
110	111	2
90	91	4
85	86	2
129	130	1
97	104	1
158	158	1
127	128	3
12	12	2
89	157	6
141	142	4
124	124	1
132	132	4
86	131	2
91	170	2
81	83	3
6	10	1
143	162	1
149	149	2
52	64	1
109	109	5
6	50	1
89	90	1
131	133	3
61	61	5
93	124	1
33	33	4
102	103	1
171	172	3
34	39	1
160	174	1
37	37	2
10	44	2
104	105	4
1	3	2
78	122	2
1	10	2
65	67	2
140	177	3
96	116	1
99	99	8
136	178	2
133	134	3
125	126	3
143	166	1
94	95	9
32	33	4
75	75	4
169	171	1
172	172	2
68	72	2
60	140	1
135	135	2
129	131	2
107	107	3
87	88	2
26	27	2
140	141	3
25	25	3
135	136	2
165	166	2
152	152	4
113	114	3
62	64	1
60	60	3
31	32	2
79	124	4
85	160	2
119	119	4
101	101	1
149	150	3
92	93	2
150	153	3
7	51	1
56	57	2
111	112	3
77	123	1
105	107	1
65	66	2
23	43	2
111	113	3
41	41	1
160	160	5
33	34	1
149	171	2
51	65	1
173	173	3
86	122	2
72	82	3
24	27	1
20	20	3
28	44	5
5	6	2
98	98	1
125	125	2
95	116	1
148	150	1
19	20	5
30	41	2
116	117	1
88	153	1
169	169	1
13	13	1
9	71	1
35	41	1
145	146	3
66	112	1
161	163	1
17	19	1
113	113	2
146	147	1
85	129	2
68	82	3
17	18	1
37	40	1
60	179	2
73	114	2
90	90	2
157	158	2
24	24	3
162	162	1
84	84	1
108	110	1
105	114	2
134	135	2
111	111	1
3	15	2
174	175	1
10	14	1
105	106	2
2	2	1
172	173	1
28	29	2
65	65	2
71	108	1
86	89	1
7	9	1
76	77	1
178	178	1
107	108	3
1	2	1
158	159	3
2	4	1
93	93	1
168	169	3
22	24	1
107	109	1
99	101	1
137	178	1
90	126	1
52	53	1
29	42	1
25	26	1
29	34	1
35	36	1
76	95	1
7	49	1
112	113	1
