89	89	6
21	98	1
131	131	3
168	169	2
54	55	2
140	140	3
88	88	9
93	95	2
13	13	8
108	112	2
36	37	2
66	67	5
98	99	1
72	101	4
171	175	1
77	79	2
104	114	5
142	142	5
113	113	5
151	153	2
16	67	1
53	55	4
57	57	5
74	75	1
22	22	3
34	34	6
72	100	1
25	26	6
10	71	1
115	115	6
76	76	10
163	163	2
158	158	2
142	145	1
74	74	11
77	77	5
23	23	4
122	122	5
147	148	1
105	105	3
108	108	4
123	124	4
29	29	3
9	63	4
120	120	4
124	124	10
79	79	13
43	43	4
45	45	2
86	86	9
137	168	2
157	157	6
153	153	3
40	40	1
111	127	3
146	146	3
141	141	2
145	154	1
12	12	1
102	102	7
105	119	3
44	44	4
90	90	5
111	112	2
125	126	4
165	165	8
103	103	5
167	167	9
139	139	8
64	64	7
3	3	3
6	6	2
9	10	2
78	78	6
89	99	2
111	111	2
130	146	3
126	179	3
131	146	1
53	54	5
171	171	2
1	16	2
0	0	5
95	100	4
71	72	6
138	139	1
172	173	2
8	8	1
55	55	6
87	87	10
129	129	5
150	150	8
75	75	3
162	173	5
156	156	7
4	4	6
125	125	2
20	23	4
37	38	2
135	135	2
4	6	3
27	27	6
9	62	2
46	46	1
140	177	3
122	168	2
127	128	5
26	30	1
107	107	6
38	38	5
20	45	1
130	130	6
49	50	1
152	158	3
81	81	2
94	97	2
25	28	2
92	92	3
50	52	1
178	178	6
161	161	7
67	67	2
39	40	4
144	144	2
149	150	2
133	136	1
169	169	3
175	175	2
41	41	11
168	172	1
126	126	1
128	128	4
72	108	3
95	95	2
172	172	2
121	122	1
5	21	2
162	162	4
154	155	4
118	118	3
149	149	9
21	21	3
20	20	4
159	159	4
143	144	1
101	101	2
179	179	4
6	7	1
72	72	5
5	14	2
96	96	10
98	98	1
19	19	4
10	42	1
31	60	3
72	76	2
82	147	2
116	117	1
106	106	4
137	167	1
86	102	1
5	12	1
36	38	1
65	65	4
50	62	1
54	54	3
56	56	1
35	37	3
105	113	3
10	10	2
66	66	6
85	85	3
17	17	3
30	31	2
101	103	6
9	50	1
35	36	1
71	71	4
37	37	1
91	102	1
90	106	3
84	84	2
106	107	2
73	75	2
11	11	2
32	32	6
148	148	6
118	119	1
104	104	3
73	73	1
134	134	4
173	173	2
127	127	1
112	138	2
100	103	1
141	160	1
65	66	2
90	91	2
62	62	4
14	40	4
52	76	1
123	123	5
124	125	1
93	93	4
31	31	3
108	166	3
1	2	1
111	163	1
18	44	2
85	86	2
53	53	4
137	172	1
28	28	5
33	33	1
170	171	1
14	68	5
43	60	1
151	156	1
176	176	3
13	14	3
5	7	2
49	49	4
18	18	3
166	166	5
18	58	1
121	121	4
21	23	2
68	68	2
116	122	3
30	36	2
18	23	3
62	101	1
18	22	3
141	143	3
34	35	1
155	155	1
82	82	1
153	154	1
152	153	1
81	107	2
88	89	2
132	132	1
24	24	2
42	42	2
51	51	2
137	137	1
12	13	2
113	114	1
114	114	2
31	32	1
116	116	2
133	133	1
35	35	1
145	145	2
106	114	1
90	103	1
60	60	1
138	138	2
151	172	1
115	121	1
94	95	1
70	72	1
160	160	3
6	75	1
135	150	1
93	94	1
117	118	1
70	96	2
2	2	2
94	96	2
119	119	2
36	36	1
159	162	2
61	61	1
4	8	1
7	7	1
5	6	2
160	161	1
153	156	1
92	96	2
52	52	2
5	16	1
6	9	1
1	3	1
19	21	1
108	109	1
108	131	2
83	83	3
164	164	1
83	87	1
80	81	2
8	9	1
115	122	1
180	180	1
151	151	1
35	52	1
91	91	1
112	163	1
81	88	1
110	146	1
