132	132	1
64	64	4
5	5	2
22	22	3
20	63	3
56	56	2
78	79	3
128	162	6
41	42	4
119	119	11
83	140	1
12	63	1
12	12	7
116	119	6
71	90	1
76	76	12
158	158	1
4	6	1
72	74	1
14	14	2
108	164	2
106	130	3
141	141	3
143	161	4
125	125	2
124	124	3
147	147	4
170	170	3
9	13	1
39	40	3
146	147	4
95	96	1
24	67	6
16	16	5
83	85	2
36	97	3
98	98	2
171	171	3
172	172	10
107	107	1
95	95	3
13	15	3
135	136	3
33	33	2
160	160	2
37	37	7
92	92	2
124	125	3
132	144	1
104	104	1
105	106	2
83	83	3
118	120	2
145	145	3
90	90	4
87	142	2
134	135	1
65	66	4
32	137	4
80	88	1
40	40	8
31	35	3
93	93	6
86	89	1
106	107	2
103	103	1
78	124	1
52	94	1
136	136	2
109	153	3
78	95	3
75	75	1
126	126	1
99	99	2
24	24	4
116	116	3
151	151	2
12	64	1
154	166	1
126	128	3
154	155	5
44	44	1
57	61	1
72	76	2
1	1	5
25	63	2
23	23	6
101	114	1
143	145	3
94	94	1
63	64	4
118	119	2
4	4	2
65	65	2
76	167	5
128	147	4
5	6	1
91	91	3
49	96	1
155	156	2
29	29	2
113	115	4
49	49	1
91	92	3
110	159	4
3	3	2
111	133	2
25	25	4
13	13	2
120	120	3
172	173	1
102	102	6
105	105	2
88	89	1
43	44	2
68	68	3
141	142	2
87	100	3
84	100	1
151	152	1
28	35	1
145	157	1
146	146	2
175	178	1
114	150	1
79	79	3
73	73	3
168	175	2
83	84	1
129	130	1
101	101	3
109	152	2
50	50	5
60	60	2
41	51	1
86	92	3
42	44	1
41	41	4
80	80	6
142	142	4
97	97	1
18	18	2
133	133	4
67	68	7
2	2	1
173	173	2
54	54	1
7	14	4
139	139	1
7	27	3
153	153	4
52	52	4
112	112	5
127	160	4
3	4	1
127	128	2
101	123	1
136	153	2
107	135	1
35	35	2
111	114	2
132	139	1
169	169	2
21	73	2
134	141	1
114	114	4
84	84	1
32	33	1
134	134	1
142	151	1
36	36	1
81	81	3
113	113	2
138	138	1
137	141	1
108	109	1
98	99	2
62	62	2
128	128	2
82	142	1
130	130	2
0	0	1
150	153	1
130	132	1
141	150	1
86	87	2
157	158	1
115	120	3
30	30	1
109	174	1
101	147	1
57	57	1
77	77	1
167	175	1
21	61	1
152	153	1
155	175	1
96	97	1
154	154	1
30	31	1
61	87	1
44	55	1
104	122	1
159	159	2
179	179	1
99	105	1
53	57	2
26	26	4
1	29	1
52	57	1
154	163	1
90	121	1
126	127	1
99	100	1
123	123	1
176	176	1
130	143	1
6	6	1
104	110	1
39	41	1
51	51	1
12	13	1
19	19	1
31	31	1
168	168	1
155	155	1
170	171	2
168	169	1
7	7	1
143	143	1
59	59	1
110	110	1
103	110	1
