10	10	10
6	25	2
55	55	6
0	1	5
24	24	14
31	33	3
59	59	18
44	44	23
17	17	12
40	45	1
48	48	28
49	49	8
45	45	21
15	16	3
20	20	6
0	3	3
54	57	3
38	56	3
18	19	4
45	46	1
37	37	23
36	36	15
46	46	10
47	62	2
41	41	16
25	25	4
43	55	3
4	4	15
3	5	8
43	43	17
5	5	15
50	50	12
51	58	1
1	1	13
60	60	9
37	38	5
34	34	25
0	0	12
33	33	44
21	21	12
37	49	2
35	35	24
29	29	8
6	6	10
0	2	1
10	11	3
54	54	19
47	47	16
51	51	13
42	42	10
4	6	7
44	45	7
38	38	30
17	18	1
57	62	5
14	16	1
15	38	1
9	10	7
50	58	2
11	12	7
43	44	5
61	61	16
8	8	10
55	60	3
38	40	3
16	37	3
47	48	6
30	33	2
3	3	6
32	32	28
15	24	5
19	38	4
37	39	15
8	11	2
6	8	3
31	31	17
62	62	9
16	25	1
14	37	2
18	18	14
52	55	4
57	59	2
30	30	19
49	50	2
57	57	11
1	17	3
13	16	4
58	58	4
14	25	4
44	46	2
11	41	4
12	12	15
55	56	1
33	34	1
54	58	4
19	23	2
19	19	11
30	32	1
30	45	2
16	39	2
13	13	6
53	53	6
16	16	9
14	21	2
25	26	3
40	40	7
18	22	1
4	25	5
30	31	1
9	9	10
14	22	3
15	15	5
4	15	3
55	62	2
22	22	10
9	11	3
7	7	6
39	39	16
24	42	2
56	56	6
39	40	3
15	34	4
58	59	6
32	40	1
18	39	3
7	22	1
2	3	8
21	55	2
37	41	3
2	2	6
46	47	2
35	36	7
32	47	3
36	56	2
38	52	1
10	13	3
22	37	2
34	51	2
19	20	4
14	14	7
4	13	1
58	61	2
34	35	6
37	45	1
50	51	5
60	62	6
53	54	3
32	33	1
20	23	2
49	61	1
1	3	2
57	58	4
52	52	11
48	49	2
18	46	1
22	24	1
56	57	2
9	33	1
45	58	2
17	20	3
58	62	2
7	9	5
21	22	2
32	43	1
45	61	2
11	15	3
20	26	3
12	13	3
38	39	4
14	38	1
41	54	1
47	50	3
3	42	1
32	36	1
18	32	1
57	60	1
8	9	2
30	34	2
42	61	2
52	53	1
23	23	2
5	11	3
11	11	3
40	41	1
41	59	1
61	62	3
38	57	1
51	52	1
2	4	1
53	59	1
1	6	3
39	59	1
14	19	3
38	51	3
24	41	1
4	5	3
16	18	2
41	58	1
36	37	2
43	60	1
23	24	2
46	56	1
5	14	1
3	8	1
23	50	1
53	55	1
14	39	1
9	13	1
14	17	1
4	30	2
1	7	1
45	56	1
14	24	1
12	41	1
6	7	1
9	32	1
36	60	1
35	37	1
7	8	1
13	14	1
