142	142	7
97	97	6
75	145	4
119	119	15
33	33	10
22	22	25
110	141	4
136	146	2
121	121	4
122	128	2
16	29	5
136	136	3
85	97	3
120	121	5
122	122	11
103	103	17
146	146	3
15	16	2
147	148	5
68	68	17
74	74	5
23	23	7
42	43	1
125	127	3
116	116	7
137	137	12
104	104	5
106	106	9
99	99	6
105	106	4
40	40	22
15	15	5
41	42	3
131	131	10
112	112	12
103	134	2
127	127	5
63	105	1
7	10	1
70	139	9
20	57	3
24	24	11
90	148	4
82	82	7
139	139	7
38	38	9
65	65	17
5	58	4
8	19	5
84	153	5
75	77	6
117	117	13
129	129	11
95	95	9
154	154	8
32	32	8
76	76	7
10	53	2
40	41	2
127	150	7
128	128	15
130	130	6
16	16	10
105	105	6
106	110	2
87	139	1
4	36	8
7	7	6
119	120	5
75	76	5
28	28	7
111	140	4
135	135	11
27	29	1
81	81	10
92	92	5
124	129	3
96	98	4
42	42	5
31	31	15
80	81	2
13	24	3
17	18	3
97	149	4
63	63	5
147	147	12
12	23	2
87	136	1
77	77	4
139	140	6
32	143	3
17	17	9
138	138	20
114	114	5
40	57	3
35	35	5
12	22	1
150	150	9
132	132	5
31	143	5
134	134	6
133	133	11
62	62	3
68	85	1
96	96	4
24	25	3
36	36	13
133	138	5
143	143	4
5	7	1
115	152	1
44	44	5
95	97	9
97	153	3
34	37	1
34	45	1
53	53	7
64	64	13
51	57	2
37	38	3
38	56	5
96	97	6
63	77	4
72	72	3
78	143	4
109	109	8
19	19	13
38	40	2
20	20	5
45	45	9
17	19	2
4	6	4
152	152	6
41	43	1
120	120	16
14	14	14
45	46	2
32	36	3
79	79	3
135	137	1
13	25	3
9	9	6
83	83	7
69	98	1
47	49	4
63	67	1
72	73	7
64	74	3
140	141	3
153	153	6
109	149	3
151	151	12
71	71	10
62	64	3
49	50	7
121	127	6
78	79	8
110	110	10
14	23	3
12	30	3
143	144	2
11	11	2
125	126	2
108	109	2
118	118	4
131	132	2
149	149	3
55	55	3
56	76	1
7	8	4
52	101	2
145	145	5
48	48	4
98	108	5
21	22	5
13	14	3
3	54	1
43	45	1
113	114	9
43	43	11
46	46	4
10	24	1
136	137	6
56	57	2
106	107	6
113	131	3
18	18	5
10	10	9
36	105	1
3	3	4
3	32	3
21	21	4
53	112	3
3	58	1
73	73	6
56	56	8
93	93	3
125	125	6
133	135	2
107	107	11
3	26	3
12	13	4
127	130	3
144	144	10
99	106	4
107	110	4
4	4	5
21	23	3
47	52	5
123	123	13
74	109	1
101	101	2
27	27	2
2	2	1
10	21	3
122	152	5
38	144	1
94	96	2
124	124	3
64	68	3
92	94	7
110	139	3
3	5	1
71	72	2
87	137	1
32	34	4
116	117	2
92	93	1
117	118	5
74	77	2
55	144	2
141	141	7
25	130	1
91	91	2
26	33	4
111	135	3
113	113	9
83	84	6
57	57	2
44	45	2
8	12	4
81	136	1
110	147	3
37	88	2
41	41	4
26	27	4
77	78	1
102	106	2
149	150	5
5	5	5
85	85	5
40	75	1
78	78	5
10	20	8
64	65	2
84	85	4
145	146	3
111	111	6
87	96	3
14	52	1
81	82	3
25	25	6
51	51	1
115	115	2
102	112	3
116	121	2
12	24	1
135	136	3
10	57	3
118	131	2
27	28	2
14	16	2
100	100	6
80	80	5
109	128	3
101	102	6
84	84	2
67	67	6
102	137	1
83	93	1
94	94	10
87	88	1
105	136	4
127	128	1
79	80	1
114	115	1
70	109	1
47	47	3
79	141	5
70	129	1
84	97	3
109	142	1
13	13	3
54	54	4
12	12	7
102	129	3
93	152	5
112	113	2
46	49	2
63	73	3
15	18	1
42	47	1
123	129	1
88	89	4
72	127	2
104	134	3
75	75	3
87	87	8
113	129	1
37	37	4
97	98	1
98	98	6
74	137	3
78	127	1
50	57	5
104	122	1
68	69	4
103	107	1
23	27	2
130	131	1
11	31	1
29	29	6
6	6	1
10	19	2
69	69	6
34	35	2
63	66	2
56	75	1
29	30	2
28	29	3
143	145	3
90	90	3
13	19	2
26	26	6
78	116	1
111	153	1
43	44	1
82	131	1
10	18	1
9	18	1
85	86	1
102	102	4
95	98	1
103	110	1
15	19	1
11	63	3
25	31	1
5	19	1
76	145	2
37	112	3
125	128	2
15	39	2
78	102	2
50	50	3
104	113	2
128	150	4
39	39	6
6	26	3
16	27	3
50	54	3
76	146	2
148	148	5
63	65	2
74	78	1
9	12	2
137	146	1
123	147	2
73	126	1
142	145	2
108	108	3
79	122	2
88	88	4
123	124	1
93	149	4
98	130	2
72	76	2
51	130	4
106	108	2
34	36	2
70	110	1
21	54	1
71	122	2
102	103	8
118	119	2
32	33	1
66	66	2
8	11	2
64	66	1
18	20	1
104	110	2
85	87	1
18	19	1
66	67	1
86	86	3
4	39	2
10	12	2
141	142	2
4	57	2
121	151	2
140	140	2
104	105	2
79	111	3
109	119	1
82	136	1
122	151	1
42	48	2
34	143	2
113	122	2
70	70	1
8	21	2
134	137	1
138	152	1
2	25	1
64	77	2
20	21	3
15	73	1
116	137	2
3	4	1
64	82	1
76	78	1
37	54	1
140	142	1
16	17	1
129	130	1
65	68	1
40	42	1
109	114	1
6	8	1
4	55	1
69	108	1
94	95	2
151	152	1
129	149	1
102	111	2
153	154	1
86	87	1
8	22	2
15	58	1
41	47	2
95	96	1
2	39	1
42	45	1
26	36	1
80	136	1
96	128	1
107	154	1
30	30	1
