116	126	3
77	111	1
117	118	5
82	82	3
122	123	2
102	103	2
106	106	1
6	6	13
85	85	3
128	128	2
108	108	6
79	128	2
114	114	3
132	132	4
71	74	4
68	68	9
60	60	6
129	131	5
95	95	4
5	5	8
103	103	7
28	36	3
72	72	5
75	89	5
3	3	4
2	100	2
90	90	12
79	79	4
58	58	2
34	34	8
55	55	9
66	66	1
101	101	6
123	123	5
57	59	1
98	98	7
0	0	3
8	38	2
121	121	10
126	126	6
84	84	3
75	75	3
15	15	11
21	21	3
56	58	3
13	17	3
112	113	1
104	104	8
14	14	8
74	86	1
77	78	1
117	117	1
131	133	1
123	124	1
18	81	2
60	65	4
79	106	4
130	131	3
44	44	1
87	87	6
24	25	6
22	103	1
116	127	1
98	101	3
92	92	6
54	55	5
76	76	7
73	73	6
38	77	1
130	130	3
134	134	1
132	133	3
25	99	2
81	81	3
49	49	3
0	90	2
56	100	2
4	20	2
3	96	1
12	12	3
107	108	1
121	126	4
4	4	4
78	80	1
24	24	14
100	100	6
50	50	2
107	107	5
14	18	1
68	70	1
102	102	6
111	112	3
128	129	2
87	88	3
74	75	2
129	129	6
27	27	4
43	43	2
26	26	2
59	119	3
35	35	2
81	134	3
2	87	2
77	77	5
28	28	4
109	110	2
116	117	2
23	24	4
66	67	1
53	57	8
74	74	3
62	63	8
125	129	2
64	64	5
16	16	6
17	17	7
127	127	1
63	64	2
118	118	3
120	120	4
23	23	4
62	62	4
2	2	3
25	25	3
54	58	3
113	113	1
107	122	3
105	105	14
94	94	4
44	82	1
32	32	3
86	86	1
127	128	4
112	112	5
11	12	4
65	74	1
119	119	4
54	54	8
82	83	2
133	133	6
63	101	2
48	82	5
15	16	6
47	47	2
112	116	3
79	81	5
3	4	2
27	28	2
110	110	1
52	52	3
70	70	5
106	120	5
118	119	2
126	127	2
2	3	2
18	113	1
56	56	5
14	82	1
45	86	2
11	11	8
97	97	2
19	106	1
133	134	3
130	133	1
116	122	1
72	73	2
1	87	3
48	48	2
124	124	2
53	53	4
43	75	2
33	38	3
26	29	1
63	63	2
64	71	1
8	9	1
121	123	2
70	73	1
116	116	1
71	71	2
10	10	1
80	80	1
36	37	1
57	57	1
25	97	1
35	37	1
46	46	1
83	83	1
48	80	1
35	79	3
66	68	2
92	93	1
61	61	3
43	78	1
59	59	1
76	78	1
59	60	1
22	22	1
99	112	1
19	20	1
68	73	1
99	123	1
122	124	1
4	35	1
86	87	1
29	29	1
131	131	1
21	26	1
