60	61	9
43	43	13
39	39	6
39	40	2
11	11	11
56	57	10
51	73	4
19	20	2
71	72	2
2	3	3
9	9	29
41	42	6
54	54	16
32	32	16
4	4	12
29	33	4
47	48	1
28	29	1
42	48	4
77	77	13
72	72	9
38	38	21
28	28	17
45	45	7
62	62	16
12	12	14
51	51	10
59	59	13
61	61	19
48	48	8
30	30	15
58	64	2
13	13	9
14	14	2
30	34	3
1	54	2
67	68	1
68	69	4
59	70	5
37	38	5
64	64	4
33	33	7
12	13	1
22	23	1
70	70	5
42	42	6
34	34	8
40	53	2
66	66	6
7	68	4
19	35	1
10	10	11
21	21	19
6	7	3
46	77	2
22	22	4
56	56	1
47	47	6
33	34	7
62	63	6
62	65	2
7	7	2
75	75	13
27	28	6
25	26	7
27	27	9
42	56	8
42	54	4
39	69	3
60	60	5
0	0	10
41	52	1
41	43	1
55	55	5
26	27	3
49	50	4
3	5	1
67	69	1
31	31	9
0	54	9
29	29	6
69	70	6
25	59	4
35	35	7
46	47	2
57	57	7
55	59	4
20	33	1
63	65	4
48	52	1
59	65	2
63	63	7
24	24	7
61	67	2
19	19	17
49	49	7
40	40	13
29	30	1
18	29	1
18	32	4
50	70	1
5	5	8
41	44	4
53	53	7
2	4	1
62	67	4
47	50	1
68	68	6
25	25	13
36	36	14
32	36	1
42	61	2
8	9	3
49	73	4
59	60	3
32	35	1
18	18	3
3	3	6
65	65	9
37	37	4
69	69	6
74	74	4
63	66	4
3	25	2
41	41	2
61	77	1
3	8	1
5	8	1
36	37	4
39	54	1
43	44	4
64	67	2
8	8	2
9	11	1
6	6	4
61	62	4
52	66	1
41	54	2
60	77	1
18	19	1
10	11	3
68	70	2
20	60	2
52	53	1
48	49	4
67	67	6
11	13	3
1	1	11
74	75	2
29	31	1
71	71	8
60	63	2
42	57	2
26	26	4
44	44	5
1	2	1
41	70	3
23	23	3
73	73	8
52	65	1
31	36	1
20	20	2
50	50	3
0	2	4
47	49	2
3	4	2
2	2	1
35	37	1
38	39	2
35	36	1
43	45	5
1	6	1
40	54	4
58	66	3
72	73	2
21	24	1
42	43	2
1	21	1
0	1	3
76	76	1
32	33	1
57	60	1
62	69	1
52	52	7
56	60	1
58	63	2
30	31	1
30	35	2
9	10	1
39	51	1
13	61	2
73	74	1
74	76	4
3	11	1
24	25	1
37	53	1
22	24	1
57	58	5
70	71	1
65	67	1
42	71	1
67	73	1
28	33	1
53	55	2
34	35	2
30	32	1
41	50	1
54	55	1
46	46	3
5	6	1
9	19	1
4	59	1
21	29	1
48	72	2
48	50	1
36	67	1
20	21	1
55	56	1
57	71	1
50	73	2
53	54	1
63	64	1
35	39	1
36	39	1
51	52	1
13	42	1
50	72	1
29	55	1
61	72	1
