84	108	3
68	69	4
107	110	2
62	62	9
34	42	2
98	99	2
89	91	5
97	97	9
54	54	10
108	108	14
60	61	3
76	76	7
71	73	2
80	83	1
21	52	2
90	90	12
83	83	2
43	43	11
94	111	2
53	62	4
70	70	11
46	52	2
104	104	11
21	21	3
24	24	5
74	83	2
102	114	2
75	80	3
34	52	2
55	55	1
50	50	3
93	100	1
21	40	4
58	59	3
66	66	2
100	100	4
74	75	6
31	31	7
94	102	3
71	92	1
62	77	4
90	109	5
96	112	2
75	75	18
73	73	3
87	92	6
65	87	3
108	112	4
66	77	1
96	105	5
57	58	2
70	73	2
39	40	10
36	41	8
109	109	1
60	65	6
31	32	2
51	80	3
26	26	12
27	41	5
40	96	4
48	51	2
75	76	3
92	104	5
95	95	7
47	50	4
88	89	3
37	111	3
56	56	3
69	69	2
36	37	5
79	97	2
38	38	9
33	33	6
98	107	1
26	32	2
27	35	1
99	108	1
110	110	9
61	61	5
44	57	4
53	57	4
40	97	1
52	65	2
89	89	11
63	65	2
93	93	9
88	105	3
44	44	5
82	86	1
78	78	3
65	66	3
108	110	2
48	49	3
50	72	3
77	103	4
60	60	3
55	59	2
32	32	6
74	106	3
43	59	2
31	51	1
28	29	6
78	101	5
63	63	4
91	91	6
54	76	1
86	87	3
97	99	1
36	36	1
46	106	3
94	94	7
99	99	2
84	86	3
46	66	3
68	68	3
39	42	3
46	79	1
86	86	4
40	50	2
61	76	1
22	22	5
59	60	3
113	113	13
47	53	3
48	48	1
59	76	3
88	107	4
21	30	2
77	77	6
24	112	2
30	31	1
91	108	1
77	78	2
35	36	1
85	85	6
34	34	5
96	96	4
79	98	2
30	30	5
37	38	4
51	51	9
102	103	4
65	65	5
49	49	6
73	74	4
112	113	2
81	93	3
45	70	3
51	62	1
24	28	3
101	101	4
35	53	1
65	69	1
49	72	1
79	105	3
82	105	3
106	106	6
114	114	5
67	69	3
87	93	6
112	112	3
88	88	5
74	113	1
27	27	4
25	25	7
78	82	2
71	71	1
35	52	3
53	53	5
73	84	1
35	57	3
92	97	2
111	111	4
109	112	2
81	81	2
74	74	8
67	67	5
84	85	3
77	91	2
24	25	3
104	105	5
96	99	1
103	103	3
105	105	3
96	97	6
109	110	2
53	63	7
101	105	1
46	58	3
99	101	1
86	101	1
51	110	4
45	108	2
35	35	8
47	81	1
56	101	1
27	59	1
100	101	3
92	92	2
19	19	2
69	89	3
87	90	1
50	63	2
56	57	6
26	27	1
107	107	4
107	112	3
27	29	2
27	42	2
37	110	1
80	80	2
20	20	4
78	85	6
45	68	2
36	48	3
98	98	2
77	106	1
33	34	2
106	107	2
95	96	1
93	105	1
74	88	3
23	27	1
42	42	3
43	44	1
57	57	3
41	41	4
63	64	1
34	53	1
64	64	6
78	105	1
106	110	2
81	106	1
98	112	2
105	106	2
27	103	3
48	108	1
23	31	1
64	81	1
44	48	1
52	58	2
42	43	2
51	84	4
40	42	1
60	63	3
41	47	2
52	52	2
21	31	3
83	90	1
28	28	2
48	54	1
55	56	2
67	68	1
44	47	1
76	78	1
53	54	3
37	37	1
69	88	1
45	55	2
46	47	2
49	60	2
106	108	1
48	50	1
75	77	2
95	109	1
98	102	1
78	81	2
58	58	1
35	47	1
87	88	2
90	101	1
64	65	2
19	89	1
90	103	1
44	58	2
23	23	1
19	88	1
84	90	1
35	67	1
25	86	2
19	92	1
50	86	2
60	74	2
23	26	1
21	36	2
87	87	1
98	105	1
35	51	2
44	46	1
75	92	2
45	45	1
49	55	1
107	109	1
55	57	2
37	57	1
47	62	1
67	72	2
27	85	1
29	29	3
20	21	3
43	96	2
20	52	1
25	37	1
46	82	1
92	112	1
61	72	1
61	62	1
60	68	1
47	108	1
21	51	1
29	58	2
79	90	1
93	98	2
50	79	1
74	107	1
111	112	1
85	106	1
47	67	1
55	73	1
40	40	3
65	70	1
20	60	2
97	114	1
91	109	1
30	51	1
99	103	1
82	104	1
79	82	1
72	72	1
84	84	1
27	37	1
97	98	2
48	65	2
57	80	1
63	105	1
62	97	1
59	59	1
97	109	1
26	63	2
91	92	1
56	58	1
80	97	1
91	106	1
