138	138	4
78	82	5
125	125	2
144	144	7
148	148	6
87	88	3
39	40	3
11	12	3
5	5	8
136	137	3
17	17	8
84	84	4
141	148	4
5	6	1
139	139	18
33	33	16
70	70	7
105	105	19
14	14	4
1	104	4
92	93	6
127	127	13
139	140	7
85	85	4
99	99	8
19	19	6
29	29	10
48	48	8
12	13	5
158	158	7
3	57	1
151	151	10
142	142	3
27	27	9
78	78	7
46	46	3
63	63	2
155	155	8
41	41	3
101	101	4
50	50	7
4	4	10
140	141	7
35	35	11
72	72	6
116	152	7
135	135	4
155	156	4
137	138	2
112	131	3
56	56	3
30	34	3
47	131	5
6	22	2
105	106	3
64	64	4
133	133	10
101	102	4
89	89	3
32	32	6
67	68	4
46	130	3
88	98	1
123	124	1
129	129	3
47	47	2
117	117	10
67	71	5
157	157	6
112	112	7
137	137	12
82	83	4
12	12	3
128	128	14
44	44	14
24	24	6
40	40	2
95	97	3
147	147	1
31	31	13
120	120	2
9	9	4
110	110	8
91	91	7
11	11	7
23	23	8
51	52	8
123	127	5
95	95	3
80	80	8
123	123	9
18	18	7
82	89	3
87	99	3
31	66	1
118	119	2
111	111	5
122	122	6
21	21	8
43	43	10
102	102	6
100	137	2
119	119	3
145	145	4
122	123	9
29	30	3
42	42	4
126	126	8
32	64	2
106	106	7
69	69	13
24	26	3
115	115	4
82	82	6
6	6	6
123	126	4
28	30	4
88	88	22
65	65	3
71	71	5
6	7	3
77	78	5
146	146	3
137	146	3
135	136	4
39	39	6
73	73	8
69	70	3
107	107	6
17	49	4
20	20	4
83	85	2
87	87	6
124	124	8
15	16	4
9	11	5
81	84	3
42	43	6
2	6	2
2	29	3
33	34	1
52	52	4
26	26	7
153	153	5
25	26	1
152	152	3
51	51	2
78	89	2
45	129	1
112	132	5
81	81	3
123	125	2
104	104	2
2	127	4
0	0	9
7	8	2
102	124	1
55	55	5
121	121	13
95	96	3
128	132	2
35	37	3
79	79	6
32	34	1
104	105	3
45	45	4
100	100	8
43	44	5
12	130	1
15	15	9
92	141	6
86	86	2
17	24	2
94	94	4
73	116	3
41	42	4
92	92	9
154	154	5
72	73	3
115	116	1
76	76	3
131	131	2
46	132	2
49	49	2
14	47	4
19	20	2
9	15	2
133	134	4
2	2	3
64	70	2
1	1	7
144	145	4
131	133	3
116	116	2
26	32	1
96	96	3
106	116	1
97	97	5
82	87	3
3	4	3
25	39	1
144	148	2
156	156	2
40	46	1
72	87	3
90	91	1
105	107	2
129	130	2
23	31	3
64	128	3
4	56	1
7	7	3
136	136	3
7	136	3
30	30	9
103	124	1
9	10	3
16	16	2
110	112	2
113	113	3
28	31	3
2	64	2
8	8	7
70	87	1
128	129	2
129	132	2
134	134	2
103	103	2
24	32	1
66	66	2
4	5	3
98	98	5
10	10	1
141	147	1
121	122	2
46	62	2
66	70	2
141	144	2
23	44	1
145	146	2
37	37	1
36	36	2
25	25	4
129	133	2
71	99	1
33	41	2
78	79	1
108	110	2
66	67	3
29	31	3
53	54	1
57	57	1
94	141	1
77	77	1
30	32	1
119	123	2
77	79	1
53	56	1
68	69	2
114	115	4
93	93	3
114	114	4
83	83	3
100	138	1
13	13	1
103	151	1
12	16	1
154	156	3
24	25	1
81	82	2
78	80	1
27	28	2
28	29	1
130	130	1
111	112	1
134	146	1
147	148	1
50	52	2
45	48	1
3	3	1
15	17	1
102	106	1
107	120	2
36	42	3
30	31	1
124	125	1
121	149	1
102	126	1
158	159	3
26	27	1
102	104	1
55	56	1
104	151	1
64	127	1
152	153	1
44	45	1
108	113	1
38	38	1
18	51	1
8	10	1
63	123	2
103	107	1
22	22	2
118	118	2
80	82	1
72	138	1
116	117	1
141	141	2
137	139	1
140	140	1
83	149	1
103	105	1
72	135	1
12	15	1
