131	131	5
104	121	4
20	93	6
53	53	5
40	47	1
76	83	2
73	84	6
40	40	3
20	71	1
86	88	2
123	124	1
80	90	5
81	81	2
128	129	3
129	129	3
70	70	5
100	100	2
86	109	5
120	127	2
137	137	14
41	42	4
67	83	3
17	17	3
50	50	4
36	37	3
154	154	2
42	57	2
11	11	5
71	109	7
31	36	1
98	98	5
115	115	2
126	128	1
12	12	8
145	146	3
10	11	1
135	137	3
47	48	1
86	96	2
120	120	8
32	32	4
7	32	5
140	140	2
111	135	6
113	143	4
6	6	7
67	67	2
132	132	1
147	147	1
127	127	6
22	23	3
83	85	2
52	54	1
116	116	1
82	113	1
77	104	2
83	83	7
41	41	6
42	42	3
119	140	4
84	85	5
56	78	1
122	128	3
12	26	4
95	95	5
108	117	4
37	62	1
85	96	1
146	146	4
66	76	1
13	13	7
39	40	2
135	135	1
110	110	4
43	43	2
85	85	5
77	79	5
45	46	5
121	142	6
50	68	2
97	97	6
17	31	5
144	144	11
73	82	2
44	45	2
130	130	1
11	12	1
104	104	3
93	128	1
108	113	7
102	113	1
6	7	2
13	23	1
3	3	3
85	107	2
111	112	2
38	38	1
138	138	1
3	39	4
8	80	1
23	24	1
121	121	4
110	113	2
106	106	1
97	113	2
105	105	2
114	114	2
75	79	1
71	71	1
4	32	4
29	29	2
113	113	4
139	139	2
145	151	7
107	107	1
53	62	1
125	126	2
124	124	4
75	95	2
10	36	2
128	149	3
71	86	3
55	55	4
87	87	4
126	126	2
134	134	3
23	42	2
94	106	3
13	29	4
88	97	1
79	79	3
10	10	3
79	96	2
76	110	3
92	96	2
50	54	1
38	54	1
123	123	3
33	41	1
85	86	1
20	20	3
148	149	2
37	40	1
27	43	1
109	111	1
91	91	3
36	71	1
68	70	2
141	147	1
99	99	2
141	141	4
144	148	3
14	14	2
80	97	1
32	33	1
35	35	3
136	136	4
80	80	3
22	22	3
115	117	4
99	137	3
80	81	1
119	131	1
56	56	1
86	90	1
48	65	1
36	36	3
22	43	2
131	152	3
5	7	1
142	143	3
35	44	2
122	126	3
54	54	2
119	119	2
28	28	6
128	128	3
120	122	1
121	146	1
98	99	1
20	36	3
55	56	1
97	114	1
55	69	2
66	66	2
96	96	2
124	133	2
97	112	1
38	49	3
27	28	1
122	122	1
96	97	3
109	109	5
132	133	5
96	108	2
108	118	2
100	101	2
131	150	1
31	31	3
3	5	1
88	109	2
150	153	1
4	4	3
31	32	1
44	46	3
139	142	1
122	123	1
30	69	1
14	23	1
125	125	3
153	153	2
63	65	3
103	103	3
68	68	2
72	72	2
66	82	1
19	21	1
62	62	2
49	49	3
11	34	1
62	63	1
44	52	2
34	57	2
65	67	1
110	128	1
43	50	2
121	134	2
137	140	1
108	122	2
27	44	3
46	46	2
133	133	2
69	80	1
76	76	1
12	52	2
54	56	2
20	51	1
114	129	1
35	57	1
48	62	2
85	105	2
104	114	2
145	148	2
133	138	2
99	100	2
3	15	1
120	121	1
111	111	2
86	86	2
15	15	1
109	143	1
6	69	1
74	74	1
20	39	2
9	10	2
34	46	1
75	75	1
110	112	1
15	41	1
98	113	1
63	63	1
63	64	1
14	28	1
117	117	1
118	118	1
44	44	1
34	41	2
95	98	1
151	151	3
64	64	1
98	100	1
79	91	1
16	16	1
144	147	2
152	152	1
41	57	1
65	76	1
152	153	1
112	121	1
143	143	1
132	137	2
47	47	1
68	69	2
34	34	1
149	149	1
23	23	1
18	18	1
149	150	2
84	118	1
12	13	2
11	29	1
72	73	1
4	5	1
116	128	1
46	51	1
72	105	1
80	100	1
110	124	2
24	24	1
86	136	1
26	26	1
