125	125	20
149	154	7
145	145	8
140	141	3
163	164	5
35	35	11
148	148	10
186	186	12
25	25	8
29	29	7
122	122	19
17	17	7
121	121	15
47	47	23
114	114	12
37	45	1
40	40	4
41	41	18
1	1	6
122	180	3
75	75	8
0	0	8
16	16	14
143	146	1
4	4	11
138	140	2
9	9	16
119	119	8
182	182	12
49	49	10
30	31	2
48	48	17
15	18	3
61	61	12
15	17	4
151	151	5
12	13	3
123	123	9
5	6	15
33	33	9
12	12	6
168	192	5
118	183	3
180	180	5
45	46	7
70	87	7
73	73	5
70	182	1
190	190	14
156	156	7
67	105	1
61	62	3
2	2	8
88	89	5
34	34	10
77	77	11
97	97	12
59	59	2
111	111	6
98	140	2
110	111	4
113	115	6
183	183	18
6	6	12
134	134	7
24	24	10
57	58	6
65	65	5
38	185	1
86	86	7
131	145	2
59	60	5
107	107	10
135	135	4
26	26	9
3	158	1
32	32	8
119	120	3
192	192	5
66	66	10
157	157	6
14	14	11
23	23	5
6	41	1
6	178	3
133	133	9
69	112	1
8	8	10
172	172	15
146	146	6
114	147	3
105	105	6
184	184	9
6	182	1
130	130	10
15	44	2
86	89	5
2	35	5
128	128	16
44	48	7
131	131	5
155	168	1
51	121	1
60	60	6
37	37	14
22	23	1
46	46	6
175	189	1
191	191	11
194	194	12
6	40	2
81	82	5
81	85	3
142	142	5
49	53	5
124	126	2
127	128	4
39	39	16
181	181	3
60	61	4
157	188	6
63	111	1
120	121	2
87	87	6
55	56	6
131	133	1
53	196	2
94	97	4
158	158	9
102	103	4
118	118	9
155	155	11
88	88	22
31	184	2
140	140	9
164	164	8
135	147	5
56	128	1
153	153	10
56	56	8
3	8	3
57	57	11
83	83	9
64	64	11
69	69	5
13	13	8
72	72	13
53	56	2
10	47	2
169	169	8
106	108	1
185	185	26
170	171	10
50	50	13
10	10	9
142	145	5
98	102	4
101	102	8
163	166	2
180	182	4
116	116	16
96	96	7
158	160	1
137	137	3
174	174	2
22	28	3
158	159	6
38	38	9
166	167	6
3	39	3
58	63	2
179	179	10
15	15	9
25	26	7
20	20	1
160	162	7
4	6	1
4	7	1
187	187	4
21	21	10
19	19	3
33	41	3
32	71	3
64	65	5
103	104	6
166	173	4
120	120	8
59	111	1
120	197	3
13	73	2
176	181	5
82	86	3
43	43	12
179	180	8
183	184	2
147	147	4
80	80	4
32	36	1
95	96	5
81	81	4
58	58	2
94	94	8
165	165	6
63	75	1
108	108	14
103	182	3
124	124	6
42	76	1
53	53	11
165	166	7
2	58	2
160	160	6
178	179	5
52	52	20
151	158	1
122	179	2
13	14	2
54	54	12
71	71	7
143	143	5
4	45	3
109	110	3
39	186	2
86	88	3
84	86	2
19	29	4
93	93	3
67	67	9
99	160	2
99	99	6
22	22	7
76	117	5
111	119	1
74	74	2
7	18	1
126	126	5
167	177	1
34	35	8
161	161	10
168	168	10
115	116	1
12	30	1
18	18	12
170	170	3
121	122	2
152	152	7
189	189	4
5	178	1
134	135	6
107	108	4
32	184	2
43	44	4
113	113	8
10	13	4
174	176	4
80	83	1
37	184	2
159	170	2
177	177	4
104	106	4
55	55	14
48	52	2
112	112	9
82	82	7
27	28	6
138	138	11
104	104	7
161	192	1
66	74	1
141	141	4
139	139	9
135	136	2
3	5	2
190	194	3
78	89	1
24	25	2
193	194	2
68	68	5
168	184	1
197	197	4
136	136	4
113	119	2
136	141	3
153	190	2
71	72	2
110	114	3
10	11	6
69	102	1
44	44	10
178	178	3
99	101	1
161	164	2
110	110	7
102	102	7
114	115	2
188	188	8
109	109	7
105	106	2
50	72	1
108	114	1
159	159	5
140	152	4
30	30	10
10	12	4
115	117	1
104	109	2
3	69	2
125	129	2
132	135	4
36	52	2
85	90	3
107	114	1
167	179	2
17	20	3
79	79	9
173	180	2
68	70	4
151	156	1
96	97	6
95	110	3
161	163	2
0	27	1
162	162	3
27	106	1
94	95	5
151	152	3
196	196	7
48	50	4
95	97	1
189	193	1
182	188	1
154	155	4
174	175	4
69	73	3
19	21	4
21	33	1
7	8	5
1	2	1
138	139	4
21	22	5
175	175	5
36	36	1
142	146	3
89	123	2
104	116	2
174	179	3
53	65	2
106	106	2
16	73	3
173	173	7
66	112	3
170	179	1
18	24	3
71	112	1
14	16	1
169	196	1
17	50	2
19	76	1
44	52	1
186	188	1
116	118	3
18	21	4
155	156	3
64	69	4
3	3	3
186	187	2
15	16	5
88	100	3
46	128	1
144	145	1
0	1	2
89	98	5
174	177	3
67	68	4
51	51	6
188	189	1
78	80	2
156	162	2
46	119	2
34	36	3
66	81	1
95	95	4
60	62	1
149	149	5
158	188	2
15	46	2
70	81	1
83	85	1
130	131	1
100	100	3
54	55	2
128	195	1
79	80	3
49	52	1
93	96	3
150	150	2
31	31	2
193	193	7
106	120	1
39	41	5
148	149	3
35	69	1
122	195	1
97	173	1
103	103	3
21	23	1
176	177	1
166	166	4
180	181	2
178	182	2
135	138	2
152	155	3
96	151	3
19	20	1
63	63	2
195	195	10
182	183	4
0	4	2
172	193	1
117	118	2
110	113	1
98	99	2
100	150	2
111	117	1
35	68	1
78	78	4
40	41	3
137	183	2
89	89	2
115	139	1
170	173	2
59	68	2
58	59	3
81	83	1
62	62	2
86	94	3
115	115	7
167	168	2
8	9	2
112	117	1
164	165	2
23	24	5
159	167	1
139	140	3
85	85	2
84	85	1
12	16	1
65	66	1
32	85	3
155	186	2
37	163	2
133	175	1
24	52	1
37	44	6
124	130	1
56	179	2
14	73	2
108	133	1
29	84	1
84	84	2
27	27	2
6	7	4
157	158	2
85	88	1
7	40	1
77	79	1
189	190	1
141	149	3
11	21	3
141	147	1
27	36	2
106	134	1
61	63	1
18	26	1
99	165	1
70	71	2
4	8	2
116	144	3
24	33	2
62	63	2
43	46	1
58	65	1
26	27	3
50	52	1
185	196	1
25	27	2
76	76	1
41	43	1
28	28	2
123	125	1
36	37	2
129	129	2
144	144	2
121	123	1
10	14	1
42	43	1
48	49	4
70	154	1
56	127	1
12	42	1
65	125	1
9	30	3
97	99	1
104	115	1
55	128	1
60	63	1
53	58	1
99	170	1
39	42	2
31	32	2
0	2	1
192	193	1
18	138	1
108	109	2
122	123	2
7	7	2
94	150	1
111	112	1
70	70	5
96	99	3
161	165	1
53	59	1
173	176	1
127	127	3
48	184	1
116	117	1
60	111	1
157	160	1
54	59	1
175	176	2
64	109	1
47	63	1
28	33	1
103	133	1
47	48	1
9	15	1
101	101	2
1	3	2
132	132	1
16	17	1
50	51	1
0	186	1
124	132	1
63	73	1
117	117	1
163	163	1
58	60	1
41	42	1
5	9	1
176	176	1
136	147	1
30	184	1
21	28	1
116	119	1
146	148	1
75	76	2
30	32	1
94	101	1
56	184	1
19	32	2
8	130	1
45	45	1
137	138	1
31	36	1
52	53	1
101	167	1
176	180	1
