76	76	36
57	57	37
6	6	23
49	64	3
58	58	15
61	61	39
39	39	25
33	35	5
8	17	5
28	28	62
70	70	23
10	11	9
65	66	10
79	79	24
3	4	5
51	52	4
67	67	18
47	47	30
55	55	52
26	26	32
40	40	57
47	48	5
42	43	6
32	32	36
48	57	6
74	74	65
62	64	8
60	62	4
0	12	8
80	80	35
73	73	44
7	7	59
4	19	2
40	41	7
65	65	42
20	20	16
76	78	6
33	34	13
48	48	40
71	72	21
26	27	3
14	15	8
30	30	42
68	68	26
50	50	14
72	72	32
79	80	12
55	59	2
63	63	29
35	36	8
29	30	8
68	77	4
38	38	45
56	56	39
42	47	11
50	69	6
45	45	34
2	2	40
46	47	5
46	74	3
25	26	4
9	9	18
15	25	3
1	2	11
1	1	28
4	4	34
28	38	4
49	49	48
64	64	18
27	55	4
58	59	13
12	12	34
13	16	8
70	71	19
26	75	2
17	18	6
69	69	37
67	68	4
6	7	7
38	39	11
73	75	1
29	37	4
52	66	4
46	46	29
42	42	41
44	44	7
11	25	6
19	19	24
37	37	42
10	12	7
8	9	4
60	60	19
62	62	17
74	75	13
31	32	18
4	6	1
68	69	12
43	43	12
16	17	7
31	31	30
51	51	20
27	27	33
18	18	24
10	10	13
35	35	24
3	3	20
8	79	2
3	47	4
26	42	3
48	60	3
0	0	26
36	36	20
34	35	8
8	8	23
11	13	5
41	41	31
2	78	2
11	11	26
11	12	3
9	11	7
20	65	1
77	77	19
50	53	4
53	53	20
25	25	26
12	21	5
34	34	17
2	60	1
75	76	19
71	71	17
66	69	2
0	17	2
0	4	3
52	52	28
76	77	3
16	16	16
17	62	5
6	12	3
20	59	7
21	50	2
65	72	3
43	53	3
56	60	2
39	40	4
78	78	36
49	57	3
77	78	7
36	37	10
14	14	33
13	13	26
25	67	2
27	37	2
7	8	6
66	66	29
49	70	2
78	79	16
26	29	1
17	17	27
11	21	1
10	34	5
68	70	4
15	16	6
5	8	2
3	72	3
26	31	5
5	68	2
49	51	4
33	56	3
54	54	32
5	6	5
15	15	17
5	16	3
29	29	19
27	77	1
10	14	5
4	48	1
68	71	2
15	53	1
32	33	11
0	21	2
21	21	14
48	58	3
57	58	9
55	56	15
66	67	12
52	54	8
58	70	3
26	72	2
41	42	4
14	69	5
72	73	4
5	5	17
45	46	7
33	33	16
2	3	15
6	51	2
57	61	2
34	40	4
54	55	7
67	70	4
75	75	14
25	70	5
20	21	2
50	52	12
63	65	4
49	54	1
49	53	9
67	69	3
69	70	6
55	66	3
18	19	1
59	59	26
1	77	2
25	53	5
22	22	5
28	61	1
15	61	2
19	30	1
49	50	11
0	1	9
40	48	3
9	10	9
42	75	2
37	39	1
33	38	4
63	64	4
52	53	10
57	60	10
47	64	1
28	31	2
66	71	4
58	71	6
4	5	8
71	73	2
27	28	7
10	50	4
58	63	2
74	78	1
30	31	7
5	59	1
73	76	2
26	54	2
59	62	6
53	54	7
29	48	6
33	73	5
13	70	1
6	13	2
42	50	3
10	13	3
28	29	7
12	14	2
53	68	1
25	27	1
40	43	5
48	49	4
8	26	2
32	36	2
2	27	2
27	76	3
52	70	2
30	42	1
30	66	2
12	38	2
6	11	2
12	25	3
10	32	1
47	61	1
7	55	1
12	53	3
26	55	1
11	14	2
40	47	2
13	14	9
18	34	5
10	33	4
2	76	1
49	55	4
56	58	3
20	25	4
3	35	2
28	60	1
44	74	2
46	48	2
62	63	1
33	37	1
3	39	1
25	73	4
25	68	1
53	63	3
2	5	2
50	61	1
0	43	1
61	62	2
27	73	2
61	72	1
50	51	2
49	59	3
4	72	1
34	36	4
14	21	2
19	20	3
31	34	2
2	4	2
37	38	2
18	63	1
56	73	2
56	57	5
6	15	1
2	79	1
19	21	3
16	26	1
59	73	2
53	66	2
0	40	2
55	57	1
66	72	1
32	34	2
54	63	1
58	81	3
7	16	1
3	5	2
51	54	1
39	46	1
59	60	2
5	7	3
57	65	5
51	55	1
64	65	2
57	59	5
2	20	1
30	32	1
66	74	3
35	40	2
28	65	4
29	40	1
33	36	2
59	72	2
9	63	1
59	76	4
31	33	4
46	64	2
6	14	1
5	72	2
55	63	2
26	61	2
45	47	3
19	55	2
64	72	1
3	37	1
47	63	1
31	35	1
51	72	2
45	75	1
1	76	3
47	74	1
11	50	1
6	69	2
8	14	2
51	53	1
6	8	1
51	70	1
35	37	1
31	70	1
15	67	1
59	64	2
27	33	1
34	39	1
6	57	1
20	31	1
73	74	3
26	28	1
14	25	1
58	72	1
37	40	1
58	75	1
74	77	2
61	77	1
51	64	1
46	55	1
62	65	1
36	42	1
47	58	1
32	72	1
16	20	1
50	54	1
5	36	1
52	67	1
53	55	1
8	57	1
30	34	1
75	77	1
25	75	2
2	37	1
4	7	1
1	28	1
8	16	1
71	74	1
8	33	1
