100	100	11
161	161	9
137	138	5
44	44	8
151	151	8
144	144	7
62	62	16
33	33	6
37	37	4
20	20	8
188	188	10
187	187	7
105	105	9
6	24	4
176	176	8
165	166	4
184	184	4
147	147	4
118	118	10
155	155	4
129	129	15
50	51	6
74	75	10
65	86	3
128	128	7
65	65	8
6	7	11
61	61	9
117	126	1
170	170	7
81	81	3
136	137	2
103	104	1
4	5	2
73	74	13
45	45	9
116	116	8
8	23	3
186	188	3
47	66	6
46	46	3
61	65	1
136	136	7
63	81	6
59	59	9
157	158	10
64	64	8
16	16	4
64	65	5
193	193	12
4	4	8
121	121	1
126	127	3
194	195	4
192	192	12
158	159	2
183	183	2
163	164	4
122	122	6
72	72	5
82	82	5
132	132	6
46	54	7
191	197	3
151	152	2
143	150	2
7	7	10
98	130	4
138	138	10
36	36	5
194	194	3
138	140	4
30	30	4
60	61	2
171	171	11
166	166	5
41	42	2
152	170	2
131	131	9
179	179	4
114	117	2
5	6	2
51	51	10
140	140	6
126	126	4
94	95	7
143	186	2
98	98	4
39	39	8
144	168	3
76	76	4
13	13	2
176	178	2
152	152	1
13	24	1
113	113	4
149	150	2
189	189	6
3	25	2
12	13	3
58	58	6
135	135	9
133	133	3
43	43	5
93	94	2
57	57	2
70	136	2
154	154	4
75	75	3
182	183	1
191	191	2
125	125	2
150	150	4
145	145	2
32	32	3
181	181	6
96	97	5
78	79	1
8	46	2
153	153	10
103	103	5
29	29	3
180	180	12
122	125	4
170	171	4
172	172	5
112	112	4
135	136	3
70	135	3
193	195	4
19	20	7
8	24	2
95	95	10
88	90	4
107	118	3
11	15	3
134	134	9
38	38	8
80	80	6
63	63	9
114	114	1
179	182	4
164	165	4
49	74	2
142	195	3
156	156	9
8	21	2
11	11	3
34	34	6
46	57	1
67	67	6
156	160	4
18	18	7
65	66	1
187	188	1
80	111	3
171	184	2
2	2	6
67	68	4
190	190	3
55	65	3
49	49	4
69	69	7
49	113	3
115	115	1
109	110	3
44	45	3
146	146	3
56	56	11
83	83	6
20	21	1
15	15	3
23	23	3
111	114	2
28	29	3
116	117	1
81	85	1
163	163	4
79	79	3
152	171	1
86	86	10
29	31	4
157	161	1
117	117	6
84	84	2
182	189	2
132	133	4
66	69	1
119	119	7
177	177	3
169	169	1
39	43	5
17	18	3
53	53	2
26	26	2
186	186	7
39	44	1
55	56	2
42	42	4
142	142	8
151	171	2
6	6	5
14	14	4
11	13	4
159	159	3
9	9	3
1	1	3
54	54	5
71	71	5
137	137	2
97	98	1
158	158	1
144	146	3
173	174	4
58	59	4
89	89	8
101	102	2
125	126	6
13	26	3
127	127	4
197	197	3
143	143	1
23	24	1
31	141	1
101	101	4
107	108	1
38	39	2
175	175	6
175	177	2
71	136	1
21	21	1
165	165	3
133	134	2
130	131	1
62	82	2
99	99	3
25	25	1
1	25	2
109	109	2
120	120	5
60	60	2
55	63	1
47	47	3
51	52	1
182	182	4
99	100	3
185	185	5
15	16	1
48	48	7
41	43	1
130	130	5
141	196	1
159	160	2
171	172	3
75	76	3
196	196	3
34	36	1
104	104	3
174	174	5
110	130	1
21	22	3
0	1	6
73	73	1
79	80	1
77	77	2
148	167	2
37	38	4
53	63	2
79	109	2
4	42	3
85	86	6
52	52	3
76	77	1
167	169	3
45	55	6
2	40	1
175	180	2
12	12	3
96	135	6
105	119	3
78	81	1
166	167	2
131	132	1
188	189	2
192	193	1
168	169	2
168	168	2
118	119	1
94	94	7
190	191	2
28	28	1
31	31	2
162	162	3
24	25	1
156	162	1
69	71	1
56	78	3
0	25	2
1	34	1
157	177	1
118	120	2
67	88	2
141	141	5
70	70	3
123	123	2
48	71	2
40	40	3
74	74	5
108	108	6
3	5	1
48	72	1
30	32	1
150	151	2
46	56	1
52	54	1
34	35	4
19	19	4
25	26	2
149	149	2
2	3	2
82	87	3
10	14	1
71	129	2
132	136	1
174	184	1
181	194	4
186	193	2
192	196	1
160	160	8
71	135	1
66	66	2
27	27	5
175	176	2
99	134	1
164	164	6
81	86	1
3	3	6
118	130	1
19	29	2
144	163	1
93	93	1
61	86	2
114	115	3
145	168	1
161	162	1
98	99	1
162	164	1
152	153	3
143	144	3
16	18	1
78	78	2
59	60	2
9	10	1
64	86	1
173	173	1
56	57	2
88	88	2
3	4	2
31	32	1
141	142	1
161	175	2
7	25	1
64	85	2
107	113	2
16	19	1
178	178	1
177	178	2
6	20	1
0	0	3
144	195	1
45	46	1
66	68	1
17	19	2
47	48	1
14	24	4
144	186	1
43	59	1
13	14	2
102	124	1
40	41	1
111	111	2
8	8	1
96	96	1
10	11	1
154	155	1
69	134	2
96	134	1
22	22	2
66	88	1
53	62	1
145	149	1
138	139	1
155	161	1
80	85	3
82	86	1
191	196	2
55	62	1
10	10	1
62	63	1
107	107	3
10	139	1
17	22	1
68	68	1
154	172	1
43	58	1
102	102	2
180	181	1
17	17	1
53	55	1
7	24	1
109	131	1
110	110	2
66	90	1
39	41	1
183	184	1
106	106	2
105	120	1
185	186	2
71	72	2
78	80	1
41	41	1
9	11	3
172	173	1
193	194	1
120	121	1
5	5	1
112	113	2
45	57	1
24	24	1
