148	148	5
150	152	1
56	64	2
142	144	5
122	123	3
110	110	18
53	55	5
78	78	11
127	127	9
37	37	5
35	35	2
85	86	5
119	119	9
116	118	6
155	184	5
88	89	3
3	4	9
174	174	7
102	189	4
18	18	10
156	157	3
112	112	4
101	101	10
46	53	4
70	70	10
13	13	12
175	175	10
161	164	5
36	36	11
67	67	5
8	8	4
26	26	7
195	196	4
126	127	3
180	180	9
168	168	3
155	158	4
101	131	1
54	54	10
99	99	5
10	10	6
77	78	5
21	22	1
156	156	9
28	67	5
14	15	2
117	117	9
155	155	7
197	197	6
173	174	4
27	27	6
169	169	10
113	114	7
37	38	3
168	169	7
32	32	2
135	146	7
171	172	4
133	133	2
80	84	2
164	165	3
111	111	12
11	105	3
52	52	6
189	189	17
196	197	1
60	60	13
95	95	9
176	177	7
2	2	16
65	66	3
159	159	7
89	89	6
120	120	21
124	124	3
40	41	5
0	0	6
142	173	3
115	116	3
38	38	6
15	15	3
116	116	9
53	72	5
111	112	2
0	1	4
79	79	10
119	120	3
142	170	2
149	149	11
42	44	2
49	49	9
7	7	12
75	75	6
160	160	5
34	48	1
128	129	3
22	24	1
157	157	9
42	42	3
94	96	3
150	151	1
8	11	4
195	195	8
14	14	13
19	19	3
30	30	5
193	194	2
127	128	2
119	188	3
76	76	3
134	160	3
155	157	3
138	138	7
154	154	5
41	53	4
100	129	2
193	193	19
151	151	9
161	166	3
137	137	11
20	74	1
64	66	3
30	32	2
152	153	3
121	121	2
152	192	5
86	86	5
45	71	2
173	173	4
41	52	3
136	171	1
148	182	1
158	158	6
104	106	14
147	147	10
141	141	7
143	144	3
136	144	3
167	167	4
105	106	5
136	136	7
177	178	2
134	135	9
185	185	17
189	190	1
139	175	2
81	81	6
153	153	16
150	150	5
39	44	4
123	123	5
87	87	7
100	100	4
118	118	5
36	44	6
117	118	2
125	125	2
47	47	7
50	50	8
107	108	2
29	29	14
124	125	3
58	58	9
188	188	9
41	41	8
108	129	2
41	45	1
80	80	6
45	45	8
98	148	1
18	110	1
110	127	2
178	178	3
196	196	11
61	61	4
73	73	6
5	6	1
6	9	2
40	42	6
145	146	4
12	105	1
126	126	5
19	20	2
5	68	1
180	181	3
96	96	11
56	56	9
51	51	10
33	33	6
183	183	7
161	161	6
82	83	8
115	115	8
21	21	3
55	56	15
194	194	6
36	37	10
84	84	3
80	83	3
5	7	11
23	23	14
163	165	3
191	191	6
140	140	6
94	94	9
144	172	2
79	80	3
13	14	4
68	104	1
22	191	1
64	64	7
143	143	6
10	12	2
121	122	2
59	60	9
59	61	3
145	175	3
83	83	2
114	114	4
17	17	5
177	177	4
135	147	2
152	152	5
120	122	2
107	107	7
108	108	4
16	16	4
24	24	2
54	55	3
1	18	1
149	194	2
11	11	3
99	100	4
69	70	4
108	110	2
109	127	2
142	142	4
185	186	2
106	106	7
2	7	1
28	28	4
102	102	7
31	32	2
72	73	2
190	190	7
139	140	3
145	145	5
66	66	9
146	147	2
160	161	4
12	12	1
11	104	2
172	173	3
190	192	1
143	171	2
139	139	7
17	18	5
104	104	3
98	98	6
146	146	1
8	66	1
94	97	4
187	187	6
140	174	1
94	95	3
38	45	7
29	58	1
35	42	3
96	160	1
59	62	2
111	126	2
170	170	3
117	160	2
135	135	5
22	106	2
88	88	5
174	175	1
47	52	4
53	53	1
184	184	4
69	69	5
40	53	2
39	42	2
179	180	3
186	186	10
4	86	2
141	144	1
55	55	6
34	34	7
6	68	1
39	45	1
158	159	2
109	109	9
163	163	5
152	158	2
30	58	1
100	101	3
9	9	4
63	63	3
161	165	5
40	46	1
133	134	1
171	182	2
190	193	2
32	57	1
155	194	1
24	25	5
2	89	5
113	113	2
181	181	8
5	80	2
81	86	1
78	79	2
22	103	1
163	169	3
42	46	4
25	25	5
4	4	4
127	197	1
1	1	2
65	68	2
20	20	2
144	145	1
12	30	2
162	162	3
27	106	1
129	129	6
62	62	7
137	138	2
21	107	3
131	131	4
43	71	1
81	83	2
48	48	5
179	179	2
23	24	5
21	104	2
154	169	1
176	176	4
94	180	2
178	179	2
46	46	5
16	107	1
74	75	1
51	52	1
3	3	1
118	160	2
24	106	3
11	106	2
82	82	1
10	66	1
84	86	5
44	45	1
11	14	3
149	152	1
39	39	1
98	133	3
150	186	3
103	191	1
171	183	3
128	128	3
149	157	1
38	42	1
94	163	1
65	67	2
54	71	2
134	146	3
131	132	1
167	168	1
3	7	1
150	189	1
50	51	1
68	68	4
41	47	1
2	11	1
57	57	4
27	68	1
149	183	3
44	44	2
20	21	4
31	73	1
133	148	1
89	90	7
176	178	3
94	157	1
139	178	2
101	132	1
153	154	2
146	148	2
99	130	1
31	31	2
165	165	3
156	164	1
22	25	1
64	65	1
37	48	4
131	133	4
28	30	2
159	189	1
181	182	2
6	62	1
183	184	1
138	140	3
60	61	3
130	132	1
105	105	4
95	98	1
56	78	2
171	171	3
125	126	1
77	79	1
71	71	2
97	98	1
104	105	2
140	145	3
58	59	3
164	164	3
122	122	1
6	63	1
100	102	2
164	169	1
149	184	1
116	166	1
22	22	1
20	107	1
59	83	1
128	194	1
95	97	1
94	98	1
74	74	2
130	130	2
95	96	1
192	193	1
6	8	3
112	113	1
171	178	1
110	111	1
28	29	1
9	10	1
8	10	2
85	85	2
153	160	1
83	85	1
95	163	1
44	46	1
26	27	1
66	67	1
11	67	1
97	97	1
192	192	1
22	23	1
86	87	1
70	109	1
