63	64	1
76	76	2
7	7	3
78	78	4
74	77	5
42	63	3
90	90	3
25	25	4
33	33	1
50	122	3
88	89	6
86	88	2
56	56	6
49	50	3
95	95	9
129	130	5
94	94	8
75	76	4
93	93	3
109	109	11
73	77	1
110	110	1
113	113	2
14	14	6
41	41	7
16	16	8
123	123	3
120	120	6
41	63	8
52	52	5
47	48	3
15	15	4
18	19	2
34	130	3
104	105	2
116	117	2
62	62	1
104	104	3
74	75	5
129	129	4
91	92	3
68	68	7
39	39	5
15	77	2
105	105	5
90	91	4
50	50	7
75	75	5
118	118	7
53	53	6
27	28	4
32	128	1
55	55	9
114	114	4
44	44	7
91	91	3
86	86	5
59	85	1
44	124	2
110	111	1
26	26	3
40	40	4
80	80	3
9	9	2
2	2	2
12	12	6
4	4	5
0	0	3
24	24	4
65	65	4
127	127	2
117	117	10
72	72	5
107	108	5
45	124	3
57	57	8
101	101	3
3	3	3
59	60	2
103	103	7
125	125	4
33	46	3
73	73	5
59	59	4
114	116	3
50	121	3
1	80	1
79	80	2
48	48	2
90	96	4
88	88	3
5	5	4
51	51	3
111	112	2
30	31	2
79	79	4
101	105	4
31	131	1
60	61	3
100	101	1
69	69	3
107	107	1
132	132	2
40	81	1
115	115	3
15	16	1
100	104	3
29	29	1
115	127	1
69	76	2
98	99	1
74	74	3
17	17	5
20	45	2
111	111	3
81	84	1
124	130	2
21	21	6
96	96	1
72	73	2
83	83	8
102	102	10
108	109	2
18	32	1
17	21	1
23	24	2
49	49	4
1	1	2
119	119	1
106	108	1
64	64	3
18	20	2
91	93	1
108	108	5
32	123	3
131	133	2
32	32	4
98	109	2
60	91	2
131	131	3
66	67	3
126	127	5
122	122	1
18	18	1
81	81	2
112	112	1
26	27	1
97	97	4
98	98	3
15	68	1
128	128	3
54	54	3
60	60	2
52	53	3
31	31	1
53	54	1
116	116	1
41	42	1
20	44	3
82	82	3
6	6	4
19	19	1
126	126	1
71	71	1
63	63	2
9	10	1
13	14	1
34	62	1
19	32	1
28	28	2
33	125	1
58	58	1
127	128	1
2	6	1
67	71	1
28	29	2
45	45	2
113	114	1
131	132	1
8	8	2
77	78	1
73	79	1
89	90	1
48	125	1
124	124	1
124	125	1
96	98	1
34	34	1
99	99	1
31	132	1
46	126	1
8	9	1
1	76	3
111	117	1
40	41	2
27	27	1
13	13	1
116	118	1
10	12	1
51	53	1
