55	56	5
0	0	10
43	44	6
40	40	25
95	95	19
91	91	11
101	102	6
21	75	2
112	123	15
40	41	5
118	118	11
104	105	10
72	73	4
7	8	3
16	16	8
127	127	10
104	104	23
66	67	4
51	51	15
115	116	13
59	69	2
13	15	2
69	72	2
55	55	9
75	88	2
71	72	10
86	88	1
6	6	14
110	110	28
115	115	16
46	47	1
130	130	11
120	120	10
107	107	16
32	32	11
28	28	12
43	43	16
125	125	14
42	42	11
101	108	2
15	15	14
12	12	24
86	86	8
121	121	20
47	47	7
11	11	12
18	18	12
82	87	2
64	64	10
50	50	18
2	3	6
17	17	7
99	99	26
61	61	18
91	93	1
111	111	22
124	125	6
67	86	4
71	71	8
78	79	4
106	106	12
116	116	18
102	103	4
125	131	2
106	107	8
56	58	1
74	75	1
21	21	8
44	44	13
77	77	18
81	84	2
72	116	3
79	79	21
129	129	13
76	93	2
101	109	2
39	41	3
75	76	1
52	53	2
124	132	4
60	60	3
42	43	4
94	94	19
62	62	9
124	124	18
56	56	16
70	70	11
21	97	2
54	54	13
128	128	13
68	77	1
76	76	25
49	49	15
123	123	16
4	4	10
109	109	22
113	113	17
57	57	9
46	65	8
33	33	5
34	55	4
14	16	6
5	127	2
74	89	4
24	100	2
10	10	8
2	2	8
117	118	8
45	57	3
114	114	14
46	48	4
20	20	15
41	44	2
22	22	12
5	126	7
15	18	4
105	106	2
14	14	7
9	12	2
97	99	2
5	5	9
8	8	10
80	81	4
98	98	15
16	39	3
70	71	10
124	133	4
12	19	3
93	93	11
102	102	9
9	9	24
122	122	12
1	1	19
0	1	1
95	96	4
81	87	5
98	99	7
23	24	8
73	73	13
66	116	2
112	112	18
57	58	2
74	74	10
32	108	4
78	114	3
41	43	1
102	127	2
117	117	19
93	113	1
92	92	12
24	24	18
76	113	3
19	19	21
94	115	1
20	34	1
100	126	5
27	27	10
97	97	4
1	2	2
45	45	7
31	31	14
88	89	3
53	122	1
111	112	1
75	75	6
128	130	6
103	103	7
3	3	13
93	94	9
114	116	2
13	14	5
67	71	6
82	82	9
132	132	10
15	16	1
7	102	3
90	90	12
48	48	21
101	101	15
19	32	3
21	24	2
34	34	8
112	113	6
53	53	13
51	54	1
65	65	18
100	100	7
64	66	1
21	31	3
23	31	1
26	26	14
63	63	19
83	83	9
45	63	7
76	81	1
7	7	19
86	89	2
129	130	9
53	56	2
69	71	1
56	109	1
25	25	10
108	108	12
83	84	7
44	45	3
78	78	9
125	132	4
11	12	5
62	63	9
81	81	14
118	125	3
48	49	3
11	29	2
54	79	3
54	81	3
23	23	6
131	131	12
3	23	5
89	89	14
88	88	8
23	99	2
87	106	3
133	133	3
56	110	3
91	92	2
87	88	3
113	114	5
15	39	1
6	7	3
8	94	4
105	105	11
3	4	5
50	57	5
87	89	5
97	98	6
58	58	13
83	94	2
65	68	2
71	74	2
92	93	3
109	110	7
31	32	7
45	46	3
67	67	7
49	56	2
32	33	7
74	85	3
27	114	1
68	68	15
59	60	2
130	131	3
126	127	6
11	77	3
16	72	4
54	57	3
84	84	9
19	72	3
121	123	3
73	85	3
105	107	4
93	99	3
85	85	10
16	17	5
14	45	1
10	11	4
128	129	2
22	29	1
72	72	10
21	55	4
120	124	4
119	119	7
100	101	3
53	54	5
61	69	1
30	32	6
89	90	1
5	24	3
80	80	11
79	80	6
39	40	4
102	108	1
119	125	3
104	106	1
42	90	2
99	101	2
46	107	1
53	110	5
123	124	4
38	40	5
27	29	2
127	128	5
52	109	1
93	100	2
85	86	3
48	82	3
113	125	3
79	102	3
115	130	1
13	13	3
31	109	1
15	41	3
51	129	2
26	27	13
57	112	1
2	7	2
40	44	2
39	83	1
47	99	1
59	59	5
41	41	3
38	39	8
66	66	8
67	68	9
19	25	2
67	115	1
91	126	1
126	131	1
96	131	2
60	65	1
126	126	13
47	55	3
75	98	5
90	125	2
30	30	7
79	83	2
51	130	1
68	70	3
96	109	4
48	67	2
58	59	1
52	52	4
126	132	4
63	119	2
82	85	1
96	96	8
9	10	2
29	31	3
2	6	1
78	96	1
71	77	3
38	38	7
52	120	1
92	126	1
51	52	1
126	128	2
29	29	2
117	130	3
19	24	1
28	29	6
61	66	2
46	46	5
76	98	3
20	33	7
126	130	1
70	81	3
87	87	10
61	62	1
4	14	1
49	50	1
83	100	1
17	21	1
13	34	4
5	8	3
52	110	2
118	119	3
121	122	2
94	95	3
44	59	3
94	128	2
72	74	3
64	115	3
92	98	1
85	90	1
81	82	2
21	30	1
22	23	4
68	69	1
39	39	5
108	109	1
64	65	6
75	87	1
92	118	1
5	33	2
52	54	3
51	95	2
114	133	1
126	129	1
55	82	1
132	133	1
74	78	2
52	102	2
63	127	1
33	82	2
5	103	3
19	22	1
103	105	2
46	64	1
3	133	2
87	105	1
13	27	4
66	115	2
5	6	3
106	110	2
96	125	1
60	61	1
60	70	2
68	72	2
18	21	1
50	51	3
67	72	2
37	37	1
3	19	1
122	123	2
6	132	1
96	99	2
96	100	1
45	56	2
76	89	3
13	18	1
48	56	1
61	63	3
81	95	2
70	83	2
115	128	1
4	5	2
103	104	2
49	53	1
94	129	1
59	80	1
38	41	2
93	117	1
29	30	1
3	22	2
43	45	1
69	69	4
81	85	2
22	31	2
114	117	1
62	68	2
26	28	1
65	71	3
129	131	2
15	23	1
48	116	1
93	125	1
13	16	1
46	92	2
76	77	2
44	63	5
65	116	1
10	56	2
20	23	2
71	92	1
100	108	1
52	129	1
79	96	2
98	118	1
8	9	1
120	121	1
42	63	2
17	18	3
56	57	3
1	33	2
53	121	2
117	129	1
40	42	3
18	19	1
49	52	1
7	51	2
50	101	2
76	120	1
38	55	1
86	87	1
93	126	2
65	126	1
123	125	1
84	99	2
4	6	1
107	108	1
34	56	1
118	120	1
116	127	2
0	2	1
58	83	1
131	132	1
54	114	1
52	125	1
47	49	1
41	42	1
125	126	1
62	65	1
24	25	1
96	127	1
23	76	1
96	119	1
93	120	1
27	28	1
108	110	1
18	23	1
63	99	1
56	111	1
76	111	1
52	104	1
80	84	1
