21	21	2
117	117	5
121	121	6
75	75	5
91	91	4
85	85	5
160	160	7
167	168	5
27	27	4
177	177	5
25	25	4
6	6	3
84	84	12
119	120	3
83	83	10
73	81	2
113	113	9
75	85	2
141	151	2
114	114	7
107	107	5
17	19	4
10	10	6
130	133	3
43	44	3
139	140	3
30	30	3
185	185	2
108	108	11
141	159	1
134	134	10
82	120	2
135	135	3
46	46	6
101	101	5
45	45	7
143	155	1
100	100	6
5	5	14
94	94	5
104	104	9
87	87	6
7	7	7
140	140	13
82	82	6
177	179	2
62	74	1
35	35	3
129	129	6
47	47	6
182	182	9
100	102	3
97	97	8
166	181	2
118	119	2
43	43	13
22	22	6
9	9	2
81	81	5
86	87	3
141	141	2
89	89	11
123	123	6
75	84	1
163	163	5
112	114	1
177	178	3
90	90	7
154	154	4
65	65	11
187	187	5
174	187	1
106	107	5
70	70	4
55	56	6
169	169	4
33	44	2
142	142	3
54	55	3
86	154	3
0	0	7
1	1	8
106	106	5
41	76	1
76	77	5
124	124	2
68	79	1
18	19	2
99	99	12
147	147	3
83	86	2
172	172	6
70	71	1
124	125	3
138	157	2
148	148	2
156	157	2
142	156	1
159	159	2
81	82	3
109	109	3
40	40	7
72	72	5
158	189	1
61	61	6
36	37	1
57	59	1
88	88	2
150	150	4
120	121	1
164	173	2
22	23	5
87	88	1
170	185	2
175	176	5
159	175	1
109	110	2
151	151	2
83	89	2
145	145	5
60	60	3
184	184	4
98	99	1
145	147	3
149	149	9
59	59	1
93	94	1
122	122	6
179	179	3
55	55	4
92	92	5
89	109	1
170	170	4
186	186	5
110	110	7
66	67	4
41	47	1
28	65	2
102	103	1
137	137	2
17	20	8
24	38	2
98	120	2
85	87	1
2	2	3
62	77	2
67	67	4
128	128	6
62	62	1
173	174	1
79	79	6
102	115	1
75	81	1
2	3	4
90	112	2
121	122	3
176	177	5
83	84	6
180	180	2
68	68	10
63	63	8
169	170	2
175	181	1
171	174	1
28	66	3
73	75	2
78	78	5
153	154	2
128	132	1
41	67	3
144	152	2
174	174	3
180	181	2
102	113	2
15	15	5
46	47	1
62	87	1
17	17	5
77	79	2
33	36	1
64	79	4
187	190	1
36	36	2
61	76	1
129	140	1
105	106	1
81	84	1
41	41	6
131	131	3
77	77	4
154	155	3
3	3	3
20	20	2
63	72	4
138	138	8
103	103	2
157	157	3
6	8	3
168	168	2
32	32	5
105	190	2
45	63	2
13	14	4
23	36	2
125	125	7
144	144	6
66	66	6
85	86	2
83	87	4
58	59	5
27	28	3
29	29	1
56	56	8
120	126	3
120	120	6
118	150	2
15	41	2
93	93	1
54	54	5
95	119	1
71	71	1
39	39	6
33	81	1
38	38	3
123	124	1
19	19	1
189	190	1
77	90	1
126	126	1
92	94	1
24	24	4
130	130	1
9	49	1
127	127	2
67	68	1
170	184	1
16	22	1
115	115	1
33	33	2
36	47	1
34	35	4
179	180	1
123	135	1
153	153	1
26	38	1
79	82	2
20	21	1
5	24	4
119	125	1
125	129	1
175	175	4
25	46	1
48	48	4
110	111	2
143	143	2
170	183	1
69	69	1
21	22	1
168	169	2
166	166	2
100	149	4
13	13	2
116	116	2
26	30	1
97	98	1
44	44	2
181	181	1
127	128	1
53	53	1
188	190	2
146	148	1
8	8	4
10	13	2
161	172	1
179	181	2
24	40	1
75	76	3
104	190	1
182	183	3
16	17	1
140	141	3
90	91	1
171	172	1
105	105	1
30	32	1
152	153	3
124	126	1
119	119	2
25	27	1
80	80	2
67	71	3
68	80	1
108	116	2
188	189	2
133	133	2
84	153	1
139	139	1
149	150	3
136	151	1
170	187	1
165	165	1
89	90	1
100	110	2
42	42	2
61	62	3
165	171	1
126	135	3
84	85	2
40	44	1
111	111	2
157	181	1
147	151	1
94	95	1
114	115	1
133	134	1
129	138	1
157	158	6
54	71	1
18	18	3
88	89	2
2	88	2
132	133	1
37	37	3
96	96	1
138	182	1
171	171	1
72	73	1
62	63	1
30	31	1
173	189	2
4	4	1
38	40	1
176	176	1
53	99	2
64	64	1
100	118	1
57	58	1
35	41	1
57	57	1
74	74	1
28	28	1
39	40	1
110	114	1
163	164	1
166	189	1
32	33	1
146	146	1
32	35	1
76	76	2
27	59	1
145	146	1
9	10	1
68	70	1
134	138	1
64	65	1
73	74	1
17	54	1
183	184	1
102	145	2
183	183	1
101	102	1
0	25	1
85	95	1
47	78	1
112	112	1
65	67	1
62	76	1
57	67	1
130	134	1
64	66	1
100	116	1
