124	133	3
55	55	4
70	70	4
129	129	2
151	152	2
183	184	2
76	76	2
54	54	2
20	20	3
73	73	4
132	134	4
96	96	6
68	68	4
162	163	3
0	44	5
154	154	11
140	141	1
164	164	5
148	148	1
88	89	1
5	5	9
166	167	6
142	142	3
79	79	3
117	117	5
28	29	1
158	166	2
70	71	3
123	123	11
122	130	2
90	90	3
4	4	5
26	26	1
162	162	4
30	31	1
152	154	3
52	53	4
152	152	1
188	189	2
106	106	5
77	77	5
45	45	5
172	172	4
55	97	2
178	178	3
90	92	1
57	57	5
33	33	3
146	147	3
13	14	3
144	144	4
113	113	7
94	94	6
78	78	14
10	10	4
53	53	5
87	87	1
21	24	1
38	38	1
126	128	5
13	13	4
178	183	4
64	64	1
137	137	9
100	101	2
16	122	1
39	39	2
20	21	1
46	46	7
68	72	3
89	89	1
153	154	1
175	175	6
100	103	2
18	18	5
47	47	8
8	28	2
8	8	7
136	136	2
82	82	6
24	81	2
94	95	1
57	101	1
59	59	2
107	107	5
69	69	3
179	179	4
159	159	3
7	8	2
117	118	3
24	24	2
4	55	3
142	156	2
145	145	7
155	155	8
124	124	7
88	88	4
119	119	2
12	53	3
84	85	4
45	46	7
111	111	3
166	170	3
127	128	3
116	116	4
136	141	1
160	160	5
67	123	3
85	85	5
57	58	1
167	167	8
41	41	1
92	92	7
28	28	2
63	63	4
154	167	2
110	110	3
146	146	2
75	75	2
89	90	4
111	112	3
21	21	4
181	181	5
7	26	1
93	94	1
19	19	4
27	27	8
15	15	3
7	7	5
109	109	6
120	120	7
190	190	2
60	60	3
17	17	1
87	98	2
100	118	2
107	127	1
133	135	3
154	185	1
99	99	6
31	81	1
12	13	1
53	57	3
161	161	4
38	39	3
166	166	4
43	71	2
135	136	4
31	31	2
16	16	2
186	187	4
189	189	5
114	114	5
10	12	1
179	180	3
41	47	1
108	110	1
134	168	1
180	180	3
103	104	1
84	84	2
135	137	2
74	75	2
58	59	2
97	113	1
3	13	5
140	178	4
122	122	1
174	174	3
66	66	2
36	36	2
85	96	1
161	162	1
109	110	2
30	30	6
130	144	2
93	188	1
42	42	1
13	20	3
165	165	3
100	117	2
27	28	2
121	121	1
114	115	2
47	48	1
108	109	1
138	138	1
157	158	3
168	168	2
6	8	1
123	130	2
163	163	4
120	122	4
135	139	2
25	25	5
159	161	2
98	154	1
30	35	1
3	3	3
157	157	1
135	135	4
187	187	3
82	83	1
71	71	1
173	173	3
22	22	3
56	96	2
186	186	3
40	40	2
104	104	3
150	150	2
102	102	1
48	48	1
115	115	1
14	20	1
106	107	2
148	150	2
96	119	2
7	42	2
169	169	3
183	183	1
125	125	5
185	186	3
145	147	1
35	35	5
131	131	2
83	83	1
97	97	4
78	82	1
97	99	2
182	183	1
22	24	1
152	153	1
169	170	3
65	65	2
27	29	1
17	34	1
159	163	3
11	11	1
103	103	2
176	177	2
143	144	1
98	98	2
115	148	1
14	14	1
94	187	2
41	75	1
108	124	1
2	2	3
25	102	1
79	80	1
134	135	1
132	132	2
1	1	3
86	86	2
47	76	1
46	47	1
80	80	1
61	61	4
171	171	1
20	65	1
6	38	2
60	61	1
149	149	1
53	61	1
100	100	2
90	107	1
6	67	1
112	112	1
174	175	1
182	182	1
106	114	1
140	140	1
101	102	1
156	156	1
73	74	1
153	153	1
158	158	1
44	45	1
56	57	3
18	20	2
145	151	1
141	170	1
141	142	1
4	5	2
64	65	1
0	0	1
67	67	1
115	149	2
107	112	1
85	97	1
177	177	1
