77	77	8
21	21	3
91	91	14
87	87	27
16	16	16
85	97	5
23	23	8
112	112	13
135	135	15
98	99	7
92	92	7
76	77	4
106	106	14
1	1	21
132	132	5
18	19	4
89	89	15
126	126	9
113	122	2
12	74	3
81	82	1
86	86	20
124	126	2
110	111	3
31	31	10
101	101	5
93	93	16
127	128	14
111	111	6
23	24	7
117	118	5
26	26	16
74	75	11
78	108	3
122	123	11
128	128	7
74	74	22
21	22	13
7	29	5
22	25	4
30	31	8
0	1	4
102	102	5
86	89	2
81	83	9
12	12	11
133	133	4
37	37	17
24	25	4
100	101	4
107	107	5
81	92	3
4	5	1
128	129	8
130	130	11
134	134	7
38	38	5
109	109	6
69	69	2
15	15	5
78	78	12
120	121	11
27	27	9
81	90	3
108	108	4
105	105	6
120	120	17
92	107	1
108	120	3
34	34	9
138	138	1
129	129	5
119	119	6
94	95	8
5	5	7
121	122	4
7	7	13
25	26	2
117	120	7
95	95	4
94	94	20
89	90	3
85	85	11
132	133	3
87	92	1
24	24	13
83	91	7
85	91	5
95	96	4
91	92	11
106	108	4
83	83	9
9	30	1
78	110	1
36	36	9
80	83	5
93	94	1
16	19	2
23	25	2
35	35	8
0	0	7
105	107	1
77	104	5
27	28	5
90	90	9
22	22	2
73	73	9
13	13	2
84	84	3
79	79	5
123	123	9
80	80	4
140	140	3
88	88	3
14	14	5
118	118	13
125	126	4
117	117	6
26	27	1
27	32	7
114	115	7
74	114	1
4	4	8
14	15	2
122	122	8
79	81	1
73	74	8
109	112	1
2	2	11
34	35	7
36	37	8
22	23	2
88	97	1
100	100	6
136	136	12
15	16	2
134	135	4
76	78	4
95	119	5
139	139	1
7	8	8
130	131	1
110	110	5
25	25	7
76	76	11
102	103	6
20	22	4
113	114	3
37	38	12
89	96	3
0	2	1
8	8	3
71	71	14
5	6	5
11	12	2
0	6	1
111	112	4
12	13	6
77	125	1
11	16	2
33	34	5
9	9	2
6	8	3
98	98	5
10	12	3
78	104	10
125	125	5
106	107	10
129	130	3
18	18	6
96	97	5
85	92	1
110	112	2
29	30	7
112	113	1
20	20	5
100	104	1
120	122	7
75	76	1
33	33	8
28	28	7
84	85	3
22	26	1
90	91	1
124	124	4
17	17	7
113	113	2
16	20	4
109	110	3
0	15	4
76	111	4
1	3	3
22	24	1
118	119	3
105	108	3
100	129	2
10	11	6
90	99	1
101	102	1
10	17	2
1	2	6
11	11	3
13	14	3
68	68	2
6	9	2
127	127	3
80	81	3
131	131	8
29	31	2
104	107	2
77	78	6
10	10	3
36	38	1
114	123	1
1	15	1
72	72	6
4	6	1
6	6	2
19	19	10
97	97	7
79	125	7
11	74	1
124	125	2
81	97	2
6	16	4
3	4	3
105	106	5
82	90	3
79	80	3
13	73	2
114	114	3
126	127	3
8	9	3
100	125	1
78	109	1
112	122	2
116	116	3
127	129	3
17	18	3
26	28	1
11	17	1
72	73	1
86	88	2
28	29	3
32	32	2
85	86	2
123	124	5
24	26	1
106	109	1
29	29	5
88	89	2
12	73	1
92	93	2
31	32	1
96	96	6
74	113	1
82	82	3
102	125	1
104	109	1
20	21	3
115	116	1
30	30	4
121	123	1
114	124	1
108	109	2
104	104	1
10	20	1
29	32	1
116	117	1
120	123	1
131	132	1
79	126	1
75	75	1
90	96	1
99	99	1
2	3	1
108	110	1
