16	16	2
13	17	2
91	93	2
118	118	2
50	50	12
22	22	7
31	32	3
30	30	3
132	133	6
127	127	7
78	131	5
53	110	6
100	100	1
25	25	9
111	112	2
117	118	6
112	112	7
26	26	10
102	102	10
13	13	9
26	36	6
28	29	3
79	81	4
38	38	8
27	123	2
59	59	3
36	37	9
67	67	9
78	79	7
49	49	2
60	60	12
5	5	10
31	31	8
102	103	7
84	84	4
105	106	1
30	33	3
76	76	3
107	107	3
54	54	10
77	78	11
103	103	11
124	124	10
82	112	4
16	17	1
114	114	6
126	126	10
43	43	5
102	123	5
21	23	4
44	84	1
122	122	5
20	20	12
131	131	1
109	109	11
11	11	7
15	15	3
10	20	4
93	93	6
128	130	1
53	54	2
115	115	9
24	24	9
82	97	2
99	99	9
83	83	4
6	6	4
24	25	1
55	55	9
71	71	7
52	118	2
18	18	4
111	111	5
56	56	7
77	77	2
35	35	1
118	119	3
82	82	5
120	120	1
12	18	1
108	108	3
21	22	5
121	121	6
80	80	6
78	78	8
101	101	1
7	8	3
37	38	4
127	129	4
74	74	6
106	112	4
47	47	3
56	57	1
104	104	4
8	8	1
69	69	9
100	109	2
98	98	6
44	44	18
117	117	2
50	110	2
81	81	3
119	119	5
86	86	6
89	94	3
130	133	4
135	135	1
66	66	5
24	99	2
68	69	4
62	65	2
5	6	4
0	0	10
92	92	4
62	70	2
96	96	5
101	126	4
125	129	3
23	23	1
123	123	1
10	11	2
68	95	3
86	92	2
91	91	8
64	64	4
66	91	2
97	97	8
62	66	1
1	65	4
108	110	1
105	105	11
63	64	2
53	53	3
1	2	3
50	119	2
60	70	1
133	133	2
54	96	2
3	3	3
125	125	2
88	88	4
58	59	1
19	19	2
57	57	2
124	125	2
95	95	1
50	113	1
110	110	1
85	85	4
65	66	3
1	1	2
18	20	8
2	2	3
22	23	2
94	95	2
55	115	2
82	85	1
112	113	3
51	53	2
46	98	1
106	132	2
45	45	1
14	16	6
4	92	3
21	21	4
65	65	1
17	18	2
68	68	6
50	108	1
116	116	4
64	92	3
89	89	5
90	92	4
4	63	2
19	20	1
90	90	4
87	87	5
87	93	2
58	58	6
91	92	2
29	30	1
32	32	2
93	94	6
34	34	3
80	105	2
105	127	1
66	67	1
106	110	1
10	10	3
12	12	5
88	95	1
97	105	3
37	37	3
132	132	1
130	131	3
54	55	3
55	113	2
22	35	1
55	86	2
70	93	2
73	73	3
57	59	1
19	21	1
23	36	3
100	101	1
84	97	1
130	130	3
99	102	1
63	63	3
128	129	1
61	61	3
101	102	1
26	27	1
90	91	2
67	91	1
113	113	2
70	70	1
52	53	2
35	98	3
83	100	1
27	101	3
83	84	4
4	4	1
72	72	1
80	129	1
49	114	1
79	79	2
63	66	2
131	132	1
45	88	2
28	28	2
108	121	1
3	4	2
109	110	2
33	34	1
34	46	1
108	109	2
95	96	1
81	115	1
27	28	2
12	16	1
59	60	1
79	119	1
92	94	1
47	49	1
32	33	1
10	21	1
54	57	1
68	70	1
127	128	1
134	134	1
3	90	1
6	7	1
128	134	1
15	18	1
