196	196	6
227	227	1
247	247	5
69	69	7
90	90	4
115	115	5
107	107	7
144	144	3
189	189	14
30	35	10
68	68	4
73	73	5
232	239	2
46	46	13
9	153	4
221	222	3
183	183	15
209	211	2
175	175	6
102	102	5
18	18	3
207	207	3
21	21	10
45	45	15
86	86	2
85	85	4
94	94	13
162	162	5
198	200	5
245	245	14
221	221	3
14	14	13
26	39	4
29	30	3
4	4	3
234	234	11
2	2	4
210	210	4
114	114	10
116	116	11
216	216	2
204	204	5
40	40	7
23	23	14
223	223	10
226	226	6
171	171	7
41	41	5
72	72	5
242	242	6
159	177	1
186	186	4
25	25	10
155	155	10
111	111	16
173	173	10
54	54	11
110	110	8
48	49	9
47	57	1
238	238	14
83	83	9
50	56	2
151	165	2
168	168	5
185	195	5
64	65	2
78	80	2
235	236	4
43	43	19
42	42	6
54	69	5
91	91	4
88	88	5
48	50	1
167	167	9
80	209	3
75	79	4
216	227	1
97	97	5
224	224	4
15	15	8
230	230	5
219	219	9
169	169	3
225	225	10
27	35	4
231	240	4
27	27	5
76	76	9
210	236	2
47	48	4
48	48	5
218	218	14
195	195	8
89	89	2
199	199	9
55	57	2
16	17	1
98	98	3
51	96	2
198	198	6
216	245	2
212	213	2
113	113	6
184	192	3
84	117	4
26	26	6
170	170	7
165	165	5
31	31	7
108	118	3
153	153	9
182	182	11
2	3	2
178	179	1
62	97	1
216	217	2
157	211	2
166	166	4
192	192	7
6	7	1
211	212	7
52	52	15
44	44	9
158	168	2
46	54	5
94	96	4
161	205	4
65	66	1
154	154	7
163	192	2
201	201	8
5	6	5
199	238	4
60	60	4
118	118	6
216	218	1
93	93	3
94	102	2
72	99	4
8	8	4
35	35	4
33	37	4
77	77	13
33	33	4
244	244	8
221	224	2
20	20	5
34	34	4
147	147	2
12	12	4
241	241	2
45	52	2
58	72	1
17	17	8
106	106	14
157	158	9
32	32	6
57	58	1
84	85	1
157	157	5
66	172	6
110	114	1
73	99	3
225	226	1
75	75	9
84	84	5
62	62	5
53	53	6
156	156	12
96	98	2
6	152	2
181	196	3
67	67	6
89	116	4
108	116	2
159	211	4
81	81	4
11	11	5
232	234	1
180	180	3
22	22	6
233	233	2
81	166	2
195	196	7
165	226	3
6	6	12
108	108	8
153	154	1
105	106	6
59	71	1
29	29	3
204	223	1
60	61	5
9	9	14
38	38	5
188	188	4
214	214	15
51	51	3
240	240	7
39	39	7
61	63	3
205	206	1
187	187	2
10	10	8
236	238	3
64	64	7
171	226	1
12	73	1
26	32	2
185	185	5
27	36	1
66	68	3
21	31	2
242	248	1
214	215	7
240	247	2
88	92	2
81	113	3
87	87	7
147	208	3
105	105	10
158	178	5
104	104	1
38	39	3
169	170	5
202	203	2
179	179	4
145	156	1
157	240	1
34	35	5
86	151	3
205	205	10
101	101	4
209	209	2
157	159	2
48	113	1
178	178	13
228	229	2
181	181	7
103	103	3
0	0	1
175	211	2
50	50	3
82	82	6
13	14	2
160	160	9
232	232	1
176	176	5
241	243	1
37	37	10
5	35	1
159	190	3
177	177	10
1	1	8
61	61	5
10	36	2
168	169	8
227	236	3
85	87	3
3	35	1
24	24	6
202	202	9
191	191	5
151	151	4
234	235	1
36	36	6
90	105	3
231	243	2
99	99	6
73	74	1
181	182	4
197	197	3
168	211	1
229	229	3
62	150	3
117	117	7
59	59	6
231	231	7
203	203	3
156	186	1
59	60	3
146	146	3
172	172	5
190	190	6
56	56	2
168	227	4
47	47	6
202	228	1
234	248	2
58	152	2
156	204	4
9	10	1
114	115	2
78	78	6
100	100	5
204	205	2
37	39	3
36	37	2
196	221	1
29	31	1
55	55	7
167	225	1
220	220	5
186	241	3
184	186	1
38	236	2
5	198	1
63	63	1
3	30	2
62	64	4
96	100	1
208	208	2
212	212	6
113	216	2
109	109	4
158	158	2
150	150	2
236	236	7
112	113	3
183	184	2
37	38	1
152	152	4
17	18	1
7	7	2
5	34	1
161	161	7
18	35	1
119	119	10
3	3	5
206	206	1
95	95	4
184	184	5
71	71	2
83	84	1
112	112	9
74	89	2
28	28	5
164	213	4
157	176	2
221	225	2
214	220	2
180	182	1
79	79	5
62	101	1
5	7	2
162	189	1
193	193	1
27	28	6
183	193	3
179	186	1
217	217	2
215	215	1
74	75	1
166	225	1
53	54	2
239	239	1
161	185	1
66	67	2
156	157	1
22	23	3
201	205	1
202	204	3
173	225	1
237	238	2
38	235	2
92	92	3
187	211	1
104	117	1
94	99	1
116	117	1
87	88	1
168	171	1
6	19	1
4	37	4
19	19	2
147	247	1
211	211	3
101	103	1
174	174	1
104	107	1
235	235	4
52	53	2
49	50	2
30	30	1
57	60	5
161	204	2
17	29	1
31	33	2
246	246	3
156	177	1
242	244	1
161	247	1
152	165	2
214	217	1
100	101	1
4	5	3
241	248	1
30	34	4
81	165	3
158	248	1
61	64	6
82	86	1
189	190	2
243	243	2
7	152	1
84	119	1
245	248	1
97	100	1
95	96	3
56	78	1
81	152	2
79	80	3
208	230	2
26	35	2
98	112	1
176	219	2
34	37	1
217	218	1
157	167	1
164	164	1
220	224	1
85	86	1
43	44	1
229	230	3
215	216	1
96	99	1
57	57	2
171	172	1
65	101	1
16	16	3
237	246	2
3	95	2
230	247	1
93	150	1
66	66	4
3	36	2
194	194	2
172	224	2
200	200	1
237	240	2
213	213	2
69	70	1
232	233	2
229	237	1
153	204	2
152	200	1
160	178	1
244	245	3
239	244	1
186	240	2
56	94	2
220	223	2
70	70	2
228	228	2
7	151	2
60	79	2
61	62	1
61	95	1
149	173	1
166	208	1
77	80	1
39	40	1
106	107	2
162	215	1
184	194	2
120	120	1
45	70	1
2	41	1
40	41	2
204	236	1
4	7	1
156	244	1
196	223	1
67	171	1
52	64	1
152	208	1
162	194	2
168	244	1
226	228	1
155	237	1
48	98	1
236	247	1
166	173	1
65	65	1
71	72	1
