121	121	6
79	79	18
25	25	21
80	80	20
16	16	6
12	12	6
81	81	10
73	73	10
63	99	3
2	2	2
96	96	16
110	110	4
115	115	16
19	19	18
22	25	3
106	106	8
75	81	3
111	111	10
130	130	11
44	46	2
107	107	9
100	102	6
9	11	3
48	48	6
8	27	5
147	147	19
24	25	3
35	103	6
49	49	19
113	129	2
152	153	7
112	153	1
69	70	7
99	99	4
11	12	4
112	113	6
56	56	8
46	46	10
42	42	24
64	64	3
14	14	16
67	71	2
95	95	9
113	146	6
120	120	13
100	101	7
123	127	4
67	102	3
154	154	4
139	139	6
4	4	8
85	85	6
143	145	4
11	11	7
109	112	4
88	128	1
22	22	17
69	69	7
113	114	6
73	74	2
119	121	3
6	6	4
72	72	6
77	77	7
138	138	13
145	146	3
36	53	3
33	33	4
37	37	7
117	117	12
63	63	15
51	51	6
127	127	9
13	13	19
78	78	4
21	21	15
70	70	6
54	57	1
64	90	1
8	54	3
94	94	10
103	105	6
70	83	5
50	50	11
36	36	26
43	43	17
11	57	1
109	109	9
133	133	13
35	35	13
98	98	12
132	132	15
104	105	4
38	50	2
20	20	9
41	42	7
50	64	2
117	118	8
55	56	5
21	23	6
131	131	22
130	131	4
76	76	8
27	29	3
141	142	2
26	26	18
22	23	13
142	143	3
44	47	6
67	67	13
31	31	5
68	68	13
111	112	3
112	150	1
98	99	8
114	133	2
86	123	6
64	103	2
92	147	1
32	54	5
18	19	2
40	41	2
97	100	6
27	27	5
32	32	8
94	95	9
17	17	17
51	53	1
39	54	4
32	62	1
69	82	3
34	34	9
10	46	1
97	97	3
17	18	8
53	54	2
143	143	5
54	54	14
100	100	7
71	116	1
88	148	1
129	129	2
61	104	2
95	100	1
40	40	4
118	118	9
119	120	1
124	125	9
37	99	2
113	113	12
124	129	3
81	138	2
45	45	19
26	27	4
128	128	4
38	42	2
124	124	6
79	80	2
103	104	16
141	141	7
29	29	11
134	134	7
38	39	6
105	105	7
109	111	1
30	31	6
47	47	12
109	110	1
65	65	7
120	147	4
74	74	10
10	10	11
127	128	6
18	18	10
146	146	5
142	154	2
38	38	11
137	137	4
153	153	3
21	27	2
23	23	8
108	108	11
136	136	5
9	9	6
31	46	3
34	129	2
137	138	3
43	44	1
138	146	2
4	5	6
112	112	8
15	15	6
21	22	3
88	88	9
144	151	2
24	24	11
71	71	10
75	78	2
80	83	3
83	83	7
139	142	2
132	133	5
103	103	6
68	76	2
28	28	6
39	46	2
122	123	2
41	41	9
109	134	2
20	21	12
38	40	2
36	102	2
8	8	9
114	115	1
9	10	8
62	62	10
123	123	4
6	27	3
62	65	2
142	144	5
93	93	3
152	152	1
137	139	2
96	98	1
29	30	4
122	122	6
135	135	11
118	140	2
3	9	6
142	142	6
82	82	5
117	135	2
7	9	4
30	30	8
36	57	2
66	66	9
53	53	11
11	33	3
58	58	1
66	86	3
86	86	7
111	144	4
134	154	6
111	145	4
6	8	8
64	104	2
24	27	2
48	49	4
71	77	2
149	149	7
87	87	8
89	146	3
38	63	1
8	89	2
133	134	4
15	17	2
113	144	1
44	44	2
114	149	2
148	148	3
153	154	2
127	142	2
119	119	4
56	63	1
151	151	4
32	33	5
9	28	3
87	88	3
65	110	3
3	3	2
32	38	3
81	108	4
145	145	5
99	100	2
120	150	2
85	149	4
149	152	2
3	4	1
141	143	2
6	29	3
123	128	1
37	38	2
2	3	1
106	118	1
15	44	1
40	50	1
39	39	11
57	65	1
66	67	1
58	62	2
102	102	8
5	5	2
72	73	1
63	76	3
115	133	1
74	86	2
90	144	1
4	34	2
92	92	2
64	100	3
100	118	6
84	86	5
66	71	3
116	116	7
68	102	1
111	143	2
101	101	2
131	140	2
96	97	4
150	150	3
77	83	1
106	107	1
107	108	3
95	99	2
55	55	2
75	76	4
105	120	3
76	77	2
82	84	4
10	11	2
34	37	1
151	152	1
33	56	3
7	7	3
80	133	4
121	122	1
105	106	1
67	85	2
45	57	1
108	109	2
94	105	1
74	81	2
144	144	3
77	78	2
71	109	2
13	14	4
13	30	2
128	138	1
32	36	2
61	61	1
44	45	5
131	152	1
18	46	4
126	127	2
79	82	2
110	143	1
78	152	1
123	124	2
14	15	1
75	75	4
126	126	1
44	78	1
81	82	4
33	104	2
36	103	2
63	64	1
10	20	1
112	149	1
125	125	1
95	96	2
128	131	2
34	39	2
91	91	2
92	93	4
79	81	3
78	102	1
101	102	1
46	47	3
54	55	2
34	38	1
85	86	1
7	8	1
70	103	2
64	111	1
94	120	1
15	18	1
102	106	2
104	104	6
105	127	1
20	30	2
102	104	1
8	9	3
84	109	1
110	111	1
39	58	1
108	150	2
27	28	3
107	136	1
21	25	1
6	17	4
38	54	1
40	42	1
74	75	2
86	149	2
113	148	3
104	121	1
108	116	1
4	10	2
80	82	1
38	62	2
114	114	4
96	118	2
94	96	1
140	142	1
45	46	1
128	142	1
75	79	4
14	17	1
25	30	1
113	123	1
28	29	2
125	127	1
77	82	2
66	111	1
50	51	1
49	50	1
113	132	1
88	100	1
97	98	1
124	130	1
26	31	1
67	103	1
65	90	1
83	84	1
57	57	1
63	75	1
115	116	1
128	129	1
86	124	1
65	66	1
86	109	1
62	106	2
109	114	1
73	95	1
66	85	1
10	49	1
70	71	1
87	89	1
32	53	1
47	48	1
92	100	1
105	128	1
33	54	1
17	19	1
