184	184	11
13	13	28
0	2	4
125	125	14
12	17	8
141	141	14
93	93	8
4	23	6
27	27	9
155	155	6
25	31	3
63	63	6
72	72	7
95	95	17
146	148	3
29	30	3
130	130	18
124	124	20
55	55	11
182	182	16
129	129	10
41	41	12
126	126	13
128	129	1
7	7	15
42	42	14
149	150	1
156	156	5
90	90	18
66	66	15
23	32	1
31	31	6
73	73	5
16	16	10
89	89	15
45	46	4
170	171	2
97	97	4
5	19	1
41	62	3
110	110	10
10	22	4
168	169	2
183	183	16
87	87	16
99	99	11
1	1	18
189	189	12
29	33	5
161	161	3
178	178	2
134	134	11
151	151	10
109	110	6
29	29	4
84	84	11
92	92	7
133	133	7
25	26	9
16	17	2
40	40	16
66	67	6
42	92	3
46	47	2
5	45	2
117	117	5
86	86	5
100	100	18
134	137	3
37	37	9
31	32	6
185	185	2
101	102	3
113	113	20
98	98	11
170	175	1
57	68	1
179	179	7
166	167	3
188	189	2
177	178	3
59	65	3
106	106	11
167	167	9
118	118	14
135	135	7
57	57	12
11	11	8
44	44	12
0	38	1
71	71	13
163	163	2
62	63	6
28	29	7
78	78	15
120	123	1
36	36	6
102	103	5
137	137	7
81	81	12
123	123	16
3	3	6
111	111	8
101	101	5
169	170	6
169	169	7
174	174	25
47	47	10
125	127	2
18	18	7
70	70	3
8	8	4
87	88	3
122	122	9
61	61	7
170	170	13
54	55	3
80	80	15
15	15	6
6	6	7
59	59	3
21	21	10
78	79	1
146	146	14
143	143	17
187	187	11
91	91	5
4	8	1
85	85	9
131	131	7
176	177	4
136	182	2
58	62	2
2	2	12
125	126	3
145	148	3
26	26	14
161	162	7
88	88	7
149	172	3
187	189	2
115	116	4
10	21	2
47	48	8
56	57	4
177	177	6
158	158	19
39	39	11
142	142	7
17	17	24
83	83	6
150	172	3
113	114	1
99	106	3
140	140	16
177	181	3
139	139	8
159	159	4
43	43	6
177	180	2
116	116	7
148	148	4
157	157	15
175	176	2
181	183	3
82	83	5
138	138	18
10	11	4
103	104	16
38	39	2
56	56	17
46	46	14
186	187	2
28	28	6
135	138	2
53	54	7
12	12	10
44	46	1
11	12	2
82	86	1
100	101	1
92	93	3
72	73	2
109	109	13
76	76	18
96	96	7
128	128	12
58	82	2
21	53	4
132	132	2
58	58	5
53	53	6
131	135	3
1	37	1
136	138	8
148	149	2
8	62	2
119	119	13
63	64	3
164	165	7
69	69	3
114	114	7
154	154	3
3	4	5
159	160	2
107	107	11
121	122	4
26	34	1
77	77	10
164	172	3
4	4	16
171	171	8
115	115	5
38	38	11
26	27	3
8	59	1
14	14	10
89	90	7
17	18	5
68	68	14
173	173	3
108	108	4
141	142	7
72	82	1
152	153	4
150	151	1
61	63	1
60	112	2
62	62	6
2	17	1
135	139	4
48	48	11
36	37	1
9	9	1
152	152	3
168	168	3
74	74	5
54	54	10
165	174	1
155	167	2
22	22	18
115	125	1
181	181	6
126	128	3
156	157	2
71	77	1
105	106	7
137	181	2
134	135	3
180	180	5
32	32	5
10	12	1
34	35	1
30	48	2
133	151	1
127	127	12
75	75	5
110	111	8
64	64	3
8	45	2
163	164	4
45	45	1
18	21	2
67	67	6
71	72	2
149	149	4
122	123	4
78	81	5
78	82	1
86	87	3
58	66	1
94	95	2
186	186	13
35	35	7
70	71	6
106	107	2
2	3	2
145	145	6
120	143	3
153	154	1
67	68	1
5	6	2
28	37	4
95	140	2
173	174	1
10	10	4
25	25	8
92	94	1
155	156	2
55	56	3
172	172	2
110	120	1
162	162	8
132	133	7
103	103	10
117	118	3
65	65	4
130	142	1
160	167	1
35	129	5
159	173	1
178	179	3
30	30	4
169	172	1
153	153	8
96	106	3
60	60	11
131	133	6
20	21	4
31	33	3
90	91	2
72	115	2
5	5	8
150	160	1
190	190	5
33	33	1
130	180	1
49	49	5
121	121	6
79	82	4
93	94	1
188	188	5
32	33	2
164	164	4
112	112	6
6	7	2
75	105	1
0	37	1
23	23	2
77	78	3
105	105	14
67	109	1
102	141	2
91	92	4
41	42	3
39	77	1
90	99	1
159	167	1
160	161	4
96	146	1
171	172	2
75	76	3
62	112	2
0	0	7
175	175	4
146	163	4
174	188	1
55	57	3
154	166	1
36	83	1
157	158	2
67	95	1
1	2	3
102	102	7
135	136	1
63	71	3
93	110	1
24	24	4
182	183	5
43	47	2
19	20	3
174	186	2
27	28	2
90	110	4
89	98	2
74	75	3
48	49	1
187	188	2
64	65	1
166	166	2
7	8	3
150	150	4
79	79	1
147	185	2
43	44	3
16	19	1
88	103	2
163	181	1
94	94	1
19	19	9
8	20	2
172	188	5
13	16	2
147	147	8
84	121	1
127	128	8
21	22	4
146	147	3
9	20	4
136	139	3
96	98	2
47	49	1
27	38	2
152	170	1
134	136	2
172	173	3
108	109	4
73	74	4
49	55	3
104	104	3
60	184	2
97	98	8
70	114	2
126	127	8
3	110	2
60	181	1
34	34	2
75	118	3
111	113	2
111	112	2
183	184	4
107	108	1
42	43	2
77	79	1
76	77	1
174	175	1
85	106	1
120	120	12
91	106	2
95	97	3
101	108	2
135	168	1
30	31	2
4	40	1
12	30	1
89	126	1
5	22	2
60	61	2
5	11	1
180	181	3
161	169	4
73	81	1
85	123	2
79	80	2
96	107	2
36	82	1
147	184	2
44	47	1
27	30	1
92	105	2
91	94	1
52	55	1
120	121	2
131	132	2
48	76	1
71	112	2
80	81	3
63	65	1
165	171	1
83	91	1
16	22	1
88	89	3
26	31	1
141	186	2
94	97	3
10	33	1
42	61	1
61	62	1
57	95	1
89	106	1
175	177	1
148	165	1
0	42	1
77	84	1
33	35	2
60	131	1
157	175	1
104	105	1
165	165	2
78	88	1
44	59	1
82	87	2
160	160	1
119	128	3
123	124	1
124	125	1
150	152	1
185	186	1
3	16	1
33	34	1
14	17	1
142	143	1
92	111	1
5	9	1
11	19	2
45	47	1
157	159	3
158	159	1
144	148	1
127	129	1
37	140	1
10	13	1
119	120	1
125	141	1
126	169	3
64	84	1
95	96	2
154	182	2
149	158	2
57	101	1
20	20	2
136	136	1
9	40	1
173	188	1
176	178	1
1	29	1
42	57	1
155	169	1
170	189	1
122	124	2
148	162	1
161	164	1
87	103	1
153	159	1
42	53	1
12	13	3
15	47	1
59	60	1
180	182	1
139	184	1
127	170	1
18	179	1
58	117	1
140	148	1
176	176	1
123	145	1
31	36	1
46	48	1
130	146	1
75	113	1
53	93	1
80	121	1
5	28	1
7	60	1
4	6	2
164	170	1
14	15	1
103	109	1
162	176	1
46	93	1
84	85	2
0	1	1
42	115	1
156	170	1
78	83	1
161	163	1
38	139	1
62	113	1
18	46	1
