68	76	4
72	72	3
47	47	7
39	39	10
78	78	18
6	11	1
52	52	4
36	55	5
67	67	9
57	57	5
64	64	4
13	14	5
46	51	3
10	21	3
37	45	1
49	50	4
20	20	6
31	34	5
2	2	9
41	43	2
56	56	5
19	19	11
53	56	6
21	21	7
58	58	6
56	57	3
39	56	5
80	80	7
19	74	1
65	69	2
49	49	1
48	52	2
13	13	6
39	41	2
3	4	2
11	22	2
7	17	5
0	1	1
73	73	6
40	40	6
41	41	7
53	53	7
26	31	2
51	52	3
57	70	1
59	60	2
30	30	7
16	16	7
17	17	9
79	79	2
25	25	6
53	60	3
74	74	4
35	37	2
61	62	2
6	6	10
68	72	4
51	51	4
37	37	7
15	17	5
61	61	4
63	63	4
54	54	3
47	48	1
33	33	2
76	80	1
66	67	2
0	4	2
26	27	2
55	55	4
38	40	4
69	69	11
35	35	14
57	68	5
54	57	5
34	50	1
55	60	4
5	5	10
11	14	2
71	71	8
11	21	3
3	13	2
50	68	2
5	6	4
65	78	3
42	42	14
26	26	3
26	46	2
46	49	3
31	32	2
12	15	3
10	12	1
62	62	1
60	65	4
1	1	4
9	9	5
15	15	3
66	66	3
70	70	5
60	60	4
4	13	1
31	31	2
44	44	2
27	29	2
31	47	1
27	30	4
34	35	1
41	47	1
35	39	3
32	32	2
29	31	4
48	48	3
63	64	5
55	59	1
64	69	2
32	33	3
52	53	2
36	36	4
68	68	2
40	41	3
61	75	2
0	14	1
41	49	1
1	8	1
9	10	1
0	7	4
6	13	2
78	79	5
72	77	1
5	8	1
71	72	1
4	4	3
65	76	2
49	53	2
61	80	2
28	28	4
4	5	2
27	27	4
12	12	3
51	55	2
69	71	4
5	78	1
33	53	2
10	10	3
36	38	1
58	63	3
34	54	4
51	58	2
77	78	1
35	48	1
38	41	3
39	40	2
39	50	1
65	65	5
54	66	1
46	46	2
26	30	3
67	68	7
61	78	2
19	26	3
7	7	4
5	9	2
31	52	1
81	81	2
75	75	1
9	76	1
73	74	2
0	15	3
25	27	2
29	29	4
34	71	1
38	38	2
45	47	1
12	13	2
57	74	1
11	11	2
33	76	1
6	12	1
26	28	3
56	67	3
18	18	2
59	61	3
33	40	1
54	59	1
51	53	1
26	53	2
1	13	1
49	54	2
42	49	2
30	33	3
37	38	2
59	63	2
52	67	1
51	60	1
55	56	1
68	69	1
43	43	1
8	17	2
76	78	1
75	76	3
53	66	1
74	76	1
8	8	3
14	14	1
47	66	2
52	65	1
59	59	1
76	76	2
28	38	1
3	18	1
42	43	1
4	18	2
42	58	1
10	11	3
45	45	1
32	40	1
2	11	1
12	14	1
34	34	1
51	67	1
63	70	1
6	8	1
50	50	1
14	15	2
53	64	1
46	54	1
