38	38	15
59	62	1
105	105	11
17	23	1
32	32	8
2	2	10
30	30	14
27	56	5
115	115	8
71	72	8
4	19	4
75	94	2
94	94	8
87	87	5
91	91	14
64	64	12
121	131	5
23	23	5
92	101	3
30	31	5
35	95	3
83	84	16
127	127	7
40	40	12
74	75	7
32	51	2
61	61	5
92	92	10
64	68	2
54	59	2
47	48	4
48	77	2
11	11	11
103	103	11
60	115	2
66	66	2
82	82	6
106	106	14
86	106	6
103	114	4
9	87	2
84	85	5
18	24	1
2	24	2
39	39	5
8	9	3
13	41	6
73	74	3
53	62	3
31	31	7
97	101	2
103	106	1
24	24	13
33	33	11
71	71	3
60	146	2
124	124	3
123	123	5
71	98	4
5	12	2
118	132	2
75	75	13
127	139	3
70	84	3
104	106	3
88	89	6
83	83	1
91	92	6
118	119	10
10	10	14
36	36	11
43	47	1
8	8	10
20	20	7
31	35	7
119	120	8
24	26	4
27	27	6
91	105	1
56	56	2
133	138	3
135	135	4
0	1	6
12	86	2
130	130	13
59	59	7
3	3	5
53	53	4
62	63	3
125	125	4
71	74	4
14	14	7
139	143	1
20	27	1
67	67	4
73	88	4
72	72	6
75	145	2
51	51	5
99	99	4
68	68	6
85	85	13
110	110	3
52	52	6
89	89	7
57	85	4
41	41	12
118	118	15
18	26	4
1	2	3
104	105	2
8	10	2
54	54	6
78	105	5
113	121	4
81	91	2
107	107	11
86	94	1
111	117	2
81	82	2
130	136	3
5	8	1
3	4	4
108	109	1
132	132	11
109	109	6
113	113	12
76	76	11
126	138	2
96	97	2
74	74	12
81	81	15
100	100	6
145	145	5
37	38	2
32	33	9
65	65	3
93	94	5
28	56	3
139	140	2
104	104	12
111	112	4
16	29	2
17	34	4
15	16	5
1	1	4
69	112	1
120	120	3
52	57	1
142	143	6
102	103	4
108	108	8
37	39	6
20	26	5
111	113	2
1	18	5
128	128	4
35	35	14
73	77	2
138	138	5
99	100	2
51	79	5
133	133	6
79	79	7
25	25	11
50	50	2
93	93	6
50	92	3
86	86	4
8	22	3
20	30	2
1	17	2
55	96	2
36	39	5
139	144	6
54	55	3
50	51	4
14	79	2
31	33	4
26	26	6
70	71	2
126	126	6
36	37	5
2	36	7
126	139	2
58	58	5
144	144	2
52	54	4
114	114	7
3	23	5
144	145	1
84	84	3
22	22	5
102	102	10
134	134	2
15	15	13
4	41	2
128	129	2
139	146	4
11	22	2
19	25	1
98	98	5
48	49	3
49	49	5
112	118	2
77	77	7
114	123	4
28	28	5
127	130	5
121	122	1
31	57	2
73	102	3
5	21	1
97	105	2
97	97	4
139	139	5
77	89	4
53	56	2
42	42	2
30	42	4
104	118	1
140	143	2
26	27	3
59	61	5
48	48	5
136	137	6
96	96	3
69	98	1
60	60	7
94	99	1
103	138	1
105	106	1
65	94	4
116	116	7
27	49	6
70	70	6
32	37	3
98	102	1
50	52	1
76	79	3
128	137	1
48	53	1
86	119	1
121	124	3
34	34	2
17	41	2
16	16	9
68	72	1
34	37	2
131	131	4
35	55	3
90	118	5
124	125	2
33	51	3
72	73	5
76	78	3
115	117	3
20	40	2
120	121	2
91	94	1
137	137	2
31	118	2
43	43	1
20	21	2
17	17	5
59	63	2
101	102	4
21	22	2
54	57	3
116	117	2
80	80	5
126	130	1
77	78	2
104	112	1
143	143	9
122	122	5
19	82	2
85	89	4
9	9	3
59	70	1
130	142	3
64	123	3
103	126	3
48	55	3
142	142	1
103	139	3
87	100	2
70	102	4
20	89	2
132	133	1
132	139	3
5	19	2
91	96	1
69	69	4
4	5	1
4	4	5
20	25	5
20	72	2
20	73	1
53	55	2
51	55	1
97	98	1
40	43	1
140	141	2
131	138	2
21	21	2
51	52	1
2	37	2
121	121	2
35	41	1
37	37	5
48	90	2
76	77	2
117	117	12
143	144	1
56	145	1
119	124	1
23	24	1
90	90	3
34	38	2
101	101	7
119	133	1
19	19	7
15	30	2
75	76	3
55	57	1
14	80	2
1	34	1
36	42	1
82	125	1
140	140	1
78	78	4
134	138	1
118	122	1
132	138	1
120	130	4
8	85	1
115	116	4
36	40	2
67	68	4
18	19	5
21	23	3
79	104	2
10	23	1
61	62	1
52	55	1
29	30	1
130	132	1
110	111	3
98	105	2
82	88	1
103	104	1
52	59	2
90	92	2
55	55	3
16	17	1
90	109	2
65	67	3
86	105	1
2	14	2
136	143	1
48	56	2
63	63	5
91	125	2
95	100	1
52	53	1
125	139	1
100	114	4
136	139	2
114	115	1
2	35	2
49	50	2
18	18	4
0	0	4
129	136	4
97	109	3
87	102	4
93	101	3
87	88	2
29	29	1
134	135	1
112	112	1
32	36	1
102	118	1
27	32	1
120	131	3
54	58	2
20	48	2
86	87	3
43	51	1
95	95	2
136	136	2
22	90	1
59	60	1
123	125	2
129	144	2
47	51	2
141	141	1
119	119	2
128	144	2
5	5	1
79	80	1
3	27	2
25	33	1
82	123	3
58	80	1
55	91	1
89	97	1
41	42	4
90	110	2
123	124	1
109	125	1
129	129	2
35	91	2
90	125	1
88	92	1
130	131	1
27	51	2
16	41	1
29	32	1
81	115	1
62	62	1
100	141	1
28	49	1
127	134	6
68	73	2
127	137	1
88	88	1
116	122	2
9	10	1
89	101	1
69	105	1
92	119	1
126	127	1
107	108	1
131	141	1
107	131	1
39	40	1
17	24	1
132	140	1
126	140	1
12	14	1
57	57	1
83	115	1
93	115	1
2	25	1
25	26	1
88	93	2
129	130	1
92	93	1
21	47	1
27	28	1
70	98	1
27	31	1
90	101	1
53	54	1
54	62	1
111	111	1
47	47	1
129	140	1
