181	182	1
172	172	15
107	163	4
0	1	5
71	127	2
186	189	3
42	42	13
147	147	7
100	100	7
94	101	4
36	37	6
182	182	9
82	82	12
177	178	7
119	119	10
0	0	7
58	58	13
45	45	5
122	122	11
64	64	5
137	137	6
87	87	8
13	13	6
127	127	11
141	141	6
67	67	13
99	100	2
118	134	6
123	123	6
169	176	1
167	167	5
104	104	9
106	106	7
164	164	5
168	188	4
154	177	4
149	175	4
179	179	10
116	116	7
85	86	1
189	190	4
37	38	2
76	76	5
109	109	15
146	147	12
23	23	3
167	170	2
81	82	3
3	3	7
164	165	4
37	52	1
75	75	4
137	189	1
154	154	5
101	101	8
40	40	8
67	82	1
187	187	8
28	28	6
91	92	4
112	112	11
26	26	11
103	103	9
16	17	4
186	186	20
178	178	13
80	81	2
32	32	7
169	169	12
88	95	3
22	22	3
117	117	6
8	8	3
55	56	6
25	87	3
86	170	1
54	54	6
145	145	15
72	73	7
143	147	3
130	131	6
24	24	14
135	176	2
148	149	10
120	120	8
129	129	9
101	103	3
38	38	12
143	170	3
37	37	9
110	110	8
115	115	8
19	19	8
130	137	4
17	18	6
78	78	12
91	91	7
149	150	2
73	73	13
139	139	8
180	180	12
98	99	3
72	72	5
151	151	5
80	80	3
108	110	4
168	169	2
61	61	2
46	46	3
36	43	3
165	165	21
2	2	17
41	41	9
79	79	12
85	85	5
16	16	6
136	137	5
65	65	6
61	68	2
79	82	2
73	74	2
114	114	8
124	138	4
171	171	4
25	25	12
18	18	7
17	17	3
60	61	1
107	107	6
49	55	1
15	15	5
97	97	8
30	30	10
160	160	7
26	28	4
178	180	2
74	75	2
31	31	9
60	60	3
182	183	2
152	153	4
118	159	1
71	71	6
38	39	2
20	20	12
122	123	3
111	111	7
156	157	7
70	70	3
185	185	7
114	157	3
153	153	10
7	7	6
181	181	4
88	88	5
174	176	1
84	89	3
2	4	4
154	155	1
102	102	10
30	32	5
9	9	1
7	8	11
113	141	3
152	186	5
156	156	8
87	115	1
166	174	2
174	177	2
1	2	3
69	79	2
180	181	2
108	108	9
190	190	7
30	38	2
13	27	2
87	90	1
56	60	1
162	163	3
157	159	4
188	188	6
137	138	3
152	157	1
128	128	6
105	105	9
126	128	2
4	5	7
5	5	15
41	42	9
126	126	2
79	80	1
149	169	3
5	6	1
124	124	5
113	113	5
18	19	3
65	66	2
56	57	2
189	189	7
125	126	6
27	27	8
25	31	2
32	33	5
14	14	4
96	96	13
162	162	8
159	159	4
35	37	2
44	44	1
146	146	6
142	142	5
145	163	1
183	183	10
100	129	2
98	98	5
59	59	6
76	77	2
26	27	5
109	110	9
87	91	1
86	100	1
5	57	2
144	144	6
11	11	6
69	80	1
183	190	4
137	139	1
170	189	2
101	102	2
146	179	3
130	135	2
18	20	2
184	184	6
53	53	9
100	104	1
95	95	8
57	57	6
159	165	1
174	174	6
121	122	5
85	109	1
163	164	1
155	155	4
152	152	7
151	165	1
36	80	4
55	55	8
97	102	2
122	169	2
77	77	7
165	166	3
132	132	1
108	111	1
143	143	3
32	34	2
21	21	5
13	18	2
85	90	3
110	117	3
175	175	3
86	86	8
6	55	2
36	39	2
13	20	4
28	30	1
136	136	7
84	84	6
69	69	1
92	97	1
161	162	8
123	124	2
154	157	1
170	170	5
52	53	1
127	128	6
157	157	15
139	140	2
61	62	2
138	139	4
85	87	1
121	121	6
161	161	9
48	48	7
119	120	5
39	47	1
47	66	3
46	47	2
95	96	1
27	45	2
175	176	3
10	13	1
181	186	1
57	58	4
18	36	2
81	81	5
82	83	2
12	27	2
138	138	4
184	185	3
88	89	3
55	182	1
142	144	3
176	176	3
47	47	8
140	148	3
42	63	1
131	132	2
92	92	2
12	13	3
61	66	2
92	146	3
14	27	2
135	187	3
83	83	4
10	12	2
116	117	2
166	166	1
140	140	2
169	175	2
76	87	1
63	63	11
60	106	2
25	47	1
104	105	3
78	81	2
34	34	6
111	113	3
183	184	3
184	187	3
104	107	1
133	133	1
68	68	4
96	98	1
68	102	1
168	168	2
94	94	5
148	150	3
120	147	1
134	134	3
127	161	1
65	68	4
56	56	12
9	10	5
29	29	5
27	90	3
118	144	5
130	136	1
173	174	2
137	188	1
118	118	3
4	144	1
93	94	2
170	174	1
4	4	3
25	26	1
47	48	3
12	12	4
96	97	1
74	86	1
129	174	5
39	39	5
83	84	5
130	130	14
81	90	1
180	182	2
158	158	6
90	90	8
131	131	7
108	115	2
6	6	2
9	15	1
24	47	2
1	1	2
149	149	6
125	125	2
10	11	1
100	141	2
14	23	2
66	66	6
64	87	1
97	98	5
2	129	1
179	180	1
158	159	3
86	88	2
20	21	3
148	175	1
155	166	2
67	68	2
138	140	3
148	148	2
151	152	1
3	184	1
66	68	3
100	120	2
77	90	3
21	22	1
163	163	4
119	140	1
126	130	2
125	147	1
111	112	2
187	189	1
80	82	1
43	43	4
162	164	1
124	125	2
42	43	1
188	190	2
28	29	1
93	93	3
53	74	1
130	173	1
45	46	3
48	62	1
150	150	6
36	74	2
68	100	1
30	65	1
99	99	2
109	148	2
75	76	2
174	188	1
183	185	1
74	74	5
35	36	1
142	148	3
126	146	1
133	136	2
75	106	1
67	108	2
140	141	1
84	141	1
2	3	1
10	10	2
94	98	2
59	83	1
129	130	1
114	141	1
110	111	1
14	44	1
55	125	3
35	35	4
33	37	1
170	172	1
145	167	2
122	132	2
62	63	2
130	171	1
122	148	1
44	46	3
14	21	3
8	9	1
37	42	1
54	55	1
167	175	1
145	165	1
94	99	1
174	186	1
95	106	1
159	160	1
58	59	1
53	188	1
94	95	1
157	169	1
8	53	1
77	78	1
121	124	1
120	185	1
52	52	2
64	65	2
155	156	2
55	169	3
78	79	1
83	99	1
142	145	1
65	126	1
120	121	1
112	165	1
48	49	1
124	183	2
100	103	2
34	36	1
140	166	1
154	178	1
169	170	1
81	91	1
12	18	1
62	62	2
18	35	1
119	141	1
58	110	1
56	101	1
85	91	2
13	19	1
150	153	1
89	115	1
64	80	2
119	159	1
86	89	1
85	108	1
142	173	1
27	28	1
167	190	1
155	176	1
56	186	1
128	130	1
74	137	1
36	36	1
147	148	1
70	72	1
