33	33	6
66	66	7
88	89	5
13	13	1
82	82	2
10	31	1
27	27	6
218	219	3
37	37	6
93	144	2
228	228	5
47	47	12
165	165	5
113	113	8
210	210	6
216	216	1
21	21	9
164	164	5
219	226	2
207	207	5
170	170	3
98	98	3
187	187	2
113	114	2
232	232	7
87	88	4
22	22	5
63	63	3
169	169	1
70	70	4
6	7	1
146	147	1
79	102	5
212	212	2
86	100	2
99	99	6
68	70	6
150	150	4
86	86	3
69	231	1
7	7	2
116	116	6
180	180	5
10	10	3
71	71	3
242	242	6
190	190	8
2	2	1
208	210	3
213	226	2
82	85	2
20	20	7
67	67	9
16	18	3
109	109	6
62	63	3
8	8	9
201	201	8
95	95	9
154	154	7
112	112	4
195	196	2
239	240	3
183	183	8
15	15	8
59	59	5
8	9	3
219	219	2
173	173	3
236	236	4
23	24	2
80	80	7
168	168	3
38	39	4
24	25	1
182	182	8
28	28	7
222	223	2
197	197	3
25	26	1
117	183	1
193	193	2
154	230	4
244	245	3
193	195	7
217	217	4
60	61	2
77	78	1
54	110	2
93	111	2
151	151	4
147	147	2
41	41	4
2	3	4
52	52	4
175	176	3
179	179	1
212	216	1
176	176	4
115	115	2
79	93	4
69	69	6
162	234	4
19	20	4
162	162	2
49	49	3
237	237	3
161	162	4
6	6	5
214	214	8
229	229	9
54	55	7
171	171	10
43	43	2
223	224	2
102	102	5
111	111	5
108	233	1
243	243	1
245	246	2
19	19	3
15	19	3
157	157	8
155	155	9
100	100	7
17	17	5
86	89	2
108	108	4
156	156	3
81	81	1
83	102	5
162	204	3
23	23	5
187	188	2
77	77	4
72	72	3
40	40	7
11	11	3
181	182	3
62	62	12
174	176	2
57	58	3
3	62	3
152	153	2
18	18	3
172	172	1
83	83	2
86	98	4
70	115	2
159	159	2
204	204	6
157	233	1
232	233	6
95	98	3
9	9	8
85	85	6
247	247	2
243	244	4
35	35	3
218	218	2
224	225	7
241	241	4
12	34	2
245	247	1
244	244	5
223	223	9
12	12	6
83	84	2
76	76	4
216	217	1
64	64	1
44	45	2
56	57	1
103	103	3
65	65	6
88	88	6
194	248	2
55	55	10
210	211	1
24	24	2
248	248	3
174	174	1
94	117	2
203	203	4
78	78	3
178	178	3
149	222	3
26	26	2
36	36	4
197	241	1
155	156	5
42	178	3
20	21	2
62	65	4
86	87	2
192	238	2
59	60	4
3	4	1
240	240	6
48	48	2
179	180	2
25	25	3
17	18	3
54	54	3
18	61	3
177	178	3
207	227	2
209	209	4
37	71	4
221	222	1
29	29	2
5	5	2
21	33	1
45	46	2
119	119	4
153	153	3
202	202	3
45	45	4
219	221	1
61	62	2
186	186	1
28	29	1
94	94	7
152	152	1
106	107	2
153	154	1
64	65	2
180	181	1
57	57	4
68	68	2
61	61	1
109	110	1
93	101	5
225	226	1
181	181	7
193	194	2
233	233	2
166	166	6
211	212	3
100	101	3
206	206	7
198	198	4
66	67	2
3	63	1
160	161	1
57	60	1
145	145	3
55	58	1
242	243	1
39	39	2
91	91	3
92	92	2
117	117	1
118	119	1
188	188	1
82	100	3
198	241	2
17	20	1
200	202	1
167	167	2
220	224	1
175	175	6
42	42	3
32	32	2
219	223	2
156	231	1
231	232	7
34	34	2
234	234	5
11	202	2
116	185	1
158	158	4
68	69	2
218	220	1
37	38	1
55	59	1
7	9	1
171	172	5
160	160	2
93	100	6
60	60	1
159	160	2
16	16	4
217	218	4
11	36	1
235	235	1
245	245	4
204	205	2
233	234	3
177	177	4
82	83	1
96	99	1
206	207	3
91	112	1
173	235	1
205	205	2
93	117	2
226	226	3
71	73	1
84	84	1
110	110	2
214	215	1
196	241	2
87	87	2
169	170	1
203	204	1
44	204	2
195	245	1
53	54	1
226	227	1
98	99	2
51	51	1
21	23	1
230	231	1
14	14	2
196	196	2
55	57	1
18	19	1
225	225	1
46	47	1
110	111	1
190	191	1
93	93	1
46	46	1
33	34	1
44	156	1
32	33	1
47	227	1
218	225	1
90	90	1
73	74	1
163	164	2
154	229	1
70	116	1
156	207	1
24	26	1
11	22	1
73	73	1
189	240	2
48	49	2
114	115	1
38	44	1
54	59	1
194	247	1
239	239	1
43	44	1
71	115	1
96	97	1
95	96	1
183	184	1
1	37	1
75	115	1
213	225	1
231	231	1
