40	40	9
38	38	6
44	44	11
17	19	2
104	104	4
48	48	11
18	18	11
10	106	3
135	136	2
131	133	2
78	78	4
7	7	3
56	56	5
124	124	14
26	26	5
34	34	3
127	127	2
152	153	2
132	132	4
18	19	3
130	130	8
97	108	4
112	112	11
38	40	2
75	76	3
41	41	2
3	3	3
12	12	14
110	112	8
101	111	2
39	40	5
145	145	7
36	36	4
23	68	5
146	149	2
121	121	7
77	77	1
8	10	4
43	43	7
57	58	3
118	120	3
79	87	5
128	130	8
118	118	14
137	141	3
45	45	6
31	57	3
11	106	2
87	87	3
98	108	2
14	14	6
54	55	8
51	54	1
111	111	8
109	109	5
86	86	7
103	107	3
43	44	2
122	122	6
119	119	2
71	71	7
4	4	11
54	56	1
20	20	4
53	53	4
70	70	3
54	54	2
80	80	3
129	134	1
154	154	2
49	49	7
115	115	1
117	117	9
87	88	4
66	66	3
35	35	16
82	82	5
138	138	3
63	105	3
74	78	2
36	37	1
84	84	3
13	24	3
45	47	8
129	130	8
13	23	2
134	134	7
149	149	10
129	129	5
37	37	4
12	108	1
141	141	5
77	145	3
30	54	3
7	21	2
28	30	2
30	30	1
128	135	3
147	149	3
38	41	2
6	6	3
123	123	2
126	127	2
46	46	1
44	46	5
85	86	2
144	145	5
103	103	7
62	66	2
98	98	8
21	21	3
14	15	10
66	105	2
55	56	3
42	42	3
131	131	1
127	136	4
147	148	1
100	101	5
149	150	1
68	69	3
96	98	2
81	81	13
98	99	3
137	137	9
68	68	3
64	64	3
133	133	6
148	149	3
75	77	4
20	24	3
85	85	2
135	138	2
83	85	9
69	107	3
93	101	4
11	22	4
30	32	3
8	8	5
92	93	4
148	148	4
7	22	1
3	4	1
50	52	1
106	106	6
96	99	1
151	151	3
153	153	2
67	91	2
8	11	1
123	129	5
13	20	2
138	141	1
71	114	2
11	11	3
69	69	2
50	50	1
31	31	9
116	116	4
77	78	3
109	110	1
27	30	2
123	138	1
114	116	2
86	87	1
48	55	1
47	47	3
97	107	2
13	13	4
33	33	1
85	88	1
23	23	5
72	113	2
101	102	1
73	114	2
74	76	1
35	38	2
122	130	1
97	98	4
73	73	8
9	11	3
4	57	2
57	57	3
33	35	1
97	97	3
125	126	3
143	143	6
79	85	1
71	72	3
25	31	1
108	108	2
113	113	3
70	103	2
89	144	3
5	7	3
139	142	1
98	104	3
134	135	1
94	95	3
135	141	1
102	102	6
146	147	1
39	39	4
75	75	1
25	34	4
106	107	2
22	23	1
17	17	2
36	38	2
144	146	1
10	13	3
105	107	1
12	13	1
74	74	2
136	136	1
135	135	2
130	134	3
99	144	1
32	32	1
67	111	2
74	75	2
80	82	3
74	90	1
16	16	4
67	67	3
117	118	3
126	138	1
135	139	1
100	100	1
142	143	2
62	62	1
139	139	1
51	51	4
65	65	3
95	95	1
125	125	1
24	24	1
115	117	1
126	137	1
66	79	1
83	83	4
88	111	2
73	113	1
26	27	1
93	98	1
74	121	1
121	122	1
145	146	5
5	5	1
109	112	2
10	11	1
150	150	1
83	84	2
144	144	1
76	76	3
137	138	1
93	93	1
64	105	2
3	25	1
19	28	1
128	128	2
41	43	1
117	120	1
80	112	3
51	52	2
63	64	3
72	130	2
62	68	1
81	82	1
118	119	1
89	90	2
67	68	2
105	105	1
7	8	1
90	113	1
83	86	1
152	152	1
107	107	1
120	121	1
111	113	1
138	140	1
64	66	1
13	16	1
45	46	1
62	113	1
11	12	1
18	28	1
125	138	1
25	25	1
116	117	1
