25	26	2
59	59	10
75	75	8
24	42	3
74	74	12
103	103	18
71	72	5
48	48	12
51	51	20
55	55	9
79	80	6
21	23	2
43	43	7
37	37	12
96	96	20
104	104	11
35	61	2
35	35	6
53	54	6
70	70	13
42	43	2
82	86	1
63	63	12
95	95	8
44	44	6
81	81	8
90	90	11
33	62	4
105	105	7
93	93	12
60	60	13
54	56	1
31	32	1
37	39	2
72	72	13
21	21	10
104	105	6
41	83	8
70	72	1
65	65	18
59	89	2
24	36	3
85	85	9
58	59	2
64	64	19
99	99	6
98	106	2
53	53	3
47	70	2
46	46	5
96	97	4
58	58	5
70	71	5
22	22	6
62	63	2
107	107	5
76	77	8
39	39	8
68	68	20
50	50	4
52	53	2
90	94	2
41	42	2
42	42	5
61	61	4
59	60	6
33	33	10
47	49	3
77	77	5
66	66	11
94	94	8
64	65	2
32	32	13
45	45	5
74	75	4
40	40	5
87	88	5
102	102	11
29	43	1
86	87	4
82	83	9
54	54	1
50	51	3
20	20	14
43	44	2
88	88	11
48	49	3
53	73	2
31	31	9
87	87	8
86	86	7
29	29	3
91	91	9
82	82	12
98	99	4
99	107	2
103	104	1
76	76	17
99	100	9
41	41	5
69	69	18
33	69	1
34	34	19
35	36	6
60	62	4
100	101	2
27	30	1
40	45	4
85	86	2
99	101	3
30	30	10
56	57	1
68	100	1
67	67	13
57	58	5
63	65	4
67	68	11
36	36	7
24	24	8
28	28	16
106	106	2
49	71	3
76	100	2
74	76	5
73	73	7
36	37	1
23	23	11
53	63	1
90	93	2
84	84	5
47	66	1
55	73	2
78	78	8
87	102	2
70	99	5
62	62	5
21	22	1
52	52	4
30	49	5
46	49	1
20	27	4
55	65	1
71	71	11
28	37	2
59	106	1
27	27	7
89	89	14
83	83	7
84	89	3
90	91	2
56	56	8
92	93	1
23	51	2
95	100	2
49	50	3
36	39	1
25	48	1
100	100	4
57	57	8
60	61	4
99	103	1
79	79	5
23	41	2
79	106	1
49	49	6
91	92	1
52	78	2
97	97	1
28	29	5
35	51	3
46	52	1
98	98	8
34	50	1
77	89	1
75	76	3
92	92	5
29	66	1
33	87	1
60	66	1
75	101	1
26	27	4
77	98	3
62	67	1
101	101	3
81	85	2
35	67	1
25	28	1
77	78	3
27	47	3
20	21	1
96	106	3
45	47	3
84	85	2
23	24	1
52	71	2
34	87	1
72	73	1
94	95	6
82	85	2
22	23	4
76	101	1
33	67	3
31	42	2
59	69	3
53	55	2
22	34	2
55	56	2
56	59	1
20	64	1
63	64	1
40	43	1
42	61	1
97	105	2
85	89	4
78	80	2
69	75	1
66	68	1
56	60	1
34	36	1
36	83	2
40	42	1
28	60	2
61	87	4
99	105	1
26	26	2
25	29	2
97	106	2
63	89	2
80	81	1
31	86	1
95	101	1
68	69	2
24	30	2
61	62	2
54	65	2
80	80	1
38	38	5
56	73	2
38	39	4
30	31	1
61	70	1
91	97	1
102	104	1
64	104	1
47	47	1
36	40	1
89	90	1
44	45	2
49	80	1
95	96	1
60	88	1
76	102	1
25	25	1
80	83	1
92	94	1
51	52	1
47	48	2
29	30	2
