128	130	4
115	116	4
4	21	2
128	128	5
61	61	5
52	52	5
131	131	6
112	112	4
101	102	2
70	70	4
125	126	2
11	11	2
2	64	3
53	54	2
129	129	6
25	26	1
11	13	4
115	115	4
89	90	1
7	20	5
76	76	4
22	22	8
100	100	1
129	130	3
85	85	5
16	16	6
60	63	1
93	93	5
97	99	1
68	86	2
61	62	2
19	28	2
122	122	10
56	56	5
48	49	2
72	73	8
69	93	2
26	26	6
98	98	2
6	6	9
80	80	1
105	105	3
18	28	2
1	27	1
52	53	2
30	31	2
119	119	1
1	1	6
68	68	3
72	74	4
88	127	5
123	123	11
63	63	5
23	24	2
54	57	2
47	47	3
20	25	1
2	52	3
48	48	5
4	4	4
89	89	4
51	51	3
126	126	2
18	19	2
110	110	6
125	125	2
50	50	3
54	54	4
114	114	3
102	102	6
3	3	2
0	0	3
25	27	7
21	21	4
118	118	2
10	10	2
19	19	5
108	109	3
34	43	1
73	73	5
62	62	5
10	15	2
66	71	2
63	99	4
77	77	6
107	107	4
76	77	1
71	71	4
79	98	2
31	32	1
49	49	2
50	109	2
53	53	13
14	16	2
41	42	1
19	20	6
88	88	4
30	30	6
97	97	6
5	5	2
82	82	3
20	27	3
5	55	2
45	45	4
72	82	3
116	116	5
71	72	3
13	13	2
47	48	2
101	101	3
33	34	1
113	113	4
79	79	1
34	34	2
50	110	3
97	98	1
114	119	3
111	111	3
21	25	1
40	40	2
11	14	1
52	109	5
18	18	2
74	88	3
6	26	1
12	12	2
32	32	1
120	120	5
67	67	1
57	57	4
14	14	5
91	91	4
6	7	1
83	84	4
63	64	1
73	74	3
65	80	1
111	112	4
18	31	4
68	71	2
95	95	1
25	25	5
66	70	6
126	128	4
90	90	1
6	8	1
41	41	2
15	15	2
113	114	2
105	107	3
124	124	2
2	30	2
47	64	3
117	119	1
12	19	2
84	84	2
58	58	7
29	31	1
8	19	2
91	92	1
4	26	1
65	100	1
55	55	2
21	22	2
59	133	1
132	132	2
123	124	1
59	59	1
62	126	1
67	71	1
117	120	2
65	103	1
65	104	2
19	27	2
31	31	1
38	95	1
87	87	2
83	83	1
42	42	1
99	99	2
116	119	2
30	64	1
78	78	2
67	93	1
127	127	1
65	90	1
92	92	1
81	81	1
50	94	1
78	83	1
50	51	1
117	117	1
114	116	1
96	96	1
70	71	1
23	23	1
8	8	1
61	63	1
27	27	2
7	7	1
49	51	1
5	24	1
76	94	2
67	70	1
104	105	1
105	108	1
1	2	1
94	94	1
130	130	1
78	85	1
68	72	1
27	28	1
17	17	1
24	55	1
2	2	1
104	108	1
