2	2	9
13	39	2
169	169	3
64	64	6
87	87	7
133	133	5
1	3	1
72	74	3
37	37	3
38	39	4
40	41	1
41	41	3
159	159	4
129	134	1
140	140	7
16	19	2
58	59	2
5	5	5
171	171	5
153	153	4
177	177	2
7	7	4
155	156	1
146	146	1
28	28	2
31	31	4
98	107	3
92	93	2
151	151	8
114	150	3
87	88	8
122	132	2
152	152	1
148	148	4
35	35	5
65	140	5
108	108	3
12	21	6
14	28	2
65	65	3
23	50	1
116	116	3
10	10	7
4	9	3
83	123	2
76	76	5
138	176	3
20	33	3
109	109	7
52	52	4
51	55	2
118	124	4
149	150	1
85	91	1
127	127	1
105	105	6
0	36	2
57	57	5
12	41	2
104	104	7
78	78	10
41	50	2
17	17	8
120	120	9
92	92	7
20	88	1
160	160	4
97	97	2
33	37	1
112	117	1
119	148	4
39	39	6
75	75	4
166	166	6
116	120	1
5	32	4
157	158	4
6	7	5
145	145	8
67	67	3
130	130	4
163	163	2
30	30	3
155	155	4
112	112	2
93	93	8
58	68	1
54	54	2
82	82	1
162	162	4
86	94	6
24	93	1
40	40	7
118	118	2
174	174	5
56	56	9
136	147	1
24	24	3
80	85	2
123	123	3
107	107	8
73	77	2
134	134	5
121	150	1
11	18	7
85	127	4
90	90	1
76	130	4
19	19	3
154	154	1
122	126	3
173	173	6
102	102	3
123	125	1
72	72	7
126	126	6
123	124	1
161	168	3
113	113	3
119	132	4
4	4	4
101	101	4
154	157	2
1	37	2
38	38	3
50	51	4
115	115	4
83	128	3
5	9	2
25	25	3
138	138	1
62	75	4
64	161	5
7	42	6
99	101	3
109	116	1
168	168	8
165	166	5
115	150	4
103	106	2
29	31	4
111	118	6
0	0	4
147	151	2
11	30	3
135	147	1
152	174	1
77	81	1
106	106	4
67	138	7
81	81	6
88	88	4
149	175	1
94	125	2
22	40	1
98	98	2
158	158	2
178	178	9
24	25	1
119	119	3
74	131	3
110	114	2
88	89	1
55	56	2
107	108	1
73	73	1
179	179	2
25	34	1
26	26	2
155	161	3
156	161	2
3	3	1
78	82	2
123	127	1
95	123	2
152	167	1
50	50	1
44	44	2
93	95	5
62	62	2
37	88	1
176	180	1
120	150	2
102	105	1
103	118	1
161	167	3
132	142	1
114	149	3
124	125	6
169	171	1
51	53	1
59	68	2
85	85	1
150	150	2
9	44	2
65	159	2
171	172	1
65	161	2
68	72	2
24	33	1
179	180	2
62	72	1
169	170	2
136	178	2
139	139	1
71	153	2
77	180	1
58	60	1
24	26	1
123	126	1
103	104	3
164	171	4
61	82	2
49	56	3
51	51	3
33	33	1
128	128	1
137	138	1
53	53	2
117	117	1
157	168	2
4	35	1
45	88	1
161	162	1
13	13	4
75	90	4
102	108	2
164	164	2
53	75	2
60	60	1
154	159	1
61	61	2
19	44	2
35	36	2
159	162	1
63	71	2
80	80	1
166	170	2
67	131	2
145	173	2
1	1	1
144	144	3
66	70	2
126	134	1
176	176	1
73	76	1
15	18	2
140	143	2
153	161	1
165	167	2
117	148	3
111	124	2
142	147	1
59	59	1
153	155	2
100	102	5
136	143	1
163	169	1
34	35	2
16	16	1
84	84	1
175	175	1
14	17	1
65	130	1
84	86	1
63	73	2
40	55	1
140	175	1
23	53	1
6	6	2
42	42	2
20	91	3
22	39	1
165	165	1
27	28	1
150	175	1
5	35	1
134	135	1
55	55	1
149	149	4
12	17	1
22	50	1
14	16	1
147	147	1
142	142	1
122	151	2
142	168	2
172	172	1
143	143	1
136	136	1
5	36	2
29	29	2
59	61	1
22	22	1
113	115	1
116	150	1
162	167	1
120	121	1
53	78	2
104	116	2
17	44	1
68	74	1
66	160	1
140	178	1
21	31	1
91	91	1
113	121	1
84	128	1
116	121	1
55	61	1
141	177	2
53	82	1
6	9	1
141	178	1
112	114	1
