61	61	5
145	146	2
143	166	2
135	135	3
190	190	8
150	150	4
177	177	5
138	138	4
163	166	6
36	38	2
89	89	7
140	183	3
20	42	2
94	94	3
64	70	1
48	53	4
6	7	6
157	181	1
1	26	2
110	112	2
57	77	4
184	184	6
44	44	4
89	105	2
55	56	5
125	125	6
155	155	4
14	29	1
114	124	5
173	173	12
181	187	4
21	42	2
135	152	1
5	103	3
68	79	1
64	73	1
166	166	3
98	98	5
42	42	2
185	185	5
58	58	1
153	163	5
78	89	5
186	189	1
48	48	2
57	57	3
114	114	5
142	142	2
174	189	2
169	170	3
101	122	4
141	166	4
109	110	3
162	162	4
38	43	2
19	19	4
143	167	3
137	152	2
165	165	10
96	108	1
121	121	1
123	123	1
27	28	5
14	33	5
122	122	8
151	151	3
20	33	3
182	182	9
30	30	3
137	137	1
76	76	3
46	72	2
137	155	3
36	37	1
103	103	4
187	187	5
11	18	2
136	136	2
46	83	1
65	65	2
18	86	1
78	84	6
29	100	2
90	95	1
53	54	1
68	68	3
39	46	6
161	181	2
164	164	3
134	134	4
111	148	3
144	175	1
130	131	5
26	26	4
23	42	1
74	74	3
143	177	1
175	179	7
23	24	2
135	136	2
2	2	7
139	139	3
124	125	3
16	75	1
88	106	1
18	18	2
92	92	3
2	23	5
170	170	5
19	32	2
141	163	6
130	132	4
15	15	4
175	175	2
171	171	6
100	116	3
64	64	3
17	17	8
31	36	1
188	189	1
68	89	2
133	133	7
66	67	2
11	12	2
72	87	5
99	109	7
138	162	2
150	152	1
57	74	2
171	176	2
77	77	5
125	127	4
166	168	3
105	105	3
55	88	3
23	65	2
21	21	4
2	21	1
71	71	3
36	36	3
2	104	1
82	85	1
15	26	4
31	41	1
27	48	4
59	91	4
89	93	2
160	160	2
63	73	1
103	120	1
28	32	3
96	96	2
42	83	2
156	177	1
56	56	5
2	24	1
188	190	2
78	78	1
88	89	3
188	188	7
78	95	1
125	147	1
112	130	2
1	117	2
38	38	3
130	159	1
153	153	3
11	11	7
39	39	3
82	82	2
104	104	2
133	146	1
90	93	1
93	94	3
169	181	2
9	11	2
90	109	2
71	95	1
4	4	3
161	162	1
113	113	2
154	154	4
30	48	3
48	54	2
161	163	4
16	16	11
30	38	1
47	47	2
111	111	1
99	111	1
180	180	5
86	86	4
163	163	3
112	118	3
142	161	1
7	38	1
143	157	1
169	169	2
174	174	2
183	183	1
183	186	2
159	159	4
102	102	1
168	174	1
146	147	2
119	120	1
160	166	2
7	8	3
68	93	5
36	55	1
6	26	3
150	163	1
126	129	3
148	162	1
116	125	1
76	77	2
12	32	2
144	176	1
156	157	3
87	87	2
122	134	1
35	35	3
140	161	1
102	103	5
74	86	2
128	128	1
144	158	1
84	84	2
152	161	2
36	66	2
107	107	5
64	79	1
27	47	4
116	153	4
108	124	1
144	153	4
103	118	2
57	65	1
137	138	1
167	167	4
141	141	3
176	180	3
5	6	1
189	190	1
148	157	1
28	44	2
165	166	2
147	147	2
186	186	3
68	103	1
102	112	3
68	91	1
13	13	3
81	81	2
62	73	3
127	129	1
63	63	1
26	27	2
40	41	4
158	166	1
42	46	2
64	88	2
111	135	1
178	188	3
181	181	1
2	20	1
110	110	4
10	11	2
100	113	1
72	116	2
96	97	2
124	124	1
37	65	2
49	56	2
110	111	2
53	73	1
100	109	2
95	97	1
105	106	1
176	176	2
158	165	1
183	184	1
3	9	2
108	108	5
81	82	1
95	103	1
53	53	1
67	67	1
36	65	1
99	100	1
23	67	3
37	67	1
140	156	2
95	99	2
138	139	2
35	58	3
80	108	2
85	111	1
117	146	1
185	187	1
131	133	2
57	92	1
56	70	1
19	37	1
132	146	1
99	136	1
24	42	1
112	112	2
131	131	1
2	10	2
125	143	2
168	171	3
139	160	1
47	83	1
15	45	1
127	127	1
72	73	1
131	163	1
22	47	1
78	92	1
156	176	1
25	38	1
175	190	2
59	59	2
25	26	1
172	179	3
97	101	1
65	93	1
11	32	1
96	98	1
72	72	1
123	153	1
99	99	1
8	8	1
7	7	1
139	143	1
89	110	3
8	25	1
123	159	1
4	22	2
19	47	1
10	14	1
88	96	1
65	79	1
39	40	1
161	170	1
58	86	4
25	45	1
2	3	1
142	147	3
145	145	1
85	85	1
23	39	1
10	10	1
8	9	1
85	96	1
99	113	1
11	13	1
117	117	1
37	52	1
149	150	2
62	108	1
180	181	1
132	132	1
179	179	1
138	167	1
71	94	1
43	44	1
151	152	1
161	161	1
139	156	1
152	152	1
40	40	1
109	122	1
8	38	1
97	97	1
145	179	1
176	177	1
