70	102	1
56	56	17
105	105	22
11	11	9
66	68	3
30	30	7
95	95	17
4	4	19
18	19	4
101	101	10
103	103	13
72	75	6
65	65	12
95	96	3
28	28	8
91	92	4
109	109	10
57	93	5
128	130	4
74	75	10
68	75	1
18	18	7
76	88	1
70	70	6
75	76	6
98	118	2
62	62	5
116	116	13
107	107	4
6	7	5
129	129	3
27	27	8
42	42	9
97	98	5
96	96	7
16	58	1
101	105	4
111	111	17
54	54	31
118	119	6
53	53	24
16	16	6
74	74	4
15	16	2
58	60	6
20	33	1
9	10	3
15	15	9
89	89	11
58	76	4
33	33	5
9	33	4
72	72	10
5	5	10
33	34	2
50	50	9
87	87	6
19	20	1
105	121	1
118	118	12
84	96	1
7	7	17
73	73	7
62	100	3
1	1	13
49	50	7
109	112	1
5	12	2
57	58	4
73	74	1
9	9	11
49	51	3
49	49	9
56	100	4
67	68	4
88	113	1
119	119	21
117	117	10
104	123	2
102	102	7
29	29	13
44	44	8
69	69	8
31	31	8
58	58	9
7	8	2
98	98	6
0	0	4
71	71	7
51	77	1
14	14	3
19	19	20
108	108	11
48	48	13
112	112	13
93	93	6
94	95	5
90	98	2
97	100	3
65	73	6
86	86	12
14	15	1
40	42	1
17	17	3
105	117	3
19	131	1
130	130	5
59	59	11
41	41	4
97	101	3
21	22	2
11	14	1
85	86	4
123	123	3
63	65	3
94	94	8
51	51	8
125	125	18
83	84	1
60	60	4
113	113	14
4	6	1
29	31	2
94	112	1
124	124	6
64	65	5
5	61	2
68	68	6
62	67	1
121	122	2
77	80	1
100	101	1
114	118	2
75	77	1
97	97	14
130	131	1
78	78	7
82	83	3
64	64	14
106	106	5
57	90	1
82	86	2
5	62	1
26	26	13
3	4	2
83	83	6
10	11	5
84	84	6
8	8	5
33	45	2
81	81	2
79	79	5
3	3	8
76	78	5
90	90	4
63	64	3
110	113	3
122	122	6
46	46	4
97	99	3
67	67	1
19	71	3
47	47	6
121	121	9
76	76	7
25	25	6
8	57	2
92	125	1
115	115	8
32	32	7
63	63	5
70	75	2
92	105	1
2	18	4
66	67	5
92	92	8
56	69	1
2	2	2
50	51	5
57	57	8
24	25	3
55	55	4
92	93	3
86	87	3
99	99	3
47	48	1
18	20	3
6	6	9
104	104	19
63	66	3
43	43	3
43	58	1
75	75	7
23	23	5
51	52	2
128	128	4
52	52	6
127	130	2
91	91	13
101	109	1
43	44	4
131	131	7
126	126	2
129	130	1
24	24	3
57	83	4
120	120	8
77	77	2
111	116	1
95	104	1
61	65	4
12	12	18
71	102	1
42	43	3
39	40	4
132	133	1
78	92	3
78	91	1
85	88	1
131	132	4
40	45	5
1	120	3
100	100	4
62	63	1
11	12	4
23	24	2
109	113	1
77	106	4
132	132	3
111	112	4
13	13	8
88	88	3
86	101	1
4	7	2
48	49	2
84	85	7
48	62	2
32	63	1
10	10	6
82	82	9
22	22	1
29	30	6
26	84	2
11	25	1
112	113	1
44	46	2
20	20	2
115	124	1
49	52	1
21	21	3
16	31	1
45	45	10
106	107	2
5	11	2
67	70	1
94	123	2
65	66	1
110	111	2
78	79	2
81	82	3
105	106	5
39	39	4
41	45	2
93	94	5
106	117	1
79	104	2
30	32	1
5	10	2
110	110	8
133	133	2
28	29	2
48	67	2
65	102	3
87	88	4
80	80	5
66	66	3
107	115	1
31	32	2
90	100	2
99	100	1
42	50	1
114	115	1
16	22	4
71	103	3
77	78	5
96	112	1
114	114	6
46	47	2
102	116	1
95	121	2
119	128	3
109	110	2
111	113	2
78	104	1
104	105	4
20	45	1
50	65	1
102	109	2
25	26	2
69	98	2
114	125	1
71	74	1
82	93	1
48	63	2
90	92	2
55	68	2
3	51	1
11	34	1
60	119	2
3	52	4
125	126	3
122	123	1
22	40	2
127	127	3
113	114	2
43	45	1
23	25	2
47	56	1
13	19	1
116	125	2
103	131	1
1	2	2
96	98	2
102	115	1
56	58	1
39	45	1
107	108	2
92	104	1
14	17	1
44	45	1
116	117	1
55	116	2
66	86	1
116	126	1
107	116	1
34	48	1
73	84	1
52	133	1
18	24	1
81	98	2
103	115	2
72	73	2
69	118	1
85	85	1
100	102	3
119	120	1
40	40	2
16	19	1
91	115	3
108	116	1
119	126	1
4	52	1
27	52	1
76	87	2
121	123	1
72	74	1
53	120	1
61	61	1
115	116	1
2	42	1
22	39	1
38	40	1
14	16	1
122	124	1
55	56	1
5	6	1
60	61	1
31	34	1
6	132	1
39	76	1
89	100	1
