48	48	4
49	49	14
7	7	10
71	71	3
6	6	15
58	58	11
55	55	11
9	77	3
48	53	9
9	46	6
31	31	17
75	75	11
18	18	2
67	67	6
53	53	9
13	33	1
12	17	4
47	47	17
84	84	18
81	84	4
73	73	5
30	30	16
57	57	20
17	55	1
17	78	2
34	35	2
48	49	6
17	17	11
26	26	15
7	16	4
68	68	11
23	23	4
19	19	11
3	8	1
86	86	10
1	2	4
65	76	3
79	79	8
56	72	3
21	21	12
31	35	3
80	82	4
63	64	4
70	71	6
4	4	13
3	3	11
2	3	4
78	78	4
27	27	10
2	2	8
6	65	2
21	22	9
28	28	9
19	79	7
4	5	2
83	83	9
25	31	2
32	32	5
3	4	2
35	35	3
25	25	6
50	50	10
14	14	6
51	51	8
1	1	12
9	76	3
0	0	9
20	21	6
9	31	1
4	21	1
53	55	2
9	9	10
57	58	4
9	14	3
9	10	9
34	34	9
69	69	1
62	63	3
22	25	2
12	60	1
5	5	16
10	10	11
89	89	7
8	8	11
72	73	2
66	85	3
29	29	13
20	20	13
69	76	2
12	16	1
87	88	2
4	23	1
62	62	6
61	61	6
17	79	2
12	12	15
70	70	8
10	13	4
19	22	5
5	6	8
85	85	7
68	70	4
19	21	1
6	7	4
54	54	5
74	75	2
73	74	3
59	60	5
61	82	1
24	24	14
73	75	7
76	76	9
65	65	14
13	20	1
56	56	2
52	52	8
26	27	6
24	25	7
80	80	5
21	54	4
64	65	3
4	14	2
71	77	6
49	50	2
80	86	2
50	52	1
52	53	3
78	80	5
47	48	9
82	82	4
19	20	3
22	26	4
66	66	8
83	85	1
10	48	5
11	11	4
19	88	2
22	22	6
79	81	1
66	83	2
10	14	3
88	88	1
12	49	1
80	81	1
13	15	3
27	61	4
23	24	2
5	7	4
50	79	1
6	31	1
86	87	1
72	72	4
50	51	1
33	63	3
60	60	1
8	77	3
14	16	4
87	87	3
79	80	2
13	13	2
14	27	1
82	83	3
8	9	3
18	19	2
55	56	2
20	88	2
1	23	3
59	59	5
67	69	1
60	61	1
22	23	1
19	23	1
81	81	3
56	81	2
16	16	3
15	16	1
12	13	1
84	85	1
85	86	2
10	12	3
47	49	4
69	71	1
11	12	4
53	75	2
15	15	2
15	18	1
13	27	2
3	71	2
47	52	2
68	69	1
3	57	3
61	62	1
63	65	1
70	89	1
24	30	2
25	27	2
23	25	1
17	80	1
7	9	1
65	66	1
14	33	1
63	63	1
81	82	2
75	76	1
71	80	1
7	8	1
20	33	1
27	28	1
6	13	1
77	77	1
88	89	1
9	12	1
13	26	1
