77	78	5
155	155	10
134	134	16
2	2	8
41	41	6
84	103	2
76	76	5
146	150	2
0	1	2
103	107	1
33	33	7
141	142	2
96	96	6
64	107	3
78	80	6
85	85	4
98	98	14
27	43	1
80	81	1
55	55	11
109	115	2
12	12	13
150	150	11
97	97	5
3	3	5
144	146	8
151	151	3
62	62	2
151	155	2
101	101	7
79	98	1
1	1	3
109	109	11
127	127	13
8	9	2
18	139	3
4	4	5
80	80	9
17	17	5
78	78	6
90	90	5
123	123	9
101	106	6
110	111	2
95	97	4
17	122	6
87	89	2
70	70	5
88	88	10
66	154	2
158	158	5
54	54	5
133	133	7
13	13	3
103	104	4
128	128	12
31	37	2
29	29	14
112	112	2
10	10	12
36	36	6
123	124	3
140	140	2
37	46	1
42	42	4
48	48	8
65	144	2
83	92	3
125	149	3
156	156	11
123	139	4
69	126	5
91	141	2
15	15	4
12	13	4
23	137	2
91	92	6
49	63	2
46	46	6
126	126	2
23	23	5
50	57	3
77	89	3
116	116	3
98	99	7
19	20	1
136	136	2
121	121	8
14	14	7
66	69	7
19	19	14
87	87	5
8	11	4
21	122	3
37	37	10
67	156	2
69	150	1
122	122	1
152	152	4
13	14	3
104	140	1
20	21	2
130	130	1
26	26	2
94	103	1
86	121	5
82	82	1
47	47	2
22	138	2
38	39	1
8	12	1
92	145	3
8	127	4
115	115	2
67	67	1
14	126	2
85	121	3
113	114	4
12	127	3
87	120	1
137	137	6
16	22	4
86	86	1
18	22	3
146	146	6
9	9	1
42	87	1
132	133	5
131	131	5
44	44	3
5	47	1
115	120	1
24	24	4
138	138	10
38	38	4
19	34	2
102	102	1
125	125	9
52	54	6
62	144	1
35	48	4
33	41	1
20	20	2
34	45	2
84	91	3
67	71	5
10	15	1
79	79	10
70	146	2
108	113	4
22	23	2
121	139	5
66	144	2
147	148	7
6	6	2
118	119	1
79	99	1
134	135	3
85	90	4
129	129	2
73	73	1
62	69	4
131	132	1
32	32	4
28	43	3
91	104	4
49	49	1
28	29	2
52	53	5
116	119	3
16	129	1
47	55	2
110	110	3
40	40	6
63	63	1
64	64	6
34	34	1
120	124	1
83	143	3
128	129	4
71	71	5
153	153	2
139	139	3
119	119	5
8	8	1
101	104	1
117	117	4
81	81	3
94	94	2
40	41	1
111	111	3
71	106	3
66	66	3
146	148	2
108	108	8
44	45	1
75	75	4
118	118	2
134	137	1
18	35	5
93	140	1
125	127	5
20	32	6
86	91	3
22	128	1
154	154	4
11	12	5
18	18	3
92	92	4
80	98	1
105	105	4
39	39	1
71	153	3
90	91	2
148	148	4
102	109	1
37	45	7
87	88	3
72	72	1
87	116	2
23	24	7
153	154	1
100	100	1
53	53	1
124	140	2
117	121	1
35	35	2
108	142	2
6	8	2
51	52	2
157	158	1
118	120	1
41	46	3
100	101	3
3	47	3
116	118	1
141	141	5
56	56	1
86	119	1
38	41	2
68	68	2
2	29	2
83	91	2
120	121	2
29	108	2
7	8	2
125	140	1
111	115	1
105	106	2
66	84	3
56	57	1
17	35	1
149	149	1
65	65	2
86	87	2
37	41	1
152	157	1
30	30	1
63	64	2
94	99	1
3	19	2
50	50	5
9	11	2
34	57	1
11	129	2
91	91	3
0	4	1
7	48	2
25	26	1
74	74	1
139	140	2
17	39	1
34	55	1
51	51	1
117	120	4
156	157	1
79	80	1
99	99	2
62	71	2
62	153	1
7	17	1
89	89	1
110	119	1
108	110	1
155	156	1
82	83	1
124	124	1
70	152	1
8	49	3
112	113	1
45	45	1
31	33	1
135	136	1
36	38	1
41	86	2
15	125	1
72	93	2
76	80	1
75	76	4
95	96	1
129	130	1
34	54	2
84	84	1
113	113	1
148	149	1
31	31	1
67	154	1
70	150	1
69	70	1
95	99	1
29	45	1
144	144	1
127	148	1
132	132	1
68	70	1
125	147	1
