23	42	5
26	36	1
140	141	4
37	37	1
70	71	3
2	80	1
102	102	5
194	197	1
50	50	2
93	93	2
161	161	5
110	110	3
56	58	1
76	76	7
151	151	7
179	188	2
72	72	23
148	148	2
71	71	4
97	97	7
114	114	4
1	23	2
177	182	1
167	167	5
14	16	1
164	164	4
107	107	5
157	157	3
63	63	1
101	103	1
112	113	3
23	24	5
196	196	1
159	159	4
82	82	5
48	71	1
188	188	4
93	120	4
176	176	2
94	95	2
25	26	3
150	160	4
19	19	2
27	31	3
39	39	2
184	184	12
117	148	2
173	180	1
7	136	1
94	96	4
64	64	3
179	187	4
0	1	3
151	152	1
18	18	8
122	122	3
24	69	2
149	149	1
95	110	2
111	113	8
12	12	11
11	11	7
147	147	5
1	24	1
30	32	2
29	29	3
46	46	2
48	72	1
97	115	4
165	169	3
106	106	2
193	193	4
75	87	3
135	135	3
9	10	3
83	84	5
138	138	2
153	153	2
17	17	8
1	65	2
144	144	2
168	168	2
8	9	1
156	156	5
65	88	4
128	128	5
134	134	4
48	176	2
41	41	3
78	87	3
115	115	2
16	17	4
35	35	3
43	43	4
141	147	3
49	50	1
140	140	6
189	192	4
177	187	1
127	127	4
192	192	4
14	14	13
120	128	3
118	118	3
59	59	2
139	147	1
161	163	3
178	180	3
105	105	4
160	160	4
9	9	2
99	99	7
24	24	10
95	95	5
152	165	1
165	166	2
51	72	3
107	113	4
5	62	2
84	84	2
136	137	3
178	178	2
40	43	2
28	28	2
111	124	4
182	182	9
137	137	4
106	107	5
185	185	3
13	15	1
135	148	4
40	41	2
153	154	1
181	181	4
0	5	3
116	116	3
26	26	6
194	194	1
95	97	2
126	126	3
104	105	1
74	74	2
6	63	2
5	5	13
169	169	3
10	11	2
191	191	2
62	62	3
16	74	2
8	24	3
55	70	4
113	114	2
29	32	2
98	105	2
76	85	1
0	66	1
189	190	1
113	113	5
141	148	3
56	57	1
32	32	2
12	13	1
119	120	3
56	71	4
174	174	2
174	176	1
7	80	5
195	195	5
48	48	3
10	10	2
193	196	1
158	162	1
45	45	2
65	78	3
154	155	1
57	58	1
179	179	5
125	125	3
82	172	2
80	84	2
61	141	1
180	182	3
111	111	3
69	69	6
173	173	2
95	96	2
64	65	2
98	99	4
56	56	3
60	61	2
124	124	1
169	170	4
82	182	2
141	141	6
20	20	2
87	87	2
73	73	1
172	187	1
183	184	3
129	129	2
125	126	2
60	145	4
54	54	6
96	96	4
79	79	3
187	187	4
80	83	5
111	118	4
80	81	1
119	122	2
108	108	2
58	58	2
150	150	2
38	38	1
16	16	1
130	133	1
197	197	1
154	154	1
143	143	3
109	109	2
97	110	1
97	98	2
29	30	1
4	23	1
88	89	1
82	165	1
133	160	1
118	119	2
185	196	4
47	48	1
2	2	1
184	187	2
94	133	5
56	60	1
158	158	2
62	104	1
76	147	1
33	34	2
122	123	1
52	53	1
100	117	2
13	13	1
71	143	2
123	123	1
36	36	1
143	195	3
108	112	2
145	145	1
7	7	2
142	143	2
25	25	3
94	94	1
67	68	3
67	67	2
172	173	3
4	4	6
193	197	1
70	70	1
60	62	3
8	50	1
175	175	2
187	189	3
104	104	1
66	75	1
151	164	1
195	196	1
22	44	2
157	158	1
16	25	1
24	35	2
112	112	1
44	66	1
120	121	1
144	146	1
105	114	2
184	185	1
49	185	1
22	35	2
102	103	1
88	88	2
184	186	2
170	170	2
3	77	1
85	85	1
32	33	1
33	33	2
5	63	1
183	183	1
98	110	1
172	172	2
130	130	1
75	75	2
19	21	1
168	179	1
139	148	1
77	77	2
52	52	1
171	179	2
1	1	1
153	155	1
47	47	1
7	165	1
44	44	2
186	186	1
165	167	1
87	89	1
150	156	2
66	66	2
4	86	2
15	16	1
137	147	1
38	41	1
173	177	1
151	163	1
34	34	1
53	53	1
1	51	1
189	189	1
39	42	1
52	70	1
39	40	1
1	87	1
