69	69	4
96	99	1
97	97	7
81	81	12
24	29	3
93	93	13
52	52	14
35	35	8
70	72	8
70	70	4
32	32	3
34	34	11
75	75	9
78	79	2
102	102	3
65	70	4
88	88	3
67	67	10
43	44	9
80	81	2
72	80	1
72	72	8
39	42	3
28	28	2
39	39	13
62	62	5
40	40	7
71	71	12
20	23	3
38	41	1
42	43	2
61	61	17
20	20	1
92	95	2
94	94	8
79	90	1
23	24	2
43	43	8
92	92	5
84	85	4
24	24	14
34	35	4
42	48	1
96	98	2
36	38	3
76	81	4
42	42	7
27	27	6
26	28	3
64	65	1
61	69	1
23	23	13
85	85	7
65	88	2
30	35	5
58	58	14
98	99	2
78	102	1
64	64	6
48	50	1
82	82	5
105	105	3
37	37	3
36	36	9
61	62	2
41	51	4
33	33	9
93	97	4
64	98	2
54	54	6
38	38	6
49	49	14
45	46	1
74	76	1
79	102	2
31	34	7
68	84	2
40	41	3
77	77	4
32	34	1
104	104	7
26	27	3
84	84	8
55	56	6
46	46	4
73	73	6
25	25	4
38	39	2
96	104	7
103	103	3
70	99	1
81	90	2
31	32	6
82	97	2
78	78	9
74	74	13
88	98	2
88	92	2
58	88	3
21	21	7
71	75	1
54	82	1
53	53	7
76	92	3
42	44	1
89	92	2
85	86	3
68	88	2
68	69	3
57	69	1
101	101	7
56	58	1
57	67	1
57	57	5
65	65	4
60	60	3
62	63	1
47	91	2
61	93	1
24	34	2
22	22	7
31	31	4
26	26	4
55	55	1
95	95	11
72	88	2
58	59	3
43	57	3
82	85	2
86	87	2
75	94	1
55	57	3
97	98	1
57	70	2
49	53	3
76	76	7
71	78	2
81	103	4
86	98	3
58	83	2
66	67	4
51	51	5
49	54	3
91	91	4
94	95	1
59	66	2
41	43	1
60	86	1
78	90	1
42	63	2
96	97	1
55	68	4
95	96	2
41	41	3
106	106	3
45	45	3
61	89	2
63	69	3
72	74	1
48	48	6
68	68	3
59	60	1
69	70	1
47	47	2
44	44	2
96	96	2
42	45	2
93	94	1
47	53	1
59	59	2
89	89	4
20	22	1
70	88	1
32	37	3
81	93	2
21	22	1
92	93	3
63	63	3
66	70	3
63	64	1
79	79	2
33	34	1
99	99	2
75	101	3
87	87	2
90	90	1
101	102	2
100	101	1
62	90	1
46	52	1
98	98	2
20	29	1
46	91	2
20	21	1
95	98	2
38	43	1
86	89	2
82	83	2
87	98	1
66	66	5
29	40	2
50	51	2
87	90	1
59	68	2
61	63	1
51	76	2
57	58	1
63	88	2
53	91	2
63	68	1
30	30	3
82	99	1
56	56	1
100	100	3
19	38	1
83	83	1
89	90	1
46	47	2
51	79	2
67	68	1
44	45	1
83	85	1
50	50	1
56	57	1
88	97	1
62	81	2
19	25	1
47	49	1
52	83	1
83	84	1
76	79	2
80	80	1
