25	25	2
59	60	3
33	33	1
98	98	6
97	129	3
59	62	2
94	96	4
23	23	11
95	95	3
1	3	2
71	71	5
100	131	2
53	57	1
101	101	10
90	91	1
82	82	6
54	54	5
69	69	5
36	37	2
80	80	3
79	80	4
124	124	8
103	103	9
131	132	2
90	90	7
44	44	6
50	50	7
125	126	2
16	16	6
61	71	4
21	21	8
73	73	4
68	68	10
55	62	5
104	104	2
27	27	6
101	129	3
95	115	3
18	90	1
94	94	6
0	0	5
68	69	2
36	36	6
14	14	9
24	24	6
45	45	6
34	34	4
43	43	3
85	85	3
17	17	2
86	86	6
88	88	7
134	134	6
104	105	2
33	34	2
37	37	3
126	126	4
91	91	9
8	8	4
35	35	3
53	53	2
19	19	8
14	43	1
79	79	2
96	96	1
121	121	3
28	28	2
63	63	3
77	79	4
122	122	3
75	75	11
111	111	2
64	64	10
31	31	2
113	114	2
27	28	2
11	11	7
81	81	3
38	38	3
62	64	1
106	106	5
13	37	3
30	30	7
19	20	1
0	37	1
26	26	4
101	102	2
96	130	2
50	55	3
89	89	3
61	62	4
102	102	5
127	127	5
4	4	9
114	114	1
131	131	2
93	93	8
13	29	2
94	95	1
77	77	4
28	29	3
7	7	2
67	68	2
109	111	3
99	99	4
61	61	2
45	57	1
105	105	4
96	128	5
76	76	3
83	84	2
71	72	2
19	22	3
70	70	1
58	59	3
92	92	6
83	83	2
100	100	3
65	65	3
64	65	1
16	17	3
87	87	5
118	118	1
15	15	3
18	18	4
66	66	6
74	92	2
113	113	1
12	12	10
59	64	1
45	58	3
20	20	5
98	99	1
56	58	3
59	59	3
106	108	3
55	55	4
35	36	2
98	100	2
9	9	4
129	129	7
58	58	2
78	79	3
77	78	2
97	100	3
49	49	1
118	119	3
2	3	4
60	60	2
7	8	1
72	73	1
84	85	1
123	123	3
52	52	1
29	29	2
85	86	2
84	84	1
55	56	2
73	74	1
109	109	2
85	116	2
117	120	5
110	111	3
93	94	5
53	56	1
62	62	1
115	115	3
92	94	2
66	69	1
124	125	1
105	106	1
83	85	4
5	5	2
97	110	1
125	125	3
2	2	2
30	34	1
130	131	2
120	121	1
60	61	3
91	92	2
104	135	1
132	132	2
97	97	1
63	68	1
23	24	2
112	112	1
74	74	1
20	62	1
107	110	4
50	56	1
52	54	1
22	22	1
101	127	1
75	79	3
72	72	3
20	21	1
3	3	1
37	38	1
110	110	1
37	44	1
122	123	3
107	107	2
89	90	1
116	116	2
95	119	1
6	6	1
82	83	3
73	75	1
107	112	1
8	9	1
25	26	1
63	65	1
121	124	1
26	27	1
128	128	1
59	63	1
16	18	1
63	70	1
46	47	1
4	11	1
29	30	1
119	119	1
