80	80	4
62	66	3
36	36	4
9	9	7
72	173	1
2	68	4
150	150	4
87	89	2
115	115	7
145	145	2
114	150	3
62	62	8
174	175	2
122	122	6
161	161	14
51	52	5
174	174	8
65	65	2
5	5	7
24	24	6
112	112	9
159	159	14
15	15	5
37	37	7
126	126	8
118	118	5
109	109	6
28	28	3
80	81	3
56	56	2
127	127	13
106	107	1
142	142	9
8	8	12
138	138	6
21	44	4
124	124	5
172	172	6
139	165	2
107	107	7
160	160	8
164	165	3
12	44	2
31	31	12
11	16	2
100	101	5
44	45	1
49	61	2
111	112	2
166	166	5
26	26	2
179	179	7
171	171	12
104	104	5
141	159	4
3	3	2
56	58	4
143	143	10
131	131	1
152	152	7
117	117	8
84	84	6
108	108	3
99	99	3
27	27	3
4	68	2
128	128	7
24	39	4
18	19	4
142	143	4
45	45	7
84	85	4
153	153	9
64	140	2
101	159	2
130	135	1
76	77	3
107	123	3
6	32	1
3	141	2
116	116	4
73	73	9
149	149	10
4	4	9
22	22	2
67	67	1
145	148	2
154	155	2
90	142	8
83	97	4
168	168	5
111	117	6
103	116	3
114	114	4
39	39	6
80	102	2
94	166	2
82	82	1
13	44	1
168	169	2
137	137	2
10	60	3
35	35	6
19	19	4
132	133	4
63	66	1
14	14	5
7	7	5
110	140	2
129	172	2
130	174	1
139	139	6
113	150	3
115	150	1
6	77	2
105	105	14
133	134	2
120	120	11
79	79	7
173	173	2
68	68	10
61	62	1
151	151	3
96	96	7
92	92	10
29	30	3
80	98	1
29	29	7
175	176	3
133	178	3
95	166	1
77	78	4
30	31	1
28	58	1
148	148	6
108	109	2
167	167	9
72	75	5
173	174	1
39	42	4
90	143	2
57	57	5
110	117	1
71	71	4
111	111	3
62	63	2
95	96	3
40	40	3
12	12	3
2	2	2
8	9	5
164	164	7
98	98	12
35	54	2
143	158	3
66	124	2
95	95	8
5	6	5
0	0	6
64	64	5
43	43	4
32	32	1
160	162	2
112	179	1
99	128	2
120	164	6
123	124	2
119	119	3
97	97	4
103	104	2
104	113	8
74	134	4
177	177	4
81	180	3
76	167	1
161	162	3
88	88	4
96	180	3
154	154	2
151	158	2
58	58	8
25	26	4
141	145	1
50	51	2
77	77	7
130	130	1
175	175	4
87	87	5
124	125	1
142	150	1
154	158	3
54	56	2
119	121	8
64	95	1
20	20	5
152	158	2
6	6	7
94	94	7
94	165	2
104	105	2
35	36	2
101	101	1
112	170	3
134	170	1
178	178	6
27	28	1
53	55	2
117	119	1
22	23	5
83	83	3
34	35	1
155	155	3
25	25	6
180	180	3
55	55	6
53	61	2
38	38	5
84	143	4
67	116	4
74	74	10
51	51	3
157	157	2
36	37	1
44	44	7
80	83	4
99	137	3
41	42	3
128	174	7
11	18	2
66	116	1
59	60	1
176	176	6
133	133	6
59	61	8
81	81	1
11	11	5
98	126	1
19	20	2
135	135	1
78	179	2
141	144	1
148	157	1
59	59	1
102	109	1
10	10	1
132	132	4
87	88	2
113	121	2
140	145	1
76	78	1
18	18	1
31	32	1
21	157	4
138	159	2
70	71	3
133	135	1
102	121	6
90	116	3
118	120	4
32	33	3
81	86	1
60	60	10
169	169	4
118	121	2
79	122	2
2	3	2
148	154	2
77	134	1
57	58	2
146	147	4
150	161	3
140	140	5
56	59	2
86	96	2
92	94	2
101	123	1
72	72	7
80	86	1
163	163	2
63	63	1
125	125	2
14	15	1
52	54	2
9	11	6
170	170	1
34	34	2
86	88	1
6	9	1
61	154	2
86	94	2
22	36	1
99	100	2
11	12	1
84	97	3
12	60	1
30	30	3
90	90	4
91	91	2
23	23	2
5	7	1
0	18	2
109	123	1
23	24	2
57	59	2
102	102	6
126	128	1
78	78	4
20	91	2
17	20	2
93	93	3
52	52	7
113	170	2
66	114	1
113	113	3
155	156	1
127	178	1
168	170	2
92	93	2
157	158	3
137	138	1
53	53	2
16	16	3
4	12	2
84	96	2
32	35	1
73	75	1
61	61	2
136	136	2
86	86	2
26	32	1
17	19	1
85	85	4
56	61	1
133	168	2
106	106	3
144	144	3
15	16	1
156	157	1
42	42	1
28	32	1
33	33	1
71	173	1
16	17	1
104	116	3
166	179	1
86	93	1
154	156	1
136	170	1
81	84	2
160	163	2
75	133	1
117	118	1
121	122	1
123	123	2
39	41	1
121	121	2
61	143	1
128	136	1
131	136	1
83	156	2
52	159	1
115	117	1
66	125	2
38	42	2
72	73	1
50	50	1
156	156	1
149	150	2
110	141	1
138	151	1
45	147	1
94	160	2
38	39	1
6	114	1
11	13	1
133	163	1
83	143	1
94	164	1
4	8	1
133	161	1
179	180	1
147	147	2
116	117	1
111	113	1
170	171	1
60	149	2
129	129	2
112	114	2
71	72	1
98	180	1
33	42	1
13	13	1
128	131	1
