8	9	7
4	4	56
39	40	9
7	7	30
48	49	19
42	47	3
49	49	21
21	23	5
3	4	6
38	52	4
53	53	23
18	18	47
42	42	35
20	20	19
56	58	4
51	54	10
10	10	42
35	49	5
52	53	6
44	44	34
57	57	21
41	41	29
36	36	24
45	58	6
33	51	2
3	3	16
28	28	15
21	21	25
1	3	2
40	40	45
0	0	16
46	46	44
54	54	41
15	15	42
50	50	23
19	20	6
6	6	52
14	16	10
22	22	11
21	29	2
13	13	17
51	51	26
56	57	13
52	57	3
54	55	4
50	54	4
48	48	35
46	48	5
57	58	9
18	40	2
38	38	27
50	51	10
43	43	24
1	4	2
32	32	21
8	8	28
15	17	2
39	39	41
9	9	32
4	50	1
33	34	26
45	45	40
1	49	5
2	50	2
17	18	8
2	2	51
47	48	9
16	16	31
49	50	6
45	46	9
44	45	9
4	5	8
23	23	10
51	52	6
38	39	5
35	35	51
56	56	36
36	53	3
37	38	7
12	13	11
7	34	7
58	58	22
29	35	4
11	11	41
47	47	38
19	37	6
46	47	6
30	30	23
33	33	35
1	35	3
10	52	3
13	14	7
1	1	29
34	34	42
35	40	4
46	49	6
15	33	3
52	52	18
8	10	3
37	37	23
14	14	22
31	31	21
22	23	9
37	58	1
17	40	4
5	5	20
43	44	5
2	3	14
29	30	8
5	46	2
11	12	9
14	17	3
19	19	32
55	55	32
35	36	5
24	24	4
28	29	9
41	42	7
12	12	25
30	31	7
55	56	3
34	42	4
35	43	4
43	45	3
6	7	2
14	15	6
27	56	5
20	55	3
48	51	1
16	18	2
32	33	5
42	46	5
19	56	1
7	8	2
40	41	13
18	19	14
24	57	3
16	17	6
35	39	1
36	37	2
31	32	8
28	54	2
9	16	1
37	52	3
39	42	4
6	17	2
30	35	3
17	17	26
30	32	4
21	22	6
7	9	2
13	17	2
5	7	1
20	24	3
41	45	2
22	54	1
16	42	2
44	50	1
3	16	2
34	50	1
37	53	2
16	39	2
42	43	5
42	55	1
50	52	2
10	12	2
2	12	6
6	9	1
10	11	6
45	47	4
37	55	1
6	35	2
20	21	4
29	31	2
11	53	1
55	58	1
34	44	4
31	33	3
15	16	13
36	51	1
29	29	4
9	20	1
19	35	1
22	24	4
18	41	2
3	11	1
23	24	2
37	54	4
1	2	11
58	59	1
11	16	7
36	38	4
45	50	1
8	28	2
52	58	1
40	43	4
50	57	3
9	57	3
49	55	1
28	37	1
10	19	2
38	58	3
15	18	4
6	10	3
19	55	2
41	44	1
24	52	2
3	18	2
29	57	2
0	48	1
11	52	2
36	54	2
34	45	1
37	56	3
20	23	1
42	50	2
28	33	3
20	35	2
14	18	1
20	22	2
2	7	2
55	59	2
50	58	1
34	35	2
18	39	1
53	54	1
59	59	1
16	34	1
21	24	1
3	15	1
3	5	1
33	54	1
9	10	1
17	46	1
34	36	1
5	6	2
23	52	1
38	45	1
33	45	1
44	57	1
54	58	1
21	32	1
52	54	1
