46	47	2
58	58	2
101	101	2
30	31	4
150	150	3
152	152	7
41	41	2
170	175	3
54	54	2
126	126	5
56	152	1
105	161	1
63	63	2
78	78	2
4	4	1
85	122	2
99	100	6
44	44	6
112	112	3
95	96	5
6	8	4
102	103	9
48	49	3
176	178	2
6	6	1
145	146	3
71	73	2
56	56	3
84	84	5
71	72	3
159	159	4
95	95	1
138	157	4
90	90	4
26	27	3
135	135	3
60	61	4
58	60	3
38	40	2
115	117	2
135	158	2
99	99	1
45	45	1
11	11	4
30	35	4
134	134	3
89	89	12
4	5	2
54	55	7
164	164	4
57	57	6
55	55	4
30	30	6
47	47	3
184	184	1
53	55	2
53	54	3
81	81	10
83	83	5
142	166	1
36	36	1
41	74	4
10	14	2
143	143	2
125	126	1
90	140	4
85	86	2
175	175	2
153	154	4
140	141	2
108	110	2
153	153	5
100	100	1
174	174	7
8	8	1
101	143	1
179	180	2
55	56	1
106	106	1
148	148	10
118	119	4
1	1	4
39	39	2
130	130	6
73	73	2
137	137	2
22	22	3
33	33	1
33	34	2
190	190	5
117	118	2
42	79	2
13	14	6
3	3	4
25	25	6
173	184	1
76	76	1
125	131	1
79	79	4
167	167	2
93	93	5
154	154	3
27	27	2
41	76	1
3	6	1
0	0	6
66	71	1
132	132	2
35	36	2
84	85	1
27	30	3
65	67	1
18	18	3
38	38	5
88	88	1
60	67	1
81	83	3
109	112	1
40	40	6
176	177	1
185	185	1
110	111	1
85	85	1
14	14	3
82	82	4
59	59	3
24	25	3
87	158	2
52	52	3
143	162	2
122	122	5
90	114	1
161	161	3
160	160	2
84	115	5
149	149	5
108	108	2
111	112	6
103	162	1
140	140	4
181	181	3
4	9	3
16	16	1
118	118	9
48	48	7
136	136	3
86	86	2
85	119	1
72	73	3
146	150	2
16	18	1
165	165	1
117	117	3
158	158	3
109	109	2
19	19	2
125	125	3
45	82	1
105	105	4
180	180	3
2	2	2
156	159	2
61	79	1
110	110	1
64	64	2
16	73	2
92	112	2
156	158	3
129	129	1
75	79	1
57	58	3
75	75	1
53	53	6
32	34	1
119	119	1
161	162	1
156	160	1
0	1	1
72	72	1
182	182	2
105	106	1
177	177	7
62	62	2
27	28	2
4	10	1
43	43	2
146	151	2
147	150	1
35	35	2
58	65	1
165	183	2
17	17	4
13	13	2
158	159	1
18	20	2
103	103	2
1	77	4
61	62	1
26	70	2
107	109	1
86	88	1
91	91	4
139	158	1
146	146	1
141	165	1
104	105	5
110	116	2
166	166	2
87	89	2
169	169	1
1	3	1
63	67	2
167	183	1
87	88	4
184	185	2
89	159	1
171	186	1
13	18	1
181	182	1
169	170	2
164	175	2
6	7	2
60	60	2
133	133	3
102	102	1
101	144	3
143	145	2
37	37	2
163	181	1
34	35	1
113	113	3
130	131	2
94	94	2
84	107	3
135	136	1
97	98	2
41	77	1
170	170	3
187	187	1
45	80	1
151	151	1
28	29	1
144	144	1
96	102	3
52	53	2
138	140	1
160	161	2
41	73	1
15	16	2
113	115	1
188	189	1
67	67	1
148	149	1
126	128	1
96	96	1
134	137	1
89	156	1
12	16	1
116	116	3
86	87	1
145	145	1
12	12	1
98	98	1
14	43	1
97	97	1
123	123	2
178	180	1
169	186	2
21	22	1
157	157	1
46	46	2
127	127	1
24	24	3
27	66	1
108	109	4
134	157	1
156	156	2
47	122	1
45	48	1
24	70	2
61	75	1
49	82	1
127	128	1
23	23	2
85	107	1
28	28	3
165	184	1
119	120	1
7	7	2
162	162	2
114	114	1
42	42	1
120	121	1
152	153	2
122	130	1
118	120	1
126	133	1
186	187	1
167	173	1
161	163	1
155	155	1
31	31	1
109	113	1
135	166	1
163	163	1
98	99	2
139	157	1
107	107	1
186	186	1
124	124	1
5	5	1
176	176	1
66	75	1
77	79	1
78	81	1
40	41	1
181	183	1
85	108	1
168	179	1
176	183	1
