19	26	7
131	131	3
119	119	5
111	111	6
122	122	3
96	96	3
66	69	2
76	77	3
113	113	7
27	32	5
104	108	2
95	95	2
87	87	10
20	21	12
8	103	6
4	5	2
129	129	7
82	86	4
128	128	10
36	36	3
29	29	6
104	104	4
134	134	5
108	108	3
112	113	5
80	84	4
5	5	2
24	26	6
100	130	4
102	103	8
134	140	3
101	101	9
105	105	5
106	106	5
114	115	2
104	107	1
35	35	6
85	85	12
100	100	1
2	2	2
82	82	3
10	11	10
21	21	8
135	135	12
110	110	7
5	121	4
79	126	3
27	27	5
120	120	5
104	106	2
32	32	6
130	130	4
1	1	8
24	25	7
82	84	1
99	99	4
13	13	4
3	4	6
114	114	3
24	24	7
19	19	1
8	8	5
18	18	2
3	103	1
20	30	4
31	31	1
37	37	8
138	138	4
79	79	7
11	11	2
71	106	1
81	82	2
29	74	2
86	86	5
92	92	3
100	101	1
97	97	4
98	98	3
77	112	1
87	88	4
5	102	3
23	23	6
18	25	7
3	121	1
79	83	4
24	75	2
16	108	9
22	28	4
30	30	5
77	77	10
80	80	2
7	8	4
12	106	2
12	118	2
116	116	5
90	91	2
30	31	5
78	115	3
80	82	1
90	90	8
4	121	2
22	22	3
75	75	4
12	12	1
139	139	3
21	29	2
134	135	6
115	115	4
33	33	1
88	88	3
73	100	2
78	90	1
133	133	3
113	117	1
125	125	5
34	34	3
132	132	3
76	76	4
10	113	1
107	108	1
13	101	3
4	102	4
133	135	2
14	14	3
103	103	3
38	99	3
6	103	2
13	122	2
102	108	1
10	104	2
9	103	2
6	9	5
2	3	5
75	77	5
107	107	5
78	113	2
90	125	4
15	15	5
81	81	3
95	97	3
11	71	2
20	31	4
19	20	2
7	9	1
112	117	1
38	38	3
109	109	4
112	112	2
103	121	2
78	86	3
2	5	3
38	95	2
2	17	2
10	10	4
127	131	3
74	74	1
27	33	1
89	89	3
108	121	5
89	90	2
94	94	2
140	140	1
4	7	1
14	124	1
118	118	2
73	112	1
109	117	1
91	91	3
0	8	1
14	117	1
78	78	3
20	28	2
116	117	1
37	38	1
122	125	1
72	107	2
105	106	1
34	37	1
6	6	2
83	83	1
127	127	2
7	121	1
28	32	2
81	84	1
19	29	1
72	111	3
1	25	2
72	72	2
103	108	1
95	99	2
26	27	1
25	26	3
116	123	1
136	139	1
72	117	1
103	118	2
7	7	1
7	102	4
136	136	1
9	9	2
23	38	1
14	110	1
14	120	2
7	108	1
101	111	2
38	76	1
12	107	3
72	108	1
137	140	2
21	22	1
34	35	2
28	28	1
11	118	1
74	108	1
8	18	1
16	120	3
84	84	1
123	132	1
72	73	1
124	124	2
80	86	1
110	114	1
11	12	1
27	28	2
14	72	1
93	94	1
