7	8	2
38	38	9
154	154	17
102	152	4
187	188	6
161	162	3
186	186	6
68	68	8
142	142	11
119	120	8
32	32	14
153	153	7
131	131	7
184	184	9
152	152	8
1	1	9
183	183	12
120	120	13
8	8	12
24	24	16
43	48	2
26	26	9
165	165	17
58	58	6
109	110	2
91	92	6
176	176	10
48	48	10
27	27	5
139	140	2
13	13	10
164	164	5
28	28	4
99	100	2
19	19	15
17	17	4
20	21	10
174	179	2
100	101	1
88	88	9
62	62	10
5	5	4
0	0	7
54	152	3
111	111	8
145	146	3
41	125	6
56	57	5
103	108	2
107	107	6
177	177	4
107	190	1
21	24	5
77	77	8
78	78	14
117	117	4
124	125	5
97	97	13
127	127	11
91	100	4
34	34	4
12	76	10
162	162	4
79	93	1
180	180	9
144	147	1
110	110	15
122	123	4
61	61	10
45	45	1
81	81	3
151	151	8
16	17	4
170	170	10
31	31	8
44	44	3
189	189	5
94	94	10
161	161	3
60	61	1
65	68	3
112	112	10
29	35	3
146	148	2
136	136	9
109	109	8
128	129	6
84	84	8
70	70	6
14	21	1
85	85	5
12	13	4
141	141	15
114	114	4
90	95	2
144	144	8
157	157	4
123	123	7
140	140	8
168	168	8
179	179	9
15	15	11
63	63	17
171	172	1
148	148	15
102	102	8
52	52	6
145	145	1
87	87	18
26	27	9
108	110	2
98	98	3
58	59	3
160	160	6
11	71	1
7	7	7
74	74	7
90	90	4
30	165	1
9	9	3
188	188	11
2	2	1
65	66	5
22	22	13
174	174	10
99	99	7
105	164	4
16	76	4
91	109	2
54	54	5
139	139	6
185	185	16
158	159	2
39	40	4
173	173	10
42	42	11
155	156	2
178	178	8
172	172	12
122	122	7
18	20	2
74	79	2
110	157	2
23	24	2
35	35	3
56	60	5
150	150	15
120	153	4
106	106	11
81	91	2
155	155	8
156	156	2
71	71	14
40	40	4
84	85	5
129	139	1
47	78	6
21	21	12
59	60	4
181	181	15
73	74	1
124	124	7
56	56	8
1	150	4
18	18	2
89	89	4
135	135	6
92	92	8
22	75	3
159	160	3
20	20	11
98	99	3
60	60	4
104	107	1
46	78	2
187	187	7
80	81	3
96	96	7
66	67	5
19	80	1
119	119	5
67	87	1
108	108	10
53	53	5
143	184	3
37	155	2
101	101	11
110	111	3
98	100	2
54	94	2
163	163	1
92	94	3
93	93	2
182	183	3
21	22	1
116	117	3
113	129	1
118	118	5
158	158	4
68	80	2
118	119	2
106	181	2
73	80	1
111	112	7
169	169	7
127	129	5
67	67	8
23	23	3
163	164	5
37	37	4
181	189	1
36	156	2
177	178	3
47	47	5
159	163	2
92	93	2
46	47	1
4	159	3
14	15	2
116	116	6
186	188	3
12	74	1
57	57	7
10	12	2
175	175	13
40	152	2
105	106	1
111	163	1
66	66	4
72	72	4
43	43	5
103	104	1
182	182	6
125	125	4
10	11	2
138	138	4
134	139	2
149	149	6
25	25	5
95	96	3
153	154	3
41	41	8
83	83	9
75	75	3
111	114	1
33	33	6
3	89	1
182	186	2
88	165	2
11	12	3
8	48	2
8	10	1
172	173	4
88	90	1
100	103	2
141	142	2
77	97	4
59	59	7
83	85	3
13	17	1
172	174	3
72	136	3
164	165	4
112	125	2
0	150	2
79	79	3
54	91	3
101	108	4
37	39	1
146	147	3
22	44	3
12	75	2
12	12	7
77	78	2
75	94	3
44	45	8
2	3	3
32	33	4
106	107	2
56	83	1
8	47	5
68	139	2
10	10	4
91	96	1
166	166	6
89	90	8
37	38	1
65	65	3
80	82	2
87	170	1
14	14	3
100	100	5
41	91	3
128	128	10
11	11	3
112	126	3
18	71	1
148	153	2
60	63	1
39	39	7
86	86	9
136	137	2
135	136	1
56	84	1
32	160	1
130	132	4
20	71	2
74	136	1
75	76	5
47	76	2
149	150	5
151	165	1
6	7	1
129	129	9
27	28	3
174	176	3
71	83	1
12	21	3
13	14	1
91	91	4
137	137	2
154	155	4
146	146	7
176	177	5
132	133	2
80	80	4
111	123	1
95	95	4
53	54	1
159	159	3
158	160	4
68	134	2
31	35	1
83	84	1
91	94	2
174	178	1
173	178	3
104	109	1
15	24	1
81	82	3
111	113	1
159	177	2
22	45	4
103	103	7
133	133	2
104	104	3
55	55	3
5	6	1
179	180	5
13	15	1
6	6	6
180	181	3
41	53	2
171	171	5
44	70	2
161	177	2
188	190	3
82	86	2
40	54	1
169	170	4
148	150	2
48	98	2
113	126	1
113	113	4
130	130	4
67	179	2
178	180	3
35	37	2
1	2	2
159	165	3
110	120	3
78	98	2
104	108	2
69	69	3
152	153	1
166	180	2
24	33	1
9	73	1
190	190	2
126	126	4
166	167	1
25	26	4
175	176	3
103	153	2
81	83	1
138	140	2
16	16	3
3	3	2
58	86	1
82	82	1
165	167	2
113	159	2
19	20	3
4	7	1
62	139	2
95	154	1
110	163	2
18	21	1
117	118	1
112	127	1
187	189	1
168	169	1
53	56	2
123	124	2
48	49	1
98	124	2
63	101	1
105	105	1
101	102	3
5	7	2
103	106	1
76	77	1
185	186	1
54	55	2
152	154	1
48	129	2
45	46	1
46	46	2
75	106	1
36	160	1
108	109	1
147	147	1
121	121	2
150	151	1
142	184	1
124	126	2
58	71	1
121	154	1
41	54	1
140	141	1
75	93	1
4	4	1
131	133	1
186	187	1
169	171	1
73	108	1
120	122	1
117	120	1
129	130	1
112	115	1
142	144	1
34	164	1
22	48	1
29	29	2
102	103	1
89	165	1
126	129	1
126	127	1
