98	99	4
97	98	7
108	128	3
16	16	6
35	35	6
73	73	2
108	109	2
78	105	5
124	124	3
81	81	8
110	114	7
85	101	3
114	115	2
36	36	7
85	97	1
11	11	4
135	135	4
2	3	2
30	32	3
79	89	2
130	130	3
107	107	1
119	120	2
9	12	4
111	111	7
118	119	5
5	6	2
126	127	2
7	7	7
88	92	1
75	75	6
112	112	9
87	101	3
95	95	4
74	74	1
115	115	3
134	134	4
127	127	9
71	71	1
68	83	5
98	98	6
82	92	4
7	8	5
101	101	3
15	15	4
128	129	3
28	28	6
118	118	6
120	120	5
88	91	3
2	2	12
23	23	4
78	111	1
3	4	1
6	6	2
107	108	5
82	117	1
102	104	3
109	109	8
9	9	8
18	26	2
26	26	4
83	86	8
78	78	9
116	116	3
107	110	4
90	91	3
84	85	2
19	22	1
118	120	3
13	14	2
79	80	1
111	112	2
79	79	5
96	96	7
108	108	8
140	140	2
103	104	2
99	113	2
85	93	4
44	76	3
0	0	1
4	4	3
102	103	3
23	28	2
6	7	5
72	72	6
19	19	8
76	89	1
76	76	4
99	100	2
77	78	1
117	122	3
123	134	1
5	5	2
99	99	2
122	122	2
121	121	3
2	13	1
127	129	3
18	27	1
21	21	1
93	94	1
87	87	3
134	135	7
82	93	7
85	85	3
14	15	2
13	13	3
110	110	2
3	3	1
90	90	5
87	93	1
84	103	1
102	102	1
77	89	1
37	38	1
34	34	6
4	33	2
81	90	2
131	131	3
9	13	1
76	77	1
29	29	6
91	92	6
4	130	1
20	20	2
133	133	3
129	129	3
11	39	2
30	30	3
22	26	1
104	106	3
106	106	2
86	114	2
85	94	2
72	73	1
9	10	2
31	31	3
122	134	2
77	80	1
79	108	2
132	132	2
132	133	1
35	37	1
1	1	2
123	123	1
77	91	2
125	125	4
129	130	1
136	140	2
29	32	2
126	126	1
80	117	2
83	83	3
123	135	1
136	136	1
139	139	1
37	37	1
25	25	3
94	110	1
77	77	1
15	20	1
6	11	2
10	10	2
128	128	2
86	87	1
33	33	2
15	17	2
135	136	1
137	140	1
18	30	1
15	19	1
6	13	1
93	96	1
84	114	1
121	135	1
121	122	1
110	111	1
0	1	2
119	119	2
92	111	2
91	91	1
31	32	1
81	84	1
13	15	2
27	32	1
81	117	1
92	93	1
97	97	1
83	102	1
16	132	1
80	81	2
98	101	1
92	114	1
1	72	2
22	23	1
8	8	1
74	75	1
78	88	1
82	82	1
