158	189	1
2	7	4
10	11	7
146	146	8
97	107	2
109	122	3
177	179	2
109	164	2
157	157	6
183	183	6
23	23	11
173	173	17
19	30	2
60	73	1
175	175	4
27	156	3
39	45	4
180	180	6
74	101	5
3	26	1
2	2	3
195	196	4
176	179	1
59	59	14
52	52	3
150	162	2
169	169	9
67	67	11
57	57	2
172	191	2
116	117	8
135	135	5
47	47	8
141	142	3
40	41	4
152	168	2
79	80	1
106	106	14
15	15	5
154	193	1
111	111	12
167	167	4
77	77	9
123	123	7
149	150	2
115	115	18
102	102	5
39	79	2
42	43	5
132	133	1
60	61	4
146	148	6
170	170	6
196	196	4
111	123	5
69	100	2
55	58	3
160	162	1
178	178	9
178	179	6
80	81	4
141	141	17
40	88	3
137	183	5
42	124	1
120	120	5
89	89	13
73	74	6
159	159	11
81	82	2
188	188	9
165	165	3
105	153	3
0	3	2
10	10	8
64	64	13
72	73	5
24	32	2
111	128	3
68	68	14
104	104	4
155	156	4
146	147	5
152	153	3
78	78	6
41	41	2
181	181	10
54	55	3
78	79	4
157	158	2
58	58	8
120	135	2
36	38	5
190	192	12
55	55	10
107	107	8
182	187	14
148	149	2
108	122	3
53	124	2
29	156	2
20	21	7
154	154	15
54	56	2
144	144	2
156	156	11
139	145	4
108	110	4
11	13	1
13	14	2
55	63	7
112	120	2
14	14	5
37	112	3
96	144	6
30	30	6
49	49	10
60	60	9
79	79	7
14	15	6
4	4	7
72	72	11
113	115	1
32	32	16
113	113	6
81	83	2
69	145	1
111	112	6
41	42	2
133	138	5
105	105	9
12	45	3
155	155	9
15	184	1
8	23	1
163	163	6
125	127	6
97	98	2
64	140	2
26	27	2
194	195	2
63	63	5
43	53	2
8	19	2
123	128	1
79	87	2
117	118	5
150	151	1
33	79	3
29	29	2
137	137	11
94	94	7
185	185	4
162	179	3
5	7	4
168	168	7
45	45	17
186	187	5
65	65	6
61	62	4
134	134	8
182	182	8
194	194	12
126	126	7
97	99	6
121	134	3
128	128	14
94	96	2
136	136	4
186	188	4
2	23	1
172	172	9
62	63	3
49	50	4
48	48	8
109	109	7
149	149	9
170	171	5
189	189	15
60	66	6
145	145	9
6	29	4
3	4	3
87	87	10
99	99	9
113	120	2
50	50	4
133	133	7
42	42	8
174	175	2
94	134	3
176	176	9
58	99	3
192	193	1
125	126	7
143	143	9
38	41	3
55	76	2
142	186	4
166	166	4
36	37	1
130	148	3
72	101	3
59	143	2
36	41	4
6	6	5
3	27	6
166	167	4
46	58	2
116	120	6
1	16	2
2	132	6
175	179	1
185	186	1
100	103	9
37	37	7
10	19	1
22	26	4
94	165	2
24	24	11
69	69	6
118	154	4
26	26	4
79	107	2
63	65	5
192	192	7
118	118	5
0	1	1
119	154	6
139	140	7
7	7	2
164	165	1
108	114	1
123	124	1
184	184	3
98	105	2
21	21	5
4	28	2
54	58	4
149	168	5
114	114	6
115	120	1
182	189	1
23	24	1
75	75	1
190	191	3
37	46	2
1	1	2
44	44	9
78	89	2
35	39	1
83	83	5
54	140	3
137	168	2
139	150	1
73	73	13
177	177	2
158	158	6
112	129	4
78	80	5
130	130	10
59	126	5
35	56	6
123	127	4
119	119	10
103	103	3
134	135	4
152	179	4
71	71	4
17	17	9
30	45	1
108	109	2
165	180	1
117	117	5
51	51	7
36	39	1
19	31	2
162	162	5
40	40	4
78	130	2
62	66	4
197	197	3
3	3	7
68	151	5
179	179	5
126	195	3
61	61	2
36	36	6
37	56	3
7	8	4
180	182	3
85	85	4
81	81	5
132	139	3
16	16	4
43	46	3
132	132	4
35	35	4
84	84	1
119	120	3
43	78	1
100	100	3
24	25	5
148	148	2
1	187	1
168	174	3
62	65	3
195	195	3
116	147	5
35	36	4
1	186	3
9	10	1
186	186	2
40	75	2
175	176	4
28	29	2
162	164	4
43	43	2
2	134	1
145	188	2
151	153	6
127	127	3
11	159	4
169	182	1
122	128	2
124	125	3
142	143	4
4	25	2
174	174	5
0	0	7
121	122	2
23	186	3
121	196	1
5	5	5
124	124	2
25	25	5
58	59	5
25	185	1
54	54	2
56	56	11
70	70	3
139	151	6
144	145	6
44	45	2
2	29	1
20	87	2
160	190	1
94	166	6
53	57	1
0	6	2
75	112	1
8	45	1
183	189	2
22	22	4
136	146	4
133	135	1
34	34	8
124	126	1
183	184	4
4	8	3
157	189	6
40	112	4
153	153	1
86	86	4
65	66	3
67	139	3
100	142	2
57	62	1
89	132	2
156	157	1
137	151	2
163	164	3
11	195	1
123	126	3
132	135	1
20	20	7
74	74	4
116	116	2
168	173	4
159	161	4
161	163	1
152	152	3
53	54	2
187	188	2
142	142	4
128	129	2
68	131	5
82	83	6
88	106	2
115	116	1
27	27	2
149	185	5
161	161	3
181	190	3
108	112	4
140	141	3
0	28	1
31	45	4
20	85	2
173	174	3
2	22	1
34	41	3
98	98	2
171	171	6
151	182	3
76	142	2
34	36	1
67	68	6
122	122	4
34	80	2
183	188	1
152	154	1
106	110	2
95	96	3
5	8	1
53	68	1
46	46	3
9	9	5
191	192	6
47	49	2
39	39	3
39	40	3
62	62	3
12	12	4
13	13	4
16	17	1
181	182	4
101	101	1
38	38	3
74	75	4
109	121	2
50	51	3
131	131	4
131	161	4
105	109	3
86	87	4
63	139	3
76	76	3
12	15	2
88	90	3
83	84	2
45	46	3
58	61	1
131	160	3
156	188	1
56	57	2
84	140	2
126	127	2
107	118	2
140	186	2
109	178	1
74	108	1
108	108	4
151	168	4
150	181	1
129	162	2
11	11	4
136	150	5
24	31	2
160	160	5
28	28	5
47	113	1
107	109	2
141	189	1
114	116	1
27	185	1
95	95	2
94	148	3
71	75	1
130	131	3
59	65	1
108	138	1
50	128	4
153	180	2
162	196	2
5	34	1
93	97	1
17	18	2
47	52	1
54	61	1
175	178	4
23	26	1
83	87	1
30	31	2
164	164	3
67	154	3
114	123	1
47	175	1
109	110	6
25	186	1
159	160	2
159	189	2
173	175	4
157	159	1
96	150	3
7	19	2
190	190	8
65	67	1
171	172	1
34	46	4
32	43	2
66	66	3
68	142	1
118	119	1
3	22	2
31	31	2
110	110	3
138	138	1
88	88	1
50	127	1
191	191	4
18	18	1
68	138	1
96	96	3
9	51	1
55	80	1
90	90	1
106	118	1
15	16	4
176	177	1
150	150	5
73	128	1
16	171	1
149	183	1
18	177	4
36	80	3
12	13	3
65	140	1
193	194	1
7	24	2
80	80	2
47	48	4
34	39	1
5	41	1
8	17	1
9	87	1
27	28	1
55	62	1
162	163	1
111	132	1
47	150	3
94	135	1
151	152	1
193	193	1
188	189	1
31	32	2
107	132	2
36	45	1
38	39	1
87	88	1
3	23	1
48	49	2
138	145	1
6	25	1
53	53	2
133	148	2
96	98	1
141	186	1
178	180	4
158	159	2
19	32	3
34	35	1
160	161	1
40	124	1
111	116	1
105	106	1
64	65	1
3	30	1
7	177	1
185	187	1
71	72	2
33	33	3
17	193	1
40	111	1
8	142	1
113	119	1
43	44	1
141	157	1
114	115	1
37	80	1
11	15	1
109	116	3
161	167	2
52	84	1
127	195	1
47	50	1
7	17	1
39	42	1
4	24	1
169	179	1
19	19	2
8	9	1
53	85	1
75	76	1
181	188	1
133	145	1
21	31	1
35	41	1
64	75	1
187	187	1
56	68	1
46	52	1
182	183	2
40	43	1
140	140	1
11	171	2
117	153	1
169	170	1
143	144	1
50	52	1
36	46	1
23	25	1
138	149	1
128	197	2
25	187	1
21	185	1
78	85	1
138	144	1
126	194	1
24	62	1
32	33	1
111	121	1
37	39	1
5	9	2
41	72	1
77	143	1
147	148	1
151	165	1
