110	110	7
24	27	6
99	111	2
84	84	2
83	83	6
72	75	1
2	2	4
16	16	14
126	126	5
131	131	2
82	84	1
12	12	6
3	93	3
68	68	5
83	84	3
35	37	1
17	17	1
45	45	5
70	71	6
27	27	5
19	19	2
8	8	6
94	94	11
31	31	6
36	38	1
4	4	6
59	59	7
72	73	4
6	6	3
123	124	2
82	83	2
30	30	3
102	102	1
127	127	2
75	126	2
1	2	5
109	109	1
103	103	7
76	129	3
96	96	2
65	67	2
56	78	1
20	44	5
24	24	3
85	122	2
107	107	1
36	36	2
20	20	4
43	43	5
26	27	3
93	93	3
76	76	2
101	101	2
118	118	4
5	5	3
22	24	1
13	13	5
14	14	6
46	77	3
46	46	7
117	117	1
113	125	1
130	130	4
33	34	1
128	128	6
9	46	5
33	33	4
46	116	3
76	77	2
63	69	1
63	63	2
134	134	4
36	37	3
35	35	6
55	55	1
117	125	5
42	80	3
121	121	4
12	45	2
113	116	3
119	123	2
40	40	1
18	18	2
70	125	2
71	71	2
10	11	3
15	15	6
78	78	4
77	77	1
58	58	3
104	107	4
115	116	5
74	125	1
7	10	1
60	60	1
75	75	7
88	113	1
11	13	1
82	88	3
103	104	2
56	56	4
97	98	1
3	94	2
57	82	1
81	81	2
65	65	5
34	34	1
86	129	1
11	11	5
32	32	3
92	93	2
129	129	1
115	115	3
65	66	1
85	85	4
125	126	2
122	122	1
90	90	3
4	6	1
19	37	2
125	129	2
95	95	3
21	41	2
101	118	2
10	10	2
112	112	1
116	116	4
29	30	2
133	134	1
108	108	3
78	116	1
5	6	1
23	24	1
100	121	2
25	25	2
123	123	1
97	97	2
41	41	1
7	20	2
100	108	2
44	45	1
86	87	3
113	113	3
92	94	2
87	88	1
86	86	2
72	72	5
73	74	3
29	32	1
87	113	2
2	8	1
99	99	1
74	134	2
100	120	1
119	119	2
18	19	2
43	79	1
12	46	2
29	29	1
111	111	3
57	98	2
60	115	1
48	48	1
67	67	1
13	14	1
3	3	1
10	18	1
60	111	1
71	77	2
118	119	3
42	42	1
59	60	1
112	124	2
87	87	3
22	23	1
92	92	1
111	117	1
15	16	2
132	132	1
126	133	1
111	116	1
23	23	1
21	37	1
57	57	1
