118	122	7
75	79	1
32	100	4
75	75	5
81	83	1
10	21	5
118	120	1
89	90	6
121	121	10
126	126	6
12	12	1
7	7	5
90	90	7
84	84	2
22	26	5
23	23	10
1	2	3
111	118	1
22	24	3
13	15	5
125	126	7
86	86	11
129	133	2
13	13	6
8	22	2
96	96	9
87	87	4
36	36	2
78	78	2
107	108	4
94	95	2
72	72	9
118	119	7
106	106	3
102	102	11
5	5	4
71	73	4
92	92	3
10	17	4
137	138	2
33	33	5
83	85	3
27	102	1
117	117	9
98	98	6
114	114	5
11	11	1
29	29	7
137	137	4
26	26	1
111	112	2
128	128	5
84	90	5
12	21	4
124	129	2
81	81	5
124	124	3
127	127	2
82	82	3
130	130	3
132	133	4
9	9	9
9	25	6
107	112	6
99	99	2
10	13	1
131	131	3
9	24	4
129	129	8
6	7	3
110	111	3
79	79	4
84	101	3
1	1	2
74	74	1
111	111	4
120	120	4
91	91	1
134	134	3
88	88	3
77	78	1
122	132	3
15	15	1
71	72	1
28	28	8
66	80	1
17	17	4
23	25	2
85	99	2
12	14	2
14	14	2
27	103	4
5	8	3
30	30	3
19	19	6
76	76	2
109	109	3
89	89	3
35	35	5
11	12	1
16	19	2
20	22	1
10	68	2
3	18	1
100	100	2
16	16	9
76	106	1
135	135	5
126	127	1
21	21	3
87	88	2
28	84	1
72	75	2
112	112	7
24	27	2
6	6	4
93	93	4
18	18	2
10	11	3
118	118	3
117	119	3
110	110	2
76	79	2
90	105	1
102	104	3
69	105	2
108	109	1
19	21	1
23	44	1
136	136	3
80	104	3
123	123	3
132	132	2
82	84	1
113	113	1
119	122	1
97	114	1
97	97	2
6	9	2
90	97	1
105	105	3
108	108	1
28	29	1
2	2	1
97	99	2
103	113	1
34	102	4
0	2	1
96	98	2
77	77	1
3	4	2
116	116	3
89	92	1
107	113	3
115	115	2
94	94	1
133	133	2
4	130	2
22	22	1
31	32	2
20	21	3
34	34	2
16	136	1
12	15	1
20	20	1
2	11	1
104	104	1
29	38	2
16	17	1
19	20	1
71	71	1
24	24	1
27	27	1
3	3	3
29	92	1
97	116	1
106	112	1
