119	119	5
17	17	2
8	9	1
31	31	4
104	114	2
39	39	4
16	16	2
58	59	3
112	112	3
42	55	4
47	47	1
69	69	3
19	19	5
23	24	1
3	3	1
55	56	3
92	92	4
46	46	5
91	92	2
58	58	7
24	25	8
72	72	4
42	42	10
44	44	4
2	2	4
111	124	1
63	64	2
15	57	1
44	48	1
25	25	4
19	20	1
57	57	2
111	111	9
41	41	5
124	127	7
90	92	1
35	36	4
38	38	5
95	95	5
99	99	2
126	126	3
5	41	1
46	96	1
25	26	2
82	82	1
79	80	3
79	86	1
29	29	3
23	23	6
23	26	2
27	27	2
56	56	3
134	134	3
87	88	2
43	43	4
98	98	4
61	62	5
74	78	1
132	132	1
13	14	2
14	39	1
124	125	3
102	103	5
44	45	2
51	54	1
110	110	4
45	45	3
94	94	7
35	35	5
116	116	3
107	120	2
4	4	3
81	82	4
94	97	5
60	61	3
120	121	2
3	83	4
66	67	4
104	106	3
127	128	1
120	120	2
61	72	2
101	102	3
80	81	4
8	8	2
58	76	3
90	91	3
81	81	3
27	28	2
89	90	2
79	87	1
125	125	3
59	84	3
49	49	1
126	127	5
130	132	1
28	28	2
68	69	2
87	87	1
131	131	2
76	76	2
8	34	1
9	9	1
79	79	3
60	60	3
15	15	2
37	37	1
12	13	4
15	29	1
100	100	1
65	65	3
13	48	1
62	71	1
111	127	2
15	16	1
102	102	3
18	19	1
5	5	1
7	7	5
14	42	1
93	93	1
117	124	1
61	73	2
55	55	2
15	38	1
33	35	3
13	13	3
44	98	2
17	32	1
18	18	1
116	128	1
122	123	1
62	62	2
93	94	1
124	124	1
112	120	3
34	34	2
20	28	2
116	125	1
103	103	2
77	93	1
80	80	1
90	90	3
39	40	1
90	110	2
71	72	1
108	108	2
78	78	1
6	81	1
40	40	2
115	128	1
102	106	1
6	7	3
2	81	1
50	50	1
129	129	1
117	123	1
20	24	2
96	96	1
90	93	1
74	77	2
62	72	2
22	22	1
77	77	1
75	75	1
45	97	1
84	84	1
59	59	1
128	128	1
121	133	1
14	14	1
106	107	1
21	21	1
118	121	1
118	118	2
59	85	1
95	98	1
26	30	1
114	115	1
74	74	1
2	3	1
83	84	1
7	8	1
1	1	1
9	10	1
95	96	1
