34	34	6
69	69	8
101	101	5
21	21	13
38	38	6
73	73	12
55	56	5
40	40	5
140	140	9
17	17	4
29	29	5
107	107	4
24	31	1
87	88	6
38	42	3
137	137	8
8	8	5
144	145	7
66	66	9
135	137	2
38	40	1
36	37	5
122	122	6
42	42	14
61	61	1
9	12	2
50	50	12
44	44	9
39	40	7
32	32	3
143	148	6
87	87	18
3	3	3
33	65	3
82	82	12
104	104	6
138	138	11
114	114	11
130	131	2
100	100	9
135	135	10
151	151	4
14	15	2
81	81	9
126	127	2
94	94	9
141	142	5
95	96	2
132	133	5
10	24	2
98	159	2
25	25	11
141	143	3
62	64	1
129	129	8
134	134	9
130	130	6
134	137	2
10	16	4
22	23	5
86	86	7
33	50	1
17	32	3
147	147	7
43	44	5
103	103	6
83	114	1
54	55	3
110	141	2
81	130	3
105	116	1
72	107	2
21	22	6
43	48	3
35	37	8
80	80	8
106	106	7
146	146	5
128	130	3
97	97	3
7	7	3
96	97	5
109	109	6
49	50	2
14	17	1
62	70	2
105	106	6
0	52	2
46	47	4
127	127	5
28	28	8
4	49	1
85	85	9
31	32	4
126	126	6
117	118	5
128	128	14
99	101	1
91	91	3
11	11	1
99	99	9
69	139	3
56	68	2
35	35	4
48	53	1
94	148	5
153	153	5
78	78	2
8	33	2
131	141	3
76	77	4
105	105	4
108	108	20
139	139	2
118	118	3
122	123	4
47	81	2
141	150	2
18	18	7
51	52	5
23	24	2
95	95	4
84	85	3
154	155	4
120	121	2
114	115	3
26	26	9
18	51	2
54	54	6
52	52	8
19	55	1
33	33	2
5	5	6
56	69	1
39	41	4
39	39	10
90	90	4
48	48	7
123	124	2
70	100	1
69	75	4
49	49	9
150	150	4
14	14	9
124	129	3
2	2	3
1	1	7
17	19	6
23	23	9
122	157	1
93	93	6
38	65	1
2	3	4
144	144	3
9	9	6
10	41	1
113	113	5
75	75	2
72	72	7
114	136	2
149	153	3
70	70	1
146	154	6
83	84	4
27	30	3
9	10	6
79	79	6
0	1	1
31	31	3
55	55	2
45	49	2
71	71	3
18	55	5
100	101	1
51	51	3
120	120	3
22	22	6
137	138	2
141	141	10
119	119	2
19	19	10
88	90	1
66	67	1
36	36	4
144	157	1
46	54	3
65	65	3
45	46	6
127	140	3
135	136	2
27	27	5
14	34	1
70	71	4
30	30	3
75	78	1
82	83	1
6	6	11
131	132	3
158	158	4
77	114	1
70	125	2
77	77	2
88	88	5
15	50	1
107	111	3
111	111	2
26	27	1
67	88	1
15	15	3
154	154	4
53	54	3
80	157	1
148	148	3
43	43	5
20	21	1
133	133	3
152	152	7
72	73	2
149	149	3
4	4	4
63	82	1
77	78	2
138	139	2
11	12	3
17	55	2
71	77	3
124	124	1
8	10	2
131	133	3
155	155	4
116	116	6
132	132	4
150	152	1
147	154	3
96	96	3
7	8	2
32	40	1
82	120	2
80	137	3
114	123	1
7	24	3
125	125	7
28	29	1
68	68	7
110	111	4
92	92	5
49	52	1
112	112	1
53	53	5
150	155	5
143	145	4
47	47	5
0	49	3
115	116	1
142	154	3
152	157	2
87	114	2
14	52	1
131	131	2
108	149	4
156	156	4
85	86	1
20	32	1
115	115	3
47	48	1
20	20	1
108	110	1
4	8	2
89	89	2
94	147	4
38	39	2
83	85	1
94	95	2
110	110	2
20	23	1
45	45	1
134	140	1
154	156	1
139	140	1
92	93	3
63	63	1
42	52	2
24	24	2
36	43	2
88	89	1
41	43	1
99	148	2
68	97	1
5	6	1
109	148	1
153	154	1
118	131	1
62	63	2
151	152	1
109	110	1
149	154	1
119	123	2
142	143	1
50	51	1
66	68	2
145	145	1
27	28	1
133	138	2
121	121	6
56	62	1
119	120	3
120	132	1
145	146	1
148	149	1
66	129	2
123	123	1
117	117	1
27	29	1
116	137	2
149	150	1
91	92	1
113	122	1
41	45	1
98	142	1
157	157	1
103	105	1
23	25	2
19	20	1
41	41	2
69	70	1
98	98	1
127	130	1
64	64	1
37	37	2
16	16	1
71	72	1
125	126	1
108	109	2
151	154	1
65	66	1
67	67	1
48	52	1
111	112	1
121	124	1
105	115	2
131	138	1
1	2	1
13	14	1
87	89	1
116	117	1
30	32	1
0	40	2
