80	119	4
215	215	9
73	73	4
151	151	1
95	145	4
153	165	7
82	82	2
55	55	6
65	71	2
196	240	2
227	227	2
187	195	6
178	178	3
96	96	5
66	66	1
244	245	1
22	22	2
57	57	6
217	238	1
104	105	1
25	25	5
41	73	1
79	79	3
204	205	1
6	56	1
5	5	4
49	49	12
40	41	2
6	7	4
68	68	8
66	68	3
193	198	3
232	232	2
111	111	7
205	212	3
60	64	3
106	116	1
26	26	7
246	246	4
168	169	2
172	172	4
167	167	12
190	190	4
194	194	7
155	190	5
4	55	3
223	223	7
10	11	5
54	54	6
119	119	3
216	243	5
215	241	1
59	60	8
67	67	9
213	213	2
63	63	4
203	203	4
204	204	4
56	56	11
43	51	3
60	60	7
44	202	2
74	74	3
106	117	2
184	185	3
243	248	4
196	213	1
97	119	2
100	100	5
43	80	3
3	6	2
169	169	1
65	65	6
79	80	4
43	43	4
153	158	5
202	202	10
53	53	8
235	235	5
232	233	1
74	77	1
243	244	5
71	71	8
144	145	2
161	161	2
107	173	2
40	40	8
57	58	1
208	208	2
46	46	6
116	116	7
185	199	2
237	247	1
98	98	4
44	44	10
151	155	1
56	57	3
168	168	3
244	244	7
58	58	4
214	214	2
21	21	7
115	118	1
16	94	2
217	217	14
118	119	4
179	179	2
50	50	5
208	218	2
69	71	2
47	92	1
82	87	3
17	18	6
105	106	1
7	7	3
152	224	3
189	189	5
175	175	9
241	241	4
35	35	1
174	174	7
34	58	2
166	166	3
170	177	2
1	1	7
177	178	2
66	67	4
145	145	2
50	56	2
158	159	1
182	182	3
196	196	3
211	216	1
90	91	2
6	6	5
12	12	1
112	112	3
218	219	3
226	226	2
100	101	4
213	214	4
173	186	1
95	95	2
191	191	2
42	69	2
91	91	6
29	30	3
166	197	3
195	195	4
229	242	1
176	176	2
165	193	4
11	13	1
38	38	3
248	248	3
8	14	2
100	102	3
32	32	3
37	56	2
157	165	1
86	87	7
178	180	3
48	49	1
66	70	6
85	85	2
104	104	2
18	18	5
209	209	1
90	92	4
37	37	1
21	23	2
211	217	2
33	33	4
189	194	4
155	155	5
222	227	1
205	234	1
159	159	7
94	94	2
110	110	2
36	36	3
242	242	2
3	7	3
204	234	1
20	54	3
180	180	2
149	149	2
14	14	5
37	38	2
220	241	2
117	117	5
154	154	7
21	45	2
53	54	2
64	64	4
67	76	3
93	101	1
5	199	2
29	29	10
200	200	4
78	78	2
191	194	3
222	223	2
31	31	7
99	99	3
92	93	3
197	197	2
16	16	1
100	183	1
93	93	1
207	207	5
239	239	2
97	98	2
164	190	3
115	115	6
84	84	4
27	27	2
185	185	2
102	116	1
225	244	5
120	120	2
171	171	14
167	224	3
219	219	3
237	238	1
70	71	2
11	24	5
84	85	4
88	88	2
20	34	4
23	23	5
42	68	3
105	105	5
218	218	2
207	233	2
99	100	2
247	248	3
9	9	5
3	3	5
229	229	2
49	77	2
214	246	2
154	165	1
204	225	1
36	103	4
85	87	1
247	247	4
47	49	2
26	28	1
179	200	4
211	214	2
176	186	1
98	117	2
16	32	2
201	201	1
171	174	2
90	90	4
108	212	1
178	201	2
225	246	1
180	195	1
108	108	5
224	245	4
20	20	2
73	74	1
183	183	1
114	115	2
150	227	1
58	63	3
101	101	6
76	76	2
155	156	1
59	59	3
69	70	6
114	114	3
5	56	3
1	39	2
79	92	2
65	66	1
86	110	2
220	220	3
173	174	4
199	199	1
238	238	6
208	209	2
226	227	6
163	188	3
188	234	2
231	237	2
24	24	3
153	153	5
19	19	5
98	99	1
113	113	1
164	189	1
121	145	1
48	57	3
109	109	4
175	181	2
223	236	3
232	234	1
42	45	1
31	32	2
69	69	1
228	240	1
17	17	3
208	223	1
49	50	3
87	88	4
41	83	4
175	184	2
17	62	2
202	206	4
83	83	3
67	68	1
214	241	3
174	198	1
187	187	5
97	118	3
17	19	1
186	205	3
85	86	1
42	48	2
80	80	2
82	83	3
239	240	2
223	245	1
169	170	1
8	8	2
205	205	2
186	195	3
95	97	5
212	212	2
182	183	2
61	62	3
198	223	1
200	211	2
54	55	1
159	162	1
221	221	1
11	11	1
49	58	2
225	247	1
234	234	4
154	157	1
14	203	1
156	171	1
201	208	1
77	77	3
161	207	1
51	92	1
165	171	1
106	106	2
162	165	1
80	82	1
14	22	3
72	73	2
81	81	4
15	62	1
87	111	2
192	196	3
152	191	1
89	89	3
45	46	1
50	72	1
103	223	2
210	211	3
158	187	2
240	240	1
176	189	1
104	115	2
161	227	1
15	201	1
36	52	2
206	206	1
237	248	1
222	230	1
237	237	1
175	182	1
65	67	1
166	171	2
229	247	2
44	45	2
3	28	1
8	10	1
48	64	1
72	72	1
42	90	1
238	239	1
224	224	1
203	204	1
194	220	1
191	192	1
16	67	1
158	163	1
118	118	1
160	160	1
62	184	1
4	34	1
39	40	1
233	233	1
32	38	2
106	112	4
221	222	2
46	90	4
64	66	2
156	156	1
20	23	1
84	182	3
158	158	1
117	212	2
187	188	1
201	206	1
92	100	2
97	97	1
192	192	2
242	243	1
52	53	2
37	39	2
212	216	2
105	116	1
225	225	1
181	195	1
72	75	1
157	164	1
86	86	2
203	243	1
34	98	2
51	93	1
177	177	3
160	161	1
22	23	1
161	208	2
54	68	1
81	86	1
211	211	1
15	15	1
11	12	1
29	32	1
18	19	1
186	186	2
87	87	1
193	220	2
232	246	1
75	75	1
227	228	1
26	27	1
3	54	1
217	227	2
223	224	1
70	70	1
5	58	2
232	237	1
115	116	1
55	57	2
152	152	1
150	150	1
227	239	1
47	74	1
165	165	1
156	212	1
105	108	1
228	228	1
216	217	1
99	104	1
46	47	1
52	52	1
222	222	1
51	74	1
161	181	1
