178	179	3
95	126	1
109	109	8
101	110	2
108	108	7
88	92	3
22	23	2
35	35	10
111	111	4
151	151	4
3	4	2
13	13	12
75	75	7
14	36	6
162	164	1
92	119	3
102	102	10
57	58	2
34	34	2
81	81	3
1	10	2
22	36	4
98	98	1
43	43	3
164	164	7
155	156	8
142	142	11
162	162	11
62	63	5
45	45	12
131	132	2
55	57	1
139	139	12
87	123	2
4	4	12
145	150	8
150	150	6
16	17	5
23	23	6
68	93	3
20	40	6
23	38	6
44	44	16
77	77	5
177	177	7
14	14	7
159	159	7
32	32	5
4	14	1
101	101	4
52	57	2
172	172	11
168	168	5
176	176	15
94	94	6
167	167	3
174	174	3
149	149	6
15	62	3
53	54	3
130	169	3
138	139	6
15	15	4
156	157	3
8	8	8
36	36	7
9	15	1
124	125	3
114	114	2
6	6	6
88	115	5
73	73	6
121	122	4
115	115	5
95	95	7
64	65	4
96	97	3
55	55	3
2	2	7
85	85	6
26	26	4
12	19	2
17	18	6
96	139	2
170	170	3
84	84	5
156	156	7
37	38	3
31	31	11
123	123	3
61	96	4
103	103	5
43	68	3
148	167	4
49	53	1
37	40	4
92	93	1
95	134	4
3	3	1
86	122	3
16	16	6
173	173	2
92	114	2
160	164	7
62	62	4
50	51	3
105	105	8
78	89	3
8	20	3
58	59	5
152	168	3
33	35	4
6	33	4
71	74	6
64	64	9
20	20	3
122	122	3
63	63	10
125	163	3
180	180	2
168	177	1
72	72	4
29	29	4
143	143	8
58	58	18
57	57	8
45	54	2
19	19	8
163	163	4
56	56	6
41	41	6
61	61	3
57	109	3
131	133	2
38	138	2
99	99	3
59	62	6
143	177	2
120	120	8
119	119	6
28	28	9
78	80	4
107	124	2
65	65	6
2	5	5
157	158	3
5	5	17
135	135	2
75	79	1
34	36	5
4	7	2
51	51	5
129	129	3
134	134	1
125	125	4
133	133	5
66	66	8
1	1	1
107	107	6
95	139	1
112	112	4
11	11	10
159	161	1
43	44	3
11	12	3
9	11	2
25	25	5
160	161	7
61	62	1
26	27	7
80	172	1
72	73	2
82	82	10
158	159	5
118	118	5
90	90	2
58	62	1
113	113	7
32	35	1
11	21	1
103	180	3
106	106	5
73	75	6
76	76	3
18	24	4
71	71	5
97	176	3
6	36	5
87	87	3
72	79	2
66	67	2
15	35	5
167	168	3
51	66	2
91	91	8
26	28	5
154	154	3
24	24	4
80	122	1
67	68	1
31	33	1
10	10	3
33	33	5
40	40	4
93	99	1
171	171	6
38	38	4
140	140	3
18	18	4
106	139	1
144	144	9
93	94	1
13	23	5
114	118	4
50	66	1
25	35	1
117	117	3
54	54	5
30	30	2
59	59	3
110	110	2
67	67	2
20	42	4
79	79	5
92	92	8
165	165	3
131	134	1
49	52	1
135	169	2
161	165	1
178	178	2
13	16	2
39	96	4
71	80	3
80	120	3
8	12	2
84	91	3
148	148	2
19	103	4
138	176	5
114	115	5
40	63	4
110	123	3
124	124	4
169	169	2
95	98	1
75	121	2
21	21	2
161	161	6
99	100	2
132	132	2
22	38	2
0	10	1
98	99	2
136	136	2
74	74	3
64	67	2
7	7	3
70	70	5
13	15	4
78	78	3
104	107	2
89	89	5
83	83	2
11	13	1
19	22	2
44	54	2
127	127	6
85	91	2
81	82	4
154	155	1
124	163	2
130	131	2
128	129	2
151	152	1
157	157	1
22	41	3
145	145	2
42	51	2
100	110	5
60	61	1
40	64	1
131	131	4
1	14	5
40	67	2
157	162	2
161	162	2
22	22	2
152	167	4
90	91	3
147	147	1
101	123	1
87	94	3
42	43	1
123	167	5
89	91	2
152	152	3
115	117	7
160	160	1
107	109	6
6	32	1
65	66	2
2	11	1
10	35	1
131	140	1
110	111	1
89	121	1
57	59	3
95	145	3
5	11	1
84	90	1
40	52	1
111	135	1
32	33	5
122	132	1
137	137	2
39	39	1
9	19	2
102	163	1
126	126	4
94	99	1
134	140	1
79	93	2
98	140	2
122	133	1
100	100	2
127	128	1
0	0	6
169	170	2
104	104	5
28	29	2
101	125	1
128	179	1
8	39	2
20	52	1
4	5	1
77	116	1
8	40	2
126	142	1
95	131	1
123	126	2
88	119	2
19	56	1
88	116	1
116	116	1
21	22	1
143	151	1
106	143	1
153	160	2
155	155	1
147	152	1
86	115	1
61	139	1
52	52	3
49	49	1
113	118	3
71	73	1
25	36	1
170	172	1
5	6	1
156	162	3
45	46	1
105	148	1
122	123	2
91	92	1
125	126	1
163	165	1
40	51	1
170	171	1
116	132	2
5	15	1
157	159	1
17	34	2
101	113	1
68	68	1
143	145	1
28	147	3
165	166	2
171	172	1
83	92	2
102	124	4
83	84	1
156	179	2
84	85	2
88	88	1
19	20	1
15	16	1
8	67	1
53	56	1
42	42	1
173	174	1
144	145	1
130	146	1
5	22	1
76	78	1
98	136	2
142	166	1
36	38	1
131	168	1
25	32	1
12	21	1
5	98	2
39	62	1
21	63	1
51	79	1
154	160	1
20	37	1
146	146	1
1	5	1
71	79	1
147	159	1
83	85	1
123	146	1
149	180	1
124	126	1
132	133	1
129	150	1
