86	97	5
53	53	5
56	56	4
25	25	5
144	144	1
17	17	5
108	142	2
94	94	1
157	158	4
85	86	2
170	175	5
75	80	1
19	19	2
12	13	4
100	100	4
172	172	4
130	130	4
75	78	2
88	94	8
140	140	4
97	97	5
110	110	9
114	114	6
76	76	8
123	124	1
119	141	2
41	42	3
79	79	7
175	175	4
110	111	5
141	141	6
83	84	2
153	153	14
18	19	2
135	136	1
118	118	12
79	80	2
160	163	5
27	27	1
104	104	4
186	186	7
79	83	6
189	189	7
17	18	2
149	149	9
22	22	4
64	65	3
31	31	8
56	57	3
121	121	3
122	122	6
46	46	2
150	150	5
57	110	3
182	182	5
84	106	2
119	122	1
119	119	2
72	72	2
106	107	7
133	133	2
120	120	10
43	43	11
36	36	5
86	87	5
54	54	4
189	190	3
146	149	5
93	93	6
113	113	11
145	146	4
13	13	6
48	48	8
178	178	7
38	39	1
18	18	10
28	29	2
170	170	2
118	120	1
137	137	8
86	100	1
109	153	3
61	61	7
30	30	6
132	132	7
25	57	3
78	78	7
15	15	10
75	75	4
190	190	2
6	6	8
138	138	5
157	157	2
16	17	1
94	95	1
0	0	8
39	41	1
10	10	3
14	14	5
90	91	6
8	8	2
99	99	3
81	81	9
185	185	4
62	62	4
101	101	5
84	154	4
126	126	4
90	90	9
130	131	3
129	129	7
11	11	2
37	37	7
115	115	10
151	151	3
86	86	4
63	63	4
128	128	2
168	168	2
188	189	4
80	80	5
116	116	7
138	139	1
84	84	5
155	190	2
112	112	7
165	165	6
7	7	8
127	127	3
154	186	2
156	156	4
137	138	7
184	184	5
24	146	2
74	74	6
167	168	3
26	26	9
102	103	3
31	33	1
125	127	1
123	169	1
76	78	1
181	182	2
139	139	6
14	15	2
142	142	1
87	87	6
158	158	2
105	106	2
177	177	6
16	16	3
105	108	3
85	85	10
82	82	3
20	21	1
155	155	5
181	181	1
24	24	15
174	174	6
108	108	1
89	89	3
167	167	7
10	47	1
41	41	7
32	71	1
135	135	2
107	108	1
134	136	1
123	168	1
106	106	8
96	182	2
33	33	7
180	180	5
56	113	1
126	127	1
119	120	1
123	123	5
146	148	2
130	136	3
2	2	4
12	12	4
183	183	4
154	154	2
41	67	1
5	5	6
152	152	1
95	95	1
187	188	2
34	35	1
96	97	4
83	102	1
37	38	4
64	71	1
176	176	4
67	68	3
96	96	3
121	138	3
32	63	2
62	63	1
115	116	1
40	40	2
140	141	1
55	55	2
44	44	2
12	14	2
109	109	2
70	70	3
164	164	2
57	57	4
22	31	2
143	143	1
187	187	1
187	189	3
14	67	1
147	147	4
28	28	5
151	153	1
98	98	2
124	124	4
182	183	1
105	143	1
125	125	7
33	34	5
169	169	1
29	60	2
9	13	1
111	111	3
17	68	2
88	88	2
47	47	1
45	47	1
166	175	1
118	122	2
158	162	1
162	167	1
3	47	2
83	83	2
148	148	1
65	65	2
158	159	1
188	188	3
170	171	1
114	115	1
77	78	1
20	20	2
84	102	1
62	113	1
38	38	5
106	153	3
26	27	1
4	4	2
75	76	1
26	56	3
173	173	3
159	159	1
36	71	2
161	166	1
67	67	2
40	65	1
146	146	4
6	48	2
84	85	1
134	135	1
29	29	2
126	128	1
91	185	1
156	158	1
105	105	2
179	179	3
62	65	2
171	171	2
44	66	1
188	190	3
176	177	3
92	93	1
134	134	3
166	166	2
23	24	1
136	136	3
55	56	2
121	136	1
145	148	1
136	137	1
161	163	2
53	55	1
35	35	1
42	42	2
127	130	2
34	37	1
95	184	1
52	52	1
32	70	2
66	66	1
103	103	2
133	136	2
126	175	1
169	184	1
162	162	1
77	77	1
164	169	1
97	98	1
107	107	1
39	39	2
164	165	1
119	169	1
25	28	1
146	147	1
3	3	2
23	23	1
125	130	1
132	134	2
92	92	1
101	143	1
89	93	1
123	186	1
131	131	2
45	46	1
25	26	1
114	116	1
30	31	1
76	81	1
62	188	1
141	142	1
170	184	1
20	35	2
26	30	1
54	55	1
7	8	1
109	111	1
127	128	1
44	45	1
151	154	1
21	22	1
72	74	1
43	44	1
