33	33	6
123	123	2
88	89	4
180	180	3
155	155	3
75	75	9
129	129	4
59	60	1
59	59	2
167	169	3
100	100	3
20	21	2
65	65	5
106	106	6
148	150	7
125	175	1
151	176	2
172	172	4
135	173	2
49	49	2
150	151	3
90	90	2
66	89	5
176	176	3
9	9	2
146	146	4
177	177	5
92	92	6
152	153	9
108	108	6
61	62	3
2	4	2
31	31	4
93	93	4
122	122	3
14	15	3
133	133	10
173	174	2
124	131	1
171	171	6
121	121	2
109	109	5
138	141	5
112	112	8
141	166	1
4	4	1
74	75	2
138	138	9
79	80	6
24	24	11
87	87	3
22	22	2
119	119	6
18	35	3
55	55	3
28	29	2
22	23	3
78	78	7
53	53	10
157	158	1
7	8	2
64	93	3
158	158	3
112	113	2
111	114	5
167	168	2
25	25	6
124	125	2
71	87	1
45	82	1
20	20	2
163	164	1
124	124	5
6	6	1
96	96	3
76	86	3
139	139	7
51	67	2
41	41	4
32	32	2
43	43	5
128	129	1
76	76	8
169	171	2
36	36	1
70	70	3
114	117	2
42	42	2
54	54	5
43	74	1
22	36	3
114	114	7
162	162	9
80	80	2
160	160	7
133	136	1
23	36	3
18	36	3
42	76	4
3	4	1
50	67	3
62	62	5
164	165	2
115	115	3
21	21	3
160	162	2
123	125	2
97	97	2
85	111	1
174	175	1
167	170	3
168	168	1
141	141	5
70	71	4
154	154	3
152	154	1
5	5	3
136	136	4
127	127	3
18	19	1
159	159	2
150	150	5
17	17	2
37	37	2
163	163	8
38	38	1
51	61	1
134	151	2
106	107	2
92	93	2
44	44	2
153	153	1
115	117	3
161	162	5
50	51	2
156	157	3
111	111	1
158	159	1
19	19	2
113	113	4
30	30	3
149	149	2
132	132	2
82	82	2
178	178	6
146	167	1
49	67	3
153	154	2
34	36	2
126	159	3
135	136	4
151	151	5
157	157	2
163	168	1
52	52	3
142	143	3
74	74	2
173	176	1
131	131	2
117	117	1
45	45	1
98	98	4
16	16	1
114	122	1
35	35	1
125	125	1
71	71	3
144	144	1
13	13	1
127	158	1
124	126	1
140	140	2
53	54	1
22	24	1
22	127	2
130	131	2
81	81	4
39	39	1
117	118	2
99	99	1
17	19	1
12	13	1
164	164	2
94	101	2
156	177	2
56	56	1
116	116	1
147	150	1
14	14	1
27	28	1
162	164	1
135	135	1
25	40	1
108	110	1
168	169	1
41	42	1
89	89	2
107	107	1
134	159	1
108	113	1
50	60	1
99	101	1
12	12	2
34	34	1
54	55	1
40	78	1
67	67	1
26	26	1
