8	8	7
11	11	6
82	82	5
7	62	1
57	57	5
118	118	2
68	128	3
31	31	4
128	129	1
35	35	4
45	46	2
30	30	12
46	46	7
45	45	12
92	96	3
72	73	2
79	80	3
17	31	1
39	40	4
87	87	9
37	38	4
100	102	3
110	110	6
3	3	3
38	38	7
77	77	7
117	117	4
43	44	7
33	68	1
126	127	2
131	131	9
85	85	2
39	39	10
64	64	9
101	101	5
37	37	3
20	22	1
33	33	5
79	79	5
131	132	1
101	102	4
61	61	8
15	15	9
56	99	3
84	84	7
47	47	10
58	88	1
106	125	5
93	93	2
123	123	1
27	27	5
21	21	5
34	34	9
12	12	8
73	73	18
69	118	2
105	109	2
65	65	7
63	63	6
13	14	3
6	27	6
68	68	12
5	5	1
32	32	10
28	28	4
69	69	4
32	33	3
9	47	2
86	86	6
70	70	6
94	94	11
20	34	1
122	122	3
2	5	2
26	26	5
20	20	7
7	7	3
91	91	3
40	40	4
17	17	3
113	113	15
11	12	4
83	109	2
41	56	2
83	108	1
32	61	3
29	30	1
113	125	2
32	59	2
24	24	4
27	28	6
62	62	6
67	67	5
120	120	10
10	10	4
60	60	6
98	101	2
62	63	2
111	111	8
83	83	1
4	133	3
91	98	4
96	96	11
6	10	3
125	125	7
5	6	6
98	102	1
48	48	3
121	121	3
89	89	3
66	66	13
20	33	2
47	48	5
16	16	13
134	134	7
99	114	3
73	86	2
57	58	4
95	95	12
97	98	4
99	99	5
120	121	2
4	5	2
0	0	2
82	83	1
88	88	1
39	41	1
41	41	2
18	47	3
25	25	7
19	21	5
78	78	8
88	89	1
133	133	6
91	92	4
20	29	1
2	2	5
95	96	2
59	60	6
55	55	7
14	14	5
105	125	2
51	51	1
15	49	3
92	92	4
116	116	7
80	80	1
85	86	4
59	84	3
106	106	8
57	59	2
21	26	3
43	43	2
57	110	3
6	7	1
39	86	2
74	75	1
104	105	3
113	127	1
98	107	3
83	84	1
114	114	3
97	97	3
76	76	2
69	70	3
102	102	3
71	117	1
9	9	3
90	90	1
128	128	3
119	119	4
126	126	5
30	55	2
70	71	1
127	127	3
93	94	3
56	57	4
21	25	1
58	59	4
94	95	2
17	45	5
22	22	7
89	90	1
46	75	1
1	67	1
92	113	3
99	106	2
29	29	4
103	104	4
86	88	3
44	44	1
102	103	2
100	108	3
21	105	2
18	46	3
70	118	2
86	87	1
13	13	4
96	97	5
75	75	4
81	82	3
78	81	1
109	109	2
19	19	6
63	64	2
76	77	2
78	79	3
58	109	2
6	6	6
100	109	1
21	29	1
4	4	2
36	36	5
74	74	4
124	124	2
107	108	3
77	78	2
18	38	3
26	27	2
114	115	1
45	48	1
95	99	1
46	47	1
42	42	3
9	46	1
112	112	2
3	30	1
36	38	1
18	18	2
23	24	1
126	131	1
49	60	1
48	49	2
13	19	3
108	108	1
64	66	4
8	62	2
121	122	1
112	114	5
129	129	2
17	18	2
40	41	2
23	23	1
21	35	1
103	122	1
125	126	1
72	72	5
92	112	1
4	26	5
60	85	2
106	110	3
8	9	2
124	125	3
91	108	1
82	109	1
93	97	1
29	47	1
14	44	1
81	81	3
113	130	2
107	109	3
62	64	1
47	57	1
36	104	1
60	69	1
38	73	1
5	29	1
31	32	3
38	84	1
15	16	1
20	47	1
10	47	1
27	33	1
54	54	1
36	37	2
43	45	1
39	42	1
61	75	2
101	119	2
26	31	1
58	58	2
99	100	1
100	107	3
116	117	2
112	113	1
115	125	1
16	44	1
28	29	1
122	123	1
108	118	2
42	59	1
127	130	1
2	3	1
57	118	1
105	123	1
93	113	1
20	49	1
107	107	1
105	105	1
108	109	3
71	71	1
32	34	1
35	55	1
109	110	1
37	39	1
123	124	1
71	73	2
110	117	1
95	126	1
59	59	3
96	107	1
