16	18	6
201	201	29
74	75	6
80	80	19
148	149	9
99	101	8
219	220	7
44	44	48
115	115	22
3	3	23
9	9	41
220	220	49
65	65	28
101	221	1
97	97	27
206	206	27
63	63	43
76	76	34
49	230	1
193	211	1
217	218	20
20	21	7
209	210	17
75	82	5
66	68	5
8	9	5
188	188	42
169	169	49
64	66	5
172	191	6
51	51	27
24	25	7
145	145	20
79	84	8
53	54	5
0	8	2
13	13	16
0	95	6
14	20	2
58	60	7
128	130	3
102	102	29
238	238	30
31	31	25
212	212	43
168	168	38
174	175	7
23	84	9
4	4	19
191	216	3
5	5	20
136	191	1
85	96	4
19	61	2
136	136	33
191	191	36
201	202	5
49	50	13
26	100	5
149	149	30
175	175	36
193	193	19
183	184	12
16	33	4
61	70	4
235	236	10
46	146	3
12	12	28
166	166	38
121	121	31
41	41	26
30	30	42
128	128	29
148	217	3
173	173	48
48	48	36
123	123	24
17	17	29
71	72	8
231	234	2
103	109	2
86	86	15
59	124	2
218	237	5
131	225	1
116	143	2
190	190	53
204	206	12
156	156	30
171	172	12
89	89	5
74	74	31
115	116	4
167	167	25
55	55	48
17	19	10
113	113	34
213	213	29
122	122	17
37	37	48
158	158	36
163	163	24
53	53	29
71	71	33
135	135	30
14	14	29
103	103	20
139	210	2
159	200	1
179	179	37
204	204	23
202	202	44
101	101	33
45	70	2
54	54	26
21	23	4
127	127	29
143	145	5
220	238	4
164	172	3
41	51	1
162	226	5
160	160	34
25	79	2
17	34	4
105	173	5
139	140	13
147	148	14
9	18	5
133	171	3
7	30	2
144	144	35
29	29	25
13	14	16
125	125	24
217	217	55
64	64	34
211	212	15
236	238	1
171	171	20
183	183	25
72	80	1
181	181	33
117	143	2
202	203	12
21	21	18
95	131	3
121	122	7
21	22	5
142	142	26
77	77	24
108	120	8
225	225	22
78	79	4
64	174	2
139	139	30
232	232	40
58	201	5
23	25	2
201	214	4
23	23	27
135	141	3
163	191	5
60	74	4
225	230	6
27	27	39
105	105	31
15	17	2
57	58	10
160	192	3
238	239	17
219	219	39
130	144	2
225	227	1
196	221	10
76	82	2
5	6	14
61	61	47
33	33	18
40	40	22
147	147	30
234	234	29
16	16	26
172	173	16
47	47	40
199	199	39
75	76	6
11	11	36
145	147	7
226	226	24
0	0	35
180	181	14
228	228	43
226	231	10
149	150	18
140	140	18
14	19	4
193	194	5
127	159	3
235	235	33
99	99	26
18	20	5
68	68	29
31	36	3
158	159	15
103	104	8
60	61	19
80	108	10
226	228	1
42	50	7
179	226	2
188	189	8
66	67	22
107	126	2
10	10	35
233	233	31
95	95	20
207	208	30
212	213	8
82	82	41
181	192	1
192	196	1
35	35	16
17	33	4
27	57	4
2	15	1
68	69	15
21	88	1
165	210	3
62	62	19
200	200	27
7	7	24
50	54	6
184	185	12
127	129	6
52	52	28
78	78	12
122	196	4
138	180	5
143	143	23
62	70	1
124	125	16
42	42	44
80	84	8
0	9	1
202	207	6
185	185	26
20	20	46
179	180	7
81	81	9
184	184	35
47	84	8
210	210	38
45	169	3
37	64	2
133	133	24
203	203	15
144	147	20
59	59	16
182	206	2
138	138	26
106	107	8
150	150	21
29	40	2
97	98	3
159	171	4
222	222	30
146	146	13
228	238	5
86	106	2
126	126	21
165	165	26
129	130	9
96	96	12
213	223	10
224	224	30
155	156	7
211	211	24
25	25	41
126	242	1
43	43	46
166	167	11
137	209	1
223	224	11
118	194	6
155	191	2
242	242	31
199	229	1
112	113	10
22	22	31
49	49	27
70	70	40
170	170	42
190	192	2
180	180	41
161	161	31
144	146	9
8	8	38
40	48	4
189	189	23
46	46	26
144	157	3
18	18	42
72	73	5
240	241	11
175	177	4
201	216	2
77	78	11
38	38	43
172	172	34
0	3	4
45	45	26
76	79	4
153	153	25
74	153	10
15	16	9
172	186	3
25	239	1
103	105	9
75	78	4
151	152	20
9	109	6
192	193	13
58	59	14
52	165	1
177	177	29
164	168	1
220	230	5
149	182	2
151	158	2
159	159	26
121	219	3
137	138	13
56	78	6
14	15	31
83	83	9
8	29	2
125	126	5
71	121	4
209	209	34
212	225	5
192	192	31
172	190	4
161	194	5
108	108	30
188	216	8
116	116	29
109	109	15
98	99	2
46	164	1
156	157	15
210	212	11
205	206	31
3	77	2
20	80	1
137	229	4
124	124	28
174	241	2
176	176	29
106	106	19
164	164	25
140	147	7
60	60	26
197	197	18
213	215	6
209	229	5
111	111	23
39	39	50
216	217	9
83	85	2
88	88	26
7	8	11
207	207	34
81	82	13
85	86	6
22	23	9
69	69	26
208	208	40
25	67	7
137	139	5
152	152	25
77	79	5
45	218	9
135	136	10
196	196	65
32	32	34
2	3	10
227	227	43
3	102	3
46	180	2
19	19	35
206	217	1
198	199	9
120	121	10
44	169	1
195	196	11
192	214	1
220	221	9
51	52	17
192	216	5
129	131	7
61	85	2
11	26	1
72	86	5
34	35	5
2	2	31
134	134	19
189	224	6
33	35	3
215	215	26
100	100	20
229	229	20
8	59	2
11	22	1
43	121	8
188	190	12
63	64	11
159	160	9
114	114	18
231	231	36
65	69	4
72	72	29
109	149	3
182	182	41
141	174	1
137	137	31
155	176	3
206	211	2
169	170	11
151	154	1
236	237	6
25	26	7
193	196	4
195	195	31
120	120	24
177	178	3
148	230	6
11	21	3
17	40	4
139	164	1
221	221	40
131	131	6
56	56	23
189	190	5
70	71	15
156	202	10
81	85	6
74	100	6
45	46	3
15	23	1
100	113	5
141	184	3
178	178	24
1	4	5
135	169	4
114	115	8
213	214	4
154	155	7
224	225	8
214	216	3
170	171	16
200	201	7
8	35	3
129	129	26
113	175	2
73	75	1
67	67	39
7	31	1
202	205	1
16	40	4
198	200	3
98	98	26
20	56	4
234	235	10
66	66	38
133	137	4
48	58	4
118	118	30
32	99	2
15	171	2
138	142	3
155	155	11
151	151	29
203	204	7
65	165	4
122	219	2
199	200	25
217	220	3
241	241	25
57	57	28
6	6	12
75	75	23
200	210	6
114	117	5
156	160	5
122	171	5
139	141	8
67	69	5
25	37	2
234	238	4
19	20	6
3	9	2
49	55	4
236	236	18
43	44	17
54	55	6
50	55	7
104	104	26
65	66	11
146	147	17
138	146	2
178	228	5
229	230	6
9	10	19
24	86	3
12	17	1
73	73	29
206	207	9
15	123	3
36	37	2
200	202	8
4	6	5
190	196	1
24	203	1
46	47	10
185	191	4
109	165	1
230	232	3
43	63	3
239	239	25
182	183	7
203	206	2
7	219	3
98	120	3
104	119	1
165	192	7
110	113	2
221	222	11
31	32	7
175	176	9
139	147	3
216	216	36
32	33	13
40	41	15
237	237	37
102	126	4
118	119	5
37	39	1
127	156	3
54	62	3
116	206	3
165	166	9
15	15	23
136	142	6
214	214	18
157	158	12
84	84	15
154	160	2
12	30	3
230	231	12
33	36	6
37	162	4
241	242	8
144	149	1
206	208	8
3	75	1
133	141	3
30	39	4
66	118	2
50	50	29
11	140	2
196	223	8
165	176	2
221	223	4
113	118	4
139	143	4
119	119	22
167	168	10
48	49	8
68	70	2
40	42	6
160	161	3
24	32	5
211	235	2
148	148	29
58	58	28
187	187	8
136	137	9
73	74	5
85	85	34
80	82	4
11	12	12
201	231	2
50	52	2
97	128	3
6	50	3
138	139	9
194	194	28
23	107	2
215	216	18
166	195	1
138	181	1
60	62	2
42	53	5
48	50	9
137	164	3
60	63	4
127	128	3
1	19	2
193	197	3
10	96	2
174	174	34
236	239	2
237	239	2
162	162	36
5	13	3
18	37	2
134	135	3
9	112	3
1	1	20
98	134	6
99	100	9
53	72	7
115	200	4
54	76	5
73	85	4
191	203	5
18	23	6
160	162	3
122	197	1
141	180	3
174	208	2
208	218	2
40	56	3
187	190	3
141	142	7
24	73	2
141	141	23
18	19	7
152	172	3
107	108	7
28	60	5
20	39	1
128	179	1
61	100	4
29	56	1
6	108	1
234	240	5
108	117	2
61	62	2
140	141	12
114	130	3
125	127	6
44	48	4
8	55	2
108	133	3
128	159	2
157	157	21
129	136	3
20	97	2
64	156	1
222	230	2
99	112	9
110	110	5
34	34	16
11	33	5
186	186	20
117	117	21
120	179	1
0	1	6
46	121	3
220	222	8
139	142	4
150	151	9
146	211	1
191	224	1
196	197	4
12	169	3
190	224	2
218	218	20
14	16	2
232	236	1
76	77	13
58	101	1
3	74	2
23	24	5
226	227	13
52	54	4
70	114	3
6	28	2
102	176	4
144	158	4
184	223	2
58	61	2
91	91	3
154	154	20
133	134	3
55	201	2
107	107	21
196	198	5
17	18	9
0	68	3
16	17	24
107	199	2
123	125	3
144	172	6
155	157	7
12	167	2
11	32	8
41	77	2
144	145	10
121	172	4
198	206	2
24	24	14
136	187	4
17	168	3
198	198	25
218	219	10
28	28	15
96	141	1
101	102	5
36	36	18
82	183	3
100	163	11
3	70	3
225	231	6
59	60	21
172	181	4
75	88	2
123	124	5
163	169	3
35	36	6
76	86	4
56	57	20
128	171	2
220	223	5
182	197	1
161	192	4
8	30	2
209	214	3
133	183	1
140	155	3
128	129	8
55	56	7
39	41	5
95	133	2
66	222	5
12	84	1
5	80	2
239	240	5
17	183	2
168	171	3
222	231	3
64	141	2
20	49	2
71	146	1
4	5	6
122	123	4
37	38	6
56	73	2
142	143	2
161	163	10
9	69	2
122	232	2
202	219	3
49	152	3
39	237	1
142	175	1
117	118	5
240	240	7
39	42	6
51	53	1
6	226	1
12	22	10
10	170	1
11	203	3
153	178	2
130	130	10
11	15	2
3	41	1
60	64	3
152	160	2
139	178	4
138	141	1
51	60	6
173	174	9
176	177	4
149	152	4
214	215	18
3	79	1
223	223	16
167	216	2
97	219	1
43	45	2
64	65	5
125	226	3
126	129	1
198	222	3
204	205	3
34	75	3
51	80	1
238	240	4
144	188	7
232	233	13
233	240	1
0	2	4
205	205	25
148	242	1
164	165	12
44	218	1
10	37	2
69	70	4
228	239	1
156	161	3
136	139	4
25	39	5
133	210	3
148	173	1
224	230	5
67	68	11
10	67	1
13	21	1
17	22	4
14	98	3
24	27	2
88	152	3
228	229	5
12	13	8
104	109	4
84	85	7
45	219	3
48	165	2
140	180	1
48	54	1
58	64	4
187	198	1
106	127	2
141	204	1
223	225	9
31	33	5
80	85	5
71	74	3
161	162	3
150	152	4
185	186	3
112	112	5
204	208	9
149	227	2
103	106	2
125	229	4
197	198	5
57	59	1
230	230	20
164	174	1
97	202	2
120	233	2
130	171	3
1	6	2
227	228	9
30	32	3
145	150	1
158	165	3
171	238	1
126	159	1
31	35	3
79	79	16
47	48	7
79	80	6
13	187	1
100	101	1
82	83	16
49	227	4
54	63	3
64	86	3
62	148	2
75	148	2
183	185	4
4	31	1
169	171	10
107	130	5
26	26	17
105	162	5
196	215	1
11	170	6
18	34	2
104	107	2
38	39	4
45	180	1
143	199	2
187	188	6
30	53	4
126	181	4
138	145	3
108	118	2
78	86	4
209	211	1
138	190	2
135	240	2
12	31	1
13	15	3
72	121	4
187	221	2
52	85	3
4	199	1
29	70	3
48	52	1
104	129	3
39	206	2
109	110	10
153	154	13
34	86	5
121	192	3
102	104	6
25	231	4
19	81	1
152	161	3
197	199	1
3	6	4
11	169	5
124	126	5
182	227	2
132	140	3
15	36	2
152	179	5
104	106	1
76	78	1
61	96	5
112	145	6
36	69	3
208	211	8
212	223	1
46	163	4
5	30	3
1	7	4
113	127	1
25	173	2
136	174	3
152	153	7
127	146	6
39	174	1
179	218	4
125	209	1
19	21	4
114	187	3
140	143	8
11	189	1
103	209	1
115	205	2
1	11	2
33	34	12
127	189	1
71	73	4
140	188	1
129	197	3
11	138	5
2	21	3
101	136	2
11	172	2
38	42	2
19	48	3
139	174	2
149	155	3
222	229	1
176	180	2
0	4	1
2	57	2
27	32	2
119	120	6
46	82	2
82	84	5
16	53	4
233	241	1
135	167	2
3	4	4
74	106	4
116	204	1
2	170	6
146	148	2
27	28	2
181	182	6
107	129	1
117	138	1
7	81	1
9	42	2
141	209	3
181	207	2
187	223	3
137	230	2
33	162	3
26	65	3
5	107	1
37	61	2
214	223	2
152	157	3
226	237	3
172	239	3
121	193	2
153	157	2
188	222	2
39	213	1
24	142	1
118	163	2
26	49	2
136	164	2
131	159	3
8	143	3
84	109	3
127	130	2
116	118	2
168	169	5
52	53	7
38	100	3
95	129	1
23	29	5
121	151	2
196	222	2
134	210	8
112	120	1
61	128	3
39	165	2
53	234	2
39	99	1
51	85	1
228	237	1
163	193	2
55	65	2
200	237	3
11	17	1
64	187	2
7	28	1
6	225	3
106	120	1
116	117	9
40	236	1
166	196	3
203	238	2
135	139	5
138	143	4
162	163	2
189	216	2
189	228	1
57	63	3
65	68	2
68	145	2
209	212	3
119	143	4
151	208	1
132	132	1
148	160	3
181	193	3
119	122	1
124	210	1
43	169	6
165	227	2
197	223	5
143	209	2
69	211	2
231	232	11
102	180	1
128	232	1
40	67	3
200	232	1
148	154	2
145	146	8
139	165	6
123	127	6
192	194	6
182	192	2
144	161	3
173	208	2
66	146	3
25	70	3
10	55	2
187	224	3
0	6	2
227	231	1
151	161	3
126	150	2
153	158	2
29	49	1
1	3	5
41	49	2
119	162	2
62	127	2
181	183	2
26	142	1
225	226	7
233	234	6
39	227	3
105	165	2
11	171	1
47	128	3
124	213	2
0	69	3
128	242	2
0	16	1
75	77	4
20	22	1
45	75	1
118	191	4
115	176	3
29	30	3
44	45	5
143	144	7
54	219	1
25	169	4
72	128	3
9	224	3
202	236	1
201	219	4
22	41	1
5	12	5
122	124	1
108	109	6
56	76	1
134	227	2
20	109	4
119	201	1
197	229	1
149	242	3
76	242	2
27	85	2
95	96	4
139	192	4
169	174	2
217	230	2
46	85	2
76	146	3
127	169	1
100	102	1
111	172	1
9	30	4
201	222	1
41	79	1
3	45	3
138	170	3
19	23	1
128	228	4
166	225	1
109	114	3
124	127	1
12	33	2
58	97	1
51	56	4
204	213	2
178	212	2
57	62	1
24	68	1
115	204	3
30	40	1
45	179	6
46	65	1
187	192	1
180	182	9
189	222	1
200	238	2
174	213	3
130	134	3
218	232	1
26	79	3
197	200	1
173	234	2
46	50	1
213	216	2
54	85	3
23	240	3
215	217	2
106	200	3
1	16	4
24	238	3
9	62	2
175	178	1
169	190	2
41	206	3
216	231	1
14	41	1
104	138	2
101	105	2
164	166	1
164	185	7
102	116	2
7	79	1
222	223	15
99	108	4
147	183	1
147	191	3
91	111	3
181	219	2
2	33	1
125	131	2
196	227	3
72	74	1
46	178	1
59	64	1
131	211	1
153	156	4
187	215	1
17	61	2
154	156	2
18	200	1
140	142	3
13	188	1
11	20	4
214	224	4
128	152	2
157	171	2
104	162	1
143	169	1
137	172	4
204	240	4
191	204	2
71	75	4
205	229	2
212	236	1
140	203	2
11	187	1
102	112	1
54	67	1
134	213	2
137	159	1
20	84	2
96	109	4
39	236	3
79	86	1
97	109	2
168	214	3
184	186	4
7	9	2
202	217	3
158	171	1
190	191	5
158	161	3
4	81	1
132	133	2
102	106	4
125	210	1
223	231	3
124	159	1
163	164	7
46	155	3
32	98	3
26	171	1
213	224	2
172	178	1
141	148	3
106	110	2
126	133	1
11	13	3
233	242	1
26	27	5
155	172	3
101	119	1
44	129	1
176	178	3
121	179	2
119	200	2
140	161	2
144	178	1
160	177	1
155	193	2
105	106	1
186	187	7
57	124	3
47	81	3
7	80	4
20	204	4
28	29	6
102	103	3
46	145	3
3	71	2
2	4	3
206	216	1
62	63	2
26	28	3
196	226	4
1	2	6
102	130	2
18	97	3
23	77	1
107	117	2
120	158	1
12	29	2
15	65	1
104	160	2
3	29	2
138	201	2
232	240	1
171	233	1
142	208	4
45	162	2
57	77	1
86	88	2
16	213	1
23	65	2
229	237	2
120	154	1
190	216	2
170	173	3
78	85	4
21	33	2
68	144	1
199	230	2
88	89	2
55	75	1
38	73	1
6	79	2
145	179	1
134	208	3
84	89	1
42	43	3
120	202	1
23	37	2
63	84	1
37	161	2
210	211	3
59	103	2
155	160	1
135	168	1
172	202	2
74	88	2
11	36	1
10	70	2
178	179	2
20	23	1
1	41	2
122	126	2
159	173	2
189	191	1
158	194	1
54	82	2
148	167	2
6	52	3
21	107	2
115	117	4
214	217	1
98	152	3
186	199	1
45	84	1
20	83	3
114	116	2
54	155	2
148	201	1
144	194	1
46	179	2
13	190	1
47	72	2
97	154	3
105	167	1
96	157	4
134	138	1
128	136	2
155	169	1
187	189	2
29	31	8
27	158	2
69	115	1
144	193	1
22	30	3
134	137	2
153	160	3
22	72	2
106	201	3
105	117	1
7	10	1
4	8	1
8	60	1
55	71	1
211	238	3
221	225	3
109	112	2
163	185	2
81	83	2
77	101	2
104	105	4
63	85	1
75	145	1
46	84	1
21	109	1
126	151	4
59	102	1
53	137	2
30	31	7
8	19	3
96	123	1
44	70	1
236	240	3
97	120	2
60	65	4
47	60	2
203	208	1
15	51	4
101	175	2
142	242	1
113	117	2
151	182	2
101	117	2
16	51	3
227	229	1
71	147	2
42	122	1
83	84	4
46	218	1
128	230	1
49	151	1
154	167	1
195	210	1
195	206	1
56	63	3
226	229	3
127	204	3
98	157	1
31	34	2
118	170	3
134	136	2
163	167	5
127	144	1
117	201	1
177	182	2
131	134	1
16	23	2
97	242	1
120	130	1
75	79	1
132	141	2
11	174	1
132	137	1
113	114	1
102	122	2
239	242	1
10	11	2
239	241	4
169	180	2
9	11	1
2	17	1
213	226	2
150	229	1
217	234	3
125	208	1
190	205	2
152	213	1
204	234	1
15	18	1
174	190	2
41	56	2
50	51	3
15	189	2
5	33	2
88	91	1
37	70	3
5	198	1
109	169	1
0	51	4
28	77	2
102	117	1
189	211	1
125	225	1
176	181	2
5	162	2
13	16	1
27	54	1
0	7	1
22	204	1
140	166	1
29	76	1
151	179	1
114	126	2
217	238	2
113	148	1
207	238	3
42	119	1
182	221	1
41	50	1
141	143	1
59	77	2
39	207	3
136	183	2
42	234	2
1	33	2
74	105	1
24	64	1
112	180	1
134	175	1
101	174	2
6	133	1
186	195	1
97	99	2
8	38	1
26	39	1
125	162	1
115	122	2
99	109	1
157	160	1
167	180	1
9	68	1
59	127	1
135	138	1
9	74	2
123	210	1
4	213	3
60	69	1
207	211	1
134	176	1
53	88	2
6	29	1
132	134	1
22	29	3
191	196	1
63	70	1
199	210	2
2	41	2
181	225	1
234	236	2
36	71	1
197	211	1
160	164	1
89	154	3
119	192	1
24	98	2
169	179	1
152	182	1
207	210	3
49	60	1
198	214	1
11	70	1
110	111	1
147	189	1
208	214	2
104	163	1
71	85	2
137	186	3
120	191	1
59	125	1
4	108	1
225	229	1
48	148	1
149	154	1
150	182	3
120	176	1
100	105	1
3	17	2
81	84	1
121	201	2
169	242	1
19	219	1
65	173	1
139	183	3
243	243	1
104	115	1
224	231	1
21	26	1
47	69	2
196	200	1
47	49	4
102	105	2
159	163	2
11	77	2
159	196	1
42	217	2
204	227	1
133	201	1
7	18	1
147	152	1
165	169	1
121	162	1
213	231	1
133	156	1
198	211	2
217	223	1
96	98	1
103	110	1
179	225	1
16	60	1
11	55	1
175	192	1
28	36	1
108	127	1
108	110	2
12	62	2
5	22	2
19	40	2
63	153	1
199	207	2
47	83	1
134	143	1
6	7	3
109	117	1
209	235	1
61	71	2
8	62	2
182	208	1
200	230	1
80	81	1
119	136	1
159	164	2
74	149	1
3	28	1
17	23	1
164	170	1
45	71	2
38	99	1
228	232	1
110	114	1
136	230	1
109	119	1
140	184	1
128	177	1
5	83	1
83	86	2
98	139	1
191	192	1
40	79	1
205	208	1
10	202	2
107	200	3
101	108	1
20	24	1
3	163	1
74	85	1
66	106	1
207	216	1
64	175	1
166	177	1
17	60	2
126	233	1
99	110	1
151	155	2
162	164	2
84	86	1
195	226	1
145	149	1
131	132	1
47	148	1
194	210	1
135	201	1
166	194	1
189	209	1
0	17	1
135	137	1
68	75	1
32	70	1
62	75	1
158	186	2
28	70	1
185	199	1
17	36	1
150	187	1
148	209	1
125	231	1
125	136	1
65	188	1
203	219	1
28	80	1
186	193	2
23	66	1
43	217	1
209	213	1
10	69	1
103	113	1
182	207	1
36	44	2
96	97	1
59	63	1
79	109	1
65	174	2
21	32	1
47	235	1
150	215	1
134	145	1
12	21	1
27	55	1
161	169	1
1	37	1
45	217	1
142	162	1
45	168	1
135	179	1
39	57	1
188	197	1
39	43	1
126	204	1
190	210	1
2	11	1
