95	130	3
37	37	3
109	140	4
32	32	6
41	42	5
73	75	4
132	132	9
98	98	7
68	68	4
117	117	7
40	40	5
142	144	5
63	63	6
72	72	5
156	157	3
155	166	5
112	112	13
4	5	6
1	5	2
147	147	12
26	34	6
88	88	9
50	50	6
15	102	4
39	39	3
115	115	2
45	45	7
120	120	7
119	161	2
45	180	7
144	147	5
133	133	5
22	22	6
0	37	4
111	127	5
178	180	5
4	7	2
82	82	1
10	10	3
127	130	4
118	118	7
65	68	1
127	131	6
77	81	3
155	155	5
160	170	2
145	145	8
174	174	11
93	96	4
38	39	7
168	168	7
23	23	6
79	156	6
103	104	5
169	169	8
101	164	1
9	39	4
60	115	1
169	170	1
85	102	2
50	86	12
127	158	1
4	4	5
75	171	2
129	144	4
53	53	6
17	40	1
127	127	3
33	37	1
84	130	3
135	135	7
72	178	1
76	76	6
72	83	1
83	130	5
44	44	10
14	15	2
141	141	1
92	93	2
12	12	2
5	5	5
100	148	2
7	7	9
150	150	18
37	44	2
134	134	11
145	146	4
87	87	17
175	175	11
178	178	2
120	123	3
72	179	1
116	117	2
106	106	9
60	76	3
137	138	1
134	178	5
129	131	1
119	125	1
115	117	4
152	174	3
58	116	2
0	0	1
140	176	2
108	108	5
61	126	2
111	111	10
173	173	5
9	17	6
36	36	6
158	171	2
93	94	4
135	151	2
155	171	2
31	31	4
126	126	4
73	73	6
55	55	9
1	1	12
25	25	13
6	6	5
146	146	4
15	155	2
129	145	4
131	166	2
55	75	2
10	15	1
31	37	3
12	155	4
78	96	7
152	152	4
29	29	6
113	113	2
77	78	6
58	67	5
136	136	5
168	176	3
102	103	2
142	142	4
123	123	6
96	96	3
140	140	16
109	155	3
77	148	4
56	57	4
102	113	1
121	180	5
101	128	2
107	122	6
72	146	5
82	85	2
53	108	1
137	137	8
39	40	4
123	125	3
150	155	2
122	122	15
149	149	9
95	150	4
163	168	8
7	11	2
21	22	3
71	71	9
158	161	2
24	24	4
124	125	4
2	2	7
7	10	6
49	49	1
173	174	2
79	79	10
80	80	6
120	148	1
76	77	7
121	165	4
78	79	2
125	126	5
65	66	4
157	169	1
52	147	1
45	55	3
84	84	2
92	92	9
158	158	9
115	116	6
156	156	7
131	131	5
97	98	2
103	105	2
67	67	5
151	151	5
51	119	1
127	129	3
75	75	6
127	159	2
53	118	2
37	41	4
172	172	8
143	144	2
43	54	3
132	133	3
113	127	1
49	113	4
36	53	2
41	41	6
23	91	6
161	162	3
84	100	3
109	109	11
30	30	2
73	79	9
85	147	1
124	126	2
9	32	2
110	111	1
81	81	10
24	172	3
179	179	3
25	170	2
92	149	3
26	174	1
61	129	4
110	114	3
116	116	8
72	134	2
118	129	4
9	9	8
61	61	5
164	164	4
119	119	1
84	102	1
85	85	6
144	144	3
62	91	3
107	133	1
2	31	2
32	33	2
77	77	4
76	78	3
21	23	1
20	20	8
80	98	1
7	42	2
18	18	2
1	2	2
54	84	1
53	119	2
61	81	4
154	155	2
28	42	1
64	110	2
101	161	3
40	52	2
129	140	1
59	130	1
56	56	8
115	118	4
167	173	1
109	173	3
10	38	1
80	134	1
127	160	6
16	16	7
70	71	4
142	173	3
17	17	9
23	26	3
28	28	9
62	63	3
91	91	3
51	64	2
33	33	4
163	163	1
55	67	1
97	101	2
153	154	3
160	161	2
157	178	2
102	143	6
165	166	6
165	165	3
42	42	9
128	128	8
114	115	1
52	52	2
54	54	10
114	114	7
8	11	2
112	131	1
28	31	4
52	58	2
177	177	2
17	44	1
28	166	1
25	26	2
96	97	1
147	148	1
143	145	2
32	126	1
90	90	5
52	53	3
91	101	1
59	59	3
11	155	2
126	127	6
138	138	7
3	4	1
102	102	4
93	93	6
83	102	1
143	143	3
65	65	5
124	124	5
30	77	1
60	138	4
136	165	1
3	3	2
153	170	3
27	27	2
56	59	2
104	107	1
105	105	5
36	37	2
86	87	4
128	171	1
24	26	1
62	94	3
145	177	2
60	60	3
0	43	3
19	19	4
54	82	3
121	121	2
119	122	1
13	13	3
11	11	3
152	153	3
148	148	1
87	88	2
67	68	3
0	35	3
71	72	2
84	86	1
166	166	3
93	180	1
19	20	1
104	117	1
73	147	3
60	129	1
126	160	1
91	93	2
54	104	2
14	14	5
170	170	2
31	32	2
26	26	2
64	142	1
167	167	1
113	160	3
110	164	3
93	102	4
160	160	4
171	171	4
168	169	1
107	107	3
152	156	2
97	100	4
111	119	2
83	83	3
99	101	4
22	31	2
89	89	5
14	156	1
177	180	3
101	101	2
120	165	6
54	122	2
162	162	3
86	98	2
160	162	1
103	103	1
50	131	4
7	9	4
63	66	1
27	29	1
143	147	3
53	171	1
6	7	2
110	110	1
117	118	3
127	171	1
22	63	2
146	147	4
23	93	1
54	75	1
73	148	1
78	78	2
9	18	1
3	29	1
5	19	1
155	164	3
88	89	1
119	121	1
161	161	2
112	151	1
156	170	1
51	51	1
95	95	3
148	149	2
58	96	1
23	92	1
83	85	1
104	106	2
100	100	2
141	142	3
62	165	1
11	67	1
12	13	2
157	157	2
52	106	1
92	94	1
30	60	1
0	1	1
12	45	1
64	64	4
110	148	2
149	150	3
159	159	1
9	38	1
73	88	1
95	98	2
17	45	3
2	4	1
43	43	2
126	128	3
72	136	1
176	176	2
66	154	1
29	174	2
158	169	1
54	72	1
139	139	2
38	40	3
40	41	1
125	158	2
75	84	4
129	129	2
57	81	2
163	167	1
134	180	1
89	90	1
97	99	1
148	159	1
159	160	1
79	80	2
2	18	1
164	166	1
24	45	2
130	160	1
62	82	1
35	36	2
142	147	1
177	179	1
44	45	2
55	57	1
120	121	1
106	113	1
24	29	1
118	170	3
60	61	1
153	153	1
59	66	1
89	134	3
3	32	2
170	172	1
169	171	1
143	174	1
26	51	1
97	97	4
99	100	1
87	123	2
64	112	1
170	171	1
140	174	3
22	23	1
167	169	1
2	25	1
125	125	1
61	63	2
105	107	1
80	81	1
18	21	1
166	168	1
4	20	1
18	19	1
177	178	1
99	99	2
76	91	1
140	141	1
121	122	1
171	172	1
0	4	1
93	95	1
142	145	1
155	158	1
