110	111	2
100	102	5
83	83	3
136	165	3
163	171	2
133	133	2
64	75	1
16	18	1
180	181	9
138	138	5
38	38	2
154	156	3
141	142	1
121	121	2
154	154	4
92	92	8
141	141	4
28	28	2
148	185	2
44	45	4
54	54	4
38	46	4
168	179	2
127	129	1
79	79	4
0	1	3
151	153	2
125	125	9
140	145	2
41	41	3
148	149	1
122	122	4
178	179	3
1	2	2
155	156	1
189	189	7
102	102	5
74	74	1
27	27	3
78	78	7
33	33	5
173	173	6
94	94	5
146	146	2
87	87	2
103	104	2
149	150	6
172	175	5
149	149	3
96	98	1
133	162	1
5	5	1
137	138	2
81	81	3
123	123	4
36	36	3
151	152	6
11	11	1
134	138	2
120	121	2
162	162	8
147	149	3
90	90	1
58	59	1
172	174	3
161	164	1
30	30	1
169	185	1
142	142	6
121	123	1
128	128	1
187	187	2
39	39	3
154	155	9
19	19	6
133	134	2
0	0	5
155	155	1
177	179	5
26	27	3
28	29	4
165	165	2
103	111	3
188	190	4
147	147	1
135	135	1
170	172	2
116	116	5
172	172	6
44	44	2
101	102	1
106	106	7
129	129	3
107	108	4
108	108	6
78	79	6
47	47	2
181	181	4
6	8	1
98	98	8
166	166	1
55	55	2
31	32	4
79	80	1
101	101	2
127	127	5
54	87	1
164	166	1
142	143	1
110	110	8
144	144	1
159	175	1
124	141	3
145	145	1
7	7	3
47	48	3
60	63	2
152	153	1
33	34	3
31	31	3
106	111	4
120	120	4
151	151	4
77	78	2
36	37	2
44	55	2
117	117	2
13	13	3
124	125	1
10	10	3
89	89	2
177	178	2
57	57	1
161	167	1
35	35	3
96	96	1
182	182	3
97	97	2
74	75	3
59	59	3
19	20	3
169	175	2
23	24	2
150	156	2
144	145	3
82	82	2
118	119	1
66	66	2
186	187	1
88	89	1
114	115	2
48	84	4
160	160	6
2	2	2
34	42	3
66	67	1
4	4	3
1	5	1
42	42	2
25	25	1
119	119	2
30	31	2
99	99	3
177	177	2
73	74	1
113	114	4
15	17	1
116	129	1
22	22	3
148	148	3
75	75	3
179	179	3
169	169	1
118	143	2
158	158	5
65	65	1
185	186	3
79	81	1
177	184	2
15	15	1
133	135	2
164	165	3
8	8	2
129	130	1
156	156	2
45	46	2
167	181	3
60	60	2
112	112	2
135	143	1
12	18	1
20	20	2
17	17	3
47	89	2
107	107	2
103	103	7
74	82	2
119	120	1
38	58	1
67	68	2
37	37	1
75	76	2
111	111	1
171	172	2
133	144	1
188	189	1
174	174	3
186	186	1
117	118	2
84	84	2
176	176	2
63	63	3
76	79	2
18	18	2
6	6	1
171	174	1
82	83	1
73	75	1
63	70	1
185	185	1
72	72	1
83	84	2
135	161	1
113	113	1
105	105	2
12	12	1
178	178	1
167	167	1
34	66	2
1	1	1
134	134	1
14	15	1
136	136	2
25	36	1
124	124	1
16	16	1
70	71	1
118	145	1
15	16	1
168	169	1
137	165	1
180	180	1
46	48	2
157	157	1
80	81	1
183	183	1
40	41	1
47	74	1
122	123	1
86	86	1
107	109	1
32	32	1
63	65	1
172	176	1
