67	67	5
96	96	4
147	150	3
38	38	5
140	140	2
116	118	4
12	40	2
70	70	7
62	63	5
43	43	1
100	100	6
48	48	6
10	10	9
9	10	4
104	125	1
86	86	3
99	122	1
111	111	7
2	2	5
51	52	7
110	123	3
136	136	4
44	44	2
140	141	4
4	4	5
91	118	3
111	144	2
29	32	5
146	146	1
120	122	1
139	144	4
77	77	2
30	42	1
86	128	3
151	151	8
119	134	2
64	83	4
124	124	7
88	88	4
141	141	6
133	134	3
122	126	1
133	133	5
63	80	3
108	139	2
64	109	5
100	102	6
80	82	3
13	13	8
17	37	1
16	33	2
54	54	3
138	138	1
156	156	5
24	25	1
28	28	11
91	110	2
16	17	1
11	11	1
49	70	4
66	90	3
150	154	3
0	1	2
147	147	6
28	53	1
55	55	2
8	11	3
90	94	1
21	21	7
100	149	1
95	96	1
101	125	1
22	44	1
25	30	1
137	153	2
104	128	2
24	41	6
106	106	5
3	3	2
66	83	2
106	108	1
31	38	6
80	80	3
87	87	2
91	97	2
78	93	3
95	113	2
51	70	1
125	158	1
110	110	2
108	108	2
46	46	3
139	139	5
45	46	1
69	69	4
32	41	1
116	132	1
116	134	1
47	50	1
79	89	1
69	78	3
117	120	1
82	82	3
53	56	2
116	116	2
12	12	8
137	137	4
113	113	7
50	63	4
23	28	2
125	125	4
73	77	2
54	116	1
127	134	5
62	88	3
121	121	3
48	101	2
24	32	1
66	88	1
99	99	7
95	124	1
103	111	2
153	153	2
6	6	2
139	141	2
118	118	8
157	158	1
73	87	2
84	84	4
73	73	5
36	47	4
33	50	2
24	24	2
64	69	2
33	70	1
84	93	1
83	84	5
107	128	1
97	98	1
137	138	4
35	56	1
129	135	1
95	100	1
25	36	1
72	72	2
23	23	1
144	144	4
156	158	2
104	104	1
82	87	2
26	26	2
2	4	2
41	51	4
18	18	4
123	123	1
24	30	3
11	12	3
16	18	2
95	95	4
31	31	2
132	132	3
10	32	1
110	143	1
116	121	1
19	26	4
48	49	1
88	94	3
69	70	3
29	29	2
55	71	1
151	157	2
40	41	2
122	122	1
50	50	7
49	52	2
35	50	2
13	31	3
119	119	3
75	75	2
9	21	2
56	56	2
65	65	3
127	128	1
105	118	1
77	79	1
20	35	2
156	157	1
0	2	1
8	8	4
149	149	2
1	3	1
152	152	1
27	53	1
70	90	1
5	5	2
123	139	1
128	148	1
38	39	1
68	68	1
154	154	2
115	115	3
84	89	2
14	14	1
96	111	1
31	39	3
128	128	4
38	56	2
111	117	1
16	16	2
115	118	1
33	33	1
7	29	1
18	20	1
0	0	2
35	35	4
17	23	2
111	114	2
146	147	1
126	148	2
7	20	2
32	44	1
84	87	2
3	4	2
126	126	2
76	76	1
126	146	1
63	63	2
148	148	4
41	41	2
108	133	1
78	78	1
117	118	1
99	125	1
133	136	1
123	134	2
105	141	5
111	113	1
92	99	1
54	55	3
27	29	1
95	115	1
125	146	2
117	134	3
107	107	2
134	151	2
132	136	2
11	45	4
131	150	2
47	56	1
37	37	1
81	81	1
66	87	1
8	22	2
85	108	1
135	148	1
92	94	2
45	45	1
158	158	1
159	159	1
40	40	3
27	45	2
19	21	2
0	16	1
107	109	1
57	62	1
39	39	3
41	48	2
155	155	1
135	135	1
127	144	1
41	42	1
102	129	1
73	75	1
107	139	2
30	40	2
4	15	1
18	24	1
110	118	2
86	101	1
24	35	1
99	100	1
15	15	1
99	118	1
129	129	1
106	140	1
17	17	1
103	103	1
128	150	1
40	52	1
77	92	1
105	112	1
91	91	2
150	150	4
22	22	1
117	157	1
64	75	1
38	54	1
102	121	1
31	40	1
118	127	1
131	132	1
7	28	1
61	71	1
119	136	1
153	158	1
132	149	1
93	126	1
34	34	1
102	123	1
112	119	1
5	21	1
49	49	1
40	88	1
139	148	1
45	87	1
37	47	1
32	40	1
83	83	1
