81	88	4
177	177	8
15	40	3
1	6	3
181	181	2
141	153	8
111	121	3
73	73	5
163	180	4
69	69	4
164	165	2
79	79	5
132	132	7
190	193	2
96	97	1
182	192	4
109	109	3
123	123	3
146	146	7
104	106	3
197	197	7
167	167	2
25	37	4
53	54	2
18	18	4
15	31	2
9	16	5
123	134	7
99	115	2
68	75	5
133	146	2
73	75	2
38	59	2
159	159	3
113	114	3
172	172	4
23	48	2
61	61	1
79	83	2
5	8	5
84	96	1
154	154	3
166	167	1
125	161	3
78	83	6
125	141	2
27	40	4
53	55	2
62	66	2
171	171	7
141	172	1
20	30	2
3	8	4
40	40	2
101	115	4
105	115	2
7	14	10
131	144	6
137	137	14
119	119	2
54	54	17
65	65	2
51	51	1
149	149	3
50	88	1
182	183	3
131	136	3
7	11	3
76	76	1
6	32	1
12	30	1
45	45	2
12	17	1
107	107	1
28	28	3
103	103	3
145	183	2
102	104	3
3	4	7
193	193	7
153	153	3
4	8	1
193	196	3
152	159	4
175	175	5
104	104	4
84	89	1
180	190	3
107	112	4
35	40	4
37	44	2
145	173	1
117	134	1
164	164	4
108	112	3
138	139	7
135	135	5
117	120	4
71	74	1
158	161	3
53	59	2
10	16	3
68	76	4
165	167	1
161	161	6
60	60	6
171	190	3
69	80	1
35	50	1
119	138	2
144	161	4
139	151	5
165	166	1
2	34	3
169	169	8
162	169	3
75	75	2
134	147	3
168	168	4
128	128	3
112	112	2
164	176	3
64	66	3
7	7	2
48	49	2
172	196	2
23	23	1
134	158	3
4	4	8
6	6	9
128	140	3
158	158	4
38	38	3
63	63	3
154	170	2
46	56	2
39	46	1
175	176	4
30	37	2
46	46	1
173	175	4
143	173	3
3	7	1
47	71	1
155	171	2
24	24	3
51	52	1
126	126	5
145	145	4
184	192	2
180	184	3
134	134	2
62	97	2
1	4	7
102	106	3
14	14	1
35	54	5
144	173	3
184	184	4
3	3	5
158	159	1
141	141	1
188	188	4
96	100	3
35	37	4
134	151	4
153	162	3
130	130	3
77	88	1
9	38	2
6	9	1
194	194	8
8	8	4
179	179	5
34	51	2
170	183	2
178	197	2
21	31	4
87	87	3
173	187	2
125	125	4
8	22	2
108	123	1
83	83	3
123	124	2
82	82	1
66	77	2
111	111	4
184	185	1
55	59	2
163	178	1
113	128	3
108	109	2
32	44	1
32	32	8
1	1	4
20	21	2
155	168	2
21	22	1
19	64	2
176	177	5
97	97	4
120	133	4
192	192	11
80	81	3
67	67	2
8	17	3
9	19	2
100	100	4
117	146	1
149	156	4
27	27	4
52	60	2
148	169	4
131	131	1
11	12	3
15	15	3
120	134	2
155	189	1
174	174	2
99	99	3
1	5	1
100	112	3
55	55	3
49	57	2
178	178	7
130	153	1
15	25	2
10	10	2
78	78	1
86	87	4
161	175	1
25	34	3
77	77	3
184	186	4
163	177	2
133	141	3
156	182	5
149	173	4
187	187	6
155	173	1
183	183	5
166	173	1
6	12	1
147	147	8
123	143	3
104	115	2
49	53	2
168	171	2
127	128	3
195	195	5
41	42	2
31	32	6
114	136	1
58	64	1
68	83	1
50	52	1
19	19	6
128	141	2
3	19	1
86	86	2
144	144	6
185	185	1
122	135	1
152	175	1
17	17	3
143	143	2
176	176	3
109	123	2
24	151	2
116	116	2
158	168	5
28	68	2
136	157	2
7	12	1
181	185	3
60	61	3
144	146	2
45	54	3
137	153	2
28	51	1
127	154	2
122	122	3
169	181	1
171	189	5
100	101	2
66	66	3
122	157	3
113	129	3
79	87	1
107	108	1
74	74	2
135	136	1
0	1	3
113	158	4
66	82	3
15	35	2
143	152	4
26	27	3
56	70	2
136	141	2
2	2	2
143	153	1
36	151	2
176	184	4
163	163	2
22	22	3
130	154	1
45	53	2
37	37	2
117	117	5
49	64	1
174	182	3
82	100	1
13	39	2
5	5	7
59	97	1
148	149	1
151	151	2
135	146	1
67	85	2
105	105	2
132	160	1
59	59	2
83	85	2
148	151	4
148	153	2
150	179	3
36	51	3
49	60	7
128	139	2
78	84	2
146	160	2
142	149	3
122	131	1
26	44	1
105	111	3
0	20	2
2	4	5
157	157	3
9	34	1
20	150	1
4	6	1
128	130	1
31	31	4
133	153	1
94	95	1
136	140	1
139	148	1
15	33	2
28	37	1
70	71	3
122	134	1
142	154	2
149	167	2
99	118	2
50	50	1
115	127	2
22	36	1
56	58	3
21	29	1
43	60	1
114	125	1
117	118	2
155	193	4
106	111	1
65	77	4
181	184	2
62	62	1
135	143	1
142	172	1
30	30	2
106	106	3
44	44	2
180	191	1
185	186	2
115	115	3
43	43	2
61	76	5
100	103	1
175	179	1
134	152	1
56	56	3
95	95	2
191	191	3
122	128	1
74	80	1
89	95	1
148	148	1
70	75	2
131	134	1
6	20	2
170	170	2
124	131	4
85	85	2
194	197	1
140	153	2
20	20	3
41	55	1
186	196	1
183	190	2
130	132	1
176	191	2
80	80	2
48	48	1
49	65	1
166	166	2
152	152	2
150	171	1
107	125	1
97	100	2
64	64	2
14	15	1
146	149	3
25	25	2
102	105	1
3	6	1
189	189	1
79	80	1
21	168	1
135	158	2
139	149	2
42	42	1
55	60	2
180	180	2
163	165	1
65	66	1
162	176	2
18	27	2
118	121	1
26	37	2
187	189	3
39	44	2
136	143	1
141	143	1
125	142	4
165	178	2
165	179	1
88	89	1
177	192	2
82	83	1
57	64	1
27	28	1
185	196	1
40	41	2
27	42	3
144	145	1
8	24	1
132	141	1
17	36	1
4	5	2
149	168	1
173	188	1
33	45	1
13	23	4
155	183	2
2	5	1
38	40	1
36	36	2
39	39	1
114	133	2
11	15	2
21	21	1
102	102	1
30	31	2
96	96	3
16	16	1
166	185	1
30	50	2
0	0	1
13	35	1
154	156	1
23	24	1
15	32	1
115	158	1
72	72	1
36	40	1
13	13	2
98	120	2
85	101	1
68	68	1
77	84	2
8	12	3
81	81	1
113	113	3
154	172	1
41	41	1
16	183	1
138	138	1
121	126	2
155	156	1
186	186	3
0	4	1
13	40	2
63	67	1
139	152	1
86	97	1
133	135	2
175	194	1
88	88	1
78	82	1
175	182	1
124	136	1
35	35	1
155	159	1
179	196	1
104	110	1
177	180	1
158	166	1
7	30	2
124	133	1
32	48	1
50	61	1
49	87	1
103	117	1
40	51	1
53	53	1
140	158	1
116	171	1
195	197	1
121	142	1
190	196	1
114	114	1
128	129	1
182	185	1
103	114	1
95	97	1
26	40	1
40	56	1
149	161	1
2	21	1
157	166	2
54	59	1
5	131	1
139	139	1
70	70	1
163	187	1
165	175	1
142	153	1
