66	67	6
77	77	3
74	75	4
104	104	10
120	137	1
30	30	6
144	144	5
67	69	4
125	125	7
124	139	5
76	79	2
9	9	14
111	111	3
23	23	4
102	102	4
68	71	4
65	66	2
38	38	11
81	99	2
138	138	14
109	127	1
76	76	8
65	79	2
8	9	5
34	34	6
112	112	5
137	137	7
37	103	2
133	133	3
116	117	11
36	36	5
4	4	6
70	120	1
17	22	1
17	17	3
67	77	3
55	55	4
77	79	1
14	15	1
52	92	3
128	129	6
125	132	3
89	91	1
70	122	1
117	119	2
42	42	5
2	34	4
135	135	7
53	54	1
101	101	7
113	116	3
122	123	7
138	139	8
84	84	1
57	123	1
59	60	3
95	95	2
130	130	6
37	37	11
4	5	6
116	116	3
12	12	3
54	54	7
18	18	5
111	137	3
43	43	6
20	20	8
124	124	4
131	146	3
126	126	6
2	2	5
70	71	3
47	52	1
66	66	1
31	131	1
33	37	4
112	117	1
5	5	14
136	137	2
80	81	3
10	11	1
69	69	6
101	103	1
10	10	7
71	141	1
31	31	7
91	92	6
16	16	5
52	52	3
41	41	8
105	105	6
25	25	12
97	98	3
8	23	1
119	119	4
132	136	4
78	78	7
63	63	5
71	119	2
137	139	1
101	104	1
39	39	7
75	121	1
132	133	4
110	110	6
109	137	5
59	59	7
14	14	10
93	95	2
113	113	9
49	49	9
89	89	2
3	15	1
64	64	3
47	47	6
117	118	3
129	130	5
8	11	2
62	63	2
40	41	1
71	71	3
30	31	4
81	101	3
2	96	5
91	91	2
24	25	3
123	123	6
122	122	5
48	74	1
35	36	7
31	32	1
60	60	4
121	121	3
82	82	4
4	34	2
68	68	5
127	127	7
128	128	5
108	128	3
83	83	12
142	142	9
97	97	3
72	73	3
92	92	6
26	26	9
36	74	1
145	145	11
15	16	6
64	83	3
103	104	3
86	86	2
50	51	4
24	24	7
15	31	2
85	89	2
92	94	5
132	137	1
28	29	2
104	105	2
117	117	5
27	27	6
58	59	2
79	79	7
6	6	2
143	144	2
104	106	1
50	50	2
132	132	4
110	138	2
65	65	4
13	13	1
120	120	3
70	70	2
100	100	6
64	71	1
52	53	2
27	28	1
51	51	3
52	73	1
96	101	1
66	79	1
56	56	4
60	61	4
96	96	3
124	133	1
57	57	6
125	136	4
114	114	7
76	80	2
0	0	2
128	139	4
115	116	1
112	113	2
50	74	2
37	71	2
139	139	5
21	22	2
25	34	2
71	72	1
61	62	2
17	19	2
143	145	2
25	33	2
107	108	1
42	124	3
9	39	1
33	105	2
52	55	3
99	99	1
85	85	2
118	119	2
40	51	2
89	90	7
19	19	2
69	137	3
48	50	2
146	146	2
11	23	2
51	73	3
39	40	1
33	33	3
115	115	4
55	82	2
42	43	2
25	50	3
143	143	3
103	125	2
130	131	1
62	143	4
125	126	1
38	39	1
105	106	2
71	127	1
136	136	2
28	28	2
39	43	1
57	75	2
75	75	3
14	95	1
11	11	1
2	3	3
90	90	7
58	121	2
141	142	4
90	91	1
118	126	2
124	130	3
86	87	8
94	94	1
134	134	7
64	67	4
81	86	4
18	20	2
51	64	1
24	33	3
1	1	3
80	82	2
3	19	2
0	146	3
40	40	1
53	53	4
124	136	3
109	109	3
120	122	3
81	81	1
90	93	1
64	68	1
87	87	2
0	35	3
119	125	1
18	19	3
11	38	2
137	138	3
79	80	1
25	26	2
94	97	3
124	125	1
68	69	2
22	42	1
113	114	1
41	88	2
13	36	1
39	112	1
74	74	3
65	78	1
72	72	1
47	48	2
14	56	1
110	111	2
140	140	2
112	114	1
10	39	1
119	138	1
10	76	2
114	115	2
63	141	1
42	117	1
106	106	2
6	21	2
48	48	3
74	121	1
51	53	1
64	66	2
36	38	2
107	107	1
73	73	3
120	121	1
134	135	2
20	21	4
93	124	1
19	23	1
48	107	2
61	61	2
85	86	1
110	130	1
100	102	1
86	88	1
100	101	1
103	103	1
93	93	1
79	91	2
32	32	2
111	118	3
39	74	1
0	63	1
102	103	1
77	78	2
20	23	2
47	75	1
13	14	3
141	141	2
4	20	1
17	20	2
96	97	1
107	120	1
99	101	2
35	35	3
62	62	1
129	129	2
36	42	2
29	29	2
82	83	2
0	38	1
43	122	1
23	33	1
24	26	1
76	77	1
41	72	1
54	55	1
105	107	1
58	58	1
20	24	1
15	15	2
88	89	2
81	108	1
68	70	1
85	98	1
142	143	1
137	142	1
121	143	1
132	140	1
119	120	1
83	88	1
92	93	1
108	108	1
42	61	1
59	121	1
33	61	1
