223	224	3
164	220	1
107	107	14
78	78	8
166	166	11
59	59	18
39	39	11
225	225	12
203	203	5
201	201	11
210	210	18
172	172	21
243	243	3
154	154	12
94	94	19
64	65	7
118	118	13
52	52	11
200	201	5
82	207	2
70	74	1
87	87	9
57	61	8
236	237	12
206	206	11
104	106	4
54	55	4
244	244	18
87	88	6
105	105	10
197	197	5
226	226	7
202	202	11
76	78	4
196	196	5
52	53	8
37	37	11
169	169	14
109	110	1
233	233	9
176	178	3
20	20	15
67	68	5
74	74	14
210	211	6
19	19	19
155	155	17
1	1	20
18	18	10
195	195	12
88	88	15
38	39	12
156	156	6
241	241	15
191	191	13
110	110	11
91	91	13
44	45	7
241	242	5
179	179	35
10	10	22
120	120	6
42	42	21
177	178	8
182	183	2
80	206	3
4	5	6
184	185	3
178	201	3
31	31	23
170	192	5
178	186	2
46	46	9
192	192	11
15	43	3
100	100	13
7	7	23
85	86	3
58	58	14
166	168	11
194	194	9
208	208	11
36	230	3
240	240	14
218	219	2
215	215	15
205	205	17
229	229	6
90	92	11
170	170	12
51	51	17
84	84	14
119	119	5
66	68	1
14	15	4
79	79	11
5	5	25
9	9	15
179	180	5
144	145	1
112	114	2
40	41	1
33	34	9
247	247	15
173	173	11
11	11	15
66	66	6
227	248	1
218	220	4
153	157	1
162	162	20
90	91	11
49	49	6
106	106	21
111	111	25
113	120	2
68	68	12
176	177	9
56	59	1
178	178	10
53	53	18
92	93	4
40	40	10
29	29	21
44	44	13
8	8	13
22	22	15
119	153	1
17	17	6
181	182	5
116	119	1
164	167	2
208	209	5
234	234	8
113	113	17
62	63	8
174	202	4
187	187	4
116	116	11
158	158	11
41	41	10
246	246	20
233	237	3
50	50	7
90	90	21
80	80	4
197	198	10
12	12	21
213	213	12
48	48	13
3	3	19
14	14	10
190	190	12
86	86	9
72	72	15
146	146	6
45	45	17
220	225	6
237	237	13
221	221	15
93	93	13
75	80	4
248	249	3
188	199	4
201	202	1
54	56	2
4	7	3
67	67	13
193	193	12
165	169	3
180	180	16
220	221	5
184	201	4
114	114	5
157	157	7
17	150	2
212	212	11
115	115	8
167	169	1
234	235	5
80	82	2
60	60	18
85	85	8
171	172	2
181	181	17
64	64	22
239	239	13
81	239	2
199	200	4
232	234	5
213	223	2
32	33	7
175	176	9
71	71	9
104	104	10
63	66	2
106	108	7
94	109	2
4	4	22
219	219	8
176	190	2
44	212	3
238	238	9
211	211	15
47	117	1
30	31	3
149	149	2
97	97	12
229	230	4
70	70	15
15	15	9
168	168	6
184	184	7
207	208	3
67	74	1
6	7	14
72	157	1
111	112	4
20	55	2
163	163	12
99	99	11
105	108	1
236	236	11
165	165	12
61	61	10
183	188	5
172	220	1
226	227	2
47	50	3
218	218	5
232	233	2
152	152	7
28	28	8
75	76	8
2	2	9
215	217	2
167	168	2
177	177	13
150	150	22
92	92	16
200	200	16
237	239	4
203	204	6
229	231	2
57	67	1
109	109	4
73	74	3
220	220	21
9	10	6
158	211	1
236	238	2
30	30	16
204	204	8
63	63	8
207	224	4
245	245	21
98	99	2
161	198	1
160	160	14
185	185	15
209	209	19
38	38	11
181	246	2
29	30	3
235	235	5
152	153	8
76	76	12
98	98	14
81	81	13
8	9	6
107	108	2
244	245	2
24	33	2
23	23	10
219	220	2
80	81	9
94	150	1
92	109	2
33	41	2
182	182	12
188	194	3
109	150	4
34	35	4
214	214	9
169	246	1
95	95	7
114	116	3
28	29	4
51	98	2
242	242	9
75	75	17
163	164	6
119	120	1
164	164	6
217	217	16
117	117	6
223	223	15
60	66	5
189	206	2
245	246	4
154	170	2
39	40	5
222	222	9
183	185	7
25	25	13
216	225	4
112	118	1
116	117	1
10	11	5
188	189	2
114	119	2
79	80	2
186	186	13
161	161	10
230	231	6
36	36	14
102	102	9
182	244	2
197	223	1
242	243	6
65	65	13
21	21	7
32	32	12
237	243	2
176	176	15
243	244	6
112	112	7
69	70	6
6	11	4
171	224	2
172	173	7
243	245	3
183	183	8
65	82	3
194	195	1
78	189	1
179	184	4
66	67	2
212	213	3
77	111	1
47	119	2
20	22	3
162	163	7
195	222	2
65	155	2
193	194	7
82	83	1
94	108	4
156	209	6
26	26	9
61	62	1
35	35	7
163	165	2
159	159	12
145	145	7
73	75	4
20	89	2
105	106	9
70	84	1
64	81	4
93	102	3
217	219	5
172	218	5
227	227	10
58	106	2
178	180	1
112	116	1
119	144	1
24	35	1
174	174	4
72	73	4
76	79	2
171	171	5
169	170	7
231	231	11
183	226	2
69	71	1
151	151	7
36	37	2
181	183	2
30	36	1
11	12	2
198	198	19
7	8	6
103	103	3
53	54	2
78	80	3
77	77	10
212	214	2
190	192	2
159	160	2
69	69	10
209	210	3
167	225	3
13	44	1
24	24	10
165	166	5
47	47	12
27	27	3
150	151	3
227	247	2
115	215	3
104	105	5
115	119	1
227	228	2
72	103	2
21	22	7
55	55	13
81	207	3
58	59	5
68	69	4
229	234	1
108	108	7
37	38	2
102	104	5
199	199	11
33	33	11
96	96	2
106	107	6
158	159	4
214	225	4
43	43	16
235	236	3
34	39	4
93	101	1
214	224	4
99	100	4
169	247	1
119	152	4
167	167	4
16	16	7
212	221	1
183	194	1
26	27	5
89	114	4
164	165	4
153	153	7
86	235	2
21	87	1
62	70	2
88	112	2
36	40	2
17	18	6
92	119	2
229	246	2
5	6	2
242	244	2
12	26	1
6	6	8
61	68	1
24	25	3
33	42	1
189	189	6
1	3	4
73	73	7
221	222	3
118	214	4
2	3	1
55	56	6
34	34	7
193	244	1
168	247	3
22	23	6
196	210	1
51	95	1
18	19	4
169	220	1
198	202	1
87	112	4
114	115	2
173	174	6
60	61	1
24	56	2
106	157	3
48	49	4
195	199	2
186	247	2
102	103	5
89	89	13
157	158	6
164	166	4
97	98	12
187	189	5
183	184	1
83	83	5
93	103	5
61	63	2
68	70	1
217	218	3
166	246	1
63	64	1
198	199	3
112	152	3
58	60	1
117	118	4
225	226	3
214	215	4
93	166	1
57	58	6
13	14	2
88	145	2
45	46	2
77	80	2
215	222	2
82	82	2
46	101	3
175	175	10
194	222	2
57	57	8
54	54	5
101	103	4
101	101	4
59	62	2
192	206	1
19	54	1
89	90	6
1	2	3
91	211	3
238	239	2
38	224	3
183	189	3
180	205	1
88	89	3
206	207	5
93	94	4
111	145	4
246	247	3
190	195	2
185	186	2
44	222	1
178	179	1
96	97	4
207	207	7
228	238	1
46	52	1
90	119	1
171	174	4
192	210	1
226	228	1
12	22	1
175	183	2
247	248	2
154	156	1
224	224	4
71	106	1
65	67	3
170	171	2
188	188	9
165	167	2
99	107	1
21	54	1
54	68	1
113	115	4
152	160	1
48	50	1
195	196	3
217	225	1
190	208	1
213	214	3
156	157	2
53	86	1
98	159	3
165	182	1
117	240	2
183	222	1
174	175	3
163	167	1
91	92	3
180	181	1
35	36	2
216	216	8
222	223	2
201	203	4
190	191	2
59	60	3
233	239	2
60	80	1
2	4	3
94	116	2
99	101	4
20	21	1
232	232	4
22	24	5
10	25	1
96	101	1
87	108	3
62	62	1
62	67	3
215	221	1
2	30	2
38	221	1
71	72	2
204	205	4
16	33	2
103	121	1
47	51	3
47	48	2
47	99	2
207	239	1
12	15	1
172	174	1
171	176	1
76	77	4
78	83	1
169	171	1
80	83	1
243	246	2
60	62	1
20	45	1
112	113	2
179	181	1
115	116	1
166	182	3
215	216	1
4	11	2
240	241	1
148	149	1
100	101	6
95	96	1
52	214	1
157	209	1
84	85	1
147	229	2
15	17	2
237	238	1
195	197	2
51	83	1
162	165	2
101	102	2
65	66	2
19	45	2
56	56	4
119	174	1
59	109	2
196	197	1
249	249	1
118	174	2
65	81	1
118	153	3
70	156	1
94	95	2
189	190	1
33	43	1
10	12	1
248	248	4
216	217	2
42	45	1
62	65	1
67	77	1
36	38	2
81	82	3
48	82	1
102	111	1
144	144	1
211	213	2
32	43	1
174	190	1
180	207	1
168	169	3
63	114	1
189	193	1
5	7	1
228	228	3
151	152	1
93	162	1
0	0	1
63	67	1
75	241	1
171	246	1
103	105	1
230	230	1
52	87	1
163	216	1
189	194	2
90	113	1
164	168	1
160	161	1
53	120	1
40	100	1
113	116	1
144	207	1
15	27	1
115	204	1
12	53	1
213	224	1
22	109	1
22	150	1
8	29	2
239	240	1
70	109	1
142	142	1
146	204	1
147	147	1
185	220	1
149	162	1
34	40	1
70	71	1
189	192	1
220	223	1
67	75	1
32	209	1
22	26	2
55	87	1
78	87	1
108	109	1
227	231	1
7	30	1
190	194	1
24	34	1
48	99	1
227	230	1
182	226	1
233	234	1
161	162	2
224	225	1
210	224	1
13	13	1
69	83	1
77	78	1
87	96	1
57	59	1
229	239	1
42	43	1
