87	87	15
32	32	4
52	52	18
60	61	6
56	101	2
40	41	8
41	41	20
56	59	3
98	98	8
59	59	11
81	84	1
85	86	9
45	45	10
44	44	11
46	46	11
85	85	23
54	54	16
64	64	18
42	47	2
66	83	6
71	89	1
89	89	15
38	38	13
68	69	9
71	71	28
90	90	10
88	88	17
94	96	2
77	78	6
75	75	21
73	74	8
58	58	8
62	63	4
74	79	4
69	69	24
55	57	3
80	99	1
73	73	20
70	70	20
67	67	15
65	65	25
27	28	7
79	79	8
50	51	6
47	52	3
58	62	3
77	77	26
80	80	22
57	57	15
91	98	2
43	43	16
85	90	2
38	94	2
55	60	1
26	79	3
67	69	5
64	70	1
68	68	27
86	86	18
91	94	1
42	42	23
35	36	5
61	62	8
72	73	8
25	25	1
50	50	9
28	28	3
26	26	19
96	96	19
48	86	2
48	48	12
86	87	17
75	77	12
61	61	13
67	70	4
81	81	24
63	63	20
26	29	4
80	81	8
22	22	9
23	84	1
56	58	2
76	76	19
88	89	5
92	92	13
93	93	8
36	36	7
101	101	11
29	90	1
39	61	4
64	66	5
34	34	3
24	25	2
39	39	8
52	54	1
82	84	7
66	66	20
74	74	26
75	78	2
67	68	7
93	94	4
89	91	2
91	91	11
86	89	3
77	79	7
47	47	6
27	27	5
84	86	3
20	28	2
35	35	7
52	53	4
42	43	4
90	91	8
26	78	5
36	38	2
43	48	2
59	65	3
87	88	4
23	23	4
61	88	1
74	75	4
54	57	6
27	62	5
58	101	6
83	83	12
20	22	3
79	83	2
74	86	4
56	60	2
56	69	3
39	47	2
90	96	1
78	78	24
57	63	2
31	31	5
99	99	8
60	62	4
49	49	6
81	94	1
51	51	4
24	24	6
65	87	2
70	71	5
99	100	2
79	96	1
63	71	1
23	25	1
46	47	1
60	60	12
61	68	2
60	63	3
77	84	1
43	44	3
95	98	3
49	50	11
66	77	4
78	80	1
84	85	1
80	94	1
47	51	3
76	77	10
66	76	2
20	20	1
95	95	2
87	92	1
68	74	1
79	86	2
80	86	1
77	80	1
71	76	1
79	81	3
64	75	4
96	97	4
61	89	1
97	97	1
52	57	1
65	66	2
60	99	4
56	56	6
67	72	1
79	80	3
64	67	2
83	85	7
31	59	1
62	89	4
29	95	3
33	87	7
100	100	10
62	62	5
66	67	6
33	33	5
28	46	2
65	70	2
91	93	4
32	92	2
59	64	1
25	26	3
40	40	11
34	36	2
42	44	2
102	102	4
81	95	1
81	82	1
41	42	2
67	73	1
69	70	5
72	72	8
30	30	2
29	29	5
63	64	6
82	82	2
36	50	2
40	93	2
56	65	3
47	49	5
44	45	2
24	95	1
75	76	3
37	37	6
37	38	1
34	44	5
92	94	5
98	100	3
100	101	1
81	83	4
62	66	3
37	92	2
84	84	2
81	86	1
36	40	2
70	72	1
50	55	1
29	52	2
61	84	1
22	23	5
80	95	1
25	27	1
54	56	1
69	79	1
43	46	2
99	101	2
51	56	1
54	60	3
36	39	1
52	100	3
66	73	1
76	84	4
25	29	1
75	85	2
62	99	1
28	31	1
72	77	1
55	56	4
86	88	1
80	82	4
95	97	3
92	93	6
23	24	1
34	35	5
80	102	1
78	79	1
89	90	1
34	89	2
67	75	1
42	99	2
64	65	2
39	41	3
70	74	2
59	60	1
62	65	1
61	63	4
47	89	1
33	34	3
63	67	1
77	82	2
58	59	1
43	45	1
78	81	1
61	77	1
80	96	1
69	73	1
35	92	2
26	81	1
27	38	2
65	71	1
72	75	1
73	83	2
57	100	3
44	59	1
53	53	2
71	72	1
69	71	4
64	68	1
70	76	1
34	99	1
66	71	1
32	36	1
55	55	1
68	71	1
39	40	1
53	101	1
76	78	1
36	37	1
101	102	2
50	80	1
67	76	1
79	82	1
88	90	1
87	89	1
84	88	1
68	79	1
62	91	1
41	43	1
57	60	1
44	46	1
92	102	1
47	48	1
42	68	1
25	41	1
97	99	1
30	45	1
66	68	1
97	98	1
66	78	1
64	74	1
39	45	1
56	57	1
34	62	1
