27	27	3
68	68	2
20	58	5
37	37	6
38	39	6
39	39	3
35	83	2
106	108	2
33	33	8
109	109	5
65	67	2
100	100	9
54	84	5
97	97	3
94	94	4
54	54	2
51	51	12
46	46	12
87	88	3
43	44	1
89	89	2
88	88	1
95	95	4
111	113	5
103	103	1
78	78	5
30	113	1
108	108	3
41	81	2
81	82	4
36	37	3
28	29	2
28	28	6
104	104	5
40	60	4
72	73	2
50	51	5
99	108	3
69	69	4
31	74	2
105	105	3
30	34	2
101	103	2
20	20	8
98	98	6
93	94	3
109	111	1
59	59	1
95	96	3
68	82	5
106	107	2
101	101	5
27	28	1
100	101	1
92	92	5
35	36	2
92	93	3
91	92	1
81	84	5
42	43	2
39	88	2
56	58	1
102	105	1
106	106	4
65	65	1
71	71	1
112	113	1
48	49	2
55	55	1
45	45	5
104	105	2
22	22	11
90	90	1
63	78	3
77	77	5
21	21	4
109	110	3
25	72	2
21	23	2
30	33	3
43	43	5
25	40	2
88	111	1
32	32	5
79	79	3
23	23	6
22	24	1
38	85	2
61	88	2
32	34	2
66	67	3
67	67	2
89	91	3
96	96	6
41	42	1
24	24	6
34	34	7
39	40	2
31	31	5
91	91	9
47	47	4
42	53	2
44	44	3
83	84	2
87	87	7
100	102	1
52	53	1
99	99	10
61	63	3
114	114	1
62	64	2
49	95	1
51	95	1
64	66	3
82	83	1
52	93	2
105	108	3
22	23	2
113	113	2
77	78	1
31	32	3
110	112	3
47	48	1
42	42	1
89	112	1
98	111	2
70	86	1
40	40	4
102	102	2
76	76	3
86	86	3
89	90	2
33	34	2
112	112	1
84	84	3
29	29	1
36	36	4
87	91	3
25	37	1
32	49	1
77	112	2
107	108	2
61	62	1
57	57	1
98	99	1
56	56	1
81	81	3
46	75	1
41	45	1
63	64	2
59	73	1
106	112	1
35	35	1
60	103	3
66	66	1
96	99	1
53	53	1
64	67	2
62	62	1
96	97	1
26	26	1
72	72	1
76	78	2
64	64	1
90	91	2
45	46	1
68	69	1
30	30	1
80	80	3
39	90	2
41	41	1
108	109	1
73	73	1
75	75	2
48	58	1
84	85	2
26	31	1
100	111	2
20	24	1
30	90	1
32	74	1
50	52	1
102	112	1
42	44	1
97	112	1
90	95	1
