26	26	17
18	34	1
98	98	6
64	64	16
23	23	5
79	81	3
67	67	4
108	108	4
85	85	6
24	24	6
100	100	4
12	100	2
79	79	8
92	93	4
51	135	4
95	97	4
106	106	8
14	15	4
101	101	12
56	56	7
103	103	10
52	52	6
34	34	11
25	25	4
114	114	9
37	37	5
22	22	4
107	107	5
128	128	8
60	60	8
62	63	7
94	94	9
79	80	5
37	38	2
133	133	4
43	43	16
17	18	1
44	44	11
124	125	3
115	115	5
106	133	6
111	111	9
10	11	8
55	55	7
121	121	4
1	1	9
28	28	5
5	6	7
61	61	10
95	95	4
16	18	3
131	132	4
123	123	5
62	62	8
36	37	5
135	135	3
70	70	13
76	76	9
74	75	1
55	57	3
44	45	4
122	123	11
102	128	1
114	115	11
44	49	2
102	103	3
1	2	2
1	5	5
117	117	13
63	64	2
33	34	3
85	87	2
119	119	5
72	72	5
31	31	16
118	119	4
50	50	8
91	91	19
118	118	4
126	126	8
102	102	3
57	79	2
80	80	10
67	68	2
97	97	7
122	122	11
93	93	6
95	96	5
49	49	4
89	90	1
54	54	6
18	18	7
73	102	1
75	76	3
91	113	2
66	66	10
17	17	8
110	112	1
15	16	4
77	78	3
116	116	1
63	65	4
16	16	11
63	63	10
32	32	3
60	86	1
27	27	8
104	104	7
21	21	3
109	109	3
108	132	5
46	46	1
65	67	1
99	99	8
65	65	4
127	127	3
10	10	4
116	119	2
87	87	4
4	4	5
86	87	5
13	14	3
113	115	4
65	66	4
90	90	10
112	112	11
33	33	5
6	6	2
105	105	4
0	0	7
104	121	2
29	30	3
2	4	3
124	134	2
51	52	4
12	13	3
64	68	4
110	110	2
5	7	4
12	12	6
112	124	2
123	124	6
84	85	4
34	38	4
30	31	3
7	8	1
125	125	4
11	11	8
45	45	3
121	122	2
36	36	8
82	82	1
75	75	4
33	46	1
74	74	5
98	134	1
120	121	1
53	53	4
117	121	1
8	43	1
31	32	2
130	130	3
126	127	1
31	33	2
22	23	4
32	33	1
129	129	5
130	133	5
59	59	6
15	15	8
29	29	11
14	14	3
108	111	1
106	132	1
77	77	4
11	29	1
6	7	3
115	130	1
9	11	2
23	67	1
35	50	5
80	95	2
96	97	1
30	30	1
83	83	4
120	120	4
75	86	1
128	129	1
54	55	2
121	123	6
35	37	2
16	17	4
69	69	1
0	1	1
23	29	2
104	116	1
20	20	4
86	88	1
19	20	2
64	65	3
132	132	2
78	78	2
84	84	2
55	131	1
60	61	1
124	124	5
4	5	3
88	88	2
71	71	1
19	50	2
19	34	1
61	62	1
74	88	1
79	96	1
7	9	1
16	48	1
5	5	4
89	89	3
17	20	2
3	3	6
73	73	3
73	74	1
98	99	2
48	48	4
60	62	3
54	75	1
127	128	1
115	116	1
54	94	3
129	132	1
119	121	2
91	92	1
6	44	1
97	98	1
25	26	2
57	57	1
37	128	1
47	65	2
76	77	1
63	81	1
66	77	2
104	105	4
67	77	2
75	99	1
73	80	1
131	131	5
113	130	1
8	8	3
9	9	3
4	57	2
65	99	1
23	26	1
88	91	1
6	8	1
99	100	2
27	28	1
91	112	1
17	45	2
106	107	1
70	102	1
83	84	2
106	117	3
3	17	1
35	35	4
54	57	1
43	44	1
13	13	1
70	72	1
47	49	1
108	117	1
64	66	1
107	115	1
12	14	1
47	101	1
116	120	2
81	81	1
12	30	1
86	86	2
102	127	2
72	80	1
102	105	1
113	113	1
13	72	2
37	77	1
103	133	1
78	79	1
115	124	1
