59	65	4
61	62	7
72	75	3
47	47	15
27	27	14
3	54	3
18	18	4
5	32	6
53	53	11
10	10	5
13	13	15
43	55	4
56	57	4
29	29	24
13	67	3
60	61	9
31	36	3
0	0	6
66	70	2
34	34	15
25	50	3
65	65	6
53	55	8
44	56	1
65	66	10
64	64	8
50	69	4
25	69	2
31	31	12
23	70	7
32	34	2
12	12	8
67	75	1
36	36	22
35	36	2
35	35	14
67	67	12
34	35	10
62	62	11
23	51	4
52	54	3
60	60	4
54	54	20
26	26	15
24	24	8
11	11	17
0	12	4
72	72	6
69	70	1
71	74	1
70	73	2
22	22	12
0	2	4
45	45	12
20	20	6
41	41	9
55	55	14
71	72	14
77	77	10
36	63	4
20	42	2
66	66	7
40	42	7
29	34	6
48	48	14
8	10	4
61	63	3
25	26	9
57	57	10
8	8	4
7	7	13
68	68	11
42	42	23
69	69	18
47	48	3
0	7	1
2	2	7
33	34	8
75	75	8
45	46	4
39	43	2
25	66	3
5	5	16
33	33	23
50	50	31
39	41	2
63	63	16
12	18	6
4	5	4
39	39	7
55	56	10
23	24	8
23	23	8
73	75	4
44	54	4
6	6	12
47	52	2
35	39	7
72	76	3
74	74	10
19	41	3
23	25	2
58	59	3
49	49	11
76	76	5
20	21	9
63	64	1
9	9	25
56	58	3
21	22	7
4	4	21
23	49	2
11	21	6
1	2	4
30	31	5
30	30	7
21	65	3
70	70	10
3	3	5
32	32	8
46	69	4
29	31	1
58	58	6
52	52	11
38	38	5
54	55	7
53	56	7
6	7	3
19	19	3
49	51	3
21	49	3
24	28	2
51	52	1
63	71	1
21	21	5
44	44	22
71	73	2
36	37	1
12	13	4
31	33	2
53	70	1
29	30	3
5	70	2
51	53	1
71	71	8
43	43	6
28	28	12
20	76	6
27	28	6
41	49	2
59	59	9
31	32	2
25	25	8
6	22	1
28	42	1
33	52	4
8	9	4
21	23	4
47	50	2
37	37	10
5	7	2
32	33	1
2	60	4
37	38	4
36	38	1
56	56	10
1	1	3
22	49	2
70	71	1
40	40	7
35	37	2
10	21	1
45	77	1
51	51	3
64	65	3
73	73	4
49	50	9
0	1	5
18	20	1
72	73	2
63	66	3
46	51	2
6	11	1
75	76	2
3	4	3
10	11	4
57	58	5
52	53	3
50	51	1
46	49	1
55	73	1
48	52	4
41	42	3
39	42	1
22	24	3
46	48	2
22	51	1
7	74	1
46	46	4
73	74	1
67	68	2
6	72	2
61	61	3
22	47	1
10	71	2
54	71	2
74	78	2
10	14	1
22	23	5
9	11	3
46	47	2
74	75	3
68	69	3
44	45	3
64	66	3
38	63	1
49	69	2
46	70	1
3	5	1
61	64	2
69	72	3
30	32	2
40	41	1
43	44	2
20	75	2
11	42	4
30	42	1
7	57	1
46	53	1
45	69	3
5	73	1
45	66	3
55	76	1
47	55	1
19	20	1
19	35	2
57	62	3
13	58	2
36	49	1
57	59	1
58	60	1
38	39	1
60	63	1
76	77	1
6	32	1
9	10	2
13	14	1
8	21	1
4	27	2
38	40	1
50	52	5
47	49	1
19	22	1
54	62	1
61	74	1
21	42	1
13	57	2
2	3	2
26	67	1
4	32	1
6	23	1
43	77	1
62	63	1
5	10	1
59	60	1
23	26	1
