134	134	2
128	128	4
136	136	3
121	121	3
133	151	1
23	56	1
117	117	4
65	65	3
68	68	3
152	152	3
75	117	1
20	51	1
137	137	3
23	29	6
40	109	2
97	97	1
50	50	2
29	29	2
72	73	2
26	26	6
69	69	4
153	153	2
92	92	5
10	10	3
3	4	1
12	12	7
27	28	2
110	111	7
87	87	7
0	0	7
37	37	2
79	79	3
81	81	3
92	94	2
96	97	4
138	138	6
148	148	5
82	82	4
90	90	5
9	9	7
84	84	4
107	108	2
151	151	6
105	105	4
85	85	3
123	123	5
23	23	2
21	22	6
20	20	3
141	141	5
7	51	1
91	91	1
104	105	4
133	133	6
137	138	3
125	127	4
77	78	4
72	72	4
115	116	1
112	112	4
119	119	3
113	113	3
157	157	5
124	126	2
103	103	5
25	25	3
112	113	5
54	54	5
20	21	3
149	149	3
110	110	1
33	33	3
125	152	1
120	120	3
108	108	6
42	42	1
38	38	2
83	131	1
158	158	9
142	143	1
107	107	1
124	124	2
5	5	3
8	8	1
68	71	2
77	77	2
130	130	4
88	88	9
52	52	5
130	132	1
28	82	3
14	14	2
124	125	6
62	62	2
126	130	1
97	98	3
71	71	1
86	87	6
142	142	4
48	49	2
53	53	2
84	86	1
63	64	5
35	35	4
89	96	2
122	144	3
22	22	4
76	76	1
3	3	4
50	51	3
25	26	1
155	155	3
53	54	1
7	7	4
132	132	3
28	28	3
78	78	3
136	153	2
77	113	1
142	148	1
144	144	2
124	127	1
46	46	2
127	127	2
23	24	2
8	52	1
144	146	2
64	64	5
40	40	2
34	34	1
155	156	1
5	108	1
114	115	2
41	41	8
129	130	2
131	132	2
111	111	2
124	152	2
95	95	1
136	137	4
37	38	4
16	16	6
154	154	2
10	11	1
16	131	6
4	4	1
83	84	3
146	146	1
84	85	1
142	145	2
109	109	1
118	118	5
66	66	1
12	18	1
87	88	3
145	146	3
126	126	4
93	94	3
29	30	1
83	83	3
122	123	3
19	111	4
47	48	1
24	37	3
95	96	1
133	134	2
17	17	6
44	44	1
114	114	3
6	6	3
101	101	1
75	75	6
125	125	1
42	43	2
127	130	1
43	43	1
15	16	3
86	127	3
36	37	1
24	24	3
51	52	5
139	139	1
154	155	2
70	71	2
21	21	2
109	111	3
30	30	2
94	95	1
88	96	2
73	74	1
68	69	1
91	92	1
73	73	1
18	19	2
46	48	4
15	15	1
103	104	1
31	33	1
104	104	2
27	27	1
77	115	1
132	133	2
17	51	1
40	56	1
28	81	2
39	111	1
110	128	1
116	116	2
125	126	1
80	80	1
135	135	1
67	67	2
69	138	1
5	31	1
150	150	1
140	140	1
33	47	1
123	154	1
124	135	1
48	48	2
92	93	1
38	39	1
81	82	1
66	150	1
