103	103	18
121	121	8
24	24	21
49	131	2
15	16	10
186	186	11
226	226	21
69	69	11
227	227	20
109	109	10
11	11	15
114	241	3
233	233	15
179	181	2
170	205	4
122	122	9
144	144	9
76	76	8
95	95	6
35	36	8
204	204	12
176	176	17
4	4	9
72	127	4
45	46	10
20	20	14
21	22	9
120	180	2
237	237	10
222	222	13
52	52	10
209	209	10
134	134	7
120	121	7
51	52	4
129	130	10
205	207	5
58	58	11
132	132	8
66	74	5
86	86	9
88	88	8
27	27	17
197	197	13
11	177	3
57	58	3
207	208	1
234	234	19
67	68	11
32	32	10
79	79	21
36	36	15
152	153	8
187	196	1
115	136	1
97	97	5
0	0	12
179	179	21
119	119	19
60	61	1
182	182	15
236	236	14
17	18	9
166	166	7
197	198	10
158	158	14
12	12	18
157	157	11
20	36	8
8	8	23
83	83	8
230	230	9
212	212	7
156	157	9
140	141	21
200	202	2
146	146	6
19	20	2
74	74	8
171	172	5
66	66	13
232	232	25
145	145	11
128	128	13
50	50	17
14	14	7
74	75	6
224	228	2
71	72	8
214	214	19
117	117	13
179	180	6
64	64	16
18	19	6
239	239	9
184	184	13
21	21	20
118	118	6
241	241	9
185	186	3
206	206	14
71	71	17
116	116	3
1	1	16
172	172	17
45	45	6
101	101	4
207	207	20
168	168	7
181	182	4
141	147	1
81	164	3
25	25	13
180	181	3
129	129	13
58	59	6
219	219	15
200	222	1
62	133	2
35	35	12
7	8	8
34	34	17
215	215	7
99	100	2
189	189	7
218	218	10
125	126	7
144	145	6
53	53	9
190	190	3
37	75	9
98	98	3
230	231	11
30	30	9
232	233	6
195	195	11
107	108	4
17	17	10
47	55	3
193	211	3
84	84	23
216	217	2
44	45	5
104	104	13
160	160	10
15	15	19
106	107	3
223	224	7
200	200	12
78	78	11
144	147	5
165	166	2
67	67	14
148	148	14
70	70	13
29	37	5
71	85	3
24	25	3
226	227	8
193	196	2
33	36	1
56	56	8
65	65	11
3	3	17
202	220	2
11	15	6
116	172	2
162	162	7
142	142	5
22	23	5
39	40	6
29	30	2
23	23	17
80	80	13
76	84	2
28	28	15
25	26	2
44	44	26
238	238	11
100	100	2
60	60	9
31	31	11
77	78	6
163	163	16
217	217	6
141	141	9
173	173	9
188	189	6
131	206	2
54	54	21
133	133	15
115	115	8
72	72	5
62	62	13
7	7	23
34	35	3
196	196	6
73	74	4
5	6	6
3	5	2
212	213	11
80	85	1
103	216	3
1	4	2
151	152	5
205	205	13
161	161	7
16	17	4
215	216	9
102	102	15
154	154	10
233	234	11
166	168	9
154	155	5
171	171	7
242	242	16
208	209	4
10	21	2
108	108	11
47	132	1
55	55	6
129	135	3
102	103	8
235	235	10
10	10	18
240	240	27
81	82	8
155	156	3
118	140	1
56	57	8
170	215	4
114	160	2
4	5	7
190	191	6
150	150	5
83	84	11
49	49	13
110	110	3
128	129	5
164	164	4
92	109	1
169	169	18
125	125	15
32	34	1
22	22	7
170	171	5
221	223	3
2	9	1
225	225	11
84	85	5
149	149	2
184	199	3
43	43	16
216	216	10
203	220	4
143	143	14
155	162	1
121	122	2
209	211	3
11	178	5
22	24	1
2	2	11
54	55	4
72	77	2
193	194	3
141	143	5
119	120	3
125	127	2
123	137	2
25	29	7
190	208	2
125	132	1
19	35	2
51	51	12
153	155	1
153	154	3
227	228	1
81	81	7
234	235	4
175	178	2
221	222	10
199	223	4
21	23	3
222	223	3
96	98	4
123	123	21
112	112	8
224	225	9
137	137	12
99	99	8
39	39	16
130	130	6
202	202	10
151	151	7
26	26	7
101	103	5
123	124	4
118	119	6
24	37	2
68	69	5
198	198	5
156	236	3
194	194	4
213	214	8
67	77	8
124	124	17
41	41	7
138	140	3
220	221	8
37	55	1
62	73	10
40	41	4
103	104	4
139	139	14
154	156	2
231	231	11
49	54	3
18	21	4
209	210	8
213	215	8
75	75	10
14	15	4
186	194	2
38	38	17
43	64	1
137	138	6
47	47	18
82	83	5
61	61	8
188	188	13
47	64	3
224	224	16
29	29	6
211	211	9
7	164	3
173	174	4
2	5	3
48	48	8
217	218	4
153	153	9
196	209	7
109	110	3
203	203	9
44	47	1
30	31	5
18	18	20
211	213	2
187	189	3
4	6	7
183	183	11
122	123	9
31	32	6
167	167	25
49	53	2
161	183	2
42	42	13
119	239	1
111	111	7
147	192	3
145	217	2
32	159	1
13	21	2
3	33	6
117	118	8
66	67	4
224	226	1
26	178	3
185	185	11
113	113	6
120	120	5
27	28	4
198	199	6
130	131	1
191	192	3
9	10	1
168	223	1
27	86	2
183	185	5
159	160	6
96	96	8
235	237	3
149	150	6
37	38	3
3	109	1
180	183	2
38	39	3
103	165	2
3	162	1
82	82	5
174	174	10
124	125	6
6	6	9
139	141	7
104	105	5
219	235	1
147	147	4
114	114	5
221	221	14
167	223	3
166	167	4
126	127	9
1	2	1
165	165	10
163	164	4
129	131	1
180	182	1
147	148	11
104	106	5
229	231	4
121	237	1
178	179	8
12	82	3
15	17	4
168	170	1
143	144	8
125	134	2
77	79	2
170	170	8
33	33	11
138	143	2
0	13	1
79	80	2
187	188	7
202	203	4
156	156	7
116	171	4
85	85	3
213	213	7
58	63	2
91	91	3
178	181	3
175	177	1
63	63	6
1	32	1
200	223	1
19	19	5
154	187	1
131	205	1
200	204	2
98	99	3
175	175	8
106	106	16
184	185	6
76	78	3
162	163	4
148	149	2
136	136	9
208	208	9
177	178	6
36	37	2
28	82	2
193	193	11
220	220	12
228	228	10
76	77	7
69	70	2
167	169	2
73	73	11
193	195	1
146	214	1
11	29	3
50	51	4
192	192	5
196	208	1
80	81	3
41	78	3
177	177	11
37	37	11
155	155	7
62	63	1
181	181	6
235	236	8
97	233	1
68	68	9
6	34	4
114	115	4
127	130	2
61	62	4
134	135	3
65	73	2
54	63	2
95	119	3
2	6	1
11	28	5
150	151	4
12	14	3
42	58	1
126	126	12
163	199	2
201	201	7
135	135	8
77	77	7
69	71	2
40	40	12
42	69	1
113	114	5
99	112	1
137	139	1
105	105	8
174	175	1
223	223	4
78	79	2
223	230	2
124	129	2
192	193	6
115	117	1
49	134	1
207	222	1
211	212	3
146	160	1
48	54	1
106	185	4
227	229	1
124	126	1
225	226	1
204	207	2
9	9	5
186	187	4
116	117	3
138	138	2
103	105	3
159	159	10
229	229	8
103	213	2
196	197	1
163	198	2
191	191	4
143	145	2
140	140	2
27	139	1
44	62	4
69	77	1
136	138	1
57	57	5
178	178	5
141	213	1
161	163	1
5	5	3
84	177	4
138	139	6
41	79	1
100	111	1
142	212	3
46	46	4
33	40	1
200	207	1
105	109	1
0	161	1
25	28	1
26	27	3
172	173	2
187	187	5
214	215	2
104	107	1
180	180	10
49	50	2
107	107	5
196	215	3
43	74	1
125	129	2
101	102	4
32	33	4
155	157	3
210	210	5
191	235	1
2	7	1
53	54	3
42	75	3
47	131	2
23	36	4
28	29	3
206	207	1
176	177	2
52	140	1
161	182	2
143	216	1
15	69	1
100	101	1
70	71	1
199	200	2
164	165	3
127	127	4
68	170	1
234	236	4
159	183	1
99	111	2
120	142	1
71	86	3
47	48	1
101	109	1
12	13	5
203	221	1
203	204	1
16	20	1
189	194	1
96	97	2
201	203	3
157	159	4
45	229	3
16	16	2
46	47	1
195	198	3
43	44	3
188	193	1
13	13	1
10	11	2
104	196	1
11	39	1
189	240	1
190	201	1
228	231	3
13	19	4
161	241	1
111	112	2
31	36	2
142	144	2
20	21	4
102	160	1
3	163	1
203	206	1
192	214	1
55	59	1
28	38	2
170	204	3
48	136	1
48	49	3
200	205	1
4	162	1
223	229	2
0	162	1
59	59	5
229	230	8
194	195	1
53	59	1
2	3	2
6	165	1
168	169	2
131	219	1
222	224	3
14	69	1
116	147	2
159	161	1
38	232	2
197	211	1
17	20	1
151	181	2
3	8	1
71	73	3
178	180	2
58	60	2
127	128	2
76	85	1
96	217	1
86	88	2
75	79	1
38	74	1
119	127	1
167	215	1
182	183	1
99	120	1
30	125	1
45	61	1
214	219	2
102	192	1
0	1	2
115	116	1
53	55	2
113	146	2
5	34	1
120	122	1
163	165	1
190	193	2
72	73	3
162	184	1
44	46	2
199	199	4
49	51	1
167	168	1
76	79	1
122	135	1
21	24	2
50	232	1
162	185	1
174	198	1
49	130	1
57	198	1
145	147	2
171	176	2
163	220	1
166	169	1
138	181	1
225	236	1
180	198	1
237	238	1
223	225	1
219	220	3
237	239	2
45	65	2
152	152	2
48	138	1
165	230	1
79	192	1
115	118	1
135	136	1
70	72	1
18	23	2
146	148	1
210	226	1
46	62	2
195	196	1
212	216	2
117	142	1
236	239	1
144	149	1
70	75	1
63	64	1
64	232	1
131	131	2
85	89	1
118	241	1
105	163	2
40	69	2
14	176	2
188	202	2
78	80	1
81	83	2
52	56	1
180	190	1
97	171	1
192	194	1
45	47	1
97	98	1
139	140	2
54	58	1
42	43	1
117	126	2
169	208	2
202	210	2
149	188	1
158	159	2
27	29	2
226	228	1
214	216	1
206	222	1
161	184	1
125	135	1
231	232	1
155	199	1
102	161	1
59	60	1
105	106	1
2	33	1
0	9	1
203	205	1
85	86	1
144	146	1
163	166	1
2	8	1
204	222	1
75	76	1
23	24	1
13	14	1
25	179	1
185	187	1
136	137	1
6	7	1
8	22	1
119	126	1
108	109	1
86	179	1
