155	156	3
12	12	5
23	24	4
237	242	4
39	39	4
63	63	2
133	142	1
145	149	2
4	4	1
70	71	2
236	238	9
70	74	2
197	197	5
240	240	6
8	8	6
47	47	4
19	19	1
100	105	3
175	175	4
58	58	4
209	238	2
60	60	6
204	205	2
64	69	5
141	157	1
12	30	3
103	103	5
63	91	3
12	15	1
184	191	3
187	187	3
71	71	4
44	168	2
17	38	5
151	166	1
37	39	2
22	22	1
12	33	2
103	106	3
97	103	3
231	234	3
154	164	2
86	88	11
134	135	6
189	213	3
149	150	1
231	232	1
45	46	8
20	35	1
23	44	4
138	139	3
165	172	3
16	16	6
199	200	5
166	169	6
104	104	2
7	7	3
46	50	5
113	113	7
160	160	4
72	72	7
155	157	6
100	100	7
229	231	2
25	27	13
33	33	3
56	56	5
222	224	12
234	234	7
172	172	4
210	228	2
178	187	5
217	217	7
115	134	5
178	184	2
223	223	2
51	62	2
236	237	7
1	16	2
189	191	2
192	213	1
173	179	4
35	46	1
229	230	1
86	86	2
169	174	3
233	234	6
6	9	2
128	129	7
145	151	3
82	84	4
232	239	3
190	199	5
58	61	6
107	113	4
97	97	3
127	134	4
43	44	2
44	44	8
96	102	5
173	175	1
11	11	3
11	12	4
189	194	6
55	55	6
189	198	7
33	241	2
57	58	6
25	30	2
44	51	4
204	204	2
61	70	1
1	4	1
14	18	3
144	144	2
174	176	1
61	61	3
132	140	1
180	216	3
213	213	2
0	7	4
135	140	5
226	230	1
222	226	2
205	206	1
36	38	2
171	171	3
125	136	1
231	241	1
35	35	5
136	136	5
181	184	5
1	35	2
0	74	1
67	67	7
164	184	3
81	123	3
79	152	2
222	222	4
26	27	3
24	24	4
76	76	2
201	201	5
134	134	4
206	238	2
73	73	3
229	242	5
173	190	2
151	164	3
14	15	4
171	192	1
155	155	4
223	224	2
36	39	6
191	191	5
184	194	2
166	176	6
107	127	6
133	133	1
173	178	1
146	148	2
215	239	3
217	218	5
52	52	3
115	116	3
150	156	8
83	83	3
14	31	2
124	130	1
168	169	7
105	105	5
235	236	2
95	96	2
12	208	2
100	114	3
207	207	5
161	164	3
64	73	3
102	102	10
186	202	3
230	233	3
228	236	3
124	124	3
46	46	3
58	70	2
147	150	1
69	153	3
163	171	2
74	80	5
67	82	2
101	106	3
42	48	2
177	177	1
25	25	7
125	154	1
25	26	3
206	207	2
194	196	2
242	242	2
72	124	4
73	74	2
167	191	1
33	46	8
97	101	3
233	240	5
165	190	6
174	180	3
13	13	4
74	129	3
200	222	1
97	102	4
208	238	4
73	76	1
83	85	3
169	169	14
148	157	2
22	25	4
225	226	4
12	32	4
75	152	3
50	50	5
228	229	1
42	42	1
89	92	4
16	21	2
46	48	2
52	56	1
192	201	3
119	120	4
179	197	3
48	52	2
38	40	1
3	194	7
6	8	3
6	32	2
239	241	1
116	117	5
224	224	11
70	72	4
183	196	2
120	129	4
76	88	4
98	106	7
21	22	2
35	51	1
177	184	4
119	126	4
5	7	2
65	66	4
146	146	3
159	159	4
71	75	1
178	178	9
9	12	1
59	66	3
52	71	3
8	10	5
40	50	4
28	28	3
104	108	2
206	239	4
133	138	1
47	49	1
24	25	1
32	32	10
62	63	3
106	110	3
97	118	1
10	17	2
195	195	5
207	219	2
154	156	4
128	128	2
75	82	1
230	243	5
55	56	3
77	77	3
7	8	1
201	202	1
200	200	4
185	193	4
165	185	2
40	41	4
151	152	3
80	82	2
239	240	3
173	199	2
10	12	3
171	196	3
168	168	2
29	45	2
78	151	2
229	232	7
188	201	1
137	157	2
212	218	3
220	221	5
59	60	2
159	191	4
84	84	7
209	210	1
194	194	7
169	182	1
6	7	3
225	239	2
129	129	9
240	241	1
6	6	3
153	157	2
115	143	3
205	205	5
236	241	2
226	226	5
121	121	2
4	17	2
175	177	5
99	99	7
122	122	4
172	184	4
57	59	5
43	43	3
114	115	4
230	236	1
203	203	3
212	215	4
70	70	5
25	29	3
120	122	2
132	156	2
51	51	3
89	89	3
99	101	4
127	137	2
227	235	3
100	103	3
37	59	4
78	79	3
56	71	2
236	236	14
35	42	1
54	56	4
187	197	2
70	75	2
48	63	2
17	30	2
101	101	5
17	24	2
68	76	3
141	143	3
117	118	2
44	46	5
220	220	4
169	184	4
235	237	3
30	33	1
11	31	2
63	65	3
159	163	2
33	34	5
96	105	1
60	72	1
218	218	4
218	221	3
117	117	1
60	64	5
26	46	1
42	49	2
25	50	2
15	23	3
26	36	3
158	168	3
157	177	1
129	131	3
74	77	1
61	73	1
176	181	1
218	219	2
4	18	4
138	140	1
29	30	2
54	58	3
96	104	1
48	48	4
74	79	2
188	190	3
29	29	2
41	56	1
0	0	3
81	84	2
82	86	1
97	98	3
118	118	4
58	71	4
16	17	3
62	70	2
203	208	1
1	25	1
205	230	2
38	42	1
149	157	1
237	237	5
13	22	2
21	21	8
16	62	2
19	20	4
168	174	2
72	75	2
106	115	2
230	230	2
26	26	5
157	162	2
208	225	3
116	121	3
98	101	2
60	62	1
176	178	1
186	204	3
190	197	5
216	217	2
187	192	1
3	5	4
159	169	1
134	137	1
231	233	1
78	135	1
99	105	1
77	79	3
80	80	4
29	34	2
69	69	1
72	78	2
34	187	1
26	48	5
150	162	2
219	219	3
212	217	3
131	132	3
144	146	2
153	153	4
191	196	2
219	232	1
111	115	2
176	193	1
167	167	5
78	81	1
239	243	1
192	194	1
39	42	6
120	121	1
168	173	2
150	153	1
203	206	2
204	218	2
32	33	2
141	153	1
232	233	5
190	191	5
107	112	2
31	31	5
224	228	2
67	73	2
96	100	2
222	223	2
0	17	1
176	192	1
122	131	2
147	148	3
228	235	1
84	86	3
122	134	1
16	23	3
100	102	1
189	200	1
156	157	2
227	227	4
32	34	1
179	190	3
102	105	2
9	16	4
25	28	4
179	183	1
133	148	2
180	189	1
190	205	2
171	172	2
137	137	5
180	182	1
226	238	2
203	210	2
127	143	4
36	45	3
0	77	7
127	127	2
214	218	1
5	24	1
158	158	1
157	161	5
145	147	3
68	69	1
49	56	3
73	131	2
135	154	4
224	238	2
49	66	1
172	183	2
219	223	3
47	180	3
195	202	1
38	38	2
185	185	1
170	178	1
129	151	2
52	65	3
15	20	3
139	156	1
80	132	1
21	24	1
118	121	1
80	124	1
46	47	1
228	233	1
18	40	1
189	190	7
148	164	1
63	73	1
192	192	1
159	162	3
41	70	2
202	207	4
74	76	3
158	159	2
97	100	3
209	209	2
206	213	2
13	32	4
109	113	1
224	225	3
73	75	2
31	34	1
14	44	2
139	139	3
198	198	2
145	145	1
0	21	1
214	215	2
9	15	2
221	221	1
24	35	3
0	10	2
230	237	2
228	231	1
85	88	5
103	104	1
41	46	1
216	222	1
182	192	1
238	238	2
28	30	1
2	2	6
171	182	3
137	139	3
162	162	5
37	74	1
121	122	2
19	24	1
59	67	2
1	3	2
2	6	4
149	163	2
138	138	1
84	85	1
71	82	1
104	124	1
52	67	1
158	171	1
69	77	2
3	37	1
145	148	2
67	68	3
61	69	1
208	231	2
81	85	1
83	86	3
197	198	5
10	14	3
180	180	2
22	26	1
211	212	3
12	14	1
181	189	2
109	143	1
206	210	1
122	125	2
122	143	1
112	114	1
17	26	2
167	177	1
27	27	3
171	194	3
28	38	1
60	84	1
39	49	2
109	109	3
128	131	3
108	116	2
35	38	1
57	57	1
18	38	2
142	153	1
18	22	1
184	192	2
32	36	3
209	213	2
114	114	1
44	56	1
49	57	1
74	74	3
24	48	2
5	15	1
125	132	1
241	241	2
140	155	1
73	78	2
7	9	1
47	64	1
47	48	1
144	152	1
118	141	2
109	112	2
180	197	1
31	48	1
10	10	1
164	168	1
148	148	3
101	102	4
116	118	2
143	143	2
65	69	2
198	199	3
120	127	1
165	165	2
17	32	1
149	149	3
232	237	4
81	81	2
220	226	1
95	100	2
4	8	1
17	41	2
208	232	2
183	185	1
133	134	1
62	91	1
146	150	2
220	228	2
85	91	1
161	163	1
26	50	2
66	74	1
95	101	1
234	235	1
139	142	1
6	22	3
239	239	1
6	23	1
206	208	1
182	184	1
13	29	1
239	242	1
61	68	1
20	26	2
125	142	2
75	83	1
42	50	1
17	39	1
45	48	2
206	236	1
169	179	1
143	155	3
225	225	2
30	31	2
215	217	1
174	179	2
170	175	1
34	34	2
49	49	1
164	179	2
63	76	2
75	156	1
167	170	1
178	202	1
184	187	2
125	145	2
190	190	2
107	121	1
204	223	2
157	157	1
28	31	3
60	65	1
150	150	1
156	175	1
101	112	1
63	79	2
17	36	2
0	148	2
166	172	1
141	142	1
167	169	1
119	119	1
166	189	1
65	65	1
215	215	1
64	88	1
193	196	1
1	5	1
196	200	1
115	142	1
192	196	2
217	222	1
34	181	1
60	61	1
10	15	2
190	195	1
82	118	2
88	89	1
169	170	1
198	201	1
3	16	1
163	180	1
136	142	1
9	9	1
27	43	2
53	63	1
195	200	1
14	36	1
185	186	1
152	153	1
140	141	1
97	104	2
53	57	3
62	62	1
74	127	1
76	77	1
126	129	1
1	1	2
159	160	2
21	28	2
233	233	1
234	237	1
142	143	1
45	45	1
117	121	1
5	5	1
167	174	1
214	217	1
3	7	1
132	146	1
38	58	1
165	167	1
112	127	1
2	18	1
37	37	1
122	124	1
37	46	1
117	138	1
7	15	1
39	47	1
170	171	1
9	13	1
44	45	1
216	216	1
144	150	1
34	35	1
23	23	1
0	2	1
217	225	1
15	15	1
223	226	2
44	57	1
6	217	1
121	123	1
20	38	1
171	180	1
116	138	1
208	234	1
30	32	1
185	209	1
3	4	1
31	33	1
74	78	1
231	231	1
133	151	1
45	59	1
193	198	1
28	36	1
68	70	1
181	181	1
20	22	1
106	120	1
80	86	1
