72	72	5
94	94	4
102	120	4
160	165	5
84	84	2
144	144	8
125	125	10
162	162	3
154	154	2
133	133	11
33	33	6
146	146	5
137	137	10
106	106	15
6	6	4
123	127	3
156	156	9
105	105	8
42	44	3
110	111	4
63	63	5
150	151	3
35	39	2
114	114	15
117	120	6
43	43	9
149	149	15
80	80	9
71	104	3
135	144	1
122	122	6
66	66	8
103	103	8
13	13	1
140	140	7
25	26	4
40	40	4
101	101	3
96	96	7
111	111	5
91	91	8
161	162	9
86	140	5
159	166	3
109	109	4
6	7	3
86	86	11
70	70	9
99	99	8
18	23	1
97	97	1
100	100	6
46	115	4
39	40	4
90	90	6
20	20	4
138	139	5
109	110	6
12	21	1
34	34	12
77	77	11
87	87	5
88	128	1
92	92	5
88	88	4
139	139	6
131	131	9
102	113	4
3	3	5
25	25	6
62	62	13
157	157	8
7	7	9
101	102	7
37	38	5
158	158	9
120	120	5
5	5	10
155	155	7
71	71	7
118	118	6
49	49	4
44	45	7
156	160	4
22	23	1
57	57	13
147	148	6
82	82	8
24	65	3
143	143	8
119	119	6
26	26	4
53	54	2
142	142	6
36	36	6
95	95	6
45	45	12
76	77	2
76	76	5
84	147	2
38	38	2
64	66	2
46	46	7
133	145	1
170	170	6
151	151	11
48	48	3
92	93	5
93	93	11
121	121	10
123	123	9
91	92	3
82	84	2
63	113	4
16	16	4
69	81	2
147	147	5
47	48	1
54	54	9
126	126	4
108	108	3
84	85	3
153	156	4
160	160	5
10	10	3
42	42	4
150	150	13
22	22	5
160	162	1
61	62	2
101	103	1
14	15	3
58	58	4
124	124	2
166	166	4
76	78	1
163	164	2
44	44	2
132	132	12
142	148	1
136	158	1
7	9	4
5	6	6
159	159	2
153	168	2
99	100	4
74	74	5
107	107	7
165	165	1
117	117	12
110	110	4
141	155	1
169	170	1
72	73	4
151	152	3
98	119	1
107	108	4
64	103	1
65	66	3
67	67	2
56	56	4
12	12	10
28	28	3
98	98	6
104	105	2
69	69	4
118	120	2
35	35	3
49	50	3
71	75	4
10	22	2
67	68	4
18	18	8
130	131	2
85	147	1
87	89	1
161	163	2
73	73	2
112	112	11
111	112	2
45	46	6
66	68	3
79	80	6
129	129	3
135	135	1
13	16	4
14	14	2
105	106	1
50	62	2
15	15	2
72	74	1
127	127	7
154	169	5
4	4	8
2	2	2
52	52	2
89	89	1
132	135	4
138	138	1
23	23	5
50	50	3
21	21	2
163	163	4
167	167	4
128	130	4
153	153	1
6	9	1
120	121	1
130	130	3
53	53	2
69	82	2
42	111	1
55	56	2
17	19	1
141	142	2
51	51	7
123	124	1
11	11	10
124	127	1
63	115	1
130	138	3
102	102	4
3	4	3
165	166	4
88	129	2
136	136	2
27	27	3
144	145	1
81	82	1
158	159	3
161	161	2
139	140	2
140	155	1
134	145	2
39	39	4
88	89	2
0	0	2
46	82	1
37	37	1
75	79	1
10	25	1
96	98	1
41	41	1
78	78	2
138	140	1
143	144	1
39	41	2
47	47	1
19	20	1
159	160	1
128	128	1
64	64	2
169	169	1
53	111	1
11	12	1
20	23	1
156	157	1
62	161	1
16	17	1
68	68	2
152	156	1
137	138	1
148	148	2
134	144	1
83	83	2
68	69	1
90	91	1
143	145	1
112	114	1
114	116	1
123	130	1
96	120	1
164	164	1
153	154	1
85	130	1
9	25	1
144	153	1
8	9	1
94	95	1
24	24	1
