98	100	5
28	28	9
12	54	3
40	41	4
46	47	5
120	120	12
60	60	10
124	124	11
125	125	17
88	88	5
5	5	3
69	70	11
84	84	11
93	93	18
40	77	3
51	104	6
43	43	17
111	111	16
72	72	7
85	94	3
29	29	7
73	73	3
87	87	15
0	56	3
6	6	10
117	132	2
78	79	16
113	113	7
70	71	3
107	107	22
118	118	13
24	25	7
79	94	2
53	53	7
104	104	15
10	10	20
106	106	17
49	49	23
90	91	9
95	95	13
50	50	16
58	61	3
133	133	2
90	101	1
62	62	6
46	46	12
110	110	5
68	68	4
3	3	9
123	124	4
45	45	7
124	125	3
59	59	8
31	52	2
92	92	3
55	100	2
23	23	6
98	99	1
130	131	3
53	54	16
26	57	2
77	81	2
10	11	2
81	92	4
54	99	4
118	120	3
31	31	14
48	51	4
12	12	4
8	9	1
89	91	3
94	94	7
100	100	7
0	0	10
2	2	19
42	42	6
114	114	13
32	32	8
45	85	2
13	14	8
98	98	5
34	34	8
40	57	1
58	58	22
27	27	9
115	115	11
18	19	5
2	3	3
81	81	12
42	43	9
4	4	4
123	123	12
99	99	14
82	122	1
84	85	5
38	38	4
58	63	4
115	129	4
117	118	2
65	102	2
67	69	6
64	64	7
65	66	3
19	20	2
128	128	4
116	117	3
57	57	12
96	132	1
49	79	4
40	40	3
77	77	12
40	43	2
55	77	3
102	102	7
26	56	1
25	26	4
96	96	9
24	24	13
54	54	5
112	112	21
121	122	5
116	125	3
106	107	2
101	101	8
9	9	6
56	56	10
122	122	7
83	85	1
77	78	1
114	115	11
64	65	3
105	105	15
89	89	8
22	26	3
63	63	8
66	66	5
75	77	2
62	63	8
92	126	2
3	5	1
92	93	5
113	114	2
7	7	11
69	69	6
105	106	3
81	82	4
15	15	8
44	44	4
82	82	12
30	30	17
70	70	3
15	20	1
9	56	2
26	26	15
97	99	2
116	116	7
97	97	1
22	23	3
94	118	2
33	33	10
91	92	2
96	100	2
16	16	6
97	98	6
108	108	9
68	69	9
80	83	1
75	76	9
93	115	1
55	55	7
54	94	4
51	51	7
111	113	4
129	130	2
109	109	9
79	79	20
85	85	12
41	41	4
91	102	5
63	64	1
96	101	1
118	119	3
103	103	3
54	82	5
15	17	4
107	116	1
131	132	4
120	123	2
65	125	2
69	73	2
17	18	3
47	47	7
117	117	11
91	91	2
60	61	1
7	10	4
17	17	8
15	18	1
68	73	1
65	65	7
19	21	2
76	78	6
100	109	4
93	101	1
119	133	2
54	81	6
8	8	1
75	75	6
95	96	2
37	38	1
52	52	10
101	102	1
74	75	2
115	116	9
1	1	8
22	22	3
3	4	2
99	100	3
76	76	5
86	88	4
14	15	4
119	119	7
126	130	4
127	129	3
19	19	10
111	114	1
26	58	1
121	121	7
66	67	3
59	61	1
72	104	3
7	53	1
110	111	4
84	120	5
30	31	6
45	46	2
29	30	1
6	7	4
14	14	1
33	34	4
11	11	5
121	123	3
108	125	1
83	118	1
71	105	3
50	51	6
39	39	9
94	121	2
93	95	1
31	32	3
109	110	2
11	54	2
43	49	2
107	114	1
107	115	3
38	39	4
32	77	1
78	78	5
16	19	1
19	49	1
126	126	5
72	74	3
18	18	3
18	32	3
48	48	8
55	56	1
81	96	1
13	13	7
104	105	5
28	29	1
34	41	3
66	131	2
93	94	4
74	74	7
26	27	1
6	10	2
50	54	1
23	24	2
8	10	4
83	83	2
80	81	1
29	33	2
69	71	2
102	103	3
120	121	1
108	118	1
114	118	4
33	43	1
79	101	1
78	101	1
93	96	2
115	117	1
83	84	5
96	99	1
88	92	4
86	87	1
72	73	4
25	25	3
82	83	2
104	106	2
122	123	3
92	127	1
90	102	1
41	87	1
0	2	2
78	104	2
19	54	1
65	76	3
115	130	2
71	74	2
9	10	4
80	80	1
130	130	2
63	124	2
11	12	3
127	127	4
119	120	1
12	14	2
46	48	1
107	118	8
132	132	9
71	90	1
74	76	1
81	100	5
81	91	1
21	21	5
86	86	2
80	85	1
123	125	4
85	86	4
54	56	2
42	87	1
30	34	4
48	54	1
44	45	2
55	99	4
14	45	1
53	78	1
63	100	2
39	43	3
56	57	2
25	58	1
131	131	1
60	62	1
54	100	2
54	121	2
76	103	2
16	17	2
3	40	1
27	28	2
110	115	1
13	47	2
132	133	1
114	116	1
110	112	3
40	42	1
13	55	2
0	1	3
96	131	1
77	92	1
52	53	1
72	102	1
88	89	2
15	16	2
58	59	1
73	74	2
126	127	1
94	120	1
95	132	1
87	88	1
113	118	1
120	125	1
49	50	1
107	111	1
111	120	1
57	64	1
110	113	2
76	77	1
33	45	1
103	104	1
66	71	1
