117	117	1
60	60	2
5	5	5
58	66	6
4	4	6
13	96	5
127	130	2
79	114	2
106	106	9
66	66	5
115	115	7
107	108	7
84	85	4
17	17	2
43	44	5
45	45	2
125	129	2
112	112	8
10	11	4
102	102	7
119	125	2
82	82	4
110	111	1
91	91	6
120	121	2
128	128	4
62	62	6
99	101	1
79	79	7
109	109	4
2	3	4
33	33	6
29	29	11
123	124	3
31	34	4
19	19	3
0	0	2
117	118	5
119	119	5
88	88	6
120	120	8
100	103	2
55	55	1
27	27	2
7	8	2
57	57	1
20	21	4
70	70	4
104	104	2
95	95	3
101	101	3
41	42	4
21	21	3
124	124	6
128	129	5
38	97	2
46	47	3
96	96	2
126	126	2
42	94	2
28	28	6
78	80	1
67	71	2
49	49	2
26	26	3
61	61	2
58	59	5
39	41	3
55	59	1
63	63	3
71	73	1
16	17	1
4	25	5
113	113	5
2	2	1
93	93	5
13	13	2
72	72	1
65	65	3
125	125	2
49	111	2
114	114	7
43	43	1
112	113	3
133	133	6
92	116	3
83	83	5
101	104	2
49	50	4
53	54	2
69	69	5
29	30	4
78	78	4
19	26	2
8	8	4
25	25	4
114	115	2
116	116	1
15	15	1
80	80	2
109	110	1
106	107	4
107	107	4
94	94	5
31	31	3
119	130	1
85	86	3
54	54	2
51	51	2
50	51	1
115	117	6
4	24	2
89	89	2
43	48	3
121	123	2
98	98	4
95	96	3
67	67	4
27	29	1
114	118	1
92	99	2
6	6	2
85	128	1
32	34	1
6	11	3
92	92	3
58	58	2
90	90	2
11	11	2
99	99	3
8	9	2
87	87	4
14	14	1
68	68	3
12	12	4
7	7	3
13	39	3
69	70	2
22	22	1
44	44	3
55	70	4
100	100	2
77	77	2
132	132	1
76	76	1
87	88	3
85	85	2
1	2	2
16	16	2
108	108	2
18	19	1
89	90	1
118	118	2
6	7	1
105	106	2
44	47	3
40	40	2
82	83	2
68	76	2
84	84	5
18	18	1
52	52	2
68	75	1
78	113	1
37	37	2
121	122	1
95	97	5
50	50	2
64	65	1
95	113	1
81	81	2
4	7	2
126	130	1
23	23	1
24	25	2
47	47	2
19	20	2
57	58	1
42	42	1
93	94	1
130	130	1
91	92	1
20	20	1
9	10	1
68	69	2
88	89	1
66	75	1
94	95	1
