44	46	2
128	180	6
113	113	12
100	100	7
185	201	4
18	36	3
229	229	7
13	74	3
10	30	4
198	201	1
121	151	3
14	15	7
184	188	3
198	213	1
48	78	1
70	177	2
153	153	11
203	203	4
104	104	13
55	55	14
146	194	4
30	30	8
112	130	2
118	118	4
138	138	11
192	199	1
221	221	18
9	11	3
0	7	5
36	36	10
57	57	4
18	25	4
13	14	5
209	209	16
221	241	11
6	6	25
139	153	1
234	237	1
38	49	4
192	192	18
46	46	2
38	38	5
5	6	5
0	57	1
172	172	7
117	117	9
154	199	4
214	214	8
104	205	9
63	74	2
205	225	1
113	218	4
52	52	9
195	195	3
171	171	12
64	79	1
110	124	3
54	69	2
219	220	4
1	12	6
223	223	10
217	228	3
119	124	2
101	101	10
110	133	1
9	9	7
64	64	7
159	159	11
41	79	2
29	29	2
222	222	6
211	211	10
102	191	4
90	90	1
177	177	1
126	127	1
23	24	6
210	210	6
188	188	5
101	161	6
39	39	16
65	65	13
61	73	2
156	156	14
189	207	2
28	28	8
31	32	5
86	86	7
36	38	4
119	121	2
40	41	1
174	174	12
222	235	3
117	124	4
91	95	6
131	140	4
33	46	2
69	69	8
80	105	2
124	124	3
156	177	5
35	35	4
7	7	7
213	213	6
131	145	2
204	219	6
19	30	3
233	233	11
47	47	8
187	204	5
31	31	9
27	50	1
8	8	9
80	81	7
39	40	1
222	223	2
167	167	4
185	192	2
179	179	12
223	238	1
200	225	5
216	218	8
49	50	2
136	136	7
232	233	2
20	20	2
28	31	7
6	7	1
50	72	1
22	22	10
185	186	3
23	223	2
193	193	10
140	175	3
147	147	3
71	71	8
190	199	6
19	27	2
237	239	2
200	200	9
139	154	1
15	15	4
33	33	14
157	157	4
98	116	2
116	116	4
12	12	11
127	128	2
235	235	13
239	240	2
65	66	4
228	234	4
47	59	5
154	158	2
153	169	4
166	179	3
70	70	3
202	225	2
181	182	5
170	176	4
38	45	3
114	114	4
142	161	2
4	5	2
146	146	10
237	237	1
200	227	2
19	19	7
168	168	9
102	119	3
138	139	5
61	75	1
120	151	3
191	192	6
50	50	2
59	59	9
9	191	3
215	215	1
145	150	1
102	107	3
46	47	2
176	176	6
86	88	5
240	240	9
236	239	3
25	231	1
172	173	2
127	130	3
196	200	2
236	236	2
138	154	3
61	120	2
194	194	9
13	13	3
178	193	2
101	117	2
214	218	1
178	178	15
80	80	7
49	49	8
139	155	1
17	17	8
120	152	5
48	48	4
19	22	2
174	194	3
0	0	4
227	227	10
153	155	1
223	226	5
212	212	6
5	13	6
199	200	9
20	42	1
192	200	9
21	21	12
36	141	5
79	79	13
197	197	8
161	161	4
186	187	3
63	73	1
155	155	9
62	70	3
133	173	2
4	4	6
117	125	6
29	60	2
40	40	17
140	141	3
173	174	3
100	101	5
128	128	10
66	67	3
110	122	6
97	178	4
184	184	6
70	86	2
6	18	3
187	187	4
53	53	12
208	208	6
171	181	3
134	137	2
47	48	1
23	23	4
119	119	5
32	33	2
41	55	5
3	21	4
226	226	6
14	32	6
5	24	3
83	125	2
98	99	4
186	192	5
76	79	6
20	184	3
45	45	1
96	96	7
230	230	13
222	238	1
115	116	8
88	88	1
198	209	3
59	60	1
85	86	3
238	238	4
210	211	1
155	159	1
241	242	2
3	160	2
196	197	4
200	207	6
5	17	2
75	76	1
62	62	6
99	128	4
126	129	2
3	10	1
212	217	3
22	25	3
181	193	1
24	212	2
164	167	2
233	234	3
34	35	4
156	164	4
3	12	3
234	234	5
221	222	5
186	186	9
10	10	9
113	120	1
74	123	1
26	96	5
205	222	1
141	141	3
193	202	1
129	129	2
239	239	10
20	26	1
139	139	14
97	105	2
27	157	3
22	43	2
151	191	1
209	221	1
15	26	2
64	65	6
161	183	5
220	238	1
30	42	3
236	242	1
111	186	3
47	60	1
147	148	4
190	207	4
151	151	8
53	56	1
110	110	4
60	73	1
78	78	6
145	159	5
174	175	2
72	72	3
228	228	8
178	190	7
151	157	1
166	166	3
149	149	4
120	120	6
134	134	10
107	218	2
196	216	2
26	27	1
78	91	3
231	231	12
148	157	3
74	74	7
202	202	7
127	129	3
60	60	4
189	189	5
128	148	2
156	161	5
16	37	2
73	73	7
35	37	1
148	148	3
210	219	1
81	82	1
103	185	3
106	204	4
175	180	5
55	56	1
194	213	4
209	220	2
160	181	1
183	183	5
75	75	2
150	153	5
111	217	2
72	80	2
47	49	4
76	76	1
101	102	3
185	196	3
80	127	1
45	52	2
143	165	1
208	219	2
140	140	9
43	43	5
169	170	2
205	206	3
0	25	1
211	212	4
38	39	2
223	239	7
235	240	2
72	73	2
125	125	2
80	82	3
81	81	2
214	215	1
70	101	4
163	164	3
71	85	1
11	11	1
192	193	5
181	181	6
98	98	3
16	30	1
106	106	2
142	142	4
0	12	5
191	191	11
115	115	6
29	95	3
77	77	3
229	230	4
39	73	4
51	52	3
27	60	2
207	207	9
39	52	2
16	16	1
174	213	2
150	150	6
198	208	1
17	32	1
185	185	2
110	217	1
78	84	6
56	71	2
20	83	1
40	55	10
11	141	1
3	6	3
218	218	8
10	142	5
214	235	9
104	127	2
105	123	1
201	225	5
11	142	6
107	107	5
27	27	5
113	122	2
217	217	5
104	206	2
63	105	1
179	180	3
99	125	6
3	29	6
124	125	2
220	220	2
170	174	1
137	138	5
59	77	5
191	199	3
127	127	2
27	38	4
137	137	4
56	70	1
35	43	3
158	179	1
118	122	4
204	214	1
112	112	5
13	75	2
66	66	9
54	198	4
170	170	5
6	8	2
37	53	1
67	72	1
126	126	5
75	88	1
0	14	1
128	129	1
29	116	1
82	82	3
219	232	5
57	59	1
122	125	2
15	27	1
126	128	3
203	219	3
137	194	3
85	85	2
43	100	3
163	165	2
97	120	2
85	122	1
165	165	2
28	30	1
14	14	5
149	154	3
147	191	1
141	142	1
204	228	2
135	176	1
178	187	1
140	143	2
234	242	1
54	82	1
11	17	3
123	123	6
217	218	2
208	218	4
37	48	1
19	26	2
109	109	2
144	155	1
197	229	2
95	95	1
204	224	1
39	71	1
105	109	1
113	115	2
23	25	3
120	178	2
159	161	1
161	165	4
206	236	1
58	58	3
105	120	2
116	127	1
59	68	1
159	160	2
109	217	1
162	162	2
59	134	1
155	171	1
114	130	1
16	52	1
83	115	3
28	75	2
0	11	1
0	2	2
39	79	1
110	130	2
71	72	3
44	44	5
42	43	2
235	236	3
106	116	4
172	207	1
224	224	4
216	216	3
210	223	1
102	102	4
11	12	4
186	213	1
219	219	3
72	100	1
145	145	2
133	133	3
43	46	2
68	83	4
104	204	1
30	31	1
149	152	1
49	65	2
8	9	1
141	146	3
103	103	9
83	83	2
192	215	3
226	240	2
123	128	1
160	161	2
68	68	10
188	189	4
182	182	3
123	148	2
149	167	1
218	232	2
223	228	5
181	183	3
242	242	5
29	50	1
142	159	3
136	151	4
209	230	1
22	32	2
43	44	4
1	1	5
175	175	7
31	42	1
121	133	4
62	75	2
206	206	3
96	100	2
163	163	2
24	48	1
118	121	1
56	56	1
100	108	2
32	36	1
36	37	1
198	198	2
131	134	1
173	176	1
238	241	1
114	127	1
121	136	1
177	191	1
27	29	1
154	154	10
156	188	1
107	108	1
197	205	2
10	25	2
101	109	3
209	212	5
75	146	1
34	49	4
7	8	3
26	26	4
60	75	1
2	7	2
241	241	4
190	202	1
117	118	1
143	143	7
37	49	2
118	133	2
17	41	2
170	185	1
37	63	2
3	5	4
189	190	1
195	211	1
139	143	1
175	177	1
0	34	2
31	33	2
108	113	3
232	232	1
1	85	1
1	2	2
164	164	2
15	16	4
61	141	1
25	25	1
137	139	4
205	210	1
235	237	1
6	23	3
4	13	3
58	59	2
115	117	2
104	107	2
216	229	1
131	133	2
3	3	2
60	62	1
148	152	2
37	38	4
84	84	4
53	61	1
108	109	1
140	151	1
138	158	1
104	128	1
223	224	3
157	158	1
51	51	8
126	130	1
9	18	1
198	199	2
160	160	4
102	103	2
144	144	4
207	212	1
29	30	1
165	166	4
79	119	2
194	198	4
227	241	1
15	23	2
55	66	4
139	140	2
190	200	3
194	202	1
14	77	1
42	42	4
13	15	1
53	59	1
46	49	1
99	111	1
58	71	1
67	193	2
146	147	1
78	79	1
187	209	1
49	58	2
24	24	2
216	235	1
130	130	1
145	146	4
223	227	2
54	54	3
68	69	1
21	22	1
15	79	1
205	205	3
201	201	2
143	164	1
179	189	4
160	202	1
62	74	3
163	184	1
99	99	2
175	192	1
96	98	1
185	199	4
69	150	1
36	39	2
167	168	1
16	29	3
42	69	2
216	219	1
228	230	3
100	177	2
4	6	1
64	73	1
65	69	1
85	111	2
32	32	3
124	127	1
171	172	3
127	144	2
201	213	1
32	62	1
216	217	1
198	203	2
2	4	1
109	120	1
7	137	2
152	162	1
30	60	1
160	164	1
27	97	1
103	197	2
7	23	1
225	225	2
122	128	1
105	108	3
77	146	1
42	180	2
103	104	1
96	97	1
107	133	1
217	230	1
205	208	1
164	165	1
48	53	1
162	199	1
25	86	1
9	29	2
27	95	1
201	211	2
226	241	1
41	52	1
165	168	2
157	166	1
66	71	2
229	236	1
136	170	1
149	171	2
121	139	1
15	34	2
61	61	1
117	163	2
96	120	1
230	232	1
182	197	1
39	85	2
197	211	1
36	46	2
67	82	2
16	79	1
149	153	1
221	237	1
129	130	2
44	97	1
104	116	2
48	51	1
204	209	2
14	16	1
106	123	2
33	34	2
149	151	1
142	147	2
173	186	1
50	74	1
37	37	3
140	152	2
141	193	2
52	53	1
52	64	1
138	144	1
234	235	1
27	55	1
66	145	2
112	212	1
135	135	2
124	129	1
141	175	2
233	236	1
88	104	2
19	20	1
206	207	3
67	68	1
11	40	1
41	41	2
57	72	1
38	61	1
58	115	1
141	145	1
107	160	1
3	4	1
204	204	2
22	39	1
57	58	1
238	240	1
158	158	1
128	147	1
17	53	1
46	50	3
51	65	2
215	216	4
183	207	1
2	2	1
36	43	1
204	220	1
76	141	1
161	162	1
74	76	1
137	170	1
168	172	1
61	62	1
166	167	1
15	35	1
177	189	2
149	150	1
207	209	1
220	226	1
220	242	1
63	63	2
37	73	1
17	80	1
220	230	1
236	237	1
64	75	1
141	195	1
62	63	1
201	205	1
179	193	1
183	201	1
44	45	1
63	64	2
115	197	1
138	163	1
210	228	1
26	28	1
16	49	1
47	62	1
201	207	1
69	83	1
29	45	1
42	44	1
116	210	1
12	140	1
162	165	1
165	167	1
111	111	1
180	180	1
197	213	1
35	68	1
203	210	1
189	214	1
44	51	1
123	124	1
