118	118	1
6	7	1
21	23	11
185	186	2
17	18	1
55	59	2
193	193	2
203	203	9
107	107	3
119	119	4
117	117	4
188	188	4
113	113	5
59	59	8
33	33	4
36	36	7
177	181	2
177	184	2
37	37	5
164	164	7
218	218	7
41	41	1
40	40	4
79	79	5
208	208	4
167	167	5
109	109	2
4	4	1
159	159	3
89	114	1
48	49	7
30	30	6
28	28	3
10	10	2
219	219	3
201	201	6
120	120	5
166	166	3
9	18	3
232	232	3
71	76	2
55	55	6
75	76	3
240	242	3
87	88	3
246	246	2
66	69	2
57	57	3
102	103	4
182	182	3
45	46	2
205	205	3
184	185	1
211	211	6
51	53	1
38	38	3
179	179	5
67	67	6
197	197	8
54	54	4
212	212	3
95	100	6
175	181	4
15	15	5
15	228	3
231	232	1
192	194	5
64	64	3
175	175	2
50	56	2
171	171	4
21	21	2
218	219	3
19	19	6
6	6	1
223	223	6
236	236	6
112	116	3
172	172	2
201	240	1
232	234	1
111	113	2
67	185	3
49	49	2
243	243	3
44	44	7
25	25	2
71	71	2
114	114	1
95	95	1
20	20	2
11	40	3
69	69	4
170	170	1
31	31	4
24	24	4
70	71	2
207	207	2
39	39	3
242	243	2
7	7	1
156	156	5
26	27	2
42	42	2
163	163	3
178	178	1
238	238	3
74	75	3
15	229	3
102	102	2
90	91	4
96	97	5
98	100	1
43	43	4
108	111	1
50	50	1
234	234	1
191	196	1
170	236	2
8	9	1
228	228	1
17	19	2
246	247	1
224	224	6
34	34	2
188	191	2
91	92	3
106	107	4
178	182	1
12	12	2
183	183	1
229	229	3
160	160	4
61	62	1
59	60	2
190	190	1
82	82	2
190	246	1
67	68	1
189	190	3
178	181	5
112	112	3
196	196	1
152	176	2
62	62	5
187	187	5
171	236	5
220	223	1
16	22	1
177	177	2
80	101	2
68	68	3
63	186	3
61	61	1
52	52	4
176	176	2
81	81	5
18	18	2
165	165	3
221	221	4
247	247	3
158	181	2
76	84	1
58	58	4
217	217	4
111	119	1
200	200	3
152	152	5
161	161	2
191	191	2
226	227	3
63	187	1
72	72	1
55	57	2
215	218	1
66	66	2
60	62	4
206	237	3
147	147	3
241	241	1
78	78	4
179	183	2
90	90	2
65	65	4
90	92	1
186	187	2
150	150	1
11	11	2
168	169	1
77	77	3
214	214	1
183	187	2
84	85	3
104	104	2
77	78	3
31	32	1
193	196	3
17	17	2
1	1	2
190	247	3
209	209	4
206	208	1
39	225	2
152	232	2
244	244	2
32	32	1
89	89	2
226	226	2
168	168	1
199	199	4
227	228	2
216	217	1
185	185	2
44	45	1
113	114	2
194	194	1
23	65	1
59	64	2
26	26	2
149	149	1
111	112	2
182	184	1
218	231	1
80	80	1
171	200	2
115	115	2
240	241	3
170	232	4
230	233	2
26	32	1
200	201	1
56	57	3
151	174	3
215	215	1
23	23	2
174	174	1
76	76	2
227	227	1
237	237	5
88	88	1
222	222	2
216	216	1
8	8	4
230	231	1
9	10	2
146	147	1
167	168	2
243	244	1
119	120	2
190	191	1
14	38	2
187	188	1
151	151	2
3	10	1
27	27	2
176	179	1
199	200	1
72	74	1
59	62	2
181	182	1
22	22	3
116	116	2
212	213	1
3	3	1
43	115	2
201	206	1
81	82	1
60	60	3
151	173	2
245	247	1
0	54	1
189	189	1
13	13	1
28	29	1
56	56	1
93	93	1
194	195	1
201	228	1
233	233	1
60	61	1
46	46	1
16	16	1
202	203	1
47	47	1
85	85	2
221	222	1
184	184	1
85	88	1
101	101	1
217	220	1
99	104	1
233	235	1
94	94	1
219	231	1
213	214	2
157	157	1
111	114	1
91	91	1
69	70	1
110	110	1
21	22	1
62	63	1
87	87	1
63	63	1
49	50	1
215	216	1
155	155	1
45	45	1
74	74	1
