3	3	11
65	73	1
54	54	15
60	60	8
62	63	8
11	11	14
4	4	11
7	8	5
62	62	8
32	32	13
1	57	6
51	54	3
39	39	11
58	63	1
66	67	6
31	33	1
24	24	9
47	47	16
26	73	3
34	34	13
76	76	8
27	28	2
10	10	17
6	6	9
65	65	5
71	71	4
53	53	19
74	74	13
22	22	7
21	23	5
6	50	1
54	55	4
40	40	6
20	21	5
57	57	11
31	31	5
13	32	2
51	51	7
50	51	1
23	24	2
55	55	8
67	67	14
73	73	9
68	68	8
29	31	7
67	68	1
13	13	12
35	35	16
26	27	4
24	70	4
36	66	1
29	29	26
20	55	3
10	68	1
48	48	9
6	51	2
30	30	12
50	50	9
18	33	1
20	66	1
60	62	3
72	74	6
26	26	9
3	8	2
46	46	9
21	33	2
25	25	9
12	32	1
6	10	2
37	37	8
42	42	20
44	44	18
56	56	8
2	2	9
34	52	1
64	64	6
58	59	5
59	64	3
38	38	21
66	66	3
70	70	10
19	19	12
7	7	12
59	59	11
33	33	11
39	74	1
14	14	6
27	27	7
19	43	3
36	42	4
43	43	6
58	61	4
49	50	7
55	56	2
1	1	4
52	74	2
46	47	2
45	46	4
52	52	6
25	26	5
35	39	1
10	51	1
40	53	2
28	28	10
53	77	2
57	61	2
20	20	18
26	29	4
21	21	9
23	23	8
51	52	7
8	48	2
5	5	10
34	35	2
39	40	15
46	48	3
9	9	9
20	33	4
47	48	3
6	7	4
48	49	4
8	12	1
5	69	2
77	77	5
8	11	2
61	63	2
57	58	2
6	59	1
5	6	2
31	32	3
41	41	5
0	0	5
0	61	3
18	19	4
69	69	4
68	75	2
8	8	10
48	71	2
61	61	11
12	13	2
74	75	2
35	40	2
75	77	3
45	45	12
6	8	1
3	4	2
64	65	5
41	45	1
63	63	8
10	55	2
69	70	1
0	65	6
44	45	3
68	69	2
12	12	6
50	71	2
59	65	2
49	54	1
56	57	5
27	29	1
41	42	4
12	47	2
49	52	4
12	19	1
13	53	3
9	10	2
9	12	5
1	2	14
34	37	2
28	73	3
28	29	3
36	47	2
18	47	2
51	60	1
36	36	4
22	31	1
34	48	1
52	54	5
34	41	1
72	77	2
53	54	5
37	41	2
72	72	3
60	63	1
53	55	1
44	47	2
36	37	2
10	11	1
62	64	1
22	73	2
7	10	5
62	65	1
18	32	1
4	29	2
56	61	1
50	69	3
25	29	4
28	54	1
50	67	3
18	18	1
40	41	1
24	69	4
63	64	1
47	60	1
57	71	1
7	51	1
4	5	1
59	60	1
76	77	4
5	64	2
22	30	1
49	66	2
13	14	1
60	61	2
18	51	3
36	41	4
18	67	2
50	68	1
37	38	2
38	39	1
71	72	1
21	22	3
35	36	1
50	70	2
43	44	2
33	52	1
28	55	1
44	60	2
58	71	1
66	68	2
24	25	1
4	31	2
11	51	1
71	75	4
8	68	1
72	73	2
65	67	1
40	45	1
4	69	1
4	63	1
71	74	1
47	53	1
51	53	1
70	75	1
75	75	1
0	2	1
35	52	1
58	58	1
13	47	1
49	49	1
50	52	1
42	43	1
21	55	1
