131	131	2
126	134	2
181	181	4
121	124	1
219	219	3
82	82	4
123	123	9
56	84	4
204	205	3
21	21	6
73	73	4
6	7	6
77	89	3
192	200	1
123	151	2
226	226	4
18	200	1
24	24	3
79	79	5
121	122	3
99	99	3
205	205	8
13	14	1
122	122	6
57	57	9
51	51	3
146	146	1
233	233	12
115	160	1
120	122	2
173	174	4
80	80	10
85	85	2
11	11	2
25	42	1
49	50	2
170	170	2
176	196	2
106	107	2
96	96	2
58	58	4
120	121	1
190	190	6
136	202	2
26	26	10
141	141	5
105	105	2
74	86	1
227	227	2
167	167	3
42	42	3
56	56	7
100	106	2
169	169	2
133	133	1
11	15	1
43	43	5
145	160	6
191	191	1
37	37	7
228	228	5
117	117	8
173	173	7
222	222	3
153	153	4
51	53	1
12	18	3
116	144	6
92	158	2
49	49	3
182	211	6
240	240	3
209	209	2
100	100	1
114	115	1
145	146	4
232	232	4
204	204	5
165	228	1
234	234	2
236	236	3
60	60	5
203	203	4
217	217	6
2	161	2
23	23	3
100	107	3
201	201	1
74	75	4
99	102	1
198	198	5
172	173	5
35	36	5
134	137	3
9	9	8
101	153	1
127	133	2
142	163	4
69	69	3
234	235	6
59	59	1
125	125	4
114	114	6
113	121	1
241	241	3
22	22	1
230	230	8
196	209	3
170	171	3
148	148	3
16	36	1
4	4	2
143	143	4
38	122	5
80	88	3
19	162	3
20	27	4
28	28	2
71	71	3
143	169	3
189	190	1
215	215	2
138	139	5
137	137	1
179	179	2
158	158	4
134	134	1
124	125	4
48	49	4
190	192	3
162	162	2
121	121	3
106	106	1
242	242	1
39	40	1
55	55	1
21	35	1
128	128	2
6	11	2
171	171	2
57	85	1
23	72	3
67	67	4
50	50	2
206	221	1
218	218	6
62	63	5
79	84	1
183	231	1
74	74	4
58	59	1
116	116	2
121	128	1
197	198	2
230	231	3
73	157	1
130	130	2
44	44	1
62	62	6
33	33	3
24	55	2
56	80	1
121	127	2
212	212	7
205	224	2
32	198	1
1	1	1
46	47	2
89	89	1
168	168	2
104	107	4
50	52	6
95	118	2
84	85	4
234	237	3
154	156	3
54	54	1
108	111	2
5	77	2
196	196	2
7	7	4
100	112	1
202	217	4
103	107	2
122	151	2
205	210	1
147	153	4
104	109	3
205	206	1
179	184	2
18	33	1
149	150	2
0	3	6
61	61	7
157	158	3
197	197	1
167	168	2
206	206	1
30	30	4
45	48	1
32	32	3
236	240	2
75	75	2
156	156	3
148	152	2
28	42	1
72	84	2
7	8	1
24	44	3
83	83	3
122	128	1
172	172	6
197	212	2
48	48	4
13	17	1
39	39	1
45	46	5
192	192	1
189	189	1
139	139	2
151	152	1
40	40	2
126	132	3
17	17	1
142	142	2
210	210	4
174	174	2
136	136	1
194	194	3
78	78	3
149	149	1
147	147	2
146	148	1
4	5	1
213	213	2
18	31	1
181	183	3
155	155	1
125	130	1
201	202	3
136	137	2
120	120	1
20	28	3
210	223	4
123	129	1
117	134	1
3	3	2
207	208	1
40	42	2
124	151	1
2	3	2
4	89	1
229	229	1
160	160	1
144	144	1
95	95	1
16	16	1
226	227	1
118	137	1
208	208	1
175	235	2
78	85	1
32	33	1
25	113	1
128	204	2
162	202	1
165	165	1
6	92	1
183	183	3
112	112	1
31	33	3
72	72	3
114	150	1
83	84	5
193	193	2
41	41	2
206	208	1
192	193	1
147	159	2
36	36	1
27	27	1
100	120	1
132	133	1
185	186	1
135	135	2
151	151	2
1	119	1
46	46	1
10	10	1
123	144	1
47	47	1
79	80	1
31	95	1
19	33	1
75	88	1
231	232	2
116	118	1
19	19	1
101	107	2
175	175	2
108	109	1
37	38	1
226	231	1
200	202	1
11	38	1
220	220	1
140	190	1
133	140	1
187	187	1
5	34	2
59	67	1
81	81	1
175	184	1
152	152	1
42	43	1
190	195	1
181	194	1
152	153	1
180	180	1
207	210	1
157	157	1
113	113	1
