102	102	7
0	1	7
153	156	1
203	203	7
122	122	11
221	222	8
172	178	3
48	48	21
51	52	9
96	96	15
70	70	23
136	136	18
58	59	7
9	9	8
122	136	6
153	153	14
202	202	12
171	178	9
234	234	27
223	223	13
239	239	4
159	159	27
151	151	15
2	32	1
36	36	15
239	240	7
25	25	12
158	158	12
50	50	8
196	196	3
217	217	25
176	177	5
24	24	18
172	242	4
48	77	3
47	121	1
0	23	7
38	38	23
241	242	4
60	60	6
32	32	22
85	86	5
159	160	5
171	171	17
173	177	1
227	228	21
21	21	11
178	178	16
166	166	21
222	223	5
65	65	8
54	54	26
207	208	5
79	79	8
9	17	1
229	231	4
193	193	8
43	174	6
39	39	12
31	31	14
187	188	7
27	27	22
198	198	20
224	225	4
128	128	25
80	80	5
68	68	7
242	242	26
179	180	13
101	101	15
60	61	2
168	169	10
62	69	2
219	221	3
186	186	5
32	33	8
140	140	9
212	230	3
2	2	4
34	34	11
39	41	5
85	85	18
41	41	5
162	162	6
17	17	13
195	195	2
175	175	16
156	157	6
111	112	3
235	238	1
211	213	3
85	87	5
43	43	28
81	81	7
197	198	9
51	51	5
214	215	3
181	181	5
183	183	10
76	76	3
42	42	10
182	182	16
69	69	14
196	198	6
100	101	2
167	170	2
69	73	4
11	11	31
49	50	1
109	109	6
115	118	1
203	239	4
3	3	9
157	157	22
134	139	1
181	204	4
125	125	4
83	84	5
121	121	14
97	144	5
77	77	4
76	144	5
13	18	2
37	37	19
18	20	3
29	29	25
100	100	7
61	61	7
99	99	14
72	72	4
115	160	1
125	168	4
121	170	3
212	215	2
46	46	11
183	203	4
82	109	3
207	207	23
184	185	7
74	74	18
197	197	14
58	58	6
15	17	6
221	221	6
47	47	23
24	105	2
173	173	13
18	21	2
35	36	7
218	218	11
33	33	4
108	109	5
124	126	3
233	233	9
174	174	23
48	54	1
235	237	5
24	25	1
104	127	1
203	204	10
16	16	7
215	215	7
213	214	3
194	195	1
231	231	13
122	125	2
21	22	9
26	86	5
165	165	17
192	192	6
206	206	8
139	139	11
215	230	3
29	30	7
154	155	8
236	236	13
222	225	2
241	241	12
177	206	6
118	118	2
225	225	9
152	152	20
146	146	10
191	191	15
30	89	1
63	74	4
216	220	2
228	228	11
30	30	17
129	169	2
144	144	8
207	222	3
53	53	6
9	10	11
145	146	5
32	194	5
31	88	1
218	220	1
4	103	6
144	154	3
217	221	2
59	59	8
20	20	17
137	137	6
100	115	6
138	162	7
172	172	20
120	121	4
83	83	12
161	161	11
230	231	2
187	192	7
207	232	3
114	115	6
129	129	5
147	147	10
91	103	1
236	237	3
30	31	6
155	155	8
151	162	6
164	171	1
147	149	4
97	115	2
164	164	19
27	45	7
157	198	1
127	127	9
79	88	1
19	19	8
78	78	7
160	182	2
95	98	3
224	224	10
98	98	10
32	131	3
187	191	5
115	117	3
234	237	3
184	189	7
217	218	1
55	85	1
122	127	5
44	238	4
184	184	9
55	55	42
134	135	4
149	152	5
141	141	5
242	243	3
213	213	9
10	10	6
221	229	4
235	235	8
86	86	16
25	26	7
134	134	3
41	200	3
211	211	2
133	133	14
220	220	13
65	68	3
82	82	8
6	6	14
124	127	1
169	169	21
193	201	5
45	45	24
14	16	2
143	145	4
7	7	7
75	76	1
135	135	8
48	82	4
80	95	5
152	157	1
119	120	4
68	77	3
170	170	18
219	219	17
139	140	5
131	131	8
80	85	1
208	208	14
154	165	2
159	221	10
190	210	6
238	241	4
129	130	1
205	206	3
37	38	8
141	159	3
51	54	6
216	216	11
42	75	5
72	73	1
155	156	5
67	67	4
27	28	3
211	212	4
59	60	14
133	136	1
62	62	5
170	171	6
18	18	4
161	205	5
8	9	6
156	156	8
200	200	8
113	113	11
122	128	1
140	141	5
63	63	28
15	16	1
16	17	10
10	11	8
31	32	10
163	164	8
214	217	4
185	185	10
163	163	11
211	230	2
49	49	6
35	35	10
4	4	15
2	109	1
145	150	1
117	166	2
47	149	1
207	227	4
26	26	13
183	204	2
80	83	2
97	97	8
28	28	14
138	138	7
133	139	1
132	134	2
122	166	3
134	138	3
126	126	4
122	169	1
135	162	2
237	237	12
40	40	5
148	148	6
26	237	3
99	101	4
2	6	2
14	14	5
55	56	5
45	47	1
56	57	10
47	119	3
145	145	5
124	124	10
143	144	8
212	212	9
215	216	5
80	81	5
105	109	3
66	66	12
182	183	1
141	158	3
128	169	2
57	57	5
8	8	3
240	241	2
180	180	23
36	56	2
232	232	18
108	125	2
160	160	13
117	118	3
157	160	8
71	71	11
1	104	1
64	64	14
44	44	20
44	45	7
22	22	4
64	65	3
218	226	2
146	147	9
123	123	5
53	54	5
11	12	3
187	196	2
234	235	4
28	29	3
107	109	4
153	154	5
32	114	4
71	72	2
127	201	1
0	0	6
112	112	8
26	60	3
116	117	2
138	205	5
3	37	1
151	152	4
158	160	4
158	221	4
26	61	4
179	179	10
154	160	3
48	174	3
230	230	6
233	234	3
84	85	5
15	15	2
217	222	1
103	113	5
183	196	2
183	184	7
149	150	10
123	199	1
175	232	3
202	204	1
46	74	1
214	228	1
143	146	3
201	201	13
135	137	8
99	117	2
71	73	2
103	104	5
73	73	7
14	18	4
188	188	7
104	104	10
116	116	8
177	177	3
63	64	5
159	220	2
117	117	1
66	67	1
67	68	1
174	175	3
111	120	3
210	210	15
44	173	1
208	232	1
46	64	6
34	85	3
202	203	5
0	24	3
167	168	1
138	208	1
29	42	3
1	2	5
190	191	8
19	22	2
103	105	5
13	14	3
171	177	2
69	70	7
32	74	5
77	79	2
28	43	1
173	176	3
62	85	1
77	89	1
180	181	6
177	178	3
107	108	4
15	85	2
188	189	6
18	55	6
56	56	5
97	148	2
116	119	4
73	74	2
46	120	2
48	49	9
214	214	11
1	6	2
48	134	4
209	209	3
168	168	8
238	239	2
57	81	1
55	104	4
99	106	1
43	44	2
157	158	4
31	113	4
38	39	3
79	103	1
222	224	1
48	135	2
57	165	2
32	176	2
48	114	4
191	231	1
203	238	4
179	181	3
211	227	2
33	51	3
171	200	2
222	222	19
33	35	2
226	228	5
105	105	6
231	232	5
182	202	5
27	29	1
194	196	1
136	137	2
155	157	3
172	173	7
111	111	2
21	107	1
128	168	3
171	174	1
106	106	7
138	161	2
12	12	8
172	175	1
224	232	2
13	13	4
219	232	2
4	5	1
139	143	2
125	126	2
46	47	5
121	122	3
117	148	1
191	192	2
78	79	4
30	38	4
164	170	3
197	199	3
62	64	3
189	190	2
62	65	2
54	55	5
3	103	5
201	202	5
219	220	1
208	221	1
112	113	3
240	240	1
135	136	6
122	123	3
127	128	4
206	207	1
205	205	11
40	88	1
48	136	3
107	107	2
131	133	2
110	110	1
187	187	2
139	142	2
161	162	1
75	75	4
183	201	4
76	77	2
180	219	2
142	142	9
28	38	1
40	41	2
104	108	3
56	96	3
232	233	4
203	206	1
68	69	6
198	200	1
243	243	1
61	64	2
40	112	1
215	217	1
226	227	7
121	153	2
52	52	1
28	42	2
84	84	1
81	82	2
183	195	1
173	174	2
72	84	2
51	53	5
3	104	1
108	108	5
89	89	2
176	176	3
106	107	2
81	109	2
182	220	1
157	182	1
54	56	3
120	120	9
149	164	3
64	66	4
58	60	2
180	182	2
182	203	2
29	100	2
195	196	1
34	35	2
1	110	2
69	72	6
18	35	2
33	131	2
128	203	2
125	194	1
238	238	3
107	201	3
22	85	1
77	80	5
139	161	2
66	69	1
176	203	4
102	103	2
61	62	1
1	24	2
149	149	4
190	190	1
39	40	1
175	176	3
169	170	5
105	127	1
28	75	1
147	153	1
96	140	1
126	134	2
150	150	3
27	46	1
233	235	2
3	33	1
5	5	2
121	152	2
127	170	1
138	139	9
180	193	1
0	11	1
27	38	1
49	139	1
20	36	1
223	225	1
14	15	4
189	189	3
50	52	3
191	202	1
123	125	1
52	132	2
110	124	2
124	169	1
123	124	3
1	8	1
95	95	2
153	155	1
12	13	3
11	13	2
97	145	3
225	231	1
101	113	4
3	24	1
141	161	1
163	172	3
160	161	3
96	97	2
2	3	2
208	222	4
137	138	4
9	15	1
213	230	1
33	129	2
143	163	2
104	111	1
167	184	1
54	110	2
32	35	5
194	194	1
164	165	2
187	227	1
23	23	3
187	190	1
160	183	4
127	133	1
79	108	1
204	205	1
199	200	1
160	205	1
76	78	2
152	153	1
85	103	2
144	145	1
9	237	1
19	20	1
182	206	2
221	231	1
20	21	3
66	77	1
172	176	2
126	168	1
20	22	2
141	160	1
120	171	2
67	77	1
5	12	1
57	58	1
20	38	2
28	74	2
187	189	3
185	186	1
208	209	1
50	53	1
104	105	1
192	204	1
18	22	4
96	121	1
152	165	1
96	101	2
70	71	2
76	141	2
56	89	1
53	55	1
35	52	1
116	118	1
205	207	2
52	53	2
138	164	2
226	226	1
37	52	1
13	16	3
226	229	1
193	196	2
31	101	2
129	133	1
42	200	1
18	23	1
114	119	1
38	171	3
95	101	2
150	164	1
65	66	2
60	64	1
30	40	4
191	220	2
176	204	1
98	101	1
163	165	1
165	166	1
21	34	1
12	14	1
13	21	1
220	221	3
140	221	1
101	102	1
43	128	1
65	80	2
229	229	3
30	102	1
115	115	1
213	215	1
10	25	1
43	175	1
27	37	1
107	129	1
199	199	1
28	98	2
141	142	1
216	217	1
69	71	1
219	226	1
95	102	2
7	12	1
183	205	1
162	165	1
57	60	1
167	167	1
179	239	1
120	165	1
57	79	1
68	78	2
67	89	1
39	98	1
38	74	1
109	110	1
81	85	1
55	60	1
186	202	2
63	84	1
187	198	1
117	149	1
15	57	1
27	61	1
75	99	1
107	167	1
204	237	1
229	230	1
141	152	1
110	122	1
