59	85	1
41	66	1
104	143	1
91	91	4
104	105	4
121	121	6
98	141	2
29	30	3
18	30	8
69	84	2
82	82	7
81	91	4
77	77	2
67	67	3
57	57	3
122	122	4
130	131	4
90	90	8
56	56	6
126	126	4
19	84	2
130	130	7
107	107	7
133	133	8
138	138	5
145	145	9
109	109	12
59	60	3
17	17	8
73	73	3
110	110	10
129	129	2
90	93	2
14	14	2
42	66	4
101	102	4
129	140	5
68	68	5
83	85	3
23	23	6
85	85	5
39	41	3
13	13	1
96	96	5
142	142	5
132	132	5
100	104	4
105	105	3
19	19	3
0	0	4
81	81	6
129	130	1
26	26	6
98	98	4
37	56	2
28	29	1
125	126	1
12	13	7
120	127	2
114	118	1
141	141	8
36	36	4
125	125	2
89	89	4
116	116	3
21	21	4
43	64	3
111	111	7
72	89	4
143	143	1
93	113	5
27	28	5
35	35	5
142	143	1
92	122	2
54	54	4
103	103	2
143	144	2
32	33	3
59	63	1
69	69	8
6	9	1
33	75	3
25	25	1
47	47	3
104	141	1
79	79	6
65	65	3
69	71	2
2	2	2
8	9	2
51	51	4
93	96	4
35	59	1
89	91	4
115	115	2
0	1	2
134	134	2
70	71	3
2	20	1
127	127	4
37	38	1
112	119	2
97	97	7
123	123	2
73	79	3
64	64	4
47	56	3
84	84	2
139	139	3
13	23	4
34	34	1
131	134	1
106	106	2
93	93	4
118	123	1
53	103	2
119	119	5
95	97	2
82	85	2
119	136	3
57	79	5
3	47	1
140	140	3
100	140	4
59	59	11
15	15	3
128	129	1
30	30	3
41	42	2
73	88	1
118	139	1
66	66	5
41	67	2
58	58	2
33	76	2
38	55	2
1	20	5
28	30	4
29	29	1
37	64	3
5	29	3
119	120	4
74	75	1
55	75	2
108	108	2
5	5	2
25	29	1
100	100	1
13	29	1
31	36	1
63	63	5
34	64	1
128	140	6
92	92	2
4	31	1
50	73	2
76	76	1
94	95	1
128	128	1
123	127	2
109	110	2
50	51	2
137	137	3
80	86	3
9	9	2
104	107	4
70	70	2
112	112	1
48	51	2
4	32	2
88	90	1
38	38	2
75	75	4
131	131	4
94	112	5
32	32	2
1	1	3
114	114	2
11	22	1
136	136	6
113	113	3
117	117	3
39	65	3
4	30	2
94	94	3
81	82	1
68	70	1
97	118	3
72	72	2
48	48	1
20	21	2
95	112	3
42	61	5
62	62	3
71	71	3
136	139	1
61	62	1
49	49	1
61	61	3
40	41	4
4	36	2
78	78	5
118	119	2
124	124	2
110	129	2
98	105	1
96	97	1
3	51	3
118	118	1
90	91	2
86	87	3
16	76	1
87	87	2
18	19	2
3	31	1
19	20	4
109	129	3
41	41	2
83	83	2
6	29	3
10	11	1
2	3	1
71	89	1
37	37	4
64	67	2
67	68	2
80	81	1
30	32	1
36	42	1
107	141	3
136	137	2
104	104	1
83	87	2
4	4	1
74	74	2
112	118	2
33	33	1
31	35	1
105	106	1
86	86	2
12	12	3
23	29	1
123	124	1
83	84	2
119	128	1
24	24	1
71	81	1
76	77	1
94	113	2
72	79	1
50	77	1
69	70	1
23	25	1
14	33	1
54	106	1
10	10	1
40	40	1
12	23	1
109	128	1
79	80	2
75	76	1
95	128	1
35	43	1
