59	59	8
97	97	7
105	106	2
95	98	1
41	41	4
96	97	1
99	100	1
49	49	4
48	49	5
68	89	1
65	97	1
31	34	1
57	57	8
79	81	2
29	29	2
53	53	8
100	100	3
75	75	13
39	43	1
42	101	2
45	45	8
46	49	2
26	31	1
23	23	4
34	34	11
38	38	4
80	80	8
60	60	1
50	50	5
68	68	7
22	22	3
93	93	8
33	33	2
40	40	7
61	68	3
43	47	2
43	44	7
51	51	4
73	102	1
78	79	3
32	33	1
44	44	6
90	92	4
76	76	9
33	34	6
57	58	2
54	56	1
68	70	2
64	98	1
74	75	2
37	95	1
88	88	4
84	84	2
62	62	4
24	24	8
95	95	5
102	105	1
54	76	4
65	66	3
102	102	3
74	74	2
96	96	2
63	95	1
37	37	1
82	87	1
101	104	1
101	101	7
61	98	3
91	91	2
32	32	5
70	71	1
58	58	1
35	65	2
105	105	2
23	24	5
38	39	2
23	100	2
87	87	5
64	68	2
50	52	1
92	92	1
88	89	1
78	78	3
21	75	1
54	54	7
89	90	3
71	74	2
66	66	2
69	71	1
54	60	1
26	26	2
35	35	4
68	69	3
87	89	4
104	105	1
106	106	3
62	64	2
100	101	2
65	65	1
64	64	5
70	70	5
21	21	5
61	61	2
89	89	4
82	82	7
21	95	1
24	26	1
98	99	2
94	94	6
68	99	4
46	46	3
84	86	2
27	27	3
23	26	1
63	91	1
56	57	2
55	55	7
94	95	2
28	29	2
79	79	1
71	78	2
39	106	4
104	104	3
79	80	3
73	78	4
82	83	3
102	103	2
24	25	1
56	58	1
53	54	3
58	59	1
89	93	1
30	37	1
76	77	1
56	56	3
65	91	3
20	21	1
103	103	4
33	41	1
77	77	3
20	20	2
69	69	1
42	43	2
64	99	1
56	76	2
82	84	2
44	45	2
73	74	2
26	106	1
98	98	1
29	30	1
67	97	2
77	78	1
40	41	2
27	28	1
55	60	2
75	76	1
72	76	1
81	87	1
22	107	1
35	64	1
63	64	2
37	93	1
33	40	2
71	71	1
25	25	2
36	36	1
67	67	1
27	64	1
22	63	2
47	105	1
49	104	1
52	60	1
47	106	1
88	90	1
29	37	1
29	39	1
41	53	1
31	31	1
91	92	1
26	30	1
61	99	1
25	106	1
103	104	2
27	45	1
23	107	2
90	90	1
83	83	1
47	48	1
101	102	1
99	99	1
39	39	1
