90	91	1
53	53	3
66	74	3
54	55	4
77	77	8
40	40	9
54	81	1
86	91	2
56	56	11
54	82	2
74	74	9
66	66	16
91	91	10
40	65	2
65	66	4
36	36	5
49	49	5
42	42	8
86	86	7
88	88	9
55	55	3
60	60	11
95	97	2
61	61	8
72	72	5
85	93	1
26	26	4
62	63	4
70	71	5
41	73	2
92	94	3
82	99	1
85	94	3
65	65	10
83	83	4
85	85	3
47	47	7
63	63	4
38	38	6
83	86	4
34	34	6
71	89	2
71	76	1
50	50	7
44	45	1
44	44	5
93	93	3
80	80	9
41	41	5
59	59	3
79	80	5
70	70	8
60	63	2
81	81	6
75	76	2
76	76	6
99	99	2
57	57	9
71	72	3
67	67	6
98	98	2
81	82	5
29	34	2
92	92	3
44	65	2
69	70	4
66	77	1
49	50	6
84	84	2
45	45	9
71	71	5
83	98	1
90	90	8
44	75	2
99	100	2
68	76	2
72	73	5
22	22	2
43	43	4
54	84	1
52	52	3
30	30	4
62	62	5
73	73	7
83	85	1
63	64	5
48	48	5
89	89	5
48	49	6
54	54	1
58	58	6
87	88	3
80	84	3
64	64	8
101	101	3
56	58	4
102	102	4
51	52	1
75	75	11
61	77	2
88	95	1
28	28	1
86	88	2
55	56	1
40	41	3
47	82	1
40	58	2
71	74	1
76	77	1
24	24	1
80	81	2
68	68	4
67	68	1
78	78	2
89	99	2
84	94	1
26	27	1
34	35	1
63	83	2
97	97	1
79	79	4
68	69	2
87	87	1
91	92	3
100	100	1
86	87	1
44	51	1
46	46	2
27	27	4
101	102	2
58	60	3
72	77	1
50	79	2
77	78	2
47	57	3
25	27	1
83	84	1
72	74	2
50	59	3
35	35	1
76	85	1
51	77	1
94	94	2
89	90	3
37	37	2
88	89	2
100	101	2
25	26	2
65	67	1
56	57	3
29	42	1
31	32	6
66	67	1
79	87	1
31	31	1
63	65	1
69	76	1
43	74	1
82	84	1
25	25	2
63	80	1
47	48	1
20	27	3
61	63	1
43	66	1
69	69	3
85	86	1
24	26	1
62	76	2
67	73	1
39	39	1
45	60	1
36	37	1
65	77	1
51	51	1
79	81	2
31	43	1
86	89	1
55	57	1
33	33	1
42	43	1
44	50	1
48	58	1
41	42	1
98	99	1
59	64	1
