59	60	9
103	103	1
43	43	6
20	21	3
86	86	4
74	74	6
10	10	2
131	131	4
125	125	7
87	88	2
112	112	2
35	36	2
20	20	8
123	123	7
27	27	8
76	76	3
71	71	7
24	24	6
124	124	4
95	95	7
83	83	5
133	134	6
25	28	5
126	127	2
38	38	1
98	98	6
84	84	4
39	39	13
57	57	2
100	100	1
90	90	4
29	30	1
81	81	2
91	91	2
107	107	4
127	127	3
17	17	10
28	29	1
19	19	1
55	56	1
47	48	2
36	39	2
77	80	2
34	34	10
77	78	5
47	47	3
33	33	9
65	65	1
79	80	3
84	85	9
24	25	2
67	67	2
126	126	3
21	21	5
4	5	3
24	27	2
66	67	3
14	14	1
1	1	1
94	99	3
16	16	6
112	113	2
17	19	1
111	111	1
118	119	4
42	43	2
68	68	7
120	125	4
69	69	6
18	34	3
59	59	3
92	92	1
64	64	5
75	75	2
31	32	1
119	119	2
93	93	4
76	78	1
28	28	2
108	108	4
4	4	2
29	29	6
35	35	3
110	110	2
40	40	3
5	30	2
97	97	2
46	46	3
70	70	3
67	69	2
85	85	3
84	131	4
96	97	5
72	76	1
115	116	4
9	9	1
61	63	1
25	25	1
132	132	3
8	8	1
102	102	4
73	73	2
118	118	4
80	95	1
57	58	2
11	11	2
82	132	1
14	35	1
32	33	4
41	43	1
100	101	1
78	79	2
41	41	3
41	42	3
134	134	4
56	56	2
3	3	1
101	102	1
32	32	4
36	36	3
116	117	1
106	107	1
130	132	1
43	44	1
13	13	4
2	2	6
15	16	2
102	103	1
30	30	1
30	132	3
22	22	1
77	96	2
133	133	1
120	121	1
21	41	1
74	76	2
117	117	2
82	92	3
119	120	1
39	40	2
8	10	1
114	114	1
18	18	2
45	55	2
131	132	1
61	61	4
82	82	2
123	124	2
29	88	4
7	7	2
109	111	1
72	75	1
94	94	4
44	44	1
37	38	1
74	82	1
99	99	2
74	75	1
0	0	2
40	41	1
123	127	1
64	66	1
18	19	1
122	123	1
42	42	1
3	6	2
130	130	1
51	51	1
128	128	1
129	130	1
55	120	1
44	45	1
127	129	1
88	88	2
17	34	1
114	115	1
105	106	1
117	119	1
93	102	2
63	63	1
111	116	1
83	87	1
58	58	1
5	5	1
115	115	1
68	102	1
5	36	2
117	118	1
91	102	1
