76	76	12
4	11	5
73	73	8
29	29	7
38	63	2
68	71	3
55	71	3
10	10	6
72	72	1
45	49	2
40	42	3
36	47	6
21	23	8
46	47	7
24	27	2
70	70	5
47	47	5
59	59	10
32	33	2
26	27	2
59	77	3
58	58	18
0	2	3
47	59	1
9	14	5
75	75	11
56	71	1
19	21	3
68	68	14
55	56	2
57	75	8
39	40	2
2	3	7
29	30	8
64	65	8
49	51	1
71	71	9
45	45	5
33	49	2
60	60	6
20	38	2
77	77	5
51	51	8
55	55	7
35	35	9
34	49	5
26	60	1
67	76	2
9	66	2
1	2	4
55	69	2
41	42	2
56	60	1
24	44	1
54	63	1
45	58	4
42	42	7
57	57	3
7	7	4
74	74	6
22	22	4
23	23	3
33	42	2
72	73	2
49	49	6
26	50	2
0	11	1
19	24	7
69	69	4
31	38	3
61	61	4
18	18	3
39	39	4
5	5	1
24	24	3
3	37	2
21	37	1
0	8	4
44	55	3
63	65	3
4	4	6
8	11	2
11	14	1
9	36	1
46	56	1
6	8	4
44	61	1
7	14	4
67	68	2
33	33	3
26	33	2
9	9	5
41	43	1
34	39	4
68	77	6
43	55	1
35	42	2
52	52	3
54	54	7
29	33	1
3	3	6
67	67	3
31	31	3
49	53	5
53	57	1
59	76	3
42	58	1
22	32	1
23	26	3
46	46	2
49	73	3
44	58	3
51	53	3
26	47	2
56	77	2
65	65	9
56	57	2
19	19	3
54	65	3
0	0	3
40	49	2
1	1	6
38	38	4
40	40	4
44	48	2
33	38	1
34	34	5
24	25	1
27	28	2
11	67	3
20	21	2
30	43	3
40	54	4
25	44	3
62	68	3
14	14	2
27	42	1
52	68	1
62	62	4
9	11	3
25	36	1
53	63	2
74	76	2
19	20	1
69	70	6
53	55	2
63	63	6
19	48	3
52	53	3
34	46	1
8	8	1
43	43	2
33	55	1
19	37	1
65	72	2
56	56	5
26	39	1
30	31	4
6	12	1
65	66	2
20	20	2
19	28	1
27	27	4
9	10	3
53	53	4
43	57	1
52	55	2
24	34	2
31	35	1
71	72	1
9	12	1
57	59	3
21	27	1
43	44	1
70	72	1
33	34	3
3	5	1
62	63	1
63	66	2
73	77	2
38	40	1
43	49	1
68	70	2
4	10	1
28	38	1
6	10	3
29	36	2
8	12	1
39	53	2
30	30	2
23	24	2
42	44	1
48	48	1
60	76	2
40	43	1
64	64	2
30	32	4
49	50	1
2	2	1
75	76	1
35	45	2
37	37	1
44	45	1
29	44	1
45	56	1
23	31	1
49	52	1
38	42	1
25	34	1
61	65	2
22	26	1
64	71	1
34	50	1
60	69	1
