3	3	9
5	5	13
27	32	3
115	115	4
111	111	18
7	7	7
115	117	4
109	112	3
83	83	14
89	92	1
78	79	2
89	89	9
91	91	13
136	136	14
97	97	6
79	94	2
105	112	1
99	100	2
72	92	2
12	121	4
98	98	13
128	128	6
4	4	6
112	112	15
72	72	10
100	103	3
29	29	19
2	2	5
71	71	22
17	19	1
38	38	5
101	101	13
104	104	11
106	106	10
75	75	11
85	85	12
15	18	6
134	135	2
27	27	11
127	129	3
95	95	7
72	99	3
77	77	19
117	117	8
133	133	9
75	91	3
94	95	3
127	128	7
88	88	7
97	107	3
120	121	5
10	15	3
81	81	14
90	91	4
10	11	4
79	84	2
129	129	11
139	139	1
98	127	2
10	10	23
104	105	8
101	102	2
36	36	6
102	102	8
134	134	9
88	89	5
74	74	15
17	17	6
4	91	4
73	74	4
84	85	2
2	3	4
119	119	9
126	126	8
1	1	11
81	93	3
124	130	2
0	3	1
6	6	22
30	73	2
13	14	1
5	24	1
109	109	9
82	82	25
137	138	9
137	137	2
100	100	14
21	21	9
19	20	2
76	76	12
87	87	13
113	113	11
103	103	7
25	25	14
107	108	3
127	127	11
78	78	19
28	28	5
79	79	3
9	13	2
9	9	14
124	124	9
86	86	14
13	13	6
96	96	6
115	116	3
33	33	3
20	20	10
131	131	7
11	12	5
80	80	16
135	135	7
73	73	5
4	24	2
34	35	6
84	84	5
23	23	13
130	130	3
120	125	3
111	112	3
23	24	4
84	95	3
90	90	15
122	125	1
120	122	4
128	129	9
16	16	8
132	132	6
94	94	4
121	122	4
118	120	16
119	120	5
28	29	2
125	130	2
17	18	2
27	43	2
20	21	7
122	122	6
105	105	6
116	126	3
30	30	11
113	114	10
23	27	1
108	110	2
140	140	4
15	15	7
129	130	3
124	125	2
34	34	10
116	116	6
106	107	4
74	75	4
121	121	12
107	107	19
130	131	1
10	17	4
100	125	5
6	24	1
74	119	5
80	96	2
117	122	3
5	6	1
3	4	8
108	109	3
118	118	10
83	84	4
114	114	20
0	0	3
92	92	10
99	99	2
37	37	6
110	110	10
0	1	4
95	96	10
125	125	4
139	140	2
0	91	1
18	18	14
26	27	2
32	33	2
37	38	2
74	81	2
28	30	5
6	7	1
12	12	7
5	79	2
72	98	4
110	111	2
32	32	2
123	124	2
78	92	5
19	19	9
93	93	5
122	123	3
121	124	1
8	9	2
101	115	2
87	89	2
77	78	6
97	98	6
116	117	1
96	98	2
108	108	5
90	94	2
123	125	1
72	97	1
31	32	5
138	138	2
120	120	5
135	136	1
122	126	1
24	24	4
107	110	1
31	31	2
14	121	3
78	93	2
15	31	1
105	106	3
22	24	6
14	14	4
71	102	2
2	4	3
26	37	1
71	101	1
99	116	2
99	127	1
27	28	3
112	113	3
20	22	1
88	103	1
27	30	2
14	124	1
89	91	2
33	34	6
22	23	2
103	104	1
125	129	1
12	13	3
22	26	2
15	16	3
15	17	2
8	12	2
86	111	1
2	36	3
36	37	2
81	83	2
100	101	1
75	84	1
76	77	1
9	14	1
11	11	2
74	92	2
112	117	1
82	85	1
128	130	5
118	121	1
8	8	4
8	77	1
71	73	1
104	108	2
104	112	1
107	111	2
126	127	1
120	123	1
30	31	1
4	5	1
18	19	2
11	14	1
75	88	1
96	126	1
81	82	3
131	132	2
111	124	1
15	28	2
11	13	1
123	123	2
116	119	2
117	120	1
17	21	1
21	22	3
12	14	1
74	82	1
32	38	1
78	84	2
72	73	1
26	26	2
35	35	1
23	26	1
22	22	1
86	88	1
14	120	1
32	35	1
74	94	1
71	74	1
3	20	1
6	79	1
14	125	1
