27	27	7
68	68	3
44	46	1
0	2	3
41	41	6
36	41	1
67	67	14
49	57	1
34	43	3
72	73	1
77	77	8
41	42	6
32	32	10
29	29	2
63	63	6
62	62	11
34	67	4
50	50	10
55	55	18
39	45	2
53	53	6
23	23	9
57	57	5
61	64	1
69	69	9
3	3	6
57	59	2
35	35	12
4	24	4
54	54	16
26	26	8
75	75	4
4	13	6
65	65	6
74	74	12
2	20	4
23	24	3
34	34	1
49	64	4
51	56	4
5	5	10
29	30	8
56	57	7
45	47	5
64	64	2
21	21	3
71	74	1
48	48	5
58	59	2
24	25	1
0	0	6
53	54	3
25	25	10
49	49	6
60	61	3
61	61	5
37	37	5
36	36	5
11	11	7
52	53	2
52	52	9
7	8	2
13	13	3
59	59	8
12	12	9
55	74	2
50	54	1
34	39	1
43	44	2
40	41	3
28	28	10
75	76	1
50	51	5
33	71	2
43	43	7
21	24	1
33	33	2
73	74	3
31	31	4
4	5	2
5	7	1
76	76	4
70	70	5
11	12	1
22	22	7
40	63	2
30	30	2
28	31	3
51	51	6
61	63	1
22	74	4
30	31	3
56	56	9
18	20	1
47	48	1
14	14	1
1	2	3
73	73	4
42	42	11
45	45	9
50	53	5
65	66	2
39	71	1
33	34	3
21	22	5
20	35	1
70	71	5
38	38	4
6	6	3
28	29	1
10	10	1
0	49	1
50	71	1
37	38	2
24	24	4
40	48	2
43	64	5
48	74	2
70	74	1
58	58	6
8	8	4
35	37	2
40	40	1
7	15	4
23	30	1
72	72	2
9	12	2
33	67	1
6	75	1
71	71	1
66	67	2
13	22	1
35	70	1
21	67	4
1	1	2
60	60	3
31	48	2
46	46	5
21	35	2
7	7	4
39	63	3
41	43	3
61	62	2
22	49	2
47	77	3
58	69	1
46	47	1
22	23	1
53	57	1
49	54	2
66	66	1
35	39	2
49	53	3
62	64	2
47	47	6
63	64	1
36	37	3
70	75	3
34	42	5
74	75	1
10	11	1
9	9	1
63	66	2
35	36	3
32	77	1
76	77	1
39	40	1
19	19	5
51	55	1
27	49	1
37	43	1
6	7	1
2	2	1
19	36	1
21	25	1
24	31	2
18	18	1
0	1	2
20	20	2
32	74	1
54	77	1
64	65	1
36	71	1
31	40	3
22	66	1
22	24	1
0	27	1
74	76	1
3	4	1
58	68	1
69	75	2
1	50	1
34	35	1
43	46	1
