149	149	7
37	37	12
16	24	1
187	191	2
52	52	3
186	186	11
89	89	16
61	62	3
172	172	8
66	66	6
64	64	5
112	112	10
60	61	2
97	97	5
190	190	3
178	178	7
81	82	4
39	40	1
60	60	4
65	65	10
143	144	3
55	55	7
197	197	13
119	142	4
26	26	15
142	142	8
121	121	9
147	147	11
3	22	1
161	161	2
107	107	2
145	146	5
21	37	2
9	9	5
191	191	3
154	155	5
150	150	14
115	116	1
11	12	4
82	82	4
145	145	3
98	98	7
80	80	10
40	40	11
166	166	2
114	115	1
88	90	1
24	24	5
122	122	10
144	144	8
17	27	4
50	56	4
171	171	7
174	175	3
47	48	2
167	167	2
185	185	6
10	10	6
180	181	6
9	10	3
28	29	6
94	94	3
161	162	9
174	174	8
116	116	4
101	160	6
153	153	18
127	127	4
113	113	10
98	166	2
101	102	2
46	46	8
115	115	9
139	139	9
36	36	8
30	30	11
152	159	3
136	136	12
128	128	16
188	188	3
126	194	1
63	63	4
8	8	4
49	50	2
170	193	9
126	126	9
107	111	4
69	69	12
50	52	4
20	20	2
194	194	12
73	73	9
168	168	8
188	190	5
102	102	2
131	131	9
192	193	1
59	126	2
140	140	3
143	143	6
64	65	4
137	137	6
134	186	3
43	156	1
116	189	9
118	119	3
48	48	6
74	75	2
17	17	5
133	133	9
169	170	2
12	12	4
178	180	2
122	160	2
16	16	6
100	100	2
11	11	3
13	13	4
71	71	10
110	120	1
135	135	2
102	103	1
104	104	7
25	25	10
14	15	2
35	35	12
76	77	2
40	41	4
181	181	6
56	56	2
47	47	14
4	4	6
83	83	5
28	28	9
0	0	1
180	180	10
45	45	11
173	173	2
155	155	3
21	21	3
51	63	3
190	191	2
59	59	3
138	138	8
18	18	6
126	179	10
108	110	3
51	51	7
19	20	2
33	33	6
187	187	6
25	26	2
129	129	3
43	43	6
22	22	3
21	23	2
132	133	1
101	101	5
3	3	5
44	44	3
3	4	4
171	193	2
13	15	1
170	170	5
67	68	4
85	85	8
38	44	6
76	76	3
106	148	4
13	14	2
114	186	2
156	156	2
130	132	1
79	81	3
96	96	2
156	157	1
131	139	1
53	53	8
8	9	1
101	159	1
193	193	3
94	95	3
50	50	4
32	33	2
2	2	3
195	195	4
78	79	1
58	59	1
61	61	5
138	169	1
57	58	1
5	5	4
162	166	1
43	44	3
157	158	6
37	38	2
39	42	1
183	183	4
111	112	1
21	22	2
42	42	5
104	105	4
189	189	4
117	117	9
193	194	2
49	52	3
124	125	2
72	72	6
19	19	7
192	192	6
71	72	3
97	98	3
38	43	3
118	120	1
79	79	3
58	130	5
176	176	2
117	169	3
49	49	3
105	105	5
36	37	1
119	120	4
29	31	1
165	165	2
85	86	2
46	69	2
141	196	1
151	151	4
2	21	3
74	74	3
109	109	6
38	38	9
46	47	1
81	81	6
34	34	2
114	114	4
26	28	3
103	104	3
184	184	10
171	192	1
60	74	1
142	148	1
196	196	13
72	73	3
6	6	4
164	164	4
12	13	3
186	187	4
27	27	5
17	31	1
133	134	4
177	177	4
37	43	2
104	144	3
130	130	2
54	54	9
185	186	2
56	129	3
41	42	6
39	39	6
14	14	7
170	171	4
135	136	7
32	32	5
89	93	2
68	68	2
120	142	2
41	41	5
121	123	4
144	145	1
107	147	3
58	58	6
158	158	3
62	62	2
130	131	1
78	78	6
10	11	3
189	190	4
77	77	4
161	167	1
96	97	5
77	78	3
41	197	1
7	7	2
0	36	4
70	71	3
155	197	1
118	121	2
136	138	4
182	183	3
123	123	4
86	86	5
108	118	2
154	154	3
55	63	2
15	15	5
148	148	5
191	192	1
22	24	1
20	21	1
57	57	4
175	175	3
69	71	2
6	152	1
131	184	2
162	162	2
16	32	3
166	167	1
121	122	1
168	169	1
155	156	1
124	124	4
167	177	4
110	110	5
175	177	1
120	159	1
160	161	1
70	73	1
88	88	3
132	132	2
87	87	1
23	23	2
160	160	1
75	75	4
110	111	3
67	67	2
108	108	3
125	125	2
159	159	1
97	113	1
20	36	3
55	59	1
146	146	1
17	30	1
37	44	1
129	130	2
38	39	4
147	148	1
122	124	1
38	47	1
157	157	2
0	3	2
110	137	1
112	171	1
172	173	2
153	158	2
152	152	1
138	184	1
66	85	1
7	8	4
50	63	2
119	119	1
151	152	1
141	141	1
76	79	2
71	73	1
51	53	3
40	122	3
182	182	1
122	196	1
70	72	1
2	157	1
48	53	1
171	172	1
176	190	1
122	123	1
0	37	2
103	151	2
134	136	1
107	173	1
137	185	1
195	197	1
15	16	3
106	163	1
134	134	1
10	42	1
195	196	2
172	174	2
141	195	1
84	84	2
131	132	2
109	110	1
50	51	1
169	169	1
59	61	2
187	188	2
27	28	1
82	83	1
127	193	1
33	37	1
58	62	1
108	109	2
139	140	1
95	95	1
106	106	3
80	81	1
29	30	2
29	29	1
130	184	1
154	197	1
7	9	1
2	4	1
186	188	1
174	176	1
66	67	1
183	184	1
104	148	1
66	89	1
