34	34	8
68	87	3
99	99	12
51	51	5
75	101	4
22	22	4
58	58	7
113	113	8
103	103	10
43	97	2
81	81	8
84	106	3
38	38	8
21	67	4
101	101	11
63	68	3
31	31	8
50	50	6
91	110	3
90	90	2
76	86	3
107	107	16
49	49	8
66	66	9
83	107	2
42	42	4
27	27	7
36	87	2
93	93	7
65	65	6
61	63	5
53	83	2
61	61	7
43	44	3
40	95	7
79	79	13
80	80	6
49	101	5
28	28	3
32	32	6
85	86	5
40	40	6
103	110	1
70	71	4
111	111	3
43	43	9
77	77	4
69	70	2
74	102	3
34	35	2
33	34	2
70	70	11
45	97	9
75	75	15
98	100	3
23	23	10
98	98	8
28	29	4
36	36	4
41	41	4
43	45	5
88	91	3
45	45	7
104	109	2
95	95	9
74	74	7
73	73	13
52	52	9
53	53	8
108	108	7
96	97	2
30	30	5
105	105	4
65	68	3
72	72	9
28	51	2
28	32	5
56	57	1
86	87	4
94	99	1
86	86	3
76	76	7
72	114	2
64	65	3
62	67	4
68	69	5
106	106	3
63	63	5
58	59	5
25	25	4
21	22	3
94	96	4
38	89	1
91	105	1
73	85	4
83	90	1
29	29	16
42	45	4
85	85	4
100	105	1
36	107	4
78	79	2
56	58	3
85	89	3
71	71	15
112	112	7
83	83	8
96	96	6
31	55	2
79	80	3
64	66	1
57	81	2
24	24	3
80	81	2
81	82	7
54	55	4
26	26	7
26	27	2
47	47	2
21	46	2
104	110	3
59	60	4
72	87	7
28	63	1
83	84	1
109	110	6
47	91	3
87	87	2
67	67	4
33	33	8
107	108	2
115	115	2
62	62	7
44	45	3
88	88	8
54	54	4
95	99	3
88	105	4
72	75	4
60	60	2
75	85	4
47	62	3
71	88	2
91	92	3
89	109	2
100	100	7
75	100	4
19	47	2
72	73	2
97	97	3
62	64	2
92	93	1
69	69	2
101	105	3
102	102	7
101	103	3
46	97	2
100	101	1
81	83	2
27	49	3
20	114	4
109	109	4
40	41	1
69	71	2
86	113	3
32	112	1
79	83	4
63	64	3
48	62	2
48	51	1
46	46	9
29	111	2
21	21	5
74	75	5
76	78	6
72	111	1
35	35	5
71	72	2
87	91	2
31	73	1
57	96	1
78	78	4
84	84	4
87	88	4
56	56	3
64	64	4
74	91	4
60	81	3
57	57	3
110	110	7
55	55	2
23	27	1
83	85	2
73	74	2
114	114	3
94	94	3
78	80	5
103	104	2
39	39	4
32	48	1
30	84	2
87	106	2
30	73	1
90	91	1
60	63	3
19	29	1
23	31	2
98	99	2
56	81	1
27	39	2
90	108	1
104	105	2
91	91	3
19	19	1
90	105	1
37	37	1
50	95	1
65	66	1
76	79	2
76	85	1
28	39	1
82	82	1
71	87	1
103	107	1
73	102	2
76	77	2
32	35	2
37	108	1
38	108	1
68	68	1
106	109	2
75	76	1
72	80	1
24	98	1
29	39	1
60	61	1
66	67	1
103	105	1
35	36	1
20	20	1
44	44	1
92	92	1
54	112	1
71	103	1
66	68	1
89	107	1
61	62	1
25	49	1
89	89	1
30	53	1
