68	68	9
20	23	3
55	56	3
51	51	20
27	39	1
66	67	9
74	74	6
91	109	2
100	101	7
82	83	8
45	45	15
91	102	1
28	28	12
83	83	10
21	22	4
69	72	1
42	73	1
41	42	13
34	34	12
77	79	3
65	67	1
45	100	3
36	36	18
92	92	8
78	78	3
24	24	12
76	79	3
36	41	10
76	76	13
77	85	3
93	94	9
20	22	2
52	60	1
48	78	3
31	54	3
61	61	16
72	75	2
86	86	5
42	46	1
47	80	2
22	48	5
70	71	2
40	41	2
34	36	4
92	93	3
97	97	22
25	50	5
70	70	15
90	104	3
66	66	16
58	59	7
109	110	4
96	96	11
39	39	4
112	112	6
24	83	2
88	88	8
57	57	8
74	75	8
106	106	7
69	69	10
30	30	15
37	37	15
86	92	7
67	67	17
26	28	2
23	43	1
62	63	2
56	56	4
26	26	15
102	103	3
32	37	2
59	74	2
72	72	1
55	55	3
84	90	2
28	29	4
54	55	10
87	93	5
62	72	4
113	113	15
20	21	5
52	52	7
31	32	4
54	54	13
43	60	1
49	49	7
72	73	1
63	63	5
77	78	4
28	31	5
95	95	6
71	72	3
47	47	10
65	65	17
48	49	7
23	26	3
41	51	2
21	21	7
102	102	5
33	33	4
89	89	9
91	106	3
73	73	3
53	55	2
53	53	5
25	48	1
51	62	3
24	46	7
74	76	2
25	25	12
67	68	1
26	45	4
32	35	3
35	35	13
90	91	2
38	38	9
33	34	1
27	31	5
80	80	7
53	60	1
67	74	2
98	98	9
79	79	16
104	104	5
32	32	7
59	100	2
98	105	3
71	71	8
99	102	1
57	58	6
42	43	12
22	22	8
80	81	3
39	40	5
111	111	6
78	85	4
36	37	3
41	73	4
46	49	1
62	62	8
99	100	5
107	107	4
82	82	9
94	94	5
37	38	2
95	99	5
50	50	9
81	83	3
85	85	2
87	88	4
62	80	1
73	74	2
22	23	4
103	103	10
42	52	1
97	108	2
75	75	9
64	66	1
107	108	3
100	100	5
90	90	7
98	106	3
59	60	5
40	40	7
38	39	3
90	93	8
98	99	12
44	44	9
110	110	9
46	46	10
85	87	1
24	85	2
35	55	3
26	42	2
60	60	6
78	79	1
92	109	2
86	90	1
27	27	11
26	27	4
45	113	2
82	88	2
41	41	10
105	109	1
43	43	13
37	39	2
105	106	2
114	114	1
99	99	6
53	54	3
64	65	2
67	69	4
108	108	5
23	23	3
77	80	1
32	51	1
83	88	1
59	59	4
61	64	1
98	104	1
46	51	1
82	86	1
32	33	2
77	77	3
29	30	2
104	106	4
101	112	1
93	93	2
61	71	4
70	72	1
55	57	1
104	105	4
73	75	3
113	114	2
84	85	2
42	42	9
28	37	3
65	66	3
25	45	1
63	70	1
109	109	2
84	108	1
83	84	2
100	111	1
47	78	4
58	58	3
104	107	1
24	51	4
105	105	1
36	68	1
46	50	2
89	110	1
36	39	1
90	102	2
88	110	1
103	106	1
25	26	2
94	102	1
78	82	2
106	107	5
59	61	1
52	55	2
101	101	6
91	108	1
63	64	1
20	20	3
31	31	5
43	44	2
81	81	1
64	64	4
42	60	2
61	65	3
90	94	2
75	76	1
86	87	1
59	87	1
87	110	1
94	97	1
63	74	1
28	43	1
33	35	1
48	48	1
81	87	2
34	66	1
84	104	1
107	110	1
37	43	3
88	109	1
34	35	1
59	85	1
49	72	4
61	69	1
34	37	1
29	29	4
25	83	1
48	80	1
69	70	1
91	91	1
94	103	1
77	81	2
76	77	2
96	97	1
100	102	2
90	105	1
25	46	2
28	34	1
72	79	2
52	111	1
87	87	2
60	65	1
42	45	1
42	51	1
55	65	1
92	97	1
27	28	1
89	108	1
81	82	1
75	78	1
25	49	1
42	85	1
55	59	1
44	51	1
98	102	1
50	51	1
26	44	1
34	44	1
52	64	1
81	85	1
