154	154	17
6	6	10
47	47	11
2	2	8
44	44	2
5	69	3
130	138	1
118	118	4
144	177	6
24	24	7
32	32	10
80	115	5
88	88	6
44	188	6
15	65	2
30	30	10
88	93	4
106	106	6
17	18	6
96	96	4
48	48	11
152	153	4
60	60	10
157	159	1
8	8	3
61	61	3
139	139	16
178	178	3
127	129	3
53	55	3
70	70	6
172	172	13
62	94	4
38	38	11
42	42	9
47	48	2
53	53	4
131	131	1
101	102	6
110	110	20
150	163	3
16	16	17
4	13	3
183	183	8
2	184	5
74	75	5
147	179	5
100	100	11
54	140	2
0	0	6
160	161	4
45	45	13
0	5	4
105	105	5
77	77	9
77	83	1
75	75	3
95	97	5
62	165	2
40	41	4
111	111	6
162	162	14
177	177	5
17	17	10
109	109	6
64	65	6
46	47	5
29	33	4
101	105	4
86	87	2
68	68	3
14	14	9
79	79	5
126	126	6
48	57	1
102	102	5
23	24	6
67	68	8
146	147	3
76	78	2
0	11	3
74	74	13
78	82	4
123	123	8
114	114	23
6	13	4
131	134	2
101	107	3
1	1	11
145	146	6
148	148	8
117	117	6
27	33	5
4	5	2
169	169	7
101	101	6
89	91	4
151	152	2
185	185	4
141	142	2
137	137	13
28	28	3
43	43	6
130	130	5
20	22	1
78	79	2
153	153	3
92	92	1
142	142	9
136	138	4
88	157	3
177	180	7
115	115	8
148	153	3
99	100	6
147	178	13
113	113	7
40	40	4
33	33	3
149	150	2
160	162	4
161	162	6
160	160	6
84	87	5
113	114	3
59	59	3
110	159	2
130	131	2
135	137	5
126	127	1
176	177	3
148	181	3
81	81	7
45	187	2
152	154	2
62	62	6
20	45	3
66	67	2
57	171	6
117	118	2
167	175	4
72	74	3
98	98	3
19	20	7
168	175	2
139	140	4
136	139	3
166	167	10
156	156	9
22	171	1
46	46	5
112	112	11
165	165	14
187	187	1
184	184	14
59	98	3
55	55	4
2	141	1
95	95	2
173	173	11
115	117	6
83	84	3
22	22	9
4	4	5
177	178	3
139	152	3
65	65	3
186	187	3
169	170	3
57	62	4
91	91	1
71	71	5
34	35	4
158	158	11
39	41	1
28	31	5
59	71	3
28	34	5
142	184	4
163	163	4
89	93	2
35	53	7
149	181	3
136	137	3
178	179	2
144	144	7
23	187	2
83	83	6
99	99	11
9	12	5
116	116	1
123	127	3
37	37	4
107	107	3
26	39	4
142	172	2
178	182	4
126	128	7
113	119	2
25	25	7
96	97	5
41	42	7
152	152	3
53	54	6
62	90	1
57	57	4
94	96	6
176	176	7
181	182	4
6	183	2
73	73	8
148	183	2
77	85	4
125	126	1
113	154	4
127	128	1
36	36	4
143	143	5
166	166	3
156	157	10
65	175	3
6	7	1
155	156	1
58	63	4
125	125	4
122	122	4
147	176	4
94	94	5
186	186	7
170	174	2
58	58	8
80	80	5
149	149	5
2	170	4
121	122	3
60	163	3
18	18	2
19	19	3
33	37	1
171	171	4
92	93	4
13	15	1
180	181	2
121	121	2
84	84	6
27	34	1
72	72	6
167	167	4
176	184	3
58	60	2
113	118	1
24	47	3
135	136	2
128	128	8
86	86	6
56	57	3
56	172	2
57	142	6
21	21	1
182	182	1
168	168	2
180	180	4
124	125	2
27	28	1
94	95	2
25	186	2
127	127	6
75	76	1
103	103	9
35	35	2
20	20	3
60	110	3
87	87	3
85	126	2
141	144	1
159	160	2
65	66	4
143	176	3
24	46	2
82	82	2
74	109	3
120	124	2
3	89	2
82	108	2
36	37	4
7	7	3
10	11	3
134	138	3
185	186	1
140	141	4
147	147	4
43	44	3
169	174	4
164	164	2
151	151	2
6	17	2
69	70	4
131	133	2
15	15	3
15	17	3
0	7	2
166	178	1
112	157	3
18	65	2
151	154	3
97	97	2
149	182	3
78	78	5
173	186	1
3	3	1
129	129	6
111	113	2
97	180	1
5	98	2
11	11	1
148	149	1
29	47	2
7	12	1
124	124	5
5	5	4
111	160	4
133	133	1
103	104	2
190	190	2
87	88	2
42	53	2
167	176	1
165	180	6
148	151	2
33	39	2
58	166	2
27	32	3
84	85	2
10	12	1
3	8	2
41	41	6
58	72	1
128	136	1
143	175	1
62	109	1
22	169	2
90	90	2
5	6	1
12	12	3
125	146	1
188	189	1
145	145	2
32	36	2
166	182	1
150	150	2
171	173	2
74	76	2
109	159	2
29	29	3
120	120	1
132	138	2
170	186	5
140	140	1
0	1	2
26	33	2
168	170	2
159	159	2
1	185	1
85	85	8
80	81	4
81	113	2
66	68	2
124	151	1
140	152	3
171	188	3
21	169	1
93	96	1
26	26	4
52	140	2
143	144	2
91	111	1
39	39	4
186	188	3
144	147	1
34	34	2
0	8	3
31	31	2
4	183	1
101	103	2
160	163	1
175	175	2
138	138	1
115	116	1
181	181	5
169	184	1
123	126	5
42	55	3
44	49	1
63	166	1
64	71	1
27	27	2
141	141	4
2	3	6
116	117	1
132	132	2
10	10	2
56	56	1
157	157	1
95	96	1
153	154	2
119	119	4
146	146	4
0	3	1
31	36	2
179	179	1
6	62	2
188	188	1
61	63	1
141	184	1
147	150	2
170	170	1
147	149	1
141	177	1
6	169	1
162	181	1
93	93	2
80	122	3
71	109	1
4	68	1
20	21	1
174	174	1
148	154	1
0	6	1
53	56	1
111	162	1
36	38	1
147	148	1
66	66	1
165	178	2
164	165	1
54	55	1
180	184	1
168	169	2
152	183	1
52	56	1
89	89	2
89	96	1
128	137	1
52	52	1
187	188	2
60	61	1
73	101	2
64	64	1
13	13	1
9	93	1
123	124	1
176	178	1
162	164	2
28	42	1
44	189	1
39	53	1
108	109	1
138	143	1
63	97	1
173	188	1
23	23	1
139	141	1
