31	56	3
19	25	2
51	54	2
49	49	20
0	0	12
49	50	8
18	18	31
44	44	17
38	39	13
13	18	3
45	60	1
32	32	17
42	44	1
1	1	19
12	12	4
46	46	20
25	38	1
2	2	27
24	24	7
6	7	11
19	20	2
48	48	11
45	45	20
34	34	6
14	14	15
6	6	7
34	35	5
30	30	26
33	33	28
7	23	2
25	25	14
6	8	4
42	59	1
47	47	22
8	12	2
12	45	3
48	49	4
20	47	1
46	50	1
20	20	10
13	51	1
0	34	5
0	11	3
3	3	17
56	56	21
36	36	17
53	53	10
8	8	12
7	11	2
19	19	12
54	54	17
32	35	2
32	33	6
17	17	21
59	59	16
18	20	1
40	40	8
3	4	3
58	59	8
16	29	2
15	15	7
23	23	13
49	62	2
41	45	1
11	16	4
11	12	6
31	31	12
43	43	24
16	16	9
37	44	4
34	37	4
4	6	3
40	53	3
21	21	9
31	32	4
37	37	14
24	25	1
45	54	3
39	40	4
17	19	3
55	55	20
22	22	17
15	44	2
54	59	7
31	34	3
18	19	1
2	6	1
45	46	5
35	35	8
10	10	14
51	51	10
12	22	2
41	59	1
31	42	2
41	41	10
58	62	2
35	45	1
22	55	1
43	45	2
32	39	2
13	13	19
33	42	2
38	38	15
9	23	1
44	54	1
4	5	6
55	59	2
51	58	5
50	50	16
38	59	1
36	37	3
4	4	16
5	13	2
5	5	16
16	18	3
53	55	4
46	49	2
43	59	3
18	60	1
8	9	15
5	11	2
7	7	14
2	3	4
5	6	3
59	60	1
51	57	4
9	20	2
39	39	10
46	51	2
57	57	31
62	62	11
29	56	3
14	15	5
13	25	1
51	62	3
9	21	1
3	19	1
21	22	3
9	9	10
53	62	2
3	18	2
4	20	1
36	56	4
60	60	5
43	51	2
30	42	1
53	57	10
10	11	1
15	16	7
23	25	1
44	45	9
53	59	2
33	46	1
6	11	5
24	50	1
31	37	5
45	50	1
15	21	2
60	61	2
10	13	1
20	24	6
13	55	1
42	42	11
40	41	2
18	44	2
9	10	11
5	12	1
11	11	12
24	35	1
57	59	2
41	53	3
53	58	6
43	46	5
44	46	2
23	32	1
20	23	3
29	32	2
50	56	1
12	13	4
21	24	4
3	16	2
52	56	1
41	54	2
29	30	3
53	60	1
0	1	4
30	31	2
37	41	2
42	46	3
38	45	2
45	55	3
16	17	4
51	56	1
13	44	3
7	9	3
25	60	1
12	14	1
12	19	2
40	52	2
20	25	1
34	47	4
22	23	2
17	18	2
7	13	2
9	12	2
49	56	3
40	59	2
30	34	1
44	48	6
0	10	1
53	56	3
12	20	2
45	49	2
42	43	3
0	5	4
7	8	1
13	14	1
37	38	3
9	45	3
50	57	1
23	50	2
51	61	2
4	23	2
37	57	1
33	48	2
52	58	3
47	48	4
9	15	2
42	49	1
2	22	3
16	24	3
10	46	3
39	44	5
24	26	1
40	43	1
22	54	1
1	2	6
52	52	7
61	61	4
1	7	3
13	17	1
46	56	2
33	49	1
13	56	2
48	50	1
13	19	2
11	23	1
2	46	2
10	14	4
25	59	2
26	38	2
25	31	1
41	58	1
25	37	1
44	57	2
57	61	3
34	49	1
54	55	1
29	29	3
61	62	1
49	51	5
9	41	1
4	24	1
6	10	1
22	30	2
6	23	1
23	38	1
36	51	1
20	32	2
38	60	2
37	39	3
22	24	1
2	21	1
56	59	3
55	56	3
3	35	1
7	12	1
10	21	1
14	17	1
58	58	2
35	46	1
6	9	1
41	43	1
35	40	1
36	55	2
29	36	1
31	35	3
43	44	3
36	41	3
35	36	1
18	39	1
41	42	1
3	9	2
48	56	1
0	6	2
1	8	1
39	45	2
50	51	2
9	17	1
14	51	1
5	8	1
38	61	1
54	58	1
17	44	1
31	61	2
38	51	2
20	21	1
9	29	2
46	47	1
5	21	1
53	54	1
7	21	2
14	52	1
41	44	1
4	21	1
42	61	1
52	55	1
29	49	1
40	42	1
4	44	1
5	32	1
46	53	1
44	50	1
33	60	1
30	35	2
16	58	1
12	21	1
2	18	1
45	56	1
