169	169	10
83	83	8
1	1	5
40	40	8
18	18	4
112	112	9
61	63	9
89	89	15
118	118	6
132	132	7
9	10	2
87	87	8
133	134	4
73	128	2
131	132	10
67	83	2
139	139	7
115	115	13
62	63	4
12	12	8
100	100	7
146	146	10
92	126	2
35	88	3
161	161	7
5	5	8
18	29	10
162	162	7
10	11	3
72	72	14
2	2	13
82	82	3
14	19	3
134	134	4
64	65	7
90	90	9
54	54	9
93	108	5
63	63	3
103	103	5
124	124	11
155	155	4
95	95	9
76	76	11
177	177	4
64	66	3
127	147	2
84	88	3
171	171	9
23	23	7
170	170	7
168	168	18
56	58	4
154	156	4
35	35	4
18	19	5
81	81	13
108	108	7
92	94	3
17	26	2
120	155	6
43	44	2
158	158	13
132	178	3
176	177	2
133	178	1
115	116	3
167	167	19
139	140	4
123	123	2
31	31	14
109	111	1
100	102	5
123	124	5
104	104	5
138	138	16
117	117	17
135	136	3
127	127	7
85	85	4
46	46	2
133	133	15
150	150	6
51	51	4
145	145	11
146	148	7
116	122	1
78	78	12
120	120	10
10	20	3
155	156	7
129	129	14
154	154	2
130	130	3
87	112	1
67	67	12
152	152	6
156	168	4
96	106	5
172	172	19
16	79	4
9	9	5
107	107	2
128	129	5
74	74	4
23	25	3
96	107	3
10	10	5
80	80	4
11	11	4
174	174	5
153	154	3
105	107	1
126	146	4
100	115	1
36	36	2
8	11	1
110	110	5
124	136	4
164	164	10
101	116	5
15	42	3
144	154	2
126	126	10
92	93	2
106	106	8
166	166	5
2	11	4
45	45	5
43	43	10
38	38	10
152	153	3
73	83	1
94	94	6
0	9	2
118	119	3
102	107	1
140	140	5
52	110	4
93	93	3
91	91	4
143	143	4
148	148	4
36	40	2
58	59	4
14	30	2
19	19	11
63	112	5
151	151	5
44	44	10
109	156	3
36	42	2
121	121	8
27	27	7
60	100	1
21	45	4
114	114	10
7	8	4
113	113	5
65	66	5
135	135	2
177	178	5
22	22	5
88	90	1
173	174	7
80	81	5
14	43	1
59	59	8
43	49	3
160	160	11
151	152	2
20	20	2
132	133	2
42	43	5
56	56	5
147	147	15
98	98	3
116	116	7
92	92	11
136	136	2
146	149	3
35	36	8
145	149	5
34	34	10
144	150	2
179	179	9
176	180	3
122	122	15
158	159	6
73	73	8
6	6	4
112	116	2
175	175	3
16	16	5
65	65	6
66	67	3
34	85	2
78	123	4
154	159	1
88	88	8
165	165	14
140	149	1
61	70	1
60	103	3
95	109	1
96	98	4
10	40	1
176	176	11
37	37	6
34	36	3
61	61	9
86	111	3
159	159	5
3	4	3
25	53	1
163	163	5
41	41	6
4	4	2
24	24	2
58	58	5
146	151	3
141	142	1
169	170	3
44	45	1
171	172	2
104	105	5
96	96	9
52	52	1
29	29	2
153	153	2
14	14	7
1	3	5
166	167	5
61	73	2
30	30	4
13	16	2
74	75	1
111	111	5
68	68	6
56	59	7
70	70	5
134	135	4
137	137	6
96	109	1
13	13	6
103	105	3
179	180	3
28	28	4
142	142	3
97	97	2
11	36	1
22	31	1
113	157	1
74	76	2
57	57	8
140	144	3
55	57	2
57	73	3
11	21	2
45	46	1
72	131	3
156	156	4
132	137	3
63	66	1
149	149	12
113	118	4
167	168	4
38	39	1
85	86	2
56	57	4
66	66	6
155	157	1
62	62	3
51	110	1
101	102	4
21	21	1
125	125	6
81	82	6
121	159	4
145	169	2
97	99	1
159	160	8
101	101	5
92	124	4
107	108	2
21	32	5
102	102	3
94	108	1
139	150	5
127	129	1
147	148	2
75	81	1
86	86	4
119	119	8
95	145	2
71	82	4
105	105	6
75	75	2
55	55	3
21	29	1
22	32	1
109	152	1
64	136	2
112	114	1
140	150	1
26	26	7
154	158	3
131	131	2
64	109	1
25	25	8
6	98	2
27	28	2
123	178	1
24	25	1
58	97	3
78	125	1
12	49	1
11	37	1
98	103	2
163	164	3
19	39	2
7	7	8
56	103	4
141	141	4
59	60	1
17	18	1
140	143	1
77	77	2
15	15	3
113	114	5
78	117	2
16	19	1
130	131	1
125	177	1
1	32	3
1	2	1
22	23	4
39	39	2
64	64	2
5	40	1
71	71	2
7	11	1
163	167	1
62	114	3
64	97	1
159	161	1
172	175	2
32	42	1
150	151	2
1	9	1
78	127	1
53	53	2
98	106	3
61	62	2
42	42	4
2	3	2
5	9	3
126	128	4
131	133	1
108	156	3
109	110	1
5	6	5
56	74	2
79	79	5
50	50	3
99	103	2
156	169	3
29	43	1
96	97	2
18	38	1
18	39	3
170	171	1
85	97	1
145	146	3
14	15	3
55	56	1
121	154	1
12	44	1
161	162	2
3	9	1
150	165	3
2	103	2
136	177	1
25	26	2
141	144	1
67	71	1
39	40	1
63	65	2
158	160	2
114	160	3
99	99	2
3	32	1
141	145	1
2	4	1
172	173	1
78	80	1
57	58	2
125	126	2
145	148	2
136	178	2
60	60	2
32	32	2
168	170	1
30	31	2
3	3	2
111	112	4
71	72	1
50	51	2
119	122	1
79	80	1
137	146	2
82	88	2
86	110	3
94	149	1
22	25	3
0	0	2
65	136	1
121	150	1
160	168	1
35	83	1
115	117	2
115	152	2
95	96	3
28	29	1
157	158	1
55	95	1
137	138	1
123	136	1
163	165	1
94	106	1
121	122	1
1	4	1
2	7	1
12	13	1
20	45	1
131	135	2
106	134	1
173	173	2
8	8	1
109	109	1
165	166	1
4	8	1
89	112	1
13	35	1
63	88	1
180	180	1
76	77	1
41	42	1
51	111	1
114	115	1
115	121	1
157	162	1
83	85	1
17	79	1
21	22	1
58	61	1
22	26	1
