14	14	13
131	137	3
116	116	3
74	74	13
124	124	13
71	88	1
37	37	3
32	70	5
96	96	6
100	100	9
196	196	6
136	137	5
183	183	12
48	48	6
3	11	2
59	148	3
24	24	10
44	44	7
80	81	4
98	98	13
66	68	1
63	80	2
168	168	7
24	38	4
24	27	1
135	135	5
84	84	7
60	131	4
82	83	3
25	26	7
128	180	4
36	36	9
126	126	1
140	140	9
50	50	8
161	164	5
129	158	3
45	45	7
139	139	5
160	160	2
101	101	12
150	150	9
35	35	14
51	51	8
194	194	7
97	97	8
153	157	1
163	163	3
73	150	3
56	56	19
149	194	1
110	110	5
61	61	8
57	57	6
70	71	7
111	122	2
125	125	3
106	107	2
117	122	1
15	15	14
75	75	5
41	41	6
98	141	2
1	1	9
62	67	3
135	149	2
188	188	9
5	9	6
162	162	4
104	112	8
67	67	14
146	146	5
26	26	9
62	69	1
47	47	8
77	77	13
114	116	7
140	172	2
68	68	9
147	147	11
65	65	3
182	183	1
158	159	1
54	54	9
60	130	4
52	52	8
120	121	2
93	94	3
112	112	2
132	133	4
185	185	7
191	191	10
104	104	9
70	70	13
165	165	3
102	102	5
165	166	5
72	72	7
152	152	11
87	88	2
111	112	1
78	148	5
43	43	6
156	156	11
133	133	9
193	193	13
8	8	8
183	194	2
22	24	1
103	117	2
137	137	6
141	141	10
5	5	10
0	1	3
35	40	6
189	189	14
24	31	2
62	65	2
16	16	17
39	40	2
106	178	1
132	132	3
161	161	10
117	120	5
178	178	5
195	195	3
174	174	6
162	163	3
74	76	3
87	87	2
59	59	11
95	95	6
56	75	6
100	124	3
28	29	2
169	169	4
18	76	3
119	119	11
107	107	6
144	144	7
142	142	14
76	76	13
13	13	9
15	124	1
133	149	1
38	38	2
176	176	6
46	46	6
63	63	7
134	134	7
7	7	6
66	66	4
159	159	4
118	118	4
22	22	6
16	101	2
112	113	2
181	182	1
98	99	3
62	62	12
83	133	1
99	99	4
192	192	5
179	179	3
88	88	14
186	197	3
117	118	2
160	169	4
105	106	6
103	103	5
165	188	3
152	160	1
180	180	5
58	58	4
152	154	1
171	171	4
53	53	19
121	121	5
97	178	1
50	51	2
124	127	4
8	28	5
28	28	4
108	109	2
141	185	1
5	6	10
187	187	3
39	90	2
123	123	5
172	173	3
33	37	3
31	67	2
69	69	4
154	154	5
95	97	2
157	157	5
107	108	2
145	145	9
71	72	4
62	68	3
148	148	5
105	105	6
51	52	1
181	181	9
143	180	3
79	79	2
31	31	5
62	130	3
23	23	8
101	113	4
94	94	6
64	64	2
197	197	6
89	89	9
31	32	1
40	41	4
49	49	2
53	65	3
152	157	3
40	40	4
115	115	12
89	90	2
79	81	2
27	27	6
55	55	5
80	80	4
35	84	1
148	159	1
155	155	6
88	89	3
190	191	1
101	154	1
166	166	4
104	105	3
112	164	2
101	119	1
133	180	2
184	185	3
144	147	2
12	12	5
2	9	2
108	108	5
133	146	1
143	195	1
120	166	1
26	68	8
54	55	1
122	175	1
179	194	1
149	149	9
59	60	7
159	192	1
172	172	5
33	33	3
3	6	4
14	15	1
17	17	6
129	129	10
78	78	11
134	149	8
28	30	3
146	147	1
81	82	1
76	77	4
3	3	3
173	173	5
29	30	3
79	80	4
169	173	1
131	131	9
62	66	2
140	185	1
53	55	2
10	10	4
100	104	1
113	114	4
81	81	3
116	117	4
4	4	2
2	2	6
3	4	4
24	26	4
73	73	8
163	176	5
96	165	3
158	158	3
0	16	1
52	127	2
22	90	2
66	179	2
153	153	3
135	148	1
93	188	4
62	80	6
59	131	3
13	14	3
179	180	2
0	0	5
113	113	3
24	25	2
37	38	3
168	173	3
34	38	2
71	137	1
143	144	3
164	164	1
177	195	1
15	16	1
53	69	8
143	143	3
72	132	1
180	183	1
122	122	4
18	19	1
27	72	2
97	98	2
94	191	2
183	184	2
112	167	1
148	151	4
53	54	1
59	132	1
32	32	2
109	109	2
11	11	2
166	167	2
70	136	7
16	18	2
184	184	4
34	34	5
23	37	1
6	8	2
128	128	9
81	133	3
26	27	2
19	19	4
135	140	1
58	59	3
9	9	3
158	187	1
101	156	2
62	89	3
138	143	1
114	115	1
131	192	1
6	9	2
88	90	2
167	167	2
109	111	1
107	126	1
22	39	3
42	44	4
142	185	1
38	80	1
27	31	1
1	2	1
129	147	1
45	46	1
98	140	1
120	120	1
74	132	1
134	141	1
39	39	2
59	61	1
93	166	2
95	173	1
20	20	2
20	78	1
60	60	4
69	79	1
114	114	1
108	152	1
151	151	3
107	152	1
139	150	2
190	190	4
127	127	10
65	69	4
146	156	1
144	150	1
51	197	2
34	35	3
5	77	1
85	85	2
141	174	1
138	138	5
18	18	2
56	58	1
8	21	1
170	170	3
3	9	3
97	112	1
112	152	1
0	2	3
143	147	1
1	5	2
144	155	2
113	167	2
38	39	1
121	152	1
96	107	1
111	123	1
186	186	2
0	5	1
157	158	1
25	25	4
7	8	1
155	156	2
102	103	1
1	3	1
101	103	2
109	110	1
179	197	1
129	138	1
21	21	2
143	148	1
177	177	4
168	178	1
175	175	1
29	69	1
22	38	2
8	157	2
127	169	2
130	130	2
17	18	1
10	15	1
101	116	1
73	74	1
33	36	1
64	69	1
79	89	1
83	83	2
144	146	1
143	196	1
112	153	1
117	117	2
32	72	2
55	56	1
179	196	1
18	100	1
124	125	2
107	168	1
20	75	2
9	12	1
134	135	1
52	54	1
20	21	2
67	69	1
182	182	1
189	191	1
111	111	1
23	79	1
74	102	1
144	145	1
60	62	1
6	6	1
187	188	1
64	67	1
145	156	1
182	184	1
121	154	1
12	109	1
99	103	1
155	183	1
111	160	1
96	97	1
86	86	1
73	147	1
36	86	2
101	102	1
127	128	1
