80	85	3
111	111	26
58	58	15
58	63	1
40	52	1
96	113	3
49	49	7
104	105	4
26	27	2
64	64	9
101	101	17
102	102	8
67	67	16
85	89	3
43	43	9
32	33	4
78	92	5
109	110	9
34	65	2
69	88	2
71	82	3
96	107	3
75	75	13
20	68	3
84	85	3
58	66	3
40	83	7
59	63	4
113	113	11
45	45	9
56	58	1
83	84	9
45	98	3
107	107	7
71	93	3
24	24	3
87	89	2
34	35	8
105	105	10
85	85	18
96	99	4
28	51	4
79	83	4
72	73	3
94	94	11
40	82	4
78	79	5
74	92	4
95	95	12
99	109	2
43	44	6
57	73	2
104	106	9
31	31	8
95	99	1
96	96	15
61	61	11
32	32	6
59	59	3
68	68	7
98	107	1
78	80	1
66	66	8
85	86	5
99	99	7
76	76	11
39	43	1
73	76	1
32	62	3
40	40	5
74	74	11
86	86	7
60	60	7
44	44	8
54	56	2
59	60	4
88	88	4
68	85	1
25	26	2
36	36	9
40	41	3
97	97	10
79	80	1
75	91	2
97	98	5
42	42	6
22	22	9
103	103	6
26	28	2
60	71	2
29	29	7
93	93	4
106	108	12
73	83	2
44	49	4
81	89	2
107	108	5
49	50	9
54	62	2
20	21	4
98	98	14
108	114	2
62	62	12
85	90	4
48	48	6
84	87	2
82	83	7
79	103	3
23	24	2
56	60	3
65	65	12
72	72	13
81	87	3
19	19	1
90	90	7
41	52	2
26	57	3
20	22	1
26	26	10
80	80	4
100	107	2
50	50	13
105	106	4
77	86	1
69	69	9
35	35	7
94	95	4
32	45	4
37	45	3
25	28	1
111	112	7
104	104	9
77	87	3
96	97	7
57	57	6
106	106	12
42	99	2
23	23	8
81	81	7
70	70	6
30	31	5
85	88	1
99	113	2
55	55	5
114	114	7
41	41	6
111	113	4
52	85	1
56	56	11
31	33	5
40	49	1
21	21	8
51	51	8
32	36	2
92	105	2
58	59	10
72	76	3
50	51	6
73	74	1
31	32	3
83	83	8
55	61	4
78	78	10
53	53	9
73	77	2
79	115	1
27	29	2
37	37	13
22	91	1
30	34	5
27	27	13
97	111	2
62	63	7
59	71	2
112	112	8
25	25	2
89	90	9
51	75	1
76	83	3
106	109	4
20	20	7
110	110	4
86	91	4
73	99	4
27	32	2
38	38	8
84	93	3
46	46	1
109	109	13
48	50	3
54	55	1
41	66	2
88	89	4
97	107	2
60	72	2
39	39	7
28	29	6
34	34	10
72	91	2
33	33	10
102	104	2
102	109	3
92	92	6
42	43	3
23	26	1
107	110	8
61	70	2
45	49	2
73	73	6
91	95	2
27	63	2
38	41	3
108	110	1
35	36	2
75	101	5
69	74	3
40	42	2
25	30	3
96	106	2
42	45	2
110	113	1
28	28	7
88	111	1
80	93	1
33	52	1
38	68	1
101	103	2
100	100	12
75	84	3
82	107	6
46	98	3
76	77	7
87	87	1
54	92	1
41	48	2
41	67	1
88	104	1
63	63	7
32	37	1
82	82	7
60	61	4
27	28	4
94	99	4
20	27	1
28	34	3
94	105	3
24	69	4
79	89	1
31	35	1
112	113	2
77	112	2
86	103	3
38	48	2
54	67	4
29	70	1
69	89	2
87	88	1
84	84	3
99	104	1
29	37	1
71	81	2
76	81	4
53	54	2
30	99	3
70	72	1
77	77	5
48	62	1
24	27	2
92	99	4
102	110	1
103	108	1
30	30	3
36	37	1
39	46	1
103	105	1
95	105	3
86	106	3
71	75	4
22	26	1
30	35	4
89	89	5
94	98	3
79	79	4
98	99	6
41	42	1
91	96	1
88	109	1
71	71	8
37	38	1
66	67	3
47	48	2
37	82	1
20	45	2
99	111	2
63	64	1
28	38	1
55	57	2
19	22	3
108	108	5
56	61	4
65	66	4
97	106	1
80	95	2
80	98	1
86	87	1
97	110	1
64	65	1
52	52	1
110	111	1
74	75	1
50	55	1
89	105	1
95	102	1
49	51	2
76	103	1
79	85	1
100	102	1
47	47	4
110	112	1
47	52	5
87	110	1
93	94	3
42	66	1
82	89	1
19	24	1
71	80	1
75	86	3
107	111	1
74	101	1
28	33	1
33	34	2
89	104	2
23	48	2
79	101	2
82	92	1
66	69	2
107	109	1
28	31	2
33	35	1
38	81	2
26	34	1
57	58	2
83	108	3
29	30	1
42	46	1
77	78	2
27	36	1
101	102	2
76	79	3
44	47	1
72	78	1
27	38	1
56	64	1
56	59	1
90	106	1
25	32	1
88	110	3
80	82	1
33	51	2
57	60	3
59	73	1
61	62	1
19	20	1
53	69	1
45	57	3
72	74	1
54	66	2
78	81	1
51	53	2
98	103	1
64	69	1
78	94	1
73	101	1
53	60	1
68	76	1
38	64	1
21	47	2
62	65	1
108	109	1
45	83	1
91	92	1
41	47	1
52	53	1
71	73	1
75	76	1
48	60	2
104	109	1
93	106	1
43	84	1
86	88	1
82	84	1
80	81	1
43	45	1
34	40	1
25	60	1
94	102	1
24	36	1
96	101	1
26	29	1
65	68	1
86	90	1
57	63	1
30	37	1
87	104	1
51	52	1
98	106	1
