11	11	3
116	116	8
115	127	4
16	30	2
128	157	2
34	34	5
90	110	4
76	76	3
163	164	7
77	83	2
35	35	6
173	176	3
158	158	5
107	124	1
9	11	1
110	120	2
114	126	4
149	168	6
88	89	2
65	74	9
113	126	4
133	133	13
1	4	3
159	159	9
153	153	5
22	22	2
106	114	2
100	109	2
2	36	3
76	78	8
136	166	1
23	23	5
78	78	12
10	10	2
96	112	2
86	86	15
50	50	2
96	96	4
91	95	2
53	53	4
85	85	10
165	170	3
43	43	5
129	142	2
4	4	3
109	109	5
120	130	3
75	85	1
57	72	1
71	79	2
22	35	5
121	129	4
58	58	5
55	57	2
19	21	5
71	71	7
49	77	3
172	174	3
72	77	2
112	132	3
106	119	2
163	163	10
130	152	1
52	52	4
120	120	4
178	178	3
97	97	1
66	66	1
24	24	2
10	31	5
58	61	4
36	38	2
128	140	2
160	160	3
30	31	1
85	103	1
107	107	3
80	112	2
50	55	2
3	13	2
104	112	2
148	154	1
179	179	2
108	109	2
155	166	3
89	89	6
112	112	6
8	73	1
4	9	5
142	157	4
132	148	4
162	179	2
138	138	5
101	101	2
86	90	7
58	84	2
10	11	1
94	94	5
157	157	3
143	143	3
147	149	3
140	140	9
108	115	4
33	39	1
131	146	3
130	137	2
159	173	1
29	33	2
71	86	4
51	59	4
164	170	2
16	19	1
155	155	6
97	115	3
101	123	1
51	61	5
15	29	2
10	12	3
130	145	5
137	150	4
81	96	3
135	136	5
72	72	4
154	154	4
111	111	2
102	114	1
120	144	2
44	44	4
31	31	3
140	154	5
42	42	8
137	137	2
71	74	4
86	99	4
141	160	1
148	177	2
64	72	1
92	93	2
108	112	1
56	56	2
3	168	4
57	76	2
40	40	6
49	57	5
50	59	1
12	18	3
98	98	8
110	110	3
8	9	1
95	109	2
1	1	4
129	129	5
118	121	1
41	41	3
157	169	6
7	8	4
169	169	5
168	168	4
95	107	2
110	126	1
147	147	10
165	165	3
137	145	5
151	176	1
169	174	3
164	164	5
146	146	3
119	131	2
143	158	1
55	58	3
169	178	2
39	41	3
138	141	4
145	149	2
99	101	1
91	91	7
170	179	1
5	9	2
2	23	2
73	73	4
21	21	1
157	159	5
57	60	1
10	22	2
103	103	8
64	79	1
5	13	1
72	125	3
168	180	1
126	136	4
2	2	8
142	146	1
100	113	4
53	67	2
103	119	3
106	106	3
61	94	1
6	18	2
16	29	2
97	108	1
154	165	2
148	148	2
162	162	5
11	23	1
81	81	1
104	104	4
90	102	1
90	97	1
104	106	3
78	94	2
13	26	2
61	61	5
89	97	2
144	144	4
134	153	2
93	93	5
164	168	1
106	131	1
64	64	3
59	88	3
166	166	9
84	114	3
158	162	3
164	174	3
135	169	4
102	108	3
20	20	2
129	141	2
12	24	4
134	167	3
66	68	6
118	118	8
87	87	7
75	75	5
89	91	4
33	33	2
134	134	3
134	157	4
24	33	2
172	172	4
76	101	1
17	17	1
97	144	2
178	180	10
26	30	2
109	120	2
7	7	2
57	57	2
53	54	2
135	145	1
29	39	2
150	154	1
162	164	1
103	110	2
168	169	1
102	109	4
62	62	5
130	130	5
127	145	2
126	126	3
117	117	4
45	45	2
156	159	1
4	5	1
130	174	4
8	23	1
155	156	1
108	108	5
153	165	1
100	100	4
92	104	1
139	139	4
114	115	1
67	77	1
5	5	6
141	141	4
81	102	2
149	156	1
136	154	8
30	45	1
61	67	2
142	142	3
148	172	3
5	19	3
92	92	7
122	131	2
131	136	2
98	99	6
29	29	3
84	84	4
171	171	5
50	52	2
33	83	3
73	76	1
152	162	4
177	177	1
22	36	1
126	129	4
169	180	1
14	45	1
5	18	1
151	172	3
144	179	6
146	162	1
5	7	4
6	7	1
158	173	2
145	146	1
71	72	1
128	128	5
68	68	1
13	21	2
134	139	1
129	132	2
158	175	1
13	42	1
163	165	4
83	119	1
21	22	2
95	95	2
119	120	1
90	90	4
139	146	1
16	16	6
169	170	1
146	160	1
17	23	7
156	156	4
101	122	3
172	173	2
127	127	2
131	131	1
161	161	2
88	88	1
173	177	1
136	142	1
169	171	2
103	106	2
57	63	1
115	135	1
150	157	1
76	77	1
17	19	1
115	115	4
25	32	2
171	175	2
83	109	2
133	151	1
133	136	1
29	37	1
114	133	1
143	145	1
134	140	1
75	91	2
6	6	1
102	102	2
124	124	2
114	114	5
105	108	1
88	131	2
124	134	2
26	26	1
90	111	4
112	122	1
66	67	1
143	156	1
57	66	3
1	14	1
52	82	1
81	106	1
145	165	3
96	104	1
106	128	2
52	53	3
6	11	1
125	127	2
56	59	1
11	27	2
65	65	3
135	157	2
120	122	2
25	43	1
89	105	2
128	160	1
157	164	1
28	42	1
50	53	3
116	150	1
128	144	1
145	150	2
52	67	1
64	67	1
146	163	1
141	150	1
146	164	1
162	177	1
170	177	1
98	105	1
20	34	1
65	68	1
6	152	3
29	34	1
84	91	1
176	176	1
54	60	1
116	138	2
80	103	1
111	112	2
141	161	1
149	153	1
53	66	1
173	173	1
89	111	3
90	112	2
87	88	1
8	24	2
2	3	1
30	30	1
141	142	1
131	155	2
85	124	1
88	90	2
133	134	1
96	134	1
151	151	1
60	60	1
36	36	1
13	14	1
76	92	1
42	44	1
50	60	2
162	174	1
36	42	1
76	89	1
134	146	1
152	166	1
4	13	1
151	159	2
19	19	1
60	63	1
7	23	1
113	123	1
145	175	1
130	131	1
51	51	1
170	170	1
106	125	1
31	32	2
74	78	1
148	150	1
134	150	1
100	105	1
52	68	1
103	127	1
3	5	1
37	37	1
23	24	1
2	6	1
165	166	1
7	24	1
129	143	1
89	95	1
95	99	1
28	29	1
103	118	1
54	55	1
31	34	1
158	169	1
113	133	1
31	33	1
174	175	1
62	67	1
175	175	1
80	87	1
80	111	1
145	145	1
54	63	1
38	38	1
81	90	1
142	161	1
