126	126	13
133	133	11
108	108	7
195	195	13
185	185	7
110	110	7
6	6	7
180	181	1
13	13	4
140	158	2
15	99	1
155	157	8
58	58	10
123	123	9
136	136	15
153	153	9
2	19	3
169	169	13
37	48	1
105	105	2
45	155	4
188	189	4
177	178	3
116	117	2
58	126	2
190	191	5
0	188	2
187	188	8
67	74	2
119	120	3
100	100	11
65	89	6
168	172	1
57	125	4
188	188	8
17	17	11
170	172	5
60	67	1
43	127	2
174	174	8
138	138	6
20	21	2
31	31	6
88	88	11
46	46	4
121	122	6
101	111	1
193	193	17
179	180	6
123	126	3
103	137	2
33	33	6
72	73	4
114	114	8
159	163	1
117	117	8
187	187	7
44	44	7
19	19	12
132	132	7
5	6	4
41	41	3
153	191	1
121	136	2
9	189	1
20	80	3
142	169	1
150	150	10
192	192	4
48	64	4
153	157	7
164	165	3
89	89	3
120	120	7
145	145	4
157	185	2
11	18	1
82	82	2
30	31	3
103	121	6
71	123	2
141	142	3
51	60	1
94	95	3
155	155	15
126	127	8
165	167	4
51	51	7
98	98	13
183	183	4
11	11	6
47	47	14
97	97	3
5	5	4
80	80	2
194	194	5
59	59	10
29	29	3
162	162	4
114	116	1
106	106	11
32	32	7
178	178	7
143	144	2
25	25	9
62	62	6
50	51	5
34	34	10
20	129	3
154	155	1
1	1	6
53	53	9
43	129	1
158	158	1
88	185	1
178	180	4
69	69	5
148	194	1
192	193	3
114	118	5
148	148	10
173	173	5
175	175	12
82	83	1
135	135	8
111	112	5
27	27	11
102	102	3
157	158	2
49	49	6
73	122	1
55	56	4
42	42	5
35	35	2
119	137	1
156	157	4
50	50	6
107	107	8
36	37	4
60	60	9
55	55	12
37	51	3
139	139	8
52	61	4
165	166	8
70	70	5
100	164	2
78	78	9
0	0	9
55	64	2
137	137	6
116	116	8
95	99	3
64	64	3
1	14	2
173	193	4
148	152	2
84	84	1
160	160	3
144	146	8
191	192	9
186	186	9
61	61	16
7	7	3
109	109	4
172	192	1
27	28	2
115	116	4
24	24	4
161	162	6
14	15	1
0	106	2
157	157	5
94	96	1
149	149	3
154	194	1
143	197	2
118	118	5
128	128	4
176	176	5
113	113	5
9	10	1
127	127	7
177	183	2
24	80	1
77	78	2
94	94	6
72	72	2
122	150	2
22	23	3
103	103	2
165	165	3
15	15	11
23	23	10
27	55	4
30	32	3
127	132	3
152	154	3
166	166	4
37	37	8
76	77	2
121	121	7
24	119	2
63	63	5
143	143	15
83	86	3
39	39	6
31	57	2
150	193	7
37	61	8
9	9	3
194	195	6
87	88	2
11	23	1
164	177	2
67	68	6
81	86	1
154	157	1
71	71	6
88	122	3
81	81	4
54	54	17
74	85	1
151	152	2
104	104	3
95	95	4
191	191	10
172	189	1
171	171	6
101	101	3
0	7	4
23	24	1
132	134	3
104	105	1
190	190	2
49	52	2
38	38	5
29	30	2
68	131	1
3	3	9
8	9	1
15	80	3
186	187	1
107	134	5
110	111	2
101	102	2
144	145	2
108	112	1
109	110	1
131	132	3
49	51	2
120	121	4
22	26	4
70	74	2
160	161	2
157	160	3
73	73	7
144	144	7
140	140	6
56	56	4
168	168	8
10	10	6
157	171	1
84	85	3
20	20	4
117	118	5
182	182	3
64	65	3
43	87	3
196	196	6
149	183	1
13	50	4
150	158	2
189	189	8
51	52	1
76	76	2
14	14	10
71	72	2
93	111	1
167	169	3
39	41	1
74	74	10
163	164	2
133	135	5
87	87	6
173	175	2
111	111	2
88	184	2
99	101	1
3	26	2
2	2	7
28	29	3
79	79	4
172	172	5
107	141	5
161	169	1
48	48	9
41	99	3
144	186	1
151	151	8
142	142	2
38	39	1
175	177	1
90	90	1
134	134	5
93	115	2
138	139	3
154	154	4
6	7	4
166	167	1
178	179	6
40	81	2
167	176	2
117	144	2
118	130	1
119	141	1
122	122	5
197	197	5
88	89	2
139	140	2
158	160	1
139	148	2
67	67	7
186	190	2
146	175	2
94	100	1
146	150	2
97	114	3
125	125	2
115	129	2
163	163	3
137	138	1
124	124	5
127	136	1
182	183	3
53	56	3
79	80	3
93	109	1
37	122	1
66	66	2
22	22	5
37	38	2
93	93	5
98	135	2
35	84	3
10	11	2
104	124	1
181	181	8
125	132	1
44	87	1
164	164	3
52	53	3
147	184	4
131	131	1
78	79	3
95	96	3
49	50	1
141	166	3
152	164	2
153	179	3
15	86	2
62	82	1
28	28	5
159	160	1
151	153	1
180	180	1
103	105	1
75	75	4
58	62	1
184	184	3
177	177	3
23	31	1
44	45	1
8	8	6
77	77	1
113	115	3
128	131	1
16	16	10
20	23	3
99	99	5
44	58	3
112	112	2
170	171	4
154	156	2
113	116	1
16	18	1
98	102	2
53	58	1
96	109	2
146	146	7
156	179	2
181	190	3
179	182	1
56	159	1
185	197	1
68	68	5
51	62	3
159	189	1
96	96	4
143	176	1
1	61	3
159	159	4
136	137	1
5	9	1
65	65	3
179	179	4
76	78	2
170	175	2
4	4	8
40	41	2
167	168	3
11	12	2
143	145	2
65	68	1
134	135	2
10	14	1
52	52	2
37	79	1
61	133	1
80	81	6
106	126	1
147	185	1
181	189	2
1	2	2
147	147	3
181	182	3
62	64	1
80	85	1
174	176	2
43	84	1
163	165	1
128	129	2
11	22	1
51	56	1
152	152	4
161	163	2
12	12	1
147	151	1
152	153	3
149	154	1
121	137	1
17	18	1
39	127	1
166	192	1
194	196	2
50	87	3
196	197	2
53	67	2
97	102	2
59	62	2
5	7	1
11	59	1
150	169	1
61	62	2
37	78	1
60	77	1
70	89	1
115	115	3
15	16	2
151	189	1
54	55	1
0	105	2
16	138	1
115	117	2
31	32	2
170	170	1
185	186	1
43	44	1
7	105	1
8	77	2
57	58	2
176	178	1
141	141	2
173	174	1
13	49	1
130	130	2
150	191	1
112	132	1
10	12	2
83	83	2
134	138	1
184	185	1
127	128	1
170	191	1
11	17	2
94	98	1
101	165	1
160	168	1
156	156	2
187	189	1
123	134	1
40	40	3
26	26	1
28	117	2
111	122	3
67	133	1
12	25	1
153	193	2
38	58	1
66	68	1
151	184	2
18	18	1
65	82	1
32	77	2
193	195	1
93	134	1
173	192	1
186	189	2
106	122	1
128	132	1
85	85	1
57	67	1
129	129	1
51	55	1
123	124	1
57	57	1
168	178	1
70	71	1
150	192	1
58	65	1
40	122	1
20	66	1
