125	125	11
11	11	14
67	67	8
5	5	4
112	113	8
107	107	11
16	17	4
141	141	7
130	130	7
16	52	2
84	84	15
56	56	6
105	106	2
138	138	9
117	117	8
95	95	4
6	42	3
120	120	6
71	81	1
99	100	8
63	63	13
149	149	8
31	31	8
111	111	8
123	125	7
56	57	5
17	24	5
97	97	7
148	148	10
74	74	1
106	110	2
19	19	8
147	148	2
73	75	3
7	8	5
36	36	5
153	153	4
3	40	2
30	75	1
126	126	5
152	152	10
108	154	2
130	132	2
67	68	7
127	127	6
69	69	8
118	119	3
5	8	2
24	24	10
57	57	5
73	105	3
108	108	10
42	45	3
112	116	3
64	81	1
34	34	14
137	138	5
104	104	6
33	33	2
129	130	5
150	150	12
140	141	3
98	98	12
26	27	3
151	151	6
42	42	10
54	54	5
18	18	6
49	49	7
122	122	5
98	105	2
3	7	2
147	147	14
109	109	15
113	113	4
115	120	2
13	13	15
94	95	2
44	130	3
6	6	7
136	136	8
44	44	10
25	25	9
32	33	3
139	148	3
133	133	4
82	82	5
88	88	3
82	120	2
143	143	11
80	80	13
107	137	1
66	66	8
100	100	3
93	93	4
87	87	4
6	33	2
126	145	4
3	3	1
48	48	13
50	50	8
40	41	1
123	123	2
137	139	2
97	122	1
28	30	2
45	45	7
8	9	6
144	144	15
10	11	2
43	130	2
145	146	5
128	128	9
44	45	2
135	135	15
119	119	7
131	131	7
143	144	4
54	55	6
48	51	3
132	132	8
110	111	1
4	4	10
33	58	1
12	13	3
47	53	1
79	81	5
154	154	3
68	69	5
112	112	5
62	62	3
96	97	2
55	55	3
15	15	4
30	30	3
67	69	4
146	150	2
81	124	4
22	23	3
11	12	2
44	129	2
103	103	8
8	8	6
40	40	13
133	134	3
38	98	3
114	115	3
73	73	2
33	34	5
106	106	4
47	47	15
68	68	15
21	21	6
102	105	3
146	147	4
53	68	3
7	7	5
14	14	11
115	115	7
124	141	4
14	19	3
117	120	3
94	104	1
19	23	3
6	34	2
32	32	9
20	21	5
146	148	2
115	116	6
75	75	5
115	117	4
87	98	4
55	56	4
23	23	6
75	101	3
101	101	2
68	77	1
136	137	5
16	24	1
121	121	3
75	77	1
124	124	3
46	47	4
110	110	10
37	37	5
109	117	1
76	76	3
53	53	10
51	53	4
116	116	5
78	78	10
77	77	3
81	81	13
63	64	2
45	46	2
124	125	1
128	129	1
27	28	3
140	140	4
7	30	3
4	5	7
119	120	1
87	88	2
12	12	3
27	27	8
38	38	7
134	134	7
70	70	12
85	95	3
128	136	1
26	26	5
92	94	3
117	118	3
46	46	8
38	39	3
20	20	7
22	22	2
99	126	2
116	117	4
139	140	5
98	128	4
9	9	5
135	136	6
128	152	3
28	28	3
105	105	1
99	99	2
33	36	1
16	16	2
83	83	4
85	85	6
69	71	2
142	142	3
22	27	2
122	123	5
119	121	2
80	82	3
21	23	5
68	154	1
51	51	3
83	86	2
34	55	1
26	104	3
112	114	1
142	143	4
120	123	1
52	52	3
108	145	1
17	17	6
138	142	2
152	154	2
6	37	1
105	110	3
36	38	2
70	76	1
81	89	2
72	73	2
36	37	1
132	133	9
125	126	2
126	135	2
118	118	3
106	117	2
137	137	2
29	29	8
42	78	2
50	70	1
10	10	3
120	126	4
74	75	4
127	136	1
65	66	3
94	99	1
145	145	3
109	146	2
81	85	4
51	55	2
96	96	1
125	141	1
97	98	1
107	120	2
135	142	2
108	109	5
44	46	2
109	119	3
85	86	1
129	129	7
31	53	1
135	137	1
143	145	3
145	147	1
26	33	2
76	77	2
72	72	4
72	87	1
113	141	3
47	71	1
36	52	2
49	51	1
7	12	1
43	43	1
79	79	3
41	41	6
39	39	4
107	122	2
130	131	2
120	121	3
80	81	3
139	139	4
76	78	1
24	25	3
146	146	5
126	136	3
49	54	1
98	102	1
92	93	1
5	38	1
64	64	4
35	49	2
92	92	1
62	63	1
27	30	3
121	122	1
55	74	1
28	29	2
68	70	1
5	6	5
145	151	1
48	54	1
114	114	3
131	132	4
110	116	1
83	85	6
113	116	1
35	36	1
98	127	1
144	146	2
113	115	2
84	85	2
11	26	1
128	140	1
53	55	3
94	94	1
142	153	2
11	29	1
76	104	3
73	74	1
15	16	2
86	86	6
65	67	2
130	137	2
35	35	2
134	144	1
23	25	3
109	115	1
41	46	1
124	126	1
117	138	1
78	79	1
95	96	2
109	110	1
149	150	1
41	66	5
107	109	1
18	47	1
2	2	3
107	118	1
120	122	2
84	86	2
6	8	3
129	131	1
4	37	2
57	58	1
71	71	1
106	135	1
100	103	2
141	146	1
81	115	1
79	104	2
81	82	1
14	24	1
25	74	1
39	45	1
35	51	1
11	34	1
16	27	1
39	43	1
43	45	1
9	16	1
102	103	1
17	22	2
86	113	1
69	81	2
39	73	1
126	137	1
75	125	1
14	18	1
9	15	1
3	10	1
55	64	2
137	154	1
34	67	1
141	153	1
102	102	2
3	5	1
98	99	1
146	154	1
5	9	1
91	91	1
40	67	1
144	150	1
63	67	1
140	142	1
58	58	1
2	4	1
