73	73	2
53	53	8
86	89	1
60	73	2
104	112	1
169	169	7
115	120	3
144	144	5
142	142	3
176	177	4
47	47	7
147	163	1
118	120	1
48	48	10
114	114	7
1	1	10
105	105	2
87	90	4
160	160	5
9	9	2
108	110	5
57	57	3
30	30	7
24	26	6
6	6	5
140	155	2
157	157	15
154	154	6
148	148	8
5	6	2
139	146	1
89	89	2
86	86	11
168	168	4
64	64	5
43	43	6
69	69	3
188	189	3
105	106	4
22	24	7
115	116	1
38	38	1
70	72	1
24	24	7
132	134	4
177	177	4
13	13	8
143	163	1
127	127	7
102	102	5
29	83	5
76	76	5
83	83	6
42	42	4
70	70	8
179	179	6
175	176	2
122	122	5
147	149	1
170	171	2
196	196	5
123	131	3
63	63	2
77	81	1
5	5	4
96	110	5
115	115	2
193	193	9
58	58	2
173	175	2
159	159	9
54	74	2
112	112	3
187	187	8
79	79	5
32	32	6
29	69	3
14	14	6
150	150	4
176	176	10
97	97	11
190	190	4
85	85	5
85	86	2
115	119	1
119	120	2
103	103	2
143	143	11
70	71	2
157	158	3
96	98	5
121	124	2
76	80	4
96	96	1
34	85	2
52	52	10
7	18	1
153	153	6
110	110	2
76	77	1
107	160	1
88	89	2
71	71	8
0	2	1
37	38	4
2	101	2
102	186	3
15	15	6
46	46	8
10	11	3
53	183	3
129	129	4
99	99	6
134	135	3
23	23	3
136	137	1
23	35	3
135	155	1
114	177	1
66	73	2
32	73	3
132	132	6
72	72	3
146	146	3
131	186	3
12	12	6
126	128	1
184	186	4
78	78	2
132	186	2
89	114	3
103	151	2
41	42	5
88	88	2
149	149	4
28	31	1
109	110	4
18	18	4
136	136	4
156	156	5
39	39	4
130	168	1
139	139	3
17	17	3
18	22	3
29	29	3
125	126	1
154	155	6
0	39	1
125	130	1
167	167	7
102	105	2
184	184	3
44	116	2
104	104	5
114	123	1
106	106	1
155	156	4
28	76	2
118	118	6
4	5	2
1	76	2
24	27	3
93	93	1
31	31	7
6	26	5
107	158	1
135	186	8
143	146	3
148	151	3
78	79	2
5	22	2
96	97	5
127	128	2
140	140	5
1	97	1
145	154	1
192	192	5
37	37	3
82	82	5
106	161	2
9	160	1
135	136	5
62	62	8
111	177	1
186	186	6
94	94	3
165	165	1
116	116	9
10	10	2
145	146	3
116	123	6
133	134	5
120	120	4
191	191	1
102	106	2
10	12	1
152	186	1
29	80	1
45	45	4
157	159	1
106	107	1
100	100	2
53	74	2
19	20	1
111	129	2
171	171	8
143	194	1
115	117	1
117	184	1
60	60	2
50	52	3
4	35	1
22	22	7
54	55	1
118	186	1
111	111	5
54	54	3
192	193	4
32	39	3
150	151	1
57	181	1
5	7	2
180	181	2
131	131	3
65	66	4
138	138	1
194	194	2
9	15	2
68	68	3
161	161	1
109	184	1
35	36	1
13	15	4
138	140	1
174	174	3
152	153	1
9	95	1
145	145	3
106	178	1
66	66	3
121	122	2
59	59	5
58	61	1
172	173	2
3	160	2
182	182	4
41	46	2
38	43	1
35	35	4
51	51	1
142	161	2
100	188	3
106	157	2
164	164	1
182	183	3
181	181	5
8	8	5
109	182	3
124	129	1
172	175	1
114	116	1
33	33	3
76	86	2
119	119	1
55	55	3
124	124	1
0	3	2
21	21	3
3	3	2
3	5	3
195	195	3
116	117	2
180	180	4
109	109	5
173	173	2
97	167	1
16	34	2
120	121	1
116	186	1
109	125	2
52	156	2
20	21	3
152	152	4
139	145	3
0	1	4
67	68	2
135	135	3
36	85	2
18	68	1
50	50	5
117	117	1
44	44	4
16	17	3
32	78	2
163	163	3
158	158	1
38	167	2
56	82	2
30	80	1
160	170	2
155	155	4
112	113	3
15	53	2
36	36	3
139	152	2
67	67	2
0	72	2
172	176	2
32	33	2
126	126	5
173	174	3
146	153	1
74	75	1
124	133	1
126	127	1
113	132	1
172	172	3
22	27	2
118	119	3
74	88	2
28	28	1
59	78	2
147	147	1
170	173	2
163	188	1
50	55	1
47	48	2
125	125	3
28	29	3
24	25	2
123	124	1
161	162	5
185	185	5
49	124	1
27	27	2
5	8	1
125	134	1
46	48	1
77	78	4
42	45	2
61	63	1
0	0	2
169	170	2
127	141	1
137	152	2
95	95	1
29	84	1
52	53	1
3	7	1
110	178	1
71	112	1
98	98	1
144	159	2
44	115	1
188	188	3
56	56	1
16	26	1
98	99	4
123	123	2
71	73	2
114	115	1
61	61	2
9	79	2
74	74	1
43	44	1
84	85	1
151	151	3
19	19	1
194	195	3
94	95	1
82	102	2
166	166	4
120	123	4
99	162	1
183	183	2
46	47	2
10	14	1
62	93	1
72	113	1
39	83	1
34	41	2
134	134	1
41	41	1
146	155	1
51	74	1
67	75	1
137	151	1
180	182	1
147	148	1
65	65	1
175	175	2
137	148	1
23	24	3
6	34	1
178	179	1
49	49	1
106	134	1
59	60	1
189	189	1
13	14	1
6	27	1
44	46	1
19	28	1
197	197	1
30	37	1
25	25	1
136	138	1
4	4	2
127	134	1
47	69	1
55	56	1
195	196	1
6	159	2
33	53	1
0	45	1
99	163	1
84	84	1
29	38	1
130	197	1
145	186	1
137	153	1
118	169	1
45	115	1
132	133	1
191	192	1
37	100	1
18	19	1
54	62	1
121	121	1
