212	214	2
150	201	1
201	201	10
41	41	16
228	230	2
29	36	1
14	14	7
74	115	6
209	209	2
200	200	17
37	46	4
230	230	13
7	7	13
165	165	12
34	35	9
54	109	1
150	150	16
51	51	9
176	239	5
103	103	4
191	191	10
207	207	11
78	79	11
59	60	7
68	71	2
150	151	7
175	239	3
5	42	2
155	155	9
121	121	4
111	111	7
94	94	6
44	44	4
156	229	3
11	15	1
16	16	6
158	198	6
90	90	9
240	240	6
80	80	2
174	174	8
215	215	21
70	70	13
23	24	6
152	160	5
229	229	8
181	181	4
154	155	8
75	75	7
120	120	1
185	185	22
153	153	6
201	218	2
178	178	6
4	6	1
236	236	3
97	97	1
67	67	9
92	92	13
63	63	3
159	209	7
62	120	1
6	8	1
154	154	24
12	64	3
30	30	2
175	176	5
5	5	5
212	212	5
216	216	8
65	65	10
168	179	2
10	11	4
151	151	6
21	21	4
45	45	7
153	154	2
182	182	12
204	204	15
77	145	4
237	237	9
65	66	2
5	12	2
199	199	15
45	46	16
119	120	2
158	218	3
11	12	3
173	173	9
101	101	9
234	235	4
219	219	7
232	232	15
94	95	3
89	90	5
68	68	14
156	156	12
147	168	4
167	167	9
224	224	5
161	248	3
54	55	2
95	96	1
242	245	1
112	112	3
187	188	4
112	113	4
178	205	2
111	112	6
6	7	1
36	37	1
24	24	12
91	91	4
93	93	11
87	94	2
115	118	3
224	225	5
100	100	1
79	81	1
9	15	3
59	75	1
102	102	2
153	213	2
104	104	8
83	83	4
99	99	10
55	111	1
27	28	1
233	233	10
20	36	5
217	217	5
18	19	8
211	211	4
170	171	4
114	114	10
222	223	5
184	184	11
195	195	9
192	247	3
72	72	5
229	235	6
186	186	4
28	28	6
41	48	1
38	38	6
28	85	2
169	169	7
3	3	3
30	31	7
171	209	3
246	246	4
36	36	5
218	219	3
113	114	7
239	239	5
61	62	9
17	17	11
73	73	6
96	96	5
84	84	18
66	66	10
226	226	13
235	235	18
42	42	5
26	26	5
109	109	9
22	22	19
87	88	2
226	227	3
190	190	2
75	78	3
208	208	4
23	23	10
168	178	2
29	29	5
82	82	9
84	102	1
168	168	2
12	12	3
46	46	5
39	39	12
218	218	6
175	180	2
56	56	5
88	170	2
203	203	9
43	43	3
220	220	6
61	61	9
202	202	4
179	180	2
177	177	12
71	71	8
191	192	5
52	52	9
172	172	5
164	164	12
153	234	2
37	37	6
76	77	8
221	222	4
117	117	15
52	88	1
183	183	12
18	22	2
35	35	14
0	44	4
35	36	6
110	113	4
102	103	4
3	31	1
238	240	3
161	161	3
22	23	6
245	245	3
68	69	2
60	114	1
198	199	2
223	223	10
107	108	2
50	50	1
85	160	3
213	213	12
214	243	2
195	196	3
50	118	2
6	6	1
72	73	1
46	95	2
42	43	3
47	97	3
235	236	5
27	27	7
197	197	6
22	26	2
82	85	3
64	72	2
159	159	4
47	48	3
70	182	3
149	216	1
238	239	1
88	102	2
184	189	1
181	208	1
88	88	7
180	239	1
113	113	6
55	55	7
25	26	1
220	221	1
180	187	1
39	53	3
199	220	4
247	247	9
194	219	1
25	29	3
192	192	14
176	219	1
169	231	3
198	198	10
222	222	6
55	57	3
85	85	6
25	25	3
76	76	7
26	68	2
163	163	3
170	187	2
225	225	4
228	228	11
110	110	10
12	81	3
206	207	4
219	241	2
32	32	8
169	205	1
238	238	10
56	57	3
11	11	6
94	144	1
214	214	4
25	38	1
158	159	3
81	81	3
241	241	3
18	204	5
170	170	4
200	201	3
42	47	3
47	47	3
87	87	10
176	177	2
165	186	1
118	118	7
187	187	3
149	204	3
189	189	4
244	244	6
17	167	2
145	145	4
27	29	4
243	243	5
108	111	2
249	249	1
202	205	1
116	116	6
1	2	2
171	171	4
225	226	2
33	35	1
8	8	8
167	168	5
28	87	3
88	94	3
30	37	1
10	26	1
67	74	2
194	248	1
223	248	1
184	186	1
14	15	1
220	228	1
227	228	3
248	249	2
108	108	2
95	95	7
157	157	4
175	175	4
105	182	2
205	227	3
86	170	2
163	166	3
10	38	2
195	219	4
240	241	4
53	53	8
64	64	5
31	31	6
227	227	8
57	58	1
115	115	9
107	107	13
179	184	1
183	184	3
1	23	1
70	83	4
40	40	4
242	242	6
41	42	2
106	121	4
90	91	5
73	81	1
15	58	2
28	179	1
176	176	1
231	231	5
242	243	3
40	41	6
169	179	2
151	152	1
34	34	3
100	115	2
54	54	10
110	111	4
20	20	10
84	85	3
75	114	1
86	86	12
160	160	5
149	149	1
86	181	1
175	241	4
214	216	1
180	181	5
86	100	1
66	73	1
201	202	3
19	37	1
243	244	1
58	58	5
71	72	4
175	179	2
163	164	1
13	14	3
193	193	8
206	206	4
208	209	2
0	0	3
204	205	3
73	102	1
82	185	3
166	247	3
62	119	2
51	67	2
4	5	1
224	227	2
15	69	1
245	246	1
49	119	1
9	63	2
173	174	2
73	92	1
58	60	2
62	63	2
230	231	2
219	220	4
105	118	1
179	179	7
51	109	4
44	91	2
206	231	2
161	163	3
0	1	6
180	224	2
69	69	2
159	172	2
221	221	4
87	95	3
45	95	4
172	209	4
25	36	2
9	9	8
77	77	4
9	10	1
171	177	2
68	116	5
61	92	1
49	49	6
91	97	2
162	203	4
6	68	7
158	158	4
25	225	1
119	119	1
12	24	2
26	27	2
165	166	2
221	227	2
168	169	3
74	74	1
33	33	5
56	61	1
234	234	3
24	29	1
157	158	3
156	160	4
152	152	1
217	218	1
66	69	1
14	114	4
26	29	3
230	234	1
51	83	1
47	98	1
210	240	1
171	207	1
192	193	1
83	188	1
22	24	1
91	92	2
196	197	3
210	211	1
169	194	1
99	100	1
51	145	1
15	106	2
26	63	1
69	70	1
19	25	2
58	69	2
216	222	3
49	115	1
171	172	5
192	194	3
158	209	2
36	116	1
196	208	2
166	166	1
223	229	2
67	115	1
7	14	1
1	1	3
155	156	4
41	45	3
42	48	2
55	71	1
48	48	1
2	2	3
109	110	2
105	107	2
214	246	1
152	201	1
55	76	3
153	155	1
150	156	1
14	19	3
75	115	2
55	58	1
229	230	2
49	90	1
206	229	1
194	194	1
104	105	1
166	168	2
57	57	3
78	78	2
9	20	1
32	86	1
96	102	1
91	95	1
105	105	2
4	39	1
164	173	1
115	116	2
15	67	1
165	187	1
150	200	2
15	15	3
213	235	2
241	242	2
51	115	1
4	4	2
228	229	2
219	231	1
109	118	1
70	71	1
210	210	2
28	36	1
24	25	1
151	153	1
59	113	1
178	231	1
56	58	1
85	182	1
59	115	1
0	145	1
160	161	1
87	89	1
77	78	1
60	69	1
157	201	2
17	166	1
155	179	1
239	240	1
199	217	1
79	79	2
9	67	1
85	183	1
109	151	1
244	247	1
201	247	1
218	220	1
34	101	1
146	146	1
60	60	1
48	56	1
14	47	1
98	98	1
32	36	1
244	245	2
6	12	1
86	87	1
85	86	1
159	218	1
29	88	1
237	238	2
54	119	2
6	26	1
199	248	1
84	183	2
15	18	2
72	82	1
51	111	1
3	6	1
62	62	1
74	77	1
82	184	1
33	80	1
31	32	1
63	118	1
19	19	2
12	42	1
208	231	1
12	27	1
160	183	1
198	247	1
62	118	1
41	43	1
118	119	1
63	117	1
32	54	1
193	243	1
162	163	1
166	185	1
