78	79	1
93	108	1
101	101	10
68	70	5
78	78	3
53	53	2
95	95	2
62	62	11
58	58	1
93	94	1
43	43	4
57	57	7
60	61	5
95	96	9
70	71	2
87	88	1
113	113	1
63	64	11
25	25	2
33	33	8
43	44	8
112	112	6
21	21	7
65	65	2
77	77	3
86	86	4
25	26	2
46	46	3
49	49	5
32	32	4
30	30	4
35	35	7
73	73	12
107	107	1
30	31	5
90	91	2
61	62	11
76	77	3
63	77	1
42	45	5
41	43	2
61	61	7
56	57	4
48	49	2
31	74	1
39	40	4
59	59	6
44	44	3
101	102	3
96	97	10
67	67	9
100	100	10
50	50	3
20	20	8
75	75	14
38	38	3
82	84	3
74	74	11
21	97	5
84	84	3
96	96	6
84	87	2
108	108	7
48	112	5
107	108	3
67	68	5
98	103	2
87	87	9
99	99	14
85	85	5
108	109	2
31	32	5
59	60	2
66	66	3
34	74	2
23	23	4
73	103	1
103	103	2
31	31	6
45	46	1
114	114	6
69	69	7
34	35	1
106	113	2
91	92	3
29	29	6
40	41	2
24	25	1
32	35	1
79	79	1
106	106	2
66	67	3
48	50	5
20	21	2
111	113	1
42	43	1
81	81	5
88	88	5
42	42	10
63	63	6
29	80	3
80	81	3
115	115	2
72	72	7
32	75	1
95	113	4
83	83	2
47	47	1
111	111	1
24	26	2
94	94	2
43	50	2
64	65	2
93	95	3
98	98	5
51	52	3
28	28	5
91	91	1
72	73	2
28	80	3
30	81	3
89	91	2
34	34	4
24	24	5
102	107	3
83	84	3
109	109	2
104	105	5
76	93	2
89	90	2
56	56	1
27	27	5
50	52	2
36	37	2
26	26	4
71	75	1
92	92	1
29	78	1
49	74	1
92	93	2
23	24	4
80	82	1
37	37	3
54	54	3
86	89	2
94	95	1
82	83	3
20	113	1
99	100	1
20	25	1
104	104	1
82	82	2
70	70	1
19	19	3
29	115	1
33	84	3
113	114	3
112	113	2
100	105	2
45	45	1
90	90	4
58	59	1
39	74	1
99	101	1
82	90	1
102	108	1
67	70	2
48	48	3
109	110	5
71	74	2
28	29	1
31	33	1
30	90	1
60	62	1
35	36	1
89	89	1
100	107	2
54	55	2
44	47	1
31	73	1
76	76	1
76	78	1
97	97	1
105	112	1
36	36	1
57	58	1
36	39	1
101	104	1
56	62	1
86	87	1
37	59	1
37	74	1
27	88	1
71	71	1
