141	141	2
188	194	4
159	159	8
53	53	4
86	87	1
38	39	2
152	153	3
12	12	9
3	34	4
4	4	5
73	73	9
82	85	2
163	164	5
118	118	12
46	46	2
97	97	3
105	105	5
28	29	4
161	176	4
154	154	6
26	26	5
39	39	6
191	191	2
183	183	4
32	32	12
115	116	4
2	2	5
193	193	7
106	106	6
5	129	4
25	25	6
134	134	7
79	85	1
90	90	1
27	27	1
135	157	7
113	113	5
38	38	11
182	182	5
5	6	7
3	3	3
172	178	2
139	140	4
125	126	8
63	63	4
119	119	4
177	177	2
9	9	9
80	80	4
117	123	5
102	103	2
58	58	10
20	20	2
168	168	2
189	190	4
108	110	9
32	77	1
149	149	8
73	75	3
115	115	8
36	36	14
0	0	2
102	102	2
52	52	3
10	10	11
192	193	5
114	114	1
155	155	6
181	182	4
11	62	6
35	36	2
3	4	1
140	152	2
23	24	5
121	121	4
95	96	1
6	40	2
195	195	2
178	179	2
8	43	3
24	166	2
34	34	7
174	174	3
97	98	1
161	161	4
112	112	2
129	129	8
192	192	2
128	128	4
24	176	6
189	189	7
99	107	5
86	89	3
151	151	4
182	185	8
13	14	1
119	145	4
71	71	1
69	69	4
15	77	5
56	56	3
19	20	3
45	45	7
196	196	4
112	154	4
25	74	3
79	79	3
33	77	4
23	23	5
35	35	7
107	111	5
54	54	4
13	13	1
197	197	1
175	175	1
9	13	1
53	55	3
61	61	4
93	96	1
153	153	9
65	66	6
134	157	2
168	178	3
156	156	6
68	68	7
19	68	4
51	52	1
146	152	8
99	112	4
47	47	1
14	44	2
5	5	2
24	24	1
77	78	5
154	155	1
89	89	1
167	167	4
4	42	2
50	159	3
137	158	1
51	51	5
6	6	4
114	122	2
15	15	5
172	172	1
84	84	3
176	176	5
6	130	1
195	196	7
31	136	2
50	50	5
21	22	2
151	152	1
158	158	3
109	110	2
99	104	1
49	49	2
8	8	1
64	64	2
165	166	2
131	157	2
114	115	2
164	164	5
17	17	4
28	137	2
28	28	2
179	183	1
7	7	2
57	57	5
99	103	1
166	167	5
55	55	1
12	13	3
78	189	2
146	146	1
173	173	2
79	80	1
113	179	2
7	43	4
143	173	2
11	15	1
62	62	1
32	71	1
179	179	2
117	117	2
15	33	2
175	178	4
17	86	3
65	65	2
109	109	5
141	149	2
183	184	2
113	168	1
25	167	2
60	60	5
46	47	1
87	88	2
126	126	2
169	169	2
111	169	1
29	36	1
143	143	1
162	173	2
78	81	1
74	74	1
10	57	2
37	163	2
13	85	2
185	185	2
9	12	1
68	69	2
122	122	1
37	37	2
147	147	1
48	50	2
116	119	1
96	96	2
162	162	2
193	194	3
14	33	2
166	166	1
2	43	2
135	135	3
55	56	1
42	43	4
124	125	1
178	178	1
174	176	1
137	138	1
59	60	2
30	30	1
31	31	1
26	29	1
44	44	1
22	25	2
124	124	2
186	186	1
13	42	1
120	155	1
104	107	1
143	150	1
128	130	1
67	67	3
33	33	1
68	89	1
103	103	1
88	89	2
167	169	1
22	24	1
81	81	1
136	156	1
95	95	1
158	162	1
93	93	1
129	130	1
58	60	1
48	48	1
133	134	2
17	89	2
160	160	1
1	1	1
85	85	2
78	83	1
146	147	1
119	120	1
83	83	1
116	116	1
65	67	1
138	138	1
10	11	1
142	142	1
108	108	1
171	171	1
69	86	1
