175	190	8
41	110	5
63	64	6
38	38	15
150	150	1
29	30	4
88	127	5
92	99	1
158	158	5
71	71	4
59	65	2
145	173	8
4	4	4
53	55	4
91	91	5
119	129	3
19	19	5
139	139	4
27	27	4
87	88	5
5	5	5
33	47	3
137	137	1
86	86	4
32	32	5
22	22	6
97	98	3
130	130	4
92	92	5
179	179	4
141	160	2
184	184	11
79	81	3
40	40	6
122	122	5
82	86	2
156	159	2
178	178	3
39	39	8
140	140	7
151	164	2
115	120	1
119	140	2
46	52	2
42	42	14
81	81	3
0	31	1
6	6	4
89	90	1
56	56	2
79	79	3
109	112	3
11	13	4
61	61	2
95	95	5
149	150	1
16	16	5
35	35	1
100	102	2
121	121	5
176	177	1
104	104	6
176	176	7
131	131	6
159	159	9
41	41	6
13	15	2
58	58	2
26	26	8
14	14	6
33	33	6
81	82	1
42	44	2
85	85	1
133	133	5
60	60	6
90	90	5
75	75	4
61	62	4
139	140	3
59	64	2
170	170	4
65	67	2
134	135	2
168	168	1
169	169	13
98	98	3
30	30	6
172	181	1
181	181	2
62	67	1
171	179	2
142	142	3
30	31	3
67	67	5
133	171	2
123	123	3
59	59	2
175	175	6
12	12	6
8	38	1
85	86	1
173	175	2
130	131	1
149	149	8
96	96	3
89	89	1
125	125	6
160	160	4
175	186	1
103	123	1
47	47	4
189	190	1
157	157	4
189	189	3
117	117	1
106	106	5
15	15	3
166	166	2
160	161	7
187	187	4
74	74	9
69	75	1
105	106	9
81	94	1
132	132	3
82	103	2
70	70	3
14	18	1
113	113	6
93	93	3
78	78	6
94	95	1
47	52	1
55	55	6
116	118	3
71	74	6
17	17	4
18	18	6
46	46	5
48	48	10
32	33	4
63	63	1
5	8	2
145	145	3
173	173	2
132	171	3
36	36	3
138	138	3
131	133	6
21	21	1
54	54	2
20	20	1
126	126	3
181	182	1
62	62	1
115	155	1
73	73	2
23	159	3
141	142	2
178	179	8
83	84	5
186	186	3
115	137	2
23	31	2
152	164	1
27	28	3
15	16	3
108	108	6
134	134	6
66	66	1
70	79	1
106	107	1
59	60	1
154	166	1
40	41	4
120	120	3
137	138	6
153	154	4
155	155	6
102	102	1
104	105	2
84	84	3
106	110	1
24	24	2
188	188	3
17	19	1
64	64	1
86	87	2
45	52	3
34	34	2
115	132	2
99	99	1
119	119	3
172	173	2
70	71	3
180	181	2
148	148	1
9	10	1
26	160	1
147	147	1
136	136	5
109	109	1
124	130	1
66	68	1
34	35	1
184	185	4
55	64	4
87	89	2
145	171	2
112	112	5
11	11	2
77	95	6
33	46	2
24	25	6
101	123	2
151	152	3
44	107	2
8	8	1
161	163	1
87	87	1
69	81	1
7	7	1
135	138	2
77	87	3
6	7	3
143	143	2
43	112	1
37	46	1
153	153	4
1	6	3
31	35	2
59	72	1
128	128	4
154	160	1
25	25	2
38	48	1
3	3	2
6	9	1
2	2	2
79	80	3
102	122	1
182	182	2
112	113	2
133	179	2
91	92	5
124	124	1
0	0	3
132	133	2
88	88	6
64	67	2
121	122	1
77	77	2
105	105	1
152	153	1
13	18	2
99	100	1
103	129	2
10	11	1
23	30	1
187	188	1
31	31	3
21	28	1
37	37	1
57	57	4
80	81	2
141	141	1
125	126	3
0	10	1
162	163	1
101	101	2
113	156	1
177	177	1
182	183	1
94	94	5
155	156	2
144	172	2
171	172	1
71	73	1
11	15	1
156	157	1
102	121	2
95	96	2
174	174	2
93	121	1
62	63	2
1	1	1
172	172	2
68	71	2
42	113	1
16	17	2
163	163	1
174	186	1
167	167	1
103	106	2
108	109	1
151	153	1
48	68	1
74	75	1
104	107	1
102	124	1
114	156	1
42	112	1
80	80	2
20	21	1
12	29	1
133	135	1
24	28	1
23	23	1
140	141	1
72	72	1
142	143	1
145	180	1
103	103	2
164	165	1
41	113	1
23	26	2
153	165	1
82	82	1
148	163	1
76	82	1
114	114	1
154	154	1
129	137	2
83	100	2
90	99	1
42	43	1
180	180	1
11	34	1
162	162	1
29	41	1
31	46	1
43	43	1
38	106	1
80	94	1
131	142	1
102	109	1
10	10	1
