71	88	1
135	135	12
116	117	10
155	155	24
35	35	4
88	128	3
146	146	4
129	129	10
105	106	3
49	57	2
117	118	1
67	69	5
55	55	6
34	34	3
132	132	4
17	17	2
16	138	1
44	44	9
159	159	12
110	110	7
3	48	2
101	101	6
18	18	10
16	16	7
125	125	6
157	157	9
162	162	8
43	44	2
1	50	1
101	102	3
54	54	20
144	144	11
84	165	2
106	107	3
118	121	2
134	134	4
160	160	9
42	42	3
113	113	5
12	12	8
130	130	12
126	127	2
138	139	7
131	146	1
37	38	2
13	13	3
107	107	7
160	161	3
33	33	10
135	136	5
143	143	13
51	52	4
90	91	2
152	153	2
170	170	5
91	91	10
138	138	15
5	6	5
65	65	4
103	103	2
126	165	1
128	141	4
131	131	12
124	125	13
154	154	5
57	77	1
78	78	8
26	26	8
2	2	8
69	69	4
167	167	10
15	42	4
52	52	11
93	110	3
14	14	9
113	141	1
134	142	2
7	11	4
22	23	5
53	53	6
111	111	12
64	64	11
105	105	14
152	152	5
62	62	6
84	159	1
98	98	10
3	4	3
68	68	9
118	119	6
118	118	9
24	24	7
11	11	7
93	93	8
67	67	5
91	145	1
57	81	1
84	85	2
129	130	5
123	123	2
69	70	1
37	90	2
86	87	4
112	116	3
56	56	7
129	163	1
114	114	10
133	134	7
28	28	6
19	169	1
117	117	3
139	148	1
120	120	6
159	160	3
145	145	9
86	90	2
115	115	5
130	144	3
6	6	4
158	158	3
14	23	1
116	116	10
160	163	2
119	122	1
14	15	3
119	119	6
40	40	8
97	98	2
47	47	3
119	120	6
41	42	3
128	128	2
133	133	8
130	131	7
9	9	6
80	80	8
56	57	4
89	89	14
84	89	4
18	26	3
126	126	10
57	62	2
93	116	5
39	39	6
22	22	10
156	156	10
128	129	4
75	76	4
125	128	3
50	50	6
112	112	5
64	67	4
73	73	5
148	148	5
1	46	3
134	135	6
64	146	1
1	14	1
57	63	1
10	80	1
50	51	3
23	23	5
140	140	2
104	105	7
151	151	7
71	71	5
141	141	1
21	48	1
66	67	3
145	146	2
92	92	2
15	15	10
142	153	1
1	1	7
144	155	4
27	28	2
149	150	2
70	72	1
78	80	1
94	94	12
102	102	7
65	82	3
8	8	9
37	37	7
143	144	2
122	122	3
163	165	2
95	95	7
131	132	3
109	112	1
110	111	1
108	108	4
123	124	3
90	90	7
79	79	5
168	169	2
17	21	2
149	169	6
38	38	9
87	87	4
64	75	3
161	161	7
142	142	6
48	49	5
55	72	2
85	86	1
84	84	4
127	127	10
20	20	3
76	76	5
158	159	1
149	149	9
38	39	6
83	102	2
15	18	1
82	82	11
96	97	2
63	63	9
49	50	2
165	169	3
155	157	3
152	162	2
57	57	6
123	128	1
70	71	1
107	108	7
19	22	2
161	162	1
34	35	1
80	89	4
119	157	2
90	96	1
64	76	2
79	80	5
167	168	2
11	12	2
145	147	4
155	156	6
46	46	5
73	74	1
95	96	4
124	124	5
146	147	2
122	123	2
85	85	7
99	105	1
70	70	11
10	141	3
0	1	4
128	140	1
116	122	2
40	45	1
49	49	4
74	74	8
78	79	8
110	112	1
27	27	6
139	139	12
166	166	5
53	166	5
109	109	8
5	5	9
53	92	2
86	86	12
5	56	1
83	83	4
100	100	7
111	112	2
106	106	3
132	134	2
121	121	5
75	75	4
47	48	1
53	54	2
73	76	4
67	119	2
154	155	1
140	141	2
33	35	3
107	150	1
115	117	1
72	72	3
145	157	2
66	70	3
56	126	3
52	53	2
63	64	4
14	56	1
114	161	2
97	97	5
35	164	1
169	169	8
98	99	1
35	36	4
75	124	2
163	163	3
68	69	3
99	99	3
25	57	1
7	7	1
144	145	4
21	24	1
128	134	1
25	25	10
51	51	5
72	73	5
40	41	1
23	24	3
15	16	4
66	73	1
19	19	5
114	115	2
39	41	1
73	169	2
126	161	4
77	77	1
148	167	3
130	132	2
151	157	1
25	34	1
88	88	1
65	66	2
0	7	1
38	56	2
77	78	2
16	28	2
140	142	1
106	151	2
64	65	1
122	129	2
147	147	2
4	4	4
41	109	2
156	161	1
108	114	1
20	41	2
164	165	5
93	109	2
19	58	1
76	77	2
36	36	2
96	96	6
111	155	1
114	116	2
21	21	3
117	147	1
165	165	5
151	152	3
128	152	1
2	38	2
2	3	1
109	110	3
62	63	1
3	3	1
104	104	3
0	0	2
18	19	2
3	12	1
129	143	1
54	55	1
120	121	1
102	103	2
81	81	2
148	161	4
150	165	1
137	137	1
18	55	1
4	5	3
13	39	3
13	15	2
8	11	1
150	152	2
58	58	1
8	10	1
10	10	3
121	122	2
74	129	1
12	13	2
1	2	1
6	71	2
83	84	3
40	44	1
4	113	1
153	153	3
12	44	1
81	152	1
150	157	2
58	124	1
162	163	1
58	62	1
6	10	1
55	56	2
74	75	1
123	125	1
137	138	1
120	122	1
88	89	4
33	34	4
147	163	2
65	72	2
155	158	1
7	8	2
128	130	2
21	22	1
134	143	2
150	150	3
81	82	3
139	140	2
26	27	1
79	136	4
76	78	1
17	18	1
115	129	1
142	143	4
37	53	2
79	114	1
9	10	1
11	27	1
43	43	1
85	126	1
164	164	2
45	45	4
85	147	1
38	64	1
6	8	1
136	136	1
169	170	1
136	137	2
143	147	1
13	14	1
67	68	2
57	125	1
79	130	2
45	46	1
12	45	1
94	135	1
126	144	1
19	20	2
40	89	1
66	66	1
158	167	1
16	118	1
76	130	1
127	162	1
6	18	1
13	19	1
53	55	1
133	148	1
0	45	1
121	126	1
81	99	2
15	17	1
161	163	1
157	158	1
82	84	1
92	112	2
108	109	1
152	154	1
87	89	1
115	116	2
28	114	1
143	146	1
65	81	2
14	16	2
101	105	1
112	113	2
134	146	1
116	121	1
63	117	1
8	9	1
1	74	1
99	100	1
71	76	1
23	69	1
131	162	1
84	113	1
55	140	1
14	42	1
143	148	1
139	149	1
141	154	1
158	168	1
101	103	1
