69	69	34
27	61	6
95	95	2
33	34	17
68	69	10
25	25	17
46	46	30
70	71	8
39	39	19
48	48	13
64	64	23
75	76	4
99	100	7
78	78	12
98	98	8
42	42	13
33	33	11
85	85	15
52	54	2
77	77	29
89	89	33
82	82	11
33	35	7
26	27	1
22	22	9
74	75	8
27	27	12
79	79	11
60	76	2
72	72	14
65	65	16
79	80	20
54	54	21
73	77	4
96	99	8
99	99	16
83	84	5
56	57	5
92	92	17
37	37	11
27	29	2
31	31	10
46	47	11
35	35	14
76	77	8
31	32	3
86	86	35
75	75	30
96	96	16
77	78	7
84	84	13
28	29	1
42	94	5
50	51	3
51	51	7
90	90	7
27	28	10
97	97	28
53	53	16
52	52	11
37	55	2
91	92	8
79	83	2
67	67	25
71	71	24
68	73	6
24	87	3
60	60	19
24	26	5
41	41	4
45	76	1
86	88	9
44	74	4
25	26	3
26	26	15
57	57	25
58	59	6
65	66	11
49	49	7
63	63	20
69	71	3
100	101	9
80	81	14
66	66	20
80	80	20
20	22	1
101	101	8
21	22	4
31	35	1
54	55	6
28	28	2
26	28	1
26	29	3
61	61	20
29	29	15
24	24	8
58	63	2
87	87	12
71	72	2
76	76	18
53	76	5
83	83	9
92	94	7
97	98	9
45	72	1
87	88	16
47	47	8
80	83	2
38	38	9
81	81	14
48	53	2
90	91	9
36	36	6
67	68	12
44	45	1
70	72	1
96	97	3
44	60	1
31	38	2
74	74	17
102	102	4
78	79	1
86	87	11
57	76	5
94	94	9
63	78	5
83	89	4
70	70	25
29	60	2
41	74	4
59	76	1
49	50	14
91	93	2
98	99	4
100	100	5
25	79	1
88	88	20
68	68	19
76	78	5
93	93	14
73	73	19
29	35	2
73	74	3
79	81	5
62	62	15
64	65	4
41	42	2
50	77	1
32	55	1
23	25	12
61	62	2
44	44	18
56	56	4
55	56	6
84	88	2
60	62	4
59	59	8
91	91	8
37	53	5
80	84	3
41	96	4
80	82	5
34	34	5
51	55	2
44	73	6
23	83	4
62	63	6
93	94	1
59	73	4
66	69	3
39	40	3
43	43	12
37	60	1
69	73	2
58	58	3
55	55	10
40	40	7
38	39	2
42	44	6
31	37	3
40	45	5
39	97	4
34	39	1
35	61	1
35	55	3
95	96	8
36	37	3
35	39	1
29	31	3
45	50	4
73	95	1
44	72	4
69	90	2
47	48	19
23	81	9
50	50	6
69	70	5
67	69	1
84	87	2
37	61	1
55	57	2
94	95	2
29	58	1
63	64	1
23	23	4
60	61	1
32	60	2
30	33	1
35	37	2
95	98	1
45	45	3
45	47	1
65	67	5
40	41	2
23	24	3
32	38	3
60	77	3
66	67	2
40	49	4
20	20	2
31	60	3
63	83	1
59	77	2
37	38	1
101	102	3
22	79	2
52	53	2
84	89	1
45	46	1
22	80	1
47	53	2
73	76	2
85	86	1
78	80	2
45	48	2
58	79	2
63	79	1
26	88	3
53	55	1
59	72	1
25	87	1
65	73	2
59	60	3
36	52	2
25	88	1
25	27	1
48	50	1
46	48	2
35	38	2
38	97	1
40	98	1
95	97	1
82	83	1
55	59	1
89	90	2
40	44	1
31	48	1
56	76	2
51	56	1
90	92	1
24	25	1
62	72	1
31	63	1
32	35	1
