100	100	5
79	79	18
104	105	7
123	130	4
97	98	2
82	82	10
78	78	8
118	118	17
24	25	7
61	61	9
69	69	8
75	75	11
44	44	11
123	127	1
119	119	9
115	115	5
82	121	3
13	13	10
4	4	1
22	23	4
59	59	13
133	133	4
67	67	7
110	110	9
92	92	12
36	36	6
31	32	3
102	111	9
47	78	5
57	57	10
48	48	14
26	27	2
58	58	14
56	56	6
125	129	7
57	58	2
8	8	8
113	113	11
134	134	7
70	71	2
12	12	7
130	131	5
98	98	6
73	73	4
103	103	12
65	79	2
72	72	13
29	30	4
33	44	1
76	76	16
106	106	7
20	21	4
85	85	6
105	106	6
24	24	7
112	112	11
33	45	1
47	47	6
30	90	2
10	10	5
22	22	4
92	94	2
74	74	6
86	86	7
34	34	10
101	101	3
124	128	3
2	2	12
26	26	8
46	102	2
118	119	3
80	81	1
3	3	15
70	70	3
65	73	1
65	65	10
33	33	16
87	87	7
78	79	3
123	123	3
121	121	9
123	129	9
71	71	6
83	83	7
114	114	8
60	61	3
11	11	5
129	133	4
61	62	2
68	69	8
111	111	18
19	19	8
122	122	1
25	25	4
17	18	5
79	86	2
32	111	4
86	87	2
59	60	3
27	27	4
14	14	12
108	120	7
94	96	1
6	6	9
17	17	7
107	107	10
120	121	1
22	81	1
132	132	5
8	9	2
128	128	7
0	0	7
32	32	5
78	83	2
12	14	2
46	46	2
7	8	7
96	96	7
121	123	5
51	55	5
126	126	11
30	92	4
80	80	4
75	76	1
33	94	3
128	129	4
69	70	3
9	9	4
127	127	2
129	129	9
37	37	3
110	111	5
66	66	6
82	122	8
103	105	2
26	80	2
15	15	9
82	83	2
133	134	1
16	18	2
28	28	4
10	11	4
102	102	10
116	116	10
112	114	4
61	63	1
97	99	3
43	43	7
101	102	6
63	77	4
97	97	1
14	16	4
64	64	1
125	126	5
27	28	5
13	28	1
84	84	4
93	93	2
124	124	5
19	62	1
23	25	4
108	110	3
29	29	3
117	117	7
90	90	8
45	45	13
114	115	2
6	80	2
121	122	1
37	39	1
117	118	5
13	14	1
38	38	2
24	26	1
20	20	7
115	116	3
35	35	4
28	30	3
132	133	3
104	104	4
108	108	4
109	109	3
117	119	3
36	37	8
32	94	1
95	96	1
94	94	7
38	39	3
84	85	8
104	106	3
63	63	2
68	68	7
22	82	1
77	77	3
102	124	5
18	61	5
113	114	2
93	95	1
36	38	3
39	39	2
21	79	1
60	60	4
108	109	4
94	118	4
62	63	1
102	103	1
37	60	2
11	45	3
110	113	1
63	64	1
29	81	3
91	98	3
99	100	1
33	34	2
41	48	2
44	45	7
23	23	2
69	71	1
112	113	2
32	45	1
15	27	3
100	122	1
101	103	1
56	57	7
95	95	6
40	41	1
7	7	1
42	43	1
62	62	8
33	95	3
122	127	1
2	3	2
9	10	5
21	21	4
29	40	1
21	25	2
79	80	1
18	19	1
124	129	1
91	92	2
76	78	1
6	9	2
41	41	1
8	36	1
1	1	3
88	89	1
35	36	4
93	108	1
49	49	1
121	126	1
120	120	3
18	18	1
110	117	1
13	15	1
74	75	1
67	71	1
23	24	1
21	22	3
118	120	2
81	81	2
19	20	2
18	20	1
111	113	1
72	73	1
34	43	1
6	7	1
125	125	3
66	67	2
78	84	1
85	95	1
111	112	1
13	27	1
44	98	1
43	44	1
98	104	1
30	83	1
107	122	1
64	78	1
83	84	1
107	108	1
40	40	1
123	126	1
131	132	1
38	105	1
115	119	1
64	65	1
85	120	1
35	40	1
83	121	1
6	35	1
