17	18	3
70	71	8
44	44	13
78	78	7
113	123	3
108	137	4
81	81	10
56	128	2
165	179	4
54	54	3
173	178	3
70	70	2
2	2	7
115	115	8
88	88	7
46	46	5
69	69	8
184	184	16
186	187	3
11	11	8
69	70	12
126	126	2
152	155	2
64	64	2
79	80	1
146	146	8
52	52	1
136	136	7
105	105	6
95	95	5
4	4	8
126	139	1
185	193	3
76	76	7
166	166	3
21	21	7
138	138	10
164	164	8
99	99	8
16	17	6
142	149	1
93	95	3
193	193	7
35	35	6
151	159	3
144	144	11
173	173	7
132	133	1
1	1	10
112	132	6
3	172	1
82	82	4
163	163	4
9	9	1
70	79	5
181	181	4
63	63	6
188	188	8
95	96	5
189	190	6
28	29	1
116	116	13
118	118	6
149	150	7
143	143	8
120	120	5
79	79	5
187	187	10
147	147	16
140	140	6
100	107	3
129	129	2
85	85	5
63	64	2
185	191	2
2	4	2
153	153	5
142	142	1
42	42	6
159	159	2
7	8	4
87	87	10
18	146	4
167	167	11
134	134	13
98	99	9
77	77	6
51	51	5
38	132	4
98	98	4
96	97	8
111	111	6
13	14	5
176	177	5
87	88	1
152	152	6
40	41	4
31	31	3
7	7	6
187	189	4
53	53	16
154	154	8
59	65	3
14	14	4
8	8	9
169	169	6
117	117	3
107	136	2
145	146	1
149	152	4
104	119	1
109	111	3
71	72	1
60	60	5
57	66	2
106	106	2
108	108	2
159	160	1
113	114	3
156	156	3
0	4	2
158	158	6
191	191	3
65	66	9
182	182	4
102	102	4
119	120	4
94	94	5
190	191	7
28	30	2
112	133	1
192	192	8
62	83	2
20	21	2
185	186	2
162	176	1
1	2	3
183	183	6
23	24	1
153	156	2
2	3	4
84	86	1
58	61	1
154	181	2
145	145	8
107	107	3
172	172	9
174	174	1
64	65	4
70	139	2
109	112	2
84	85	5
105	157	4
125	126	3
191	193	3
127	131	4
55	55	5
155	155	6
151	165	1
26	26	3
112	112	4
27	27	9
106	136	1
48	48	11
115	117	1
152	153	3
161	165	3
79	139	5
13	15	3
56	56	6
39	40	4
135	135	3
172	174	2
68	68	6
119	119	4
62	62	6
0	159	3
57	57	2
104	114	4
34	39	1
157	157	2
100	100	8
41	41	4
33	33	4
46	133	1
47	47	6
66	68	1
20	20	2
79	90	4
84	84	7
13	13	2
136	137	1
127	128	4
45	45	4
122	122	7
169	176	6
63	65	2
141	141	5
196	197	1
131	132	1
21	25	2
7	18	2
176	179	3
197	197	1
6	9	3
174	175	2
88	89	3
86	86	4
144	145	1
150	150	1
8	21	3
189	189	4
170	170	2
132	132	2
153	154	2
37	37	2
114	114	3
22	22	2
128	128	3
3	3	3
175	175	6
40	40	7
124	124	3
113	113	2
29	29	2
67	67	2
18	19	2
17	104	3
80	80	5
59	59	1
39	42	1
93	93	5
52	55	3
33	87	2
72	73	2
176	176	1
114	120	3
125	132	3
20	24	1
161	162	2
58	58	1
20	26	3
17	158	1
6	6	3
10	10	3
168	168	5
142	144	1
160	161	1
70	80	1
96	96	5
58	62	2
125	125	2
6	16	2
162	163	4
123	123	7
195	195	2
169	170	2
121	121	1
126	127	2
128	129	1
44	45	1
186	186	7
117	118	4
20	25	1
19	19	5
82	85	4
40	42	1
54	57	2
47	141	2
165	165	1
190	190	1
27	31	1
161	177	2
40	138	1
110	110	2
80	82	3
183	184	2
62	86	2
178	178	3
55	57	1
77	89	3
32	32	2
24	24	1
65	65	1
43	136	1
16	16	1
121	122	1
151	151	1
32	141	1
38	45	1
43	143	1
45	133	2
179	179	4
50	50	5
163	165	1
39	39	2
185	185	2
196	196	3
74	74	1
181	182	1
16	159	1
162	173	2
153	166	1
109	109	4
164	165	2
99	138	1
175	185	1
72	72	3
8	14	2
165	166	1
18	104	2
160	160	1
29	43	3
165	167	2
149	149	2
53	54	1
75	75	1
178	179	5
6	13	3
104	106	1
32	145	2
163	166	1
127	127	1
83	83	5
56	129	1
73	76	1
55	60	1
178	185	1
27	36	1
95	98	2
29	30	1
124	133	1
71	127	1
28	28	1
60	61	1
127	139	1
82	86	2
60	64	1
56	57	1
152	154	3
148	148	1
38	112	2
17	17	1
78	81	1
13	16	2
4	169	1
29	134	1
36	36	1
0	17	1
118	120	1
137	137	1
21	30	1
29	135	1
