106	106	12
163	165	8
32	32	12
85	86	5
96	96	2
192	214	2
31	31	15
92	92	3
151	151	4
197	197	14
145	180	2
55	111	4
227	235	1
241	241	4
41	41	5
150	150	27
35	36	1
156	156	16
38	38	9
22	22	9
178	179	6
116	118	3
2	3	4
53	53	7
108	109	3
40	40	5
230	230	13
232	233	3
145	145	6
203	203	4
216	216	3
204	213	3
165	165	3
25	25	11
5	6	7
47	48	6
157	158	16
113	113	5
187	190	3
212	213	6
117	118	5
164	164	8
91	91	5
20	20	13
33	93	2
204	205	5
195	195	4
206	247	5
61	99	4
150	154	1
24	24	9
45	45	18
82	209	13
221	222	2
156	157	2
51	51	11
188	189	2
81	81	8
2	154	1
10	11	2
45	46	4
164	165	4
50	72	1
54	54	11
58	58	10
3	113	3
156	203	2
35	43	4
228	229	5
40	41	2
237	237	5
33	33	7
119	119	7
37	37	5
193	194	2
10	10	7
210	211	5
11	11	11
36	36	13
178	187	2
16	16	8
216	217	3
210	212	1
55	62	1
100	100	16
234	234	4
214	225	3
67	67	13
154	155	2
225	226	1
55	56	2
64	64	16
209	211	3
2	53	4
207	207	2
28	28	6
95	109	1
168	169	4
109	109	17
201	201	7
76	247	1
47	47	13
219	235	7
52	52	11
233	242	2
229	229	7
187	187	2
227	227	7
63	63	8
16	39	3
93	94	2
153	153	8
71	71	6
202	202	8
186	187	3
54	97	2
69	69	4
93	93	9
73	243	1
152	210	1
244	244	10
176	177	2
160	168	6
68	69	2
196	214	3
245	246	3
228	228	4
61	61	4
105	119	1
222	225	5
13	30	1
7	114	3
159	229	4
27	27	12
95	95	12
181	181	13
160	160	4
19	40	1
208	208	8
45	226	3
78	81	9
167	171	3
42	42	2
75	75	6
16	32	2
160	169	4
200	200	9
23	23	10
232	236	2
194	194	4
68	70	7
86	86	5
154	154	9
49	71	1
145	151	2
229	230	1
222	223	6
237	240	2
101	109	3
104	104	4
180	180	11
177	177	11
58	79	1
82	84	6
242	242	5
155	155	15
155	205	1
218	221	1
179	179	2
8	8	4
152	213	3
199	199	13
89	116	1
115	115	3
27	28	5
15	15	3
167	167	9
76	76	1
155	203	1
73	74	5
91	92	4
232	232	13
87	89	4
166	168	4
112	112	7
49	73	2
90	114	2
72	72	7
226	226	7
78	78	3
224	225	2
46	47	4
4	5	4
1	2	3
94	94	3
189	189	10
209	210	3
236	236	15
161	170	3
218	219	5
7	116	2
85	110	5
238	238	7
8	23	1
209	209	10
188	188	6
182	182	3
222	222	11
172	173	3
46	46	14
167	173	2
107	107	8
238	240	3
116	116	6
114	114	11
220	220	5
167	229	5
229	235	6
76	111	3
20	53	5
227	228	2
99	99	7
34	37	5
120	120	5
5	208	5
5	5	3
180	190	8
205	205	2
43	43	13
18	18	13
204	214	1
72	73	1
203	204	1
183	184	4
218	228	3
226	228	3
149	180	2
226	247	5
239	239	3
97	97	9
204	204	8
21	21	6
152	214	1
185	186	4
77	208	3
189	190	3
52	53	2
62	62	8
57	61	1
70	71	4
57	58	11
1	1	5
161	164	1
3	3	11
184	184	5
102	102	2
182	183	2
54	55	1
206	206	1
206	224	6
85	85	6
174	174	10
191	191	5
175	175	6
88	95	5
40	52	4
80	81	2
7	7	5
56	56	1
49	49	6
5	110	1
32	33	5
17	109	2
53	54	1
30	31	2
117	120	1
67	69	4
187	192	2
186	186	6
47	59	3
54	111	1
82	82	6
166	173	3
212	212	11
44	44	4
118	119	5
234	235	1
213	213	8
90	91	3
35	39	1
35	37	2
198	198	5
85	119	2
157	157	4
56	57	3
57	57	6
41	62	3
170	240	2
117	117	4
100	101	2
79	79	3
178	178	5
111	111	5
35	42	2
112	207	3
105	108	3
7	20	1
65	65	2
151	179	2
89	89	6
6	6	14
14	14	10
180	181	3
167	168	2
214	214	7
90	93	2
53	55	1
66	66	3
165	171	3
190	190	2
35	45	1
88	89	4
224	224	7
219	219	6
169	169	1
19	32	1
240	240	2
96	98	1
17	100	2
88	90	1
161	161	3
88	105	7
168	168	4
84	84	8
210	210	3
152	193	3
78	80	5
166	166	3
173	173	3
53	206	3
181	182	3
45	180	1
152	152	1
196	224	1
39	51	1
238	239	1
183	183	3
68	68	9
155	156	6
162	163	2
46	62	4
33	34	3
110	110	6
63	70	4
193	193	9
215	215	4
48	50	2
39	39	9
195	198	2
18	19	3
220	221	4
176	176	4
217	217	3
30	30	1
73	73	3
232	240	1
34	42	1
46	71	2
231	233	1
56	247	1
34	34	4
162	162	3
200	201	2
158	158	4
160	171	1
163	164	4
94	103	4
163	163	2
169	171	1
235	235	5
177	179	2
192	192	5
51	71	1
14	91	2
86	118	1
109	115	1
29	29	4
73	245	4
9	9	5
12	12	5
76	77	5
173	174	1
4	211	2
223	223	3
18	20	1
78	109	4
77	77	3
243	244	2
80	80	3
19	19	6
56	58	5
229	233	1
221	221	2
6	113	1
106	118	2
99	104	2
46	111	2
180	188	4
52	62	2
80	105	1
221	230	2
19	21	2
57	96	2
242	243	1
48	48	5
26	26	9
3	154	3
49	72	2
44	45	4
35	35	6
3	153	1
88	88	3
48	59	2
38	39	1
170	170	4
159	234	2
47	51	1
78	96	2
23	24	1
15	16	1
56	79	1
17	18	1
221	245	1
67	70	1
185	185	4
163	170	1
239	240	2
45	227	2
165	170	2
96	97	2
172	172	2
246	246	3
17	17	5
220	227	1
186	191	1
82	109	1
53	111	1
165	169	1
51	63	2
232	242	3
63	67	1
245	245	3
161	238	2
87	105	2
218	220	3
159	228	1
99	108	1
87	88	4
47	49	1
70	70	2
196	196	1
111	112	1
169	205	1
182	184	1
156	200	1
7	115	3
40	44	4
150	151	1
152	186	2
82	83	1
217	220	2
103	103	3
217	219	4
90	95	2
120	144	1
5	112	3
88	106	3
161	239	1
248	248	1
237	238	3
249	249	1
218	218	4
116	145	1
244	248	2
59	59	2
66	67	1
40	62	1
95	99	1
89	90	2
225	225	2
208	209	1
35	44	1
156	205	3
233	233	1
54	110	3
22	236	1
6	212	1
90	90	4
86	87	1
94	95	4
8	33	4
55	55	1
215	225	2
235	242	1
19	20	1
51	73	1
12	25	1
207	247	1
79	104	1
105	105	1
188	190	1
236	241	2
224	243	1
86	89	1
53	113	1
190	191	1
84	109	1
45	52	2
58	80	1
167	172	2
75	76	1
218	229	2
169	170	1
78	209	1
192	193	1
33	173	2
186	212	2
101	102	1
47	73	1
34	35	1
6	7	1
152	185	1
196	199	1
246	248	1
171	171	1
18	114	1
214	215	1
74	74	1
8	9	1
83	209	1
159	159	2
58	97	1
34	41	1
12	31	1
198	214	1
37	38	2
195	226	1
33	35	1
159	166	1
149	149	1
43	44	1
211	212	1
21	22	1
149	152	2
54	96	3
46	51	1
14	15	2
9	10	1
109	116	1
87	116	1
175	198	1
75	247	1
211	211	1
108	108	2
245	248	2
95	96	1
86	90	1
116	117	1
231	231	1
153	154	1
57	77	1
97	98	1
110	208	1
154	204	1
99	100	1
36	44	1
49	74	1
215	216	1
50	50	1
146	146	1
54	61	1
49	50	1
160	238	1
