172	174	4
150	150	3
56	57	4
146	146	11
23	23	4
55	56	2
173	173	8
169	169	14
66	66	4
170	170	10
3	4	8
116	116	7
144	144	2
50	52	2
171	171	9
79	79	1
52	52	6
71	71	7
57	57	5
143	145	2
10	13	3
61	61	3
149	173	4
27	27	6
179	179	9
95	144	1
130	161	2
161	161	2
88	88	4
92	92	4
171	174	2
14	14	5
27	28	3
53	53	6
63	75	2
35	35	5
31	31	3
24	24	3
67	67	4
99	100	3
57	58	5
123	123	8
78	78	5
149	165	5
33	33	7
148	148	3
43	44	13
130	139	1
162	162	5
67	68	6
167	168	3
106	106	2
100	100	3
9	9	6
72	72	9
86	87	3
102	122	1
149	156	1
83	85	2
23	89	5
159	159	10
156	156	1
5	5	2
96	97	5
50	51	2
74	74	4
3	3	4
53	57	3
42	43	8
56	56	6
150	151	6
96	98	3
2	2	5
80	80	2
101	111	1
157	158	6
130	131	5
0	137	2
164	164	5
54	54	5
136	153	3
149	149	1
81	90	3
119	120	3
109	111	3
114	114	8
138	138	7
130	156	2
25	25	8
129	129	13
45	45	3
163	163	4
153	153	7
125	134	1
152	152	2
172	176	3
151	151	4
75	75	10
95	95	8
141	143	3
176	178	6
87	87	12
155	155	9
40	40	3
62	62	7
92	107	2
58	58	2
143	143	6
15	15	2
172	173	5
92	94	2
157	157	2
26	26	4
168	173	5
177	177	6
108	108	2
126	126	11
19	19	1
29	29	3
82	82	4
122	122	3
10	10	9
81	119	2
107	107	6
43	43	6
164	165	3
174	174	3
141	141	9
87	92	1
135	136	6
38	39	3
125	127	1
27	30	4
81	81	3
135	135	6
88	89	2
90	90	6
12	12	5
59	59	9
74	76	2
174	175	5
132	132	7
112	112	2
13	13	7
163	167	3
20	24	1
178	178	8
170	173	1
5	128	2
80	81	3
66	67	5
121	136	1
124	124	3
166	166	3
16	16	5
17	18	4
42	42	3
103	103	7
64	76	7
104	104	6
109	109	5
139	139	9
20	122	4
22	22	1
140	147	1
30	30	12
17	32	2
126	128	2
137	137	7
32	33	2
64	77	4
178	179	2
175	175	3
42	103	2
106	110	2
24	25	3
89	89	1
4	4	2
35	55	1
55	58	3
36	36	3
3	100	2
4	11	1
35	37	1
131	159	1
140	140	5
113	113	3
62	63	1
87	93	2
126	127	3
147	147	2
134	137	4
118	118	4
0	0	3
158	160	1
129	158	1
152	154	1
101	102	2
140	145	1
84	86	2
21	21	1
25	32	2
115	115	3
165	165	1
130	153	2
156	163	3
97	97	8
5	7	2
9	10	1
37	37	3
110	126	3
127	127	5
168	168	6
91	91	2
115	121	3
76	76	2
101	101	3
180	180	2
125	136	2
17	17	1
38	38	3
16	30	3
133	180	1
64	64	1
125	125	2
18	123	1
26	32	1
140	156	3
68	68	7
96	96	1
161	162	2
85	85	2
148	157	1
147	168	2
28	29	2
77	79	2
90	95	2
145	145	5
16	18	4
143	164	2
118	120	2
99	99	1
0	1	1
11	12	2
8	10	1
11	11	3
172	172	2
5	6	7
7	9	3
114	140	1
99	111	1
23	60	2
37	39	1
3	155	2
73	73	4
4	156	1
139	176	1
92	93	3
23	49	1
151	153	1
154	164	1
142	171	1
154	154	5
160	161	3
83	120	1
173	174	1
0	26	2
110	111	6
6	6	2
102	124	1
59	60	1
130	130	4
18	18	1
108	109	1
7	7	1
31	32	1
71	72	1
2	22	4
117	118	6
102	102	3
74	78	1
147	163	1
167	167	1
98	115	3
83	84	1
90	92	3
129	155	1
131	162	2
6	20	3
93	116	1
158	180	1
70	70	1
58	76	1
7	13	1
114	125	2
51	51	1
151	154	1
94	94	3
127	130	1
78	110	2
44	44	1
86	93	1
30	31	2
4	125	2
9	14	2
83	83	1
75	76	1
133	133	3
163	169	1
121	121	2
32	32	1
53	54	1
14	31	1
131	131	1
17	44	1
77	77	1
89	90	1
1	2	1
99	118	1
126	137	3
147	173	1
65	65	4
21	22	2
163	164	2
34	37	1
39	39	1
53	59	1
77	81	1
93	93	1
5	8	1
55	55	2
109	110	1
109	112	1
116	134	1
55	57	1
21	61	1
25	28	2
23	24	1
95	120	1
8	8	1
89	93	1
