116	116	13
110	110	6
55	55	2
114	119	3
96	96	14
3	3	11
96	107	1
21	34	1
8	8	2
52	53	7
34	43	1
20	23	2
102	130	2
68	68	5
65	74	6
22	22	8
71	86	1
69	69	7
124	124	10
57	58	2
77	77	12
42	42	6
4	4	10
73	73	6
105	105	4
2	3	4
54	63	1
65	71	4
24	24	12
64	64	14
78	78	5
75	75	4
52	84	4
66	74	2
13	13	3
130	130	12
58	58	8
74	77	1
54	54	8
128	129	4
56	56	7
45	46	3
91	100	5
121	122	4
21	21	14
114	114	7
64	81	4
12	12	12
88	97	6
15	44	1
87	87	3
100	102	4
123	123	6
22	24	4
33	34	1
51	52	5
4	5	3
97	97	8
9	9	6
61	68	10
16	16	13
72	72	11
5	5	12
15	16	4
19	19	10
99	99	11
90	127	3
43	43	4
15	41	3
50	50	13
30	32	2
18	20	7
104	104	8
61	61	10
48	79	3
53	53	7
40	41	9
106	107	2
111	111	5
56	85	2
82	82	8
112	114	1
9	11	2
80	117	4
8	9	1
62	62	9
98	120	5
72	74	5
32	32	6
119	119	14
67	77	4
81	82	2
101	101	10
7	7	6
69	70	3
59	59	14
120	120	7
98	98	10
7	30	1
109	109	15
91	126	5
26	26	8
18	19	2
71	71	10
10	11	3
111	112	2
62	65	1
128	128	10
113	114	7
80	80	7
125	125	12
70	71	3
65	66	8
23	32	4
51	51	7
50	82	1
113	113	6
15	15	5
20	20	17
122	122	6
39	39	8
23	23	6
1	1	5
127	128	4
22	26	5
85	85	8
45	45	3
118	118	6
86	121	3
84	84	2
119	125	3
103	103	12
20	21	1
34	34	4
44	46	1
105	106	6
116	127	4
14	40	1
65	65	1
64	101	2
52	52	10
96	111	3
112	112	17
61	63	5
99	128	2
41	41	9
15	17	4
57	57	9
67	67	8
17	17	1
88	96	3
2	2	10
28	28	2
30	30	8
89	89	4
102	102	5
130	132	3
14	14	6
93	93	4
19	41	5
29	29	6
126	126	9
20	24	3
101	108	4
7	8	1
106	106	3
58	65	4
76	76	5
115	119	2
44	67	3
109	110	4
6	6	9
1	2	4
19	24	2
78	80	4
111	131	3
91	97	1
81	81	2
116	125	4
31	31	11
118	120	3
127	127	3
61	80	3
117	117	12
94	94	8
58	59	2
131	131	7
107	108	2
97	100	3
88	88	6
29	31	3
46	70	4
10	53	2
71	72	4
100	100	9
48	48	6
83	83	4
101	110	1
66	67	4
47	47	1
28	29	1
9	10	2
33	33	3
38	43	3
54	58	3
114	116	2
92	125	2
89	93	2
93	105	3
86	86	3
129	129	5
17	38	1
41	42	1
28	41	1
100	101	2
108	108	6
60	106	1
16	17	3
78	92	2
18	39	1
99	129	1
132	132	4
60	60	5
65	106	1
50	51	1
18	18	4
55	61	1
40	40	5
70	70	4
2	5	2
55	56	5
24	30	2
60	84	1
44	44	8
44	79	1
66	66	7
32	33	4
73	92	4
82	119	1
98	119	3
96	99	3
11	11	3
6	48	4
13	16	1
8	10	5
90	90	3
32	34	1
21	28	1
129	130	1
121	121	3
25	26	3
18	21	1
115	115	2
65	82	1
96	108	1
97	109	4
127	130	1
67	102	3
46	85	1
49	91	2
66	75	2
82	124	1
88	122	2
117	131	1
92	92	8
63	63	4
84	85	1
111	113	2
29	32	3
98	115	4
107	107	2
132	133	2
83	85	1
39	77	3
13	42	1
40	42	1
62	63	1
56	63	2
119	120	3
126	128	1
89	91	1
98	129	3
117	118	1
88	89	1
47	68	2
64	68	1
98	127	2
23	29	2
43	68	3
98	100	1
83	117	1
52	121	1
88	91	4
101	102	1
54	61	1
55	67	2
0	0	5
17	18	1
8	45	1
75	102	4
112	121	1
3	16	1
39	79	4
92	98	1
110	125	1
11	13	2
115	116	2
98	109	1
3	5	2
76	77	2
62	80	2
114	117	2
72	73	2
91	98	4
10	10	4
22	33	1
95	116	2
109	112	1
124	125	3
27	27	4
94	107	2
116	117	1
77	92	1
40	106	1
40	93	2
16	31	1
58	105	2
3	56	1
13	15	2
115	126	2
39	43	2
45	69	1
46	46	6
87	91	2
13	59	1
109	118	1
30	31	2
109	113	1
71	84	3
71	95	2
39	40	1
109	111	1
57	60	1
49	49	1
86	129	1
93	117	1
85	86	1
77	89	2
40	58	1
59	61	1
100	103	1
23	34	1
38	38	1
26	27	1
117	121	2
76	105	1
95	120	1
98	108	1
123	124	2
92	130	2
1	20	1
22	23	3
63	75	1
55	68	1
81	86	1
52	54	1
12	25	2
110	114	1
54	55	1
107	110	1
18	26	1
53	57	1
63	67	1
118	128	1
121	132	1
55	59	1
125	128	1
72	103	2
104	111	1
13	14	1
95	95	1
25	25	1
48	49	1
126	127	1
64	80	1
96	97	1
5	55	1
