102	103	4
160	160	8
163	163	4
145	145	1
10	11	1
197	197	5
184	203	1
33	33	8
100	100	2
169	169	6
45	45	5
188	188	9
111	111	7
218	219	3
8	52	3
108	108	2
62	114	2
98	98	5
10	10	5
87	87	3
213	213	6
171	171	10
226	226	5
162	162	7
63	63	5
80	80	8
23	25	2
247	247	4
193	194	3
60	60	3
230	230	2
157	157	1
171	172	1
3	3	2
4	239	1
94	94	6
63	64	2
115	234	4
7	9	3
207	207	2
81	81	8
200	201	2
119	119	2
182	182	3
161	162	3
81	82	2
67	68	2
116	212	1
198	210	1
109	109	5
55	76	2
34	34	4
233	233	4
35	35	4
213	226	3
61	62	2
69	69	3
78	89	2
91	93	5
92	92	4
210	210	1
24	24	3
61	61	7
62	62	3
116	117	1
48	48	2
68	68	12
204	205	2
181	181	1
36	36	8
118	118	6
155	155	4
78	118	2
189	189	3
209	211	1
120	120	2
167	167	4
89	89	4
165	165	4
51	51	6
168	171	1
222	223	1
72	72	4
1	1	2
18	18	4
47	47	4
205	214	6
78	90	1
117	117	3
102	102	2
23	23	5
191	198	2
238	238	5
241	242	1
99	100	4
175	178	1
21	21	10
95	110	1
71	71	4
43	43	6
20	20	6
64	64	2
184	185	1
224	225	1
149	149	2
158	158	3
91	91	8
104	112	3
4	5	3
199	199	3
86	117	1
41	41	5
227	227	11
168	178	1
196	196	4
191	191	1
111	112	2
52	52	3
164	165	2
107	107	1
7	7	3
55	102	3
95	95	3
229	229	10
225	225	4
11	11	2
187	188	2
42	42	8
120	144	3
104	104	1
61	63	2
81	114	3
85	85	6
233	241	2
230	231	2
172	172	2
214	215	5
88	88	7
219	220	6
105	105	6
243	243	2
239	239	3
6	51	1
174	174	5
44	44	3
31	31	8
16	16	2
29	29	6
244	244	4
226	227	3
26	26	6
158	160	2
229	235	1
55	55	5
86	150	1
9	9	6
153	153	4
194	194	3
59	59	4
235	235	4
241	241	3
207	211	1
30	30	3
90	118	1
116	116	3
22	22	2
242	242	2
114	114	1
200	212	2
163	165	5
96	96	1
193	193	7
178	179	3
92	93	1
156	156	5
25	27	1
214	214	3
38	39	3
5	6	3
115	115	2
19	19	3
25	25	3
3	6	1
94	95	3
175	176	1
25	26	1
151	151	4
210	211	2
209	209	6
61	236	1
168	207	1
185	189	2
36	37	1
76	112	1
160	177	1
178	193	1
200	200	7
40	40	7
93	93	3
6	155	1
75	96	1
32	32	4
246	246	1
82	82	1
24	36	2
112	112	6
179	179	4
245	245	4
222	245	4
167	178	1
46	46	7
192	195	1
26	40	1
101	101	7
180	180	7
97	97	2
94	107	2
79	80	3
165	166	2
70	70	5
212	212	4
182	234	2
33	34	3
17	18	1
38	38	5
12	12	4
186	186	2
56	56	3
44	45	1
180	206	1
169	197	2
154	202	1
30	31	2
175	175	2
232	232	2
15	15	2
37	37	4
223	223	6
202	202	3
231	231	2
68	69	3
206	207	3
59	62	1
99	99	1
183	183	3
185	185	4
166	166	3
26	28	1
201	201	3
69	70	3
168	168	1
234	234	4
222	222	1
115	210	1
177	177	4
8	8	3
25	38	1
86	86	3
95	96	2
64	65	4
205	205	1
198	208	2
170	171	2
224	224	1
181	206	3
86	88	2
94	115	1
157	158	1
201	202	2
36	38	1
58	59	1
172	186	1
220	220	2
43	44	1
90	90	2
204	204	4
229	231	2
99	197	1
51	61	1
58	58	3
169	170	1
83	83	2
179	193	5
65	65	3
150	150	3
198	198	2
29	31	1
192	193	1
32	33	1
218	218	2
164	173	3
37	38	3
159	181	2
42	72	2
183	225	1
184	184	1
240	241	2
235	236	1
3	52	1
203	203	2
198	199	1
28	28	2
103	103	1
188	189	1
86	87	1
245	246	1
77	77	3
23	24	1
165	172	1
45	232	1
216	216	2
41	42	2
5	5	2
97	98	2
18	31	1
237	238	1
24	110	1
170	185	1
41	74	1
209	210	1
19	20	1
207	244	3
78	83	1
7	228	2
56	57	3
34	48	1
27	27	1
7	51	1
62	63	1
164	164	1
75	97	1
184	202	2
187	187	4
54	54	1
79	103	1
53	53	2
217	217	2
221	221	2
146	147	1
23	27	1
176	176	1
55	72	1
189	190	1
198	212	1
70	72	1
67	232	2
171	173	1
120	147	1
219	219	3
106	106	1
63	96	1
76	76	1
107	116	1
190	193	1
54	94	1
29	30	1
13	13	1
212	220	1
26	39	1
206	220	2
11	12	1
85	145	1
175	196	1
213	214	1
7	13	1
199	209	2
185	192	1
170	170	2
240	240	1
6	6	1
55	56	1
96	97	1
23	31	1
35	48	2
110	110	1
83	85	1
154	154	1
22	23	1
236	236	1
