47	47	7
188	188	5
208	209	2
8	8	7
128	128	5
53	53	8
101	101	3
174	174	8
34	35	3
25	25	9
150	151	2
18	18	8
208	208	5
49	50	1
63	69	1
220	220	8
9	24	6
34	36	1
232	232	2
36	36	8
167	168	7
218	219	1
107	107	5
5	5	3
173	174	8
157	160	4
51	192	6
199	199	6
96	97	7
46	46	3
145	168	3
142	143	2
211	211	5
207	207	10
26	26	10
172	173	2
48	48	6
65	66	6
188	196	1
113	114	4
192	193	2
167	167	6
153	155	5
17	18	3
55	55	7
164	222	3
200	201	2
217	217	14
176	177	3
172	204	1
107	108	3
182	182	10
1	1	4
1	200	3
56	57	9
30	30	7
156	157	6
149	150	2
105	105	11
9	13	1
103	104	3
215	215	4
116	116	5
15	15	1
44	234	3
140	142	6
176	179	3
109	114	5
106	140	2
224	224	12
35	35	4
139	139	2
185	185	4
48	49	1
61	61	5
213	218	4
145	147	3
132	132	2
62	62	8
148	148	3
48	51	5
30	80	2
38	38	7
19	19	3
108	115	3
229	231	3
116	120	2
27	28	5
64	65	8
161	161	11
170	180	1
213	213	5
198	200	3
121	121	11
71	71	8
15	19	2
151	151	4
156	162	4
238	238	7
172	172	11
16	22	2
155	155	5
26	27	2
198	198	5
235	235	8
217	219	4
48	144	1
59	59	1
37	54	2
111	111	4
153	154	2
189	189	2
140	140	3
13	13	3
218	218	3
241	241	11
180	184	1
42	56	4
65	139	6
136	148	2
77	78	5
114	121	3
108	108	4
169	169	9
34	34	4
54	198	4
49	49	3
25	26	4
220	229	1
24	24	5
224	225	4
205	205	10
125	125	6
132	134	3
221	221	4
197	197	3
139	148	2
131	131	7
0	1	2
76	80	2
86	86	10
201	201	7
203	204	3
116	141	1
149	149	11
237	237	3
138	138	4
95	100	1
114	117	1
160	160	10
129	129	9
170	228	1
75	75	7
66	66	7
176	176	6
152	152	5
180	182	2
106	108	2
136	136	6
212	212	7
122	127	1
17	17	1
28	28	3
128	135	1
173	173	7
70	147	1
62	70	1
108	117	2
154	161	2
177	177	8
33	34	4
84	84	4
182	206	4
85	85	4
73	73	7
184	185	3
171	205	2
31	31	9
10	10	2
134	156	4
70	70	8
81	81	4
23	23	16
81	82	1
153	220	4
62	64	4
192	202	3
216	216	9
163	164	1
237	239	6
7	7	3
122	122	1
45	47	2
43	73	2
187	187	5
55	172	2
183	183	13
124	126	1
177	178	5
202	202	3
188	189	3
137	138	3
151	236	1
3	12	2
75	84	1
172	232	1
75	76	3
65	65	8
147	147	3
153	153	3
196	197	2
156	156	1
202	233	5
114	114	4
218	220	3
188	204	9
50	52	3
36	37	1
44	61	4
186	189	2
60	72	4
63	63	4
191	191	7
44	44	6
214	215	2
74	74	5
106	142	2
62	85	3
134	134	6
78	98	3
133	159	2
218	222	1
43	74	3
14	14	3
100	100	3
231	231	4
230	231	5
239	239	2
169	170	2
137	140	6
184	213	2
69	69	8
171	171	3
27	27	11
188	205	3
234	235	9
127	134	1
64	64	14
155	156	1
133	133	3
2	2	1
23	28	1
180	202	4
210	212	2
181	181	8
144	145	1
44	45	5
53	56	4
221	224	1
186	206	4
159	160	3
115	117	4
160	161	8
16	16	3
147	150	3
13	14	4
3	3	2
191	193	2
207	217	1
117	118	2
170	170	4
29	29	6
103	103	8
187	210	1
225	225	3
37	37	2
178	178	6
121	122	1
7	8	2
68	142	3
131	132	1
86	97	2
123	123	2
104	104	2
158	159	5
42	60	1
96	96	2
231	232	5
47	192	2
24	25	1
152	164	5
32	80	2
119	127	2
24	26	3
126	126	5
9	9	4
159	159	6
21	21	5
64	86	2
60	61	1
181	207	3
138	139	9
88	88	7
119	119	1
45	46	1
207	208	4
54	54	2
233	235	4
168	191	2
240	240	3
164	165	3
46	172	2
216	217	4
192	192	7
113	118	5
140	141	4
95	101	2
37	42	2
122	136	2
146	147	5
158	158	1
196	196	1
14	41	1
135	135	6
186	210	1
133	134	2
194	197	1
20	21	3
209	209	3
142	142	2
233	233	6
195	195	1
75	79	3
41	41	2
76	84	1
186	186	3
175	176	3
43	62	3
187	188	2
109	110	2
182	205	1
16	19	1
136	165	1
227	228	5
113	113	2
76	79	3
151	152	6
233	234	2
122	123	1
241	242	1
37	174	1
69	145	1
187	204	4
168	168	6
121	162	2
203	203	1
47	170	1
227	227	2
152	153	1
170	197	2
150	150	6
151	153	1
205	206	4
219	219	7
119	122	2
175	175	5
99	99	4
141	141	4
78	84	3
136	138	1
165	166	2
203	206	4
55	201	3
141	142	1
10	11	1
32	79	2
2	3	2
211	212	2
58	58	2
112	113	1
166	166	12
39	39	5
97	98	2
126	162	1
179	180	1
26	28	1
177	202	2
164	164	3
113	129	2
43	43	1
150	164	3
130	130	3
110	111	1
32	60	1
66	68	1
236	237	2
137	137	4
236	239	4
182	200	1
59	60	2
209	212	2
206	209	3
13	40	2
10	173	1
228	230	1
35	60	2
86	109	1
42	42	4
42	43	2
113	117	1
164	223	1
168	170	1
117	117	5
195	197	2
183	195	3
162	162	2
82	82	1
212	216	3
68	71	1
86	139	1
83	84	3
163	167	1
55	198	2
180	180	1
223	223	1
183	184	5
83	83	1
206	206	2
145	191	1
62	63	4
54	55	2
209	213	1
43	44	1
88	106	2
65	144	1
127	135	2
124	130	2
229	230	2
66	67	1
13	41	2
20	23	4
129	130	1
149	164	1
187	189	1
80	80	1
33	33	3
174	176	2
9	12	1
111	113	1
99	100	4
120	120	2
68	69	2
47	58	1
49	71	1
116	118	1
178	179	2
166	167	1
214	214	2
213	226	1
206	207	3
234	234	5
22	22	2
45	148	1
179	179	3
144	144	1
53	57	2
46	69	1
119	123	1
184	205	2
24	27	1
209	227	1
40	41	1
163	166	2
154	154	1
157	158	2
124	125	1
235	236	1
109	120	1
142	167	1
78	78	1
28	39	1
225	226	1
146	167	1
146	146	4
208	212	1
124	124	2
104	105	2
116	117	1
51	52	2
71	81	1
45	45	1
200	200	1
48	58	2
147	148	2
176	202	1
55	57	1
202	204	2
72	72	2
114	116	1
102	102	1
73	74	1
190	190	3
171	204	2
202	203	1
173	177	1
40	40	3
230	230	1
87	88	1
170	191	1
186	187	2
127	127	1
29	38	1
226	226	2
149	235	1
36	42	1
100	102	1
170	171	1
145	145	1
136	137	2
97	97	2
52	56	3
47	48	2
28	29	1
118	118	1
142	163	1
6	12	1
32	32	2
210	210	1
119	130	1
239	240	2
134	135	1
109	109	2
211	227	1
0	53	1
98	98	2
95	95	1
71	72	1
4	6	1
38	39	1
45	168	1
119	124	1
141	147	1
223	224	1
39	40	1
48	69	1
4	4	1
9	11	1
