2	2	5
60	60	3
83	98	6
121	121	4
24	25	1
86	128	1
33	33	15
108	108	3
3	82	3
111	111	6
118	118	8
8	8	4
1	1	2
13	13	1
115	116	1
78	125	2
92	93	1
72	72	1
103	106	2
67	67	5
44	44	4
70	70	3
58	58	4
57	57	4
117	118	3
58	70	2
90	90	2
133	134	2
7	7	8
0	0	6
119	119	7
59	59	3
109	111	7
131	134	5
129	129	4
24	26	2
128	128	3
44	45	11
68	68	4
83	83	2
75	75	7
76	76	3
82	118	4
94	96	2
66	67	1
101	101	2
40	40	3
85	85	3
13	15	2
43	43	2
132	132	2
75	76	2
74	74	4
40	43	1
113	113	4
88	89	3
26	26	2
14	14	5
57	58	5
21	27	1
38	38	1
108	110	1
16	16	7
65	65	10
70	134	3
42	43	3
61	62	2
117	117	2
32	32	1
82	82	3
42	42	6
45	45	6
36	42	2
3	3	3
93	94	1
96	98	2
107	107	1
124	124	1
21	21	1
13	14	5
95	95	5
91	93	1
94	95	1
41	42	1
42	51	1
9	9	5
75	125	1
123	123	3
71	72	1
32	42	5
6	6	5
131	131	2
61	61	7
109	110	2
125	125	4
0	111	1
30	31	1
86	95	1
86	126	2
99	99	2
93	93	4
87	107	2
106	106	5
32	33	1
18	18	6
78	78	2
44	49	3
99	111	1
24	24	4
80	80	3
71	71	1
130	130	6
134	134	4
84	84	2
73	73	8
112	112	3
127	127	3
96	97	3
59	106	1
100	100	5
41	41	3
92	92	4
36	36	2
58	101	3
34	34	4
12	13	3
62	78	1
88	100	1
115	115	1
23	24	3
74	78	1
29	29	1
94	94	4
79	122	2
116	116	2
39	40	2
12	12	5
120	120	2
97	129	1
27	27	2
45	46	1
36	37	1
81	81	3
62	72	1
26	27	2
104	104	1
25	26	1
44	47	1
27	28	1
20	20	2
105	107	3
57	125	2
126	126	4
77	77	3
8	9	5
59	90	1
63	63	3
35	37	1
19	19	1
96	96	1
69	70	2
79	80	1
22	22	2
35	36	2
123	126	1
42	50	2
59	71	2
59	60	4
5	5	1
98	98	2
20	27	1
89	102	1
0	108	1
37	37	2
33	35	1
33	110	1
18	19	2
55	56	1
46	47	1
31	31	2
82	84	1
46	46	2
34	39	1
107	111	1
102	106	1
48	49	1
102	102	1
79	92	1
15	15	1
82	107	2
64	77	1
55	57	1
17	18	1
80	81	1
99	100	2
23	23	1
8	46	1
56	58	1
87	87	1
109	109	1
72	74	1
