124	126	2
14	14	2
1	2	12
127	132	5
98	98	4
47	47	5
34	35	5
55	59	3
39	40	6
4	107	2
77	134	6
82	82	4
71	72	2
81	87	4
124	124	11
123	124	2
130	130	7
71	71	7
108	108	4
126	126	5
8	8	6
86	86	5
101	102	4
117	117	11
133	133	2
31	32	3
105	105	9
27	27	8
97	98	4
12	57	1
119	134	8
116	119	4
19	19	11
57	57	8
78	86	9
116	116	6
6	6	4
0	0	5
42	42	4
125	125	7
51	54	2
36	36	5
62	62	5
110	121	6
108	109	1
80	130	2
11	11	14
73	73	2
16	16	18
78	117	2
2	2	6
118	118	8
101	101	8
78	88	1
107	108	8
68	68	8
50	50	7
94	95	3
59	59	11
73	74	1
95	95	9
107	107	10
63	69	2
74	75	3
119	119	8
112	112	7
113	115	7
45	45	5
66	66	13
9	10	3
17	18	2
46	47	6
63	63	3
44	45	1
113	114	3
35	35	13
32	33	6
30	30	4
62	63	1
25	26	3
74	76	4
26	27	1
14	16	1
84	92	2
74	74	9
15	15	10
122	122	1
130	133	4
44	44	5
117	118	3
78	78	12
100	100	4
76	76	6
10	10	7
18	27	3
79	81	1
33	106	2
46	46	6
76	77	4
18	19	1
105	106	6
84	85	4
118	119	2
93	94	5
65	65	2
127	131	2
96	96	2
21	22	1
43	43	5
33	36	1
112	113	1
48	48	3
56	56	4
40	40	6
28	28	4
20	20	1
99	99	1
120	120	6
82	84	2
9	9	5
22	22	5
70	70	9
79	80	4
67	67	3
3	4	3
72	128	2
113	113	10
105	107	4
31	57	3
86	87	2
37	43	1
132	132	8
18	28	6
12	12	5
6	7	7
123	123	4
92	95	2
6	33	1
77	77	2
11	61	1
69	70	7
115	115	3
38	41	5
114	133	1
123	127	2
114	114	5
60	60	6
64	64	4
109	110	4
134	134	4
11	12	2
129	129	5
8	21	2
110	122	1
85	85	3
81	81	1
84	84	1
69	69	5
24	24	2
124	125	2
111	111	8
29	29	3
72	72	14
11	17	2
93	93	1
78	130	5
115	116	4
18	18	3
3	3	6
7	21	1
6	32	3
51	51	3
128	129	3
5	32	2
61	61	3
103	103	7
110	111	2
21	21	7
6	57	1
88	91	2
75	75	3
39	39	4
121	121	2
102	103	1
42	60	2
83	83	1
44	61	1
28	56	2
93	95	3
103	105	4
124	127	3
26	26	1
40	121	1
40	122	1
110	110	2
119	120	1
94	100	1
77	86	4
90	96	3
63	67	1
37	39	5
91	92	1
75	111	1
120	121	7
106	106	1
36	40	3
127	127	1
1	1	5
111	119	1
120	134	2
41	41	5
73	77	2
8	10	1
82	83	3
6	8	2
39	121	4
122	123	1
83	88	1
95	97	2
104	105	2
55	56	1
125	127	2
128	131	1
131	131	1
114	115	1
90	90	1
88	88	1
129	133	2
116	117	1
63	65	1
61	62	1
94	94	1
34	34	1
123	132	1
13	56	1
38	38	2
19	27	1
45	46	1
7	7	2
41	42	1
33	35	1
77	78	2
13	14	1
36	120	1
38	58	1
33	34	1
44	69	1
32	57	1
75	85	1
58	59	1
31	31	1
