18	59	1
13	13	4
123	129	1
113	113	9
92	93	4
85	85	2
132	133	4
135	135	5
54	55	3
132	132	14
69	69	8
85	92	4
99	99	9
22	22	13
56	56	12
109	111	5
39	41	4
42	42	14
67	68	6
24	24	15
96	96	18
43	122	5
116	116	9
71	71	11
124	125	9
15	31	2
40	40	9
121	123	7
90	90	8
54	58	2
88	126	3
128	128	10
136	136	8
2	2	8
25	25	17
104	104	7
138	139	6
58	58	10
33	34	9
125	125	10
131	131	5
133	133	10
18	24	8
66	86	3
119	119	10
38	39	8
17	17	16
105	106	1
99	100	6
17	18	3
21	21	14
20	20	10
53	81	2
9	9	7
19	19	18
125	126	4
121	121	7
55	57	2
35	35	13
69	103	1
26	27	2
98	98	5
19	21	3
71	91	1
68	69	4
114	115	5
143	143	4
109	110	6
30	30	19
57	57	7
87	97	2
105	105	15
56	57	3
52	72	2
92	92	14
69	125	4
47	48	2
54	54	7
78	78	6
4	4	8
49	49	7
126	126	11
134	134	9
107	107	4
133	134	4
58	59	9
3	12	9
2	5	2
145	145	4
16	16	12
66	66	5
4	14	4
3	5	4
118	118	10
78	124	5
38	38	15
108	109	2
124	124	19
40	41	4
101	102	7
84	84	8
50	50	8
62	62	11
112	112	6
140	140	10
140	141	6
56	93	1
39	39	9
61	61	7
50	53	2
28	37	3
92	94	8
36	36	13
137	137	11
8	8	8
3	3	9
93	93	8
59	63	2
28	29	2
13	14	13
141	142	2
27	27	8
143	144	1
76	80	6
117	117	13
4	12	1
122	123	2
46	47	1
11	55	4
72	72	8
89	89	12
77	77	15
29	29	21
21	28	2
22	23	3
68	68	13
101	101	6
17	28	2
88	139	1
13	33	1
86	87	3
113	115	3
142	142	8
33	33	9
141	141	13
116	118	2
14	17	6
81	81	7
51	51	9
100	100	3
120	127	1
32	33	1
25	26	4
73	74	5
82	82	9
75	75	6
64	64	7
8	9	7
91	91	6
12	42	2
67	101	2
110	110	4
34	34	12
39	40	5
15	15	4
2	4	6
40	104	1
51	59	2
62	63	6
48	118	5
35	36	2
91	92	5
84	85	7
94	96	1
16	17	1
53	55	1
130	130	7
94	95	3
67	95	2
128	129	7
54	89	1
31	33	1
65	110	1
120	120	6
95	96	2
9	10	2
67	67	9
41	41	9
118	130	2
49	117	2
86	89	1
71	73	1
80	80	5
111	111	8
43	123	3
32	32	9
10	10	13
37	37	12
144	144	7
83	127	4
76	76	7
43	47	2
128	140	1
72	73	2
126	138	2
71	118	5
6	22	1
77	78	3
57	59	1
65	67	3
58	106	1
6	6	6
19	23	4
105	118	3
71	72	6
38	107	3
66	67	7
138	138	10
31	31	6
5	47	1
56	99	4
102	102	7
80	122	1
21	29	3
5	5	3
116	117	6
47	125	1
11	11	14
94	94	8
12	12	2
28	28	8
108	112	3
67	115	1
4	11	1
2	92	4
104	106	3
18	62	2
0	0	6
14	14	7
106	107	5
95	95	6
87	87	16
66	105	2
43	94	2
129	129	3
72	74	1
97	97	5
75	83	3
6	27	2
18	18	6
103	103	5
123	123	2
64	65	7
136	139	1
132	138	1
49	50	4
64	114	1
50	117	1
21	35	2
108	108	9
10	100	2
41	42	2
134	135	4
4	6	4
80	81	2
120	121	8
13	15	1
126	137	1
119	125	2
131	141	1
70	98	1
68	95	3
110	111	9
77	124	2
1	38	1
114	114	7
56	59	1
9	95	4
22	38	2
89	90	2
126	127	1
134	136	6
53	53	5
20	49	2
86	104	7
4	37	2
88	89	2
118	119	5
122	122	8
10	21	3
52	52	4
64	101	3
61	62	3
21	23	1
55	55	8
21	33	1
0	35	1
85	87	1
131	134	2
140	142	4
27	28	6
83	84	4
79	79	4
73	83	4
43	43	2
70	103	2
137	140	1
146	146	7
13	36	3
74	74	3
18	19	2
30	42	2
69	70	2
57	64	1
51	62	2
93	94	5
91	94	2
115	115	1
77	79	4
40	103	1
124	126	2
128	135	1
85	86	1
112	113	4
11	22	1
96	97	2
4	17	1
57	72	4
40	65	1
128	130	1
120	128	1
74	75	2
59	137	2
127	127	1
98	102	1
101	140	3
62	93	6
89	93	5
70	70	3
38	65	3
20	21	4
4	25	1
79	80	3
54	57	1
107	146	2
34	86	1
98	99	4
0	2	1
73	111	2
123	124	1
72	106	1
98	133	3
26	26	4
37	104	1
109	109	4
48	48	9
0	11	2
83	83	3
134	138	2
4	43	1
23	28	1
88	88	5
80	95	1
18	33	3
90	93	2
102	103	3
43	120	1
144	146	2
90	98	2
106	106	1
103	104	1
129	130	5
52	73	3
74	140	1
8	13	2
87	106	3
20	34	1
61	103	1
135	136	1
60	60	5
59	59	2
70	72	2
73	73	2
19	58	3
127	130	1
67	69	3
18	34	1
2	43	3
87	88	1
76	77	2
107	119	2
75	76	2
56	115	3
50	51	1
1	1	1
103	144	1
48	114	1
26	31	1
12	13	1
36	40	4
19	89	1
123	136	2
106	146	1
21	22	1
114	118	1
72	101	1
97	98	2
53	54	2
131	136	1
47	47	1
112	117	1
74	77	2
82	85	1
115	116	1
110	132	1
60	64	1
68	125	1
14	16	1
123	125	1
105	112	1
5	17	1
11	21	1
117	118	1
71	119	1
106	110	1
99	101	2
43	119	2
130	132	2
53	72	1
23	25	2
51	73	1
14	37	1
56	62	1
120	122	2
51	52	1
71	113	1
55	86	1
54	71	1
1	30	2
139	139	1
127	129	1
35	57	1
97	115	2
0	1	1
133	135	1
11	17	1
84	92	1
125	135	1
20	29	1
49	58	1
8	98	1
131	132	1
10	11	1
30	32	1
8	23	1
