10	10	4
149	149	1
157	157	4
6	17	2
133	133	4
21	21	5
142	142	3
2	17	3
5	5	5
138	139	9
108	108	7
89	96	2
93	94	6
24	26	4
17	19	2
79	79	4
33	93	2
26	33	3
40	42	2
2	3	4
92	92	5
150	151	2
52	52	9
38	38	6
115	116	7
150	150	1
117	117	4
74	74	7
111	113	1
88	89	4
51	51	7
43	43	4
1	1	3
10	11	1
81	81	2
160	170	3
73	73	7
174	175	3
87	87	2
126	126	1
71	71	6
56	56	3
62	62	7
148	148	10
95	95	8
0	0	4
39	39	8
172	172	5
91	94	1
125	126	4
121	122	3
180	180	6
167	167	10
96	114	3
155	156	1
175	175	5
64	64	5
27	94	4
137	137	5
72	72	3
57	57	4
149	158	3
63	63	8
116	117	3
67	68	3
33	33	7
171	172	2
138	138	5
76	76	6
139	139	3
115	115	6
140	140	2
24	45	2
153	153	7
34	35	8
30	30	5
120	120	3
146	146	9
102	102	7
152	152	2
80	80	2
96	96	4
151	151	5
45	45	3
97	97	1
125	125	2
10	13	3
113	113	2
118	119	4
104	106	3
127	127	4
134	135	4
161	161	3
151	153	8
79	80	2
156	157	2
65	65	5
170	170	2
100	100	2
28	28	3
54	55	3
6	148	2
53	53	2
178	178	4
145	145	2
140	157	2
83	83	1
168	168	3
50	51	3
166	166	4
84	84	5
159	159	3
82	82	4
32	32	1
39	40	2
124	124	5
25	26	5
86	86	3
171	171	3
141	141	6
99	112	1
160	161	2
100	101	1
129	130	4
106	106	4
138	168	3
132	132	2
135	135	8
90	90	2
111	111	7
121	121	6
109	109	4
77	77	5
42	42	2
67	67	1
121	133	5
24	24	1
134	134	1
176	176	1
112	112	1
68	68	2
72	73	6
128	128	3
136	136	1
65	80	2
165	165	3
51	65	4
108	160	1
164	164	3
2	5	1
76	77	1
116	116	1
55	55	2
155	155	3
111	130	2
41	42	7
57	60	1
123	125	2
169	170	3
79	81	2
42	92	2
2	2	1
111	128	7
9	9	2
110	111	2
81	82	1
62	63	2
36	36	2
110	171	2
149	150	3
16	17	1
75	76	4
4	7	3
32	33	3
126	171	2
75	75	5
89	116	1
41	41	1
166	167	4
129	129	1
78	78	2
137	146	1
122	122	4
66	66	3
64	65	1
2	33	1
89	89	4
16	16	2
27	28	2
94	94	1
145	146	2
160	160	2
106	110	1
40	40	4
110	110	3
87	96	2
44	91	2
76	119	1
56	71	2
124	177	2
177	177	1
44	44	1
29	29	2
42	90	2
130	130	2
88	88	1
173	173	2
143	152	1
45	46	1
6	16	3
3	3	2
137	138	4
107	107	1
156	156	4
158	158	1
14	14	1
60	61	1
3	16	1
91	91	1
64	82	1
61	61	3
169	169	1
138	179	1
74	118	1
93	93	1
162	164	1
137	139	2
104	105	1
86	89	1
107	159	1
107	110	1
6	9	1
121	178	2
168	169	1
66	67	2
153	157	1
106	107	1
174	174	1
136	169	1
26	30	1
17	17	1
