85	85	12
44	120	3
47	84	2
104	104	8
15	15	10
8	8	7
44	44	11
77	77	16
94	99	3
130	131	4
101	101	9
131	131	13
9	9	9
72	72	9
80	88	6
114	134	3
15	18	2
61	61	6
26	26	4
88	122	4
82	82	4
75	75	2
77	78	9
105	105	10
118	118	10
70	70	7
11	11	27
79	79	16
17	17	3
9	10	6
66	66	8
6	6	4
90	90	14
12	12	5
67	129	1
67	67	1
131	133	2
62	62	4
108	108	5
69	69	13
97	119	1
30	30	7
86	98	2
10	10	7
74	74	16
79	82	5
63	63	13
16	17	7
6	7	3
76	82	6
119	119	13
73	73	11
102	102	13
133	134	4
88	88	11
32	32	1
127	127	18
24	28	1
111	111	11
107	107	15
80	80	18
125	125	11
4	83	2
121	121	7
86	86	6
60	61	2
61	119	1
97	97	10
5	5	18
110	110	11
64	64	17
44	114	4
45	120	3
19	20	6
89	89	10
96	96	7
71	75	2
22	22	3
68	68	5
19	19	4
33	33	13
103	103	8
78	78	8
5	79	1
29	29	16
71	71	14
49	49	1
55	56	3
23	34	1
48	48	7
38	38	4
11	99	3
97	98	3
87	87	9
31	31	5
124	131	1
59	62	1
24	24	10
89	90	3
126	126	4
99	99	6
124	124	5
122	122	8
113	113	9
11	102	4
4	36	5
106	106	10
0	0	7
67	68	1
23	23	5
134	135	2
67	69	2
100	100	2
93	93	7
62	129	3
33	103	2
28	29	2
85	113	4
7	111	3
86	118	5
95	95	7
114	115	1
83	84	2
66	67	6
20	20	3
111	134	2
12	92	1
114	114	1
22	23	4
43	43	10
123	123	13
14	14	20
62	68	1
82	87	4
34	34	3
55	55	4
86	114	2
16	16	10
5	104	1
17	27	1
95	105	1
79	83	2
62	63	2
54	57	2
44	109	3
45	49	3
125	126	4
125	131	5
124	125	6
63	94	5
45	45	4
50	50	5
57	111	2
37	61	2
84	84	3
72	73	1
109	109	13
83	83	13
65	67	3
64	65	4
53	53	1
70	71	2
57	59	4
91	92	6
78	79	1
24	33	2
45	85	2
37	37	8
80	87	1
43	62	1
129	130	2
26	57	1
61	63	3
108	109	3
106	108	2
45	124	3
20	21	1
133	133	4
120	120	4
115	115	9
2	2	1
26	27	2
19	32	5
134	134	8
12	13	3
30	32	2
52	84	2
32	79	1
98	115	6
126	127	3
100	113	1
8	72	2
84	95	2
35	35	5
16	78	1
21	21	1
45	53	2
18	20	1
85	95	1
86	120	2
121	122	2
100	101	2
128	128	2
107	108	2
65	65	7
90	93	2
74	75	1
98	114	1
2	36	1
13	15	1
2	3	2
47	49	3
95	115	1
8	9	6
65	66	2
36	37	1
0	3	6
110	112	1
65	69	2
19	31	2
60	60	2
52	52	2
42	42	4
89	118	2
20	26	3
82	85	1
94	94	5
96	115	4
115	116	1
57	57	3
132	132	2
15	16	3
56	56	2
32	33	1
71	134	1
106	107	2
66	106	2
43	129	1
111	112	1
7	54	3
46	46	3
27	27	4
50	53	6
98	98	1
3	24	2
49	131	6
54	54	2
92	93	4
4	4	2
123	133	2
91	91	9
70	134	1
17	18	1
80	81	3
1	1	5
56	59	4
3	135	1
26	30	3
5	76	2
94	95	3
0	30	1
3	4	1
25	25	2
47	48	2
36	36	4
46	53	1
112	113	1
58	58	5
2	4	1
59	59	6
0	61	2
52	53	2
50	123	2
88	89	1
80	83	2
13	20	3
13	13	2
120	126	2
13	14	2
117	117	1
132	133	1
2	6	1
86	95	1
50	84	2
57	68	1
97	118	2
105	107	2
75	76	1
0	4	2
76	76	7
43	131	3
52	83	1
109	110	3
6	37	2
58	59	2
33	35	3
0	60	1
45	46	3
77	82	1
30	31	1
7	7	1
9	11	1
3	3	3
10	123	1
53	124	1
116	116	6
121	125	1
33	34	2
92	92	4
52	54	2
36	100	1
56	57	2
89	98	1
88	90	1
52	118	1
119	126	2
54	60	1
79	81	1
71	73	1
53	54	1
7	9	4
81	81	2
61	62	1
122	123	1
129	129	1
44	113	1
52	60	1
21	22	1
68	69	1
84	88	4
102	103	1
55	59	1
45	95	1
1	36	1
3	36	1
18	18	1
75	90	1
108	111	2
15	78	1
31	32	1
25	30	2
51	51	1
45	63	2
130	130	1
109	111	1
93	94	1
13	37	1
77	79	2
27	32	1
12	91	1
