41	42	9
175	175	9
157	157	16
79	79	10
95	95	17
152	155	3
67	67	4
82	82	5
89	90	2
182	182	16
37	38	13
110	110	8
172	173	7
125	125	10
118	118	10
68	68	11
44	44	5
21	21	13
126	126	11
99	99	18
160	164	2
31	31	20
40	40	10
96	96	4
171	171	16
181	181	13
42	52	2
15	36	3
119	154	3
139	140	4
184	184	13
170	176	5
124	124	14
160	160	9
109	109	12
84	84	20
2	2	13
145	145	12
190	190	8
55	55	13
165	168	3
152	153	7
59	59	14
152	152	4
69	72	1
130	130	15
43	48	1
80	80	15
85	85	6
59	60	7
131	131	14
142	142	23
172	190	2
169	169	9
8	8	15
37	37	13
33	33	12
101	104	2
132	132	10
3	3	12
6	6	9
0	0	12
21	23	4
177	178	3
148	149	1
17	17	21
158	159	3
58	58	7
30	44	3
10	15	1
117	117	12
178	179	2
180	181	3
179	181	1
82	83	4
43	44	5
6	25	2
4	47	4
56	56	13
54	56	4
28	28	12
78	79	12
85	98	3
138	138	7
176	176	20
103	124	2
90	104	1
74	78	3
167	167	5
164	164	17
30	30	6
128	134	3
32	33	1
85	148	4
154	154	6
179	179	7
25	25	11
27	27	9
171	174	2
64	105	2
88	88	13
159	159	9
114	115	3
135	159	2
57	57	14
111	111	12
143	143	6
77	79	6
39	39	7
149	149	24
111	127	4
155	155	18
20	20	13
108	109	1
37	132	3
189	189	5
165	167	3
39	40	3
23	33	2
55	56	4
0	13	1
116	120	4
163	171	2
160	161	2
146	147	5
71	71	16
29	29	16
186	186	8
9	9	4
78	78	12
163	164	2
113	132	2
141	155	3
7	8	4
115	123	1
157	176	2
74	91	1
55	68	2
135	135	2
128	140	1
34	34	6
52	52	5
134	138	3
4	40	5
15	32	4
76	112	3
8	84	1
171	172	5
113	122	1
148	148	10
160	170	5
5	6	2
90	103	1
187	188	7
100	101	2
55	78	1
127	127	5
155	171	3
167	185	2
5	5	11
31	32	4
136	137	11
130	147	2
147	148	2
167	168	6
170	170	9
166	166	11
92	93	1
60	60	4
116	116	9
64	64	13
162	185	3
35	58	1
94	101	3
84	85	12
102	102	14
173	173	13
102	109	2
100	103	5
90	101	1
44	53	1
15	15	11
107	149	1
94	118	2
128	128	15
147	147	14
119	127	2
22	37	3
86	86	9
174	181	2
76	82	1
44	46	1
72	72	8
91	91	8
90	94	5
151	153	7
74	74	8
41	41	20
183	183	9
152	154	1
114	114	19
89	124	5
16	37	1
180	180	11
158	158	14
112	143	2
145	168	3
150	151	1
22	22	16
42	43	2
137	137	10
154	155	6
120	120	14
44	54	8
153	155	2
132	133	2
27	30	1
72	119	1
111	126	2
174	175	5
101	101	9
85	86	2
19	19	7
185	185	19
155	175	2
103	103	8
112	112	4
144	144	10
104	105	1
82	86	2
13	13	12
63	63	5
15	84	3
177	177	11
93	93	17
161	164	3
12	12	13
162	162	10
178	182	2
79	82	2
139	139	7
125	141	3
119	119	10
133	152	1
90	90	9
66	66	10
122	142	2
115	119	3
65	65	16
12	14	1
166	170	3
100	150	5
17	22	4
146	146	13
124	125	6
56	108	4
108	108	13
46	46	6
165	165	17
103	113	1
87	94	2
1	161	2
5	7	2
98	98	9
163	163	6
115	140	1
66	67	1
117	130	1
23	24	1
173	186	1
35	55	1
18	18	8
156	160	2
151	151	7
1	1	6
32	32	15
89	89	15
26	37	2
52	73	2
70	70	3
0	24	1
19	20	2
129	129	8
155	156	2
61	61	13
70	71	1
10	11	4
172	172	9
24	24	6
166	172	2
7	7	11
34	47	1
6	8	1
138	151	2
76	77	1
97	97	8
121	122	2
160	183	1
142	143	4
43	43	11
65	67	2
41	44	2
156	156	9
187	187	12
117	119	2
175	189	2
34	39	5
15	25	4
182	184	6
101	109	1
153	156	1
123	123	10
147	149	2
145	151	1
89	111	3
34	84	1
87	87	10
75	75	5
113	147	3
18	19	4
83	83	10
113	113	13
104	104	3
26	26	11
14	17	4
76	76	11
172	175	1
110	130	2
175	179	4
38	80	2
131	140	2
117	124	1
54	55	8
54	54	9
28	31	2
140	140	6
160	162	1
113	130	1
178	178	4
115	156	1
134	135	3
23	23	15
72	73	3
87	88	2
109	120	2
19	38	2
0	83	1
0	7	2
158	179	1
27	45	1
62	79	4
182	189	2
124	154	4
73	73	2
15	21	2
77	77	8
73	74	4
105	110	2
74	75	5
143	144	2
142	147	1
36	36	9
100	100	9
176	180	2
56	150	1
123	124	5
1	2	5
75	78	4
4	12	4
172	176	1
188	188	8
26	33	1
26	36	3
35	56	2
23	47	2
126	127	11
134	134	4
11	11	13
70	72	1
16	16	10
122	122	6
184	186	3
108	127	2
90	96	1
145	169	5
3	25	1
101	134	4
141	168	1
134	136	3
4	4	9
60	62	5
73	82	1
179	180	7
149	156	3
137	138	13
158	180	2
107	107	2
155	166	1
162	177	2
53	53	14
143	174	1
58	59	3
17	83	1
38	38	9
84	86	1
166	168	2
140	141	1
138	159	2
112	131	1
47	47	2
153	153	5
163	172	2
55	94	2
139	141	5
88	90	1
15	16	3
170	190	2
88	150	2
14	16	2
21	79	2
161	190	2
76	127	2
63	104	2
52	53	1
106	132	5
171	177	1
97	105	3
6	16	2
169	170	3
7	24	2
20	27	1
39	46	2
133	135	4
150	150	11
2	25	1
17	20	1
17	31	3
169	177	2
4	7	1
57	58	5
150	168	2
171	173	3
73	85	4
131	133	2
128	138	2
169	174	1
8	14	1
169	189	2
10	10	6
59	66	1
141	141	5
85	100	2
48	48	9
25	35	1
129	132	2
153	166	1
53	55	1
94	94	5
75	76	4
145	147	1
84	87	2
111	134	2
113	115	4
40	41	3
9	11	2
107	121	1
92	92	4
85	103	1
37	56	3
62	62	7
61	79	1
89	107	2
133	133	4
111	112	1
95	98	4
115	115	9
114	129	1
55	84	3
77	81	4
60	65	3
2	17	2
68	71	5
130	142	3
142	152	1
35	63	1
55	59	8
77	124	2
33	34	7
33	54	4
61	62	2
57	67	3
85	87	2
151	152	1
107	147	3
165	185	1
144	145	2
102	103	1
77	78	1
89	101	2
70	108	1
117	129	1
74	108	2
182	183	4
181	188	1
97	98	1
121	121	8
42	42	6
29	31	1
153	158	4
48	60	1
25	40	2
118	129	3
3	9	2
17	60	2
88	94	1
64	75	1
17	24	1
137	139	1
95	97	3
28	29	2
168	184	1
78	82	2
170	177	2
183	184	3
154	170	2
21	22	1
38	39	1
39	43	2
59	71	1
4	11	2
136	136	17
79	80	4
71	72	3
96	111	1
170	173	2
36	37	1
175	176	3
125	128	3
35	35	5
9	24	1
13	15	3
135	136	2
97	148	1
144	150	1
100	102	3
101	135	2
4	21	3
2	4	2
113	123	2
122	162	1
108	110	1
115	117	2
8	87	1
181	183	2
5	15	1
3	17	2
154	159	1
130	146	1
83	91	1
154	189	3
26	47	1
37	70	1
154	164	3
120	125	1
117	118	7
164	165	2
11	12	1
108	121	4
188	190	2
68	92	2
96	98	3
128	139	1
129	130	1
16	17	3
66	81	2
3	22	1
29	30	2
95	106	1
175	177	1
9	23	1
106	120	2
17	18	3
26	29	1
100	106	5
77	109	1
138	139	1
130	133	1
10	14	3
113	140	2
13	14	5
166	167	1
69	69	1
19	21	1
14	14	8
40	48	1
153	170	1
136	141	1
139	154	6
86	92	3
116	117	3
71	105	1
111	114	2
117	137	1
141	166	4
150	169	3
56	57	4
101	102	1
83	95	1
156	159	1
81	81	1
127	146	1
121	161	1
7	17	3
60	64	1
168	168	3
113	114	1
161	161	5
85	88	3
159	160	6
46	47	2
97	99	1
17	23	2
96	99	1
48	49	2
162	163	4
105	105	9
32	44	1
63	64	1
186	190	1
45	45	6
89	123	3
62	63	3
30	31	1
149	150	2
42	53	1
10	24	1
21	82	1
16	23	2
18	23	1
115	118	1
121	137	2
20	21	1
42	46	2
154	173	1
140	156	2
72	74	1
174	177	1
153	154	2
30	39	1
119	165	2
125	126	1
149	168	3
45	46	3
95	126	1
148	150	2
53	66	1
189	190	4
2	27	1
27	29	2
119	120	2
65	68	1
90	91	3
177	179	2
75	82	1
177	183	2
106	106	4
31	46	1
35	38	1
130	131	1
101	103	1
122	128	1
55	99	1
7	88	1
58	60	3
20	25	2
148	151	1
63	113	1
77	94	2
151	157	2
63	75	2
62	80	2
86	103	2
3	19	1
34	35	3
77	126	1
55	72	1
173	175	1
182	186	1
74	76	1
141	152	2
47	48	1
167	187	1
164	183	2
19	22	1
174	174	4
173	176	1
140	144	2
12	13	6
58	61	1
103	132	2
140	160	1
60	82	1
160	169	1
166	185	1
148	157	1
115	116	2
80	81	1
85	94	1
97	131	1
99	101	1
2	5	1
173	174	1
164	180	2
53	54	1
111	131	1
9	121	2
126	128	1
90	92	1
119	163	1
17	39	1
93	150	1
173	187	2
61	81	1
180	188	1
5	17	1
82	118	1
109	121	1
7	37	1
106	108	1
107	108	2
107	128	1
163	169	2
163	166	2
117	122	2
138	141	2
25	26	3
28	30	1
58	64	2
130	136	1
99	100	1
166	173	1
64	65	4
58	83	1
151	175	1
130	148	2
112	148	1
157	158	1
140	143	1
141	153	1
141	145	2
149	152	1
143	145	1
55	57	2
185	186	1
113	135	1
143	152	1
146	157	1
31	34	1
11	29	1
35	92	2
34	46	1
70	76	1
64	115	1
169	171	3
120	152	1
67	88	1
158	167	1
176	181	2
64	66	3
0	12	1
106	107	1
30	37	1
68	103	1
90	105	1
56	61	1
55	77	2
63	77	1
52	55	3
55	79	1
23	31	1
55	74	1
133	134	1
141	142	1
114	135	1
38	40	1
155	160	2
109	110	1
65	66	1
31	36	1
112	115	1
109	119	1
67	68	1
79	81	1
99	109	1
20	73	1
8	11	1
179	187	1
19	27	1
13	16	1
170	175	1
71	121	1
96	97	1
77	96	1
