79	79	4
31	59	2
1	6	1
4	6	5
1	47	3
19	19	7
75	75	10
125	125	8
130	130	9
22	23	4
39	39	5
98	98	8
41	41	8
117	117	7
108	113	3
4	5	6
74	74	5
91	92	3
69	69	6
18	19	5
143	143	4
118	118	4
140	141	2
95	95	7
21	48	1
16	16	1
81	81	6
41	66	2
116	116	3
61	61	9
8	8	2
53	53	10
91	91	7
73	73	7
14	31	1
66	66	4
22	22	2
68	68	4
28	28	15
64	66	3
1	1	6
132	132	2
121	121	7
137	137	2
93	93	10
13	20	1
128	129	4
13	13	4
87	87	7
34	34	2
77	77	7
65	65	4
122	123	1
11	11	5
3	3	2
112	113	1
107	107	4
22	56	6
89	89	4
32	32	3
131	131	7
96	97	3
81	102	2
76	76	1
25	26	1
134	134	6
128	128	1
3	34	2
99	99	1
87	91	4
111	116	3
27	48	3
109	109	10
113	117	1
23	24	2
135	135	4
25	25	7
110	117	1
135	136	2
145	145	4
94	94	7
115	115	7
18	56	4
18	18	7
2	2	4
127	128	2
145	146	1
101	101	14
105	105	1
37	37	2
41	42	11
31	31	8
88	88	4
72	72	3
75	111	2
76	112	1
16	17	1
144	144	5
62	62	5
85	85	2
60	60	5
14	15	2
82	82	5
121	122	3
78	80	3
51	51	4
100	100	2
110	121	1
12	12	2
42	42	8
74	75	5
115	116	6
70	81	1
90	90	9
143	144	1
27	37	2
120	120	6
32	33	10
67	67	5
17	17	3
141	141	4
59	60	4
5	5	7
54	54	6
94	95	5
127	139	3
88	89	1
87	88	6
72	73	2
63	67	2
106	122	2
23	25	1
68	81	1
29	29	11
36	36	6
47	48	2
5	39	1
103	103	4
63	63	1
23	23	11
96	137	1
82	84	1
104	104	7
78	78	1
17	18	2
30	30	10
70	70	5
117	118	2
97	98	5
99	100	6
92	93	4
9	9	7
124	125	3
109	110	2
57	58	2
106	106	2
20	20	5
123	123	1
54	85	2
83	83	1
119	131	2
72	74	2
59	59	5
78	79	5
122	122	3
50	50	1
134	135	2
48	48	6
8	42	2
104	105	2
96	121	1
95	98	1
95	121	1
98	104	2
49	49	4
112	114	4
0	36	1
67	68	2
101	103	1
47	47	3
139	139	4
8	9	1
127	127	2
26	27	2
102	145	1
94	118	4
100	133	2
118	121	2
108	108	5
53	59	3
114	114	1
146	146	2
17	24	1
34	47	2
96	104	1
62	63	1
20	27	2
122	137	4
13	14	2
69	70	2
56	56	4
69	116	1
99	104	3
101	102	2
124	124	1
73	80	1
15	68	2
3	6	1
79	80	1
10	10	3
2	3	1
38	38	3
89	123	4
19	23	1
56	57	4
4	36	3
65	66	2
33	33	2
54	55	2
120	121	1
6	6	1
21	23	2
37	38	2
28	30	1
95	108	1
75	85	1
113	113	2
4	4	1
129	140	1
32	38	1
56	71	2
97	99	1
76	77	1
100	131	2
105	107	2
93	122	2
72	85	2
75	76	1
8	67	2
102	103	1
16	26	1
110	111	1
77	91	3
26	26	1
37	39	1
58	58	1
88	124	1
55	55	3
102	106	1
30	33	1
24	24	3
107	108	1
14	14	3
71	71	4
27	27	3
8	10	1
15	54	1
76	111	1
57	57	4
97	97	1
21	21	2
42	43	1
0	1	1
40	115	1
17	41	1
140	140	1
36	37	1
21	22	1
81	113	1
126	141	1
97	118	1
28	29	1
98	118	1
40	40	2
64	64	1
100	109	1
30	31	1
116	117	2
106	121	1
22	68	1
64	65	1
61	62	1
126	126	2
27	28	1
108	118	1
114	115	1
35	35	1
96	96	2
126	129	2
12	40	1
52	52	1
22	42	1
103	104	1
95	96	1
20	21	1
127	138	1
