25	26	4
10	10	4
136	136	7
139	139	3
16	16	13
116	116	8
78	79	6
107	107	7
86	92	3
91	91	6
108	109	5
75	75	11
97	97	15
107	117	3
6	9	3
80	90	4
38	38	10
87	89	3
10	11	5
138	138	10
8	8	14
78	85	3
72	116	1
34	34	10
130	130	13
17	27	2
140	140	2
88	88	6
4	4	7
128	128	21
5	5	9
74	74	13
3	4	5
131	131	3
103	108	2
105	106	2
18	18	9
14	14	14
32	33	5
71	72	12
95	95	10
19	19	18
136	137	1
6	7	3
99	99	13
117	117	15
0	0	11
123	123	13
101	101	5
86	86	5
96	97	2
127	129	2
1	1	7
0	6	2
13	13	10
132	132	1
109	109	8
128	129	6
113	113	7
111	111	15
84	85	1
82	82	8
23	23	5
21	28	3
98	98	5
90	91	2
125	125	6
103	107	1
11	11	5
107	108	5
33	35	1
25	25	3
80	82	3
78	78	8
94	112	3
36	36	13
97	98	2
73	89	2
84	84	4
114	115	12
16	19	4
75	77	4
119	125	2
16	17	6
137	137	3
105	105	8
96	96	6
22	28	2
31	31	9
89	112	2
93	93	8
19	27	1
9	9	5
77	77	6
29	29	6
110	110	9
95	102	3
45	120	6
35	35	7
17	18	2
34	35	4
120	122	1
12	12	2
76	76	3
103	103	6
83	83	8
106	106	9
79	82	1
116	123	4
134	134	2
17	17	7
22	23	6
100	100	8
71	71	8
80	80	5
83	84	10
15	15	4
101	102	1
101	112	2
26	26	2
73	128	6
0	1	2
7	84	1
2	3	5
92	92	3
21	21	2
121	121	3
126	126	6
20	20	4
127	130	2
5	94	1
9	10	3
112	112	4
72	119	2
75	76	1
85	86	1
4	17	1
72	72	12
129	129	5
37	37	7
100	112	2
35	138	2
87	87	3
35	36	3
33	33	8
30	30	1
85	85	5
135	135	4
112	113	3
88	96	4
29	30	1
133	133	3
76	89	3
102	102	11
30	31	3
3	3	7
115	115	3
95	96	2
26	120	2
27	27	10
106	107	3
129	130	1
74	75	3
22	22	3
5	15	4
32	32	4
71	80	1
97	99	3
87	88	3
23	28	4
88	90	6
119	119	10
91	92	2
111	112	7
15	30	3
121	122	2
92	94	4
18	19	1
36	37	3
127	127	4
89	90	2
124	124	5
28	28	2
110	111	3
135	136	2
24	24	2
2	2	1
72	127	1
37	38	4
28	29	6
79	79	2
7	7	2
120	120	3
95	109	1
122	122	1
137	140	1
13	14	2
11	15	2
134	135	1
7	8	5
104	105	3
12	16	1
92	95	3
91	114	1
20	28	1
82	114	1
114	114	2
102	103	3
133	134	1
81	82	1
123	125	1
119	120	1
73	73	5
21	67	1
73	74	3
95	97	3
139	140	1
8	10	1
87	90	1
33	34	1
104	117	1
15	16	1
125	126	1
71	93	1
23	24	1
1	84	1
26	122	1
90	90	1
87	91	1
123	124	1
83	102	1
71	85	2
14	18	1
6	6	1
18	20	1
4	34	1
21	27	2
89	89	2
72	88	1
81	81	3
131	133	1
118	118	1
13	30	1
72	73	1
102	110	1
77	79	1
108	110	1
108	117	1
8	9	1
