32	32	9
118	118	5
133	133	1
131	131	6
33	34	7
36	36	11
91	91	21
30	30	11
60	61	2
76	76	11
110	110	11
12	13	5
63	63	7
31	32	6
17	109	1
128	134	1
124	124	13
59	59	8
31	31	8
55	56	1
85	85	6
108	108	4
116	116	8
35	36	4
94	94	3
3	4	6
8	9	3
47	47	2
6	16	3
109	109	6
82	82	5
55	55	2
95	96	1
69	69	9
129	129	17
84	84	7
44	54	3
105	106	3
17	19	1
46	46	4
8	8	15
57	103	8
105	105	8
130	130	8
53	54	3
49	50	3
121	121	5
86	86	2
61	61	5
33	35	4
74	74	8
73	73	7
43	43	10
27	27	4
20	20	6
5	5	4
104	104	5
45	51	1
117	117	9
107	108	1
64	64	15
111	111	1
9	10	4
92	107	1
29	29	7
103	104	1
120	121	2
68	68	9
80	80	9
8	17	2
95	120	3
115	115	8
128	128	4
105	121	2
114	114	3
62	62	4
73	74	4
4	5	1
25	25	2
97	97	3
87	88	4
127	128	6
104	105	1
65	65	4
38	38	4
128	129	7
29	32	1
65	78	2
21	23	2
45	45	10
1	1	6
23	23	3
86	87	8
93	95	1
112	113	3
78	78	3
63	64	1
67	67	10
99	124	4
132	132	13
4	4	4
14	15	7
52	54	3
121	122	3
119	119	2
56	58	4
64	65	5
110	111	2
22	43	3
17	33	3
52	53	3
93	94	8
6	18	2
130	132	2
10	10	10
98	116	2
100	100	5
87	87	7
74	103	2
9	9	9
101	102	2
79	84	2
11	11	2
83	84	6
89	90	10
45	87	3
113	113	2
68	69	3
2	2	3
47	62	1
103	103	7
60	60	4
95	95	5
109	110	2
124	127	1
21	21	4
49	49	4
119	120	4
6	14	1
67	68	6
52	52	6
70	70	8
2	36	2
33	33	9
93	93	3
116	119	1
95	119	3
57	58	4
95	108	3
126	126	1
43	50	4
79	87	2
44	44	4
94	102	1
17	17	5
123	125	1
78	80	2
19	21	4
18	18	3
6	7	2
14	14	1
95	106	1
58	59	2
37	37	5
115	116	1
98	98	3
106	111	1
70	71	3
120	120	3
21	22	6
50	50	3
94	106	1
51	51	3
99	99	3
78	79	3
117	118	1
15	15	3
45	47	1
96	110	2
6	6	3
77	88	3
5	18	2
35	35	4
2	4	1
77	77	5
122	122	2
126	127	3
92	92	3
34	35	3
24	25	1
66	66	2
79	85	3
25	34	4
90	92	5
24	24	3
116	117	2
45	54	1
44	48	2
67	88	3
53	53	2
65	88	3
109	111	2
106	106	1
22	23	1
4	16	2
115	131	4
11	15	2
131	132	1
100	101	2
5	13	1
79	80	5
111	112	5
117	131	4
29	30	1
19	19	3
71	71	4
108	109	1
98	117	1
105	120	1
54	54	4
34	34	3
83	87	2
97	113	1
96	113	1
28	28	5
79	79	8
54	55	1
89	89	1
125	125	1
134	134	5
124	125	1
97	118	1
68	90	2
99	102	1
75	75	1
76	89	2
125	127	2
96	97	2
92	106	2
123	123	2
3	61	1
3	3	4
106	108	1
56	56	2
23	24	1
89	105	1
26	26	1
75	122	1
127	129	1
66	86	1
95	107	1
92	108	1
94	119	3
86	91	1
129	131	2
20	21	1
13	16	1
68	70	1
81	81	1
7	7	1
65	77	1
112	112	1
98	134	1
5	6	1
102	102	2
52	64	1
38	42	1
85	86	2
77	89	1
89	93	1
114	129	2
62	63	1
81	89	2
83	83	1
17	34	1
107	107	1
96	120	1
98	115	1
108	121	2
30	31	1
106	107	1
98	113	1
