105	105	4
47	47	6
47	69	2
103	103	1
138	139	5
25	48	4
54	54	2
17	17	9
134	134	3
38	38	4
78	78	1
70	70	9
168	170	3
110	110	9
119	129	3
117	117	2
72	72	7
94	94	2
150	151	5
49	49	2
126	127	1
46	46	1
0	26	6
68	69	2
114	116	2
169	169	1
148	149	1
88	169	1
41	41	4
113	113	2
56	56	9
148	148	3
74	76	2
170	170	3
162	162	5
62	62	4
53	54	5
101	144	2
149	153	2
127	128	2
132	132	4
87	87	3
27	64	1
144	144	2
123	123	6
146	146	4
52	67	3
20	21	5
107	107	5
127	127	3
38	40	2
2	3	1
151	151	7
75	75	3
130	130	4
131	131	6
9	46	6
105	132	5
80	80	1
5	5	1
36	36	1
11	12	2
91	91	3
0	1	2
35	35	2
9	10	2
23	23	5
108	109	3
3	3	2
100	100	5
10	46	2
53	53	1
102	134	1
10	13	1
25	26	3
167	167	2
100	143	2
126	126	3
71	71	2
45	45	4
120	120	4
33	33	2
162	163	3
133	135	2
26	26	2
109	109	2
123	153	1
133	137	2
118	119	6
112	112	1
15	15	2
150	152	3
16	16	7
43	43	2
101	140	1
134	138	2
50	51	3
69	69	2
72	73	4
22	25	1
48	49	2
21	21	2
19	114	3
102	102	2
0	0	8
85	85	3
27	27	1
88	97	6
88	88	2
70	71	4
97	97	6
17	88	1
110	133	2
158	159	2
42	42	1
134	135	2
98	98	1
55	55	2
165	170	2
137	138	2
116	116	3
156	157	2
39	39	6
10	10	11
48	65	3
154	154	2
153	154	3
82	82	4
18	22	4
4	7	2
102	103	2
80	83	4
133	133	2
76	76	7
4	6	3
37	37	3
53	67	1
51	51	4
163	163	3
106	106	1
77	78	2
21	22	1
138	138	2
160	160	1
89	89	2
81	85	1
136	137	1
150	150	1
152	152	1
11	43	1
155	155	1
82	85	1
99	137	1
50	68	2
108	108	1
142	142	2
47	48	5
47	56	1
92	97	3
161	161	2
41	43	1
114	114	2
123	124	2
141	141	2
149	149	1
18	18	2
92	92	2
5	6	1
25	25	1
54	65	2
156	167	1
22	81	1
93	112	1
47	66	2
9	9	2
73	75	1
129	129	3
80	81	1
90	118	1
8	8	1
157	162	3
90	90	3
89	90	3
121	126	1
157	159	2
160	168	1
83	84	1
75	76	1
41	42	1
96	96	1
119	119	2
158	166	2
34	34	1
34	35	1
87	88	1
2	2	1
1	1	2
18	116	1
81	81	2
154	155	2
21	116	2
147	147	1
96	97	1
35	91	1
51	68	1
111	112	1
20	20	1
112	119	1
11	11	2
132	148	1
144	146	1
126	128	1
