127	134	2
0	4	2
59	88	2
6	39	3
41	41	5
60	60	10
37	42	3
126	127	10
111	111	5
105	105	7
70	110	2
104	125	4
35	35	7
40	41	2
92	92	7
86	86	3
127	127	8
38	39	2
96	103	1
11	11	4
18	19	3
120	120	3
14	14	1
121	121	1
103	103	3
104	104	14
4	43	1
61	61	13
64	65	2
126	134	1
64	64	8
118	121	5
8	30	1
63	65	1
19	19	5
114	114	3
97	99	2
26	26	9
13	13	6
31	44	2
39	48	1
10	11	1
6	6	7
78	78	7
46	46	4
131	131	2
79	79	7
105	132	1
93	93	2
42	42	5
32	33	2
73	73	6
43	43	3
10	10	4
8	8	7
30	33	3
76	76	8
132	132	4
23	23	5
118	118	7
34	34	3
107	107	2
33	34	1
45	45	7
112	122	1
75	75	4
89	93	3
3	3	2
124	124	2
9	33	2
105	109	3
89	90	2
83	84	3
112	113	1
116	116	2
5	8	3
90	90	8
12	94	6
83	101	3
22	24	4
122	122	9
126	126	6
23	25	4
77	77	2
21	22	7
19	22	1
100	100	3
34	35	3
15	15	4
128	128	6
35	49	2
68	82	3
83	90	2
84	84	5
109	109	1
117	117	5
63	63	7
89	89	2
108	108	2
57	58	4
133	133	6
58	58	3
101	101	2
39	40	3
105	133	4
15	16	3
130	130	6
9	10	5
69	69	4
123	123	1
81	81	1
7	7	2
102	102	1
57	86	2
40	40	3
113	113	3
48	48	1
121	122	1
60	61	2
28	28	1
7	83	3
44	44	3
12	12	1
17	17	4
40	71	1
57	57	2
13	39	2
64	77	1
96	96	3
82	82	2
57	84	3
27	27	4
33	35	1
111	122	2
14	15	1
2	2	5
98	98	7
68	75	4
9	9	2
68	95	5
99	100	4
91	102	2
18	18	3
69	113	1
2	33	2
98	122	1
88	101	4
70	70	3
87	101	1
59	60	1
69	70	2
47	47	2
27	71	1
30	47	1
33	36	2
87	87	1
58	76	2
19	20	2
96	100	2
30	42	3
57	64	1
46	47	2
80	82	1
85	85	1
5	5	1
56	58	1
33	33	2
62	62	2
81	82	3
54	93	3
95	95	1
25	26	4
38	38	2
20	21	1
109	110	2
99	99	2
125	129	1
68	125	2
24	24	2
112	112	3
91	92	3
65	120	2
24	25	1
115	117	1
129	129	1
39	55	1
22	22	1
29	30	1
30	31	2
112	124	1
36	36	1
6	7	1
6	12	1
106	106	1
27	41	1
32	32	1
56	56	1
108	122	1
48	49	1
96	97	1
39	39	1
73	74	1
37	38	1
16	16	1
25	25	1
94	94	1
97	103	1
15	31	1
56	102	1
20	20	1
91	91	1
86	95	2
8	57	1
80	80	1
107	118	1
134	134	1
