113	113	13
88	88	3
64	64	4
7	7	6
100	100	5
105	105	7
112	113	7
42	42	5
81	123	5
59	59	7
9	33	6
121	122	5
49	49	8
3	4	4
56	56	7
99	99	1
29	29	4
125	125	7
80	81	5
51	124	2
77	77	4
13	14	4
112	112	2
23	23	2
102	102	7
124	125	2
3	22	4
97	97	5
25	25	2
17	17	4
14	14	4
126	128	4
76	76	3
3	6	5
111	111	16
126	127	8
21	23	1
3	7	3
43	43	2
47	47	5
60	99	2
124	124	2
75	86	4
8	8	2
20	20	5
49	78	2
12	13	1
129	129	9
24	24	6
11	11	5
118	131	2
52	53	2
120	120	8
59	97	2
16	16	12
42	66	4
118	119	3
39	102	1
117	117	10
1	2	3
30	30	6
50	50	5
10	13	1
46	46	3
53	53	7
116	116	1
26	27	3
79	79	13
45	45	5
55	90	3
1	1	7
70	72	2
83	83	3
85	85	6
127	130	10
53	104	1
69	69	16
31	31	4
72	72	4
101	101	3
125	127	3
46	47	1
100	111	2
44	107	3
81	82	2
80	94	3
7	8	1
44	48	2
54	54	14
109	110	2
47	75	3
114	114	6
78	79	2
27	27	6
52	52	8
63	63	6
123	123	3
103	103	2
133	133	6
119	130	5
21	21	3
49	83	2
56	94	5
122	122	5
42	110	3
0	0	5
119	119	4
82	82	4
41	67	4
83	122	1
55	55	1
15	21	1
48	49	2
73	74	2
50	51	1
78	78	5
128	130	1
11	12	4
63	99	1
109	109	13
64	73	2
62	70	1
93	93	6
63	64	2
42	109	1
88	96	2
110	111	2
13	13	4
105	107	2
131	131	2
94	94	3
20	24	2
93	94	5
118	118	5
102	103	3
77	78	1
75	75	6
96	98	3
22	22	7
57	57	10
130	130	5
115	115	6
103	104	5
107	107	3
83	84	1
91	91	4
26	26	14
16	19	2
81	81	3
24	27	4
95	95	3
120	122	1
128	129	4
8	80	1
116	132	6
19	19	3
66	69	1
29	30	4
4	4	5
104	105	2
33	33	3
100	101	3
14	15	5
41	42	1
15	15	10
12	12	7
62	62	6
86	86	2
2	2	6
104	104	3
121	121	1
58	59	2
45	46	1
51	52	2
49	50	5
59	99	1
6	6	11
58	58	2
69	75	2
64	77	1
116	117	2
102	112	1
51	51	2
32	32	4
65	131	2
92	92	3
27	28	1
57	77	2
130	131	2
64	65	2
110	110	5
71	72	2
65	117	1
47	61	1
80	80	4
55	56	2
87	87	3
84	98	1
119	120	2
61	70	3
56	93	2
58	60	1
21	22	4
132	133	3
48	48	9
84	84	10
123	125	3
97	98	1
51	106	2
57	131	1
4	23	2
108	108	5
67	67	2
116	118	1
5	5	5
94	120	2
66	110	1
73	109	1
44	44	2
89	118	1
29	31	1
40	41	1
68	71	1
65	65	3
3	3	3
70	70	3
78	80	1
43	70	1
92	93	1
66	66	1
73	73	5
85	86	1
127	127	1
41	41	4
39	80	1
54	92	1
114	125	1
43	66	1
90	97	1
115	116	2
67	68	2
5	9	1
86	88	1
10	10	3
75	76	1
57	106	1
51	53	3
106	107	6
19	20	1
67	69	2
22	23	2
55	101	1
126	130	4
44	45	1
79	96	2
67	72	2
64	69	1
31	32	1
82	94	1
17	55	1
53	105	2
98	98	1
8	10	1
29	68	1
60	62	1
32	33	3
10	11	1
99	103	1
28	28	2
4	30	1
9	39	1
70	71	1
39	39	2
69	70	1
96	96	1
5	15	1
11	14	1
25	26	1
13	15	1
