87	87	3
136	136	5
27	98	2
87	128	5
25	26	5
17	18	4
11	44	2
126	126	2
2	8	4
100	100	5
51	51	5
120	120	5
71	71	4
23	96	2
116	116	3
79	79	2
21	21	2
123	124	5
140	140	6
154	157	2
75	75	4
50	50	1
50	51	3
3	54	2
82	105	4
30	31	1
9	9	1
105	105	6
2	2	2
144	149	3
152	152	7
14	14	2
116	118	1
142	142	10
42	42	8
143	145	2
31	31	7
130	153	2
106	107	4
25	25	3
123	123	2
55	57	4
114	114	4
141	141	1
128	128	3
36	36	6
130	130	2
121	145	1
113	113	2
13	13	5
112	113	8
100	101	9
46	47	2
139	139	4
77	77	14
17	17	2
148	148	2
122	124	2
65	78	2
12	13	6
39	39	2
30	30	3
28	28	1
8	9	2
91	101	1
71	113	3
144	145	1
15	17	1
36	46	3
45	46	2
150	150	6
50	52	1
9	11	1
84	101	4
48	48	4
132	133	2
86	121	4
134	156	2
70	70	5
40	42	4
80	80	1
57	147	1
131	131	3
112	112	1
105	107	1
104	108	2
70	111	2
145	145	5
33	33	2
11	11	2
109	110	1
73	73	3
47	47	2
12	12	1
90	90	1
127	145	2
123	153	4
111	111	3
132	157	1
127	127	2
153	153	2
95	95	2
120	129	2
40	41	1
98	99	2
23	23	3
41	41	3
126	136	2
64	64	4
109	109	1
34	35	1
38	38	4
137	138	1
69	69	3
46	46	3
108	108	2
2	42	1
16	17	1
67	68	1
133	133	1
82	82	8
8	8	3
118	119	1
40	47	1
89	89	6
93	93	1
62	64	3
121	123	3
78	78	2
4	4	3
15	16	3
99	100	1
9	35	2
119	119	2
34	62	1
24	24	2
95	96	1
16	22	3
50	53	3
98	98	1
88	121	1
66	67	1
6	6	3
108	109	1
70	71	2
44	44	2
118	118	1
17	94	1
8	12	2
122	145	1
37	37	2
134	134	2
10	56	1
22	22	1
3	4	3
96	96	1
115	115	1
40	40	3
35	35	1
79	80	1
87	123	1
52	52	1
10	10	1
97	97	1
68	68	1
15	15	2
11	99	1
10	62	1
124	153	1
117	117	1
94	95	1
1	1	1
5	6	2
157	157	1
3	3	2
15	25	2
48	120	2
67	67	1
151	151	1
13	35	1
121	122	1
27	29	1
134	135	1
85	92	1
25	34	1
149	149	1
20	20	1
86	87	1
