54	54	4
55	56	6
105	105	7
29	99	2
96	99	2
84	84	6
123	139	3
128	128	12
98	99	1
25	25	4
83	83	4
61	61	5
3	23	4
115	116	2
14	14	6
53	53	3
117	117	4
40	40	8
72	72	4
135	136	3
100	100	2
26	37	5
130	130	6
1	2	6
10	20	3
109	109	5
60	60	1
1	4	1
27	97	2
101	101	9
41	41	5
73	134	4
94	94	7
13	13	3
111	112	1
102	102	8
50	50	3
24	34	1
31	31	4
0	0	7
68	69	7
131	131	5
97	109	1
59	60	2
4	4	3
84	85	3
90	90	1
18	18	4
62	67	1
104	105	1
59	59	2
99	99	6
49	50	4
113	113	6
136	136	4
22	22	9
21	21	1
116	116	6
14	18	9
42	110	3
30	30	7
74	75	5
140	140	8
110	110	5
88	90	2
23	24	3
24	24	7
93	93	7
97	97	6
37	38	2
116	117	2
80	80	3
98	98	3
119	119	7
114	116	1
129	129	2
73	73	3
115	115	6
28	28	2
120	121	6
124	130	2
56	106	1
38	38	8
21	26	2
144	144	2
17	17	6
9	29	3
79	80	4
73	138	2
53	54	4
96	106	1
23	27	2
145	145	3
47	47	2
107	108	2
1	20	3
63	63	6
103	103	1
64	89	2
127	128	3
67	67	4
8	31	3
37	48	2
22	23	2
62	80	1
88	127	3
92	92	2
112	113	4
20	20	3
75	75	1
133	133	3
91	91	10
32	32	7
2	2	5
133	135	3
86	86	2
11	32	3
5	107	1
81	82	2
65	65	5
115	118	4
1	14	1
125	133	1
120	131	3
137	137	3
5	6	2
8	29	3
62	62	4
51	64	1
54	92	1
70	70	3
89	89	2
105	109	2
61	91	2
112	112	3
52	52	5
121	121	3
117	131	3
55	57	1
139	139	2
54	98	1
67	68	2
100	101	1
108	109	1
49	54	1
22	26	1
0	37	1
114	114	4
62	63	3
124	124	4
84	126	1
57	57	3
6	6	6
8	9	1
132	132	3
1	37	3
90	117	1
1	1	1
56	57	1
122	123	2
49	49	3
96	100	4
39	40	4
68	68	2
134	135	2
61	62	5
85	85	2
126	126	4
16	16	4
134	134	3
50	52	2
126	127	1
19	19	3
104	104	2
51	111	1
132	136	2
37	37	2
96	128	2
61	80	3
128	134	1
27	27	1
87	88	2
107	107	5
4	38	2
93	95	1
3	4	1
40	41	4
118	118	2
100	127	4
42	42	3
83	85	1
71	71	2
29	30	1
25	26	1
25	28	1
87	87	2
77	78	2
133	134	1
142	142	2
43	43	1
31	32	3
109	133	1
41	84	3
79	79	3
58	58	4
110	122	1
29	33	2
54	55	1
97	107	2
42	83	1
33	35	1
9	10	3
108	108	4
41	123	1
90	91	1
113	114	3
15	15	1
69	70	1
76	76	1
141	142	2
89	91	1
9	32	2
83	87	1
125	125	1
96	96	1
122	122	2
21	25	1
23	43	1
81	124	1
136	137	1
77	77	1
143	143	1
100	108	3
30	131	1
49	52	1
88	88	3
48	84	1
131	132	2
1	12	1
61	88	1
95	96	3
21	22	1
127	127	1
52	110	1
106	106	1
87	121	1
15	17	2
106	129	2
23	37	3
69	69	1
5	5	1
72	73	1
3	3	1
71	72	1
33	33	1
123	123	1
32	35	1
141	141	1
130	132	1
139	140	1
55	107	1
91	92	1
53	55	2
89	90	1
11	12	1
9	20	1
