43	43	23
12	12	7
143	165	1
91	105	1
94	94	13
86	86	18
110	111	6
23	24	9
85	85	7
10	130	4
3	3	5
7	7	7
47	47	9
14	14	10
42	43	8
128	149	3
20	21	7
20	20	8
144	144	5
124	124	3
11	11	11
27	27	7
9	9	3
57	57	10
23	46	1
96	96	5
49	49	12
38	153	3
152	153	8
141	145	1
153	153	6
137	137	17
136	137	4
76	76	3
36	36	19
72	72	4
148	148	9
119	119	6
8	8	16
106	157	1
110	110	17
51	51	9
153	154	7
157	157	12
129	131	5
34	35	7
70	114	1
38	38	17
78	78	6
139	139	7
4	4	18
90	113	6
24	24	7
135	135	15
108	108	13
99	99	11
125	126	3
40	40	15
37	37	29
142	148	3
101	101	11
123	146	1
44	44	7
154	159	1
150	150	12
139	140	2
128	128	12
7	23	3
133	133	5
121	122	8
3	21	2
164	164	6
115	115	13
69	69	7
99	102	4
163	163	4
143	143	8
76	137	1
42	52	3
128	129	4
146	147	1
125	125	12
89	110	3
3	9	1
7	20	6
151	153	1
152	159	1
94	96	2
49	50	3
78	79	5
119	126	4
114	114	6
20	44	3
9	10	1
115	116	6
105	106	6
86	87	2
56	56	4
166	166	7
13	13	19
159	162	4
126	126	11
113	113	16
19	19	6
8	10	1
39	156	5
72	73	6
162	163	5
100	100	4
2	2	15
20	35	1
38	64	1
161	167	3
123	159	4
155	155	11
4	6	1
121	123	1
66	70	1
156	158	2
84	84	10
76	153	3
132	132	7
156	157	2
41	43	1
35	35	10
80	80	5
27	45	1
98	98	8
124	126	2
91	93	1
140	141	4
113	167	2
15	16	1
99	106	3
64	64	1
47	48	6
93	93	14
75	75	6
111	111	7
44	58	1
82	83	2
70	71	6
62	64	1
33	33	6
34	34	8
83	83	13
63	78	2
50	54	1
16	41	2
12	13	3
34	36	2
98	100	3
39	39	2
19	20	5
16	16	3
12	21	2
158	158	16
66	66	7
148	150	1
17	18	2
8	9	5
133	134	3
106	106	8
151	151	11
21	24	1
126	135	3
103	103	22
91	91	6
130	130	6
116	116	11
146	146	8
149	149	7
105	105	8
71	71	3
115	156	1
167	167	4
115	117	2
47	52	3
102	102	10
104	104	3
90	91	3
97	98	5
54	54	7
166	169	2
42	42	11
68	82	2
120	121	7
93	98	3
5	5	4
101	110	1
18	18	11
53	53	5
161	161	7
96	112	1
6	6	9
40	85	4
76	77	1
4	10	1
132	133	3
142	142	1
39	40	3
121	121	3
81	81	1
82	82	9
90	97	5
74	75	7
141	141	1
10	10	7
90	90	16
81	82	1
122	122	2
38	66	1
68	69	2
1	12	5
155	157	2
156	156	5
77	77	5
117	118	4
159	168	1
62	63	4
1	1	8
17	17	21
143	145	2
88	88	10
52	52	13
158	161	1
130	146	2
1	7	3
68	68	3
118	118	4
128	135	2
67	77	2
159	160	3
152	164	2
93	95	2
159	159	2
56	57	8
134	138	4
150	152	2
119	120	3
12	18	3
26	53	4
36	37	2
87	88	1
103	106	3
122	127	1
3	128	4
73	88	2
65	78	1
46	48	3
123	127	1
101	102	2
135	138	2
109	109	3
124	128	2
6	17	3
77	80	3
97	106	3
160	160	10
138	140	2
107	107	2
97	99	4
23	23	2
135	136	2
5	6	3
147	147	5
99	119	3
22	22	4
18	19	2
144	145	2
106	107	3
5	21	1
97	97	3
140	140	2
161	168	1
65	65	1
57	77	1
106	109	2
50	50	4
44	45	1
123	123	5
98	104	2
130	160	1
127	150	1
144	151	2
142	144	4
45	45	7
16	17	1
162	162	8
135	140	4
125	149	1
23	28	1
83	84	2
127	129	2
38	44	1
129	130	2
24	25	1
55	55	1
99	100	3
1	9	2
69	72	1
136	136	4
148	149	2
48	48	6
0	0	3
94	95	2
92	92	3
135	137	1
21	21	3
26	26	3
131	135	2
62	62	3
73	73	1
19	23	3
89	118	1
116	125	2
15	15	4
170	170	1
130	131	2
68	72	5
70	84	5
103	117	2
35	36	2
92	153	1
134	169	3
79	121	2
96	113	3
28	49	1
124	141	1
117	117	3
134	135	1
74	82	2
158	165	3
102	104	2
23	49	2
145	145	3
150	153	4
124	125	5
0	1	1
25	25	1
3	149	1
120	120	1
79	79	8
131	131	5
137	158	1
134	134	5
121	124	2
137	138	3
108	109	2
104	120	2
43	44	2
163	165	2
46	54	2
50	51	3
154	154	4
88	89	6
165	165	1
89	89	6
120	144	1
27	28	1
4	128	2
69	70	3
138	143	1
63	68	2
165	167	1
98	101	2
160	167	2
33	35	1
123	170	2
118	127	3
27	49	1
98	102	1
19	24	1
138	138	3
169	170	2
114	115	2
13	23	3
133	169	1
168	168	5
67	67	5
129	129	3
58	62	1
25	81	2
127	127	3
100	108	1
87	87	5
13	14	3
160	166	4
8	58	1
106	119	2
66	77	3
159	165	2
87	113	1
4	11	1
133	139	2
76	143	1
81	85	3
127	134	2
57	79	1
76	150	2
103	123	1
152	152	1
58	58	1
98	99	1
106	154	1
16	21	1
137	143	1
81	83	1
45	55	1
7	8	1
104	156	1
93	94	1
112	112	2
24	50	1
75	146	1
39	41	1
152	156	1
52	53	1
92	93	2
112	114	1
1	11	2
119	149	2
114	118	1
41	41	3
22	44	2
28	28	2
100	102	2
116	151	1
83	113	1
80	154	1
74	74	1
24	79	2
44	46	2
108	155	1
109	110	1
101	111	2
136	149	1
154	156	2
166	167	1
19	45	2
1	2	2
38	39	2
73	77	1
165	166	1
66	150	1
46	47	2
132	134	2
164	165	2
112	115	1
20	22	1
85	118	1
5	17	1
10	11	1
162	165	3
143	144	1
2	58	1
120	126	1
40	56	1
99	110	1
2	149	1
102	103	1
131	143	1
88	110	1
64	65	1
69	71	1
5	9	1
94	111	1
41	44	1
119	128	1
11	12	1
14	41	1
5	7	1
5	20	1
95	97	1
111	112	1
169	169	1
89	114	1
24	48	1
42	44	1
17	20	1
10	135	1
120	151	1
96	97	1
122	130	1
99	160	1
104	105	1
120	140	1
85	91	1
