239	242	1
81	81	4
5	8	3
57	57	5
67	67	7
127	127	5
37	37	2
62	62	2
160	161	4
239	241	4
220	221	1
5	7	4
50	50	4
171	172	1
121	122	3
159	159	5
17	18	4
168	169	2
111	111	3
211	211	11
146	174	3
24	25	3
9	9	8
134	134	8
120	146	2
100	100	10
163	163	4
26	26	6
65	65	10
171	171	6
58	59	2
129	130	3
38	39	8
193	194	1
59	59	3
38	40	2
150	150	2
200	200	10
182	183	2
104	171	4
235	236	2
184	184	4
103	104	2
46	46	11
157	157	7
66	67	3
158	159	4
39	40	3
126	130	3
120	178	2
34	52	1
56	57	2
161	164	3
206	206	3
183	183	1
152	153	3
204	206	4
2	12	2
58	61	3
84	85	5
176	176	4
86	86	4
141	142	3
114	134	1
82	85	1
120	122	1
179	179	12
89	89	1
74	74	4
142	162	1
46	233	5
191	233	2
125	127	1
13	13	2
202	202	3
1	36	1
44	44	6
116	117	8
55	61	5
28	28	5
42	42	11
48	48	2
199	199	3
130	130	3
99	99	3
34	34	2
70	72	2
193	196	2
236	240	2
6	6	3
127	128	5
213	213	4
137	137	7
135	139	2
229	229	3
7	7	2
125	125	3
219	220	1
149	150	2
194	195	3
30	30	8
105	108	2
173	174	3
54	55	5
167	167	9
9	10	2
84	86	2
212	212	3
79	81	2
115	115	4
197	209	2
46	85	1
55	55	14
37	38	4
88	88	10
44	47	1
47	47	4
50	57	3
186	186	7
138	138	2
14	16	3
26	101	3
177	177	1
218	218	4
21	22	4
184	185	5
230	230	2
106	106	2
15	20	5
3	28	1
63	63	9
77	78	7
23	23	4
237	237	2
0	9	2
27	27	5
232	232	8
113	113	1
172	172	5
33	33	2
10	69	1
139	139	4
53	53	3
83	83	2
180	197	4
47	174	1
116	220	5
72	72	5
222	222	9
28	29	4
217	217	9
193	198	5
75	78	2
145	145	2
18	18	4
84	84	7
102	102	2
161	161	3
71	73	7
67	69	2
62	63	3
160	160	10
105	105	8
29	29	5
235	235	4
55	57	2
169	170	2
103	103	6
43	43	7
147	148	3
210	225	4
236	236	7
239	239	3
70	70	9
183	187	5
190	209	4
11	11	3
211	224	4
182	190	6
99	100	3
170	225	2
135	135	1
141	157	3
136	144	2
17	17	3
107	107	6
36	36	3
237	238	1
110	110	2
141	141	4
3	32	2
12	22	2
156	156	1
34	35	7
151	151	6
117	117	2
219	219	2
19	19	3
112	114	5
150	151	5
10	10	9
107	126	3
25	25	1
190	190	1
226	226	2
157	158	1
173	173	6
116	116	3
52	52	7
205	205	2
12	13	3
77	77	6
101	160	2
165	165	1
16	16	7
61	61	3
122	122	2
197	197	3
142	142	3
163	199	4
39	150	2
187	187	2
40	41	1
20	20	5
134	135	1
140	140	8
58	58	2
47	48	1
239	240	2
47	233	2
71	71	4
113	114	2
109	110	2
22	23	2
224	224	2
208	229	1
114	222	2
177	238	2
152	204	1
92	118	2
143	145	2
164	165	1
191	191	1
103	105	1
170	176	1
66	66	2
40	40	4
2	2	2
211	231	2
114	114	2
74	75	2
203	203	2
27	28	2
193	193	2
234	234	5
26	28	3
57	58	1
11	49	2
153	153	4
181	228	1
63	64	1
54	76	2
241	241	3
41	41	5
102	130	4
39	39	2
16	17	3
182	182	4
241	242	3
37	203	8
175	177	2
112	112	1
105	126	2
192	197	1
101	102	2
192	192	3
200	231	2
185	185	1
14	39	2
155	164	5
204	204	4
32	55	1
181	191	1
223	224	5
121	121	2
2	22	2
64	64	1
24	96	3
242	242	3
154	162	1
235	237	4
195	195	2
135	136	2
86	87	2
71	74	1
9	60	4
159	160	5
108	129	2
131	131	1
123	125	1
228	228	2
179	180	3
175	241	5
209	234	1
50	54	1
218	219	1
123	123	2
126	126	1
10	55	4
158	158	2
20	43	1
98	98	2
215	216	2
154	154	2
189	189	1
220	220	1
124	125	1
68	68	1
164	164	3
19	21	1
158	161	1
181	181	3
140	142	5
143	151	2
111	112	2
206	228	2
147	147	1
21	21	2
22	22	1
226	228	1
75	75	3
185	186	1
136	136	4
79	79	2
127	129	1
45	45	1
81	82	1
193	195	2
13	77	1
152	152	3
222	224	1
26	98	3
67	79	1
37	41	2
153	154	1
227	227	1
120	121	2
238	238	8
195	223	1
168	168	2
138	139	4
0	3	1
85	86	2
72	74	3
142	143	1
25	99	3
0	2	1
192	193	3
12	14	1
182	192	2
240	240	7
201	201	1
78	78	2
221	221	4
126	129	3
155	155	1
47	208	2
125	126	2
226	227	2
95	95	1
4	5	2
145	146	1
146	146	1
80	81	3
155	156	1
122	123	2
59	60	1
119	130	1
51	51	1
107	124	1
19	20	1
148	148	1
170	170	2
82	82	1
69	69	2
182	196	1
189	190	2
231	231	1
97	97	2
114	167	1
211	212	1
144	145	2
201	202	1
207	207	2
80	80	1
118	127	1
4	7	1
187	188	1
212	230	1
207	231	1
198	198	2
149	149	1
177	232	1
108	110	1
56	56	2
43	44	1
210	210	2
79	84	1
129	129	1
35	35	2
43	45	1
224	226	1
166	167	1
174	174	1
208	209	1
73	122	1
166	224	1
2	5	1
8	30	1
53	80	1
127	200	1
23	24	3
60	63	1
102	129	1
37	40	1
144	144	2
108	126	1
213	230	1
60	60	1
98	99	1
133	133	2
8	8	2
31	31	1
49	49	1
105	136	1
17	191	1
11	32	1
73	73	1
69	72	1
145	147	1
68	69	1
123	126	1
54	84	1
18	19	1
85	85	1
225	230	1
135	138	1
176	179	1
8	9	1
11	12	1
49	50	1
120	136	2
105	135	1
128	130	1
49	178	1
