135	135	18
44	44	25
101	129	4
36	37	10
143	143	6
128	128	21
153	154	12
24	24	23
115	115	20
21	21	9
102	102	12
53	54	7
5	6	9
36	36	44
35	38	5
153	153	26
43	43	11
142	142	15
169	170	4
130	130	10
114	114	26
94	94	15
105	105	12
126	127	12
124	125	21
111	113	3
124	124	38
26	27	9
66	67	5
45	102	5
83	84	6
12	12	20
134	134	20
11	11	14
145	145	25
109	109	16
86	87	7
132	133	8
9	9	16
38	39	6
137	137	20
1	1	25
67	67	10
92	166	3
160	160	13
33	33	5
159	159	31
65	66	9
3	3	23
88	167	3
68	69	11
116	116	12
23	23	19
121	121	15
170	170	16
110	111	7
162	163	5
130	131	4
151	151	14
65	65	17
26	26	15
72	72	33
48	48	15
75	76	8
83	83	18
115	116	5
12	13	6
16	16	8
41	42	8
150	150	24
135	136	13
56	56	9
157	157	22
112	112	11
104	104	32
100	103	8
151	152	5
117	118	3
148	148	9
161	162	4
136	136	15
85	85	23
73	74	11
13	13	14
164	165	11
77	77	14
117	147	5
75	77	9
22	22	14
40	40	20
5	123	3
127	127	11
99	99	9
92	149	3
125	125	10
39	40	11
67	68	11
63	63	21
87	87	29
122	122	14
94	162	3
91	91	15
108	108	29
117	117	25
138	139	7
78	78	7
162	164	4
166	166	4
160	161	2
76	77	1
8	8	22
108	161	4
67	83	2
15	15	16
77	78	8
34	34	14
165	165	20
81	81	15
156	156	18
66	66	28
128	151	2
39	41	2
169	169	20
53	53	19
0	0	13
79	79	22
107	107	16
41	41	17
54	56	4
89	94	3
111	111	18
48	49	7
101	101	12
110	130	9
162	162	16
133	134	11
12	136	4
52	52	20
119	119	14
62	62	20
6	6	17
71	155	3
38	38	19
43	44	3
49	50	11
86	92	2
73	80	12
161	161	14
100	101	3
110	112	5
149	149	16
113	113	17
7	7	10
50	50	25
167	167	13
35	35	15
146	146	16
24	25	6
51	52	2
97	97	12
14	44	2
76	76	18
136	137	12
13	57	4
129	132	6
155	155	38
87	169	1
118	118	13
133	133	13
118	127	5
139	139	14
163	163	15
123	123	12
65	70	4
98	98	30
3	4	12
51	51	12
2	2	16
18	18	23
55	55	10
5	5	8
118	147	6
66	72	3
2	47	1
139	141	4
49	49	30
25	26	2
14	15	5
4	46	5
102	103	8
17	17	13
88	93	3
134	135	6
0	1	6
37	37	13
54	55	8
138	138	12
78	79	11
89	89	14
106	106	8
6	7	2
47	47	18
86	88	10
2	3	5
21	22	5
80	80	5
35	40	1
42	42	13
70	70	33
57	57	11
39	39	16
92	92	4
90	91	3
132	134	2
27	27	14
131	131	16
168	168	4
4	5	6
147	147	9
119	120	7
92	93	4
113	114	8
156	158	9
132	132	12
17	18	6
66	68	7
71	71	26
164	164	10
158	158	14
66	71	3
104	105	4
2	18	7
127	128	3
129	152	2
46	46	21
152	152	19
123	124	5
10	10	16
144	144	9
120	120	15
70	124	2
37	38	12
124	126	1
84	84	11
68	68	25
113	116	6
103	103	9
57	62	5
119	122	7
148	149	10
64	64	7
106	150	4
80	81	7
20	20	5
91	99	3
140	140	9
6	8	3
122	123	11
131	132	3
94	160	3
64	78	9
117	148	1
126	126	15
78	85	2
91	93	4
142	143	9
73	73	9
121	122	11
5	11	7
16	18	8
82	82	18
75	75	17
148	150	4
8	9	7
114	115	12
64	95	3
4	69	2
118	148	3
7	40	2
128	137	2
19	20	2
19	19	22
107	108	3
146	147	3
134	163	1
154	154	11
54	125	1
120	121	5
96	96	6
6	40	1
4	4	8
69	69	14
135	166	2
74	74	17
44	45	8
5	48	4
47	48	2
150	152	6
118	125	1
144	145	11
11	12	7
126	129	2
25	25	9
142	144	1
95	95	5
96	97	2
100	131	4
102	156	1
62	63	3
140	143	2
82	84	3
47	102	3
130	157	3
91	149	3
28	28	13
117	124	4
5	41	4
25	27	1
68	110	3
98	99	10
97	98	3
58	58	9
159	160	6
86	86	14
90	90	13
129	129	8
88	88	13
14	14	10
107	109	2
165	166	6
16	17	9
37	42	2
137	138	5
98	161	2
95	97	1
65	69	6
68	70	1
46	49	3
21	97	1
35	37	4
145	146	2
34	41	2
118	146	1
109	119	2
6	38	2
20	57	2
104	107	2
73	75	3
154	155	4
84	93	2
63	85	6
110	146	4
91	132	2
87	168	1
15	45	4
153	157	1
33	34	1
13	16	2
84	85	5
56	103	1
8	10	2
128	134	1
9	10	7
13	14	6
128	152	1
64	66	3
99	100	6
89	168	2
143	146	1
81	82	3
71	123	9
111	112	3
54	54	6
101	102	3
10	11	4
141	143	2
149	167	1
25	99	1
56	68	1
62	127	2
24	93	3
45	45	14
7	8	2
67	88	3
158	159	2
92	96	5
100	100	11
109	110	3
103	104	2
1	3	4
168	169	6
104	146	2
56	69	3
79	80	6
163	165	2
135	137	2
108	168	2
55	56	4
23	134	2
93	93	6
143	144	4
162	166	1
149	150	3
79	85	1
91	161	1
139	140	5
110	110	21
35	36	3
50	51	7
101	131	3
165	168	1
90	92	1
72	111	1
51	105	1
22	164	1
66	70	1
63	77	3
18	19	1
141	141	8
74	77	4
108	109	5
20	21	3
57	66	1
144	146	2
68	116	1
1	17	2
73	81	2
54	101	1
112	114	2
46	47	10
101	104	6
1	2	7
87	88	3
136	139	3
95	96	2
74	76	1
140	141	1
10	38	3
112	113	4
0	2	2
159	169	2
65	67	7
38	40	1
51	54	4
147	159	2
37	41	2
66	116	1
76	83	1
160	168	2
42	43	2
134	166	2
128	130	3
21	24	1
167	168	5
87	98	2
71	106	2
56	107	1
109	168	4
147	148	4
11	39	1
56	57	2
93	162	3
92	133	3
166	167	2
64	97	1
74	75	1
20	22	3
127	137	1
105	106	2
20	23	3
21	25	7
38	42	1
57	136	5
125	143	4
125	151	1
61	127	2
99	166	2
35	41	3
47	53	2
33	37	6
100	104	4
98	162	1
86	97	1
109	160	3
120	137	2
68	158	1
63	64	1
51	102	3
76	78	3
90	100	2
13	134	2
157	158	2
61	62	1
116	126	1
51	53	2
160	169	2
54	102	2
74	83	2
105	149	1
21	26	3
116	117	1
104	147	1
104	148	2
69	105	1
15	16	3
50	125	3
67	85	1
154	156	2
129	159	1
36	40	1
121	143	3
77	87	2
13	92	3
47	49	3
4	12	1
22	132	2
64	77	2
15	168	2
128	135	4
52	157	3
9	38	1
93	94	1
67	71	3
119	121	3
131	145	1
121	123	1
22	163	3
106	107	4
155	156	3
58	63	2
64	83	2
78	153	1
99	101	2
70	123	2
129	158	1
91	97	1
109	150	1
3	46	2
92	167	3
22	23	2
97	132	1
73	78	1
92	95	1
23	27	1
15	43	1
74	81	1
84	157	1
37	39	1
20	56	2
151	156	1
72	73	2
125	126	2
88	89	2
92	168	1
65	79	3
57	58	1
132	156	1
67	72	2
8	12	1
150	151	1
161	163	2
77	82	1
90	98	1
64	88	1
88	96	1
81	83	1
27	28	3
161	166	1
128	129	1
64	89	1
126	140	1
1	24	1
52	53	2
87	97	2
121	142	1
23	24	1
67	116	1
97	99	1
132	135	1
84	86	1
12	45	1
116	127	1
66	112	1
83	96	1
4	123	1
154	157	2
69	70	2
70	105	1
118	119	1
78	81	1
133	164	1
19	47	1
53	140	1
163	164	2
99	162	1
90	149	1
55	133	1
129	134	1
94	95	2
141	142	1
68	71	1
14	43	1
53	56	1
27	94	1
104	118	1
63	78	1
