94	95	4
69	70	5
97	97	16
66	105	1
70	70	19
141	141	12
155	155	15
90	90	20
13	13	18
42	42	15
133	133	37
128	128	19
111	112	6
149	149	16
38	40	4
101	101	22
110	110	21
143	143	12
54	54	7
152	152	8
138	138	19
10	10	17
161	166	1
98	98	4
132	133	7
164	165	4
45	45	10
91	92	1
99	99	12
158	158	19
27	27	10
134	134	23
21	21	11
154	156	3
151	157	7
15	15	7
126	126	14
111	111	16
36	36	18
136	138	4
80	80	13
140	142	2
40	40	10
108	109	8
62	63	9
48	48	6
160	160	12
82	82	4
154	154	7
119	119	23
24	24	12
83	86	1
96	97	12
53	54	4
147	147	9
150	150	9
1	2	14
10	14	2
114	114	27
163	166	2
149	150	3
13	50	3
38	38	20
11	53	4
157	157	11
163	163	8
35	35	7
55	56	5
110	111	3
56	71	1
20	20	12
10	52	6
57	57	9
74	74	6
39	50	1
45	69	4
10	22	2
2	2	13
84	84	8
106	107	2
69	69	8
168	168	4
152	159	2
11	11	11
8	9	11
153	153	7
109	109	7
76	136	1
18	104	6
125	125	14
170	170	9
58	124	2
15	160	2
5	5	25
20	50	5
161	161	13
21	22	6
25	25	11
112	113	7
1	1	7
131	131	11
70	105	1
14	14	14
132	132	11
84	91	5
104	104	8
142	143	2
62	62	7
147	148	7
79	136	2
169	170	10
102	103	8
80	158	1
7	7	18
120	120	8
87	89	2
109	110	10
140	141	11
100	100	8
72	72	10
146	146	9
112	112	15
44	44	8
50	50	1
93	93	12
144	146	2
76	76	21
144	144	11
74	80	6
105	105	11
148	166	2
139	139	6
70	103	1
159	159	10
67	67	13
56	56	18
137	138	2
74	76	1
126	127	6
51	52	11
74	81	1
74	144	3
103	103	10
3	125	2
136	137	7
127	129	3
15	16	9
98	130	3
57	125	1
106	106	16
94	94	9
14	15	4
156	156	21
89	89	12
4	4	17
136	136	5
100	123	5
64	64	11
46	46	16
155	156	4
118	118	12
106	168	2
92	92	17
13	14	5
108	108	20
145	145	12
78	78	5
130	130	9
77	78	7
52	52	17
164	164	12
157	158	2
19	19	10
79	79	6
137	137	21
100	101	6
17	17	19
135	135	5
73	74	2
142	142	13
39	47	2
20	117	5
22	22	13
66	127	3
34	34	10
43	43	26
6	6	18
89	90	3
86	135	1
80	136	3
18	19	5
148	149	12
113	113	9
166	166	7
47	47	13
99	123	5
85	91	1
167	167	12
48	51	2
87	87	12
139	140	12
122	126	3
158	159	13
51	51	8
66	128	1
138	139	1
76	83	2
159	160	3
8	8	11
20	104	3
75	75	10
98	99	5
18	117	7
88	89	7
1	7	1
150	151	14
131	136	1
12	52	2
18	24	1
148	148	10
118	119	1
102	102	19
50	51	9
51	55	1
23	23	13
165	165	5
71	71	27
19	57	1
129	129	9
9	9	11
2	25	8
91	91	10
162	162	3
132	166	2
117	117	12
86	86	9
117	118	7
22	23	7
107	107	21
74	139	2
76	81	2
52	53	4
140	144	2
37	37	11
109	111	3
81	81	2
79	81	2
101	108	1
18	18	17
12	19	2
3	3	20
124	124	9
133	134	4
65	99	6
33	33	10
83	83	10
169	169	5
84	85	2
83	88	1
20	21	6
73	142	6
77	136	5
35	36	4
49	49	2
94	106	2
116	116	9
80	144	4
118	138	1
24	25	3
133	152	5
167	168	5
66	67	5
116	117	3
151	153	1
47	49	2
18	65	3
10	11	3
54	55	1
18	20	5
39	86	3
143	144	4
10	26	2
1	8	1
125	126	2
42	43	5
121	121	7
53	53	26
151	151	5
57	58	1
114	115	2
12	50	8
55	55	8
117	144	1
65	65	3
74	75	4
23	24	3
140	140	13
133	135	3
0	53	3
77	146	3
9	102	2
38	39	3
44	45	3
41	42	4
39	49	1
9	20	2
159	162	4
75	76	1
11	12	5
62	65	1
75	81	3
72	85	1
68	69	2
95	95	4
144	145	3
51	62	6
105	107	4
3	7	2
134	136	6
47	48	1
58	63	1
143	145	4
0	1	3
63	64	5
121	123	4
21	104	1
96	96	4
65	67	2
65	98	2
117	143	1
88	88	8
4	5	2
137	139	2
21	24	2
107	108	4
68	145	2
6	64	2
87	147	1
67	88	1
41	41	5
93	106	1
6	125	1
166	167	5
84	153	1
68	68	5
135	147	4
79	80	6
67	130	3
76	148	2
91	105	3
105	106	2
37	38	1
85	95	2
168	169	1
7	99	2
123	123	5
78	87	1
93	132	1
72	82	3
33	34	4
130	131	4
146	156	3
19	20	2
113	116	2
8	101	3
3	107	1
20	22	1
55	71	1
88	130	2
58	58	2
115	115	2
134	135	4
114	116	2
89	129	1
12	51	4
77	77	2
82	85	2
81	83	1
24	108	2
122	122	4
127	127	8
17	18	1
160	161	3
123	125	3
93	150	1
141	142	3
67	128	3
163	164	6
135	136	4
3	4	2
76	79	2
160	162	1
83	149	2
7	106	1
5	6	1
147	165	1
3	56	3
81	147	1
89	149	1
17	117	2
72	79	1
12	12	6
10	104	2
70	71	1
161	162	1
19	117	1
107	167	1
66	66	2
39	39	6
153	154	3
154	155	2
146	162	2
15	47	1
16	16	1
89	130	1
82	83	2
46	48	2
87	88	3
24	101	2
162	163	2
5	64	3
159	164	3
57	127	2
104	105	3
131	132	1
84	160	2
62	66	1
138	143	1
52	103	2
16	65	1
14	22	2
131	148	1
5	57	1
86	132	2
49	50	1
63	63	3
36	37	2
14	26	1
37	42	1
93	95	3
97	98	1
110	168	1
71	72	2
26	26	7
4	91	5
85	85	1
92	105	4
7	8	3
67	89	2
77	96	1
0	0	1
123	124	1
92	123	1
152	153	1
127	130	2
46	51	2
98	131	2
91	96	3
46	47	1
135	149	4
85	135	1
66	98	1
4	25	2
10	15	1
71	145	1
61	63	1
13	52	1
56	57	4
19	23	2
22	24	1
28	28	3
84	90	4
72	144	1
20	100	1
114	137	2
53	90	1
127	128	1
151	152	1
2	24	1
39	42	1
85	150	1
53	57	1
121	122	2
17	116	2
81	82	1
112	114	2
112	118	1
132	135	2
97	99	1
34	35	1
45	65	1
156	157	1
50	120	1
39	40	1
24	33	1
91	104	1
72	83	3
132	134	1
45	47	1
10	20	1
120	121	1
65	126	1
113	114	1
155	157	1
93	94	1
2	108	1
