109	111	4
1	36	4
72	72	4
122	122	3
61	61	11
117	117	7
100	127	2
29	29	6
99	102	1
48	48	4
85	87	12
74	74	7
87	104	1
14	14	6
71	72	4
89	89	4
80	130	3
42	42	10
102	102	1
83	84	3
132	140	1
10	10	6
133	133	4
59	60	6
129	130	3
23	23	3
84	85	4
135	135	7
93	93	12
105	105	6
97	97	7
48	53	5
106	106	6
66	96	1
60	60	12
27	62	2
38	40	1
125	125	4
13	20	3
84	84	4
132	132	8
71	71	8
120	120	14
25	25	5
114	115	4
91	91	4
109	109	4
107	107	3
18	18	3
69	69	7
108	109	2
8	8	3
2	2	8
6	6	5
38	38	13
21	21	5
97	98	5
106	132	2
90	110	2
87	105	1
91	92	4
129	129	7
53	53	9
22	22	6
89	104	1
5	5	9
113	114	4
124	124	7
67	67	8
118	118	5
59	59	10
52	52	10
3	3	2
20	20	6
30	37	4
95	95	6
9	9	8
63	63	7
12	12	2
34	55	5
18	31	1
40	40	4
100	126	2
119	119	4
96	96	10
11	11	8
4	5	4
138	138	4
82	82	6
34	34	3
91	131	1
80	80	7
57	57	1
81	81	4
76	77	4
91	130	5
70	70	9
110	110	11
115	115	1
92	93	2
103	103	3
68	68	5
107	131	1
116	117	1
9	10	2
24	24	4
65	65	2
54	54	7
142	142	4
52	53	3
15	15	7
66	66	8
140	140	11
145	146	3
13	13	3
23	24	1
8	9	4
63	78	4
60	63	1
141	141	6
71	107	10
66	67	1
88	90	7
30	30	4
20	21	1
119	141	3
106	107	1
126	126	10
131	132	1
50	50	5
116	116	9
78	78	6
5	13	3
35	62	3
99	118	4
23	48	2
118	133	4
66	77	1
77	77	5
73	108	1
4	10	2
93	94	3
94	94	8
43	62	2
67	97	3
37	38	3
134	134	3
99	100	2
104	105	1
114	114	6
79	79	2
10	11	1
90	90	1
26	28	3
100	100	2
28	28	2
112	125	2
58	58	3
123	125	1
128	128	4
131	131	3
27	27	3
41	41	2
16	16	4
39	39	5
49	49	5
76	125	1
76	76	2
110	113	4
115	116	7
106	121	1
83	83	4
110	111	2
136	136	4
101	101	3
32	32	3
29	30	3
136	138	4
19	19	5
16	18	5
42	43	2
122	123	6
101	102	1
74	93	1
132	133	5
21	26	1
36	61	1
2	3	1
144	144	2
86	96	2
73	73	1
89	107	1
28	74	2
64	66	2
96	97	2
22	38	1
67	68	2
97	141	1
99	101	1
26	32	1
53	61	1
118	131	1
62	62	5
24	27	1
92	92	6
81	100	5
133	135	4
137	137	3
56	56	1
92	104	4
121	121	2
140	141	1
139	139	3
87	87	2
98	98	7
88	88	3
37	37	1
128	129	1
76	107	4
139	140	1
98	118	4
69	70	4
121	122	1
87	88	3
20	26	3
49	52	3
53	59	1
109	110	1
75	79	1
26	30	2
106	133	1
28	90	2
58	59	1
113	125	3
64	65	1
130	130	4
33	34	2
47	48	1
106	126	1
17	17	5
104	104	1
125	127	3
5	6	1
50	52	1
89	110	1
108	108	2
63	111	3
3	10	3
120	125	1
59	65	1
47	87	1
3	6	2
146	146	1
85	86	1
0	1	1
31	32	2
33	55	1
20	27	1
68	81	1
65	66	1
134	135	4
55	55	3
113	113	2
56	57	1
102	116	1
0	0	1
64	64	3
4	4	2
13	15	1
52	54	2
14	20	1
80	81	2
124	125	2
127	127	3
31	31	1
47	69	2
46	47	1
24	25	1
89	139	1
71	110	3
26	26	2
143	143	1
99	126	1
1	2	2
51	52	2
75	75	2
69	74	1
77	78	1
117	137	1
14	15	3
47	47	1
50	51	1
68	105	1
30	32	1
130	135	1
6	8	1
80	128	1
123	124	1
92	95	1
90	140	1
60	61	1
128	141	1
131	133	1
141	142	1
78	79	1
18	19	1
49	50	1
