51	51	7
118	118	11
98	115	7
108	109	7
97	97	7
10	10	16
156	163	3
108	108	8
102	103	2
115	116	1
59	59	12
142	143	7
100	100	18
71	71	3
131	131	8
114	114	7
84	85	3
27	27	11
180	180	7
99	111	3
41	41	10
143	143	11
96	96	14
103	107	4
123	124	7
148	149	14
65	65	16
14	14	10
97	143	3
3	3	11
133	133	9
166	167	4
127	128	10
129	129	13
98	114	1
26	26	22
98	99	5
150	150	15
11	12	7
132	132	10
90	90	7
98	100	3
148	148	9
142	142	14
171	171	3
28	28	20
152	153	2
39	40	3
157	158	10
159	159	10
119	119	14
36	75	5
123	123	9
115	115	11
121	121	5
95	173	8
176	176	17
114	144	3
14	36	3
83	83	3
147	147	21
166	166	15
118	119	14
11	11	13
42	59	2
31	32	10
149	149	12
135	135	14
112	112	7
7	7	10
25	25	6
11	13	11
33	43	7
136	137	9
140	140	7
178	178	7
5	5	9
111	113	4
77	77	6
17	17	2
50	50	12
55	55	12
143	160	7
44	44	18
94	94	11
45	45	7
74	74	6
135	136	11
22	22	17
42	42	4
101	120	9
162	162	10
36	36	10
31	31	13
111	125	1
36	60	4
117	117	8
58	58	4
136	169	2
89	90	8
41	62	4
54	54	8
63	66	1
88	88	10
2	2	5
158	158	10
67	105	1
124	124	11
97	173	6
160	168	3
167	167	8
81	81	6
8	11	2
165	165	14
79	79	10
12	13	9
13	13	6
125	125	10
42	43	1
93	121	1
170	176	4
26	27	2
14	38	2
144	144	6
157	157	10
9	13	2
138	138	1
134	134	14
89	89	11
130	131	2
158	160	2
153	160	1
87	87	10
80	80	8
37	39	5
107	108	2
101	101	15
9	12	1
92	120	3
60	60	7
97	144	5
92	92	15
159	160	10
50	51	7
80	81	3
171	172	2
25	27	3
149	150	4
56	56	8
126	126	4
86	87	9
160	160	22
24	25	4
104	106	2
103	103	4
49	49	2
154	159	8
153	154	2
53	53	7
8	8	5
55	57	4
147	152	5
92	93	6
104	105	8
61	61	15
127	130	3
55	56	4
66	102	4
102	106	2
85	86	7
33	33	2
3	6	2
63	63	7
121	122	4
106	106	3
38	38	13
11	14	6
102	102	10
7	9	4
120	120	17
111	111	6
66	66	12
1	1	5
128	128	6
21	22	2
88	90	4
30	30	4
141	141	13
168	168	4
82	82	11
153	153	7
152	152	14
9	10	7
86	86	11
105	105	1
32	32	9
7	8	5
144	145	5
85	85	2
110	111	4
174	174	10
87	89	1
78	79	5
107	107	7
136	141	3
65	68	6
122	122	7
91	91	9
151	151	14
28	42	1
162	167	2
116	117	8
112	139	1
163	163	2
161	161	4
155	155	9
23	23	13
116	116	13
60	61	5
112	126	4
33	45	4
76	76	9
169	169	7
137	137	9
155	156	9
146	146	16
27	29	1
8	13	5
21	21	2
126	127	2
100	101	3
6	6	3
108	110	1
93	93	6
22	43	1
140	175	1
78	78	7
154	158	1
72	73	7
30	64	1
104	104	13
172	172	12
96	97	5
156	156	8
81	82	3
140	179	5
52	53	10
72	72	5
145	148	1
107	131	2
27	28	3
67	103	2
150	151	7
153	169	2
90	91	4
68	68	4
125	126	1
135	141	2
71	72	1
13	14	1
177	177	7
17	19	1
139	139	6
113	113	6
40	40	10
175	175	9
41	42	6
74	75	1
12	53	1
173	173	9
85	88	1
41	58	2
67	67	12
1	4	2
83	84	6
123	125	3
176	177	2
22	24	2
67	68	1
98	143	1
83	86	3
73	74	5
37	37	9
168	171	6
85	87	2
35	35	12
112	113	2
162	163	3
22	32	3
99	116	1
65	67	3
12	12	4
57	57	7
103	105	3
66	67	6
129	130	3
127	127	10
4	15	2
163	167	2
23	24	5
38	39	5
137	178	1
0	1	5
140	176	4
59	83	1
76	78	4
119	120	2
136	170	4
15	15	6
18	19	6
56	82	2
5	17	3
145	145	10
67	101	1
62	63	3
179	179	4
98	98	3
133	149	5
18	18	5
135	171	1
141	142	2
24	44	4
35	36	1
4	17	1
160	169	1
165	166	1
169	170	2
120	121	1
156	157	5
105	106	3
98	117	1
30	31	4
51	52	3
39	39	3
33	44	2
111	117	3
25	26	2
35	71	2
134	135	3
10	12	3
9	9	2
160	161	1
109	124	3
7	17	1
68	102	1
129	131	3
99	115	4
24	24	6
153	159	2
38	54	4
75	75	9
20	20	1
43	43	3
124	125	3
141	146	4
29	29	5
39	58	2
26	29	3
168	169	6
135	154	2
99	101	1
64	65	2
91	116	1
139	178	1
56	58	2
63	68	2
168	170	4
96	98	1
73	73	2
19	19	5
79	81	3
6	11	3
120	122	2
3	4	1
173	174	3
164	167	2
40	49	1
71	75	4
153	168	1
145	146	5
117	118	5
29	42	2
79	80	3
167	168	1
94	115	2
147	148	4
91	93	1
165	167	2
32	34	5
154	169	2
114	145	4
36	37	1
143	161	2
101	102	7
94	95	1
84	84	3
62	62	3
38	49	2
115	117	4
6	13	1
26	44	4
59	84	1
141	143	2
34	34	6
115	118	1
7	11	1
59	62	1
85	89	3
93	94	1
6	22	1
174	175	3
110	110	3
161	162	1
61	83	3
13	37	1
38	53	1
0	0	2
16	17	2
66	122	2
100	120	1
73	75	4
19	20	1
179	180	1
154	156	3
50	54	1
53	54	4
138	139	2
147	151	1
36	56	1
57	58	2
72	76	1
109	110	1
37	38	1
56	83	1
134	149	1
56	57	2
2	4	1
66	68	2
128	148	1
16	16	1
177	179	1
86	88	1
61	62	2
3	21	1
14	15	1
36	59	2
152	160	1
135	170	1
119	122	2
132	133	1
29	30	1
54	55	1
88	89	1
95	95	2
52	52	1
172	175	1
