73	73	10
85	85	14
57	59	2
37	37	5
69	70	7
22	47	5
28	28	6
87	87	13
72	72	15
78	78	13
26	73	2
94	94	5
24	24	1
44	44	3
70	70	9
63	64	5
51	51	3
65	65	10
74	74	21
59	59	7
54	54	5
66	66	23
58	58	6
97	97	4
99	99	11
25	25	2
62	62	12
98	98	7
76	76	4
80	80	9
93	93	7
85	89	6
84	84	13
45	93	2
86	86	6
25	90	4
69	69	13
81	81	14
22	72	3
48	49	5
68	68	20
29	29	7
78	86	3
79	86	2
64	67	1
95	95	4
90	90	8
29	92	2
77	78	7
32	32	2
31	31	6
36	36	14
35	35	4
22	22	9
77	77	22
42	42	9
54	55	9
79	79	5
33	33	12
28	98	3
43	43	5
31	96	1
38	87	3
75	75	16
64	65	3
69	71	7
47	47	2
27	27	5
86	87	9
91	91	13
41	41	9
20	20	3
49	99	3
26	26	2
34	34	6
69	75	3
96	96	6
51	53	2
63	63	5
31	90	4
45	60	1
56	56	7
61	61	16
38	38	5
24	27	3
52	52	4
46	46	7
62	89	1
67	67	12
49	50	4
67	68	8
83	83	7
53	53	6
38	47	2
50	93	1
62	63	4
64	64	10
92	96	1
88	88	11
76	77	3
57	64	2
71	71	10
49	94	1
47	48	3
98	99	1
80	82	1
81	82	3
39	39	2
44	67	1
89	89	8
28	29	2
92	92	2
32	88	2
99	101	1
78	84	3
51	70	5
46	96	2
27	34	1
33	81	2
80	83	3
60	62	5
29	102	4
38	80	1
63	67	3
59	91	3
65	66	4
48	97	1
36	92	1
58	59	1
24	25	2
39	82	6
49	100	3
63	65	2
97	101	1
28	30	1
85	86	3
75	76	2
46	47	1
56	71	1
69	72	2
40	49	3
44	92	1
56	91	1
55	55	5
50	50	5
57	57	2
88	93	4
20	22	3
92	97	1
60	60	6
25	89	1
100	100	3
32	33	4
40	40	2
45	97	1
78	79	3
101	101	2
66	67	2
44	68	3
53	61	1
25	101	1
73	74	2
92	98	3
42	43	1
51	56	1
25	73	1
42	62	1
59	60	2
36	37	1
43	44	1
52	72	1
43	72	1
92	93	1
55	56	1
35	36	1
79	84	1
40	41	1
87	88	1
68	73	1
33	88	1
32	102	1
74	84	2
99	102	1
42	63	1
24	26	1
22	101	1
37	96	1
83	89	1
50	52	1
95	97	1
