100	109	2
70	71	1
158	159	2
169	169	4
4	4	6
58	58	11
173	173	8
190	190	2
187	188	5
139	141	4
31	31	8
63	63	11
159	159	2
143	150	3
88	88	3
113	186	4
40	40	8
26	37	4
30	30	14
11	11	5
150	151	3
71	72	7
62	62	9
16	16	5
148	150	3
88	161	5
117	117	10
104	105	4
140	140	12
155	155	16
57	57	5
150	150	11
93	93	12
41	42	3
151	151	2
117	119	7
154	155	1
84	91	2
148	148	6
110	110	4
5	5	5
179	179	11
174	174	8
140	141	7
161	161	7
68	70	3
59	59	4
79	79	4
143	143	4
171	171	2
138	138	7
113	113	5
48	48	5
63	77	4
149	149	3
77	79	2
59	151	1
142	143	2
72	72	9
32	36	4
30	31	8
14	15	1
120	120	2
18	18	1
98	157	2
185	185	3
34	36	2
59	60	4
129	129	7
19	19	7
45	46	5
115	115	7
174	175	1
122	122	3
23	23	6
156	157	1
119	119	1
81	82	2
55	55	3
184	184	3
162	162	6
114	114	5
10	10	6
133	135	6
8	8	4
131	131	4
78	79	2
29	29	7
109	109	5
133	133	3
67	68	1
181	182	4
23	24	4
168	169	4
90	91	3
170	170	6
16	17	2
164	164	1
57	67	1
138	139	1
15	15	3
71	71	5
161	162	4
94	94	8
114	116	2
102	102	4
152	153	3
107	107	4
34	34	4
54	54	1
1	1	3
26	26	4
176	176	3
22	22	6
160	161	1
65	65	2
171	172	3
12	13	1
84	85	5
132	147	3
89	90	1
36	36	3
13	13	1
142	142	2
27	31	6
38	109	1
124	124	6
113	114	1
86	86	3
188	188	3
10	11	8
152	152	3
143	144	1
182	185	1
44	44	9
181	181	3
118	118	5
100	100	1
72	73	3
101	101	2
46	46	4
87	87	3
182	183	10
53	53	4
99	99	3
37	37	5
178	178	5
185	186	2
103	103	3
135	144	3
163	163	3
78	80	1
3	3	6
22	82	5
74	74	6
42	47	3
105	105	6
111	111	3
112	112	7
180	180	7
4	6	3
9	9	1
134	134	1
57	58	5
153	153	6
32	32	7
15	17	3
148	149	2
77	77	1
94	108	6
42	42	5
104	104	6
186	186	1
116	173	2
42	48	6
15	16	5
182	182	3
97	97	2
1	2	1
23	36	2
93	94	3
56	56	3
12	12	2
45	45	1
160	160	2
6	6	3
135	135	3
78	78	6
35	36	2
105	106	2
91	93	1
186	187	1
135	137	1
167	167	2
125	126	1
124	125	4
102	103	1
136	136	5
131	142	4
176	178	2
106	106	3
11	12	1
175	179	2
127	127	1
102	104	2
131	137	2
3	57	3
68	68	1
83	83	3
155	162	1
147	147	1
74	75	2
137	139	1
59	64	2
136	137	1
32	33	1
28	38	1
75	75	2
177	178	3
175	175	4
149	150	3
87	88	1
47	47	3
168	168	5
47	48	2
23	82	1
169	171	1
17	18	2
24	25	2
69	69	1
137	137	1
141	146	1
25	25	2
38	38	2
151	152	2
140	154	3
76	76	3
172	172	4
7	7	1
145	145	2
120	122	2
39	40	1
108	108	1
26	106	2
173	181	1
96	96	2
98	98	3
26	27	5
12	52	1
127	128	1
26	35	1
27	27	1
187	187	1
121	121	3
111	112	2
20	21	2
24	24	3
177	177	4
80	81	1
57	76	1
33	33	3
90	96	2
183	183	4
93	162	1
149	151	4
70	70	2
58	60	3
58	76	1
189	190	1
0	0	1
10	151	2
49	49	1
139	139	2
73	74	1
86	91	1
39	39	1
140	156	3
85	85	1
90	90	1
165	165	3
117	165	3
121	122	1
14	14	2
146	146	3
64	64	1
59	149	1
61	62	1
113	116	1
157	157	1
133	148	1
167	174	1
162	163	2
91	94	1
82	82	2
5	6	1
143	148	1
43	43	1
17	17	2
112	113	1
92	92	2
112	173	1
140	160	1
84	84	2
178	179	1
180	187	2
28	28	3
97	159	2
117	120	1
119	122	1
128	128	1
184	185	2
55	56	1
121	126	1
126	126	2
6	7	1
168	171	1
94	95	1
156	156	3
115	173	1
189	189	1
128	129	1
2	56	1
180	188	1
2	2	1
69	70	1
123	124	1
107	108	1
