60	60	5
95	95	16
121	121	15
42	43	4
113	128	1
117	117	17
55	55	1
75	75	10
108	109	4
99	100	2
41	41	8
30	30	7
41	42	4
42	42	1
76	76	8
2	70	2
108	108	3
49	49	1
78	78	15
73	73	18
59	59	8
96	97	4
125	126	3
82	82	5
3	22	4
28	28	13
120	120	12
70	70	6
114	114	6
99	99	1
129	129	15
101	107	3
44	44	9
77	77	8
116	116	4
128	128	12
34	34	6
2	2	17
63	64	3
113	124	5
126	126	6
37	37	2
3	3	7
132	133	3
33	34	2
8	8	7
36	60	2
62	62	13
7	12	6
86	86	8
78	79	3
22	25	3
72	73	3
12	12	9
0	1	7
68	68	6
114	123	3
5	5	7
67	67	3
79	79	3
20	55	5
48	48	2
17	17	3
123	123	6
7	7	5
19	19	9
126	130	4
94	95	2
129	130	4
85	100	5
92	92	17
95	96	4
105	105	4
18	18	6
105	121	4
14	15	13
104	104	10
18	19	7
132	132	4
85	85	7
1	69	2
100	123	2
22	22	5
56	56	3
57	57	8
45	45	8
14	48	3
101	101	2
119	119	3
93	94	2
43	44	2
46	46	4
31	32	2
86	96	2
94	94	8
31	36	4
3	23	2
3	4	3
86	106	3
20	20	2
118	118	1
6	6	6
28	57	2
25	25	3
133	133	5
20	26	2
111	112	11
29	57	1
23	23	2
112	128	6
14	14	6
84	84	3
101	103	1
35	35	2
134	134	4
28	31	2
102	102	3
18	30	1
47	47	7
109	109	5
83	83	17
114	115	6
64	64	3
90	90	4
34	35	4
125	125	11
23	24	1
74	125	2
31	31	5
11	11	12
38	38	2
19	55	3
59	60	3
72	72	7
14	47	1
74	74	6
8	9	1
27	58	5
66	66	9
87	87	1
43	45	1
88	89	2
96	101	2
124	125	9
74	75	1
40	40	7
43	43	6
27	29	4
27	56	5
67	71	1
130	131	2
30	87	2
110	110	7
93	93	6
20	45	1
113	114	4
70	71	2
124	124	3
19	21	4
116	123	1
118	119	2
84	85	2
65	73	1
39	39	4
13	14	1
116	117	2
130	130	3
112	112	4
80	80	4
63	63	2
131	131	1
127	127	3
83	121	1
61	61	5
60	61	2
95	123	4
33	33	4
85	86	2
50	50	3
110	123	1
91	95	2
86	88	1
26	26	1
23	25	2
4	4	2
131	132	2
100	101	4
79	80	1
112	115	2
8	47	2
103	103	2
2	69	1
63	65	3
34	57	3
30	57	2
29	29	2
110	112	1
30	31	1
43	58	3
32	32	9
43	70	1
38	70	2
19	20	2
45	70	1
65	65	1
45	46	3
38	43	1
27	27	1
103	120	1
79	88	3
76	92	2
6	9	2
6	48	1
107	120	5
92	93	1
98	98	1
16	16	2
5	49	1
114	124	5
21	21	5
131	133	2
111	111	2
32	87	1
89	90	1
60	71	1
64	66	2
83	85	1
15	48	1
30	80	1
66	86	1
102	103	2
83	122	1
96	96	2
116	125	1
47	48	1
78	82	2
10	10	1
44	45	1
43	60	1
37	43	2
71	71	2
96	98	3
81	81	2
55	56	1
29	30	1
9	9	1
69	71	1
24	24	2
99	101	2
113	113	2
27	40	2
107	107	1
7	8	1
76	77	1
97	97	1
104	107	1
5	48	1
57	58	1
1	2	2
28	42	1
34	90	1
41	58	1
