42	50	1
27	27	16
114	114	7
8	8	4
91	91	3
40	40	11
58	121	3
12	12	16
72	73	3
17	17	11
120	120	19
20	28	1
102	102	11
56	56	20
109	110	6
118	118	13
5	5	14
45	95	2
93	93	14
67	67	5
6	6	8
45	45	7
103	103	13
106	109	5
81	83	2
36	36	8
73	73	7
11	11	3
81	126	2
70	74	2
72	74	2
122	122	15
95	95	19
94	94	9
24	24	20
12	83	2
16	17	5
113	113	20
22	22	26
37	37	15
55	55	5
75	75	7
104	104	8
1	1	6
21	30	3
99	114	1
85	123	4
8	19	5
74	75	6
94	122	2
23	34	2
129	132	7
93	106	3
8	118	4
47	84	8
117	117	13
114	115	1
39	39	13
84	85	1
65	65	16
121	122	1
32	32	6
66	66	13
119	119	17
127	131	5
58	61	3
8	18	1
4	5	3
35	35	11
70	70	8
70	100	5
124	124	13
110	111	7
16	18	2
24	37	2
90	90	10
98	99	3
13	26	2
99	99	8
78	78	21
60	129	2
127	127	5
79	82	1
73	74	9
74	74	21
125	125	14
46	46	5
26	39	2
98	98	12
87	87	5
40	41	5
114	133	1
106	106	5
91	92	2
48	115	1
8	9	3
76	76	14
6	28	1
123	126	4
23	87	6
10	11	5
0	1	1
5	6	3
92	106	2
108	108	4
121	131	1
128	128	5
132	132	10
49	111	1
42	82	2
82	82	5
23	23	16
25	25	7
101	101	18
19	19	19
82	83	5
20	20	12
57	57	16
57	115	4
107	107	4
92	92	14
83	83	12
20	30	1
123	123	12
9	65	1
116	116	13
60	128	3
56	57	13
110	116	2
24	84	2
75	76	8
31	32	4
5	77	2
48	87	1
30	30	17
87	103	3
122	123	2
100	101	6
24	87	1
68	68	5
23	24	5
105	105	6
13	13	9
126	133	1
45	82	2
79	79	3
133	133	6
31	31	12
28	28	5
100	100	13
89	112	4
41	41	10
58	58	11
130	130	14
47	117	2
88	110	4
38	104	2
44	59	1
59	59	8
131	131	7
34	67	2
129	129	17
0	8	3
26	26	9
62	62	16
12	13	5
114	127	1
115	116	3
61	61	6
4	6	2
18	18	12
112	112	9
76	77	3
33	34	1
85	85	6
9	9	11
13	14	2
15	15	8
55	56	3
24	25	2
38	38	5
20	21	5
95	97	4
34	34	11
118	119	5
32	33	4
94	97	1
90	112	2
111	111	16
81	82	8
111	113	4
112	113	7
61	63	2
4	27	1
81	81	11
69	69	12
28	32	3
96	96	6
110	110	14
47	47	12
77	77	10
71	75	1
90	92	4
44	84	2
90	93	1
6	7	2
84	84	12
6	18	2
103	104	4
67	74	1
38	98	1
42	42	5
54	54	2
4	4	10
59	123	3
28	29	8
105	117	3
10	10	7
58	122	2
82	98	2
48	48	4
11	12	6
81	89	1
36	42	2
128	129	2
60	60	10
47	56	4
111	124	1
112	132	1
24	43	3
15	16	10
4	30	2
44	44	2
109	109	12
70	71	5
3	3	6
16	29	2
34	35	3
134	134	10
71	94	8
30	33	1
130	132	6
62	119	5
97	97	7
115	115	8
45	124	2
47	48	2
29	29	13
47	114	3
92	98	1
91	100	2
117	118	2
88	114	1
57	109	6
114	129	5
7	27	1
31	107	1
72	72	9
88	88	8
45	57	4
102	105	1
73	130	4
63	63	5
46	47	6
132	133	1
15	21	2
16	16	7
44	122	1
126	126	3
37	38	2
43	60	1
108	118	3
21	26	1
80	112	2
30	32	2
19	20	5
100	131	1
64	64	7
99	103	2
58	103	2
13	15	2
2	3	4
48	69	1
34	134	1
125	126	5
1	95	2
94	111	1
44	58	3
13	36	1
68	78	1
51	56	3
114	130	1
21	21	7
99	100	5
128	132	1
58	134	3
115	122	1
87	88	2
96	105	1
47	119	2
83	84	3
24	26	2
96	131	2
59	122	4
91	93	3
92	99	1
57	122	1
101	115	2
123	128	1
104	105	3
59	64	3
97	98	2
14	14	7
86	86	9
83	86	2
60	62	1
59	60	2
73	82	1
79	80	5
80	80	1
119	120	3
30	31	2
7	86	4
41	101	1
63	100	1
9	18	1
24	67	1
66	134	2
96	103	1
35	36	3
107	108	2
27	28	1
60	123	1
67	106	4
126	134	1
58	104	1
57	58	5
7	134	1
16	33	1
124	128	1
113	128	1
113	114	4
85	86	3
9	85	1
7	7	8
9	12	2
92	100	1
73	76	2
49	50	3
33	33	1
49	131	2
94	98	3
57	107	3
65	66	1
89	93	2
25	35	1
124	127	3
121	121	3
78	80	2
82	105	3
102	129	1
16	20	6
41	82	3
7	19	2
130	131	7
42	100	2
101	103	1
41	42	3
13	25	2
46	116	2
64	129	1
44	57	2
39	84	1
43	43	1
70	75	1
82	96	2
0	0	5
2	2	2
115	132	2
2	20	2
34	43	3
95	96	5
55	58	2
105	123	1
14	15	3
108	129	2
16	21	3
105	106	3
47	55	4
22	26	1
8	70	4
35	41	1
10	66	1
124	133	1
88	105	1
17	29	1
114	128	1
73	81	2
119	129	2
93	95	1
74	76	2
46	62	1
58	60	1
36	40	1
102	107	2
108	109	1
22	36	2
59	84	1
94	124	1
119	121	1
40	81	2
89	89	1
82	87	1
41	83	3
3	27	2
71	71	3
85	111	1
30	34	1
44	45	1
133	134	1
39	40	2
66	67	1
43	103	2
61	115	1
7	8	1
57	116	1
50	50	2
128	133	2
6	79	1
40	80	1
50	56	1
96	99	2
36	74	2
123	127	1
42	60	1
41	58	1
67	68	1
88	89	1
22	73	1
101	104	1
131	132	2
56	85	1
37	39	2
15	30	1
64	65	1
105	121	1
32	35	1
86	93	1
94	96	1
37	44	1
8	40	2
22	69	1
57	61	1
113	129	1
42	43	1
22	33	1
29	30	1
7	18	1
16	116	1
0	95	1
49	81	1
10	12	1
31	33	1
58	59	2
43	94	1
85	93	1
115	133	1
