88	88	4
4	4	7
56	56	3
70	168	2
156	156	6
70	70	4
156	158	4
40	40	5
46	55	3
17	17	8
63	63	2
145	145	11
124	142	2
83	83	12
116	116	5
1	5	2
7	7	13
166	166	4
104	134	2
98	98	8
40	46	1
134	149	2
109	167	1
123	125	3
151	151	12
17	18	2
120	122	3
112	112	6
82	83	4
121	122	3
146	147	12
92	92	3
20	22	1
80	82	2
4	5	2
105	105	6
24	24	3
138	138	5
74	80	5
36	36	6
143	144	6
4	6	5
107	107	3
133	134	1
39	39	5
144	147	6
130	130	5
162	162	8
147	147	8
125	145	1
149	150	2
105	107	3
63	66	4
78	78	7
108	108	10
108	125	1
163	163	5
86	89	8
140	140	5
14	15	4
152	154	2
129	145	5
40	41	4
111	116	1
102	105	5
76	76	4
70	71	4
155	155	4
146	146	7
15	15	11
74	87	6
143	143	2
150	150	8
90	90	7
134	134	3
57	57	3
39	42	3
150	152	2
5	10	5
116	117	2
155	159	1
64	64	3
18	19	5
24	25	6
69	69	6
8	68	3
89	92	2
99	99	4
3	3	10
136	136	12
0	1	5
75	75	6
53	53	2
20	21	2
157	157	6
1	1	3
139	139	10
68	72	4
15	76	3
51	51	7
106	106	13
117	118	2
161	161	5
131	131	6
114	114	7
38	38	6
25	25	4
164	166	1
141	141	3
13	131	1
10	11	2
111	111	2
54	56	4
137	153	2
142	142	4
41	48	1
94	94	4
124	124	4
167	169	2
23	23	5
143	145	3
74	126	3
109	136	1
148	153	4
0	0	4
117	117	9
153	154	6
73	168	3
86	91	1
77	125	2
86	87	2
63	71	4
71	88	1
72	72	2
125	125	5
91	92	2
120	120	7
144	144	2
5	7	7
112	113	4
49	51	4
64	131	3
6	6	3
5	6	2
64	79	8
110	149	5
50	51	6
126	143	5
129	129	7
52	56	2
16	16	6
132	133	4
113	113	5
155	158	2
71	71	2
54	54	2
62	62	9
67	68	4
1	4	3
85	118	2
159	159	5
81	81	8
127	128	3
107	123	2
42	42	4
108	109	3
164	164	5
148	148	10
104	104	2
45	46	3
79	80	3
110	111	3
126	126	5
163	164	4
152	152	5
119	119	5
145	146	3
121	149	7
7	16	2
144	145	1
10	13	2
45	51	4
91	91	2
18	115	1
94	112	1
74	128	2
118	118	9
154	156	5
112	114	3
142	143	2
105	134	2
169	169	5
37	37	2
65	66	5
90	94	3
72	78	4
57	58	2
85	97	4
91	95	1
43	44	2
79	81	5
131	132	3
110	114	1
18	18	4
74	148	1
140	148	1
122	123	1
160	160	3
167	168	2
135	137	2
22	23	2
16	20	1
34	42	1
157	162	2
149	151	1
48	54	2
101	101	1
97	102	4
105	106	6
147	152	4
80	81	2
50	50	8
16	111	2
52	52	6
47	62	1
5	67	2
130	132	3
79	119	2
10	16	2
82	89	2
38	41	6
118	138	6
127	130	4
20	20	3
68	68	1
35	138	3
8	8	3
137	137	4
110	161	1
86	86	1
21	21	2
85	85	4
106	124	1
134	135	2
4	64	2
55	55	3
149	149	8
77	77	1
130	131	1
109	109	2
86	90	5
135	136	1
72	87	2
14	14	4
84	84	3
106	109	3
1	2	3
2	3	1
78	82	3
33	33	2
95	96	4
6	8	1
3	4	5
116	118	3
10	12	2
53	54	1
87	87	8
78	128	4
8	12	8
101	104	4
99	100	2
44	44	4
62	119	2
39	43	6
23	34	1
140	141	4
158	158	3
64	65	2
105	135	1
97	106	2
165	165	7
69	71	3
66	67	1
13	13	4
111	167	1
119	121	2
84	85	4
0	10	2
7	8	3
35	42	1
23	24	1
47	47	6
103	103	2
11	11	3
80	80	5
64	76	4
96	96	1
10	77	2
17	52	2
131	169	1
19	22	4
161	166	1
158	160	1
133	136	2
69	144	1
126	127	1
12	12	1
81	85	1
62	63	1
76	77	1
91	93	1
87	99	1
120	167	2
46	46	1
56	57	2
43	43	3
167	170	4
0	5	2
87	88	2
148	149	1
9	9	2
149	155	1
135	135	3
88	137	1
2	2	1
63	70	2
20	113	2
113	120	1
80	105	2
70	129	1
153	153	2
93	94	1
170	170	1
13	15	1
107	109	1
75	77	2
10	10	3
12	103	1
133	133	2
3	6	3
100	100	2
15	18	1
101	107	1
23	25	2
103	146	1
12	14	1
116	133	3
78	84	1
13	14	1
154	158	1
111	114	1
128	128	1
106	136	2
39	40	1
42	43	1
107	108	2
66	145	2
168	170	1
81	82	4
119	122	1
67	67	1
150	153	1
12	66	1
13	17	1
74	83	1
82	82	1
16	19	1
22	24	2
132	140	2
141	142	1
66	66	1
162	163	1
93	93	1
4	58	2
122	122	1
166	170	1
26	26	1
10	76	2
16	18	1
134	140	1
104	105	1
79	120	1
129	144	1
7	9	1
48	48	1
156	157	1
38	42	1
128	129	1
68	69	1
72	75	1
100	107	1
88	90	1
119	120	1
87	112	1
85	89	1
118	119	1
97	97	1
47	48	1
155	160	1
73	74	1
