130	130	7
97	97	7
56	56	18
26	26	7
50	50	14
114	114	15
159	159	2
104	104	6
18	83	3
96	96	3
32	32	12
67	67	10
162	162	9
24	24	4
49	113	1
155	155	5
107	113	1
112	112	13
25	25	11
169	173	4
14	14	10
1	5	2
194	194	12
45	47	5
125	126	2
153	154	3
37	37	5
183	183	13
132	132	7
116	116	7
129	164	2
123	123	15
40	40	9
95	95	9
85	85	9
132	169	1
38	38	12
69	69	13
76	76	6
10	10	3
79	80	3
101	101	18
118	118	17
135	137	2
64	64	10
134	134	6
150	172	2
160	160	8
27	27	8
107	107	14
4	22	5
83	84	2
122	123	3
111	111	15
89	90	2
138	140	3
94	159	3
12	12	14
159	160	11
72	72	13
34	35	2
94	94	6
100	100	10
144	145	4
127	127	6
145	145	5
184	184	5
113	114	1
107	114	3
129	187	3
186	187	2
135	135	2
128	128	5
47	71	1
8	56	3
147	147	8
67	79	3
13	43	6
13	13	4
152	152	12
185	185	10
39	39	11
111	112	2
2	2	4
43	43	11
9	9	7
150	189	1
17	17	7
151	151	10
109	110	1
156	157	8
7	7	11
98	98	6
70	71	2
113	115	3
63	63	2
80	80	9
102	166	2
48	69	3
28	28	15
16	29	3
172	172	11
172	173	2
133	134	4
44	54	3
103	181	2
121	193	2
177	178	4
152	153	8
52	52	4
14	63	5
50	72	3
109	157	4
3	3	7
110	110	11
140	140	9
64	142	3
26	34	4
6	6	8
69	70	6
105	105	20
138	138	9
89	134	3
133	133	3
66	66	5
182	182	7
190	191	1
192	192	9
142	174	1
166	166	3
11	12	4
55	55	4
142	142	4
169	170	3
28	39	3
31	39	1
124	185	2
163	163	8
98	101	5
121	121	7
99	99	9
1	1	9
114	159	5
19	47	3
94	160	4
60	60	8
137	137	5
87	87	13
15	18	1
82	83	10
154	154	6
107	165	1
156	156	10
109	147	1
117	188	2
44	44	12
127	185	3
108	109	2
181	181	12
4	9	3
23	23	11
9	12	4
146	179	1
175	175	10
179	179	8
104	116	1
54	177	2
168	168	10
169	171	4
99	103	1
64	65	2
44	45	4
134	135	2
56	61	1
77	77	5
120	161	3
176	177	10
24	25	2
86	86	8
122	125	3
182	183	4
88	136	1
31	31	17
161	161	8
49	49	11
106	106	3
14	19	5
113	113	2
30	31	1
61	61	7
68	68	1
43	61	1
46	47	7
115	172	1
57	58	2
100	164	2
137	138	1
16	16	10
154	189	5
54	54	9
55	178	4
141	142	2
35	37	4
118	189	1
103	103	8
46	46	5
73	73	4
30	81	3
0	0	17
144	144	9
122	122	9
4	4	7
56	179	4
195	195	4
5	5	10
176	176	3
96	97	3
83	83	2
70	70	6
130	185	3
48	65	4
89	89	7
109	111	5
4	5	1
39	42	1
79	79	7
11	11	9
88	88	2
1	2	3
126	126	6
115	115	10
27	35	2
165	165	7
125	125	14
41	41	3
64	173	2
6	7	2
155	171	4
84	84	5
166	171	1
17	61	2
167	171	4
57	64	2
30	57	1
105	106	1
108	111	6
153	195	3
112	156	2
150	187	6
136	137	8
16	62	1
58	58	6
183	192	2
131	148	2
47	47	6
42	43	1
169	169	7
35	35	8
155	170	1
188	189	2
188	188	8
36	36	12
146	148	1
116	121	3
130	133	2
102	103	3
191	191	9
116	117	2
133	168	2
100	133	1
140	170	2
174	174	5
124	126	2
15	46	2
135	136	2
54	55	6
124	124	6
186	186	6
108	108	7
34	34	8
72	73	2
3	5	2
56	117	4
15	15	14
106	114	2
20	22	1
114	185	2
73	74	2
59	60	5
141	141	3
132	135	3
171	171	3
112	113	1
0	3	3
18	33	5
95	96	9
105	167	2
130	163	3
20	20	4
119	119	8
118	119	5
81	81	8
32	40	1
141	143	1
132	133	3
162	164	5
63	64	3
164	164	3
74	74	1
10	12	1
150	150	12
82	82	2
21	34	2
139	140	4
47	48	1
48	48	4
59	59	5
161	167	3
27	37	3
184	186	3
18	81	3
128	129	4
120	120	3
157	161	1
39	79	3
97	98	1
120	191	1
14	24	1
181	182	1
103	118	6
155	156	1
144	179	1
45	45	5
96	187	4
154	156	2
42	42	2
33	33	10
58	59	2
167	167	10
187	187	3
31	79	1
46	70	1
34	88	1
56	57	2
170	170	8
143	181	2
187	189	1
41	42	2
119	170	2
101	139	3
158	158	5
143	144	3
109	109	4
30	30	4
160	190	2
31	32	7
53	53	3
105	114	1
33	34	3
110	111	1
14	15	1
51	71	2
25	26	7
140	155	1
127	189	2
14	69	3
195	196	2
131	131	4
65	68	2
139	158	3
38	39	1
56	73	3
104	168	1
178	178	2
13	78	2
140	152	2
48	50	4
66	75	1
99	159	3
22	23	2
10	11	3
33	88	4
148	148	7
10	29	3
20	46	2
143	143	4
29	31	5
139	154	3
76	77	3
62	62	6
179	180	4
29	29	5
170	172	3
3	56	1
177	177	2
25	27	1
103	166	2
15	80	1
55	72	4
191	192	2
12	38	2
20	82	5
37	38	3
17	22	1
193	193	3
153	158	1
142	172	2
71	71	2
147	148	1
180	182	1
163	166	2
19	19	5
0	11	1
22	22	3
148	149	2
149	150	1
137	143	2
3	59	1
136	136	2
153	153	4
153	156	4
52	53	1
140	161	3
164	166	3
113	117	1
102	102	2
78	79	9
109	120	1
50	121	4
170	171	1
47	55	2
75	75	2
173	173	3
121	157	1
78	78	9
146	146	1
124	146	1
173	174	1
139	157	2
26	35	1
90	194	1
14	18	1
55	73	1
147	186	2
134	181	2
51	72	1
129	129	3
121	184	1
99	160	1
127	184	1
174	178	3
34	36	1
142	179	5
49	50	2
132	148	1
197	197	2
121	172	2
187	188	2
152	187	4
105	166	2
46	71	2
97	167	1
55	117	1
95	97	2
20	21	2
58	62	1
134	193	2
39	80	1
13	44	4
189	190	1
130	131	1
122	187	1
57	57	2
156	159	3
129	130	1
48	51	2
29	40	3
45	46	2
189	189	1
119	120	2
17	18	2
148	150	1
45	51	1
184	196	3
33	38	2
51	51	1
71	72	1
42	79	1
57	63	1
148	194	2
194	196	2
21	21	2
9	10	1
135	196	1
157	157	1
123	125	1
154	155	1
117	118	1
84	85	1
23	24	1
0	6	1
94	188	1
27	34	2
0	12	1
12	62	1
55	142	1
134	139	1
15	86	1
151	153	1
190	192	1
149	149	2
132	137	1
140	184	1
45	108	1
133	169	1
163	165	1
74	75	2
97	181	1
13	38	1
100	101	1
190	190	2
94	193	1
4	19	1
90	90	1
15	16	1
139	155	2
6	9	1
66	67	1
65	65	1
106	107	1
45	170	1
89	136	1
129	131	1
48	52	1
109	112	1
85	87	1
88	132	2
33	37	2
51	54	1
43	51	1
129	195	1
130	132	1
65	69	1
85	86	1
183	193	1
47	51	1
51	184	1
132	134	1
18	18	1
120	159	2
49	117	1
28	30	1
4	44	1
95	98	1
130	138	1
118	120	1
