148	148	7
167	167	7
78	78	1
176	178	1
176	183	2
132	133	3
155	156	3
163	164	4
189	189	9
17	48	3
102	102	4
140	140	11
95	95	8
71	72	2
190	190	4
34	35	1
16	17	2
14	15	2
151	151	9
128	151	2
183	183	3
103	103	10
133	133	7
110	110	7
151	169	3
3	3	7
176	176	3
81	106	5
115	117	1
38	38	5
146	146	6
112	112	13
102	103	2
62	62	8
106	106	3
88	88	6
31	31	7
27	29	6
81	81	9
128	128	3
139	139	13
43	47	2
94	103	3
182	183	3
31	33	4
90	91	7
160	161	1
89	89	11
132	132	2
41	120	5
45	45	8
15	15	7
154	155	4
41	41	2
23	25	4
56	56	6
117	117	14
169	170	2
101	106	1
42	44	6
110	126	2
91	91	4
5	5	6
180	180	5
96	97	4
86	86	5
125	125	4
20	20	2
26	27	4
58	58	7
158	159	6
145	150	3
59	59	6
146	147	7
25	124	2
19	19	7
130	130	1
23	23	13
121	122	3
3	4	2
79	80	2
94	94	3
185	185	6
58	60	3
57	109	4
15	16	4
153	153	17
141	142	2
24	24	6
77	77	6
79	79	8
171	171	5
136	136	10
55	55	3
66	66	10
4	4	12
159	162	7
114	114	8
184	184	10
8	8	3
165	166	2
175	176	6
101	101	4
89	183	2
172	173	8
178	188	3
57	57	11
27	27	17
24	25	1
124	125	8
77	84	3
143	144	1
91	92	1
128	139	2
2	2	8
90	90	10
7	7	15
133	134	6
188	189	3
186	186	3
144	144	2
169	169	20
117	120	2
153	182	4
68	69	3
53	53	5
2	3	4
62	63	4
72	72	9
173	173	6
166	166	4
188	188	2
47	122	3
28	33	3
161	161	5
1	1	1
14	14	4
87	87	3
52	53	3
101	102	3
124	124	10
147	147	4
183	184	4
140	141	5
42	42	14
84	84	11
19	37	2
92	92	2
156	156	6
184	185	3
149	150	3
100	105	1
71	71	2
174	174	6
164	165	2
93	93	8
138	138	5
170	170	8
82	83	1
48	48	4
181	181	4
129	129	8
44	44	8
1	2	6
99	99	2
25	125	1
65	65	1
41	119	3
147	186	1
121	121	2
98	102	1
16	16	8
126	126	2
70	70	7
131	131	1
4	6	4
29	29	3
153	174	5
80	80	4
155	155	4
25	25	7
90	94	2
113	113	5
22	23	1
17	17	1
21	37	2
160	160	2
97	98	1
63	63	6
65	66	1
95	96	2
143	143	2
171	173	5
127	127	10
118	118	6
39	39	11
109	109	5
135	135	4
134	136	1
154	154	6
177	181	1
52	112	4
123	123	4
40	40	5
147	148	7
157	157	6
187	188	5
16	125	2
22	22	3
73	74	1
54	63	4
152	152	7
15	24	1
52	52	3
61	62	3
85	85	2
163	163	2
170	183	2
67	67	3
171	172	2
152	153	1
170	173	2
153	154	1
10	53	1
183	186	2
91	172	1
182	182	7
89	90	2
71	74	1
105	106	1
5	116	2
41	47	3
120	120	4
5	6	2
176	180	1
141	141	9
82	82	5
11	67	1
118	119	2
36	37	4
187	187	8
176	181	3
130	131	2
114	117	5
0	0	3
29	31	3
170	171	6
107	107	3
145	145	9
55	56	6
16	122	3
64	64	1
37	37	4
30	31	1
13	13	2
28	28	2
61	61	2
110	141	1
104	104	3
154	167	2
106	107	3
12	12	3
169	185	2
149	149	5
119	119	1
19	36	1
54	109	2
7	55	1
62	64	2
98	98	3
173	174	1
7	84	1
26	26	6
103	104	3
142	148	2
26	131	2
36	36	1
174	178	3
95	103	1
186	190	4
61	109	1
134	134	3
114	116	2
73	73	2
75	75	2
80	82	1
159	165	1
47	47	2
167	169	1
84	85	1
168	174	2
129	130	1
142	144	1
53	109	2
158	166	3
101	105	3
13	54	1
105	105	3
18	117	2
138	148	2
96	103	5
29	32	2
48	122	1
130	132	2
12	13	1
13	112	1
100	106	3
139	142	1
108	108	2
56	57	4
90	170	1
38	39	3
13	122	1
56	77	2
96	96	2
13	56	1
151	170	1
7	53	1
38	40	1
10	10	3
75	82	2
130	136	1
68	68	4
42	119	2
15	25	2
129	131	1
165	165	1
60	62	3
87	88	2
175	175	1
19	21	1
13	14	1
76	76	4
100	100	3
54	54	1
5	115	1
44	45	1
24	35	1
180	181	2
53	113	2
88	149	1
148	170	1
40	41	1
86	172	1
21	21	2
6	6	2
108	113	1
146	154	1
7	56	1
85	140	2
79	165	1
168	168	1
122	123	1
137	138	2
70	77	1
26	29	2
91	169	1
23	24	2
132	134	1
89	185	1
39	40	2
19	20	1
115	115	1
12	54	1
178	179	1
19	122	1
84	90	1
63	110	1
163	165	1
127	139	1
157	166	1
92	187	1
