11	27	7
155	175	2
169	170	3
156	156	2
38	38	6
65	65	6
14	15	6
88	110	3
185	185	7
144	144	5
125	125	5
103	103	14
39	39	11
15	25	2
41	41	3
2	2	12
176	176	7
139	139	11
100	101	6
135	135	2
27	29	3
186	186	5
181	183	4
61	63	2
19	20	5
43	43	6
76	76	6
178	178	4
138	139	7
93	93	10
181	182	1
136	156	2
77	77	7
88	88	3
134	134	9
108	108	3
160	171	3
110	111	9
151	151	8
120	120	2
152	152	8
188	188	2
0	0	6
163	164	6
134	135	7
56	56	7
116	118	1
132	132	4
16	16	10
60	61	1
187	187	7
5	5	9
81	114	2
91	92	2
70	71	2
84	84	9
90	139	4
40	40	4
106	107	3
79	91	5
182	182	6
18	18	3
117	117	6
102	102	2
13	15	4
157	157	3
0	1	1
22	23	5
140	141	5
159	162	1
70	70	3
152	162	5
104	150	4
136	157	3
161	161	2
8	13	2
155	155	3
8	8	6
126	126	8
23	25	2
142	143	7
172	172	5
90	90	4
78	78	4
95	95	4
141	141	8
25	25	10
40	41	1
64	88	1
138	140	1
45	45	5
174	174	4
106	106	5
34	34	2
53	53	3
133	133	1
59	60	1
66	66	4
89	89	1
170	170	8
146	146	6
52	52	2
158	166	5
131	162	2
100	100	3
54	55	5
94	94	9
27	32	3
111	112	5
166	166	13
128	128	9
103	109	5
80	80	5
92	92	5
119	119	1
165	185	3
124	125	1
67	86	2
145	150	2
83	83	7
3	3	1
81	116	5
179	179	3
133	137	2
89	90	2
28	28	6
79	123	2
67	87	1
96	96	2
81	81	2
55	61	2
180	180	4
153	153	11
31	31	4
6	6	3
25	26	1
4	4	4
154	154	12
106	110	3
47	47	7
113	113	7
97	97	4
36	36	2
154	155	1
11	12	2
90	91	1
159	160	2
160	161	2
104	104	6
181	181	1
33	33	1
75	125	2
176	178	1
68	68	2
81	85	2
75	75	2
188	189	1
22	22	2
81	118	2
169	169	2
74	74	1
11	11	4
1	1	3
21	21	3
15	15	1
148	148	1
164	164	1
92	93	2
84	120	2
13	24	3
131	132	3
129	129	3
77	83	2
131	131	1
71	71	4
176	177	6
123	123	6
143	144	3
84	167	1
18	20	3
46	47	1
115	116	3
12	15	1
6	7	3
147	147	3
15	21	4
87	138	1
44	44	2
62	62	2
87	88	1
142	142	2
55	58	2
32	32	2
86	87	1
16	21	3
124	124	1
61	65	3
168	169	1
175	175	4
28	34	2
163	163	1
111	111	2
12	14	1
44	46	1
127	127	3
94	101	4
96	98	1
105	105	1
128	152	1
177	177	5
118	119	2
13	19	1
24	24	2
99	99	2
48	48	2
117	120	3
165	165	1
45	46	3
48	78	1
88	132	1
115	115	1
42	42	4
129	133	1
114	114	2
173	173	3
189	189	3
79	116	3
80	91	1
37	55	1
166	167	2
82	82	2
149	149	2
17	17	1
37	38	1
63	88	1
112	112	1
122	122	1
28	32	1
41	42	4
55	56	1
6	110	2
59	59	1
72	111	2
26	26	1
179	190	2
177	178	1
140	140	4
138	138	3
15	106	1
183	183	2
71	76	1
53	58	1
71	72	3
7	7	2
73	74	1
79	79	1
72	72	4
85	170	1
188	190	2
123	150	1
75	77	1
90	123	1
121	150	1
162	163	2
58	61	1
87	139	1
6	106	1
190	190	2
170	176	1
37	37	1
122	167	1
85	89	1
150	150	1
179	180	1
61	62	1
118	118	1
47	48	1
189	190	1
54	71	1
97	98	1
28	29	1
113	120	1
12	13	1
55	55	1
85	85	1
13	13	1
26	27	1
8	17	1
129	136	1
103	104	1
184	184	1
158	158	2
31	32	1
153	172	1
34	35	1
99	101	1
87	89	1
