100	101	4
3	3	45
158	159	7
47	47	20
56	56	27
147	147	20
105	105	33
123	137	3
129	129	21
95	95	19
17	18	20
45	45	32
137	137	35
26	26	20
83	83	24
35	35	31
128	128	39
123	124	28
94	94	35
147	148	17
17	17	50
1	63	2
144	145	14
132	132	40
130	130	41
0	0	24
16	118	7
122	127	2
10	10	33
6	6	31
71	71	33
125	125	34
66	66	19
106	159	4
11	12	22
20	25	3
8	8	30
13	14	16
58	65	3
141	141	37
45	46	18
154	154	40
87	87	15
70	70	28
86	87	7
47	57	1
72	118	4
15	15	16
41	43	3
46	52	3
5	5	26
74	76	13
108	139	10
19	19	22
64	78	8
98	154	1
116	116	36
20	21	25
62	84	3
71	109	1
37	37	29
47	50	7
79	79	24
13	18	4
13	15	2
143	143	37
120	121	10
13	144	3
39	40	11
12	64	3
124	124	25
85	85	11
119	131	8
6	7	7
158	158	24
126	126	25
169	170	5
25	27	1
149	151	3
8	9	16
57	57	23
64	64	24
75	75	21
114	115	11
89	94	3
70	98	2
136	136	38
152	152	39
153	153	52
96	96	17
16	16	28
93	93	34
139	139	34
37	46	1
97	97	36
24	24	38
107	107	41
133	135	7
164	164	33
138	138	57
55	55	35
73	113	6
150	151	22
139	140	20
38	38	24
21	21	28
7	7	28
140	140	28
122	122	12
23	23	14
122	128	2
1	10	2
43	43	67
75	76	12
124	125	10
166	166	26
99	99	52
114	114	32
109	109	39
91	92	3
103	132	3
58	58	9
127	165	3
77	78	19
113	113	24
20	83	1
72	72	28
113	114	6
150	150	31
11	11	30
53	53	40
69	69	32
10	41	3
46	46	26
41	41	38
103	103	15
68	68	10
65	65	19
56	57	16
38	53	3
44	44	28
37	52	5
73	73	31
9	9	20
27	27	35
143	144	12
102	103	12
73	116	9
108	108	62
156	156	34
5	96	3
50	92	3
40	40	9
146	146	33
62	89	2
134	135	19
25	25	36
18	21	2
110	110	32
155	157	4
1	1	29
169	169	29
51	51	38
14	15	5
121	121	15
105	137	2
148	148	30
112	114	6
36	36	34
90	90	32
47	48	14
149	149	33
71	72	10
89	89	30
103	104	11
22	22	56
12	12	30
77	77	6
82	83	6
125	126	4
131	131	20
51	56	7
62	62	39
163	163	40
81	81	35
131	132	3
119	119	46
74	74	34
40	52	2
26	27	11
2	25	2
54	54	13
144	144	37
162	162	30
112	113	13
141	142	12
88	96	6
127	128	8
99	119	3
92	92	13
92	93	4
78	85	6
134	136	2
101	102	9
67	67	22
42	42	41
154	156	4
167	168	2
44	45	10
22	23	14
18	18	26
12	13	13
165	165	21
127	142	1
126	141	4
75	85	3
84	84	15
107	137	4
55	56	4
165	166	7
26	47	1
48	48	13
88	88	35
36	37	5
115	115	20
84	85	9
68	69	6
52	52	38
0	44	3
84	87	12
13	13	28
78	78	16
102	102	27
151	151	38
49	50	9
49	51	4
76	79	5
4	4	32
142	142	18
86	86	24
13	114	6
118	120	5
27	35	2
127	127	25
111	111	35
117	161	5
157	157	18
10	11	8
151	156	2
105	135	3
161	162	6
76	77	13
57	84	3
116	158	2
108	109	14
108	154	4
105	169	2
106	110	2
157	160	4
119	120	10
0	1	8
23	24	17
14	14	37
104	104	23
82	82	10
2	111	2
39	41	4
80	80	28
85	104	4
153	154	10
155	156	18
156	157	9
6	41	7
3	11	4
134	134	24
155	155	31
128	129	3
101	101	33
20	22	6
129	130	10
105	106	10
57	63	3
135	135	26
90	105	2
170	170	19
163	165	3
102	111	3
159	159	13
47	55	1
101	103	9
1	2	7
64	79	2
133	134	5
117	118	10
161	161	18
84	98	7
15	17	3
100	100	28
106	107	18
125	127	3
135	158	2
10	43	2
160	161	9
112	112	46
10	47	2
79	150	1
33	33	11
13	66	2
34	35	8
109	169	2
161	165	3
136	137	16
66	67	4
71	112	4
75	128	7
116	129	3
119	144	1
56	122	4
150	160	4
80	82	5
117	121	2
140	141	17
18	19	4
72	117	2
83	84	5
52	53	7
116	130	4
160	160	19
34	34	35
39	39	18
21	142	4
7	34	4
46	53	7
106	106	30
65	76	3
25	38	3
16	63	1
87	101	1
10	21	3
167	167	24
82	89	3
53	125	1
118	118	31
24	25	7
105	153	1
16	21	1
138	139	6
149	150	4
63	67	4
87	90	3
2	2	33
102	112	2
113	134	1
120	120	28
133	153	3
168	169	5
91	91	28
77	80	3
16	17	7
97	132	2
80	81	6
75	143	2
23	146	2
136	145	3
101	105	12
117	117	12
125	148	8
25	40	4
88	89	17
70	71	2
53	56	4
50	55	1
125	128	1
34	36	5
51	81	3
72	150	6
8	45	1
16	20	3
21	22	17
112	125	2
115	116	3
35	99	2
151	152	5
123	123	29
108	138	3
21	40	2
109	141	1
21	136	3
108	148	2
164	165	8
133	133	27
127	132	3
50	51	11
62	118	2
72	100	6
10	13	4
68	88	2
33	34	3
0	3	7
90	94	4
93	94	11
78	80	1
150	158	4
2	3	6
76	78	3
4	6	14
148	160	1
106	136	4
107	108	17
50	93	1
25	26	3
112	116	7
122	123	7
99	100	4
55	90	3
69	70	7
145	145	38
22	142	2
49	49	24
13	46	5
4	10	4
85	146	1
14	38	1
131	148	5
49	53	7
3	57	4
14	166	8
116	117	3
15	52	2
95	157	2
75	84	3
134	170	2
10	58	2
156	158	6
111	149	2
82	108	5
80	87	2
26	52	4
83	87	3
81	92	4
63	76	3
34	37	3
121	122	14
137	151	2
62	87	1
15	16	10
154	160	3
48	54	6
20	24	4
122	124	1
126	130	3
163	164	10
129	131	1
142	143	8
52	126	5
105	113	2
120	126	6
4	5	6
44	159	2
102	105	3
65	66	3
35	36	5
74	75	4
13	38	1
51	58	2
7	40	2
18	52	5
127	161	3
73	115	1
39	43	4
129	162	2
5	10	3
147	149	5
67	79	2
9	39	2
22	24	4
5	47	4
127	130	1
3	4	5
49	54	4
64	65	10
130	162	4
48	49	2
25	45	4
67	69	8
63	99	3
104	117	2
3	56	2
168	168	18
74	112	2
112	134	3
103	117	2
148	149	13
26	61	2
94	95	13
0	47	2
87	128	6
78	115	2
90	91	3
12	14	4
20	20	19
117	131	4
138	154	2
56	111	1
68	70	1
146	149	5
3	38	7
49	62	2
73	74	7
133	166	2
71	136	2
107	111	8
81	82	20
154	157	1
69	80	2
128	133	1
137	159	1
45	48	2
3	5	6
129	160	2
130	146	2
50	53	1
154	155	9
1	45	1
50	58	3
144	149	1
46	47	9
69	98	3
73	75	7
50	69	2
110	150	6
41	42	15
140	142	7
18	54	2
28	28	5
146	147	3
53	85	3
8	28	3
80	84	2
68	77	3
19	21	3
101	129	1
74	169	3
12	128	3
6	12	5
8	116	3
100	139	6
115	166	5
45	52	2
63	63	6
78	150	5
37	38	7
110	111	9
82	91	3
89	90	9
126	128	7
14	45	1
2	20	4
1	18	1
89	110	3
125	130	1
113	154	2
111	112	6
6	10	1
69	96	5
145	146	5
114	138	2
50	50	9
57	113	1
50	54	1
38	39	1
118	161	1
97	120	2
76	117	2
96	98	5
56	130	4
85	86	3
98	99	6
82	98	2
100	113	3
65	67	3
124	126	1
76	143	3
78	79	8
108	110	2
116	143	3
98	100	2
63	77	4
55	130	8
5	44	2
113	170	2
119	121	4
95	96	4
34	111	1
54	55	4
23	51	5
96	97	12
54	147	3
7	8	3
5	6	4
84	89	2
42	43	11
20	148	1
33	35	5
87	88	5
101	107	2
70	79	1
3	99	2
114	144	1
137	138	6
51	55	6
36	52	1
19	24	2
90	99	3
51	96	6
17	65	3
72	78	1
136	148	1
130	131	7
110	138	4
110	115	1
73	76	1
5	45	2
10	135	4
16	19	1
76	76	14
96	121	6
142	147	1
97	98	2
5	38	1
88	95	1
126	127	5
6	19	3
25	47	4
135	136	5
11	15	2
20	23	3
62	100	1
65	92	3
1	78	1
50	63	1
89	91	3
118	119	3
100	124	4
10	42	2
119	128	2
6	14	1
100	141	1
110	148	1
122	125	2
51	131	1
99	153	2
24	53	2
109	110	1
20	139	3
20	54	1
52	55	1
43	44	9
108	111	2
72	123	3
72	108	1
18	27	1
132	133	7
69	84	3
38	56	1
128	130	6
39	92	2
83	128	3
11	13	3
139	164	5
124	166	1
118	158	1
105	148	3
21	23	5
84	88	2
64	66	2
89	108	4
106	124	1
73	105	2
68	109	4
115	129	1
3	10	4
138	169	2
130	134	1
45	53	3
154	159	3
115	118	1
91	96	4
110	129	2
18	20	2
166	167	2
124	127	2
34	108	7
10	28	1
71	117	1
105	112	2
77	98	1
126	129	6
142	164	1
44	52	1
69	76	1
57	77	3
92	136	2
91	93	6
7	11	2
146	148	1
27	139	2
98	98	9
132	134	1
112	138	2
19	146	1
120	127	3
18	23	4
113	146	1
0	6	2
37	40	1
0	2	2
14	18	2
74	115	1
149	159	2
67	68	4
117	120	3
117	119	1
6	18	1
39	58	1
80	99	4
0	78	2
2	44	2
51	54	2
5	52	1
19	48	4
117	155	1
21	24	1
144	146	1
114	162	2
160	166	5
105	107	2
91	97	2
79	80	2
138	158	3
27	64	2
26	103	3
157	158	9
63	64	5
49	57	2
101	125	3
120	149	2
139	141	2
52	57	2
114	131	2
135	138	3
36	108	1
37	109	1
17	22	3
4	7	3
103	129	3
114	165	2
79	145	1
80	112	1
86	125	4
74	83	2
122	126	1
9	12	2
74	116	3
80	141	2
137	140	2
47	49	6
63	100	2
41	158	4
111	150	2
91	136	1
85	98	2
71	126	2
161	163	5
56	164	1
16	35	2
19	25	3
27	28	3
119	134	1
17	20	1
141	155	2
94	128	2
141	143	4
53	54	1
7	159	4
117	160	4
102	114	2
87	92	2
43	63	2
133	162	1
71	165	2
107	140	3
64	81	2
101	104	2
26	28	2
74	121	3
97	100	2
11	21	4
140	155	1
70	81	2
50	56	3
107	141	2
7	13	2
58	63	1
7	9	2
4	51	3
93	95	1
81	106	1
132	165	4
80	83	1
116	164	1
79	83	6
38	40	1
88	113	1
73	122	3
107	156	1
69	136	1
1	57	1
110	137	1
124	128	3
121	160	1
74	85	1
98	135	1
1	9	1
13	37	1
8	11	1
6	160	1
113	144	1
13	55	1
12	161	1
97	99	3
57	58	2
40	41	1
94	97	1
99	141	1
97	112	1
17	21	4
5	11	1
106	154	2
110	149	3
1	47	2
3	91	1
66	69	1
40	86	1
14	57	2
128	131	2
13	117	1
19	23	2
66	80	1
39	49	1
162	164	3
65	69	1
108	114	1
112	120	2
49	52	1
42	44	1
98	112	2
26	37	1
80	91	1
63	81	1
120	162	2
9	105	1
139	144	1
95	132	1
3	158	6
3	8	1
12	16	1
153	157	1
143	151	1
79	105	3
8	10	4
129	165	1
20	28	1
20	84	2
153	161	2
148	150	1
125	149	2
71	124	2
135	137	1
105	170	2
22	138	1
21	43	1
71	80	3
113	156	1
62	81	3
85	145	1
0	45	3
121	124	2
1	8	3
128	144	1
109	111	2
9	10	3
46	49	1
27	48	2
71	155	1
35	87	1
51	64	2
140	143	1
64	71	1
1	40	1
98	147	2
145	150	1
26	141	2
145	148	2
92	99	2
81	91	3
20	146	1
103	156	1
128	146	1
13	34	1
64	72	1
123	161	2
104	165	1
5	54	1
81	87	1
25	140	2
95	97	2
71	73	2
116	160	2
106	128	1
5	13	1
83	86	3
68	76	1
1	70	1
151	161	1
163	166	2
85	87	2
124	149	2
38	57	1
14	46	1
138	140	1
162	163	6
97	113	2
56	96	1
79	86	1
8	50	2
89	113	2
2	4	1
24	26	1
159	160	4
93	99	1
76	101	3
15	54	1
113	135	1
14	17	4
20	52	2
121	133	2
123	138	1
39	84	1
11	89	1
117	140	1
150	152	1
61	61	1
114	133	1
68	110	1
101	116	1
54	108	2
3	52	1
75	77	3
109	140	2
108	130	1
105	144	1
143	157	1
21	125	1
131	133	1
70	92	1
144	147	2
116	170	3
58	62	1
101	114	1
15	53	1
3	157	1
93	127	1
149	161	1
87	98	1
4	16	1
107	113	1
44	46	1
81	90	1
86	105	2
10	12	1
77	82	1
5	46	1
94	105	2
101	135	1
112	117	3
121	154	1
123	131	1
36	133	2
55	101	1
14	36	1
123	139	1
75	112	1
33	38	1
91	98	1
12	43	1
62	63	1
120	152	1
148	161	2
3	84	1
116	159	1
87	97	2
107	154	2
1	3	1
143	146	2
11	22	1
1	15	2
74	84	1
108	150	2
2	15	1
102	133	1
40	45	1
142	144	1
138	168	1
21	53	1
5	41	1
118	160	1
4	13	1
148	159	1
57	97	1
120	132	1
110	136	1
109	157	1
16	18	1
126	142	1
27	138	1
162	165	1
69	95	1
73	140	1
99	144	1
122	160	1
