47	62	1
62	62	23
56	57	3
72	72	12
92	92	7
85	85	9
47	50	4
67	67	26
76	77	7
57	57	3
99	99	13
61	62	1
69	70	2
88	90	3
48	49	2
83	84	4
33	33	7
79	81	7
88	92	2
38	39	3
59	60	2
51	51	4
69	69	10
47	47	2
58	60	4
98	99	7
46	46	3
78	78	12
91	91	5
46	47	1
73	74	2
54	61	1
100	100	9
28	28	1
43	46	2
61	69	3
52	52	7
83	85	7
75	75	24
48	68	4
70	70	7
63	63	8
87	89	4
56	63	7
79	79	16
40	40	9
65	74	2
79	86	4
95	95	5
29	38	5
99	100	1
35	35	3
91	97	2
85	86	5
73	73	18
73	75	3
36	36	15
50	51	1
29	31	4
88	96	3
49	71	5
67	76	2
64	64	12
63	66	2
93	93	7
76	76	12
32	40	1
62	68	2
89	89	11
74	75	6
84	84	11
31	34	6
88	88	7
97	97	4
22	25	3
73	77	3
74	74	6
79	88	1
68	69	6
76	79	7
44	45	8
55	55	13
54	87	1
28	47	4
95	96	5
64	65	1
54	54	3
81	91	2
50	99	1
82	82	3
81	81	10
58	58	12
83	87	2
87	97	2
25	26	6
70	71	7
82	86	1
66	73	5
25	25	12
81	87	3
87	87	15
59	62	3
65	65	11
90	94	3
87	101	3
23	102	2
49	52	2
27	27	3
59	59	6
80	82	1
72	81	3
35	38	2
69	72	4
70	75	4
41	41	3
45	58	3
80	80	22
86	88	2
71	83	2
60	60	11
76	78	8
29	29	3
78	79	5
39	39	4
96	96	5
58	65	3
84	101	1
65	67	1
78	88	4
34	34	6
71	71	8
44	52	5
36	37	3
60	61	4
45	45	3
73	85	1
32	99	3
24	24	4
49	63	3
77	78	3
62	71	1
67	80	3
81	95	4
45	51	2
53	59	4
50	64	4
80	94	5
84	96	4
26	26	5
92	96	1
78	85	2
75	76	3
46	61	3
40	43	1
95	97	4
26	28	1
69	83	3
62	83	1
65	99	3
77	77	6
67	68	3
48	81	3
46	60	2
68	68	3
52	60	1
39	40	2
48	48	8
87	91	1
98	100	2
96	97	2
42	58	3
88	95	4
35	40	2
31	31	1
65	76	2
23	24	1
27	33	1
94	94	8
92	98	2
90	91	1
53	53	3
78	89	1
39	91	4
22	23	4
26	29	1
90	90	4
68	71	4
83	99	2
34	38	1
69	82	2
91	93	2
26	31	2
43	52	1
89	92	4
52	53	2
69	81	2
97	101	3
56	58	1
25	34	5
81	82	2
79	80	9
77	81	1
61	61	6
101	101	4
20	23	4
37	39	3
84	85	1
83	83	2
72	74	3
50	102	1
56	89	1
43	43	6
37	53	1
90	96	1
26	37	1
79	82	3
75	83	1
40	41	1
28	33	1
84	94	2
54	101	2
81	94	4
60	64	1
72	89	1
67	77	1
31	33	1
85	89	3
55	56	1
86	86	5
67	75	5
23	23	4
78	84	1
65	68	1
49	50	1
20	22	1
59	75	3
81	84	3
99	101	2
41	45	1
42	42	4
62	63	1
86	95	2
44	44	3
76	80	3
45	46	3
69	73	1
77	85	2
57	68	1
67	85	1
76	81	2
49	51	1
27	28	2
79	84	1
34	40	1
75	87	2
47	48	1
84	89	2
55	89	2
68	83	2
33	41	2
29	30	1
83	93	1
71	72	1
52	58	1
75	81	1
79	85	1
37	37	2
67	71	1
53	55	2
42	43	1
35	36	1
72	73	1
99	102	2
97	100	1
50	50	3
48	53	2
41	43	1
86	87	3
29	44	2
64	70	1
93	95	2
55	61	1
46	74	1
98	98	4
38	46	1
36	41	1
62	76	1
87	92	1
72	79	2
42	55	2
61	64	1
83	86	2
64	71	2
50	62	1
66	66	2
39	41	1
22	22	1
54	55	3
57	59	1
100	101	3
49	72	1
80	83	2
71	73	1
91	92	1
35	39	1
48	55	2
33	39	1
92	95	1
88	89	2
84	102	1
87	93	1
61	75	1
60	62	2
76	88	1
33	34	1
55	62	1
43	45	1
79	95	2
45	67	1
76	86	2
37	38	1
43	87	1
38	38	1
37	40	1
93	99	2
50	56	1
42	67	1
54	86	1
92	101	1
57	89	1
49	49	1
46	76	1
58	89	1
51	53	1
62	70	1
26	41	1
54	56	1
75	80	1
63	65	1
76	89	1
40	53	1
55	86	1
