112	112	6
8	8	4
108	108	7
77	78	1
114	114	5
58	58	4
109	113	5
92	92	7
128	128	5
31	31	6
60	60	5
83	83	4
121	121	7
99	99	1
20	20	14
111	112	3
78	86	1
19	19	3
84	84	4
101	102	5
26	110	3
126	126	8
91	134	3
12	35	3
130	130	8
10	33	1
103	104	1
109	109	3
46	47	2
112	113	2
94	94	20
34	34	5
84	85	3
116	116	11
131	131	3
70	72	3
56	56	7
26	26	3
3	68	4
67	67	6
75	75	7
39	39	4
111	111	11
76	119	3
107	108	1
11	35	7
15	15	3
72	72	2
41	41	8
55	56	3
13	14	2
94	96	4
86	133	5
65	65	2
74	74	2
78	78	5
2	2	3
76	76	3
0	111	2
87	87	4
119	124	1
70	70	7
4	4	6
36	37	1
23	23	2
68	68	3
64	65	5
14	14	7
22	28	3
46	70	1
63	63	5
103	103	3
11	12	8
61	68	1
22	22	5
35	35	5
28	121	3
15	49	1
105	105	2
71	71	5
29	29	8
17	17	7
36	36	6
6	6	6
80	81	2
61	69	5
12	13	5
77	79	1
22	27	2
7	36	1
80	80	5
7	7	2
78	79	4
17	47	2
107	107	3
79	86	1
10	34	1
129	131	3
100	100	1
27	27	7
10	10	9
12	41	3
35	42	2
33	33	3
22	23	4
110	110	6
13	13	6
57	57	4
26	27	5
6	35	3
28	57	2
67	68	1
73	73	6
28	28	1
96	96	3
43	43	4
21	21	4
15	16	2
32	32	9
16	16	3
88	88	2
123	124	1
76	77	3
102	102	8
88	90	1
119	119	4
8	9	1
113	113	4
123	123	6
62	64	2
95	119	1
1	1	4
111	113	2
95	95	9
126	134	3
21	30	2
131	134	2
18	19	3
79	133	4
28	29	4
30	31	2
37	42	2
77	77	6
122	122	3
66	66	5
104	106	3
127	127	1
37	37	3
85	85	10
82	83	3
133	133	2
127	128	1
16	17	2
80	82	2
58	123	1
25	25	2
0	0	2
70	73	4
34	35	1
63	125	2
44	44	2
125	126	5
62	62	9
40	40	2
83	84	1
18	20	1
98	98	3
5	28	2
124	124	5
106	106	3
23	31	2
67	98	2
114	116	1
127	129	1
75	76	2
91	91	3
3	3	3
19	20	1
69	70	4
115	115	4
66	118	1
85	86	6
101	101	5
45	46	1
93	94	3
68	70	1
26	96	3
26	112	1
14	43	2
69	69	2
108	109	1
120	120	1
24	24	2
6	31	2
67	119	1
129	129	8
107	117	2
81	92	2
82	82	2
72	74	3
128	129	1
5	5	1
12	12	3
91	127	1
92	93	4
6	18	1
132	132	1
78	80	2
46	46	3
4	20	1
79	80	1
86	86	3
66	117	2
14	50	1
9	9	5
126	132	1
42	42	2
71	74	1
13	19	1
55	55	1
14	15	4
109	110	3
111	116	1
40	41	3
69	72	1
42	43	1
95	96	1
24	112	1
7	32	1
44	45	1
117	117	2
59	59	1
5	6	3
69	71	1
83	124	1
134	134	1
125	125	1
127	133	1
71	72	1
16	44	1
64	75	1
48	48	2
89	89	1
45	45	2
99	100	1
61	61	2
33	34	1
101	105	1
17	18	2
125	134	1
78	125	3
100	110	1
11	34	2
34	36	1
124	125	2
2	3	1
29	30	1
110	114	1
11	11	2
98	99	1
49	49	1
127	132	1
4	18	2
81	93	1
1	2	1
80	83	1
59	61	1
47	47	1
122	123	1
21	22	1
80	125	1
43	44	1
125	128	1
97	97	1
21	29	1
35	36	1
79	79	1
109	111	1
125	132	1
115	116	1
61	62	1
90	90	1
