104	104	4
101	132	2
120	170	3
126	126	3
12	25	5
120	180	6
92	118	5
126	128	3
180	190	1
179	179	6
60	111	4
25	27	3
159	160	1
47	47	5
109	110	3
10	10	3
176	176	1
91	92	7
140	141	3
16	16	3
35	104	4
11	96	3
151	151	3
135	135	2
12	12	4
78	96	1
42	42	8
111	111	3
83	83	5
183	183	6
167	168	6
67	74	3
139	139	4
168	168	5
115	125	4
65	82	1
103	103	3
20	20	9
148	148	5
136	137	2
27	30	5
172	173	2
80	82	8
164	164	2
44	44	3
87	93	1
59	60	2
132	133	3
178	178	8
91	114	5
117	117	7
109	142	2
130	136	1
169	169	6
188	188	13
14	25	3
68	69	5
162	162	3
71	71	5
48	48	8
24	24	2
142	143	1
81	81	3
129	129	7
57	57	4
120	171	2
138	138	4
84	89	5
111	112	6
25	35	5
163	163	10
12	14	1
101	103	6
27	29	1
18	18	4
119	119	5
42	89	3
156	156	5
90	90	1
40	40	4
101	101	1
112	112	5
153	154	2
98	98	3
145	164	2
170	190	4
148	149	3
130	130	1
167	167	3
157	157	2
6	7	2
165	165	1
4	4	4
137	138	2
18	19	6
151	166	2
53	55	1
15	105	3
80	81	1
11	11	1
13	13	2
149	149	3
72	72	2
3	63	2
114	114	3
13	26	1
55	55	3
0	22	3
79	79	3
142	142	4
85	93	1
113	114	1
143	164	2
91	130	4
154	184	1
133	133	1
29	37	1
37	38	4
160	162	5
45	47	1
115	140	1
3	3	4
155	155	3
58	58	4
127	127	4
67	67	2
68	96	5
145	145	5
125	125	6
100	100	2
178	179	2
108	108	7
13	29	3
167	169	3
68	68	2
121	187	2
125	127	1
35	35	3
7	7	5
2	2	3
42	44	1
56	57	3
47	48	2
38	38	2
13	71	2
62	78	3
82	82	5
57	168	2
120	179	3
151	154	2
31	31	5
14	28	1
137	137	4
70	70	2
45	45	4
3	57	2
118	118	3
116	119	1
74	75	3
97	97	4
134	134	9
93	139	2
57	137	2
11	69	2
65	120	3
134	135	3
152	152	6
188	190	2
181	183	4
161	161	5
171	171	6
43	43	3
30	30	2
125	126	2
77	81	1
111	185	2
58	82	2
168	170	2
17	73	1
10	39	2
175	176	1
87	87	5
19	21	3
151	152	2
124	126	1
6	6	2
17	17	2
33	103	2
179	180	3
188	189	2
58	114	1
141	144	3
88	88	6
65	66	1
0	46	3
74	106	1
124	125	1
109	143	1
144	144	2
164	165	4
81	150	3
158	158	2
106	106	6
141	141	1
154	187	2
60	60	4
171	172	5
45	46	2
91	91	2
13	28	2
120	174	1
10	38	2
41	41	4
138	187	1
66	110	1
182	183	2
68	189	1
61	116	2
84	85	1
87	91	3
94	107	1
154	155	2
25	26	3
111	186	2
70	85	2
55	56	4
37	37	1
34	34	2
177	182	1
94	94	1
15	18	3
0	0	1
128	128	7
79	130	1
95	95	2
79	80	2
25	25	2
130	132	1
59	94	2
173	188	1
159	159	4
73	73	1
105	105	3
5	5	1
68	108	1
65	140	1
133	134	2
8	100	1
73	189	1
75	75	2
47	188	1
189	189	1
107	125	1
146	168	5
155	156	3
172	172	2
78	78	2
98	99	4
146	159	2
187	187	2
160	169	2
113	117	1
177	177	2
125	140	1
68	143	1
105	106	2
143	143	2
65	65	10
27	27	4
97	98	4
52	58	1
53	53	1
109	109	3
186	186	1
54	54	1
99	99	1
26	27	1
173	174	2
150	150	2
46	46	4
18	31	2
69	69	3
1	2	3
2	43	2
87	95	1
152	177	1
26	26	1
28	37	1
94	126	1
45	48	3
4	61	3
160	176	1
59	59	2
170	186	1
35	36	1
107	107	3
122	171	1
181	188	1
161	162	3
173	173	2
153	153	2
17	30	1
11	68	1
17	18	3
175	175	1
29	30	1
40	65	1
97	140	2
178	182	2
105	142	1
31	105	1
17	75	1
62	116	3
17	21	1
13	15	1
166	166	1
106	131	1
177	178	1
4	127	1
36	105	1
32	37	1
26	99	1
146	146	1
66	108	1
22	27	1
75	76	1
44	48	1
30	31	2
80	80	1
13	16	1
122	122	1
24	38	1
99	100	1
60	118	2
132	132	2
174	180	1
120	185	1
3	41	1
14	14	1
80	131	1
68	142	1
167	179	1
157	164	1
108	125	1
31	38	1
17	97	1
146	163	1
7	54	1
93	126	1
3	6	1
20	31	1
154	188	1
152	153	1
33	34	1
88	89	1
71	97	1
123	123	1
14	27	1
22	23	1
