184	185	4
102	126	5
201	201	3
53	53	15
217	229	2
52	53	1
215	216	5
43	43	4
96	96	3
113	233	1
28	28	18
0	68	1
222	222	5
169	191	3
135	135	13
136	137	3
165	165	17
220	220	6
3	3	3
50	51	2
168	169	4
64	64	6
232	232	10
103	103	4
218	218	10
107	107	11
49	49	3
123	132	2
38	38	10
105	105	7
117	118	1
113	113	12
175	176	2
200	200	4
238	239	6
190	190	8
81	81	13
234	234	10
98	98	10
42	42	2
78	78	10
15	15	5
21	23	5
128	128	6
155	156	1
17	17	6
115	115	12
184	228	1
180	180	3
161	162	1
139	139	6
137	137	5
47	47	4
68	68	12
201	202	3
210	210	6
69	69	9
11	69	3
46	46	4
59	59	6
32	32	5
70	70	22
105	147	3
203	207	2
150	150	6
159	159	19
3	84	2
225	225	5
166	166	4
161	190	2
35	36	3
69	70	3
30	30	13
150	151	3
61	61	5
108	108	5
0	0	6
9	9	5
173	174	5
45	45	15
215	215	4
209	209	10
96	97	3
181	181	9
168	168	5
226	226	3
38	65	2
221	221	4
55	55	4
135	143	2
73	74	3
37	37	6
28	29	2
102	102	4
223	228	4
73	73	18
98	99	4
47	219	1
24	242	3
16	16	4
11	11	9
154	154	2
151	151	10
61	222	2
29	63	2
41	42	3
19	19	6
33	33	4
218	219	2
179	180	4
40	41	5
57	117	3
146	146	8
58	58	8
175	175	10
242	242	14
106	106	17
206	206	7
86	86	10
152	152	4
27	27	8
104	104	6
18	18	10
27	69	5
99	101	3
21	21	5
20	20	7
40	40	2
233	236	2
47	220	1
145	146	2
138	138	2
1	5	2
80	81	5
112	112	1
162	162	2
192	192	5
65	65	11
111	111	4
207	216	1
169	169	10
186	186	7
79	79	5
74	74	5
160	165	9
123	147	2
85	85	4
195	195	8
71	73	3
202	202	5
24	24	6
50	50	4
239	239	9
124	125	2
205	205	10
233	233	4
174	241	1
134	134	6
207	207	1
170	171	6
116	116	3
223	223	9
179	179	7
27	114	1
121	122	3
235	235	4
26	26	9
58	239	7
238	238	11
148	148	11
147	148	3
228	228	6
54	55	2
142	142	5
184	184	2
14	15	4
31	31	6
71	72	6
142	179	4
64	65	2
188	188	4
54	54	11
12	12	8
182	182	10
71	71	7
214	216	7
171	172	7
44	218	7
43	85	6
197	197	5
59	60	4
133	134	1
127	128	1
21	33	6
18	29	1
76	76	8
174	174	7
183	183	3
129	129	3
95	222	5
176	176	9
107	108	1
161	187	1
224	224	3
79	80	12
165	191	10
100	100	7
11	13	3
122	122	8
39	39	5
3	7	3
32	75	2
230	231	3
154	155	2
131	131	3
124	124	1
112	196	5
143	143	17
124	127	5
120	121	1
204	204	2
114	117	1
50	54	1
191	191	3
170	170	6
178	178	2
144	144	5
104	107	3
236	236	4
121	152	3
203	203	4
203	204	3
187	187	3
137	202	1
75	75	3
208	208	7
47	48	2
7	7	2
106	113	4
2	2	2
102	192	3
84	84	5
158	158	7
17	74	3
36	122	2
48	241	1
101	101	9
156	165	3
97	97	5
66	66	1
138	139	5
8	8	4
165	166	3
133	133	2
37	128	1
205	206	1
72	72	3
231	231	4
196	196	8
30	101	3
161	205	2
127	130	1
232	236	1
60	61	4
237	238	1
172	173	2
149	149	6
217	217	8
157	157	6
241	241	6
130	130	2
61	62	2
121	121	6
230	230	1
219	219	3
3	15	2
149	150	3
116	125	1
39	98	2
13	13	3
160	160	3
76	78	2
40	42	6
67	67	5
114	114	3
200	201	5
63	63	3
193	193	4
229	231	3
168	197	2
120	120	10
162	165	1
99	99	4
165	200	1
36	36	2
203	216	4
134	135	1
57	58	3
191	208	1
127	127	8
215	230	1
23	23	7
105	108	1
123	123	6
5	5	2
49	50	1
173	173	5
48	48	6
115	117	3
134	161	7
151	152	4
200	225	1
14	14	5
171	171	1
83	83	3
46	47	4
131	176	2
136	136	6
99	111	1
147	147	4
231	232	4
31	117	1
82	83	2
10	64	2
240	241	1
137	143	2
194	194	2
58	115	2
99	191	1
113	116	5
116	117	1
66	67	1
82	85	2
10	10	8
0	1	2
31	119	2
81	82	3
210	231	1
13	15	6
104	108	3
159	161	3
115	119	3
117	117	2
46	81	1
115	116	1
221	228	2
187	188	3
13	16	1
191	192	2
43	97	1
156	159	2
52	52	1
25	25	2
161	161	5
211	211	5
156	156	2
51	51	3
60	60	2
72	114	1
48	49	1
207	233	1
156	207	2
172	172	4
151	157	2
44	46	1
88	88	4
68	69	1
62	63	3
97	99	1
156	157	1
109	110	2
44	45	3
20	28	2
47	64	1
182	183	8
105	184	4
26	65	3
62	62	1
27	135	1
5	79	3
42	64	2
4	79	2
186	187	2
110	110	3
22	23	1
19	20	1
28	71	2
56	120	1
111	112	4
37	65	1
227	227	1
23	66	2
191	207	1
240	240	3
69	136	4
189	190	2
52	56	1
60	62	1
1	1	4
152	159	1
176	202	1
130	134	1
206	207	1
16	31	1
170	195	1
135	136	3
48	63	1
5	17	3
80	80	1
213	213	1
164	164	2
83	84	3
153	153	2
37	145	3
147	149	2
20	66	2
125	125	1
41	41	1
141	141	5
9	10	1
160	162	1
189	189	3
214	231	1
161	171	1
216	216	2
196	197	1
96	228	2
173	203	1
183	202	2
37	38	1
163	163	1
25	70	1
58	59	1
103	108	4
49	52	3
174	175	1
199	199	1
35	35	1
5	6	1
118	118	1
139	140	2
37	144	1
29	29	2
145	182	1
242	243	1
118	119	1
198	198	1
173	175	1
192	196	1
153	154	1
44	44	2
20	67	1
57	124	1
144	145	2
23	88	1
193	195	1
80	84	2
34	125	1
58	237	1
86	87	1
32	135	1
208	231	1
163	165	1
167	168	1
34	95	1
22	22	1
103	190	1
73	115	2
202	203	1
220	223	1
17	29	1
23	34	1
169	170	1
