2	2	15
37	37	13
45	45	8
74	74	15
13	22	2
65	77	2
56	56	16
33	33	8
80	80	9
7	7	19
1	3	4
73	73	11
38	61	5
34	35	5
61	61	11
71	71	14
68	69	4
47	47	8
31	35	2
0	80	6
62	63	4
8	20	1
11	19	2
77	78	4
9	9	12
75	75	5
30	31	6
30	30	3
22	22	2
13	13	7
29	35	1
75	76	3
9	10	5
30	35	3
18	18	3
37	46	3
59	59	9
10	67	5
53	72	3
69	70	6
53	54	8
65	66	3
64	66	1
43	43	12
16	16	3
35	35	5
28	28	9
27	27	9
46	48	1
36	36	4
63	63	1
61	62	9
32	32	7
12	44	1
69	69	8
6	6	8
14	16	2
39	39	8
58	58	6
13	14	7
10	10	9
48	48	4
56	57	3
52	54	1
51	51	7
49	49	12
26	26	5
14	14	1
77	77	2
26	28	1
42	63	1
26	35	3
64	64	12
42	42	5
8	8	9
55	55	3
31	36	2
16	20	5
56	80	2
76	76	5
8	19	1
46	63	4
5	5	7
42	70	1
9	18	3
38	38	3
62	62	1
38	45	2
28	30	1
40	40	11
51	52	4
54	55	3
41	41	9
57	71	5
54	54	15
29	30	7
21	21	3
79	79	9
10	15	5
29	29	8
15	15	9
7	8	3
60	77	4
32	33	3
79	80	5
54	71	2
38	49	2
33	34	3
5	6	8
34	34	6
17	18	1
66	66	6
56	76	2
17	17	9
78	78	6
3	25	1
73	74	1
51	69	1
28	29	4
67	67	9
68	68	8
60	60	6
31	31	4
6	15	2
31	63	2
57	58	6
42	43	5
3	3	10
52	52	4
40	64	3
52	70	2
11	11	12
0	0	6
65	65	1
71	72	2
63	64	2
55	75	2
28	36	4
8	12	1
50	50	4
4	4	6
67	70	1
70	70	2
72	72	3
46	46	2
10	13	1
32	39	3
50	52	2
74	77	1
47	49	2
18	19	2
8	14	1
44	44	1
57	57	4
78	80	1
49	50	3
64	80	1
39	49	1
3	9	2
74	75	1
12	12	2
30	32	2
10	12	1
26	27	1
41	42	1
37	40	1
66	67	1
8	9	1
54	72	1
47	48	1
67	71	3
42	66	3
37	61	1
1	2	1
56	77	1
19	19	1
14	21	1
19	20	3
42	44	1
1	1	1
10	11	1
53	53	2
14	44	1
20	20	1
76	80	1
37	39	1
12	14	1
55	62	1
21	41	1
25	25	1
68	70	1
