135	135	6
125	125	7
140	140	5
178	178	7
103	105	3
102	137	3
161	161	2
101	145	2
5	5	9
8	9	5
63	66	5
123	123	1
33	33	5
7	7	2
108	155	2
106	113	2
174	174	3
4	4	5
49	59	3
61	61	3
126	155	2
23	23	2
128	128	6
158	158	8
66	67	1
72	72	4
59	59	6
18	18	8
149	149	5
2	31	2
107	107	1
114	114	2
53	60	1
4	20	4
135	136	2
30	168	5
88	88	1
168	168	1
85	85	5
144	144	2
105	105	2
51	96	2
115	117	1
129	129	4
174	175	4
170	170	4
17	17	8
96	96	2
38	38	5
42	42	6
128	129	1
64	66	2
66	66	3
118	121	1
36	36	4
157	157	4
166	174	2
60	60	6
41	98	4
133	133	4
141	144	3
148	148	7
55	56	2
84	115	1
24	24	11
106	112	2
62	62	3
111	156	4
168	169	5
173	175	1
12	13	1
57	57	2
134	134	5
112	168	2
106	106	7
166	166	7
157	158	3
109	109	4
147	147	2
2	2	7
81	84	2
44	73	5
76	114	2
15	45	1
30	31	5
78	79	2
9	9	2
126	172	4
52	54	7
171	171	3
99	99	2
120	120	7
1	1	1
10	89	3
40	42	3
18	68	3
91	92	2
115	115	2
51	51	2
108	108	4
155	155	3
155	173	1
119	119	3
102	103	3
76	77	3
72	115	2
8	19	2
137	137	9
127	128	1
143	143	2
67	67	4
19	35	3
117	122	6
53	124	1
153	153	1
91	91	9
175	175	1
33	36	3
155	156	2
54	54	2
10	10	1
109	167	2
111	168	2
150	153	1
150	150	5
117	118	1
114	115	1
76	76	3
90	90	5
35	35	6
6	6	4
80	81	2
11	11	3
73	73	5
173	174	1
110	110	2
55	55	3
77	106	3
85	91	3
145	146	3
130	130	1
2	4	6
96	139	6
78	78	3
100	136	3
130	151	1
86	86	1
100	100	3
152	153	3
15	63	3
0	5	1
77	78	1
45	45	4
112	112	2
9	21	1
180	180	5
146	146	6
3	4	1
169	169	4
67	92	1
101	102	3
37	37	1
157	167	3
41	42	3
126	167	2
29	29	2
159	159	4
8	110	1
52	98	1
50	50	1
37	38	2
132	132	1
163	163	1
41	41	10
31	31	1
50	56	4
4	5	2
63	88	2
113	113	2
13	13	2
131	131	5
19	19	3
17	18	3
117	117	4
127	127	3
32	121	2
2	3	2
118	118	4
104	105	2
177	177	2
136	136	6
169	170	2
104	104	1
118	119	1
0	40	1
68	68	4
79	79	2
61	152	2
123	131	1
75	135	3
118	161	1
179	179	1
92	92	1
151	151	4
112	179	2
78	134	3
111	165	3
58	58	1
88	89	3
85	90	1
94	94	3
105	106	1
83	85	1
80	116	1
28	28	3
3	3	2
18	86	1
22	22	3
117	161	4
140	152	1
155	158	2
44	63	2
26	161	2
44	44	3
81	160	2
106	107	4
101	101	1
64	155	1
54	99	3
101	144	1
162	162	1
32	32	1
11	39	2
114	116	1
110	111	1
102	136	1
19	20	1
1	12	3
107	108	2
111	166	1
94	174	1
125	131	1
139	139	1
4	12	1
27	27	1
167	167	1
33	34	1
77	131	1
20	89	2
112	132	1
114	117	1
4	36	1
5	6	3
152	172	1
114	154	1
56	56	1
44	72	1
41	51	1
87	87	1
12	148	1
81	170	1
86	101	2
45	46	1
82	82	1
128	173	1
104	107	1
75	75	1
141	141	1
132	133	1
103	103	1
89	90	1
8	8	1
107	122	1
141	163	2
96	97	2
26	168	1
100	162	1
113	164	2
76	78	1
64	156	1
65	65	1
86	88	1
124	124	1
1	2	2
12	41	2
84	84	1
72	136	1
157	159	1
166	167	1
28	127	1
134	180	1
98	98	1
23	67	1
116	117	1
87	149	1
154	155	1
3	46	1
116	167	2
71	152	1
112	164	1
40	40	1
