73	73	8
25	26	5
102	102	7
0	0	4
75	75	7
20	20	4
16	16	6
88	88	16
131	131	4
2	2	7
24	24	3
108	108	2
104	104	6
9	9	3
122	122	13
132	132	5
82	82	2
3	3	7
77	77	6
91	91	13
13	13	4
139	139	4
104	114	2
102	107	1
85	87	2
76	76	3
112	113	4
100	100	14
93	113	1
5	22	1
112	114	2
6	9	1
74	75	3
120	125	2
19	22	4
34	35	9
137	140	3
27	28	6
22	22	9
0	128	5
130	130	1
73	74	6
116	116	6
37	37	1
23	128	4
12	12	2
23	23	15
81	82	3
84	84	5
79	79	4
15	28	3
124	125	3
0	2	3
74	123	4
22	23	4
129	129	4
106	106	7
135	135	4
30	121	4
98	98	6
85	86	3
4	20	1
123	123	12
79	81	3
18	18	8
106	108	3
6	6	3
27	27	1
110	110	1
137	137	12
125	125	6
11	12	5
8	8	2
34	34	5
26	26	4
71	72	1
29	30	1
87	92	4
134	134	6
138	138	6
7	7	14
117	121	1
138	139	3
115	115	3
113	113	4
126	126	2
10	110	2
103	103	2
89	89	3
81	87	4
87	100	2
36	36	5
102	104	1
38	38	4
13	14	1
32	32	1
94	96	2
8	112	3
114	114	4
100	126	2
105	105	17
83	83	3
107	108	5
85	85	3
121	121	2
99	99	3
90	90	8
10	11	8
110	114	1
117	117	5
17	29	2
108	109	2
83	84	4
35	36	1
91	114	7
96	96	3
116	126	2
13	25	4
72	72	1
10	10	1
109	109	2
87	87	8
1	1	7
30	30	2
2	24	2
80	80	2
102	112	1
88	103	1
37	71	2
77	78	2
21	21	2
19	20	4
118	121	2
93	95	3
101	101	5
79	87	2
7	113	1
28	28	5
85	91	3
94	102	2
120	122	4
14	14	1
92	100	2
74	74	4
4	19	1
94	94	2
124	124	1
24	26	1
97	97	8
104	129	1
16	29	2
115	126	1
81	81	4
111	111	2
94	114	3
5	31	1
0	3	3
128	128	1
119	119	3
140	140	1
86	86	2
19	19	1
80	100	1
13	24	2
21	128	2
118	119	2
21	32	2
11	11	2
72	117	2
7	8	1
17	17	1
96	97	1
35	35	1
91	92	1
34	36	1
112	112	1
21	129	1
21	31	1
127	127	1
119	122	1
5	21	1
127	128	2
137	138	1
108	110	1
118	118	2
80	87	1
97	126	1
4	4	1
135	136	1
129	130	1
75	76	1
88	92	1
117	119	1
15	20	1
78	78	1
104	107	1
111	114	1
128	129	1
