157	157	2
124	124	7
60	63	2
123	123	3
11	12	5
71	71	4
39	39	5
188	188	3
189	190	5
100	100	7
46	46	3
93	164	4
144	144	11
43	43	5
31	31	1
150	150	4
19	23	6
72	72	3
170	170	1
86	87	1
89	90	4
132	133	2
58	59	2
35	35	6
74	79	3
21	23	3
10	10	3
145	155	1
12	12	3
15	38	1
3	3	3
58	58	2
163	174	5
40	40	1
78	78	5
171	171	5
94	94	2
20	20	3
93	149	3
45	45	5
133	134	1
130	133	2
147	147	5
59	76	3
77	78	2
120	121	1
142	143	3
141	141	4
11	123	4
161	161	3
37	38	3
71	72	4
138	138	8
142	142	6
128	152	1
110	110	5
178	178	3
128	129	3
16	16	3
163	163	11
156	156	2
15	15	2
165	165	2
30	107	1
32	36	3
29	29	3
158	158	2
30	32	4
172	172	8
70	82	3
179	179	12
36	37	3
44	45	2
148	148	5
25	26	1
29	33	1
37	44	3
164	164	5
185	185	5
31	48	3
61	61	6
87	87	1
148	149	1
127	137	2
181	181	2
136	147	2
103	103	5
89	89	8
90	90	5
159	159	3
114	114	11
4	4	1
132	132	2
5	6	3
174	175	2
23	24	2
145	145	3
95	95	2
73	73	3
151	151	5
143	144	8
89	113	1
97	97	6
94	151	1
141	143	1
185	186	2
150	154	1
57	57	5
30	30	1
26	26	4
160	161	1
152	152	4
167	167	5
34	72	2
39	48	1
23	45	4
150	163	3
16	53	1
52	52	2
115	115	5
76	76	10
119	127	1
64	64	8
154	154	2
105	105	4
63	63	3
60	60	2
55	55	8
128	139	1
138	139	4
102	102	2
18	19	1
153	153	6
44	47	2
17	17	6
59	59	2
68	68	2
21	22	4
114	151	1
2	44	3
18	18	4
67	67	2
176	176	3
77	77	2
169	170	2
81	81	8
16	17	3
22	22	6
64	65	1
117	117	5
155	158	2
81	83	4
155	156	1
117	151	2
12	13	3
113	113	4
10	11	2
172	173	1
44	46	3
169	169	3
44	44	2
188	189	1
160	160	5
175	175	3
177	178	3
7	54	4
88	88	5
48	48	7
146	146	4
46	47	1
92	177	3
99	100	2
36	36	4
6	7	3
125	125	6
187	187	3
84	85	1
27	27	1
57	98	1
41	41	2
93	94	2
111	112	2
42	43	3
1	1	5
70	71	1
126	126	3
61	63	2
112	112	1
97	99	6
13	23	5
157	158	1
94	149	4
123	124	3
26	54	2
75	75	5
125	126	3
122	122	3
136	136	2
98	98	2
92	92	2
109	110	1
99	99	4
40	41	1
11	11	2
171	172	1
26	55	3
13	14	3
25	25	4
63	106	1
109	109	4
140	140	5
136	137	1
47	47	3
16	156	3
129	129	5
168	169	1
183	183	1
113	114	1
174	174	2
38	42	1
41	42	1
60	64	2
38	38	3
24	24	2
94	109	2
56	85	1
117	147	3
5	5	3
2	3	1
184	184	2
119	125	2
96	99	1
121	121	6
33	34	2
149	149	1
19	20	1
133	133	3
53	53	3
129	139	1
59	61	4
184	185	3
82	82	2
63	64	2
14	14	1
34	34	2
58	80	1
155	155	2
116	116	1
14	16	2
143	143	3
148	151	2
181	182	1
8	8	2
135	135	2
22	23	1
159	166	2
59	75	1
111	181	3
20	21	1
0	78	3
54	54	3
68	102	1
19	19	5
187	189	1
65	106	1
180	180	1
129	134	1
2	2	1
93	115	2
8	53	2
159	165	1
190	190	1
0	2	2
110	182	1
37	37	1
81	106	1
180	188	2
27	28	2
128	128	1
129	131	1
32	32	2
62	62	1
42	42	2
128	138	1
157	159	3
13	22	1
70	80	1
139	139	1
96	96	2
166	170	1
26	39	1
79	79	2
58	60	1
160	175	1
29	30	1
165	166	1
14	17	1
140	141	2
146	153	1
55	84	1
56	56	1
67	101	1
85	86	1
79	80	1
105	106	1
84	159	1
6	6	1
120	120	1
139	140	1
83	83	1
117	148	1
173	173	1
4	55	1
108	108	1
94	115	1
