5	6	1
178	179	1
41	41	2
48	48	7
122	122	10
186	186	5
143	144	6
55	115	2
6	6	1
115	118	1
16	16	9
1	1	6
187	188	7
65	65	3
56	56	4
30	30	16
14	26	2
74	74	8
23	27	3
163	163	7
179	180	3
13	13	8
77	78	1
194	194	8
44	44	7
99	99	6
52	52	11
46	50	5
109	116	1
42	42	9
147	160	3
17	57	4
136	136	1
148	148	3
176	176	6
161	161	4
96	97	2
88	88	2
107	107	6
108	108	9
63	63	3
16	35	3
43	46	2
165	166	6
3	3	1
109	109	4
142	142	4
25	25	4
168	168	5
60	60	12
93	93	3
71	72	2
26	26	2
47	48	6
155	156	3
178	184	2
145	146	5
141	146	4
4	4	1
20	20	5
0	0	9
159	159	11
102	102	7
7	7	7
158	158	4
171	171	5
146	148	6
27	28	1
183	183	4
83	83	5
140	140	9
50	50	13
29	60	1
10	11	5
105	105	2
34	34	10
126	126	9
166	166	4
30	31	1
62	63	3
113	113	6
3	4	7
175	177	1
184	184	4
106	107	3
118	118	7
78	78	4
185	186	3
21	21	7
131	131	2
154	154	8
85	109	2
46	46	3
18	18	8
44	54	3
101	101	3
62	62	5
119	120	4
38	120	6
176	179	1
133	145	1
116	116	2
193	193	6
123	123	6
77	80	1
53	123	3
136	137	2
19	19	3
145	167	3
189	189	3
95	95	5
110	110	2
49	52	2
96	96	3
135	141	5
155	155	3
86	86	6
158	159	1
146	146	8
152	152	5
25	26	5
33	33	5
144	184	2
143	154	3
53	53	1
132	132	2
65	79	1
137	149	1
22	30	2
166	168	3
85	85	3
157	157	2
64	64	8
188	188	2
40	40	7
190	190	2
8	8	4
147	152	4
75	83	2
77	77	2
61	61	9
51	51	2
37	38	4
87	87	7
175	175	12
195	195	1
14	16	2
49	117	2
79	80	7
38	38	6
173	174	4
151	151	4
98	98	3
70	71	1
155	172	4
114	161	1
132	133	3
77	107	1
154	155	1
7	60	5
67	67	2
94	96	3
94	95	2
11	11	2
17	17	4
142	144	1
61	62	3
1	58	1
4	10	1
181	181	4
121	124	1
165	165	5
65	104	1
70	70	10
116	129	2
177	180	3
144	144	2
31	31	2
132	146	4
190	191	2
2	3	2
52	119	1
79	79	8
30	70	4
109	110	7
114	162	1
97	107	2
147	147	9
153	153	9
4	8	2
143	145	4
27	27	1
23	23	5
69	69	11
111	111	3
40	41	3
58	63	4
159	179	1
167	167	5
87	165	1
9	9	4
73	73	2
32	33	2
126	142	2
68	68	7
187	193	1
59	59	5
150	150	4
185	194	2
100	100	5
141	141	2
15	34	3
191	191	3
150	152	2
102	103	3
116	130	3
49	49	6
59	60	4
98	99	3
4	24	4
18	42	1
147	163	2
112	112	2
110	111	2
73	110	4
181	195	1
196	196	4
14	15	3
37	37	3
6	7	3
172	174	2
82	82	6
137	137	5
99	126	1
114	116	1
101	102	2
133	133	4
14	14	3
41	42	3
55	55	3
29	29	3
94	160	1
104	104	6
163	172	2
115	115	7
26	27	1
159	160	3
18	19	2
23	31	5
107	108	1
72	73	1
184	196	3
139	139	2
5	5	3
71	71	3
145	145	3
22	27	5
176	182	1
94	94	5
42	43	2
23	29	2
93	95	3
142	143	2
53	124	2
86	87	2
83	85	1
9	10	2
124	138	2
42	53	1
122	124	1
130	130	1
177	181	1
28	28	2
183	193	1
47	47	2
132	142	1
43	51	2
45	45	4
69	97	1
43	43	3
185	190	6
76	80	3
182	182	2
76	76	4
21	30	3
111	116	1
58	58	3
164	164	3
103	103	2
60	61	2
125	167	1
179	183	1
187	187	3
20	21	3
180	180	1
102	104	1
138	138	2
192	192	1
2	59	4
80	80	2
125	126	1
20	115	1
153	155	2
143	143	3
22	22	1
83	87	1
161	162	1
7	8	2
143	173	2
7	25	2
6	8	2
38	67	1
188	189	3
87	88	1
192	193	1
29	30	1
84	86	1
163	167	1
180	181	1
69	70	2
66	66	1
81	82	2
183	197	2
71	79	1
127	127	1
57	57	3
134	135	1
135	135	1
32	32	1
174	175	1
125	125	2
47	50	1
129	140	1
64	96	2
25	55	1
72	90	2
123	138	1
177	177	1
121	121	3
40	67	3
44	45	3
1	2	1
126	141	1
19	21	1
172	172	1
189	191	1
174	174	1
38	56	1
185	185	1
192	196	2
136	197	1
103	104	1
94	100	1
100	102	2
6	60	1
54	54	2
173	176	1
34	35	1
149	150	1
119	119	1
42	44	1
126	127	3
89	109	1
39	39	1
162	188	1
127	141	1
1	3	1
5	7	1
41	55	1
81	81	1
15	15	1
106	108	1
10	43	1
73	86	2
196	197	1
161	167	1
97	97	2
115	116	1
71	96	1
65	66	1
2	29	1
34	36	1
10	10	1
134	137	1
149	149	1
176	185	1
158	175	1
177	184	1
0	1	1
128	138	1
