100	100	6
35	42	7
157	157	9
88	88	6
32	33	3
13	13	22
12	12	9
81	122	4
14	14	9
46	46	18
47	47	34
30	30	17
111	112	2
16	64	5
116	142	4
53	85	11
23	23	16
148	148	11
144	145	4
67	72	2
71	71	12
117	118	6
9	9	7
86	86	18
135	135	12
77	80	6
32	32	18
116	117	16
106	107	10
117	117	13
67	67	4
92	93	11
38	40	3
141	141	9
137	137	18
28	28	6
149	151	4
48	49	10
140	140	9
68	95	10
87	87	9
22	22	20
49	49	12
57	57	6
108	108	2
131	132	6
120	120	18
79	79	10
109	109	15
114	114	14
111	111	22
89	89	11
116	116	9
102	102	4
107	107	8
36	36	9
19	19	3
52	55	7
68	97	6
53	92	1
77	77	22
119	119	19
145	145	12
80	83	3
78	78	11
158	158	7
93	93	7
133	134	6
110	119	4
54	92	10
42	42	11
84	120	2
151	152	3
138	138	15
83	83	4
157	158	1
90	91	7
134	134	15
114	115	4
151	151	11
95	95	11
12	13	5
130	130	3
4	4	8
53	53	16
7	7	2
129	130	14
131	131	17
11	12	6
81	81	11
143	143	8
105	145	3
82	82	21
55	63	4
15	15	22
0	0	9
26	26	12
19	20	10
38	38	6
128	129	4
97	97	7
13	14	6
75	75	16
51	54	6
99	99	6
26	27	2
85	85	12
156	156	15
66	66	6
3	4	3
107	146	2
146	147	2
113	137	4
122	122	8
5	5	8
79	85	4
49	50	3
155	155	9
70	70	6
23	24	2
29	33	3
67	71	2
115	115	2
96	97	5
33	33	8
24	48	6
69	69	7
33	34	2
119	121	2
130	132	4
111	116	3
27	32	4
92	92	11
121	121	5
11	11	3
130	131	4
0	23	13
146	146	15
62	129	2
87	118	2
42	43	1
64	64	3
17	63	3
40	40	10
99	131	1
31	31	14
50	50	2
137	138	5
113	141	4
17	17	15
153	153	3
6	6	8
80	82	2
91	134	8
84	85	7
101	101	7
103	103	5
36	85	1
97	98	6
56	64	3
1	4	3
43	43	11
147	147	10
142	142	1
34	34	17
37	37	12
65	66	6
6	11	1
20	20	6
8	8	9
90	90	14
153	154	3
85	86	3
21	21	19
136	136	8
40	41	10
16	16	12
2	2	14
144	144	9
135	136	4
139	139	8
44	45	5
124	124	3
95	97	12
83	85	4
110	110	5
63	63	2
84	119	9
18	19	5
49	63	4
39	39	5
145	146	1
126	127	9
67	68	3
88	90	4
155	156	3
62	62	2
28	47	3
105	105	12
132	134	1
159	159	4
123	123	7
106	106	8
98	98	15
18	21	2
44	44	5
82	119	2
91	91	9
107	147	4
52	52	14
10	11	1
104	104	14
29	29	7
27	28	2
68	96	3
126	126	8
49	51	2
52	53	4
45	46	1
125	125	6
81	120	2
7	21	1
68	68	9
154	154	11
69	70	6
132	132	5
24	24	3
113	140	1
114	140	2
113	115	1
55	56	2
70	71	1
80	80	2
105	107	2
15	16	2
3	3	5
29	30	7
39	40	2
41	41	15
128	128	15
18	18	3
56	56	5
84	84	6
151	153	6
35	37	2
31	32	3
54	54	17
50	51	5
125	126	2
81	82	2
118	118	10
53	54	12
25	25	9
7	8	4
149	150	1
150	150	5
0	57	2
85	125	4
54	55	1
17	19	2
21	22	1
51	52	2
76	78	2
113	142	1
24	47	1
93	94	4
10	10	7
33	35	1
85	119	3
129	129	5
67	95	4
89	92	3
73	73	6
124	125	4
35	48	1
48	48	6
152	153	3
1	1	7
129	131	2
17	18	2
41	43	1
113	143	4
94	94	3
155	158	7
72	72	3
139	140	1
102	103	1
45	47	1
18	20	4
100	101	2
110	111	5
156	157	4
111	113	1
27	27	12
88	89	3
79	125	1
154	155	1
115	141	3
82	122	1
55	55	2
7	14	2
145	147	3
122	123	2
14	15	4
86	126	2
45	45	5
50	56	1
94	95	2
67	96	2
137	139	2
27	44	2
101	102	3
149	149	2
23	25	1
16	18	2
81	121	8
132	133	1
36	79	1
127	127	4
25	26	4
39	42	3
90	134	1
78	79	3
1	11	1
96	96	1
8	9	2
35	35	3
103	104	1
24	25	2
84	130	1
108	109	4
17	64	1
9	10	2
47	48	2
33	48	1
142	143	2
65	96	1
17	56	5
83	84	4
77	78	3
65	65	3
112	112	4
78	85	1
8	10	1
112	113	3
82	121	1
11	13	2
3	5	1
51	75	3
141	142	4
88	118	1
79	80	1
46	47	1
108	120	1
80	124	1
1	3	1
51	51	5
70	95	1
113	113	2
87	129	1
134	135	2
1	2	1
104	105	1
86	87	1
117	133	1
72	96	1
4	5	1
8	20	1
82	83	1
81	83	2
25	30	2
107	143	4
105	147	2
142	145	1
140	141	1
75	76	1
96	98	1
32	35	1
73	98	1
66	68	3
136	137	1
20	21	1
0	24	1
52	54	1
111	118	1
117	130	1
41	42	1
68	69	1
50	78	1
113	118	1
154	156	1
115	116	1
