79	89	2
27	28	2
160	160	8
161	161	8
116	116	3
168	169	11
34	34	5
91	91	7
197	197	11
185	185	10
84	84	6
95	100	5
173	174	2
177	185	1
40	40	18
116	118	2
114	114	4
59	59	3
190	190	1
201	201	6
175	177	3
3	3	1
93	93	4
31	31	5
224	224	15
209	210	1
88	88	10
212	213	7
15	15	8
235	235	7
19	20	4
181	181	10
36	203	2
7	7	11
46	46	18
241	241	14
230	230	7
194	195	4
179	179	9
32	153	3
21	21	12
188	189	3
113	113	11
109	109	6
212	226	1
167	167	3
168	168	14
94	114	1
212	212	9
51	51	9
205	205	9
54	61	4
178	178	5
43	44	3
56	57	3
35	36	2
32	32	5
80	84	6
92	92	4
33	33	7
188	188	6
26	26	6
229	229	14
117	117	3
237	237	9
89	89	5
196	197	1
246	246	7
95	96	1
200	201	2
71	71	7
213	213	7
87	87	11
95	113	1
163	165	2
112	117	1
49	208	1
159	160	4
110	110	8
114	145	3
227	227	6
145	145	3
214	214	5
177	177	6
178	196	1
175	175	5
208	210	3
150	150	13
27	27	7
243	246	2
153	153	8
5	15	2
54	54	6
21	22	2
112	112	3
84	85	1
25	25	9
182	182	8
242	242	2
67	233	1
85	85	6
192	192	6
209	209	4
151	151	11
30	153	2
44	44	9
47	47	13
170	170	2
100	100	2
195	195	7
211	211	5
69	69	7
200	200	3
23	23	5
186	186	5
213	214	1
0	1	1
115	115	2
63	63	8
38	153	2
163	163	8
159	159	2
164	164	14
177	197	1
45	45	2
19	19	9
78	79	1
95	95	5
69	70	1
41	41	4
221	221	7
70	70	7
53	53	7
194	196	4
24	25	2
49	65	1
2	2	4
114	144	4
3	20	1
193	220	1
38	38	12
165	165	8
111	112	2
87	88	1
4	20	2
102	102	6
96	96	3
60	60	5
17	17	6
85	86	5
222	222	4
114	115	1
39	40	3
243	243	6
93	104	1
4	4	2
86	87	4
182	183	3
65	65	5
68	68	9
93	105	6
29	29	17
75	86	3
86	86	3
11	13	1
244	244	8
120	120	1
70	71	2
231	233	1
12	12	1
240	240	3
171	171	9
169	169	3
209	223	3
108	108	8
245	245	4
91	97	1
163	166	1
226	226	1
119	119	3
42	43	3
82	82	4
14	14	3
176	176	5
6	6	4
203	204	2
75	75	1
5	18	1
47	50	4
156	156	8
210	210	3
233	233	4
42	42	1
174	174	2
20	20	2
155	155	8
238	240	2
157	157	2
97	97	3
216	216	6
66	66	4
24	24	4
78	228	1
3	4	2
37	201	2
11	11	7
184	184	5
207	207	1
111	111	5
61	61	5
187	190	1
101	101	3
180	180	5
189	189	6
15	20	1
236	236	7
193	232	4
47	51	2
203	203	5
10	10	14
170	171	1
44	45	4
40	228	4
195	220	2
57	57	8
154	155	1
50	50	2
163	164	1
174	175	3
72	72	11
72	73	3
6	15	1
0	0	1
202	202	2
66	208	2
56	56	4
215	215	2
33	153	2
75	76	1
94	147	1
223	231	2
201	202	2
157	158	2
213	237	3
213	236	3
204	204	4
81	85	1
198	198	4
47	48	1
9	9	3
191	191	4
37	38	2
192	230	1
90	90	5
58	59	1
162	162	2
158	162	4
23	24	1
228	228	1
232	234	1
156	157	3
228	229	4
38	39	2
239	239	2
181	182	2
221	232	1
14	15	1
225	225	4
147	147	1
158	158	6
208	208	4
67	67	6
232	233	1
62	62	5
220	234	3
92	100	1
38	152	3
68	75	1
37	37	2
60	64	2
192	195	2
218	219	4
94	94	1
52	52	7
146	150	2
32	154	1
48	48	1
220	229	1
76	76	1
17	21	2
158	161	2
207	222	3
205	231	2
107	107	2
237	238	1
61	64	1
223	226	1
232	232	5
32	182	1
238	238	2
57	58	1
199	237	1
178	195	3
90	180	2
31	95	6
24	43	1
93	106	3
146	146	1
39	39	4
92	93	1
144	145	2
106	106	7
59	60	4
34	153	4
54	56	1
214	237	1
118	118	1
152	153	1
67	230	2
39	178	2
206	206	2
244	245	1
55	55	4
50	65	2
65	71	2
183	184	3
200	215	1
154	154	8
99	99	5
231	231	5
193	196	1
219	219	5
146	147	1
237	239	3
177	178	1
220	220	3
41	227	1
95	98	2
83	84	2
209	243	2
188	190	2
105	105	3
196	196	2
84	87	1
35	37	1
218	218	1
153	154	4
193	194	5
7	25	1
42	44	2
43	43	5
184	198	2
217	217	4
173	173	2
178	197	3
34	35	2
56	58	1
36	36	4
34	152	1
98	98	2
247	247	3
39	152	2
219	220	3
79	79	2
1	1	2
104	104	1
194	234	1
28	28	3
38	182	4
32	150	1
8	27	2
84	89	2
35	35	1
187	189	2
248	248	1
206	222	2
215	219	1
18	18	1
31	151	1
110	145	2
167	199	1
194	219	1
230	233	2
30	32	1
83	83	1
64	64	1
16	16	2
51	206	1
225	241	2
79	80	1
7	8	1
82	151	2
8	8	1
90	96	1
225	226	2
183	183	1
184	197	1
45	53	2
6	173	1
41	203	1
18	20	1
22	22	1
78	78	3
242	243	1
67	70	1
213	235	2
224	225	2
29	150	1
6	24	1
193	193	2
63	72	1
62	206	1
199	199	3
115	118	1
77	77	1
215	240	1
217	236	1
60	61	1
178	182	1
60	74	1
38	202	1
178	194	1
46	66	1
172	172	1
223	223	1
34	39	1
49	49	2
234	234	2
216	235	1
158	159	1
39	151	1
164	167	1
90	91	3
229	231	1
118	119	1
193	234	1
78	193	1
31	33	1
86	228	1
215	236	1
182	185	1
226	227	1
47	63	1
25	32	1
