40	53	1
154	155	6
76	76	22
23	23	13
8	8	11
19	20	7
165	165	18
109	109	16
139	139	19
186	186	11
12	12	26
147	147	9
163	175	4
188	188	22
58	82	2
27	40	2
75	90	3
88	88	13
140	140	16
84	84	15
117	117	20
69	69	3
181	188	2
177	179	1
141	141	22
160	185	1
129	129	17
112	112	19
88	93	5
145	146	8
91	91	12
48	48	18
79	79	24
168	169	3
20	20	22
115	118	4
77	77	28
130	130	14
10	19	5
94	94	13
81	82	9
144	144	10
143	150	6
153	153	32
24	24	16
79	80	8
60	63	3
124	125	9
20	25	1
183	183	18
156	156	12
43	43	18
103	103	11
124	124	27
117	121	4
31	31	19
54	83	3
3	84	2
125	125	9
166	166	22
56	58	1
13	13	12
126	126	18
31	41	4
56	57	5
7	30	1
116	117	3
180	181	6
159	159	8
73	79	4
111	112	2
172	175	8
133	134	5
0	10	3
37	37	17
87	87	12
129	155	3
56	56	21
81	81	24
88	98	2
116	116	10
106	108	3
3	3	11
160	170	2
138	138	25
63	64	10
22	22	12
175	175	21
145	145	7
160	161	5
70	72	5
73	73	18
78	78	9
155	155	15
54	60	3
158	190	2
41	41	31
90	109	2
90	90	16
136	137	20
151	151	38
14	17	1
183	184	6
118	119	6
142	170	2
127	127	14
32	32	16
120	120	9
58	60	10
169	169	26
146	146	15
61	75	6
70	70	10
30	44	4
117	190	4
67	67	17
132	132	15
6	6	13
44	44	16
108	109	5
163	163	12
15	15	17
20	24	3
85	85	15
62	62	16
128	128	23
68	68	14
133	133	8
74	152	1
148	148	17
35	36	8
138	167	3
13	14	3
115	115	9
20	23	2
10	11	7
185	185	19
155	161	2
14	14	16
101	101	26
143	146	4
34	47	2
180	180	18
75	81	3
176	176	23
42	42	21
127	128	7
122	122	25
137	138	3
93	93	7
88	118	2
105	105	11
150	150	8
148	150	10
92	95	6
34	34	14
27	27	22
17	17	8
27	37	2
178	189	1
72	72	9
59	59	13
59	68	6
46	46	9
12	14	3
69	82	2
170	174	2
141	154	3
74	74	13
6	8	4
1	48	5
162	162	18
173	175	1
172	186	3
58	59	8
29	43	1
174	181	1
160	160	21
58	73	5
61	61	10
47	47	13
39	39	34
10	26	7
96	96	24
70	71	7
89	89	14
125	184	1
6	10	5
66	66	17
25	26	3
131	133	4
141	149	2
158	158	16
92	94	3
181	182	5
127	148	2
64	64	23
178	178	10
80	80	9
138	139	10
87	166	2
60	60	16
57	57	23
108	108	13
113	113	18
102	114	2
149	149	18
146	148	6
107	122	1
112	125	6
4	4	14
56	65	1
180	186	2
107	113	2
164	164	15
142	143	9
114	145	3
161	178	4
97	99	2
41	42	10
129	133	4
36	44	2
81	93	4
131	132	5
171	184	1
11	11	20
18	18	13
13	34	1
161	161	17
19	19	8
72	94	3
0	2	2
5	55	2
67	71	2
22	23	9
41	45	3
73	85	4
179	186	3
122	123	10
55	67	1
182	183	8
114	114	18
68	130	6
104	104	12
153	154	8
32	34	4
75	78	2
4	18	3
173	173	15
75	75	16
66	67	9
25	25	22
82	82	21
13	42	2
154	154	17
160	162	6
176	180	2
5	6	2
35	35	25
43	55	4
101	103	2
56	67	2
78	80	3
113	125	2
53	54	5
57	101	3
106	106	14
122	151	3
175	181	3
38	38	15
77	78	4
107	107	10
39	40	2
93	94	9
3	10	2
109	110	8
117	118	4
149	151	7
28	29	3
123	133	4
185	190	2
102	111	4
45	46	1
87	105	4
55	63	3
2	2	11
170	171	2
139	146	3
110	128	2
26	34	7
118	145	4
67	69	5
2	25	3
16	24	1
24	133	2
96	111	4
22	38	6
142	142	11
38	47	4
29	29	19
5	169	1
25	109	2
15	26	3
107	132	1
18	19	4
171	173	3
177	177	15
53	53	13
77	104	3
96	112	1
111	111	15
190	190	12
81	100	1
67	68	10
145	154	6
75	94	3
14	37	4
86	86	18
61	73	1
147	178	5
65	66	3
155	156	6
0	6	1
123	123	12
129	134	3
30	30	22
103	118	2
36	42	4
77	151	3
186	189	2
169	182	3
76	83	2
146	147	4
58	58	13
63	66	1
157	158	6
121	121	12
90	91	6
157	157	14
16	16	19
107	147	7
100	100	14
26	26	20
10	23	11
78	94	2
63	71	1
123	128	2
184	184	20
112	113	8
55	55	9
45	45	12
28	28	5
135	135	4
79	95	2
107	123	3
139	152	3
63	63	12
46	83	4
167	167	12
9	9	7
130	144	1
64	65	3
158	181	1
182	182	22
134	145	3
125	131	3
152	152	12
73	146	6
131	134	2
23	24	4
33	33	9
13	16	2
10	10	16
29	111	2
136	139	2
164	166	3
87	99	4
118	118	15
104	108	1
13	19	2
27	31	8
177	189	3
104	120	3
151	161	2
42	44	7
78	91	2
87	106	3
57	62	3
75	87	1
92	92	10
129	137	4
6	25	1
86	88	3
73	76	1
174	175	8
179	179	7
174	174	19
168	168	15
0	0	8
58	65	3
140	142	2
86	101	3
4	159	1
36	36	12
134	134	11
94	104	1
129	141	1
82	93	2
54	104	2
135	172	2
59	65	1
130	143	2
68	72	1
100	127	1
25	110	6
148	170	1
45	48	2
57	67	2
0	1	4
148	180	1
107	112	1
99	99	11
80	93	5
55	106	1
32	45	2
115	128	1
186	188	1
13	53	2
65	65	17
33	34	4
0	4	2
60	72	5
14	16	5
174	187	3
73	96	2
137	159	1
130	148	1
188	189	3
55	83	3
16	20	1
74	173	2
1	1	6
147	148	3
17	42	1
119	119	5
13	40	3
173	187	1
31	47	1
21	23	6
71	71	11
102	102	24
175	182	2
126	143	3
28	30	5
167	168	3
111	147	1
49	49	2
15	27	6
108	120	2
38	45	3
107	114	2
170	181	1
177	178	5
75	76	8
65	169	4
54	56	1
66	139	2
91	110	3
136	138	1
86	102	2
107	120	1
141	142	7
158	161	1
93	111	1
168	183	3
82	98	5
22	31	2
144	146	2
119	124	4
91	109	3
105	106	7
157	173	1
158	159	8
162	167	4
56	89	1
75	77	1
111	114	2
138	165	2
155	185	1
166	188	1
120	124	1
135	178	2
23	46	1
95	96	3
70	83	1
86	96	5
33	47	6
100	126	4
151	159	4
121	150	4
148	162	1
111	131	3
53	79	2
91	95	3
113	129	2
183	186	4
83	84	3
55	103	1
128	141	1
103	104	1
54	54	10
71	148	2
151	160	7
128	129	2
40	40	10
115	145	1
110	110	8
75	93	5
175	178	1
12	13	7
166	167	6
85	86	2
7	7	2
108	131	1
89	104	2
134	153	5
109	136	1
158	171	3
57	167	1
52	52	1
144	147	1
138	140	1
44	54	1
143	143	5
87	95	3
29	42	3
22	39	2
156	157	10
158	182	1
135	142	3
126	136	1
8	87	1
53	104	1
152	153	6
121	122	2
167	171	3
114	115	10
106	125	4
181	181	10
83	89	3
132	135	1
135	144	3
10	24	1
24	27	7
36	37	2
131	137	1
7	8	1
126	128	2
105	112	2
42	46	3
135	136	6
169	184	3
106	107	2
1	9	3
160	163	4
28	38	3
163	185	3
10	27	5
145	153	3
99	106	2
5	13	2
7	26	2
155	173	2
124	132	4
152	158	5
160	174	2
123	124	3
111	115	4
62	134	2
168	172	4
97	97	9
64	67	1
96	99	2
107	108	7
146	152	2
187	187	7
161	167	1
121	143	3
14	15	10
44	47	3
136	136	6
14	18	1
95	95	9
20	21	6
46	96	4
160	172	1
65	69	1
71	140	2
72	80	2
137	137	7
103	109	1
167	175	2
1	8	4
156	158	1
1	4	2
173	174	6
56	85	1
58	71	3
134	139	3
84	95	2
102	103	4
77	88	3
71	72	6
160	183	1
150	153	1
131	131	13
20	113	3
138	168	2
18	27	1
48	64	1
185	186	1
80	87	4
83	83	13
170	170	18
64	155	1
125	133	1
37	38	2
137	163	1
53	58	3
113	127	1
3	4	2
15	18	1
93	103	1
69	70	1
158	160	3
189	189	4
136	165	2
18	32	1
32	48	5
120	141	2
126	127	5
54	55	6
189	190	6
59	63	1
5	18	2
141	163	2
94	96	3
41	49	2
122	157	1
58	61	4
171	171	8
184	186	3
83	167	2
111	113	2
101	102	11
96	104	1
34	35	4
61	165	2
24	39	3
86	92	2
116	123	1
74	75	2
151	182	4
159	169	3
24	40	2
124	131	1
164	183	2
2	24	2
141	165	6
102	107	5
96	108	1
57	85	2
132	133	4
80	81	3
78	108	4
32	33	6
20	22	2
5	5	5
3	7	1
56	63	1
8	10	2
170	186	3
12	18	3
110	111	5
74	174	3
160	171	2
112	129	2
96	107	1
57	122	3
92	102	1
89	96	3
70	79	2
2	5	3
136	180	2
143	176	1
54	77	1
62	83	1
72	73	8
131	136	7
16	53	1
134	149	7
113	114	2
5	54	3
5	12	2
112	149	1
42	48	1
27	28	5
6	7	4
104	105	2
97	108	2
30	31	5
155	160	2
122	139	2
84	125	2
156	164	4
156	173	2
178	180	1
130	134	3
151	163	2
76	81	1
109	151	2
165	183	2
10	22	3
144	176	1
62	63	5
113	131	1
79	86	4
104	125	4
97	110	1
4	8	3
34	40	1
43	53	1
184	185	1
129	154	3
39	41	2
88	104	3
32	37	2
130	135	1
173	181	2
44	45	6
143	144	3
27	44	1
86	94	1
97	98	5
34	37	2
41	47	1
61	147	1
161	163	1
37	48	2
181	185	3
6	22	2
179	188	4
19	30	2
145	150	1
120	122	1
46	48	2
98	98	5
8	129	2
21	30	1
98	99	2
74	170	4
21	21	11
11	135	1
172	172	7
137	151	1
29	30	7
8	11	1
177	190	4
148	152	2
78	155	1
26	27	2
97	100	1
17	25	1
150	151	6
28	42	3
82	83	4
62	161	2
57	61	1
114	117	1
179	180	5
118	126	3
178	185	1
37	113	3
131	143	1
79	104	1
53	71	2
143	165	1
21	39	2
33	36	2
37	123	1
140	141	2
78	83	2
90	95	3
169	185	3
16	27	2
6	18	1
37	45	2
26	37	1
125	126	3
79	81	1
76	140	1
158	185	1
109	115	2
54	67	1
18	21	2
132	139	2
96	132	2
9	118	4
78	104	2
76	148	1
85	96	2
61	143	1
30	48	1
24	29	1
72	155	3
148	155	1
16	17	4
4	6	3
72	95	1
46	47	2
187	188	5
59	60	2
62	145	3
108	133	1
149	150	4
161	162	3
78	96	1
7	29	2
61	77	2
2	4	4
60	143	2
134	143	4
60	73	1
87	88	3
57	58	3
64	81	2
118	175	1
89	119	1
57	77	1
83	98	2
12	24	1
169	177	2
79	92	1
138	166	2
148	149	6
101	119	1
86	103	2
117	120	4
136	153	2
108	166	2
105	110	1
76	89	1
39	128	1
16	33	2
165	166	3
17	35	1
174	186	2
2	6	1
57	121	2
92	93	1
179	181	2
6	15	4
88	95	2
82	102	1
33	48	1
150	175	1
160	175	3
30	36	5
21	26	1
7	21	1
139	153	1
156	159	3
14	99	2
130	131	1
100	103	1
106	122	3
151	179	2
167	189	2
123	132	1
35	45	2
67	76	1
115	116	1
91	102	3
151	164	1
112	121	2
33	37	1
72	166	1
96	110	1
129	139	1
87	104	1
28	31	1
21	22	2
40	147	1
63	131	1
21	45	1
43	44	3
149	175	3
24	37	1
39	48	3
122	125	2
130	137	1
7	20	1
173	190	2
144	177	1
36	38	2
174	176	3
124	145	2
85	88	1
67	84	1
89	101	1
61	87	1
172	174	3
18	36	3
21	29	1
99	130	4
149	163	1
115	119	2
62	85	1
160	178	3
84	85	2
130	133	4
57	100	4
57	59	2
12	42	2
53	72	1
124	184	3
130	146	1
17	107	1
121	134	1
8	13	1
154	159	1
21	28	2
12	27	1
10	86	1
80	99	1
31	45	1
85	98	1
30	120	1
15	16	1
29	37	3
133	145	1
37	140	1
114	118	1
148	160	1
139	140	1
8	22	2
146	165	2
22	25	1
175	176	1
46	72	1
104	107	1
14	27	1
57	63	1
90	104	2
55	56	4
65	76	1
141	164	1
164	167	1
179	190	2
96	97	1
93	107	2
7	13	1
102	146	3
63	170	1
57	70	1
114	173	1
79	100	2
136	163	1
165	175	2
93	161	1
131	139	1
73	74	1
1	117	1
127	136	3
133	166	1
9	18	1
112	147	1
36	39	1
122	144	1
108	143	1
88	116	2
11	14	1
2	8	2
99	120	1
41	63	1
4	5	1
140	158	1
90	107	1
61	74	1
108	127	3
3	6	2
20	26	1
96	101	1
178	184	2
117	135	1
86	99	4
158	165	1
98	107	1
143	161	1
4	96	3
157	171	1
5	25	1
144	166	1
75	82	2
33	38	1
146	149	1
12	122	1
24	26	5
15	28	1
8	25	1
157	186	2
97	101	2
61	63	2
129	140	2
57	64	1
113	118	1
7	10	1
121	126	2
71	81	3
144	145	1
21	25	1
135	137	1
32	36	1
165	185	1
29	46	1
45	63	1
133	143	1
66	70	2
181	183	1
79	84	1
21	42	2
10	14	2
89	113	2
158	166	1
151	152	1
118	120	1
151	162	1
5	21	1
113	123	1
42	62	1
140	154	1
83	85	3
119	120	2
168	184	1
71	77	1
90	100	1
89	90	1
79	89	1
158	188	1
10	35	1
109	125	1
123	143	1
121	132	1
60	65	2
31	32	1
87	109	2
1	3	1
87	131	1
18	111	1
93	112	1
43	48	2
108	136	1
188	190	1
8	24	2
111	139	1
16	35	1
69	138	1
101	107	1
24	135	1
31	170	1
72	170	1
89	95	1
148	179	1
78	110	2
186	187	1
52	53	1
35	39	1
140	151	1
11	12	2
19	23	4
159	161	2
46	98	1
134	135	1
97	114	2
29	149	1
145	151	1
80	97	1
133	164	1
34	49	1
78	86	1
14	19	1
21	38	1
3	17	1
7	11	1
163	165	1
70	90	1
164	165	1
124	143	1
38	39	1
59	61	1
34	64	1
64	147	1
90	93	1
72	74	1
111	116	1
108	124	1
53	55	1
33	44	2
150	163	1
26	85	1
74	95	1
166	168	1
37	46	1
129	131	1
13	35	1
85	95	1
162	177	1
169	186	1
12	19	1
144	165	2
95	108	1
27	29	1
140	155	1
170	188	1
57	73	2
180	182	1
41	53	1
159	160	3
109	120	1
92	103	1
95	103	1
107	128	1
105	116	1
71	139	1
110	113	1
163	176	1
105	111	1
29	40	1
163	169	1
22	26	1
66	73	1
89	94	1
66	153	1
142	149	1
94	119	1
16	34	1
74	140	1
13	100	1
135	138	1
98	124	1
48	49	1
24	36	1
158	180	1
74	106	1
141	175	1
63	65	1
40	42	1
149	161	1
141	176	1
2	3	1
116	143	1
25	30	1
122	131	1
166	182	1
150	177	2
24	25	1
94	118	1
98	108	1
56	98	1
168	186	1
138	163	1
71	78	1
