119	119	7
90	93	4
102	103	1
98	102	1
127	135	4
94	94	4
154	154	2
135	145	1
8	19	4
129	138	3
42	42	4
23	25	5
16	16	2
55	57	1
151	158	2
142	147	1
18	18	10
148	148	3
112	112	3
32	77	3
33	41	1
105	106	5
128	130	3
147	149	3
69	75	2
115	126	1
110	116	5
3	6	2
15	16	1
41	43	4
25	25	1
118	120	2
158	158	5
118	128	2
71	71	7
153	153	5
138	138	5
52	52	3
6	6	5
86	96	1
129	132	2
1	2	2
0	0	1
98	99	7
144	150	4
2	2	1
122	122	1
85	99	2
98	98	4
41	41	3
69	71	1
14	15	4
121	121	5
137	138	2
68	77	4
46	46	1
36	54	2
118	119	5
156	157	5
135	147	2
146	152	1
132	134	4
31	91	1
110	110	4
129	131	1
76	87	2
64	71	1
36	38	3
48	49	2
47	56	4
39	40	2
77	77	3
29	44	2
118	130	2
139	139	2
15	17	1
22	25	2
17	17	4
44	53	1
115	118	5
135	135	1
152	154	2
103	103	2
38	42	2
155	155	3
19	21	1
139	140	2
14	17	1
89	89	6
0	4	1
50	51	2
80	90	2
94	121	4
120	124	2
8	9	1
8	22	1
43	52	4
54	54	4
13	22	6
9	9	2
47	50	1
12	12	1
87	87	3
117	119	1
26	40	5
123	129	1
89	103	2
19	23	2
69	69	6
95	98	1
31	44	2
122	135	2
31	31	3
38	46	3
41	44	1
52	53	2
40	82	2
6	102	1
96	96	3
115	115	1
110	111	2
71	82	1
23	26	2
15	15	5
93	94	4
49	49	1
109	131	2
4	6	4
105	108	3
3	4	7
38	44	3
88	97	3
107	112	1
41	42	2
135	137	4
67	69	2
83	85	1
83	84	4
70	81	1
77	78	1
28	44	2
7	7	5
37	37	4
28	30	1
99	99	3
39	44	1
122	130	2
56	56	2
0	1	3
91	96	1
75	75	1
14	24	1
138	139	1
118	121	2
140	140	2
133	145	1
14	14	4
80	85	4
83	94	1
141	158	1
88	93	1
76	81	2
35	35	1
90	105	1
21	114	1
140	148	2
26	28	1
31	90	2
79	91	1
144	159	3
24	32	1
8	21	2
9	28	3
130	133	1
101	109	2
115	124	1
146	154	2
152	158	2
151	153	2
148	152	3
33	107	1
123	124	1
95	96	1
24	27	2
134	135	2
57	62	3
87	90	1
111	111	1
113	115	1
74	74	3
78	92	2
26	33	6
30	33	1
134	134	7
1	1	2
12	13	4
29	29	1
4	4	2
54	55	3
7	10	2
33	37	4
82	82	2
13	27	3
3	5	1
142	145	1
138	140	2
10	10	2
116	116	2
122	138	1
35	37	1
38	41	2
118	129	1
3	7	1
33	43	2
11	18	1
153	158	3
36	48	2
73	73	2
20	37	3
5	5	1
27	28	1
93	100	1
40	44	3
107	122	1
131	131	2
122	124	2
156	158	1
36	41	3
67	67	1
51	52	5
0	12	2
139	150	4
47	47	3
113	116	4
150	150	2
76	79	1
154	157	3
101	103	1
38	38	4
68	68	2
10	13	1
39	43	1
125	135	3
132	146	1
86	109	2
8	8	3
131	142	1
132	132	3
6	19	1
25	36	1
150	154	2
86	95	1
116	122	1
81	81	2
62	67	4
84	102	1
106	113	1
26	41	2
51	56	1
47	51	2
75	77	2
65	69	1
92	101	2
31	82	1
50	52	1
79	79	2
87	95	2
53	57	1
24	34	1
149	150	1
50	50	2
83	90	3
19	28	2
136	147	2
81	87	1
32	48	1
85	94	1
62	64	4
119	120	1
104	104	1
126	127	1
124	132	1
69	70	1
108	113	2
88	89	1
80	82	1
105	107	1
27	30	1
25	27	2
30	30	2
125	128	2
21	22	1
46	93	1
138	146	1
9	12	2
107	107	1
33	39	1
0	15	1
17	23	1
89	91	1
75	78	2
91	91	2
36	46	1
111	131	1
1	3	1
1	5	1
137	142	2
135	136	2
129	140	1
140	149	1
101	101	1
25	39	2
62	63	2
104	106	2
48	50	2
108	109	2
110	119	2
91	93	1
26	26	3
71	79	1
14	16	3
72	73	1
31	108	1
3	3	1
38	39	2
120	120	2
86	86	2
19	34	3
79	84	1
48	51	1
30	46	1
117	117	1
122	125	2
10	34	1
57	57	1
81	88	2
103	111	1
9	116	1
77	82	1
107	113	1
28	34	1
155	156	1
117	120	2
88	88	1
87	101	1
159	159	1
118	126	1
132	152	1
51	55	2
123	125	1
20	20	1
92	105	2
126	132	1
141	141	2
11	20	2
25	31	1
120	121	1
98	101	1
21	28	1
42	45	1
11	17	1
78	93	1
17	21	1
107	111	2
141	145	2
143	144	2
94	119	1
147	147	2
66	67	1
82	96	1
107	110	1
2	3	1
140	142	1
148	150	1
117	124	1
9	135	1
1	20	1
119	122	1
91	102	1
114	126	1
158	159	1
118	118	1
102	107	1
36	36	1
100	103	1
73	74	1
86	90	1
109	110	1
105	109	2
108	108	1
25	41	1
134	142	1
11	26	2
19	39	1
8	11	1
127	127	1
146	147	1
45	46	1
124	131	1
132	145	1
142	148	1
113	117	1
144	147	1
25	40	1
