156	156	2
104	105	6
131	131	13
48	48	10
101	101	14
120	127	5
11	11	18
0	40	3
140	140	6
117	119	4
106	106	15
43	98	4
26	26	12
86	136	2
107	108	2
47	49	2
110	110	4
3	3	6
24	24	9
25	25	3
136	142	2
113	115	6
12	12	14
155	155	7
81	118	3
100	101	1
46	49	2
51	54	6
29	29	11
23	39	2
119	119	4
49	49	9
82	127	3
114	116	3
10	10	6
8	8	6
118	118	10
109	110	5
135	137	1
50	51	5
45	45	8
22	22	3
144	144	2
116	116	5
114	136	2
120	120	3
128	128	10
83	84	1
123	123	12
39	40	4
106	157	2
145	147	2
78	118	2
21	21	5
41	69	2
107	107	8
122	125	5
87	90	1
89	89	7
72	72	8
100	100	12
135	150	3
122	122	11
79	85	1
1	39	3
124	125	1
9	9	5
152	154	2
157	157	8
101	117	8
134	136	3
84	84	8
69	69	5
81	82	1
43	44	1
53	53	2
15	15	1
153	154	2
36	36	9
85	86	4
42	42	2
37	37	7
12	35	2
132	134	1
70	71	6
70	70	8
40	40	6
132	132	18
157	158	3
32	35	1
78	78	11
19	19	8
153	153	3
97	130	2
141	141	3
85	85	6
57	57	11
64	64	5
46	50	2
16	17	1
127	127	4
86	145	4
40	136	5
7	7	4
92	93	4
109	109	6
63	63	1
44	44	6
73	73	15
33	43	3
112	114	1
45	47	2
45	96	11
81	127	2
88	90	2
139	139	17
133	137	4
68	70	5
77	77	4
52	54	1
14	15	4
63	71	4
98	98	7
1	18	4
67	67	14
129	129	4
146	146	7
88	88	3
41	41	7
75	75	13
148	153	2
142	142	6
34	40	3
12	13	1
19	27	4
67	69	2
80	82	4
76	76	1
80	118	2
52	55	1
38	39	2
8	9	4
97	124	1
95	96	3
129	130	2
143	143	2
48	79	6
154	154	10
32	32	1
34	34	2
4	4	9
148	148	4
84	123	1
66	72	3
126	126	3
18	18	4
131	136	2
0	0	4
105	111	4
6	6	5
115	116	4
105	105	6
145	145	1
99	99	7
16	16	10
158	158	12
88	89	8
151	151	5
50	50	3
20	20	2
65	66	1
38	65	1
86	115	1
0	37	4
108	108	10
155	156	2
111	111	7
52	53	2
54	54	2
1	21	3
91	91	3
31	38	4
83	83	5
17	17	5
35	35	4
39	39	2
87	102	1
51	51	8
4	68	3
55	55	2
152	155	1
23	29	4
113	114	5
41	53	2
137	137	5
78	79	4
13	13	6
150	150	4
46	48	5
93	94	5
68	68	1
117	136	1
36	37	3
67	71	2
123	124	1
48	49	7
110	149	1
137	139	2
65	65	3
38	38	4
103	155	3
63	77	2
47	47	4
46	97	1
50	56	2
19	20	2
0	41	2
66	68	2
86	114	1
3	4	1
96	96	7
45	50	1
110	148	1
126	137	1
117	148	1
50	57	3
87	87	1
120	121	4
11	55	1
92	92	7
7	8	1
79	83	1
138	138	8
112	112	2
114	114	1
5	5	3
109	147	2
83	101	1
18	27	2
46	47	2
93	93	4
112	113	1
121	121	5
34	35	1
81	81	1
144	148	2
40	138	1
69	141	2
41	136	3
86	87	2
133	133	8
105	106	3
44	99	3
27	27	2
80	80	2
28	28	6
13	15	5
147	147	5
103	103	2
140	141	2
45	49	1
31	31	2
90	90	1
139	141	1
84	144	1
130	130	4
42	95	1
41	96	3
2	2	4
26	29	2
97	100	1
109	116	1
55	124	1
2	69	2
131	133	2
120	157	2
97	134	1
17	18	2
111	112	1
135	136	5
86	86	2
152	152	3
116	117	1
133	134	2
134	134	4
108	144	2
40	71	1
30	30	3
156	157	1
136	136	5
24	25	1
2	66	2
18	19	2
80	81	2
116	148	2
16	54	1
45	97	2
33	33	1
79	79	1
66	66	2
105	154	1
147	149	1
3	71	1
108	155	1
0	1	3
11	18	3
116	120	1
75	96	3
103	104	2
90	142	1
123	133	2
118	126	1
13	14	1
4	5	1
47	98	1
84	85	1
66	67	1
20	39	1
127	157	1
124	124	6
95	95	1
145	153	1
41	70	1
51	52	1
93	97	1
145	158	1
1	98	1
3	63	1
1	2	1
32	61	1
84	93	1
44	46	1
119	120	2
95	97	2
14	14	2
27	28	2
102	102	1
149	149	2
125	125	1
94	95	2
111	145	1
82	82	3
71	71	1
108	121	1
30	39	2
91	92	1
78	91	1
63	68	1
149	151	1
45	46	1
142	157	1
117	117	1
116	146	1
100	117	1
75	117	1
52	52	1
146	153	1
44	94	1
3	158	1
46	46	2
