77	77	8
84	85	11
61	62	4
109	109	8
121	122	3
57	57	4
54	54	10
59	59	9
73	73	10
30	30	7
110	110	3
102	102	7
70	76	1
58	58	4
126	126	5
15	15	8
49	50	4
53	53	15
6	6	15
66	66	8
74	100	6
116	117	2
124	124	4
122	122	4
71	72	1
79	79	10
50	52	2
0	0	6
125	125	8
100	100	8
7	8	2
48	48	10
7	7	6
64	64	18
2	25	2
97	97	4
68	68	10
75	76	6
87	87	8
5	25	2
123	123	4
46	54	1
65	65	4
122	123	3
121	121	9
78	85	3
20	20	3
70	71	3
42	42	3
94	94	8
99	99	1
78	78	6
98	102	1
63	64	4
6	34	2
56	57	6
2	2	2
70	70	1
112	112	8
118	118	2
49	49	14
133	133	4
31	32	4
18	20	6
26	26	5
60	61	3
106	106	8
21	21	2
4	26	2
91	91	1
108	108	4
90	91	1
79	80	4
78	90	2
85	85	14
2	4	1
101	101	8
32	32	8
73	74	2
93	94	3
23	26	6
78	79	3
82	82	5
76	76	6
3	25	3
108	117	3
86	86	2
74	74	5
46	47	1
5	5	5
19	19	8
92	92	2
25	48	2
105	120	3
117	118	3
72	100	2
103	103	7
44	44	2
59	80	4
49	53	1
63	63	10
132	132	5
109	110	3
113	113	4
25	25	4
11	11	1
131	131	5
10	10	2
1	1	11
125	126	2
65	70	2
80	80	3
41	42	3
1	24	1
28	28	1
14	21	2
86	88	2
3	54	3
112	133	1
72	75	1
120	120	7
62	62	6
3	47	3
47	47	10
105	105	4
51	51	5
75	75	1
67	67	4
127	127	3
98	98	3
124	125	3
104	104	5
103	106	1
60	60	9
95	96	4
24	24	2
107	109	3
104	105	7
50	51	2
27	31	1
19	20	2
117	117	5
72	72	1
52	52	10
66	67	1
56	56	3
39	39	5
109	130	3
99	102	2
131	132	1
105	106	3
23	25	2
31	31	6
14	14	5
93	93	4
4	22	1
111	111	3
84	84	3
125	127	1
16	18	1
4	4	3
32	48	2
16	17	3
121	124	1
96	97	1
118	120	3
33	33	3
100	101	3
65	66	5
46	69	1
74	99	1
105	116	1
13	14	2
41	41	1
12	12	5
24	25	1
115	115	2
91	98	1
116	116	1
121	123	1
13	13	1
114	114	1
62	64	1
106	107	1
107	130	1
46	55	1
29	29	3
47	67	2
89	89	1
99	103	1
108	109	2
40	43	1
40	40	1
93	116	2
59	61	2
11	12	2
59	77	2
98	99	1
56	80	2
102	104	1
59	62	1
17	17	3
118	119	4
32	49	1
25	34	2
50	53	2
5	22	1
59	95	1
50	50	1
62	63	1
108	120	2
42	43	1
99	100	1
5	6	2
53	64	1
57	60	1
2	24	1
4	6	1
92	93	1
53	123	1
79	95	2
45	45	1
95	95	2
55	62	1
74	75	1
23	24	2
18	19	1
69	69	1
4	9	1
93	118	1
43	43	1
55	55	1
61	61	1
105	114	1
85	88	1
58	95	1
