67	67	10
25	54	2
72	75	1
111	111	2
70	81	2
81	82	4
65	65	4
93	94	1
104	104	4
86	91	3
114	114	9
57	58	1
56	56	12
66	74	4
107	107	8
105	105	3
81	83	3
41	41	6
39	39	5
98	98	4
109	111	3
90	90	6
61	61	4
85	88	4
82	82	8
103	107	3
94	94	8
85	85	20
52	52	2
26	26	1
88	88	12
86	88	3
71	92	2
100	102	2
39	40	8
37	38	4
95	95	4
68	68	4
76	77	3
37	37	5
47	77	2
28	29	3
45	45	3
72	72	8
92	92	6
61	80	3
84	84	6
82	108	4
70	74	1
44	44	5
22	49	2
87	87	11
27	29	3
69	71	2
83	84	1
38	38	7
23	23	4
40	51	2
112	112	7
25	100	1
75	75	7
89	89	9
30	30	14
24	24	1
99	100	3
88	89	3
99	99	12
24	99	1
24	100	4
38	39	3
34	34	4
108	108	5
39	59	3
60	84	2
110	110	8
79	104	6
103	103	4
69	69	2
73	75	3
71	72	6
94	95	1
21	21	3
23	48	1
76	76	6
59	59	4
20	32	2
27	90	2
41	42	1
63	71	2
27	91	1
92	111	4
91	91	4
66	67	4
67	68	2
80	80	11
54	54	8
68	69	6
87	88	8
64	64	7
48	48	7
36	36	4
111	112	4
56	57	1
26	99	4
63	81	6
77	82	2
57	57	8
96	96	4
26	50	1
25	25	6
93	110	3
40	69	4
38	44	2
55	55	4
53	53	1
86	87	1
29	29	7
84	97	1
80	82	3
97	98	2
105	106	5
101	102	4
89	90	2
93	95	1
87	97	3
33	34	2
72	97	2
34	35	2
93	113	1
78	107	1
92	109	2
32	45	1
88	91	1
109	109	2
23	49	1
74	74	3
43	43	3
72	96	1
104	105	1
70	101	1
87	91	1
23	102	3
22	104	3
82	83	2
112	113	5
64	65	2
63	63	2
72	73	2
28	33	1
81	81	3
44	97	3
79	79	7
32	32	2
45	47	4
49	49	3
20	21	2
106	106	1
41	59	4
103	104	7
31	31	11
78	78	3
40	40	1
30	91	1
90	91	4
73	73	2
71	80	2
31	33	1
91	92	1
96	114	2
85	100	1
100	100	3
22	23	2
84	96	1
20	90	2
113	113	5
23	56	3
42	97	1
51	52	1
22	100	1
95	113	1
49	77	1
22	99	1
19	19	2
59	87	1
77	78	2
63	88	3
93	93	1
77	77	5
98	108	1
62	62	3
78	79	1
60	60	4
110	111	1
102	102	3
37	59	4
50	51	4
76	113	3
27	105	1
73	97	1
35	35	2
71	71	3
59	60	1
33	33	7
26	27	1
63	91	1
51	51	2
20	89	1
59	84	1
86	86	6
93	108	1
76	99	2
94	108	2
40	41	3
62	63	2
100	101	1
63	64	2
70	70	1
30	51	1
47	76	1
97	108	1
35	36	1
97	97	1
21	29	1
85	86	1
42	42	1
63	68	1
53	54	1
86	97	2
63	83	2
29	32	1
87	96	1
95	96	1
101	101	1
84	89	1
53	56	1
72	111	1
46	47	1
