4	118	3
76	96	2
16	17	2
103	103	4
113	114	4
40	41	3
64	64	6
72	72	6
23	23	5
51	51	1
125	125	4
126	127	6
107	107	4
14	14	10
110	110	12
4	31	1
75	75	10
123	123	3
130	130	2
89	90	1
121	121	4
95	95	5
97	98	2
71	72	1
25	26	7
63	63	4
117	119	2
26	92	4
1	7	2
1	1	3
108	108	1
127	127	6
109	109	4
84	85	3
120	129	1
127	128	2
111	111	8
6	116	1
119	127	1
88	88	2
33	33	2
113	113	3
106	106	4
1	10	2
21	21	2
50	50	4
69	69	6
49	49	8
63	65	4
56	56	7
70	75	2
2	25	1
43	44	6
44	45	2
97	100	1
3	3	3
38	38	8
104	109	1
86	88	4
104	104	5
93	93	3
15	24	1
132	132	8
106	107	1
122	122	2
107	108	2
24	25	2
60	80	3
28	29	3
102	102	6
45	45	4
128	128	1
16	16	3
32	32	3
31	114	4
60	60	4
53	54	1
119	120	1
77	77	3
18	20	1
119	119	2
41	41	6
44	44	4
61	83	1
6	6	1
40	42	4
24	24	5
6	121	6
61	61	4
98	128	1
80	80	8
89	89	3
82	82	9
76	76	14
70	70	3
12	12	2
72	116	4
120	121	1
55	55	5
70	71	1
22	22	1
102	103	2
114	114	5
114	118	2
4	39	6
98	98	2
31	32	2
94	94	7
44	48	5
92	93	1
58	80	4
4	6	1
30	43	2
124	124	3
84	84	4
97	97	2
69	70	6
29	29	1
83	84	4
54	54	1
53	55	1
129	132	2
125	126	2
91	91	1
116	116	1
5	5	2
64	65	1
11	11	3
54	55	3
41	44	5
99	99	3
62	66	1
61	62	3
78	78	1
26	29	4
112	113	3
123	124	4
82	84	2
96	100	4
117	117	2
85	85	1
68	68	1
13	13	3
43	47	2
87	87	1
11	12	1
115	117	1
6	31	1
125	127	2
131	131	3
114	115	1
75	130	1
3	31	3
100	100	2
115	115	3
88	90	3
72	86	1
4	4	4
59	60	5
76	77	1
18	19	2
130	133	3
18	18	3
117	118	1
27	27	3
52	55	1
19	19	1
39	39	3
59	59	1
71	74	1
72	73	3
68	70	2
78	79	2
4	5	3
40	40	3
33	39	1
86	86	2
129	130	1
2	2	1
74	74	2
93	94	3
92	92	5
53	53	3
29	30	1
79	112	1
25	25	4
52	52	2
1	2	2
26	26	1
67	90	2
65	66	1
120	120	3
81	82	1
47	47	1
28	28	2
2	26	1
13	14	2
60	61	1
4	40	1
67	67	1
73	90	1
98	125	1
96	98	1
112	112	1
17	20	1
65	65	1
91	93	1
101	131	1
61	82	1
54	56	1
71	88	1
72	115	1
43	43	1
31	31	2
2	3	1
39	47	1
22	23	1
111	112	1
119	129	1
