164	164	8
200	201	3
169	187	1
149	153	4
134	134	3
115	118	1
107	125	2
44	45	5
39	39	8
230	231	6
186	186	16
52	52	6
95	95	1
19	19	4
22	22	2
36	37	2
194	194	4
154	155	4
171	171	5
67	136	1
151	151	5
224	225	3
159	159	3
168	168	8
201	205	1
225	225	4
191	192	1
109	109	4
10	10	6
200	200	10
54	54	6
2	2	8
201	204	2
185	185	6
109	110	1
231	232	2
227	228	2
145	145	2
41	84	2
236	237	1
236	236	5
146	146	6
37	37	7
82	84	1
66	66	7
193	193	1
97	97	15
69	172	2
226	226	5
69	69	2
81	82	4
194	223	1
190	190	3
99	99	2
175	175	7
155	155	5
148	149	4
161	162	4
44	44	3
181	181	2
86	88	1
133	133	4
38	47	2
183	212	3
49	50	3
150	151	5
199	199	2
152	152	8
36	36	7
50	50	3
17	17	3
219	219	4
51	51	10
25	25	13
59	59	2
149	150	4
173	173	5
47	47	9
142	142	5
34	34	1
86	113	1
172	172	6
169	170	8
46	46	7
235	235	6
239	239	5
147	148	1
153	153	5
68	68	3
177	194	2
105	114	5
238	238	3
188	192	2
86	86	6
202	207	5
51	52	2
49	49	7
42	42	2
83	83	5
231	231	5
33	33	6
180	180	12
177	193	2
24	24	7
77	77	1
147	154	5
182	182	7
191	191	6
54	55	1
77	133	4
12	18	7
201	206	5
163	163	1
42	43	4
196	196	3
145	162	3
216	216	10
162	162	5
55	55	3
189	189	9
64	64	2
232	233	5
72	72	6
202	202	4
23	23	6
201	201	14
160	160	1
33	34	5
113	114	2
0	0	9
154	154	2
61	82	2
27	27	4
107	107	5
15	23	1
120	120	4
127	128	5
124	124	4
156	156	3
197	197	7
173	174	2
176	176	7
98	98	12
71	101	2
240	240	4
14	15	5
209	209	2
60	60	1
1	1	4
114	114	5
67	67	5
108	108	1
15	15	1
122	123	2
23	24	3
187	188	2
161	161	10
9	9	5
48	51	2
157	189	2
27	28	1
187	213	1
218	218	4
206	206	2
46	47	2
220	220	2
151	152	2
133	134	3
45	46	6
49	52	1
168	169	3
211	211	1
241	241	5
214	214	7
81	81	6
139	139	8
3	8	4
103	103	3
85	85	3
45	45	2
5	6	1
182	183	3
58	58	8
198	198	10
56	56	4
41	41	5
162	185	1
106	106	4
48	50	1
150	150	6
167	167	10
40	41	2
20	21	3
42	44	2
16	22	2
156	158	2
3	3	4
210	211	2
171	173	2
193	194	1
55	58	1
165	165	4
119	119	1
230	230	4
76	76	3
6	6	3
75	75	3
169	169	4
64	65	6
208	208	5
74	74	8
228	228	4
21	21	4
121	122	3
45	47	1
143	147	3
207	207	4
59	60	3
48	49	1
168	171	6
28	28	2
222	222	3
101	116	1
113	113	1
63	63	2
165	215	1
0	1	2
175	178	2
140	147	3
58	59	2
217	217	4
61	61	5
188	190	2
40	40	3
146	154	3
216	217	1
186	187	4
234	234	5
183	213	6
28	46	2
62	62	4
7	8	1
118	118	1
157	160	3
20	20	4
101	101	4
65	65	3
159	160	1
11	24	1
163	164	4
148	150	3
78	133	1
14	14	5
70	70	5
58	61	1
66	67	1
12	13	2
121	121	3
127	127	7
13	13	2
119	125	3
137	138	1
48	48	1
144	144	2
80	80	1
43	43	4
233	233	2
187	187	2
17	23	2
56	57	2
71	100	2
203	203	2
58	60	2
184	212	1
223	223	2
202	203	3
137	137	5
5	5	2
40	44	1
105	105	4
157	157	8
16	23	2
117	117	2
170	191	1
226	227	2
221	221	3
9	14	1
183	183	1
119	124	1
38	38	5
70	72	2
202	208	1
195	195	6
12	17	2
177	225	2
32	33	1
57	59	3
136	136	5
53	54	3
86	87	1
183	184	1
61	62	1
6	7	1
148	153	1
161	187	2
140	142	2
146	148	1
30	30	2
149	149	5
110	110	1
17	33	2
18	37	1
189	190	3
53	57	1
159	205	2
128	128	5
178	179	1
100	100	2
125	125	1
42	109	1
88	88	3
132	132	2
132	133	2
121	128	2
217	228	1
177	178	1
0	3	1
179	179	3
8	8	3
195	232	1
144	146	1
213	213	2
53	53	1
82	82	2
0	7	2
239	240	3
232	234	2
135	137	1
170	170	2
44	51	1
123	123	1
207	208	1
228	229	1
148	170	1
184	184	3
18	18	3
205	205	3
143	149	2
71	72	1
104	118	1
7	7	1
166	166	2
116	116	3
8	9	1
153	154	1
135	135	4
19	21	2
138	138	1
32	32	2
112	112	1
175	176	1
76	129	1
38	43	1
102	102	2
201	202	2
32	55	1
160	204	1
4	19	3
41	85	1
18	20	2
223	224	2
176	178	1
47	55	1
96	97	1
26	26	6
100	101	1
135	136	1
214	216	1
12	12	1
241	242	1
13	14	1
242	242	3
11	11	2
157	200	1
0	8	1
167	168	1
31	31	3
176	177	1
144	147	2
197	206	2
174	177	1
41	42	1
16	16	3
12	16	1
115	115	1
142	167	1
59	81	1
11	23	1
177	210	1
62	63	2
191	198	2
155	156	4
171	172	1
140	140	1
159	161	1
229	229	2
238	239	1
222	223	1
79	100	2
106	112	1
12	21	1
219	224	1
213	214	1
3	4	1
84	85	1
131	131	1
52	53	1
71	71	1
38	39	1
227	227	2
186	188	1
137	139	1
197	198	1
186	190	1
147	147	2
41	86	1
190	199	1
165	214	1
2	4	1
66	68	1
81	83	1
65	70	1
224	224	1
210	212	1
229	230	1
97	113	1
217	226	1
19	20	1
141	142	1
38	46	1
17	32	1
141	141	1
