26	27	4
100	104	7
1	2	1
22	22	18
114	114	29
84	91	3
40	40	6
36	36	15
147	147	15
35	35	14
86	108	1
163	163	13
18	18	23
169	170	1
47	47	15
160	160	20
140	140	10
134	140	3
131	132	2
132	133	4
135	135	6
70	71	5
121	121	7
93	102	1
73	73	17
19	26	3
159	159	14
48	50	3
38	56	1
0	38	2
47	49	6
167	167	14
67	67	10
8	8	12
55	55	8
4	4	20
88	88	15
94	94	13
0	9	5
149	149	11
128	129	6
38	38	12
74	75	18
97	97	7
116	116	18
83	166	1
164	165	3
64	65	3
105	105	16
166	166	9
138	138	20
90	90	15
86	87	11
91	117	14
19	19	7
91	92	7
56	56	10
8	9	1
136	153	4
168	169	3
78	78	9
51	51	7
55	170	2
4	105	2
102	103	5
98	98	11
144	144	8
34	34	10
80	80	7
161	161	8
52	52	12
42	42	14
118	118	7
70	70	11
135	136	5
165	165	9
7	11	3
162	163	3
3	3	14
85	85	6
111	111	13
121	122	2
135	167	2
144	145	4
87	87	15
76	117	6
84	88	2
92	102	4
126	126	20
163	164	1
65	65	5
141	141	9
119	121	3
14	15	7
77	77	14
68	68	8
92	92	6
22	23	4
71	72	10
137	137	13
150	150	6
0	19	4
54	54	16
64	64	4
76	76	6
103	144	3
9	9	10
109	110	8
67	68	2
41	41	6
131	133	2
86	86	2
135	141	1
123	123	6
14	14	12
112	113	5
132	132	9
162	162	9
20	20	2
121	147	1
62	116	3
169	169	4
79	80	7
66	66	9
101	103	5
26	26	5
64	87	5
151	151	12
167	168	11
110	110	8
2	2	12
134	134	13
69	71	1
90	152	4
20	24	1
27	27	11
7	7	11
93	93	8
120	120	7
45	45	11
69	72	3
114	115	1
84	84	10
117	117	6
104	104	9
16	16	14
11	11	13
101	101	2
129	137	3
6	106	1
19	27	3
128	128	3
54	55	3
52	53	2
95	97	1
53	54	14
100	101	7
0	0	5
122	122	12
122	127	3
53	53	6
82	105	3
96	96	5
20	22	3
133	133	9
56	74	6
148	148	7
92	93	3
124	124	10
120	125	1
49	49	8
112	112	10
140	142	1
129	130	11
72	78	6
1	1	10
99	116	5
115	116	5
158	159	2
5	5	7
158	160	5
12	12	6
57	63	2
75	75	3
90	116	4
106	106	19
71	90	3
15	15	5
139	142	4
44	45	9
58	62	2
44	44	8
48	48	7
119	119	9
20	21	5
99	99	13
23	24	3
37	38	3
49	51	2
107	107	5
136	137	1
10	10	7
91	91	13
113	114	3
145	145	9
136	136	5
143	143	8
4	6	7
156	156	6
58	73	1
67	83	3
66	67	1
57	57	10
89	89	5
91	100	2
99	117	2
24	24	6
108	108	13
123	153	1
49	50	5
157	158	2
82	83	5
13	13	5
111	112	9
65	80	2
47	48	9
126	141	4
78	82	7
65	81	2
71	71	12
80	112	4
81	81	8
83	83	26
85	86	4
156	157	7
15	16	1
36	43	2
39	39	3
91	120	3
102	102	8
25	25	13
83	84	2
98	104	1
2	5	2
41	42	1
90	100	9
72	85	2
102	115	1
106	108	4
146	146	10
23	23	5
158	158	3
143	145	3
144	146	2
73	75	2
165	166	5
90	112	7
92	117	3
118	153	2
154	154	6
160	163	2
103	104	6
5	6	2
34	35	3
63	86	1
126	127	3
168	168	7
127	127	9
55	56	1
170	170	6
162	165	5
56	57	6
124	125	2
38	39	4
1	25	7
117	118	3
37	37	6
45	46	3
119	154	3
149	150	9
133	134	2
113	113	9
89	100	3
155	156	6
92	147	2
98	99	4
103	103	5
155	155	6
43	43	11
52	86	3
21	21	7
68	70	6
9	10	3
127	128	5
130	130	18
19	20	6
113	115	3
91	152	1
142	142	7
135	145	1
118	120	2
92	94	1
8	10	3
109	109	6
138	148	1
39	40	3
128	166	2
20	23	2
110	112	1
57	58	5
14	17	2
72	72	5
16	23	2
138	139	7
72	73	4
131	131	10
101	102	5
80	87	2
44	115	1
63	63	2
2	43	1
88	89	4
115	115	2
125	125	7
79	79	8
11	12	2
161	168	1
141	144	2
137	138	2
69	69	4
43	45	2
86	116	2
63	64	4
51	57	2
152	152	6
100	100	3
43	44	1
71	101	1
118	127	3
73	74	4
50	50	2
34	42	4
139	140	7
148	149	1
125	136	3
131	134	4
47	50	3
69	70	4
153	154	1
72	87	2
21	23	1
139	141	1
78	119	1
68	69	4
6	6	2
140	141	1
75	76	1
82	82	6
124	148	1
123	146	1
13	14	2
151	152	2
130	131	1
33	33	6
128	134	4
137	148	3
128	162	1
159	160	3
17	17	5
22	26	2
28	28	6
0	43	1
139	139	4
65	66	1
127	129	2
27	28	1
153	153	5
91	148	1
36	37	1
162	166	1
81	88	2
161	167	1
58	58	3
49	58	1
0	1	3
160	161	2
1	99	1
157	157	3
46	49	1
154	155	2
95	96	1
76	101	1
71	149	2
110	111	1
114	116	1
6	44	1
126	128	2
13	47	4
161	166	2
146	147	2
53	56	2
88	109	1
38	41	2
75	101	2
2	25	1
86	103	2
7	8	1
136	138	1
164	164	3
75	102	4
77	81	2
93	94	4
73	78	3
127	134	1
11	19	2
21	22	1
114	144	3
87	103	1
73	92	2
142	143	2
152	153	3
157	159	1
2	24	1
69	84	1
87	88	1
47	52	1
80	82	2
78	85	2
105	106	1
118	119	2
106	109	1
69	92	1
62	62	1
67	144	1
80	119	1
46	46	2
95	104	1
135	137	1
130	165	2
122	123	1
109	165	1
63	68	2
151	155	1
35	37	1
50	51	1
127	136	1
129	129	3
28	47	1
5	106	1
48	49	1
46	47	1
10	96	1
75	93	1
17	18	2
38	42	1
68	98	1
130	152	1
157	168	1
65	69	1
7	9	1
72	149	1
3	111	1
136	154	1
138	149	1
147	148	1
128	150	1
67	117	1
74	74	2
88	93	1
78	80	1
108	109	1
106	107	1
143	144	1
