2	2	2
129	129	8
125	125	3
59	59	11
95	96	5
3	3	7
123	136	5
114	114	14
145	145	6
24	40	2
26	26	4
26	41	5
144	144	4
41	53	4
13	13	10
101	101	7
64	64	9
71	80	1
127	137	1
40	40	6
55	55	7
74	75	11
32	32	5
48	56	2
65	65	9
92	93	9
88	88	1
24	35	4
69	69	3
27	34	1
20	20	4
113	113	2
88	101	4
69	82	3
134	139	2
80	120	2
49	50	2
41	42	3
110	111	2
86	86	5
56	89	2
123	123	12
49	71	6
48	60	1
76	77	3
15	15	7
73	98	4
139	142	1
10	11	7
2	13	1
130	136	4
57	104	1
71	72	1
75	85	1
121	121	8
61	68	4
26	42	4
69	107	2
67	87	4
4	16	5
9	16	4
97	98	3
130	134	6
29	34	1
50	52	3
17	29	4
49	57	2
54	72	3
99	99	8
54	54	5
2	12	2
80	81	3
57	60	4
126	129	4
5	30	2
134	134	9
72	96	2
101	141	3
118	118	5
131	131	9
4	27	3
117	117	6
42	43	2
27	36	6
81	113	1
112	141	8
112	112	2
103	103	8
12	13	2
49	49	10
54	55	2
107	107	3
50	62	2
132	132	8
84	94	2
92	111	7
68	68	8
59	84	3
52	65	4
92	92	10
5	31	4
140	140	10
130	131	3
120	120	6
8	8	2
85	85	3
20	35	3
115	115	4
35	38	2
127	127	5
18	37	3
23	30	5
109	109	6
111	128	2
83	83	6
119	132	2
25	55	10
36	37	3
53	54	1
113	115	5
105	106	2
94	123	2
61	61	5
106	133	4
138	139	2
13	18	4
120	124	2
74	76	4
15	16	1
108	109	3
93	93	4
24	24	5
97	97	3
102	102	8
67	94	5
32	35	2
54	73	3
140	141	3
19	19	2
10	10	2
70	70	1
91	128	1
136	136	2
25	27	2
38	48	3
33	33	8
91	91	10
69	109	2
66	66	4
100	135	2
93	124	5
98	98	4
56	85	4
130	142	2
57	84	1
51	51	9
26	56	1
75	75	8
17	42	1
21	21	3
92	124	2
101	107	1
125	144	2
20	36	4
37	37	6
112	142	2
23	23	1
133	133	3
48	61	3
100	103	1
110	128	1
0	13	4
83	85	1
129	130	1
31	32	1
29	33	5
15	17	3
137	141	3
31	33	1
135	138	4
58	58	3
119	119	1
122	122	8
30	30	3
5	15	3
125	142	3
90	90	14
77	77	2
124	124	3
61	70	2
93	128	2
19	20	3
75	95	2
3	14	2
26	32	5
138	146	1
130	130	2
55	66	2
71	94	4
121	133	2
36	36	6
78	78	4
72	72	2
69	128	1
1	2	3
20	21	3
62	62	8
67	67	5
0	17	3
88	89	3
84	84	3
42	59	4
91	96	1
48	48	2
106	106	2
143	145	4
3	13	1
49	51	2
61	75	3
129	133	1
77	96	2
87	95	6
8	33	8
58	60	4
1	1	3
67	88	1
82	138	2
104	104	2
47	47	7
50	73	4
93	96	1
96	96	8
116	116	11
79	103	1
101	103	2
140	142	1
87	123	1
67	83	1
131	135	3
111	111	2
34	35	1
27	37	4
30	54	1
49	53	1
130	145	5
126	130	5
83	123	4
115	131	2
41	41	5
52	60	3
25	33	1
4	4	2
24	33	3
133	143	1
53	53	1
96	97	6
70	93	2
99	114	2
2	31	3
4	5	1
62	63	3
101	111	1
126	126	5
71	71	1
123	133	5
113	116	3
103	140	2
22	32	2
109	110	1
132	133	5
75	78	1
127	131	2
34	34	4
40	52	3
104	105	2
9	10	3
79	79	5
57	57	3
57	67	3
11	11	5
142	143	8
100	100	3
107	108	4
93	103	5
75	79	1
107	112	1
113	114	2
52	52	4
70	94	1
58	85	1
136	142	5
61	74	4
80	80	2
114	139	2
100	120	1
115	139	1
18	19	1
53	75	3
27	39	1
21	22	1
10	42	1
62	76	1
28	28	5
125	133	1
108	108	5
121	124	3
67	104	5
21	35	2
43	54	2
41	48	3
129	132	2
35	37	1
136	137	1
74	74	2
34	36	2
127	132	2
19	37	1
141	143	3
121	134	1
138	138	3
105	124	1
126	131	1
58	75	1
19	28	1
60	75	1
111	133	1
104	106	4
10	12	1
102	107	3
50	50	4
69	105	3
18	18	3
122	142	6
4	42	1
17	18	2
3	47	1
95	102	1
76	76	1
92	94	3
26	39	3
51	72	2
119	126	2
5	33	3
117	139	1
51	73	1
27	38	1
138	140	1
5	27	2
81	81	1
29	29	1
119	134	1
92	99	1
38	38	3
135	146	3
77	78	2
11	22	2
27	29	2
26	35	2
14	15	2
72	106	1
93	98	2
38	41	1
63	63	1
59	62	1
50	74	3
118	141	2
98	99	2
104	145	2
114	129	1
3	22	1
12	15	1
84	85	2
107	109	1
1	25	1
124	125	1
1	32	2
73	78	2
132	140	3
27	27	1
71	111	3
117	141	1
84	124	3
128	128	1
6	6	1
124	134	2
28	38	1
118	143	1
73	73	2
11	33	1
82	83	3
17	17	1
95	95	2
26	30	1
13	32	1
134	143	1
39	39	1
12	12	1
3	6	1
21	27	1
79	80	1
117	132	1
91	97	1
87	87	2
36	38	2
91	95	1
42	42	1
106	109	1
71	87	1
101	110	1
103	141	1
1	6	1
120	121	1
99	100	1
37	48	1
50	65	2
98	101	1
60	81	1
119	122	1
128	143	1
3	23	2
68	86	1
80	100	1
94	103	1
110	110	1
62	69	2
82	98	1
6	31	1
139	139	2
0	1	1
57	103	1
78	85	1
43	47	1
4	34	1
88	133	1
41	43	2
9	12	1
60	61	1
133	135	1
24	34	1
137	138	1
128	129	1
53	73	1
59	66	1
