24	25	7
34	35	5
107	107	5
88	89	2
28	28	9
22	22	8
73	73	12
131	131	29
15	16	7
84	85	5
98	99	3
61	61	11
100	102	3
17	17	16
129	130	1
1	1	11
68	68	13
87	88	5
31	31	9
42	42	10
32	32	9
62	62	6
37	37	14
60	75	11
51	87	2
66	66	19
94	95	5
13	17	2
102	102	7
18	18	8
15	60	4
83	84	1
75	75	12
4	38	1
122	123	7
119	119	14
20	20	12
109	109	9
7	34	13
41	56	8
95	95	11
130	132	2
15	15	10
127	127	14
134	134	4
18	60	2
112	117	5
111	111	12
126	126	2
99	100	5
118	119	5
73	74	5
68	70	5
40	41	6
38	38	12
40	40	12
107	119	2
122	122	3
124	124	8
36	36	10
84	84	4
106	107	3
113	113	10
35	36	14
16	18	1
67	67	5
57	57	16
60	60	6
117	117	11
2	2	5
73	77	2
50	50	1
108	108	6
86	86	6
10	10	8
47	78	1
49	50	2
19	86	6
25	25	5
82	82	8
90	90	16
115	129	1
80	93	3
82	83	4
14	14	2
133	133	19
0	0	9
8	8	7
74	74	5
26	27	7
132	132	5
125	125	8
104	105	4
56	56	4
128	128	17
26	26	11
21	21	9
45	46	4
64	64	9
62	63	10
61	87	2
97	97	6
34	34	14
116	116	8
83	83	8
112	127	6
120	120	20
9	9	10
35	35	9
33	33	17
106	123	1
11	11	4
84	86	3
123	126	1
47	47	9
31	32	4
7	7	8
130	131	9
19	19	4
17	18	8
39	39	6
8	9	1
63	63	11
13	47	2
79	79	4
96	96	11
57	58	5
110	110	17
59	75	5
6	6	15
41	42	4
11	36	3
83	86	5
15	17	1
42	55	4
113	117	3
72	72	11
92	92	8
98	98	1
128	129	3
43	43	5
69	69	6
13	13	5
55	56	7
22	82	1
101	102	4
58	58	15
78	80	1
12	12	5
88	88	7
106	121	5
132	133	5
130	130	10
57	59	4
96	98	2
41	55	1
65	65	9
24	24	1
114	115	2
111	112	7
112	113	1
45	45	10
89	90	6
19	20	3
38	39	2
79	92	1
68	69	8
119	121	1
60	74	3
20	87	1
33	41	2
94	94	15
81	81	8
77	77	10
126	128	3
41	41	3
10	37	4
90	91	3
76	76	12
49	93	2
59	59	3
33	34	2
133	134	4
64	123	3
16	16	14
112	118	2
29	29	9
4	4	5
103	103	6
33	36	3
107	121	4
56	57	2
13	14	4
19	47	2
48	49	1
44	44	10
85	85	3
64	65	1
30	30	4
85	86	10
106	106	7
97	98	4
70	70	2
115	115	3
68	103	6
10	12	3
95	96	1
42	43	4
37	38	3
106	124	2
129	129	15
11	13	2
44	45	1
46	46	5
107	108	2
131	132	3
77	83	4
100	100	4
93	93	3
105	105	2
96	99	3
110	111	1
59	83	1
99	99	3
91	91	4
78	78	10
78	79	2
22	24	6
35	42	1
23	78	1
104	104	6
121	122	2
94	96	1
77	78	3
3	15	1
55	55	7
114	114	6
27	27	1
67	71	2
36	40	1
22	28	1
9	35	2
61	102	3
74	75	2
76	99	2
116	117	3
115	116	2
30	31	4
43	44	2
3	8	2
109	117	3
43	59	3
2	10	3
12	45	1
66	67	1
105	106	1
14	17	1
12	35	2
98	100	1
78	100	1
3	3	1
108	129	1
87	87	5
80	80	6
126	127	2
80	81	1
4	6	3
112	112	1
27	28	2
94	134	1
25	26	3
7	33	1
63	124	2
70	103	1
21	29	1
69	70	1
81	82	2
27	78	1
117	118	1
108	120	1
59	62	1
108	109	1
11	33	1
123	123	4
15	18	2
48	48	2
74	101	1
5	5	1
48	81	3
127	130	1
7	15	1
8	10	1
24	27	1
22	27	1
108	121	1
6	32	2
54	58	1
65	66	2
4	5	1
121	121	1
56	58	1
123	125	1
23	82	1
14	60	1
33	60	1
16	62	1
57	89	1
20	21	1
61	62	1
30	87	1
118	118	1
82	86	1
