91	93	2
100	101	2
77	125	2
96	96	3
95	95	3
9	11	3
60	119	3
92	92	6
12	12	9
65	107	5
82	83	2
24	34	3
101	120	1
69	69	7
94	95	1
113	113	3
39	119	1
4	4	4
56	56	5
4	7	2
8	9	3
98	98	4
58	58	18
44	44	2
28	28	9
85	85	4
66	84	2
131	131	4
102	103	5
51	51	2
45	118	4
55	55	7
29	29	5
125	125	2
70	70	7
101	101	5
71	71	9
127	129	7
102	102	6
112	112	4
100	108	4
10	10	3
105	105	15
68	102	2
130	130	4
75	128	1
46	46	3
10	23	3
21	21	7
97	98	2
29	30	1
100	100	2
118	119	1
71	72	3
41	61	2
68	68	4
48	48	8
11	41	1
78	112	1
83	84	7
27	27	3
74	74	4
104	104	5
107	107	2
73	86	2
22	22	2
127	127	6
1	1	2
84	85	2
90	95	2
15	15	9
13	13	3
82	82	3
62	62	4
103	103	2
90	90	6
65	65	10
45	45	4
30	30	6
2	4	3
107	113	4
78	78	7
9	41	1
128	128	5
79	79	3
40	43	2
11	20	3
17	17	6
65	66	3
91	92	1
38	38	7
66	103	3
59	60	1
108	113	1
65	94	2
112	113	2
104	111	6
18	19	2
39	89	1
88	88	6
77	77	5
45	47	1
57	57	7
84	84	4
46	47	1
41	41	1
117	117	3
24	85	2
63	64	2
42	43	1
80	81	1
123	124	1
80	80	3
109	124	1
12	111	4
115	115	7
7	7	4
115	116	1
6	6	6
122	122	2
68	85	4
96	97	2
34	34	1
120	120	6
115	131	4
101	108	2
5	13	2
104	105	4
47	50	3
49	49	4
9	9	3
42	45	6
96	103	1
19	20	2
44	45	3
109	109	7
97	97	3
32	32	5
114	117	1
25	25	1
60	62	1
128	130	3
86	86	3
111	111	3
40	40	4
46	49	2
133	133	2
42	42	3
72	72	3
118	118	6
61	61	4
99	99	3
5	15	1
103	119	2
68	70	4
17	28	3
119	120	1
10	12	1
116	117	2
6	10	2
126	126	3
87	87	3
85	89	2
63	109	1
4	6	1
23	23	9
75	75	1
91	91	5
22	45	1
11	11	3
26	26	2
97	99	3
59	130	1
52	52	5
0	4	2
86	93	2
48	49	1
76	76	5
13	55	1
3	33	1
69	84	2
74	77	1
48	131	1
33	33	4
51	124	1
47	48	2
66	128	1
129	129	3
69	83	1
74	88	1
103	104	1
66	66	2
78	80	3
114	114	4
109	117	2
67	67	1
102	107	2
54	54	3
3	3	2
21	76	2
16	16	2
123	125	1
74	75	1
46	101	1
0	55	3
19	19	3
5	55	2
117	122	1
10	41	3
82	118	2
110	110	3
2	2	2
6	27	1
101	102	2
114	119	1
40	89	1
48	94	2
108	108	1
69	104	1
14	23	1
43	43	5
39	39	4
50	50	3
9	10	2
58	62	1
84	89	1
18	18	1
70	71	2
4	33	1
123	123	5
14	18	1
94	94	6
73	128	1
4	5	1
72	77	2
121	121	2
47	47	3
14	15	1
92	93	2
80	84	1
28	29	2
5	5	2
89	89	1
14	16	2
73	74	1
116	116	3
73	118	2
54	67	2
15	58	1
75	84	2
45	46	1
8	8	2
7	14	3
132	132	1
6	24	1
127	128	1
67	68	1
105	106	3
93	93	1
53	53	2
5	38	1
79	81	1
75	76	2
59	59	1
97	110	1
62	63	4
95	109	1
64	76	1
111	118	1
50	125	2
98	103	1
54	121	1
126	128	1
20	20	2
33	34	1
112	117	1
117	120	1
81	81	2
71	129	2
49	121	1
24	24	1
0	38	1
11	12	3
49	53	2
63	66	1
25	53	1
55	60	1
56	57	1
28	87	1
107	115	1
89	90	1
38	39	1
54	80	1
60	60	1
78	88	1
49	56	1
108	117	1
41	92	2
76	92	1
106	106	1
24	27	1
64	66	1
63	76	1
13	20	1
87	90	1
70	102	1
19	50	1
132	133	1
41	42	2
67	73	1
43	133	1
83	83	1
0	0	1
108	109	1
78	79	1
71	131	2
62	90	1
12	24	1
17	45	1
0	6	2
12	43	1
73	129	1
86	87	1
75	129	1
51	52	1
40	90	2
51	53	1
63	79	2
99	107	1
25	54	1
14	14	1
106	114	1
22	34	1
