87	87	6
124	129	1
101	101	9
99	120	1
102	102	4
11	21	3
119	119	11
108	108	5
86	88	1
132	132	7
84	84	11
72	72	9
7	7	3
22	22	2
92	95	2
138	138	4
14	14	11
25	26	3
114	123	4
88	116	2
107	107	5
12	12	3
121	122	4
2	8	5
3	4	4
13	14	3
135	138	1
29	32	3
80	80	4
99	100	5
97	97	3
18	19	5
3	3	6
2	7	1
98	98	5
110	110	8
106	110	2
86	86	3
138	139	7
102	103	8
23	23	1
123	123	8
6	6	3
138	140	2
96	98	5
4	5	7
95	95	5
25	25	2
20	20	12
25	27	4
95	97	2
107	108	2
124	125	7
77	77	3
73	74	3
94	94	6
74	75	3
26	32	5
21	22	1
81	83	3
130	130	3
29	29	1
106	106	6
88	88	3
96	96	10
10	10	6
72	74	5
0	0	6
116	116	13
82	86	3
37	37	13
18	18	5
36	37	2
140	140	5
125	125	3
122	122	1
74	74	9
88	89	6
80	83	2
15	17	5
117	117	6
112	114	1
93	93	4
9	9	4
16	18	7
1	1	5
124	124	2
7	9	1
131	131	8
136	136	6
92	96	2
35	37	4
22	28	4
14	24	1
116	132	2
23	26	3
105	105	5
33	33	8
109	109	4
26	26	1
27	28	8
81	81	1
76	76	7
132	133	5
126	126	4
85	86	1
30	31	3
4	4	7
90	90	5
21	21	1
89	119	4
32	33	2
135	135	6
124	130	3
82	82	2
103	103	1
28	28	1
27	27	3
5	5	3
104	106	1
104	105	3
104	112	1
11	22	3
109	110	7
93	94	3
73	75	5
71	71	5
1	9	2
36	36	3
114	117	4
125	129	2
103	104	2
38	38	7
107	112	1
34	37	2
29	30	11
111	112	3
114	115	3
95	96	3
93	104	3
93	105	1
112	112	4
33	34	1
84	85	1
118	118	3
34	35	3
78	78	2
104	104	4
110	111	3
99	99	1
15	18	1
79	80	3
99	103	4
15	15	2
91	95	3
89	89	3
75	75	1
128	129	3
108	112	2
118	119	2
11	11	1
3	13	1
121	121	2
90	117	1
81	85	2
31	31	2
135	136	1
129	130	1
17	18	2
115	115	2
122	123	2
8	8	3
108	109	3
120	121	1
31	32	1
127	127	5
109	131	1
114	114	1
92	92	2
43	74	2
120	120	1
111	111	3
13	13	2
134	134	1
81	82	2
99	110	1
137	138	1
117	118	1
2	10	1
77	83	1
86	116	1
17	17	3
94	95	2
79	114	1
78	111	3
97	98	2
100	100	1
73	73	2
19	19	1
35	38	1
32	32	1
105	106	1
36	71	1
79	79	1
35	35	2
26	33	1
79	81	2
23	25	2
130	131	1
23	24	1
113	114	2
19	20	1
80	84	1
16	28	1
84	116	1
129	129	1
