80	81	3
106	107	6
114	114	3
76	76	4
48	48	12
78	78	6
110	110	6
37	37	9
22	48	2
40	40	6
25	25	7
75	81	2
49	80	2
22	23	2
45	48	1
49	49	6
36	36	12
87	87	1
101	101	7
68	69	1
70	70	2
84	85	1
59	59	2
42	44	2
88	90	1
79	79	3
108	108	13
81	81	2
24	24	8
92	97	1
100	107	1
22	22	6
32	32	3
41	41	3
94	94	6
63	63	6
39	39	6
73	73	3
87	92	4
67	67	4
53	68	2
27	28	3
29	29	15
88	89	2
88	88	5
74	74	11
93	93	4
54	54	4
24	45	1
71	73	3
33	36	4
51	54	2
58	60	1
100	100	3
27	27	6
99	99	4
49	81	1
45	45	5
58	59	1
61	63	1
42	42	4
68	71	4
38	41	1
83	83	3
55	55	4
82	82	2
85	86	8
90	107	1
85	108	2
80	80	8
61	61	2
81	89	1
74	75	3
66	66	7
95	95	14
92	92	6
59	64	3
65	66	1
113	113	2
31	31	2
28	28	3
113	114	8
26	26	4
88	92	1
68	68	5
57	57	6
23	23	1
52	52	2
86	86	7
112	112	6
99	101	4
51	51	2
91	92	4
84	86	3
103	105	3
82	113	2
20	20	6
22	49	1
105	105	2
111	115	3
96	96	10
40	42	1
25	26	1
97	98	1
104	107	4
30	31	1
104	106	1
49	50	1
75	93	1
54	55	1
56	57	3
69	70	4
86	87	1
71	71	3
101	102	3
107	107	3
87	88	3
92	93	1
21	21	5
100	102	2
34	35	4
37	38	3
85	85	3
39	40	3
50	53	1
90	90	2
43	44	4
69	69	3
104	104	4
43	43	2
60	64	1
66	67	1
58	58	3
69	71	1
75	75	2
77	77	1
47	48	2
76	81	1
62	62	1
22	47	4
59	60	2
56	56	5
91	91	2
104	105	2
53	53	4
65	65	3
50	51	2
28	30	1
82	86	2
22	24	1
38	39	1
46	46	1
29	30	3
103	103	4
53	59	2
44	44	1
43	48	1
64	70	2
38	38	4
98	112	1
81	108	1
96	98	1
19	20	1
30	30	2
47	53	2
97	97	2
20	21	1
57	63	4
71	72	1
74	95	1
46	52	2
55	56	2
19	19	1
102	102	2
73	75	2
47	47	1
95	96	1
106	106	2
52	54	1
44	45	1
33	33	2
90	98	1
32	33	1
23	48	1
73	74	1
92	94	1
50	50	1
63	64	1
78	79	2
34	34	1
46	47	1
60	67	1
61	62	1
45	46	1
