122	122	7
123	125	4
37	37	5
17	63	4
153	153	6
136	218	2
111	111	3
63	63	3
110	111	4
169	205	2
102	140	1
97	97	4
193	193	5
118	119	1
35	36	2
222	222	7
181	207	5
213	213	7
69	69	8
75	75	12
134	136	4
191	219	1
30	56	1
240	240	3
207	207	4
131	132	2
15	16	1
231	231	5
23	23	4
160	209	1
215	216	11
110	110	2
123	124	9
88	127	1
192	197	3
32	32	10
47	70	1
64	65	1
215	215	4
183	183	2
70	71	2
239	240	2
128	129	3
43	43	5
152	152	8
179	179	11
16	17	3
216	216	10
116	117	2
192	192	4
47	47	11
46	47	4
197	212	3
206	206	4
190	191	4
173	173	6
34	34	3
217	217	5
221	222	8
72	73	1
21	29	1
62	62	3
64	64	5
23	68	1
3	3	5
165	165	5
19	226	2
135	136	4
38	38	9
124	125	4
203	203	5
211	211	14
44	44	3
50	51	1
55	55	2
128	128	5
184	184	1
174	174	10
182	182	10
178	178	6
167	167	5
230	230	4
168	187	1
53	53	2
51	51	2
149	150	3
62	63	2
200	200	6
220	220	2
161	161	4
162	208	5
229	230	2
117	117	4
20	20	5
176	176	3
158	217	1
206	207	2
162	165	3
168	208	2
225	225	11
131	131	7
0	0	5
238	238	1
212	212	4
160	160	4
45	45	10
19	19	7
18	18	10
42	42	5
180	207	2
137	137	7
68	68	6
208	208	14
236	237	5
54	55	1
109	109	4
13	16	1
139	139	5
18	195	2
48	48	2
236	238	3
143	143	3
235	235	2
65	67	1
26	26	3
196	196	13
113	113	5
24	69	2
135	135	2
234	235	1
145	145	8
43	44	2
209	209	2
79	80	2
18	21	2
146	146	4
136	150	3
85	85	9
57	57	3
173	174	2
44	74	3
70	70	15
54	54	1
79	79	1
129	129	2
205	205	10
30	60	2
149	149	7
21	21	5
50	50	4
235	236	4
148	148	2
47	53	1
164	164	2
205	206	5
242	242	12
142	142	6
31	31	3
224	224	6
199	200	1
6	6	5
198	198	3
22	23	2
144	144	5
73	73	5
11	11	11
58	58	3
140	140	1
120	120	5
29	29	11
61	61	4
220	221	3
66	66	2
59	59	4
147	149	2
178	209	3
139	140	2
96	96	4
83	83	3
15	15	4
29	30	1
181	181	4
30	30	2
219	219	7
150	151	4
169	169	5
190	190	2
126	126	4
102	103	3
187	189	3
45	71	4
227	227	3
121	121	3
99	99	5
115	119	2
9	9	4
178	208	2
173	206	1
175	175	3
1	3	3
186	187	2
189	189	4
11	58	2
201	201	2
147	147	6
163	163	7
241	242	1
16	16	1
39	40	1
101	149	2
192	195	4
116	116	4
191	195	2
134	134	3
11	29	1
104	107	2
157	157	4
217	218	2
40	43	3
192	219	2
197	197	3
236	236	8
213	215	2
125	125	3
127	127	5
179	180	3
170	177	1
24	24	2
202	202	4
105	105	4
101	128	2
25	25	4
211	213	5
156	157	1
100	100	2
98	98	10
22	22	1
74	86	3
138	142	1
178	206	1
137	139	2
67	67	4
21	31	2
0	2	1
186	186	3
217	227	1
191	192	1
150	150	6
75	76	2
170	170	2
230	238	1
184	185	2
80	80	3
44	45	4
166	167	2
210	210	2
49	50	1
224	225	2
102	220	2
46	46	4
13	23	1
218	219	3
172	173	2
60	61	1
24	27	2
197	198	1
218	218	4
188	201	3
114	114	2
74	74	1
115	115	3
11	13	1
128	141	3
237	241	2
14	19	1
185	186	2
232	232	7
144	145	5
156	156	1
136	137	2
207	208	4
40	40	4
209	210	1
192	196	1
237	237	4
3	11	2
17	18	4
145	147	2
12	13	2
66	67	2
204	204	7
188	188	1
190	200	1
12	12	2
2	12	1
101	101	1
229	229	2
108	118	2
109	110	1
20	225	1
217	219	3
151	152	2
169	208	1
141	141	3
229	236	2
115	116	2
28	28	2
23	66	3
4	4	1
76	76	3
136	136	2
49	49	6
106	106	1
97	98	1
25	224	1
74	75	2
241	241	1
99	100	2
164	179	2
214	215	1
10	11	1
192	194	1
177	204	2
14	14	1
84	84	1
113	139	2
158	158	2
8	43	3
175	176	1
207	232	2
141	142	2
60	64	1
62	70	1
48	49	2
212	226	1
71	73	1
185	185	4
24	25	3
127	133	2
193	194	2
34	35	2
232	233	1
152	153	2
174	175	1
48	54	1
81	82	2
33	33	1
36	36	1
32	33	1
137	138	1
31	221	1
8	8	1
159	159	2
44	46	1
73	74	1
65	65	1
168	168	3
128	139	1
12	241	2
208	211	1
148	149	3
196	211	1
176	177	3
43	70	1
193	196	1
11	60	1
130	130	2
81	85	1
165	184	1
98	99	1
172	172	3
208	233	1
103	104	1
89	89	1
39	39	1
190	218	1
17	17	1
41	42	1
181	202	2
223	223	1
5	6	1
208	209	1
25	70	1
177	178	5
52	148	1
13	13	3
10	68	1
27	27	1
195	196	1
18	227	1
170	204	1
30	55	2
104	104	1
80	84	1
120	149	1
177	177	2
18	19	1
154	154	1
166	166	1
129	130	1
234	234	1
103	103	1
51	52	1
192	228	1
142	143	1
162	163	1
214	216	1
181	182	1
74	76	1
162	162	1
133	133	1
6	34	1
151	158	1
189	190	1
