4	6	1
20	20	8
63	63	7
17	17	2
40	40	1
60	60	4
31	31	4
60	134	1
121	122	2
37	39	4
38	39	1
108	109	2
64	65	3
58	58	4
16	16	6
55	55	6
0	63	1
14	14	5
25	25	2
26	29	5
62	63	2
33	43	3
75	75	11
25	36	3
45	45	1
29	30	1
113	129	3
6	7	7
98	107	3
33	33	7
24	24	8
3	4	4
85	85	7
5	5	3
41	41	2
44	45	6
37	58	1
103	105	1
21	41	4
35	36	6
111	111	6
93	93	2
27	32	1
106	131	3
6	6	7
68	69	2
128	131	2
21	21	3
74	75	1
27	29	5
23	30	2
58	59	2
23	24	5
30	30	9
61	61	1
72	72	5
19	46	2
97	98	1
94	95	1
13	13	8
35	41	4
78	81	5
63	69	10
27	28	4
64	64	1
12	13	1
93	101	2
95	96	4
43	43	2
118	118	7
10	19	2
80	80	1
95	95	6
36	36	3
48	48	3
32	32	2
40	41	2
120	125	4
62	134	2
74	74	2
106	106	8
71	71	3
14	15	2
11	15	1
129	129	3
99	105	2
8	8	6
73	133	1
15	15	4
86	86	7
35	40	3
116	116	1
99	104	2
3	3	2
82	82	2
56	56	3
37	37	6
130	131	4
131	132	5
107	108	2
84	85	3
113	127	4
112	112	4
19	19	5
72	94	1
47	47	5
117	117	2
99	99	1
98	98	1
34	36	1
94	94	4
122	123	5
29	29	5
90	90	1
26	26	4
126	127	2
96	96	1
71	72	1
5	8	1
38	38	2
120	121	6
26	49	6
86	87	1
50	59	1
39	39	3
129	132	4
100	100	3
11	11	2
7	7	2
109	109	2
10	10	1
11	19	2
81	87	1
121	121	4
47	79	2
19	22	1
97	97	4
16	17	1
103	133	3
76	76	3
124	124	5
107	107	5
115	115	1
73	73	2
84	84	2
27	27	2
34	35	1
5	7	1
50	57	2
78	78	3
68	68	2
22	24	1
4	4	3
87	88	1
29	31	2
10	17	2
10	12	1
62	68	2
18	65	1
82	97	6
18	18	1
7	8	3
113	113	3
126	126	2
9	9	2
78	86	1
77	77	1
69	70	1
114	114	2
103	103	1
125	125	4
110	110	3
34	34	3
63	64	1
25	30	1
6	34	2
28	29	1
28	28	1
83	96	1
0	0	1
112	114	1
84	99	1
43	46	1
43	44	2
107	133	1
23	27	2
82	83	1
91	91	1
69	69	3
104	104	2
128	128	2
87	92	1
8	19	1
123	123	1
79	80	1
11	12	1
12	12	4
26	30	1
88	88	1
71	76	2
96	99	1
126	132	2
131	133	1
44	44	1
116	117	2
78	96	1
127	128	2
20	21	1
20	22	1
49	80	1
11	18	1
79	79	2
87	96	2
10	11	2
112	132	1
2	2	1
67	67	2
110	111	2
61	62	1
122	122	1
36	43	3
22	22	1
6	41	1
38	41	1
105	105	1
87	87	1
26	31	1
