41	41	10
26	26	14
48	48	8
153	153	8
53	54	3
63	63	10
19	19	24
124	127	1
100	100	14
137	139	1
44	44	12
68	81	4
124	124	9
46	46	10
103	121	3
114	114	12
137	137	13
48	49	7
143	145	2
110	110	9
30	30	15
3	31	1
119	119	7
80	80	5
68	68	18
9	9	7
67	67	10
105	105	9
70	70	12
25	25	14
46	48	1
117	117	9
96	102	2
139	146	5
80	81	4
147	147	12
55	55	14
88	88	2
5	5	3
132	132	9
28	29	6
83	83	5
43	43	10
109	109	10
136	136	11
20	20	7
93	108	1
18	19	1
6	7	5
53	53	14
52	53	1
35	35	9
83	88	1
47	47	5
18	21	1
122	122	10
22	22	4
125	127	1
104	105	4
129	129	13
94	94	6
133	133	18
102	102	13
83	113	2
124	126	2
131	132	5
115	115	6
6	19	1
108	108	18
27	111	1
43	65	3
37	37	2
102	142	2
27	27	3
71	71	8
76	76	7
131	131	11
94	96	1
40	56	1
132	152	2
3	33	1
96	99	2
97	97	8
103	103	13
40	40	14
139	139	7
145	145	8
95	96	3
49	50	2
30	31	1
115	116	1
84	84	9
139	144	2
83	84	5
67	68	5
141	144	2
102	103	2
151	151	3
82	82	9
128	130	6
29	29	7
33	33	6
116	116	5
122	123	2
113	113	13
123	123	11
110	112	6
138	139	1
15	15	11
96	96	9
111	111	14
20	22	3
126	126	12
38	38	8
38	39	8
120	121	4
73	73	5
140	141	1
73	77	1
21	21	10
24	24	7
56	56	10
64	65	8
99	99	6
39	39	9
11	12	5
13	19	1
149	149	7
10	10	6
128	128	7
140	140	7
142	143	1
110	113	3
143	144	2
111	112	5
2	4	1
118	118	16
11	11	14
134	134	11
153	154	4
85	85	2
74	74	2
76	77	5
119	122	2
23	23	7
132	134	2
125	125	8
68	69	3
4	5	1
39	102	2
103	109	1
130	139	1
107	107	5
135	135	17
49	49	5
114	115	2
42	42	7
81	87	1
72	73	2
101	101	3
66	66	9
25	26	3
45	82	2
20	26	1
117	150	3
17	19	1
72	72	5
5	35	4
41	43	3
41	81	5
101	102	1
7	7	5
18	18	10
65	65	3
152	153	4
78	78	6
54	54	11
98	98	10
86	86	6
106	106	5
38	55	1
80	90	4
32	32	4
95	108	2
93	149	1
136	137	5
46	69	4
123	124	4
16	16	2
40	41	4
87	91	2
80	83	3
47	48	2
106	152	1
127	143	1
10	11	3
114	123	1
45	46	5
81	94	1
13	13	10
101	105	3
32	34	8
148	148	7
62	62	5
29	91	1
77	77	4
66	67	3
42	88	2
81	82	5
41	42	2
45	45	13
144	145	9
61	78	2
71	119	3
87	87	5
19	23	2
57	57	4
97	124	1
127	146	4
79	79	2
107	108	2
42	81	1
16	17	1
154	154	1
106	113	1
130	130	2
69	69	8
121	130	3
17	17	7
51	56	2
144	144	2
152	152	5
3	3	4
84	130	2
4	4	3
116	144	1
121	122	3
117	118	9
136	139	2
23	24	2
99	100	4
45	69	2
3	4	2
30	43	2
71	113	1
64	64	4
44	76	2
85	103	1
85	86	2
75	76	3
14	14	3
12	12	6
138	138	13
14	15	2
34	34	4
118	119	1
3	20	2
117	119	2
122	130	2
28	28	4
115	144	1
85	101	3
18	26	1
114	116	1
84	85	2
130	131	1
54	56	1
150	150	7
62	66	2
14	16	2
28	89	2
63	65	1
36	36	4
51	51	2
79	93	3
17	22	1
138	145	1
8	35	3
77	78	1
26	31	3
45	71	2
8	8	3
20	21	2
5	6	2
103	104	1
74	75	2
116	117	1
45	48	2
4	6	5
74	92	2
95	95	2
26	27	2
61	62	2
31	31	5
13	21	1
15	16	5
6	6	3
54	55	1
12	32	2
137	138	4
68	133	1
113	114	2
120	120	4
99	102	2
86	87	1
31	32	4
115	128	2
119	120	3
137	147	1
7	19	1
31	83	1
128	129	1
62	64	1
87	89	1
146	146	1
148	150	1
112	112	4
142	142	3
100	133	2
130	144	2
109	110	1
33	34	1
98	104	1
13	17	2
98	99	2
81	81	1
119	134	1
58	83	1
92	110	2
93	93	3
32	33	1
75	78	3
47	53	1
107	109	1
102	122	1
43	83	1
104	104	2
83	85	2
65	67	5
82	98	1
46	71	1
8	16	1
140	142	2
114	117	1
147	150	3
97	98	1
96	97	1
63	90	1
61	63	2
89	90	1
57	58	1
68	70	1
9	11	2
23	36	1
69	73	2
109	113	2
52	77	1
68	73	1
33	35	1
19	21	2
73	74	2
42	45	1
36	41	2
61	80	2
65	66	1
52	52	1
51	52	1
112	139	2
98	103	1
2	3	1
143	146	2
105	106	2
84	86	1
133	134	2
70	77	1
137	145	1
31	53	1
28	30	1
112	134	1
141	142	1
91	91	2
138	141	1
27	29	2
114	128	1
141	141	3
113	128	1
7	8	1
134	149	1
103	105	1
10	39	1
22	24	1
69	70	1
6	14	2
102	110	1
145	147	1
115	126	1
139	154	1
3	35	1
45	110	1
13	15	1
139	140	1
69	100	1
106	109	1
108	151	1
69	78	1
24	25	2
13	14	1
100	111	1
130	132	1
131	134	1
67	99	1
32	49	1
75	79	1
