51	57	2
6	6	1
146	150	2
64	99	5
138	138	8
7	7	2
5	5	7
75	75	5
93	93	1
145	145	2
10	10	9
16	153	2
17	18	5
120	121	4
96	97	5
85	85	5
12	27	3
13	14	2
102	103	2
14	14	3
136	136	4
15	16	1
6	130	5
36	36	2
29	29	8
111	112	5
47	47	2
10	33	2
4	17	8
3	8	1
32	34	6
100	100	2
118	118	3
121	122	4
128	128	3
112	152	3
147	147	5
97	97	7
61	62	3
110	110	3
94	94	7
88	88	1
54	55	3
70	70	7
116	117	4
101	102	2
137	137	3
144	144	3
149	153	2
139	139	1
73	73	4
21	21	1
67	90	2
114	114	2
27	28	1
122	122	6
65	65	1
142	142	2
115	116	3
12	14	1
55	56	3
95	95	2
151	152	2
34	35	1
28	28	1
17	17	8
121	121	2
96	96	3
62	62	6
124	124	3
50	50	3
99	99	3
129	129	6
39	40	3
48	56	2
63	67	1
151	151	3
12	12	1
64	75	1
28	32	1
34	34	2
22	22	9
150	150	1
39	39	2
4	4	7
80	80	3
143	143	8
40	40	7
16	17	5
64	64	3
5	55	3
77	77	7
132	136	1
76	76	2
117	118	1
83	83	5
69	69	1
50	51	3
45	131	4
78	79	5
147	148	3
142	144	1
16	16	5
15	37	3
81	81	2
37	37	5
34	148	1
107	107	5
46	46	1
138	139	2
132	133	2
28	30	3
93	102	2
53	53	4
18	19	2
56	56	3
88	90	4
104	104	2
49	120	2
94	144	1
144	145	2
10	11	3
128	129	2
2	85	1
119	154	2
23	24	1
4	6	3
82	83	1
5	26	1
108	108	4
62	63	2
102	102	1
30	36	1
62	80	4
64	105	2
106	107	5
29	37	2
3	34	5
113	113	5
29	30	1
54	54	1
8	84	1
94	97	1
35	35	3
119	120	3
63	75	3
102	113	1
58	81	2
62	78	2
127	128	2
43	52	1
25	25	4
127	127	7
152	152	2
45	45	1
93	151	1
26	50	2
98	99	5
109	109	3
18	18	6
67	67	6
3	4	1
5	32	2
68	104	3
68	68	1
119	119	6
71	71	2
120	120	4
20	35	2
133	134	1
20	20	2
133	136	1
45	61	1
124	127	2
68	95	1
44	46	2
36	37	3
35	36	2
4	56	3
117	117	4
140	140	1
119	153	3
94	115	6
133	133	1
38	38	3
68	100	1
3	3	3
84	85	3
79	79	1
62	104	1
41	42	3
79	80	3
31	31	4
65	77	1
141	142	1
11	30	3
57	82	2
87	88	1
14	15	1
106	121	1
77	79	2
122	123	2
20	21	1
63	63	5
32	39	2
41	41	3
141	141	3
42	42	2
24	25	1
50	121	3
67	69	1
100	106	1
88	109	1
132	132	1
11	12	4
124	125	1
98	115	2
123	123	3
130	131	1
116	116	2
22	23	4
46	103	1
23	23	1
86	87	2
24	24	1
108	120	2
91	112	3
80	82	1
17	125	1
135	135	1
49	103	2
65	75	2
28	29	2
57	57	2
115	115	4
148	149	1
54	67	2
15	15	3
131	132	1
11	40	1
14	27	4
13	43	1
13	13	2
75	104	3
149	152	2
49	119	1
72	72	2
112	113	1
45	52	1
131	136	2
44	54	2
82	82	1
33	51	1
143	144	2
13	27	1
110	141	1
107	153	1
86	86	1
63	104	1
8	8	3
86	88	2
126	126	1
106	153	2
62	66	1
51	54	1
8	86	1
76	77	2
66	70	1
123	124	1
120	122	2
39	54	3
79	81	1
43	43	3
7	129	1
154	154	1
98	98	1
51	51	2
105	119	1
105	121	1
19	19	1
96	98	1
98	116	1
80	120	1
88	110	1
57	58	2
26	27	1
11	33	1
92	92	1
32	84	1
153	154	1
66	66	1
111	113	1
83	93	1
112	112	1
56	129	1
132	135	1
146	148	1
115	123	1
27	27	1
146	146	1
109	138	1
78	80	1
