37	45	2
73	73	10
20	24	4
128	128	12
136	150	2
107	119	2
87	87	17
152	153	9
62	62	13
125	126	5
133	147	1
20	20	12
100	100	12
134	148	3
63	74	3
177	177	14
159	160	4
140	177	3
86	86	11
124	130	4
11	11	7
171	171	12
111	112	6
168	168	14
46	46	13
178	178	4
118	118	10
107	107	16
121	141	1
164	165	5
151	151	16
154	155	8
189	190	11
2	2	14
74	74	8
159	163	4
150	152	3
86	87	8
21	21	11
132	132	12
154	156	5
3	186	3
29	29	20
5	7	7
113	113	7
34	34	19
122	130	5
117	119	1
115	116	2
177	182	1
139	153	3
129	140	2
187	188	2
192	192	6
171	189	2
97	97	9
62	75	2
13	13	4
17	18	7
16	18	5
64	64	11
137	149	1
96	96	13
67	67	9
103	135	3
147	148	2
4	4	5
5	5	6
31	31	9
134	134	11
10	10	19
155	155	12
114	141	9
7	7	8
54	54	8
98	99	9
159	159	4
64	86	3
65	65	13
51	52	12
153	167	2
61	61	9
46	48	11
11	126	1
183	183	11
33	33	8
139	140	7
100	142	1
98	98	6
105	105	7
16	17	8
3	3	5
141	141	10
4	21	2
32	32	18
9	9	23
136	141	3
110	111	5
138	139	5
47	47	18
128	129	2
93	125	3
145	153	2
111	111	3
158	158	17
110	112	2
30	31	7
23	25	6
45	46	6
16	16	15
152	181	4
14	14	14
172	172	13
165	166	4
12	14	4
109	110	7
52	52	5
16	54	1
40	40	13
170	170	8
179	179	13
142	142	12
190	190	8
12	12	8
24	28	2
107	129	3
114	114	10
191	196	4
160	161	9
49	55	2
184	189	2
116	116	7
8	12	1
127	135	1
133	133	11
24	25	5
113	119	3
107	115	1
185	186	3
0	1	2
21	22	3
38	38	8
51	53	2
51	51	13
41	42	3
116	117	4
8	9	3
154	154	14
165	165	5
41	41	4
37	38	3
6	6	6
148	164	1
46	47	2
193	194	6
23	23	12
36	44	3
124	128	1
46	53	2
175	175	3
184	184	14
9	128	7
163	164	4
95	95	9
148	148	2
95	179	4
100	105	2
58	64	3
155	161	1
55	59	2
84	84	9
4	8	1
158	161	3
187	187	8
45	45	4
88	101	3
60	62	2
77	79	2
150	151	2
121	123	2
82	84	3
103	106	6
161	161	15
152	152	9
47	56	3
63	63	8
9	23	5
80	80	4
70	70	4
53	53	11
181	182	9
6	7	6
102	112	5
152	154	3
164	167	2
30	30	15
103	108	4
18	22	2
46	52	2
100	101	1
73	82	1
145	150	2
12	13	5
190	194	3
93	93	7
87	88	4
157	157	16
131	131	7
194	195	7
192	193	10
74	136	5
74	85	1
67	76	4
144	145	6
37	37	11
122	122	10
17	17	3
153	187	2
20	21	5
110	124	3
150	186	1
175	176	3
139	139	8
5	12	2
178	191	1
124	124	4
117	136	2
166	175	3
49	53	1
108	149	1
156	159	4
53	127	1
24	24	8
122	127	2
158	189	3
27	34	1
39	61	1
191	192	6
177	178	3
45	47	2
179	180	6
48	48	8
81	89	3
10	15	1
95	105	3
147	149	8
85	86	1
139	143	6
156	157	3
68	77	3
57	57	20
26	26	13
82	82	11
1	1	13
71	71	12
20	36	2
40	41	4
11	12	10
103	134	3
108	120	1
169	169	11
59	70	2
186	187	9
18	77	5
56	56	9
148	153	2
101	101	13
174	174	5
1	7	1
140	141	1
171	174	3
72	72	13
44	44	7
177	184	3
90	90	3
53	54	4
124	182	1
54	126	4
168	179	2
14	33	1
147	151	3
137	137	6
112	117	3
39	39	3
5	8	1
193	196	5
178	193	1
6	65	4
40	61	1
123	123	12
108	114	1
78	78	2
41	56	2
96	106	1
19	36	1
1	27	1
145	145	10
161	171	3
112	112	4
170	172	3
161	195	2
72	105	2
97	102	1
68	79	2
102	107	1
47	48	7
117	118	8
1	2	4
56	57	1
8	18	2
36	86	2
49	49	16
158	159	4
31	32	6
127	127	12
16	19	2
73	79	3
149	151	3
62	74	4
17	19	2
153	154	2
106	106	2
22	22	2
144	149	2
68	87	1
98	133	3
196	196	1
99	101	8
55	55	12
15	15	11
145	172	1
144	144	4
146	146	9
118	119	3
129	129	9
59	59	5
180	186	1
54	59	4
0	0	9
184	196	1
68	80	2
95	98	1
182	182	3
33	44	2
120	131	1
35	35	7
15	16	5
68	68	8
25	25	13
95	96	4
40	51	4
114	115	3
173	173	6
172	185	2
185	185	4
161	173	2
132	145	4
187	190	2
134	135	12
178	186	3
148	149	2
135	136	3
80	81	1
191	191	6
17	27	3
96	97	1
162	163	4
97	106	4
193	193	5
108	111	1
189	189	6
86	90	3
163	175	1
102	102	8
153	155	1
40	42	3
135	135	11
141	143	4
97	103	1
121	121	7
85	85	12
33	38	2
46	51	3
145	146	4
126	127	2
106	115	1
136	137	1
152	161	2
67	71	4
26	32	3
70	72	2
76	76	11
50	52	3
3	41	1
82	83	8
131	146	3
63	64	3
146	182	6
66	74	4
120	134	2
14	18	3
69	74	3
36	37	3
18	37	3
150	156	1
33	34	3
174	175	7
94	103	5
38	40	1
25	27	4
69	69	6
117	117	7
151	153	2
78	79	7
123	137	3
77	77	3
184	185	3
167	167	4
176	176	10
33	36	2
117	122	1
28	28	12
13	15	4
0	4	1
18	61	3
4	22	3
173	175	8
76	79	5
150	150	6
66	67	1
38	39	6
182	183	1
101	135	4
168	169	5
7	40	3
69	70	2
155	157	3
186	189	5
99	99	11
170	178	1
88	88	9
19	20	2
43	51	3
79	80	7
178	179	2
19	34	1
44	50	3
99	100	4
136	140	1
114	131	1
40	55	3
3	6	3
101	102	2
1	176	4
23	33	3
59	60	6
48	57	3
15	17	4
195	195	5
101	142	1
94	95	3
81	81	12
43	48	3
131	133	3
169	170	4
136	136	3
104	104	1
77	78	3
142	146	4
150	160	1
13	126	3
105	109	1
102	113	1
108	108	13
62	63	2
172	173	2
102	146	5
10	127	2
151	161	3
106	108	3
69	83	1
165	168	2
148	154	2
18	32	3
128	171	2
7	27	2
133	134	6
63	101	2
188	190	2
2	3	2
12	26	2
155	193	2
58	58	3
140	140	3
54	175	1
60	60	4
75	82	1
105	116	2
24	194	2
85	95	3
6	14	5
124	125	3
183	185	1
128	130	2
147	147	2
71	72	5
50	50	5
94	94	10
176	178	3
197	197	2
136	138	7
74	128	5
130	130	6
99	110	1
113	115	1
29	42	3
166	166	4
175	177	4
26	29	2
138	142	2
86	89	1
128	136	3
81	82	1
19	31	5
121	147	2
22	24	3
192	194	2
149	149	9
104	106	4
69	77	2
139	177	4
146	147	4
156	160	3
34	35	8
94	105	2
138	138	2
29	68	2
138	143	7
61	69	1
110	110	6
180	188	2
176	179	4
83	84	1
174	185	2
104	129	1
133	139	2
101	115	2
181	181	9
83	85	3
109	115	2
162	162	7
39	42	2
153	166	2
63	67	3
37	44	3
152	165	6
156	169	4
143	144	2
135	137	2
7	8	1
101	103	2
131	132	1
9	10	3
14	25	2
13	23	1
157	161	5
32	55	2
9	12	3
142	194	1
71	100	1
140	176	2
187	194	2
41	54	2
137	139	1
85	89	3
138	141	2
27	27	4
188	191	1
129	137	3
87	89	4
79	79	9
0	3	3
26	30	7
175	179	2
120	120	3
39	63	2
31	41	1
8	11	1
58	63	1
16	24	2
50	51	3
22	23	1
78	81	2
14	30	2
58	67	2
19	37	1
106	149	3
126	126	6
57	67	1
41	43	2
43	44	2
189	193	2
75	124	2
123	130	1
138	153	6
36	38	1
70	73	1
107	114	1
84	85	5
58	70	2
105	106	5
186	186	3
140	143	2
101	136	1
129	141	2
53	63	1
36	36	5
113	126	2
177	186	1
73	75	1
165	167	1
146	159	3
59	65	2
25	38	1
35	44	2
139	142	3
137	138	2
103	103	3
178	192	1
36	39	1
155	181	2
168	192	3
162	172	4
133	136	1
164	164	1
21	23	1
47	60	1
144	152	3
138	150	3
70	71	2
47	53	2
178	182	3
99	166	1
151	152	6
155	163	2
122	165	1
134	138	1
169	174	5
73	104	1
85	87	2
129	130	1
141	142	2
132	147	2
113	114	2
167	168	1
160	162	2
43	53	2
79	85	2
111	120	2
29	31	1
120	164	2
26	61	1
132	134	1
194	196	1
149	154	1
142	149	3
125	152	2
132	140	1
144	171	2
46	57	2
44	78	2
42	42	4
187	197	1
9	13	3
89	89	5
8	8	2
1	9	3
64	66	2
129	134	1
104	105	3
85	90	2
163	163	3
18	18	9
83	83	7
59	69	1
165	172	1
123	182	1
173	183	1
34	47	1
175	186	1
118	125	1
8	10	2
180	180	5
119	120	5
44	46	1
106	114	2
125	127	2
54	56	2
124	141	1
28	42	1
131	141	5
125	125	6
65	67	4
75	75	2
82	85	1
115	115	2
185	196	1
134	142	1
115	124	2
3	10	2
96	115	2
14	15	1
62	65	2
130	179	2
146	155	2
138	178	1
38	70	2
166	195	1
64	65	4
196	197	1
134	136	3
185	197	2
43	43	2
154	163	2
118	131	1
58	60	3
49	50	2
34	38	1
194	194	4
64	102	2
188	188	5
111	117	1
69	73	1
133	135	2
30	42	1
117	129	1
165	170	2
19	150	2
66	66	4
195	196	1
177	185	1
166	192	1
100	137	1
8	22	1
162	178	2
42	59	2
109	109	6
164	166	4
121	122	4
0	7	2
53	55	1
100	136	1
43	47	1
67	88	1
73	83	2
119	119	4
131	162	1
26	39	2
170	171	2
176	177	1
20	131	2
20	150	1
3	15	2
24	26	2
139	178	3
4	25	2
57	58	1
64	72	1
93	105	1
160	163	1
160	165	1
19	19	1
81	84	4
156	158	1
154	165	1
79	81	2
179	195	2
161	181	2
139	141	1
19	21	2
128	186	2
116	119	4
65	71	2
25	26	1
18	80	2
130	136	1
48	59	2
121	149	1
188	193	2
93	97	1
6	11	2
9	17	1
47	54	1
84	89	1
63	70	2
69	79	1
145	149	1
36	64	1
97	99	5
32	33	2
155	156	1
40	62	1
30	32	2
180	181	3
6	8	1
68	69	3
139	152	1
63	66	2
93	94	1
18	19	1
160	160	1
16	27	1
180	183	3
159	164	1
135	138	1
11	14	4
167	171	2
35	39	2
118	120	3
52	63	4
167	169	5
23	34	1
10	128	4
22	35	4
86	98	2
97	98	1
179	181	1
0	23	1
144	158	1
22	189	1
61	62	1
3	37	1
37	69	1
108	109	2
181	197	1
103	148	1
60	66	1
27	28	3
147	164	1
50	55	1
40	43	2
107	116	1
13	14	1
76	80	2
60	63	1
155	170	1
161	164	1
130	132	1
138	140	1
174	189	1
164	168	1
79	83	1
42	43	1
170	183	1
179	194	1
4	15	1
80	85	1
176	180	1
75	81	2
163	165	1
23	30	1
18	20	1
162	180	1
4	9	1
107	117	2
6	9	1
23	48	1
157	163	1
35	36	1
161	174	1
115	119	2
49	54	1
9	11	1
10	67	1
180	182	1
147	153	1
167	178	4
93	100	1
168	182	1
65	66	1
122	166	2
168	175	1
83	88	1
139	151	1
101	134	1
39	43	1
175	184	1
14	29	1
151	167	2
180	185	1
71	77	2
98	110	1
3	12	1
137	141	1
73	74	1
181	193	1
188	189	1
0	26	2
81	86	1
12	16	1
107	149	1
138	144	3
109	123	1
171	178	1
137	140	1
141	144	1
5	66	1
72	137	1
125	133	1
143	149	1
169	183	1
157	158	2
130	146	1
140	149	1
108	118	1
64	77	1
95	104	1
88	89	1
116	128	1
125	137	1
174	177	1
110	118	1
128	141	1
176	186	1
69	76	1
134	147	1
168	177	1
81	83	1
14	126	1
117	123	1
102	135	1
36	42	1
142	144	1
36	186	1
129	180	1
67	68	1
157	193	1
62	64	1
73	88	1
190	193	1
3	67	1
157	189	1
164	169	1
153	153	1
186	197	1
