91	91	8
25	25	1
89	89	2
103	103	9
122	124	3
66	66	4
62	62	1
119	119	1
81	83	4
77	86	1
55	55	1
5	5	3
83	83	4
27	27	6
72	72	4
71	87	1
90	90	8
43	58	4
52	53	1
39	40	3
97	106	1
39	39	2
1	18	3
50	50	2
49	49	4
57	65	1
2	14	2
82	92	4
117	117	2
77	85	1
56	56	3
89	92	2
85	86	1
56	58	3
120	120	2
101	101	1
120	124	3
26	33	5
18	19	3
76	76	4
47	48	4
48	48	2
97	104	1
131	132	2
57	90	3
111	128	3
82	83	6
102	120	1
118	118	4
2	5	1
17	32	2
46	61	2
89	96	3
130	130	4
12	12	6
14	14	3
72	74	3
107	113	3
54	54	1
98	98	2
77	77	2
119	131	1
95	102	1
85	85	1
31	31	1
110	110	3
133	133	4
62	66	2
107	107	1
73	77	2
81	81	3
96	101	3
40	59	1
67	76	4
104	128	3
54	61	1
21	29	1
79	92	1
112	112	2
57	62	1
83	92	3
105	114	2
99	100	2
96	97	2
86	88	2
29	30	1
27	34	3
120	123	2
70	70	1
15	15	2
96	99	1
2	3	2
17	25	1
60	60	2
104	104	2
0	15	2
99	99	1
11	11	6
128	128	4
102	102	1
7	7	2
32	32	3
33	33	2
99	101	2
73	79	2
28	28	3
115	115	2
72	81	2
45	45	1
88	98	1
88	88	1
19	27	3
82	82	2
51	73	1
71	73	2
57	79	1
108	108	2
93	94	1
7	8	2
31	32	1
120	133	1
106	106	2
5	19	3
107	109	2
2	7	2
74	74	1
107	108	2
66	74	1
116	128	1
23	23	1
85	108	5
131	131	2
53	64	3
48	56	1
68	87	1
50	60	1
110	111	1
44	51	1
60	62	1
41	41	1
17	17	2
73	73	2
51	52	1
74	80	1
131	133	1
102	109	1
78	78	2
14	102	2
24	31	1
81	87	1
62	84	2
2	2	3
60	63	1
123	125	2
64	84	1
21	21	1
54	64	1
50	51	1
76	77	2
78	81	1
0	11	1
64	64	1
3	5	1
0	56	1
19	19	1
129	129	1
91	92	1
18	32	1
116	119	1
103	128	1
87	87	2
73	74	1
113	114	1
10	22	1
92	92	1
39	52	1
62	70	1
65	65	1
67	91	1
114	122	2
1	14	1
11	13	1
75	96	1
123	123	1
58	73	2
92	100	1
122	122	2
57	70	2
11	19	2
132	132	1
120	127	1
111	111	1
49	58	1
71	71	3
24	24	1
51	59	1
4	4	1
83	94	1
66	84	1
80	82	1
51	55	1
9	15	1
5	18	1
81	84	1
18	31	1
30	30	1
127	132	1
0	5	1
17	24	1
