0	0	17
50	58	2
23	24	9
64	64	15
77	77	11
21	24	5
7	7	6
40	41	2
68	69	1
37	37	12
28	30	2
26	26	10
43	44	7
5	9	3
66	66	16
18	18	2
25	29	1
5	5	29
31	31	9
66	67	8
65	66	6
6	6	12
13	13	19
11	12	8
61	61	11
38	38	10
65	65	11
30	30	26
1	2	19
76	77	15
61	62	8
34	38	5
52	57	4
2	3	9
8	8	16
5	19	2
3	77	3
25	25	17
28	28	15
19	20	6
12	12	16
18	19	11
23	23	26
11	11	17
73	73	34
13	19	1
19	19	21
44	44	8
43	43	7
25	49	4
24	24	8
56	56	20
58	58	19
3	3	14
54	55	9
33	64	7
48	53	3
10	10	7
3	5	7
61	75	1
21	21	20
60	60	17
53	53	27
24	74	6
32	32	4
9	10	4
44	45	4
12	47	2
57	58	11
59	60	3
54	54	22
34	34	25
48	48	14
27	27	14
28	29	5
18	20	2
21	22	9
51	52	4
6	7	4
5	8	3
75	75	1
21	49	5
9	9	11
46	46	14
24	28	7
33	33	17
32	66	3
2	2	27
46	48	2
63	63	22
25	50	1
50	50	10
14	75	2
60	68	5
1	5	3
27	28	4
68	75	1
72	73	6
74	74	5
20	21	7
68	68	8
50	52	4
3	4	11
4	4	21
42	42	10
36	36	15
1	1	10
74	75	10
4	5	8
49	52	7
67	67	12
8	49	2
1	10	2
26	34	1
47	55	1
51	57	1
48	51	1
58	59	5
29	29	10
45	45	12
46	47	7
55	55	3
4	50	3
57	57	17
36	37	5
7	8	13
47	47	9
41	41	6
56	57	11
20	20	12
36	39	1
59	59	18
21	64	2
68	71	4
21	46	5
5	6	3
22	25	5
30	32	2
40	42	1
45	54	6
26	28	4
32	65	5
47	72	2
21	23	2
12	13	12
61	63	3
22	40	1
5	74	4
52	53	3
39	40	9
8	9	5
0	1	6
14	15	1
75	76	9
34	42	1
77	78	1
7	10	5
0	6	2
23	36	2
24	25	4
22	27	4
18	73	1
23	62	1
51	51	3
37	38	3
12	74	3
76	76	9
22	66	4
62	62	10
12	21	1
10	11	3
32	50	3
69	69	2
25	51	1
26	27	3
35	35	14
8	10	3
61	64	1
69	74	1
62	63	5
22	67	5
29	32	6
6	75	4
45	46	4
28	39	1
72	72	11
38	39	4
27	29	1
29	39	1
32	34	3
59	61	1
8	11	1
49	49	4
63	64	6
39	39	10
21	28	2
70	70	2
27	43	4
43	60	1
42	43	2
5	10	1
46	54	6
22	65	4
20	43	2
40	40	4
6	48	1
30	31	2
48	49	2
57	59	1
22	22	9
48	76	1
49	53	7
60	61	5
18	21	1
61	68	1
32	33	8
49	55	3
6	8	3
34	35	4
49	51	4
9	12	1
58	60	1
25	26	4
20	71	1
73	74	1
43	53	4
13	14	1
35	36	3
71	71	3
29	34	2
13	18	2
54	68	1
20	76	1
63	65	2
3	59	2
33	36	1
50	51	2
39	42	4
20	60	2
28	38	1
8	58	2
66	68	1
22	63	1
70	73	2
23	25	2
29	30	1
19	63	1
62	67	1
31	32	1
47	59	2
29	31	1
54	69	1
52	52	4
26	43	3
0	2	2
3	9	1
4	10	2
59	71	2
20	36	2
64	67	1
38	77	1
55	56	1
31	38	1
1	61	1
30	34	1
63	70	1
9	11	1
20	74	1
