115	115	21
119	119	14
37	39	4
129	129	13
50	50	10
94	94	10
73	73	12
43	58	3
114	116	4
109	109	18
86	86	20
72	73	11
84	85	9
40	40	28
36	36	15
107	108	5
118	118	33
15	16	8
42	43	4
44	44	11
91	92	17
105	106	10
127	127	13
111	111	15
16	18	2
134	134	17
56	82	2
24	24	9
86	120	7
127	133	8
14	15	5
68	68	4
20	20	14
105	105	7
92	92	19
110	112	6
104	105	6
17	18	6
47	47	36
11	12	11
87	88	12
102	102	16
116	117	3
109	113	4
57	58	6
39	40	1
121	121	5
110	110	25
100	100	10
57	57	19
67	69	3
124	124	16
17	19	3
34	34	14
14	44	4
8	8	14
107	107	16
121	129	3
94	95	5
72	72	9
85	97	1
81	81	20
2	2	15
6	6	15
19	19	14
66	66	3
74	76	1
9	9	13
118	119	9
64	64	8
90	90	16
36	38	11
87	87	20
79	79	14
96	97	1
106	106	18
81	83	5
80	80	15
87	98	5
82	82	17
126	127	10
126	126	7
38	38	14
120	120	11
9	11	4
37	37	9
112	112	17
76	76	16
11	14	2
68	69	2
33	35	4
40	41	7
39	39	12
130	130	6
21	21	15
92	114	4
28	28	13
33	59	1
131	132	8
22	22	6
79	80	12
43	44	7
73	74	8
96	100	4
37	38	11
46	46	12
4	4	7
29	43	1
75	76	12
114	114	18
35	36	1
88	133	3
16	16	18
59	59	21
74	77	6
90	107	2
1	71	4
129	130	10
32	32	13
14	14	8
132	132	16
37	41	1
98	98	11
7	7	20
61	61	9
63	64	10
114	125	1
10	10	7
25	25	15
18	18	17
62	63	2
106	107	6
13	13	9
69	76	2
104	104	11
21	22	8
117	118	6
49	49	8
85	85	10
123	124	7
110	111	5
65	67	2
42	42	26
83	83	10
27	28	6
84	84	10
78	78	13
33	33	9
128	129	6
117	117	14
76	77	4
103	103	25
33	62	1
11	11	8
2	3	5
41	41	17
85	95	3
65	65	6
48	48	7
47	48	6
121	122	7
69	78	2
99	99	11
61	67	2
31	32	5
3	3	7
75	75	20
72	74	9
31	31	20
26	26	14
122	133	2
115	117	1
13	14	15
43	43	15
89	89	16
84	98	1
108	109	8
45	61	4
91	91	6
21	26	5
123	123	11
97	98	4
11	13	2
17	17	12
133	134	12
93	114	1
97	97	3
42	58	1
5	6	8
93	113	2
120	134	1
90	106	5
122	134	3
55	59	4
28	29	4
45	45	14
92	125	8
63	63	11
57	82	4
86	95	8
30	30	7
115	116	4
94	100	1
113	113	11
71	71	4
131	131	19
77	77	13
41	42	5
90	91	1
17	44	1
123	133	3
95	95	14
93	93	16
70	70	8
62	62	17
115	125	3
119	120	7
111	112	3
128	132	2
70	77	1
10	62	2
76	78	1
18	19	3
3	9	1
33	34	2
113	115	3
11	19	2
42	48	5
51	55	12
24	25	5
133	133	7
106	112	2
74	74	4
84	86	4
122	122	5
58	58	7
101	102	4
69	79	6
11	63	5
27	42	5
56	81	1
26	27	17
12	12	9
35	35	13
16	23	2
120	121	4
88	88	12
0	74	2
48	49	6
49	50	4
109	111	3
43	48	2
4	7	2
61	62	5
69	69	12
15	20	4
107	112	3
92	93	5
15	15	9
114	115	4
0	0	5
96	99	5
91	99	5
126	134	2
60	129	3
125	125	8
95	124	3
9	34	2
29	29	7
101	101	15
98	99	2
28	43	1
60	60	4
23	24	5
121	123	3
30	31	7
55	55	3
123	127	6
113	114	4
25	48	3
18	63	4
4	5	5
58	59	2
112	114	6
82	83	6
48	50	6
29	30	2
18	24	1
69	70	2
46	64	3
112	113	5
94	96	1
85	87	4
13	19	3
13	46	2
51	54	1
96	96	5
28	30	1
101	105	3
55	57	3
78	79	1
107	113	1
8	9	4
27	27	6
83	97	2
28	41	2
38	41	1
105	107	2
24	26	2
109	110	1
26	42	3
67	67	8
0	1	1
99	100	5
15	32	2
33	45	2
23	23	7
8	10	4
86	96	7
16	63	1
128	128	9
71	72	2
85	86	3
28	83	3
4	6	6
5	5	11
43	59	1
99	124	2
95	120	2
38	39	8
26	28	3
79	83	1
11	61	2
72	75	4
46	47	4
108	110	5
78	80	1
86	87	3
11	34	1
116	116	7
14	20	1
13	63	1
122	129	1
68	70	2
92	94	4
14	16	2
26	40	2
28	57	1
46	63	1
86	97	1
128	130	1
103	104	3
30	32	2
9	10	1
45	62	2
122	130	1
54	55	1
31	35	2
108	108	5
127	134	3
81	82	2
79	118	2
92	124	2
56	57	2
89	124	1
12	45	2
130	131	2
16	19	1
122	123	1
56	83	2
90	92	1
127	132	3
31	38	2
120	123	2
29	58	1
132	134	2
55	84	2
74	75	2
60	130	2
46	60	1
121	128	1
47	63	1
60	84	1
129	131	1
44	45	1
29	38	1
77	78	2
50	128	1
15	63	1
84	131	2
14	19	2
59	60	2
32	44	1
3	4	1
20	22	2
120	133	2
10	64	4
17	45	1
124	133	1
1	2	1
88	132	1
64	65	1
44	47	3
89	99	1
34	35	2
55	56	1
11	45	1
132	133	1
110	113	1
71	74	1
3	67	1
56	97	1
119	121	2
54	58	1
56	56	1
7	9	1
29	41	1
33	44	1
57	98	1
121	130	1
33	61	1
17	48	2
95	96	1
85	120	1
60	62	1
13	20	1
34	61	1
94	117	1
