187	187	4
53	56	1
104	104	1
57	57	6
127	127	3
78	79	2
50	50	3
72	72	7
106	107	4
22	22	5
160	187	4
85	86	3
18	18	1
10	10	3
177	177	2
37	37	5
80	82	2
178	178	3
115	115	3
167	167	8
158	163	2
118	118	3
15	194	1
39	42	2
79	82	3
5	39	2
73	85	5
31	31	7
146	148	1
16	16	6
33	33	7
55	55	10
150	156	1
15	31	2
67	109	7
129	132	1
162	162	5
45	45	2
47	47	2
74	74	2
115	139	1
65	124	2
165	188	3
0	0	6
7	7	4
146	147	1
60	149	1
64	65	3
192	192	3
129	129	8
104	105	7
2	2	2
83	83	6
58	184	3
32	32	1
125	125	1
40	40	2
14	14	4
4	4	2
36	193	2
152	152	2
100	100	7
86	87	4
151	151	3
9	45	1
136	136	13
34	34	7
193	193	4
43	43	6
99	99	6
94	94	4
27	28	4
59	59	7
160	188	4
184	184	8
176	177	6
78	78	3
100	101	1
45	197	1
0	2	1
105	107	4
137	137	3
35	35	2
54	55	2
103	110	3
189	190	3
187	188	2
158	159	1
181	181	5
114	114	8
149	149	1
48	49	2
166	166	2
142	142	5
53	53	4
180	180	5
135	135	6
143	149	5
163	167	1
143	143	2
11	14	1
82	82	2
115	117	3
153	154	3
4	5	5
9	37	4
152	161	2
46	46	4
71	72	1
51	54	2
87	88	2
11	11	4
127	141	3
38	41	3
37	38	1
64	124	1
133	134	7
40	41	3
20	20	7
80	80	2
159	159	4
119	119	3
98	99	2
149	151	2
36	36	4
80	81	6
30	30	4
56	184	5
71	71	2
113	145	2
183	183	2
185	185	5
69	69	3
6	7	1
144	145	2
55	56	2
167	170	2
24	193	2
116	119	3
163	175	3
134	134	6
76	77	1
140	141	1
190	190	10
16	30	2
94	96	1
75	75	3
114	140	2
41	41	4
94	98	1
101	122	1
18	28	3
87	89	1
10	14	1
160	160	3
172	172	1
38	38	6
106	106	1
175	175	1
45	46	1
89	89	1
133	133	6
33	40	1
67	67	2
64	64	3
1	1	5
128	128	4
163	163	3
155	155	7
182	182	5
156	156	5
142	148	1
157	157	1
146	146	4
21	191	1
158	158	5
63	63	1
106	108	2
9	9	4
108	122	2
121	121	4
48	52	2
29	29	1
58	59	3
3	4	2
23	23	5
110	110	4
39	43	2
105	106	1
189	189	3
185	186	1
34	35	3
109	109	1
141	141	4
120	120	4
101	101	3
8	8	2
98	98	6
188	188	1
19	19	2
123	123	1
123	124	2
52	52	3
154	155	2
192	193	4
96	96	3
51	51	1
84	87	1
28	30	1
58	127	2
122	122	1
28	28	1
173	174	2
132	132	4
156	173	1
17	19	1
138	139	3
102	106	1
153	155	1
58	58	1
70	70	2
61	61	1
23	24	3
9	10	1
48	48	1
6	6	2
65	69	1
183	184	1
111	111	2
62	65	2
182	184	1
22	23	2
113	114	2
17	194	1
21	21	1
138	138	3
197	197	1
131	131	2
93	93	2
22	190	1
15	15	1
15	16	1
112	113	1
144	144	1
68	81	1
108	109	1
113	113	1
164	164	1
39	41	2
155	156	2
99	100	1
191	191	4
64	122	1
66	72	1
3	5	1
24	24	1
63	64	1
2	3	1
68	68	1
65	65	1
155	182	1
76	83	1
154	154	1
147	150	1
172	173	1
150	150	1
167	168	1
3	9	1
37	185	1
44	44	1
153	153	1
112	112	1
82	86	1
77	78	1
111	116	1
107	118	1
130	130	1
107	107	1
59	126	1
111	119	2
48	56	1
173	173	1
56	56	1
35	36	1
164	192	1
149	150	1
186	186	1
126	127	1
60	60	1
56	58	1
