228	229	2
227	227	11
14	14	7
201	202	9
152	152	4
208	219	1
168	168	20
15	15	18
180	180	20
184	186	3
151	152	5
83	83	4
12	13	2
228	228	10
235	235	10
170	172	1
27	49	5
144	145	5
0	0	2
73	73	13
24	24	5
82	82	8
123	123	5
164	227	2
211	211	23
7	12	5
211	213	3
25	29	9
180	182	2
137	138	1
48	48	16
13	13	4
226	226	5
167	167	14
239	241	2
164	165	3
193	193	3
233	233	9
9	11	3
109	127	2
156	157	7
238	239	4
33	33	6
18	19	4
121	121	6
209	213	7
80	80	12
146	146	15
146	196	6
158	164	7
47	47	9
43	43	7
25	25	6
47	50	4
49	49	11
213	216	3
50	50	15
211	212	10
168	170	2
16	21	4
130	197	6
158	158	4
115	115	11
58	89	3
156	156	10
12	12	19
153	153	11
234	234	4
116	116	2
207	207	20
173	173	12
56	56	11
172	172	16
41	41	15
22	22	6
145	145	14
186	186	6
51	203	3
87	88	4
134	134	9
160	160	6
3	60	6
35	35	3
139	171	2
170	170	1
202	202	12
33	36	4
117	117	4
122	123	2
54	54	22
165	165	10
105	105	14
60	60	12
219	219	12
141	142	8
72	127	3
147	148	8
138	191	3
57	57	5
215	215	11
106	110	2
34	34	7
241	242	2
119	119	9
120	120	13
31	31	8
196	196	6
199	205	2
79	109	1
32	32	5
108	109	1
224	225	4
197	198	7
188	222	4
81	81	11
98	99	2
32	36	2
128	129	3
45	45	4
31	32	3
236	236	7
8	88	4
127	128	3
197	199	2
71	72	5
72	73	3
234	235	8
216	216	6
115	116	5
160	171	2
220	220	9
140	141	4
206	207	3
198	198	10
138	139	2
50	51	4
61	61	20
56	82	1
28	37	1
71	71	8
5	5	7
203	203	9
74	74	10
47	53	3
153	155	4
69	69	15
53	53	2
198	201	5
79	83	4
221	222	5
109	109	12
122	122	11
191	191	21
138	162	7
75	75	9
176	180	2
224	224	11
208	209	2
212	212	6
188	189	6
111	111	1
84	84	9
65	66	3
154	156	1
59	59	9
65	76	2
189	189	14
145	147	1
225	225	13
8	8	4
43	44	5
107	107	5
129	151	1
139	140	8
47	48	3
137	137	14
173	191	2
129	129	4
188	207	2
200	200	4
230	230	13
86	86	5
3	4	4
154	154	10
184	210	2
20	21	3
9	9	16
157	157	12
208	208	3
166	166	7
113	128	2
55	55	5
150	153	1
138	167	1
113	113	6
7	156	1
181	182	6
54	55	2
63	63	10
38	38	8
234	238	3
167	168	6
20	24	1
3	3	7
150	150	3
191	192	2
190	191	5
46	74	2
16	16	6
187	187	9
88	88	8
147	147	10
193	194	2
20	88	4
121	122	4
30	31	7
154	158	1
144	144	8
127	127	9
177	178	6
102	102	17
146	147	7
62	74	2
42	42	4
189	223	5
100	100	4
7	7	3
239	242	1
173	174	9
104	104	5
26	29	3
231	231	8
58	58	6
192	195	2
205	205	16
232	232	10
206	206	9
188	188	3
27	27	19
241	241	4
214	214	6
162	162	2
20	30	3
210	213	3
101	101	7
20	20	4
183	183	12
201	201	15
130	130	3
80	81	6
204	204	6
81	82	5
172	173	5
112	112	4
65	65	2
26	26	8
37	38	11
209	209	8
5	8	4
28	28	3
98	98	6
142	142	2
83	84	1
164	164	6
51	51	16
133	133	5
118	118	2
41	42	1
189	200	2
214	215	2
179	180	7
33	174	3
20	85	5
11	11	9
23	23	2
127	129	1
62	62	8
128	128	16
62	64	3
62	63	2
60	73	1
176	176	5
70	71	1
240	240	4
36	168	2
163	189	1
197	197	9
145	199	1
242	242	5
237	237	1
194	196	2
223	223	4
79	80	1
135	136	4
33	168	1
192	192	3
186	187	2
165	166	5
227	228	1
135	169	2
161	161	8
17	55	4
6	6	9
199	199	5
36	36	5
19	19	8
29	29	14
140	140	9
150	152	1
52	53	4
10	10	4
37	37	9
217	217	5
239	239	4
72	72	3
177	179	3
139	139	9
177	191	1
59	60	2
32	115	2
157	167	4
199	200	3
30	30	3
39	39	5
138	235	1
14	21	2
138	138	5
15	16	6
28	99	4
104	109	4
177	177	10
241	243	2
96	97	3
117	118	8
22	23	3
27	28	1
110	110	4
183	184	2
182	182	8
228	230	1
46	46	3
200	201	2
194	194	3
71	98	1
155	155	8
125	126	1
0	105	1
217	220	3
218	218	4
17	21	1
31	175	2
200	203	3
178	182	2
184	184	8
6	107	2
64	65	4
18	76	3
17	17	3
152	153	4
133	134	1
18	18	4
222	228	1
7	11	2
159	161	1
224	230	2
213	213	7
149	150	2
129	130	2
70	70	5
176	191	2
4	4	2
131	195	3
103	103	3
148	148	4
178	178	11
44	44	3
134	135	4
64	76	2
8	9	6
102	134	4
99	99	2
184	203	2
58	59	1
136	136	3
120	121	3
141	143	1
175	175	3
40	40	6
238	238	4
96	106	2
85	86	1
64	64	3
149	151	3
60	61	1
137	139	2
1	1	7
4	6	1
29	95	1
223	224	1
9	10	2
145	196	2
136	137	2
169	169	3
182	183	3
139	167	2
135	135	4
190	190	4
64	69	3
136	170	1
153	154	4
142	214	2
119	120	3
207	220	2
16	55	1
146	169	2
184	199	1
143	144	4
169	171	3
165	192	3
2	2	2
36	115	3
28	40	1
141	144	3
229	229	2
219	234	1
97	105	2
60	74	2
240	241	2
6	7	3
218	221	2
68	68	4
189	217	2
77	79	2
1	121	4
106	107	2
68	75	8
219	233	2
40	42	3
11	12	1
4	91	1
2	79	1
44	45	4
138	218	1
82	83	2
172	198	1
97	97	4
181	181	3
233	234	1
209	211	1
126	126	3
139	144	2
142	143	2
58	81	1
47	171	4
26	55	1
143	145	3
24	25	2
178	179	3
118	119	2
148	149	2
214	216	3
179	179	3
7	8	2
222	222	2
39	40	1
52	52	2
174	174	5
149	149	2
31	174	1
32	102	2
65	75	1
68	106	5
17	88	2
29	47	2
171	171	5
112	113	3
159	160	1
239	240	3
221	221	1
63	64	1
26	171	1
125	125	1
131	131	2
31	103	1
105	106	3
12	156	3
67	67	7
61	62	1
71	101	1
96	96	2
159	159	2
132	132	2
128	131	1
85	85	3
114	127	5
125	127	2
194	197	2
57	59	2
104	105	1
78	177	2
226	230	1
104	125	1
61	73	1
103	107	1
7	110	4
230	231	1
80	82	2
21	23	1
202	203	2
211	231	1
8	22	2
196	198	1
48	49	1
163	192	2
76	76	1
189	190	2
237	238	2
44	75	1
148	152	2
73	74	2
78	79	2
195	196	1
49	50	2
106	106	1
45	48	1
136	235	1
187	190	3
166	167	1
77	78	1
28	91	1
13	15	2
185	185	2
150	158	1
2	3	2
24	86	1
84	85	1
162	187	1
9	59	1
219	237	1
213	215	1
59	89	1
162	190	1
232	234	1
150	151	1
160	164	1
21	21	1
132	133	1
23	24	1
113	152	1
187	221	1
51	52	1
187	188	1
131	169	1
160	161	1
28	42	1
74	75	1
5	107	1
85	87	1
3	6	1
109	110	1
130	131	1
171	172	1
