50	53	3
120	120	7
3	5	2
129	129	8
72	72	10
91	91	11
59	66	1
104	104	14
56	83	3
11	32	2
77	77	7
90	90	10
16	19	1
102	105	2
130	131	6
35	35	12
57	57	6
67	67	5
15	23	6
125	125	11
22	22	4
74	82	1
16	32	1
30	31	3
63	63	8
61	61	5
9	9	3
26	26	16
86	86	12
34	93	3
132	132	8
86	96	1
98	99	1
72	103	7
82	82	5
99	99	6
16	17	1
110	110	4
29	30	6
122	127	3
76	76	24
45	45	4
73	73	5
60	60	6
117	117	6
88	88	7
79	80	7
121	122	2
102	104	5
124	126	3
23	23	6
121	126	6
101	101	8
133	133	13
124	124	13
44	44	7
12	14	5
11	11	10
27	27	3
107	128	2
121	121	9
49	78	3
93	93	3
15	25	3
115	127	1
37	37	4
52	53	1
118	119	1
21	22	7
87	88	2
28	28	6
12	12	4
135	135	7
55	55	6
10	10	10
74	74	4
111	111	6
47	47	4
18	18	2
54	54	10
69	69	12
86	87	3
80	80	19
24	24	9
65	66	6
62	62	13
114	114	9
107	108	6
96	96	7
32	33	1
122	124	3
68	68	2
1	2	4
43	43	16
26	27	5
98	98	9
130	132	6
10	32	7
6	6	6
65	65	11
5	20	2
4	5	2
126	126	6
71	90	2
75	75	12
106	121	3
103	103	10
31	84	2
7	7	9
62	63	3
15	15	10
69	70	4
105	106	2
19	21	1
119	119	4
54	55	6
34	92	1
123	134	3
45	81	3
83	85	9
91	92	3
25	26	2
106	106	12
134	134	9
16	16	15
132	133	7
54	129	2
14	14	4
106	133	1
89	90	3
130	130	8
127	127	7
93	107	2
25	25	4
77	78	4
84	125	4
113	126	2
10	57	4
123	123	7
22	23	6
21	21	6
7	11	2
122	123	2
99	121	4
45	67	4
109	109	13
119	120	1
122	122	14
68	69	2
11	34	5
54	57	1
99	100	3
102	102	10
96	103	1
30	30	7
13	14	3
71	71	8
3	3	7
38	42	1
112	113	6
50	50	5
94	94	9
83	96	8
32	34	1
78	78	1
95	134	1
19	20	3
86	100	2
45	49	3
55	80	3
88	104	2
94	96	2
4	36	2
59	59	8
125	131	1
31	31	6
88	91	5
81	82	5
36	36	9
118	118	1
11	12	3
1	1	7
121	127	4
92	93	9
73	102	1
72	73	7
33	37	2
3	7	3
106	130	4
63	67	3
50	89	2
92	92	5
79	79	4
64	64	6
57	58	5
52	52	2
9	10	2
1	20	3
113	125	1
66	66	2
65	68	2
93	94	6
45	47	2
98	100	1
118	123	3
2	14	2
53	53	2
8	8	5
92	102	2
83	83	3
100	100	6
106	124	5
72	75	2
107	107	5
127	133	1
58	58	2
89	89	3
43	44	1
87	87	6
2	2	7
21	23	1
113	113	4
107	130	4
124	125	3
64	75	1
29	29	3
109	110	5
75	76	1
59	71	3
1	42	2
112	112	7
98	104	1
70	70	8
108	131	2
56	56	1
13	13	9
15	16	3
61	79	1
77	83	3
58	63	1
56	58	1
17	22	3
128	129	4
115	115	10
53	55	5
105	105	7
24	25	2
68	119	1
97	97	9
44	49	1
106	120	1
59	60	2
55	57	3
55	90	2
75	105	2
20	24	1
6	12	4
27	28	2
123	129	2
32	32	5
34	38	1
129	130	1
125	126	1
91	97	1
84	126	7
48	62	1
77	80	1
63	64	1
108	108	7
48	48	2
131	133	1
33	34	3
125	128	2
17	17	2
128	128	3
85	85	3
46	46	1
96	106	1
28	33	3
44	52	2
64	68	2
112	114	1
46	49	1
97	99	2
111	116	1
84	84	3
6	8	1
116	118	1
95	95	6
111	119	1
4	4	1
99	101	1
49	77	2
5	5	4
56	78	3
1	37	3
51	72	1
33	33	3
115	122	1
119	122	1
84	108	4
61	63	1
38	38	4
112	119	1
123	125	3
57	61	3
87	89	2
126	127	1
59	70	1
61	62	1
79	85	1
0	17	1
117	128	1
101	102	3
45	46	1
106	113	1
56	57	3
20	21	2
71	72	3
103	104	3
3	8	1
112	115	4
66	67	2
95	102	1
49	49	1
57	60	1
82	84	4
58	75	1
97	98	1
114	115	1
37	92	1
82	85	3
0	0	2
114	120	1
19	24	1
30	33	1
85	93	1
50	52	1
93	96	1
107	126	1
110	123	1
35	36	1
8	9	1
56	59	1
10	11	1
11	56	1
12	73	1
1	44	1
21	34	1
131	131	1
113	114	1
5	38	1
20	20	1
92	96	1
100	101	1
93	108	1
43	70	1
33	35	1
35	92	1
76	80	1
