77	77	5
62	62	11
91	101	2
90	90	19
42	42	4
40	48	1
72	74	5
67	67	4
76	90	2
61	61	13
60	67	8
26	38	4
64	73	1
95	95	7
25	26	2
70	70	12
23	26	1
97	99	2
76	78	7
83	87	3
38	51	8
81	82	6
45	45	8
63	63	7
66	67	6
101	102	6
56	70	1
89	89	11
24	24	1
51	51	9
65	65	12
34	44	1
98	98	4
84	88	2
73	73	14
26	36	1
57	59	1
22	22	6
35	38	3
66	68	1
60	60	8
48	49	9
74	80	6
66	70	3
81	81	11
64	65	5
85	89	2
34	49	3
85	85	13
79	87	2
47	47	5
90	91	11
82	94	1
29	29	3
38	42	1
64	84	2
43	65	2
57	57	10
68	68	14
72	83	3
44	57	4
81	88	5
66	73	2
67	80	1
72	81	1
75	79	4
41	41	2
96	96	7
23	29	2
70	77	3
33	54	2
70	72	1
81	83	2
58	58	2
76	76	4
34	34	2
57	83	1
87	87	6
96	97	2
24	25	1
32	32	4
60	62	3
71	71	7
52	52	6
80	80	5
72	72	6
56	56	6
82	84	4
35	46	6
22	35	1
53	60	2
23	25	2
67	76	4
99	100	4
69	71	3
23	41	1
80	81	3
50	62	2
96	100	3
97	97	3
94	94	3
89	90	1
39	39	8
35	35	1
85	91	2
37	61	5
92	92	4
75	76	5
84	86	2
20	31	1
65	73	2
35	51	9
86	87	2
67	89	2
42	68	4
89	91	3
73	74	3
78	78	4
88	88	11
77	79	2
67	71	3
43	56	2
101	101	4
100	100	7
87	95	7
30	30	3
67	70	3
74	86	1
49	61	2
76	77	1
38	45	3
69	88	5
48	48	7
27	27	1
69	69	14
68	69	5
35	54	2
71	80	2
49	49	1
34	38	3
50	52	1
79	79	3
66	66	7
60	61	1
45	46	1
34	35	1
64	68	4
93	94	4
36	48	3
75	75	4
31	33	1
49	62	3
59	59	4
81	84	3
80	97	2
53	53	4
83	83	8
62	80	2
93	97	3
93	95	4
63	80	2
74	74	7
99	99	2
28	53	2
54	54	6
36	53	3
55	55	2
56	69	2
72	88	1
60	72	1
44	44	11
73	76	2
69	70	4
51	64	4
64	64	3
95	96	2
94	99	2
88	89	3
72	89	1
58	59	2
65	69	1
85	88	2
72	87	1
20	27	1
26	26	5
87	96	2
66	80	1
48	50	4
47	58	1
88	90	4
67	68	1
20	22	1
48	54	1
65	79	2
40	84	1
79	84	1
23	31	1
52	77	2
26	37	1
86	86	2
92	93	2
43	43	1
87	94	1
34	46	1
95	98	2
79	80	2
34	52	1
41	43	2
42	63	1
28	40	1
96	101	1
83	86	1
36	43	1
41	42	3
65	78	3
66	79	3
60	64	2
74	75	1
92	94	1
50	64	1
61	88	2
46	46	1
56	60	1
75	96	2
72	90	1
76	79	1
73	80	1
93	99	1
95	97	1
84	96	2
26	39	1
50	53	1
93	98	2
71	81	1
42	44	1
48	51	1
42	45	1
60	66	1
37	37	3
102	102	1
50	50	1
39	42	2
32	47	1
41	53	3
68	74	1
31	31	3
77	78	3
41	67	1
69	80	1
33	33	2
63	76	1
64	69	1
80	83	1
53	59	1
52	62	2
73	86	1
80	87	1
72	73	1
84	84	1
78	79	2
50	59	1
27	34	1
80	82	1
74	89	1
73	75	1
68	89	1
42	57	1
81	86	1
91	93	1
39	40	1
59	68	1
43	60	1
86	88	1
40	40	1
87	88	1
68	81	1
59	64	1
67	85	1
58	68	1
40	54	1
