41	41	4
174	174	4
31	31	3
4	4	5
54	74	4
218	218	8
216	216	6
164	166	6
42	42	9
136	137	2
97	97	2
231	231	9
191	191	10
26	26	6
177	178	2
179	180	4
138	138	10
159	160	1
38	38	3
138	139	2
21	23	4
120	120	13
42	43	2
100	100	2
195	196	1
144	144	10
190	190	4
176	185	3
133	134	3
85	86	2
8	9	1
207	208	11
54	73	1
136	138	2
37	38	3
172	172	2
24	24	2
73	73	7
65	65	2
151	154	1
56	56	6
101	102	2
232	233	1
175	179	3
16	17	5
178	178	2
202	202	7
3	6	1
235	235	4
232	232	2
149	149	3
4	6	1
101	101	4
237	237	6
180	180	5
224	224	3
165	165	9
167	167	4
51	51	4
190	191	6
241	241	2
99	121	3
40	82	4
128	128	5
226	227	4
213	213	7
77	77	2
206	206	6
53	53	1
100	101	6
28	28	7
159	159	4
155	158	4
28	29	2
121	121	2
203	204	6
151	151	4
200	205	3
170	170	4
166	167	4
35	36	5
54	55	1
12	12	4
134	134	9
222	223	1
61	61	2
19	19	4
239	239	12
0	1	1
165	189	8
129	129	13
142	142	2
238	240	3
196	197	2
186	186	2
196	198	4
102	102	2
150	150	5
182	207	5
186	187	1
118	119	3
195	201	2
209	209	9
73	74	1
166	166	3
72	73	7
140	141	4
233	233	5
45	46	2
234	235	1
168	168	2
27	28	7
163	163	5
55	55	9
183	183	1
64	64	8
236	236	11
192	192	2
193	193	1
131	214	5
197	198	3
67	73	1
231	232	1
153	155	1
104	104	4
18	19	1
75	75	4
169	169	7
48	48	5
210	211	3
173	173	12
137	137	4
205	205	4
238	238	4
120	121	3
7	8	2
217	217	7
3	30	4
136	136	1
200	200	4
114	114	5
114	115	2
23	30	4
117	117	2
69	69	9
130	130	4
95	96	1
32	32	6
139	140	3
214	214	4
67	68	2
182	201	3
222	222	4
76	82	1
141	142	1
145	147	3
219	219	6
190	192	4
206	208	4
21	22	2
107	113	2
157	157	3
208	208	7
153	154	1
39	39	7
105	105	9
47	48	6
17	17	2
64	65	5
60	60	4
143	143	6
122	122	2
147	147	4
241	242	1
38	40	1
152	153	1
47	47	4
108	154	5
9	9	1
20	20	1
8	8	5
72	72	3
2	2	2
80	80	3
189	189	3
10	10	6
226	226	2
79	81	2
202	213	3
236	237	1
227	230	2
192	208	2
0	2	2
195	212	1
171	171	1
202	217	4
29	29	2
95	105	1
86	86	3
76	76	2
121	128	3
85	85	4
242	242	1
142	216	2
9	137	3
44	44	5
13	13	2
74	74	1
36	42	1
210	210	1
36	36	2
211	211	1
172	174	3
176	191	2
15	15	1
169	223	4
235	236	1
105	114	2
155	156	2
208	232	1
169	224	6
228	228	1
162	162	4
21	21	4
29	133	1
226	239	2
77	78	2
187	187	5
201	201	2
153	157	3
176	180	2
44	45	1
19	20	2
166	189	2
48	49	2
59	60	1
3	3	3
157	158	3
20	134	2
18	18	2
234	234	2
118	152	3
185	186	1
34	34	1
148	148	1
181	192	2
26	27	3
200	204	4
88	88	3
10	16	2
220	221	1
106	106	1
65	66	4
216	217	2
184	188	1
107	107	1
181	203	1
45	45	2
127	127	1
116	158	3
229	229	2
68	68	2
16	16	1
161	161	2
195	195	1
25	27	1
169	170	1
14	14	1
115	116	2
57	57	1
225	239	1
66	66	1
164	165	1
75	76	1
167	170	1
115	115	1
124	124	1
191	193	2
146	146	1
1	123	1
220	220	1
80	81	1
50	50	1
123	123	2
81	81	1
152	152	2
22	23	2
118	118	1
160	160	1
4	5	1
113	119	1
225	225	1
182	204	1
238	239	1
