106	119	2
85	85	1
150	151	3
64	64	4
22	128	3
39	39	2
149	149	8
119	119	6
66	124	3
125	125	2
99	99	3
129	130	4
151	151	6
29	145	3
123	123	5
113	132	1
139	141	3
116	116	4
25	25	3
96	96	1
136	136	5
87	87	1
101	109	2
24	73	3
113	113	2
77	79	1
72	72	3
9	9	6
18	18	6
38	38	4
80	80	2
25	63	6
115	116	1
124	124	1
5	5	2
21	21	5
17	17	3
139	139	5
107	107	8
145	147	3
38	39	1
92	137	1
81	82	4
5	6	2
135	135	1
137	137	8
141	141	3
135	139	2
53	53	2
48	49	2
127	127	2
93	95	3
12	12	5
30	30	5
104	106	1
144	145	4
24	24	3
67	67	5
133	133	3
13	15	2
66	126	4
72	80	1
77	77	3
62	62	1
29	30	1
108	109	4
48	48	11
83	83	3
143	144	2
105	106	2
32	142	2
93	94	2
19	20	3
130	130	3
97	134	1
81	81	3
148	148	4
94	94	3
36	36	4
11	11	3
56	56	3
22	22	4
63	63	4
55	55	3
40	51	3
66	67	3
102	106	1
109	109	4
34	34	3
19	19	6
113	114	1
110	110	6
67	124	6
131	132	1
104	154	3
93	135	1
27	27	4
10	10	1
93	93	6
28	28	2
106	106	4
104	104	2
18	19	3
69	69	3
75	75	4
24	25	1
131	131	1
101	101	2
8	8	3
45	45	2
134	134	2
152	152	3
54	55	1
74	75	5
7	7	1
14	14	4
27	78	1
71	71	2
10	14	1
121	124	5
140	140	2
76	77	1
111	147	1
26	28	3
37	37	3
73	82	1
80	82	2
3	20	1
138	139	2
103	103	1
13	13	3
73	73	1
73	74	2
39	40	5
49	51	1
146	146	2
43	43	1
50	50	2
69	129	1
102	102	1
90	90	2
103	104	2
82	82	2
107	108	5
81	87	2
99	100	1
6	61	1
33	33	1
88	88	2
122	122	3
80	81	1
4	62	2
77	80	1
76	76	3
43	53	1
51	51	2
147	147	5
83	84	2
96	97	2
38	86	2
31	76	2
20	20	1
86	86	2
78	144	1
28	29	1
41	42	1
92	92	4
43	52	1
84	84	1
68	68	2
126	126	1
6	6	2
42	42	3
44	45	1
117	129	1
49	50	2
154	154	3
23	24	1
132	133	1
111	111	3
98	113	2
16	17	1
108	108	1
31	31	1
113	147	2
120	121	5
4	5	3
134	135	1
95	95	2
100	100	1
69	131	1
106	109	1
150	150	1
69	128	1
10	11	1
97	97	1
68	129	2
132	132	1
121	121	1
46	46	1
15	21	1
148	150	1
57	57	1
75	76	1
100	101	1
116	130	1
