187	189	4
141	142	6
104	109	4
39	46	1
0	4	2
135	142	6
30	38	4
130	130	7
142	142	12
1	1	3
81	92	9
157	157	8
62	64	3
174	174	6
177	177	5
70	87	4
169	169	2
110	115	2
141	141	6
89	102	4
141	144	6
118	121	2
156	163	2
11	12	7
111	124	9
46	53	2
45	48	2
175	185	3
153	154	8
10	38	3
93	99	1
19	28	2
96	104	3
149	153	4
11	14	4
26	27	2
72	82	2
155	156	3
129	136	4
22	22	3
182	183	4
171	172	4
47	53	2
25	25	7
179	186	4
6	6	4
142	143	1
168	179	7
15	15	6
92	92	8
162	164	2
33	43	1
167	168	2
165	166	2
159	176	6
28	38	3
137	139	1
155	157	2
14	15	5
156	159	4
4	12	3
143	157	2
141	158	2
8	35	1
126	127	3
80	99	1
137	147	1
127	150	1
124	154	2
97	97	4
137	137	7
84	98	7
0	10	1
81	94	2
137	150	3
117	118	4
152	157	1
99	115	1
12	15	3
46	46	5
66	67	5
4	10	7
6	17	5
143	144	1
97	99	2
122	124	7
154	156	3
147	147	2
74	77	4
38	48	1
95	96	3
189	189	16
13	26	2
151	153	1
111	115	3
93	94	1
87	99	4
95	95	8
79	93	1
170	171	3
28	28	5
104	104	4
67	75	3
121	121	10
2	8	8
16	16	15
104	113	2
141	178	4
171	171	3
177	178	4
36	42	2
67	72	4
1	2	4
170	170	1
143	167	4
16	24	2
18	74	2
156	166	2
160	165	2
120	124	2
62	66	8
125	125	8
78	78	9
112	114	2
22	44	3
80	80	7
135	144	4
128	146	2
135	141	4
24	24	8
123	123	8
88	89	2
55	61	5
166	166	9
145	151	6
190	190	3
145	145	6
168	168	5
163	173	2
124	132	1
178	178	10
136	136	4
94	94	12
85	85	1
10	11	3
173	173	5
134	134	2
6	15	2
135	138	2
57	67	1
25	27	9
72	83	2
187	187	5
116	123	3
82	97	1
162	165	4
54	58	2
186	186	11
102	104	4
92	104	4
117	117	4
88	88	5
158	160	6
0	1	1
13	13	7
115	115	7
105	108	1
98	109	2
13	21	7
83	97	2
162	172	2
21	21	9
171	182	4
6	19	1
167	178	2
167	169	6
57	58	7
30	37	1
179	179	11
109	110	1
19	23	2
58	68	3
66	66	3
114	117	1
0	0	7
57	62	1
83	83	7
15	21	1
75	76	3
120	121	6
86	96	1
30	32	3
24	27	1
35	35	2
41	44	4
145	146	3
71	80	1
93	95	4
168	182	2
114	115	2
161	161	6
181	185	3
186	189	3
109	116	3
39	48	3
97	101	5
89	93	3
40	44	5
185	185	4
60	61	3
12	16	3
11	15	3
3	13	1
77	78	2
61	61	6
64	65	3
160	160	3
19	19	1
155	155	5
135	153	1
123	136	2
164	165	2
94	110	3
2	9	1
160	161	1
52	55	1
148	148	10
173	176	4
162	162	8
48	48	4
26	30	2
135	135	14
92	96	4
143	143	15
138	138	7
180	180	1
97	110	1
3	18	1
90	96	3
139	185	3
33	48	2
138	140	1
169	176	1
179	180	3
113	115	3
86	86	2
139	156	2
146	153	1
98	98	5
158	159	3
83	95	4
102	102	4
88	100	2
41	45	4
108	118	4
88	90	5
77	77	10
113	120	3
93	93	1
141	153	5
36	68	2
8	8	9
170	183	5
146	152	1
15	16	5
112	123	3
163	164	8
80	96	2
136	143	2
180	182	1
156	158	4
55	62	4
150	152	6
53	60	3
80	85	1
64	66	4
172	173	5
103	120	3
36	79	4
10	14	7
141	155	1
132	132	11
58	58	9
127	128	3
162	163	8
100	122	2
78	79	1
76	76	5
68	68	4
131	135	4
98	99	2
81	88	1
20	23	4
26	26	7
183	183	4
188	189	7
95	97	3
11	29	4
82	95	4
109	109	6
65	83	3
171	180	3
105	110	2
109	111	1
126	132	2
124	127	4
146	146	6
161	171	6
88	99	3
103	105	1
152	152	6
15	26	5
175	175	9
145	175	4
182	182	12
12	17	1
180	181	3
55	55	3
157	163	1
1	17	5
187	188	1
75	77	7
117	119	2
109	121	2
117	132	4
169	187	5
152	160	2
172	185	1
29	80	2
139	150	3
31	33	2
114	119	3
4	32	1
81	102	3
158	179	1
26	41	1
29	29	3
34	34	3
31	34	2
104	108	3
12	12	8
85	88	2
176	190	3
142	154	4
0	3	2
169	178	2
129	130	3
121	123	3
150	150	5
153	161	1
178	183	3
183	184	6
76	102	3
61	63	3
0	7	4
160	162	7
2	2	7
128	140	2
165	183	1
105	119	5
3	3	4
113	132	3
56	77	2
186	188	5
0	13	2
155	158	1
107	118	2
105	105	6
139	139	13
27	28	1
143	146	3
68	80	4
22	24	5
80	90	5
74	76	2
134	142	1
2	11	1
41	43	5
175	188	1
91	91	4
106	108	5
76	82	1
112	112	4
167	167	9
92	95	2
43	43	3
133	144	2
14	26	1
1	13	1
55	63	3
132	134	1
16	17	2
56	64	1
145	159	1
8	24	12
106	106	6
3	5	4
39	39	2
12	13	8
56	56	7
103	112	1
38	40	2
153	153	3
86	91	2
115	129	2
12	27	3
4	24	1
184	185	6
180	184	2
101	111	1
58	63	2
163	167	3
22	34	2
78	99	2
5	6	1
126	126	5
32	32	2
131	139	1
126	138	1
127	136	2
57	63	1
114	116	3
139	159	1
135	170	3
42	42	2
164	164	6
157	178	1
14	21	3
61	69	3
6	9	1
70	71	4
58	66	6
100	111	1
77	83	4
149	149	4
136	148	4
100	115	2
145	147	2
24	28	1
167	171	1
176	178	2
153	155	2
32	41	1
75	87	2
83	96	3
128	136	1
73	73	4
120	128	1
65	76	2
99	112	4
105	118	2
156	157	6
108	113	2
151	151	4
128	129	4
99	104	2
74	74	4
180	183	5
40	40	7
97	98	1
82	82	7
124	126	2
157	160	2
10	10	2
110	110	4
6	10	2
170	180	1
89	89	2
136	146	3
136	170	3
131	133	11
179	182	1
17	20	3
84	86	4
106	120	1
101	105	1
149	162	1
127	149	1
45	47	4
8	13	3
125	126	6
13	14	1
60	63	1
158	165	3
36	59	4
168	171	2
37	37	6
150	151	1
152	165	2
156	156	2
127	140	1
36	36	3
56	61	1
154	157	2
6	11	1
127	127	4
118	125	2
23	23	2
145	148	2
70	73	2
93	102	2
5	5	3
154	165	1
98	112	3
7	12	2
117	126	2
176	189	3
158	158	5
109	179	2
89	90	1
99	111	1
119	119	3
13	28	2
56	72	1
154	154	8
130	140	4
3	7	1
123	125	2
100	116	2
54	63	8
41	41	3
27	38	2
11	17	2
16	25	5
117	120	4
156	168	1
64	71	4
1	19	3
59	59	2
11	11	5
38	60	1
139	149	5
149	160	1
166	168	1
71	75	2
35	37	4
39	44	7
185	186	1
184	186	4
141	145	5
53	53	5
178	188	1
159	159	2
65	65	3
28	29	2
38	41	1
124	135	1
144	153	3
127	138	1
30	39	1
92	93	1
169	170	3
139	147	2
113	113	5
167	176	1
56	70	1
181	187	1
6	12	2
0	2	1
106	119	2
142	157	1
17	17	2
137	138	1
142	158	2
23	33	5
151	154	1
124	124	3
137	149	2
103	104	1
150	157	1
27	27	2
93	103	2
82	94	2
66	72	4
155	171	2
129	138	4
76	85	2
76	80	1
188	188	2
31	43	2
33	34	1
87	101	1
161	162	3
89	99	2
160	173	3
21	23	3
167	170	3
2	5	2
93	100	2
185	188	3
19	24	1
158	166	2
30	33	1
169	183	1
2	19	2
133	133	2
29	37	4
159	167	1
108	111	4
16	90	2
135	136	5
112	115	3
92	102	1
163	163	4
157	159	2
107	119	1
163	172	3
63	73	2
132	133	2
37	41	1
149	158	2
53	62	2
27	36	2
157	158	2
30	30	1
147	157	3
32	33	1
73	91	1
62	62	2
165	167	3
99	100	2
165	165	3
113	114	3
65	66	1
149	150	3
113	125	4
4	4	4
104	116	1
96	99	1
13	20	2
165	168	1
72	74	4
73	82	1
7	18	2
144	144	4
183	185	2
128	128	2
84	87	2
5	11	1
74	80	1
114	126	1
105	109	1
96	96	5
100	100	2
54	54	5
86	97	1
165	174	2
33	33	4
71	81	1
81	81	3
14	14	3
153	167	1
83	85	1
71	72	2
72	72	1
94	97	2
17	40	1
137	158	1
75	86	1
169	185	3
27	48	3
0	18	1
37	47	1
60	74	1
116	130	1
156	171	1
2	3	2
44	44	2
121	122	3
71	78	3
1	6	4
99	113	4
108	108	7
150	154	1
147	151	1
179	183	1
14	23	2
76	94	1
123	128	1
91	105	1
139	163	2
22	29	1
54	64	1
88	98	2
38	38	1
130	142	1
111	111	1
4	7	1
119	129	2
133	134	1
170	174	3
87	88	3
149	161	2
20	20	3
101	106	4
18	27	1
101	113	1
156	167	3
37	39	2
108	114	2
33	45	2
146	147	3
156	164	1
156	165	1
136	147	1
78	81	2
63	63	3
134	135	2
45	46	3
116	127	1
0	19	3
24	42	3
5	14	1
65	90	1
101	101	4
189	190	7
45	45	2
109	115	3
62	63	2
84	93	1
161	173	1
119	121	1
20	27	4
56	62	3
78	92	1
91	92	1
163	174	1
99	99	2
91	97	3
92	108	2
47	47	4
118	122	2
72	77	2
131	131	1
25	32	2
176	186	1
28	40	1
136	140	2
100	103	1
140	140	1
173	185	1
171	181	1
22	31	1
159	161	1
175	178	3
145	153	1
181	182	1
40	41	1
131	136	1
65	79	2
146	156	2
101	103	3
107	107	4
47	48	1
129	175	1
73	81	1
121	132	1
5	7	2
87	95	2
170	172	1
82	96	1
118	118	4
119	128	1
140	147	2
60	60	1
130	146	2
163	165	5
176	177	1
79	79	1
111	112	2
169	175	1
184	184	2
141	185	1
13	17	2
32	34	2
96	97	1
3	19	1
81	83	1
63	75	2
116	116	1
181	189	2
160	174	1
4	18	1
74	87	2
105	120	1
40	42	1
112	113	2
187	190	1
99	106	1
8	18	1
25	36	1
180	190	1
27	40	1
85	91	3
84	84	2
86	87	2
176	187	1
120	129	1
131	132	1
68	82	1
96	106	1
3	6	1
7	24	1
142	147	1
25	30	1
25	26	2
108	127	2
151	160	3
115	118	1
177	180	1
127	139	1
135	147	1
22	26	2
41	48	1
91	93	1
124	148	1
37	38	3
1	12	1
168	176	2
78	80	4
25	29	2
144	148	1
31	40	1
82	88	1
70	81	1
100	105	1
106	122	1
181	181	3
87	92	1
81	82	1
5	19	1
11	16	2
72	73	1
108	116	4
72	75	1
86	103	1
37	40	4
141	175	2
182	185	1
4	23	2
55	59	1
65	67	2
89	91	1
30	31	2
2	10	2
123	130	2
72	85	1
125	139	1
0	20	1
67	67	1
79	85	3
36	38	1
172	172	3
123	137	1
6	22	1
181	186	3
94	107	1
107	109	2
125	171	1
138	152	1
85	94	1
136	138	2
71	83	3
71	71	1
24	35	3
88	97	1
4	11	1
155	163	1
134	146	1
33	35	1
157	166	1
142	178	1
124	133	1
180	186	1
87	96	1
162	167	2
44	46	1
107	115	1
84	88	1
159	160	1
14	16	1
145	154	1
11	90	1
4	19	1
67	79	1
110	125	1
57	60	1
165	170	1
162	174	1
101	102	1
126	129	2
34	44	2
36	37	1
31	31	2
94	98	1
25	37	1
126	130	2
84	101	2
93	96	1
112	121	1
22	28	1
147	158	1
65	77	1
154	163	1
81	96	1
28	30	1
15	37	1
57	57	1
65	74	2
75	84	1
56	58	2
78	85	1
58	60	1
153	163	1
183	187	1
39	41	1
123	126	2
106	107	1
14	33	1
2	7	1
66	80	1
170	182	1
84	91	1
16	37	1
57	70	1
115	124	1
23	24	1
26	40	1
12	78	1
124	134	1
5	10	1
2	16	1
6	74	1
63	77	1
18	24	1
87	87	2
24	25	1
96	109	1
114	125	1
154	155	1
126	139	1
160	164	1
152	163	1
185	187	1
125	127	1
56	59	1
66	79	1
179	181	1
102	113	1
55	56	1
113	116	1
22	23	1
