169	170	5
149	149	10
139	139	10
72	72	3
95	95	6
183	184	3
84	87	3
135	136	4
120	153	1
99	99	1
185	185	7
72	180	2
55	55	6
124	124	6
22	23	3
131	132	2
126	127	4
170	170	4
183	183	9
76	76	3
63	63	3
137	137	13
121	122	2
53	55	5
54	82	3
103	103	4
10	11	3
98	98	1
150	150	8
56	57	3
43	45	2
17	17	16
142	143	2
73	73	8
155	155	5
151	152	2
17	106	2
43	43	2
186	186	1
3	3	3
105	105	2
83	83	9
38	39	6
48	53	2
36	36	4
46	46	5
120	120	4
3	7	1
34	34	3
2	2	6
71	71	6
8	8	4
93	93	9
9	45	4
174	174	10
17	20	2
22	22	1
6	6	11
131	131	3
147	147	3
109	110	2
77	87	3
86	86	9
74	74	3
93	94	2
114	114	6
126	126	5
68	68	7
89	110	1
104	108	1
41	41	6
0	1	1
106	108	2
55	56	4
148	148	3
91	92	3
138	138	3
134	134	3
113	113	4
141	141	5
122	123	2
180	181	1
70	70	3
24	27	1
54	55	1
47	47	9
158	159	4
63	64	1
98	116	5
57	57	6
12	21	2
153	153	3
57	68	4
7	7	6
97	97	2
95	113	3
19	20	6
32	32	4
104	104	7
59	65	2
111	111	6
167	168	2
16	17	3
91	93	2
25	25	4
31	45	2
84	89	3
79	106	2
77	77	3
55	60	1
151	151	7
148	166	2
28	28	5
159	159	2
112	113	1
24	24	7
62	62	4
54	83	3
129	133	3
169	169	5
27	47	3
15	16	3
190	190	2
44	61	1
8	159	2
78	78	2
44	45	5
33	34	3
68	163	3
167	169	1
92	92	1
122	150	2
101	101	2
39	40	2
64	64	3
13	22	2
27	28	1
81	104	2
0	0	2
123	144	1
121	155	2
129	129	1
152	152	4
23	23	1
108	109	3
85	85	3
81	107	1
137	138	1
140	140	2
42	56	1
48	48	2
37	38	1
109	109	6
95	115	1
5	5	2
10	16	3
45	45	2
124	177	1
90	113	1
142	171	2
107	107	1
80	81	1
44	44	2
128	128	2
176	177	3
59	60	2
1	1	4
38	38	1
126	188	1
102	102	4
100	102	2
65	65	5
80	105	1
181	182	2
189	189	2
81	81	3
122	122	4
129	134	1
164	164	2
118	119	2
26	26	3
25	26	1
14	14	5
21	21	1
142	142	3
84	153	2
42	42	1
81	106	1
177	177	2
110	111	2
12	15	1
160	161	2
104	107	2
129	130	1
110	110	3
92	93	4
60	68	1
146	147	2
159	160	1
184	184	1
95	99	1
79	79	2
63	76	1
84	84	3
100	155	2
123	148	2
84	102	1
186	187	3
130	173	3
110	113	1
32	36	1
90	112	1
19	19	1
132	132	4
4	4	1
182	183	1
77	165	1
18	105	2
53	53	2
143	174	2
166	167	4
144	144	3
52	52	3
10	49	2
14	48	2
70	75	1
153	154	2
37	37	1
124	141	1
172	172	1
115	115	2
57	76	3
103	154	1
11	15	1
147	176	2
71	74	2
111	112	1
67	87	2
13	13	1
95	116	2
125	125	4
161	161	1
158	158	1
4	29	1
11	11	1
120	152	1
108	108	1
127	127	2
31	31	2
12	12	3
99	100	1
12	45	1
67	67	1
187	188	1
40	40	2
18	18	1
27	29	1
123	123	1
97	98	1
128	174	1
159	161	1
85	86	1
122	146	1
166	166	1
124	125	1
165	165	1
82	83	1
73	74	1
54	54	1
164	166	1
123	146	1
