80	105	1
122	123	1
106	106	6
92	93	3
33	33	2
51	52	1
24	38	3
55	56	9
95	104	3
39	39	2
48	49	1
118	130	2
2	2	6
108	108	1
155	155	4
154	155	3
115	115	5
131	131	3
16	18	2
13	14	3
71	72	2
152	152	6
92	106	2
133	133	6
131	143	2
167	167	4
143	143	8
98	99	2
160	160	6
114	114	2
8	8	1
16	17	1
12	93	1
10	10	8
3	6	2
7	7	4
139	142	1
20	20	4
155	157	2
162	162	3
119	147	3
163	163	4
40	42	1
94	94	7
10	15	2
129	135	3
94	168	1
18	18	8
100	101	4
87	88	1
78	78	5
39	41	2
74	85	2
68	68	3
145	146	1
44	44	1
45	45	2
111	112	1
94	106	2
63	63	2
55	94	4
46	46	5
108	109	3
146	146	6
123	134	2
34	45	1
166	169	3
150	150	6
83	84	1
121	121	4
124	124	1
79	80	1
112	137	2
96	117	1
3	13	2
16	47	4
114	116	3
148	148	1
103	111	4
24	39	3
52	53	2
45	53	1
56	57	3
19	169	3
39	47	4
103	103	3
25	41	4
128	141	4
21	21	3
150	152	1
165	165	7
41	42	2
67	67	1
122	144	1
113	122	3
159	159	6
153	154	1
81	87	2
127	131	1
22	22	2
22	26	2
151	156	2
135	135	3
103	108	3
113	113	4
120	120	5
151	151	3
96	99	1
23	39	4
13	13	1
117	118	1
10	42	1
73	73	4
120	132	3
144	144	4
9	9	4
128	128	5
70	82	2
139	140	1
125	139	2
0	1	1
118	120	3
64	141	2
26	43	1
139	139	1
132	132	2
84	86	2
109	126	2
94	95	1
23	23	1
63	65	2
118	119	2
67	68	1
117	161	1
41	53	1
25	25	4
96	96	2
37	38	3
97	97	4
161	162	1
86	99	1
138	138	7
52	55	1
133	135	2
66	67	1
105	109	2
80	81	1
129	129	4
126	135	2
145	150	1
126	139	3
126	127	2
72	77	1
16	16	1
136	136	5
132	158	4
129	130	3
121	128	2
54	54	3
49	49	4
149	149	1
156	156	3
113	139	2
14	15	2
123	123	2
75	78	1
140	141	2
88	88	2
65	80	1
87	87	1
0	0	2
147	149	1
121	122	1
68	74	1
135	136	1
35	35	2
44	55	3
115	122	2
57	57	3
107	108	3
161	161	1
109	109	1
133	137	2
114	115	3
11	12	3
96	97	3
50	50	1
28	42	1
170	170	3
154	159	2
108	119	2
141	141	4
9	14	1
28	28	1
111	111	2
69	72	1
38	38	7
140	140	5
90	90	2
9	10	3
110	111	1
35	38	1
116	116	1
104	107	1
133	149	1
41	41	2
67	70	1
84	95	3
40	43	1
134	134	3
102	102	3
134	135	1
64	78	1
40	41	1
137	138	1
168	170	1
53	53	1
101	105	2
137	137	1
42	43	1
102	107	1
22	24	2
5	43	1
93	114	3
91	91	1
139	143	2
70	71	1
124	132	1
152	153	1
95	109	2
48	48	2
47	48	1
107	134	1
81	81	3
105	105	1
147	147	1
110	134	3
13	93	1
119	119	1
56	56	2
136	139	1
74	74	3
75	88	1
46	47	1
43	44	1
169	170	1
46	73	1
78	85	1
41	43	2
24	24	1
154	154	2
42	42	1
21	22	1
17	17	2
168	169	1
45	46	2
99	101	2
96	105	1
34	34	3
112	112	1
108	111	2
26	26	2
72	72	1
8	43	3
106	112	1
142	144	1
9	53	1
89	90	2
104	104	1
52	95	1
126	134	1
158	160	1
69	84	1
135	151	1
10	44	1
12	12	1
168	168	1
139	150	1
82	82	1
162	165	1
123	126	1
131	132	2
126	129	1
106	108	1
127	139	2
111	123	1
156	157	1
117	117	1
89	99	1
21	24	1
63	64	1
119	161	1
156	158	1
1	1	1
107	114	1
73	74	1
87	99	1
97	98	1
55	55	1
