41	41	2
91	91	11
142	142	3
143	143	12
68	69	1
24	24	7
10	11	2
64	64	6
69	71	4
4	5	4
75	77	2
83	84	7
132	132	6
93	93	10
46	56	2
144	144	2
40	105	1
32	32	9
116	116	5
100	101	2
38	105	2
25	25	3
8	15	2
68	145	3
145	145	2
91	92	3
29	29	4
74	75	4
146	146	5
117	117	5
71	89	2
29	117	4
72	75	1
103	103	6
125	125	4
113	113	4
51	51	5
60	61	1
53	87	7
71	90	1
3	3	6
50	50	1
105	105	3
42	42	4
22	22	4
9	9	5
65	115	2
101	102	5
90	90	5
134	134	2
80	135	2
138	138	9
50	52	3
30	30	4
140	140	2
81	98	1
136	137	3
76	96	1
6	18	2
67	96	3
120	120	6
2	5	4
96	144	2
31	31	5
78	96	3
81	81	4
23	23	7
118	119	6
53	53	3
136	136	5
49	49	4
18	18	7
101	101	1
1	1	4
75	127	4
21	24	2
118	118	6
81	82	1
120	121	3
99	99	4
130	130	3
110	110	1
97	97	2
107	108	2
16	16	2
102	102	3
128	131	2
38	38	5
13	13	3
6	6	3
74	81	3
75	75	3
77	94	2
58	58	2
28	30	2
123	128	3
97	143	1
128	128	5
47	47	2
0	0	2
108	109	3
34	34	2
90	118	2
105	106	4
83	83	2
96	97	2
36	36	2
28	28	8
80	80	6
131	131	2
138	139	1
80	81	3
27	66	1
108	108	4
16	104	1
129	131	6
71	71	4
25	52	2
35	43	2
100	100	3
54	54	4
10	10	2
72	72	7
88	89	4
82	106	2
135	141	1
19	27	1
88	88	1
135	139	2
137	137	1
56	56	5
39	39	1
8	23	2
92	92	2
89	89	1
67	67	2
61	61	2
17	17	2
8	8	4
20	99	4
106	106	2
79	135	4
39	50	1
65	114	2
109	111	1
103	108	4
55	56	1
11	11	2
26	29	2
88	90	1
49	50	1
82	139	2
92	95	1
74	74	2
63	63	1
21	21	1
6	19	1
101	107	3
141	141	1
66	78	1
69	69	3
97	98	1
47	48	1
37	42	1
21	23	2
73	137	1
4	4	1
19	20	1
41	57	1
36	43	1
15	16	2
122	122	1
14	24	1
3	35	2
113	137	2
6	14	1
121	121	5
74	136	1
40	40	2
76	76	1
75	78	1
58	59	2
19	23	1
21	75	2
9	13	4
29	122	2
21	78	2
79	80	1
133	133	3
4	35	1
82	84	2
85	111	1
80	137	1
22	29	1
108	131	2
53	55	2
126	126	1
96	96	2
15	26	1
23	27	1
57	57	2
132	133	2
128	129	1
141	144	1
102	131	1
71	75	1
135	135	1
77	77	1
55	57	1
112	112	1
8	9	1
14	14	1
79	140	1
17	24	1
65	65	1
2	2	1
1	25	1
94	94	1
95	95	1
0	54	1
82	82	1
13	104	1
