134	135	3
102	102	7
104	104	16
48	49	2
18	18	6
37	38	4
52	52	3
79	80	11
136	136	5
31	32	10
142	142	12
125	125	12
114	114	13
102	106	2
50	53	5
85	85	6
132	132	12
4	4	13
41	42	3
61	61	8
110	112	3
53	53	8
52	93	1
27	27	8
40	41	3
117	118	7
80	81	6
131	131	15
41	54	1
99	103	2
82	82	9
116	116	8
96	97	15
139	140	2
71	109	3
50	50	9
128	131	3
92	92	3
43	43	4
60	145	1
142	143	8
138	138	8
48	48	13
72	72	13
126	131	2
119	119	5
88	88	13
81	81	6
127	127	6
126	126	14
104	105	9
11	11	10
22	22	6
39	54	2
30	39	4
20	20	10
108	119	1
93	93	10
95	95	4
70	70	9
57	57	4
0	1	2
23	25	1
103	103	18
65	65	6
21	21	9
22	23	7
121	126	1
27	47	2
58	58	5
120	122	1
123	123	10
60	60	5
3	3	3
58	63	3
67	67	6
124	124	9
27	34	1
17	17	12
128	133	5
12	13	5
10	10	8
26	26	12
68	68	9
89	89	7
74	74	23
78	78	1
65	142	1
9	11	3
3	11	1
100	100	8
104	129	2
112	113	3
71	74	7
23	23	6
100	101	3
129	129	4
109	109	1
34	34	9
56	97	2
77	97	4
115	137	1
97	97	6
13	13	6
58	59	3
54	90	1
135	136	5
6	6	9
111	138	3
59	59	8
94	99	2
61	110	2
79	79	6
30	30	27
120	121	2
63	63	10
104	106	5
49	51	5
76	76	11
28	29	2
13	14	8
38	38	4
0	0	6
62	62	13
84	85	3
66	141	3
134	134	4
113	113	2
111	112	16
49	52	5
74	79	1
92	93	5
19	19	12
47	47	2
27	35	11
5	33	4
93	94	5
115	115	10
114	115	2
143	143	3
3	10	2
89	108	4
108	116	3
42	42	8
37	37	12
69	69	4
87	87	5
134	139	1
78	84	3
105	105	4
31	31	5
123	124	5
94	94	8
108	108	15
47	48	2
74	103	2
98	98	6
29	29	3
42	116	3
128	129	1
29	30	2
20	21	10
84	84	5
137	137	5
92	136	3
35	35	8
89	90	3
141	141	19
35	37	2
68	69	2
134	136	4
75	75	6
6	19	4
120	120	6
102	103	1
140	140	4
59	117	3
122	122	5
21	28	1
55	91	1
40	40	6
6	11	2
86	88	2
63	145	2
17	22	1
48	50	4
118	137	3
80	80	9
73	106	1
128	130	5
33	33	7
91	91	6
146	146	2
2	3	2
55	58	2
90	91	3
29	31	1
26	27	4
54	54	9
132	141	1
130	131	2
137	138	4
8	37	4
30	31	3
77	87	7
85	88	2
107	119	2
3	19	1
58	116	3
99	102	2
6	37	3
36	37	3
39	40	1
2	2	5
6	50	6
119	126	4
67	141	4
53	55	1
33	34	8
27	28	3
25	25	5
127	131	2
23	24	1
39	42	6
14	14	13
3	35	1
144	144	14
50	51	3
24	25	4
34	47	2
28	28	5
121	122	4
115	117	7
36	36	1
65	144	1
118	118	5
106	106	6
28	32	3
64	64	8
87	89	2
38	54	1
4	19	1
3	6	2
107	107	4
70	108	2
25	26	1
141	142	2
68	107	2
71	71	5
139	139	4
15	16	5
101	112	1
83	83	3
83	84	3
41	41	3
127	128	1
96	98	1
118	131	2
110	110	5
27	33	8
8	8	2
4	6	4
78	79	2
32	33	5
99	99	10
49	49	5
52	92	1
90	90	12
1	40	2
1	1	5
77	78	3
74	75	4
12	12	1
136	138	1
118	126	5
33	43	3
128	128	2
132	133	2
111	111	2
15	18	2
28	41	1
4	5	1
135	135	2
59	145	1
10	26	2
71	106	1
57	97	1
68	108	2
130	132	1
48	93	2
54	116	1
4	34	1
77	81	2
53	92	3
1	16	3
66	66	1
125	127	1
58	61	2
107	111	4
9	9	4
53	54	4
10	27	1
42	125	1
124	125	4
39	39	4
73	111	2
118	119	3
145	146	1
58	117	3
36	47	1
57	96	1
73	73	3
14	17	3
117	136	1
52	88	2
2	6	1
55	56	1
73	74	1
117	117	1
61	62	1
93	99	1
115	116	4
11	35	4
121	124	2
80	103	3
122	123	2
9	132	1
20	33	3
66	67	1
105	106	2
97	98	2
110	118	4
40	54	3
94	95	1
21	22	2
1	3	2
70	106	1
133	133	3
126	127	2
131	133	1
82	83	2
133	134	1
24	24	1
96	96	1
15	15	3
101	101	3
134	141	2
67	125	2
0	8	1
75	76	1
41	140	1
63	66	1
16	17	2
64	135	3
126	141	1
71	103	1
1	17	3
133	139	2
68	139	1
32	32	1
49	95	1
71	72	1
101	102	1
5	5	1
103	113	1
95	96	1
100	103	1
69	70	1
110	111	1
4	17	1
62	64	1
121	121	1
14	15	1
56	56	1
87	96	1
64	89	1
130	130	1
81	82	1
67	68	1
112	112	1
91	92	1
65	69	1
135	138	1
36	139	1
132	140	1
56	91	1
78	97	1
107	108	1
66	68	1
16	16	1
