82	82	12
70	71	1
42	43	2
48	48	16
73	73	15
66	66	22
100	101	8
90	90	8
91	96	1
78	78	14
95	95	9
74	74	24
86	86	13
36	36	12
85	86	5
53	53	18
93	93	8
101	101	11
24	24	11
74	75	8
81	81	15
83	83	11
63	63	16
76	76	2
84	84	10
46	46	7
58	58	12
64	65	6
96	96	5
41	41	14
23	24	1
79	79	11
81	82	2
67	67	12
25	25	9
94	94	13
35	35	13
89	89	21
68	68	12
79	80	2
93	94	7
64	64	10
29	29	10
80	80	14
33	33	10
31	31	7
72	72	10
44	44	12
96	97	5
91	91	10
59	59	9
20	22	2
67	68	6
88	88	9
40	40	12
55	55	10
90	101	3
80	81	8
30	30	2
69	69	4
62	62	16
77	77	12
61	92	3
49	49	4
26	26	6
89	92	2
65	65	8
69	70	9
97	97	5
52	52	7
28	29	3
92	100	2
71	74	3
54	54	10
72	74	5
60	60	16
47	47	6
101	102	2
99	99	13
58	59	6
70	70	26
84	86	4
92	92	12
52	56	1
95	96	3
61	61	9
73	74	7
31	32	1
85	85	11
39	39	7
65	66	2
62	79	4
96	98	2
73	75	3
102	102	4
45	45	9
61	96	1
94	95	7
57	58	1
53	56	1
71	71	9
42	42	4
100	100	5
76	86	2
92	97	4
76	77	6
52	94	3
68	69	1
97	98	6
47	48	8
58	61	4
60	62	1
57	59	3
32	32	5
57	57	5
86	87	2
26	37	1
30	31	1
53	93	2
28	28	3
99	100	2
55	95	2
43	43	2
43	44	2
27	27	2
33	98	3
68	71	3
38	38	4
59	63	1
51	51	6
52	53	2
75	75	6
60	95	1
61	62	4
26	40	5
39	40	3
77	78	3
35	36	3
90	91	2
69	74	1
26	27	4
43	70	2
93	96	3
54	55	4
22	47	1
25	26	3
23	23	1
36	38	2
97	99	1
56	56	3
32	33	2
35	39	2
44	70	2
38	47	1
92	93	3
60	92	2
96	99	3
47	87	3
72	79	1
98	99	1
25	28	2
58	60	4
71	73	1
50	50	1
24	27	1
22	22	2
61	90	1
64	73	3
51	52	2
33	34	1
60	61	2
63	64	2
41	42	1
26	28	1
88	89	1
37	37	2
56	60	1
87	87	2
66	67	1
49	50	1
33	37	1
51	53	1
71	72	2
