42	42	7
4	4	3
57	57	6
31	32	2
95	95	4
91	91	3
93	93	2
92	92	4
1	1	3
51	51	5
115	116	4
2	4	1
97	113	2
119	119	1
63	63	3
21	21	1
83	84	5
65	65	4
58	58	5
114	114	2
29	29	5
122	122	5
62	63	8
85	85	1
78	79	4
66	66	3
2	97	3
126	126	4
86	86	2
2	2	7
49	66	3
91	92	3
0	0	2
95	109	5
28	28	5
56	56	7
73	73	1
90	90	3
16	16	6
101	101	2
59	59	2
22	22	5
120	120	10
10	10	2
123	123	4
112	112	3
15	15	5
100	100	7
17	17	1
75	88	1
120	121	3
6	6	5
112	116	2
132	132	4
133	133	2
128	128	2
104	105	9
84	84	5
113	113	7
74	74	1
110	110	8
39	40	2
75	77	2
108	108	2
42	43	2
51	120	3
40	41	3
58	127	3
130	130	3
113	114	3
20	20	8
81	81	7
49	123	4
70	70	5
18	20	1
34	34	2
72	72	1
39	64	4
62	62	3
97	112	5
37	38	3
77	77	4
69	69	2
65	66	1
12	118	3
90	103	2
68	109	3
19	20	1
127	129	2
111	111	2
71	71	5
26	26	3
121	121	1
107	107	1
47	47	1
48	106	1
64	65	1
54	54	4
14	14	4
118	119	6
109	109	1
8	8	2
45	46	1
79	82	2
96	96	1
127	127	6
52	57	3
55	58	2
66	68	3
13	13	4
49	51	1
76	77	2
17	20	2
41	41	3
27	28	4
117	117	6
23	24	2
79	79	4
99	99	2
38	38	6
40	40	2
106	107	4
65	71	1
46	46	2
32	32	2
76	76	5
50	50	3
88	88	3
48	48	1
114	116	3
82	82	3
64	73	1
111	113	3
25	26	1
9	118	3
31	31	2
94	109	4
94	95	1
118	118	2
95	96	2
18	22	1
2	112	2
105	105	2
93	95	1
33	48	1
89	89	2
125	125	5
65	73	6
126	129	1
75	75	5
97	97	4
25	25	1
97	107	1
127	128	4
39	42	4
20	21	4
39	39	1
71	74	1
94	106	3
53	54	3
102	102	2
98	99	2
12	13	1
104	104	1
48	66	1
10	12	1
69	70	1
14	15	1
72	73	3
105	106	2
4	8	1
58	129	2
96	106	1
115	115	2
27	27	1
94	94	1
30	30	2
11	118	1
55	55	2
3	3	1
9	10	1
41	42	1
116	116	2
53	53	1
124	125	2
92	93	1
115	117	2
11	11	1
93	94	1
82	83	1
51	52	1
33	33	1
116	123	1
7	7	1
81	83	1
4	6	2
75	76	2
107	108	2
10	11	1
45	47	2
57	58	1
52	53	1
123	131	1
34	37	2
82	84	1
18	18	1
