34	36	4
128	184	2
129	129	9
179	189	9
94	94	5
165	180	2
122	122	6
123	173	2
138	138	8
114	115	7
143	143	5
134	134	6
171	171	16
161	161	11
151	152	4
71	71	8
154	154	15
82	82	13
39	125	5
30	31	10
124	125	3
27	27	13
62	69	1
83	83	16
118	118	6
117	118	4
94	95	4
196	196	12
166	166	4
98	98	13
167	167	10
59	60	1
99	100	9
150	179	4
38	45	6
142	160	3
163	177	7
139	139	18
52	52	17
132	132	10
65	65	17
106	120	3
67	67	24
48	48	10
115	115	5
104	104	15
109	142	7
30	30	19
168	177	4
128	129	3
8	8	16
85	85	26
138	139	1
169	184	2
86	86	10
42	42	8
118	119	4
149	149	27
155	155	2
29	30	11
183	183	19
48	151	4
22	23	1
46	46	5
58	58	9
22	24	1
56	56	11
1	1	11
88	88	10
87	87	7
12	12	8
174	176	3
176	177	6
112	112	5
136	137	4
135	135	13
172	172	10
130	165	3
178	178	7
100	105	7
11	11	12
184	184	7
72	72	11
14	14	7
74	74	7
85	89	2
110	110	4
150	150	10
79	79	8
158	158	12
122	125	4
116	116	12
6	6	16
109	110	2
141	141	8
86	97	2
117	117	9
50	50	8
113	113	8
70	81	3
84	89	1
43	43	18
180	180	13
41	41	17
193	193	15
188	189	6
143	145	3
41	123	3
70	70	6
39	126	4
139	140	5
101	102	6
39	39	5
107	107	19
188	188	5
165	165	11
157	157	10
100	101	9
142	142	11
179	179	9
189	189	14
85	132	1
130	164	5
35	35	9
118	134	5
63	63	5
175	190	1
190	190	10
73	100	3
191	191	5
127	127	14
134	135	10
74	112	2
187	187	8
15	15	12
0	20	5
170	171	2
28	28	10
142	143	5
23	27	2
79	82	1
0	62	3
74	84	2
47	47	13
169	169	12
128	128	16
96	97	4
181	181	7
17	17	16
48	138	1
104	106	8
43	70	4
175	176	6
178	179	6
161	162	12
169	193	7
98	99	1
38	38	3
60	62	4
177	177	4
24	24	17
52	55	2
93	94	9
25	25	10
129	170	1
15	16	7
89	99	3
154	178	1
82	86	2
9	9	13
21	21	6
156	157	5
159	159	8
95	96	5
95	95	4
77	77	6
130	131	1
33	33	10
10	11	3
80	83	5
152	177	2
13	13	21
155	156	19
78	79	9
68	72	6
99	148	2
90	90	6
174	179	2
47	49	2
45	45	6
193	194	4
160	160	14
7	36	1
73	73	12
22	22	11
136	136	9
121	127	1
1	2	5
163	163	3
7	7	3
147	147	10
107	113	2
123	123	5
27	31	5
34	34	12
130	155	5
4	4	9
140	159	3
24	26	6
177	178	1
3	4	4
133	147	2
31	31	6
124	170	3
146	147	4
151	151	16
6	8	2
53	53	7
51	51	8
168	192	2
47	48	2
168	169	2
131	131	5
2	2	11
124	124	8
140	140	4
119	119	17
131	178	4
196	197	5
175	175	6
60	63	3
20	20	2
26	26	15
126	159	2
112	142	1
102	116	2
152	153	9
145	145	5
74	81	1
32	33	2
37	37	16
94	124	2
59	59	10
108	108	4
174	178	2
49	49	10
168	168	7
147	162	2
62	62	4
157	160	3
64	64	5
186	197	3
23	23	3
13	14	4
52	53	3
87	88	5
66	88	3
131	181	4
8	10	2
12	38	2
36	36	7
32	32	7
170	170	5
133	134	8
173	173	8
102	102	9
182	182	7
130	188	5
9	11	2
192	193	2
80	81	3
153	153	4
148	150	2
122	126	3
190	192	4
78	78	3
99	102	5
9	10	2
106	106	7
58	69	5
68	73	3
30	32	1
194	194	3
58	59	12
126	126	6
60	60	7
107	108	10
137	137	4
18	18	7
50	133	1
125	126	2
171	172	1
169	173	3
0	60	1
10	10	12
130	130	3
184	185	2
59	79	2
186	186	3
109	138	1
0	11	2
48	49	4
64	65	7
68	68	4
156	156	9
44	44	9
156	158	4
106	138	1
165	167	6
130	154	2
22	27	3
40	42	1
42	43	2
89	89	7
75	75	7
143	161	2
149	185	1
121	132	6
101	101	4
124	159	1
154	155	4
53	54	3
135	146	4
132	133	2
101	103	1
163	164	7
20	23	1
191	192	1
24	27	1
144	144	8
111	111	8
167	168	1
195	195	7
24	29	4
176	176	3
164	164	15
59	72	3
96	96	2
2	3	3
74	75	1
0	24	3
163	165	5
142	181	2
62	97	2
174	174	6
170	190	1
72	73	2
111	112	3
121	158	2
106	107	3
106	137	5
126	127	8
19	20	3
153	174	2
7	12	1
88	89	11
96	103	3
159	171	2
192	192	2
8	39	1
175	178	1
80	80	4
28	30	3
24	25	4
152	152	4
108	111	1
116	117	1
121	122	1
167	171	1
175	177	1
19	19	6
43	46	1
38	51	1
167	170	2
56	57	5
74	87	3
103	103	8
190	191	8
108	168	2
8	11	4
54	54	8
135	138	1
105	106	1
114	114	8
18	34	2
15	20	3
46	47	2
5	5	3
17	19	1
149	150	3
65	87	2
7	8	3
14	37	1
69	69	9
146	146	7
84	84	1
22	26	1
119	120	4
55	55	3
148	149	2
111	113	2
149	179	1
172	173	1
120	120	3
57	57	6
187	188	2
131	154	1
16	16	5
146	152	2
108	116	2
69	72	2
40	41	4
114	139	2
7	125	2
116	119	2
172	192	3
93	93	3
125	125	2
162	162	3
0	7	5
33	38	1
26	27	4
122	129	1
145	161	1
76	77	1
62	71	2
6	7	2
47	53	1
105	105	6
85	86	3
193	195	1
61	62	2
168	173	1
183	186	1
76	87	3
123	124	1
9	33	3
20	22	2
58	79	1
18	19	3
39	40	2
99	99	2
76	76	5
1	132	1
147	148	2
77	78	1
83	89	2
115	116	2
89	90	2
75	76	1
112	168	2
114	120	3
160	161	3
75	86	1
119	150	1
107	144	1
132	158	1
156	170	2
4	5	1
44	46	2
75	87	1
31	32	2
12	27	1
4	27	4
108	172	1
189	190	2
144	145	3
118	136	3
172	194	2
129	152	2
88	90	2
183	184	5
191	194	1
77	86	1
15	24	2
32	65	1
8	9	1
156	178	2
102	103	2
109	109	2
82	83	1
159	160	2
85	134	1
29	29	3
74	89	1
88	99	2
194	195	2
1	15	1
102	104	1
102	135	1
3	3	4
165	166	4
90	97	1
61	61	1
178	190	3
115	139	1
169	178	2
143	144	1
18	20	1
20	21	1
162	164	1
108	171	2
197	197	2
123	129	2
164	175	1
114	142	1
60	64	1
108	109	2
28	29	3
17	18	1
59	61	1
133	157	1
191	193	1
164	166	2
40	51	1
167	179	1
83	84	1
0	36	1
125	138	1
177	191	1
145	171	1
34	35	4
61	84	1
55	76	1
61	97	1
29	60	2
104	105	1
69	71	2
32	39	1
101	159	1
63	120	2
4	30	1
167	178	1
181	182	1
23	24	1
33	35	1
142	154	1
60	79	2
25	26	1
121	121	1
80	82	3
84	85	3
100	116	1
173	176	1
66	66	1
40	40	2
39	44	1
81	83	1
121	155	1
143	156	1
38	121	1
127	138	1
155	160	1
82	87	1
148	148	1
44	45	1
146	157	1
153	157	1
124	126	1
181	183	1
59	70	1
43	44	1
41	42	1
79	80	1
195	196	1
13	158	1
170	197	1
