131	131	2
106	107	4
67	67	7
81	81	12
15	15	3
124	124	6
43	43	14
59	59	9
37	37	7
73	74	2
85	95	2
69	69	2
24	25	2
46	63	3
5	5	3
58	58	3
125	125	11
92	92	3
84	93	1
10	33	2
11	11	5
17	17	7
37	78	4
102	102	8
134	134	4
76	76	14
6	16	3
39	63	3
123	123	6
115	116	5
2	2	3
47	62	2
38	46	1
95	100	1
47	47	13
93	93	3
48	49	1
132	132	1
78	78	4
100	100	5
28	101	2
24	24	3
73	73	5
24	32	1
66	66	8
39	39	3
23	23	6
46	46	9
3	3	7
6	6	6
102	103	3
69	70	3
68	68	4
57	57	1
34	57	1
78	79	2
98	98	2
27	102	3
28	123	1
74	74	7
33	33	6
118	118	10
84	84	7
98	117	1
9	9	3
127	132	5
34	34	6
32	112	3
108	110	2
63	63	5
74	102	2
18	20	2
35	36	1
131	132	2
62	62	8
22	34	3
8	8	7
94	94	5
70	70	8
31	32	2
72	72	7
30	30	3
128	131	2
104	107	3
88	89	1
1	2	3
44	45	7
7	7	3
93	94	2
112	114	1
64	64	5
122	125	5
27	28	3
85	85	4
25	25	2
9	10	3
59	77	1
124	125	3
111	112	2
31	31	5
128	134	1
60	85	2
23	57	2
12	12	1
64	65	2
117	117	2
44	44	2
129	130	2
25	31	2
43	44	3
91	93	4
128	128	1
75	102	3
61	61	7
11	26	1
118	119	5
41	41	6
74	87	1
91	92	1
45	46	2
111	111	4
77	77	2
103	103	1
30	102	4
42	42	3
107	107	4
71	72	1
32	32	3
13	13	4
126	127	2
114	115	1
131	133	2
116	116	3
45	45	7
82	82	6
114	114	2
21	34	2
84	86	1
1	1	4
11	108	2
86	86	2
40	40	3
29	108	1
61	73	1
113	113	1
38	38	4
60	60	1
107	108	1
55	55	3
79	79	7
122	122	2
81	99	3
75	75	3
77	78	2
103	108	1
126	133	1
107	110	3
89	122	2
14	14	2
4	4	2
26	27	2
90	92	5
31	112	4
44	46	3
9	12	7
41	42	1
130	131	2
19	46	1
41	43	4
115	115	1
68	69	1
105	109	1
95	96	2
27	27	2
29	30	2
129	129	2
119	119	1
82	83	1
20	42	2
107	124	2
87	124	1
109	109	1
106	125	2
120	120	2
2	17	2
17	18	3
18	18	2
121	121	3
126	126	1
99	99	1
110	129	1
83	83	3
83	99	2
35	57	1
89	105	2
62	63	1
10	10	2
117	118	1
29	29	1
87	123	1
74	89	1
79	96	1
7	8	1
90	121	3
47	48	1
19	55	1
91	91	2
87	87	2
10	108	1
8	63	2
118	133	1
70	71	3
19	56	1
47	63	1
3	4	1
28	30	1
112	116	1
21	55	1
41	45	1
88	88	1
110	110	1
85	96	1
125	126	2
127	127	2
36	40	2
112	112	2
61	76	1
71	73	1
73	76	1
61	66	1
26	26	1
130	134	1
84	85	1
74	123	1
13	112	1
36	36	1
44	47	1
18	47	1
123	124	1
129	133	1
80	80	1
108	109	2
84	100	1
121	122	1
25	56	1
107	127	1
86	88	1
20	55	1
20	63	1
46	47	1
95	95	1
