36	36	6
155	166	3
59	59	5
225	226	9
12	12	10
154	154	7
235	235	13
34	38	1
247	247	10
224	224	3
199	199	6
231	231	14
27	28	10
113	117	1
156	156	10
100	101	6
189	189	3
46	46	8
164	164	3
216	216	3
51	52	3
71	71	8
56	61	2
220	220	6
217	217	10
100	100	15
172	212	2
83	83	7
14	15	1
157	157	3
55	90	3
84	84	7
187	188	4
214	215	4
173	173	12
151	151	8
19	20	1
233	233	4
3	11	2
54	54	5
95	159	6
19	25	4
191	191	7
176	176	1
204	204	9
109	109	4
60	60	2
50	50	6
4	246	1
116	117	2
22	22	12
154	155	2
178	178	7
218	249	2
64	103	4
234	234	6
152	152	3
66	66	8
176	177	2
198	199	3
244	245	2
190	217	5
86	86	9
81	82	4
31	31	6
102	103	5
66	67	4
65	65	16
185	185	14
111	111	5
62	62	4
214	214	11
44	44	5
171	172	6
112	112	14
221	221	6
216	245	2
240	240	1
113	113	5
232	232	6
77	77	9
18	18	4
177	177	1
96	96	6
14	14	5
119	119	4
188	224	5
243	243	1
67	68	7
4	5	2
56	56	2
247	248	2
166	166	5
82	82	6
13	34	2
43	43	9
41	41	13
67	67	9
186	189	1
71	72	3
173	174	6
246	246	9
45	45	3
14	112	2
182	182	2
51	87	4
61	61	1
89	89	4
57	57	8
110	110	7
213	214	2
38	38	10
169	216	3
18	19	3
218	218	9
230	231	9
79	79	8
227	227	9
179	179	5
145	145	5
161	161	2
30	30	5
20	21	3
28	30	1
186	188	2
23	23	10
105	105	3
85	85	10
23	31	4
53	53	5
146	146	5
160	160	8
195	196	4
52	52	5
197	198	2
52	55	2
169	172	1
10	10	5
58	121	3
17	17	2
72	96	2
46	47	1
28	28	1
212	212	5
19	19	6
168	168	3
92	92	9
15	112	2
55	64	6
223	223	5
203	204	8
73	75	1
51	51	4
112	113	3
24	24	6
34	49	3
93	158	2
216	218	1
225	225	7
56	57	5
65	75	2
230	233	2
117	117	10
1	1	5
105	107	2
24	33	2
193	240	1
158	158	2
184	184	9
87	87	1
226	226	7
82	83	2
93	93	2
206	206	1
155	155	5
242	243	3
2	10	1
214	223	6
40	40	11
175	175	10
42	42	5
120	167	1
55	55	9
201	201	6
78	120	2
90	90	6
210	210	3
181	181	5
202	245	1
33	33	8
167	226	4
209	209	3
101	101	4
48	50	8
66	101	2
15	200	2
58	61	4
202	202	3
49	49	3
16	16	4
188	188	3
61	64	3
73	94	2
44	45	2
117	118	1
58	58	1
165	165	3
245	245	2
174	174	7
58	62	1
193	193	4
186	186	11
218	219	4
237	237	7
38	39	8
79	80	3
236	236	5
115	118	3
156	211	3
63	113	2
11	11	6
111	113	1
162	162	6
107	107	1
45	46	1
193	196	3
229	229	7
244	244	3
172	172	2
37	37	4
205	206	1
151	205	1
3	3	2
5	6	1
20	20	5
171	171	5
0	1	2
75	76	3
115	115	3
39	39	5
17	18	3
59	60	3
172	185	1
167	167	6
154	156	4
200	200	6
243	244	4
239	239	3
219	246	1
26	28	2
108	109	1
205	212	2
230	237	2
108	108	2
169	169	2
74	97	3
230	230	3
180	181	4
105	106	4
219	219	7
78	78	3
16	17	2
223	239	4
203	203	1
116	116	4
40	41	10
9	17	1
150	150	2
8	8	5
196	196	2
158	159	1
163	166	2
120	120	1
59	74	1
73	73	2
9	9	4
68	68	3
211	211	3
21	22	1
118	118	1
15	201	1
34	34	1
162	164	2
14	47	3
184	185	1
16	201	1
87	88	2
53	54	1
9	10	1
72	72	5
22	26	1
7	7	1
6	6	2
115	116	2
172	184	2
201	202	1
4	4	2
113	114	3
208	215	2
63	63	2
111	116	3
152	153	2
3	12	1
212	213	1
111	117	1
95	95	2
9	19	2
178	185	3
192	194	1
211	212	2
153	196	1
153	235	1
195	195	1
186	187	1
98	99	1
5	5	2
226	236	2
6	70	1
153	153	1
192	192	3
23	24	1
41	45	1
15	15	2
207	207	2
177	178	1
92	93	2
112	114	2
70	70	1
240	241	1
234	235	1
204	234	1
29	30	2
64	64	1
199	200	3
60	61	1
81	81	2
95	163	1
97	97	1
183	183	2
172	187	2
2	9	2
57	58	1
27	27	1
119	120	1
35	35	1
179	195	2
174	180	1
55	56	1
178	186	2
106	106	1
94	94	4
224	225	2
7	9	1
10	40	1
157	207	1
94	95	1
10	11	1
217	218	2
171	185	1
228	229	1
110	118	3
26	27	2
149	156	1
238	238	1
86	88	1
228	228	2
13	49	1
42	154	1
41	43	1
249	249	3
21	21	1
198	215	1
205	205	2
213	213	1
231	232	1
80	80	2
197	197	2
167	168	2
187	187	1
226	242	1
242	242	1
29	29	1
99	99	2
56	75	1
161	166	2
33	47	1
88	88	1
15	183	1
171	180	1
