152	153	4
144	144	4
166	166	6
124	126	4
114	117	5
157	157	10
10	10	10
27	151	2
47	47	8
58	62	1
131	134	7
56	74	2
87	87	6
169	169	3
3	3	9
91	93	2
135	135	7
168	170	8
161	161	1
116	116	4
53	53	5
84	97	2
65	65	12
7	10	3
99	103	2
82	152	5
27	27	9
20	20	1
38	38	14
34	34	15
165	165	3
160	168	4
98	98	13
43	43	6
6	8	1
129	130	4
149	149	5
159	159	3
91	91	5
50	50	7
168	168	2
102	102	2
148	149	2
114	140	5
76	76	3
140	141	3
25	25	9
108	109	2
16	16	2
94	94	2
143	143	4
111	111	7
110	110	10
126	126	8
110	113	1
9	9	4
54	54	5
131	132	1
37	37	10
121	156	1
5	5	7
13	14	1
107	107	8
96	96	5
91	92	2
18	18	4
161	168	2
26	26	6
4	4	5
170	170	4
43	44	3
98	99	1
12	12	3
74	74	6
167	167	3
15	15	7
2	41	5
22	22	3
142	142	10
155	155	7
150	150	5
138	153	4
37	41	2
64	65	5
66	73	1
49	49	2
14	15	10
130	130	3
157	167	5
116	117	1
140	140	6
10	152	3
128	129	1
88	89	4
28	28	3
128	128	4
118	118	6
41	41	11
151	151	4
71	72	1
92	100	4
109	109	7
85	85	4
127	128	3
93	101	1
71	71	5
66	66	4
137	137	12
6	6	6
162	163	3
113	113	2
89	90	1
158	158	3
136	136	7
138	138	7
23	23	1
153	169	1
100	100	2
130	143	4
103	106	1
108	108	5
48	48	4
7	7	6
125	125	15
15	34	2
84	84	2
133	133	8
5	152	2
94	95	2
140	142	3
81	82	3
46	46	4
164	164	4
42	43	3
51	51	7
152	152	8
84	101	1
36	38	2
89	89	2
11	18	3
44	44	5
48	73	3
35	36	4
112	112	5
129	129	8
126	136	3
62	63	5
21	25	2
4	10	1
13	13	5
36	36	14
125	126	2
71	86	4
97	97	2
160	164	4
0	0	2
7	63	1
97	108	1
100	102	1
78	78	9
52	53	1
101	101	4
148	148	3
19	19	3
154	154	4
128	130	1
79	79	4
120	121	1
80	81	1
157	158	3
119	119	3
66	88	1
11	11	6
52	52	8
76	85	1
101	155	4
35	35	5
57	57	3
20	139	3
81	81	3
134	167	2
165	170	1
132	132	2
160	160	4
47	48	7
24	56	1
150	151	4
131	131	2
134	134	2
119	120	2
106	106	3
55	55	4
17	17	4
99	100	1
76	79	1
20	21	1
137	138	2
107	108	3
21	21	2
112	113	1
122	139	1
8	10	1
156	156	2
67	67	1
76	80	2
115	116	2
16	45	1
139	139	2
141	141	2
85	97	1
142	150	4
88	88	2
99	99	4
21	167	1
1	48	1
163	168	6
44	46	2
86	87	3
83	83	3
75	75	6
80	80	2
24	52	3
10	11	2
42	42	2
77	80	2
143	147	3
69	69	2
104	118	1
123	142	1
131	166	1
48	135	4
145	145	1
2	47	1
87	88	1
14	26	2
135	139	1
84	85	1
16	17	3
127	166	1
69	86	2
159	160	2
68	68	1
82	83	1
1	47	1
70	70	2
84	100	1
23	58	1
93	94	1
101	105	1
133	136	1
155	156	2
15	87	2
123	135	1
125	128	1
83	84	1
109	140	2
11	12	1
135	141	1
9	10	2
123	126	2
12	19	1
65	66	1
10	79	2
104	104	1
105	105	1
101	103	1
57	58	1
124	124	2
25	27	2
144	145	1
82	91	2
55	56	2
114	114	3
0	143	2
136	139	1
2	2	2
82	111	1
27	28	1
106	111	2
2	3	2
57	61	1
79	80	1
137	162	2
44	45	1
146	146	1
72	87	1
58	63	1
122	154	2
134	135	6
118	119	1
33	33	1
56	56	3
120	144	1
8	146	1
0	1	1
24	154	1
143	145	1
70	71	1
109	157	1
7	118	2
112	114	1
13	16	1
123	154	1
3	148	2
25	56	1
120	122	1
145	146	1
53	55	1
34	36	1
79	105	1
