4	14	2
24	24	3
5	14	7
46	46	4
31	44	2
14	43	6
38	41	3
125	125	9
117	117	8
126	126	7
13	29	3
17	18	2
72	78	2
45	45	11
107	108	4
76	76	4
128	128	11
18	79	1
11	11	7
87	87	4
93	94	4
73	73	6
70	71	1
86	86	7
29	41	2
73	74	1
124	124	7
121	121	5
123	123	15
36	37	2
101	101	5
4	6	2
30	30	13
77	78	5
25	58	4
63	75	1
108	108	7
41	48	3
80	80	5
47	48	2
79	80	5
105	121	3
127	127	5
92	93	1
5	5	3
91	92	6
69	69	1
23	24	4
105	105	4
114	123	2
129	129	8
37	38	4
5	6	3
75	76	6
63	76	3
48	49	2
9	9	4
122	122	5
115	128	2
83	84	4
124	125	3
1	1	7
119	119	8
23	23	6
61	61	4
43	44	1
112	112	2
14	18	2
95	96	1
13	13	3
118	118	7
66	66	5
39	39	4
113	128	2
12	12	6
27	32	1
86	89	2
93	93	2
96	96	10
10	10	5
59	59	5
11	70	1
64	64	10
70	70	4
15	104	1
34	57	2
8	8	3
110	110	7
27	28	4
116	116	7
83	83	6
92	92	2
35	36	2
33	33	2
32	32	4
72	72	6
9	10	5
63	73	3
62	62	7
16	16	3
31	31	4
65	66	2
133	134	3
13	17	1
30	43	4
6	6	6
7	101	1
1	62	2
107	107	3
33	34	3
94	95	2
74	75	1
103	103	4
79	106	1
7	102	2
74	74	10
84	84	4
41	41	4
27	27	12
111	125	3
85	85	6
42	50	3
38	40	1
86	88	1
75	75	4
9	11	2
134	134	1
109	110	4
95	95	8
94	96	5
47	47	9
71	71	7
60	60	1
65	65	7
68	68	7
57	96	1
113	113	3
103	104	4
85	86	2
9	18	3
43	43	2
71	72	5
67	67	3
7	9	1
76	77	6
83	95	2
56	56	6
63	63	6
17	17	4
108	111	2
89	89	3
7	8	3
97	97	4
120	120	6
5	20	3
29	29	2
82	85	3
111	111	6
23	58	1
109	109	1
82	82	1
3	3	4
3	13	1
15	106	2
105	106	1
36	47	1
18	18	7
111	115	1
109	112	2
79	79	5
64	66	1
42	42	2
121	123	1
1	134	3
86	87	3
2	2	5
101	102	2
23	25	1
36	56	2
95	100	2
97	98	2
26	59	2
35	56	1
115	115	1
40	40	1
28	28	4
131	131	2
19	19	4
113	114	2
129	130	2
14	14	4
15	105	1
36	36	1
25	25	4
46	47	2
40	41	2
68	69	1
117	120	2
37	37	3
95	98	1
30	42	2
89	90	2
91	91	4
106	122	2
0	44	1
4	100	1
101	123	1
104	104	2
12	17	1
62	77	1
112	113	1
46	66	2
45	46	2
18	20	1
81	81	1
45	66	1
49	50	1
57	57	2
13	36	1
78	78	1
117	118	1
82	83	2
2	125	1
77	77	1
2	3	3
112	115	1
11	12	1
62	74	2
8	9	2
130	130	3
99	99	2
106	130	1
74	82	1
48	48	1
4	5	1
115	131	1
4	4	3
41	50	1
17	70	1
104	105	1
16	105	1
31	43	2
49	49	1
96	124	1
102	102	2
123	124	1
4	36	1
16	18	1
90	90	6
4	13	1
57	58	1
3	18	2
100	100	1
16	79	1
1	28	1
111	112	1
102	107	1
94	94	1
110	111	1
10	13	1
94	97	1
59	60	1
80	91	1
61	93	1
3	102	1
22	28	1
113	124	3
124	129	1
14	70	1
6	16	1
44	44	2
62	63	1
14	15	1
38	38	1
73	75	1
26	26	1
32	33	1
106	121	1
79	102	1
77	85	1
