153	156	1
97	97	7
77	77	6
12	12	5
48	48	4
10	10	10
30	30	2
60	60	4
96	96	5
106	111	6
97	111	2
64	64	12
99	103	3
168	168	9
150	150	6
24	27	4
114	117	3
84	94	4
4	15	2
158	158	1
63	74	1
68	73	1
137	137	3
33	38	6
117	117	7
138	147	6
72	72	8
80	85	3
80	91	8
156	157	5
78	79	2
176	189	5
164	167	2
85	98	2
171	181	1
40	42	1
53	56	6
46	48	3
114	120	7
145	145	10
145	147	8
107	120	2
28	29	2
65	70	2
38	41	9
140	141	2
24	26	4
142	142	13
128	129	2
56	57	5
104	114	2
21	21	4
138	138	6
100	100	2
59	59	4
170	170	8
92	93	3
13	17	1
56	56	1
47	61	4
84	89	1
151	156	3
151	152	2
0	11	3
92	92	4
32	32	3
187	187	5
84	85	3
83	124	1
62	62	6
39	39	2
180	181	3
54	57	2
170	183	4
152	152	9
68	68	7
147	150	1
99	99	8
35	43	2
55	56	4
26	44	1
122	123	5
22	27	2
86	86	7
104	118	3
117	119	7
1	2	3
18	18	9
146	150	3
106	109	3
177	177	3
104	104	3
109	109	8
27	27	10
121	121	3
178	178	3
37	37	4
181	181	3
149	179	2
166	166	11
25	25	5
114	121	1
19	32	1
110	110	6
8	9	2
81	84	1
141	146	2
19	25	7
16	16	3
157	162	2
67	67	4
135	137	3
83	83	7
8	14	1
6	11	2
73	74	2
23	42	2
141	144	2
89	102	4
169	169	7
119	120	3
78	83	9
186	190	4
53	53	8
163	163	2
138	144	3
86	107	2
185	189	1
56	59	2
188	188	6
79	87	5
154	154	7
147	148	1
98	115	2
153	153	5
38	38	12
65	65	6
134	134	6
17	20	5
96	99	2
156	156	6
146	146	2
179	179	6
64	75	2
46	46	7
57	58	3
135	141	3
15	21	1
15	17	2
41	41	7
122	122	6
6	6	14
5	7	7
90	90	2
115	115	2
125	126	3
126	127	3
2	13	5
46	53	1
46	47	1
75	106	3
168	170	4
177	178	4
116	147	2
108	117	1
174	174	3
22	29	2
73	73	1
76	76	3
104	107	2
53	54	3
26	26	1
190	190	1
140	142	1
91	91	3
130	139	2
172	173	3
81	81	2
42	42	2
26	83	5
125	140	1
111	123	3
132	132	11
113	118	2
131	133	2
174	176	5
184	185	6
20	23	1
146	147	3
37	40	1
29	34	1
97	109	2
66	78	4
151	151	4
37	46	1
116	116	5
62	73	1
12	17	1
146	174	5
4	21	5
111	119	3
147	149	4
119	119	7
72	101	1
79	79	5
31	31	5
11	11	11
138	149	2
54	56	6
121	123	1
134	140	3
143	143	10
64	76	1
43	48	2
162	162	1
58	59	3
78	106	2
3	3	4
112	112	4
32	44	2
13	13	10
118	118	4
142	152	2
147	156	1
130	130	11
157	182	1
157	158	3
125	125	3
137	147	3
16	31	2
33	35	1
19	19	2
180	180	4
133	133	3
38	39	2
162	171	1
22	22	7
166	186	2
29	29	4
109	119	1
184	184	6
29	30	2
96	111	3
3	6	4
44	54	1
167	172	4
168	172	4
53	55	2
114	122	1
157	157	8
147	147	1
58	58	12
27	28	2
136	139	1
75	75	2
7	7	4
47	47	6
20	20	4
98	100	8
185	186	2
107	107	1
187	189	2
158	170	2
43	44	2
158	182	2
31	34	2
27	47	2
159	159	2
160	170	4
37	43	1
133	135	5
78	82	3
57	57	3
162	177	3
11	13	1
82	83	1
178	179	4
36	36	1
148	154	1
40	40	1
84	84	7
144	144	2
118	122	1
186	186	5
142	144	3
60	71	1
9	10	5
113	114	2
155	156	3
1	5	3
118	119	7
24	83	2
28	43	3
187	190	3
126	138	1
78	78	9
9	26	5
65	80	2
16	29	1
93	93	8
44	45	6
161	165	4
161	161	8
123	123	2
14	14	3
140	140	5
118	131	1
138	152	2
157	159	2
80	93	3
4	20	2
96	109	1
176	177	3
12	13	3
77	83	1
131	131	3
177	180	3
143	144	3
41	45	4
66	66	2
142	148	3
60	79	2
54	54	4
172	172	4
161	162	5
35	47	1
180	189	1
65	75	2
100	101	2
66	70	3
33	33	3
92	100	1
77	89	1
57	59	2
149	149	9
103	111	3
85	89	2
25	31	2
117	129	3
123	135	2
129	133	2
110	111	5
108	108	5
123	124	1
171	171	2
0	15	1
52	53	2
98	98	5
67	70	1
182	182	2
2	5	2
38	40	1
115	116	3
102	102	3
5	8	1
17	17	6
103	103	2
85	109	1
23	29	3
92	94	4
47	55	1
129	129	4
14	22	2
30	31	1
62	76	2
24	24	6
4	5	4
70	85	2
146	153	2
139	139	2
28	28	4
7	10	3
53	66	2
176	176	6
94	94	3
141	141	3
15	18	6
149	174	3
143	151	4
124	125	3
95	98	2
104	105	2
134	135	2
118	125	1
171	182	4
82	82	2
85	107	4
90	93	1
83	107	3
42	64	1
27	33	1
35	35	5
151	175	2
36	37	2
162	164	3
63	73	2
104	116	2
135	136	3
29	32	3
161	172	1
95	96	5
21	29	2
143	145	1
54	55	1
112	122	1
151	154	2
55	60	2
45	45	7
84	95	1
1	11	1
166	169	3
26	35	1
43	46	2
45	61	4
8	10	1
42	44	6
114	114	1
102	124	1
6	10	1
89	91	1
66	81	3
171	184	1
66	67	1
61	61	1
113	125	2
78	93	3
25	26	1
97	99	5
4	9	1
6	8	1
91	94	2
183	183	2
14	17	4
155	155	3
33	37	2
182	184	1
80	80	2
52	54	1
0	1	1
21	22	2
43	47	1
164	164	1
150	174	2
106	106	4
15	15	2
18	32	2
99	113	2
0	26	3
110	119	1
12	26	3
173	174	2
87	87	7
95	95	1
116	146	2
4	4	4
95	105	1
130	131	1
80	87	1
95	100	1
135	135	1
65	68	1
187	188	4
175	175	2
172	178	2
24	28	1
99	101	1
71	78	1
88	95	1
159	160	4
3	5	1
54	68	2
182	183	1
71	71	2
40	41	1
154	155	4
128	135	1
86	94	1
15	19	3
94	107	1
55	58	1
160	160	1
87	89	1
102	106	1
185	185	1
181	182	2
91	95	4
27	64	2
118	129	1
83	84	1
123	125	3
175	185	1
184	186	1
35	46	2
12	14	1
126	133	2
186	187	1
140	153	2
132	159	2
82	89	1
83	100	2
59	61	1
161	181	1
11	45	1
182	186	2
77	91	1
64	90	1
117	134	2
45	60	1
136	137	1
168	169	2
144	159	2
73	78	1
169	178	3
61	72	1
148	161	3
85	85	1
148	149	3
1	6	1
162	170	1
136	136	1
93	103	1
163	175	2
102	112	2
167	169	1
103	122	1
109	110	2
5	5	2
64	77	1
19	22	2
9	25	1
90	94	1
150	152	1
5	10	1
118	121	1
132	137	1
2	2	3
71	74	2
124	124	1
134	136	1
182	185	1
85	111	1
106	129	1
89	89	2
144	147	2
172	183	1
162	167	2
23	32	1
29	41	2
5	6	1
159	170	1
58	61	1
22	24	1
61	62	1
173	179	1
162	176	1
172	177	1
3	38	2
120	133	1
93	107	1
94	95	2
80	89	1
148	158	1
101	108	2
71	72	2
166	168	1
12	23	1
175	176	1
139	141	1
62	64	1
20	33	1
141	148	1
152	163	1
173	177	1
155	158	1
42	45	1
170	184	1
113	113	1
117	118	1
161	176	1
173	188	1
