101	101	22
83	83	4
93	93	3
51	51	17
54	55	8
83	84	3
95	96	2
61	61	4
25	26	1
82	82	1
71	71	8
105	107	6
60	61	7
90	92	4
21	27	3
79	79	7
21	21	11
55	87	2
51	52	8
108	108	6
42	42	11
22	22	12
88	89	3
85	93	5
62	72	2
31	31	6
35	35	8
40	41	3
30	73	3
26	26	15
98	98	19
47	47	4
75	75	13
114	114	4
34	35	3
54	54	12
33	33	9
20	21	2
109	109	4
21	23	3
76	77	5
58	58	12
101	104	4
70	70	4
56	56	10
87	87	5
92	93	1
63	64	1
88	88	8
81	81	9
30	30	8
110	110	10
27	27	5
25	32	1
58	59	3
78	80	1
99	99	3
47	48	6
105	106	5
42	43	5
38	45	6
65	65	7
49	49	5
63	63	7
26	27	2
62	62	5
95	95	13
30	71	2
105	110	1
32	33	10
44	45	2
24	24	12
105	105	10
104	104	6
85	85	11
103	104	7
87	88	4
96	98	3
104	105	4
33	36	5
102	102	11
80	80	8
63	65	1
81	83	2
72	72	5
73	73	4
73	74	4
41	42	8
107	107	6
79	80	6
60	60	5
100	100	3
53	53	6
68	68	12
39	39	9
67	68	1
50	51	3
64	65	3
25	25	2
28	34	11
69	69	9
30	49	8
74	75	3
36	36	7
34	36	6
89	89	5
32	32	5
76	76	1
64	64	8
40	44	1
29	29	6
29	56	3
59	61	1
50	50	11
37	37	1
28	28	9
41	41	2
45	73	2
23	23	5
66	72	2
45	45	11
90	90	5
100	101	1
21	28	1
48	49	2
30	31	2
53	96	3
71	72	6
66	66	3
20	20	3
78	79	3
29	30	1
56	87	5
33	37	1
39	41	2
31	32	1
48	48	6
53	94	1
101	107	2
52	52	5
113	113	5
77	77	2
111	111	1
91	91	1
66	67	2
103	103	3
52	59	1
57	59	2
79	84	2
40	40	3
41	43	5
30	46	7
94	94	3
43	43	3
56	57	5
29	49	1
108	113	1
97	97	6
55	55	3
55	57	1
45	67	1
92	92	4
81	82	4
34	34	2
96	96	5
38	38	1
34	38	1
68	69	1
59	60	4
26	34	2
93	97	1
96	99	1
55	83	3
73	75	2
21	22	2
45	46	1
46	46	7
72	84	1
27	32	1
41	77	1
107	109	2
30	60	2
94	95	6
112	112	2
86	89	1
20	47	1
82	83	3
56	60	2
79	89	2
52	57	1
92	111	1
63	85	2
109	112	2
65	81	2
57	57	2
91	95	2
78	81	1
29	59	1
90	91	1
24	25	1
97	99	1
88	97	1
93	110	1
32	34	1
67	67	1
50	54	1
