67	79	1
63	63	3
164	164	2
126	126	4
64	65	2
157	157	1
155	155	2
78	78	3
102	102	3
122	123	1
55	88	1
167	167	3
108	108	2
5	6	3
172	172	4
28	30	4
114	116	3
152	152	1
121	121	5
40	40	6
43	43	2
54	90	2
177	177	4
107	107	2
174	174	4
81	81	2
32	32	2
84	84	1
138	138	5
165	165	9
38	38	11
97	97	3
163	163	5
159	170	2
66	66	8
43	44	1
58	62	1
103	126	2
64	96	3
33	35	1
28	28	1
135	135	10
72	75	3
78	93	2
36	36	8
131	131	2
149	149	9
107	151	2
127	128	1
42	44	2
106	163	2
170	170	6
105	105	3
143	143	5
42	43	2
125	127	1
151	158	1
178	179	1
35	35	7
14	14	1
130	130	1
70	81	2
96	96	5
37	37	5
118	122	1
24	24	6
95	153	1
108	186	1
1	1	4
118	118	3
151	159	2
96	97	3
75	76	2
69	82	5
171	171	3
12	32	4
67	93	3
27	27	2
73	73	4
17	35	3
140	141	2
69	70	3
78	92	1
156	156	2
23	23	4
160	160	2
150	151	3
88	88	2
93	93	2
169	169	3
130	131	4
169	170	1
137	137	3
188	189	3
122	122	3
149	150	1
68	90	1
123	125	2
14	16	5
114	115	6
76	94	1
166	167	1
54	56	1
87	149	1
58	63	4
18	30	3
120	162	3
82	85	1
134	134	3
22	22	4
79	145	4
165	186	3
189	190	3
31	31	5
114	114	4
83	83	2
189	189	1
21	27	1
162	162	8
4	4	2
171	187	3
116	118	2
89	140	3
133	135	1
29	31	2
111	111	4
8	15	2
124	124	1
101	164	1
136	137	1
91	91	2
99	153	2
116	116	1
137	138	2
184	184	3
19	19	4
75	100	1
90	90	2
15	17	3
29	29	6
181	182	1
178	178	1
52	89	1
53	53	1
91	94	1
7	17	2
31	32	2
20	20	4
155	186	3
13	48	2
79	79	2
107	159	2
161	161	4
147	148	2
111	112	1
21	21	8
101	103	5
151	151	5
54	55	2
79	80	2
44	47	2
99	100	1
41	42	3
0	14	2
77	96	1
110	110	2
116	180	1
160	161	3
65	66	3
34	36	4
110	111	2
42	45	1
36	82	1
117	117	2
23	24	3
185	185	1
58	59	2
42	42	2
52	87	2
18	18	3
76	76	2
89	89	1
160	167	1
168	168	5
123	166	1
39	39	5
9	9	3
156	159	1
129	129	2
29	30	1
183	183	3
103	108	1
11	11	1
80	80	6
58	80	1
187	187	5
99	99	1
57	58	1
182	182	2
121	123	2
190	190	2
73	75	2
18	36	1
117	118	3
168	189	1
14	40	2
106	108	1
55	55	2
21	48	2
177	181	2
124	135	2
3	3	1
8	14	1
19	20	2
105	112	1
7	83	1
109	109	2
45	46	1
133	162	1
44	57	1
175	175	1
61	61	3
101	107	1
12	33	1
152	153	2
125	125	1
179	180	2
30	35	2
129	131	1
153	153	3
12	47	1
16	17	1
76	157	1
160	168	1
87	87	1
21	32	1
176	177	1
100	158	1
121	166	2
115	115	2
66	67	3
124	134	1
12	45	2
101	102	1
146	146	3
174	175	1
145	145	1
72	72	2
180	180	1
133	137	1
71	71	2
45	45	3
102	149	1
106	167	1
40	57	1
58	60	2
154	154	2
158	158	1
161	167	1
128	128	1
104	121	3
31	35	1
0	0	1
56	56	1
68	68	2
131	132	2
104	111	2
65	65	1
111	133	1
77	78	1
10	10	1
16	40	1
17	86	2
113	113	2
6	6	1
61	62	1
71	79	1
45	47	1
127	127	1
0	11	1
2	2	1
5	5	1
141	147	1
159	160	1
59	90	1
12	12	1
74	96	1
156	157	1
7	7	1
