39	39	21
65	65	35
33	33	20
68	68	17
70	70	24
76	76	25
93	93	31
36	37	4
74	74	21
94	97	1
72	73	4
59	60	1
87	87	27
60	60	25
43	43	12
86	86	36
57	57	12
52	52	14
78	78	15
56	56	1
81	81	28
80	81	8
75	75	30
27	27	8
44	46	5
51	51	13
34	34	15
61	61	18
72	76	6
49	49	17
50	50	22
28	28	10
66	66	37
54	55	14
81	88	2
72	72	32
35	35	14
83	84	8
95	95	5
23	23	7
47	47	6
72	75	1
63	63	37
99	100	7
32	32	12
73	73	24
34	45	1
101	101	17
75	78	2
55	55	18
84	85	1
65	66	5
82	82	12
90	90	15
46	46	19
94	94	8
80	80	20
96	96	11
100	101	5
89	89	26
84	84	21
31	31	15
38	38	24
64	64	19
27	28	8
54	64	5
48	48	21
67	81	2
25	92	2
75	76	3
26	26	7
101	102	8
77	77	35
23	81	4
71	71	19
69	69	25
79	79	29
42	42	27
69	70	4
83	83	19
35	36	10
24	24	4
40	51	4
95	96	6
22	23	5
38	39	3
85	86	8
55	56	2
66	78	3
29	81	3
58	58	16
25	25	13
88	88	30
45	45	8
22	22	3
91	91	10
97	97	8
88	92	2
45	47	2
53	53	14
59	59	7
44	45	6
30	31	3
84	88	2
50	51	8
69	79	2
77	88	2
41	41	10
100	100	12
85	85	16
98	98	7
56	58	1
46	47	4
44	49	3
62	62	22
64	65	8
58	61	5
91	93	2
37	37	11
60	61	4
68	83	2
92	94	5
53	54	2
73	76	3
89	92	3
75	79	1
30	30	5
67	67	24
63	64	9
49	50	9
73	81	2
35	41	1
31	62	3
93	95	1
68	69	7
94	98	3
74	86	2
37	38	13
67	71	3
25	83	1
47	48	5
71	72	11
58	59	4
73	80	1
57	69	2
77	78	3
25	26	3
92	92	16
81	86	1
40	40	13
76	79	1
45	46	6
58	60	1
77	81	4
74	75	2
62	63	2
29	29	14
67	68	12
86	87	5
33	34	3
80	82	2
61	67	1
36	36	12
29	34	4
23	24	3
61	62	4
43	44	4
91	92	4
77	80	4
26	27	6
70	71	10
66	84	1
88	99	2
76	77	4
40	41	2
93	94	5
89	90	1
51	52	4
44	44	4
71	79	4
87	88	5
96	98	1
33	46	2
20	20	3
99	99	3
73	86	2
54	56	1
50	52	3
33	44	2
79	80	7
31	42	3
77	83	2
88	89	1
97	101	3
78	79	5
90	99	1
56	73	4
61	101	2
46	53	2
56	57	2
79	81	1
55	64	1
81	89	3
89	98	1
54	54	1
102	102	3
48	49	2
35	37	4
48	53	2
82	88	2
39	51	4
36	39	2
56	76	3
84	101	2
58	62	3
97	100	1
57	58	4
78	80	1
58	69	2
20	21	1
83	92	2
35	38	3
30	87	1
82	83	1
36	76	2
74	78	1
41	42	4
81	87	7
72	88	2
39	40	3
96	97	7
95	98	1
20	22	2
95	97	2
96	101	3
37	87	1
44	70	1
31	53	1
72	74	4
32	33	3
29	30	1
73	74	2
74	76	2
91	94	1
56	84	1
56	69	1
36	78	1
31	81	1
96	99	1
83	99	1
56	61	1
93	100	1
43	74	2
72	77	2
32	35	1
66	67	1
97	98	1
75	77	1
24	80	2
24	25	1
72	78	1
48	52	2
82	89	1
62	101	1
29	42	2
27	29	1
34	37	1
69	72	1
28	81	1
72	80	1
81	82	2
34	38	1
44	48	1
73	77	1
34	35	1
94	96	1
25	46	1
