92	92	12
6	6	3
72	72	2
138	138	4
118	120	3
79	79	11
119	120	3
33	33	4
154	154	8
87	108	1
22	30	2
126	136	1
50	51	7
28	28	2
117	117	8
13	18	2
134	135	4
143	143	7
39	39	7
45	46	4
136	137	3
7	14	2
50	50	4
89	91	3
96	96	5
108	108	5
80	125	1
23	23	7
153	153	7
88	90	1
34	55	1
102	102	4
52	52	9
2	8	2
99	99	9
21	21	9
78	78	5
41	42	9
111	112	6
47	47	11
146	146	8
77	123	5
19	19	2
26	26	9
125	126	1
106	107	3
116	116	9
3	52	3
3	14	2
157	157	8
4	4	9
140	140	5
46	46	2
15	16	2
70	70	2
72	91	1
41	41	4
66	66	3
86	88	2
81	95	6
147	148	1
17	19	2
153	158	6
20	20	1
125	125	9
91	91	9
31	42	1
24	24	2
31	54	2
83	88	4
69	69	18
2	39	2
8	8	4
11	11	9
12	12	4
118	119	1
78	113	3
85	86	4
136	136	5
115	115	2
88	88	8
9	9	7
13	19	3
85	85	3
151	151	4
103	103	5
156	157	2
69	87	6
10	84	3
80	80	3
104	105	1
44	45	2
13	13	12
81	107	4
107	107	7
9	10	3
29	29	11
48	48	1
156	156	3
94	94	4
23	24	2
105	105	5
152	153	1
139	139	10
95	95	4
30	30	2
27	27	2
36	36	2
2	2	1
124	124	5
134	134	1
71	71	5
28	29	1
43	43	7
69	71	5
38	42	5
26	27	6
140	148	5
51	52	2
146	147	2
0	7	1
104	104	7
35	35	6
38	38	4
33	34	1
150	150	4
19	24	2
91	92	1
64	64	3
29	30	2
113	113	4
65	65	3
129	129	10
130	130	3
158	158	2
84	109	2
132	132	7
42	42	3
30	53	2
17	41	5
27	30	2
135	135	1
84	84	5
116	122	3
4	84	3
57	57	2
120	122	3
109	110	1
37	39	5
95	96	2
89	94	1
35	36	3
114	114	4
13	23	3
53	53	5
122	122	3
100	101	2
44	44	4
26	50	3
77	91	1
4	81	2
100	100	6
124	126	2
31	31	4
10	10	5
151	152	6
105	112	1
124	127	1
90	90	4
109	109	1
79	80	4
111	111	2
75	104	1
31	41	1
87	87	4
83	91	1
142	142	6
109	111	2
81	96	1
81	82	1
77	78	1
120	120	1
116	121	3
34	35	1
10	83	3
154	155	6
1	103	2
5	5	3
123	124	1
22	22	3
112	112	4
121	121	6
82	82	2
77	77	4
5	82	1
95	102	4
97	98	2
141	142	1
140	141	1
2	4	3
141	141	4
67	67	2
150	153	2
83	84	2
88	91	1
77	83	1
49	54	1
32	32	1
64	67	1
144	148	1
155	156	1
3	3	2
76	76	6
40	40	1
7	7	2
132	156	2
115	123	8
21	22	1
31	52	3
36	55	2
25	25	3
137	137	1
154	156	1
127	127	3
131	131	1
15	15	2
144	144	3
37	40	1
5	38	1
1	1	2
25	29	1
36	49	1
37	41	1
147	147	1
27	28	1
97	97	1
18	41	1
18	18	1
137	138	3
3	8	1
139	144	2
108	116	1
66	68	1
155	155	1
126	126	3
119	119	2
78	79	1
73	106	1
12	13	1
101	101	1
91	110	1
17	21	1
56	56	1
20	22	1
3	4	1
32	55	1
121	141	1
41	46	1
73	73	2
15	18	1
70	85	2
51	51	1
101	102	1
42	50	1
37	46	1
1	2	1
93	94	1
0	1	1
98	98	1
108	112	1
