172	172	5
31	95	2
123	123	11
84	84	6
140	145	3
94	94	2
106	106	10
81	81	12
115	117	4
108	109	8
135	135	8
78	78	6
12	13	2
169	169	13
11	11	10
28	28	15
84	86	1
153	154	8
33	33	17
25	121	2
129	131	6
97	116	3
148	148	12
137	151	3
130	130	10
59	60	10
14	30	3
112	112	13
166	168	3
24	25	10
30	30	13
124	124	5
173	173	15
107	119	3
151	151	3
2	87	5
42	42	14
54	67	5
1	1	15
14	15	4
102	120	4
120	132	4
83	84	3
178	178	19
2	2	12
147	150	1
60	61	14
22	22	3
164	164	1
143	146	7
129	129	7
110	110	7
118	118	7
53	54	1
25	25	3
104	104	7
118	125	4
115	116	9
152	152	9
135	137	1
55	148	6
126	127	10
50	86	1
41	41	17
9	9	6
117	117	10
65	65	13
18	18	7
104	105	4
123	125	3
29	94	2
115	118	2
71	143	7
26	26	12
159	162	3
150	162	3
105	105	6
95	95	10
49	53	4
170	173	2
38	151	5
95	103	4
128	128	7
113	113	14
62	62	10
97	98	4
109	109	7
140	146	1
14	39	3
106	117	4
52	52	7
174	174	8
89	89	21
66	66	9
166	166	11
142	142	16
53	53	9
14	23	4
142	143	5
106	107	3
158	159	6
144	155	2
164	169	1
126	132	5
86	86	7
63	63	16
109	179	5
145	146	10
67	67	7
145	145	14
103	123	3
122	125	2
96	96	5
5	7	4
139	139	2
114	114	5
16	22	4
85	85	11
135	145	1
170	170	12
0	1	6
15	15	12
100	100	4
163	163	17
169	170	5
81	86	3
50	106	3
13	24	7
123	124	3
100	113	2
161	161	4
153	167	3
86	101	1
25	26	3
101	101	5
121	152	2
31	31	8
153	158	3
144	147	3
167	168	6
154	171	1
107	107	6
49	49	3
133	133	4
131	142	1
37	37	6
57	58	4
96	100	1
152	154	2
87	87	14
122	122	12
79	79	4
95	104	4
13	113	1
119	119	5
19	21	6
120	120	9
4	4	15
102	102	7
76	87	2
153	153	19
18	31	4
25	27	3
110	111	2
46	46	8
127	137	4
70	74	5
24	33	5
165	165	11
88	88	16
75	75	4
144	144	5
173	174	2
35	35	11
13	16	3
54	68	6
15	111	4
125	178	4
94	95	5
101	120	2
55	55	9
38	38	6
1	4	4
56	61	4
121	125	3
147	151	3
31	32	2
32	32	9
124	178	2
175	175	8
59	59	7
55	68	4
80	80	2
36	126	4
51	51	6
77	77	3
64	65	1
118	120	2
167	167	4
68	68	10
131	132	2
87	88	6
109	115	5
40	40	6
66	73	5
168	168	6
29	32	4
12	40	1
11	33	1
111	111	8
16	17	10
143	144	4
8	9	1
43	148	3
19	19	10
154	159	3
13	13	7
11	12	10
159	159	3
90	92	7
41	42	7
44	44	11
106	118	2
107	118	5
71	71	12
58	58	7
116	116	8
98	98	5
34	96	5
3	10	3
120	121	2
43	113	1
137	137	18
122	123	5
29	29	6
3	3	16
72	72	6
113	116	2
150	150	9
157	165	3
30	31	7
83	83	4
116	128	2
36	36	13
112	114	2
127	135	3
126	126	4
64	81	2
34	34	6
68	89	1
42	44	3
107	114	1
101	102	3
53	113	3
21	21	10
156	156	9
152	153	5
28	41	3
124	140	1
131	131	13
73	80	1
5	85	1
70	73	2
8	8	7
8	10	1
98	99	2
100	104	2
82	82	6
25	32	4
5	5	7
11	14	4
139	168	1
62	63	6
32	33	3
45	148	6
92	94	1
136	136	7
99	99	6
73	73	4
133	142	1
123	158	1
13	22	2
156	167	3
138	138	5
6	6	11
141	141	5
102	109	1
10	11	2
50	52	1
179	180	2
63	64	1
72	140	9
134	135	3
10	10	3
146	150	4
158	158	7
170	175	5
176	177	2
52	55	1
26	34	1
12	51	4
2	5	5
104	108	2
125	126	1
116	127	2
134	134	3
103	122	5
56	56	9
0	8	4
45	46	3
51	86	2
159	172	1
146	146	5
148	149	3
91	91	8
114	126	1
163	165	3
24	24	10
115	119	3
80	81	4
34	43	1
49	50	9
14	14	7
132	132	2
17	18	4
157	178	3
18	19	2
149	149	18
58	121	3
35	126	1
165	166	1
37	38	1
58	60	1
39	39	7
40	50	1
15	16	7
73	89	2
63	88	7
76	76	6
99	100	5
135	143	2
88	108	2
99	104	4
144	165	2
151	171	2
137	138	3
86	87	3
157	158	3
40	43	2
61	61	8
76	88	4
92	93	2
140	142	2
140	140	12
102	121	1
163	164	1
155	157	2
82	83	1
36	39	3
24	26	2
16	20	1
95	96	5
103	103	9
97	97	7
151	165	1
39	40	1
27	27	4
147	147	3
39	138	1
28	39	7
71	84	5
50	50	4
103	106	1
90	101	2
75	76	1
42	61	1
125	125	3
137	147	1
123	136	3
115	115	3
16	91	3
160	165	4
84	90	2
142	147	2
154	154	10
7	7	4
121	122	4
96	108	1
80	82	1
56	57	1
50	51	3
158	171	1
2	9	2
28	31	3
11	26	1
12	15	2
159	175	2
52	53	11
21	22	4
17	17	10
127	127	4
16	16	3
97	108	6
101	121	1
57	57	3
154	158	5
131	133	2
104	110	1
19	20	3
0	2	1
90	90	1
174	175	5
54	54	3
60	60	4
4	5	2
9	12	1
28	29	3
19	25	1
78	103	2
162	162	4
144	145	1
102	122	2
77	78	6
37	174	2
50	56	2
9	19	3
35	127	3
176	176	8
135	136	6
33	127	5
43	43	5
45	45	2
52	59	1
136	178	1
113	114	4
147	148	3
160	160	1
59	120	1
8	21	1
9	11	1
53	109	1
21	23	2
108	108	3
132	133	2
138	176	2
172	173	2
4	13	2
93	95	2
73	140	2
37	175	2
155	155	2
85	86	1
92	92	5
169	171	2
141	146	3
100	101	2
142	146	1
161	164	4
124	125	1
52	84	1
42	43	4
119	120	2
93	107	3
164	168	2
14	29	2
143	145	4
0	0	2
88	107	2
163	166	2
86	91	3
52	62	3
84	85	2
99	101	1
80	85	1
11	35	3
90	106	1
71	89	1
171	171	1
137	149	1
124	137	4
73	94	2
99	103	4
3	4	4
1	112	5
127	129	1
158	176	2
141	142	1
36	157	1
0	21	1
93	93	4
60	119	2
78	79	2
14	22	3
2	18	1
98	117	1
61	152	3
73	96	3
149	150	6
118	122	1
34	94	1
165	178	1
107	117	2
74	74	1
55	75	3
2	86	3
74	87	1
54	55	2
110	123	1
112	113	1
8	11	1
3	18	1
19	22	1
138	139	1
79	80	1
23	76	1
136	177	2
15	22	4
42	45	1
74	75	1
56	62	3
2	6	2
113	128	2
54	62	1
99	116	1
124	158	3
53	61	1
64	64	4
7	18	1
93	103	3
118	121	1
162	163	1
177	178	2
11	36	2
74	82	1
134	140	1
60	125	2
156	157	1
117	118	1
151	153	1
54	114	1
57	59	2
78	100	2
159	160	2
159	173	1
180	180	3
151	154	1
64	105	1
72	87	4
167	180	1
39	65	1
177	177	2
14	36	1
168	169	1
73	86	1
114	115	1
155	156	1
51	60	1
23	23	1
160	166	1
114	157	1
154	156	1
16	92	1
52	54	1
130	170	1
96	97	1
172	174	1
141	152	1
73	74	2
146	149	2
53	179	1
52	60	2
105	118	2
50	120	3
27	28	2
38	41	1
7	8	1
67	79	1
121	121	2
154	161	1
6	7	1
35	36	1
3	7	1
50	54	1
46	52	1
161	180	1
16	18	1
115	179	1
111	112	1
179	179	1
136	138	1
100	103	1
49	58	1
90	120	1
104	106	1
57	61	1
81	84	1
104	115	1
155	158	1
1	13	1
8	12	1
44	148	1
122	136	1
