115	115	5
40	40	13
138	138	5
98	99	2
36	47	2
130	130	14
93	94	4
29	29	7
30	30	6
95	96	5
72	72	10
4	5	5
105	105	9
96	96	7
128	128	19
17	18	4
75	75	9
6	6	6
142	142	15
141	142	4
107	107	9
61	61	9
133	133	7
38	38	24
37	37	13
74	126	2
110	111	5
99	101	1
59	105	3
25	39	2
144	144	4
138	139	5
43	43	4
15	16	5
126	126	10
103	103	6
5	116	6
70	79	2
117	117	3
67	67	14
68	68	7
51	52	4
14	18	6
115	121	1
114	118	5
89	89	13
39	39	12
58	58	9
41	42	6
55	55	10
131	131	11
99	99	10
110	110	6
73	73	9
2	3	5
100	100	8
128	137	1
74	74	9
141	141	9
32	32	6
37	41	3
83	84	3
57	61	4
18	18	12
127	127	14
102	102	17
142	143	2
114	115	4
8	9	2
67	68	10
63	69	6
101	101	8
20	20	12
95	95	8
113	113	18
50	50	10
14	14	4
116	116	11
9	106	4
139	139	4
32	83	2
70	70	9
65	65	8
34	34	5
17	125	1
90	90	11
54	55	8
123	136	3
4	47	1
11	33	2
6	10	2
47	47	2
125	126	5
136	136	4
34	37	4
0	0	3
13	54	5
66	66	7
109	109	14
53	53	11
36	37	6
25	27	2
119	119	6
94	94	10
120	120	5
91	91	6
13	43	2
59	60	4
63	63	12
13	15	3
135	140	4
13	39	2
104	116	6
130	133	2
13	16	2
12	76	1
113	114	4
133	134	16
54	54	11
48	48	3
28	28	15
42	42	15
29	53	2
19	19	5
41	41	6
69	70	4
33	34	8
109	130	2
110	117	1
50	51	5
59	59	10
76	128	2
36	36	3
124	124	9
0	56	8
10	10	7
65	66	10
72	73	4
30	82	1
17	17	11
104	105	11
22	23	2
108	108	3
120	121	5
118	119	2
47	48	5
41	69	4
74	135	3
5	5	6
29	30	6
12	80	2
69	69	9
22	22	15
132	132	9
111	111	7
54	133	2
39	40	4
1	62	1
81	82	2
81	83	7
133	142	3
132	133	6
116	117	2
24	26	4
65	68	2
24	24	8
14	77	2
137	137	3
20	25	2
27	33	2
0	47	2
130	131	2
104	104	6
81	81	5
38	74	6
9	9	6
64	64	11
37	78	4
71	71	9
63	99	2
61	102	1
37	40	2
2	55	1
75	126	3
70	72	2
13	14	3
62	62	7
124	125	4
8	8	3
94	102	2
93	93	4
126	139	2
66	67	5
88	90	7
78	78	7
1	33	4
140	140	4
1	1	10
18	19	4
125	125	7
2	2	6
134	138	1
96	108	8
27	27	8
98	98	5
10	104	1
135	135	8
64	65	4
82	83	4
56	59	2
146	146	5
88	89	3
127	132	3
38	41	2
107	108	4
3	6	5
33	33	5
12	14	5
16	16	7
125	132	1
88	88	5
114	114	1
6	8	3
12	12	1
23	23	4
91	125	1
74	133	2
53	54	4
43	49	1
11	11	5
68	69	3
97	98	3
134	134	3
35	35	3
54	59	3
31	31	6
125	135	3
48	49	3
60	61	9
80	81	3
11	62	6
97	120	2
58	59	9
27	28	6
27	29	2
76	76	11
49	51	2
68	124	2
92	92	3
88	91	2
38	39	1
42	67	2
101	102	5
112	112	4
77	77	5
21	21	2
28	29	1
87	87	4
70	74	2
64	116	2
51	51	1
60	60	2
80	80	3
1	47	3
41	63	2
29	98	1
28	142	3
20	23	1
9	10	3
21	35	2
20	84	3
32	33	1
49	50	2
52	53	2
134	135	4
68	123	1
104	114	3
103	130	1
56	56	4
43	117	4
97	97	2
130	135	2
121	123	1
115	116	1
102	103	1
13	13	4
108	110	1
13	18	3
74	75	3
75	135	2
39	65	1
18	22	2
99	102	2
136	140	4
25	25	8
143	143	3
26	26	4
4	4	5
39	77	2
98	100	1
21	33	1
123	123	1
137	139	4
78	80	1
112	113	2
110	112	1
60	104	1
12	130	3
15	15	1
18	97	2
126	142	1
99	100	1
14	17	1
36	40	2
95	98	1
30	33	1
121	121	3
67	91	1
35	36	2
124	136	2
19	82	1
54	60	3
8	11	1
57	57	2
134	140	1
73	134	1
75	76	2
84	88	1
123	124	1
47	56	1
85	85	1
46	48	1
73	74	1
55	56	1
21	143	1
84	84	1
109	120	1
110	123	2
116	119	1
79	79	4
49	49	1
42	69	1
39	63	2
52	52	1
18	72	1
128	132	1
31	48	1
118	118	1
55	60	1
16	54	1
66	90	1
59	70	1
139	140	1
53	58	1
18	24	2
47	51	1
116	118	1
13	41	1
94	95	1
62	103	1
1	59	1
62	63	1
2	10	1
106	110	1
127	128	2
105	106	1
47	106	1
48	131	1
115	123	1
24	25	1
104	119	1
