36	59	1
81	81	22
76	76	17
86	86	24
57	64	4
67	67	22
97	102	3
44	45	6
46	46	14
78	79	6
32	32	8
46	55	2
96	97	4
79	79	31
83	83	17
33	34	5
88	88	38
37	38	7
43	43	9
29	30	3
86	88	6
59	61	4
66	66	11
72	72	11
31	31	8
54	58	7
64	67	2
89	89	11
58	59	1
85	85	17
80	81	6
83	85	4
75	75	11
92	93	6
53	53	7
62	66	1
51	52	1
47	47	12
62	63	13
85	86	4
35	39	2
25	29	6
69	69	9
39	39	7
38	59	3
59	60	1
35	35	5
50	50	4
35	37	2
64	64	10
92	92	8
58	60	1
97	99	4
34	34	4
73	76	4
90	90	10
65	65	20
84	84	18
47	49	2
67	68	10
59	62	2
24	24	3
94	95	3
45	50	1
68	68	21
62	62	27
53	54	5
42	42	22
87	87	17
26	28	2
80	80	11
63	63	19
100	101	2
59	59	25
97	98	12
100	100	14
28	28	1
73	73	14
61	64	3
66	67	4
98	98	5
40	41	4
25	26	4
55	56	14
77	77	31
58	58	10
40	40	13
68	69	13
24	26	4
66	69	2
94	94	20
38	38	5
80	83	5
73	74	9
61	63	6
71	71	31
65	67	14
71	72	2
34	41	1
65	71	2
22	22	4
91	92	13
57	58	1
20	22	3
77	78	7
60	60	17
25	25	3
27	29	6
54	55	3
70	76	2
52	53	3
55	55	3
44	46	2
52	52	11
22	23	2
27	34	2
93	93	5
61	61	13
98	102	4
89	96	2
86	87	7
71	77	3
39	41	11
78	78	32
69	76	1
89	90	3
74	75	3
61	66	6
91	91	1
81	83	1
42	43	5
56	56	6
95	96	3
70	70	24
84	85	12
26	29	5
79	83	3
73	78	3
67	70	4
61	69	1
67	69	4
80	82	6
39	46	4
97	97	8
78	80	7
87	88	23
76	79	8
45	45	13
50	52	6
22	25	1
99	99	3
26	31	6
37	40	2
74	74	16
25	27	4
46	47	11
84	86	3
63	64	10
70	72	6
79	80	8
61	62	1
31	59	4
64	65	5
45	48	8
48	48	6
81	84	3
89	97	3
52	55	2
36	36	9
75	76	7
48	50	1
90	92	3
83	84	3
49	49	8
32	33	2
32	34	3
56	60	2
69	72	6
63	67	3
62	65	7
46	49	1
78	83	3
81	82	2
45	81	2
26	26	4
83	88	1
46	50	1
85	87	3
71	74	1
41	41	13
49	51	2
44	44	4
90	91	1
30	38	2
41	42	7
101	101	8
78	82	4
43	44	1
87	89	4
28	29	1
68	71	1
29	29	6
99	100	3
22	91	1
65	68	2
61	65	5
97	101	5
84	89	2
30	30	2
81	85	6
39	40	1
53	56	4
86	89	4
66	73	2
76	78	2
86	91	2
69	73	5
47	48	1
51	51	3
31	36	1
96	96	3
36	37	4
82	82	4
34	38	4
21	35	3
38	39	3
67	85	4
65	69	2
27	28	1
76	90	2
57	72	5
87	92	1
75	77	1
29	32	1
92	97	2
72	74	4
53	60	4
43	98	1
54	54	1
57	61	3
74	78	1
100	102	2
83	87	1
30	34	1
66	76	1
57	57	5
67	73	1
66	71	1
68	74	1
66	72	1
96	98	2
31	54	4
90	94	1
30	31	1
41	46	2
20	20	1
96	102	2
95	99	1
33	35	1
98	100	1
98	99	3
62	64	1
67	74	4
42	45	1
48	71	1
69	77	1
23	24	3
89	100	1
95	97	3
48	82	1
65	66	4
25	28	1
79	81	2
95	95	2
82	94	1
70	73	2
49	50	1
20	24	1
48	51	2
76	100	1
23	26	1
57	59	1
66	68	1
77	79	2
72	76	1
93	95	1
47	52	1
92	98	1
24	25	1
44	48	1
55	60	1
76	89	2
32	35	2
77	80	1
42	44	1
28	34	1
49	61	1
45	47	1
76	77	1
69	82	1
