37	37	8
136	136	11
10	10	1
80	80	8
28	29	3
12	12	3
12	13	3
25	25	8
110	110	5
66	68	2
82	82	6
24	24	7
53	54	1
9	19	1
133	133	4
134	134	2
137	144	3
65	68	1
38	38	6
28	28	10
111	111	2
95	96	3
113	113	9
53	53	8
34	38	3
9	9	3
144	144	4
39	40	3
128	128	5
129	129	6
132	132	5
46	46	6
91	91	4
79	79	4
76	76	4
48	48	2
148	151	4
148	148	2
123	123	13
147	147	6
17	17	3
41	41	5
125	125	5
13	13	11
33	33	9
30	30	4
14	15	2
141	142	1
65	103	2
77	77	1
141	141	1
55	56	1
35	35	2
56	57	1
71	71	2
78	79	3
133	134	1
51	51	6
54	54	3
63	63	7
74	74	6
115	116	2
151	151	8
88	88	4
69	69	1
29	30	3
40	40	8
83	83	1
16	19	1
32	33	2
149	150	2
22	23	3
6	6	3
140	141	4
54	55	3
47	47	3
18	18	5
72	72	1
25	53	3
34	34	6
97	97	4
112	113	1
16	16	3
135	144	1
84	84	3
121	121	3
122	122	5
75	76	5
124	126	5
15	16	1
8	8	1
140	140	4
5	6	4
116	117	1
80	81	2
57	57	4
126	127	2
152	152	4
26	26	6
66	66	4
31	31	4
11	11	5
130	131	2
118	118	3
150	153	2
99	99	2
95	98	1
117	117	3
78	78	3
95	131	1
145	147	3
139	141	1
95	100	1
114	144	2
98	98	1
137	146	1
117	118	1
130	130	2
19	19	1
34	37	4
32	32	2
98	99	2
14	14	2
145	145	6
43	44	4
146	148	4
49	52	2
71	72	3
22	22	3
68	68	6
26	27	1
96	97	2
150	154	2
42	45	3
85	86	3
103	104	5
25	26	2
107	107	2
149	151	2
146	146	1
29	29	1
13	28	2
76	79	1
124	125	2
51	54	1
21	22	1
108	108	1
30	32	3
137	137	3
4	4	2
84	85	3
78	122	1
120	129	1
150	150	2
110	116	1
107	109	3
92	95	1
114	114	3
120	120	3
106	106	2
119	119	2
100	101	2
46	68	2
86	86	2
81	82	1
66	67	1
138	138	2
87	87	1
96	96	1
70	70	1
95	99	1
25	51	1
100	102	1
101	102	2
31	38	1
128	145	1
62	62	1
81	81	2
69	70	1
109	110	1
147	152	2
85	85	1
92	92	2
115	115	1
25	33	1
21	21	1
42	42	2
111	113	1
112	112	2
65	92	1
126	137	1
74	75	1
41	43	1
101	101	1
44	44	1
102	107	1
70	71	1
88	91	1
45	46	1
8	12	1
102	131	1
94	94	1
126	126	1
154	154	1
124	124	1
109	109	1
55	55	1
95	95	1
101	108	1
