113	114	2
96	96	10
53	53	3
60	61	5
23	24	1
65	65	10
108	108	4
40	40	6
18	18	9
11	12	1
114	114	3
38	38	6
17	30	4
55	55	4
118	118	2
25	25	3
51	51	8
17	17	7
117	119	4
118	119	4
17	33	1
102	102	4
78	79	2
97	131	1
49	49	4
21	22	4
87	87	8
58	58	9
1	3	3
52	53	7
32	47	3
106	107	3
32	32	4
13	13	10
29	30	3
103	103	17
120	120	7
46	85	1
88	88	3
43	45	3
99	99	4
107	118	2
89	90	3
47	128	1
104	104	5
42	42	3
88	89	3
44	101	1
68	73	4
97	97	3
3	4	5
41	41	8
124	124	6
33	125	4
27	27	4
62	62	7
112	112	2
2	6	2
13	14	6
12	118	4
93	93	5
23	23	4
66	92	2
50	50	4
127	130	1
80	81	2
79	79	5
52	125	3
47	47	3
129	129	3
1	2	2
63	64	3
30	30	3
100	100	2
82	82	4
79	88	1
81	83	2
45	45	4
49	51	1
48	48	3
69	133	3
122	122	5
44	45	2
83	84	1
14	14	3
16	18	1
123	123	5
32	46	1
101	101	3
111	111	7
42	62	2
105	105	4
16	16	6
49	82	1
97	98	1
116	117	1
95	95	3
64	64	5
44	44	3
69	73	4
29	29	2
48	131	3
121	121	4
70	72	3
68	68	3
46	127	1
40	58	1
125	125	3
2	5	1
89	89	6
6	115	1
5	119	1
98	99	1
94	94	4
24	25	3
87	89	1
58	64	2
33	49	1
81	81	4
103	117	1
42	130	4
122	124	4
5	5	2
10	11	5
11	107	1
32	34	3
23	27	1
100	104	1
86	86	1
110	110	3
31	32	2
52	52	1
33	33	2
112	113	1
66	94	1
96	131	1
92	92	2
14	29	1
126	126	2
116	116	5
12	12	3
90	90	4
108	112	1
41	62	1
68	90	1
59	59	4
8	8	1
40	130	1
34	34	1
70	71	3
60	60	2
91	91	3
30	31	1
67	67	2
126	127	6
67	94	2
93	94	1
66	91	1
79	80	1
11	118	2
77	77	5
114	116	2
113	115	1
31	31	6
41	60	1
54	54	1
76	76	5
4	4	2
71	72	1
47	127	1
17	18	2
3	3	3
1	1	3
6	7	2
22	22	1
46	46	4
56	95	3
70	74	1
38	39	1
3	5	1
132	132	2
46	47	1
57	57	1
109	109	2
108	119	1
122	123	1
68	88	1
4	70	1
61	61	4
80	83	1
61	62	1
72	72	2
19	19	1
55	99	2
107	107	1
11	11	2
19	28	1
79	81	4
92	94	2
84	85	1
9	120	2
2	2	3
64	65	1
31	34	1
8	120	1
94	95	1
39	40	2
40	42	1
98	98	1
32	110	1
66	67	1
115	115	2
83	86	2
115	116	1
0	0	2
102	103	1
43	43	1
99	100	3
7	7	1
114	119	1
66	93	2
56	57	1
25	26	1
53	132	1
106	110	1
69	70	1
7	119	1
7	9	1
