77	77	18
35	35	33
64	67	11
26	26	23
20	20	11
38	40	16
36	37	4
37	37	25
5	5	21
6	31	9
50	50	7
60	62	5
47	47	24
39	74	1
9	14	2
5	6	7
1	12	6
51	52	10
37	38	9
64	64	12
5	28	5
65	67	2
67	71	5
19	19	19
49	49	13
53	53	6
45	45	16
67	67	7
49	68	1
32	32	11
68	68	9
61	75	4
36	36	20
44	44	14
38	62	2
71	72	3
2	2	17
12	13	12
69	69	11
10	10	15
31	31	22
2	3	4
32	53	4
60	60	16
42	42	25
70	70	12
28	28	8
0	0	16
27	48	6
67	72	4
15	15	24
51	51	21
27	27	22
6	8	1
78	78	18
14	14	14
59	59	10
35	38	2
13	14	13
39	40	1
9	9	7
7	80	6
41	41	8
66	66	6
27	40	2
57	57	8
32	49	4
18	18	9
52	52	13
10	15	2
8	50	2
17	17	17
65	65	12
80	80	13
6	7	3
31	68	2
36	74	1
61	80	1
16	16	6
12	12	12
30	30	14
8	8	11
40	48	2
58	59	12
9	12	8
61	61	11
3	6	1
2	10	3
48	48	5
26	30	1
11	11	12
38	38	29
31	32	15
73	73	9
72	74	2
37	74	1
11	64	1
54	54	9
54	55	2
1	57	1
4	4	12
76	76	14
1	1	5
44	57	1
25	25	8
1	2	5
51	56	1
64	65	2
71	71	12
48	52	2
57	58	15
38	39	12
40	40	16
74	74	15
27	28	4
10	31	6
3	3	17
16	21	4
1	7	1
20	34	2
75	75	15
55	56	5
39	39	12
13	13	14
63	72	2
46	46	10
22	63	2
49	70	2
58	73	2
52	53	3
55	55	11
10	11	8
31	33	2
27	49	2
8	13	2
60	61	2
63	70	2
43	43	3
13	65	3
34	34	8
14	15	10
55	58	5
8	9	11
5	8	3
35	36	1
62	62	8
42	49	1
77	78	6
61	64	5
63	63	17
53	54	4
30	31	2
11	65	2
37	40	5
33	33	10
29	29	12
39	48	2
54	75	4
59	73	3
19	21	1
62	63	2
40	42	4
66	67	3
17	21	1
58	58	9
0	7	3
11	63	3
49	50	1
68	69	2
79	79	7
7	7	7
16	20	1
6	6	12
28	41	2
2	17	2
10	13	6
7	8	3
59	74	1
9	10	2
80	81	3
21	21	2
2	14	1
1	11	3
50	53	2
46	47	5
50	70	3
26	65	1
26	31	2
35	76	2
33	47	3
3	4	3
72	72	11
6	32	3
9	11	4
20	39	1
72	73	1
26	67	1
68	70	5
45	57	1
0	1	6
62	64	1
8	31	1
3	16	1
2	4	1
15	25	1
4	7	5
4	80	4
38	41	1
58	62	1
37	66	1
27	67	1
16	17	2
54	67	6
26	27	4
19	20	2
61	73	3
20	33	1
2	66	2
16	33	1
42	48	1
22	66	2
19	39	2
60	73	1
6	28	1
18	79	2
31	57	2
56	56	8
2	15	1
36	66	1
27	41	2
41	52	2
22	26	1
58	60	1
42	45	1
76	77	2
54	69	1
30	38	1
73	74	2
2	16	3
49	52	1
0	15	1
53	76	1
3	10	1
18	34	3
3	5	1
32	55	3
16	18	2
67	68	2
20	48	2
2	18	1
45	50	1
55	76	2
33	60	1
61	63	2
26	34	2
9	13	1
63	64	2
63	71	1
63	69	1
17	65	2
51	68	2
29	30	3
21	69	2
9	50	1
66	71	2
69	70	1
11	12	1
42	64	1
52	77	2
77	79	1
22	68	1
32	54	1
2	63	1
2	12	1
56	57	1
38	48	2
27	35	1
50	51	2
10	14	1
31	49	1
78	79	1
26	66	1
32	69	1
64	72	1
54	56	1
49	51	1
