104	104	2
69	69	7
41	41	7
161	164	1
163	163	9
57	63	1
43	44	5
42	42	6
70	70	13
26	26	7
94	94	15
49	49	6
5	5	9
108	108	9
2	2	11
86	86	6
44	47	4
62	62	4
151	161	4
144	144	9
15	15	9
77	78	4
119	119	4
148	149	4
89	89	6
14	14	4
13	13	6
122	122	2
44	45	5
48	49	7
73	100	2
164	164	8
136	136	4
14	15	4
116	116	6
108	110	3
3	6	5
84	86	3
38	38	5
55	55	8
147	147	4
150	159	4
170	170	9
120	120	5
137	137	5
112	112	7
39	49	1
123	123	6
93	93	4
7	8	2
74	74	4
161	165	1
113	113	2
140	140	4
144	145	7
161	161	3
79	79	5
149	149	8
54	120	2
159	159	3
114	114	8
131	135	3
43	43	3
97	97	6
16	16	8
47	47	7
46	57	3
37	37	4
127	127	4
122	146	3
46	48	3
75	76	2
148	148	2
111	111	8
90	90	17
10	11	2
83	83	6
102	104	3
121	122	6
10	22	2
109	110	2
18	21	2
12	12	4
150	166	1
118	118	16
12	23	2
166	166	1
35	36	9
109	109	3
101	105	7
39	40	3
113	114	1
105	105	5
19	22	5
95	95	6
153	154	2
54	54	2
40	51	3
151	151	7
160	165	2
134	134	9
161	162	4
66	66	3
157	157	5
131	131	6
7	7	7
21	21	6
79	80	3
80	83	1
71	71	5
53	53	7
78	78	9
45	63	1
141	141	7
44	46	1
139	139	8
3	109	2
156	156	5
1	1	9
57	64	3
96	96	4
118	119	4
122	143	1
34	35	5
133	134	13
17	17	5
140	147	5
126	127	5
151	154	2
3	110	2
75	97	3
6	8	2
163	164	3
142	143	8
13	159	4
25	25	4
150	150	5
94	95	5
102	103	3
80	80	13
76	96	4
125	125	8
16	150	5
46	46	7
71	93	3
115	115	3
11	19	2
75	75	2
8	8	11
103	103	5
149	165	2
57	62	1
128	129	6
49	121	3
119	120	4
82	83	6
18	24	4
86	108	1
88	88	3
46	47	7
52	89	2
163	167	2
150	151	1
101	103	7
28	28	3
136	143	1
128	128	6
76	76	6
136	137	2
8	33	1
86	88	3
35	35	5
73	73	6
87	87	3
3	3	6
82	82	3
162	162	9
6	6	9
10	10	3
22	24	2
126	126	4
4	7	1
0	37	2
36	36	5
168	169	4
165	165	4
44	44	4
2	3	2
114	115	1
19	20	6
85	85	4
81	81	2
16	88	2
49	50	3
138	139	5
124	124	4
102	102	6
74	99	1
129	131	2
76	78	1
21	22	1
18	18	3
2	110	2
76	82	2
19	19	7
51	82	4
22	23	2
63	64	3
90	91	6
158	158	3
164	165	2
120	146	2
129	129	2
101	101	5
41	72	1
124	129	2
4	4	7
139	144	2
125	126	1
147	148	5
57	65	1
71	84	1
22	22	4
167	167	5
158	167	1
78	79	1
11	159	1
110	110	4
145	145	6
45	57	1
68	68	2
91	91	5
106	106	2
120	136	3
99	99	9
149	150	3
166	169	3
146	146	5
0	2	2
36	37	3
17	21	3
34	34	6
125	158	1
12	17	1
1	2	2
156	157	4
115	117	3
27	27	7
155	155	2
96	97	2
133	135	1
45	45	3
69	70	4
26	27	3
40	87	1
112	116	4
105	117	3
98	98	1
20	20	2
67	68	3
135	135	7
144	147	1
160	160	4
132	134	2
56	56	3
158	159	2
86	87	2
104	105	1
82	87	3
23	24	2
97	98	3
90	116	1
38	41	4
14	159	2
34	36	1
17	18	2
162	163	1
39	39	3
3	7	1
157	168	1
49	51	1
77	79	2
14	142	3
40	40	1
52	53	2
100	100	5
159	160	2
24	24	3
57	57	2
91	116	4
53	120	1
24	25	2
68	70	2
52	52	3
155	156	2
37	53	2
132	132	2
137	143	2
11	12	3
37	38	1
1	65	1
45	145	2
153	169	2
13	16	2
4	5	2
18	19	1
107	108	2
106	136	1
24	47	1
108	109	1
87	115	1
11	11	3
15	16	6
14	156	1
143	143	2
152	152	1
13	18	1
37	119	1
98	99	3
56	57	1
51	52	3
150	168	1
129	135	1
136	145	3
33	35	1
137	138	1
162	164	1
84	85	1
153	160	2
113	116	1
133	133	5
140	141	1
167	168	2
166	167	1
166	168	2
121	121	1
33	33	1
138	138	5
5	6	3
64	67	1
105	107	3
51	51	1
38	53	2
116	117	2
17	47	1
9	10	1
144	153	1
85	87	1
150	165	1
122	123	1
117	118	1
15	23	1
19	24	1
73	74	1
135	137	1
14	111	1
67	84	2
95	96	1
74	75	2
130	132	1
67	69	1
73	85	1
73	77	1
67	67	1
121	146	1
