68	68	19
67	68	4
38	39	2
73	74	10
26	33	3
71	77	2
83	83	5
63	63	9
45	45	4
38	38	15
84	84	11
57	63	2
62	74	3
63	68	3
46	53	2
72	72	3
71	71	19
92	97	5
40	42	1
86	89	8
41	42	3
26	69	3
29	29	10
36	36	4
74	74	12
95	96	5
42	42	2
37	37	9
36	40	3
33	33	16
41	41	9
49	50	2
54	72	5
85	85	7
76	76	10
49	49	8
75	75	16
44	79	4
97	97	5
63	69	3
81	81	4
95	97	3
62	62	6
51	51	11
78	78	10
67	99	1
68	75	2
96	96	9
65	65	26
71	78	1
90	90	2
86	88	6
93	93	13
73	77	1
63	64	6
49	64	1
69	70	7
70	70	6
62	71	2
87	87	12
30	30	2
54	58	2
26	26	3
94	101	3
26	32	1
55	69	3
23	23	7
31	73	2
79	80	5
62	63	3
65	75	2
59	59	5
80	89	2
61	61	16
24	24	3
83	85	2
63	80	7
37	77	1
91	91	3
35	35	10
25	43	3
70	79	1
55	73	2
86	90	3
20	20	3
85	86	10
53	53	6
36	37	5
101	101	9
60	60	5
58	61	3
67	67	6
60	95	5
46	50	3
71	72	2
48	48	14
66	66	7
61	62	11
86	86	7
60	64	2
72	76	2
46	46	4
67	72	2
31	32	1
69	73	1
99	99	3
70	89	3
92	99	1
89	89	8
65	66	4
43	47	1
84	91	1
68	87	4
58	62	2
25	25	7
86	87	3
98	98	4
55	55	9
41	72	2
66	67	2
92	94	4
56	56	3
83	84	3
69	69	10
85	99	3
26	59	1
26	58	3
88	88	14
22	22	4
81	94	2
97	99	2
84	98	3
39	39	2
58	59	3
32	32	2
52	52	9
88	101	2
95	98	3
80	80	8
22	24	1
68	69	1
29	32	1
94	102	2
51	52	3
25	55	2
55	97	2
90	91	4
64	64	13
33	50	2
84	88	2
95	95	6
29	30	3
82	83	1
59	66	3
44	44	5
84	100	2
27	27	3
45	49	2
54	55	1
54	54	4
60	98	1
66	69	1
73	76	1
40	40	4
51	54	2
43	43	5
42	51	4
84	86	5
74	75	2
55	81	1
94	94	1
31	31	1
27	62	1
77	77	1
77	78	1
73	75	2
72	74	1
55	57	1
57	58	3
99	100	3
72	73	3
55	101	1
47	47	2
33	34	1
78	80	1
81	95	1
45	48	1
57	57	2
85	89	1
56	80	2
60	68	3
52	54	1
92	92	3
64	73	2
48	49	1
28	30	1
57	69	2
92	98	3
84	89	2
70	87	3
22	23	3
63	72	3
28	53	1
56	57	3
51	53	4
70	71	2
93	96	3
89	90	1
92	100	1
57	62	2
55	56	3
48	50	1
28	28	1
93	102	2
20	50	3
27	74	2
20	46	2
42	54	3
44	51	2
50	50	3
64	66	2
98	102	2
95	100	2
87	88	2
69	80	1
73	73	1
66	87	2
54	60	1
27	42	2
73	78	1
41	70	1
28	29	1
87	92	1
59	101	2
46	47	1
94	98	1
80	87	1
58	58	2
67	71	1
44	47	1
80	81	1
43	49	1
80	86	1
81	82	1
26	66	1
72	88	1
96	97	1
66	81	1
78	85	1
20	22	1
81	88	1
71	73	1
27	28	1
