59	77	5
58	60	6
22	71	6
27	30	2
53	53	14
76	78	13
55	56	2
122	122	1
25	41	4
18	18	9
71	113	10
67	68	1
117	117	4
35	35	7
11	11	4
92	92	2
48	48	7
72	75	2
11	28	2
93	95	1
104	104	5
78	78	5
124	138	9
88	91	4
16	16	8
142	142	13
106	131	3
8	8	1
24	35	3
125	128	5
103	103	7
13	29	3
89	116	6
126	127	4
36	36	9
102	102	4
40	40	13
13	13	7
66	67	5
54	54	15
50	50	2
99	99	3
124	126	1
136	140	2
43	71	6
73	84	2
37	37	5
23	23	6
29	29	8
101	101	8
50	84	2
66	84	2
1	38	2
49	49	10
143	143	3
39	40	2
62	63	3
70	70	2
52	54	2
87	88	1
26	34	3
38	38	12
103	107	1
131	131	12
130	130	1
144	144	4
138	138	3
98	103	5
43	43	7
98	99	4
104	105	1
88	88	3
17	85	7
31	38	2
6	6	4
28	28	3
23	49	3
106	112	3
60	60	5
58	125	1
23	73	3
68	68	3
79	79	5
8	40	4
67	67	8
25	34	2
36	53	4
97	97	8
4	27	2
120	120	2
95	100	3
22	22	4
125	133	7
110	141	1
15	15	9
91	93	5
37	41	1
57	70	2
65	84	3
128	144	2
97	103	7
31	32	2
132	143	5
51	51	5
12	12	2
49	57	1
100	101	2
112	113	2
91	91	3
59	64	7
94	117	1
94	94	4
91	115	2
105	105	3
135	137	2
106	106	1
57	62	3
70	110	1
77	123	2
125	130	1
13	27	1
87	100	2
103	125	2
9	9	3
133	133	5
75	75	4
72	72	5
95	95	1
134	134	3
134	139	1
85	86	4
115	135	1
61	61	3
125	125	5
84	85	3
64	64	1
146	146	3
68	105	2
140	140	1
105	107	1
69	111	4
97	98	6
76	76	2
9	10	2
55	77	4
25	31	1
82	82	5
139	139	5
11	23	4
30	32	3
108	108	10
121	126	3
101	109	5
96	96	4
99	129	5
102	130	1
41	41	3
61	122	3
126	126	1
105	125	2
49	50	1
68	101	3
31	31	3
135	135	2
75	82	2
98	105	1
1	1	3
52	57	1
23	65	2
70	72	2
102	133	2
69	113	2
36	54	4
59	79	2
136	137	1
81	81	3
68	143	2
0	0	3
58	104	2
17	17	1
83	83	1
90	116	6
20	20	2
17	21	1
42	42	8
116	117	1
115	115	1
112	132	1
107	107	1
88	102	1
0	27	2
134	138	2
27	27	4
133	143	1
28	29	3
22	42	3
119	120	1
82	83	2
49	66	4
100	100	2
112	112	4
67	101	1
80	114	1
59	59	1
28	82	4
139	140	3
35	49	2
60	63	4
70	71	1
51	52	3
3	122	1
51	54	3
1	31	6
32	37	2
90	90	3
116	118	2
21	21	2
120	121	3
52	53	1
100	127	3
23	41	2
47	47	3
14	21	1
145	145	3
24	50	3
34	34	1
120	137	2
83	84	3
128	140	1
62	66	2
121	128	3
73	83	1
24	51	4
20	27	1
18	19	1
3	74	1
98	101	2
132	132	6
4	4	6
86	86	2
22	27	2
17	82	2
32	38	1
127	127	4
58	115	1
77	77	9
10	30	2
94	116	1
114	114	6
18	82	3
113	113	4
111	111	2
65	66	2
25	37	1
35	52	4
84	84	2
61	72	1
141	141	1
55	116	1
80	81	4
62	122	3
138	140	2
70	84	1
128	145	3
29	30	1
39	39	4
48	50	2
96	97	2
17	28	2
1	37	1
69	69	5
85	132	1
22	72	1
104	106	1
42	87	1
71	71	1
92	93	2
79	80	2
141	142	3
5	32	3
36	52	2
101	129	3
74	76	1
1	13	1
20	37	2
19	29	3
2	2	6
87	132	1
93	118	2
119	119	3
24	25	3
52	61	2
19	19	1
107	109	2
106	107	1
121	121	1
96	129	2
0	43	2
74	74	2
70	112	1
97	125	3
87	123	2
16	27	2
32	32	4
56	123	1
4	5	2
102	131	1
141	144	1
124	129	3
23	61	2
98	98	1
64	65	1
90	95	1
114	116	3
89	90	1
30	33	3
127	128	2
61	65	2
134	140	1
60	109	1
66	66	1
99	100	1
15	43	1
104	111	1
59	80	1
41	50	2
20	30	1
128	128	1
10	10	1
136	136	1
35	51	1
