36	38	3
61	62	4
50	71	9
31	33	1
32	52	4
27	27	9
23	23	6
65	65	6
1	2	2
22	52	5
42	64	2
76	77	7
43	45	12
48	50	2
10	10	5
20	47	5
3	8	2
72	72	2
41	41	5
56	61	1
22	53	2
21	21	2
49	50	2
69	74	2
70	70	8
14	26	1
42	70	7
68	68	14
34	36	5
37	50	4
55	55	9
42	42	4
39	40	1
70	76	2
44	44	8
7	14	2
25	51	2
36	56	2
11	51	2
44	45	9
60	74	7
50	50	10
2	9	1
54	54	8
12	12	7
42	68	5
20	20	4
20	46	4
50	51	5
47	47	13
59	59	9
26	52	1
75	75	8
70	71	4
50	57	1
2	2	10
69	69	10
0	1	1
11	11	9
22	37	2
32	32	2
60	61	4
74	76	3
30	64	5
73	73	4
51	59	9
0	9	3
36	48	3
3	3	9
12	13	3
37	40	6
48	48	4
56	72	1
77	77	1
74	74	1
24	48	1
33	33	6
4	5	3
24	42	2
30	51	1
34	38	2
57	69	2
22	22	1
30	52	3
28	33	2
31	31	5
76	76	8
59	62	2
67	67	10
12	19	1
55	72	1
54	55	3
64	65	3
31	64	2
18	30	2
27	49	4
65	67	2
8	8	5
24	24	3
47	48	1
4	4	2
38	38	3
61	61	2
0	3	1
67	75	2
15	30	1
53	54	5
51	51	9
30	30	3
53	59	6
36	40	2
63	65	2
43	43	1
13	14	3
45	45	1
57	57	6
1	7	3
6	26	3
34	61	5
19	19	1
56	57	1
39	41	1
3	4	4
0	0	2
36	51	2
65	66	3
2	8	3
46	46	6
32	38	2
2	12	2
19	47	1
60	76	1
63	63	3
53	55	2
6	7	5
25	26	6
29	29	4
34	50	2
40	40	5
29	30	3
62	75	1
19	20	1
67	68	1
6	8	2
19	50	1
4	11	4
37	58	2
36	42	1
35	48	2
39	39	3
37	37	2
52	52	4
26	26	3
4	8	1
61	72	2
0	44	2
26	32	4
73	75	6
62	63	7
41	56	4
28	47	1
7	7	2
5	5	1
62	62	1
35	35	1
60	60	1
7	26	2
36	50	2
25	25	1
48	56	2
28	29	2
49	49	4
47	49	1
48	57	1
24	67	2
51	67	1
14	14	1
58	68	1
23	31	1
42	58	1
5	8	1
65	71	4
24	31	2
11	44	1
0	11	1
41	42	1
1	1	1
66	66	1
27	41	2
20	50	1
54	59	1
41	51	1
47	59	1
18	19	3
58	66	2
35	43	1
41	43	1
49	68	1
22	38	1
71	71	2
23	25	1
20	45	1
0	5	1
66	67	1
3	5	1
52	56	1
2	10	1
57	68	1
32	33	2
36	36	2
42	55	1
53	60	1
63	67	1
31	49	1
58	58	1
6	9	1
