3	12	1
101	101	13
113	113	13
93	93	23
41	41	12
111	112	6
132	132	9
98	98	16
37	37	8
10	25	4
69	69	4
61	61	8
58	59	6
97	97	7
11	11	7
11	33	6
112	112	7
123	123	8
49	49	17
5	5	6
96	96	15
24	24	6
141	141	6
60	60	12
16	16	14
58	58	12
64	118	3
116	117	2
140	141	5
20	20	14
83	83	6
22	22	6
96	101	2
100	115	1
48	48	10
133	133	5
92	92	6
131	131	5
26	26	8
48	49	3
95	95	8
13	13	13
19	20	2
100	100	10
43	73	1
18	18	15
9	10	5
68	68	9
51	51	11
51	92	2
35	35	17
92	93	3
65	65	15
91	91	8
29	97	2
42	42	2
71	71	13
110	111	1
4	4	21
126	126	10
21	21	11
101	140	1
115	115	8
20	25	3
89	89	17
40	40	17
95	102	1
8	9	1
27	27	10
110	110	2
111	111	4
30	30	17
104	104	6
105	105	3
59	59	4
139	140	4
91	101	1
142	142	3
124	127	4
109	110	3
5	6	7
32	32	14
66	66	7
77	102	2
33	33	4
70	70	14
94	94	6
140	140	20
28	28	10
121	121	10
10	10	4
136	136	6
122	122	3
75	75	14
92	118	2
39	40	3
135	135	11
145	145	8
113	116	2
58	100	2
137	137	7
29	29	9
131	132	4
88	89	5
87	88	1
130	131	2
84	84	3
15	15	1
128	128	4
67	67	4
1	35	1
4	35	2
34	34	7
86	86	1
121	125	1
88	88	7
109	109	1
78	78	12
124	124	7
136	138	11
62	111	1
72	72	2
114	114	3
55	55	10
100	117	1
73	73	5
104	105	2
2	3	2
129	130	2
53	53	16
2	16	2
57	57	3
12	37	2
99	99	2
71	72	9
75	91	1
3	4	3
74	74	15
74	75	1
107	108	2
134	135	3
101	141	1
82	82	6
97	99	1
55	56	2
87	87	9
56	57	1
2	2	5
25	25	8
14	14	4
134	137	4
63	111	2
86	88	3
62	62	4
144	144	1
52	52	4
23	23	6
24	26	3
65	120	4
27	28	2
11	83	2
1	1	4
85	85	6
129	129	4
116	116	3
103	109	3
138	139	1
70	74	3
107	119	1
119	119	17
50	50	2
118	118	9
69	71	7
113	114	2
112	114	1
138	138	3
62	99	3
139	139	4
62	63	2
50	88	1
64	117	2
145	146	3
137	138	4
105	106	1
118	119	4
11	13	9
0	0	6
54	54	4
11	81	3
38	38	13
63	63	4
68	69	3
18	24	2
65	140	3
77	77	5
100	108	3
128	130	1
138	140	3
96	99	1
117	117	7
34	37	4
80	82	1
90	90	4
8	22	3
64	64	3
101	138	1
143	143	1
146	146	4
127	130	6
80	80	3
69	70	2
127	127	12
2	6	2
125	131	2
74	86	2
10	19	1
80	85	2
35	37	1
22	25	1
81	81	8
19	19	1
34	120	3
79	79	2
110	125	1
70	85	4
106	107	8
39	39	10
14	15	2
78	79	4
8	12	2
100	125	3
142	144	1
76	92	2
103	103	8
124	125	1
38	94	1
94	95	2
76	76	4
15	16	2
120	120	3
106	106	4
74	76	2
41	42	2
142	143	5
36	36	5
0	1	1
31	32	1
8	8	2
70	72	2
5	7	2
78	89	1
56	58	3
43	43	3
109	115	1
89	90	2
57	99	2
121	122	2
64	119	3
101	102	5
73	123	2
74	124	2
77	95	2
9	21	1
9	9	2
102	102	4
6	6	6
83	84	2
20	22	3
73	127	3
12	13	1
104	123	6
84	85	5
107	107	3
17	27	1
53	60	5
72	73	1
17	17	2
22	30	1
5	10	3
128	129	2
21	22	2
67	74	1
53	90	1
52	92	5
6	8	2
90	93	1
61	66	2
108	108	2
81	82	1
65	66	1
60	91	1
66	133	1
38	39	1
125	137	1
108	115	1
5	9	1
27	31	2
60	61	2
74	106	1
56	109	1
20	27	1
0	33	2
42	72	1
101	139	2
48	122	1
19	21	1
74	104	1
108	109	1
119	120	2
59	61	1
113	127	1
112	116	1
28	40	1
125	130	1
8	10	1
132	133	1
34	35	1
8	11	1
54	55	1
56	56	2
124	126	1
28	98	1
50	146	1
81	83	1
96	98	2
59	60	1
59	91	1
64	65	2
63	113	2
122	123	1
3	14	1
105	113	1
96	140	1
10	27	1
1	43	1
36	40	1
125	125	2
69	72	1
126	128	1
108	130	1
3	3	1
130	130	1
49	50	1
123	124	1
