127	127	12
2	2	2
135	135	2
148	149	2
168	169	3
169	171	3
137	137	14
41	41	3
107	107	5
159	159	18
131	131	12
166	166	11
115	115	7
60	61	3
111	111	5
68	68	10
170	174	1
121	148	3
55	61	4
78	124	1
173	173	11
114	114	23
63	63	7
123	125	8
53	116	2
123	123	6
141	143	4
169	169	8
52	133	2
132	132	21
72	139	3
76	76	4
67	171	5
14	15	1
16	37	5
67	67	5
171	172	3
122	122	17
121	121	13
175	176	9
104	106	7
98	98	6
106	106	12
63	64	3
132	133	11
164	165	3
65	177	2
60	164	3
138	139	2
53	53	10
150	150	16
89	89	1
61	61	9
77	77	7
65	171	2
106	107	12
29	30	2
170	170	6
80	80	14
74	74	19
31	31	14
110	110	10
170	171	3
52	53	3
126	126	3
164	164	6
153	171	4
174	175	2
2	12	1
160	163	5
108	108	9
74	121	4
60	174	6
51	131	2
119	121	6
30	30	11
78	78	7
26	27	5
123	124	5
138	138	2
157	157	6
149	150	6
60	159	2
86	87	4
107	112	2
126	131	2
112	112	10
64	64	3
27	30	2
102	105	1
50	142	1
104	105	6
126	135	4
6	13	7
100	100	7
54	54	5
120	121	1
136	136	16
147	154	2
105	107	3
176	176	21
73	75	7
22	22	4
158	158	14
165	165	8
52	63	3
99	113	4
133	134	1
113	114	1
71	74	2
53	180	3
71	71	17
97	97	5
9	9	3
2	3	2
30	126	5
8	17	2
163	164	2
87	159	4
79	79	5
174	174	10
51	64	3
15	35	5
141	141	14
149	154	1
156	157	1
10	45	1
25	27	4
20	20	7
89	127	2
74	112	5
90	90	7
125	134	4
87	88	5
72	76	6
152	154	2
51	51	2
148	148	9
65	65	9
87	164	3
52	139	2
117	117	7
19	19	4
40	41	4
2	6	2
134	134	8
158	161	2
146	171	2
10	10	7
107	108	4
15	15	13
102	111	3
66	134	1
34	34	5
87	87	5
172	172	7
85	85	12
154	154	17
45	45	4
13	13	6
162	168	3
13	23	1
82	82	1
114	148	2
37	37	13
72	72	7
153	153	12
146	146	8
122	137	5
38	39	2
118	118	9
147	158	1
115	116	4
175	175	5
84	91	2
140	144	3
144	144	7
152	152	6
122	131	2
62	63	1
104	108	6
150	153	2
58	61	5
56	56	3
73	73	3
157	158	6
4	38	3
140	140	17
177	177	3
105	105	4
170	173	5
58	170	1
60	60	10
163	163	7
55	55	2
100	102	1
98	99	3
55	56	9
8	18	4
2	5	1
99	101	2
54	62	2
125	125	11
4	39	4
161	161	2
74	101	2
139	139	7
130	130	6
154	155	4
156	156	5
41	42	3
59	60	7
162	162	8
26	32	3
93	93	1
21	21	4
54	56	1
111	118	4
142	145	1
85	86	1
71	94	2
10	89	4
50	50	4
167	176	7
114	115	9
134	135	4
120	157	7
5	15	1
71	81	2
168	168	6
0	0	5
126	127	1
37	38	2
75	77	3
125	145	2
165	166	3
18	18	2
143	143	3
75	75	5
43	88	1
16	16	4
123	131	2
80	90	1
119	120	1
49	49	1
7	7	2
151	151	2
121	122	4
147	151	1
142	142	5
57	61	2
95	95	6
29	43	2
113	113	2
120	120	3
83	159	1
6	6	4
105	143	3
9	13	2
44	52	1
159	162	1
147	152	2
35	35	11
81	96	1
95	96	3
62	115	1
112	116	1
133	137	1
153	154	3
108	140	2
14	14	9
84	84	1
124	125	4
49	50	2
142	143	3
40	40	5
18	21	1
60	163	2
162	163	2
88	89	3
55	58	3
54	61	1
97	101	3
62	62	6
131	136	1
44	46	3
57	59	6
79	80	3
146	159	1
57	58	3
169	173	2
32	36	3
111	112	4
139	141	1
72	88	1
79	81	2
31	32	4
77	137	7
149	156	4
51	66	3
131	179	1
81	81	5
82	114	1
122	124	2
171	171	3
102	155	2
178	179	4
104	104	8
167	168	2
28	43	2
53	54	1
10	28	2
110	111	3
23	23	3
92	93	1
128	128	3
26	26	2
1	4	1
101	111	1
42	42	3
110	112	5
3	3	6
19	20	5
56	57	6
55	170	3
57	57	4
39	39	4
101	101	1
102	104	1
180	180	2
68	70	2
166	168	3
152	158	2
56	61	5
96	98	1
109	109	3
118	120	2
83	86	4
92	92	3
4	4	1
23	26	1
59	62	2
98	102	1
129	129	1
99	99	1
75	100	2
96	96	4
155	156	6
36	36	6
118	155	1
30	31	1
122	123	2
16	33	1
119	119	3
147	153	1
24	26	1
159	171	2
58	62	1
177	178	1
84	86	2
124	179	2
149	149	3
103	105	1
61	159	2
25	25	5
172	174	1
166	167	2
105	159	4
77	107	1
17	17	2
54	59	3
1	1	1
43	87	1
133	133	4
160	161	1
117	120	2
147	147	1
58	63	3
159	170	2
160	160	1
141	145	2
73	100	2
97	98	1
113	150	2
135	136	2
45	61	1
0	1	3
66	66	2
127	128	2
53	141	2
140	141	1
23	25	1
116	116	1
60	166	2
83	83	2
155	155	3
93	94	1
74	122	2
59	159	2
117	121	1
90	93	2
109	161	1
67	177	1
106	166	2
9	21	1
150	151	1
74	75	2
102	102	1
12	19	1
173	174	1
54	63	2
149	157	1
8	8	1
43	86	2
26	28	2
145	145	1
38	40	1
85	87	1
119	157	1
39	40	3
143	144	2
112	113	1
77	78	1
10	11	1
42	66	2
1	41	3
139	140	2
179	180	3
86	86	3
81	93	2
107	110	1
59	59	2
107	165	2
38	38	1
148	158	1
125	126	2
112	115	1
32	33	1
54	174	3
32	32	2
99	156	1
78	179	1
59	164	1
22	26	1
103	103	1
87	162	1
6	7	2
96	99	2
68	83	1
65	172	1
67	90	1
77	135	1
101	104	2
67	68	1
76	78	1
168	172	1
43	116	1
62	159	1
89	90	1
179	179	1
94	94	2
68	76	2
62	161	1
5	9	1
58	59	2
144	145	1
84	163	1
18	37	1
151	157	2
19	21	1
35	39	1
33	33	1
72	100	1
151	172	1
25	26	1
25	45	1
58	58	1
167	167	1
5	8	1
107	146	1
66	67	1
132	135	1
7	11	1
76	79	1
118	121	1
138	141	1
60	161	1
