29	54	2
123	123	5
113	113	4
149	150	1
40	40	6
142	142	4
30	30	6
82	83	1
100	100	3
109	110	2
136	136	9
105	105	2
77	82	6
70	70	3
146	146	4
5	25	2
98	98	11
125	125	4
50	51	3
66	67	5
24	24	10
5	5	8
139	139	4
10	18	2
57	57	4
65	121	2
67	93	2
46	46	3
147	148	8
74	74	6
94	95	7
5	53	3
4	51	1
86	86	5
52	52	2
137	137	12
84	84	7
154	154	6
99	99	8
145	147	1
4	5	8
105	111	5
39	40	4
56	56	9
64	91	2
53	53	8
36	36	5
17	17	2
50	52	4
26	26	2
16	16	4
120	120	7
81	81	2
63	63	3
10	11	5
11	11	6
107	107	11
151	151	8
39	39	12
95	95	2
115	115	1
113	138	1
94	94	6
10	49	2
48	55	3
150	150	7
14	14	11
55	55	3
104	108	6
92	92	8
26	41	3
73	73	3
48	48	2
107	108	2
25	25	3
134	134	4
122	122	3
97	97	3
103	115	2
33	33	8
144	144	4
36	37	2
85	86	5
136	137	4
8	10	1
32	32	3
123	124	8
74	75	1
9	85	2
104	104	5
131	132	3
43	43	1
75	76	3
8	9	1
28	29	5
104	107	1
2	2	1
80	80	4
9	9	4
117	135	4
78	81	3
24	53	3
67	74	2
145	145	2
115	116	5
62	85	2
33	34	1
41	42	1
23	24	2
4	4	3
108	109	6
137	146	3
78	79	1
95	98	4
69	69	7
149	149	1
113	136	1
104	118	3
118	136	3
63	75	2
32	33	1
103	103	4
85	85	1
47	47	3
123	127	3
78	78	3
117	117	1
115	117	1
102	102	8
104	112	1
11	12	5
38	39	3
100	109	3
10	10	3
150	151	4
104	111	2
106	106	4
41	41	4
111	111	4
128	147	2
83	84	4
35	36	1
31	32	3
66	66	5
141	141	6
9	20	2
27	56	2
133	133	1
67	99	1
8	21	1
130	131	1
68	68	10
50	50	11
107	137	1
141	154	5
129	129	1
54	55	2
17	50	1
24	55	1
6	6	2
28	28	2
64	64	2
96	97	2
13	13	3
148	148	3
76	76	2
135	135	5
132	132	4
43	46	4
3	42	3
112	130	3
6	7	3
51	51	1
110	110	3
82	101	2
29	42	3
18	18	2
67	67	5
79	79	4
71	71	1
138	138	2
27	38	1
153	153	4
103	119	1
20	20	5
21	21	3
22	22	4
34	34	2
8	8	1
130	130	1
10	36	2
44	44	2
76	80	1
17	18	1
143	143	2
16	29	2
4	26	2
27	27	2
115	139	3
26	27	2
34	97	2
20	21	2
140	140	3
109	109	1
131	131	4
94	98	2
120	122	1
94	138	2
50	55	2
137	138	4
12	22	1
108	108	2
80	81	3
143	144	3
49	49	2
45	45	3
15	15	4
31	31	1
119	119	2
27	42	2
45	92	1
13	15	2
16	31	1
82	102	2
53	56	1
26	51	1
109	111	2
18	19	1
110	128	1
29	29	3
42	43	1
37	37	3
49	51	1
5	11	1
100	102	2
147	147	1
44	77	1
22	23	1
24	25	1
75	77	1
27	28	1
106	118	1
139	143	1
68	69	1
128	129	3
12	12	1
102	103	1
111	147	1
13	14	2
70	71	2
106	121	1
83	83	1
114	144	1
35	35	2
53	57	1
110	115	1
64	65	1
65	65	1
89	89	1
38	98	1
69	79	1
75	75	1
11	25	2
6	22	1
24	39	1
65	72	1
77	77	1
