93	93	7
10	11	2
3	4	3
2	2	11
19	19	4
8	38	4
16	16	11
75	75	17
125	125	8
130	130	6
67	67	7
45	46	3
87	122	2
120	120	9
9	45	1
34	34	14
86	86	2
57	57	6
132	134	2
128	129	1
129	129	1
108	108	2
4	4	4
12	12	8
59	59	2
79	79	7
91	93	1
45	67	2
87	87	6
80	102	4
37	84	2
105	105	8
118	118	7
117	117	6
61	62	2
81	81	3
127	129	4
23	23	1
58	83	1
123	124	1
92	92	1
114	115	2
121	121	3
65	65	3
84	84	12
114	114	9
47	47	4
43	43	1
111	111	2
46	46	5
94	95	3
110	112	8
104	115	4
95	95	5
62	62	13
60	60	4
17	17	17
97	97	6
44	44	3
35	35	3
97	107	3
63	63	5
29	29	2
59	80	1
12	13	1
95	96	3
22	22	2
55	55	4
101	102	2
29	30	3
82	82	6
70	70	3
69	69	10
4	86	4
101	105	2
7	35	1
66	66	4
3	3	4
106	106	4
126	127	1
1	1	3
45	45	9
56	56	2
43	44	9
72	72	5
7	34	4
95	98	4
7	7	1
9	10	2
39	39	5
94	94	4
21	21	6
91	91	7
6	7	1
8	8	6
89	89	1
128	128	4
103	103	3
115	115	2
61	119	1
121	122	5
121	126	1
57	96	2
9	9	3
76	76	6
77	78	1
116	116	5
32	33	3
85	86	4
24	24	2
13	13	5
78	78	8
28	30	1
107	107	8
131	131	7
26	28	2
63	71	1
40	42	4
6	6	5
103	104	1
114	116	2
13	36	1
40	49	1
113	113	3
45	47	2
40	40	1
119	119	3
9	66	3
79	80	2
21	22	4
127	127	2
87	88	2
109	109	3
84	85	1
131	132	1
96	100	4
76	77	3
33	33	4
112	113	3
68	69	1
90	90	1
86	95	2
124	124	5
64	65	4
4	37	1
68	68	5
122	122	4
101	106	2
20	21	4
17	18	1
13	43	3
120	124	2
37	37	4
48	48	1
102	102	1
23	27	1
91	92	1
60	77	3
88	93	1
106	115	3
109	110	1
14	14	1
45	68	1
11	66	1
41	41	1
27	31	1
36	36	1
18	30	1
20	32	3
47	85	1
133	133	1
105	106	3
74	74	4
123	123	6
58	59	1
10	10	1
40	43	2
46	47	1
57	78	1
110	110	2
60	61	2
15	16	1
82	83	2
97	98	1
39	50	1
132	132	1
0	0	1
23	24	1
83	83	3
23	25	3
118	119	1
18	18	1
77	77	1
131	134	1
86	87	1
41	82	1
81	83	2
90	120	1
11	11	4
61	65	2
74	75	3
75	76	1
85	85	1
1	64	1
102	104	1
57	79	1
62	119	1
27	27	2
30	30	1
83	84	1
33	34	2
134	134	1
57	58	1
18	32	1
58	81	1
42	42	1
99	100	1
46	74	1
37	85	1
14	29	1
37	38	1
20	20	1
