28	28	3
129	129	1
69	70	3
121	122	6
40	41	1
99	100	3
99	101	2
58	58	8
17	22	3
21	21	2
62	62	2
76	76	2
72	73	2
128	128	1
63	123	1
99	99	2
42	42	8
6	6	5
26	26	5
82	83	6
65	65	10
55	55	4
115	115	3
105	105	7
15	15	5
93	110	6
119	119	2
103	103	4
82	82	9
87	108	1
22	31	3
62	120	2
95	129	4
5	6	1
77	107	3
83	83	6
113	113	4
64	64	4
66	66	6
130	131	2
36	47	1
127	127	1
68	68	3
110	115	3
102	102	9
88	88	1
63	121	2
100	100	6
100	122	2
31	36	3
108	109	1
106	106	7
29	29	3
12	12	8
57	57	2
20	27	2
84	84	1
123	124	4
132	133	2
113	134	1
94	116	1
98	100	1
77	77	4
103	104	4
117	117	4
11	11	3
95	98	1
9	9	2
102	103	1
91	114	1
69	69	4
1	1	3
98	98	7
110	110	7
116	116	3
130	130	4
111	113	1
78	78	4
27	56	3
125	125	8
88	89	2
97	97	1
46	59	4
114	114	1
36	36	4
86	86	3
61	91	1
43	43	1
4	4	4
111	111	4
72	72	2
116	133	3
17	19	1
41	59	1
63	63	4
32	47	1
44	44	4
61	95	2
13	13	3
121	121	1
32	33	9
88	90	1
18	18	2
91	96	4
40	40	4
5	5	6
91	91	3
74	74	3
131	131	2
4	13	2
118	118	7
122	122	6
20	56	2
16	49	2
30	30	4
104	104	1
82	109	3
34	34	7
39	39	1
29	30	3
79	79	1
120	120	6
3	3	1
62	119	1
34	61	3
112	112	3
124	125	1
75	75	3
78	107	2
87	90	3
117	133	1
69	74	3
75	76	1
2	2	3
33	33	1
95	121	2
79	81	1
106	107	1
6	12	1
97	124	2
96	96	2
2	3	2
3	9	1
68	72	1
108	108	1
121	124	2
19	59	1
22	42	3
134	134	4
89	90	1
132	132	6
100	107	1
23	23	2
39	55	3
22	22	1
90	98	2
82	108	2
7	7	2
4	15	2
110	114	1
121	123	3
64	120	1
28	55	3
124	124	2
115	131	1
94	94	3
97	99	1
17	60	1
107	107	1
60	61	1
46	46	1
87	87	1
133	133	1
29	39	2
14	14	3
123	123	2
28	40	3
71	71	2
16	60	1
74	75	1
24	30	1
81	83	1
24	24	1
62	64	1
73	74	1
21	56	1
56	57	1
44	45	1
87	101	1
31	31	1
92	92	1
19	19	1
89	89	1
81	81	1
17	29	1
61	92	1
49	49	2
16	16	2
122	123	1
35	35	1
101	101	1
111	112	1
95	95	1
101	103	2
128	129	1
46	47	1
113	114	1
30	32	2
47	48	2
14	15	1
94	111	1
94	110	1
109	109	1
85	86	1
94	95	1
31	34	1
31	32	1
120	129	1
126	126	2
131	134	1
115	133	2
114	131	2
67	67	1
6	43	1
118	120	1
126	134	1
113	125	1
42	43	1
67	74	1
17	17	1
8	8	1
63	67	1
70	83	1
