117	117	5
114	139	4
123	123	4
135	135	6
0	33	3
1	24	1
127	127	6
24	31	1
82	82	9
72	72	6
102	102	1
49	61	2
58	58	8
58	59	2
108	110	4
109	109	3
20	20	6
10	25	5
67	68	3
124	124	4
55	64	2
108	109	2
105	105	3
140	140	3
29	29	2
114	136	3
71	91	4
118	120	4
22	27	6
95	95	5
120	120	8
141	141	4
40	40	5
138	139	4
28	28	1
116	120	3
55	62	1
1	4	2
51	52	4
15	38	1
24	24	4
91	91	6
114	114	1
91	92	2
54	54	4
126	126	11
8	23	4
115	115	2
38	38	3
31	32	1
4	6	6
53	54	2
80	114	1
140	143	3
67	70	5
83	88	2
37	37	4
63	63	7
97	98	1
117	135	2
9	14	2
118	119	2
80	95	3
89	89	4
46	50	2
129	129	2
130	143	1
138	138	3
79	91	5
125	125	5
111	119	5
62	62	5
18	18	1
103	103	5
70	70	7
19	19	8
69	69	5
99	119	5
5	5	4
15	16	9
96	107	3
118	122	5
72	73	2
31	36	1
37	53	2
90	90	2
119	139	5
2	2	2
6	24	3
71	73	2
21	21	2
10	10	8
66	66	2
71	90	3
64	78	2
76	91	1
104	104	6
78	78	2
95	96	2
83	84	3
9	9	2
143	143	7
4	37	1
70	71	1
119	119	4
21	56	2
130	130	4
136	136	3
100	103	1
4	126	2
89	97	1
4	10	1
3	3	3
92	106	3
117	129	2
43	53	1
93	93	4
56	56	3
59	60	2
107	127	5
80	101	1
22	35	2
65	74	3
2	36	1
71	71	2
14	14	6
53	53	2
81	81	2
95	98	3
109	129	1
79	79	2
2	37	6
6	19	1
3	4	2
131	141	2
30	31	4
1	1	8
100	106	2
33	36	1
34	34	4
117	118	3
4	4	9
3	23	1
2	25	1
99	99	1
122	122	4
108	112	2
65	65	2
142	142	2
109	130	2
2	8	2
27	30	3
68	69	2
133	133	4
62	68	2
120	131	2
37	69	2
2	6	2
131	135	3
125	145	1
130	144	1
80	80	5
62	67	2
19	52	2
66	70	1
108	141	4
4	8	1
4	5	2
24	28	3
10	34	2
57	74	1
50	52	1
59	59	4
53	94	1
14	20	1
137	137	6
33	33	3
71	101	1
83	90	2
90	112	1
0	32	1
32	32	3
17	42	2
98	99	1
131	132	4
51	51	1
47	47	1
129	139	1
58	63	2
84	110	1
23	41	2
80	81	1
117	141	1
34	116	1
116	116	2
105	107	1
18	21	1
100	116	2
131	131	5
32	36	2
26	127	1
96	122	2
16	34	2
84	89	1
20	123	1
135	141	1
116	119	1
23	23	2
21	33	1
49	49	2
139	141	2
61	87	3
108	125	2
98	98	2
59	99	1
57	58	1
142	143	1
125	135	1
81	82	3
125	131	1
60	137	3
12	12	3
5	8	1
16	37	1
55	56	2
108	127	1
133	134	1
101	101	1
52	52	1
92	92	4
67	77	2
108	108	2
6	20	2
0	6	2
77	77	3
84	84	1
17	17	1
23	36	3
60	135	1
13	13	3
90	107	1
42	42	1
3	19	1
37	104	1
29	33	1
95	101	1
3	8	1
26	26	1
54	55	3
24	33	2
1	36	2
76	77	1
93	106	2
98	119	1
90	105	2
121	136	1
120	122	2
77	106	1
129	130	1
69	85	1
59	62	1
65	66	1
2	34	2
36	36	2
50	50	1
110	111	3
25	39	2
72	89	1
2	3	1
95	124	1
100	100	1
114	121	1
66	69	1
11	22	1
13	39	1
80	98	2
65	73	1
93	94	1
66	98	1
35	35	1
97	118	1
135	140	2
41	42	1
24	32	1
39	58	2
105	122	1
106	111	1
120	137	1
2	18	1
64	65	1
32	41	1
97	106	1
9	29	1
60	78	1
87	96	1
72	74	1
40	41	1
12	17	1
42	54	1
112	124	2
77	96	1
39	39	1
67	67	1
119	130	1
8	31	1
16	16	2
92	93	1
78	130	1
59	69	1
73	75	2
25	25	1
86	86	1
31	31	1
55	68	1
132	141	1
22	23	1
30	30	1
37	40	1
43	43	1
85	85	1
128	128	1
9	31	1
61	61	1
120	136	1
61	64	1
114	117	1
21	27	1
139	140	1
