87	88	5
77	78	12
30	30	8
225	225	13
53	54	10
176	176	23
89	89	9
97	98	2
214	216	2
155	156	5
120	120	3
34	35	5
95	95	2
56	56	15
197	197	17
109	110	7
25	26	6
230	240	4
237	237	15
59	107	5
221	223	11
224	224	9
80	80	11
153	153	3
247	247	3
186	186	16
187	187	19
30	31	4
175	175	26
218	220	8
201	207	6
166	167	6
60	60	13
168	168	21
192	192	5
92	92	11
170	171	4
241	241	9
175	176	18
58	58	18
181	181	19
160	161	2
96	97	9
230	231	5
71	74	4
240	240	6
83	83	8
29	29	2
10	10	9
110	111	2
152	152	8
6	6	6
45	45	13
233	233	6
9	9	7
245	245	23
189	190	6
119	119	5
5	102	2
173	173	14
12	12	20
51	53	5
211	212	1
84	85	4
98	98	6
217	217	12
180	180	7
76	93	5
211	211	11
15	15	4
108	108	16
241	242	2
7	7	10
14	14	11
234	234	2
232	233	4
195	195	6
239	240	6
112	115	5
183	183	8
206	206	9
176	178	7
104	105	4
178	178	5
5	5	19
200	200	7
216	216	8
229	231	7
69	142	1
228	228	7
99	102	5
179	181	7
205	213	1
106	106	2
80	84	4
196	198	2
14	15	5
74	82	2
40	40	6
191	191	21
52	52	9
192	193	2
242	242	11
223	223	9
202	202	20
74	74	8
56	57	12
221	221	11
80	81	1
175	201	12
194	194	3
37	114	10
8	46	4
57	58	11
105	106	5
85	154	3
55	62	1
230	234	4
207	207	8
64	64	16
72	72	4
200	203	1
222	223	8
242	243	4
41	41	13
86	89	2
116	116	15
74	75	11
214	214	7
34	34	7
200	205	2
54	54	14
180	182	2
246	246	21
144	144	2
152	162	1
190	209	4
193	220	1
57	57	17
1	1	5
37	37	5
214	215	5
185	185	15
117	117	5
4	4	11
26	27	1
52	200	3
228	229	4
79	80	8
73	75	3
85	86	3
229	230	2
182	182	21
115	116	8
167	212	2
115	115	11
196	196	10
154	154	6
2	3	4
209	209	7
107	107	28
108	109	5
86	86	10
187	190	9
82	82	15
167	167	7
174	175	2
41	115	4
237	239	6
85	90	2
147	147	4
18	19	4
111	111	6
43	44	5
171	171	5
222	222	5
54	55	2
217	218	5
146	162	6
68	68	4
117	118	7
235	235	4
197	198	6
203	204	13
157	157	6
90	90	5
189	189	8
70	70	7
220	220	16
8	8	10
243	243	8
61	62	13
7	37	3
119	120	3
219	219	7
204	204	10
176	177	5
234	236	3
42	42	14
163	165	2
194	208	4
158	158	5
79	79	13
223	224	4
162	162	4
38	38	1
179	179	13
28	28	8
118	118	13
217	232	5
100	100	10
238	238	16
59	64	5
193	193	5
98	99	8
11	11	14
15	16	2
101	102	8
54	113	5
165	167	1
96	96	5
33	116	4
1	11	3
113	113	3
78	82	10
225	226	3
36	36	2
23	23	4
209	219	2
23	24	1
38	95	2
78	78	4
155	155	6
244	244	8
69	72	1
99	99	6
46	46	6
49	107	2
22	24	4
34	116	2
38	39	5
241	248	5
218	226	2
191	219	6
17	18	1
61	61	9
47	51	1
114	114	3
55	55	9
185	212	4
164	164	7
100	101	8
4	5	3
19	19	6
188	190	3
172	172	14
103	104	5
94	94	11
221	222	3
226	226	6
184	184	9
164	165	1
231	231	9
22	23	5
174	203	1
220	222	1
73	74	3
84	91	3
67	67	3
201	201	4
201	212	3
196	197	2
22	22	8
205	205	8
42	153	1
33	34	2
70	71	3
185	186	8
107	109	1
231	233	2
2	2	3
82	83	3
62	62	12
208	208	8
247	248	4
156	156	6
213	213	4
99	101	4
177	177	10
109	109	5
16	16	5
197	200	3
230	230	5
232	240	3
32	32	8
79	89	2
172	203	6
87	87	3
45	46	4
244	246	4
40	41	8
86	87	2
166	166	2
167	168	3
38	96	4
68	69	2
193	194	3
159	161	2
66	66	5
75	75	13
170	170	6
203	203	11
44	44	5
150	150	6
59	60	6
73	73	8
215	216	1
169	170	2
112	112	9
91	91	8
57	61	2
87	89	3
171	172	2
44	156	1
58	59	2
234	241	2
76	77	4
99	236	2
48	103	1
92	117	3
102	236	2
193	212	1
226	227	3
248	248	7
98	100	1
41	42	2
47	47	11
192	209	3
186	192	3
35	35	8
113	114	4
151	151	13
51	51	5
35	114	4
209	218	8
88	88	2
39	40	2
225	227	4
27	27	8
152	163	4
192	210	1
212	212	6
21	21	8
96	98	4
82	85	5
4	240	2
111	112	4
216	217	7
101	101	8
181	182	5
238	239	6
71	71	5
63	63	11
173	174	4
161	161	2
167	169	2
198	200	3
49	197	4
20	20	7
16	40	1
9	10	2
8	37	2
186	188	2
193	219	1
232	232	5
208	213	5
3	3	6
24	26	3
47	109	4
229	229	3
88	89	6
15	38	1
48	48	13
72	82	1
104	104	10
243	245	1
239	239	3
67	68	6
197	202	1
160	160	3
112	113	3
66	98	1
59	59	4
201	213	1
1	2	2
26	26	4
199	199	7
162	165	1
69	69	9
206	207	5
159	159	3
169	171	3
103	103	7
172	174	2
16	39	1
164	169	1
20	21	1
218	225	4
79	82	1
17	17	2
15	97	1
246	247	2
202	203	1
76	76	3
85	85	3
59	109	2
7	8	4
39	39	5
33	33	14
194	195	3
44	53	3
142	142	2
160	219	2
3	236	1
213	214	6
37	38	1
77	77	8
230	233	3
168	169	2
72	73	3
227	227	4
66	67	1
232	234	11
105	105	2
11	12	6
7	110	1
167	205	1
170	205	3
219	227	3
190	190	2
31	31	3
149	150	3
62	63	3
81	81	9
165	166	2
42	43	3
208	218	3
51	52	3
163	164	1
49	49	6
53	53	6
110	110	4
36	41	3
97	97	2
45	205	1
22	26	2
192	208	2
234	235	2
58	60	1
196	214	1
162	163	4
190	191	1
227	228	1
102	103	1
201	206	2
189	224	1
102	102	1
101	103	3
48	108	3
163	163	1
28	29	1
64	65	1
199	200	2
198	199	1
65	71	3
218	219	4
93	93	4
76	78	2
76	79	1
81	82	1
43	43	3
109	113	1
152	153	1
158	159	2
72	74	2
85	87	1
195	196	1
55	56	2
201	214	2
50	199	1
208	216	1
114	115	2
118	144	1
84	84	1
216	218	3
35	36	2
146	146	1
10	15	3
6	112	1
234	240	2
215	215	5
44	46	1
10	11	4
93	94	2
8	45	5
25	25	2
5	236	3
236	240	2
18	18	3
219	226	2
11	15	1
85	91	2
24	25	1
174	174	1
57	60	2
193	216	1
63	106	1
71	77	1
157	158	1
144	200	1
197	214	4
47	48	1
208	209	1
207	214	2
180	195	2
6	101	2
209	213	1
50	50	3
186	193	1
91	117	1
48	49	1
216	233	1
165	165	1
99	100	6
33	77	3
173	204	1
209	210	1
120	145	1
8	9	2
99	105	1
192	211	1
164	166	1
31	193	1
71	76	1
60	106	1
220	223	1
72	77	1
6	7	1
89	90	1
110	113	1
100	102	1
51	109	1
146	163	1
49	198	1
222	224	1
188	189	1
94	95	1
168	172	1
49	199	1
31	32	1
69	70	1
64	94	1
34	94	2
205	207	1
229	234	1
4	102	2
60	62	1
43	45	1
65	65	3
182	183	1
44	45	1
6	10	1
81	84	1
29	31	1
192	218	1
71	72	1
175	177	1
198	202	1
243	244	1
79	86	1
67	71	1
236	238	1
6	100	1
4	236	1
