108	108	5
122	122	8
143	143	5
78	89	1
127	129	4
80	81	2
102	102	2
155	159	3
36	37	2
32	36	4
11	12	4
129	129	9
38	38	5
52	52	4
139	158	1
111	112	1
17	18	3
136	149	3
104	104	3
155	155	5
15	15	2
126	126	2
113	113	3
64	64	5
25	25	6
16	16	7
78	78	4
10	10	1
100	100	4
83	83	3
139	156	1
120	124	3
141	141	3
63	63	1
80	150	1
83	108	3
87	92	1
39	39	5
116	118	7
65	65	1
152	152	1
40	40	3
119	119	2
109	109	7
73	73	3
22	22	1
68	69	1
53	53	7
21	22	3
17	41	6
66	66	3
37	44	2
22	23	5
12	15	1
46	46	5
111	111	1
84	110	2
122	125	1
92	92	1
24	24	3
77	79	3
77	150	5
46	47	2
27	28	3
5	8	3
19	19	5
120	126	1
144	145	4
11	11	5
51	51	2
45	45	3
0	0	5
110	110	1
114	114	2
141	158	2
118	118	5
25	27	2
118	136	3
13	34	1
17	48	2
14	33	2
99	99	4
93	93	1
117	118	1
120	120	7
156	156	4
32	32	4
68	70	4
47	47	4
117	117	1
79	79	2
12	28	2
93	94	2
51	52	2
139	139	2
120	121	3
120	123	3
45	118	1
3	3	3
92	93	2
118	137	1
86	107	2
35	36	1
17	54	2
103	103	4
85	85	7
66	67	3
39	40	4
146	149	2
48	48	5
78	105	2
63	108	2
137	138	4
142	142	3
33	33	2
31	31	2
31	38	1
69	96	1
50	50	2
130	150	3
137	137	2
71	71	6
13	33	3
123	124	4
156	158	2
90	106	1
32	41	1
119	120	1
142	145	1
4	4	3
127	127	3
88	88	3
141	145	3
26	26	3
23	23	1
132	132	5
25	28	1
151	154	1
145	145	1
84	109	2
8	9	1
35	35	3
149	152	2
14	15	1
36	36	1
76	105	3
80	151	1
106	107	1
86	108	1
44	44	2
7	7	1
131	131	3
88	89	1
149	153	1
116	116	6
42	48	1
136	136	2
48	51	1
110	111	1
77	106	1
95	95	1
128	128	4
55	55	3
133	133	2
56	61	1
54	56	1
117	121	1
24	25	1
30	30	2
135	136	1
150	150	1
44	45	3
140	141	1
131	134	2
79	92	1
144	151	1
101	101	1
90	90	1
130	130	1
67	69	3
133	134	1
79	90	3
68	68	2
94	94	1
148	148	2
42	42	2
65	66	1
115	116	1
70	70	1
79	105	1
15	33	1
86	86	2
16	18	2
112	113	1
18	18	1
24	28	1
87	87	1
83	152	2
21	21	1
8	8	1
34	34	1
75	75	1
77	77	2
48	50	1
131	132	1
36	44	1
87	91	1
72	87	1
117	120	1
121	121	1
138	138	1
78	106	1
27	27	1
123	123	1
119	122	1
17	17	2
19	47	1
28	132	1
154	154	2
96	97	1
80	84	1
90	92	1
118	148	1
141	153	1
149	149	1
124	125	1
68	91	1
