21	21	7
11	11	20
22	38	3
25	25	19
109	109	16
16	16	3
59	59	14
69	70	2
15	16	5
88	88	25
99	124	4
15	15	8
31	32	8
89	89	12
134	135	5
75	75	23
98	117	4
134	140	1
2	2	18
118	118	9
53	53	13
116	116	19
20	20	10
104	104	23
5	29	3
86	122	2
136	136	14
132	132	5
107	109	1
20	21	3
123	129	1
76	77	3
137	139	2
22	22	14
108	109	10
76	79	1
101	101	18
39	39	13
133	133	13
5	6	2
122	132	2
42	42	10
104	110	1
68	68	16
37	37	10
144	144	15
39	84	1
141	141	19
106	106	8
55	55	16
101	102	4
50	51	2
35	36	6
89	102	2
71	71	6
10	27	1
131	132	8
8	8	13
72	72	7
69	119	5
115	122	5
18	18	12
76	76	11
131	131	9
6	6	12
50	50	14
3	3	10
80	80	11
8	17	2
67	68	3
117	117	8
31	31	8
34	36	4
82	84	2
142	142	28
93	93	5
123	123	11
61	61	12
62	63	12
139	139	6
87	87	21
38	38	6
12	12	5
49	50	4
58	58	22
30	30	14
145	146	2
5	26	4
25	87	6
23	25	2
10	10	8
134	134	7
82	82	9
78	80	1
54	116	5
81	116	2
65	67	1
25	90	1
91	91	22
140	140	9
105	105	5
20	37	1
24	25	4
98	100	2
27	27	23
95	95	7
63	63	12
108	115	2
108	108	11
47	47	5
33	33	24
98	143	5
56	96	2
97	97	5
120	120	7
49	49	7
75	79	1
46	139	1
4	6	2
30	31	7
54	54	12
41	42	2
70	131	4
28	29	1
107	108	4
81	81	14
145	145	8
112	114	1
32	32	6
53	54	4
17	23	1
73	132	4
23	23	9
146	146	1
65	65	3
57	127	1
69	69	7
56	141	1
51	51	14
26	88	3
60	60	10
115	115	11
61	63	3
122	123	8
127	140	1
68	119	1
62	68	6
116	117	2
66	66	3
64	65	10
72	73	4
9	9	7
105	106	1
43	43	9
0	0	6
122	122	10
83	83	5
43	58	2
17	17	19
10	11	4
4	5	4
54	74	2
93	97	2
104	105	4
13	13	5
103	103	20
137	138	3
144	145	4
23	24	1
4	20	8
71	74	6
16	17	3
127	131	2
69	118	2
90	90	1
33	95	3
114	114	15
102	141	1
67	67	9
118	119	5
15	40	2
28	28	16
85	85	7
88	102	1
77	77	6
109	114	1
91	102	1
94	94	13
124	124	7
21	37	4
65	71	3
41	112	2
3	4	5
13	58	3
5	5	7
75	96	2
6	32	3
142	144	2
129	132	3
24	34	3
86	87	8
121	123	4
135	136	10
24	50	2
75	78	1
68	69	3
25	27	1
70	71	3
133	134	8
14	14	13
143	143	7
126	126	2
2	20	2
87	96	2
70	70	4
115	123	3
98	141	1
29	29	6
20	23	3
52	52	12
98	98	5
128	128	9
138	139	1
56	57	7
1	139	1
33	77	4
58	59	2
129	129	9
24	24	4
96	96	8
15	19	4
21	22	3
4	79	2
91	104	4
34	34	4
78	114	2
125	126	2
2	107	2
48	84	2
20	33	4
23	37	2
55	56	1
64	64	6
92	93	3
10	62	1
64	123	4
70	92	7
5	19	2
18	19	6
73	73	6
53	72	3
128	130	2
4	4	5
35	35	12
5	34	7
132	141	5
135	137	2
79	119	1
75	76	4
99	99	12
0	50	1
117	122	3
121	121	8
111	111	4
33	36	1
70	128	2
105	111	2
31	33	2
119	119	13
21	23	1
0	139	3
97	131	1
118	120	3
106	108	4
74	95	1
98	99	1
37	78	3
49	57	4
117	123	4
10	75	2
62	62	10
102	102	14
36	37	3
138	138	7
5	43	2
19	19	6
12	58	3
83	112	1
0	141	1
48	78	3
26	26	12
3	49	2
73	83	2
137	137	7
66	67	2
20	29	4
28	41	1
125	125	11
41	41	15
9	23	1
74	74	21
51	136	2
40	40	13
9	62	1
79	80	4
0	11	3
127	138	5
40	41	2
72	114	1
97	143	1
1	35	1
110	110	8
19	21	2
72	74	1
13	14	3
85	124	1
113	113	4
56	56	5
48	86	1
12	43	3
134	139	1
94	105	2
61	70	1
71	72	2
54	109	6
6	19	2
130	132	3
79	122	1
135	135	14
106	107	10
50	60	1
86	136	3
127	128	1
34	79	3
89	126	4
2	3	3
36	36	6
0	1	3
92	92	5
1	33	2
91	92	5
98	132	2
75	95	3
97	126	3
86	86	3
93	106	5
101	130	1
85	133	3
119	120	9
85	134	2
132	136	2
23	88	5
61	99	1
4	43	5
23	34	2
9	42	1
128	132	1
67	69	1
15	17	3
80	81	2
74	131	2
107	107	5
142	143	6
75	84	1
57	137	2
82	117	3
8	9	4
14	88	1
68	91	1
130	131	1
48	48	7
111	112	1
77	78	5
14	15	6
82	83	7
90	96	3
107	110	2
100	100	6
35	37	2
71	128	2
9	60	1
72	82	1
114	117	2
87	89	9
81	112	3
64	72	2
127	127	7
124	141	2
38	78	2
26	30	2
109	110	4
114	115	2
8	61	2
2	43	3
119	132	2
4	50	1
129	130	9
50	81	3
99	100	3
124	139	4
112	112	5
51	52	5
36	122	2
124	125	1
34	35	3
23	26	2
33	34	2
140	142	1
39	124	1
55	96	2
29	33	2
115	116	4
1	2	1
82	112	3
128	129	2
49	80	1
57	58	2
87	104	1
134	137	1
4	33	1
32	123	2
49	89	1
6	36	1
42	53	2
130	130	4
62	94	1
4	29	1
33	42	1
51	54	2
39	114	3
84	132	2
98	124	1
53	81	4
4	35	3
60	62	1
116	123	1
65	66	2
67	118	1
30	32	2
5	73	2
80	100	1
73	84	2
53	82	2
84	84	4
100	101	1
27	56	3
39	41	1
62	67	3
110	113	2
42	49	1
10	60	1
76	78	2
112	130	3
28	30	1
43	87	1
57	57	4
116	118	3
89	90	2
21	33	2
83	86	1
13	25	1
79	117	5
30	38	1
127	129	2
116	119	2
139	140	1
120	132	1
23	32	1
113	114	1
49	51	2
90	98	1
130	141	1
8	51	1
25	97	1
50	57	2
130	143	1
47	138	1
52	69	1
4	34	2
114	136	2
54	55	2
120	122	1
63	67	1
117	133	1
111	113	2
133	137	2
47	48	1
78	79	1
64	67	1
34	40	1
83	84	1
22	28	1
59	62	1
118	133	1
17	18	1
3	8	1
0	4	1
52	58	1
59	63	1
127	130	1
124	135	1
136	139	1
110	111	1
6	43	2
80	122	1
48	87	1
47	140	1
87	95	1
121	124	2
111	125	2
119	129	1
39	125	1
37	43	1
52	53	2
116	120	1
49	52	1
102	103	1
77	135	1
54	83	1
12	14	1
143	146	1
14	24	1
59	60	2
26	93	2
61	116	1
4	42	1
14	50	1
61	62	3
3	21	1
14	16	1
120	121	1
37	81	1
48	92	1
49	90	1
96	119	1
74	75	1
90	97	1
11	26	1
55	58	1
115	142	2
78	134	1
1	1	1
37	38	1
19	40	1
18	29	1
31	36	1
83	124	1
87	124	1
97	98	1
27	28	1
