193	194	1
27	27	7
37	38	8
89	89	7
93	94	6
227	227	5
208	208	3
219	238	5
43	77	2
175	230	1
203	203	2
146	159	4
211	211	4
212	214	4
22	22	8
239	248	3
60	60	6
6	16	4
165	165	5
16	16	8
4	10	2
6	6	8
190	190	2
26	55	6
169	169	1
95	97	6
118	118	7
15	15	5
162	162	4
113	218	3
229	229	3
111	111	11
152	184	3
82	118	2
248	248	10
210	211	11
185	209	3
90	90	4
69	114	7
55	68	1
1	41	1
108	111	1
164	164	2
20	20	8
175	175	4
42	49	8
53	53	7
194	194	7
8	52	3
233	233	6
185	190	3
87	99	1
188	215	3
41	41	5
29	63	3
200	200	8
179	197	2
153	180	1
106	108	1
54	54	2
4	7	4
190	220	6
154	154	9
156	157	1
208	227	3
48	99	1
34	54	1
27	28	7
238	238	7
66	66	6
241	241	13
113	113	6
32	32	4
120	120	10
12	15	4
115	115	6
178	203	3
189	190	2
155	155	9
180	180	2
40	41	2
26	58	4
205	207	5
77	77	5
231	231	9
99	100	4
234	236	3
242	242	5
9	10	4
209	231	8
210	210	3
79	86	3
109	110	4
17	17	2
19	47	4
31	31	14
9	9	16
206	207	2
246	246	5
174	175	1
88	113	1
26	26	3
219	237	4
244	244	2
58	68	4
110	111	5
57	98	2
223	223	4
56	86	2
115	116	8
175	194	6
215	215	7
87	87	9
35	35	11
94	94	13
57	85	1
107	107	9
5	34	2
81	81	12
112	112	8
19	19	9
100	100	3
46	46	7
220	242	3
19	57	3
174	174	5
96	97	2
10	10	7
173	173	4
36	188	1
152	152	6
38	50	6
169	207	1
55	55	2
80	115	4
169	230	4
24	24	4
69	111	5
1	1	4
25	67	1
145	170	2
207	207	3
204	204	5
242	246	1
174	215	1
150	150	3
232	234	6
106	159	6
98	99	4
106	109	1
153	230	2
183	189	4
217	217	2
234	245	5
190	191	5
21	21	6
59	59	2
57	57	8
166	179	4
197	197	5
108	118	3
52	54	2
172	189	1
152	174	9
76	76	11
202	202	6
84	117	3
56	56	5
3	77	3
166	181	3
217	229	4
23	23	8
201	201	8
29	105	7
7	7	5
61	61	3
40	220	1
170	189	2
193	204	3
229	236	3
214	214	4
26	28	6
92	92	8
12	12	5
231	232	3
20	53	6
219	245	1
83	89	2
8	77	4
97	97	6
91	111	2
234	235	2
91	104	4
4	4	2
34	37	1
39	39	2
221	222	3
81	117	3
178	178	1
147	159	3
226	226	7
59	89	3
48	49	3
212	212	7
197	198	5
30	92	3
151	151	3
220	227	1
107	164	4
117	117	6
219	219	5
184	208	5
167	209	3
192	208	2
191	191	3
179	180	2
166	194	3
53	54	2
45	45	5
44	45	2
225	225	5
56	57	1
85	89	4
75	77	1
51	98	1
223	224	1
101	101	1
215	217	2
199	200	5
169	206	3
234	237	1
65	70	2
83	83	2
64	65	1
76	84	2
196	222	2
22	23	1
25	66	3
177	177	6
187	188	2
103	103	2
43	43	6
9	12	2
102	102	4
16	39	1
103	156	2
11	90	1
44	87	2
95	95	3
160	161	5
218	234	2
239	239	3
220	220	6
54	55	3
228	239	1
105	106	2
193	196	4
75	97	3
28	29	2
189	189	6
245	245	7
72	75	1
72	114	1
216	217	2
150	154	3
163	163	2
156	156	6
199	203	1
150	153	2
64	64	6
232	232	1
168	169	1
248	249	3
41	77	1
166	166	3
203	204	5
11	37	1
18	18	5
70	97	5
191	192	5
28	59	7
195	195	2
84	84	3
8	8	1
160	160	3
158	158	4
184	184	5
110	156	2
48	48	1
106	115	2
159	159	2
69	69	5
153	153	2
91	91	2
190	208	1
46	47	3
208	209	1
14	14	1
3	3	2
10	41	5
5	6	5
38	38	4
193	193	2
96	109	3
48	53	2
245	246	3
40	170	3
3	7	3
28	62	2
116	116	6
9	45	2
191	220	2
204	225	2
147	158	3
230	230	1
101	109	2
77	78	7
110	110	5
67	74	1
234	234	2
213	214	7
187	226	1
81	118	1
170	170	3
44	86	1
236	236	1
184	210	2
96	110	5
209	209	2
98	98	1
95	96	4
220	228	1
118	119	3
179	179	4
194	197	1
213	213	2
236	237	1
113	118	2
33	33	4
2	3	4
219	240	3
204	205	4
23	33	1
34	35	1
176	191	1
61	68	1
72	72	3
52	53	2
220	225	3
102	103	3
175	182	1
186	186	3
227	228	2
240	240	2
159	160	1
7	8	2
78	87	1
34	78	1
198	198	4
187	220	1
33	54	1
65	66	2
144	226	1
218	219	2
237	237	4
166	178	2
22	33	1
70	71	5
88	229	1
198	199	1
185	185	4
93	93	5
74	92	1
50	77	2
25	61	1
145	172	2
152	180	2
108	108	2
2	37	3
205	221	1
28	54	2
19	90	1
224	224	1
187	189	1
49	50	3
112	113	5
188	210	1
114	115	1
151	173	2
26	31	1
20	54	4
219	239	1
218	218	2
161	166	1
194	196	4
94	95	1
154	214	1
187	187	2
184	187	1
157	158	4
183	183	6
28	67	3
83	117	1
37	37	2
88	88	3
33	75	2
228	229	3
113	115	1
31	62	1
241	245	1
175	186	2
56	74	1
71	92	1
235	236	1
5	5	1
196	196	2
246	247	1
243	243	1
170	171	2
75	75	2
208	210	2
187	231	3
190	225	1
200	202	1
185	226	1
167	167	3
71	71	1
52	68	2
14	41	1
160	202	2
161	204	2
216	218	1
72	109	1
235	237	1
216	216	3
67	67	1
91	92	2
35	80	1
107	163	1
171	172	2
57	100	1
51	51	1
17	63	1
171	189	1
144	144	1
238	247	1
62	62	1
172	209	1
161	162	1
157	159	1
228	232	1
175	217	1
172	174	1
74	74	3
168	168	4
74	96	1
97	109	2
92	95	1
240	241	1
30	30	1
73	120	1
205	230	1
93	115	1
119	119	2
10	77	1
153	175	1
