136	173	2
19	19	6
114	115	4
153	153	3
124	125	3
61	84	2
105	122	3
32	33	4
174	175	1
178	178	4
143	143	6
8	8	1
17	17	2
122	123	2
163	163	15
22	42	4
166	166	4
145	146	7
113	145	1
44	44	6
134	135	4
154	154	4
111	111	7
60	60	4
23	23	1
169	170	2
75	75	2
85	86	4
79	80	6
35	35	1
16	16	7
109	109	1
25	27	2
3	3	6
170	170	4
108	108	4
64	85	3
140	140	7
4	5	5
25	38	4
67	67	7
88	88	4
25	26	2
80	80	1
172	173	2
63	63	1
41	41	4
106	106	4
159	159	5
96	96	4
150	150	7
130	130	1
24	24	3
135	143	1
131	131	7
129	129	2
157	158	4
133	135	1
44	50	1
110	110	4
23	28	5
80	81	6
175	175	3
137	137	7
85	85	2
155	155	5
161	161	2
135	136	5
118	119	2
23	50	2
177	177	2
148	150	3
53	97	1
172	172	2
114	123	3
124	124	5
95	95	7
83	85	2
157	157	6
146	146	3
65	65	3
153	174	2
59	59	7
94	94	2
93	94	1
94	110	1
58	63	1
176	176	1
38	39	1
146	153	1
143	146	1
10	10	3
102	108	2
165	166	3
132	132	6
61	65	1
37	37	4
135	161	6
2	10	3
173	174	1
91	94	1
77	77	1
147	174	2
80	94	2
104	123	2
45	45	4
26	27	4
61	74	2
120	133	1
53	53	5
153	180	2
1	2	3
0	9	1
135	172	1
74	74	3
72	90	1
23	29	3
19	42	1
59	65	1
92	92	5
144	154	4
180	180	1
7	8	1
84	84	3
28	37	2
162	162	7
123	123	5
148	176	1
31	33	1
13	22	3
179	179	2
78	78	4
105	105	2
79	79	2
21	43	1
32	101	2
82	82	3
112	112	1
0	27	3
32	32	2
137	138	1
114	117	1
27	27	4
152	156	3
50	50	2
67	73	1
171	171	3
98	115	2
134	137	2
24	33	5
2	2	1
37	38	2
49	49	5
119	119	5
15	16	1
165	165	6
56	82	5
152	152	1
77	81	1
132	175	2
66	66	2
73	73	1
14	14	2
64	64	3
98	101	2
22	22	3
76	76	1
121	121	4
4	4	3
93	93	2
30	31	1
71	71	4
58	66	1
120	120	2
3	14	1
6	6	2
71	88	2
126	132	1
33	33	3
113	113	4
128	161	3
145	145	1
134	134	7
39	40	3
58	85	3
9	9	2
151	151	3
20	20	2
107	107	2
28	36	3
88	89	5
94	139	1
78	79	1
136	162	3
68	68	4
169	169	6
137	172	1
114	114	3
55	56	3
30	30	3
4	20	1
14	42	1
142	143	2
158	173	1
59	85	1
125	125	3
7	7	1
144	144	3
83	86	2
43	43	2
118	118	4
10	43	2
138	138	3
11	19	3
67	74	1
62	82	2
44	49	1
148	148	1
61	61	2
139	139	1
6	7	3
76	119	2
108	179	3
100	106	2
83	83	3
91	91	3
42	42	3
32	102	1
99	105	2
64	65	1
98	98	3
128	142	2
112	131	1
28	109	1
138	162	4
135	173	1
103	110	2
38	38	1
66	87	2
75	77	1
57	58	1
133	134	1
122	141	3
99	100	1
4	11	2
120	121	1
15	15	1
60	90	1
33	36	2
57	57	1
58	87	1
17	92	1
129	131	1
103	103	1
127	133	2
128	173	1
100	100	2
92	93	3
97	97	1
125	126	1
9	13	1
128	174	1
126	126	1
127	127	1
21	41	1
63	65	1
81	94	1
133	133	2
5	11	1
154	156	1
59	84	2
71	72	1
30	51	1
53	54	1
61	90	2
170	171	3
18	18	1
25	36	1
51	52	1
147	153	2
40	40	4
45	60	4
90	92	1
136	171	1
163	165	1
27	28	1
13	28	1
31	34	1
18	44	1
28	28	1
55	55	2
19	41	1
116	116	1
31	31	1
86	87	1
16	17	1
19	43	1
128	128	2
155	169	1
58	64	1
104	104	1
52	52	2
155	156	1
124	126	1
45	91	1
115	116	1
52	100	1
100	119	1
86	86	1
50	51	1
102	110	1
17	93	1
68	72	1
147	147	1
144	146	1
104	105	1
62	92	1
12	12	1
161	162	1
104	122	1
5	5	1
