129	129	11
1	1	18
103	141	2
156	156	4
44	44	11
30	30	8
96	97	6
110	110	7
155	155	18
116	146	1
16	49	1
19	39	2
0	0	8
99	99	7
86	87	2
133	134	6
104	105	9
39	39	12
20	20	7
131	131	12
75	75	9
65	72	2
21	66	2
84	92	7
120	120	13
94	94	7
2	11	5
6	65	1
6	6	12
117	117	5
151	152	1
135	143	3
151	153	10
99	100	1
27	27	5
148	149	7
113	120	2
64	64	5
139	139	14
102	102	9
27	52	3
32	38	2
119	119	14
136	136	4
78	104	1
25	28	4
21	22	7
104	104	6
28	44	5
13	14	9
46	46	10
70	88	2
28	28	7
95	96	1
146	146	8
125	125	16
83	84	8
63	63	3
23	55	1
111	111	6
62	70	2
124	124	13
115	116	4
106	155	2
54	54	3
73	73	13
23	25	1
43	43	11
158	158	10
121	121	3
108	110	3
86	118	4
16	16	9
41	116	2
76	95	7
100	100	6
68	69	1
46	47	4
55	55	9
2	22	2
40	42	2
90	91	2
18	18	5
84	84	11
29	29	7
104	106	4
11	11	10
8	29	2
24	24	11
114	114	4
88	89	5
10	50	3
17	17	3
115	115	4
151	151	12
73	81	1
53	68	3
80	81	6
86	121	6
99	114	4
24	25	2
14	38	3
115	121	1
116	116	5
26	27	4
63	67	2
105	105	9
48	49	6
21	65	2
142	149	3
155	156	3
95	95	2
150	154	4
38	38	1
42	87	1
10	25	4
30	40	6
112	112	10
91	92	3
53	57	3
86	99	1
129	133	1
88	150	2
33	33	5
126	127	1
79	79	5
144	144	3
137	137	4
103	104	2
11	12	4
44	45	3
62	62	3
149	149	3
126	128	1
36	37	4
25	25	8
106	107	1
35	36	5
19	35	1
121	150	2
57	57	4
40	40	4
68	68	3
24	96	1
152	152	8
107	134	2
113	113	6
15	15	3
109	112	2
50	78	3
98	98	6
142	142	4
114	115	1
70	70	15
3	3	2
91	91	3
6	12	1
147	158	2
35	35	10
42	43	3
114	131	2
145	153	2
33	35	3
117	118	2
77	79	1
49	49	3
125	127	2
141	141	9
109	109	4
81	82	5
20	21	7
3	17	2
123	124	7
146	147	2
64	96	1
70	71	4
75	77	1
31	31	10
87	118	3
26	29	4
130	144	3
9	37	6
149	156	4
98	125	1
107	108	2
5	5	7
52	53	2
29	31	1
37	38	1
22	22	1
122	135	1
72	99	2
48	48	10
140	140	9
96	96	4
32	33	3
153	153	6
65	68	5
42	88	1
93	118	2
3	4	7
28	29	4
147	153	1
126	151	2
34	45	1
2	26	6
99	136	1
138	138	7
136	154	3
123	154	3
100	101	3
77	87	2
16	48	2
96	128	6
132	133	2
26	26	5
150	157	1
142	143	2
111	142	1
53	66	2
85	86	1
123	123	2
82	92	2
89	93	2
17	18	8
40	47	1
27	80	2
56	56	5
33	83	1
43	45	6
50	50	3
134	134	6
15	22	2
82	112	1
48	50	3
64	69	5
2	2	6
147	147	7
109	111	1
2	25	1
8	43	1
123	125	3
130	130	5
77	77	7
103	103	5
11	37	1
79	87	1
122	122	8
105	106	4
108	108	1
155	158	3
10	10	2
83	83	4
92	92	3
145	146	2
128	129	2
8	39	4
85	114	4
137	138	9
28	54	1
143	143	8
12	12	4
101	145	3
81	81	3
18	19	4
19	19	6
113	114	2
127	127	11
34	34	7
99	145	5
140	141	3
145	145	6
13	13	3
8	8	2
26	107	1
15	21	2
64	80	2
66	73	4
144	154	1
45	45	6
23	107	2
107	146	1
39	116	1
118	118	2
116	151	3
43	49	2
129	141	2
150	150	3
71	71	3
32	34	1
7	37	1
32	32	1
25	56	1
107	107	7
34	46	1
23	41	4
85	85	5
125	126	2
133	133	2
93	106	1
125	134	4
153	158	2
116	129	1
4	5	2
69	69	4
35	45	1
95	126	2
41	66	2
101	101	7
87	87	10
135	147	3
31	32	3
157	157	5
141	150	1
121	123	3
92	93	3
67	67	5
122	150	1
21	21	2
78	114	2
33	34	3
55	94	3
71	116	3
131	133	2
73	88	2
86	91	1
106	106	3
25	51	1
47	53	1
97	107	1
63	91	2
134	145	1
116	119	2
117	138	2
35	85	2
86	139	2
14	33	4
14	16	1
7	7	2
124	125	1
84	85	5
12	13	4
0	13	1
36	38	1
53	53	3
37	46	4
149	158	1
4	24	2
77	100	1
50	52	2
133	144	1
76	100	2
128	128	3
78	79	5
37	47	1
104	112	2
62	91	1
113	149	1
36	36	5
148	150	2
135	136	3
106	134	1
52	55	1
31	34	2
38	45	1
122	126	2
44	69	1
38	39	3
3	53	3
10	16	1
111	138	2
47	47	1
123	153	1
4	4	2
51	52	2
23	24	1
86	86	2
45	50	1
148	156	1
50	54	2
3	26	1
0	5	4
115	122	1
2	15	1
55	56	1
88	90	1
0	25	2
122	156	1
37	37	5
132	134	2
34	38	1
21	23	1
94	95	1
42	42	3
9	9	1
154	154	2
22	42	2
87	115	1
100	119	2
14	14	2
65	65	1
129	140	1
109	119	3
43	90	1
117	139	1
127	128	2
159	159	3
55	116	3
42	45	1
5	8	3
12	16	1
120	144	1
23	23	1
96	134	1
81	98	2
40	41	2
136	139	1
115	137	1
89	89	2
72	79	1
99	105	1
135	135	3
156	157	2
126	129	1
53	82	1
3	46	1
112	145	1
126	136	1
66	66	1
15	34	1
112	143	1
91	140	1
87	92	1
16	36	1
67	68	1
8	10	3
132	132	1
107	127	3
132	136	1
62	67	2
97	132	1
12	14	1
114	123	1
111	112	1
117	140	1
32	35	1
141	158	1
36	49	1
96	108	1
1	15	1
25	44	1
136	141	2
52	56	1
156	158	1
80	82	1
14	49	1
148	148	1
39	138	1
