78	78	16
157	157	15
18	91	6
164	164	3
39	40	3
55	92	4
97	114	2
97	97	7
162	163	6
64	171	3
51	65	2
34	35	9
81	81	2
40	40	4
151	151	3
120	120	16
18	93	5
81	82	9
111	113	6
116	116	1
123	133	1
32	32	8
85	92	3
5	6	7
9	10	6
105	106	8
44	44	10
166	167	3
131	132	4
56	56	6
50	52	1
136	136	7
144	144	3
142	143	8
83	84	4
60	93	5
101	102	10
105	105	5
155	155	3
75	75	8
114	119	5
87	175	1
74	92	2
14	67	2
23	23	5
49	80	1
114	114	13
82	84	7
24	26	6
87	87	14
23	25	3
59	59	7
13	66	6
94	95	15
166	166	10
112	112	9
19	78	1
65	65	4
130	130	6
14	20	2
71	73	3
61	62	5
42	43	6
124	124	9
99	104	4
138	173	3
127	127	14
95	103	2
135	135	4
73	144	3
120	121	5
153	155	6
28	28	10
53	54	7
110	110	7
1	60	6
122	122	11
159	160	4
98	98	13
39	39	11
76	76	5
15	16	2
10	10	11
84	95	1
96	96	21
151	152	2
96	103	6
11	11	2
15	20	2
80	81	6
36	36	7
1	36	1
174	174	6
107	107	9
56	59	4
37	52	3
19	22	1
99	100	4
15	15	10
88	88	5
22	23	4
160	161	7
147	172	1
161	162	11
146	147	2
6	6	2
38	50	1
25	25	6
121	153	1
49	61	2
92	94	2
27	28	5
95	135	3
104	105	8
107	108	14
125	125	18
175	175	5
5	5	7
14	66	2
66	139	1
165	165	6
14	14	5
17	19	3
116	119	4
24	25	7
43	45	1
17	91	2
171	172	1
54	63	2
101	104	3
58	59	4
128	129	3
13	21	8
143	143	8
64	64	3
13	13	13
123	123	10
23	24	2
169	170	4
40	42	3
2	56	10
170	171	9
18	92	4
32	33	8
155	158	5
60	87	1
80	80	4
37	45	2
10	78	4
84	90	4
154	155	11
60	79	2
103	104	11
94	99	2
58	58	11
163	163	14
89	90	10
6	60	5
53	53	4
86	87	6
153	153	5
34	36	4
0	16	3
38	38	9
127	166	6
24	33	1
98	113	3
13	20	1
71	72	3
17	17	3
56	57	2
164	165	11
74	88	1
96	114	2
16	16	7
132	133	3
129	151	7
95	96	4
142	145	3
97	98	14
121	129	2
50	53	2
162	164	1
115	117	2
60	131	2
119	119	12
64	65	6
57	57	9
29	32	1
113	114	6
54	55	4
22	22	6
103	103	6
21	21	7
67	142	2
76	77	6
121	121	7
138	139	3
30	30	4
20	26	4
129	130	8
103	105	13
10	23	1
52	52	6
13	22	2
60	174	2
82	107	3
128	128	3
113	113	7
52	136	2
79	87	1
83	83	18
29	29	28
50	61	2
122	125	1
33	33	6
13	15	2
152	152	10
125	132	3
67	67	8
62	62	7
42	42	13
108	114	4
18	18	3
26	27	3
45	45	4
167	167	5
111	111	7
3	60	3
153	156	5
55	55	10
159	161	4
165	167	5
170	170	2
61	61	1
2	57	1
41	41	3
149	149	4
29	30	2
8	8	9
40	41	5
83	86	1
122	152	2
0	137	6
107	115	4
38	51	2
156	156	8
178	178	5
40	58	3
115	131	1
81	84	3
8	59	2
73	73	8
154	154	10
82	93	2
82	82	14
146	146	7
103	106	12
150	150	8
138	138	7
84	85	7
125	133	4
26	26	10
165	166	5
110	120	1
157	158	4
0	0	8
2	34	1
173	179	1
67	85	1
95	95	11
65	66	1
25	28	2
91	92	5
98	119	3
85	109	3
112	135	2
35	54	5
156	158	9
141	141	7
85	85	1
142	142	4
2	3	5
104	104	9
122	154	1
101	101	16
121	130	1
122	141	2
123	179	1
20	20	2
99	107	2
120	126	4
68	68	4
23	31	1
7	37	4
106	151	3
34	34	10
52	53	6
85	116	4
148	148	5
86	86	12
104	115	3
129	129	12
127	128	5
103	115	3
64	136	1
150	152	1
136	177	5
52	111	2
127	155	3
161	161	4
115	150	4
13	14	1
109	109	7
155	156	2
99	99	13
74	75	4
100	101	2
96	97	2
130	131	1
37	39	3
34	46	1
16	93	1
63	63	7
32	40	1
75	76	3
19	20	2
96	104	1
137	174	1
152	155	3
19	19	13
140	168	4
24	24	7
71	143	4
94	94	6
177	179	2
89	133	3
91	91	3
122	123	2
51	64	1
9	9	6
117	119	4
5	7	4
106	110	3
26	29	3
72	72	5
24	27	1
10	40	2
160	160	6
84	84	6
11	13	2
11	12	2
176	176	4
66	66	2
145	156	1
153	154	2
27	27	2
159	166	1
51	52	2
107	129	2
125	153	2
61	94	3
2	2	2
162	162	6
35	35	3
148	173	1
133	146	2
72	83	1
64	135	4
74	74	7
10	35	3
92	93	2
50	62	5
90	92	3
55	61	1
21	22	4
35	36	5
173	175	4
14	15	3
90	95	3
135	137	2
60	61	3
81	95	1
100	100	7
93	94	4
158	159	7
26	31	1
166	170	1
55	56	4
88	90	2
88	89	2
20	21	7
100	102	3
4	58	5
22	24	4
25	26	4
12	13	7
51	51	5
166	169	3
56	77	2
148	171	7
133	176	1
98	129	3
131	131	4
139	171	2
159	159	5
139	173	1
174	176	1
117	117	2
158	158	2
62	63	2
172	172	2
116	153	3
89	92	4
15	53	4
147	147	4
173	174	1
126	151	1
111	112	3
87	108	2
80	88	2
74	76	3
83	94	2
166	168	3
137	138	2
78	175	2
103	110	2
17	88	4
140	140	2
134	134	1
102	103	2
77	77	5
14	64	4
139	139	2
132	132	3
132	150	2
123	170	1
110	111	7
49	60	1
84	96	4
35	64	1
125	157	1
38	49	2
110	114	2
43	43	6
16	172	3
109	150	2
171	171	3
99	129	1
117	118	5
162	165	1
108	113	1
74	93	3
96	98	2
6	7	3
53	136	2
54	54	4
51	53	2
94	100	1
172	176	2
94	96	3
93	93	3
124	170	3
115	115	13
139	146	1
114	134	1
7	8	3
109	110	1
98	101	3
106	129	1
3	3	4
7	7	4
78	79	4
53	63	3
133	177	3
133	133	1
154	156	2
106	108	5
28	31	2
66	146	1
80	93	1
128	130	1
100	104	2
54	147	1
15	65	1
16	18	2
106	120	1
137	147	2
119	122	4
1	137	2
156	157	7
84	109	4
59	132	1
98	103	2
134	135	1
0	1	2
125	126	5
118	137	1
104	112	1
66	68	1
152	154	2
80	89	4
174	178	1
66	67	5
123	171	1
22	27	1
62	133	2
9	81	1
119	131	1
54	78	1
3	56	4
113	147	1
121	124	1
114	115	2
129	150	1
112	113	1
0	3	2
80	87	1
118	119	1
178	180	1
145	145	3
2	77	1
121	155	2
154	157	2
22	31	2
89	177	1
41	58	2
134	173	1
145	146	1
11	23	1
81	88	1
108	111	1
119	120	2
54	66	2
85	86	1
123	124	5
99	103	2
98	99	1
50	50	2
16	20	2
17	92	1
137	137	1
18	62	2
23	26	1
112	149	2
142	146	2
11	66	4
148	174	2
126	126	4
38	53	1
111	149	1
43	44	3
12	12	1
1	134	2
76	96	1
147	154	1
148	149	1
126	130	2
77	78	1
31	32	2
97	150	2
13	65	1
16	59	2
108	108	4
89	89	6
124	171	2
60	60	1
102	104	2
82	178	1
10	56	3
32	65	1
80	86	2
38	40	1
140	151	1
19	85	1
83	95	1
34	54	3
4	7	1
120	131	1
79	79	1
53	59	2
115	118	1
149	150	5
26	28	1
78	176	1
83	92	2
91	100	1
10	55	1
105	115	2
34	56	2
24	31	1
90	90	1
44	53	2
106	106	4
95	97	1
180	180	1
155	157	2
73	74	3
116	120	2
108	109	1
126	127	1
35	138	1
85	102	2
59	62	1
91	101	1
121	147	1
87	90	2
37	37	2
92	101	3
37	38	4
7	35	2
15	18	1
55	65	1
71	76	1
51	62	1
118	136	1
98	104	1
95	104	1
77	140	1
31	31	1
135	177	2
126	148	2
163	164	2
87	101	2
28	29	1
141	167	1
2	4	2
18	19	1
158	162	1
118	125	1
97	118	2
133	174	1
49	173	2
85	91	1
105	154	1
81	83	3
16	17	1
108	110	1
175	176	1
121	167	1
42	62	1
73	75	1
63	64	2
49	51	1
34	39	1
140	173	1
97	113	1
127	154	1
50	59	1
5	35	1
132	139	1
32	41	1
76	93	1
3	55	1
16	88	1
107	149	1
81	86	1
38	39	1
55	78	1
116	171	2
90	94	1
1	2	2
177	177	1
27	30	1
159	165	1
16	62	1
171	179	1
4	4	1
37	41	1
1	37	3
79	81	1
121	123	1
148	151	2
40	44	1
30	31	1
64	112	1
12	20	1
159	162	1
143	162	1
82	83	1
74	77	1
107	167	1
53	61	1
114	132	1
33	34	1
117	121	1
42	44	1
11	37	1
