58	58	4
0	0	10
61	71	2
28	28	10
59	59	22
2	2	4
24	24	9
67	67	6
1	2	10
21	21	24
10	10	10
0	1	5
3	4	1
68	68	3
54	59	1
39	39	12
58	59	2
5	5	8
74	75	2
5	29	2
45	45	10
46	46	5
51	51	4
54	61	1
19	30	1
53	53	8
20	21	4
2	40	3
11	11	6
35	35	6
6	6	6
61	61	8
49	65	1
22	22	9
75	75	3
53	59	5
38	38	2
34	36	4
69	69	5
41	77	1
9	9	6
74	74	9
45	46	6
33	33	5
65	65	4
74	76	3
18	19	3
49	50	1
4	4	6
44	68	4
11	70	2
26	26	14
19	39	2
43	43	7
66	67	5
61	63	3
41	42	3
21	24	4
54	56	1
57	57	6
32	48	3
53	62	1
1	1	2
50	50	5
76	76	4
41	41	2
31	31	6
44	44	3
51	76	2
13	14	2
62	63	5
3	3	13
19	19	11
26	30	2
39	40	1
47	47	5
8	9	1
34	34	5
31	59	4
62	62	5
18	21	1
24	30	3
51	64	2
26	29	3
49	49	6
73	75	2
50	68	3
56	59	2
12	12	7
77	77	5
35	36	2
71	71	4
26	27	2
72	75	1
72	74	3
13	13	4
36	36	6
28	29	1
44	74	3
23	23	5
42	42	6
73	73	12
40	40	7
48	58	1
32	32	9
67	68	1
52	52	9
56	56	15
29	30	3
54	54	5
26	43	2
22	30	1
5	6	5
33	34	3
51	67	1
22	23	1
20	30	1
63	63	1
68	69	1
70	76	1
49	66	1
31	60	1
32	33	2
38	43	3
25	26	4
53	69	2
25	48	1
20	20	1
14	30	1
46	47	2
22	24	5
55	55	2
13	19	2
5	72	1
50	51	3
14	14	3
38	39	2
60	61	1
4	5	2
60	60	4
52	56	2
48	48	1
20	56	1
31	58	5
42	43	1
70	70	6
23	24	2
53	64	2
37	37	3
36	60	2
9	12	2
37	38	1
51	66	1
68	71	3
72	72	3
27	28	1
0	13	1
41	75	1
36	37	2
51	52	1
57	58	2
69	70	1
32	34	1
29	29	1
8	8	4
53	57	1
73	74	1
2	57	1
40	41	3
58	61	1
39	74	1
54	55	1
63	72	2
27	27	2
47	59	1
21	22	1
38	74	2
53	58	1
0	68	1
47	66	1
24	25	1
25	25	1
70	71	1
34	48	1
32	47	1
21	32	1
68	70	1
18	18	1
60	64	1
26	42	1
20	29	1
7	7	1
