48	48	7
27	27	8
18	18	16
37	37	17
134	135	1
63	63	5
84	84	4
14	14	9
156	156	10
135	135	5
40	40	7
38	38	3
33	33	14
100	101	2
91	118	1
39	47	3
13	13	4
116	117	5
123	123	5
43	43	6
4	4	4
22	22	8
100	100	10
68	68	12
89	90	2
54	54	16
4	35	7
3	20	2
128	129	3
124	125	8
133	134	12
78	78	1
20	20	9
111	111	12
32	33	1
106	106	15
118	118	17
16	23	4
41	42	6
138	139	4
75	75	1
87	128	3
155	155	7
104	104	4
90	90	24
150	151	1
8	9	7
65	119	5
110	113	1
38	40	2
7	7	5
149	150	1
132	132	2
21	22	3
79	80	3
74	77	2
57	67	1
127	128	7
135	136	4
49	49	5
139	140	3
8	10	2
134	134	9
30	30	12
127	127	6
116	141	7
108	109	8
45	45	6
34	49	1
150	150	4
38	42	3
12	12	8
80	80	3
153	153	4
93	93	2
55	55	1
70	70	6
101	101	5
16	22	2
124	124	4
26	26	1
50	50	3
117	118	3
151	152	9
10	10	2
8	8	2
15	15	10
91	91	12
145	145	11
36	36	8
140	140	7
35	35	12
93	94	9
1	1	2
152	153	2
29	77	1
91	92	3
23	23	6
79	84	4
68	71	2
65	65	7
68	70	1
2	50	3
144	144	2
6	6	3
90	113	3
52	52	9
126	127	4
11	21	2
89	89	10
109	110	2
31	37	5
131	131	2
119	120	3
79	79	3
28	28	3
128	128	1
31	38	1
46	46	5
67	67	7
42	42	9
41	41	9
95	96	5
53	53	3
3	3	6
5	5	4
69	69	6
89	121	2
92	94	1
138	138	10
154	154	2
12	13	3
115	115	5
114	114	7
96	97	5
158	158	6
116	118	6
111	112	3
91	112	1
152	152	5
116	116	3
38	47	3
77	77	5
122	123	3
20	21	2
125	126	4
112	112	7
34	35	1
16	21	4
98	106	2
44	44	6
31	33	1
44	45	2
98	98	3
108	108	6
31	31	4
73	73	2
104	105	2
47	47	5
37	38	3
103	103	4
16	16	6
42	43	2
23	24	5
148	148	3
119	119	3
95	95	4
85	86	2
29	29	5
70	71	2
116	140	1
7	8	4
27	30	1
17	17	1
24	24	5
2	51	3
96	96	2
34	34	6
15	16	3
140	141	6
158	159	1
105	105	3
33	49	3
95	97	3
71	71	7
11	12	5
11	11	4
81	81	3
87	87	2
128	150	1
56	56	2
88	88	2
157	157	2
137	138	1
13	14	4
3	50	4
89	117	1
130	130	1
27	28	1
85	85	4
0	0	1
126	126	1
83	83	4
138	141	2
94	94	4
136	136	1
155	156	3
146	146	5
103	104	1
46	47	1
149	149	1
82	83	4
68	69	7
86	86	5
55	56	1
115	141	1
44	47	1
2	2	3
102	103	5
67	69	3
109	109	4
9	10	1
118	119	2
27	36	3
154	155	1
147	147	2
151	151	2
68	119	1
25	25	4
92	112	1
133	133	1
28	29	2
122	122	7
73	76	1
9	9	1
13	22	1
127	144	1
92	113	1
81	82	2
110	110	4
43	44	3
28	77	1
121	121	1
147	148	1
97	97	2
62	62	2
65	66	1
120	120	2
117	117	6
139	139	1
129	131	1
114	136	2
66	66	4
82	82	3
129	129	3
124	147	2
64	120	1
146	147	2
137	137	3
32	50	3
61	61	1
137	142	1
50	51	1
29	78	1
85	123	1
21	21	2
132	133	1
99	100	1
11	13	1
32	32	1
30	77	1
3	4	1
155	157	1
48	49	1
151	157	1
61	71	2
129	130	1
125	125	1
141	141	1
78	85	1
157	158	2
92	92	1
98	107	1
7	14	1
129	157	1
