31	31	13
62	62	14
51	52	5
66	66	4
26	26	10
55	55	17
14	14	22
52	52	11
75	75	7
37	37	8
6	6	16
15	15	5
49	49	12
32	63	1
32	64	8
78	78	8
10	14	4
30	30	18
2	2	14
11	11	14
68	68	8
61	61	14
27	27	8
48	48	6
21	21	2
74	74	13
56	65	5
4	4	11
64	64	8
12	12	5
49	50	3
2	4	4
76	76	9
66	68	2
30	66	2
54	54	13
69	69	4
8	12	3
6	13	6
65	65	9
75	77	3
10	10	11
79	79	10
70	71	6
9	9	7
60	61	2
33	52	1
3	52	6
63	64	3
39	39	11
1	1	11
72	76	1
67	70	2
67	69	4
35	35	6
57	57	9
43	47	4
41	41	5
11	72	2
42	42	21
45	45	6
25	68	1
36	37	6
46	46	4
60	60	6
25	71	1
21	76	2
73	73	10
33	77	3
33	33	12
66	67	7
71	71	3
39	48	1
25	74	2
17	17	9
28	29	2
8	8	8
80	80	4
67	67	5
41	49	1
0	0	8
31	32	3
53	53	9
43	43	3
69	70	6
55	56	2
27	28	3
8	13	3
58	58	10
3	6	1
67	68	5
21	25	1
28	28	9
38	38	8
34	63	3
46	47	5
72	73	1
13	13	11
56	56	3
7	7	5
47	47	4
36	36	2
72	72	7
16	17	3
50	52	3
40	40	5
18	20	2
3	3	9
35	48	1
17	77	2
51	51	5
50	50	8
21	75	2
59	59	5
3	19	1
19	19	3
17	75	1
5	6	3
33	69	1
6	17	1
20	26	3
12	13	8
44	45	4
10	11	5
69	72	3
31	51	1
2	48	2
70	70	1
40	78	1
0	6	1
56	57	3
40	75	4
34	62	1
44	44	2
1	2	1
72	78	3
63	63	4
34	34	1
31	67	3
10	15	1
78	79	3
77	77	2
11	69	1
10	13	1
38	47	1
20	20	1
32	76	1
62	63	3
55	62	5
32	77	1
9	50	1
32	32	3
5	46	2
42	48	4
9	10	1
41	75	2
15	16	2
1	7	1
50	70	2
22	22	1
14	15	2
5	10	3
34	35	2
17	74	1
14	18	1
37	38	1
4	17	3
11	15	1
5	5	1
5	53	1
26	30	1
42	43	1
37	43	1
25	30	1
64	65	1
68	70	1
35	61	1
3	77	1
43	45	1
50	51	1
27	79	1
25	67	1
16	16	2
6	8	1
37	62	1
5	13	1
3	21	1
26	27	1
40	41	1
74	75	1
65	66	1
33	55	1
47	48	1
21	22	1
