43	43	15
75	75	4
65	65	16
53	53	11
114	114	16
55	58	6
84	84	5
51	53	1
81	82	1
105	105	10
113	113	20
103	107	4
56	58	2
47	47	11
55	55	13
31	42	3
78	81	8
33	34	9
33	33	19
62	62	19
38	38	8
21	21	13
79	79	18
47	49	6
44	44	9
24	24	11
26	26	18
83	83	7
96	100	2
98	98	12
35	35	14
48	80	3
86	86	8
76	77	7
99	99	24
79	80	3
100	100	12
45	45	18
96	97	4
32	33	2
95	97	3
51	51	19
82	82	16
103	104	7
109	110	2
21	22	8
71	71	6
98	104	6
25	27	8
105	106	10
37	38	7
70	73	3
86	87	5
29	31	3
99	101	2
30	30	7
50	50	19
89	90	5
22	22	3
77	78	2
20	20	15
34	45	1
72	73	7
59	59	20
82	84	1
56	56	9
68	68	8
91	102	3
58	61	2
107	112	2
62	66	4
36	36	14
37	37	9
89	89	14
60	60	9
83	85	1
34	40	3
78	78	7
104	104	4
74	74	11
71	72	5
60	61	10
63	63	9
94	94	6
41	41	10
112	112	4
46	46	16
34	34	8
106	106	8
36	37	4
87	89	3
64	65	8
30	41	6
101	101	11
58	58	2
76	76	7
40	40	15
34	35	6
74	76	1
97	97	9
52	52	15
39	39	15
32	32	17
88	88	3
64	64	6
80	80	6
85	98	3
77	77	5
67	68	9
41	42	8
78	80	1
100	113	1
48	53	5
80	93	2
38	62	6
31	31	8
70	70	8
61	61	3
66	66	6
54	55	5
85	85	8
112	113	3
27	28	5
66	72	6
91	103	5
25	26	7
89	102	3
107	107	8
78	79	5
110	110	5
93	93	13
42	43	4
87	88	3
69	87	2
95	96	3
31	32	5
27	27	13
54	54	9
74	75	3
66	71	6
50	51	2
65	76	3
44	53	4
39	97	2
35	36	1
47	80	6
43	45	1
25	25	7
65	73	6
73	74	3
49	59	2
72	72	11
103	103	7
58	59	5
94	112	1
104	105	3
49	49	15
67	67	5
81	81	6
29	29	10
94	95	6
30	39	3
95	95	4
57	57	2
70	71	4
54	61	2
51	52	8
111	111	7
23	23	1
69	69	5
91	105	3
49	82	3
102	102	2
44	45	3
52	53	3
108	108	3
42	42	8
101	112	3
69	70	2
46	60	2
87	87	4
39	40	5
36	45	5
73	73	7
104	108	3
40	41	3
104	106	7
97	102	3
109	109	4
34	42	4
100	101	3
26	27	4
66	69	5
53	54	2
107	111	1
28	29	4
43	58	1
32	37	1
32	108	1
40	42	4
101	106	5
88	89	2
107	109	3
61	62	2
90	90	4
20	21	4
65	66	3
89	92	2
102	103	2
62	65	1
85	86	2
54	58	4
103	108	2
96	98	2
99	100	6
68	100	1
92	92	6
28	28	6
97	99	1
62	83	3
110	112	3
93	94	7
88	91	3
68	69	2
67	71	1
102	105	1
97	104	2
90	91	2
104	107	1
58	71	2
37	109	1
106	107	2
63	64	5
80	81	2
98	103	2
61	63	2
95	99	4
102	109	1
110	111	1
52	54	1
77	79	1
98	99	2
20	22	1
36	46	1
47	50	1
48	48	1
96	96	2
67	87	2
101	108	1
87	107	1
69	101	2
91	112	1
102	104	3
78	93	1
38	86	1
20	30	1
87	90	2
61	66	1
49	50	2
34	43	1
28	30	1
60	84	1
72	75	1
107	108	1
92	108	1
23	27	1
36	85	1
40	98	1
