125	125	8
112	112	3
19	20	4
98	98	9
31	32	1
10	10	3
11	11	8
77	77	3
56	59	2
76	76	5
26	27	7
45	45	9
61	61	6
14	33	1
44	110	1
105	108	3
93	93	1
34	34	8
23	24	4
114	114	4
97	97	7
111	111	4
13	13	13
87	87	9
0	0	4
64	64	4
125	133	1
74	74	5
95	100	1
40	96	2
88	89	2
119	119	7
67	67	8
15	15	9
129	129	10
79	79	6
19	19	3
34	35	2
131	131	4
48	94	2
124	124	6
128	129	1
26	26	5
85	121	1
82	82	11
100	101	5
55	55	5
68	68	4
39	39	6
5	6	3
21	22	2
20	21	4
69	69	4
80	80	8
103	105	8
132	132	7
14	14	2
19	21	1
6	6	7
4	5	3
9	10	6
73	74	3
117	117	10
29	29	5
23	73	2
14	69	3
16	16	3
78	79	2
110	111	4
75	77	2
25	25	9
95	95	7
57	57	15
90	90	5
85	90	2
70	71	3
11	12	1
23	72	1
92	92	6
40	40	9
102	103	2
17	17	3
58	58	7
93	94	2
121	121	5
102	102	7
112	134	1
30	30	10
56	56	9
30	31	1
39	42	4
5	5	6
22	22	2
84	86	3
58	124	4
35	35	3
70	70	8
86	88	2
46	46	5
37	38	2
28	28	3
23	23	1
12	12	9
48	48	5
18	18	7
81	82	5
41	41	4
128	130	4
46	114	2
7	7	2
20	20	4
18	19	4
105	109	5
96	100	1
59	59	5
106	106	5
128	133	4
32	32	2
100	100	7
94	94	1
16	72	1
62	62	6
105	106	3
63	63	8
80	81	2
127	127	5
24	24	4
37	39	3
44	44	5
123	123	3
68	69	3
58	89	2
55	134	4
15	25	2
15	24	1
104	109	1
89	90	2
36	37	4
122	122	1
0	3	1
103	103	8
65	65	2
8	8	4
95	102	2
115	115	7
107	107	1
4	4	7
22	47	3
47	74	4
33	70	1
121	122	3
18	20	1
86	86	5
126	130	3
118	122	1
57	59	4
11	70	3
110	112	3
125	127	2
62	63	1
134	134	3
120	122	2
41	42	4
60	129	2
94	96	4
126	127	5
38	99	3
132	134	1
123	124	4
84	84	4
74	75	4
103	106	2
60	60	1
58	123	1
24	26	5
55	131	1
91	91	2
18	38	2
104	104	6
74	84	1
25	26	1
1	1	1
20	40	2
21	41	1
86	119	1
11	69	2
44	117	2
101	107	1
112	113	4
38	40	1
88	120	2
101	101	1
72	72	1
91	92	1
122	123	3
125	131	1
73	84	1
75	75	3
81	92	1
109	109	3
113	118	2
99	99	2
84	92	1
94	95	1
131	133	2
24	25	1
29	30	2
84	87	1
122	125	3
6	7	1
132	133	3
14	72	3
36	36	1
130	130	1
71	71	1
104	105	2
27	31	1
84	85	3
42	42	2
108	108	1
126	126	1
0	1	1
38	38	1
0	8	1
127	131	2
14	15	2
10	15	1
66	66	1
66	67	1
104	126	6
22	83	2
28	29	1
17	25	2
105	105	2
73	75	1
55	127	2
116	116	2
79	80	1
16	31	1
102	105	3
46	116	1
108	109	1
84	120	1
43	47	1
21	38	1
125	132	1
83	83	1
56	57	1
105	127	1
