32	32	19
33	111	6
25	25	35
187	187	12
18	37	4
170	170	20
31	31	28
99	99	12
172	172	34
78	87	7
4	133	3
74	74	10
163	163	3
24	25	8
1	1	22
38	38	11
27	27	7
45	45	18
142	142	30
80	80	20
85	85	3
150	155	4
27	29	5
16	16	28
143	193	3
36	36	16
47	47	15
180	182	1
113	113	30
173	176	2
66	66	13
102	102	15
195	197	4
100	167	8
12	16	5
101	101	36
52	52	45
110	110	21
175	175	30
139	139	12
166	166	19
139	140	12
20	20	11
128	128	22
153	166	1
114	122	2
126	127	8
24	24	16
50	50	35
149	149	17
163	164	8
19	20	5
73	73	13
15	15	36
135	135	27
0	0	7
52	58	3
60	60	20
87	87	11
14	14	27
56	56	17
53	110	2
55	55	13
120	120	6
125	125	17
56	104	5
172	183	4
108	108	19
39	39	14
131	131	21
73	195	2
116	162	4
161	163	7
112	112	13
71	71	20
55	187	2
183	183	18
122	122	20
82	88	1
48	197	1
118	177	3
144	145	7
160	160	20
120	176	2
111	112	9
146	196	3
130	130	9
164	164	8
157	157	9
136	137	6
169	184	3
61	71	5
54	54	19
119	119	34
140	140	27
129	129	15
184	184	17
154	154	12
86	86	12
11	11	13
75	75	1
51	51	10
6	6	7
43	43	14
12	12	15
120	184	3
8	8	12
41	41	16
56	187	2
133	133	23
145	145	7
66	73	1
174	175	10
22	22	16
180	180	16
146	147	3
72	72	39
138	141	1
192	193	5
121	121	13
63	64	3
192	192	15
168	168	31
178	178	12
47	108	2
169	169	22
46	46	18
177	180	4
2	2	8
20	24	7
67	68	9
40	40	13
58	58	16
26	26	22
132	133	6
186	186	16
79	196	3
174	174	16
99	104	5
177	177	36
186	187	8
182	182	14
134	136	3
179	179	15
82	82	2
97	97	30
75	76	2
45	50	3
53	102	2
9	10	4
10	10	11
196	196	28
158	158	8
168	169	10
54	80	2
34	41	2
66	78	6
48	48	22
53	53	25
23	23	13
9	24	3
48	184	1
55	57	2
154	188	2
188	188	21
14	15	4
149	150	1
113	114	10
138	158	1
107	107	7
141	141	13
167	169	1
9	20	2
7	22	4
30	30	17
69	69	15
190	190	23
158	159	2
154	156	4
5	5	17
50	56	2
0	1	3
17	32	6
83	187	2
8	18	5
44	44	31
159	160	6
81	194	3
65	65	10
135	172	2
20	22	2
33	40	6
13	13	37
77	77	21
40	74	1
121	122	4
98	98	6
132	132	8
99	100	5
61	61	15
47	48	1
31	32	11
69	71	2
3	137	1
134	134	13
96	96	11
114	178	2
173	173	21
33	33	17
84	84	14
167	167	21
83	189	1
173	174	12
72	81	3
116	156	7
145	152	1
39	40	5
25	26	9
140	159	4
18	18	18
175	176	10
101	102	4
28	28	11
185	185	26
88	187	3
64	96	1
138	140	7
17	17	15
142	195	3
4	4	12
143	143	21
123	123	18
74	76	1
9	9	29
55	56	5
38	42	3
34	34	11
100	102	1
110	111	2
159	159	8
180	181	3
57	61	6
45	47	7
162	163	4
112	115	1
126	126	6
54	187	5
82	83	5
58	60	4
165	165	8
119	171	1
106	106	14
147	152	1
130	132	3
99	155	3
116	116	15
71	72	5
97	151	1
95	110	1
48	50	2
70	70	24
61	80	3
193	193	20
155	155	10
161	161	17
195	195	28
37	38	7
114	115	6
135	136	9
3	3	25
179	181	8
105	112	4
43	44	8
104	106	1
42	42	16
53	98	1
147	147	8
135	142	3
121	123	1
196	197	2
175	178	4
185	194	7
6	39	7
58	59	8
146	154	2
76	77	17
49	49	10
42	43	8
122	159	3
29	29	14
111	111	6
171	171	11
49	50	9
115	117	5
146	146	7
176	177	8
140	197	5
7	7	10
108	110	1
70	71	14
131	132	8
48	51	5
109	184	6
95	96	4
73	138	2
64	196	3
127	127	23
5	6	8
50	51	5
123	159	1
134	135	12
105	106	3
119	179	4
191	192	7
97	98	9
4	8	2
115	115	20
35	35	17
119	121	3
121	171	1
129	132	5
101	119	2
55	107	2
26	31	5
97	168	3
101	117	2
56	185	6
151	151	4
176	176	3
83	85	2
103	103	6
89	196	3
114	114	24
57	58	2
170	185	3
109	109	7
131	161	3
164	165	1
54	103	1
76	76	22
94	94	7
78	78	20
156	156	15
2	39	1
115	118	3
12	13	6
17	45	1
34	35	6
157	158	4
97	99	4
46	47	14
23	24	9
179	180	4
19	19	17
124	124	13
84	85	4
105	105	12
48	49	5
43	76	1
6	7	3
53	57	2
41	42	4
102	103	9
66	67	6
25	32	2
191	191	13
114	196	4
67	81	1
14	17	3
94	112	2
185	196	5
150	150	32
64	64	18
72	137	2
184	195	1
162	162	5
85	189	8
95	95	9
27	28	4
89	149	3
109	182	5
108	196	2
139	159	3
189	189	6
107	195	3
112	113	5
0	143	2
181	181	14
59	59	15
136	136	19
93	154	1
166	167	6
85	192	2
182	193	1
130	163	3
117	190	3
155	156	2
197	197	14
119	177	4
102	105	3
77	78	3
115	119	1
53	112	1
102	112	1
61	78	4
54	149	2
90	90	3
67	67	4
29	30	7
55	196	2
21	38	1
26	124	1
43	52	1
83	84	2
127	140	3
165	166	15
60	87	3
20	27	5
17	63	1
74	84	3
88	89	3
121	124	2
35	36	3
104	104	15
79	79	10
17	68	2
89	90	3
100	103	2
117	117	6
193	197	1
62	87	1
163	171	2
51	56	1
100	100	9
124	167	3
56	57	4
115	116	3
42	68	2
33	36	1
83	83	6
21	39	2
79	80	3
33	34	3
137	138	2
83	86	5
178	179	2
65	75	1
47	50	6
63	63	12
172	173	5
72	143	2
119	186	1
37	37	13
93	93	3
116	122	4
194	194	7
134	158	4
12	15	2
75	84	1
184	185	7
68	68	9
137	137	15
187	188	2
58	61	1
29	195	1
60	61	6
148	149	2
192	194	2
14	19	6
17	18	6
45	49	3
22	27	9
77	82	3
26	29	5
154	155	3
87	88	3
106	108	2
118	118	12
54	102	3
121	161	1
56	58	2
106	111	1
22	24	2
11	12	1
104	114	1
7	8	10
59	61	1
185	186	14
5	39	1
100	101	7
129	137	2
3	4	1
94	97	1
62	62	6
9	14	1
46	98	2
151	166	2
8	37	3
73	74	6
14	20	3
118	172	2
29	34	4
89	153	1
5	184	2
98	167	3
183	184	3
33	108	3
77	195	1
143	145	5
148	148	7
57	57	8
96	97	8
187	192	4
93	94	3
140	144	1
101	188	1
36	37	3
2	132	3
106	107	1
116	117	7
21	21	2
28	31	1
25	27	1
0	95	3
56	112	1
26	36	3
79	106	2
66	79	4
16	17	8
155	157	2
101	171	2
156	165	3
45	67	1
128	129	5
57	196	1
47	169	4
8	10	2
88	189	1
144	144	10
129	136	1
169	170	4
194	195	4
68	73	5
61	79	2
156	170	5
49	55	1
152	153	2
2	73	2
109	181	2
26	27	9
82	87	3
54	57	5
182	183	5
37	40	4
38	39	5
176	178	3
169	185	2
134	144	1
94	95	4
60	89	2
152	190	1
108	195	2
109	110	5
37	44	1
107	189	2
26	28	4
32	33	6
3	6	1
124	186	1
120	173	1
10	130	1
116	123	1
58	63	2
37	42	1
119	188	1
103	188	1
127	128	4
149	155	1
157	159	2
179	187	1
37	39	2
190	192	4
163	170	4
121	140	2
149	154	2
81	81	11
11	15	2
111	113	2
74	75	1
42	69	3
18	52	1
134	156	1
16	20	3
17	33	1
65	78	2
126	167	1
119	172	2
181	182	2
16	46	6
12	70	4
159	161	4
161	164	2
178	188	1
119	120	3
78	82	2
5	136	2
152	154	4
4	6	1
46	52	1
19	25	3
195	196	1
104	105	2
152	152	2
4	5	1
89	155	2
148	186	3
125	126	3
14	78	1
174	179	1
68	81	1
54	55	2
11	19	2
88	88	1
111	180	1
171	172	2
110	184	5
37	75	2
113	185	2
14	18	7
81	87	2
116	179	1
43	112	4
18	62	2
107	108	1
100	170	3
78	79	5
6	8	2
75	77	1
174	178	4
104	119	2
118	162	1
73	128	3
98	100	1
99	151	2
129	143	2
0	73	1
18	42	2
160	168	4
153	153	2
101	115	2
56	63	6
121	149	2
23	58	1
30	31	3
21	36	1
151	154	1
142	168	1
86	192	1
93	100	1
122	195	1
119	149	2
47	127	2
162	164	3
133	136	1
78	196	1
89	89	2
80	82	3
171	184	1
141	197	1
9	13	3
113	196	1
118	119	1
144	193	2
16	33	2
40	41	3
89	189	2
39	42	3
53	114	2
114	149	1
48	183	2
123	192	3
83	89	1
115	174	1
49	185	4
42	45	3
178	187	1
34	40	1
25	31	3
81	83	1
47	168	1
168	170	1
175	177	1
103	187	1
78	80	2
15	70	1
20	30	3
185	197	3
131	160	3
123	193	2
109	111	1
15	19	5
49	169	2
109	183	1
3	136	2
52	53	1
164	171	1
119	173	1
121	176	1
80	86	4
138	138	5
25	33	1
140	141	1
104	190	4
108	109	1
58	62	1
22	23	2
38	74	3
80	81	1
41	84	1
8	21	1
61	62	2
128	151	1
0	2	1
46	51	2
53	186	2
167	170	2
22	58	1
66	128	2
35	39	1
98	168	1
167	168	1
101	103	2
124	132	1
68	69	1
32	108	3
75	78	1
60	62	1
42	44	2
137	155	1
117	118	5
182	187	1
47	51	1
93	151	1
88	150	2
43	133	3
43	45	1
12	17	2
44	45	2
185	195	2
31	37	2
113	169	1
103	112	4
123	147	1
130	131	3
8	9	1
152	156	1
177	189	1
94	99	3
108	111	1
142	143	1
2	42	1
58	107	1
150	151	1
31	33	1
64	72	2
10	44	1
140	158	1
24	33	1
136	155	1
123	177	1
9	11	1
94	152	1
93	97	1
98	124	2
147	158	1
141	184	1
13	14	1
106	112	1
28	29	2
84	86	1
51	57	1
26	30	3
124	147	1
113	197	2
129	130	1
110	112	1
11	22	2
142	170	1
42	133	1
5	137	1
152	157	1
164	172	1
160	161	2
53	58	1
66	69	2
65	66	1
50	167	1
173	175	1
123	124	1
79	112	1
61	87	1
183	186	2
80	90	1
62	63	1
179	182	2
117	162	2
11	18	1
138	177	1
99	171	1
5	135	2
102	111	1
96	152	1
43	111	2
64	128	1
96	98	1
101	172	1
71	128	1
147	151	1
64	73	2
142	145	1
25	28	2
120	161	1
1	73	1
50	53	1
10	11	1
188	191	1
174	177	1
77	85	2
53	54	1
97	109	1
41	80	1
165	167	1
53	113	1
161	172	1
121	138	1
135	140	1
122	183	1
2	37	1
72	129	1
81	84	1
