48	53	2
44	44	14
52	52	9
63	63	17
47	47	10
89	89	21
61	100	5
73	73	13
72	72	22
70	70	16
65	65	20
87	87	23
69	69	16
68	68	13
95	95	16
72	77	4
37	37	8
99	100	4
78	78	35
97	100	6
59	86	7
76	76	24
79	79	11
43	43	6
61	61	9
75	75	28
45	45	7
78	79	3
20	20	5
26	26	8
97	97	12
58	68	4
27	27	11
86	89	9
32	33	3
45	53	3
81	88	1
34	34	9
85	100	3
62	63	4
33	43	3
49	80	2
31	31	9
35	36	8
66	66	19
33	33	6
76	77	5
79	88	2
50	50	12
100	100	4
71	71	19
72	73	7
71	72	5
73	74	7
56	67	4
83	83	13
79	83	1
77	78	4
61	64	2
95	96	11
51	51	6
51	67	6
90	90	13
86	99	1
44	54	5
62	62	18
60	60	2
46	46	15
66	67	9
93	93	12
54	55	10
26	27	8
59	62	1
43	53	3
41	41	11
67	67	25
69	71	7
93	98	4
24	24	7
98	100	3
50	52	14
93	94	3
67	76	3
36	36	10
77	95	1
80	81	13
64	64	17
88	89	3
86	94	2
72	81	2
77	77	10
61	62	4
27	34	2
56	92	1
96	96	6
70	71	1
37	39	2
75	76	1
78	90	2
70	72	2
59	59	7
66	68	4
76	88	1
78	81	1
64	89	2
99	99	5
86	86	12
74	76	6
61	63	3
98	98	12
29	31	3
73	75	2
83	84	7
92	92	13
49	52	1
69	82	2
70	81	2
74	75	4
101	101	4
32	44	1
70	90	5
42	42	8
51	52	3
65	67	2
85	99	1
87	88	11
85	85	10
80	80	17
60	65	4
27	39	2
65	66	3
75	78	6
23	29	2
91	91	5
83	96	1
74	74	20
84	84	8
77	87	2
43	45	1
27	36	4
93	101	1
77	81	1
52	63	2
92	93	5
50	70	2
90	92	3
50	59	4
55	55	7
38	39	4
58	58	9
80	84	4
88	91	5
29	30	3
69	73	2
48	48	5
79	80	8
78	86	2
25	25	8
57	57	8
86	95	4
71	74	4
94	95	5
57	71	3
28	76	1
40	40	12
82	82	2
67	78	3
42	44	1
88	88	10
35	35	3
41	57	1
31	35	1
50	58	3
58	87	2
86	87	6
54	54	8
20	67	5
53	54	9
81	89	2
65	68	5
72	74	5
62	65	8
94	94	10
32	34	1
71	81	3
37	38	3
47	55	1
36	37	1
62	93	2
33	38	2
58	59	5
81	82	7
37	53	1
24	25	6
53	56	1
84	96	2
54	58	1
80	83	2
38	38	11
41	53	3
73	84	2
56	80	1
31	70	1
22	23	3
79	81	5
88	94	5
68	76	3
64	69	2
63	86	3
93	96	2
48	52	1
65	80	2
62	68	3
55	59	3
65	70	2
30	30	5
28	28	6
100	101	2
63	66	3
80	89	3
35	47	4
63	64	4
82	88	1
84	86	1
55	82	1
42	43	4
41	42	2
35	44	2
59	90	2
57	59	2
81	87	3
49	49	5
89	90	4
48	56	2
67	68	6
54	81	3
34	43	3
81	81	16
48	49	5
40	41	1
76	87	2
74	88	8
56	57	4
48	54	4
56	71	1
98	101	2
90	101	4
46	59	1
56	90	1
21	26	1
91	93	1
46	62	1
91	95	1
99	101	2
44	67	1
94	97	2
51	61	1
67	73	1
29	39	1
58	88	1
47	48	2
51	62	5
60	77	4
69	77	2
79	82	2
87	91	1
53	53	4
57	78	2
44	45	2
25	33	2
36	39	1
55	89	1
55	56	2
51	66	3
76	80	1
92	94	1
39	39	9
80	82	3
51	54	2
26	36	3
29	61	4
83	85	3
95	98	3
60	62	1
68	70	1
88	102	1
69	70	1
40	43	1
46	48	2
76	78	1
77	79	3
57	58	5
84	95	1
85	101	5
62	73	4
35	42	1
73	89	1
22	22	2
54	56	1
70	73	6
69	79	3
28	39	1
75	88	1
37	40	3
91	92	3
45	49	3
96	97	3
93	99	1
60	79	2
69	80	1
57	87	1
101	102	2
56	82	2
56	58	3
98	102	5
63	65	1
31	33	1
50	51	1
84	101	1
60	61	1
65	76	1
77	89	3
64	65	4
42	52	1
71	82	2
53	63	1
64	74	1
89	102	1
70	74	1
85	86	1
58	60	6
89	96	2
89	95	1
88	101	1
51	64	1
56	56	4
55	57	2
57	60	1
82	83	1
87	96	1
94	98	1
56	59	1
34	35	2
29	29	1
85	87	1
35	53	1
62	77	1
66	81	1
97	101	1
37	51	3
69	76	2
43	44	1
97	99	2
45	55	1
54	67	1
82	95	2
96	99	1
77	82	1
71	79	1
20	84	1
59	60	1
37	46	1
71	80	1
64	67	1
62	64	1
38	50	1
68	75	1
