161	162	1
59	61	5
120	120	7
41	41	6
67	67	4
57	57	4
34	34	2
140	140	3
10	29	2
122	122	3
160	160	3
112	113	1
32	32	3
5	5	5
71	71	12
12	13	4
35	35	8
36	36	3
169	169	8
51	51	8
131	131	3
106	106	9
144	144	2
72	72	8
22	22	2
119	119	4
60	63	1
96	100	3
89	89	10
77	78	4
27	27	4
148	148	4
30	30	2
61	66	3
64	64	4
115	115	1
27	116	3
106	107	5
154	154	5
148	149	4
176	176	4
168	168	2
50	50	5
135	135	5
65	65	5
92	92	8
111	111	2
30	31	1
152	152	2
14	30	3
27	31	1
141	160	1
140	154	2
112	112	5
0	4	1
167	167	3
130	147	3
14	15	4
125	126	3
9	9	1
5	6	1
6	6	7
150	151	5
90	90	5
93	93	3
80	80	4
107	107	4
91	110	3
97	115	1
166	166	8
143	143	3
18	18	3
32	39	3
102	140	3
121	121	7
63	64	3
25	25	2
172	172	8
91	107	3
128	128	4
123	123	3
124	124	4
28	115	4
146	146	3
173	173	4
62	62	2
102	154	2
121	130	2
118	119	3
88	88	8
140	180	1
17	17	3
108	109	1
40	40	2
56	56	4
85	94	1
8	9	3
74	74	9
43	44	4
73	73	6
116	116	6
60	67	2
82	84	2
12	12	3
5	10	1
71	88	1
113	114	3
109	161	6
95	96	1
15	25	6
144	166	2
43	43	5
42	42	4
149	149	2
158	158	5
165	166	2
50	55	2
12	16	2
82	82	3
16	16	1
100	136	4
130	131	1
119	133	1
77	77	1
97	97	2
146	179	3
144	145	3
14	14	2
103	103	2
4	5	1
96	96	3
179	179	3
133	133	1
115	116	6
65	66	3
127	128	1
130	130	1
64	65	2
177	177	2
45	45	3
101	101	4
35	37	1
166	176	2
39	39	2
138	138	2
118	118	2
18	22	1
53	53	2
61	61	3
113	113	3
151	166	1
81	81	2
114	114	2
75	75	1
60	60	4
141	141	3
117	117	5
58	58	1
147	148	1
81	83	1
76	76	2
49	49	2
159	174	2
150	150	2
164	165	1
50	57	1
68	68	1
87	87	2
135	160	2
22	23	3
157	157	5
15	23	1
108	170	2
3	7	1
123	124	2
95	95	1
143	144	1
58	61	1
151	161	2
52	53	1
174	174	5
1	14	1
114	115	4
148	180	2
171	171	2
91	106	1
145	164	1
98	137	1
85	86	1
99	100	3
164	164	2
169	174	1
120	131	1
25	44	1
27	30	2
42	52	2
3	6	2
108	108	2
109	151	2
136	161	1
91	111	1
40	52	2
33	33	2
41	42	1
66	67	2
125	125	2
143	158	2
94	94	1
135	170	2
54	55	3
126	127	2
63	63	3
91	93	3
55	56	2
142	143	2
142	142	2
158	159	1
137	137	1
19	19	1
135	151	1
134	134	2
16	34	1
141	154	2
127	127	1
14	16	1
10	10	1
86	86	1
24	24	1
177	178	1
32	40	2
98	116	1
55	55	2
54	54	2
101	120	1
78	96	1
96	137	1
153	153	1
24	40	1
