146	146	4
84	94	3
15	16	3
16	16	3
21	21	4
130	130	3
92	92	2
123	150	2
50	54	4
54	54	1
74	74	2
45	114	1
112	112	10
42	45	3
30	30	2
109	109	3
23	23	10
147	148	3
27	27	2
122	122	3
28	30	4
80	81	3
38	38	8
116	116	2
122	123	4
47	47	5
136	145	2
12	12	4
34	34	3
92	93	1
14	14	5
11	107	3
67	67	6
73	73	3
143	143	5
28	28	1
5	5	2
131	131	5
115	115	14
94	96	3
76	76	3
149	149	8
140	140	3
6	43	4
81	81	2
43	44	1
130	132	1
32	32	2
95	95	12
119	119	3
21	23	7
102	102	9
118	118	4
104	104	5
111	111	6
128	138	1
72	72	1
150	150	1
85	85	5
70	70	2
151	154	2
11	151	2
14	109	2
58	58	3
117	117	2
40	40	5
132	132	2
46	46	8
41	41	2
26	27	7
13	13	10
145	147	3
24	24	2
100	100	4
104	108	2
15	15	8
64	64	3
144	144	1
81	82	3
76	83	1
135	136	4
9	18	1
69	111	3
84	85	1
42	46	2
51	51	3
136	136	4
142	142	7
128	128	6
63	63	8
135	135	5
18	18	2
152	153	3
99	99	3
45	46	5
71	71	3
33	33	5
69	69	3
147	147	6
8	9	1
126	145	1
66	66	1
54	71	2
55	57	4
131	135	3
145	146	2
31	114	2
97	99	2
48	53	1
42	43	3
29	29	8
107	107	5
63	64	1
15	37	1
133	134	2
138	138	1
150	151	5
66	67	1
84	84	4
24	28	1
106	106	4
55	55	3
53	53	1
17	17	1
17	18	6
105	105	3
65	66	1
44	44	3
37	37	4
134	134	5
128	129	4
82	82	4
116	117	1
12	13	4
7	7	3
19	19	8
133	133	1
17	38	2
100	127	1
3	16	1
56	105	1
40	41	3
113	113	4
86	86	3
72	73	1
77	77	2
137	145	1
111	112	1
100	117	1
10	10	2
152	152	1
69	118	2
153	153	4
139	140	1
120	121	1
103	103	4
29	30	2
45	45	1
119	121	2
13	85	3
129	129	6
146	147	1
15	151	1
87	87	1
48	48	4
149	150	2
2	2	1
62	62	3
36	36	2
151	151	3
112	113	1
56	107	1
6	42	1
42	42	3
36	37	3
20	20	1
143	144	1
123	124	3
3	45	2
88	126	2
128	137	2
81	86	3
48	51	1
71	111	2
95	96	1
94	94	4
70	72	2
11	14	1
58	62	1
9	9	3
85	86	4
25	25	1
16	25	3
81	83	1
49	49	3
49	53	4
66	84	2
114	114	1
31	32	1
28	29	1
68	68	5
77	78	2
4	4	1
76	78	1
124	124	3
105	106	1
10	107	1
20	21	3
148	148	1
67	68	4
98	98	1
96	96	1
31	115	2
56	57	1
98	99	2
44	113	1
57	57	1
136	137	1
50	53	1
21	22	1
34	63	1
50	50	2
142	143	2
125	125	1
13	150	1
51	55	1
39	40	3
39	39	3
124	125	1
132	133	4
78	78	1
101	101	1
16	17	2
78	123	1
4	5	1
20	106	1
56	56	2
7	43	1
98	121	1
154	154	1
24	25	1
94	113	2
72	111	1
87	88	1
10	13	1
113	114	1
83	83	1
125	128	1
72	139	1
128	140	1
75	82	1
