49	63	1
92	92	3
50	54	4
221	221	3
97	167	3
18	18	4
47	57	4
185	185	3
194	204	2
168	168	11
195	199	2
18	21	1
45	45	3
72	77	3
183	188	2
35	87	2
197	197	4
151	151	6
229	234	1
198	198	3
32	32	8
183	183	1
213	213	2
72	74	5
164	164	5
160	164	3
208	209	5
30	30	4
232	233	3
7	7	1
200	209	1
14	14	1
95	95	9
240	240	2
68	68	2
203	204	1
112	113	1
38	38	1
248	248	1
15	19	1
10	25	4
78	79	1
37	37	2
160	166	1
11	11	6
22	28	1
107	107	1
85	97	3
26	28	1
66	68	5
15	16	2
73	86	2
105	111	2
35	38	1
172	173	1
61	70	3
217	217	4
79	80	2
4	4	2
175	175	4
215	224	1
3	14	1
208	208	9
163	163	6
53	69	2
74	84	3
45	65	1
80	90	3
196	199	3
218	218	1
21	22	2
184	186	1
64	65	3
50	50	1
209	221	2
209	210	1
237	237	5
195	198	3
187	200	2
243	244	1
150	150	5
154	165	1
0	3	4
164	181	1
37	38	5
96	96	4
165	168	2
180	180	3
210	211	2
27	27	5
23	33	8
164	177	2
238	239	3
38	46	2
79	79	5
210	212	3
169	170	1
86	175	6
77	77	2
39	43	3
86	102	1
9	12	4
193	205	1
42	42	2
33	39	1
46	46	1
164	178	3
230	230	7
170	181	1
90	102	4
219	241	1
240	242	2
173	176	2
185	202	2
7	9	1
199	200	3
116	118	1
10	10	2
3	4	1
206	206	1
201	216	3
21	29	1
154	155	3
106	114	2
207	228	1
176	176	2
61	76	1
70	80	1
211	211	2
117	117	9
238	238	3
234	243	1
204	205	4
219	227	5
62	65	1
97	105	4
10	21	1
38	39	2
74	77	2
188	188	3
30	41	2
219	220	2
64	64	3
43	50	1
53	53	2
54	79	1
25	157	2
152	152	2
232	232	3
215	217	1
182	183	1
22	22	7
241	241	2
178	187	1
216	217	3
190	190	2
229	229	3
58	58	1
212	212	1
162	162	7
36	39	4
195	195	1
151	152	1
169	169	7
6	7	1
199	199	1
202	214	1
199	212	1
10	19	1
72	78	1
29	42	1
234	237	1
163	165	3
76	79	3
9	9	5
3	3	1
172	172	3
94	94	4
170	170	1
85	98	2
187	193	3
116	117	1
196	209	6
39	39	1
192	204	2
104	107	4
40	44	1
88	95	2
244	244	3
214	222	1
117	119	3
236	247	1
171	192	1
245	248	2
2	14	2
200	200	1
14	15	1
166	166	1
6	186	1
222	226	1
52	52	2
80	81	2
155	155	6
179	179	3
59	61	2
55	55	2
5	8	4
220	223	2
43	43	4
54	61	2
49	62	1
230	234	1
242	243	3
76	76	1
229	233	1
88	88	4
209	217	1
75	87	2
70	70	4
47	48	1
215	220	3
77	87	1
12	12	4
17	18	2
70	71	3
153	154	1
187	188	1
50	51	1
5	34	1
69	81	1
215	216	1
190	192	3
225	225	1
165	172	1
175	178	1
67	67	1
168	176	1
186	186	2
165	166	1
41	41	2
103	112	1
56	58	2
5	5	1
57	57	1
185	196	1
97	97	1
109	119	1
86	86	2
235	235	1
244	245	2
21	25	1
182	182	1
246	246	3
168	169	1
12	18	1
10	11	1
212	221	3
160	162	1
31	48	2
62	63	1
212	213	3
213	219	1
26	35	1
211	214	1
189	189	2
219	229	1
167	177	1
220	227	1
7	198	1
83	91	2
164	175	1
95	102	1
33	34	1
55	67	2
82	82	1
59	71	1
5	7	3
156	156	2
67	76	1
33	35	1
90	100	3
171	173	1
29	29	1
27	28	1
45	49	1
67	68	2
202	202	1
194	198	1
236	236	1
195	205	1
239	239	1
178	178	1
217	228	2
173	174	1
181	186	1
4	6	1
219	219	1
150	152	1
170	172	2
24	35	1
234	246	2
180	193	1
88	98	1
186	188	1
14	26	1
227	234	1
9	11	1
6	6	1
6	17	1
160	160	1
159	159	1
242	242	2
34	84	1
183	197	2
48	59	1
177	183	1
35	35	1
154	154	1
75	75	1
226	236	1
191	201	1
240	247	1
225	228	1
49	49	1
61	74	1
