31	31	6
103	137	3
65	65	4
11	139	3
94	94	8
115	136	2
130	130	7
73	73	3
157	157	13
47	48	4
112	112	9
16	16	4
7	7	11
0	0	4
140	140	19
29	29	8
46	54	2
127	128	4
28	39	5
95	116	2
124	125	5
106	109	2
38	38	4
120	120	7
4	41	3
123	123	6
101	101	5
111	111	19
113	113	4
88	138	2
42	42	11
119	120	9
119	119	4
99	99	15
139	139	13
152	152	10
107	109	2
154	154	5
100	100	9
80	80	8
9	9	7
21	21	7
14	85	2
7	8	10
88	88	7
105	105	8
138	138	15
150	150	9
6	6	12
66	70	3
41	41	4
134	155	5
135	135	9
143	143	6
75	75	4
1	1	4
78	78	10
96	96	4
8	8	4
93	93	11
45	50	5
48	48	11
22	22	7
10	10	8
3	139	3
24	24	13
86	86	11
52	53	2
117	118	4
8	9	11
20	20	11
12	13	2
117	117	8
21	22	2
134	135	10
148	148	6
83	83	8
158	158	4
112	123	1
70	70	3
81	81	10
113	154	3
25	30	4
82	82	8
27	27	9
146	146	10
125	127	2
83	85	2
22	23	12
141	141	14
114	152	3
16	17	3
17	52	4
105	145	3
57	57	3
12	12	6
118	118	3
36	76	5
89	89	6
151	152	3
36	37	3
38	42	2
4	5	1
116	116	4
125	125	6
4	43	4
106	106	13
85	86	3
38	39	2
33	33	2
148	149	4
50	54	4
94	135	2
44	44	11
28	28	7
67	70	2
47	66	1
18	18	7
128	129	3
108	147	1
107	107	6
11	11	4
34	34	3
127	148	2
89	117	1
12	118	3
53	53	3
93	94	2
1	66	2
71	71	1
44	91	2
39	39	6
32	69	2
129	129	15
140	141	4
104	125	2
127	127	8
15	69	1
133	133	7
136	136	7
8	17	1
155	157	2
2	2	4
63	63	2
144	144	13
86	87	1
31	32	1
5	5	1
62	64	2
159	159	4
107	108	3
45	45	6
91	93	2
78	111	3
46	50	1
52	54	2
37	37	8
113	115	3
134	134	1
83	84	2
126	141	1
26	26	8
41	43	3
67	67	4
0	2	1
76	77	2
126	126	3
67	136	3
8	124	1
2	40	2
121	121	13
104	105	4
132	132	4
127	140	1
108	108	4
144	157	4
36	36	3
19	19	6
98	98	7
54	54	3
68	68	4
3	131	2
40	41	2
27	30	2
71	157	4
95	95	4
17	18	3
39	40	5
13	13	6
3	63	2
49	54	2
0	1	6
109	109	5
71	72	3
33	37	2
155	156	1
33	36	3
47	84	4
19	20	5
128	128	9
93	117	3
142	142	4
39	42	1
67	68	2
114	115	4
51	95	2
103	127	2
50	51	4
101	102	1
50	50	5
64	71	2
77	77	17
66	66	4
8	10	2
49	49	5
36	51	1
129	130	3
115	115	3
79	80	2
51	51	4
0	56	2
155	155	3
6	67	1
43	64	2
122	138	2
110	110	5
87	89	2
107	146	4
43	43	4
86	117	1
69	84	1
144	145	2
39	128	3
120	143	2
105	106	4
121	122	3
47	47	8
131	132	4
149	149	8
75	83	1
30	30	5
117	155	3
64	68	2
23	29	5
132	133	1
4	4	2
144	155	1
134	154	2
92	92	2
156	156	6
146	147	2
26	65	1
32	33	2
25	25	3
51	56	1
32	32	3
147	147	4
124	124	1
6	55	2
97	103	3
103	103	6
116	117	1
17	17	1
36	92	2
107	114	1
130	131	3
14	15	1
29	37	1
103	148	1
114	114	5
46	46	2
79	79	1
125	126	2
92	156	2
94	156	1
3	43	2
85	85	4
68	69	5
31	94	4
126	127	2
47	53	3
70	71	3
109	149	1
22	29	3
93	119	2
21	29	2
97	98	1
62	62	1
93	135	1
28	30	1
7	10	1
2	131	3
69	69	2
4	64	2
0	135	1
24	29	1
8	12	1
33	34	2
108	111	2
97	97	4
127	130	1
142	155	4
100	101	1
122	122	5
4	68	1
20	51	1
140	142	1
13	70	1
21	23	1
92	117	1
116	137	1
90	90	2
36	131	2
145	145	2
121	123	1
75	76	2
153	153	2
113	156	2
14	14	4
80	81	1
151	151	1
87	87	2
103	154	2
65	66	1
51	52	2
35	35	4
34	35	1
77	78	2
142	143	1
35	36	2
3	3	2
18	20	3
138	139	2
24	30	2
108	148	2
143	156	1
96	121	1
30	31	2
98	135	2
8	15	1
12	15	2
38	49	1
84	84	2
37	131	2
11	120	2
4	131	2
44	48	1
92	93	1
93	154	3
9	11	2
137	137	3
3	42	3
104	104	1
40	43	1
52	52	1
36	53	1
129	132	2
2	128	1
2	41	1
47	51	2
88	117	1
53	143	1
120	121	1
63	64	1
97	99	2
40	40	1
82	83	1
115	116	1
46	47	1
143	145	1
6	9	2
56	56	2
4	40	1
79	85	2
3	133	1
14	37	1
6	26	1
137	138	1
22	24	1
23	24	1
54	55	1
95	122	1
99	100	1
111	112	1
31	70	1
81	87	1
34	94	1
116	154	2
36	94	1
