219	222	9
19	21	2
74	75	1
221	224	3
112	113	4
30	30	6
43	43	1
224	224	5
48	48	3
157	168	5
174	203	3
21	28	4
33	68	2
56	175	1
119	119	3
32	33	9
82	101	1
36	53	4
191	194	2
51	55	3
155	167	3
201	207	2
189	209	6
116	116	2
31	39	3
156	156	2
229	233	2
240	240	1
97	97	3
10	12	4
77	79	3
182	195	2
52	55	2
42	46	3
160	164	1
61	63	6
189	203	4
174	180	4
42	44	3
236	239	2
215	239	2
242	243	4
234	234	3
68	68	1
211	237	3
29	35	6
6	24	2
168	172	4
193	199	3
171	186	1
65	65	3
222	244	3
84	86	1
58	62	2
107	108	2
86	88	3
228	232	1
215	222	2
69	69	4
93	99	2
22	25	5
16	16	11
101	117	2
54	54	4
0	20	2
55	59	4
27	27	5
73	74	2
158	161	2
212	229	1
41	43	5
34	60	3
3	7	2
89	92	8
93	93	4
167	167	3
75	79	5
199	199	1
164	164	4
222	223	6
77	77	7
32	32	10
16	18	2
244	244	3
86	90	5
27	30	5
27	33	2
2	4	6
48	53	2
27	235	5
96	96	3
164	185	3
241	248	2
233	233	3
176	190	5
147	150	2
227	234	2
22	22	6
35	64	1
100	109	3
215	217	2
25	25	4
212	212	3
55	56	3
24	25	4
58	59	4
178	195	1
169	175	1
174	174	3
178	182	3
19	20	7
95	95	3
212	213	1
45	50	3
151	151	6
219	219	6
14	38	1
52	52	3
159	176	3
184	186	6
177	177	5
237	237	9
184	205	2
245	246	8
52	67	1
77	86	5
70	71	5
200	213	3
223	223	6
151	155	6
155	156	5
53	53	3
153	160	1
23	23	6
165	197	2
96	101	1
64	67	1
181	188	4
191	203	2
20	24	5
35	38	2
77	94	2
192	201	1
58	58	1
28	31	5
182	182	3
220	220	2
217	248	3
110	110	13
20	20	7
96	99	2
179	190	4
231	231	4
60	60	8
15	18	1
116	120	3
55	55	4
186	189	3
196	199	2
215	237	1
215	215	2
18	18	3
42	63	2
81	90	2
5	10	2
246	248	3
83	150	1
18	19	5
82	82	5
95	108	3
65	66	3
105	107	3
72	75	4
155	155	1
159	165	2
171	171	2
61	81	3
81	208	3
16	42	2
180	180	4
227	231	5
187	187	1
77	81	3
8	8	2
111	113	2
85	94	4
91	107	3
71	76	3
166	171	4
222	222	3
12	14	2
238	238	1
208	229	1
33	36	2
230	233	7
96	108	2
57	57	4
6	11	1
204	215	1
1	15	2
155	186	4
81	82	6
14	16	3
162	165	1
15	16	3
1	4	2
216	220	3
0	11	2
64	76	1
89	91	2
205	217	1
100	104	3
52	57	4
3	9	5
64	95	1
241	243	3
62	74	1
109	110	4
84	108	2
101	101	2
221	222	2
30	31	2
187	208	2
41	41	3
15	27	2
208	209	3
241	249	5
2	33	2
105	111	2
218	220	3
245	245	5
37	56	1
80	81	2
26	34	4
111	115	1
225	231	2
100	101	5
25	26	3
52	98	1
240	248	2
220	229	3
63	76	3
44	50	1
91	97	5
169	186	3
55	211	5
74	77	5
37	39	3
92	102	2
34	42	1
80	87	3
228	231	3
114	119	1
49	50	5
32	35	2
200	219	3
93	95	1
216	241	1
186	196	3
59	59	4
34	53	2
31	31	4
27	234	4
165	186	2
119	120	1
53	59	1
183	183	8
202	206	3
78	78	2
204	204	9
60	62	5
69	70	1
7	8	4
102	104	3
92	94	6
37	40	2
232	244	1
238	240	2
180	181	4
157	161	3
204	205	3
187	201	2
209	217	3
246	247	4
238	239	4
73	79	1
56	58	3
70	75	1
85	85	2
187	189	2
233	238	4
63	88	1
1	2	1
71	73	1
24	24	2
38	38	3
187	190	2
38	43	4
43	44	4
226	231	2
150	166	2
194	194	1
85	101	4
106	110	2
184	194	1
172	189	5
230	230	5
221	227	1
235	240	1
40	40	4
44	57	1
176	179	5
56	79	1
201	211	2
178	188	3
104	119	2
192	192	4
89	89	3
239	244	6
71	71	3
166	166	2
70	80	2
188	195	4
61	62	2
83	101	2
5	28	3
178	190	1
63	66	1
194	210	1
99	104	3
44	48	4
180	182	2
163	180	1
227	227	1
1	20	1
35	62	3
6	6	2
109	120	1
110	111	4
47	47	3
166	182	4
236	236	3
80	99	2
165	178	1
116	118	2
76	77	2
106	116	2
2	5	1
44	44	1
159	185	1
9	32	1
26	28	1
73	94	3
57	211	3
83	100	1
64	66	2
196	196	1
182	187	1
233	236	3
158	172	2
231	234	2
119	121	1
188	192	3
199	245	2
115	118	2
243	244	2
114	116	2
197	198	2
239	239	2
29	29	2
52	56	2
59	62	1
1	1	1
186	186	6
197	202	1
158	167	5
173	176	1
207	209	1
187	200	1
231	232	1
3	4	2
4	44	3
9	10	3
19	19	3
159	188	1
160	163	1
20	22	1
153	154	5
15	15	1
174	185	4
217	217	2
207	213	1
85	99	3
244	245	1
54	62	3
184	202	1
228	230	3
14	14	2
110	112	5
99	105	3
201	202	2
195	196	3
55	210	6
87	88	1
185	186	5
31	87	2
175	189	3
234	235	6
9	9	2
228	228	6
220	221	2
34	34	5
31	210	2
176	176	3
162	163	2
96	97	1
201	212	2
102	102	6
164	165	1
20	21	2
179	182	3
187	202	1
100	100	1
120	145	3
247	249	5
21	22	2
93	94	2
239	242	1
36	36	2
118	144	1
153	158	2
170	171	2
229	231	2
104	155	3
186	197	2
239	241	1
34	45	1
169	184	2
62	66	1
3	10	1
34	43	1
61	64	1
172	190	3
224	225	5
161	168	3
219	223	2
23	42	1
26	27	3
22	38	2
218	227	3
23	25	1
200	200	6
179	192	3
181	182	2
99	102	1
75	80	1
6	7	1
176	185	1
181	181	1
186	188	1
221	223	1
0	3	1
84	179	1
87	179	3
232	233	2
167	170	4
84	88	1
237	243	1
168	170	1
115	120	1
17	29	3
30	34	4
57	64	1
9	11	2
105	117	1
54	58	3
183	197	2
40	64	1
88	168	1
242	249	1
199	209	3
223	227	1
74	83	3
7	7	3
232	232	4
15	20	1
53	212	2
40	47	1
170	186	1
200	221	1
47	56	1
45	73	1
159	171	2
203	203	1
26	26	1
235	238	3
89	96	2
114	114	1
154	169	1
160	188	1
1	5	1
223	224	1
101	115	1
17	38	3
30	47	2
58	71	1
176	182	1
7	24	1
65	90	1
46	51	1
50	53	1
91	115	1
57	212	1
236	238	1
210	216	2
236	248	1
222	224	1
16	21	3
61	61	4
158	158	2
59	65	1
86	100	2
203	204	2
44	64	1
154	154	2
30	33	1
162	166	2
5	31	3
89	103	3
106	113	2
32	56	1
170	176	1
179	183	1
198	198	2
219	221	3
49	51	2
185	195	1
105	105	2
22	29	2
206	228	1
36	37	3
214	242	2
12	12	1
3	3	1
113	113	3
84	106	3
201	208	1
11	14	3
50	55	2
52	54	1
96	98	2
150	154	1
147	147	1
237	240	2
223	226	1
72	82	1
92	92	1
66	70	1
35	47	2
189	189	2
106	111	1
230	247	1
67	88	1
207	218	1
115	115	2
181	191	1
248	248	1
108	110	1
17	18	2
154	155	2
55	207	3
63	69	1
193	219	1
227	230	2
65	72	3
205	205	1
10	10	1
39	41	2
165	165	2
5	7	2
59	64	1
88	89	2
193	198	1
211	213	1
36	38	3
3	8	1
76	76	5
10	13	3
48	49	1
31	55	1
99	109	1
206	212	1
158	163	2
88	90	1
29	43	1
99	100	1
97	98	1
15	19	2
172	172	2
176	209	1
72	72	2
47	50	2
211	212	2
241	241	2
210	210	4
82	83	1
42	51	2
30	48	2
207	214	1
173	173	2
98	102	1
6	232	3
46	48	2
186	187	2
25	47	2
158	171	1
45	47	1
230	243	1
41	53	1
237	249	2
201	206	2
183	194	2
91	176	1
50	54	1
208	210	1
189	198	1
216	216	1
207	234	2
97	118	1
24	27	1
81	81	1
54	76	1
99	101	1
169	182	1
174	178	1
4	31	1
178	179	1
25	27	1
35	36	1
28	30	1
218	218	1
209	211	1
223	231	2
232	241	1
200	222	2
23	238	2
150	158	1
55	208	1
60	75	1
174	177	3
48	55	1
50	59	2
96	103	1
205	208	1
32	68	1
159	159	1
169	176	1
238	243	1
98	112	1
196	197	1
197	201	1
245	247	1
51	52	1
39	52	1
240	241	1
76	82	1
63	63	1
108	111	1
8	10	1
21	23	1
8	27	1
37	38	1
186	203	1
42	43	1
160	162	1
58	68	1
23	27	1
176	194	1
27	214	1
44	47	1
74	74	1
