66	67	5
0	1	8
9	9	9
56	56	6
9	10	7
43	43	11
59	59	7
1	2	5
23	32	4
31	31	1
53	53	12
1	1	10
76	77	2
22	22	11
28	28	31
30	31	6
11	54	5
7	7	1
19	20	3
55	62	5
33	34	3
29	30	1
2	2	3
74	77	3
63	66	2
60	63	5
42	58	5
50	51	12
0	0	14
34	34	12
8	18	1
55	58	7
37	38	4
45	45	15
57	57	8
46	46	3
3	3	10
33	33	4
41	41	3
60	60	11
26	26	6
73	73	9
76	76	12
38	39	3
35	64	3
52	52	4
21	21	14
6	7	4
27	27	9
25	25	19
55	55	5
58	58	2
7	8	2
4	4	7
24	60	3
48	54	3
12	73	8
67	77	2
30	30	11
44	45	6
61	61	5
71	72	2
58	59	3
77	77	15
51	52	5
64	64	6
1	61	2
21	77	4
20	23	3
48	50	2
24	25	3
14	72	2
37	37	7
42	43	2
39	39	7
71	71	10
20	20	8
40	40	7
18	19	3
38	65	2
19	61	3
13	13	4
64	65	3
8	8	8
54	54	6
6	6	2
62	62	6
26	27	3
60	61	1
8	9	5
20	75	1
66	66	8
23	23	4
68	68	6
55	56	3
11	21	3
18	18	2
23	33	2
35	35	4
21	59	3
19	19	2
10	10	5
70	70	9
67	67	7
31	32	2
12	22	4
42	42	7
1	9	2
29	29	18
54	55	4
24	24	3
24	59	3
35	36	2
40	41	1
38	69	2
47	47	10
48	49	2
33	50	2
44	44	1
67	73	2
65	66	2
36	36	3
0	28	1
71	73	2
38	38	5
5	27	1
64	73	2
75	75	5
52	53	10
63	63	3
22	51	2
5	10	1
5	5	2
74	74	4
34	67	7
61	62	6
26	48	4
65	65	1
21	22	3
44	56	2
22	23	4
54	61	2
49	49	7
12	13	2
41	42	2
8	10	2
50	50	4
11	11	4
26	61	2
20	21	4
48	48	10
69	71	1
43	44	1
72	72	7
75	76	4
57	60	2
36	37	1
61	63	4
12	55	1
27	28	1
12	54	1
3	10	4
40	74	1
63	64	1
51	51	3
39	40	2
33	48	2
25	32	2
18	20	1
70	74	2
41	53	1
23	24	1
37	39	1
37	74	1
22	24	2
12	21	2
21	56	2
49	50	1
69	69	2
12	12	1
0	43	1
32	32	1
28	29	1
43	45	1
0	2	3
5	9	1
10	61	1
0	44	1
14	14	1
23	56	1
24	51	1
59	60	1
25	31	1
