9	13	2
18	18	13
80	80	8
104	104	6
44	44	3
118	136	3
34	34	1
49	49	3
95	96	4
138	139	2
131	131	9
129	129	4
96	96	9
150	150	6
41	41	13
19	19	21
70	70	2
38	38	9
36	69	3
83	84	2
5	5	3
124	124	6
142	143	2
20	20	11
113	116	1
33	34	3
14	14	13
45	46	1
86	86	11
9	74	4
126	126	6
51	51	10
117	117	4
3	3	5
25	112	1
121	121	5
43	43	11
73	73	15
39	39	5
109	109	3
97	97	13
94	94	8
17	17	9
55	56	3
11	11	8
103	103	13
123	123	16
35	35	6
48	53	4
36	38	4
10	11	2
33	33	7
125	142	1
148	148	11
48	48	6
45	57	1
5	6	3
8	10	3
28	28	7
37	37	2
88	88	6
118	118	6
53	53	8
149	150	4
50	50	7
24	24	15
128	128	9
53	57	3
62	62	4
2	57	3
12	13	3
143	143	3
133	133	5
116	116	4
2	2	1
109	114	2
32	32	3
121	123	3
96	97	1
143	145	3
74	74	2
14	15	5
16	40	4
134	134	2
132	139	3
54	54	11
21	22	3
6	6	8
15	15	3
66	67	2
144	146	1
102	102	2
82	92	2
120	121	2
57	57	8
75	75	3
42	42	4
12	12	5
40	40	13
30	30	7
125	125	3
15	16	4
130	130	5
143	149	2
67	67	7
71	71	9
17	28	3
100	100	6
71	118	1
115	115	1
9	9	5
42	43	4
50	51	2
74	76	3
18	19	7
5	103	2
139	139	3
105	105	4
121	150	2
132	132	2
69	70	3
113	113	1
5	10	2
4	5	2
84	116	2
120	124	4
56	56	6
63	63	5
57	93	4
23	23	14
75	79	2
22	32	4
65	78	1
3	154	1
66	81	2
151	151	4
110	111	2
2	138	2
19	29	2
149	149	7
53	54	1
47	47	11
110	110	5
7	7	1
43	44	4
31	32	3
119	120	4
119	148	1
10	13	4
87	146	3
46	46	12
32	34	3
33	36	5
76	76	2
127	127	5
68	68	10
72	73	4
16	16	8
22	26	1
122	122	3
25	25	8
110	114	1
22	22	6
140	151	3
8	8	11
73	83	1
79	80	2
54	55	2
108	108	7
106	106	2
112	113	5
78	82	2
137	137	3
2	19	2
144	144	6
75	76	1
146	146	2
69	69	7
27	27	10
65	66	5
13	83	4
38	39	5
90	144	2
135	135	2
10	10	10
10	74	3
80	81	3
21	21	8
66	66	1
98	98	4
24	25	7
11	103	1
93	93	3
4	4	3
67	79	4
7	8	5
55	55	5
112	112	7
78	78	5
111	111	2
17	29	2
102	103	1
64	66	3
132	133	2
29	29	9
93	94	2
31	74	3
136	138	1
44	45	6
17	24	2
77	77	9
15	17	1
94	95	2
115	116	1
87	87	2
147	147	4
89	92	1
29	30	5
52	66	2
87	90	5
85	116	2
20	26	3
45	45	6
136	152	5
117	147	1
36	37	2
13	14	2
119	123	2
92	92	2
140	140	3
19	20	1
48	50	1
67	68	1
76	78	2
119	119	4
39	40	6
91	142	2
17	18	1
144	145	3
71	93	1
68	69	2
13	13	5
74	77	1
79	79	1
92	93	1
57	58	3
35	69	1
9	23	1
113	115	2
104	105	2
18	29	5
85	86	3
153	153	2
131	153	3
120	122	2
76	83	1
82	82	1
84	85	2
145	146	2
63	75	3
78	79	2
20	62	1
136	136	3
25	50	1
9	11	2
87	128	1
41	42	1
36	36	3
125	127	1
128	129	1
141	141	2
92	141	1
40	41	2
85	147	1
12	15	3
74	75	3
71	94	2
18	25	1
11	12	1
108	124	2
28	29	1
83	117	1
100	101	1
75	84	1
26	27	1
111	112	1
7	78	1
70	80	1
7	9	2
85	85	3
54	56	1
22	23	3
119	149	2
130	146	2
20	21	2
26	26	3
103	105	1
97	136	1
3	39	2
26	32	1
128	148	1
72	72	1
138	138	1
82	118	1
98	99	1
103	104	2
13	27	1
63	64	1
152	152	4
115	122	3
83	86	1
27	29	1
99	99	2
30	32	3
105	121	1
52	52	1
80	118	1
96	102	1
54	57	1
145	145	1
11	24	1
87	88	2
96	141	1
125	149	1
21	25	1
120	120	2
86	145	1
127	128	2
17	42	1
117	118	1
141	144	1
112	114	1
131	137	1
107	125	1
15	27	1
