48	71	3
133	134	3
50	52	2
99	100	6
104	105	8
137	137	9
70	70	3
38	38	3
19	19	4
109	109	8
72	72	6
101	109	1
52	52	1
82	83	4
30	31	2
13	24	6
106	107	2
139	139	2
28	28	10
92	92	5
40	49	4
14	14	1
47	58	3
21	23	1
9	54	2
119	119	3
20	20	5
135	135	12
46	50	2
81	82	1
49	52	2
27	28	2
31	33	3
128	130	2
101	139	2
8	8	4
136	137	2
37	37	4
106	106	5
113	113	6
135	141	2
43	43	4
10	10	2
74	80	4
94	94	3
74	74	7
24	24	11
21	21	2
138	140	1
73	73	6
141	143	2
2	2	2
71	125	2
106	120	2
52	71	1
42	42	1
42	58	2
121	124	2
37	38	3
125	125	7
41	54	1
76	76	3
92	94	5
121	121	4
41	41	4
98	98	7
23	29	2
110	110	4
7	14	1
78	78	12
80	80	2
82	82	4
79	82	2
34	37	2
95	95	3
116	117	2
93	93	10
115	116	1
99	101	1
60	60	8
43	52	2
83	84	3
122	122	6
96	96	3
67	91	3
56	85	1
86	86	7
62	63	1
56	56	8
22	22	2
22	26	1
34	34	4
20	22	2
39	39	1
77	77	6
65	65	3
102	102	7
81	81	6
13	25	2
0	0	2
8	12	2
5	34	3
100	100	2
2	3	3
26	26	6
144	145	6
58	84	1
139	140	1
9	9	4
59	59	4
2	8	3
25	25	6
49	51	2
114	114	4
9	10	9
18	18	7
71	72	4
90	90	3
83	83	3
123	123	7
62	68	1
55	57	1
128	128	4
101	104	1
127	127	2
87	87	2
79	79	1
107	107	7
75	79	4
35	35	1
20	35	1
111	111	3
15	15	1
106	139	3
1	3	1
136	136	3
113	114	5
107	126	2
5	5	3
76	117	1
30	30	1
76	78	2
117	129	3
11	41	2
47	47	2
54	54	1
118	125	3
131	131	6
36	36	3
105	140	4
85	85	3
64	102	2
76	81	2
97	97	2
34	36	1
105	105	4
75	75	4
11	11	3
95	96	1
104	143	2
37	39	1
51	52	1
96	129	1
79	80	4
144	144	1
3	3	1
106	144	1
137	143	4
67	68	3
67	67	4
105	106	1
6	58	1
75	80	2
65	82	3
56	72	3
119	125	1
15	17	2
33	36	1
105	141	1
113	115	1
79	81	1
58	58	4
48	70	2
134	135	1
120	123	1
80	81	1
97	131	1
62	62	4
69	70	1
9	39	2
133	133	6
73	84	2
78	80	2
1	38	1
110	111	3
3	43	1
86	90	2
22	23	1
126	127	1
50	86	2
14	25	1
120	125	2
1	1	4
33	39	2
63	63	4
33	35	1
107	110	1
2	35	4
2	57	2
40	41	1
93	95	2
100	106	1
33	33	2
74	86	1
49	49	1
18	19	1
9	33	1
124	124	2
66	67	1
50	50	1
53	57	3
26	27	1
57	57	3
29	29	1
104	141	1
85	86	1
17	17	2
32	32	1
49	50	4
89	104	3
111	130	2
4	4	1
87	90	1
114	115	1
126	126	1
113	130	1
101	101	1
86	91	1
48	84	1
64	64	2
91	129	2
53	53	3
102	103	1
42	75	2
134	134	2
69	69	2
100	121	1
96	107	2
5	6	1
130	130	6
3	36	1
106	137	2
55	85	2
96	108	3
23	23	1
1	4	1
96	131	1
43	47	1
88	88	1
54	75	1
28	29	1
140	140	1
89	90	1
0	21	1
24	27	1
117	130	1
125	134	2
40	81	2
88	89	1
13	13	1
19	29	3
56	88	2
0	20	1
21	22	1
15	16	2
68	68	1
6	36	1
10	22	1
109	139	1
98	105	1
97	119	1
117	118	1
3	4	1
135	136	1
27	27	1
85	90	1
