151	151	6
77	77	7
42	42	4
39	40	2
166	174	1
47	47	11
63	82	1
65	65	11
27	27	13
101	101	8
47	81	1
161	161	5
70	70	6
186	187	5
17	17	15
1	1	7
41	41	13
55	55	11
90	91	3
55	62	4
59	239	4
183	183	6
212	212	18
93	93	15
185	185	2
54	54	10
92	92	14
35	35	6
85	101	2
6	6	6
62	62	19
27	28	12
14	14	6
177	191	4
164	164	10
56	56	1
96	97	5
237	237	12
182	187	2
43	43	7
153	153	13
166	166	6
52	62	4
71	72	3
40	40	6
71	74	5
165	175	4
146	201	3
7	36	4
200	200	14
213	214	3
21	21	9
9	9	9
163	229	2
192	229	2
215	215	17
155	155	13
38	38	10
245	245	8
49	49	14
100	100	5
22	44	2
154	154	13
39	39	12
118	119	4
84	85	5
57	59	2
50	76	9
109	110	4
214	214	3
15	15	7
72	72	7
104	104	8
105	105	5
239	239	9
152	201	1
67	68	2
29	29	10
89	89	4
157	157	3
150	150	13
81	81	6
197	197	8
78	78	9
245	246	5
94	94	12
106	106	4
195	195	7
218	218	5
84	84	4
88	88	5
46	46	18
96	96	5
160	161	2
29	30	4
114	114	4
229	229	5
214	243	3
78	230	4
87	99	1
187	187	8
227	227	17
196	230	4
48	60	9
192	192	5
156	168	9
167	201	5
68	69	5
179	214	1
97	99	2
31	31	28
11	11	6
76	76	5
10	54	1
187	188	5
73	73	8
162	162	4
112	200	3
32	32	17
57	237	3
25	25	12
33	33	10
77	163	5
150	151	1
144	145	4
241	241	18
45	45	9
175	175	11
64	65	3
216	217	3
225	226	3
166	167	4
66	66	4
112	152	3
199	200	7
23	33	1
63	63	28
153	206	1
168	169	3
208	209	3
201	201	15
113	113	9
23	23	6
246	246	13
30	30	8
190	190	7
21	45	1
163	163	4
5	5	2
12	12	6
159	160	3
204	204	11
117	156	2
175	199	3
220	220	8
21	22	4
18	18	2
8	8	8
110	110	4
19	19	19
97	97	15
212	213	2
247	247	5
87	87	5
218	220	2
72	73	5
222	222	13
177	177	7
115	115	16
229	230	4
158	158	8
105	107	3
153	201	2
235	235	5
36	36	6
191	191	5
216	218	3
37	37	12
171	173	6
60	60	7
203	204	8
211	226	3
67	69	8
0	0	2
176	177	1
10	10	10
231	233	4
50	51	5
60	61	3
248	248	4
61	62	3
67	67	14
114	115	1
232	236	4
184	184	4
104	120	1
58	58	4
118	170	3
178	179	1
42	43	5
80	80	11
160	165	1
95	107	1
20	38	4
58	60	1
224	224	2
22	22	12
199	199	11
236	236	8
112	228	3
241	245	8
219	219	2
234	234	2
34	34	3
221	221	5
71	71	10
87	97	1
158	173	2
7	7	10
216	216	3
169	169	9
50	60	3
58	233	2
47	49	2
4	4	5
144	144	2
178	178	6
69	69	5
56	60	3
59	237	3
74	74	4
114	229	2
162	228	2
17	18	3
181	182	6
77	78	1
165	177	1
201	207	1
213	213	13
110	111	6
110	112	1
50	50	8
85	85	11
226	226	7
106	107	3
159	168	2
156	201	3
210	210	11
33	44	3
179	179	4
100	109	7
44	44	3
51	51	16
169	171	1
176	176	4
193	194	1
85	86	5
224	225	3
217	218	7
77	115	4
181	181	7
109	109	6
157	158	4
170	170	6
28	28	4
53	53	7
203	203	17
118	118	8
16	16	12
198	198	8
65	115	2
119	170	5
3	7	2
174	175	2
55	61	1
156	157	2
50	62	1
19	31	2
202	202	8
47	79	3
21	33	1
26	26	6
213	243	2
11	52	2
57	57	2
70	81	3
87	104	4
205	205	14
96	100	2
206	206	4
197	199	2
218	219	4
161	178	8
98	198	5
68	68	6
20	20	6
36	37	1
167	167	3
220	249	1
79	80	4
204	205	3
111	117	2
213	242	2
108	108	4
158	168	3
48	76	2
52	52	2
165	178	4
18	34	2
82	83	2
82	82	5
174	174	5
87	145	3
115	198	4
2	2	6
89	106	5
64	64	10
160	201	2
208	208	6
210	211	7
84	101	1
64	115	7
47	82	4
247	248	3
23	43	1
238	238	5
86	86	2
72	74	3
95	95	5
75	75	5
88	89	2
56	57	1
243	245	2
103	103	2
57	77	3
56	61	1
146	146	11
59	59	3
24	24	4
161	177	3
85	117	3
64	116	2
117	117	6
58	236	2
185	186	4
162	196	5
58	59	3
73	74	1
242	246	1
231	232	2
99	99	6
69	71	3
211	212	3
49	81	2
169	181	2
161	196	4
9	22	1
211	211	7
38	41	4
116	116	3
23	41	1
173	173	3
45	46	1
86	97	3
156	156	8
93	94	1
194	194	1
2	19	1
18	21	2
160	160	1
43	44	9
111	112	3
214	216	2
78	234	3
242	242	5
48	48	2
166	189	3
198	199	3
79	79	5
63	81	3
243	244	5
90	90	7
87	120	1
188	189	2
57	58	2
160	200	2
206	207	1
102	109	2
111	111	4
213	226	3
47	114	3
163	198	3
70	80	1
175	176	1
94	95	2
102	102	4
240	240	3
218	226	2
89	95	3
117	199	2
178	181	1
55	56	1
176	178	1
161	227	3
98	98	5
22	42	3
160	178	3
155	156	1
119	119	3
182	202	1
95	96	1
161	201	3
219	242	1
18	20	1
14	15	1
228	235	1
160	189	1
189	191	1
10	51	1
68	71	1
85	145	3
47	50	2
8	36	1
110	117	2
172	174	2
218	244	2
207	207	1
217	245	1
7	34	1
172	173	2
178	191	4
93	202	1
171	171	2
225	225	8
46	51	2
81	83	1
188	188	2
52	53	3
67	109	3
221	222	5
61	61	3
2	38	1
76	241	3
233	233	1
87	96	4
165	200	2
100	101	3
9	10	3
44	100	1
234	235	1
195	216	2
170	171	1
120	144	1
153	154	1
35	36	1
164	199	1
88	96	1
172	172	2
161	192	2
193	228	2
236	239	1
50	61	1
178	189	2
78	114	1
196	228	2
245	247	3
159	159	3
98	100	1
176	194	2
240	241	1
79	114	1
38	39	2
46	52	1
180	188	1
182	185	4
66	81	1
26	27	1
241	246	1
49	58	1
66	80	1
109	153	1
70	83	1
152	153	1
97	100	1
217	217	1
196	196	1
6	7	1
152	152	4
182	182	2
49	76	2
20	37	1
51	73	1
173	174	3
96	108	1
107	107	3
21	31	2
190	208	3
115	162	1
3	34	4
49	79	1
114	234	1
100	155	1
113	228	1
66	79	1
64	113	1
223	223	3
116	198	1
112	113	1
219	221	1
98	99	1
179	208	1
69	70	2
156	158	1
0	1	1
81	82	1
48	55	1
32	33	1
152	235	1
193	215	1
51	61	1
182	190	2
42	155	2
180	180	1
193	196	1
193	231	2
167	207	1
85	110	1
18	37	2
164	175	1
80	81	1
213	244	1
48	77	1
67	83	1
51	52	1
83	83	1
6	240	1
192	193	1
243	243	1
222	224	1
182	201	1
145	145	1
91	91	1
233	234	1
183	207	1
152	200	1
33	36	1
229	234	1
3	6	1
200	201	1
206	227	1
