74	74	7
3	47	3
51	54	3
26	26	6
4	10	1
22	23	4
30	30	23
6	52	1
78	78	6
0	0	10
52	52	7
3	84	1
84	87	2
73	73	9
74	81	4
67	67	10
84	84	5
49	49	8
15	82	2
30	31	2
68	69	7
63	64	1
19	50	1
74	75	5
13	13	2
53	53	9
68	68	14
70	70	7
28	28	7
17	59	3
7	9	2
74	84	3
51	51	21
49	86	3
7	7	5
11	11	5
77	80	2
19	19	14
5	15	2
49	75	1
77	77	7
74	80	1
66	82	4
3	4	8
63	65	4
27	82	1
1	3	5
20	27	1
15	16	2
51	53	3
19	32	1
10	10	6
6	27	2
50	51	1
50	78	3
57	57	14
89	89	3
58	70	3
17	71	5
47	47	5
1	8	3
67	68	3
0	1	2
72	72	13
1	1	11
53	73	2
24	24	7
21	21	6
60	60	2
16	18	6
46	49	3
5	26	4
75	75	10
32	32	6
76	76	5
85	85	5
83	83	5
4	85	3
13	81	4
50	80	3
2	2	3
49	52	3
79	80	6
56	56	2
22	22	5
23	24	9
10	81	4
48	57	1
50	50	8
86	86	4
65	80	1
55	55	6
70	84	1
3	88	3
15	27	1
61	61	3
9	9	8
78	79	1
19	20	5
21	24	3
29	30	5
47	86	1
27	30	2
11	12	3
5	23	1
6	24	3
81	81	5
8	9	2
4	4	3
52	57	1
13	79	2
64	64	2
72	73	3
62	62	6
79	86	3
54	66	4
79	79	7
12	13	2
69	69	5
19	56	1
1	29	1
78	80	5
3	49	1
47	63	5
14	67	2
10	33	1
29	29	2
76	77	1
54	56	1
15	53	3
54	54	8
1	2	2
66	66	7
84	85	1
53	57	2
87	87	3
48	81	1
53	54	2
86	87	4
58	59	1
59	59	3
17	79	3
80	80	2
53	64	1
56	67	1
88	88	3
0	89	1
56	87	1
49	85	1
24	61	1
5	5	1
49	50	1
20	20	2
54	55	1
66	67	6
12	14	1
71	73	2
46	79	1
15	15	2
63	80	5
56	62	1
17	17	2
31	31	4
4	13	2
14	48	2
9	59	2
58	58	3
12	52	1
65	66	1
10	64	1
26	82	2
12	82	1
12	12	1
9	61	1
46	46	5
29	31	1
78	83	2
3	12	1
69	70	3
4	23	1
48	48	1
27	27	2
57	82	2
70	71	2
55	56	1
23	23	2
68	72	1
6	6	1
13	26	1
5	6	1
24	25	1
56	57	1
56	86	1
11	27	1
48	49	1
46	82	1
71	72	1
34	65	1
15	30	1
16	16	1
14	14	1
8	8	1
47	87	1
14	28	1
