155	156	4
100	100	11
98	98	8
141	148	4
126	153	2
32	32	5
120	120	10
113	113	5
149	149	3
95	115	2
27	27	13
12	43	1
73	73	9
67	68	4
42	42	7
120	121	4
85	85	9
4	4	4
95	96	1
128	128	8
102	147	2
43	51	2
11	11	7
146	146	8
134	134	12
127	127	19
94	94	16
46	46	12
85	90	1
154	154	3
31	32	2
23	23	14
133	133	4
15	15	5
89	89	7
130	130	8
40	40	9
138	138	9
33	39	3
128	131	4
78	85	1
89	108	1
101	101	17
112	112	2
54	55	8
48	49	4
65	65	14
116	116	16
104	105	3
54	54	2
35	35	6
69	70	2
51	51	3
39	39	7
109	109	5
39	84	4
40	41	7
66	66	6
67	70	2
142	143	3
105	105	10
118	118	6
147	147	6
131	131	2
33	33	13
33	36	5
20	20	14
80	82	1
8	11	3
77	77	4
78	79	3
25	25	24
80	80	10
131	133	2
125	133	3
115	116	2
43	43	7
1	75	1
13	13	6
129	129	7
110	110	14
29	29	18
18	19	4
10	10	6
43	55	1
135	135	5
51	54	3
111	121	1
106	106	2
99	106	4
27	28	5
6	6	14
52	52	5
3	4	2
31	31	5
52	53	5
93	94	5
53	53	3
79	83	5
106	107	1
117	117	6
139	139	11
45	45	7
51	52	3
13	16	3
140	140	11
136	136	4
102	102	4
94	114	2
47	51	4
47	123	3
124	147	2
5	5	7
96	96	12
141	141	6
11	44	2
146	149	1
103	110	5
1	2	6
118	120	2
158	158	2
69	105	4
2	2	7
3	54	1
124	125	1
119	119	7
67	67	5
142	149	4
30	30	7
64	65	3
152	152	9
99	99	9
87	87	2
142	144	5
5	6	4
121	127	2
86	90	2
124	124	2
157	157	6
71	109	2
104	104	6
24	29	4
121	126	3
70	70	7
11	14	1
47	47	5
68	104	4
82	83	1
137	138	2
73	74	4
88	88	8
9	10	2
53	54	10
4	17	2
4	56	2
38	38	7
139	158	3
115	115	6
125	132	7
128	129	5
16	16	4
18	18	8
0	2	3
140	141	3
17	43	2
82	82	1
122	122	8
66	67	2
111	112	1
81	82	1
70	71	9
4	63	6
19	19	4
138	139	2
131	132	4
30	34	1
69	69	3
6	8	2
145	146	7
78	86	4
151	151	9
56	56	6
22	22	5
125	126	4
100	101	1
131	136	5
73	101	1
134	153	1
81	81	1
87	108	2
23	29	2
150	151	2
69	108	2
92	92	4
142	142	5
133	153	2
131	135	4
37	37	5
71	108	3
50	55	3
55	67	2
94	115	2
28	29	1
18	21	2
68	68	6
28	28	7
137	137	8
140	152	1
86	86	3
132	156	1
49	147	1
144	144	6
14	14	3
1	36	1
95	95	4
62	62	4
76	76	1
153	155	2
125	125	1
14	15	2
131	153	4
107	107	3
22	30	4
126	127	1
136	137	4
9	9	4
145	149	4
7	16	2
39	40	1
148	149	2
29	30	4
44	44	4
125	127	3
36	86	2
64	64	2
91	113	1
49	123	2
103	103	7
8	8	1
94	96	3
13	14	2
46	50	1
114	114	6
48	50	1
78	78	9
35	37	3
87	90	2
143	143	2
63	63	2
91	91	5
92	93	2
131	154	2
47	48	3
24	24	3
25	28	1
21	21	2
12	13	4
146	147	1
87	91	1
2	75	2
111	111	6
107	108	1
93	93	7
12	12	1
3	3	5
36	38	5
88	115	1
105	106	1
45	71	1
26	26	2
72	72	1
121	121	2
144	146	2
36	36	3
12	19	1
106	116	1
41	41	1
49	49	6
53	55	1
72	79	1
89	90	3
67	104	2
43	52	1
36	37	1
24	28	4
127	132	1
75	76	1
48	48	4
17	18	1
112	113	2
83	83	5
142	148	1
32	39	2
119	120	3
132	134	1
129	130	2
123	123	2
24	25	4
55	55	2
141	155	1
50	51	1
139	140	1
49	50	1
23	28	1
65	73	1
131	155	2
68	69	3
13	17	2
27	66	3
33	37	1
8	20	1
90	90	1
80	81	1
46	123	1
83	84	1
69	71	1
54	67	1
15	16	1
127	152	2
50	50	2
145	147	1
131	134	1
75	75	2
71	71	1
97	97	3
97	117	2
78	81	1
63	87	1
156	156	2
0	64	1
136	155	1
140	150	2
145	145	1
132	133	2
133	154	1
158	159	1
153	153	1
90	91	1
103	109	1
126	126	2
133	134	1
51	55	1
41	43	1
38	84	1
134	135	1
77	82	1
57	64	1
17	52	1
131	156	1
7	8	1
23	24	1
102	146	1
88	89	1
44	45	1
145	150	1
