127	130	2
54	67	3
97	99	7
67	68	6
128	128	11
45	45	7
75	77	1
82	82	15
84	101	1
111	111	9
62	62	8
56	56	15
22	22	13
85	102	2
52	52	5
100	104	1
19	19	6
2	2	16
49	49	15
40	91	2
55	55	16
41	41	6
53	53	18
86	87	9
100	100	10
85	115	4
14	14	4
119	119	17
107	107	18
39	39	6
78	78	28
79	80	2
125	132	1
64	65	4
67	67	2
29	29	10
114	114	14
23	25	2
121	121	10
13	14	2
86	86	10
27	27	5
105	106	8
20	20	7
69	99	7
46	46	14
26	26	8
73	73	6
104	105	4
102	104	4
94	94	4
99	100	7
116	116	14
31	54	9
21	21	5
23	24	4
116	117	7
85	85	8
13	13	3
83	116	2
31	32	3
48	49	6
32	32	8
24	24	8
115	115	7
109	109	12
45	97	3
90	90	4
101	101	7
51	52	4
88	93	4
86	101	2
4	5	4
4	4	9
11	12	3
91	93	4
56	101	4
62	63	1
119	121	5
81	82	13
122	123	9
114	116	4
118	118	8
28	28	8
45	96	1
38	39	7
93	94	5
38	44	6
9	9	4
6	6	9
52	54	5
31	31	14
72	72	11
95	95	6
48	77	7
18	18	9
29	72	2
61	61	7
47	48	6
83	115	1
47	47	9
25	26	15
110	110	5
5	5	7
108	115	5
71	71	8
129	130	6
24	60	2
29	30	9
32	54	5
58	58	7
10	66	3
45	70	6
122	122	9
44	47	3
3	3	15
103	103	13
72	73	4
75	75	5
40	40	9
112	112	11
64	64	6
96	96	5
43	43	7
72	74	3
67	99	7
88	89	12
30	31	1
92	92	17
60	60	9
52	53	6
83	83	10
100	101	3
70	70	2
42	42	9
1	1	7
69	69	17
97	97	13
66	67	3
130	130	7
81	81	12
44	44	6
123	123	5
25	25	14
10	10	3
51	51	4
54	54	5
107	108	5
15	16	6
93	93	19
125	125	5
113	113	4
28	62	3
23	23	7
19	20	2
109	111	5
57	57	6
73	74	8
86	99	2
10	58	3
129	129	10
71	72	4
69	70	3
82	95	2
126	126	9
27	62	4
105	105	7
7	9	4
87	87	4
56	71	2
50	50	1
54	56	3
84	85	1
77	78	1
128	129	4
63	65	4
126	127	2
115	117	3
38	45	4
27	32	1
127	128	2
108	108	6
48	48	6
70	72	4
65	67	3
50	51	1
102	102	15
12	13	3
23	26	3
34	65	1
17	17	6
17	18	2
99	99	11
126	130	1
131	131	5
91	92	3
7	7	3
68	68	9
108	114	1
89	96	5
75	76	6
104	104	12
84	84	2
1	3	2
106	106	1
92	93	2
8	9	2
51	64	1
76	76	5
74	75	2
66	66	2
15	15	3
43	44	4
44	46	1
132	132	7
133	133	3
98	98	9
14	17	5
12	12	2
59	59	3
26	32	3
21	60	2
114	117	5
5	6	4
33	67	4
127	127	6
80	80	3
11	11	1
34	34	1
94	95	4
0	1	3
41	42	3
53	54	4
83	85	1
26	30	5
120	120	7
79	82	2
29	71	4
47	75	1
91	91	7
38	38	4
88	88	3
101	123	1
30	30	7
83	117	1
113	117	1
53	113	2
42	43	1
34	68	1
34	54	2
13	18	1
28	29	2
21	22	4
16	16	12
26	27	3
125	126	2
105	112	2
124	124	2
58	63	2
101	107	1
28	73	3
40	95	2
77	77	6
112	119	2
85	101	3
57	65	1
106	107	6
76	77	5
22	23	6
98	99	1
111	112	1
55	66	3
8	8	2
39	40	2
131	132	6
89	91	1
6	30	2
41	94	2
110	111	1
32	65	1
90	93	1
37	68	2
63	63	1
32	33	2
18	19	5
46	48	1
25	27	3
89	89	5
55	103	2
22	24	2
29	57	2
83	84	1
121	122	1
77	79	1
80	82	1
24	25	3
14	15	1
82	84	2
33	54	1
80	81	1
112	113	2
53	65	3
110	116	1
99	101	1
57	64	1
113	121	1
56	66	1
65	65	1
74	74	5
69	101	1
39	96	1
113	120	2
103	104	1
117	119	2
32	56	2
106	118	1
2	5	1
117	118	1
85	86	2
0	0	4
54	69	1
85	100	1
40	97	1
59	65	1
113	119	1
61	62	3
56	64	1
41	45	1
124	125	1
107	111	1
87	88	2
28	54	2
39	69	3
40	41	1
90	92	1
79	79	1
89	97	1
