77	78	5
79	103	2
129	129	18
19	21	2
75	75	6
8	9	4
123	123	5
118	118	10
73	73	4
90	118	3
100	106	4
12	12	6
16	17	6
3	4	2
58	58	17
132	132	18
47	49	4
73	114	7
115	115	13
61	91	2
87	87	9
84	84	5
4	4	8
112	112	13
117	125	3
74	74	3
6	7	3
86	117	3
3	3	15
31	32	4
35	35	5
28	28	7
17	17	2
82	116	2
50	50	4
121	123	1
87	134	1
105	105	7
90	131	4
107	107	6
89	98	3
99	134	1
38	38	2
33	33	2
103	103	7
56	129	6
1	50	2
53	53	3
19	20	6
57	57	6
114	114	16
16	16	6
82	117	4
56	56	2
62	62	4
109	109	18
60	60	6
64	96	2
32	35	3
2	2	2
6	12	2
35	36	2
120	124	2
88	99	3
21	21	4
54	59	4
99	99	3
105	106	1
106	106	6
15	15	20
104	104	8
94	94	10
119	119	10
91	92	9
87	100	4
29	29	2
83	84	6
92	92	10
82	82	6
128	128	1
5	5	5
117	124	4
71	94	3
69	69	3
94	95	3
101	102	2
64	85	2
126	126	9
79	127	6
85	87	4
59	59	5
110	131	1
4	44	1
30	30	4
37	37	7
86	111	3
56	103	3
95	95	9
87	99	4
5	13	3
28	29	7
27	27	9
69	101	2
50	93	1
60	61	4
23	23	6
124	124	4
80	80	5
79	79	5
108	109	5
125	125	3
82	118	4
64	65	1
48	48	1
25	25	7
87	108	1
68	68	4
78	109	5
129	130	4
7	7	3
59	91	1
51	52	4
68	101	5
10	31	1
122	122	1
71	71	11
37	59	3
52	52	2
77	77	2
88	88	10
117	119	4
70	70	3
108	108	9
26	26	5
85	117	2
80	111	1
1	2	1
56	110	1
5	6	6
91	93	1
121	122	2
125	126	2
73	74	2
44	45	6
34	34	9
9	36	2
78	78	5
49	96	4
86	96	2
77	103	2
111	111	5
111	131	2
72	90	2
18	18	3
100	100	3
102	102	2
88	133	2
128	129	1
66	68	3
9	9	7
20	20	6
17	18	4
96	96	3
127	127	3
85	85	3
14	14	4
111	124	5
67	133	3
42	102	1
123	124	1
63	92	1
65	66	5
122	125	2
54	54	2
62	63	1
2	49	1
109	130	6
24	24	4
11	11	4
76	76	3
82	107	4
129	131	2
81	98	1
10	10	4
59	62	1
131	133	1
90	90	5
99	100	2
97	97	5
5	19	2
110	118	2
12	13	4
72	72	3
63	63	6
80	81	2
93	93	4
36	36	10
50	56	4
117	131	5
82	111	2
0	0	2
88	101	4
64	118	1
110	110	2
131	131	2
108	130	4
101	101	2
19	19	7
4	25	1
65	94	4
127	128	1
82	110	1
46	101	3
52	59	2
89	90	2
113	113	4
18	19	1
13	13	2
1	1	7
52	92	3
130	130	3
95	96	7
2	44	2
62	71	1
111	125	1
120	121	1
98	98	4
50	116	1
87	133	2
11	12	3
71	93	3
65	65	2
2	9	1
33	36	2
16	26	1
64	131	1
111	112	1
8	8	2
83	83	5
64	64	1
61	61	6
106	107	2
79	128	1
65	132	1
7	12	1
83	87	4
84	107	2
116	116	2
107	129	1
90	112	1
9	50	3
100	101	1
85	134	2
82	85	1
1	53	1
21	23	2
98	134	4
66	66	1
37	55	1
33	35	1
10	25	1
0	93	2
114	115	2
55	55	1
132	133	1
122	123	3
94	96	1
47	47	1
68	102	1
87	130	1
8	32	2
56	85	1
81	82	1
49	49	1
131	132	1
42	42	2
67	69	1
20	21	1
108	134	1
37	52	1
77	129	1
117	117	2
56	91	1
86	86	1
90	132	2
88	104	2
80	128	1
121	121	1
36	50	1
120	120	1
12	28	1
