94	94	12
26	26	12
60	61	5
56	56	10
103	103	4
89	89	2
81	81	3
130	130	5
109	109	2
49	49	11
23	23	5
73	74	4
32	32	7
83	92	3
39	40	3
4	4	5
96	99	3
137	138	5
115	116	2
58	59	1
17	17	11
83	83	2
72	72	6
91	92	7
8	8	2
22	23	2
59	61	2
84	84	5
102	102	5
82	85	3
77	142	1
122	122	6
64	74	5
98	98	7
20	20	6
5	5	4
146	146	2
116	116	9
118	118	6
30	31	2
90	90	4
106	106	5
6	56	4
53	54	6
9	10	3
15	37	4
11	11	4
75	119	2
77	78	1
67	67	12
73	119	2
28	28	5
19	19	8
94	97	5
125	125	13
58	58	3
8	9	2
113	113	6
145	145	2
8	21	3
21	21	6
18	18	7
69	69	5
96	96	5
38	41	3
137	137	4
99	102	2
56	57	3
32	33	2
122	130	3
0	0	3
33	33	1
77	77	7
96	97	3
97	104	3
38	38	9
131	131	18
37	37	11
60	60	7
91	91	7
80	82	1
82	83	5
25	25	7
108	108	2
60	80	2
36	37	5
30	30	6
65	65	4
33	53	2
101	101	10
124	142	1
107	109	2
74	74	2
66	66	9
35	35	4
55	55	7
141	141	2
105	106	2
71	72	3
128	128	5
80	80	7
29	29	7
89	132	1
57	57	1
136	136	5
92	92	4
110	110	8
94	98	1
71	71	1
76	76	11
123	123	6
76	122	1
102	103	4
132	132	7
115	115	3
0	43	3
121	121	3
11	42	1
9	56	1
52	52	6
95	96	2
76	77	2
12	17	3
91	93	1
116	124	2
10	10	5
40	40	8
75	75	2
6	6	6
94	104	4
105	105	2
18	19	5
41	41	9
120	120	3
137	139	1
31	31	2
94	95	1
53	53	2
63	64	3
14	15	3
52	54	2
51	51	3
29	30	5
112	113	4
1	2	3
89	140	2
59	59	3
132	139	2
127	129	2
50	50	3
43	43	1
14	37	1
2	43	2
70	71	3
124	124	3
79	79	2
136	139	2
117	117	3
9	9	2
75	76	3
15	15	4
111	111	3
3	13	1
49	50	3
61	61	2
100	100	3
80	81	7
113	128	2
78	78	6
90	135	1
97	98	2
136	140	1
63	63	5
38	39	1
117	129	1
144	144	4
73	73	4
64	73	1
122	123	2
12	13	1
87	87	6
6	19	4
129	129	5
124	125	1
107	107	3
28	29	3
52	55	2
142	142	5
110	134	1
87	88	1
64	64	1
113	114	4
86	91	2
39	39	1
96	100	2
132	133	2
92	93	1
126	127	1
85	85	4
126	126	2
135	135	2
84	101	1
59	60	5
120	121	2
90	92	1
118	121	2
141	142	2
15	16	1
90	137	2
27	27	2
14	36	2
3	5	2
33	36	1
62	81	2
13	13	1
37	38	1
54	55	3
78	79	1
90	104	1
34	34	1
13	35	3
16	18	1
54	54	2
26	38	3
104	105	1
4	5	2
36	36	3
88	131	2
95	95	1
140	140	2
128	129	1
93	93	1
79	80	2
139	139	2
59	62	1
123	124	2
83	85	2
81	82	1
48	48	2
123	129	1
2	13	1
12	12	1
2	2	2
61	82	1
22	22	2
97	97	1
70	70	1
23	24	4
28	31	1
61	62	1
51	61	2
114	114	1
136	137	1
11	47	2
106	107	1
68	68	2
10	11	1
24	25	1
62	62	1
112	112	1
143	143	1
93	99	2
127	127	1
1	42	1
