34	34	11
69	109	2
111	112	5
6	7	18
87	87	3
57	57	1
28	28	8
20	20	12
54	54	7
98	98	5
23	23	11
19	19	6
61	61	3
85	85	2
17	17	6
31	31	4
32	32	8
68	69	5
21	21	9
24	24	13
95	95	6
35	35	15
89	89	11
88	88	4
22	22	5
42	42	8
110	120	2
5	8	4
56	56	3
36	36	12
14	14	6
14	27	1
88	115	5
64	64	10
128	128	9
118	119	3
69	69	12
131	131	19
93	95	4
77	77	9
132	132	5
90	90	5
12	12	8
6	6	5
65	66	6
12	13	1
62	62	14
127	129	4
101	101	16
113	113	10
107	107	5
112	112	4
49	49	7
37	37	2
108	108	5
55	55	6
129	129	10
118	118	19
18	74	3
64	65	3
94	94	7
125	126	1
113	118	2
66	66	5
123	123	5
112	113	4
16	17	2
122	123	4
127	127	10
105	105	10
124	124	9
19	23	4
72	72	5
81	81	10
84	84	7
86	87	6
32	34	7
37	38	1
106	110	3
107	108	3
50	51	5
60	60	7
79	80	2
68	68	6
87	113	3
3	3	5
87	114	1
22	23	2
19	20	3
106	106	7
4	4	16
18	22	2
0	0	5
134	134	6
1	1	6
13	13	3
23	25	9
45	46	1
126	127	8
65	102	2
93	94	3
36	38	1
24	28	5
109	109	6
6	13	1
92	92	2
96	99	1
71	71	9
104	104	7
7	7	5
83	83	2
99	107	2
2	4	1
44	46	6
38	38	1
82	131	4
29	30	3
111	111	9
10	10	7
5	5	8
97	97	1
115	121	2
8	8	4
30	30	6
91	91	6
75	75	9
9	28	2
27	27	7
47	47	4
29	29	3
58	59	3
119	122	4
80	80	4
5	6	4
53	53	5
26	26	10
76	76	10
18	28	2
130	130	6
88	123	2
42	83	5
33	34	2
7	8	2
20	22	2
67	67	8
115	125	1
125	125	2
18	18	7
60	61	2
86	86	5
92	94	1
3	4	2
74	74	4
119	120	1
120	120	7
1	48	4
121	122	1
82	133	1
33	33	1
103	103	8
106	112	1
121	121	5
14	26	1
64	69	2
99	99	2
122	122	5
15	15	1
133	133	1
11	28	1
15	16	3
63	63	4
97	98	2
47	48	2
56	57	1
31	35	2
115	115	2
95	96	4
93	93	2
114	114	3
4	36	2
1	2	2
101	102	2
79	134	2
11	27	2
102	102	2
2	38	3
98	99	2
94	95	5
82	82	5
73	73	3
117	118	2
45	45	2
63	104	3
3	80	2
100	100	3
31	32	1
38	42	2
97	101	1
67	68	2
119	119	4
123	125	1
70	70	7
93	127	2
36	79	1
44	86	2
34	35	1
17	18	3
74	75	1
32	33	3
116	119	3
96	96	2
110	110	3
31	85	2
122	124	1
9	10	1
59	60	1
52	52	5
89	90	2
2	2	4
102	103	1
103	104	1
59	59	1
58	58	1
54	58	2
55	57	1
8	9	3
43	43	1
14	79	1
100	108	2
117	117	3
38	82	1
124	125	1
84	87	2
4	5	2
91	92	1
78	78	1
79	79	2
71	72	1
20	21	1
3	5	1
116	116	1
9	9	1
2	3	1
123	124	1
50	50	1
131	132	2
55	64	1
89	123	1
126	126	3
30	33	1
100	106	1
