92	92	8
58	59	3
72	72	10
42	85	4
65	65	14
44	48	5
91	91	15
66	67	3
87	88	5
26	26	8
64	64	18
70	71	12
88	88	20
44	44	8
63	63	9
75	75	11
49	49	9
79	79	16
23	35	2
69	69	14
67	70	3
78	78	23
34	34	13
96	96	12
45	59	2
70	70	22
52	52	20
44	45	1
72	101	1
33	88	1
80	80	10
50	50	9
91	92	2
76	76	11
61	61	22
45	48	1
22	22	8
48	48	7
37	85	3
68	68	7
83	83	12
81	81	18
59	59	8
24	25	10
50	51	6
93	93	3
62	62	7
53	53	5
35	97	1
89	90	7
81	86	2
86	86	10
74	74	17
95	95	8
77	77	9
39	89	2
67	67	18
40	61	4
36	38	4
43	43	6
58	58	8
69	70	4
97	98	8
74	75	2
99	100	3
92	96	4
29	29	4
67	68	6
88	89	3
46	47	1
49	50	10
53	97	1
27	54	1
96	97	5
40	40	7
100	100	9
33	33	2
86	90	1
25	25	14
33	39	5
55	55	3
53	81	3
39	39	4
32	32	1
66	66	9
45	45	10
51	51	13
40	44	2
31	72	2
46	94	1
98	98	5
26	37	2
25	87	2
87	87	10
94	94	6
29	89	1
75	80	2
55	56	3
59	65	1
71	71	6
68	74	1
36	36	3
47	47	3
73	73	9
89	89	8
81	84	2
84	84	7
51	96	1
39	86	1
54	55	2
66	69	2
37	38	2
59	79	2
79	85	2
85	85	6
46	46	2
41	41	5
40	75	1
87	90	2
60	61	2
80	81	3
37	37	10
38	38	4
20	29	1
102	102	4
61	62	2
24	27	4
30	30	5
36	37	2
60	60	4
47	49	1
57	57	7
40	41	1
97	97	2
22	55	1
78	99	4
61	89	1
75	86	3
48	49	1
65	66	1
40	42	1
34	39	2
25	32	1
67	71	1
27	27	5
42	42	4
68	88	2
38	76	1
32	82	1
51	64	2
95	96	5
51	59	1
31	31	3
45	91	4
56	57	2
35	36	1
62	63	1
21	27	1
99	99	7
35	35	2
37	90	2
23	30	2
59	80	1
52	99	1
79	80	2
54	54	6
31	85	1
36	89	2
79	87	1
82	82	3
78	79	2
78	85	1
70	72	1
49	51	2
38	97	2
52	96	1
53	55	1
95	98	1
80	86	2
87	89	2
65	79	1
34	41	1
99	101	1
63	64	1
50	52	2
101	101	3
22	48	1
31	32	3
76	77	1
45	90	1
93	94	1
95	97	3
22	23	1
67	74	1
24	24	1
28	37	1
26	28	1
90	94	1
56	60	1
70	73	2
60	75	1
51	52	1
50	58	1
90	101	1
90	93	1
25	29	1
57	60	1
92	93	1
40	90	1
61	63	1
77	78	1
37	77	1
