41	108	3
113	114	4
12	12	6
74	74	8
107	107	15
17	19	6
110	119	2
71	72	4
19	19	8
20	20	9
9	9	20
9	10	1
37	38	9
47	68	6
94	95	1
21	32	6
113	115	7
116	148	2
36	111	1
122	122	2
105	105	6
15	15	2
85	85	3
41	41	5
143	146	1
51	56	1
73	73	11
143	143	5
55	55	5
43	43	2
90	145	3
36	37	3
36	36	7
57	93	4
28	30	9
6	6	16
117	118	8
46	67	2
21	21	5
14	14	3
34	125	2
8	9	2
28	28	11
139	139	2
43	45	5
49	50	4
89	94	6
124	125	2
7	7	4
50	53	2
149	150	1
125	125	2
93	145	3
106	107	8
79	87	3
106	133	4
63	63	4
34	34	10
108	109	7
4	4	6
124	124	5
35	35	5
9	12	3
80	80	4
110	110	10
137	137	5
33	50	2
57	70	4
78	78	13
120	120	6
87	87	3
7	31	2
84	84	5
103	103	1
148	148	6
139	141	4
68	70	6
79	79	13
87	88	4
33	49	1
132	132	1
144	144	8
22	22	4
151	151	9
16	16	16
6	32	1
76	76	1
43	44	1
45	46	4
46	70	2
130	130	2
145	146	1
69	70	1
134	136	5
15	16	6
116	117	2
33	47	1
113	117	1
51	51	2
3	14	1
116	116	5
39	126	1
91	91	2
119	119	4
63	78	1
128	128	3
44	108	1
123	124	3
136	136	6
125	147	1
56	56	4
97	97	6
150	150	12
113	113	2
49	55	1
92	145	3
10	10	2
46	46	7
24	24	3
23	23	5
55	99	1
8	12	1
131	131	4
77	111	2
66	66	5
29	30	3
112	112	4
106	106	2
13	13	3
90	93	1
118	118	6
36	108	1
62	146	4
84	148	4
108	108	2
53	56	2
83	83	5
108	111	4
142	144	1
124	129	1
141	141	5
29	29	1
142	143	4
3	3	5
77	109	2
40	40	1
134	134	2
27	82	3
31	32	4
75	76	1
121	123	1
55	56	1
6	7	2
142	142	7
153	153	2
64	77	6
9	16	2
38	38	5
131	142	2
57	57	2
11	22	3
39	40	5
129	130	1
152	152	3
121	121	6
109	109	5
12	13	3
87	147	1
103	104	2
149	153	1
67	67	3
38	43	4
80	147	1
129	132	1
7	18	3
36	126	2
149	151	2
42	45	2
19	20	2
26	26	2
53	54	2
36	63	3
81	82	3
54	54	5
98	98	3
69	69	6
40	114	2
94	94	4
40	110	3
48	48	3
5	6	4
9	13	1
81	81	4
71	71	7
58	58	2
143	144	6
72	72	3
53	55	1
71	84	3
111	111	4
80	149	4
62	75	2
72	113	2
77	108	2
37	37	3
86	86	4
18	32	2
47	49	3
135	136	2
76	128	2
17	73	1
115	115	2
149	149	7
17	75	1
127	127	5
135	135	3
42	42	4
76	107	2
62	124	1
115	126	3
87	113	1
39	114	1
45	67	1
76	106	1
114	119	2
4	6	3
117	149	2
123	127	2
82	82	4
20	21	3
95	95	3
53	53	1
96	97	2
114	114	1
6	73	3
62	62	1
44	44	4
6	33	2
54	55	1
68	68	3
6	17	2
82	149	1
40	41	3
32	32	1
25	25	2
133	142	1
39	39	2
64	64	1
90	90	1
16	17	1
128	145	2
30	30	1
62	125	1
37	114	1
75	75	1
11	12	1
50	50	2
12	22	1
102	144	3
49	49	2
150	154	1
62	108	2
7	17	1
45	45	1
10	11	1
98	99	1
4	33	1
32	48	1
44	109	1
67	68	1
131	134	1
22	32	2
140	141	1
87	114	1
20	31	1
116	149	1
106	124	1
102	105	1
22	31	1
138	138	4
129	129	2
129	135	1
102	133	1
14	16	2
146	146	1
14	15	1
118	119	1
65	65	1
70	93	1
18	19	1
139	140	1
77	77	1
55	98	1
96	96	1
4	5	1
11	11	1
43	109	1
94	100	1
92	100	1
62	76	1
131	133	1
92	92	1
69	89	1
38	108	2
22	30	1
93	93	1
86	148	1
