180	180	6
10	10	6
165	165	5
9	43	3
213	214	3
109	109	6
191	192	5
106	107	3
215	215	7
65	65	7
178	178	3
200	201	1
76	78	2
242	244	10
76	81	1
7	7	9
209	211	3
52	52	2
111	111	10
198	200	5
95	97	1
236	236	7
211	211	5
14	15	4
50	50	3
72	72	9
245	245	2
188	188	8
224	224	3
156	156	7
186	187	6
204	234	1
32	36	1
79	79	3
211	222	3
9	9	8
212	212	2
47	48	3
56	56	1
243	243	2
164	164	2
236	237	4
6	6	1
231	231	2
177	178	4
58	59	2
19	27	5
219	219	3
238	238	10
187	188	9
4	5	11
45	48	2
66	66	1
18	18	11
173	173	9
241	241	3
19	19	3
82	82	4
118	119	3
61	86	1
227	227	2
41	41	4
113	113	6
109	154	1
246	246	4
228	228	2
14	14	5
202	203	1
95	95	7
177	177	11
49	49	11
50	76	2
51	51	4
116	116	6
162	162	2
94	112	3
20	27	1
8	8	11
42	42	6
100	100	2
47	77	2
147	147	2
53	53	2
221	221	7
2	2	4
72	101	2
87	88	3
58	58	10
43	43	10
110	110	3
98	98	2
170	195	1
12	12	2
248	248	5
96	96	11
20	21	5
237	237	4
221	222	5
241	242	1
210	211	5
168	181	2
167	167	9
36	37	6
224	225	1
220	220	7
4	4	3
166	166	7
20	20	6
161	164	1
212	223	1
174	174	3
77	77	8
50	75	7
229	229	2
15	16	1
165	166	2
190	191	2
97	97	1
26	26	3
95	96	6
159	159	8
189	189	2
239	239	5
243	244	2
54	55	2
187	187	5
71	71	4
233	233	19
93	93	7
14	30	1
186	191	2
103	103	4
226	226	8
178	179	2
54	54	6
34	34	4
168	171	2
35	35	4
54	118	4
1	1	1
168	180	1
14	34	4
104	149	1
20	29	3
180	181	1
240	241	3
40	202	1
232	232	1
200	200	12
62	66	5
98	112	1
159	180	2
115	116	5
101	101	7
175	175	5
77	80	2
194	194	4
46	53	1
170	170	2
210	210	6
112	112	2
81	81	6
89	89	3
146	146	2
32	33	2
242	243	5
42	43	4
150	150	1
215	218	1
158	158	2
206	212	2
22	23	1
203	203	3
30	30	1
32	32	8
85	85	4
114	115	3
43	44	4
60	87	2
38	39	6
222	222	9
151	151	2
199	199	2
168	168	6
5	5	2
110	153	2
50	51	2
187	190	4
198	199	4
33	33	3
216	218	3
107	107	9
199	201	2
242	242	3
191	191	3
240	240	4
11	11	5
88	88	5
73	100	3
28	28	6
16	16	2
36	36	7
48	50	3
73	80	1
164	165	3
48	49	3
207	207	6
74	98	3
118	118	3
190	190	8
31	36	1
117	118	1
30	31	3
204	231	2
197	197	2
189	208	3
171	171	6
160	161	3
48	75	1
201	202	2
197	198	3
158	159	3
50	116	2
85	86	2
115	115	4
115	201	2
50	77	3
29	29	2
94	94	4
220	245	1
247	247	4
37	37	4
118	145	3
160	160	1
208	213	1
201	201	8
87	87	2
40	40	4
116	169	1
210	214	2
186	186	4
13	14	1
182	183	1
15	15	6
193	194	2
97	112	1
63	63	1
21	21	3
41	43	1
179	179	4
154	156	1
23	23	2
181	181	2
79	80	1
182	246	5
14	18	2
182	182	1
92	92	2
93	94	1
235	236	1
17	19	3
208	208	2
39	40	1
71	72	1
247	249	1
55	55	5
217	217	4
31	31	2
211	212	2
195	196	1
3	3	2
159	167	1
62	62	3
163	163	1
117	117	1
204	213	1
27	27	4
44	44	1
153	154	1
205	213	3
216	216	4
204	204	3
235	235	2
198	198	2
227	228	3
84	84	4
109	150	2
206	206	1
218	243	1
196	239	1
120	120	3
19	21	2
86	88	2
108	108	2
83	83	1
70	70	1
223	225	2
151	153	1
155	155	2
160	164	2
17	20	1
206	207	2
161	161	1
119	119	2
156	158	1
156	178	1
80	80	2
46	46	3
74	74	1
108	118	1
52	53	1
231	232	1
223	223	2
193	197	1
45	52	2
172	172	3
22	22	2
209	209	1
195	198	3
2	3	2
234	234	3
230	230	1
24	24	2
189	190	1
59	59	3
144	145	1
228	229	3
157	158	1
7	8	2
39	39	3
67	84	1
175	178	1
17	31	2
152	152	1
176	176	1
49	50	2
225	225	2
244	244	1
203	235	1
92	93	1
218	218	1
76	76	1
10	41	2
38	38	1
48	48	1
225	226	1
69	69	2
216	241	1
198	201	1
86	86	2
237	239	1
2	43	1
94	115	1
108	153	2
190	208	2
25	25	2
188	189	3
244	245	1
41	42	1
109	153	1
20	28	1
64	64	1
49	112	1
163	164	1
9	41	1
214	215	1
116	196	1
183	183	1
214	221	1
181	214	1
205	229	1
101	102	1
