21	21	8
22	22	5
59	59	10
105	105	4
117	117	11
14	19	6
107	107	9
3	3	5
112	112	10
99	99	10
75	75	6
76	76	3
52	52	11
62	62	12
97	97	11
3	4	3
8	8	3
27	27	5
65	65	5
111	117	2
116	116	9
54	54	6
128	128	3
63	63	6
25	26	5
25	25	8
33	33	11
37	37	2
23	23	9
126	126	12
2	54	3
71	71	2
61	61	1
81	81	2
120	120	8
127	127	9
14	80	2
43	43	7
50	50	4
1	3	5
74	75	5
69	69	10
103	103	7
131	131	7
33	34	3
67	67	7
89	90	3
64	64	7
53	53	4
96	118	2
32	32	10
16	16	4
105	115	1
47	47	4
95	95	7
80	80	8
34	34	4
122	123	4
10	10	1
59	61	5
60	61	4
55	55	8
98	98	8
115	130	4
83	83	3
15	15	3
68	68	4
104	127	2
0	0	4
115	116	7
7	7	8
5	5	13
89	89	4
111	111	3
128	129	5
93	94	2
11	11	1
120	121	3
56	63	2
96	96	3
43	85	1
19	19	2
28	28	3
73	103	2
93	93	3
109	109	4
118	118	9
69	70	10
2	2	3
114	129	3
38	38	1
95	96	1
62	63	4
55	56	1
122	124	1
108	113	1
124	124	4
73	73	1
71	123	2
35	35	10
20	20	4
103	114	2
30	30	8
36	36	1
3	27	3
20	23	4
84	100	5
68	114	1
103	104	1
109	110	2
105	127	4
124	125	3
32	33	2
104	104	2
59	60	3
121	121	3
33	135	3
72	72	2
31	31	2
49	50	2
115	115	6
107	110	1
105	128	1
70	70	1
79	79	8
2	59	2
100	100	2
106	106	4
56	56	15
115	129	2
1	1	4
8	9	1
125	125	2
15	18	3
91	91	2
106	107	5
80	82	1
4	4	1
79	80	1
86	86	5
123	123	2
110	110	1
116	129	4
99	109	1
102	102	3
107	125	1
88	88	5
6	13	1
36	91	2
24	25	1
92	97	5
104	105	2
65	69	4
108	108	1
26	26	2
62	65	4
83	100	1
106	114	1
131	133	1
130	130	3
108	109	1
105	117	1
117	118	1
119	120	1
14	14	3
17	24	3
70	72	1
78	79	1
78	78	4
113	113	1
92	98	1
52	56	1
14	18	5
109	118	1
18	21	2
119	119	1
134	134	2
94	94	2
84	84	2
12	13	2
5	6	1
96	97	1
72	123	1
129	129	2
4	6	1
82	92	2
14	15	3
16	17	2
82	82	1
27	28	1
94	95	1
115	133	1
12	12	4
75	77	2
79	97	1
11	20	1
77	77	4
29	29	3
54	57	2
24	24	1
43	44	1
75	103	1
112	132	1
19	20	1
98	99	1
35	37	1
26	54	1
91	101	1
126	127	1
50	134	1
127	129	1
74	74	1
72	73	1
4	8	1
28	43	1
64	65	1
114	114	1
67	69	1
66	67	1
77	78	2
56	57	1
101	101	1
44	44	2
74	76	1
97	98	1
11	12	1
