14	49	3
183	184	5
158	181	4
9	9	4
90	94	4
42	42	4
195	195	1
59	76	5
181	181	11
87	88	3
216	216	2
68	68	4
163	163	9
196	196	8
225	225	2
45	45	3
88	204	2
183	183	6
240	240	1
208	208	2
81	81	7
62	62	4
94	94	4
162	226	3
196	201	8
226	226	10
53	87	2
57	58	5
150	151	4
186	186	3
95	96	2
29	29	3
73	74	1
194	197	2
2	4	2
200	200	4
115	116	1
55	71	1
192	195	1
8	8	5
62	205	1
227	227	4
156	156	12
213	221	4
79	80	4
162	170	4
58	58	5
219	219	8
151	151	3
35	36	2
111	111	1
27	28	6
85	85	9
170	171	3
187	188	3
82	82	5
194	196	3
83	83	3
69	69	14
185	187	3
236	236	8
43	43	5
27	27	3
16	28	1
201	202	2
203	203	4
239	240	1
176	176	3
189	189	2
96	96	7
7	7	3
32	32	2
56	56	1
36	41	1
160	160	2
64	64	6
211	211	1
16	16	8
207	207	4
109	109	8
169	169	3
53	86	2
40	40	1
97	97	2
108	108	2
112	116	2
105	106	4
167	235	2
70	70	5
180	181	4
107	107	5
231	231	3
25	25	5
22	22	3
40	42	1
192	192	3
177	177	6
90	207	2
158	182	1
45	46	1
233	234	5
173	179	1
50	50	6
169	170	1
41	43	2
33	33	2
37	37	6
185	186	2
101	101	2
245	245	2
90	204	2
114	115	1
194	194	1
103	107	8
168	168	3
198	198	6
33	43	1
236	249	1
213	220	1
217	217	4
149	150	3
100	100	7
54	54	1
237	240	1
165	171	1
230	230	4
171	171	3
55	55	3
184	184	3
80	80	3
72	72	4
202	202	2
213	215	1
186	187	3
31	31	2
115	115	3
161	161	3
95	95	3
234	235	1
198	199	4
49	49	2
154	154	2
169	235	3
30	34	2
22	23	3
110	113	1
73	77	4
209	209	5
239	239	3
15	15	1
91	92	2
243	248	2
204	208	1
191	191	6
74	77	1
76	77	1
108	112	1
105	105	2
206	212	1
8	24	2
157	157	1
46	47	1
153	153	5
232	232	3
99	99	1
86	87	4
146	150	4
5	49	3
77	77	5
1	2	2
245	246	4
6	7	3
185	185	6
19	19	5
3	4	2
224	225	2
181	223	1
162	162	3
53	53	2
76	79	1
64	65	2
112	112	2
44	44	2
233	233	3
58	59	2
179	179	1
69	70	4
166	166	1
17	17	1
34	34	1
110	110	1
4	4	2
57	57	3
47	50	2
41	41	2
92	92	2
29	33	2
146	146	1
153	209	4
178	178	1
205	206	1
92	108	1
184	185	1
10	10	3
26	102	1
170	233	3
36	36	2
220	224	1
113	113	2
153	212	1
94	95	2
7	37	3
76	76	3
74	74	2
235	235	2
6	46	1
89	89	1
85	95	2
109	110	1
119	119	2
144	145	2
231	234	1
180	182	1
51	51	4
17	21	1
30	42	1
46	46	2
159	159	1
25	26	2
51	88	2
20	20	3
6	14	1
220	220	3
36	102	1
100	121	2
18	19	1
204	204	2
237	237	1
10	11	2
145	155	1
61	62	1
206	206	1
205	205	3
103	103	1
174	175	4
78	80	1
222	222	2
61	71	3
39	39	1
14	15	1
186	192	1
47	49	1
64	73	1
48	49	1
30	31	1
71	71	1
64	68	1
63	69	2
1	1	3
159	181	1
228	229	1
59	79	2
10	28	1
234	234	4
212	212	1
38	38	1
97	109	1
21	22	1
193	194	1
238	238	1
24	24	1
11	11	1
73	73	1
5	5	1
114	118	1
23	23	2
40	44	1
63	63	1
118	118	2
104	208	1
228	228	1
216	217	2
67	69	1
67	67	1
177	178	2
213	213	1
244	244	2
32	34	1
28	28	1
181	193	1
197	197	1
35	35	1
224	224	1
87	94	1
152	199	1
12	12	1
