84	84	10
37	37	9
58	58	5
65	65	16
100	100	16
75	75	18
66	66	14
69	69	11
72	72	21
21	101	5
63	64	5
95	95	10
64	65	2
74	74	16
80	80	4
62	62	23
53	88	7
91	91	17
61	62	6
68	68	19
70	71	3
79	79	11
96	96	3
30	30	6
66	68	2
31	78	3
39	39	16
37	38	2
41	42	3
47	47	7
73	73	16
71	73	6
71	71	7
101	102	4
53	53	8
33	34	3
31	31	8
70	70	6
65	74	2
93	93	6
44	44	10
70	77	3
29	80	1
26	30	4
26	47	4
98	98	3
35	35	14
61	61	9
77	77	30
64	64	16
51	51	1
68	77	4
31	32	3
66	67	1
56	61	2
76	76	20
47	49	2
79	80	4
68	69	7
97	97	7
90	90	3
37	40	2
40	41	3
65	91	3
62	80	2
36	37	1
60	62	1
67	67	15
48	48	6
60	61	3
82	82	2
25	25	5
88	88	6
59	59	4
86	86	5
51	52	3
87	87	7
50	50	4
20	39	1
42	42	12
90	91	3
25	26	2
68	102	3
58	59	5
55	55	2
20	22	1
63	63	6
40	40	1
57	57	5
91	92	2
49	49	2
45	45	14
29	29	3
89	89	13
92	93	1
85	85	10
92	92	3
65	67	2
45	48	1
52	86	2
42	79	3
56	92	1
52	52	8
76	77	4
51	56	2
46	50	4
54	55	7
43	43	1
77	78	3
65	69	3
35	38	1
33	33	4
41	41	6
46	48	3
66	85	3
62	89	2
83	83	4
78	80	2
29	45	1
34	34	2
56	57	2
73	74	1
56	56	1
35	37	2
86	89	2
26	26	2
48	49	2
76	91	1
102	102	3
96	97	2
56	90	2
37	79	3
52	53	1
68	101	4
35	39	3
55	62	1
101	101	2
23	24	2
78	78	4
83	84	3
92	102	1
46	47	2
36	36	3
33	39	3
49	87	2
22	69	1
28	29	2
51	57	1
54	61	4
87	88	3
26	38	1
23	23	3
62	63	1
31	43	2
27	28	2
99	99	1
81	81	1
28	28	2
53	89	3
85	89	1
86	88	1
24	25	2
74	75	2
27	27	2
24	95	1
81	82	1
51	85	1
38	38	5
57	89	2
80	83	3
71	72	1
30	39	1
62	83	1
60	60	3
23	95	1
86	87	2
72	73	1
24	24	2
54	54	3
56	64	2
51	92	1
69	101	1
66	73	1
65	66	1
36	39	1
68	100	1
84	87	1
85	86	1
62	92	1
