7	8	8
13	13	12
33	33	10
104	104	3
14	14	13
91	91	4
16	37	4
112	113	2
2	3	4
33	34	6
86	94	3
36	37	1
75	75	7
0	0	13
109	109	3
12	14	4
81	81	12
34	34	13
131	131	22
79	79	6
102	102	10
78	78	15
4	4	10
132	133	3
88	88	3
14	33	2
72	73	2
114	114	7
27	27	16
5	5	18
116	117	5
15	15	11
123	124	6
17	18	1
73	73	13
115	115	13
18	18	11
26	27	4
85	85	13
2	2	10
36	36	9
35	35	16
134	134	20
99	100	3
20	21	5
119	119	18
135	135	8
126	126	10
139	139	4
97	98	5
7	7	12
81	118	3
35	97	2
97	97	14
124	124	6
117	119	4
8	8	8
90	90	5
98	98	6
136	136	8
78	85	2
83	127	1
76	77	2
132	132	6
95	95	15
101	101	5
127	127	10
108	109	6
68	68	2
31	111	5
103	103	4
83	101	4
133	133	16
116	116	11
119	121	4
30	32	3
95	96	1
102	103	8
86	86	8
13	22	1
72	72	9
110	111	4
31	31	5
101	125	2
19	19	13
5	11	3
117	117	13
21	27	1
26	26	10
99	99	5
122	122	15
108	108	3
105	106	4
3	3	8
35	36	2
3	98	6
9	14	6
96	96	10
111	111	4
73	77	2
1	1	9
3	38	3
16	16	9
13	16	4
105	105	5
9	15	2
110	110	8
21	21	11
77	122	2
118	122	5
139	140	3
24	37	3
110	112	7
36	80	2
83	87	1
12	12	7
30	30	10
13	37	2
11	12	4
29	29	4
88	93	5
23	26	9
130	131	4
128	128	1
80	83	2
11	11	11
2	20	2
15	20	2
107	107	8
8	30	4
10	10	2
123	123	9
17	17	15
38	38	7
113	113	22
101	116	3
22	22	7
32	32	6
6	6	3
115	126	3
125	125	9
20	23	4
82	83	3
140	140	9
100	100	10
85	115	2
88	91	4
83	83	11
89	90	1
73	75	2
129	129	13
23	23	4
120	120	8
15	29	4
96	99	4
37	37	3
30	31	2
23	31	4
24	25	2
24	31	2
81	82	6
130	130	12
25	26	1
126	129	3
4	5	3
1	96	1
84	84	3
75	77	5
138	139	1
77	84	3
103	107	1
17	19	2
2	4	6
103	104	7
111	112	4
5	31	3
125	126	4
93	128	2
77	77	5
13	14	4
3	4	3
137	137	7
87	87	4
112	112	11
94	94	7
71	71	6
124	125	9
76	78	6
74	76	2
114	126	1
121	121	11
19	20	1
9	19	5
71	127	2
111	123	1
24	24	6
127	128	5
105	107	1
29	30	6
28	28	6
138	138	5
102	106	3
106	106	3
121	122	3
80	80	3
89	114	1
103	124	2
1	4	1
107	115	3
9	9	4
10	25	1
14	28	3
105	109	1
20	20	7
87	88	2
25	72	2
108	123	1
94	100	1
83	84	1
21	32	1
8	22	2
1	97	1
101	110	3
4	6	2
98	101	1
9	18	1
10	12	6
2	5	3
3	90	2
86	112	2
88	116	1
15	16	1
93	93	1
34	131	1
16	33	1
35	131	2
113	114	3
94	95	6
102	104	1
90	100	1
20	35	2
11	15	3
100	101	3
27	28	2
26	38	1
90	91	3
71	125	1
4	90	2
76	76	2
118	137	1
103	106	2
25	25	1
114	115	5
91	93	2
99	101	1
118	118	3
111	131	1
22	23	4
98	114	2
20	22	1
107	108	1
74	74	1
115	124	2
104	105	1
83	124	1
86	87	3
115	116	4
2	36	1
0	13	4
85	117	2
74	75	3
5	27	2
74	112	4
22	26	1
105	121	1
8	9	2
103	105	1
116	119	1
7	113	1
135	136	1
101	102	1
120	121	1
77	78	1
87	113	1
33	72	1
137	138	1
116	120	1
73	74	1
14	15	1
79	80	3
74	85	1
2	9	3
28	113	2
31	32	1
97	129	2
92	92	1
10	13	1
98	99	1
17	20	1
81	120	2
19	21	1
109	110	1
4	34	1
117	121	1
106	108	1
88	89	1
83	105	1
81	85	2
95	110	1
6	12	2
84	85	1
115	119	3
118	119	1
12	13	2
129	130	2
131	132	1
89	89	1
36	120	1
15	88	1
84	121	1
80	93	1
38	41	1
2	7	1
91	92	1
23	24	1
81	83	1
109	112	1
