4	10	7
57	57	2
128	128	5
11	11	30
22	23	7
92	93	2
42	42	6
33	33	5
18	22	3
60	67	2
106	106	13
90	90	9
63	65	5
52	53	3
49	58	7
18	19	8
2	2	23
17	18	10
115	115	6
118	118	7
122	122	2
3	21	2
6	6	36
23	23	24
63	67	1
93	94	8
19	19	21
10	10	17
12	12	10
70	96	5
109	109	6
84	91	1
26	26	15
102	102	17
71	71	9
72	93	4
14	14	29
61	61	6
61	97	6
83	83	10
91	91	10
99	99	16
60	68	2
83	84	4
103	104	2
110	110	14
21	21	15
0	0	22
8	8	10
7	7	20
76	76	11
49	50	6
13	16	1
104	104	8
60	62	4
20	21	16
24	25	4
89	89	9
68	91	1
69	69	11
1	1	31
118	119	3
55	127	2
29	30	5
25	41	6
56	58	2
74	90	1
114	114	11
22	22	27
88	89	2
18	18	20
32	32	8
101	101	6
7	10	11
93	110	1
48	48	12
40	40	10
78	81	1
97	98	4
69	104	1
91	92	3
56	124	3
107	107	2
38	100	2
69	70	4
107	108	4
34	38	2
16	16	17
80	89	3
130	130	7
25	115	2
29	29	7
82	107	6
54	125	3
108	131	3
15	22	2
20	20	23
116	116	20
60	60	12
85	102	4
32	63	1
100	102	15
62	62	4
41	41	9
96	96	5
2	21	4
95	99	1
27	27	11
23	27	1
14	15	8
63	63	10
126	127	1
55	55	7
77	77	8
51	51	18
18	20	1
12	13	1
68	97	2
43	43	7
84	84	6
92	92	8
4	4	9
30	30	7
25	25	16
74	75	7
72	72	2
16	23	2
113	113	12
129	129	8
28	31	4
10	16	1
53	53	4
85	101	4
13	13	17
12	18	1
17	19	4
91	102	2
39	39	10
15	16	16
101	102	3
78	78	4
44	44	4
88	88	5
8	10	2
42	59	1
120	121	2
17	17	4
67	68	3
117	117	8
125	131	1
68	69	7
93	93	11
34	133	2
106	108	2
66	66	3
80	80	8
50	51	5
124	125	3
5	6	9
59	59	3
59	69	3
127	127	6
64	64	5
132	132	5
15	15	11
85	85	6
13	21	7
46	59	2
75	76	1
76	132	1
95	95	11
6	12	1
75	86	3
70	70	3
2	5	2
73	73	7
111	111	4
79	133	2
64	126	5
43	86	4
67	67	6
108	108	7
57	58	6
0	12	2
16	19	6
5	5	25
93	109	5
62	98	3
62	129	2
75	75	6
125	125	9
3	3	15
79	82	1
124	130	1
38	129	2
97	99	2
24	24	10
94	94	13
4	5	6
11	15	2
81	84	5
82	83	1
9	9	8
127	129	2
81	82	4
66	92	1
13	14	6
4	9	2
124	124	10
59	126	2
31	31	7
82	82	13
98	98	7
77	95	4
1	25	1
76	98	3
16	65	1
21	23	2
28	28	8
69	112	2
0	1	4
119	119	9
49	63	1
58	108	1
86	87	1
15	20	1
58	58	6
105	105	9
103	103	7
34	34	1
63	127	2
52	119	2
116	117	5
112	112	8
112	123	2
52	95	4
1	2	8
54	54	4
13	15	3
14	21	4
131	131	3
59	88	1
45	123	4
13	19	2
126	126	3
58	62	1
28	30	3
77	78	2
86	86	2
100	100	5
26	39	2
32	43	2
48	52	4
6	7	1
56	56	6
71	85	4
121	121	2
55	130	2
9	18	2
85	86	1
47	119	3
17	65	1
115	118	1
60	61	1
77	97	1
128	129	2
73	74	3
19	64	2
45	45	7
50	59	2
52	52	2
53	55	6
2	19	3
5	9	1
53	124	7
104	105	4
86	88	3
2	13	1
10	23	4
125	132	1
49	51	1
7	23	1
39	42	1
124	133	3
17	20	5
47	47	1
68	103	1
3	6	4
97	97	5
79	124	6
16	17	2
74	74	4
87	87	4
49	104	2
85	91	1
26	28	6
81	87	2
120	120	5
89	90	2
15	17	2
3	4	2
67	85	1
67	70	2
76	96	1
80	81	2
43	65	2
57	110	1
75	98	1
28	67	2
38	38	1
78	94	1
46	46	4
42	43	5
77	90	1
68	68	3
126	132	1
101	110	4
119	120	5
6	8	2
102	103	2
27	64	1
11	21	1
49	49	2
19	20	4
70	110	2
8	9	4
10	11	2
113	122	1
103	115	1
127	130	2
45	46	1
53	123	2
13	20	2
11	16	2
44	69	1
69	103	1
7	15	2
73	76	1
78	80	1
1	8	1
71	86	1
83	108	1
74	92	2
85	96	1
78	124	2
50	50	3
120	124	2
57	114	1
105	106	2
39	40	3
89	132	2
128	130	3
67	89	2
33	47	3
34	100	1
123	123	2
71	72	1
121	122	1
86	98	2
55	129	1
41	129	2
2	3	1
46	109	1
126	131	1
112	113	1
30	47	3
96	131	1
77	85	1
95	109	3
16	27	1
28	70	1
16	21	2
11	12	3
44	125	1
30	31	2
64	65	2
56	112	1
129	131	1
96	130	1
74	99	1
72	73	2
3	12	1
4	21	1
63	64	3
66	67	1
57	96	1
11	14	1
89	91	1
115	116	2
99	101	1
97	113	1
15	23	1
24	33	1
4	11	3
59	130	1
111	112	1
41	42	1
72	74	2
31	32	3
32	103	1
67	92	1
125	133	2
101	113	1
9	16	1
81	81	1
72	85	1
78	79	1
11	13	1
21	22	1
91	109	1
110	111	1
70	71	1
61	70	1
7	17	1
58	59	1
65	66	1
77	108	2
27	31	1
72	76	1
0	7	1
