64	64	7
21	21	2
31	50	4
1	1	9
5	9	2
57	57	10
71	71	16
14	14	5
38	39	1
18	18	2
53	53	7
13	14	6
51	51	3
46	46	13
42	46	1
9	9	8
69	69	4
55	55	12
8	8	24
62	62	2
56	64	1
78	78	7
71	72	4
20	20	1
39	39	8
13	13	4
34	34	7
3	3	2
5	17	3
5	6	1
66	66	3
65	65	7
42	42	14
74	74	13
80	80	15
63	63	5
7	7	13
6	6	9
40	40	5
19	19	15
33	65	2
67	71	2
26	27	3
8	9	4
5	5	6
35	35	11
73	73	13
27	27	8
75	75	10
40	47	1
10	71	2
38	49	3
77	77	5
43	43	2
17	17	9
1	3	2
9	10	3
3	5	3
0	0	11
19	52	2
61	61	9
26	55	1
4	5	2
33	33	6
32	75	4
42	52	4
49	49	13
14	20	2
34	46	1
44	44	8
31	64	3
28	28	6
72	72	9
12	12	4
63	64	3
62	63	3
56	62	1
79	79	7
36	36	12
27	28	1
68	68	5
65	66	2
37	37	8
12	14	1
60	60	8
67	69	1
26	40	1
56	58	5
6	72	3
32	55	3
48	48	12
38	38	8
48	80	2
27	75	1
5	7	3
14	50	1
39	40	1
47	47	6
9	21	5
30	57	2
76	76	7
49	52	3
50	50	2
31	31	7
69	70	2
2	2	3
6	7	2
41	41	6
22	22	6
15	16	5
22	69	3
59	59	4
26	26	4
48	72	1
42	45	2
12	22	5
43	60	2
8	19	3
6	9	5
26	41	2
47	78	4
29	42	2
28	41	1
69	71	1
60	61	3
75	76	2
74	75	2
41	42	2
4	7	2
4	4	3
58	58	6
70	70	3
54	55	2
47	49	1
56	56	1
32	32	4
30	30	5
7	17	1
8	76	1
45	45	7
52	52	9
2	3	3
31	32	1
30	41	1
59	60	2
47	77	2
40	41	2
68	69	2
76	78	3
16	16	2
1	2	2
9	12	2
45	80	1
34	36	1
70	71	4
35	72	1
38	41	4
54	54	5
57	76	1
11	12	1
9	19	2
59	61	3
15	15	4
16	17	2
78	79	3
48	76	1
65	74	3
8	10	5
29	29	1
56	67	2
46	76	1
60	62	1
25	55	2
17	20	1
7	27	2
77	78	1
60	65	1
1	73	1
3	6	1
44	45	2
50	51	1
12	13	1
40	42	1
46	47	1
7	8	1
31	68	1
64	65	1
25	51	1
25	26	2
29	30	1
2	4	1
52	63	1
12	47	1
37	47	1
10	10	1
49	50	1
11	11	1
29	72	1
47	48	1
51	63	1
3	38	1
21	56	1
