83	83	3
59	59	9
106	106	3
118	125	4
11	11	1
90	91	3
73	73	5
16	17	4
117	117	4
44	58	2
120	120	9
133	134	4
97	102	6
61	61	8
119	124	5
101	101	7
63	64	2
55	55	4
10	10	7
38	38	4
57	57	3
50	50	6
30	30	3
116	117	4
9	34	1
65	65	6
93	93	6
99	99	5
68	68	9
118	118	14
82	82	3
75	76	4
95	95	7
9	9	13
23	24	3
45	45	5
26	26	2
70	71	1
65	66	2
32	32	3
128	129	3
116	116	3
73	75	5
74	75	2
96	96	9
123	124	6
47	47	9
102	102	6
114	114	8
4	4	1
78	78	9
49	60	1
13	13	9
113	129	2
118	119	1
73	77	3
79	133	1
93	94	2
111	112	3
123	123	6
12	12	6
36	36	4
48	57	1
99	112	4
125	126	6
42	45	3
71	71	1
129	129	8
108	108	7
27	27	1
41	42	3
115	116	1
85	85	2
119	119	5
66	66	3
22	24	2
131	131	7
124	125	4
76	116	1
77	78	1
82	133	4
35	36	2
68	72	2
41	41	13
100	100	6
112	112	10
37	37	5
105	109	2
17	17	1
101	120	4
130	130	7
77	77	5
78	79	4
49	49	3
25	25	1
79	79	1
31	32	2
7	7	2
16	32	2
95	96	1
10	11	1
87	88	3
81	133	5
106	107	4
121	122	2
86	86	1
118	134	1
71	134	2
78	81	3
9	10	2
60	69	1
86	94	1
85	89	3
72	72	5
58	58	1
107	107	8
35	35	1
40	45	2
16	16	4
11	13	1
4	15	1
42	42	5
94	94	4
58	59	1
24	25	1
19	19	6
30	33	2
14	15	2
26	33	1
124	124	5
47	48	2
38	39	2
25	29	2
76	76	3
3	3	5
1	1	1
93	98	5
75	75	5
56	56	3
91	91	5
131	132	3
126	126	3
109	110	4
95	99	1
121	131	4
12	19	4
28	28	2
110	110	1
11	14	3
60	61	2
95	108	2
105	105	1
50	51	4
46	46	2
105	124	4
20	21	2
2	2	1
73	74	2
88	88	1
24	26	2
3	5	3
92	92	2
40	40	2
62	62	2
15	17	2
122	122	1
121	121	3
25	26	2
74	74	2
107	108	3
34	34	1
43	43	1
107	113	3
74	77	3
84	84	1
42	44	1
13	14	2
56	57	2
104	104	3
41	44	2
125	125	2
133	133	7
5	6	2
72	117	1
63	63	2
21	28	3
22	22	1
64	64	4
18	18	7
89	90	1
115	115	1
105	123	1
72	116	1
111	111	6
63	119	1
20	20	5
90	92	1
14	39	3
34	36	2
31	31	4
129	131	1
45	59	2
67	67	1
134	134	1
8	8	1
69	71	1
94	107	1
5	5	2
126	127	1
61	62	1
117	118	1
47	57	3
21	27	2
119	122	1
32	33	1
19	21	1
0	0	1
62	118	4
112	114	2
44	45	1
33	33	1
71	72	3
71	77	1
132	132	1
0	61	2
6	6	2
95	111	1
57	60	2
128	128	1
82	83	1
119	125	1
108	109	1
15	32	1
42	43	1
10	58	1
