61	82	2
35	35	12
107	107	10
143	172	1
52	67	2
136	136	8
65	66	5
120	120	7
149	149	5
40	40	3
160	160	5
115	118	3
134	134	10
93	94	5
90	90	5
122	122	8
21	21	8
72	72	9
19	65	6
103	103	5
156	157	9
11	11	7
99	100	4
171	171	14
95	95	6
80	80	10
44	44	8
144	144	3
2	120	3
89	103	3
94	94	10
43	79	1
143	148	1
140	141	1
145	169	3
38	38	14
109	109	5
90	91	1
53	53	10
13	13	3
24	26	4
2	3	2
160	161	3
15	45	4
146	147	4
8	8	4
115	136	2
117	117	6
62	63	8
151	153	3
100	140	3
77	140	4
149	166	3
172	172	5
16	16	11
57	99	3
111	111	13
99	99	2
167	167	11
10	10	6
87	87	9
112	112	2
54	58	7
89	136	1
141	142	1
130	130	8
55	57	2
51	57	1
34	34	2
5	5	7
140	151	1
152	152	7
28	28	7
141	145	2
107	108	4
156	156	10
10	15	3
60	60	8
126	127	2
22	57	3
60	118	1
116	117	5
56	57	2
169	169	8
121	163	1
162	163	4
24	24	4
116	118	1
16	17	5
147	147	8
23	23	1
159	159	4
168	168	20
141	150	2
140	140	7
141	141	5
51	98	4
12	12	2
123	124	7
126	126	6
79	86	2
133	133	8
41	42	2
115	115	3
77	77	6
139	139	5
22	91	2
113	114	1
104	105	2
114	114	8
143	143	7
132	132	9
54	65	4
21	65	1
150	154	2
155	155	4
118	118	9
62	62	7
74	74	10
128	129	1
27	27	7
120	121	5
68	68	3
17	18	2
54	54	7
124	125	2
145	145	8
153	153	9
83	83	4
43	44	2
33	34	1
15	15	5
171	175	2
167	168	2
44	45	3
128	130	3
134	135	1
4	6	1
73	73	4
157	157	5
129	129	2
43	43	8
176	177	3
84	85	1
178	178	5
55	55	5
168	169	2
166	166	5
124	124	10
90	92	1
59	95	1
108	108	6
150	151	2
114	119	5
8	12	1
42	43	2
62	152	2
60	61	2
61	61	4
175	175	7
105	105	9
175	176	2
159	167	1
112	127	2
130	171	1
76	76	2
45	45	6
41	41	1
16	55	8
110	110	8
52	72	1
75	75	2
106	107	2
81	81	2
106	106	7
97	97	3
166	169	1
102	102	13
86	173	2
57	57	1
64	65	2
148	148	6
91	91	7
173	174	3
107	159	1
155	156	5
113	113	7
37	68	2
104	160	1
87	88	4
122	166	2
53	76	2
14	15	2
101	101	2
84	84	3
67	67	3
71	72	3
77	111	1
55	56	2
111	164	1
14	14	4
76	128	5
112	114	2
173	180	2
13	14	4
2	2	3
119	120	4
64	64	3
80	132	1
105	107	5
146	166	2
94	161	2
79	79	6
150	150	4
134	172	2
71	76	2
31	31	4
17	17	6
93	93	13
63	63	4
1	1	4
26	26	4
71	71	6
64	66	2
8	9	4
26	28	2
76	77	9
10	16	2
177	177	4
37	93	1
56	56	4
132	179	6
2	7	1
173	173	6
80	131	1
10	11	1
32	90	2
123	162	3
17	21	3
165	165	3
123	123	2
33	35	1
17	22	7
39	39	9
154	156	5
92	92	1
179	179	1
54	55	5
36	36	2
159	160	3
166	167	5
125	125	4
0	1	4
32	32	4
151	151	4
29	29	6
143	144	2
174	174	2
138	138	2
127	131	5
3	5	3
131	131	5
172	173	4
112	131	2
129	144	4
121	122	1
50	51	2
94	107	2
50	50	1
0	0	4
135	135	5
99	109	1
82	84	3
58	58	3
65	65	4
85	85	5
143	147	3
78	79	1
91	93	2
176	176	5
37	37	3
91	94	2
59	159	3
177	179	1
18	18	1
86	137	2
137	137	3
125	147	2
39	40	1
6	22	1
54	107	2
146	146	3
50	72	1
26	27	2
3	3	5
169	170	2
119	119	5
8	10	2
122	173	2
160	163	1
24	36	1
52	52	3
84	174	3
4	33	2
130	146	1
115	117	3
42	42	3
144	164	1
127	128	3
79	168	1
98	98	2
3	4	1
130	131	2
158	159	1
91	98	1
57	58	1
77	78	1
82	82	3
126	173	1
23	33	1
138	139	2
40	43	1
55	64	1
124	163	1
35	36	1
66	111	1
104	169	2
19	19	1
121	121	2
59	60	1
73	175	3
1	2	3
78	78	2
11	12	3
26	31	3
166	171	1
60	98	1
154	155	1
125	170	1
124	171	3
164	164	2
54	112	1
53	54	2
58	73	1
62	81	1
94	95	1
63	64	1
86	86	3
66	66	2
35	37	4
40	41	3
163	163	2
6	6	3
31	32	4
96	96	2
121	176	3
14	16	1
30	31	1
92	94	1
76	141	1
170	170	2
148	168	3
107	167	1
32	37	1
42	45	1
14	17	2
33	33	5
53	68	1
134	136	1
130	132	1
163	166	1
152	154	1
89	89	5
136	137	2
92	135	2
158	158	1
127	168	1
121	134	1
115	116	2
79	149	2
138	162	1
161	163	1
133	172	2
58	95	1
6	7	2
77	132	1
7	10	2
43	82	2
61	80	1
9	10	1
22	22	1
159	177	1
59	59	2
78	80	2
63	109	1
162	162	2
163	165	1
86	87	1
15	16	1
143	149	1
123	125	1
64	92	1
37	38	1
83	111	1
19	20	2
101	102	3
77	80	1
90	102	1
116	116	1
144	145	5
114	115	1
16	50	1
62	86	1
52	53	1
56	72	1
118	161	2
29	30	1
56	62	1
138	172	1
85	174	1
6	9	1
9	9	1
