23	23	8
10	20	5
26	27	2
1	122	1
9	9	3
105	105	2
99	108	1
119	120	2
36	36	2
6	7	1
16	16	1
2	2	9
12	12	6
107	107	3
102	102	1
116	116	5
17	17	5
17	18	3
140	140	5
72	72	2
160	160	5
115	115	4
63	63	3
145	145	4
88	88	6
56	56	7
27	27	4
52	53	4
131	139	1
162	162	8
1	1	6
22	22	1
110	110	10
163	163	8
134	134	4
86	86	5
127	127	3
4	6	2
159	159	8
34	34	3
94	94	6
135	135	4
3	41	1
52	84	3
113	115	2
81	81	2
148	148	1
37	37	5
43	43	4
6	6	9
0	76	2
117	117	5
90	91	5
34	35	5
62	62	7
13	13	2
144	144	3
52	52	2
166	166	1
93	103	1
3	3	5
115	116	4
95	99	1
10	10	1
80	80	5
105	106	3
42	42	2
84	84	10
15	16	2
101	101	6
165	165	2
64	64	5
47	47	1
21	21	1
107	109	1
93	93	8
26	26	4
136	137	1
50	51	1
163	164	1
78	80	4
169	169	4
106	106	6
90	90	3
138	138	5
118	118	1
111	111	4
147	148	1
35	36	3
101	102	4
40	40	6
88	149	3
99	99	5
130	133	1
130	130	8
148	149	1
144	154	2
76	76	4
51	51	3
41	41	2
153	153	8
154	154	4
158	158	3
101	141	1
97	97	8
129	129	2
164	164	7
96	97	3
25	25	1
94	117	1
43	44	1
82	91	5
20	21	5
73	73	3
133	134	5
78	78	2
118	119	3
114	114	4
44	44	5
9	104	2
57	89	1
152	152	2
123	123	4
4	41	3
109	109	7
47	49	3
113	113	3
126	126	1
47	48	1
168	169	2
165	166	1
98	98	2
80	82	3
42	48	1
100	100	7
14	14	4
24	24	2
71	71	4
89	89	4
24	84	1
83	83	4
103	103	6
128	128	3
54	54	5
169	170	4
70	71	3
120	120	6
7	7	2
82	83	2
155	155	2
134	135	2
88	148	3
91	91	1
161	161	2
74	74	8
122	122	1
62	64	3
77	78	1
57	57	3
91	93	3
35	35	6
168	168	1
15	15	2
167	167	2
7	8	1
48	48	3
88	89	4
167	168	3
3	47	5
151	152	1
109	110	1
83	90	1
146	147	4
137	137	2
131	131	3
66	126	2
159	160	1
37	38	1
73	74	1
170	170	2
125	126	1
107	139	1
148	151	1
98	99	3
141	141	3
68	68	3
143	143	5
0	0	2
128	129	2
5	51	1
119	119	3
115	151	1
125	127	1
70	70	6
53	53	2
8	8	1
7	121	3
150	150	2
133	133	2
38	38	4
82	96	1
125	125	1
157	157	1
107	108	1
69	69	1
53	118	1
45	46	1
21	23	2
143	163	1
41	42	2
26	52	1
57	63	1
39	39	1
52	119	1
156	157	1
77	79	2
145	148	1
149	149	1
4	4	1
157	168	1
166	168	1
142	142	1
143	154	1
11	11	1
139	140	3
135	136	1
93	94	1
104	104	1
151	151	1
85	86	1
85	85	1
140	141	1
73	122	1
139	139	1
111	112	1
71	94	1
46	56	1
119	121	1
136	136	1
73	82	1
1	2	1
108	108	1
