147	151	4
220	239	4
54	54	12
226	228	1
150	150	8
195	195	15
81	88	6
216	216	20
179	180	4
61	61	13
30	47	2
212	212	11
0	1	8
77	77	10
53	53	11
145	145	11
176	176	7
126	126	4
29	61	3
7	17	2
182	182	12
227	227	8
117	151	3
199	199	20
167	168	9
5	17	9
116	116	13
2	2	17
43	46	3
46	47	5
233	233	11
126	154	4
72	72	14
20	21	7
60	61	5
23	23	5
55	78	3
136	154	2
148	167	5
114	117	5
235	239	5
40	40	11
104	106	1
57	57	11
225	225	10
67	67	18
43	43	8
137	137	17
224	224	8
60	64	4
190	192	8
27	27	12
37	37	11
59	71	4
164	171	7
3	4	1
177	177	11
201	213	3
192	193	3
184	184	9
241	241	12
214	233	3
56	56	5
116	129	5
123	124	3
213	214	8
159	161	3
97	100	1
74	74	10
226	226	7
163	164	4
75	76	6
147	155	5
52	52	11
133	133	4
163	166	2
166	170	1
222	235	4
55	56	4
200	218	2
201	230	6
37	42	5
209	237	3
161	161	12
188	193	1
24	24	9
149	157	3
134	134	5
238	238	14
29	31	2
136	136	15
104	130	5
187	189	2
7	7	14
212	215	4
215	218	2
28	28	6
27	28	5
96	96	10
45	50	2
203	203	6
145	147	5
19	21	3
149	149	7
205	205	10
75	75	3
123	123	13
151	151	10
199	230	5
158	158	14
162	162	13
155	156	1
58	58	4
35	35	3
193	193	2
184	185	4
174	189	1
135	136	7
173	173	15
190	190	11
194	196	4
59	79	3
214	215	7
230	230	13
236	237	8
108	120	1
31	31	4
157	169	4
80	82	4
71	71	10
45	45	13
165	165	8
191	193	1
201	201	17
217	239	1
119	148	2
50	50	16
164	170	3
212	221	1
18	19	4
60	67	5
61	62	1
25	29	3
233	234	3
17	18	6
150	152	5
160	160	5
182	206	4
120	122	8
78	79	7
167	167	3
173	181	3
111	133	4
38	38	9
59	70	3
65	84	2
149	151	6
109	109	8
113	113	9
62	62	5
129	129	13
153	153	11
215	228	2
186	201	2
171	186	4
128	128	12
160	163	1
107	140	5
140	141	18
120	121	8
157	161	1
158	168	1
123	134	3
99	99	7
171	203	5
209	222	10
102	102	6
86	86	10
19	22	3
25	25	5
167	242	1
49	49	13
193	194	3
0	0	12
218	235	1
142	142	7
30	32	3
16	183	1
218	223	3
180	180	5
132	146	3
99	100	4
33	33	18
218	218	6
159	159	16
179	185	7
26	27	4
1	2	5
91	91	8
188	189	4
160	161	4
39	147	3
206	206	15
155	155	12
188	201	3
15	35	2
194	194	2
29	30	3
8	37	5
9	10	2
126	143	5
1	3	4
83	83	9
199	205	2
141	141	6
222	225	2
210	210	9
156	156	5
116	133	2
4	21	3
190	233	2
26	26	11
208	208	9
120	120	6
129	130	3
148	149	3
168	168	4
167	180	2
49	183	3
172	172	7
202	236	3
149	155	5
229	230	3
21	21	14
171	171	12
100	107	3
111	114	3
135	152	1
105	108	5
63	63	4
100	100	4
107	128	1
45	65	3
13	13	8
17	17	8
174	175	3
16	16	13
212	213	6
168	170	4
104	108	2
39	39	7
211	212	4
217	217	8
8	8	9
34	34	10
25	43	2
24	26	6
204	209	2
177	191	3
181	201	2
203	217	2
86	95	2
105	107	1
144	153	3
217	218	7
73	78	1
6	6	22
58	69	5
192	195	4
56	57	4
82	82	3
125	127	2
189	199	1
52	53	1
202	202	3
0	25	2
97	97	9
122	122	5
8	19	2
209	209	5
103	105	1
229	229	12
12	54	7
230	237	1
125	144	2
73	73	7
108	108	6
121	124	4
77	82	2
220	220	4
103	124	3
123	139	2
161	162	2
101	102	1
11	20	2
42	42	6
20	154	2
1	1	13
146	155	8
154	155	1
133	135	5
122	124	3
0	35	1
131	131	10
98	114	1
220	236	4
88	89	3
108	138	1
1	8	1
169	169	7
60	60	5
41	41	6
56	141	3
33	36	2
48	59	1
100	112	2
218	242	1
223	223	11
221	221	10
136	153	6
122	160	2
104	123	6
147	173	1
55	58	3
105	105	5
145	155	3
198	198	10
82	102	5
135	135	10
12	12	13
51	53	4
101	141	2
224	229	4
34	106	2
35	36	2
188	198	2
15	61	1
146	151	2
65	66	2
22	22	5
167	169	4
143	143	6
178	194	1
62	63	7
163	175	2
73	88	6
148	158	5
179	191	1
146	146	12
76	78	3
175	176	1
142	146	3
119	122	3
34	124	1
61	197	2
89	89	1
211	238	2
37	50	5
44	44	6
146	196	1
9	9	7
53	73	2
174	174	4
138	139	5
220	234	5
219	241	10
214	214	8
27	44	5
46	46	8
22	23	1
219	238	4
100	103	4
118	120	3
14	30	1
219	219	14
84	84	4
78	111	3
227	240	5
170	170	7
55	55	10
0	9	1
45	62	1
18	20	6
11	11	4
164	183	2
115	115	5
29	35	3
54	55	11
98	98	6
199	208	1
0	14	4
232	232	23
0	209	1
40	54	5
13	15	1
7	22	1
125	138	2
47	48	7
12	25	1
47	47	2
172	180	3
75	86	3
51	52	4
177	190	1
76	76	7
188	212	2
191	191	7
50	53	4
31	59	2
201	202	4
155	178	5
65	65	4
3	22	4
219	225	1
27	43	1
172	182	1
10	10	8
117	117	2
175	175	9
102	122	1
63	84	5
85	86	4
107	120	1
118	124	2
51	51	3
144	144	4
135	143	3
203	204	4
57	59	2
226	234	1
240	240	7
14	53	4
157	158	4
47	65	1
99	101	5
210	211	2
18	36	4
58	79	2
56	85	2
125	125	5
207	207	4
212	236	4
7	8	2
120	125	3
30	36	6
15	15	4
10	26	1
188	190	2
106	106	3
189	189	4
221	225	7
70	118	1
197	215	1
33	45	3
159	168	2
162	165	8
161	169	3
187	202	2
219	220	7
225	238	2
192	242	1
139	145	3
101	137	1
53	55	4
42	51	1
154	162	2
71	80	2
15	43	1
52	61	2
4	4	9
183	206	1
75	77	1
241	242	2
177	207	4
188	188	3
91	92	1
14	15	4
185	185	6
150	158	1
101	105	3
85	85	13
238	240	1
237	238	4
224	225	2
149	150	4
69	69	10
140	140	2
102	120	1
159	160	5
49	52	1
32	32	11
195	203	2
213	215	2
15	28	3
56	81	3
121	121	6
138	140	3
218	219	1
236	236	13
239	239	13
64	64	10
132	136	4
164	174	3
20	20	4
117	136	1
225	231	1
215	224	4
209	210	4
61	81	1
215	215	3
127	130	2
164	164	4
103	131	2
139	139	4
43	44	1
137	155	4
56	77	2
8	25	3
204	204	6
166	166	5
141	160	1
186	186	4
160	185	1
135	141	2
26	46	2
60	72	1
180	197	2
48	62	2
10	35	4
152	157	2
154	154	4
118	138	1
104	111	1
118	119	3
202	203	4
52	202	1
129	133	2
50	54	2
131	133	3
143	156	1
101	148	3
145	167	2
15	19	5
88	88	14
13	17	1
71	85	1
162	183	2
211	211	13
70	70	2
179	179	1
108	113	2
222	222	4
25	36	4
59	60	7
47	160	1
67	86	1
118	123	1
8	20	4
205	215	2
30	30	4
170	199	2
107	107	1
228	228	7
127	155	1
182	197	2
12	13	6
48	207	1
51	79	4
143	152	3
1	242	2
167	183	1
22	42	1
48	48	5
10	27	4
126	145	7
182	216	2
235	235	4
38	47	2
45	46	3
200	201	5
152	152	9
165	166	2
68	68	3
103	103	5
34	54	3
180	230	2
125	155	4
102	105	2
208	214	1
137	145	1
191	195	1
158	159	6
181	181	8
225	239	2
67	68	4
15	18	3
35	40	2
59	59	8
183	183	3
19	23	1
5	5	6
104	104	5
118	118	14
137	156	1
14	14	3
18	18	3
138	138	5
20	45	3
114	139	2
124	124	4
156	157	1
200	202	1
54	56	3
115	130	1
242	242	2
31	70	2
30	31	3
31	47	1
237	237	4
236	242	1
32	34	2
178	178	2
191	199	1
202	235	3
169	170	2
150	171	2
79	79	5
66	67	3
39	59	1
71	72	1
192	198	3
177	178	2
13	36	2
42	45	1
126	146	1
208	240	3
16	51	2
12	16	1
47	66	4
196	196	4
144	150	1
113	136	1
111	135	1
120	123	1
62	64	3
170	184	2
16	39	2
230	236	1
49	63	3
181	182	4
105	111	2
117	129	1
7	19	2
126	142	3
147	170	1
80	80	8
32	56	2
180	231	1
95	95	3
64	80	4
190	191	1
101	101	2
73	74	2
119	119	6
234	234	5
145	148	1
55	71	2
208	227	1
163	165	2
52	54	2
175	192	2
123	151	2
78	78	8
205	223	3
162	168	2
53	82	5
175	196	2
25	153	4
224	234	1
119	134	3
132	133	2
128	146	5
215	232	3
24	32	1
23	24	7
115	126	3
4	24	1
145	146	6
14	45	2
5	21	2
135	155	1
163	196	2
138	153	1
148	148	2
130	132	3
173	175	2
9	16	2
172	177	2
3	3	3
57	58	1
106	121	2
202	221	3
171	177	1
99	102	2
227	241	3
9	11	1
177	195	1
0	2	1
187	187	4
105	129	1
176	178	2
224	240	2
133	138	1
170	178	3
66	66	5
217	231	2
6	7	1
110	110	2
14	23	2
37	38	4
194	197	3
164	194	2
103	107	2
72	116	2
193	196	4
171	202	1
167	170	4
146	172	1
28	37	4
199	203	2
215	216	1
123	137	1
152	154	1
28	31	3
224	235	2
132	135	1
197	197	4
46	62	2
20	22	1
212	222	2
24	85	3
55	72	1
28	30	1
40	41	2
38	225	2
173	206	1
68	108	1
139	140	3
165	175	1
15	47	4
78	82	1
163	163	3
10	24	1
103	120	1
169	182	5
223	224	1
81	81	3
192	192	6
147	158	1
46	50	1
219	239	1
80	83	1
109	118	2
6	21	3
2	5	3
119	120	2
25	64	3
19	19	6
103	113	1
63	81	1
111	123	1
56	82	1
58	75	2
8	9	2
195	198	2
186	212	1
29	33	1
216	241	4
225	229	3
117	143	2
75	81	1
51	70	2
18	22	1
77	78	2
184	187	3
2	21	2
191	194	1
146	150	4
68	74	1
202	205	3
122	123	4
218	224	1
5	18	1
16	31	1
128	137	1
189	229	1
19	20	1
180	191	3
57	78	2
111	149	4
81	82	1
191	216	2
0	15	1
107	122	1
8	29	2
97	101	1
5	6	3
169	178	2
184	195	4
145	153	2
213	213	2
23	39	2
170	177	1
148	151	2
28	40	1
8	15	1
141	142	6
82	85	1
134	135	2
211	222	1
107	123	1
6	10	3
100	108	1
199	233	1
142	145	2
201	215	1
96	97	3
29	32	2
12	33	2
101	107	1
3	6	3
231	237	2
17	30	2
34	51	1
182	190	2
124	139	2
53	71	1
68	70	1
95	105	2
104	105	5
39	81	1
191	227	1
75	80	3
6	8	1
114	134	1
109	110	1
68	78	1
163	170	3
220	242	2
162	170	1
141	143	3
9	32	1
158	166	2
172	173	2
41	56	1
191	192	1
4	46	2
2	3	2
56	84	2
173	199	1
125	147	1
128	169	1
133	134	1
70	85	1
113	137	1
127	127	2
142	144	1
27	30	1
14	24	1
180	183	1
4	184	2
28	29	2
4	28	1
149	158	2
59	81	2
116	118	1
184	192	1
212	238	1
195	197	2
96	115	1
33	208	1
181	196	1
186	198	2
8	17	2
97	98	2
223	237	2
144	152	1
159	192	1
211	213	3
7	167	2
126	127	2
146	147	1
228	233	1
37	56	2
68	84	1
53	67	1
30	55	1
34	56	1
103	117	1
62	65	1
225	228	1
111	152	2
111	111	1
169	181	1
25	26	2
109	136	2
157	157	2
231	232	3
52	70	2
79	84	1
219	231	1
49	50	1
113	234	1
5	13	1
4	34	2
147	147	1
86	96	1
180	201	1
125	126	1
31	32	1
156	159	1
42	52	2
171	173	2
100	115	1
71	74	3
39	46	1
27	32	1
125	128	1
130	130	1
64	65	2
11	33	1
170	175	2
141	170	1
240	242	1
182	185	1
149	166	1
168	169	1
119	126	2
198	210	2
86	120	1
84	88	2
22	28	1
189	195	2
16	17	1
1	22	2
46	217	2
79	83	1
151	192	1
190	194	1
0	4	2
179	193	1
31	54	1
4	31	1
111	112	2
157	171	1
189	216	1
178	191	1
155	157	1
83	84	2
158	170	1
37	196	1
187	207	1
219	236	1
170	173	1
69	70	1
142	143	1
1	30	1
226	227	4
136	137	2
86	104	1
239	240	1
147	148	1
24	142	1
48	50	1
180	195	1
144	151	1
190	195	1
131	135	1
24	27	1
27	46	1
202	204	1
60	68	1
227	228	1
17	22	1
7	13	1
154	157	1
127	156	1
1	7	1
48	186	1
205	218	1
124	134	1
127	128	1
142	147	1
164	180	1
143	147	1
216	233	1
48	66	1
55	75	1
189	190	1
126	155	1
26	49	2
36	36	1
4	22	1
204	208	1
4	16	1
63	69	1
181	231	1
50	68	1
200	213	1
70	80	1
67	75	1
178	204	1
56	62	1
203	212	1
