109	109	2
57	57	16
33	34	5
105	106	9
67	67	7
80	81	3
90	90	5
74	75	10
55	55	14
70	70	17
71	71	8
97	97	19
20	20	8
103	103	7
54	54	8
58	58	8
83	83	3
48	102	3
28	70	3
25	25	8
64	65	10
31	31	11
40	41	5
30	30	12
27	27	7
44	44	12
111	112	4
87	87	3
27	38	1
35	40	2
59	59	7
79	80	3
40	40	14
22	22	13
114	115	2
112	113	7
84	84	5
103	104	6
80	80	11
100	101	7
50	50	9
37	46	5
46	46	9
108	108	19
34	34	15
105	105	5
75	75	6
54	56	5
41	41	11
35	35	4
43	44	3
56	56	16
92	92	17
21	50	5
31	32	1
81	81	9
26	26	9
109	112	1
55	56	2
32	34	2
93	93	5
71	73	2
78	79	6
88	93	2
55	92	4
75	88	4
30	37	1
110	110	9
66	66	15
73	74	5
113	113	8
104	104	6
88	88	14
77	81	4
33	33	9
77	78	3
77	77	8
56	57	9
31	38	3
97	107	2
76	76	11
63	67	2
69	72	2
32	32	6
86	87	5
108	109	4
111	113	1
99	100	4
38	38	12
99	99	11
28	73	3
45	45	8
52	53	4
68	68	8
111	111	5
75	90	3
82	82	3
85	85	8
32	33	1
96	96	11
62	62	7
103	110	1
78	78	11
71	96	3
32	47	2
49	99	2
49	49	12
85	86	7
92	112	1
59	60	9
28	97	4
95	95	13
50	100	3
78	83	3
37	38	5
83	97	1
51	51	7
74	82	1
69	69	7
21	73	1
41	51	2
114	114	3
73	84	3
48	48	9
76	82	4
24	94	1
95	97	4
81	112	5
103	106	4
58	59	12
102	102	4
63	63	7
88	91	2
94	94	5
74	74	15
79	110	2
90	91	8
62	81	1
100	100	11
105	109	1
98	98	9
43	43	11
29	29	5
28	28	3
28	29	13
87	88	4
65	66	2
40	45	1
74	84	1
23	41	1
67	69	3
25	27	2
37	37	5
102	103	4
77	98	5
53	54	2
101	101	8
23	24	1
82	84	3
91	91	9
78	80	1
107	107	8
83	85	2
39	40	2
47	47	3
36	39	2
53	53	10
50	75	1
35	39	1
35	36	4
50	51	1
56	98	3
110	111	4
60	60	2
63	64	5
21	32	4
72	74	1
72	73	3
70	71	3
112	112	10
85	87	3
36	37	2
71	72	3
65	65	3
26	27	3
42	42	8
22	42	2
82	83	1
106	107	2
68	69	4
19	22	2
83	84	3
94	95	2
38	39	2
95	96	1
27	29	1
30	70	1
22	29	2
40	43	1
21	72	3
73	100	2
84	87	2
93	94	2
89	89	3
79	79	9
24	24	6
39	39	6
98	99	3
64	64	4
23	38	2
80	82	1
44	45	3
109	110	2
56	75	1
25	26	3
86	86	3
92	93	1
72	72	1
36	36	2
19	19	3
48	49	1
64	98	5
84	95	1
88	89	5
21	21	2
106	106	3
109	111	2
94	107	1
94	96	2
80	98	2
47	51	1
21	76	1
96	97	2
61	61	3
73	73	2
103	111	1
71	97	4
84	85	2
54	58	2
52	52	3
76	87	2
62	85	2
28	30	2
64	81	1
21	75	1
24	25	3
88	90	1
23	23	2
53	57	1
20	96	4
82	112	2
20	22	1
64	68	1
66	67	2
20	45	1
76	110	1
77	89	2
54	93	1
101	102	1
22	25	2
92	95	1
104	105	3
64	66	1
65	105	1
76	77	3
78	82	1
38	40	2
42	46	1
91	94	1
61	81	1
70	73	1
49	75	1
55	93	1
49	50	1
115	115	1
64	109	1
33	36	1
65	68	1
74	85	1
54	108	1
51	75	1
