78	78	8
98	98	7
96	96	11
93	93	18
35	35	11
29	29	3
95	96	1
94	94	11
70	70	3
66	66	11
24	24	7
21	22	6
55	55	11
31	31	15
32	32	7
74	74	13
104	104	5
40	41	14
51	51	7
31	33	12
64	64	6
47	62	2
61	61	5
76	76	11
81	81	4
65	75	2
24	29	6
39	53	1
82	82	8
79	95	3
97	97	10
100	100	12
23	23	22
74	75	7
40	40	6
91	91	8
44	44	7
76	77	5
89	89	27
105	105	5
95	95	3
68	68	4
34	69	3
38	38	2
63	64	4
71	71	17
22	22	5
82	99	3
59	59	8
45	45	17
90	90	6
92	92	7
72	72	7
38	69	1
62	62	2
33	34	2
103	103	6
56	56	10
43	44	8
50	50	8
85	85	3
44	52	1
36	71	3
83	83	5
70	106	1
88	88	3
39	41	2
45	48	2
58	60	3
86	86	4
53	53	8
88	89	2
27	69	6
49	49	2
94	95	2
27	27	8
47	47	5
60	60	5
23	34	1
99	99	12
91	102	7
38	45	1
93	94	2
31	32	5
71	72	8
71	73	3
52	52	6
75	75	8
70	72	4
72	73	3
33	33	3
83	90	2
49	50	1
52	55	8
82	87	2
58	58	9
81	93	2
89	92	5
73	100	4
36	36	2
21	21	4
24	25	3
24	49	3
22	29	3
54	54	17
23	62	2
20	24	2
22	23	2
34	35	3
55	56	6
50	52	2
41	41	8
73	73	5
28	28	3
46	48	1
45	46	5
38	47	1
37	46	2
54	102	3
79	79	3
63	63	4
74	89	1
58	103	2
26	26	9
20	60	2
67	68	2
30	30	11
69	69	3
67	67	6
80	80	1
23	24	4
57	57	8
21	89	1
102	102	5
92	93	7
39	45	3
75	103	1
21	34	3
37	37	7
51	52	2
34	34	3
61	77	2
52	53	6
37	39	2
78	79	1
54	62	3
46	46	2
26	27	3
69	103	1
51	53	2
21	31	1
59	60	2
61	78	3
54	61	2
54	86	1
61	62	1
41	42	1
95	98	1
66	68	7
25	26	1
82	83	1
82	97	3
68	69	9
25	25	3
65	65	5
87	88	1
79	80	2
92	101	2
43	43	1
24	48	4
80	87	2
72	76	2
106	106	1
54	56	2
20	20	1
62	63	1
65	66	2
40	42	1
93	101	3
63	65	1
89	90	2
51	54	2
57	93	2
21	23	1
93	95	2
102	104	3
84	84	3
101	101	3
61	81	1
83	85	3
98	99	2
30	82	1
38	39	1
42	42	4
84	87	1
55	87	1
39	42	2
44	45	4
75	104	1
34	97	2
25	28	2
79	81	2
48	49	1
97	98	2
20	21	1
36	57	2
39	39	3
50	51	1
57	58	2
56	60	1
48	48	1
102	103	1
83	84	1
73	74	1
42	43	1
47	48	1
