145	145	9
81	81	5
109	148	3
37	37	5
26	26	16
57	96	3
176	177	4
178	178	6
29	47	2
154	154	11
116	116	10
39	39	4
60	61	2
111	111	2
64	64	14
34	35	11
19	53	3
25	25	10
17	17	3
170	170	17
11	11	4
172	173	4
93	94	6
90	91	5
4	84	1
27	46	3
160	160	8
78	78	4
115	168	4
105	105	16
41	45	3
19	19	8
103	105	2
63	140	2
140	140	5
33	33	10
134	154	1
89	89	6
48	48	4
110	111	2
26	28	2
90	93	9
84	84	11
27	27	18
166	166	12
43	53	4
43	86	5
53	53	4
133	133	4
10	37	1
186	186	4
143	143	4
73	121	3
52	52	5
24	56	4
167	168	4
128	128	5
165	166	6
73	79	6
102	102	11
60	62	3
104	104	3
181	181	8
31	39	1
58	59	6
8	30	2
32	32	7
29	46	6
115	116	1
109	109	10
165	165	4
176	176	4
183	183	3
85	102	1
184	185	1
0	1	2
129	139	2
129	129	8
43	54	4
90	90	4
61	121	3
125	125	9
40	40	10
79	80	1
185	185	4
105	109	2
75	75	4
45	45	27
114	114	8
100	100	3
4	66	5
35	35	2
149	149	10
96	96	8
90	95	5
10	23	1
189	190	3
174	174	9
106	143	6
63	63	7
97	97	4
156	157	5
162	162	10
103	121	5
131	138	5
84	186	2
23	24	5
114	138	2
160	161	3
171	171	6
167	167	5
184	184	5
97	103	4
32	39	3
1	2	2
28	28	5
112	112	3
153	154	4
5	5	4
111	112	4
105	107	3
164	165	7
134	135	1
10	10	13
20	20	7
118	118	7
75	161	4
160	182	2
168	168	3
158	158	2
60	75	2
35	36	5
63	66	6
121	123	5
15	15	4
157	158	1
88	88	7
149	187	2
95	98	1
58	62	1
22	24	1
152	152	2
107	107	5
12	13	6
127	135	2
67	67	8
54	54	5
175	176	3
0	21	1
94	94	3
30	30	3
14	14	9
38	73	1
182	182	2
77	127	2
164	170	1
95	103	2
66	66	4
44	45	1
58	60	1
147	147	5
1	1	6
73	73	6
47	47	7
188	190	6
136	144	3
136	136	4
32	78	3
187	187	4
127	127	7
190	190	3
110	110	2
83	112	3
176	185	2
77	77	5
91	91	1
123	123	2
34	34	1
83	83	9
18	18	1
156	159	2
15	24	5
164	164	2
0	0	7
187	188	3
96	97	4
153	153	6
111	118	2
151	151	2
6	7	6
86	86	5
168	169	5
61	61	3
118	168	1
60	60	3
118	119	3
44	44	3
122	122	2
187	190	6
148	148	4
112	138	4
143	144	3
125	127	1
124	181	2
108	108	7
21	21	4
24	72	1
11	12	2
99	99	5
160	162	2
60	65	1
99	106	3
136	137	1
5	7	1
73	97	2
89	100	5
41	85	2
9	37	3
119	119	6
37	38	3
42	42	11
72	72	6
134	134	8
89	101	1
33	34	3
20	110	3
22	22	4
101	102	4
2	2	8
104	111	2
38	38	6
46	46	4
98	98	4
98	99	1
9	9	1
16	84	5
121	121	7
76	76	11
171	172	4
147	190	2
74	74	6
188	188	5
12	12	6
117	117	9
26	46	1
135	136	2
150	150	9
141	141	2
175	175	3
6	8	2
172	172	6
16	18	4
32	41	2
4	4	1
58	58	3
59	59	7
10	12	1
12	91	1
73	77	1
147	179	2
163	165	1
57	57	3
68	68	3
171	174	3
3	3	6
13	13	2
70	138	4
61	81	1
87	87	1
95	101	2
43	43	6
42	43	3
16	17	5
29	30	1
97	121	2
132	132	5
77	78	2
114	130	1
169	169	4
56	56	2
15	115	2
138	138	4
34	101	2
139	139	2
128	129	1
95	95	6
92	92	2
173	173	1
179	179	3
151	164	1
84	85	1
29	29	2
85	85	3
62	62	2
76	161	2
25	53	3
106	107	2
151	175	1
1	4	2
103	103	5
32	38	5
47	90	1
15	123	1
173	174	4
146	146	3
155	163	1
82	82	1
128	149	1
108	145	5
170	174	1
160	186	1
1	35	1
174	175	1
155	176	3
183	185	4
96	112	1
75	81	3
112	113	1
54	55	4
7	7	6
104	138	2
1	85	1
67	87	3
113	127	1
106	106	2
159	162	3
113	120	4
154	181	4
129	130	6
147	154	1
16	19	3
108	143	2
9	85	1
116	130	1
116	129	1
57	98	4
38	39	1
131	131	1
104	105	2
106	140	1
148	152	3
13	32	2
126	126	2
103	104	3
160	184	1
147	187	4
33	35	3
11	24	1
6	6	1
105	116	3
24	71	1
111	140	2
71	71	1
157	157	3
54	106	2
80	81	3
3	85	1
64	141	2
144	184	1
8	101	3
178	184	3
10	72	5
8	8	5
76	105	2
28	31	1
110	184	1
6	107	3
153	181	3
153	177	2
161	169	1
91	95	2
127	128	2
114	115	1
15	47	1
24	24	2
8	37	2
96	98	2
97	98	1
60	81	1
23	23	1
12	41	1
36	36	1
152	153	1
20	25	1
138	144	1
91	127	2
130	131	1
168	170	1
177	177	1
45	46	1
156	169	1
74	76	1
176	188	1
6	54	1
37	91	1
22	23	1
83	86	3
32	33	1
149	189	2
110	150	3
13	46	1
93	93	2
164	172	1
178	179	1
42	48	1
65	65	2
162	163	2
60	63	1
61	62	1
180	181	2
124	124	1
166	180	1
18	20	1
0	2	1
107	144	1
83	125	1
159	163	1
114	159	1
21	26	1
59	75	1
159	159	1
161	181	1
7	37	3
151	152	1
105	121	1
48	49	1
185	187	2
0	84	1
111	148	1
109	110	1
131	137	1
76	83	1
70	70	1
