81	81	12
31	31	11
109	109	11
9	11	1
125	125	5
83	84	5
32	32	18
42	42	5
3	3	6
39	39	11
54	54	13
40	40	12
57	57	11
58	58	9
81	82	7
93	93	13
67	68	9
108	108	10
126	128	1
61	61	1
23	23	7
47	47	6
64	64	6
2	3	2
21	22	3
48	48	15
10	11	1
112	113	6
23	65	5
113	125	2
43	43	7
13	14	2
85	89	1
5	59	4
21	21	7
111	112	4
27	27	14
77	78	6
121	121	24
56	110	4
41	41	10
50	95	4
49	69	1
94	94	13
48	50	2
118	118	16
40	41	3
124	125	3
9	9	4
72	74	2
19	19	5
111	111	9
51	51	8
102	104	5
113	113	11
96	97	3
1	1	14
102	102	18
17	17	5
111	113	2
104	104	11
81	124	1
69	69	12
95	109	4
55	55	9
72	73	7
89	89	17
11	11	3
49	49	14
52	52	17
115	115	12
39	48	2
45	46	2
81	106	1
69	76	8
60	60	7
24	24	6
120	121	1
1	2	1
93	94	6
84	92	1
59	97	4
44	44	14
84	84	9
114	114	8
130	130	1
92	92	12
2	9	5
65	66	8
79	79	7
1	32	2
76	76	10
91	91	11
20	20	7
133	133	3
98	98	6
123	123	12
39	57	1
82	82	13
120	120	8
127	129	3
49	101	3
15	68	4
13	13	10
90	103	2
101	107	1
96	96	7
117	117	6
2	2	4
40	81	2
4	5	5
92	93	4
32	38	2
42	43	2
126	127	4
38	38	5
110	110	10
46	47	6
62	62	11
73	91	2
53	53	6
100	100	5
116	116	4
11	25	2
15	15	5
129	129	6
12	12	11
72	93	2
124	124	10
16	18	2
18	18	8
90	90	8
105	116	1
103	103	10
131	132	2
57	110	1
14	14	4
78	79	3
105	106	10
31	43	1
61	62	4
74	74	1
16	17	1
29	29	7
80	94	2
132	133	1
51	52	4
47	48	3
68	68	14
56	56	16
22	30	1
59	60	4
86	86	17
80	80	9
60	97	2
107	107	8
97	97	12
78	115	3
34	38	3
39	40	3
112	112	14
4	4	10
78	78	9
128	128	3
63	64	2
105	105	10
28	69	4
22	23	3
3	28	1
95	95	8
25	25	9
45	45	3
41	42	2
0	0	5
79	80	1
77	77	10
66	76	3
8	8	10
114	123	1
42	66	6
115	119	4
71	71	6
88	88	7
52	105	2
122	122	5
28	28	11
87	98	1
70	131	2
50	50	8
16	16	4
85	85	9
125	132	2
64	65	7
63	63	4
7	33	3
132	132	4
117	131	2
63	70	3
32	33	4
27	29	4
82	122	1
30	30	4
87	88	1
11	12	2
119	119	5
2	57	8
86	92	2
22	22	4
88	89	2
106	106	11
101	105	1
131	131	3
60	62	1
5	5	13
83	125	1
113	114	4
94	96	6
62	64	1
81	101	1
75	77	4
84	85	2
130	131	3
116	123	1
59	59	5
126	126	4
39	47	1
58	97	1
75	75	7
6	6	13
10	10	5
67	102	1
71	72	3
19	20	3
64	66	2
117	118	1
76	83	1
28	29	5
83	83	6
7	7	9
68	69	1
2	32	4
126	131	1
72	72	3
46	46	8
99	101	2
110	111	2
99	100	2
60	61	3
66	66	14
69	75	3
122	123	2
100	101	3
34	34	1
77	109	3
84	125	1
115	116	1
82	83	3
20	22	2
67	67	9
95	96	2
117	120	1
33	54	2
23	30	1
82	84	1
46	50	2
79	105	3
17	18	4
125	131	1
107	108	2
43	46	1
13	30	4
11	31	2
99	99	6
101	103	2
44	45	1
19	38	3
43	45	1
27	75	1
41	66	1
26	29	1
74	77	4
86	98	1
73	101	2
6	7	2
104	105	2
85	128	1
80	105	2
101	101	4
42	107	1
18	20	1
49	51	1
30	41	3
23	25	1
102	108	3
42	58	3
32	58	2
33	43	2
0	2	5
86	87	4
26	101	1
30	31	1
64	75	1
57	123	2
73	92	2
84	107	1
73	73	3
38	39	1
28	75	2
84	126	1
74	75	1
14	15	3
3	4	2
128	130	1
106	107	2
24	70	3
114	116	2
15	21	1
63	68	2
125	130	1
15	17	1
48	78	1
12	29	1
27	28	2
49	52	2
94	95	3
44	58	1
100	104	4
58	81	1
40	44	1
26	26	2
11	29	4
34	87	1
9	33	2
115	126	1
65	70	1
89	90	1
41	107	1
73	74	2
67	77	1
52	53	5
24	29	2
66	68	1
26	27	1
101	104	1
79	86	1
127	128	1
102	107	1
39	41	1
10	12	1
8	10	1
33	48	1
66	67	1
60	94	2
81	83	1
12	24	1
50	112	1
116	117	1
50	51	1
62	63	1
91	92	1
47	52	1
103	106	1
8	52	1
57	58	1
80	81	2
88	107	2
8	119	1
56	57	1
39	72	1
69	92	1
58	67	1
7	8	1
121	123	1
32	69	1
43	44	1
86	88	1
70	70	1
26	60	1
74	100	1
70	75	1
57	80	1
102	106	1
8	9	1
68	96	1
65	91	1
91	93	1
87	87	1
23	61	1
119	125	1
50	94	1
119	123	1
5	6	1
57	121	1
68	71	1
72	76	1
