60	61	2
76	95	3
10	11	2
65	65	6
54	54	5
89	89	4
26	26	8
39	39	1
114	114	10
99	134	3
112	112	4
102	102	10
31	31	7
93	94	3
29	30	2
132	132	8
111	115	2
16	16	7
109	110	2
60	60	11
126	126	10
108	110	2
64	87	2
61	99	2
25	54	1
48	50	6
103	103	10
130	130	7
1	1	3
77	78	2
101	101	5
58	58	2
114	115	1
11	14	2
78	78	14
23	23	6
18	50	1
4	4	12
71	72	7
109	111	1
106	106	7
97	100	8
121	121	9
97	97	7
57	57	8
122	124	1
53	53	11
79	80	4
131	131	9
1	2	8
50	50	3
129	129	16
34	34	4
64	64	10
71	73	3
99	99	1
62	62	6
18	18	4
110	110	10
35	35	15
116	116	4
46	50	1
88	88	11
91	107	2
71	71	8
118	118	12
12	12	5
16	17	4
82	84	3
15	57	2
87	105	1
54	55	7
68	68	8
98	98	7
59	59	7
15	16	3
6	9	4
120	121	2
93	93	7
109	124	3
43	43	10
76	76	5
67	68	5
28	28	7
131	132	3
36	36	7
122	125	4
69	69	5
27	43	4
113	113	5
92	93	1
20	20	6
2	2	15
65	66	3
74	74	3
29	29	4
44	44	1
124	125	5
63	63	12
80	80	9
82	82	6
37	37	2
106	128	1
22	23	4
61	91	4
107	117	4
83	83	3
27	27	2
77	83	7
94	94	2
79	79	8
118	127	2
9	36	3
73	73	7
70	70	6
44	45	2
9	9	5
87	87	4
114	116	3
100	100	10
128	129	2
59	62	2
90	90	8
119	119	12
79	110	4
81	81	3
20	23	3
23	24	2
27	28	4
126	127	1
38	38	4
79	101	4
95	95	2
72	72	3
119	121	4
90	92	4
103	104	6
6	6	3
115	115	3
133	133	7
31	33	2
91	91	3
86	87	6
54	58	2
115	116	2
32	33	4
64	88	3
57	58	3
112	125	2
19	19	5
85	87	2
14	16	1
124	124	5
7	38	1
125	125	6
84	87	3
120	120	3
89	90	6
133	135	1
56	56	8
127	127	7
55	55	5
33	33	3
117	118	2
5	5	4
55	56	5
17	17	4
127	129	2
35	66	1
82	83	5
76	101	1
77	77	5
7	7	2
66	84	2
107	107	11
9	10	4
30	30	1
58	66	2
84	84	5
109	127	1
106	107	2
70	71	4
122	122	5
113	127	4
108	108	5
75	104	4
121	126	2
21	21	5
47	47	5
119	120	1
110	112	5
91	92	5
96	96	6
86	86	2
67	67	2
123	123	6
65	69	2
134	134	7
19	24	1
121	122	1
125	126	2
49	49	3
24	30	2
85	85	5
52	52	2
110	125	1
104	104	3
11	11	6
77	97	2
35	60	5
128	128	5
25	25	2
64	68	1
43	45	1
21	22	3
7	36	1
75	75	5
12	27	1
10	26	2
35	36	1
3	4	6
129	134	1
83	111	1
34	35	6
90	91	1
129	130	7
34	59	1
109	109	5
65	68	2
47	51	2
113	116	1
102	103	3
56	57	3
50	51	1
70	79	4
126	130	3
34	38	1
108	111	3
30	31	3
87	114	3
7	8	1
117	117	3
13	13	5
8	36	3
8	9	3
53	54	1
1	3	1
63	128	2
14	14	4
22	22	1
112	113	2
92	92	6
78	85	2
0	0	2
66	69	2
16	26	1
97	98	2
14	15	2
78	79	2
26	52	2
96	97	1
63	64	1
12	13	1
66	66	4
107	121	1
105	105	1
47	49	1
109	125	1
4	29	1
105	112	2
128	130	3
42	44	2
24	63	2
90	93	1
42	42	5
30	37	2
1	28	1
129	133	1
52	53	1
108	112	1
33	50	1
69	125	1
73	74	3
84	86	2
6	8	2
82	97	4
15	15	1
13	15	2
10	10	3
35	57	2
111	111	1
60	97	1
110	111	2
132	135	1
12	18	1
16	20	1
58	69	1
43	50	1
87	91	1
3	3	1
122	123	1
107	112	1
89	91	1
