93	93	16
130	130	14
135	144	12
136	137	16
148	148	22
101	101	21
97	97	7
21	22	8
20	21	11
112	112	20
24	24	13
154	155	1
166	166	23
117	117	24
153	154	9
15	15	9
46	46	8
118	123	3
21	21	21
18	25	9
74	75	8
75	75	26
165	165	20
114	114	9
3	3	20
83	83	19
23	23	16
70	70	21
45	47	5
138	138	17
105	108	6
54	54	26
155	155	24
109	109	17
122	122	31
94	94	11
33	36	4
51	51	16
37	37	27
141	141	18
25	25	44
157	158	6
132	132	14
57	57	13
16	18	1
102	102	17
87	87	18
36	132	3
42	42	19
118	119	2
150	150	24
41	41	18
143	143	10
1	1	20
123	123	15
56	56	17
54	55	7
78	78	4
72	72	14
99	99	18
120	122	6
118	118	9
44	44	24
121	121	5
11	11	20
110	111	4
96	96	6
163	163	25
91	139	2
98	98	10
69	69	8
126	152	6
110	110	23
78	79	6
107	107	8
106	106	9
144	144	9
34	37	10
134	149	5
144	145	23
16	17	4
13	13	25
127	127	5
103	103	8
142	142	8
146	147	2
41	109	1
38	38	21
16	16	13
101	102	5
4	4	19
158	159	6
64	64	10
99	158	4
151	151	24
10	79	1
120	120	6
66	66	17
108	110	3
8	9	5
66	67	4
27	27	21
156	156	14
9	9	8
170	170	13
134	134	9
86	86	14
136	144	2
66	81	1
15	16	7
163	164	3
88	89	5
35	35	17
81	81	10
126	126	7
48	48	8
97	170	3
68	69	10
145	145	15
105	105	28
3	36	2
45	114	2
158	158	12
116	117	3
26	81	1
36	36	26
11	111	3
70	164	4
8	8	9
73	74	11
26	26	13
147	147	20
155	159	3
132	134	7
133	133	8
27	56	4
78	80	3
2	2	24
23	24	8
124	124	15
38	153	1
53	53	11
136	136	17
41	42	8
139	139	14
62	62	11
5	63	1
125	126	10
38	149	2
0	0	13
68	68	1
24	144	3
24	28	2
125	127	1
46	47	3
10	10	17
73	73	20
36	152	2
116	116	9
167	167	11
76	77	4
38	63	2
169	169	23
17	17	8
161	161	7
90	99	7
62	83	3
162	162	13
86	132	2
113	113	7
141	143	1
80	80	6
22	22	10
157	157	15
91	91	7
153	153	18
145	146	4
82	108	5
22	24	2
137	137	31
0	1	18
84	84	14
146	146	18
69	89	5
22	35	1
163	165	3
152	154	1
129	130	8
64	66	5
132	142	1
25	35	1
164	167	4
2	44	2
35	36	10
48	49	7
135	135	37
25	52	3
74	164	5
77	79	1
14	14	14
90	90	17
63	69	3
80	81	7
12	13	2
148	152	1
76	76	8
43	43	20
119	120	4
79	79	13
168	168	7
68	70	4
90	114	1
154	154	8
97	98	6
22	23	2
131	132	1
94	108	3
112	113	12
1	2	5
95	96	7
6	7	5
115	115	7
110	114	4
55	55	11
35	150	3
129	129	15
28	28	13
159	166	2
67	67	22
33	33	9
71	71	4
65	83	4
64	69	6
137	149	2
94	95	2
91	92	9
77	78	9
74	154	3
149	149	21
55	56	4
167	168	10
113	117	3
81	153	4
38	151	4
41	106	4
5	5	14
152	152	12
65	65	12
164	165	1
89	89	11
17	49	2
14	15	3
38	44	3
162	163	3
51	154	4
117	118	6
66	75	3
100	109	2
160	160	12
98	115	2
164	164	12
131	131	14
147	148	2
46	48	5
111	111	15
99	100	5
98	158	3
140	140	11
71	163	3
45	46	8
54	152	5
108	108	18
39	39	6
82	82	8
45	50	1
15	35	2
74	74	11
86	87	8
13	15	5
103	104	3
21	56	1
98	99	5
6	6	20
155	156	3
138	139	1
147	149	1
71	72	5
81	82	5
52	52	16
12	49	2
101	161	1
137	138	7
53	112	6
88	88	5
108	109	3
63	63	9
0	2	2
42	106	7
85	85	8
26	36	1
9	10	2
55	146	1
159	159	7
127	139	1
128	134	5
114	115	6
151	152	4
40	154	4
5	83	1
73	75	2
119	119	12
99	150	1
40	40	19
100	101	2
33	37	1
52	53	7
12	12	8
106	107	3
46	153	2
107	167	4
107	108	2
122	123	2
3	4	8
64	70	5
58	153	4
100	100	6
40	85	5
149	153	3
91	94	1
125	125	10
93	105	2
7	7	17
105	119	3
45	45	11
140	149	1
115	116	3
139	140	1
127	129	7
109	123	4
73	77	2
79	136	1
34	34	8
6	12	4
18	26	4
43	44	6
130	134	3
50	54	4
119	125	9
151	155	5
136	145	1
112	151	2
161	163	4
90	115	4
129	141	5
99	109	6
40	153	6
113	114	1
135	138	1
10	11	7
44	45	8
67	68	3
90	97	4
110	151	1
77	77	5
83	84	3
25	51	2
136	138	4
142	144	3
74	83	2
13	14	1
87	88	2
100	123	7
90	91	7
51	63	2
75	79	3
109	125	2
20	20	9
111	112	8
41	83	5
108	136	3
47	112	2
47	47	5
24	25	10
82	83	4
120	121	3
16	55	1
113	150	1
152	153	3
126	135	1
143	144	3
114	126	1
127	132	1
90	158	1
47	48	2
92	92	6
105	106	4
143	147	3
50	50	4
135	136	3
140	141	9
123	124	3
12	46	2
50	52	3
162	165	5
121	122	4
88	138	6
67	72	2
116	123	2
67	89	1
104	104	8
28	34	4
101	107	3
39	64	1
9	27	3
90	157	2
54	113	1
7	8	2
128	129	3
17	18	5
93	103	1
61	62	2
66	69	6
95	95	4
134	137	1
146	148	3
18	18	2
131	133	3
64	83	2
64	65	2
72	163	3
6	13	3
143	145	3
36	56	2
126	128	1
109	115	4
101	158	2
110	124	1
53	54	1
92	93	5
27	147	3
62	74	1
135	151	2
63	152	1
149	150	4
90	109	2
74	82	1
65	108	3
150	151	3
162	166	2
125	136	2
47	55	1
126	127	1
58	58	1
66	108	3
12	47	2
100	158	5
102	103	2
138	152	3
122	124	2
5	84	1
49	50	2
41	108	3
73	76	4
10	43	1
157	159	2
100	110	1
128	133	1
8	16	2
78	82	1
89	97	2
165	166	3
46	81	1
17	37	1
79	80	2
47	148	1
93	101	1
100	102	2
69	70	3
114	116	4
166	167	2
17	48	1
104	168	2
132	133	2
158	167	4
70	71	3
112	116	1
98	100	3
36	37	2
2	3	1
151	158	2
75	77	1
40	82	4
134	135	1
160	161	5
11	49	1
84	85	1
133	134	1
156	159	2
86	98	1
76	84	1
75	162	3
48	50	1
26	111	2
56	57	1
156	158	2
143	146	2
112	114	2
25	27	2
39	45	1
105	122	3
133	137	3
75	76	8
44	153	1
39	85	1
124	150	2
141	146	1
105	109	2
33	34	2
40	41	1
12	148	2
20	22	2
93	108	1
68	88	1
51	55	3
89	96	3
143	161	1
131	143	2
99	101	1
34	35	4
156	157	2
10	12	1
8	28	1
93	95	3
88	90	2
104	106	2
102	104	5
161	169	2
104	105	2
4	10	1
118	124	2
9	13	2
145	153	1
61	61	1
91	101	1
128	128	3
26	35	1
77	81	3
100	122	1
76	90	3
121	126	1
122	167	2
14	49	1
36	148	1
155	157	2
141	144	1
119	124	1
89	90	4
75	159	1
106	110	1
7	16	1
92	170	1
102	167	3
66	164	1
150	154	2
37	38	2
56	153	2
25	26	1
40	54	1
41	43	1
160	170	1
92	104	1
2	43	1
141	145	1
117	123	1
149	158	2
49	49	1
44	47	1
159	161	2
126	151	2
148	153	3
75	166	1
130	136	1
8	12	1
91	93	1
36	45	1
110	112	2
54	58	1
42	109	1
108	111	1
118	150	1
12	19	2
168	170	2
119	150	1
110	125	1
74	90	1
104	166	3
136	159	1
130	131	1
43	149	1
121	125	2
94	105	1
50	51	3
109	110	2
118	148	1
108	167	1
67	69	2
3	7	1
41	153	1
76	166	1
104	124	2
107	110	2
93	94	2
91	99	1
71	162	1
101	113	1
121	141	1
34	36	2
42	43	1
107	111	1
57	62	1
11	43	1
62	63	3
85	139	1
83	109	1
41	150	1
65	69	1
72	73	1
25	53	1
10	100	1
6	11	1
160	166	1
19	19	1
88	97	2
37	152	1
40	43	1
38	40	1
