65	66	2
43	43	15
58	59	8
91	91	13
29	30	5
67	67	6
95	95	13
111	113	6
87	87	20
83	99	2
47	47	18
78	79	6
93	94	2
76	79	3
48	48	11
100	100	8
76	76	5
83	83	10
62	62	4
97	98	8
46	53	1
88	88	7
34	34	3
57	79	4
43	93	3
109	109	10
78	88	3
98	98	6
24	25	3
38	39	8
32	36	1
66	92	3
29	51	1
58	58	9
107	107	9
99	99	5
84	88	1
77	78	7
54	55	3
102	103	4
45	45	5
44	45	2
75	88	5
70	70	9
20	20	8
44	46	4
62	67	6
31	32	1
65	65	10
80	82	3
71	71	11
89	89	4
42	42	7
97	97	8
75	75	9
40	40	7
106	106	14
45	46	1
53	54	3
57	60	2
29	47	2
39	40	3
54	54	7
30	30	19
90	91	7
92	92	2
103	103	6
22	22	4
50	50	5
44	44	13
33	34	2
51	51	14
106	107	5
41	41	6
52	52	5
29	29	14
25	25	8
115	115	2
28	28	5
78	78	15
109	110	6
89	104	2
59	59	8
57	59	2
36	36	3
73	73	6
90	92	1
98	103	3
21	43	2
27	27	8
111	111	9
37	38	3
108	108	6
86	86	3
94	106	2
24	24	2
78	97	1
59	68	2
113	113	8
89	91	3
89	106	2
37	37	13
98	99	4
46	46	11
71	77	3
39	39	7
89	92	1
45	53	1
87	88	1
74	75	5
40	54	2
21	113	1
99	100	4
66	69	1
61	62	5
76	93	2
71	72	2
49	49	8
79	79	9
36	37	4
23	24	3
72	72	2
82	82	1
90	90	4
57	57	5
59	60	5
79	80	4
83	84	1
26	26	7
80	97	2
21	21	5
64	66	1
82	83	3
32	50	7
53	53	4
61	64	2
113	114	6
88	107	1
38	43	1
81	82	3
20	24	1
93	93	2
60	90	4
104	105	4
112	112	1
32	32	7
25	26	1
46	51	2
33	33	9
83	87	2
66	68	3
81	81	4
94	95	1
74	74	2
102	102	5
28	42	1
34	62	1
85	100	1
56	56	4
96	96	6
40	41	4
70	71	7
36	41	4
53	55	3
67	68	7
51	52	1
62	63	3
105	106	5
68	68	5
88	89	3
80	81	3
84	85	1
101	101	4
77	77	5
73	74	8
82	99	1
62	64	1
76	78	5
105	105	5
35	51	1
73	75	1
91	93	3
30	48	1
69	70	2
104	104	5
85	86	2
55	57	3
56	58	3
69	84	5
66	66	5
25	47	1
84	84	3
82	113	2
27	28	4
32	33	3
32	39	1
103	107	1
72	74	1
54	60	2
96	106	2
29	49	2
34	35	2
60	60	6
56	63	4
92	94	3
74	98	1
71	76	2
32	82	4
73	78	3
84	87	2
88	103	4
30	57	6
41	42	1
68	69	4
72	73	3
110	111	3
72	91	3
94	100	2
91	95	2
67	90	2
100	113	4
104	106	2
74	78	2
94	94	5
35	36	1
37	58	2
96	97	1
69	69	6
61	61	3
101	107	5
112	113	2
50	51	1
64	64	2
60	65	1
63	64	1
58	91	2
52	53	1
68	72	1
23	23	1
55	55	3
46	47	2
43	44	2
30	35	1
110	110	1
91	92	1
87	100	2
57	65	1
28	49	1
55	56	1
38	38	1
78	83	2
100	101	1
86	100	1
22	23	1
70	85	1
57	76	1
58	60	1
59	90	1
39	41	4
28	30	2
38	41	2
71	73	2
76	94	1
48	49	3
82	84	1
66	67	1
43	53	2
38	57	1
83	85	1
