2	2	11
103	103	12
87	87	11
7	7	20
6	6	4
128	128	23
28	29	6
115	115	15
114	118	4
137	137	13
71	125	3
36	37	3
109	109	13
112	112	11
95	96	11
104	104	10
74	80	2
38	38	23
37	37	25
126	126	32
8	8	18
15	17	5
9	9	5
12	27	1
10	10	6
110	110	14
18	19	4
98	98	13
128	129	4
78	78	5
116	116	10
111	118	2
32	32	13
1	1	4
100	100	12
22	25	5
23	23	19
112	113	7
16	16	12
80	80	11
28	28	4
76	78	3
86	114	1
130	130	19
96	96	14
86	86	10
37	38	2
27	91	1
81	81	3
107	107	13
31	31	10
106	111	3
5	5	11
30	91	1
15	15	16
79	80	3
3	3	23
134	134	33
11	14	4
36	36	21
97	97	14
36	38	3
35	35	12
93	93	5
114	115	5
85	104	10
17	17	9
18	18	11
140	140	9
124	125	7
129	129	19
27	32	2
90	93	1
113	114	13
103	104	6
97	98	3
89	89	10
27	27	16
139	140	2
11	12	2
12	12	11
84	84	8
24	25	8
4	18	2
95	95	11
99	99	7
125	125	11
0	108	3
94	94	18
87	88	6
19	20	4
92	92	14
71	71	9
74	74	22
86	112	4
4	6	2
101	101	16
136	136	10
105	110	2
97	125	2
123	123	19
29	29	3
127	127	14
135	135	10
17	18	2
13	14	14
110	111	6
131	131	15
15	21	1
75	77	1
70	92	1
83	83	5
72	72	13
115	123	6
4	4	17
79	79	13
102	102	13
132	132	10
75	115	2
119	119	5
107	108	6
108	108	9
34	34	25
111	111	11
120	122	4
34	35	11
127	128	8
80	113	5
40	81	1
111	120	3
77	79	5
1	18	3
93	101	2
15	16	6
73	74	1
81	102	2
90	94	1
77	77	6
0	0	14
97	116	2
100	101	1
20	20	17
105	120	2
121	122	1
72	117	1
129	130	1
20	27	2
25	25	7
94	95	4
3	36	2
21	21	7
35	36	6
87	89	1
117	123	2
71	114	3
14	27	4
117	118	3
91	91	7
81	103	2
118	122	5
86	107	6
1	2	8
2	18	3
88	88	10
2	95	3
76	76	7
99	100	6
82	82	4
78	121	5
77	103	2
88	112	6
13	33	2
123	125	2
7	33	2
91	92	5
118	119	3
94	102	1
32	95	2
30	31	1
122	122	2
81	112	3
14	14	6
114	114	5
111	113	2
3	4	3
71	72	1
111	115	1
90	90	6
26	26	10
85	85	10
29	84	3
139	139	4
72	73	3
118	118	6
86	88	5
126	127	2
90	107	1
116	124	2
133	133	3
31	91	1
77	121	2
125	126	2
16	20	2
117	117	11
124	124	9
82	83	3
18	33	8
11	13	3
135	136	6
138	138	4
33	33	10
17	24	2
3	34	2
23	24	2
19	21	1
75	75	15
87	90	2
33	96	1
33	34	6
24	24	11
14	20	2
94	104	3
100	108	2
90	91	2
87	112	2
43	104	1
111	123	1
111	119	3
27	31	2
27	28	1
19	19	11
133	134	6
75	123	2
16	17	5
4	34	2
115	119	1
13	13	9
11	11	4
12	13	1
30	30	3
122	125	1
93	103	2
2	3	4
111	112	1
93	113	4
9	12	2
132	133	2
108	109	1
111	121	1
21	108	1
116	120	2
90	92	2
140	141	2
17	20	2
7	8	3
107	109	1
26	28	2
9	14	1
119	122	1
14	37	1
89	90	4
13	36	2
125	127	2
34	36	1
8	9	3
105	105	4
31	32	2
77	118	2
122	123	1
111	114	1
94	101	2
87	113	1
32	96	1
20	22	2
83	84	3
105	121	1
88	90	1
113	113	4
81	106	1
80	81	1
102	103	3
73	73	5
3	19	3
110	119	1
88	89	2
71	97	1
2	16	1
125	128	2
68	102	2
30	32	2
112	119	5
109	111	4
28	44	2
5	8	1
100	128	2
92	126	1
103	112	1
134	135	2
20	21	1
106	110	1
71	86	1
84	85	1
115	117	2
28	30	2
8	35	1
13	27	1
123	132	1
123	124	2
44	84	1
109	110	2
80	103	1
112	116	1
7	14	1
86	91	1
116	125	1
25	26	2
106	106	4
6	7	2
130	131	2
14	19	1
93	104	1
17	19	1
14	17	1
88	91	1
26	27	1
71	99	1
83	113	1
117	119	1
7	35	1
71	73	1
101	108	2
22	22	3
77	78	1
21	22	2
6	15	1
18	109	2
11	32	1
74	75	1
109	117	1
118	123	1
16	30	1
3	99	1
34	38	1
74	94	1
79	103	1
8	32	1
