136	136	8
164	172	3
170	170	5
132	134	2
161	161	5
188	189	6
27	54	5
10	10	5
112	112	2
141	141	9
35	79	2
144	144	4
157	160	2
155	155	2
6	6	7
59	59	2
66	67	4
15	15	2
85	86	4
56	56	1
139	139	5
130	130	4
90	91	1
159	160	5
38	38	5
114	114	4
73	93	4
161	176	1
80	80	8
25	26	2
85	85	4
71	73	3
53	53	6
41	41	4
185	185	5
176	176	14
63	63	4
141	142	7
76	76	9
138	150	1
24	24	4
8	8	10
15	17	2
147	148	1
190	190	10
150	150	5
145	150	4
177	177	5
182	183	2
166	169	6
71	72	2
31	41	1
116	117	2
40	40	6
88	88	2
66	68	4
126	126	5
68	68	6
142	142	4
16	17	2
20	43	3
81	129	2
46	54	2
71	71	3
187	187	4
94	123	3
171	171	6
157	157	3
53	86	4
171	174	1
159	162	2
121	121	5
25	48	1
95	138	1
144	172	2
56	83	2
139	141	5
24	55	3
186	187	1
79	131	2
58	58	1
140	141	4
31	35	2
2	2	3
140	155	4
82	82	1
151	151	3
23	44	3
169	169	4
166	166	6
55	61	6
185	186	4
168	168	7
174	175	9
56	58	2
99	124	3
73	94	3
30	30	1
120	120	2
161	179	2
165	165	7
153	153	7
133	154	4
54	54	6
67	67	2
97	97	3
55	55	3
26	27	1
145	149	4
181	181	7
186	186	5
57	57	1
64	64	4
131	131	2
182	185	1
131	144	6
72	131	1
45	86	3
152	152	7
172	172	1
104	104	7
148	151	2
66	66	3
84	84	2
86	87	8
70	72	1
14	14	8
47	48	1
21	44	4
105	151	2
60	60	3
4	33	2
160	160	2
173	173	7
147	147	4
170	171	1
89	89	5
21	22	5
135	138	4
137	162	2
114	115	2
11	12	1
72	72	7
78	78	3
184	184	4
47	47	3
10	54	5
168	173	1
109	109	3
131	142	4
133	135	1
19	19	1
113	113	5
84	85	3
27	98	1
60	62	2
162	162	6
165	171	1
53	87	6
132	132	3
39	39	5
42	42	1
0	18	3
96	116	3
150	151	2
107	107	1
179	180	1
184	186	2
181	182	2
5	5	1
74	94	1
12	101	1
91	123	3
156	156	1
102	125	1
115	117	1
40	41	5
130	131	5
56	84	1
116	119	1
0	47	1
98	98	3
77	77	6
37	85	1
145	145	2
72	78	4
56	57	2
159	176	2
81	82	2
12	18	2
118	118	6
188	188	9
107	123	1
167	167	3
143	143	8
173	175	2
81	81	4
91	91	1
98	99	4
154	154	7
108	112	1
105	105	1
180	181	1
141	185	2
36	38	1
182	182	6
129	155	1
13	13	1
62	62	2
94	94	3
93	93	2
10	11	1
17	17	4
4	7	3
79	79	4
78	134	2
130	142	2
129	129	3
179	186	1
178	178	2
7	7	2
110	110	2
112	117	3
65	66	3
81	140	3
96	96	2
27	47	1
177	182	1
30	44	1
4	5	1
83	152	1
106	106	1
101	102	3
29	29	3
57	91	4
114	125	1
134	134	2
34	34	3
73	73	6
102	102	3
180	180	3
10	14	1
127	184	1
92	93	1
17	47	1
27	30	3
158	158	1
18	18	2
28	28	1
148	148	4
61	63	1
27	36	1
78	79	4
44	44	1
162	177	1
9	47	1
3	3	3
48	48	4
172	174	2
10	24	3
122	122	1
128	128	1
102	103	1
29	30	1
103	103	1
69	69	1
93	110	1
131	140	1
45	45	2
174	174	3
123	123	3
78	95	2
68	93	1
9	10	1
99	100	1
160	161	3
177	185	1
38	39	2
132	133	1
55	59	2
22	23	2
34	35	1
171	189	1
12	13	1
9	25	3
65	65	1
149	149	2
16	16	1
54	86	2
67	68	1
101	101	1
23	46	2
19	20	1
134	135	1
87	87	3
104	121	2
179	185	2
158	159	1
177	178	1
167	168	3
28	37	1
137	172	1
103	110	1
130	134	1
159	159	2
8	25	1
9	9	1
133	133	1
163	164	1
10	53	2
152	153	1
174	185	1
121	150	1
183	183	1
173	174	1
118	155	2
16	33	1
28	31	1
31	31	3
136	171	1
175	175	2
142	155	2
184	185	1
72	80	3
83	83	2
90	90	3
75	117	2
143	145	1
121	152	2
11	11	1
127	127	1
21	91	1
138	138	3
63	67	1
7	25	1
14	15	1
141	156	1
24	53	1
32	33	1
26	26	1
66	70	1
116	116	3
146	146	1
48	52	3
20	20	1
56	100	1
144	146	1
43	44	1
74	74	1
158	177	1
93	118	1
115	127	1
141	163	1
21	21	1
28	29	1
133	153	2
55	58	1
17	29	1
22	22	1
172	175	1
161	173	1
4	28	1
90	135	1
137	137	1
121	143	1
3	8	1
95	97	1
62	64	1
11	37	1
135	135	1
