174	174	7
33	191	4
231	231	10
209	209	1
82	82	5
173	173	6
63	64	5
10	10	5
220	227	3
162	183	1
139	139	1
214	214	7
158	169	2
147	160	2
8	116	7
186	188	3
53	53	7
123	123	7
47	240	1
175	217	2
179	181	4
21	21	8
213	225	3
106	106	3
128	128	5
55	56	6
57	60	3
206	221	11
27	27	3
101	101	4
109	109	2
209	210	4
121	126	1
51	51	6
119	124	1
99	99	7
23	77	4
179	187	1
121	128	1
44	44	1
5	5	4
54	64	1
237	237	5
68	68	3
160	161	1
76	77	4
102	102	4
125	127	3
3	3	6
229	230	2
101	103	5
167	191	3
26	26	4
58	58	1
84	84	8
103	123	4
15	15	3
59	60	6
116	116	4
69	69	3
195	195	8
189	189	1
157	157	7
10	11	1
144	184	3
119	119	6
13	120	3
137	137	8
175	176	8
39	121	1
73	74	2
23	23	4
1	1	2
165	165	4
226	226	2
96	101	3
141	141	2
148	210	2
83	84	5
13	13	11
11	49	4
67	67	10
8	8	5
126	126	4
46	114	4
218	219	1
31	31	1
131	224	1
74	81	1
203	203	18
163	165	3
102	107	3
73	73	12
234	234	8
20	20	8
180	217	3
42	42	6
186	187	3
137	138	2
227	227	1
124	124	6
129	134	4
111	111	2
103	118	2
161	165	2
108	122	2
118	119	3
50	50	1
52	57	1
3	22	4
142	198	2
224	228	5
127	200	1
191	191	4
20	23	1
105	105	2
206	210	2
154	199	1
14	14	11
160	182	2
157	166	2
171	171	8
49	50	10
157	236	1
18	18	6
24	24	7
99	100	2
182	182	3
144	146	2
86	242	2
171	213	1
107	110	2
36	36	6
194	194	5
2	22	6
35	35	10
176	176	7
81	81	3
125	125	7
204	206	3
121	121	7
38	38	7
181	182	1
32	32	2
137	143	1
142	142	2
146	159	2
29	31	1
30	106	2
217	217	6
64	64	5
173	208	5
136	233	1
45	240	2
228	228	2
235	241	4
140	140	6
202	202	4
123	200	3
122	123	2
163	163	6
224	224	6
178	178	1
103	228	5
55	80	6
70	218	1
150	151	3
3	85	2
29	29	2
34	65	3
96	128	2
9	9	8
43	127	2
232	232	4
3	30	1
39	39	8
107	107	2
136	136	6
28	29	1
211	211	5
158	158	5
6	6	1
167	167	2
147	210	1
133	133	4
160	162	2
230	231	2
12	12	3
25	25	2
84	86	2
157	202	2
127	127	2
230	230	2
76	76	4
176	184	1
137	210	3
162	163	1
58	60	7
213	213	1
216	216	6
24	51	3
103	103	1
143	147	1
11	11	5
38	40	2
49	49	4
54	65	1
97	100	4
115	116	4
62	62	5
162	165	3
210	210	5
136	137	2
61	61	4
162	199	2
106	107	3
46	103	3
170	173	3
11	56	3
113	113	1
213	214	2
221	221	1
127	199	3
117	117	3
54	54	2
138	138	2
48	51	2
193	193	2
178	206	3
38	39	1
129	137	3
61	62	5
8	11	1
178	223	2
11	13	2
223	223	1
17	19	2
177	206	1
180	182	1
22	22	4
149	154	4
34	188	3
96	201	2
62	111	2
236	236	6
137	139	2
225	237	1
45	45	3
168	171	3
120	120	3
0	0	2
67	69	1
131	180	1
0	80	3
215	224	2
30	51	2
181	181	2
167	192	1
118	124	2
118	118	1
196	196	1
149	149	2
144	187	2
166	179	2
45	47	2
165	166	3
147	148	3
74	74	6
24	25	1
30	30	4
20	24	1
107	109	5
116	195	1
179	180	2
139	152	2
103	230	1
96	97	1
213	215	2
125	134	1
229	234	1
37	37	5
14	88	2
221	227	1
100	100	2
15	190	1
20	75	1
52	53	2
70	70	3
204	204	1
60	60	1
33	33	2
233	233	1
25	65	2
144	144	2
158	166	2
88	88	1
181	223	2
221	223	1
77	78	3
166	166	3
85	85	4
139	141	8
4	6	2
234	237	1
184	184	3
40	41	2
200	201	1
11	20	2
11	57	2
43	43	3
91	117	4
133	134	3
157	161	2
140	166	1
181	186	1
13	36	1
215	223	1
57	57	7
179	179	1
41	42	5
77	127	1
29	183	1
154	154	2
59	59	2
78	78	3
185	206	3
238	241	1
168	168	5
27	75	1
161	161	4
97	111	2
0	1	1
149	207	4
41	41	4
17	60	3
74	180	3
134	177	1
67	68	2
28	82	2
81	82	1
161	162	2
155	158	3
188	188	2
79	79	2
183	183	3
136	229	1
98	98	2
143	184	3
70	232	1
46	46	1
17	18	3
43	67	2
151	151	7
32	35	3
140	194	1
216	217	1
74	83	3
28	28	3
15	16	2
111	155	1
235	236	1
136	170	1
129	129	1
21	79	2
63	65	1
191	193	5
80	80	2
86	86	2
100	149	1
6	30	1
63	63	1
46	47	1
148	148	2
124	153	1
144	189	2
28	80	1
74	80	3
204	207	1
119	120	3
167	184	1
72	72	2
88	221	2
166	167	2
88	226	1
190	190	2
104	125	2
227	229	1
122	124	1
234	235	1
45	121	1
108	188	1
159	167	2
188	189	1
21	23	2
115	115	1
69	78	2
158	167	1
169	169	3
79	80	3
184	198	2
186	186	1
72	182	3
229	229	1
134	134	2
179	223	1
160	160	4
205	206	1
165	216	1
159	202	1
139	148	1
82	89	2
95	124	2
177	180	1
242	242	2
113	116	1
37	54	1
61	121	2
190	214	2
107	108	1
95	95	1
71	71	3
66	66	1
107	222	2
237	238	1
161	164	1
12	24	1
236	239	1
43	122	1
220	225	1
36	192	1
199	201	2
138	139	3
20	79	1
226	236	2
215	218	1
144	145	1
64	65	2
170	171	1
213	216	1
70	75	1
205	205	2
104	106	1
25	27	2
40	53	1
175	175	2
159	159	3
34	184	1
186	221	1
58	59	1
194	197	1
0	114	2
112	112	2
179	207	1
177	177	1
66	68	1
10	12	1
236	237	1
54	63	2
71	73	1
129	135	1
46	75	1
201	201	2
22	79	1
132	206	1
21	51	2
129	218	1
137	203	1
149	158	1
192	192	1
76	78	1
153	153	1
239	239	1
74	75	1
69	227	1
24	66	1
215	216	1
131	131	1
141	168	1
5	31	1
138	142	1
211	228	1
209	229	1
77	77	1
96	96	1
167	168	1
98	99	1
6	29	1
127	201	1
108	233	1
104	104	1
139	140	1
229	232	1
154	155	1
123	125	1
226	238	1
207	207	1
7	7	1
7	57	1
78	211	1
44	45	1
34	190	1
132	220	1
52	52	1
