149	149	20
124	141	2
91	94	5
139	140	7
136	137	3
94	95	3
168	170	4
144	145	2
104	104	16
174	176	5
112	112	6
93	94	4
142	144	5
35	43	4
62	135	1
18	25	3
23	23	12
36	36	9
140	140	6
82	100	1
183	183	5
20	20	8
66	66	14
110	114	1
185	185	7
97	164	6
163	163	9
168	168	9
105	132	1
83	100	6
155	155	7
66	95	3
96	96	4
166	166	9
29	29	5
143	143	6
106	112	4
117	117	8
6	6	3
149	151	4
110	121	2
86	86	7
146	146	11
33	33	3
174	174	8
37	37	4
110	110	6
120	179	4
4	7	2
53	77	2
184	185	4
44	44	3
133	134	3
142	142	5
187	187	2
188	189	2
33	173	2
104	105	3
157	157	6
138	139	7
113	113	17
166	169	1
79	79	11
17	17	8
45	78	1
32	32	5
48	48	8
172	179	3
151	154	4
65	67	2
18	20	2
84	84	7
140	145	1
177	178	1
98	98	7
164	164	9
125	129	2
103	105	6
35	35	6
101	101	7
162	162	11
139	139	5
34	42	1
43	43	2
110	141	3
143	145	2
122	123	2
0	13	4
171	172	8
18	46	5
115	115	3
151	151	11
132	132	3
116	154	3
181	182	2
75	76	4
159	159	7
12	17	2
148	148	11
81	81	9
91	91	1
160	161	2
32	43	3
102	102	2
146	163	6
170	180	2
120	120	4
130	130	1
158	159	24
165	165	3
164	167	8
97	158	1
74	74	3
27	27	2
108	109	3
55	55	5
34	36	3
68	68	8
170	171	2
171	189	3
180	180	6
57	58	4
144	144	9
14	100	1
70	70	4
48	53	1
72	130	2
63	63	2
15	15	1
118	123	4
30	33	3
131	131	6
170	179	1
137	137	10
69	69	5
119	123	1
114	148	1
113	135	1
115	148	5
35	44	2
127	128	5
133	135	4
8	26	3
123	123	1
41	41	10
0	12	1
170	170	3
158	162	4
176	177	3
119	122	1
116	117	6
133	133	3
71	71	4
111	112	7
100	100	6
48	54	2
96	97	2
173	174	11
149	150	6
99	99	8
122	122	11
73	75	3
126	128	5
123	124	3
180	181	1
141	141	1
134	135	2
41	140	4
19	32	1
32	33	4
6	16	2
5	5	9
37	38	3
125	125	4
94	94	5
109	109	3
56	56	3
97	98	2
181	181	4
3	3	3
156	156	3
171	178	2
83	83	4
22	22	2
160	160	8
150	162	1
12	12	4
124	126	2
61	81	4
95	99	2
67	67	7
187	189	1
49	49	2
173	173	5
13	101	2
33	178	3
172	173	2
30	80	1
146	147	1
179	179	5
103	103	4
121	121	17
16	16	1
114	114	12
73	73	2
67	95	5
173	175	3
129	134	1
98	152	1
145	161	2
13	15	2
12	24	3
182	183	6
182	182	10
116	116	2
127	127	9
120	121	2
18	18	6
154	154	3
67	108	1
139	145	1
31	43	5
90	90	5
66	108	1
161	162	3
19	19	3
134	136	3
42	42	8
140	141	1
186	186	5
189	189	3
158	158	12
72	129	3
43	46	1
8	8	3
111	120	1
126	129	5
129	129	6
24	48	1
13	142	2
89	152	3
43	55	6
82	82	3
30	31	2
118	118	4
77	77	1
165	168	1
23	28	1
14	76	7
16	29	1
40	40	8
128	128	3
175	176	2
95	97	1
145	145	3
18	76	1
174	175	3
1	3	4
171	171	3
13	97	1
14	160	3
55	142	3
124	124	9
28	28	3
15	23	1
23	27	1
111	114	1
75	75	2
34	34	9
110	122	2
25	25	5
156	162	2
76	76	2
58	59	3
169	169	9
106	107	1
0	3	1
25	26	1
16	28	4
46	46	6
71	113	3
60	74	1
15	16	1
90	93	2
142	143	4
85	126	1
11	47	3
184	184	3
2	3	3
120	162	1
26	26	1
99	100	2
105	134	3
119	119	2
32	35	3
153	153	9
174	177	2
113	115	2
92	102	1
190	190	7
122	142	4
44	45	2
58	58	10
2	2	1
167	168	1
43	45	1
138	138	2
92	92	4
147	147	7
34	141	1
103	133	3
57	59	3
95	141	1
137	138	1
47	47	5
42	56	6
97	97	1
168	169	8
75	96	3
88	88	3
43	63	1
59	60	2
56	108	1
171	180	2
15	82	1
121	122	2
156	158	3
38	38	12
15	102	2
150	150	2
159	160	4
10	15	3
24	24	3
42	173	1
78	78	4
116	155	1
166	168	1
73	110	2
57	57	1
146	161	1
156	166	1
107	107	2
114	154	2
116	122	1
148	156	3
25	77	1
115	156	1
92	93	4
33	34	1
11	20	1
40	83	2
20	23	2
13	14	1
106	129	3
18	27	1
136	136	4
177	181	3
1	2	1
188	188	6
157	158	2
119	134	2
3	5	3
39	39	3
148	150	1
156	169	1
5	6	1
46	76	4
108	108	4
54	177	2
123	173	1
124	125	2
72	72	2
68	93	5
126	134	1
11	11	2
47	56	3
105	133	1
186	187	5
60	60	6
58	61	2
41	86	1
20	21	1
93	93	2
27	47	1
1	1	1
93	113	1
165	181	3
101	132	1
122	174	2
143	144	1
93	101	3
105	131	1
84	85	3
59	59	2
136	183	2
94	96	1
89	89	3
188	190	2
2	85	1
42	181	4
58	74	1
86	87	2
17	23	1
117	118	2
31	47	2
11	24	1
34	77	1
135	135	1
45	45	4
20	36	3
65	129	2
96	99	1
126	126	1
150	168	1
31	32	2
150	161	3
30	30	2
95	103	1
135	136	1
11	74	2
72	109	1
28	54	1
92	96	1
154	155	1
159	161	1
147	168	5
175	175	3
187	188	2
161	161	1
157	177	1
112	113	2
119	121	1
34	181	1
70	71	2
170	188	2
61	62	1
55	165	3
178	178	2
46	49	2
111	111	1
120	123	4
13	13	3
172	172	2
110	124	2
12	38	1
162	163	1
156	163	2
167	170	2
54	54	1
95	136	2
84	91	3
152	153	2
5	7	2
53	53	1
113	140	1
166	180	1
74	77	1
119	133	3
24	25	1
26	77	2
55	57	1
115	131	2
94	132	1
155	156	1
107	118	2
80	81	2
130	131	3
99	147	1
13	100	1
6	9	1
27	28	1
41	42	1
92	100	2
123	174	1
115	116	2
176	176	1
108	118	1
35	42	2
76	139	1
146	189	1
106	118	1
67	118	1
134	134	1
109	175	2
85	88	2
85	86	2
56	111	1
55	56	1
67	94	1
12	22	1
142	145	1
4	9	1
112	123	1
154	156	1
18	31	2
171	173	2
115	178	1
151	166	1
58	79	1
91	93	1
95	133	1
64	69	2
149	163	1
82	83	1
142	183	1
87	87	1
81	135	1
177	177	3
47	77	1
62	63	1
152	152	1
16	25	2
167	184	1
21	22	1
60	62	1
106	106	1
113	118	1
56	144	1
31	31	1
114	168	1
42	48	1
128	129	1
89	119	1
10	11	1
8	9	2
