111	111	10
25	27	3
88	88	2
85	85	3
89	90	3
89	89	14
69	100	1
66	66	10
36	57	5
75	103	1
73	74	3
31	32	6
58	78	5
0	0	11
36	109	4
77	77	15
3	18	4
16	16	9
43	43	5
4	23	2
4	4	6
8	31	4
15	36	3
2	4	3
33	83	2
44	44	4
108	108	4
72	73	3
98	101	3
79	110	2
101	101	7
19	33	4
56	69	4
110	110	4
50	71	5
26	31	2
18	18	11
86	87	6
98	98	14
87	108	2
6	6	5
79	79	9
71	71	7
52	79	6
13	13	10
74	74	8
2	2	10
62	92	1
81	81	10
20	20	9
32	33	6
1	2	5
11	12	1
81	86	3
24	24	10
45	53	4
59	77	3
99	99	3
15	15	5
7	7	11
31	31	5
83	83	3
6	24	4
103	103	11
10	11	2
79	82	3
87	87	6
6	31	3
72	72	2
68	96	5
88	90	3
9	38	1
73	73	6
90	90	3
97	97	8
68	68	12
12	12	8
83	91	1
57	57	11
3	4	2
21	21	9
7	9	1
25	31	2
67	109	2
4	24	2
107	107	7
37	37	6
52	68	3
97	98	4
104	110	5
28	28	12
14	14	6
29	29	6
26	26	14
14	55	1
65	65	2
93	93	6
4	34	3
22	22	8
83	105	1
80	80	9
101	102	2
109	110	2
1	6	2
54	70	1
84	96	1
106	106	5
3	3	1
4	25	1
19	19	5
100	107	4
12	13	3
86	86	6
104	104	8
79	81	1
82	92	1
65	84	5
5	12	2
27	28	3
35	49	1
67	110	5
14	21	3
33	34	5
1	1	2
70	70	2
64	64	6
28	46	2
94	95	4
30	30	7
70	76	2
34	34	5
84	86	3
15	19	1
3	6	1
7	8	5
27	49	1
91	91	2
92	92	3
84	107	5
70	71	2
84	84	7
17	17	7
15	16	3
32	35	3
52	69	3
36	108	5
54	54	2
54	57	8
99	103	3
5	5	5
49	87	1
3	24	1
50	90	2
52	71	2
68	109	2
102	103	2
88	99	1
6	7	4
81	87	1
23	23	1
107	108	1
43	87	3
75	75	2
32	32	4
90	93	5
35	83	1
61	62	6
48	48	4
100	103	1
5	27	2
30	45	2
84	104	1
16	54	1
2	3	2
13	50	1
54	55	1
95	95	7
22	70	1
32	77	1
36	58	1
25	25	3
94	96	2
100	101	3
101	103	6
24	45	2
96	96	1
88	105	1
85	97	1
17	18	2
28	29	1
79	106	1
34	47	4
79	98	1
3	14	2
82	82	6
12	77	2
87	110	2
85	104	1
66	88	2
68	78	3
99	110	4
50	80	2
21	28	1
95	98	1
13	55	1
20	23	1
83	86	2
63	70	1
34	86	2
32	36	1
9	11	3
38	38	4
63	64	1
43	67	1
105	107	1
44	82	2
4	17	1
72	75	1
49	49	1
94	98	1
76	76	2
27	27	2
97	106	1
95	101	4
101	104	3
78	78	5
94	94	1
105	106	4
86	111	1
29	32	2
69	78	2
8	8	3
63	63	2
57	94	1
14	17	1
10	10	2
45	45	1
4	37	1
25	30	5
23	37	3
84	87	1
50	91	1
61	92	1
68	80	1
14	82	4
30	34	1
63	80	2
70	75	2
53	53	1
18	72	1
16	76	1
19	21	2
81	96	1
37	39	1
43	57	3
77	82	1
9	9	1
74	99	1
80	102	2
27	56	1
56	56	1
80	82	1
24	31	1
6	8	1
15	53	1
79	94	1
1	9	1
11	16	1
61	61	1
102	102	2
11	22	2
69	70	2
45	50	1
43	94	1
60	61	2
78	79	1
28	45	1
83	98	1
56	78	1
14	79	1
100	100	1
52	52	1
21	35	1
2	26	1
23	24	1
11	53	2
35	36	1
67	67	2
12	16	1
54	77	1
14	56	1
70	74	1
35	35	1
