84	85	5
58	104	8
30	30	5
72	72	11
110	110	26
69	69	10
125	125	7
19	19	25
25	25	8
46	47	4
51	52	1
48	65	3
75	75	9
23	23	24
88	89	3
102	102	10
93	95	4
66	66	15
40	40	5
27	27	20
16	16	12
31	56	3
0	0	11
133	133	11
71	72	2
59	63	4
90	90	9
105	105	17
44	44	17
67	67	9
39	40	7
39	39	14
47	61	4
21	21	4
95	95	16
129	129	3
57	57	15
22	23	5
64	64	11
50	50	22
56	56	7
84	84	7
40	41	3
30	31	11
18	18	9
55	64	6
9	10	11
24	25	1
32	32	15
87	88	5
96	96	16
59	59	9
46	99	1
63	63	8
54	55	2
66	102	9
54	54	13
8	9	11
42	42	18
41	41	24
87	99	3
86	86	6
39	104	2
1	1	17
73	75	5
65	78	2
55	55	5
27	28	11
117	118	6
78	78	16
7	7	13
15	16	9
24	24	14
52	52	21
123	124	3
88	88	12
100	100	9
10	10	9
107	107	19
62	66	2
113	113	12
102	109	1
101	103	2
29	29	5
60	68	6
100	102	3
112	112	16
127	127	6
114	114	5
73	74	4
81	81	5
75	76	8
82	85	6
67	68	9
63	66	4
5	5	10
58	107	3
120	120	17
65	65	13
5	22	3
14	14	3
46	46	12
62	68	2
61	67	2
77	78	2
3	3	16
113	117	3
49	49	12
58	59	9
52	53	7
58	58	4
11	11	8
61	61	4
26	26	13
33	33	12
116	116	10
16	23	4
2	3	1
0	3	3
43	43	11
60	61	5
127	128	4
126	126	9
22	22	7
97	97	11
48	52	1
114	124	1
12	12	14
76	76	6
18	19	6
13	40	5
124	125	6
109	109	16
70	70	4
17	20	3
4	4	24
65	68	2
92	92	12
118	118	17
131	131	9
126	127	2
112	117	1
81	82	3
3	4	4
104	105	6
6	6	11
44	67	1
54	80	4
54	79	3
51	95	4
120	124	7
112	113	4
70	84	2
53	58	4
128	129	2
44	48	2
102	103	1
117	117	5
29	30	14
98	98	17
79	79	10
2	2	10
48	49	8
38	41	2
71	71	13
70	85	2
20	21	5
124	124	11
94	94	15
62	63	4
53	53	8
60	60	11
38	38	3
68	69	3
11	21	2
110	111	9
43	100	5
89	89	20
89	90	3
6	8	1
17	17	9
68	68	14
95	96	5
101	101	18
108	108	14
63	64	3
91	92	1
111	111	6
26	28	2
13	13	5
8	8	12
53	67	3
16	17	2
68	98	3
82	82	6
47	60	2
66	67	1
28	28	11
46	68	1
80	80	14
22	25	5
72	73	5
32	108	1
1	3	4
5	29	4
127	129	2
86	127	1
9	9	7
15	33	2
15	15	18
131	133	3
14	15	7
19	20	3
25	26	2
13	118	1
130	130	6
45	45	19
68	99	3
20	20	12
7	8	4
39	68	1
10	17	1
123	123	5
103	104	2
60	99	4
106	106	13
56	57	9
10	11	1
52	56	4
83	83	9
32	33	1
7	114	2
64	65	3
23	24	4
67	76	2
129	130	2
72	75	1
61	99	2
69	83	2
43	49	2
104	104	12
53	54	4
83	84	1
47	63	2
114	115	2
48	48	9
48	66	4
49	99	1
70	76	1
94	96	2
67	98	2
12	13	4
62	62	10
118	124	2
101	102	7
69	87	3
121	121	6
95	104	1
96	115	2
1	12	2
66	100	1
15	25	2
94	95	5
86	87	10
48	58	4
83	117	2
59	60	1
78	79	4
80	116	6
40	86	1
12	24	1
48	78	3
0	18	5
119	119	4
103	103	2
16	18	2
113	125	1
80	81	9
126	128	2
79	80	2
82	83	2
132	132	7
59	67	3
87	87	3
50	51	4
49	52	1
21	33	1
85	86	3
51	51	4
57	110	2
33	42	1
2	29	1
42	43	2
4	20	3
60	77	5
89	91	1
13	34	1
31	31	2
127	130	1
49	50	6
73	73	3
115	116	3
72	82	2
11	12	1
111	112	6
20	22	2
43	55	3
45	46	2
82	116	1
46	96	3
108	112	1
97	98	3
100	103	1
18	96	2
77	77	1
11	17	2
85	130	3
99	99	3
118	119	2
49	53	2
63	84	4
55	107	1
51	76	1
44	45	1
25	27	2
122	122	3
69	110	1
108	125	2
32	101	1
72	76	1
50	100	2
115	115	5
41	44	1
78	100	3
100	101	3
79	82	1
90	91	5
6	7	2
58	106	3
30	32	1
3	6	2
49	56	2
55	109	2
63	77	2
33	41	1
72	74	1
86	98	1
47	47	2
85	85	3
43	44	1
53	77	1
31	32	1
106	107	1
60	65	2
38	44	1
0	57	4
116	117	1
88	91	1
70	71	3
61	62	3
24	26	1
104	109	1
12	120	2
91	91	3
74	84	1
65	66	3
5	6	2
73	81	2
71	75	1
74	74	1
90	99	1
6	95	1
5	28	3
51	56	1
101	111	1
55	76	1
46	91	3
48	62	1
1	24	1
98	99	2
6	9	1
0	1	3
43	101	1
70	82	1
106	125	3
11	14	1
0	2	1
49	54	1
96	116	1
131	132	1
105	107	1
61	68	1
13	39	1
22	31	1
93	93	2
59	62	1
3	18	1
