114	114	10
11	11	12
245	245	5
42	42	14
26	26	6
74	74	13
11	16	1
34	34	7
225	225	12
247	247	7
70	70	11
245	246	4
208	208	9
7	7	1
10	11	5
80	82	2
56	57	2
158	163	4
204	204	7
116	116	6
28	28	7
82	82	9
13	188	4
200	200	3
43	43	4
192	194	2
224	224	6
7	8	3
4	4	4
206	206	5
86	86	4
182	192	3
177	177	11
1	1	10
144	145	2
50	50	10
66	66	13
58	59	4
27	27	5
60	61	3
220	220	8
199	199	6
153	153	4
56	59	2
22	22	6
234	234	5
56	62	1
81	83	6
180	180	6
201	201	14
54	54	6
18	18	3
81	81	3
19	19	10
12	12	6
150	150	3
212	212	8
63	65	4
59	59	4
41	41	7
84	84	1
50	68	7
248	248	2
85	85	2
30	30	3
60	60	4
51	52	3
92	92	5
115	115	2
161	161	13
205	207	1
188	188	3
61	61	6
9	9	8
217	217	9
58	58	10
167	167	8
78	78	4
52	52	12
151	151	4
227	227	6
76	84	3
33	33	10
110	110	13
71	71	3
146	146	4
76	76	3
226	226	14
46	46	6
100	100	3
180	224	1
91	91	7
230	239	7
246	246	5
144	206	4
49	74	1
207	212	4
63	63	6
112	112	1
26	43	2
73	79	2
196	196	3
155	156	2
36	36	6
216	216	2
155	155	6
242	243	1
202	202	8
197	197	2
88	89	1
35	62	1
32	32	4
242	242	3
96	96	1
54	82	3
14	14	2
190	190	6
29	29	6
154	154	7
31	31	3
157	158	6
205	205	3
59	60	4
225	226	1
112	113	3
51	51	2
32	51	1
183	183	1
176	176	4
175	175	1
219	220	3
88	88	10
109	109	12
10	10	9
108	108	7
57	57	3
156	171	2
67	75	2
49	49	7
57	59	2
178	179	3
223	223	6
221	221	8
84	118	2
188	189	5
198	198	6
6	6	1
75	76	5
25	25	4
180	182	4
95	161	2
193	193	7
153	162	1
118	118	4
193	197	5
16	16	4
194	194	1
233	233	1
87	88	2
24	24	1
145	145	6
230	230	2
220	221	1
8	8	6
47	66	2
104	107	3
92	93	2
224	225	2
15	15	3
62	62	5
163	163	7
178	178	1
47	47	8
64	67	1
186	186	3
154	155	2
243	243	4
27	28	3
179	179	2
104	104	3
165	166	2
83	84	2
190	191	1
183	224	1
29	68	2
103	104	1
23	23	4
94	94	4
180	223	2
39	40	1
106	107	1
87	87	1
189	189	1
102	102	4
55	55	3
44	44	4
176	178	3
90	90	1
184	184	4
32	33	2
113	113	2
5	5	2
72	72	5
57	58	2
69	69	3
35	35	5
40	40	4
4	14	2
117	117	8
77	77	4
181	181	7
213	214	5
171	171	2
173	175	2
210	210	4
204	205	3
232	240	1
103	103	3
211	212	5
100	101	2
29	31	3
80	80	3
109	151	4
107	108	2
203	204	6
182	223	1
95	95	3
61	64	3
185	185	1
202	205	2
228	228	2
221	222	1
211	211	2
107	107	1
240	240	3
214	215	5
160	160	2
64	64	3
227	228	1
67	67	3
51	118	1
196	197	2
73	73	3
197	198	6
208	209	3
42	43	1
202	206	1
159	159	2
4	5	2
174	174	1
30	48	7
179	239	1
78	80	2
156	156	2
114	115	2
33	36	1
86	98	1
235	235	6
38	38	2
201	226	1
17	17	3
231	231	1
68	68	5
2	2	2
100	120	1
75	80	1
111	111	1
168	169	2
56	56	4
196	218	2
20	20	1
45	45	4
101	152	1
249	249	2
202	203	2
22	23	1
102	104	3
29	115	1
61	67	2
101	102	2
209	209	4
64	65	3
208	233	1
220	231	1
65	65	1
157	165	1
170	171	2
77	78	1
199	200	3
79	79	2
30	115	1
208	213	1
164	173	2
210	211	2
120	147	1
101	101	2
181	183	3
195	195	3
152	152	1
180	181	1
75	75	1
179	180	1
49	50	2
195	197	1
215	215	1
48	116	1
216	217	1
222	222	2
75	82	1
221	231	1
19	20	1
223	224	1
236	236	1
187	187	1
87	99	1
218	218	1
170	170	1
2	3	1
243	244	1
4	13	1
