104	105	5
147	154	3
57	57	3
142	146	3
150	150	3
131	131	8
76	77	1
135	135	6
70	71	3
157	157	10
78	78	6
13	13	6
25	25	10
143	162	8
15	38	2
135	136	13
9	9	17
38	39	1
148	149	3
108	109	7
51	51	9
70	90	3
141	141	11
37	37	4
20	24	3
55	55	9
154	154	2
89	89	3
53	55	3
118	118	5
34	34	5
134	135	4
117	118	4
1	1	9
26	27	2
84	131	1
14	14	18
56	56	5
152	152	11
50	50	9
12	14	3
129	130	2
19	20	1
132	133	5
35	35	6
93	95	5
23	23	4
156	156	7
108	108	7
66	66	12
137	137	5
7	8	2
26	26	3
69	69	4
47	49	2
81	93	3
48	48	4
1	2	5
106	118	4
82	82	5
103	103	5
63	117	1
72	81	3
43	44	3
125	126	2
21	122	3
81	92	2
54	54	9
96	96	4
165	165	7
139	139	4
70	70	4
74	74	1
47	52	2
47	47	6
27	104	1
162	165	3
41	41	3
6	6	5
92	92	2
18	18	4
5	5	4
67	69	3
54	55	2
119	119	10
104	104	9
73	92	2
86	88	1
90	91	1
24	25	3
85	85	6
19	51	1
72	119	1
87	87	1
129	129	1
105	106	5
153	154	4
5	9	1
116	116	14
155	155	8
72	72	6
140	140	2
163	163	9
113	114	7
100	100	8
144	144	1
160	160	3
5	7	1
78	87	3
143	143	6
89	90	4
111	112	2
80	81	4
76	76	1
153	153	3
63	64	2
161	161	3
79	79	4
81	81	10
57	62	2
4	4	8
117	117	2
52	56	4
24	44	1
168	169	2
6	9	1
12	57	1
103	105	1
2	45	1
8	8	3
91	131	2
2	168	2
105	131	4
121	121	3
105	105	4
164	164	6
38	38	4
57	73	1
145	163	3
3	3	3
70	168	1
69	70	3
123	123	6
149	149	10
127	128	4
68	68	5
68	73	2
74	89	5
109	109	2
9	45	2
83	83	5
81	82	4
58	58	3
0	9	1
102	102	4
136	136	6
39	52	2
168	168	9
2	2	6
40	40	11
45	45	10
141	142	2
66	69	1
48	49	1
127	127	4
111	111	5
57	72	3
135	149	4
22	22	6
129	144	3
63	63	6
16	16	6
113	113	10
56	57	3
110	110	19
126	126	5
120	121	1
77	77	8
114	114	6
80	80	4
10	11	3
51	58	1
10	38	2
123	125	2
71	71	3
138	140	4
68	145	5
68	74	2
152	153	4
0	48	4
146	146	4
140	141	1
136	138	2
73	73	2
18	19	5
167	167	1
85	86	2
81	99	1
1	25	1
37	38	2
62	62	2
133	133	5
128	128	2
145	145	3
86	86	3
10	27	1
49	49	5
149	151	5
133	134	1
144	145	4
55	56	5
82	92	4
97	97	2
17	18	3
84	159	2
44	44	2
58	110	1
46	46	5
94	94	10
149	150	1
15	15	3
15	34	3
27	50	1
84	85	4
97	146	3
66	105	1
11	11	6
65	65	3
43	43	3
63	116	2
3	5	2
99	99	5
0	47	1
12	12	6
20	20	10
143	144	4
78	80	2
1	20	2
33	33	4
51	54	1
53	53	6
128	130	1
151	151	7
36	36	2
24	24	1
114	158	1
166	166	2
69	90	2
71	92	1
72	127	3
3	27	2
142	142	1
107	107	2
21	21	9
22	23	2
121	122	4
73	93	1
90	134	2
85	161	1
115	146	2
75	75	1
0	0	3
138	161	1
54	56	1
90	90	6
66	104	1
19	19	2
71	90	2
106	107	1
100	101	1
76	160	3
52	53	2
17	17	2
122	122	4
58	161	1
9	13	3
88	89	3
156	157	3
109	110	2
4	5	2
13	17	4
101	101	6
130	130	2
33	34	1
147	147	3
48	52	1
74	84	1
13	16	2
65	124	1
111	167	1
72	135	1
160	170	1
42	43	5
62	169	2
68	136	1
86	114	1
104	128	1
118	119	1
23	51	1
162	162	3
65	116	1
53	54	1
83	143	1
130	142	2
98	99	1
27	28	1
158	158	3
78	79	1
88	158	1
147	167	2
169	170	1
130	143	1
159	159	1
167	168	1
84	133	3
3	4	2
155	158	1
66	67	1
123	124	2
135	147	1
93	94	1
50	52	1
145	147	1
151	152	1
67	123	1
16	17	1
13	15	1
101	117	1
7	7	2
34	36	1
99	124	1
119	122	1
150	151	1
39	39	1
113	145	1
84	84	1
1	5	1
97	165	2
83	101	2
159	160	1
52	52	1
137	140	1
44	45	1
87	136	1
87	90	1
86	115	1
3	42	1
141	163	1
104	127	2
2	19	2
68	125	1
100	103	1
10	58	1
88	88	1
119	130	1
41	43	1
135	148	1
64	65	1
20	23	1
