108	108	2
23	23	1
27	27	8
41	41	7
160	163	1
149	149	4
65	65	5
216	217	3
181	181	5
52	87	4
93	93	4
92	93	2
66	73	2
229	230	5
71	71	5
175	175	2
15	24	1
50	51	3
236	237	1
38	38	8
184	185	7
3	3	4
60	60	8
150	150	4
97	97	5
25	25	7
167	168	2
166	166	3
3	110	1
220	232	2
216	248	7
13	25	2
171	176	2
89	90	1
165	165	2
115	116	4
34	35	1
240	240	1
79	79	10
223	233	2
154	154	3
93	94	5
225	233	3
144	144	2
200	210	2
42	44	3
151	151	3
4	5	5
75	75	7
5	7	7
48	49	3
232	233	1
214	215	7
187	190	3
112	118	3
155	155	4
237	237	7
81	81	2
32	33	2
167	242	1
202	202	4
162	162	4
220	223	3
196	197	1
55	59	1
33	54	2
90	91	4
203	203	2
113	120	2
224	233	1
168	169	3
42	42	2
225	225	3
20	20	5
70	70	8
30	30	7
241	241	9
17	17	6
173	174	9
182	182	5
222	222	2
177	177	9
8	8	9
46	46	6
22	22	8
94	94	3
178	178	2
174	174	1
22	23	1
111	113	3
53	54	5
33	33	9
154	157	2
169	169	8
156	156	3
52	52	4
77	77	7
209	209	11
100	100	2
93	209	1
245	245	1
238	238	2
96	97	2
110	111	3
205	206	3
223	223	1
209	210	3
29	30	2
12	12	11
242	242	2
102	103	5
168	168	6
56	56	4
110	110	9
158	158	2
66	66	7
176	176	5
85	85	2
190	190	3
224	224	5
90	90	6
31	31	3
54	55	5
61	61	2
21	23	2
30	31	5
207	207	2
103	103	3
75	77	1
152	152	4
35	36	1
244	244	5
186	190	4
247	248	8
63	63	5
21	21	1
163	165	3
173	173	14
28	28	6
214	246	2
33	34	3
18	19	6
95	193	3
161	161	1
47	48	4
208	208	4
39	39	1
247	247	2
164	165	4
205	205	4
62	62	3
187	187	2
167	167	4
113	113	6
227	227	3
10	11	1
235	235	1
186	186	4
56	57	1
51	51	6
246	246	1
114	115	2
58	58	3
183	183	7
11	11	1
228	229	3
116	116	9
117	118	3
89	89	5
73	73	3
171	172	1
118	118	2
229	229	4
15	15	4
53	53	6
105	107	7
194	201	4
212	213	2
218	218	4
49	49	3
96	192	4
24	24	3
46	52	3
6	7	1
216	216	8
4	4	3
65	66	2
233	239	4
204	208	3
67	67	4
159	164	1
86	86	1
55	56	2
160	160	1
231	234	1
72	72	2
172	173	1
50	50	7
226	229	2
0	1	4
19	19	5
219	243	4
16	17	1
45	46	3
239	240	5
227	231	1
12	15	1
114	120	1
54	54	2
107	107	4
45	45	2
193	193	3
165	166	3
111	119	1
204	204	5
191	192	3
104	104	1
18	18	4
7	8	3
211	211	5
66	67	2
234	238	2
166	204	1
61	62	2
194	199	3
82	83	3
52	85	2
188	193	1
96	98	2
210	210	4
231	233	1
162	203	3
19	34	1
9	9	6
32	32	1
15	25	4
4	159	1
144	161	2
187	188	2
180	180	2
228	228	3
19	35	1
188	188	3
183	189	5
34	37	3
217	217	2
155	156	2
76	86	1
196	196	1
167	169	3
52	53	4
111	111	3
78	78	5
7	7	4
226	226	6
84	84	1
111	112	2
102	102	1
220	220	5
115	117	4
99	107	4
68	71	1
185	186	2
2	2	1
238	239	3
184	184	3
112	112	7
37	38	1
160	161	1
189	189	2
197	197	2
63	64	2
21	31	1
81	85	2
210	211	1
213	246	3
24	29	2
146	211	2
248	248	2
77	78	2
6	6	4
87	87	4
201	201	2
183	202	1
14	15	4
153	154	2
94	95	3
67	68	2
157	157	1
157	158	3
163	204	2
80	81	3
46	47	1
178	179	1
83	83	2
196	198	1
231	231	1
101	192	1
213	213	4
233	234	2
80	80	1
100	101	1
109	109	1
95	97	2
83	86	2
201	243	1
99	198	1
115	115	3
99	99	1
9	12	2
105	105	1
160	165	3
68	68	4
224	225	2
80	85	1
193	200	3
227	228	2
36	36	1
147	147	2
164	164	1
1	14	1
28	29	1
74	88	1
4	163	1
206	206	1
245	246	1
65	75	2
16	16	1
147	154	1
153	153	3
167	201	1
11	15	1
221	221	1
209	211	1
35	35	1
15	17	1
202	204	1
166	167	1
94	97	1
163	203	1
74	76	1
144	147	1
170	170	2
152	153	1
40	41	1
3	4	1
23	31	2
226	230	1
47	47	1
70	71	1
194	194	1
145	145	1
81	82	2
26	27	1
151	153	2
204	205	1
91	91	1
57	57	2
44	44	2
176	177	1
85	86	1
9	45	2
154	155	2
221	223	1
185	185	1
237	238	1
186	187	1
64	64	1
88	88	1
241	242	1
200	200	1
15	164	1
109	110	1
4	15	1
212	212	1
169	170	1
171	171	1
69	69	1
101	101	1
179	179	1
101	106	1
