21	21	15
61	62	1
98	98	13
44	45	8
89	90	3
28	28	12
32	33	3
71	71	7
112	112	15
70	70	15
88	88	17
75	75	16
128	128	6
116	117	1
17	22	4
94	94	8
27	27	8
7	13	1
134	134	12
1	3	1
69	69	7
130	130	10
86	87	3
6	6	13
126	126	5
133	133	5
117	117	12
103	103	10
29	29	12
82	82	7
57	57	6
24	24	12
89	89	3
2	2	3
15	19	4
65	65	9
129	133	4
26	26	10
74	74	18
121	122	5
107	107	5
119	119	8
20	20	15
111	111	16
3	5	2
72	72	12
61	61	6
43	43	9
5	5	20
1	1	5
99	99	10
79	87	1
115	116	8
106	106	5
11	11	6
111	112	2
19	21	1
102	102	32
131	131	12
90	90	12
92	93	6
95	95	6
66	66	7
47	48	2
113	113	12
62	91	2
0	0	14
104	104	12
75	104	1
122	122	10
94	95	7
33	46	2
92	92	8
127	127	22
24	25	2
54	54	8
76	76	8
68	68	10
63	63	9
135	135	6
127	128	7
33	33	21
95	128	8
32	32	7
47	47	4
62	63	2
77	77	7
9	9	3
10	10	7
73	74	4
114	116	1
76	77	1
121	121	23
55	55	17
31	31	4
102	103	8
82	85	1
129	129	8
15	15	6
14	14	11
15	20	1
64	64	8
82	83	5
95	98	4
50	50	14
109	109	10
28	91	2
9	11	3
115	115	19
60	60	14
82	86	5
10	24	1
76	109	2
25	25	9
16	16	8
119	122	3
4	85	1
120	121	4
81	81	6
100	100	10
11	12	3
50	62	3
134	135	3
6	15	3
52	53	2
22	22	10
76	135	1
73	73	13
50	61	4
116	116	20
30	30	10
86	88	2
19	19	8
91	91	6
62	62	8
76	80	2
13	13	9
105	105	11
36	36	5
58	58	2
128	129	2
90	92	1
96	96	11
132	132	5
87	88	5
106	130	1
4	7	1
63	64	6
126	127	3
118	118	9
78	78	2
0	15	2
97	97	13
87	87	2
35	35	5
88	102	2
13	15	1
80	80	11
86	91	1
27	47	3
7	7	2
14	86	1
45	45	16
62	115	1
21	22	6
110	110	2
83	83	5
25	50	1
19	26	1
116	132	1
84	84	4
62	112	3
120	120	9
103	104	1
30	31	3
23	47	1
59	59	8
108	108	5
52	54	3
91	119	2
122	123	4
42	44	2
96	98	2
85	85	4
30	125	3
29	35	1
112	113	4
100	101	1
86	86	1
54	55	3
53	53	7
71	80	1
27	28	1
97	128	1
111	134	2
104	105	1
29	30	8
109	111	1
81	128	1
68	69	4
116	122	1
123	125	1
76	106	1
84	111	2
8	8	6
0	1	1
33	34	3
78	106	1
77	109	1
60	61	1
23	23	2
124	125	2
12	12	15
114	114	8
66	68	2
74	103	3
4	5	5
53	69	1
77	79	2
79	79	5
56	56	4
17	24	2
1	4	1
6	14	1
101	101	7
95	96	1
25	49	1
22	23	1
60	80	2
59	80	4
37	117	1
106	131	4
44	44	6
124	124	4
125	125	5
106	107	1
4	4	4
105	106	1
93	94	1
56	57	2
7	10	1
98	103	1
65	69	6
12	14	2
49	50	3
123	123	5
13	14	3
27	33	1
8	15	2
124	126	2
26	108	1
59	79	1
70	71	1
57	68	1
28	125	2
37	37	1
31	33	1
47	51	2
52	61	1
1	2	2
6	52	3
90	123	1
72	111	1
107	130	1
24	93	1
56	62	2
100	129	1
93	93	7
79	106	2
129	132	2
5	8	1
75	76	4
26	33	1
75	88	3
81	82	1
130	131	6
5	127	1
18	22	1
72	106	1
34	34	3
108	109	1
3	3	3
52	52	1
17	17	1
6	27	1
8	12	2
45	82	1
73	98	2
28	30	1
101	128	1
87	106	1
133	135	2
54	68	2
57	64	1
50	92	2
117	118	1
10	11	3
77	78	2
75	77	1
97	119	1
15	17	1
82	111	1
9	10	1
67	68	1
82	129	1
82	100	1
19	20	1
90	119	4
15	18	1
57	61	2
88	89	2
59	78	1
25	35	1
101	104	2
55	57	1
32	115	1
23	24	2
88	111	2
55	62	2
66	69	1
19	114	1
7	9	1
83	85	3
63	70	2
3	58	1
49	49	1
70	90	1
11	17	2
3	38	1
90	116	1
6	7	1
114	115	3
110	111	1
62	64	1
26	27	2
112	131	1
56	65	1
99	102	1
69	70	1
16	19	2
83	84	2
78	80	1
71	72	1
2	3	2
110	119	1
78	115	1
5	6	1
57	58	2
90	91	2
53	54	1
11	15	1
108	110	2
89	123	1
110	133	1
16	17	3
5	32	3
67	67	1
99	105	1
96	97	1
97	98	1
43	52	1
16	81	1
118	119	1
31	125	1
97	129	1
35	37	1
16	18	1
69	71	1
6	59	1
20	56	1
13	71	1
45	46	1
81	102	1
96	129	1
130	132	2
80	134	1
