96	96	13
38	96	1
100	102	5
31	51	3
30	31	7
100	100	11
49	49	9
36	37	4
24	25	5
21	22	3
24	55	2
75	75	5
81	90	1
71	71	8
58	58	12
31	32	2
64	64	5
33	33	7
95	95	6
73	73	7
86	86	10
30	39	6
104	104	7
51	51	7
63	64	2
30	30	10
92	92	10
77	104	4
107	107	2
49	50	1
62	62	9
56	58	5
76	76	2
90	90	4
98	98	13
48	48	3
53	90	2
35	36	2
41	42	4
22	37	3
46	46	2
49	58	2
69	101	3
64	93	2
82	82	15
103	103	11
57	57	7
94	94	16
45	45	7
85	85	10
91	91	9
70	70	4
52	91	2
51	52	6
88	88	2
77	77	15
21	25	2
39	39	4
24	105	1
21	100	3
78	78	6
99	99	5
105	105	11
21	21	4
46	47	1
23	23	2
38	43	4
31	31	5
35	35	2
22	24	2
26	26	2
52	52	10
63	63	4
82	83	3
96	97	9
80	88	4
24	24	6
50	50	7
61	62	4
37	37	9
32	89	3
46	49	7
66	68	2
52	53	8
59	64	1
56	57	3
41	48	7
22	23	3
69	69	6
39	96	3
36	36	8
39	40	5
68	68	8
22	22	13
65	65	17
44	44	2
21	27	3
89	89	2
20	48	4
33	34	3
85	87	5
39	43	4
54	54	7
32	90	5
74	74	2
60	60	3
59	59	5
56	56	8
29	30	1
42	42	3
59	60	4
89	90	2
85	86	1
66	66	2
78	90	1
93	93	5
55	55	1
92	105	3
28	28	4
81	81	1
24	35	3
101	101	2
40	77	2
73	104	3
95	96	2
47	47	2
73	74	2
29	29	8
38	38	5
73	76	3
52	80	6
76	77	5
72	73	3
103	104	1
81	92	2
72	72	2
89	93	1
79	79	3
102	102	1
65	66	1
87	87	2
81	93	2
87	88	3
31	88	2
61	61	3
64	65	3
51	53	2
67	68	1
23	24	3
34	34	2
42	43	1
32	34	1
50	58	2
23	99	1
37	98	2
77	79	2
97	97	2
64	83	2
67	67	1
79	80	2
70	72	1
37	97	1
53	55	1
84	84	1
66	67	2
88	92	1
45	78	1
24	30	1
97	98	1
106	106	1
29	42	1
63	94	1
29	48	1
52	55	1
80	80	2
81	82	1
69	70	1
31	48	1
29	31	1
101	102	1
100	101	3
53	53	1
45	50	1
