93	93	5
95	95	9
4	5	3
112	112	5
124	125	7
119	119	14
65	66	4
100	100	5
25	25	3
53	53	12
0	0	9
69	70	7
51	51	13
41	43	5
76	76	10
73	73	6
88	89	1
94	94	6
71	74	5
56	57	5
78	102	1
55	55	5
42	43	4
16	16	8
77	99	3
126	129	2
80	80	10
38	39	1
97	97	4
94	95	1
84	84	7
57	57	13
67	67	11
52	52	5
76	108	2
2	4	5
62	62	13
76	77	4
3	3	1
19	20	1
118	118	4
91	91	5
9	9	11
92	92	9
113	113	15
46	124	1
40	41	1
101	104	3
113	114	6
105	106	3
39	40	3
11	11	6
110	111	3
81	81	5
42	42	3
27	27	5
43	43	11
26	96	4
41	41	3
56	56	12
110	112	10
57	58	6
89	89	6
16	20	2
54	55	2
15	15	7
78	78	6
108	108	7
62	74	1
72	72	5
98	99	6
6	6	7
18	18	12
111	111	3
5	38	6
10	12	1
21	21	13
54	133	1
79	79	9
102	102	3
58	58	1
83	84	6
23	23	3
41	42	3
123	123	8
19	19	6
121	121	4
8	8	11
61	61	3
72	73	2
11	12	4
109	109	9
60	60	2
114	116	1
114	115	2
110	110	11
79	82	4
22	22	14
4	4	3
117	117	10
21	22	4
33	48	1
33	33	6
116	117	1
124	124	8
13	13	8
64	65	3
85	85	10
64	64	5
74	74	8
61	62	5
67	68	3
46	46	5
106	107	5
107	107	2
99	99	7
82	84	3
59	60	4
83	83	6
44	44	11
79	101	6
27	29	2
53	124	2
17	17	9
5	127	3
16	19	1
114	114	12
123	124	3
122	123	2
68	68	6
26	26	6
1	1	5
45	45	7
30	30	4
32	33	3
63	64	1
24	24	8
99	103	1
93	94	1
98	98	2
43	44	5
12	12	5
5	6	5
104	118	4
48	48	7
32	32	3
54	54	3
10	10	2
74	75	5
31	33	3
104	105	2
66	67	7
13	14	5
8	132	2
104	116	3
103	104	6
100	103	2
62	70	1
106	106	8
46	74	1
49	49	5
47	48	2
132	132	4
18	20	1
116	118	4
97	128	3
18	23	1
55	56	1
63	63	4
5	5	4
99	101	1
12	19	1
18	19	7
75	75	7
84	85	2
86	86	4
31	31	3
46	48	3
111	117	2
80	81	3
31	34	1
59	59	4
20	20	7
53	125	2
96	96	5
70	74	3
89	90	2
77	77	3
116	119	2
29	29	5
40	40	5
133	133	2
10	17	3
90	90	3
28	28	2
88	88	4
109	125	3
52	53	1
15	16	4
103	103	5
110	126	3
60	63	3
129	129	9
78	81	1
59	78	4
101	101	2
70	70	6
126	126	5
3	4	1
46	121	3
128	129	2
103	117	1
14	14	1
21	57	1
75	77	1
40	44	1
75	76	1
131	131	5
58	60	6
33	86	1
9	14	1
28	92	1
7	7	1
31	32	4
61	66	1
33	131	1
82	82	3
66	66	2
59	83	1
126	128	4
69	69	6
39	39	2
29	31	2
39	44	1
109	117	1
126	127	3
84	88	3
47	47	4
105	105	3
104	104	4
2	6	1
116	116	4
108	109	2
76	88	3
20	21	1
77	79	2
58	63	1
15	22	1
92	94	1
41	72	1
0	51	1
111	112	2
75	92	1
99	100	1
95	96	4
65	67	1
49	50	2
112	117	1
28	29	1
61	70	2
102	103	1
131	132	2
130	130	2
117	118	1
1	3	1
46	132	2
127	130	1
70	79	3
85	102	2
14	17	2
109	122	1
79	81	4
71	71	1
125	125	5
2	2	2
92	133	2
34	129	2
2	3	1
6	56	3
75	90	3
11	31	1
51	53	1
56	62	1
0	6	2
9	10	1
54	68	1
27	93	2
107	108	3
100	101	1
42	45	1
121	122	1
52	64	1
4	6	1
120	120	2
82	101	1
10	14	2
97	98	1
40	55	1
3	7	1
68	69	1
128	131	1
102	104	1
62	71	1
115	115	1
72	97	2
78	79	1
25	26	1
86	87	1
108	125	2
76	98	1
24	100	1
112	113	1
96	105	1
128	130	1
115	117	1
38	38	1
50	50	1
91	92	1
53	54	1
