133	133	9
87	87	1
23	23	2
110	110	3
126	127	2
59	115	2
41	41	8
4	4	14
28	28	6
182	182	3
70	70	5
81	159	1
33	33	2
55	196	2
6	8	7
33	89	4
9	65	7
154	154	5
133	136	3
10	10	2
67	68	2
20	21	4
48	48	3
170	178	10
31	102	4
160	160	4
194	195	2
35	64	3
130	130	3
138	138	4
33	37	2
103	103	2
171	187	4
77	78	3
85	86	2
176	177	1
136	136	5
151	152	2
69	69	3
88	88	4
115	115	2
101	101	5
0	0	2
77	77	2
15	35	3
21	21	4
100	109	4
40	41	4
36	36	5
178	178	3
185	185	5
59	60	1
124	124	2
6	57	1
121	134	4
134	134	8
164	165	4
111	111	1
104	104	1
131	132	3
56	57	2
124	187	1
94	102	2
134	158	1
186	186	2
79	79	7
139	139	1
155	156	2
165	166	1
172	175	5
1	9	5
137	137	2
126	134	4
192	192	5
143	144	3
171	188	2
154	155	2
51	51	1
190	191	1
25	25	7
109	110	4
76	98	1
26	28	1
120	120	4
58	64	3
179	180	4
9	66	1
18	18	4
68	68	9
134	135	2
38	38	6
69	70	1
168	168	6
4	31	3
2	2	3
45	51	2
45	46	3
18	20	5
145	179	2
79	86	7
95	96	4
129	129	1
40	48	1
180	180	4
18	35	3
125	125	2
68	150	1
141	186	1
95	98	1
50	50	2
136	162	1
6	185	1
197	197	2
118	118	5
155	155	10
37	109	3
11	12	2
122	136	1
107	107	1
31	31	2
34	34	7
137	167	3
190	190	1
1	1	2
2	7	1
13	13	2
171	171	2
117	117	3
81	81	4
19	19	1
113	113	5
59	196	2
158	158	1
7	7	3
94	94	2
109	147	1
94	108	3
153	153	4
134	136	3
98	98	1
128	128	2
143	156	1
29	66	2
159	159	2
138	139	1
54	184	2
26	26	5
114	115	2
55	55	3
170	170	3
29	30	9
37	39	1
32	43	1
112	112	1
144	145	2
74	109	2
146	148	4
2	32	3
161	162	2
179	182	2
163	166	1
85	85	7
188	189	6
135	139	1
96	98	3
3	8	4
75	75	1
42	42	1
120	147	6
148	186	1
127	157	4
126	133	1
166	166	2
27	27	2
83	104	1
77	103	3
83	160	2
176	176	1
142	143	3
164	166	1
96	97	2
61	114	4
148	148	2
83	83	2
71	71	3
61	61	4
168	169	1
59	114	1
109	109	2
73	75	2
7	185	7
122	170	2
137	162	1
44	44	6
122	122	3
47	47	5
115	116	2
135	136	2
97	108	1
9	9	1
17	88	2
141	141	2
99	99	5
4	182	7
39	40	3
193	194	4
58	170	1
100	145	2
59	63	3
122	123	1
149	149	1
60	61	2
157	157	3
17	18	1
168	170	3
0	33	1
31	72	1
32	32	1
46	125	1
45	45	4
49	49	3
34	35	1
69	151	3
56	125	1
20	20	4
113	141	2
126	172	1
19	21	3
86	86	2
130	132	2
72	72	2
175	175	2
95	95	2
39	85	2
167	168	1
140	140	2
121	167	3
121	139	1
74	74	1
127	132	2
76	88	1
69	101	1
1	182	1
14	14	1
60	118	1
61	62	1
118	119	2
64	194	2
114	114	3
161	161	2
129	195	1
40	40	1
25	27	1
8	68	1
169	195	1
126	158	1
17	36	1
9	196	1
58	63	1
37	37	1
169	169	1
81	82	1
191	193	2
18	49	1
113	183	1
7	117	3
66	76	1
54	54	2
2	16	1
125	126	2
191	191	1
53	56	1
162	163	1
96	96	1
10	11	1
30	30	1
179	181	1
22	104	1
194	194	1
116	116	1
6	7	1
53	114	1
39	42	1
21	24	1
126	126	1
6	149	2
124	125	1
147	147	1
37	102	1
123	123	1
89	89	1
90	90	1
139	167	1
71	75	1
36	37	1
181	181	1
