46	46	2
158	166	7
140	142	2
157	161	3
11	34	2
164	168	2
78	78	3
225	225	8
0	0	2
138	138	5
183	184	3
0	82	2
7	7	6
137	137	2
121	121	17
59	59	4
160	160	3
58	58	9
63	63	4
202	202	6
75	75	14
223	223	6
205	205	4
166	167	2
150	150	9
184	185	5
199	200	3
145	172	1
35	36	2
55	55	3
191	197	1
195	195	12
74	74	4
164	167	2
104	104	5
150	160	2
14	21	5
119	134	1
105	108	1
153	166	13
63	70	2
10	10	7
123	123	2
46	111	1
23	24	2
203	203	12
242	242	2
69	70	2
236	237	1
155	168	3
180	180	4
32	39	3
114	133	1
2	2	5
186	186	6
239	239	6
5	12	3
60	60	2
119	135	5
130	130	1
84	105	3
189	189	2
30	134	2
44	44	3
40	40	4
184	201	4
209	209	3
162	162	1
42	43	1
215	215	2
181	181	5
12	21	4
193	194	1
25	25	4
41	41	4
18	18	4
240	240	2
138	141	3
64	64	1
67	67	2
207	207	3
28	28	5
228	228	2
97	97	3
76	76	3
137	147	2
139	139	3
17	17	2
118	127	2
89	89	1
141	147	4
199	199	3
14	193	3
180	182	3
170	170	8
2	16	3
201	201	3
115	116	4
166	166	5
227	227	3
19	19	4
33	34	1
233	233	1
234	234	1
0	81	7
30	30	8
174	174	6
204	205	2
39	39	6
187	187	4
120	120	5
128	128	4
177	177	1
113	113	2
153	164	2
214	215	1
22	41	2
1	1	5
168	169	2
22	22	3
146	146	2
172	172	5
68	68	9
206	206	4
234	235	2
166	181	2
162	164	2
123	124	6
71	72	5
43	43	5
35	35	3
108	109	1
142	152	4
135	198	5
6	8	1
85	85	1
47	111	7
55	56	2
145	146	4
144	144	3
15	15	2
61	61	2
107	107	3
167	167	4
147	150	4
14	14	1
142	142	5
128	131	2
17	191	2
122	125	3
10	142	1
168	168	1
20	20	4
136	136	3
23	23	4
171	172	3
103	129	2
178	199	1
147	149	3
230	230	5
145	145	1
140	140	4
18	85	2
210	210	2
178	178	2
185	190	2
217	217	1
231	231	4
122	122	1
80	81	2
203	204	4
232	232	2
148	148	2
129	129	2
171	171	4
212	212	4
48	95	1
149	149	1
66	67	1
72	72	2
214	214	3
159	159	5
40	55	3
129	131	5
162	181	2
157	157	4
51	52	1
221	221	2
91	91	1
158	158	7
35	45	1
200	230	1
108	108	3
32	33	2
36	36	2
119	121	1
182	182	3
163	163	3
127	188	1
218	218	4
213	213	5
109	110	2
50	50	7
72	73	5
73	73	5
141	141	5
100	103	4
156	157	1
181	230	1
204	204	2
181	182	2
237	237	2
18	19	5
127	127	2
91	106	2
220	220	5
231	232	2
84	84	1
29	29	2
175	176	3
24	140	2
118	118	5
1	104	1
205	206	3
27	27	6
199	201	2
66	66	2
198	198	1
38	38	5
78	80	3
106	107	2
235	235	5
4	107	2
77	77	2
32	37	1
139	140	1
182	200	3
118	134	4
137	178	1
106	108	1
106	109	4
37	88	3
125	126	5
222	222	7
52	52	1
230	231	2
138	176	2
4	5	3
68	69	3
85	86	1
21	21	1
180	181	1
173	175	1
139	142	1
49	50	2
20	158	2
60	68	1
152	152	2
152	153	1
116	116	1
83	85	3
37	37	1
224	224	3
33	33	1
14	15	3
237	243	4
45	174	2
8	8	2
175	175	1
14	107	1
3	3	3
195	196	5
121	122	1
86	86	1
227	230	1
81	82	2
236	236	1
194	194	1
238	238	2
17	112	1
103	103	3
219	219	3
44	49	1
29	30	1
178	180	5
140	150	1
18	47	2
26	26	3
140	148	2
113	136	1
138	146	1
189	190	4
238	241	2
125	183	2
19	20	2
8	14	2
3	106	2
79	80	3
126	197	1
142	145	3
183	183	2
232	233	1
76	77	1
11	11	1
241	241	2
134	134	2
216	216	2
95	95	1
9	9	1
48	48	2
16	196	2
142	159	1
22	77	1
19	46	1
157	164	1
70	70	1
105	107	2
13	13	1
51	51	2
54	55	2
161	161	1
0	67	1
7	156	1
188	188	2
121	125	2
155	157	1
45	45	2
124	124	2
49	49	1
57	57	2
188	189	2
115	115	1
226	226	1
119	133	2
196	196	1
71	71	1
70	82	2
173	173	1
82	83	1
172	173	1
187	190	1
179	207	1
143	144	2
114	114	1
138	145	1
15	16	2
169	169	1
227	231	1
235	237	1
50	101	1
229	229	1
74	143	1
208	208	4
46	86	1
81	83	1
214	216	1
154	155	2
32	32	1
70	75	2
4	14	1
151	152	1
1	76	1
157	162	1
111	111	2
134	135	1
54	54	1
16	77	1
50	79	1
240	241	1
200	201	1
10	171	1
56	56	1
107	108	1
77	104	1
148	149	1
184	231	1
69	78	1
117	127	1
11	21	1
45	111	1
126	127	1
117	117	1
