175	175	9
92	92	3
185	185	3
31	78	1
171	172	9
77	77	12
64	65	19
41	41	20
178	189	4
79	79	6
4	6	3
94	130	4
111	113	7
182	182	9
32	36	2
188	188	8
6	6	1
85	85	9
42	42	11
163	165	3
178	178	2
15	42	6
117	149	3
45	47	3
5	5	13
72	82	1
56	57	2
141	141	8
136	139	6
38	39	2
176	176	6
108	108	4
134	141	5
98	130	2
36	40	2
73	88	3
52	52	3
56	85	1
66	66	5
16	16	5
60	61	1
117	154	3
184	189	4
53	53	7
105	105	3
149	149	5
32	35	1
64	69	1
163	164	6
97	130	6
131	133	9
129	137	8
148	171	3
81	162	2
107	119	2
181	181	6
14	15	6
17	18	11
94	94	5
7	8	3
131	140	3
126	126	8
76	76	3
25	26	4
96	98	4
16	17	2
104	104	6
131	143	3
149	163	1
110	110	3
36	36	4
72	76	3
150	150	7
3	48	4
123	123	7
30	30	8
169	170	5
103	103	4
38	38	6
122	122	3
109	110	5
181	190	2
184	184	7
54	54	6
142	190	1
95	137	1
23	27	4
117	118	5
73	82	3
84	84	4
89	93	1
140	140	3
0	0	2
107	121	2
59	61	1
25	25	3
14	43	1
28	54	1
47	47	2
78	78	5
73	73	7
144	166	1
143	143	4
125	125	5
36	37	4
54	55	3
111	111	6
37	37	8
102	116	7
112	112	2
101	101	7
171	171	1
128	128	4
155	161	5
99	131	2
148	158	6
58	59	3
166	166	4
40	40	5
46	47	4
107	107	2
45	45	2
178	180	3
15	15	6
189	190	3
26	26	8
19	21	1
189	189	3
24	30	1
124	124	10
96	96	2
109	109	4
76	88	5
96	97	2
187	188	2
67	67	5
172	172	7
162	190	2
29	29	2
101	124	2
9	10	3
173	174	1
12	14	4
22	22	2
26	29	4
188	189	7
72	72	3
65	66	2
22	24	1
97	133	2
127	128	3
154	163	2
62	62	3
85	88	2
15	16	2
65	65	4
80	80	3
34	77	6
2	48	3
31	35	3
83	88	1
24	24	1
131	142	1
108	124	2
105	106	3
87	87	4
68	68	9
48	48	4
74	74	4
102	102	5
14	14	6
135	135	1
56	56	4
174	179	2
120	120	4
53	150	3
114	116	2
141	181	2
137	137	3
71	74	2
142	142	5
187	187	1
108	123	2
18	37	3
156	156	3
120	170	2
30	35	1
155	156	3
167	168	4
144	187	3
104	105	4
17	27	6
121	121	5
53	149	2
84	89	2
13	14	2
148	148	1
60	60	2
146	166	2
185	186	2
83	83	2
114	122	2
151	151	4
144	145	4
163	190	1
22	36	2
95	131	5
169	185	2
95	130	1
77	80	1
146	167	1
111	125	3
136	136	3
93	172	6
127	127	6
160	160	2
183	183	2
103	104	4
162	162	2
140	189	1
157	157	1
147	190	3
143	147	1
95	95	1
32	33	7
27	27	1
39	39	1
133	134	1
35	55	3
62	67	1
17	17	6
33	80	2
103	152	2
174	174	10
99	115	1
13	15	2
93	190	4
18	21	1
88	88	4
158	187	2
135	141	1
79	86	1
58	58	2
77	159	2
79	164	1
99	100	1
139	139	7
149	154	3
0	1	3
82	82	2
133	133	2
165	165	2
89	89	1
148	154	2
68	69	2
57	57	2
46	46	3
138	138	2
8	8	1
29	164	2
71	71	1
70	70	3
140	141	5
181	183	4
91	91	2
11	12	4
161	161	1
106	106	5
158	158	5
122	168	3
115	115	1
94	189	4
63	63	1
16	25	1
87	160	3
13	13	2
119	119	2
138	139	2
137	138	3
152	153	2
142	143	1
141	187	1
159	159	3
147	168	4
178	179	3
111	123	1
97	97	3
123	124	4
177	177	1
163	163	1
52	151	2
76	80	2
0	48	2
148	186	1
79	156	3
125	128	2
132	133	2
104	107	1
179	189	2
66	67	2
19	19	6
5	6	2
153	153	1
93	187	1
98	98	5
174	178	2
100	100	2
41	42	1
130	133	1
31	76	2
186	186	5
108	114	2
134	134	2
28	29	1
39	76	2
132	134	1
79	159	1
170	170	1
47	48	3
2	2	1
141	189	1
57	90	1
33	34	2
27	30	1
99	124	2
129	169	1
76	87	1
29	53	2
28	28	1
34	34	1
53	153	2
115	117	1
46	48	1
180	180	1
54	160	1
151	156	1
108	109	2
155	165	1
67	68	3
129	129	1
75	75	1
54	78	1
23	25	1
141	146	1
92	171	1
96	99	1
101	125	3
95	166	1
130	137	1
28	35	1
146	146	1
40	41	1
82	165	1
120	145	2
118	118	1
146	190	1
81	81	1
131	131	1
115	118	1
182	186	1
19	20	1
79	81	1
