244	245	4
196	196	3
72	72	8
199	199	6
190	221	6
40	40	4
202	203	3
28	85	2
31	31	7
25	27	1
21	21	6
111	111	4
182	208	4
102	103	4
95	96	5
86	86	5
109	109	3
63	70	3
76	113	2
3	3	3
85	86	3
50	163	2
106	106	5
116	116	4
43	44	1
26	26	2
45	45	3
241	241	5
91	93	4
160	160	8
246	246	2
52	52	1
30	47	1
36	36	4
169	169	6
173	173	1
168	168	4
76	76	3
147	154	2
84	85	2
220	220	2
40	42	2
180	180	7
208	214	1
204	211	4
35	112	2
167	168	2
2	22	6
6	6	1
241	247	4
168	169	2
41	42	4
98	100	2
73	73	2
80	80	4
9	53	1
171	171	2
224	225	4
166	166	7
60	246	1
4	55	2
215	215	2
187	187	4
153	153	2
150	228	6
216	219	1
97	97	2
10	10	7
206	207	3
48	115	1
9	9	5
84	84	3
4	4	7
38	112	1
226	226	9
35	35	3
159	159	2
37	42	6
8	10	3
228	228	2
239	239	3
236	240	3
24	25	1
165	175	1
63	63	3
94	99	1
7	7	4
12	31	1
237	237	5
118	119	4
201	201	3
39	39	6
217	219	5
2	223	1
153	154	3
14	14	3
156	222	3
14	15	3
46	46	3
78	78	4
79	79	1
155	155	3
97	99	1
243	246	1
33	85	1
104	104	1
103	114	5
151	153	3
101	101	3
87	87	3
2	6	1
197	198	2
210	230	1
215	217	2
221	221	3
117	117	2
10	52	1
4	48	3
23	23	10
51	51	4
93	93	3
74	75	5
28	29	5
157	201	1
76	77	2
210	211	3
152	152	2
74	74	12
69	69	6
91	113	1
183	183	4
179	228	2
22	78	4
15	56	1
92	92	6
41	41	1
232	233	3
219	219	3
21	35	1
211	212	1
175	176	4
28	35	1
114	114	2
100	100	3
88	88	2
54	170	2
209	209	5
186	187	1
29	29	3
188	188	2
68	68	4
150	227	2
218	220	3
194	222	3
39	40	1
49	166	1
207	207	6
242	244	1
33	33	3
64	64	3
81	84	4
160	169	4
19	19	3
179	179	5
232	232	1
89	89	5
34	34	1
39	112	2
189	219	1
145	176	1
235	236	3
151	151	4
62	68	2
245	245	4
39	117	1
186	186	6
28	33	1
236	244	2
244	244	2
49	93	3
183	232	1
225	226	3
222	222	3
47	47	1
167	170	2
108	109	1
98	99	2
31	47	3
32	33	2
99	120	1
173	174	3
60	63	3
120	120	1
67	69	1
121	121	2
184	200	2
35	94	1
73	76	2
202	202	2
170	170	1
12	33	1
69	71	2
181	201	2
111	118	1
181	224	3
32	32	5
114	115	2
226	227	1
55	55	3
104	106	1
105	105	1
233	234	1
94	95	1
51	115	1
61	70	1
110	110	2
81	82	2
172	172	5
231	236	1
153	156	2
53	53	1
96	97	3
16	16	2
193	193	2
103	113	5
99	105	1
182	229	1
38	38	2
56	58	1
208	210	1
97	98	1
194	194	1
1	1	2
59	68	1
147	147	4
40	153	1
216	224	1
236	236	2
43	43	5
47	48	1
56	56	3
110	112	2
19	22	2
61	61	1
195	196	2
5	24	2
15	15	2
196	197	1
2	2	1
241	246	2
17	17	1
72	76	2
65	65	2
59	59	1
181	182	1
99	99	1
54	54	1
92	111	1
12	32	1
36	119	1
58	58	2
37	37	1
121	159	2
237	240	1
49	99	1
157	158	1
29	30	1
180	182	2
167	220	1
104	167	1
21	24	1
193	222	3
111	112	1
117	118	2
86	88	1
152	153	1
180	209	1
6	32	1
147	172	1
67	67	2
210	210	1
240	240	3
204	205	2
34	35	1
27	27	2
234	234	1
187	188	1
76	92	1
65	66	1
25	25	1
115	115	3
217	217	1
200	213	1
181	208	2
145	220	1
95	95	2
208	208	2
164	164	1
178	178	1
160	170	1
172	173	2
185	214	1
65	67	1
59	60	1
19	65	1
71	72	1
103	110	1
167	167	1
5	5	2
50	113	1
200	201	1
105	106	1
112	112	1
42	42	1
158	181	1
48	48	1
63	81	1
245	246	1
