14	49	4
55	59	2
76	180	2
23	23	1
24	25	4
27	27	4
108	108	5
17	17	3
16	16	3
6	8	2
179	179	4
33	33	4
24	24	5
134	134	8
172	172	5
153	161	1
111	130	2
45	45	5
139	140	5
41	44	2
31	31	8
129	131	4
133	133	6
94	94	5
161	163	2
138	138	1
136	136	1
85	86	5
4	4	9
98	132	1
162	164	2
102	112	3
68	68	1
160	174	3
90	98	3
24	26	9
110	147	6
90	92	4
95	95	7
79	79	5
92	92	7
158	159	12
65	65	4
70	70	2
94	95	7
128	128	5
127	138	2
49	57	3
173	173	4
110	111	3
108	109	3
150	150	7
158	158	5
176	176	7
61	62	6
5	46	1
171	171	3
151	152	3
127	127	2
86	86	4
59	59	1
0	0	3
104	104	4
29	31	2
71	72	2
102	148	3
90	91	2
125	128	3
159	159	1
90	90	11
157	157	6
7	7	3
105	107	1
158	165	6
10	10	4
68	74	4
162	163	3
100	101	4
80	80	2
141	141	5
131	132	2
16	19	1
26	26	3
156	156	7
76	76	6
87	87	8
178	178	7
77	77	10
28	33	2
101	101	4
175	175	8
72	72	4
71	71	3
25	27	2
113	114	1
5	5	8
36	125	1
96	175	3
54	54	6
1	44	1
3	5	3
148	148	7
180	180	3
78	78	2
155	157	3
4	62	6
5	49	4
124	125	1
91	99	1
118	118	7
55	55	5
100	127	2
128	130	1
30	73	2
76	77	3
142	143	3
149	149	6
107	107	3
21	21	5
12	12	1
96	132	2
37	37	3
1	3	3
132	132	4
126	126	2
16	17	4
167	167	2
82	132	1
125	126	3
105	106	2
61	61	4
83	136	2
154	155	3
151	151	7
52	53	2
108	134	4
5	45	1
144	144	2
122	123	1
92	93	4
42	42	3
8	8	4
66	66	5
1	1	4
103	114	5
57	58	2
140	140	4
136	137	3
143	143	5
54	55	2
63	66	2
116	116	4
106	148	1
0	1	2
5	8	1
38	38	4
132	133	2
32	32	3
123	124	5
111	131	1
44	44	2
41	41	1
18	20	1
56	68	1
131	131	1
78	140	1
2	3	1
113	145	2
135	135	4
140	154	2
56	57	1
147	148	3
39	39	3
104	169	3
62	63	2
149	169	2
162	162	4
113	113	3
26	27	2
58	58	4
14	18	2
75	75	2
166	166	1
39	41	2
56	60	4
54	59	3
114	114	3
10	16	1
82	82	2
37	39	2
5	62	1
85	85	4
165	173	2
60	60	2
8	17	2
25	54	2
36	36	2
29	29	1
0	6	2
163	163	2
5	13	1
9	9	4
91	91	5
74	75	2
26	29	1
6	13	2
153	153	1
109	110	3
44	45	1
133	135	1
153	158	3
130	130	2
172	174	1
161	161	1
169	169	3
168	168	5
59	62	1
15	19	1
140	156	1
125	125	2
84	84	1
18	19	2
159	162	3
176	177	2
169	171	2
35	35	4
64	134	2
59	63	3
74	74	3
50	50	1
145	145	3
24	45	1
81	82	5
123	125	1
126	127	3
43	43	2
111	112	1
144	145	2
2	2	1
86	96	1
155	155	1
144	146	1
62	62	2
15	68	1
27	29	1
64	64	2
159	160	3
15	16	3
112	112	1
164	164	1
147	147	1
96	96	4
30	30	1
128	131	2
170	170	2
178	179	2
53	55	1
111	111	3
53	53	1
52	52	2
65	66	1
52	65	2
2	8	2
137	137	1
102	102	3
174	174	1
111	153	1
40	41	2
88	88	2
86	135	1
87	88	2
60	65	1
64	95	1
160	173	1
129	139	1
93	152	1
38	41	1
173	174	2
102	106	1
93	93	1
122	122	3
7	45	1
35	38	1
73	73	1
1	61	1
97	97	1
56	59	1
49	49	1
3	62	1
34	35	1
4	5	1
12	44	1
106	106	2
102	103	4
20	20	2
5	6	1
177	177	1
85	95	1
159	172	1
127	131	1
61	68	1
85	134	1
110	110	1
115	118	1
55	56	1
15	96	1
95	96	1
11	11	1
162	166	1
52	55	1
129	130	1
60	61	1
66	67	1
72	142	1
15	15	2
82	83	1
91	175	1
