173	173	8
78	205	1
69	69	5
80	80	4
55	55	10
200	200	8
203	206	3
110	160	3
197	197	7
161	161	11
72	72	1
150	150	9
107	107	2
153	153	12
66	66	4
64	99	5
66	72	6
162	162	6
10	10	11
151	151	8
155	155	11
100	100	7
45	45	13
87	87	9
209	209	9
229	229	22
62	62	15
171	171	15
158	158	4
106	107	8
207	207	5
51	51	25
89	89	7
188	188	4
28	28	4
52	53	1
59	61	1
58	59	7
66	70	2
241	241	10
46	46	13
41	41	13
1	1	8
246	246	7
112	158	6
180	192	6
91	91	6
230	230	5
180	180	13
1	86	2
169	169	9
214	214	9
232	232	12
53	53	22
176	178	2
47	209	5
54	54	14
154	155	2
48	116	1
180	181	7
45	53	2
38	38	6
221	223	3
177	195	3
184	184	8
220	221	2
25	25	17
233	233	12
63	63	9
242	242	4
218	218	12
191	214	1
238	239	6
13	15	3
193	193	9
58	58	8
110	179	1
235	235	12
68	68	9
108	179	2
85	85	15
18	21	5
174	174	2
23	36	4
183	183	8
22	23	6
26	26	12
32	32	20
112	112	3
225	225	4
65	101	2
114	114	24
184	229	2
152	153	2
185	185	8
72	76	2
237	239	5
179	179	4
3	26	2
43	43	22
23	23	5
237	237	8
176	176	2
21	22	1
50	50	2
0	0	6
222	222	4
99	99	4
173	174	1
158	159	6
160	160	8
110	200	2
44	44	8
101	101	13
90	90	8
202	202	14
79	80	2
65	65	11
224	224	9
220	220	10
181	181	4
205	205	12
88	88	9
214	244	4
236	236	7
179	180	2
64	64	6
173	197	1
226	227	4
223	223	7
2	2	3
74	159	2
18	18	15
27	27	6
186	186	3
175	178	3
238	240	8
90	92	3
86	111	5
8	8	10
118	119	4
104	106	7
195	195	6
94	94	9
110	110	5
19	19	6
95	95	17
245	245	3
104	104	4
30	39	1
40	40	8
94	95	1
10	11	1
175	175	4
9	94	1
211	244	3
28	29	3
227	227	7
176	177	5
115	115	7
42	42	6
114	211	1
82	82	7
165	166	7
43	44	6
232	233	3
177	177	6
241	247	4
167	167	12
6	6	9
25	26	2
146	151	3
178	178	8
35	37	2
156	156	15
77	77	5
47	51	1
156	246	1
186	187	1
172	172	6
171	172	3
31	31	8
160	161	4
33	33	8
17	17	6
213	213	4
193	195	2
37	37	6
4	34	4
103	150	2
189	225	1
38	39	1
244	244	6
176	181	4
31	32	4
55	61	2
36	36	10
145	145	7
56	56	10
144	145	5
67	96	1
84	85	2
36	37	3
237	238	4
106	106	11
243	244	3
5	5	6
238	238	8
27	30	1
157	158	9
85	145	2
11	12	1
232	234	4
63	64	1
185	237	3
29	29	4
240	240	14
96	97	4
68	69	3
180	198	3
92	92	4
21	21	12
159	159	10
239	247	3
111	111	6
93	93	11
24	24	7
82	83	2
105	106	4
234	234	5
29	30	3
6	7	4
153	180	1
208	208	8
24	25	6
210	210	18
236	237	4
249	249	1
194	194	7
215	215	2
226	228	6
61	62	2
170	171	1
47	47	9
84	84	3
20	20	5
21	36	3
85	86	4
52	98	3
163	164	2
79	79	3
157	157	6
118	118	7
165	176	1
35	35	4
91	93	3
8	233	2
168	195	1
161	172	2
77	78	2
66	67	3
120	145	3
204	204	6
5	7	1
75	76	1
190	214	5
164	164	7
113	113	7
47	68	2
16	16	3
104	105	2
57	57	7
74	74	1
170	224	1
9	9	10
41	151	4
109	109	7
195	196	4
226	226	6
52	52	9
20	21	4
110	111	3
27	29	2
212	213	1
15	15	3
145	191	2
215	216	4
67	67	4
76	76	2
49	50	2
191	213	2
3	18	2
164	166	3
107	178	2
8	94	2
152	152	2
23	24	2
199	199	5
108	192	4
50	91	2
239	239	3
2	35	3
67	68	2
10	63	2
114	168	1
193	197	5
206	206	3
22	36	1
60	60	4
180	190	1
89	90	2
96	96	2
39	39	7
240	241	5
191	193	5
8	10	4
64	75	3
115	209	3
71	71	5
196	196	8
64	100	2
61	61	8
201	201	3
197	198	6
65	66	7
200	213	3
231	231	4
116	116	8
170	170	9
45	52	2
70	70	6
165	165	7
47	48	2
245	246	3
238	246	1
174	175	4
168	168	3
187	187	5
81	81	9
80	84	1
110	153	4
14	154	1
189	191	2
154	154	4
100	150	1
119	119	7
17	45	1
7	7	7
167	215	1
83	83	9
57	58	2
203	204	1
49	208	1
61	77	2
189	189	4
189	226	4
5	33	2
8	9	2
54	70	1
14	15	4
144	144	4
166	167	2
204	206	1
85	110	2
14	14	3
235	236	1
150	231	1
70	88	3
227	228	3
117	246	4
108	117	1
12	12	4
180	213	2
199	200	3
78	78	5
54	60	4
110	171	2
78	79	1
169	173	3
68	101	2
53	63	3
87	94	2
112	154	3
166	166	5
173	196	1
97	98	1
145	171	1
113	168	1
48	48	3
151	201	3
109	179	4
34	34	3
180	193	1
16	52	2
102	102	6
182	239	3
161	167	2
100	101	2
0	1	1
212	218	2
111	113	2
104	111	2
4	5	6
65	99	3
48	115	4
3	19	3
10	155	1
86	110	1
63	101	2
203	203	4
169	171	2
60	61	2
246	247	1
146	146	1
62	63	2
228	228	5
219	219	1
208	210	2
192	197	1
25	203	1
54	55	3
106	108	1
212	212	6
12	56	1
178	179	1
22	26	3
6	17	1
61	86	2
65	69	1
16	42	1
153	225	1
32	96	1
230	231	1
55	57	3
44	45	4
247	248	1
115	119	2
147	147	5
22	205	2
7	8	1
118	152	2
9	10	5
247	247	9
198	198	3
213	214	4
52	54	2
150	151	1
95	96	2
11	11	5
59	59	1
30	30	4
50	98	1
176	224	5
4	38	1
62	65	2
109	111	1
90	91	7
120	120	2
46	62	1
80	81	1
182	182	3
107	108	5
46	47	2
115	117	2
216	216	3
17	18	2
51	112	1
77	90	1
117	118	3
188	216	3
59	75	3
156	206	2
6	39	1
163	202	1
217	217	2
46	61	1
55	56	1
17	43	2
21	23	2
109	180	1
200	212	1
109	112	1
149	149	6
167	172	1
6	37	1
200	201	1
8	205	3
193	194	1
3	3	3
162	167	2
86	86	1
215	217	4
64	65	1
9	116	2
145	185	1
241	242	1
100	235	1
103	103	2
159	160	2
108	108	1
219	220	2
185	187	3
23	25	2
9	155	1
186	240	1
61	71	2
42	43	1
10	82	1
181	239	1
102	109	2
59	60	2
184	247	1
218	219	3
178	181	2
114	212	1
174	201	4
119	152	1
110	112	2
144	162	1
22	22	2
56	57	1
97	97	1
75	77	2
173	244	2
187	188	1
179	191	1
242	243	1
227	231	1
39	87	2
164	165	1
34	35	2
17	52	1
111	161	1
77	85	1
102	106	1
248	248	1
8	244	1
241	245	1
167	179	1
63	65	1
192	192	1
73	73	1
89	107	1
102	104	3
229	235	1
2	3	1
70	79	1
216	217	1
53	206	1
48	156	2
2	7	1
107	179	2
211	211	1
86	87	1
16	39	1
73	157	1
88	89	1
232	242	1
183	184	1
85	202	1
157	159	1
24	28	1
190	216	1
18	19	1
233	241	1
188	189	1
162	175	3
149	165	1
46	52	2
221	221	1
75	75	1
180	197	1
53	62	1
1	53	2
35	36	1
81	82	1
225	238	3
71	73	1
146	147	1
113	115	1
48	49	1
187	233	1
