37	44	3
133	133	10
149	149	13
87	87	4
45	45	4
2	2	6
18	26	3
166	166	8
140	140	12
140	156	3
126	126	6
120	120	8
98	98	3
96	124	2
8	8	1
59	59	2
138	175	4
25	25	4
161	162	3
172	173	3
23	24	5
163	163	10
68	68	4
27	81	8
115	116	4
160	160	9
90	91	1
157	157	2
122	122	8
72	73	5
106	126	3
81	81	12
129	129	9
148	148	2
145	146	8
125	125	9
103	103	8
119	119	7
53	53	5
127	127	7
40	102	4
157	159	1
61	61	10
114	114	4
175	176	3
10	13	6
34	40	2
173	173	7
18	18	9
145	145	10
55	55	4
37	37	8
32	32	3
95	95	12
134	154	6
77	78	4
5	28	2
149	153	3
88	88	13
9	9	4
76	76	6
61	64	2
54	54	4
30	32	2
16	16	4
134	134	8
70	71	7
71	72	3
77	77	2
65	66	3
88	89	3
137	147	2
134	143	4
73	73	2
27	27	5
79	79	26
113	113	4
55	56	4
96	96	9
121	122	4
118	118	5
33	39	2
162	162	9
155	156	5
153	163	11
81	82	2
62	62	6
23	23	4
33	33	5
142	145	3
26	26	4
72	72	5
90	90	4
29	29	3
105	105	4
119	120	4
135	136	1
3	3	7
30	30	5
36	124	3
123	124	1
10	10	5
85	85	3
16	17	1
101	103	2
156	157	1
150	166	12
153	153	13
144	145	2
110	111	1
174	174	3
158	162	4
12	13	5
14	14	5
56	56	9
106	117	1
95	96	4
112	112	10
131	131	8
143	143	2
53	82	2
50	50	5
160	162	2
31	32	7
177	178	4
157	162	3
80	123	2
117	157	2
111	111	8
58	83	1
1	1	11
34	34	18
101	101	1
6	11	1
139	139	3
132	132	9
134	137	1
160	161	9
63	64	2
10	14	3
22	22	5
57	80	2
66	67	3
44	44	5
146	147	3
90	122	5
177	177	2
140	158	1
130	130	1
35	35	5
52	52	6
41	42	5
36	36	3
117	117	8
134	147	1
99	109	5
52	61	3
168	169	8
107	126	10
104	105	2
106	127	1
67	67	4
174	179	1
150	163	3
84	84	4
158	159	4
138	138	9
107	108	4
1	3	1
133	138	2
123	123	5
97	98	1
53	54	4
88	122	1
87	90	1
108	108	1
28	28	4
92	92	4
75	75	8
17	17	1
164	165	2
13	13	4
154	154	4
168	168	2
93	94	1
94	94	2
135	135	2
64	64	3
79	88	1
22	23	2
59	64	3
7	11	6
5	12	5
7	7	2
0	1	3
137	138	2
74	76	3
159	159	3
59	60	3
41	43	2
124	124	7
154	158	5
61	62	2
151	151	10
29	38	3
25	30	2
141	141	6
90	94	1
143	144	3
98	101	3
132	175	2
137	137	6
156	156	2
60	61	3
18	19	1
129	130	3
39	54	2
104	104	8
57	57	5
26	28	2
101	108	2
52	53	7
135	146	1
39	39	3
62	64	1
152	152	3
86	86	5
82	82	5
106	141	1
42	43	3
15	15	4
174	177	1
150	151	3
134	166	3
78	78	8
107	107	10
89	95	1
46	80	1
66	66	2
13	14	5
116	126	3
117	118	2
171	171	4
151	152	1
150	165	3
31	31	6
24	28	3
173	174	1
132	176	1
163	167	3
62	63	2
59	84	1
19	19	2
111	112	1
83	84	2
176	177	1
67	68	2
83	85	2
115	117	1
105	128	1
64	65	1
164	164	4
106	107	1
12	12	4
60	65	1
64	88	2
97	97	2
112	114	1
43	85	3
133	134	4
19	20	4
178	179	1
4	4	1
36	37	3
43	43	2
60	124	1
99	129	1
126	128	1
170	170	6
93	112	2
142	154	1
169	169	4
158	158	4
42	42	4
115	115	2
151	166	2
34	35	1
174	175	2
24	25	1
118	162	1
6	16	2
102	102	2
150	153	1
30	31	1
34	36	2
140	155	1
20	21	2
80	81	4
15	19	2
51	63	2
128	128	9
179	180	1
32	37	1
99	100	1
65	73	4
43	44	1
173	175	1
11	11	2
7	13	2
5	6	3
30	43	3
74	74	1
80	124	1
10	16	1
146	146	5
101	102	1
136	136	2
141	155	3
50	64	3
51	51	1
104	141	2
72	77	2
115	118	1
10	53	2
156	158	2
55	57	1
175	175	1
58	58	4
99	99	2
10	55	1
106	116	1
78	79	4
166	167	1
170	171	1
5	26	2
32	33	1
6	54	1
20	20	1
64	78	2
171	172	2
172	172	1
121	123	1
37	38	1
165	165	1
140	142	1
123	125	1
106	106	1
109	109	2
136	137	1
4	33	1
35	108	1
106	108	2
150	171	2
127	130	2
135	168	1
147	147	1
148	154	1
131	176	1
89	89	1
84	86	1
122	130	1
75	76	1
154	163	1
140	159	1
80	80	1
155	155	2
72	76	1
122	123	1
29	32	1
86	87	1
44	80	1
117	156	2
99	127	1
142	142	1
176	176	1
153	154	1
177	179	1
10	11	2
93	93	1
71	71	1
138	172	1
113	119	1
24	31	1
121	121	1
