40	40	13
41	41	11
18	208	2
165	165	9
69	83	1
200	200	8
13	15	9
150	150	15
228	228	7
110	110	11
195	195	4
41	183	4
167	167	28
206	206	4
208	208	5
201	201	6
194	194	6
184	213	2
66	66	9
92	92	14
185	186	6
240	241	6
199	199	12
178	179	7
183	183	22
158	225	3
3	3	12
78	78	14
98	197	1
210	210	8
171	171	6
82	82	6
5	5	21
156	158	7
15	15	4
29	31	4
4	12	2
69	70	3
180	202	8
93	93	9
12	15	1
244	244	11
95	95	6
27	27	9
11	33	2
146	146	6
182	182	14
241	241	11
66	74	7
60	60	11
119	151	1
102	107	4
104	104	3
222	223	6
226	226	10
230	232	1
185	185	7
110	151	4
78	90	3
97	229	1
222	247	2
156	156	21
168	168	16
30	35	2
11	11	5
52	52	4
184	191	1
62	62	24
4	4	9
90	91	4
180	181	8
101	101	8
75	76	2
105	119	4
75	75	9
220	220	10
108	108	11
181	181	6
60	62	1
176	176	8
76	76	13
113	113	11
248	248	8
18	37	1
97	97	7
45	45	8
56	57	5
2	42	4
196	196	5
96	97	5
87	88	14
111	111	18
115	116	4
28	29	4
31	31	11
94	94	7
28	28	13
43	44	1
223	223	6
118	118	5
35	35	22
50	51	4
232	232	6
8	8	5
183	184	4
6	6	14
117	118	4
213	215	3
68	71	4
166	192	3
159	159	9
33	33	11
29	33	7
91	150	6
90	90	9
198	198	9
19	207	6
92	93	7
48	237	3
39	39	7
163	189	2
116	116	6
14	14	6
210	211	3
33	34	3
38	39	2
175	177	1
46	53	7
109	109	7
218	219	1
164	165	4
74	74	6
184	184	5
27	67	3
191	192	3
20	22	1
79	79	2
172	173	6
151	151	7
45	242	1
249	249	1
5	18	4
215	215	7
215	216	10
9	9	9
172	172	15
52	53	3
169	170	3
179	227	2
74	75	5
67	67	1
29	30	5
158	167	3
4	14	1
44	44	10
100	101	9
25	25	12
104	106	3
155	155	3
23	23	9
145	145	5
58	59	3
46	52	3
112	112	6
112	113	1
115	115	13
208	233	4
190	192	6
32	32	12
6	18	7
214	215	6
46	46	12
152	152	4
19	19	3
114	115	7
211	216	1
38	38	3
50	50	17
47	47	8
79	80	1
236	236	6
33	35	2
24	24	14
71	71	6
26	32	1
17	43	2
84	84	7
171	172	5
107	108	3
48	49	10
49	49	8
66	67	1
232	234	7
1	1	4
88	88	6
220	221	3
153	153	8
70	70	12
89	90	6
81	103	1
159	183	1
170	172	1
221	221	9
197	197	5
235	235	8
185	193	3
64	65	5
192	192	6
9	167	1
63	94	1
96	96	8
20	20	4
233	233	9
108	109	7
242	243	2
103	103	4
98	98	16
54	237	2
10	11	2
31	33	5
53	53	9
226	227	9
170	186	2
192	197	4
218	220	1
209	209	14
26	26	14
233	234	7
45	47	3
72	72	4
70	83	1
81	83	2
160	160	9
169	169	3
186	188	1
222	222	4
191	191	9
51	62	3
20	29	5
212	213	4
231	231	3
174	174	3
4	15	2
173	173	11
225	225	9
73	75	2
46	93	2
177	177	4
178	243	4
90	150	5
15	51	3
162	162	4
186	191	4
202	202	18
35	36	1
78	110	1
204	205	2
212	244	1
159	160	5
197	198	4
242	242	6
12	12	5
117	117	15
232	233	1
55	55	7
237	244	7
43	43	10
214	221	3
51	103	2
159	182	2
85	85	7
179	180	12
81	222	1
189	189	8
203	207	1
54	54	5
234	235	6
147	147	1
32	60	2
119	119	5
47	58	4
66	70	4
64	66	4
68	70	4
81	81	6
73	97	1
151	167	3
17	17	6
86	86	6
199	200	3
36	37	2
209	221	2
21	64	6
204	204	15
60	61	4
16	16	10
19	31	2
179	179	5
247	247	6
83	84	11
186	187	4
158	158	4
100	236	4
73	74	1
9	10	3
202	204	1
29	29	5
201	205	3
98	230	2
70	85	3
168	169	5
81	82	2
243	243	8
51	51	4
18	18	3
210	230	4
69	78	3
103	226	3
190	190	5
7	7	6
241	242	7
162	163	2
89	89	16
101	197	5
168	172	1
54	55	7
37	37	6
218	218	7
102	102	6
85	87	1
193	193	4
219	219	6
55	56	3
57	57	4
37	38	7
22	32	1
180	180	22
166	166	7
235	236	3
59	59	3
12	48	3
100	100	6
95	97	6
36	36	3
78	165	2
163	163	2
55	57	3
239	239	2
105	105	3
203	203	5
230	230	2
210	221	1
225	226	3
48	48	5
211	211	2
4	208	4
102	103	2
231	234	3
30	30	3
111	160	2
66	76	1
177	196	4
246	247	8
237	237	2
175	175	2
13	205	6
158	161	2
97	98	5
214	214	5
28	115	2
59	240	2
120	120	1
47	48	1
246	246	4
63	65	1
186	186	11
200	201	2
181	182	2
85	86	3
175	176	7
78	144	2
85	103	3
221	222	7
166	175	1
53	54	4
244	245	3
73	73	8
114	114	3
207	208	1
240	240	12
161	162	4
213	213	2
10	10	6
170	170	4
205	205	2
65	66	3
24	25	6
161	161	4
157	157	5
170	193	2
42	43	1
238	243	3
42	42	8
193	194	4
230	233	2
106	107	3
34	55	2
185	226	1
224	224	10
160	183	1
172	177	1
173	227	4
168	191	2
83	83	2
182	183	3
214	217	1
160	161	4
88	89	2
82	89	1
154	227	2
2	2	2
245	245	4
97	100	1
44	62	1
184	192	2
155	156	2
28	63	3
181	225	3
63	63	6
180	182	1
98	99	3
40	149	1
185	188	2
170	171	2
21	26	1
68	68	5
51	101	1
221	225	3
80	222	3
115	117	1
77	78	2
23	53	3
217	217	3
230	231	2
107	107	9
80	80	1
236	244	1
38	40	1
196	229	2
69	69	2
106	108	6
168	170	1
99	99	6
56	56	6
201	202	2
172	174	3
34	57	1
186	221	1
68	69	4
178	178	1
160	182	1
71	99	1
109	112	1
219	222	1
64	64	6
86	87	2
16	17	5
76	77	1
165	171	3
58	58	3
207	235	3
49	50	2
88	116	2
169	171	2
237	238	1
11	46	1
81	84	5
193	197	3
211	248	3
77	163	2
5	13	1
187	187	5
57	60	1
210	220	3
118	144	1
194	196	3
26	27	2
196	241	1
236	237	5
202	203	1
171	182	2
80	81	2
159	162	3
208	209	2
212	212	5
188	188	2
184	189	1
91	91	1
200	228	1
22	22	5
65	69	2
236	238	1
44	247	1
15	208	3
246	249	1
188	189	3
47	51	1
160	230	2
78	93	1
186	233	1
18	19	2
59	60	1
220	226	3
166	167	2
109	174	1
196	215	2
104	107	3
63	66	3
94	95	2
71	100	6
78	79	4
91	92	2
186	189	1
87	87	2
106	106	2
39	40	1
41	201	1
61	62	4
61	61	5
111	112	1
148	160	1
69	87	2
215	219	1
221	223	2
229	229	2
49	58	1
196	197	3
198	199	1
182	201	2
34	56	1
170	173	4
78	111	1
64	70	4
15	16	2
67	68	1
48	73	1
234	234	1
38	212	4
0	0	1
157	165	1
216	216	3
192	232	2
205	206	1
238	238	1
195	229	1
165	191	1
120	227	1
3	12	1
44	45	1
78	120	2
215	217	1
150	151	1
157	160	2
227	227	1
145	155	1
218	238	1
11	20	1
118	119	1
181	227	1
88	90	1
82	83	1
111	114	1
76	145	1
112	201	1
163	164	3
181	231	1
209	220	1
62	63	1
184	185	2
91	93	1
71	72	2
227	243	1
89	91	1
50	240	1
231	232	1
85	102	1
156	227	1
173	209	2
194	234	2
187	188	1
42	225	2
211	212	2
188	192	1
49	237	1
50	57	2
32	33	1
34	34	3
11	12	1
69	79	1
173	182	1
207	207	1
229	230	1
213	214	2
105	106	1
3	203	1
54	63	1
35	219	1
21	204	1
48	50	1
226	228	1
68	93	1
27	44	1
160	164	1
165	167	1
99	156	1
85	192	1
80	89	1
55	59	1
85	88	1
106	119	1
0	1	2
191	195	1
17	18	1
109	117	1
185	190	1
78	145	1
80	83	1
3	16	1
