107	107	2
100	100	5
76	77	6
50	50	2
90	92	3
89	89	3
64	64	5
75	75	5
98	99	3
55	55	4
74	74	2
20	20	10
145	145	1
92	92	3
62	62	3
28	28	10
74	75	2
80	81	6
133	134	4
73	77	3
3	38	2
50	51	2
19	19	13
69	70	1
66	68	1
16	16	1
142	143	1
51	53	3
110	111	3
67	67	1
25	26	4
131	138	2
4	5	6
125	125	2
134	142	6
26	26	1
30	30	2
37	41	2
29	32	1
67	68	2
127	129	1
54	54	4
6	6	7
18	18	5
111	111	6
18	19	3
107	108	5
123	125	1
81	82	9
57	58	3
34	34	7
27	29	4
64	112	1
100	104	4
99	103	1
67	75	2
34	47	2
56	94	4
98	98	4
137	137	3
131	131	3
24	24	3
108	108	2
94	94	5
93	93	3
73	74	2
19	48	2
63	111	2
104	110	1
76	76	2
40	41	1
15	16	3
5	5	3
41	41	1
34	36	1
140	144	2
108	131	3
91	91	2
9	9	1
0	0	1
102	102	7
8	8	2
38	39	1
22	22	4
10	10	3
81	81	2
10	11	2
37	37	2
141	141	5
96	96	2
57	57	3
33	33	3
28	30	2
55	105	1
34	35	5
71	72	13
142	142	3
33	35	4
77	77	3
87	87	5
70	70	1
137	138	2
2	2	3
33	40	4
101	102	1
47	48	2
26	50	1
42	42	3
141	142	1
49	89	1
91	92	1
9	12	1
105	105	1
80	86	2
81	93	2
21	30	1
35	35	3
101	101	4
78	78	2
19	20	2
53	53	2
123	124	1
88	89	1
97	97	1
38	38	3
122	123	1
4	15	2
103	103	4
25	25	2
95	96	1
70	71	1
115	115	2
128	128	2
20	21	2
60	60	3
59	81	1
66	70	2
41	42	2
66	66	1
54	97	3
120	120	3
121	122	1
84	93	1
50	52	2
77	78	1
61	61	1
1	17	2
17	17	1
35	36	3
109	109	3
138	138	1
145	146	3
58	80	1
126	126	1
84	84	1
16	17	1
99	100	2
31	31	1
109	110	2
123	126	2
65	66	1
51	52	1
0	43	1
66	72	2
61	62	1
124	125	2
113	113	1
56	57	2
59	59	1
52	52	2
118	119	1
123	123	1
116	117	1
58	58	1
103	108	1
133	138	1
62	63	1
99	99	1
2	3	1
112	112	1
