94	94	16
36	36	19
92	92	9
25	25	13
71	71	9
78	100	1
121	121	11
108	108	11
7	9	4
15	15	7
55	55	5
109	110	6
24	25	3
109	114	7
58	95	1
28	28	5
44	44	5
80	80	6
107	113	13
100	113	3
101	101	8
75	92	3
5	5	3
54	57	1
68	68	11
54	54	13
65	67	4
58	58	8
20	20	4
0	0	12
116	116	7
76	92	2
57	58	4
14	14	9
26	26	6
108	109	9
60	60	5
76	76	2
131	131	4
11	11	7
104	111	2
10	24	7
65	75	3
86	86	3
84	84	6
12	12	3
124	125	2
43	50	1
1	27	5
36	37	5
134	134	3
117	119	5
109	109	11
20	21	1
6	11	4
125	125	5
9	11	3
98	98	9
85	107	5
9	10	2
127	127	17
120	120	4
13	13	9
2	6	2
91	92	3
56	59	5
118	119	4
112	112	6
8	8	15
120	122	2
16	16	11
74	74	2
88	107	2
35	45	4
111	111	12
95	95	15
67	68	7
89	104	6
4	4	5
83	85	2
8	9	3
88	88	12
7	11	3
63	63	10
92	93	2
9	9	5
132	133	2
3	3	7
1	30	1
58	59	3
95	97	2
127	128	1
91	91	5
118	135	3
82	82	7
104	104	7
82	83	4
120	130	4
67	67	8
79	83	1
133	133	11
76	90	2
13	15	1
70	70	14
129	129	9
132	132	7
85	85	7
30	32	2
131	132	2
62	63	7
81	82	3
11	24	3
121	122	2
102	102	8
27	32	3
34	34	4
10	10	4
96	96	5
35	37	4
79	100	5
31	31	6
114	114	14
120	121	1
17	17	3
27	27	4
49	56	1
2	2	8
93	93	6
89	89	4
72	72	2
66	70	1
105	114	4
77	77	5
19	23	2
75	75	11
66	66	7
27	30	2
6	6	7
112	114	5
33	34	6
110	111	5
38	49	3
33	35	5
99	100	2
105	105	7
23	23	7
12	13	3
7	7	5
62	95	1
35	61	7
59	63	1
88	114	3
71	72	4
115	135	2
117	117	4
107	107	2
46	46	4
56	56	9
79	79	6
1	4	3
26	27	3
32	32	2
122	123	2
82	113	3
19	19	2
63	65	2
103	104	3
75	91	3
15	16	3
62	62	4
26	32	1
130	130	6
135	135	1
118	118	6
50	64	1
91	103	1
93	94	4
30	30	3
130	131	4
97	97	3
24	24	4
115	115	8
105	108	5
49	50	1
67	84	2
2	8	2
3	4	3
90	90	3
52	53	3
58	80	1
65	68	1
120	131	1
110	110	4
43	43	4
61	61	12
34	35	3
100	100	8
119	120	3
50	55	5
20	43	3
119	131	4
77	79	2
77	112	1
76	103	4
22	22	2
65	65	10
124	124	6
91	93	3
7	25	1
115	118	3
110	112	4
83	84	2
123	130	2
53	53	1
125	130	1
99	112	5
15	17	1
78	78	3
4	5	1
81	81	6
106	112	2
22	43	2
87	87	5
123	123	4
103	103	2
52	54	2
69	70	4
42	48	2
49	49	2
111	115	3
90	91	1
122	122	1
99	99	5
48	49	1
62	94	1
83	83	2
36	61	3
96	97	2
85	88	1
54	55	1
63	80	2
11	14	3
4	9	1
73	73	5
124	129	2
88	99	2
116	119	3
66	69	1
30	31	2
60	61	2
125	129	1
89	134	3
25	33	1
125	128	2
22	23	4
75	76	3
118	132	2
23	47	2
113	113	4
77	85	3
127	129	1
112	113	2
75	94	1
64	64	3
66	68	1
58	62	1
88	134	3
37	37	1
33	33	1
88	133	2
128	128	1
2	26	1
43	44	4
86	87	1
80	84	1
65	66	1
81	84	2
53	54	2
111	132	1
119	119	1
106	106	1
79	113	1
58	63	1
29	30	3
21	21	1
1	1	3
114	115	1
56	60	2
126	126	2
28	33	1
133	134	1
117	135	1
76	101	1
6	27	2
59	60	1
37	60	1
128	129	1
38	38	1
107	114	1
58	96	2
