18	26	1
121	125	1
144	153	1
109	109	7
1	2	2
133	133	3
78	79	4
79	79	2
134	134	6
19	19	3
31	31	7
104	105	4
139	141	1
48	48	3
99	114	8
123	123	7
119	119	7
56	66	2
141	141	4
122	123	5
17	17	17
55	55	8
75	75	1
10	10	6
112	112	4
36	36	5
116	116	4
140	140	7
124	126	7
68	69	2
38	39	1
139	140	4
77	77	6
102	108	2
128	128	6
157	157	4
73	73	2
7	8	1
50	51	2
15	17	2
70	70	3
75	82	1
20	20	2
67	67	4
8	31	5
100	100	3
139	155	2
73	84	1
70	83	2
143	143	7
33	33	4
101	101	4
65	88	2
92	117	2
37	38	2
99	99	4
120	127	3
101	104	3
151	152	1
97	112	2
107	107	4
110	111	2
4	4	5
46	57	2
158	158	2
90	90	5
119	120	2
91	131	4
43	43	5
46	49	1
126	140	1
104	121	3
121	121	7
25	25	4
93	109	1
142	143	3
81	81	3
106	121	1
134	135	1
4	5	3
12	17	1
0	0	7
95	96	3
11	12	4
85	115	4
84	99	4
116	123	2
115	124	3
98	98	2
13	13	4
147	148	3
46	47	2
138	139	3
30	31	3
32	33	4
14	14	3
142	142	3
2	9	1
96	96	9
102	102	2
146	146	15
73	133	2
82	82	10
107	114	1
24	148	2
146	147	3
74	75	2
91	91	5
36	45	2
77	94	2
156	156	4
108	112	2
150	150	4
43	44	3
73	85	2
70	71	4
88	88	2
21	86	3
25	26	1
124	124	4
49	49	9
84	84	7
39	39	8
71	71	7
103	112	3
126	147	1
134	150	1
128	140	2
135	135	2
93	94	2
111	113	4
137	137	7
7	7	5
52	52	3
28	28	5
144	147	1
64	64	1
124	125	5
139	139	5
135	136	1
9	9	3
5	6	2
87	104	1
110	110	10
109	110	5
104	106	3
125	126	5
21	21	2
54	56	2
92	107	1
113	126	2
47	47	5
136	136	2
69	71	2
81	108	1
41	41	2
49	53	2
110	126	2
25	87	2
40	41	2
131	153	1
75	90	1
42	42	1
111	111	7
16	19	3
57	57	3
126	126	6
138	140	1
127	128	3
65	65	4
19	20	2
116	129	1
125	125	7
12	13	4
97	131	2
132	132	2
107	119	4
22	22	6
68	78	3
108	111	1
22	23	2
17	25	1
1	4	1
89	89	1
46	46	6
15	22	3
106	122	2
117	129	1
154	154	5
31	32	1
75	76	2
97	98	1
25	148	1
24	28	1
18	88	2
138	155	3
9	11	4
69	69	1
10	12	4
155	155	4
150	152	2
145	145	2
129	129	4
80	80	2
30	30	2
44	44	3
92	95	3
118	129	4
95	103	3
48	53	2
46	48	1
103	123	1
87	89	4
131	131	4
104	104	3
126	128	2
25	44	1
78	78	4
144	146	4
123	126	1
36	44	1
95	112	2
26	26	3
113	113	2
130	130	12
7	9	1
131	133	5
106	107	1
135	144	1
83	112	3
1	1	3
151	151	4
8	8	4
131	132	2
29	42	1
50	50	3
3	3	3
16	18	1
94	94	2
139	154	1
82	116	2
15	31	1
75	91	1
6	6	3
98	104	2
1	155	2
127	127	4
50	73	2
122	122	5
35	35	1
42	45	1
38	38	1
75	107	2
73	86	1
50	52	1
125	130	1
92	92	4
29	40	1
20	87	4
62	67	3
136	150	2
137	154	1
17	18	2
117	117	9
72	73	3
62	62	3
8	24	1
39	53	2
2	4	2
116	117	1
85	86	1
99	100	4
118	119	2
93	101	2
9	20	1
87	100	1
81	90	2
105	116	3
24	24	3
16	16	6
73	135	1
112	115	1
84	88	3
29	32	2
18	113	1
22	24	1
137	142	2
2	14	2
115	125	1
28	29	3
152	152	3
3	4	2
41	42	1
19	29	2
106	140	1
28	42	1
8	23	1
20	113	1
118	118	2
97	97	2
75	78	2
2	148	1
87	87	3
45	46	2
26	28	1
22	150	2
82	120	1
44	45	1
65	68	1
3	152	1
133	134	1
145	156	1
114	114	1
8	9	2
76	79	2
114	127	1
28	37	1
118	133	1
2	2	1
10	84	1
81	82	1
11	20	1
29	29	2
81	118	1
103	103	3
123	125	1
10	13	1
20	22	1
54	57	1
5	150	1
3	17	1
41	44	1
16	22	2
88	89	1
83	83	1
139	142	1
74	74	1
10	18	1
2	7	1
147	147	2
111	115	1
40	40	2
110	124	1
144	144	2
84	89	1
87	94	2
42	43	1
38	51	1
117	131	2
45	45	2
77	78	1
37	40	2
120	121	1
145	147	2
27	27	1
49	52	1
83	117	1
37	37	1
120	120	3
131	150	1
93	93	1
25	29	1
92	93	1
4	152	2
83	84	1
87	96	1
6	13	1
23	23	1
32	38	1
128	129	2
3	33	1
18	19	1
56	56	1
42	46	2
91	142	1
111	112	1
89	95	1
4	154	2
38	41	1
26	41	1
129	130	3
153	153	1
107	108	1
27	32	1
84	120	1
134	144	1
36	40	1
99	105	1
95	95	1
54	70	1
99	115	1
148	148	1
114	116	1
145	157	1
42	53	1
112	120	1
114	126	1
