142	144	3
102	103	2
98	98	13
110	110	6
69	69	17
22	22	9
43	43	7
37	37	11
100	101	4
29	30	7
0	7	1
113	114	9
141	141	12
24	25	8
51	51	8
136	136	9
138	146	2
46	50	1
66	68	2
52	52	6
99	100	4
51	52	4
79	79	3
9	9	8
13	13	12
46	55	5
151	151	11
71	71	2
7	7	10
129	129	12
25	25	8
119	119	4
88	105	5
46	46	15
10	10	17
56	57	3
68	68	9
23	26	4
92	103	4
39	39	6
94	94	9
21	22	3
12	12	8
153	153	12
84	84	3
19	54	6
112	112	22
95	95	4
44	44	11
9	10	4
93	123	4
137	138	2
138	138	5
50	50	5
26	26	1
70	70	15
35	35	12
92	92	15
43	44	2
17	22	2
111	111	9
38	42	2
55	55	14
149	149	12
42	42	3
0	23	2
17	20	5
11	11	15
129	131	4
51	69	1
3	16	3
117	117	12
118	118	2
14	14	3
39	40	2
31	35	1
81	81	1
104	104	10
124	140	4
115	115	13
93	110	1
87	87	23
18	18	18
20	21	9
134	138	2
79	81	1
41	41	24
38	38	11
81	92	3
101	101	17
132	133	17
75	75	4
73	75	2
147	148	7
31	127	1
23	23	7
26	45	1
86	86	14
131	134	5
21	21	14
36	55	3
8	8	10
115	121	2
105	117	5
113	113	4
73	73	8
87	89	7
32	32	12
137	137	20
63	157	2
102	104	3
108	108	16
33	34	9
47	47	6
134	134	9
53	55	3
110	126	2
147	147	21
145	145	4
124	124	11
54	54	2
88	88	6
22	35	6
34	34	9
104	123	3
127	127	11
78	80	3
155	156	3
33	33	15
57	57	1
28	28	12
36	40	3
150	155	3
157	158	5
54	55	4
121	121	6
123	124	5
110	111	3
114	114	11
128	130	1
33	42	4
40	40	7
4	4	11
32	127	4
67	67	7
105	118	4
83	84	1
78	78	7
94	95	1
27	43	2
132	134	1
158	158	13
140	143	6
35	36	4
100	100	7
49	49	8
77	81	3
23	35	1
126	126	6
37	39	2
77	77	2
46	47	6
125	125	12
29	29	16
79	90	5
148	148	6
143	143	7
153	154	1
18	22	2
116	116	10
135	135	4
6	6	6
142	142	9
23	24	4
127	144	7
141	143	3
103	105	4
154	154	5
2	28	1
87	129	1
122	122	4
133	133	13
20	20	4
45	45	10
101	103	3
40	41	4
65	65	15
129	138	1
80	80	12
11	12	6
12	13	5
65	66	4
94	97	2
89	90	3
66	66	2
96	96	15
125	126	12
6	13	2
126	127	1
120	120	7
89	89	10
90	108	1
105	113	5
94	125	1
88	104	1
110	120	1
133	156	2
157	157	11
27	27	10
18	24	5
124	125	1
63	64	3
105	108	2
136	137	2
82	82	7
158	159	2
152	155	4
84	85	9
123	123	3
121	123	2
19	19	2
155	155	7
146	146	6
83	91	2
106	106	14
86	141	4
68	69	6
3	33	1
51	71	2
92	96	4
112	124	2
54	56	2
2	12	1
24	24	10
36	36	8
140	140	10
19	28	1
85	85	16
85	86	7
35	53	1
0	0	1
49	70	4
39	43	2
102	102	6
29	36	3
91	96	2
1	12	1
135	136	7
106	121	5
55	56	2
107	107	3
144	144	7
103	103	2
48	48	14
131	131	6
141	154	2
9	17	2
49	64	5
19	23	6
91	91	6
151	153	2
12	18	1
77	107	1
156	156	10
104	110	1
109	112	3
2	2	5
5	7	4
30	128	1
96	98	3
25	26	3
17	17	3
146	147	3
91	110	1
90	90	15
116	121	1
70	85	2
156	158	4
17	19	2
3	4	3
49	52	3
92	93	4
93	96	1
132	132	3
70	71	6
26	36	1
124	126	2
99	108	1
41	45	1
97	102	2
119	131	1
128	136	3
152	152	8
30	31	2
101	110	1
31	31	13
15	15	4
36	37	2
41	43	5
144	146	2
50	55	2
53	54	1
46	48	1
67	68	5
150	150	7
34	55	3
65	85	2
14	23	2
85	129	1
93	93	4
82	83	2
135	144	2
33	36	1
148	151	4
34	37	3
90	91	2
119	120	3
130	130	5
144	147	3
78	120	1
79	80	1
72	72	1
9	12	2
38	39	4
37	44	1
32	33	2
105	106	1
128	128	2
56	56	2
82	98	2
145	146	2
136	144	3
130	131	10
8	9	1
97	97	9
148	149	4
30	65	4
129	130	2
117	119	1
13	14	2
5	5	6
101	115	2
122	128	4
30	30	7
137	147	2
111	126	1
42	49	3
66	73	1
16	42	1
109	109	5
93	98	1
91	92	3
96	108	2
35	54	1
134	137	5
86	98	2
64	64	1
142	156	5
65	75	1
30	35	3
68	71	1
20	31	6
38	40	3
76	77	1
154	156	1
1	6	1
22	23	6
109	110	2
8	23	1
35	123	3
104	126	1
5	18	1
110	122	3
17	26	3
53	56	1
41	50	1
31	33	3
140	144	1
139	139	3
76	76	1
117	121	4
120	122	1
22	54	4
95	107	5
36	77	3
136	139	1
1	37	1
3	25	3
18	20	4
89	142	2
41	42	2
138	148	3
103	104	1
54	71	2
119	127	2
43	45	1
149	154	1
28	30	3
13	18	1
50	51	4
130	141	1
82	89	4
27	49	4
117	118	1
1	23	1
116	123	2
81	82	1
64	65	2
29	32	2
82	86	1
3	56	1
70	72	3
145	154	2
111	113	1
1	5	1
38	41	4
115	120	4
47	49	4
154	155	1
145	152	3
88	99	1
0	1	2
85	107	1
36	123	1
30	127	1
140	141	3
101	105	1
111	140	1
77	78	2
104	117	1
7	14	2
82	100	2
26	39	1
71	77	1
142	143	1
16	16	2
116	132	2
114	115	1
99	99	1
66	77	1
116	122	3
20	152	3
125	140	1
93	112	2
81	91	1
98	122	2
37	38	4
25	48	1
101	106	1
48	50	1
118	119	2
122	123	1
26	67	2
89	91	1
62	62	2
88	100	1
94	144	1
29	31	1
37	53	2
135	153	1
35	37	1
84	86	1
26	41	2
39	49	3
86	91	3
5	25	1
119	121	3
107	108	3
92	143	1
46	70	1
77	90	1
90	141	1
18	23	2
67	71	1
138	139	3
19	41	1
121	122	2
104	109	1
97	112	3
107	114	1
3	7	2
42	43	2
16	44	1
145	157	1
88	89	1
39	45	1
80	81	1
1	24	2
26	27	1
47	48	3
96	122	1
69	70	1
64	67	1
5	28	1
97	122	1
81	89	1
135	138	1
86	94	1
25	47	1
122	131	2
57	73	1
111	135	1
40	53	1
20	32	1
44	57	1
132	149	1
53	57	3
135	148	1
97	103	1
45	50	1
111	127	1
139	144	1
108	110	1
68	70	2
4	64	1
3	3	1
20	22	1
151	157	1
