75	76	4
27	27	6
62	109	4
207	208	2
161	168	2
29	29	5
46	46	7
240	244	1
65	95	1
182	182	2
216	220	2
79	80	3
12	12	12
104	104	3
117	117	5
101	101	2
204	204	13
111	112	6
80	81	2
26	26	5
6	6	3
54	179	2
97	97	7
233	233	7
116	117	4
221	221	2
88	88	5
146	188	1
68	68	10
242	242	6
95	95	8
219	219	4
49	49	8
23	156	4
92	92	12
118	211	5
71	71	6
115	115	3
222	222	4
112	112	18
160	160	6
219	248	1
230	230	6
42	204	4
69	219	8
97	118	1
100	100	12
236	236	6
241	242	7
238	239	2
224	245	4
240	240	2
106	106	6
42	44	3
112	113	2
105	105	2
235	235	4
64	64	12
238	238	2
234	234	6
55	55	1
9	10	2
229	229	6
38	38	1
85	242	2
75	78	2
155	155	9
215	215	1
8	8	8
75	75	2
218	218	3
17	17	6
91	91	5
230	246	2
5	48	3
85	85	6
212	213	7
46	51	3
184	184	4
186	189	5
172	172	2
10	15	1
172	174	2
65	65	7
86	92	4
102	111	3
1	215	2
92	94	2
111	111	9
246	246	5
86	86	5
168	168	1
92	177	2
44	52	1
45	45	3
118	118	2
149	149	5
234	235	3
244	244	4
58	59	2
66	66	10
59	59	4
156	156	7
77	113	4
31	41	4
201	201	11
227	227	9
214	214	9
145	225	2
61	61	8
94	94	2
66	74	4
248	248	3
52	53	2
51	51	8
247	247	8
237	237	2
84	84	2
97	98	5
200	200	1
63	85	3
174	174	3
167	167	10
223	223	8
36	36	6
217	217	4
87	87	7
186	186	4
220	220	3
217	236	1
173	178	3
14	14	7
53	63	4
161	161	5
25	180	2
216	216	2
75	113	1
27	28	2
163	164	4
192	193	2
27	29	2
58	58	6
39	213	4
241	241	4
13	14	2
78	78	10
166	166	6
46	54	2
87	88	1
44	44	1
23	23	5
119	119	5
71	74	3
114	114	4
211	211	4
231	231	7
218	236	2
83	83	4
113	114	3
31	31	2
151	151	2
245	245	2
159	160	3
245	246	1
29	224	2
67	68	5
80	83	2
156	157	3
81	83	6
171	171	3
198	198	3
236	237	6
40	42	1
212	212	5
183	184	1
195	196	4
5	5	2
105	107	3
96	97	2
162	162	2
103	103	4
52	52	8
70	70	2
69	69	9
96	96	6
170	178	3
69	70	5
109	115	2
111	113	4
34	37	1
82	82	5
89	89	2
48	48	4
178	178	3
170	183	3
24	24	3
34	34	6
215	217	6
216	218	3
34	238	1
71	72	1
11	42	4
79	79	9
11	226	4
15	33	2
67	67	1
207	207	1
159	194	5
90	90	5
235	236	2
77	77	6
150	151	1
51	211	4
10	10	2
4	5	3
152	152	5
166	167	2
82	220	2
32	32	5
213	213	2
96	99	3
28	28	2
33	33	1
19	19	3
15	15	1
110	110	2
100	102	1
90	188	2
150	150	6
54	55	3
97	99	7
50	50	9
4	48	2
79	93	3
18	18	5
0	0	1
28	29	3
55	113	1
218	219	3
88	180	2
61	239	1
98	98	1
46	71	1
102	102	1
203	204	3
95	99	1
54	212	1
238	240	3
186	192	2
170	172	2
21	21	1
118	120	2
194	232	2
1	1	3
42	43	4
95	98	1
235	240	2
66	70	2
213	239	2
43	43	6
242	243	4
40	40	6
67	102	3
41	41	4
7	32	1
226	227	1
83	84	2
96	98	1
216	217	3
88	97	4
205	205	5
20	20	5
2	45	1
203	203	1
223	224	2
181	182	3
81	81	4
192	192	4
165	167	3
217	218	2
103	105	3
80	80	2
173	173	2
52	82	1
47	222	2
95	144	1
187	189	2
72	72	1
179	179	4
220	221	1
48	49	4
196	196	4
61	175	1
153	153	4
96	153	2
190	192	3
151	153	1
113	113	3
62	62	1
232	232	1
9	9	4
65	94	1
59	147	1
156	167	2
53	78	2
10	33	1
95	178	3
145	145	1
100	101	1
206	206	3
220	225	1
228	228	3
170	170	1
154	154	2
170	171	1
22	22	1
233	234	1
225	227	3
54	54	2
112	114	3
117	118	1
180	182	1
90	247	2
228	229	2
95	96	1
23	162	1
240	242	1
66	67	3
243	244	1
78	79	2
71	238	1
157	158	1
175	175	2
51	206	2
66	68	4
179	180	2
192	195	1
198	199	1
176	177	3
4	64	1
107	107	2
45	46	1
80	102	3
202	202	1
116	224	1
73	74	1
158	158	1
147	147	1
23	183	1
165	166	1
224	224	1
4	4	1
185	185	1
158	173	2
146	170	3
173	174	3
42	42	1
16	16	2
176	176	2
225	225	2
203	205	2
45	47	1
44	53	1
180	180	2
205	206	1
78	112	1
243	243	2
6	33	2
174	175	1
68	70	1
26	27	1
67	101	1
114	213	1
2	2	1
68	69	1
