37	38	7
40	43	2
171	171	15
115	115	25
155	170	13
157	157	7
122	122	23
165	166	2
55	58	5
10	10	27
91	91	6
135	171	6
31	31	31
68	68	17
153	154	13
126	126	9
164	165	3
79	80	7
154	154	8
94	95	5
33	33	11
56	58	3
66	66	17
126	127	5
54	125	4
99	99	9
113	114	5
179	179	19
151	151	8
155	159	1
44	44	5
172	174	5
73	73	4
62	62	9
89	89	14
116	116	16
65	65	14
87	87	24
120	120	8
88	88	14
88	131	13
34	34	14
161	163	2
117	117	7
114	114	8
173	174	4
118	118	14
59	64	1
83	90	4
35	152	4
52	52	5
106	106	12
50	51	8
18	38	5
61	61	6
133	149	3
16	142	3
149	150	8
24	25	8
30	30	9
54	55	8
27	28	3
151	152	2
9	42	8
78	78	11
110	112	1
145	145	7
149	149	18
37	58	2
22	36	10
137	165	3
0	0	21
83	109	3
124	125	10
100	120	4
2	2	14
131	154	5
6	6	2
84	104	1
55	55	6
116	117	18
62	98	3
3	4	9
106	107	9
67	68	5
102	108	6
81	81	16
38	39	3
79	79	24
85	89	4
16	16	2
137	166	2
93	93	18
10	106	4
74	82	3
113	113	16
36	36	25
59	75	3
112	112	23
159	171	5
136	136	10
155	156	6
146	153	1
13	19	1
179	180	2
8	8	5
96	96	11
133	150	3
17	17	8
145	146	4
60	60	4
70	72	3
80	81	12
142	143	10
121	121	6
168	169	3
66	67	3
123	123	7
159	160	2
23	23	8
166	167	3
102	135	3
40	46	1
28	28	11
176	176	17
54	54	3
130	130	18
170	170	1
60	61	1
19	19	5
111	111	15
168	168	24
107	107	8
20	20	8
110	110	3
164	167	3
39	41	2
178	178	11
98	99	7
172	172	8
150	150	16
132	133	6
112	113	3
75	75	15
5	5	5
42	42	6
97	163	3
95	95	13
12	23	3
15	142	8
167	167	3
146	146	17
14	14	10
160	161	4
26	26	7
131	131	6
17	25	4
90	90	14
162	163	1
169	169	6
77	77	12
25	25	5
136	169	17
65	66	7
154	156	2
110	113	2
149	168	2
36	37	6
173	175	6
128	128	13
157	167	3
76	77	9
16	17	5
27	31	3
81	86	2
138	138	7
26	27	7
90	120	1
87	98	7
171	174	2
137	168	1
141	141	17
35	36	7
92	93	4
15	15	10
109	126	4
89	94	3
32	33	2
64	64	8
138	139	4
72	72	8
27	27	4
161	168	4
53	55	3
9	10	4
58	58	5
68	141	2
86	86	3
152	152	13
141	157	3
1	4	1
14	140	4
137	137	7
30	31	6
84	111	5
12	12	6
13	141	2
53	53	9
79	146	2
149	172	6
13	13	8
59	60	3
74	74	5
61	62	6
105	105	7
140	140	17
71	71	13
174	176	2
9	9	5
76	76	11
3	3	5
144	144	6
49	50	8
129	130	1
38	45	4
119	119	35
39	39	4
89	100	2
137	138	6
158	159	5
129	129	6
177	178	4
82	84	2
158	158	5
64	65	1
57	57	8
96	97	8
50	61	2
77	78	7
124	124	17
131	132	5
29	29	1
52	54	3
155	168	1
121	122	4
16	25	1
53	61	1
63	63	21
159	159	9
11	11	10
51	51	2
151	168	4
81	84	5
162	162	3
143	145	3
85	85	4
81	179	2
17	38	6
164	164	4
52	53	2
72	74	1
1	1	6
94	94	8
103	103	5
163	163	9
153	153	3
142	142	10
41	41	7
31	89	4
14	142	2
132	132	7
165	165	8
52	60	1
4	4	4
152	153	3
147	147	6
52	61	5
87	154	3
163	165	5
153	157	3
125	125	9
6	139	2
172	178	8
7	7	7
71	114	3
143	146	8
20	46	5
169	171	10
6	140	1
56	56	8
134	155	2
135	170	2
150	152	2
103	105	6
121	124	1
134	134	19
100	100	1
71	112	2
19	20	4
133	134	6
134	150	1
130	153	1
16	67	2
12	13	3
123	124	7
108	108	4
88	130	4
22	24	3
93	94	1
35	73	1
35	35	2
98	98	7
74	76	1
156	168	3
41	42	8
133	133	4
41	43	2
86	147	4
58	63	4
53	54	6
50	80	2
139	140	4
32	32	8
146	148	1
92	94	4
67	67	6
77	79	4
39	43	1
148	148	4
81	85	1
18	44	1
17	19	1
9	12	3
174	175	6
38	44	6
175	176	3
97	98	3
80	80	9
56	127	2
92	97	3
161	161	4
174	174	4
21	22	1
95	176	2
1	104	1
96	161	4
21	21	5
169	170	6
22	22	2
97	97	1
71	90	2
89	90	3
90	91	3
78	79	9
23	25	5
164	166	3
154	160	1
126	129	4
7	9	3
59	59	2
90	130	1
25	26	2
56	57	3
15	18	2
95	175	1
140	148	3
49	51	1
102	102	13
133	172	3
141	148	4
121	128	2
102	103	2
156	156	3
143	143	4
110	111	1
15	16	2
34	74	2
132	154	3
10	11	1
82	88	1
12	67	1
68	70	1
8	50	4
161	162	7
60	62	3
131	153	4
57	73	1
62	97	5
101	101	6
105	107	2
96	98	2
66	141	1
166	166	4
112	114	4
81	83	4
77	91	1
176	178	2
104	104	3
91	92	3
17	18	2
154	157	1
174	177	2
41	67	1
37	37	11
72	73	2
34	35	6
163	167	2
95	96	4
141	154	2
107	171	2
16	41	1
139	169	1
117	119	4
4	8	4
0	1	1
55	74	1
180	180	3
75	76	9
5	8	1
128	129	1
175	175	2
50	50	1
71	115	3
165	167	1
16	141	2
155	172	4
97	135	4
119	120	4
5	52	3
13	14	7
159	170	3
53	62	1
16	19	2
74	85	3
105	106	2
173	177	2
141	147	2
7	8	1
155	169	1
1	2	1
66	68	1
50	81	2
49	64	1
109	109	10
160	160	4
20	21	2
22	23	2
139	139	5
6	7	3
55	57	2
14	15	3
72	112	1
12	20	1
74	83	1
75	83	1
74	107	1
167	168	2
178	179	4
120	128	2
88	89	3
156	165	1
135	167	1
36	72	2
137	167	1
118	119	2
77	96	1
167	169	1
32	118	1
157	158	2
10	68	3
94	97	3
115	119	1
135	162	1
144	145	4
146	152	1
88	90	1
9	103	1
91	115	1
140	141	1
45	65	1
16	18	1
24	24	4
166	169	2
11	22	3
21	36	1
84	85	1
55	63	2
99	111	2
5	50	2
172	173	1
80	104	1
92	92	2
127	127	5
71	72	3
2	3	2
2	8	1
63	64	1
171	172	2
8	9	1
55	56	1
11	23	1
56	126	1
83	108	3
68	145	1
12	142	1
134	167	1
90	93	1
18	36	4
74	75	1
38	68	2
57	59	1
39	44	2
130	131	1
22	43	1
135	156	3
24	30	1
18	19	1
19	38	2
14	141	1
6	8	1
99	100	2
0	80	1
134	175	1
42	43	2
55	109	3
1	3	1
90	95	1
131	143	1
75	77	1
110	128	2
156	164	2
35	37	1
60	75	1
70	70	1
144	153	2
82	82	1
33	35	1
1	79	1
147	150	1
38	38	1
53	63	1
131	152	1
131	159	2
68	137	1
127	128	1
134	138	1
59	63	1
43	43	1
54	123	1
10	172	1
