87	88	2
84	84	13
60	60	7
46	46	14
15	33	4
43	107	1
66	109	1
124	124	8
125	131	9
127	127	12
98	98	9
23	23	16
76	76	17
75	76	4
110	110	28
39	40	8
18	19	5
111	112	3
111	111	14
64	64	7
99	104	1
56	56	11
10	12	5
47	47	13
40	55	5
6	6	7
101	101	18
83	94	5
99	99	15
81	81	8
88	88	18
126	126	11
100	100	20
18	22	2
131	132	4
94	94	12
15	15	18
29	29	14
93	93	7
31	32	5
1	2	6
3	4	2
86	86	9
6	9	3
54	76	5
9	13	8
96	96	15
78	78	10
102	103	5
117	117	26
128	128	12
108	109	6
17	31	3
102	102	18
55	55	13
106	106	13
4	4	15
77	77	5
119	119	10
49	65	3
92	100	5
73	73	16
33	33	12
95	101	4
98	103	4
95	96	2
11	11	9
74	74	13
115	115	22
46	57	2
9	9	11
41	101	3
30	30	20
62	62	6
45	45	15
52	53	7
109	109	15
10	10	20
49	49	9
0	1	1
22	23	4
14	14	9
72	72	8
68	73	3
72	73	3
63	65	5
44	45	7
116	117	4
14	15	2
82	105	2
60	108	1
131	131	14
113	113	7
57	57	10
5	5	10
53	112	1
50	57	3
133	133	9
94	99	2
58	58	4
83	83	13
67	68	2
7	7	15
19	32	3
55	99	7
61	61	10
42	59	1
25	25	5
116	116	17
69	69	3
43	47	6
33	34	5
127	130	7
52	52	14
96	129	1
49	108	1
28	28	17
78	118	2
7	9	4
1	1	8
10	11	3
66	66	9
106	108	2
97	98	6
85	85	12
42	88	4
42	43	2
107	107	13
87	87	10
83	85	4
43	43	5
20	20	11
51	51	10
121	122	1
129	130	2
66	72	2
45	71	5
13	55	1
104	105	2
115	116	7
41	108	1
119	120	3
125	125	7
95	105	1
4	6	1
103	103	9
41	41	4
75	75	6
118	118	14
55	75	2
86	87	5
8	16	2
104	104	12
18	120	2
79	79	12
4	7	3
114	114	9
104	127	1
95	129	3
90	91	3
50	51	5
91	91	9
42	76	1
94	105	2
67	118	5
82	82	12
123	123	10
29	30	5
26	27	9
43	54	2
67	67	6
83	84	5
50	50	18
81	84	1
44	47	1
19	19	5
59	59	11
100	101	4
24	24	6
72	119	4
95	95	15
71	120	3
80	80	11
105	105	18
78	113	2
53	53	19
120	121	7
124	132	3
94	95	3
74	88	2
18	18	16
92	92	16
39	39	8
37	38	5
3	3	11
26	26	8
60	61	7
23	24	8
62	84	1
28	29	4
16	20	4
27	27	4
90	90	8
80	92	5
13	13	9
40	60	4
119	131	7
123	124	2
70	70	4
31	31	7
48	112	5
69	119	1
68	68	10
130	130	2
42	42	16
85	90	5
112	120	2
41	44	2
33	111	1
46	47	4
57	58	3
50	53	2
108	108	8
54	102	1
103	110	2
121	121	8
54	54	7
98	104	4
62	131	4
99	130	4
47	61	1
48	48	4
85	88	3
40	79	1
113	125	1
12	12	14
32	110	3
22	28	3
40	40	13
4	18	1
128	130	1
63	63	9
94	107	1
80	81	7
2	31	2
43	46	2
5	55	4
32	32	4
125	126	4
56	131	2
85	86	5
50	54	2
56	108	1
0	0	1
17	17	6
33	102	1
14	71	2
26	28	3
59	61	1
122	123	3
21	22	1
69	111	2
100	103	1
47	103	2
5	34	3
85	92	2
4	58	2
122	122	9
25	26	3
4	20	2
18	20	1
128	129	2
2	2	8
21	21	8
3	26	1
126	130	1
14	77	5
54	108	1
69	96	2
71	71	5
34	34	3
89	89	10
47	108	2
38	39	6
77	118	2
47	55	1
15	86	1
113	124	3
6	15	1
77	115	2
80	106	3
62	87	1
81	105	2
45	79	1
52	94	1
3	16	1
65	65	5
15	16	5
19	20	6
7	8	3
19	31	1
126	127	5
65	72	1
22	22	6
127	128	5
125	127	3
8	8	5
113	115	1
2	3	3
70	71	4
44	44	8
40	78	1
96	98	2
88	92	2
92	101	4
18	31	1
94	132	1
3	6	3
97	97	5
79	80	5
41	42	1
30	31	3
126	128	3
77	79	3
26	58	2
47	107	1
109	111	2
97	119	5
38	38	7
60	109	3
63	110	2
97	131	1
110	111	3
52	54	5
120	120	5
98	99	4
40	103	1
46	69	2
48	54	1
6	50	2
53	54	4
14	70	3
102	104	2
63	68	3
46	53	1
16	16	9
126	131	1
67	69	1
46	61	3
127	129	4
9	10	1
24	25	4
125	128	1
45	63	2
65	67	2
14	91	1
40	42	1
3	19	1
92	93	4
13	14	1
49	54	1
132	132	4
41	107	1
79	87	1
106	107	8
107	108	2
48	83	1
96	97	1
53	94	2
33	101	1
114	115	2
112	112	6
56	103	1
44	62	1
40	94	1
124	125	1
38	61	1
93	94	5
120	123	1
65	66	2
20	21	1
27	30	4
56	89	1
74	126	2
48	79	1
41	99	1
93	95	1
57	101	1
68	69	1
80	114	3
80	89	1
117	118	2
70	75	2
43	56	2
61	62	4
101	110	2
44	82	2
59	75	2
87	95	1
112	113	2
52	61	2
53	56	1
29	31	2
63	71	1
130	131	3
50	106	1
16	32	1
98	126	1
5	11	1
69	70	1
120	130	1
116	119	1
58	104	1
73	126	1
76	77	2
105	106	2
55	56	1
64	67	1
52	57	1
120	125	1
74	96	1
101	102	2
27	29	2
84	87	1
17	23	3
83	90	1
84	93	3
54	90	2
46	52	1
66	67	1
27	28	1
33	96	1
39	84	1
50	65	1
42	89	1
97	125	1
126	129	1
118	122	1
93	102	1
56	66	1
103	125	1
73	130	2
108	110	2
61	108	1
8	9	1
42	77	1
43	76	1
60	75	1
102	108	1
0	2	1
129	129	1
2	45	1
63	64	1
50	80	1
46	107	1
86	90	1
103	104	1
23	25	1
93	101	1
103	120	1
