36	36	5
122	126	1
36	37	9
8	24	3
116	116	8
21	23	2
30	31	4
105	105	3
23	41	3
28	29	1
144	145	2
68	69	5
73	73	5
34	35	1
98	98	7
47	47	3
136	137	2
45	52	3
66	67	4
19	19	4
110	110	3
9	9	3
121	121	5
119	119	3
95	95	1
17	17	3
15	15	4
95	96	2
126	126	3
72	72	4
29	29	4
129	129	8
137	137	3
5	5	3
71	130	1
41	41	1
63	63	6
53	54	1
64	64	1
103	103	4
11	11	5
42	57	1
44	56	4
48	48	3
14	14	7
128	128	5
27	27	3
4	4	3
108	108	1
94	94	2
102	102	6
93	98	1
3	32	2
13	13	5
44	44	2
74	75	2
143	143	5
95	98	4
133	133	3
7	8	2
118	143	2
107	107	1
19	21	1
150	150	3
124	124	5
41	119	2
152	153	3
78	79	3
40	51	3
32	32	3
123	123	2
125	125	8
2	3	1
151	151	2
122	123	2
85	86	4
106	106	5
142	142	1
69	128	2
132	132	1
104	104	3
31	31	6
127	128	5
14	20	1
113	113	2
74	74	1
6	6	2
12	12	3
39	39	4
24	41	1
17	18	5
62	62	7
10	11	1
84	84	2
107	108	1
140	140	3
118	118	1
112	112	2
69	69	4
53	53	6
35	37	2
3	3	1
134	134	2
31	33	1
68	104	1
56	56	7
7	7	3
46	46	3
83	83	1
103	107	1
57	57	2
41	42	2
80	80	3
147	147	2
34	36	1
97	97	2
24	24	3
106	132	1
111	111	3
48	49	4
66	105	1
76	76	1
84	85	1
19	20	3
99	99	2
50	51	2
114	114	2
76	86	1
75	75	3
64	65	1
37	37	2
79	79	2
10	12	2
152	152	1
42	42	1
41	43	2
153	153	1
106	107	1
131	133	2
10	141	1
35	35	1
145	145	4
77	87	2
115	120	1
130	130	1
100	100	1
141	141	1
12	24	2
18	18	2
9	10	2
2	2	4
16	16	1
135	135	1
140	142	2
8	8	2
8	14	1
68	128	1
146	146	1
96	107	1
109	109	1
20	20	1
65	65	3
148	148	2
20	26	1
6	7	1
69	70	1
149	149	1
93	93	2
55	55	1
11	12	2
37	91	1
124	125	1
17	42	1
43	43	3
16	44	2
100	127	2
14	15	1
103	104	1
25	25	1
128	129	1
49	50	1
55	56	1
48	51	1
21	21	1
