96	96	3
9	9	5
19	32	1
23	23	1
68	76	2
48	48	1
11	11	7
67	67	1
43	43	3
72	86	2
79	80	3
114	114	6
21	21	7
7	7	5
45	47	1
100	100	3
10	11	3
1	1	1
14	14	5
107	107	5
73	73	4
102	103	3
43	58	3
112	112	3
113	113	3
4	15	3
35	55	1
38	38	7
126	127	4
70	80	4
123	125	2
16	32	2
128	129	8
116	116	5
131	132	2
93	93	3
103	106	5
87	87	1
112	129	8
86	86	6
114	115	4
121	123	2
59	59	10
31	32	4
76	77	1
126	126	2
88	88	5
69	69	2
81	126	1
134	134	8
79	79	2
82	82	3
57	57	3
34	34	3
86	106	2
42	42	7
118	118	8
68	68	6
20	20	1
8	8	4
86	87	6
80	108	4
108	108	7
54	55	3
122	122	2
28	31	6
12	12	1
18	32	2
42	56	7
103	113	1
17	17	4
105	110	3
40	40	2
24	90	2
113	115	1
91	92	8
85	91	1
8	9	4
0	0	4
98	134	3
95	127	2
66	122	5
85	85	1
37	62	3
70	89	3
37	39	1
23	88	1
78	78	1
68	78	1
87	88	1
25	25	3
121	122	1
83	83	6
5	5	2
80	107	1
97	98	1
17	48	2
2	2	2
61	61	5
82	83	2
17	68	2
21	32	2
34	61	2
94	94	3
65	65	2
131	133	1
18	18	1
27	27	1
6	6	1
28	30	1
40	41	2
78	106	2
78	80	1
10	12	2
91	91	3
44	44	5
105	105	1
107	108	1
92	92	2
10	10	3
24	83	1
112	128	1
27	109	2
101	102	1
35	43	1
76	78	1
70	71	2
128	128	3
121	121	1
69	74	1
102	102	1
26	26	2
132	132	2
36	36	1
32	32	3
101	101	2
30	30	2
71	71	2
16	30	1
16	16	1
120	120	4
43	44	1
78	79	2
97	97	1
22	65	1
105	106	2
79	84	2
7	41	2
32	50	1
93	94	3
35	44	1
130	132	2
83	91	1
71	79	1
22	25	2
4	4	1
72	113	2
63	64	2
39	39	3
99	99	2
26	29	2
117	118	2
2	47	1
68	70	2
40	44	1
12	13	1
9	47	2
49	50	1
75	75	2
39	41	1
80	80	1
131	131	3
15	28	3
98	100	1
84	85	1
3	48	1
24	79	1
103	103	1
119	119	1
41	41	1
23	24	1
91	127	2
4	5	1
98	98	1
77	77	1
110	111	2
48	49	1
81	91	1
81	127	1
123	123	2
8	47	1
58	58	3
66	66	1
107	109	1
125	125	1
47	47	1
63	63	2
32	49	3
108	109	1
99	100	1
81	81	1
133	134	1
102	130	1
117	117	1
129	129	1
104	106	1
37	38	1
77	79	1
76	125	1
55	55	1
79	106	1
16	21	1
50	50	1
74	78	1
37	37	1
90	90	1
78	86	1
