39	39	20
43	43	29
58	59	1
11	11	10
36	36	13
58	58	7
37	39	3
35	35	16
48	48	27
37	42	4
50	51	4
29	38	1
22	58	2
4	14	1
41	41	11
8	8	14
32	33	4
0	0	25
20	20	17
30	30	23
36	60	1
5	5	1
31	31	14
19	23	2
20	22	7
61	61	11
10	10	19
52	52	7
19	19	18
42	43	2
16	16	18
47	47	16
54	54	15
3	3	32
15	15	4
30	37	3
60	60	8
45	46	5
18	53	2
14	17	7
9	11	4
57	58	5
40	40	22
20	21	4
44	44	22
10	11	5
16	24	3
6	6	14
43	45	2
22	54	4
50	50	19
13	13	8
34	44	3
30	31	4
56	56	7
55	55	11
25	50	1
57	62	2
4	4	10
25	42	3
44	46	3
49	50	1
6	7	4
1	2	5
2	3	6
7	7	26
1	10	5
42	42	17
1	1	18
17	17	13
23	24	2
37	37	15
45	45	8
2	5	2
37	43	1
57	57	5
35	57	2
46	46	13
18	18	9
54	55	2
34	34	19
12	12	9
2	4	4
7	19	3
48	49	6
24	24	6
0	43	1
32	32	17
25	25	14
39	57	3
51	52	1
22	22	3
12	16	6
9	9	7
24	25	3
53	53	4
21	21	8
33	47	2
3	5	2
29	29	3
36	57	1
21	22	8
25	60	1
1	5	8
4	5	5
0	1	2
33	33	14
62	62	6
14	15	9
50	62	2
19	20	2
33	34	2
7	9	3
6	15	4
38	38	7
56	58	3
50	53	2
7	8	2
56	57	1
18	19	2
16	17	3
18	21	1
51	51	9
49	53	1
17	18	3
22	23	1
23	23	3
53	58	3
0	6	4
34	35	6
15	16	2
37	38	2
5	6	1
18	20	6
23	25	2
34	36	3
10	12	1
39	40	3
12	13	2
3	4	2
59	59	5
0	5	2
39	41	3
25	58	1
30	39	1
14	14	6
31	43	2
17	53	4
49	49	15
8	10	1
25	38	2
2	2	6
35	42	1
8	18	1
2	25	1
31	32	4
24	39	5
38	39	2
23	39	2
52	53	3
13	14	2
46	47	2
6	14	2
6	12	2
35	36	4
1	6	2
57	60	3
14	16	2
51	57	2
6	8	1
14	51	2
54	58	2
26	60	1
38	42	2
7	30	2
13	17	2
17	19	1
40	41	2
55	58	3
58	60	1
32	37	1
25	51	1
35	61	1
59	60	4
40	43	1
53	54	2
14	20	1
1	20	2
43	44	1
26	26	1
3	25	1
47	50	1
22	38	1
53	57	1
20	60	1
9	10	1
52	57	2
12	18	2
19	22	1
43	46	2
8	17	1
31	33	1
37	55	1
24	42	1
3	12	1
6	18	1
8	16	1
