36	37	4
55	55	1
145	147	3
89	133	3
35	69	1
66	66	7
83	83	14
16	16	9
56	57	6
47	49	1
95	95	11
67	68	3
129	129	9
41	41	7
11	17	2
128	128	10
97	97	12
47	47	13
91	141	2
83	84	2
91	91	4
108	112	1
137	137	5
130	138	3
23	23	5
132	132	12
71	71	3
0	0	3
38	38	10
64	64	3
30	30	11
142	154	1
111	111	8
87	87	4
136	136	2
142	142	8
68	68	2
131	132	3
2	2	2
2	5	2
66	67	2
123	123	10
82	82	5
6	7	2
48	48	5
75	75	12
124	124	5
86	87	2
100	100	3
39	39	8
117	117	7
81	81	13
27	42	1
37	41	4
125	125	8
46	48	1
86	86	4
9	9	3
139	139	11
108	108	7
28	28	5
41	42	8
84	86	3
149	149	5
73	73	6
113	113	3
118	143	2
42	42	5
50	50	5
5	5	3
107	107	2
107	108	5
70	71	2
103	103	5
7	7	7
26	26	4
48	49	1
37	37	1
13	14	2
82	83	6
38	39	5
119	120	5
65	65	5
33	33	2
67	67	6
6	26	4
93	94	5
108	109	2
24	24	10
19	19	7
89	89	3
131	131	4
84	84	3
99	99	4
28	30	1
62	120	2
133	133	7
145	145	2
134	135	5
21	21	2
80	80	6
25	26	3
156	156	9
115	116	4
3	157	3
150	150	3
22	22	9
17	17	4
74	74	1
148	148	2
29	30	10
76	76	6
154	156	4
110	111	2
35	35	7
77	77	1
105	105	4
112	112	6
96	97	2
145	146	2
72	73	1
12	13	6
113	115	1
88	88	7
15	15	3
130	130	3
49	49	3
120	155	3
69	69	9
45	45	4
7	28	1
78	81	3
35	68	2
140	140	7
79	80	2
138	138	6
77	151	1
125	127	1
135	135	7
18	18	2
110	110	11
7	8	4
62	62	1
54	54	4
144	145	5
122	123	1
13	13	2
131	152	2
25	25	5
93	139	1
141	142	1
101	101	3
95	96	3
155	155	6
37	49	1
10	10	3
64	157	2
29	39	2
62	63	3
130	151	2
158	158	8
94	94	4
78	78	1
151	151	3
98	98	2
52	52	3
97	158	1
137	138	2
74	123	2
129	130	4
51	93	2
0	1	2
135	148	3
153	153	8
108	113	2
85	85	2
125	126	3
120	120	3
146	147	1
53	54	1
79	89	1
136	153	1
113	120	1
93	93	2
67	71	1
1	1	2
7	35	1
155	156	1
90	91	1
116	117	3
134	134	1
10	42	1
32	52	3
126	126	1
142	148	1
139	140	2
103	105	2
49	96	2
117	144	1
12	12	3
124	126	1
17	19	2
32	32	1
73	74	1
28	29	1
127	127	2
25	27	2
3	4	5
18	39	3
65	87	1
91	92	1
51	51	3
36	36	3
115	122	2
23	24	2
4	5	2
4	33	1
65	128	3
146	149	2
111	121	4
6	6	3
146	146	2
69	70	1
92	92	2
49	55	1
35	36	1
80	81	1
106	106	1
52	96	1
38	41	1
140	142	2
15	16	1
27	27	2
57	57	1
80	89	1
14	14	1
157	158	1
146	148	1
29	29	2
109	110	1
138	141	1
0	98	2
31	38	1
3	3	1
6	44	1
87	155	1
44	45	1
157	157	2
83	91	1
87	90	1
48	86	1
64	154	1
44	44	2
153	154	1
131	139	1
40	40	1
128	129	1
16	31	1
90	90	1
40	43	1
50	51	1
130	149	2
69	76	1
126	127	1
114	115	1
121	121	1
88	89	1
62	153	1
114	114	1
