103	103	4
97	97	2
14	74	3
20	23	3
126	126	4
78	87	2
60	60	3
1	2	1
33	33	3
108	111	2
21	21	3
29	29	5
114	115	3
83	83	4
63	63	7
62	67	3
44	44	3
27	71	3
96	98	4
134	134	2
43	43	9
73	73	7
122	129	1
18	18	5
66	67	5
94	94	6
12	12	4
105	105	6
8	38	2
11	12	4
6	21	1
3	3	5
75	75	5
111	118	1
31	134	1
45	46	5
10	65	1
1	1	1
71	71	3
24	25	2
74	74	8
22	22	5
67	67	2
86	86	3
14	14	7
78	125	2
98	98	5
115	115	9
80	81	1
52	52	4
15	15	3
89	90	1
69	70	4
104	104	5
100	117	3
129	129	6
3	36	4
102	102	5
6	8	3
45	45	2
125	125	6
18	73	5
87	87	3
120	120	4
108	108	3
99	119	1
118	118	7
84	86	3
3	80	1
4	5	1
24	24	3
47	50	1
61	61	2
101	132	2
88	95	1
33	35	2
50	50	5
30	30	4
94	123	2
5	5	4
13	14	1
96	96	6
112	112	3
102	114	2
11	76	1
20	20	1
28	28	5
35	35	4
32	120	2
62	62	3
57	57	3
2	78	1
12	13	2
123	126	2
113	115	1
56	56	2
101	101	1
20	21	1
135	135	2
19	19	1
29	30	1
79	79	1
72	72	5
85	85	2
88	88	1
92	92	6
9	12	2
109	119	2
101	102	2
82	82	2
96	121	1
9	10	1
76	76	2
114	114	2
25	26	5
55	55	2
24	59	1
4	59	1
13	13	2
17	17	4
90	90	2
15	16	1
55	67	3
64	64	2
8	8	3
58	93	3
53	54	1
13	70	4
89	89	2
111	111	1
102	103	1
52	83	1
59	59	2
17	54	2
86	124	2
68	68	2
11	11	3
65	65	2
91	91	2
122	122	2
93	93	2
14	53	2
13	15	2
31	31	1
42	44	1
36	44	3
69	69	2
84	84	2
99	99	3
58	58	1
47	82	1
123	123	1
32	32	1
133	133	1
73	74	1
9	9	1
84	85	1
91	92	1
47	47	1
81	86	2
67	68	2
111	114	1
109	134	1
37	37	1
25	25	2
29	34	1
110	110	1
45	47	2
102	105	2
10	10	2
19	20	2
119	120	1
0	27	1
23	23	1
116	116	1
34	34	2
35	44	1
131	132	2
79	80	1
102	104	2
78	79	1
2	2	1
49	50	1
27	27	1
33	34	1
83	132	2
121	121	1
47	118	1
54	55	1
16	32	1
