95	98	2
58	58	4
11	11	1
46	46	1
2	2	4
130	133	2
64	65	3
57	57	3
79	84	1
108	108	10
15	15	7
102	103	1
66	70	1
115	116	2
25	25	4
48	61	2
95	95	5
85	86	6
79	79	8
107	110	2
90	100	3
56	68	3
120	120	7
113	115	2
61	61	4
90	90	6
12	12	2
67	69	2
129	130	4
132	132	2
63	63	5
56	57	4
109	109	6
50	52	1
130	130	11
79	80	1
42	44	5
128	128	7
15	25	1
78	79	2
17	18	4
114	114	5
15	16	6
89	91	2
100	106	4
66	69	4
68	78	2
127	130	5
79	85	1
14	14	5
92	103	5
4	4	4
62	105	5
42	42	3
50	55	1
1	1	9
84	85	1
53	53	1
102	102	4
44	54	5
93	94	1
120	121	7
113	125	1
122	122	6
88	88	1
72	74	3
38	65	2
61	63	3
87	87	10
124	124	4
112	113	2
55	56	6
125	130	2
89	92	4
12	20	4
115	115	2
40	42	3
50	59	1
2	3	3
88	98	5
40	40	3
68	68	1
97	108	1
119	119	4
112	124	1
67	67	2
81	82	3
53	57	1
105	119	2
121	121	3
8	8	3
121	122	4
126	130	5
17	17	2
29	29	10
33	46	5
40	49	3
102	104	4
39	41	2
87	129	3
9	29	3
81	91	6
127	127	8
78	78	1
72	72	4
0	13	1
109	116	4
80	81	2
27	27	3
125	126	2
113	113	8
30	30	2
107	109	2
51	51	6
77	79	1
123	126	1
73	73	1
92	94	2
32	32	1
69	69	2
126	126	7
106	107	4
27	29	2
28	29	4
13	13	11
54	54	6
18	18	5
81	81	3
7	7	3
76	84	3
26	29	3
5	5	10
19	20	4
86	87	1
86	104	3
93	93	1
42	46	1
112	123	3
73	75	1
56	56	6
60	60	3
62	62	2
108	112	2
95	106	1
89	96	1
118	122	3
23	24	1
17	21	1
78	120	1
26	27	1
110	110	3
76	76	1
65	76	2
6	7	4
123	124	2
1	41	2
54	55	3
117	119	2
111	111	3
18	20	1
23	23	2
31	33	5
64	64	3
112	112	3
4	14	2
11	12	1
47	58	1
124	125	2
120	122	3
10	19	3
126	129	2
96	100	2
97	101	1
65	66	4
115	117	1
104	106	1
99	99	1
82	83	3
98	98	2
68	73	2
129	129	3
116	118	1
75	76	2
44	44	3
68	80	2
116	116	2
89	90	3
119	122	1
38	91	2
52	52	2
42	43	3
104	105	3
9	9	2
41	42	3
125	125	7
83	84	2
106	108	1
85	88	1
27	30	2
88	89	2
33	128	1
43	54	1
16	16	2
105	105	2
125	132	2
64	83	1
47	48	3
131	132	2
46	55	2
3	4	2
66	67	5
41	41	6
22	24	1
97	98	2
101	101	1
109	111	2
10	14	3
0	2	1
89	103	1
64	77	1
1	45	1
98	106	1
31	32	4
109	110	1
77	77	3
43	45	3
6	6	5
97	104	4
76	79	3
75	81	3
31	52	3
27	31	1
49	50	1
88	91	3
76	115	2
105	106	1
80	84	1
50	51	2
8	9	1
100	101	4
97	114	2
33	33	1
9	19	5
2	20	2
40	90	5
94	94	2
32	34	1
68	127	2
94	98	1
21	21	5
83	83	2
43	43	3
95	96	2
33	34	4
96	96	2
48	48	5
43	48	2
48	124	1
39	91	1
33	54	2
132	133	3
51	58	1
120	125	1
92	92	1
23	31	3
119	121	1
42	54	1
65	77	1
89	100	2
1	5	2
127	128	1
103	115	1
26	26	1
70	70	1
93	95	1
58	60	2
109	112	1
49	56	1
81	93	1
106	114	1
53	54	1
77	78	2
6	9	2
87	89	1
55	104	2
60	67	1
64	75	1
32	33	2
106	111	1
94	95	1
74	74	1
113	114	1
114	116	1
57	58	2
92	105	1
79	87	1
89	93	1
117	118	2
76	77	3
19	19	3
45	45	1
94	105	2
113	126	2
13	15	1
46	47	1
63	65	2
55	55	2
107	122	2
68	79	1
67	74	2
40	91	1
94	103	1
45	46	1
113	116	1
79	88	1
95	114	2
22	23	1
93	98	2
75	75	2
55	62	2
67	86	1
60	63	3
20	20	1
114	127	1
67	70	2
10	18	1
39	47	1
83	96	1
85	85	2
89	94	1
7	11	1
80	80	1
41	49	2
51	56	2
59	68	1
86	86	1
71	71	1
90	98	1
10	10	1
4	5	1
11	16	1
49	52	1
91	91	1
117	127	1
128	129	1
34	129	1
54	65	1
0	0	1
30	32	1
