95	98	5
223	223	6
187	190	11
76	77	5
223	227	3
144	214	1
27	29	2
169	177	1
67	67	9
164	164	4
56	64	3
28	28	8
117	117	5
59	59	18
91	91	16
210	210	5
20	20	10
89	91	3
6	7	7
75	111	3
154	154	14
56	58	5
186	186	23
236	236	13
175	176	2
49	49	8
50	50	3
167	179	2
95	96	7
166	167	7
107	114	2
34	34	10
166	177	3
32	33	4
166	166	6
201	201	19
113	117	1
80	84	2
84	84	13
77	118	2
7	7	10
179	181	2
202	235	3
19	19	14
177	177	10
95	99	2
199	201	5
210	224	1
46	46	8
218	234	3
166	241	12
244	244	14
179	223	2
4	5	6
45	45	14
194	194	7
47	48	7
207	207	13
11	12	5
65	65	14
233	233	13
203	203	14
145	150	2
216	225	3
164	240	2
202	202	11
37	37	15
191	192	5
12	28	3
161	162	1
52	52	9
95	95	4
245	245	5
57	58	4
33	34	6
242	242	16
179	179	7
39	39	12
203	204	4
18	18	24
51	213	2
204	204	5
243	244	5
113	208	4
55	58	4
66	74	6
99	99	10
81	81	14
231	231	25
155	155	5
8	8	12
17	18	2
41	42	3
239	239	11
106	106	6
72	73	4
83	95	4
41	49	1
30	30	4
43	44	6
58	58	11
160	161	6
193	194	1
56	56	7
75	75	9
26	26	19
155	163	3
174	174	7
229	230	2
19	48	2
239	246	2
223	228	1
232	232	15
54	54	9
91	115	9
166	169	4
105	106	1
166	168	4
196	198	5
187	187	22
54	73	4
208	209	8
195	195	7
79	89	4
21	21	2
70	70	8
118	118	15
10	154	4
103	103	6
243	243	9
63	63	8
196	204	2
96	96	11
198	198	10
213	214	5
48	49	3
101	101	5
170	170	3
230	230	2
173	173	5
195	205	2
38	38	18
98	99	3
221	221	17
83	83	3
152	152	15
25	25	5
53	68	3
29	50	2
2	2	6
197	239	5
5	5	11
29	29	8
156	157	3
120	120	7
169	169	14
220	248	2
180	238	2
43	43	14
121	121	2
178	192	4
85	86	10
220	220	11
224	224	13
24	25	1
246	246	5
45	53	3
54	55	6
169	180	3
93	93	11
99	100	2
209	209	13
9	43	2
92	93	1
179	203	10
75	118	5
212	214	2
213	213	6
44	44	11
21	48	1
152	248	2
11	23	4
230	233	3
183	222	3
119	119	5
8	216	3
222	222	6
225	225	8
231	232	2
82	84	4
178	178	7
169	203	4
51	51	15
151	249	2
94	108	2
207	211	4
248	248	5
168	177	3
190	191	2
72	72	3
12	13	1
147	147	10
117	119	6
183	193	1
204	235	6
88	91	2
57	57	27
166	170	2
107	107	9
112	112	11
77	87	4
23	24	4
154	189	4
32	32	13
228	228	4
238	240	3
217	217	11
3	3	2
168	168	12
60	60	5
206	206	3
33	33	4
27	28	4
190	190	9
105	107	3
4	8	3
80	82	2
29	52	1
144	145	2
84	85	3
107	110	3
86	86	9
176	176	4
165	181	3
31	31	8
80	80	9
91	107	5
2	3	4
233	247	1
238	238	6
211	211	8
244	245	4
205	205	10
231	233	1
11	26	1
44	45	7
215	215	2
110	110	14
159	159	5
93	113	2
208	208	7
33	41	1
17	17	3
168	179	3
218	219	4
236	240	7
37	38	5
58	59	2
16	35	3
150	151	3
216	233	1
115	116	3
1	5	1
231	244	3
44	67	5
247	249	3
59	73	1
22	22	9
94	94	12
232	234	1
3	155	5
78	95	2
39	40	1
216	216	9
153	153	13
188	223	4
37	44	3
204	205	5
200	200	9
95	100	2
194	202	1
66	70	5
168	172	3
235	235	14
16	28	2
78	80	3
85	192	1
216	221	9
4	7	4
205	206	6
58	60	6
165	168	2
182	183	3
97	97	6
4	4	4
220	221	8
68	68	23
92	92	6
50	112	3
23	23	7
176	180	5
72	113	1
155	156	1
185	185	8
219	219	4
47	47	14
155	170	1
172	172	14
111	119	2
173	174	7
194	208	4
115	115	5
237	240	6
241	241	14
180	183	4
197	198	1
44	47	2
9	9	5
78	211	2
157	157	16
182	193	5
113	115	1
149	149	3
36	36	2
192	192	3
29	39	1
168	180	3
19	43	1
66	66	8
181	181	4
72	74	6
175	184	1
234	235	4
206	207	3
67	69	3
23	36	1
87	110	3
174	176	2
247	247	5
89	90	2
116	116	15
29	30	7
162	165	2
164	174	1
46	51	3
33	52	5
66	67	8
222	223	3
225	236	4
149	150	2
80	83	3
161	161	5
98	100	1
190	197	3
172	173	3
100	111	2
85	210	1
179	208	4
237	243	1
36	46	1
183	183	9
54	66	1
150	150	10
218	218	13
229	229	8
225	226	3
211	212	2
221	243	2
201	202	3
166	240	4
208	213	2
214	215	4
0	26	2
162	162	5
228	229	2
189	190	4
160	162	1
62	63	2
175	175	11
0	3	4
19	35	1
181	230	3
202	205	2
80	234	2
118	119	4
1	23	2
233	234	3
87	90	3
91	105	1
78	79	3
78	78	21
117	118	1
230	244	3
32	53	1
76	85	1
240	240	5
77	88	2
156	169	1
47	63	2
55	55	5
74	78	1
195	202	3
11	231	4
225	242	1
198	199	3
64	64	15
49	55	1
221	225	1
215	216	2
180	203	1
87	87	6
12	12	7
22	43	3
176	178	1
183	184	2
54	70	2
6	6	2
239	240	1
198	203	2
187	188	5
10	224	3
4	6	2
195	196	6
186	190	1
217	235	1
235	237	1
92	101	4
57	59	2
16	16	5
158	169	1
32	37	1
177	178	1
58	118	3
100	101	2
105	105	10
111	111	8
212	212	5
165	167	4
71	71	2
111	113	4
176	177	6
213	218	1
60	61	1
187	195	3
165	165	3
67	74	1
30	31	1
14	14	7
156	243	1
158	162	2
152	247	4
92	106	1
114	114	2
188	189	3
81	85	2
214	235	5
237	237	7
104	106	3
30	44	1
145	145	6
52	213	5
196	196	6
106	108	2
168	169	3
62	62	6
40	41	3
189	189	7
191	191	5
193	193	3
158	159	3
107	109	2
157	158	4
52	53	3
156	156	5
207	208	4
194	213	3
98	98	9
103	105	1
110	111	2
229	240	1
112	113	3
195	199	1
73	73	11
87	88	5
156	159	3
213	215	5
226	226	4
55	56	2
226	230	1
194	195	3
49	50	3
28	29	2
222	224	2
184	184	3
85	85	7
109	110	5
109	109	7
45	62	1
184	185	9
40	40	4
1	7	2
214	214	11
100	100	4
57	60	2
238	244	3
102	103	3
101	102	2
191	207	1
155	230	2
237	238	1
163	241	5
55	247	3
175	179	1
175	185	7
80	89	1
69	72	2
14	15	5
10	10	3
114	115	2
158	158	4
93	117	5
181	203	1
61	61	10
41	41	11
208	210	4
169	170	1
207	210	4
53	229	1
223	225	2
113	113	4
184	231	2
27	38	1
27	27	10
162	177	6
100	109	1
67	72	1
104	104	3
223	224	1
88	90	1
39	47	2
204	206	1
168	170	2
78	86	3
87	113	1
96	97	3
78	81	4
193	201	1
200	201	4
147	205	1
36	37	1
11	219	2
116	117	2
48	48	3
227	229	1
50	83	2
211	214	1
206	232	2
171	171	2
15	15	9
76	78	3
93	111	3
167	246	2
32	41	1
172	175	3
20	21	4
6	9	2
24	24	5
158	165	2
76	76	4
107	108	2
106	113	2
182	219	1
35	35	2
180	230	1
157	161	1
60	73	1
113	212	1
163	166	2
11	11	5
151	151	6
181	201	1
64	68	1
58	74	1
146	147	3
74	77	1
158	160	1
111	112	1
159	161	3
187	222	1
73	80	1
177	185	1
163	178	1
115	117	1
215	240	2
109	114	2
38	41	1
90	90	9
31	53	2
70	72	3
42	44	4
170	171	2
246	247	1
204	234	2
71	86	1
91	92	2
180	181	1
213	216	1
209	219	1
25	26	2
19	22	1
50	58	2
34	35	1
163	165	1
3	7	1
201	204	1
92	114	1
51	52	1
153	155	1
32	44	1
160	160	3
162	166	2
74	230	2
187	204	1
165	166	4
81	82	1
166	176	3
3	14	1
207	216	1
102	102	4
37	45	2
113	119	1
3	16	1
27	48	1
230	231	1
168	171	3
13	13	1
97	98	4
169	173	2
232	233	2
0	0	2
231	248	1
90	92	1
17	234	1
162	163	1
188	188	7
101	116	2
198	200	1
49	111	1
52	70	1
15	30	2
108	109	3
182	182	2
23	46	1
47	49	3
26	27	2
237	244	1
97	110	1
205	224	2
78	149	1
167	182	1
173	175	2
12	243	1
222	232	1
19	21	2
167	167	3
174	178	2
110	115	2
89	115	1
32	40	1
66	73	3
210	211	2
199	200	1
88	88	1
69	69	2
56	57	1
152	154	2
14	27	1
28	69	1
65	94	2
232	245	1
42	42	3
40	51	3
156	158	1
229	247	1
229	231	1
9	10	2
199	199	2
29	31	1
104	105	1
191	194	1
114	116	1
146	153	1
83	105	2
174	187	1
108	108	3
55	57	1
82	86	1
33	234	1
218	221	1
74	74	2
236	243	1
45	47	1
78	84	1
186	228	1
152	153	1
228	243	1
191	211	1
180	239	1
42	92	1
35	36	1
1	2	1
99	111	1
188	197	1
227	227	1
77	90	1
6	10	1
120	148	2
170	178	1
165	170	1
7	8	2
199	207	1
53	74	1
50	59	2
180	227	3
73	74	1
106	107	1
2	10	1
227	235	1
234	248	2
46	76	2
62	64	1
51	61	1
168	188	1
167	236	1
27	40	1
74	87	1
21	35	1
23	34	1
40	234	1
79	79	1
211	217	1
202	218	1
202	229	1
186	187	2
74	75	1
12	21	1
50	61	1
64	65	1
12	18	1
152	229	1
83	86	1
15	16	1
215	218	1
227	236	1
220	230	1
28	38	1
153	231	1
1	1	1
65	66	1
20	48	1
161	163	1
202	203	1
219	225	1
89	89	1
53	53	1
63	79	1
92	105	1
78	89	1
185	186	2
201	203	2
146	146	1
12	182	1
27	33	1
