5	5	5
121	124	4
110	117	2
3	11	2
120	120	10
120	123	5
35	35	8
118	118	6
96	98	4
106	107	3
74	88	4
101	101	11
129	130	3
100	101	3
112	112	7
86	110	3
129	131	5
125	132	2
100	116	3
100	100	4
97	102	3
77	91	3
125	127	8
4	4	6
73	76	2
83	87	2
98	114	9
9	9	3
10	22	8
6	6	4
81	86	5
84	107	2
96	109	9
16	21	1
107	107	16
116	119	3
37	37	4
103	103	5
82	82	8
101	105	2
128	133	2
7	8	6
120	121	7
35	37	2
111	128	2
27	29	1
10	28	2
16	16	5
75	75	10
121	122	10
17	31	2
92	94	8
77	80	3
11	11	6
69	69	2
20	20	8
134	134	5
19	28	3
79	79	4
91	94	5
95	117	1
113	114	2
3	10	2
76	79	3
96	97	2
1	15	3
21	21	2
19	25	1
76	76	7
129	132	3
119	119	5
87	87	7
108	121	4
133	133	5
14	15	1
113	113	8
72	72	14
13	14	2
108	117	1
77	105	2
74	84	4
90	92	1
101	102	3
94	109	4
1	2	3
99	99	5
0	0	5
102	113	2
81	83	5
108	114	2
94	95	4
85	98	2
22	24	1
125	125	5
17	17	8
129	133	1
30	31	6
86	98	12
132	133	2
10	11	4
20	24	2
114	122	2
83	83	5
98	99	1
104	104	15
130	131	4
119	121	14
122	131	4
109	120	1
126	129	3
123	131	2
125	126	3
26	29	3
11	22	3
1	1	2
81	81	8
67	71	1
129	129	5
23	23	14
135	140	3
79	89	2
95	95	6
117	117	7
90	95	2
79	83	5
91	91	3
83	85	1
112	123	1
73	75	4
90	90	5
97	100	2
114	116	5
18	18	11
74	75	4
8	16	4
102	103	4
4	6	4
113	124	2
86	112	1
132	132	5
121	121	10
135	136	4
9	10	7
93	93	3
116	116	5
5	16	3
136	137	2
119	123	4
73	73	3
115	115	11
110	110	4
96	116	2
81	84	3
30	33	3
104	111	2
12	12	7
109	115	1
86	86	4
139	141	1
27	27	4
126	128	3
88	89	1
116	117	2
105	121	1
131	132	5
109	109	5
89	90	7
114	114	8
126	133	3
86	91	3
88	94	1
19	23	1
111	112	4
114	125	2
13	13	1
75	83	5
71	80	1
29	29	2
111	120	4
114	115	4
104	108	3
105	106	3
101	108	1
26	30	1
86	87	2
25	31	2
104	105	3
73	83	1
104	106	3
86	93	1
93	114	3
81	91	1
75	82	3
123	127	1
7	7	5
6	11	1
34	34	5
30	30	5
82	86	3
0	16	2
91	93	2
103	115	1
96	112	2
25	29	1
3	3	6
80	84	2
112	119	3
114	123	4
87	100	1
108	108	7
100	105	3
105	105	4
109	123	4
114	117	4
10	12	2
112	128	1
124	127	4
7	15	2
3	18	2
15	19	3
81	82	2
91	95	5
106	106	6
10	10	2
108	118	2
77	78	8
125	128	3
25	25	2
114	124	1
73	74	1
111	127	3
26	26	4
9	12	1
93	103	1
115	131	1
36	38	1
95	97	4
91	118	2
2	12	1
102	108	5
14	25	2
126	130	4
80	81	2
6	13	2
110	125	3
92	92	6
98	98	6
112	122	1
101	117	1
118	119	1
82	88	2
89	101	1
95	98	1
109	122	2
8	8	7
107	108	3
9	18	3
21	28	1
2	16	3
29	32	1
88	88	2
79	91	1
131	131	4
75	80	2
111	114	3
33	37	2
9	21	3
136	139	1
76	82	1
127	127	3
4	5	3
90	93	2
122	124	2
32	33	1
20	30	3
14	27	1
84	93	3
108	124	2
105	118	1
84	94	1
14	14	4
114	132	2
3	14	2
4	19	2
102	102	3
8	10	2
110	113	2
27	34	1
7	12	1
79	93	1
12	93	3
19	29	1
109	114	2
7	9	3
6	21	1
1	7	2
3	6	4
19	31	1
98	106	3
114	118	1
113	120	5
112	116	1
92	106	1
3	5	1
140	140	3
124	124	1
97	105	2
22	22	1
99	113	1
136	136	1
110	116	2
24	32	1
91	99	2
25	37	1
5	13	4
19	24	3
78	78	4
96	106	3
101	119	1
15	15	4
76	87	2
78	89	4
9	24	3
111	123	2
139	139	1
20	23	1
36	36	2
112	125	2
3	4	1
108	110	1
122	123	1
103	106	2
123	129	1
124	131	2
85	101	1
122	122	7
8	9	1
102	106	2
77	79	2
97	97	5
3	16	1
32	36	2
117	120	2
116	127	1
124	132	1
87	88	2
80	90	3
122	129	1
119	124	4
2	2	3
99	101	3
22	27	1
8	21	2
74	74	2
94	94	2
85	89	1
121	127	1
98	126	2
111	113	3
81	93	4
131	133	1
18	22	2
115	116	2
21	23	1
117	128	1
139	140	2
135	135	2
112	113	4
12	15	2
108	109	3
89	94	3
98	104	2
107	111	1
38	38	1
79	94	3
27	38	3
15	21	3
67	85	1
72	74	3
77	77	6
14	19	2
23	24	1
138	138	3
88	90	3
4	16	3
116	129	1
19	19	1
35	130	1
102	118	1
83	96	1
110	138	1
13	18	1
7	26	2
101	112	1
19	32	1
19	20	1
5	11	1
17	18	2
110	124	1
80	88	1
108	112	1
0	11	1
134	140	2
103	104	3
4	10	2
91	119	1
7	17	1
117	132	1
119	122	1
117	124	1
7	21	1
71	72	1
34	35	1
19	34	1
98	102	1
82	98	2
74	85	1
104	117	1
5	12	2
115	117	2
31	31	1
5	7	3
124	126	1
100	114	2
114	126	1
79	88	1
3	21	1
10	21	1
106	117	1
74	86	1
18	28	2
73	82	1
102	104	1
118	132	1
89	92	1
104	115	1
77	99	1
0	19	1
74	87	1
94	107	2
33	33	2
78	91	1
0	2	1
96	96	1
3	22	1
103	122	1
2	7	2
128	128	1
2	13	1
12	14	1
122	125	1
11	30	1
80	89	1
7	13	1
103	116	1
109	119	1
31	34	1
84	88	1
0	7	1
24	30	1
121	131	2
111	111	1
25	27	2
86	101	1
90	114	1
71	73	1
110	118	2
115	119	1
126	131	1
92	103	1
107	109	1
92	104	2
118	131	1
6	12	1
8	22	1
4	8	1
97	98	1
102	105	1
100	110	1
120	127	1
121	123	1
88	93	1
118	130	1
100	106	1
71	78	1
95	102	1
33	34	1
68	68	1
126	127	1
78	84	1
88	100	1
0	3	1
111	126	1
