92	92	14
34	34	13
36	36	9
114	114	2
95	95	16
50	51	5
99	100	2
21	21	8
67	67	9
94	94	4
84	84	9
78	78	5
64	64	10
91	91	7
54	54	5
97	97	9
28	28	8
41	41	3
86	86	3
63	93	4
49	50	3
107	107	6
96	96	6
25	25	6
82	82	4
75	77	2
69	70	8
59	59	5
31	31	5
53	53	7
31	33	2
77	79	1
98	98	10
80	80	3
66	66	10
39	48	6
106	106	4
20	23	3
55	57	3
93	102	2
42	45	1
103	103	10
104	104	8
58	60	2
66	67	1
48	48	10
54	57	1
45	45	2
37	39	5
85	109	1
53	111	6
71	72	2
81	81	10
23	23	1
67	69	2
65	78	3
47	47	4
30	39	2
113	113	7
70	70	13
102	102	4
49	49	11
43	43	4
93	93	6
31	45	2
46	46	5
33	34	1
87	88	2
85	85	10
49	77	2
57	57	1
65	65	9
99	99	7
89	89	6
87	87	2
51	51	4
31	32	2
113	114	1
44	44	6
88	89	3
109	110	1
54	55	3
26	27	1
58	59	4
38	48	3
68	69	3
39	39	10
77	77	8
64	65	3
88	88	2
55	55	5
26	26	2
60	60	4
20	20	2
87	110	1
58	58	6
102	103	2
39	40	3
90	90	4
29	37	2
65	66	3
106	107	5
71	71	8
62	62	3
59	60	4
83	85	1
35	36	3
50	50	3
35	35	2
101	101	5
92	93	2
25	26	1
76	77	2
75	76	3
38	38	8
38	39	2
45	46	2
83	86	2
62	94	1
19	22	3
108	108	3
34	35	2
53	54	3
105	110	1
24	24	8
24	28	1
61	61	6
76	76	1
75	78	2
56	56	5
85	86	1
115	115	3
49	72	2
30	30	4
78	79	2
73	73	3
44	45	2
29	29	4
93	94	1
63	63	4
32	32	2
104	105	1
48	74	3
74	74	1
33	33	1
29	48	1
53	55	3
79	79	5
85	91	3
49	51	2
80	81	1
68	68	4
105	105	1
112	112	5
94	95	3
28	29	1
95	97	2
21	35	1
112	113	1
95	113	1
100	100	1
40	40	1
37	38	1
40	41	1
60	61	1
22	34	1
95	99	1
99	101	1
23	35	1
109	109	1
38	47	2
105	106	1
37	37	2
70	71	1
110	110	1
96	106	1
23	24	1
55	63	1
82	86	1
83	83	1
43	45	1
