67	67	1
104	105	6
110	110	5
36	36	2
81	83	2
56	57	9
28	28	7
30	30	8
78	95	3
45	45	11
62	62	4
40	42	6
84	84	1
75	77	6
83	87	4
34	38	9
60	60	9
80	83	2
101	102	3
19	19	2
22	23	7
39	46	4
82	82	3
107	107	6
63	66	2
99	102	2
54	58	4
23	28	1
78	92	4
99	99	3
31	31	1
69	69	5
51	92	5
23	23	6
106	106	11
47	47	3
111	112	6
65	71	5
88	89	4
50	50	2
58	58	6
86	106	4
44	44	12
74	75	2
39	99	2
93	94	1
87	87	13
56	88	4
65	65	4
57	57	12
28	29	7
105	105	5
41	78	3
55	55	2
21	72	1
38	50	6
25	26	1
62	63	4
29	29	9
38	38	2
70	70	12
103	103	7
33	34	3
33	42	1
85	86	1
52	52	2
59	65	6
102	107	3
106	108	1
79	79	5
104	104	5
22	76	3
58	66	2
20	72	7
101	101	11
111	113	4
101	104	2
32	32	5
79	92	1
33	35	1
56	63	7
21	23	6
38	40	1
111	111	3
93	93	3
34	34	3
46	47	2
37	37	1
86	86	1
76	76	8
52	100	2
97	99	1
53	53	1
93	96	2
48	51	4
108	108	4
75	75	3
27	27	1
60	90	3
65	66	4
77	94	2
21	22	4
74	78	1
77	77	3
44	49	4
88	88	7
109	115	2
27	46	4
48	48	5
95	99	1
48	50	4
59	59	3
39	40	4
83	83	3
56	58	4
42	44	1
103	107	3
80	80	10
21	21	1
56	56	1
100	101	4
27	28	1
112	113	5
21	24	1
41	41	1
94	94	3
99	100	2
108	113	1
73	76	1
85	85	3
51	57	1
114	114	4
103	110	1
72	72	11
61	98	3
46	46	2
90	91	6
31	52	1
43	78	2
91	91	3
48	49	1
49	49	3
42	77	2
42	42	1
41	50	2
73	73	3
96	99	3
25	31	1
81	82	1
68	69	2
54	54	2
36	38	4
97	97	3
74	74	2
90	90	2
71	74	2
53	93	3
81	81	4
96	98	2
20	21	3
68	71	2
35	37	3
103	104	1
32	34	2
58	59	2
21	56	2
73	74	4
106	107	1
68	68	2
112	112	4
62	93	1
100	102	1
92	102	2
24	29	2
102	109	1
76	77	4
96	96	3
89	89	2
92	92	2
100	111	2
27	30	1
66	66	4
20	22	1
61	61	2
84	85	1
89	93	2
20	42	2
102	105	1
113	113	1
103	106	1
40	70	2
39	39	7
84	86	2
52	109	1
50	99	2
25	41	2
105	108	1
78	78	2
26	26	3
38	49	1
50	51	3
23	40	1
59	60	3
79	80	2
41	43	1
41	49	1
64	66	2
67	71	1
75	76	1
24	24	3
35	35	1
65	67	1
44	45	1
32	33	1
87	88	1
89	90	1
63	63	3
70	88	1
111	114	1
29	34	1
27	97	1
97	98	1
71	95	1
40	40	1
68	70	1
39	43	1
34	36	1
20	20	1
86	87	1
94	97	1
112	115	1
