40	41	2
43	43	7
60	60	16
92	92	6
35	47	2
98	98	11
65	66	4
46	46	9
90	91	4
107	107	4
68	69	9
74	74	8
91	91	14
63	65	4
26	26	7
27	33	3
65	65	14
70	71	1
63	83	1
72	72	13
106	106	12
21	21	7
86	87	2
96	112	2
48	49	6
59	62	2
88	88	8
96	96	6
71	71	8
59	59	13
45	45	6
63	63	7
85	92	3
101	103	5
45	94	5
20	20	3
24	79	2
73	84	2
54	54	13
39	39	10
61	61	18
22	23	1
34	34	7
78	79	16
74	80	2
101	101	15
62	62	9
75	76	6
23	23	15
49	112	2
87	87	12
27	27	10
67	96	2
54	55	1
51	51	7
108	108	16
89	89	11
28	28	7
65	93	2
66	108	7
30	64	1
22	22	1
104	104	7
43	109	4
58	58	4
62	63	5
73	73	5
109	109	5
67	67	10
29	88	3
113	113	14
35	35	7
41	41	7
34	79	3
20	35	1
52	52	9
42	42	4
90	94	4
83	83	9
57	57	7
44	44	7
62	64	2
53	57	1
49	78	4
34	35	3
85	85	5
30	30	6
77	77	11
32	32	4
38	39	5
21	48	3
47	47	5
25	25	5
99	99	4
100	100	11
44	45	1
76	76	7
68	95	2
32	33	4
33	33	7
37	38	2
114	114	6
97	97	7
47	77	3
110	112	2
50	50	6
37	37	8
78	78	6
52	61	3
78	87	1
35	36	2
33	34	2
40	40	6
79	79	3
90	90	4
29	64	1
81	81	5
84	84	8
110	110	13
101	113	3
58	59	4
94	94	6
88	97	5
95	97	3
70	70	3
45	95	1
65	85	2
35	48	1
103	103	7
56	56	8
55	57	7
36	36	6
50	58	2
82	82	12
50	62	3
43	46	2
93	94	1
112	112	8
103	107	6
102	102	3
64	65	2
70	87	2
32	61	2
111	111	2
100	102	4
38	38	3
112	113	1
106	107	2
105	105	4
75	75	3
86	86	3
32	62	2
95	95	3
78	84	1
111	113	2
28	29	1
29	29	7
46	47	2
58	60	3
109	111	1
67	68	5
46	90	4
22	36	2
49	71	3
76	81	4
31	32	2
68	68	5
30	91	3
46	54	2
75	80	2
43	44	4
92	95	5
43	65	2
53	53	6
24	24	3
41	78	1
31	31	4
109	110	2
30	97	4
31	112	3
39	42	1
66	68	1
108	110	2
58	62	1
102	103	1
55	55	2
60	70	4
80	80	12
62	65	2
22	35	1
88	109	1
49	49	3
101	102	2
40	46	1
93	95	1
48	63	3
20	25	2
91	105	4
48	50	3
54	56	1
91	97	1
60	61	2
42	43	3
19	19	1
30	108	2
104	105	2
82	83	3
85	86	1
105	106	2
20	42	1
84	85	1
42	92	1
33	62	1
60	62	1
25	82	2
54	57	3
97	98	2
49	111	1
26	27	1
59	60	2
77	82	1
96	97	2
49	53	1
28	92	1
91	106	2
96	98	1
97	106	1
42	59	1
28	87	2
111	112	1
56	57	1
26	83	1
30	31	1
87	88	1
