6	6	20
36	36	14
113	113	14
34	35	4
23	23	7
139	139	5
74	76	4
110	110	7
3	3	12
111	111	9
140	140	15
116	116	10
18	18	8
109	109	8
21	22	2
80	92	2
94	94	3
7	7	5
23	27	5
108	108	1
6	7	4
81	82	1
20	20	3
112	112	6
27	27	8
130	130	5
85	85	6
38	38	4
79	128	1
32	32	5
114	123	1
33	33	6
92	92	8
74	74	3
89	89	2
100	102	1
123	123	5
22	22	10
104	104	4
127	127	16
110	121	1
127	128	14
116	119	4
25	25	10
98	99	2
7	25	3
117	117	9
114	115	1
91	91	6
7	9	2
72	73	4
109	110	3
4	5	8
72	72	10
132	132	11
99	99	1
38	129	5
34	34	15
97	98	4
30	30	4
6	72	4
97	97	10
75	75	6
23	26	4
5	6	3
17	17	8
95	95	4
31	31	8
129	129	6
84	85	2
136	137	2
131	131	11
25	26	8
103	103	5
34	37	2
111	112	6
22	27	3
85	86	9
38	71	1
76	77	6
2	3	5
12	12	8
8	8	9
83	83	4
79	79	3
133	133	7
106	106	12
135	136	1
101	102	5
118	118	6
95	96	3
23	24	1
26	26	8
115	118	2
1	1	4
126	127	7
107	111	2
37	37	2
107	107	8
100	100	13
78	78	4
16	16	8
11	11	6
101	101	4
115	115	2
84	84	3
16	74	5
24	24	5
73	74	1
96	96	2
88	92	1
99	123	5
102	102	7
136	136	2
134	134	4
82	82	3
125	126	5
135	135	4
90	90	2
22	23	8
119	122	1
103	105	2
36	37	7
38	72	2
77	78	1
100	101	3
137	137	2
103	104	5
2	2	8
80	80	4
5	5	10
77	82	1
35	35	4
113	114	3
19	19	4
116	122	2
124	124	2
33	72	4
118	119	3
0	0	2
114	114	3
4	27	1
11	44	2
100	109	1
31	32	1
88	89	1
87	89	2
76	81	1
112	115	6
138	138	6
78	85	3
13	15	2
104	107	2
26	128	2
33	38	2
124	125	4
0	97	2
16	21	2
87	87	6
10	11	1
86	86	8
9	9	3
73	73	2
125	125	7
93	101	1
129	130	7
134	135	3
20	21	5
94	95	2
80	86	5
116	117	1
91	92	1
116	118	1
82	86	1
122	122	3
15	17	1
4	125	2
19	31	3
13	23	4
121	122	2
128	128	3
7	8	1
138	139	1
12	14	1
77	77	1
7	26	1
96	97	2
119	120	3
125	127	1
73	76	1
9	10	2
15	15	2
17	20	2
79	92	2
107	108	1
101	103	1
13	13	3
17	18	1
15	74	4
90	91	3
1	112	1
88	88	2
128	130	1
19	20	2
115	116	2
22	72	2
6	8	2
32	33	1
108	109	2
71	71	1
81	81	2
16	17	6
123	124	1
10	10	2
120	121	1
131	132	1
112	113	1
71	72	1
13	14	1
126	128	1
76	76	1
110	111	1
28	28	1
33	34	2
98	98	1
5	37	1
