117	117	5
27	27	10
175	177	2
40	168	2
131	147	4
18	19	4
210	210	12
12	12	12
121	121	7
14	14	9
8	8	11
201	203	7
140	140	9
39	70	5
119	119	10
71	73	2
147	147	3
208	208	9
174	174	13
42	42	15
127	129	2
75	75	16
107	107	5
169	169	9
206	211	4
237	237	17
108	108	6
217	217	10
134	134	10
191	192	4
189	196	4
13	14	10
190	191	4
141	141	9
124	125	5
15	15	11
178	178	13
179	179	13
76	76	2
225	225	5
233	236	4
43	43	6
16	16	13
26	26	22
41	68	1
219	219	17
232	232	3
40	40	20
8	39	8
107	108	2
104	154	1
157	190	1
217	232	1
36	36	12
235	236	3
74	74	9
133	194	3
65	65	12
122	123	4
34	34	13
161	161	5
109	174	2
82	82	14
78	78	21
184	184	4
73	73	8
112	112	3
183	184	15
30	32	8
183	183	5
38	38	1
190	221	2
9	11	2
217	219	1
230	230	2
47	50	4
104	104	2
58	58	2
207	207	3
198	198	13
160	161	4
55	55	15
235	235	6
64	64	13
25	25	10
62	62	6
167	167	10
168	168	16
3	3	12
153	153	17
192	192	5
76	77	2
81	82	7
19	20	5
86	86	6
38	74	2
23	23	18
194	195	2
224	224	6
46	46	15
155	155	2
217	218	3
223	223	9
198	199	8
60	61	2
152	152	14
193	193	10
80	84	4
170	170	4
131	153	4
119	159	1
223	224	2
50	51	4
105	105	8
207	208	4
140	141	6
120	159	8
34	78	2
195	195	3
220	221	3
206	206	11
164	164	13
29	29	3
89	89	3
32	32	7
157	157	2
216	216	6
4	7	10
199	208	1
233	233	8
184	185	6
97	175	4
71	71	6
9	14	1
202	203	3
156	156	10
189	189	5
122	191	3
200	208	1
146	147	2
204	219	5
54	64	2
160	160	7
70	169	4
151	151	8
220	220	10
99	99	18
100	101	9
11	11	12
74	75	2
161	162	4
23	24	4
146	146	1
8	11	5
116	116	5
7	7	3
31	31	14
53	88	8
158	161	4
214	214	6
53	53	3
14	21	3
176	176	5
19	21	8
129	195	5
58	160	2
121	122	5
158	158	7
170	171	2
44	44	4
55	115	3
177	177	14
49	49	7
209	209	2
187	187	5
101	105	5
69	69	6
36	40	5
134	141	4
218	233	4
17	17	2
20	20	4
109	109	4
80	80	2
204	204	10
28	28	7
46	49	4
13	19	8
18	20	4
175	176	7
227	227	3
165	165	6
155	156	5
65	66	3
71	72	8
203	208	4
41	71	3
203	204	2
54	62	5
198	210	4
241	241	13
48	49	5
182	182	5
24	230	4
138	138	11
62	64	4
135	142	3
65	70	3
233	234	4
119	120	3
120	120	2
56	56	7
138	139	2
4	4	4
222	222	5
215	216	1
144	150	3
194	194	7
184	186	4
0	3	1
80	81	1
129	129	10
182	184	2
47	51	2
67	67	6
144	144	5
45	45	6
1	1	3
217	220	1
231	231	3
197	197	4
73	74	9
177	178	4
175	175	5
57	58	7
54	54	9
199	210	3
27	75	3
49	116	2
83	83	6
199	199	6
97	97	7
154	192	1
30	86	5
203	203	8
194	196	2
216	218	7
207	211	1
32	69	3
99	117	4
145	145	4
189	221	3
14	22	2
178	202	1
70	70	6
108	109	4
219	220	5
50	50	4
172	172	2
72	72	8
10	10	6
239	239	8
202	202	5
19	19	5
48	48	4
43	44	4
238	240	2
149	149	10
123	123	1
10	11	1
205	209	2
88	88	2
122	127	7
61	61	4
228	228	1
16	17	4
236	236	10
200	200	8
162	163	5
238	238	4
95	95	7
85	85	3
196	196	6
48	50	4
9	10	3
113	113	6
47	120	6
125	193	8
131	148	3
137	149	1
205	206	1
41	41	4
181	181	10
190	192	4
42	65	2
209	210	2
57	57	3
31	79	2
199	200	6
68	168	1
29	82	3
108	126	3
28	29	2
28	75	1
226	226	1
96	121	3
172	176	3
111	112	4
61	62	6
195	196	1
13	13	7
0	4	1
90	90	2
148	148	6
188	188	7
58	61	4
131	131	2
33	36	2
15	19	4
66	66	5
35	68	1
235	240	4
114	114	4
77	77	4
30	85	4
51	51	2
38	39	8
30	81	1
97	121	3
143	143	6
166	166	2
11	12	2
0	1	4
51	53	3
52	52	5
128	128	4
115	117	1
98	98	4
176	208	3
127	128	1
107	126	1
150	151	2
103	106	4
234	234	10
36	37	3
186	186	5
47	48	2
85	86	4
122	154	4
159	159	5
10	12	2
240	241	8
214	216	4
173	173	1
214	232	2
30	61	2
81	81	6
51	89	1
134	135	4
136	186	2
33	34	1
24	24	3
3	4	3
35	69	3
242	242	4
84	85	2
192	193	3
122	122	2
173	174	6
120	156	3
2	2	2
38	40	3
186	201	3
226	227	4
221	221	4
95	120	1
77	79	2
135	197	2
221	227	3
179	180	3
40	41	4
180	180	4
32	38	1
120	121	2
6	22	4
235	237	4
36	41	3
58	162	1
12	13	1
72	73	2
130	130	5
137	138	3
52	85	3
9	38	1
41	70	2
227	228	6
102	105	2
102	102	6
22	22	1
154	154	1
34	35	2
31	84	2
224	225	3
205	205	1
37	38	1
58	60	1
169	223	1
137	137	5
84	84	2
34	72	1
123	127	1
171	172	2
0	0	4
236	237	1
129	130	1
198	209	2
109	175	2
91	163	1
67	164	1
239	242	3
139	139	3
16	19	4
149	179	2
159	160	2
64	74	4
201	201	2
101	101	1
210	213	1
108	132	3
120	155	4
106	154	1
29	85	1
103	104	1
138	148	1
56	90	1
186	200	1
206	207	2
5	7	2
209	211	3
84	86	3
27	28	3
9	9	2
237	238	2
213	216	2
150	152	1
214	217	2
210	212	1
192	195	1
170	215	2
176	219	1
46	47	1
8	40	1
117	118	6
30	30	3
39	64	3
102	146	1
54	55	2
147	148	3
105	106	3
58	67	2
18	18	2
233	235	2
231	235	2
170	223	2
135	136	2
102	110	2
126	126	2
21	21	1
68	166	2
112	113	2
47	49	1
157	191	3
239	240	3
68	68	1
98	99	2
142	142	3
115	116	1
39	40	2
6	7	1
1	20	1
215	215	3
32	37	3
35	71	1
134	197	1
193	195	1
28	85	1
190	190	2
62	157	1
136	136	1
45	46	1
127	134	3
42	69	1
48	115	1
63	63	2
2	4	1
170	231	3
47	242	1
142	197	2
29	84	2
115	115	2
158	162	1
55	61	1
103	117	1
229	229	1
189	195	1
47	47	1
220	222	1
130	134	1
154	155	1
134	136	1
214	215	1
95	118	1
231	233	1
197	198	2
60	60	2
37	37	1
4	5	1
238	239	1
29	81	1
122	156	2
200	201	1
169	225	1
116	120	1
64	65	1
151	152	2
52	55	1
144	146	1
39	39	1
57	160	1
111	111	1
