26	26	12
7	7	11
111	111	14
68	68	6
14	14	7
167	167	10
76	77	7
74	74	12
119	121	1
164	164	3
175	175	5
119	119	4
22	24	4
142	143	2
59	61	4
62	62	8
108	108	4
55	55	4
25	74	2
184	184	7
190	191	11
154	154	21
164	167	2
149	150	6
149	197	9
44	44	8
123	123	5
59	60	3
158	158	10
100	100	3
20	21	7
179	179	15
185	186	2
23	23	9
108	109	6
148	192	3
80	80	11
66	67	7
1	2	3
121	129	3
63	63	10
156	156	11
79	80	8
48	48	10
4	4	4
79	79	18
185	185	5
51	51	5
13	13	15
86	86	6
196	196	4
132	133	8
101	103	1
24	24	3
118	118	7
76	89	1
151	152	2
70	70	9
56	56	10
28	29	6
13	14	1
183	183	8
153	153	5
97	114	3
162	162	8
67	68	9
134	134	8
83	83	1
38	38	15
156	164	3
139	139	7
53	54	6
116	141	2
186	186	6
143	143	5
106	107	8
80	83	2
152	152	9
36	37	2
46	46	10
124	124	13
178	178	9
127	127	9
75	76	1
29	29	13
81	87	1
98	107	3
108	180	1
84	85	1
110	110	8
190	190	11
129	129	11
0	156	2
165	174	3
88	88	8
74	93	4
194	194	9
64	95	1
6	7	2
69	69	8
30	43	7
77	78	4
97	98	1
27	30	5
20	23	2
117	118	3
39	40	1
31	70	5
176	176	6
19	19	12
162	164	1
111	113	1
177	178	8
66	160	3
33	33	6
73	75	5
191	191	13
17	182	3
142	142	4
81	81	4
141	141	14
97	97	10
109	109	3
189	189	5
33	77	3
5	8	2
25	25	13
125	125	8
8	9	2
11	11	6
133	133	11
82	82	4
41	41	7
148	153	3
28	30	5
115	116	2
182	182	10
165	165	7
7	171	2
75	75	6
168	168	7
103	170	2
59	70	1
5	6	6
15	15	10
17	17	5
145	145	9
125	126	5
131	131	8
73	87	3
188	188	4
157	157	4
45	48	3
187	187	14
35	35	5
112	112	13
89	89	12
113	113	5
10	10	9
85	86	2
173	173	7
25	26	3
173	174	3
47	47	3
63	86	4
160	160	4
143	144	4
53	67	4
109	132	3
170	170	16
99	107	1
20	22	2
69	70	4
161	161	15
58	69	1
155	156	7
56	65	3
58	58	12
171	171	9
50	50	4
159	159	6
61	61	9
111	112	7
107	123	4
106	155	2
2	2	11
53	53	14
57	58	3
126	126	8
36	36	10
157	158	9
40	42	2
45	45	11
154	156	5
101	101	2
138	138	7
32	32	8
12	38	3
6	68	2
162	163	3
47	48	5
184	185	2
0	1	2
21	21	13
51	56	4
73	74	3
54	54	10
4	6	2
49	49	11
22	28	2
174	175	5
27	27	4
115	115	11
13	46	5
49	50	7
32	54	2
66	98	1
188	191	5
88	89	9
168	173	1
72	169	4
116	117	1
144	146	3
64	65	4
103	103	3
144	144	6
107	107	4
18	178	2
39	39	6
123	124	5
97	132	1
177	177	9
8	166	4
67	67	3
156	159	3
159	160	2
31	32	3
6	6	3
150	151	1
14	15	5
107	108	4
180	181	7
121	122	2
73	73	9
53	70	1
18	18	3
163	189	2
54	55	4
101	111	1
9	9	8
5	5	3
193	193	4
50	51	1
121	123	4
45	46	2
163	163	4
149	154	1
60	61	4
165	167	2
135	136	3
16	17	4
153	154	3
197	197	6
34	38	4
136	136	10
65	66	2
151	151	4
24	43	2
147	147	4
147	148	5
145	156	1
128	128	3
122	122	5
21	23	2
151	157	1
17	27	1
172	175	2
0	186	2
94	100	1
57	57	4
77	77	4
93	93	1
119	120	2
149	149	2
98	98	8
187	188	3
72	74	2
32	37	1
28	28	11
105	114	1
37	38	1
159	168	2
84	84	2
1	1	6
167	172	1
37	37	4
140	140	14
42	42	2
112	142	2
110	111	4
143	175	1
19	42	1
110	112	1
12	45	3
42	43	2
156	157	3
20	20	5
183	184	3
78	78	4
137	137	7
121	121	8
40	40	1
32	47	3
161	192	1
122	123	1
8	66	2
43	44	2
134	135	2
135	135	4
9	10	2
181	181	2
129	130	1
130	132	2
109	110	4
156	162	1
167	169	2
47	52	1
87	87	4
192	193	1
60	60	3
180	180	4
136	137	2
52	52	4
165	166	6
125	127	1
74	75	2
168	187	1
31	178	1
93	94	4
95	95	2
134	137	2
98	99	1
132	132	1
71	72	2
18	19	1
0	0	1
146	146	1
70	71	2
122	154	1
120	120	7
169	169	13
66	167	1
82	83	2
66	135	1
102	102	2
112	132	3
71	71	4
31	31	3
31	44	1
16	16	5
104	105	1
65	159	3
40	41	5
5	74	3
94	95	1
75	96	1
16	59	1
56	57	3
140	141	3
48	50	3
127	128	2
25	27	3
43	43	3
116	116	7
29	30	2
12	46	3
27	28	2
175	178	1
66	68	2
98	100	1
107	134	1
27	29	1
12	12	4
130	130	2
154	155	1
99	99	3
150	150	4
95	168	2
6	75	3
33	35	2
62	75	2
151	160	1
56	127	1
148	148	2
146	147	1
117	117	3
174	174	3
69	172	1
34	34	1
188	189	1
1	4	1
62	184	1
72	72	2
55	56	1
106	106	2
159	171	1
65	79	2
139	140	3
65	65	3
182	188	2
155	155	2
94	94	3
22	22	4
23	120	1
3	3	1
4	164	1
22	34	1
152	171	1
4	5	3
114	118	1
64	64	6
174	176	1
160	168	3
148	149	1
104	104	4
24	25	5
71	73	5
12	15	2
155	166	2
105	106	2
168	169	1
114	114	3
99	100	4
102	133	1
184	186	3
33	58	2
143	145	4
73	77	1
152	153	2
66	66	2
176	177	3
63	79	3
0	22	1
5	75	1
109	162	1
64	66	1
73	76	1
30	30	4
35	36	2
163	164	1
107	126	2
112	113	1
40	157	1
26	27	2
147	193	2
138	140	1
39	43	3
72	73	1
45	47	1
24	182	1
55	60	1
117	123	1
12	14	2
122	129	1
9	74	2
15	16	1
181	182	2
163	187	2
105	105	1
34	37	1
109	134	2
52	53	1
192	192	2
195	195	1
59	59	1
86	87	1
100	101	2
155	157	1
83	86	1
27	36	2
97	196	1
43	84	1
153	160	1
7	8	2
130	156	1
114	180	2
78	79	2
11	80	1
87	88	2
181	183	1
17	64	1
59	77	2
37	61	1
29	31	1
167	171	2
161	162	1
145	146	1
138	139	1
19	20	1
17	18	1
61	62	1
22	36	1
129	150	1
3	75	1
72	151	1
166	166	1
101	102	1
117	122	1
102	177	1
58	59	1
104	106	1
28	44	1
76	76	2
19	31	1
165	180	1
116	119	1
73	193	1
175	176	1
22	29	1
83	85	1
26	28	1
117	155	1
193	194	2
46	47	1
124	125	1
172	172	1
170	171	1
