58	58	29
38	38	24
65	65	24
85	85	32
82	82	8
79	79	24
72	72	22
41	41	14
87	87	19
52	99	7
48	48	15
33	61	1
83	88	2
35	35	22
97	97	5
43	43	14
87	88	6
56	60	4
88	88	15
90	90	25
75	75	21
56	57	12
70	70	24
57	90	4
48	63	4
85	86	6
98	98	13
89	96	2
29	29	11
23	36	3
59	59	7
81	82	6
81	81	21
42	60	1
40	44	3
50	50	13
86	86	23
24	24	10
101	101	15
48	51	5
80	80	19
68	83	6
80	88	3
62	67	3
76	77	12
67	75	6
92	92	28
76	79	6
91	91	15
51	51	5
79	89	1
39	39	4
76	76	23
44	44	17
49	53	1
90	93	3
54	87	2
95	98	6
29	63	2
62	62	17
78	90	2
73	73	22
64	64	60
42	42	18
83	86	5
66	66	23
33	63	4
82	84	3
64	76	3
54	81	1
38	50	2
46	46	14
68	68	37
31	63	1
71	71	34
55	56	1
72	73	3
70	72	2
63	63	15
26	26	20
62	63	5
67	67	34
57	57	9
57	59	9
99	99	18
102	102	4
64	65	4
40	63	3
77	78	14
30	30	5
51	63	10
22	45	4
94	100	4
86	88	4
44	65	6
28	35	3
37	38	7
27	29	3
54	55	6
40	40	14
52	53	7
94	95	5
52	52	17
62	73	1
27	63	5
52	100	2
66	89	4
75	88	5
27	33	4
69	69	20
54	92	3
36	37	11
100	100	14
67	68	11
73	81	3
89	89	30
54	54	16
49	49	12
23	34	5
41	62	3
93	93	8
47	47	8
61	87	9
33	94	2
48	49	2
63	74	1
60	60	17
23	23	1
69	70	22
92	100	3
66	67	6
74	85	3
68	71	5
42	75	7
33	33	10
21	33	2
42	49	2
53	89	6
63	64	9
33	34	3
73	74	13
68	69	15
45	94	2
32	33	5
83	85	1
36	36	7
52	61	3
80	81	11
48	53	1
48	93	1
36	38	3
80	102	5
45	45	5
26	32	5
61	61	13
64	88	7
83	83	11
61	80	8
31	50	7
35	46	3
37	37	12
41	67	5
33	62	1
23	46	3
84	84	18
20	33	1
32	32	8
61	62	3
43	47	1
93	96	3
56	58	4
85	89	3
53	53	15
57	62	3
25	101	3
53	99	3
27	27	8
26	54	3
91	95	5
33	42	4
60	62	3
67	69	3
36	40	3
88	89	4
56	88	2
35	38	2
22	26	1
74	74	24
97	98	7
22	24	8
74	75	7
78	78	31
54	93	4
73	89	5
66	73	1
25	25	8
77	77	14
54	91	1
25	33	2
76	83	3
92	95	3
57	61	2
74	76	6
94	94	18
43	66	5
93	94	5
42	64	1
35	83	1
39	53	3
95	95	13
56	62	1
41	44	3
66	69	1
42	61	5
53	62	7
90	91	1
30	59	1
75	85	3
84	98	1
43	44	2
56	56	10
59	67	2
69	71	2
75	87	3
90	99	2
31	31	14
89	98	3
26	33	2
25	87	1
71	72	6
37	40	1
92	97	1
64	72	3
96	96	5
35	36	4
90	92	3
99	100	3
25	26	5
22	35	4
55	79	1
91	96	2
98	99	4
45	47	5
29	35	4
67	88	3
51	52	3
100	101	5
71	87	2
23	25	2
51	65	1
68	91	1
46	68	2
26	52	5
67	96	2
96	98	8
36	81	3
86	100	1
32	61	2
84	89	1
71	73	3
60	87	2
41	76	1
86	87	7
69	84	2
72	75	3
82	88	3
80	82	1
58	90	2
81	88	2
20	22	2
70	71	9
66	92	3
55	55	9
22	93	2
95	100	1
86	89	1
44	52	1
42	43	2
53	87	2
25	46	4
69	75	3
46	47	2
72	74	1
28	33	3
101	102	9
83	84	1
63	65	2
37	100	1
45	59	1
84	87	2
63	66	1
47	62	2
63	73	5
43	60	3
77	89	2
56	87	1
66	91	1
22	23	1
68	87	1
56	63	1
50	72	2
44	49	1
51	72	2
31	40	3
31	54	2
97	99	4
77	85	3
57	58	2
45	75	1
67	87	1
38	39	4
44	50	3
43	48	2
33	93	2
49	71	4
33	58	2
83	99	4
36	41	1
34	34	5
44	93	1
48	64	1
87	95	1
51	64	2
84	88	1
67	92	3
46	73	2
34	42	1
95	96	3
45	73	1
22	68	1
81	85	1
53	55	2
72	88	2
39	62	4
92	93	1
39	40	2
23	24	4
79	101	2
22	47	1
35	60	1
24	25	1
84	99	1
33	57	2
66	84	1
55	61	1
74	77	2
95	97	1
34	63	1
78	79	2
64	66	3
30	43	1
88	91	2
93	97	1
39	54	1
47	74	3
66	72	1
90	94	1
67	85	3
33	66	4
27	31	3
49	50	2
66	83	1
22	28	2
44	45	3
48	50	1
65	66	3
76	84	3
38	54	2
75	76	1
45	54	2
52	89	1
65	84	1
72	85	2
70	73	3
32	49	3
55	57	4
34	38	2
42	83	1
45	48	1
85	101	1
38	40	1
69	77	1
71	80	2
66	93	1
92	94	3
66	76	1
31	33	3
65	68	1
34	41	3
45	51	1
54	61	1
56	59	1
69	102	1
100	102	1
99	102	1
22	51	3
22	27	1
68	79	1
60	89	2
75	77	1
67	72	1
60	91	1
29	31	1
43	63	1
20	20	2
64	84	1
35	49	2
80	83	1
22	33	1
48	62	1
50	52	1
69	72	1
86	91	1
55	87	1
31	47	1
28	28	1
96	100	1
23	68	1
47	48	1
76	78	1
91	99	1
22	101	1
