157	157	2
71	73	2
84	84	6
57	57	8
86	86	9
121	122	7
5	5	4
59	59	2
128	128	4
135	135	8
83	83	3
25	67	3
40	41	3
28	28	1
39	39	3
32	32	2
86	87	5
49	50	1
29	30	5
127	145	1
117	117	3
192	192	2
168	168	10
96	96	6
132	132	5
89	89	9
97	97	4
140	140	4
126	127	9
170	170	11
161	162	1
181	182	6
11	186	2
3	4	3
191	191	3
134	135	4
33	33	4
29	76	3
46	52	2
50	50	3
71	75	3
184	194	1
42	42	6
107	111	3
24	24	6
137	137	5
123	124	2
113	113	4
190	191	3
87	87	3
8	8	1
53	53	4
131	131	5
117	120	1
13	13	3
178	178	3
54	57	2
102	102	2
126	126	3
124	124	4
98	98	6
66	66	5
69	69	7
109	110	2
148	148	2
143	143	6
167	167	2
6	6	5
76	76	5
121	121	10
144	144	6
31	54	3
128	129	3
62	62	1
73	73	7
60	60	7
182	182	5
174	176	1
0	0	8
18	18	4
48	48	7
169	179	1
21	159	2
40	42	2
21	158	3
25	25	4
182	183	2
136	136	8
6	190	4
79	81	3
82	83	3
43	44	7
110	110	6
118	123	4
153	154	2
98	99	2
76	78	2
143	145	3
107	107	10
81	81	4
184	184	5
169	169	6
186	186	4
18	20	1
166	166	5
115	115	5
177	178	3
37	38	7
193	193	6
22	22	5
27	27	2
29	29	4
52	52	4
21	21	8
84	85	3
116	120	1
100	115	6
109	111	1
94	96	1
7	8	2
94	94	9
110	158	5
9	9	2
41	41	2
30	69	1
70	70	5
176	176	3
146	146	1
85	85	4
51	51	1
34	35	2
158	158	4
80	80	5
124	125	1
3	5	3
150	152	1
29	79	2
151	151	2
41	54	3
1	1	3
47	49	2
8	190	2
110	130	2
20	20	5
23	24	3
77	77	3
41	53	5
139	139	2
6	8	2
95	96	3
82	82	4
185	190	3
116	116	1
32	66	2
37	37	3
77	78	1
62	63	3
88	88	5
130	130	3
63	63	5
196	197	2
69	71	3
172	172	2
57	108	2
183	183	5
119	119	5
180	181	1
187	188	7
58	58	1
152	154	4
67	67	2
34	36	1
113	114	1
107	158	5
100	102	2
44	44	1
14	15	2
179	180	1
164	172	3
26	29	1
23	23	14
161	161	2
68	68	1
89	90	2
15	16	2
38	38	1
31	31	2
189	189	2
75	75	2
99	99	4
152	152	5
188	189	1
79	79	2
187	187	7
24	62	2
0	1	2
65	65	3
106	110	2
104	104	5
31	66	2
156	156	1
64	66	3
177	177	2
22	63	2
57	58	2
47	47	4
191	192	1
6	7	1
133	148	2
95	95	1
4	4	4
150	170	1
46	46	1
142	142	4
122	123	3
160	162	1
93	93	1
47	52	1
122	122	4
162	162	2
63	64	1
120	136	2
102	103	1
74	75	3
119	120	6
16	16	5
124	126	1
138	144	2
27	28	2
160	160	3
14	14	2
174	174	2
147	147	1
18	19	2
79	80	2
57	155	2
58	112	3
157	158	5
54	54	3
123	123	6
45	45	9
61	64	2
15	15	6
9	185	2
138	139	3
194	194	5
74	74	6
54	55	2
195	196	6
176	177	4
36	36	6
154	154	3
104	105	1
195	195	4
93	95	4
118	118	2
185	185	2
48	49	2
145	146	3
164	179	1
73	74	3
25	28	1
94	97	1
83	84	1
180	180	1
61	61	3
157	162	1
94	95	1
81	83	1
36	40	2
196	196	3
129	129	1
163	163	3
38	39	4
168	171	1
49	49	3
112	112	3
116	137	1
127	127	1
11	11	3
45	71	1
19	20	1
180	182	1
105	105	2
149	149	2
13	193	1
159	159	1
136	137	2
19	19	3
125	126	1
13	14	2
64	68	2
138	138	3
125	127	3
114	114	2
56	58	1
26	27	1
188	188	1
163	164	1
10	10	1
133	133	1
103	103	3
120	120	5
29	82	1
173	173	1
106	106	1
174	175	1
186	188	1
4	11	1
90	90	1
81	82	1
124	128	1
140	141	2
3	3	2
60	61	1
49	52	1
150	150	1
170	171	1
120	127	1
126	128	1
35	35	1
107	108	2
11	12	1
171	194	2
20	22	1
7	7	1
156	157	1
187	190	1
171	171	1
167	168	1
143	144	1
11	18	1
116	119	1
1	3	1
56	56	1
144	145	1
134	134	1
171	172	2
152	162	1
67	68	1
190	190	1
143	172	1
101	101	2
153	153	1
167	192	1
166	192	1
157	159	1
12	12	1
137	146	1
132	137	1
126	129	1
134	137	1
