65	133	5
108	109	4
5	55	2
93	148	1
72	72	3
138	138	3
105	105	5
134	134	3
134	135	3
16	144	4
30	31	1
62	64	3
98	98	4
65	66	2
133	133	2
115	115	4
94	95	2
49	53	3
26	27	1
6	27	1
32	32	3
23	24	2
99	99	4
81	81	6
116	116	3
97	97	8
107	107	3
128	128	1
75	140	3
102	103	3
42	43	2
56	158	1
20	20	4
65	69	1
148	148	7
109	109	4
23	23	3
155	155	4
139	141	2
48	49	2
156	157	2
142	142	1
151	152	4
151	151	5
91	91	1
114	114	4
135	135	1
154	154	6
124	126	1
11	11	8
121	121	9
34	34	1
43	43	2
112	112	3
101	104	1
7	7	4
13	56	5
82	82	1
150	150	1
18	18	5
88	90	3
103	103	1
32	33	2
77	78	2
53	54	3
31	31	1
24	24	3
110	114	1
101	129	4
158	158	2
123	124	5
1	1	2
71	71	3
125	126	1
39	40	1
63	63	4
53	53	1
3	3	1
69	69	1
138	139	3
8	9	2
145	146	1
149	149	2
70	144	4
126	126	1
108	114	1
124	129	1
154	156	2
70	71	6
28	29	1
120	120	3
10	10	2
4	4	1
86	86	8
29	29	1
41	41	4
132	133	2
38	38	1
132	140	1
77	81	1
76	76	1
20	21	1
19	21	1
30	30	2
46	54	1
42	45	5
96	96	1
14	14	3
144	144	1
0	0	5
21	21	1
117	121	2
51	51	5
89	89	1
66	66	1
107	128	3
97	98	3
8	8	3
33	33	2
31	32	6
125	125	3
140	140	1
117	117	2
139	139	1
27	29	1
15	16	2
13	13	1
135	137	1
110	111	3
37	37	1
104	105	1
88	89	3
51	54	2
141	145	3
67	67	2
43	98	3
42	44	1
154	155	4
28	28	2
87	87	1
68	69	1
42	42	2
22	28	1
68	68	1
65	65	2
63	70	1
22	22	3
21	22	2
12	35	1
54	54	2
14	16	2
90	91	2
120	121	1
119	119	4
90	90	3
110	110	1
102	102	1
124	124	2
75	95	1
9	33	1
52	52	1
80	81	1
94	94	2
21	23	1
73	132	1
121	122	1
158	159	1
46	46	1
69	70	2
100	100	1
63	64	1
156	156	1
2	2	2
75	127	2
88	127	1
155	157	1
11	29	1
11	12	1
85	86	1
9	10	1
39	39	1
35	103	1
