105	120	5
68	68	5
57	70	3
71	72	1
56	56	15
84	86	1
105	105	4
67	67	2
6	6	7
104	104	6
42	43	8
64	95	2
112	117	2
121	123	3
32	32	12
37	37	15
15	15	13
108	108	6
63	75	4
74	93	2
59	68	5
124	126	4
72	72	8
73	95	1
23	23	8
108	118	2
25	25	10
58	58	8
83	85	1
28	28	5
36	45	2
70	70	9
90	99	3
84	84	7
35	35	9
129	129	5
0	0	9
118	118	4
80	80	7
11	20	2
14	14	6
29	30	1
130	130	8
64	64	3
131	131	11
90	94	3
55	57	7
90	98	2
0	7	3
8	44	4
44	80	3
55	81	5
111	112	2
35	36	5
76	80	1
9	9	10
18	22	2
107	108	7
114	114	10
112	113	3
9	10	3
108	134	3
107	107	8
126	127	8
76	92	3
60	60	6
29	29	7
90	93	4
113	131	2
62	76	2
75	122	7
46	46	7
98	121	4
36	36	3
19	43	2
94	95	6
70	101	2
126	129	4
5	5	8
19	21	12
132	132	5
21	21	12
33	33	9
89	90	2
82	91	3
88	88	5
74	74	2
116	126	2
4	4	4
8	34	3
26	27	2
1	33	5
111	111	18
105	131	4
110	110	7
82	95	1
18	20	4
37	39	5
95	96	6
133	133	8
63	64	1
6	7	8
76	76	3
22	22	6
107	116	2
121	121	5
45	45	9
133	134	1
100	132	4
95	95	5
110	132	5
83	83	5
27	32	1
78	79	4
18	33	1
51	51	4
87	114	1
55	58	3
103	113	1
61	61	6
103	103	6
48	84	4
39	39	8
102	102	6
117	117	5
116	127	2
34	34	2
20	20	8
126	126	6
14	33	3
32	33	1
76	79	1
126	128	6
8	8	6
73	83	4
12	14	2
61	71	3
81	81	3
17	43	1
58	59	2
63	63	1
73	73	7
90	91	1
91	91	11
74	82	2
131	133	2
47	61	5
69	71	3
38	38	5
119	119	11
8	9	3
106	106	2
123	124	2
98	98	3
25	28	1
25	34	5
3	3	5
20	21	3
39	50	1
132	134	2
120	121	2
81	82	6
16	16	4
106	134	1
10	10	8
104	119	5
102	123	2
91	92	2
23	28	5
66	66	6
15	31	5
93	93	8
23	37	2
77	77	6
41	70	1
112	124	8
37	38	7
127	129	3
43	44	3
128	129	1
86	86	4
62	75	1
30	32	1
58	75	1
2	2	1
11	11	8
14	17	2
64	65	2
130	133	3
102	103	4
71	71	1
98	134	1
19	19	5
85	85	2
55	82	3
1	13	1
58	77	4
102	124	1
11	25	3
112	112	3
82	83	8
20	45	3
43	43	8
120	120	9
5	39	3
27	29	4
30	30	6
31	31	7
48	119	1
87	92	1
7	7	14
117	127	3
33	34	4
72	98	1
7	10	1
127	133	3
55	72	2
3	6	1
97	97	2
100	104	2
28	41	2
9	125	1
10	28	1
98	100	1
26	47	2
101	113	2
59	59	1
118	120	2
63	86	3
17	17	5
55	55	3
42	42	2
63	68	2
18	19	5
57	68	4
77	79	4
109	112	2
21	23	1
78	78	8
97	108	2
78	80	3
72	83	4
27	42	4
93	95	1
103	124	1
26	26	1
111	114	2
87	108	4
47	47	6
62	82	2
44	44	3
24	25	3
125	128	2
108	123	4
104	115	4
94	99	2
115	115	3
112	125	1
56	58	2
12	12	8
118	129	2
15	44	5
60	61	1
1	1	2
18	29	1
128	130	1
94	96	1
124	125	5
124	124	2
47	74	1
63	92	1
83	86	1
85	122	2
105	130	3
105	112	3
26	28	2
19	29	1
123	123	3
57	57	4
84	85	4
4	14	2
55	78	1
92	93	3
101	121	3
19	23	2
122	123	3
16	47	3
115	116	5
88	98	1
16	115	1
55	71	1
15	27	2
109	109	1
62	70	2
103	112	3
107	115	2
29	43	2
44	45	1
23	118	1
95	99	2
6	24	5
111	123	5
89	89	2
58	85	1
4	5	3
90	96	2
96	96	4
10	44	1
62	73	1
123	125	2
88	92	2
113	113	2
112	114	5
30	33	1
134	134	1
67	68	2
128	128	1
22	26	2
61	62	1
58	70	1
36	47	1
100	110	1
99	99	1
13	13	1
92	94	4
23	25	1
70	71	1
36	40	2
26	37	3
102	104	1
55	74	1
6	23	2
73	98	4
24	24	3
20	25	1
6	38	3
65	65	1
101	101	1
49	119	2
92	96	1
61	72	1
117	126	1
116	116	1
96	97	1
86	92	1
87	87	1
101	120	3
70	85	2
18	18	3
9	118	2
90	90	1
5	6	1
90	92	2
47	66	1
36	39	1
31	32	2
117	121	2
14	30	1
17	44	1
62	62	2
72	75	1
118	134	3
92	92	4
125	125	1
82	82	1
13	14	1
12	13	1
106	115	1
63	91	2
17	18	3
88	110	1
57	58	2
27	28	2
0	120	1
75	75	2
0	18	1
19	20	2
0	3	1
83	94	1
15	17	1
86	117	1
113	133	2
38	39	1
27	27	3
97	99	1
22	36	2
20	32	1
72	73	1
7	38	1
87	99	2
17	23	1
127	131	1
6	8	1
101	133	1
122	122	2
0	17	1
114	116	1
22	33	1
30	41	1
89	95	1
114	131	1
79	79	1
125	126	1
45	70	3
21	49	1
93	94	1
107	134	1
57	59	1
11	35	2
65	68	1
27	41	1
40	40	1
15	85	1
83	87	1
98	99	1
116	117	1
99	100	1
41	41	1
0	1	1
