4	6	15
99	99	4
80	84	2
89	95	2
6	11	4
88	92	5
106	108	2
4	9	2
7	7	4
78	79	9
53	53	8
96	96	1
36	41	1
92	94	2
56	56	14
132	137	2
141	141	4
15	17	2
97	106	6
160	161	3
153	159	5
151	156	2
130	147	2
113	120	2
114	118	1
54	54	4
96	99	7
128	129	8
71	71	1
106	112	1
127	127	8
167	169	5
84	84	4
43	49	10
99	100	15
24	28	4
135	137	11
120	120	6
122	124	8
67	70	1
17	24	6
39	39	2
120	123	4
160	163	5
158	159	6
78	78	9
86	86	6
91	91	8
112	113	4
80	81	8
129	130	6
10	10	5
51	52	2
126	132	6
126	133	3
130	130	9
69	71	9
3	5	6
76	82	2
148	150	11
158	158	4
146	156	2
147	147	5
34	35	3
10	20	7
96	98	5
90	103	2
63	64	2
34	34	6
4	5	8
144	151	1
99	103	8
102	102	5
120	124	3
5	9	10
49	49	7
129	142	6
121	121	10
37	44	4
41	41	2
35	41	4
34	40	2
143	150	3
48	53	1
11	11	3
101	102	3
146	147	9
37	37	5
14	21	3
67	67	5
161	161	1
12	17	4
43	56	6
89	94	2
69	74	6
105	109	3
136	136	3
82	85	3
125	125	1
51	53	1
92	92	5
112	119	1
44	46	1
44	45	2
142	142	6
162	163	4
133	135	3
44	47	4
38	38	10
122	130	1
139	140	15
52	54	4
75	75	6
155	155	6
163	165	11
64	65	7
108	109	1
99	111	5
164	165	8
144	149	5
138	138	2
124	125	2
19	19	6
165	168	1
37	87	1
160	160	5
124	128	2
1	2	16
135	135	39
13	18	4
117	121	2
94	95	10
95	103	3
123	128	3
115	119	2
155	162	4
105	105	8
149	154	2
154	154	9
43	46	2
89	89	2
89	90	7
14	14	6
120	130	6
66	68	4
115	120	4
159	169	5
153	156	2
106	110	1
53	54	8
163	170	3
3	4	4
49	58	6
160	164	1
153	158	2
46	46	3
66	67	8
25	27	2
162	164	5
109	124	1
129	136	7
49	51	2
97	97	12
102	106	2
16	20	3
106	116	3
164	169	1
64	69	1
48	48	1
158	162	3
132	135	6
106	107	4
109	112	3
75	77	4
4	10	1
93	94	3
141	145	4
6	6	3
8	8	5
73	83	3
18	18	18
157	157	4
63	63	8
148	148	4
132	134	4
45	45	3
91	98	3
45	46	1
76	88	1
38	39	2
135	136	4
119	124	5
154	169	1
47	47	3
19	25	2
44	55	3
16	17	2
162	162	12
142	150	1
135	138	3
156	156	12
154	155	2
126	126	2
166	166	5
152	152	6
12	16	2
88	90	4
147	158	5
55	55	4
127	131	5
119	122	2
106	122	3
4	8	4
76	76	1
72	74	4
90	90	9
104	108	4
14	15	2
16	24	2
162	167	3
50	50	11
35	35	9
144	144	5
91	92	2
2	4	5
69	69	5
3	6	4
5	5	5
145	155	2
36	43	1
12	14	1
124	124	5
33	39	1
49	50	3
136	138	2
163	164	1
114	117	2
57	82	2
98	103	3
0	2	1
131	131	3
34	39	3
116	117	6
3	3	7
112	112	3
52	53	6
0	0	4
109	109	5
2	3	1
40	41	3
68	73	1
110	114	3
36	37	3
88	88	7
151	151	7
44	44	5
0	3	4
43	43	13
15	15	4
32	38	3
124	129	4
48	51	3
8	9	3
118	119	3
7	9	10
96	105	2
22	22	1
103	104	2
135	140	2
165	170	1
1	13	3
53	55	1
151	154	1
101	101	5
131	137	1
163	163	9
159	161	5
3	7	3
91	94	2
68	69	9
170	170	4
168	169	3
78	81	2
136	141	1
81	82	8
22	24	3
115	123	1
149	150	9
8	10	2
153	160	3
84	94	1
40	44	5
106	115	2
107	108	3
117	124	3
42	43	5
121	123	3
143	145	2
2	2	11
86	89	3
72	76	3
153	154	4
145	146	3
111	116	2
0	13	1
123	123	2
28	33	4
79	80	2
134	134	5
132	132	5
130	131	1
9	9	7
164	164	6
117	119	3
103	103	4
72	72	1
65	67	1
85	87	2
86	94	4
134	142	5
39	42	3
95	96	3
111	111	3
96	104	2
46	47	5
168	168	4
154	156	3
166	167	3
14	18	2
5	12	2
13	13	6
133	133	2
11	14	3
2	8	3
44	72	2
150	154	3
52	55	2
96	100	1
73	75	3
76	85	1
5	7	3
23	23	6
64	64	1
74	76	3
147	150	3
94	98	1
159	159	5
161	162	1
19	24	4
153	157	1
78	94	2
128	130	6
110	111	3
41	42	4
75	78	3
107	107	4
21	21	5
1	1	4
84	87	4
95	95	5
0	5	2
97	98	3
14	17	2
23	36	4
143	148	1
42	42	12
116	116	4
154	168	2
25	25	2
132	143	1
8	15	1
49	52	5
141	157	5
27	33	3
0	9	4
19	21	2
90	97	7
45	48	2
56	57	4
129	129	1
86	87	1
157	158	1
43	51	2
70	72	2
122	141	1
114	122	3
154	157	2
35	37	3
55	57	2
140	144	1
83	83	4
27	28	3
112	118	1
113	113	4
118	125	2
131	132	3
125	126	2
36	39	2
114	115	7
137	138	4
107	110	4
105	106	2
126	131	1
132	133	1
114	114	5
162	165	2
123	126	3
17	17	3
74	75	6
145	145	2
145	147	7
107	111	1
142	146	1
15	16	2
12	15	3
51	51	3
133	144	3
161	169	4
28	34	1
103	107	1
10	12	2
104	107	1
5	14	5
98	105	1
124	133	1
133	134	3
87	88	3
125	133	5
149	149	4
17	20	2
163	166	4
128	132	5
130	135	3
151	153	3
90	91	3
75	80	2
111	113	2
18	25	1
100	100	6
39	72	2
36	40	2
83	85	5
165	165	1
114	119	4
161	163	2
150	150	4
65	70	3
125	131	1
37	38	5
146	153	2
118	118	6
81	81	3
82	84	5
139	139	4
117	118	4
11	15	2
127	136	1
45	58	1
5	10	1
140	141	1
46	55	1
47	51	3
78	88	4
6	9	2
108	110	3
51	55	1
38	44	1
140	140	2
62	63	1
98	99	1
27	27	5
107	109	2
116	119	3
37	39	1
141	146	1
111	112	6
169	170	3
73	73	4
134	143	2
47	48	2
119	119	4
119	121	2
50	55	2
77	84	1
17	18	2
3	15	4
108	108	1
41	46	2
65	65	3
136	143	4
138	139	2
97	103	1
87	90	1
85	85	1
10	11	2
2	13	2
145	156	2
145	168	3
40	40	3
153	153	1
45	72	1
89	91	1
67	69	1
74	78	3
34	36	3
69	77	2
131	138	3
67	71	1
54	56	1
83	86	1
154	161	2
117	117	1
66	69	2
156	169	2
137	137	2
117	120	2
63	65	2
72	77	2
5	6	1
159	162	1
45	57	1
125	129	2
139	141	1
118	126	2
127	133	1
86	96	2
133	136	4
36	36	2
165	166	2
95	104	1
135	143	3
4	7	4
100	102	2
41	43	1
96	97	1
131	136	1
156	167	1
6	8	1
76	78	3
8	16	4
149	156	2
105	114	1
129	140	2
130	132	1
13	14	3
57	57	2
20	20	3
90	99	3
28	28	2
167	168	1
50	58	1
4	4	2
145	149	1
43	44	5
6	10	1
109	110	3
26	26	1
70	79	1
102	103	2
38	46	1
43	58	1
52	52	2
88	97	1
75	79	2
124	130	1
83	90	1
84	86	1
97	100	1
156	168	2
100	106	2
160	166	3
99	101	1
98	108	2
125	128	1
94	94	1
99	105	1
113	119	1
97	99	3
126	127	1
73	76	2
68	75	2
65	66	1
1	4	2
140	142	2
3	9	3
23	25	2
71	76	1
150	151	3
129	134	1
152	157	1
73	77	1
44	85	1
18	40	1
21	23	1
67	74	2
68	68	1
120	121	2
94	99	2
13	15	2
39	43	2
45	47	1
158	160	5
138	148	1
19	20	1
89	92	6
112	114	1
39	70	1
137	140	1
12	18	1
104	114	1
133	138	1
135	139	1
82	82	1
94	96	2
101	108	1
76	87	1
131	133	1
24	26	1
98	98	1
78	85	1
56	62	1
18	20	1
104	104	2
45	52	1
157	164	1
1	15	1
17	21	1
75	76	1
127	128	1
109	115	1
13	17	1
163	168	1
87	87	1
77	88	1
152	161	1
58	68	1
37	78	2
138	142	1
128	131	1
129	132	1
122	122	2
144	148	1
143	143	2
57	63	1
24	25	1
18	19	2
168	170	1
129	138	1
143	151	1
19	26	2
153	155	1
49	53	1
20	21	1
17	22	2
78	82	1
150	152	1
164	166	1
81	83	1
113	114	1
93	93	1
14	20	1
12	19	1
24	24	1
9	10	1
144	146	1
37	77	1
110	116	1
158	164	1
134	139	1
52	56	1
12	12	1
63	82	1
156	157	1
104	111	1
23	26	1
36	45	1
18	21	1
72	78	1
137	141	1
7	17	1
88	103	1
136	139	1
120	129	1
151	152	1
83	92	1
38	41	1
47	49	1
39	40	1
125	134	1
