106	106	6
113	115	4
66	70	3
48	48	2
122	122	8
77	80	1
52	53	4
71	97	4
61	61	12
13	16	6
90	90	7
119	120	2
108	111	1
36	76	2
45	45	7
11	15	5
74	74	4
103	103	5
17	18	6
102	102	17
105	105	6
27	27	19
72	72	7
76	76	11
45	48	1
109	109	4
79	79	7
88	89	3
124	124	4
7	11	1
129	129	7
66	71	1
108	108	6
98	99	6
69	69	7
130	130	5
114	114	7
92	95	3
25	25	6
37	37	5
88	88	8
59	59	7
90	91	2
57	58	2
9	9	10
52	92	1
66	66	10
113	113	7
106	113	4
7	7	12
17	17	18
12	15	5
27	28	2
128	129	4
94	95	5
23	24	2
34	34	6
89	89	11
64	64	4
76	98	1
96	101	1
29	124	3
28	32	3
36	36	4
19	24	2
52	52	6
118	118	14
70	70	11
93	93	9
60	60	8
14	14	5
4	4	7
5	6	2
94	94	8
13	13	8
63	63	5
3	8	1
54	69	1
98	98	7
62	63	2
19	19	4
126	126	6
21	21	8
52	66	5
86	86	3
100	101	8
121	124	2
65	65	3
35	35	6
37	56	1
85	85	7
18	20	1
32	34	5
91	99	3
11	13	2
72	96	2
104	104	12
43	43	4
4	5	3
26	27	2
19	23	3
62	62	6
20	20	6
55	55	3
28	127	1
78	80	2
32	35	2
92	92	10
71	87	3
58	59	4
67	68	4
56	58	3
0	0	3
113	120	5
73	73	5
62	70	3
15	15	5
131	131	4
92	93	2
8	8	1
1	11	2
64	65	15
9	11	2
3	3	6
97	97	2
101	101	4
54	54	3
1	2	2
18	24	4
86	88	1
11	12	2
114	115	4
31	32	1
102	103	5
22	22	6
23	25	6
45	90	1
71	71	6
119	119	5
66	67	3
79	96	1
18	19	4
115	117	1
133	134	1
52	55	4
28	28	4
132	133	1
28	124	3
106	124	2
127	127	7
116	117	2
57	57	3
122	123	5
26	128	1
91	91	4
71	72	2
133	133	8
21	22	1
16	17	8
16	16	5
106	107	1
26	26	2
43	99	3
109	110	3
28	128	1
117	117	2
23	23	2
103	104	3
121	121	7
49	49	1
118	119	2
102	104	4
115	120	2
12	14	1
44	44	6
34	35	5
110	110	9
65	66	3
120	123	1
56	57	3
71	89	1
87	90	1
17	22	1
18	23	3
50	50	4
117	118	3
33	33	3
76	77	3
107	107	3
86	92	2
60	61	2
30	38	1
104	105	1
127	129	2
29	125	4
89	90	3
113	114	9
2	2	5
102	126	3
124	127	2
108	112	2
5	5	3
1	85	5
13	14	2
30	124	2
73	76	2
124	126	1
52	54	6
82	82	4
96	96	5
29	29	9
30	30	4
70	71	10
135	135	1
11	11	3
32	57	1
6	21	1
65	68	3
125	125	5
126	129	1
6	6	3
112	112	1
99	99	4
53	53	3
47	87	1
29	33	3
107	110	2
76	97	3
35	36	3
49	50	3
69	71	1
121	122	1
36	57	3
19	20	1
75	75	6
60	90	2
28	30	1
80	80	11
12	12	9
100	100	6
1	3	2
50	54	1
27	29	3
79	80	3
33	35	2
115	116	2
32	33	1
47	126	2
119	122	2
78	131	5
42	44	1
0	71	1
24	28	2
32	32	5
109	122	4
82	98	2
25	28	2
120	122	1
24	24	3
82	83	1
36	77	1
99	105	2
107	129	3
79	133	5
22	26	1
18	18	4
5	7	2
100	106	2
117	131	2
0	69	1
132	132	8
83	100	1
3	133	1
89	93	1
9	13	1
108	109	4
8	9	1
107	135	1
20	22	2
31	31	3
44	100	1
1	10	3
69	89	1
83	84	1
75	76	1
35	37	2
118	120	1
83	93	1
107	108	1
96	100	1
119	121	1
95	95	4
77	96	1
50	52	1
79	97	3
130	132	2
29	54	1
72	73	2
118	132	1
7	10	3
14	19	2
91	92	1
130	131	2
123	123	3
8	10	1
86	87	1
17	19	1
29	56	1
3	9	1
44	53	1
51	52	1
74	129	1
54	55	1
44	45	1
59	60	1
32	36	1
129	131	1
29	58	1
49	93	1
101	109	1
8	11	1
45	127	1
56	66	1
78	79	1
3	72	1
120	121	1
48	53	1
38	38	1
26	129	1
125	127	1
33	76	1
77	133	1
9	19	1
0	1	1
63	64	2
31	33	1
7	8	2
24	132	1
130	134	1
130	133	2
107	111	1
109	128	1
32	98	1
1	83	1
107	132	1
33	34	1
3	6	1
111	115	1
21	24	1
