40	40	12
5	13	1
76	76	13
55	56	1
61	61	7
74	74	18
53	53	6
43	43	10
38	38	17
9	9	15
34	55	1
51	51	3
13	13	10
73	73	16
22	22	17
34	34	2
32	63	1
71	71	12
44	73	1
56	57	3
41	41	6
25	25	11
18	18	10
63	63	9
4	4	8
23	23	8
3	3	11
57	58	4
30	30	10
37	39	1
5	7	3
11	12	7
8	8	7
10	10	12
39	39	9
22	23	3
1	1	14
36	36	3
50	50	11
2	3	5
0	1	4
47	47	20
39	40	6
1	22	3
0	0	20
58	64	9
7	7	8
28	28	2
5	9	1
32	33	1
2	21	3
72	74	4
48	48	8
26	26	10
35	36	2
45	45	15
1	2	3
54	54	12
30	75	1
67	67	13
21	21	21
43	44	3
29	29	13
57	57	7
7	8	5
24	24	6
75	75	9
9	10	3
1	3	4
3	26	3
18	19	5
74	76	3
49	49	19
9	21	1
29	38	1
19	19	11
31	31	2
23	52	2
46	46	8
61	64	2
52	54	2
69	69	7
49	50	6
32	32	8
56	74	3
56	56	15
7	20	1
23	58	2
18	30	1
58	58	14
20	20	11
34	43	1
41	44	1
65	65	7
33	33	8
31	46	1
22	24	2
38	51	3
71	75	2
55	58	3
37	72	2
54	55	3
0	2	2
42	71	4
11	11	5
23	24	6
34	36	3
30	61	1
42	43	4
77	77	9
69	76	1
72	72	6
75	76	5
35	44	2
46	47	4
42	42	7
34	74	1
37	57	2
25	27	1
37	37	5
29	30	5
55	55	10
66	66	5
24	41	3
41	42	5
72	73	3
3	43	2
49	70	2
38	41	3
26	27	2
63	66	2
25	26	3
34	35	3
62	62	4
60	72	1
70	71	1
33	61	2
68	69	1
28	36	1
44	46	1
9	12	3
35	42	1
6	7	6
21	60	3
2	12	2
31	32	3
42	45	1
66	67	4
40	41	4
12	13	2
38	44	2
57	59	1
52	53	2
49	76	4
8	19	8
51	73	1
19	55	1
42	73	1
44	45	10
10	12	1
5	5	1
59	59	7
43	48	2
62	63	3
71	72	1
39	77	1
12	12	3
60	60	5
2	2	10
33	34	6
61	62	2
9	42	2
44	44	6
69	71	1
71	74	2
5	6	1
15	15	1
23	25	3
69	70	1
55	62	1
51	52	1
53	54	6
34	60	2
24	52	1
27	27	1
5	8	3
51	75	3
7	13	2
35	35	3
24	42	2
68	68	5
20	73	1
27	28	4
34	44	1
38	39	2
6	6	2
52	52	2
30	39	2
4	40	1
3	40	1
40	42	1
33	59	1
64	64	1
57	74	1
23	56	1
51	77	2
56	60	1
36	38	2
59	60	1
39	42	1
39	56	1
51	55	1
50	56	1
7	73	1
28	52	1
74	75	1
35	38	1
39	48	1
47	48	1
58	62	1
55	60	1
