47	47	5
127	128	3
74	74	10
239	239	5
166	166	7
37	40	4
25	26	2
192	192	2
201	201	4
219	219	1
29	29	7
124	124	6
17	17	12
75	75	8
96	97	2
158	158	4
124	126	4
116	168	3
145	145	12
180	180	4
234	234	5
105	105	10
172	172	6
88	88	4
41	88	1
113	113	9
136	136	4
74	76	3
55	55	2
21	22	6
44	44	5
199	199	3
220	222	2
229	233	1
154	161	1
49	49	5
180	181	1
236	237	5
112	112	5
101	207	5
15	15	2
63	99	3
137	137	3
98	98	3
162	168	1
160	160	2
149	151	3
215	216	1
188	188	8
120	121	2
242	242	8
54	54	5
150	151	1
145	146	1
178	178	3
208	211	12
59	59	4
60	60	5
42	42	13
180	182	3
30	34	2
214	214	5
140	167	4
232	233	5
2	5	1
183	183	6
61	61	13
69	209	3
159	160	3
153	159	3
102	102	1
139	141	3
151	152	2
126	126	3
179	201	2
128	128	4
240	240	4
122	124	4
62	62	3
194	194	2
63	63	3
77	77	2
202	202	10
33	34	2
9	147	4
189	189	6
233	234	5
28	28	3
80	81	3
111	111	9
152	153	3
201	218	3
23	44	2
228	228	2
119	120	1
153	154	1
25	25	3
30	30	6
24	25	1
12	12	3
3	102	3
24	24	8
142	142	4
147	149	2
23	23	2
82	82	4
45	81	2
231	232	2
64	203	2
204	205	2
13	15	1
52	52	5
197	197	3
10	10	4
220	220	6
179	179	4
35	46	3
105	146	3
157	157	10
100	101	2
9	9	3
116	117	5
53	54	4
12	13	4
202	203	1
153	153	5
10	55	3
222	223	1
83	83	2
86	86	10
46	46	1
238	238	3
159	172	2
139	140	2
84	84	7
173	173	8
68	68	3
3	3	2
171	171	7
67	69	1
35	91	2
164	166	7
67	67	3
192	194	1
212	212	5
151	151	5
45	45	10
116	124	2
144	149	1
191	192	1
134	134	5
211	211	2
163	163	4
49	50	2
85	85	4
22	22	2
6	6	6
26	26	3
95	99	3
131	131	1
155	162	1
21	21	3
24	180	1
37	37	6
69	208	3
117	122	1
70	202	1
156	156	5
222	222	3
216	218	3
121	127	2
117	117	6
82	83	3
215	218	3
200	200	1
129	197	5
126	222	1
51	51	1
121	121	6
11	11	1
32	33	2
133	133	2
221	221	7
100	100	5
241	241	2
51	52	1
66	67	2
97	172	2
95	171	2
209	209	4
128	179	4
53	53	6
130	130	5
105	148	2
201	215	1
32	32	3
215	217	1
35	35	2
99	99	5
27	27	6
0	0	3
2	7	4
69	69	7
198	201	1
56	57	3
225	225	2
223	223	1
109	109	3
57	57	5
84	85	1
207	208	2
24	181	1
165	166	3
76	76	1
233	233	4
229	229	1
184	225	2
48	48	1
226	226	1
152	152	4
22	91	1
72	72	1
17	99	3
184	186	2
173	174	3
138	149	4
0	1	1
239	240	4
105	142	2
92	110	4
70	70	5
103	108	2
58	59	2
193	194	2
232	232	4
230	230	5
139	168	1
104	142	1
34	34	2
73	73	2
221	224	2
181	183	1
182	217	1
18	18	2
199	201	2
108	108	1
164	164	3
44	86	1
103	197	3
26	29	1
64	179	2
214	215	3
17	101	2
159	159	3
187	188	3
104	104	3
139	151	1
144	144	5
79	79	3
133	170	1
119	119	5
13	14	1
71	72	3
73	75	1
210	210	1
30	31	2
4	4	1
29	30	1
21	91	1
176	176	4
50	51	2
0	32	2
2	2	3
148	148	2
182	182	2
26	233	1
71	82	1
119	127	2
80	80	1
64	66	2
41	80	1
243	243	1
7	7	1
239	241	1
101	101	4
146	146	3
123	123	3
183	190	1
125	127	1
11	13	1
193	196	2
31	33	1
104	105	2
184	226	1
208	208	2
202	218	2
195	195	3
179	192	2
155	156	4
114	123	1
66	66	2
130	131	1
165	169	2
220	226	1
23	90	1
103	134	4
26	31	3
49	54	1
115	115	2
195	197	1
11	12	2
102	108	4
183	184	2
180	201	2
65	66	3
28	29	2
191	191	1
138	147	3
103	103	2
97	97	3
165	165	1
64	109	1
1	1	1
196	215	2
143	149	2
118	118	2
70	71	2
186	186	2
122	222	1
218	218	1
107	107	3
162	162	3
182	202	1
122	122	2
216	216	2
107	200	2
99	100	1
8	9	1
182	218	1
214	216	1
180	217	2
6	102	1
148	149	1
143	143	1
128	172	1
106	131	1
58	58	2
181	218	1
18	19	1
187	191	3
174	177	2
111	116	2
19	19	2
116	116	1
128	136	2
103	105	1
5	5	1
73	77	1
212	213	1
131	193	1
158	159	1
32	97	1
138	138	1
125	125	2
31	31	1
155	161	1
5	6	1
6	9	1
106	132	2
184	217	1
65	65	1
78	78	1
189	190	3
196	198	1
71	71	1
118	119	2
42	87	1
160	164	1
174	174	1
137	170	1
45	83	1
231	231	3
103	104	1
177	178	1
39	39	2
116	162	1
184	185	1
