34	34	9
101	101	7
86	87	3
23	23	8
108	119	2
126	132	3
31	31	7
17	17	10
113	115	2
84	85	10
33	33	8
53	53	9
57	57	6
44	45	4
1	2	8
23	24	2
89	89	4
111	111	7
64	67	9
92	92	8
1	27	1
8	28	1
25	25	7
22	36	4
46	49	2
102	102	7
50	52	3
111	112	6
10	31	3
4	30	5
108	110	6
109	112	3
76	76	6
5	7	4
0	0	10
13	19	1
115	118	3
95	120	2
67	69	1
18	21	1
15	15	3
104	105	6
74	74	10
83	117	1
1	1	5
130	130	11
32	32	14
7	11	5
6	6	7
56	56	6
63	70	4
82	82	9
21	21	8
84	84	6
14	14	10
78	111	4
97	97	12
95	123	4
43	43	5
73	73	4
123	126	2
108	108	10
77	77	2
18	19	3
118	119	7
30	32	4
9	9	5
10	10	8
36	36	8
21	22	9
127	128	3
100	100	5
80	126	1
60	60	7
58	61	1
112	112	5
69	69	3
45	54	1
22	22	13
45	85	2
62	69	3
28	28	8
98	131	3
70	70	16
3	3	7
0	1	11
35	35	6
66	66	5
75	75	8
8	8	7
18	18	3
18	23	2
90	90	8
119	119	3
12	12	14
6	7	3
79	79	5
92	132	1
97	123	3
25	28	5
84	107	6
78	107	6
36	37	3
22	59	3
97	100	1
3	5	2
22	23	6
13	13	18
82	85	7
44	44	16
82	113	4
98	129	2
55	55	7
86	86	3
83	83	3
19	26	2
109	109	4
114	114	10
95	119	2
58	58	2
133	133	6
19	20	5
96	96	10
16	16	4
92	94	5
20	21	8
45	45	2
119	120	2
124	124	14
77	78	2
66	68	4
72	80	6
80	81	4
6	11	1
62	62	6
71	73	3
86	110	2
122	125	4
46	46	8
129	130	4
67	67	5
124	128	3
43	115	3
26	29	1
3	37	3
91	94	3
91	91	14
63	65	1
43	68	4
19	22	2
116	116	2
118	118	11
4	4	3
97	101	3
108	109	4
27	27	10
52	53	7
20	20	11
62	63	2
77	125	1
50	50	11
110	122	2
38	38	4
79	87	4
2	2	9
104	104	7
73	75	2
78	78	10
134	134	3
43	49	3
43	66	2
87	87	5
53	54	3
107	108	2
105	105	2
37	38	4
4	14	2
19	19	4
1	30	5
80	80	11
33	34	2
7	7	8
5	5	6
82	83	5
131	131	2
81	105	3
96	130	2
77	121	1
57	59	1
83	113	2
91	92	2
93	93	7
54	76	1
99	99	2
10	17	3
50	51	4
80	95	1
127	127	2
21	36	5
57	60	5
121	121	1
56	57	3
49	49	4
98	98	4
3	31	1
125	126	3
112	113	5
57	58	5
11	30	2
64	65	2
120	120	3
117	122	3
128	128	2
26	28	4
71	71	5
91	108	1
108	127	2
72	72	2
32	33	2
121	122	2
65	65	7
110	110	5
31	35	3
113	113	5
5	37	1
49	67	2
13	18	1
1	33	1
3	4	6
13	30	4
9	10	1
51	83	1
89	90	6
43	113	3
5	6	1
97	98	3
101	102	3
129	129	4
97	124	1
74	75	1
105	116	1
79	90	3
15	16	1
30	30	4
11	11	4
93	132	1
87	89	3
4	22	2
7	8	1
79	80	2
130	131	2
54	56	3
54	54	7
25	27	1
17	18	1
132	132	8
16	32	3
110	111	1
5	13	3
7	31	3
52	54	1
118	120	2
61	61	5
106	119	1
16	17	2
85	126	3
58	60	1
52	52	2
99	134	2
23	60	1
81	81	4
125	125	2
8	9	6
2	23	2
106	121	2
42	43	5
124	125	2
20	26	3
96	98	2
3	29	2
81	83	1
23	35	1
95	126	2
63	69	1
31	32	2
22	61	1
92	93	5
117	118	2
115	117	3
106	109	3
44	50	3
0	3	3
1	4	6
109	118	1
122	122	2
44	64	2
59	60	1
78	122	2
123	123	2
2	28	2
5	14	2
107	111	1
77	112	3
126	126	2
106	106	6
114	115	2
106	132	1
17	27	2
42	42	1
31	33	1
75	79	1
59	59	3
97	129	1
86	106	4
117	128	1
88	110	1
108	113	1
78	79	3
95	95	2
103	103	2
44	49	2
26	26	1
106	114	2
81	119	1
113	121	1
3	30	3
107	107	2
25	32	3
106	107	3
65	66	1
29	30	5
27	57	2
0	15	2
94	132	2
90	91	1
37	37	1
82	86	3
77	113	1
32	34	1
22	60	2
29	29	2
73	126	2
26	57	1
96	97	1
9	31	2
115	115	1
79	125	4
126	131	3
25	29	1
19	27	3
49	50	1
85	85	3
30	62	1
35	36	1
86	94	1
108	122	2
94	95	2
45	53	1
58	63	1
135	135	1
83	118	1
81	113	2
77	106	3
125	128	2
59	61	1
16	18	1
90	111	2
83	84	1
107	132	1
122	123	1
44	47	1
9	11	2
96	129	1
118	122	1
66	67	1
75	76	1
30	43	1
27	28	1
14	15	1
109	114	1
106	122	1
24	24	1
99	101	1
77	114	1
87	88	1
107	121	1
37	56	1
70	71	1
131	134	1
37	55	1
80	86	1
