162	163	3
186	186	1
42	45	7
82	83	1
104	125	2
159	159	7
236	236	5
126	127	1
18	20	3
75	75	2
235	235	1
48	48	2
80	80	4
102	113	1
207	208	11
185	185	4
205	205	4
27	27	3
206	207	4
220	241	1
234	234	11
129	129	5
187	187	12
165	165	4
54	78	4
100	102	4
184	184	3
38	38	6
215	215	2
217	217	7
120	121	3
70	70	4
50	50	8
177	219	3
124	126	4
176	177	4
25	70	4
14	15	7
175	217	2
147	148	3
57	58	7
197	197	1
239	239	3
132	133	2
174	175	8
48	68	2
143	143	6
49	49	1
230	230	4
25	25	2
88	91	4
231	236	5
57	57	6
207	207	7
104	104	4
173	173	9
60	60	3
43	43	4
83	83	8
158	158	1
34	35	1
112	112	1
212	213	4
160	160	4
163	163	2
187	223	2
200	200	3
79	79	1
170	190	2
99	99	4
197	216	6
141	144	1
206	206	3
219	219	4
98	99	3
147	149	4
64	65	3
216	216	4
227	227	4
115	115	4
75	76	4
161	161	10
10	63	1
230	231	2
139	139	5
144	144	5
164	164	3
69	69	5
125	125	3
153	154	1
30	30	3
193	193	5
46	46	2
228	231	1
141	143	1
59	59	4
77	77	6
4	7	1
144	147	2
127	160	1
52	52	3
10	10	5
18	18	5
123	124	5
3	3	4
225	226	2
170	172	1
136	136	9
36	36	6
101	101	3
47	47	5
18	19	1
2	131	1
106	106	2
25	26	1
32	37	1
214	214	2
138	138	7
149	149	6
179	180	2
202	202	1
181	181	8
34	34	2
150	150	3
233	234	4
145	146	6
46	47	2
48	121	5
186	216	1
207	209	3
181	183	3
24	25	1
23	24	2
222	222	3
235	236	2
139	140	5
54	55	1
9	64	3
242	242	1
63	63	3
26	26	2
138	145	2
113	113	5
144	148	2
18	21	5
194	195	3
62	62	5
106	198	5
33	33	4
64	64	2
228	228	3
33	37	2
85	85	4
174	174	5
77	79	4
177	218	2
204	204	3
172	172	4
167	168	2
210	210	1
169	172	1
17	17	1
221	234	1
54	54	4
137	137	1
135	136	1
62	65	2
134	135	2
203	203	4
198	198	3
73	73	1
192	192	3
157	157	4
46	68	1
29	66	1
213	213	5
177	187	2
194	194	3
209	210	3
153	153	3
55	55	2
10	145	1
57	75	1
168	168	4
20	23	2
110	111	6
9	9	3
218	218	1
58	58	6
43	44	1
208	208	3
183	183	3
196	196	1
156	157	1
82	82	1
26	62	4
183	184	1
112	199	3
13	14	1
102	151	1
32	32	4
28	29	2
169	169	5
10	136	1
146	146	4
85	144	1
225	228	4
30	35	1
142	143	1
117	117	2
11	11	3
201	202	1
13	13	2
195	195	7
142	142	6
164	190	4
39	39	3
134	134	1
1	120	1
50	51	4
157	198	2
159	163	2
131	135	4
193	194	2
100	128	1
197	217	1
59	88	3
181	182	1
238	238	2
233	233	1
6	6	1
137	146	1
36	37	1
86	86	2
167	167	4
3	137	1
201	201	4
16	88	2
42	42	1
231	231	2
170	170	1
3	7	1
7	7	1
206	208	3
177	177	4
114	123	1
171	171	2
57	59	1
46	48	2
111	123	1
40	40	1
74	74	3
16	16	4
128	128	2
76	76	6
232	233	3
30	31	2
2	122	1
209	209	4
37	38	1
61	61	3
21	21	5
41	46	1
65	65	1
236	237	2
211	211	2
182	185	1
162	196	2
102	160	1
130	130	1
118	118	3
223	223	5
51	128	1
7	8	2
12	16	2
98	98	1
188	188	2
26	27	1
135	135	2
24	24	2
4	79	2
83	84	1
45	65	2
180	180	1
5	133	1
178	224	3
15	17	3
56	57	3
217	218	1
40	42	1
182	182	1
172	173	2
179	183	1
44	119	1
202	203	2
4	5	2
154	156	2
144	145	1
153	205	2
225	225	2
21	22	1
10	135	1
130	131	1
120	120	1
60	79	1
11	138	1
156	156	2
140	140	1
107	109	1
179	206	1
123	199	1
241	242	2
122	124	1
49	73	1
85	146	2
132	132	1
112	152	1
62	63	2
129	143	3
44	44	1
114	115	1
241	241	1
166	166	3
112	157	1
238	239	1
191	193	2
148	148	1
151	151	1
184	225	1
134	161	1
210	211	2
192	194	2
188	189	1
5	132	1
152	152	2
222	228	1
14	81	1
105	127	2
163	165	1
80	81	2
101	150	2
53	53	2
103	110	1
22	22	1
45	47	1
176	219	2
97	98	1
4	4	1
218	220	1
133	133	1
163	164	1
178	178	1
231	235	1
164	165	1
212	212	1
155	155	1
144	146	1
22	24	1
222	224	2
180	183	1
223	224	1
20	20	1
159	161	1
