88	90	2
68	69	18
22	106	2
96	97	8
77	77	11
98	98	14
40	40	6
36	36	21
33	33	12
30	30	10
85	85	11
67	67	17
51	52	8
64	69	7
106	106	5
83	83	5
39	39	16
74	75	9
76	76	11
87	87	5
90	90	10
80	80	9
88	89	5
22	72	3
33	34	5
29	69	2
79	80	2
67	77	4
74	76	4
63	63	14
58	58	13
30	53	5
102	102	3
50	50	17
58	72	4
97	97	20
26	27	11
22	58	5
61	62	10
42	42	14
89	98	3
39	65	2
41	41	3
30	79	2
25	26	6
72	72	5
31	34	2
57	57	8
61	88	2
32	32	15
73	74	1
40	41	10
28	29	4
50	51	11
24	24	10
37	37	5
20	20	7
95	96	7
39	80	9
55	55	16
100	101	2
92	92	21
32	33	6
80	81	1
54	54	15
21	70	2
71	71	10
48	48	4
95	95	5
20	21	11
31	31	11
52	52	8
77	100	2
39	54	2
55	57	5
51	96	4
30	31	1
64	64	5
89	89	16
75	75	12
65	65	15
20	71	6
35	35	23
61	61	19
27	27	15
56	56	16
56	101	6
43	43	12
106	107	2
76	103	2
96	96	8
76	99	4
51	51	27
104	104	16
30	49	4
74	74	6
71	72	11
93	93	19
54	89	6
53	53	6
82	82	21
28	28	5
54	98	3
70	71	10
47	87	2
63	87	1
26	33	3
59	59	11
49	49	11
44	44	13
65	66	4
31	33	1
69	92	4
102	105	2
22	22	7
52	99	5
69	69	8
34	34	7
101	101	11
50	52	1
60	62	1
60	61	4
45	45	8
35	36	6
46	87	2
94	95	6
56	57	10
54	55	1
70	70	16
68	68	5
25	29	8
30	62	2
30	33	4
72	73	2
105	105	17
94	94	7
58	73	2
99	99	6
62	62	12
58	59	3
27	30	2
81	81	11
31	32	1
65	68	5
84	84	4
93	100	3
50	84	2
86	86	2
23	23	13
89	90	5
55	56	4
73	73	7
66	67	2
39	40	2
20	60	2
101	102	5
36	37	2
94	102	3
29	29	10
41	46	3
37	55	2
22	23	2
48	49	8
24	52	3
45	81	2
53	99	3
26	26	13
60	60	9
93	94	1
41	80	4
67	94	1
50	55	1
83	84	3
84	86	5
62	90	3
88	88	4
38	39	6
84	85	4
66	77	2
79	79	5
49	54	3
103	103	6
76	96	2
94	100	3
98	99	7
23	24	3
42	46	1
63	64	3
24	55	2
91	91	11
69	70	4
77	101	2
35	75	3
31	78	4
96	99	3
67	68	1
58	78	5
56	58	1
50	54	5
55	104	4
66	69	1
50	57	1
27	29	3
29	30	5
33	54	2
36	72	1
22	71	3
38	46	3
40	45	1
52	53	2
39	81	3
47	47	1
38	45	3
45	46	2
82	83	3
31	56	1
81	82	1
27	32	1
97	98	3
24	25	1
26	28	1
76	77	2
21	21	7
44	63	2
23	107	1
100	100	4
92	93	2
49	83	1
78	78	3
24	78	1
42	44	2
46	49	3
79	81	2
92	94	1
37	73	4
40	84	1
68	70	2
40	81	3
25	27	5
33	53	1
38	88	2
43	44	2
22	85	1
62	63	4
40	43	1
66	81	3
25	25	2
90	102	1
75	76	5
20	65	1
60	79	2
26	80	1
69	93	1
36	71	1
34	64	2
55	77	6
23	58	2
102	103	2
30	78	1
71	93	1
103	104	1
70	78	3
49	86	1
82	85	1
77	97	1
49	84	1
72	92	1
45	62	1
25	80	2
64	65	2
59	60	1
28	47	2
99	100	1
25	62	1
23	105	1
41	43	2
56	100	2
82	88	1
34	35	2
103	106	1
21	60	1
66	104	2
40	80	1
63	89	1
66	101	1
77	95	1
63	88	1
52	100	1
