36	36	5
30	30	1
103	105	4
93	97	5
92	104	6
65	65	6
91	114	6
89	89	1
110	110	16
59	60	4
44	47	2
39	39	5
42	42	4
102	102	3
31	47	2
19	27	1
20	31	1
74	76	3
29	51	4
26	32	4
80	105	2
37	43	2
81	95	2
106	106	5
94	94	5
24	31	1
91	111	3
55	56	4
46	76	3
55	55	1
25	27	2
70	70	6
72	73	4
34	34	1
99	106	3
61	78	2
81	81	6
93	93	2
33	40	2
71	72	8
23	23	4
108	110	2
31	40	2
31	39	6
113	114	6
39	56	1
79	85	6
36	37	4
45	45	3
30	35	1
23	27	3
53	53	3
59	70	2
63	77	5
76	85	4
41	50	2
109	109	2
20	38	2
53	54	3
106	107	2
49	51	1
88	97	3
52	53	3
61	63	2
64	74	2
20	22	5
33	56	1
59	71	1
77	86	7
108	109	1
63	65	3
22	28	2
87	109	5
49	73	2
73	89	1
74	84	5
65	67	3
22	23	3
41	62	7
65	70	5
71	71	3
90	90	3
113	115	3
82	82	3
33	51	1
42	59	2
37	39	4
22	25	3
66	72	4
93	98	1
36	39	1
22	32	2
46	69	6
46	46	3
88	89	1
98	101	3
101	105	2
80	93	4
73	79	1
62	64	1
40	45	3
83	84	2
68	76	1
37	49	2
77	81	8
62	83	5
51	53	2
88	88	7
105	105	3
73	77	1
48	52	1
92	98	1
32	44	1
73	74	1
57	57	5
111	114	3
107	113	4
67	70	2
28	51	2
112	114	1
62	62	3
58	71	2
21	31	2
26	36	2
62	63	4
47	47	4
22	22	1
31	41	1
50	50	2
75	77	1
29	29	1
91	92	4
105	110	2
64	66	2
101	104	1
38	38	4
102	111	1
43	44	3
79	80	1
59	59	4
64	64	2
74	83	3
95	103	3
95	97	1
30	42	2
97	97	2
43	45	5
24	24	1
49	52	4
91	91	1
48	53	2
82	88	2
73	76	3
78	81	2
50	51	1
99	103	2
65	68	3
96	98	2
72	72	4
61	79	7
99	104	2
26	26	5
39	76	1
94	95	2
98	100	3
99	105	1
83	83	1
69	77	1
107	110	1
92	99	3
72	77	1
114	114	1
43	49	1
32	32	3
40	40	1
65	74	2
60	60	2
40	47	1
66	66	1
50	63	1
57	61	2
67	76	1
22	24	1
103	111	2
83	110	2
105	106	2
20	21	1
74	74	4
69	75	1
100	104	1
65	66	2
37	48	1
23	26	4
77	78	3
102	109	1
105	108	1
104	106	1
59	80	1
52	82	1
109	112	3
70	73	1
68	71	1
42	60	1
95	101	2
25	32	1
95	105	2
76	77	2
46	50	1
73	73	3
39	58	5
27	28	2
33	39	1
81	83	2
51	55	1
48	49	1
69	69	4
52	60	1
80	85	2
102	108	1
28	35	4
32	47	1
104	105	1
67	67	1
27	27	2
86	109	2
54	57	1
21	27	2
79	104	1
69	71	2
106	108	3
45	50	1
109	111	1
100	100	2
113	113	1
98	98	3
63	63	1
110	111	2
24	26	1
59	75	1
52	67	2
97	98	1
99	102	2
110	113	6
79	102	2
35	35	1
63	83	2
34	70	1
99	110	1
95	96	1
53	55	1
77	77	1
84	84	2
40	42	1
89	111	1
25	26	1
99	100	1
27	33	1
96	96	1
62	65	1
30	46	1
84	85	3
25	25	1
69	72	1
20	23	1
24	40	1
59	74	1
75	89	1
78	78	1
20	20	1
52	52	2
95	100	1
31	32	3
40	41	1
92	101	1
32	34	1
52	68	1
23	31	1
110	114	1
69	73	1
51	51	1
88	92	1
41	41	1
67	72	1
26	33	2
108	108	2
65	69	2
82	85	2
48	48	1
75	75	1
28	29	1
79	82	1
101	106	1
43	43	2
85	91	1
80	83	1
100	106	1
38	39	1
49	61	1
