0	1	5
47	47	4
15	16	4
64	64	5
3	3	6
23	23	13
91	91	9
144	144	10
92	119	2
67	68	6
116	117	4
72	74	1
140	140	5
33	33	7
106	107	7
9	9	5
50	51	8
31	73	3
89	89	10
30	59	3
25	25	9
99	99	9
67	67	4
56	58	3
136	138	2
81	81	6
124	124	6
70	70	4
87	87	6
38	39	5
67	69	1
82	83	3
28	29	4
12	13	8
111	111	6
87	124	2
129	131	1
97	97	4
48	48	4
101	104	4
101	102	6
127	139	4
118	122	1
139	143	2
130	130	8
63	63	5
94	94	7
108	109	4
37	37	13
114	114	5
104	104	6
38	38	14
28	28	24
109	109	8
129	140	3
95	145	3
93	94	7
17	17	15
95	99	2
85	86	2
37	93	1
129	139	2
65	70	3
15	18	1
5	55	1
131	131	3
106	106	6
37	94	1
76	77	1
39	40	2
10	33	6
75	75	4
58	58	3
68	68	3
104	106	3
43	43	2
118	125	1
128	138	9
99	102	1
99	101	6
125	125	11
26	26	4
137	139	5
53	143	2
92	127	3
71	71	14
11	11	2
68	69	2
4	4	2
115	115	3
63	64	3
96	96	8
110	110	1
30	32	2
79	92	2
22	59	3
76	93	1
127	138	2
52	52	7
77	95	1
33	34	3
88	96	3
70	71	8
88	88	8
80	80	3
129	129	1
62	63	4
145	145	5
137	137	8
56	56	4
96	123	1
81	83	2
129	132	3
143	143	3
90	118	2
128	128	3
19	20	2
11	36	3
111	125	1
58	59	5
131	140	5
2	47	1
107	108	5
60	60	5
41	68	2
77	77	10
4	10	2
57	57	2
134	134	7
72	73	2
0	112	2
95	97	2
90	90	2
132	132	7
74	74	9
98	98	4
72	72	11
109	111	1
26	58	1
22	23	3
2	2	6
93	93	9
56	140	1
104	105	3
37	38	10
40	40	2
103	104	5
3	6	2
136	136	5
99	100	5
118	118	3
112	112	7
51	51	7
29	30	2
71	73	1
29	29	6
140	141	3
85	90	4
62	62	5
86	87	4
145	146	2
101	101	4
25	33	1
61	61	12
120	120	4
146	146	1
1	1	4
103	103	6
91	94	1
33	38	1
139	142	1
68	74	1
8	47	2
55	56	5
92	93	6
50	50	4
132	138	1
30	42	1
46	49	1
83	84	2
84	85	5
78	78	4
83	87	1
84	89	1
32	32	5
48	66	2
107	107	1
101	103	2
138	138	4
134	136	2
95	95	3
53	55	1
129	141	3
10	10	2
56	133	1
15	24	1
33	70	4
127	137	4
121	123	2
59	60	3
88	89	2
59	59	4
27	27	6
97	98	2
76	94	2
22	22	5
77	78	2
49	49	3
108	108	2
120	121	4
83	126	3
141	142	2
55	133	1
56	128	2
134	141	1
83	125	2
84	84	3
25	52	1
136	137	4
8	8	2
29	34	2
142	143	1
56	132	1
135	136	1
102	102	5
15	15	5
66	66	4
123	123	4
41	42	1
14	14	5
75	79	1
131	138	4
95	127	2
69	69	2
51	54	1
82	131	1
78	79	2
82	82	1
87	111	1
86	110	1
4	25	2
52	53	4
135	135	1
119	119	5
96	122	1
90	105	2
119	123	1
126	128	3
34	70	3
53	53	3
37	39	2
64	66	3
35	35	2
13	14	4
39	93	1
28	30	1
75	78	1
31	31	3
72	75	2
36	50	3
122	122	3
49	66	2
49	51	1
105	105	4
119	121	2
128	136	1
127	131	2
24	24	1
111	113	5
132	133	2
43	66	4
54	54	2
133	134	1
125	126	2
38	95	3
4	5	2
121	121	3
55	55	3
35	49	3
9	11	1
63	121	2
25	26	1
92	95	2
12	12	2
101	126	1
36	53	1
141	141	4
48	61	1
55	57	1
114	117	3
108	118	2
21	21	1
41	41	2
49	52	2
63	67	1
99	118	1
30	30	7
58	143	3
39	39	4
64	65	2
96	97	3
26	27	1
113	113	3
14	17	1
94	95	1
59	61	1
27	29	1
16	17	2
83	83	2
82	85	2
124	129	1
86	140	3
16	16	3
48	63	2
143	144	1
34	34	1
98	140	1
97	142	1
85	85	1
104	107	2
65	65	2
142	144	2
56	134	1
76	79	1
11	42	1
127	127	2
124	128	2
76	76	3
58	140	1
80	81	1
108	114	1
140	143	1
42	43	6
66	87	1
39	41	2
118	131	1
73	73	2
142	142	2
6	6	2
54	55	2
92	94	2
30	31	3
104	120	2
110	113	2
97	141	1
38	41	1
111	118	3
66	67	1
79	79	2
54	143	1
64	89	1
133	139	1
110	111	1
8	9	1
62	65	1
131	133	1
87	122	4
35	36	1
82	125	1
4	6	1
24	58	1
27	28	1
92	92	1
135	141	1
100	100	1
86	86	1
98	101	1
88	90	1
31	32	1
106	118	2
1	113	1
77	94	1
126	126	1
42	67	1
137	138	1
74	75	1
5	57	1
94	127	1
108	110	1
49	50	1
113	114	1
126	127	1
