59	60	4
0	1	3
77	77	8
58	59	1
68	68	11
22	22	7
75	75	7
49	49	7
7	8	5
81	81	21
60	60	6
54	59	2
73	73	11
51	51	10
50	50	9
2	2	4
73	74	3
34	34	6
31	31	12
5	23	1
88	88	5
79	80	7
50	51	6
58	58	4
84	84	8
72	72	13
15	15	3
7	7	10
16	16	4
13	13	4
66	66	5
54	54	15
6	7	2
65	82	2
46	49	2
29	57	1
47	47	12
77	90	3
13	20	3
3	4	6
9	9	13
26	26	2
76	77	7
76	76	4
46	46	5
75	76	1
69	69	7
86	86	6
6	6	9
25	25	14
14	66	1
11	27	2
23	24	3
74	74	5
19	20	5
19	19	15
82	85	1
78	80	6
85	86	4
5	6	3
72	79	1
21	22	2
71	77	2
10	10	4
67	68	2
78	78	11
49	55	3
69	72	1
67	67	7
83	83	9
55	80	5
52	83	5
49	73	1
29	29	3
11	11	14
82	82	5
56	56	7
20	20	4
24	24	9
7	9	4
27	66	2
80	80	8
10	64	3
30	30	8
14	14	5
12	13	5
6	64	4
31	76	6
18	18	2
3	3	2
23	23	9
25	61	3
68	69	3
71	78	4
17	17	1
57	57	6
75	87	1
64	64	7
4	4	3
47	48	2
30	74	2
65	65	3
53	83	3
48	48	6
7	63	2
1	20	5
61	61	8
52	52	5
72	73	6
21	21	7
65	66	2
17	18	4
9	25	3
54	55	9
25	58	2
8	9	2
87	87	6
85	87	1
81	87	2
13	65	1
63	63	8
6	8	3
25	27	6
79	79	9
31	75	3
6	65	1
11	14	4
51	52	1
5	5	5
33	33	2
12	28	1
12	76	1
5	22	1
11	23	2
13	25	5
8	8	6
85	85	2
48	49	1
70	72	1
24	57	1
51	69	1
17	26	1
81	85	4
27	56	1
3	31	2
7	17	3
82	83	1
65	78	1
49	51	2
0	0	3
46	47	1
69	73	1
9	52	2
27	62	2
57	86	4
53	53	4
56	57	3
33	63	2
27	27	6
6	34	1
60	61	1
55	83	3
86	87	1
6	12	3
89	89	2
34	64	1
62	62	4
75	81	1
52	61	1
51	66	3
64	65	2
5	28	1
71	72	3
24	25	1
70	70	2
53	54	1
9	17	2
32	32	1
9	58	1
70	71	1
34	35	1
80	83	1
9	60	2
15	25	1
13	14	1
84	85	1
12	31	1
59	59	1
56	85	1
7	64	1
6	35	1
57	85	1
13	24	1
9	10	1
51	82	2
1	1	1
30	31	1
20	46	1
77	78	1
15	16	1
66	67	1
