76	76	7
94	103	3
119	123	2
124	124	11
144	144	6
136	138	3
60	61	7
141	141	7
22	22	20
12	13	1
17	17	9
99	99	3
49	49	3
42	42	4
100	100	8
28	28	10
136	136	2
112	112	12
102	102	13
82	83	4
123	123	8
107	110	2
61	61	16
58	59	10
73	73	10
109	133	13
38	39	5
41	69	3
36	36	18
61	142	5
43	54	1
85	85	8
91	91	6
43	115	1
81	81	4
28	29	3
64	65	5
53	53	7
47	50	4
95	95	4
31	32	1
27	28	4
119	119	6
81	82	2
130	130	8
116	116	9
88	88	12
16	108	2
140	140	10
65	105	3
33	34	1
60	60	6
3	14	4
30	30	12
112	114	8
69	70	3
13	13	8
17	18	1
90	90	5
78	78	11
93	93	11
11	11	8
84	84	3
39	140	5
76	111	6
91	144	1
40	40	3
43	139	1
137	139	2
42	54	3
26	27	4
67	69	4
109	109	1
40	41	2
130	131	7
102	103	2
51	81	2
33	33	11
129	131	4
77	77	4
122	122	4
128	129	3
131	132	3
42	63	2
48	62	2
5	5	4
72	73	5
38	38	6
70	70	6
32	33	2
53	55	4
64	64	9
10	10	14
37	37	4
25	30	2
131	131	1
98	98	6
72	125	2
98	113	4
104	104	4
24	24	7
125	125	4
55	55	5
31	31	8
0	0	9
115	115	2
127	127	6
92	92	4
141	143	2
17	30	3
103	104	1
97	97	4
34	79	1
78	79	10
111	119	1
135	135	9
96	96	3
58	58	3
19	20	6
94	135	1
98	110	4
134	134	4
27	27	8
47	47	8
26	26	2
36	65	4
70	84	1
18	19	1
90	91	2
134	135	5
87	87	5
2	2	2
145	146	2
53	121	4
57	58	4
124	125	3
6	6	8
2	27	1
21	21	3
133	135	1
95	96	3
63	63	11
86	86	11
50	50	6
39	81	2
114	114	7
142	143	2
10	11	3
68	68	11
25	25	5
34	34	2
118	118	1
52	52	13
145	145	4
18	18	3
37	38	1
57	111	1
25	32	2
39	73	6
53	71	1
69	69	3
95	99	2
52	53	3
103	103	5
75	75	6
29	29	4
137	138	3
66	66	5
70	71	3
125	126	3
9	9	7
41	41	4
102	139	1
92	94	1
36	79	1
123	124	6
82	86	1
139	139	2
98	102	2
25	35	4
53	111	1
110	110	7
20	20	1
94	116	1
62	62	5
77	78	2
117	117	5
16	17	1
51	51	3
50	51	4
71	72	2
27	29	1
71	71	1
133	133	4
93	94	3
126	127	4
15	16	5
61	62	2
111	111	2
89	89	3
40	74	1
3	3	2
142	142	4
89	90	1
61	63	1
49	53	2
67	67	3
87	88	1
19	19	3
32	32	4
26	33	1
8	8	3
74	74	2
138	138	2
29	31	2
82	82	4
137	137	2
84	92	1
94	94	2
23	23	4
72	72	2
113	113	1
138	139	2
61	67	1
93	140	5
117	125	3
92	95	2
83	84	3
15	93	1
123	130	4
3	4	1
132	139	4
59	60	2
106	107	3
98	112	1
118	132	2
143	143	4
129	129	3
58	111	2
132	132	5
12	12	3
31	33	1
56	57	1
0	2	2
4	5	1
64	131	3
53	59	2
35	37	1
112	113	1
5	60	1
132	137	2
95	100	1
10	17	1
144	145	2
0	13	1
30	31	2
68	69	2
61	65	1
29	30	1
90	101	1
15	15	3
49	75	3
117	118	1
102	110	1
8	19	1
26	35	1
54	120	1
35	79	1
120	120	2
39	39	1
107	108	3
126	126	1
73	74	1
4	4	4
39	41	2
67	132	1
105	105	2
24	27	4
2	26	1
132	133	2
141	144	1
111	137	1
39	68	1
115	116	1
43	46	1
62	63	1
1	28	1
83	98	2
130	132	2
84	95	1
14	21	1
16	16	1
120	131	2
11	37	1
17	19	1
107	129	2
20	21	1
56	58	1
22	23	1
100	105	1
127	128	1
25	26	1
135	136	1
124	126	1
14	26	1
8	78	1
21	22	1
107	134	1
1	26	1
47	81	1
18	130	1
34	36	1
128	141	1
