16	16	1
66	66	6
74	74	1
132	132	5
107	110	3
52	52	4
79	79	4
112	112	9
90	91	1
0	0	5
18	27	4
95	96	4
53	53	6
1	2	3
31	31	5
52	110	1
30	30	1
123	123	9
25	27	1
25	25	7
50	106	8
77	78	4
34	75	2
103	103	9
108	108	4
85	85	3
19	19	10
99	102	3
32	115	3
12	12	9
109	109	6
33	115	2
22	22	2
20	23	4
37	37	2
90	90	11
115	129	2
34	35	2
26	26	8
23	23	2
87	87	4
55	56	1
33	34	3
20	20	4
75	75	2
58	59	2
7	14	4
1	15	1
6	7	6
43	43	2
24	24	5
93	93	7
9	9	15
117	117	7
99	106	3
10	10	5
35	35	6
63	65	1
64	69	3
61	63	4
98	98	2
18	22	3
81	81	1
68	69	2
36	36	1
115	128	2
7	10	6
95	95	2
62	62	2
106	106	1
77	77	7
124	124	5
94	95	4
67	69	7
14	14	5
111	111	6
101	101	6
54	59	2
125	125	5
55	77	2
101	102	2
56	56	6
29	29	5
33	33	4
118	118	10
47	60	3
72	72	5
11	34	1
57	57	1
67	78	1
55	55	3
7	30	4
15	16	2
27	27	2
102	112	1
76	76	5
50	51	3
54	56	2
134	134	3
100	116	2
18	18	2
57	59	5
88	88	1
80	81	3
116	116	6
120	120	3
123	124	1
84	85	2
100	109	1
113	113	6
65	67	1
99	99	1
67	67	3
104	119	2
84	84	3
60	60	9
28	28	1
114	115	3
9	15	2
119	119	3
50	52	3
83	84	2
129	129	2
48	109	2
114	114	1
33	51	1
21	22	3
120	126	4
11	12	3
63	69	3
25	28	1
56	57	1
17	27	2
83	83	2
100	100	1
10	11	1
64	64	2
66	68	1
73	75	2
117	118	1
28	30	1
87	93	1
69	69	1
107	107	1
71	73	1
122	122	2
79	80	2
121	122	2
20	22	1
54	54	1
127	128	1
7	8	1
86	88	2
68	68	3
17	17	2
15	15	2
45	45	1
97	97	2
115	127	1
78	78	1
13	13	1
1	1	2
65	65	1
47	47	3
92	92	2
43	45	1
7	7	2
33	35	1
30	31	1
26	28	1
2	3	1
132	133	1
127	127	1
130	130	1
28	29	1
26	30	1
131	131	1
97	98	1
129	130	1
