62	62	13
44	44	4
76	76	17
67	67	15
73	73	8
61	61	17
64	64	20
85	89	2
59	59	8
100	100	5
56	60	2
50	51	3
76	77	6
87	87	9
79	80	7
89	101	1
75	76	4
81	81	19
74	74	15
34	35	2
39	39	10
83	90	4
35	46	5
48	48	17
40	40	19
56	57	5
41	41	9
99	100	4
79	82	4
49	49	2
67	68	9
22	60	3
70	70	18
68	70	4
90	91	6
80	80	7
102	102	2
88	89	3
85	85	25
68	68	17
50	53	1
66	66	23
98	98	11
51	51	3
65	65	34
66	68	6
95	97	8
51	65	2
75	75	4
54	54	12
60	60	6
37	37	10
63	63	20
82	84	7
64	79	9
92	92	14
78	78	13
62	63	3
96	96	7
95	101	5
27	28	4
57	57	11
62	80	1
52	52	14
76	78	3
86	86	22
91	91	8
36	37	9
77	77	16
58	78	2
47	47	6
100	101	5
35	47	6
69	69	12
88	88	8
72	72	11
81	82	9
63	64	4
33	47	2
61	86	6
47	48	4
89	89	22
54	56	1
91	93	2
56	56	8
99	99	4
42	43	10
84	92	2
58	79	2
57	64	8
51	53	8
41	42	1
58	58	6
23	23	2
44	52	4
79	79	8
83	83	6
53	53	9
23	24	1
42	42	18
59	79	1
86	87	1
31	31	1
22	22	11
30	55	3
65	66	4
55	56	3
51	56	2
71	71	13
38	38	5
49	50	2
45	50	1
86	89	3
60	61	3
43	43	2
40	41	2
66	67	7
66	80	1
61	84	4
87	100	2
68	69	4
95	95	5
97	97	8
39	46	6
56	64	1
73	74	3
63	65	1
69	70	6
45	45	2
29	55	4
44	56	2
30	45	1
50	52	5
54	60	1
33	33	6
94	95	1
70	71	1
65	74	2
24	24	3
72	76	4
88	100	2
36	36	2
79	84	2
84	84	5
26	28	1
35	35	5
86	88	2
83	84	5
84	91	2
50	50	5
65	80	6
46	47	2
65	68	1
84	87	3
93	93	5
25	25	5
42	49	2
32	33	2
33	46	2
80	86	1
61	63	2
26	26	2
67	69	1
67	72	1
61	80	3
99	101	5
65	75	1
93	94	4
20	20	1
72	73	1
46	46	2
33	34	1
74	75	1
66	77	1
77	78	2
44	60	3
49	52	2
36	38	3
33	35	2
38	39	2
65	79	2
88	101	1
101	102	1
46	54	2
29	29	1
98	100	2
79	90	1
75	77	1
61	62	1
38	42	1
29	54	1
32	47	1
82	86	1
63	83	1
97	98	1
62	71	1
78	91	1
50	74	1
