53	56	4
148	148	8
160	160	4
69	69	7
47	57	3
35	35	2
151	151	2
156	156	4
85	85	3
21	21	6
81	87	2
7	7	6
21	23	1
82	82	2
16	16	1
4	5	3
67	68	1
18	20	4
14	15	6
112	114	1
97	99	1
72	74	4
128	165	3
5	45	5
47	47	3
142	142	6
135	136	1
167	167	2
49	52	2
62	62	12
89	90	3
153	153	3
144	144	7
78	78	8
119	119	13
135	135	7
168	168	6
41	41	7
42	42	10
118	118	6
6	6	9
113	114	3
147	147	3
102	104	4
87	87	3
40	40	9
127	127	3
125	125	7
97	97	4
51	81	2
82	83	1
13	14	1
133	133	6
105	112	4
99	99	4
100	100	8
55	55	5
52	52	10
112	123	2
131	131	2
107	108	1
51	51	6
126	126	6
124	124	9
146	146	12
1	136	3
158	158	1
64	64	16
76	77	2
120	123	1
20	20	8
16	55	4
115	115	7
103	103	11
78	93	2
113	113	4
43	43	4
27	27	7
50	50	5
150	152	5
54	56	5
161	161	6
77	92	3
117	117	11
15	15	6
149	151	2
3	4	1
123	129	4
106	106	1
26	27	2
49	50	1
163	165	5
115	117	2
91	92	3
15	16	5
4	6	1
84	86	2
6	69	2
17	75	4
162	162	2
35	36	8
142	144	3
107	107	4
166	166	1
101	101	3
57	72	2
102	102	2
18	19	3
43	167	2
104	105	1
159	159	7
66	87	2
6	70	2
38	38	6
112	112	5
66	66	6
137	137	7
138	138	3
8	21	1
131	132	1
2	2	6
98	98	5
67	67	2
38	39	3
140	140	3
25	25	6
151	155	2
71	71	4
130	131	7
49	49	7
140	145	1
164	164	7
100	124	1
2	138	1
0	66	3
37	39	1
126	127	3
70	70	5
62	63	5
108	108	2
23	23	6
36	155	2
120	120	5
95	96	4
22	22	3
170	170	3
152	152	5
134	134	3
130	130	2
125	140	1
9	9	6
88	88	5
129	130	1
72	72	2
8	8	4
150	150	2
43	158	1
109	109	2
122	123	1
104	104	1
24	25	1
45	45	4
154	154	6
137	138	3
57	57	4
12	13	3
148	149	1
147	154	2
4	4	2
39	39	4
128	129	2
46	48	1
128	168	3
155	156	1
19	19	1
136	136	5
164	165	2
4	69	3
19	73	1
5	5	4
44	44	2
12	14	4
143	143	2
63	63	1
147	149	2
88	89	1
94	94	1
26	26	2
17	17	3
77	77	6
155	155	2
149	149	2
129	129	2
79	79	6
1	1	3
159	160	1
74	74	5
36	36	4
16	21	2
98	99	2
119	120	7
157	158	1
6	168	2
100	102	1
71	75	1
0	0	2
63	64	2
123	124	2
52	90	1
25	26	1
34	43	1
34	35	2
101	103	2
108	109	1
101	102	2
138	139	2
95	95	3
96	99	1
6	7	3
165	166	1
167	168	1
21	24	1
66	135	1
91	91	3
3	3	6
37	37	1
93	93	3
87	110	2
34	34	1
81	89	4
122	122	2
105	105	2
81	82	2
113	115	1
73	75	1
76	93	1
132	133	1
81	81	1
86	87	1
119	121	1
111	111	1
6	44	1
165	165	1
116	116	1
140	142	1
161	162	1
48	50	2
128	128	1
86	86	1
73	160	1
114	115	1
5	68	1
151	153	1
18	18	1
83	83	1
121	121	1
90	90	1
103	104	1
163	164	2
80	91	1
119	138	1
74	76	1
146	147	1
100	112	1
96	96	2
122	124	1
73	159	1
111	133	2
162	165	1
8	9	1
53	53	1
169	169	1
37	41	1
139	139	2
2	3	1
144	145	1
49	53	1
48	48	1
70	130	1
166	168	1
33	37	2
11	55	1
40	63	1
0	1	1
