16	19	3
130	130	6
124	130	11
95	96	6
125	126	10
18	22	2
98	98	15
65	67	2
58	70	3
82	82	10
28	31	2
87	87	5
119	132	3
108	117	1
17	26	1
51	64	6
78	80	4
117	127	2
73	84	8
10	15	3
10	17	1
17	21	5
73	76	6
100	100	22
72	78	3
106	108	6
85	94	3
85	88	1
51	51	5
87	89	2
122	122	12
5	11	4
8	16	3
119	120	2
69	76	3
7	17	2
116	122	2
41	41	4
22	22	4
80	89	2
63	63	5
91	91	10
118	123	1
110	118	4
2	11	5
114	120	5
92	92	8
1	1	7
121	123	2
16	16	14
113	113	9
30	30	3
3	13	1
121	121	13
75	75	8
55	66	2
10	10	6
67	84	1
100	102	3
64	64	4
116	127	1
33	33	11
89	90	8
90	95	7
94	94	6
94	98	1
74	74	4
104	115	3
4	13	4
27	32	2
52	52	1
43	51	7
52	53	7
6	9	5
71	71	10
62	62	5
86	86	2
104	104	11
16	27	4
75	77	4
28	28	5
126	126	2
58	58	8
103	108	2
37	41	1
97	97	4
82	95	1
18	18	7
20	20	9
114	116	2
103	120	2
106	119	1
105	105	8
76	77	3
77	77	6
107	118	2
117	122	6
14	14	10
46	54	1
114	130	2
66	68	3
20	42	4
75	80	5
3	3	10
78	79	3
80	91	1
115	116	9
54	56	6
2	4	1
124	124	6
129	129	5
100	110	5
118	131	1
113	114	9
43	43	7
5	127	3
72	72	6
32	33	2
79	79	11
46	46	7
7	10	2
109	117	3
109	118	1
42	42	5
11	21	4
14	18	5
123	123	6
99	103	4
19	33	2
48	52	1
101	102	9
120	120	12
66	66	9
82	84	9
53	53	4
118	127	4
16	20	2
15	21	7
32	32	7
78	85	2
77	84	3
133	133	14
70	70	7
16	17	2
88	102	3
95	116	2
1	19	1
9	16	1
118	118	2
67	87	6
106	117	2
119	119	3
118	130	2
88	99	1
105	106	4
61	61	4
128	128	12
86	97	4
40	50	1
106	109	4
49	52	5
56	57	6
109	111	2
50	51	4
109	109	5
108	109	4
74	81	5
109	112	3
55	57	1
10	13	2
116	116	9
83	84	10
60	60	4
81	82	3
78	78	4
119	121	2
54	54	5
96	96	4
125	125	13
99	108	5
3	116	2
31	31	3
101	101	12
4	4	3
81	81	2
108	111	2
131	132	4
92	96	1
130	131	2
122	125	1
38	39	2
40	51	2
123	126	3
3	5	4
45	62	2
10	18	3
95	101	1
0	0	9
61	65	3
90	90	7
70	78	2
107	108	6
70	85	7
56	56	8
115	118	5
70	127	2
11	11	2
70	79	1
65	68	1
13	13	4
2	12	2
74	75	1
7	9	3
83	93	3
79	92	1
6	15	1
69	74	2
42	50	4
84	85	8
98	102	2
114	114	4
23	23	5
65	73	2
74	97	2
112	115	3
23	29	1
90	101	2
82	92	1
114	121	2
2	10	3
50	61	2
38	40	4
41	46	3
1	62	1
13	84	3
116	117	4
107	111	3
89	91	1
8	11	2
88	95	3
64	65	2
82	87	1
5	8	3
26	26	3
107	110	3
51	52	3
47	62	4
46	62	1
92	93	3
107	123	2
115	123	4
76	88	4
84	84	3
81	83	1
12	12	3
90	91	1
4	127	3
29	29	3
46	49	3
68	68	4
62	72	1
76	78	4
46	55	2
23	24	2
6	6	1
89	89	6
9	10	1
50	60	2
85	85	2
85	96	2
130	132	1
41	50	3
110	112	3
115	115	6
25	28	5
129	131	5
56	72	3
25	25	4
111	111	4
43	74	1
88	96	4
105	108	5
39	52	5
57	58	2
19	28	3
8	12	1
103	103	1
48	53	3
38	38	8
121	122	4
112	112	1
128	131	4
43	57	2
78	82	2
49	53	2
95	97	2
95	95	4
111	113	2
82	101	1
85	86	8
56	71	3
130	133	5
120	123	3
95	106	4
14	21	2
93	94	6
97	106	1
48	60	2
96	97	3
67	73	4
93	102	3
116	118	1
1	104	2
44	69	1
77	81	2
18	26	4
21	125	1
2	13	3
109	120	5
113	118	5
5	126	1
30	34	1
7	16	8
3	15	2
60	62	1
3	7	2
15	41	1
57	63	2
94	95	1
124	131	1
5	5	5
97	98	2
11	12	1
104	105	2
57	69	3
120	122	3
40	40	5
53	68	2
74	76	3
66	69	1
83	83	6
100	108	1
112	122	2
92	126	2
98	101	2
70	71	1
15	23	1
93	126	2
96	103	2
106	110	1
115	131	2
128	132	3
102	102	1
12	49	1
55	63	4
38	44	4
88	88	1
71	72	2
49	71	2
102	106	1
105	118	1
71	74	2
113	120	3
55	55	1
20	30	4
60	68	1
17	18	1
59	59	4
24	38	1
26	27	3
88	94	1
29	32	3
67	77	1
4	5	5
86	93	1
51	55	3
84	94	4
110	114	1
43	53	1
5	6	2
80	82	1
7	15	1
20	29	2
76	76	2
45	45	2
131	131	3
111	114	3
87	88	2
80	93	1
26	32	1
108	108	4
72	74	1
117	118	4
41	43	1
44	50	3
118	124	1
96	105	2
95	111	3
69	72	3
117	129	1
4	7	2
1	8	2
119	122	2
94	106	1
17	19	1
14	23	1
125	128	1
14	83	2
42	47	3
22	49	1
109	122	1
46	56	2
34	38	1
52	68	1
40	52	2
77	89	1
124	126	1
3	6	1
83	85	1
49	57	4
100	103	3
78	81	2
123	124	2
66	79	2
15	32	2
27	27	5
67	83	1
68	72	3
96	110	2
2	3	1
0	14	2
51	66	4
109	110	1
103	118	1
11	16	1
48	49	3
12	84	2
93	105	4
45	46	1
71	86	1
28	29	3
0	1	2
84	101	1
108	119	1
109	121	3
81	84	1
82	91	1
124	129	2
44	44	2
1	10	2
63	68	1
22	28	2
59	60	2
81	90	1
75	76	6
83	86	1
52	73	3
2	5	1
9	57	1
126	130	3
43	54	1
73	80	1
119	130	1
89	96	5
106	118	1
76	79	2
111	112	2
83	91	1
94	101	1
14	20	2
114	129	2
107	107	3
115	129	1
17	17	1
122	128	1
59	72	1
38	43	2
106	106	1
65	65	2
24	24	4
52	58	1
33	34	1
45	48	1
15	19	1
23	25	1
49	51	1
7	8	2
93	93	3
118	129	1
75	81	2
24	31	2
32	34	1
92	103	1
110	110	1
18	20	1
62	71	2
46	48	1
101	104	1
55	70	1
43	44	1
111	124	2
114	124	1
68	76	1
24	25	1
51	62	2
120	125	1
59	68	1
58	60	1
1	21	1
7	23	2
27	28	1
113	128	1
129	133	1
87	100	1
49	50	1
99	102	1
103	128	1
47	48	1
107	109	3
95	105	1
47	52	1
65	72	1
108	110	1
58	71	1
49	62	1
56	80	1
122	126	1
5	19	1
74	86	1
127	130	1
1	70	1
47	47	4
8	8	2
132	133	1
105	112	1
96	104	1
55	58	2
96	100	1
22	82	3
60	71	1
86	99	2
4	9	2
8	15	1
110	122	1
80	92	2
129	130	1
1	12	1
69	71	2
78	89	1
2	2	2
103	119	1
91	97	1
114	118	1
77	78	1
30	32	1
99	111	1
71	84	1
48	48	1
94	110	3
27	33	2
15	24	1
12	93	1
71	83	1
92	108	1
1	2	2
50	50	1
26	33	1
117	117	1
57	59	1
100	113	1
13	20	1
38	53	1
69	85	1
67	76	1
6	8	1
15	17	1
19	25	1
79	90	1
75	78	1
3	19	1
12	22	1
21	22	1
45	50	1
127	132	1
78	90	1
29	48	1
97	105	1
56	68	1
31	33	1
93	104	1
11	58	1
77	79	1
22	25	1
0	15	1
5	23	1
67	68	1
