224	224	11
235	235	21
105	106	3
12	12	9
146	146	2
232	232	7
63	63	14
26	26	12
56	56	11
231	231	11
127	127	8
174	174	10
173	174	4
35	108	1
133	134	3
211	212	2
19	20	1
45	46	4
205	206	13
75	75	12
187	190	11
158	158	13
242	242	17
170	170	8
192	192	15
50	50	11
174	198	3
141	147	1
54	55	6
77	78	6
36	36	10
169	169	11
54	54	14
37	38	4
11	11	6
192	193	4
178	178	14
116	116	9
123	125	5
45	47	4
225	225	9
51	52	2
89	133	2
72	82	4
107	120	1
118	119	3
99	99	15
10	85	2
224	225	5
74	74	8
99	120	3
228	229	4
172	174	3
125	125	5
208	208	9
128	128	19
234	235	4
9	9	20
10	26	1
27	27	16
206	206	12
88	88	6
203	203	20
46	46	5
151	151	8
158	159	2
85	85	15
101	101	4
28	28	7
67	67	3
217	217	14
75	175	3
164	164	5
106	106	13
140	140	2
66	66	11
180	181	10
98	99	3
31	31	11
131	131	8
197	197	10
5	5	4
216	216	6
179	179	14
135	135	4
140	141	5
143	144	2
237	237	4
30	30	8
71	71	10
26	28	1
20	24	5
160	203	1
0	1	3
186	186	8
118	118	5
215	215	9
37	138	3
173	173	8
135	140	1
68	68	12
109	110	1
72	72	8
52	53	3
131	150	1
20	20	20
141	142	2
170	171	10
29	30	4
123	123	11
82	82	9
65	65	10
202	202	14
47	50	2
147	201	2
56	57	6
108	108	9
28	79	3
148	148	8
168	168	13
169	200	1
215	221	1
16	16	7
70	70	14
198	198	10
104	106	4
44	44	16
188	234	1
220	220	10
220	230	5
126	127	2
52	52	10
50	215	1
160	160	4
143	205	1
8	8	4
125	126	4
222	222	4
49	49	20
238	238	10
3	3	6
61	237	3
102	102	10
24	69	3
85	195	4
51	206	5
203	204	4
172	175	5
228	228	7
199	199	3
2	4	3
4	5	2
57	58	3
230	230	7
24	24	15
10	10	10
4	4	11
155	155	11
56	210	3
138	138	20
55	55	8
159	159	4
121	159	2
141	141	2
181	196	1
29	72	4
120	120	10
165	165	9
190	190	6
204	206	8
7	8	3
225	230	4
180	191	1
229	230	1
60	63	3
213	213	6
172	173	4
209	210	5
129	130	5
215	238	5
158	179	1
86	88	4
100	100	4
57	57	7
199	239	1
33	88	2
2	2	11
200	200	6
52	232	5
180	180	5
44	45	4
24	39	5
50	51	3
234	234	3
6	215	2
122	122	6
143	146	9
27	204	4
159	181	3
115	115	5
9	46	2
17	17	5
225	228	4
207	208	1
102	103	1
121	121	3
181	181	11
62	62	13
41	42	5
223	223	8
191	192	3
4	8	3
6	8	8
135	138	3
151	152	2
161	161	3
78	146	2
1	2	6
32	32	7
230	231	5
233	234	5
14	15	5
222	229	3
1	50	1
171	171	9
218	218	5
232	234	2
112	112	6
207	207	12
21	22	1
240	240	5
137	138	3
23	23	7
13	13	1
210	210	4
78	78	12
175	175	4
196	196	10
104	108	7
227	230	6
214	214	10
141	149	5
42	43	2
239	239	3
39	39	9
147	189	1
212	212	8
40	40	7
149	150	8
220	221	6
109	109	8
85	95	1
18	18	2
85	196	3
18	212	2
25	63	3
22	22	4
186	191	1
18	19	9
38	38	12
129	149	2
11	12	2
154	154	4
215	237	1
162	162	6
73	74	1
136	136	11
172	172	8
74	238	4
126	126	5
79	79	9
232	240	3
144	147	5
96	108	2
183	183	8
107	107	3
182	193	4
7	68	1
9	10	4
36	108	2
98	98	3
150	150	10
215	216	5
33	139	2
152	152	12
144	145	6
145	153	1
109	111	4
178	179	2
5	8	2
211	211	4
133	133	8
128	144	2
104	104	4
3	33	2
47	47	7
219	219	7
9	47	1
10	49	3
217	237	1
201	201	4
15	15	2
172	207	1
15	16	4
176	177	1
15	44	1
37	128	2
240	241	6
193	195	5
65	68	3
34	34	6
150	151	2
64	65	3
226	226	6
81	81	4
221	221	3
76	78	2
143	143	9
227	227	3
12	18	1
59	60	1
35	35	5
61	239	3
208	209	4
188	188	5
24	25	5
7	49	1
170	174	1
12	13	1
124	124	3
45	45	6
217	219	4
26	104	2
120	178	3
43	43	9
153	154	1
58	58	1
61	62	2
42	42	6
61	61	6
46	48	3
65	66	2
226	227	3
182	182	7
206	207	3
81	84	2
69	69	8
9	55	3
25	25	7
5	7	1
145	145	4
88	105	4
34	35	3
89	103	2
99	121	3
105	105	1
81	82	2
202	203	3
69	86	6
64	128	1
41	43	2
73	73	3
56	58	2
103	103	1
157	157	8
79	80	2
97	97	5
62	63	3
37	135	3
123	124	11
176	176	9
144	144	6
9	48	3
0	0	4
19	19	3
209	209	3
56	211	9
216	221	1
149	149	6
44	128	2
205	205	8
48	48	10
211	215	2
14	14	3
28	72	4
185	185	5
167	167	4
173	207	1
98	119	2
186	188	2
69	217	1
16	17	5
199	240	4
64	64	5
152	153	7
27	75	3
53	54	3
174	241	3
31	49	1
128	196	2
133	154	3
218	225	1
97	102	1
29	29	7
169	173	2
97	135	1
153	153	8
23	24	1
169	170	4
104	107	3
3	4	1
153	155	5
166	166	7
127	128	4
191	191	4
154	155	3
241	242	4
20	212	1
155	160	1
100	101	3
31	32	1
7	7	4
187	187	9
59	80	3
57	140	3
1	53	2
241	241	4
142	143	1
37	99	1
226	230	1
29	81	1
30	55	1
86	104	1
43	44	6
61	238	1
25	212	1
10	11	3
120	239	1
132	132	1
55	141	1
239	242	1
74	75	2
95	96	1
6	7	1
166	167	5
179	180	3
129	129	3
8	9	1
88	134	2
214	217	1
199	211	2
130	130	3
122	123	1
73	219	2
186	227	2
9	83	1
162	163	1
193	194	1
193	196	2
163	166	2
36	37	4
161	183	1
128	150	1
237	238	2
175	177	3
168	169	1
13	15	2
153	163	1
73	238	1
44	166	1
146	147	1
48	49	4
151	196	1
22	23	2
198	199	1
125	186	1
192	195	1
177	177	5
138	139	2
176	180	1
84	84	8
59	209	1
121	122	3
235	236	1
37	37	1
39	128	1
221	229	1
183	224	1
33	33	1
85	237	2
38	42	1
85	197	1
32	97	1
236	236	1
137	137	4
5	6	6
176	181	2
97	105	1
185	216	2
55	82	2
26	71	1
15	43	1
227	228	4
152	155	2
88	89	6
46	47	7
102	105	1
193	193	5
7	31	7
221	222	2
195	197	1
233	233	1
3	24	1
181	184	2
119	119	2
148	149	2
200	201	2
33	34	2
33	37	1
185	186	1
86	86	3
18	68	1
51	51	1
88	97	1
159	177	1
222	223	1
211	213	1
30	219	1
142	142	2
78	79	1
1	6	2
95	95	2
202	228	1
90	119	1
88	133	1
20	21	1
30	53	1
25	43	1
28	47	1
99	127	4
23	68	1
27	28	3
147	147	9
204	204	5
139	139	2
182	237	1
219	237	3
198	211	1
110	110	2
146	153	1
174	175	3
136	138	1
136	137	1
76	77	1
197	198	1
178	180	2
3	70	3
200	205	1
3	7	1
149	152	1
17	18	2
81	83	2
120	125	1
2	5	2
35	36	5
177	178	1
160	182	1
10	27	1
198	239	1
38	44	1
202	219	1
85	135	1
49	50	1
1	1	1
199	200	2
180	186	3
101	103	1
182	184	1
155	156	2
67	88	1
32	35	1
239	240	3
76	76	1
30	73	1
121	155	1
6	6	1
179	181	2
195	196	1
30	31	1
115	116	1
190	191	1
12	180	1
27	74	2
61	208	1
201	202	1
189	190	1
157	158	2
30	83	1
33	36	1
41	41	1
39	47	1
200	211	1
39	40	3
86	134	1
88	102	1
113	115	1
52	62	2
100	106	1
31	234	1
59	59	2
96	97	1
28	29	1
204	232	1
162	181	1
210	211	1
11	65	1
27	188	1
203	231	2
37	131	1
37	137	1
82	83	1
16	211	1
219	233	1
11	13	1
198	212	1
4	9	1
69	70	1
24	211	1
203	227	1
19	21	1
61	71	1
14	44	1
9	11	1
