15	15	5
136	136	6
154	154	6
2	29	1
142	142	1
128	158	12
128	128	8
132	132	3
163	172	3
177	177	7
175	175	2
15	16	3
7	28	2
130	131	4
24	24	6
145	145	4
66	67	3
157	158	3
87	87	6
147	175	2
34	42	5
33	33	9
80	123	3
54	55	2
61	63	1
85	89	2
154	179	1
34	34	2
56	56	8
117	117	6
76	76	4
0	7	7
85	85	4
171	172	6
5	6	5
11	45	2
139	177	4
42	42	1
88	88	8
102	170	3
112	112	4
137	137	10
17	79	2
3	3	2
143	180	1
22	22	4
148	148	2
65	65	14
9	9	6
107	107	6
78	139	3
65	72	3
58	58	7
61	61	9
169	169	5
102	102	3
164	166	3
13	13	2
50	90	3
40	40	4
53	54	3
103	103	15
22	23	2
31	32	4
5	5	10
84	122	5
142	152	3
146	146	1
148	152	6
20	20	3
168	168	5
171	171	6
159	159	8
62	62	4
173	173	7
174	174	8
114	114	4
77	77	5
95	140	3
63	63	2
101	132	8
139	140	1
131	131	3
134	170	8
57	95	3
119	120	10
120	120	2
132	167	2
116	116	4
19	19	2
14	15	4
57	80	3
115	115	10
149	149	7
125	125	7
35	91	1
113	117	3
107	146	3
44	45	1
107	125	1
97	97	11
144	152	5
1	74	3
92	92	4
125	137	4
23	24	5
117	151	3
126	167	4
166	166	7
82	82	7
123	168	2
127	127	2
74	74	6
115	116	2
162	162	3
158	172	4
60	62	2
114	146	5
112	118	1
18	44	12
116	117	2
101	137	1
95	95	1
162	172	4
23	23	3
90	92	2
12	28	3
18	18	1
35	35	6
163	163	5
91	91	4
82	99	1
25	37	4
51	51	2
96	99	1
72	76	1
139	139	3
158	159	2
60	60	4
39	39	4
119	119	3
127	135	3
172	172	8
165	165	2
157	157	9
130	130	6
104	124	2
113	151	2
135	136	3
90	90	3
164	164	6
115	121	1
34	53	3
51	52	1
62	86	4
7	7	3
17	45	3
135	135	5
142	148	5
65	76	3
17	17	4
16	35	1
107	108	3
45	45	3
164	165	4
1	1	4
170	170	2
73	75	8
57	57	7
18	73	3
155	156	3
64	64	5
105	134	2
108	108	5
150	150	2
17	71	1
176	176	1
146	153	3
76	78	3
127	130	3
106	121	6
162	163	2
57	92	2
85	86	2
42	43	4
125	177	3
148	150	3
58	64	3
132	168	3
50	52	6
52	52	6
14	39	3
179	179	4
114	115	3
117	148	4
123	170	5
84	139	2
67	114	2
113	148	4
54	54	5
134	177	2
141	175	2
158	163	2
123	123	1
25	31	3
107	118	2
8	46	4
76	79	1
159	178	2
16	36	2
78	79	2
37	37	5
32	42	4
154	180	4
89	94	3
109	146	1
140	140	6
138	139	2
2	32	1
129	130	3
59	61	3
57	67	2
72	72	4
40	41	4
152	152	3
16	61	2
67	115	1
120	147	1
106	107	3
116	121	3
115	146	3
108	144	2
144	158	1
50	51	1
37	38	2
89	116	1
100	101	2
177	178	2
127	128	1
163	171	4
8	11	1
105	105	4
71	71	2
132	133	7
11	12	5
86	87	2
108	153	2
120	121	1
82	97	1
49	50	1
25	26	2
153	153	3
109	137	2
126	147	3
155	173	2
76	123	4
72	73	4
71	79	3
101	101	1
26	30	3
96	114	2
70	71	1
103	111	1
155	155	4
143	154	1
38	38	1
78	78	3
110	110	1
125	130	2
52	84	2
3	8	1
67	82	2
160	160	4
134	135	4
11	18	1
154	156	2
67	81	4
131	132	2
142	154	2
143	143	1
146	154	4
36	38	1
77	82	3
9	20	2
52	53	1
124	139	1
78	86	2
125	136	1
31	31	2
2	2	3
146	155	3
1	45	1
6	6	1
129	129	2
178	178	4
81	98	1
80	80	1
35	36	1
86	122	3
91	92	2
121	133	1
143	152	2
75	75	1
95	96	4
63	64	2
6	10	1
1	6	1
12	41	2
0	0	1
103	177	1
28	56	2
149	150	3
65	101	1
148	151	3
160	172	1
94	94	1
124	135	1
0	43	1
110	118	1
64	68	1
4	11	1
163	166	1
3	11	1
124	170	3
118	139	1
144	145	3
66	66	1
8	16	1
55	88	2
55	55	1
115	145	1
13	64	1
14	35	1
83	86	1
86	86	1
12	83	1
12	13	1
163	165	1
75	77	1
28	29	2
8	8	2
134	168	1
83	88	1
108	157	1
133	133	1
161	171	1
83	83	1
61	116	1
144	156	2
134	167	1
80	81	1
156	156	1
118	118	2
28	55	1
76	101	1
103	140	1
45	71	1
94	100	1
26	26	2
167	168	1
19	44	1
160	161	1
29	29	1
27	27	1
50	50	1
110	111	1
143	157	1
54	78	1
