54	54	1
4	10	2
12	12	4
42	54	6
39	39	1
9	9	3
137	148	4
3	4	4
46	46	2
103	103	5
119	126	3
113	120	3
105	116	3
92	92	1
29	30	9
14	16	4
36	45	1
44	45	2
149	149	4
5	5	1
109	129	3
122	122	5
120	129	1
138	139	2
150	152	2
122	135	1
0	10	4
41	42	1
127	127	3
103	107	1
46	56	4
138	154	2
38	40	1
158	159	4
32	32	5
143	148	5
143	143	2
136	140	2
151	151	1
81	81	6
75	84	1
4	4	8
126	141	3
10	10	1
132	135	3
86	90	1
116	116	6
56	62	1
33	35	4
30	31	2
107	113	1
51	52	6
137	138	3
35	49	9
93	93	5
145	145	3
35	35	3
107	107	1
31	38	3
48	55	2
141	143	2
120	137	1
55	55	2
118	118	8
110	118	3
150	150	1
156	156	1
91	101	1
96	96	2
154	154	4
50	54	1
158	158	1
41	43	4
70	91	1
26	38	5
85	86	2
25	25	2
31	32	3
15	15	1
52	56	3
78	78	2
142	144	1
18	31	3
134	134	2
139	152	1
34	34	2
13	22	1
133	142	2
93	105	2
56	56	4
112	112	2
83	84	5
114	134	2
103	118	6
20	28	3
33	45	2
72	79	2
33	36	1
100	100	1
13	15	2
44	44	1
126	127	3
88	88	2
24	24	7
124	125	4
105	135	2
19	37	1
3	3	3
88	100	1
153	155	1
137	147	1
99	107	1
92	106	2
44	54	2
15	26	4
128	138	1
50	55	1
159	159	1
42	55	2
70	89	3
136	137	3
66	69	2
7	7	2
65	91	1
85	88	1
67	67	1
43	56	1
99	99	1
77	82	1
70	108	4
124	124	1
131	131	1
23	34	1
86	86	1
109	113	3
41	54	2
121	131	2
108	114	1
17	17	2
31	146	2
77	83	1
41	49	1
125	133	2
118	129	1
2	4	2
26	36	3
15	24	1
145	146	1
99	100	1
75	75	1
33	48	2
38	45	1
37	37	1
73	84	1
105	105	2
40	54	1
102	114	1
133	133	1
122	132	1
40	40	1
41	41	3
123	125	2
147	156	2
108	121	1
139	147	3
148	148	2
152	153	1
32	36	3
86	95	2
80	80	1
104	105	1
2	31	1
97	99	1
64	64	2
29	35	1
115	115	1
20	21	1
2	6	1
115	122	1
19	30	1
67	102	1
97	109	3
112	124	1
8	19	4
152	152	1
18	152	1
68	81	2
100	104	2
143	144	1
126	128	1
147	148	1
73	73	1
108	130	2
109	109	1
111	130	1
98	99	1
72	98	1
151	153	1
146	147	1
129	130	1
95	95	1
21	31	1
31	31	1
26	37	1
64	69	1
2	11	1
126	126	1
116	119	1
157	157	4
50	50	3
85	92	1
6	23	1
19	28	2
138	138	1
70	70	1
100	112	1
1	1	1
86	92	1
118	131	1
108	108	1
150	153	1
101	108	2
97	105	1
87	87	2
144	144	2
107	112	1
131	132	1
101	101	1
144	145	1
23	36	1
98	98	1
