2	3	3
111	139	1
68	68	12
69	69	9
82	82	14
135	135	10
33	33	9
65	140	4
50	50	7
31	31	8
100	100	9
0	35	3
61	61	12
138	138	6
107	107	4
26	26	11
87	87	7
124	125	3
47	47	14
136	136	15
27	27	13
47	61	1
81	81	7
8	8	17
88	88	8
65	66	3
20	20	8
97	124	5
109	109	2
113	114	4
65	65	4
118	140	1
121	121	15
103	103	14
1	1	6
119	119	6
20	21	14
47	55	1
128	129	6
74	75	8
130	131	5
64	66	3
96	125	2
91	91	19
57	58	3
8	9	2
76	77	3
104	137	1
19	19	13
80	80	6
127	129	2
69	70	9
54	81	6
127	127	13
115	116	6
102	103	5
28	29	3
12	14	4
103	104	4
15	34	3
76	134	4
41	42	6
98	98	4
55	55	8
143	144	3
52	52	6
67	110	3
78	79	10
59	61	2
105	105	10
77	77	15
141	141	13
59	60	4
101	116	1
120	127	8
96	96	14
26	38	1
37	37	6
93	142	1
101	101	13
34	34	4
42	42	3
109	110	6
18	36	1
86	86	14
66	77	1
67	67	8
95	95	13
116	117	5
34	37	2
131	132	3
29	29	14
54	54	6
120	120	12
97	98	2
59	59	6
109	133	1
73	108	6
67	76	4
16	16	11
33	39	2
12	12	4
24	25	4
2	59	7
64	65	7
27	28	7
71	111	2
99	124	2
68	87	2
6	57	1
23	24	7
62	67	2
23	29	2
124	124	17
99	140	1
77	92	4
108	108	14
15	15	12
133	138	1
12	38	2
48	54	1
55	56	7
115	115	8
47	48	2
59	75	3
95	136	2
129	129	8
78	80	1
53	53	12
73	130	2
85	85	5
60	60	11
93	93	4
112	113	4
50	57	4
34	36	4
132	134	2
4	58	2
58	59	7
66	86	2
71	71	4
61	62	6
92	93	5
14	14	7
90	93	2
18	59	6
99	99	6
53	55	1
83	83	4
117	117	6
122	122	3
99	141	5
48	48	10
126	126	6
22	22	20
62	62	3
79	79	7
32	33	4
91	92	3
1	8	2
114	118	4
3	4	2
58	58	5
109	134	3
99	112	1
99	100	5
23	23	3
122	123	4
132	132	1
59	70	4
54	97	3
119	120	2
64	85	4
63	64	2
73	73	9
118	118	5
63	63	8
138	140	8
98	99	2
101	102	8
24	24	9
104	104	10
49	50	1
37	41	2
40	40	15
116	118	1
9	12	5
97	97	7
53	56	2
25	25	9
62	68	2
57	57	7
136	137	1
80	81	3
17	42	2
112	112	6
11	11	7
8	10	3
60	62	2
113	117	1
1	2	3
120	123	3
129	130	4
104	134	1
113	113	7
67	68	1
2	91	1
38	38	22
142	142	5
133	134	1
74	74	5
131	131	10
3	3	3
5	5	10
64	64	6
81	91	3
2	2	2
13	13	6
17	17	13
114	115	5
49	51	1
52	75	3
43	59	4
116	116	5
41	61	2
143	143	1
71	72	1
118	119	5
28	28	5
117	118	4
72	72	5
41	41	11
10	10	8
60	61	1
79	80	3
17	142	1
70	70	3
102	102	2
49	49	3
61	69	1
144	144	7
66	66	5
66	85	1
106	108	1
131	133	4
9	9	7
133	133	2
39	39	1
35	35	3
90	103	3
16	17	6
79	81	1
78	81	2
90	91	3
94	94	12
124	141	1
21	22	1
50	51	1
4	4	2
94	141	1
4	57	2
106	133	2
75	75	5
20	32	2
36	36	1
128	130	2
94	112	1
18	18	12
30	31	2
139	139	2
126	129	2
139	140	2
75	91	4
102	104	3
96	129	2
134	135	2
118	120	4
94	95	3
117	141	2
62	81	3
53	96	1
62	97	2
0	0	5
10	11	2
123	123	9
2	57	2
112	116	1
93	94	1
38	61	2
146	146	3
31	32	4
88	90	3
111	125	2
13	16	1
30	30	6
109	136	1
110	122	3
73	129	2
26	27	4
13	37	2
0	1	2
70	71	2
52	74	2
92	92	6
124	140	2
25	28	4
52	53	4
145	145	3
6	6	2
43	58	2
56	56	6
134	134	1
21	21	1
19	20	1
13	40	2
90	90	4
82	93	1
73	128	2
136	141	1
140	140	3
66	82	1
101	117	1
70	119	2
19	93	4
70	125	2
37	38	1
78	78	6
125	125	5
39	41	2
37	39	3
21	46	1
72	138	2
3	57	1
13	23	2
47	52	1
100	136	1
87	88	5
128	128	6
48	52	1
99	123	1
106	118	1
89	90	1
42	58	2
99	113	1
98	140	1
107	133	1
49	80	3
125	126	4
83	102	1
28	30	4
24	29	2
97	125	1
112	117	1
127	137	1
85	102	1
18	19	2
55	74	3
126	128	1
109	121	1
84	84	3
136	138	2
65	87	2
12	18	2
17	141	1
79	82	2
74	129	1
62	63	3
82	84	3
104	133	1
81	102	1
41	43	1
82	101	1
27	48	1
42	98	1
1	35	1
61	63	2
96	97	2
34	35	3
33	36	3
30	38	2
77	78	2
95	112	1
135	137	2
64	91	1
77	103	1
56	57	1
42	59	1
141	143	2
17	18	1
4	47	1
20	31	1
129	131	1
110	110	2
3	59	1
54	55	1
95	125	2
23	25	1
59	91	1
50	56	1
27	41	1
13	41	1
8	22	1
85	117	1
30	33	2
17	97	1
54	76	1
120	122	1
85	89	1
14	24	2
67	87	1
81	90	1
52	54	1
84	91	1
42	53	1
32	32	3
106	117	1
127	130	1
83	90	1
77	94	1
54	77	1
106	120	2
10	12	1
3	19	1
42	61	1
79	95	1
127	128	2
54	62	1
53	54	1
106	106	1
5	57	1
76	79	1
78	94	1
132	135	1
89	89	2
50	54	1
107	118	1
19	92	1
48	49	1
112	114	1
132	133	3
100	113	1
43	43	1
99	101	1
107	108	1
51	51	1
144	145	2
111	135	1
20	27	1
78	95	1
104	105	1
1	144	1
5	6	1
56	79	1
121	122	1
35	36	1
33	38	1
23	33	1
105	106	1
71	135	1
