107	107	4
18	18	2
81	83	4
75	75	4
79	218	2
191	207	2
200	200	2
34	64	1
189	205	3
207	241	6
20	219	3
167	167	8
42	43	1
138	139	3
51	51	6
219	219	1
56	56	8
48	49	1
84	84	7
198	198	4
58	60	3
64	64	7
134	134	10
140	140	3
110	123	1
150	217	2
181	181	7
207	212	1
106	106	2
19	19	3
76	89	2
206	206	4
175	175	2
211	211	6
116	117	2
11	125	3
193	193	5
107	108	3
58	62	4
226	227	5
164	211	7
64	65	1
187	191	5
109	109	3
46	129	2
11	13	1
81	82	3
121	121	8
56	57	3
12	13	3
17	17	13
160	160	4
137	222	4
104	113	6
233	234	1
194	210	2
15	219	1
44	44	5
192	197	2
104	117	3
2	19	2
224	224	8
238	239	2
240	240	6
214	215	4
71	73	2
143	143	16
10	10	1
22	22	3
118	118	9
122	122	2
208	208	1
38	38	1
53	54	3
221	221	6
230	230	3
59	59	8
9	10	6
115	115	9
111	111	4
59	60	5
164	164	3
180	181	2
23	23	10
104	104	5
74	78	4
102	119	1
8	8	5
128	129	2
171	171	11
56	58	2
48	48	6
102	127	1
20	23	3
11	12	4
55	55	2
16	21	3
234	234	6
186	186	2
214	214	5
29	34	7
162	162	7
102	102	8
173	184	4
16	145	3
133	133	3
128	128	7
221	222	3
143	144	5
190	208	1
61	61	14
146	146	4
18	21	4
46	47	5
29	64	1
19	21	2
195	195	1
184	185	3
103	104	3
4	4	2
62	62	8
118	119	3
205	206	1
155	155	8
14	14	5
123	123	5
154	155	1
46	46	2
99	99	7
36	37	3
116	118	4
235	237	2
174	175	5
135	135	5
76	76	6
2	2	6
228	228	9
11	86	1
188	188	4
7	230	2
179	179	11
45	125	4
25	25	5
221	241	3
63	64	1
86	86	2
127	127	2
52	58	1
25	26	4
7	68	3
178	178	2
154	159	4
74	74	3
66	67	3
34	34	1
177	177	7
174	174	5
2	3	4
22	139	2
10	13	2
54	54	2
191	191	4
99	120	1
70	70	6
194	194	4
197	199	3
221	240	1
98	99	1
182	182	2
21	144	2
218	218	10
11	11	3
226	226	3
202	202	5
211	212	2
218	222	1
125	130	3
152	155	2
167	168	4
6	6	5
9	36	1
236	236	6
65	66	4
58	58	2
210	210	4
141	141	1
103	120	1
59	128	1
85	85	4
73	73	2
189	189	9
14	15	1
67	68	1
141	228	1
233	233	7
5	5	7
46	127	3
5	7	1
5	55	1
97	97	2
2	22	1
165	165	3
81	81	4
187	223	1
105	105	5
54	55	1
151	152	2
114	116	2
123	166	1
202	212	4
182	183	1
125	129	1
111	184	1
163	163	8
30	31	2
41	45	3
73	74	1
141	214	2
196	197	2
160	221	3
35	35	5
142	142	6
0	22	3
166	166	1
181	182	2
73	78	3
239	239	5
156	156	3
55	56	3
207	242	2
237	238	4
107	112	4
105	125	1
177	178	7
135	136	5
33	34	6
69	70	3
47	47	4
26	26	8
220	221	2
205	205	6
0	0	3
69	69	3
152	152	1
225	236	1
52	57	1
111	169	2
168	168	2
215	215	3
173	173	3
227	227	2
52	52	5
16	18	5
38	47	1
155	156	2
139	140	5
119	119	7
241	242	1
224	226	2
168	169	3
145	146	3
29	29	5
6	8	2
32	32	2
212	212	4
137	221	2
150	185	3
141	215	2
105	106	1
153	221	1
7	8	1
31	34	5
124	124	5
217	217	5
164	184	2
140	223	2
98	122	4
239	240	1
64	99	2
137	156	4
187	187	2
103	103	3
71	71	2
213	213	1
161	221	1
53	53	5
71	80	2
39	40	2
38	49	1
15	83	3
174	183	1
238	238	1
143	146	2
18	86	2
26	122	2
225	225	2
166	167	4
176	176	3
79	219	1
151	151	3
22	23	2
72	72	6
150	152	2
40	41	2
15	15	4
20	20	5
68	68	5
76	79	5
161	161	2
163	216	1
16	82	3
158	159	1
197	197	5
142	228	1
12	12	4
21	21	4
45	46	1
189	190	4
34	36	3
148	148	3
213	215	1
108	112	1
49	50	5
199	199	5
7	9	1
24	24	5
173	174	2
76	88	1
120	121	3
29	69	1
220	220	2
88	88	1
228	229	2
21	22	2
17	166	1
53	55	2
115	116	2
144	144	4
172	173	4
29	33	1
136	137	5
82	83	2
60	60	1
98	98	6
222	222	2
165	166	2
17	148	1
33	64	1
189	202	2
40	40	2
169	174	2
103	105	2
125	125	1
31	31	4
3	5	2
157	162	1
203	203	1
147	169	1
77	77	3
204	205	2
174	186	1
42	156	2
3	4	1
138	138	2
11	64	1
142	220	2
133	134	2
242	242	2
213	214	1
16	16	2
85	154	3
105	126	2
216	216	6
183	184	1
157	158	2
79	79	1
45	135	2
209	210	1
130	135	2
130	150	1
239	241	1
14	80	1
110	110	1
219	220	1
88	122	1
146	152	1
17	218	1
181	183	1
96	183	2
71	125	1
234	235	3
12	103	1
96	115	1
237	237	1
14	16	1
30	32	2
83	83	2
147	147	3
37	55	1
27	73	3
165	167	2
158	158	3
170	170	2
49	49	5
196	196	2
9	9	1
215	227	1
89	89	1
126	126	3
0	1	2
191	192	2
10	36	1
235	235	1
149	185	1
45	134	1
7	14	1
171	182	1
16	146	1
111	167	1
172	183	3
149	149	1
78	78	3
95	102	1
95	103	1
141	163	2
24	63	1
121	125	2
30	30	2
232	240	1
50	50	3
194	195	1
117	118	2
88	89	1
57	57	1
10	64	2
137	138	2
49	85	1
143	147	1
169	169	1
27	27	1
179	180	2
126	127	1
37	54	2
180	180	2
101	119	3
1	19	1
17	18	1
195	196	3
209	216	1
49	127	2
36	36	2
14	81	1
129	129	2
216	217	2
39	39	3
211	213	2
16	83	2
209	214	1
50	52	1
50	98	5
78	79	1
74	75	2
145	145	3
221	238	1
108	109	1
185	185	1
4	22	1
221	228	1
220	222	2
60	61	2
229	229	3
208	209	1
8	66	1
8	9	1
26	62	1
153	154	2
10	11	1
13	18	1
24	49	1
147	148	1
113	113	1
45	45	1
17	149	1
136	138	1
61	98	1
155	159	1
102	108	1
28	28	1
151	164	1
49	125	3
193	194	1
106	107	2
137	137	2
10	24	1
103	106	1
25	122	1
6	7	1
136	216	1
3	19	1
33	33	2
207	207	2
43	43	3
15	16	2
231	231	1
139	141	1
234	236	1
71	123	1
212	213	1
163	165	2
229	230	1
111	187	2
171	188	1
30	34	1
80	80	1
162	163	1
12	84	1
199	200	1
147	149	1
133	163	1
38	50	2
156	158	2
236	238	1
37	38	1
204	204	1
139	139	1
24	130	2
203	204	2
164	197	2
73	79	1
1	24	3
201	202	1
47	48	2
153	153	2
101	101	1
67	81	1
224	227	1
101	120	2
28	29	1
41	44	1
107	111	1
134	158	1
3	21	1
209	229	1
115	117	1
3	55	1
0	23	1
209	230	1
60	62	2
126	129	1
37	37	1
13	14	1
75	78	1
232	232	1
114	114	1
46	135	1
232	233	1
168	185	1
200	201	1
131	131	1
49	54	1
7	7	1
164	216	1
149	200	1
104	121	1
141	142	1
129	130	1
82	145	1
87	147	1
163	186	1
153	162	1
2	4	1
151	206	1
