34	35	2
28	40	4
26	26	1
31	31	1
22	22	5
102	102	3
57	57	4
110	110	4
88	89	1
78	106	7
34	34	9
103	103	5
79	108	3
105	106	4
49	83	2
40	41	1
50	50	5
75	75	7
50	51	5
49	50	3
112	112	8
114	114	3
72	72	6
47	47	5
95	101	2
46	100	2
98	99	3
93	93	6
33	42	3
35	35	4
95	95	1
53	54	4
91	91	2
58	59	2
58	60	3
100	100	6
71	71	5
63	63	9
94	96	1
30	30	5
67	69	4
79	79	4
67	67	8
41	41	2
24	25	2
53	53	11
44	44	5
64	64	7
40	40	1
79	104	3
97	97	5
82	82	4
87	102	6
94	94	5
85	85	2
30	31	2
90	111	2
78	82	2
95	96	2
80	102	1
87	87	2
104	105	2
25	41	2
65	65	2
33	41	1
19	19	2
70	70	3
24	77	3
61	63	1
86	102	4
37	39	1
76	76	6
28	37	4
25	25	8
57	58	5
36	36	2
101	103	4
73	74	2
24	24	6
32	33	2
93	103	1
42	42	2
77	78	1
27	27	4
77	77	5
66	67	1
59	59	2
28	29	6
44	46	1
23	23	2
101	101	3
45	45	4
106	106	9
24	56	1
48	48	1
105	105	1
78	110	1
48	75	4
52	53	2
73	73	5
99	99	5
28	28	11
60	69	3
25	75	4
108	108	3
81	81	3
80	80	2
65	87	8
96	97	6
28	34	4
62	62	5
26	32	2
28	47	1
109	109	3
54	54	4
49	49	1
69	69	4
53	55	1
86	101	5
92	92	4
58	58	5
51	51	3
20	36	1
78	80	2
72	74	1
31	47	1
74	74	4
25	76	2
78	111	1
104	104	4
56	56	2
54	110	2
111	111	3
28	75	2
43	43	4
21	36	1
37	37	3
78	78	3
53	109	1
59	63	2
25	57	2
88	102	1
83	83	2
59	61	2
27	33	1
60	61	1
104	106	1
34	39	2
21	23	2
39	48	2
39	42	2
75	76	1
107	107	2
22	23	2
89	110	2
66	66	4
24	32	3
68	68	1
103	104	1
36	39	1
93	102	1
21	21	1
53	107	1
78	109	1
32	32	1
20	20	4
100	101	2
113	113	4
52	52	1
25	26	1
77	107	2
86	86	1
61	61	2
31	55	1
96	96	1
39	39	1
28	38	1
20	35	1
72	75	1
38	38	1
28	39	1
65	69	1
