97	97	8
53	53	9
90	90	6
57	57	11
66	69	4
97	101	3
68	72	3
34	34	6
85	86	8
91	100	4
86	91	1
67	67	6
68	71	1
44	45	1
72	72	11
87	87	2
86	97	2
71	73	1
41	42	1
35	35	2
80	93	3
52	52	8
100	101	6
89	90	3
52	63	2
72	77	8
33	35	4
80	82	2
84	84	5
71	74	2
61	61	2
79	80	4
66	71	3
70	70	11
86	86	2
36	48	2
62	62	4
65	65	6
91	91	4
70	79	5
75	75	6
42	45	4
56	57	5
37	53	3
71	71	5
64	77	3
69	72	4
60	62	2
45	45	4
49	49	5
83	102	2
77	79	1
76	76	12
55	59	2
67	93	9
28	28	5
48	49	6
74	74	14
73	73	4
70	73	1
76	87	1
54	55	3
59	59	9
45	51	1
78	79	8
29	29	4
88	89	4
44	44	1
66	66	9
29	39	2
20	29	1
65	70	3
69	70	2
87	88	5
42	52	5
39	52	1
76	83	1
43	43	3
60	61	3
25	38	1
101	101	10
65	89	1
68	76	2
34	35	3
25	35	1
74	80	2
78	78	2
44	50	1
27	29	6
31	32	1
73	77	1
26	26	3
54	60	2
68	70	1
64	64	5
80	81	2
44	57	1
36	36	8
75	77	3
100	100	1
95	98	3
50	73	1
54	54	2
52	64	4
54	56	1
56	56	2
49	55	2
45	50	3
25	25	6
71	72	3
60	67	1
70	72	2
63	77	2
42	42	6
51	62	1
57	59	2
36	37	2
46	53	1
84	101	1
37	37	1
30	30	4
61	65	2
67	79	2
49	51	1
41	41	4
84	85	3
40	52	2
42	50	2
85	85	5
93	96	1
37	49	2
96	99	3
67	71	2
50	50	1
20	22	1
68	68	2
56	64	1
23	26	2
79	92	1
69	69	3
32	45	1
32	32	1
95	100	4
38	38	1
40	42	2
77	77	4
97	99	3
65	67	3
88	88	5
91	101	3
99	101	1
52	60	1
39	39	3
88	99	1
64	66	4
79	79	7
50	52	1
69	85	2
43	45	2
69	83	2
33	33	2
92	92	4
57	58	3
73	82	5
94	97	1
53	61	1
63	63	4
60	101	2
27	28	3
48	55	1
39	51	3
68	82	1
55	56	2
56	62	1
42	43	1
65	77	1
94	94	1
49	57	1
83	83	4
40	45	3
94	96	2
22	43	1
69	79	1
77	88	1
84	86	1
24	24	1
76	84	1
68	85	1
38	58	4
52	54	1
64	78	2
89	89	1
26	39	2
77	78	2
92	93	2
93	93	1
68	79	1
55	55	2
20	24	3
66	67	1
72	73	2
82	83	1
37	38	1
25	33	1
94	95	1
46	47	1
74	77	3
92	94	1
32	43	1
80	80	2
40	49	1
72	74	1
63	65	1
98	101	1
45	46	1
63	68	1
66	68	1
76	77	1
99	99	2
101	102	1
38	49	1
40	40	1
46	46	1
79	95	1
59	61	1
86	88	1
47	47	1
83	84	1
61	69	1
56	59	1
74	90	1
24	27	1
60	64	1
44	70	2
67	68	1
48	48	1
81	82	1
34	48	1
67	69	1
85	99	1
51	52	1
82	82	1
99	100	1
78	80	1
67	92	1
73	75	1
