204	204	3
54	54	1
65	66	2
224	224	5
226	226	3
114	114	1
205	205	1
102	102	3
15	15	4
40	79	4
192	199	1
209	214	1
114	228	2
88	88	2
176	176	3
181	226	4
194	198	1
234	234	3
70	71	3
204	205	1
79	79	6
171	171	3
164	164	3
180	181	1
198	198	10
122	130	2
125	125	3
192	192	2
241	241	3
193	199	2
30	33	3
66	66	1
150	150	4
9	20	5
222	223	1
20	20	1
209	209	5
135	135	7
102	109	2
167	167	9
102	165	3
121	121	2
60	72	2
24	25	1
209	210	2
126	130	6
81	83	1
38	147	2
41	41	2
19	19	10
21	22	3
38	38	4
100	100	5
68	68	2
29	60	1
165	166	2
191	200	4
78	78	7
242	242	6
73	74	2
53	82	3
97	97	2
80	85	1
1	9	5
66	72	1
187	188	2
237	237	2
59	59	4
136	137	1
3	3	2
60	60	2
98	98	2
179	180	1
162	162	3
71	71	1
72	72	2
143	143	4
122	122	2
40	40	6
75	75	5
82	83	3
127	127	2
219	223	1
55	62	1
33	67	2
76	79	4
232	232	3
45	46	3
61	62	2
233	233	4
122	129	8
214	214	2
16	57	4
143	146	1
76	78	1
119	119	3
159	159	2
106	107	1
28	55	2
11	11	3
7	7	5
137	139	4
61	64	1
13	13	1
28	28	9
230	230	3
148	148	2
86	86	4
107	107	7
7	23	1
14	14	7
103	166	2
212	213	6
156	156	4
207	207	5
193	193	1
176	177	1
108	108	2
15	16	4
4	4	2
164	165	2
183	184	1
128	128	1
135	168	2
130	131	1
163	163	4
150	151	2
117	117	4
159	160	2
39	40	1
126	126	3
13	14	2
197	197	6
189	192	2
115	119	1
217	217	5
188	188	4
204	206	7
36	37	2
180	180	2
106	106	2
208	208	6
27	27	4
9	18	2
239	239	1
7	8	5
166	167	1
101	102	3
208	210	3
178	178	7
151	152	2
23	57	3
49	97	3
56	57	1
176	222	2
67	67	4
154	198	2
144	148	3
235	241	1
161	163	1
6	6	2
59	60	3
158	163	2
35	35	2
118	119	4
108	154	1
39	148	1
123	123	4
57	57	5
9	9	4
7	21	1
144	144	2
175	180	2
63	63	5
222	222	2
220	221	3
240	240	3
118	125	1
63	65	2
227	227	1
118	118	2
27	74	5
199	199	4
75	76	3
53	53	3
2	2	2
96	138	2
18	24	1
84	84	7
81	84	1
109	109	3
30	30	2
234	235	3
5	6	2
112	112	3
172	173	3
69	69	4
28	54	1
185	185	1
190	201	1
6	7	2
154	155	1
113	114	6
16	16	1
155	155	2
175	176	1
160	161	2
70	70	2
55	55	4
196	197	1
95	139	1
36	36	7
220	220	1
161	161	5
140	140	4
215	216	3
74	74	2
115	118	2
104	105	1
175	175	4
215	215	3
25	25	2
86	96	3
219	219	2
165	165	2
82	82	3
5	5	4
116	117	1
49	140	1
66	68	1
225	225	4
27	33	1
120	120	1
217	219	4
211	211	1
100	101	2
104	162	1
61	61	4
108	109	2
111	111	2
178	179	4
47	47	1
76	76	1
142	142	1
229	229	2
45	48	2
72	73	2
14	17	1
182	226	2
160	160	2
0	0	1
209	221	1
138	138	5
37	38	1
137	167	1
170	170	2
202	202	1
238	238	4
207	216	1
227	229	2
136	136	1
189	190	2
240	241	1
226	227	2
232	236	1
200	236	1
51	51	1
217	241	2
22	22	3
217	218	1
1	3	1
229	230	2
213	213	1
77	78	2
99	115	1
21	21	4
27	28	2
103	137	1
194	194	1
101	139	1
191	202	1
24	24	2
44	44	2
186	188	1
122	123	1
184	212	3
61	72	2
145	145	1
102	103	1
173	175	1
117	168	1
16	18	3
211	225	2
111	112	1
85	85	2
191	191	1
12	12	3
51	52	4
223	223	4
115	115	2
189	212	1
199	229	2
231	231	1
173	174	1
18	18	1
153	153	2
115	169	1
2	4	2
210	210	1
120	126	2
231	232	2
52	52	1
158	162	1
184	186	1
166	166	1
203	203	3
219	220	1
48	48	3
182	182	2
49	49	1
54	82	1
83	83	1
162	163	1
87	95	1
200	200	1
14	15	1
113	113	1
203	235	2
30	31	1
26	26	2
99	169	1
154	154	1
168	168	1
181	181	1
29	29	3
126	127	1
109	163	1
69	70	1
10	10	1
146	146	1
39	39	3
32	34	2
134	136	1
173	182	1
172	172	1
37	39	1
189	189	1
133	133	1
110	110	1
147	147	1
101	167	1
223	224	1
122	126	1
177	180	1
216	217	1
17	17	1
42	43	1
40	146	1
33	36	1
133	136	1
147	148	1
101	101	1
57	58	1
177	177	1
56	56	1
32	73	1
235	235	1
23	54	1
218	218	1
195	196	1
23	24	1
183	212	1
131	131	1
105	141	1
45	45	1
187	187	1
23	23	1
5	7	1
42	42	1
