155	155	19
47	47	13
100	100	28
201	207	3
91	91	12
89	91	2
26	27	4
230	230	15
244	245	4
18	18	17
161	161	13
216	216	16
73	73	13
208	209	3
156	156	13
93	93	23
204	204	27
99	101	7
172	172	17
6	155	1
195	211	2
101	101	10
95	96	4
179	179	20
197	198	11
218	218	12
186	186	9
39	39	11
44	44	19
35	35	15
215	217	2
39	46	2
220	220	16
194	194	7
81	82	5
166	166	9
66	66	24
230	232	2
120	120	2
225	225	21
175	182	2
206	208	3
57	57	7
209	209	29
183	183	13
163	164	1
19	19	18
42	42	14
110	110	14
14	14	8
182	182	17
114	114	21
8	154	2
154	154	20
249	249	3
214	215	8
81	81	17
8	8	12
62	62	15
68	68	10
61	61	24
36	37	6
216	217	8
57	58	13
110	112	4
76	94	1
233	233	16
235	235	4
7	7	8
171	171	15
227	227	23
60	175	7
199	233	5
114	115	9
38	38	12
248	249	3
33	33	16
231	231	16
49	50	8
25	25	6
161	185	3
7	8	1
58	58	6
228	228	10
157	161	2
234	234	21
43	43	16
86	86	9
10	10	15
152	229	1
237	249	1
221	222	11
208	208	16
161	213	1
96	97	7
20	20	11
95	193	3
232	232	21
201	201	12
3	4	1
52	52	24
100	101	10
49	61	6
1	1	11
73	75	3
2	2	7
34	35	5
12	13	5
116	116	23
72	72	17
232	233	7
193	193	9
196	196	12
40	41	5
209	210	3
32	36	4
159	160	5
15	15	5
92	92	11
174	174	6
154	155	1
210	210	21
194	195	3
17	18	10
61	62	5
29	29	14
42	67	1
59	195	1
85	85	15
212	212	10
76	83	3
147	147	5
54	55	4
167	200	3
51	53	8
50	50	11
105	106	1
229	229	18
190	190	7
192	197	1
12	28	3
37	37	20
203	203	17
167	201	3
182	183	10
51	51	6
79	79	8
77	77	9
247	247	8
211	212	1
170	171	4
82	85	4
246	246	25
214	241	4
98	98	7
164	164	24
240	241	9
227	242	4
107	107	17
237	237	16
158	228	2
24	24	14
30	30	13
180	180	18
167	169	3
94	94	8
116	117	3
213	217	1
212	227	5
164	240	5
149	205	2
191	191	7
102	102	10
173	173	17
163	175	3
16	16	14
36	38	2
187	188	5
175	175	19
21	22	9
46	67	1
62	63	1
185	185	18
212	213	7
49	49	7
192	192	23
32	42	6
54	54	4
197	197	7
245	245	14
90	92	10
72	120	8
54	193	7
6	6	26
76	76	3
53	110	2
95	95	14
161	162	8
74	74	4
89	90	8
199	199	20
46	46	8
202	202	10
116	159	3
168	171	1
70	70	14
54	94	5
162	162	11
157	157	7
63	63	5
109	109	12
9	9	9
180	182	2
57	119	2
44	45	7
5	66	3
233	234	8
239	239	11
115	115	5
47	65	3
82	82	17
184	184	14
112	112	23
36	36	27
224	224	9
119	119	15
213	214	4
215	220	2
244	244	15
32	32	22
50	114	4
191	192	4
1	2	2
23	23	15
70	71	6
90	192	1
214	214	12
91	93	3
150	150	18
167	174	9
50	112	1
27	27	9
88	88	14
211	211	14
237	238	4
54	120	3
168	168	10
167	168	3
11	11	19
162	163	11
206	206	13
34	34	15
5	65	2
92	102	3
108	108	7
192	207	3
90	90	11
94	95	2
22	22	9
158	158	5
191	222	4
60	61	7
169	169	7
52	108	2
187	187	4
21	21	12
59	60	3
219	219	13
195	195	12
69	69	17
82	87	4
110	111	5
238	238	10
165	165	12
43	44	6
222	222	7
200	200	9
230	231	9
70	72	1
242	242	14
68	69	1
99	99	3
21	23	3
108	109	2
158	225	4
83	83	9
153	156	4
96	191	5
159	159	9
78	78	17
18	19	5
55	55	6
40	40	17
162	213	1
2	3	3
179	180	3
207	207	8
103	103	3
204	205	5
11	16	2
111	111	10
193	197	5
181	181	10
111	118	2
157	160	5
152	152	8
67	67	14
149	149	3
146	147	7
153	153	17
18	28	2
213	213	13
194	213	4
31	31	22
81	84	2
199	218	4
234	235	6
176	177	3
32	33	5
241	243	1
28	28	19
151	151	17
64	64	6
157	158	8
153	245	2
7	61	7
24	25	3
178	178	14
170	170	7
26	26	14
156	224	3
57	121	4
200	211	1
66	67	8
203	211	2
64	107	3
69	70	6
85	86	9
82	102	2
189	193	3
226	227	12
4	68	5
13	13	1
22	23	4
117	118	8
121	121	1
169	216	2
84	85	9
3	3	10
245	246	2
32	38	1
89	89	6
238	243	2
97	97	6
172	173	2
102	103	5
3	17	5
54	111	3
2	20	1
165	198	1
227	228	7
152	159	4
78	79	3
72	145	1
217	218	6
221	221	10
168	170	1
17	29	2
71	71	18
166	167	4
103	105	3
241	241	4
111	112	2
160	201	1
163	163	13
60	60	3
97	109	1
38	40	1
220	221	1
12	12	14
76	89	1
117	117	9
205	205	2
229	230	4
61	177	2
82	84	5
155	235	5
51	112	4
226	226	3
116	158	2
161	186	3
158	159	1
198	198	25
210	211	5
5	5	7
81	102	4
45	45	10
87	88	13
54	100	1
242	243	4
75	75	7
60	66	1
183	184	7
81	97	3
167	167	9
189	189	7
65	66	2
151	152	2
157	228	4
118	118	4
41	41	8
81	107	2
5	49	5
49	60	3
171	172	6
177	178	4
51	52	3
35	37	1
47	48	4
189	190	6
186	188	1
210	236	4
181	185	2
74	159	3
56	56	3
109	110	3
195	197	4
203	204	7
217	217	13
59	111	2
243	244	9
65	65	8
48	60	4
156	157	2
216	237	1
16	17	2
32	39	1
19	66	4
51	117	3
215	215	5
180	184	4
4	4	6
166	178	3
160	160	7
11	12	4
162	166	1
165	166	1
178	180	1
228	229	1
43	67	2
40	43	2
115	116	2
9	10	4
4	49	3
236	236	9
74	79	1
211	235	2
56	57	1
98	99	2
41	42	1
14	17	2
18	30	2
47	63	4
92	101	1
42	43	4
80	80	1
69	72	1
104	104	11
158	160	2
190	224	3
5	50	6
144	207	3
59	59	9
99	102	3
38	65	2
121	165	1
56	59	5
166	217	1
30	32	2
14	15	5
3	69	1
237	240	1
239	240	5
87	87	8
169	173	4
66	111	4
232	247	1
236	237	2
9	11	3
97	101	2
52	116	4
208	210	3
5	48	3
39	65	5
151	154	3
28	62	1
45	114	1
53	53	4
61	176	8
117	144	2
8	11	3
193	196	4
164	166	1
12	67	2
153	230	2
17	17	4
3	21	5
7	59	3
42	66	1
86	87	3
155	223	2
145	145	5
188	190	1
9	28	1
73	74	2
67	68	1
19	28	1
39	40	1
54	109	2
146	146	2
190	207	1
90	91	4
162	201	2
88	89	2
227	229	1
55	56	3
194	222	1
19	29	4
44	46	1
113	114	3
224	225	4
186	187	2
6	7	4
230	244	1
39	41	3
77	78	1
167	175	1
206	207	4
175	179	1
52	53	2
177	177	3
156	225	2
91	92	4
171	173	3
90	93	1
113	153	1
204	224	2
150	151	3
6	16	1
54	192	2
197	199	4
41	64	2
25	26	1
116	160	2
52	117	1
59	112	2
48	48	10
155	156	6
168	169	1
51	153	1
235	236	1
74	77	3
154	212	1
32	41	1
64	108	2
57	59	1
7	55	1
238	239	2
197	234	2
19	20	4
198	199	4
48	108	3
201	205	1
175	176	2
2	4	2
29	30	1
151	159	1
5	47	1
79	83	2
73	79	1
25	29	1
84	90	1
186	223	3
199	217	1
4	5	2
187	192	1
145	146	1
176	193	1
23	24	1
90	95	1
153	157	1
50	51	1
80	87	3
6	57	1
204	211	2
63	64	1
188	188	1
50	109	1
92	93	4
30	31	3
16	30	4
242	244	1
17	21	1
225	226	1
79	80	2
84	84	1
165	192	1
79	81	1
99	103	4
200	201	3
25	64	3
93	94	3
55	111	1
52	109	1
221	224	1
96	109	2
93	95	1
167	170	1
202	203	1
218	219	2
151	160	1
106	106	3
33	34	1
235	244	3
161	166	2
198	234	2
220	222	2
118	119	2
232	234	1
100	182	1
199	200	2
240	240	1
98	108	1
214	219	1
20	22	1
27	28	1
243	243	2
60	193	1
184	185	3
203	212	2
83	84	2
153	234	1
197	201	3
113	113	10
207	208	1
54	93	1
180	193	3
50	64	2
74	160	3
81	103	2
215	219	3
205	206	2
157	185	1
152	153	1
223	223	1
71	72	2
168	174	1
248	248	2
96	96	1
10	183	2
179	182	3
214	216	1
39	67	1
48	113	1
157	223	1
188	189	1
76	90	1
170	179	1
112	113	2
3	6	1
236	243	1
75	76	1
160	184	1
167	172	1
121	161	1
15	16	1
213	221	1
54	70	1
169	172	1
188	197	1
157	225	2
33	36	1
90	101	1
48	107	1
178	198	1
174	175	1
19	32	1
173	174	1
6	47	1
153	158	1
15	17	1
72	160	1
160	161	1
96	98	1
231	232	1
244	246	1
246	247	1
201	202	1
180	181	1
111	164	1
14	43	1
51	82	1
77	80	1
23	31	1
