15	15	4
27	27	12
185	188	4
221	221	5
174	191	1
233	237	2
98	98	4
72	82	1
107	109	3
147	148	3
43	51	2
113	113	4
198	199	5
203	203	10
28	28	4
88	89	10
185	185	8
17	17	3
222	222	5
49	50	2
61	61	7
14	14	9
220	220	3
9	10	7
4	57	3
161	161	11
47	48	2
115	115	6
169	169	4
224	224	12
4	12	4
71	71	15
45	54	3
197	197	7
173	174	7
10	10	6
72	72	10
220	221	4
191	191	9
193	195	3
146	146	4
208	212	4
153	161	1
204	204	3
194	214	1
57	64	2
134	134	2
62	62	12
198	198	6
59	59	2
2	3	2
141	143	1
133	134	2
36	36	11
148	148	6
172	173	5
83	113	2
137	140	1
54	56	1
187	188	8
1	4	8
21	34	2
118	129	3
237	237	5
12	13	1
212	212	10
105	117	3
152	152	3
209	211	1
136	149	3
119	119	1
195	203	6
231	239	3
163	165	4
71	80	3
128	128	2
34	44	3
146	148	1
109	109	2
172	172	6
118	118	4
108	108	3
171	178	2
155	155	6
183	184	1
9	9	4
138	140	1
163	166	6
193	196	1
2	2	5
211	218	4
23	24	5
7	9	3
172	181	2
186	192	3
1	1	5
74	74	10
5	6	5
140	144	6
186	193	4
128	129	3
195	228	3
126	126	4
116	116	5
23	25	3
126	128	4
70	71	3
130	141	5
182	184	4
143	171	3
50	59	1
183	187	3
238	241	2
208	209	2
43	56	3
12	16	3
236	236	4
63	63	6
224	229	2
24	25	2
222	227	1
163	177	1
15	88	2
150	150	7
219	219	1
132	133	1
136	144	4
136	136	15
166	171	2
190	190	4
182	194	1
118	119	1
235	237	2
149	150	4
157	157	4
221	223	2
1	51	2
69	69	9
11	15	1
56	56	8
18	18	3
148	158	1
232	234	5
234	240	2
165	168	2
12	96	2
182	186	3
42	42	5
151	151	2
193	205	4
118	124	1
120	238	3
21	29	1
154	154	7
76	77	1
202	206	4
227	227	5
8	8	8
77	86	3
61	64	3
19	36	4
3	4	2
78	78	3
120	120	5
186	186	6
78	82	1
126	127	2
147	238	2
58	68	1
79	79	9
200	207	1
58	66	3
102	102	4
81	83	2
159	160	4
226	227	1
180	180	3
191	192	6
139	142	2
32	33	7
123	124	1
111	111	7
217	218	8
181	181	5
211	212	3
207	209	8
139	141	3
190	201	4
76	76	2
239	241	3
53	53	3
35	45	2
8	23	3
184	192	1
191	202	6
169	229	1
17	18	1
150	151	3
170	174	1
73	78	2
5	9	2
200	206	2
86	88	1
55	60	1
123	126	3
196	227	5
68	68	9
62	64	5
205	205	4
213	219	5
206	216	3
115	132	1
67	67	1
88	88	3
46	46	4
154	158	2
34	46	3
45	45	3
110	172	5
15	23	2
68	73	2
145	237	4
108	115	1
178	185	2
242	242	5
43	53	2
57	57	6
121	121	5
121	122	3
154	168	2
16	20	1
133	133	1
50	66	2
228	228	5
116	130	1
231	231	5
142	142	6
216	217	1
20	20	3
182	182	4
144	144	5
157	158	1
208	220	1
11	11	4
37	37	2
239	239	1
49	60	4
196	226	1
104	108	4
138	138	6
96	107	2
23	23	3
207	208	7
30	32	4
100	176	1
140	141	1
61	62	2
19	19	2
115	116	1
26	35	2
38	39	2
24	24	3
122	122	2
12	14	5
173	173	1
41	41	4
188	229	1
143	160	3
130	130	3
219	220	1
20	30	1
208	216	3
105	105	3
189	189	5
16	16	5
50	50	4
44	44	2
26	26	6
79	80	6
19	34	1
54	55	2
107	129	1
108	118	2
150	159	6
205	206	5
186	187	2
166	176	1
106	106	5
56	70	1
206	208	1
141	141	7
232	232	6
207	222	1
63	68	2
27	28	2
155	161	1
227	239	1
51	59	3
40	42	1
166	177	1
99	117	1
181	192	1
99	109	1
107	124	3
58	58	2
223	223	1
211	214	1
104	137	1
77	77	1
165	178	1
30	30	4
71	83	2
33	33	2
48	49	2
1	6	4
205	214	1
83	83	3
158	161	3
175	176	2
75	75	1
105	106	5
73	75	1
196	196	11
121	123	2
43	43	4
5	5	3
198	202	3
238	238	6
184	184	3
235	235	5
179	187	1
5	7	1
229	232	2
38	38	3
139	139	1
130	135	1
179	179	5
168	168	4
149	152	1
166	184	1
166	166	3
162	172	1
46	73	2
226	226	3
0	1	4
95	96	3
31	31	2
226	228	1
139	144	4
66	74	1
55	59	1
18	95	1
117	118	1
183	183	1
204	218	1
234	234	2
233	233	5
196	200	3
143	143	1
19	20	1
216	228	1
215	225	1
144	152	2
18	96	2
231	234	1
212	231	2
169	178	2
20	22	2
209	209	1
104	107	1
158	159	1
113	123	1
4	4	1
223	230	1
38	72	1
173	177	2
21	21	3
64	64	3
201	201	1
99	108	1
53	55	3
115	120	2
171	171	7
62	70	3
196	228	4
34	51	3
39	41	1
2	7	4
215	215	1
202	204	2
241	242	2
218	218	3
54	73	1
143	154	2
84	85	3
193	193	1
149	149	2
76	80	2
2	12	1
28	29	1
205	208	1
41	48	2
127	137	3
222	234	1
197	198	2
233	239	3
151	161	1
154	162	1
126	133	2
195	196	4
237	238	1
32	41	1
144	145	2
185	186	1
100	101	1
214	223	3
7	33	4
3	3	1
200	201	2
190	193	3
38	45	2
11	12	1
197	209	1
49	58	1
178	179	1
21	32	3
211	211	2
105	138	1
2	91	1
204	214	2
157	165	3
13	15	2
82	83	2
58	67	1
126	131	1
217	234	1
196	203	1
9	34	2
164	168	1
127	128	2
202	202	1
11	16	1
203	207	1
2	31	4
38	51	1
204	213	1
103	109	1
206	206	3
42	53	1
81	81	2
240	241	1
97	97	1
36	45	1
124	125	1
47	47	4
198	208	3
216	220	2
201	204	1
234	236	2
178	192	1
194	195	2
61	67	1
146	147	1
192	192	6
214	220	1
195	200	2
39	39	2
12	12	1
134	138	3
72	77	2
125	129	3
2	10	1
236	237	2
198	212	1
218	232	1
196	197	2
10	11	2
118	125	2
155	156	2
113	114	1
57	58	1
153	153	6
138	144	1
121	137	1
177	177	3
187	198	2
109	133	1
158	165	1
7	21	3
210	210	2
65	66	1
34	34	1
124	124	1
170	170	4
13	13	3
19	28	1
42	54	1
239	240	1
33	46	1
128	131	3
41	54	1
85	85	1
4	7	2
131	141	1
1	21	2
109	129	1
168	226	2
65	69	3
139	149	2
101	101	1
70	70	3
201	210	1
15	20	1
112	112	1
2	6	2
174	178	1
6	22	3
48	48	3
66	66	1
5	15	2
131	143	1
167	167	1
174	174	1
199	212	1
91	91	1
125	127	1
188	190	2
213	217	1
158	166	1
30	31	1
209	215	2
45	48	2
205	210	2
29	29	1
187	195	2
108	109	1
212	213	1
188	188	2
188	195	2
134	146	2
179	183	1
225	227	1
180	184	1
22	25	3
22	22	1
226	236	1
211	215	4
123	134	1
174	184	1
62	63	1
58	61	2
103	108	1
216	216	1
50	53	2
175	175	3
181	184	1
72	86	2
184	197	1
18	19	2
129	130	2
118	121	1
37	47	2
116	131	2
226	229	3
226	234	1
199	231	1
68	81	3
170	178	1
230	230	1
202	203	1
51	56	1
122	123	1
228	237	1
160	161	1
21	22	2
194	224	1
125	126	2
64	70	2
122	152	1
108	117	1
37	38	2
64	66	1
177	183	1
178	178	1
125	138	2
131	132	1
98	101	1
96	97	1
7	7	1
64	74	1
178	184	2
127	129	1
108	132	1
53	56	1
45	70	1
163	163	2
100	102	2
104	109	1
196	201	1
155	163	3
73	73	1
203	204	1
182	190	1
208	211	1
241	241	1
65	65	2
237	239	2
150	152	2
177	178	2
232	241	1
170	173	1
25	25	3
38	46	1
181	182	1
179	181	1
122	124	1
154	155	1
35	52	1
75	83	1
86	86	1
7	8	1
35	35	1
20	21	1
120	137	1
140	143	1
167	188	1
210	212	1
64	77	1
27	38	1
8	9	1
14	25	1
181	190	1
41	42	2
65	71	1
126	134	2
157	167	1
164	164	1
188	198	1
109	110	1
38	52	1
160	160	1
227	233	1
138	141	1
140	140	1
