76	77	2
38	39	4
21	21	4
133	133	10
99	99	4
30	30	4
68	68	2
31	32	1
56	103	6
39	41	9
30	35	5
23	23	5
18	49	4
86	87	3
53	121	4
92	92	9
138	138	5
106	106	2
45	47	2
88	88	6
102	102	4
12	12	3
146	146	4
27	27	8
156	156	4
56	56	5
66	66	3
42	83	2
134	136	2
108	111	3
4	4	6
144	144	11
52	53	8
72	89	2
149	149	5
109	119	3
99	158	2
84	85	1
96	96	7
89	89	7
119	119	6
96	97	4
6	6	6
69	128	3
45	46	3
48	48	7
32	86	5
41	71	2
47	47	10
112	113	4
82	83	2
98	98	3
97	117	2
131	132	2
107	107	12
149	150	3
43	43	5
103	103	5
54	122	2
12	13	2
78	78	7
146	148	2
42	70	5
55	56	1
93	95	2
52	52	1
14	14	2
51	87	3
82	82	8
135	135	1
3	4	4
67	71	8
23	24	5
18	18	7
71	71	7
151	151	6
114	114	3
108	108	9
17	43	1
94	95	4
116	117	3
90	90	6
5	5	4
118	118	7
46	56	1
103	104	1
143	144	4
118	119	3
31	31	5
158	158	3
127	127	4
128	132	1
155	155	7
22	22	6
100	100	9
15	81	1
20	20	1
101	101	3
91	92	1
31	87	1
14	15	2
129	129	2
147	147	5
50	51	7
7	7	6
70	70	2
139	141	3
27	28	1
105	106	3
145	145	3
43	47	2
18	50	2
72	72	3
128	128	4
111	112	1
123	124	4
141	142	1
137	147	1
126	126	6
0	1	1
62	125	1
24	24	4
89	106	3
117	117	2
148	148	3
51	51	5
11	11	4
30	89	2
38	38	7
80	82	1
109	109	5
54	54	10
105	105	3
46	89	2
10	10	2
17	85	2
16	16	1
3	5	1
124	125	3
24	25	1
38	82	1
77	77	2
106	107	4
42	42	4
150	150	1
124	124	2
123	123	2
153	154	2
104	105	2
20	86	2
104	104	3
3	3	4
65	65	2
154	154	4
150	151	3
132	134	4
85	85	2
66	68	2
29	33	1
122	122	3
1	1	2
37	38	1
26	26	1
37	84	3
51	52	3
134	134	2
84	84	1
64	64	2
90	91	3
142	150	1
140	140	1
137	137	2
152	152	2
26	27	2
88	94	2
57	57	1
98	102	4
19	19	2
142	142	4
28	28	7
131	131	2
139	139	1
93	93	3
13	14	2
51	120	1
4	5	1
17	17	3
116	116	2
1	4	1
69	69	1
53	53	2
40	40	4
87	87	3
28	29	4
25	26	1
50	50	1
120	121	2
16	83	1
8	9	2
68	71	1
92	121	1
88	93	2
43	63	2
95	95	3
50	53	1
34	34	1
91	91	1
73	73	4
49	49	4
130	130	1
148	149	1
117	118	1
55	55	2
1	2	2
108	109	1
129	130	1
46	73	2
99	155	1
45	55	1
3	140	1
153	153	1
86	86	2
25	25	2
32	34	1
63	63	1
139	140	1
114	151	1
13	77	1
147	148	2
112	112	2
41	62	1
44	45	1
79	79	1
121	121	2
19	20	1
48	72	1
9	91	1
136	136	4
74	74	1
65	66	1
151	152	1
30	36	1
32	32	1
67	125	1
37	37	1
63	64	1
113	114	1
15	15	1
97	97	1
93	94	1
57	123	1
87	91	1
152	153	1
