233	234	9
51	51	3
152	174	4
29	29	9
22	23	10
149	150	11
96	97	3
38	38	2
55	61	4
136	136	8
40	68	2
63	63	11
170	170	5
23	23	6
154	164	4
116	117	4
139	139	3
223	223	6
140	143	4
216	217	6
72	72	4
185	203	2
54	54	8
100	120	5
44	44	5
206	207	4
20	20	13
42	42	11
80	81	3
208	208	4
129	129	9
23	34	2
10	10	7
222	222	4
22	25	3
155	155	6
53	53	13
219	219	11
128	152	2
145	147	1
234	236	3
37	40	1
49	49	3
153	153	4
159	159	6
233	233	6
111	113	3
155	158	2
240	241	5
66	66	13
179	179	7
108	108	3
48	179	3
242	242	10
152	173	1
108	146	4
205	217	3
42	237	1
129	145	1
52	52	5
7	8	1
17	18	1
197	198	7
137	169	2
239	240	2
220	220	20
114	114	1
133	139	6
97	97	13
143	143	6
150	150	4
78	78	3
40	67	5
9	10	8
163	165	3
196	197	3
65	65	6
27	27	10
188	188	3
176	176	4
128	128	9
36	83	1
124	124	13
192	192	3
21	22	3
175	179	3
238	238	20
192	196	3
202	202	5
0	0	6
28	28	11
110	110	4
220	222	3
219	225	2
239	239	7
56	56	9
6	6	1
214	214	5
79	80	2
198	200	3
145	145	8
19	19	4
178	235	2
210	212	2
173	173	7
182	187	3
67	67	10
162	163	2
99	120	3
233	237	1
25	25	9
57	57	7
20	21	2
241	242	4
58	58	1
109	128	3
219	220	2
162	162	2
66	67	3
164	164	12
200	200	8
135	169	2
36	37	2
157	157	14
84	84	4
99	101	5
115	116	4
27	29	2
60	60	12
168	171	2
108	145	1
201	203	2
180	180	9
24	32	2
240	240	10
231	231	3
176	177	1
65	66	1
173	174	6
207	216	3
172	197	1
24	24	9
232	233	4
207	208	5
37	37	5
85	85	8
174	174	5
69	70	2
102	147	2
147	148	2
148	148	5
103	159	1
166	193	4
124	126	2
5	6	3
44	45	6
206	206	2
126	126	10
153	172	2
1	1	10
133	133	7
137	174	1
207	210	1
152	152	5
169	169	4
209	209	4
232	232	8
182	182	2
163	163	6
183	196	1
153	164	4
100	100	4
28	30	2
180	181	4
32	33	3
198	198	5
57	62	4
213	213	2
206	214	2
118	125	2
175	178	4
74	74	10
182	207	7
205	206	5
39	238	3
81	81	7
149	149	2
107	108	1
12	29	1
47	47	14
98	99	4
65	68	2
125	125	3
181	182	2
146	146	7
128	148	4
96	99	1
239	241	1
230	230	4
37	67	2
123	125	1
228	228	1
74	75	2
123	126	2
131	131	1
131	134	1
162	165	1
57	60	4
204	204	8
16	16	2
27	30	1
62	62	3
220	221	4
12	12	1
7	7	7
105	105	6
88	88	2
40	40	7
161	161	3
4	7	2
10	39	2
122	143	1
120	120	3
160	161	8
217	217	8
75	75	11
24	25	1
134	140	2
70	70	1
152	153	2
9	9	3
14	14	1
153	173	3
185	185	2
60	63	1
160	162	1
1	96	3
22	22	2
98	98	7
114	144	6
32	32	4
61	61	6
106	106	9
42	232	1
160	160	4
88	92	1
60	61	4
18	18	2
163	195	3
48	48	3
241	241	3
201	201	7
48	152	1
162	172	2
13	15	3
209	214	1
187	187	1
108	127	1
59	59	3
30	31	2
119	119	1
21	21	3
179	180	3
196	196	2
39	39	9
5	11	3
43	43	6
30	30	1
49	175	1
175	175	2
150	151	2
217	218	3
121	148	2
165	165	2
179	203	7
234	234	3
86	86	11
137	137	4
203	203	3
70	71	4
207	207	3
168	168	7
228	231	1
46	46	4
171	171	13
120	121	7
133	134	1
141	141	3
42	69	5
166	197	3
16	17	1
36	36	2
235	236	1
52	53	2
122	122	2
109	109	1
187	188	1
166	194	1
153	162	1
154	159	1
64	64	4
214	215	2
103	103	3
210	210	3
58	74	1
124	125	2
2	11	4
2	3	1
184	185	1
237	237	2
115	115	8
195	195	4
80	83	3
55	55	7
153	171	2
44	47	1
26	26	6
177	177	3
34	34	1
54	55	3
71	71	4
15	16	5
166	166	1
23	25	1
236	238	3
4	6	1
79	79	3
113	113	3
107	107	4
189	189	2
69	72	2
59	66	1
158	158	2
182	183	1
131	132	2
37	38	1
164	165	2
49	52	1
1	29	1
115	122	2
5	5	6
155	156	2
2	2	1
106	148	1
135	135	1
181	181	6
204	217	1
2	12	2
60	62	3
99	99	3
8	9	2
57	73	1
139	140	2
73	73	1
104	105	3
138	138	1
29	230	2
99	100	2
163	166	1
229	229	1
169	171	2
47	174	1
151	151	3
59	60	1
62	73	1
44	180	1
42	43	2
60	72	1
80	80	1
183	183	3
42	71	1
191	191	3
86	88	1
128	149	1
28	29	1
36	63	3
205	205	2
43	178	3
208	212	1
48	49	1
104	104	1
38	238	1
124	127	1
180	183	1
221	223	1
122	141	2
156	156	3
34	36	2
170	171	1
172	172	3
230	231	2
225	226	2
238	239	2
114	142	1
130	161	1
136	137	1
31	32	3
57	59	1
43	44	3
24	29	1
212	224	1
55	56	1
203	204	1
188	190	1
236	236	1
0	28	1
87	89	1
8	8	2
54	112	2
53	150	1
21	25	1
178	178	5
224	224	1
67	80	1
155	159	1
125	126	1
134	135	1
183	191	2
193	195	1
201	202	1
33	33	1
101	101	1
122	194	1
144	145	1
122	142	1
218	218	1
62	63	1
118	118	1
46	47	1
198	199	1
154	154	1
34	35	1
211	211	1
4	4	2
3	9	1
163	194	1
123	123	1
51	71	1
181	187	1
184	204	1
69	69	1
190	190	1
141	142	1
