120	123	6
19	19	8
7	32	3
116	116	5
5	6	4
104	104	4
102	105	4
71	71	6
89	91	5
63	63	12
94	94	5
98	99	9
76	93	5
35	35	13
114	114	4
69	69	17
98	98	2
64	64	10
2	3	3
75	75	2
115	115	13
130	130	8
29	30	3
9	9	9
65	65	6
4	5	3
44	45	4
108	121	2
124	129	3
100	101	3
24	84	2
87	88	4
10	16	1
15	15	21
90	105	1
78	78	7
84	85	5
123	123	5
30	30	3
127	127	9
60	60	9
82	83	1
103	103	8
8	8	8
6	6	3
9	10	1
97	99	1
99	101	4
76	97	3
93	93	6
108	113	9
85	85	21
32	32	10
95	122	1
63	64	4
87	87	8
24	24	11
8	45	9
23	23	6
109	128	2
120	121	2
88	88	3
43	44	2
22	82	6
27	77	3
117	117	22
4	4	4
2	2	5
37	37	10
75	95	5
113	113	12
20	20	4
17	17	13
43	43	2
5	5	8
45	45	16
57	57	21
10	112	1
120	120	2
34	36	2
22	22	9
114	116	2
81	81	7
46	46	9
77	77	5
66	66	7
72	72	9
112	113	3
108	109	9
128	128	11
1	1	3
58	58	3
76	95	1
134	134	5
67	67	18
62	62	3
56	56	5
109	127	1
129	129	5
13	13	12
80	80	10
102	102	10
77	95	2
38	38	4
99	102	4
26	82	4
99	124	1
12	12	4
126	133	5
4	6	3
32	55	1
70	70	9
14	134	2
102	107	1
58	83	1
26	79	1
109	109	12
41	82	2
112	123	3
96	97	2
47	47	8
72	80	2
133	134	2
72	73	4
27	79	4
16	45	2
34	34	4
112	112	6
110	110	5
18	18	6
37	38	4
96	101	1
56	57	1
83	83	8
125	132	3
7	7	1
11	18	2
99	99	5
119	119	7
26	27	3
106	123	1
113	134	3
13	14	1
59	60	2
97	98	1
11	11	12
75	76	1
14	14	7
40	55	3
86	86	4
108	108	10
103	112	8
133	133	7
109	110	7
36	36	8
118	119	2
31	32	1
0	0	5
10	14	2
29	29	5
130	132	1
21	22	3
131	131	1
77	121	4
10	10	10
62	84	2
124	124	6
21	21	12
34	77	3
128	129	2
68	74	2
91	91	3
106	106	2
122	124	3
60	69	2
132	132	6
79	80	5
6	7	4
11	30	1
66	67	2
74	74	2
1	26	4
17	63	3
22	79	2
17	19	1
12	13	2
42	68	2
33	33	4
20	21	4
68	70	1
35	36	1
46	77	3
76	76	1
59	59	6
129	134	1
28	29	4
24	59	1
61	62	2
89	89	3
14	15	2
117	118	3
111	111	2
23	29	1
89	90	2
107	107	2
132	133	2
107	111	4
76	85	1
90	90	3
32	33	3
90	94	1
71	119	3
16	16	9
0	1	2
92	105	1
28	28	2
126	126	1
73	73	2
62	65	2
108	124	3
70	73	1
61	61	2
77	108	1
36	41	1
68	68	8
39	39	1
73	74	2
118	118	4
19	20	2
34	35	2
31	31	2
44	44	1
91	93	1
79	84	3
131	132	2
9	46	1
11	27	1
30	31	3
45	46	1
33	34	1
106	107	2
96	96	4
40	57	3
97	123	3
100	100	4
12	134	1
104	105	1
107	121	2
33	35	1
28	80	1
47	77	2
21	101	2
84	84	4
65	74	2
95	95	2
68	69	2
113	130	3
105	107	1
103	105	1
26	26	4
105	112	1
71	102	1
110	114	1
46	47	3
38	39	1
69	95	2
23	24	1
23	57	1
114	122	1
82	82	1
15	102	1
73	75	4
125	125	3
20	83	1
112	121	1
42	43	1
73	80	1
115	118	1
101	101	2
42	42	1
27	80	1
73	79	1
39	40	1
99	100	1
48	49	1
13	15	1
69	74	1
4	30	1
120	122	1
75	121	1
117	120	1
122	122	1
3	3	1
17	18	1
31	36	1
49	50	1
87	99	1
55	55	1
21	43	1
30	37	1
118	123	2
33	66	1
94	95	3
96	112	1
77	78	1
86	87	1
76	78	1
79	79	1
33	46	1
55	56	1
