75	75	6
123	123	4
56	56	11
68	68	16
119	125	1
144	146	2
45	46	6
129	129	10
22	22	5
81	104	2
78	81	1
14	21	4
49	49	6
39	64	3
137	137	2
40	40	6
94	96	4
149	149	7
124	125	2
113	135	3
31	31	6
34	34	1
54	54	9
68	100	4
144	144	11
63	76	4
45	45	9
127	127	9
14	14	10
37	57	5
83	110	1
65	89	2
39	55	2
39	39	7
55	81	1
18	18	7
63	67	2
153	153	9
99	123	7
108	119	9
133	133	4
128	128	25
32	32	2
19	19	5
123	128	1
101	101	19
80	85	8
78	79	3
114	115	3
82	82	1
82	84	4
20	65	6
86	86	12
69	72	5
32	33	2
55	55	3
10	16	2
127	143	2
7	7	3
72	72	9
61	61	5
55	74	5
100	129	3
105	105	13
126	128	4
27	78	6
130	130	1
30	30	4
28	29	3
79	147	2
29	29	12
113	113	16
82	95	1
128	138	4
4	5	4
3	3	17
97	124	3
123	139	5
20	32	6
23	23	8
121	146	4
140	140	3
27	30	3
65	78	9
31	49	3
21	22	1
94	94	2
46	47	3
72	79	1
3	53	1
5	7	2
5	148	2
125	126	6
104	104	7
50	53	3
13	14	5
103	103	4
142	142	9
98	98	8
66	66	12
25	33	8
5	35	4
150	150	6
12	12	13
94	124	5
103	132	5
79	114	4
35	36	6
50	51	9
50	50	8
116	145	2
146	147	1
24	43	1
112	114	2
43	43	5
97	97	9
114	143	2
37	40	5
15	15	9
34	81	2
130	135	5
81	82	2
6	6	3
140	141	2
112	112	12
62	62	5
12	65	1
41	41	5
136	137	3
19	42	4
76	107	2
114	114	7
146	148	3
143	144	2
21	21	14
53	53	4
115	115	5
137	138	3
71	108	2
11	36	2
121	121	3
39	40	4
53	74	2
103	122	3
93	93	4
71	71	6
76	76	2
62	66	2
67	69	3
83	83	10
22	26	3
135	148	1
18	23	3
132	132	6
109	109	10
77	84	2
39	84	1
106	107	2
135	135	11
19	41	4
63	63	5
99	124	2
141	149	1
96	98	7
106	106	10
111	111	11
100	100	7
46	46	2
67	67	3
141	144	2
109	139	3
8	9	1
111	142	3
105	126	2
145	148	1
42	42	6
33	33	7
117	125	4
145	145	8
92	93	3
117	117	6
108	108	2
74	100	2
48	48	12
94	95	6
141	145	2
131	132	3
90	90	6
117	136	1
82	83	5
96	127	3
104	105	7
74	74	5
140	154	1
33	87	3
113	144	1
26	26	3
98	100	3
35	35	14
35	56	1
70	70	9
95	102	2
62	106	2
35	57	2
65	83	4
65	67	1
79	107	3
75	112	1
22	62	2
35	42	3
124	127	3
37	37	3
111	117	4
125	129	2
103	106	1
45	109	4
42	43	7
73	94	2
44	44	2
64	64	9
37	38	1
81	93	4
104	126	2
41	43	4
16	16	6
126	126	11
10	11	2
87	87	5
24	24	4
139	140	1
103	104	2
100	101	5
23	24	1
41	86	1
65	65	1
116	116	1
109	152	1
74	75	3
119	121	10
25	53	1
104	114	3
67	103	3
129	136	2
134	134	8
3	4	2
27	107	1
50	64	1
63	65	4
33	58	2
9	11	4
44	45	4
80	81	1
18	41	1
18	40	1
95	95	9
11	11	1
119	147	2
120	126	4
134	136	2
131	131	9
112	113	2
114	139	2
25	25	5
69	69	4
15	21	1
17	23	1
20	35	3
26	30	2
73	108	1
120	120	4
62	84	3
130	132	1
68	69	3
111	123	1
138	138	3
147	147	4
85	85	6
5	5	1
125	127	2
47	57	2
109	141	3
34	35	1
118	118	1
91	94	1
33	35	3
84	84	7
46	49	1
43	56	2
93	106	2
10	10	1
28	30	3
51	63	3
113	118	1
67	105	2
97	101	1
93	125	1
92	115	3
109	154	3
8	10	2
63	64	2
43	44	1
38	39	1
6	31	1
47	48	2
28	28	3
8	33	3
52	87	1
77	78	4
96	96	2
69	70	1
116	117	3
90	141	3
143	143	2
79	82	1
76	115	1
124	146	1
47	49	2
65	87	3
20	20	2
51	51	1
108	130	5
99	101	1
119	141	1
32	35	1
75	76	1
77	77	6
105	124	5
13	13	3
31	44	3
88	92	1
62	85	1
152	152	5
57	57	5
64	75	1
94	106	2
78	118	1
15	20	1
45	84	2
55	57	3
16	21	2
73	73	2
9	10	2
53	56	3
10	37	3
42	67	1
36	69	3
98	99	4
137	144	1
107	107	2
30	32	5
142	149	3
4	4	6
131	148	2
110	110	1
8	8	3
115	129	1
12	15	1
135	137	1
25	44	1
50	54	1
98	105	1
79	87	1
84	108	1
128	129	1
81	81	2
64	66	6
29	57	1
104	130	1
4	6	2
4	36	1
125	125	1
101	132	2
102	102	1
29	39	2
55	97	1
122	122	2
27	28	2
132	133	2
32	36	1
114	146	1
127	150	1
23	40	2
103	120	2
99	100	1
75	78	1
87	115	3
45	68	2
64	105	1
41	54	2
65	79	2
83	84	2
69	115	2
23	27	1
134	135	1
11	24	1
17	17	4
71	93	2
118	119	1
130	131	2
47	53	4
99	99	2
80	83	2
121	145	3
83	103	1
51	54	2
22	25	1
80	80	2
51	56	1
12	13	1
98	123	2
37	42	1
33	55	2
128	133	1
45	83	1
109	129	2
92	107	1
44	67	2
117	119	2
26	64	3
24	50	2
7	148	1
116	128	1
79	79	1
48	50	1
148	148	2
22	55	1
141	142	1
23	62	1
99	128	1
14	16	1
48	71	1
128	131	1
27	37	1
39	86	1
154	154	1
114	133	1
124	124	1
81	84	1
66	85	1
11	57	2
107	108	1
133	134	1
125	136	1
101	102	1
117	141	1
105	113	2
88	88	1
42	55	2
2	2	1
78	121	1
48	51	1
128	141	1
116	118	1
26	27	1
64	65	1
2	28	2
9	9	1
22	24	1
3	33	1
141	148	2
111	112	1
151	152	1
11	12	1
47	47	1
4	33	1
65	81	1
118	135	2
28	39	1
28	31	1
