69	69	4
26	26	6
66	66	2
22	22	4
130	130	7
118	119	5
125	125	14
124	124	1
98	98	1
23	23	2
63	63	10
56	56	4
0	0	4
126	126	3
41	41	7
74	74	3
115	116	2
52	53	2
54	56	4
120	137	2
139	141	4
134	135	1
97	104	5
54	54	3
76	87	4
85	86	3
101	101	2
8	61	3
119	123	3
115	144	1
48	78	2
136	136	9
52	145	3
2	2	5
33	36	5
88	90	4
15	15	1
109	118	1
135	136	1
6	10	2
72	111	2
34	34	6
76	79	5
65	65	3
40	100	3
90	90	6
51	51	2
26	34	2
25	25	1
60	60	5
40	40	5
11	11	2
91	91	1
53	53	2
30	33	2
133	133	3
145	145	3
87	88	1
89	89	3
145	146	5
5	20	2
83	83	4
104	104	6
6	11	1
51	53	4
84	85	1
140	144	1
131	131	3
134	134	6
71	72	5
49	49	3
53	54	3
76	77	3
92	92	8
88	88	1
69	70	6
19	21	2
10	40	2
146	146	3
70	70	4
18	20	1
3	6	1
58	102	2
86	86	2
6	6	4
139	139	5
120	125	6
73	75	1
94	94	3
18	18	1
129	129	6
14	43	1
121	128	1
2	14	1
123	125	1
30	30	6
142	142	4
79	82	1
63	76	3
71	71	5
133	134	5
55	59	1
102	103	1
57	97	1
99	101	1
14	14	3
19	24	1
18	42	3
62	63	2
56	95	1
21	21	3
32	32	1
135	137	3
104	106	1
39	40	2
103	103	5
20	25	3
137	138	3
139	140	2
112	115	3
100	100	5
35	35	6
119	128	2
39	39	1
13	47	1
2	4	1
95	95	2
33	33	2
31	39	3
123	123	1
56	59	2
106	106	1
116	130	3
5	6	2
9	10	3
123	136	1
88	89	5
70	71	2
10	14	1
96	97	5
108	110	3
33	35	2
61	61	1
41	43	1
72	72	3
97	98	2
59	59	2
13	43	3
1	1	2
123	137	3
92	93	2
90	91	2
10	28	1
0	9	2
16	18	1
11	17	4
10	11	1
47	99	2
28	28	4
120	120	3
68	69	1
20	21	2
105	106	1
137	137	1
129	134	3
27	27	3
135	135	3
75	75	1
122	122	1
117	117	5
70	117	2
64	69	1
61	79	3
85	85	3
87	87	2
140	141	3
40	57	1
85	145	1
104	105	2
52	52	2
24	24	1
129	132	4
136	140	2
107	108	2
73	102	1
55	55	2
76	76	2
16	16	1
42	42	2
54	61	1
37	37	2
99	99	1
87	90	2
101	109	1
50	50	1
109	112	3
10	20	1
86	87	1
78	78	2
114	114	2
83	104	1
38	38	1
122	126	2
138	138	2
38	61	1
30	37	1
91	95	1
116	131	2
120	122	1
2	36	1
84	104	2
80	80	2
105	107	1
122	139	1
30	84	1
57	72	1
62	62	1
73	106	1
141	141	1
110	110	1
49	55	1
124	136	1
31	38	1
107	110	1
