29	29	9
40	40	10
25	25	6
67	67	8
96	101	2
62	63	3
103	103	4
48	50	1
36	36	4
109	110	3
22	22	11
77	108	4
81	81	4
72	73	2
50	50	5
40	41	4
83	84	2
93	93	7
107	107	7
48	48	6
23	25	1
111	113	3
66	67	9
64	64	10
111	111	7
75	76	3
91	91	2
23	23	3
70	108	2
49	50	8
64	74	2
35	35	12
82	82	9
70	113	2
75	75	2
76	76	7
110	111	1
39	111	5
66	66	6
54	67	2
98	98	6
41	42	3
70	70	5
105	106	4
51	67	3
63	73	1
62	62	18
41	41	10
99	99	13
33	100	3
100	100	7
110	110	7
26	26	17
32	32	15
64	65	3
47	47	13
60	60	6
58	58	10
70	80	3
102	102	7
48	49	7
34	35	5
86	111	2
81	88	9
113	113	4
87	88	1
69	80	3
59	60	3
32	33	5
33	33	2
54	72	7
56	56	9
104	104	5
65	66	4
24	24	9
112	113	2
96	97	2
24	46	5
45	45	9
34	34	9
41	43	5
50	51	8
37	37	5
82	85	1
105	105	2
68	69	6
101	101	3
78	108	4
84	88	5
71	74	1
31	32	3
36	37	2
55	55	5
71	71	11
65	65	18
39	86	1
85	85	4
108	113	5
61	61	12
72	78	1
67	114	1
44	44	9
63	63	6
57	74	2
98	99	7
93	101	1
20	20	4
96	96	1
41	49	2
39	110	4
23	111	3
109	109	5
43	43	5
59	59	3
52	52	2
28	28	1
47	49	1
86	86	6
69	114	2
64	66	4
52	53	1
88	88	5
54	75	1
27	27	6
55	74	1
92	93	10
83	83	9
91	103	5
53	73	2
53	66	1
53	53	4
74	74	9
95	95	5
27	28	4
57	57	5
30	30	7
84	84	7
31	31	6
101	102	5
93	95	4
60	61	2
39	46	3
79	79	2
84	111	1
55	56	1
88	89	3
81	83	2
21	21	4
71	73	4
82	99	1
80	80	3
80	99	3
33	35	2
108	108	4
65	67	4
30	31	3
40	46	1
48	113	1
41	72	4
38	38	6
108	112	3
112	112	3
79	107	5
92	92	4
58	59	6
94	94	5
41	55	1
85	107	1
69	69	7
64	73	2
93	94	2
87	87	3
22	40	4
107	108	2
42	72	3
72	74	1
86	87	4
100	101	4
78	78	9
38	39	4
42	49	3
82	83	2
20	21	2
45	46	2
39	41	2
114	114	1
106	106	1
54	54	1
78	112	2
56	57	2
51	51	3
39	39	1
20	47	1
54	55	1
105	107	1
90	90	1
78	85	2
20	37	5
72	72	2
20	48	1
23	24	1
69	70	2
50	114	1
106	107	3
23	39	1
79	113	1
47	48	1
23	46	1
91	104	2
22	46	1
89	89	1
52	114	4
29	30	2
50	115	1
19	84	1
53	70	1
94	103	1
80	81	1
46	113	1
21	48	1
42	42	1
25	26	1
68	68	2
40	111	2
46	47	1
63	65	1
63	64	1
22	23	1
39	113	1
24	25	1
41	73	1
21	100	1
52	66	1
103	104	1
91	92	1
