55	87	5
45	52	3
86	86	3
86	133	3
61	66	6
99	100	1
92	93	1
65	65	2
111	111	3
68	95	5
21	21	2
8	34	1
121	122	2
103	103	3
8	9	3
111	132	1
78	78	11
97	97	5
12	21	1
6	12	2
107	107	1
62	68	1
8	8	7
115	115	9
125	125	5
103	114	1
90	90	9
55	55	6
109	113	2
16	16	2
3	3	2
110	110	5
79	79	5
9	10	1
132	132	2
126	126	5
62	97	2
49	86	4
109	109	4
74	74	7
128	128	5
14	38	2
45	45	7
19	19	4
24	24	3
99	99	8
43	78	2
103	110	1
1	89	3
75	101	1
0	0	1
12	14	1
83	84	5
61	61	2
119	119	6
96	118	2
15	15	5
66	66	1
7	7	2
86	96	2
85	85	1
115	117	3
22	28	5
104	104	4
45	98	2
135	135	3
17	17	1
81	126	2
109	116	7
81	88	2
6	13	2
134	134	1
133	133	2
2	2	9
57	101	1
62	69	3
28	28	1
106	113	3
85	86	1
74	93	2
107	116	2
60	60	14
113	118	2
90	91	2
61	85	2
71	91	1
28	38	2
52	53	2
45	53	1
2	38	1
75	75	1
125	126	1
64	65	2
112	112	3
42	43	1
14	18	1
79	83	2
17	21	3
100	116	2
89	89	1
103	105	2
95	95	4
77	114	2
82	102	2
17	20	1
76	126	2
26	26	1
100	100	1
10	33	3
80	82	5
9	9	3
85	89	2
43	114	2
120	124	3
115	116	1
22	22	4
120	122	1
25	62	3
124	124	4
80	130	1
23	24	6
106	122	3
25	29	3
46	116	1
125	127	3
54	54	2
4	14	3
33	33	3
1	60	1
106	106	2
52	52	2
92	101	1
23	28	2
81	82	3
35	35	4
72	72	1
43	43	3
98	98	2
22	23	2
6	6	1
5	5	1
82	82	3
125	132	2
20	21	2
4	25	3
63	63	2
92	92	1
77	108	4
17	18	1
62	63	1
93	101	1
14	16	1
84	133	1
44	44	1
79	123	1
80	102	3
13	13	1
117	117	2
120	120	4
123	124	1
0	92	1
69	69	1
91	95	3
37	37	4
108	109	1
11	11	2
34	34	1
23	23	2
43	132	2
6	34	2
71	72	3
54	128	1
76	127	1
122	122	2
43	77	1
77	78	2
100	107	1
77	77	1
4	4	2
57	72	2
77	119	1
121	124	2
102	102	3
54	65	1
7	33	1
31	31	2
103	121	1
87	87	1
53	53	2
59	59	1
98	99	1
28	29	2
67	67	2
1	19	1
74	75	1
10	10	1
116	116	4
84	84	5
44	107	1
44	50	2
49	49	5
18	24	3
71	71	2
25	64	1
31	33	1
86	132	2
111	121	1
17	22	1
7	12	1
56	57	1
116	119	1
82	104	1
113	117	3
31	36	1
126	129	1
48	66	1
2	6	1
25	26	1
107	113	2
50	50	2
129	129	2
58	58	1
57	59	2
57	58	1
91	91	1
83	99	1
27	27	1
2	5	1
