86	86	7
64	65	5
54	54	8
37	39	2
62	62	2
137	138	5
88	90	5
96	96	7
81	81	6
90	90	6
109	120	4
111	111	7
11	29	2
97	98	6
32	33	5
111	113	4
39	39	8
113	113	4
117	119	5
100	100	10
89	89	5
21	43	1
102	105	4
68	72	3
62	63	3
64	116	1
101	103	3
91	91	6
0	12	2
117	117	7
66	66	7
26	26	1
29	29	8
130	130	2
19	21	2
132	132	6
40	40	1
60	60	7
106	106	5
75	75	11
119	119	13
128	129	2
101	101	8
131	131	5
105	105	5
133	138	4
9	9	4
19	25	3
140	140	3
61	61	13
61	67	2
115	115	4
122	123	5
127	127	5
21	46	3
71	71	8
56	57	1
8	9	1
108	108	7
43	43	6
51	56	1
62	94	2
141	142	2
105	106	6
37	146	1
110	120	1
118	118	8
5	5	4
0	0	3
14	14	7
141	141	15
96	97	5
16	16	4
139	140	3
1	3	3
130	133	2
63	63	8
118	119	2
10	10	7
49	49	5
81	87	2
138	138	5
80	87	2
113	114	1
22	22	5
134	135	5
20	20	6
120	120	1
112	113	2
23	23	2
94	98	3
35	36	5
59	59	1
50	50	6
79	87	9
128	128	9
23	24	1
2	2	6
95	95	7
139	139	3
134	138	1
11	93	1
133	133	5
13	13	5
27	27	9
103	106	6
14	16	3
103	103	2
78	79	4
32	32	11
18	35	2
97	97	1
119	127	4
125	125	2
91	96	1
26	33	2
51	51	5
74	75	1
102	106	2
33	33	8
95	102	2
41	41	5
20	21	3
85	85	7
137	141	1
138	139	3
26	59	2
95	96	3
55	55	3
70	70	2
113	118	3
113	115	4
109	141	3
87	88	1
17	17	2
108	109	6
126	126	1
48	48	3
120	123	2
40	43	3
81	82	1
26	27	5
130	138	1
57	57	3
81	90	2
76	76	2
20	35	2
111	126	4
11	23	3
82	83	2
53	54	1
114	114	1
72	73	4
21	23	3
32	75	1
19	23	2
132	134	3
80	80	2
96	102	2
12	12	2
21	28	2
92	97	1
74	74	1
94	96	1
3	3	1
69	72	2
80	90	1
34	36	1
24	25	5
51	52	4
88	88	5
82	87	5
83	83	3
114	116	1
145	145	4
121	121	1
14	19	2
11	13	1
53	75	1
68	68	3
19	24	2
52	53	4
33	34	3
41	42	1
76	115	1
25	25	6
133	134	2
71	73	3
56	56	1
65	65	6
30	30	7
30	93	2
129	129	2
64	64	3
68	69	2
123	123	3
104	104	1
124	124	1
14	15	1
140	141	3
77	77	1
116	116	1
76	79	2
78	78	1
112	112	3
99	100	3
21	21	2
70	93	1
118	125	1
52	55	2
76	77	1
90	100	2
69	69	4
61	66	1
58	91	2
134	137	1
132	133	2
53	53	3
88	100	4
19	29	1
47	47	3
107	107	1
82	85	1
83	121	3
109	110	3
28	32	1
131	133	2
49	53	1
85	86	1
135	135	3
3	9	1
52	52	2
37	37	1
122	122	2
79	79	2
16	19	2
49	58	3
142	143	3
18	22	1
114	125	2
125	126	1
142	142	1
98	98	1
89	90	3
92	92	1
86	87	1
18	18	2
91	92	3
10	34	2
93	95	1
92	94	2
126	127	1
102	102	1
2	3	1
79	80	1
5	132	1
65	66	1
138	140	1
87	87	2
70	116	1
71	75	3
35	40	1
58	58	1
0	4	1
126	133	1
12	13	1
29	31	1
73	73	1
62	91	2
107	109	1
130	131	1
92	93	1
49	60	1
36	36	1
72	72	1
8	8	1
48	56	1
82	82	1
85	87	1
59	60	1
42	42	1
31	57	1
36	43	1
97	124	1
