113	116	6
189	189	11
148	156	2
196	196	4
128	128	4
74	74	3
22	25	3
56	56	8
112	113	2
122	122	16
35	35	1
114	114	2
2	6	2
126	126	7
178	178	4
73	74	7
171	171	7
30	56	6
170	170	1
94	94	5
81	150	3
168	168	2
136	137	2
139	151	3
46	46	2
93	93	2
93	96	4
141	142	2
127	159	1
158	158	7
88	88	5
116	122	1
70	71	4
22	22	4
11	11	15
83	83	5
10	10	5
49	66	2
64	64	8
117	118	2
57	57	2
181	181	1
82	82	2
5	43	1
197	197	3
65	66	4
124	124	3
184	184	4
26	35	4
48	48	4
21	21	3
40	41	4
180	180	4
9	9	4
131	131	5
121	121	2
159	159	5
19	19	3
37	37	2
151	151	1
167	167	2
15	18	3
43	43	4
34	34	2
38	133	3
0	0	4
87	87	8
50	50	3
130	130	3
123	123	9
182	187	2
81	82	2
16	16	4
185	185	5
193	193	4
95	146	2
9	11	2
127	127	10
32	32	2
27	35	1
61	195	5
53	53	2
67	68	1
21	23	1
142	142	3
55	55	5
4	4	1
186	186	8
39	98	1
44	44	6
179	179	3
187	188	2
191	191	4
47	49	2
30	31	3
71	71	6
29	36	1
28	28	6
176	177	2
100	101	2
137	137	3
140	140	6
143	143	2
81	81	2
41	47	4
100	102	4
80	80	1
13	13	1
8	27	2
165	165	2
195	195	6
138	138	2
188	188	3
134	134	1
39	39	4
59	59	3
155	155	2
95	96	4
64	79	1
0	40	3
67	69	2
187	187	3
79	79	2
141	141	2
25	25	1
26	26	2
37	38	2
3	3	4
52	52	7
104	104	1
182	182	3
32	36	3
61	61	3
70	70	3
174	175	2
84	86	2
109	114	2
86	87	3
157	157	4
73	73	4
177	177	6
36	36	2
168	171	1
69	69	2
98	99	1
129	134	1
93	94	2
49	52	1
105	175	4
194	194	3
29	29	1
126	127	1
113	185	1
102	102	1
97	97	4
176	176	4
133	134	2
108	108	4
38	38	1
34	35	2
145	145	2
23	23	4
24	25	1
68	139	4
60	60	1
6	7	4
26	99	3
185	186	3
81	86	3
61	104	3
49	50	2
109	109	3
6	6	2
154	154	5
146	146	3
186	188	4
66	115	2
16	17	1
72	72	2
186	187	2
78	78	1
40	40	1
172	172	2
27	27	1
62	63	1
112	112	2
2	2	3
119	119	2
72	129	1
45	46	1
3	188	3
136	136	1
63	63	2
182	183	2
76	77	2
20	20	1
61	166	1
159	163	1
22	24	1
47	47	2
158	159	2
12	55	2
127	128	2
29	167	2
0	35	2
157	158	1
132	132	1
168	169	1
85	85	1
41	42	1
54	54	1
169	169	1
156	156	3
59	150	1
120	120	1
153	157	1
50	51	3
174	174	2
159	160	1
161	161	2
162	163	1
113	113	1
99	100	1
16	32	1
29	35	1
82	86	1
113	120	1
30	166	2
10	52	1
86	86	2
189	190	1
48	72	1
57	62	3
133	133	2
182	185	2
51	51	1
137	138	1
180	181	1
2	5	1
154	155	2
190	192	1
8	8	1
77	78	1
