5	5	18
68	68	3
39	39	18
20	20	9
33	41	5
41	53	3
27	27	12
59	60	3
42	42	11
55	56	9
48	48	13
65	65	27
63	63	20
1	1	7
76	78	4
55	55	14
21	25	5
78	78	9
29	29	4
58	58	7
46	46	14
29	36	2
6	6	7
14	68	4
4	4	14
40	40	8
70	70	9
56	56	12
30	30	6
60	60	8
9	13	8
59	59	11
61	62	6
26	26	4
4	5	1
19	19	11
54	54	20
50	67	3
8	8	12
9	9	9
72	72	20
41	41	20
71	72	4
77	78	5
58	59	4
61	61	14
71	71	10
57	58	3
54	72	1
57	57	10
31	31	8
34	34	6
76	77	8
55	59	4
73	73	21
4	37	3
28	28	19
7	7	6
0	0	21
65	66	4
64	65	4
54	64	4
80	80	13
17	42	1
64	64	15
59	65	2
77	77	10
25	25	9
7	17	1
39	40	5
15	15	11
76	76	4
53	67	1
44	44	9
17	19	1
14	14	8
12	16	1
60	62	5
47	47	9
29	30	6
63	67	4
54	55	1
42	74	1
17	18	3
37	37	8
45	45	7
10	18	3
38	39	2
12	12	1
17	17	6
74	74	10
46	47	4
3	5	2
49	49	7
16	18	1
15	17	2
14	15	2
67	67	4
66	67	2
51	67	5
7	8	4
79	79	15
2	4	6
53	53	11
20	26	1
52	66	1
35	35	9
33	33	6
63	74	5
38	38	12
11	71	4
61	75	2
20	25	2
75	78	3
11	11	3
36	77	3
6	7	2
18	19	2
68	70	1
43	76	4
5	37	1
68	69	2
11	12	1
47	48	6
51	51	4
60	61	1
72	73	4
51	52	3
18	18	2
33	42	2
13	13	5
27	37	1
1	4	3
36	72	2
53	66	2
69	69	3
33	34	4
58	65	3
19	41	1
55	64	3
2	5	4
3	6	3
25	26	4
14	50	2
63	64	5
52	67	1
26	27	2
31	33	1
57	65	2
16	16	5
2	2	4
1	2	2
62	62	5
74	75	6
73	74	1
43	43	1
8	16	1
45	46	1
52	52	4
10	68	1
52	70	3
56	57	1
75	75	5
57	66	3
10	10	4
5	6	3
32	32	3
53	54	1
3	3	6
8	9	3
21	21	2
8	39	2
41	54	2
15	16	1
5	39	1
16	17	2
6	37	2
7	73	1
72	75	1
56	65	3
48	75	1
50	50	4
49	50	2
66	66	4
20	21	2
37	38	2
36	36	1
73	77	2
62	63	1
75	77	3
57	64	2
3	4	2
28	30	1
53	64	1
31	34	1
8	20	1
