161	173	1
124	124	11
24	78	3
110	112	5
168	168	8
73	73	7
36	36	3
55	155	2
61	61	10
152	152	15
53	53	6
150	150	17
66	66	9
31	31	13
158	162	5
92	92	15
160	162	3
61	143	5
24	61	2
81	81	17
133	156	5
1	1	8
116	171	2
149	149	13
5	14	2
107	107	12
53	146	3
18	18	8
96	114	6
43	43	16
139	139	17
119	119	3
91	94	4
80	87	5
110	110	4
54	146	9
167	171	3
61	144	3
127	127	14
55	151	1
37	37	12
10	10	14
18	19	3
173	173	6
130	130	8
75	75	9
128	128	16
61	62	6
96	113	2
93	93	3
101	102	3
162	162	3
20	20	6
17	18	5
8	9	3
167	167	3
60	60	5
103	103	5
87	87	8
143	143	14
58	58	5
78	78	7
6	8	1
132	133	2
122	122	11
86	86	10
11	45	3
4	4	2
144	145	2
98	102	3
168	171	3
180	180	4
103	104	1
122	123	7
90	90	10
90	111	3
135	154	3
31	32	3
169	169	5
154	154	7
39	39	4
155	157	2
7	41	1
12	12	11
31	33	1
52	52	4
171	171	10
126	127	2
136	136	5
74	74	8
99	99	3
59	59	5
71	71	13
134	134	11
118	160	3
26	26	14
123	124	4
13	13	11
138	138	11
119	178	1
25	26	1
129	155	4
89	89	6
54	54	17
90	91	4
144	144	2
157	157	3
151	151	4
24	30	3
56	56	9
15	15	7
121	122	7
133	133	9
16	16	5
97	97	3
161	161	11
77	78	14
110	111	3
111	111	7
137	152	11
119	121	3
117	120	2
125	125	3
100	100	8
43	44	4
33	33	10
21	25	2
90	92	1
156	156	5
165	165	4
63	64	1
155	155	6
58	59	1
172	172	7
65	73	7
120	120	2
131	131	1
14	14	9
55	156	4
170	170	10
134	156	1
8	45	1
117	117	3
54	60	2
129	129	6
140	140	12
6	67	3
5	5	3
135	137	3
22	22	5
118	118	2
42	43	2
72	73	8
164	167	1
150	151	3
163	174	1
175	175	6
5	10	1
24	24	6
105	106	10
115	115	4
159	159	4
116	116	11
56	57	2
165	166	1
75	77	2
132	134	1
17	17	13
130	131	4
121	121	4
23	23	5
80	80	3
34	35	1
158	158	5
7	7	6
68	68	4
7	12	3
6	12	4
178	178	4
80	81	2
95	107	1
3	3	3
44	44	2
6	18	3
9	12	3
127	128	11
11	44	3
95	95	7
163	177	1
133	155	2
141	141	7
102	104	2
171	172	3
26	50	1
104	104	5
174	174	3
102	102	7
133	134	3
29	30	1
163	163	1
159	176	2
57	59	2
176	177	1
122	179	1
155	156	4
166	166	8
12	13	3
123	123	6
19	19	5
146	156	3
24	25	3
151	153	2
35	35	7
54	112	1
179	179	7
145	146	3
9	9	3
168	169	5
67	68	4
76	76	8
6	6	1
42	42	3
160	160	2
32	32	8
127	129	2
121	123	2
164	165	1
161	175	2
65	76	2
25	30	1
15	19	1
143	144	4
38	39	4
58	66	2
142	142	2
106	106	5
72	72	6
97	102	2
99	101	1
146	146	3
115	116	4
83	83	2
171	178	5
33	38	1
162	176	4
39	41	3
95	96	7
159	160	3
72	74	2
17	22	5
177	177	2
92	94	3
153	153	6
159	175	3
128	129	5
106	111	2
82	82	3
120	144	3
70	177	2
21	29	1
108	108	6
9	19	1
132	132	7
29	29	4
11	11	8
2	2	4
60	152	1
8	12	4
116	118	6
114	122	5
70	70	7
13	45	5
165	167	1
95	97	1
68	115	4
63	63	1
89	146	6
15	16	1
11	12	3
118	119	1
28	28	1
100	101	2
172	180	1
85	86	2
27	28	6
161	162	2
0	178	1
126	132	3
79	79	5
67	67	4
85	85	3
87	114	2
18	21	3
2	71	2
88	89	3
4	10	1
26	62	1
116	117	5
162	164	1
43	108	1
144	152	1
44	106	1
54	64	4
17	38	3
19	20	1
41	41	4
90	93	1
51	52	3
65	65	4
147	148	4
64	115	3
81	134	1
8	18	2
45	45	5
148	148	3
178	179	5
30	30	1
30	31	2
27	27	2
17	45	2
0	0	6
63	67	1
36	41	3
81	115	3
55	61	3
92	93	2
66	67	2
86	87	2
2	44	3
119	120	2
64	64	4
59	63	1
3	4	2
62	85	1
101	101	1
20	24	2
119	148	2
108	109	3
68	167	3
83	84	2
124	125	1
51	169	1
65	68	1
8	8	3
67	115	3
96	98	2
52	53	2
120	124	2
21	91	2
51	51	1
168	170	1
2	67	1
57	156	2
126	130	3
52	94	1
130	156	4
107	110	1
40	41	1
99	100	3
126	126	11
32	35	2
29	33	1
57	57	2
133	136	1
179	180	1
4	17	1
5	12	2
137	137	3
152	154	1
7	9	1
92	96	3
112	123	1
55	55	5
87	149	2
121	172	2
23	32	1
114	114	1
146	148	3
41	42	3
133	135	1
146	147	4
74	79	3
64	99	2
176	176	2
0	17	2
34	34	5
162	175	3
9	41	2
121	145	3
75	76	1
177	178	1
19	148	1
21	21	2
84	84	4
87	121	1
135	138	2
32	33	2
26	44	2
113	114	2
3	44	3
94	95	4
142	143	2
97	101	1
104	106	2
4	13	2
50	112	1
53	148	1
59	61	1
66	115	2
56	143	1
134	136	1
117	160	1
87	89	2
58	156	1
4	5	1
34	77	2
16	89	1
142	144	3
106	107	5
71	81	1
133	176	1
171	177	1
9	10	3
50	57	1
135	135	1
50	50	2
169	170	2
7	10	1
145	145	2
112	125	1
54	151	1
1	72	1
107	108	1
156	157	1
96	96	3
141	142	4
148	154	1
125	130	1
6	17	1
55	59	1
37	40	1
159	162	1
120	143	1
80	98	1
12	16	2
115	117	1
139	140	2
136	137	1
109	109	2
139	141	1
77	77	2
97	98	2
10	11	1
83	86	1
35	36	1
50	54	1
82	95	1
25	63	1
4	7	1
37	38	1
32	36	1
