7	9	4
30	30	2
112	113	5
127	127	10
124	124	8
35	35	27
100	101	3
6	6	13
73	73	19
91	91	5
77	103	1
13	19	5
80	115	6
115	115	2
2	2	17
71	72	1
37	37	10
74	74	8
123	123	9
116	116	18
90	91	8
129	129	9
137	137	10
88	88	11
79	94	1
80	118	1
20	109	9
75	80	2
126	126	14
126	127	4
26	106	2
17	18	6
104	106	4
25	25	14
102	102	13
110	111	8
75	75	12
19	19	13
80	123	1
78	100	6
24	24	22
124	125	14
11	12	2
134	134	7
34	34	9
72	72	9
111	111	12
118	120	5
18	18	8
13	15	4
87	87	17
86	86	13
75	79	3
98	98	15
14	14	6
111	117	2
20	20	11
17	17	16
96	100	2
36	36	11
133	133	11
135	135	8
13	13	13
10	11	1
136	138	3
26	26	5
79	79	13
0	11	2
21	88	5
74	75	9
80	80	6
114	114	11
7	7	15
108	109	6
21	21	13
20	108	1
7	10	1
139	139	12
101	101	8
89	90	4
110	110	3
38	38	7
81	81	4
75	77	4
122	122	4
109	110	3
113	113	12
32	32	8
8	8	13
71	71	15
25	26	2
22	104	2
118	119	3
107	107	7
136	136	17
131	132	4
73	81	1
13	14	1
31	34	2
97	97	4
33	33	7
27	27	2
4	5	1
120	120	2
103	103	5
27	82	1
83	83	2
128	128	6
120	122	6
82	82	8
76	90	3
109	109	6
28	29	2
97	98	2
24	25	3
129	130	2
78	93	1
94	97	6
16	16	4
3	3	10
99	116	4
83	85	3
131	131	12
4	4	9
117	120	2
31	31	7
140	140	4
5	116	7
9	9	10
102	105	4
23	31	2
125	125	7
105	106	6
117	119	4
4	8	3
77	77	6
83	84	3
21	120	1
83	115	3
82	83	2
94	94	9
96	96	5
14	25	4
108	108	8
79	101	6
29	30	4
88	90	3
116	117	3
4	34	2
90	90	6
20	25	3
0	1	2
92	92	5
104	104	8
118	118	7
23	23	9
86	123	3
17	19	4
125	126	7
111	112	2
32	33	7
3	37	2
130	131	4
22	22	6
8	10	1
5	5	9
9	15	2
99	100	1
37	38	9
122	123	3
119	120	3
127	128	3
1	2	3
7	11	2
21	23	1
91	96	4
72	73	11
1	1	4
102	103	5
7	98	3
75	78	3
92	96	1
20	22	2
27	32	3
35	36	4
23	27	6
115	125	2
77	80	3
111	115	1
93	93	7
11	11	9
0	0	6
80	104	4
33	34	1
73	74	1
30	31	1
3	4	3
5	126	1
128	129	6
12	43	1
80	93	5
80	99	2
83	111	1
0	2	3
138	138	1
10	37	1
99	99	1
78	78	7
107	108	6
23	86	1
29	29	5
106	106	6
139	140	1
79	102	4
84	84	7
22	23	2
18	21	2
94	95	2
82	98	1
115	116	4
85	121	1
132	132	6
0	14	2
2	3	5
137	138	1
73	77	1
18	19	2
78	101	5
121	121	3
12	12	1
117	117	10
100	100	7
136	137	6
89	89	1
34	35	3
112	112	5
80	103	1
103	104	3
95	95	8
130	130	5
14	15	2
72	115	2
38	80	3
105	105	2
121	122	4
101	103	3
93	94	2
76	76	4
26	107	2
36	96	3
23	24	1
114	115	1
92	94	1
22	121	3
74	85	1
74	83	2
72	92	1
73	92	3
80	95	1
6	9	2
119	122	1
108	110	1
73	85	2
105	107	1
20	23	3
106	107	1
8	9	2
75	76	2
10	12	1
27	30	2
15	20	1
31	32	4
9	10	2
127	129	2
76	77	3
4	124	2
77	101	1
86	92	1
24	108	2
36	37	3
86	87	1
81	122	1
80	97	1
88	89	2
73	75	3
84	85	2
78	91	1
28	81	1
119	119	1
80	92	1
73	117	1
135	136	3
15	16	2
19	116	1
15	15	1
117	118	3
10	10	1
85	85	1
26	95	2
4	6	1
84	121	1
123	124	1
22	86	1
101	102	2
134	135	1
81	84	2
97	99	2
132	133	1
9	11	1
20	121	1
12	13	1
1	78	1
92	104	1
87	90	1
100	108	3
98	116	1
138	140	1
77	78	1
9	16	1
16	18	1
133	134	1
