21	23	2
164	164	5
20	20	6
11	11	1
133	133	2
152	152	1
151	151	6
129	129	5
144	144	8
5	6	2
52	52	5
65	69	3
135	135	2
82	83	4
106	112	3
15	15	3
128	128	2
155	155	6
143	143	5
26	26	5
21	21	3
12	13	1
124	126	1
24	24	4
147	149	4
80	80	4
38	38	1
62	62	1
119	119	4
150	155	2
111	111	6
53	104	5
3	3	7
157	157	6
124	125	2
1	2	2
94	94	1
166	166	6
100	102	1
168	169	6
76	76	4
160	160	7
74	74	6
137	138	4
45	46	1
12	12	2
150	150	4
156	157	3
89	89	3
70	70	5
107	107	3
90	90	3
41	41	9
123	123	2
128	129	5
156	156	1
137	137	6
87	88	5
121	121	3
56	56	3
76	114	1
46	52	1
16	18	2
153	153	5
15	16	2
115	116	4
152	154	4
93	95	2
89	90	2
49	49	4
112	112	4
86	86	1
35	36	2
116	116	3
78	78	3
54	54	1
123	126	1
132	146	6
22	22	4
39	40	5
53	53	1
113	114	3
18	18	1
41	53	2
37	37	2
113	113	3
127	134	3
2	2	1
44	44	3
88	98	2
45	54	2
41	43	1
118	118	2
149	149	5
90	93	1
150	151	2
66	67	1
100	101	3
14	14	1
106	106	2
17	17	2
108	108	4
103	103	4
67	67	3
81	81	2
100	100	3
132	132	3
0	0	1
36	36	2
146	146	1
136	137	2
25	25	2
115	115	4
147	147	1
106	110	2
114	115	2
104	109	1
10	12	2
5	15	1
42	56	3
84	84	1
109	109	2
163	167	2
126	127	2
42	42	2
34	34	1
157	158	2
6	6	1
91	92	1
130	161	6
95	99	3
16	23	4
130	131	2
120	120	2
112	113	2
94	148	2
76	77	2
73	73	2
57	112	3
56	57	1
167	167	2
110	110	2
57	57	2
150	157	1
10	10	1
4	4	2
117	118	1
11	12	1
91	91	1
94	99	2
44	53	1
163	163	1
44	45	1
105	106	2
67	70	1
4	6	1
9	9	1
84	86	1
5	5	1
8	11	1
54	55	1
162	162	2
133	160	1
79	79	1
19	24	1
16	16	2
2	43	1
7	7	1
43	43	2
159	159	1
57	104	1
20	21	1
46	142	1
162	166	1
27	27	1
133	134	1
105	107	1
23	23	1
