96	98	7
74	75	1
20	20	2
90	90	7
89	89	9
110	110	7
44	45	7
38	38	5
49	50	4
84	84	11
71	71	5
83	84	8
104	104	6
36	36	6
66	66	4
37	38	4
67	69	2
56	92	7
34	36	6
72	72	15
44	44	8
65	65	7
62	62	5
29	29	5
60	81	2
101	101	9
53	67	1
94	113	2
88	88	4
91	91	8
73	81	7
61	61	11
38	39	7
68	68	10
35	35	12
87	91	4
92	92	3
101	102	2
33	33	7
47	50	5
23	50	10
103	103	9
113	114	4
105	105	10
30	30	10
51	51	18
40	40	8
109	110	1
37	37	6
107	107	8
71	74	2
99	104	3
76	77	6
27	27	2
20	113	4
24	24	5
34	34	9
42	100	3
57	81	3
26	26	9
36	37	4
62	65	5
67	72	1
53	60	1
45	99	1
88	91	5
56	58	6
27	113	1
83	83	7
59	89	8
87	87	2
49	49	8
75	75	7
93	93	10
60	60	4
36	50	1
55	55	8
56	74	3
102	102	10
32	81	2
52	106	5
49	51	4
89	90	4
59	62	6
46	108	2
96	101	1
28	83	6
96	96	4
24	27	1
39	43	1
92	94	3
100	113	2
101	104	1
69	74	3
44	80	7
82	85	1
83	114	3
69	69	8
19	39	2
58	59	11
89	102	3
85	86	2
21	21	6
44	48	6
31	31	9
91	92	2
61	82	3
81	81	3
25	59	1
20	49	3
46	46	8
54	54	6
56	78	4
74	74	4
107	108	1
61	64	5
102	111	3
52	84	3
28	28	4
25	36	6
100	101	1
106	106	3
64	65	1
29	45	3
71	72	1
22	22	4
49	57	2
79	93	3
86	90	2
25	27	1
97	97	11
63	65	2
43	95	4
86	86	6
32	32	6
25	26	4
55	57	1
92	113	2
50	52	4
73	73	7
30	43	4
98	108	2
53	87	4
50	78	2
63	63	4
111	111	8
100	100	3
53	54	4
59	61	1
95	95	4
95	96	3
92	93	4
23	40	5
98	98	2
96	97	4
92	111	6
57	93	4
32	33	3
48	53	2
47	92	1
101	111	3
19	57	7
57	57	2
39	40	8
70	75	5
42	97	1
108	108	1
113	113	7
89	103	3
58	78	2
97	99	4
99	107	6
43	43	6
108	111	6
103	110	2
81	82	2
100	111	5
42	42	2
58	65	2
70	70	9
27	38	4
30	80	2
43	81	1
85	85	3
29	30	2
37	57	1
39	46	1
63	64	2
97	104	1
87	104	1
115	115	2
28	32	5
87	88	2
78	80	3
61	75	1
42	48	2
54	55	3
70	71	1
80	80	3
52	52	1
56	56	3
112	112	3
76	76	4
80	85	2
57	92	2
74	77	1
24	59	1
114	114	2
109	109	3
58	64	1
39	41	2
62	64	2
53	53	5
19	19	1
47	47	2
25	58	1
77	77	3
24	25	1
106	109	1
41	43	1
79	107	3
58	79	1
41	41	2
89	105	2
27	34	2
34	74	1
61	90	3
48	49	1
48	48	1
50	50	5
67	71	2
83	107	4
25	32	1
27	33	1
60	86	1
43	44	1
25	25	1
90	91	1
65	77	1
37	40	2
68	69	5
47	54	1
81	85	1
71	77	2
67	67	1
93	104	1
42	80	3
58	58	1
30	50	3
45	45	2
77	84	2
88	92	2
21	23	1
30	31	2
82	82	2
41	77	1
40	43	4
39	39	3
37	87	1
44	51	1
102	104	1
97	113	1
30	49	1
47	83	1
88	95	2
41	46	1
26	27	1
59	59	3
78	78	1
20	50	1
42	73	1
88	90	1
38	56	2
64	64	1
75	76	1
33	53	1
42	43	1
91	96	2
61	80	1
55	79	1
103	108	1
28	29	1
24	100	2
51	78	1
63	77	1
53	59	2
28	50	1
37	90	1
106	108	1
47	107	1
86	91	1
87	105	2
94	94	1
38	79	1
99	110	1
56	93	1
47	106	1
93	96	1
102	105	1
98	99	1
21	46	3
61	74	1
98	105	1
111	112	1
33	35	1
110	111	1
26	28	1
98	100	1
101	103	1
105	106	1
54	74	1
93	94	1
37	73	1
