7	8	6
99	105	4
104	107	1
120	120	9
113	114	12
107	108	3
75	75	21
80	80	9
109	112	7
0	0	5
108	111	6
108	108	19
20	20	14
115	116	7
5	6	6
130	130	5
50	50	13
2	3	12
112	113	4
129	129	9
23	45	2
89	90	7
60	60	19
53	53	11
55	55	6
11	16	6
17	46	1
26	27	9
73	75	2
97	98	4
23	28	1
6	6	11
15	15	18
58	58	13
111	111	7
11	17	2
94	94	13
98	107	2
28	30	1
77	80	2
29	32	4
80	83	4
84	84	12
60	63	2
9	9	7
20	24	5
98	98	11
12	12	9
66	66	9
48	48	12
129	131	8
22	22	4
116	116	14
117	117	6
48	55	7
8	9	3
82	83	6
76	77	12
76	76	8
89	89	16
42	44	2
14	14	12
82	82	5
63	63	10
72	73	10
16	16	12
58	60	3
2	16	2
1	25	4
102	102	15
2	2	15
32	33	3
0	24	4
67	68	2
97	102	6
7	7	18
123	123	8
106	106	9
13	14	2
28	28	10
82	84	3
113	113	14
77	81	2
127	132	1
79	79	7
4	4	6
115	119	1
103	103	7
57	59	5
50	57	4
121	121	8
68	70	3
114	114	6
117	120	3
128	128	12
78	88	4
78	78	12
58	62	2
4	5	17
41	41	1
45	54	4
121	127	1
49	49	17
92	92	5
24	24	6
44	44	14
131	132	1
59	59	17
80	81	11
94	96	3
31	31	6
42	42	2
29	29	15
74	80	5
96	96	4
3	3	11
69	69	10
77	77	21
17	17	12
21	21	22
58	68	1
8	8	3
7	9	2
59	61	2
14	16	3
68	73	1
49	50	8
0	11	2
54	54	10
5	5	7
115	115	14
86	90	5
15	16	10
119	119	7
45	48	4
4	54	3
109	111	2
41	43	4
38	39	9
40	42	1
90	92	7
63	65	5
17	18	1
105	106	6
80	82	1
13	13	11
52	56	2
45	45	18
31	32	5
48	50	8
121	126	1
49	60	1
102	104	7
75	76	5
73	73	3
51	51	13
47	60	7
64	66	7
57	71	4
57	57	2
118	118	16
19	19	4
104	124	3
74	75	6
39	44	3
25	27	4
91	92	13
99	99	9
98	102	5
124	124	7
126	128	3
65	65	7
101	101	2
64	67	3
120	121	3
91	93	3
109	109	15
39	39	5
93	93	10
5	8	3
40	43	2
51	52	3
97	106	1
51	53	4
84	86	3
88	89	1
54	55	4
1	19	1
63	64	7
39	40	3
94	95	5
71	71	30
11	11	6
42	43	3
59	60	3
23	23	1
25	28	7
110	119	1
3	54	3
41	44	1
106	113	3
68	69	5
66	67	7
18	18	9
127	127	11
99	101	5
117	119	2
24	26	3
40	40	7
19	20	1
74	81	3
130	131	5
85	85	12
123	125	4
132	132	5
95	105	4
10	10	5
83	84	6
69	70	5
97	97	3
16	17	2
29	30	3
18	19	1
12	13	5
80	92	1
120	122	1
27	27	7
84	88	2
44	45	3
40	41	3
56	56	4
110	112	7
104	104	6
79	81	4
47	56	2
50	55	1
64	64	7
67	67	10
98	99	5
52	52	6
43	44	3
99	102	5
110	110	3
74	74	7
19	22	1
30	30	10
46	48	1
107	111	2
100	100	9
46	47	6
49	57	1
105	105	4
129	130	3
43	59	1
90	91	5
53	54	3
126	126	8
86	87	3
108	112	1
9	10	5
108	110	3
85	87	1
125	125	13
15	19	2
57	58	5
92	93	2
27	28	7
100	111	3
0	1	1
62	63	8
98	103	3
123	127	3
69	72	2
13	20	1
11	12	3
29	56	2
78	90	2
26	28	3
102	103	6
65	66	10
28	32	2
86	86	4
118	119	8
91	91	13
84	87	1
91	94	3
132	133	5
88	94	2
10	16	5
38	38	2
57	69	1
72	72	2
46	55	1
100	102	4
3	4	6
127	128	6
64	65	4
58	69	3
46	53	1
110	120	3
87	88	5
46	56	1
44	48	3
25	26	4
97	110	1
81	83	1
1	1	11
28	29	2
10	15	2
32	32	2
81	91	1
72	75	1
90	90	12
29	31	5
112	121	1
124	126	3
71	75	4
27	46	3
52	55	2
116	117	1
94	97	1
85	86	2
127	129	2
88	88	5
105	110	1
115	117	1
3	18	2
112	112	3
23	25	2
58	59	3
34	34	4
95	95	8
87	87	3
96	98	4
20	22	4
2	4	3
96	97	3
77	78	4
38	40	2
19	21	1
28	45	2
101	102	1
46	46	7
68	68	1
122	122	3
122	127	3
42	60	1
48	49	1
103	105	3
4	16	1
74	76	3
24	27	1
114	119	2
32	34	4
125	128	4
131	131	7
106	107	3
70	70	5
74	77	2
12	16	1
110	111	1
104	105	6
52	53	4
1	3	2
47	52	1
98	101	4
30	34	1
44	46	2
30	33	2
62	64	2
8	10	5
45	60	1
0	2	1
107	109	3
87	90	3
29	49	1
114	116	3
83	83	3
109	110	1
33	34	3
87	89	3
56	61	1
117	118	2
112	117	1
113	115	3
21	22	2
45	55	1
99	106	1
133	133	1
33	33	4
44	54	1
98	106	2
1	2	3
62	62	5
81	81	3
63	67	1
64	71	1
95	96	1
76	80	1
45	47	2
26	26	3
45	46	3
63	66	3
18	21	2
60	61	2
30	31	2
67	70	2
127	130	1
24	25	4
101	107	1
8	15	2
89	91	3
92	95	1
2	5	2
57	61	1
49	51	2
116	122	2
1	6	2
23	26	1
61	62	1
7	11	2
41	46	1
113	118	1
124	127	1
123	126	2
47	47	2
8	13	1
118	120	2
61	61	1
60	62	2
43	43	1
114	117	1
64	68	1
41	42	1
18	22	1
70	71	1
59	62	1
39	41	1
79	87	1
130	132	1
9	13	1
113	121	1
39	43	1
86	97	1
128	129	1
103	104	1
84	85	1
48	56	1
68	81	1
71	74	1
44	55	1
