66	67	4
21	39	3
32	34	4
60	61	5
130	130	3
105	120	4
33	33	12
70	70	7
32	42	2
65	65	6
19	19	4
132	132	4
43	43	8
84	84	4
58	58	11
119	119	5
27	27	9
80	88	4
127	132	2
11	11	9
117	118	2
124	125	3
106	106	5
3	45	2
91	132	5
89	89	6
21	21	9
93	93	5
123	123	6
0	0	5
48	48	4
46	46	2
7	7	6
64	64	13
129	129	13
3	3	7
75	125	1
15	15	10
102	102	1
41	41	5
75	76	1
69	118	2
131	132	3
111	112	2
47	47	4
124	124	5
96	124	1
102	103	4
96	122	3
22	98	4
67	67	12
63	125	3
59	59	4
16	33	4
68	68	8
3	47	2
98	98	6
34	40	2
83	86	2
67	123	1
74	74	5
44	45	1
55	134	3
83	83	12
81	81	2
30	34	5
34	35	2
45	45	4
110	110	8
109	109	4
22	22	2
113	113	5
69	70	7
61	107	3
96	96	3
4	6	2
28	29	4
134	134	5
75	75	7
66	66	2
36	39	2
78	78	4
38	38	1
116	117	2
109	114	3
88	88	4
60	60	3
77	77	7
31	42	6
29	30	5
81	86	3
9	9	15
61	61	6
20	31	5
71	71	5
79	122	3
39	42	2
67	129	2
1	48	1
1	1	5
126	126	4
24	24	3
105	105	3
87	87	5
79	123	4
2	2	3
118	118	10
6	6	12
94	95	7
111	130	3
115	115	5
44	44	3
80	86	5
117	117	8
40	40	2
97	98	3
81	83	2
4	4	5
7	41	3
85	85	3
116	116	5
82	82	4
4	7	2
42	42	2
127	127	8
99	99	2
120	120	2
125	133	3
62	62	1
80	80	6
55	56	2
93	112	2
76	76	5
25	25	8
108	108	1
46	47	2
5	43	1
122	122	6
12	12	4
79	101	2
79	79	6
72	72	9
34	34	10
72	125	5
68	98	1
40	41	1
94	120	3
103	103	1
9	23	3
91	92	3
128	132	5
106	114	6
27	28	1
13	13	5
62	64	1
86	86	1
112	112	5
7	21	1
79	80	1
113	114	4
127	131	5
10	10	3
17	17	9
113	115	1
92	131	3
86	101	1
39	39	3
102	133	3
22	88	1
133	133	8
31	97	2
13	14	5
9	10	1
17	37	2
16	16	3
3	61	1
89	93	1
75	77	3
56	56	5
103	129	2
74	75	4
3	5	2
26	123	1
3	46	2
45	46	4
104	104	1
32	95	3
128	129	6
6	55	2
95	95	5
112	113	2
127	130	1
37	39	1
0	74	1
47	76	1
58	109	2
75	102	1
57	58	3
17	34	3
113	119	1
57	130	1
86	87	2
10	101	1
115	119	1
10	71	2
68	69	2
16	23	2
15	16	3
78	79	2
70	73	2
16	100	2
9	84	1
100	130	3
90	90	4
55	55	1
0	1	3
90	91	1
18	39	2
100	100	1
79	102	1
20	20	4
34	49	4
63	132	2
29	29	3
39	40	2
34	36	2
131	131	2
107	107	1
106	107	4
57	127	1
89	128	2
101	101	2
43	49	1
33	49	1
54	55	1
3	14	1
31	98	1
119	126	2
108	109	1
127	128	3
5	5	2
77	134	1
125	125	6
5	6	2
121	121	1
68	129	2
121	127	1
84	85	1
49	130	1
108	111	1
82	84	2
78	125	1
114	121	1
131	133	1
30	32	1
107	131	1
80	81	1
24	63	2
14	27	1
95	100	2
31	31	4
82	85	1
78	88	2
109	111	1
18	18	2
37	37	2
26	124	1
49	49	1
67	117	1
128	131	1
31	32	2
32	32	2
23	23	2
95	96	2
109	110	1
126	131	1
4	5	1
95	123	1
57	110	1
61	62	1
10	83	1
94	94	1
101	119	1
120	122	2
16	24	1
105	119	1
69	69	2
36	36	1
91	94	2
14	20	2
105	123	1
114	115	1
30	30	1
79	81	1
13	18	1
25	26	1
7	22	1
121	126	1
90	94	1
91	133	1
15	28	1
61	69	1
92	93	1
106	121	1
90	100	1
71	72	1
35	35	1
