105	105	1
167	207	4
99	100	1
164	190	3
220	220	7
14	14	6
87	87	9
241	242	6
181	181	13
212	231	1
217	219	4
196	225	1
19	19	8
55	63	4
154	208	4
89	90	7
92	92	3
232	232	12
223	223	6
236	236	13
193	195	3
94	94	3
9	9	11
16	43	3
74	74	2
199	200	2
225	225	9
246	246	5
17	17	7
188	188	6
176	176	5
4	4	5
102	116	5
154	202	2
52	52	7
17	18	5
233	233	4
79	80	1
155	155	6
214	214	8
48	48	8
78	115	2
89	89	7
42	199	2
71	71	9
29	29	11
21	114	1
50	51	3
113	117	1
226	227	2
63	64	8
56	56	4
153	153	6
47	47	7
17	32	1
103	103	2
21	111	4
29	35	4
164	197	3
72	72	3
215	231	1
213	213	7
222	222	7
21	28	1
57	57	2
93	93	3
28	28	6
224	224	4
100	100	5
25	26	5
5	5	3
156	156	8
44	44	8
165	165	7
200	200	5
99	99	6
62	172	3
32	32	5
234	234	4
180	185	1
176	181	5
10	10	4
70	71	1
231	231	4
232	233	3
157	157	4
18	18	8
151	151	4
211	225	1
186	186	2
49	49	1
46	46	6
41	41	6
29	33	2
53	54	2
111	111	7
115	115	7
201	201	7
34	34	9
162	165	2
179	179	4
158	158	7
197	226	3
7	8	2
66	66	11
182	183	4
81	81	6
76	76	8
119	119	5
11	11	8
3	3	6
85	85	3
25	25	2
48	49	1
90	90	2
216	217	1
198	198	2
47	63	3
235	235	6
225	226	6
27	28	1
240	240	5
68	68	13
190	190	1
185	185	8
164	165	1
52	202	2
166	174	3
6	6	5
163	164	1
79	90	4
91	91	8
159	159	2
70	70	5
244	244	2
177	177	5
31	31	2
169	169	4
62	62	4
164	164	7
231	246	3
84	85	3
102	109	2
42	201	2
178	178	6
168	247	1
150	150	6
64	64	7
210	211	1
174	174	3
102	102	3
235	236	2
208	209	2
14	15	3
79	115	3
71	72	1
115	116	2
89	92	1
204	206	4
51	52	2
98	99	3
218	219	5
211	216	2
51	51	8
3	233	4
16	16	1
43	43	4
21	21	6
12	12	4
24	24	6
78	98	3
157	158	1
182	182	8
42	42	11
171	171	3
193	193	2
90	96	4
187	187	4
152	152	4
28	113	4
230	230	8
194	195	1
20	36	2
28	29	3
36	45	1
106	106	1
101	101	5
108	108	2
222	223	2
159	209	3
183	183	5
88	88	10
214	217	2
118	118	7
216	216	9
171	172	2
210	210	4
8	8	7
79	98	1
47	49	2
101	116	1
33	145	2
160	160	5
1	1	2
107	107	4
162	180	2
23	24	1
198	199	1
111	205	2
56	57	4
50	50	2
39	39	7
241	241	5
54	245	2
178	180	3
168	169	1
197	197	6
73	74	3
97	97	8
11	15	1
110	110	1
8	68	2
175	176	4
33	67	2
166	166	4
65	66	3
27	27	10
116	116	4
96	96	2
48	208	3
107	169	1
165	197	1
192	199	2
107	108	1
184	184	6
237	237	2
65	65	10
219	219	4
11	19	1
61	61	6
75	76	1
203	204	3
49	50	1
81	82	4
168	172	2
173	173	6
7	7	11
235	246	3
229	230	3
217	217	3
73	75	5
163	197	2
180	223	2
31	32	3
203	203	10
172	172	13
60	61	1
38	38	8
112	112	2
248	248	1
110	111	2
169	170	2
157	166	2
39	42	1
224	225	1
161	207	1
199	199	3
77	77	5
39	53	3
204	204	6
1	155	2
9	10	7
15	16	1
228	229	3
62	63	2
162	162	3
38	203	2
54	54	1
67	68	3
229	229	3
63	63	4
61	70	1
198	219	1
215	216	2
32	34	2
205	205	2
151	167	1
8	156	1
18	19	5
146	146	2
57	59	1
174	175	3
179	184	1
45	45	5
207	207	2
202	246	2
167	167	5
70	72	1
53	53	3
30	30	2
58	59	2
183	200	1
43	44	1
82	82	4
20	20	4
75	75	2
86	86	1
68	92	3
1	2	1
227	227	5
215	215	3
2	4	1
209	209	6
78	82	2
104	178	1
4	5	1
116	117	1
109	109	4
22	22	2
245	246	3
2	153	1
95	97	4
42	181	2
180	180	4
191	194	2
234	239	1
189	189	3
69	69	1
42	86	2
84	84	2
15	15	7
238	238	4
154	155	2
196	196	1
214	223	2
245	245	4
59	59	4
97	104	1
159	208	1
22	111	3
226	226	2
52	84	1
196	197	1
114	114	4
8	32	3
95	95	2
22	149	3
240	243	1
212	212	5
160	173	1
83	85	1
220	225	1
218	218	3
36	37	3
101	108	1
19	102	1
113	113	5
41	236	1
2	2	4
55	55	2
35	111	4
19	117	1
212	236	1
64	67	2
190	191	2
7	10	1
95	115	1
101	102	2
35	36	2
100	101	1
1	153	2
168	168	1
35	35	1
14	68	2
8	100	1
73	73	1
95	100	1
40	40	4
37	38	1
3	11	2
97	121	1
46	205	1
120	120	1
79	79	1
211	211	3
243	244	1
44	45	1
194	194	3
243	243	1
59	60	1
78	99	1
163	163	2
155	156	1
42	43	1
94	114	1
67	67	1
76	106	1
26	26	1
80	80	2
52	53	1
28	117	1
98	98	2
209	245	1
117	117	2
153	154	1
101	109	1
173	185	1
51	208	1
7	229	1
197	248	1
22	23	1
170	170	1
154	154	1
2	156	1
92	93	1
16	18	2
41	42	2
247	247	1
102	105	1
78	114	1
19	32	1
56	245	2
175	175	1
111	112	1
212	218	1
57	58	1
160	179	1
46	67	1
96	97	1
156	231	1
24	25	1
221	221	1
3	157	1
192	192	1
47	48	1
59	61	2
33	33	1
83	83	1
44	179	1
151	165	1
145	145	1
162	163	1
26	27	1
177	191	1
153	193	1
233	234	1
242	244	1
