39	39	9
104	105	8
72	77	2
97	98	3
59	59	4
26	26	9
36	36	7
82	92	1
99	99	6
50	50	11
73	94	3
37	38	2
86	87	1
71	75	1
21	35	3
72	75	3
19	19	1
78	88	4
83	83	9
42	43	2
52	52	7
49	49	10
51	51	16
58	81	4
73	73	7
90	90	5
54	56	3
82	82	4
54	54	11
71	103	3
32	36	1
101	104	3
45	45	9
92	93	6
57	67	2
72	72	3
65	65	2
70	70	8
80	98	3
102	102	5
33	34	7
37	40	1
47	69	2
84	85	4
24	24	13
71	71	3
98	98	4
39	46	3
61	62	10
74	74	4
43	43	7
103	103	8
55	58	2
53	93	1
24	72	3
55	55	8
54	57	2
62	73	2
33	37	2
23	23	6
58	58	4
42	42	2
31	31	8
88	88	18
61	61	12
92	92	7
85	86	7
64	64	7
96	96	6
53	53	4
48	48	1
65	66	4
45	46	3
38	40	2
40	41	2
53	88	3
85	85	7
106	106	2
67	84	2
94	94	5
31	35	1
100	103	3
65	100	5
91	91	6
51	68	5
32	32	6
95	96	2
84	87	2
78	78	8
21	21	3
23	40	1
77	80	2
84	84	2
39	76	5
100	102	1
44	45	3
66	66	3
97	97	4
60	60	4
80	92	4
32	48	2
22	37	1
91	92	5
89	89	15
34	34	2
104	104	9
82	84	4
101	101	5
83	92	3
99	100	5
81	81	3
80	80	5
69	85	1
31	32	2
36	39	2
86	86	4
35	35	6
82	87	1
75	75	9
37	43	2
24	28	2
50	51	2
56	56	2
79	80	2
51	52	3
60	61	5
27	27	2
93	93	6
25	25	2
62	62	4
25	27	5
60	99	4
33	33	7
45	57	3
69	74	6
40	40	1
47	100	2
22	22	1
70	90	2
29	29	3
20	87	2
52	104	4
48	49	1
65	67	5
21	22	2
104	106	2
57	57	4
74	76	2
78	80	2
87	98	2
71	77	1
40	42	6
56	61	2
46	46	3
43	44	1
27	99	1
32	35	3
28	28	5
90	92	2
55	64	2
21	39	1
53	81	1
71	90	6
21	32	1
89	92	2
58	59	1
88	90	1
21	55	1
59	67	2
77	77	4
23	71	4
54	97	1
94	103	2
54	88	1
69	79	2
28	39	1
76	91	1
52	94	3
76	77	1
95	95	1
89	90	3
87	87	4
49	68	1
54	58	1
73	77	1
38	39	4
21	23	1
24	26	1
73	91	1
26	27	2
69	70	2
59	62	1
38	76	2
47	47	3
31	95	1
79	100	1
101	102	3
23	31	1
58	69	1
68	90	1
102	103	3
103	105	2
54	99	1
52	87	1
27	31	1
44	44	2
67	67	1
93	106	1
76	76	1
70	71	1
74	75	2
57	68	2
69	69	1
22	46	1
41	42	1
56	59	1
35	93	1
53	68	1
47	99	1
53	56	1
37	37	1
46	47	1
63	64	1
72	84	1
67	80	1
22	23	1
23	41	1
54	96	1
30	32	2
73	74	1
37	39	1
60	107	1
26	28	1
30	30	1
38	38	1
22	42	1
90	91	1
100	104	1
20	25	1
44	102	1
