116	116	13
7	7	5
99	99	14
157	158	7
138	138	8
148	148	8
163	165	9
8	8	2
105	122	1
73	73	3
150	151	5
100	100	6
24	27	4
53	54	6
164	164	6
95	95	6
123	123	2
22	22	10
35	35	7
142	142	10
37	37	4
146	161	3
98	98	3
35	36	4
48	81	4
56	56	12
2	2	6
160	160	8
135	136	1
128	129	7
122	122	3
128	128	7
131	131	4
24	25	4
79	79	3
78	78	10
14	14	2
123	132	1
145	164	2
105	105	4
15	15	5
0	1	1
134	134	7
42	42	3
111	111	1
104	104	11
67	70	2
70	70	3
45	49	3
113	113	5
109	164	2
25	25	11
69	69	15
169	169	4
43	44	1
67	67	5
159	159	6
86	86	6
11	12	3
152	152	6
161	169	2
44	87	1
12	12	8
34	35	4
77	77	8
137	137	9
145	145	6
72	73	9
149	149	7
38	38	3
9	9	5
53	53	4
43	43	10
113	114	1
116	141	3
66	66	1
143	143	5
141	141	15
167	168	2
3	3	6
12	86	2
114	114	10
55	56	7
144	144	11
51	53	2
119	120	3
75	75	7
128	130	4
147	147	3
26	26	5
80	80	4
55	55	5
17	24	3
17	18	1
27	27	2
47	47	4
44	45	6
56	57	3
150	150	7
91	95	2
21	21	4
98	99	2
50	86	5
41	41	2
103	104	1
101	101	7
158	158	2
97	97	5
121	132	3
84	84	4
154	162	3
122	123	3
34	34	5
1	39	2
1	1	4
145	146	4
40	41	3
13	75	3
24	24	4
156	156	5
88	88	6
91	93	1
163	163	1
114	115	6
109	110	1
63	63	6
49	50	5
129	129	3
110	164	1
68	71	1
5	5	2
96	96	2
106	107	1
168	168	7
117	142	4
142	143	2
54	55	4
81	85	3
19	56	3
19	19	1
166	166	3
146	159	5
83	83	4
136	136	3
68	68	3
110	144	2
108	108	9
140	141	2
137	155	1
117	117	8
93	94	2
126	126	4
102	102	2
64	74	2
22	24	1
102	103	2
4	10	2
17	17	2
26	27	2
74	75	5
46	82	7
18	156	1
154	156	7
125	126	3
39	39	2
20	24	6
152	158	5
118	134	2
148	149	2
19	25	1
124	124	1
90	90	3
104	106	2
51	52	1
20	20	2
88	125	3
55	85	2
147	162	1
74	74	2
134	135	3
161	166	3
130	130	1
45	86	4
33	36	3
66	67	5
121	121	1
101	103	1
77	78	1
118	154	2
113	139	1
76	79	1
151	151	3
103	103	1
71	71	3
54	85	3
109	109	3
85	85	4
18	18	3
90	91	2
132	133	4
51	136	1
155	155	1
57	57	5
112	144	2
165	165	2
132	135	2
139	140	4
87	94	1
103	148	3
13	13	2
91	91	1
47	49	4
104	122	1
80	86	2
87	87	2
161	161	1
118	118	2
21	25	2
114	140	4
106	146	1
20	22	2
120	120	7
20	21	2
46	81	1
133	133	1
70	71	1
124	126	1
157	157	5
89	89	6
108	154	4
76	76	4
1	2	1
129	130	1
105	147	2
10	10	2
77	80	1
106	106	1
87	88	1
138	139	1
4	5	1
92	93	2
33	33	3
45	45	3
10	66	1
118	143	1
51	51	3
37	38	2
48	49	1
54	54	2
51	134	3
14	15	1
127	135	2
17	44	1
2	3	2
155	156	2
53	137	2
102	161	3
116	130	1
97	98	2
77	79	1
23	23	6
47	56	2
46	80	1
112	112	2
71	73	1
78	80	1
74	76	1
62	63	1
22	23	1
44	44	2
92	92	3
153	153	2
65	65	1
5	6	1
75	76	1
170	170	1
130	131	1
3	38	1
119	119	2
112	113	1
11	74	1
18	154	2
13	14	1
16	16	3
96	97	1
105	146	3
19	44	2
106	119	1
123	124	1
12	64	1
136	137	1
82	82	1
0	0	1
127	136	1
110	110	1
26	28	2
3	17	1
12	44	2
160	161	1
143	164	1
106	134	1
104	107	1
124	125	1
144	145	2
10	71	1
119	134	1
5	91	1
72	72	1
76	77	1
91	92	1
125	125	1
