126	181	5
2	3	3
186	186	14
121	136	1
93	93	3
77	111	1
70	70	1
36	36	6
163	167	1
176	176	11
129	129	6
156	161	4
10	11	7
43	43	4
67	68	4
184	185	3
98	98	1
158	158	4
144	146	6
166	166	8
169	170	3
11	11	3
30	30	4
55	55	8
159	159	7
28	28	10
35	35	2
86	87	1
95	95	10
110	110	8
54	54	5
137	149	3
148	148	2
164	164	2
34	34	6
118	118	1
90	90	7
184	184	4
113	113	9
144	147	1
63	63	4
131	147	1
178	178	2
156	156	3
151	151	3
8	8	4
150	150	3
172	172	4
57	57	4
185	186	3
62	100	5
114	114	7
169	174	4
135	135	1
19	19	2
149	149	6
137	138	1
138	139	6
116	116	5
115	115	3
145	145	1
62	62	2
22	23	2
56	76	3
177	177	7
161	161	1
32	32	1
48	48	3
143	143	2
74	75	2
133	133	11
183	183	3
38	38	6
27	44	2
1	1	4
181	181	4
91	92	5
77	77	5
126	127	3
164	165	2
27	30	7
7	7	2
190	190	3
9	40	2
175	176	2
20	24	2
189	189	4
82	88	1
101	101	2
16	18	1
139	139	3
96	96	4
8	38	3
39	40	2
73	83	1
44	45	1
123	126	2
42	42	2
80	82	6
33	40	1
80	81	2
78	78	4
180	181	2
91	108	4
104	104	4
10	38	1
71	73	1
31	33	1
137	147	2
97	98	1
137	150	2
23	23	2
162	162	1
149	153	1
61	61	2
72	72	1
107	107	4
3	3	1
180	180	3
168	170	2
165	165	1
45	45	4
93	94	2
140	140	2
160	160	1
27	29	1
2	2	5
146	146	5
74	74	1
41	41	3
137	137	1
27	31	2
19	21	2
40	40	3
98	99	2
106	108	1
25	25	2
155	155	6
25	43	1
92	94	2
0	0	3
182	182	3
188	189	2
87	88	2
142	142	4
29	30	3
43	45	2
21	21	1
24	24	6
165	167	2
25	46	1
73	73	3
88	88	2
175	175	2
108	108	3
128	129	1
29	29	1
143	145	2
82	83	2
70	73	1
121	121	1
158	164	1
152	153	3
141	142	1
72	75	1
104	106	2
21	25	1
30	35	2
0	166	1
6	6	2
56	56	3
33	33	2
154	154	2
105	105	2
4	4	5
82	82	1
147	148	1
75	75	2
95	96	1
117	117	1
31	32	1
144	145	1
20	20	1
18	19	1
10	10	4
101	102	1
124	124	1
126	126	1
147	147	1
127	128	1
168	168	2
179	179	1
173	173	1
130	131	2
162	165	1
44	47	1
39	39	5
83	93	1
71	71	1
47	47	2
106	106	1
109	109	2
124	157	2
26	42	1
181	182	1
100	102	1
28	29	2
16	19	2
81	81	1
87	87	1
58	58	2
56	84	2
169	169	3
176	177	1
187	187	2
10	14	1
58	59	1
188	188	2
97	97	1
159	161	1
120	120	1
68	68	2
112	112	1
13	14	1
59	59	1
44	46	1
9	12	2
100	100	2
80	80	2
19	20	2
60	60	2
46	47	1
125	126	2
78	79	1
5	5	1
178	180	1
172	173	1
26	36	1
32	36	1
111	111	1
99	99	1
8	46	1
88	89	1
66	66	1
170	171	1
177	178	1
136	136	1
159	187	1
