1	1	3
98	98	6
154	157	3
132	132	6
10	11	6
92	92	6
87	90	1
102	148	4
70	70	1
147	148	2
129	130	4
54	54	9
52	53	2
95	95	5
130	131	5
48	48	2
97	97	5
104	104	3
110	110	3
39	41	2
80	80	4
104	105	5
15	15	3
76	78	1
5	65	1
40	40	4
141	141	8
136	137	4
112	112	3
22	22	7
113	113	1
93	94	7
78	80	3
115	116	1
26	29	2
41	42	1
86	87	3
21	22	2
108	108	8
8	12	2
70	71	1
67	67	2
13	14	2
140	140	2
91	91	4
131	134	1
138	138	4
109	110	2
55	55	7
39	40	7
30	30	6
45	45	8
43	43	4
47	47	2
140	141	2
94	95	3
51	52	3
2	2	4
21	21	5
34	34	5
16	16	5
44	47	2
80	81	2
18	18	1
68	68	7
146	146	4
133	133	3
106	106	3
56	56	2
118	136	3
151	154	2
27	98	2
101	101	3
120	120	1
38	40	2
120	124	1
118	142	2
153	153	1
77	77	7
35	94	1
32	93	2
145	145	6
134	135	2
53	54	4
100	100	5
146	147	3
28	29	3
56	57	2
95	96	4
33	93	2
9	10	2
79	79	2
71	71	4
132	134	2
103	110	3
122	123	1
134	134	3
7	7	3
122	152	1
81	82	6
114	115	1
125	125	1
99	99	9
135	135	2
19	20	1
19	19	4
91	130	1
50	50	1
127	127	4
31	55	2
17	17	1
81	81	1
83	83	1
136	136	1
49	49	7
69	69	3
20	20	4
117	117	3
40	41	3
82	83	2
88	88	2
86	86	4
33	33	3
44	44	2
119	119	4
11	12	1
84	84	2
103	117	1
155	157	1
129	129	10
103	106	2
89	89	1
65	65	2
87	87	2
46	46	5
38	38	1
34	67	2
142	142	4
31	93	2
3	4	1
156	156	3
121	121	2
54	56	3
32	33	1
41	41	1
36	89	2
63	63	2
139	140	1
93	93	1
27	27	1
116	117	2
40	46	3
121	151	1
25	25	2
53	53	2
13	13	6
38	39	1
124	132	2
109	111	1
64	64	1
29	29	1
39	39	3
37	37	2
101	126	2
116	116	2
154	154	3
100	128	1
90	90	1
36	36	2
153	154	3
31	31	2
114	114	4
84	85	1
25	73	1
148	148	2
107	112	1
34	35	1
17	18	2
32	32	1
123	150	2
108	143	1
125	137	1
99	100	3
126	126	1
155	155	2
152	152	2
76	81	2
26	26	4
12	12	1
36	86	2
100	138	1
6	8	2
102	117	1
25	26	1
111	111	1
11	11	1
30	51	2
68	69	2
26	27	2
62	62	1
73	73	1
4	4	1
28	28	1
150	158	1
70	88	1
137	137	2
133	149	1
50	51	2
105	106	1
2	5	1
72	104	1
6	6	1
88	89	1
82	82	1
69	70	1
30	55	1
130	132	1
154	158	1
92	93	1
124	126	1
128	128	1
101	115	1
