53	66	1
40	40	4
49	52	7
7	7	8
46	55	1
17	17	8
6	14	2
36	36	6
1	1	10
71	73	1
18	18	3
45	45	6
71	71	13
73	73	11
31	35	1
49	64	4
70	70	2
50	50	8
68	68	6
4	4	2
65	70	2
56	56	6
65	66	3
74	74	13
30	30	5
42	44	1
72	72	13
15	51	3
32	33	8
69	69	2
35	35	4
80	80	6
76	77	6
32	32	4
16	16	7
50	65	4
54	54	5
52	52	7
76	76	6
42	50	1
56	57	5
31	39	1
12	12	13
64	64	11
3	3	1
11	11	3
18	50	1
17	20	4
4	6	2
45	71	4
56	64	2
73	74	1
65	65	6
60	60	3
5	8	3
19	19	5
30	42	3
70	71	2
43	43	7
78	79	3
26	26	15
30	33	2
8	8	6
48	71	1
46	46	4
3	9	5
51	52	1
6	6	12
76	80	4
34	37	1
1	7	2
31	38	2
37	37	7
49	70	1
57	59	1
61	61	8
39	39	5
18	20	2
51	51	8
45	51	1
38	39	8
57	57	7
10	64	2
51	53	3
12	16	3
14	16	1
0	0	5
15	15	4
75	75	5
11	67	2
60	61	4
53	53	2
73	75	2
67	67	2
8	11	2
2	3	6
29	29	7
72	73	1
54	63	1
52	67	4
55	55	7
0	1	1
14	15	2
10	18	2
31	33	4
2	2	1
75	76	3
66	67	1
20	20	4
14	22	3
10	11	3
12	14	6
14	14	4
17	21	1
21	21	5
13	14	8
67	68	1
56	59	3
59	59	5
1	6	2
63	63	5
27	40	10
45	69	2
53	54	1
27	30	1
66	66	5
10	63	2
30	40	1
41	41	11
38	38	1
50	63	2
62	62	8
47	47	3
54	55	1
16	63	1
26	40	2
52	69	1
50	54	2
49	69	1
34	34	3
5	6	3
34	35	2
5	5	3
58	58	1
39	46	1
56	58	3
79	79	1
17	18	1
71	72	1
47	66	2
17	19	1
8	10	1
33	33	2
11	14	4
15	48	1
51	59	2
30	46	1
26	30	2
63	67	3
41	42	1
9	9	3
45	46	3
42	42	3
53	64	2
18	19	1
56	65	1
6	8	2
8	9	3
78	78	2
52	61	1
2	6	1
46	48	1
2	9	1
50	66	3
34	75	1
32	52	1
72	77	1
28	28	1
40	73	1
47	48	1
64	67	1
4	48	1
49	49	1
38	41	1
39	42	1
58	60	2
77	78	1
57	58	1
77	77	1
30	32	1
46	47	1
31	31	1
31	32	1
22	22	1
25	25	1
10	10	2
47	49	1
31	68	3
29	41	1
70	72	1
16	21	1
26	42	1
49	50	1
52	68	1
28	29	1
30	39	1
