125	126	5
27	27	5
89	89	8
125	125	11
63	63	10
71	72	8
124	124	5
54	54	11
129	129	5
15	21	2
2	2	12
29	29	1
76	77	3
115	115	8
79	93	1
77	77	8
43	43	9
75	75	6
68	68	4
128	128	5
42	42	3
123	123	7
111	111	9
76	76	4
0	4	1
0	0	7
131	131	12
41	43	4
114	115	2
57	57	7
33	40	2
109	111	2
11	11	10
13	26	1
4	4	15
70	70	6
132	132	8
43	60	3
88	88	2
120	120	9
103	108	2
118	118	5
101	102	1
12	12	3
94	94	3
24	24	2
102	103	1
122	123	3
49	49	6
100	101	1
68	81	1
97	97	2
59	59	5
30	30	2
87	88	3
94	95	1
103	103	4
112	112	4
22	22	3
108	108	15
75	76	3
72	72	2
88	116	1
16	17	3
104	104	2
65	65	6
42	43	5
18	18	9
14	14	5
90	118	1
80	80	4
52	52	7
46	46	9
31	44	5
3	3	2
114	114	5
93	94	2
83	83	2
111	112	2
33	34	3
7	7	6
86	86	2
73	73	4
47	47	3
99	99	7
95	96	4
128	130	2
73	74	5
16	16	7
14	15	5
69	69	4
6	6	7
100	100	2
122	125	1
87	87	7
38	39	3
51	51	7
79	80	2
67	68	2
50	51	3
130	131	1
118	119	2
72	91	1
101	101	2
63	65	2
38	38	2
121	121	1
39	39	7
103	110	1
125	130	2
19	19	3
48	48	4
9	10	2
53	53	7
117	117	2
69	70	1
16	20	2
125	132	1
95	102	1
98	98	1
44	44	6
95	95	3
113	114	4
67	67	4
72	73	5
66	66	1
30	46	3
72	93	2
93	93	2
58	58	4
133	133	4
104	108	2
52	55	1
26	26	4
45	45	6
126	127	3
8	8	1
13	14	3
55	56	1
38	77	2
96	96	4
87	90	1
17	17	2
30	31	1
31	32	1
64	70	1
77	78	1
80	81	3
122	124	1
121	122	3
25	25	2
65	80	2
58	59	1
48	49	1
61	62	4
15	15	3
8	9	3
105	105	2
92	97	2
10	11	1
107	108	3
1	1	6
126	126	1
86	88	1
41	41	1
6	7	1
54	55	1
50	50	3
71	75	1
29	30	3
107	107	1
113	113	2
112	121	2
82	84	1
106	106	2
81	81	2
122	122	2
62	64	1
70	80	1
33	105	1
61	61	1
62	62	1
23	23	1
55	55	3
119	119	4
32	63	1
45	46	2
109	109	3
84	85	3
13	27	1
61	69	3
90	90	1
28	28	2
33	33	2
127	127	1
27	28	2
79	79	1
13	29	1
13	13	2
76	96	1
18	20	1
28	29	1
11	12	1
40	40	1
17	18	1
62	63	1
60	61	1
32	62	1
9	9	1
92	92	1
