6	7	5
50	53	6
16	16	12
113	113	20
9	9	23
173	173	35
146	150	1
195	197	4
81	83	8
6	6	8
168	168	27
29	193	2
171	171	5
126	126	9
69	71	3
53	53	11
181	181	20
100	100	8
40	41	8
169	190	1
99	133	6
71	71	33
108	111	4
15	22	1
109	109	10
29	29	34
184	184	16
185	185	15
68	68	28
7	7	14
155	155	15
12	12	14
169	169	12
29	31	3
189	189	22
142	142	11
4	5	4
101	102	8
108	170	3
12	61	1
34	188	3
30	31	9
40	40	13
39	39	31
137	137	20
174	174	18
14	14	23
51	51	11
96	96	8
183	184	3
47	47	20
20	29	4
140	140	11
150	150	15
153	154	11
6	160	4
10	10	19
13	13	16
17	19	9
84	94	4
172	174	5
80	81	12
32	33	3
80	82	1
54	55	10
30	158	2
195	196	15
48	48	14
46	47	19
52	52	27
58	59	1
36	36	13
154	154	16
30	30	19
176	176	10
8	43	2
112	113	5
134	134	23
147	147	14
73	74	6
165	165	15
67	67	19
107	107	19
43	57	3
182	182	25
116	116	14
27	32	6
108	108	11
108	109	6
171	172	7
79	81	2
95	95	6
163	163	7
97	97	11
114	114	13
136	136	14
85	85	1
17	18	13
86	86	11
23	23	20
57	58	3
127	127	14
104	104	14
131	131	6
175	175	15
27	27	22
136	140	3
49	50	2
161	161	12
81	81	6
160	160	9
119	119	11
112	112	18
166	166	17
20	20	11
38	38	28
190	190	11
59	59	9
17	66	1
18	18	2
77	77	12
18	19	4
19	20	5
50	51	4
197	197	9
56	56	14
13	45	8
121	121	14
193	193	14
51	52	5
99	99	21
122	122	26
162	162	6
34	34	9
26	26	19
166	167	8
128	129	8
84	124	1
109	110	6
108	150	2
17	70	3
149	149	22
192	193	11
31	31	3
42	42	8
143	143	4
53	57	3
153	176	1
116	133	5
155	157	2
132	132	14
156	156	10
82	82	15
157	165	2
15	15	10
163	164	14
60	60	7
158	159	3
26	27	1
40	44	6
64	64	25
105	105	11
181	182	4
2	2	3
37	37	8
75	76	4
7	43	5
111	111	14
24	24	12
78	78	10
123	123	15
138	138	16
195	195	5
57	57	11
136	137	4
32	32	5
15	29	4
146	147	7
17	17	16
81	82	2
94	94	18
72	72	4
157	157	14
151	151	21
184	185	2
43	43	8
123	124	12
40	54	1
34	35	21
66	67	6
175	176	6
11	11	21
180	180	16
6	44	3
127	129	3
52	53	12
175	177	3
5	5	9
98	102	4
0	179	2
173	174	5
110	110	7
191	192	6
186	186	9
63	68	3
178	178	23
112	120	6
145	145	3
101	117	4
6	43	6
94	140	2
127	128	1
128	128	13
69	69	20
21	21	11
117	117	10
196	197	3
188	192	1
7	8	4
0	0	16
87	135	2
129	179	4
35	156	4
33	35	2
191	191	9
129	129	3
89	90	5
129	130	5
14	15	6
89	89	20
79	149	3
74	74	12
170	170	7
41	41	8
141	141	19
177	178	3
120	120	10
46	46	8
153	155	1
142	143	5
124	124	6
9	10	9
55	55	5
16	66	1
31	181	4
23	24	10
55	56	5
139	142	3
18	69	3
22	23	7
194	194	14
193	194	6
135	135	10
102	102	4
140	143	4
76	129	3
166	179	3
115	115	10
28	30	2
74	81	2
98	99	1
78	125	4
47	48	3
24	127	2
18	24	4
152	153	4
79	80	2
177	177	8
167	168	8
110	111	6
28	28	7
42	76	2
172	173	2
94	95	2
113	138	3
156	157	8
101	101	9
138	140	3
186	187	2
150	151	2
79	79	10
122	123	5
83	83	6
65	65	4
71	72	4
95	115	2
158	158	11
111	114	1
121	122	5
19	19	12
178	180	4
98	98	12
50	50	13
72	156	3
117	118	8
49	49	14
196	196	14
118	119	6
36	160	3
144	144	17
179	179	6
32	181	2
148	148	5
35	36	4
131	137	5
75	75	2
27	28	10
133	133	13
160	167	1
86	88	3
34	40	5
19	128	2
59	61	6
4	4	11
0	18	3
186	194	2
42	44	6
188	188	10
83	84	1
179	180	4
73	73	7
10	14	13
153	153	13
58	58	17
164	164	10
179	182	1
70	71	3
125	125	3
62	62	9
156	168	4
60	61	5
186	188	2
29	30	10
192	192	23
77	78	5
31	32	5
155	156	2
20	21	5
115	116	3
9	43	1
144	145	12
167	167	12
13	60	4
40	42	3
100	101	6
139	139	11
161	163	1
70	70	16
135	136	2
53	77	2
83	126	3
79	186	1
72	73	1
30	175	4
12	13	2
3	68	3
44	44	10
159	165	4
130	130	4
146	148	3
3	11	1
5	14	3
151	159	2
56	145	1
34	182	6
94	96	7
156	160	4
179	195	2
60	62	8
169	194	4
82	83	2
132	133	6
146	146	11
48	49	11
11	13	3
79	113	2
178	189	4
1	4	3
31	175	1
154	155	4
159	159	6
10	53	3
190	194	5
63	63	11
84	84	8
80	83	3
43	44	5
157	159	2
114	115	3
78	156	2
39	72	2
39	184	2
107	111	5
190	191	8
65	66	2
170	171	11
116	138	6
93	93	6
157	175	3
12	45	2
54	54	3
35	38	3
156	167	4
7	159	1
87	87	2
33	173	2
12	161	1
80	80	2
34	36	3
187	188	6
45	45	12
52	183	2
14	64	1
77	84	1
130	135	1
11	12	2
109	126	2
124	125	5
160	161	13
162	163	2
53	54	6
157	158	4
156	158	2
55	146	1
76	155	2
183	183	4
120	122	2
148	149	5
151	165	3
52	54	1
0	45	4
71	73	2
63	64	3
61	61	11
78	79	5
44	45	5
169	170	4
184	186	3
192	194	3
37	55	3
185	186	3
76	76	6
135	140	1
8	8	5
37	183	3
85	127	1
81	149	2
187	187	11
65	73	1
3	3	5
25	26	3
173	177	2
39	55	1
33	33	7
147	148	4
165	166	2
80	156	1
32	182	5
114	138	1
141	142	1
149	150	7
88	88	5
181	187	2
168	169	8
189	190	1
66	66	7
120	147	1
1	1	7
77	128	2
103	103	7
78	148	5
35	35	6
24	25	4
130	131	2
16	32	2
107	109	1
109	151	4
8	30	1
9	14	5
6	8	1
172	172	6
64	67	4
161	162	4
36	38	1
99	116	2
99	100	3
15	51	3
84	85	5
76	188	1
81	84	2
180	181	4
25	25	9
69	72	2
35	155	4
19	67	2
31	64	2
38	152	3
170	174	1
154	156	3
2	6	2
70	85	2
57	144	4
2	3	4
2	4	1
76	81	1
3	6	1
7	10	1
169	185	1
96	116	1
8	9	1
125	126	2
104	106	1
62	63	2
3	5	1
3	30	1
178	179	3
112	114	4
27	181	2
20	22	1
96	97	1
7	160	3
0	1	2
170	172	1
78	149	2
72	168	1
89	93	1
3	4	1
191	194	2
34	157	3
171	173	3
85	126	1
38	193	1
161	180	3
110	115	2
155	167	1
76	77	5
50	64	3
119	120	2
24	27	2
139	143	1
39	40	2
46	59	1
36	37	2
138	139	2
4	12	1
21	86	2
146	149	1
87	88	1
30	172	3
19	29	1
143	144	3
123	125	2
18	179	1
62	67	2
41	42	4
118	118	6
169	182	4
78	86	2
56	58	2
57	64	3
180	182	2
33	183	3
6	159	1
116	136	1
38	39	4
14	58	1
135	138	1
18	127	1
37	39	2
66	75	2
126	171	2
116	118	1
52	184	1
22	22	5
37	38	2
17	69	1
157	176	1
51	59	2
106	106	1
15	23	1
1	175	1
103	104	2
106	133	1
77	187	3
64	65	2
65	72	2
2	8	2
79	154	1
99	122	2
101	116	1
175	178	2
185	189	1
76	127	1
95	98	4
32	155	2
179	181	2
13	59	1
18	32	1
113	114	3
69	144	1
18	27	1
168	170	1
88	89	2
161	170	2
158	188	1
165	190	2
15	21	1
176	177	2
59	60	2
9	16	1
120	121	1
97	116	1
61	63	1
108	110	2
9	11	1
94	117	2
141	146	1
90	93	3
98	100	1
144	173	1
137	152	1
129	133	1
158	168	1
86	87	2
130	136	1
152	152	2
5	8	4
150	152	1
93	94	1
77	119	1
187	189	2
36	182	1
67	76	2
113	135	1
38	155	1
159	160	2
151	170	1
38	174	1
128	134	1
26	181	1
61	62	1
53	55	1
174	175	1
10	17	1
63	69	1
117	133	1
1	25	1
134	135	1
2	14	1
151	163	1
88	122	1
167	170	1
119	133	1
45	46	1
37	173	1
189	193	1
31	33	1
17	68	1
102	109	1
59	62	1
182	183	1
112	115	1
152	159	2
1	122	1
29	158	1
