102	102	11
132	132	13
70	70	15
4	8	1
100	123	4
33	34	3
96	154	6
66	104	2
67	67	12
62	63	6
66	91	2
129	129	12
24	24	13
110	111	2
25	25	3
127	127	2
75	80	2
31	32	12
128	128	6
29	29	15
53	53	25
31	37	3
111	111	10
115	128	5
82	82	6
92	102	3
117	117	15
119	119	12
154	154	5
40	102	3
4	4	7
124	124	11
103	108	2
152	152	10
94	94	11
64	79	4
130	130	17
134	134	11
131	131	15
37	37	8
113	117	3
69	70	4
96	97	2
69	69	12
64	65	1
93	128	1
142	142	11
148	148	13
30	30	9
97	97	12
10	11	5
86	86	9
115	115	15
126	126	15
118	118	18
41	41	9
48	49	3
22	22	7
98	98	7
140	143	2
149	152	4
113	113	19
139	139	14
18	19	3
29	73	2
71	71	7
151	154	1
21	22	1
121	121	17
131	132	3
8	8	9
72	79	3
9	49	1
133	135	3
84	84	8
111	130	5
68	68	17
105	106	5
7	25	1
62	62	2
15	15	6
137	137	15
140	147	1
13	13	13
35	36	3
106	106	3
110	146	3
143	144	4
95	95	15
94	95	8
85	121	4
2	2	3
122	122	7
147	148	1
27	31	2
87	152	2
149	153	5
141	142	3
101	101	6
145	146	3
127	128	15
18	18	8
101	115	2
63	68	5
100	100	12
108	109	15
7	7	9
107	108	2
123	123	7
114	114	5
43	43	7
129	133	2
130	132	2
96	134	2
44	44	8
96	99	3
38	40	2
43	44	1
88	88	4
72	74	7
33	33	10
118	119	3
39	39	10
9	54	2
135	135	8
46	133	1
144	153	3
13	122	6
117	118	8
109	110	5
63	63	5
108	108	10
145	145	5
113	118	5
21	21	2
77	77	7
144	145	4
13	14	7
148	149	1
45	46	5
64	64	12
73	74	5
75	75	3
9	9	11
14	14	15
117	119	2
138	144	6
64	75	1
123	129	4
133	133	16
5	5	5
28	82	1
73	73	9
101	129	1
136	136	4
48	48	16
153	153	5
36	36	9
40	40	4
137	145	3
140	140	5
81	81	2
41	67	3
6	22	2
113	116	2
20	20	6
103	103	3
146	150	1
36	65	4
104	104	4
116	116	17
128	129	4
96	96	10
99	99	20
2	132	1
54	57	5
46	47	4
83	86	1
150	151	2
126	127	4
9	23	2
151	151	6
72	72	6
80	80	5
25	39	3
121	122	6
135	137	2
84	86	3
37	38	3
146	146	6
6	8	3
27	143	2
17	17	8
74	74	2
32	80	3
70	107	1
65	65	6
93	94	2
125	125	11
68	69	4
53	133	1
74	78	1
118	132	1
123	125	1
125	130	2
10	10	6
92	138	1
85	104	5
67	72	4
75	154	2
76	77	2
109	136	4
34	39	3
57	132	3
138	138	6
65	78	4
21	23	4
103	105	2
83	84	5
66	66	7
28	135	1
94	99	1
50	50	10
146	148	1
149	149	9
141	144	2
3	74	3
9	15	1
44	46	2
92	94	2
38	38	4
150	150	5
70	73	2
105	121	2
39	72	1
51	51	2
29	41	1
31	34	8
47	47	4
112	115	3
86	106	4
54	128	1
19	19	8
135	136	4
107	123	3
133	134	5
47	50	1
94	96	1
28	28	4
115	117	1
129	130	2
46	46	7
27	29	3
31	31	5
81	107	1
144	144	7
72	75	1
42	43	4
22	23	1
102	106	3
55	57	6
81	82	3
16	16	5
109	111	4
110	145	1
55	55	4
147	147	12
137	139	1
39	40	2
120	121	1
54	54	2
54	55	4
99	100	2
26	39	3
58	87	1
30	35	2
76	78	1
2	31	3
50	51	3
134	135	3
88	151	2
6	52	2
37	50	2
151	152	1
141	141	10
89	89	3
78	78	5
72	73	3
89	91	1
18	22	5
143	143	4
95	136	2
149	150	4
64	68	3
73	143	2
94	113	1
113	131	2
62	139	1
24	25	2
87	87	1
8	31	1
73	75	3
26	33	1
35	35	4
77	78	3
53	100	1
30	32	2
41	66	1
53	54	1
11	12	3
63	64	1
8	9	5
152	153	1
109	109	4
4	5	3
19	20	6
3	7	2
96	98	1
136	137	3
96	117	1
12	12	3
99	131	2
101	102	1
85	86	5
65	79	1
97	103	3
105	105	2
26	27	1
74	75	2
11	11	3
23	23	4
100	102	1
11	14	2
80	82	2
104	105	3
20	21	1
144	148	2
108	137	1
123	124	6
30	130	2
85	85	3
27	27	1
111	145	2
9	56	2
81	102	1
72	142	1
104	111	2
65	75	3
83	83	7
71	118	3
114	117	2
107	107	4
73	139	1
87	90	1
7	36	1
114	115	2
41	43	2
100	104	1
123	127	3
86	120	4
103	104	2
15	16	3
90	121	1
84	85	6
137	138	4
79	79	3
74	143	2
91	94	1
92	113	1
15	21	1
35	37	2
108	110	1
102	103	1
98	154	2
4	33	2
93	113	3
66	109	1
93	93	3
124	126	1
67	138	1
99	123	4
111	112	2
94	134	2
105	107	2
68	70	1
33	81	1
3	6	1
39	42	3
93	117	1
56	56	1
40	41	3
105	120	1
122	129	1
36	40	1
6	6	2
95	97	1
46	48	1
41	88	2
9	10	1
52	52	1
8	22	1
94	138	2
85	134	1
121	151	1
42	42	1
92	92	1
97	98	1
133	136	1
19	25	1
53	64	1
142	143	1
70	124	1
119	149	1
92	128	1
71	72	1
38	39	1
25	47	1
98	99	2
144	151	1
112	113	1
110	150	2
78	79	1
53	118	1
70	118	1
55	56	2
107	125	1
115	116	1
75	76	1
93	107	1
66	90	1
75	139	1
97	99	1
38	44	1
76	84	1
10	130	1
68	75	1
96	153	1
137	144	1
120	149	1
110	110	1
15	19	1
100	103	1
41	42	1
144	150	1
74	87	1
149	151	1
62	87	1
23	24	1
