29	29	5
115	115	10
109	109	11
31	31	17
105	105	11
132	132	8
136	136	3
22	27	3
20	32	2
8	8	8
94	95	5
16	19	9
101	101	3
2	6	6
15	26	1
92	93	7
74	74	6
83	85	4
1	3	1
120	120	11
96	112	1
137	138	1
9	19	2
122	123	3
13	13	10
102	102	11
26	26	15
17	17	10
23	25	3
16	17	3
78	78	12
126	126	9
81	110	2
12	12	10
94	111	4
9	13	2
110	120	4
15	19	1
86	88	4
84	84	12
23	23	3
111	111	7
122	122	10
124	125	7
37	37	11
81	81	8
0	32	1
95	95	3
92	113	7
21	31	2
116	116	14
35	35	5
84	85	3
92	92	5
86	107	2
27	32	2
128	128	12
74	78	2
77	78	4
139	140	3
107	107	4
22	23	3
18	18	11
15	21	3
34	36	1
135	135	4
75	75	10
139	139	6
114	117	2
103	103	5
22	22	2
129	129	8
106	121	3
38	38	7
27	28	2
124	124	14
85	85	3
89	92	5
20	20	8
90	121	1
123	130	5
99	109	1
71	71	11
87	87	15
93	93	8
10	10	5
73	73	6
81	84	5
123	123	7
125	125	13
72	72	7
11	12	4
113	113	3
74	75	2
28	28	8
119	119	4
14	14	5
128	129	1
130	130	5
14	19	3
118	119	1
12	17	5
99	100	3
110	112	2
131	131	8
81	82	9
99	99	5
5	6	2
32	32	5
21	21	1
4	4	2
137	137	6
79	79	11
6	21	3
3	3	8
117	117	10
1	1	2
27	37	4
86	89	3
127	128	1
90	90	8
16	16	15
12	13	1
6	8	5
121	121	4
114	114	3
96	96	2
101	102	4
7	16	3
127	127	6
34	34	8
28	29	1
87	121	1
77	80	9
6	6	7
131	132	2
82	116	1
27	27	5
20	22	2
71	72	2
83	83	1
26	34	3
16	18	2
71	84	2
29	30	1
134	135	1
140	140	6
73	74	1
115	120	1
25	27	2
91	91	5
9	9	6
124	126	6
93	105	1
114	115	1
97	97	6
94	101	2
93	118	1
15	29	5
4	5	7
107	108	2
102	121	3
82	83	2
73	78	2
104	105	3
103	105	2
10	11	3
87	93	1
87	88	3
19	20	3
0	4	1
3	6	4
88	88	6
31	78	3
105	107	3
118	118	5
92	102	1
12	29	1
76	77	1
100	101	2
23	37	3
91	109	2
107	118	3
134	134	9
15	20	1
100	107	2
5	5	6
77	77	13
85	89	1
76	76	1
84	117	1
125	126	5
104	106	4
92	101	2
80	80	2
5	12	1
25	37	5
133	135	2
90	118	2
107	113	1
11	19	2
7	7	3
22	26	2
87	106	1
91	105	2
112	114	4
30	30	5
103	104	3
3	4	2
11	11	3
89	91	1
106	106	4
18	21	1
7	9	3
24	24	2
92	112	2
25	25	1
75	83	1
113	116	3
85	121	1
86	91	1
2	2	4
82	118	1
89	111	1
10	12	2
85	87	1
11	20	1
6	9	3
36	36	2
120	126	1
7	8	2
108	119	2
110	110	4
26	27	1
136	137	1
13	14	3
123	126	2
113	120	1
113	115	2
108	108	4
97	100	2
112	113	2
82	82	1
104	121	1
13	20	1
119	120	2
106	107	2
117	118	2
34	35	1
93	121	2
33	33	3
80	122	1
31	32	1
15	15	1
85	91	1
17	18	2
98	98	2
100	102	2
110	111	1
3	8	2
138	138	3
36	38	2
86	92	3
108	121	2
93	113	1
89	96	1
72	73	1
81	120	1
89	90	3
10	24	1
28	32	1
85	119	3
26	33	2
23	36	2
90	91	1
72	75	2
18	32	1
25	31	1
90	125	2
0	1	1
122	126	1
23	32	1
97	99	1
91	97	2
92	94	1
88	91	1
112	112	1
96	99	2
97	110	1
1	11	2
4	30	2
6	7	2
33	35	1
100	100	2
0	0	2
94	94	1
86	100	1
2	20	1
14	29	1
8	24	1
