89	89	9
55	55	7
54	57	1
79	79	6
119	119	1
93	93	3
5	5	3
39	39	2
60	60	4
88	98	2
58	58	8
68	68	5
129	129	4
110	110	9
48	48	7
46	46	4
48	72	3
41	41	2
4	4	8
18	19	4
116	116	4
62	62	3
62	75	2
123	124	3
130	130	4
50	50	6
103	103	8
23	24	8
9	9	3
70	70	1
97	97	5
53	118	2
123	123	6
6	6	6
88	88	7
107	107	6
102	102	2
64	121	1
98	98	6
13	13	2
121	121	8
19	20	3
113	113	6
65	66	3
81	82	2
57	57	4
100	100	4
23	23	5
112	112	8
54	54	2
11	11	1
85	85	5
71	71	3
105	106	1
2	2	4
64	77	1
53	53	2
29	29	5
124	124	1
28	28	2
52	52	2
19	19	5
39	63	2
1	56	1
17	17	1
83	83	3
42	42	1
118	119	3
122	122	7
4	131	2
30	30	1
29	30	3
84	97	2
28	29	1
76	76	3
45	45	5
12	28	4
124	125	4
51	51	7
25	26	1
3	3	7
44	44	3
59	71	1
65	65	6
8	8	2
95	95	3
26	26	4
90	90	6
16	16	5
47	72	1
81	81	7
69	70	1
16	18	2
87	87	4
43	43	6
48	110	1
91	92	3
96	96	5
126	128	2
129	130	2
75	75	3
90	130	4
87	95	3
21	21	3
64	66	2
73	122	1
34	58	1
43	44	3
43	105	4
48	64	1
84	84	7
101	101	3
99	99	2
84	94	1
34	40	3
46	79	1
26	27	7
6	7	1
33	33	1
114	114	2
10	10	1
88	89	3
61	62	2
63	63	1
69	69	3
18	24	1
67	67	3
68	69	3
47	48	2
18	20	2
94	94	2
109	109	3
66	67	2
108	108	1
108	117	5
0	1	1
82	82	1
25	25	6
64	64	1
91	126	2
7	7	1
88	94	3
90	102	1
80	80	2
0	0	2
15	16	3
120	120	4
34	34	2
96	98	1
12	12	4
31	31	2
38	38	2
122	124	3
115	116	1
10	11	1
128	128	3
77	77	3
65	67	2
86	86	1
72	75	1
85	96	2
45	46	2
126	127	1
115	115	2
83	84	2
22	23	1
32	32	4
114	115	2
132	133	1
111	112	1
85	86	1
46	78	1
80	109	2
14	14	1
41	42	1
94	126	1
100	101	1
91	91	5
95	96	1
56	56	4
114	117	1
126	126	1
11	12	3
49	49	3
94	95	1
31	52	1
40	71	1
78	78	1
92	92	2
21	119	2
13	15	1
39	73	1
107	116	1
27	27	3
47	47	1
39	40	1
22	22	1
126	130	1
73	73	1
13	14	1
63	67	1
104	104	2
48	49	1
50	51	1
17	24	1
117	117	1
