17	18	2
22	22	5
77	77	5
11	12	4
123	123	3
13	31	3
92	92	3
95	95	6
91	134	5
100	100	17
158	159	2
26	26	7
63	63	2
83	83	4
84	101	5
118	118	3
116	116	3
103	103	4
110	112	2
67	68	5
19	19	2
131	132	1
151	151	9
119	119	3
75	75	4
45	45	1
33	33	2
148	152	2
4	39	2
90	92	2
102	102	2
94	94	4
127	127	1
131	131	3
156	156	2
75	77	1
139	144	2
54	55	2
90	90	2
17	17	5
30	30	3
40	41	6
111	112	2
126	126	2
0	0	4
141	141	2
49	53	3
107	107	7
37	38	4
2	2	10
82	82	3
10	87	1
105	105	10
93	93	7
42	42	1
87	88	3
77	149	1
13	22	3
46	46	1
140	140	1
105	158	1
111	111	2
145	145	2
28	28	4
143	143	7
29	91	6
26	27	2
79	147	5
148	148	3
146	147	2
3	40	2
37	39	1
24	24	2
152	152	2
119	120	3
29	29	5
129	129	6
82	83	2
139	146	2
114	117	5
52	53	1
55	56	1
41	41	1
80	80	3
6	6	4
108	108	2
110	111	5
40	40	5
37	37	3
142	142	3
73	73	2
125	125	2
149	150	1
65	65	3
122	122	2
128	128	3
77	151	1
147	147	1
149	154	4
6	8	1
148	153	1
139	139	2
104	104	1
132	132	3
14	15	3
34	34	3
27	27	3
63	64	3
71	71	3
157	158	1
67	95	2
98	98	4
16	23	2
18	18	1
117	120	2
106	110	1
138	141	2
36	64	3
129	130	2
150	150	4
130	131	2
136	156	7
109	112	1
79	79	2
50	50	3
83	135	2
39	39	2
54	54	1
74	74	1
43	43	4
85	85	5
75	76	2
146	154	1
121	122	1
25	25	3
142	143	2
10	11	2
4	4	4
103	133	1
38	38	1
93	95	2
120	120	5
16	16	2
0	100	1
101	101	1
21	31	1
42	43	1
130	130	2
96	97	1
53	53	2
140	141	2
133	134	1
27	29	1
36	36	2
89	90	1
135	136	1
9	9	2
23	27	1
152	153	1
36	65	1
76	76	1
123	125	1
125	126	1
136	136	1
49	49	2
145	151	1
112	112	1
68	96	1
137	137	1
70	71	1
148	149	1
100	101	1
29	103	1
90	93	1
