10	11	4
65	65	5
74	74	9
32	39	1
78	78	2
2	2	5
18	18	8
28	28	10
47	48	3
39	39	9
37	38	6
9	9	2
3	3	3
40	40	12
5	5	4
49	49	5
8	8	6
67	67	5
25	37	6
34	34	12
73	79	6
48	48	10
61	61	7
71	76	1
72	72	6
21	77	6
10	32	3
3	6	2
42	42	13
1	1	16
31	49	3
14	14	8
9	21	4
38	38	7
26	50	1
56	56	12
77	77	6
46	47	6
35	35	4
38	77	2
53	54	2
47	47	19
73	73	11
55	56	5
28	73	1
6	17	3
46	46	14
30	30	4
35	46	2
41	41	2
25	67	2
6	41	3
49	51	2
11	11	7
55	66	1
34	53	2
28	72	4
15	15	2
32	63	6
65	66	3
5	6	5
66	80	1
26	27	1
26	69	1
30	54	3
26	26	1
4	6	3
52	52	1
76	76	4
71	75	2
1	2	1
57	57	1
66	68	2
71	72	1
44	44	1
71	71	15
21	69	6
53	53	5
21	21	10
5	8	2
13	32	7
27	27	4
7	7	8
60	60	6
40	41	2
0	0	6
58	59	2
32	35	6
59	65	1
58	58	3
10	67	4
29	29	3
70	71	3
45	45	9
43	43	5
55	55	4
50	52	1
6	6	5
70	72	1
80	80	10
52	54	3
74	78	2
62	62	2
13	13	4
48	73	2
32	32	4
19	19	3
10	13	3
63	64	3
7	8	1
12	12	2
3	4	3
77	78	1
32	62	1
43	68	3
64	64	10
14	69	2
46	73	6
44	74	3
68	68	4
50	50	4
35	55	2
10	10	5
13	14	2
63	63	8
75	75	3
6	8	6
7	31	1
73	75	3
25	33	4
45	64	2
6	11	3
60	64	3
54	55	2
74	79	3
30	62	4
72	77	2
20	70	2
32	50	2
41	42	2
54	54	6
31	67	2
3	9	2
42	61	3
79	80	2
38	76	1
38	39	1
59	59	1
16	16	2
62	63	2
59	64	1
27	35	2
79	79	5
33	64	2
31	66	3
32	70	1
17	29	2
71	73	1
9	27	3
28	52	2
36	68	3
57	59	1
61	63	1
40	80	1
66	66	3
27	78	1
37	76	1
9	20	1
26	77	2
61	64	1
20	20	1
54	64	2
33	52	1
37	37	1
45	48	1
61	62	3
2	65	2
16	25	1
69	70	1
48	51	2
41	68	1
17	17	1
4	4	1
60	62	1
54	70	1
14	67	1
21	70	1
47	54	1
26	28	1
40	74	1
53	71	1
59	63	1
48	74	1
31	70	1
75	76	1
50	51	1
73	74	1
39	40	1
