33	33	5
30	30	6
79	81	5
56	59	7
68	68	5
104	130	4
30	31	6
41	41	3
36	37	4
112	113	3
81	81	3
121	122	1
126	128	3
49	50	8
88	88	7
72	74	6
72	73	5
37	37	11
71	71	3
77	89	1
45	58	1
75	76	1
71	72	7
77	77	5
57	57	4
9	9	6
122	122	1
62	63	5
20	20	1
69	69	3
62	66	2
31	59	2
10	10	5
32	32	3
65	65	7
118	118	6
130	130	4
131	132	3
86	86	5
3	17	4
106	132	7
77	79	1
12	12	11
2	3	1
77	78	2
119	119	6
113	113	2
35	35	7
107	107	6
57	58	3
82	86	3
127	127	3
65	76	3
95	95	3
129	130	3
15	15	9
33	42	1
112	129	3
38	39	2
42	42	5
44	46	7
65	77	2
105	129	3
5	5	2
45	45	4
82	82	7
48	60	1
11	11	4
13	22	4
18	18	4
41	43	1
99	99	2
13	20	3
100	100	2
16	17	5
75	75	10
100	108	1
36	38	1
62	62	3
66	66	3
25	25	5
118	119	2
43	46	2
113	114	3
124	124	2
23	24	4
90	92	2
124	125	1
94	94	4
36	85	3
96	96	1
78	79	4
102	102	5
65	66	4
106	107	3
0	0	2
97	97	2
56	56	6
26	26	1
34	34	2
39	43	3
70	70	2
125	125	2
105	105	3
111	111	1
6	23	1
103	106	1
63	63	4
67	67	4
88	89	1
74	74	5
26	27	1
31	31	1
95	100	3
73	73	1
79	79	5
16	16	4
44	44	4
47	47	6
48	57	3
20	22	1
7	7	3
119	120	2
109	110	2
45	46	2
64	64	2
84	85	3
48	48	2
27	27	3
12	24	1
120	120	1
95	96	1
8	8	6
19	21	2
55	55	1
115	115	1
16	18	2
126	126	1
44	45	1
85	85	3
6	6	2
85	86	2
89	98	1
97	98	2
1	1	3
122	126	1
101	101	2
15	16	1
105	120	2
31	32	3
80	81	1
59	59	5
13	13	1
129	129	3
60	61	1
72	72	3
116	116	5
24	24	2
131	131	3
4	4	1
93	93	3
2	16	1
58	58	2
106	108	1
60	60	2
123	123	1
69	70	2
11	33	2
98	99	2
94	97	1
46	84	2
69	71	3
61	61	1
2	2	1
106	112	1
102	116	1
17	17	1
121	124	1
40	40	1
120	125	1
47	62	1
68	70	1
61	62	1
92	92	1
121	121	2
102	106	1
114	116	1
107	108	1
105	106	1
90	93	1
