19	22	3
27	27	7
28	28	10
13	13	6
78	110	2
29	30	4
77	77	4
4	114	3
102	104	4
123	123	10
71	71	3
72	72	3
114	115	8
6	6	4
130	130	5
128	128	5
75	110	3
4	4	8
68	68	1
32	33	2
22	28	2
8	8	4
109	110	3
7	7	11
131	131	1
125	125	6
3	4	6
105	106	3
9	17	2
75	75	5
71	72	8
24	25	11
101	101	1
104	105	4
102	103	5
2	11	2
140	140	7
76	76	10
22	23	2
76	77	3
91	91	1
86	86	11
129	129	4
89	89	7
128	129	1
77	78	1
115	116	3
106	111	4
100	100	2
81	85	6
23	23	5
81	81	12
5	5	2
87	87	9
0	1	1
16	16	6
76	78	3
106	107	3
112	112	2
105	105	3
14	14	2
17	17	3
121	121	3
84	85	12
127	127	9
92	93	2
22	22	3
25	25	5
20	21	3
118	119	1
12	12	1
116	116	5
126	126	4
126	127	1
26	27	8
102	102	7
79	94	7
38	38	3
94	95	3
111	112	1
120	121	4
19	19	3
8	18	2
108	108	5
36	37	5
0	0	3
134	134	1
95	99	1
74	75	1
13	14	5
106	121	4
103	103	2
30	31	1
101	102	7
10	11	5
79	79	8
113	114	2
111	111	6
94	94	3
93	94	3
104	106	1
11	117	2
82	82	6
129	130	4
22	26	1
110	110	4
115	115	11
83	83	9
104	104	4
104	107	2
33	38	3
119	119	4
35	35	3
88	88	8
100	101	1
6	7	1
74	74	3
26	26	1
101	109	1
117	117	5
9	9	9
102	108	3
4	6	1
21	21	6
15	16	1
79	102	2
13	38	4
99	101	2
1	3	1
121	122	3
75	84	2
93	93	4
135	135	4
29	31	1
103	104	1
99	99	4
98	98	2
24	27	1
135	136	3
139	139	2
108	109	1
7	8	1
132	132	2
95	95	5
37	37	4
124	124	1
82	85	1
27	31	1
3	31	1
18	18	2
78	78	2
31	31	1
34	34	5
80	80	3
23	28	1
118	118	2
78	112	3
74	109	1
114	114	8
137	137	3
19	21	3
27	28	2
85	93	1
90	90	1
100	102	1
8	9	2
118	122	3
30	30	2
8	39	1
113	113	1
93	100	1
105	113	2
83	84	4
4	5	1
14	122	1
1	116	2
116	133	2
27	29	1
95	100	2
36	36	1
1	1	1
123	124	3
33	34	2
97	97	2
88	89	1
109	109	4
127	128	1
133	133	3
18	20	1
44	44	1
14	16	1
13	124	2
120	120	1
2	4	1
79	80	1
10	10	1
85	85	1
6	8	1
