0	5	4
97	97	14
64	65	3
8	8	5
135	137	6
152	153	3
63	63	5
12	67	5
59	60	2
53	53	8
176	176	14
144	144	3
129	129	6
26	27	3
33	33	10
41	42	2
23	29	2
62	82	4
111	111	10
73	75	2
139	139	5
65	67	3
91	94	4
142	144	1
67	68	1
131	131	9
170	171	2
67	67	9
143	143	6
158	160	3
140	140	13
56	77	3
102	102	7
23	25	4
32	33	2
167	172	7
54	54	13
112	112	13
159	170	3
53	58	2
160	160	9
22	23	6
31	31	13
61	61	3
133	133	6
145	146	6
31	32	2
99	99	6
22	22	9
12	13	2
71	147	2
50	50	5
73	73	6
24	25	2
73	76	2
17	18	1
88	88	5
165	165	8
59	136	5
105	113	1
170	170	15
109	109	10
173	173	10
165	166	5
92	92	3
130	131	6
11	11	6
10	10	4
82	82	7
61	75	2
121	121	7
79	79	12
66	66	1
91	91	10
50	115	1
140	142	3
55	55	4
107	107	2
44	118	2
132	132	7
70	72	2
178	178	17
163	163	12
134	134	4
16	18	2
141	141	10
111	152	1
103	106	2
124	129	1
27	28	3
16	16	4
9	136	4
152	152	3
26	26	4
8	11	1
113	113	12
9	9	3
80	81	4
117	117	9
138	139	3
4	5	9
15	15	2
162	162	5
93	93	9
62	64	3
36	40	2
83	83	13
18	18	6
65	65	2
153	153	3
38	38	5
33	62	1
106	106	5
118	118	8
169	169	7
168	169	3
90	93	1
172	173	5
104	104	7
35	35	5
2	2	9
75	75	8
42	44	2
87	87	2
72	144	2
146	146	7
56	56	5
18	21	3
83	106	2
50	113	1
41	41	12
57	60	3
71	71	5
164	166	1
142	142	12
87	161	5
110	114	1
37	37	5
43	43	5
58	58	4
150	151	3
168	172	2
159	160	10
103	105	3
30	30	6
51	51	4
157	159	1
137	137	11
51	122	1
76	76	8
70	70	3
117	119	2
36	36	8
19	19	3
126	126	10
144	158	3
105	112	5
149	149	16
105	105	6
120	120	5
166	166	7
74	74	9
143	158	1
9	11	1
89	89	13
77	77	5
30	31	10
9	10	2
135	135	6
60	61	5
120	127	2
178	179	2
45	45	3
168	168	5
14	14	11
71	72	1
54	56	3
90	90	3
60	60	6
98	100	5
117	118	6
57	144	1
122	123	8
85	104	2
147	147	3
50	114	3
154	161	1
1	1	1
34	34	4
179	179	7
18	19	3
62	155	2
31	33	2
79	151	3
138	156	1
127	127	2
112	113	1
81	81	2
143	150	1
150	150	8
164	164	8
96	96	5
72	72	4
163	167	4
120	121	2
14	15	4
84	85	3
94	94	4
150	161	3
136	136	4
175	175	2
5	5	6
17	17	7
77	78	2
145	145	1
1	2	4
177	178	5
88	96	1
114	114	5
152	160	4
83	126	2
134	135	2
172	172	6
53	54	3
40	40	5
118	135	3
10	134	5
84	157	2
17	101	2
158	158	5
39	40	1
159	171	5
27	27	9
160	161	3
57	66	3
44	44	9
90	92	4
177	177	4
132	133	8
7	7	3
5	12	1
73	74	1
180	180	7
167	167	3
22	30	2
161	162	2
105	106	2
86	87	7
57	57	3
73	86	1
80	80	5
156	156	4
6	7	6
94	95	1
110	111	3
2	3	3
14	24	1
172	175	2
99	100	2
157	157	2
63	75	3
78	151	1
148	159	2
6	6	8
155	156	2
141	142	2
108	108	4
121	122	1
74	79	1
95	95	1
28	28	6
142	153	1
32	32	1
169	170	1
27	37	2
38	39	3
159	159	3
163	164	3
34	81	1
91	108	2
74	75	1
13	13	2
142	148	3
50	122	1
79	121	3
123	124	1
29	29	8
159	161	1
143	146	1
4	6	4
72	80	2
10	11	4
119	119	2
128	128	4
142	143	3
37	38	2
52	52	4
174	174	5
66	79	2
116	116	1
62	63	4
115	125	1
150	152	1
168	176	2
130	130	2
134	138	3
11	12	4
51	60	2
152	154	3
147	150	2
14	66	1
143	157	2
115	115	3
54	115	3
107	108	2
56	67	1
4	4	3
127	129	1
8	10	1
136	180	1
133	136	1
31	65	1
137	180	2
96	97	3
28	38	1
78	147	1
62	62	2
35	54	1
93	95	2
173	175	2
174	175	2
77	80	1
31	68	1
32	34	2
151	153	2
98	101	1
124	124	3
155	155	4
98	98	3
154	154	1
22	26	1
148	148	5
76	80	1
12	12	1
23	23	3
115	124	1
20	20	2
43	44	3
148	150	2
10	33	1
55	138	1
101	101	5
66	68	1
156	157	1
42	42	2
119	127	2
7	10	1
72	141	2
86	86	6
15	16	2
3	9	1
121	127	1
138	138	6
87	159	2
115	118	1
105	107	1
39	39	1
59	59	6
169	171	1
110	110	2
97	98	2
42	43	1
135	136	2
122	122	6
131	132	3
34	71	1
118	121	3
106	107	2
29	30	1
25	25	1
123	123	4
173	174	1
78	78	1
85	157	1
154	176	1
113	114	1
52	115	2
125	152	1
61	62	1
54	119	2
45	118	2
25	33	2
25	26	2
167	171	1
78	79	1
61	155	1
121	130	1
148	149	2
161	172	1
35	40	1
159	162	1
161	163	2
154	155	1
56	58	1
3	4	1
86	158	1
35	46	1
170	172	1
127	128	3
85	85	3
52	53	2
92	154	1
33	65	1
5	6	3
88	93	1
74	107	1
88	89	1
17	102	2
138	142	3
11	13	3
74	138	1
129	132	1
100	100	1
21	21	2
64	64	1
72	140	1
21	64	1
98	110	3
3	3	2
146	147	1
150	159	1
73	102	1
83	84	1
23	30	1
22	29	1
84	84	1
92	153	2
57	154	1
56	57	1
55	79	1
157	172	1
153	154	1
29	41	1
91	95	1
72	87	1
45	46	1
27	45	1
11	67	1
100	149	1
65	66	1
116	117	1
137	138	1
126	155	1
78	124	1
37	71	1
10	14	1
49	117	1
50	60	1
