132	132	20
98	104	2
5	8	5
147	147	17
22	22	16
57	57	5
4	4	10
24	24	8
97	97	11
141	141	13
106	106	5
7	7	8
36	49	5
113	113	27
84	84	8
40	40	7
73	73	15
80	80	15
49	49	9
48	48	16
122	122	15
154	154	12
65	67	4
46	46	12
14	14	17
70	70	6
30	30	14
6	12	3
131	132	5
3	3	2
87	87	7
48	50	5
76	76	12
20	20	14
89	89	2
12	12	12
85	96	1
86	87	2
150	151	4
106	108	4
142	142	9
125	125	10
36	37	10
98	98	9
34	35	2
137	137	11
94	94	14
124	124	6
18	18	11
117	123	3
9	24	2
87	88	2
64	68	4
26	26	4
81	81	11
17	17	21
133	133	11
96	97	3
144	144	3
116	116	13
109	109	12
64	106	2
115	115	1
129	129	2
19	20	5
39	39	14
79	79	6
95	96	5
100	100	4
101	128	1
53	53	5
149	150	6
138	141	7
19	19	16
136	136	13
100	105	2
102	102	15
126	126	7
63	63	12
45	45	12
36	36	6
64	64	5
44	44	7
94	131	1
112	112	14
85	86	4
9	11	1
110	133	1
81	82	1
38	38	5
30	31	6
74	74	8
128	128	15
45	51	2
47	47	5
67	68	4
7	8	2
119	119	8
143	143	6
125	126	9
34	34	4
28	29	5
144	145	10
121	121	17
62	71	2
95	98	2
83	84	3
88	92	3
138	138	10
152	153	6
77	78	7
110	110	8
4	5	4
13	13	14
151	154	3
143	145	4
117	117	6
115	116	8
69	70	7
24	28	5
88	88	7
136	137	9
27	56	3
151	151	2
108	108	19
144	147	2
89	90	2
144	148	2
42	42	14
86	124	1
27	27	5
110	132	1
107	108	3
110	112	1
93	94	6
141	142	7
43	45	3
128	149	9
11	11	9
78	78	8
120	120	12
66	82	3
152	152	5
104	104	4
54	57	2
62	63	2
77	79	5
29	29	17
68	68	9
16	22	2
17	22	2
47	50	2
46	132	3
128	129	4
70	71	5
99	100	3
21	21	10
95	109	1
107	107	4
74	76	2
33	33	6
132	133	3
45	46	3
4	6	7
123	123	12
115	123	4
41	41	8
92	92	7
69	69	7
108	113	1
79	81	3
15	16	1
31	31	5
65	68	1
38	40	1
148	148	5
38	39	8
7	11	1
50	50	6
135	135	4
32	33	5
6	6	3
82	82	7
150	150	11
86	86	7
131	138	1
8	8	7
5	5	8
58	58	4
153	153	7
65	65	3
10	11	9
37	57	4
35	35	10
94	95	5
2	7	2
17	18	5
95	95	13
3	7	1
6	11	1
140	141	4
92	115	1
63	81	1
94	98	7
2	3	2
114	114	7
50	53	1
38	55	3
57	63	1
74	77	7
127	130	5
131	131	3
112	153	1
56	56	2
55	56	2
46	54	3
110	111	3
112	113	2
42	43	2
26	27	3
18	19	1
16	17	8
145	147	7
66	67	2
38	54	2
16	16	9
148	154	2
75	75	6
23	24	2
113	114	14
68	69	8
105	105	2
109	123	1
101	102	4
99	99	11
118	118	5
55	69	2
128	130	3
101	119	3
86	94	1
45	109	3
31	32	3
121	122	5
101	120	2
55	57	3
103	104	1
130	145	3
13	15	4
83	83	8
130	130	8
38	42	3
10	27	6
85	85	8
145	148	2
25	25	2
42	46	1
65	66	3
86	93	1
23	23	10
71	71	2
39	41	1
22	23	2
26	53	1
86	99	1
103	105	3
131	144	1
20	21	1
137	138	2
51	51	1
19	22	1
118	119	1
66	66	6
90	90	8
72	72	7
67	67	5
94	102	2
45	49	2
77	77	4
99	101	1
66	83	2
18	23	1
6	7	5
126	127	3
65	74	2
43	44	2
56	62	1
149	152	4
3	4	4
130	131	5
11	12	1
136	138	2
97	98	1
101	123	1
43	43	3
113	153	2
54	54	6
131	141	1
124	125	5
64	99	2
37	51	2
21	22	7
36	56	1
131	139	4
58	63	2
129	130	2
125	127	1
103	103	2
134	134	5
146	146	7
129	149	3
153	154	4
96	96	7
102	103	3
73	74	3
13	14	3
56	61	1
27	38	2
140	146	3
10	10	6
110	130	1
15	15	5
127	151	1
127	127	4
142	143	1
120	128	3
50	57	2
32	35	2
39	42	1
130	146	1
9	9	3
27	29	3
93	93	6
134	135	2
34	47	3
109	111	3
2	2	2
63	82	2
97	110	1
37	37	7
84	85	3
67	103	2
78	79	1
44	111	2
116	151	1
43	46	3
4	34	1
129	146	1
32	36	2
133	135	1
16	18	4
9	10	1
28	28	2
4	7	2
47	48	1
62	62	4
32	32	3
64	65	2
119	129	1
6	30	2
94	96	1
136	139	1
3	9	2
145	146	2
27	54	2
128	148	4
27	42	4
128	150	4
68	74	1
149	149	3
131	145	1
107	109	1
119	120	1
46	109	1
41	43	1
12	23	1
37	38	2
51	52	1
72	73	2
132	135	2
29	31	1
140	148	1
106	107	1
76	77	1
50	54	1
65	105	1
135	136	2
113	124	1
45	111	1
38	56	1
12	13	5
73	78	1
56	57	1
54	55	1
139	139	1
55	55	2
37	49	1
35	58	1
7	15	2
25	26	1
53	54	1
114	123	1
129	150	1
26	51	1
96	99	1
95	119	1
77	82	1
33	35	1
123	124	1
110	147	1
63	74	1
16	21	1
5	7	1
100	103	1
56	69	1
66	85	1
50	51	1
39	40	1
110	118	1
147	148	1
101	101	1
26	37	1
110	131	1
80	82	1
14	15	1
44	133	1
2	88	1
3	45	1
