122	122	4
4	5	3
90	90	3
118	118	7
31	33	2
63	88	1
21	22	3
36	45	1
106	106	5
31	31	3
20	20	1
86	86	4
134	134	6
71	71	4
5	5	4
78	78	4
95	95	5
93	93	11
52	52	2
85	85	1
68	68	6
44	45	4
10	10	8
97	105	1
90	91	3
130	130	8
73	73	6
45	45	3
130	131	2
129	129	5
77	78	2
0	116	2
32	34	1
27	27	12
82	82	3
131	131	4
29	30	5
88	88	4
122	123	3
96	96	5
63	63	7
89	89	4
14	14	5
127	127	8
101	101	8
33	34	9
114	116	1
75	79	4
74	74	2
20	21	2
23	98	3
91	91	4
12	12	2
28	28	10
50	127	1
46	76	1
50	83	2
128	128	6
111	111	2
113	113	5
37	37	1
78	79	4
105	105	3
124	124	6
56	57	1
13	13	3
53	53	2
115	115	10
25	25	5
57	57	3
75	75	10
15	15	5
119	120	4
62	62	4
56	56	4
81	81	4
129	130	1
72	72	4
76	76	5
54	58	1
104	104	7
7	7	3
81	85	1
23	23	6
28	29	5
120	121	2
32	32	3
80	80	2
34	34	6
43	43	1
65	66	4
126	126	9
110	111	2
15	129	1
22	22	3
8	24	1
53	54	2
64	64	5
68	69	1
86	133	3
94	94	7
83	84	5
103	104	1
19	19	2
77	77	8
112	112	3
76	115	1
49	50	2
103	103	5
109	109	4
74	75	2
98	98	5
30	30	4
9	11	2
1	1	3
61	61	3
35	36	3
120	122	2
105	109	2
11	12	3
127	128	2
82	84	2
34	36	1
29	29	5
121	121	3
54	54	1
64	65	1
32	33	1
67	67	4
92	92	3
110	110	1
79	79	4
70	71	3
72	73	1
66	68	3
128	133	1
83	106	2
87	100	1
105	106	1
33	33	3
59	133	2
49	49	1
16	16	8
36	36	3
7	45	1
87	88	1
19	20	1
11	11	1
54	55	2
132	132	3
117	117	1
92	120	1
18	19	1
21	21	1
49	107	5
118	119	1
87	87	5
102	134	1
6	6	1
126	132	1
126	127	1
51	51	1
26	26	1
80	93	2
106	110	1
5	17	1
133	133	1
1	42	1
3	3	2
123	123	1
24	97	1
102	102	3
116	116	2
92	93	1
84	84	2
58	58	2
61	65	2
120	120	2
18	18	1
112	113	1
83	83	2
82	119	1
3	111	2
98	131	3
59	59	1
8	8	1
21	23	1
69	70	3
124	132	1
52	58	1
16	19	1
27	36	1
107	107	1
3	4	1
2	2	1
9	9	1
59	67	1
88	101	1
69	69	2
124	126	1
102	104	1
61	88	1
27	28	1
125	125	1
86	88	1
4	4	1
