76	76	3
60	72	1
0	0	4
78	79	2
7	44	1
3	3	7
27	27	4
6	17	1
79	79	5
74	74	3
113	113	5
45	69	5
83	83	5
121	121	3
118	118	4
116	117	1
56	56	6
49	49	3
7	7	3
35	36	1
73	73	6
35	35	1
31	31	7
6	40	2
5	15	3
46	47	2
101	101	10
107	113	1
77	77	3
59	117	1
25	25	2
129	129	3
120	120	2
34	34	6
119	119	6
15	15	9
69	69	5
45	68	5
109	110	4
124	127	3
66	66	8
88	89	4
63	63	7
103	104	1
72	72	3
70	70	5
126	126	2
60	60	2
57	57	5
24	47	3
33	33	6
65	65	2
2	2	8
16	16	5
64	64	3
29	29	2
82	82	1
94	95	3
96	96	3
36	38	3
32	78	4
8	8	8
129	130	1
98	98	5
111	111	3
94	94	1
30	30	7
61	61	2
81	83	3
21	31	4
125	125	4
107	108	1
22	22	3
72	73	1
67	67	3
8	18	1
47	47	5
117	117	2
97	117	3
132	133	2
46	58	2
81	82	4
128	133	1
17	19	1
74	76	1
20	78	2
39	39	2
9	9	1
9	15	1
121	122	4
59	59	4
62	62	7
38	38	3
83	133	4
117	118	3
107	114	2
37	78	1
114	115	2
42	42	2
27	29	3
116	116	7
26	26	1
45	45	4
81	81	3
62	64	2
23	102	2
99	108	3
114	114	4
46	59	1
87	87	2
108	108	4
34	78	4
83	84	1
123	123	6
4	18	3
68	70	3
47	48	2
44	44	2
24	24	3
108	109	3
128	128	2
2	65	2
56	57	4
14	14	8
65	66	4
23	24	3
63	84	1
48	90	1
85	85	2
12	12	1
110	110	2
26	27	1
85	92	2
43	44	1
13	13	5
3	4	2
133	133	1
11	76	2
20	20	2
32	32	1
119	121	1
95	95	3
55	56	4
109	109	2
45	70	1
122	122	4
62	72	1
4	15	3
124	125	5
132	132	1
12	13	2
21	25	2
32	35	1
61	62	2
16	17	2
10	14	1
22	77	1
31	42	2
59	61	1
70	71	1
39	41	1
34	79	1
34	36	1
62	63	2
71	71	2
23	23	3
100	100	4
99	99	1
112	112	3
122	123	2
124	124	3
84	86	1
11	11	2
127	127	3
24	102	1
93	93	3
24	101	1
6	19	1
43	86	1
36	36	1
1	1	4
47	60	1
11	12	1
82	83	2
107	107	1
113	114	2
17	17	2
55	55	1
18	18	1
37	79	2
124	126	1
58	58	2
34	42	2
11	30	1
97	98	1
48	103	1
34	35	1
92	125	1
46	46	1
95	123	1
10	10	2
69	78	1
15	16	1
134	134	3
73	76	1
37	39	1
69	70	2
75	76	2
86	86	1
48	101	1
80	80	1
39	80	1
82	127	1
75	75	1
78	78	1
127	128	1
9	11	1
63	64	1
7	79	1
120	121	1
36	79	1
70	72	1
