154	154	3
78	191	2
8	60	1
156	156	11
155	155	4
67	70	5
238	239	6
36	36	4
242	242	8
171	173	10
217	217	6
25	27	3
106	106	4
24	28	6
53	53	3
100	100	4
174	174	6
145	145	1
105	107	1
78	78	1
175	176	4
160	210	1
119	119	5
213	219	5
89	90	3
82	82	18
111	112	4
93	118	2
181	181	2
73	73	6
197	198	1
24	24	10
1	1	6
246	248	2
108	108	2
177	210	6
69	69	3
195	198	4
211	211	6
19	19	15
60	61	12
116	116	7
232	232	13
28	28	5
65	65	4
186	186	5
103	103	4
101	108	3
233	233	3
194	194	3
29	30	6
213	213	13
199	199	2
203	203	7
31	31	11
102	119	2
193	194	4
3	50	3
45	46	2
72	72	5
86	90	3
157	157	3
228	228	4
180	182	7
176	176	10
151	151	2
93	93	5
22	22	6
68	68	5
71	71	6
183	183	4
104	105	3
62	62	7
246	247	3
17	17	3
216	218	4
56	56	3
158	164	3
178	178	15
95	95	8
160	185	1
46	46	9
244	244	1
10	10	9
90	90	8
230	230	6
185	185	3
224	224	13
4	4	2
32	32	5
162	162	8
219	219	4
168	168	8
221	221	6
222	222	7
205	205	5
164	164	8
13	13	2
184	184	8
146	146	6
67	67	4
73	86	1
10	11	2
214	215	5
193	246	5
8	8	8
243	243	1
153	153	7
198	199	9
26	26	8
11	54	3
248	248	3
226	226	6
67	68	1
76	76	5
109	109	3
237	237	8
9	9	9
241	241	2
45	45	7
187	187	7
87	90	3
78	84	4
61	61	4
216	217	1
87	87	7
33	33	8
163	163	7
40	41	3
152	153	3
28	29	3
196	196	3
157	158	4
165	165	9
107	107	6
205	207	4
84	84	2
195	224	1
97	101	4
182	182	4
240	240	6
88	88	4
186	215	1
16	16	4
41	42	5
208	209	5
77	84	3
235	235	5
4	5	4
81	81	3
31	85	2
55	55	11
2	2	3
3	3	4
196	223	3
6	55	6
190	192	6
183	184	2
85	85	11
172	173	5
12	12	3
150	150	7
34	37	3
91	91	3
120	120	7
11	51	8
208	208	2
177	177	3
112	112	6
30	86	3
161	161	3
110	111	3
212	212	2
236	236	6
36	37	5
72	74	1
153	165	4
154	155	1
217	219	2
189	210	3
67	69	2
196	222	1
118	118	2
96	96	5
230	231	1
33	36	1
168	169	1
51	51	7
154	157	2
38	38	10
32	43	1
43	43	3
204	204	3
6	6	9
220	220	8
3	11	6
52	53	1
102	118	3
214	217	5
108	149	1
68	86	6
206	206	4
104	104	4
197	197	6
195	248	3
167	167	5
49	50	3
166	231	3
179	179	8
29	29	7
25	33	2
147	170	2
66	66	3
3	47	2
201	201	3
113	113	4
27	27	4
40	40	5
166	167	1
21	21	11
78	79	2
192	247	3
209	209	3
216	216	8
21	22	3
118	119	1
42	42	1
15	15	6
3	67	2
208	232	2
51	100	2
18	20	13
77	78	1
52	54	1
159	159	5
71	72	1
246	246	4
49	49	6
218	218	2
215	215	3
60	65	1
205	206	1
98	98	2
11	11	4
60	60	2
4	57	2
170	171	3
120	144	1
69	70	2
170	170	5
191	209	2
101	101	5
32	44	3
25	41	3
234	240	1
110	110	4
231	242	1
4	77	2
5	5	8
214	214	4
238	240	1
102	102	7
186	213	4
71	144	2
108	144	4
173	173	4
14	15	2
52	52	4
77	77	3
105	106	2
76	90	2
202	202	6
179	180	1
191	247	2
62	63	3
41	83	4
26	27	2
23	23	3
42	43	2
50	50	4
244	245	2
223	223	1
211	212	2
158	158	2
58	58	3
208	242	1
180	180	2
100	101	1
210	211	4
64	64	4
163	167	4
222	223	3
63	63	6
235	241	2
47	47	6
194	220	2
25	25	4
77	79	3
81	82	3
200	201	5
113	114	2
18	18	4
225	226	2
34	34	1
35	35	4
169	169	3
243	244	1
231	231	1
178	179	1
47	68	7
54	54	1
115	115	1
7	7	2
186	187	2
109	110	1
187	188	1
70	70	4
47	56	5
189	190	2
98	99	1
94	94	2
75	75	3
91	92	4
97	107	1
15	46	1
88	90	1
189	191	3
172	172	1
85	86	3
196	198	2
214	220	1
94	95	3
44	44	4
93	94	1
41	41	3
69	72	3
37	37	2
192	192	1
160	176	2
77	81	2
193	193	3
159	160	1
207	208	2
152	152	5
152	165	2
111	111	3
54	62	1
226	227	1
191	191	1
74	91	1
13	14	1
171	171	1
6	47	2
233	234	1
175	175	4
247	247	1
190	191	2
19	22	2
155	240	1
48	48	1
10	55	1
161	180	1
189	189	2
6	7	1
152	164	1
236	243	1
174	175	1
147	147	1
242	244	1
95	96	1
5	7	1
105	105	1
60	101	1
89	89	1
180	181	3
51	53	1
208	231	1
225	246	3
8	9	1
102	103	2
203	204	1
59	59	2
79	79	1
117	117	2
205	212	2
57	61	1
80	80	3
97	97	1
104	106	1
158	160	1
166	230	1
157	165	1
48	68	1
93	117	2
194	224	1
229	229	1
232	233	1
230	242	1
2	3	1
33	37	1
30	31	1
200	200	1
36	38	1
76	79	1
227	227	1
