104	104	6
27	32	1
89	89	11
18	20	2
100	100	13
106	106	9
111	111	13
4	4	2
96	96	4
116	116	11
19	21	2
0	0	11
113	113	11
112	112	6
119	119	21
71	71	3
125	125	11
102	102	7
2	2	9
37	38	5
24	24	15
28	29	4
117	117	12
109	110	2
135	135	7
80	80	11
127	127	4
115	115	18
114	114	11
95	95	6
129	130	6
116	117	4
90	93	5
34	34	6
79	79	9
90	90	8
80	81	2
16	16	14
83	83	5
134	135	2
93	111	1
81	81	8
35	36	7
17	34	1
133	133	5
126	126	12
97	97	4
74	74	10
98	98	4
91	91	6
108	111	6
85	85	7
77	77	4
102	103	8
108	114	2
122	122	15
90	111	4
130	130	7
75	75	5
125	126	4
78	78	18
9	9	10
124	125	2
82	82	5
118	119	2
83	87	3
94	94	5
124	124	20
20	20	6
128	129	5
5	5	10
76	77	2
108	108	10
120	120	5
103	103	3
99	100	6
123	123	6
73	106	1
87	87	11
12	14	3
94	95	4
8	9	5
26	26	5
91	106	1
96	114	2
120	122	3
14	23	1
1	1	3
75	77	1
90	92	1
110	111	3
81	84	2
131	131	6
11	12	1
33	33	3
88	88	3
27	27	8
31	31	2
73	74	3
101	108	1
132	132	6
95	96	2
92	92	8
13	14	5
10	10	1
19	19	5
25	26	4
129	129	10
88	110	3
80	82	1
15	21	1
31	32	5
107	107	12
21	21	4
96	97	1
136	136	6
7	8	3
3	3	8
113	114	1
18	19	1
134	134	8
77	78	3
17	17	8
103	108	1
76	76	3
135	136	2
111	112	4
73	73	10
11	11	5
86	109	6
15	15	4
13	13	4
128	128	6
101	101	6
29	29	3
94	111	1
3	6	2
104	106	2
73	86	1
109	109	3
1	2	1
120	121	2
22	22	5
81	105	7
26	31	1
83	105	1
3	4	1
10	11	1
131	132	2
23	24	2
32	32	4
30	31	2
37	37	2
112	122	5
15	16	3
89	91	2
17	19	1
83	85	1
33	34	1
88	106	1
7	9	3
124	126	2
85	87	1
24	25	2
99	99	2
7	7	1
35	35	5
72	72	2
5	79	1
4	5	2
86	108	1
86	86	2
93	94	1
118	118	4
88	111	3
133	134	2
126	127	3
91	93	2
16	17	1
139	140	1
17	18	1
114	115	4
98	99	4
8	8	7
97	98	6
86	88	1
93	93	1
6	6	3
26	27	3
20	21	1
81	82	3
78	79	1
84	84	2
110	110	2
12	12	2
138	138	1
14	14	1
81	104	1
38	38	2
123	124	1
95	97	1
12	32	1
77	79	1
12	27	2
93	95	1
123	131	2
100	107	1
127	128	1
74	75	2
75	102	2
76	84	2
94	116	1
101	102	1
94	110	1
117	118	1
128	136	1
24	26	2
108	110	1
86	87	2
140	140	1
90	91	2
24	27	1
97	99	1
115	116	2
82	85	1
36	36	1
34	35	1
71	72	1
107	108	1
18	18	3
89	90	1
141	141	1
25	25	1
102	104	1
105	105	1
29	30	1
98	131	1
85	86	1
127	129	1
