142	143	4
68	90	2
146	146	9
179	179	17
136	136	6
1	1	13
60	60	15
46	133	1
96	97	5
122	122	11
38	38	11
179	180	9
81	81	11
136	137	3
98	98	8
118	118	10
193	193	22
155	156	1
72	72	11
124	187	7
18	19	1
126	127	3
51	51	9
87	87	9
135	135	7
100	101	3
196	197	2
194	194	14
169	170	5
83	83	1
171	171	14
105	105	7
108	128	1
52	56	1
156	156	3
0	0	4
161	161	7
4	90	1
123	124	1
100	109	3
190	190	12
52	52	20
86	86	12
180	180	5
185	185	12
151	151	10
141	196	4
178	180	1
28	28	4
16	16	13
122	183	5
7	39	2
153	153	17
77	77	9
193	194	4
56	56	9
80	80	7
121	121	11
141	141	10
24	97	3
120	120	10
173	182	1
14	15	2
168	169	5
162	162	4
145	148	1
158	158	11
61	61	5
59	162	4
15	15	2
4	4	7
167	167	4
133	133	5
2	36	2
90	90	1
3	38	4
7	24	6
127	128	2
41	41	5
109	110	4
67	68	4
181	181	17
53	53	13
170	170	8
138	138	2
164	166	2
155	155	12
54	54	9
62	62	18
187	188	8
159	159	11
176	177	6
107	107	12
74	74	6
22	22	5
183	183	5
106	106	7
73	89	2
73	73	5
55	57	4
116	171	2
126	126	13
7	7	5
107	108	9
51	53	1
43	43	14
114	114	10
150	156	1
134	137	6
108	156	4
18	18	12
131	131	6
139	139	18
60	61	2
113	163	2
103	106	6
29	87	3
161	164	1
129	129	6
111	170	2
188	188	7
100	100	8
88	100	1
79	80	2
3	45	2
5	6	4
46	46	12
110	111	6
128	130	1
65	84	1
33	33	13
63	63	6
111	112	11
186	186	5
40	40	11
119	120	2
87	128	3
101	170	1
24	24	10
10	10	11
117	118	4
112	114	4
38	39	4
146	147	4
29	30	9
61	62	1
142	142	11
37	37	25
173	173	10
23	24	4
85	86	3
173	174	6
29	29	9
34	34	2
42	42	6
150	151	3
55	55	10
35	166	3
112	115	4
47	48	2
37	168	2
34	35	7
56	57	4
17	18	10
64	64	17
77	79	4
95	95	3
168	168	9
191	191	7
187	187	11
27	27	9
185	186	3
157	157	9
178	178	6
76	124	2
59	59	11
152	152	5
9	9	9
144	144	3
197	197	7
84	84	12
105	106	5
68	68	3
74	75	8
51	57	4
2	3	3
80	82	4
12	12	6
53	54	2
36	36	13
66	67	4
63	83	4
182	182	10
134	134	5
58	87	2
108	127	1
149	150	10
0	43	1
195	195	7
97	98	8
4	89	3
111	111	8
67	67	5
118	173	3
78	78	4
8	93	1
106	108	6
114	150	4
184	184	10
162	178	3
96	96	5
82	83	1
23	25	3
144	145	3
123	123	6
39	39	8
70	70	3
163	163	7
49	49	6
150	150	3
71	71	6
118	119	7
49	54	1
119	119	4
104	104	3
159	160	4
154	155	7
180	181	5
78	79	1
115	115	5
192	192	3
113	115	3
20	20	9
143	144	6
37	169	3
149	149	4
18	23	2
175	175	4
75	75	4
13	14	4
137	137	4
73	74	5
8	9	3
80	81	7
8	95	1
113	114	3
170	183	5
122	126	3
138	139	1
45	45	3
2	2	5
17	17	4
100	133	2
109	109	6
169	184	2
65	65	4
116	118	2
76	77	4
76	76	6
39	40	3
32	32	6
124	126	3
110	156	1
101	101	9
94	94	10
30	69	2
21	25	2
115	173	1
173	178	2
104	105	1
66	75	1
50	50	3
57	61	3
113	119	3
31	31	7
192	194	1
97	97	10
124	125	2
156	157	3
112	148	2
95	96	5
164	164	3
13	48	1
25	26	3
195	196	4
128	128	5
85	85	5
192	193	2
14	27	4
42	43	2
33	34	1
13	13	10
77	78	4
157	158	2
19	20	3
48	48	8
7	96	2
117	117	4
99	100	2
104	106	2
94	95	7
138	140	3
63	86	5
165	165	9
4	44	5
134	135	5
35	35	2
102	102	6
44	44	10
70	71	5
37	38	1
154	154	3
140	142	1
20	21	2
160	160	6
88	88	3
8	8	3
169	169	7
28	30	1
76	88	4
182	183	1
115	171	1
104	146	8
30	30	5
70	72	1
103	104	2
114	169	1
187	190	2
16	17	3
5	8	1
148	148	2
172	172	7
114	115	2
170	181	1
141	142	1
110	110	6
41	133	3
79	86	2
184	185	1
116	116	12
149	156	1
36	157	2
12	14	1
130	131	4
69	69	5
125	126	2
0	39	2
186	188	3
129	130	3
151	169	1
121	122	1
22	23	2
8	99	4
136	145	1
50	51	3
99	99	10
64	65	2
59	61	1
40	111	2
60	78	1
78	86	2
135	137	2
59	60	2
130	130	4
35	101	1
108	108	4
23	79	1
172	173	1
34	36	1
140	140	2
47	47	4
58	58	3
106	107	1
37	108	3
17	32	5
108	168	2
174	174	4
14	14	1
67	69	1
196	196	5
49	50	1
132	132	1
115	120	1
122	174	3
57	57	5
62	75	1
127	127	9
107	124	1
34	37	3
33	141	1
34	168	1
0	1	4
112	118	1
32	57	2
68	86	1
39	132	1
83	100	1
34	160	1
175	176	2
118	186	3
85	87	2
72	82	2
5	5	2
23	23	3
81	82	1
174	176	2
18	27	2
87	88	4
152	179	1
6	6	3
135	138	1
29	89	1
11	11	3
61	79	1
55	56	3
24	62	1
31	69	1
107	125	2
181	182	1
113	113	6
160	161	1
122	123	5
61	76	1
36	37	1
4	59	1
111	113	2
86	87	2
194	195	2
41	54	2
143	143	3
177	177	6
10	56	2
66	66	3
115	116	2
190	195	1
26	26	1
40	133	1
89	89	5
176	176	2
124	188	1
116	117	3
87	162	1
177	178	1
103	103	1
43	46	1
136	138	1
32	161	1
135	136	1
19	19	2
48	49	1
52	53	2
158	160	1
173	175	1
102	103	1
116	119	1
84	85	2
4	38	1
125	125	2
38	44	2
133	137	2
31	62	2
139	146	2
114	172	1
28	29	1
169	183	1
54	140	1
31	85	1
72	83	2
147	147	1
79	79	2
175	178	1
32	58	1
22	26	2
58	59	1
65	66	2
178	179	1
41	43	2
99	127	1
128	129	1
39	41	1
8	66	1
149	195	1
58	162	1
151	152	1
40	51	3
80	86	1
115	117	1
106	171	1
132	135	1
12	13	1
60	74	1
124	124	1
54	133	1
148	149	1
101	167	1
93	94	1
170	171	1
189	189	1
72	79	1
134	138	1
135	148	1
23	27	1
73	127	1
64	86	1
46	132	1
123	127	1
