153	154	6
95	95	7
87	93	1
198	199	2
3	4	2
223	233	3
26	41	1
25	31	1
82	82	2
113	113	4
221	221	4
219	219	1
239	242	11
10	11	3
31	31	3
206	228	4
109	109	5
97	117	1
92	92	8
82	95	1
238	245	4
174	201	1
238	239	5
26	31	2
171	180	3
22	23	3
54	54	1
19	19	3
10	10	9
105	117	1
241	241	1
85	90	2
86	86	5
187	188	2
88	88	7
145	160	3
110	112	3
194	194	2
234	234	3
201	202	2
40	40	10
15	15	3
239	239	6
117	119	1
221	222	2
158	182	1
68	76	1
144	209	1
160	160	6
228	228	4
223	231	2
167	212	2
177	178	3
34	35	2
107	108	2
77	168	6
42	49	2
46	47	3
230	230	4
52	205	3
57	57	6
38	38	4
181	181	5
37	37	5
71	71	5
170	170	8
90	90	5
45	47	8
245	247	5
62	62	9
78	78	12
205	205	10
60	64	2
63	64	2
240	240	1
227	234	4
74	74	2
191	191	7
239	240	5
16	25	2
162	163	6
232	234	6
162	162	6
72	72	9
36	38	2
100	100	5
207	207	15
161	163	2
24	25	9
58	60	1
111	112	5
193	193	4
173	174	3
52	52	2
106	108	2
77	171	1
189	193	2
110	114	2
95	107	2
154	154	7
174	174	3
156	157	1
231	235	1
61	61	4
51	61	1
221	224	2
199	200	4
117	117	4
231	233	4
24	26	1
116	116	6
145	145	5
16	30	2
178	205	1
168	168	2
81	83	2
51	64	2
230	234	2
66	99	1
107	113	1
73	73	7
91	91	3
177	185	1
244	244	4
25	37	4
161	162	1
180	180	5
201	224	4
6	7	5
116	117	5
60	60	4
153	153	2
232	242	2
175	176	2
166	166	2
30	31	4
157	157	7
9	19	1
42	42	1
224	224	3
32	70	5
225	236	2
177	177	6
157	167	5
222	229	1
177	181	2
185	185	3
221	223	5
118	120	3
167	192	2
64	64	7
6	6	3
32	40	1
209	211	5
99	104	5
36	48	1
35	48	3
173	175	4
118	118	2
213	223	2
247	247	3
220	220	12
222	224	1
53	56	1
222	248	1
69	69	1
168	181	2
225	225	3
102	102	4
192	192	3
21	22	4
157	176	3
100	107	1
155	155	9
53	53	2
34	34	4
229	229	5
226	226	6
165	168	2
106	106	4
20	20	1
10	12	1
44	45	4
182	183	1
71	73	4
224	226	2
199	199	1
21	21	5
1	1	5
178	192	2
83	83	2
202	202	4
8	9	3
150	150	4
219	220	5
199	201	4
227	227	4
101	101	5
54	57	2
167	167	5
215	219	2
119	177	4
89	89	3
169	177	1
246	249	2
35	35	2
23	29	4
160	172	3
151	155	2
159	171	2
26	26	7
235	238	1
146	146	6
9	12	2
105	106	6
227	237	1
42	51	1
204	204	4
74	84	2
29	29	8
5	17	2
169	169	3
33	38	1
70	70	3
197	200	5
112	114	3
84	84	3
218	218	2
169	180	1
178	179	3
236	240	3
75	75	1
171	171	1
239	247	2
96	97	4
214	214	3
184	184	3
96	107	1
56	58	2
76	79	1
67	73	1
75	81	1
80	118	3
32	32	1
46	46	7
110	110	7
197	197	2
231	231	1
84	85	8
153	158	2
240	244	4
205	231	1
231	240	1
170	171	2
67	75	1
232	232	5
21	27	4
100	104	2
24	27	6
81	99	3
25	25	2
236	236	2
48	48	3
228	236	7
45	45	3
68	69	1
51	52	3
49	49	5
221	232	1
191	211	1
192	207	2
239	248	2
96	96	1
57	58	5
76	168	2
173	173	3
208	208	1
180	184	1
215	215	4
11	11	6
215	217	2
161	161	3
89	94	2
76	171	1
41	51	3
51	51	5
63	63	7
115	115	2
187	194	1
114	114	3
32	41	2
187	198	4
93	114	3
25	42	1
15	16	3
27	27	3
11	12	2
236	243	1
202	203	1
33	33	4
9	10	1
105	107	3
185	189	2
182	182	2
183	188	1
191	194	1
246	246	5
86	95	3
23	23	8
179	179	5
43	46	3
32	42	2
43	44	1
117	118	3
120	120	3
212	212	1
70	71	2
174	176	3
212	221	2
41	42	1
36	37	2
202	207	1
213	213	6
186	186	4
74	77	1
77	77	2
243	244	2
14	25	1
30	30	3
7	17	2
12	12	3
77	79	1
14	20	3
50	62	2
214	223	2
183	186	2
158	158	3
181	182	1
225	229	3
222	223	2
112	112	4
180	181	3
5	8	1
201	220	1
241	245	1
4	6	3
94	109	1
23	28	1
169	170	4
5	5	3
243	243	1
42	52	2
107	109	1
71	116	4
223	223	2
236	244	1
56	57	3
99	101	3
51	68	1
245	246	1
181	188	2
8	8	3
197	198	1
55	68	2
166	168	2
94	94	3
156	156	4
227	233	2
95	110	1
62	65	2
52	61	1
201	204	1
243	245	1
151	160	3
157	160	1
220	229	1
58	58	3
39	48	2
229	230	4
152	153	1
73	77	1
214	217	2
194	198	1
215	229	3
158	162	1
178	178	1
154	163	3
196	201	3
191	195	1
192	203	1
28	28	2
155	156	1
109	113	2
77	78	1
12	14	1
243	248	1
92	93	1
233	233	4
158	159	1
67	68	2
244	245	1
40	51	1
1	4	1
73	74	1
84	112	1
111	117	1
220	221	1
78	79	2
19	64	1
204	205	1
81	98	3
52	53	2
172	176	1
158	225	1
193	195	2
212	216	1
50	50	1
95	112	2
158	164	2
172	172	1
226	231	4
239	246	1
88	89	2
206	211	1
59	63	2
167	174	1
7	7	1
218	219	1
211	217	1
62	69	1
22	22	1
106	107	3
166	169	2
115	121	1
45	48	2
203	213	2
11	14	1
85	85	3
86	89	2
25	26	1
212	227	1
234	235	1
65	66	1
172	189	1
166	175	2
76	181	1
92	101	2
65	65	3
195	195	1
239	241	1
4	4	1
213	214	3
43	43	3
8	16	1
49	59	2
20	21	1
33	35	1
184	204	1
17	17	1
190	197	1
42	43	3
242	242	2
66	66	2
206	210	1
104	105	1
217	217	1
238	238	1
241	246	1
75	76	1
201	229	2
97	97	1
74	81	1
211	221	1
183	183	3
193	194	2
203	203	2
167	171	1
60	68	1
210	216	1
226	232	1
20	22	1
234	244	2
16	16	3
200	226	1
245	245	1
207	216	1
98	116	1
154	162	2
78	179	2
172	183	1
38	39	1
172	173	2
167	168	2
196	196	1
9	11	1
149	149	1
237	241	1
202	209	1
201	201	1
36	40	2
201	209	1
200	201	1
18	19	1
69	75	2
186	197	2
87	87	1
216	217	1
67	67	1
232	233	2
210	219	2
216	216	1
89	90	2
82	99	1
12	40	1
213	224	1
186	189	2
98	107	1
60	65	2
71	77	1
219	221	1
102	103	1
33	60	1
220	233	1
192	202	1
187	187	1
68	68	1
219	226	2
2	2	1
164	164	2
86	88	1
204	217	1
162	174	1
100	101	1
150	153	1
160	161	1
195	196	2
118	182	1
40	61	1
114	115	1
26	32	1
144	158	1
163	163	1
58	72	1
9	9	1
108	108	2
159	174	1
96	110	1
36	60	1
45	46	1
157	224	1
80	80	1
203	204	1
5	62	1
72	82	1
100	114	2
110	111	1
12	61	1
161	164	1
