152	152	1
113	126	1
80	81	3
108	108	4
42	44	3
41	47	1
8	24	8
49	49	8
91	91	2
123	133	2
110	142	2
51	51	3
137	141	5
20	20	5
105	106	6
125	125	2
78	79	3
112	116	5
44	44	2
135	135	4
126	127	3
144	150	8
32	46	3
118	118	2
134	134	5
146	149	2
112	115	2
22	36	2
110	110	3
146	147	7
111	121	1
104	110	3
101	102	1
138	139	1
22	23	2
76	83	3
65	66	4
34	46	1
125	129	1
78	86	1
68	77	6
31	33	4
90	101	3
46	47	2
77	77	3
3	8	4
130	138	3
5	9	2
62	63	1
34	36	3
121	124	4
39	42	3
26	28	3
14	14	1
119	121	5
54	57	8
66	76	2
118	119	4
129	129	4
14	18	1
100	100	1
29	39	1
130	134	3
10	10	1
126	126	3
81	97	1
120	120	3
21	35	3
25	29	8
122	135	2
131	133	3
115	117	3
80	80	1
79	79	3
145	145	7
25	25	5
83	102	2
141	141	8
143	144	3
115	127	2
112	112	2
43	50	1
153	154	6
15	24	1
154	154	2
77	84	2
73	74	1
17	19	2
20	24	1
37	75	3
128	131	3
74	98	2
16	16	2
29	29	5
139	141	7
13	13	5
97	99	2
134	136	1
28	29	2
106	106	2
18	18	5
61	71	2
106	112	2
66	67	4
65	68	2
125	136	1
96	110	2
25	26	1
119	119	2
49	50	4
136	148	2
133	134	1
106	119	2
21	34	2
106	117	1
48	56	1
122	122	2
123	129	2
7	7	4
113	113	1
33	36	2
114	114	4
113	122	2
25	27	8
110	113	4
62	62	2
37	44	2
125	138	3
32	32	3
23	28	2
113	115	1
152	154	4
142	143	1
80	82	2
94	98	2
71	78	3
50	56	3
62	66	2
101	101	6
130	139	1
26	33	1
63	64	1
104	122	1
104	111	1
62	64	1
147	153	3
8	22	1
47	48	1
13	25	1
136	136	2
122	124	1
94	100	4
125	128	3
58	58	2
151	151	3
32	38	2
71	73	1
38	39	2
96	109	1
10	20	2
68	68	8
102	102	4
105	107	3
30	30	6
129	134	2
83	85	2
82	95	2
3	6	7
36	39	5
149	149	3
21	33	1
25	28	3
147	147	1
116	120	1
73	73	1
27	30	2
9	9	3
128	132	4
64	68	1
129	130	2
116	127	2
12	22	1
65	76	1
5	17	2
53	53	2
75	76	1
18	19	2
53	56	2
34	35	3
10	25	2
23	33	2
98	98	1
64	64	3
22	33	1
31	43	4
65	65	1
109	111	1
138	138	1
102	104	1
102	114	1
137	148	1
57	57	1
23	31	1
68	87	3
83	83	4
38	40	1
27	41	1
100	102	1
73	75	3
133	147	1
23	34	1
47	47	2
129	131	2
29	43	2
21	24	1
87	87	1
83	84	1
116	119	2
5	5	1
143	151	1
82	87	1
121	138	4
100	103	1
16	17	2
17	18	2
69	71	1
149	152	2
81	81	1
114	129	4
114	126	3
75	75	2
123	137	4
87	96	1
69	72	2
116	118	2
128	142	1
35	40	1
24	38	2
4	8	3
144	144	3
69	69	1
14	15	3
111	116	1
126	138	1
116	136	1
55	56	3
134	147	1
13	27	1
6	14	1
102	122	3
32	36	1
63	69	1
16	27	4
42	57	1
26	40	1
92	95	4
13	21	1
78	78	1
47	55	2
45	53	1
85	90	2
134	135	1
30	31	2
55	55	1
111	112	2
106	120	2
140	141	1
23	23	4
147	150	1
26	34	2
6	20	1
130	132	1
84	86	1
108	113	3
150	151	2
116	117	3
40	43	2
124	125	2
43	43	2
22	22	2
129	132	1
21	26	4
24	27	1
43	47	2
78	81	2
115	118	1
8	12	2
95	107	2
11	16	1
96	99	1
80	99	2
24	24	4
15	15	1
6	6	2
74	77	4
135	138	1
41	41	1
139	143	1
6	12	1
131	138	2
112	113	1
96	98	1
102	103	2
25	38	1
46	46	1
24	25	1
106	107	1
145	147	2
13	16	2
142	144	1
30	44	1
72	75	2
65	75	1
103	104	1
112	117	1
24	28	3
31	37	1
16	29	1
36	37	2
95	96	1
111	113	1
20	21	2
148	150	2
107	120	1
111	111	1
138	146	1
84	90	1
118	122	2
110	119	1
17	17	2
137	139	2
136	147	1
31	31	2
109	116	1
68	81	1
25	33	1
108	121	2
71	81	1
140	152	1
111	117	2
150	150	2
7	17	1
127	141	1
68	75	1
24	83	1
126	128	1
3	4	1
140	142	1
31	32	1
66	74	1
132	143	1
63	67	1
29	32	1
21	21	1
63	65	2
21	23	1
4	5	2
12	12	2
99	102	1
129	139	2
108	117	1
122	131	1
133	144	1
105	111	1
136	137	1
143	143	2
85	105	1
25	40	2
82	102	1
29	30	2
150	152	2
41	43	1
139	140	1
3	71	1
19	23	1
140	147	2
84	84	1
94	96	1
112	118	1
146	150	1
92	98	1
67	81	2
26	27	1
35	78	1
84	91	1
55	58	1
38	38	1
30	36	2
19	19	1
108	110	1
76	76	1
128	128	2
108	112	2
21	22	1
131	131	1
40	41	1
24	36	1
126	132	1
95	95	1
52	56	1
16	23	1
54	56	1
113	114	1
32	37	1
28	41	1
113	124	1
45	45	1
6	9	1
27	32	1
35	35	1
76	79	1
97	97	1
26	29	1
135	136	1
130	133	1
29	31	1
145	146	1
35	39	1
131	142	1
88	101	1
