71	71	3
44	44	4
91	92	1
77	77	9
30	30	2
152	152	5
28	28	6
75	75	11
3	3	9
95	95	2
89	118	1
47	49	3
51	51	4
155	157	3
24	24	12
48	48	5
25	25	5
65	67	4
112	112	8
138	138	10
35	35	2
77	139	2
116	116	4
136	136	4
128	128	9
118	119	1
101	101	14
77	97	3
105	105	4
115	115	8
139	139	14
147	147	5
96	96	6
73	73	11
5	5	4
94	94	8
7	7	1
143	146	2
87	87	7
27	28	2
109	109	4
78	80	1
27	27	4
4	4	3
47	47	1
108	110	2
81	82	3
122	123	2
52	64	2
29	29	4
109	111	1
5	6	1
82	82	4
117	117	3
140	140	4
135	135	2
83	83	2
112	130	3
110	110	4
145	145	5
129	129	3
132	132	10
69	70	2
139	140	2
127	127	7
90	91	3
91	139	5
31	32	3
25	26	1
141	141	3
102	103	4
120	120	1
93	94	2
22	23	4
56	56	2
92	93	1
117	122	2
108	108	2
6	12	2
70	70	3
25	27	3
72	72	2
11	11	4
154	156	1
78	134	4
103	104	1
4	5	2
16	16	3
98	128	3
113	116	1
99	99	5
100	100	3
21	22	2
116	117	1
149	149	5
107	107	3
62	62	2
43	46	2
56	57	1
89	89	4
110	130	1
154	155	4
140	141	2
17	18	4
17	17	3
131	131	1
141	146	1
153	154	1
68	70	6
8	15	3
96	127	1
92	92	1
10	10	3
137	138	1
157	157	1
69	69	4
66	71	1
126	126	2
80	82	1
98	98	1
65	106	2
66	67	1
18	18	5
150	150	4
113	117	2
45	45	7
121	121	7
2	2	6
23	25	1
50	50	1
121	122	4
106	106	1
104	104	3
30	31	1
150	151	5
55	55	4
125	125	4
104	105	3
102	104	2
92	138	1
67	67	2
64	64	1
26	26	2
14	14	4
68	68	2
157	158	1
94	95	4
97	97	2
29	75	1
117	131	1
95	121	2
20	20	1
23	23	1
46	47	1
151	152	1
0	0	2
66	66	1
92	94	1
44	45	1
123	123	1
33	33	4
128	129	3
124	124	2
14	18	2
43	45	1
84	90	1
148	148	1
79	79	2
92	135	1
99	100	3
155	155	1
30	45	1
95	119	1
11	19	1
105	112	1
28	29	1
6	6	2
75	99	1
110	111	1
78	78	2
1	1	1
55	57	1
53	53	1
76	76	1
24	92	2
97	98	1
19	20	1
130	130	1
31	33	1
129	130	1
84	84	1
46	46	3
133	133	2
91	141	1
55	71	1
74	74	2
54	55	1
90	92	1
88	88	1
67	70	1
85	85	1
20	22	1
135	137	1
65	65	1
75	100	1
66	105	2
8	9	1
32	32	2
53	54	1
127	146	2
98	99	1
142	142	1
84	85	1
93	93	1
