0	5	1
42	45	7
31	31	5
38	38	7
64	64	5
32	43	3
31	73	3
26	28	1
22	22	3
7	7	11
73	77	7
13	13	8
19	21	1
4	5	5
42	43	2
53	53	6
34	36	4
69	77	2
61	62	3
3	3	10
59	68	2
0	0	9
42	62	3
4	4	4
9	9	11
63	64	4
32	32	8
34	37	2
11	22	2
2	2	6
65	66	4
1	3	6
10	10	14
70	70	11
60	77	1
6	6	14
60	61	1
44	46	2
77	77	2
24	58	4
46	46	5
12	12	6
48	52	4
4	8	6
31	43	5
24	25	5
30	30	5
2	3	1
27	27	5
28	75	2
73	76	1
39	41	3
60	69	5
23	24	5
8	10	2
33	45	1
66	70	3
60	60	4
58	58	4
62	62	3
51	56	3
36	39	3
10	11	1
53	63	2
71	71	6
20	27	3
36	36	5
20	20	7
27	35	5
59	65	2
4	42	4
43	43	4
30	77	2
6	11	5
72	72	3
19	19	5
18	30	1
23	37	2
31	63	2
74	74	7
53	66	1
49	60	1
6	10	3
61	61	2
45	45	6
63	63	2
35	46	2
47	76	4
34	34	8
69	69	11
62	64	2
11	11	5
50	50	4
49	51	2
7	10	1
66	66	5
47	47	2
28	69	5
74	77	5
68	68	3
75	75	13
5	41	2
21	21	8
32	68	1
23	23	2
31	66	6
41	41	2
54	55	3
68	76	2
67	71	1
42	70	1
28	35	4
18	26	2
73	74	4
29	54	2
63	69	2
49	54	3
33	49	2
67	76	1
26	41	3
53	54	3
27	28	2
55	71	2
39	39	2
40	43	1
58	59	2
13	35	1
50	51	3
51	76	2
61	70	4
29	45	4
54	54	8
19	46	5
48	48	5
8	8	4
2	13	2
76	76	4
23	40	3
21	30	1
12	54	1
28	28	3
49	49	3
42	42	5
60	64	1
68	69	3
73	73	3
36	64	2
22	37	1
31	58	1
38	41	1
67	67	2
58	66	2
57	57	1
27	45	2
6	41	1
19	27	2
52	52	1
47	53	1
39	68	1
54	59	1
34	52	3
11	12	4
12	24	2
43	44	1
12	22	2
25	25	3
35	45	1
10	36	1
4	13	2
5	10	4
59	69	1
61	63	1
43	62	1
55	61	1
37	37	3
55	55	1
44	68	2
40	40	3
59	59	1
41	42	2
51	51	1
27	43	1
70	71	1
26	40	2
35	35	1
44	44	1
36	37	1
69	70	1
20	39	2
26	27	1
21	25	2
30	46	1
58	72	1
6	23	2
74	75	1
35	47	4
64	65	2
45	51	1
37	47	2
50	54	2
35	41	2
31	32	1
50	60	1
5	13	1
47	55	1
70	74	1
24	49	1
53	55	1
3	5	1
5	67	1
45	56	2
30	49	1
75	76	1
19	20	1
34	71	1
35	48	2
12	13	1
53	61	2
13	14	1
25	30	1
50	59	1
32	37	1
68	70	1
33	35	1
52	62	1
29	29	2
30	61	1
0	64	1
29	30	1
4	9	1
22	32	1
59	61	1
52	53	1
68	75	1
24	28	1
46	70	1
28	31	1
1	1	1
