151	181	3
56	129	1
105	106	1
23	25	1
31	33	6
45	46	1
88	88	4
173	173	3
108	108	4
118	119	1
98	98	5
63	64	6
140	140	8
11	11	11
157	158	4
129	130	2
106	106	7
34	34	6
143	143	5
43	95	2
97	98	8
87	91	8
145	146	1
19	19	1
71	72	8
15	15	6
72	72	2
93	93	5
153	153	9
171	177	2
44	45	3
26	26	8
126	127	4
188	188	3
131	131	5
129	129	10
140	141	1
124	124	8
152	152	4
120	120	8
64	64	4
177	177	3
86	86	5
177	178	2
30	30	6
1	2	4
151	151	4
105	105	4
68	68	2
158	158	6
167	167	3
39	99	3
138	138	3
28	29	2
166	166	2
176	176	4
92	93	4
103	105	3
184	186	2
99	99	7
58	58	4
7	8	1
55	55	3
146	146	6
175	176	5
183	183	3
21	86	1
131	132	1
189	189	2
171	171	3
136	136	6
148	149	2
171	172	6
40	40	6
136	137	1
157	157	2
167	168	3
30	31	6
124	126	3
62	62	7
165	166	2
43	117	1
42	92	2
113	113	4
82	86	1
182	183	4
20	24	1
11	12	4
126	126	2
168	168	2
75	75	4
115	115	6
161	161	5
147	148	1
61	61	1
184	184	3
41	41	2
1	1	2
114	115	1
162	162	5
148	150	2
125	126	1
178	178	7
108	109	7
20	20	3
48	48	7
187	187	2
0	0	2
78	78	1
112	112	13
142	142	8
103	104	2
182	182	1
148	148	11
144	144	2
100	100	7
56	57	2
181	182	3
24	24	2
5	6	2
169	169	4
32	32	2
65	66	3
13	13	3
59	133	3
136	166	3
99	101	4
27	28	2
46	47	2
110	110	6
61	63	2
165	165	2
184	185	3
42	42	2
45	45	7
63	63	4
87	87	3
96	96	2
170	180	3
130	130	1
11	25	1
41	42	4
142	143	3
67	67	3
175	175	9
22	22	8
147	150	2
158	160	2
114	114	12
160	160	2
159	159	1
135	136	6
147	147	2
3	3	2
36	36	6
141	142	4
38	38	8
172	172	4
149	149	2
159	160	3
55	57	2
125	125	9
4	4	2
92	92	3
44	44	2
103	114	4
121	121	1
43	43	2
12	13	1
3	5	2
155	155	2
121	167	2
179	179	5
124	139	4
82	83	5
155	156	2
137	137	4
17	17	5
116	116	1
118	118	2
140	144	4
117	117	3
188	190	1
164	164	4
103	103	2
34	35	3
73	86	2
10	11	2
16	90	2
13	14	1
96	97	1
152	154	2
152	153	3
18	19	2
89	89	7
146	147	1
171	174	2
15	17	1
46	46	3
9	17	1
45	47	2
14	14	3
145	145	1
190	190	4
88	89	1
125	151	3
19	20	4
189	190	1
188	189	4
187	189	1
34	53	2
81	81	5
80	80	4
144	147	1
102	108	2
25	27	1
164	165	3
41	90	1
10	10	1
75	85	1
12	84	1
134	134	2
48	61	1
83	83	1
48	65	1
179	180	3
18	18	3
163	164	1
140	161	1
47	48	5
44	117	1
70	70	3
95	97	2
25	25	3
20	82	1
16	16	3
71	71	2
65	65	7
104	104	1
170	170	1
123	123	1
154	154	1
97	102	1
37	37	3
29	29	3
39	39	2
174	174	3
180	180	5
74	86	1
102	103	3
128	128	2
94	94	1
186	186	1
47	47	1
61	62	3
126	128	2
127	128	2
2	2	2
53	53	2
32	36	1
101	101	4
160	161	1
75	76	2
20	86	1
145	150	1
123	129	1
23	23	2
4	6	2
117	130	1
96	116	1
146	148	2
149	150	1
170	182	1
57	57	2
82	84	2
15	41	1
132	132	1
56	134	1
56	62	1
101	107	1
157	159	1
137	157	2
137	139	1
11	30	1
9	9	1
122	183	2
53	57	1
145	155	1
91	91	1
112	113	1
6	6	1
185	185	1
119	119	1
33	33	1
21	23	1
15	22	1
142	144	1
13	23	2
29	30	1
155	157	1
15	16	1
41	88	1
139	139	1
187	188	1
53	54	1
14	91	1
119	183	1
107	108	1
150	151	1
123	182	1
100	103	1
14	22	1
