28	28	10
134	134	17
61	66	2
65	67	5
140	175	3
27	29	6
24	24	17
117	117	8
95	95	40
163	163	11
173	173	7
55	55	12
124	129	3
2	3	4
46	46	10
114	114	14
1	1	9
8	9	2
19	19	13
118	119	2
70	71	5
125	125	19
151	151	10
94	94	16
23	23	18
23	32	1
30	30	7
65	65	6
44	45	9
43	44	8
75	76	1
128	138	3
159	184	3
4	4	5
62	62	26
90	90	23
142	166	2
182	182	16
136	136	12
155	155	10
0	2	2
146	148	1
27	28	3
30	32	4
21	21	10
18	35	4
180	181	2
151	182	4
122	122	11
80	97	1
14	15	1
101	101	6
150	150	4
58	58	12
58	62	2
45	46	2
85	85	8
73	74	4
71	72	13
158	158	22
104	104	11
141	141	14
170	177	2
47	47	9
41	66	4
32	32	12
179	179	12
127	127	9
154	154	22
59	59	3
105	105	10
118	118	18
77	78	4
5	5	8
13	13	15
126	138	3
130	133	6
35	35	21
48	48	10
185	185	8
22	25	1
108	108	14
143	143	12
167	168	7
39	39	16
184	184	5
121	121	26
66	66	18
75	75	12
178	178	16
186	186	11
132	138	5
112	116	4
96	96	10
7	39	1
104	105	11
82	82	8
175	175	15
74	91	2
72	72	10
169	169	7
132	132	16
100	101	5
77	77	8
68	69	4
116	179	3
56	85	1
20	20	6
60	60	3
185	186	5
171	171	5
22	22	14
166	177	3
84	84	18
129	129	5
40	40	16
136	137	8
119	120	5
178	180	3
95	110	2
83	83	10
183	183	20
95	99	4
3	3	7
42	46	5
111	152	3
108	109	5
11	31	1
97	99	7
71	97	3
119	124	2
164	164	7
138	138	5
172	173	4
133	134	2
93	93	14
130	130	13
99	100	4
105	106	2
162	172	2
0	31	3
14	18	2
56	56	15
135	136	1
124	125	14
63	64	8
100	100	4
166	167	3
170	170	10
57	60	2
140	140	14
112	112	6
39	41	1
148	154	2
123	129	1
6	6	18
113	117	3
111	113	3
160	161	4
21	22	10
28	30	4
22	24	5
174	174	3
166	169	3
23	27	2
31	31	4
46	57	4
156	162	2
153	153	11
148	148	8
178	179	2
130	131	3
97	97	12
44	123	5
112	117	7
21	23	1
28	29	4
78	113	4
57	58	3
145	145	4
100	107	6
41	57	2
73	75	7
10	10	4
118	120	5
109	109	14
89	89	8
55	56	4
119	119	10
190	190	9
128	128	5
45	47	4
100	105	3
126	127	3
110	111	9
139	139	8
80	80	7
91	91	12
23	25	4
32	34	4
98	98	5
157	157	10
11	11	4
117	122	7
137	137	7
153	154	7
54	54	4
82	83	8
83	123	2
21	24	2
172	172	3
147	155	2
87	125	3
126	126	3
150	155	4
112	145	1
66	76	1
41	41	15
91	92	9
113	113	7
66	68	1
22	23	7
96	97	6
177	178	7
124	124	12
54	55	5
37	38	3
83	138	7
89	90	2
130	135	5
25	26	2
122	136	2
129	165	5
0	0	8
7	7	9
110	110	12
34	34	10
18	20	8
16	20	2
120	120	9
152	152	7
187	187	12
170	174	5
92	94	1
87	88	8
111	111	5
99	99	6
187	188	6
102	102	11
169	185	3
12	27	2
43	43	11
106	106	7
149	149	6
34	35	10
41	58	2
155	156	4
112	113	2
131	131	10
181	183	5
129	131	2
38	99	2
188	190	4
33	33	8
103	104	4
56	57	4
145	146	7
144	144	7
39	47	3
53	55	2
133	133	2
19	21	2
70	90	2
29	30	6
78	78	6
165	166	2
30	31	2
158	159	3
181	181	6
11	12	6
94	95	4
141	151	3
160	160	4
176	177	6
159	159	6
132	135	1
87	87	11
113	123	2
32	36	5
70	72	5
64	68	2
42	42	10
76	77	2
160	162	1
27	32	1
103	105	5
100	108	1
182	183	10
46	47	6
147	148	4
10	11	8
4	48	3
39	99	4
52	58	2
26	26	15
171	172	3
116	117	5
154	156	1
160	163	6
168	168	8
86	111	4
15	18	4
38	43	2
88	90	4
129	140	2
146	152	1
110	124	2
75	112	4
18	18	4
8	43	1
97	98	3
159	182	2
34	36	8
92	92	4
156	156	4
70	70	9
38	38	6
128	160	2
25	25	12
103	103	3
127	128	6
14	36	2
9	10	3
188	188	4
166	166	4
156	158	1
29	36	1
149	188	2
81	81	3
173	174	4
61	61	9
24	25	3
111	112	1
12	14	1
42	54	1
88	89	4
137	140	2
2	2	13
155	158	2
27	30	3
145	154	2
162	162	8
159	181	1
142	142	4
159	162	2
186	187	5
33	34	7
135	135	4
57	57	9
162	188	1
12	49	3
138	139	4
158	181	3
16	16	2
36	37	5
186	189	1
114	123	5
101	102	7
115	115	12
62	63	2
2	48	4
160	164	6
56	59	1
85	87	4
167	167	6
6	7	3
96	98	1
15	15	10
86	86	5
131	132	3
117	118	4
12	32	3
58	60	2
165	165	12
141	186	1
78	79	9
70	73	1
107	107	16
8	8	5
159	160	6
19	20	2
42	44	1
24	54	1
189	189	6
45	45	19
53	53	6
52	56	3
168	170	8
157	182	2
70	80	1
109	110	1
137	139	2
13	16	3
179	181	1
76	76	6
95	182	1
79	79	4
71	71	3
115	120	1
31	36	5
12	12	7
18	19	4
16	19	2
64	74	4
65	79	1
100	102	2
71	96	1
129	130	4
106	109	4
168	169	5
162	169	1
65	89	4
68	68	2
38	63	3
157	158	2
163	171	2
14	14	2
33	54	2
144	166	1
127	129	4
116	116	10
150	153	2
61	62	4
154	155	2
17	17	5
39	48	3
6	22	1
79	80	3
116	122	4
85	86	3
139	140	4
141	144	3
171	173	3
40	54	3
148	164	1
121	139	2
185	190	1
174	175	1
74	74	12
95	98	5
40	83	2
64	65	2
147	147	11
179	180	3
20	22	1
95	109	3
126	134	1
42	68	4
64	64	2
83	84	3
149	189	2
17	21	1
0	11	1
61	76	1
119	140	2
155	181	3
131	134	3
57	63	1
161	161	4
31	35	2
169	170	2
36	36	9
12	21	3
135	138	2
1	183	1
159	163	1
44	44	5
37	37	4
89	91	3
37	68	5
29	29	6
133	136	3
38	75	2
38	39	7
65	66	3
155	180	1
80	150	2
44	53	2
122	123	2
68	94	2
96	113	5
73	113	1
146	154	1
106	108	4
184	185	2
72	73	2
117	121	2
170	173	1
123	123	3
38	42	2
125	126	3
116	176	1
80	81	1
79	82	2
160	165	2
59	63	1
177	180	3
6	8	2
173	175	3
188	189	4
142	143	2
158	183	2
107	122	2
12	33	1
27	27	4
141	167	1
92	118	1
15	16	2
163	164	3
54	85	1
101	108	1
43	53	3
148	153	1
2	57	2
106	107	1
15	17	2
67	68	1
6	25	1
153	182	1
114	169	1
143	170	1
144	190	1
115	118	1
143	173	2
178	186	2
78	98	1
14	16	5
30	33	2
123	139	3
74	75	1
152	153	2
101	106	3
148	149	3
0	48	1
135	137	2
177	177	4
73	112	2
40	48	2
43	47	2
77	81	2
153	155	2
141	143	2
40	41	2
134	141	1
59	73	1
12	29	1
143	147	3
174	185	1
171	180	1
170	171	1
128	129	2
147	187	1
141	146	3
133	137	2
103	108	2
87	95	2
12	13	2
110	153	3
69	69	3
77	84	2
162	189	2
128	139	3
74	84	1
39	112	2
88	88	1
80	86	2
52	52	1
161	165	1
5	44	1
77	83	3
71	83	1
96	170	1
73	73	3
4	9	3
143	144	1
92	93	5
156	181	1
88	124	2
6	24	2
146	146	3
154	157	1
93	121	1
175	176	1
99	110	1
172	177	3
135	143	2
70	136	1
149	159	1
108	112	1
83	98	1
116	121	1
58	61	1
26	27	1
63	67	2
174	176	1
156	157	2
70	74	2
99	111	1
155	159	2
150	188	1
107	108	1
10	21	1
8	41	3
58	59	1
171	175	1
154	180	1
8	37	1
9	54	1
170	181	1
63	65	2
134	135	1
71	79	2
77	109	1
143	167	1
67	67	1
52	53	2
114	119	2
85	90	1
8	10	1
41	62	1
115	116	2
95	124	1
48	123	1
149	157	1
63	63	1
160	173	1
66	93	1
37	43	2
36	43	1
77	79	1
179	182	2
133	135	1
9	53	2
2	41	1
145	147	1
40	46	1
60	62	1
48	55	1
66	90	1
162	164	1
134	137	1
62	64	1
125	140	1
113	131	1
20	21	1
110	152	1
59	60	1
22	35	1
167	185	1
