175	175	2
199	199	3
101	101	1
39	39	2
191	191	7
24	24	3
7	7	4
240	240	4
63	65	7
62	71	2
200	200	7
41	42	6
116	116	3
58	59	4
105	108	5
193	194	3
93	93	3
3	3	3
224	225	2
173	173	4
156	156	2
69	69	6
226	226	5
71	72	3
225	225	4
26	32	1
58	106	3
21	21	1
74	74	5
105	117	3
27	218	3
188	191	1
225	226	1
80	80	1
224	224	3
216	217	2
73	74	2
178	178	2
84	98	1
221	222	2
245	245	3
186	242	1
78	78	2
228	229	2
64	64	6
57	60	2
214	214	5
63	64	4
63	75	2
87	88	2
82	83	2
14	101	2
230	247	3
45	45	3
110	110	3
5	5	2
228	241	1
78	91	1
118	162	1
86	86	4
42	51	3
71	71	4
204	204	9
10	10	1
151	151	3
112	112	1
230	230	5
103	104	2
161	162	2
154	161	1
107	118	2
219	229	4
25	25	3
27	28	1
241	241	4
177	178	1
79	79	4
239	239	3
33	33	4
58	58	2
213	213	4
181	182	2
17	17	4
8	236	4
66	66	2
212	212	2
103	103	1
84	85	2
30	31	1
109	110	2
31	41	1
180	180	2
68	69	1
157	222	2
154	201	1
209	209	5
16	16	1
55	55	3
104	104	4
211	212	4
233	245	2
19	19	3
19	20	2
94	102	1
170	170	1
54	55	2
145	161	5
37	37	2
92	170	2
208	208	1
178	184	3
232	235	1
158	223	1
185	242	3
22	22	2
187	211	1
203	203	1
27	27	2
15	15	3
198	204	1
88	88	2
55	62	1
72	72	3
184	195	2
92	103	1
67	67	2
176	176	1
179	180	2
17	23	1
159	159	3
227	227	3
117	118	1
202	202	3
183	183	4
186	186	2
149	149	1
69	71	1
159	214	3
98	98	4
207	207	3
90	90	3
210	210	1
119	169	1
180	181	1
218	219	2
229	230	2
36	36	1
220	226	2
23	24	2
3	5	1
56	66	3
207	210	1
207	215	1
168	175	3
12	12	3
35	35	4
59	59	3
220	220	1
171	171	2
95	112	5
46	120	1
162	162	2
167	200	2
175	176	2
18	18	2
198	198	2
85	86	2
60	60	1
228	228	2
92	119	1
221	221	1
150	150	1
228	231	1
236	236	2
164	164	1
191	194	1
218	218	3
190	192	2
23	23	2
187	188	1
177	177	3
75	76	1
208	209	2
10	11	4
154	154	2
248	248	1
34	35	1
238	238	1
95	110	2
64	66	3
96	96	3
162	163	2
11	11	3
188	189	1
238	241	2
38	42	2
233	233	1
85	85	2
102	103	1
158	215	1
191	192	1
189	189	2
25	26	1
73	73	1
177	186	2
175	184	2
185	186	2
91	91	1
5	59	1
106	119	2
179	179	1
63	74	1
102	102	2
89	89	1
226	227	1
51	67	1
107	108	1
185	189	1
20	20	2
14	14	4
62	62	1
184	184	2
194	196	1
92	92	1
153	153	1
154	220	1
209	211	1
242	242	1
49	49	1
215	217	1
196	196	1
205	205	1
212	214	1
81	81	1
152	158	1
166	166	2
190	190	1
192	193	1
45	47	1
167	176	2
246	246	2
17	26	1
157	159	1
234	234	1
6	238	1
176	178	2
93	94	1
4	5	1
212	235	1
103	246	2
57	75	1
157	157	1
40	40	1
96	99	1
84	84	1
160	160	1
217	217	2
100	100	1
1	1	1
172	172	1
232	232	1
209	210	1
0	0	1
119	119	1
111	111	1
