88	89	7
39	39	10
92	92	5
115	115	18
17	17	14
88	90	8
3	5	3
121	121	15
114	114	19
138	138	8
125	125	22
29	29	12
52	112	2
87	100	14
67	67	10
33	33	12
24	24	8
60	60	6
4	4	16
112	114	1
25	25	28
16	16	16
85	91	2
76	77	10
83	84	7
91	98	1
74	74	10
94	98	2
128	129	5
22	23	9
84	84	16
130	131	6
18	18	9
102	102	10
128	128	15
99	99	12
9	40	3
9	10	8
132	132	22
76	76	5
111	111	16
12	52	2
93	93	13
137	138	10
23	24	2
33	36	2
32	32	30
82	82	27
106	106	9
103	104	1
54	54	4
82	92	2
43	43	4
85	86	3
118	120	4
122	122	11
51	51	17
100	100	12
65	65	11
74	76	3
105	106	6
142	142	6
8	8	8
105	105	19
2	19	5
20	20	6
55	55	16
81	81	11
116	117	5
69	70	4
26	26	11
118	119	10
1	1	13
75	140	2
21	22	8
92	94	2
61	61	20
107	107	13
112	113	8
116	116	8
69	69	9
63	71	2
8	11	4
141	141	8
124	124	9
1	14	2
70	70	12
140	140	3
112	112	19
28	29	4
31	31	20
33	34	8
93	100	4
91	91	8
30	32	1
73	141	1
2	2	18
37	38	14
73	73	20
74	75	4
104	104	10
131	131	13
29	30	3
60	61	9
81	93	2
85	85	10
63	63	18
6	14	3
36	36	11
10	10	21
143	143	15
93	94	5
66	66	10
143	144	7
113	113	6
142	143	6
23	23	7
141	142	2
95	97	6
19	19	6
25	26	5
71	71	11
38	38	13
11	11	12
87	87	14
131	132	2
57	57	7
114	115	4
134	134	11
48	77	1
63	140	2
24	34	3
41	102	8
1	2	3
53	53	4
73	113	1
21	21	11
37	37	17
133	135	7
78	78	10
126	126	13
82	89	1
144	144	2
86	90	4
98	98	12
27	30	2
90	90	25
94	94	15
126	129	2
95	95	8
41	41	11
139	139	6
123	123	5
116	118	5
36	37	15
20	21	10
59	61	7
32	33	4
24	25	4
9	9	10
35	35	19
77	77	10
101	101	1
68	68	16
22	35	2
80	81	5
117	117	5
108	108	8
94	100	3
77	78	8
30	30	15
100	101	4
62	62	16
71	73	5
86	86	6
80	80	15
40	41	7
89	89	7
118	126	3
75	75	12
13	15	3
61	72	2
13	13	9
27	27	10
125	128	5
78	146	1
42	110	2
50	112	1
38	40	4
66	67	3
109	110	3
64	64	14
130	130	7
145	146	4
109	109	7
116	123	2
136	137	3
68	72	2
94	95	6
104	105	4
125	126	2
31	108	7
50	50	13
97	97	8
13	14	4
106	109	1
20	35	3
25	38	3
8	9	10
5	6	6
50	51	7
15	15	12
116	124	1
91	92	6
47	111	8
110	110	18
34	34	11
140	141	7
47	78	2
90	91	2
26	27	9
34	35	2
135	137	2
57	60	4
40	40	4
59	140	3
10	11	3
103	103	12
97	98	2
77	115	5
121	122	3
88	88	9
127	127	6
71	139	2
93	101	2
67	128	1
17	18	11
99	101	2
113	114	5
64	66	1
19	20	4
25	37	2
83	83	19
28	28	5
67	74	3
9	108	2
49	49	13
129	129	13
67	127	4
26	38	3
68	74	5
48	48	7
127	131	3
28	100	2
105	110	7
115	116	6
133	133	6
2	3	3
118	118	12
65	66	7
34	36	6
42	94	2
42	42	8
103	105	1
28	98	3
128	130	1
22	22	6
87	89	1
132	133	7
104	110	5
69	129	1
31	32	2
119	119	4
34	40	3
99	100	4
68	69	6
41	42	4
0	0	7
59	60	3
65	67	4
89	90	10
40	107	3
58	58	13
9	11	4
47	104	6
96	96	15
12	14	2
108	109	4
49	105	2
53	58	4
127	128	3
30	101	2
75	142	2
4	10	2
114	125	1
59	63	1
82	121	3
52	53	5
53	54	2
95	96	5
14	14	3
102	108	6
72	73	8
11	103	1
120	120	5
102	103	11
66	75	1
111	112	1
86	87	4
10	103	4
51	52	2
0	1	3
49	73	3
110	140	4
110	111	5
79	79	1
54	55	4
23	35	2
52	52	5
59	59	9
31	86	1
5	5	12
42	78	1
9	38	4
84	85	2
78	124	1
5	8	2
67	69	4
35	36	2
71	138	3
72	139	4
31	88	2
25	27	2
81	82	2
4	39	6
137	137	7
55	56	4
79	80	4
136	136	5
72	72	5
64	65	1
73	112	3
135	136	3
73	74	6
115	120	3
96	97	4
127	129	3
10	108	4
98	101	1
145	145	1
48	104	1
56	56	9
76	78	2
20	36	2
70	131	2
121	123	1
0	6	2
135	135	5
27	28	3
84	96	2
4	5	2
117	118	2
133	134	1
70	71	4
11	40	2
93	102	1
95	101	3
126	128	1
1	17	3
70	139	1
95	102	1
0	14	4
6	6	8
107	108	4
27	38	2
74	138	2
71	72	5
6	104	4
14	15	1
26	29	1
18	19	2
76	79	4
42	107	3
111	114	1
134	135	1
15	17	2
46	46	2
118	125	2
62	72	1
47	110	1
120	122	1
3	3	1
120	121	1
122	123	1
54	59	2
80	89	3
103	107	2
5	105	6
49	50	1
67	113	3
142	144	2
29	32	2
15	16	1
70	136	2
58	73	2
129	130	3
22	25	1
83	90	1
132	136	2
88	109	1
108	145	1
61	139	2
56	57	1
66	113	1
123	125	2
33	35	3
72	138	2
41	103	1
146	146	1
83	89	1
87	88	2
69	131	2
27	29	2
79	104	2
6	8	1
93	95	1
57	58	2
81	120	1
58	61	1
126	127	1
2	14	1
82	83	2
119	123	2
76	125	2
80	120	1
96	100	1
101	102	1
53	55	1
65	142	1
21	34	1
39	106	1
43	80	1
138	139	1
117	124	1
5	104	1
83	91	1
107	109	1
114	116	2
94	108	1
54	58	2
65	125	1
124	125	2
57	72	1
77	79	1
19	21	1
31	87	1
72	74	1
133	137	1
