72	72	4
16	16	11
89	91	3
102	102	6
28	28	1
80	81	3
76	79	1
105	107	9
91	91	5
97	98	2
135	136	2
20	20	18
19	21	3
18	18	4
134	135	4
109	109	6
19	19	6
31	31	3
21	21	6
23	23	5
137	137	13
10	10	4
131	131	3
86	86	9
88	88	3
127	129	2
128	128	9
6	9	2
12	13	2
94	95	3
18	19	2
117	117	3
100	100	4
6	6	7
112	112	9
98	99	2
8	8	6
140	140	4
78	78	10
108	110	3
116	116	18
4	5	3
2	2	4
97	97	4
115	115	5
104	104	4
5	5	13
33	33	8
96	96	3
132	132	5
2	12	1
10	11	2
84	84	5
138	138	3
80	80	10
11	11	1
111	111	6
106	107	3
73	73	5
107	107	9
98	98	5
94	100	1
37	37	4
126	126	8
112	113	1
131	132	3
0	11	4
6	8	1
81	81	2
24	24	4
124	125	5
118	118	3
92	131	3
26	26	2
89	90	8
12	12	6
137	138	1
96	133	2
9	9	5
75	75	8
127	127	8
89	89	3
17	17	3
24	34	1
16	20	1
134	134	2
99	99	2
1	2	4
28	30	2
14	14	3
71	71	2
103	103	7
77	86	3
87	87	4
15	15	1
119	119	2
24	25	4
10	129	2
133	133	4
118	120	3
95	95	5
9	11	4
139	139	5
79	79	4
135	135	1
111	112	1
94	94	1
27	27	5
7	7	3
3	3	5
125	126	1
107	108	5
103	104	9
133	134	3
30	30	3
83	83	5
34	34	9
130	130	4
88	89	5
93	93	6
124	124	2
35	35	2
102	103	6
9	10	1
93	95	2
120	120	6
34	37	3
21	24	2
101	102	2
108	108	9
25	25	1
34	35	4
78	91	1
76	76	3
126	129	1
106	106	2
77	79	1
7	8	3
100	102	1
101	101	3
82	82	3
2	3	3
20	21	1
20	22	2
136	136	2
0	0	2
13	13	4
123	124	1
118	119	2
28	38	1
14	18	2
10	12	1
77	77	1
110	111	3
1	4	2
71	106	1
32	38	3
74	74	1
4	8	1
29	30	1
114	114	3
17	20	1
74	75	2
92	133	2
129	129	1
35	36	2
30	37	1
2	4	1
105	105	2
83	84	1
17	18	3
38	38	1
0	1	1
117	120	2
81	87	1
8	9	1
114	115	2
116	124	1
3	4	1
0	5	1
108	109	1
125	125	1
1	1	1
137	140	1
28	29	1
