52	53	21
9	38	4
7	7	26
28	28	31
30	30	14
40	40	42
48	48	44
23	23	17
29	31	3
77	77	19
3	5	6
20	22	4
68	74	3
19	19	34
19	70	4
2	2	37
36	36	31
9	9	40
29	46	1
1	1	23
3	4	11
36	37	13
53	54	17
63	63	17
64	66	18
18	18	35
55	55	42
12	12	31
14	76	3
32	32	26
73	73	38
41	42	13
20	20	16
74	74	29
5	5	23
51	53	9
6	6	38
24	62	3
3	54	2
70	71	18
35	35	22
67	67	33
0	0	21
25	26	13
8	9	17
62	70	2
37	37	24
8	8	31
2	3	6
75	76	10
13	13	52
46	47	11
62	62	21
66	67	12
59	59	39
5	8	11
12	13	8
37	38	14
11	11	26
0	2	11
34	34	36
48	50	6
24	24	22
67	68	9
52	52	38
61	67	3
31	39	7
23	26	7
8	13	6
20	21	7
68	68	23
4	56	2
41	41	29
50	51	5
4	8	2
46	46	31
26	26	39
39	53	1
70	75	2
22	22	19
45	45	25
55	56	9
29	30	18
54	66	2
69	69	38
69	77	2
71	72	5
57	57	39
22	25	4
26	27	6
10	10	44
44	45	9
47	47	31
3	3	38
43	44	22
6	7	11
44	44	19
29	29	31
55	58	5
4	4	29
48	54	9
64	64	16
42	43	3
1	2	9
60	60	36
27	27	38
31	72	7
1	56	3
34	35	7
38	38	37
36	38	4
33	37	2
65	65	23
68	70	4
58	58	18
33	33	31
33	78	1
31	31	27
10	11	8
24	25	10
62	63	10
76	76	12
24	30	2
26	53	2
73	74	6
57	58	4
20	54	1
22	44	7
0	1	27
38	39	8
43	50	5
47	56	2
2	36	3
70	70	14
49	49	25
22	30	6
76	77	11
2	43	3
44	77	3
51	77	2
51	51	41
49	50	12
25	25	39
48	66	4
39	39	30
61	64	2
50	50	15
13	38	3
40	41	1
74	75	4
38	65	3
56	56	22
21	21	30
5	6	8
42	42	35
22	45	3
44	46	7
71	76	9
37	39	3
53	73	2
39	65	2
32	71	2
22	29	2
75	75	11
60	61	20
58	59	6
30	33	4
53	53	27
21	24	3
48	49	5
45	47	6
72	72	15
24	57	3
36	39	2
71	74	13
26	28	4
51	70	3
71	71	16
72	73	7
11	12	10
49	73	4
4	42	1
13	76	2
32	34	9
33	34	20
59	60	7
46	59	3
4	74	1
57	59	3
6	11	3
27	28	4
25	63	1
20	34	1
27	57	3
12	37	4
30	31	9
6	68	2
61	61	21
20	74	4
61	63	10
35	36	12
34	72	5
33	59	3
6	10	5
2	24	1
5	9	2
21	26	5
50	67	7
3	58	1
48	67	5
63	64	6
54	54	14
18	19	7
4	38	9
45	54	3
58	72	5
44	47	5
43	43	33
24	28	3
40	42	2
15	15	4
19	47	1
58	68	5
52	57	2
37	40	6
1	39	1
5	7	4
46	60	1
46	77	3
65	66	4
31	32	13
5	53	2
54	69	2
7	12	1
39	41	9
22	23	4
20	45	3
7	13	1
61	65	1
25	28	6
19	20	6
14	77	1
50	77	1
14	52	6
7	14	3
61	72	2
2	61	4
64	67	1
35	39	4
49	51	8
51	55	3
34	37	7
4	13	2
52	74	3
26	74	3
33	35	1
60	67	6
63	72	1
23	24	4
53	72	7
35	37	8
51	52	5
0	21	1
56	57	2
9	11	2
31	51	1
1	12	1
9	33	1
23	25	5
41	44	5
39	66	1
69	70	10
21	25	3
31	36	6
10	34	6
9	35	4
45	55	2
67	69	4
10	56	1
19	21	3
54	55	7
34	40	3
59	77	3
26	32	4
62	64	7
10	18	1
66	70	2
35	66	2
42	73	8
61	69	1
63	67	1
33	67	1
73	75	2
55	68	6
19	34	1
13	56	1
36	66	3
54	71	1
56	72	2
60	68	2
20	77	2
33	61	1
28	46	3
4	5	7
29	39	2
45	56	5
44	50	2
4	18	2
7	11	1
49	68	2
10	39	4
13	43	1
33	68	2
42	52	1
35	64	1
74	76	4
25	62	2
25	30	1
8	41	2
24	29	1
69	71	1
50	75	8
30	74	3
23	28	5
60	65	1
29	70	3
2	22	2
50	60	1
42	44	1
39	40	7
7	8	4
5	11	3
58	70	2
11	13	1
22	34	2
10	37	1
55	67	2
67	70	2
52	60	2
21	74	2
40	43	2
12	55	2
31	70	3
33	36	1
8	44	2
42	57	2
9	10	4
46	48	3
53	58	1
2	5	4
4	59	1
68	69	2
0	3	2
23	43	2
0	77	1
66	66	3
9	12	3
19	44	1
43	77	2
31	33	4
38	64	2
5	35	1
68	71	4
48	51	3
50	55	1
1	46	2
23	44	1
47	48	2
1	41	1
39	49	1
54	56	1
25	29	1
23	27	4
7	10	2
3	67	1
4	54	5
2	34	2
27	31	1
39	42	3
53	63	1
36	69	1
33	40	2
12	40	2
38	59	3
14	33	1
41	55	4
64	65	1
8	35	2
1	14	1
7	43	1
14	42	2
20	56	2
14	57	1
13	14	3
34	70	3
51	57	3
6	32	1
9	37	2
9	18	1
21	33	1
21	61	1
30	70	1
4	11	2
27	70	2
13	39	1
23	62	1
61	62	3
4	6	4
6	14	1
28	76	2
21	30	2
13	30	1
64	77	1
21	22	1
30	72	2
20	33	2
40	48	1
64	72	1
28	55	2
54	72	1
28	31	1
29	72	1
1	4	2
57	71	1
19	46	1
35	38	1
25	58	1
42	70	1
6	70	1
65	67	3
72	74	2
23	66	1
33	60	1
14	14	1
52	54	1
52	58	1
75	77	1
3	8	1
55	60	1
62	66	1
32	58	1
45	76	1
29	64	1
56	58	1
5	69	1
32	33	1
6	29	1
9	40	1
35	43	1
31	58	1
8	34	1
6	71	1
2	4	1
20	62	1
5	42	2
