43	43	8
119	120	7
104	104	2
128	128	2
45	45	6
17	17	12
34	36	2
21	23	1
138	138	8
14	14	6
57	144	4
137	137	5
2	3	5
159	159	17
69	69	11
146	146	7
97	97	4
160	160	8
73	73	3
72	72	3
134	135	3
25	25	2
151	152	3
121	123	1
111	111	5
21	21	5
28	28	4
24	24	2
105	105	7
162	162	1
100	100	2
5	5	9
55	55	4
108	108	8
42	42	7
7	7	2
140	141	4
73	144	1
57	115	1
139	139	2
86	86	1
16	16	2
141	153	1
8	8	5
64	90	2
96	96	4
70	70	5
44	44	3
141	141	4
76	150	3
106	106	2
39	39	8
90	90	2
3	3	8
138	152	4
0	0	4
159	160	2
129	130	3
108	109	3
164	164	7
35	35	4
21	22	4
41	41	10
74	74	5
64	64	6
2	2	3
140	153	3
14	17	1
143	153	4
13	13	4
110	110	3
132	133	10
56	73	1
5	6	2
26	26	4
82	82	3
11	11	5
44	45	4
115	115	6
115	116	1
7	12	3
11	41	1
40	40	4
23	23	6
135	135	8
147	148	4
143	143	3
3	43	1
43	44	3
91	92	1
112	160	7
68	69	3
143	154	9
99	99	2
168	168	3
47	47	2
4	49	2
123	124	4
126	130	5
76	76	4
88	89	2
54	54	4
47	77	2
46	46	5
155	157	1
24	25	1
131	145	2
51	53	2
65	65	2
49	49	4
39	140	3
120	120	5
35	36	3
106	107	2
6	7	1
117	117	4
99	100	4
6	6	4
53	54	7
22	22	6
46	47	2
112	113	2
136	137	3
40	41	3
75	75	1
121	124	2
1	136	2
148	148	2
56	56	2
145	146	2
52	52	7
20	21	4
94	96	1
23	24	5
166	166	1
160	161	2
132	132	4
135	141	3
76	117	2
33	33	2
94	94	4
68	68	3
71	86	1
57	62	4
117	118	4
41	138	2
18	18	5
70	71	2
122	122	4
94	95	1
125	127	2
66	67	2
135	136	3
163	163	4
50	50	1
36	36	4
130	130	4
113	113	2
155	159	2
71	71	1
16	42	1
52	53	2
170	170	1
143	155	1
129	129	5
118	118	2
34	35	1
155	156	1
163	164	3
83	84	4
19	24	5
114	115	3
52	157	1
143	144	1
90	100	1
157	157	2
1	137	3
158	158	5
43	137	1
112	112	2
152	152	3
123	123	1
161	161	5
37	37	1
93	93	8
151	151	2
165	165	1
162	163	3
11	13	1
57	116	1
101	139	3
15	15	2
105	107	1
127	127	2
4	5	1
158	159	1
54	56	2
140	152	1
96	97	2
165	166	1
78	78	1
83	83	2
84	84	5
11	12	1
7	16	1
19	19	4
98	100	4
142	143	1
81	82	1
145	145	3
27	28	2
27	27	1
66	66	1
12	12	3
57	105	1
147	147	2
51	51	2
103	103	1
125	126	1
109	109	3
99	102	1
154	157	1
95	95	1
80	80	1
155	155	2
130	132	2
88	88	1
15	41	2
119	119	1
156	156	1
81	81	2
92	102	3
113	114	2
4	4	3
49	50	1
116	116	1
20	109	1
149	149	1
14	16	1
0	1	1
150	150	2
142	156	4
7	11	1
135	137	1
64	65	2
76	118	3
141	143	2
101	154	1
134	145	1
153	154	1
12	13	1
136	153	1
154	155	1
62	75	1
100	104	1
54	55	1
65	68	1
125	125	1
80	132	1
75	76	3
56	57	1
167	167	1
69	70	1
81	128	2
107	107	1
128	129	2
38	40	1
6	8	1
127	129	1
134	134	1
57	57	1
53	53	2
57	102	1
140	140	1
67	68	1
4	6	1
44	84	1
25	26	1
9	10	1
