17	18	4
113	113	4
28	28	1
127	127	9
131	134	4
13	77	10
125	143	5
16	17	6
34	34	3
129	129	6
39	39	2
146	146	6
46	46	2
39	40	2
124	125	3
120	143	2
1	71	3
145	145	13
120	120	5
31	33	1
68	70	4
46	50	4
22	83	3
152	152	4
141	141	11
120	145	4
110	110	1
105	105	2
62	63	4
51	52	3
87	87	3
18	19	7
29	29	4
98	98	3
148	148	10
135	135	5
156	156	5
25	107	4
47	48	3
96	96	3
92	139	1
9	9	2
140	158	2
135	136	5
16	52	2
142	142	3
8	31	2
18	42	1
65	65	1
22	22	7
79	81	6
55	135	3
49	49	7
25	25	12
94	94	4
118	134	3
140	140	5
87	88	3
57	57	3
36	36	4
78	82	4
35	36	3
23	23	2
53	86	5
95	95	4
80	80	8
33	33	3
2	2	9
118	122	3
27	27	6
147	147	2
133	133	1
37	84	3
11	11	6
43	43	2
104	105	3
67	68	2
96	156	6
48	49	2
19	19	3
52	64	2
16	16	3
29	31	2
92	92	11
79	79	1
88	88	4
13	79	2
111	111	5
106	107	4
50	50	2
5	42	4
115	115	7
56	70	2
56	56	1
125	125	5
15	15	6
153	153	2
4	4	3
10	10	3
37	38	2
73	73	3
55	55	4
32	33	4
13	31	3
132	133	1
8	8	2
118	118	3
130	130	2
48	48	3
139	139	5
135	141	1
100	100	4
151	151	4
31	31	1
12	12	4
115	116	1
20	21	2
32	32	5
26	26	11
80	81	3
21	21	5
97	98	1
63	63	5
144	145	1
44	49	1
75	75	2
97	152	1
72	72	1
68	69	1
14	37	1
143	144	2
44	44	3
47	47	1
22	76	1
24	68	4
0	38	4
54	158	1
79	80	1
89	89	1
37	37	6
125	126	1
13	13	5
158	159	2
7	7	1
86	86	1
82	82	1
134	134	4
4	38	1
21	80	1
18	78	3
149	149	1
87	110	2
104	104	3
20	22	2
52	52	1
143	143	2
19	84	2
122	122	1
127	154	1
119	119	4
18	18	1
1	24	1
129	130	1
26	31	1
99	99	7
93	93	1
131	133	1
93	94	1
93	157	2
157	158	1
120	121	2
2	42	2
30	30	1
36	38	1
67	67	2
91	91	1
1	1	1
67	70	3
107	107	2
33	36	2
128	128	6
38	38	1
130	140	1
76	76	1
84	84	1
14	14	1
152	153	1
111	147	1
31	35	4
151	152	3
17	19	1
23	42	1
67	138	1
66	71	1
24	32	1
69	69	2
136	136	1
155	156	1
108	108	1
77	77	2
102	128	1
0	43	2
103	103	1
157	157	1
1	2	1
21	83	1
97	155	1
35	37	1
46	49	1
53	158	1
25	27	1
41	111	1
97	97	1
149	156	1
6	7	1
148	155	1
42	42	1
