151	151	4
6	6	4
90	90	3
121	154	9
79	80	4
150	150	6
124	124	2
77	77	2
39	39	7
17	20	3
120	165	1
154	154	4
94	99	1
15	42	7
56	56	8
37	37	7
23	23	6
12	33	1
7	30	4
129	161	5
95	95	2
158	160	4
54	55	5
32	32	13
176	176	3
8	8	2
96	122	1
60	61	4
64	64	1
112	112	5
34	34	3
8	44	1
91	140	3
74	74	4
114	114	5
76	76	10
62	62	4
142	142	4
66	66	8
115	120	1
75	102	3
45	45	3
55	55	5
140	141	4
17	18	4
10	10	3
96	96	3
55	56	1
28	28	5
52	52	9
136	171	1
111	155	1
144	145	3
39	40	3
119	119	8
135	135	4
131	133	7
97	97	3
141	143	6
126	126	7
123	125	5
33	41	3
30	30	9
139	171	2
9	9	4
147	149	3
41	41	4
34	37	2
123	123	11
71	71	10
144	160	1
155	155	6
108	108	4
60	129	2
33	33	6
145	145	3
120	120	2
115	115	6
77	103	3
131	131	7
180	180	3
150	151	2
118	118	7
26	26	6
28	31	1
138	139	6
57	57	5
161	161	1
166	166	4
125	170	3
42	42	7
33	37	1
110	110	2
63	63	3
122	123	1
18	18	3
159	162	3
14	14	3
157	158	5
129	165	2
161	162	2
72	72	1
153	154	1
94	94	6
140	149	1
113	113	2
25	25	1
156	156	2
9	12	2
155	177	1
67	67	2
13	14	4
173	173	4
101	101	3
10	150	2
105	105	6
101	107	3
29	30	1
170	170	3
5	5	6
35	36	4
36	37	2
65	65	8
116	117	4
115	116	1
5	40	4
162	164	2
98	98	1
171	171	1
26	37	2
82	162	2
129	159	1
3	4	8
63	119	1
60	167	1
127	128	4
3	3	2
160	162	5
178	178	14
152	153	1
128	169	2
8	21	1
130	131	7
144	144	5
58	59	1
92	92	2
56	110	2
31	32	1
167	167	3
130	130	2
19	26	1
18	22	1
8	11	1
96	171	1
173	174	6
94	142	2
5	6	3
179	179	6
28	43	2
16	16	5
100	140	1
21	21	4
73	73	5
153	153	9
24	24	10
7	9	3
139	167	2
117	118	4
120	121	2
122	122	9
60	60	2
150	154	1
61	143	2
67	68	1
141	141	1
57	58	3
137	137	10
8	13	5
55	68	3
20	20	3
148	152	1
70	154	2
4	68	3
146	159	3
33	42	2
15	15	3
129	130	3
61	162	5
60	113	2
134	134	5
148	148	15
78	78	1
97	98	1
31	31	5
24	26	2
109	142	1
114	115	1
14	44	4
84	85	2
147	147	3
175	175	2
116	122	1
80	139	2
140	140	6
19	19	4
97	101	2
87	87	4
111	154	2
165	165	1
7	25	2
178	179	1
117	117	7
18	19	3
43	43	3
154	155	4
29	29	5
80	80	3
139	139	3
114	122	1
133	133	1
132	132	2
36	38	7
127	127	1
118	146	5
15	30	1
129	135	2
135	136	2
107	107	2
109	109	1
21	22	2
104	104	1
27	27	2
36	36	3
102	102	1
4	7	2
65	98	1
61	163	2
157	157	1
26	85	1
59	61	6
119	152	1
23	29	1
128	128	2
100	162	1
10	11	4
81	97	2
81	82	2
16	23	2
98	136	2
150	153	2
79	79	2
82	82	1
94	100	2
160	160	1
106	107	5
105	112	1
111	113	1
174	176	2
138	138	2
2	30	1
177	178	1
84	84	1
108	109	3
53	54	1
174	174	2
92	113	1
78	79	2
172	172	2
34	35	2
94	101	1
61	64	1
116	152	1
136	136	1
98	100	1
164	165	1
155	176	2
78	80	2
163	164	1
81	111	1
55	144	1
141	149	1
97	139	1
0	0	5
100	170	2
129	129	2
118	147	3
75	76	1
38	38	1
70	72	1
103	103	1
35	41	1
15	16	1
96	106	1
17	17	1
157	159	2
125	125	3
98	180	1
17	110	3
13	13	1
112	164	2
119	120	1
50	51	1
151	154	1
111	114	2
64	65	2
60	110	1
154	156	3
163	163	1
81	81	1
155	156	1
39	67	2
26	28	1
87	178	1
2	3	1
63	97	1
7	8	1
59	167	1
93	93	1
101	142	1
115	147	1
45	49	1
111	115	1
92	153	1
54	54	1
14	15	1
147	151	2
112	161	1
130	168	1
177	177	1
127	162	1
93	94	1
146	146	1
126	131	1
64	110	1
4	4	1
53	140	1
171	172	1
94	126	1
2	2	1
147	154	1
11	13	1
162	162	1
72	119	1
88	89	1
11	45	1
