114	114	9
34	35	1
126	126	1
185	186	3
107	109	4
160	164	1
155	156	5
36	36	8
65	106	1
40	40	2
182	184	3
83	83	4
95	95	6
6	6	4
101	102	3
104	104	4
61	110	1
161	161	3
55	106	2
3	4	6
14	14	9
33	35	2
82	83	4
57	57	2
76	76	1
139	139	3
54	54	3
118	118	4
54	59	3
3	3	4
24	24	3
168	176	3
62	63	2
53	54	1
87	87	6
23	23	5
19	19	2
157	158	1
46	46	7
12	12	3
36	41	3
156	156	6
149	149	7
178	180	2
157	157	3
128	129	1
27	27	6
66	66	1
4	4	4
39	39	5
161	165	2
53	55	1
0	0	2
18	23	2
132	132	4
138	138	3
13	26	2
152	153	2
188	188	6
53	53	4
162	162	3
133	133	1
160	160	5
119	119	2
61	61	1
77	77	3
41	42	3
117	117	3
57	87	5
177	177	6
113	183	2
97	97	9
179	182	2
148	152	1
115	116	3
0	80	4
150	150	4
142	167	3
175	175	4
17	17	1
15	23	2
113	140	1
96	96	1
168	178	3
134	139	3
110	110	3
92	92	4
68	68	4
13	48	2
186	186	5
0	39	3
111	186	2
184	184	2
155	176	2
13	20	8
132	133	1
82	84	2
73	73	3
141	141	2
142	142	1
187	187	4
40	41	3
181	181	3
149	185	1
173	173	3
147	147	3
13	21	1
154	155	2
169	169	2
173	178	1
26	26	3
12	13	2
2	2	1
45	45	2
131	175	1
137	139	1
172	172	4
21	22	1
70	70	4
63	64	1
170	170	2
68	69	1
130	131	3
187	189	2
14	36	3
179	181	1
60	60	3
124	124	4
75	75	3
130	130	4
83	84	1
13	13	1
85	85	4
126	175	3
4	5	3
178	178	3
149	150	6
59	121	2
63	63	3
33	33	7
154	154	2
65	92	2
163	166	1
47	47	4
55	63	1
143	144	1
43	45	1
166	169	1
167	181	3
148	148	3
155	179	1
1	1	5
145	146	1
170	173	1
125	126	2
171	171	2
56	97	2
44	44	3
32	35	3
10	37	3
74	74	2
89	89	6
22	22	1
143	143	1
71	72	1
138	139	2
62	62	2
111	112	1
32	32	4
67	68	1
56	56	3
29	33	1
17	81	1
129	130	1
102	102	4
183	185	2
140	140	5
112	185	1
169	170	1
126	134	3
88	88	3
30	30	2
180	180	1
52	54	1
98	99	3
114	148	1
151	177	3
30	31	1
66	67	6
162	163	3
78	78	1
146	148	1
37	46	3
176	176	1
58	58	2
168	168	3
71	71	1
47	48	1
139	170	1
12	48	1
11	11	2
43	43	3
104	106	2
158	175	1
118	119	1
182	182	1
179	179	1
135	135	1
91	94	1
86	86	1
159	169	1
15	25	1
81	82	1
109	132	3
64	105	1
9	11	1
81	81	1
29	29	3
16	16	1
55	55	1
164	164	1
142	150	1
161	163	1
89	90	1
141	160	2
115	147	1
8	44	1
145	147	3
136	164	1
82	82	1
136	137	1
170	176	1
169	178	2
64	65	2
73	74	5
163	164	1
91	95	1
23	36	1
14	16	1
21	21	1
182	183	1
185	187	1
114	116	1
127	133	1
