123	127	2
79	102	8
29	29	5
73	73	7
17	17	12
63	63	9
98	99	2
93	94	3
32	49	4
38	39	2
96	97	4
59	60	1
19	19	7
103	103	5
90	90	4
38	38	14
117	117	12
79	79	2
120	120	3
77	78	12
105	106	1
11	12	5
31	31	6
19	28	2
11	11	8
103	111	3
20	21	4
8	8	5
59	59	1
26	26	6
124	124	9
122	134	7
109	111	4
1	3	3
39	39	5
81	81	13
4	4	11
94	134	4
15	15	7
101	101	2
30	30	4
10	10	3
20	20	8
26	36	4
10	14	3
92	92	1
75	75	2
79	80	3
107	107	3
12	16	4
67	100	2
19	27	3
84	102	1
97	97	4
89	91	7
44	44	8
125	125	2
99	99	4
91	101	1
76	77	2
6	6	8
73	74	3
57	57	3
34	61	9
86	86	3
18	18	6
96	99	5
109	110	1
88	119	1
65	65	4
94	123	6
126	126	1
7	7	10
63	64	3
27	27	12
113	131	3
133	133	16
22	22	7
6	7	2
2	2	3
96	96	3
74	74	7
37	37	2
113	113	3
124	133	5
95	95	2
109	109	10
44	45	5
120	121	2
69	70	1
13	14	7
95	100	5
15	21	3
23	24	2
10	18	1
5	5	5
88	88	4
113	130	7
61	68	1
93	132	2
97	98	2
127	128	2
89	89	3
35	35	4
115	115	6
12	12	2
91	103	1
8	14	5
7	14	2
21	21	2
83	83	3
16	16	7
15	29	1
114	115	4
66	66	9
41	41	1
39	45	4
36	37	5
24	25	5
68	68	5
127	127	2
48	48	1
77	77	2
36	36	3
59	70	1
23	43	2
21	28	3
71	76	2
100	100	5
94	132	1
111	111	2
131	131	10
118	118	7
62	65	2
86	110	2
121	121	4
41	42	3
123	125	1
9	9	2
129	129	1
74	75	1
126	127	2
33	61	2
87	87	4
91	91	4
33	33	5
114	116	3
11	18	1
84	84	2
21	22	3
64	64	6
76	76	3
62	62	8
121	127	2
58	83	1
0	3	2
91	92	2
116	116	4
112	112	1
61	61	4
30	49	1
60	60	3
85	110	1
3	3	1
129	131	2
130	130	3
87	112	1
119	119	6
56	58	3
46	46	1
84	85	1
25	25	4
19	30	1
92	99	2
27	28	3
94	94	2
70	70	1
75	76	1
123	123	5
78	78	5
26	40	1
36	40	2
124	125	3
55	60	2
24	24	5
1	1	1
35	38	2
36	39	2
134	134	2
23	23	3
88	122	1
124	126	2
80	80	1
112	120	3
85	85	2
99	100	4
132	133	1
40	45	2
20	28	1
34	34	1
9	10	1
50	101	2
72	72	3
26	28	1
89	119	3
60	70	2
69	69	4
72	76	1
94	121	4
56	56	2
64	65	1
125	126	1
43	43	1
114	114	2
42	42	1
58	58	5
88	134	1
67	69	1
40	40	2
32	32	2
28	28	1
0	0	1
108	108	1
128	130	1
12	17	1
47	47	1
82	82	1
12	18	1
25	26	1
33	34	1
59	71	1
