30	30	8
52	53	2
138	139	7
153	190	11
53	53	5
159	159	5
54	54	7
38	38	7
160	170	2
32	35	3
73	73	7
28	28	4
98	108	2
61	134	4
60	60	9
34	35	4
18	18	5
88	99	3
86	89	2
173	173	4
102	174	2
1	82	1
133	140	3
54	116	3
0	0	4
84	84	6
172	172	1
74	75	2
6	12	2
87	102	2
126	126	6
161	180	1
42	42	6
110	110	2
71	90	4
130	130	4
142	143	1
31	32	5
172	173	2
87	87	2
180	181	2
149	149	3
45	46	4
7	19	1
80	122	1
77	159	3
21	21	4
65	65	7
126	129	2
149	150	1
131	134	1
1	1	4
154	154	5
111	112	3
80	119	2
102	103	1
7	7	14
72	73	3
153	181	1
151	151	3
55	183	11
62	101	3
93	96	2
107	149	1
108	122	7
85	85	5
47	47	1
97	98	4
113	121	1
142	142	8
13	15	3
132	133	1
115	115	3
33	35	2
92	186	4
20	21	5
179	182	1
94	95	6
90	90	4
160	164	3
161	163	3
31	31	1
172	188	9
89	89	6
147	147	4
92	92	8
21	93	3
153	153	5
134	134	4
14	14	12
109	109	6
44	45	2
170	170	7
4	4	1
117	117	6
74	93	3
78	78	3
77	77	6
97	97	2
26	26	2
164	164	3
144	144	5
176	177	1
82	82	4
108	124	2
37	38	3
80	80	3
188	190	4
42	158	2
166	166	5
174	185	2
26	28	8
32	34	3
186	186	2
182	182	8
7	106	2
139	139	5
0	88	2
29	29	9
46	46	6
11	18	3
134	137	1
71	71	5
171	171	2
124	124	5
160	168	2
127	127	6
83	83	8
32	32	2
12	13	3
122	139	2
115	171	1
95	110	1
72	72	4
13	39	2
174	174	3
103	103	8
74	74	2
141	141	8
102	102	2
150	150	2
132	132	2
58	58	7
58	186	3
163	163	3
148	148	4
2	2	6
41	41	2
177	177	4
19	106	1
46	47	4
124	125	3
6	6	4
40	40	4
161	161	3
116	117	3
65	160	2
81	81	1
162	182	1
142	144	2
17	17	2
162	163	5
173	188	1
111	111	1
68	70	6
129	129	5
121	147	2
70	92	2
133	133	4
113	113	5
117	118	3
153	163	2
1	2	2
17	31	1
119	119	3
52	110	4
18	37	3
114	114	1
112	112	1
175	175	1
183	186	2
157	158	3
85	86	5
185	185	6
166	167	2
156	156	3
76	76	4
83	148	1
106	107	3
48	84	1
66	67	4
42	84	1
31	33	4
9	20	1
180	182	1
164	168	1
70	71	4
42	48	2
180	190	3
188	188	3
122	122	7
88	88	3
152	152	1
168	180	1
20	22	2
68	68	2
178	178	7
73	108	3
187	187	2
3	17	1
168	168	2
28	29	4
66	133	1
108	108	2
124	139	2
181	181	4
125	126	3
54	119	1
119	188	1
57	186	1
3	3	4
121	136	5
160	161	1
62	62	1
16	16	4
131	133	2
45	45	4
77	138	3
9	40	1
123	124	1
56	57	1
17	19	2
54	117	2
100	100	1
8	74	5
37	43	2
123	138	1
96	98	2
85	172	1
9	24	2
60	63	1
128	128	3
60	122	2
121	148	4
5	8	1
81	133	2
124	138	7
110	111	3
2	6	1
179	180	1
59	59	4
141	145	1
174	178	4
74	103	4
78	81	1
133	134	1
82	93	8
96	96	1
22	22	2
70	86	1
135	135	3
35	36	3
56	56	1
155	159	1
48	81	2
173	187	1
159	179	2
113	115	3
126	127	2
65	173	1
12	12	1
75	75	1
27	28	1
160	160	3
79	79	1
5	5	1
140	141	2
33	33	4
70	70	2
107	107	4
106	106	1
58	94	2
119	141	1
136	136	1
66	78	1
95	95	2
131	131	2
140	140	2
168	169	1
106	146	2
163	179	2
94	96	1
165	165	3
156	183	2
57	118	1
181	182	1
43	43	1
146	148	1
107	155	1
89	90	2
26	27	3
76	167	1
73	86	2
76	155	2
134	135	1
112	115	1
61	157	1
10	11	4
15	15	2
43	94	1
119	173	1
94	94	1
63	64	3
122	124	2
101	101	3
83	86	2
98	99	2
93	94	1
25	28	1
15	32	3
67	154	1
46	48	1
143	144	1
82	83	2
79	87	1
170	171	2
24	24	1
115	116	5
96	97	2
1	48	3
77	148	2
13	13	3
184	185	2
143	164	1
76	150	2
12	85	2
9	14	2
89	105	2
125	125	1
14	32	2
182	183	1
43	48	1
10	14	1
63	95	1
5	6	1
11	11	1
80	110	1
20	30	1
135	136	1
28	31	1
65	66	2
177	178	2
146	147	2
154	180	1
19	22	1
16	17	1
18	45	1
181	183	1
178	182	1
169	169	2
113	114	1
64	66	1
107	108	1
146	146	2
118	122	1
109	110	2
76	172	2
152	154	1
136	139	1
143	143	1
129	150	1
67	67	1
121	121	5
165	169	2
54	55	1
70	103	2
183	183	1
55	55	1
180	180	2
56	183	1
130	131	1
14	26	1
175	178	2
99	99	1
89	184	1
132	134	1
112	138	1
38	95	1
4	8	1
24	45	1
93	93	1
143	147	1
23	23	1
148	149	1
0	2	2
37	37	1
176	176	2
157	157	1
153	154	1
22	45	1
66	134	1
53	55	1
79	123	1
70	135	1
4	7	1
61	113	1
37	40	1
27	62	1
