120	120	6
11	11	1
39	40	2
136	136	4
122	122	2
128	136	2
37	37	3
153	153	11
2	9	1
123	124	6
111	111	9
75	75	6
151	151	4
154	154	1
73	73	4
32	33	8
11	12	2
95	95	7
26	26	3
68	68	9
123	123	9
106	107	8
127	127	6
34	34	1
40	55	3
16	17	1
139	139	3
104	105	3
66	67	1
87	116	5
97	99	1
94	95	1
23	23	5
85	85	7
142	142	2
125	126	1
39	79	3
40	40	13
107	108	11
68	135	2
117	117	3
4	4	1
48	52	4
19	29	5
116	116	3
146	146	2
55	55	9
50	50	10
43	43	11
29	29	5
46	46	5
112	113	1
94	98	4
39	39	6
72	73	3
8	8	1
79	80	1
124	124	2
76	76	3
41	41	4
100	100	5
137	139	4
142	143	4
9	9	8
65	65	4
36	36	2
147	149	4
138	138	5
25	25	1
135	147	3
20	28	3
142	145	1
134	135	4
135	154	2
57	57	1
112	112	4
113	113	3
16	16	8
150	150	1
84	103	4
121	122	4
50	66	1
129	129	4
118	118	5
62	75	2
97	97	5
77	86	3
137	137	10
140	141	2
107	107	10
28	29	6
135	140	5
23	24	3
51	52	1
14	14	3
143	144	2
96	96	5
47	49	3
10	10	8
141	148	6
44	46	1
62	76	1
140	140	5
66	66	12
83	83	2
42	43	1
121	124	2
149	150	5
148	148	1
81	82	4
82	83	8
8	26	1
111	112	1
84	85	1
70	70	5
127	147	3
19	19	3
81	81	1
105	106	8
99	99	9
53	55	2
134	134	3
13	13	3
6	27	4
17	30	1
71	81	3
53	54	1
101	102	4
27	27	2
84	84	4
68	69	3
105	105	3
62	62	2
42	42	2
76	86	1
16	19	5
71	112	2
13	150	1
131	132	2
63	64	4
130	131	1
63	68	1
53	53	3
113	114	2
12	12	2
38	38	3
104	106	1
91	139	3
78	79	3
54	55	3
62	104	1
119	119	2
24	24	5
50	51	6
129	147	2
72	72	5
12	29	2
80	83	4
97	128	1
51	51	9
102	108	5
69	69	6
47	47	5
149	149	4
39	119	5
101	107	2
115	115	1
18	18	7
86	88	3
109	109	3
132	132	5
44	44	2
48	50	3
28	37	1
135	135	3
9	11	3
78	78	7
133	133	3
17	17	5
20	20	3
15	15	3
77	77	10
138	139	1
65	66	1
32	34	3
93	93	2
40	41	4
34	36	1
95	142	2
122	123	2
69	70	2
45	45	4
125	139	1
23	25	3
5	8	3
16	94	3
129	131	2
17	29	1
49	74	3
75	86	3
22	26	1
96	100	3
26	27	1
48	48	1
108	113	1
103	105	1
8	151	3
102	102	1
136	137	1
96	112	1
128	128	2
106	106	1
23	35	1
42	45	1
49	49	3
147	147	2
79	79	1
145	145	1
100	101	2
114	116	2
124	125	1
147	154	1
35	44	2
25	44	2
67	67	3
8	33	1
30	32	1
5	6	2
34	35	1
119	122	1
50	52	1
63	77	1
21	21	2
82	82	1
22	22	1
30	30	1
80	81	1
6	6	1
84	117	1
38	39	1
71	71	1
79	81	2
9	10	2
75	77	1
126	127	1
7	7	1
41	54	1
138	140	1
33	33	2
49	51	1
80	80	1
48	55	1
128	129	1
107	114	1
99	129	1
109	112	2
2	48	1
116	122	1
62	66	1
