39	39	9
9	9	15
78	78	11
18	18	6
107	107	5
28	28	3
127	131	2
102	102	11
0	0	4
105	125	3
31	32	9
65	66	2
41	42	6
118	118	21
94	94	4
77	77	4
42	93	2
7	7	5
120	121	2
15	18	4
130	130	2
70	70	9
64	64	35
133	133	3
29	29	8
81	88	2
84	116	1
117	117	19
50	50	4
59	59	7
80	80	5
117	126	2
61	61	6
69	70	1
76	76	18
116	116	11
66	66	9
47	74	1
13	13	6
72	72	13
108	109	3
67	67	18
30	30	8
40	43	3
126	126	16
75	75	14
84	84	5
26	26	5
82	82	6
106	106	2
74	74	6
122	122	4
127	127	5
121	121	6
131	131	8
87	87	3
78	79	4
94	110	5
124	124	7
106	129	5
105	105	2
102	104	3
78	109	1
103	104	4
38	39	4
33	33	14
114	114	3
11	13	3
85	85	6
1	1	7
97	113	3
104	104	7
19	33	1
108	108	4
123	123	8
27	27	2
24	25	2
12	12	5
40	94	1
93	93	5
8	8	14
63	63	13
49	49	3
44	44	5
23	37	8
96	96	8
20	59	2
134	134	3
58	58	5
32	32	2
103	105	1
16	16	10
23	23	4
86	113	2
81	82	4
28	55	3
12	13	5
102	103	4
16	17	1
90	92	7
43	43	7
8	23	1
86	89	5
2	2	6
6	6	6
5	5	2
88	88	4
125	125	9
78	80	2
22	22	7
3	44	1
101	101	4
116	117	1
129	129	4
10	10	14
14	43	1
20	22	1
119	119	12
68	69	7
112	116	5
9	78	2
3	4	2
103	103	3
39	40	2
100	100	1
29	30	1
44	45	4
129	132	1
15	15	4
107	121	4
132	132	2
42	55	1
10	11	4
73	74	9
21	22	4
90	90	4
5	23	1
10	61	3
127	128	1
75	76	1
20	20	5
86	86	4
71	99	1
72	75	7
91	91	4
97	99	1
95	111	4
129	131	1
41	41	3
32	37	4
17	17	4
128	128	2
36	38	1
11	12	3
42	42	1
88	101	1
85	113	3
15	16	1
110	111	2
11	16	1
14	14	3
67	68	1
130	131	7
120	120	3
54	94	2
30	33	1
4	4	5
21	25	1
130	134	3
120	122	3
85	112	7
60	60	7
24	24	6
38	38	2
45	45	4
3	9	5
123	124	5
101	129	1
110	110	3
81	110	2
6	109	2
106	123	3
36	37	1
79	79	7
32	33	4
11	11	6
34	34	3
124	131	5
40	55	2
65	65	7
101	126	3
111	111	7
71	71	7
71	75	3
112	113	2
73	73	2
96	100	3
8	111	1
96	114	4
112	112	2
40	41	2
34	36	4
21	21	2
77	95	3
47	47	6
82	100	2
87	97	1
23	25	4
9	17	2
68	68	7
83	83	5
56	56	9
131	132	1
132	133	3
11	36	1
46	47	3
17	20	2
40	42	2
113	114	6
46	46	2
25	25	2
121	123	3
8	9	2
7	8	3
87	101	2
92	92	1
109	133	1
3	3	3
63	66	2
85	86	3
18	32	2
107	122	1
46	76	4
29	39	1
19	19	3
19	26	2
118	134	3
66	67	3
35	35	1
58	76	1
26	27	3
14	76	1
69	69	1
43	94	2
40	40	2
89	90	1
115	115	2
12	68	2
77	80	1
11	68	2
81	83	1
72	119	1
86	87	1
20	26	1
99	99	1
51	51	1
48	48	1
66	119	1
55	55	2
44	71	1
13	15	2
115	126	1
27	113	2
10	40	4
100	123	1
96	123	2
17	36	1
26	29	2
104	105	1
9	16	2
78	119	1
83	100	1
129	133	2
77	78	2
23	24	2
107	134	1
61	73	1
113	113	1
5	6	2
75	119	1
88	114	2
30	31	1
121	122	1
126	127	1
