89	89	20
69	69	16
62	62	7
72	72	30
54	54	22
58	58	11
68	68	15
35	35	10
52	53	2
100	100	11
77	77	10
96	100	4
36	49	2
65	65	16
51	51	22
85	86	5
103	103	14
60	84	5
26	27	6
50	51	14
20	20	4
31	31	12
34	71	2
49	52	7
70	70	31
74	74	20
58	59	7
90	90	12
56	58	1
63	63	23
65	66	8
30	30	12
64	64	13
50	78	2
88	88	11
68	71	4
82	88	3
73	77	4
25	25	6
21	21	14
78	99	5
52	52	2
53	54	3
61	61	12
73	73	30
96	96	20
97	97	14
38	38	11
36	36	8
67	68	6
56	56	6
44	45	4
26	93	3
67	67	18
98	98	14
79	80	5
75	75	13
100	101	14
99	100	7
76	76	8
32	32	16
22	22	9
78	78	11
50	50	23
105	105	9
39	41	7
102	103	4
84	85	1
22	30	4
85	90	4
57	57	14
60	61	5
26	26	6
89	93	2
86	86	7
52	73	2
78	100	1
66	66	13
49	49	7
91	91	17
81	81	24
104	104	19
69	70	7
52	74	1
22	71	2
99	99	20
97	98	5
36	37	7
24	24	22
56	57	1
76	77	3
41	43	2
23	24	3
29	29	12
53	53	9
55	55	17
67	69	6
33	33	5
65	70	2
29	30	1
85	85	12
33	34	2
98	99	1
71	71	2
34	34	5
85	87	5
78	81	1
45	46	2
67	70	1
51	52	6
54	59	4
40	41	7
101	101	14
40	40	5
79	87	3
76	101	3
81	88	7
58	60	1
78	98	3
92	92	8
42	42	2
57	59	2
84	84	7
60	89	6
22	48	1
93	94	2
94	95	3
92	93	6
23	23	14
83	85	1
102	102	16
94	94	8
107	107	6
64	65	3
95	95	7
62	63	6
41	41	5
54	55	1
43	44	3
56	64	1
80	80	6
83	83	4
30	106	6
29	96	1
32	72	3
47	47	1
89	90	6
33	73	5
59	59	20
63	64	9
53	55	1
45	49	1
48	48	7
91	92	2
59	95	7
74	93	2
37	37	4
47	87	1
22	97	3
70	71	5
29	93	1
51	56	2
66	67	1
51	54	2
49	50	1
37	38	4
57	91	3
40	93	1
52	60	1
27	29	3
96	97	4
54	61	1
31	32	3
44	44	2
50	83	2
94	96	3
66	69	3
37	49	1
82	83	1
22	23	4
43	43	6
35	36	2
55	57	2
82	85	3
69	71	1
75	76	4
26	38	1
68	69	3
46	49	1
73	74	2
93	93	9
61	62	2
53	60	2
20	27	1
26	94	1
61	63	2
21	43	1
74	75	4
26	29	1
106	107	1
88	89	6
27	49	2
30	36	1
89	92	1
45	45	2
79	81	1
46	87	1
84	89	1
51	99	1
70	93	3
34	73	3
46	46	1
28	28	1
96	106	4
39	92	1
70	95	5
77	78	3
39	39	2
98	106	5
32	33	1
50	52	3
80	81	3
71	73	1
81	82	1
51	55	2
42	43	1
30	78	1
82	82	3
55	56	3
20	106	2
52	55	1
82	84	1
55	58	1
60	60	1
39	42	2
21	29	1
21	27	1
51	85	1
26	28	1
79	79	1
69	91	1
20	79	1
106	106	1
34	95	1
104	105	1
90	91	1
