102	103	13
70	70	5
9	10	5
100	101	6
97	98	7
119	119	15
94	101	1
48	48	5
4	4	13
32	32	6
49	49	13
111	111	8
94	94	4
113	113	13
103	129	3
122	122	13
76	76	6
124	124	18
38	38	4
23	23	8
48	56	1
60	60	13
128	129	3
65	65	6
82	82	10
2	80	4
92	92	26
126	126	8
61	62	6
104	104	5
102	102	15
114	114	19
104	105	6
0	1	1
127	128	4
91	91	10
115	115	10
74	75	1
90	90	14
39	40	5
110	110	12
77	77	13
64	64	7
117	118	10
52	52	13
12	12	7
95	96	1
54	54	14
2	2	6
1	2	7
104	126	3
103	103	18
16	16	27
43	91	2
29	30	11
8	8	6
27	27	10
131	131	4
50	50	10
108	120	3
80	94	6
49	50	7
67	67	7
42	43	8
120	120	15
56	56	13
107	108	1
124	125	6
99	100	3
70	91	3
81	82	7
129	130	10
45	45	6
46	46	4
30	30	18
22	22	9
21	21	11
22	24	6
26	30	1
75	75	5
51	51	10
84	85	7
55	55	11
79	80	6
15	15	12
40	44	4
33	33	9
123	124	4
99	99	16
59	59	5
1	4	1
10	32	1
81	94	2
24	24	14
49	51	2
11	92	1
47	47	17
46	65	2
22	26	4
10	11	6
104	110	3
1	1	9
123	123	12
107	107	13
5	5	6
13	13	15
25	29	1
68	69	4
0	0	11
11	13	1
101	104	4
84	84	9
61	61	10
89	90	6
55	131	3
6	7	5
105	105	9
3	3	17
7	7	6
95	95	9
45	57	2
71	71	13
2	4	3
26	26	19
6	6	15
45	66	1
17	17	3
44	61	1
28	28	6
41	42	7
11	69	5
69	77	1
50	62	1
31	31	9
42	42	6
44	52	2
69	69	10
130	130	12
88	88	8
20	20	6
117	117	8
4	5	6
40	40	17
3	4	2
42	89	3
39	39	6
112	112	11
0	2	2
90	91	5
43	89	6
102	104	2
39	75	4
19	19	14
125	131	4
31	32	17
109	109	12
72	74	3
51	62	2
128	128	11
24	25	3
14	14	6
127	130	1
108	108	14
98	98	12
66	66	11
60	61	5
80	81	2
69	73	2
97	97	4
26	27	3
73	73	9
48	51	1
34	34	5
75	77	4
103	130	2
32	33	3
40	91	1
77	78	1
56	57	2
107	122	1
2	38	2
84	87	1
45	46	9
18	19	5
83	122	1
126	127	2
25	31	5
41	89	1
64	65	3
63	63	4
88	94	1
58	59	7
81	81	5
43	43	3
6	52	2
101	102	3
23	70	1
57	57	8
11	12	7
110	111	6
8	10	1
106	106	3
59	67	3
101	103	3
47	59	4
114	118	5
101	101	9
121	121	6
120	121	2
0	13	4
106	107	1
58	58	2
93	93	10
38	40	1
49	121	2
40	67	2
82	85	1
29	29	5
129	129	5
5	78	1
13	14	2
52	53	4
43	45	4
18	18	13
0	5	4
68	68	10
83	89	3
0	20	4
74	74	7
89	89	7
78	79	2
100	100	6
12	13	2
103	104	1
56	124	1
66	99	3
25	25	13
57	85	1
87	89	4
126	130	5
121	130	1
115	118	3
132	132	9
41	41	2
11	11	8
46	48	2
114	115	2
44	59	3
66	67	1
76	77	3
76	85	2
85	106	2
14	91	3
14	19	2
96	96	6
109	115	1
133	133	1
2	6	3
115	116	1
127	127	4
117	119	1
7	74	1
118	118	3
23	24	3
33	77	1
25	26	3
104	129	2
126	131	2
113	114	2
72	72	10
14	23	3
125	132	2
65	66	8
11	61	1
98	99	5
19	20	2
91	92	3
93	94	3
83	85	2
15	22	1
67	93	3
119	125	1
62	63	4
1	24	2
50	54	2
83	83	6
9	9	4
112	113	5
107	119	2
45	89	2
25	32	3
40	63	1
15	17	2
16	18	2
38	39	6
30	31	2
87	87	8
44	44	4
43	72	2
33	34	6
16	17	7
80	120	1
92	93	2
63	65	4
125	125	8
87	88	5
20	31	1
21	71	2
70	73	2
21	22	1
78	78	4
27	58	2
57	81	2
115	119	2
39	41	1
62	62	2
110	122	1
80	80	3
44	63	3
125	130	1
15	19	2
69	70	2
126	128	1
94	129	1
11	26	1
75	88	1
111	113	1
23	68	2
66	68	2
69	71	2
96	97	2
33	51	1
25	83	2
53	53	1
83	84	2
12	61	1
85	85	3
45	75	1
43	70	1
33	75	1
118	130	2
28	29	1
55	56	1
46	59	1
93	98	1
7	73	1
50	52	1
51	53	2
50	55	3
73	74	2
79	79	2
118	119	1
50	51	1
131	133	2
0	10	1
21	73	1
2	75	1
63	64	2
50	53	4
1	8	2
76	87	1
9	19	1
93	96	1
125	126	1
61	128	1
54	132	1
119	126	1
67	68	4
99	107	2
49	52	1
86	86	1
105	106	2
81	83	2
51	118	1
108	115	1
128	130	1
10	10	3
57	123	1
112	114	1
86	88	1
86	87	1
82	83	1
71	73	1
17	18	1
70	71	1
75	76	2
15	16	1
109	111	1
43	62	1
108	109	2
72	73	1
44	45	1
119	131	1
91	108	1
101	122	1
49	54	1
59	61	1
108	119	1
79	109	1
6	13	1
64	66	1
113	118	1
