52	54	1
43	44	6
165	165	5
76	76	13
42	47	1
109	111	1
2	2	5
14	14	16
25	25	21
144	192	1
133	133	14
41	42	5
13	58	2
179	179	10
28	66	1
13	61	2
147	148	4
190	191	3
33	33	14
39	39	6
32	32	3
85	85	12
141	141	6
132	133	3
11	11	6
4	22	2
197	197	10
20	20	2
138	141	1
98	98	12
117	117	9
49	49	11
27	27	13
190	192	2
37	37	6
134	134	6
171	171	8
44	44	8
115	115	10
144	144	10
26	27	9
51	51	6
56	181	1
62	62	8
83	83	6
130	130	3
127	127	9
112	112	7
180	180	9
38	39	5
3	24	2
100	101	4
137	138	1
10	10	9
81	86	2
3	3	3
12	12	8
146	146	5
64	65	2
85	86	5
99	99	10
183	183	18
189	190	4
117	119	2
97	98	12
57	57	6
169	169	12
187	187	7
87	87	4
139	139	5
52	52	4
97	97	8
153	153	9
29	29	8
114	148	2
147	147	9
186	187	1
19	19	12
69	69	2
135	135	10
41	41	6
58	58	6
68	68	7
17	17	9
19	20	4
104	111	1
126	126	6
152	152	6
134	136	4
61	61	8
67	67	7
5	5	9
62	63	4
96	96	8
148	149	5
155	156	4
104	109	1
55	56	4
8	8	7
54	54	5
119	120	3
36	36	3
4	4	8
137	137	3
55	55	13
139	192	4
158	158	10
86	87	5
63	63	8
109	110	6
174	174	2
106	107	6
157	157	15
46	46	6
89	89	12
67	68	7
125	128	2
72	75	4
60	84	5
70	71	10
93	94	3
71	71	14
113	152	5
35	35	6
134	135	7
84	84	4
23	24	4
66	66	9
3	6	1
103	104	4
100	100	2
95	96	4
94	94	15
8	19	2
17	18	1
108	108	7
52	70	2
145	145	4
6	8	3
95	114	3
83	87	3
1	3	3
163	163	6
175	175	10
126	184	2
3	4	5
80	80	9
154	154	4
40	40	14
124	143	2
59	85	5
170	170	5
50	50	8
184	184	8
164	165	6
47	48	2
116	116	6
0	3	5
114	114	7
105	105	12
30	30	6
188	188	8
180	182	4
182	183	7
64	64	7
142	142	10
115	147	2
59	60	1
58	174	3
190	190	11
47	77	1
4	23	3
19	60	2
193	193	12
141	179	2
169	170	1
177	177	3
158	159	6
26	26	11
127	146	2
145	146	2
104	105	4
106	106	6
5	19	4
65	65	4
142	193	6
56	57	3
60	60	3
9	9	5
146	190	2
192	192	3
141	173	1
111	153	2
161	161	10
183	184	3
45	45	1
157	158	2
62	88	2
16	16	18
140	140	8
60	86	1
168	168	7
136	136	6
11	56	6
77	78	5
118	118	4
119	119	14
18	18	5
166	166	9
186	186	8
178	178	12
185	185	8
99	101	5
120	120	3
57	58	4
181	182	7
42	42	9
14	33	1
102	103	1
196	197	3
179	182	2
116	117	7
143	143	11
11	57	2
43	45	4
123	124	3
80	81	7
48	48	12
131	140	2
2	3	1
162	163	2
138	138	5
116	127	2
125	125	6
191	191	4
159	161	1
157	166	2
84	85	3
142	145	2
191	192	8
53	53	8
196	196	6
131	131	4
48	49	2
7	7	5
31	73	2
81	82	1
30	89	1
156	156	9
21	21	5
144	146	2
124	186	2
90	90	4
13	13	5
66	70	6
64	71	1
16	60	2
123	187	1
38	40	1
34	34	7
81	81	5
107	109	3
130	139	2
159	159	3
73	73	3
75	75	5
82	84	1
139	179	3
129	130	1
0	0	3
139	140	4
165	166	3
5	8	2
101	101	4
70	72	2
58	64	3
107	107	4
65	69	2
1	2	4
78	78	3
67	74	3
30	64	6
43	46	5
69	70	4
179	180	2
155	155	7
82	83	3
27	28	1
150	150	4
117	147	2
2	5	4
20	21	2
156	168	1
95	95	3
149	149	2
173	173	5
95	146	2
132	132	10
88	88	5
47	47	15
156	169	3
116	121	3
93	101	2
151	151	9
110	110	2
100	102	2
72	72	7
44	46	4
102	155	2
113	113	10
23	23	5
98	100	5
45	46	6
52	53	6
121	122	8
10	11	1
173	182	1
40	41	2
195	195	2
15	86	1
176	182	1
148	148	4
28	90	2
166	167	4
70	70	1
162	164	5
122	122	9
121	148	5
111	112	2
128	148	1
101	102	1
93	98	2
89	90	1
28	28	4
33	37	1
143	173	1
4	5	1
101	142	1
10	58	2
48	52	3
121	121	4
28	30	4
78	79	8
107	108	3
24	100	4
160	160	2
171	172	1
54	55	1
6	6	3
38	38	6
97	140	2
83	84	1
46	49	3
93	100	2
43	43	4
9	18	2
162	162	5
103	110	2
136	137	1
52	150	2
71	72	2
185	186	1
182	182	5
114	115	3
23	48	2
127	128	9
159	160	4
187	188	4
35	36	3
27	101	3
74	158	1
1	58	1
160	162	1
151	153	1
117	118	2
88	90	4
55	171	1
61	84	2
131	132	1
94	114	2
15	16	3
129	129	3
4	9	4
27	88	1
108	110	2
103	112	2
23	55	1
34	36	7
54	170	4
59	83	1
64	171	3
74	75	1
164	164	3
41	43	1
58	59	2
154	169	3
172	172	2
128	128	5
64	70	3
132	178	1
66	74	5
100	172	5
62	73	2
152	153	1
124	124	14
27	100	4
1	62	2
119	122	1
112	153	2
15	33	4
71	73	5
56	65	3
111	111	4
124	125	3
146	147	1
74	74	1
148	150	1
76	77	2
176	177	2
167	167	1
14	37	2
33	34	2
56	99	1
173	174	3
195	196	2
112	152	7
161	162	1
46	48	2
36	37	1
102	102	4
55	65	1
104	104	6
123	149	2
3	22	2
154	155	1
93	172	1
164	167	1
56	64	1
143	144	5
15	15	8
152	154	1
32	82	3
77	179	1
100	174	2
194	195	1
127	143	1
174	175	1
181	181	4
176	178	9
5	10	2
77	79	1
6	7	2
123	148	1
139	193	1
120	121	1
172	183	1
79	79	4
54	70	3
23	181	1
138	179	2
98	99	3
65	70	1
111	154	2
106	151	1
98	175	1
6	22	4
53	169	1
176	176	4
1	1	2
73	74	1
82	82	1
22	22	1
194	194	2
56	56	2
49	50	1
93	102	2
7	22	1
140	141	1
114	144	1
106	112	2
9	11	1
157	165	2
12	58	2
142	143	1
122	123	1
33	86	1
59	59	1
145	173	1
189	189	2
97	173	2
4	19	1
111	152	2
29	156	1
118	119	1
59	61	1
104	112	1
129	191	1
139	178	1
167	169	1
192	193	1
5	22	3
93	93	1
139	195	2
82	87	1
7	8	1
24	24	3
9	10	1
31	31	1
73	159	1
60	61	2
52	71	4
86	86	1
32	80	2
58	61	1
165	167	1
6	20	1
11	12	1
97	174	1
51	52	1
129	194	1
110	166	1
0	1	1
133	195	1
103	167	1
96	97	1
48	72	1
50	51	1
