126	126	8
14	14	12
220	220	20
31	33	3
162	162	11
7	8	5
42	42	26
209	212	2
97	97	15
17	19	4
144	144	7
221	221	18
206	207	4
35	35	24
242	242	24
105	105	10
8	18	4
206	206	21
162	196	5
31	95	4
107	108	7
228	230	3
178	178	17
169	169	20
137	138	10
5	6	10
109	109	10
26	136	5
156	156	20
120	145	1
137	137	8
215	216	12
153	153	6
115	115	11
24	24	21
69	69	20
118	119	14
124	124	2
204	204	9
78	78	5
21	151	6
169	204	6
175	175	14
12	12	29
29	100	2
64	113	4
36	49	2
169	182	1
27	27	17
201	202	9
122	152	3
150	150	10
95	96	4
66	66	6
64	64	13
161	161	8
120	143	1
148	148	7
49	63	3
39	39	16
173	173	6
131	131	5
127	127	15
203	203	13
10	18	3
114	114	5
118	118	6
61	210	3
61	112	2
60	60	8
82	176	4
225	225	14
6	6	12
53	62	2
78	79	4
187	197	3
116	116	16
45	45	12
230	230	10
121	121	5
141	141	5
113	113	8
72	72	19
9	9	27
1	1	7
207	207	22
125	125	7
149	149	15
32	99	2
14	163	6
48	48	11
21	40	1
180	180	12
30	30	16
68	78	5
5	5	13
31	41	2
104	109	4
117	117	11
192	194	5
55	56	2
28	28	20
96	96	9
71	176	3
15	15	7
198	200	6
233	233	22
40	41	6
147	148	9
165	165	11
13	13	12
188	188	15
167	209	4
229	229	9
238	238	12
177	177	12
29	29	9
184	184	12
180	181	16
11	12	7
18	21	4
164	164	10
160	161	3
23	23	14
119	119	8
51	53	2
1	59	2
74	74	26
11	11	7
168	168	4
65	67	1
33	33	17
26	26	21
145	145	5
8	48	5
75	75	8
85	85	24
85	111	1
127	135	2
135	188	1
168	187	6
123	124	7
10	10	10
222	222	12
158	239	1
100	100	5
155	155	7
77	88	3
134	134	18
143	159	2
20	21	8
37	37	10
29	96	2
106	106	17
160	160	22
212	212	13
39	225	1
174	175	6
109	111	2
111	111	8
51	51	19
89	89	1
103	117	4
138	138	16
178	179	2
68	68	5
172	172	14
27	136	1
217	218	11
120	120	18
217	219	3
36	36	9
135	137	2
70	70	13
73	73	17
22	22	11
65	108	1
38	48	2
58	59	11
139	139	15
195	196	3
209	217	2
25	25	15
163	163	9
133	134	5
86	86	20
159	159	15
9	91	1
106	112	1
226	226	7
165	228	5
61	116	3
72	212	4
157	232	3
97	98	3
214	215	3
128	128	13
49	65	5
61	61	20
65	65	8
104	104	9
13	14	3
49	50	3
50	51	1
59	60	8
185	185	5
199	200	6
38	38	10
115	119	5
67	143	2
208	209	5
202	202	15
167	196	4
151	152	5
25	44	5
196	196	10
146	235	4
63	63	6
125	126	9
57	59	4
223	223	7
139	184	2
43	43	7
95	104	2
203	204	5
236	237	3
71	71	15
13	21	2
198	201	4
202	209	1
143	143	5
8	65	4
121	144	5
46	46	15
122	122	13
3	68	2
39	53	4
10	19	4
151	151	10
56	56	2
160	162	1
226	227	4
235	235	16
232	232	17
101	101	13
102	103	2
50	61	1
218	218	4
107	107	2
110	110	9
140	140	9
194	194	13
32	32	11
209	209	13
11	69	4
104	105	4
75	152	1
35	103	2
75	88	3
36	48	6
18	18	8
34	34	11
157	157	4
61	115	3
117	118	5
163	197	4
143	146	4
53	53	11
224	224	7
214	214	7
70	73	2
36	52	2
164	166	5
81	82	6
159	170	4
148	149	2
171	172	7
161	195	3
221	222	11
123	138	2
159	183	2
233	234	2
142	191	4
199	199	8
174	174	11
138	142	1
136	136	21
166	167	1
213	213	11
16	16	6
36	58	5
77	77	13
24	223	6
2	74	3
155	239	2
151	162	4
2	2	9
50	60	1
200	200	8
70	71	7
103	103	1
226	230	6
99	100	3
156	162	1
146	156	2
37	38	1
193	193	4
129	129	15
157	199	2
122	123	6
166	166	11
95	100	1
7	9	2
123	125	2
66	138	2
12	72	1
96	100	2
135	135	6
80	84	2
194	202	1
146	147	6
23	153	1
241	241	6
211	212	6
136	137	4
70	174	3
17	17	7
20	43	3
127	134	1
12	16	7
190	191	6
0	22	2
61	62	2
164	165	8
121	123	3
143	155	4
184	186	2
20	75	6
3	85	3
14	18	2
31	31	3
103	105	2
219	219	23
3	3	7
52	52	8
120	121	2
58	60	2
225	226	6
192	192	7
167	168	3
79	102	1
19	19	7
141	142	3
108	109	4
154	239	5
223	224	3
133	133	8
4	4	4
76	76	14
222	224	6
148	151	4
83	83	10
183	204	3
23	224	2
67	67	8
147	147	17
228	242	2
65	111	5
13	23	1
84	84	9
167	167	8
208	208	17
6	56	4
22	23	2
42	43	8
240	240	12
37	42	7
174	181	1
231	232	1
115	204	1
156	161	2
88	88	5
65	171	1
83	87	2
228	228	9
241	242	1
148	150	2
182	204	2
81	81	9
191	191	11
40	40	5
190	190	4
201	201	16
66	67	5
138	140	6
62	62	15
35	36	3
238	239	2
122	137	1
45	46	1
176	203	1
133	198	1
76	77	5
0	0	8
27	28	10
187	187	6
183	183	8
68	120	1
0	2	1
115	118	2
154	156	4
150	152	2
140	142	10
1	69	7
38	53	5
80	80	5
176	176	5
66	120	3
201	203	5
74	75	3
78	102	2
141	195	1
157	161	1
22	224	4
21	21	13
44	44	16
3	10	1
120	153	9
12	18	3
121	122	1
62	63	5
123	123	5
220	221	1
20	20	15
41	41	6
49	51	1
157	241	2
44	45	4
234	234	3
169	192	2
146	146	4
186	186	11
14	21	7
154	154	14
197	197	11
182	183	3
158	158	7
213	216	4
111	113	2
201	205	2
234	237	2
205	207	2
82	85	3
205	208	3
185	214	1
196	197	1
175	178	4
189	190	3
115	116	6
79	79	7
11	19	3
8	8	10
126	127	3
49	49	7
57	57	11
61	105	3
177	179	2
127	128	1
229	231	1
64	218	4
39	48	1
38	39	4
219	241	1
237	237	10
200	201	3
190	205	5
99	103	3
139	154	2
76	81	3
182	182	7
224	227	2
142	142	2
55	55	5
104	108	3
76	154	3
46	47	7
17	18	2
75	120	4
231	231	12
14	74	6
236	238	4
224	228	2
130	131	2
4	80	7
37	59	2
72	73	6
195	195	9
171	222	1
138	139	6
64	97	1
3	6	4
137	231	1
79	108	5
236	242	2
98	116	8
49	52	2
41	42	2
144	147	12
145	149	2
65	119	1
58	58	7
112	112	6
12	13	2
24	25	5
59	59	6
75	153	1
35	99	7
47	47	11
56	57	4
153	158	1
168	194	5
191	192	5
178	204	2
140	146	3
49	101	1
100	101	5
62	222	4
73	82	4
4	5	2
166	213	2
154	158	1
146	155	2
171	171	9
232	233	5
11	20	1
54	55	4
165	166	7
67	222	2
26	137	1
210	210	6
71	211	2
207	213	1
166	190	2
197	201	1
97	112	2
135	136	7
178	208	3
9	23	3
74	106	1
207	208	4
50	50	6
29	31	6
170	203	2
239	239	3
25	26	5
179	180	7
153	230	2
170	171	1
144	146	3
235	236	4
161	194	1
211	211	12
40	42	3
185	186	3
103	104	3
140	141	1
34	103	3
175	203	1
39	42	3
227	229	3
233	235	1
42	44	1
236	236	2
98	104	4
66	142	4
124	183	2
144	145	3
1	6	1
175	180	2
13	22	2
69	70	6
5	66	4
130	138	1
24	224	1
108	108	3
116	117	6
98	98	6
141	145	3
3	65	1
203	205	2
27	38	1
81	86	3
179	179	11
112	113	2
2	78	3
171	183	1
73	105	1
104	106	2
202	203	4
12	19	4
197	198	1
211	215	2
21	22	4
81	83	1
156	157	3
2	67	1
157	158	5
193	194	1
181	181	4
80	83	4
11	77	1
237	239	2
3	52	2
32	33	4
29	41	3
30	31	3
54	61	1
121	138	2
77	79	3
148	152	1
131	132	1
32	35	4
114	118	2
211	218	3
31	34	2
3	86	7
7	7	6
121	139	1
124	125	1
176	178	2
30	95	3
71	72	2
4	6	1
235	238	1
174	176	3
13	15	2
86	102	4
145	153	2
23	24	2
13	20	2
95	95	3
185	205	1
74	101	3
114	119	1
141	147	2
234	235	5
177	178	2
211	213	3
121	146	7
189	189	6
0	1	4
168	221	4
176	177	4
231	242	3
12	15	1
71	83	2
169	183	1
222	225	3
184	185	3
152	152	2
156	158	2
164	193	1
65	138	1
24	26	2
160	195	1
52	56	7
98	99	6
119	142	2
15	16	3
3	5	2
159	160	2
50	54	2
66	119	1
72	211	2
191	197	1
137	229	3
123	144	3
195	199	3
104	107	2
120	123	4
23	77	2
52	53	3
155	158	4
210	218	3
34	60	2
2	5	3
14	22	3
182	210	2
175	176	2
227	227	10
143	158	1
102	102	6
57	102	1
216	216	4
143	161	1
0	4	4
35	101	1
18	73	2
187	188	1
210	213	4
224	226	2
36	57	3
50	102	2
193	227	4
126	172	1
151	172	2
99	99	3
205	205	4
34	35	2
228	229	3
162	163	1
167	187	1
173	203	1
198	198	4
130	130	2
187	191	1
54	70	1
101	102	1
82	82	2
83	84	6
169	170	5
24	68	2
131	173	4
20	69	1
181	182	2
100	109	1
222	223	4
181	198	1
229	230	2
81	105	1
31	96	4
39	102	1
24	152	2
167	195	1
25	122	2
135	197	3
61	182	3
100	104	2
61	208	1
96	106	3
144	148	1
74	161	1
170	183	2
80	104	2
139	147	1
176	206	2
123	126	1
18	19	2
29	81	3
26	85	2
64	137	1
239	240	5
170	170	4
139	140	3
222	242	3
78	84	1
183	184	2
10	69	1
16	73	3
157	186	3
36	37	1
174	178	1
51	57	1
7	77	1
64	65	2
217	217	5
221	241	3
160	183	1
172	173	3
150	151	1
37	53	1
188	190	1
57	58	3
195	197	1
203	206	3
52	57	3
51	52	2
10	25	1
141	146	3
39	43	3
149	152	1
30	33	1
23	79	1
134	138	1
168	191	1
185	199	2
183	213	1
66	215	2
208	211	1
80	81	4
178	181	2
171	223	2
81	84	4
29	110	1
162	199	2
11	71	2
72	83	2
29	85	4
2	4	2
19	20	2
69	147	1
71	174	1
100	110	2
228	231	3
149	151	1
19	72	2
0	72	2
184	191	2
29	84	1
24	44	1
49	59	2
0	69	3
144	185	1
220	242	1
28	40	1
142	195	1
149	150	1
139	153	1
75	149	1
137	165	1
8	9	1
211	217	1
65	113	3
198	199	1
201	218	1
145	146	2
41	226	2
188	197	1
50	53	1
109	110	2
177	204	3
180	207	2
98	103	1
51	60	1
167	186	1
178	182	1
147	172	2
125	197	2
205	206	2
1	10	1
234	236	2
138	141	1
114	120	1
223	225	2
1	57	2
124	199	1
171	186	1
10	24	1
10	44	1
122	202	2
27	238	2
51	62	1
132	135	1
122	127	2
190	197	1
67	68	3
39	44	1
75	86	1
127	129	1
116	118	1
117	119	1
163	198	2
171	220	1
165	226	1
17	223	1
199	216	1
48	59	2
210	217	1
0	5	1
105	106	1
170	219	2
154	229	4
143	144	1
159	187	1
88	89	1
14	162	1
177	182	1
40	226	2
131	136	1
189	207	1
86	110	1
48	49	1
8	66	1
54	54	2
48	56	3
157	159	1
203	207	2
214	217	1
137	140	2
220	241	1
170	204	1
99	105	1
63	222	1
162	195	1
207	212	1
69	74	1
49	53	2
79	109	1
129	130	1
14	23	1
9	64	3
124	177	1
172	208	1
11	16	1
192	193	1
3	69	1
47	48	1
16	19	1
2	81	1
24	228	2
12	71	1
95	103	1
96	97	1
27	85	1
222	231	1
240	241	1
168	195	1
239	241	1
28	96	1
157	239	1
166	193	1
147	152	2
144	224	1
215	215	2
24	120	1
35	96	1
48	66	1
97	101	1
28	38	1
31	100	1
54	56	1
74	160	1
75	102	2
7	24	1
172	217	1
7	10	1
28	29	1
16	18	1
191	194	1
144	159	1
114	117	1
63	65	1
182	205	1
66	68	2
6	78	1
64	183	1
182	200	1
139	149	1
23	68	1
145	235	1
130	174	1
171	192	1
77	78	1
0	57	1
79	104	1
176	182	1
224	225	1
163	190	1
1	77	1
143	153	1
139	229	1
178	180	1
40	49	1
125	176	1
136	188	1
223	241	1
95	121	1
68	217	1
167	194	2
139	143	1
69	209	1
148	171	1
196	201	1
220	222	1
190	206	2
