2	99	4
112	122	2
79	87	2
167	167	8
52	52	7
80	80	11
42	42	9
2	2	7
156	156	5
71	72	2
71	71	3
50	51	6
37	37	8
78	122	2
87	87	9
129	129	9
141	141	8
112	112	10
6	6	4
8	146	6
113	114	1
13	14	6
111	117	3
137	137	13
16	16	3
161	161	6
131	131	6
149	150	7
153	153	8
48	48	3
121	145	5
146	146	7
119	119	10
79	79	8
134	135	4
35	35	14
72	86	2
150	150	21
169	169	14
108	110	2
93	93	6
1	1	7
166	166	4
125	126	7
5	8	3
18	19	5
48	130	2
116	116	18
11	11	9
22	47	1
153	154	1
21	24	4
98	98	14
17	18	2
47	49	3
154	154	15
44	44	19
118	118	6
88	88	11
73	73	7
97	97	12
13	49	3
40	40	5
28	28	4
152	152	4
55	55	1
43	43	9
36	36	15
76	77	1
114	114	7
148	148	3
25	25	7
166	168	4
108	108	8
145	145	16
147	148	1
106	106	10
73	83	4
115	120	3
102	152	4
14	14	7
3	3	11
155	155	6
152	154	1
112	114	3
125	125	4
10	10	10
4	98	8
51	52	5
9	18	3
162	165	3
101	142	7
110	110	5
9	9	4
100	112	2
75	128	4
90	90	6
8	9	3
74	74	7
100	100	6
11	84	3
161	162	4
160	161	3
77	80	1
162	163	1
112	138	2
83	83	11
26	26	10
36	37	3
10	65	4
24	24	5
82	84	2
149	151	1
78	78	10
6	7	9
82	82	3
162	162	8
95	95	6
12	12	5
159	159	7
94	94	5
67	118	2
91	92	7
89	102	6
54	55	2
1	42	1
99	99	15
155	157	2
135	135	18
67	68	3
27	27	6
15	16	5
0	0	5
81	82	3
107	155	3
111	111	7
8	8	9
86	86	12
124	164	3
125	155	3
64	65	2
125	127	5
130	131	2
16	17	5
20	20	7
94	129	4
57	57	3
117	118	4
118	119	3
34	34	4
135	170	3
18	46	3
62	73	1
82	103	2
91	91	4
70	70	4
168	168	8
17	88	3
45	45	12
14	15	5
125	153	3
165	165	8
4	4	8
65	65	5
43	106	2
1	3	1
150	156	1
56	56	3
159	161	5
109	112	1
89	120	1
142	142	8
124	124	16
91	95	6
54	57	3
15	15	8
127	127	4
1	133	3
149	149	4
80	81	4
65	67	6
69	69	4
139	140	4
19	19	5
16	22	5
139	139	6
63	63	1
126	126	10
28	37	1
88	136	3
106	107	2
121	121	4
72	72	3
115	121	1
158	158	8
105	107	1
39	40	4
86	87	8
133	133	1
83	84	3
73	154	1
34	35	3
82	146	1
12	55	2
98	102	1
127	130	2
41	41	10
85	97	2
66	80	3
73	75	2
21	21	8
46	49	2
103	104	5
122	122	3
157	157	3
39	39	5
168	170	3
13	13	5
101	101	3
85	144	1
38	39	3
25	26	6
84	94	1
90	105	4
1	48	2
47	57	2
55	81	1
123	125	2
42	54	1
91	116	5
105	118	1
20	21	4
15	34	1
150	151	5
56	86	3
90	119	2
67	67	6
22	22	5
133	134	2
46	46	3
57	62	1
78	79	1
84	84	9
10	73	1
61	61	1
147	151	4
99	112	1
108	137	1
121	162	3
23	23	7
133	138	3
63	65	2
128	129	3
3	4	5
80	82	2
159	160	1
109	122	1
101	102	4
13	170	1
126	127	3
77	77	4
12	24	2
107	107	1
90	91	2
73	74	3
138	139	3
78	135	3
130	130	3
88	108	1
49	50	3
123	124	4
140	162	3
121	122	3
33	36	4
117	117	6
123	123	7
101	108	3
47	48	4
54	54	2
132	133	2
42	138	2
4	45	1
18	18	4
79	84	2
105	131	2
66	66	2
39	41	2
111	138	1
109	109	3
137	138	1
4	5	2
105	105	4
46	47	5
75	83	2
132	132	10
97	119	3
97	105	1
47	47	2
19	20	2
85	85	1
7	7	4
20	45	3
96	96	4
115	117	1
85	96	4
10	47	3
140	140	1
134	134	3
1	4	2
115	115	2
9	10	3
128	128	4
65	66	4
102	102	7
139	141	1
82	83	1
103	103	3
87	103	2
100	104	2
89	135	2
150	155	1
58	58	1
62	62	1
163	163	4
16	126	4
92	130	2
93	94	4
0	58	1
64	66	3
164	164	2
40	65	1
5	6	1
144	148	2
11	52	2
144	144	2
49	49	3
17	17	13
3	5	4
75	75	4
65	69	4
81	100	3
140	141	2
104	105	1
147	147	8
113	121	1
102	126	3
99	104	1
105	120	1
96	97	2
131	136	1
91	93	1
21	169	3
1	150	1
57	74	1
161	163	3
170	170	3
84	86	3
21	22	1
54	116	1
92	124	2
101	103	1
102	103	1
48	132	2
138	138	2
116	117	3
110	159	2
88	105	2
152	153	1
86	131	2
52	120	2
160	160	1
6	100	2
138	144	1
165	166	2
71	157	1
7	8	1
74	75	2
35	112	3
5	44	1
93	97	1
114	115	3
24	76	1
88	89	2
87	99	1
12	47	1
89	89	2
72	84	1
102	114	1
110	111	3
45	46	2
0	1	1
13	50	1
39	43	1
145	146	1
46	63	1
144	145	2
103	108	1
104	115	2
143	143	1
123	164	1
8	131	2
105	117	1
66	67	2
136	136	1
49	135	3
36	38	1
11	51	1
38	105	1
40	42	1
116	118	1
167	169	1
151	155	3
148	149	1
76	76	2
0	40	1
135	167	2
14	17	1
107	108	1
83	96	2
132	134	2
58	163	1
99	101	1
75	129	1
63	64	1
113	163	1
33	33	2
56	81	2
56	113	1
52	53	1
119	120	1
23	24	1
92	92	1
145	166	1
164	165	2
51	51	1
157	168	1
26	56	1
50	50	1
64	64	1
38	38	1
146	158	1
104	104	2
109	121	1
28	35	1
105	142	1
20	22	2
86	139	1
