79	79	6
72	72	5
122	125	1
40	41	3
48	48	2
119	120	3
123	124	6
105	115	1
78	78	3
91	91	2
68	68	5
26	28	3
11	11	9
124	125	6
112	112	7
95	95	1
20	21	5
45	45	5
15	16	2
7	8	3
18	18	8
98	127	2
97	100	1
35	35	5
62	63	1
18	35	2
98	121	1
39	39	6
86	86	4
32	32	5
103	104	3
81	82	4
35	36	4
10	10	10
25	26	2
131	132	5
105	105	6
36	36	5
9	63	2
73	74	4
34	34	5
117	117	6
92	93	4
91	92	4
134	134	5
47	116	3
22	22	2
132	132	5
31	32	6
62	62	11
56	59	2
118	119	2
26	26	2
1	2	1
1	7	4
102	103	2
6	13	1
118	118	3
123	134	3
77	77	5
24	24	2
121	123	1
13	16	1
55	59	3
114	114	4
58	58	11
8	20	1
9	9	4
37	38	6
92	92	9
116	116	2
129	129	2
16	16	1
61	61	8
121	121	1
2	4	3
126	126	6
104	105	5
121	122	3
55	55	2
107	120	1
114	115	1
44	44	6
15	17	1
127	128	5
101	101	3
120	122	2
63	63	7
64	64	4
125	125	2
111	111	5
66	67	1
130	130	6
93	94	6
74	74	5
106	106	3
103	103	15
94	94	1
95	98	2
49	49	1
87	87	1
90	101	3
47	100	1
110	110	2
23	23	6
85	85	1
117	118	2
124	131	2
7	13	6
87	88	3
22	23	1
36	39	1
133	133	1
98	128	5
113	114	1
27	28	1
60	60	7
110	111	1
71	98	1
109	134	2
18	20	1
21	22	3
71	115	1
66	66	11
107	109	1
112	114	1
44	46	1
9	34	3
72	73	2
61	64	3
73	73	3
9	10	1
76	76	5
0	14	1
8	8	1
116	117	1
25	25	2
51	55	2
96	97	2
81	81	2
32	33	2
21	21	2
96	96	6
56	56	2
96	120	3
40	40	2
122	133	1
92	94	2
38	38	2
67	67	2
77	102	1
133	134	1
115	115	2
30	30	6
59	59	2
0	0	2
128	128	3
82	82	4
71	71	3
62	64	2
28	28	2
39	41	2
5	5	3
15	15	2
46	47	1
82	83	1
37	37	2
131	131	3
97	97	1
61	62	1
70	70	2
32	59	3
107	107	1
69	69	2
19	19	1
68	69	2
31	31	2
126	131	1
77	80	2
80	80	4
33	33	1
126	130	1
2	2	3
78	79	2
54	55	2
84	85	1
41	41	1
129	130	2
80	81	1
124	124	1
95	101	3
17	17	1
50	55	1
1	1	2
104	104	1
34	35	1
67	68	1
95	97	1
100	100	1
118	120	1
123	123	1
78	80	1
125	131	1
113	116	3
47	47	1
115	116	2
120	120	1
48	60	1
57	59	1
99	99	2
91	96	1
83	84	1
93	93	1
