211	224	1
4	33	3
108	108	2
19	34	4
129	129	2
214	215	1
2	2	2
142	142	5
0	0	4
212	212	1
79	79	3
45	45	8
85	85	10
43	47	5
182	182	6
154	156	2
104	104	2
74	75	1
221	221	6
51	51	10
55	55	8
136	138	1
76	76	8
226	226	5
117	118	1
22	34	1
52	52	3
27	219	1
9	9	2
0	6	3
202	202	4
239	241	2
220	220	5
38	65	1
56	89	2
115	117	1
129	206	2
15	15	5
24	24	3
71	71	5
203	203	2
20	20	3
100	100	3
98	99	1
5	5	6
47	47	1
146	148	2
64	171	5
83	83	6
234	236	2
164	164	5
166	173	5
4	6	4
97	97	10
116	116	7
119	130	2
86	86	2
13	32	3
178	224	1
170	174	2
140	140	6
0	216	2
80	83	3
98	126	2
214	227	3
147	147	3
3	3	10
233	233	1
137	137	4
155	155	5
63	63	4
27	172	1
127	206	3
154	154	5
48	57	3
165	198	2
28	220	1
154	155	2
239	240	5
30	210	2
13	13	9
121	122	1
178	178	1
209	210	4
135	135	5
54	54	7
71	78	1
13	15	1
165	212	2
213	213	2
70	70	6
160	191	3
103	103	4
229	229	4
166	166	4
105	105	2
69	179	2
35	35	1
98	101	8
18	21	1
46	46	5
170	222	4
173	173	5
146	146	6
200	200	1
141	142	1
143	143	3
29	29	9
162	162	1
186	186	10
11	11	1
35	36	1
118	206	1
165	165	5
163	184	3
39	39	3
123	123	5
23	234	1
14	14	3
78	83	1
180	189	2
118	119	1
26	26	2
207	208	4
22	22	6
185	185	5
40	42	4
34	36	2
0	220	1
191	191	2
215	215	3
9	16	2
202	206	2
215	227	1
34	35	6
105	110	5
5	36	1
39	45	6
173	174	4
79	84	1
163	163	1
172	172	6
59	59	3
150	158	1
56	56	3
198	198	7
196	196	3
231	236	1
61	61	5
138	138	2
8	34	7
25	25	5
28	28	6
118	118	2
81	81	9
234	234	8
230	236	1
241	241	2
217	218	5
111	111	2
65	68	4
55	60	2
42	47	2
109	110	1
30	30	1
74	74	2
56	57	5
175	175	5
120	120	7
53	53	8
78	79	2
179	179	5
59	60	5
180	180	1
214	214	9
231	235	4
73	73	5
164	195	2
175	176	6
220	221	2
113	113	3
175	242	1
109	109	4
190	190	4
229	230	2
130	205	1
134	135	4
41	59	4
167	223	5
161	163	2
167	167	1
228	228	1
35	235	1
168	168	4
169	221	1
48	89	2
69	74	1
204	204	4
44	45	2
216	216	4
71	99	1
88	88	3
37	38	4
210	212	1
130	130	5
166	198	5
112	112	1
189	189	5
217	217	2
125	125	1
110	110	3
25	26	2
75	76	2
210	210	1
84	84	7
67	67	5
187	188	5
81	83	2
121	121	2
50	50	4
114	129	1
192	192	4
178	179	3
4	28	1
43	43	2
8	19	2
62	62	1
109	129	1
16	33	5
237	237	2
48	49	1
222	222	1
0	1	1
235	235	3
197	197	2
179	180	3
179	181	1
151	151	3
114	130	1
224	224	3
113	119	2
9	10	3
242	242	14
232	232	3
133	133	5
63	64	2
58	58	5
181	187	1
181	181	4
30	31	4
188	188	2
50	56	5
8	9	4
226	228	1
74	79	1
36	36	1
150	161	1
199	199	6
146	147	2
195	195	2
160	190	3
28	33	2
109	120	1
41	66	2
166	167	1
107	107	4
149	149	4
171	171	3
8	8	2
77	176	1
236	236	1
29	31	4
193	193	3
117	127	3
95	95	1
139	140	1
173	207	4
48	48	1
187	187	1
37	37	3
165	169	3
106	106	1
196	225	4
60	60	3
119	119	3
227	227	3
231	232	1
128	128	2
118	122	1
1	216	2
168	181	2
134	134	4
105	108	1
103	107	2
169	211	2
174	174	1
6	33	3
192	193	1
19	26	1
182	190	1
40	41	1
214	216	1
142	145	2
105	106	1
136	136	1
181	198	2
151	152	1
122	122	4
23	235	1
70	201	3
8	10	4
42	42	2
82	82	3
27	220	7
101	128	2
172	173	2
64	64	1
21	21	2
77	177	1
77	77	3
74	77	1
123	127	1
128	179	1
187	198	2
167	224	2
114	114	2
189	190	1
220	222	1
149	150	1
1	1	1
157	157	2
38	38	4
135	136	2
17	17	1
230	237	3
197	226	1
66	67	1
7	16	1
27	27	3
77	117	2
53	55	1
187	206	1
0	2	2
179	182	2
150	150	2
117	117	2
18	19	1
184	195	1
138	141	1
1	7	1
178	239	1
113	182	1
22	23	1
65	69	2
168	223	1
120	153	1
207	207	2
163	196	1
102	123	2
226	227	3
240	240	1
182	191	1
79	80	2
149	184	2
69	69	1
4	4	4
231	233	1
18	18	2
234	235	2
170	170	1
47	58	1
102	124	1
35	237	1
72	83	1
152	157	3
48	50	1
137	156	1
11	13	1
77	78	2
175	177	1
218	219	2
238	238	3
169	212	1
59	88	1
23	34	1
145	147	2
233	238	1
75	176	2
12	36	1
28	222	1
64	65	2
239	239	1
21	23	2
65	65	1
117	200	1
183	183	3
6	28	1
197	225	1
166	174	1
118	176	1
177	177	1
230	230	1
141	149	1
198	199	1
185	186	1
215	238	1
68	68	1
37	172	1
237	238	1
116	182	1
133	146	1
106	136	1
206	206	1
186	197	1
188	189	1
28	211	1
3	19	1
6	6	1
175	202	1
77	79	1
231	231	2
71	201	1
12	13	1
122	123	1
142	144	1
139	142	1
66	66	1
169	213	1
96	96	1
77	84	1
83	84	1
