17	40	1
173	173	5
5	5	8
12	20	4
43	43	8
88	89	2
102	132	2
151	151	7
163	163	2
178	178	1
80	80	10
15	16	8
84	84	3
71	71	5
103	104	6
112	112	8
62	62	3
53	53	8
177	177	7
23	23	11
28	29	5
171	171	6
125	130	4
54	63	4
168	168	7
32	32	4
43	44	4
9	9	3
145	168	4
154	154	5
154	170	2
93	93	5
113	113	8
22	22	3
37	43	1
21	22	6
109	109	2
142	154	2
87	155	1
176	176	11
134	134	14
10	10	5
123	132	2
16	18	3
150	150	3
74	109	1
138	138	13
17	17	7
145	145	4
153	153	8
119	124	1
75	75	9
74	74	9
23	43	3
56	56	2
8	8	4
97	98	1
61	61	4
144	144	5
89	89	2
124	125	3
98	98	4
148	148	3
82	82	6
64	64	4
122	122	8
67	67	4
0	0	9
155	155	3
134	135	2
174	174	5
139	139	7
129	129	4
37	41	2
137	138	2
65	68	4
19	19	6
73	73	2
72	72	5
140	140	5
5	28	2
106	123	3
60	80	3
141	142	4
1	1	6
57	73	2
83	88	4
65	65	6
166	167	4
74	75	3
81	99	3
161	161	8
116	116	3
97	97	7
34	34	5
86	87	1
16	16	2
91	91	2
5	8	2
142	143	3
107	121	3
37	37	3
79	79	7
77	148	3
155	156	6
5	9	4
115	156	2
77	77	7
178	179	2
157	159	1
100	101	4
106	106	3
22	25	8
98	99	3
156	171	4
38	38	3
49	67	2
129	158	3
24	25	4
63	63	5
179	179	8
98	101	3
130	131	5
133	133	6
39	39	3
83	86	3
162	162	7
33	33	4
42	42	3
146	146	3
95	100	2
83	83	5
180	180	6
95	107	1
132	132	4
53	55	2
2	2	2
44	44	2
21	21	7
159	160	4
168	173	6
137	137	8
111	111	8
50	52	1
4	18	2
36	64	6
54	85	2
90	90	5
101	102	3
5	6	2
172	175	2
172	172	3
70	71	1
169	169	3
1	2	4
103	129	3
177	178	6
121	121	2
5	38	2
8	9	1
77	141	1
99	99	5
164	165	1
56	73	1
89	90	1
124	124	5
11	32	1
59	60	3
167	167	3
80	82	2
147	168	3
4	4	4
12	13	2
30	30	5
13	13	3
159	159	9
55	73	1
156	157	2
8	12	4
110	110	8
87	171	1
94	106	1
146	168	1
96	132	2
57	57	8
4	12	1
173	174	1
95	95	2
130	138	2
39	41	1
96	97	2
58	59	4
25	44	2
115	116	1
14	15	1
13	33	3
45	45	2
108	108	4
25	26	4
98	126	3
145	146	3
123	159	1
152	160	1
13	14	1
22	23	2
107	107	1
1	11	2
11	13	3
6	38	2
79	80	1
122	123	1
78	96	1
160	162	2
68	68	1
3	9	1
16	17	5
123	123	2
147	148	4
147	167	1
31	31	2
32	34	2
110	158	1
88	88	3
146	170	2
61	63	2
168	171	1
15	15	4
149	150	4
13	35	2
65	96	1
164	164	2
16	31	2
157	173	2
51	51	4
131	153	1
111	162	1
66	133	2
35	42	1
64	96	1
74	111	1
157	158	3
56	57	1
145	151	2
135	135	3
175	175	1
26	27	1
126	126	1
35	63	1
41	42	3
170	170	1
149	149	2
3	15	2
105	106	1
11	28	2
1	4	4
0	1	2
143	143	3
110	111	1
30	109	1
158	159	1
13	31	2
38	73	1
5	7	1
157	157	3
76	76	1
123	124	1
125	125	3
30	31	1
127	127	3
31	32	5
79	141	1
135	136	2
78	78	2
63	67	1
168	169	1
18	18	1
165	166	1
114	160	2
81	81	3
37	38	2
155	157	2
55	55	1
9	110	1
129	138	1
18	19	1
96	96	2
147	150	1
177	179	1
105	105	3
8	13	2
31	40	1
112	176	1
152	152	1
118	118	2
5	13	1
136	136	3
148	149	1
27	27	2
50	51	2
164	166	1
174	175	2
119	119	2
39	108	2
60	60	1
66	135	1
164	173	1
141	141	2
142	142	1
10	168	2
123	127	1
27	28	1
163	166	1
35	36	1
159	173	1
112	113	1
71	72	1
101	101	1
102	102	2
3	3	1
11	12	1
