117	117	6
86	86	5
71	72	1
121	121	7
63	63	4
32	33	3
59	59	11
57	57	12
73	73	6
122	122	3
12	12	7
58	59	1
119	120	5
0	0	11
54	56	2
74	74	12
46	47	4
47	47	10
50	50	13
51	51	19
7	110	2
5	5	9
82	111	2
114	114	11
69	70	3
15	15	10
44	44	5
67	67	3
78	78	1
23	23	2
7	64	2
89	89	22
13	13	9
111	111	8
85	87	2
8	18	2
54	54	9
118	118	15
6	7	3
21	28	2
1	104	4
97	98	7
129	129	4
6	6	13
112	112	12
11	98	3
77	77	13
69	69	8
78	79	3
94	94	12
82	83	4
70	70	8
104	104	6
33	33	11
32	34	5
26	26	4
90	90	4
110	110	11
99	99	5
128	128	14
49	49	9
85	88	1
71	71	3
9	9	2
120	120	9
106	106	7
94	98	1
65	66	3
7	7	5
61	65	2
127	130	2
103	103	3
76	77	1
46	48	5
26	39	1
65	65	11
3	68	2
63	64	8
27	32	1
7	112	1
19	19	8
1	2	9
115	117	2
93	97	1
48	48	3
77	130	6
92	92	2
111	124	2
83	83	2
98	98	4
53	114	3
129	130	5
34	34	7
85	85	5
4	8	3
113	113	10
0	1	4
60	60	2
124	124	8
88	88	5
123	123	5
80	132	3
76	76	15
32	32	6
14	14	15
62	63	2
109	109	4
21	21	12
126	126	2
4	69	1
130	130	3
26	38	1
95	95	8
87	87	2
41	41	4
93	93	5
3	15	2
96	98	3
10	11	4
53	56	1
105	106	3
56	56	14
3	4	3
66	66	7
104	105	1
16	23	3
2	2	5
41	60	1
18	18	8
96	118	1
73	75	1
91	91	5
42	79	1
14	21	3
49	52	3
106	107	1
105	105	3
126	128	2
61	61	4
118	125	1
30	30	3
58	61	2
0	104	1
118	126	5
9	25	1
20	20	7
53	53	3
99	102	2
54	125	2
43	43	4
25	25	5
79	79	5
41	88	2
42	83	3
20	21	1
1	1	7
96	100	2
81	82	1
80	81	2
64	112	1
96	96	2
50	51	2
42	82	1
45	46	1
102	102	8
13	30	1
3	3	2
107	107	9
81	81	5
17	17	5
62	62	8
82	82	4
64	64	3
93	94	5
84	87	2
127	128	3
16	16	2
125	125	6
72	72	3
131	131	2
33	34	4
8	8	3
108	108	3
58	65	1
30	31	2
70	100	3
27	39	1
116	116	6
38	105	1
11	11	7
40	104	1
8	14	3
52	57	1
128	130	1
41	75	3
1	19	3
60	63	1
2	3	2
29	29	2
53	120	1
80	80	5
24	24	1
52	52	4
81	109	4
6	92	5
62	66	4
6	104	2
121	123	1
52	53	2
102	103	5
83	103	1
100	100	6
39	39	4
40	40	2
99	100	5
68	68	5
114	116	1
27	27	5
119	119	4
117	128	1
72	73	2
16	20	2
29	31	2
110	124	2
8	9	3
52	60	2
80	93	2
59	85	1
113	132	1
98	99	1
9	11	1
128	129	2
63	112	1
97	97	1
76	132	2
1	30	1
7	9	2
22	22	3
101	101	2
93	95	2
21	29	1
62	64	4
65	82	1
121	122	1
84	84	3
1	17	2
83	84	3
46	75	2
132	132	3
56	57	3
26	107	1
67	68	2
9	10	1
54	103	2
79	80	1
14	34	2
42	42	2
3	5	2
96	116	1
6	39	1
7	8	2
41	59	2
45	45	2
126	129	2
31	31	2
110	111	1
44	45	1
113	114	1
12	13	1
80	103	2
4	4	1
9	108	1
11	39	3
104	122	1
19	24	1
116	117	1
25	92	1
18	30	1
4	6	1
104	110	2
53	57	1
51	80	2
127	127	3
123	124	1
111	123	1
24	92	1
133	133	4
101	102	1
116	130	1
15	32	1
13	26	1
120	122	1
6	112	1
97	115	1
97	114	1
56	60	2
91	113	1
88	103	1
28	28	1
44	49	1
94	96	1
107	108	1
127	131	1
78	82	1
113	120	1
50	52	1
4	67	1
117	118	1
