1	52	2
15	16	5
23	51	1
47	47	5
44	45	4
55	138	1
168	170	1
12	57	1
122	133	2
134	137	1
92	92	13
8	8	7
48	48	11
43	43	10
163	163	7
153	154	7
74	74	12
19	19	8
70	70	9
80	93	2
117	117	11
72	72	4
111	111	6
119	119	7
98	124	3
117	147	1
156	156	10
121	121	3
165	165	10
17	17	12
4	11	1
40	40	10
25	26	1
21	24	7
79	79	10
141	141	3
98	98	4
135	136	2
44	44	2
127	127	9
126	127	2
7	7	5
51	51	6
13	15	4
46	46	4
84	84	3
79	80	6
39	39	9
91	92	3
146	146	9
70	118	1
132	137	3
114	114	7
83	83	1
35	35	5
20	21	1
46	129	1
143	145	1
154	156	4
90	133	3
107	107	12
62	62	10
46	49	3
18	18	7
34	34	6
71	71	10
86	87	5
76	77	2
131	131	7
122	124	1
164	164	4
87	87	10
108	165	1
137	161	2
2	69	7
122	122	7
94	94	10
105	105	2
63	63	2
164	165	3
80	80	2
42	42	8
168	169	8
7	132	1
26	27	1
155	156	6
79	148	6
109	109	2
135	161	2
68	68	10
45	55	2
27	27	4
107	163	2
163	164	2
9	9	10
128	128	5
155	155	5
148	148	3
75	75	7
125	125	6
142	142	13
1	2	2
95	95	7
6	6	11
128	135	1
100	100	9
48	49	1
166	166	8
55	76	4
88	88	5
66	66	4
64	68	1
56	56	4
64	64	3
96	96	5
24	24	7
2	3	2
78	78	6
76	76	4
14	14	5
20	20	6
142	143	4
93	93	5
14	36	3
111	167	2
108	108	3
91	116	5
68	78	3
103	103	4
136	136	15
150	150	9
158	158	9
144	144	3
157	157	8
54	54	4
137	137	3
105	119	4
75	79	3
133	133	4
90	90	12
139	144	2
52	52	4
3	157	1
110	110	7
67	135	3
93	112	1
98	100	2
160	160	4
1	1	3
13	13	9
26	118	1
41	41	8
99	99	14
105	106	4
80	107	2
23	123	3
64	66	3
154	154	5
113	113	9
66	117	2
55	55	8
0	0	10
124	124	4
35	36	3
9	10	1
123	123	7
139	139	4
38	38	7
88	96	2
4	4	5
149	149	5
76	92	1
76	127	3
49	49	5
6	7	4
129	130	3
77	77	8
118	118	7
20	128	1
63	64	2
93	94	2
130	130	4
11	11	9
151	151	6
88	168	2
126	126	4
73	81	1
70	148	1
7	57	1
167	167	2
21	22	4
65	65	9
74	75	5
98	99	1
70	71	2
149	150	2
104	104	5
17	54	2
87	104	3
73	73	5
9	130	1
115	115	2
90	114	6
124	146	1
15	15	4
95	101	2
86	86	3
129	129	6
143	143	3
67	69	5
57	57	7
101	101	4
85	168	1
80	81	4
70	90	2
135	135	4
121	122	3
152	152	2
162	162	12
24	25	3
120	120	5
46	72	2
99	119	1
116	118	1
24	51	2
116	116	2
120	121	4
10	10	3
95	148	1
147	147	2
115	117	1
85	86	2
168	168	5
36	37	2
130	131	2
82	82	3
148	149	1
102	102	2
51	55	4
78	82	1
161	161	4
160	162	2
63	73	3
78	127	1
11	12	2
132	132	6
20	25	4
140	140	3
19	20	3
44	57	2
53	159	2
3	35	3
43	157	3
130	143	3
133	134	2
107	108	3
6	12	2
20	24	3
123	124	1
2	150	1
119	145	2
145	145	4
121	124	2
76	79	3
88	89	1
89	89	6
53	53	10
22	24	1
22	22	4
114	149	1
39	40	2
167	170	1
85	85	3
139	145	1
69	69	3
90	92	2
33	33	2
18	157	2
27	164	1
86	102	1
108	164	1
109	110	1
12	12	2
101	103	2
20	76	2
67	67	2
117	118	2
37	37	1
85	87	1
77	78	1
134	134	3
74	85	2
106	106	1
121	123	1
67	71	1
75	138	2
83	95	1
4	5	1
80	141	1
70	93	2
67	131	2
68	77	3
89	132	1
138	138	2
96	105	4
122	136	1
103	104	1
18	19	2
5	5	1
65	66	1
10	11	1
100	102	1
69	115	1
8	71	2
112	112	2
161	162	1
66	94	1
83	107	2
96	100	1
159	159	1
10	71	2
10	134	2
81	81	1
91	114	1
68	69	2
170	170	2
65	68	1
127	143	1
88	130	1
84	101	2
169	169	2
71	109	1
145	146	1
104	105	1
9	122	2
36	36	1
19	46	1
98	169	1
44	53	1
169	170	1
68	73	1
40	152	1
16	16	2
80	148	1
80	95	2
119	120	1
9	65	1
39	79	1
125	126	2
154	155	1
138	139	1
56	57	1
67	68	1
87	169	2
137	138	1
83	84	1
3	3	2
3	16	1
47	49	1
99	106	1
24	36	1
82	83	1
52	53	1
53	55	1
1	14	1
