72	153	7
34	110	1
41	42	1
24	24	12
54	54	4
6	6	3
104	104	2
103	103	11
73	153	4
16	16	1
93	94	4
67	67	12
137	138	7
80	80	1
53	53	3
70	109	4
19	70	5
122	122	3
142	142	4
68	77	3
142	143	1
71	71	6
10	11	3
43	43	10
109	109	5
46	46	11
10	128	6
40	40	8
111	112	1
147	147	5
22	22	8
50	75	1
132	154	2
148	148	3
131	131	1
5	17	2
47	47	10
81	81	3
39	43	1
138	138	5
27	27	8
17	19	3
62	62	5
123	123	3
112	112	1
135	135	5
56	56	6
84	84	4
130	130	1
12	12	10
63	63	8
77	77	5
62	80	1
33	57	2
107	138	1
97	97	5
18	18	10
153	153	6
68	69	7
118	118	10
74	80	3
65	66	2
115	117	3
83	83	3
68	68	3
154	154	9
118	119	6
14	90	2
139	141	1
84	147	2
87	87	5
57	57	4
25	67	3
63	65	3
3	73	2
42	42	7
14	14	3
31	31	3
108	109	7
72	72	5
66	66	8
128	129	3
116	116	3
11	12	4
3	32	2
86	86	4
15	15	4
107	107	13
113	113	19
74	79	3
64	66	2
105	105	1
98	112	3
129	129	6
13	13	1
140	140	8
45	45	7
57	142	3
19	19	5
27	28	4
41	41	4
73	73	6
75	75	5
85	85	8
136	136	4
131	132	3
69	71	1
74	74	2
35	36	1
21	21	9
48	48	10
65	129	1
20	27	1
117	118	1
113	114	2
107	115	2
114	114	3
98	99	3
9	19	1
70	111	2
43	44	1
8	9	4
39	44	5
50	50	2
108	108	6
123	144	1
106	106	4
29	29	5
76	77	6
35	35	3
128	128	5
149	149	7
92	92	5
20	20	6
39	40	3
125	128	2
64	135	2
19	23	3
10	10	9
38	46	5
30	30	2
106	107	3
111	111	3
33	76	2
16	48	2
76	76	2
99	113	8
72	74	3
97	98	6
135	136	6
41	43	1
15	16	3
144	145	1
23	24	1
48	49	2
35	45	2
150	150	5
93	93	3
109	113	3
147	149	2
9	10	2
44	47	2
36	37	4
2	17	2
55	55	3
81	82	5
136	137	4
11	11	2
57	94	2
30	31	5
105	106	2
62	76	1
119	119	2
20	21	2
57	108	4
22	24	1
31	33	3
126	127	1
130	134	1
129	130	6
119	122	1
25	25	6
18	69	1
93	95	1
34	34	2
10	87	2
152	152	6
6	7	3
102	102	3
146	146	3
79	79	2
151	151	7
24	67	2
130	131	1
96	96	4
94	96	4
147	151	2
144	144	1
3	3	2
114	139	2
78	78	2
13	15	3
105	145	2
88	88	1
147	148	3
124	130	3
114	116	1
32	32	1
100	100	2
44	44	4
69	69	4
137	137	1
55	56	1
65	65	2
120	122	1
77	78	1
39	39	2
143	144	1
30	73	2
149	150	1
125	127	1
24	69	2
152	153	2
53	54	2
65	78	2
33	33	4
74	82	1
115	118	3
51	55	1
65	127	1
95	95	2
125	125	1
87	92	2
6	63	1
90	101	2
83	84	1
129	133	2
86	147	1
17	70	2
12	13	2
139	139	1
140	141	1
4	31	1
64	128	1
107	113	3
56	95	1
48	52	1
6	81	1
126	126	2
99	112	2
34	73	3
95	102	2
86	144	1
131	133	1
17	17	2
32	33	2
29	30	1
8	8	1
106	108	1
64	64	1
57	93	3
76	141	1
18	19	1
71	72	1
23	23	1
115	115	2
99	99	2
85	86	1
34	38	1
116	118	1
11	13	1
101	102	1
63	64	1
132	132	2
124	125	1
40	41	2
19	20	1
78	79	1
71	108	1
26	28	2
26	30	1
5	5	1
25	28	1
37	46	2
64	67	1
121	122	1
23	27	1
47	72	1
131	142	1
70	70	1
52	52	3
28	28	1
110	111	1
80	127	1
62	73	1
134	134	1
