63	63	10
35	36	3
133	133	4
120	120	10
69	71	3
12	38	3
112	121	2
102	102	6
109	109	3
125	125	8
97	98	11
63	69	3
126	126	6
33	55	1
30	30	2
113	114	5
4	5	4
49	49	1
1	70	3
30	32	3
77	78	2
11	11	4
59	104	1
43	43	3
83	84	3
59	59	8
36	38	2
64	64	7
90	90	8
97	97	1
0	0	5
112	128	5
22	24	1
10	11	1
20	21	1
65	65	5
95	95	3
35	35	3
87	124	2
66	67	1
112	131	1
94	94	12
15	15	1
60	108	3
74	74	5
50	56	3
38	38	2
74	75	1
11	14	7
8	9	3
25	26	5
32	46	5
36	36	4
86	86	13
130	130	7
75	75	2
72	72	4
27	27	3
87	87	2
111	111	3
32	32	4
45	60	3
92	92	6
102	107	1
127	133	3
57	57	7
94	95	5
16	16	8
113	113	2
14	34	2
107	107	4
47	47	7
66	66	14
13	30	1
81	83	1
39	39	6
110	110	6
23	24	1
44	105	2
37	134	3
17	17	4
122	122	1
121	125	5
34	34	2
31	31	2
106	106	1
33	33	5
103	103	1
85	86	2
22	22	7
34	61	1
83	83	8
56	56	4
68	68	9
82	82	5
73	95	2
19	19	3
36	37	1
12	14	1
104	105	3
21	21	3
110	128	1
36	39	2
14	14	3
124	124	2
118	126	1
73	94	2
7	7	7
46	46	3
31	32	4
113	129	4
18	18	6
9	10	2
103	104	2
82	89	1
79	80	3
23	26	1
119	119	3
134	134	3
14	27	3
128	133	2
81	81	3
93	94	3
13	32	2
98	98	4
70	70	2
11	47	2
109	110	4
19	20	1
61	61	6
41	41	5
123	125	3
110	111	2
62	62	3
9	9	2
125	126	3
131	131	2
4	51	1
37	38	5
37	37	1
114	114	6
12	12	3
23	23	9
10	66	4
120	125	2
99	99	1
84	85	5
34	35	1
41	56	1
129	129	3
124	125	2
25	25	4
130	131	2
123	123	2
91	91	3
108	108	3
111	112	2
118	118	3
110	129	2
132	132	2
117	117	2
85	85	3
44	45	1
43	59	1
21	22	3
105	105	4
88	125	2
1	1	1
9	62	2
122	131	2
100	100	2
55	55	2
26	27	1
18	27	1
5	6	1
78	78	4
65	67	3
48	48	1
85	125	2
67	67	1
121	130	1
127	132	2
15	27	2
18	26	1
127	127	4
3	6	1
123	129	2
10	10	2
45	45	2
60	60	4
15	38	2
59	60	3
107	120	1
40	42	1
47	69	1
9	47	1
35	40	2
7	8	2
123	130	3
115	115	1
27	29	2
3	3	4
63	71	2
40	40	1
8	8	5
73	73	3
78	83	1
37	109	1
78	81	2
113	115	1
36	42	1
128	128	1
51	51	1
75	76	1
14	40	1
32	33	2
29	29	1
112	113	1
99	127	1
10	57	1
15	29	1
6	6	1
86	124	1
44	60	1
67	68	1
115	116	1
87	88	1
4	4	1
84	87	1
88	88	1
112	123	1
44	44	1
119	120	1
79	79	2
26	28	1
80	82	1
14	37	1
101	101	1
6	56	1
108	110	1
2	2	1
109	111	1
37	127	1
76	77	1
2	61	1
80	80	2
111	128	1
99	102	1
20	20	2
127	128	1
7	56	1
16	17	1
