107	107	11
113	114	5
113	124	1
37	37	17
35	35	23
126	126	19
62	75	5
31	31	18
128	131	8
57	59	3
118	118	12
92	94	10
130	131	2
96	96	19
33	33	18
123	123	15
62	63	18
55	55	22
56	56	13
71	71	14
131	131	26
103	103	22
131	132	6
61	61	12
145	145	16
84	96	2
0	7	4
121	135	2
20	23	6
68	68	15
122	133	8
41	41	18
21	21	23
95	95	18
110	110	11
120	120	22
50	50	8
109	109	18
29	29	12
54	56	6
5	6	5
32	35	6
3	86	2
125	125	28
108	108	7
32	33	3
94	94	20
78	78	14
93	93	17
119	119	14
138	138	14
2	3	3
28	28	9
97	97	23
74	74	13
129	129	16
95	96	5
42	101	2
124	124	34
49	56	4
30	30	17
5	92	2
117	117	16
79	79	19
121	129	4
61	75	1
114	115	6
78	79	9
67	68	13
119	134	4
5	5	19
52	53	7
28	29	13
67	67	18
11	11	12
90	90	20
37	96	8
63	63	16
3	3	13
21	23	2
91	91	14
105	105	26
64	64	12
54	54	30
77	77	13
6	7	7
64	65	6
65	71	2
29	30	1
132	133	4
9	9	14
142	142	15
69	69	4
73	73	13
107	108	9
81	81	22
25	37	2
93	94	6
143	143	16
57	57	4
40	41	11
140	140	7
138	139	6
49	50	8
81	82	3
26	97	7
19	24	6
80	82	4
83	83	12
17	19	7
0	0	10
88	92	8
78	81	4
26	28	3
47	48	5
19	20	1
66	66	11
14	14	10
58	125	5
97	98	8
18	18	20
112	112	21
127	135	2
20	34	2
28	103	4
43	138	4
125	127	4
17	17	33
115	117	3
48	48	14
136	140	8
82	82	14
68	69	2
99	100	9
72	72	19
57	58	3
99	99	16
55	82	2
57	129	3
15	109	4
83	84	3
118	119	7
144	144	22
115	120	4
48	86	2
52	52	8
17	23	2
75	75	25
9	10	2
24	24	21
95	98	1
18	106	7
37	38	7
100	105	3
134	134	15
49	49	11
1	1	23
56	60	1
89	90	6
139	140	3
16	17	13
15	15	8
87	141	6
85	121	1
84	84	13
2	2	20
80	123	2
35	36	2
123	124	13
22	22	32
10	10	19
110	132	2
120	142	1
20	24	9
22	100	6
76	77	10
13	15	4
10	27	1
76	76	12
60	135	2
27	28	2
54	55	6
62	62	12
92	92	17
121	121	16
42	42	22
88	88	11
128	128	19
75	78	7
104	106	2
141	141	15
47	47	7
18	105	3
93	109	2
4	4	13
124	133	4
60	61	7
117	118	3
136	137	5
139	139	17
5	49	1
82	93	3
80	81	11
101	101	17
47	83	1
8	9	1
124	125	8
98	98	24
3	6	3
39	39	10
80	80	15
137	140	1
130	130	18
122	123	3
36	37	4
23	23	8
27	101	7
43	43	6
99	101	2
40	40	5
86	86	8
20	20	6
73	74	2
102	102	12
16	36	2
53	53	13
0	1	11
50	51	7
12	13	13
64	75	1
89	109	4
91	93	2
53	54	5
115	136	5
122	122	7
59	60	1
136	136	18
98	99	5
28	102	1
20	21	7
34	34	22
40	97	2
23	24	2
10	76	2
102	103	8
47	84	2
97	99	1
64	73	1
8	101	1
21	28	3
16	24	3
100	101	6
29	103	3
120	141	4
71	72	6
104	104	11
53	55	1
49	80	5
124	128	1
38	38	17
127	140	1
124	130	3
116	116	11
114	119	1
19	105	4
10	62	9
145	146	1
59	61	1
87	121	1
25	99	2
89	108	1
115	118	4
114	114	6
85	87	2
125	126	5
14	30	1
132	132	9
49	85	1
16	16	14
51	51	4
33	37	2
58	122	2
100	107	2
60	144	3
108	109	7
127	127	9
12	27	2
110	121	3
100	100	21
12	17	3
111	111	9
106	106	8
137	138	3
135	140	3
67	103	1
26	26	8
59	59	10
58	134	2
103	104	1
21	26	2
126	132	9
138	140	5
134	138	5
32	32	11
85	85	11
94	106	1
36	36	5
135	135	13
81	95	2
65	65	4
127	133	4
41	100	2
91	110	3
13	14	1
87	87	8
100	106	1
22	23	1
8	31	3
6	12	1
146	146	13
8	8	8
17	106	1
19	19	10
120	121	3
3	13	1
25	26	2
96	99	3
23	26	5
4	5	2
60	126	1
21	33	6
4	93	2
59	124	2
122	128	5
53	56	3
18	21	3
17	95	3
27	27	10
83	85	4
13	13	8
53	57	1
82	83	1
18	19	1
41	52	1
144	145	7
48	68	2
60	60	9
17	100	2
4	6	1
100	130	2
1	6	1
112	121	3
84	121	1
34	36	4
68	71	2
125	133	6
18	82	1
79	81	4
10	11	4
125	139	2
58	58	5
19	104	1
102	139	2
6	6	6
112	113	7
104	105	4
56	79	1
68	90	1
17	26	3
144	146	1
8	49	3
63	75	2
41	42	7
62	65	2
41	99	2
105	115	3
9	26	2
6	8	2
70	71	3
33	34	2
40	94	2
38	97	1
17	104	6
113	113	6
104	117	3
55	59	1
75	76	2
142	143	2
51	52	6
89	89	9
71	73	2
15	29	1
17	22	1
69	90	4
25	35	2
50	52	2
25	25	7
141	142	1
103	115	2
6	37	1
18	25	1
17	103	1
51	55	2
79	80	5
34	35	6
128	129	2
3	12	1
134	136	1
135	137	1
125	140	5
19	26	1
85	89	5
5	37	2
126	133	1
96	107	1
48	72	1
60	116	1
18	104	2
81	87	3
25	33	2
12	12	4
27	33	2
2	4	1
7	62	1
82	98	2
2	13	1
120	135	1
2	84	2
70	70	5
98	107	2
81	83	2
101	102	3
119	125	2
19	96	1
20	26	2
12	104	5
4	43	2
39	40	7
96	98	1
56	129	2
25	38	4
88	91	3
26	99	1
87	139	2
26	100	1
17	18	3
134	139	8
61	144	1
111	114	2
115	115	1
61	79	2
105	106	3
129	130	1
128	130	2
135	138	1
29	117	3
92	110	3
95	106	1
90	109	2
12	16	1
8	48	3
4	92	2
38	39	2
50	56	4
1	139	1
108	110	2
98	108	1
59	79	1
83	123	1
19	23	2
38	98	4
143	144	2
120	134	2
90	91	2
22	101	2
58	59	2
120	123	1
24	25	4
25	36	1
67	72	3
58	60	2
118	133	3
0	4	3
62	64	2
49	82	1
101	142	2
103	106	1
19	25	8
2	89	1
28	41	2
94	95	2
69	70	2
22	37	1
135	139	1
38	96	3
49	60	1
38	91	4
18	24	2
23	104	1
137	137	2
5	84	3
91	113	2
77	78	3
127	131	1
8	11	1
25	34	3
66	72	1
22	142	1
121	122	2
16	29	2
24	36	1
1	7	1
1	87	2
18	22	2
63	64	1
115	121	1
33	36	1
116	135	1
113	123	1
69	72	1
59	123	1
1	138	1
4	47	1
50	66	2
121	132	1
3	138	1
69	71	1
101	128	1
11	13	1
65	66	3
66	67	3
133	138	1
38	99	1
41	98	1
30	31	1
71	74	2
67	73	1
134	135	2
31	33	1
11	15	1
16	19	1
19	99	1
102	118	1
136	139	1
109	110	1
81	85	1
13	21	1
15	108	1
31	32	1
124	138	1
1	4	1
11	28	2
61	76	1
23	30	1
97	107	1
86	121	1
116	117	1
103	125	1
127	130	1
48	90	1
15	122	1
17	105	1
