101	103	5
103	103	1
83	88	3
32	39	3
78	78	4
102	102	3
28	28	8
94	94	4
97	97	10
48	53	3
21	32	2
58	65	2
19	24	1
84	95	5
50	53	3
79	79	6
59	63	2
24	25	2
47	47	7
78	98	1
55	82	1
61	62	1
72	105	2
54	54	1
71	71	4
72	72	6
97	102	1
80	86	2
36	39	3
95	104	3
60	81	2
36	37	1
32	32	4
73	88	2
58	81	4
96	103	4
56	59	2
80	83	2
40	41	2
64	64	6
37	39	3
72	75	2
56	57	1
72	88	5
96	101	2
51	51	6
105	105	3
70	70	6
61	61	2
84	94	3
56	77	3
80	81	8
35	36	2
54	98	3
86	89	2
57	63	3
74	93	1
97	101	3
35	43	5
70	91	2
49	53	1
81	81	13
50	55	2
103	104	2
46	52	5
46	61	1
34	50	5
37	38	1
57	69	2
30	30	1
28	43	2
27	40	1
98	104	2
29	37	4
83	83	5
52	71	2
57	68	2
85	100	1
29	29	3
44	62	3
84	91	1
106	106	3
62	62	3
74	74	3
68	69	4
67	81	1
25	36	2
37	37	4
77	88	1
84	101	2
81	95	2
45	45	2
47	59	2
49	49	5
67	88	1
59	66	1
43	43	1
26	26	2
88	88	2
45	50	4
87	87	1
41	41	5
68	68	5
99	99	2
59	101	1
83	106	5
90	90	1
97	98	1
65	65	6
85	103	1
84	84	5
52	52	4
99	106	1
46	46	2
50	64	1
55	83	3
75	76	6
42	44	1
71	104	3
75	90	1
82	98	2
63	63	4
73	73	6
33	35	2
93	104	2
86	104	2
74	94	2
43	44	1
81	86	1
44	55	2
39	45	1
78	94	1
59	59	6
76	76	4
79	94	2
48	49	2
68	78	3
30	51	2
60	79	3
45	57	1
37	46	2
83	84	3
50	57	1
32	50	2
38	46	1
107	107	2
72	73	2
81	82	4
100	101	2
57	57	1
78	84	1
76	97	3
69	69	3
67	85	3
61	77	2
80	80	2
70	90	3
82	82	1
67	82	2
45	51	2
52	53	2
65	68	1
91	103	2
102	104	2
96	96	2
93	101	1
82	102	1
89	90	1
83	89	1
47	64	3
55	80	1
64	89	1
59	69	1
62	69	1
83	87	1
103	105	2
23	23	1
86	86	2
53	53	3
79	92	2
52	94	2
93	93	2
32	34	2
46	48	1
84	90	1
32	37	1
70	105	1
20	38	1
45	70	1
64	90	2
87	95	1
28	40	1
98	103	1
22	40	1
39	44	2
32	42	1
90	92	1
35	39	1
73	76	1
33	34	2
66	66	4
49	51	1
65	85	1
50	50	1
58	59	1
85	86	2
57	70	1
92	97	3
60	60	1
30	37	1
57	83	1
44	48	1
56	58	1
27	28	1
67	80	1
49	64	1
65	97	1
44	45	1
75	94	1
95	95	1
