136	138	2
65	66	3
70	70	5
30	31	1
54	54	7
42	42	20
48	50	1
19	19	8
52	52	4
49	49	15
95	96	8
55	55	7
9	9	6
128	128	20
141	141	12
36	36	9
41	41	4
66	67	4
12	12	5
128	129	8
82	91	2
13	13	5
99	117	3
76	76	4
99	99	1
39	39	1
52	56	3
73	73	12
139	139	8
80	119	1
68	69	6
71	92	3
97	98	2
120	122	1
58	62	3
11	17	2
81	121	5
50	51	2
94	94	8
107	108	6
109	128	6
65	75	2
89	90	1
96	126	10
28	28	5
70	122	3
79	79	6
23	23	10
142	142	7
29	29	9
134	134	14
53	53	11
113	113	7
81	81	15
121	121	5
60	60	16
97	97	5
137	138	6
98	99	2
145	145	13
123	124	3
124	124	8
112	112	14
58	58	8
0	30	1
34	38	3
131	131	7
107	128	3
145	146	5
15	15	11
127	127	6
64	64	12
111	111	15
61	61	18
4	9	4
40	53	1
96	96	6
142	143	5
40	40	8
136	136	13
138	139	4
59	66	5
75	75	12
51	51	5
24	35	1
143	144	1
41	139	5
78	78	11
103	103	1
14	14	5
68	70	4
117	118	4
112	114	4
110	110	7
35	35	5
51	56	1
93	94	3
90	126	1
67	68	5
74	75	4
32	32	5
65	65	11
111	112	1
104	104	11
13	14	7
63	63	3
82	85	1
62	64	6
2	2	4
90	91	7
25	35	2
9	10	1
8	8	8
21	21	9
80	89	1
91	91	9
11	12	1
28	141	2
126	126	3
135	135	4
4	86	1
130	130	6
123	123	3
21	22	1
66	66	22
60	61	2
114	114	6
34	34	1
31	31	9
17	17	3
1	1	11
119	119	3
106	106	11
39	51	6
82	126	4
80	94	1
10	11	4
109	109	10
85	85	8
114	115	5
59	61	3
47	139	1
24	34	5
68	68	5
43	43	5
3	6	1
65	67	1
50	50	4
26	140	1
117	127	1
54	57	4
119	121	1
0	23	1
76	78	5
24	36	2
108	129	3
122	122	10
118	119	3
56	63	1
26	27	3
67	67	4
110	111	3
132	132	2
91	92	5
105	105	4
10	17	1
47	47	4
59	59	4
3	3	6
88	88	7
27	140	1
35	81	3
22	23	4
25	25	9
1	27	1
130	131	3
1	34	1
107	107	3
96	97	5
97	99	1
35	41	1
31	33	3
80	81	3
72	72	10
133	134	1
35	92	1
72	92	5
128	131	1
56	57	2
84	86	4
100	100	2
131	133	3
26	33	1
4	4	5
129	129	3
41	141	2
99	101	3
113	116	1
74	74	3
27	27	7
126	135	2
42	139	1
116	116	3
83	84	3
30	30	2
96	135	1
24	24	3
133	133	5
101	110	1
92	94	1
138	138	2
83	83	6
58	61	1
117	117	6
72	120	2
53	72	3
76	77	3
80	80	2
30	32	4
118	118	11
105	110	1
143	143	1
11	11	2
96	125	2
39	48	1
36	48	1
50	52	2
18	18	3
93	93	4
4	5	4
29	142	1
102	102	6
71	71	3
100	103	1
101	102	2
18	20	1
2	3	6
0	1	3
86	87	1
58	59	1
136	137	2
101	131	2
22	22	2
108	109	2
91	94	1
0	0	4
5	9	5
24	33	1
37	39	2
100	135	1
98	125	1
18	19	1
78	79	6
38	50	4
90	90	4
3	34	1
120	120	3
34	36	1
6	13	1
81	82	1
84	84	2
90	139	5
75	76	4
108	108	3
88	139	3
6	6	1
2	34	2
5	5	8
36	39	1
14	18	3
94	95	2
70	79	5
63	78	3
70	71	1
55	75	2
33	41	2
124	125	1
125	126	1
125	125	1
97	134	1
53	54	1
92	93	2
13	20	3
92	92	4
98	98	2
89	119	1
24	25	1
81	94	1
38	52	1
34	40	3
87	90	1
26	139	1
19	20	3
31	32	2
55	57	1
77	77	2
111	117	1
99	100	3
85	115	1
98	134	1
61	67	2
72	93	1
4	6	1
48	48	1
120	121	2
108	127	1
54	73	1
117	119	1
49	50	1
116	118	2
70	124	1
102	103	1
127	139	1
37	37	1
57	60	1
16	16	3
47	88	1
66	76	1
72	80	1
96	136	1
69	70	2
69	77	1
126	138	1
38	38	1
73	77	1
144	144	2
0	33	1
82	82	3
86	86	1
84	87	1
14	16	1
56	56	1
132	134	1
25	26	1
2	86	2
68	78	1
3	20	1
26	141	1
62	63	1
114	116	1
10	21	1
95	95	1
104	110	1
