9	9	6
8	13	1
86	98	3
24	101	1
67	67	1
34	72	1
93	93	4
49	49	3
42	43	5
27	78	2
123	123	5
44	46	5
153	153	3
63	64	3
90	100	2
133	137	5
37	50	1
132	144	1
73	92	3
130	132	1
77	77	2
119	136	5
82	98	1
75	83	1
35	35	2
87	96	3
8	9	2
142	143	2
121	121	2
122	129	4
108	128	1
46	47	3
138	138	3
71	71	4
12	28	3
148	148	3
130	130	2
118	126	6
124	125	3
33	33	3
129	157	2
70	70	2
2	3	3
133	146	3
107	107	6
47	48	1
22	22	4
34	41	1
26	33	3
147	147	1
29	29	4
113	148	2
3	3	2
124	143	4
22	23	1
6	29	2
2	21	2
126	126	3
6	7	1
136	136	6
24	39	4
34	34	4
54	54	6
8	8	2
114	115	3
122	123	3
117	135	2
122	133	2
82	82	2
3	21	3
101	101	1
18	42	1
27	28	2
107	116	1
51	52	1
145	156	1
148	155	5
13	24	3
144	159	3
157	157	2
0	17	1
44	45	4
125	151	2
142	146	1
89	90	4
96	96	1
22	27	1
48	48	1
154	154	4
30	34	1
100	101	1
133	133	3
1	19	2
32	48	1
95	95	4
132	132	2
4	16	2
108	119	4
26	26	2
119	150	4
125	125	3
72	73	2
145	146	1
18	18	2
139	140	2
28	28	3
88	114	4
31	32	1
109	112	1
47	47	4
100	122	1
48	51	2
2	14	1
31	45	3
116	118	1
2	2	2
36	42	2
144	144	1
81	94	1
147	153	1
69	97	3
62	65	1
7	16	1
138	158	3
133	155	3
99	99	5
127	149	2
124	141	3
139	139	2
94	94	2
1	4	4
104	118	1
30	33	3
40	44	1
144	155	3
120	136	1
109	109	1
36	46	1
52	52	4
20	20	2
102	103	1
134	155	1
92	100	3
43	43	4
13	31	1
113	115	1
69	70	1
22	33	1
114	130	2
75	75	1
10	10	3
155	157	1
156	156	1
144	151	1
52	73	1
117	133	1
121	124	2
44	55	3
122	136	1
5	5	1
39	57	1
131	132	1
140	140	1
102	104	1
135	135	1
91	94	1
12	12	2
68	68	3
146	155	1
19	30	2
11	11	1
38	38	2
142	155	2
17	18	2
132	151	1
104	111	1
125	149	1
108	126	3
13	13	5
33	38	1
122	126	1
24	24	5
127	131	1
30	52	3
114	124	1
90	90	2
22	36	2
30	44	1
131	135	2
51	67	1
145	145	2
26	47	1
49	52	1
146	146	1
155	156	1
24	66	2
132	145	1
20	41	1
66	66	1
89	89	1
115	115	1
122	125	1
23	23	2
106	107	1
73	73	1
100	100	1
80	93	1
42	56	1
78	80	2
110	120	1
86	99	1
18	21	2
133	134	1
86	86	2
25	25	1
88	88	1
15	15	1
126	131	1
20	21	1
31	38	2
83	83	1
129	156	1
127	127	1
39	48	1
8	10	1
1	2	1
26	35	1
35	38	1
38	39	1
50	51	1
91	91	1
41	90	1
42	42	1
