25	25	6
23	23	8
72	73	7
73	84	1
63	64	9
101	103	1
21	102	1
34	34	22
110	110	14
42	51	2
48	48	9
107	107	13
101	102	2
28	70	3
68	97	3
68	96	3
25	95	2
63	93	5
70	107	2
22	23	2
103	103	7
114	114	4
105	105	11
108	108	7
49	49	2
54	54	9
55	55	12
36	111	1
93	94	5
104	107	3
58	59	9
80	81	5
58	58	16
45	46	7
87	88	10
28	28	10
42	42	17
106	107	8
78	114	2
103	105	3
73	73	11
20	20	9
96	96	5
94	94	10
22	22	8
37	39	3
88	109	2
31	96	6
50	50	1
54	72	2
97	97	9
106	106	14
24	24	3
68	68	6
32	108	2
60	60	12
44	44	8
68	80	1
104	104	10
41	41	4
95	95	12
49	56	1
43	53	4
82	82	6
49	81	2
47	47	6
43	43	19
61	114	1
28	104	6
27	27	15
36	36	14
42	52	2
20	83	1
45	45	6
81	81	15
81	84	2
77	88	1
69	69	10
36	98	4
59	85	2
85	85	4
37	38	7
112	112	5
31	36	2
94	103	1
86	88	2
54	74	2
59	61	2
41	66	2
32	32	6
56	88	1
32	33	4
106	111	2
86	91	2
99	99	4
74	74	15
53	53	4
26	95	2
33	33	1
29	60	3
56	56	9
46	47	10
101	101	12
81	85	4
56	89	2
36	43	5
60	61	2
48	80	2
21	32	2
27	29	3
31	31	10
44	53	6
91	92	3
91	91	8
65	65	18
90	90	6
21	83	1
66	66	4
42	43	9
72	72	10
61	61	6
71	73	3
92	102	3
30	30	2
66	67	1
70	70	3
24	96	3
59	59	7
74	79	5
77	77	4
30	67	3
109	110	7
26	26	8
49	72	3
52	52	6
69	70	11
81	82	2
37	37	6
91	97	1
88	108	1
75	105	2
34	85	1
51	56	1
89	109	4
90	112	1
56	74	1
75	76	1
70	71	2
67	67	5
67	98	2
79	83	7
86	114	1
23	69	1
29	96	2
83	83	7
80	80	10
29	29	7
20	22	1
57	58	6
61	62	2
89	89	4
103	104	5
19	27	3
46	73	1
86	86	4
20	102	3
38	38	14
53	90	1
23	91	2
97	98	6
90	91	4
63	63	3
88	88	8
32	103	3
31	102	1
33	101	2
62	62	6
29	72	2
23	29	2
37	99	2
102	102	6
49	92	1
79	79	7
84	84	7
98	103	3
77	78	1
25	39	1
110	112	4
35	50	2
47	72	3
89	108	2
37	65	1
56	84	3
80	84	4
91	98	2
73	92	3
23	98	9
109	109	3
27	28	5
96	110	1
95	97	3
65	85	5
43	45	2
75	75	9
25	28	5
71	71	10
38	39	2
90	108	3
91	112	2
70	93	1
92	92	3
76	76	4
30	33	1
34	41	2
32	92	3
53	56	2
87	87	6
94	102	3
47	48	4
39	78	1
36	37	1
114	115	2
102	109	1
55	77	3
32	66	2
102	108	2
113	113	2
64	65	1
52	53	1
40	70	3
29	34	1
111	111	5
52	82	1
78	85	4
57	57	2
69	106	3
74	78	3
43	50	1
21	23	1
53	54	4
21	74	5
39	39	5
64	66	4
24	25	3
54	90	1
65	66	1
19	22	1
76	105	2
88	90	2
38	97	3
88	110	1
91	110	3
41	113	2
89	90	6
31	32	1
111	113	1
31	97	1
94	101	2
26	29	4
24	26	1
21	76	1
26	59	1
30	101	2
69	72	2
69	80	2
91	108	5
74	77	3
43	74	1
54	81	2
64	80	1
100	101	1
109	112	1
26	68	4
78	79	3
29	35	2
30	107	1
22	82	2
83	85	4
47	111	1
49	85	3
46	46	5
33	34	3
50	82	2
64	81	1
85	109	1
21	21	1
82	84	2
98	98	1
36	99	1
23	63	2
51	51	2
92	94	5
61	67	2
34	99	3
54	55	3
105	106	1
43	73	3
22	29	4
43	44	2
76	99	1
24	93	1
87	97	3
35	35	5
22	91	4
36	113	1
103	110	1
21	71	1
48	49	2
100	103	2
46	78	1
47	49	1
50	83	1
75	78	2
89	97	1
40	40	2
99	100	1
44	46	1
22	41	1
24	66	1
91	96	1
100	100	4
34	35	1
22	66	1
26	28	3
98	114	1
79	85	1
104	106	2
58	62	1
107	111	1
31	103	1
78	78	1
32	95	1
92	103	1
67	68	1
48	91	1
54	77	1
90	97	1
44	73	1
24	102	1
24	27	1
