86	87	5
134	134	8
1	1	7
40	41	3
126	127	1
49	49	3
81	81	2
15	16	6
66	86	2
2	3	1
71	86	3
144	144	6
128	128	9
80	82	1
114	114	9
117	119	2
99	99	10
44	44	4
33	33	5
46	46	5
121	149	1
41	41	6
97	107	4
94	96	2
127	128	2
67	67	5
10	11	3
23	23	2
93	94	4
115	115	4
85	85	10
75	75	4
137	138	1
116	116	26
12	12	8
124	124	10
106	144	3
110	112	4
70	71	5
89	97	2
115	118	3
71	71	3
122	123	5
124	148	3
132	133	3
155	156	3
139	139	9
22	22	1
24	25	4
38	38	6
69	69	2
8	8	9
97	97	6
34	56	2
109	111	3
111	111	7
103	103	6
91	91	6
130	147	5
3	3	3
30	30	2
125	125	8
107	107	3
4	5	3
111	141	4
35	36	1
143	143	4
78	78	6
146	146	4
154	154	7
20	20	8
45	45	4
118	119	3
133	133	3
40	40	7
92	94	2
36	36	9
125	126	2
47	47	3
93	93	4
48	48	6
16	16	7
43	97	1
24	24	8
147	147	1
136	149	2
142	142	2
141	141	7
109	109	6
87	89	2
120	120	14
48	49	10
53	53	6
90	90	3
96	96	5
140	140	2
10	79	3
112	112	9
70	70	3
19	19	7
26	27	5
73	73	8
113	113	2
134	137	2
29	29	2
72	72	2
6	6	1
17	17	4
85	94	1
88	92	2
115	116	2
100	100	8
145	147	3
132	145	1
90	91	1
95	95	2
88	93	1
25	28	1
32	33	3
88	88	9
81	82	1
5	5	3
149	150	7
117	117	2
30	32	6
17	18	2
14	14	4
23	29	1
118	118	3
51	51	4
26	26	3
156	156	12
89	91	1
132	144	1
130	130	5
34	34	4
43	44	1
124	125	2
151	151	3
108	142	2
56	56	1
31	31	4
155	155	5
52	52	2
0	0	4
12	82	2
28	28	7
89	89	4
131	131	6
54	55	2
116	117	3
156	157	2
11	11	2
18	22	2
65	65	1
80	80	4
104	104	5
26	28	1
35	39	1
98	98	2
25	25	3
39	43	2
86	86	7
43	43	2
121	121	6
78	79	3
102	107	1
77	77	5
132	132	3
129	129	8
25	26	2
122	122	3
18	18	5
92	92	6
85	86	2
65	98	3
82	84	2
77	78	2
84	84	1
149	149	5
78	80	1
113	152	2
103	104	2
42	42	3
135	135	3
4	4	2
11	12	3
158	158	6
94	94	4
105	105	3
6	12	1
107	135	2
80	81	5
123	123	2
19	20	8
147	148	3
16	17	1
35	35	1
86	96	1
110	111	3
37	37	1
21	22	1
137	137	4
110	110	2
146	149	1
7	7	2
97	98	1
79	81	1
24	30	1
94	95	1
76	82	1
135	143	1
18	19	2
21	21	6
94	97	1
79	79	2
0	1	3
154	155	3
39	55	3
111	112	4
39	39	1
3	4	3
11	76	1
30	98	3
16	20	1
120	121	1
110	150	1
87	87	2
27	28	2
142	143	2
9	9	2
46	47	2
126	126	1
88	89	1
121	123	3
86	94	2
157	158	1
66	98	1
140	150	1
113	142	1
135	144	1
28	29	2
153	156	1
102	104	1
11	81	1
106	107	1
9	10	2
72	90	1
85	87	3
32	32	1
119	119	3
50	50	2
36	39	2
113	114	2
76	76	2
30	31	1
55	55	2
42	43	2
12	13	1
103	106	1
15	15	1
32	64	3
109	143	1
44	45	1
71	89	1
30	64	1
10	10	2
68	68	2
6	83	1
91	92	2
84	85	1
84	95	1
31	33	1
106	106	2
66	97	1
136	137	1
38	45	1
13	14	1
112	142	1
31	32	1
20	21	1
16	18	1
79	80	1
2	2	1
43	45	1
54	54	1
82	82	2
127	127	1
140	143	1
131	145	1
108	108	1
15	81	1
21	82	1
142	153	1
11	83	1
104	106	1
145	146	1
78	81	1
129	130	1
