50	51	2
9	11	1
54	54	32
26	32	4
86	87	4
76	76	13
22	22	20
24	24	14
6	6	13
21	47	3
58	58	22
47	47	28
72	72	14
15	15	5
53	88	1
54	88	1
8	10	2
79	79	19
51	51	16
71	82	2
9	10	6
49	49	15
48	48	18
14	14	12
61	61	13
27	27	25
18	18	12
0	0	9
53	84	1
25	25	10
59	60	12
8	8	17
48	57	3
18	31	1
86	86	18
70	70	8
24	63	1
4	75	3
75	81	5
55	58	1
25	31	3
49	50	11
19	19	12
23	23	11
22	68	5
19	30	4
7	8	4
83	83	22
85	85	11
71	71	16
82	82	14
77	78	3
75	75	11
11	11	8
77	81	2
69	69	12
87	87	8
47	51	1
21	21	11
68	68	13
26	26	8
52	58	2
54	76	3
67	67	12
69	71	5
18	25	2
4	13	1
64	65	10
56	56	21
78	80	3
5	5	7
10	10	12
64	66	2
73	88	4
76	81	3
24	66	5
63	63	9
34	34	6
3	3	12
66	66	16
34	63	5
62	68	3
12	13	10
88	89	4
77	86	2
8	9	3
2	2	20
52	60	4
28	70	1
7	7	5
80	83	3
74	74	9
50	57	4
55	57	3
76	78	5
18	28	4
7	11	5
21	23	2
53	55	2
56	83	4
4	81	4
53	83	1
51	52	2
60	60	10
10	19	2
25	27	8
50	74	3
59	81	5
84	84	14
65	65	11
54	83	4
13	25	5
34	53	1
73	73	15
74	80	2
63	68	3
0	21	3
26	66	1
48	58	1
70	83	2
17	26	1
62	65	1
48	49	8
59	59	9
55	55	12
81	81	14
56	88	4
1	1	15
50	50	27
7	55	2
13	13	3
47	48	4
4	4	19
89	90	3
60	63	3
47	49	4
53	54	10
66	67	3
25	26	5
10	17	3
55	88	5
75	76	4
62	66	4
59	75	1
17	22	1
56	58	2
52	52	5
48	69	2
59	62	3
77	77	8
3	31	1
29	30	4
9	23	3
71	72	5
79	80	10
55	56	2
5	12	2
62	62	16
78	79	14
7	13	6
64	64	11
31	31	12
11	61	2
22	23	5
69	80	2
28	30	11
9	9	6
17	20	1
21	22	3
8	21	5
60	65	2
51	69	3
4	76	1
10	13	3
60	62	4
6	8	3
77	80	5
6	26	2
52	57	2
26	27	2
57	69	5
68	69	2
75	84	1
34	64	3
32	72	1
89	89	16
12	12	5
52	53	4
30	31	1
23	24	5
88	88	5
5	10	3
15	27	1
84	86	2
9	13	1
61	66	2
10	11	4
58	66	2
17	17	12
20	20	10
73	74	9
10	20	4
55	64	2
19	79	3
27	31	4
72	73	10
30	30	4
80	85	6
4	5	1
84	87	1
58	69	2
81	89	1
49	56	1
60	61	1
11	66	1
6	55	1
82	83	6
70	71	6
54	72	3
9	33	3
9	28	1
54	67	2
60	82	1
20	25	1
4	79	2
27	82	2
4	19	2
21	27	3
58	77	4
75	78	1
83	90	1
20	21	3
61	64	1
19	22	3
12	17	2
70	82	1
34	77	1
3	30	4
66	89	1
57	57	7
48	63	3
53	71	2
24	49	3
25	63	2
24	31	2
78	78	2
35	35	1
6	13	5
0	66	2
15	70	3
5	19	2
35	52	1
83	89	1
85	87	2
59	61	1
19	47	3
8	65	3
81	87	4
85	89	2
16	16	7
6	78	1
74	75	1
6	9	2
80	81	2
0	22	2
81	82	2
58	62	1
46	48	2
24	25	2
48	65	1
61	62	4
66	87	1
11	15	2
62	69	1
21	24	5
34	48	2
7	10	1
11	31	3
28	28	4
8	13	1
24	64	2
75	86	3
13	59	2
34	78	3
29	29	2
7	27	2
34	61	2
12	60	2
79	81	1
6	27	1
21	46	1
25	64	1
29	88	1
32	32	1
61	69	1
62	63	1
82	89	1
5	6	2
2	4	1
63	64	2
28	29	3
56	57	2
18	19	2
17	32	1
33	35	2
49	57	1
77	90	2
5	9	2
5	13	1
72	74	1
50	53	7
53	59	1
27	46	2
3	4	3
9	14	2
32	78	1
63	66	1
17	31	2
82	84	2
0	11	2
28	89	1
65	66	2
54	55	1
27	71	1
56	69	1
81	83	1
2	3	1
17	63	1
20	24	1
1	2	1
53	53	1
59	64	1
17	25	2
7	14	2
25	32	1
53	66	1
8	85	1
4	30	1
21	76	1
33	80	1
74	89	1
22	71	1
46	46	1
67	72	1
26	65	1
46	47	1
58	71	1
24	48	1
85	86	1
80	80	1
52	61	1
4	71	1
