55	55	19
152	179	3
86	86	8
193	193	4
223	223	12
46	46	4
175	199	4
141	141	2
138	138	6
61	61	6
2	4	1
181	181	8
24	24	9
22	24	1
34	35	2
226	227	2
228	231	2
28	75	2
218	218	11
187	187	6
68	68	2
236	236	3
206	206	14
192	192	7
233	233	11
45	47	1
197	197	12
212	212	6
176	176	2
7	8	3
12	12	11
75	75	7
137	137	7
80	198	3
160	160	4
72	72	7
145	145	11
18	68	2
16	16	11
182	182	2
117	117	13
22	65	1
14	15	6
128	128	16
106	109	1
153	153	4
158	168	4
175	175	12
77	80	1
153	191	2
13	13	3
208	208	10
198	198	9
24	39	2
172	172	11
42	42	11
48	48	2
121	121	4
212	220	3
148	175	2
3	6	1
43	43	11
24	166	2
210	210	5
18	18	12
22	23	3
136	160	2
152	152	9
69	70	3
155	155	10
180	181	7
64	65	6
139	140	2
58	58	10
85	85	10
2	14	3
170	170	6
38	38	3
196	231	1
209	209	6
181	218	1
203	203	9
167	167	4
29	29	7
158	158	3
166	166	3
173	173	14
139	139	4
164	164	6
105	107	1
3	11	2
104	104	6
4	6	2
183	183	8
59	60	1
36	64	1
11	85	4
4	8	1
53	54	1
5	9	1
31	69	3
5	5	5
59	59	8
231	231	8
208	233	5
157	157	7
171	171	4
165	165	4
19	22	3
195	196	2
0	1	3
169	169	11
48	49	3
178	178	9
175	190	3
2	2	1
10	10	10
24	25	1
23	23	12
98	98	4
106	106	6
190	190	3
158	159	3
34	34	11
191	192	4
148	199	2
200	200	3
151	151	8
203	204	5
50	51	5
150	151	4
137	144	1
153	180	4
42	169	1
62	62	9
217	217	7
36	37	2
20	20	4
45	45	9
142	142	6
69	69	13
28	28	8
57	57	5
143	143	6
38	39	4
36	36	4
152	153	2
56	56	2
231	232	8
103	103	1
230	230	1
101	101	3
215	219	1
101	102	1
116	116	1
223	224	1
7	7	6
138	140	1
33	33	1
9	9	14
74	75	1
232	232	7
191	191	3
26	26	5
77	78	1
28	29	3
21	59	1
84	84	10
234	235	4
131	131	4
97	97	11
216	216	2
40	42	2
73	73	6
185	186	4
174	174	12
27	28	8
228	229	1
179	179	16
192	219	2
180	180	4
184	184	4
102	105	4
189	189	7
149	149	6
32	55	1
96	99	2
120	120	8
6	16	1
194	197	3
19	19	5
152	182	1
105	105	4
180	182	1
76	76	5
185	185	4
155	157	2
9	170	1
160	170	4
29	123	1
1	2	2
235	235	11
96	96	4
213	213	10
162	162	11
44	44	6
9	10	6
47	47	6
168	168	4
39	39	7
0	0	5
173	174	2
238	238	2
67	67	3
187	188	1
54	54	7
156	180	3
164	165	2
202	202	3
4	35	4
157	168	4
189	216	2
207	208	4
191	217	2
125	126	2
32	32	12
147	147	4
163	164	4
1	1	4
229	230	1
40	41	2
196	196	4
200	201	2
125	125	4
84	85	5
28	76	4
144	144	11
168	177	2
212	213	2
130	134	1
140	143	1
208	234	2
33	35	3
78	169	2
211	216	1
74	74	2
84	198	2
52	52	5
82	82	4
97	160	2
190	191	1
182	186	1
193	201	1
114	118	2
66	66	5
31	31	2
115	115	5
202	203	3
44	160	2
218	229	1
140	140	5
27	27	17
223	235	2
53	53	2
129	129	4
209	211	1
151	158	1
141	143	1
41	41	7
25	26	8
97	128	1
222	222	1
81	84	1
214	216	2
159	159	5
123	123	2
201	201	10
37	38	1
22	22	3
1	11	1
152	192	3
237	237	3
199	199	3
141	142	3
101	104	2
179	212	3
215	216	4
196	218	1
154	154	1
233	236	2
54	66	2
224	224	4
81	81	5
3	3	5
127	127	3
124	124	7
21	21	3
78	80	2
11	11	2
13	14	2
70	114	3
196	213	2
136	136	10
25	70	1
100	101	2
10	11	4
222	237	1
57	60	1
227	227	8
181	217	1
142	143	2
113	114	5
134	135	3
172	173	4
219	219	10
133	133	1
166	168	1
154	155	4
36	85	1
86	101	3
100	100	4
8	8	9
153	157	1
229	229	5
204	206	2
140	141	2
115	116	2
106	111	3
4	5	2
151	152	2
163	163	6
136	138	1
21	65	3
49	53	1
49	50	3
25	25	7
217	218	3
26	30	2
35	77	3
124	127	1
169	170	3
63	63	6
9	172	2
135	136	2
150	205	1
198	200	1
136	137	1
240	240	2
51	144	1
171	172	1
19	20	1
99	99	1
172	175	3
33	78	1
37	169	1
51	52	1
70	70	13
43	85	2
17	17	3
51	57	2
62	64	4
170	171	1
51	51	7
15	16	6
56	57	1
110	110	1
32	38	4
209	210	1
102	102	2
170	175	1
103	104	4
215	215	1
57	58	1
113	113	4
153	201	1
186	186	2
223	237	2
186	188	2
151	160	2
95	96	1
151	208	1
81	82	7
139	143	1
161	175	1
192	193	2
53	57	2
37	37	2
35	35	1
211	212	2
80	82	2
174	175	3
20	66	1
122	123	3
207	234	1
228	236	1
102	103	3
64	64	5
146	185	1
188	189	3
79	167	1
0	161	2
118	118	1
12	15	2
145	146	1
241	242	1
112	112	1
46	62	3
220	220	3
222	223	2
45	174	2
218	228	1
234	234	3
109	109	3
65	65	2
146	146	1
127	129	3
33	79	1
43	44	1
97	152	1
42	204	2
119	119	2
177	177	2
135	135	3
21	70	1
228	228	4
132	134	2
115	118	3
219	220	1
80	80	5
233	234	2
14	16	1
71	71	1
19	65	2
127	130	1
156	188	1
86	88	2
11	12	4
6	6	3
17	18	2
208	238	1
138	139	2
18	19	4
181	183	4
3	12	1
122	122	2
37	85	1
0	228	1
159	160	2
226	236	1
236	237	2
78	78	2
188	188	1
163	165	1
183	200	1
178	179	1
37	80	2
17	61	1
224	225	2
49	49	3
150	179	2
194	194	1
170	174	1
44	150	1
24	37	1
166	167	4
40	40	2
140	142	1
38	44	1
226	228	2
15	15	3
234	239	1
78	170	1
45	160	2
139	160	1
5	35	2
239	239	1
129	130	2
126	126	1
198	203	1
119	120	3
181	192	1
20	25	1
38	208	1
23	24	2
147	148	1
3	7	1
123	124	1
17	34	1
45	98	1
153	156	1
50	50	2
114	115	1
223	238	1
188	190	1
161	161	2
63	64	1
169	222	1
56	58	2
198	199	2
154	157	2
2	226	2
236	238	1
84	212	2
148	149	1
17	32	1
14	14	2
225	225	1
144	145	1
120	121	1
44	45	1
21	23	1
181	184	1
150	204	1
101	110	2
107	107	1
52	53	1
18	33	1
145	151	1
130	130	2
0	12	1
217	228	1
155	200	1
176	177	2
176	199	1
28	71	1
46	47	1
92	92	1
213	220	1
0	3	1
183	184	1
61	62	1
141	158	1
19	21	1
80	81	1
241	241	2
160	161	2
150	150	1
109	121	1
83	84	3
32	39	1
47	48	1
227	230	1
124	125	1
88	134	1
221	221	1
71	73	1
