119	122	4
102	102	3
32	33	6
119	120	2
112	116	2
95	95	4
81	81	2
98	98	2
55	55	5
93	93	14
90	90	4
161	161	1
117	117	6
44	44	4
25	25	7
130	130	7
118	118	2
74	75	1
71	71	8
89	90	3
158	158	2
116	130	5
31	71	4
166	167	4
55	56	5
169	169	9
180	180	4
117	118	3
103	104	3
135	135	4
27	27	11
122	122	5
114	115	2
116	116	2
18	19	1
53	53	4
57	57	3
176	176	12
42	42	2
174	174	5
31	31	8
80	81	3
149	167	1
52	90	2
124	125	6
80	80	5
123	123	7
86	86	6
14	14	8
175	175	5
12	13	1
59	164	2
82	82	7
129	130	1
120	120	2
54	54	8
132	132	4
36	50	2
87	87	3
50	120	1
73	73	6
57	59	5
79	79	2
128	128	1
98	165	6
143	144	2
60	60	2
108	108	3
148	149	1
54	56	1
127	128	3
11	11	4
160	160	2
37	37	7
131	131	3
80	90	2
3	3	4
33	33	6
109	130	4
9	10	1
156	156	5
15	15	3
112	112	1
129	152	7
13	14	1
146	146	5
175	176	1
100	120	1
151	163	3
51	82	1
89	89	3
85	88	5
100	101	2
171	171	5
51	53	3
111	169	1
174	175	1
172	172	6
27	28	3
26	26	9
10	15	2
92	92	3
2	2	7
154	154	9
142	142	7
125	125	3
53	61	1
104	104	11
43	43	2
79	80	1
50	50	5
5	6	5
139	139	3
111	112	1
115	115	11
165	165	4
7	8	1
170	170	7
141	141	6
61	61	3
137	137	2
83	83	1
28	28	5
0	2	2
166	166	8
159	159	5
63	63	5
43	44	2
74	74	4
72	72	3
56	56	1
30	30	3
77	78	1
77	77	10
119	119	3
156	157	2
138	138	3
66	66	1
17	17	3
16	16	2
84	114	1
127	127	5
121	122	4
0	1	1
110	147	4
120	121	1
110	116	1
28	29	1
155	156	2
40	41	4
168	168	3
179	180	2
134	134	1
153	153	4
157	157	3
147	147	1
91	91	6
167	167	2
41	41	3
19	19	2
165	166	2
177	177	3
96	97	2
136	136	1
132	133	1
148	148	2
140	140	2
110	111	3
103	103	4
136	137	1
15	18	1
138	139	1
38	38	1
85	85	1
65	65	3
96	96	3
158	159	1
96	127	2
168	169	1
16	17	3
164	164	3
44	83	1
1	2	1
35	36	1
19	21	1
38	43	2
151	152	2
157	158	2
162	162	2
13	13	2
78	121	2
179	179	2
59	60	3
97	97	2
167	168	1
59	59	2
64	65	1
54	82	1
110	112	2
36	36	5
113	143	1
133	133	3
41	56	2
113	146	2
68	68	1
52	52	3
32	32	2
109	173	1
17	68	1
132	178	1
149	149	1
106	118	1
138	150	2
1	5	5
3	22	2
126	126	2
121	121	3
23	23	6
44	61	1
128	167	4
155	155	2
131	132	1
25	26	2
173	173	2
40	40	2
94	94	5
36	38	1
54	55	1
54	59	2
111	146	1
9	9	3
29	29	1
75	75	1
151	162	1
84	85	1
103	117	1
81	95	1
33	43	1
75	76	2
151	151	2
166	168	2
32	72	1
87	88	1
132	135	1
0	36	1
171	172	1
7	10	1
39	39	1
141	165	2
103	105	1
151	164	1
153	154	2
45	45	1
112	113	1
51	51	1
76	77	1
1	1	2
110	110	1
22	22	1
35	41	1
106	106	1
163	167	1
92	93	1
39	41	1
114	114	3
110	160	1
134	135	1
63	64	1
123	125	1
2	5	1
163	163	1
5	5	1
109	138	2
36	37	1
148	163	1
105	122	1
79	124	1
100	100	1
10	10	1
141	151	2
144	144	1
9	23	1
148	167	1
107	107	1
145	165	1
165	167	1
35	39	1
86	88	1
109	171	1
26	27	1
