32	38	3
55	58	2
41	62	1
38	53	1
80	81	5
82	85	4
76	90	2
93	93	1
47	60	2
93	96	2
59	65	1
68	69	4
75	81	2
62	78	2
81	81	2
68	72	2
72	72	3
80	80	6
52	61	1
65	65	6
75	77	3
91	98	3
68	70	2
74	75	2
83	86	2
72	80	4
97	97	3
24	26	2
32	32	1
76	83	3
63	64	4
78	83	3
76	85	1
73	85	3
63	71	1
98	101	4
66	66	5
77	78	3
93	94	2
77	77	8
85	85	5
67	67	1
67	72	2
48	48	3
24	25	1
66	67	2
42	56	2
58	58	6
78	81	1
63	65	5
85	89	3
87	87	3
28	38	2
101	101	3
98	98	4
78	78	2
62	68	1
33	38	2
64	64	3
68	68	6
61	61	7
61	62	4
55	57	2
53	53	3
80	83	1
62	69	5
46	53	1
83	83	2
42	53	1
57	63	1
47	54	4
86	86	2
99	102	2
35	36	2
73	79	2
78	91	2
50	62	10
62	75	6
96	100	2
47	47	3
56	56	3
48	50	1
68	74	3
69	69	2
88	88	5
81	82	2
79	86	3
57	76	6
74	76	2
41	43	1
78	80	3
35	35	8
96	96	2
60	60	1
71	72	5
34	42	3
42	48	1
86	88	3
38	52	1
77	86	5
59	59	3
62	63	3
55	55	5
48	55	2
85	91	1
78	86	1
76	76	2
91	91	2
25	27	1
84	84	6
49	49	3
89	90	4
31	35	3
81	100	3
74	89	2
74	74	3
56	57	1
36	46	2
73	73	2
51	53	2
70	70	8
76	95	1
37	39	3
59	60	2
33	33	2
72	75	3
83	97	1
75	86	5
63	63	4
54	58	2
100	101	4
27	29	2
94	94	1
84	86	2
91	95	1
39	39	4
57	66	2
34	35	2
88	97	1
53	54	3
44	45	1
46	55	3
80	91	1
57	59	3
76	84	6
80	92	3
56	59	1
26	27	3
88	102	2
91	92	1
76	87	3
24	31	1
71	74	1
33	37	1
82	96	2
38	39	3
50	53	1
79	94	1
52	52	4
24	33	1
98	99	2
79	79	2
95	95	1
83	99	2
84	90	3
73	75	2
66	79	2
79	93	2
70	76	2
94	98	2
81	90	1
96	98	2
70	71	1
22	25	1
46	46	4
102	102	2
47	59	1
61	67	1
71	71	3
68	80	1
56	58	1
54	66	1
46	61	1
61	65	1
68	76	1
64	87	1
41	42	2
64	66	3
98	100	1
49	55	2
80	82	2
42	42	1
33	39	2
36	36	1
64	74	2
42	51	1
55	65	1
48	54	1
71	81	4
43	43	2
22	22	1
42	44	1
54	59	1
45	48	1
83	85	1
76	77	1
42	43	3
29	41	1
62	71	1
62	62	1
88	89	1
79	88	2
73	76	1
89	89	1
96	99	1
45	60	1
92	92	1
46	64	1
70	75	1
31	33	1
30	30	1
40	41	1
65	67	1
88	90	1
67	75	1
65	68	1
22	31	1
40	42	1
66	73	1
80	86	2
77	79	1
79	89	1
31	34	1
73	74	1
54	61	1
70	79	1
50	50	1
23	29	1
92	93	1
69	79	1
75	75	1
82	82	1
