85	102	3
164	164	4
25	25	9
28	28	5
236	239	3
153	153	4
52	53	5
70	70	3
38	39	5
157	159	2
31	92	3
22	22	6
189	189	2
115	115	12
7	43	1
91	91	3
221	221	2
162	213	1
219	219	8
68	68	5
112	112	6
161	249	8
156	156	17
17	17	11
59	59	3
3	4	5
238	238	2
205	205	11
68	77	2
226	226	4
47	175	2
230	230	6
18	18	5
87	87	3
150	150	3
57	58	10
224	225	1
82	83	2
237	237	3
214	214	5
212	212	3
99	99	1
184	184	6
163	216	7
188	190	2
36	36	8
213	214	3
32	32	10
169	169	3
169	170	3
45	46	1
27	90	3
71	71	1
201	201	7
145	149	3
20	20	4
234	234	11
27	27	11
31	31	5
213	215	1
239	239	6
180	180	2
235	235	10
205	206	3
111	111	10
53	53	1
154	154	10
55	56	2
82	88	2
56	56	2
185	227	1
72	72	2
107	108	5
162	162	3
92	108	1
211	211	6
193	193	6
221	247	5
76	77	4
18	19	4
95	95	4
170	170	10
167	167	5
96	96	4
112	113	2
208	208	3
9	9	7
219	222	4
6	54	4
9	10	2
211	246	5
81	81	7
23	46	1
184	186	4
101	101	4
80	84	1
199	200	4
57	110	1
55	55	2
26	26	7
19	19	1
158	175	4
60	74	4
70	71	2
26	90	1
60	116	4
178	178	7
90	90	5
85	86	2
76	76	4
163	163	5
53	174	1
24	24	2
29	29	7
220	220	3
113	113	4
41	41	2
48	174	4
155	155	3
79	80	4
244	244	2
16	16	4
172	172	3
12	12	5
165	165	4
65	69	4
89	89	6
192	192	2
155	202	3
171	172	2
151	174	1
152	152	3
10	10	6
100	100	3
15	33	1
151	184	5
248	248	3
236	236	1
4	4	6
189	190	2
184	187	4
7	7	2
165	209	1
48	228	3
66	66	3
173	173	3
87	88	1
159	159	4
153	154	3
158	185	3
191	191	2
29	109	4
227	227	6
232	232	9
94	94	6
6	6	4
105	106	2
157	157	2
39	40	1
200	200	3
244	245	5
88	88	7
229	229	3
96	99	4
238	239	1
213	213	3
168	168	1
227	229	3
57	57	5
155	156	1
114	114	4
98	98	6
46	46	3
176	176	1
79	79	3
225	225	3
204	204	2
202	202	4
206	206	3
68	69	1
183	183	1
154	220	1
245	245	2
144	154	4
3	3	6
85	85	1
27	28	5
56	59	2
175	175	4
242	242	3
27	52	2
24	27	1
55	65	1
69	69	3
243	244	4
71	72	1
31	36	2
2	2	3
29	30	2
48	198	1
152	229	9
216	223	2
244	247	3
59	116	2
144	144	3
17	234	2
109	109	6
196	196	3
198	198	3
210	211	2
175	195	2
210	225	1
97	97	5
222	222	3
63	63	2
171	171	2
117	118	1
210	210	2
246	248	3
11	11	3
73	73	4
228	241	1
54	54	4
95	102	2
78	78	2
47	47	2
163	210	2
231	231	3
8	8	2
216	216	2
225	244	2
160	160	2
33	33	2
4	57	2
114	115	3
30	30	6
75	76	1
176	181	3
6	116	3
19	20	1
28	52	2
44	44	2
173	226	4
216	218	2
63	109	3
4	5	1
104	108	2
10	44	1
184	185	3
111	112	2
223	223	2
217	217	2
63	115	3
1	1	1
179	180	2
151	151	2
45	45	4
47	48	2
40	40	1
36	37	3
25	154	1
61	68	1
58	58	1
52	200	1
183	184	1
159	195	2
149	152	2
158	186	1
66	69	1
101	102	1
195	195	1
93	93	3
164	225	2
96	98	4
214	215	1
245	246	1
38	38	4
2	220	3
208	217	1
173	202	1
51	52	2
95	97	2
66	68	2
65	65	2
179	179	1
168	170	1
50	157	2
103	103	2
171	245	5
78	97	2
54	55	2
245	248	3
156	202	2
231	232	2
55	66	2
13	35	1
68	78	1
51	51	5
203	203	1
79	82	1
186	235	1
59	60	3
35	35	2
153	198	2
207	217	1
197	201	1
151	160	1
240	240	2
65	82	1
180	193	1
171	246	2
145	145	2
15	15	2
177	177	1
183	188	1
89	95	1
234	238	1
42	42	1
102	104	1
2	71	1
0	0	1
221	222	1
