125	125	7
44	44	6
129	129	10
40	40	7
30	30	9
117	117	5
93	93	9
41	41	11
148	149	7
116	117	1
14	14	7
78	78	4
107	107	2
51	51	3
73	132	3
154	158	3
67	67	11
109	109	8
123	123	5
43	43	10
37	37	9
151	151	3
3	10	1
45	45	2
4	12	4
25	130	1
22	23	9
32	32	8
13	13	6
9	10	5
48	48	1
94	95	1
3	3	10
94	94	5
69	69	9
26	26	3
21	21	7
126	126	5
81	81	11
144	144	8
96	96	5
120	120	5
134	134	5
122	122	1
129	132	3
100	150	6
38	38	1
92	143	4
0	0	2
2	2	8
121	121	6
135	135	1
15	15	4
107	108	2
109	110	5
148	148	4
91	92	1
8	9	8
76	76	1
12	12	2
88	88	8
110	144	2
41	42	5
77	77	6
130	133	2
106	106	3
3	4	3
146	146	6
78	80	1
68	68	2
85	85	5
27	27	6
17	17	4
33	34	7
137	137	7
135	139	1
116	116	9
140	141	4
28	28	3
95	95	20
76	89	1
158	158	5
110	110	4
89	156	1
49	49	9
5	5	7
152	155	3
154	156	5
31	31	8
83	83	6
137	146	2
156	156	8
103	103	5
128	129	4
75	75	6
55	114	3
70	71	2
33	103	3
147	147	3
137	138	3
135	136	6
18	18	4
138	138	6
66	71	3
86	86	4
54	57	2
55	117	2
33	33	7
4	4	4
121	126	4
104	104	5
52	53	1
12	13	4
135	150	1
15	24	4
2	25	2
145	146	5
56	126	7
141	142	10
23	23	6
37	38	3
80	82	3
106	150	1
100	101	2
17	18	3
30	103	3
36	36	3
19	20	2
119	120	4
83	84	6
145	145	4
119	119	8
133	134	4
135	137	1
111	111	6
42	42	1
121	122	4
89	147	3
145	148	2
144	146	3
113	113	2
51	53	1
3	73	3
153	158	4
47	48	1
57	57	3
87	87	3
120	121	3
34	37	2
138	139	5
139	139	7
74	98	1
113	114	6
20	20	3
52	54	2
81	82	2
88	155	3
123	125	3
90	92	2
92	92	3
133	133	2
99	99	2
31	112	1
123	128	4
71	71	7
119	137	3
54	54	10
131	132	3
130	159	4
155	157	1
24	25	3
132	132	3
53	54	2
157	157	5
22	22	1
56	62	1
11	131	2
56	57	3
156	157	3
13	25	2
96	98	2
101	101	2
77	78	2
40	41	2
40	43	1
146	148	1
98	98	3
62	62	2
68	70	2
55	57	4
130	130	6
124	124	2
45	67	1
21	22	2
31	42	2
136	150	2
3	131	1
71	137	4
76	94	1
114	115	1
71	72	1
136	136	4
105	105	10
48	50	2
108	111	1
90	90	2
89	89	3
23	24	2
89	94	1
1	18	1
103	140	3
45	70	3
123	124	1
127	127	4
139	150	2
154	157	1
52	57	2
30	134	4
91	91	2
115	115	4
154	155	1
155	155	3
128	128	5
8	8	2
90	146	3
55	56	3
152	152	4
27	101	1
14	24	1
34	34	1
50	50	5
19	19	4
46	46	6
11	11	4
112	112	4
16	16	3
97	97	2
4	27	3
1	16	1
79	79	1
108	108	1
39	39	3
130	131	1
65	65	2
43	114	1
50	51	1
56	127	3
56	56	4
143	143	1
84	84	1
149	149	1
16	17	1
150	150	4
46	62	1
49	50	1
98	128	1
131	131	2
151	156	1
8	11	1
114	114	1
88	89	3
47	47	3
93	94	1
25	26	5
125	126	4
42	114	2
102	102	1
118	120	4
118	118	2
55	126	1
87	90	2
113	115	2
154	154	2
10	10	2
104	111	2
38	39	1
90	91	1
45	68	1
82	82	1
28	29	3
14	15	1
153	153	2
67	69	1
4	5	2
35	38	1
152	153	1
13	95	1
134	141	1
88	90	1
1	2	1
45	47	1
140	140	2
153	154	1
66	66	1
99	101	1
7	7	1
15	16	1
32	103	1
16	18	1
70	70	1
81	87	1
80	80	3
135	141	1
86	145	1
64	64	1
67	68	1
85	86	1
83	85	1
32	40	1
31	32	1
