5	5	8
59	60	8
183	208	4
217	217	8
204	204	10
160	160	10
95	95	12
228	228	12
226	226	19
71	72	3
222	223	3
248	248	3
175	231	1
18	47	1
170	170	2
33	33	12
237	242	11
164	207	1
9	9	8
8	8	8
190	190	8
216	234	4
232	232	6
18	18	14
87	87	2
47	47	6
20	20	17
187	188	4
40	200	3
160	161	3
210	216	3
182	182	6
201	201	18
21	223	3
72	100	4
194	194	6
65	72	1
69	69	4
86	106	1
39	80	1
167	167	9
59	64	3
48	48	5
30	30	13
220	220	4
104	105	3
154	154	22
171	172	4
214	214	11
10	10	10
68	70	3
22	23	8
162	162	5
23	46	6
29	29	8
218	219	6
17	17	12
44	44	9
33	163	5
229	229	21
87	109	1
197	197	14
35	35	3
46	46	8
213	214	1
153	153	4
7	243	1
175	176	3
97	97	11
205	205	9
180	199	5
156	156	17
176	176	8
246	246	6
40	40	9
44	45	6
193	208	4
64	64	18
12	18	2
62	67	2
111	111	14
80	97	3
68	68	6
72	73	2
147	178	5
11	11	9
41	53	2
40	168	2
167	197	5
155	160	1
53	59	2
67	169	1
52	52	10
220	238	2
78	78	2
91	92	6
9	47	6
57	87	2
53	57	2
62	62	14
245	245	11
110	110	4
211	211	16
31	31	3
55	84	2
50	50	16
84	113	3
24	24	9
114	114	12
75	75	8
118	118	5
177	235	2
119	119	2
12	36	1
161	185	2
236	249	1
109	109	2
230	230	3
237	237	7
80	109	4
28	60	3
105	105	4
51	74	1
30	56	2
154	202	3
179	179	6
191	191	4
19	19	9
108	118	7
114	116	4
41	41	9
54	54	11
66	66	5
21	50	1
53	53	10
6	7	4
92	92	13
83	84	4
231	231	4
237	245	2
168	168	11
187	187	9
29	64	5
182	192	1
158	158	5
113	117	1
4	7	3
155	156	5
92	111	2
162	214	5
83	83	6
212	212	9
113	115	1
223	223	3
193	193	9
100	101	5
162	163	9
34	77	4
163	168	2
99	99	20
30	31	2
166	177	3
158	187	1
216	221	1
115	116	4
14	15	2
55	58	3
163	196	4
236	236	5
191	194	3
3	199	2
222	222	3
244	244	8
37	37	9
11	27	5
241	241	6
113	113	4
44	110	5
48	80	2
157	157	5
109	110	6
74	74	3
61	61	6
56	67	3
183	184	9
14	14	5
166	166	8
63	63	9
94	94	3
57	77	1
43	43	5
57	57	9
55	55	5
28	28	9
110	111	1
212	221	4
186	186	2
79	80	1
58	58	4
222	247	1
172	172	11
199	200	5
65	65	2
102	103	3
206	206	1
98	98	6
73	73	7
48	49	6
209	240	3
163	225	1
171	226	1
60	78	4
173	173	5
15	15	10
114	117	3
93	102	2
47	85	4
21	60	2
183	183	7
208	208	7
146	146	4
59	59	5
118	119	4
181	204	2
246	247	4
169	169	7
234	240	7
4	14	2
231	232	1
221	222	3
97	104	1
90	92	1
46	77	1
169	210	3
238	239	3
203	203	9
240	241	6
38	42	3
167	190	2
96	96	14
181	181	8
210	213	2
117	117	3
115	115	6
5	28	1
23	23	8
43	44	3
145	145	2
242	244	3
231	242	4
4	203	2
239	240	6
196	196	9
3	3	7
55	56	3
174	179	3
157	159	1
44	120	2
165	166	1
101	101	10
85	85	5
202	202	13
158	176	4
219	219	13
77	77	6
157	181	1
172	190	6
242	242	6
247	247	10
169	185	1
17	35	3
22	172	3
146	147	7
71	71	14
75	78	3
203	232	2
12	33	2
204	205	1
80	94	1
89	90	2
64	79	12
178	178	10
116	117	5
13	13	3
112	112	6
188	189	2
4	4	5
205	234	3
64	98	3
91	101	3
66	73	6
214	237	1
16	38	3
67	100	7
103	103	5
198	198	8
243	243	6
1	1	7
2	3	2
56	57	2
106	106	5
150	150	6
192	192	1
15	38	3
88	88	7
161	161	5
8	14	3
38	39	5
28	33	6
216	217	2
158	171	3
38	38	8
186	207	3
41	42	3
182	208	4
234	235	6
89	89	10
77	90	3
67	67	7
182	213	2
209	210	3
27	27	8
75	96	3
164	164	3
14	30	1
73	92	1
56	108	1
229	239	1
177	208	1
239	239	1
217	242	3
192	193	2
185	195	1
74	78	3
94	95	3
55	78	3
42	42	6
7	240	2
22	30	1
76	80	1
215	215	7
52	207	2
205	227	2
199	237	1
70	85	2
152	182	3
166	182	3
32	32	14
89	112	1
198	199	2
45	45	4
202	219	1
240	240	8
76	77	3
34	42	2
65	86	3
235	235	5
8	73	3
100	100	10
222	225	2
201	231	1
91	91	4
156	174	3
26	33	2
207	207	5
164	170	1
42	43	2
54	57	5
95	96	2
91	93	2
6	231	2
55	60	1
36	36	4
163	170	2
11	37	1
149	149	4
171	171	5
170	193	1
165	165	2
51	52	3
188	188	6
19	20	2
89	108	3
176	177	3
217	225	2
224	224	9
27	57	2
239	248	1
188	193	2
185	220	1
199	208	3
21	21	4
4	5	5
69	70	6
56	56	4
218	221	1
66	69	3
155	155	6
184	184	2
210	210	6
23	25	2
34	34	6
200	200	6
199	213	1
159	159	6
90	203	5
177	197	2
25	47	3
221	221	4
155	177	3
12	12	3
25	60	6
150	155	1
210	214	1
72	72	3
101	102	3
101	109	3
204	232	1
82	82	1
173	174	4
229	230	2
101	111	1
209	221	2
15	219	4
26	59	1
26	26	7
62	64	2
95	100	2
48	75	1
56	92	1
152	180	1
164	180	1
2	234	2
43	48	2
114	115	1
86	86	3
105	106	1
215	242	1
187	189	2
87	111	1
24	25	3
155	174	3
206	229	3
42	49	3
208	242	3
28	202	5
143	143	2
77	113	4
108	108	3
118	120	2
71	75	1
235	238	2
211	243	2
90	90	1
240	248	1
225	225	2
22	22	4
21	90	2
177	192	2
214	216	1
13	14	1
189	222	1
177	177	2
44	77	4
70	72	3
216	245	3
32	33	3
90	105	3
151	154	2
4	8	2
90	94	2
34	35	3
1	226	1
29	31	1
55	57	5
18	19	5
180	180	3
85	95	1
44	84	1
201	202	1
144	144	4
203	231	1
68	69	1
226	228	1
30	58	1
201	208	1
93	112	2
49	51	1
213	233	4
0	9	1
208	228	2
154	158	1
51	51	2
15	235	2
84	85	4
151	155	1
58	74	2
163	163	3
33	42	4
202	229	2
146	170	6
4	11	3
164	194	3
156	193	1
100	112	3
174	194	2
55	77	2
174	175	2
175	175	2
193	201	1
105	107	3
155	183	3
189	189	8
109	145	1
195	195	2
99	117	2
37	38	3
92	101	2
25	25	3
1	247	1
187	220	3
212	220	1
239	244	1
79	86	3
156	170	3
244	246	1
195	196	2
239	245	1
168	169	3
214	245	1
28	59	2
21	23	3
211	213	2
19	41	2
185	185	1
249	249	2
79	83	2
199	199	1
27	28	1
227	227	2
238	238	3
116	116	4
209	209	2
84	84	1
12	48	2
159	160	1
146	164	3
152	153	2
91	107	1
223	224	1
94	118	1
90	108	3
58	73	1
87	88	1
203	235	1
26	246	1
218	218	4
92	93	1
155	157	1
29	59	2
208	210	2
33	35	1
185	189	3
79	93	1
147	185	2
101	105	1
45	67	1
208	243	2
168	215	1
160	165	2
40	46	1
100	104	1
205	229	2
96	97	1
157	158	1
165	183	3
70	170	4
243	244	2
214	215	1
7	7	2
181	182	1
167	194	2
107	107	6
238	240	1
33	70	3
28	44	1
28	35	2
28	53	1
80	106	1
156	182	1
209	225	2
19	31	1
210	244	1
217	237	2
201	232	1
39	41	1
18	20	1
167	168	3
233	233	3
80	80	2
47	55	1
17	19	1
190	219	2
3	233	1
36	37	2
57	59	2
0	2	1
58	59	1
34	61	2
228	229	1
210	211	1
46	75	1
174	174	1
61	64	1
163	181	2
65	74	1
8	44	1
80	110	2
38	44	1
151	203	1
156	181	1
2	202	1
34	76	2
93	93	3
86	99	2
87	116	1
1	158	2
190	194	1
216	240	1
182	195	1
33	62	1
110	116	1
35	43	1
182	236	1
173	178	1
60	65	1
8	202	1
151	151	2
29	50	1
172	173	3
163	183	1
8	38	2
154	182	1
56	107	2
193	206	3
205	218	1
202	208	1
240	242	2
39	40	1
158	162	1
79	111	1
217	244	1
236	243	1
155	159	1
53	54	1
8	171	1
16	16	1
157	173	1
49	49	1
174	176	1
200	208	1
23	41	1
12	39	1
153	203	1
5	6	1
1	2	1
227	231	1
12	28	2
165	167	1
59	65	1
18	50	1
204	231	1
240	245	1
218	241	1
