13	13	8
2	3	1
17	17	11
111	111	1
27	28	5
66	66	6
56	131	3
40	41	6
26	26	4
54	54	1
86	87	1
59	59	6
30	30	1
24	28	4
47	47	3
100	100	5
99	99	8
91	91	1
118	119	2
112	112	5
67	74	1
79	79	1
90	97	1
80	88	3
1	1	3
5	13	2
92	92	3
83	83	4
49	49	10
64	92	3
113	113	2
89	89	4
0	127	3
22	24	2
15	16	4
100	102	2
80	80	1
20	21	3
76	80	1
130	132	2
2	2	8
128	128	8
27	29	1
101	101	2
58	58	4
88	88	3
75	94	2
7	7	4
39	61	1
4	4	5
106	107	2
7	8	4
80	87	2
43	64	3
57	131	1
53	123	1
77	93	2
120	120	3
96	120	2
119	119	2
3	3	5
118	120	1
8	12	2
80	82	1
24	24	1
43	133	1
2	33	3
47	102	2
96	96	5
62	63	3
114	114	6
6	6	5
46	46	1
118	118	1
106	106	1
76	121	1
86	86	2
61	126	2
109	123	1
123	123	1
0	0	1
46	47	1
0	1	2
67	71	2
3	4	2
113	129	4
4	68	2
24	26	2
8	9	2
72	73	4
126	126	4
108	129	1
107	107	2
78	78	1
77	125	4
32	43	5
76	82	1
23	23	6
55	55	3
70	92	2
61	127	4
9	13	1
64	64	3
107	113	1
75	86	2
71	72	2
67	67	2
91	92	3
33	34	1
85	85	6
60	62	2
28	28	2
64	65	1
65	127	1
5	20	1
39	49	1
42	49	2
3	73	3
38	50	1
95	95	1
104	113	2
81	81	2
117	119	1
29	29	2
125	125	3
97	102	3
62	62	1
87	87	4
102	102	1
61	61	2
51	51	2
39	40	1
77	91	1
77	77	2
15	20	2
101	102	1
73	73	2
11	11	2
104	104	1
41	41	1
0	26	1
109	129	1
110	110	2
5	14	3
34	34	2
74	74	1
40	58	1
103	104	1
20	20	1
52	54	1
40	40	2
82	82	1
28	29	3
54	56	2
40	59	1
102	103	2
115	115	1
107	110	3
21	21	2
98	98	1
58	85	2
105	105	2
6	14	1
53	128	1
122	122	2
76	76	1
131	132	1
124	125	1
89	91	1
75	75	1
62	65	1
24	27	1
75	93	1
88	89	1
121	122	1
100	101	1
44	66	1
70	70	1
3	81	1
117	124	2
2	72	1
5	5	1
42	43	1
14	14	1
84	84	1
18	18	1
