94	112	3
30	30	11
36	36	19
27	27	15
90	90	6
88	103	3
102	102	8
98	98	25
124	124	10
115	115	8
127	128	12
35	36	5
75	76	4
11	11	13
3	3	11
33	33	5
101	101	7
2	3	3
3	5	6
95	102	5
87	87	17
4	33	3
73	73	20
134	134	5
82	82	14
21	22	5
109	109	19
20	20	11
76	77	9
21	23	3
113	119	2
131	131	16
14	14	15
20	21	8
19	19	11
98	99	4
101	102	2
104	104	7
86	86	6
120	121	2
116	116	18
74	75	17
116	117	3
126	126	31
18	19	3
17	18	5
138	140	4
7	9	4
96	96	6
111	111	21
88	88	10
101	105	4
4	5	2
38	38	19
78	78	10
18	24	2
116	123	1
120	122	2
75	75	16
79	79	11
94	102	3
125	125	13
13	14	9
72	73	3
128	130	6
0	4	3
128	128	3
121	121	14
15	15	14
85	85	9
135	135	17
112	112	18
26	26	15
80	80	30
125	126	9
94	94	15
124	125	2
76	76	4
92	92	15
139	139	11
28	28	5
2	2	8
134	135	16
77	78	5
16	16	10
18	18	8
103	103	21
11	12	5
140	140	7
74	74	23
16	26	2
119	119	5
80	85	4
100	100	13
77	77	13
97	97	6
95	95	16
97	98	5
86	88	3
36	38	2
106	106	8
73	74	3
132	132	11
81	81	10
71	80	4
122	123	4
123	123	14
91	91	7
117	117	8
4	4	15
22	24	12
90	93	2
99	100	5
24	24	3
138	138	8
118	118	9
103	104	4
108	108	15
125	128	1
105	105	3
21	21	18
0	0	11
92	123	2
34	35	15
72	74	1
35	35	13
9	9	6
83	83	11
7	7	5
8	8	11
106	120	1
82	83	2
1	1	4
93	118	1
114	114	15
128	129	4
133	133	7
5	6	2
81	85	3
27	28	5
84	88	5
90	123	1
132	133	6
120	120	2
104	119	3
34	34	15
84	86	1
131	132	6
1	30	4
89	123	1
139	140	4
110	110	7
89	118	1
35	37	5
25	25	9
72	75	1
137	137	3
19	20	7
72	72	7
138	139	4
110	115	3
140	141	2
130	130	9
111	112	5
121	122	2
29	30	4
71	72	2
8	9	1
114	115	5
37	37	9
3	6	3
84	84	3
88	102	3
33	35	1
134	136	1
12	85	2
78	79	4
129	130	6
1	2	11
30	31	8
78	83	3
121	123	1
104	105	5
99	99	9
113	113	4
130	131	5
114	116	11
10	10	6
96	97	4
95	98	1
126	127	8
93	120	2
79	81	1
95	97	1
1	6	3
71	88	1
17	17	12
29	32	1
29	29	2
93	93	2
16	20	4
2	6	2
22	22	3
136	136	8
27	32	3
112	113	2
12	13	4
80	82	3
82	85	3
95	103	2
102	104	3
110	111	1
113	122	2
135	136	1
13	13	2
11	25	5
33	34	1
2	4	1
127	127	11
113	114	1
12	12	4
31	31	3
136	137	3
107	107	8
19	23	3
28	29	5
23	24	2
75	80	1
6	6	3
89	90	1
115	116	2
102	103	2
74	82	3
16	21	1
37	38	2
89	89	2
81	82	2
122	122	4
109	110	1
5	5	2
18	76	1
114	120	2
120	123	3
83	84	1
89	93	1
88	89	2
108	109	1
8	16	2
22	23	2
107	108	1
129	129	5
23	23	3
38	39	2
15	26	2
24	26	1
80	81	4
68	68	1
130	132	1
26	29	1
32	32	1
90	91	2
18	74	1
80	87	1
1	3	1
3	4	2
71	87	2
73	78	2
127	129	1
133	139	1
71	71	1
75	77	1
80	86	1
24	66	2
16	17	1
10	11	1
88	104	2
7	8	1
34	36	1
103	105	1
71	85	1
