63	63	14
83	84	12
88	88	14
101	101	10
89	89	18
65	65	17
85	85	15
29	39	1
67	71	5
97	97	14
44	44	7
72	77	7
93	93	8
22	45	4
43	51	3
64	64	20
35	35	1
69	73	3
68	68	19
49	50	4
71	71	7
87	87	12
91	92	5
72	72	20
29	29	2
68	69	5
26	26	9
69	70	10
27	27	15
83	83	13
58	58	10
52	52	11
53	53	7
81	81	11
74	74	16
35	37	2
67	67	20
73	73	19
26	43	3
71	79	6
36	36	6
70	70	14
49	49	4
84	84	12
75	75	15
62	62	18
56	56	9
77	77	25
94	94	15
91	100	7
43	43	7
69	72	3
41	41	11
79	80	6
76	76	15
100	100	8
59	60	4
24	25	1
73	74	5
56	58	1
33	98	2
22	22	5
98	98	9
82	82	10
39	39	5
73	77	2
78	78	24
86	86	14
61	62	3
42	66	1
67	68	9
55	55	6
36	37	9
84	86	7
93	94	2
61	61	10
83	87	4
66	66	4
85	86	1
75	76	3
44	45	3
46	51	1
24	24	5
58	60	2
79	79	8
40	40	6
51	51	5
70	71	5
50	50	10
48	60	2
90	90	11
69	71	2
34	35	1
99	101	2
98	100	3
52	53	4
42	42	7
69	69	12
38	38	4
23	27	3
60	60	4
66	67	2
64	65	8
32	32	2
41	42	1
102	102	4
80	81	5
50	75	2
45	51	3
92	92	10
94	98	5
53	88	3
52	55	1
48	48	8
44	52	2
59	61	1
20	27	1
58	59	2
99	99	10
83	89	2
38	39	1
95	95	2
49	90	1
85	89	7
65	71	3
46	48	1
25	25	1
79	89	4
79	97	1
53	98	1
29	98	1
96	96	7
30	30	3
45	45	2
91	91	3
92	93	2
47	47	2
80	80	9
83	86	4
80	88	2
34	34	4
28	28	1
87	94	3
50	78	1
29	87	1
78	83	2
82	94	1
95	98	3
72	73	6
100	102	3
41	43	1
71	73	6
59	59	10
64	85	1
97	99	1
72	78	1
87	89	2
63	72	3
64	69	1
33	33	4
83	88	1
79	84	2
69	74	2
94	96	1
57	58	3
23	23	4
80	95	1
81	83	1
31	50	1
37	37	2
72	74	2
95	96	5
33	38	2
37	39	2
89	95	2
47	59	2
57	57	3
70	80	1
52	86	1
47	56	1
96	101	1
77	78	6
70	72	1
24	33	2
72	76	1
45	53	2
50	53	1
74	76	1
86	87	1
22	28	2
31	31	3
42	43	1
54	54	2
97	102	1
86	89	1
49	91	1
64	68	2
84	85	1
69	93	2
74	75	2
34	52	1
50	54	1
88	89	1
71	74	2
78	79	2
54	55	1
66	74	2
79	101	1
82	83	2
62	65	1
22	30	1
95	99	2
34	67	1
36	38	2
101	102	1
80	89	1
69	79	1
46	46	2
35	72	2
48	59	3
35	36	1
62	63	1
83	90	1
78	81	1
71	72	1
48	58	1
50	65	1
96	99	1
22	25	1
54	57	1
54	95	1
66	69	1
80	97	1
47	48	1
