75	75	18
50	51	5
54	57	2
98	98	10
82	83	6
56	71	4
60	60	5
35	35	6
77	107	1
48	48	5
35	36	2
21	21	6
26	26	7
50	50	3
61	65	3
26	28	2
99	99	20
82	82	10
55	55	3
68	68	7
102	103	3
29	29	4
22	36	3
73	73	6
24	36	1
33	33	12
78	78	4
36	59	5
101	101	8
71	78	2
85	85	3
59	98	1
77	77	19
95	95	1
45	75	1
25	25	8
85	99	4
22	22	10
79	100	1
97	104	1
23	34	3
74	94	3
75	81	4
53	53	9
73	97	8
77	78	1
31	33	1
55	56	6
83	102	2
52	52	9
88	90	2
83	84	1
91	91	4
54	69	4
81	81	6
90	90	10
43	44	7
24	24	4
41	75	2
76	80	3
90	91	1
59	59	5
45	45	2
66	66	2
83	85	4
63	65	3
87	87	12
40	67	1
27	27	4
37	37	5
25	46	3
60	62	6
54	54	7
93	98	2
42	42	2
62	62	6
56	56	11
59	76	2
35	51	7
82	88	5
72	77	2
66	72	2
37	53	2
69	70	5
84	84	8
77	104	4
58	58	6
63	67	3
95	96	2
23	23	7
30	32	4
71	71	4
23	27	6
86	86	7
29	30	6
92	94	4
36	36	7
28	42	7
67	67	5
46	46	9
73	75	5
29	47	2
105	107	2
98	99	7
49	68	3
67	69	1
63	63	12
60	61	2
74	74	8
69	93	3
59	79	3
64	83	1
64	64	3
90	105	3
42	48	5
99	100	5
59	60	3
100	100	9
103	103	8
34	34	2
106	106	6
80	80	4
25	26	7
47	49	2
42	45	4
65	91	3
48	49	3
86	101	4
56	57	2
22	42	1
61	61	2
44	97	5
66	101	3
43	55	1
83	83	7
72	78	2
43	106	5
28	29	1
31	31	4
85	86	5
43	43	6
99	104	1
95	97	6
22	70	1
35	49	5
86	87	6
49	49	6
72	72	3
38	38	4
89	101	2
94	94	1
51	52	4
67	68	5
75	76	1
58	61	1
93	94	2
48	70	2
30	30	3
81	83	2
24	33	1
92	92	7
63	90	2
44	75	6
34	50	3
65	66	4
34	35	5
40	92	3
97	97	2
102	102	8
45	46	2
64	65	3
23	41	3
69	69	7
78	83	1
104	105	2
70	70	5
75	94	2
68	102	2
93	93	3
44	45	2
59	61	2
51	51	6
56	94	1
105	105	5
27	79	2
27	34	1
24	25	3
79	79	3
77	102	3
37	97	1
34	49	1
58	96	2
100	101	7
54	94	1
45	58	2
107	107	1
68	86	1
95	98	3
28	46	2
69	72	1
60	76	2
78	89	1
84	100	1
77	99	1
75	79	1
103	105	3
76	76	3
53	58	1
25	33	1
76	92	2
32	32	1
44	44	1
79	87	2
66	78	1
77	94	1
35	48	1
97	105	1
23	31	4
40	54	5
65	65	6
43	56	1
37	98	2
80	89	1
84	85	1
96	96	2
73	103	2
92	93	2
56	87	2
99	101	2
40	59	1
67	88	1
71	76	1
36	51	2
59	94	1
87	88	2
32	46	1
44	52	3
91	93	4
83	89	1
37	51	1
62	81	2
88	96	2
37	84	1
38	59	2
88	89	1
20	20	3
68	84	1
77	91	1
49	53	2
31	62	1
28	47	1
61	81	1
78	102	4
77	80	2
38	97	2
37	95	1
42	47	1
48	68	1
70	86	1
94	105	1
81	100	1
57	57	2
26	38	1
67	76	1
77	81	2
53	54	1
78	79	1
60	92	2
89	89	2
21	77	1
26	48	1
21	40	2
66	68	1
70	78	2
25	29	1
100	104	2
41	42	1
71	72	1
61	62	1
45	52	2
61	77	1
73	90	1
45	67	1
28	28	2
66	67	1
81	82	1
42	46	1
85	101	1
90	107	1
65	67	1
87	101	1
29	41	1
65	68	1
64	84	2
27	47	1
65	76	1
80	102	1
47	47	1
71	73	1
61	63	1
46	52	1
58	64	1
39	81	1
24	26	1
88	97	1
66	69	1
66	75	1
49	50	1
