71	72	6
108	215	3
182	182	18
222	222	15
165	166	6
62	62	6
151	151	8
25	174	3
191	192	2
134	134	18
229	230	4
136	136	22
33	36	4
192	193	12
47	47	11
35	35	13
68	68	16
57	57	9
135	135	12
179	180	6
164	164	11
235	235	8
233	234	4
168	169	4
167	167	9
223	223	5
171	171	11
28	28	27
175	175	5
123	123	14
133	133	16
3	26	2
37	38	7
59	61	1
3	4	9
5	5	8
31	31	15
45	45	16
20	20	18
56	57	2
10	11	6
186	186	3
165	165	8
9	10	4
194	194	15
211	211	9
192	192	3
62	64	9
20	173	3
108	108	12
69	71	11
148	149	4
160	161	3
106	106	9
168	168	5
28	29	7
152	152	9
114	116	10
70	70	18
80	80	10
198	198	21
112	112	6
192	201	3
117	117	11
218	218	11
4	6	3
113	113	10
160	200	3
12	13	2
214	214	11
99	99	13
7	7	4
221	223	2
128	128	6
44	44	7
163	163	15
116	116	11
49	49	7
153	153	12
215	216	3
24	25	9
72	72	3
195	195	9
231	231	9
124	125	3
10	10	27
15	17	2
207	209	4
207	207	10
129	129	13
18	18	5
51	150	2
187	202	1
61	65	6
220	220	9
209	210	6
201	201	18
73	73	7
63	63	14
189	190	4
230	231	5
214	215	17
65	65	12
222	223	6
209	211	1
205	206	1
120	122	7
74	74	9
169	169	10
217	218	6
100	240	5
99	238	4
22	23	2
170	170	4
84	84	17
6	6	14
201	202	5
195	196	3
241	241	9
39	148	3
103	200	2
45	46	4
75	75	10
9	9	13
15	38	1
38	38	10
145	145	5
174	174	12
98	100	3
55	55	12
159	160	12
164	165	6
27	27	8
85	86	9
65	136	2
36	37	9
120	120	5
129	130	2
22	34	6
76	76	7
173	173	22
36	36	10
191	215	5
13	13	6
95	96	4
156	158	5
137	137	6
161	198	3
44	70	4
81	81	9
176	182	5
11	11	6
115	115	16
208	209	2
41	41	9
207	208	6
121	121	6
226	226	9
16	16	12
214	217	4
228	228	9
225	230	1
2	3	9
24	24	5
23	23	16
71	71	16
22	41	5
54	183	6
30	31	3
177	178	9
125	126	7
100	100	4
157	158	3
105	105	8
170	186	1
99	100	4
150	150	10
119	119	9
102	102	5
191	201	4
158	159	5
138	138	9
49	50	8
117	118	6
171	172	1
12	143	4
104	200	1
78	80	5
117	238	5
209	209	5
116	236	1
191	214	3
1	2	4
188	188	14
133	134	10
191	191	6
224	224	17
240	240	12
0	1	7
104	104	7
190	194	1
225	225	8
21	21	19
67	76	5
131	131	2
52	52	10
186	188	4
191	193	3
17	17	13
53	181	2
11	142	5
59	60	6
49	52	6
212	212	3
203	203	5
29	29	12
103	199	3
180	181	4
230	230	7
142	143	6
202	202	8
164	171	7
4	4	10
220	231	3
206	213	4
199	200	5
187	188	1
66	66	5
176	179	2
42	42	8
205	205	7
154	154	7
46	46	3
157	157	3
61	61	18
30	30	14
22	22	7
79	133	3
197	197	5
130	130	18
47	48	9
140	140	9
106	163	1
220	221	1
105	106	8
155	156	5
155	197	3
48	49	5
83	83	7
139	140	1
39	39	18
58	58	20
26	26	7
37	37	5
180	180	9
120	238	1
216	216	11
169	170	5
23	30	2
145	146	5
114	114	8
237	237	10
33	34	10
134	135	2
35	40	7
115	116	8
155	155	8
198	200	3
124	126	3
32	32	14
69	69	3
184	184	11
221	221	4
143	143	10
179	179	7
183	185	4
49	145	2
172	172	9
115	117	2
184	185	3
181	182	4
67	135	2
148	148	5
217	217	5
51	51	5
168	170	5
242	242	13
208	208	13
53	53	8
64	64	10
120	121	8
150	151	1
186	187	2
179	182	2
38	43	1
35	42	1
147	147	7
62	140	2
62	63	3
160	160	2
173	174	3
119	238	1
159	159	2
162	162	13
0	0	7
163	168	1
158	158	4
153	181	2
101	102	3
118	238	4
78	78	8
3	3	4
89	89	2
29	30	2
24	226	1
224	225	1
232	232	12
34	34	9
15	15	11
223	231	3
238	239	2
123	124	5
149	181	1
176	176	5
239	239	1
67	68	6
54	181	2
115	236	1
238	238	1
33	33	2
50	51	2
95	140	3
75	135	6
30	32	3
83	84	2
103	106	4
51	151	5
2	2	9
109	109	5
177	177	4
112	201	3
85	122	3
54	54	2
25	26	4
161	161	7
18	19	2
174	175	5
227	227	2
192	195	6
204	205	2
135	136	2
127	127	19
170	232	2
154	161	1
183	183	2
120	239	5
74	75	2
166	166	6
12	12	9
60	68	1
170	171	1
8	8	7
44	45	1
210	211	5
103	103	7
112	113	1
234	234	12
13	14	2
37	43	2
233	233	14
14	15	1
77	78	3
71	73	2
229	229	9
34	35	4
89	128	1
86	86	5
132	132	2
56	56	19
53	158	2
210	210	8
163	164	1
1	1	6
190	202	2
212	213	2
199	199	2
69	70	3
67	67	5
118	118	12
19	41	3
112	148	2
110	187	3
59	124	2
200	200	9
50	50	3
60	60	4
188	191	1
11	38	1
186	201	2
75	76	5
77	77	9
141	141	5
224	226	1
101	185	4
50	149	3
174	178	2
180	182	5
208	210	1
152	181	3
14	14	4
187	187	6
39	40	1
206	206	2
110	110	3
66	67	2
144	144	5
81	82	4
22	30	1
227	228	4
53	152	1
43	44	3
203	204	7
79	81	1
216	217	3
44	73	4
85	125	4
193	194	2
116	239	2
21	24	2
241	242	2
77	84	1
26	27	1
153	154	2
213	216	2
48	153	2
48	48	3
223	224	5
6	74	1
119	120	3
35	36	2
19	19	12
196	201	5
193	193	7
147	149	2
103	107	3
139	139	3
79	79	7
200	201	1
5	6	3
137	138	2
192	202	4
101	241	1
29	31	4
23	24	2
6	73	3
204	212	2
25	25	7
138	139	1
55	242	2
39	175	2
139	142	1
106	171	3
61	68	3
84	86	1
17	150	2
106	169	1
142	142	3
55	96	1
101	101	4
69	77	3
55	180	4
13	40	1
185	185	8
42	43	3
9	11	1
172	173	2
85	85	2
4	5	3
53	54	3
107	107	3
105	107	2
73	180	4
126	126	3
162	163	2
178	179	1
25	175	4
188	189	3
168	187	1
51	52	2
149	149	8
59	68	1
156	157	2
51	154	3
55	85	1
226	227	2
190	191	2
103	105	2
225	227	1
54	158	1
86	95	3
39	41	3
95	95	3
147	148	2
60	88	1
196	196	2
77	80	3
40	40	2
186	202	1
117	236	1
208	212	2
101	201	2
7	8	1
134	136	1
182	183	1
51	153	2
190	193	1
58	59	2
231	232	1
6	7	2
102	106	2
121	122	2
192	196	2
45	70	2
124	124	3
66	133	1
109	110	2
103	104	5
236	236	4
237	238	2
197	199	1
88	89	2
26	28	1
102	103	1
206	207	2
88	126	2
59	59	4
232	233	1
64	65	3
141	143	2
123	125	1
85	121	2
25	42	2
31	32	1
82	82	3
152	153	2
21	22	1
126	127	3
47	148	2
236	237	2
46	141	2
31	34	2
228	229	3
76	77	1
43	43	1
57	58	3
66	134	1
117	119	1
53	159	3
11	12	2
119	237	1
69	72	2
88	125	1
98	98	3
173	175	1
107	108	2
215	215	3
10	46	1
146	146	2
128	129	1
189	189	2
219	219	2
6	69	1
149	151	1
11	140	1
178	178	2
72	73	1
209	212	1
16	151	1
116	117	2
8	74	1
225	226	1
153	162	1
184	186	1
154	198	1
183	184	1
45	75	1
72	180	1
78	79	2
204	204	2
144	145	1
125	125	1
210	212	1
111	111	1
74	105	1
88	88	1
188	190	1
204	213	1
48	53	1
61	62	1
137	139	1
205	213	1
156	197	1
190	190	1
176	177	1
