49	50	9
59	59	1
85	85	15
90	90	28
205	212	3
197	197	10
224	236	1
111	114	1
64	72	9
69	69	17
62	63	4
71	71	8
199	200	9
72	72	8
55	55	5
209	209	4
223	244	3
54	81	1
233	235	1
49	49	22
238	240	2
216	217	9
182	182	24
16	16	16
243	243	9
174	174	6
216	218	2
193	193	8
23	23	8
203	203	10
57	57	13
99	101	6
19	21	3
185	192	2
235	236	4
44	47	3
162	180	5
63	63	13
110	110	21
217	218	1
93	94	3
102	102	6
87	88	11
101	101	2
76	81	2
203	204	9
39	42	2
218	221	4
156	156	15
63	64	1
110	115	1
58	82	1
86	87	2
157	157	8
46	46	6
225	225	13
230	231	4
232	232	19
192	225	4
8	8	3
215	215	10
119	179	2
58	58	14
145	201	1
191	191	18
78	79	11
173	191	1
239	239	17
176	176	5
52	54	2
158	234	1
44	45	16
218	238	1
93	156	4
62	62	27
109	110	2
180	180	19
73	74	15
201	210	2
160	161	4
222	222	8
223	248	4
164	165	6
206	206	10
154	156	3
48	48	14
237	239	4
32	33	4
186	199	3
18	20	1
245	245	17
147	147	11
204	204	12
162	162	3
94	94	19
29	29	8
169	176	5
165	176	1
91	94	1
113	114	18
166	166	6
26	28	2
167	167	18
145	179	1
117	117	8
156	157	1
60	60	10
31	31	7
26	26	7
152	163	3
186	186	7
94	159	5
170	170	7
204	205	8
112	112	12
152	152	8
68	68	5
207	207	6
45	45	23
19	20	5
78	80	4
173	174	8
11	15	3
228	228	11
205	207	6
225	226	10
162	181	3
190	190	10
42	42	6
179	180	2
224	226	2
219	239	2
36	51	2
197	198	5
86	86	8
96	97	2
116	116	11
8	9	2
213	213	9
221	234	4
55	56	2
196	196	10
65	65	16
93	93	6
151	151	8
184	184	16
191	192	7
53	62	1
6	39	2
11	12	7
195	245	2
51	51	7
34	34	15
115	115	13
186	187	3
171	171	10
199	199	23
99	99	9
231	233	10
21	21	9
112	161	3
154	154	18
146	147	3
238	238	11
177	177	13
70	70	9
85	109	4
77	113	2
95	95	5
38	38	12
76	76	10
159	162	7
64	67	6
202	202	8
100	118	1
10	10	7
244	245	3
157	158	9
53	53	8
52	52	14
3	3	6
246	246	15
161	199	2
75	75	6
223	223	9
27	27	14
67	67	7
36	200	1
152	230	2
238	241	4
165	165	14
81	86	6
237	240	3
189	189	6
71	74	1
20	20	9
201	201	15
30	31	3
100	100	14
243	244	11
155	155	17
205	205	4
80	83	4
14	14	10
24	24	12
77	77	10
233	233	11
188	188	4
74	184	2
53	54	5
56	61	2
210	211	2
61	61	18
153	153	4
96	101	3
240	240	9
54	54	14
198	239	5
50	105	3
17	17	5
218	218	11
236	236	10
22	22	8
175	175	6
151	154	12
79	80	4
98	108	4
107	107	11
187	188	3
183	183	16
163	173	1
87	87	12
216	216	6
160	160	14
195	196	6
232	233	14
108	108	2
235	235	12
52	53	4
192	198	2
167	214	1
152	154	1
96	98	1
40	40	10
241	241	7
201	203	4
231	231	9
109	109	8
69	71	3
245	248	5
212	212	9
164	179	2
37	38	5
69	72	1
82	82	6
15	42	1
89	89	15
38	45	4
37	37	1
229	229	19
114	114	8
143	143	2
54	55	4
237	238	3
157	167	1
218	246	6
221	221	14
198	199	4
113	113	12
15	15	7
92	93	13
146	146	5
79	114	5
242	242	6
43	43	16
11	11	5
154	155	15
27	28	5
219	223	4
47	49	2
5	6	1
172	192	2
7	7	6
186	190	2
64	64	7
171	183	2
109	162	3
196	223	1
199	232	1
118	118	5
227	228	10
88	88	4
19	19	4
119	119	5
215	216	3
15	35	1
36	53	4
96	96	14
179	179	10
35	36	4
158	173	1
173	173	5
76	78	3
145	145	4
82	85	2
103	103	3
74	75	5
41	41	5
196	197	8
208	209	5
28	28	12
4	4	8
167	171	3
92	92	12
183	185	3
19	145	1
160	233	5
9	12	2
79	86	4
12	12	8
83	83	1
85	113	2
150	150	7
58	59	4
226	226	10
247	248	9
151	153	4
64	241	3
1	1	7
12	80	3
111	111	14
193	246	2
237	241	2
247	247	13
176	177	2
36	36	5
66	66	6
159	159	6
6	6	10
111	112	4
85	101	2
77	79	2
117	119	4
159	160	2
97	98	3
239	246	3
211	211	7
165	166	5
245	246	6
192	192	6
47	47	3
117	183	5
96	179	1
218	219	7
56	56	8
227	227	5
29	30	3
200	215	1
181	181	11
156	158	3
35	204	2
107	176	3
116	167	4
73	73	3
85	100	6
106	106	3
32	44	4
97	97	9
228	229	3
44	44	6
237	237	4
83	84	1
220	236	3
39	39	4
176	178	2
166	171	1
234	234	6
217	246	2
16	207	4
92	100	2
178	178	7
99	100	2
168	195	1
84	85	5
246	247	1
73	77	2
192	196	1
18	18	5
217	217	5
196	213	1
185	185	4
169	174	3
190	192	6
90	91	3
78	78	9
34	35	4
26	27	6
189	192	1
33	33	3
169	177	1
14	15	3
158	158	3
203	205	1
91	93	1
214	214	2
244	244	12
45	48	2
29	31	2
215	224	2
230	230	8
56	58	3
152	234	1
58	60	3
68	110	2
145	150	2
69	70	3
29	111	1
223	225	1
47	78	1
157	164	3
185	186	1
4	38	1
41	43	4
194	195	1
164	172	2
65	66	5
175	182	2
183	227	4
169	169	9
222	233	1
32	32	9
9	9	10
193	195	1
91	91	4
68	69	1
150	151	7
26	39	1
218	242	2
94	101	3
35	35	2
221	232	7
55	86	2
7	201	3
106	107	4
166	173	4
220	221	5
241	242	3
20	21	2
231	232	3
11	76	2
91	92	5
7	8	3
224	224	10
72	74	3
200	200	10
20	208	1
107	111	4
171	193	4
94	151	2
188	189	4
234	235	5
114	117	1
114	115	5
184	200	1
84	84	4
68	70	3
71	84	3
158	162	1
223	247	6
98	98	5
88	108	1
63	111	3
74	74	2
240	242	3
171	172	3
117	187	1
191	198	2
15	212	2
79	79	2
197	216	4
234	241	2
23	26	2
211	214	1
210	210	3
15	45	1
157	160	1
94	153	2
30	30	4
216	243	1
195	195	5
174	202	2
208	208	6
3	37	1
192	193	1
21	23	2
224	232	1
233	241	1
4	5	4
164	180	2
193	194	8
163	163	2
116	117	7
77	114	1
237	242	1
187	187	8
60	61	5
21	22	1
18	19	1
233	234	3
212	213	4
168	168	5
105	159	1
63	72	3
151	157	3
51	54	1
176	181	4
237	243	1
100	101	3
219	219	3
75	81	2
12	46	1
243	245	1
220	220	5
244	248	2
118	119	1
47	48	3
25	25	2
61	82	1
172	191	1
93	101	1
222	223	2
171	173	2
205	209	2
64	66	1
246	248	1
89	90	2
112	114	1
201	206	1
22	23	1
121	121	1
110	111	2
221	222	1
33	35	1
96	159	4
106	111	1
20	32	1
212	214	1
193	245	1
191	225	3
10	11	1
248	248	4
165	175	1
192	199	1
166	174	2
200	201	1
39	45	2
167	183	1
50	111	1
48	50	2
51	111	3
96	174	2
95	96	1
199	225	1
88	107	1
161	163	3
150	161	1
243	247	2
185	229	1
194	194	2
202	203	3
50	50	3
189	198	1
178	179	3
214	215	2
211	212	4
189	190	2
56	59	1
104	157	2
120	145	1
76	77	4
247	249	3
161	161	6
76	115	2
101	109	4
168	169	3
218	239	1
80	80	3
153	156	2
219	220	1
59	60	2
8	183	1
175	181	2
190	191	4
80	81	2
152	153	3
111	165	2
75	77	1
71	80	1
101	102	1
120	120	4
164	177	1
149	149	1
166	167	1
191	193	1
67	68	1
166	175	1
103	157	2
197	215	1
167	168	1
55	57	2
46	113	1
233	239	1
48	60	1
216	241	1
191	224	1
119	199	1
81	81	3
230	241	2
198	198	7
77	78	2
201	211	2
11	42	1
207	208	2
2	2	1
90	92	2
155	156	3
61	64	1
61	62	1
39	41	3
59	61	1
19	35	1
94	152	1
94	95	2
161	200	1
158	175	1
71	73	1
148	214	1
158	166	1
153	154	1
14	209	3
227	230	2
69	81	1
183	200	1
226	236	1
21	35	2
95	97	1
30	36	2
31	32	1
34	64	3
81	82	1
169	175	1
181	182	2
8	39	1
49	78	1
206	207	1
183	184	2
116	118	1
45	46	2
70	71	3
162	164	1
218	236	3
10	83	2
222	224	1
51	53	4
105	106	3
84	86	2
199	201	1
99	108	1
87	90	1
242	244	1
33	111	2
60	78	1
45	52	1
28	29	1
80	86	2
119	187	1
103	107	2
6	16	2
215	217	1
220	237	1
175	178	1
165	172	2
156	243	1
6	36	1
30	33	1
242	243	1
187	190	1
201	202	1
50	85	1
20	205	1
101	152	1
231	234	2
214	217	1
165	171	1
188	197	1
156	242	1
152	159	1
157	159	1
3	33	2
193	247	1
33	38	1
244	247	1
105	235	1
5	5	1
59	63	1
161	178	2
220	223	1
29	226	1
167	181	1
86	88	1
150	225	1
9	10	1
224	225	1
117	118	1
52	62	1
11	14	1
112	115	1
216	242	1
187	226	1
102	103	1
16	235	2
14	207	1
180	181	1
87	107	2
46	47	1
229	236	1
