118	118	9
147	148	4
16	63	2
24	24	9
49	49	9
74	141	4
104	104	5
77	79	4
31	37	2
48	48	4
18	19	1
86	86	10
46	50	1
117	117	5
114	114	8
95	95	15
27	28	3
23	66	2
149	150	2
84	84	15
64	64	12
123	123	8
150	150	9
6	32	11
85	85	6
22	110	7
69	70	3
12	12	4
120	142	2
3	3	3
107	109	1
10	37	1
14	15	5
14	50	1
4	7	5
25	26	7
135	136	8
149	149	7
126	126	11
99	99	18
25	25	14
17	17	18
52	62	4
113	140	3
19	19	15
10	10	7
76	76	9
111	112	5
40	40	8
116	116	5
131	133	3
71	71	10
4	8	3
68	68	6
112	112	10
72	72	9
22	22	14
75	76	1
6	43	2
96	96	3
47	47	10
130	132	1
42	42	5
136	137	7
130	130	8
67	67	11
42	43	5
15	15	3
132	132	8
16	16	13
150	151	9
38	39	2
78	112	1
113	114	4
97	97	8
138	141	2
26	26	6
67	106	3
66	66	5
70	70	7
33	33	13
120	120	8
137	137	6
78	78	8
52	53	6
30	39	3
31	31	10
51	53	1
11	32	2
134	134	7
135	137	4
128	129	2
16	17	2
151	151	7
69	132	1
4	4	1
45	45	4
141	141	13
95	96	5
111	111	13
108	108	5
62	62	6
2	2	3
38	38	16
20	36	2
105	105	7
121	121	3
43	43	3
100	100	7
93	93	13
54	55	1
131	136	1
129	129	6
53	53	10
36	36	6
39	40	5
76	81	4
23	107	2
115	115	3
28	28	4
76	79	3
80	80	4
154	154	3
113	118	1
39	39	6
79	143	2
6	44	7
46	48	1
109	109	6
71	77	1
99	100	3
83	85	6
6	6	5
28	29	4
148	148	7
98	101	4
75	75	1
4	5	4
32	32	4
56	56	4
84	85	1
98	99	4
146	146	5
30	30	12
113	113	22
116	117	4
24	38	1
92	92	2
138	140	2
25	38	2
152	152	10
77	77	7
21	25	2
9	9	10
39	45	3
147	147	7
70	134	4
93	128	3
139	139	7
103	103	2
82	82	12
48	49	1
125	125	6
23	24	2
15	106	2
132	133	5
75	81	1
14	14	4
46	52	1
80	144	6
52	52	2
13	13	8
54	54	9
110	111	2
5	8	2
50	50	2
145	146	2
143	144	1
79	145	1
20	20	7
41	41	4
13	43	3
153	153	3
104	105	1
31	32	10
31	43	1
11	30	2
75	82	6
11	11	5
94	95	8
75	144	4
109	136	2
83	83	7
98	104	2
94	94	4
122	147	3
18	18	7
119	120	1
6	8	1
72	73	1
79	144	1
76	77	2
122	122	4
101	101	3
140	140	1
122	123	3
122	128	3
133	133	4
73	73	12
136	136	7
81	81	2
27	27	3
82	145	4
72	74	1
84	86	1
30	31	3
68	69	8
65	66	3
21	21	3
110	110	4
23	108	1
77	80	1
10	19	2
38	63	1
39	41	2
29	29	3
88	122	3
128	128	9
97	103	1
69	131	3
28	30	2
119	119	3
37	37	3
67	97	3
101	102	1
79	140	1
29	30	3
124	124	6
120	141	1
7	7	7
10	20	7
2	3	5
63	102	3
142	142	7
10	11	1
153	154	1
61	62	3
74	74	1
41	42	1
24	25	4
102	102	7
144	144	1
23	23	3
27	105	1
69	69	3
135	135	7
27	64	3
89	151	1
24	106	2
126	127	5
98	98	3
120	137	2
105	106	2
123	154	1
109	135	1
49	62	3
152	153	1
33	34	1
16	106	1
34	35	2
57	152	1
131	135	1
111	128	1
44	44	5
115	116	3
45	46	5
8	31	3
45	47	3
103	104	3
34	34	7
106	106	10
138	138	4
23	109	1
142	144	3
82	84	3
119	147	1
15	16	1
92	125	3
17	18	4
121	143	3
103	105	1
8	8	1
95	98	1
127	127	3
96	131	2
85	86	4
108	137	2
36	37	1
146	147	2
46	46	4
5	5	1
21	22	2
120	121	1
89	127	1
27	65	1
57	57	3
112	113	2
87	87	3
11	31	5
68	131	3
63	63	1
145	145	5
77	78	2
71	118	2
69	136	1
51	51	2
40	41	2
100	101	1
118	135	1
33	110	1
123	126	1
119	135	2
50	51	2
111	139	1
56	57	3
139	140	2
121	147	1
107	107	4
8	32	2
9	10	1
130	131	2
15	50	1
22	23	2
120	136	1
11	38	2
74	152	1
68	106	2
88	147	3
35	36	2
83	84	1
93	125	1
137	139	1
69	130	1
20	35	1
131	132	3
30	64	1
16	49	1
12	15	1
81	83	1
96	97	1
55	55	1
73	74	1
55	56	1
138	139	1
3	43	1
86	147	1
22	108	1
29	44	1
67	68	1
131	131	2
89	91	1
76	141	1
75	83	1
29	40	2
74	75	1
9	102	1
51	52	1
