54	63	1
108	108	1
109	109	6
55	56	2
121	121	8
16	71	2
86	87	1
77	79	3
70	70	7
62	62	7
13	20	3
28	28	3
27	28	3
98	98	7
13	13	4
90	91	2
78	78	4
11	11	4
6	97	1
24	24	3
105	105	8
22	23	5
45	45	1
94	94	5
11	37	2
30	31	2
58	58	6
123	124	2
32	32	2
35	35	9
30	30	8
7	7	3
3	4	7
12	12	2
2	2	9
114	114	3
28	29	2
96	96	4
119	120	4
33	33	7
101	101	12
107	108	3
89	89	5
43	50	3
73	73	10
120	120	4
73	74	3
14	14	7
12	52	1
23	29	1
95	95	3
63	63	4
60	60	7
102	103	6
12	99	2
56	56	3
91	91	8
109	110	2
100	100	3
84	84	1
14	15	4
80	80	3
130	130	4
7	8	2
123	123	1
17	18	4
77	108	2
68	69	1
97	97	8
83	84	6
134	134	10
128	129	2
113	114	4
88	88	1
21	21	3
109	111	2
42	52	3
87	96	1
36	89	2
19	20	1
43	43	9
50	85	2
135	135	1
84	86	1
106	106	1
90	90	7
37	37	5
55	57	2
23	23	2
132	132	5
53	53	2
111	111	2
119	119	4
76	76	3
118	118	3
47	47	1
11	35	2
35	36	1
18	18	5
77	105	1
96	97	4
99	99	4
108	110	2
72	73	2
116	116	2
59	59	3
82	83	1
115	115	3
31	31	4
21	22	1
34	98	1
20	20	4
17	17	3
74	74	8
19	19	4
132	133	5
128	128	7
8	8	4
12	13	2
25	25	2
33	34	2
66	66	3
130	132	1
31	32	1
15	15	1
130	131	4
112	113	4
75	125	2
79	111	3
50	50	1
4	5	1
64	64	4
69	69	2
35	98	1
131	131	5
3	3	5
75	124	1
67	67	2
6	6	6
87	88	2
59	60	2
67	128	1
93	93	2
81	81	1
111	112	3
60	109	2
9	9	3
27	27	1
97	98	2
65	65	1
57	57	2
127	127	3
75	75	2
90	96	3
44	45	2
108	109	1
61	61	6
124	124	2
30	33	1
125	126	6
5	5	1
103	103	1
59	63	1
29	29	2
77	119	3
5	35	3
78	107	2
77	78	1
94	95	1
122	123	1
117	117	2
92	92	2
85	100	1
15	16	2
83	83	1
110	110	1
20	97	2
114	121	1
12	35	1
42	55	1
34	34	5
129	129	1
18	21	3
24	25	1
93	94	1
68	68	1
6	7	1
125	125	3
65	66	1
82	82	2
122	122	1
22	22	1
117	118	2
134	135	1
110	117	1
44	48	2
37	38	2
58	59	1
62	64	1
52	52	2
80	81	1
126	126	2
112	112	1
75	104	2
1	2	1
10	37	1
34	35	1
53	63	2
91	96	1
133	133	1
36	90	1
124	125	1
4	4	1
38	99	1
