19	26	3
64	111	3
91	107	1
122	123	5
11	11	5
16	17	1
77	77	3
19	31	2
43	43	9
75	99	7
60	60	8
3	4	2
20	20	2
81	127	5
102	102	6
3	3	1
57	57	8
10	10	6
75	81	4
16	34	2
127	131	5
78	92	4
35	45	1
23	24	4
119	119	6
133	133	5
68	78	3
79	79	15
41	42	2
110	110	5
80	80	8
62	62	3
111	114	1
115	123	3
84	86	1
94	95	3
21	25	4
124	134	3
41	41	9
18	33	4
113	113	8
109	109	3
84	103	1
57	66	1
40	40	5
72	79	2
79	94	3
86	87	1
23	25	4
99	99	10
123	123	10
14	17	2
2	2	3
90	133	4
12	58	3
95	97	2
86	102	3
113	131	2
64	73	1
125	125	6
81	81	9
29	29	4
24	25	2
6	6	11
78	119	1
128	132	2
74	74	4
27	27	9
126	126	7
98	98	2
83	121	1
73	73	3
97	100	7
19	19	12
47	47	8
15	15	11
131	131	13
125	129	1
68	68	2
0	0	5
15	25	1
103	103	9
107	107	2
37	37	5
32	32	8
13	28	4
109	110	2
66	66	5
12	12	5
81	128	1
21	21	3
46	62	1
1	60	1
79	89	1
112	112	6
42	44	7
121	122	4
91	91	5
33	38	5
90	94	3
45	46	6
85	85	14
113	132	1
122	122	7
67	75	2
9	9	10
4	4	6
69	69	2
68	77	1
129	129	2
4	15	1
7	7	5
95	99	2
26	26	3
21	43	4
18	18	7
22	25	1
92	92	11
38	44	5
58	58	11
39	39	11
99	115	2
33	33	11
15	24	6
93	94	2
130	130	4
62	126	4
96	96	2
7	32	3
16	33	2
44	44	6
30	48	3
67	67	4
92	130	2
47	62	4
13	22	4
124	124	7
58	59	8
67	69	1
69	79	3
97	99	4
88	97	2
90	90	5
8	10	6
81	92	1
117	126	3
17	21	4
9	20	1
106	106	11
68	69	2
117	129	3
5	119	2
134	134	15
49	55	5
108	108	6
105	110	2
42	57	2
114	118	1
28	28	7
128	134	6
20	21	1
25	29	3
91	131	5
14	14	4
104	104	6
113	115	1
112	117	1
84	85	2
26	31	4
75	77	4
94	108	1
70	83	1
33	40	3
23	33	2
35	39	1
105	106	2
78	106	3
16	16	4
95	115	1
105	105	7
9	46	5
68	80	2
87	87	11
120	120	5
80	96	2
90	122	2
69	114	2
96	100	1
81	131	2
36	37	3
55	55	3
105	107	2
121	121	8
6	20	3
2	60	1
93	93	2
0	27	1
37	38	5
72	93	2
115	115	2
72	96	1
69	75	1
34	34	4
1	1	3
106	124	3
116	116	5
56	57	2
99	114	1
80	81	3
44	45	5
13	13	9
94	94	3
25	40	4
97	98	2
132	132	10
22	23	2
20	22	2
25	25	2
86	89	2
90	109	5
105	118	1
85	108	2
8	8	3
3	22	1
46	46	2
83	92	5
85	87	3
128	128	9
42	43	7
78	91	5
90	92	3
22	28	6
75	91	3
78	78	7
29	69	1
95	95	6
71	72	1
62	67	1
131	133	1
22	27	3
64	64	2
4	17	2
35	43	2
127	127	5
57	64	2
107	108	1
62	95	1
61	61	9
1	2	2
113	123	1
63	96	2
98	113	1
31	31	8
12	13	2
80	88	3
61	79	2
93	105	2
57	65	1
97	97	4
114	123	1
118	134	1
20	28	2
15	46	2
36	36	5
90	113	1
29	30	1
66	67	1
66	75	2
17	35	2
4	7	3
40	44	2
80	97	1
31	32	2
93	115	3
58	60	1
49	50	1
77	78	1
112	113	2
68	84	1
38	39	3
84	101	1
113	116	4
127	132	2
17	17	3
94	107	1
58	70	1
103	104	2
128	130	4
22	26	5
101	101	5
70	78	1
99	107	5
91	109	1
25	28	4
107	124	2
35	35	5
114	125	2
70	72	1
100	113	2
87	88	1
56	99	1
126	132	1
119	125	4
63	63	3
106	131	3
61	67	2
45	45	1
117	117	2
55	134	1
82	82	7
11	16	2
21	26	2
120	132	1
81	87	3
103	133	1
109	123	3
71	78	1
22	29	1
47	48	3
76	76	4
2	3	2
59	59	4
59	70	1
60	71	1
96	98	3
24	29	2
99	100	1
70	77	1
21	23	1
56	56	6
72	72	1
127	129	2
7	16	4
86	91	1
4	30	2
122	130	1
91	100	2
118	118	2
65	65	1
78	132	1
123	125	1
8	33	1
115	116	2
10	11	1
27	99	2
55	69	3
22	43	1
34	49	1
11	40	3
64	75	2
0	1	1
73	75	2
82	87	2
113	114	1
73	79	1
96	119	1
62	63	1
109	121	1
14	33	2
93	123	1
90	103	1
19	29	3
4	32	1
92	104	1
20	23	1
100	100	4
51	58	3
63	64	2
128	133	2
110	111	1
83	127	2
5	6	2
83	83	2
73	118	1
86	86	1
90	106	2
86	88	1
77	80	2
73	93	1
78	93	2
58	102	1
98	117	1
68	75	1
112	124	1
62	81	1
79	93	1
90	121	1
57	134	4
69	109	1
26	27	1
14	15	1
8	9	1
21	29	1
5	42	1
69	81	4
92	129	1
30	30	1
62	66	2
64	70	1
32	34	1
6	15	1
72	129	1
67	76	1
77	101	1
85	96	1
104	105	2
6	8	1
37	39	1
94	96	2
95	114	1
46	47	2
80	90	3
8	14	3
87	94	2
57	100	1
22	31	1
5	39	1
5	14	2
30	35	1
55	57	1
4	6	1
76	96	1
103	119	2
65	68	1
119	120	1
18	19	1
119	122	1
4	38	1
11	14	1
115	124	1
17	28	2
24	24	1
86	100	1
70	71	1
38	38	1
5	44	1
23	23	1
89	101	1
