13	49	1
16	16	7
85	85	9
111	112	4
141	152	3
152	152	6
97	97	3
54	104	2
97	110	2
90	90	10
139	140	8
83	83	14
15	15	6
162	164	2
167	169	4
66	80	3
52	52	9
102	102	2
89	89	15
110	110	11
2	2	5
8	8	11
95	96	3
167	167	2
46	46	6
150	150	5
119	119	1
124	124	3
58	58	1
137	137	13
34	35	2
56	92	2
157	160	5
68	74	3
53	55	7
57	58	1
56	56	3
100	100	5
40	40	9
73	73	6
55	55	7
154	154	9
168	169	3
80	80	8
114	114	2
148	149	4
113	113	5
166	166	11
122	122	7
105	106	2
68	69	1
163	163	4
99	99	3
130	130	3
3	13	6
57	57	3
133	134	3
126	127	3
10	10	5
2	5	1
113	114	3
124	153	4
27	27	7
13	14	3
166	167	2
53	54	6
50	50	4
65	92	2
7	7	7
87	87	6
93	93	6
54	54	1
141	141	1
3	3	2
20	22	2
120	120	1
0	2	5
11	11	2
128	128	1
109	109	9
97	99	5
21	21	5
72	72	14
2	3	3
104	105	2
84	120	3
71	71	4
123	123	3
79	79	8
151	151	8
104	104	3
112	112	6
155	155	6
35	36	1
134	136	2
52	103	6
127	127	5
35	35	2
146	147	3
7	8	2
40	91	2
22	22	10
83	84	3
79	80	2
4	5	2
45	45	3
132	132	4
138	138	3
102	103	6
27	28	2
92	92	5
10	11	2
17	51	1
158	158	1
89	94	3
82	82	4
76	76	5
149	149	1
18	18	7
111	111	5
80	81	5
69	69	3
125	125	3
147	148	2
47	49	5
88	89	2
17	17	3
36	36	4
11	50	1
77	77	2
42	42	4
56	57	4
144	145	1
67	67	4
107	108	1
51	51	3
139	139	5
88	122	4
129	129	2
3	14	1
47	47	3
82	120	1
161	162	2
68	81	5
14	14	3
145	146	4
125	152	3
0	0	6
99	100	3
5	6	2
20	20	5
83	89	1
97	106	1
78	81	2
69	72	2
9	9	2
23	23	5
53	62	1
93	101	1
16	52	5
142	143	2
118	118	4
146	148	3
142	142	1
104	106	1
113	118	1
66	94	1
106	106	4
5	5	6
161	161	7
43	43	6
51	52	2
146	146	2
13	47	5
91	91	2
62	62	1
93	95	2
110	111	2
43	44	6
143	143	5
123	152	2
156	161	1
154	156	2
108	108	4
157	158	1
131	131	4
126	140	1
54	101	2
41	91	3
105	105	1
13	13	3
94	94	1
131	154	1
130	131	1
4	4	1
159	161	1
134	135	3
132	133	1
75	133	2
37	38	1
103	103	2
155	157	3
39	39	2
20	24	1
165	166	5
58	68	1
156	156	1
157	157	1
86	115	1
81	81	1
86	86	3
138	162	2
115	115	2
74	74	1
70	70	1
144	146	1
14	15	1
75	75	1
158	160	1
19	19	2
33	33	2
63	64	1
1	2	2
86	87	2
15	49	1
65	87	1
6	6	1
76	79	1
129	130	1
52	104	2
119	120	1
159	159	1
101	101	3
90	91	2
37	37	1
50	51	4
77	82	1
15	102	1
88	88	1
115	116	1
136	136	1
140	142	1
33	34	1
120	122	1
96	106	1
17	24	1
91	100	2
44	45	1
150	151	1
49	49	1
99	110	1
22	23	1
140	140	2
84	122	2
163	164	1
11	24	1
160	161	1
147	147	1
