16	16	3
169	169	9
82	82	10
79	79	10
155	165	2
10	10	14
133	133	14
6	6	9
78	104	2
118	118	20
72	73	6
73	73	6
81	88	2
90	90	5
27	28	3
104	104	9
16	17	4
120	120	9
95	95	3
74	74	8
18	18	9
154	155	3
81	81	5
117	117	9
46	47	4
51	51	17
102	102	4
128	134	3
157	166	3
132	133	1
146	147	2
36	36	10
34	148	2
98	99	3
130	130	9
42	43	5
39	39	9
63	63	2
160	160	8
1	2	4
122	123	4
119	119	5
14	14	3
125	125	15
160	161	1
68	69	8
135	135	6
44	44	7
34	38	4
5	5	8
0	0	14
66	66	7
75	75	9
161	161	2
91	96	1
25	26	2
162	165	1
156	156	9
19	19	8
123	123	4
145	145	9
54	54	14
14	40	2
84	84	8
155	155	5
14	16	4
17	83	4
105	105	5
123	124	5
15	16	3
15	22	3
157	157	6
42	42	5
148	148	3
1	1	1
25	25	2
153	153	2
127	127	5
113	113	10
163	163	4
149	167	1
141	141	10
170	170	3
26	26	6
23	23	11
162	162	7
91	91	10
6	52	1
151	159	1
144	144	4
70	71	8
147	148	4
77	77	4
50	55	2
90	91	5
93	93	10
52	52	5
99	99	6
56	56	7
102	104	3
87	87	8
149	149	3
155	156	4
107	107	9
71	71	7
152	152	9
47	57	2
115	115	6
38	38	9
4	4	10
22	22	9
68	68	10
11	11	4
63	64	2
89	90	5
132	132	1
40	40	13
154	154	4
37	37	10
7	7	5
96	96	9
80	80	6
88	89	5
130	131	2
100	101	4
20	21	2
46	46	8
49	49	3
67	69	1
155	157	2
158	158	6
2	2	7
44	45	2
69	69	10
94	95	2
110	110	2
131	132	2
126	126	4
67	67	1
57	57	4
52	53	1
110	111	1
111	111	1
41	41	5
50	50	8
161	162	2
24	25	3
50	54	1
53	53	10
146	146	4
45	94	2
11	12	1
101	104	2
117	121	1
139	141	2
72	72	7
133	138	5
15	41	1
157	158	1
38	39	1
137	138	4
73	87	2
139	139	7
92	93	2
35	35	5
112	122	2
157	168	1
88	88	6
21	21	4
136	136	7
1	38	1
66	68	1
124	125	4
139	156	1
168	168	2
138	138	5
46	144	3
165	165	10
13	13	5
128	131	2
27	27	9
0	25	1
164	165	2
100	100	4
101	101	5
12	12	5
15	25	3
86	90	1
24	24	2
9	9	6
92	92	5
140	141	4
3	25	1
45	45	13
124	124	3
41	42	3
156	157	2
134	134	3
164	164	5
108	108	4
21	37	3
115	130	1
142	143	1
13	16	2
97	103	1
7	10	1
132	134	3
154	168	1
48	48	4
47	48	5
34	34	3
131	131	2
3	3	2
127	128	1
114	114	1
87	89	1
106	106	6
33	33	2
43	43	4
85	85	8
86	86	3
71	104	1
122	122	6
19	20	1
81	87	2
55	55	5
97	100	1
45	139	1
117	118	2
8	8	7
159	159	5
55	56	1
133	134	4
0	38	1
48	57	1
20	20	3
18	19	3
112	113	1
83	83	3
143	143	2
4	5	2
109	109	1
129	129	6
14	15	1
15	15	4
73	81	1
76	76	5
78	79	2
125	126	6
63	80	1
166	166	1
15	20	5
42	45	3
63	74	2
151	151	5
65	65	2
70	70	4
147	158	3
151	152	3
12	13	1
140	140	2
13	15	1
78	78	4
68	121	1
13	170	1
3	12	1
67	111	3
116	116	2
44	145	2
72	104	3
156	158	3
67	110	2
72	81	2
150	153	1
106	107	2
74	76	2
137	137	1
93	95	1
7	55	2
28	28	4
66	112	1
135	136	1
21	24	1
94	94	2
127	135	2
42	49	1
103	103	1
129	136	1
169	170	2
77	78	3
54	55	2
64	64	3
50	56	1
34	149	2
111	118	1
159	163	1
138	139	1
22	84	1
75	76	1
128	128	5
82	83	1
49	50	1
145	147	2
16	20	1
42	147	1
13	40	1
142	142	3
86	87	1
97	97	2
80	106	1
127	141	2
97	98	1
134	135	1
58	58	2
140	145	1
34	40	1
96	97	2
143	144	1
66	67	1
139	157	1
150	150	1
126	128	2
62	62	1
17	17	1
36	37	1
79	80	1
39	168	1
109	110	1
3	52	2
146	149	1
150	158	1
35	38	1
43	44	1
108	109	1
159	160	1
114	116	1
89	89	1
