120	138	3
91	115	2
57	128	3
119	120	2
60	60	10
64	64	2
111	112	1
125	126	9
17	22	4
65	66	2
80	80	5
124	127	4
18	30	3
4	5	2
67	67	3
36	36	5
51	83	3
57	65	1
130	130	10
109	109	6
89	104	1
50	53	2
90	105	6
54	54	6
22	29	3
33	33	6
62	62	5
6	6	14
62	63	2
106	106	4
67	79	6
88	102	2
101	103	5
13	24	1
104	118	3
73	85	1
36	38	2
57	58	2
102	103	4
40	40	8
1	1	11
34	68	2
58	59	2
125	125	10
96	118	1
105	112	2
58	72	5
84	87	6
60	70	5
134	134	11
74	82	1
33	37	2
13	13	7
40	41	3
115	123	1
140	145	3
81	81	1
73	74	2
101	101	3
19	35	5
57	57	4
140	140	8
96	99	2
127	138	5
64	70	6
47	55	5
42	42	11
5	10	6
110	110	4
101	104	4
104	105	10
113	131	2
32	33	4
104	104	6
134	144	4
99	104	1
81	82	2
5	5	10
91	91	3
112	127	6
5	20	5
74	76	4
106	117	2
18	19	2
4	4	3
137	137	16
65	65	6
52	55	4
61	63	1
71	72	1
73	83	1
114	114	7
128	128	8
89	97	1
23	24	2
76	76	9
133	133	5
11	11	13
54	55	2
136	136	13
53	61	1
82	82	1
53	57	3
121	142	2
132	144	2
141	141	10
89	89	4
59	62	1
138	140	2
113	127	6
52	56	1
143	144	1
17	18	2
127	132	1
33	39	3
36	41	4
119	132	2
53	53	11
131	132	2
104	106	6
38	38	5
11	14	3
70	70	8
116	116	3
98	98	7
82	98	2
121	121	12
3	3	8
134	145	3
136	143	1
120	120	11
33	69	4
21	25	1
1	21	1
19	19	6
26	26	8
87	87	3
29	33	4
104	107	1
134	135	5
73	76	3
91	92	3
133	134	3
96	108	2
132	132	2
116	117	4
117	125	2
54	56	2
35	47	4
1	3	2
109	113	5
34	34	6
48	58	1
26	27	7
117	123	2
25	25	3
88	100	5
100	110	5
141	142	5
93	94	2
18	18	6
122	122	7
99	101	5
22	30	2
12	29	4
143	145	2
78	84	1
71	71	7
96	103	1
24	32	1
102	102	7
95	95	7
85	86	3
31	32	2
13	25	1
118	119	2
59	67	1
64	65	5
50	51	6
73	75	3
8	9	1
48	53	8
49	51	3
20	21	2
6	14	3
115	116	1
103	111	1
58	76	2
8	8	6
59	59	2
25	35	3
129	129	8
105	111	3
62	69	2
12	15	1
103	104	1
6	17	1
65	73	1
14	14	4
132	137	3
123	123	1
38	39	1
112	118	5
99	99	1
107	117	4
107	118	3
27	27	4
79	79	6
123	128	2
124	124	8
36	43	3
83	83	4
107	107	3
130	131	3
70	90	3
134	137	3
29	29	2
30	63	1
115	115	2
63	63	4
2	8	1
59	69	3
128	129	2
97	108	1
130	135	3
50	50	3
16	16	3
37	37	6
51	51	9
33	34	8
72	105	5
48	51	1
110	111	1
103	116	2
133	135	3
139	142	2
47	49	1
111	118	2
21	33	4
0	29	3
20	20	10
48	49	1
43	43	1
85	85	3
118	118	1
87	89	2
90	90	1
114	116	4
62	142	2
77	81	1
41	41	6
5	8	3
12	24	1
115	126	2
93	106	3
17	33	2
2	2	3
94	94	4
32	32	2
129	130	5
16	25	1
131	131	1
62	72	1
52	54	3
144	146	3
1	14	2
4	8	2
138	145	1
55	60	3
92	92	4
142	144	3
139	139	2
136	139	1
100	100	5
89	91	1
22	27	1
0	0	1
108	109	1
95	96	1
29	74	3
19	20	3
68	68	6
114	126	2
92	98	5
22	24	2
31	31	3
64	78	1
108	120	1
83	84	8
87	99	4
62	77	3
13	18	3
5	106	1
92	94	2
104	128	5
114	115	3
126	144	2
112	112	8
21	23	1
13	26	3
137	140	2
35	38	1
30	32	1
84	84	2
5	26	1
3	4	2
1	2	2
128	131	2
68	79	1
71	78	3
70	73	2
131	137	1
99	130	2
18	37	2
119	119	1
40	43	1
61	61	1
121	139	1
10	10	2
40	42	2
17	17	5
143	146	1
20	29	3
135	136	4
101	102	2
111	111	5
9	9	4
136	138	4
73	73	1
58	67	1
15	15	2
23	23	5
11	25	1
142	142	2
78	80	3
105	135	2
39	41	2
53	54	4
144	144	3
66	66	5
6	12	1
109	110	2
124	131	1
21	27	2
128	130	1
111	131	1
108	135	1
39	39	2
134	138	1
108	140	1
115	130	1
126	126	3
48	48	4
81	85	1
90	93	1
13	29	2
47	48	3
42	43	1
109	124	1
74	74	2
1	29	1
20	25	2
36	40	1
130	141	2
48	141	1
96	96	1
28	28	5
22	32	1
84	85	1
74	80	2
15	20	1
122	137	2
104	113	1
21	21	1
134	136	2
76	77	1
118	124	1
128	140	1
116	133	1
12	12	1
138	141	1
72	114	1
48	60	1
80	87	1
91	118	2
140	146	1
27	28	1
1	10	1
121	123	2
70	72	3
35	36	1
82	97	1
31	40	1
75	82	2
71	75	2
78	78	1
103	103	1
35	35	1
122	126	2
69	75	1
117	128	2
111	119	2
129	141	1
86	87	1
20	24	1
35	54	1
14	16	2
61	62	2
59	60	1
106	124	1
140	141	2
113	132	1
96	107	1
72	72	1
30	51	1
3	5	2
13	22	2
34	36	1
35	37	1
56	57	1
97	97	2
89	100	1
23	36	1
126	142	2
136	140	1
95	103	1
138	139	1
122	124	1
52	141	1
82	83	2
89	90	1
107	120	2
121	125	1
107	112	1
33	42	1
77	91	2
116	123	1
81	92	1
52	61	1
78	79	1
68	76	1
65	74	1
79	85	1
75	75	1
94	96	1
0	15	1
138	138	1
66	77	1
5	11	1
88	89	1
90	99	1
