36	36	22
43	44	2
59	59	20
59	60	5
37	37	13
53	53	8
108	108	14
100	100	9
87	87	21
72	95	3
35	35	8
21	21	5
46	48	6
98	107	8
27	27	7
49	49	11
77	82	2
22	23	3
101	102	2
99	99	15
24	36	5
83	83	5
40	40	12
110	111	5
106	106	12
30	49	6
57	58	3
47	47	9
111	111	6
80	80	8
61	82	3
56	88	2
71	72	9
20	20	5
51	51	16
34	34	13
24	24	14
58	59	6
47	48	7
60	60	6
29	48	1
98	98	8
49	60	1
109	109	9
97	100	3
50	51	6
79	80	2
79	79	14
91	91	10
46	46	14
104	105	4
102	103	6
79	85	2
73	74	12
42	42	8
33	44	2
55	55	9
112	112	4
26	26	5
25	25	9
103	104	9
23	42	2
90	91	4
43	43	8
38	64	3
77	79	4
28	29	4
31	31	15
96	96	10
104	107	2
101	113	3
29	30	3
78	78	17
95	96	1
81	81	12
82	83	4
31	46	3
97	97	9
73	73	4
105	105	11
100	101	2
48	48	13
32	32	11
110	110	9
36	37	15
89	89	3
39	42	4
50	50	3
92	92	4
103	103	18
102	112	2
102	102	7
84	84	5
81	82	8
40	63	3
38	45	7
19	23	2
85	85	3
71	71	6
27	28	3
30	30	6
88	88	2
37	39	4
19	20	2
114	114	7
75	75	9
56	57	2
49	51	1
22	22	6
60	64	3
29	29	7
52	53	4
66	66	8
38	38	7
46	75	3
113	113	8
23	23	3
86	86	9
37	38	2
67	75	4
58	58	11
60	63	8
60	74	6
68	88	2
28	28	2
101	112	1
103	107	4
73	96	5
112	113	1
62	80	2
85	105	3
41	43	2
110	112	1
61	62	11
53	54	10
36	86	2
74	75	2
66	67	3
39	39	3
67	67	4
29	31	3
32	34	1
68	69	3
74	74	7
72	72	5
95	95	6
56	56	6
100	106	4
44	45	1
77	77	4
69	69	19
55	56	6
80	85	2
54	54	6
33	33	5
26	113	4
109	110	7
37	56	2
70	70	6
64	65	3
105	112	1
22	43	2
48	49	2
57	57	4
100	111	2
32	52	4
80	82	2
85	86	9
67	88	2
105	106	2
56	58	1
32	41	3
65	84	4
62	62	2
21	22	4
64	64	7
70	88	3
35	80	1
54	55	6
70	71	4
107	107	8
45	45	8
42	44	2
64	67	2
94	96	1
19	19	2
74	80	4
61	61	1
108	109	3
104	104	4
51	52	2
73	84	5
106	107	3
33	34	1
25	113	3
84	85	3
101	101	1
20	21	1
70	72	2
69	70	3
78	109	1
27	53	1
76	78	2
107	108	2
26	27	1
49	50	5
52	52	2
24	42	1
91	113	4
87	88	1
97	98	1
38	39	1
63	63	4
94	94	2
76	83	1
93	93	5
89	92	1
90	90	5
32	44	2
31	32	1
68	68	9
19	21	4
40	41	2
23	28	1
34	35	3
96	99	1
65	65	2
53	69	3
88	91	3
78	97	2
39	40	2
65	66	5
79	81	1
72	73	1
102	105	1
30	31	2
32	45	3
21	87	1
82	82	1
90	112	1
92	93	2
93	105	1
54	71	2
73	90	1
52	90	1
45	47	2
29	49	1
62	63	1
92	105	1
73	83	1
76	81	1
36	84	1
74	77	1
39	64	1
46	49	2
76	108	1
38	63	1
30	45	1
44	44	1
106	109	2
33	41	1
79	103	1
54	56	1
