72	72	3
73	73	1
80	80	3
20	20	4
66	67	6
99	100	2
96	96	3
38	40	2
79	79	2
26	26	5
71	72	7
114	114	4
45	45	7
60	60	5
34	36	3
99	99	5
53	53	6
36	36	11
73	74	1
94	94	2
67	67	2
102	103	7
68	68	4
54	54	7
70	72	2
111	112	2
85	85	5
21	21	5
40	40	5
65	65	6
44	44	9
80	81	1
107	107	7
86	108	1
26	32	3
86	86	2
39	39	9
74	74	2
56	56	7
66	66	3
30	31	5
44	46	3
69	85	3
28	28	6
89	90	3
36	37	1
49	51	3
108	108	7
82	82	1
96	97	1
25	25	5
37	41	1
59	59	6
36	61	4
34	75	1
64	64	6
109	109	3
102	107	4
48	89	1
40	42	1
79	80	2
100	100	6
97	97	2
58	58	8
113	113	7
55	87	4
46	46	4
77	78	3
47	47	1
53	56	2
55	55	2
93	93	4
54	87	4
110	110	6
26	27	5
109	110	3
32	98	2
23	23	3
62	62	3
101	101	2
106	106	2
78	78	2
32	34	2
80	85	4
54	56	2
43	98	2
101	102	3
49	91	4
22	22	3
93	95	1
53	54	1
48	48	2
31	31	2
45	51	5
69	79	3
42	98	3
64	68	1
36	41	2
44	98	2
43	44	3
83	83	9
50	51	5
38	38	2
87	87	3
39	95	5
30	30	4
50	50	6
84	84	3
92	93	1
24	24	3
52	58	2
69	69	3
98	98	5
61	62	10
100	101	2
69	80	2
50	96	1
49	59	1
49	49	4
105	108	2
95	95	3
33	71	2
46	48	1
57	57	1
69	70	2
113	114	3
103	104	1
105	109	5
93	94	2
56	58	2
111	111	4
60	61	3
81	81	3
77	77	2
48	53	3
63	63	1
81	86	2
35	35	7
71	73	2
19	19	2
69	71	2
24	25	4
91	91	1
32	32	1
37	37	1
52	98	2
48	54	2
54	55	1
33	73	1
35	41	1
81	85	2
20	40	1
71	71	1
61	61	5
75	75	1
94	95	1
27	28	1
89	89	1
103	103	2
64	65	1
58	59	1
67	68	2
55	88	2
70	70	1
51	51	2
30	42	1
49	50	4
47	48	4
70	75	1
40	94	1
55	56	2
52	60	1
76	76	1
90	91	1
88	88	1
39	40	2
45	46	1
43	43	1
80	86	1
102	102	1
80	108	1
102	106	1
30	44	1
59	91	1
33	33	1
23	24	1
55	89	1
38	39	1
53	99	1
52	52	1
