76	76	7
60	60	7
157	157	8
22	22	8
16	16	2
52	52	1
106	106	8
159	159	8
72	72	2
162	162	2
28	29	2
30	30	4
19	40	5
61	65	1
126	130	2
62	62	5
170	174	3
112	112	1
140	140	7
79	79	7
99	107	1
68	68	4
56	56	3
4	4	9
5	9	4
81	83	1
127	144	1
95	95	5
133	133	3
120	121	4
136	173	2
141	148	1
155	162	2
143	143	2
73	73	1
2	2	1
142	142	4
8	9	1
13	18	1
94	96	1
90	93	1
127	149	4
174	174	2
24	27	1
91	91	6
103	103	1
41	44	1
20	20	2
92	165	2
114	116	4
127	127	3
15	15	6
150	156	1
100	101	4
12	13	1
11	11	1
94	94	5
107	108	7
122	122	3
40	41	2
31	31	3
22	24	3
53	54	3
144	154	3
163	163	7
67	67	1
57	59	1
24	25	1
154	154	2
25	28	1
168	169	1
108	108	5
74	74	2
98	98	3
176	176	2
143	144	2
131	141	3
91	112	2
2	4	1
160	160	3
18	18	4
50	51	3
151	153	1
153	153	4
27	27	4
105	105	1
27	35	2
127	134	2
131	138	1
72	112	2
144	144	2
155	166	1
89	89	1
138	138	1
87	87	3
166	166	3
6	7	3
77	93	1
6	6	5
7	7	2
150	150	5
147	147	3
130	130	3
179	179	3
164	164	2
175	176	2
5	5	3
173	173	2
8	8	4
73	74	2
82	84	1
114	117	2
109	113	1
155	155	3
148	148	3
41	41	1
80	80	3
101	109	2
12	15	7
136	174	3
32	33	2
119	119	2
0	0	1
64	64	2
35	35	4
12	12	1
104	104	2
10	10	1
170	170	4
151	160	2
99	99	2
160	161	2
151	151	1
127	163	1
114	114	1
14	15	1
18	21	1
15	52	2
81	81	1
96	112	1
77	102	1
167	167	3
3	3	1
169	169	1
23	24	3
117	117	2
145	148	1
42	87	2
136	136	3
23	23	1
161	161	1
92	92	3
38	83	1
125	126	1
161	162	4
24	24	3
72	73	1
115	116	1
67	68	4
57	57	1
25	25	1
17	86	3
85	111	1
165	166	1
141	142	1
82	82	1
17	18	2
90	92	2
163	164	1
51	51	3
129	130	1
98	99	2
125	125	1
119	121	1
176	179	1
84	84	1
86	97	1
86	86	3
29	29	2
59	59	1
85	90	1
134	136	2
114	166	2
44	44	1
11	12	1
5	40	1
133	169	1
75	75	1
33	33	2
96	98	1
133	171	2
65	67	1
19	19	2
83	83	1
36	36	2
31	32	1
156	158	1
96	111	1
128	145	1
58	63	1
7	43	1
109	110	2
77	77	1
61	61	1
78	78	3
76	77	1
158	172	1
106	107	1
14	14	1
