32	126	3
23	94	3
144	144	4
127	128	1
115	144	2
21	127	4
8	21	2
141	141	4
136	136	4
70	70	3
110	110	2
143	143	2
118	118	4
119	145	2
25	25	1
24	26	1
31	31	5
42	106	4
17	17	1
116	116	5
37	37	5
66	66	4
3	3	1
108	108	4
10	10	2
29	29	4
69	69	5
96	96	2
70	135	2
123	133	3
39	39	5
76	80	3
63	63	5
85	85	3
51	55	1
133	152	1
22	22	3
26	27	2
71	71	6
149	149	5
16	17	3
42	42	1
151	151	2
47	50	3
26	72	4
87	145	2
75	79	1
152	152	2
47	53	1
65	65	4
119	119	2
100	100	5
81	81	2
103	103	8
16	16	3
24	25	1
76	79	2
12	16	3
91	127	1
117	117	4
12	12	6
104	104	1
84	84	2
130	130	4
32	122	6
78	79	1
57	57	2
64	83	2
65	66	3
127	127	3
7	7	4
58	73	6
35	36	3
11	12	1
117	147	1
53	53	3
8	11	6
126	126	1
87	88	3
50	54	1
28	28	3
42	43	2
123	124	1
138	139	2
76	82	2
105	105	6
38	39	5
13	13	3
124	124	5
113	113	2
42	102	2
122	125	2
72	72	1
28	66	2
123	137	4
43	46	1
32	32	4
76	76	3
146	148	2
45	45	1
122	123	2
89	90	5
51	51	3
102	102	6
64	64	4
86	117	1
7	14	1
57	82	2
137	138	3
123	147	1
14	14	2
73	78	1
19	27	1
136	147	1
30	131	3
86	86	3
85	117	1
34	34	6
18	18	2
63	65	1
6	6	6
131	132	1
33	33	4
117	119	1
54	56	1
47	47	1
67	67	1
9	9	2
132	132	3
138	138	1
112	112	2
80	80	1
98	98	4
117	118	2
83	84	2
47	55	3
66	99	1
18	126	1
46	47	2
112	148	1
122	122	2
62	75	1
3	5	1
115	115	1
26	26	1
68	68	1
19	97	1
32	151	1
107	107	1
97	97	1
70	85	1
120	120	1
17	21	1
123	123	1
19	19	1
101	101	1
41	43	1
107	108	1
147	147	2
22	54	1
15	15	2
121	122	1
30	96	1
24	115	1
106	106	1
43	104	1
43	43	1
113	139	1
139	139	1
38	38	1
76	77	3
46	46	1
21	21	1
116	145	1
71	130	1
111	134	1
62	62	1
79	81	1
145	145	1
40	40	1
44	44	1
103	104	1
30	66	1
141	142	1
114	147	2
95	95	1
41	41	1
86	87	1
75	81	1
36	36	1
111	111	1
