50	50	3
36	36	9
65	66	4
13	13	10
111	111	5
86	86	12
8	8	12
121	121	3
27	27	7
54	58	3
139	139	5
110	110	9
47	47	3
117	118	3
143	143	2
56	56	8
34	34	2
110	163	2
150	150	5
63	63	7
57	73	2
113	121	5
97	99	6
81	81	4
127	155	3
41	41	2
54	54	11
128	128	12
41	42	4
12	13	2
9	55	2
146	146	8
8	9	2
120	120	3
147	148	3
74	74	2
79	79	6
40	40	14
82	83	4
9	19	11
3	44	7
115	130	5
62	70	2
118	118	7
53	53	11
96	96	6
120	146	2
109	121	3
72	80	3
135	135	3
69	69	5
136	136	11
47	49	1
66	66	4
102	102	10
11	11	10
70	80	3
83	83	9
4	48	1
24	37	2
159	159	7
165	165	4
5	24	3
22	22	4
73	73	5
108	108	6
22	48	1
54	91	3
155	156	1
23	51	1
80	131	2
97	97	10
154	154	5
151	151	10
70	105	8
19	19	3
168	168	5
25	25	8
127	127	5
122	122	2
80	80	3
37	37	7
137	137	13
169	170	7
88	88	18
145	145	7
21	21	7
109	131	1
92	92	5
83	85	6
95	142	8
5	5	3
2	2	7
123	123	1
160	160	5
145	154	3
80	130	2
89	89	7
133	136	4
75	75	7
159	160	1
7	7	6
90	90	2
85	85	6
108	109	1
12	12	10
74	130	3
114	121	3
126	147	5
67	67	6
57	57	10
116	116	11
26	26	3
125	125	6
163	163	2
90	104	1
133	133	7
112	163	1
6	6	2
148	149	1
135	136	1
22	36	5
78	78	9
67	74	2
164	165	1
3	3	8
107	107	6
76	76	3
76	94	2
35	35	5
25	52	3
12	65	3
84	116	2
66	67	4
152	152	4
62	62	12
166	166	4
104	104	3
130	130	1
117	117	2
57	124	4
63	74	1
3	36	1
98	98	14
39	91	8
14	15	8
80	94	2
48	48	3
69	73	1
5	25	1
125	156	3
24	24	5
91	91	3
64	73	3
18	71	1
18	18	7
112	132	3
164	164	4
67	68	2
119	120	3
34	41	1
161	162	5
155	155	10
65	65	2
118	119	8
4	20	5
64	70	2
149	149	3
94	100	1
72	73	5
68	74	2
24	44	2
132	138	1
57	106	5
70	71	2
71	71	6
113	128	1
132	139	1
43	43	2
87	87	6
116	117	1
115	116	1
11	12	7
169	169	6
114	141	3
154	164	2
153	154	1
94	94	1
151	152	1
47	50	3
68	68	7
96	97	1
124	124	9
85	87	3
70	87	1
48	49	3
0	6	1
23	23	3
71	101	4
53	103	3
9	9	2
106	106	5
55	55	5
90	103	2
90	91	2
100	100	1
102	103	1
39	39	3
122	163	3
46	47	4
18	103	1
126	126	7
153	153	2
139	144	4
45	45	3
83	131	4
150	151	1
140	141	6
168	170	1
89	142	2
140	140	6
96	122	4
16	19	2
99	99	4
115	115	4
34	35	4
109	109	3
44	45	3
20	40	1
1	2	1
49	49	3
16	16	6
81	115	1
144	145	2
156	156	1
149	165	7
124	125	6
95	95	2
18	19	1
88	89	5
51	51	5
90	142	2
94	95	1
129	129	2
78	79	3
159	168	2
170	170	2
158	158	10
40	51	3
4	4	3
62	69	1
27	28	2
56	57	2
100	101	2
93	93	3
90	141	2
1	1	9
50	51	2
63	116	1
81	82	5
148	152	1
10	10	4
72	112	2
24	33	1
148	148	5
110	131	2
115	128	1
63	86	2
14	14	5
64	112	2
107	143	2
42	43	2
8	19	3
67	115	2
89	141	1
36	39	2
63	81	1
104	105	1
71	141	1
2	5	4
84	121	2
158	167	1
157	157	3
68	81	4
85	115	1
144	144	2
70	70	2
64	64	1
142	142	5
115	120	3
161	161	2
5	52	1
51	52	2
42	42	1
10	27	1
108	135	3
4	49	1
153	156	1
38	38	8
103	106	1
81	84	1
84	84	5
105	105	1
134	135	1
113	113	2
72	130	1
92	103	3
53	79	2
9	10	2
33	33	2
97	142	2
119	119	1
8	20	3
155	162	1
0	0	4
145	164	1
44	44	4
121	122	1
167	167	5
77	77	2
106	112	2
111	144	1
166	170	2
3	4	2
84	85	3
12	67	1
103	103	2
71	103	2
69	82	1
156	157	2
37	38	2
46	46	2
83	84	3
111	112	2
8	55	2
69	70	1
72	72	2
17	17	1
50	52	2
72	74	1
20	51	3
113	126	1
139	140	2
36	41	2
116	119	1
129	161	1
95	131	2
126	156	1
52	52	2
113	129	2
74	100	1
74	94	1
114	114	2
146	147	1
121	132	1
43	44	1
162	162	1
92	93	1
6	48	3
77	78	1
17	103	2
36	37	1
19	55	1
24	36	2
101	141	1
114	115	1
36	43	1
126	163	1
64	67	2
25	39	1
40	50	1
107	132	1
96	142	1
63	64	1
68	73	1
84	130	1
124	155	1
20	28	1
109	134	1
92	104	1
2	46	1
