41	42	7
70	70	1
125	127	8
120	129	4
33	33	4
8	8	21
22	23	5
52	52	12
133	133	2
79	80	2
131	133	7
105	106	2
113	114	2
87	89	1
13	85	1
17	18	3
123	123	9
17	19	3
73	73	5
66	113	4
89	89	8
135	135	1
34	106	3
69	104	2
129	129	9
45	45	1
77	77	6
33	126	2
83	83	4
21	22	4
104	105	3
41	41	5
141	141	3
30	30	2
85	85	1
139	140	2
140	140	11
140	143	2
120	120	7
12	36	1
18	19	5
141	142	2
3	3	5
125	126	3
115	157	1
57	57	4
12	35	2
68	68	3
39	42	2
34	34	3
31	31	11
8	48	3
147	147	3
40	42	2
25	25	7
65	65	5
40	40	5
88	88	5
6	6	6
18	18	2
93	94	4
150	150	4
28	28	4
35	35	1
29	35	1
7	7	1
124	126	2
94	95	3
12	12	1
152	152	1
62	62	1
132	132	1
54	54	2
134	134	4
141	146	2
151	152	2
118	119	2
16	18	2
17	17	2
155	156	4
29	121	3
142	143	1
75	96	4
23	23	8
154	154	6
71	121	2
157	157	2
151	151	5
151	156	1
108	108	1
64	64	1
75	75	8
14	14	5
42	42	7
51	51	1
126	126	6
9	27	3
112	113	3
106	106	3
48	48	3
127	127	6
86	86	3
139	139	6
107	107	2
137	137	4
130	130	3
29	29	3
155	155	3
50	50	1
7	8	3
39	39	4
87	90	2
100	100	1
48	49	3
82	82	3
148	148	2
1	1	6
94	94	1
142	142	1
104	104	4
110	111	5
46	97	1
14	36	3
146	147	3
78	78	3
22	22	2
4	4	2
16	16	3
2	3	1
27	27	4
3	64	1
102	146	1
31	53	2
97	103	1
36	38	3
35	127	1
122	122	4
95	95	3
97	97	2
145	146	2
19	20	6
38	76	4
138	138	7
101	101	1
75	98	1
144	144	4
20	20	1
121	121	3
78	79	1
8	9	1
70	71	4
81	82	2
38	39	1
13	43	3
12	15	1
112	119	2
5	5	3
139	143	2
99	99	7
97	109	1
114	157	1
36	37	1
90	90	2
16	17	2
25	26	1
92	92	2
67	114	1
90	91	2
29	123	1
114	115	4
4	65	1
2	2	2
141	147	1
56	56	2
70	142	1
81	81	1
9	9	2
20	89	1
15	15	4
14	18	1
23	24	2
95	96	1
18	21	1
68	69	2
128	129	1
79	79	1
84	84	4
12	24	1
4	5	1
110	110	4
36	36	1
81	83	1
32	32	2
140	144	1
111	111	1
31	131	1
30	31	2
87	87	1
137	138	1
116	116	2
112	112	2
1	2	1
34	127	1
125	125	1
126	127	1
117	117	1
45	47	1
9	88	1
7	50	1
55	55	3
26	26	2
91	107	1
130	131	1
103	103	1
156	156	2
69	117	1
69	142	1
21	21	1
53	131	1
91	91	1
23	44	1
131	131	1
132	133	1
