46	52	3
167	167	19
101	101	6
221	221	6
61	61	10
157	181	4
245	245	5
208	209	3
154	154	9
32	32	14
55	58	1
59	94	2
179	224	3
213	225	6
117	117	15
229	229	9
186	186	7
195	222	2
203	206	2
231	231	2
219	219	11
19	20	1
65	66	5
153	153	14
110	110	8
232	233	1
4	4	3
152	152	6
151	201	1
66	67	4
2	3	3
184	184	19
175	176	8
77	110	5
168	168	16
166	186	2
176	177	6
175	175	10
73	110	2
46	46	18
159	159	12
88	88	5
82	83	7
156	156	16
54	71	1
172	223	4
51	53	2
118	120	2
21	21	13
68	68	19
52	54	5
1	201	3
35	35	14
2	204	4
183	201	4
102	104	2
225	225	8
171	171	10
9	10	3
223	223	13
184	185	4
65	65	5
9	9	13
111	115	4
48	48	10
107	107	6
216	216	7
63	99	2
49	49	12
228	228	11
52	52	10
166	166	12
50	50	14
16	54	3
112	115	1
83	83	4
25	204	4
90	118	1
22	23	1
109	169	8
16	44	1
190	193	1
99	99	10
162	170	2
108	108	8
167	168	5
45	45	34
69	69	5
187	187	11
57	58	4
67	109	1
199	207	1
109	109	8
58	58	6
165	170	6
170	176	3
17	17	13
158	158	7
43	43	9
238	238	9
112	112	5
150	150	22
161	161	5
64	64	14
73	98	2
220	220	10
44	44	20
12	12	8
61	77	6
193	194	10
109	113	1
194	194	8
12	16	1
102	102	7
166	167	2
217	217	16
191	192	6
247	249	2
242	242	4
55	55	3
28	28	5
234	240	1
223	225	2
98	104	5
107	108	4
85	85	11
67	107	3
87	182	1
94	94	1
37	38	5
27	27	13
78	79	2
224	227	1
243	243	13
93	94	3
67	117	1
201	201	10
50	57	2
62	62	10
90	92	4
89	90	3
114	114	9
9	11	4
205	219	2
185	196	3
169	180	3
30	56	1
206	213	3
191	194	2
33	33	13
115	115	12
42	43	7
30	30	16
191	191	8
31	31	12
147	162	1
57	57	6
6	6	2
80	80	8
30	61	3
17	36	2
55	57	4
89	89	13
215	215	8
185	185	12
169	186	2
113	113	12
104	104	8
72	72	21
84	108	2
182	183	7
110	115	4
104	114	1
214	214	8
90	90	16
54	55	5
99	100	2
214	240	2
156	161	2
40	54	1
227	227	4
95	95	13
230	231	4
165	165	8
41	205	2
210	210	9
33	35	4
38	38	4
64	107	1
89	93	2
71	71	3
212	212	10
230	230	13
103	103	3
155	155	11
236	236	12
222	222	10
118	118	1
204	204	17
120	144	2
151	151	13
246	246	4
195	195	10
200	201	6
240	243	3
188	188	6
37	56	8
193	193	11
237	237	7
186	192	1
180	180	3
6	20	2
35	117	1
195	211	3
4	8	2
196	196	11
75	76	7
10	10	6
220	235	2
226	226	11
16	17	3
218	219	1
24	24	8
222	237	9
100	100	8
0	1	1
224	225	2
82	84	1
169	169	5
172	172	5
185	212	2
3	202	3
176	176	19
106	106	6
162	162	7
18	18	7
37	37	7
76	76	13
4	5	10
26	26	8
74	110	1
233	233	9
40	40	5
232	232	9
178	216	2
36	36	7
237	239	4
187	188	10
2	8	5
44	214	3
116	175	2
239	242	1
207	207	13
59	85	4
2	2	4
189	189	7
153	154	2
1	205	1
85	144	3
11	11	7
80	158	5
70	71	2
197	197	6
29	78	4
60	71	1
92	92	6
77	77	3
147	147	4
170	177	1
216	229	3
92	93	4
61	69	1
106	108	2
14	14	8
205	206	2
83	84	6
20	37	1
31	32	3
73	73	11
28	56	2
12	27	2
214	215	2
43	44	2
20	28	2
183	202	1
47	201	3
42	42	2
165	166	6
85	86	3
36	78	2
243	244	2
64	120	2
7	8	1
46	226	5
37	39	3
53	53	9
164	173	3
231	248	4
51	51	9
146	198	2
74	160	2
98	99	3
89	110	3
171	172	4
24	45	1
211	211	9
48	50	2
223	234	1
244	246	3
155	156	3
45	183	5
235	235	5
79	84	2
90	91	2
218	220	1
248	248	1
11	16	1
221	237	3
153	167	2
220	239	1
199	208	1
181	181	8
79	89	2
84	84	7
222	223	1
163	164	3
27	28	3
196	197	6
226	227	2
170	170	6
202	202	10
79	159	1
146	146	9
44	45	4
22	24	4
191	193	2
15	15	6
73	75	10
237	240	3
119	119	9
197	229	3
54	218	4
110	112	2
241	241	13
95	97	4
112	119	1
238	239	8
177	177	3
59	59	6
1	1	9
219	236	2
229	231	2
244	244	12
60	77	8
60	60	5
73	74	2
22	169	3
159	205	4
89	182	4
179	179	10
144	167	1
194	196	4
192	202	2
35	200	4
34	34	3
111	111	13
2	5	2
186	189	1
238	241	2
206	212	3
23	23	10
85	99	4
184	204	1
49	50	7
162	165	2
78	78	6
209	209	8
81	81	6
31	37	6
211	228	4
2	4	3
163	163	10
48	84	3
200	200	2
152	158	2
33	180	1
12	56	1
19	19	3
40	55	2
192	192	7
52	167	1
207	208	2
38	39	8
169	193	2
96	96	5
172	178	2
63	63	14
219	238	3
3	3	10
204	208	1
188	193	1
72	73	2
205	213	2
208	208	7
210	213	4
105	105	11
8	234	2
70	218	1
81	82	1
8	8	4
98	98	4
198	198	9
177	178	3
179	181	3
49	58	2
191	195	3
61	149	1
165	192	2
76	88	2
179	211	3
90	161	1
35	36	4
201	204	2
173	185	5
110	113	2
20	20	3
3	204	3
190	190	5
223	224	1
203	203	9
207	238	2
113	114	2
39	39	6
5	5	13
75	77	2
60	64	2
159	186	1
77	94	2
67	67	4
17	18	4
61	84	1
213	213	7
50	110	3
93	158	1
174	209	5
167	192	2
161	168	2
206	226	4
239	240	4
95	117	7
34	196	2
116	116	7
28	38	2
215	216	6
64	65	3
146	195	4
74	186	3
245	246	4
118	119	6
104	106	2
183	183	7
225	241	1
187	189	3
38	238	1
46	71	1
8	12	7
106	116	1
151	160	4
46	151	2
51	72	1
215	219	4
71	72	3
59	60	4
16	47	2
54	54	10
199	200	1
27	161	2
87	87	2
202	203	2
69	70	7
160	160	4
29	30	3
234	234	6
206	207	1
91	93	1
56	59	2
216	233	1
241	245	2
240	240	4
83	87	2
224	224	6
7	7	8
86	87	1
180	183	1
21	171	2
29	31	2
84	100	4
205	205	4
222	238	6
65	67	1
244	245	2
213	224	2
218	218	2
158	207	4
174	175	4
20	61	1
29	29	4
53	54	5
11	12	3
159	213	1
92	157	1
6	18	1
241	242	2
173	212	3
245	247	3
0	0	1
57	79	3
6	7	1
101	116	1
79	79	2
187	239	1
50	51	5
92	117	1
239	239	4
95	101	2
234	235	2
236	237	3
102	103	6
48	55	1
48	49	3
34	197	2
157	157	3
39	40	2
230	244	2
70	70	8
199	212	2
34	35	5
173	178	3
11	18	2
53	55	7
192	229	2
225	229	1
247	247	3
214	223	1
61	82	1
33	34	4
243	249	2
55	117	2
173	176	1
20	171	1
82	82	6
146	223	1
53	228	1
203	204	4
5	6	2
216	224	2
192	201	1
192	195	2
51	56	2
15	16	1
212	213	2
7	11	2
81	158	1
80	82	1
32	33	2
68	71	1
97	97	2
47	48	3
21	31	1
76	77	1
51	184	2
30	94	3
53	218	2
3	4	1
162	164	1
222	248	2
147	149	2
89	118	2
183	187	1
187	190	2
174	220	1
230	248	1
32	173	2
27	117	1
183	203	3
66	66	5
30	144	1
213	214	2
247	248	1
153	168	2
151	180	2
168	169	1
208	226	2
67	68	1
47	47	3
172	177	2
224	232	1
63	103	2
41	46	1
145	145	1
81	85	1
11	20	2
185	186	2
23	170	2
154	155	2
176	180	2
37	225	2
1	32	2
54	79	1
32	45	3
172	192	1
229	230	3
193	195	4
183	190	1
86	86	4
68	73	2
73	186	1
95	96	3
12	13	1
217	235	2
63	65	1
171	212	1
203	205	2
114	115	1
55	59	1
55	56	1
15	60	1
213	215	2
33	58	1
222	240	3
36	61	2
17	19	2
3	5	1
157	158	2
8	9	1
80	86	2
215	237	4
192	197	1
84	85	2
49	88	2
3	8	2
225	228	2
117	175	1
45	199	1
93	93	3
22	22	6
195	197	1
39	169	3
150	227	1
99	102	2
37	158	4
100	116	2
165	171	1
178	178	2
152	156	1
34	61	2
63	64	3
178	179	4
28	31	3
74	74	4
156	226	2
86	110	1
102	116	1
91	91	1
35	59	1
220	223	1
25	63	3
152	153	1
188	238	1
157	179	2
98	101	1
174	177	1
7	14	5
31	34	3
19	37	1
212	227	2
30	35	1
175	177	2
212	226	1
174	174	5
8	17	2
110	111	1
164	172	1
85	109	1
38	40	2
240	245	1
62	227	1
30	37	1
82	87	3
222	229	2
58	60	1
163	171	1
158	160	1
69	71	5
51	52	2
76	78	1
48	157	2
216	246	2
68	96	2
64	80	4
62	85	1
8	44	2
212	228	1
62	145	4
119	120	1
121	121	1
46	47	1
201	202	1
56	56	6
170	175	2
2	7	2
87	88	1
66	74	1
0	32	2
100	101	2
93	168	2
41	42	2
26	27	4
68	70	1
198	199	2
18	34	1
91	92	1
79	85	1
25	26	2
217	218	1
160	181	2
45	211	1
146	147	1
30	31	1
11	80	1
147	195	1
224	235	1
219	233	1
21	217	1
30	34	1
28	55	1
184	201	1
78	97	1
144	168	2
121	158	1
149	149	1
168	182	1
75	75	1
86	115	1
214	232	1
97	202	2
59	66	1
97	98	1
71	79	3
147	167	1
68	72	1
94	168	2
199	199	1
83	120	1
89	180	1
6	8	2
103	107	2
173	173	5
149	182	1
198	227	1
235	237	1
192	193	2
17	31	1
93	113	1
216	231	1
66	104	1
224	228	2
32	46	1
58	176	1
223	247	1
19	26	1
209	210	1
214	241	4
62	63	1
113	183	1
77	88	1
237	241	1
56	58	1
22	177	1
49	87	2
184	198	1
191	197	2
79	81	1
60	117	1
179	180	2
16	234	1
25	25	2
20	163	1
96	99	3
156	157	1
38	54	1
40	41	1
20	22	1
16	230	1
62	84	1
78	111	1
230	233	1
18	19	1
86	144	1
120	120	1
29	37	1
116	217	1
21	172	1
5	11	1
40	44	1
206	206	1
79	92	1
220	236	1
86	114	1
77	96	1
214	217	1
92	158	1
70	168	1
208	211	1
169	191	1
77	79	1
