21	21	3
157	157	1
85	85	9
10	10	3
70	70	5
128	130	3
54	55	3
87	91	2
153	153	2
10	18	2
10	11	1
111	112	6
3	3	8
151	151	8
1	1	3
168	168	1
79	126	3
86	87	2
121	121	3
98	98	6
38	38	6
144	147	2
39	55	6
131	136	3
166	170	2
136	137	2
143	143	6
6	6	6
145	145	3
33	33	3
155	155	7
51	78	1
14	15	2
118	118	2
52	98	2
78	78	2
116	123	2
120	120	7
131	141	1
74	133	1
37	37	2
112	112	4
23	23	8
79	79	4
126	126	4
25	25	4
70	120	2
47	75	2
64	64	3
68	68	2
78	79	7
149	150	1
131	131	4
167	167	4
113	114	4
11	11	2
73	73	5
94	95	7
23	40	2
67	130	3
72	72	5
156	157	2
67	122	1
161	161	4
84	130	1
70	91	1
96	96	4
45	48	2
147	147	8
79	85	2
109	109	4
20	20	8
106	106	2
68	143	1
113	117	1
38	39	4
125	126	3
56	56	7
58	128	2
163	163	4
12	12	5
104	120	2
76	82	3
67	67	4
125	125	3
117	117	3
89	89	4
2	2	2
24	24	11
7	19	2
88	89	4
48	49	4
49	50	5
50	50	4
80	80	2
47	98	3
129	137	2
77	77	4
105	105	3
140	140	8
124	124	3
63	122	1
71	72	2
41	41	2
88	88	5
80	83	3
88	123	1
43	46	5
74	110	3
116	116	2
69	69	2
108	108	9
110	110	1
159	160	1
15	15	5
147	148	3
36	36	8
46	46	3
162	162	1
132	148	1
113	113	7
102	102	2
144	145	4
4	4	1
161	162	1
70	140	2
137	141	1
73	116	2
92	93	1
72	127	2
150	151	2
112	170	1
16	16	5
165	166	2
96	98	2
129	129	5
161	169	1
49	49	3
90	161	2
69	130	2
169	170	4
47	53	1
83	84	3
133	133	2
167	168	1
27	28	3
65	65	7
93	94	6
62	62	4
81	81	4
116	126	1
68	144	1
97	99	2
61	61	1
99	99	1
48	48	2
40	40	4
44	51	1
77	82	4
1	24	1
89	90	3
128	128	1
137	137	2
85	132	1
126	147	1
94	94	4
123	125	2
22	22	4
35	35	1
43	43	2
47	51	2
20	22	2
14	14	1
39	40	2
70	71	1
166	169	1
81	82	2
17	20	2
49	51	1
90	118	1
93	93	2
92	143	3
80	84	1
74	74	3
90	90	2
151	153	1
8	8	3
78	98	2
112	117	1
91	161	2
2	26	3
141	143	3
90	146	6
7	9	1
76	99	1
97	98	1
76	89	1
11	12	2
9	25	1
90	119	4
64	72	1
76	76	1
84	86	1
151	156	2
87	87	2
47	119	1
138	142	1
133	137	3
9	39	2
44	45	1
87	143	1
3	4	1
53	56	1
5	5	1
83	83	1
77	124	2
139	142	1
15	41	2
170	170	1
150	150	1
54	54	1
40	46	2
105	106	1
43	44	2
119	132	2
160	160	1
22	23	1
63	63	1
51	112	3
82	82	3
146	146	1
115	161	1
26	26	2
38	43	2
81	85	1
47	47	2
107	112	1
86	86	1
104	121	1
135	135	2
9	9	1
21	22	2
51	110	2
166	166	2
86	146	2
100	103	1
84	85	2
75	116	2
99	124	1
6	23	1
24	157	2
99	127	2
117	118	2
96	127	1
18	18	4
27	27	1
152	152	1
154	154	2
9	11	1
89	105	2
69	122	2
71	71	1
112	116	1
133	138	1
18	54	1
139	139	3
64	70	1
127	127	1
91	143	1
133	136	4
55	56	1
164	165	1
144	162	1
101	122	1
97	128	1
130	130	2
8	9	4
100	104	1
103	103	2
140	141	2
72	79	1
101	118	1
94	137	1
65	104	2
17	41	1
53	53	2
94	101	1
42	42	1
63	128	1
64	124	1
15	16	2
87	165	1
0	1	1
101	101	1
17	17	1
162	166	1
10	12	1
80	81	2
158	158	2
102	103	1
91	164	1
47	50	1
21	163	1
52	53	1
63	64	1
104	105	1
42	56	1
138	138	1
68	120	1
116	127	1
145	163	1
36	37	2
93	147	1
72	146	4
126	127	2
98	109	1
111	111	2
149	149	1
55	55	1
57	72	1
24	25	1
159	159	1
142	142	1
163	165	1
44	47	1
121	122	1
34	34	1
62	64	1
3	5	1
132	132	2
37	52	1
104	104	1
91	91	1
