21	59	2
106	106	12
84	84	6
98	126	3
102	102	11
11	11	2
111	111	4
79	79	11
49	49	9
47	47	13
12	12	11
80	80	16
2	32	1
40	40	8
59	92	3
64	64	8
117	117	6
65	68	4
8	30	4
92	92	12
107	107	7
119	119	14
62	66	5
130	132	13
101	101	9
0	46	5
12	23	1
59	99	8
126	126	3
66	66	10
99	99	9
65	66	2
110	110	5
87	87	11
63	63	10
7	7	8
85	86	4
23	32	3
72	72	12
36	37	3
39	39	1
44	44	11
90	90	3
66	134	4
83	83	4
27	31	3
110	113	4
91	91	8
48	49	1
109	109	11
132	132	16
82	83	5
22	31	4
48	48	4
70	70	7
97	98	2
27	27	6
62	119	1
22	22	6
128	128	9
62	62	4
4	42	7
67	67	4
77	77	5
7	118	2
24	24	13
125	128	6
113	113	11
110	129	2
103	108	3
60	60	6
114	115	2
65	65	10
91	94	2
134	134	13
64	72	10
8	8	8
17	79	4
75	75	4
20	21	3
94	96	6
45	46	3
3	3	14
105	105	10
5	5	7
57	57	5
94	95	6
18	18	7
33	33	5
43	43	3
6	13	6
17	18	5
9	9	2
124	124	13
58	59	9
109	131	2
120	123	2
42	59	7
13	13	5
91	119	2
24	58	3
85	85	11
121	121	7
4	11	3
0	0	2
100	100	4
28	29	4
72	92	3
4	4	12
0	45	7
38	88	1
122	122	5
15	15	3
120	122	1
82	110	2
47	48	4
82	82	7
34	34	6
127	131	4
23	27	3
68	69	2
16	16	6
74	74	7
20	20	6
15	79	2
114	114	8
71	91	3
36	115	7
36	36	8
74	116	1
14	14	5
133	133	5
15	71	2
123	123	9
41	58	1
81	81	2
84	92	2
15	105	2
20	65	7
73	73	12
69	69	2
90	92	1
120	121	3
71	75	1
46	46	7
70	71	1
13	81	3
25	59	2
105	106	3
80	110	2
30	30	4
104	104	1
68	68	4
10	10	8
86	94	6
120	120	4
125	125	3
96	96	3
21	21	14
28	28	4
63	134	2
57	60	1
43	46	3
122	133	2
26	41	2
55	55	2
97	110	2
21	31	4
129	129	7
38	38	2
10	70	3
6	31	1
2	119	1
15	76	4
12	42	1
87	88	1
89	89	5
130	130	15
118	118	10
39	40	5
119	121	1
76	87	1
114	116	5
102	104	2
20	60	1
6	6	1
37	76	2
110	111	4
41	41	3
84	125	4
76	77	2
105	107	7
115	115	6
106	107	1
24	28	1
87	89	2
83	84	1
35	35	7
103	103	2
95	129	1
127	127	10
10	11	2
38	86	2
23	26	4
10	84	2
1	1	3
86	86	7
85	124	4
83	134	3
129	130	1
96	99	2
60	80	2
35	36	2
129	133	2
45	45	2
37	37	3
131	132	6
64	65	1
46	47	3
116	116	8
2	2	2
22	30	2
121	133	2
61	61	6
12	18	1
39	86	2
5	117	1
97	97	5
32	32	7
2	4	2
10	65	2
74	118	6
122	123	1
93	94	2
81	83	2
23	23	1
77	78	2
96	97	3
42	42	2
6	7	1
76	76	3
76	84	4
127	129	1
30	31	1
9	70	5
57	58	1
8	12	1
72	103	1
7	57	1
72	73	3
4	50	2
11	16	1
31	31	2
55	56	3
91	118	2
11	61	1
35	40	1
88	89	1
78	78	6
64	66	2
22	63	1
88	102	1
26	63	2
88	97	1
57	130	1
73	74	1
110	115	2
108	109	3
108	108	1
121	125	1
94	94	1
112	113	3
46	118	2
68	72	1
37	40	1
84	85	1
65	74	1
22	65	1
6	23	1
54	104	1
23	25	1
25	81	1
90	91	2
14	78	2
22	23	1
18	81	1
25	25	2
58	130	1
2	35	2
28	42	2
12	61	2
21	28	1
93	93	2
98	98	2
44	107	1
65	83	1
14	15	1
86	120	2
96	133	1
63	65	1
71	93	2
25	30	1
60	99	2
95	95	1
29	37	1
42	45	2
2	42	1
78	80	2
27	41	1
106	109	1
13	14	3
15	28	1
76	81	1
124	133	2
50	69	2
55	131	1
9	11	3
131	131	1
4	33	1
50	75	1
37	83	1
2	134	1
114	118	1
86	87	1
21	22	1
126	133	1
104	108	1
93	97	1
