27	27	15
137	139	7
120	120	15
118	118	16
103	142	5
30	30	8
31	39	1
14	14	10
106	106	9
21	25	6
71	74	3
26	69	1
92	92	7
119	119	8
90	91	1
87	88	6
125	125	17
89	89	14
136	136	13
59	59	11
74	74	8
130	130	7
144	144	4
60	60	10
97	137	3
135	135	13
19	19	8
107	107	9
49	49	8
90	90	6
113	113	15
29	29	15
22	23	7
17	17	25
42	49	1
139	139	14
54	55	6
23	23	4
36	36	5
99	128	1
97	141	3
89	141	1
5	5	3
134	134	16
38	38	2
13	18	3
57	67	3
143	143	6
99	100	8
9	9	9
21	33	3
79	79	8
97	98	7
121	121	12
80	80	13
106	137	6
28	28	28
0	2	1
31	36	2
65	72	5
11	20	2
11	11	13
71	72	1
6	6	7
114	114	12
39	39	7
72	73	7
138	140	2
32	32	7
63	63	5
68	70	1
112	112	6
50	58	4
110	118	1
115	117	1
9	31	6
145	145	4
91	91	8
105	105	13
120	136	4
22	22	15
110	110	15
68	68	7
101	102	5
10	10	7
131	131	2
127	127	7
141	141	6
26	30	2
19	43	2
82	138	3
78	84	4
128	128	7
103	104	2
74	89	4
106	110	3
70	71	4
69	71	1
87	87	5
85	85	16
1	2	2
99	120	5
114	115	7
137	140	5
16	24	2
123	124	1
63	64	1
84	84	9
25	25	3
93	94	6
55	56	3
86	86	4
88	88	6
69	69	12
39	40	2
55	66	2
57	57	3
71	73	2
66	72	3
70	81	8
131	134	7
107	108	2
20	20	4
47	67	3
39	114	3
103	103	11
70	70	10
36	37	9
58	58	5
70	74	2
41	42	2
115	115	11
128	135	1
34	34	12
95	95	5
123	132	4
123	133	1
123	123	8
75	75	8
16	32	1
109	110	5
41	92	5
42	42	8
62	63	4
61	61	6
26	26	14
50	50	7
120	140	1
15	15	7
23	41	3
27	72	2
62	71	1
31	32	2
29	31	7
1	34	4
79	80	4
57	58	1
99	99	5
111	111	1
48	49	1
105	117	5
140	140	6
109	109	3
120	134	4
52	113	3
35	36	6
129	130	3
54	54	2
132	132	7
2	3	1
141	144	4
80	97	1
21	21	2
53	53	11
55	58	1
122	131	1
18	22	3
59	60	2
14	16	1
34	47	4
53	54	3
112	113	2
31	38	3
65	66	1
61	91	2
48	48	3
17	18	4
141	145	3
15	77	5
78	78	2
91	92	3
64	65	6
66	66	3
81	81	7
56	56	9
67	67	10
9	35	2
73	73	4
52	55	1
75	76	3
122	123	5
32	33	6
126	126	7
35	35	6
123	131	2
116	117	5
2	15	4
15	79	1
125	126	3
130	134	3
23	25	7
14	15	1
38	40	5
89	90	1
64	64	8
51	57	4
55	55	4
14	23	2
23	24	2
83	83	4
82	90	1
26	33	1
53	112	2
124	124	13
50	51	5
27	33	3
104	104	9
0	0	6
34	36	3
2	2	3
76	77	2
40	40	4
104	108	2
96	96	7
65	65	6
88	89	5
135	140	3
120	121	3
37	38	4
116	116	7
121	137	3
80	81	2
24	24	7
128	130	1
23	26	2
56	57	3
24	25	1
4	5	2
120	130	1
138	138	7
33	36	3
18	76	1
74	75	2
52	60	2
22	30	1
118	119	1
98	98	11
8	8	4
102	102	6
97	97	2
3	12	1
101	101	7
47	47	2
40	41	2
76	79	5
135	136	2
142	142	9
57	71	2
69	70	2
132	135	2
37	37	1
16	119	4
1	1	3
4	4	7
124	126	1
29	38	1
38	39	3
18	19	3
62	62	3
69	73	1
126	127	3
144	145	1
105	109	1
105	106	1
23	40	1
79	138	3
94	99	1
130	133	2
108	108	2
55	67	1
82	82	4
33	33	2
9	30	2
37	40	1
52	52	2
121	122	1
133	133	4
132	142	1
30	38	1
137	138	1
129	129	1
72	72	1
100	135	2
77	77	3
22	27	1
18	18	5
1	8	3
104	105	5
102	103	3
33	34	1
124	125	3
63	66	2
104	109	2
9	34	2
96	141	3
75	77	2
83	90	1
94	95	2
61	62	1
139	140	1
27	28	3
46	46	2
94	94	1
83	118	2
59	66	1
99	102	3
100	100	4
121	138	1
26	32	1
73	107	1
22	38	1
122	122	2
145	146	1
8	11	1
28	29	3
98	101	1
62	87	2
143	146	1
102	110	1
58	59	1
71	71	2
82	118	2
106	107	1
61	64	1
53	56	2
1	3	2
117	117	2
0	13	2
86	87	2
41	91	1
4	6	2
124	141	1
116	118	1
126	131	1
103	109	1
87	90	1
138	142	1
132	133	1
34	43	1
10	11	1
122	137	1
98	99	1
76	76	1
52	53	1
105	121	1
3	4	1
25	26	1
19	85	2
69	93	2
92	93	1
99	136	1
39	41	1
15	16	1
87	89	1
51	52	1
59	100	1
92	94	1
23	28	1
109	111	2
65	90	1
66	68	1
110	111	1
3	3	1
21	23	1
34	35	1
105	107	1
31	31	1
95	96	2
48	67	1
64	81	1
48	93	1
