49	49	4
170	170	4
168	168	3
20	32	1
47	51	5
211	227	3
214	215	3
121	121	5
69	69	3
37	41	1
81	81	1
76	77	5
74	74	5
28	29	2
146	146	4
112	112	2
190	190	4
19	19	6
35	35	4
154	154	7
166	166	2
124	129	7
84	84	3
79	79	3
159	218	2
70	71	1
202	202	5
40	40	6
199	199	5
211	211	7
77	78	3
7	7	1
52	163	2
200	225	1
197	198	4
125	139	2
3	3	3
221	221	2
34	34	1
74	96	3
159	159	7
127	127	5
108	109	4
162	202	4
206	206	1
168	199	8
177	177	5
123	167	4
63	91	3
59	104	5
3	19	2
6	6	4
50	50	4
227	227	5
56	56	4
26	28	3
207	207	2
169	181	2
191	191	2
238	238	3
66	66	4
140	150	1
131	135	2
196	196	6
129	129	4
42	55	1
107	107	4
182	183	4
161	161	5
59	85	4
59	59	4
78	79	5
228	234	3
32	32	2
24	24	1
67	67	2
193	193	10
9	28	2
31	31	3
106	106	3
101	141	2
6	43	4
150	150	5
111	111	1
37	37	3
7	57	5
39	39	4
64	64	5
100	100	3
97	99	1
185	185	7
162	223	2
45	84	1
165	165	6
59	68	3
205	205	6
222	236	1
160	160	6
134	176	2
121	164	1
151	151	6
198	198	5
98	98	5
45	45	2
78	82	2
51	52	2
80	84	3
111	141	1
73	73	9
237	237	3
163	163	1
8	9	4
141	143	1
124	127	2
26	26	7
21	21	4
19	206	4
129	140	2
231	231	5
179	179	4
177	178	2
124	140	3
46	46	3
57	59	3
163	165	1
70	70	2
28	47	3
167	198	1
211	226	2
134	135	1
118	140	1
232	233	4
83	83	1
140	140	5
76	76	3
192	192	6
0	0	3
50	205	3
195	195	4
215	215	5
57	64	2
15	54	3
187	189	3
22	22	5
189	227	1
212	212	1
102	102	4
7	59	5
203	203	2
197	197	5
164	164	13
25	31	1
144	144	2
145	147	1
54	54	3
175	179	1
102	106	4
114	114	3
236	238	1
10	10	2
100	135	1
127	145	2
117	117	3
201	202	2
6	50	2
156	204	1
217	234	2
208	239	5
72	131	2
23	30	1
118	119	2
8	8	1
5	5	1
167	202	1
120	121	1
165	166	2
127	130	1
14	14	1
184	184	4
25	25	5
148	182	2
143	151	2
128	147	1
57	57	2
229	233	1
42	42	1
192	196	4
174	174	5
211	233	2
36	36	3
20	20	2
88	88	3
60	63	2
27	28	1
29	75	1
174	178	3
80	82	2
183	198	1
138	141	4
45	46	4
200	200	5
120	120	4
52	53	1
18	19	1
120	136	1
231	232	1
144	230	2
199	200	6
33	35	1
189	189	5
34	35	3
61	61	3
3	17	2
105	105	6
124	126	5
134	134	1
116	116	6
4	4	2
228	228	1
240	240	1
103	103	1
152	153	1
15	16	2
38	41	3
16	17	3
192	197	4
7	56	1
189	190	2
141	152	1
77	77	2
75	77	1
137	137	2
225	225	3
10	46	3
53	53	2
11	44	2
204	222	1
54	206	2
224	224	2
12	44	2
75	75	1
15	15	3
118	118	1
235	236	2
33	33	1
122	122	8
182	182	1
188	188	5
141	141	3
100	142	1
118	139	1
16	16	2
106	136	1
9	10	1
65	86	1
158	158	1
237	240	2
169	169	1
155	155	1
71	72	1
145	195	1
219	219	2
203	213	1
120	137	1
41	42	1
208	208	2
146	147	1
185	186	2
62	63	1
241	241	2
135	136	2
126	126	2
147	151	3
152	152	2
192	193	1
3	18	1
36	41	2
7	65	1
181	181	1
150	152	1
120	150	2
187	190	1
39	40	1
129	168	1
50	51	1
76	81	1
167	167	3
50	54	2
194	194	1
141	142	2
51	155	2
12	89	1
61	104	1
33	36	1
176	177	1
1	3	1
222	222	2
82	83	1
0	21	1
57	58	1
154	222	1
128	146	1
210	210	1
13	22	1
226	226	2
152	183	1
148	183	1
189	197	1
142	147	1
171	171	1
153	155	1
23	65	1
22	67	1
230	231	1
212	213	2
82	82	1
222	223	1
133	133	1
28	28	1
51	51	2
210	212	1
235	235	1
49	50	2
38	38	1
63	96	1
159	232	1
185	187	1
173	173	2
43	43	1
43	79	1
31	35	1
24	25	1
123	124	1
27	27	1
230	232	1
102	111	1
167	168	1
182	224	1
132	133	1
176	176	1
11	43	1
44	44	1
130	149	1
190	198	1
205	206	1
77	83	1
183	184	1
65	65	1
