85	121	6
12	32	3
39	42	3
101	101	11
29	29	8
25	25	19
8	8	12
111	111	12
68	68	7
92	92	3
36	62	2
104	115	6
107	107	6
123	123	6
93	93	11
46	47	4
29	88	1
9	9	6
39	39	4
63	63	6
17	17	11
64	65	3
103	134	2
55	55	6
83	83	8
46	46	6
30	39	1
10	29	2
92	93	6
94	94	4
119	119	11
28	30	2
39	50	4
86	86	6
73	73	8
71	71	3
2	2	8
117	119	6
64	64	8
38	39	1
130	130	3
110	110	4
79	85	2
18	83	8
5	5	4
125	125	8
74	74	17
31	37	1
58	119	4
116	116	8
81	81	4
72	72	12
133	133	7
104	104	14
44	44	5
6	7	1
87	87	7
19	45	1
23	23	7
98	98	8
112	112	3
13	14	7
109	109	7
24	24	9
97	97	3
19	19	3
38	38	3
27	44	6
22	23	4
65	65	11
86	87	4
27	27	14
90	131	1
41	41	12
88	88	4
18	25	1
60	102	1
87	88	6
81	88	4
35	35	11
56	56	6
28	38	1
115	115	5
103	103	2
59	119	1
32	32	3
122	126	1
105	105	6
57	57	13
10	11	3
120	131	2
3	3	3
75	75	12
118	118	6
46	49	2
121	121	8
65	74	1
34	34	8
12	12	11
22	22	7
101	102	1
47	47	6
6	6	13
17	78	5
112	114	2
105	134	5
69	112	3
100	100	5
6	36	1
31	31	4
106	106	7
31	33	9
50	50	3
24	25	2
112	113	4
61	61	6
11	12	1
132	132	9
131	131	1
111	115	1
78	80	2
77	77	5
10	10	4
19	20	3
41	57	4
114	127	1
35	36	1
46	126	4
33	35	4
35	80	1
128	129	2
9	10	3
11	32	3
46	109	3
26	90	1
122	124	2
5	28	3
84	99	1
102	102	11
49	49	1
77	124	3
31	34	1
76	76	2
68	69	1
23	24	1
84	85	5
95	95	11
5	7	1
113	116	3
33	33	5
123	124	3
47	67	2
45	45	8
117	117	4
42	43	10
63	64	4
129	129	5
13	13	3
44	45	2
98	99	10
43	44	3
17	77	2
36	38	1
109	116	1
37	38	6
123	125	1
48	48	4
108	108	3
7	8	3
79	79	5
101	105	3
112	117	2
110	128	1
62	63	4
121	122	1
0	0	7
109	112	4
114	114	5
48	49	2
19	23	1
134	134	2
78	81	1
70	71	7
60	60	2
37	44	2
26	27	2
66	96	1
11	30	2
26	26	2
37	65	2
20	20	7
79	121	2
96	105	2
62	64	3
43	91	2
57	75	4
90	90	2
36	36	7
95	124	1
113	113	1
19	22	2
132	133	2
111	117	2
108	111	3
14	14	5
119	128	3
12	109	1
85	85	5
34	109	3
0	5	1
69	69	8
7	7	4
57	65	1
37	37	4
126	128	3
21	21	2
97	98	2
24	26	1
62	62	2
19	27	2
9	67	3
1	1	1
87	130	1
26	91	2
120	130	2
113	118	1
40	45	1
121	124	1
69	74	2
5	35	7
25	42	3
114	118	1
15	35	2
7	14	3
89	89	3
78	78	5
10	97	1
0	4	1
82	82	2
130	131	2
35	66	1
83	123	4
16	49	2
11	11	5
70	112	2
32	33	1
8	9	3
30	30	4
3	4	3
122	122	4
97	99	2
90	92	1
121	132	1
15	15	6
120	120	6
67	67	3
66	66	3
77	78	2
43	123	1
125	133	3
1	2	1
89	96	1
4	30	2
108	110	1
116	119	2
34	102	1
41	42	1
113	114	2
72	73	1
19	26	2
102	105	1
101	104	1
15	17	1
20	85	2
45	50	1
80	80	2
30	89	1
6	60	1
131	132	1
16	17	3
99	99	2
112	126	2
91	92	1
7	34	1
118	119	2
31	108	1
88	93	2
15	16	1
40	40	2
74	111	1
88	127	1
81	84	1
17	18	1
40	44	1
42	56	1
78	83	1
2	15	2
111	119	1
78	92	1
9	109	2
51	51	1
4	4	2
49	104	1
13	26	1
61	62	2
100	102	1
98	134	1
40	42	1
93	132	1
18	18	1
125	126	2
71	72	1
17	19	1
35	79	1
54	126	1
16	82	1
31	35	1
94	95	1
59	100	1
68	116	1
10	30	1
60	105	1
64	96	1
104	116	1
57	58	1
107	108	1
86	90	1
40	41	1
5	22	1
