96	128	4
70	73	2
120	125	2
29	36	4
136	138	3
63	64	3
30	30	2
60	60	10
50	64	6
34	34	8
95	132	1
140	141	7
144	144	9
14	17	2
72	72	7
88	88	12
62	63	5
73	74	2
65	65	12
145	145	6
11	11	5
69	69	7
101	101	4
2	2	2
31	127	2
4	18	1
104	104	7
15	68	6
8	8	4
64	64	8
119	140	4
19	19	8
57	57	5
27	27	2
50	63	1
26	26	9
139	140	6
100	100	6
91	91	5
133	139	2
22	68	2
135	135	5
47	52	2
28	30	1
96	96	5
88	89	3
124	124	9
50	50	3
138	139	3
112	119	3
59	103	5
22	22	5
51	51	3
134	135	2
123	123	6
51	52	7
125	125	3
54	54	5
121	121	2
136	136	7
55	122	2
143	143	3
99	99	12
15	55	1
141	141	10
94	134	2
18	18	2
88	142	1
18	20	2
32	32	1
71	72	5
62	62	6
102	102	8
95	133	3
31	32	2
52	52	3
21	21	1
126	128	4
32	33	1
41	41	1
90	90	5
138	138	5
139	139	2
12	70	3
65	66	3
42	42	5
102	103	4
20	20	3
14	33	3
133	133	3
50	62	5
63	63	4
58	122	4
17	19	2
24	36	3
98	98	6
84	84	5
25	32	1
92	92	1
61	61	1
48	48	6
9	10	3
95	95	2
137	138	2
124	139	3
5	5	2
23	23	1
99	130	6
97	130	2
35	35	5
99	127	1
38	38	2
89	89	1
112	113	1
58	58	1
3	4	4
58	103	3
120	120	6
106	106	1
59	79	4
37	37	3
75	75	3
109	109	2
122	123	2
28	42	2
66	66	3
143	144	4
133	134	1
85	85	5
55	56	1
70	70	1
113	113	4
119	120	2
49	50	3
33	34	1
77	77	2
0	1	1
20	21	4
83	83	7
107	110	3
104	105	2
55	55	1
96	98	3
114	115	1
81	81	2
142	142	5
92	117	3
87	87	1
5	6	3
39	39	4
146	146	3
29	29	2
71	71	1
9	9	5
49	49	1
53	72	3
12	69	2
121	122	2
76	77	2
21	71	1
140	140	7
21	78	2
25	27	1
126	126	4
34	35	1
81	82	2
82	84	2
119	139	1
82	82	2
132	132	1
138	140	4
59	120	1
94	94	1
79	79	3
98	129	1
58	120	3
35	36	2
75	77	1
107	107	5
108	108	3
74	74	2
6	6	6
86	86	1
47	47	1
2	83	1
98	99	3
33	33	4
4	5	1
36	37	1
30	36	1
127	127	2
30	31	1
112	112	1
94	132	1
22	53	3
6	13	3
55	69	1
4	4	1
114	114	2
130	130	1
77	107	1
48	101	2
26	35	2
53	64	1
53	53	2
99	100	1
103	104	1
17	17	1
117	136	1
38	39	1
24	24	1
31	31	1
74	76	1
134	139	1
78	78	1
1	1	1
12	12	1
40	40	1
76	76	1
93	93	1
67	67	1
