61	95	2
84	85	11
61	62	5
101	101	3
21	21	8
87	87	4
33	33	18
62	63	3
49	49	7
100	100	9
64	64	9
51	83	3
77	77	19
38	95	4
89	89	9
73	74	7
83	83	3
67	67	5
82	85	2
30	30	13
61	61	7
48	48	12
22	22	9
54	54	12
105	105	5
106	106	4
25	28	2
53	53	6
53	54	3
92	92	9
84	84	3
39	39	7
56	62	3
80	80	2
50	50	6
27	69	8
50	51	2
19	20	5
22	73	1
73	73	4
94	94	5
78	78	3
20	86	2
52	65	6
86	86	6
102	102	14
46	48	4
40	41	9
35	35	5
76	76	7
84	86	2
95	95	14
97	99	5
51	69	3
42	42	3
72	72	4
71	71	5
25	25	9
96	96	6
69	69	4
58	60	4
57	57	4
70	70	2
98	99	3
85	85	9
28	70	4
41	42	3
82	83	4
24	98	2
47	107	5
34	71	7
62	62	5
45	45	1
95	96	3
29	29	12
96	97	1
66	66	3
50	58	4
44	44	7
65	65	14
33	35	2
24	72	1
47	47	5
41	41	7
97	97	2
75	75	6
55	55	7
90	90	9
89	91	1
32	32	4
89	90	4
37	85	3
36	36	7
31	98	5
103	103	5
93	94	1
31	34	1
52	52	7
92	103	1
23	24	4
38	38	3
37	39	5
68	69	2
44	45	5
57	89	3
93	102	3
26	27	5
73	106	1
59	59	9
27	27	3
27	66	4
43	43	4
31	32	6
46	47	2
76	77	4
93	93	7
79	79	8
43	45	3
88	89	3
88	88	6
34	34	12
68	68	7
55	65	2
31	105	2
24	27	1
28	28	5
20	71	2
99	99	7
42	47	3
60	96	1
23	23	3
30	98	2
25	39	2
98	98	5
83	86	1
63	63	6
20	20	2
53	95	1
71	100	1
60	60	1
24	24	6
78	80	3
39	42	1
23	71	1
82	89	3
52	54	2
22	72	2
20	28	3
82	84	1
83	85	2
27	97	2
81	87	1
58	58	1
69	95	2
91	92	1
27	28	2
65	96	2
51	51	2
39	48	1
27	95	1
74	74	4
37	46	1
25	38	4
77	96	2
25	88	1
49	50	2
93	101	3
42	43	1
50	59	1
81	88	1
87	88	1
69	70	2
83	87	1
56	92	1
48	85	1
58	106	2
37	37	2
50	85	4
29	98	1
35	36	1
77	101	1
60	69	1
51	86	1
72	98	1
59	106	2
42	46	1
60	95	1
21	101	2
20	49	2
52	66	1
46	82	2
81	89	1
92	94	2
46	69	1
67	69	1
66	96	3
32	58	1
52	53	1
84	93	1
40	40	2
58	59	1
32	100	1
54	55	1
30	31	2
28	72	1
104	105	1
104	104	2
65	91	1
76	100	1
31	31	1
45	84	1
45	46	1
56	56	1
21	72	1
56	57	1
91	91	1
