59	60	4
70	70	4
41	42	2
118	118	2
33	33	7
37	37	6
4	4	7
119	119	2
59	112	3
85	93	6
75	75	4
128	128	6
57	58	6
79	79	4
6	43	3
60	60	6
45	46	2
127	127	4
35	35	6
104	111	1
90	90	2
104	104	4
107	108	2
6	6	6
114	114	3
5	6	5
12	13	1
103	103	7
101	101	3
18	18	7
48	49	3
64	64	1
36	36	9
17	17	6
129	129	1
81	100	4
112	113	1
59	59	10
46	46	3
24	24	5
32	32	2
21	40	1
44	45	2
15	15	2
101	102	5
23	23	4
27	27	5
21	21	3
29	31	1
91	91	4
92	93	2
97	97	3
64	65	2
113	120	4
68	69	6
102	102	2
72	72	8
54	55	3
47	47	6
62	62	7
84	84	4
11	68	2
130	130	6
128	129	2
79	82	2
29	30	1
39	40	2
26	26	3
0	0	2
72	73	2
66	66	6
29	29	4
105	105	2
21	23	2
130	131	3
40	41	1
120	120	4
68	68	6
7	7	4
32	83	4
111	114	3
34	34	5
3	3	2
111	111	7
79	80	2
71	71	2
25	25	6
82	85	1
130	134	2
74	75	2
61	61	3
14	27	4
62	63	1
67	67	1
32	77	1
113	114	5
9	9	5
122	130	4
25	36	2
2	3	1
113	122	3
85	85	2
125	125	7
91	92	2
132	132	2
81	81	1
117	117	2
44	44	4
111	112	2
94	94	4
31	31	4
122	122	6
82	84	1
42	42	6
31	80	2
80	84	4
13	37	1
124	125	5
115	118	1
116	124	2
45	68	1
21	22	5
27	37	2
56	56	1
57	57	3
131	132	3
123	123	2
26	27	1
78	78	3
34	45	1
105	107	1
16	29	4
45	45	2
38	38	1
20	43	2
4	5	6
19	20	2
2	19	2
77	77	2
130	132	1
61	62	1
98	99	3
11	11	1
10	11	3
83	83	3
35	36	3
70	71	2
92	92	5
43	43	2
7	8	2
115	115	2
12	12	3
13	13	3
14	15	2
100	100	2
134	134	2
58	58	2
115	116	1
41	41	3
66	67	1
23	24	5
63	63	2
27	33	2
112	112	1
46	47	2
17	18	1
85	95	1
24	26	1
93	93	2
3	19	1
110	110	2
40	43	1
102	103	2
95	95	1
110	123	2
73	73	1
26	30	1
109	110	2
23	44	1
47	48	1
99	100	1
25	40	2
5	42	1
74	74	1
95	96	3
48	59	2
2	2	1
28	28	2
11	44	1
33	46	1
106	128	1
96	96	1
121	124	1
65	65	1
55	56	1
33	34	2
63	115	1
9	10	1
89	89	1
129	130	1
20	20	1
