72	72	8
28	28	6
85	85	6
88	88	2
100	100	3
115	115	6
3	3	3
161	161	3
5	5	7
124	127	2
138	138	3
129	129	4
48	48	11
77	77	6
36	37	1
189	189	19
99	99	5
62	62	2
43	43	6
149	149	10
104	104	1
29	29	3
70	70	12
34	47	6
136	136	6
108	108	11
36	42	2
140	140	2
180	180	2
130	130	7
141	141	2
65	65	7
107	107	13
181	181	6
33	36	4
122	150	4
107	108	6
53	53	1
178	178	19
141	144	4
177	182	1
73	73	6
145	145	8
74	74	4
135	135	2
46	47	5
120	120	6
143	143	7
47	47	19
32	33	6
79	79	9
12	74	3
6	6	6
45	47	1
174	174	12
123	151	8
109	109	12
116	116	6
118	120	2
17	37	6
104	122	1
7	7	4
41	41	7
177	181	4
98	99	1
29	30	5
172	173	1
12	12	5
87	87	3
149	150	12
19	19	7
55	55	2
182	182	5
21	21	4
64	67	5
146	172	5
157	158	8
46	46	8
32	37	2
26	26	23
84	151	2
111	111	12
158	158	2
86	109	6
170	170	7
121	121	9
182	183	2
29	31	2
18	18	7
169	169	7
38	38	3
17	22	5
43	44	2
156	159	2
67	67	8
58	58	3
11	11	9
42	42	7
18	19	2
60	66	3
101	102	3
106	145	4
94	94	12
114	114	8
36	36	6
142	142	2
169	170	9
24	26	1
68	68	2
113	114	5
89	186	1
84	84	4
8	8	2
113	115	1
99	102	4
17	18	2
31	31	2
93	93	4
159	159	1
94	103	3
34	34	4
147	148	2
118	118	3
144	144	6
136	137	2
66	66	10
98	98	8
15	15	4
56	56	6
90	187	1
127	128	3
173	173	5
131	131	5
13	13	6
65	66	1
86	86	8
166	167	2
119	119	2
42	43	6
84	85	1
75	76	3
25	25	8
177	177	5
20	20	4
189	190	2
106	106	5
80	80	9
83	118	4
176	176	10
103	104	4
177	178	3
65	70	1
145	146	2
22	22	5
187	188	2
167	168	2
146	169	1
78	78	4
165	165	6
35	35	2
84	111	1
84	110	3
128	128	3
61	62	1
183	183	3
33	35	4
57	57	3
94	95	7
109	110	1
44	44	3
96	96	2
121	122	4
173	174	3
146	152	2
160	160	2
102	151	5
151	151	9
33	33	4
25	26	8
81	81	8
39	40	1
153	153	2
154	154	5
104	146	3
125	127	2
81	82	4
75	75	4
149	151	1
62	67	5
32	32	6
40	55	2
25	30	1
134	134	3
124	125	4
53	71	2
54	55	2
128	129	1
157	157	1
117	118	2
92	92	2
175	187	1
136	156	2
176	177	3
39	41	2
188	188	4
90	91	4
125	125	1
162	163	3
27	27	8
38	41	2
179	179	5
184	184	3
131	145	2
91	91	2
72	73	3
64	64	1
71	71	4
139	139	9
67	68	2
117	117	8
37	37	2
134	135	1
24	24	3
155	155	4
175	177	2
104	148	3
146	146	1
63	64	4
144	168	1
111	149	1
88	153	2
56	57	2
154	155	1
47	48	1
141	142	2
93	94	2
95	95	5
68	77	1
147	147	5
5	6	1
114	115	1
30	30	1
170	173	3
110	110	5
139	141	3
164	164	2
175	175	1
136	140	1
9	15	2
123	125	1
152	152	2
172	172	2
11	12	1
162	164	1
52	53	1
85	109	3
60	60	1
168	168	5
101	101	2
82	82	1
132	132	1
156	157	2
158	159	2
16	38	1
126	155	2
39	95	1
86	108	2
74	75	3
171	172	4
150	150	5
21	22	2
0	0	4
167	167	2
141	143	1
85	108	1
52	52	1
10	10	1
33	46	1
102	102	2
24	59	1
111	150	1
54	54	1
39	39	1
16	17	2
166	168	1
56	58	1
163	163	3
144	164	2
4	4	3
110	112	4
148	149	2
58	60	1
103	122	1
112	112	2
25	27	1
87	172	1
152	153	1
148	148	1
79	80	2
32	34	5
44	45	2
113	113	2
31	45	1
14	15	1
140	155	3
187	187	1
163	164	1
32	47	1
156	156	2
100	101	1
127	127	1
122	122	2
135	136	1
26	59	2
61	61	5
97	97	1
106	129	1
105	146	1
112	115	1
3	184	1
76	76	2
45	46	1
99	100	1
10	11	1
143	160	1
63	63	3
16	21	1
91	187	1
30	32	1
14	14	3
88	122	1
186	186	2
77	96	1
28	30	1
30	31	1
184	185	1
174	175	1
166	181	3
24	25	1
126	126	2
4	154	1
23	23	2
2	2	1
65	68	1
78	98	1
160	162	1
166	166	2
142	143	1
88	89	1
1	1	1
95	101	2
156	158	1
41	54	1
137	137	1
185	185	1
153	186	1
126	128	1
