0	3	1
206	206	2
129	129	1
143	143	6
37	38	7
225	225	4
59	59	5
22	22	2
201	201	2
168	168	6
185	185	2
152	152	2
27	27	4
218	237	2
177	177	5
142	142	2
239	239	4
123	124	2
25	61	1
138	138	4
74	86	1
122	122	7
237	237	8
230	231	1
195	195	3
187	187	6
16	65	1
38	38	5
18	19	4
105	107	2
2	3	5
158	158	4
163	163	6
187	188	2
110	110	4
76	213	3
99	99	7
182	182	7
219	219	2
135	135	3
54	55	2
154	154	10
210	211	2
199	199	1
184	184	3
163	200	3
240	240	5
51	51	2
224	224	2
176	176	11
164	165	3
162	162	3
104	104	4
190	191	1
24	24	3
188	188	7
36	36	3
193	195	2
15	15	7
181	181	3
165	165	4
147	148	3
115	115	4
121	121	4
52	53	2
171	172	3
230	230	5
155	163	1
236	236	2
126	128	3
166	166	3
220	220	7
84	134	1
105	123	5
53	84	1
208	208	4
212	212	4
25	37	2
1	2	1
69	69	1
25	25	1
202	203	1
174	218	1
171	171	1
238	238	5
50	51	1
195	196	6
19	19	5
56	213	4
6	6	2
28	29	1
174	174	2
169	169	9
205	205	4
7	8	6
97	97	6
21	21	6
74	74	4
106	116	3
217	217	3
211	211	1
10	10	1
1	11	2
48	141	3
192	192	4
66	66	8
179	179	3
241	241	1
240	241	4
63	63	2
119	120	4
233	234	2
178	180	5
231	231	6
1	8	1
46	46	1
232	238	2
120	120	4
80	81	2
30	30	6
77	77	4
39	39	3
163	165	2
53	53	6
84	84	2
193	193	3
47	47	5
23	23	2
23	59	2
96	113	2
201	209	3
145	145	2
145	146	2
75	75	1
117	117	6
197	197	2
186	186	1
143	146	2
189	193	4
17	59	1
203	203	1
19	20	2
64	217	2
133	133	3
13	15	1
101	101	1
81	137	5
16	17	2
137	137	1
103	129	4
170	171	2
49	49	1
3	3	3
77	212	1
136	136	1
20	22	2
52	136	2
23	60	2
235	235	10
241	242	1
227	227	3
4	5	3
31	33	1
193	194	3
61	61	4
125	126	1
146	146	2
72	73	2
36	37	1
218	218	4
107	107	1
5	7	2
4	4	5
38	39	1
196	196	1
28	28	3
214	214	2
200	201	4
62	62	3
42	45	1
234	242	2
202	202	2
31	31	4
80	80	4
169	203	1
104	105	1
217	237	2
3	6	5
15	16	2
180	182	3
58	59	4
41	42	2
6	8	1
125	125	1
48	49	2
154	155	1
209	211	1
221	223	2
16	16	1
146	148	1
124	125	1
1	1	2
65	65	4
177	178	2
18	18	2
1	10	1
88	88	2
32	39	2
207	207	3
118	120	3
225	232	1
79	79	2
43	43	2
22	23	3
232	235	1
183	188	1
75	76	1
213	213	1
203	204	2
98	98	1
157	157	1
82	82	2
34	34	4
78	78	1
101	109	2
113	114	1
144	145	1
224	225	1
76	212	1
1	12	3
38	40	3
220	222	4
78	207	1
42	42	1
163	209	1
83	83	4
226	227	2
86	86	2
62	214	1
100	101	1
33	33	1
124	126	1
128	128	1
232	232	1
151	172	1
173	173	1
200	200	1
153	153	1
109	109	4
37	37	1
120	121	1
62	75	2
9	10	1
142	239	1
13	14	1
225	229	1
143	144	1
108	125	1
11	13	1
2	6	1
5	6	1
40	45	1
21	33	1
106	106	2
85	85	3
9	9	1
8	8	2
134	137	1
6	19	1
189	189	2
156	156	1
209	209	1
144	144	2
201	202	2
223	225	1
32	33	1
14	14	2
218	220	2
112	113	1
197	198	1
20	20	1
42	44	1
41	72	1
191	194	1
145	148	1
65	69	2
179	180	1
44	44	1
5	34	2
41	73	1
234	234	1
223	223	1
226	226	1
62	63	1
204	208	1
166	167	1
148	148	1
113	113	1
123	123	1
71	71	1
232	239	1
216	216	1
175	175	1
41	41	1
55	55	1
12	12	1
42	43	1
156	157	1
