4	4	4
33	33	17
79	79	3
77	132	2
0	1	2
88	88	5
66	66	4
24	24	8
11	13	2
99	99	16
63	63	5
83	83	7
75	75	6
71	71	8
29	29	9
93	93	6
65	65	6
76	76	6
107	107	6
123	123	5
122	122	2
108	110	7
91	91	4
56	56	7
74	74	1
94	94	2
82	83	2
34	34	8
105	106	3
112	112	5
109	109	1
36	37	3
77	130	5
95	106	2
3	4	9
96	96	2
35	35	2
125	130	1
46	106	2
30	30	8
72	72	8
97	97	11
29	33	4
63	64	1
16	17	4
6	7	2
44	45	4
82	82	4
23	24	4
106	106	6
22	95	2
98	98	8
31	31	8
6	14	3
4	5	3
80	80	5
0	7	4
45	49	3
43	43	1
44	44	2
22	22	8
118	118	1
77	77	6
25	62	2
8	8	1
85	130	2
89	89	7
26	26	4
9	9	5
118	119	3
104	104	4
104	105	2
20	21	2
78	78	9
124	124	12
120	120	7
105	105	6
33	109	7
20	25	2
93	94	2
106	107	3
130	133	2
12	12	11
2	3	3
50	96	1
124	125	7
135	135	3
126	127	2
108	127	1
74	101	3
112	113	5
2	2	4
108	115	1
3	3	8
27	76	3
19	19	1
110	110	4
107	125	2
88	89	4
121	121	1
59	59	11
85	133	1
81	81	4
73	73	3
66	67	2
10	10	5
80	114	2
11	11	6
91	92	5
14	14	3
45	45	11
134	134	1
28	28	7
111	114	2
70	70	2
77	134	5
27	28	4
109	114	1
64	65	2
80	110	1
58	58	4
103	103	5
20	20	2
61	61	4
90	91	1
131	131	1
83	87	2
55	56	1
84	87	2
77	85	1
78	92	6
90	90	2
77	106	1
123	132	1
25	25	1
37	38	2
100	100	4
95	95	7
126	126	12
58	59	3
96	97	1
114	115	1
86	86	1
53	55	1
63	69	1
62	62	3
31	73	2
119	119	1
71	72	3
108	108	1
54	61	1
22	23	2
76	101	1
15	15	2
47	47	1
54	62	1
54	54	2
87	88	2
85	85	3
19	20	2
6	6	3
17	17	1
1	2	4
101	101	3
102	104	1
21	27	2
49	49	3
99	100	4
52	53	2
105	135	1
60	67	4
59	60	2
92	92	2
15	18	1
114	114	2
110	111	1
101	102	1
127	127	4
129	130	2
102	103	1
92	94	2
48	48	3
69	70	1
123	124	2
26	77	1
108	131	1
62	63	1
77	78	1
90	93	3
49	53	1
95	123	1
27	27	2
32	33	1
34	37	1
36	109	1
76	98	1
112	116	1
108	109	2
46	46	2
123	134	2
32	32	2
125	125	1
8	14	2
124	126	1
86	87	1
64	68	1
56	57	1
21	22	1
23	26	1
132	132	1
130	132	1
91	121	1
102	102	1
16	19	1
50	125	1
116	116	1
60	60	1
113	114	1
