47	47	4
160	160	4
212	215	7
155	157	4
159	165	5
19	19	7
32	38	1
157	157	9
236	237	5
241	243	4
159	161	1
222	224	4
52	55	1
187	187	2
23	31	4
114	118	2
37	49	1
232	232	9
151	157	2
198	203	2
40	44	5
94	94	5
197	199	6
229	229	7
165	170	5
22	22	7
115	115	3
244	244	5
34	44	7
81	81	5
45	45	2
49	51	5
103	105	8
77	77	4
213	213	2
24	24	10
175	180	3
112	117	4
225	225	3
35	41	2
64	64	6
197	197	10
245	248	2
157	158	4
234	235	2
54	64	1
83	85	6
90	91	3
229	230	1
6	6	7
195	195	5
106	107	9
58	59	3
83	88	1
225	228	2
34	35	3
11	14	8
156	160	7
40	41	2
55	58	2
92	94	4
247	247	5
87	88	2
204	205	5
213	225	2
89	90	4
91	100	4
24	30	5
14	21	2
101	110	3
234	241	1
17	18	2
73	74	1
75	78	4
115	118	1
244	246	3
43	43	14
213	214	12
60	60	9
54	54	14
72	78	1
216	216	7
81	87	3
219	221	10
117	118	5
200	201	3
10	15	5
232	233	3
32	32	4
18	18	10
108	111	7
39	39	11
24	25	2
156	162	3
36	36	9
62	63	4
98	105	5
2	17	1
75	82	3
113	116	3
151	153	8
176	177	8
215	221	4
185	186	2
12	14	1
207	208	2
76	91	3
245	247	5
180	182	5
163	165	1
89	89	2
208	208	9
154	159	1
43	44	7
230	230	11
217	219	5
176	184	2
194	199	5
217	217	7
175	179	4
180	180	8
154	157	2
55	60	1
37	41	2
111	119	2
27	27	8
78	78	9
66	204	2
102	103	3
179	180	4
58	58	6
110	111	4
71	190	1
4	4	8
177	179	13
38	39	3
181	182	4
219	220	1
55	61	2
204	207	2
25	29	6
97	97	12
23	24	3
25	28	2
88	92	3
44	47	3
92	103	1
235	236	7
96	97	7
47	64	4
170	172	4
78	84	2
120	120	2
52	52	7
188	188	1
52	74	2
46	46	2
68	68	1
16	16	6
216	218	8
198	198	2
42	48	3
221	228	2
32	33	2
105	106	2
78	82	2
119	119	5
170	175	7
179	182	3
118	118	4
235	235	1
16	18	2
97	159	3
196	196	7
60	62	5
55	56	4
8	9	10
149	149	3
12	15	6
162	162	8
112	149	1
181	181	2
220	221	2
67	67	15
232	240	1
30	30	7
160	162	5
61	70	1
183	183	3
233	234	3
160	171	2
38	38	6
51	55	7
33	33	5
234	237	4
242	245	2
238	238	18
87	102	3
243	243	7
77	80	6
106	110	4
233	238	2
191	191	8
14	15	2
10	10	6
164	165	2
79	88	2
20	21	2
67	75	2
200	202	2
151	154	3
11	13	4
146	154	2
181	183	4
109	109	8
36	43	1
63	63	4
102	115	3
52	59	1
84	95	3
233	237	2
177	188	1
223	226	2
100	100	6
19	20	5
202	203	9
52	54	3
53	53	7
71	71	3
151	161	3
156	159	4
245	246	4
8	15	2
169	175	6
55	55	7
42	43	8
102	102	6
70	71	7
21	21	8
72	77	2
160	164	3
9	11	4
69	72	3
180	181	6
185	187	4
18	20	5
56	56	5
82	82	1
59	65	2
242	244	5
233	233	4
111	111	6
4	5	7
86	93	3
167	170	1
33	38	3
227	233	3
246	247	2
88	89	7
78	85	1
2	5	6
222	229	3
102	104	1
218	220	4
222	237	3
17	17	2
37	37	1
30	39	1
51	51	8
246	246	12
43	49	2
97	99	6
209	209	7
196	200	1
44	212	3
43	45	2
61	63	2
239	248	2
236	236	3
15	23	3
210	215	2
109	114	4
20	20	7
243	244	2
42	42	3
7	9	4
211	217	4
215	217	5
85	85	4
15	15	10
203	207	4
1	3	5
58	68	2
59	67	1
206	206	3
104	111	2
180	183	6
182	182	5
45	204	3
88	90	1
212	213	3
30	31	2
110	110	5
26	30	1
234	236	4
5	6	1
76	80	1
34	34	9
169	169	2
2	2	6
218	218	1
164	164	3
46	51	3
42	44	2
193	198	3
28	31	1
166	166	4
209	215	4
239	240	4
99	115	3
178	179	9
59	59	6
153	153	6
50	50	2
117	117	4
52	53	5
84	84	6
228	228	14
226	231	1
166	170	3
99	109	4
81	90	5
50	58	6
9	237	3
172	175	4
170	178	5
197	203	2
119	120	1
69	71	6
202	205	2
22	30	4
58	61	4
185	185	3
146	153	2
194	204	5
159	159	3
86	91	2
18	26	5
237	237	3
204	204	9
7	8	1
58	62	4
32	36	2
174	176	2
113	117	1
6	7	2
76	76	5
25	25	6
70	72	8
15	19	5
240	246	5
27	42	2
65	68	3
17	22	3
86	100	1
230	234	3
167	173	5
98	117	4
181	186	5
93	94	4
14	17	2
162	164	5
84	86	5
178	178	1
198	208	3
44	44	7
118	120	1
25	26	7
207	207	1
6	8	3
214	215	2
109	115	3
18	117	2
73	76	3
224	224	1
212	217	2
225	226	2
21	23	1
36	40	6
103	103	5
226	226	8
166	177	2
73	82	4
186	186	4
221	222	1
93	96	1
104	105	5
51	214	4
28	33	5
39	40	1
164	167	4
32	34	2
66	71	1
14	22	1
14	14	3
206	214	2
159	169	8
184	184	10
224	226	5
111	116	3
159	167	3
219	226	3
230	233	2
235	239	7
59	69	1
172	172	6
158	162	13
52	75	4
226	227	2
180	187	5
100	103	3
18	19	2
192	192	6
231	233	8
29	31	2
33	40	3
77	89	1
67	77	1
215	215	2
2	3	11
156	156	12
161	168	1
26	26	2
169	172	3
9	9	3
47	49	2
156	158	5
199	200	5
80	80	7
174	174	7
173	173	3
168	173	6
212	216	4
88	95	1
76	86	1
159	164	1
166	172	2
109	113	3
58	60	3
38	40	1
231	231	6
181	199	3
110	118	4
71	73	4
29	29	7
54	57	3
118	119	6
56	62	3
163	172	2
230	232	8
95	95	3
231	232	3
35	39	3
152	154	3
3	5	6
187	191	5
156	157	1
240	245	2
216	219	3
179	179	2
95	96	3
66	76	3
92	100	4
56	57	2
37	38	7
50	57	3
72	74	4
164	170	3
71	74	4
39	42	5
31	34	1
20	27	3
205	214	3
110	112	5
179	181	4
1	243	1
235	240	3
236	238	3
102	105	4
200	203	1
145	147	4
227	227	5
227	230	1
56	59	4
187	190	3
213	223	4
42	47	3
81	89	4
44	48	2
86	88	2
10	11	5
112	112	10
197	200	1
116	116	3
49	57	4
210	212	3
5	5	10
210	218	2
2	7	3
36	38	2
102	150	4
115	116	2
203	203	2
248	249	7
32	39	2
175	177	5
104	104	1
23	26	2
173	180	2
57	60	1
211	212	2
246	248	10
211	211	4
91	91	3
161	162	3
56	63	2
107	107	2
195	199	4
229	238	4
212	212	4
116	117	3
35	35	15
69	70	1
160	161	4
216	217	6
186	192	2
189	199	2
153	158	2
203	208	2
151	155	1
48	48	3
35	37	3
55	59	2
101	105	3
74	74	3
215	218	3
80	81	1
41	49	3
216	224	2
56	58	2
181	185	2
5	7	1
214	218	2
189	207	2
184	190	7
189	196	2
90	99	3
168	172	2
221	229	1
163	163	4
222	222	7
227	234	1
24	26	3
198	199	4
62	67	2
98	98	3
219	219	6
164	173	1
81	82	1
96	98	1
235	242	1
1	8	2
11	12	4
243	247	3
162	178	3
84	85	3
154	160	2
86	87	4
53	199	2
222	232	4
158	160	3
232	234	1
210	214	1
173	176	3
3	3	4
67	71	3
220	227	1
92	174	4
195	196	3
85	88	2
68	78	1
57	58	2
70	70	1
94	109	2
76	77	1
181	190	4
94	97	1
219	230	3
27	31	1
208	214	1
189	198	4
170	177	2
94	95	1
165	174	2
28	32	1
223	225	1
93	95	4
71	72	3
13	18	2
153	159	3
40	49	3
12	18	1
15	226	1
99	103	1
34	36	2
146	151	3
100	101	2
87	91	3
68	75	2
211	220	1
84	87	2
69	79	1
59	61	1
155	156	1
49	60	1
103	109	2
59	73	1
94	96	1
8	242	1
183	184	2
48	59	2
186	195	2
21	28	2
71	75	2
160	163	1
235	244	2
26	27	3
101	109	2
106	111	1
90	92	1
155	159	1
24	27	2
171	178	2
23	23	2
62	64	1
182	185	3
185	190	2
2	12	1
11	11	13
96	100	1
242	242	5
245	245	4
93	97	7
158	168	3
46	54	1
145	152	1
241	241	2
240	243	2
28	38	1
239	242	2
24	29	1
189	192	3
189	189	2
177	177	2
222	228	2
7	7	4
226	234	4
28	30	3
172	179	4
165	165	2
192	201	1
200	200	7
162	167	3
74	78	1
157	161	2
227	231	3
160	172	1
176	179	1
173	178	3
3	10	1
213	217	2
92	92	5
210	213	1
189	200	1
163	171	1
154	154	5
64	65	1
240	242	2
32	37	1
213	227	2
111	117	5
52	66	1
240	241	4
209	210	2
243	245	3
206	208	1
209	218	1
188	191	4
217	218	2
232	235	2
190	191	1
230	231	2
62	62	2
82	91	2
107	108	1
113	114	3
44	45	2
69	86	1
52	67	3
67	68	1
46	52	1
27	30	1
161	161	4
80	90	1
77	86	2
216	222	1
217	225	1
163	169	1
8	233	1
202	202	1
15	26	2
173	181	2
84	91	4
160	178	2
196	198	1
23	28	1
6	14	1
166	169	2
54	56	2
72	80	1
193	201	1
188	192	1
159	160	6
201	202	3
21	25	2
209	213	1
34	37	1
96	101	1
193	196	1
5	12	6
237	238	5
50	51	1
49	52	1
54	55	1
238	241	2
90	90	1
198	200	2
223	223	2
199	199	5
14	19	1
199	203	1
174	184	1
216	228	1
172	178	2
75	76	1
67	76	1
36	37	3
66	190	2
106	117	1
49	58	1
76	82	3
54	211	1
147	151	2
175	176	1
73	75	1
15	20	2
4	10	2
60	64	2
222	227	3
153	157	1
113	113	4
195	197	2
99	104	1
247	249	3
154	155	1
91	96	2
214	214	3
191	192	1
227	228	1
51	56	1
163	164	5
175	175	6
53	58	2
64	69	1
153	154	1
111	115	1
154	158	1
166	168	2
233	236	1
192	195	2
72	72	1
169	178	2
101	101	2
157	168	2
108	108	2
220	223	2
65	70	2
111	118	2
31	31	4
20	25	3
91	93	1
17	23	1
52	57	1
33	43	1
46	47	2
167	167	3
47	57	1
219	229	1
174	182	1
194	195	2
87	87	1
168	168	1
34	43	2
183	193	1
221	225	2
11	16	1
146	155	2
53	54	1
150	150	3
21	30	1
160	166	2
7	242	1
210	210	3
89	91	2
37	42	2
200	211	1
157	165	1
218	223	1
48	60	1
17	21	1
178	185	5
68	86	1
176	185	1
26	28	1
8	18	1
234	242	1
238	239	4
94	98	2
164	168	1
180	185	1
79	82	2
41	43	2
55	70	1
60	61	1
45	47	1
6	12	1
205	207	1
229	234	1
86	86	1
202	204	1
40	45	1
51	215	1
216	223	2
81	83	1
63	70	2
196	197	1
240	240	5
145	149	5
182	183	2
37	39	3
205	205	2
4	237	2
171	173	1
75	75	1
4	6	1
53	66	3
8	8	2
14	16	1
42	46	2
65	65	5
94	103	2
150	152	2
196	201	1
46	57	1
165	167	2
19	25	2
53	55	4
114	114	2
34	40	1
82	90	2
34	45	1
61	68	1
150	151	1
91	95	1
6	9	1
89	101	1
33	37	1
35	43	1
51	211	2
31	42	1
207	209	2
173	179	1
99	99	2
238	240	3
89	96	1
83	86	1
101	103	1
34	38	1
65	67	1
201	201	2
182	189	1
199	202	1
41	44	1
218	233	2
97	109	1
151	151	2
189	191	1
99	110	1
201	204	1
239	245	1
170	170	1
142	142	1
18	21	1
201	211	2
40	40	1
108	113	1
206	215	1
40	42	1
247	248	2
206	209	1
212	219	2
41	41	2
239	247	1
80	87	1
61	71	1
180	188	1
248	248	1
93	99	1
164	192	1
213	219	1
77	85	1
90	93	1
66	75	2
14	18	1
71	206	1
83	84	1
234	240	1
79	80	1
18	22	1
78	80	1
108	115	1
4	8	1
59	60	1
22	23	1
46	55	1
65	66	1
221	221	1
181	189	1
95	99	1
231	238	1
144	144	1
161	169	1
101	106	1
85	86	1
164	172	1
12	12	1
184	188	1
57	57	1
185	188	1
83	89	1
169	177	1
94	107	1
167	176	1
53	57	1
107	115	1
73	81	1
60	67	1
56	66	2
