83	83	3
21	22	6
84	89	10
119	128	1
113	113	5
74	74	6
16	17	5
61	62	1
29	29	16
33	34	8
69	69	4
102	102	1
17	17	2
59	59	3
20	20	7
121	124	2
124	125	1
60	61	6
23	23	5
62	65	1
88	88	5
122	122	3
33	33	1
65	69	3
129	129	5
14	14	6
21	21	6
62	63	2
99	99	19
22	22	1
81	81	5
75	75	5
0	1	1
100	100	2
19	19	4
2	36	2
68	69	1
82	108	1
101	101	6
16	16	5
137	137	2
65	65	8
42	42	5
9	9	3
76	76	3
124	124	8
94	94	5
23	27	1
10	36	1
130	130	6
77	77	7
71	71	6
59	61	4
26	26	2
66	77	2
73	74	5
118	118	2
66	69	1
40	40	3
43	43	3
87	90	1
55	55	4
134	134	4
64	65	1
68	70	2
37	37	3
70	71	2
121	123	1
107	107	7
65	66	1
48	65	3
38	38	4
43	122	3
89	117	2
80	80	3
36	37	1
39	64	4
106	106	1
51	52	1
103	103	5
3	4	6
110	110	3
20	21	4
35	35	2
93	93	2
121	121	4
143	144	1
60	60	2
51	51	2
31	31	2
75	77	1
1	1	11
144	144	5
67	67	1
38	39	1
67	75	3
85	85	6
63	63	5
108	108	3
106	122	3
35	43	3
24	25	3
40	41	7
29	30	1
75	76	3
124	134	1
13	13	2
16	18	4
99	100	4
25	25	1
17	22	1
116	116	1
28	28	2
4	4	2
18	18	3
27	27	2
87	87	5
128	128	2
90	90	3
68	68	5
76	80	3
143	143	1
107	108	1
73	80	2
23	24	2
18	20	2
132	132	3
145	145	4
39	39	3
115	115	1
117	117	5
72	72	2
74	103	3
58	58	3
106	133	1
53	79	1
48	48	2
56	56	2
109	109	2
3	49	1
1	51	2
93	94	1
120	120	2
50	51	1
97	97	2
65	67	1
124	137	1
42	94	5
84	84	5
46	136	1
79	82	2
34	34	1
74	75	2
50	52	1
76	78	1
2	3	2
137	138	1
50	50	2
15	15	1
21	55	1
125	125	1
76	77	3
125	134	2
117	127	1
10	10	2
119	133	1
79	79	1
32	32	2
119	119	1
67	70	1
142	142	1
4	54	1
73	82	2
66	68	1
91	92	2
116	117	1
140	141	1
121	127	2
49	49	1
31	32	1
121	130	1
125	133	1
1	41	1
16	25	2
37	38	1
96	96	1
11	12	1
8	28	1
40	48	1
61	61	1
104	104	1
55	56	1
