26	26	15
148	148	7
76	76	15
144	144	14
96	131	4
13	28	2
135	187	4
9	114	1
10	114	2
61	61	3
3	5	1
80	82	7
207	207	4
173	174	2
231	231	13
175	175	9
217	217	9
188	189	7
169	169	7
136	136	5
203	203	4
142	142	13
129	131	2
117	117	9
235	239	1
216	216	8
129	129	6
198	215	4
180	180	16
214	216	5
182	182	6
54	54	14
48	50	4
214	214	8
3	137	3
228	228	8
153	156	5
123	123	15
132	133	3
152	193	2
96	128	3
82	82	4
169	191	4
142	162	1
228	231	2
141	171	2
192	192	4
19	23	3
83	83	5
101	101	9
62	62	6
122	200	2
45	45	14
49	50	10
114	114	3
101	204	1
62	175	1
3	6	6
122	122	5
33	33	8
166	166	12
43	43	5
57	57	7
73	73	14
187	201	4
136	138	4
32	32	5
135	141	3
135	135	9
201	201	1
7	7	8
2	2	3
130	131	1
27	32	7
22	22	10
2	48	3
203	239	2
211	212	2
164	164	4
9	9	9
200	210	2
105	109	3
17	17	11
133	229	5
179	179	1
2	4	1
23	23	5
54	151	5
20	20	14
201	232	2
58	59	1
105	120	1
107	119	4
5	6	2
11	11	5
124	124	3
124	125	3
56	154	1
102	104	3
229	229	5
150	150	3
12	12	4
160	161	5
172	172	8
38	38	10
36	49	4
188	188	5
156	157	3
56	56	8
14	14	6
21	31	3
40	40	4
134	135	3
97	97	5
230	232	6
96	96	10
174	178	2
212	212	4
139	140	3
198	213	6
191	191	2
118	211	3
199	216	2
64	78	3
148	181	1
56	155	3
63	63	6
156	156	6
116	150	1
40	58	4
59	59	8
107	107	6
78	84	4
68	72	5
16	16	6
187	187	6
145	145	4
167	190	1
206	207	2
145	156	4
125	126	4
3	4	2
11	12	3
69	69	9
146	147	2
220	222	1
138	138	3
79	79	6
27	29	2
197	198	6
215	216	3
36	50	1
239	239	4
109	191	3
190	201	2
6	75	1
147	148	7
119	228	2
36	36	1
210	229	1
3	3	8
223	223	1
49	49	4
37	44	4
143	143	3
242	242	7
33	53	4
68	68	2
176	177	8
230	230	4
213	213	4
44	44	8
104	105	4
31	167	2
120	198	4
217	218	2
56	57	6
69	155	1
109	109	5
74	74	1
37	38	2
40	66	10
121	127	6
144	145	8
55	55	3
4	4	2
31	31	7
104	106	4
139	139	7
8	9	4
140	156	3
117	119	2
223	224	2
210	210	5
146	146	3
181	222	2
103	103	4
159	160	2
21	21	5
233	233	9
215	215	4
195	195	2
179	180	7
238	238	1
22	71	1
48	160	1
14	15	1
219	219	5
211	211	2
63	84	1
141	141	5
237	237	3
85	85	2
173	173	3
191	196	5
23	33	2
7	65	3
144	156	2
184	184	9
209	209	2
153	154	7
57	58	2
55	57	5
131	133	5
60	60	7
189	189	1
29	159	1
134	134	2
101	197	3
190	190	4
100	100	8
75	75	3
164	173	3
31	135	3
81	81	1
162	164	2
133	205	3
36	37	1
171	241	2
65	65	8
151	151	4
60	208	2
4	6	3
29	29	4
221	221	3
159	159	5
81	82	3
21	35	2
74	98	3
185	185	2
39	51	1
147	174	5
227	228	2
80	80	7
24	26	1
78	78	3
99	99	5
139	142	2
96	187	1
35	35	6
21	23	2
37	37	5
64	64	7
102	144	1
233	234	3
205	206	8
125	127	2
222	222	3
115	115	4
25	114	1
171	178	2
159	195	1
139	168	2
113	113	2
31	137	2
48	58	7
47	55	1
50	50	7
7	108	1
48	49	2
160	160	1
65	178	2
0	0	5
119	119	1
201	202	5
212	232	1
18	18	2
1	35	1
224	224	1
48	48	4
100	171	5
220	220	6
181	182	4
22	59	2
32	34	5
42	50	8
4	77	5
198	216	2
91	91	4
210	216	2
65	67	1
143	154	2
1	80	3
220	225	1
118	118	2
220	223	3
108	216	2
202	234	1
10	10	7
208	208	8
72	72	4
196	196	3
11	13	2
105	106	3
170	170	2
51	51	4
109	121	1
155	185	3
154	154	2
164	165	4
158	158	6
171	171	3
234	234	6
97	125	1
161	161	2
58	58	11
220	233	1
174	175	3
28	154	1
167	167	2
177	177	1
1	68	2
0	102	2
2	34	4
28	28	6
137	137	8
10	115	1
9	234	1
88	88	3
128	128	1
133	133	1
70	70	3
13	15	2
84	91	2
64	136	5
24	24	2
222	223	4
72	74	3
150	163	1
105	105	2
190	199	3
117	118	1
102	102	2
208	210	2
85	88	2
86	88	1
58	229	4
166	167	1
4	5	3
101	102	2
115	173	1
6	9	4
236	237	2
35	36	3
235	235	4
218	218	4
15	16	2
8	8	2
27	27	1
68	71	3
241	241	2
160	192	3
200	200	4
181	181	5
149	153	1
174	174	2
134	141	1
77	77	8
208	209	2
8	10	3
97	127	5
34	89	2
124	199	1
194	194	2
69	70	4
96	132	1
10	12	2
53	59	1
3	67	1
197	197	2
179	236	1
34	105	1
41	41	2
0	1	1
140	157	6
42	43	1
39	54	4
71	178	2
36	89	1
132	132	1
110	110	2
104	104	5
135	156	2
75	107	3
30	155	1
42	66	1
165	165	3
198	202	1
121	202	1
226	226	3
103	118	2
105	108	2
156	158	2
140	141	1
46	46	1
25	25	5
125	125	5
187	188	4
6	80	1
52	52	5
18	87	2
2	80	1
224	225	2
219	227	1
153	153	1
70	71	2
225	225	1
75	76	2
204	204	3
5	5	3
147	155	2
122	124	1
122	149	2
15	77	3
198	198	5
219	225	1
7	79	1
161	163	2
121	121	1
193	193	7
149	149	1
155	157	2
227	227	4
149	150	1
221	222	3
55	56	1
211	231	1
216	217	2
126	126	1
230	231	1
26	74	1
78	79	3
204	239	1
127	130	3
155	156	1
116	116	2
66	66	1
21	22	1
71	174	3
163	163	3
200	201	3
68	161	1
206	206	3
142	143	2
108	108	2
120	120	1
42	42	3
160	164	1
54	144	2
90	107	1
81	83	1
148	155	2
203	235	1
127	127	1
111	176	1
131	132	2
178	178	5
232	239	2
104	149	2
139	143	2
152	152	2
200	228	1
34	218	1
88	90	1
209	210	3
188	218	2
57	61	1
118	213	1
199	200	1
192	194	2
80	81	1
145	155	3
163	170	1
44	45	2
183	241	1
135	139	4
22	74	1
237	238	2
84	84	4
145	153	1
43	49	3
200	217	1
183	183	2
3	80	2
39	39	3
110	227	1
15	15	1
211	229	1
24	178	1
232	232	2
54	55	2
147	147	1
9	25	1
86	86	1
43	45	2
148	179	1
205	205	3
71	72	2
106	107	1
108	126	1
63	64	1
6	21	1
186	186	1
99	214	1
211	215	1
218	233	1
29	69	1
48	161	1
124	200	1
60	61	1
180	181	2
1	104	2
138	139	1
39	45	1
162	163	1
180	182	2
3	54	1
0	114	2
98	98	2
5	79	1
140	143	1
150	152	2
133	163	1
148	201	2
213	214	1
97	185	2
21	114	1
20	30	1
154	186	1
131	131	1
65	187	1
189	190	1
38	39	1
47	48	1
32	39	1
102	103	1
189	199	1
122	123	1
18	88	1
238	239	1
168	168	2
37	77	1
4	74	1
209	211	1
2	84	1
157	157	1
