140	154	1
40	40	4
20	38	1
5	120	9
112	113	3
25	25	7
18	94	4
131	132	5
132	132	5
7	114	3
68	78	1
8	8	9
6	6	4
74	74	4
26	32	5
81	81	9
26	88	1
42	113	2
69	73	9
73	145	1
53	53	4
133	136	5
14	111	1
12	12	4
42	42	6
79	79	4
20	122	1
133	133	4
33	33	1
120	121	1
140	140	4
39	39	10
17	17	4
138	138	5
112	112	9
11	11	5
68	81	1
10	18	4
45	45	4
50	51	1
150	151	3
115	117	2
25	41	1
28	28	6
19	118	3
100	100	4
144	145	3
35	37	2
75	75	5
62	87	5
64	122	1
43	43	3
120	120	3
95	95	4
77	77	6
102	102	3
125	125	3
144	151	1
141	141	4
146	149	3
53	129	2
16	16	6
24	24	7
80	80	5
102	107	4
104	104	7
121	151	4
21	21	6
127	127	2
7	17	4
111	112	4
147	148	1
130	131	3
61	61	8
42	123	3
48	53	2
10	10	7
125	142	2
23	31	2
22	23	5
93	138	1
150	150	1
96	96	3
106	107	2
141	154	2
64	65	3
138	142	7
18	18	8
39	40	1
5	5	1
118	118	5
113	113	2
79	80	1
93	94	3
88	88	2
135	135	9
17	28	3
54	71	4
37	40	2
92	102	3
115	116	1
97	133	3
5	116	1
134	135	8
20	20	3
134	134	3
104	105	2
100	134	4
99	99	5
54	129	3
13	34	7
62	62	1
73	73	3
37	37	3
22	50	2
82	82	3
140	144	1
79	93	2
27	27	2
146	146	4
31	31	1
129	129	6
27	28	2
110	110	5
7	7	3
48	48	1
55	130	2
34	37	1
96	99	3
24	27	2
137	138	5
106	106	3
71	71	1
72	137	3
80	85	2
37	38	3
20	21	3
36	36	9
32	32	2
3	3	6
14	131	1
124	151	4
86	86	2
80	128	1
92	154	5
82	83	1
7	9	3
78	78	2
57	57	3
38	39	1
66	66	3
57	78	2
13	13	1
48	131	3
107	107	4
117	133	2
45	120	1
55	55	3
115	115	1
2	123	1
81	82	1
34	113	1
25	27	4
122	122	1
137	139	2
75	145	2
117	117	4
88	90	1
4	6	2
138	148	1
105	105	1
34	125	1
26	26	3
38	41	3
8	20	2
118	138	2
114	114	2
11	118	2
123	127	3
137	137	8
68	68	4
121	126	1
29	29	3
56	57	2
8	9	1
14	130	1
20	35	5
124	124	4
30	120	2
110	119	2
95	98	1
65	65	5
9	9	1
94	94	6
21	26	3
31	32	4
44	44	2
76	144	1
84	84	3
49	109	1
67	70	1
67	67	5
63	151	3
126	127	2
101	101	3
121	121	2
51	52	2
34	93	1
86	90	1
93	100	2
94	95	1
5	6	2
52	53	3
49	50	3
67	75	1
147	147	3
70	70	3
30	30	2
68	69	1
45	69	2
148	150	1
136	141	2
73	74	2
145	146	1
97	97	4
125	151	1
56	56	3
37	55	1
7	117	1
47	47	3
38	90	1
2	2	1
72	72	1
145	149	1
123	144	1
17	19	1
76	76	3
5	124	1
51	56	1
111	111	4
41	41	2
75	76	1
116	116	2
6	81	2
18	112	2
49	49	1
121	123	2
126	126	2
22	51	2
113	114	1
102	153	1
74	86	1
39	47	1
38	38	1
17	36	1
23	29	1
101	138	1
137	147	2
108	108	1
55	71	2
91	94	1
7	115	1
57	122	1
27	37	2
27	32	1
53	54	1
144	148	1
152	152	1
136	137	3
51	100	1
145	145	2
46	47	1
85	85	1
30	32	1
46	123	1
17	23	1
50	54	1
79	81	1
84	128	1
90	151	2
40	41	1
93	93	1
58	58	2
73	76	1
130	130	1
4	5	1
83	83	1
33	125	1
146	150	1
121	122	2
88	140	1
29	30	2
35	38	1
37	105	1
148	148	1
18	117	1
43	44	1
80	86	1
68	80	1
18	119	1
12	128	1
87	87	1
77	139	1
64	67	1
4	4	1
141	142	1
