10	10	8
40	50	3
19	25	2
40	40	3
63	70	3
12	13	3
29	29	6
69	72	1
77	77	2
67	67	4
39	41	6
57	58	6
11	11	3
3	3	8
7	8	2
42	43	2
11	50	2
2	2	10
33	44	2
68	69	4
53	53	7
58	58	5
47	47	7
61	61	4
24	25	2
8	13	1
51	51	6
32	33	3
65	65	6
18	21	2
19	20	3
39	39	2
45	59	2
58	68	4
64	64	6
30	30	6
4	4	2
48	52	5
38	38	5
70	70	3
21	21	5
6	11	1
59	59	6
22	22	3
50	50	4
42	44	1
19	19	4
1	1	6
72	72	2
53	57	1
27	27	11
42	42	3
58	60	3
9	25	2
40	53	8
5	12	2
55	55	9
38	43	2
32	43	1
59	74	2
39	40	2
58	69	5
51	53	5
4	12	1
6	6	2
1	2	3
11	12	2
69	75	4
66	66	4
14	14	3
43	56	2
31	40	2
22	23	4
32	42	1
34	54	4
13	13	11
44	56	2
75	75	4
29	32	1
11	13	5
35	35	4
20	20	1
25	26	2
49	49	1
62	62	1
2	7	3
8	49	2
47	60	2
41	49	1
18	20	1
12	12	5
9	9	3
38	49	1
7	70	1
58	59	2
45	45	2
42	70	1
44	44	1
36	52	3
21	23	5
43	43	6
21	26	1
7	71	2
45	58	1
31	31	2
25	25	3
4	8	7
70	77	2
35	39	2
30	36	2
52	64	1
56	56	3
57	68	4
10	13	6
57	62	3
0	9	4
63	77	4
38	53	1
49	67	1
49	57	1
49	50	1
36	69	1
70	74	3
62	64	2
33	33	5
50	64	1
43	76	1
69	69	2
47	48	4
32	39	1
43	58	1
36	38	1
9	47	3
3	5	7
5	49	6
66	68	1
68	68	1
31	33	1
45	47	1
54	55	2
30	32	1
44	47	2
70	71	1
5	6	1
1	3	1
25	31	3
24	24	4
39	42	4
52	52	1
61	62	3
74	74	2
36	37	1
49	52	1
41	76	1
41	45	1
60	60	1
56	59	1
38	54	1
34	41	1
44	57	2
52	53	2
0	13	1
4	6	1
28	38	1
34	38	1
8	8	1
0	2	2
57	57	4
60	73	2
45	50	1
50	52	2
54	54	1
70	73	1
5	50	3
57	70	2
6	7	1
60	71	3
41	54	1
40	56	1
73	73	1
47	59	1
4	14	1
36	51	1
27	30	1
5	74	1
43	74	1
46	46	1
29	33	2
49	54	1
11	23	1
26	26	1
59	60	1
8	14	1
8	9	1
7	14	1
72	75	1
20	23	1
64	66	1
67	68	1
73	74	1
8	27	1
