21	42	3
46	67	4
26	30	4
34	34	7
67	67	6
49	49	9
124	124	11
116	116	2
29	29	9
23	23	5
93	95	2
48	48	7
80	80	6
84	88	1
33	102	1
20	21	1
73	74	8
51	52	2
56	56	5
119	119	11
111	111	4
89	89	2
67	123	2
52	53	2
81	84	7
133	133	3
3	3	5
128	128	15
102	104	4
54	54	9
126	130	2
115	116	4
62	63	7
32	93	1
63	65	1
87	107	3
103	117	2
92	92	21
34	66	4
8	8	2
96	99	3
0	118	4
20	20	7
13	17	1
107	107	5
107	108	7
40	51	1
125	125	7
13	13	11
28	29	3
31	31	5
118	118	8
33	34	1
129	131	2
131	131	8
61	62	2
77	77	5
8	9	6
17	17	9
59	59	4
19	19	9
102	102	6
123	123	6
18	18	6
47	47	7
84	85	6
73	73	4
124	133	3
30	30	2
114	114	9
31	109	2
64	64	5
8	11	3
13	21	6
10	10	7
95	95	4
121	121	13
104	104	16
41	43	1
31	64	3
14	15	2
0	1	8
39	40	2
23	40	1
92	131	3
86	87	5
120	121	6
72	122	5
27	99	1
76	77	3
109	118	2
104	106	4
78	92	2
63	66	1
82	82	11
106	107	1
31	66	3
10	12	3
46	46	1
78	78	3
96	96	6
53	53	10
64	66	3
89	101	2
1	1	5
62	62	3
6	6	3
74	77	4
32	58	4
100	100	4
75	127	1
129	129	5
66	73	1
9	11	10
117	117	9
97	97	5
55	55	3
27	27	3
72	72	7
3	40	2
52	52	8
16	16	5
41	42	3
93	93	5
75	75	7
0	0	8
81	98	2
105	105	16
60	61	9
109	111	3
25	25	4
97	98	5
80	82	3
73	122	2
129	130	5
84	106	3
77	79	3
40	41	2
58	62	4
4	4	6
27	30	1
109	109	6
111	112	3
45	116	1
43	44	5
15	23	2
12	22	2
110	110	3
101	101	8
82	90	2
89	123	2
99	100	3
33	100	3
15	44	1
115	115	5
90	127	2
81	90	1
87	125	3
5	7	4
32	68	3
65	65	6
94	99	7
124	125	1
86	86	2
18	19	5
31	32	3
98	98	4
43	45	4
48	51	1
120	120	3
11	11	2
102	125	3
84	102	1
12	31	1
3	8	1
86	117	2
83	95	4
0	39	2
5	23	1
16	17	5
53	55	2
39	39	4
127	127	5
32	32	3
103	130	2
42	42	4
94	95	3
74	74	6
90	90	2
94	94	6
85	85	2
109	124	3
11	12	2
33	43	2
40	42	1
27	34	4
72	73	1
132	132	2
81	85	2
9	10	3
28	34	1
41	61	4
91	92	4
6	28	3
79	79	4
14	14	4
5	5	7
60	79	5
66	68	1
81	89	1
130	130	4
83	84	2
68	86	1
92	120	2
8	30	3
62	114	3
59	60	2
101	131	2
52	57	2
44	51	2
70	70	5
70	77	2
72	96	5
84	95	2
59	114	4
92	93	4
126	127	2
76	76	2
126	128	5
77	88	3
89	90	2
95	96	1
47	94	3
2	11	2
113	113	5
115	117	1
63	63	1
83	89	1
46	47	2
78	97	3
74	98	1
39	44	1
16	18	1
44	52	3
106	106	1
45	45	1
51	51	1
107	123	1
92	96	1
86	92	4
122	122	8
5	16	2
28	28	2
61	61	3
2	2	4
2	12	2
102	103	1
68	71	1
58	59	2
13	25	1
7	8	3
62	64	4
22	42	1
4	19	3
87	112	1
69	71	1
8	13	2
56	60	1
62	72	3
102	122	1
69	69	5
92	97	2
39	57	1
67	68	1
58	58	5
57	57	2
108	118	1
105	106	1
87	87	3
29	101	2
40	40	2
71	77	2
47	117	2
47	93	1
99	99	4
50	50	6
65	80	1
88	88	2
43	43	2
33	33	4
13	29	1
32	44	1
75	80	1
17	21	4
121	131	1
24	24	1
62	71	1
112	112	4
82	85	2
70	76	1
53	62	1
60	116	1
24	25	3
9	46	3
31	60	1
26	26	2
93	117	2
21	31	1
108	108	3
100	101	3
128	129	1
19	71	2
14	16	1
75	76	1
103	125	1
47	84	1
25	26	1
5	19	1
11	13	2
121	132	2
86	97	2
63	82	1
69	112	1
61	67	1
23	24	1
44	44	2
4	21	2
119	126	1
82	83	1
27	118	3
102	111	2
80	116	1
69	77	2
132	133	2
74	87	3
70	71	1
85	91	3
4	22	1
84	84	2
119	133	2
31	34	1
30	33	1
7	13	1
109	112	1
81	86	1
22	22	1
12	12	2
113	125	1
61	63	2
19	37	1
28	93	1
26	118	1
33	103	2
34	128	2
80	125	1
92	94	2
128	133	1
14	26	1
53	54	1
80	90	1
15	16	1
1	2	2
27	50	1
13	23	2
113	114	1
74	89	1
70	78	1
103	103	2
24	28	1
109	110	1
110	114	1
32	65	2
52	65	1
101	117	1
13	49	1
78	79	1
59	61	1
60	60	1
127	133	1
56	57	1
38	38	1
14	18	1
82	86	1
47	111	1
61	115	1
50	63	1
63	81	1
4	28	1
95	107	2
113	122	1
49	53	1
38	40	1
18	20	1
43	57	1
127	128	1
60	62	1
