90	101	3
111	112	3
130	133	3
6	6	3
77	91	3
62	80	3
8	8	5
94	94	3
122	131	2
70	75	1
59	61	3
112	117	2
87	105	7
34	34	4
122	122	2
4	4	8
96	96	4
11	12	9
18	20	3
111	111	2
10	10	6
55	55	6
99	112	3
1	7	2
59	59	6
4	16	6
5	10	4
63	69	2
84	92	2
20	31	2
80	82	2
60	61	1
36	39	1
65	68	2
2	10	5
107	118	1
89	92	7
42	42	1
26	35	4
119	129	3
120	125	4
41	44	1
106	106	5
25	29	2
10	16	2
18	22	6
61	61	2
110	112	3
106	111	4
4	6	3
116	117	4
31	35	2
90	90	1
70	89	4
47	48	2
21	31	2
118	121	3
98	98	2
76	76	2
15	23	3
113	114	2
31	31	6
69	72	1
127	127	9
85	109	1
9	9	3
80	93	2
57	58	2
19	21	3
17	19	1
91	91	1
6	7	7
68	69	2
5	7	2
106	110	1
68	88	2
72	98	2
83	104	4
83	88	1
131	133	1
97	99	3
128	130	5
27	28	1
123	124	2
115	122	1
19	37	4
87	87	2
116	123	2
85	87	2
99	114	2
115	124	2
93	93	2
22	44	1
83	83	2
0	0	6
99	99	9
98	109	2
20	20	9
7	9	3
113	115	2
39	46	1
73	97	1
24	24	12
9	30	5
88	88	8
66	68	5
77	77	4
39	42	2
92	94	5
91	92	3
126	127	6
2	6	1
80	89	1
105	105	2
80	83	2
3	19	2
105	131	2
2	3	5
65	79	4
6	46	1
67	69	2
106	108	1
23	24	5
95	128	1
16	16	1
104	107	1
120	121	1
79	81	2
17	18	6
72	72	4
123	125	5
91	100	5
129	130	4
117	119	3
93	101	3
65	75	5
113	134	1
96	98	2
92	92	11
73	108	4
1	4	1
25	41	2
60	60	6
110	110	1
131	134	2
11	11	10
26	28	1
55	65	2
24	33	2
116	116	2
34	49	1
57	62	4
17	21	2
42	48	2
35	35	6
26	34	1
68	68	4
69	76	3
67	67	2
26	33	2
73	75	3
11	22	4
23	37	3
22	22	2
3	27	5
46	47	3
111	113	1
64	70	3
112	114	4
9	10	1
94	96	1
132	134	4
14	19	3
104	105	1
92	93	5
134	134	10
63	66	6
49	50	1
15	21	3
74	76	1
102	103	3
14	36	1
119	121	4
83	84	2
126	130	2
10	14	2
70	74	1
10	12	1
115	120	1
121	121	4
86	93	1
33	48	3
74	90	4
126	128	2
80	86	2
9	11	2
23	32	1
113	113	3
73	87	1
133	134	1
128	131	3
31	49	2
7	14	1
118	118	2
14	37	2
121	122	3
5	8	2
81	81	2
123	123	5
91	93	2
83	87	4
130	130	3
0	2	3
79	113	1
16	23	2
33	36	1
17	17	4
114	114	4
69	74	2
41	45	1
1	5	2
81	130	2
98	112	2
82	105	1
118	125	1
92	95	3
91	94	1
117	118	1
114	118	2
84	85	2
27	27	1
19	19	2
80	85	1
58	59	3
66	66	1
103	105	2
82	86	1
78	78	4
115	115	3
84	104	4
45	47	1
15	24	3
55	56	2
27	32	1
67	90	4
97	116	4
40	41	2
19	23	1
39	43	2
19	24	2
106	134	1
106	133	1
79	79	1
25	25	2
129	129	2
9	16	4
15	25	1
119	127	3
109	109	4
77	95	1
18	18	2
81	92	1
120	120	2
112	112	2
64	66	2
71	77	2
62	63	3
22	26	1
31	38	1
120	134	3
132	132	5
81	114	3
26	32	2
65	65	4
12	12	3
101	103	4
60	71	2
62	62	2
10	11	2
20	22	1
121	125	1
117	117	2
96	103	1
92	97	1
91	110	1
100	102	2
86	105	1
77	114	3
27	31	2
103	104	1
69	70	1
112	134	4
14	14	1
90	91	2
81	107	2
65	66	1
34	35	2
41	41	1
23	25	2
131	131	1
11	14	2
18	42	4
4	14	1
45	45	2
43	44	2
33	39	1
47	47	2
89	109	1
21	23	4
71	73	2
85	86	2
77	103	1
46	46	1
36	37	3
68	94	2
56	57	3
81	82	1
102	102	2
63	63	2
89	91	1
65	71	3
33	33	1
101	104	1
17	37	2
55	57	5
98	99	1
48	50	1
15	15	2
75	99	1
42	43	1
21	22	4
99	125	2
60	68	1
81	88	1
74	74	2
1	1	1
103	107	2
126	126	1
101	102	2
88	89	2
96	101	1
66	69	1
132	133	1
70	79	1
109	113	1
124	124	2
77	109	1
28	28	3
84	84	1
58	58	2
26	27	1
120	122	1
125	125	1
77	79	1
73	76	1
49	49	2
130	132	1
128	128	1
64	65	3
79	104	1
79	82	1
124	129	1
51	56	1
33	34	1
71	82	1
47	49	1
34	43	2
2	4	1
122	123	2
109	130	1
26	45	1
7	15	1
95	101	1
57	70	1
110	118	1
72	74	1
18	21	1
66	76	1
86	92	1
87	95	1
89	89	1
104	108	1
59	87	1
57	65	1
94	97	1
34	42	1
19	20	1
16	32	1
5	6	1
44	44	1
86	87	1
75	76	1
77	84	2
6	14	1
105	111	1
113	124	1
133	133	1
13	35	1
93	94	2
62	71	1
7	34	1
82	89	1
60	92	1
77	104	1
75	93	1
62	70	2
95	102	1
83	85	2
70	78	2
70	70	1
5	30	1
116	134	1
100	101	1
66	73	2
119	120	1
4	12	1
45	46	1
78	85	1
80	104	2
30	30	1
87	92	1
96	100	1
84	102	1
34	39	1
30	46	1
18	23	1
5	9	1
61	62	1
125	126	1
12	13	1
78	106	1
64	73	1
71	71	1
112	115	1
