205	205	10
224	225	3
182	183	9
163	231	9
58	58	1
52	53	9
140	140	11
80	118	5
108	117	3
3	3	18
175	176	9
30	30	13
113	113	5
230	230	9
235	236	11
21	21	28
235	235	21
205	206	5
37	38	15
101	101	33
105	116	1
179	179	12
101	218	2
115	126	1
129	131	7
166	166	7
212	212	6
148	148	12
2	6	3
113	115	5
144	160	3
116	117	9
27	152	2
133	133	10
136	142	3
124	124	4
48	48	19
182	188	1
74	75	3
169	169	14
128	157	7
191	191	16
139	139	10
224	224	7
173	173	9
43	43	27
34	34	3
116	118	4
60	61	6
237	239	8
232	232	17
125	125	6
79	79	13
19	19	7
172	172	15
180	182	4
214	216	2
144	144	6
116	116	17
193	193	11
152	153	5
62	63	14
171	171	17
211	211	8
207	207	14
71	238	1
98	100	1
198	224	1
27	235	1
0	1	7
106	185	7
83	83	17
10	70	2
163	201	4
72	239	2
194	194	7
153	194	4
168	169	7
157	193	6
76	76	13
61	61	28
74	74	28
151	151	11
225	227	7
208	208	24
49	50	13
203	218	8
108	108	14
201	225	2
55	55	23
135	144	2
29	71	6
124	127	5
238	239	9
133	159	1
38	39	10
170	198	2
82	122	6
228	231	6
197	197	24
192	192	14
38	38	20
96	96	13
219	222	4
71	71	10
8	9	4
207	208	11
153	154	2
33	33	16
72	73	2
5	8	4
166	167	2
2	2	11
129	129	8
69	69	24
141	159	4
82	82	16
37	37	24
32	32	24
183	184	2
141	146	2
217	217	17
60	60	11
47	47	23
99	99	12
241	242	10
66	68	5
122	122	9
241	241	10
155	164	5
15	15	25
115	115	3
226	226	11
9	43	2
75	75	15
101	105	5
44	44	32
169	193	4
154	154	9
82	84	11
54	56	1
64	64	12
68	68	14
52	52	10
109	109	10
115	116	6
147	147	9
239	239	10
39	148	2
203	206	6
118	118	9
114	114	13
143	143	4
200	211	4
175	175	19
153	153	12
164	164	12
32	66	2
167	167	7
106	109	2
140	141	4
6	13	1
180	180	20
78	89	3
66	66	5
20	198	1
179	180	11
176	181	2
98	99	12
41	223	4
57	57	7
165	165	5
184	184	12
1	2	3
206	206	5
168	168	11
42	42	17
68	69	7
234	234	19
16	66	1
45	45	19
36	36	17
140	162	1
187	188	14
199	200	7
27	28	3
227	227	8
107	108	5
219	230	4
4	6	2
80	117	4
77	79	9
73	235	3
157	157	13
84	84	10
152	152	15
49	49	3
44	45	16
46	46	14
163	163	13
32	36	3
122	151	1
53	53	10
81	123	3
100	101	2
70	147	2
30	71	6
174	174	25
20	20	9
77	88	3
161	161	6
54	54	11
178	178	25
242	242	22
203	203	10
85	86	6
8	8	13
150	152	3
13	13	12
232	236	1
222	223	8
231	231	9
128	128	15
41	41	10
25	26	2
63	64	2
2	3	8
156	156	17
9	42	1
70	71	3
2	11	2
37	40	3
122	127	5
189	190	3
166	195	2
54	152	1
11	60	3
29	29	17
125	126	8
181	181	11
33	65	7
209	216	2
6	7	4
201	201	23
236	236	12
220	220	9
213	213	11
133	134	8
14	19	4
16	68	5
199	199	13
18	18	12
61	71	1
102	102	13
109	167	3
26	26	10
233	233	17
20	41	1
170	170	8
20	42	1
232	233	3
78	78	16
198	198	4
222	228	1
176	230	1
190	191	4
117	119	3
180	181	2
181	183	5
163	165	5
151	174	2
117	118	10
215	215	12
160	160	22
153	170	3
238	238	6
9	10	3
62	62	23
139	144	6
138	139	2
123	123	12
78	79	1
53	54	5
117	117	5
88	88	11
229	229	10
105	105	5
5	7	3
214	215	5
161	173	2
144	147	9
145	145	20
101	107	5
188	188	28
160	162	5
71	104	4
159	159	12
181	182	3
81	86	4
115	148	1
240	240	14
47	62	5
22	22	16
31	31	15
144	155	3
104	109	4
141	157	3
27	237	2
17	17	16
59	59	21
140	147	5
189	189	12
19	23	4
55	229	7
234	235	3
149	149	18
65	65	8
23	23	19
52	69	1
150	151	11
106	110	6
216	216	15
146	191	2
15	169	5
86	86	12
124	143	1
15	65	2
162	164	1
103	103	18
237	237	5
223	223	12
176	176	8
75	149	4
135	136	8
51	52	5
140	143	3
191	203	5
146	150	4
196	197	2
9	9	12
27	27	21
42	55	2
204	204	16
3	56	2
80	149	3
136	136	12
187	187	14
74	79	2
146	147	13
219	231	2
196	196	9
2	7	2
0	0	9
21	22	3
25	25	7
13	16	3
105	127	4
10	63	2
55	65	2
84	85	3
17	35	3
126	126	12
219	219	15
4	5	10
56	56	5
63	70	1
147	148	7
204	213	2
230	231	1
96	97	3
158	159	5
25	54	2
92	95	5
121	127	2
4	4	5
157	158	8
146	146	8
216	229	4
99	100	8
134	134	16
182	182	14
6	36	5
18	19	7
162	191	7
85	85	16
51	72	2
191	201	1
77	77	8
164	165	8
202	203	10
2	5	7
35	35	3
144	145	8
134	135	1
200	208	2
15	63	2
130	130	13
9	37	3
202	202	11
191	192	13
138	184	3
174	175	5
42	76	4
49	169	3
219	225	4
7	18	4
201	218	3
2	229	2
102	209	2
14	15	9
228	228	9
29	240	2
142	142	17
209	209	10
13	33	2
43	44	4
61	62	1
42	153	5
15	16	5
195	201	3
46	47	8
7	19	4
17	64	1
160	161	1
141	147	6
31	32	7
5	5	8
16	16	8
220	222	3
85	150	2
150	150	4
67	74	4
183	183	6
27	47	3
106	127	1
158	158	7
121	122	4
100	100	18
150	157	1
39	43	4
153	217	1
59	64	2
152	179	2
72	112	2
210	210	8
10	10	14
184	185	8
2	9	2
176	236	3
0	23	5
177	177	2
218	226	3
206	207	3
7	8	7
218	218	2
40	40	11
42	43	8
12	12	10
48	49	3
89	102	2
139	143	3
122	152	2
201	228	3
122	143	2
32	37	5
39	42	1
165	166	8
80	80	5
141	141	8
39	153	2
142	144	6
111	111	7
170	185	2
0	31	2
33	68	2
228	230	7
119	119	2
1	67	1
39	39	15
221	222	6
85	110	2
104	107	3
71	105	1
112	112	4
140	159	1
83	84	4
195	195	12
203	204	8
209	214	5
127	127	8
170	182	3
190	190	6
50	51	4
81	81	7
84	105	1
233	234	2
89	89	3
80	82	3
28	29	1
81	96	6
122	148	5
51	138	2
221	221	16
80	105	2
24	24	9
161	178	2
155	155	8
96	99	2
185	185	19
237	240	7
15	85	3
81	151	1
114	126	4
18	20	2
105	122	10
204	206	1
52	55	2
163	164	3
186	186	6
57	58	2
49	72	2
67	67	8
154	156	1
153	157	1
123	132	2
155	159	1
138	138	9
23	55	2
62	64	3
114	116	4
35	36	11
155	156	4
126	127	4
51	51	7
163	219	2
95	95	1
57	59	4
104	123	1
137	137	11
217	218	5
159	192	1
115	127	1
1	31	2
212	215	1
30	78	3
136	150	1
85	134	5
41	145	1
118	120	4
31	34	1
103	104	2
223	224	1
69	167	3
135	143	3
162	162	7
67	68	6
20	21	5
6	197	3
64	69	5
107	107	9
80	122	2
55	74	1
38	152	4
199	212	3
74	113	6
28	71	1
127	128	2
6	18	1
49	69	2
156	159	4
171	172	3
50	50	4
16	36	1
33	35	1
227	228	3
121	121	7
15	37	4
187	191	2
184	187	1
6	35	1
1	43	3
30	239	4
170	194	2
55	56	3
73	82	5
216	217	3
120	120	6
30	32	2
69	70	2
213	217	2
108	109	1
21	229	2
149	160	1
73	151	1
56	57	9
14	17	1
58	60	4
122	124	6
98	98	4
135	145	2
5	6	9
219	232	6
172	232	3
89	131	5
75	80	1
112	113	3
214	214	6
193	194	3
58	65	1
35	67	1
63	63	9
15	69	4
29	47	2
225	225	5
212	213	4
7	49	2
7	7	6
81	82	5
168	193	2
139	142	2
186	206	2
15	39	3
106	108	3
30	240	3
135	135	6
160	192	3
154	155	3
85	99	2
123	124	2
19	167	2
86	101	2
86	99	3
118	125	3
204	205	1
13	60	4
10	36	3
11	11	4
40	43	3
227	229	4
209	213	2
222	222	4
124	150	2
80	81	3
220	231	6
140	170	4
190	192	4
14	14	6
163	167	1
196	200	1
21	43	2
128	202	4
88	113	2
215	216	3
215	217	3
1	6	1
229	230	1
17	31	6
10	23	1
166	201	1
121	136	1
111	112	2
170	193	3
106	107	1
74	112	2
70	70	8
66	67	2
70	165	1
209	210	1
113	131	4
60	64	3
186	187	5
168	203	2
123	126	1
20	26	1
0	5	2
110	110	1
239	241	2
28	28	3
75	183	1
15	36	2
105	123	1
105	139	2
202	217	3
162	193	2
49	168	1
175	230	3
58	59	2
3	36	1
82	83	3
27	172	3
39	40	3
73	73	4
161	162	1
7	11	2
30	72	2
201	227	1
33	34	2
105	138	3
81	85	2
44	173	1
106	106	4
107	133	1
2	36	1
72	72	4
152	180	1
139	148	3
161	172	1
96	142	4
116	120	1
162	163	3
42	164	2
24	25	2
113	114	2
122	132	1
138	140	1
188	189	2
149	150	1
201	226	1
198	199	4
105	137	3
148	149	2
148	153	3
74	192	3
232	235	2
122	131	2
214	225	1
185	186	3
178	179	1
223	225	1
95	108	1
14	58	3
11	197	3
104	104	5
201	208	2
144	153	1
101	102	3
79	92	1
105	135	2
69	84	2
210	230	1
59	60	1
188	191	1
115	118	1
26	27	1
107	109	2
26	232	1
221	230	2
22	224	1
85	122	1
124	126	1
131	131	3
205	209	1
86	146	1
172	173	2
69	85	1
19	20	1
23	53	3
141	162	3
1	3	3
152	160	1
236	237	3
102	103	2
24	51	2
25	228	1
1	1	2
171	173	2
84	104	2
43	174	3
76	88	1
34	35	1
80	133	1
197	200	1
167	168	1
15	32	1
17	19	2
163	168	1
22	222	1
153	156	1
9	41	1
120	146	2
131	134	2
129	130	3
202	204	1
160	180	2
184	186	1
156	157	2
231	232	3
38	55	1
16	17	3
2	4	2
172	202	1
79	107	2
151	173	2
130	209	4
88	89	3
155	212	1
54	69	1
70	83	1
209	231	1
76	77	2
103	107	1
46	48	3
39	145	1
12	13	1
155	163	1
98	174	3
37	76	3
30	31	3
233	241	1
3	34	1
19	33	1
225	231	1
27	161	2
12	17	2
136	151	1
145	147	2
209	227	1
61	63	2
9	44	1
1	35	3
208	209	1
28	43	2
228	229	1
200	200	3
174	219	1
49	63	1
38	149	2
20	60	1
99	206	1
225	226	2
181	202	1
22	23	1
205	208	1
50	238	4
29	30	1
3	21	1
136	137	1
74	204	3
81	105	1
240	241	1
154	159	3
237	238	1
106	138	2
208	212	2
183	190	1
76	116	1
234	236	1
163	220	1
9	45	1
48	53	2
37	69	1
239	240	2
64	153	2
175	178	1
198	210	1
52	63	1
125	235	1
219	239	1
135	170	2
76	117	1
153	225	1
47	55	1
99	101	2
205	207	2
147	155	1
151	152	1
44	171	1
5	35	1
155	160	1
201	219	2
177	230	1
221	226	1
104	126	1
150	215	1
7	199	1
85	95	1
139	168	1
74	77	1
28	140	1
113	138	1
138	180	1
86	179	1
202	206	1
22	24	1
121	150	1
129	209	1
11	20	1
186	189	1
79	81	1
176	231	1
65	66	1
118	119	1
128	139	1
187	206	1
227	230	1
140	142	2
23	24	1
64	65	1
153	177	1
170	172	1
208	210	1
55	58	1
220	223	1
3	20	1
196	216	1
49	54	1
54	60	1
