129	129	4
94	95	3
99	99	7
33	33	6
124	128	3
72	73	3
86	88	8
117	117	9
85	96	4
69	69	7
81	81	11
149	149	3
30	30	4
66	66	3
28	29	13
121	121	11
8	8	5
40	40	15
25	25	6
12	12	7
68	68	3
50	51	1
123	123	1
8	23	10
5	5	3
38	38	5
143	143	6
137	137	6
49	49	3
135	135	3
102	102	2
94	94	17
134	134	5
98	99	1
41	41	4
18	18	19
130	130	9
73	73	9
131	131	6
154	154	3
108	108	9
3	3	2
17	18	6
51	51	2
88	88	3
52	64	8
66	67	3
124	124	9
56	57	7
80	81	3
133	133	9
29	29	8
22	23	2
19	19	9
133	147	6
21	21	7
105	105	9
107	108	8
82	85	2
128	128	4
118	119	1
80	80	2
28	28	8
29	31	2
11	38	3
67	69	2
102	122	2
46	46	3
101	102	8
115	115	5
132	132	9
32	32	3
96	96	9
119	119	8
77	77	4
39	39	3
13	14	5
16	16	2
109	110	4
84	84	1
14	14	10
140	140	4
47	51	3
150	150	6
34	34	4
82	84	5
124	135	5
13	13	7
126	128	5
24	24	5
101	101	5
65	65	3
118	149	2
38	39	2
144	144	4
148	148	3
119	120	5
48	48	3
63	64	2
55	57	4
68	69	2
30	78	2
83	84	3
36	36	7
80	105	2
67	67	8
63	63	5
7	7	3
138	138	3
67	78	4
4	6	5
75	75	2
83	83	6
103	103	6
122	122	4
125	126	1
110	110	9
17	17	5
57	57	7
98	151	1
130	131	3
74	74	2
21	22	3
23	23	3
132	134	1
114	114	8
9	9	3
99	146	2
74	75	3
142	142	3
42	43	2
47	48	1
139	139	5
37	37	6
64	64	5
34	35	1
146	146	7
4	4	1
106	107	1
141	141	11
76	77	2
153	153	5
35	35	4
127	127	2
26	37	2
152	152	3
94	97	3
3	21	2
70	70	3
145	145	3
3	4	3
111	111	4
139	141	2
31	32	1
97	153	2
15	15	4
142	143	2
33	42	6
107	107	2
86	89	2
20	20	3
100	121	3
103	104	3
97	99	2
129	130	4
19	20	1
53	53	3
139	146	1
103	147	1
27	27	5
86	87	3
112	112	3
100	135	2
23	35	2
98	146	4
85	85	3
62	64	1
30	65	2
54	54	1
28	53	2
42	42	5
75	76	4
97	97	7
146	151	1
123	124	5
90	90	1
71	71	6
31	31	4
124	125	3
97	150	1
103	122	2
2	2	3
8	33	2
56	63	2
109	109	4
79	79	3
6	8	1
75	81	1
100	100	1
10	39	2
33	34	3
134	135	3
41	42	3
56	56	2
111	112	2
8	34	1
118	118	5
104	117	2
80	113	3
37	40	1
92	141	1
19	50	1
96	100	3
23	36	1
34	44	1
48	50	1
123	128	2
2	3	4
20	22	2
11	11	3
147	147	1
26	26	1
98	98	6
54	86	1
142	145	2
36	37	2
45	45	1
101	121	1
143	145	1
44	44	3
148	150	2
62	66	3
14	16	3
113	114	2
104	104	1
113	113	1
143	144	2
115	116	1
106	106	1
49	50	1
104	122	1
128	135	1
43	43	1
131	132	1
87	143	2
86	86	4
7	47	2
8	9	1
74	78	2
52	53	1
97	98	1
82	82	1
19	48	3
43	44	2
31	76	1
24	25	2
93	96	1
140	141	1
101	124	1
136	136	2
151	151	1
25	35	1
26	30	1
42	44	3
37	38	1
4	20	1
130	133	1
55	56	1
128	129	1
23	33	1
55	88	1
15	16	1
30	31	1
9	20	1
85	86	1
95	95	1
77	79	1
72	72	1
