79	102	2
121	121	14
106	106	4
44	44	8
169	169	6
151	151	5
140	140	10
14	15	6
49	50	3
6	7	4
123	123	6
52	56	4
21	28	4
10	10	9
143	144	1
112	112	9
18	18	8
28	28	9
84	85	3
102	103	3
76	76	3
111	111	11
164	164	13
141	141	6
57	58	2
20	23	3
169	170	2
6	6	17
89	90	5
56	56	6
21	22	3
43	43	6
123	134	1
19	24	2
79	79	4
94	95	2
47	48	3
147	147	4
154	154	9
6	17	3
78	78	3
5	5	18
52	52	11
15	15	8
167	169	4
136	136	6
145	145	2
84	99	5
111	151	6
92	92	3
67	68	4
11	11	8
111	142	5
39	41	9
76	77	4
162	163	3
53	53	11
166	169	2
86	86	3
35	36	1
57	57	3
82	82	8
155	156	2
38	38	7
142	143	3
55	56	3
161	161	8
77	77	1
4	4	4
127	129	3
117	117	3
24	24	5
46	46	7
1	2	3
66	66	7
113	113	8
157	157	10
150	150	7
162	162	3
114	115	3
69	69	1
111	112	4
100	100	5
14	16	2
107	108	10
23	23	6
137	161	1
11	168	2
87	87	5
95	95	5
142	142	7
37	38	4
12	13	2
122	122	5
117	118	4
156	156	6
39	39	4
14	17	5
146	146	7
2	2	8
54	54	7
81	81	4
48	74	4
1	52	2
33	34	6
34	34	3
134	147	1
166	166	3
55	169	1
8	8	3
16	16	4
132	132	12
133	133	2
106	107	2
158	158	6
101	105	2
102	102	2
167	170	3
96	98	2
72	72	11
167	167	3
123	124	2
15	16	1
107	109	6
149	149	7
118	118	2
80	80	7
153	156	2
98	99	2
27	27	2
161	162	3
85	85	2
144	144	4
163	163	2
124	124	6
15	28	2
151	152	2
108	109	4
116	116	4
155	155	4
150	151	3
4	6	3
88	89	3
79	80	5
82	83	1
20	22	1
166	168	3
81	82	2
127	128	6
153	153	6
20	21	5
50	75	1
129	129	2
55	55	2
25	25	9
72	104	1
114	114	3
97	99	3
158	159	1
148	148	10
98	98	3
4	5	2
54	55	2
137	137	2
16	18	2
105	106	1
64	81	3
93	93	4
95	96	1
162	165	2
18	19	1
12	163	3
168	168	4
48	48	1
75	76	1
44	85	2
83	84	3
26	27	1
146	147	2
143	143	7
133	134	2
130	131	2
65	65	3
159	159	1
164	165	4
129	130	2
166	167	5
7	7	7
125	125	3
110	157	2
50	50	8
91	91	11
91	97	2
87	100	1
90	92	3
88	88	3
110	111	8
33	33	3
142	144	4
64	69	1
45	93	1
112	130	2
38	39	1
74	104	2
47	47	5
91	93	1
76	100	3
74	75	3
70	70	2
107	107	2
71	71	7
3	162	1
109	109	1
112	129	3
108	108	3
68	68	2
12	12	6
41	41	6
110	110	3
9	9	4
130	130	1
154	156	3
73	73	1
87	88	1
134	146	3
74	74	7
63	63	9
104	104	2
121	122	4
139	140	2
36	37	1
148	160	3
69	70	5
14	168	2
168	169	5
3	168	1
45	46	1
26	26	2
157	158	1
34	35	3
72	112	1
46	57	1
36	36	2
83	83	2
11	12	1
63	87	1
117	120	1
64	68	1
112	131	1
53	168	1
14	14	1
23	24	3
73	105	1
37	37	5
69	102	3
87	90	3
22	22	1
127	127	2
34	42	2
135	147	1
165	166	3
111	131	2
2	50	2
99	99	3
101	103	1
85	99	1
105	105	2
119	119	1
144	145	2
62	62	1
5	13	2
97	97	2
84	84	3
35	35	1
124	132	1
3	3	2
117	121	2
21	21	1
113	114	5
27	28	1
143	145	1
94	94	4
126	126	1
13	18	2
117	119	2
39	40	1
21	24	1
165	165	1
113	115	1
73	104	2
3	164	1
134	134	2
120	120	2
76	87	1
134	149	1
149	154	3
72	130	1
52	53	1
20	20	3
63	79	1
52	55	2
139	139	3
131	131	1
7	8	1
49	49	1
137	160	1
89	89	2
147	148	2
128	129	4
45	88	1
16	17	2
71	72	1
44	46	1
160	160	1
9	10	1
40	40	1
53	54	2
133	149	1
115	115	1
51	55	1
159	160	1
135	135	1
44	45	2
100	103	2
63	78	1
121	138	1
118	120	1
13	17	1
135	148	1
0	51	1
136	138	1
110	149	1
0	1	1
67	67	1
93	95	1
79	82	1
1	1	1
63	64	1
115	145	1
82	85	1
25	26	1
17	18	1
109	110	2
5	6	1
163	165	1
103	103	1
