193	194	5
195	195	1
182	182	3
52	52	10
231	231	7
218	218	2
88	88	2
151	153	2
114	116	1
65	66	6
33	33	4
2	2	4
202	202	7
213	214	6
80	93	1
49	72	4
117	118	4
193	193	8
244	244	4
32	32	3
104	184	1
9	9	5
112	112	4
81	81	9
225	225	6
242	242	6
75	77	3
114	114	5
25	25	2
49	50	7
224	224	2
78	86	5
175	176	2
217	217	5
154	154	3
88	94	2
157	157	4
16	16	3
113	155	1
150	150	3
11	11	11
222	222	5
54	55	4
23	23	4
60	60	4
10	10	12
178	179	1
53	53	4
29	31	1
37	38	1
171	177	3
188	188	6
16	214	5
205	205	3
209	210	7
28	28	9
232	232	2
95	98	2
196	197	1
36	36	7
185	187	3
84	85	5
60	61	3
79	84	3
68	68	6
57	61	1
165	166	2
79	79	3
219	219	2
80	81	2
166	167	2
29	30	2
162	179	6
215	217	1
43	43	4
75	75	10
98	98	3
183	184	2
50	239	2
160	160	2
16	32	1
0	0	1
211	211	6
77	77	6
169	172	3
194	194	1
1	25	1
85	85	6
48	80	5
64	71	8
61	238	3
156	156	3
159	159	3
73	73	6
171	171	1
181	181	3
42	42	2
76	78	1
75	76	2
57	58	2
44	44	13
56	57	4
58	59	4
120	144	4
81	83	2
233	233	4
223	223	5
244	248	1
238	239	2
74	75	3
109	186	5
119	120	1
18	18	3
107	107	5
163	163	5
84	93	5
27	150	1
21	21	2
208	208	2
158	160	1
246	246	6
203	203	4
185	185	4
105	105	5
201	201	10
8	52	2
187	188	7
167	167	9
248	248	2
73	85	3
45	46	2
64	64	3
87	93	4
49	49	3
106	106	4
15	232	2
155	155	4
238	243	2
171	176	1
1	1	4
71	71	6
67	67	3
183	183	2
89	101	1
48	98	2
236	236	4
205	212	2
214	214	1
50	50	2
177	177	3
231	232	1
229	230	2
191	191	9
42	43	6
247	247	8
209	213	1
45	45	5
115	116	2
29	29	8
204	204	2
39	39	2
46	46	1
8	8	5
74	74	4
41	41	3
97	99	2
66	67	2
170	171	1
66	66	3
235	235	1
215	215	2
170	178	3
8	9	4
7	7	3
47	47	7
146	146	1
64	67	2
6	6	6
243	243	1
26	26	2
192	194	2
188	189	2
5	5	2
236	244	2
203	224	2
107	118	1
101	186	2
226	226	3
104	104	3
95	95	2
208	209	2
202	205	2
12	14	3
221	221	3
233	234	3
215	247	3
34	34	2
178	178	3
106	109	1
61	61	1
116	117	2
24	24	2
146	147	2
108	182	2
105	185	1
73	74	1
84	84	2
55	57	3
34	35	4
153	153	1
109	109	4
159	180	2
35	35	2
114	162	2
48	48	1
216	220	1
82	82	2
52	53	5
81	82	1
47	51	1
30	30	4
37	37	3
187	187	1
15	16	1
21	31	1
120	120	1
169	169	1
107	109	1
238	238	4
174	174	1
210	211	1
90	90	1
170	170	2
119	119	2
35	44	1
145	145	2
209	211	1
10	41	2
76	77	1
216	216	6
6	7	2
54	54	2
22	22	2
89	89	1
74	85	1
49	248	1
188	207	1
176	176	2
82	95	2
57	240	2
113	114	1
36	40	3
173	192	1
181	185	1
164	165	1
242	243	1
33	35	1
51	51	1
117	117	2
40	40	4
116	116	2
195	206	2
88	90	1
100	100	1
15	236	1
181	182	1
180	180	2
245	246	1
197	203	1
56	56	2
190	190	1
82	96	1
185	186	1
111	152	1
111	156	1
35	45	2
153	154	5
6	8	1
27	27	1
49	79	1
77	92	1
172	173	1
70	70	1
91	91	1
164	164	1
210	210	2
159	181	1
8	47	1
31	31	2
99	104	1
19	19	2
15	15	1
105	184	1
105	109	2
179	179	1
88	89	1
165	165	1
186	186	1
210	242	2
8	53	1
198	199	1
59	59	1
225	235	1
153	156	1
225	226	1
227	227	2
214	224	1
213	213	3
20	20	1
199	199	1
81	99	1
218	219	1
192	192	1
