105	108	3
73	73	6
95	96	5
21	21	8
98	99	3
12	14	2
73	95	2
30	31	4
110	110	5
24	24	6
121	121	10
135	141	8
13	15	6
145	146	5
41	41	2
57	76	1
70	70	11
84	84	9
144	144	2
17	17	6
31	31	7
84	86	2
101	102	2
23	24	2
27	28	1
77	77	3
16	16	3
116	116	7
153	154	1
65	65	5
104	105	2
65	67	7
9	10	7
43	44	4
13	14	2
120	125	5
141	141	3
47	47	5
136	136	7
16	17	6
72	72	2
105	105	13
96	96	6
20	20	5
124	124	1
139	141	1
52	55	4
133	133	7
115	115	1
55	55	2
66	66	3
114	114	8
150	150	6
119	119	5
121	125	1
38	38	8
54	54	7
96	97	7
88	122	2
100	100	4
91	93	2
123	125	1
113	113	10
149	150	2
122	122	7
22	23	7
134	134	7
29	29	7
68	68	5
154	154	3
112	117	3
53	54	2
131	139	3
128	128	2
135	135	7
96	98	3
85	85	2
112	112	4
50	50	8
119	134	4
47	48	5
18	18	13
28	28	5
92	94	2
129	131	2
147	147	8
78	83	2
25	25	3
32	32	2
69	70	6
33	64	2
108	109	2
23	23	4
153	153	8
123	138	2
20	39	3
83	83	4
103	103	2
111	111	7
39	39	1
142	143	1
81	81	4
97	97	13
120	137	3
117	117	8
131	131	8
85	86	4
140	141	2
131	132	7
10	10	4
106	106	8
19	19	12
118	118	9
102	102	5
51	102	3
99	100	4
107	107	16
27	29	5
13	16	1
45	52	1
118	133	2
129	129	5
48	115	1
13	13	9
11	11	9
82	82	1
142	142	6
72	123	2
125	125	3
83	84	3
127	127	5
17	18	1
21	22	6
41	46	6
15	16	1
93	95	1
120	120	4
37	37	8
53	76	1
36	64	3
33	35	3
73	99	2
151	151	2
135	137	4
69	69	4
10	30	1
146	146	1
3	5	1
86	86	1
112	113	4
76	99	2
44	44	4
139	140	1
34	35	1
76	77	5
45	45	1
35	36	1
119	120	2
41	43	1
108	108	5
27	27	2
130	131	4
119	122	1
132	133	2
53	53	1
105	106	1
22	22	5
57	57	1
139	144	3
77	78	2
109	109	1
152	152	2
17	23	2
33	45	2
90	124	4
15	15	4
13	23	2
48	48	4
67	103	2
123	133	3
88	88	3
46	46	5
137	137	4
40	40	3
49	49	3
29	46	3
71	95	1
99	99	1
42	42	1
12	12	5
124	125	1
29	30	1
126	126	2
42	43	2
65	66	4
14	14	3
68	105	1
99	101	1
63	63	2
147	149	2
130	130	4
80	80	1
78	97	1
93	94	4
106	107	4
42	45	2
127	138	1
94	94	2
8	8	2
104	130	1
28	29	3
93	93	3
103	105	1
33	36	1
81	82	1
98	98	3
141	144	1
140	142	3
129	130	1
64	64	2
78	96	1
132	145	1
30	41	1
138	138	1
33	43	3
107	108	3
13	41	1
78	85	2
77	83	2
7	7	2
103	106	2
74	75	1
46	51	3
134	135	2
34	36	1
109	130	1
49	50	2
136	137	4
2	2	3
128	130	1
68	72	1
67	67	2
139	139	4
14	16	1
11	12	2
38	39	2
65	101	1
72	73	1
71	73	1
62	62	1
9	40	1
149	151	2
81	85	1
148	148	2
81	83	3
10	40	2
26	28	1
82	84	1
121	122	1
105	129	1
78	78	2
123	123	2
149	149	1
77	97	1
74	74	1
31	35	1
131	146	1
4	32	1
34	34	3
68	104	1
33	33	1
74	101	1
43	51	1
103	109	1
152	153	1
101	101	2
20	40	1
24	25	2
11	42	1
77	79	2
53	75	1
58	58	1
145	148	1
67	68	1
6	7	1
95	97	1
30	30	1
79	83	1
135	138	1
40	41	1
67	105	1
53	103	1
67	73	1
26	26	1
12	15	1
19	20	1
