38	38	11
108	124	2
106	112	1
178	178	7
6	6	10
109	109	9
34	34	13
54	54	6
9	9	7
79	79	10
127	127	7
18	18	8
193	194	2
85	89	2
106	151	1
12	16	1
72	72	9
48	155	5
87	90	1
53	54	4
197	197	3
123	124	2
27	28	2
88	88	3
134	134	9
53	53	18
149	149	12
87	89	2
145	146	2
0	0	3
55	58	3
45	141	6
25	25	11
136	136	13
2	2	7
70	71	5
144	144	3
153	153	5
140	143	5
152	155	1
121	125	4
99	99	3
20	20	9
121	121	4
98	179	5
21	21	6
54	55	5
47	47	8
180	193	4
86	89	2
143	143	10
24	116	1
106	190	2
130	130	4
96	97	3
46	47	6
89	157	4
17	17	9
128	129	2
76	76	10
75	75	2
129	129	10
24	31	4
176	176	10
154	154	3
128	128	8
19	19	5
32	126	1
156	156	11
116	116	11
8	8	5
31	31	11
1	33	1
172	172	8
113	115	4
48	48	13
135	135	11
9	10	6
159	159	7
169	169	8
139	139	9
10	12	2
136	140	2
1	3	6
122	122	11
108	108	9
111	151	1
183	183	4
18	26	8
73	73	7
114	114	6
180	182	4
68	68	10
151	151	6
196	196	6
80	80	12
86	86	9
35	35	2
14	14	8
42	42	13
139	140	3
77	77	9
123	123	9
68	69	2
94	94	11
192	192	8
29	29	5
26	27	4
155	155	9
186	187	2
127	139	1
55	55	16
45	70	2
184	184	13
102	116	1
168	168	3
161	161	8
101	111	3
151	152	1
44	50	4
131	175	2
113	113	8
71	71	10
194	194	11
17	36	3
168	169	6
49	49	6
130	131	3
188	188	11
138	138	1
42	43	3
10	10	3
36	37	7
81	81	11
153	161	2
112	113	6
55	78	1
64	64	8
72	73	5
184	187	2
59	60	7
172	193	1
32	33	1
175	175	8
115	167	2
62	78	3
1	1	6
5	7	3
165	167	3
104	129	2
39	39	3
32	32	11
134	176	1
58	58	3
94	111	2
124	125	3
11	47	2
63	63	6
170	181	2
150	151	5
15	15	3
45	45	12
149	169	1
4	45	2
0	42	3
76	77	2
46	46	3
65	65	8
111	111	12
6	7	2
93	94	2
25	26	6
24	24	2
89	89	9
102	115	2
28	29	5
28	28	11
157	157	12
66	66	3
43	43	2
120	122	1
115	115	10
145	145	3
146	146	3
63	113	5
33	33	9
82	84	4
22	22	3
100	100	6
4	4	5
193	193	10
51	53	3
178	181	1
107	107	6
84	84	5
119	120	7
43	44	1
98	98	4
16	84	1
37	37	4
74	74	12
176	177	1
175	176	5
27	172	1
51	52	5
2	59	2
59	59	6
67	67	7
5	67	1
63	76	2
117	117	7
95	95	7
11	11	7
19	30	2
3	35	1
13	15	2
3	3	3
84	85	3
62	62	7
181	181	13
106	106	6
170	170	4
131	131	10
30	30	8
18	85	2
171	171	1
124	124	10
119	119	1
52	52	11
5	6	2
151	153	2
133	133	5
88	89	3
144	145	6
187	187	6
50	50	4
142	142	6
150	150	3
102	148	1
115	116	1
85	85	6
14	176	1
34	36	1
65	77	3
27	30	1
87	87	3
155	187	3
60	69	4
4	8	1
0	33	2
96	96	6
112	112	7
126	130	2
50	52	3
141	141	9
13	13	14
140	152	2
67	68	4
5	58	1
73	80	2
158	158	1
62	63	6
153	155	2
103	103	1
17	172	2
114	116	2
111	134	3
131	134	2
118	118	6
44	44	3
104	104	3
8	10	2
111	125	3
118	119	1
194	195	2
60	60	4
12	31	1
100	101	3
149	150	2
147	171	2
95	100	1
29	150	2
187	188	2
6	8	1
190	190	2
185	194	2
89	142	3
65	78	3
103	104	1
67	77	1
182	182	5
19	20	2
12	196	3
163	163	5
105	105	7
76	83	1
33	34	3
27	27	2
24	93	1
57	57	1
149	151	1
64	65	6
174	174	8
154	155	2
155	156	2
140	140	4
148	174	2
90	90	4
174	176	2
196	197	2
78	78	8
72	86	5
96	99	3
34	35	2
74	75	4
183	184	1
108	112	1
41	54	1
117	118	4
99	104	2
58	59	6
24	25	1
130	142	1
98	99	2
79	80	1
14	17	3
83	83	5
166	166	2
40	101	2
188	189	4
142	144	1
57	58	3
97	98	3
40	40	3
121	122	10
110	111	3
41	42	5
173	191	1
168	170	1
56	70	1
18	150	1
191	192	3
106	107	2
173	174	3
69	69	10
174	175	8
143	160	1
23	23	2
108	109	2
132	132	4
173	173	5
97	97	3
64	69	1
81	82	4
143	145	3
156	157	2
171	172	2
161	163	8
146	150	3
114	168	1
105	142	1
27	36	1
147	160	1
180	180	3
156	158	3
19	40	3
56	57	1
101	101	3
54	65	3
101	112	4
184	188	2
132	134	3
25	27	3
42	141	5
56	123	1
78	79	3
150	158	1
159	160	1
59	62	2
147	147	2
114	115	1
131	132	3
30	32	1
186	186	5
158	159	3
80	98	2
51	51	3
90	110	2
49	50	3
66	80	1
68	80	2
5	5	10
45	46	2
23	116	1
170	171	1
126	126	6
29	30	3
141	142	1
38	60	2
34	159	1
179	179	3
160	189	1
2	35	2
166	187	1
116	173	2
172	173	2
25	30	1
113	114	2
59	61	1
4	37	1
195	196	2
94	100	1
158	187	2
83	84	3
156	159	1
39	40	4
72	77	1
143	147	1
163	177	1
150	153	2
148	148	3
61	61	2
101	118	3
98	162	1
41	41	1
118	120	3
16	148	1
162	162	2
95	96	1
160	160	6
70	121	1
60	61	2
151	164	1
173	185	3
36	36	1
126	127	2
137	138	2
175	185	2
109	110	3
189	189	4
70	72	1
21	23	1
189	190	2
17	94	1
79	90	2
28	192	1
48	49	3
103	107	1
123	127	3
50	53	1
165	165	4
136	147	1
55	56	2
179	180	1
98	132	1
16	60	3
94	101	1
105	153	1
50	54	1
1	2	1
62	65	1
127	128	1
16	16	5
10	37	1
126	175	2
56	56	1
174	178	1
76	89	2
105	131	1
112	137	1
98	129	1
0	23	1
125	125	2
47	48	3
61	155	1
66	79	1
2	3	2
107	108	2
108	111	1
10	11	1
76	78	3
15	181	2
118	162	1
28	166	1
89	90	2
138	141	2
31	32	4
137	137	3
61	63	4
177	177	2
41	64	1
0	34	1
136	138	1
146	147	1
110	123	1
64	78	2
44	45	1
37	38	1
43	141	2
45	56	1
156	196	1
78	80	1
112	118	1
9	134	1
132	133	2
1	34	1
21	35	1
154	156	1
190	191	2
12	23	1
99	154	2
81	89	2
6	102	1
40	41	1
123	168	1
191	191	2
181	182	1
0	2	1
0	1	1
120	120	1
167	167	4
7	8	1
13	14	1
12	12	2
182	184	3
102	102	2
81	83	1
120	126	2
164	164	1
59	70	1
19	62	1
87	193	1
110	110	1
87	88	2
75	76	1
33	35	2
157	158	1
43	135	1
109	111	2
113	116	2
148	168	1
170	182	1
76	86	1
111	123	1
160	182	1
147	173	2
82	82	1
4	6	2
103	152	1
113	137	1
66	111	3
62	88	1
40	78	1
39	129	2
17	18	1
134	139	1
121	161	1
26	26	1
19	38	1
47	60	1
60	62	2
19	21	1
66	67	1
81	109	1
39	119	1
37	40	1
21	22	1
14	186	1
72	141	1
192	195	1
