47	47	7
14	43	2
112	112	5
12	13	5
136	136	2
124	124	9
152	156	3
131	155	3
129	129	6
155	156	5
2	2	5
70	70	7
33	35	2
36	36	1
12	12	1
40	41	1
158	158	4
43	43	9
90	90	8
31	31	7
97	97	3
103	104	2
115	115	7
82	83	2
109	110	7
25	25	2
125	126	5
148	150	2
26	26	6
71	71	9
103	105	1
81	82	7
19	19	4
89	89	1
25	26	5
41	41	3
105	106	3
140	141	1
69	69	2
104	132	1
91	94	3
96	97	2
9	9	5
130	130	17
62	62	2
22	23	2
10	11	1
92	93	4
68	84	2
39	39	12
127	127	6
103	103	8
109	111	1
38	38	6
64	70	5
150	151	4
63	68	2
90	100	4
63	63	1
63	64	5
132	132	5
133	133	4
29	29	5
78	79	1
17	31	3
22	22	5
122	122	4
86	86	3
4	5	3
148	148	10
124	125	4
56	56	4
23	23	4
84	84	4
79	80	2
145	145	5
146	147	7
150	150	6
157	157	3
64	64	3
82	84	1
135	135	6
92	92	9
77	77	1
68	68	8
3	3	4
41	42	4
35	37	2
79	79	6
23	25	2
34	34	2
110	110	2
28	28	5
19	20	6
140	143	2
104	105	6
156	156	3
119	119	2
77	116	2
8	8	1
99	101	3
107	107	1
1	149	4
151	151	5
53	53	3
10	15	2
30	30	5
51	51	3
144	144	2
21	29	2
104	104	4
100	100	7
20	20	5
13	38	3
45	45	4
51	87	1
1	1	1
8	9	7
135	136	3
93	93	8
16	16	2
153	155	1
133	155	4
137	137	7
77	78	4
96	96	3
105	107	2
65	66	2
136	145	5
67	68	2
111	112	4
17	17	1
108	108	3
15	15	4
105	105	2
94	94	1
45	47	3
120	120	1
15	16	3
33	33	2
25	28	5
109	109	6
48	48	6
44	44	2
3	4	4
49	50	1
18	19	3
91	113	2
76	80	1
68	70	1
24	25	2
73	77	3
69	70	2
11	11	3
75	75	4
31	32	4
105	116	2
139	139	2
24	24	2
117	117	5
107	115	2
129	132	1
5	5	1
75	77	3
100	102	1
125	125	1
80	80	3
145	148	2
78	78	6
68	69	4
128	129	3
48	50	3
98	98	1
32	34	1
7	8	3
101	101	4
55	55	3
50	51	1
18	18	5
149	149	6
54	64	1
38	50	1
147	147	3
147	148	1
20	30	1
112	115	1
113	113	7
123	123	3
87	87	3
126	131	2
36	37	1
13	40	3
94	99	1
100	101	1
52	52	1
57	71	2
105	120	1
138	138	6
32	37	2
154	155	3
7	7	5
38	51	4
154	154	2
54	55	1
71	72	1
43	87	1
72	101	1
56	95	3
66	66	2
107	108	2
63	70	1
40	40	2
52	53	3
126	126	2
42	42	2
138	150	2
114	116	1
103	107	1
121	122	5
152	152	3
118	118	1
67	67	1
32	32	1
146	146	2
46	46	1
125	131	2
4	4	1
51	52	2
83	83	1
104	107	2
72	72	1
1	2	1
114	114	1
0	1	2
41	89	1
33	34	2
51	53	1
55	56	2
110	111	1
145	149	2
85	152	1
93	97	1
49	49	1
76	104	1
95	95	2
107	116	1
38	39	1
2	42	1
133	157	1
74	102	2
20	25	1
99	99	1
70	71	1
57	61	1
85	85	2
102	102	1
54	54	1
14	14	1
0	0	1
9	10	1
131	131	1
139	148	1
