187	187	2
82	130	2
42	42	3
186	187	8
79	112	2
122	151	1
108	108	2
111	111	6
80	143	3
14	36	3
160	160	11
133	133	5
53	53	3
1	12	2
142	142	6
19	19	6
164	164	4
184	184	8
1	2	4
113	177	2
65	117	1
18	21	1
63	155	2
66	66	7
136	136	7
40	42	3
13	39	1
102	102	4
114	114	4
15	15	11
168	168	10
45	45	2
92	92	4
90	91	1
141	141	3
158	158	10
118	156	1
44	91	1
76	84	3
66	67	1
188	190	1
16	16	5
105	106	4
5	82	1
75	105	5
174	178	5
126	127	5
124	167	3
73	73	2
1	1	2
68	147	1
6	48	2
81	82	2
76	76	5
134	134	9
172	172	2
122	122	3
187	188	1
152	152	3
82	111	3
90	90	3
148	148	7
15	38	3
129	172	2
175	175	6
70	70	2
96	100	1
5	5	5
74	148	2
173	173	6
85	85	14
101	102	4
106	152	1
0	0	2
104	104	7
36	37	1
11	11	8
166	171	1
8	44	5
183	183	2
162	162	4
23	24	2
77	181	1
55	75	2
167	167	5
149	186	1
48	48	6
58	58	5
2	3	1
170	170	9
146	155	3
79	139	2
78	134	2
146	146	3
60	60	5
166	166	4
109	109	6
2	2	1
17	17	4
34	34	2
35	35	4
58	61	3
144	144	8
79	110	2
151	170	1
34	35	2
10	10	1
37	37	2
74	74	5
83	87	1
96	96	4
80	118	2
25	25	8
59	59	4
28	31	2
103	103	6
189	189	5
107	108	3
110	110	4
49	91	1
53	134	2
105	107	2
169	169	6
112	112	3
28	35	1
139	139	2
176	176	2
23	37	1
67	68	2
149	150	2
86	103	2
70	73	2
58	71	1
130	170	1
23	78	1
179	179	8
156	170	1
160	179	1
28	28	6
71	72	4
65	65	5
186	186	5
177	178	2
69	70	2
43	43	5
153	153	4
88	161	2
28	29	3
130	138	4
116	116	3
188	188	2
9	10	3
109	117	2
71	71	2
143	143	1
54	54	1
7	7	4
66	98	2
39	40	2
56	56	10
0	84	2
177	188	1
163	165	3
14	14	2
89	106	1
100	100	1
121	121	4
4	39	1
13	38	1
137	139	4
10	61	3
164	165	2
146	168	1
54	64	2
185	186	1
137	182	2
67	67	7
89	89	4
151	151	4
19	38	1
170	184	3
74	131	2
93	106	2
80	80	4
181	182	3
86	108	2
141	142	5
136	137	5
137	137	2
31	32	1
161	168	4
118	118	2
87	116	2
19	36	1
130	152	3
10	47	2
93	93	4
94	153	3
30	30	2
140	141	1
22	23	2
126	126	6
115	159	2
155	168	2
66	97	2
161	161	6
64	65	1
74	77	1
109	112	1
139	159	3
157	158	2
23	23	4
73	180	1
92	176	1
108	118	2
117	117	1
122	123	6
72	73	4
138	138	3
86	86	4
52	52	2
154	154	2
24	24	2
4	22	3
155	167	2
116	118	2
54	55	1
124	128	1
63	66	3
104	105	1
106	106	5
8	21	2
182	182	5
130	131	2
156	167	1
166	167	2
174	174	3
33	33	3
187	189	1
102	157	1
99	99	2
71	145	1
62	63	3
119	119	3
12	13	3
178	179	3
97	97	2
63	63	4
145	145	3
75	75	5
87	88	1
134	135	5
27	27	1
163	163	1
75	76	2
22	22	2
129	129	7
128	129	2
159	160	1
101	152	1
83	130	1
36	36	6
182	183	2
47	47	2
96	136	1
140	140	6
180	180	1
87	89	4
117	152	2
147	147	3
102	140	1
87	87	2
135	136	1
53	54	1
124	124	4
168	169	3
75	88	1
149	185	1
162	163	1
10	48	2
78	78	2
21	22	2
20	20	3
129	138	1
59	65	1
116	122	1
115	117	1
82	82	1
127	128	6
32	36	1
19	20	5
71	77	6
81	84	5
156	156	1
161	166	5
53	78	3
90	94	1
93	146	1
181	181	1
22	26	1
108	111	1
82	109	1
39	39	1
61	61	1
68	110	1
83	84	3
106	113	1
26	35	1
80	117	1
135	135	2
91	91	2
173	174	2
18	32	2
114	181	5
55	141	1
20	23	2
115	179	1
109	129	1
116	121	1
92	113	1
30	32	1
176	178	1
170	187	3
83	118	2
97	98	3
82	110	1
29	29	1
68	150	3
150	150	2
57	82	1
84	85	1
123	125	1
3	3	3
152	182	1
68	95	1
62	67	1
169	189	2
6	22	1
38	38	5
123	151	2
95	95	3
137	138	2
133	170	2
107	107	2
113	113	5
89	90	2
110	111	2
87	111	3
25	113	1
57	57	6
123	127	1
178	178	2
77	77	5
79	80	1
55	55	6
116	151	1
185	185	2
24	25	1
37	86	2
149	152	1
59	145	4
174	175	1
159	163	1
11	12	1
6	14	2
170	171	1
124	126	2
88	88	3
0	1	1
162	167	1
74	121	1
95	99	2
15	19	1
53	63	1
17	39	1
13	15	1
23	30	1
55	56	3
46	47	1
91	158	1
169	184	1
46	46	2
61	63	1
105	160	1
81	81	5
37	38	1
77	102	1
114	165	2
177	177	1
115	115	1
183	187	2
44	48	1
13	13	3
75	187	1
146	147	1
174	177	2
10	20	3
14	22	1
21	21	2
139	140	2
4	80	2
74	76	1
67	129	1
72	81	1
37	44	1
18	18	3
6	6	2
119	175	1
101	101	1
58	65	1
65	147	1
63	64	1
123	123	1
32	32	3
104	162	2
180	181	2
164	166	1
18	37	2
11	47	1
7	48	1
8	45	2
62	62	6
41	41	1
149	149	1
113	127	1
61	64	2
2	39	1
160	164	1
48	63	1
130	130	1
83	83	1
26	27	1
178	181	1
84	84	1
57	110	1
67	118	1
116	177	1
13	92	1
74	149	1
79	111	1
175	177	2
120	120	2
104	155	1
29	31	1
32	33	1
161	167	1
86	112	1
167	168	1
31	31	1
130	142	1
65	82	1
121	178	2
13	14	1
93	94	1
162	178	1
119	148	1
112	144	2
53	56	1
172	175	1
12	18	1
157	159	1
69	121	1
21	30	1
148	151	1
26	43	1
76	78	1
134	136	1
122	172	1
27	42	1
89	182	1
68	69	1
147	150	1
71	110	1
128	128	1
73	148	1
94	94	1
4	4	1
15	16	1
