100	100	4
93	94	2
30	30	3
110	111	4
104	105	3
38	38	1
100	101	2
29	29	11
90	102	3
45	45	13
35	36	3
87	87	8
84	107	7
28	28	4
78	78	7
35	35	11
81	81	5
92	110	7
27	27	8
61	62	4
26	26	11
71	74	3
40	61	4
96	96	13
31	31	4
33	33	6
96	97	4
108	108	7
22	23	1
101	101	11
88	102	3
62	62	3
22	22	15
57	57	17
62	63	3
65	65	5
46	51	2
107	107	6
105	105	4
80	82	5
70	71	5
48	57	1
47	47	8
75	75	10
59	66	2
70	70	8
60	60	1
94	94	5
92	92	6
111	111	7
51	53	1
84	84	6
65	69	2
106	106	1
98	100	8
71	71	14
44	44	5
19	19	4
34	34	3
36	37	1
32	32	2
103	111	3
90	90	4
98	99	1
56	57	3
91	91	8
101	103	2
55	57	1
103	109	2
72	73	4
95	95	9
58	58	7
59	59	7
73	73	3
99	99	3
24	24	8
95	96	2
109	109	4
83	83	3
84	106	3
91	92	2
106	108	2
94	95	3
64	64	5
105	109	1
76	76	5
89	105	4
77	78	5
87	88	1
66	66	6
75	78	1
64	79	6
80	80	9
80	81	3
34	35	1
80	83	1
23	23	5
56	56	9
72	72	5
41	41	3
40	40	1
103	110	1
42	42	2
20	23	1
112	113	2
89	89	2
30	31	3
44	51	5
48	48	2
47	48	4
97	97	4
46	46	4
78	86	2
39	39	8
111	112	2
93	93	1
27	28	1
84	85	2
53	53	3
24	38	2
112	112	3
55	55	6
37	37	1
19	22	1
38	39	3
58	59	2
44	45	1
42	43	1
104	104	2
105	106	3
54	54	3
50	50	4
114	114	2
51	52	2
59	65	3
43	50	2
106	107	2
47	49	2
91	105	2
54	55	2
61	61	4
45	46	2
48	59	4
85	86	1
82	82	4
69	69	3
28	29	3
86	86	1
66	68	2
110	113	2
79	79	1
99	100	2
21	21	3
76	77	3
108	111	3
88	88	3
74	74	5
81	82	1
67	67	2
49	50	2
34	36	1
85	85	2
78	79	4
25	44	2
82	83	2
66	67	2
97	111	1
102	102	3
25	25	5
94	97	2
55	80	3
53	54	1
39	40	1
110	110	2
33	34	1
102	109	1
48	49	1
83	84	2
79	80	1
74	76	1
88	91	1
109	110	1
58	60	1
70	76	1
45	49	2
58	62	1
84	104	1
98	101	1
39	42	3
113	114	2
22	37	1
95	111	1
51	51	3
103	103	2
58	79	1
88	90	1
113	113	1
103	104	2
68	69	2
55	56	1
36	36	2
63	63	1
68	68	1
57	64	1
107	108	1
