32	32	4
33	34	6
24	24	9
41	41	2
44	44	2
119	121	4
117	117	3
34	34	5
16	26	1
108	109	5
48	48	4
35	55	4
130	130	4
121	121	4
115	145	2
153	153	2
153	155	2
38	41	2
39	47	4
119	128	5
148	148	5
13	13	1
0	46	2
7	8	3
33	33	2
133	133	5
48	87	1
141	141	2
26	26	2
115	143	3
43	43	5
12	12	6
37	37	10
2	2	1
155	155	2
110	110	4
135	136	4
120	122	3
19	19	5
134	136	2
20	20	4
144	144	2
113	155	1
141	142	2
48	49	4
37	85	3
145	146	1
51	52	1
125	126	6
92	97	1
50	50	1
0	1	1
39	39	5
120	121	3
88	88	9
43	53	2
137	137	5
109	145	2
73	75	1
17	43	1
111	111	5
132	132	9
123	123	3
99	131	1
87	87	2
147	147	1
14	19	2
96	97	7
104	152	8
114	114	2
122	122	1
95	96	2
124	124	1
80	88	1
126	127	1
65	65	5
45	47	1
57	57	5
151	151	1
22	23	1
43	47	4
94	94	2
108	158	2
0	0	1
136	138	1
127	127	4
63	67	1
23	61	2
21	21	3
51	51	2
128	128	3
120	144	2
132	141	1
40	86	3
152	152	2
67	68	3
152	158	3
15	15	4
145	145	3
82	85	3
49	49	2
82	83	2
64	64	3
111	112	2
14	33	7
84	147	1
138	138	1
156	157	1
46	46	2
147	157	3
52	52	2
107	107	7
37	43	3
114	137	1
19	43	1
127	128	1
139	139	3
84	84	4
146	146	1
36	36	3
93	93	2
116	116	1
148	150	1
108	152	4
92	92	3
88	105	3
38	38	3
91	91	2
68	69	2
80	81	1
81	82	3
113	153	1
79	79	2
13	14	1
31	31	2
81	81	2
134	134	1
38	86	3
105	151	3
76	89	3
22	22	1
18	19	3
23	23	2
69	72	1
123	146	1
95	95	6
130	132	2
137	138	1
87	90	1
50	51	2
18	18	1
118	118	1
83	83	1
2	6	4
33	35	1
36	45	1
146	147	3
110	133	2
7	7	1
73	74	1
104	104	2
21	28	2
6	6	2
91	97	1
156	156	3
154	154	1
95	97	2
28	28	3
98	98	1
25	26	1
25	31	1
47	47	1
149	150	2
129	131	4
111	113	1
27	27	1
34	82	2
83	84	3
112	114	1
41	46	1
69	69	2
29	30	1
3	4	3
154	156	1
148	152	2
149	149	2
136	137	2
30	52	2
150	158	1
114	134	1
67	67	1
17	19	1
140	140	1
11	11	2
124	127	1
66	70	2
29	29	3
126	126	2
117	133	1
108	108	1
70	70	2
38	46	2
42	96	3
103	103	3
73	111	1
1	5	2
83	97	1
83	96	1
70	71	3
113	156	1
1	2	1
0	44	1
152	154	1
39	40	1
31	32	1
65	66	1
40	40	1
106	106	1
63	70	1
3	64	1
25	25	1
14	55	1
55	56	1
35	35	1
