54	55	3
20	21	7
31	34	3
97	97	5
24	24	3
60	60	3
48	48	4
71	71	4
51	52	3
21	24	1
3	4	2
76	76	3
134	142	2
76	113	1
108	108	7
95	95	8
61	61	9
55	55	4
62	63	3
131	131	8
79	80	3
8	10	3
12	14	1
122	123	2
16	16	8
69	69	4
144	144	2
8	9	3
136	136	8
57	79	5
77	79	5
3	5	2
56	57	2
4	4	3
134	141	1
58	58	2
122	122	2
15	18	2
70	70	9
3	3	3
19	19	6
13	89	1
73	73	5
9	9	2
142	142	4
84	84	3
99	99	3
123	125	3
23	23	4
35	35	5
104	105	2
126	126	3
111	111	3
130	131	2
134	134	3
92	93	1
28	28	3
34	34	2
79	79	4
105	106	3
6	6	2
25	26	2
117	117	1
99	100	1
114	114	7
75	122	3
72	72	4
102	102	5
68	68	4
128	136	4
106	106	3
102	117	3
65	115	1
85	87	2
52	52	2
125	125	5
119	119	4
41	41	3
24	25	5
37	37	7
67	68	3
128	128	5
33	33	3
103	104	4
15	15	13
117	123	2
54	54	1
10	10	4
106	110	1
18	24	2
57	59	1
92	94	4
19	20	4
115	115	3
13	13	2
75	76	2
1	2	1
26	27	3
75	75	4
128	129	5
111	112	2
100	100	6
20	48	3
16	88	1
88	88	1
132	132	8
93	94	4
53	53	1
121	121	5
145	146	1
118	123	2
96	97	2
57	80	1
123	123	5
78	78	2
11	11	1
32	33	2
57	58	1
137	139	2
18	18	7
94	94	2
140	141	3
107	107	4
66	67	7
49	49	3
25	47	3
32	32	3
87	87	1
4	5	1
77	77	3
112	114	1
2	14	1
69	70	1
112	112	3
82	82	6
2	2	2
127	128	2
64	64	3
120	121	1
138	138	4
110	110	2
65	65	2
103	103	1
108	109	2
0	29	2
66	66	2
31	31	4
109	109	1
37	53	2
139	139	1
124	124	3
74	74	4
40	53	1
19	21	3
117	121	2
65	66	1
89	89	1
20	20	2
91	92	2
105	105	1
88	89	2
86	86	1
18	19	1
118	121	2
10	28	1
6	10	1
20	22	1
73	76	1
37	54	1
48	49	1
9	37	2
14	47	2
74	77	1
116	130	1
116	116	1
133	133	4
2	3	1
42	55	1
40	40	1
61	62	1
130	130	1
114	117	1
59	60	2
25	31	1
116	117	1
117	119	1
132	133	1
55	80	1
78	79	1
83	83	1
129	130	2
16	17	2
39	40	1
29	29	2
120	122	1
63	63	1
113	113	1
42	80	2
78	112	1
106	109	1
82	83	1
63	69	1
113	115	1
133	143	1
85	105	2
93	93	1
129	129	2
94	99	2
91	110	1
26	26	1
35	36	1
94	104	1
119	120	1
95	96	1
