87	94	3
110	131	2
42	42	5
144	147	2
24	24	7
74	74	9
43	43	7
114	115	1
109	109	10
73	130	1
3	3	8
104	104	11
34	103	6
115	115	6
16	19	8
52	53	5
45	105	3
41	42	1
38	43	10
139	140	1
19	50	1
114	114	3
67	67	2
32	38	6
138	146	9
85	85	6
13	15	3
145	145	1
38	97	6
130	130	4
27	28	2
134	134	5
55	55	1
42	97	1
17	18	2
13	23	3
63	64	3
74	75	5
141	141	7
129	130	3
66	66	2
65	81	5
127	127	8
145	146	7
103	103	5
93	93	8
21	21	1
54	54	4
69	85	1
97	127	2
107	107	10
144	145	6
113	130	1
51	55	1
26	26	11
7	7	6
42	43	5
73	74	3
34	37	3
24	30	1
72	72	4
6	31	5
102	102	6
112	112	3
90	90	1
144	144	4
149	149	13
89	124	1
79	79	2
52	52	4
45	46	3
134	146	2
119	120	4
4	4	12
2	3	1
151	151	5
149	150	2
73	87	3
147	147	6
112	113	4
25	27	4
115	125	3
36	103	4
96	97	2
120	122	1
50	50	3
37	37	6
3	27	4
68	68	15
23	23	14
6	6	2
148	148	6
17	17	8
48	48	19
142	142	8
9	9	8
106	106	15
20	21	8
62	63	2
56	57	3
117	117	7
70	70	5
117	147	2
8	10	5
146	146	4
100	101	7
113	113	9
9	44	3
87	87	2
90	123	1
11	11	11
116	148	5
129	129	10
51	53	2
133	133	4
69	129	9
41	105	5
11	25	3
154	154	1
138	138	5
82	130	8
132	132	6
28	28	10
34	36	1
82	116	2
5	27	3
39	45	2
124	124	10
125	125	9
139	142	1
137	138	1
67	86	3
131	131	1
108	108	5
146	147	5
150	151	3
95	95	12
34	105	4
126	126	8
18	18	2
111	115	2
33	34	1
40	153	2
35	35	6
51	51	2
152	153	4
95	98	2
10	10	8
113	125	4
122	122	2
5	5	4
96	107	3
54	56	3
78	78	4
77	77	5
82	90	5
117	148	1
98	99	6
63	63	7
152	152	1
67	84	5
98	105	2
73	73	1
40	40	3
71	71	7
53	53	6
41	147	3
16	17	1
31	45	3
19	19	5
110	123	1
88	88	9
119	119	4
82	82	4
67	68	4
142	144	2
150	150	1
137	137	3
65	72	2
84	85	2
22	22	2
110	110	1
65	65	2
138	147	2
49	50	3
12	12	4
153	153	5
86	86	2
47	54	5
111	111	4
28	30	5
7	10	3
31	31	3
40	154	1
79	148	2
39	40	4
126	142	1
42	95	2
94	94	3
57	58	3
33	104	5
96	102	2
105	105	2
68	91	2
95	107	1
75	75	3
120	124	1
68	130	1
80	87	1
15	15	7
88	130	3
100	100	4
106	107	4
145	147	2
135	136	3
115	116	1
84	84	8
136	136	6
16	16	6
38	42	1
40	41	2
12	56	2
121	121	3
69	69	3
9	10	2
101	101	2
96	96	2
64	81	2
40	105	2
14	14	5
49	53	2
140	140	4
103	105	2
73	88	2
56	56	1
35	36	1
3	31	1
8	9	2
46	47	2
33	105	2
19	49	2
8	11	1
85	86	2
97	97	2
150	152	2
94	98	3
84	86	2
132	135	1
74	77	1
8	8	2
92	93	4
87	130	1
126	144	1
135	135	1
109	119	2
131	132	2
136	137	2
113	118	2
73	83	3
29	29	1
30	30	2
136	138	1
118	118	3
139	139	1
102	106	4
99	103	1
33	33	3
101	106	2
39	41	1
81	81	3
80	112	1
45	45	2
79	112	2
45	154	1
77	80	2
25	25	1
99	99	2
82	123	2
13	22	2
132	133	1
12	18	4
100	102	1
8	58	1
47	52	4
47	47	1
44	44	2
38	38	3
39	106	2
82	113	1
142	143	2
17	19	1
57	57	1
83	83	3
16	18	1
74	104	1
42	48	2
120	120	1
27	27	1
118	125	2
123	123	1
49	49	2
94	122	2
98	98	2
10	29	1
12	19	1
34	34	1
80	80	1
55	56	1
39	153	1
133	134	1
13	14	1
73	81	2
65	89	1
70	122	2
118	132	1
127	146	1
41	41	2
20	20	1
66	94	1
96	154	1
114	128	1
38	41	1
51	52	1
117	129	1
103	104	1
143	144	1
113	151	1
68	90	1
81	87	2
97	99	1
101	107	1
93	110	1
