98	104	3
93	105	1
47	49	2
84	84	5
48	56	3
49	51	3
95	95	12
33	35	6
71	72	1
48	58	4
97	105	10
75	75	7
90	91	1
73	76	5
91	92	12
59	61	4
26	30	5
78	84	6
20	22	5
94	95	5
90	90	8
86	90	2
27	33	4
97	97	8
102	102	4
22	31	4
38	38	2
67	67	2
74	75	12
65	73	3
101	103	1
54	60	8
82	84	8
96	103	4
83	84	3
77	78	1
49	50	2
25	25	4
95	101	2
102	104	4
81	81	2
31	39	1
43	43	6
98	107	3
26	35	3
61	62	3
89	91	5
27	27	8
35	36	1
29	32	3
88	88	3
56	59	3
35	43	2
72	72	5
66	69	5
77	83	1
40	40	1
39	42	3
77	88	2
20	20	9
33	36	1
20	21	5
35	35	10
66	75	3
59	62	3
67	69	5
75	79	5
98	98	4
63	64	4
68	76	2
89	93	2
93	94	4
30	30	5
29	31	3
33	34	1
72	74	1
30	31	2
58	59	1
70	76	1
80	82	3
50	56	1
85	85	7
49	49	7
47	58	8
51	55	2
40	43	2
99	99	9
38	43	2
62	62	8
73	81	5
74	80	7
53	53	3
82	86	6
78	78	8
40	49	4
60	70	2
24	28	1
42	42	5
85	94	3
64	65	12
47	48	6
25	26	3
81	89	1
37	39	2
87	92	5
68	74	5
61	64	2
83	83	9
103	103	4
67	70	3
80	88	1
71	77	3
74	78	3
56	64	1
106	106	4
61	70	2
30	38	2
54	56	3
34	35	1
37	38	1
20	27	4
71	71	7
32	38	3
21	21	11
73	82	6
73	75	4
22	28	4
64	64	4
76	88	2
63	63	1
93	100	2
69	69	2
42	44	2
55	60	4
73	83	8
58	58	10
42	47	3
87	95	4
54	54	5
77	77	3
56	57	4
86	96	1
55	55	18
97	100	1
74	82	1
60	63	3
43	45	1
33	33	8
60	69	3
92	92	8
100	100	8
48	48	11
47	51	8
23	26	2
93	93	3
43	54	2
88	93	2
70	70	8
74	76	1
91	91	8
58	61	1
38	40	5
89	90	3
50	50	6
97	99	2
86	92	5
34	38	3
96	105	6
33	41	4
74	74	4
26	29	4
82	88	3
51	58	1
43	49	3
87	87	6
89	92	3
98	99	4
96	96	2
67	71	3
58	68	1
83	88	2
63	65	3
74	77	1
76	78	2
24	32	2
56	60	2
100	104	2
94	94	5
31	38	1
47	47	6
61	63	2
89	89	11
96	102	4
48	49	7
73	74	3
92	94	2
80	83	5
101	101	6
38	47	1
54	55	4
37	50	1
29	29	6
90	95	2
85	95	1
29	42	1
65	66	2
79	79	4
43	51	1
105	107	1
44	49	4
80	81	3
68	70	3
23	23	5
57	69	2
31	31	3
66	66	11
21	22	7
64	68	1
45	50	2
61	61	11
67	77	1
52	55	3
65	69	4
87	88	10
81	85	1
70	72	4
66	67	1
78	82	1
53	57	2
30	37	1
41	41	5
41	43	1
94	97	3
71	75	1
70	73	1
100	105	1
90	93	2
90	92	1
45	54	1
81	84	3
87	93	1
88	94	1
104	106	6
52	67	2
105	106	5
24	26	11
80	80	4
34	36	1
54	59	6
93	97	3
77	79	1
84	88	6
89	100	2
89	96	3
52	52	2
62	67	1
102	103	5
97	101	1
52	59	2
96	97	3
44	44	1
83	85	3
57	68	2
84	90	3
59	63	1
21	26	2
58	70	3
98	105	2
26	26	2
56	58	2
85	89	2
48	51	1
55	57	1
26	27	1
76	76	2
59	69	2
57	58	2
42	43	3
64	67	1
36	36	3
51	51	4
25	27	1
65	65	6
34	34	3
103	105	2
33	38	1
105	105	1
70	71	4
22	22	9
101	102	1
95	100	2
96	104	1
75	85	1
25	33	3
57	60	1
39	40	2
40	45	1
33	37	4
87	101	2
90	105	3
25	29	5
56	66	2
72	75	8
25	31	2
45	45	1
50	51	1
22	26	2
24	29	1
23	27	2
99	104	1
74	84	3
28	28	3
96	106	2
79	85	3
104	105	2
98	103	1
78	79	5
88	95	1
93	95	4
22	29	1
31	36	2
30	32	2
65	71	1
98	100	2
88	89	3
39	39	2
51	52	3
25	32	2
99	106	3
24	24	3
67	75	2
46	59	2
79	88	1
59	59	3
47	52	1
40	41	1
74	83	1
97	104	1
65	72	1
99	100	1
35	37	1
31	34	1
95	96	1
68	69	1
25	43	1
45	57	2
22	24	1
52	69	2
59	66	1
100	106	1
28	36	1
41	49	1
42	51	1
36	39	2
60	60	1
53	56	1
91	93	1
104	104	4
96	101	1
73	73	1
77	86	1
40	42	1
52	53	1
43	46	1
24	31	1
34	45	1
42	48	1
46	46	1
25	30	1
43	47	1
36	38	1
37	37	1
48	53	1
