17	17	10
127	128	1
106	169	4
122	145	1
219	219	14
28	29	6
41	41	21
230	230	16
140	142	6
38	38	18
241	241	11
174	174	4
144	145	11
60	61	4
3	43	1
214	216	10
149	149	6
32	32	12
19	76	7
147	148	6
174	175	2
77	77	20
113	113	12
234	234	14
201	201	24
31	31	17
137	177	4
182	183	3
28	28	13
25	25	21
153	154	8
89	89	7
30	30	18
83	83	11
173	180	1
221	221	16
109	110	10
84	84	15
193	195	1
76	76	2
185	185	14
56	56	15
204	222	4
71	71	21
82	82	13
136	136	19
130	130	7
5	6	10
68	85	1
217	218	11
147	201	1
36	36	14
221	223	7
237	237	7
148	218	6
225	225	25
181	181	10
124	124	20
15	15	11
160	160	15
139	141	15
6	6	12
45	45	17
151	151	21
184	184	8
165	165	18
21	22	8
45	46	5
21	21	12
191	192	7
121	121	6
117	154	2
171	171	19
28	68	7
204	204	11
178	178	21
147	200	1
209	209	11
163	163	19
75	81	4
198	198	22
179	179	10
170	221	4
214	215	13
69	70	9
201	205	2
66	66	11
4	5	9
72	72	22
172	219	6
191	191	16
214	214	12
99	99	12
101	102	2
144	146	3
155	155	12
76	79	7
145	145	6
5	5	11
34	53	4
120	221	4
75	75	6
104	167	7
140	143	3
13	13	10
60	60	18
20	39	3
37	39	4
19	19	23
135	135	15
141	143	9
131	132	3
52	52	6
158	158	13
20	20	17
20	58	3
46	46	27
119	119	13
202	205	4
205	205	11
110	111	2
61	61	13
208	208	11
59	60	5
107	107	6
128	144	5
200	201	8
176	176	15
141	141	5
151	152	2
206	206	5
12	12	16
202	202	15
63	63	10
137	138	6
166	166	26
3	10	4
156	159	3
40	42	5
26	26	16
53	53	17
81	81	6
242	242	18
3	3	15
159	159	14
211	211	15
27	27	17
155	161	4
116	116	12
24	25	8
207	207	14
54	54	11
49	49	17
140	141	4
104	104	15
129	130	4
14	17	2
148	148	21
222	222	16
52	53	8
15	82	5
8	77	1
128	224	6
213	213	4
48	48	13
200	200	18
220	220	13
95	97	3
137	137	11
45	51	1
162	166	3
58	61	4
123	123	15
105	170	2
228	228	12
64	66	1
142	196	4
88	88	8
143	143	18
43	43	10
146	146	17
11	75	5
199	213	8
238	239	1
147	147	16
162	162	19
231	231	11
115	115	8
118	119	7
79	189	1
171	173	3
20	62	11
105	106	5
117	117	19
21	57	3
62	62	10
196	196	30
14	14	20
105	105	15
2	4	2
99	133	4
101	101	16
69	134	4
180	180	13
139	139	14
27	28	10
9	77	1
16	17	6
227	227	15
126	126	7
38	39	8
42	42	14
183	183	10
78	78	18
68	68	19
122	122	13
232	233	4
44	44	22
47	47	12
33	33	24
182	182	12
238	238	15
140	140	18
36	55	7
128	128	9
1	1	14
7	7	18
59	59	10
156	156	19
68	71	1
224	224	16
16	16	7
104	107	3
6	7	11
16	85	3
187	194	2
210	211	3
66	68	2
18	18	22
111	111	7
0	1	1
18	19	12
7	8	6
186	187	3
233	236	3
10	10	15
194	194	12
21	59	1
234	237	1
169	222	4
74	74	24
181	182	4
139	190	6
175	175	4
192	192	10
98	98	14
4	4	3
114	115	7
145	146	6
128	130	1
199	199	19
40	40	9
48	50	1
34	51	2
161	161	18
220	221	12
99	100	16
21	35	1
119	223	4
27	29	5
187	187	8
109	109	5
80	80	18
232	232	16
125	125	14
3	75	1
195	195	9
233	234	7
229	230	6
142	142	4
118	118	6
106	106	5
138	138	8
80	190	3
197	197	19
55	55	7
22	22	4
71	74	1
32	35	3
154	226	7
45	54	1
116	227	1
28	74	1
67	68	10
126	165	2
181	184	4
80	83	2
25	26	1
169	170	5
152	153	4
66	67	10
58	58	8
68	69	4
154	154	16
19	20	2
215	215	3
128	216	8
188	192	7
96	96	10
171	220	2
217	217	18
50	50	6
190	190	17
229	229	14
186	186	9
236	236	9
161	162	2
223	224	6
39	55	6
154	155	1
176	178	6
1	2	4
185	186	6
200	214	3
31	32	1
178	192	3
114	114	7
113	152	3
37	37	6
190	191	5
0	3	6
34	34	5
67	67	14
80	81	8
239	240	1
2	2	14
240	240	9
57	60	3
86	86	5
47	51	2
122	123	7
128	147	3
63	64	5
8	78	1
134	135	2
218	218	14
24	24	12
82	83	6
12	13	6
2	5	1
127	127	6
116	117	8
39	39	18
209	210	3
9	10	5
129	129	14
170	220	1
222	223	1
134	134	1
15	84	2
145	147	3
166	167	2
86	95	3
125	126	6
51	51	7
40	43	6
26	27	6
206	207	5
117	118	8
135	137	2
188	188	6
205	206	5
175	178	4
100	101	5
204	206	6
187	189	3
203	203	7
226	226	14
70	70	14
112	112	6
171	219	1
194	195	2
121	122	7
119	168	3
150	150	10
81	84	3
13	14	4
85	85	10
73	75	5
148	217	2
13	140	3
152	152	7
170	219	1
72	75	1
150	151	2
123	145	3
168	168	6
120	121	5
203	207	6
29	74	2
107	108	8
21	62	3
117	226	4
15	18	4
75	76	3
205	217	13
178	191	1
201	202	9
156	157	14
6	187	2
197	200	2
73	73	7
92	130	1
203	204	11
10	73	4
235	235	7
61	62	4
212	213	5
103	103	12
215	216	2
29	29	9
144	144	12
216	216	13
172	173	11
184	192	5
149	205	2
211	212	3
192	193	1
48	54	2
51	55	1
224	225	7
41	42	1
167	167	7
167	168	8
157	157	15
213	214	2
7	78	1
187	188	2
18	81	2
79	196	1
42	43	2
31	34	3
237	238	2
195	199	3
115	117	4
33	55	2
44	45	6
67	71	4
216	224	2
158	160	1
89	92	1
86	87	1
28	71	9
36	62	6
173	175	2
137	190	2
233	233	7
193	194	5
12	15	3
132	132	3
46	47	5
152	155	2
58	59	8
3	9	2
236	239	1
51	54	4
34	35	6
128	223	5
48	49	8
69	85	3
19	31	3
78	79	5
118	168	1
10	11	3
177	191	2
65	67	2
155	158	1
51	53	2
120	120	12
232	239	1
97	97	1
206	218	1
218	219	2
231	232	1
62	64	1
124	127	2
70	173	1
210	210	8
148	150	5
88	89	1
47	54	3
177	177	13
137	176	3
115	116	3
144	164	1
197	198	1
87	87	4
37	38	6
169	169	6
38	55	2
110	110	3
49	50	5
20	63	4
216	223	3
188	196	1
142	143	1
164	166	7
153	155	2
123	164	1
136	137	6
116	152	3
32	34	4
119	169	5
160	161	1
127	144	4
146	150	3
9	9	6
11	17	2
99	101	1
9	50	2
103	105	1
149	150	2
193	193	7
189	189	5
133	134	1
95	95	1
15	16	1
43	44	1
223	223	8
77	78	5
176	177	5
106	111	1
23	35	1
55	57	5
144	147	2
143	199	6
142	197	1
30	32	3
30	35	2
228	229	6
54	55	4
37	56	2
123	124	4
164	165	1
124	125	3
43	47	2
139	140	2
81	82	3
17	84	4
115	152	1
10	19	1
100	100	12
146	147	4
19	59	3
111	112	4
233	235	2
76	80	4
174	219	4
199	200	8
0	0	6
148	226	4
237	239	3
205	208	3
39	40	5
155	230	1
28	72	4
80	196	2
30	68	1
2	3	3
3	78	1
81	138	2
158	230	1
30	31	2
177	178	5
145	148	2
79	79	4
122	164	1
102	102	6
84	85	1
8	8	6
58	60	3
175	179	1
203	205	6
95	98	2
37	62	1
155	156	3
238	240	2
104	105	3
212	214	3
88	142	3
53	54	5
62	63	2
143	145	1
108	108	4
86	131	2
33	50	6
168	169	1
230	231	6
86	134	2
207	208	4
220	222	1
189	196	2
101	132	2
201	213	1
98	133	2
4	6	2
12	75	2
23	23	11
18	83	1
116	157	6
169	220	1
175	176	3
226	228	4
119	152	3
188	189	8
12	14	1
11	76	3
210	216	2
164	164	6
105	166	2
144	149	1
24	63	1
187	190	1
124	130	1
199	201	1
173	179	3
192	202	2
141	142	8
170	170	3
163	165	2
29	30	5
212	212	4
115	118	2
180	182	2
106	107	1
14	15	1
97	98	2
96	97	1
127	130	1
239	239	7
204	205	3
85	86	2
184	185	3
131	131	1
32	50	3
64	64	5
161	166	2
3	5	1
146	148	2
3	4	3
35	35	5
9	73	3
40	41	4
19	57	2
165	166	4
118	152	2
122	147	1
14	16	3
59	61	1
81	83	2
172	172	4
236	237	2
158	159	3
79	188	3
206	217	1
152	154	1
120	220	1
124	165	1
32	33	2
19	30	1
10	75	3
15	138	1
31	33	1
38	43	1
88	91	1
178	236	3
65	65	4
197	199	4
86	133	1
129	140	1
139	196	2
71	73	2
45	47	1
140	176	1
201	206	5
150	214	1
112	241	2
117	229	2
29	62	4
6	188	1
201	208	1
39	43	1
34	52	1
216	217	2
162	163	2
69	135	2
64	65	1
117	228	2
173	173	3
226	227	2
153	153	5
7	79	1
116	228	1
12	59	2
138	176	1
20	36	2
20	35	1
116	158	1
121	219	1
114	118	2
172	174	6
18	82	1
19	83	1
186	188	1
34	54	1
215	226	2
35	36	1
5	186	3
38	44	1
224	226	1
215	227	1
50	53	2
180	181	2
7	187	1
201	212	1
141	191	1
81	137	1
80	82	1
124	126	3
31	56	2
155	232	1
32	51	1
123	128	2
88	139	1
98	100	1
11	19	1
16	82	1
8	11	1
156	158	1
151	164	1
209	216	1
7	77	1
223	225	2
173	218	2
122	125	2
0	2	1
194	202	1
37	55	3
19	21	2
179	180	1
48	53	1
198	199	1
38	40	2
133	135	1
123	127	2
30	75	1
135	136	2
163	164	1
137	141	1
182	184	1
209	212	1
113	114	1
184	186	1
180	203	1
155	159	1
65	86	2
103	108	1
177	179	1
102	103	1
107	168	1
70	71	1
148	149	1
75	82	1
56	57	1
124	129	1
57	59	1
108	111	1
50	77	1
188	190	2
11	11	1
11	84	1
57	57	1
216	221	1
37	144	1
43	45	3
235	236	1
69	69	1
22	57	1
