33	33	2
116	116	11
132	132	2
108	126	1
64	64	5
56	56	3
15	15	5
61	61	2
86	86	10
95	108	11
107	108	5
75	75	7
44	45	5
107	107	9
2	2	7
41	56	2
117	117	7
34	117	2
91	91	5
9	9	1
65	66	10
59	88	2
7	14	2
49	49	6
43	43	1
20	131	2
26	26	14
84	84	8
118	121	2
85	86	3
93	93	5
118	120	2
107	127	1
4	26	7
5	6	2
36	42	3
80	80	5
85	85	9
17	17	4
125	125	13
65	65	8
29	29	5
32	32	5
42	132	2
67	67	5
59	60	4
5	5	4
100	103	3
105	105	3
38	87	3
60	86	2
63	63	12
76	76	5
34	34	3
122	122	2
41	42	3
16	17	5
129	129	3
45	45	7
46	47	4
20	20	7
124	124	9
70	72	6
48	48	2
46	48	2
19	19	4
98	98	5
82	82	8
114	114	7
59	59	3
126	126	5
40	127	1
108	108	4
60	61	1
61	62	3
110	110	7
25	25	4
113	128	1
37	37	3
67	71	3
31	32	2
93	95	5
77	77	1
58	58	3
83	83	2
40	133	3
3	4	3
47	47	5
121	121	6
103	103	8
75	76	5
93	94	2
0	0	4
16	16	8
46	46	2
116	128	1
72	72	4
101	101	5
43	44	3
6	6	3
116	131	2
57	57	7
4	126	1
24	24	2
64	65	1
108	125	7
8	129	3
49	130	1
115	115	7
95	134	3
73	73	11
16	97	1
8	10	3
118	119	1
79	79	3
126	131	1
55	56	2
60	60	4
108	109	3
38	39	3
27	27	1
109	109	10
130	131	2
58	59	10
87	88	3
102	102	5
12	13	6
78	78	1
31	31	6
47	48	3
42	130	2
109	123	2
113	113	4
99	106	2
95	95	7
36	36	4
63	64	2
44	44	4
76	77	2
115	116	2
12	12	3
7	90	3
84	86	1
82	83	2
18	18	2
71	71	5
59	86	2
79	82	1
57	134	2
111	113	2
56	133	1
15	45	1
120	123	3
57	58	3
99	100	1
103	104	1
39	39	3
88	88	1
128	128	2
129	132	3
39	114	2
62	62	2
30	30	2
34	43	1
74	74	3
33	45	3
104	104	3
99	99	3
120	120	3
55	86	1
8	8	2
131	132	1
11	11	2
86	130	1
112	112	2
123	123	2
66	67	2
118	118	1
87	87	2
10	10	3
46	90	2
97	98	3
124	125	5
131	131	1
45	46	1
81	81	2
129	130	5
9	10	1
119	119	1
92	92	2
3	27	1
94	94	2
14	15	1
112	113	2
55	55	1
6	20	1
3	26	1
8	9	2
58	134	3
113	114	1
100	100	2
88	115	1
89	92	1
133	133	1
15	16	1
117	118	1
108	111	1
99	102	2
36	130	1
40	41	2
61	119	1
1	1	1
82	90	1
132	133	1
130	130	1
