133	134	3
74	114	1
111	126	1
14	14	4
27	27	10
35	36	7
63	69	4
108	113	1
8	8	7
15	15	5
94	106	5
121	124	3
82	82	7
50	50	2
83	83	9
85	102	1
60	134	3
6	7	3
96	101	5
46	47	5
35	35	8
34	130	2
65	66	5
14	43	3
134	134	16
34	40	1
9	14	1
115	115	6
110	110	7
23	31	1
128	130	2
24	102	2
98	98	5
12	13	3
6	6	4
85	87	1
82	84	5
29	29	6
39	55	1
77	107	3
36	36	11
72	112	3
31	43	4
47	47	9
72	116	1
117	118	7
128	128	7
107	123	2
92	133	1
97	97	6
19	125	1
16	16	10
120	120	3
75	75	4
32	36	1
11	11	13
131	131	5
37	37	2
82	131	4
77	77	12
76	76	12
68	68	5
12	12	2
77	94	1
33	36	2
132	134	1
29	41	7
88	88	5
108	109	5
72	72	4
31	31	9
133	133	6
114	116	4
15	16	6
84	84	10
34	34	6
2	64	4
60	60	2
93	93	9
81	94	4
18	124	2
81	85	1
74	74	8
21	36	3
64	70	2
86	86	8
94	108	4
67	67	9
32	106	3
94	96	4
111	111	3
109	120	5
21	21	11
100	100	7
34	88	5
61	62	5
78	78	9
77	103	1
40	40	9
62	62	9
109	109	2
103	103	7
4	4	2
117	124	2
128	129	3
76	114	2
83	90	2
20	37	1
43	43	10
63	64	6
118	118	6
60	107	5
73	73	2
72	73	5
73	74	3
85	90	6
23	24	6
95	96	2
64	64	10
88	90	1
21	23	3
96	96	8
92	95	2
21	38	1
18	48	2
94	94	1
24	24	4
67	68	2
79	80	3
130	130	2
107	107	3
79	79	4
3	3	5
112	125	2
9	9	7
36	37	6
56	105	1
66	67	5
68	69	4
63	63	9
2	3	5
129	129	2
17	40	2
94	95	5
85	85	8
37	38	4
113	114	3
30	30	7
129	134	4
32	39	5
122	122	9
9	11	5
56	56	4
12	14	1
127	130	3
26	26	7
46	46	12
132	132	11
56	60	3
60	74	2
106	107	2
50	55	4
90	132	3
127	131	2
31	120	1
76	120	1
60	127	3
29	40	1
106	106	9
70	119	1
57	57	4
104	104	1
44	44	4
77	87	5
19	19	11
84	85	1
108	108	6
117	117	5
20	22	1
15	46	1
81	104	1
77	85	4
104	105	1
82	94	4
124	124	12
127	134	3
84	95	2
102	102	2
66	66	6
34	35	1
93	94	3
79	98	3
40	41	6
128	131	1
7	9	4
1	1	3
87	88	4
86	87	2
11	43	3
102	132	2
107	109	5
46	118	2
111	121	3
31	122	5
61	67	4
59	100	2
40	50	3
76	108	3
58	124	1
8	120	1
119	119	10
125	125	2
39	42	4
55	132	7
68	115	3
116	116	2
65	65	10
77	106	5
115	116	3
48	121	1
13	113	2
65	119	1
82	83	6
91	91	9
68	119	5
59	59	8
67	125	2
96	98	2
17	71	1
80	80	2
45	45	6
77	108	2
33	127	3
75	76	4
112	112	3
58	58	3
121	121	3
106	120	1
29	31	2
20	20	4
47	60	3
123	125	2
8	9	3
101	104	1
100	104	1
85	86	2
25	25	2
17	17	6
11	14	1
38	38	1
63	122	1
120	123	3
70	71	1
62	70	3
74	115	3
64	123	4
73	115	3
17	44	3
43	44	3
44	45	2
32	49	1
127	127	2
128	133	1
61	61	3
74	110	2
110	111	5
12	15	5
74	76	2
35	134	3
62	63	5
2	2	2
131	133	1
128	134	1
0	64	1
70	75	1
86	89	3
70	70	1
62	125	2
111	125	2
132	133	1
1	64	1
114	115	4
103	104	1
123	123	3
77	82	2
118	119	2
124	125	5
55	55	4
23	25	1
94	104	1
101	102	3
93	99	1
88	127	3
10	27	1
101	101	5
87	89	1
55	57	1
68	125	1
73	76	4
35	38	1
84	90	4
19	124	1
22	22	4
15	25	1
56	104	1
18	71	1
45	46	2
24	31	1
24	41	1
10	47	2
40	92	3
32	32	3
102	103	1
34	44	1
67	71	2
48	88	2
28	28	2
42	55	1
63	118	1
112	113	1
40	115	1
10	10	2
105	105	1
35	39	1
34	128	1
58	59	1
116	119	4
78	80	1
77	78	1
76	88	2
17	30	1
90	90	4
110	131	1
105	112	1
35	40	1
66	118	2
60	103	2
120	125	1
9	10	2
131	132	1
23	23	1
35	41	1
0	1	2
126	126	2
27	28	1
2	62	1
57	109	1
21	44	1
81	83	1
117	125	3
5	5	2
87	87	1
68	118	1
95	95	4
86	133	2
45	115	1
103	108	1
15	18	1
97	98	1
34	73	1
92	127	2
18	19	3
121	122	1
99	99	2
32	126	2
16	46	1
16	17	1
82	93	2
68	124	1
19	20	1
27	30	1
28	40	1
100	105	1
41	88	1
71	71	2
103	112	1
18	18	2
7	7	1
17	19	1
85	89	2
60	109	1
10	11	1
14	16	1
22	134	1
114	114	1
25	26	1
95	99	1
90	91	1
125	134	1
39	39	1
61	68	1
117	119	1
18	20	1
31	38	1
54	58	1
19	36	1
84	107	1
33	38	1
61	73	1
