53	53	7
76	78	1
93	93	10
120	120	6
79	86	5
34	34	13
130	148	2
40	43	1
100	102	9
117	123	1
108	117	2
106	106	9
87	114	4
128	149	3
47	48	3
149	150	4
5	26	3
94	95	2
28	28	9
137	137	10
7	8	3
119	119	9
62	62	4
151	151	9
78	78	6
33	49	4
78	99	7
38	38	8
103	138	3
121	123	1
36	43	7
111	132	3
78	85	1
83	86	2
72	72	6
41	64	3
117	117	6
35	35	9
115	115	10
66	66	4
6	6	6
134	135	7
116	142	1
6	21	1
80	98	3
103	113	5
30	30	7
72	73	3
5	5	6
34	45	1
6	7	6
71	73	3
36	45	5
154	154	8
70	83	3
31	32	3
111	125	9
80	84	4
3	3	1
38	39	3
104	138	8
39	39	11
64	64	6
139	139	6
97	123	2
101	106	6
148	148	7
146	151	3
151	152	3
94	97	1
19	19	2
27	29	4
146	146	3
71	71	12
41	48	7
106	144	4
85	85	5
139	145	1
87	104	2
9	23	8
127	127	12
41	46	2
32	33	2
132	132	9
107	108	8
33	45	1
131	151	2
21	22	6
115	116	10
64	67	1
95	122	5
69	69	7
3	9	1
38	51	3
136	140	1
63	64	5
94	94	16
92	92	8
12	19	4
121	134	2
57	57	5
110	110	3
27	30	1
95	98	3
35	47	1
20	21	1
109	109	9
108	118	1
138	138	2
104	104	1
33	34	3
65	65	3
63	63	6
21	21	3
38	40	2
116	145	2
125	125	4
84	84	5
128	144	4
153	153	10
41	41	10
138	142	5
143	143	5
83	84	4
79	79	4
25	25	6
136	136	4
27	27	4
149	149	7
73	73	4
36	44	3
98	118	4
129	129	5
76	76	4
127	141	4
114	114	4
90	104	2
47	149	1
141	141	7
111	123	1
141	142	1
44	154	2
75	75	7
126	126	8
152	152	6
81	101	2
24	25	2
43	43	5
16	16	5
126	149	3
101	109	1
42	42	16
82	83	7
78	79	6
103	105	6
102	102	7
45	55	3
17	20	2
20	131	1
93	124	7
15	15	5
102	111	3
44	56	1
128	131	2
45	45	18
120	127	2
126	133	4
48	69	3
119	138	2
35	154	2
50	65	1
5	30	2
33	33	3
77	77	4
144	144	1
46	52	3
137	139	1
29	29	6
45	48	1
17	27	3
108	125	3
42	57	1
4	31	3
103	103	8
148	149	4
52	54	1
93	94	5
101	102	6
87	87	11
94	96	5
44	44	2
47	151	1
138	139	3
111	111	9
81	81	5
40	40	7
33	50	3
49	49	1
131	133	5
23	23	3
71	74	8
6	8	5
104	136	1
147	151	2
96	96	4
31	31	7
50	51	1
22	22	2
96	112	2
122	135	4
122	122	7
63	83	1
120	137	3
87	100	1
64	83	5
46	47	4
47	73	4
53	54	3
79	85	4
128	128	4
12	13	2
140	140	2
135	139	4
67	68	7
18	131	1
117	125	2
68	100	1
126	142	4
20	23	3
105	125	4
147	147	1
103	123	1
94	116	1
97	97	7
153	154	3
107	118	3
9	9	6
46	151	1
49	152	2
37	39	3
120	125	1
8	9	2
10	10	4
10	31	2
101	101	2
99	99	2
15	17	2
3	31	1
81	82	1
107	107	6
116	126	2
119	130	4
126	146	1
65	77	1
9	10	4
142	143	4
49	50	4
148	154	3
24	32	3
46	46	5
8	26	2
62	68	2
68	68	2
127	137	6
135	135	7
118	126	1
37	48	2
74	75	7
83	98	2
71	123	1
126	145	1
69	84	2
104	126	3
20	22	1
51	67	1
14	23	1
25	26	2
80	80	3
77	93	2
105	105	7
55	151	1
33	70	1
16	26	2
64	77	2
57	74	2
120	121	6
42	43	1
108	112	3
12	12	3
65	66	2
124	124	10
112	112	1
18	18	4
65	67	2
123	123	4
111	113	2
71	90	1
147	154	2
130	141	1
131	136	2
116	116	5
142	145	5
145	145	7
17	17	5
136	150	1
92	122	2
150	150	10
102	113	1
71	92	1
52	52	5
113	114	1
3	25	1
11	11	1
113	113	5
67	67	3
4	4	3
49	149	2
131	131	1
34	35	2
130	130	2
33	36	2
134	134	5
103	110	1
27	28	2
46	57	3
135	143	4
118	118	3
70	73	3
67	100	3
39	40	3
97	109	1
108	108	4
70	97	2
51	51	5
54	55	3
132	133	2
33	150	3
152	153	2
98	98	2
95	96	2
43	44	4
80	85	2
13	13	2
78	104	1
100	100	1
97	104	1
23	30	1
9	30	4
82	82	7
10	21	1
65	87	1
54	56	2
144	148	1
145	146	1
74	95	3
139	142	2
37	151	1
26	26	3
69	70	1
10	32	3
103	111	1
147	153	2
150	151	1
77	81	2
7	7	4
93	117	1
133	135	1
8	8	1
68	82	3
122	123	1
121	121	2
47	47	4
56	56	2
128	136	3
18	20	3
77	90	1
110	118	1
107	136	3
7	26	1
86	97	3
65	78	3
135	138	1
98	99	1
118	125	1
93	112	1
100	107	1
144	146	4
103	126	1
118	119	1
76	91	2
92	93	2
44	137	3
36	36	2
99	126	2
142	142	1
84	94	1
79	80	1
18	31	1
64	96	1
23	29	2
81	88	1
83	83	1
36	149	3
107	125	2
2	2	2
50	55	3
147	148	1
108	122	2
44	55	2
42	50	1
105	121	1
43	50	2
99	106	1
112	114	2
4	15	1
16	30	1
99	105	1
70	74	2
103	130	1
102	118	2
81	85	1
49	51	1
105	124	1
77	94	1
50	82	1
88	88	1
36	48	1
44	45	1
68	87	1
3	4	1
111	140	2
111	122	1
43	57	1
73	75	1
55	55	3
95	95	1
128	130	1
102	104	1
13	27	1
47	52	1
82	87	1
30	31	1
66	69	1
144	145	1
129	153	1
69	81	1
78	87	1
126	143	1
48	48	1
42	66	1
17	18	1
133	133	1
70	70	1
39	41	1
20	20	3
38	66	1
28	29	1
70	72	1
39	50	1
93	123	2
40	117	1
40	41	1
129	138	1
98	107	1
74	125	1
24	24	1
71	97	1
109	110	1
81	84	1
