25	25	11
134	135	2
36	36	8
15	15	6
124	125	5
12	12	17
14	14	15
85	112	3
151	151	13
41	106	3
98	104	1
68	104	5
152	152	10
111	111	19
100	103	3
114	114	16
26	26	6
122	122	17
17	17	13
93	93	6
68	68	8
38	39	4
37	38	6
137	137	15
35	35	14
11	11	12
29	30	3
19	19	31
72	75	1
129	129	16
20	20	4
79	79	8
67	67	14
32	32	7
154	154	10
36	43	3
14	15	2
116	116	16
46	46	13
150	150	5
42	128	1
142	142	13
113	113	24
72	142	3
37	37	9
136	153	7
149	149	16
3	7	3
121	122	12
63	63	13
73	73	19
54	55	2
68	145	1
55	121	2
20	64	3
83	86	13
31	31	4
98	98	4
62	62	6
69	69	8
76	77	1
126	126	8
126	128	2
96	96	15
145	145	7
85	85	19
125	127	6
40	40	15
75	86	3
110	111	3
111	113	2
42	43	3
130	130	14
82	99	3
43	43	9
71	71	11
111	146	4
105	120	6
64	65	10
63	64	6
53	54	7
125	142	5
54	54	6
117	117	16
9	9	20
67	132	2
113	117	1
76	76	3
64	64	9
78	78	13
100	100	11
115	121	1
4	63	1
121	127	2
107	107	14
139	139	5
6	7	8
85	153	1
30	31	8
58	58	7
63	84	2
128	129	3
7	7	16
21	21	10
53	53	18
21	22	8
112	116	4
84	85	4
46	72	2
30	30	19
74	74	6
87	126	4
5	8	2
27	27	5
84	84	3
77	77	7
8	52	2
8	8	8
24	24	16
29	29	12
81	123	3
112	112	14
82	82	7
110	132	2
28	112	3
63	121	2
82	83	4
148	149	3
9	23	2
7	8	8
32	33	10
57	112	1
40	41	4
69	71	4
80	80	9
88	131	1
126	127	5
118	118	9
11	26	2
119	122	3
69	77	3
95	95	10
147	147	17
100	101	1
94	94	3
71	73	8
77	78	6
80	83	1
50	50	11
111	151	5
134	134	10
49	49	6
33	34	3
50	51	3
107	112	1
3	3	7
153	153	7
135	135	9
120	120	4
38	38	11
50	118	2
145	146	2
3	4	5
57	57	2
121	121	11
144	144	10
51	51	9
80	81	4
131	154	1
70	70	8
34	36	2
132	132	14
20	21	3
44	44	8
10	10	5
55	56	3
22	22	7
49	50	7
115	115	7
5	5	7
19	20	3
102	103	5
62	134	1
16	16	7
63	86	1
16	23	6
113	114	3
21	64	3
130	131	7
127	127	6
67	68	8
9	12	3
119	119	10
68	144	3
13	15	2
66	66	10
100	135	1
62	88	2
56	56	3
69	70	3
72	136	2
4	4	4
136	137	8
146	146	6
144	145	4
105	105	5
147	148	2
79	82	1
119	135	1
68	125	4
32	34	2
42	42	19
24	25	7
13	13	10
107	108	6
51	86	1
138	140	3
117	144	4
28	29	4
109	109	14
114	115	3
86	142	3
131	132	2
108	128	3
57	78	1
21	62	2
105	138	2
110	110	9
100	107	2
25	32	4
74	77	4
136	136	12
34	34	1
133	133	7
105	135	2
142	143	6
123	123	8
68	76	6
93	94	6
124	126	2
67	144	1
65	66	1
66	94	2
44	46	3
128	128	2
4	5	7
86	106	2
119	120	5
5	6	3
18	18	19
152	153	4
81	81	7
85	86	2
39	123	1
37	111	1
12	15	3
15	101	2
74	76	2
2	2	2
125	125	1
141	141	9
137	146	1
106	142	2
39	39	11
4	6	4
129	133	5
33	33	5
137	138	7
43	108	1
131	137	2
101	102	5
140	141	1
67	121	4
52	52	2
65	116	1
102	102	7
122	142	3
108	108	11
122	152	2
68	69	6
131	131	8
127	128	3
104	142	1
41	42	7
109	110	3
138	138	4
63	85	2
99	99	2
31	114	1
150	151	1
27	30	3
148	148	7
141	143	2
6	6	6
83	83	11
45	46	4
78	82	2
87	91	2
34	35	3
72	73	5
42	51	4
45	122	3
104	105	2
111	112	5
124	124	7
9	17	3
55	55	4
100	106	1
108	109	2
94	95	2
84	153	3
39	43	2
100	142	2
44	124	1
48	48	10
129	130	3
116	117	2
67	139	1
112	113	3
48	49	2
7	111	1
31	32	5
104	127	2
88	112	4
3	11	1
102	139	1
106	106	4
139	140	2
77	82	1
103	103	4
18	19	1
88	88	4
8	9	1
134	154	2
51	117	1
86	86	4
75	75	3
8	10	1
110	114	2
5	130	2
69	138	2
75	99	1
70	142	1
45	51	1
22	26	1
97	97	5
94	97	1
65	77	1
87	87	4
107	133	2
144	149	4
90	90	3
4	56	3
18	20	2
63	113	2
129	131	2
117	120	5
57	58	2
3	9	1
45	45	3
30	32	2
14	23	1
80	124	1
43	123	1
83	85	2
92	151	3
151	152	3
41	121	1
47	149	3
145	149	1
68	154	3
107	132	1
43	124	1
72	139	1
23	23	7
65	121	1
73	142	1
140	142	1
15	29	3
99	100	2
123	154	1
48	51	1
49	62	3
31	115	1
44	113	4
117	118	1
111	115	1
62	63	1
101	104	1
123	132	1
148	152	1
18	22	2
44	109	1
2	3	1
52	53	1
41	41	1
48	100	1
66	152	1
47	47	3
102	104	1
17	22	1
7	23	1
98	100	1
149	150	1
74	75	1
144	150	1
67	94	3
19	101	2
94	99	1
140	140	7
11	23	1
64	69	1
65	65	11
21	27	2
19	65	1
39	40	2
75	77	1
44	108	1
39	97	2
29	111	2
103	141	1
135	136	1
28	28	3
137	142	1
126	129	1
19	21	1
90	109	1
85	152	1
66	121	2
132	134	1
12	13	1
118	119	3
119	121	1
78	79	1
36	37	1
123	140	1
135	139	1
72	100	1
120	121	2
75	151	1
32	115	2
134	147	1
87	120	2
66	85	1
95	97	1
67	69	1
107	113	3
14	119	2
35	61	1
33	35	1
118	144	1
10	25	1
4	57	1
41	123	1
10	26	1
70	71	1
8	17	1
47	154	2
87	92	1
71	98	1
128	134	1
123	124	2
115	122	1
41	101	2
73	74	2
126	141	1
108	127	1
102	142	1
67	125	1
8	26	1
75	76	1
48	50	1
74	86	1
54	109	1
21	63	1
7	22	1
13	123	1
10	11	1
