77	107	4
26	27	2
39	40	10
39	39	11
189	189	13
158	158	13
75	75	14
0	212	4
157	157	19
0	0	28
239	240	3
186	186	8
234	234	12
79	79	5
151	152	5
36	36	22
10	191	5
3	20	4
169	169	20
66	113	1
65	65	12
226	226	15
21	21	20
37	37	20
70	70	16
125	125	12
195	195	10
223	223	17
12	12	12
15	23	2
81	81	11
66	66	15
192	193	12
229	229	13
212	213	6
50	50	20
197	198	13
145	145	8
41	41	13
25	27	1
218	218	18
25	25	9
179	179	10
45	45	13
210	210	20
190	190	12
184	184	5
13	13	19
146	146	13
153	153	12
102	102	16
105	105	8
99	99	18
7	37	4
28	29	1
152	172	2
171	172	8
233	233	24
17	17	25
29	29	15
148	148	11
215	215	12
95	95	6
96	118	2
54	54	17
100	100	26
108	119	4
193	195	1
178	179	6
173	174	3
163	163	6
217	217	36
225	225	17
55	55	15
18	18	12
98	98	7
71	71	16
40	40	12
76	82	4
143	143	15
239	239	11
38	38	20
140	140	20
23	23	12
89	89	1
30	30	10
212	212	9
204	207	4
63	64	1
129	130	7
102	103	10
118	118	4
27	27	16
222	222	13
160	162	2
206	206	10
237	237	13
187	190	7
68	69	4
202	202	18
53	53	19
80	83	2
182	206	5
55	58	4
211	211	14
161	161	17
207	207	11
5	6	2
89	105	2
8	195	4
175	175	16
120	122	4
129	129	13
226	227	6
228	228	19
159	161	2
41	52	3
73	73	10
29	31	9
204	204	24
11	11	19
220	220	17
70	71	8
16	23	3
233	239	6
119	119	11
84	85	6
56	56	9
219	242	4
215	216	11
6	7	9
181	181	21
188	188	10
156	156	17
221	221	23
183	183	15
224	225	5
165	165	9
86	86	10
77	77	7
142	160	2
107	108	7
57	78	4
232	237	5
60	60	19
17	18	2
33	33	12
234	235	8
88	88	10
199	199	14
189	191	3
242	242	14
57	57	18
108	108	8
214	214	17
113	130	4
213	214	3
4	4	14
85	86	1
6	34	3
182	183	6
63	63	17
25	39	4
21	22	5
159	162	3
156	157	6
170	171	4
9	10	4
164	164	21
61	61	11
29	30	10
68	68	19
28	28	22
6	6	7
15	15	21
146	147	4
240	240	19
65	201	2
115	117	8
133	133	16
231	231	14
64	64	12
112	116	2
58	58	13
83	83	11
178	178	20
114	114	2
85	85	13
116	117	8
134	135	3
44	45	8
232	233	3
117	230	3
10	11	3
76	76	13
227	227	20
114	115	11
224	224	15
189	190	7
20	39	2
170	170	18
56	57	6
140	153	1
103	103	7
177	177	6
49	49	7
200	200	17
193	193	16
124	124	8
24	24	19
240	241	2
117	117	13
182	191	7
204	206	3
213	213	26
46	46	13
236	237	3
123	158	4
150	150	11
5	35	2
59	60	6
71	112	2
20	21	1
137	162	3
123	159	2
164	165	6
4	7	1
74	74	12
25	202	2
175	204	5
153	154	5
230	231	4
64	65	3
106	106	6
11	15	8
209	211	1
36	39	3
97	97	10
220	221	2
230	230	7
5	34	2
48	48	12
106	107	6
209	209	5
171	171	4
179	234	1
191	191	10
80	80	26
241	241	6
136	136	10
123	126	3
42	43	1
197	197	12
14	14	6
238	238	9
111	111	4
19	19	16
4	34	7
138	139	9
127	127	8
10	10	17
79	80	3
208	208	10
168	193	2
136	158	3
128	146	1
216	216	12
54	165	1
140	141	3
176	176	15
128	128	14
35	35	8
19	41	3
187	187	16
158	159	8
10	239	3
207	210	2
162	163	5
166	166	26
53	54	7
174	174	11
185	186	11
34	34	10
147	147	20
73	74	3
31	31	19
29	42	1
149	150	5
155	157	2
203	206	1
236	238	5
162	162	10
47	47	11
169	170	4
166	167	3
172	172	11
31	33	2
136	140	2
19	20	1
145	166	4
141	150	6
14	19	6
134	143	5
213	231	4
82	82	10
137	137	9
131	131	10
205	222	4
219	219	20
180	180	5
25	26	4
149	149	15
42	42	10
194	195	10
1	21	3
65	66	3
9	9	17
73	76	6
2	2	10
119	125	4
42	45	7
43	43	5
155	156	1
8	24	7
8	8	10
4	35	5
80	81	6
160	160	7
117	127	1
5	5	6
163	187	3
32	32	17
118	119	8
55	64	1
23	24	4
113	114	3
216	238	7
42	51	4
51	51	8
172	173	3
229	231	4
142	145	3
236	236	16
25	161	2
201	202	2
205	206	1
138	138	9
59	59	13
72	72	19
151	151	9
105	107	2
143	151	4
220	222	5
141	143	3
237	238	2
139	139	3
155	155	8
231	232	4
96	96	7
214	230	2
4	5	3
184	190	3
196	196	10
188	199	8
22	22	9
67	68	1
95	97	2
120	120	6
26	26	9
32	41	4
159	160	8
144	145	9
84	84	13
40	42	6
198	198	17
187	198	1
228	229	6
122	123	6
80	82	6
3	38	3
141	141	16
195	196	4
180	181	3
192	192	12
20	20	12
109	109	12
202	203	3
160	183	7
1	1	10
13	23	7
69	69	9
32	33	6
58	59	3
124	126	3
44	56	5
235	235	10
9	11	1
61	62	4
194	194	6
167	167	7
30	31	10
118	126	3
150	151	5
12	36	1
16	16	12
7	9	3
233	234	9
66	67	4
209	210	4
201	201	21
1	20	3
145	146	13
1	22	4
142	142	17
75	76	1
205	205	13
102	124	1
196	197	3
123	123	8
122	124	3
49	50	3
141	153	2
182	182	7
168	168	21
105	138	1
152	152	11
225	230	6
221	222	6
116	116	9
8	52	2
79	105	1
207	208	13
111	128	2
55	105	2
69	70	5
214	215	6
106	108	1
12	13	5
54	55	5
10	190	2
127	128	5
113	113	9
74	75	10
103	104	1
18	19	1
36	37	2
150	152	1
203	204	5
133	135	1
30	42	4
98	99	3
66	211	3
217	218	9
151	162	1
45	46	17
7	22	4
238	239	5
203	203	9
123	124	5
155	158	5
62	62	21
173	176	1
160	161	5
119	126	2
104	104	5
98	100	1
168	169	3
118	127	1
137	138	3
210	213	1
235	236	4
199	206	2
71	100	6
218	219	5
229	230	1
225	226	3
101	101	7
3	3	11
1	194	1
232	232	9
2	3	4
1	9	1
136	141	2
1	3	1
122	122	12
222	223	2
111	112	4
176	177	4
175	176	4
55	70	2
149	153	1
66	200	5
148	149	1
83	84	5
115	115	10
73	75	3
77	78	4
121	122	3
121	121	7
178	206	2
185	185	6
55	56	2
81	85	1
124	125	5
1	6	2
167	168	2
26	161	2
54	56	1
200	202	1
126	126	2
219	220	3
72	73	4
227	228	7
142	143	1
119	120	3
228	230	2
115	119	2
75	78	3
136	138	3
176	188	2
67	67	11
206	221	2
161	227	5
192	194	1
140	158	3
173	173	13
7	7	8
27	28	1
98	108	1
146	148	4
50	72	1
173	177	6
193	227	2
69	113	2
168	186	1
193	196	1
135	156	2
29	63	4
7	39	3
52	52	17
20	31	2
179	192	2
69	97	1
61	121	3
31	68	4
18	33	9
152	153	1
18	20	4
154	154	6
15	122	3
70	114	1
128	145	2
11	12	2
203	208	2
218	236	2
166	185	1
44	44	7
38	39	2
238	240	2
52	53	5
20	68	5
132	132	2
71	72	1
206	212	1
155	160	1
28	54	1
187	189	1
204	205	2
145	172	1
223	225	1
200	213	2
145	147	2
183	188	2
1	7	3
147	186	3
211	212	2
0	1	3
224	230	4
58	76	4
2	6	5
147	148	3
107	107	3
15	160	1
80	106	2
134	134	9
105	106	2
19	33	5
28	47	2
128	143	2
217	228	3
78	80	1
218	238	1
147	149	2
159	159	4
135	136	1
37	38	5
109	110	2
82	83	3
162	165	2
4	14	5
113	115	1
165	167	3
78	78	3
143	160	3
173	175	2
206	232	2
60	62	1
190	191	5
99	100	1
148	172	1
165	173	2
188	189	3
130	130	6
56	68	1
15	16	2
65	134	2
1	2	3
136	137	3
30	32	5
214	232	5
77	81	1
8	23	4
136	154	2
86	88	2
192	205	1
99	103	1
18	21	1
187	188	3
104	105	1
200	212	1
23	25	1
32	56	5
123	125	1
193	194	3
33	35	1
174	187	1
195	197	2
4	6	3
126	127	1
199	200	3
55	73	2
197	224	2
81	82	2
204	219	1
174	176	4
135	135	4
9	208	2
141	145	1
197	212	3
112	112	3
149	155	1
139	140	2
168	194	3
50	74	1
214	216	1
16	17	2
62	63	1
100	101	2
206	207	2
119	127	3
137	159	1
32	37	1
46	47	4
56	71	2
43	44	1
33	53	4
166	175	3
185	190	2
167	171	4
75	79	1
18	23	1
8	9	1
124	129	1
161	172	3
78	79	1
24	26	4
144	144	2
61	73	2
49	61	1
20	232	1
139	146	1
170	184	1
27	45	1
140	143	1
135	163	2
1	8	1
22	31	3
225	228	1
157	158	2
66	70	3
202	209	1
174	175	2
12	169	1
65	68	1
45	189	1
233	235	4
18	22	1
72	117	1
27	156	1
181	182	1
96	121	1
210	211	2
72	99	1
144	147	1
64	201	1
3	6	2
181	204	1
116	118	2
58	77	2
42	44	1
135	152	2
112	199	1
53	55	2
200	211	1
180	191	1
204	221	2
203	218	1
119	123	1
20	24	1
188	198	1
47	48	1
4	54	1
224	236	1
177	183	2
130	131	1
216	237	2
208	221	1
21	212	1
5	33	1
211	213	3
183	200	1
134	161	1
227	229	1
97	98	1
165	166	2
30	63	1
2	18	1
64	67	1
219	233	1
40	41	1
11	168	2
24	25	1
119	134	1
201	209	1
49	56	1
202	213	3
191	192	1
184	185	1
183	189	1
192	206	2
76	109	1
101	122	2
25	162	1
29	140	1
233	241	1
154	157	2
110	118	1
153	155	2
172	191	1
223	224	1
35	36	1
201	214	1
104	108	1
0	200	1
128	160	1
134	140	1
187	194	1
0	6	1
70	113	1
29	37	2
161	173	1
82	95	1
198	199	1
156	158	1
128	131	1
48	49	1
46	184	1
20	32	1
232	234	1
60	61	1
108	109	1
70	239	1
117	118	1
133	134	1
92	106	1
207	220	1
