102	102	4
83	83	7
4	5	5
145	145	5
95	95	9
123	131	4
37	37	9
48	51	1
136	147	1
69	69	12
36	47	1
120	121	6
6	6	6
17	38	1
141	149	1
139	139	3
13	13	3
132	132	7
41	41	5
14	14	1
96	96	3
88	88	2
31	31	2
125	125	2
123	123	3
8	57	1
96	97	4
112	112	4
107	107	10
94	100	3
81	81	7
29	30	6
66	80	3
121	122	2
107	108	9
143	143	2
21	21	2
30	30	6
84	85	3
79	81	4
73	73	4
117	117	3
10	10	7
20	21	3
95	98	2
27	27	6
71	75	1
144	144	1
57	57	4
103	103	5
107	111	1
75	75	2
82	82	3
145	146	2
99	99	4
40	40	11
118	118	8
87	87	2
71	74	2
147	148	2
48	72	6
149	149	1
34	47	1
5	5	13
146	146	2
56	57	3
64	104	4
23	23	6
100	100	4
63	63	3
112	113	3
13	19	3
19	19	2
108	108	1
48	70	4
123	124	2
44	45	3
109	109	2
114	138	1
38	39	2
135	135	4
136	137	2
78	78	1
131	131	3
14	18	2
143	144	1
44	44	1
84	84	4
154	154	1
141	142	1
64	64	6
127	139	2
39	46	2
116	117	1
25	25	2
22	33	1
71	71	2
113	113	2
140	141	1
24	26	3
17	17	9
100	118	3
151	151	3
66	67	1
34	35	3
48	48	2
24	24	4
138	139	1
15	38	2
68	68	3
97	97	1
15	15	2
34	72	3
106	107	3
130	142	1
136	153	2
9	9	4
121	121	4
65	65	2
25	27	3
12	12	4
54	54	5
40	41	2
77	77	4
118	119	2
147	154	2
127	127	1
33	72	1
46	46	5
106	112	3
15	16	1
117	119	3
47	47	2
28	30	1
105	105	2
22	23	2
55	55	1
23	32	2
80	80	2
114	114	2
152	152	2
119	119	1
120	122	1
12	21	1
109	111	2
72	72	1
39	39	6
137	137	1
79	79	1
107	112	1
4	7	1
35	37	3
124	124	1
34	34	1
18	18	1
111	111	1
75	76	2
76	76	1
67	67	2
40	45	1
66	81	2
74	74	1
49	49	2
124	128	2
67	80	1
33	34	1
27	28	2
148	148	2
56	56	5
76	77	1
106	106	3
108	111	1
83	85	1
97	98	1
70	70	1
98	99	1
146	148	1
129	129	1
85	85	2
3	15	2
95	114	1
42	42	1
96	106	1
124	129	1
89	93	1
51	52	1
14	15	1
138	138	1
94	98	1
16	16	1
37	39	1
94	94	2
99	118	1
53	54	1
33	33	1
10	11	1
57	83	1
128	128	2
53	53	1
26	72	1
62	62	1
28	28	1
