65	69	1
67	67	2
105	105	9
66	66	8
45	45	8
83	87	1
68	68	8
58	58	3
81	81	5
51	53	1
95	95	10
57	57	7
23	23	5
97	98	3
30	30	3
26	27	7
75	75	14
78	78	7
21	23	5
84	84	4
46	47	5
31	31	10
36	37	3
80	91	1
92	103	7
50	55	2
60	60	3
92	92	7
21	22	2
87	88	3
82	84	3
80	84	1
71	99	4
94	94	7
34	34	15
62	62	10
102	102	6
40	40	9
23	24	5
25	46	3
30	37	2
96	96	13
46	46	14
77	77	5
101	101	9
80	92	2
27	27	5
35	35	10
85	85	14
102	103	1
104	105	1
96	103	2
32	32	3
70	70	8
44	44	8
74	74	11
77	80	1
21	24	3
43	45	3
26	26	11
83	83	5
69	70	2
100	100	5
51	51	2
54	54	5
87	89	6
65	66	11
29	29	4
39	39	8
93	102	1
100	102	2
28	45	5
63	69	1
103	103	4
67	69	1
69	69	3
88	88	6
77	79	2
63	65	4
45	63	3
79	79	2
24	24	6
37	63	3
84	92	3
100	105	2
39	40	1
33	33	2
22	22	6
76	76	5
57	75	1
61	61	7
22	25	2
88	89	2
41	42	5
39	45	1
94	95	3
91	93	1
42	42	13
53	54	6
57	58	1
65	65	10
104	104	8
79	80	5
49	49	2
26	61	2
93	93	5
85	90	2
32	35	2
43	43	2
69	71	1
95	106	4
27	30	1
98	98	2
50	50	8
55	55	8
48	49	4
70	71	2
33	34	1
102	104	4
95	107	5
100	103	2
31	37	3
86	88	1
55	95	2
49	50	1
41	41	3
87	93	2
24	52	1
56	56	6
52	57	2
25	25	3
52	52	4
56	75	1
64	64	5
86	86	4
29	41	1
38	38	1
62	81	2
79	91	1
94	106	3
89	99	2
63	63	5
33	77	3
46	92	1
35	36	3
20	22	3
24	38	3
63	68	1
73	104	2
89	89	5
36	36	7
95	96	2
29	40	2
72	72	1
28	28	1
31	32	2
51	90	1
86	90	2
37	37	2
103	104	1
51	52	3
65	68	3
54	55	4
82	83	5
63	67	5
51	57	3
90	103	1
101	105	1
89	105	1
53	53	3
21	21	5
90	90	2
56	57	3
71	71	3
78	79	2
53	55	1
80	81	2
106	106	6
30	39	3
52	53	1
77	82	1
96	97	3
80	80	1
56	66	1
33	36	2
100	101	1
20	20	2
82	82	4
22	42	1
59	60	5
67	77	1
59	61	2
25	26	2
68	69	1
57	62	1
55	56	2
50	51	1
77	90	2
73	73	1
85	87	2
47	48	1
28	29	2
84	88	2
55	96	1
91	92	1
78	80	1
93	106	2
51	55	1
59	59	2
82	100	1
32	33	1
87	87	1
44	70	1
76	94	1
58	59	1
73	74	1
63	64	1
57	59	1
46	48	2
45	50	1
