44	44	9
108	108	9
172	172	6
134	134	13
33	33	4
42	42	5
52	52	3
196	196	5
101	101	7
197	211	4
171	171	10
135	135	4
144	145	7
190	212	5
121	121	6
170	170	10
187	189	1
12	12	22
49	52	1
0	97	6
56	213	1
67	67	15
203	203	10
46	46	15
125	125	4
56	56	6
85	85	20
216	216	3
61	62	5
71	71	6
2	2	11
57	57	10
199	199	5
24	24	11
135	136	5
236	236	3
7	8	2
60	60	5
161	161	8
36	36	6
114	117	5
105	105	5
10	10	7
141	141	4
160	160	7
164	201	2
26	70	2
59	64	5
178	179	7
168	177	4
191	191	4
34	34	4
68	69	3
140	140	7
162	162	8
236	237	1
145	145	2
45	45	8
119	119	6
114	115	4
13	14	14
100	100	2
128	128	8
67	187	2
118	118	2
126	127	1
72	72	4
129	129	9
5	126	2
144	157	2
18	18	16
147	151	1
166	167	8
159	159	3
59	59	6
162	164	4
0	201	3
198	198	7
71	74	7
174	174	8
85	86	4
15	15	13
138	138	6
34	35	8
54	61	2
8	95	1
118	119	5
218	218	11
131	161	2
217	218	6
27	27	10
225	225	7
134	137	7
167	167	3
126	199	2
105	197	3
11	72	4
109	114	1
234	234	19
1	207	5
226	227	1
149	150	2
186	186	2
176	176	5
103	103	5
77	77	4
215	215	3
32	33	1
165	165	9
23	112	2
190	191	2
178	188	1
63	64	6
9	86	4
181	181	12
239	241	2
204	204	8
201	202	10
42	177	3
170	191	1
201	201	11
79	80	10
16	16	7
238	238	4
58	58	6
15	238	3
183	183	15
184	184	6
0	2	3
177	178	7
180	182	3
47	228	1
127	127	2
53	54	1
4	126	2
7	86	5
178	178	4
226	226	7
51	51	16
208	208	13
17	17	12
193	194	7
206	206	10
180	180	10
199	200	4
59	60	4
64	175	1
29	118	2
97	97	16
223	223	3
185	185	5
217	217	10
51	224	5
55	214	4
55	154	2
239	240	4
189	189	7
222	222	9
117	117	7
25	25	9
102	102	3
136	136	5
168	168	9
80	83	8
6	86	3
157	157	7
73	73	13
171	172	4
7	95	2
47	47	10
202	203	5
26	26	3
64	64	6
37	40	1
84	114	4
167	168	3
65	66	4
81	82	5
223	224	6
48	48	12
28	28	15
233	233	9
204	205	1
8	9	5
155	222	1
175	175	14
111	112	1
100	101	5
50	51	9
131	217	1
7	7	3
9	25	4
83	83	6
4	4	4
103	105	2
1	1	2
157	222	3
20	20	6
48	220	5
194	196	5
139	139	7
209	210	2
43	43	12
169	169	12
38	38	10
158	158	4
194	194	4
118	181	2
40	40	7
230	230	6
195	196	6
31	31	6
78	115	1
54	57	3
197	198	1
54	54	11
192	193	5
116	116	3
32	32	4
96	171	2
8	8	8
14	14	6
154	155	2
110	118	1
202	202	8
241	241	11
30	30	16
76	80	4
54	55	1
146	146	8
153	155	3
97	243	3
35	35	4
187	187	5
80	81	2
45	46	1
19	23	5
220	220	10
44	46	5
11	25	1
28	122	3
54	220	3
120	120	13
147	149	2
63	67	1
177	177	7
57	58	3
10	11	6
120	164	6
32	34	1
30	31	2
122	122	8
176	178	6
122	128	2
155	223	2
69	179	3
169	170	2
136	138	6
64	179	1
19	19	9
39	69	5
61	175	1
74	74	11
124	125	4
109	109	1
65	65	5
97	128	1
152	221	4
177	187	3
59	61	2
149	149	8
46	61	1
106	107	3
107	108	2
200	210	3
1	95	4
27	71	1
240	240	4
169	213	5
161	195	2
58	229	2
153	153	3
55	61	2
50	50	10
234	239	2
209	209	4
173	173	7
66	66	1
12	13	2
174	175	1
165	166	1
42	178	4
102	195	4
65	185	4
29	126	3
161	217	3
98	172	1
70	70	10
169	212	2
203	204	8
69	70	2
42	175	1
205	205	4
197	197	4
88	88	1
62	228	4
74	81	1
109	124	3
182	182	2
219	219	7
197	209	3
77	78	2
52	53	1
171	174	4
123	123	6
86	86	5
142	142	6
231	231	7
40	41	2
6	6	3
72	73	2
47	48	5
3	3	6
71	85	1
55	55	7
130	130	2
205	206	2
24	25	10
234	235	4
109	118	2
213	213	3
98	98	5
229	230	6
74	116	1
172	234	1
70	71	2
186	187	2
160	193	7
5	109	1
9	202	2
11	13	3
162	196	5
51	52	3
121	122	1
27	243	1
156	158	2
67	68	1
214	216	1
64	190	3
179	179	8
48	152	2
155	155	1
8	96	4
232	232	3
39	39	8
207	207	2
96	128	3
29	30	1
63	63	3
144	144	5
11	11	4
62	62	10
150	150	4
153	223	1
9	10	1
158	222	1
137	137	3
45	232	2
26	85	1
84	84	5
105	133	2
196	216	1
127	200	2
213	216	4
242	242	7
31	77	4
213	215	5
192	216	1
187	188	2
126	165	1
154	215	3
99	101	3
50	54	2
66	67	4
150	151	4
120	201	2
160	192	2
23	23	4
98	131	3
4	5	1
176	190	2
49	49	4
197	201	1
124	124	1
99	99	2
152	222	1
81	81	3
30	77	3
168	212	1
29	29	6
46	232	2
8	206	4
29	127	2
119	181	1
236	238	3
75	75	4
9	9	1
21	23	1
207	208	5
79	79	5
101	131	2
69	69	9
239	239	12
168	211	3
160	191	2
102	198	1
10	86	1
22	23	1
96	96	2
16	17	2
163	165	3
164	165	3
142	147	3
143	143	1
235	236	3
41	69	2
162	165	1
45	61	3
22	22	7
74	82	1
211	211	3
110	110	4
113	114	1
160	171	3
25	27	1
197	216	2
214	215	3
4	200	1
65	186	5
48	49	2
146	147	3
129	218	4
50	153	1
66	68	2
61	61	4
237	237	5
18	19	1
230	231	2
136	140	3
9	26	2
44	175	6
129	131	1
217	219	1
231	232	1
104	105	4
98	128	1
50	159	1
115	117	2
46	231	1
200	200	2
104	104	3
197	213	1
25	26	1
73	178	1
110	127	1
155	157	2
177	182	1
51	158	2
194	195	3
5	5	4
189	190	3
52	58	2
166	166	4
12	14	1
73	74	2
29	119	2
97	170	2
196	208	1
120	127	2
95	95	3
43	70	1
125	127	1
8	108	3
193	193	3
106	108	1
240	241	1
235	242	2
201	208	1
178	183	1
136	141	3
54	214	1
86	122	2
127	201	1
32	38	2
147	147	3
0	0	2
6	7	1
84	112	2
27	96	2
77	181	1
14	15	2
60	61	3
151	151	2
173	232	1
229	229	1
235	235	2
20	23	1
228	228	1
182	184	1
105	198	1
173	233	4
159	214	3
130	160	1
51	159	1
133	133	4
176	187	4
41	41	2
2	3	3
10	25	3
70	73	1
173	174	4
37	37	6
105	207	1
64	65	2
115	115	3
98	171	1
178	189	2
36	37	2
188	189	1
65	68	1
109	117	2
89	89	2
224	224	2
10	28	1
33	41	1
198	242	1
212	213	1
27	128	2
10	128	1
139	140	1
133	135	1
71	72	1
18	21	1
103	135	2
144	195	2
222	227	2
160	195	1
62	63	2
109	110	2
142	143	1
57	195	2
160	219	2
104	133	1
152	152	1
76	76	1
46	62	1
126	126	3
122	127	3
53	53	2
31	33	3
65	67	1
130	218	1
121	180	1
76	77	1
54	192	3
20	24	2
81	83	2
97	171	1
180	181	2
109	127	2
159	220	1
103	104	1
53	58	1
35	39	1
191	212	1
49	50	1
119	123	1
18	20	2
115	118	1
100	130	1
124	126	1
44	45	2
27	97	1
78	78	2
210	210	1
181	182	1
221	221	2
50	225	1
68	68	1
107	107	1
184	186	1
163	166	1
132	132	2
118	180	1
102	103	2
65	178	1
78	79	1
156	156	1
38	39	1
192	192	2
19	20	1
65	175	1
129	130	1
117	123	1
131	131	1
192	194	1
3	73	1
110	122	1
161	208	2
102	134	1
122	123	1
191	216	1
147	148	1
77	79	1
165	200	1
