1	1	13
23	24	3
13	13	27
108	129	2
82	85	1
107	117	2
114	114	7
6	39	3
64	64	11
27	28	3
130	130	14
68	68	7
6	10	4
87	88	5
101	101	2
102	102	8
15	15	5
71	71	2
69	83	7
39	41	5
128	129	2
81	89	5
88	88	10
128	128	7
23	26	6
22	24	4
13	14	4
75	75	13
131	136	1
100	101	4
9	10	2
73	73	10
19	19	13
20	32	1
24	25	10
15	25	4
108	133	3
84	85	3
1	2	3
109	109	5
98	98	6
113	114	2
8	8	6
89	89	7
113	113	5
105	128	6
47	47	7
14	14	10
30	37	1
11	11	8
76	100	4
138	138	8
31	31	5
138	141	2
123	127	1
143	143	4
84	84	5
17	17	11
36	37	2
83	85	5
22	22	4
57	57	18
49	49	13
78	82	6
83	83	5
134	135	2
27	27	4
52	53	7
113	128	3
118	133	4
104	108	2
82	83	2
50	51	6
41	41	6
76	76	16
95	126	3
16	16	5
6	12	4
6	115	4
101	103	3
135	135	10
67	70	9
88	89	3
9	9	7
7	12	1
4	14	2
41	42	15
17	19	2
127	127	6
126	126	7
48	48	16
123	123	8
138	139	4
21	21	9
105	110	4
94	94	7
114	116	4
97	97	1
131	131	5
91	91	4
141	142	5
103	103	9
19	34	1
99	99	5
133	133	12
120	122	5
20	22	2
115	115	2
23	23	6
139	139	4
103	118	1
60	87	2
1	23	2
134	134	5
3	3	2
120	120	11
142	142	6
112	112	9
79	89	3
141	141	7
111	113	1
63	64	3
122	122	5
26	113	3
51	60	3
104	104	13
67	69	2
84	100	1
101	102	10
53	54	7
110	110	17
91	97	5
95	97	5
62	66	5
64	66	4
9	32	2
42	42	7
4	6	3
120	121	3
47	54	2
139	140	2
6	17	3
93	94	3
62	62	11
66	66	14
115	117	3
4	5	7
33	33	18
119	119	8
58	58	10
72	72	5
47	55	2
33	35	1
59	61	2
15	17	4
67	79	5
75	84	4
84	97	3
132	135	6
67	78	2
1	20	2
60	73	2
73	74	4
85	87	2
89	94	1
112	113	3
79	79	4
75	82	3
51	51	3
52	52	11
107	108	4
55	57	3
119	136	5
113	119	7
90	90	5
117	117	3
20	20	16
114	129	9
27	41	5
32	33	8
93	93	7
62	63	1
0	1	9
16	20	1
90	130	1
129	134	6
63	65	2
8	12	5
31	34	2
35	35	10
70	70	12
88	97	1
2	2	13
116	117	3
140	140	8
35	50	5
96	112	3
3	4	4
125	128	3
108	112	2
38	42	5
93	131	2
121	144	4
56	56	6
80	106	1
59	60	1
116	116	9
32	32	4
0	0	4
49	51	1
145	145	8
72	73	2
96	97	1
132	134	1
27	34	3
18	19	2
114	126	2
40	43	2
50	50	6
129	129	8
61	61	6
66	77	1
20	21	4
137	144	1
73	87	3
49	50	1
25	25	2
95	95	4
43	43	4
69	69	20
143	144	2
60	79	1
106	122	2
107	107	3
136	137	3
132	132	4
131	135	1
85	85	3
127	130	3
80	80	3
80	82	1
91	99	1
86	86	4
129	144	1
56	68	1
26	27	5
53	79	2
78	85	2
28	40	1
4	42	2
118	118	5
73	90	1
29	41	5
37	37	5
24	24	6
128	132	5
34	49	3
22	39	6
30	30	3
17	18	5
95	131	2
99	101	3
74	74	1
5	5	6
76	77	3
70	85	2
10	10	8
54	67	3
96	96	7
137	137	9
57	58	1
69	70	2
67	67	7
65	82	2
58	60	2
115	116	2
53	53	6
49	121	6
119	133	2
137	138	3
59	59	5
32	85	3
2	18	2
136	136	13
138	140	4
87	87	5
14	15	2
105	106	4
106	113	3
116	128	1
100	100	9
28	28	5
29	29	11
83	86	1
74	87	2
108	108	12
121	121	2
27	42	5
71	74	1
52	56	3
54	54	2
105	120	2
107	119	2
101	116	3
47	48	2
72	105	3
34	34	2
97	127	2
17	20	1
35	43	1
71	73	2
71	79	1
33	36	3
70	93	1
50	63	3
99	124	4
114	115	1
51	52	1
38	41	3
70	82	2
68	71	2
1	22	1
124	130	2
78	78	3
110	111	5
92	95	2
68	69	1
78	84	2
115	119	2
72	90	1
13	29	1
5	25	3
64	65	2
92	92	9
144	144	1
14	16	2
140	141	6
81	81	11
60	60	7
74	96	1
0	2	1
67	74	1
48	85	1
108	118	2
95	96	2
104	105	2
97	99	1
31	41	3
87	89	1
111	111	3
19	20	1
84	96	2
63	63	5
127	128	3
92	93	1
142	143	1
61	62	2
48	87	2
18	18	2
119	132	1
26	26	6
23	29	1
137	141	4
5	6	4
0	22	1
74	75	2
6	38	5
106	106	2
89	90	5
133	140	2
58	65	1
125	127	2
79	80	2
58	63	2
138	143	2
47	49	1
8	9	3
109	111	3
42	104	1
94	95	7
116	129	2
27	30	1
87	101	1
103	117	3
106	121	3
16	17	4
97	130	3
56	69	1
61	63	2
127	129	1
61	73	1
73	84	4
105	127	1
88	91	2
105	105	5
126	130	1
82	82	1
58	59	2
74	77	1
68	70	1
135	137	1
110	128	1
125	129	1
71	89	1
85	86	1
122	133	1
6	11	1
117	129	1
50	121	2
83	84	3
134	139	1
99	100	1
3	18	2
102	112	7
25	35	1
78	94	2
35	37	1
94	102	1
40	40	4
65	65	2
98	99	1
81	83	2
72	79	1
34	36	1
91	107	1
118	119	1
2	8	1
27	40	2
78	107	1
61	78	1
49	53	2
36	36	2
72	86	2
58	78	2
120	137	1
20	34	2
114	118	3
5	39	2
32	34	3
69	72	1
85	144	1
125	125	1
4	4	2
8	20	1
108	119	2
103	112	1
10	11	2
36	132	1
77	87	2
2	6	3
52	54	2
121	123	1
32	35	2
47	62	1
102	103	2
74	84	1
128	130	1
66	67	2
3	13	1
73	75	1
79	84	1
58	79	2
120	138	1
90	97	2
88	107	2
73	78	1
54	102	1
37	39	1
5	13	1
146	146	2
65	86	1
51	57	1
77	77	2
6	6	2
118	120	2
97	98	1
55	56	1
102	107	1
34	35	1
124	131	1
50	66	1
37	38	1
59	63	1
52	66	1
4	34	1
42	43	1
51	54	1
116	125	1
51	64	1
77	79	1
126	138	1
