123	123	4
130	130	3
46	47	4
29	80	3
56	57	3
139	142	1
136	136	5
127	134	2
81	83	5
130	136	7
14	14	8
33	145	4
118	119	4
38	39	1
69	69	7
19	19	7
139	146	1
68	68	10
145	145	3
37	106	1
62	62	6
65	67	3
16	37	3
7	7	7
24	24	15
28	29	8
50	50	6
39	39	9
124	124	7
4	6	3
41	41	7
70	70	12
150	151	2
149	149	3
103	103	4
16	16	13
67	71	2
119	119	12
78	78	4
97	98	4
96	96	15
94	110	5
5	102	2
34	34	3
24	84	3
6	6	7
46	46	6
15	15	11
17	17	6
35	35	7
13	13	28
142	143	2
33	33	7
48	48	8
85	105	4
116	117	4
32	93	4
26	26	2
118	118	17
78	144	2
131	131	5
23	24	4
138	138	6
79	79	5
94	94	4
105	105	5
120	120	9
62	67	2
101	102	4
54	55	2
120	121	9
98	98	8
40	40	9
154	154	5
8	23	4
94	105	1
12	20	3
129	129	6
117	117	2
83	85	4
116	116	9
125	125	7
134	134	12
3	3	1
82	82	5
5	6	1
122	122	5
93	93	6
32	32	5
117	118	4
86	86	3
93	94	3
44	48	2
78	146	3
144	144	2
129	138	3
123	124	7
109	109	7
82	109	3
128	129	2
83	83	1
131	132	2
90	144	3
93	113	2
11	11	4
44	44	5
133	133	9
53	53	10
107	148	2
114	114	16
56	56	2
113	114	1
67	67	6
9	39	4
23	23	14
30	30	9
55	79	2
49	49	7
65	66	2
29	100	2
43	44	3
85	86	5
103	147	2
137	137	10
87	87	8
45	45	4
21	22	4
108	110	3
62	146	2
152	152	3
9	51	2
57	57	5
71	76	5
30	31	1
111	111	8
42	43	10
72	72	1
80	80	2
142	142	11
25	96	1
102	102	2
36	107	2
150	150	4
20	20	2
4	8	3
21	21	5
22	28	2
76	76	7
31	31	10
10	11	4
140	142	3
22	22	8
97	97	6
95	95	5
126	126	5
75	75	4
83	84	2
73	108	1
53	54	5
10	10	1
24	107	2
96	99	2
27	27	8
86	105	1
50	51	1
132	133	6
40	71	3
132	132	5
81	119	4
34	35	5
113	113	4
107	108	1
112	112	1
142	145	1
141	142	3
104	108	1
135	135	5
115	115	9
41	67	4
5	5	8
100	133	3
22	36	2
7	12	6
62	80	3
4	5	2
9	9	7
143	143	4
38	38	8
92	92	5
114	118	2
5	101	5
77	77	4
7	8	3
86	143	4
71	71	8
5	74	3
121	121	2
93	104	2
106	106	7
64	74	2
11	21	2
68	74	4
149	150	3
153	153	4
50	52	2
74	109	3
103	104	3
98	100	2
40	41	6
51	51	1
140	141	3
31	32	1
86	88	1
99	99	7
43	43	3
50	63	4
133	134	2
53	77	3
6	7	1
92	93	5
81	81	2
136	147	3
151	152	1
22	27	1
53	55	1
8	8	12
27	30	4
146	147	4
7	57	1
69	75	4
20	39	1
24	25	1
13	20	4
7	75	4
123	125	1
35	57	2
25	25	4
100	101	2
125	126	1
54	56	1
73	118	1
119	127	1
57	146	2
36	36	8
22	29	1
128	128	3
25	30	3
75	144	3
96	101	3
62	64	1
70	75	1
29	29	5
35	58	2
93	95	1
108	145	1
54	54	4
119	120	2
26	153	2
98	99	1
121	137	2
34	36	2
120	141	1
99	100	3
12	12	2
100	103	1
20	21	3
22	30	1
94	104	1
47	47	3
92	104	2
77	78	3
34	65	2
100	100	3
24	53	1
77	79	3
13	39	2
2	2	1
128	141	1
15	16	3
65	65	3
26	97	2
144	145	2
53	57	1
146	149	1
39	40	1
84	84	1
116	134	1
68	75	1
55	57	1
143	144	1
143	150	3
88	88	4
147	148	1
118	133	3
128	137	2
48	51	3
105	146	1
88	89	1
96	152	2
37	37	2
114	115	1
77	90	2
66	142	1
111	144	5
87	88	1
66	66	3
21	36	4
132	135	1
132	136	1
42	42	1
68	71	1
16	39	1
48	49	2
147	147	5
10	47	1
17	40	2
127	140	1
144	146	2
32	103	1
108	108	1
141	141	1
63	63	2
37	38	1
125	154	1
34	57	1
66	143	1
64	67	2
46	48	1
127	127	1
110	110	2
80	125	1
6	64	1
93	107	1
48	52	1
26	27	1
35	52	1
21	23	1
54	109	2
5	7	1
90	90	2
16	19	1
139	141	1
143	149	1
86	104	1
105	145	1
4	4	1
82	83	1
33	35	1
8	51	1
106	111	1
63	113	1
106	145	1
16	18	1
54	75	1
14	18	1
64	64	2
71	123	1
67	80	1
146	146	1
149	152	1
63	77	1
14	20	2
