84	84	12
25	25	17
180	180	9
173	173	9
11	11	12
13	13	21
83	84	4
143	143	14
54	67	1
101	101	11
110	110	23
59	59	11
56	56	16
32	32	19
71	71	6
117	117	7
22	43	5
12	12	19
97	97	12
177	177	9
75	75	11
141	143	1
73	73	11
179	179	17
146	146	20
73	74	6
115	115	10
108	109	6
41	41	13
151	151	15
133	133	12
187	187	11
93	94	2
78	81	4
125	125	11
115	120	4
158	158	21
48	53	4
92	92	7
87	87	17
38	38	15
166	184	6
97	146	11
7	7	28
68	68	17
18	19	5
19	19	11
145	145	18
100	123	1
0	1	3
4	4	18
16	16	27
34	34	9
31	33	4
140	140	31
110	113	4
61	64	4
86	86	14
123	123	7
168	168	17
169	169	29
162	162	5
59	68	2
38	77	4
2	2	19
63	63	12
4	40	1
85	85	13
21	97	4
130	133	5
24	24	14
126	138	1
61	62	3
80	88	5
169	186	6
90	91	13
29	29	11
153	157	10
149	168	1
104	164	1
54	54	22
14	15	5
112	112	5
166	166	15
21	21	15
111	115	2
99	99	5
107	107	13
161	162	2
12	37	2
141	183	1
70	71	14
55	56	8
19	36	5
171	187	5
154	155	4
45	45	11
96	96	24
15	15	12
186	186	11
83	83	21
139	139	3
77	77	15
78	79	2
101	102	1
90	90	16
39	39	11
28	30	8
156	156	8
103	103	4
9	9	9
91	91	6
138	139	4
173	174	9
93	93	5
130	131	7
104	104	7
185	185	21
22	22	11
4	5	2
17	47	3
149	151	5
14	46	8
73	80	2
156	157	8
14	14	4
7	40	4
129	129	8
26	26	10
80	83	4
53	53	14
127	127	7
20	22	3
26	34	2
150	150	19
135	136	5
131	149	5
155	155	13
3	4	4
131	131	2
184	184	22
47	47	10
23	23	13
44	44	20
90	154	2
58	58	13
94	94	7
10	12	7
164	164	4
148	151	6
135	137	3
95	95	20
175	189	8
171	185	2
18	18	15
126	126	11
73	79	3
108	116	6
166	168	4
168	169	3
48	48	12
15	46	10
121	154	2
151	154	2
33	57	2
13	17	8
113	113	13
81	81	6
132	133	3
10	11	2
36	58	5
144	145	1
144	150	3
133	152	5
111	114	1
147	147	9
92	93	2
80	80	8
33	34	5
175	175	11
113	154	2
88	88	6
79	81	10
105	106	9
22	23	3
134	134	10
137	151	5
27	28	9
0	0	20
33	33	6
146	155	3
143	145	6
152	152	10
43	43	12
130	130	2
120	120	10
1	3	4
153	156	1
153	153	10
36	36	5
142	142	11
5	47	5
32	33	4
137	138	5
114	120	4
86	88	2
147	148	4
144	156	2
65	77	5
121	121	9
15	19	1
126	127	6
176	182	1
70	81	5
88	89	5
149	149	21
137	137	12
136	136	3
89	89	8
116	119	5
176	177	7
86	104	5
178	181	3
6	6	14
23	24	8
18	20	3
79	80	4
102	102	9
10	14	4
159	162	1
25	26	6
109	110	3
17	17	27
28	28	13
42	42	19
166	169	3
64	64	9
16	31	3
132	132	6
82	82	7
171	172	4
94	95	10
76	91	1
178	179	4
67	67	14
1	1	13
28	29	4
104	139	2
78	78	8
22	47	5
109	117	4
35	39	2
53	54	4
96	107	1
118	118	10
27	27	8
57	57	14
131	132	3
154	156	2
175	176	3
25	38	4
144	144	13
76	85	1
5	46	1
27	29	4
18	79	2
79	79	9
147	151	2
158	159	7
21	75	2
177	181	5
72	73	6
66	79	5
10	10	11
35	35	7
81	83	3
91	156	1
30	30	10
167	167	5
134	164	3
159	159	9
138	182	4
44	46	3
147	159	1
21	22	1
67	68	2
147	156	3
72	72	18
160	160	7
138	138	14
74	74	18
128	128	9
121	143	4
174	174	8
117	119	2
133	135	2
159	160	5
112	117	5
43	44	2
134	135	7
22	48	3
76	76	9
87	88	1
124	124	6
118	124	1
172	179	2
119	119	5
58	103	2
116	116	5
63	65	5
74	82	3
106	106	2
172	172	8
181	181	14
174	175	4
188	188	9
86	96	3
15	17	2
151	153	1
71	84	3
40	40	11
21	100	2
5	79	2
108	133	5
161	163	4
61	61	7
119	120	4
6	46	3
52	52	2
62	66	6
9	11	3
75	86	2
106	135	2
89	110	2
111	111	10
169	170	11
185	186	1
136	137	5
146	148	5
90	109	2
34	35	1
141	174	2
73	75	1
148	148	10
12	18	3
149	150	1
163	163	20
20	21	7
18	23	1
99	147	3
46	46	7
190	190	5
17	30	6
27	30	2
82	83	2
81	82	1
103	104	3
18	28	1
182	182	19
157	157	15
80	81	1
106	161	2
87	104	2
108	108	9
12	19	1
26	27	6
98	98	13
165	165	7
24	44	4
23	27	3
40	44	6
3	3	1
84	85	2
95	96	4
55	58	3
76	90	5
116	127	3
152	157	1
66	67	3
107	110	1
122	123	4
69	69	8
167	168	4
152	153	2
154	154	7
89	103	3
37	38	2
70	70	2
170	177	2
91	95	1
185	187	1
165	184	2
52	53	7
8	13	3
153	154	3
7	74	6
118	119	1
56	61	4
90	95	1
20	20	5
142	143	6
68	79	1
161	161	7
141	142	6
170	170	5
117	118	3
74	93	3
122	122	7
165	176	2
71	73	1
176	176	5
21	32	5
54	55	9
155	180	2
15	28	1
188	189	8
140	176	4
41	58	2
144	151	5
78	83	1
178	178	4
143	177	4
158	178	3
22	32	2
140	181	1
134	137	3
92	95	4
62	62	6
183	184	2
8	8	2
150	151	1
131	150	4
109	109	9
29	30	1
72	89	1
13	14	3
177	180	2
66	95	2
20	49	3
43	58	3
3	5	1
77	78	2
147	150	2
107	162	4
22	76	2
61	69	1
123	125	2
70	83	1
107	108	8
97	98	2
60	71	1
144	183	2
127	128	7
90	156	2
100	106	3
1	2	4
90	93	3
183	186	4
78	82	3
8	11	4
98	140	2
117	130	3
62	63	2
183	183	13
112	114	2
148	149	2
84	94	4
123	124	3
117	124	2
90	102	1
43	55	3
65	65	2
172	187	2
1	78	2
95	99	2
157	162	2
14	23	1
108	146	1
19	20	8
177	179	2
2	76	1
30	31	1
141	141	2
91	108	1
111	113	1
116	121	2
82	87	1
115	116	2
59	60	2
126	178	4
41	43	3
104	112	4
114	115	4
6	40	1
147	169	1
30	33	1
5	6	2
110	129	1
53	84	1
45	46	7
35	37	2
109	111	2
17	145	1
74	75	1
1	57	3
125	126	2
13	23	5
100	100	7
131	136	1
8	84	2
36	37	1
95	160	2
93	100	1
120	123	1
171	188	2
162	163	1
16	17	2
21	53	1
39	61	2
76	88	1
96	97	1
83	89	2
139	181	4
95	108	1
167	172	1
189	189	2
107	109	4
184	185	1
155	156	3
4	94	4
171	184	4
108	119	1
146	170	1
105	105	2
172	188	2
59	61	1
159	179	2
55	55	3
134	136	1
88	103	1
171	171	1
24	28	1
177	182	1
16	18	2
181	182	1
145	146	2
84	98	2
34	78	2
124	129	2
7	78	2
151	152	2
123	127	1
12	13	3
17	23	5
66	90	1
65	67	2
5	5	4
30	39	2
6	10	1
144	182	1
13	60	1
71	72	3
135	135	1
21	145	1
129	153	1
31	31	3
104	105	2
147	166	1
17	46	2
166	167	3
93	99	2
6	12	1
90	157	1
164	165	1
168	187	1
147	149	1
64	93	2
40	61	3
121	122	2
113	115	1
108	143	1
27	31	1
118	126	1
146	180	1
102	103	2
160	161	1
43	146	5
174	187	2
153	163	3
165	182	3
38	42	1
53	67	1
140	141	4
114	114	1
129	136	1
93	95	2
125	127	1
70	85	1
3	63	1
123	149	2
93	101	1
76	100	1
141	148	1
115	121	1
47	48	1
158	160	1
7	81	1
75	100	1
140	148	2
130	136	1
59	65	1
17	18	1
25	28	2
140	142	1
43	97	2
34	77	1
159	178	2
182	183	1
122	143	1
37	37	1
139	140	1
16	45	1
80	82	1
63	72	1
172	190	1
56	57	1
91	93	1
125	178	1
104	111	1
91	102	1
69	70	1
60	60	1
163	164	1
130	132	1
31	32	1
84	97	1
