93	94	4
91	91	3
31	31	14
59	59	7
90	90	20
103	104	3
36	36	5
59	60	5
66	66	4
38	99	4
46	46	12
47	49	2
21	21	11
33	33	16
91	92	1
27	28	10
63	63	6
43	43	15
76	77	4
75	108	2
20	20	14
51	66	4
65	65	6
34	35	2
67	67	14
31	39	2
39	83	1
79	79	6
55	55	6
99	99	24
27	27	15
62	63	5
37	37	17
40	99	1
88	89	3
72	73	3
58	58	4
19	19	3
75	76	3
34	36	6
96	96	16
38	38	5
93	93	11
105	105	9
51	52	3
63	71	1
111	111	10
32	33	2
45	45	12
56	57	5
60	61	1
38	39	8
61	61	14
37	39	6
89	90	1
25	25	12
72	72	13
32	32	3
74	74	11
78	80	2
97	97	10
77	77	15
53	55	2
80	80	3
50	50	15
21	23	1
35	35	11
57	58	9
26	32	2
26	26	4
42	44	4
57	57	5
101	101	12
105	106	4
78	78	18
49	49	12
74	75	4
82	84	1
39	39	10
99	100	1
75	80	2
73	74	2
85	87	2
71	71	3
51	51	14
84	85	2
47	47	7
102	102	11
63	64	4
82	82	3
87	90	1
61	62	7
98	98	10
72	99	1
56	56	6
66	67	3
69	71	1
107	107	5
77	78	3
23	23	5
103	103	4
42	42	4
48	48	9
30	30	11
44	44	17
75	75	16
24	24	12
106	107	4
73	79	2
49	51	1
100	113	3
53	53	2
48	49	2
58	60	2
95	95	10
112	112	5
113	113	3
30	31	4
20	21	2
27	113	2
69	108	5
29	29	7
40	40	5
80	81	2
23	30	2
39	40	2
47	51	6
54	55	7
52	52	1
29	89	3
67	72	2
34	34	1
70	111	1
100	100	13
49	50	2
54	54	3
62	62	4
72	111	3
109	109	3
67	70	3
77	79	2
69	69	6
33	34	4
104	104	4
22	29	2
109	110	6
38	98	2
76	76	5
22	22	6
37	38	5
92	92	1
27	29	4
21	50	1
36	37	1
31	32	2
24	42	2
102	103	3
84	84	5
28	28	6
61	91	4
87	88	3
44	45	3
41	41	7
110	110	4
54	74	1
48	111	2
92	113	2
43	53	2
74	77	2
47	111	4
22	23	2
91	93	1
112	113	4
81	82	1
50	51	5
60	62	3
71	84	1
39	98	1
89	91	5
96	97	3
35	72	3
45	51	2
50	98	2
68	69	3
76	108	4
38	40	1
86	86	1
70	70	3
48	76	1
114	114	2
60	60	9
108	108	1
90	91	3
43	44	2
41	91	2
48	50	3
73	73	8
46	51	2
45	46	4
41	87	2
100	101	3
64	65	1
94	94	3
34	101	1
65	106	2
71	72	3
89	89	1
32	35	1
94	95	2
83	83	5
68	68	3
101	103	2
110	112	1
32	34	4
81	81	3
63	68	1
64	64	1
62	97	1
62	64	2
50	89	2
48	88	2
52	86	1
63	65	1
88	88	3
89	109	1
95	96	1
25	30	1
65	66	1
69	70	1
40	41	2
28	61	1
97	98	1
25	31	1
45	50	1
105	107	2
72	93	1
104	112	1
104	105	1
23	24	2
60	72	1
101	102	1
113	114	1
95	98	1
87	91	1
24	100	2
76	84	1
53	54	1
32	67	2
59	61	1
58	59	2
107	108	1
42	43	1
51	60	1
52	89	1
98	99	1
92	93	1
52	66	1
