126	126	8
29	29	6
54	54	4
12	12	4
28	28	7
111	140	3
111	112	8
106	106	10
113	113	4
151	151	8
173	173	10
81	123	2
139	139	11
4	5	3
24	24	3
77	77	4
75	75	4
64	64	5
134	134	2
187	187	7
62	63	3
59	59	7
21	21	4
183	183	5
22	24	6
102	110	2
87	87	4
76	76	7
53	53	6
131	132	4
10	10	1
45	45	4
27	27	4
62	77	1
37	38	5
158	158	2
68	68	3
154	154	3
103	103	8
156	157	3
101	101	4
43	43	5
118	122	3
161	161	8
180	181	5
178	181	2
175	175	4
177	178	4
141	152	4
72	72	4
131	131	7
119	119	1
185	185	14
19	19	5
16	16	3
70	72	2
90	91	3
140	140	4
7	24	1
45	46	4
2	2	8
123	123	3
67	70	4
105	106	3
56	56	1
120	121	1
61	61	2
171	178	4
159	159	1
190	190	2
46	47	3
142	149	3
166	169	8
123	141	2
14	14	1
160	168	5
77	115	3
142	142	6
122	122	6
138	138	9
115	115	2
33	34	4
160	160	3
109	110	4
96	97	4
6	6	5
1	2	4
27	44	2
11	11	5
148	153	1
91	91	9
18	19	3
41	41	6
187	188	5
66	66	5
39	39	5
68	76	1
101	102	1
129	130	5
156	168	1
162	162	5
60	60	7
153	153	2
127	127	5
168	168	6
7	7	4
156	156	3
78	94	1
144	177	3
172	172	14
46	63	1
37	37	8
182	182	7
26	44	1
125	125	3
164	185	3
99	100	1
163	163	4
34	35	2
74	74	6
77	80	3
181	183	2
33	35	2
108	108	2
14	17	1
171	175	1
107	117	2
38	38	2
108	121	2
32	32	3
78	79	1
99	99	2
92	93	5
65	65	7
58	61	3
139	181	3
132	133	3
144	144	1
29	30	3
9	9	3
184	184	9
70	70	2
13	16	2
32	33	2
26	43	2
105	107	2
174	174	2
89	95	2
98	98	2
44	47	4
92	92	2
165	165	4
138	139	9
97	99	1
44	44	11
129	137	3
141	149	2
42	45	1
111	111	3
88	88	4
116	116	5
95	95	4
40	41	2
25	25	5
79	94	3
66	88	2
107	108	1
25	97	2
141	141	3
129	129	4
147	147	1
127	140	1
73	105	4
22	22	9
81	81	3
140	141	1
56	57	2
164	164	5
171	171	3
67	67	1
113	115	1
33	61	1
107	131	3
102	102	2
108	124	1
107	107	5
180	180	6
0	0	3
145	145	1
186	187	2
143	143	3
81	144	1
108	184	2
81	82	1
152	152	8
156	162	2
17	38	3
39	84	1
98	100	1
31	31	3
135	137	4
36	48	3
139	140	3
137	138	5
16	17	1
48	99	2
40	42	2
93	93	6
20	21	2
33	33	4
136	186	1
156	158	1
124	124	6
4	4	1
57	59	2
133	134	1
5	6	1
97	122	3
17	39	1
146	147	1
121	121	1
71	71	3
126	128	4
91	93	3
2	97	3
176	176	1
66	70	2
78	93	1
166	166	3
23	23	1
96	122	1
84	85	3
103	110	1
3	3	2
89	92	1
177	179	2
8	20	3
164	186	1
82	82	2
46	100	2
89	89	4
186	189	1
112	120	1
36	36	1
163	165	1
5	5	4
24	44	2
129	133	2
120	122	1
109	168	2
188	188	1
10	12	4
114	184	2
31	46	1
103	105	1
131	167	2
142	143	2
86	86	2
123	131	1
85	85	3
167	167	4
71	77	2
98	123	1
110	125	1
90	90	2
120	120	1
109	109	1
108	128	3
78	78	2
103	104	1
35	35	2
148	148	1
136	136	1
169	169	2
119	125	2
105	105	3
83	83	2
151	178	2
171	176	1
104	104	1
14	18	1
137	137	1
182	185	5
10	11	1
169	170	1
126	127	1
155	156	1
100	100	1
132	132	2
14	37	1
170	171	1
55	55	2
104	105	1
30	31	2
22	33	2
170	174	1
15	15	1
15	16	1
23	33	1
75	76	1
150	150	2
82	83	2
55	76	1
79	79	1
128	129	2
26	26	1
80	81	1
34	36	1
48	48	1
186	186	2
8	8	1
13	21	1
73	73	1
114	116	1
149	149	2
62	78	1
152	153	2
59	60	2
58	62	1
106	109	1
58	58	1
177	186	1
84	84	1
16	38	2
63	63	1
58	63	1
10	15	1
31	43	1
94	94	1
135	135	1
