61	61	10
51	64	1
79	79	2
47	49	4
18	24	3
22	23	4
26	26	5
54	77	5
20	20	11
57	74	3
65	65	5
47	48	7
14	14	7
59	59	3
4	4	3
10	10	20
84	84	4
69	78	5
60	60	7
34	34	2
50	57	1
11	12	1
34	35	3
70	70	3
30	30	9
65	77	3
48	48	3
54	54	3
89	89	12
15	16	5
51	51	13
47	86	1
7	8	6
48	84	2
25	25	2
73	88	2
56	56	9
17	17	11
20	21	3
29	29	2
51	52	3
26	28	4
50	50	2
65	66	3
46	46	4
68	68	9
63	64	5
72	74	2
86	86	8
59	60	3
4	5	1
75	75	5
58	58	4
48	69	1
10	27	4
73	73	7
58	64	1
54	67	2
31	31	3
57	57	5
81	81	5
6	26	1
12	31	1
83	83	3
78	78	6
86	87	3
16	16	1
71	71	5
34	83	7
15	15	3
1	1	5
8	10	5
75	81	2
61	64	2
66	68	6
0	30	3
67	67	5
59	82	1
60	77	1
76	76	6
57	58	1
69	90	1
46	65	3
12	17	2
16	18	3
5	5	3
3	47	4
24	24	2
47	65	3
0	0	3
6	6	6
72	73	8
23	24	5
55	55	3
3	3	4
63	67	1
56	79	2
16	17	1
71	75	3
11	11	4
61	62	5
81	82	1
66	73	3
34	61	3
18	18	1
50	51	1
11	78	2
54	60	3
50	52	7
77	77	4
53	53	5
58	60	1
28	28	5
76	77	7
7	7	6
48	65	3
64	65	1
49	66	5
46	61	3
56	57	4
85	87	1
49	50	3
19	19	11
48	58	4
5	24	2
58	78	3
11	17	2
9	9	7
10	24	3
58	82	2
11	27	1
59	84	4
65	82	1
52	52	5
54	56	2
2	2	5
48	49	2
69	85	2
2	9	1
85	85	2
56	69	2
60	82	1
59	61	1
22	24	2
13	13	6
1	2	6
22	22	4
1	4	3
53	55	4
18	69	2
74	82	2
31	59	3
20	22	3
23	23	2
74	74	1
12	13	2
55	87	1
55	63	1
57	63	1
70	89	2
68	74	1
46	47	1
14	59	1
47	85	1
9	10	3
46	63	2
69	69	1
17	32	2
68	84	2
65	79	3
9	88	1
56	84	1
85	89	1
72	72	2
5	6	2
7	13	1
17	20	2
57	66	1
72	76	1
6	12	1
64	64	6
60	80	2
27	28	1
3	4	1
16	33	1
19	20	2
78	82	1
51	57	1
54	62	1
63	63	1
17	31	1
18	20	1
56	78	1
23	25	2
49	49	1
79	80	1
12	12	2
55	57	1
58	62	1
55	78	1
66	66	2
12	27	1
76	82	1
67	68	2
87	90	1
6	27	1
15	31	1
17	49	1
48	70	1
53	72	1
