24	24	14
12	14	5
2	28	3
88	88	19
86	86	24
78	83	5
65	65	15
13	13	8
55	61	3
73	73	12
80	80	2
6	35	5
47	48	5
15	15	2
51	53	4
10	10	6
50	51	7
85	86	11
67	68	10
63	63	9
59	61	4
81	81	12
67	69	4
11	11	18
64	64	5
3	3	7
19	19	17
54	55	7
70	70	10
7	8	10
67	67	16
53	53	11
59	59	8
82	82	8
77	81	1
17	54	9
72	72	5
22	23	1
55	63	2
89	89	12
25	25	8
7	26	4
16	18	5
51	51	4
21	23	8
66	66	21
2	2	8
0	1	5
3	12	1
7	20	1
77	83	14
50	55	4
61	61	8
8	8	5
0	0	10
57	57	17
58	58	13
21	21	4
29	30	6
23	23	10
54	54	14
70	71	2
83	83	4
49	49	6
60	60	13
62	62	11
31	31	15
50	54	2
6	6	11
56	56	4
4	4	18
34	66	1
88	89	1
18	22	1
12	12	7
7	7	6
1	1	10
5	25	2
51	52	3
48	48	5
49	69	2
82	83	2
78	78	11
65	66	1
9	10	1
68	74	1
73	80	2
73	74	6
16	16	4
77	84	6
76	77	4
52	52	8
52	54	2
74	86	1
14	14	3
58	64	4
69	80	4
51	59	1
26	63	1
76	79	5
69	69	6
7	13	3
10	18	4
78	79	6
53	55	2
25	26	3
68	84	2
68	68	8
6	16	7
83	84	3
0	14	2
23	25	1
56	75	3
87	87	7
84	85	3
77	80	1
3	4	2
34	34	2
4	6	1
1	73	3
12	13	1
64	80	3
54	86	3
22	22	3
79	79	9
9	33	3
55	56	3
58	62	1
8	9	2
10	52	2
62	63	3
12	32	2
19	25	3
1	2	1
10	19	6
66	81	1
5	5	9
27	31	2
52	59	4
56	89	1
85	85	4
77	77	7
5	24	1
23	24	2
52	60	2
55	55	3
78	80	1
84	84	4
0	2	4
7	25	2
74	74	4
21	22	1
28	28	1
75	84	5
84	86	5
9	9	1
20	21	2
17	17	1
12	23	1
87	89	1
57	58	2
71	76	2
70	75	1
20	20	1
34	35	1
46	66	3
16	17	1
64	65	1
28	30	4
10	20	1
76	76	6
70	86	4
6	12	1
0	23	2
74	83	3
29	29	2
69	70	1
17	31	1
0	11	1
65	80	1
59	60	1
4	5	1
6	25	3
55	58	2
26	26	1
50	52	1
75	75	1
53	87	1
50	50	2
14	75	1
2	3	1
33	34	1
13	31	1
9	59	1
27	27	2
4	27	1
26	65	1
81	85	1
83	89	1
56	71	1
67	77	1
62	75	1
35	35	1
21	26	1
17	32	1
30	30	1
32	32	1
