4	4	9
4	5	7
128	128	14
135	135	8
97	97	20
136	136	7
125	125	10
76	76	9
108	109	6
117	117	10
8	8	13
18	18	6
80	85	1
140	140	10
35	35	19
27	33	1
93	93	7
10	12	2
15	17	5
112	113	2
15	15	13
31	31	13
120	120	14
82	83	3
35	36	9
112	112	12
96	96	12
11	11	12
74	74	16
87	87	18
108	114	5
98	98	19
114	114	15
127	127	5
75	75	17
3	3	9
13	13	7
122	123	7
116	116	15
36	36	18
20	20	12
23	23	11
136	137	5
72	72	15
37	37	16
108	108	10
129	129	16
74	83	1
88	88	13
79	81	2
71	71	12
38	38	10
27	27	13
103	103	11
0	23	4
111	111	12
17	18	5
19	23	1
14	19	1
81	81	6
115	115	16
113	114	2
99	99	16
132	133	1
129	136	2
0	1	1
2	2	15
138	138	9
84	89	6
130	130	6
109	109	6
131	131	32
33	34	2
110	110	11
104	104	2
86	87	3
73	74	2
37	38	8
95	95	9
95	96	3
77	77	5
79	79	14
17	44	2
20	21	3
134	134	7
33	33	12
102	104	6
137	137	10
106	111	1
121	121	8
5	5	12
94	95	4
107	107	3
0	0	17
3	4	5
13	15	6
90	90	5
73	73	11
106	106	6
133	133	16
72	84	2
10	27	3
128	129	4
10	10	5
16	16	5
82	107	3
26	27	2
77	79	4
32	32	10
29	29	3
83	84	11
22	22	13
82	82	15
30	30	9
92	92	8
131	132	1
101	101	5
104	106	4
75	121	1
28	29	7
84	84	6
89	89	19
98	99	2
123	123	12
102	103	3
32	33	3
74	76	2
99	100	3
78	78	6
24	24	5
12	14	2
9	9	8
109	123	1
29	32	3
120	121	7
15	16	3
94	94	13
101	108	1
137	138	2
117	118	5
30	32	3
132	132	21
87	88	1
114	115	2
1	1	6
80	80	14
110	114	1
71	72	3
77	78	7
83	83	7
124	125	2
17	17	5
26	38	3
74	79	3
85	85	9
113	113	7
5	7	3
28	28	3
126	127	3
96	101	2
16	18	2
73	119	3
74	75	6
86	117	2
138	139	2
34	34	14
126	126	8
19	22	6
107	108	3
22	23	6
100	126	1
89	93	2
1	21	1
139	139	3
18	19	3
38	92	5
75	79	1
124	124	10
119	119	6
105	105	5
123	124	2
13	17	1
27	28	4
6	6	13
100	100	8
10	18	4
134	136	1
111	119	1
7	8	3
91	92	3
8	9	5
28	31	3
92	93	5
100	101	7
72	73	2
31	74	4
118	118	5
25	26	2
34	37	4
110	119	1
72	74	2
14	14	3
75	80	1
23	24	1
19	26	2
96	127	1
19	19	2
74	77	1
122	122	13
21	22	5
104	114	2
79	80	1
116	117	6
13	14	4
89	90	5
74	80	3
12	16	2
85	86	4
81	85	1
115	124	1
78	79	3
74	94	1
134	135	5
79	100	1
7	7	7
79	121	2
118	119	1
19	20	2
76	81	1
11	83	2
80	81	3
80	106	4
12	13	1
24	28	1
130	131	1
1	2	3
86	86	4
82	102	3
102	102	6
80	103	1
104	122	1
81	84	2
34	35	4
30	31	1
107	121	1
66	68	1
86	119	1
23	33	2
85	119	1
5	6	2
91	91	2
101	104	2
109	116	1
12	12	3
109	110	1
29	31	1
8	20	2
1	5	1
105	106	3
85	89	2
104	107	1
88	92	1
28	32	1
101	103	2
98	100	1
16	17	3
76	77	1
84	85	2
133	135	1
110	111	1
117	119	1
81	82	2
108	110	1
35	37	1
111	112	1
139	140	1
27	32	1
133	134	1
115	121	2
4	7	1
26	26	4
73	77	1
113	118	2
119	120	1
24	25	4
105	112	1
30	33	1
0	2	1
4	30	1
128	130	1
21	21	3
97	98	1
96	103	1
19	29	1
88	114	1
25	25	1
82	84	2
129	130	1
25	27	1
13	23	1
113	120	1
110	115	1
97	123	1
