179	180	2
99	100	5
146	152	2
143	143	3
153	153	6
89	89	6
53	53	8
13	106	4
25	25	6
188	188	2
149	149	3
83	83	6
169	169	9
90	92	4
92	92	8
77	77	7
43	44	2
99	99	6
141	187	2
91	91	3
124	125	3
6	6	2
109	110	2
141	141	6
56	56	7
93	95	2
190	190	3
170	170	3
126	126	2
37	66	2
8	8	2
10	10	2
141	154	3
104	104	1
119	119	3
60	63	6
128	128	4
22	22	4
180	181	3
130	130	3
178	178	3
164	166	2
115	115	3
86	87	6
175	176	4
16	17	6
130	131	2
17	116	5
41	41	7
151	151	1
37	38	3
2	91	5
185	185	11
59	64	3
128	129	1
16	16	1
148	148	3
178	183	3
132	132	3
24	24	5
35	37	2
140	140	2
175	175	5
38	38	2
103	104	3
56	57	5
17	17	11
146	146	3
8	16	4
113	113	1
142	158	3
54	54	1
160	185	1
110	111	4
111	111	2
59	61	4
48	48	2
131	132	1
14	14	7
100	100	5
36	36	2
60	60	3
144	144	2
15	71	1
184	184	4
27	27	4
54	56	1
29	30	1
176	177	1
108	110	5
2	2	4
23	24	4
86	86	9
98	99	4
90	91	2
173	173	2
142	143	7
85	85	2
167	167	2
85	95	1
71	72	3
0	34	5
174	174	1
120	121	1
20	21	1
30	30	5
74	86	1
4	82	2
47	47	1
28	29	3
20	20	4
65	66	2
1	1	2
10	12	3
64	66	2
110	110	1
90	90	6
183	183	3
61	61	2
40	40	2
66	66	1
182	182	1
8	80	3
135	135	6
163	164	3
123	123	1
52	52	2
114	114	4
37	37	3
26	71	2
131	131	2
177	177	5
160	160	2
138	138	6
89	90	2
161	161	2
125	126	1
127	157	1
159	159	3
123	173	1
105	106	3
27	88	2
131	134	1
144	155	4
148	149	1
67	67	2
188	189	1
52	55	1
154	154	3
26	26	2
171	171	6
7	7	1
96	97	1
1	2	2
186	186	1
123	124	2
157	157	2
55	56	1
103	103	2
102	102	2
31	33	1
2	87	3
29	29	3
112	135	1
42	45	2
18	20	4
112	113	2
155	186	1
31	31	1
39	40	1
76	77	1
35	35	1
2	3	1
62	63	5
39	39	1
4	4	1
84	84	2
117	117	1
20	120	3
85	86	2
72	72	1
145	145	1
52	61	2
131	135	1
84	85	2
88	88	1
3	3	1
126	127	2
63	63	1
150	177	1
106	106	3
121	121	2
178	179	2
94	96	1
120	120	1
126	128	1
129	129	1
123	171	1
39	47	2
160	184	3
141	157	2
27	89	2
53	54	1
18	18	1
94	94	1
57	57	1
27	92	1
176	178	1
85	102	1
156	187	1
74	74	1
7	82	2
32	35	1
40	41	2
53	55	1
125	125	1
152	154	2
116	117	1
86	93	2
184	185	1
158	158	1
25	53	1
165	165	2
12	12	1
42	42	1
175	189	2
156	159	1
70	71	2
109	117	1
107	107	1
6	7	1
37	88	1
