151	151	3
161	165	8
22	25	3
166	167	3
80	80	1
151	155	2
34	34	9
90	90	6
118	160	4
142	144	3
92	92	4
38	38	3
14	145	1
146	146	3
65	65	2
85	87	1
131	132	3
136	136	1
69	93	2
69	69	3
14	17	3
68	70	4
109	109	10
15	18	1
107	112	2
152	152	11
137	137	8
160	160	3
36	36	5
150	150	9
72	72	1
112	163	1
115	156	3
87	120	1
52	53	2
127	130	4
0	3	2
162	167	2
145	161	2
12	12	6
64	64	2
4	4	6
39	39	3
110	110	5
11	53	2
118	118	5
162	166	4
106	106	3
140	140	2
48	94	1
87	87	1
126	139	4
118	123	6
75	76	1
49	55	2
5	5	3
67	67	5
51	56	1
40	40	1
62	62	2
109	161	4
40	41	1
133	133	6
39	58	1
118	126	1
133	134	3
103	104	4
156	156	5
84	84	2
120	120	3
7	7	5
94	94	6
154	155	1
2	3	1
86	87	4
5	6	6
65	67	4
37	37	4
137	157	6
44	44	1
71	89	2
78	78	1
82	82	3
65	84	4
45	45	4
69	77	4
126	143	5
54	54	5
84	97	2
124	134	3
0	5	1
95	95	3
73	73	3
43	43	6
8	8	6
1	1	2
98	98	3
28	28	3
74	74	4
8	154	2
123	126	3
8	25	1
14	130	4
49	50	4
27	27	2
142	142	5
23	23	2
105	105	3
21	34	6
119	143	1
166	166	3
51	51	6
159	170	2
49	51	5
0	1	4
169	169	5
40	104	1
107	158	1
89	89	2
156	157	2
49	49	6
110	111	1
23	24	1
108	109	3
40	81	5
126	126	7
53	101	1
16	16	2
10	164	1
23	124	1
125	125	1
147	147	3
112	112	3
11	133	2
125	126	1
146	149	1
57	58	2
91	93	1
130	130	1
43	44	2
8	24	1
134	150	1
100	100	3
165	165	3
88	88	3
71	71	6
161	161	5
145	160	1
125	127	1
56	56	1
168	168	2
71	88	1
63	63	4
132	132	1
155	155	1
1	3	2
10	10	1
22	22	1
122	123	2
139	139	1
170	170	1
111	163	2
115	133	2
116	116	2
102	109	1
62	123	1
74	81	2
41	135	1
114	143	1
13	13	1
129	129	1
63	124	1
53	54	4
159	159	3
145	167	3
4	155	1
117	126	3
10	51	2
143	143	3
83	86	1
15	15	2
7	154	1
65	76	1
125	170	3
40	91	2
155	156	4
83	83	4
66	77	1
6	6	3
137	167	1
121	121	5
40	135	2
3	3	1
50	51	3
19	19	2
70	70	3
15	16	4
143	144	3
5	7	3
142	143	1
7	25	1
10	11	2
34	132	1
114	146	2
148	149	1
75	75	1
116	142	3
13	14	1
97	98	3
123	123	1
72	75	2
75	87	1
77	78	1
39	77	2
159	160	1
35	35	1
102	102	1
122	166	3
153	153	1
143	159	2
25	25	1
39	136	1
74	86	1
145	145	1
126	160	3
97	104	1
148	148	2
67	70	1
123	167	1
162	163	1
76	76	1
72	136	1
117	118	1
130	133	1
164	164	2
65	69	2
113	114	1
6	19	1
17	62	1
128	128	1
35	158	2
160	161	1
107	107	1
23	34	1
78	79	1
10	157	1
151	152	1
26	26	1
82	88	1
131	131	2
97	99	1
51	62	1
118	120	1
90	91	1
48	48	1
12	23	1
159	169	2
88	125	1
11	23	1
138	138	1
