120	121	3
98	119	6
108	108	14
26	26	9
13	13	13
11	11	9
112	112	4
92	92	18
125	129	3
20	55	5
65	126	5
20	20	23
6	6	15
44	47	3
116	116	21
49	49	15
49	56	2
117	117	24
2	2	21
78	78	15
45	45	22
75	75	11
118	118	7
44	44	12
3	4	5
46	62	1
39	40	4
120	122	1
85	88	4
103	116	2
14	15	6
20	21	8
125	126	8
22	25	4
10	46	3
99	99	2
33	33	10
96	96	2
22	30	5
45	46	13
77	78	4
68	68	12
38	38	4
39	39	12
126	126	16
80	97	1
30	30	13
66	67	6
29	29	9
119	119	15
61	61	5
111	111	11
124	124	11
131	131	12
62	64	3
109	113	3
68	92	3
133	133	2
1	1	16
18	18	3
4	6	4
47	47	15
114	114	17
12	16	5
85	85	21
40	41	2
84	84	1
48	48	6
115	115	10
24	24	6
74	75	3
123	123	16
9	10	4
13	14	9
102	102	8
102	103	7
97	98	12
15	16	4
110	110	9
128	128	12
7	7	11
41	41	6
105	105	9
79	80	4
120	120	10
113	113	10
127	127	14
75	77	2
26	28	1
41	42	6
56	56	7
75	76	8
46	47	7
95	95	8
53	69	2
3	24	2
67	72	1
71	93	2
65	68	4
19	19	9
106	106	11
22	22	15
118	127	2
98	98	13
21	21	12
89	95	2
59	65	1
0	0	17
54	54	22
104	104	18
81	117	4
17	17	14
15	15	20
121	121	6
70	75	1
129	130	2
125	125	8
32	57	1
108	118	5
73	73	8
77	79	4
71	71	4
45	71	2
27	29	1
20	22	6
76	76	9
67	67	13
57	57	7
46	55	1
33	40	2
101	101	5
23	23	16
12	24	2
69	108	4
94	95	12
16	29	2
40	40	5
100	100	6
115	117	2
8	21	3
6	47	4
70	71	8
74	78	1
60	60	6
58	66	1
12	13	1
90	91	6
107	107	10
53	53	10
51	51	14
5	5	7
8	8	9
58	58	6
10	30	11
31	31	10
113	131	2
63	64	3
83	83	4
62	62	9
98	99	1
59	59	8
45	52	7
109	117	4
68	91	2
4	4	5
34	54	3
97	100	1
27	28	7
46	46	8
80	80	5
102	107	1
34	34	9
86	88	3
16	16	10
28	28	11
109	109	4
11	15	2
23	24	1
96	101	1
89	90	5
48	49	2
112	113	5
87	88	7
74	101	1
3	3	5
52	52	16
34	44	2
54	56	1
82	82	8
66	102	4
89	105	4
4	12	1
91	91	6
69	71	3
118	129	1
122	122	6
72	72	7
9	9	2
99	100	4
4	5	1
85	86	5
93	93	17
53	71	1
80	96	1
84	86	3
104	105	3
39	104	5
45	54	4
42	81	3
10	33	1
94	94	5
69	94	3
32	32	5
10	10	14
119	120	1
96	97	4
40	58	2
127	128	4
95	105	3
79	79	11
132	132	4
114	127	2
114	115	2
88	101	4
126	127	1
65	65	6
132	133	1
42	42	7
76	77	4
32	34	1
110	111	8
39	44	1
64	64	10
115	116	3
113	114	4
100	129	3
88	88	6
13	31	4
66	66	5
59	61	1
4	55	3
19	42	2
115	127	2
41	103	3
12	19	3
94	111	5
42	44	2
50	50	6
7	14	2
70	72	5
55	62	1
7	11	4
77	84	1
31	32	1
68	69	1
113	121	2
0	2	2
63	84	1
25	26	2
12	51	1
14	31	1
6	48	2
63	63	5
15	29	4
25	25	7
50	53	3
18	55	1
26	31	2
12	12	11
115	131	1
99	102	5
109	128	1
99	128	1
89	89	6
116	128	5
55	55	1
49	63	1
49	57	1
119	130	1
27	27	2
94	104	2
21	25	2
101	107	1
20	40	2
116	117	4
40	76	3
123	125	2
51	52	3
88	90	3
106	115	2
71	72	2
117	118	4
9	13	3
113	118	1
71	92	2
42	111	1
60	62	4
43	43	4
4	10	2
7	16	1
93	94	3
73	74	6
32	33	3
42	45	3
86	89	7
105	106	5
130	130	2
30	31	3
54	65	2
77	77	1
83	84	2
7	47	3
86	86	1
28	29	1
99	126	2
14	47	1
65	66	3
16	17	2
129	129	3
102	130	1
81	81	4
111	114	1
90	90	2
41	73	3
43	44	1
21	22	3
122	123	1
74	74	4
4	18	1
16	31	1
44	61	1
68	73	1
80	84	2
91	92	3
70	70	3
5	22	1
95	96	2
72	77	1
62	63	2
103	103	2
46	57	3
13	18	2
22	23	1
97	97	3
9	11	2
102	127	1
92	101	2
2	53	1
57	69	1
19	43	1
58	61	2
29	30	2
54	66	1
82	83	1
10	24	1
103	104	2
17	42	2
98	128	3
43	45	1
116	127	1
118	119	4
14	14	5
44	48	1
75	92	2
7	13	3
17	74	1
124	125	1
69	69	1
97	103	1
39	60	1
120	132	1
26	29	1
131	133	1
67	68	1
50	51	1
91	103	1
90	100	1
105	120	1
18	27	2
86	87	1
42	91	2
128	130	1
0	21	1
95	126	2
109	119	1
10	29	1
72	74	1
49	51	1
112	114	1
93	95	1
85	93	1
93	110	1
105	112	1
53	68	1
48	55	1
78	79	1
60	61	1
83	89	1
51	55	1
11	18	1
26	27	1
