116	116	5
18	18	2
131	132	2
23	23	5
79	85	2
7	7	6
108	128	1
30	30	5
115	125	2
91	93	1
55	55	5
15	44	3
125	126	1
38	38	7
27	27	5
70	70	3
101	103	1
81	81	6
84	84	1
117	118	3
39	40	1
5	5	3
46	46	4
78	78	7
1	3	2
15	15	5
5	31	5
121	121	4
93	110	3
31	31	6
119	119	1
29	39	1
64	64	3
21	21	4
0	9	1
109	109	4
36	38	3
95	112	2
13	17	3
124	124	1
6	6	2
119	120	2
78	79	1
110	110	4
41	41	7
92	92	1
24	24	2
73	73	2
134	134	1
17	17	2
59	83	1
16	17	3
99	99	6
69	78	1
34	34	3
61	61	5
36	36	1
1	44	2
79	79	3
7	67	2
93	132	1
50	81	1
71	71	3
79	80	4
83	83	1
11	12	3
16	16	2
86	87	1
42	42	2
115	116	3
57	59	2
34	37	1
102	130	1
26	26	4
107	110	2
96	96	1
100	129	1
13	13	1
85	85	6
67	67	2
79	82	1
127	128	1
90	90	2
110	113	3
2	22	2
8	63	1
82	106	2
43	43	2
32	32	3
120	121	3
65	65	4
84	108	2
103	129	1
112	113	2
29	29	1
77	77	2
24	41	5
18	32	2
64	85	1
82	91	1
31	32	2
5	14	1
100	111	2
37	38	2
91	91	8
0	62	3
115	115	1
58	58	4
68	68	2
25	39	2
74	74	3
18	70	2
99	100	3
84	85	1
30	38	1
1	1	4
126	126	5
75	119	1
84	114	2
8	8	5
19	19	1
86	93	1
102	102	5
32	33	1
113	113	1
72	72	4
115	121	2
67	69	2
74	96	1
123	126	2
49	49	2
31	49	2
10	10	1
23	24	4
23	25	4
127	127	2
15	16	3
103	107	1
44	44	2
28	51	3
9	83	1
8	82	1
56	56	1
87	87	1
60	78	1
34	35	1
120	120	3
133	133	1
57	57	2
77	78	1
106	106	4
78	80	2
15	43	1
82	96	3
3	3	8
71	72	3
24	26	1
89	91	4
9	110	1
28	29	2
41	42	1
22	22	2
76	76	1
33	34	1
19	20	2
80	80	1
39	39	1
96	97	2
118	118	5
25	25	1
60	60	2
108	108	1
131	131	1
45	119	3
58	59	1
31	72	1
104	104	2
11	95	1
46	47	1
33	33	1
108	109	1
9	10	1
98	98	1
114	115	1
120	122	1
113	118	1
121	123	2
38	40	2
62	63	1
9	75	2
130	133	1
128	128	1
11	11	2
29	30	1
37	39	2
121	126	1
117	117	2
14	14	2
7	47	2
106	112	1
115	120	1
56	92	1
118	119	1
83	111	1
12	12	2
122	122	1
94	94	1
89	89	1
107	111	1
112	112	1
0	92	1
6	7	1
123	125	1
