220	223	3
116	116	2
41	79	1
46	117	1
85	85	1
239	239	6
215	215	5
11	161	1
88	92	2
193	194	3
198	198	2
228	229	2
152	152	6
229	229	8
113	114	1
39	39	4
198	220	2
174	174	7
14	29	1
165	165	10
180	180	15
84	85	4
47	47	2
59	80	2
180	187	2
31	31	2
35	35	1
14	15	4
31	50	1
70	70	6
24	24	5
97	97	6
74	87	2
224	224	6
79	79	6
56	56	8
235	235	4
219	219	15
95	105	2
80	98	2
36	52	2
200	200	7
117	117	3
54	71	2
232	239	1
162	162	5
80	81	1
62	114	5
214	214	5
67	72	3
191	191	6
175	175	5
154	154	7
163	165	1
57	61	1
55	57	2
51	53	5
230	230	4
51	51	3
109	117	3
177	177	12
151	151	3
62	79	1
164	165	4
76	76	4
146	146	3
33	33	4
118	118	3
215	218	1
96	96	2
108	114	2
150	163	1
106	107	1
5	37	1
74	74	4
221	225	1
159	159	8
166	166	2
164	164	4
8	8	4
157	157	4
109	109	12
210	214	1
120	120	4
28	29	2
111	111	5
15	16	6
241	241	11
42	42	5
72	72	5
19	102	2
64	64	3
75	75	8
32	54	1
228	245	1
61	75	2
160	161	1
191	197	1
178	178	3
157	162	3
96	118	1
172	172	4
63	63	8
211	212	1
50	89	2
49	75	2
155	157	1
209	209	6
169	170	1
197	199	1
69	69	8
231	231	2
160	175	1
105	107	3
182	193	2
105	115	3
84	84	2
210	218	1
216	223	2
119	119	1
158	158	11
102	102	1
176	179	5
86	87	1
83	84	2
238	239	7
9	27	2
62	67	3
37	37	5
40	40	4
29	29	5
154	244	2
214	215	3
183	183	6
181	226	3
201	201	3
89	89	2
90	93	1
152	245	3
234	234	6
27	27	4
107	107	7
237	237	4
93	99	3
45	45	4
193	193	5
157	170	1
195	195	4
103	103	4
217	217	1
244	244	5
222	223	6
66	66	5
115	115	2
119	120	1
207	207	4
20	20	3
70	79	1
216	216	3
178	179	1
150	187	1
86	86	7
84	231	1
94	118	2
57	58	1
160	164	1
173	173	4
67	67	6
50	50	4
152	180	2
19	19	9
172	186	1
187	202	1
1	31	1
210	211	3
55	55	9
68	68	5
190	190	2
22	22	2
83	83	2
46	46	7
168	169	1
24	26	2
215	217	3
212	212	5
23	23	7
93	93	4
102	103	2
6	6	5
157	158	2
247	247	11
85	87	1
72	73	2
89	104	1
223	248	1
70	179	5
189	189	3
218	219	2
118	119	1
64	213	2
1	1	4
34	34	8
205	205	3
35	113	1
203	243	4
64	65	1
94	94	5
221	221	2
81	81	2
182	182	4
192	225	2
197	197	5
32	33	1
61	61	5
185	185	7
230	245	3
98	98	5
87	116	7
166	169	2
90	92	1
205	217	4
101	101	4
36	36	4
24	117	1
236	236	5
21	21	2
208	214	1
184	184	2
246	246	1
221	222	2
105	105	6
110	110	1
162	163	1
226	226	2
0	1	1
28	28	6
100	100	3
215	246	1
208	208	2
177	185	2
12	12	6
177	181	2
65	65	2
77	77	7
96	101	1
240	240	1
65	222	1
162	169	2
222	241	2
180	181	1
243	244	2
186	186	1
43	44	2
153	153	5
52	52	3
202	202	7
236	237	1
107	116	3
99	99	3
167	168	1
57	77	1
59	59	6
26	26	3
2	50	1
41	41	2
176	176	1
41	86	1
167	167	3
15	15	6
11	11	3
41	235	4
212	213	1
223	226	1
73	75	3
152	215	1
240	241	2
242	243	1
37	46	3
1	86	2
33	36	1
194	194	2
161	186	1
38	38	3
100	114	2
6	7	1
95	96	1
150	150	2
35	36	1
89	91	1
71	75	1
232	232	3
209	222	1
199	199	2
33	226	2
166	188	1
45	207	1
222	222	3
14	64	2
152	206	2
175	176	3
33	171	1
93	94	1
95	95	2
52	53	1
228	228	3
4	4	2
241	242	1
7	7	2
203	242	2
115	118	2
88	88	5
159	160	2
32	41	1
62	62	2
53	53	5
182	183	3
58	58	3
106	106	2
82	83	1
93	104	3
8	9	1
241	243	2
160	173	1
79	104	1
202	203	2
17	183	1
113	115	1
181	183	1
187	187	3
17	43	2
70	71	1
116	118	1
87	94	1
10	10	2
64	214	1
87	87	2
247	248	2
82	176	1
78	78	4
240	242	1
171	171	2
196	198	1
44	49	1
71	71	2
30	30	2
151	154	1
245	245	2
233	233	1
204	204	7
9	23	1
80	80	3
28	39	4
35	48	1
116	151	1
73	73	1
242	244	2
220	220	4
156	156	2
155	155	2
169	169	2
245	247	1
171	177	1
29	54	1
237	240	1
44	44	3
179	179	3
54	54	1
175	179	1
171	226	1
32	147	2
168	170	1
36	37	2
108	108	3
163	163	1
153	154	2
193	208	1
4	7	2
159	246	1
197	219	3
182	184	1
92	101	1
47	53	1
8	16	2
2	5	1
82	82	2
168	168	2
172	185	1
99	189	1
163	176	2
7	11	2
65	69	2
174	176	1
48	49	1
92	99	1
48	50	1
90	90	2
227	227	1
49	110	1
211	211	2
81	157	1
225	225	1
14	102	1
15	53	1
217	247	1
36	43	1
181	181	2
191	208	1
184	185	1
159	164	2
55	59	1
93	106	2
218	218	2
145	145	2
6	35	1
181	189	1
91	91	2
1	15	1
146	147	2
100	108	1
70	102	1
31	37	2
22	23	2
100	101	1
96	97	1
116	119	1
32	38	1
231	233	1
170	170	1
224	241	1
115	116	1
154	213	1
161	161	1
56	61	1
183	197	1
81	233	1
238	238	1
196	242	1
152	246	1
94	96	1
69	70	1
4	5	1
8	31	1
114	117	1
223	223	2
203	203	1
213	213	3
156	161	1
48	48	2
33	219	1
34	89	1
51	89	1
64	163	1
156	157	1
5	5	1
2	54	1
202	210	1
58	59	1
202	209	1
192	198	1
186	239	1
57	57	1
25	74	1
39	40	1
224	225	1
102	119	1
203	215	1
79	80	1
153	225	1
43	50	2
151	155	1
115	121	1
43	43	1
34	47	1
9	12	1
189	190	1
110	154	1
114	114	1
153	161	1
38	88	1
