80	85	2
13	13	9
67	71	1
136	136	13
131	131	9
5	5	9
103	104	6
37	37	6
88	91	6
55	56	2
71	71	8
8	8	4
79	79	4
31	31	7
148	148	7
93	121	1
95	96	5
22	22	5
96	96	7
143	143	13
35	35	9
8	9	10
119	119	7
7	7	9
1	1	3
36	37	3
120	120	3
75	75	25
45	45	20
88	88	19
93	94	3
113	114	4
89	89	7
147	147	9
101	105	4
128	128	11
113	117	2
95	95	16
115	115	5
14	15	3
126	127	4
40	41	9
108	108	2
14	14	13
146	146	8
91	96	4
17	17	8
109	109	15
11	12	5
99	99	4
145	145	4
118	118	4
114	114	11
112	113	7
18	20	1
55	71	1
79	134	1
114	115	10
112	112	13
117	119	1
155	156	1
18	18	10
32	34	4
140	141	2
131	138	3
127	152	3
47	47	4
54	54	20
129	129	12
131	132	5
137	137	12
40	40	3
39	39	6
133	133	18
149	149	5
92	93	6
103	103	6
134	135	3
87	87	6
88	89	8
33	33	24
2	2	7
96	97	2
102	102	6
41	42	4
121	121	7
17	19	11
80	132	5
84	84	9
19	19	6
47	48	6
68	68	5
144	148	1
102	128	1
56	57	1
151	151	11
135	135	7
119	121	1
1	2	4
90	101	5
42	42	8
92	92	9
116	116	2
125	127	3
153	153	6
44	47	6
48	48	4
25	32	4
132	133	2
45	46	1
134	134	9
6	6	6
41	46	6
132	132	13
24	24	9
97	97	5
80	81	12
37	45	6
152	153	1
49	50	2
141	141	7
149	153	2
128	129	1
26	27	4
78	78	13
25	31	1
100	100	6
30	30	7
16	16	13
10	10	11
1	80	2
94	95	9
27	27	7
12	12	9
121	122	10
29	30	6
123	123	9
129	137	1
124	124	10
21	21	3
156	156	8
33	53	3
27	28	2
110	111	4
3	44	3
124	137	14
6	73	7
127	127	6
149	155	1
2	4	1
85	86	2
90	92	2
110	140	3
91	91	9
86	86	8
29	29	7
101	101	6
83	83	9
77	78	2
89	92	2
23	24	1
35	37	1
61	62	3
104	104	1
140	140	13
125	128	4
72	72	12
11	16	3
3	3	8
28	28	9
51	52	7
84	111	4
43	43	11
133	134	2
79	82	2
154	154	6
38	38	6
136	137	8
41	41	3
36	36	3
80	107	2
50	50	3
82	82	10
66	119	1
155	155	5
70	98	1
117	117	7
32	158	6
125	138	1
53	54	4
77	77	7
109	115	2
56	56	7
87	88	1
128	137	2
82	112	3
149	156	1
14	16	1
104	105	2
23	99	1
131	136	1
12	14	6
8	95	1
94	120	3
9	9	9
106	106	6
90	90	1
19	20	4
94	106	1
34	34	2
151	152	7
64	64	4
126	137	2
109	139	1
0	100	4
130	148	1
25	25	2
100	121	5
102	109	1
128	151	8
139	139	9
15	16	1
13	14	5
51	51	6
158	158	3
92	94	2
37	38	3
119	120	2
118	123	3
122	123	2
139	140	1
38	39	1
130	130	6
100	101	5
24	25	9
121	127	3
7	8	1
9	10	5
66	68	2
145	146	4
84	85	4
126	126	7
55	55	4
123	124	1
49	49	4
144	147	2
111	111	3
105	105	5
52	53	4
125	126	2
136	138	2
2	3	3
39	40	2
107	114	1
67	68	8
1	98	3
12	15	2
116	141	1
142	155	1
146	147	4
82	113	2
44	44	6
87	89	3
121	123	4
23	37	1
157	158	3
152	152	4
24	29	1
147	156	2
23	23	2
50	51	4
13	40	1
2	81	2
10	16	2
106	115	1
15	15	5
118	120	1
45	48	1
149	150	1
3	55	2
94	108	1
67	67	6
9	16	2
103	115	1
70	70	1
104	115	1
12	148	1
147	155	5
102	139	2
135	147	2
20	20	4
143	154	2
98	98	2
34	46	1
93	127	1
125	125	5
142	142	3
112	114	1
136	141	1
35	36	4
66	66	4
29	82	1
108	109	4
136	147	2
90	91	3
68	69	3
111	113	1
104	116	1
36	38	2
42	43	4
24	80	2
103	105	5
113	113	3
75	105	1
118	119	6
120	121	4
105	106	3
114	120	1
122	122	5
138	142	1
92	122	2
93	93	5
111	112	1
157	157	4
83	108	2
79	86	1
65	65	1
52	54	3
53	53	1
154	155	1
142	144	4
16	17	1
32	33	1
153	154	6
27	29	4
4	42	1
31	32	1
2	97	1
125	143	1
10	12	3
83	84	1
3	4	1
12	24	1
4	56	2
138	149	3
138	139	1
132	137	2
102	103	1
137	150	3
0	0	4
126	144	1
69	69	4
113	115	1
129	130	2
80	80	2
107	107	2
8	92	1
23	40	2
4	4	3
117	118	1
155	158	1
46	46	3
12	13	2
73	73	1
31	49	1
68	70	1
18	19	3
73	74	1
135	136	1
66	155	1
97	98	2
94	94	1
72	73	1
108	112	1
63	67	1
20	21	1
43	44	1
78	83	1
114	117	1
110	139	2
117	124	1
84	92	1
31	33	1
144	144	1
