65	65	10
0	0	7
127	127	8
133	133	5
120	121	3
77	90	3
117	119	1
113	113	10
38	38	7
125	131	3
62	62	16
58	85	1
111	111	15
98	98	10
79	129	2
32	32	9
19	19	23
57	57	15
113	114	3
109	109	14
131	132	7
30	30	20
87	87	5
27	31	3
119	119	11
0	1	8
131	131	13
104	104	5
128	128	19
50	50	14
129	129	19
2	55	2
107	109	2
29	30	6
31	31	12
70	70	12
66	66	8
12	12	6
106	107	5
23	24	2
79	79	19
52	52	12
9	9	8
105	105	27
15	15	10
107	107	16
90	90	8
71	71	8
47	55	2
124	125	5
63	64	7
108	108	14
56	56	7
68	68	10
57	113	1
33	33	16
65	66	3
45	45	12
46	47	2
1	5	1
16	16	8
110	110	22
121	121	16
96	96	11
25	25	19
98	113	3
47	47	6
102	102	7
39	39	11
81	81	17
67	67	12
85	85	11
33	47	2
101	101	11
121	122	3
18	19	7
61	62	9
85	86	4
60	60	9
13	13	20
126	128	5
55	71	1
114	114	11
79	128	1
97	98	2
92	92	21
31	32	7
7	9	2
130	132	3
59	60	7
34	47	4
7	7	8
99	99	17
76	76	11
51	52	9
27	28	2
110	113	1
24	24	11
48	55	4
11	12	8
63	63	13
61	61	12
93	93	8
118	118	19
15	16	6
17	17	16
26	27	4
49	49	27
126	130	8
95	95	5
28	28	10
132	132	11
44	44	10
106	106	6
2	2	17
51	51	5
58	110	5
45	48	2
91	92	11
48	48	7
17	57	3
115	115	9
28	55	3
116	117	10
72	89	3
55	55	13
39	68	1
108	117	2
123	123	14
95	96	2
31	33	1
49	51	1
120	120	12
66	68	6
43	43	18
111	118	3
94	94	16
88	88	5
91	91	18
117	117	10
8	8	8
95	99	2
40	66	3
97	97	7
61	63	1
124	128	4
26	26	16
41	57	4
41	42	6
102	104	5
100	100	9
5	5	13
112	112	8
125	125	10
28	29	2
75	75	5
121	128	2
18	20	4
63	83	5
99	100	4
5	6	5
82	83	1
88	89	4
4	4	25
84	84	5
21	26	3
3	32	3
14	15	8
90	102	1
27	27	8
80	90	3
80	82	2
25	27	3
127	129	5
116	116	2
60	61	5
73	74	8
45	47	5
79	80	2
65	118	2
61	84	3
39	40	6
109	116	2
3	3	8
72	73	1
5	34	2
48	49	5
74	89	2
124	124	9
127	128	1
81	82	1
26	54	1
89	90	2
54	72	2
47	56	1
103	103	9
83	83	6
28	33	2
10	10	18
14	14	10
64	64	5
84	85	2
58	59	2
24	25	1
73	73	8
24	29	1
43	88	2
6	6	7
45	114	3
126	126	8
114	115	5
60	87	1
77	77	15
91	108	2
100	101	11
132	133	5
67	70	7
38	39	6
41	41	10
54	54	9
33	34	2
58	58	6
69	69	6
42	79	1
29	29	4
105	106	4
78	78	9
130	131	2
42	44	3
34	34	1
22	22	14
80	85	4
59	63	3
20	21	5
6	98	3
5	9	5
5	8	4
1	1	10
89	89	9
125	129	2
43	73	1
32	34	1
110	111	1
103	108	1
57	65	4
123	124	9
44	46	3
58	65	6
40	74	1
30	31	3
72	72	5
62	83	1
33	44	1
44	45	2
70	71	2
2	3	8
129	130	5
53	54	1
43	46	5
25	26	4
42	43	1
3	4	2
119	130	2
29	57	1
34	37	2
56	57	1
118	119	3
80	80	2
100	106	2
102	103	10
2	4	1
76	78	1
10	12	2
46	46	12
96	97	1
4	57	1
130	130	2
100	104	4
59	59	4
75	76	4
120	124	2
59	111	2
46	79	3
112	127	1
50	51	1
49	50	9
53	53	16
104	105	4
92	93	6
23	23	6
79	95	2
54	55	3
55	56	8
32	49	1
10	11	4
70	83	1
100	113	2
11	11	5
86	86	6
126	127	2
81	94	1
102	112	1
96	99	2
13	14	4
84	98	1
16	17	1
11	13	4
58	64	1
68	69	4
115	117	4
98	102	3
21	25	1
118	132	1
67	68	5
46	54	1
40	73	2
10	69	2
85	90	3
40	40	3
47	48	8
131	133	2
13	19	2
57	98	1
79	81	1
21	23	2
105	107	3
109	110	1
123	125	1
57	111	1
93	119	2
77	78	3
85	91	2
37	38	3
18	21	2
93	95	4
52	53	4
60	85	1
116	118	1
74	74	5
6	8	2
59	83	2
32	33	3
114	124	3
56	108	1
64	65	2
93	94	10
55	68	3
103	104	3
16	21	4
22	25	4
126	129	1
51	54	1
45	46	1
86	87	2
2	11	2
5	7	1
18	18	2
44	64	1
82	85	2
127	130	1
33	41	1
80	81	2
122	122	3
9	45	1
102	108	1
26	52	1
60	114	2
97	103	1
108	114	1
46	55	1
21	21	11
20	20	2
62	67	1
60	62	3
43	45	3
86	88	2
128	129	1
6	60	1
100	102	2
118	121	1
5	60	4
112	113	1
41	65	1
82	95	2
60	63	2
82	82	2
53	64	2
39	69	1
108	109	1
11	15	2
76	80	1
4	11	1
45	56	1
10	38	1
1	2	1
48	54	3
4	5	1
119	120	1
26	107	1
97	128	1
100	111	1
12	13	1
40	41	1
121	123	1
28	30	1
26	47	1
54	73	1
117	121	1
22	59	1
98	101	1
75	80	1
82	98	2
92	99	1
90	91	1
125	133	1
100	125	1
124	126	1
45	88	1
44	47	1
40	72	1
22	30	1
69	70	1
41	44	1
111	113	1
59	62	1
82	84	1
68	71	1
117	118	1
114	128	1
51	53	2
81	83	1
104	109	1
42	42	1
49	55	1
