168	169	5
59	110	1
59	59	6
16	16	3
39	39	4
10	10	4
173	173	18
155	155	4
31	31	3
32	32	1
149	149	7
97	97	3
165	165	3
121	121	1
137	137	3
130	130	3
37	37	5
33	40	5
23	24	1
77	77	4
50	50	2
18	25	3
167	170	3
91	91	2
52	53	3
176	176	5
0	23	2
54	55	1
126	126	3
79	80	3
134	134	3
172	172	4
140	140	4
4	5	3
28	29	14
116	116	11
171	171	2
106	106	4
37	51	1
92	94	1
74	103	1
95	149	3
56	57	4
180	180	11
3	3	3
154	159	2
9	9	2
81	81	1
73	80	1
129	168	1
58	61	3
97	143	1
171	172	3
109	109	7
164	164	3
133	133	5
2	2	3
117	118	4
107	109	1
3	4	1
17	17	2
117	117	1
176	178	1
145	159	2
35	35	3
1	1	1
4	20	2
144	144	3
103	103	1
95	95	7
14	17	2
100	140	3
172	173	1
112	128	1
34	43	4
147	151	2
5	74	1
3	20	2
7	9	3
135	135	2
98	98	2
65	65	2
153	153	2
98	102	1
128	129	1
66	67	5
4	4	2
142	167	3
76	76	2
75	82	2
43	43	5
162	179	1
136	136	2
141	142	1
51	51	5
41	110	1
36	36	2
73	73	2
39	41	4
111	111	2
93	93	2
110	110	1
126	169	2
97	100	1
64	64	3
97	146	1
78	106	3
9	10	1
159	159	4
77	78	2
113	114	2
42	42	1
114	127	3
126	166	1
11	11	1
6	6	1
89	107	1
83	83	1
34	35	3
116	117	2
62	62	2
160	160	4
113	113	1
151	152	1
96	98	3
122	122	1
142	160	1
154	171	2
100	100	2
58	72	1
121	122	1
30	30	1
26	28	2
58	59	2
98	99	1
138	159	1
88	88	2
151	151	2
2	3	3
80	80	1
172	175	2
112	112	3
168	168	8
129	129	2
15	15	1
144	153	1
119	119	1
87	87	2
132	173	1
57	57	2
74	74	2
167	167	3
170	170	1
11	13	2
96	143	1
90	154	1
23	23	1
140	141	1
154	154	6
130	168	2
52	52	1
103	104	4
99	99	4
14	14	1
61	65	2
161	161	2
71	71	1
55	73	1
9	20	1
72	72	2
51	53	1
78	78	1
158	158	1
118	119	1
62	63	1
90	91	1
174	176	1
45	46	1
5	5	1
139	139	1
166	166	1
131	131	1
58	111	1
107	107	1
31	32	1
0	7	1
39	40	1
174	175	1
40	40	2
157	157	2
98	101	1
80	81	1
0	3	2
74	83	1
9	19	1
171	179	1
33	36	1
61	61	1
39	44	1
81	82	1
157	170	1
20	74	1
114	119	1
3	22	1
94	104	1
96	96	1
54	67	1
107	110	1
11	16	1
