68	68	17
49	49	7
65	66	7
69	69	26
70	71	4
73	102	4
78	78	13
86	86	12
48	50	4
86	88	5
53	70	2
79	79	9
62	62	16
35	37	3
71	71	25
83	83	5
46	50	2
76	77	13
91	95	3
29	34	3
31	31	7
39	54	1
49	50	8
66	66	9
34	34	4
45	45	4
77	78	6
38	38	6
53	84	3
80	80	15
90	96	1
79	80	10
54	73	5
69	71	6
63	63	12
70	70	20
29	30	5
69	70	6
39	39	8
74	75	6
41	41	7
64	64	13
36	36	4
51	74	7
74	83	1
29	33	1
44	44	10
54	90	4
52	95	3
59	60	1
96	96	6
74	74	15
76	76	12
36	64	3
33	33	12
56	57	5
86	89	2
46	76	4
25	25	6
92	93	3
77	81	3
88	88	7
98	98	7
26	26	4
80	81	9
67	67	14
92	92	5
40	40	6
57	58	1
57	57	11
85	85	19
38	39	1
60	60	13
73	73	11
101	101	1
50	50	6
33	57	1
72	74	3
99	99	9
59	59	7
65	65	12
25	47	3
88	93	4
79	81	6
37	37	12
58	60	2
22	22	8
58	58	8
48	48	18
48	49	5
84	84	6
91	91	1
72	72	7
97	97	5
93	102	1
60	78	1
46	46	3
73	74	4
89	89	4
33	48	3
90	90	5
43	92	6
75	75	27
31	101	4
35	35	6
53	71	4
93	94	1
42	42	17
31	32	1
77	77	15
20	23	1
85	86	5
85	89	1
73	75	1
25	29	1
32	100	2
62	63	2
45	46	1
27	28	1
68	82	1
28	29	4
52	52	3
38	55	1
29	101	2
47	47	3
52	84	2
53	53	4
54	54	3
87	87	4
38	51	2
65	68	2
45	47	3
66	71	2
61	84	2
61	61	1
85	90	2
20	68	1
102	102	2
80	89	2
81	81	6
52	63	2
48	85	1
100	100	2
36	63	2
99	100	3
55	55	2
83	90	1
56	56	2
52	53	1
56	64	1
43	43	3
61	62	4
97	98	1
23	24	1
87	88	2
35	40	2
75	77	1
69	83	2
54	89	1
81	82	3
70	73	1
82	82	2
54	84	1
73	76	1
74	79	1
84	85	1
95	96	2
28	34	1
35	101	2
71	72	2
81	83	1
27	27	1
27	92	1
62	75	1
46	47	1
80	83	1
86	87	1
29	29	1
30	30	1
88	89	1
80	82	1
34	35	1
68	69	2
79	86	1
20	98	1
75	76	1
26	87	1
37	64	1
87	93	1
63	64	1
54	55	1
