51	108	3
62	63	2
121	123	3
0	0	11
138	152	1
71	71	2
36	37	6
43	43	8
23	24	3
45	46	1
103	103	12
18	39	6
84	84	3
156	156	6
134	134	11
19	20	4
23	23	4
30	30	11
1	1	2
109	109	3
129	129	5
6	10	1
89	107	3
93	93	3
10	15	2
47	68	1
115	137	4
22	22	6
116	117	1
24	24	6
21	21	5
63	111	2
79	79	1
128	129	3
26	26	13
42	43	5
110	110	8
52	54	3
8	36	1
105	105	4
66	66	5
81	81	12
6	6	5
114	114	2
11	39	1
126	154	3
38	38	6
99	99	12
27	27	5
82	84	5
39	69	1
30	100	1
75	140	6
21	96	5
47	47	11
37	38	1
3	3	10
51	52	4
148	158	1
22	23	4
55	55	10
40	40	6
103	108	4
113	137	6
88	88	6
143	149	5
55	56	4
31	31	6
89	101	3
91	92	2
46	48	1
97	97	9
68	68	10
125	125	8
55	57	1
119	120	7
122	122	13
3	45	5
93	95	1
45	45	6
71	113	2
139	139	6
139	140	1
13	21	2
80	80	15
101	101	7
133	133	11
75	75	1
47	97	1
138	138	11
2	4	3
88	89	3
67	71	2
8	8	12
131	134	2
137	137	11
85	114	2
9	9	1
2	2	11
14	16	1
12	18	5
28	28	5
92	93	5
83	83	10
37	43	1
82	82	4
130	130	8
62	62	6
113	114	6
9	10	6
148	148	11
13	14	4
19	19	4
86	113	1
28	36	4
8	52	1
149	150	1
14	14	13
67	68	4
118	118	3
42	42	9
64	100	2
7	7	13
78	78	4
44	44	4
82	106	4
46	46	5
56	56	4
30	31	3
157	157	2
13	13	2
112	112	2
105	154	2
158	158	9
124	124	7
25	26	4
106	106	1
103	149	1
104	105	3
132	132	9
29	29	3
16	17	1
65	65	1
116	116	4
31	33	1
49	49	4
151	151	3
17	17	13
29	40	2
115	115	3
92	92	4
39	43	2
18	53	3
3	37	2
73	118	4
142	142	6
41	42	2
90	111	1
131	131	7
73	73	6
4	4	1
8	18	1
6	43	1
87	89	5
41	41	10
12	12	5
18	18	5
71	111	3
48	48	6
11	11	2
22	90	1
2	3	2
106	107	1
128	128	8
91	91	6
79	85	2
32	32	5
73	74	1
67	67	2
90	91	1
4	40	1
140	140	7
70	111	2
104	104	2
154	154	9
69	69	3
25	25	4
99	103	2
54	54	1
137	138	5
51	51	3
104	127	1
21	22	9
28	29	2
24	26	2
46	56	3
66	68	2
20	21	1
35	35	3
15	17	6
1	2	5
14	18	1
146	150	3
90	90	6
98	98	6
33	34	3
34	34	3
146	146	3
111	111	1
125	126	2
135	136	1
85	85	1
33	46	1
101	106	1
44	45	1
142	145	4
114	148	2
50	51	3
13	15	1
126	142	1
149	149	4
132	134	2
116	140	1
103	104	4
57	57	1
65	69	1
106	120	1
7	8	3
94	94	3
108	108	3
131	133	1
5	5	5
145	158	2
8	53	1
150	158	3
101	111	2
5	11	4
130	131	3
70	70	3
100	100	5
12	13	2
69	86	1
78	122	3
117	117	4
141	142	3
129	156	1
31	66	1
84	85	2
104	155	1
93	94	3
17	18	4
114	115	2
126	126	2
65	95	1
100	141	1
8	9	3
127	141	1
50	50	4
126	141	1
22	44	1
40	41	4
157	158	2
107	107	3
23	26	2
89	106	3
63	64	2
10	11	2
141	141	1
138	139	1
129	133	2
33	33	8
76	76	1
133	135	1
129	148	3
95	95	2
11	12	4
16	16	1
132	133	1
68	69	2
136	136	3
121	122	2
116	144	1
129	131	1
40	42	2
113	113	1
37	37	1
67	113	1
27	142	1
92	103	1
53	53	3
92	95	1
150	150	2
16	18	2
123	123	1
77	77	1
126	127	1
31	34	3
119	138	1
66	95	2
155	156	1
10	10	1
2	30	1
77	78	1
153	154	1
119	119	1
81	84	1
130	138	2
64	64	1
2	97	1
36	36	1
95	101	1
96	97	2
147	159	1
134	135	1
127	127	3
21	24	1
28	73	1
135	135	1
4	66	1
147	152	1
155	155	1
22	48	1
15	15	1
148	150	2
10	12	1
36	38	1
147	147	2
152	152	1
57	58	2
34	35	1
76	89	1
147	154	1
48	49	1
80	83	1
107	116	2
99	105	1
93	113	1
61	61	1
54	57	1
