37	38	3
112	179	1
131	131	15
42	42	16
23	87	3
161	161	5
153	154	2
171	171	9
158	159	7
60	60	15
47	48	3
98	103	4
175	175	12
116	116	17
127	127	12
100	100	17
41	41	12
30	31	3
157	157	7
99	124	2
17	17	4
154	154	12
194	194	12
113	113	10
106	106	12
115	115	9
3	3	12
158	158	13
51	55	2
113	114	7
173	191	1
101	197	1
154	156	3
137	141	3
76	76	15
43	45	2
67	68	5
109	110	6
16	17	7
173	173	17
31	32	9
121	121	10
52	52	9
143	143	21
160	160	15
141	141	19
130	131	4
184	185	3
38	149	1
149	149	13
67	67	1
130	140	1
65	65	17
12	12	7
124	124	9
61	61	8
87	95	6
65	73	4
80	168	5
29	34	3
66	69	3
65	66	1
1	87	1
184	184	12
38	38	6
16	43	2
167	167	6
180	180	20
33	38	2
193	193	7
47	47	8
166	168	3
6	40	2
74	76	1
177	177	11
104	157	4
74	74	18
115	179	3
63	63	7
45	88	4
114	114	9
145	145	10
195	195	11
51	51	16
128	128	7
71	78	1
170	170	15
84	85	5
142	144	4
103	104	4
188	188	9
186	186	9
133	135	2
60	61	2
30	30	19
176	176	16
185	185	24
137	138	2
136	136	7
80	80	7
172	172	9
77	78	5
85	85	10
56	56	13
71	72	1
104	124	1
9	9	14
151	151	13
150	150	11
32	101	3
164	164	7
150	157	1
27	27	17
154	158	1
155	155	9
181	182	2
96	140	2
43	43	16
108	108	18
174	174	19
81	85	9
8	134	2
103	178	1
89	89	12
155	157	1
172	173	4
14	14	19
20	20	14
68	69	2
140	161	2
140	140	14
81	81	10
6	6	3
24	24	12
1	1	5
99	174	3
123	123	15
69	69	14
189	189	16
193	194	3
144	144	19
5	5	17
152	152	13
33	33	9
22	22	15
44	45	8
165	171	2
181	185	1
62	63	4
153	153	9
30	132	3
97	98	5
74	79	2
142	163	2
181	181	20
130	130	18
66	66	7
188	189	3
87	87	8
4	8	7
160	163	2
73	74	10
110	110	17
120	120	9
27	36	1
109	109	9
9	10	6
40	40	14
118	118	5
79	79	18
191	191	13
58	58	6
95	95	5
33	35	1
26	30	2
3	4	3
114	115	5
151	155	4
171	173	1
179	179	10
177	180	2
60	62	4
140	170	1
110	113	2
154	155	2
26	26	9
96	96	5
10	10	7
39	40	2
169	171	6
39	39	4
101	101	5
57	58	4
32	32	8
24	57	2
101	184	3
50	50	10
2	2	16
11	11	9
178	179	6
195	197	4
138	192	1
68	68	8
65	96	3
70	70	11
156	156	16
25	25	12
38	159	1
139	139	2
27	58	3
73	73	9
50	51	11
44	44	14
97	167	1
53	53	16
138	138	5
161	162	5
99	168	1
116	143	1
117	117	12
40	41	3
153	156	5
62	65	3
117	118	6
95	125	1
112	112	16
188	196	3
78	78	27
178	178	19
126	158	2
55	56	2
133	133	18
196	196	5
197	197	7
62	62	15
191	192	10
148	149	2
107	107	17
126	163	1
39	139	1
19	19	9
4	42	1
179	180	6
151	164	3
23	23	11
20	29	1
182	183	3
78	103	1
23	89	2
64	66	3
100	121	2
132	137	4
30	89	3
146	146	1
94	94	18
35	35	5
121	127	2
156	157	4
78	81	1
140	141	3
36	36	14
124	125	2
180	181	2
129	129	1
13	13	10
104	104	7
88	88	8
29	29	8
70	71	4
183	183	13
106	108	2
88	89	6
162	167	1
81	87	3
168	168	13
24	56	2
133	134	3
77	77	7
36	139	1
170	174	1
1	28	1
4	4	5
97	97	7
64	64	11
48	48	7
81	102	3
17	80	1
132	133	1
59	60	9
65	76	2
72	72	5
107	117	8
16	16	8
55	55	10
132	132	7
28	29	2
20	22	4
122	122	11
74	78	5
102	102	5
98	99	5
13	52	1
50	52	4
187	187	11
162	163	3
84	84	13
148	148	11
37	37	4
165	166	4
127	128	2
140	142	2
49	49	14
31	31	8
45	46	5
34	35	8
64	107	2
57	57	10
64	120	1
56	57	6
16	72	1
83	83	3
27	28	2
183	184	9
115	116	3
134	134	9
74	179	1
144	181	3
8	160	1
125	126	7
105	105	12
34	34	7
144	145	5
140	143	4
166	177	2
32	137	2
7	7	2
135	136	3
15	15	9
126	155	2
142	142	12
136	137	4
190	192	4
142	143	5
16	85	1
62	83	2
14	43	2
26	44	3
131	139	2
75	77	1
171	172	5
13	14	3
116	117	7
73	76	2
194	195	6
19	20	2
59	59	2
100	101	3
8	8	4
192	192	14
174	183	1
169	186	2
0	1	3
54	54	9
147	147	10
52	53	4
77	79	1
46	46	7
139	140	3
138	189	4
160	162	3
143	171	2
11	44	1
79	80	3
43	44	3
137	137	6
143	144	8
159	159	5
69	75	1
146	147	2
45	45	9
86	87	2
190	191	5
81	83	1
163	163	4
114	124	1
142	179	1
121	124	2
150	155	2
7	8	2
182	182	12
65	186	2
101	124	1
26	27	4
82	82	9
177	178	4
133	136	2
115	124	2
126	196	2
195	196	3
30	88	3
19	22	1
35	36	4
73	85	1
189	190	1
25	37	3
18	18	8
66	68	1
161	178	2
160	186	4
111	112	3
126	127	4
74	85	1
93	94	1
20	21	1
6	7	2
4	54	2
126	126	5
80	193	3
111	128	1
145	146	3
20	23	1
31	37	2
104	120	2
4	5	7
6	8	3
116	185	1
94	113	1
144	160	1
10	43	1
162	162	9
54	55	2
194	197	3
191	194	1
138	171	1
121	122	4
109	111	2
107	111	2
83	85	1
41	42	1
50	110	3
64	65	3
65	94	1
64	112	2
11	66	6
107	112	1
75	75	1
114	123	1
52	109	1
169	169	1
149	150	5
159	186	1
149	194	2
25	44	1
61	62	4
108	110	3
44	197	1
99	99	5
107	113	1
83	84	3
125	183	3
165	165	5
18	24	4
98	101	1
102	103	2
192	193	2
26	40	5
99	144	6
66	67	2
26	28	1
96	97	6
166	166	7
29	37	1
119	119	11
9	14	5
148	158	3
158	193	1
66	146	2
111	111	1
30	32	2
161	163	4
25	136	1
69	70	2
144	146	2
59	86	1
78	123	1
27	86	1
166	167	1
106	119	1
63	65	1
57	72	1
5	40	3
63	128	1
71	71	3
25	194	1
53	55	2
18	21	2
104	105	1
118	120	2
182	184	1
18	29	2
30	173	1
132	136	4
186	187	1
129	138	2
103	164	3
141	142	3
13	16	1
38	40	1
128	190	1
135	135	5
185	186	2
101	134	2
5	6	2
187	191	2
190	190	3
24	134	3
76	99	2
21	21	4
105	120	5
130	138	2
72	73	1
111	185	3
148	159	2
150	151	1
80	85	2
101	128	1
123	127	1
172	190	1
158	189	1
12	53	4
58	71	3
21	24	1
4	40	1
112	178	3
170	173	1
122	123	4
160	192	2
138	196	1
10	11	2
29	146	1
185	187	1
17	43	1
160	185	3
48	49	3
46	142	1
119	177	2
177	179	4
139	157	1
12	101	1
45	140	1
11	45	1
38	154	1
71	76	1
97	174	1
80	81	3
147	148	3
58	59	1
44	149	3
144	176	1
75	76	1
152	153	2
96	106	1
93	152	1
41	51	3
108	129	2
11	12	2
187	188	2
14	54	2
18	20	2
173	174	1
0	0	3
145	188	1
69	87	3
35	88	2
160	161	2
46	87	2
139	163	4
98	98	4
78	84	2
29	99	1
167	168	2
23	24	2
88	98	3
101	102	1
46	143	1
120	122	4
151	153	2
4	43	2
118	180	1
96	155	3
75	179	1
126	128	2
42	43	3
74	87	1
164	165	1
125	127	1
89	90	1
1	74	1
102	165	2
32	33	1
137	140	3
173	192	1
116	122	2
99	104	1
13	46	2
30	145	1
77	99	1
0	85	2
42	50	1
117	144	3
62	125	2
174	175	2
32	100	1
95	140	4
18	19	1
2	82	1
14	16	1
138	139	1
2	68	2
63	64	2
95	154	4
45	155	1
6	41	1
9	15	1
21	22	2
11	82	1
33	158	1
139	156	2
105	153	1
101	103	1
138	141	2
38	153	1
10	67	1
32	129	1
153	168	1
118	119	1
8	17	1
118	145	1
17	18	1
119	179	1
128	196	1
146	181	1
93	93	3
113	124	2
155	171	1
64	94	1
101	147	1
118	179	1
160	171	1
26	149	1
77	80	1
139	142	1
164	172	1
87	88	1
173	175	1
63	83	2
0	144	2
177	181	1
28	73	1
118	121	1
110	111	1
31	38	2
152	168	2
151	159	1
149	159	1
100	102	1
152	167	2
102	107	1
9	47	1
24	25	1
22	23	2
151	152	1
171	174	1
12	16	1
188	190	1
9	42	1
113	185	1
134	135	1
4	6	1
174	184	1
65	69	1
186	197	1
96	105	1
49	109	1
124	141	1
32	134	1
155	170	1
112	113	1
132	135	2
53	150	1
29	87	1
31	34	1
19	151	1
2	28	1
36	88	1
26	36	1
68	146	1
78	80	1
63	113	1
133	170	1
137	172	1
23	25	1
110	157	1
75	99	1
103	124	1
42	45	1
168	169	1
61	72	1
176	177	1
157	163	1
58	61	1
161	164	1
107	127	1
15	16	1
