57	76	4
30	30	5
62	63	1
44	44	5
69	69	2
29	29	9
59	61	3
49	49	13
70	70	7
8	24	3
22	24	8
73	73	15
23	23	5
62	65	3
56	62	2
11	11	10
30	31	2
19	43	2
35	35	9
25	54	1
46	46	8
67	67	9
10	55	1
13	13	10
6	6	6
57	58	5
35	44	3
58	59	2
34	34	8
65	68	3
72	73	7
24	25	6
45	47	4
3	3	12
56	56	8
52	52	9
51	62	2
62	62	10
19	62	2
63	70	4
20	56	1
65	65	8
8	11	2
46	54	5
58	58	8
72	72	4
40	40	10
26	26	10
46	59	1
45	45	7
5	5	3
0	8	3
2	47	6
39	44	4
3	47	2
42	42	5
57	73	1
0	0	16
53	54	3
59	59	6
75	75	2
4	4	4
66	66	2
74	74	6
63	65	3
7	7	1
26	64	1
0	13	2
50	52	5
9	10	1
9	45	3
57	62	2
48	76	3
4	9	3
58	74	1
41	42	2
65	73	3
48	48	4
10	11	2
21	21	5
33	57	1
33	59	1
2	2	6
18	18	6
7	14	2
61	62	3
36	36	2
33	58	3
26	53	3
23	27	6
60	60	3
61	61	4
30	58	4
68	73	2
36	38	4
41	43	3
45	75	3
4	45	4
47	47	6
1	44	2
31	72	1
53	53	7
2	13	1
50	50	11
10	10	16
53	55	1
35	37	3
32	32	11
63	64	2
71	71	4
8	8	4
76	76	3
45	74	3
50	68	2
21	34	3
6	7	2
27	27	3
39	78	3
54	54	3
30	53	3
22	22	4
21	22	6
46	53	2
7	11	5
50	75	1
68	68	9
31	31	3
40	70	1
34	35	2
20	20	2
25	25	3
73	76	3
18	25	1
39	39	12
33	56	2
19	19	3
25	52	1
20	23	2
5	22	1
24	31	3
2	5	1
9	9	3
39	45	3
55	55	2
40	41	2
19	25	2
52	76	2
74	76	2
70	71	4
77	77	3
11	24	2
66	67	1
54	55	7
28	46	2
20	28	4
70	73	1
8	9	1
23	63	1
6	14	3
39	40	3
28	57	4
32	58	2
4	5	1
2	9	1
21	56	1
13	18	3
55	56	3
24	24	3
19	34	2
34	58	3
29	68	1
48	49	2
0	2	1
26	27	2
73	74	1
53	62	1
5	14	2
50	69	1
25	31	1
41	41	2
9	14	2
64	64	2
53	76	1
5	7	1
58	73	1
30	59	1
65	70	1
62	74	1
43	43	1
46	47	1
46	72	1
2	6	2
63	73	1
31	32	2
39	43	1
57	57	3
34	39	1
1	1	1
42	70	2
25	28	1
63	63	2
46	48	1
46	60	1
2	7	1
47	69	1
18	19	1
12	12	1
7	13	2
35	38	1
22	25	1
73	75	1
58	61	1
32	39	1
75	76	1
74	75	1
28	31	1
19	20	2
64	65	1
13	45	1
