97	101	2
21	21	2
71	73	7
64	64	11
72	77	3
79	117	2
108	109	2
37	37	15
108	168	2
30	30	5
185	185	15
193	193	7
132	132	7
133	133	5
112	113	3
146	152	1
186	187	2
142	142	3
6	15	1
107	107	12
163	163	7
66	85	5
118	118	4
106	106	8
187	193	9
134	135	9
146	146	10
154	155	4
40	98	7
134	134	2
116	116	4
129	129	4
48	49	6
80	80	5
34	36	1
139	139	6
137	157	1
25	25	4
186	186	7
86	189	6
95	95	4
122	122	10
15	15	5
100	100	7
89	89	12
23	25	5
151	151	8
125	125	4
55	56	8
12	50	2
18	33	3
11	99	3
108	184	1
52	52	5
79	79	6
182	183	4
169	169	12
78	78	15
69	69	10
9	11	1
113	122	1
11	11	10
96	96	8
102	102	4
71	71	11
25	27	3
99	99	11
110	110	4
156	156	12
113	114	3
164	165	2
30	32	1
184	184	9
167	167	5
40	93	2
1	1	8
17	17	11
68	68	4
37	38	4
161	164	3
9	9	4
30	175	4
38	43	6
59	59	5
41	41	5
181	181	5
8	8	8
153	167	3
145	145	13
130	130	5
41	42	4
16	16	12
184	185	2
168	168	3
70	70	11
50	51	2
150	150	13
152	152	11
147	147	5
139	140	2
144	145	5
154	154	8
46	169	1
24	24	13
39	40	2
23	23	11
158	159	3
114	114	3
16	35	3
20	20	19
119	123	2
190	190	5
40	40	5
93	96	7
97	97	9
149	150	3
82	82	4
1	2	6
179	179	14
30	31	2
31	31	10
11	12	1
5	6	4
157	157	7
34	34	1
10	10	11
143	143	7
154	165	1
124	124	4
24	27	8
21	25	5
12	42	3
144	164	5
140	140	13
9	10	2
14	56	3
175	176	3
54	54	3
79	80	8
106	139	2
111	159	3
88	88	4
50	141	2
74	76	2
133	156	3
185	186	2
16	17	5
28	36	2
178	191	3
38	38	4
94	140	5
180	180	5
31	156	3
173	175	3
173	173	12
155	174	2
14	14	5
62	70	4
60	61	4
65	65	9
41	98	4
10	11	3
13	52	3
25	100	1
159	160	9
121	121	1
111	111	10
85	87	3
187	189	4
58	59	4
178	178	5
130	133	4
161	162	3
112	112	8
154	166	4
133	134	3
24	33	7
34	35	3
135	136	2
87	87	2
97	98	9
82	84	1
95	160	4
196	196	7
6	6	6
42	42	6
106	108	5
94	96	5
141	141	5
151	153	3
172	186	1
166	166	1
3	26	1
145	149	1
64	68	2
95	159	1
89	121	1
102	119	3
116	118	1
90	103	4
123	123	4
11	25	1
192	193	2
197	197	4
53	55	1
97	169	3
64	65	4
54	72	3
120	120	4
62	62	9
80	81	1
11	22	4
194	194	1
151	152	3
143	168	1
154	172	2
7	8	8
66	66	1
32	33	4
114	118	5
27	27	4
74	74	8
63	80	2
145	148	2
7	7	3
176	177	1
153	153	1
35	35	5
137	137	1
164	166	2
84	84	7
47	70	1
138	138	8
46	46	4
12	140	1
153	154	6
154	173	2
39	101	2
60	81	2
3	3	3
149	149	6
109	109	3
191	191	6
193	197	1
192	192	1
127	128	1
29	29	7
63	63	6
116	117	7
101	101	7
95	101	2
143	144	7
85	85	1
95	96	2
0	0	6
160	160	5
119	120	3
152	155	2
28	29	3
110	111	6
61	61	1
108	108	2
66	68	1
60	60	3
176	176	3
188	188	2
72	72	2
186	191	2
67	68	3
24	140	3
171	172	2
42	141	3
108	169	8
172	172	6
24	28	1
108	195	2
179	186	1
37	107	5
20	33	2
175	175	4
19	21	2
75	75	1
84	86	4
39	39	5
111	160	2
108	114	6
13	13	5
176	178	1
105	108	3
113	113	8
76	76	9
86	86	3
170	170	5
164	167	2
63	118	3
179	185	3
60	118	1
81	116	3
102	103	2
44	44	1
145	146	1
5	8	1
40	41	4
3	28	3
152	153	7
100	101	4
124	125	2
179	193	2
70	71	2
143	146	2
136	136	4
12	12	2
107	191	1
111	112	1
177	181	2
144	144	4
18	19	4
122	123	2
155	167	2
155	155	8
17	29	2
166	167	4
71	72	2
16	37	1
156	157	2
117	117	1
173	174	2
38	104	1
84	85	4
33	33	4
161	161	9
115	115	2
81	81	3
73	73	2
20	21	3
28	28	4
29	30	5
76	77	2
140	141	2
104	105	1
58	58	1
23	24	2
32	37	2
73	80	1
128	169	1
17	18	2
42	80	2
50	50	3
6	22	1
77	84	1
168	186	2
148	148	6
163	164	1
4	4	2
135	135	1
94	95	5
55	58	2
183	183	1
178	188	1
7	10	2
137	138	2
172	173	3
160	161	1
112	160	3
51	51	3
174	174	4
153	172	1
77	79	1
31	185	1
1	27	1
5	5	3
179	187	2
80	82	2
4	25	4
45	45	1
15	37	1
43	43	1
160	183	3
73	75	1
2	2	3
16	77	1
0	1	2
38	39	2
87	192	1
163	167	1
8	24	1
168	171	1
188	190	1
123	124	1
110	167	2
59	60	3
70	73	2
160	168	1
77	77	1
104	104	1
132	133	1
103	106	3
130	137	1
161	165	2
146	148	1
103	103	2
77	78	2
127	127	2
18	30	1
119	119	3
40	99	1
167	168	1
150	152	4
93	93	1
66	84	2
101	121	2
97	146	1
126	193	2
31	32	2
108	194	2
113	115	2
79	195	1
85	88	1
78	80	1
65	67	1
187	191	3
30	173	1
113	119	1
67	67	2
53	53	1
94	138	1
83	84	1
98	145	1
107	109	1
150	171	3
14	51	1
23	178	1
57	57	1
98	99	2
15	19	2
165	166	1
26	34	3
17	74	1
102	104	1
107	112	1
16	78	1
88	89	2
96	146	3
12	13	1
87	90	1
171	171	1
189	192	1
95	138	2
90	90	1
12	141	1
188	189	1
2	3	1
29	40	1
128	128	1
35	62	1
19	35	1
194	195	1
94	94	1
19	19	1
85	86	1
88	94	1
174	175	1
74	196	1
33	62	1
