16	21	4
88	88	4
20	20	5
79	92	2
85	85	6
108	109	2
117	117	6
78	78	5
44	60	3
7	8	1
52	52	7
73	73	7
1	1	5
65	65	8
126	126	12
105	106	3
4	4	5
17	17	2
9	9	2
43	43	15
52	98	3
99	99	4
17	18	7
79	105	3
80	80	5
75	75	10
27	27	4
101	101	14
121	121	7
61	61	4
120	120	4
33	34	11
95	95	9
98	98	20
29	29	3
75	77	3
83	83	7
25	25	14
69	69	13
92	93	2
62	63	1
119	119	1
116	116	8
125	126	2
77	77	10
18	18	9
105	105	7
12	13	2
126	134	4
14	14	5
22	22	16
106	110	3
50	50	9
10	11	3
131	131	5
60	69	2
3	5	1
45	45	14
35	35	4
77	79	1
123	134	1
81	81	6
55	60	4
114	114	18
57	62	5
123	123	5
79	79	12
37	45	1
116	118	1
110	131	1
15	30	5
74	74	16
49	49	3
133	133	4
31	31	1
16	16	10
60	61	2
128	128	6
6	33	1
58	58	7
87	87	3
5	6	3
12	12	5
30	30	14
11	11	5
42	42	2
103	104	4
21	21	7
63	63	8
20	25	2
97	97	7
14	15	4
76	76	6
52	53	4
127	127	3
62	62	5
115	115	5
102	102	6
67	67	5
0	0	8
5	5	5
44	44	6
90	90	13
8	8	1
80	83	1
3	3	2
79	91	2
2	5	3
19	19	3
22	23	2
56	58	1
5	45	2
6	6	4
33	33	14
120	131	2
15	15	10
111	111	4
93	93	5
122	123	3
82	82	4
13	13	5
106	106	3
53	53	2
103	103	5
112	112	8
108	111	1
54	58	2
21	22	3
50	54	2
132	132	1
96	96	3
105	112	2
7	7	3
108	108	2
30	34	2
80	95	1
85	87	1
10	10	4
68	68	2
104	104	6
59	59	7
7	45	3
34	34	6
91	101	2
23	24	1
113	135	3
36	36	3
26	27	1
28	28	3
24	24	3
113	115	2
10	44	2
108	117	1
123	126	1
72	72	9
14	25	1
89	89	3
29	30	3
78	80	3
25	26	3
72	73	2
20	21	1
107	107	1
48	48	1
66	66	5
26	38	1
64	99	1
130	132	1
122	122	4
93	94	3
124	124	1
78	79	4
16	17	3
115	116	2
27	35	2
6	7	5
2	2	1
15	20	1
96	113	2
113	113	1
23	23	1
50	55	2
89	90	2
30	31	1
70	70	2
74	101	1
124	125	1
43	44	1
125	130	1
129	129	4
26	26	2
65	66	2
56	56	1
111	112	1
4	5	1
8	9	1
106	107	1
54	55	1
16	18	1
95	98	1
106	111	1
2	48	2
31	34	1
75	88	1
46	46	1
126	127	1
86	86	2
63	64	1
60	60	1
38	38	1
18	19	1
1	49	1
94	98	1
67	69	1
119	120	1
117	121	1
94	95	1
