88	100	2
45	45	24
80	80	14
56	59	4
79	81	3
94	94	9
57	57	2
27	29	5
107	108	5
62	65	7
95	96	8
83	83	3
31	32	5
103	103	2
39	40	5
89	90	3
46	61	3
36	36	13
83	84	7
38	53	3
55	55	10
66	77	5
49	49	14
62	74	2
69	69	20
79	79	16
50	51	11
27	28	6
21	24	4
84	84	7
74	75	9
35	41	3
86	87	3
73	73	2
112	112	12
73	74	13
110	110	13
81	90	3
106	108	4
52	52	9
42	42	13
83	111	1
62	62	15
70	70	10
72	72	4
31	31	10
27	37	1
67	72	1
74	74	8
78	78	14
37	73	1
86	105	2
76	77	4
61	61	7
67	67	5
21	28	4
25	25	14
65	65	13
89	89	12
101	111	1
60	60	14
91	91	3
53	55	8
20	32	1
114	114	7
27	27	7
92	92	8
93	93	11
95	95	9
96	97	5
77	79	6
67	69	5
36	38	2
33	33	4
101	101	14
26	26	2
47	47	12
56	56	5
22	22	9
58	58	11
59	59	15
85	95	3
28	39	3
43	44	4
105	107	4
41	41	8
103	104	6
58	59	14
57	63	1
29	32	3
36	66	2
65	78	1
106	111	3
38	38	12
51	61	1
36	47	7
27	47	4
34	34	6
75	75	11
26	27	8
32	41	3
51	83	2
104	104	3
74	77	1
97	107	3
43	43	4
113	114	5
77	77	5
71	98	1
30	77	4
46	63	2
64	64	3
96	108	5
65	104	3
49	50	4
82	89	5
75	99	3
113	113	5
100	100	1
47	56	1
81	81	3
33	34	2
98	98	22
93	94	1
98	112	7
97	97	10
46	52	2
21	37	4
54	62	1
43	46	2
56	61	2
46	46	10
98	100	2
30	30	1
48	48	7
102	102	7
29	87	4
22	26	2
107	107	15
78	80	1
42	58	1
90	90	16
105	106	6
86	86	2
74	87	2
21	29	3
70	80	5
28	28	2
20	20	6
37	37	6
78	81	3
19	19	2
96	96	5
91	101	1
100	101	2
63	63	11
39	39	8
81	88	3
62	67	3
49	63	1
85	85	6
30	40	7
66	66	3
65	68	1
53	86	2
39	48	1
75	84	2
58	61	1
20	21	3
53	54	5
88	88	3
80	92	2
43	54	1
104	108	3
76	76	4
108	108	7
26	47	1
54	54	6
97	101	2
29	29	6
76	110	2
60	63	2
103	105	1
38	39	7
80	86	2
24	36	4
111	112	2
61	62	3
64	66	3
70	71	6
97	99	1
35	35	4
29	84	1
20	34	2
54	55	7
76	81	5
75	77	3
21	21	6
82	83	3
87	91	1
51	51	2
77	80	4
35	46	2
50	50	2
32	50	1
84	86	1
53	53	4
44	44	4
94	107	4
50	56	7
108	109	1
58	60	1
75	110	1
28	37	1
102	103	1
82	82	2
64	65	5
65	66	4
68	68	7
109	110	2
62	69	4
68	79	1
78	79	2
106	107	1
22	23	5
55	68	1
28	41	1
80	81	2
63	78	1
53	68	3
47	48	2
24	24	6
23	34	1
77	89	1
86	91	1
62	63	1
73	82	2
41	42	2
77	78	2
26	29	1
43	51	2
105	105	2
33	99	2
104	105	2
35	44	3
36	67	3
37	75	2
92	104	3
99	99	4
77	85	2
111	113	1
102	104	1
34	113	1
58	87	1
59	60	1
51	87	1
111	111	4
24	46	3
40	40	5
75	78	3
40	41	5
32	98	1
100	104	2
65	67	1
32	32	4
19	23	1
34	44	5
21	25	2
61	68	1
34	36	2
33	46	2
30	31	1
109	109	2
113	115	1
29	36	1
102	110	5
36	37	1
70	78	4
99	101	4
88	89	5
101	103	5
96	100	1
66	73	2
20	47	1
56	78	2
91	102	1
48	50	1
23	88	2
73	75	1
23	89	1
23	44	2
84	85	4
42	44	1
57	61	2
95	106	2
25	26	1
23	33	2
76	97	1
83	94	2
56	57	1
30	79	1
29	88	2
71	82	1
94	108	1
95	97	1
83	98	1
84	100	2
106	106	3
51	88	3
80	98	2
69	70	1
35	68	1
70	83	2
44	46	1
69	71	1
32	36	1
93	96	1
64	76	2
73	86	1
30	41	1
71	71	1
39	41	1
59	63	1
38	111	1
20	26	1
88	92	1
90	95	1
29	79	1
92	106	1
45	56	1
62	73	1
35	38	1
55	56	1
99	114	1
46	49	1
99	111	1
91	99	1
