60	60	16
22	22	18
80	80	8
61	61	10
50	50	17
105	105	8
27	27	23
68	99	2
32	32	19
37	37	11
93	93	15
31	31	19
31	51	3
107	112	2
66	66	18
88	90	1
92	110	1
52	54	2
95	95	8
63	64	9
28	28	15
105	108	2
101	103	3
74	82	3
54	55	10
29	29	15
80	97	7
81	81	10
48	48	10
38	59	4
36	36	18
24	24	20
65	90	8
82	84	5
37	38	3
51	51	16
34	44	1
83	84	19
110	111	1
72	72	4
39	43	1
101	101	10
62	75	2
61	70	2
57	57	8
73	75	4
72	77	3
20	20	6
31	33	5
73	73	5
109	110	12
98	100	1
52	53	3
31	32	4
77	77	16
91	97	1
37	39	2
92	92	18
54	54	11
70	70	7
50	51	4
24	42	6
52	52	10
26	26	12
42	42	12
22	23	4
96	97	6
73	74	3
62	64	1
69	85	6
59	59	8
36	53	2
105	106	1
106	107	6
43	44	3
39	39	13
59	63	2
85	85	8
86	86	22
91	93	2
40	41	4
53	56	6
96	96	21
19	19	11
99	99	24
82	82	10
42	43	3
90	96	1
45	45	19
44	44	16
93	94	5
63	63	17
112	113	5
74	74	7
68	69	7
90	91	4
24	29	3
58	59	3
22	53	2
76	76	6
64	64	3
20	36	1
94	94	12
70	72	4
25	49	5
31	50	1
68	70	1
105	107	2
78	91	3
81	104	2
20	25	2
80	81	6
37	70	1
34	49	3
109	109	11
21	21	8
93	98	4
78	79	16
103	112	6
21	30	4
104	107	2
23	23	6
40	40	12
68	90	1
41	75	3
20	22	5
86	88	2
20	21	2
107	107	10
35	54	5
86	87	4
41	41	11
94	95	2
75	75	15
34	39	5
49	63	3
59	94	1
50	52	7
36	70	5
40	48	2
104	104	5
78	108	3
28	67	3
91	110	3
44	45	4
83	83	7
71	71	8
113	114	3
62	63	6
35	35	11
100	100	4
101	102	1
55	73	2
32	62	1
98	99	2
112	112	7
86	104	3
46	47	3
106	110	2
74	79	3
95	97	1
25	25	8
91	91	6
102	104	6
108	112	2
111	112	3
79	87	3
53	61	1
23	35	1
30	30	5
71	73	1
75	76	4
99	100	6
49	95	2
38	38	3
33	34	2
103	103	5
51	52	2
34	34	8
46	46	16
71	74	3
35	52	1
49	49	13
90	92	6
45	46	5
97	97	9
61	80	1
79	79	9
21	22	3
59	73	1
35	36	2
35	42	1
44	55	1
72	75	3
64	90	6
58	71	2
78	81	2
111	111	8
65	65	10
80	89	2
32	33	2
95	110	2
69	70	2
98	98	15
107	111	4
80	82	6
103	110	3
87	96	1
58	58	3
96	99	1
87	88	1
24	26	4
113	113	7
84	84	5
56	59	1
88	89	4
55	58	3
114	114	6
25	39	2
65	67	2
82	83	3
26	27	1
93	110	1
56	56	6
69	91	1
69	69	5
74	75	2
53	55	2
47	95	2
108	108	4
48	51	4
37	41	3
49	93	1
33	33	6
40	73	2
31	49	2
104	105	1
34	35	2
78	78	5
89	92	1
77	79	3
27	48	1
46	95	6
36	55	2
110	112	2
112	114	1
29	50	4
33	39	3
65	66	7
31	48	6
63	65	5
60	61	2
52	86	3
67	67	8
41	42	3
89	89	6
100	111	1
43	43	8
73	82	2
61	62	2
88	101	3
65	69	1
52	67	1
101	110	1
23	34	2
55	55	9
62	62	4
39	42	2
76	77	2
53	53	7
102	102	4
51	54	3
71	86	1
73	99	3
60	89	3
56	73	3
64	65	1
93	102	3
109	112	2
80	86	2
104	109	2
87	113	1
111	115	2
80	103	2
56	74	5
78	80	8
88	88	5
22	65	1
104	110	3
90	90	3
75	79	1
29	30	5
68	73	1
66	91	1
92	99	1
27	32	1
83	108	4
106	106	4
49	70	3
78	86	1
50	53	4
87	104	1
38	39	1
20	67	1
71	72	3
98	111	1
79	82	2
59	60	1
52	85	1
100	110	3
79	97	2
105	111	3
21	31	1
19	23	1
61	72	2
36	37	3
59	71	1
20	31	1
65	72	1
105	109	1
21	24	1
33	94	1
27	50	1
39	40	1
22	67	1
72	73	3
60	95	1
69	83	3
53	54	2
31	40	1
19	31	4
69	73	1
53	68	1
47	47	1
94	101	2
80	88	1
30	42	4
97	104	1
56	57	4
33	41	2
21	36	1
58	77	1
65	68	1
68	68	5
20	49	3
110	110	4
81	87	1
35	39	2
89	93	3
55	57	3
47	53	1
92	94	3
74	97	4
30	31	1
66	69	1
32	48	2
47	48	3
66	86	1
67	105	1
102	103	2
30	44	2
71	97	3
40	45	1
91	105	1
26	49	1
84	108	1
111	113	1
26	28	1
97	102	3
33	91	1
66	67	1
87	87	2
24	51	1
30	36	1
91	92	1
81	113	1
74	78	1
64	77	1
57	65	2
97	99	2
95	96	1
41	45	1
47	49	1
37	58	2
77	78	1
67	72	2
97	98	1
67	95	1
33	86	2
71	83	1
43	56	1
48	53	1
70	71	2
59	90	1
77	80	1
60	70	1
25	42	1
75	80	1
22	37	1
80	104	1
82	86	1
37	59	1
92	103	2
87	89	1
44	49	1
74	95	2
49	73	1
69	76	1
86	96	1
108	110	2
97	103	1
61	76	1
86	97	1
50	95	1
56	82	1
105	110	1
33	48	1
