111	112	8
100	100	15
119	120	8
155	155	4
87	98	4
1	2	6
102	140	2
51	51	14
15	15	11
110	144	2
113	115	3
68	69	1
29	29	10
156	157	2
156	156	8
103	105	4
89	128	5
7	46	1
16	22	1
26	26	10
65	65	4
12	12	20
18	18	16
37	62	1
36	122	4
88	91	3
123	125	3
103	103	12
8	10	2
47	47	5
113	114	1
116	116	7
76	82	1
137	137	5
77	102	4
93	94	1
149	149	6
56	154	7
105	105	17
98	98	12
89	89	11
143	143	8
104	104	19
120	120	16
86	93	2
151	151	9
94	95	6
79	111	1
109	109	8
31	32	4
42	42	13
43	43	7
10	10	5
106	106	9
62	62	6
32	32	1
129	130	5
52	52	11
14	14	13
15	31	5
102	102	2
67	71	8
144	145	5
64	64	2
79	79	20
96	96	6
69	70	4
36	36	10
22	23	6
119	119	9
77	85	1
23	24	5
152	154	5
130	131	1
71	150	3
91	93	4
134	134	7
3	53	1
105	107	1
87	87	10
147	148	3
88	88	2
10	14	3
68	68	3
66	66	9
18	31	8
3	46	3
2	79	1
23	23	15
86	86	6
109	112	5
42	48	1
101	101	4
13	14	5
18	20	4
75	99	8
40	40	9
110	110	8
57	57	6
51	54	2
44	51	3
75	141	7
23	67	1
50	50	8
32	34	1
71	71	7
128	128	5
41	42	1
69	69	15
101	103	7
142	142	9
27	29	1
52	53	4
111	111	18
112	113	1
49	49	9
4	34	1
48	48	4
7	7	8
3	4	7
29	30	2
129	129	2
84	84	7
39	48	3
47	48	6
36	56	2
12	13	2
124	125	2
132	132	13
31	31	7
6	6	8
44	44	11
17	17	8
93	95	1
145	145	3
123	123	4
112	112	7
95	96	5
32	33	4
67	68	4
86	117	1
41	43	1
50	51	2
27	28	2
158	158	3
77	104	1
144	146	1
94	94	6
20	21	4
77	77	16
81	86	1
2	2	5
144	144	15
16	16	11
19	61	2
41	48	2
90	91	8
124	124	3
93	93	8
22	22	12
133	133	8
24	153	2
63	63	9
105	114	3
139	139	13
43	44	1
19	19	3
23	68	1
83	83	5
55	55	2
25	25	2
17	116	1
71	154	5
1	155	1
133	138	4
21	31	3
131	131	3
43	49	2
41	41	9
30	34	1
34	34	7
86	115	3
140	140	5
154	154	11
8	53	3
35	35	12
9	10	5
10	46	1
14	15	3
73	73	13
122	123	7
124	150	2
114	114	3
76	77	4
63	136	3
89	102	2
81	81	4
118	118	3
15	18	6
97	97	8
127	127	6
122	122	2
7	53	1
79	109	4
124	135	2
97	98	1
11	12	2
8	54	1
139	149	1
49	50	1
31	54	1
151	154	3
33	33	17
126	154	2
4	5	5
19	20	2
11	11	9
91	91	5
113	117	2
13	13	2
138	138	10
49	101	1
103	104	4
80	81	5
26	27	5
87	100	2
13	21	1
142	151	1
80	115	1
152	155	2
121	121	3
118	151	1
150	150	3
8	8	6
45	45	4
14	45	3
144	153	4
83	84	1
155	158	1
92	92	10
115	116	6
70	70	5
136	137	1
44	45	10
91	92	4
122	136	3
10	13	1
107	107	6
0	55	3
125	125	4
113	113	10
73	76	3
85	85	4
34	46	2
112	115	5
39	39	12
67	144	3
43	48	2
80	80	1
28	28	2
108	119	1
146	146	5
21	22	2
64	79	2
144	155	1
125	141	2
62	63	2
6	34	2
135	135	5
78	79	3
46	46	7
94	138	3
2	6	1
12	18	1
126	127	5
0	2	1
144	150	2
136	158	1
1	91	2
53	54	1
25	26	2
38	119	2
151	153	2
3	3	4
88	89	4
57	63	2
90	90	6
27	27	3
120	129	1
38	48	1
92	94	6
92	95	3
76	76	1
72	72	6
28	29	1
106	108	3
87	90	2
152	152	3
38	38	4
122	124	1
18	28	1
24	148	2
42	43	1
104	140	1
44	48	1
157	158	1
5	5	6
0	19	1
131	133	3
116	148	2
95	95	1
67	72	2
76	100	1
108	113	2
119	123	1
78	78	1
145	151	1
79	110	1
75	82	1
38	39	2
24	95	2
39	120	4
32	35	1
141	141	4
133	134	2
82	119	1
158	159	1
140	141	2
118	119	1
48	121	1
115	115	3
108	109	1
25	81	1
153	153	2
109	111	1
44	64	2
94	157	1
132	138	1
42	118	1
1	25	1
128	129	1
100	102	4
46	155	2
136	136	5
7	11	1
50	54	1
90	116	2
126	126	5
24	24	2
141	144	2
86	114	2
99	99	3
108	108	1
139	140	3
75	100	2
3	45	1
53	53	3
51	52	4
26	72	3
105	108	2
131	132	1
70	152	2
120	123	1
11	46	2
17	115	1
2	3	1
37	37	2
82	83	1
21	21	4
150	153	1
108	120	1
148	148	4
75	75	3
38	65	1
69	158	1
114	115	1
7	120	1
99	100	1
2	4	1
145	149	1
16	34	1
45	51	1
73	128	2
8	46	1
135	136	2
6	9	3
78	80	2
121	122	1
132	133	1
56	56	2
77	78	1
142	144	2
137	138	1
146	149	2
110	112	1
90	93	1
30	73	1
50	52	1
53	55	3
125	126	1
92	158	1
80	125	1
74	74	1
30	30	1
65	140	1
117	117	2
134	137	1
68	96	1
26	66	1
64	150	1
18	95	1
22	24	1
82	82	2
0	0	2
97	99	1
118	124	1
20	20	1
71	152	1
130	130	1
127	155	1
93	156	1
17	30	1
100	101	1
110	111	1
