114	114	10
30	30	4
112	114	3
34	34	13
63	63	10
24	24	5
41	55	2
9	9	7
44	44	5
75	75	12
4	43	1
28	28	6
123	123	3
125	125	5
29	29	5
25	25	6
126	126	4
76	77	5
83	83	7
68	68	6
60	60	3
116	116	6
46	46	7
113	113	5
20	20	3
118	118	4
72	76	2
102	102	2
94	94	9
91	91	7
128	128	2
61	62	6
100	100	8
11	12	3
45	45	14
12	12	7
69	69	2
101	102	1
77	77	9
15	19	2
5	43	5
92	93	1
73	73	10
82	123	2
96	96	3
47	47	1
131	131	8
103	103	5
90	90	4
106	106	4
36	36	10
43	43	8
133	133	4
21	21	9
27	27	2
133	134	2
87	88	4
33	33	1
10	12	4
120	120	5
93	93	9
62	62	3
19	19	13
83	130	2
15	16	6
5	5	9
104	133	2
113	114	2
43	44	1
89	93	4
110	110	8
59	59	9
79	80	3
104	104	3
10	10	10
22	22	6
26	27	4
41	58	3
31	31	4
72	72	3
69	70	2
23	27	1
1	1	2
32	33	2
11	13	1
48	48	1
82	121	3
119	119	6
107	107	4
16	16	4
84	84	5
70	72	2
0	0	2
105	134	5
71	71	3
86	86	2
37	38	4
7	7	7
76	76	1
2	2	6
42	42	2
70	70	3
127	128	2
27	28	1
112	112	8
124	125	3
122	122	7
59	63	3
99	99	1
82	82	7
130	130	4
11	11	8
57	57	5
65	65	4
74	76	1
21	22	3
32	32	2
37	41	1
18	35	3
28	31	2
19	34	1
5	6	1
35	35	4
58	58	3
117	117	14
80	80	1
14	14	2
84	85	4
121	123	2
102	116	1
82	132	1
64	64	4
90	93	5
79	122	3
88	88	3
124	124	2
114	115	1
108	109	1
4	4	3
74	74	4
18	36	1
97	97	2
110	111	1
132	132	1
23	24	1
6	6	1
42	55	1
108	108	5
23	23	3
78	78	3
2	3	1
74	75	1
18	18	4
13	13	1
103	104	2
82	130	3
85	86	1
61	61	4
41	41	1
50	50	2
83	85	1
82	106	2
88	89	1
17	18	2
72	74	3
17	17	2
79	79	2
75	129	1
129	129	3
59	64	1
66	66	1
99	115	4
115	115	5
115	116	2
102	109	2
101	101	1
114	116	2
28	29	1
105	106	1
123	129	1
36	37	1
78	79	1
28	32	1
121	122	1
124	127	1
82	131	1
111	111	2
125	129	1
97	98	1
34	35	1
81	122	2
19	33	1
55	55	1
67	67	2
44	45	1
91	92	1
95	95	1
3	46	1
19	20	1
41	56	1
92	92	1
4	42	1
0	1	1
89	89	1
15	15	1
59	60	2
10	11	1
8	8	1
125	126	1
67	68	1
4	5	1
107	119	1
75	118	1
39	39	1
127	127	1
