70	70	9
37	39	3
105	105	17
109	109	2
102	102	6
58	58	4
96	97	2
84	84	14
109	110	5
76	108	5
36	36	9
22	84	4
87	91	4
50	50	1
101	101	4
66	66	5
22	70	9
103	104	3
50	51	4
48	81	2
98	99	4
77	78	10
27	30	3
33	33	3
95	95	5
27	36	1
59	59	4
78	78	9
56	109	5
24	25	2
46	46	1
88	88	2
69	70	13
48	49	2
89	89	7
68	69	3
25	25	3
81	81	5
66	67	4
33	34	4
53	53	7
28	28	6
21	21	10
54	54	10
67	67	2
63	63	3
101	102	3
22	23	4
32	32	4
24	96	1
84	95	4
97	102	2
74	74	6
92	92	5
38	39	1
30	51	4
85	85	5
39	39	1
47	47	6
94	94	4
93	104	2
56	106	6
35	46	3
40	40	3
54	59	3
75	75	9
97	101	2
110	110	11
64	64	4
73	73	11
46	47	1
71	71	3
23	29	1
35	113	3
26	61	2
111	112	10
82	86	3
38	38	3
77	80	3
52	52	4
34	35	10
80	80	2
102	104	1
99	99	2
79	79	8
55	55	6
36	39	1
32	35	4
64	66	5
94	97	4
35	82	4
89	90	5
65	65	9
106	108	4
34	34	1
114	114	3
75	78	3
29	29	3
81	82	3
69	69	12
87	88	1
27	27	3
57	57	7
65	101	3
26	58	3
64	107	2
51	51	5
64	65	1
41	41	7
45	45	5
107	107	3
87	87	2
90	91	1
44	44	5
83	83	4
40	42	1
71	72	2
104	104	2
78	79	2
67	100	2
90	90	2
85	89	3
36	92	1
72	74	1
21	23	2
26	26	4
55	56	3
72	73	1
27	31	2
68	72	2
86	86	1
25	52	3
27	115	2
20	24	1
60	60	4
80	82	2
64	69	2
74	75	3
59	64	1
25	31	3
21	22	2
20	21	3
69	72	1
48	80	1
23	68	1
26	98	2
81	111	1
22	51	1
19	57	2
82	82	2
19	19	3
33	112	2
96	96	1
100	106	2
61	62	1
62	62	3
72	72	3
76	77	2
36	43	1
100	100	2
58	63	2
35	85	2
28	96	1
93	96	1
88	89	2
91	91	4
30	30	2
58	59	1
22	22	3
30	113	2
65	107	1
49	50	2
53	106	1
24	24	3
99	103	5
40	41	1
60	62	2
35	112	1
45	46	2
82	85	4
94	96	2
98	103	5
76	79	3
66	100	2
76	76	1
76	78	1
60	107	1
35	35	2
73	74	2
91	92	1
42	42	1
31	31	1
78	80	1
103	106	1
49	49	2
56	56	1
23	23	2
87	89	1
34	45	1
77	79	1
103	103	1
104	107	1
86	92	1
43	43	1
26	31	1
48	48	1
69	74	1
