26	26	4
51	51	2
65	67	6
12	12	7
13	13	3
65	74	2
78	78	8
2	12	2
89	89	3
9	46	1
41	41	6
77	103	2
92	96	2
114	114	2
62	69	3
97	108	2
92	92	4
0	0	6
49	49	7
31	42	1
91	101	4
122	122	2
110	125	7
5	5	6
98	100	2
117	117	5
16	16	9
100	102	2
27	27	3
23	23	7
128	128	4
20	20	6
63	68	2
39	48	1
59	59	3
95	96	2
77	81	2
102	103	6
111	114	1
72	72	7
133	133	2
56	56	2
7	7	6
24	71	2
69	69	7
70	71	1
3	3	4
113	113	2
21	21	11
60	62	1
54	56	4
50	50	11
40	42	2
76	76	5
75	76	1
113	117	2
2	2	9
109	120	2
102	102	12
95	95	2
40	46	3
101	109	1
79	84	2
44	59	2
79	99	2
42	59	4
22	22	3
3	44	3
97	107	3
1	1	2
104	104	4
48	48	9
61	81	1
107	108	2
84	88	1
115	130	3
75	75	1
97	110	1
8	10	2
115	115	2
57	57	5
25	29	1
38	62	2
1	19	1
121	121	2
100	109	2
65	66	3
86	86	4
87	87	4
28	28	2
39	52	2
91	91	2
94	94	8
34	34	7
71	71	8
29	29	2
15	16	3
76	77	2
17	17	1
7	48	3
74	75	2
67	68	2
24	24	1
92	104	2
26	29	2
76	79	5
31	31	3
126	127	6
88	88	8
66	66	11
123	123	4
100	100	6
83	89	4
9	10	1
45	45	1
59	65	2
79	80	2
108	109	2
99	101	2
19	26	1
115	117	7
96	98	2
62	62	5
78	112	3
3	40	2
70	70	1
47	48	5
80	81	2
65	65	6
125	131	1
15	17	1
6	55	2
83	83	2
129	129	1
92	111	1
119	119	4
109	122	4
105	114	5
6	6	1
108	108	5
118	118	7
10	44	1
68	71	2
58	69	1
19	19	3
7	14	1
97	97	3
75	83	3
11	25	5
21	24	1
27	43	1
122	125	2
109	109	1
1	43	1
30	30	2
52	52	3
68	68	3
8	46	3
80	80	9
18	19	2
44	44	2
120	131	2
73	73	7
75	79	1
82	82	2
49	61	2
107	107	4
33	39	3
12	14	4
40	40	4
81	84	1
90	96	1
69	70	6
43	46	1
124	124	2
31	32	3
19	20	4
41	55	1
40	47	2
29	31	1
46	54	1
132	132	6
77	78	1
95	97	2
33	55	1
93	93	3
77	77	5
127	129	3
53	53	3
21	22	1
33	33	5
111	111	5
10	10	1
4	4	4
99	99	4
81	82	2
119	128	2
91	92	1
70	72	2
29	30	2
60	60	1
40	41	4
6	54	2
42	46	1
63	63	1
49	57	1
120	120	3
90	90	5
49	95	1
11	11	4
84	87	3
119	130	1
63	65	2
0	1	2
50	64	2
109	110	2
101	101	4
75	84	4
102	104	1
20	28	1
12	13	3
17	73	2
66	80	2
79	79	1
54	54	1
116	116	3
59	60	1
32	32	2
39	39	3
48	50	1
3	5	1
99	100	1
6	44	1
81	85	2
38	40	2
42	42	3
8	45	3
19	30	1
8	8	1
50	51	2
25	25	3
6	53	3
75	86	1
105	105	2
3	10	1
4	11	2
30	43	1
97	98	1
5	55	2
79	87	1
126	128	1
46	47	3
131	133	1
124	125	5
40	45	1
91	124	1
14	14	6
86	88	1
69	71	1
110	111	2
60	100	1
21	28	2
110	110	1
84	85	1
69	80	1
68	89	1
3	49	1
41	42	1
48	59	1
52	53	1
100	108	1
4	9	2
28	30	1
55	55	2
60	67	1
83	84	1
17	46	1
112	112	1
40	43	2
88	93	1
9	25	2
57	69	1
122	123	3
20	31	1
10	25	2
43	58	3
43	47	1
103	103	3
63	67	1
101	102	1
86	87	1
110	122	1
84	84	1
90	103	1
126	126	1
27	28	1
23	71	1
27	31	1
21	33	1
73	75	1
128	130	1
75	97	1
113	121	1
1	18	1
58	59	2
15	15	2
113	131	1
114	128	1
121	122	1
18	18	2
96	97	1
90	91	1
81	83	1
61	80	1
17	72	1
23	63	1
120	133	1
96	96	1
4	5	1
98	98	1
3	9	2
131	131	1
42	43	1
87	89	1
69	81	1
64	93	1
117	121	1
10	11	1
98	101	1
26	27	1
