100	101	14
80	80	7
42	42	11
80	88	9
63	69	2
25	25	9
93	94	5
101	101	9
111	112	4
93	93	29
39	39	15
54	55	14
29	35	4
70	70	14
59	59	6
67	77	2
78	79	15
19	22	1
76	76	6
63	63	10
47	47	12
111	111	16
108	109	1
30	30	22
44	44	23
34	34	7
94	94	14
106	106	25
102	103	8
92	92	5
91	91	4
32	36	1
82	85	4
109	109	14
89	89	7
84	85	9
81	82	5
84	89	2
82	82	8
28	28	4
76	89	3
61	61	11
114	114	6
55	55	11
59	60	2
97	99	3
91	93	3
96	97	12
65	65	9
32	33	6
46	46	11
112	114	7
53	58	3
21	21	5
67	67	11
24	24	5
38	38	6
86	86	7
74	75	22
62	62	12
50	50	13
72	72	10
62	64	1
53	56	6
69	71	5
42	44	1
83	84	5
39	40	15
103	104	6
23	23	3
90	90	27
36	36	13
49	50	3
104	105	8
48	48	7
112	113	7
72	73	2
88	89	11
22	22	6
104	104	8
27	27	7
29	29	8
113	113	6
26	31	5
74	74	9
91	97	1
63	65	3
31	38	6
56	57	3
36	39	7
21	28	3
98	98	6
32	47	6
29	39	3
66	66	9
24	25	2
105	105	5
107	107	13
75	75	8
92	94	7
42	43	5
20	20	8
31	47	10
111	113	5
70	72	4
22	23	5
41	41	14
73	73	6
52	59	2
33	34	8
85	85	12
61	105	1
96	96	11
92	93	2
72	74	2
27	28	2
58	60	2
97	100	1
40	40	6
51	51	11
97	101	4
37	37	3
110	110	15
95	95	20
37	40	1
64	64	3
107	109	3
97	97	3
54	54	14
100	100	5
106	107	9
88	98	4
96	98	2
57	58	1
24	27	7
81	81	12
50	51	4
53	55	4
26	26	9
80	81	16
68	68	11
83	83	2
26	30	4
73	74	3
68	69	10
85	86	7
78	78	6
102	102	2
49	107	1
103	110	3
89	90	4
85	87	2
62	107	4
30	107	2
52	53	3
99	99	11
37	39	9
27	59	6
105	107	4
49	49	7
20	73	2
24	26	8
47	49	7
79	79	4
29	34	9
90	91	4
45	45	4
77	77	7
38	39	3
77	111	2
32	44	2
103	103	9
60	62	3
66	68	3
60	60	6
25	45	1
64	67	4
45	46	3
33	33	3
30	31	3
110	112	4
112	112	2
95	96	3
67	87	2
84	84	4
34	36	7
27	58	2
58	59	5
19	19	4
87	87	7
69	70	1
53	53	2
62	63	2
35	35	8
22	77	1
32	32	8
57	59	1
21	27	2
75	78	4
69	69	3
40	47	2
33	37	1
21	22	3
29	30	1
82	93	2
43	44	6
87	88	6
75	76	1
78	89	2
82	84	2
76	111	2
70	71	2
54	115	2
31	46	2
109	110	2
42	47	3
63	64	3
75	108	1
52	52	3
32	37	2
29	38	2
86	101	1
33	35	1
81	83	4
54	56	1
30	66	2
31	31	4
56	56	1
65	66	2
82	83	2
93	95	2
87	113	1
91	92	3
53	57	2
81	85	4
38	45	1
32	39	2
104	108	5
40	41	3
48	50	2
33	36	1
34	35	2
48	106	1
86	113	1
86	89	1
71	71	1
43	43	4
88	88	3
58	58	1
71	73	2
19	20	1
64	76	2
86	109	1
110	113	1
105	108	2
22	64	1
77	105	1
64	65	1
99	100	1
86	87	2
94	95	2
85	88	1
87	109	1
77	113	1
109	113	1
