131	131	7
109	109	6
80	81	3
89	89	2
70	70	13
28	28	9
163	188	2
78	78	2
49	49	5
44	113	4
72	77	2
112	112	6
179	179	4
181	181	12
16	17	9
168	168	5
83	83	5
162	162	4
14	14	11
51	51	5
167	167	7
28	191	4
85	85	6
25	25	7
65	66	5
147	147	3
93	93	13
183	183	5
3	3	7
55	55	11
13	13	3
157	157	1
188	188	4
64	64	3
17	19	3
117	117	7
110	110	6
186	186	15
71	127	5
67	77	2
182	183	1
47	47	15
195	195	6
132	133	1
100	101	2
185	185	14
72	76	1
72	72	5
154	154	2
150	150	4
81	81	3
133	133	2
104	104	1
7	7	3
194	194	3
126	126	9
127	127	7
114	114	8
27	193	5
146	146	6
50	50	10
129	129	8
15	15	4
24	25	2
116	116	12
66	66	1
148	149	5
184	185	2
17	17	8
58	59	3
65	65	6
1	2	5
44	44	4
147	148	7
11	11	3
148	148	7
11	13	4
81	84	2
120	121	3
113	113	6
24	24	11
174	174	5
171	185	1
101	103	6
13	14	5
20	20	7
155	155	5
136	136	2
14	18	6
161	161	8
87	89	2
9	13	2
112	113	7
71	71	2
193	194	5
169	169	4
191	191	6
84	85	1
143	146	1
37	37	4
59	59	16
40	40	15
60	60	7
43	44	7
18	18	5
174	176	2
67	67	4
196	196	7
16	16	4
30	30	4
170	171	2
38	38	4
26	26	2
77	125	1
120	135	2
145	149	1
63	64	3
4	4	1
29	33	2
159	160	2
105	105	4
33	33	6
165	165	4
9	9	2
55	57	1
94	94	2
118	119	4
169	171	1
15	23	1
152	154	1
119	119	4
68	68	4
196	197	1
197	197	6
32	32	8
190	191	2
137	137	7
165	166	2
102	102	1
53	53	7
18	19	9
61	62	1
176	176	4
164	164	2
107	107	3
94	95	6
11	19	2
177	177	2
151	151	3
6	6	2
11	14	2
172	172	7
104	132	2
56	56	2
21	21	1
89	114	2
192	192	3
88	90	2
153	153	8
98	98	7
136	137	3
178	178	4
175	175	4
90	90	2
59	60	3
71	72	4
34	34	1
117	118	1
85	87	2
45	45	6
40	42	1
14	15	6
164	165	1
130	131	2
16	197	1
132	153	3
123	123	8
54	54	4
4	195	1
191	192	3
140	140	5
142	142	5
134	134	3
156	156	1
144	144	7
44	46	3
170	170	3
87	90	2
108	109	4
182	182	1
121	121	2
70	71	1
45	46	2
61	73	3
119	120	4
48	48	11
160	161	2
108	111	3
100	100	6
106	106	4
96	96	6
109	111	3
54	55	1
50	51	7
146	148	2
172	193	1
40	41	3
39	40	1
172	189	2
180	180	1
89	120	2
173	173	3
132	132	4
140	142	1
171	171	4
143	143	3
119	136	2
58	60	3
49	53	1
76	76	5
102	134	1
46	46	3
115	115	6
5	5	2
149	149	4
159	159	2
15	16	1
130	132	2
77	77	4
193	193	3
37	39	3
58	58	1
13	16	2
98	109	2
41	42	2
105	112	2
27	36	3
136	139	2
135	135	3
73	74	1
69	79	1
57	57	2
61	71	1
118	118	2
54	59	2
111	112	1
42	43	2
134	135	2
177	179	1
139	139	8
10	11	3
4	194	1
161	162	1
187	187	3
108	108	1
120	120	2
43	43	7
179	180	1
64	65	4
160	162	1
61	63	1
67	70	4
149	159	3
145	146	4
42	42	5
130	130	5
129	130	2
133	145	2
105	114	2
138	138	3
128	128	4
87	88	1
188	190	1
38	40	1
139	140	1
103	103	4
50	54	2
16	18	2
56	57	2
99	101	2
157	159	1
181	182	1
11	12	2
78	79	1
109	110	6
117	135	1
163	163	3
12	12	2
106	111	2
149	151	1
81	82	3
31	168	1
9	24	1
135	147	2
143	145	1
61	61	4
116	117	2
63	63	2
168	169	1
34	35	1
85	86	1
100	104	1
62	95	3
28	29	2
125	125	1
192	193	1
145	145	3
185	186	3
112	115	2
152	152	1
104	111	2
43	107	3
173	185	1
66	87	1
177	178	2
77	78	1
80	80	2
39	39	3
141	141	4
30	31	1
161	167	1
138	139	2
59	61	1
74	75	1
122	122	4
39	70	2
19	20	2
39	112	1
82	82	3
144	145	1
141	142	1
47	52	2
184	184	1
79	154	2
53	54	1
5	6	1
124	124	1
35	35	1
52	52	2
189	190	1
107	112	2
41	65	1
10	10	3
18	24	1
99	99	1
27	27	2
101	101	1
49	50	1
189	189	1
33	34	1
114	115	1
111	113	1
67	69	2
168	170	1
187	188	1
0	2	2
167	168	1
178	179	1
86	89	1
46	47	1
23	23	1
144	146	1
73	73	1
0	0	1
18	85	1
152	153	1
160	160	2
34	80	1
96	153	1
31	31	1
69	69	1
140	141	1
163	164	1
125	126	1
157	158	1
103	144	1
149	155	1
97	151	1
68	76	1
137	139	1
104	105	1
