88	88	28
25	25	19
22	83	1
67	67	68
81	82	15
94	94	27
62	63	23
37	38	13
86	86	59
92	92	36
36	36	29
64	64	40
69	73	7
63	63	52
58	58	24
22	80	2
88	94	8
79	82	6
101	101	21
51	52	8
82	82	15
98	98	21
50	52	2
75	75	38
85	85	47
54	54	48
70	70	34
63	64	7
91	91	38
42	76	1
76	76	60
68	68	64
66	66	53
26	26	28
92	93	6
80	80	72
87	87	24
99	99	56
32	32	4
29	79	1
44	44	26
29	37	5
49	50	12
45	45	17
90	90	26
65	65	99
27	28	6
71	72	24
69	69	72
46	46	21
73	73	46
31	31	28
48	91	3
74	74	50
42	42	41
85	86	11
97	98	2
86	94	4
80	81	15
62	62	71
78	78	62
52	52	33
41	41	26
66	68	6
62	83	8
34	34	30
77	77	71
71	71	59
55	55	33
50	50	23
45	46	6
35	35	23
72	72	45
46	88	8
76	77	18
67	68	24
35	40	9
32	34	6
38	38	17
47	48	14
74	75	14
79	79	61
45	47	1
23	23	15
61	62	3
30	33	2
23	69	3
35	37	6
46	47	3
81	81	58
31	36	1
77	78	15
65	72	11
59	59	33
37	37	19
49	49	15
56	87	5
47	47	33
63	100	10
27	27	34
29	29	16
53	53	28
100	100	19
68	69	31
70	71	15
34	35	6
96	96	35
27	33	6
33	33	41
69	71	8
95	95	26
96	98	4
26	79	1
96	99	9
43	61	7
39	39	31
83	85	4
44	85	4
44	45	7
84	84	26
65	78	13
36	67	1
74	78	4
84	85	4
47	61	3
36	37	15
78	84	4
46	50	1
46	87	5
83	83	35
66	67	15
72	74	9
44	64	8
48	48	20
60	60	22
89	89	68
78	83	5
95	97	14
100	101	15
25	27	2
45	49	3
63	65	7
60	61	4
52	53	26
87	89	7
47	50	6
42	43	10
70	74	5
99	100	8
89	91	4
43	66	1
25	28	6
86	87	14
67	75	4
37	71	2
63	77	4
26	27	1
88	89	7
61	61	37
43	43	26
62	76	2
23	25	6
65	66	8
55	90	7
48	49	14
65	69	2
48	50	8
53	55	1
46	89	1
86	88	4
78	79	7
97	97	26
88	95	4
65	89	1
56	56	22
35	36	10
40	40	20
67	73	7
80	82	13
101	102	9
48	60	7
87	88	9
22	22	8
42	65	2
24	25	9
38	40	1
57	59	9
93	94	13
61	88	3
90	91	8
39	40	2
27	79	2
69	70	18
93	93	29
93	96	6
55	60	2
48	62	1
62	67	4
74	80	2
30	30	8
53	81	1
91	93	8
73	78	2
57	57	23
48	89	1
81	96	5
44	63	3
29	58	3
64	65	13
50	51	6
56	57	13
20	20	11
94	95	10
51	51	18
22	79	3
57	89	1
28	28	6
73	100	4
45	48	5
68	75	5
91	92	9
44	90	7
76	78	2
102	102	10
55	56	3
71	73	5
29	31	3
62	68	2
61	87	7
96	97	16
89	95	2
63	78	4
57	69	4
30	34	3
29	60	1
73	74	9
77	86	4
32	33	5
34	37	1
23	54	1
25	26	6
41	43	6
31	32	4
33	34	12
78	85	1
42	66	3
26	28	2
79	81	1
38	39	8
63	66	2
61	84	2
96	101	1
46	93	3
46	84	3
20	22	6
35	41	7
40	42	2
75	78	1
83	84	13
22	23	3
62	79	1
24	24	4
54	55	15
40	75	1
82	85	4
45	83	4
84	86	3
31	58	5
59	61	1
66	78	5
45	82	2
72	83	5
87	93	2
37	80	3
77	88	2
36	71	2
46	48	3
62	87	2
31	40	2
64	89	1
60	68	1
58	59	4
58	89	5
85	96	1
75	76	7
92	101	1
66	76	4
54	81	1
67	69	4
33	35	5
63	72	2
79	80	9
72	73	4
58	60	1
49	55	4
26	78	2
43	44	1
42	79	3
62	99	2
95	96	5
59	60	11
64	83	2
79	84	2
47	88	1
84	98	5
74	76	4
77	79	1
53	54	2
44	86	3
41	44	4
62	73	7
86	90	4
58	90	2
71	85	5
63	85	1
35	38	2
64	76	3
68	74	1
46	91	2
29	30	1
77	89	2
38	70	3
65	67	4
40	81	2
66	75	3
36	40	3
49	53	3
41	42	6
81	98	4
69	76	1
93	98	1
89	90	1
62	84	1
23	24	1
86	99	3
30	67	1
79	89	1
86	91	2
89	93	1
78	88	3
94	96	1
44	59	1
29	38	1
21	22	1
26	32	2
85	89	2
92	100	3
49	60	3
85	98	2
70	73	1
29	42	1
86	89	2
57	58	3
37	72	2
63	84	4
62	78	2
89	98	1
62	64	1
68	71	2
42	77	3
80	101	1
75	77	1
61	74	1
80	102	1
66	89	1
82	83	3
22	61	1
31	66	2
92	95	2
98	99	1
43	67	1
85	90	1
77	102	2
86	96	1
62	100	1
65	68	2
73	77	1
95	98	1
69	84	1
77	101	1
48	53	1
37	40	1
34	41	1
64	78	1
65	77	1
20	54	1
26	80	1
24	82	1
31	42	1
29	80	1
56	80	1
78	82	1
