112	112	11
0	1	2
28	28	10
111	122	3
98	102	2
30	30	16
44	49	4
62	63	5
75	75	28
122	122	20
57	110	2
111	134	1
5	5	11
117	117	8
15	30	5
57	57	8
100	127	1
13	14	4
91	91	15
106	106	18
107	114	3
95	95	7
3	3	8
103	103	8
35	35	6
24	24	12
78	117	4
108	132	4
123	125	2
68	68	3
30	34	3
131	131	5
29	31	5
17	34	3
107	112	2
45	45	2
59	59	12
9	9	12
16	16	9
48	50	3
11	11	19
4	5	2
129	131	3
123	123	15
19	20	12
22	22	5
61	62	7
65	70	2
111	111	9
118	118	21
26	28	2
72	102	3
1	2	2
23	24	4
7	10	4
127	127	1
34	35	2
106	108	5
69	71	2
56	57	4
16	17	1
14	15	7
43	43	7
84	84	13
94	96	3
120	121	5
81	90	2
88	102	3
74	75	15
85	85	7
50	50	12
80	80	13
113	113	8
94	94	11
87	87	10
118	119	2
79	84	2
82	83	2
109	109	7
33	33	8
55	59	4
72	72	11
5	8	1
13	13	11
14	108	4
20	20	5
86	86	14
14	14	9
54	54	9
97	98	5
74	74	5
112	131	1
36	36	9
6	52	3
110	110	6
73	121	3
23	25	5
45	46	5
59	60	4
6	6	8
132	133	6
58	58	13
4	4	6
84	96	4
64	64	8
38	45	1
77	85	1
45	48	2
125	125	5
70	74	3
8	8	6
9	10	6
1	1	3
124	124	8
62	90	2
30	31	3
128	128	5
78	85	2
70	70	11
83	83	5
129	129	11
97	97	9
114	114	11
38	38	3
103	104	6
55	56	2
60	60	17
128	129	1
105	105	11
28	126	2
25	101	2
12	12	12
1	44	5
49	53	3
82	85	3
27	27	7
121	122	4
7	7	5
29	74	2
19	19	13
28	121	2
15	15	13
61	61	15
82	82	3
116	116	8
100	100	5
0	0	11
99	99	8
92	92	7
33	52	6
31	33	2
117	132	4
67	67	3
116	118	4
12	70	2
25	25	11
96	97	1
115	115	12
94	95	4
58	87	3
29	29	12
7	8	5
63	64	6
31	65	5
49	101	2
25	49	3
94	98	1
86	87	6
62	62	13
33	34	3
96	96	7
91	92	9
69	70	3
65	65	9
110	116	2
126	128	3
34	61	1
73	73	6
8	9	5
34	34	12
3	4	4
72	94	1
23	23	12
133	133	3
34	45	4
99	108	2
102	102	6
130	131	4
78	78	12
63	63	2
28	33	2
132	132	9
89	89	9
28	29	3
120	120	11
33	134	2
9	13	1
110	114	3
66	129	2
111	112	5
0	35	2
10	15	1
93	94	3
126	126	4
12	27	1
100	116	1
95	96	2
101	102	2
53	53	6
131	132	6
117	118	5
15	16	8
52	52	3
14	22	3
4	19	1
134	134	15
100	101	2
16	42	3
32	32	4
98	98	4
71	72	4
17	17	5
77	108	1
125	133	2
77	77	7
67	68	3
21	21	10
14	19	3
101	101	8
119	119	10
31	36	4
93	120	1
109	111	3
109	110	1
20	23	3
49	63	1
110	129	1
18	19	7
129	130	1
66	66	4
29	127	1
3	42	1
47	47	3
64	65	5
28	30	2
77	78	1
72	80	2
35	84	2
81	86	2
31	31	6
84	97	1
0	3	3
127	130	3
56	59	4
50	91	5
123	124	3
80	81	2
130	130	8
37	37	4
26	43	2
32	55	1
0	12	1
4	9	1
104	104	10
115	119	1
68	70	3
56	56	2
10	28	3
76	76	6
119	120	6
8	55	1
22	23	2
35	134	1
60	61	1
24	53	1
15	19	1
119	122	1
29	54	1
9	11	1
96	128	1
18	18	2
88	88	10
37	38	3
5	44	1
0	99	1
112	118	1
21	22	2
80	96	1
10	10	6
57	59	1
20	43	4
111	126	1
28	55	2
69	69	10
52	53	2
68	69	4
65	67	1
86	98	2
77	123	1
108	110	3
126	129	1
3	13	2
129	133	4
127	128	3
85	119	2
65	68	1
85	86	2
116	130	2
90	90	4
75	111	1
88	100	1
67	69	1
25	32	2
27	29	1
43	90	6
32	38	2
30	53	1
26	26	3
110	115	2
49	49	2
92	120	2
53	86	2
9	31	1
93	93	6
124	132	2
6	71	1
71	71	2
98	126	2
49	71	1
12	13	2
107	107	4
74	76	1
83	84	2
25	42	1
85	87	1
79	79	7
43	52	4
76	119	2
60	110	3
99	135	1
6	10	1
52	54	1
114	132	1
98	120	2
1	4	4
44	86	2
122	126	1
16	31	1
79	91	1
81	81	7
72	135	1
64	105	1
44	44	8
97	127	2
83	85	1
108	120	2
93	96	3
2	14	1
55	55	3
114	115	1
47	51	1
6	7	2
71	104	3
54	71	1
79	82	2
48	49	2
66	69	1
2	23	1
53	90	2
102	104	3
47	84	1
43	56	1
100	118	1
58	59	5
95	99	1
101	126	1
52	99	2
50	71	1
9	109	1
108	108	3
90	122	1
97	126	1
31	34	1
89	90	1
121	121	1
35	36	3
67	72	1
24	28	2
50	97	1
44	85	2
33	35	2
18	99	1
77	83	2
112	113	4
47	48	1
58	60	1
49	91	1
62	76	1
29	92	1
60	62	1
80	94	1
106	114	1
99	123	1
6	37	1
28	61	2
34	83	2
33	54	2
77	117	2
29	43	1
135	135	1
110	111	1
26	45	3
92	93	2
89	104	1
58	127	1
25	33	1
98	99	2
111	125	1
30	52	1
108	116	1
29	53	2
3	5	1
66	67	1
3	11	1
50	54	1
33	46	1
23	35	2
117	130	1
45	64	1
121	124	1
42	43	1
24	25	1
126	127	2
12	48	2
30	82	2
4	31	1
36	37	1
69	134	2
81	133	1
56	62	1
62	100	1
32	33	1
39	39	2
26	27	1
34	53	1
6	22	1
88	93	1
73	74	1
17	27	1
10	27	1
76	89	1
44	98	1
110	121	1
112	135	1
48	48	1
104	105	1
10	109	1
27	28	1
19	21	1
43	91	1
31	32	1
64	85	1
71	115	1
62	74	1
56	58	1
43	67	1
