39	39	5
0	0	9
75	76	7
28	102	1
8	11	4
36	36	7
3	6	5
2	2	4
69	69	3
3	72	7
83	84	5
82	82	3
14	19	1
11	11	5
38	38	4
46	46	10
111	112	2
2	3	5
83	83	7
2	68	3
6	7	5
33	33	1
118	118	8
55	55	4
50	55	3
24	27	8
86	86	1
73	73	6
59	81	2
68	68	5
120	121	2
12	83	4
8	8	5
44	44	1
58	131	5
72	72	16
98	98	5
63	63	2
21	21	3
9	9	3
77	77	5
66	66	2
37	38	6
109	110	2
85	85	3
103	104	2
95	97	5
93	93	1
128	128	5
96	96	1
59	67	3
133	134	6
45	45	1
15	15	3
127	128	1
125	125	5
130	132	1
131	131	5
30	30	5
132	133	5
37	37	2
110	111	2
107	107	4
13	13	3
34	57	1
2	107	1
37	39	2
102	102	6
91	92	1
86	90	3
122	122	1
82	114	2
47	57	2
95	116	3
111	111	1
10	10	1
33	57	2
21	22	3
27	101	1
42	90	1
79	79	2
60	60	3
84	85	1
82	83	6
11	12	3
35	35	3
64	64	4
67	67	3
121	121	3
94	94	2
38	42	1
84	84	2
27	118	4
119	120	1
32	32	4
18	18	1
74	74	4
133	133	3
76	76	4
109	109	3
56	82	2
20	20	2
134	134	3
7	7	2
129	129	3
31	84	2
71	71	1
47	47	1
9	10	2
120	120	5
28	28	1
35	36	5
40	41	2
81	81	1
2	76	2
19	103	3
117	117	2
36	45	2
65	65	2
57	57	5
115	116	1
3	11	1
108	109	1
1	1	4
96	97	1
81	113	1
40	40	5
33	84	4
111	114	1
43	45	1
124	124	2
27	28	3
27	27	2
110	110	1
56	58	1
91	91	2
29	30	1
33	90	1
41	41	1
19	105	1
68	77	1
77	78	1
87	87	1
119	119	5
19	19	1
33	44	2
14	14	2
34	34	1
96	98	4
132	132	2
3	3	2
79	80	1
124	132	1
126	126	2
58	82	1
35	37	1
16	17	1
114	115	1
49	49	2
115	120	1
86	87	2
28	104	2
92	92	2
82	115	1
101	101	1
43	43	1
76	77	1
95	95	1
83	134	1
32	95	3
18	60	1
107	108	1
14	15	3
62	62	1
128	131	1
75	75	2
14	16	1
6	6	1
38	39	1
124	130	1
16	16	1
