13	13	10
129	129	20
78	78	3
97	109	2
38	38	7
16	26	1
10	10	4
7	30	3
12	12	9
17	17	12
44	73	1
37	37	9
2	2	17
108	109	3
104	104	5
14	15	4
21	22	9
105	105	2
93	100	3
7	7	5
102	112	2
20	20	12
122	122	8
121	122	4
12	13	1
98	98	7
114	115	4
101	123	2
123	133	2
117	117	6
101	101	4
83	108	3
103	130	1
128	129	4
123	123	8
112	112	11
105	133	1
96	97	4
85	85	7
6	32	1
100	121	3
89	90	1
139	139	1
80	81	2
90	90	13
27	28	3
112	132	4
28	29	6
100	100	8
101	111	3
78	84	6
116	116	13
15	15	2
104	105	5
81	81	3
93	93	3
77	77	4
1	25	3
5	34	1
96	96	9
94	100	4
89	92	2
21	21	3
23	23	2
7	15	3
6	23	2
80	80	9
19	34	1
23	28	2
27	31	2
35	36	1
140	140	5
119	123	3
6	33	1
88	97	1
14	14	7
33	33	4
131	131	7
90	103	3
97	98	1
102	116	1
19	19	5
75	75	4
75	80	3
25	25	3
0	0	4
30	32	1
112	125	1
76	76	18
99	101	2
44	74	2
35	35	5
116	119	5
97	103	3
128	128	4
95	109	2
117	122	5
78	98	3
85	108	7
123	129	2
5	5	3
9	25	9
76	77	3
33	34	4
82	82	4
25	34	4
84	109	3
8	8	9
79	79	3
102	102	7
83	83	4
16	16	3
114	114	4
113	114	2
14	16	5
19	20	4
2	11	3
90	121	2
5	29	7
95	95	5
83	84	1
89	89	1
97	97	3
20	33	5
105	125	3
124	124	2
22	22	5
24	24	3
134	134	5
27	27	6
17	18	6
85	86	6
112	114	4
118	118	1
107	132	1
89	100	2
18	18	7
92	92	2
9	9	6
102	123	1
30	31	4
132	132	2
7	29	3
139	140	2
91	91	1
102	109	2
7	24	2
2	3	1
32	32	3
89	97	1
29	29	8
125	125	3
24	34	2
99	109	1
0	8	1
91	96	1
115	120	2
89	91	1
74	74	6
115	115	2
110	110	2
6	6	3
109	109	2
6	16	1
106	115	1
3	29	4
104	129	2
11	12	1
91	103	1
74	98	1
110	111	2
108	108	3
87	109	2
3	3	1
18	21	2
86	106	2
8	15	2
35	40	2
4	4	10
101	126	1
137	137	5
88	92	1
122	128	1
0	25	1
71	99	2
91	127	1
6	28	3
113	115	1
5	6	2
77	78	2
105	107	5
79	80	5
11	19	4
72	72	6
85	109	2
74	117	1
119	119	3
22	27	1
1	1	7
71	71	1
9	10	2
120	120	5
8	25	2
129	130	1
9	29	1
94	95	2
107	112	2
72	101	1
24	26	4
6	8	2
100	106	2
102	124	1
113	113	4
30	30	2
88	114	1
122	123	1
40	78	1
91	97	1
126	126	1
89	103	1
113	125	1
26	26	4
110	114	1
135	135	1
1	2	1
107	107	2
3	5	2
85	92	1
122	129	1
76	78	2
72	73	1
85	110	1
3	4	1
73	74	3
25	29	3
127	127	1
2	4	1
81	84	2
87	87	1
9	30	2
96	131	2
72	109	2
136	139	2
115	124	1
73	73	2
78	83	1
10	26	2
106	107	1
5	8	3
88	88	2
89	126	1
31	31	1
103	123	2
71	126	1
18	38	1
110	129	1
135	136	1
18	29	1
82	83	1
13	24	1
73	101	1
94	94	4
7	9	3
77	80	2
102	126	2
27	32	3
103	103	1
83	87	2
92	126	1
34	34	1
6	19	1
121	123	1
7	8	1
99	99	1
88	93	1
36	37	3
130	130	1
3	9	1
123	124	1
28	28	1
93	107	1
75	77	1
6	31	1
116	120	1
83	133	1
31	47	1
121	128	1
131	132	1
113	122	2
