6	26	6
13	15	2
100	100	8
4	5	7
73	88	4
71	71	9
86	87	1
37	37	12
2	2	11
34	34	13
126	126	15
89	89	14
26	26	10
83	112	1
4	4	11
28	29	7
78	121	1
129	129	11
5	5	11
95	95	5
133	133	4
75	75	5
10	10	7
93	95	1
135	135	10
99	99	13
91	93	4
81	82	5
17	17	2
86	86	3
81	81	8
118	119	8
75	80	1
109	109	7
21	21	12
71	121	8
5	6	3
103	103	7
134	134	4
112	112	4
83	83	9
84	84	8
122	123	4
33	34	4
128	128	8
7	7	4
132	133	1
27	27	3
33	33	11
11	11	2
139	139	2
75	117	3
114	115	4
3	3	4
35	35	10
36	37	2
79	79	5
110	110	4
74	124	2
30	30	7
116	116	7
4	25	3
101	112	3
127	128	4
127	127	6
74	74	3
114	114	7
82	82	4
0	27	2
71	72	4
83	85	1
105	108	1
6	6	9
9	22	1
131	131	6
23	25	2
82	83	1
13	13	8
111	111	4
76	76	3
13	14	7
16	16	7
96	97	2
95	96	2
88	89	2
74	115	4
36	36	7
123	123	3
88	88	2
130	130	6
71	117	1
92	92	4
68	94	2
126	127	4
113	114	5
103	104	2
93	93	10
76	80	2
16	17	4
120	120	5
106	112	2
116	119	1
8	104	3
72	121	4
19	19	6
118	118	6
1	1	1
104	104	8
119	119	3
11	21	1
91	91	6
86	94	2
78	78	1
105	105	2
77	78	3
117	117	4
112	114	3
4	26	1
72	72	2
25	26	3
115	120	2
32	44	3
80	114	1
106	106	4
3	4	1
83	106	1
108	108	5
12	12	9
124	124	2
20	22	2
88	111	2
9	9	1
125	125	3
98	99	2
110	115	1
78	80	2
38	38	4
96	96	2
132	132	15
0	1	2
121	122	3
3	26	1
36	38	2
11	12	3
79	80	2
123	124	1
29	29	4
3	11	2
111	112	3
135	136	4
116	117	1
27	107	2
107	107	5
32	33	2
115	115	5
81	113	1
95	108	2
85	85	1
74	75	2
114	121	1
92	102	2
28	28	3
73	73	7
66	88	2
94	94	3
80	80	3
89	90	3
21	22	3
74	86	1
98	98	2
108	112	1
31	31	1
93	101	1
8	8	2
138	138	2
101	101	1
94	101	2
2	27	1
32	32	2
84	85	1
0	0	4
134	135	3
12	13	1
14	14	5
9	10	1
87	87	3
90	90	4
115	116	2
117	118	1
18	18	2
77	77	1
22	24	1
12	14	3
74	79	1
24	24	1
105	106	1
130	131	1
72	95	1
15	15	2
37	38	1
8	9	1
74	80	1
71	118	1
92	93	1
23	24	1
114	120	1
25	25	4
20	26	2
97	97	1
12	22	2
34	36	1
129	130	1
128	130	1
71	95	1
124	125	1
119	120	1
11	25	1
6	25	2
121	121	1
75	76	1
103	105	1
80	81	1
104	105	1
0	30	1
20	20	1
