52	52	7
85	98	1
157	158	6
45	99	3
48	49	4
161	161	3
9	67	3
217	217	5
204	204	2
34	35	1
11	11	5
84	114	2
162	163	9
44	44	4
172	172	2
116	117	3
218	244	2
37	38	5
37	150	4
73	73	11
236	236	5
219	219	3
160	165	5
216	216	2
38	39	4
173	173	2
64	113	1
71	71	5
247	247	4
157	157	2
31	31	6
76	77	7
6	6	10
246	246	1
221	221	11
209	245	2
10	10	5
34	34	4
185	185	3
176	225	3
202	202	5
117	117	2
186	186	5
159	174	4
90	119	2
99	99	5
224	233	3
44	94	3
199	212	1
118	118	2
50	84	1
5	110	1
239	240	2
24	24	2
5	111	1
212	212	4
64	69	1
169	170	1
107	107	1
58	58	2
160	160	5
69	97	2
14	15	2
113	113	4
56	57	2
88	88	8
217	239	1
35	35	4
70	70	6
208	214	1
30	31	4
0	1	6
53	54	4
88	91	3
53	53	2
50	50	3
85	117	3
199	199	3
153	154	1
29	29	5
92	92	2
41	70	3
54	54	2
7	65	3
176	176	8
74	74	3
12	12	2
182	183	4
42	42	5
190	190	4
111	111	3
213	214	2
164	184	1
13	13	3
95	95	1
161	198	2
163	163	5
192	235	2
158	218	3
115	115	5
10	39	1
237	237	8
13	24	2
174	220	5
36	36	4
40	68	2
48	48	6
195	234	1
31	32	3
91	91	3
36	39	3
88	89	3
73	75	3
40	40	4
183	183	2
93	93	2
19	60	4
109	227	2
56	56	2
161	230	3
16	16	5
7	34	1
66	66	3
158	158	6
109	155	2
76	76	7
162	162	4
175	238	6
109	113	1
209	213	5
78	78	3
44	156	5
68	85	2
94	94	2
87	98	7
199	203	2
30	30	5
80	80	2
205	205	2
197	197	1
97	97	2
177	238	4
170	170	3
89	89	2
164	164	6
201	234	1
32	68	4
201	203	1
21	70	1
223	223	1
108	109	3
69	69	8
20	20	4
4	4	6
24	71	1
26	26	2
187	246	1
63	63	2
27	27	2
60	60	3
174	176	2
110	110	3
52	68	1
211	212	5
98	102	4
213	213	6
22	23	3
150	150	8
106	106	4
101	101	1
119	119	4
231	231	8
218	219	1
102	102	3
63	94	4
41	41	3
162	224	9
109	110	1
30	156	3
82	82	5
189	189	1
108	111	2
191	191	7
157	159	2
234	235	3
90	91	1
193	194	2
191	215	1
239	239	2
160	204	2
159	167	2
39	39	3
15	15	3
50	76	3
207	207	3
155	205	2
194	194	3
55	55	3
222	228	5
45	62	2
175	175	8
85	85	4
210	211	1
227	227	6
63	73	1
18	18	2
170	220	3
108	108	1
22	60	1
231	232	1
18	64	5
190	199	1
169	223	3
37	37	3
66	97	4
194	233	2
116	116	3
245	245	1
5	5	4
41	85	1
33	34	2
151	153	4
243	244	1
3	33	2
230	247	4
25	54	2
50	66	3
241	242	2
167	167	4
167	192	1
45	45	2
0	3	1
99	116	4
45	90	2
25	25	1
214	214	5
146	146	3
201	201	4
155	155	5
75	104	1
49	49	4
37	42	3
217	218	1
158	217	1
222	222	1
68	68	2
200	200	2
161	223	1
25	26	1
174	174	3
160	223	3
62	94	1
177	177	3
152	152	2
51	51	2
159	218	1
248	248	2
51	84	1
208	245	1
195	195	3
23	23	2
157	164	1
60	63	1
6	7	1
186	187	2
188	188	1
81	117	2
155	167	2
17	65	1
153	153	2
93	120	1
165	185	2
113	162	1
38	65	2
106	107	2
81	81	1
168	168	2
218	218	2
244	245	1
40	51	2
175	186	2
3	3	2
203	203	1
178	178	2
7	50	1
146	196	2
154	160	2
17	17	1
120	120	1
238	238	2
161	235	2
208	209	1
7	7	1
99	107	2
167	216	2
156	156	3
19	19	5
91	117	5
42	44	1
91	119	2
230	231	1
167	243	3
14	50	1
51	145	1
201	204	2
233	233	1
237	238	2
9	113	2
154	163	1
194	243	1
243	243	3
179	225	1
2	20	1
172	236	1
14	49	1
184	185	1
9	105	1
3	19	1
5	41	1
9	48	1
117	144	2
224	224	2
11	44	1
241	241	3
96	102	2
163	232	2
15	104	1
174	237	1
104	104	1
230	240	1
192	192	2
233	238	2
196	234	1
43	156	2
165	165	2
189	190	1
160	184	2
151	151	2
155	162	1
32	98	4
43	43	1
212	213	1
21	21	1
55	57	2
16	156	2
235	236	1
89	101	1
12	47	1
161	163	1
59	98	1
27	41	1
51	82	2
244	244	2
167	195	1
184	184	2
105	105	3
150	223	1
59	59	1
31	144	1
4	5	1
171	224	1
96	96	1
59	60	2
21	27	1
198	198	1
42	43	1
159	163	1
60	94	1
65	65	1
217	236	1
98	98	1
193	193	1
111	112	1
230	233	1
156	157	1
14	47	1
73	78	1
226	226	1
70	71	1
87	87	1
114	155	1
33	33	1
240	240	1
22	22	1
46	46	1
109	109	1
240	242	1
214	242	1
