32	32	9
35	94	1
85	86	3
28	28	1
56	56	3
38	38	6
138	138	1
138	140	1
59	59	4
10	10	4
61	61	4
177	177	9
180	185	2
47	47	5
178	179	1
20	20	2
107	107	6
29	29	9
157	158	1
16	16	9
97	97	2
46	47	6
42	42	5
71	77	1
168	168	9
113	113	4
172	172	3
197	197	8
5	5	2
16	122	1
45	45	2
14	14	3
111	111	4
117	117	2
132	132	3
187	188	2
120	120	4
17	18	3
128	128	3
126	126	2
73	75	5
136	136	8
121	121	4
19	20	2
48	134	1
191	191	4
125	125	3
67	68	2
179	180	4
134	134	4
190	190	5
26	26	7
114	114	2
43	43	3
54	54	3
133	133	9
133	137	2
35	35	6
77	77	2
50	50	7
12	12	15
33	33	4
164	164	3
181	181	2
55	56	4
77	78	2
179	179	3
141	141	4
106	107	3
116	116	2
186	186	4
58	58	4
44	44	9
52	53	4
15	15	3
24	25	3
102	135	1
51	51	5
161	161	3
123	132	1
161	162	3
129	129	2
145	146	4
12	13	1
112	112	3
146	146	4
153	154	3
113	150	3
9	9	10
78	79	1
8	8	3
133	136	2
144	145	2
65	65	2
48	48	9
139	139	3
185	185	2
79	79	7
132	135	3
109	111	2
193	193	4
5	7	2
108	108	12
68	78	2
23	23	7
62	62	1
36	36	1
137	137	3
192	192	4
118	118	2
191	193	1
183	183	4
21	21	4
98	100	2
22	69	2
32	113	4
132	151	1
156	156	3
52	52	1
132	133	1
57	57	4
124	124	7
94	98	3
167	176	2
30	30	2
74	74	1
80	80	1
112	113	8
78	78	1
119	120	2
191	192	2
145	145	2
115	115	3
6	8	2
9	31	1
184	184	6
29	31	1
127	127	6
146	169	2
72	72	4
181	182	1
55	76	1
67	67	2
188	189	2
34	34	3
25	27	3
82	82	2
158	159	1
25	25	1
38	39	2
53	53	3
151	152	3
71	71	1
138	141	3
110	135	3
171	186	3
43	117	3
99	99	1
76	78	6
6	7	2
119	119	4
188	188	3
163	163	2
155	155	3
30	31	1
55	55	1
86	86	1
166	166	3
147	147	1
35	97	3
135	136	4
94	94	1
161	164	2
160	160	4
136	190	2
37	37	10
106	106	3
111	112	1
99	151	2
152	152	3
158	158	2
96	97	1
27	27	1
99	133	2
110	110	2
7	8	2
172	174	1
3	102	2
51	52	1
154	154	3
102	102	2
101	101	4
116	124	1
122	122	6
130	130	2
159	160	2
46	46	2
133	135	3
143	163	2
69	69	3
64	94	1
64	90	3
65	68	3
135	135	1
23	24	4
104	165	1
6	6	5
48	49	1
140	140	2
32	33	2
126	127	2
132	184	1
45	88	1
150	150	2
39	39	2
115	118	1
70	88	1
88	88	2
104	157	1
162	165	1
18	18	1
169	169	5
42	43	1
13	14	1
76	79	1
133	134	1
171	183	2
196	197	1
1	25	1
157	157	1
7	7	4
103	104	3
171	182	1
128	183	1
0	28	1
21	22	1
150	151	1
41	41	1
81	84	2
100	100	2
160	161	1
182	182	1
5	10	1
3	4	1
181	196	1
49	49	2
178	180	1
70	71	1
31	31	1
174	187	1
195	195	1
12	14	1
70	70	1
123	123	1
10	11	2
136	178	1
40	40	1
45	46	1
107	147	1
37	40	1
13	13	1
81	83	1
185	193	1
6	98	1
153	161	1
107	146	1
153	164	2
13	97	2
43	45	1
166	167	1
190	193	1
170	170	1
175	176	1
175	175	1
195	197	1
171	172	1
108	111	1
151	155	1
48	124	1
11	137	1
39	40	1
120	123	1
149	149	1
