33	33	36
13	13	20
28	53	4
64	64	12
21	21	17
71	71	10
20	29	4
22	23	5
10	48	3
52	53	4
13	55	8
28	28	18
25	26	7
57	61	3
59	59	30
11	21	2
10	10	11
63	64	6
32	32	18
30	30	18
76	76	21
2	2	16
5	8	3
0	32	2
48	48	17
49	50	4
27	41	5
58	58	19
1	1	11
41	41	9
59	60	6
21	23	4
55	55	11
10	12	3
0	34	6
66	66	11
49	52	1
39	39	10
37	37	11
72	72	17
36	36	13
56	56	14
62	62	7
53	53	19
23	23	16
22	22	5
65	65	6
6	50	1
27	28	5
35	37	5
8	8	15
29	40	5
27	27	6
45	45	19
24	54	2
26	30	3
0	31	2
31	31	10
50	50	15
51	51	10
41	42	11
21	25	6
3	10	1
29	30	5
38	38	15
60	60	6
4	5	4
0	0	13
74	77	1
6	71	2
20	21	3
12	12	13
13	47	2
22	25	5
13	48	6
22	30	3
45	46	3
71	72	4
21	31	8
39	40	2
47	47	10
42	74	2
64	65	3
6	6	12
19	20	6
57	57	5
29	29	13
68	68	6
4	19	2
29	39	4
11	12	1
76	77	1
0	1	11
71	73	12
9	9	10
39	66	2
54	60	2
3	52	2
75	75	13
3	3	8
30	33	3
26	28	4
19	19	8
40	40	13
20	20	10
34	39	2
42	42	17
44	44	12
57	60	2
42	43	6
11	48	3
33	55	1
23	32	1
70	70	4
29	46	7
69	69	8
48	51	5
5	5	11
50	51	3
41	43	2
34	34	3
47	48	6
53	54	4
41	70	5
11	11	10
26	26	4
61	61	6
54	55	3
14	19	1
36	37	7
43	44	5
74	74	10
35	35	5
56	60	2
59	74	4
33	42	1
24	25	4
21	44	1
22	45	2
12	48	3
44	76	2
48	49	8
54	54	12
62	63	6
22	50	2
35	36	11
1	2	7
52	52	8
24	24	9
7	7	2
73	73	8
29	31	2
63	63	15
43	43	14
46	46	7
30	34	6
3	18	1
2	54	1
4	4	13
26	60	3
46	47	2
49	51	4
23	53	2
8	10	3
49	49	4
18	18	3
10	50	3
64	76	2
56	57	1
39	41	1
22	44	1
45	48	1
27	75	2
77	77	6
57	59	2
40	43	1
72	76	1
60	61	3
66	68	4
11	50	1
51	52	6
43	75	3
61	63	2
57	58	2
18	19	3
20	42	1
67	67	15
25	25	11
3	5	1
32	50	4
48	54	2
5	9	3
29	33	2
24	26	1
21	49	3
27	43	1
28	42	2
65	71	1
31	32	2
53	56	1
37	38	1
64	67	6
68	69	2
34	35	2
20	48	3
2	47	3
4	8	1
33	44	1
48	52	2
43	74	4
0	12	4
30	31	5
40	41	1
29	37	1
55	56	2
47	51	1
8	9	1
73	74	1
14	43	2
49	75	1
6	7	1
2	3	3
9	10	1
1	4	2
18	46	1
32	33	2
42	70	2
63	66	1
75	76	2
63	67	2
11	75	1
34	36	2
58	59	2
9	18	1
68	71	1
33	34	2
6	30	1
72	73	1
63	71	3
29	34	1
10	11	1
55	63	1
55	60	1
54	57	2
65	66	1
34	63	1
23	39	1
3	4	1
20	31	1
70	71	1
67	70	1
12	13	1
20	44	1
6	11	1
21	22	2
4	23	1
26	27	1
42	44	1
44	45	1
