32	32	4
125	125	7
54	54	4
154	154	1
107	107	5
76	99	6
83	83	8
36	36	2
71	71	6
46	46	4
133	133	5
123	123	1
116	116	7
56	121	5
97	110	2
148	148	3
14	14	1
30	43	5
118	118	1
40	42	3
10	10	1
38	101	2
40	40	5
38	38	4
18	21	6
68	68	7
78	78	4
141	141	11
113	131	3
111	132	1
70	74	1
111	113	3
139	139	3
77	127	4
34	40	3
75	99	1
93	93	4
115	117	4
138	138	1
41	103	4
26	29	1
22	24	3
92	93	2
38	39	4
102	102	3
63	65	3
112	112	5
35	47	4
29	29	5
136	137	1
16	16	4
140	140	3
66	109	7
109	109	4
14	15	5
26	50	1
8	12	1
99	99	1
95	95	2
33	35	7
105	127	1
132	132	9
129	129	5
117	117	4
79	79	1
81	81	3
97	109	2
30	45	6
106	106	2
80	80	2
84	127	2
5	30	1
27	56	2
30	30	4
96	110	1
114	129	2
48	48	8
8	17	3
3	26	2
100	100	4
67	67	2
66	67	1
66	66	1
78	127	2
7	7	2
142	144	2
57	83	3
63	105	3
26	26	6
153	153	2
72	73	1
127	127	6
94	94	1
23	44	3
108	136	1
84	109	2
35	36	5
86	86	1
4	5	5
87	87	2
22	22	5
67	69	2
32	36	1
131	131	5
102	104	2
98	98	6
20	24	2
81	114	2
75	75	3
53	53	1
20	21	2
139	140	5
64	65	2
76	78	1
135	135	9
104	104	6
33	101	1
6	7	2
130	131	2
147	147	5
82	105	1
31	45	1
145	145	3
37	37	4
85	85	2
121	121	1
95	115	2
11	13	2
6	25	1
105	128	1
146	146	3
7	17	1
69	95	1
74	74	2
142	142	4
21	21	2
81	88	3
12	12	2
16	18	2
8	9	4
4	6	1
43	43	3
105	126	2
42	42	2
70	70	2
84	84	3
55	55	1
46	47	2
73	73	1
88	88	1
64	105	1
78	93	3
19	19	6
82	89	1
97	98	1
129	130	1
20	20	2
103	107	1
28	28	2
69	75	1
29	50	1
72	95	1
41	41	2
144	145	2
119	119	1
100	103	2
82	127	1
53	58	1
65	67	1
17	17	4
25	26	3
125	126	1
83	93	3
149	149	1
34	34	2
5	6	1
32	33	1
80	124	2
45	45	3
24	24	1
147	148	1
136	136	2
24	25	2
47	48	1
108	137	2
50	50	6
99	141	2
69	70	3
77	77	1
86	126	1
17	20	3
65	140	2
31	32	2
34	45	1
13	13	1
65	65	2
44	44	3
56	56	2
152	152	2
134	135	1
78	128	1
27	28	1
76	98	1
49	87	1
30	31	1
143	143	1
142	143	1
118	130	1
32	34	1
94	95	2
122	122	3
145	147	1
34	101	2
23	23	1
39	149	1
140	141	1
64	104	1
39	39	1
114	125	1
136	138	1
97	97	1
130	130	5
79	83	1
63	64	1
120	120	1
78	92	1
69	69	1
8	8	1
2	30	1
114	114	2
23	25	1
4	47	1
107	108	2
9	12	1
100	102	1
107	136	1
110	110	1
85	98	1
31	31	1
9	9	1
6	6	1
4	45	1
42	45	1
66	69	1
