20	20	12
95	96	3
36	37	4
128	140	4
94	95	7
72	73	7
124	124	6
32	32	4
31	32	13
120	120	13
18	18	15
54	54	9
44	44	4
99	99	14
114	114	6
151	153	4
147	152	2
12	32	3
74	75	3
115	115	8
25	49	1
39	39	12
144	146	7
80	82	5
34	38	4
138	138	14
43	43	6
109	110	5
57	57	5
26	73	3
22	22	5
84	84	23
132	132	11
71	71	9
66	67	11
114	115	4
15	17	7
144	144	9
36	36	5
98	99	1
97	99	4
76	77	10
98	112	2
96	97	7
10	55	3
24	24	13
74	74	7
151	151	4
74	78	2
141	141	16
41	41	7
19	19	12
148	148	18
12	26	8
68	68	10
17	113	1
108	108	13
106	106	13
85	85	7
31	41	2
137	137	11
40	40	2
50	50	11
153	153	7
69	71	2
125	126	4
9	52	1
17	18	5
42	42	13
67	67	18
113	113	17
145	146	5
118	118	16
23	23	5
93	93	12
9	39	4
26	45	8
139	139	12
96	133	1
79	79	6
136	147	1
13	18	2
133	134	4
78	78	8
110	110	15
47	48	6
28	29	7
11	12	3
85	128	1
5	5	5
62	88	1
82	82	11
47	47	7
129	129	9
25	25	5
76	87	3
3	147	1
136	148	2
115	116	6
24	46	2
76	102	1
102	110	3
30	30	8
84	114	5
31	31	5
16	17	4
48	118	1
138	151	3
18	53	1
80	80	9
85	108	1
45	46	4
62	62	5
73	73	10
12	12	4
85	86	3
136	142	2
27	30	2
109	109	8
151	154	3
13	13	17
9	31	2
29	29	20
147	147	4
87	102	2
136	137	6
50	65	4
91	114	1
43	66	2
41	47	1
63	63	8
150	154	1
12	23	2
130	151	2
112	138	5
6	10	1
75	75	10
26	32	9
87	88	8
108	109	3
85	117	3
88	112	4
152	152	10
2	2	11
11	29	3
149	149	8
64	104	4
112	113	3
93	101	1
6	128	2
70	70	17
10	10	8
19	20	7
30	40	3
138	139	4
48	48	4
150	150	3
104	104	3
28	28	8
150	151	9
7	7	4
88	126	5
98	109	3
11	55	1
40	43	3
24	25	2
74	81	1
119	119	7
95	99	7
121	121	9
72	72	6
140	141	7
83	113	4
128	128	14
136	136	4
114	135	6
131	131	10
103	105	2
105	108	1
127	128	4
20	21	6
8	9	3
53	54	15
16	16	11
97	97	6
135	135	4
5	6	4
117	117	6
11	38	2
46	47	2
46	46	11
53	53	5
103	103	3
79	128	5
35	35	10
56	56	10
104	108	2
27	27	2
125	130	1
96	99	1
21	21	7
69	118	1
87	112	2
147	148	4
15	16	1
139	140	1
143	144	2
6	11	2
8	8	2
26	26	12
3	36	1
125	125	6
123	123	8
29	39	1
102	102	1
73	74	3
122	126	3
97	112	2
63	112	2
122	122	6
95	95	8
142	142	4
53	56	3
114	134	1
148	150	2
17	17	7
34	36	3
31	33	2
96	96	5
111	137	3
2	3	2
67	68	5
80	116	2
75	77	1
66	66	1
140	140	3
37	37	3
34	35	3
117	118	3
38	38	3
45	45	7
77	88	2
116	116	2
13	17	4
12	15	3
7	8	5
86	112	4
81	122	1
99	108	2
62	100	4
73	75	3
77	79	4
35	36	1
26	50	3
73	117	1
42	43	3
142	144	5
52	52	4
81	81	11
101	101	1
94	94	7
44	46	6
3	3	5
80	128	5
136	138	1
83	114	1
127	127	10
56	57	4
78	128	2
33	34	2
84	117	1
11	14	3
77	77	13
31	42	4
35	75	2
29	36	5
115	126	4
70	114	1
122	146	4
149	150	5
119	120	2
52	62	1
12	38	2
105	105	4
138	154	4
14	15	3
81	83	1
5	8	2
101	102	5
111	111	6
97	110	1
9	9	3
65	65	5
100	100	7
64	64	6
43	44	3
15	33	1
137	138	3
73	133	3
83	83	4
41	50	2
131	133	2
87	87	4
40	67	2
65	67	3
91	92	1
15	15	2
47	49	3
64	65	4
103	148	1
143	146	2
69	69	11
62	64	1
119	122	2
5	35	2
18	54	2
68	118	3
70	71	3
100	110	1
18	19	2
82	145	4
15	53	3
78	79	2
105	106	3
39	51	3
122	123	4
80	121	2
77	84	2
92	93	2
64	124	1
15	40	1
86	86	8
45	49	4
29	30	3
21	22	5
33	57	1
107	107	9
131	138	3
99	100	4
64	67	3
38	39	2
20	63	2
10	11	1
129	130	2
41	46	1
123	127	2
49	64	2
23	133	1
68	69	3
44	50	1
115	143	2
32	33	3
25	26	3
133	133	3
129	131	1
128	129	4
73	83	1
97	98	2
125	127	3
92	94	3
63	64	1
134	135	1
134	137	1
22	23	4
10	27	3
79	80	1
83	109	2
110	112	1
38	40	1
16	68	1
26	34	1
112	112	4
92	92	3
95	105	1
143	143	3
43	49	1
111	112	1
89	93	1
100	102	3
73	96	2
33	33	2
145	145	2
73	82	1
98	98	1
134	134	3
110	136	1
137	139	1
103	108	1
96	135	1
122	144	1
117	123	1
100	101	2
32	78	1
51	52	1
142	143	1
130	131	2
65	121	2
88	88	1
141	142	1
9	29	2
88	103	2
93	94	1
26	51	2
148	151	1
12	39	1
81	115	2
51	55	1
4	36	1
14	22	1
6	6	3
56	78	2
34	34	1
31	120	1
49	49	1
74	76	2
97	100	1
116	117	2
4	5	4
138	152	1
84	85	2
83	84	1
13	53	1
95	106	2
51	65	3
40	42	2
67	114	1
16	18	1
154	154	3
135	152	2
68	114	3
76	76	2
66	122	1
14	14	2
13	52	1
84	116	1
118	152	1
126	128	1
142	146	2
113	114	1
110	111	2
33	55	1
88	102	2
51	51	2
11	11	1
124	125	1
27	28	1
132	133	1
107	146	1
112	114	3
21	63	1
99	109	2
87	89	1
123	128	1
103	104	1
85	135	3
27	32	1
9	10	2
82	120	1
14	52	1
82	121	1
40	66	1
106	108	2
4	7	1
22	29	1
67	122	1
24	47	1
141	144	1
130	130	1
78	83	1
106	107	1
57	65	1
58	58	1
126	126	1
79	86	1
