27	90	1
22	22	9
112	112	3
27	28	6
94	94	23
102	104	3
83	83	3
95	95	9
33	33	9
75	75	7
71	71	11
105	105	9
39	40	5
67	67	11
29	29	9
50	58	2
91	92	6
74	74	11
55	57	1
64	64	10
45	45	15
62	62	22
87	87	11
77	78	8
25	25	16
102	102	13
66	66	18
73	76	2
57	57	10
98	99	13
34	36	4
110	110	8
99	99	12
93	94	7
103	103	13
63	63	15
77	77	21
26	26	19
70	71	3
82	83	18
74	75	7
27	27	15
65	65	10
29	105	1
21	21	19
28	113	1
24	38	4
22	42	5
24	24	14
73	74	8
39	39	10
113	113	7
94	95	7
34	34	35
65	67	4
92	92	6
24	59	1
53	53	11
97	97	22
32	32	11
21	22	3
47	48	1
25	27	2
69	69	9
59	62	3
49	51	2
35	36	6
111	111	4
36	39	9
23	23	9
72	72	14
53	56	1
68	68	6
36	36	7
37	38	4
59	61	7
50	75	1
60	65	2
33	35	6
46	46	11
79	79	4
38	38	21
108	108	8
59	59	9
32	35	2
36	38	3
101	101	12
99	110	2
42	42	6
84	84	11
37	37	7
51	51	14
78	79	3
81	81	11
26	27	8
83	84	3
28	28	12
103	105	2
83	85	3
70	70	6
73	73	14
93	93	9
61	61	12
79	93	1
98	107	6
80	88	1
107	107	2
25	41	3
56	57	2
40	40	9
98	98	9
31	31	8
106	106	17
91	113	5
27	50	3
40	70	2
111	112	5
53	54	4
24	45	4
56	56	4
43	43	5
37	46	6
40	41	2
49	50	1
23	24	9
90	90	4
44	44	8
33	34	4
50	50	5
70	74	4
38	39	10
77	90	2
107	112	1
47	47	2
42	43	6
113	114	10
49	57	2
88	88	9
88	90	3
104	107	3
109	109	9
22	95	1
81	94	1
69	73	5
103	106	1
25	64	2
105	106	4
37	47	6
34	35	2
43	47	1
54	54	19
82	82	5
52	52	7
65	66	3
72	73	4
81	96	2
71	74	2
19	47	2
49	49	6
35	35	3
50	52	4
42	45	3
96	97	10
86	89	6
21	26	2
45	73	2
31	49	6
49	56	3
30	30	10
26	40	4
97	98	7
96	96	6
64	65	4
114	114	6
60	60	4
71	73	2
75	91	5
54	55	5
81	83	4
41	73	1
74	78	1
107	108	4
86	87	2
82	97	5
105	107	1
108	113	4
43	44	3
91	91	5
90	91	9
59	60	6
69	70	2
95	100	1
99	100	5
93	96	6
29	108	2
98	101	2
58	58	2
20	20	1
76	78	3
31	32	3
50	92	2
52	53	3
85	87	4
60	66	5
19	23	1
30	31	2
80	80	3
24	48	5
78	92	1
102	112	2
80	83	1
20	21	2
27	88	4
25	26	2
100	101	4
55	56	1
33	37	2
86	86	1
94	96	2
44	45	4
21	23	7
55	55	6
24	25	2
99	107	2
60	61	2
46	47	2
52	58	1
68	69	4
85	85	4
89	108	1
21	25	1
75	79	1
79	80	3
88	108	1
81	82	3
80	94	2
22	23	3
25	59	3
76	77	2
104	104	6
78	88	1
22	48	2
71	72	3
48	60	1
102	113	1
88	109	3
72	74	2
25	78	1
36	37	1
78	78	3
76	76	3
42	44	1
68	73	1
26	91	1
89	90	1
89	91	1
48	48	2
32	36	1
25	34	2
39	41	2
98	103	2
41	42	1
44	96	2
49	53	1
102	108	1
109	110	1
85	86	1
51	53	1
84	107	1
95	96	1
52	57	1
88	89	2
50	51	2
81	95	1
49	62	1
19	19	1
61	62	1
41	41	1
20	39	1
59	64	4
79	82	1
108	112	1
100	107	1
41	66	1
20	95	2
87	91	1
49	58	2
111	113	1
46	65	1
74	77	2
43	95	1
42	66	1
108	109	1
