144	168	2
13	13	5
148	150	1
147	147	9
84	84	5
128	136	5
31	36	2
8	13	1
62	62	4
41	41	6
6	6	4
87	87	9
9	14	2
177	177	3
101	104	7
11	11	9
77	77	3
149	149	7
156	156	10
24	24	14
88	88	9
154	154	3
75	75	6
63	63	2
115	117	4
185	186	5
61	62	6
158	158	7
39	40	1
84	125	2
28	31	2
17	17	5
57	57	7
56	56	5
28	30	1
26	27	3
120	120	4
73	73	6
20	20	5
128	128	2
148	148	6
165	165	4
48	48	6
40	40	3
98	98	2
117	117	1
90	90	6
5	5	2
152	170	1
104	104	1
101	101	2
5	85	5
102	112	2
31	32	4
27	29	1
184	184	2
91	91	3
160	163	5
2	2	3
186	186	4
4	85	2
74	75	3
0	0	3
163	164	3
134	134	2
6	8	1
34	34	5
133	133	2
1	1	3
12	13	6
19	19	4
40	42	1
3	3	1
99	100	2
109	109	5
94	96	4
2	83	3
92	167	3
53	54	2
7	8	7
32	32	1
66	68	3
169	169	3
171	172	1
15	15	5
24	29	4
123	123	1
42	46	3
81	81	4
115	116	3
182	182	11
168	168	1
10	10	3
90	95	2
47	47	3
60	61	1
67	67	4
16	16	3
99	99	3
38	38	3
79	82	4
33	37	1
162	162	1
185	185	5
157	158	2
10	12	3
26	29	1
151	151	4
152	152	4
174	175	1
137	137	1
148	149	3
134	138	5
139	139	2
119	119	2
142	143	2
186	187	1
94	95	1
89	89	2
35	36	2
4	5	1
140	186	4
115	118	2
21	21	2
153	153	4
59	61	3
142	142	1
15	81	1
23	23	2
148	151	1
47	48	2
124	124	2
78	78	2
114	115	2
160	160	2
176	176	4
128	129	1
59	60	2
38	42	1
25	25	1
154	156	1
34	37	1
31	31	2
107	107	1
4	4	3
124	125	3
159	160	5
174	174	6
156	169	1
32	33	3
58	59	1
40	41	3
112	122	2
8	8	1
189	190	1
36	36	1
59	59	1
6	7	1
175	175	1
8	10	2
126	127	2
67	68	2
115	115	1
163	163	1
124	126	2
111	112	2
102	102	3
39	41	1
43	44	1
158	164	1
103	112	1
132	132	1
44	44	1
141	141	1
152	153	3
14	15	1
176	177	2
117	119	1
157	157	1
97	98	2
173	173	2
76	77	2
101	102	1
125	125	1
164	165	1
170	170	3
131	131	3
30	30	1
160	162	1
188	188	1
73	75	2
91	92	1
23	24	1
114	114	1
14	14	1
96	96	2
22	22	1
68	68	2
27	28	1
147	150	2
71	71	1
35	37	1
181	181	1
187	188	2
74	74	1
0	171	1
79	79	1
106	108	1
182	183	1
140	140	1
43	43	1
130	130	3
94	94	1
69	69	1
43	46	1
55	55	2
7	7	1
148	155	1
143	143	2
42	42	1
183	184	1
143	144	1
111	111	1
53	63	1
96	99	1
129	129	1
