114	119	4
30	30	15
116	116	17
88	88	9
11	11	13
19	23	3
69	69	11
124	124	16
1	2	4
9	9	7
42	43	2
99	99	11
79	79	8
98	98	13
122	122	7
125	126	4
50	50	30
20	20	21
134	134	11
114	114	10
93	93	6
23	24	2
54	54	12
71	72	9
64	64	22
80	81	2
69	111	1
12	12	16
122	127	4
99	111	1
25	25	9
10	10	15
75	75	10
122	125	6
27	27	6
109	111	7
113	113	13
22	22	13
1	1	9
76	106	1
57	58	2
108	110	4
45	45	11
76	76	4
54	55	4
23	23	9
21	21	14
24	24	14
80	80	7
69	120	3
86	86	12
100	100	12
123	123	16
108	108	11
21	27	3
4	4	8
79	110	1
78	78	9
112	112	17
119	119	10
95	95	7
28	29	4
26	26	5
65	65	22
27	34	1
45	85	2
83	83	4
16	16	16
6	106	4
14	14	9
118	118	11
19	19	8
37	37	9
107	107	7
68	68	12
60	60	3
25	84	1
66	97	1
127	127	16
36	37	3
52	89	7
22	23	7
82	82	6
17	18	9
16	19	3
115	115	6
99	100	2
66	67	5
52	77	1
82	83	2
63	71	2
52	56	2
135	135	2
71	71	15
97	111	1
62	64	5
36	36	9
127	128	4
52	55	5
131	132	6
111	111	11
102	102	10
58	58	7
120	120	11
94	94	13
100	113	1
54	131	4
19	25	4
87	87	13
49	52	2
93	95	2
18	18	18
61	61	11
15	15	7
96	96	9
35	36	3
132	132	12
66	115	2
5	5	5
103	103	7
92	92	16
66	66	3
129	129	26
85	85	7
45	47	2
104	105	6
2	2	7
20	21	5
55	55	13
44	45	3
48	60	2
59	60	1
91	91	16
83	97	3
104	104	8
68	69	5
102	135	3
95	98	2
2	38	2
122	123	12
4	28	3
114	115	1
134	135	2
57	116	2
74	74	16
46	46	3
69	75	1
124	126	1
24	25	1
78	79	3
62	62	9
0	43	2
124	129	1
13	13	2
15	18	1
78	125	1
67	115	1
98	99	1
32	36	3
87	125	6
0	12	2
89	89	8
46	129	1
30	31	6
81	97	2
106	106	3
109	118	2
126	127	4
90	90	8
34	34	6
91	111	3
57	57	9
67	68	2
74	104	4
19	20	4
1	9	1
104	134	3
122	126	3
125	127	4
22	28	2
101	130	2
86	128	3
13	134	5
130	130	4
21	25	3
58	63	4
76	77	3
38	38	8
125	125	5
84	86	1
118	119	1
17	17	4
6	6	10
52	127	3
99	106	1
7	7	5
133	133	4
68	110	3
58	75	2
115	120	5
98	129	4
8	8	11
77	77	4
63	63	8
10	21	1
43	43	3
110	110	11
43	92	1
127	129	3
12	13	4
61	108	1
92	107	1
81	81	10
32	33	7
101	102	7
72	72	6
78	90	1
127	130	4
54	133	1
44	124	1
17	19	3
38	103	4
10	17	3
114	132	1
52	52	5
128	128	6
50	78	3
56	106	3
54	112	1
97	97	14
42	42	1
67	67	4
61	131	4
3	3	11
14	43	4
43	80	6
126	126	8
58	59	6
84	84	2
101	101	7
80	96	2
49	54	2
85	97	4
70	70	5
21	22	3
31	31	7
67	69	1
69	115	2
83	84	4
58	73	2
51	51	3
109	109	4
49	117	1
0	0	7
62	75	1
117	117	9
59	59	13
13	14	10
70	71	1
50	56	3
61	62	6
83	98	1
85	133	2
53	53	4
11	27	3
34	35	1
47	60	1
49	125	1
49	49	3
121	121	7
35	35	6
52	95	2
12	78	3
4	5	1
93	94	2
14	23	2
19	37	1
32	34	1
33	34	8
71	73	4
6	72	1
109	121	3
73	93	2
114	116	1
76	78	5
33	33	5
77	94	1
2	19	2
60	94	1
127	131	1
32	32	17
85	107	1
55	126	2
44	44	8
44	125	2
123	124	2
90	111	1
30	37	2
9	10	7
10	11	4
52	54	3
25	26	2
1	16	2
57	59	1
88	126	2
97	109	1
73	74	1
54	125	1
7	73	1
84	85	4
45	72	3
14	15	4
21	23	1
3	84	2
31	32	1
2	3	2
110	111	1
123	125	1
110	117	3
118	120	1
77	78	3
53	96	3
11	77	1
103	104	4
4	38	3
5	13	1
5	28	4
25	33	2
79	88	1
121	132	1
29	30	1
67	112	2
8	26	2
86	87	5
92	93	1
81	91	2
4	21	2
65	69	2
21	74	2
105	105	7
27	33	2
128	131	1
28	28	2
20	22	2
105	134	1
100	118	3
122	128	1
55	133	3
116	118	3
113	117	2
47	50	1
131	131	3
78	80	1
63	92	2
8	9	1
20	35	2
116	130	1
89	126	1
65	66	1
97	128	1
79	97	3
3	5	1
4	19	2
115	116	1
119	120	3
74	76	1
59	132	2
49	82	1
48	131	1
18	75	1
116	129	2
4	25	1
111	129	1
66	112	2
45	46	1
5	14	1
3	67	3
63	64	1
109	128	2
125	128	2
100	104	2
27	35	2
65	125	3
79	89	1
9	11	2
101	127	1
126	134	3
98	109	2
60	95	3
51	63	1
6	7	1
117	131	1
6	12	1
89	90	3
15	23	1
45	56	1
49	50	2
71	94	1
43	94	3
105	133	1
0	17	2
93	96	1
110	112	2
29	29	2
123	126	1
128	129	1
75	103	2
45	78	2
27	28	2
84	87	1
15	17	1
3	20	1
57	85	1
88	90	2
78	96	2
4	82	1
20	36	2
13	71	2
2	65	1
120	121	1
7	12	1
50	82	1
106	107	1
22	74	2
52	92	2
115	119	1
90	94	1
53	106	1
114	121	1
34	36	1
7	9	1
112	113	2
15	24	1
20	24	2
98	102	2
56	56	1
23	99	1
64	65	3
102	103	2
22	36	1
120	132	1
92	121	2
91	92	3
129	130	1
106	124	1
48	126	1
50	77	1
109	110	1
96	98	3
61	124	2
44	72	1
124	125	1
46	51	1
47	47	1
22	27	2
115	122	1
108	124	1
125	133	1
7	15	1
99	115	1
79	106	1
129	133	1
53	56	1
16	26	1
3	4	1
48	48	1
133	134	1
2	5	1
43	64	1
105	106	1
7	8	1
119	121	1
14	21	1
15	19	1
20	33	1
53	95	1
113	115	1
11	103	1
12	99	1
95	96	1
86	88	1
