98	99	2
113	113	6
48	49	3
37	37	7
62	70	1
1	93	3
29	29	4
48	53	2
59	99	3
79	79	12
70	72	1
73	73	4
90	91	2
36	36	2
99	99	13
11	11	5
4	5	5
0	28	1
101	101	5
24	82	3
122	123	5
78	116	2
107	131	3
70	71	7
91	92	5
110	125	1
25	25	9
7	7	1
11	17	1
42	43	1
78	78	8
125	125	15
89	96	6
59	59	5
64	120	4
9	19	3
121	121	9
78	79	6
4	4	9
128	128	3
36	38	2
101	102	2
129	129	8
62	71	1
33	33	3
18	22	1
32	32	8
8	8	5
74	74	14
123	123	9
127	132	3
56	57	1
9	9	6
3	3	9
20	20	12
56	56	5
97	97	8
89	89	5
58	67	1
23	23	3
76	131	1
31	91	3
106	106	7
119	119	13
13	13	3
55	55	6
92	92	9
130	130	5
15	16	2
77	130	2
6	6	9
1	1	8
5	5	8
52	56	4
37	38	3
4	49	2
57	57	4
58	58	4
112	115	5
35	35	7
60	60	5
131	131	7
127	127	9
120	120	8
116	118	1
71	71	11
108	108	5
75	101	3
15	15	3
70	70	9
115	115	4
12	12	6
123	124	8
116	120	1
77	77	11
17	17	8
10	10	12
26	26	3
52	52	4
133	133	5
81	81	4
104	104	6
118	118	9
90	90	9
94	94	9
128	129	3
67	97	3
50	50	3
63	63	2
30	31	2
14	27	1
43	43	3
118	124	3
110	130	8
98	98	6
14	28	3
31	32	1
49	49	4
102	102	11
38	48	1
15	68	3
46	46	4
44	45	2
93	93	1
119	120	10
66	66	3
55	57	5
2	4	4
30	30	4
6	16	3
122	130	2
107	122	2
64	64	3
130	131	6
2	2	6
61	61	4
122	125	1
113	130	1
118	122	2
21	21	3
11	12	3
96	134	3
110	110	5
132	132	2
108	110	4
24	24	7
112	112	6
56	98	3
72	72	11
44	44	11
135	135	6
103	103	3
0	0	9
68	68	3
31	92	3
57	127	2
28	29	5
19	21	3
75	102	1
126	126	6
10	16	1
83	92	3
114	117	3
134	134	5
22	22	6
126	129	1
47	47	1
107	107	5
84	86	4
60	64	4
105	105	3
93	104	1
22	60	4
7	20	1
114	119	1
85	99	4
107	120	1
60	111	7
108	116	1
83	83	2
106	129	1
109	109	7
102	103	1
67	67	5
1	2	4
111	111	2
66	107	2
127	129	5
82	82	3
31	31	1
50	85	3
27	27	3
100	100	3
124	124	5
75	76	3
114	116	3
66	69	1
54	54	5
65	66	2
18	20	3
28	28	5
84	84	4
30	32	2
82	96	5
58	99	4
4	47	1
63	123	4
17	21	4
82	94	1
16	16	2
32	87	2
52	53	2
120	121	3
82	108	3
30	81	3
115	116	2
127	130	1
36	39	1
88	88	5
110	113	2
63	127	1
50	95	1
100	125	5
43	87	2
50	82	4
27	80	1
87	87	4
27	31	1
114	129	2
91	91	5
6	54	1
42	42	1
121	122	2
38	38	2
5	17	1
0	93	1
123	133	2
19	19	2
96	125	3
112	130	1
65	65	8
27	90	2
55	98	2
96	96	8
115	130	1
114	114	6
92	94	4
42	121	1
126	127	1
54	85	1
35	43	2
85	85	3
50	58	2
1	53	1
97	131	4
118	121	1
80	80	4
62	62	2
71	88	1
18	21	2
63	86	2
94	95	2
34	34	3
18	18	4
53	53	1
58	59	4
67	87	1
82	100	3
21	53	1
65	98	4
68	69	2
4	8	1
30	89	2
96	97	1
66	67	1
127	128	3
77	78	3
52	85	4
76	78	1
116	119	1
78	89	1
20	21	2
1	19	1
110	129	1
117	117	2
104	128	3
22	94	2
30	92	2
95	95	1
114	118	1
8	23	3
71	73	1
1	50	2
86	97	1
15	27	1
103	119	2
107	108	1
124	125	1
60	62	1
1	54	1
130	132	1
107	117	2
108	132	2
7	9	2
6	49	2
132	133	1
76	76	4
101	109	2
22	38	1
121	125	2
97	130	1
0	24	1
19	20	1
5	16	2
27	33	1
58	85	1
34	35	1
10	15	1
45	45	1
58	98	1
117	124	1
31	33	1
36	44	1
114	115	1
60	61	1
22	95	1
110	127	1
55	56	1
11	18	1
96	105	1
112	114	1
75	75	1
59	70	1
1	9	1
81	93	1
77	127	1
