67	67	5
76	84	7
15	41	4
55	55	4
48	48	5
97	97	11
23	23	5
80	80	18
41	61	2
57	58	5
128	128	9
28	29	6
1	1	8
46	52	3
10	39	3
21	21	9
74	75	4
19	20	3
73	73	4
111	111	3
128	129	3
126	127	4
66	68	1
84	100	3
26	46	2
65	65	7
114	114	10
51	53	2
98	98	8
14	15	6
26	40	6
19	19	5
40	41	10
30	43	1
49	56	2
60	62	3
106	106	2
66	80	1
99	100	5
25	25	5
57	57	6
129	130	7
128	130	3
12	12	2
22	55	5
17	18	4
59	63	2
89	89	4
11	11	6
78	78	5
83	84	4
68	70	2
93	93	11
113	113	3
22	38	2
46	46	14
99	99	2
83	88	4
78	79	9
27	27	4
105	105	5
31	32	3
54	54	9
49	49	6
91	99	3
12	39	5
88	91	4
82	82	6
89	91	3
71	72	10
29	29	10
28	53	7
85	85	11
2	7	5
41	62	1
86	87	3
16	19	5
126	126	8
104	115	3
104	105	8
4	4	12
102	102	9
93	94	6
31	31	5
77	77	10
105	107	2
69	69	1
2	2	8
32	32	7
123	125	5
100	101	10
119	120	2
50	53	5
41	41	4
81	81	1
58	64	1
122	122	5
49	50	3
73	116	5
8	96	1
9	9	6
60	60	8
85	91	2
16	17	7
127	128	5
69	99	5
97	101	1
5	5	7
81	83	1
45	46	2
96	97	3
24	24	17
80	81	5
86	86	5
84	85	8
21	23	3
53	69	2
72	72	6
43	43	5
119	119	4
90	128	3
17	25	2
48	59	1
74	74	2
108	108	4
100	100	1
129	132	2
118	118	4
112	112	7
53	62	6
43	121	2
66	67	4
3	4	16
63	64	7
30	30	8
69	83	1
44	45	4
103	103	6
15	15	7
125	125	6
69	89	5
1	2	7
129	129	2
76	77	12
66	66	9
116	117	2
16	21	1
56	64	3
41	43	1
58	59	12
112	113	4
10	10	9
6	63	1
81	82	9
91	93	4
65	81	2
28	54	2
90	90	10
67	68	2
91	102	4
70	70	11
79	80	4
92	92	14
110	111	8
59	59	3
109	110	1
21	55	3
94	97	1
56	58	4
49	53	2
43	63	6
45	45	3
39	44	1
14	48	4
47	60	8
67	96	3
60	61	5
28	52	3
111	124	2
102	125	4
44	46	1
21	22	2
20	20	11
33	33	1
12	120	1
17	17	6
46	53	6
39	52	4
57	128	3
128	131	1
32	33	3
64	64	2
124	124	15
78	81	2
84	89	1
70	71	5
54	118	2
86	88	7
52	53	2
18	19	6
25	64	4
76	76	5
78	80	3
39	120	7
13	65	5
0	1	1
53	53	6
67	88	8
72	73	1
24	27	2
44	44	6
49	63	2
91	92	2
1	94	2
26	57	3
127	127	4
71	71	6
108	109	5
15	16	3
84	95	1
25	27	1
118	130	3
101	102	5
91	91	7
13	13	7
12	41	6
106	107	7
70	116	1
101	103	1
79	87	4
126	130	3
40	40	4
14	14	9
101	101	3
34	40	1
27	50	2
24	25	5
11	67	3
69	70	5
131	131	11
26	50	4
38	45	2
26	63	1
53	63	1
8	8	4
95	95	2
66	105	1
71	74	1
117	117	1
85	88	4
47	47	12
95	96	4
89	90	2
55	56	4
82	84	1
50	50	6
121	122	3
87	87	3
104	114	2
57	64	1
104	116	2
110	110	5
107	107	1
79	81	2
27	46	1
22	22	6
83	85	4
3	3	9
102	103	3
84	84	2
83	83	4
12	13	1
16	16	4
39	41	2
120	120	1
70	72	1
104	104	6
77	82	4
115	115	8
48	49	2
64	119	1
2	30	3
90	104	3
121	121	6
26	27	3
47	52	1
18	18	2
33	34	2
22	37	2
97	99	2
26	56	2
68	68	2
7	8	1
115	116	2
23	24	5
41	42	1
89	99	2
28	42	3
123	123	2
120	122	2
69	88	5
29	30	3
42	121	2
76	89	2
0	0	2
7	12	2
117	118	2
40	60	1
24	40	1
83	90	4
113	114	3
7	11	3
83	97	3
45	60	1
62	130	1
87	88	1
126	128	1
12	26	2
54	55	1
3	5	1
85	90	3
51	51	6
2	5	1
64	65	1
38	39	1
92	93	1
24	38	1
22	23	3
120	132	1
97	98	1
42	43	2
61	62	2
93	97	2
101	126	1
52	69	1
87	99	5
63	63	1
43	59	1
28	28	1
94	96	2
132	132	3
113	120	2
88	89	2
49	51	1
68	69	1
42	42	2
96	98	1
26	26	1
94	101	1
14	52	1
71	75	1
133	133	1
76	81	2
40	62	2
8	95	1
102	105	2
38	38	1
116	116	2
72	74	1
15	19	1
0	93	1
70	99	2
6	6	4
52	52	4
12	79	1
55	118	1
2	118	1
94	98	1
30	42	1
47	48	1
34	34	2
75	76	1
65	116	1
25	26	1
39	39	3
58	58	2
130	130	1
13	49	2
67	86	1
88	99	1
118	127	1
30	34	1
67	69	1
49	82	1
66	95	1
73	74	1
0	64	1
50	56	1
96	96	2
51	52	1
28	32	1
11	12	1
115	120	1
17	20	1
7	7	1
85	86	2
8	33	1
105	114	1
13	18	1
13	15	1
