68	68	5
144	144	4
146	146	8
192	192	6
135	135	2
141	141	6
59	60	5
121	147	4
182	182	7
65	65	5
103	157	2
43	43	7
18	18	7
30	31	13
125	127	6
113	114	7
5	5	4
73	75	3
22	26	8
8	115	2
186	195	1
49	49	4
36	37	3
14	14	8
84	84	6
123	145	1
89	90	3
133	133	5
139	139	8
63	63	4
1	192	3
129	129	10
103	103	6
95	95	12
107	107	6
96	98	4
25	62	2
79	81	2
194	195	3
164	164	8
148	149	1
158	158	5
115	115	11
5	8	1
106	195	1
74	75	2
22	23	1
8	8	5
169	170	2
187	187	5
25	26	2
55	55	8
170	170	13
147	151	4
6	62	3
102	105	2
140	140	15
56	56	4
73	73	8
117	117	7
17	173	1
44	44	3
193	193	10
75	111	7
40	41	2
130	132	3
40	52	1
3	3	1
131	131	9
134	134	6
109	109	7
67	67	12
82	82	1
121	121	9
147	147	5
85	85	1
113	113	7
77	82	2
70	78	3
0	0	6
162	171	2
17	17	5
22	22	3
111	119	4
149	150	3
6	6	6
52	53	3
39	41	4
117	118	5
1	1	8
24	62	1
187	194	2
4	77	1
45	45	7
21	21	4
150	151	1
96	96	2
132	133	2
84	85	2
81	81	6
12	12	8
106	187	2
53	54	2
35	35	6
34	35	2
148	148	9
167	167	6
176	176	10
28	30	1
34	34	11
41	42	4
76	78	4
78	114	1
12	52	1
46	126	4
127	127	2
6	7	9
1	190	6
168	169	4
150	150	8
147	190	1
23	24	3
157	159	2
71	90	1
52	154	2
62	62	3
124	142	2
10	13	3
189	190	5
36	36	11
187	188	3
185	186	2
46	127	6
88	89	1
114	115	7
155	155	9
164	178	5
102	159	2
25	25	7
95	96	3
83	89	1
47	47	2
88	88	4
183	183	5
153	153	4
138	154	1
83	83	5
146	151	2
176	178	5
6	8	1
59	59	2
171	179	3
184	185	5
16	97	2
23	23	9
48	49	2
0	2	1
116	117	4
55	56	6
185	185	4
89	89	6
111	111	5
135	142	2
74	74	8
165	178	1
105	105	2
130	130	1
94	94	3
177	177	12
161	166	1
5	115	3
167	168	3
191	191	4
104	104	6
32	32	5
176	177	5
99	99	14
97	98	2
137	137	2
100	105	1
53	53	5
71	73	2
22	63	2
123	124	5
143	144	5
136	136	10
18	94	4
87	87	3
99	100	4
24	61	1
77	77	6
50	50	3
2	2	1
150	187	3
104	105	7
72	72	12
8	9	2
43	44	4
40	40	3
19	19	3
173	173	1
2	96	4
159	160	2
71	71	8
25	29	5
112	113	1
15	15	5
103	105	2
27	28	1
83	88	3
128	128	6
37	38	2
172	172	6
164	175	2
175	176	3
39	39	3
78	78	6
79	79	3
114	114	2
138	138	6
142	142	1
184	184	4
165	166	5
76	76	4
9	9	5
96	97	2
160	160	4
50	51	6
16	18	1
42	42	1
61	61	2
106	106	2
175	175	2
58	58	1
193	194	5
152	152	4
194	194	1
192	193	3
22	24	1
69	69	5
122	147	1
165	165	4
149	149	7
97	97	3
161	161	6
20	21	2
132	132	5
108	115	2
101	101	3
13	13	4
109	114	1
100	100	4
160	182	3
52	54	2
46	47	1
56	58	2
148	193	2
164	165	1
133	157	2
64	64	2
39	40	1
112	118	3
60	62	4
189	189	8
124	124	3
21	22	6
57	57	1
196	196	10
66	66	3
129	130	1
112	149	3
142	143	6
54	54	4
65	66	2
122	122	2
111	112	2
117	119	4
14	55	4
119	119	2
16	17	4
95	99	1
30	30	1
28	28	2
17	94	2
7	64	4
12	37	2
7	7	1
127	185	1
135	137	2
169	169	1
10	10	3
38	38	5
70	89	3
123	123	2
129	134	3
25	27	1
64	65	1
132	158	2
0	97	1
190	190	1
21	25	1
60	60	2
4	5	4
0	1	2
188	188	2
4	4	5
136	137	2
30	62	1
133	134	1
143	143	9
158	180	2
98	99	3
66	69	2
31	31	2
108	114	1
119	121	4
73	74	1
157	157	4
71	76	2
6	61	2
29	30	3
170	172	1
108	113	1
7	8	2
181	181	2
22	25	1
180	180	1
87	88	1
151	151	1
86	86	3
20	24	3
134	136	3
26	26	3
46	46	2
146	147	1
35	37	1
18	21	2
10	11	2
110	110	1
170	171	2
126	127	1
105	190	1
93	97	1
93	93	4
157	158	3
102	102	3
49	126	3
175	178	1
80	119	2
40	42	1
131	133	1
71	81	1
166	166	1
18	20	2
33	33	1
84	89	1
182	183	3
111	118	3
178	178	1
17	97	2
18	19	2
120	120	3
154	154	3
77	78	2
45	50	2
149	187	1
62	63	2
125	126	1
24	25	1
135	136	2
70	71	2
156	156	3
190	192	2
75	75	2
152	153	1
65	85	1
158	163	1
71	82	1
118	118	5
155	156	2
118	149	2
98	98	2
24	57	2
65	84	1
112	112	1
9	57	2
179	179	1
101	102	1
116	116	2
52	52	2
108	110	1
2	98	1
124	125	2
81	82	1
12	40	2
100	172	1
79	191	2
119	148	2
112	186	1
179	180	2
108	109	1
166	167	1
68	87	1
114	192	1
159	159	1
17	18	1
51	52	1
148	191	1
49	59	1
82	83	2
54	56	1
71	72	1
33	34	1
174	175	1
125	125	1
145	145	1
107	194	1
61	62	2
126	126	1
161	163	1
11	11	1
27	27	1
