161	161	9
165	196	3
20	20	12
197	200	3
232	234	3
21	30	3
50	51	2
83	84	3
245	247	1
83	83	2
93	93	5
97	97	8
89	89	11
82	82	5
169	170	2
16	45	1
153	153	4
246	246	8
47	47	11
193	235	2
226	227	1
153	154	7
211	212	6
35	35	10
177	177	6
98	99	4
201	201	10
34	34	5
28	28	1
95	95	12
15	16	2
238	238	8
109	110	1
183	185	3
222	222	4
24	26	4
233	234	5
234	234	13
36	36	8
4	4	5
241	241	1
70	173	2
200	200	17
17	38	3
186	187	2
209	209	7
112	112	4
204	204	16
98	98	6
110	110	4
52	52	9
12	12	5
58	58	6
87	175	3
15	15	2
216	216	4
87	88	5
93	102	2
85	85	5
215	216	5
26	26	11
33	33	6
192	248	1
197	197	1
205	205	2
185	185	7
61	61	7
194	194	1
94	94	6
197	199	1
183	183	3
7	7	18
194	247	2
206	206	5
193	196	4
68	72	4
165	165	2
51	51	9
25	26	2
158	159	3
216	247	1
69	69	7
115	116	3
188	188	1
6	6	4
161	203	1
192	249	1
19	31	3
232	232	4
168	168	7
170	171	5
25	25	6
151	151	9
107	107	7
181	181	2
180	180	5
5	5	5
31	31	3
22	22	2
164	208	4
77	77	5
51	112	2
155	155	1
150	151	4
199	199	5
46	46	6
218	218	3
6	8	3
227	227	7
156	158	4
218	219	2
76	76	7
32	33	5
146	202	6
47	48	4
17	19	3
228	228	3
51	52	1
27	28	7
228	229	2
223	223	1
213	213	9
1	1	6
171	171	6
6	7	5
4	12	3
247	247	3
152	158	2
116	117	2
99	99	1
219	219	3
59	59	2
160	160	5
189	190	4
202	203	5
10	10	5
46	47	3
43	44	2
9	9	11
14	16	3
242	244	1
24	31	2
49	49	1
111	111	5
84	85	6
119	119	2
162	234	3
99	101	1
40	40	10
90	90	2
245	246	4
64	73	4
23	30	1
186	246	4
217	218	3
44	54	1
80	80	5
50	57	1
166	166	1
48	112	1
43	43	5
231	231	5
67	67	8
53	53	5
42	43	2
13	14	5
202	202	14
82	91	3
57	57	5
14	14	2
34	35	3
72	72	6
214	214	5
50	50	5
182	230	3
16	16	7
203	203	6
217	217	3
86	86	4
9	10	5
27	27	13
192	193	5
242	242	3
91	91	4
63	63	5
18	18	11
61	167	2
4	30	1
7	15	1
71	71	4
243	244	1
210	211	4
182	182	10
37	37	6
105	105	3
211	235	1
19	19	8
159	159	9
29	29	2
163	163	1
112	114	1
244	244	4
120	146	1
245	245	10
64	64	2
210	243	3
59	199	4
59	62	1
60	61	5
196	199	2
48	48	5
146	146	4
51	108	3
165	166	4
30	30	2
8	8	4
18	35	1
67	105	1
65	74	3
200	209	1
184	184	5
157	157	3
175	175	4
185	224	2
32	32	7
54	54	4
154	154	7
221	221	1
46	55	1
55	55	5
145	145	3
116	116	7
85	87	3
48	51	1
198	198	6
233	233	10
96	97	7
44	45	2
62	199	1
21	28	1
61	62	1
18	39	1
90	91	4
56	56	8
84	84	6
49	50	4
87	87	2
45	45	4
152	152	4
44	44	3
217	219	1
11	11	3
207	207	3
150	150	5
59	197	2
218	220	1
161	179	2
158	158	5
156	157	3
100	100	4
80	81	2
75	75	1
180	181	2
236	236	4
101	101	2
118	120	2
18	38	2
186	186	8
103	103	4
187	187	3
94	97	1
178	178	6
59	200	2
163	165	1
58	60	3
61	64	2
209	211	3
66	67	7
28	29	3
11	31	1
212	212	1
21	38	1
69	70	1
8	9	5
215	215	2
74	75	7
213	214	2
65	70	3
229	229	6
237	240	2
2	3	2
23	23	4
206	207	2
213	215	2
86	100	2
246	247	2
199	209	1
153	157	1
152	159	4
220	220	9
117	119	1
92	92	13
115	118	2
81	83	1
88	89	2
208	211	1
79	160	4
210	210	3
72	171	4
194	195	2
26	28	1
39	39	6
59	60	2
174	175	3
198	209	2
63	65	1
225	226	1
36	37	1
118	118	3
207	238	2
60	199	2
85	86	1
90	94	1
96	99	1
24	29	2
235	236	1
104	105	1
52	110	3
65	73	1
17	17	3
181	230	5
95	108	1
182	183	1
235	235	3
167	167	2
37	38	2
81	82	2
157	159	2
65	65	2
225	225	3
117	117	6
41	41	1
18	19	1
165	193	1
212	238	2
38	38	2
21	21	2
155	156	2
4	5	1
78	78	5
239	239	2
114	114	4
154	155	1
169	169	1
164	198	2
164	165	2
88	88	4
164	164	3
83	115	1
167	170	1
174	174	4
102	102	1
120	120	1
91	93	2
145	147	1
208	208	2
181	231	1
167	168	1
224	224	3
30	31	3
96	96	2
176	176	2
108	109	2
203	204	1
163	164	1
149	151	3
179	179	3
175	176	2
113	113	2
16	234	2
2	2	2
13	19	1
5	30	1
104	104	1
153	160	2
7	8	3
78	178	1
172	172	1
3	3	3
209	238	1
242	243	1
71	75	1
239	241	1
61	197	1
173	173	2
62	198	1
226	226	3
193	193	1
147	147	2
170	170	1
81	81	1
77	177	2
25	27	1
162	163	1
190	190	1
207	208	2
5	14	1
210	212	1
222	223	1
208	209	1
62	200	2
191	233	1
66	73	1
16	17	1
39	40	1
113	114	2
78	79	1
159	160	1
216	217	1
62	62	1
117	118	1
109	109	1
29	30	1
157	158	1
1	2	1
