12	13	5
92	93	2
170	171	3
142	142	7
108	108	10
67	67	16
163	164	6
30	30	9
42	42	8
105	105	21
135	148	2
15	16	4
181	181	10
178	179	8
77	77	13
55	55	20
155	155	11
65	65	12
52	52	6
88	88	14
150	150	9
118	118	10
21	21	17
110	110	3
137	137	9
188	188	4
178	178	8
47	47	22
85	92	1
131	148	3
40	40	14
78	78	13
153	153	11
0	1	2
111	117	3
127	128	10
168	168	13
139	140	6
113	113	16
55	56	3
26	26	9
144	144	15
157	157	23
136	136	15
25	25	13
70	71	5
173	173	3
174	176	3
7	7	6
34	35	6
120	124	2
72	72	16
8	25	4
106	106	11
25	26	4
79	80	2
18	18	11
176	176	7
31	31	11
175	175	12
66	66	17
155	157	4
6	6	18
95	95	16
59	105	1
7	8	4
61	128	2
28	38	1
73	73	13
83	83	12
127	127	13
28	28	12
159	162	3
111	111	4
179	179	8
140	140	10
43	43	5
62	63	1
116	116	19
1	1	4
167	167	12
100	100	8
154	154	19
183	183	8
37	44	2
125	126	3
134	136	6
42	44	1
85	85	20
21	22	3
48	48	19
139	139	8
107	107	10
100	101	4
167	168	5
81	121	2
99	102	2
171	172	5
74	75	2
179	181	3
99	99	4
37	37	5
60	61	12
27	31	3
16	16	23
53	53	16
128	128	12
131	131	9
45	45	8
166	169	10
84	84	9
115	136	3
175	176	6
13	13	7
32	32	21
125	125	14
53	65	2
27	29	3
67	70	1
136	140	2
152	152	9
112	112	11
154	155	2
57	57	8
46	46	7
126	126	11
165	165	11
162	162	11
38	46	4
171	176	2
20	20	9
95	96	4
66	141	4
146	146	17
41	41	9
152	153	5
163	163	6
19	20	4
67	74	3
74	74	8
168	175	5
156	156	14
12	12	4
150	151	4
13	14	3
184	184	15
62	113	4
103	103	5
148	148	19
169	169	5
27	27	6
19	19	11
4	4	10
165	186	2
130	130	11
101	160	4
42	43	6
29	29	13
129	129	19
125	128	3
89	89	7
22	22	11
82	82	15
54	54	11
6	7	3
181	182	3
82	96	3
118	127	3
68	68	6
96	96	3
90	94	2
76	87	2
26	36	3
16	47	3
143	143	3
110	139	1
22	23	5
87	87	17
182	182	9
185	185	10
32	33	11
94	94	15
91	92	7
116	117	4
99	161	4
75	76	5
79	79	9
112	117	4
141	141	11
109	110	4
91	91	5
159	159	9
115	115	8
21	69	2
70	70	5
104	106	4
2	2	10
33	33	14
138	138	12
121	122	4
141	142	4
170	170	19
39	73	4
58	58	8
177	177	7
35	35	10
62	140	3
122	122	4
75	75	5
9	10	3
24	24	9
109	109	12
73	74	3
132	136	3
132	132	7
136	137	13
133	133	12
61	61	6
105	106	3
44	44	1
39	40	2
118	121	3
100	166	1
81	82	8
64	64	5
190	190	5
73	155	5
119	119	14
121	121	11
12	14	2
61	62	2
169	170	6
14	14	10
108	116	2
18	19	3
77	78	3
147	147	7
162	163	4
149	156	1
104	104	5
92	92	2
98	98	5
76	76	16
148	149	6
5	6	6
16	19	2
158	158	27
168	176	1
164	175	3
10	10	10
140	151	2
39	44	2
17	42	1
114	114	10
63	86	2
36	36	3
2	40	1
104	107	1
132	135	2
24	47	3
151	151	8
25	36	3
56	56	13
4	6	3
110	112	3
79	123	3
189	189	5
119	120	10
84	85	3
31	32	7
123	123	5
135	137	2
44	46	1
149	150	3
135	135	6
11	11	9
128	130	1
106	108	5
3	3	6
119	128	2
47	48	6
100	160	2
54	60	3
59	61	1
155	156	10
58	59	8
88	89	3
171	171	4
182	185	1
0	36	3
121	123	1
102	102	5
66	67	6
130	147	2
101	101	6
83	95	2
161	161	4
169	171	2
38	43	1
41	42	4
106	107	2
33	36	1
166	166	6
62	62	4
97	97	9
180	180	8
80	80	9
118	119	2
107	108	3
34	34	7
90	90	8
5	5	7
145	146	1
64	65	5
131	132	1
59	59	2
24	28	3
182	183	7
180	181	2
58	121	2
147	162	3
38	39	4
45	46	3
95	97	2
89	90	1
68	77	2
123	129	1
186	186	18
81	81	8
66	71	1
134	134	11
77	122	4
63	167	1
17	18	2
93	142	2
157	158	5
174	174	7
93	93	2
57	79	1
87	88	2
30	31	2
23	23	5
164	164	4
52	76	4
55	64	4
71	71	2
114	115	3
56	57	4
140	141	3
102	104	2
12	26	1
187	187	8
17	17	5
90	141	3
60	60	4
123	125	2
95	107	2
41	48	2
2	4	2
101	103	2
188	190	3
112	113	3
117	135	2
2	6	1
156	181	1
63	64	3
145	145	5
177	178	6
172	172	3
95	99	2
37	38	1
56	61	2
59	63	2
53	64	3
65	66	2
11	12	1
103	104	2
164	169	2
52	77	5
90	91	3
15	15	5
164	166	3
101	104	1
81	83	2
38	44	2
80	81	4
57	58	2
133	159	1
132	137	2
94	104	2
76	78	2
93	94	1
83	84	3
120	120	3
3	7	2
27	30	5
9	68	3
64	67	1
65	67	2
164	168	2
52	62	2
31	45	1
56	58	2
94	95	4
5	7	2
160	162	1
109	136	1
118	124	1
44	45	5
104	105	1
63	63	9
8	8	4
81	122	1
10	13	1
120	121	3
178	180	2
123	124	3
13	93	1
189	190	2
160	161	4
34	37	2
9	9	2
129	130	2
33	44	1
160	160	2
97	98	3
86	91	1
138	139	1
35	36	2
115	116	2
159	184	1
68	69	2
149	149	1
161	162	3
117	120	3
114	119	1
16	17	4
27	28	1
104	161	2
110	113	4
10	21	1
84	121	1
124	124	4
167	186	1
32	34	1
63	141	1
133	134	2
110	119	1
13	15	2
64	76	1
39	39	2
124	125	2
179	180	2
159	160	4
185	186	2
77	79	2
162	189	2
90	95	3
131	150	1
126	129	1
148	150	1
82	83	3
40	41	1
78	122	2
188	189	1
100	161	1
16	18	3
15	27	1
13	30	2
143	145	1
29	30	1
31	33	1
164	185	1
57	88	1
86	86	3
169	172	1
15	60	1
24	25	1
178	186	1
158	159	2
54	57	3
111	140	1
108	159	2
52	64	1
124	126	2
101	102	2
13	62	1
14	122	1
93	116	3
9	11	2
85	86	1
75	79	2
133	135	2
73	156	2
100	154	2
32	46	1
54	55	2
180	182	1
15	21	2
174	175	2
147	160	1
25	27	2
86	120	1
13	61	2
3	5	1
36	37	2
160	167	2
175	183	1
131	147	1
52	53	4
67	68	2
117	117	3
27	45	2
113	119	1
68	71	1
0	25	1
85	106	2
102	103	3
56	79	1
38	38	2
76	77	1
161	187	1
43	44	1
98	99	2
2	8	1
32	45	1
0	0	2
153	154	1
164	187	2
117	118	2
19	155	2
65	77	1
91	103	3
84	113	1
170	176	2
26	34	1
114	118	3
153	179	1
67	73	2
4	5	1
112	141	2
136	147	1
122	123	1
149	151	1
130	148	1
172	173	1
136	148	2
176	177	1
25	41	1
114	134	1
61	64	1
56	63	2
34	36	1
141	146	1
93	104	1
83	89	1
43	45	1
83	85	1
58	82	1
42	47	1
14	121	1
159	161	1
54	56	1
134	148	1
131	133	1
89	91	1
49	49	1
72	74	1
147	186	1
101	134	1
