165	165	17
64	64	4
63	125	1
81	82	2
24	37	1
108	109	9
28	45	1
143	143	14
128	129	3
46	46	10
150	150	4
140	140	10
97	97	11
177	177	16
124	127	5
151	151	10
72	83	8
92	92	8
145	150	1
133	178	2
53	68	1
90	90	14
74	80	2
99	105	2
61	67	2
114	115	2
146	149	5
100	100	8
185	187	4
171	178	3
58	58	5
157	158	5
134	134	14
38	42	2
34	34	13
26	26	8
175	175	14
159	159	4
42	43	3
185	185	4
126	127	13
0	0	5
135	182	2
159	175	3
8	8	15
106	106	11
10	10	17
70	70	12
133	133	15
36	36	4
120	120	14
31	31	5
87	100	4
1	1	8
124	124	8
53	63	1
33	33	7
167	185	7
78	78	15
102	106	1
99	99	9
80	137	1
110	110	12
169	180	3
75	80	2
42	42	21
107	122	2
182	184	3
10	13	1
23	24	7
112	112	6
59	59	10
95	96	10
118	118	15
10	82	1
137	137	8
66	66	9
40	40	10
96	158	4
80	148	3
107	107	7
47	47	15
182	183	9
142	142	11
115	115	15
86	86	11
7	7	6
96	188	3
52	52	8
123	123	10
98	98	15
10	97	3
161	161	6
146	146	9
75	75	11
177	178	7
82	110	3
153	153	7
73	79	4
60	60	13
21	112	1
84	91	2
105	106	8
156	156	14
87	161	3
54	54	5
28	29	7
53	53	24
28	28	10
154	154	19
135	137	1
186	186	13
158	158	10
24	24	9
130	150	4
184	184	9
47	48	6
139	161	4
154	155	1
20	20	10
27	27	7
54	85	4
74	74	15
77	77	11
72	153	1
96	183	2
119	119	8
130	130	10
71	71	20
13	13	24
40	102	2
185	186	2
88	88	5
190	190	10
80	80	18
54	59	1
144	144	16
79	79	7
46	48	4
2	2	21
88	140	1
182	186	2
6	6	11
136	137	5
117	117	7
41	60	2
135	138	2
171	175	3
48	84	1
115	136	4
43	43	8
94	94	9
56	157	3
5	5	5
68	79	5
86	139	5
166	184	2
3	7	2
181	183	1
8	58	2
147	149	1
65	65	10
141	141	7
91	169	2
14	15	10
43	45	2
176	176	18
78	144	3
56	56	22
13	80	10
14	14	10
20	110	2
144	150	2
61	65	1
79	147	2
16	16	20
89	89	15
140	141	2
111	111	16
1	4	1
93	94	3
109	112	1
139	139	16
84	84	3
37	38	6
71	95	4
162	163	6
19	19	5
125	125	12
82	82	5
91	91	10
42	46	6
44	44	14
105	105	4
63	63	11
23	29	2
136	136	12
55	56	8
116	179	1
164	165	3
53	71	2
117	130	2
21	21	6
95	95	6
117	122	1
126	126	8
70	97	2
180	180	6
24	25	5
35	35	8
48	55	2
162	162	8
115	116	9
93	93	8
87	87	8
66	79	5
148	148	17
27	28	7
109	109	9
183	183	19
113	149	2
113	113	10
127	127	5
7	16	1
97	142	2
155	182	8
67	79	1
92	94	1
122	122	7
46	47	4
132	132	10
124	125	10
84	85	10
15	15	10
37	37	7
173	174	7
0	1	2
18	18	9
91	139	2
111	112	2
128	128	12
65	94	2
3	3	8
155	162	5
48	48	8
181	182	5
3	4	1
34	35	3
16	17	7
67	67	5
169	169	21
55	57	7
187	187	13
4	5	5
155	178	1
24	44	6
29	29	9
58	61	2
55	55	3
79	80	4
149	149	12
172	190	3
169	170	9
32	39	2
166	166	14
84	92	5
168	168	11
72	72	7
59	60	9
12	12	8
133	134	1
17	17	6
76	167	2
61	61	11
33	34	4
120	121	2
96	96	9
56	180	2
81	81	10
138	139	9
157	157	10
31	94	2
138	138	10
174	174	12
171	172	2
22	22	8
104	104	11
156	159	2
71	72	2
91	179	3
62	62	10
152	152	5
41	41	6
75	186	2
112	113	1
6	7	6
59	132	1
85	85	9
63	124	4
21	23	1
32	33	2
36	37	8
133	136	2
159	160	2
10	45	2
38	38	13
134	135	3
163	163	2
76	76	5
101	101	4
78	81	2
132	184	3
54	55	6
83	84	2
93	143	1
114	114	10
170	170	14
25	25	10
96	181	2
111	147	4
101	103	5
61	63	3
145	145	6
115	135	3
103	142	1
95	135	5
0	26	2
178	183	3
108	114	1
182	182	6
137	180	1
189	189	11
35	36	2
4	8	2
88	160	2
146	147	3
128	130	1
129	129	9
61	62	5
76	146	3
70	137	1
56	57	7
4	57	1
132	150	1
155	156	4
11	45	1
178	179	4
118	119	2
22	23	4
121	121	10
106	107	3
37	39	2
121	122	7
3	77	2
88	164	2
92	93	5
31	111	1
30	30	1
114	181	1
87	92	2
63	64	3
186	187	5
65	68	1
3	15	1
68	80	2
77	102	3
176	177	7
164	164	6
43	65	2
75	76	3
115	133	3
165	166	2
161	174	1
53	55	6
126	141	1
114	136	4
19	41	1
83	83	2
173	173	5
137	138	4
83	91	2
10	22	1
116	116	5
5	6	3
71	83	1
103	103	10
45	45	7
27	45	1
102	124	1
74	190	3
102	102	5
122	137	1
114	177	2
20	41	1
5	16	1
80	91	4
12	13	1
32	34	3
107	108	1
86	100	1
66	67	2
135	150	2
85	158	3
33	35	1
72	73	3
10	11	8
158	159	3
86	92	1
58	59	3
105	108	2
95	133	1
90	177	1
44	45	3
172	172	2
168	172	2
18	20	1
93	136	3
92	138	2
115	123	1
6	17	2
152	153	3
5	8	1
89	140	2
68	102	2
125	127	3
68	68	7
123	132	1
68	69	1
57	57	5
71	89	1
46	58	1
54	68	3
155	155	6
147	175	1
100	102	1
85	157	2
11	44	1
100	101	3
29	30	2
144	145	1
19	24	1
170	186	1
131	131	3
147	147	11
31	32	1
137	151	1
1	73	1
23	27	2
25	26	4
40	41	3
171	173	1
101	102	5
27	30	3
107	187	3
9	10	1
80	81	2
66	98	1
26	28	1
44	60	3
128	148	2
149	150	3
169	177	6
13	19	2
16	43	2
77	97	1
148	149	1
169	183	1
35	85	2
141	180	1
20	30	2
69	104	3
153	154	2
129	130	2
155	181	2
141	156	1
139	140	2
167	167	3
76	153	1
22	24	1
101	114	1
75	187	1
96	146	2
17	65	1
167	176	1
139	165	2
114	124	1
22	30	1
81	139	1
19	20	3
76	104	1
134	150	1
56	58	1
111	113	1
111	144	1
48	95	2
150	151	3
171	171	3
160	160	2
4	4	5
76	152	2
160	163	3
39	39	8
73	73	3
92	181	1
18	19	1
11	11	6
78	79	4
69	80	2
141	158	1
187	188	2
170	174	1
167	169	3
70	104	1
108	113	2
188	188	3
112	143	1
94	95	3
140	174	2
3	6	1
113	114	2
25	28	2
84	87	1
100	105	1
21	22	1
104	105	3
29	48	1
134	137	3
156	157	1
122	135	3
10	44	3
170	187	1
188	189	2
180	181	1
72	151	1
108	112	1
134	136	4
12	44	2
186	188	1
58	93	1
157	159	1
8	27	1
146	148	1
99	100	3
61	66	1
89	139	3
178	178	4
122	123	3
166	167	1
115	190	2
94	143	2
32	37	1
123	131	1
159	176	1
11	37	1
13	20	2
68	104	5
80	147	2
55	59	1
109	110	2
93	139	1
54	163	2
90	161	1
175	177	1
75	77	1
55	94	1
89	138	1
71	147	1
174	175	2
60	61	1
177	179	2
79	99	1
40	42	1
107	144	2
97	140	2
134	152	2
38	40	1
24	112	2
88	182	1
4	44	4
32	86	1
40	79	2
62	63	2
132	136	1
10	25	1
15	16	6
98	158	1
107	134	3
135	147	1
106	123	1
179	179	1
124	128	1
155	169	1
1	2	1
133	184	3
26	55	1
16	79	1
91	92	1
145	146	1
167	171	4
142	144	1
100	159	2
1	6	1
135	135	2
141	143	1
98	145	1
29	46	2
10	38	1
38	39	1
94	136	2
62	66	1
13	79	1
183	186	1
119	120	1
44	61	2
128	139	1
87	91	1
108	116	1
15	42	1
127	128	1
91	138	1
32	108	1
168	183	1
97	99	1
26	27	1
111	122	1
114	170	3
92	167	1
140	146	1
64	66	1
5	13	1
4	6	1
74	100	1
52	57	2
73	156	1
64	68	1
8	49	1
100	114	1
158	183	1
108	115	1
38	83	2
64	65	1
96	187	1
124	132	1
151	152	1
156	162	1
113	179	1
11	12	2
120	122	1
78	80	1
4	7	1
41	102	1
32	35	1
88	153	1
13	14	1
63	68	1
115	124	1
106	127	1
87	163	1
23	23	2
22	25	1
21	31	2
83	85	1
161	179	1
142	143	1
52	99	1
98	107	1
119	121	1
76	124	1
108	185	1
125	186	1
100	104	1
5	26	1
28	30	1
17	20	2
96	97	1
122	125	1
160	177	1
130	131	1
35	40	1
