1	2	1
22	22	4
17	57	3
20	21	1
63	64	6
82	83	3
15	20	3
121	122	6
39	39	5
73	126	2
102	105	2
12	13	5
118	118	13
61	61	2
56	57	8
92	92	8
110	110	8
87	87	7
45	45	4
54	56	1
27	27	8
113	113	13
101	101	8
83	83	10
86	87	5
9	9	8
3	3	6
7	63	2
67	67	5
14	14	5
59	59	7
67	68	3
115	115	8
114	114	9
34	34	7
71	79	3
11	86	3
43	43	10
91	91	7
64	64	6
55	55	11
95	99	3
88	88	4
130	130	4
103	109	1
30	121	5
17	17	6
3	5	3
15	16	5
23	23	13
104	104	7
88	93	1
84	123	1
21	21	1
51	55	2
51	51	1
73	73	4
41	48	1
107	108	9
93	94	3
85	86	5
70	80	1
112	124	3
108	108	7
118	119	5
4	5	5
66	66	15
1	1	6
85	87	2
79	81	2
8	8	8
126	126	6
29	29	6
98	98	2
115	116	4
126	128	3
65	67	2
33	33	12
97	98	1
74	74	12
125	125	6
68	69	2
128	128	6
94	99	2
37	37	8
72	72	7
84	84	3
99	99	5
95	121	3
40	41	1
40	110	2
68	68	4
127	130	5
91	92	3
12	12	5
11	11	7
117	117	8
99	100	5
111	111	5
19	27	1
129	129	6
57	57	7
19	20	1
6	62	3
18	18	7
105	106	2
75	76	4
7	21	2
113	114	5
44	114	1
26	26	4
127	131	7
78	79	7
59	65	8
14	15	2
128	129	5
80	80	9
134	134	8
40	40	6
42	42	2
68	70	1
11	13	4
47	47	3
120	121	3
82	82	2
15	15	1
17	18	1
73	76	1
15	18	2
62	62	5
106	106	8
58	126	1
4	30	1
120	120	5
62	63	3
22	24	1
36	36	4
27	56	1
124	125	2
76	76	5
130	133	3
96	97	3
94	94	4
20	20	4
90	124	2
38	38	7
5	5	7
78	78	15
7	7	7
18	27	5
103	103	4
100	100	9
27	28	1
77	134	2
2	2	3
19	28	2
123	123	11
2	3	6
54	55	1
109	113	3
130	131	3
68	80	4
67	72	2
47	111	1
71	72	4
125	126	2
100	122	4
60	61	1
127	127	2
69	69	8
86	86	5
98	124	1
41	41	2
131	131	5
129	133	2
81	82	3
43	125	3
18	19	3
123	124	4
65	65	3
32	39	1
98	106	3
87	88	2
70	70	6
44	45	1
81	81	10
96	98	2
94	98	1
41	110	2
79	79	2
132	133	4
102	109	5
96	96	1
84	86	3
100	101	1
131	132	4
44	44	6
9	10	2
83	123	3
24	24	6
31	37	1
107	107	6
111	117	2
27	41	1
10	10	6
40	111	3
46	47	1
31	31	3
67	71	1
73	74	1
21	26	3
15	57	1
48	48	6
6	65	1
19	19	3
124	124	6
9	119	2
13	13	7
35	37	4
63	63	7
60	60	3
69	70	1
0	12	3
119	119	4
133	133	5
45	67	2
126	133	3
81	83	3
122	122	3
31	32	3
119	120	3
84	85	2
29	41	4
117	118	5
35	35	4
60	74	1
104	105	1
103	104	2
42	43	2
5	6	2
55	132	1
58	91	2
28	28	1
108	109	7
105	105	5
111	112	2
90	90	1
29	31	2
6	6	4
90	91	2
70	76	2
30	30	2
104	129	2
77	81	2
116	116	2
10	13	2
41	43	3
59	60	2
93	93	4
1	121	2
74	75	1
55	98	1
85	85	1
72	73	3
38	40	3
8	10	1
30	31	1
30	81	3
32	48	1
28	29	1
0	22	2
49	56	1
87	89	1
15	56	1
94	96	2
16	17	3
61	62	3
55	56	2
4	4	3
82	123	1
121	121	2
32	40	1
0	0	1
33	34	2
42	88	1
110	111	2
102	123	2
7	29	2
33	45	1
36	38	1
45	117	2
45	116	1
5	30	1
132	132	1
95	95	1
4	83	2
92	97	1
70	78	1
75	75	2
11	17	3
23	120	1
49	49	2
2	5	2
97	124	1
32	32	2
46	46	1
56	56	1
112	112	1
65	66	1
101	122	1
58	65	1
41	47	1
109	114	1
102	102	1
37	38	1
57	58	2
36	39	1
37	81	1
109	110	1
97	129	1
68	71	1
77	77	1
10	86	1
3	82	1
13	86	1
68	77	1
44	116	1
122	125	1
2	20	1
114	115	1
1	82	1
