26	29	5
81	81	24
114	115	7
88	88	23
11	24	12
78	78	10
77	77	17
72	73	12
125	125	27
98	99	5
117	117	16
89	103	1
92	92	20
24	24	33
22	22	26
22	23	8
10	10	27
35	35	32
71	72	14
30	31	7
79	79	23
21	21	22
14	18	3
7	13	1
99	100	22
123	123	15
6	7	13
94	94	13
73	75	8
71	122	1
25	25	20
72	105	1
28	28	25
80	80	35
27	27	31
120	120	18
19	19	21
108	110	3
119	119	32
116	117	14
101	103	5
13	14	18
18	18	16
8	8	25
24	25	6
33	33	20
3	3	17
128	128	23
9	9	24
93	95	2
23	23	10
76	80	2
23	25	3
37	37	25
77	80	1
26	26	32
32	33	4
73	87	2
14	33	3
76	76	17
99	116	1
97	103	6
12	14	7
6	16	7
13	24	3
103	103	26
73	74	7
31	31	9
127	128	5
81	85	5
75	75	30
1	1	18
98	98	23
87	87	16
114	132	1
124	124	20
12	28	2
72	72	23
100	100	25
2	3	5
24	26	1
81	83	4
88	89	7
10	11	12
32	32	13
127	127	24
99	99	13
80	81	7
15	16	5
5	5	17
20	20	22
2	2	27
102	102	17
110	112	1
135	135	19
6	6	16
105	105	10
104	120	3
104	104	18
110	110	22
13	13	24
11	11	6
118	123	3
86	86	14
91	120	6
33	115	1
37	38	6
79	80	6
67	102	3
120	121	5
89	89	22
91	95	1
106	106	9
94	95	6
71	71	38
123	124	4
108	109	11
12	12	21
101	101	14
118	118	8
106	107	7
111	111	30
109	109	12
105	106	17
6	12	2
107	108	12
111	112	11
122	123	10
95	96	6
115	116	11
30	30	16
116	116	32
122	122	13
15	15	13
3	5	1
7	7	9
17	20	5
16	17	10
134	135	25
110	111	17
1	77	3
97	97	14
104	119	1
126	126	14
90	91	5
124	125	11
76	105	8
131	131	27
16	20	1
97	98	4
82	85	3
4	14	1
18	19	10
4	4	6
96	100	8
11	12	8
87	90	2
8	15	6
82	83	5
134	134	16
80	120	4
96	97	11
77	120	2
78	120	2
16	16	10
129	130	9
96	98	2
117	118	10
17	17	14
33	34	7
89	90	11
8	9	9
102	104	2
90	90	18
79	86	4
85	85	15
140	140	18
26	31	4
5	6	2
115	115	13
88	90	2
95	95	24
34	34	17
124	128	1
0	1	1
132	132	17
130	132	2
136	136	23
133	135	3
78	79	10
129	129	24
89	115	1
8	10	4
100	102	4
2	4	9
96	96	25
14	14	19
8	27	4
36	36	23
118	119	3
86	87	6
115	118	1
91	91	10
81	82	9
114	114	27
113	113	8
74	74	10
93	94	2
77	78	10
96	99	4
28	29	7
0	0	19
98	127	2
10	32	5
38	38	19
73	73	9
27	30	3
130	130	17
82	82	13
80	89	1
21	25	2
138	138	9
9	12	3
1	12	1
112	112	12
121	122	3
114	119	2
93	93	14
88	102	2
73	109	2
108	108	16
105	122	4
5	14	3
124	126	1
94	127	1
120	123	3
84	84	7
12	15	3
34	35	9
10	14	2
103	104	9
9	11	3
6	8	1
92	93	2
113	121	5
4	6	3
130	131	8
113	119	7
123	133	2
126	127	2
6	9	10
5	7	4
137	137	13
104	105	10
14	32	1
72	119	2
101	105	4
36	37	3
100	101	4
102	103	1
105	110	2
17	19	8
45	71	2
19	20	5
137	138	7
85	103	1
98	100	5
20	21	9
111	113	2
27	29	1
132	133	3
35	37	6
86	88	2
15	20	1
115	117	1
14	16	1
25	111	3
35	36	4
21	30	6
22	24	4
26	27	7
75	76	1
104	111	1
13	32	2
31	32	2
133	133	5
17	18	1
1	2	5
128	129	6
9	10	1
91	98	1
21	117	2
112	119	2
97	102	4
11	77	1
131	132	5
80	97	3
127	129	7
75	81	2
30	32	1
35	38	4
10	30	2
72	112	3
20	106	3
124	133	3
125	126	2
98	128	1
121	121	2
74	75	5
113	114	3
109	110	4
25	26	3
14	15	4
134	138	4
14	24	3
78	81	2
138	139	2
129	132	2
4	5	4
107	107	19
23	37	4
102	122	2
135	140	1
36	38	2
4	18	3
29	31	2
117	119	2
119	120	2
104	106	4
73	110	2
3	38	1
11	14	1
83	83	1
140	141	2
107	109	1
136	137	3
78	86	1
139	139	9
21	31	2
79	87	1
7	10	3
78	91	2
84	85	4
114	116	3
76	86	1
75	82	1
3	4	5
114	123	3
29	29	2
2	13	1
4	13	1
2	11	3
96	102	1
24	28	1
109	112	2
88	104	2
139	140	7
96	122	1
113	122	2
85	86	2
75	85	2
12	78	1
22	80	1
87	88	1
13	23	1
12	13	3
91	92	1
114	133	1
89	102	1
68	68	1
126	131	1
8	31	2
83	84	1
90	95	2
72	74	1
70	71	2
91	93	1
21	22	1
118	122	2
119	122	2
98	112	1
102	106	2
27	28	1
83	85	1
79	91	3
81	84	1
99	124	3
113	118	1
9	29	1
77	79	1
16	115	1
20	104	1
5	124	2
94	103	1
80	119	2
137	140	2
38	116	1
19	94	1
22	27	1
86	104	1
13	122	1
123	132	1
22	116	1
19	101	1
91	99	1
82	84	2
76	84	1
125	127	1
90	100	1
22	115	1
43	111	1
