181	181	14
161	161	12
96	96	7
149	149	15
45	45	6
42	43	10
28	30	7
22	87	3
153	153	20
97	97	17
171	172	6
100	193	2
96	134	2
40	42	3
22	23	1
79	80	7
20	20	8
111	146	3
165	166	7
11	11	6
101	177	7
146	156	3
88	88	3
144	144	8
172	172	8
66	111	1
79	79	13
126	127	2
32	62	1
33	37	2
39	45	5
67	68	8
187	188	9
13	26	1
138	138	3
14	15	8
179	179	5
62	65	1
108	112	4
5	6	2
94	94	9
9	23	8
18	161	1
100	100	12
24	52	3
16	85	3
26	26	21
102	102	11
34	34	14
169	194	6
143	146	2
175	177	6
4	5	5
100	177	5
151	194	3
83	83	2
63	64	3
122	122	5
105	106	9
157	157	8
81	81	9
159	159	7
64	64	20
102	118	3
190	190	6
77	77	9
71	72	8
3	4	10
187	189	8
50	50	20
46	46	20
78	90	6
17	17	8
167	167	17
128	129	1
95	95	13
36	41	1
11	55	1
188	188	17
67	80	2
15	83	1
7	7	7
125	186	2
99	153	6
192	192	18
99	100	4
48	49	8
182	182	6
42	42	11
37	38	4
62	62	21
87	87	7
146	146	13
19	162	1
10	10	9
181	182	8
146	147	6
4	8	4
18	23	1
141	141	7
38	38	12
27	28	7
135	135	3
9	22	5
118	118	6
14	14	6
124	124	13
168	168	20
111	111	5
146	157	5
9	17	1
28	99	2
158	158	9
168	169	15
13	13	10
116	158	2
81	82	5
47	86	1
12	12	15
117	117	5
59	60	7
148	148	6
18	64	2
100	169	6
95	131	3
102	103	5
65	65	5
57	65	2
116	116	7
22	22	5
36	36	11
169	185	3
24	176	3
176	176	7
16	164	2
193	193	13
10	41	2
121	192	4
121	123	5
71	113	1
99	99	12
8	8	7
126	126	3
1	1	15
43	44	2
49	49	15
69	89	4
173	174	3
10	16	7
135	188	1
47	47	25
173	173	8
76	76	3
177	178	6
195	195	7
140	140	16
107	121	3
119	119	4
173	175	1
147	147	8
103	103	5
100	154	7
194	195	4
5	78	3
114	114	16
7	78	3
9	9	19
96	98	1
137	155	1
106	106	9
61	61	8
32	61	4
96	170	2
101	101	8
84	84	5
90	147	1
169	172	1
137	197	3
88	89	10
10	11	5
6	6	19
20	66	6
150	150	9
171	171	3
21	21	6
175	175	7
58	65	3
166	166	4
27	27	9
67	67	6
189	189	11
19	19	10
56	62	2
54	54	17
54	55	1
112	164	2
105	108	2
35	40	5
197	197	10
16	16	4
69	69	6
123	124	11
35	35	15
165	165	9
27	30	3
52	53	2
78	78	12
162	162	2
154	154	7
127	127	21
123	123	7
131	195	1
163	163	9
107	144	2
4	4	6
68	68	14
52	155	5
113	113	13
147	148	3
58	58	7
142	143	8
63	63	3
143	145	6
129	173	2
142	142	8
170	170	8
121	121	12
86	88	3
77	78	3
112	112	12
48	48	14
18	18	5
66	66	9
60	60	11
109	109	11
93	149	3
59	59	7
32	155	1
106	113	3
98	172	1
54	77	1
184	184	12
116	130	3
77	108	1
15	15	6
137	137	6
36	39	2
73	113	3
44	44	15
185	196	1
28	37	4
118	119	3
113	159	1
185	185	8
82	111	2
139	139	12
122	142	5
162	166	4
3	3	5
0	0	5
95	170	1
35	36	4
41	42	1
81	86	6
134	135	2
30	31	8
74	74	9
89	89	3
62	64	1
5	7	7
141	142	1
114	187	2
69	90	6
34	36	2
130	158	5
51	51	8
94	128	2
40	41	1
55	55	6
34	82	1
106	116	3
174	174	12
191	194	4
130	133	2
150	185	1
110	110	9
103	104	4
187	187	10
5	83	2
23	23	2
14	51	2
4	14	2
33	52	5
184	188	1
82	82	12
161	162	3
23	52	2
29	29	11
169	169	4
170	171	7
25	25	12
7	8	5
19	21	1
105	105	9
26	192	7
105	168	1
37	37	8
93	94	2
178	178	8
32	32	4
169	184	1
133	133	7
45	46	1
38	39	2
133	165	2
52	52	8
86	86	7
12	17	3
8	10	3
96	182	2
33	33	5
5	68	4
164	164	4
188	189	2
170	172	1
61	156	4
129	129	7
70	71	2
130	130	6
13	50	2
85	85	8
70	70	3
26	27	3
12	13	1
56	58	2
178	180	2
114	193	2
25	34	1
24	24	9
125	140	1
88	108	1
11	88	1
126	152	3
40	40	9
119	151	4
28	28	6
36	40	1
85	86	4
122	134	2
39	39	6
161	164	2
155	155	4
6	8	2
130	156	3
141	175	2
80	80	3
56	56	5
31	31	2
154	156	1
96	130	2
79	81	6
57	141	2
72	104	2
143	143	6
115	115	6
152	153	7
13	14	1
113	115	1
58	61	2
8	70	2
183	183	13
17	70	1
177	177	2
116	134	3
98	157	2
10	32	2
19	191	3
94	95	1
101	104	2
54	60	1
174	175	2
157	159	2
5	5	7
20	122	4
126	186	2
27	34	4
196	196	8
156	156	6
186	186	9
126	151	1
155	156	4
79	112	2
89	90	1
144	194	1
160	160	2
43	43	1
16	86	2
53	53	3
61	157	1
120	190	2
175	182	1
70	72	3
20	32	4
28	31	3
131	134	3
6	7	2
84	85	3
24	25	1
128	167	3
128	128	2
55	56	2
170	180	5
180	180	2
102	112	4
191	191	4
81	112	2
27	99	2
59	79	3
167	185	7
145	145	5
134	140	1
72	73	7
117	119	3
41	41	3
127	128	3
8	19	2
71	71	5
156	157	3
133	134	1
136	155	3
116	121	1
157	197	4
58	59	3
47	48	2
177	186	1
57	58	4
125	125	4
194	197	2
147	160	3
144	145	1
58	107	1
71	102	1
98	104	4
23	26	1
128	171	1
112	144	1
46	47	1
25	55	2
166	167	2
6	21	1
100	188	2
53	172	6
163	164	1
79	82	1
115	158	1
132	132	3
31	34	4
107	107	1
81	110	1
147	163	2
38	76	2
147	158	1
35	39	5
131	131	3
171	173	4
62	63	3
120	120	3
104	104	3
10	76	1
131	132	2
132	133	1
106	108	1
65	66	1
104	106	3
15	97	2
95	128	4
68	81	3
165	167	3
159	160	2
152	152	4
190	191	2
122	190	2
73	74	2
16	89	2
139	140	1
61	62	1
93	93	1
82	95	1
106	107	1
104	105	5
147	159	4
10	83	3
14	27	1
72	89	1
98	103	3
39	160	2
87	160	1
167	168	1
101	131	1
56	67	2
130	131	1
112	113	1
184	196	1
57	88	1
96	128	1
22	68	1
36	62	1
83	108	1
137	187	3
141	173	3
173	180	1
59	108	3
81	113	2
57	64	1
11	77	1
81	99	2
104	120	2
119	120	3
74	75	4
51	54	1
179	180	1
134	134	3
25	31	1
99	113	2
135	148	2
46	75	2
117	118	2
73	73	5
96	97	2
105	116	1
33	110	1
69	111	2
29	30	2
39	40	3
106	115	2
101	163	1
72	72	3
173	184	1
7	68	1
108	169	3
103	175	1
190	192	4
140	179	2
157	158	1
47	85	1
134	138	1
127	139	2
159	189	1
87	88	2
94	97	1
10	85	1
25	35	1
11	89	1
98	99	1
151	186	1
136	169	1
124	125	3
183	190	2
143	144	1
147	161	2
179	186	2
1	50	1
57	149	1
5	8	3
112	159	2
16	111	1
30	30	2
177	184	3
108	108	3
151	151	2
119	160	2
138	183	1
116	117	2
98	167	1
132	135	1
151	154	2
174	176	1
122	123	1
59	61	4
49	128	2
0	56	1
51	55	1
45	73	1
95	135	1
137	180	1
88	90	2
129	133	2
194	194	1
137	156	1
8	9	1
142	195	1
56	111	1
104	119	2
76	86	1
21	90	1
57	147	1
149	150	1
25	172	4
67	77	2
69	71	1
75	75	1
39	73	2
160	163	1
99	114	1
17	86	1
121	122	1
39	41	2
136	136	3
12	86	1
68	82	1
132	163	1
99	172	1
100	180	1
69	70	1
54	127	1
87	90	1
154	155	1
145	146	1
125	126	1
139	150	1
4	12	1
2	28	2
57	108	1
1	2	1
1	26	2
14	41	1
61	63	2
98	158	1
77	110	1
135	138	1
98	170	1
186	189	1
22	161	1
75	86	1
8	21	1
84	128	1
10	66	1
135	144	1
71	84	1
101	185	1
63	75	2
9	129	1
135	147	1
138	155	1
71	167	2
90	90	1
55	108	1
