33	38	2
83	103	2
161	161	3
52	53	2
61	79	2
115	119	2
63	63	8
52	73	2
129	129	3
154	154	2
145	153	1
155	155	4
146	169	1
99	99	4
172	172	4
150	150	2
11	11	2
168	169	4
84	91	3
86	86	8
112	132	7
87	90	2
1	3	3
17	21	1
114	133	2
67	73	5
170	172	5
78	93	4
53	59	3
41	42	3
103	117	2
39	39	4
84	84	3
123	135	3
7	11	2
138	138	3
2	2	4
142	167	5
106	106	7
175	175	4
22	22	5
7	9	2
100	100	2
33	33	4
67	67	2
117	133	2
140	161	1
140	140	2
147	147	5
73	73	2
58	58	7
8	8	1
25	25	11
57	71	2
171	171	6
27	42	5
85	106	4
17	17	6
117	118	5
166	166	6
9	10	1
93	97	3
139	159	1
136	137	4
111	111	3
131	158	2
115	129	1
53	53	2
101	102	1
85	85	2
154	174	2
86	89	3
124	127	6
115	115	4
144	146	1
3	5	3
31	32	2
25	42	1
31	31	6
88	108	1
27	28	2
93	94	3
124	134	5
134	134	10
143	157	2
138	156	3
116	116	6
98	101	2
1	18	3
151	167	2
71	71	10
114	114	3
88	107	2
1	14	3
52	52	3
51	52	4
32	32	1
169	169	2
45	45	5
120	120	5
138	173	3
153	153	4
108	118	3
35	35	5
5	5	4
70	72	2
87	106	4
90	97	4
78	106	2
147	169	2
108	108	4
119	119	5
54	66	2
82	84	2
36	36	1
59	59	6
158	158	4
167	170	4
139	140	2
1	1	5
15	15	2
12	12	3
65	65	2
6	8	3
88	88	3
82	82	8
86	121	1
156	163	1
50	71	1
64	71	4
14	14	2
7	44	1
160	160	5
130	130	3
60	79	4
180	180	3
110	128	3
29	31	1
143	143	2
82	85	4
173	173	2
112	112	4
151	169	2
79	79	7
174	175	1
80	80	6
102	110	1
115	130	1
169	170	1
126	132	1
164	164	7
0	0	2
131	137	1
63	70	4
31	33	2
61	74	2
55	57	3
62	62	3
78	78	1
105	120	2
8	9	4
87	87	3
94	94	4
100	102	4
49	49	2
32	33	1
149	149	3
41	41	4
10	11	1
134	137	1
66	70	2
153	175	2
5	17	1
117	117	6
137	139	2
109	109	3
139	139	2
121	121	7
103	103	2
142	154	1
5	9	2
36	80	2
51	51	2
60	78	1
102	102	6
7	12	3
5	7	1
129	130	5
60	60	2
95	121	3
143	144	1
105	130	2
56	56	5
136	136	2
128	151	2
137	137	1
144	144	11
144	159	1
19	19	4
162	162	3
152	152	2
50	52	1
100	101	1
141	141	3
24	24	5
129	134	1
18	18	5
168	168	6
116	126	1
12	13	1
147	170	2
60	61	2
122	122	3
151	151	1
13	13	2
54	88	1
18	19	1
71	89	4
97	118	1
154	160	1
126	143	3
94	111	1
56	64	1
176	176	3
98	98	4
74	74	2
99	109	2
132	132	3
99	113	2
4	7	3
34	42	1
117	119	1
170	170	2
81	81	5
142	149	2
97	97	2
18	43	3
133	154	2
158	165	3
125	125	2
95	118	2
4	11	1
52	74	1
132	133	3
128	129	1
36	39	1
115	116	2
153	171	3
43	43	6
96	96	3
60	77	1
77	77	3
145	169	1
144	145	3
26	42	1
107	127	2
86	113	2
96	102	3
6	13	2
146	163	3
146	148	3
117	120	1
49	89	4
23	24	2
165	169	1
22	26	2
174	174	6
132	154	1
10	10	1
37	65	1
172	174	1
26	26	2
68	78	2
151	156	2
125	135	1
170	171	2
155	172	1
84	97	2
17	29	1
100	106	1
71	72	1
11	12	1
126	126	2
40	40	1
94	95	2
148	148	1
35	36	2
86	114	1
64	64	3
109	136	1
121	123	1
116	120	3
17	36	1
164	166	1
179	179	1
128	128	1
4	6	2
56	72	1
119	131	1
61	71	2
142	144	1
177	177	1
159	159	4
175	176	1
68	73	1
129	149	4
50	73	2
113	113	1
29	29	1
121	122	2
131	150	1
64	65	1
98	102	1
115	118	2
144	167	1
57	65	1
88	106	2
28	28	1
38	43	1
13	15	1
113	122	2
90	90	1
160	178	1
95	96	3
19	37	2
163	170	1
42	42	1
95	95	2
76	91	2
99	100	1
74	88	4
107	123	1
73	110	1
34	41	2
124	124	2
5	14	1
166	179	1
145	145	1
110	111	1
168	176	1
72	74	1
141	165	1
158	164	1
23	40	1
164	169	1
107	113	1
131	131	2
44	44	1
9	33	1
11	33	1
125	128	1
61	65	1
58	67	1
84	85	1
171	173	1
156	156	1
137	138	1
81	104	1
81	86	1
148	169	1
21	38	2
102	115	2
141	142	1
142	172	1
118	118	1
106	107	1
106	108	1
