214	215	8
220	220	2
51	51	12
120	120	3
91	97	1
96	96	6
41	67	1
194	196	4
154	155	1
31	31	9
84	88	3
82	82	1
224	224	9
1	1	10
6	6	12
200	200	13
66	66	4
165	165	8
178	178	9
49	49	4
113	113	7
18	18	8
231	232	1
68	69	8
54	54	7
163	165	1
61	64	3
235	235	1
228	246	2
214	214	7
65	65	5
237	237	6
207	207	2
153	153	11
8	9	1
55	203	8
64	65	6
212	212	2
207	246	3
81	82	4
213	214	4
102	102	3
215	216	5
203	203	10
92	93	1
195	198	1
63	64	2
13	14	7
164	164	2
236	237	1
154	154	1
74	74	9
9	9	10
59	60	5
50	50	2
95	95	8
210	210	8
46	52	2
152	152	6
232	232	5
57	57	7
116	116	12
160	160	8
232	233	2
30	43	2
226	226	5
94	94	3
204	227	1
60	60	4
42	42	2
156	156	6
69	69	8
197	197	1
121	121	2
201	201	9
44	44	12
30	31	2
238	238	1
21	22	2
228	228	1
47	47	2
85	85	2
46	46	12
62	63	3
225	225	4
239	239	12
108	108	2
114	114	3
70	70	6
37	38	4
73	73	4
222	222	2
204	204	11
14	231	2
36	36	10
60	62	2
6	10	2
246	247	4
157	159	2
88	89	1
204	205	3
6	8	3
45	201	6
241	241	2
47	50	3
87	88	1
28	28	10
105	105	7
166	166	4
229	230	2
95	168	4
72	73	5
160	173	1
72	72	2
100	100	6
211	212	2
169	170	3
100	168	4
20	21	1
18	24	2
45	45	5
25	25	8
17	18	9
234	243	1
170	171	2
158	159	8
216	216	3
40	41	2
58	58	9
174	199	1
247	247	5
4	6	1
54	56	2
186	186	2
19	21	4
227	227	6
105	163	4
219	238	4
173	174	2
51	61	3
172	174	1
162	162	3
215	215	5
56	56	6
4	4	4
95	96	2
109	109	8
86	86	1
30	37	1
231	231	6
18	20	2
224	248	2
157	157	3
174	174	4
150	201	2
182	182	4
68	92	2
244	244	11
109	144	1
191	191	1
19	20	1
34	34	4
193	196	4
229	246	1
36	203	2
239	243	4
71	71	11
180	180	6
39	161	8
236	236	7
23	23	8
47	52	1
39	39	11
113	114	4
59	59	8
67	69	2
54	55	8
8	8	7
186	190	2
10	10	10
103	112	4
22	23	4
221	221	6
90	112	4
2	3	1
171	179	1
229	229	3
34	143	1
41	42	6
243	244	3
213	213	4
107	175	5
169	169	5
82	166	1
208	208	8
16	16	2
89	89	5
70	73	1
40	40	4
198	198	10
163	163	2
117	117	3
7	31	2
211	211	9
195	195	4
30	204	3
38	39	1
189	189	3
184	195	1
223	224	1
98	98	2
77	77	2
32	32	7
33	33	9
191	194	2
39	40	1
84	84	6
208	217	1
67	201	2
90	90	2
175	175	8
33	36	5
2	2	5
92	92	8
68	78	2
183	183	3
161	161	2
36	37	2
4	171	2
38	41	1
187	187	7
83	83	2
7	7	1
240	241	1
37	37	4
26	26	6
192	192	6
53	53	4
22	22	4
27	27	4
81	81	5
112	116	1
172	172	3
99	99	2
73	74	2
110	110	3
52	52	4
217	217	2
107	107	4
238	240	2
100	109	4
193	194	3
92	162	2
110	111	1
157	158	1
177	182	3
52	53	2
230	230	2
12	12	2
27	39	2
93	95	2
114	117	2
19	19	3
157	171	1
178	180	2
193	195	1
64	64	1
63	65	3
150	151	1
171	178	1
218	219	3
168	169	1
87	87	1
169	178	2
155	155	2
112	112	5
79	95	1
11	11	4
61	61	5
191	193	1
162	167	1
177	177	3
35	35	1
6	7	3
101	115	3
37	248	2
94	98	2
196	196	6
175	176	1
10	27	2
209	244	1
199	200	4
111	146	2
34	43	2
18	22	2
194	195	5
209	240	2
15	47	1
105	107	1
19	22	3
190	190	3
196	197	1
38	38	6
218	232	1
49	50	3
149	150	1
48	50	2
159	159	1
233	234	4
88	88	7
111	111	5
79	97	2
78	78	7
44	45	1
167	167	4
205	205	2
29	29	6
3	7	2
179	180	2
170	170	1
37	53	1
109	120	1
34	40	3
79	83	1
209	243	1
29	32	3
153	156	2
219	219	1
1	20	1
208	209	1
14	14	2
74	76	1
115	116	3
66	80	1
215	222	2
101	103	1
42	43	1
101	107	2
68	71	3
206	206	1
201	225	1
55	56	4
23	227	1
43	43	3
232	235	1
28	29	1
181	181	1
227	228	1
55	55	1
38	174	2
74	75	1
96	97	2
247	248	1
45	46	2
48	66	1
76	76	2
4	5	5
106	107	1
191	224	1
155	156	1
209	209	1
152	153	2
183	184	1
63	63	1
52	227	1
149	149	1
184	184	1
97	97	1
39	43	1
103	103	1
33	34	3
180	196	3
173	173	2
93	110	1
60	66	2
185	186	5
52	54	2
7	8	1
150	150	3
93	93	1
58	60	2
14	15	1
179	179	1
162	199	2
203	204	1
41	41	2
183	185	6
96	167	1
145	147	1
104	104	1
54	230	2
190	220	1
12	52	1
76	77	1
21	21	1
3	4	1
9	10	1
153	158	1
67	67	3
62	62	2
208	219	2
30	41	3
14	44	1
182	184	3
94	99	1
228	229	1
79	82	2
199	199	1
3	3	2
40	43	1
198	199	2
171	171	1
34	35	2
201	202	1
99	100	1
242	242	1
36	39	2
30	32	1
240	240	1
163	171	1
150	153	1
75	75	1
192	248	1
35	36	1
65	66	1
200	201	2
146	147	1
186	192	1
90	98	1
230	232	1
225	234	1
112	150	2
119	119	1
224	225	1
111	112	1
89	114	1
193	193	1
94	95	1
64	66	1
164	177	1
221	222	1
176	176	1
75	77	1
106	106	1
152	173	1
176	177	1
242	243	1
20	27	1
202	202	2
239	240	1
84	85	1
174	175	1
7	18	1
