73	75	3
80	80	7
158	158	12
124	126	1
63	64	7
7	7	4
118	120	1
50	51	5
66	66	5
36	141	1
101	101	7
51	51	4
153	155	2
67	68	3
86	86	2
136	136	10
122	123	4
26	26	5
113	113	7
130	132	3
130	130	7
103	137	3
12	13	1
96	96	2
108	134	3
43	43	7
35	35	15
4	4	9
110	114	6
6	6	5
112	113	2
104	106	1
132	132	5
151	152	1
90	91	1
20	20	6
36	36	6
87	87	6
5	5	7
141	141	11
92	92	6
151	151	14
113	124	2
157	157	2
30	30	3
21	22	4
16	16	4
16	18	2
123	123	7
44	44	8
1	1	4
140	141	1
46	47	1
79	83	1
88	88	6
110	111	4
23	23	7
125	125	6
25	25	3
2	2	7
145	145	2
111	111	3
133	133	11
103	103	3
124	124	2
50	108	6
33	34	4
96	97	7
128	129	2
139	139	4
91	91	3
75	75	2
149	149	7
49	55	5
136	145	1
92	125	1
102	102	3
137	138	4
108	109	1
37	37	5
142	142	1
38	39	6
1	2	2
150	150	7
68	71	2
46	46	6
104	104	4
25	28	2
77	77	6
144	145	4
105	105	3
55	55	4
39	39	5
94	94	3
116	116	7
128	128	3
154	158	1
120	120	5
131	131	2
8	8	4
9	11	1
140	140	2
28	28	4
88	89	7
27	27	5
98	98	3
89	89	2
135	135	12
66	92	1
144	146	2
116	122	2
137	137	11
122	122	8
47	47	6
131	132	2
119	156	2
40	40	4
113	123	2
103	106	3
42	43	2
81	81	3
67	67	5
65	65	4
91	92	2
24	24	6
19	19	5
137	145	3
152	152	4
53	53	2
83	83	2
26	27	4
133	134	2
17	17	4
143	143	1
68	68	3
78	82	7
65	97	3
45	45	1
108	108	4
144	144	2
69	71	1
56	56	4
101	130	1
38	38	3
103	138	1
149	151	1
25	29	1
9	9	4
155	156	4
4	5	1
106	106	3
134	134	2
74	74	2
119	119	4
3	3	3
31	32	3
115	116	5
9	39	4
132	150	3
70	70	4
104	105	3
11	11	1
127	127	7
78	78	3
0	29	2
41	41	4
138	138	2
101	102	2
110	110	3
49	49	1
29	29	2
66	73	1
95	96	2
121	154	2
12	20	1
95	95	3
33	52	1
118	149	3
6	36	1
73	73	1
82	82	1
127	131	4
114	115	3
32	34	1
42	42	3
22	22	4
7	56	2
121	121	2
21	21	3
31	31	1
77	78	1
129	130	1
18	18	4
94	95	2
112	112	2
118	118	2
16	30	2
92	118	1
148	148	1
114	114	3
7	35	1
69	94	1
40	42	1
0	6	1
2	100	1
3	4	1
121	122	1
124	125	1
25	30	2
32	32	1
110	116	1
72	72	2
154	154	1
45	48	2
19	21	2
81	82	1
6	23	1
10	39	2
107	111	2
84	84	2
129	129	1
99	99	2
93	94	1
48	48	1
11	48	1
65	66	1
33	33	2
83	97	1
55	61	1
136	137	2
130	131	1
34	34	1
119	122	1
38	45	2
107	107	2
43	45	1
114	132	1
108	112	1
68	69	1
146	147	1
109	110	1
125	126	1
69	69	1
52	52	1
