62	62	5
43	54	3
93	93	8
120	120	10
32	32	5
99	99	7
68	70	1
108	144	3
125	125	5
60	60	8
23	23	11
51	89	2
33	75	2
89	89	9
2	6	6
42	42	12
111	111	6
135	135	9
87	88	4
69	69	10
128	128	3
31	50	4
120	130	2
24	24	2
9	9	9
39	41	3
36	57	2
124	124	6
41	57	3
76	76	6
121	121	5
62	64	2
90	90	4
138	138	9
37	41	2
81	81	16
118	118	3
109	109	11
98	98	10
26	26	6
63	68	3
71	72	4
102	102	7
114	114	15
132	132	13
60	72	5
15	15	9
127	127	8
116	117	7
101	102	6
77	82	4
48	48	11
83	83	12
58	59	2
25	25	10
12	13	2
114	115	3
1	1	3
29	30	1
28	28	7
104	104	6
31	31	6
84	84	7
12	15	4
92	94	2
83	86	2
107	107	6
111	115	4
77	83	3
12	12	3
105	105	7
82	82	4
92	93	5
91	91	8
61	61	6
74	75	5
66	136	2
103	103	5
21	26	2
95	95	7
127	131	5
40	54	4
52	52	5
17	17	5
37	37	2
43	55	3
136	136	7
16	17	3
33	140	1
49	49	10
76	77	3
64	64	5
144	145	2
117	117	11
57	57	12
70	71	1
134	134	2
68	68	7
15	16	4
125	140	2
19	19	6
128	129	3
80	83	1
0	0	8
54	54	9
110	111	3
145	146	3
83	84	3
35	36	2
38	38	5
30	74	2
109	110	3
24	25	2
96	96	11
41	41	5
74	74	10
137	137	6
62	75	3
30	40	4
17	28	1
101	101	9
8	8	3
119	119	1
130	130	5
22	22	17
115	115	5
104	105	5
141	142	4
108	108	4
67	67	12
32	49	3
81	83	1
84	106	1
59	60	2
139	140	1
2	2	2
27	27	7
92	92	2
1	2	3
37	56	3
37	38	2
1	4	5
16	16	3
63	63	3
34	137	1
64	128	3
17	19	3
81	141	2
7	9	4
70	70	6
140	140	3
94	98	2
80	130	1
64	136	3
89	91	2
132	137	1
145	145	3
86	86	2
13	50	1
53	53	8
8	22	4
51	52	3
126	126	12
133	139	8
25	26	3
109	144	2
131	131	6
119	120	3
31	40	3
18	19	5
125	126	7
4	6	2
29	29	6
133	133	7
47	47	6
80	80	4
58	58	4
93	94	8
118	122	6
84	85	4
107	143	3
60	136	3
113	113	7
68	69	4
77	77	6
14	20	2
85	86	2
33	33	13
39	40	1
13	14	5
94	95	1
143	143	1
18	18	3
8	9	6
141	141	5
142	142	3
3	20	1
120	121	3
81	125	1
55	55	6
100	100	6
118	119	3
79	79	13
134	135	3
132	133	4
72	72	2
85	85	2
60	61	3
133	135	5
137	138	3
10	20	1
39	39	6
48	49	2
78	82	4
77	140	2
32	89	2
20	20	3
5	42	1
108	109	2
35	140	3
75	75	11
42	53	1
19	101	3
86	87	1
110	110	5
82	84	1
13	21	2
116	116	3
112	112	2
39	54	2
3	21	2
36	36	1
73	74	4
62	63	1
51	51	2
65	136	1
30	71	1
17	88	2
113	114	1
96	97	7
24	105	1
30	30	1
98	99	6
11	11	5
129	129	4
59	61	1
65	65	2
13	13	3
14	14	2
79	137	5
50	52	1
5	14	2
59	71	5
13	47	1
71	71	1
107	108	4
97	97	4
16	106	2
122	122	2
43	43	2
48	88	1
88	88	1
35	60	4
126	132	1
143	144	2
11	27	2
125	141	1
81	134	1
81	130	2
142	143	2
10	11	1
128	132	1
65	67	1
64	66	2
6	6	1
133	140	2
130	132	2
35	35	4
69	70	1
1	43	2
80	81	3
119	122	2
49	53	2
130	131	1
31	73	1
134	138	1
37	57	1
40	40	3
46	46	1
3	3	2
108	143	1
87	90	2
66	67	2
59	70	1
5	9	1
123	125	2
32	73	4
59	59	1
62	140	2
139	141	2
73	73	1
28	29	1
78	78	1
37	40	1
77	78	2
133	137	1
144	144	1
5	5	1
57	58	1
48	50	1
123	123	1
93	98	1
94	94	1
0	2	1
30	31	1
65	129	1
139	139	1
128	131	1
