176	176	10
23	24	3
160	182	5
127	139	2
79	80	1
18	18	6
91	102	5
91	92	4
183	190	1
148	148	2
165	183	2
91	91	9
40	40	6
92	104	2
167	167	16
103	104	3
76	92	5
155	155	11
165	175	2
137	137	6
159	160	2
123	123	6
177	178	3
3	7	2
37	37	6
7	7	6
43	43	1
47	47	5
135	147	3
135	135	15
66	68	3
62	70	3
72	143	4
108	119	3
87	91	1
153	153	1
37	73	1
164	165	4
42	66	2
121	121	3
115	116	4
9	37	2
120	143	2
80	93	2
108	109	2
15	38	2
150	150	4
116	116	6
88	89	3
101	102	4
26	26	4
112	118	1
75	78	1
19	19	11
70	72	1
108	114	1
12	14	4
183	189	1
143	167	3
52	52	6
35	35	4
112	190	3
81	82	5
38	39	4
81	98	3
111	111	4
106	106	5
140	151	1
153	154	1
166	175	2
22	22	6
79	79	10
41	42	4
123	132	1
175	190	1
15	16	5
29	29	4
74	75	5
180	180	4
0	13	1
168	183	2
103	103	5
112	119	2
57	60	2
126	127	5
154	155	1
42	43	3
1	13	1
59	59	6
119	120	4
89	90	6
90	106	1
21	21	7
132	133	1
119	119	5
45	45	6
129	130	3
4	6	3
138	138	5
39	39	4
60	60	5
66	66	7
157	163	2
165	166	5
137	139	3
63	63	6
169	171	1
90	92	3
16	82	3
53	53	4
22	27	1
120	131	6
117	117	7
84	85	6
156	156	3
56	56	5
6	22	5
173	173	7
60	61	2
164	164	6
38	38	4
53	106	2
54	55	4
20	21	4
139	154	2
46	46	2
140	140	3
13	80	2
97	99	4
4	4	5
58	58	4
55	55	4
138	156	4
20	171	5
102	118	2
129	157	3
157	157	3
108	108	7
28	28	5
87	90	1
82	82	2
85	94	2
133	133	11
5	6	4
73	74	8
170	170	4
108	113	3
166	167	1
13	13	6
128	129	2
169	180	2
124	124	5
142	143	1
134	134	5
65	65	1
3	19	2
35	78	2
189	189	7
22	24	2
41	87	3
22	23	3
100	100	7
83	93	2
74	100	2
94	94	2
74	92	2
47	59	1
158	158	2
132	132	6
40	89	2
89	109	1
181	182	4
177	177	9
126	126	6
113	113	2
177	182	2
11	30	1
117	118	5
184	184	6
110	114	2
81	81	6
73	73	2
143	149	1
136	136	13
158	163	1
162	177	1
15	15	5
172	172	1
88	88	2
41	41	3
28	44	2
66	87	6
171	183	5
61	62	3
85	86	1
59	73	3
33	46	1
80	90	1
72	72	7
10	26	1
24	24	4
128	186	1
89	89	5
8	8	4
174	174	6
13	21	1
119	128	3
129	182	1
136	155	1
44	44	3
76	77	1
121	123	3
112	112	2
101	101	2
5	5	3
48	63	1
129	129	4
90	90	6
2	2	5
181	186	1
68	69	2
25	25	4
120	120	4
63	64	3
133	143	1
45	64	1
67	68	7
20	20	2
46	62	2
166	170	3
152	152	3
36	36	7
33	37	1
188	190	1
106	107	1
14	14	3
83	83	1
55	56	5
160	162	1
28	29	2
76	78	1
145	161	4
80	80	5
44	53	3
34	34	11
184	185	1
118	118	3
149	149	3
186	186	8
141	142	1
96	97	6
125	125	2
140	159	2
6	8	2
16	21	1
56	57	1
188	189	1
126	128	1
101	120	1
78	78	3
144	144	3
124	131	1
36	78	3
14	15	4
98	151	2
150	155	1
176	177	1
33	34	1
12	13	2
142	144	3
71	71	2
145	145	8
149	150	3
174	175	4
97	98	1
182	183	2
140	157	1
127	127	3
25	35	1
93	94	1
32	46	2
76	164	1
186	188	2
141	148	1
137	159	2
86	92	1
161	161	2
108	120	4
85	152	2
92	96	1
74	74	2
157	159	3
54	56	1
181	181	5
90	91	2
43	44	1
168	168	1
83	141	1
44	62	3
105	113	1
73	85	2
141	141	1
168	189	1
165	165	5
98	98	5
187	187	3
89	99	3
16	38	1
177	190	2
104	109	1
175	175	4
79	94	2
84	88	1
111	112	3
39	59	1
43	46	2
48	104	1
102	103	1
11	11	2
83	84	6
69	69	2
30	30	4
94	96	1
107	114	2
52	85	2
142	155	1
127	144	2
99	110	1
4	5	2
133	134	1
170	187	1
37	38	2
8	89	2
96	96	1
46	47	2
72	84	2
154	154	2
87	108	2
57	65	1
68	99	2
85	85	1
54	54	3
161	172	3
143	153	1
115	115	2
21	171	2
160	160	2
114	114	3
70	70	2
71	72	1
87	89	2
75	171	3
167	168	2
95	95	3
1	24	2
97	97	2
160	177	2
140	146	2
172	174	2
67	74	2
55	72	1
155	186	1
160	163	3
67	67	3
143	143	4
108	118	1
76	93	2
94	95	3
142	142	6
131	131	4
159	159	1
4	13	1
35	36	1
164	166	2
129	158	1
87	88	1
143	144	1
29	40	2
57	63	1
124	130	4
156	166	1
62	64	4
22	115	1
117	120	4
127	140	2
137	145	1
105	118	1
91	93	1
84	108	3
75	79	1
181	183	1
58	74	2
44	47	2
183	184	1
10	11	1
122	132	2
4	39	1
38	85	1
128	131	2
185	185	1
25	26	1
82	83	2
36	79	3
117	119	1
67	95	1
16	83	2
107	107	3
60	65	1
71	83	1
62	62	3
1	1	1
23	23	5
122	122	1
17	79	1
149	151	1
76	76	2
161	162	1
57	57	1
151	152	2
156	159	1
139	153	2
16	20	1
54	60	3
34	35	1
158	159	3
27	30	2
33	49	2
148	149	1
35	47	1
28	35	2
64	67	1
140	158	1
106	138	1
183	183	1
101	118	2
104	104	4
139	139	1
179	181	1
178	184	2
147	148	1
26	27	1
27	27	1
104	105	4
63	71	2
32	32	1
2	4	1
89	106	2
158	166	1
31	34	1
80	94	2
178	180	1
61	78	1
156	160	2
124	125	3
64	83	1
86	86	1
105	106	1
126	151	1
68	95	1
126	130	1
162	162	2
156	181	1
41	45	1
48	48	1
144	145	1
11	23	1
102	154	1
0	6	1
33	33	1
105	105	1
92	92	1
129	186	1
62	63	1
90	122	1
19	20	2
128	128	1
169	172	1
99	99	2
115	123	1
146	146	1
173	174	1
30	36	1
80	81	1
57	61	1
163	177	1
69	70	1
79	81	1
175	176	1
80	82	1
110	110	3
144	147	1
78	79	1
25	33	2
121	122	1
186	190	2
66	67	1
12	22	1
72	73	1
182	182	2
58	100	1
103	109	1
17	20	1
132	142	1
35	81	1
55	58	1
136	138	1
186	187	2
39	91	1
15	40	1
132	154	1
182	184	1
148	163	1
42	42	1
171	184	1
90	149	1
167	169	1
40	43	1
171	172	1
64	64	1
89	126	1
130	130	1
67	83	1
78	86	1
4	7	1
127	128	1
33	36	1
171	171	1
151	151	1
145	146	1
1	5	1
