91	91	8
50	50	20
49	49	14
34	114	3
50	110	3
113	113	5
97	97	7
90	90	10
43	98	9
24	33	4
52	54	4
19	23	1
86	87	3
55	56	6
68	68	14
66	66	5
94	96	4
96	97	5
75	75	7
24	24	6
46	48	1
76	77	2
59	67	3
95	95	5
31	31	16
46	46	2
47	47	9
92	95	4
78	78	12
70	71	2
56	58	1
98	98	9
50	51	4
45	66	2
83	84	2
33	33	2
62	62	6
100	106	1
23	23	7
73	98	4
71	71	10
21	22	6
39	39	11
112	112	6
56	57	2
27	98	4
44	51	2
102	102	3
74	74	8
61	64	1
19	20	1
89	90	7
93	93	6
100	100	11
85	85	5
37	70	2
53	53	14
94	94	5
60	60	4
32	32	19
51	111	5
85	87	1
45	45	7
83	83	9
114	114	3
103	103	9
92	92	8
35	35	7
102	104	4
44	44	10
26	27	1
21	21	15
27	27	3
99	113	2
87	87	4
43	43	12
99	99	8
46	49	1
76	76	10
74	75	5
67	67	6
78	79	4
108	111	1
38	38	7
42	43	1
69	69	16
72	72	3
60	77	1
81	92	3
61	63	1
37	37	10
73	73	14
25	25	5
40	41	2
61	86	2
66	67	3
66	74	1
98	99	2
21	38	4
101	102	4
42	42	16
111	111	5
97	98	4
101	101	3
96	96	9
79	79	3
20	20	9
93	98	2
61	76	2
108	108	7
105	106	1
67	68	3
94	100	2
78	81	1
36	74	2
22	22	3
33	95	1
35	36	4
100	101	4
20	38	3
80	80	17
71	72	4
33	34	3
41	41	4
51	51	13
26	26	4
67	95	2
41	48	3
77	78	5
40	40	8
28	29	5
45	111	3
84	85	5
61	96	3
81	81	3
25	33	2
56	56	3
90	110	3
70	70	6
38	39	5
30	30	2
115	115	1
110	111	2
31	32	3
74	77	4
90	101	1
44	47	2
44	55	2
89	95	2
23	28	2
80	86	1
52	58	2
57	57	6
32	60	2
50	109	3
79	80	2
104	104	2
107	107	2
110	112	2
71	73	3
94	95	3
52	71	3
62	64	3
45	51	6
25	26	7
55	55	1
65	65	2
54	54	2
58	60	3
52	52	3
48	48	4
96	98	2
29	29	3
19	19	1
94	105	1
25	41	1
89	89	2
89	104	1
50	69	1
64	64	1
32	34	1
59	59	6
63	63	2
22	23	2
90	91	3
101	103	2
76	80	1
44	45	2
24	25	2
81	93	1
105	105	5
31	41	3
109	111	1
71	110	1
107	108	2
73	74	1
58	58	5
109	109	1
111	112	3
27	33	3
40	78	3
62	77	1
61	61	1
45	46	1
70	72	1
27	28	5
36	38	1
20	30	1
88	88	3
89	102	1
36	36	4
39	42	3
64	65	2
34	34	6
82	82	4
109	110	1
110	110	1
20	21	2
46	72	2
34	35	4
30	31	1
72	73	2
65	67	1
93	94	1
29	47	1
59	85	1
93	101	1
48	49	2
58	59	2
60	61	2
59	94	1
40	49	1
28	28	1
53	54	2
80	82	1
65	66	1
77	77	1
92	102	1
75	76	2
28	42	1
106	106	1
104	105	1
89	91	1
99	106	1
61	62	1
26	96	2
36	52	1
43	45	1
34	36	1
59	101	1
66	70	1
