25	25	6
41	41	4
18	19	4
54	54	4
137	137	8
90	90	2
80	105	4
39	39	8
99	99	4
22	36	2
41	42	4
30	30	15
4	4	6
74	78	1
68	68	4
73	78	1
101	103	6
69	69	2
60	60	2
37	37	7
64	75	3
20	20	10
110	110	4
111	141	1
48	55	1
92	92	2
125	125	2
141	142	3
88	137	7
111	111	3
114	130	3
56	56	11
71	71	8
40	40	4
116	116	3
27	29	7
42	42	4
51	51	4
59	84	2
100	100	6
143	144	1
146	146	4
113	114	2
134	134	3
74	75	3
122	122	3
58	58	3
13	13	4
103	103	5
127	128	3
91	91	2
26	28	1
115	115	6
59	80	1
18	37	3
6	40	3
108	109	1
106	108	1
15	15	3
117	137	2
98	118	6
98	98	2
60	61	1
96	97	4
60	68	9
98	130	1
29	29	5
73	73	1
62	62	1
11	11	1
33	33	6
23	25	6
141	141	3
64	64	8
14	23	1
64	72	4
134	135	1
62	91	1
135	137	2
87	87	3
91	120	1
9	27	2
96	127	3
118	125	2
58	63	1
131	131	5
120	120	6
101	112	4
135	135	3
125	127	4
138	139	4
83	99	2
140	140	1
5	17	3
82	83	6
84	85	3
23	49	1
140	141	4
130	130	6
97	98	2
118	122	3
70	146	2
93	93	4
57	58	4
31	31	6
137	139	2
61	61	1
58	73	3
57	57	10
53	77	2
109	109	2
14	14	3
33	35	2
89	89	2
70	70	1
129	129	2
72	75	1
93	94	1
61	63	1
70	112	1
80	80	1
139	142	6
11	36	5
86	111	1
21	21	5
106	106	4
79	79	2
144	144	3
49	55	2
143	143	2
2	2	6
118	118	1
62	84	2
61	64	1
81	83	1
33	54	1
100	101	1
91	110	2
117	117	2
98	103	1
102	102	1
19	22	1
116	138	1
136	141	1
109	124	1
99	109	2
10	10	2
138	140	1
63	112	4
33	36	1
55	56	1
75	75	1
124	124	1
128	128	1
47	54	1
65	73	1
26	26	1
80	106	1
62	110	1
105	109	1
24	41	1
31	33	2
71	72	1
73	76	2
11	37	1
63	111	1
80	108	1
11	18	1
56	75	1
96	130	1
58	59	1
117	136	1
22	22	1
112	112	1
135	136	1
