58	59	9
186	198	4
76	76	10
87	96	3
156	156	12
177	178	3
167	201	3
222	223	4
235	235	16
14	16	3
175	175	9
170	179	2
91	91	10
44	46	6
179	179	6
35	35	11
169	169	12
204	204	9
24	26	3
39	39	13
207	208	3
40	55	5
171	171	16
205	205	7
183	183	17
117	117	23
37	38	7
14	18	1
42	43	5
197	244	4
32	32	16
188	198	4
38	44	1
91	100	3
165	175	7
162	193	4
48	51	3
87	87	8
68	70	4
45	45	23
218	225	2
151	162	2
66	66	12
63	64	3
213	230	1
227	227	15
120	156	2
208	208	9
216	216	10
156	158	8
173	173	10
238	240	10
210	211	4
82	82	16
14	15	5
51	52	6
100	100	14
43	203	3
24	59	1
188	188	7
33	35	2
15	16	3
180	180	19
217	217	9
90	90	9
208	218	1
169	178	3
29	30	5
238	238	13
182	182	6
8	9	4
110	110	7
14	14	15
245	245	16
83	83	15
230	233	1
97	106	2
187	187	13
82	83	5
228	228	8
25	26	5
220	221	2
232	232	17
212	213	3
86	86	15
166	188	4
158	158	8
28	95	2
65	65	18
167	167	14
73	75	9
12	12	6
81	81	7
177	177	9
21	22	16
239	239	3
67	87	5
93	94	13
107	109	1
103	104	3
155	155	17
101	106	3
63	65	2
68	78	2
248	248	7
61	62	5
242	242	22
203	203	14
76	86	1
80	80	10
174	198	5
198	200	3
5	11	2
163	165	3
160	160	15
53	53	3
28	28	17
68	68	4
197	197	9
59	61	2
111	111	7
92	95	4
235	237	3
39	41	4
186	186	11
221	221	12
53	67	1
237	238	4
30	30	10
53	57	3
49	49	6
114	115	2
236	237	4
109	109	15
183	185	3
17	17	21
8	11	3
36	38	1
215	218	3
83	98	3
225	231	4
87	114	4
38	38	16
66	70	2
40	40	15
91	92	3
235	236	10
237	237	6
90	92	3
89	98	1
230	230	9
9	18	2
101	101	10
7	8	10
44	44	10
245	246	3
174	174	12
166	201	1
211	211	11
222	237	5
116	116	7
79	79	15
160	161	8
191	209	1
79	80	2
144	145	2
28	29	3
19	28	3
82	86	1
150	154	1
185	244	5
46	244	2
184	184	17
229	229	7
216	218	2
218	229	1
6	8	1
99	99	29
77	77	17
64	64	15
76	77	9
185	211	1
121	121	3
230	231	6
205	212	1
224	224	10
233	241	2
161	161	14
182	194	3
100	192	1
213	213	20
205	209	8
103	103	13
33	37	2
55	60	4
4	14	2
233	246	2
106	111	1
227	231	1
196	196	8
99	101	15
240	240	7
184	232	1
112	116	2
200	201	1
69	70	3
2	32	4
218	220	7
82	84	10
154	154	8
21	21	13
65	66	4
198	199	4
240	241	5
239	241	4
232	240	1
11	11	10
185	192	1
205	229	2
225	225	8
203	205	3
88	97	3
22	24	1
96	96	12
223	223	5
10	11	3
71	82	4
20	20	7
190	190	17
97	98	4
68	90	1
25	25	8
118	118	7
209	223	3
106	106	8
246	248	3
50	50	17
114	114	13
62	62	16
168	168	5
161	162	4
78	78	13
20	21	7
202	202	6
210	210	13
10	10	16
95	95	9
38	39	5
3	17	2
163	204	2
223	225	1
112	149	2
234	246	3
90	100	4
22	22	17
41	46	2
27	27	22
14	42	1
164	164	13
198	203	3
59	62	5
90	101	1
246	246	11
2	2	6
59	59	5
26	26	12
229	238	4
158	159	2
53	63	2
16	22	1
247	248	1
89	89	5
177	187	1
244	245	5
220	224	1
159	159	10
34	50	2
46	46	7
87	92	2
65	71	3
42	42	9
94	107	1
35	38	3
37	37	4
219	219	16
189	190	1
159	168	1
20	28	2
55	58	5
42	45	4
8	8	13
22	33	4
156	164	2
157	157	2
52	53	1
217	220	2
5	35	4
147	147	8
7	7	16
3	12	1
234	235	10
166	166	7
176	176	8
227	230	3
98	111	1
73	73	4
55	66	4
52	52	5
171	172	4
78	84	4
181	182	4
165	165	11
229	234	2
41	50	4
94	94	9
187	188	6
176	197	1
221	230	2
214	214	15
178	178	11
212	220	4
175	183	4
156	157	8
35	36	7
182	189	1
84	86	4
199	231	1
150	150	9
182	184	12
225	229	5
230	243	1
154	155	7
174	178	7
186	196	1
51	57	3
97	102	3
234	234	7
186	187	7
193	193	10
176	178	4
178	186	1
212	212	11
85	85	8
146	154	2
193	198	3
162	162	4
48	48	5
74	74	2
200	203	3
4	4	4
213	240	1
9	16	2
61	71	3
175	186	2
240	242	2
153	155	3
9	12	5
119	119	9
69	76	2
115	115	14
203	212	4
67	69	10
243	245	1
154	156	3
112	119	4
23	23	5
194	194	6
247	247	12
41	41	9
161	163	5
68	75	5
97	97	8
233	233	10
215	215	8
199	200	6
57	65	2
9	9	8
155	162	5
74	77	3
108	108	7
65	70	1
174	184	4
152	152	3
173	175	4
193	194	5
146	146	5
11	15	2
98	98	8
76	79	1
218	218	6
35	50	2
3	4	2
57	57	3
71	75	4
90	93	1
49	50	1
226	226	3
67	67	5
229	230	1
160	172	2
23	24	1
180	185	4
3	9	2
55	55	8
207	217	3
16	16	8
110	113	3
36	36	14
9	11	5
195	195	6
102	104	3
113	113	24
26	28	2
203	211	2
105	115	4
73	79	1
44	57	1
181	181	14
71	72	1
219	220	3
243	243	5
62	63	5
65	75	3
15	18	5
197	208	2
198	198	3
182	185	1
43	43	5
232	238	3
172	183	1
5	18	7
185	185	3
173	184	2
99	107	5
53	66	1
78	98	2
185	193	3
103	153	2
185	187	7
209	214	2
214	226	4
238	239	6
92	105	2
81	83	4
162	163	3
120	120	2
54	54	18
30	37	2
30	40	2
203	204	2
218	224	3
33	155	1
209	211	2
7	9	5
2	3	2
227	229	3
188	195	2
5	5	4
92	92	18
4	5	2
70	70	5
169	172	4
196	200	4
11	14	2
19	19	10
43	44	4
201	230	5
193	195	1
182	183	4
91	152	1
55	57	1
77	78	3
84	84	8
30	42	2
44	53	3
29	29	13
242	245	1
15	15	7
182	197	3
241	241	6
33	34	1
170	170	5
105	105	2
172	172	5
80	81	2
67	105	3
56	72	4
230	238	3
5	6	5
47	49	2
206	206	8
153	153	14
47	53	5
163	163	3
110	111	4
190	195	3
244	246	1
63	81	1
223	230	2
234	243	3
109	110	2
32	34	2
27	31	2
172	179	2
222	222	5
179	193	2
90	91	3
221	222	9
26	38	4
86	94	2
233	234	3
47	47	5
199	223	1
200	211	1
88	88	7
234	241	5
104	104	8
82	242	1
204	205	4
60	60	3
43	46	2
243	244	1
56	57	4
213	222	3
32	33	5
90	99	1
33	33	6
61	63	1
104	114	2
221	232	2
18	20	1
119	120	3
113	117	1
167	169	2
179	184	2
21	25	2
220	228	2
157	158	6
218	219	6
15	20	2
68	79	4
152	157	2
98	108	5
211	213	1
53	54	1
89	104	3
157	166	7
177	185	3
224	238	1
66	68	1
22	30	1
100	101	5
228	240	1
65	69	1
12	26	1
164	167	1
228	229	1
39	45	2
38	246	1
215	240	1
61	61	11
59	67	1
192	193	6
155	156	2
164	165	9
24	24	5
78	86	5
113	120	1
9	10	1
192	209	6
218	240	2
235	244	2
6	6	12
216	219	4
73	80	3
59	64	1
29	34	4
117	118	1
1	7	2
78	79	8
23	33	3
84	85	3
61	69	2
192	200	5
160	162	1
216	228	2
61	102	2
175	197	1
228	236	1
208	211	4
163	173	2
219	225	3
169	182	4
31	31	4
207	220	1
166	186	1
63	63	6
213	226	1
34	34	4
186	190	3
231	239	1
238	247	2
202	213	1
67	78	1
225	232	1
3	5	5
45	53	3
178	195	1
167	187	2
113	116	2
165	166	3
180	181	2
185	186	6
219	221	1
114	117	5
111	114	1
109	111	4
19	21	3
214	217	4
60	61	7
222	224	1
216	240	1
71	71	5
224	231	2
87	91	1
66	71	2
223	224	3
165	177	3
174	175	4
74	79	3
52	55	3
153	164	1
166	168	3
109	115	2
206	219	2
60	67	1
168	177	4
77	83	4
183	233	3
25	32	2
229	235	2
83	84	10
100	153	3
28	32	3
1	1	5
6	12	1
184	185	2
89	112	3
75	76	1
212	224	1
226	227	1
231	231	2
44	45	4
189	197	3
18	18	6
60	72	2
42	57	1
216	227	3
236	236	7
225	226	2
172	174	4
26	27	2
220	241	3
101	108	2
54	55	4
185	222	2
203	230	4
144	206	1
156	201	2
75	75	4
197	206	1
161	209	4
64	73	1
99	154	1
163	166	1
50	60	1
184	223	1
237	248	1
33	43	3
158	160	3
90	96	2
178	183	2
111	112	5
194	206	3
91	103	2
45	46	5
170	175	1
87	88	4
189	201	1
210	221	2
31	33	4
200	200	3
108	118	2
86	87	6
162	165	1
67	94	1
53	58	1
58	68	3
167	168	1
77	82	2
191	192	7
163	164	7
68	76	1
159	208	1
178	179	3
20	23	2
108	116	4
106	109	1
221	225	2
236	246	1
167	188	1
33	48	4
19	20	1
48	61	3
179	182	1
112	112	5
163	168	3
177	180	2
206	231	2
10	16	3
185	189	2
179	191	2
30	43	1
76	78	7
238	243	1
119	145	4
69	69	8
33	36	2
109	112	3
220	220	2
62	65	1
95	96	2
169	174	1
185	214	1
19	24	1
145	145	3
101	102	2
70	71	4
189	189	3
38	40	1
199	199	4
48	57	2
191	191	4
227	238	3
95	109	1
58	60	4
203	206	1
162	175	2
215	239	2
151	151	4
46	53	2
95	118	1
99	102	2
60	68	1
174	195	5
178	194	2
201	201	2
215	219	2
66	69	2
172	181	2
57	243	1
46	48	3
227	240	2
17	18	1
91	93	8
5	9	2
156	160	4
25	205	1
206	232	2
51	55	2
37	50	1
47	51	1
26	31	2
217	218	3
112	114	3
4	7	3
58	58	2
67	108	1
186	205	2
102	102	3
45	47	1
152	158	1
205	206	2
34	35	1
213	214	3
192	194	1
207	232	1
105	107	1
204	211	3
167	180	2
104	106	2
204	210	5
147	158	3
153	154	4
29	38	1
99	100	3
16	17	2
85	94	2
6	39	2
164	168	2
67	76	4
202	203	1
169	173	1
31	39	2
98	99	3
58	61	2
69	71	1
226	228	3
108	113	1
22	31	3
51	51	2
36	40	1
29	37	2
154	160	1
114	116	3
33	42	1
183	197	1
185	197	1
245	248	1
213	215	2
93	95	2
119	165	1
201	208	3
101	162	2
204	207	4
89	90	2
209	209	3
22	23	3
230	232	3
16	27	1
108	109	1
170	178	2
231	232	2
107	111	1
157	159	6
200	210	1
244	244	4
2	14	1
165	168	1
244	247	1
166	167	1
29	33	2
113	118	2
234	240	1
159	177	1
11	16	1
166	190	3
173	186	1
2	4	3
211	212	2
174	233	1
168	169	2
91	104	1
38	89	2
191	196	1
191	195	1
24	40	2
166	189	1
8	14	3
85	88	2
198	209	2
112	113	2
65	241	2
200	202	4
19	23	3
172	180	2
53	55	2
88	89	1
192	233	2
64	65	3
72	74	2
8	17	1
178	181	1
177	186	1
108	117	1
42	48	1
9	227	2
145	158	3
176	191	2
107	107	2
77	85	2
189	198	1
65	68	1
221	223	1
230	234	1
208	210	2
36	37	2
16	23	1
31	32	2
61	68	1
45	229	1
146	147	2
68	69	2
4	6	1
102	109	3
87	105	1
162	194	1
198	202	2
204	214	1
107	118	1
96	97	1
47	48	1
176	184	1
69	72	1
148	149	1
218	227	2
80	82	1
185	198	1
231	234	2
165	201	1
18	19	1
205	214	1
151	160	1
97	162	2
28	91	1
120	145	1
182	232	1
144	203	1
97	107	1
37	109	1
217	224	1
182	195	1
193	203	1
151	156	2
154	157	1
242	248	3
209	234	1
30	34	2
239	240	1
166	170	2
192	192	4
14	229	1
220	227	1
201	202	1
40	57	1
235	245	1
16	20	1
93	93	1
145	150	1
222	239	1
213	227	1
24	27	1
216	217	1
217	219	1
6	9	1
27	35	1
37	108	1
195	196	1
97	112	2
94	116	1
242	246	1
11	12	2
82	87	3
48	55	1
1	45	1
59	60	1
96	98	1
151	153	2
83	86	2
110	152	1
167	170	1
1	2	2
246	247	5
165	167	1
207	207	1
207	218	3
212	214	1
225	228	1
245	247	1
57	72	1
167	183	1
23	41	2
231	235	1
85	89	2
190	191	1
49	54	1
26	100	2
88	90	1
192	203	1
190	220	2
55	65	1
5	29	1
222	227	2
215	217	1
222	234	2
40	89	1
106	110	2
102	164	1
245	249	1
216	222	3
187	191	1
22	27	1
151	157	1
48	49	1
217	226	1
87	90	2
27	92	1
151	152	1
163	194	1
179	181	1
184	204	1
159	160	1
5	20	1
46	51	1
20	22	1
166	173	2
58	104	1
200	206	2
176	181	1
63	70	2
94	97	1
224	229	1
56	56	1
108	111	3
160	166	1
155	161	1
87	98	1
164	169	1
6	15	1
88	93	1
72	79	1
173	185	1
98	107	1
237	241	1
32	36	1
215	222	2
62	104	1
61	87	2
145	151	1
47	57	1
173	176	1
171	178	2
227	245	1
209	220	1
115	116	1
168	176	1
218	221	1
104	152	1
173	210	1
238	241	2
63	66	1
110	118	1
87	94	1
58	64	2
226	231	1
192	197	1
92	150	1
105	113	2
36	39	1
163	191	1
175	176	1
120	144	1
116	118	1
224	235	1
39	40	1
206	210	1
3	3	2
159	210	1
241	242	1
233	242	1
67	71	1
46	89	1
74	76	1
93	99	1
208	217	1
76	101	1
175	200	1
214	221	1
183	223	1
