43	44	2
96	96	8
30	31	4
89	90	3
104	104	6
113	113	7
106	107	3
82	85	4
85	86	3
89	89	6
81	81	9
82	82	11
71	71	4
43	43	3
33	34	1
81	85	4
70	71	6
32	32	3
87	87	3
76	81	2
27	51	1
57	57	6
46	48	3
44	44	4
39	39	7
32	33	4
38	39	7
54	54	4
66	66	9
26	26	5
85	85	4
60	60	8
20	21	1
42	43	3
53	60	2
76	76	7
25	26	8
44	45	1
38	38	6
102	103	5
48	48	1
95	100	5
33	33	8
88	88	6
58	61	2
90	109	4
61	61	4
108	109	4
77	77	12
34	34	4
78	78	4
78	79	3
102	102	5
75	75	10
68	69	8
59	60	5
62	70	5
98	98	2
29	29	3
64	65	2
84	89	1
41	71	2
61	72	4
66	69	1
53	58	4
41	51	1
101	103	1
37	37	4
109	109	3
68	68	9
46	46	4
34	107	3
80	81	1
59	59	7
88	89	1
25	25	2
110	112	5
20	59	3
21	21	2
92	92	5
74	74	1
19	19	5
23	23	7
74	75	1
97	97	4
76	86	5
31	31	5
51	51	7
42	42	2
114	114	2
24	24	11
20	20	7
94	95	3
29	30	4
101	101	3
53	56	1
47	47	7
60	69	1
59	69	2
52	52	2
45	46	2
61	86	1
62	63	3
79	79	6
70	72	1
23	24	2
63	63	2
62	62	4
45	45	7
73	73	1
109	110	5
111	111	3
28	28	2
46	67	1
30	30	5
54	56	5
30	35	2
55	55	3
84	85	4
112	112	8
95	95	2
63	64	1
40	41	1
54	55	2
99	113	2
58	87	1
103	104	1
90	90	4
37	38	1
80	80	2
103	103	2
56	58	2
40	40	4
86	87	2
110	110	5
91	93	1
107	107	4
30	33	1
33	35	3
115	115	3
54	57	2
34	35	1
20	68	2
100	112	2
78	81	1
84	84	4
73	74	2
82	83	3
22	22	3
94	94	4
65	66	1
24	26	2
84	87	1
93	94	3
65	67	3
21	48	1
72	72	2
77	78	1
100	110	1
91	92	1
105	105	3
63	76	3
82	84	2
91	101	2
35	35	1
38	74	1
65	65	2
87	88	1
110	111	1
56	56	4
48	49	1
66	68	1
31	32	1
101	102	3
28	29	2
112	113	1
93	93	1
69	69	1
96	97	1
53	53	1
35	36	1
104	107	1
83	83	1
107	109	1
62	65	1
106	106	1
61	76	1
66	67	1
51	72	1
