129	129	6
59	77	2
92	92	28
17	18	2
107	108	3
14	14	15
110	111	3
67	68	2
19	21	7
42	44	1
79	94	10
7	8	5
114	114	7
57	58	1
111	111	15
124	125	20
25	25	19
48	48	8
23	33	1
108	108	12
12	22	3
99	99	9
123	123	3
127	127	7
22	30	2
22	26	10
25	26	3
16	16	9
50	63	1
39	40	12
120	120	11
19	27	1
47	48	3
43	43	7
56	71	1
96	96	11
119	128	4
52	62	2
29	29	8
2	2	14
88	110	2
113	113	5
95	95	5
4	13	3
81	81	12
39	55	7
13	13	15
46	46	8
77	77	8
24	24	9
75	75	9
5	23	2
85	93	6
114	115	1
83	85	3
44	44	12
97	97	6
87	87	9
46	47	7
7	15	1
80	81	6
57	107	4
56	56	9
23	23	1
85	85	6
45	45	3
115	116	2
76	76	4
75	76	3
0	2	5
103	104	5
73	73	5
22	29	2
43	51	2
2	3	2
122	123	3
101	102	1
19	19	16
119	119	12
3	8	5
50	50	6
65	69	1
60	60	5
41	41	8
43	48	3
40	59	4
108	109	5
7	7	10
82	84	2
79	81	2
102	103	4
42	48	1
82	82	14
69	69	3
63	63	3
22	22	5
20	34	3
58	92	1
103	115	1
38	50	3
116	116	6
15	44	2
34	34	4
57	57	7
83	83	5
126	129	3
122	122	8
22	45	4
39	39	8
97	99	4
92	94	4
61	61	7
68	68	10
84	128	2
23	34	5
100	104	2
105	108	4
98	98	6
3	23	4
97	104	7
40	40	8
94	94	5
66	66	10
78	79	3
28	28	4
15	15	5
91	91	10
26	26	9
6	6	7
77	84	5
59	91	2
45	73	3
91	105	5
118	132	2
93	93	11
58	58	3
16	17	3
25	29	1
27	27	7
12	12	5
26	103	2
64	67	2
69	91	1
15	19	5
125	125	6
29	34	1
66	67	3
65	82	2
100	100	10
10	10	4
81	93	3
70	78	4
13	31	5
104	111	2
115	115	6
115	124	2
132	132	1
103	111	3
104	105	6
46	51	2
80	80	5
6	21	1
41	52	3
126	126	9
26	31	1
58	59	2
10	25	2
132	133	2
49	49	2
111	112	5
110	110	4
43	55	1
97	98	5
31	32	1
61	62	2
5	15	4
107	107	2
91	93	1
90	94	3
68	78	2
5	21	4
79	82	1
46	78	2
123	133	1
4	10	2
4	4	1
102	102	10
48	63	1
99	100	2
24	33	2
5	6	8
71	75	5
101	126	1
76	77	1
128	128	4
68	77	1
61	74	4
124	124	9
82	93	3
58	78	3
116	120	3
76	82	3
90	106	2
47	64	4
104	104	3
15	20	4
63	75	3
40	41	3
59	107	1
14	15	1
71	74	5
23	24	5
11	16	1
118	118	6
112	112	8
107	118	1
64	74	2
63	72	1
15	17	2
86	87	2
13	27	1
104	110	3
125	126	1
10	27	1
15	22	1
33	33	7
50	56	2
20	21	10
47	47	3
101	117	2
3	4	3
63	64	6
89	90	3
62	94	2
73	89	1
60	61	2
5	5	3
107	115	1
89	104	2
44	45	2
128	129	2
83	84	2
27	32	2
54	54	5
107	109	1
105	105	8
49	60	1
55	55	4
89	91	2
18	18	2
90	90	9
63	67	1
121	121	10
109	109	2
96	98	2
84	85	4
85	90	6
54	55	2
32	44	2
22	43	1
43	44	2
86	88	1
56	72	1
130	130	5
74	106	2
15	47	7
103	129	3
26	27	2
70	71	2
51	51	2
45	56	3
60	62	2
71	95	2
0	0	3
9	10	2
92	93	1
74	74	2
59	64	1
13	16	2
111	113	2
68	69	2
16	20	2
78	78	8
5	24	1
24	27	1
41	65	1
59	60	3
88	107	4
12	16	1
77	79	1
131	131	3
41	42	5
53	53	5
12	13	1
71	76	2
6	12	1
103	120	1
1	28	1
106	108	2
48	49	5
109	114	3
21	23	1
119	131	1
89	89	4
62	62	3
102	118	1
58	61	3
121	125	1
60	112	1
119	124	2
90	116	2
46	62	1
91	92	3
131	132	2
60	88	2
54	57	2
69	75	1
28	34	2
9	9	8
42	43	1
1	1	1
25	28	3
71	83	2
13	15	3
71	82	5
103	103	5
129	131	1
117	117	4
1	5	1
124	126	1
40	65	3
11	11	1
26	42	1
118	127	1
11	12	1
30	30	3
8	10	3
67	67	2
18	19	2
116	125	2
114	130	3
70	70	5
104	108	1
83	103	2
27	72	1
80	82	1
67	71	1
85	86	1
56	61	1
101	101	8
75	98	1
86	86	1
106	106	4
73	76	2
88	88	2
8	8	3
52	54	1
64	64	1
84	84	4
113	114	1
41	122	2
47	66	1
53	60	1
104	106	1
30	31	2
86	90	5
0	3	2
83	91	2
25	34	2
70	74	5
41	51	1
127	129	3
1	2	2
33	73	1
72	76	1
57	93	1
5	26	1
67	77	1
26	32	1
67	81	2
32	46	1
93	94	1
110	129	1
50	62	1
20	20	1
72	81	1
5	25	1
117	118	2
69	83	2
38	45	1
14	25	1
22	33	1
21	25	1
88	103	2
65	65	2
57	64	1
31	31	1
13	18	1
117	132	2
51	52	4
62	63	1
40	64	1
90	110	2
107	111	1
15	16	1
95	106	1
94	97	1
38	53	1
119	127	2
77	98	1
64	65	1
99	105	1
108	112	1
26	28	2
5	22	1
58	68	2
6	8	1
133	133	1
81	83	1
62	106	1
69	79	2
41	62	1
63	69	1
77	92	1
71	96	1
28	30	1
108	132	1
52	52	1
58	67	1
38	38	1
64	68	1
119	120	1
61	68	1
68	80	1
2	4	1
4	23	1
57	72	1
32	32	1
31	49	1
108	131	1
38	49	1
4	5	1
7	9	1
