91	91	13
125	132	4
34	34	8
135	135	18
123	124	7
119	119	10
74	74	11
162	166	1
168	168	6
156	157	5
131	131	16
35	35	13
45	45	5
18	18	13
110	110	10
103	103	7
77	77	5
4	155	5
167	167	6
24	25	4
46	46	4
19	20	1
166	166	9
138	138	7
47	48	5
106	148	1
62	62	1
169	169	13
42	42	18
24	24	5
142	142	7
5	5	6
86	86	6
77	79	1
7	7	8
71	71	4
64	65	6
151	151	22
46	49	2
138	139	1
36	36	5
22	22	9
91	93	1
153	153	7
100	102	1
92	92	13
132	133	5
100	100	7
98	99	3
34	36	1
129	137	3
97	97	5
33	33	7
135	136	3
159	159	15
93	93	11
152	152	9
76	76	13
113	113	10
38	52	2
90	129	4
15	15	6
39	39	10
16	16	22
57	58	2
48	49	3
136	138	2
98	98	8
40	41	6
145	145	11
137	137	11
38	41	3
17	18	7
34	35	3
72	72	5
3	3	7
70	71	7
64	64	8
146	146	11
93	160	3
114	115	5
157	157	12
116	116	7
115	159	8
127	159	1
62	63	4
42	43	3
8	8	4
131	163	3
86	87	5
13	13	11
123	123	7
89	154	3
157	158	9
55	55	13
79	79	4
20	20	5
139	139	8
91	130	3
52	52	10
94	94	6
21	22	4
18	19	4
148	148	5
41	41	5
10	100	8
92	93	7
121	121	4
36	46	2
11	13	7
48	48	8
43	44	2
108	111	2
38	38	6
58	65	1
113	114	6
149	149	16
57	68	3
112	112	7
127	127	4
136	136	16
8	9	2
26	26	3
144	144	5
66	66	3
158	158	6
148	149	8
57	57	9
17	17	10
87	87	8
125	125	9
4	134	4
132	136	2
140	140	9
101	102	5
133	139	1
40	40	5
128	129	2
14	14	8
129	129	9
53	53	12
20	25	1
114	114	12
50	50	11
66	67	2
10	10	8
108	108	7
162	162	6
147	148	4
99	137	3
154	154	20
0	0	11
74	76	2
54	54	7
8	10	2
155	155	13
95	96	7
2	2	6
48	56	2
76	79	1
156	156	6
143	145	3
116	117	5
4	4	8
128	128	4
44	44	11
55	66	1
130	130	11
81	81	7
109	110	5
56	56	13
83	83	7
88	88	13
15	16	6
70	70	6
94	128	1
134	136	1
160	160	7
124	124	9
122	154	4
49	49	7
105	105	14
161	161	5
63	70	6
120	121	5
161	162	7
6	6	3
44	45	3
115	116	6
132	132	13
57	64	3
99	104	1
130	131	3
90	90	10
25	25	12
27	27	5
7	9	2
118	118	4
107	107	3
18	20	6
99	105	5
49	50	3
109	109	4
122	122	7
102	102	5
97	98	5
91	92	1
71	73	3
14	15	3
116	149	1
37	38	3
90	167	4
26	27	4
16	17	5
82	82	2
46	47	1
37	37	6
164	165	1
88	120	2
147	149	1
6	121	1
154	155	4
147	147	3
126	127	6
166	167	3
56	58	1
2	3	1
80	82	5
161	165	5
106	138	1
9	9	2
133	136	1
70	105	4
140	156	4
129	130	4
89	89	6
57	62	2
5	6	3
138	163	7
138	164	1
105	106	1
116	120	1
121	126	2
23	23	8
150	150	15
9	53	2
22	23	6
91	129	3
104	104	5
21	34	1
86	88	1
62	64	3
119	120	1
88	102	2
100	101	2
125	126	3
163	163	2
7	8	3
101	103	7
85	85	4
47	64	2
117	117	5
141	141	2
71	74	3
53	55	1
101	101	9
94	164	1
21	21	3
68	68	4
114	116	1
142	143	3
133	133	1
111	111	8
92	128	1
63	63	4
7	13	4
88	89	2
132	137	2
17	67	1
11	98	4
110	111	4
1	2	2
122	124	2
54	57	2
11	89	2
84	130	2
106	106	3
15	35	1
153	154	1
143	143	3
152	153	6
13	14	1
74	75	3
123	141	2
72	76	1
90	151	1
8	11	1
99	99	3
108	109	2
52	57	1
15	136	1
1	1	7
37	42	1
75	75	3
4	156	1
81	119	1
142	144	1
134	140	1
151	152	2
168	170	5
5	154	1
122	123	1
94	95	2
83	84	2
53	54	3
78	86	2
89	90	2
105	147	2
12	53	1
22	27	1
111	112	4
67	88	2
39	40	1
163	164	3
99	149	3
101	135	2
117	156	1
65	65	4
96	96	3
56	130	1
94	96	3
106	135	2
114	147	1
85	101	2
110	140	1
134	134	2
53	67	2
12	14	1
149	152	1
123	154	1
9	10	2
137	138	3
84	85	1
131	132	2
73	74	3
63	136	1
64	130	1
162	163	1
6	153	3
159	170	4
83	85	2
118	119	1
41	50	2
170	170	3
149	153	1
143	144	1
69	71	3
55	56	4
44	51	1
9	102	1
112	114	2
15	97	1
126	126	3
83	87	1
45	46	2
79	88	1
3	4	4
95	95	4
155	156	2
43	43	4
144	145	2
17	62	2
129	166	1
125	164	1
140	145	3
36	37	1
124	134	1
22	35	1
104	105	4
80	130	1
50	51	1
85	136	2
15	56	1
47	47	2
20	21	1
72	75	2
163	165	2
52	56	1
12	12	2
165	165	2
150	151	1
140	155	3
35	49	1
3	137	1
120	149	1
69	69	2
84	84	2
160	167	1
63	64	2
95	153	1
16	18	1
65	67	1
95	161	1
124	125	2
169	170	2
89	100	1
46	51	1
98	120	1
162	165	1
0	108	1
11	11	1
164	164	3
165	167	1
81	82	1
96	161	1
17	68	1
120	120	1
85	86	1
83	118	2
136	137	1
7	54	1
4	56	2
14	52	1
126	158	1
94	126	1
129	161	1
22	24	2
52	71	1
123	140	1
46	56	1
