34	34	17
119	119	28
106	108	3
99	99	12
4	4	28
69	69	8
20	87	3
57	63	1
52	52	12
31	32	9
92	92	7
65	65	37
21	21	16
80	81	9
3	3	10
53	65	2
128	128	12
104	104	8
77	77	36
20	21	4
57	58	8
36	36	12
26	26	25
92	93	9
53	59	2
88	88	19
63	63	19
65	118	2
135	135	5
116	116	13
120	120	11
75	76	4
121	122	6
67	67	13
5	6	2
89	89	20
117	117	26
28	43	4
54	54	8
15	15	16
131	132	9
45	45	16
107	107	12
75	75	13
3	5	1
110	110	19
16	16	24
50	50	35
20	20	17
106	127	1
64	64	27
24	36	7
80	80	22
24	68	3
60	60	6
73	73	25
6	16	1
37	66	3
84	85	11
82	82	20
106	110	1
25	26	13
76	77	3
11	11	21
123	124	5
103	103	16
77	78	8
59	61	5
70	70	24
37	37	16
1	35	4
58	119	2
124	124	21
30	32	4
26	27	7
130	131	15
102	103	9
68	68	23
29	43	5
2	8	2
2	2	21
120	133	3
98	98	17
20	22	5
99	100	2
32	32	21
14	15	7
24	24	19
29	29	19
44	83	1
57	57	15
54	59	7
36	38	1
9	9	9
43	81	1
62	64	7
129	130	9
76	76	15
129	129	24
80	86	4
127	127	14
97	97	23
112	112	16
33	33	20
58	59	1
107	108	10
27	27	36
102	104	1
2	3	3
130	130	19
29	30	11
125	127	5
56	56	19
78	79	4
0	0	8
118	118	19
125	125	12
109	109	27
3	18	1
123	127	2
10	10	23
88	89	9
108	108	20
66	66	15
3	16	3
81	81	13
53	53	18
36	64	1
74	76	2
105	105	20
48	48	12
12	12	25
11	13	2
126	126	16
104	105	3
43	82	1
103	123	1
35	69	2
111	119	2
132	132	13
61	113	4
58	58	14
3	26	2
123	123	28
21	34	2
64	65	10
90	90	19
11	14	5
116	117	1
5	5	20
60	61	4
102	102	11
101	101	20
71	119	6
121	121	14
66	67	7
57	66	2
115	115	19
95	95	16
33	92	3
87	87	21
17	18	11
48	49	7
5	17	3
61	61	19
67	68	13
78	78	17
110	113	7
71	71	29
73	75	3
109	116	2
84	84	15
10	11	4
15	16	10
31	80	2
106	106	24
133	134	6
114	114	6
94	94	38
14	97	10
12	95	2
119	120	16
120	121	1
105	106	8
82	125	1
71	76	3
60	62	4
72	72	13
69	70	9
65	67	5
108	110	6
44	45	7
47	47	2
23	24	7
30	30	10
124	125	9
52	53	4
132	133	7
95	98	1
64	93	4
13	13	24
120	132	3
31	33	1
77	94	1
14	14	25
93	93	4
62	63	9
102	111	2
28	28	20
113	113	18
6	29	6
83	83	17
98	99	13
19	20	7
27	28	7
82	83	3
86	87	6
126	131	10
18	18	18
22	33	5
35	35	12
8	8	13
97	99	5
52	55	7
85	88	3
62	66	1
1	1	14
49	49	12
19	92	5
123	134	4
114	120	3
131	131	22
25	25	24
75	103	1
72	79	2
59	59	10
111	111	10
58	60	3
55	56	2
22	23	5
85	85	16
112	113	3
113	115	7
109	110	1
28	71	1
50	52	8
96	97	7
1	2	3
31	31	21
100	101	5
30	31	9
129	132	1
94	95	13
69	116	5
72	75	2
23	23	24
96	96	13
71	72	5
79	80	7
134	134	12
5	119	1
29	31	5
42	45	1
91	91	14
17	17	5
55	55	12
103	104	8
73	80	1
83	84	4
6	15	2
107	109	5
44	85	7
33	77	4
122	122	12
12	13	5
7	7	5
38	38	1
9	28	2
6	6	11
106	107	6
89	90	12
125	126	3
14	134	2
127	132	1
62	62	8
79	79	25
35	67	2
27	65	2
38	52	1
7	8	2
77	97	2
66	68	4
18	19	2
55	57	4
4	8	2
34	36	3
100	100	15
48	92	8
44	82	5
19	19	20
44	87	3
32	33	4
77	79	1
109	115	2
45	83	2
106	115	1
90	91	4
18	35	4
130	133	2
93	94	5
45	78	2
109	114	5
74	74	22
54	55	11
22	22	16
117	118	2
100	102	1
114	116	1
42	42	4
65	105	3
44	44	14
111	112	4
36	37	6
114	118	4
4	50	3
58	113	3
86	86	15
52	62	2
0	3	4
115	132	1
6	7	4
129	133	3
19	89	2
28	70	1
3	8	3
4	52	1
26	28	3
96	121	2
53	54	2
7	12	1
33	48	5
4	36	3
110	112	3
59	119	6
72	73	3
124	126	2
65	66	6
0	135	2
43	45	2
61	62	3
81	82	5
133	133	16
71	73	1
96	120	6
55	96	1
63	64	4
21	22	3
35	114	1
128	129	6
74	88	5
5	36	8
4	19	1
1	29	3
101	102	1
0	1	3
72	80	2
43	43	9
127	128	7
35	37	1
21	25	3
15	96	1
48	58	4
57	59	3
28	81	1
19	21	5
8	9	3
43	44	3
62	111	1
94	98	3
34	35	5
14	133	1
82	85	3
55	60	5
9	10	1
84	125	3
114	115	4
97	98	3
8	27	1
73	79	3
11	12	2
50	121	4
68	118	2
77	93	2
75	79	3
3	4	4
37	60	3
95	96	2
49	50	3
16	17	1
52	78	1
63	65	1
19	117	4
24	35	2
57	118	1
83	85	1
108	117	2
1	13	3
37	45	1
16	28	1
4	5	1
37	83	1
4	18	1
34	93	2
107	117	3
82	84	2
19	86	3
109	113	2
34	115	2
12	122	1
82	86	1
19	90	1
70	111	1
0	15	2
37	38	5
37	64	2
127	131	1
64	68	2
3	29	4
58	111	1
59	60	5
74	79	1
77	120	1
98	100	3
122	123	5
77	119	1
106	111	2
68	69	3
87	90	1
105	126	1
129	134	2
105	127	2
64	66	1
24	25	2
78	82	3
67	69	2
8	26	1
110	111	3
34	63	2
42	43	2
132	134	1
134	135	2
7	26	2
126	127	2
133	135	1
13	121	2
67	118	5
78	92	1
8	52	1
43	130	1
72	81	1
108	115	2
53	55	2
21	88	1
71	115	1
42	44	1
45	81	1
72	100	1
30	73	1
70	71	1
5	7	1
35	64	1
101	114	1
61	95	2
62	113	3
0	43	1
6	18	1
29	80	2
47	48	4
61	112	4
34	69	2
116	118	1
76	79	3
54	96	1
31	91	1
127	129	1
76	80	1
12	98	1
10	12	1
106	131	1
99	101	1
106	114	1
108	116	1
61	119	1
0	32	1
64	111	1
17	93	2
73	74	1
15	97	1
91	92	2
3	7	1
122	127	1
99	133	1
62	110	1
54	121	1
77	80	1
67	110	1
102	115	1
25	36	1
85	86	1
118	119	1
111	120	1
51	52	1
