0	0	6
85	85	3
80	80	17
107	107	4
119	119	1
79	79	4
114	115	5
87	87	5
132	132	5
1	10	4
127	128	1
37	37	6
113	121	2
88	88	2
121	121	6
75	75	3
8	8	7
116	117	6
137	140	3
2	29	1
76	76	2
137	138	1
127	127	6
105	106	4
124	124	4
98	98	4
16	17	1
101	102	7
12	13	2
74	74	2
36	36	9
130	130	2
1	2	4
87	88	2
115	115	3
37	38	1
83	83	5
35	36	1
108	109	2
97	98	3
12	12	6
71	71	3
16	16	6
15	15	1
111	111	4
24	25	4
1	19	2
97	97	3
131	132	3
78	78	2
23	23	6
118	119	4
7	7	1
105	119	1
5	6	1
72	72	3
139	139	4
21	21	6
117	117	4
96	96	2
1	3	3
13	13	4
19	19	3
119	120	3
81	85	3
107	116	4
13	22	2
27	27	5
136	136	6
102	103	1
125	126	1
128	128	5
2	2	2
85	86	3
77	77	5
3	12	5
9	9	8
34	34	7
134	134	4
124	125	3
17	18	2
118	118	3
123	124	2
91	93	2
89	89	7
115	117	1
25	30	1
35	131	1
26	27	1
74	75	1
101	101	1
22	22	2
25	27	2
123	123	4
17	19	1
81	81	3
73	73	2
3	10	5
74	114	2
129	129	4
13	14	6
114	114	2
94	94	4
82	82	1
20	20	1
140	140	2
32	33	1
14	14	3
72	73	2
91	91	1
15	114	1
120	120	4
135	135	1
80	86	5
100	100	2
128	129	2
76	120	2
113	113	3
101	125	2
126	126	4
6	9	1
93	93	1
104	105	4
34	35	2
112	112	6
107	113	2
1	9	1
99	122	2
92	93	1
131	131	3
95	95	2
130	132	2
98	99	1
24	24	3
109	110	1
20	21	3
33	33	2
32	32	1
102	102	1
138	138	1
95	102	2
127	129	1
119	121	1
26	26	1
6	7	1
78	79	1
76	77	1
77	103	2
10	11	2
14	17	1
75	102	1
17	17	1
31	31	2
108	119	1
108	108	1
126	129	1
103	103	1
81	84	1
21	33	1
87	89	1
3	3	1
4	4	1
136	137	1
8	9	1
109	109	1
122	122	2
77	80	1
5	5	1
86	87	1
75	76	1
121	122	1
25	26	1
107	117	1
27	28	2
30	30	1
15	20	1
