88	97	11
81	81	29
80	80	8
48	64	2
90	90	6
63	63	16
39	57	2
79	79	17
61	67	3
50	53	6
67	68	7
74	78	6
84	84	5
65	66	14
80	87	6
40	46	2
36	36	6
36	57	2
80	89	4
45	47	6
95	100	4
25	35	3
85	85	4
38	42	4
48	48	10
62	69	1
88	101	1
52	52	4
47	54	3
29	30	5
67	67	14
41	53	1
29	33	5
76	76	14
77	81	1
86	86	12
37	48	3
70	70	11
86	87	2
86	89	2
52	54	4
56	66	4
38	38	5
61	61	10
27	57	4
99	101	4
88	95	2
64	64	5
42	51	3
24	33	1
77	77	10
71	71	8
46	60	2
25	42	4
66	66	11
89	89	7
49	50	1
38	48	3
79	86	2
82	87	1
56	56	5
35	57	4
40	41	3
70	71	12
54	56	5
54	63	3
60	70	2
54	54	6
93	93	7
40	40	6
49	49	5
79	88	2
76	92	3
66	72	3
93	95	6
80	81	5
22	44	3
70	87	1
74	76	4
26	38	5
37	38	3
35	45	2
86	101	3
81	88	2
68	68	3
39	39	7
76	82	2
33	33	4
65	72	4
76	78	5
47	47	5
73	87	6
88	94	1
90	101	3
58	60	2
86	95	6
66	71	2
74	89	4
78	79	2
85	86	2
40	49	4
27	27	6
62	62	5
83	99	9
78	83	3
65	88	2
92	99	2
41	65	2
56	71	1
69	69	9
71	74	3
56	60	3
68	71	5
102	102	2
37	40	4
92	92	12
59	60	2
44	48	2
67	73	1
51	64	1
22	25	1
25	36	2
70	74	1
62	64	5
75	76	9
62	65	1
29	43	4
34	35	2
59	59	4
51	97	2
90	102	2
75	78	1
73	88	2
66	68	8
74	74	5
46	52	3
88	93	1
91	92	1
69	71	4
80	92	4
42	54	1
70	84	5
63	69	2
36	48	1
46	57	3
67	78	4
73	85	5
24	27	2
65	74	1
73	73	7
71	78	2
54	64	2
64	76	4
64	65	6
95	95	10
97	97	4
72	72	5
32	32	1
78	89	1
38	43	3
95	96	1
24	25	1
41	43	6
71	86	1
92	94	2
75	75	8
63	77	3
89	90	2
77	86	2
51	51	4
86	88	2
60	60	2
87	97	3
66	67	1
83	83	5
42	53	2
91	94	9
35	35	1
68	84	2
71	97	1
45	45	1
94	99	4
87	88	6
61	63	1
96	96	5
23	25	2
31	32	2
45	55	3
97	100	5
48	50	3
78	81	3
74	99	1
88	91	2
70	72	2
36	55	2
25	25	6
101	101	10
49	61	1
75	87	3
61	71	6
98	102	1
52	53	5
22	34	4
84	93	6
87	87	4
50	59	1
92	93	5
52	55	1
98	98	7
37	37	4
69	87	6
84	91	1
64	72	3
54	67	1
99	99	4
40	53	2
42	44	6
79	95	2
85	97	2
38	47	4
35	38	1
73	74	2
74	81	2
45	58	2
78	78	3
68	78	3
58	58	2
71	92	4
83	90	1
97	99	2
79	82	2
68	69	1
34	42	2
99	100	1
90	91	3
94	94	5
65	68	3
89	96	2
48	49	3
72	73	1
81	82	1
37	55	1
71	76	2
90	92	1
31	96	1
70	86	4
29	34	1
68	82	3
57	61	4
58	68	1
62	63	2
38	40	2
63	74	4
72	83	3
21	25	3
68	79	2
96	102	2
37	50	3
77	78	1
66	75	2
63	71	1
68	76	3
25	27	3
91	96	3
94	95	4
67	77	1
83	100	3
23	27	2
58	66	1
45	57	1
91	93	5
61	69	2
84	85	3
70	80	4
47	58	5
68	81	1
75	80	1
47	53	2
57	70	3
75	92	3
39	64	1
65	76	10
30	30	2
67	70	1
78	92	3
43	43	3
26	26	5
27	42	1
74	92	1
57	68	1
79	81	2
28	40	2
74	77	3
85	99	3
53	78	1
71	75	1
63	64	6
89	93	3
73	83	1
43	48	2
72	85	1
69	70	4
67	72	2
69	80	1
78	84	2
67	83	1
57	69	5
64	70	1
80	97	1
70	73	5
74	75	3
65	69	2
27	29	3
40	55	2
61	86	3
69	79	3
39	52	1
65	67	1
79	80	2
23	36	1
54	66	2
100	100	3
73	75	2
76	77	2
46	53	5
48	60	1
42	42	3
69	82	2
51	63	2
22	31	1
88	89	2
54	78	1
45	46	2
34	47	1
88	88	3
80	95	4
30	43	2
31	41	2
63	66	1
84	97	2
22	26	1
62	74	1
83	94	2
66	74	1
81	83	2
29	29	3
64	71	2
47	59	2
99	102	1
65	78	1
53	55	2
69	77	1
66	79	3
44	44	2
80	88	1
80	94	4
67	96	2
88	90	1
63	65	2
61	66	2
91	91	3
23	24	1
46	69	1
61	62	1
44	45	1
97	98	1
64	74	2
73	81	2
87	101	1
58	59	1
25	26	2
50	60	2
53	54	2
80	82	1
86	92	1
60	94	1
98	99	1
95	97	1
33	45	2
76	81	1
49	53	2
41	45	3
38	53	1
25	34	1
85	90	1
47	52	2
59	61	1
53	59	3
82	82	2
75	84	1
26	40	1
67	95	1
65	75	1
75	88	2
96	97	1
59	74	1
53	53	1
41	89	1
56	57	2
73	77	1
77	92	2
43	46	2
61	68	1
83	85	1
66	77	1
84	100	1
92	98	1
20	22	2
23	31	1
68	77	2
55	55	1
71	87	1
39	45	1
63	75	1
33	41	1
32	34	1
74	83	1
66	83	1
35	44	1
86	93	1
75	86	1
58	86	1
20	34	1
95	102	1
85	93	1
