141	141	12
189	190	2
40	41	3
74	74	10
29	29	9
61	74	3
68	69	1
111	111	11
73	73	4
144	144	2
77	113	3
104	105	5
89	89	11
94	94	4
99	99	15
184	184	5
16	17	10
160	161	3
58	58	3
163	163	7
86	86	8
63	63	9
13	16	3
22	22	5
60	60	5
84	85	3
126	127	3
110	110	7
131	132	2
174	174	8
62	63	1
46	46	3
139	139	6
152	152	6
105	106	3
32	81	3
70	71	3
43	43	9
83	83	9
156	158	4
17	17	9
174	175	3
177	178	2
44	74	6
56	56	17
120	120	6
169	170	4
19	19	6
140	140	12
143	143	7
103	104	1
153	154	8
184	185	1
136	136	6
96	96	3
160	160	2
154	154	6
188	188	13
30	30	5
172	172	2
182	183	13
109	109	3
78	78	5
37	37	2
125	125	11
64	65	2
14	15	5
41	41	13
86	130	2
14	14	3
57	166	1
146	147	4
9	9	3
2	2	11
158	158	8
112	171	2
156	156	9
26	158	3
132	142	5
59	61	3
91	92	8
166	166	3
64	64	2
169	169	9
152	177	2
149	150	3
25	25	6
37	41	3
27	27	7
108	111	6
141	182	2
20	20	1
47	47	6
134	137	1
189	189	5
52	53	2
126	126	7
34	36	2
179	179	4
185	185	5
7	7	6
27	37	2
35	35	8
104	104	4
5	5	8
72	73	3
170	170	8
118	119	4
141	145	1
99	119	1
182	182	3
21	21	4
142	142	3
153	153	9
130	131	1
105	105	5
164	189	1
24	24	7
174	177	2
134	135	4
122	122	4
176	181	5
48	71	6
19	20	2
66	66	14
187	188	1
116	116	2
59	59	5
187	187	3
72	132	1
155	155	2
42	47	6
106	106	2
71	71	10
149	149	10
45	45	2
183	183	7
97	97	6
57	57	7
138	139	4
0	2	3
131	131	6
12	12	6
138	165	1
24	27	4
20	141	2
28	36	2
59	68	1
87	88	3
65	65	1
101	101	5
10	11	4
135	136	4
166	167	5
135	137	2
112	112	4
98	98	3
95	95	6
121	177	1
129	129	7
48	48	7
81	87	3
156	157	1
113	114	1
164	164	4
15	33	1
6	6	9
4	4	5
161	161	2
137	162	2
124	124	4
138	138	6
118	122	1
103	103	4
6	33	1
28	28	5
81	81	1
53	53	5
82	82	4
77	77	5
19	42	6
89	90	7
176	176	5
119	119	4
109	170	2
148	149	4
92	92	6
133	135	2
80	80	4
133	133	7
107	108	1
123	123	7
70	72	1
183	184	3
90	90	4
115	117	1
0	0	3
169	186	3
134	134	3
181	181	10
93	93	3
167	167	3
165	187	2
44	44	3
150	150	3
146	146	13
66	68	2
1	2	4
55	55	1
99	114	1
39	39	4
92	93	6
128	128	6
16	18	2
176	177	1
47	48	2
122	123	3
36	36	5
96	97	3
81	115	1
77	78	5
0	1	1
118	118	8
116	119	5
174	176	4
147	147	7
148	148	3
72	72	4
78	88	1
151	151	6
186	186	6
188	189	5
157	158	4
27	28	3
131	133	2
5	21	3
136	154	4
40	152	2
13	14	2
106	112	1
130	130	2
82	83	5
79	80	1
190	190	3
124	125	5
13	17	2
114	116	2
13	15	4
62	109	3
151	158	1
94	95	2
171	172	4
131	162	1
157	157	9
176	178	2
140	142	2
113	122	3
116	153	2
26	114	3
101	118	3
45	46	4
31	32	1
144	146	1
18	18	4
26	26	4
145	145	5
43	44	1
1	1	2
3	3	3
117	117	2
119	120	1
46	47	6
87	87	2
92	119	4
137	139	2
113	113	5
9	10	3
178	178	2
74	135	2
102	102	1
125	126	1
32	32	1
160	163	1
74	168	2
161	162	1
18	61	2
18	58	3
71	72	2
135	135	10
47	79	2
127	128	1
38	38	1
7	55	1
19	24	1
171	171	1
70	70	2
130	142	1
139	177	3
155	158	2
90	94	1
114	114	2
23	23	1
62	136	2
68	68	3
66	67	3
62	67	3
129	182	1
7	54	1
12	36	1
145	146	1
79	79	4
121	121	2
100	100	3
25	26	1
106	109	1
110	111	3
111	170	1
34	34	3
95	106	4
13	13	4
7	9	1
152	153	1
172	173	1
17	20	1
127	127	1
88	89	2
18	19	2
15	16	2
180	181	1
76	159	1
53	108	1
186	187	1
85	86	2
165	165	3
76	76	2
33	33	1
113	170	1
153	155	1
109	113	3
105	180	2
107	107	1
120	121	1
4	81	2
14	20	1
56	57	2
121	185	1
111	180	2
188	190	1
54	54	2
71	148	3
170	183	1
28	30	1
137	161	1
108	108	1
67	67	2
56	156	1
173	173	2
67	68	1
125	128	1
161	190	1
57	74	1
69	71	1
88	90	2
59	60	1
8	8	3
129	157	1
101	102	1
85	85	1
129	130	1
15	15	2
17	18	1
42	118	1
144	145	1
20	21	1
116	139	1
130	132	1
140	183	1
168	168	2
7	48	1
86	151	1
84	84	1
38	75	1
185	186	1
109	110	1
106	138	1
22	23	1
128	129	2
60	61	2
61	63	1
