96	96	6
113	115	1
48	69	1
49	49	17
80	80	2
77	77	5
126	126	12
95	95	22
64	65	11
0	11	3
1	2	3
85	86	3
74	74	6
9	15	3
57	57	5
93	94	7
130	130	2
102	102	12
90	90	2
123	138	4
141	141	12
78	79	5
129	129	3
81	81	8
88	97	5
56	56	8
128	133	3
37	37	8
90	94	2
116	116	4
55	55	8
140	141	3
54	55	2
68	68	16
53	53	21
25	25	5
22	22	16
58	58	11
125	125	6
71	72	3
89	89	7
38	38	24
29	41	3
15	15	9
60	60	7
65	65	10
123	123	5
107	113	4
21	23	4
34	34	10
4	4	11
116	117	4
82	90	2
13	13	5
116	141	2
73	74	5
63	63	7
89	138	2
124	131	1
104	104	12
1	8	5
76	76	8
77	99	2
130	134	1
60	61	6
97	98	7
142	142	8
103	103	7
63	64	3
144	145	6
15	18	2
58	59	5
41	41	13
140	140	13
90	92	9
22	26	2
100	100	15
66	67	3
112	114	2
87	88	6
2	20	1
91	91	6
3	4	5
22	30	2
18	30	4
93	93	22
121	121	3
32	32	9
54	56	5
6	6	14
102	103	2
58	79	2
64	64	8
21	22	4
24	24	15
3	3	6
87	134	6
75	121	2
35	35	4
105	136	3
53	54	8
34	41	3
88	138	1
73	73	12
34	43	4
104	105	3
40	40	11
30	30	8
84	84	20
138	138	8
39	39	10
146	146	1
87	90	5
72	72	6
142	143	4
90	91	2
105	105	8
127	127	3
43	43	6
31	31	7
72	97	2
117	118	4
47	49	1
63	67	1
75	105	8
13	14	10
94	95	4
72	144	1
111	112	9
78	82	4
139	139	5
29	29	9
139	140	4
34	74	4
21	21	3
62	65	3
14	14	3
105	131	7
35	37	6
92	92	7
20	21	7
57	59	2
59	60	2
42	42	5
54	54	14
20	20	9
88	88	4
52	76	1
132	132	8
109	110	5
55	58	1
112	112	4
69	69	8
87	87	5
39	47	13
96	97	9
71	71	9
17	42	1
67	68	1
85	85	9
131	137	6
64	70	3
120	141	1
111	114	4
70	86	1
120	120	9
61	61	3
26	55	1
70	70	8
134	139	1
52	52	9
140	143	5
64	67	2
11	27	3
67	67	5
32	37	4
49	50	5
23	25	3
118	120	3
35	36	3
66	66	1
83	111	1
19	24	2
78	78	3
1	1	13
134	134	7
6	31	1
9	9	6
8	26	3
131	131	3
94	94	4
87	89	6
114	118	3
79	79	4
36	36	6
97	97	2
48	48	15
82	82	5
111	111	7
50	52	8
28	28	7
124	124	8
129	130	5
85	132	3
2	2	4
27	38	2
119	141	2
11	11	9
80	138	3
0	1	5
115	115	2
98	99	3
112	136	5
137	137	9
122	123	9
110	113	3
17	17	10
122	122	8
106	133	1
50	50	8
68	79	5
85	140	2
115	116	3
106	106	3
125	131	1
110	111	2
19	20	2
4	51	4
27	35	4
13	33	3
92	93	2
70	100	1
5	5	4
18	19	6
99	115	6
61	70	2
59	59	8
27	27	1
12	12	2
33	33	6
65	66	1
62	62	1
118	142	2
14	15	5
46	50	1
105	106	1
107	112	6
8	8	3
19	19	11
52	56	3
122	142	3
107	107	6
128	131	5
61	64	2
33	55	2
110	110	8
99	118	2
51	51	8
23	23	5
47	47	2
114	114	2
0	9	1
130	131	3
53	56	1
96	139	4
144	144	2
1	11	1
115	117	5
90	111	2
77	78	5
81	82	1
120	123	5
30	102	2
47	58	1
51	52	3
145	145	5
33	35	1
10	10	3
28	29	5
22	23	7
143	143	5
26	26	2
15	16	1
0	39	5
42	43	2
70	71	1
28	30	2
117	117	1
73	121	1
130	137	3
100	105	1
55	77	1
3	6	2
128	129	2
61	62	5
16	16	2
58	88	1
105	121	2
106	110	1
113	121	2
114	116	1
86	130	1
101	101	7
57	58	2
16	37	1
59	61	1
32	35	1
87	103	2
37	38	3
83	89	1
70	72	1
47	55	1
121	123	5
136	136	2
82	124	2
82	122	5
91	100	1
127	129	3
134	140	3
132	133	6
49	58	2
0	0	3
85	131	2
108	110	1
83	88	1
25	106	1
74	108	1
117	144	1
104	106	3
99	99	1
118	119	5
47	52	3
119	120	1
1	6	2
4	53	2
59	89	2
63	68	1
2	21	2
111	120	2
12	13	2
87	137	1
73	82	1
83	85	1
107	108	3
125	138	2
98	98	1
31	39	2
132	135	2
30	31	1
136	144	3
108	108	3
84	90	1
8	9	2
88	111	1
14	20	2
80	99	1
95	96	2
18	20	2
4	5	1
113	113	3
3	18	1
5	50	2
72	99	2
135	137	1
126	127	2
55	57	2
69	70	2
73	105	1
98	145	1
70	99	1
9	10	2
138	143	3
104	135	1
133	133	2
38	50	1
75	75	2
110	112	1
29	36	1
135	135	1
121	139	1
41	54	1
47	67	1
65	70	1
42	96	1
88	135	1
54	78	1
6	36	1
135	136	2
92	97	2
125	132	2
33	40	1
86	125	1
58	76	1
56	66	1
78	98	1
119	119	2
59	64	1
130	132	1
2	14	1
84	87	1
88	89	1
