53	53	16
16	28	4
8	9	8
70	70	12
79	79	21
13	13	20
63	63	20
50	75	1
20	21	11
89	89	7
31	69	2
49	50	5
10	10	12
47	87	5
85	85	17
47	48	20
61	61	24
67	67	14
69	85	6
4	4	15
64	64	10
47	47	16
82	82	15
2	2	18
82	83	8
27	27	18
28	28	13
17	17	2
51	53	5
66	66	14
59	59	14
56	56	19
73	73	15
75	79	1
49	66	6
34	34	7
77	80	4
3	3	14
14	22	1
48	57	3
65	77	1
72	72	12
26	27	5
7	8	10
62	63	8
24	24	23
9	9	11
17	33	2
47	56	3
21	22	8
75	75	13
22	22	8
78	86	2
31	31	6
6	9	2
11	12	4
56	66	5
50	84	6
65	65	16
21	21	27
88	89	6
10	25	8
57	57	22
84	84	16
70	86	2
50	50	22
49	49	11
17	53	2
14	53	4
52	52	15
14	14	22
68	68	13
79	81	2
52	54	3
74	74	10
50	51	5
68	69	8
74	75	8
86	86	9
30	30	18
87	87	15
50	55	2
20	20	4
27	28	6
24	25	3
63	65	4
78	79	5
0	0	25
62	62	8
79	80	4
23	23	16
19	20	7
1	1	3
83	83	6
33	33	4
77	77	16
68	70	2
46	70	3
67	68	3
53	85	2
75	76	5
23	31	3
81	83	1
15	15	5
76	77	2
26	26	2
10	12	2
56	57	9
69	69	8
23	27	2
1	2	4
49	55	7
55	66	7
60	61	6
8	8	8
35	35	4
29	29	14
19	19	11
5	5	21
63	64	5
18	23	1
71	85	3
23	66	1
23	26	2
51	51	16
23	24	5
12	12	14
15	16	2
57	66	2
28	29	1
22	24	2
80	80	6
54	54	10
83	86	4
71	71	10
76	76	8
47	59	1
57	58	2
61	65	2
29	85	3
58	62	2
54	63	4
66	84	5
58	59	1
48	49	7
55	65	1
72	73	6
54	66	2
72	74	1
18	18	2
55	64	2
46	58	4
54	65	4
50	54	3
7	23	1
5	19	1
11	11	8
78	78	8
86	87	8
60	60	4
6	6	3
55	55	13
20	54	4
22	25	5
21	55	1
48	58	2
12	13	5
90	90	2
74	88	2
4	27	4
19	22	3
6	31	2
25	27	3
47	50	1
77	81	4
8	82	3
71	73	5
25	25	9
12	51	3
52	64	3
6	7	4
4	31	1
17	60	1
58	58	3
29	30	4
51	52	2
59	60	2
47	58	2
46	46	1
50	70	3
26	31	1
87	90	1
32	65	4
9	10	2
53	54	1
46	47	3
55	56	2
78	83	2
6	12	2
9	31	1
11	27	2
5	13	2
19	55	2
4	5	1
80	82	2
5	6	3
81	81	5
78	85	1
7	7	1
48	64	1
6	8	1
53	63	1
51	84	3
84	87	1
69	70	2
24	31	4
87	89	2
9	81	1
58	60	1
83	84	1
16	60	1
16	17	1
88	90	1
52	53	2
61	62	4
66	67	1
85	86	1
7	24	4
14	23	1
23	25	1
62	83	2
70	72	1
76	79	4
12	19	1
65	83	1
0	1	1
16	88	1
63	81	1
14	30	1
