53	54	9
58	58	7
55	119	3
114	114	2
36	36	4
114	115	2
87	87	11
93	93	10
134	134	9
105	105	11
119	120	1
52	52	8
74	75	5
34	34	7
144	144	9
4	6	1
86	133	2
109	109	3
106	106	10
136	139	2
123	123	4
73	73	19
38	38	3
31	32	4
142	142	3
109	111	4
64	65	1
19	19	8
22	22	9
42	60	3
13	83	3
37	37	5
4	47	1
138	138	8
8	8	6
94	94	5
64	66	3
48	49	4
48	94	4
127	127	8
71	112	1
10	10	3
51	52	7
80	114	6
6	6	2
102	102	6
57	57	6
6	50	2
134	138	5
20	31	5
54	54	8
131	131	3
113	113	4
53	53	8
82	91	2
112	114	2
133	133	9
18	18	1
21	21	5
17	17	9
75	76	1
66	66	2
103	104	6
14	15	3
98	98	5
1	1	3
83	84	3
41	41	6
16	16	9
2	12	2
136	136	2
35	43	4
110	110	10
1	2	8
27	27	9
5	5	4
132	135	3
1	9	4
8	9	8
106	107	4
89	89	2
102	103	3
32	32	6
17	61	3
49	57	4
41	96	3
74	74	5
141	141	8
13	56	7
4	12	6
49	49	1
69	70	5
6	14	3
20	20	11
60	60	3
22	23	4
31	76	2
34	96	3
127	128	1
14	16	3
105	106	2
52	53	1
95	95	10
31	73	1
26	27	2
30	113	3
135	139	2
128	130	2
88	88	5
47	88	2
62	62	8
131	140	4
104	104	5
71	71	9
4	5	5
17	22	4
96	96	12
80	109	1
135	135	14
97	97	3
6	49	3
110	116	1
82	82	2
23	43	1
125	129	1
68	68	4
26	26	5
130	133	1
92	92	4
51	51	4
124	124	7
30	30	4
68	97	5
11	11	1
84	108	2
59	59	4
23	41	2
47	90	2
63	63	1
89	90	1
142	144	5
11	27	3
121	121	5
115	115	4
78	78	5
14	14	2
110	114	1
70	97	4
124	133	2
72	97	2
124	128	1
107	107	3
12	14	5
67	67	9
142	145	1
17	25	4
42	42	12
10	17	2
3	35	5
50	50	2
89	93	3
35	35	5
2	3	1
11	25	1
3	3	5
119	119	9
17	41	1
116	116	2
57	99	2
103	103	5
39	40	2
18	25	2
100	101	1
47	47	5
28	28	3
19	40	7
76	84	1
133	134	2
117	117	3
22	48	4
77	77	2
82	141	1
72	72	5
118	119	2
125	125	7
85	85	7
81	81	2
76	76	2
103	117	1
48	48	9
13	108	7
63	67	1
93	94	4
103	135	1
55	55	3
64	64	8
58	59	1
32	62	3
20	23	3
143	143	2
73	112	2
127	140	2
47	89	1
32	33	2
132	132	2
68	69	3
108	108	4
16	51	2
40	40	7
65	65	1
56	56	3
129	129	14
5	74	3
82	108	2
137	139	2
141	144	1
89	99	3
101	102	4
136	137	5
128	129	3
75	75	2
33	34	3
20	33	2
135	138	4
40	41	1
4	43	1
41	42	7
2	35	3
31	65	2
50	51	2
101	101	4
139	139	5
41	60	2
0	9	2
39	41	1
56	72	1
24	96	7
29	29	1
129	140	1
99	99	4
76	79	3
81	126	1
69	141	3
101	146	2
14	51	4
13	33	2
69	118	2
118	118	1
98	99	1
127	129	1
8	59	1
22	57	2
133	135	4
79	80	4
3	12	3
24	24	3
80	110	3
142	143	4
10	95	1
0	0	5
5	6	3
90	90	2
71	97	1
105	122	1
10	96	4
77	116	1
70	70	2
73	76	2
20	21	2
140	140	2
31	75	1
18	33	2
115	116	1
116	117	1
138	139	3
112	112	1
30	141	1
70	71	1
27	28	1
28	69	1
122	136	1
42	59	2
86	103	1
52	55	2
128	133	1
131	137	1
26	61	2
109	130	2
25	62	1
112	113	2
49	50	2
68	145	1
70	118	1
26	62	1
18	28	1
111	111	1
104	106	1
23	23	2
120	121	1
59	60	1
5	13	3
125	126	1
113	115	1
0	3	2
145	145	1
12	43	1
126	126	1
73	74	1
103	105	2
55	84	1
71	72	1
19	20	2
53	55	2
88	90	2
61	61	1
72	95	1
17	18	1
13	79	3
0	1	1
77	82	1
37	38	1
9	17	1
10	42	2
31	31	1
46	46	1
100	100	1
91	91	1
130	130	1
108	120	1
24	95	1
102	104	1
48	99	1
