62	63	4
186	215	2
96	116	3
184	184	4
84	84	3
85	85	2
199	199	7
163	169	2
39	39	5
229	234	4
159	159	4
50	92	1
231	231	10
27	27	5
160	160	2
88	88	2
109	109	4
89	92	2
47	47	4
112	112	10
29	30	5
164	164	8
152	152	3
20	31	3
23	23	5
17	19	2
196	209	4
108	108	1
81	82	3
247	247	4
167	167	2
43	43	4
163	164	6
45	46	1
175	178	1
242	247	1
81	81	9
94	94	1
90	90	1
68	71	1
210	210	2
201	204	3
156	156	5
86	86	6
113	113	6
174	174	6
144	150	1
168	168	3
114	114	8
18	18	2
0	1	1
170	170	6
6	6	4
57	57	2
95	155	4
49	87	1
15	34	2
173	174	2
151	153	2
70	70	4
227	227	3
15	165	1
208	208	4
111	111	9
214	214	1
144	144	2
41	164	1
38	39	2
66	66	3
193	193	2
22	22	4
97	98	3
162	162	3
61	61	5
46	90	3
26	26	4
183	183	2
95	95	5
12	12	2
175	175	2
197	197	8
198	198	8
15	18	1
145	145	2
173	173	4
239	239	3
195	195	2
29	29	4
96	96	1
182	184	1
69	70	2
86	88	2
237	237	2
211	211	1
193	226	4
30	30	1
168	169	7
154	154	7
209	209	14
49	49	4
236	236	2
62	64	2
106	107	2
42	163	2
118	170	2
203	203	3
73	73	3
24	24	2
31	31	2
207	207	2
10	10	3
100	100	6
17	17	4
235	238	1
220	220	3
46	46	2
48	48	2
176	176	2
231	248	2
110	110	6
210	211	1
232	233	3
237	238	2
165	166	3
189	189	3
147	147	3
194	196	4
68	68	3
229	229	4
21	21	9
153	153	1
177	177	2
76	109	2
7	8	1
230	230	6
43	167	1
226	226	2
212	212	3
4	165	5
151	151	7
243	247	2
65	65	4
9	9	3
29	31	5
217	217	3
227	228	2
22	23	2
3	7	3
182	182	6
52	65	1
226	227	3
87	87	4
188	210	1
44	45	5
11	11	4
64	65	3
104	104	2
212	213	2
215	217	3
101	101	1
67	67	3
187	187	3
216	216	3
168	170	3
70	71	3
207	208	1
14	14	3
230	231	1
213	213	5
82	82	4
55	55	2
215	216	1
105	106	3
104	107	1
12	164	4
119	119	3
209	210	2
171	171	1
171	172	2
206	206	2
57	58	1
164	169	2
167	168	3
76	77	1
28	29	1
169	169	1
44	44	1
19	19	3
164	165	1
180	180	1
92	154	3
79	79	2
202	202	2
8	9	1
97	97	4
238	238	1
78	78	6
225	225	5
163	163	3
7	7	1
197	198	5
106	106	1
15	35	2
32	32	4
100	160	2
238	239	1
232	232	1
208	209	1
53	53	1
5	6	2
241	241	2
228	229	1
78	79	2
155	155	2
25	25	1
58	58	3
211	212	2
242	242	3
244	244	4
2	3	2
172	172	1
188	189	1
56	56	1
200	200	4
33	33	2
51	51	1
84	85	1
235	235	2
64	64	1
118	173	3
60	159	1
157	162	2
200	201	3
192	195	1
99	99	1
62	62	2
190	192	1
14	39	1
92	93	1
79	80	1
183	184	1
38	38	2
193	194	2
187	188	1
180	211	1
37	37	1
116	116	3
86	87	1
162	172	1
246	246	2
214	215	1
162	171	1
12	39	1
17	234	1
181	213	1
77	78	1
47	90	3
34	34	2
70	84	1
117	119	1
105	108	1
92	92	1
20	20	1
90	153	1
89	90	1
118	118	4
63	64	1
192	192	1
221	221	3
60	60	1
60	158	1
175	176	1
205	205	2
245	245	1
116	117	1
230	234	1
237	241	1
1	1	1
186	186	2
18	35	1
196	197	1
239	240	1
16	16	1
89	89	1
181	181	1
207	225	1
107	107	1
179	212	1
93	93	1
224	224	1
40	40	1
42	42	1
