55	55	6
95	107	3
35	36	3
81	81	4
129	130	4
134	134	11
145	153	1
116	116	3
109	110	8
33	34	9
3	3	12
30	30	18
79	92	2
39	44	5
99	99	16
77	77	21
79	81	1
85	85	16
90	90	10
12	12	8
83	84	5
104	104	14
67	67	5
44	44	18
122	122	11
137	137	8
148	148	8
104	105	3
130	130	6
157	158	1
1	1	20
51	52	7
18	19	2
30	31	4
67	70	4
123	124	3
45	45	14
111	111	4
34	34	7
26	26	21
95	96	3
90	91	7
153	154	4
14	38	2
23	24	10
121	121	5
44	156	1
11	37	1
153	156	4
114	114	9
51	51	13
93	93	7
89	90	5
150	150	11
72	99	2
20	21	4
9	9	2
18	18	16
105	105	13
8	22	2
54	55	1
63	63	13
106	106	10
24	139	5
68	70	2
139	139	17
141	149	2
113	113	6
82	86	4
78	78	4
111	112	5
112	112	9
12	13	2
152	152	10
91	92	10
69	69	8
92	92	16
43	77	1
31	38	1
27	27	9
5	5	11
123	123	18
10	49	6
83	83	14
43	43	11
22	23	5
72	72	5
11	41	4
7	7	14
127	148	1
86	86	6
15	46	3
111	113	4
75	75	8
36	36	10
1	44	1
141	142	6
68	68	14
102	102	3
21	21	9
84	84	9
138	138	10
28	28	13
8	8	8
21	37	4
50	55	1
47	47	15
46	46	7
97	97	10
98	98	7
120	120	9
15	18	4
6	6	10
79	80	1
142	143	3
136	136	7
50	50	3
151	151	7
66	66	7
19	19	17
17	46	1
131	131	11
138	141	3
70	70	12
103	104	3
38	38	7
88	88	2
158	158	7
65	66	3
89	89	5
11	11	6
157	157	7
79	79	10
15	47	2
18	22	3
143	143	5
100	100	8
140	140	6
67	69	1
6	29	1
53	55	3
49	49	9
156	156	5
15	15	6
18	47	8
149	152	2
87	87	10
52	52	9
81	117	3
146	147	11
14	14	4
34	37	1
125	125	6
131	133	7
79	134	1
5	89	1
39	39	11
94	94	11
128	137	1
82	82	3
140	157	2
138	157	3
29	29	14
78	125	6
20	20	10
80	80	14
88	116	1
135	135	12
95	95	10
128	128	11
107	107	9
54	54	7
147	147	5
71	72	4
18	20	3
112	113	2
66	77	1
44	91	7
64	98	2
127	127	12
36	37	5
133	134	3
3	4	1
33	33	3
108	109	2
115	115	3
147	156	1
117	117	15
29	30	4
2	2	13
35	35	2
115	116	1
4	5	2
80	81	2
137	138	4
24	25	2
119	119	3
71	71	7
37	37	9
111	114	1
141	141	11
63	81	2
101	102	1
7	14	4
110	110	4
75	76	1
40	41	6
129	129	12
101	101	13
16	16	15
9	11	2
155	155	2
38	47	4
100	101	1
53	53	1
102	103	5
91	91	11
23	23	9
4	4	8
144	147	1
48	48	7
45	46	6
123	126	2
127	128	3
120	121	1
1	2	4
149	149	6
10	10	2
38	39	7
70	71	3
38	107	1
134	135	3
64	116	4
72	73	2
10	11	6
41	41	12
154	154	6
35	50	1
96	96	11
75	77	3
76	91	1
48	49	3
21	48	1
0	0	14
37	64	2
93	94	1
77	78	4
115	117	2
129	132	1
103	103	8
53	54	8
124	124	9
152	156	1
39	40	2
11	15	1
129	139	3
80	82	2
11	12	3
18	44	2
81	82	2
65	65	7
101	129	1
24	26	3
25	25	7
24	24	11
140	148	1
132	155	2
119	120	4
127	150	1
18	46	2
73	73	9
44	47	1
126	126	6
144	145	6
19	21	1
34	45	2
22	22	4
19	20	2
139	140	4
78	79	2
7	8	3
113	115	3
122	125	1
32	32	8
153	153	2
14	39	1
138	139	3
117	118	1
53	107	3
116	124	3
28	29	3
109	111	1
56	56	3
88	90	3
20	23	1
133	133	3
83	95	4
137	142	1
67	71	1
83	91	2
7	51	2
130	131	2
40	40	8
46	52	2
64	64	1
128	139	1
31	33	2
118	118	7
122	124	1
132	133	1
144	144	6
35	42	1
109	156	1
46	47	1
25	26	1
154	156	2
34	54	3
5	6	1
108	144	1
30	44	2
23	36	1
104	112	1
150	151	3
108	108	4
31	32	1
94	113	1
12	30	3
19	33	4
11	44	1
3	133	2
88	89	3
132	132	7
44	45	2
17	17	10
34	35	3
61	64	2
142	142	2
78	139	1
123	143	1
16	17	3
42	79	5
36	48	3
107	108	1
133	140	1
32	33	2
124	126	2
10	36	2
136	156	2
149	150	1
21	22	1
148	149	7
50	53	4
109	109	1
13	13	3
37	38	3
6	74	1
20	22	1
114	115	3
124	125	2
75	127	1
13	14	1
152	153	1
28	33	1
101	103	3
128	155	1
90	92	3
112	123	1
71	79	1
20	47	2
6	7	1
77	79	1
57	57	2
103	117	1
8	39	1
42	42	3
135	157	1
113	114	1
158	159	1
142	145	3
140	141	7
84	85	3
128	129	3
151	152	1
64	106	1
156	158	4
38	46	1
11	147	2
4	34	1
22	36	2
99	100	3
112	152	1
131	151	2
135	149	1
147	148	1
6	54	2
56	104	1
126	148	2
93	95	1
51	53	1
81	87	1
99	108	1
24	27	1
92	94	1
12	29	3
135	142	1
54	97	1
47	48	1
35	49	1
87	91	2
145	145	2
121	122	3
105	139	1
50	56	2
6	39	1
79	116	1
29	31	1
6	94	1
87	107	1
137	157	1
9	10	2
73	75	1
120	123	1
69	132	1
18	45	1
96	97	1
24	36	1
110	156	1
111	122	1
56	150	1
2	6	1
69	70	1
31	31	1
2	3	1
20	27	1
154	155	1
106	130	1
102	107	1
62	116	1
39	156	1
143	153	1
