22	22	1
25	25	3
163	168	4
133	134	2
12	12	1
158	159	2
164	164	6
102	102	15
190	190	4
147	155	9
177	177	3
185	185	5
125	125	2
53	53	3
118	122	2
57	57	7
130	130	5
12	34	2
134	137	1
126	126	9
43	86	3
160	160	7
0	0	3
173	173	6
146	148	2
158	169	1
90	91	5
141	176	1
72	100	6
17	17	2
186	186	5
150	151	2
16	42	4
46	47	1
101	102	1
153	153	8
67	67	6
85	86	4
103	135	3
129	129	6
124	124	3
145	146	1
107	107	1
77	77	3
61	61	4
108	109	1
174	174	4
180	181	7
63	63	2
18	18	5
150	150	9
115	115	5
91	190	3
189	189	1
12	22	3
88	88	1
133	133	3
187	187	7
58	58	6
136	137	1
4	4	3
84	84	1
90	90	4
138	138	5
144	146	3
38	38	4
117	117	4
149	149	3
166	166	10
72	72	5
102	104	3
178	178	6
152	154	2
142	142	3
13	14	2
113	113	2
56	57	4
17	18	3
170	170	3
98	98	1
3	3	5
184	185	3
54	61	1
165	165	1
101	101	1
76	76	8
77	127	5
96	99	4
5	5	5
59	60	6
132	132	3
96	96	1
120	120	1
176	177	4
72	131	2
128	128	2
33	33	1
183	183	11
145	145	2
94	94	1
27	27	6
6	7	2
117	120	1
26	26	1
159	169	5
70	70	3
141	141	3
182	183	1
61	63	1
93	94	1
105	105	2
74	74	3
147	147	2
106	184	4
148	155	6
21	21	1
167	168	3
152	168	2
37	61	1
53	54	1
175	177	3
93	95	1
31	33	1
83	83	2
97	98	5
89	89	1
73	133	3
138	170	1
155	155	5
151	151	6
91	91	3
122	123	2
67	68	2
75	131	1
90	92	1
167	167	2
109	109	5
174	176	5
42	42	1
118	118	2
119	120	2
149	150	2
86	86	1
143	147	2
13	15	2
39	39	2
104	104	5
123	123	3
81	82	1
139	139	3
156	156	2
186	187	3
134	134	2
1	1	2
58	59	1
12	14	2
105	108	2
116	118	4
12	24	1
113	185	3
34	34	2
163	163	1
97	97	1
184	184	2
9	9	1
176	176	2
171	172	1
62	62	2
130	162	1
100	111	1
95	96	2
119	119	2
159	159	3
168	168	1
101	107	2
22	27	2
2	2	1
114	185	1
31	31	2
181	181	1
72	92	2
37	38	1
22	52	1
179	180	1
148	154	1
59	59	1
66	67	1
106	106	1
86	87	2
79	79	1
87	87	3
39	40	2
24	24	2
20	20	1
55	55	1
10	10	2
157	157	1
15	15	1
37	37	2
100	102	2
22	23	1
100	190	2
41	41	1
121	123	1
12	28	1
95	95	1
57	62	1
92	101	1
116	119	1
26	27	1
