68	68	9
74	74	3
40	44	2
20	22	1
88	88	28
33	38	5
36	45	6
80	80	26
86	88	5
34	69	5
67	67	13
69	73	4
69	69	16
37	38	3
76	76	16
70	71	2
51	85	3
57	57	4
50	96	3
94	94	7
74	77	2
78	78	14
45	45	8
100	100	7
58	95	1
34	34	4
44	45	1
91	91	8
36	36	12
71	101	6
85	85	11
44	44	4
38	38	5
92	93	5
50	50	9
33	33	3
35	40	2
62	62	7
70	70	11
22	38	7
73	73	16
35	45	4
56	56	8
95	95	4
78	98	1
35	39	4
87	87	12
32	69	3
77	78	3
79	79	14
77	77	20
101	101	6
20	73	4
75	75	12
83	83	14
48	48	2
53	53	4
54	97	1
52	56	2
63	63	21
30	30	2
96	96	10
25	47	1
54	54	6
83	85	3
70	72	3
61	61	16
22	22	5
72	93	2
26	34	1
55	55	3
89	89	23
79	80	2
64	64	11
65	65	15
67	68	7
33	34	2
45	91	2
72	72	4
56	96	1
43	43	1
73	74	1
21	22	1
75	76	8
86	87	6
63	64	4
97	97	11
41	41	3
35	35	7
20	39	3
66	66	13
23	25	2
71	100	3
49	49	2
94	97	3
71	71	4
42	42	4
74	95	2
68	69	1
52	66	5
54	84	3
53	58	2
23	40	5
46	46	3
90	90	4
58	58	5
71	74	1
82	82	3
26	27	3
81	81	7
81	82	3
23	24	3
61	62	11
73	75	2
80	81	6
53	95	4
48	97	1
52	52	8
31	32	5
52	69	4
57	59	1
99	99	3
93	93	3
39	39	7
60	61	5
28	28	2
84	84	6
50	57	1
47	98	1
65	66	6
88	89	2
54	95	2
58	59	1
78	93	1
66	85	3
26	26	3
55	95	3
61	100	1
22	46	3
57	96	1
91	92	2
59	75	6
45	59	5
24	24	2
29	29	1
69	70	2
44	91	2
48	58	3
25	25	6
53	55	9
24	53	1
87	88	6
48	98	1
69	92	3
60	74	1
33	47	1
60	60	4
75	77	1
58	98	1
34	98	3
86	86	4
88	95	3
51	57	1
41	42	1
56	57	3
70	100	1
75	83	2
36	37	1
59	59	3
35	36	1
68	74	2
39	46	2
67	92	3
42	44	1
70	98	1
52	85	2
74	75	3
27	27	3
72	99	1
20	46	2
21	73	2
95	96	3
71	75	1
49	96	3
37	37	1
64	66	1
98	98	1
92	92	3
20	47	1
23	38	1
30	35	1
29	89	1
54	56	1
22	23	1
69	76	2
42	43	1
47	77	1
