96	156	2
179	179	6
35	45	1
108	122	2
157	157	10
14	14	6
51	51	3
145	146	2
66	66	3
156	168	4
151	151	7
41	41	8
118	166	2
78	79	4
43	44	1
58	61	2
111	111	2
111	112	2
155	156	3
64	64	3
120	122	2
116	117	3
137	137	11
138	138	4
6	8	2
96	155	2
141	142	7
96	96	2
158	158	8
146	146	4
18	21	1
126	155	3
1	1	1
156	156	4
105	105	3
23	23	2
108	116	3
95	95	1
130	130	1
16	16	3
169	169	3
132	132	10
32	32	4
143	144	1
2	3	4
100	100	1
174	174	3
149	149	4
37	37	3
116	116	3
106	106	2
25	25	1
127	127	1
53	53	1
153	179	2
165	166	3
87	87	3
75	76	3
88	88	2
153	153	6
59	137	5
103	103	7
154	154	2
72	179	4
111	118	2
98	168	3
71	141	4
146	157	1
143	143	3
152	152	2
134	136	4
33	33	7
38	42	1
65	66	2
66	128	1
133	134	4
26	26	2
72	72	5
64	83	1
30	31	1
38	38	4
163	163	4
150	150	1
155	155	3
171	171	5
37	38	1
102	102	2
160	160	5
14	19	3
164	167	5
82	82	5
11	12	2
63	68	2
157	169	1
62	62	4
170	170	3
49	81	1
114	114	2
60	60	3
159	159	2
134	134	2
55	55	1
135	151	1
133	133	2
106	139	2
16	23	2
12	12	3
151	153	5
50	81	5
140	140	1
16	18	4
106	112	2
148	148	3
83	90	2
139	139	4
84	85	3
77	112	2
94	94	4
168	169	4
124	124	5
141	143	1
11	13	2
84	86	2
51	52	3
80	121	3
167	167	2
63	135	1
56	56	4
97	161	1
178	178	5
105	106	4
18	18	1
123	123	9
138	139	1
112	112	6
89	89	3
77	77	3
72	146	1
57	58	1
5	5	3
7	7	3
148	149	2
35	35	3
63	65	1
98	98	2
31	144	1
140	141	3
112	114	2
126	129	2
131	131	4
65	65	2
86	86	3
59	132	1
135	135	3
129	132	1
74	148	1
104	104	3
29	29	1
144	144	2
54	55	1
91	164	1
19	19	4
28	54	1
113	113	1
13	13	2
3	3	3
42	42	1
94	107	4
161	166	2
16	21	1
81	81	3
176	176	5
32	33	4
31	31	3
148	170	1
161	161	3
90	90	6
10	43	1
39	41	4
126	126	1
162	162	1
96	97	2
139	149	1
175	176	3
97	132	3
103	106	1
4	5	2
108	115	3
167	168	4
80	80	3
141	141	2
67	132	1
78	78	2
170	171	2
120	120	3
161	167	2
2	8	1
149	162	1
97	97	3
100	109	2
154	180	1
38	39	2
135	156	3
122	122	2
44	44	3
91	100	2
125	125	1
151	152	1
52	86	3
81	82	3
6	10	1
160	161	3
39	39	1
24	24	2
10	10	3
99	101	3
164	166	1
171	176	1
12	13	2
157	158	1
128	128	2
100	123	1
24	37	1
16	35	1
54	54	2
15	15	1
20	20	1
166	167	1
157	159	1
7	8	1
150	153	1
87	88	1
55	56	2
142	142	1
11	11	2
73	73	1
121	122	1
35	36	2
20	21	1
43	43	1
58	100	1
0	0	1
147	147	2
137	138	2
16	17	2
108	108	1
98	154	1
172	172	2
125	155	2
20	23	1
15	18	2
28	29	3
59	135	1
81	121	1
79	79	1
25	29	2
177	177	1
23	24	1
118	118	2
131	132	1
74	74	1
21	44	1
90	134	2
161	173	1
11	19	1
30	32	1
127	131	1
80	81	1
9	10	1
16	61	1
17	18	1
142	143	1
64	65	1
45	45	2
128	130	1
116	126	1
4	4	2
168	168	1
103	105	2
17	17	1
36	145	1
57	57	1
29	129	1
72	73	1
175	175	1
31	32	1
