109	110	8
38	38	5
138	138	5
112	112	1
111	123	3
8	8	5
52	52	2
31	32	1
95	97	2
82	82	4
92	93	1
28	132	1
133	133	2
31	33	2
124	125	4
81	81	7
106	106	9
66	66	2
40	97	3
113	113	3
11	12	2
85	86	3
99	99	4
98	99	4
47	47	3
54	54	2
28	28	10
16	16	3
122	122	3
140	141	3
127	127	8
150	150	1
31	31	4
30	30	3
39	39	8
48	48	5
114	114	4
84	86	2
85	119	4
93	93	6
47	48	2
42	42	5
119	119	2
113	119	4
44	44	2
134	135	2
65	65	8
36	52	3
93	94	3
69	69	3
21	22	2
18	18	5
88	88	3
40	40	2
37	37	2
139	140	3
85	85	5
87	87	2
91	91	7
17	17	7
20	20	6
17	20	2
40	43	5
140	140	1
73	73	4
9	17	1
25	28	2
131	132	3
113	114	2
36	36	4
72	72	3
27	28	3
89	89	2
35	35	6
86	86	3
40	86	2
142	143	2
115	115	5
41	41	2
83	83	7
155	155	4
32	32	1
134	134	2
35	37	1
116	116	4
156	156	2
25	26	1
101	101	3
151	152	1
40	41	1
36	37	1
9	11	1
71	71	4
134	158	1
9	9	1
95	95	3
143	145	1
23	23	2
149	149	3
134	148	1
3	3	1
108	108	2
89	90	1
22	23	1
3	4	2
96	96	2
72	99	4
100	100	4
75	130	1
68	68	1
154	154	4
39	43	2
133	135	1
146	147	2
125	125	1
11	11	6
7	7	3
55	56	1
154	155	1
123	144	2
132	134	1
149	155	1
33	37	1
120	120	3
22	22	3
62	62	1
117	118	1
86	89	2
44	52	1
151	151	1
30	32	1
72	73	1
33	33	4
2	2	3
141	143	1
142	142	7
42	92	2
33	36	2
123	123	1
155	156	1
110	110	1
128	128	3
125	141	2
1	2	1
64	64	3
138	148	2
139	139	2
137	137	3
144	144	2
135	158	1
79	79	2
46	54	2
158	158	2
125	139	1
106	107	2
77	77	1
4	53	4
80	81	1
24	32	2
7	32	1
26	26	2
131	131	4
34	35	1
97	97	2
94	94	2
78	78	1
88	89	2
67	70	2
157	158	1
29	29	2
13	14	1
111	111	1
86	87	1
6	6	2
75	131	2
152	154	1
21	21	1
103	103	1
43	89	1
39	87	1
10	11	1
126	126	1
141	141	2
142	144	1
153	153	1
43	43	1
3	54	1
107	107	1
81	110	1
129	129	2
24	24	1
126	141	1
80	80	1
87	88	1
51	55	1
7	35	2
105	105	1
135	135	1
10	10	2
110	112	1
1	1	1
75	75	1
