112	113	3
62	63	3
149	150	1
4	7	1
43	44	1
5	6	5
12	14	3
73	79	2
99	137	2
65	66	3
68	68	14
131	132	1
64	64	9
43	45	2
45	45	6
152	152	11
83	83	4
139	145	3
83	84	3
144	145	1
64	70	7
151	151	8
128	128	2
22	22	6
74	74	8
39	39	3
30	30	3
149	149	5
67	67	7
27	27	6
31	31	3
98	99	6
4	4	7
29	29	4
110	110	11
9	10	4
25	25	7
98	98	10
107	128	4
114	150	1
72	73	4
72	122	1
135	136	3
154	154	12
100	100	3
110	126	4
62	62	2
143	143	3
127	127	2
17	118	1
27	30	1
133	134	3
23	24	5
87	87	3
114	114	2
107	107	3
51	52	2
153	153	11
8	34	2
14	15	2
152	153	1
126	127	4
122	122	8
38	40	5
13	30	2
57	105	4
138	138	4
126	126	5
113	113	5
50	50	2
16	16	7
32	36	2
70	70	14
94	94	5
25	50	4
119	119	2
116	116	4
145	145	2
75	75	8
23	23	4
40	46	1
123	149	3
123	123	4
117	117	3
115	116	2
133	133	8
138	139	6
45	46	5
45	118	1
34	34	2
84	129	2
114	139	1
150	150	3
107	109	1
7	8	4
108	152	3
24	24	10
47	47	12
96	97	3
57	57	5
3	3	6
79	79	5
132	133	2
110	123	1
85	85	4
129	129	7
73	73	2
105	105	2
34	35	2
95	95	2
113	139	4
112	112	6
130	130	5
103	104	2
84	87	2
123	124	2
53	53	4
125	127	5
142	143	1
143	145	3
105	151	4
76	79	3
15	15	4
127	128	3
46	46	6
21	21	8
96	149	5
102	102	4
68	69	4
44	62	4
134	134	2
96	96	4
19	20	2
97	99	1
144	146	6
77	77	1
146	146	2
153	154	2
12	12	7
141	141	2
142	145	2
103	103	9
41	150	2
36	41	5
120	147	1
27	28	1
125	125	1
40	40	3
141	143	1
126	148	2
65	103	3
21	25	1
65	65	2
108	108	1
35	35	2
147	147	1
54	54	1
100	101	4
41	41	2
139	139	1
142	142	2
80	80	4
137	138	1
81	81	4
124	124	2
66	66	1
18	19	1
13	13	6
5	7	2
126	143	2
128	137	1
20	22	1
63	118	2
129	134	1
44	46	3
63	63	3
110	128	1
11	13	2
107	133	2
48	48	5
20	21	1
9	9	1
121	121	2
82	82	3
69	69	5
93	93	1
37	95	2
38	41	2
40	41	1
112	150	1
142	144	1
92	92	1
56	57	1
95	96	2
66	68	2
26	26	1
132	132	1
17	17	1
137	137	2
34	42	1
32	32	1
21	22	1
145	146	1
149	152	2
128	146	1
102	103	2
113	147	1
71	71	4
52	52	1
20	20	2
25	26	1
75	77	1
42	42	1
12	13	1
57	58	2
99	102	1
18	18	3
147	148	2
38	39	1
72	98	1
85	86	1
55	105	2
148	148	1
120	120	1
72	99	1
135	135	2
11	12	1
124	125	1
137	146	1
24	25	1
36	37	1
108	139	1
78	125	1
78	78	1
93	94	1
7	7	1
44	45	1
150	154	1
136	138	1
44	82	1
76	76	1
125	126	1
19	19	1
83	139	1
94	95	1
99	99	1
24	29	1
