99	99	45
141	142	5
95	97	9
183	185	7
115	190	7
39	39	32
181	181	42
102	103	15
40	40	50
68	68	39
42	42	20
157	157	37
78	79	17
76	76	19
57	57	39
180	180	25
120	120	17
169	173	4
59	59	24
115	115	25
11	11	26
186	186	39
183	183	39
16	26	4
98	98	17
187	187	12
65	65	22
92	92	28
146	146	33
177	184	6
58	60	1
101	102	19
11	12	6
83	83	30
122	122	32
19	19	16
143	144	14
121	121	31
28	28	12
10	31	1
159	160	18
164	165	14
124	124	26
101	101	34
95	100	6
12	12	21
118	118	44
175	175	47
80	80	33
180	183	3
14	14	32
77	77	61
122	123	24
126	126	13
71	71	25
150	150	51
169	169	21
124	125	7
29	29	17
89	89	34
148	148	32
141	146	5
170	170	29
70	70	13
148	182	3
86	86	31
33	35	3
2	47	3
154	158	3
76	77	6
127	127	32
12	13	6
121	123	1
163	163	20
41	41	37
24	25	11
60	60	17
23	23	39
97	97	29
6	6	37
142	143	10
15	16	10
82	82	60
12	71	2
15	15	47
139	140	21
102	140	3
176	176	21
59	61	5
66	67	19
56	56	56
4	4	26
122	125	1
140	140	40
3	48	4
112	112	42
151	175	1
91	96	3
147	163	3
178	178	40
22	22	23
168	168	29
61	64	3
119	120	6
44	44	33
113	115	3
152	154	4
64	65	5
83	84	16
103	133	3
79	121	4
72	150	3
72	72	25
132	132	15
70	72	5
131	131	39
78	78	34
38	39	8
57	75	3
171	171	28
129	129	32
162	163	10
38	38	28
94	94	24
119	119	22
5	9	5
112	113	9
188	188	11
161	161	23
130	131	18
34	36	1
114	114	39
160	160	18
40	78	1
185	185	20
108	108	28
54	56	7
100	154	4
45	45	24
150	151	12
106	106	21
134	136	8
2	2	38
146	147	4
154	155	5
88	88	27
36	36	35
147	148	17
143	143	23
174	175	6
55	56	16
163	168	6
46	46	22
71	101	5
182	184	2
78	125	5
43	44	5
74	77	1
177	177	27
141	141	27
123	149	3
175	177	6
77	78	7
155	166	1
90	90	31
18	20	6
18	86	2
73	188	4
120	142	3
13	13	30
27	28	9
83	96	1
100	100	21
158	159	5
104	104	25
165	165	26
58	58	34
60	62	6
174	174	25
5	5	16
118	119	11
166	166	31
127	129	6
21	21	25
17	17	14
25	25	50
83	154	3
97	106	7
160	161	7
18	19	12
68	69	5
49	52	3
159	159	44
71	76	1
35	35	27
43	43	23
53	53	44
141	153	3
89	153	3
154	154	33
79	155	1
28	30	7
149	149	26
165	186	3
184	185	9
72	73	4
14	15	18
82	83	15
135	136	7
37	37	26
120	158	2
140	153	5
153	153	30
19	82	3
163	164	11
26	54	5
55	55	39
108	109	8
95	107	1
34	34	15
174	186	4
9	12	2
73	73	37
36	94	2
185	186	5
47	47	22
24	24	30
146	163	2
12	41	3
123	123	26
48	48	41
5	6	5
140	141	10
144	145	9
63	63	30
84	84	40
15	23	4
10	12	9
32	36	10
4	13	5
3	95	3
87	87	23
123	147	1
48	138	2
91	98	4
85	85	8
176	180	2
5	30	6
23	24	3
116	116	30
160	176	3
104	156	5
7	8	12
155	155	24
114	141	1
128	129	8
138	139	17
111	112	20
26	26	22
139	139	14
171	172	26
179	180	15
140	154	3
1	1	28
148	149	4
152	152	32
145	146	3
13	47	3
173	173	27
26	78	7
130	136	2
164	164	35
95	155	4
178	179	3
111	130	7
133	133	40
120	122	3
0	0	34
75	75	27
81	81	32
8	9	5
182	183	5
63	91	2
115	168	4
18	18	16
123	124	6
160	179	3
124	127	4
79	80	26
40	41	3
68	87	1
92	126	6
113	114	5
112	114	3
110	110	28
77	108	3
54	67	1
62	91	6
113	113	47
64	64	22
20	22	3
179	181	3
141	151	4
58	63	2
179	179	17
137	137	28
147	147	44
114	115	12
42	44	1
88	140	2
117	118	13
186	187	2
48	54	2
137	148	1
4	26	4
140	142	10
27	36	3
62	102	4
58	59	9
63	67	6
85	87	3
108	162	1
171	175	1
36	37	8
60	110	3
172	172	32
7	83	3
80	82	3
125	125	29
151	151	40
107	107	13
88	98	3
80	124	4
90	119	1
19	20	4
84	91	5
71	147	1
60	136	4
103	103	29
149	150	13
107	108	12
14	72	7
121	122	18
59	122	5
67	67	21
104	160	2
48	78	4
177	178	28
61	61	26
91	91	30
45	46	9
102	102	25
135	135	22
133	134	11
84	87	4
104	105	3
96	97	4
30	30	30
0	3	3
136	171	6
0	1	6
172	173	13
27	27	23
152	153	7
182	182	36
165	187	3
20	20	17
148	190	2
109	110	5
89	173	2
56	84	2
116	117	7
10	19	1
3	3	21
20	21	9
111	114	4
166	182	2
98	99	8
29	37	2
2	8	2
53	54	11
115	116	13
88	89	10
132	133	3
31	31	33
96	108	2
19	35	5
63	64	8
47	48	12
79	79	28
158	160	4
184	186	1
66	66	22
135	139	3
53	84	2
158	167	2
44	45	4
81	93	5
156	156	16
39	40	14
87	88	7
32	33	10
10	11	10
32	54	3
35	36	8
16	17	9
12	21	2
110	111	4
167	167	16
81	82	5
53	56	3
20	36	4
137	140	3
189	189	10
16	16	25
71	73	2
188	189	18
62	141	5
136	136	5
156	161	6
176	177	11
4	141	2
14	46	6
78	90	5
114	131	3
93	93	19
17	18	4
105	107	5
70	71	16
89	108	3
29	30	8
157	158	14
114	123	2
183	184	10
152	182	3
136	137	15
123	134	1
70	73	2
184	189	2
65	68	3
77	89	3
128	128	15
59	60	5
61	62	7
72	75	6
17	36	2
31	33	2
178	182	5
77	99	2
178	180	2
2	3	7
23	25	4
117	168	1
179	186	1
54	54	20
153	163	8
78	86	2
32	32	12
130	130	25
7	7	17
91	102	2
118	121	1
10	10	12
102	105	1
0	6	4
137	139	2
63	66	1
74	74	25
63	73	2
120	144	1
138	138	19
40	42	8
1	94	3
162	162	27
133	136	5
60	61	6
76	155	1
7	39	2
139	176	1
139	141	1
134	139	3
26	27	7
131	139	2
187	188	4
6	7	13
177	190	1
116	137	2
89	92	3
81	83	6
133	142	1
71	72	4
190	190	11
155	160	1
79	97	1
55	84	2
69	71	2
106	117	4
65	95	2
158	158	25
144	166	5
52	52	6
62	63	9
144	144	19
95	95	25
38	40	2
114	124	5
106	107	8
120	123	4
99	100	16
28	31	3
142	161	2
59	66	1
71	103	2
145	145	40
108	111	4
85	86	7
62	112	4
141	143	3
142	189	1
26	33	3
55	60	4
74	75	12
140	158	1
55	73	3
25	37	3
44	147	7
95	123	2
170	174	3
44	75	1
119	189	2
41	42	10
96	99	2
125	128	8
4	12	2
166	178	3
43	102	1
126	127	6
31	34	1
17	43	2
90	91	9
167	170	4
73	74	11
164	190	3
3	6	2
142	142	22
152	159	2
91	92	10
56	106	5
165	166	6
38	144	3
91	94	2
69	69	3
86	95	3
37	39	4
114	160	2
169	171	2
18	26	1
124	169	1
68	95	1
111	111	44
4	15	1
37	38	2
52	74	3
18	22	5
189	190	10
137	138	4
75	76	6
44	77	2
174	176	5
8	42	3
126	130	1
13	43	5
113	119	3
28	29	8
97	98	12
17	41	5
11	43	4
171	173	3
46	47	13
27	74	2
46	74	1
40	45	2
75	82	3
184	184	18
117	117	14
5	42	1
26	106	2
102	110	3
104	123	3
134	135	6
5	100	2
8	8	16
39	100	2
13	100	4
105	105	17
4	99	7
17	37	1
33	33	23
13	14	5
119	123	1
104	106	1
9	13	1
48	70	5
16	20	1
65	85	4
143	150	4
177	180	3
57	86	1
44	71	2
148	150	6
33	34	6
67	68	4
146	187	3
83	106	3
53	58	2
80	81	13
76	83	1
116	118	4
61	63	5
90	125	3
154	162	2
180	181	7
13	15	4
178	181	2
30	37	2
127	128	13
90	95	1
17	53	2
94	95	5
8	18	1
76	129	3
105	110	1
22	42	2
56	57	13
45	71	3
176	179	3
109	109	23
150	187	2
146	165	2
65	84	1
163	165	6
177	179	1
96	96	7
19	98	6
91	93	4
1	2	4
153	154	17
11	18	2
57	79	1
115	117	1
155	161	2
68	72	3
30	31	8
69	85	3
136	138	6
31	38	2
103	106	2
183	186	1
8	11	1
66	68	2
65	100	5
176	178	3
116	146	1
35	43	4
80	104	1
16	40	1
93	112	3
52	70	1
14	80	1
101	140	3
170	173	2
93	94	6
20	30	1
149	174	2
166	167	3
124	129	2
119	137	1
57	61	5
48	127	2
1	95	1
12	46	4
134	143	1
37	60	1
168	169	10
57	64	2
169	174	7
83	87	3
160	187	3
132	144	3
89	90	9
108	115	1
188	190	6
156	158	5
129	130	10
62	62	13
24	28	7
25	26	3
54	55	9
163	178	1
0	2	7
53	72	2
47	92	2
33	36	2
95	99	2
65	66	14
58	81	2
86	87	5
154	177	5
68	71	3
88	95	2
142	144	3
11	20	3
9	9	7
106	110	2
148	152	3
3	100	1
120	125	2
37	42	4
132	149	4
97	99	1
57	111	1
165	184	4
116	142	2
167	169	3
154	156	4
134	134	9
135	138	1
150	161	3
175	180	1
101	103	1
71	124	2
47	79	2
17	35	2
53	55	5
57	58	10
166	169	4
181	189	3
97	103	1
161	162	4
98	136	1
6	41	4
11	59	4
164	182	3
52	79	5
24	26	4
26	28	3
22	23	2
149	187	2
155	156	5
30	82	1
152	184	1
99	165	3
158	179	2
157	159	3
65	67	6
73	76	1
112	116	8
151	159	1
31	32	5
32	74	2
159	161	2
64	155	1
136	139	2
164	179	2
67	113	1
52	83	2
156	157	7
36	60	1
60	76	3
8	19	5
133	139	2
178	188	1
9	25	4
12	25	1
119	129	2
71	85	3
62	100	2
95	103	2
132	142	1
146	173	4
159	162	2
45	150	3
5	53	2
82	155	1
110	123	1
26	90	3
90	171	2
115	187	6
46	48	1
156	159	6
150	177	2
3	4	1
19	25	1
41	47	1
4	40	1
61	67	3
84	85	6
107	144	1
117	165	1
96	154	5
77	84	2
89	142	1
65	112	1
96	98	5
48	49	2
6	17	1
54	60	2
22	24	1
107	112	3
55	57	1
116	120	3
5	17	1
47	91	2
74	151	1
120	121	3
90	101	1
56	61	3
54	58	2
1	6	2
125	127	5
15	17	4
131	132	1
63	65	2
82	101	1
110	129	2
145	187	4
129	189	7
116	122	3
141	181	1
187	189	2
14	22	5
111	113	3
118	120	1
109	162	1
172	178	2
22	35	2
148	166	4
78	92	4
86	97	4
17	42	2
12	20	3
171	180	1
8	52	3
156	163	1
166	173	1
95	130	2
121	147	2
105	117	1
62	66	2
94	96	1
4	87	2
10	18	2
76	127	4
4	140	2
104	155	1
69	70	7
7	48	1
90	136	1
21	22	3
12	22	3
34	35	2
65	94	6
44	102	2
1	8	2
135	142	1
181	182	8
160	175	2
127	138	3
60	121	2
38	145	2
151	162	2
107	111	1
45	47	5
145	190	3
166	170	1
98	100	2
142	145	2
151	152	1
2	94	2
87	113	1
23	36	1
58	62	2
112	130	1
38	44	1
88	124	2
3	5	3
161	171	2
121	163	1
95	154	1
129	133	2
181	183	3
0	191	1
9	38	1
125	137	2
13	23	2
100	101	2
47	82	1
9	30	2
10	21	2
31	83	3
101	110	4
110	119	2
167	174	2
89	119	3
16	44	2
140	143	3
78	82	2
6	8	3
169	170	4
87	106	2
73	75	4
44	72	1
123	127	1
83	159	2
18	23	1
4	5	7
4	27	3
123	126	2
77	85	3
154	163	2
74	109	6
29	31	1
58	82	1
102	147	2
68	73	2
62	64	3
90	140	5
152	175	4
7	22	1
143	149	2
57	62	1
37	54	2
3	40	2
16	41	1
186	189	3
78	80	1
117	150	3
92	93	6
145	181	2
87	105	1
21	23	3
115	143	1
9	10	2
170	181	2
35	37	2
25	27	2
144	154	2
175	179	2
105	116	1
62	70	1
106	174	2
70	101	1
89	109	1
4	6	3
2	93	2
10	20	1
124	126	2
135	144	1
102	154	1
38	146	1
115	144	1
68	103	2
143	180	3
6	42	1
69	101	1
111	135	1
145	148	2
42	54	2
167	168	7
47	189	2
95	144	1
95	96	6
104	138	4
152	157	1
140	144	2
6	40	1
48	86	4
180	184	1
103	134	2
113	118	1
139	172	1
160	163	1
41	43	2
106	109	1
138	141	1
37	86	3
130	135	1
85	100	2
141	158	1
32	38	1
173	174	1
131	133	2
132	137	1
161	180	3
31	82	1
174	178	1
65	157	1
31	39	3
52	54	3
56	81	1
42	151	1
99	101	3
47	76	1
146	162	1
174	188	1
122	132	3
2	100	2
42	43	2
53	59	2
122	147	2
171	182	1
175	176	5
88	110	4
123	140	1
25	28	1
11	107	2
26	29	2
63	84	1
131	135	1
175	184	1
126	128	4
56	129	1
41	56	2
102	176	1
143	148	4
104	157	1
165	167	1
146	148	1
91	137	1
26	108	1
70	123	1
85	98	1
56	62	3
58	66	1
5	10	2
27	45	1
64	156	1
117	119	2
81	88	1
107	110	2
10	13	1
93	100	2
2	40	1
134	137	3
37	53	1
4	16	1
28	38	2
170	171	1
186	188	2
111	115	4
34	78	1
136	144	1
121	161	1
133	135	1
1	40	4
41	77	2
44	46	1
90	92	1
61	99	1
11	13	1
96	104	1
67	112	1
106	149	2
53	57	2
33	55	2
0	45	2
7	37	1
166	174	1
109	137	1
8	40	1
106	160	1
140	168	2
57	139	2
66	104	1
120	143	1
104	112	2
156	167	1
160	162	1
15	27	1
101	157	1
61	91	1
92	94	1
54	83	1
79	82	1
3	41	3
78	81	1
71	149	1
122	126	1
2	78	1
59	136	1
131	174	1
100	165	1
155	167	1
99	103	1
40	77	1
29	57	1
47	187	2
125	126	2
147	154	1
14	47	1
182	185	1
177	185	1
3	99	1
91	95	1
15	20	2
168	170	1
76	151	1
58	72	1
27	83	1
133	189	2
58	75	1
116	168	1
111	118	2
84	89	2
7	52	1
90	135	1
19	33	1
124	128	2
22	25	1
10	82	1
35	55	1
174	183	1
156	175	2
147	166	1
53	105	1
108	160	1
89	126	1
130	132	1
16	43	1
4	7	1
52	59	1
87	97	2
86	123	1
110	127	1
47	161	1
162	164	1
11	15	1
77	109	2
100	102	1
14	81	1
14	43	1
13	45	1
57	74	1
69	86	1
18	21	1
109	185	1
80	97	1
90	177	1
82	160	1
129	148	1
4	83	1
57	83	1
107	121	1
156	176	1
183	189	1
41	154	1
3	16	1
163	177	1
15	25	1
175	188	1
103	104	1
164	178	1
42	152	1
16	35	1
11	81	1
37	144	1
64	91	1
166	172	1
11	14	1
73	150	1
102	104	2
103	124	1
