74	74	7
72	72	4
32	32	10
64	73	3
114	115	9
73	73	8
32	61	2
95	108	2
95	95	6
73	74	2
20	20	3
46	46	11
94	94	10
76	77	7
62	63	1
112	112	2
40	41	2
25	28	4
31	31	13
77	100	1
35	35	9
50	53	2
79	81	2
103	107	2
62	93	4
94	103	2
64	64	3
63	63	12
21	23	2
31	32	2
44	60	1
43	58	1
42	47	6
111	111	2
56	73	1
89	89	4
88	105	1
80	80	5
91	91	7
110	110	10
63	64	1
78	78	9
113	113	2
35	54	4
64	89	1
37	64	3
69	69	8
50	50	11
45	47	1
45	67	1
52	52	8
100	103	1
94	113	3
81	98	2
67	98	2
99	99	10
83	110	2
81	82	10
103	108	5
109	112	3
76	76	3
105	106	1
25	54	2
103	103	6
29	44	3
66	66	3
47	47	3
75	75	9
78	93	3
106	114	2
69	71	1
82	86	2
25	25	6
71	73	1
43	43	7
62	74	4
52	60	2
108	108	2
37	37	3
44	44	5
22	53	3
93	93	10
92	92	13
64	85	3
39	74	2
24	30	3
33	33	4
64	82	4
106	109	3
53	54	4
57	80	2
81	109	1
96	96	3
43	75	1
24	25	3
91	94	4
102	109	2
43	78	1
66	88	3
65	65	2
70	92	1
47	48	1
86	91	3
20	28	4
47	58	2
70	72	2
89	105	5
91	93	5
31	33	5
69	73	4
26	27	4
74	75	6
98	103	3
23	23	1
81	90	7
58	58	2
19	20	1
38	38	7
101	102	1
98	99	4
38	58	1
88	88	3
42	42	5
97	97	13
30	52	1
109	109	7
86	110	5
91	92	2
28	29	4
85	92	1
49	50	1
40	42	2
104	107	10
28	46	2
109	113	3
112	113	2
96	97	3
88	92	2
105	105	4
102	102	8
56	56	3
77	82	1
66	69	1
19	31	2
78	79	3
67	67	4
38	73	4
36	36	7
26	26	4
60	60	3
88	110	3
81	81	2
41	64	5
99	100	5
88	89	3
89	103	2
73	82	1
27	27	1
40	74	1
85	85	3
51	51	5
21	22	2
44	98	1
63	91	2
43	49	1
102	112	1
68	84	1
82	85	3
24	54	2
60	67	3
106	106	6
20	46	2
33	52	2
104	104	1
31	42	3
41	49	2
55	66	2
79	79	2
65	97	2
55	58	6
66	71	1
45	72	2
57	65	5
28	28	2
49	49	5
98	98	5
68	69	5
19	19	2
71	72	2
84	84	1
65	99	5
57	79	3
63	75	4
89	90	2
64	91	1
44	85	2
83	105	2
81	85	1
79	84	4
34	35	2
80	87	3
100	100	4
70	70	2
56	57	2
56	75	3
47	64	3
102	103	1
40	40	5
25	43	6
88	104	3
106	108	2
101	107	4
44	47	1
57	57	3
27	50	4
57	113	3
59	82	2
57	85	1
64	75	1
35	61	2
106	107	2
48	49	2
36	43	2
41	41	1
31	34	1
19	23	2
21	33	1
107	107	2
87	104	3
72	103	2
80	88	2
37	69	1
21	21	3
34	34	1
20	26	1
85	86	1
54	54	4
65	87	1
32	43	1
39	61	2
83	83	1
86	94	2
45	46	1
58	59	2
48	48	3
30	49	1
66	76	1
33	35	2
54	61	1
54	59	1
57	59	1
40	52	2
32	53	1
68	83	1
33	34	2
66	87	1
90	104	1
67	76	1
105	110	1
97	113	1
85	89	1
26	36	1
86	104	3
62	62	1
29	29	3
45	45	1
101	108	3
66	67	1
55	82	2
37	47	1
61	61	4
57	61	2
83	85	1
56	93	1
50	52	1
80	107	1
30	30	1
95	96	1
87	93	1
63	74	1
39	53	1
90	106	1
