12	12	10
70	70	10
25	47	2
62	63	7
86	87	9
66	67	7
69	69	7
10	18	2
48	48	14
1	1	10
25	31	4
79	79	6
5	5	5
14	14	14
59	83	4
76	80	3
8	24	3
71	71	6
4	4	15
47	47	12
57	58	7
78	79	4
4	8	2
28	29	5
58	58	12
20	21	3
87	87	12
9	9	10
27	82	1
70	71	3
67	67	8
46	77	3
3	4	5
19	19	7
8	8	7
53	53	14
46	63	6
72	73	5
52	52	15
7	14	4
62	62	7
6	6	5
48	78	3
4	19	2
61	63	5
16	25	2
68	68	16
12	48	3
18	18	3
3	3	29
51	51	12
11	11	14
48	82	5
76	82	6
59	59	8
53	54	6
60	61	4
77	77	2
52	53	4
59	61	1
23	23	14
88	89	3
84	84	6
70	74	4
63	63	8
88	88	10
63	64	2
30	30	13
56	56	5
10	10	13
82	82	3
5	6	3
27	28	3
79	80	7
80	80	10
24	24	11
57	57	9
66	66	4
49	49	6
8	12	3
85	85	17
26	26	9
83	83	12
52	55	3
67	68	4
65	65	4
10	21	1
61	61	3
31	31	2
27	27	8
60	60	1
21	21	3
1	2	1
11	12	2
54	54	3
0	0	6
50	52	3
50	50	7
64	64	10
67	71	3
22	22	8
12	13	1
9	12	3
78	78	2
3	5	4
26	27	5
12	17	7
34	34	16
81	81	18
47	57	3
76	79	2
23	24	8
12	66	4
7	8	2
87	88	5
20	20	4
72	72	5
2	2	3
13	65	4
15	15	2
13	13	8
13	66	1
9	22	4
29	29	3
8	21	2
89	90	2
82	83	2
46	46	3
52	57	2
25	25	6
9	21	1
0	2	2
71	72	5
19	20	4
6	66	2
74	74	7
73	76	1
69	87	3
62	78	2
17	18	1
16	48	3
25	27	1
12	27	1
14	85	2
48	56	3
48	49	2
73	73	5
25	26	2
77	80	3
48	76	4
47	81	1
9	20	3
28	28	4
73	74	3
55	58	2
14	18	1
54	55	5
85	86	7
5	8	1
68	69	3
49	58	1
11	27	2
30	31	2
7	17	1
65	66	2
30	68	1
73	82	2
10	15	1
69	70	1
7	7	2
77	81	2
55	55	3
76	76	3
75	76	3
84	85	2
49	55	1
13	18	1
51	62	2
25	33	1
7	13	2
81	83	1
47	48	7
14	66	1
75	75	4
58	63	1
17	17	2
21	22	1
2	3	2
18	66	1
5	20	4
59	60	2
5	10	1
18	27	3
48	83	1
89	89	1
35	35	1
16	27	3
75	83	1
4	5	1
60	62	2
68	71	2
31	75	1
77	79	1
46	56	1
11	21	1
22	23	1
5	19	1
50	54	2
52	58	1
30	85	1
8	20	2
