4	5	1
74	74	13
101	101	8
75	75	5
13	13	4
55	55	10
89	89	7
36	36	17
97	97	7
85	85	11
72	72	5
121	123	4
4	108	3
82	82	9
113	113	2
126	126	17
119	120	6
22	23	3
0	13	1
96	110	3
114	128	1
21	21	16
24	24	15
23	23	6
112	112	6
80	80	11
30	31	1
0	3	4
111	111	5
28	28	12
59	59	5
38	38	3
120	120	7
87	113	1
92	97	4
37	45	3
130	130	7
90	90	9
27	28	3
60	81	1
78	78	10
52	52	7
71	82	3
98	100	1
23	24	8
70	70	2
35	72	3
20	44	2
104	104	7
121	124	2
95	96	1
50	50	3
52	53	2
77	77	8
25	25	13
121	122	6
64	64	14
20	20	5
73	73	11
68	68	8
122	122	6
2	4	5
98	98	16
67	67	16
114	114	1
109	109	8
53	53	2
108	108	8
96	96	8
55	56	2
126	127	1
87	130	3
62	63	2
84	85	2
32	32	8
54	54	10
110	111	4
60	60	7
16	55	2
12	12	12
79	79	11
118	118	4
12	80	2
17	27	2
16	16	7
88	88	7
114	115	3
69	69	9
5	7	4
134	134	19
28	29	3
117	117	7
94	95	3
35	35	3
65	65	7
107	130	3
78	79	5
31	31	11
79	112	2
102	102	8
95	102	2
28	30	2
116	129	3
106	129	2
103	103	6
106	107	4
42	43	2
83	83	4
87	87	4
108	112	1
14	34	1
132	132	4
94	94	12
29	30	2
14	14	3
43	43	8
80	106	2
15	17	2
53	54	1
63	63	4
71	71	4
58	60	1
11	11	4
121	121	9
119	119	4
22	22	15
93	93	5
133	133	5
43	105	3
54	55	2
18	21	3
95	100	3
77	124	2
52	54	3
99	99	4
94	97	2
95	95	4
117	126	1
96	97	4
110	110	4
115	115	9
5	123	5
8	9	4
61	61	8
127	127	9
86	86	9
5	5	8
81	81	3
8	8	4
57	57	3
30	30	3
26	26	5
10	11	3
35	60	1
7	11	2
2	8	4
59	82	2
34	35	1
17	26	1
49	49	4
34	34	9
106	106	3
33	34	2
33	57	2
66	66	7
7	7	7
75	76	2
131	131	5
73	74	3
11	14	3
21	52	3
1	2	2
45	45	10
69	119	1
29	31	1
1	59	2
80	81	4
33	35	1
95	115	4
58	58	4
0	11	1
9	9	5
19	20	2
97	98	1
105	105	6
35	45	2
125	126	2
91	91	6
5	58	2
4	9	1
128	129	2
2	3	7
18	19	1
66	67	2
107	107	2
87	106	1
131	132	4
69	112	1
105	129	1
33	33	2
0	134	1
47	50	1
8	11	1
6	6	5
77	79	1
29	29	6
86	132	1
24	26	2
27	29	1
1	1	5
6	13	1
37	37	1
47	49	2
2	2	3
35	62	2
9	10	2
34	58	1
123	123	2
14	15	3
15	15	3
44	110	3
12	13	2
96	99	2
99	105	1
5	6	3
91	99	3
31	32	3
116	116	8
105	106	4
69	70	2
56	56	6
129	129	3
18	18	6
24	25	1
15	27	1
36	61	2
116	117	1
15	16	2
128	128	1
55	57	1
115	129	1
4	4	2
132	133	2
77	78	1
60	61	1
85	86	2
0	33	1
125	125	2
65	120	2
18	33	2
91	92	1
98	104	3
17	24	1
6	7	1
27	27	6
84	84	6
15	55	1
127	128	5
28	32	1
58	59	1
25	26	1
87	103	3
90	116	2
36	62	1
103	131	1
76	76	4
125	127	1
63	64	3
3	3	3
3	5	2
0	0	3
12	70	1
92	92	3
117	131	1
81	84	1
98	99	3
124	124	5
122	124	4
120	121	1
42	42	3
84	96	1
109	110	1
118	119	1
35	36	1
42	109	1
13	14	2
3	4	2
15	21	2
30	34	1
77	122	1
38	39	1
101	102	1
24	27	2
43	131	1
86	117	1
115	116	1
60	80	1
44	61	3
60	134	3
108	109	1
54	71	1
19	19	1
5	72	1
123	124	1
88	89	1
68	115	1
66	116	1
43	120	1
62	62	1
124	125	1
76	134	2
98	105	1
107	108	1
44	44	1
98	101	1
44	45	1
0	34	1
