14	14	11
77	77	7
123	133	1
133	148	5
78	78	2
65	79	4
104	104	4
114	125	3
113	113	6
10	10	8
41	42	1
56	56	9
8	9	3
151	151	6
105	105	11
152	152	5
157	166	1
114	117	3
85	85	14
92	92	8
94	95	4
87	107	1
124	127	3
101	103	3
158	158	6
95	104	3
143	148	1
154	154	6
124	124	6
8	74	1
144	145	5
133	134	2
93	93	1
23	23	6
88	92	3
134	134	9
99	99	3
5	5	3
123	123	7
139	139	5
131	131	3
58	58	2
137	148	2
129	134	5
36	36	3
112	112	3
149	159	3
163	163	3
11	11	3
9	9	3
82	99	4
110	113	2
118	119	3
126	127	1
8	8	8
135	135	8
76	76	2
40	40	5
150	150	6
165	165	5
142	142	11
70	70	3
136	136	4
39	39	3
20	20	8
119	127	3
144	144	4
0	26	1
127	127	2
35	56	6
128	162	1
27	27	5
21	22	7
104	105	2
54	54	8
114	114	6
149	170	1
15	15	4
133	133	4
144	170	3
21	21	3
103	114	2
97	97	4
107	108	1
82	82	5
11	68	2
127	128	6
90	90	3
50	50	3
154	155	2
127	142	6
44	44	15
82	96	2
36	37	2
17	87	1
118	118	2
12	92	2
48	48	4
96	96	9
7	8	3
69	70	2
53	54	1
132	132	6
168	168	4
137	137	3
129	132	2
53	53	8
4	4	4
15	148	1
72	88	4
146	146	4
6	9	2
114	119	3
17	86	7
87	89	1
112	113	2
98	98	7
54	137	3
38	38	7
49	49	7
71	71	5
103	113	1
7	9	1
62	82	2
70	77	1
140	140	5
110	118	6
98	99	3
129	153	1
73	73	3
2	2	6
89	89	3
165	169	1
166	166	8
123	166	1
164	170	1
3	5	5
50	52	2
121	121	4
21	24	1
41	41	6
57	57	2
88	107	3
141	153	1
122	145	1
3	10	1
74	75	6
73	138	1
107	107	5
79	100	4
159	159	5
66	80	3
151	169	5
85	86	6
152	169	3
88	105	2
14	16	1
16	17	2
108	109	1
108	108	5
161	170	1
70	79	3
18	40	4
1	26	1
87	102	3
160	165	2
39	41	1
42	42	8
15	16	1
37	37	2
157	158	2
80	80	3
69	78	2
26	26	5
97	113	2
33	34	1
21	34	4
125	144	2
157	157	2
43	43	1
153	153	3
86	86	1
150	165	1
121	134	1
106	133	2
148	169	2
115	115	3
46	68	1
167	167	6
169	169	5
106	109	1
161	161	1
122	122	4
0	0	3
93	111	3
94	102	4
111	111	6
7	13	4
169	170	1
103	104	2
145	145	2
91	93	1
0	4	2
99	119	3
5	24	2
104	112	1
99	118	1
84	84	2
121	143	2
9	15	2
69	69	3
101	101	4
119	119	2
115	145	5
69	79	3
101	133	1
90	92	5
65	65	3
104	133	5
77	82	2
166	169	1
34	42	1
22	22	3
9	24	1
66	66	5
98	105	2
139	140	1
132	155	1
11	12	4
52	62	5
152	155	1
156	156	3
102	102	7
88	88	2
41	93	2
37	38	3
101	123	1
124	148	1
50	58	3
12	67	3
154	165	4
68	68	3
165	167	2
85	105	2
7	23	2
121	122	3
104	125	2
26	27	2
149	161	2
28	28	5
51	52	1
74	74	2
75	75	5
170	170	1
87	112	1
79	79	2
3	4	1
51	64	3
2	91	2
129	130	1
21	23	1
58	81	2
152	154	2
18	18	1
62	62	5
80	98	2
137	138	1
43	44	1
116	117	1
88	89	4
123	145	2
67	68	2
33	52	3
83	83	5
134	143	1
111	138	2
5	12	1
135	137	1
93	164	1
5	19	1
163	170	1
12	13	2
21	26	3
79	99	2
136	170	1
21	40	2
111	112	1
120	121	2
53	55	1
140	142	3
149	149	3
127	152	3
128	152	1
70	71	1
138	138	2
125	145	1
39	40	4
81	96	1
24	24	2
139	141	1
6	19	1
105	114	1
120	124	2
3	3	5
24	39	3
36	42	1
11	13	2
142	153	1
143	143	1
97	115	3
57	80	1
121	128	2
57	73	1
122	142	1
91	91	1
1	1	2
113	114	1
13	55	2
74	76	2
47	47	1
19	19	2
125	126	1
125	125	1
121	144	1
146	170	1
140	155	1
103	125	2
23	37	1
110	110	1
77	85	1
130	130	1
4	6	2
101	102	1
151	159	2
64	64	1
24	40	3
120	120	1
96	131	1
52	52	1
148	148	1
13	13	1
61	76	1
1	91	1
103	103	1
1	93	1
66	67	1
1	2	1
74	87	1
162	162	2
48	84	1
0	7	1
34	34	2
118	160	1
42	43	1
90	112	1
87	87	1
147	147	2
76	89	1
64	89	1
64	65	1
121	125	1
4	5	1
69	85	1
128	128	1
40	42	2
53	57	1
106	106	1
109	110	1
155	156	1
45	45	1
57	62	1
109	109	1
58	62	1
