18	18	9
117	118	2
13	38	1
10	73	9
57	57	8
107	121	3
30	30	7
71	71	5
103	104	4
80	80	2
63	63	10
14	14	2
2	2	7
106	106	3
28	28	4
113	115	2
118	118	9
68	69	4
111	111	7
6	6	5
30	91	4
87	87	4
20	20	8
113	122	6
79	117	3
61	61	16
9	10	2
113	113	8
58	58	4
25	25	6
99	99	5
77	77	9
62	62	4
13	15	2
38	38	6
43	82	4
125	125	8
17	18	6
105	105	7
15	16	4
127	127	3
27	27	7
126	126	16
84	84	11
12	12	12
90	90	2
75	75	6
37	39	7
22	25	2
47	47	8
90	91	2
108	108	13
76	76	3
129	130	3
14	16	1
113	114	2
107	107	10
64	64	7
43	43	6
108	109	4
115	116	2
16	17	4
88	96	2
36	36	23
23	23	6
119	119	9
109	109	1
93	93	4
85	85	17
34	73	1
131	132	2
129	129	17
33	40	1
106	121	2
69	72	4
43	90	6
75	76	4
130	130	3
19	19	10
30	31	1
42	42	5
132	132	10
15	41	2
34	35	7
96	115	5
116	117	4
23	24	1
17	44	7
50	50	3
97	97	6
64	65	1
82	82	8
69	69	3
133	133	4
13	13	3
27	33	1
0	0	3
4	4	7
59	112	4
103	103	4
79	109	1
55	55	4
29	29	5
72	72	10
7	7	11
48	90	1
41	42	1
73	74	8
44	44	1
108	114	1
131	133	4
56	56	3
99	100	1
110	110	3
45	45	3
27	29	1
124	125	3
114	116	7
23	25	4
33	42	3
33	33	7
115	115	4
31	31	3
86	87	1
22	22	2
74	74	5
95	95	4
40	40	8
57	61	2
33	34	2
3	47	1
17	19	3
35	36	6
15	15	2
109	113	1
77	82	3
30	60	3
2	34	2
17	17	3
132	133	3
5	6	4
117	126	2
69	70	1
91	92	2
87	117	2
35	35	3
62	93	2
74	76	1
117	117	7
78	80	3
107	108	1
123	123	3
12	16	1
120	120	3
10	18	1
120	121	4
47	48	4
86	86	2
79	79	8
67	73	2
122	124	1
112	112	4
10	19	2
6	8	2
111	125	2
34	34	4
39	39	4
20	21	2
9	11	5
32	32	1
98	115	3
0	67	1
11	20	2
124	124	2
66	66	12
75	77	2
131	131	2
101	101	5
94	94	4
68	68	8
126	134	3
133	134	1
83	83	1
100	119	2
77	118	2
17	45	4
128	130	1
120	130	1
12	13	5
38	39	1
59	59	2
26	26	3
78	78	1
70	70	4
86	93	1
10	10	7
127	132	2
110	112	2
32	49	2
98	98	1
11	17	2
34	47	2
96	98	3
120	125	1
61	62	1
11	11	3
64	95	2
41	41	2
8	8	2
89	90	2
36	37	1
56	90	2
134	134	1
100	100	1
20	25	1
46	46	1
67	68	1
63	95	1
117	127	2
9	9	7
65	66	1
17	20	2
91	91	1
3	3	2
60	60	2
63	101	3
81	81	4
67	67	1
65	65	4
3	24	1
88	93	1
102	133	2
30	85	1
21	21	5
92	93	2
49	49	1
125	128	1
37	37	2
1	1	1
13	14	2
65	119	1
101	102	2
114	121	1
73	73	2
99	130	1
62	89	1
32	33	1
1	2	1
84	85	3
46	48	1
63	64	2
71	72	1
45	46	1
5	5	1
102	102	1
18	46	1
86	94	1
