98	98	12
81	83	1
94	94	7
49	63	4
47	47	9
68	70	3
95	96	1
47	86	7
33	33	5
145	147	3
18	18	6
27	27	5
123	123	4
42	45	6
132	132	7
125	129	2
79	79	4
89	140	1
80	82	2
43	44	2
20	21	14
88	90	8
31	32	7
28	28	9
5	25	1
72	72	1
87	87	13
144	144	1
111	111	9
102	102	6
34	34	4
24	45	1
15	17	1
119	119	4
69	69	7
137	137	7
76	83	2
38	38	8
15	15	5
141	141	2
31	31	6
17	33	3
7	7	7
109	110	5
21	21	4
135	135	6
158	158	3
95	126	3
120	120	11
76	76	1
157	157	11
106	124	5
12	15	4
105	105	3
12	12	1
92	92	2
64	75	2
70	70	5
139	139	4
7	8	3
41	41	2
93	93	10
135	136	1
42	42	12
89	90	3
151	152	7
110	110	2
13	15	2
121	122	3
111	142	1
127	129	1
51	51	4
10	10	5
50	50	2
92	124	2
6	6	6
36	36	1
132	139	1
85	86	3
27	28	4
35	35	2
109	149	3
57	57	2
93	125	2
52	53	3
20	20	3
32	87	8
1	1	2
144	146	3
0	0	5
154	154	4
18	19	6
52	52	8
53	57	1
89	89	1
80	80	6
55	57	2
114	114	3
25	25	9
114	156	2
110	111	1
131	131	4
104	107	1
17	87	6
120	121	2
153	153	10
106	107	3
116	116	3
108	110	4
152	154	2
109	109	8
5	5	3
37	37	3
39	39	2
139	140	2
19	19	2
87	91	1
106	106	3
147	148	3
149	149	2
3	3	3
43	43	3
92	104	1
95	95	1
115	115	4
154	155	3
93	96	1
133	135	3
135	137	1
107	107	4
71	71	7
149	152	1
127	128	2
39	43	2
138	138	6
109	144	2
73	73	6
54	55	3
4	4	2
30	30	3
145	146	2
108	139	2
29	29	6
4	124	2
55	55	7
54	54	4
29	30	1
99	100	1
16	16	1
78	78	2
133	134	1
7	36	1
20	115	2
81	82	2
134	136	1
152	152	2
68	68	2
155	156	1
3	4	1
156	157	3
53	53	2
28	30	1
148	148	2
11	14	2
23	23	1
13	13	1
88	88	1
149	150	1
101	101	2
20	116	2
74	74	2
28	29	2
45	47	2
4	36	2
11	11	2
107	130	1
72	73	1
79	80	1
0	1	1
24	24	1
47	50	1
99	99	3
0	158	2
83	84	1
103	103	1
20	88	2
131	132	1
90	90	1
140	140	3
21	22	1
123	124	2
142	142	2
136	136	1
48	48	3
8	8	1
14	14	2
153	155	1
19	117	1
32	32	2
122	122	1
153	154	1
2	2	1
119	120	1
62	62	2
126	126	3
64	65	1
150	150	3
17	18	1
144	145	2
124	124	1
132	133	1
108	108	2
13	14	1
28	87	1
1	86	1
44	44	1
156	156	1
45	45	1
7	23	1
