115	126	3
122	122	19
73	73	2
125	125	6
35	109	4
51	52	3
123	124	2
35	35	6
142	142	3
151	151	1
111	111	6
124	125	1
69	158	3
51	51	5
71	154	5
110	111	8
17	17	6
135	136	2
90	90	7
139	139	9
85	86	8
31	124	2
100	100	1
127	128	2
48	48	10
20	20	2
103	103	4
131	131	4
132	132	4
109	110	4
156	156	6
12	51	2
23	122	2
28	28	6
137	138	2
24	24	1
126	126	1
114	114	7
101	101	2
22	35	5
11	84	3
78	78	5
104	105	1
7	7	3
101	105	3
141	141	4
140	140	5
129	129	3
37	37	1
36	40	1
25	25	2
90	91	4
79	79	2
49	54	3
30	30	9
95	95	7
19	19	4
83	84	4
7	21	2
25	26	1
0	0	3
68	70	3
81	85	2
148	148	4
54	54	3
99	99	1
39	39	1
17	18	2
108	108	1
82	83	4
39	41	4
40	40	3
120	121	1
23	34	1
43	46	2
67	70	2
15	17	3
123	123	6
25	120	1
138	138	2
155	155	2
52	52	5
114	115	4
99	146	1
21	21	2
10	79	1
127	127	5
41	41	1
91	94	1
109	109	1
62	62	3
3	46	3
115	116	1
158	158	4
23	25	3
101	104	1
16	20	2
134	134	2
65	65	3
33	33	1
84	84	4
93	95	1
139	144	1
27	105	5
149	149	2
152	152	2
55	55	1
49	55	2
15	15	1
106	106	3
82	82	11
80	81	2
77	77	2
107	107	5
18	18	7
111	112	2
69	70	2
13	13	1
108	109	2
70	70	4
4	5	1
128	128	3
133	133	4
87	87	2
83	83	1
16	16	3
7	8	2
75	75	1
4	4	2
110	120	2
9	10	1
130	130	3
23	29	1
81	82	3
2	2	1
10	10	1
114	126	2
139	140	2
139	141	2
5	6	1
117	118	1
56	56	1
6	6	2
102	102	1
144	145	2
44	158	4
23	23	1
71	71	3
27	28	1
32	32	1
31	31	3
18	20	1
94	94	2
20	21	1
5	43	2
95	96	2
36	38	1
135	135	2
64	64	2
96	98	1
8	8	1
105	105	1
123	125	2
137	137	3
156	157	1
146	146	1
14	14	1
101	102	1
78	79	3
87	88	1
134	137	2
94	141	3
72	72	2
121	121	1
1	1	1
96	96	1
98	98	5
85	85	2
91	91	1
40	41	1
116	116	3
28	30	1
19	20	1
12	12	1
88	88	1
106	107	2
10	11	2
28	29	1
81	81	2
34	34	2
27	27	3
132	133	1
44	44	1
128	134	1
28	107	1
5	5	1
93	93	1
36	36	1
47	47	2
39	40	1
136	137	1
26	29	2
0	1	1
104	104	3
104	129	1
89	89	1
80	80	1
110	110	1
138	139	1
29	29	3
106	120	1
136	136	1
86	118	2
22	22	1
30	124	1
97	143	1
66	69	1
66	66	1
71	157	1
107	111	1
76	76	1
