47	47	9
54	91	1
11	12	2
65	65	8
8	8	8
81	81	13
11	11	3
43	44	10
43	43	12
119	125	3
19	19	11
67	67	3
78	119	7
141	143	6
122	130	6
143	144	1
124	124	13
9	11	4
112	114	2
133	133	19
85	139	2
33	33	8
135	135	21
17	17	17
23	24	3
11	25	4
16	18	1
39	47	3
78	79	8
34	34	9
44	44	12
33	34	3
30	31	8
98	102	2
33	44	5
137	137	24
127	128	10
101	102	1
49	49	15
139	139	13
57	57	19
109	114	2
76	76	7
37	37	21
144	150	3
65	66	1
64	64	11
15	15	5
12	13	10
142	144	4
78	78	10
109	109	12
154	154	4
73	132	3
62	62	11
36	42	1
32	32	7
109	141	2
48	50	3
24	24	24
46	46	23
13	13	23
108	109	4
56	56	7
74	74	9
141	141	5
10	21	3
29	29	6
51	51	18
31	31	8
6	6	11
90	90	3
147	147	9
146	146	15
73	74	2
95	95	11
20	22	6
95	96	6
42	123	3
5	12	4
102	108	1
68	68	18
70	70	17
48	48	12
67	70	4
53	53	12
15	19	4
91	91	10
6	12	1
149	150	3
108	108	21
58	58	6
34	37	3
125	125	10
77	77	1
110	110	13
28	28	13
32	40	3
121	122	7
148	149	4
88	138	3
151	152	5
38	38	5
66	66	5
130	130	20
142	143	5
153	153	20
45	45	17
151	151	13
98	100	2
111	147	7
9	9	6
69	69	12
74	75	2
126	127	13
95	128	1
54	54	14
7	7	18
152	152	9
121	121	20
102	103	8
84	85	3
24	25	6
132	132	28
18	19	11
84	84	4
83	95	1
29	30	1
116	116	9
38	40	2
87	87	12
80	82	3
64	65	5
139	151	4
99	101	2
126	126	7
77	84	1
143	143	5
70	153	3
62	85	1
3	3	9
7	10	2
128	129	13
27	27	14
35	35	6
39	39	10
30	38	4
99	99	15
107	108	11
5	118	1
136	136	27
22	27	3
14	14	9
113	113	11
106	106	10
106	140	1
33	37	1
98	98	11
50	50	11
123	125	5
62	79	3
42	42	17
90	92	5
40	40	15
73	73	15
12	12	11
85	86	4
2	2	4
114	115	7
36	43	3
98	99	3
109	150	7
104	104	17
107	107	26
35	38	8
16	16	14
85	85	6
41	41	4
74	84	5
31	32	7
28	29	5
10	22	1
57	86	2
115	153	3
27	28	6
91	93	3
97	97	9
84	131	1
94	94	12
21	21	20
77	78	7
107	141	3
4	5	3
30	30	6
106	107	6
20	20	11
128	128	12
81	97	1
118	118	26
62	72	3
35	40	3
32	35	10
54	132	2
62	63	1
100	100	9
20	51	4
14	15	3
93	130	5
55	55	9
139	142	1
31	38	2
95	102	1
101	103	1
104	105	5
72	73	5
119	119	15
78	84	7
22	22	11
77	120	2
137	138	2
29	51	3
115	115	2
101	101	4
122	136	6
150	151	9
140	140	4
73	75	4
17	18	4
123	123	5
34	36	1
86	86	9
68	136	4
102	105	4
57	131	5
5	8	2
111	111	10
10	13	3
93	93	22
100	102	2
139	141	3
11	21	3
87	88	2
96	96	14
32	36	9
53	55	4
122	125	2
70	134	1
149	149	6
117	117	11
66	144	1
21	27	2
72	72	6
79	79	3
41	42	7
67	80	4
122	122	6
62	102	1
119	120	6
71	71	9
8	77	1
66	68	3
2	6	1
113	114	1
138	138	6
102	102	18
99	128	6
15	16	9
103	103	14
25	25	20
29	77	3
112	116	3
77	95	2
147	148	12
109	151	5
99	100	13
4	87	2
8	9	4
111	112	7
100	101	5
137	139	1
88	141	4
98	128	2
32	45	3
87	142	1
129	129	20
131	131	8
22	26	1
72	132	4
52	65	1
119	129	4
80	134	1
10	10	4
15	47	2
124	126	4
81	134	1
149	152	3
44	46	4
12	18	2
45	46	2
44	45	2
5	6	3
32	39	4
63	66	4
123	124	6
48	53	3
18	18	20
29	78	3
140	141	2
134	134	10
61	61	1
69	153	2
63	63	6
141	151	3
115	116	4
127	127	7
101	104	2
122	128	3
31	44	3
139	144	3
144	144	4
145	148	3
49	86	3
9	36	2
83	138	3
102	106	1
75	82	6
107	110	1
123	127	3
55	56	4
16	17	6
146	149	2
32	34	3
66	67	2
75	84	2
40	43	4
34	51	3
26	26	6
67	68	2
9	12	1
38	39	2
105	105	3
82	99	4
145	145	5
64	74	2
146	151	2
20	27	2
11	20	1
124	125	4
26	28	2
42	43	7
64	66	3
140	142	1
57	130	3
3	5	1
80	137	1
120	121	4
96	97	6
74	78	1
14	74	2
23	49	2
73	79	3
113	116	3
92	93	4
82	134	2
40	41	5
63	64	3
36	37	4
61	75	2
70	71	4
109	110	3
10	75	1
66	150	2
35	36	6
99	132	2
73	131	1
75	79	5
2	3	1
99	104	3
111	145	1
44	47	3
6	33	1
112	112	7
37	92	3
114	114	9
9	23	4
53	54	6
86	87	7
26	27	5
129	133	2
120	120	4
152	153	3
80	119	1
36	36	5
142	142	8
62	64	2
23	23	7
110	111	7
120	130	1
10	12	4
41	44	6
102	104	2
6	18	2
92	92	8
85	87	3
112	141	1
46	47	2
4	4	11
125	126	3
144	145	3
30	39	1
150	150	2
80	103	2
56	93	1
82	125	2
73	133	1
25	64	2
47	66	8
71	133	1
20	28	4
10	78	1
131	132	5
103	104	6
50	51	2
96	133	3
15	18	4
23	38	2
22	39	2
81	82	4
80	80	2
54	100	3
122	129	6
30	40	1
86	131	3
5	5	3
36	45	6
56	57	1
31	40	3
84	86	1
105	106	3
23	37	1
38	42	1
49	87	1
106	110	2
92	130	4
57	90	3
9	10	3
120	135	1
93	94	4
25	26	1
114	117	2
76	77	1
78	120	2
47	48	5
119	122	4
12	74	2
33	35	3
119	121	1
77	79	1
141	142	7
111	141	2
74	79	1
94	133	1
97	98	3
17	21	2
80	81	3
13	15	1
134	135	2
37	90	1
94	95	4
42	93	1
133	136	1
27	31	2
22	78	4
7	18	1
32	38	2
27	29	2
42	101	2
119	124	3
118	131	2
100	119	6
139	143	1
106	142	1
45	132	2
49	97	1
139	147	4
34	35	1
110	134	1
9	15	1
9	13	1
116	132	3
67	84	2
19	21	1
116	152	1
23	25	5
108	142	2
120	123	2
65	82	2
10	45	3
82	82	4
69	136	2
87	139	1
62	93	1
37	38	1
78	130	2
122	124	1
6	7	4
131	133	1
99	127	2
110	146	1
109	111	1
37	40	1
32	33	1
127	144	1
24	96	2
91	92	1
100	130	1
40	48	1
91	94	1
66	143	6
17	20	1
13	25	2
123	128	2
127	147	2
123	126	3
94	96	1
30	44	1
148	148	3
150	152	2
12	32	1
80	102	2
101	132	1
68	146	1
51	76	1
119	137	1
145	146	1
20	21	3
14	16	2
70	118	2
83	85	2
72	83	3
97	129	2
142	151	1
42	44	1
72	133	1
144	148	2
126	128	1
141	152	3
78	127	1
43	125	1
112	113	3
82	127	1
56	90	1
81	83	1
21	25	1
43	92	1
109	146	2
98	127	1
88	88	1
33	56	2
94	98	1
73	84	1
130	131	1
7	35	1
24	49	2
143	150	1
78	85	1
49	72	3
98	130	1
89	92	1
65	145	1
3	18	1
45	55	1
8	10	1
49	61	1
88	112	1
105	108	1
95	100	2
136	153	1
48	51	1
81	99	1
108	151	1
98	123	1
24	74	2
29	40	1
68	69	1
85	111	1
13	64	1
51	56	1
38	44	2
74	77	1
12	21	1
17	19	1
7	11	1
47	67	1
34	48	2
126	145	1
103	105	1
84	119	1
82	135	1
37	97	1
63	84	1
69	133	1
48	49	1
98	101	1
54	134	1
31	39	1
41	100	1
28	30	1
80	138	1
38	47	1
95	130	1
75	76	1
23	94	1
46	86	2
68	153	1
105	142	1
79	80	1
72	129	1
110	147	1
35	37	1
65	73	1
15	140	1
108	111	1
55	57	1
