173	173	10
21	21	12
175	175	4
152	153	5
85	85	9
47	47	6
84	84	8
48	48	17
236	237	8
229	231	2
27	27	12
29	29	6
237	237	3
113	113	5
219	219	13
39	39	10
21	22	1
4	4	3
199	199	10
38	38	9
11	11	22
231	231	8
40	237	3
78	144	4
74	180	2
160	187	2
138	139	3
105	105	8
10	10	8
69	69	5
66	68	6
172	172	20
116	119	4
163	198	4
180	180	5
20	20	8
16	17	5
225	225	5
64	64	10
202	202	13
120	122	1
5	6	4
41	69	4
113	114	2
232	232	15
185	185	6
150	150	4
193	193	5
208	237	1
89	103	5
150	151	11
163	163	10
122	122	7
80	80	12
149	150	6
126	126	11
15	15	7
9	9	11
221	223	2
62	62	10
3	4	3
117	119	3
5	5	9
50	50	5
194	195	6
183	183	11
217	218	6
69	238	2
174	175	2
82	83	4
127	175	2
161	161	5
199	214	1
121	152	3
239	240	1
240	241	5
242	242	8
13	15	3
118	118	6
98	99	6
207	207	9
6	16	3
30	30	6
86	237	3
151	151	9
64	65	9
0	11	4
32	32	8
205	206	4
191	191	3
167	167	6
28	28	10
109	110	4
53	53	6
23	24	3
56	56	4
194	197	3
74	74	14
185	206	2
147	148	5
203	204	6
68	239	6
226	226	10
54	54	6
31	31	2
138	138	9
190	190	3
146	147	9
36	37	15
210	211	4
78	80	2
206	207	4
119	119	3
67	68	6
7	9	6
12	12	13
127	127	7
197	197	5
98	101	1
86	86	5
112	113	4
241	241	17
133	133	2
149	149	6
220	233	2
42	42	16
72	72	4
79	79	2
120	120	5
24	24	11
122	138	4
26	26	9
153	153	6
11	39	3
125	126	5
220	220	6
192	192	2
81	81	9
205	205	8
2	2	8
195	196	1
18	20	2
109	109	8
59	59	4
240	240	5
181	181	11
141	168	5
160	160	6
201	202	1
169	170	2
235	235	15
241	242	3
152	160	2
141	142	2
157	157	4
192	194	3
145	146	5
162	162	11
102	111	1
62	63	6
11	42	5
131	131	2
143	143	6
163	164	1
230	230	9
74	179	2
153	157	4
48	54	5
174	174	6
43	54	1
123	139	3
29	31	2
146	146	7
39	40	6
170	202	3
60	60	11
227	227	8
182	182	4
176	176	4
200	201	7
66	66	3
222	222	15
199	223	2
117	146	2
14	14	3
219	220	1
206	206	8
158	158	5
130	130	2
120	127	1
170	170	9
3	3	2
19	30	8
210	233	3
78	192	3
158	190	2
1	29	5
11	31	1
139	140	2
128	128	9
98	98	1
101	101	4
101	102	5
59	60	4
125	125	7
102	102	2
178	178	12
212	212	6
121	206	2
40	40	5
124	124	3
129	134	5
166	166	3
120	125	2
70	70	6
179	179	4
18	19	6
218	218	8
225	226	3
235	236	3
227	235	3
24	32	1
177	178	1
54	55	3
160	191	4
41	66	2
25	25	3
25	39	4
223	223	3
211	211	2
24	25	3
233	233	8
135	135	4
73	73	4
189	189	4
81	204	2
123	123	6
114	115	3
101	141	2
66	235	1
8	17	3
107	108	2
49	49	1
236	236	1
46	50	5
55	55	3
230	231	1
106	131	3
32	34	2
145	145	10
169	169	4
82	152	1
154	167	1
3	31	1
237	241	2
78	168	1
43	43	9
0	0	1
199	200	1
140	141	4
43	241	5
26	27	4
141	141	3
106	107	1
198	198	6
111	112	7
5	31	4
52	52	4
173	189	5
152	152	4
8	8	13
0	12	3
18	18	4
3	241	3
154	164	3
221	221	6
65	65	5
201	201	2
97	97	1
68	68	5
173	174	1
15	17	4
224	224	6
208	208	5
74	170	3
34	34	4
160	190	4
217	217	3
186	186	3
154	154	5
169	174	3
61	61	11
9	42	1
7	7	1
177	177	3
222	235	2
91	91	4
9	43	2
6	227	3
2	3	9
139	142	2
77	78	1
179	180	3
5	16	3
104	107	1
187	187	6
203	203	9
55	65	3
151	153	3
146	198	2
15	228	4
121	121	9
20	21	2
9	41	2
214	214	2
69	70	4
88	88	1
77	168	2
115	137	4
18	21	1
19	34	3
213	213	3
165	165	9
138	141	4
195	195	4
157	159	3
111	111	3
3	5	2
34	35	5
33	34	4
161	168	3
124	129	1
139	139	3
27	28	1
198	199	2
239	239	2
23	23	4
7	62	4
45	45	12
118	119	3
9	240	1
20	36	1
46	46	3
22	22	7
138	146	1
58	58	6
189	191	3
64	72	2
142	142	2
134	134	3
47	48	1
13	16	1
210	210	1
13	13	2
19	19	1
124	125	4
76	76	2
126	127	1
196	196	6
51	53	5
206	231	3
77	77	6
214	217	2
58	59	1
209	209	3
45	50	3
104	104	4
221	235	3
14	15	3
19	31	5
208	211	1
78	78	3
224	225	1
12	14	1
20	227	4
116	116	7
153	191	1
16	16	3
6	6	2
151	164	3
30	228	1
120	137	6
122	123	2
180	184	3
153	154	3
121	122	1
0	31	1
238	238	2
44	45	3
59	225	3
24	178	1
27	46	1
168	168	4
17	17	3
33	36	1
215	222	1
22	30	2
216	216	1
115	149	1
48	56	1
123	138	3
122	168	1
184	184	3
122	124	1
31	227	1
69	240	2
51	51	3
147	147	5
164	164	2
162	202	1
105	106	1
188	191	1
50	54	1
212	213	2
8	237	1
194	194	4
81	138	4
228	228	2
7	65	1
126	135	4
137	138	4
4	28	1
44	44	5
177	185	2
204	204	3
137	137	1
184	185	4
187	191	2
67	97	1
129	130	2
115	115	2
43	242	1
1	1	1
3	33	1
89	96	1
180	232	1
84	125	1
67	67	2
59	200	2
125	127	2
129	133	2
4	5	2
197	212	1
9	39	1
171	171	2
106	106	1
120	121	2
176	186	1
8	234	2
180	182	1
171	172	1
99	100	4
170	171	3
65	69	1
81	82	4
35	35	2
15	62	2
156	156	2
159	160	2
112	112	2
113	115	2
159	159	4
115	116	1
208	215	2
79	84	2
225	232	1
0	2	1
121	194	1
222	223	1
89	89	1
61	62	3
234	235	1
24	30	1
99	99	2
214	215	1
116	117	1
129	129	3
136	144	1
75	75	3
29	30	1
3	29	3
171	179	2
51	52	1
50	53	1
236	238	1
180	181	1
183	230	2
121	138	1
221	222	1
26	37	2
49	51	1
125	129	1
17	229	1
71	71	1
100	101	1
37	37	2
114	114	2
206	233	1
214	216	1
198	232	1
7	55	2
172	173	1
66	240	1
86	98	2
28	29	1
176	185	1
74	171	2
176	178	1
103	105	1
178	179	2
39	228	1
68	69	1
44	53	1
40	65	1
177	181	1
78	124	1
103	103	2
79	192	1
145	147	1
20	32	1
14	57	1
228	229	1
213	221	1
