80	81	4
107	107	6
33	61	3
103	103	3
32	32	7
75	76	2
34	85	2
73	76	2
27	27	2
51	51	13
105	105	13
47	48	5
19	86	5
23	29	5
90	90	12
94	102	3
60	60	7
41	42	4
37	38	4
61	73	2
111	112	3
81	98	2
41	41	5
34	86	1
76	99	3
51	52	1
22	22	2
25	25	8
108	108	8
96	96	5
73	73	4
80	80	4
77	77	2
38	69	5
61	61	2
50	90	4
50	50	4
32	33	4
74	79	1
39	39	5
59	60	2
87	87	1
50	51	3
90	102	3
30	30	2
58	58	2
94	95	1
94	96	4
42	42	4
43	43	1
40	40	1
64	64	2
59	75	4
57	59	3
105	106	5
30	37	2
28	28	4
76	76	4
83	83	4
107	108	2
112	112	2
96	97	2
42	43	2
91	91	4
23	23	1
26	26	11
99	99	2
98	100	1
100	101	1
43	58	3
20	34	1
66	66	2
53	53	2
47	57	3
55	56	3
39	44	1
72	72	1
97	101	6
36	100	1
49	49	2
21	21	2
67	67	2
36	101	1
76	78	1
29	29	2
24	31	4
68	68	3
62	62	7
111	111	6
73	74	3
43	53	4
93	93	5
65	65	4
35	36	5
84	85	6
76	77	7
24	24	3
77	78	2
41	47	4
57	57	1
20	32	2
74	77	2
62	63	1
88	89	4
27	59	1
34	34	1
95	95	4
93	94	2
104	104	3
20	20	3
109	109	5
54	55	1
51	76	2
59	59	2
60	97	1
21	88	1
40	41	4
46	46	6
80	98	2
79	79	4
103	105	1
85	86	1
37	98	2
64	70	2
85	85	1
84	84	5
38	78	2
109	112	2
71	71	3
37	91	3
98	99	1
19	58	3
82	82	1
89	89	1
100	100	3
64	65	2
90	91	1
47	47	1
53	60	1
86	87	1
41	44	1
114	115	2
60	62	1
25	26	1
59	69	1
30	40	3
87	89	1
33	73	3
21	23	1
34	113	1
66	67	2
101	101	1
29	97	1
110	110	2
70	83	1
34	83	1
37	48	1
36	36	2
55	84	1
95	96	2
37	37	3
74	75	1
69	72	2
37	101	1
91	102	1
53	69	1
45	45	3
86	88	1
56	57	2
106	106	2
55	55	1
70	80	2
24	27	2
71	74	1
32	96	1
45	48	1
30	101	2
19	19	1
52	69	1
80	97	2
84	86	1
94	94	2
59	62	1
52	53	1
32	102	1
75	77	1
114	114	1
87	88	2
58	77	1
46	49	1
20	31	1
106	107	1
67	75	1
108	109	1
92	94	1
35	35	2
27	28	1
97	97	1
59	74	1
75	75	1
