104	104	3
8	20	1
21	22	7
14	18	3
53	54	1
157	160	2
22	38	3
186	186	9
81	81	4
125	177	3
116	116	6
85	85	7
180	183	1
91	91	4
40	41	3
114	125	4
16	30	2
146	146	3
128	128	3
82	85	3
67	77	1
165	168	4
121	176	4
109	109	4
184	186	2
29	29	5
20	29	2
164	165	11
76	79	3
63	177	2
153	154	3
132	136	2
161	161	3
142	142	5
14	21	1
130	130	6
99	102	2
77	78	2
148	154	3
12	12	3
18	24	1
15	15	4
184	184	7
23	24	2
173	173	7
68	68	10
175	187	3
87	90	5
167	167	7
178	178	12
139	146	4
164	164	3
39	39	9
27	30	3
33	35	6
177	179	5
12	13	1
77	77	8
60	64	1
165	171	2
98	101	1
146	155	3
6	6	7
107	107	5
110	111	4
2	141	1
67	67	3
178	179	5
64	123	2
137	142	2
46	46	2
65	65	3
100	100	9
117	117	4
39	48	2
145	145	4
36	37	4
60	176	3
11	14	1
6	8	1
144	146	1
96	99	2
78	78	7
167	171	3
40	43	3
169	169	3
25	26	4
171	172	2
131	134	1
35	44	3
77	83	3
95	95	5
57	57	8
48	48	2
176	176	3
13	13	7
10	10	9
147	147	1
78	106	1
18	29	1
99	100	3
151	160	2
84	98	4
110	117	5
153	153	9
78	86	2
80	81	3
44	46	7
101	101	4
186	187	1
12	18	3
78	79	7
138	138	5
158	158	3
143	143	4
175	175	3
156	163	1
57	62	3
133	144	2
139	139	5
2	2	3
98	98	1
0	15	1
152	154	2
12	171	6
0	9	1
6	7	2
38	38	8
1	1	2
22	22	3
97	98	4
160	169	4
162	162	1
127	127	1
27	29	1
80	82	1
113	114	2
166	167	2
25	27	4
4	4	2
119	119	5
120	122	2
117	124	1
56	56	10
45	46	3
46	48	1
143	147	2
152	152	1
67	71	1
124	124	9
124	132	5
28	36	3
182	184	4
25	156	2
21	38	2
22	23	3
75	76	6
57	65	2
186	188	3
44	45	5
42	42	6
36	38	1
18	20	3
129	129	7
44	44	1
35	43	1
54	62	4
96	108	1
167	173	3
36	44	3
11	12	6
36	43	1
156	156	2
149	152	5
162	168	1
31	34	1
82	91	7
140	150	3
28	42	3
139	142	2
122	122	3
89	89	2
23	23	2
84	88	1
5	10	2
19	19	3
25	25	5
171	175	1
88	93	5
35	36	2
21	21	4
114	128	2
58	60	4
20	21	1
86	94	4
180	184	2
81	86	1
165	174	2
67	68	3
81	83	3
16	16	2
157	157	2
122	125	3
151	151	2
89	91	3
13	15	2
75	109	1
28	28	5
141	141	3
112	119	2
27	42	3
185	190	2
4	5	2
80	80	6
74	74	4
169	170	1
121	121	1
166	175	2
53	60	1
84	84	1
17	18	2
135	135	7
169	182	2
72	84	1
158	161	1
106	106	6
74	76	4
164	173	1
140	140	5
118	125	4
120	120	2
61	61	2
41	41	4
93	93	2
65	78	2
177	177	3
113	113	7
40	40	1
18	18	4
164	171	3
111	113	3
114	114	2
91	105	3
187	187	1
32	36	1
79	80	1
146	160	2
126	140	4
91	112	3
91	94	1
184	188	1
109	110	2
6	12	2
89	95	1
16	23	1
5	5	2
22	24	1
174	177	1
66	66	2
137	137	4
102	102	5
118	122	1
181	186	3
183	185	1
159	172	2
124	126	1
10	11	2
12	16	1
108	119	2
28	29	1
12	34	1
79	79	1
26	26	1
13	184	1
66	88	2
53	57	1
160	160	2
8	8	1
115	115	4
27	28	4
36	42	1
121	130	2
163	165	2
65	126	4
185	187	1
38	46	1
11	11	1
1	2	2
140	144	3
17	17	4
126	127	2
71	72	3
126	126	3
136	136	2
116	126	2
65	66	2
116	127	2
154	155	3
76	76	3
132	158	1
105	106	2
14	14	1
16	21	3
52	63	1
72	80	1
5	11	2
153	163	1
140	149	1
150	151	2
99	99	4
74	96	2
111	111	3
90	95	3
43	43	1
92	94	1
133	134	1
83	83	2
47	47	2
64	64	1
86	99	1
157	165	1
1	5	1
0	4	1
157	161	1
62	62	3
15	16	2
17	23	4
179	179	1
173	185	2
114	118	3
10	33	1
146	154	2
175	176	2
3	3	1
158	159	1
174	175	1
170	170	3
92	96	1
134	134	1
116	124	2
27	27	2
110	113	2
94	95	2
31	38	1
79	105	1
124	143	4
94	97	1
38	39	1
154	156	4
72	83	1
122	123	1
182	182	2
99	101	1
169	171	2
109	117	2
130	140	2
166	166	2
120	123	1
16	29	1
74	77	1
152	153	1
187	190	1
144	160	1
18	22	1
33	37	1
131	132	2
160	162	1
67	76	1
82	84	1
88	88	1
71	75	2
115	120	3
109	131	1
88	89	2
34	35	2
79	130	1
149	157	1
175	177	2
45	45	1
83	131	1
177	180	4
147	156	2
103	107	1
125	127	1
7	7	2
182	183	3
25	39	2
32	38	1
183	184	1
4	56	1
47	48	2
101	110	1
33	33	1
12	14	1
20	31	4
91	113	1
2	5	2
128	136	1
63	63	1
76	124	2
30	37	1
126	142	1
165	165	5
66	69	1
172	172	1
35	35	1
154	154	2
96	109	1
171	171	1
89	90	1
104	105	3
101	102	2
114	124	2
149	150	1
36	36	1
58	58	3
59	59	1
141	179	1
64	67	1
144	156	1
77	85	1
105	108	1
112	112	2
146	148	1
176	177	1
118	127	1
94	94	1
43	84	1
82	90	1
53	53	1
118	126	1
155	158	1
43	44	1
149	153	1
43	47	1
123	126	1
69	83	1
72	81	2
96	96	2
64	65	1
138	142	2
0	154	1
162	164	1
171	181	1
165	178	1
108	120	2
183	186	1
70	70	2
149	149	1
36	41	1
59	64	2
53	56	1
90	97	1
87	156	1
121	124	1
23	82	1
135	138	1
141	156	1
142	143	1
3	16	1
69	101	1
84	85	1
37	45	1
82	82	1
148	153	1
52	53	1
10	12	1
152	169	1
160	170	1
120	176	1
167	168	1
144	147	1
105	107	1
131	131	1
37	37	1
150	150	1
16	20	1
153	155	1
