138	139	1
10	10	6
69	69	4
4	4	3
126	126	5
80	80	7
71	71	5
126	127	4
117	117	7
88	88	4
26	26	10
129	129	6
101	101	9
53	53	4
69	70	1
158	158	7
90	91	8
39	42	3
20	31	1
24	24	6
156	156	5
82	82	3
95	95	3
6	7	1
147	150	2
9	9	5
84	85	2
8	8	9
87	87	5
141	141	4
77	77	12
20	20	5
47	48	6
68	69	1
46	46	7
103	103	2
140	140	8
110	110	6
29	29	7
96	96	8
63	65	1
43	43	7
3	3	3
95	96	9
14	16	5
7	7	4
7	8	1
11	11	6
157	157	2
31	31	1
12	32	1
84	84	6
156	157	2
75	75	5
78	110	1
137	138	3
0	1	2
51	52	5
30	36	2
86	87	3
33	41	2
119	120	4
52	52	6
1	2	1
131	131	10
130	130	9
68	68	4
47	47	2
37	37	1
98	98	4
16	17	1
105	105	2
107	107	8
134	134	7
123	123	2
44	44	4
38	38	7
13	13	6
40	41	7
35	35	4
6	6	6
21	21	6
23	63	3
3	4	3
152	152	2
116	116	3
79	79	5
65	65	4
121	121	1
146	150	1
141	146	6
29	30	2
38	42	1
140	141	3
106	131	1
23	24	5
30	30	10
12	12	6
25	26	2
73	73	2
97	97	3
133	133	4
34	34	5
5	5	1
125	125	4
83	83	3
67	70	1
28	29	2
109	110	3
42	42	7
137	142	2
112	112	1
49	52	6
122	122	6
67	68	2
112	113	4
94	95	1
65	66	1
16	16	6
93	94	2
143	143	3
32	32	3
9	17	5
109	109	1
14	14	4
47	68	1
36	36	2
23	23	2
21	22	2
51	88	2
142	142	3
50	50	6
66	66	1
81	81	3
104	105	3
89	126	3
113	113	3
158	159	1
136	136	2
78	79	5
8	107	2
148	148	4
121	131	3
92	92	5
151	157	1
100	100	4
39	39	1
48	48	6
88	89	4
112	127	1
76	101	1
17	17	3
106	106	2
90	90	1
6	76	1
49	53	1
91	91	3
86	86	7
41	41	1
45	45	3
154	156	1
89	89	3
151	151	1
35	43	1
152	154	1
108	108	3
19	19	2
140	148	5
74	74	3
128	128	6
63	63	3
38	110	1
155	155	2
27	27	4
139	139	8
55	55	1
27	28	1
147	151	3
89	127	2
33	33	4
118	118	2
53	54	4
62	69	2
18	18	2
124	124	6
120	120	8
67	67	1
40	56	1
91	92	1
127	127	6
68	72	1
2	11	1
28	28	8
21	41	3
94	94	1
112	119	2
81	118	4
149	149	2
115	132	1
150	150	2
137	137	4
117	118	3
132	132	2
85	85	2
129	130	3
147	147	3
33	34	1
111	112	1
79	80	3
99	100	1
23	30	1
2	83	1
2	4	1
106	107	2
64	64	1
33	35	1
75	126	1
40	40	1
95	97	2
78	81	2
111	130	1
20	41	2
120	121	4
131	132	1
138	138	3
146	146	1
99	99	2
18	19	1
7	29	1
22	36	1
25	25	3
4	84	1
1	11	3
72	72	1
70	70	2
135	135	4
2	2	1
70	71	1
111	111	1
101	102	2
32	33	1
19	20	2
8	84	1
41	42	1
31	32	2
34	57	1
80	119	2
64	70	1
153	154	1
57	57	1
71	72	1
20	21	1
93	93	1
4	13	1
54	54	1
114	134	1
135	136	1
102	102	1
123	124	2
146	149	2
24	45	1
85	86	2
125	126	1
110	111	1
8	10	1
11	16	1
114	119	1
81	116	1
9	10	1
108	109	1
137	150	1
