85	85	6
18	18	6
232	232	8
51	69	5
197	197	8
244	244	6
48	95	2
153	154	5
35	36	1
32	32	7
54	55	2
10	10	5
6	6	3
21	33	1
159	160	3
166	167	2
19	43	3
153	249	3
164	164	3
243	243	2
14	31	1
224	224	1
226	227	3
103	111	1
66	66	7
27	27	4
187	197	2
24	25	5
34	35	2
115	115	4
216	219	2
61	61	4
200	200	5
160	164	3
173	176	5
1	29	2
3	21	5
227	228	4
152	165	2
245	248	4
220	222	3
34	34	2
112	112	5
68	68	11
246	248	3
64	64	5
5	5	5
59	64	3
213	236	4
17	17	10
23	23	2
73	76	1
182	182	1
71	73	4
8	8	11
206	206	5
155	155	3
78	78	9
234	234	3
151	155	2
162	180	3
237	237	2
7	7	5
97	97	6
173	194	2
150	175	2
78	87	2
244	247	5
214	220	5
2	2	3
203	223	2
188	191	6
21	35	1
45	45	12
216	233	1
83	94	2
10	11	1
55	56	3
90	90	7
42	52	4
49	68	2
62	76	1
221	221	6
116	116	6
203	203	1
195	225	1
189	208	1
91	97	1
35	61	3
67	83	4
181	208	4
85	114	2
35	35	6
204	204	7
81	81	3
192	225	2
157	157	4
39	40	7
38	116	2
12	14	4
194	207	1
12	17	1
55	89	4
109	109	1
105	105	2
52	55	1
57	57	3
77	77	6
76	76	9
155	156	5
179	212	5
173	178	3
62	66	2
189	190	4
71	74	3
151	166	3
205	205	4
186	186	5
240	244	3
24	34	3
108	118	1
35	40	2
84	84	5
83	83	1
202	202	4
9	12	1
151	151	5
226	236	3
36	42	4
102	116	3
30	30	3
15	15	7
61	65	5
235	237	2
103	103	4
219	238	2
165	173	2
227	227	4
58	61	2
193	196	4
2	15	1
172	174	2
215	217	2
241	241	2
9	9	3
197	199	8
176	177	1
156	157	1
99	99	11
237	242	3
51	51	1
243	245	3
40	61	2
90	106	1
59	69	3
12	20	3
110	114	2
25	25	1
34	107	3
220	236	1
193	211	2
6	15	4
203	231	1
17	38	4
178	178	6
44	44	2
69	69	4
116	117	3
171	171	2
101	102	1
57	76	2
231	231	4
197	198	1
228	234	1
211	211	1
208	220	3
36	46	1
246	249	3
28	28	5
170	190	2
196	204	5
12	22	7
98	98	3
72	72	5
54	54	2
159	159	5
38	38	9
180	187	3
14	19	2
32	41	7
225	225	5
63	68	1
150	150	6
36	45	2
112	114	3
245	246	8
34	37	3
90	92	1
231	232	4
169	180	1
72	79	3
158	158	4
106	119	1
41	47	1
242	242	7
151	173	1
42	89	4
246	246	2
21	21	3
169	169	1
168	168	6
49	60	2
187	187	3
247	247	2
11	26	1
201	216	2
78	107	1
91	93	1
110	144	2
32	33	1
235	235	2
85	109	1
42	42	5
167	167	4
74	74	2
87	87	5
8	10	1
82	83	1
215	215	2
167	168	3
157	165	2
37	244	2
92	111	1
179	181	5
230	231	1
20	20	10
220	235	4
22	22	2
107	119	4
238	241	2
95	111	1
22	90	3
209	209	9
201	214	1
176	193	3
150	151	1
156	156	10
212	212	3
208	208	3
184	246	1
158	211	2
110	110	7
96	97	1
161	164	4
14	14	4
160	161	2
155	158	1
67	67	8
97	98	4
50	61	4
169	183	3
154	154	6
118	241	2
186	224	1
110	111	1
16	20	2
1	247	2
201	202	6
237	244	2
8	9	1
77	79	1
170	170	5
86	103	2
145	149	2
213	214	1
228	228	3
47	47	4
11	11	5
65	65	4
77	105	1
37	243	1
218	222	1
47	99	2
43	44	2
178	179	1
36	54	1
96	100	1
49	49	1
153	212	1
37	37	2
220	221	2
56	56	3
37	44	1
211	224	2
233	233	5
33	37	2
150	174	2
214	216	1
218	218	4
101	108	1
58	63	1
152	184	1
91	94	2
11	14	4
184	184	1
180	180	7
146	150	2
236	236	3
92	99	1
187	190	1
99	103	3
30	32	2
216	216	1
15	28	2
52	53	1
82	82	2
192	192	5
239	239	3
162	162	3
80	81	1
106	117	2
89	89	2
200	214	1
194	210	1
186	205	1
4	19	1
73	88	2
240	240	1
10	28	6
43	43	2
113	113	4
215	237	1
150	165	1
181	184	2
16	33	1
217	241	3
145	145	3
117	117	3
204	219	2
213	223	1
87	88	5
70	72	5
27	28	5
92	92	2
232	234	2
2	10	3
220	229	2
217	217	3
14	21	3
229	237	1
241	243	3
86	101	1
17	245	1
76	78	1
111	115	2
58	58	2
119	119	3
41	56	2
208	239	1
41	44	1
241	248	1
181	181	2
175	190	3
160	160	3
214	214	1
185	185	3
10	12	2
172	183	1
17	35	2
89	101	1
177	177	1
80	98	1
195	195	1
233	234	2
9	10	2
11	71	1
203	213	3
55	55	4
218	239	1
38	39	2
116	120	1
14	17	3
81	96	3
114	114	3
243	246	2
219	219	3
180	181	2
4	4	3
48	99	1
190	204	4
95	99	5
108	109	2
59	59	3
51	58	1
3	237	3
100	100	4
102	103	2
83	93	4
186	188	2
162	165	3
204	205	4
207	222	1
213	218	5
193	210	2
3	3	1
169	170	3
93	109	1
63	63	1
1	3	2
32	90	1
4	18	2
106	106	3
88	93	1
89	90	1
163	164	2
236	238	1
202	205	1
183	205	1
8	29	3
232	236	1
213	224	1
232	244	1
1	11	1
201	218	2
162	179	1
171	191	1
232	241	1
183	184	1
102	118	1
179	185	1
96	96	4
77	101	1
154	155	2
198	207	1
57	71	1
234	235	1
12	54	2
226	226	1
78	90	1
209	210	1
34	106	1
166	166	3
173	173	3
117	118	1
40	40	1
39	39	1
40	41	2
51	101	4
15	90	3
201	201	1
236	237	1
71	71	1
103	241	1
229	229	2
159	171	1
17	18	1
28	53	1
14	40	1
61	75	2
25	76	1
220	220	2
111	111	1
62	99	1
236	246	1
197	207	1
54	56	3
16	45	1
203	246	2
101	107	1
77	104	1
44	46	1
74	79	2
13	27	1
194	194	1
57	61	1
204	209	2
30	31	2
175	178	1
232	246	1
146	161	2
55	61	1
107	107	1
222	239	1
20	21	2
91	91	1
108	119	1
177	180	3
118	118	1
80	89	2
183	183	4
244	246	2
105	117	1
151	156	1
164	214	2
211	212	2
152	152	2
222	222	1
247	248	1
38	53	1
32	45	1
94	94	1
76	105	1
245	245	1
174	192	2
22	35	1
227	230	1
226	229	1
50	60	1
218	234	1
6	25	1
36	36	1
172	175	2
212	213	1
18	21	1
70	86	2
151	165	1
26	26	1
198	198	2
175	175	1
17	32	1
150	171	2
79	100	2
168	184	2
97	114	2
95	95	2
172	172	1
111	117	2
192	205	1
84	114	1
82	94	1
149	163	2
167	170	1
171	172	2
5	42	1
65	67	1
26	27	1
183	207	1
29	29	1
97	99	1
78	96	1
36	44	1
27	201	1
112	121	3
146	147	1
215	221	1
90	91	1
85	86	1
166	169	1
71	72	2
16	40	1
149	149	1
152	172	1
146	160	1
206	207	2
53	54	1
194	195	1
219	229	1
87	114	1
218	219	1
199	213	1
65	66	1
151	169	1
16	36	1
50	50	1
230	230	1
186	209	1
84	88	1
2	7	1
