31	31	4
118	119	3
86	91	3
21	21	10
73	73	23
60	60	10
30	31	2
69	69	5
1	1	4
127	127	5
124	124	3
19	19	3
43	43	9
3	4	6
7	7	11
85	85	4
6	6	18
52	52	2
74	76	11
133	133	3
33	33	14
67	67	5
99	99	4
63	76	7
77	77	10
79	80	2
65	68	5
22	22	6
125	130	1
71	73	1
45	45	3
65	104	3
88	88	7
31	32	5
77	78	4
32	33	2
81	92	4
118	120	5
46	51	1
91	91	6
23	23	3
20	20	6
114	114	12
105	105	14
22	23	3
57	59	3
131	131	13
126	134	8
67	111	2
76	76	3
3	3	3
92	92	9
134	134	3
27	27	13
11	11	4
97	122	2
80	81	6
104	104	8
81	81	13
5	5	5
63	64	13
108	109	6
28	28	1
5	7	2
115	115	14
112	112	2
72	72	4
122	122	14
12	12	10
123	123	6
70	124	4
53	62	2
83	85	5
35	38	3
129	133	10
90	90	9
72	73	1
50	84	1
103	104	3
64	64	17
29	29	3
101	103	4
96	122	1
35	35	5
119	119	3
84	84	5
24	24	9
114	115	2
30	30	4
5	9	2
130	133	3
17	17	8
103	103	7
11	12	3
130	130	3
53	63	3
80	80	4
98	98	9
101	101	2
77	79	2
16	16	2
14	14	3
22	24	6
63	63	4
97	97	11
118	118	4
74	74	10
120	120	9
27	30	2
94	123	4
0	1	1
94	94	8
113	114	3
106	107	3
19	22	5
78	78	3
34	34	2
17	18	3
16	22	1
67	106	3
11	18	1
66	108	2
20	24	1
125	125	5
93	93	5
104	114	1
61	61	5
17	21	1
88	92	4
124	133	1
87	87	4
25	25	4
53	91	1
30	32	2
117	117	3
96	97	6
113	113	4
117	122	3
48	84	3
96	101	3
77	84	1
99	100	1
92	93	1
126	126	5
124	126	2
9	9	2
37	38	3
102	102	4
66	68	2
110	110	6
64	114	4
18	18	7
106	106	4
56	125	2
134	135	1
95	95	4
1	2	1
0	35	2
50	50	2
111	111	2
0	34	3
71	72	3
83	83	3
0	0	4
71	71	7
132	132	4
125	133	1
1	4	1
9	10	1
79	79	9
62	62	2
13	13	3
129	131	2
2	2	3
59	59	5
64	112	3
105	126	2
70	70	1
89	114	2
89	89	9
108	108	1
44	44	2
105	106	2
106	126	2
67	110	2
97	98	1
125	132	2
59	60	4
54	55	2
86	86	2
32	32	7
121	122	3
127	128	2
62	79	2
97	121	2
122	123	3
68	106	1
53	53	2
68	107	2
116	116	3
52	53	1
55	56	2
74	75	1
33	34	4
61	79	1
81	82	1
69	70	1
55	55	2
107	107	3
28	29	2
5	6	1
80	82	1
75	75	1
89	90	1
96	96	1
109	109	1
102	103	1
96	99	2
57	57	1
65	126	2
65	112	1
19	20	2
50	83	1
38	38	1
70	71	1
35	36	1
46	46	4
4	27	1
65	69	1
97	99	1
56	57	1
80	92	1
65	67	2
6	7	1
20	21	1
121	121	1
21	26	1
129	129	2
47	87	1
65	65	2
109	110	1
7	8	1
69	127	1
107	109	1
98	99	1
95	96	1
66	66	1
107	125	1
117	120	1
101	117	1
58	129	1
27	28	1
