57	57	11
7	11	5
19	20	4
137	154	3
158	158	13
14	14	6
22	39	2
127	133	2
156	156	3
139	139	9
107	116	3
136	136	5
86	91	1
54	54	10
0	122	1
96	96	4
24	56	1
157	157	12
105	105	5
165	165	9
140	145	3
125	130	3
160	163	2
98	98	5
65	67	4
91	91	3
1	75	2
4	5	1
125	138	1
133	133	8
122	124	2
137	138	6
118	126	2
68	68	2
113	113	7
7	13	2
110	120	1
4	14	3
164	166	1
18	110	6
39	39	5
42	45	1
10	39	7
131	136	2
134	137	2
4	6	1
55	56	13
161	161	2
96	146	7
36	36	5
36	44	5
5	5	7
52	150	2
36	45	2
134	135	4
35	49	2
115	131	3
127	127	16
36	38	2
47	47	4
23	23	6
79	79	4
130	130	10
87	99	3
83	83	7
103	158	2
97	103	1
139	148	2
85	86	6
0	6	5
150	150	11
124	124	4
19	71	5
118	118	11
138	138	8
37	41	5
86	96	4
43	50	3
38	53	1
167	167	8
22	22	2
148	148	7
86	86	4
93	93	2
3	3	5
41	41	7
89	91	1
7	7	7
82	82	7
26	79	2
102	102	3
135	139	2
101	102	5
45	45	9
88	97	2
89	89	4
126	143	1
4	62	5
78	94	2
162	165	6
111	133	2
114	130	1
154	154	2
27	27	14
52	52	4
110	112	3
145	146	5
127	129	1
148	160	2
48	48	8
162	162	5
69	69	4
18	35	7
166	166	3
100	100	4
128	140	1
100	103	2
119	119	2
169	170	1
108	116	4
20	20	5
46	54	1
126	126	4
107	143	2
42	42	5
128	137	2
23	24	3
67	81	1
87	88	4
95	103	1
111	111	2
159	160	4
7	16	5
136	139	4
147	147	3
62	63	2
81	82	3
13	13	10
146	147	2
9	13	2
96	97	9
163	163	4
80	81	1
79	86	2
36	37	4
149	149	4
41	42	1
84	92	3
74	74	2
90	109	2
146	146	8
87	87	9
126	141	1
98	99	2
41	44	2
92	92	5
38	40	1
169	169	2
102	104	2
40	40	3
43	43	1
6	9	3
47	48	4
9	9	8
93	105	5
16	17	2
141	141	6
51	51	8
11	11	6
90	90	8
71	71	3
137	142	1
144	145	4
88	90	1
0	14	3
50	55	1
24	25	7
163	164	2
75	83	1
49	49	5
1	12	2
127	128	4
92	98	2
43	44	2
71	75	1
112	112	3
99	99	6
35	153	1
105	106	2
121	123	1
116	117	2
137	139	2
50	51	2
71	133	3
156	157	3
164	164	3
75	75	3
111	112	3
55	55	3
108	108	6
33	33	3
129	132	3
98	100	2
22	35	2
131	131	2
2	155	6
84	84	1
25	26	2
67	77	2
18	18	6
102	107	1
10	24	2
72	80	4
45	57	1
140	144	1
124	125	3
146	148	3
80	93	1
148	149	2
78	78	1
8	9	3
167	170	3
129	131	2
64	64	7
122	123	2
107	140	1
125	141	3
52	56	1
34	40	3
45	54	2
77	84	2
16	22	1
5	7	1
8	8	1
69	82	2
115	115	5
154	170	1
92	95	3
24	26	2
135	135	2
35	35	1
106	146	1
76	76	6
2	2	9
5	39	2
35	151	3
141	169	5
123	123	5
62	64	2
9	10	4
119	120	3
65	69	5
3	15	3
17	20	2
124	139	3
21	21	1
101	112	2
6	21	2
39	158	2
147	150	1
161	162	1
36	47	1
38	48	1
38	38	6
83	85	6
101	105	2
4	4	2
25	25	2
18	19	1
123	130	3
15	15	4
122	137	1
81	81	2
65	70	3
48	68	2
33	43	3
102	105	3
110	110	6
46	47	1
11	12	1
156	158	1
85	106	2
97	97	1
159	159	5
1	1	7
23	72	1
46	55	1
142	142	3
56	57	4
64	70	2
72	74	3
1	14	2
2	63	4
70	81	3
105	145	2
86	89	1
76	81	2
160	166	2
7	9	3
8	74	1
163	167	2
119	121	1
154	165	1
40	51	1
106	108	2
134	134	6
144	144	4
150	151	2
109	109	4
162	163	1
129	141	3
125	128	2
53	53	1
99	105	1
74	86	1
94	95	2
17	17	3
124	130	1
6	22	1
46	46	3
90	91	1
112	120	2
151	162	4
117	118	4
150	163	1
1	10	1
116	116	5
70	71	2
82	101	4
73	87	1
102	106	1
85	103	1
140	151	2
45	49	3
78	89	1
3	4	2
89	90	2
49	54	2
63	154	1
95	99	2
2	123	2
88	167	1
121	122	1
107	112	1
111	135	1
56	56	6
43	158	2
64	76	1
4	153	2
66	66	1
126	129	1
63	63	1
20	23	1
68	69	1
18	21	3
151	157	3
82	83	2
86	87	1
99	100	3
129	129	2
135	136	4
115	133	4
155	157	1
119	126	1
82	87	4
69	84	3
91	97	1
9	73	3
163	170	1
74	90	4
54	56	3
128	131	4
147	159	5
11	13	2
37	96	1
95	104	3
109	116	3
93	94	3
66	83	1
141	144	2
104	104	2
6	6	3
132	132	2
83	91	1
39	40	2
157	158	1
147	148	1
35	56	2
107	109	1
115	135	2
42	151	1
125	134	2
35	42	1
38	50	1
33	35	1
128	141	2
80	88	1
53	104	1
95	100	1
52	53	2
35	43	1
117	117	3
64	69	1
122	122	2
25	45	4
69	159	1
26	27	1
125	127	2
114	115	4
121	121	2
55	58	1
15	16	1
44	45	2
0	16	1
69	76	1
170	170	2
140	149	1
96	109	1
35	50	1
85	90	1
94	94	1
113	114	1
0	1	1
66	67	3
137	137	4
99	106	1
26	26	3
4	154	1
24	71	1
75	79	1
93	95	2
62	67	2
86	109	1
1	2	5
20	21	1
78	82	1
83	84	1
99	103	2
70	79	4
138	139	2
4	16	2
97	98	1
69	78	1
104	112	1
76	77	2
120	123	2
0	156	2
90	97	1
39	58	2
157	159	1
73	84	1
35	47	2
112	126	1
110	111	1
51	55	2
73	88	1
119	134	1
84	99	1
151	151	1
0	0	3
157	170	1
131	133	1
126	137	1
144	146	1
15	19	1
155	167	1
114	114	1
12	12	2
12	22	1
128	128	2
129	137	1
98	106	1
119	122	1
133	136	2
7	8	1
126	135	1
77	77	2
106	106	1
155	155	1
63	65	2
145	145	1
39	44	2
98	111	1
37	42	1
107	108	1
46	63	1
103	103	1
94	113	1
160	160	1
164	165	1
8	10	1
86	101	1
15	21	1
11	74	1
94	103	1
166	167	1
123	131	1
34	34	3
52	147	1
93	103	1
155	166	1
57	63	1
108	124	1
58	69	1
0	75	1
21	34	1
142	149	1
143	144	1
51	147	1
6	7	1
27	35	1
36	70	1
1	4	1
153	153	1
7	22	1
38	42	1
5	10	1
142	143	2
136	151	1
114	122	1
112	122	1
75	76	1
44	44	1
38	169	1
116	122	1
153	170	1
120	128	1
27	70	1
65	66	1
55	62	1
19	19	1
122	133	1
