21	22	3
120	125	4
46	47	3
28	50	2
107	107	14
32	32	5
139	151	2
64	66	1
54	56	4
128	129	1
47	47	9
142	145	2
106	106	13
139	143	1
117	118	6
26	26	12
132	141	3
31	31	14
78	78	17
140	141	10
109	109	11
17	17	15
16	29	1
117	152	1
153	154	5
86	86	20
25	25	14
30	30	6
112	113	1
80	80	13
13	13	16
75	77	4
38	38	10
124	124	10
45	45	14
115	116	5
86	115	1
11	17	1
44	47	1
20	22	3
123	124	8
124	125	3
116	117	4
139	140	3
115	115	14
40	40	10
113	126	2
15	16	3
81	85	2
57	57	5
22	25	2
43	44	14
48	55	3
23	45	1
145	145	9
70	71	4
108	108	4
37	37	8
137	137	15
145	149	10
130	131	7
69	74	3
72	72	4
149	150	1
145	147	5
133	136	3
109	111	4
30	31	7
33	33	5
143	143	6
4	8	1
72	73	2
39	39	11
79	79	1
138	140	4
143	146	3
21	33	1
134	134	6
122	123	1
41	46	3
71	82	3
24	24	16
105	105	4
130	133	4
62	63	2
112	112	7
146	147	6
69	69	4
126	126	17
117	117	7
132	133	6
135	135	14
104	104	8
44	46	5
114	147	1
10	14	3
7	9	2
107	110	4
4	6	3
83	83	10
5	21	4
48	48	9
76	77	1
137	145	3
10	10	10
116	116	5
67	68	5
14	18	3
150	150	3
82	82	14
107	109	2
135	141	3
42	55	4
102	103	5
84	132	3
73	75	5
12	26	1
63	68	1
87	98	1
113	113	10
82	83	5
44	48	3
25	29	2
143	144	3
84	85	4
40	47	4
151	151	9
120	121	1
64	76	2
3	33	3
122	122	10
73	83	4
17	18	1
20	21	8
40	103	1
35	42	5
13	17	3
109	110	1
35	36	6
77	77	11
6	13	1
5	17	8
106	109	2
84	84	22
46	54	7
26	28	5
28	30	5
119	119	6
51	51	8
11	34	1
68	68	16
102	107	3
23	23	16
109	117	6
27	27	12
70	70	19
64	64	6
31	32	3
99	99	8
6	7	5
79	136	1
96	96	17
115	117	6
66	66	3
118	118	13
145	154	1
149	149	5
15	18	6
65	71	2
16	17	3
3	3	11
29	40	2
36	47	2
55	55	2
128	130	3
22	22	9
138	139	15
133	133	9
113	119	4
18	28	3
12	12	9
104	116	1
138	141	2
115	128	2
115	122	2
111	115	3
7	41	4
87	90	1
20	20	9
10	11	6
3	5	6
53	54	2
55	56	7
150	151	4
126	133	1
53	53	7
5	145	2
141	141	7
74	74	3
63	63	4
130	130	8
44	45	5
18	20	1
71	71	13
152	152	7
54	90	2
140	144	4
95	96	6
108	122	1
11	56	1
6	41	4
67	73	4
43	43	1
110	111	3
83	91	3
27	29	3
75	78	3
24	25	6
78	82	1
147	147	5
116	122	2
14	26	1
121	121	11
11	35	2
11	120	3
72	75	2
144	151	1
108	125	4
114	148	4
133	135	5
101	101	3
65	67	2
74	81	1
142	142	12
77	82	4
30	32	7
139	141	4
14	30	1
14	14	4
36	36	5
49	49	10
34	36	4
42	42	10
63	87	4
125	128	2
118	129	3
110	110	12
153	153	1
42	93	2
41	44	2
125	129	1
117	134	2
2	142	2
12	57	3
76	76	3
46	46	8
9	13	2
113	115	3
9	37	1
115	124	2
148	148	10
14	20	1
61	63	1
8	9	1
35	37	2
152	154	1
19	19	14
65	65	14
146	150	7
71	113	1
139	139	9
81	99	2
109	112	1
81	93	1
144	152	5
97	99	5
26	41	1
123	133	1
90	93	3
73	87	5
100	100	4
132	143	1
102	102	8
135	144	2
127	127	9
91	91	1
146	149	6
137	138	4
41	42	1
66	67	4
105	111	2
94	98	4
9	9	3
29	29	5
75	75	4
137	151	6
36	49	1
5	5	8
33	35	2
56	57	3
67	76	1
67	69	4
88	90	6
73	73	7
2	7	1
18	18	7
90	90	5
28	28	12
113	116	3
129	130	1
11	14	3
75	81	1
78	79	4
15	15	6
33	54	3
32	36	3
6	29	1
31	152	4
143	145	1
11	11	12
71	112	3
132	132	13
55	57	2
26	32	5
23	25	2
128	131	4
15	138	1
78	96	5
97	103	1
111	112	5
9	21	2
129	131	2
129	136	3
45	50	3
8	8	6
63	65	2
63	64	2
99	111	2
66	70	3
85	86	4
67	107	3
119	120	2
71	79	2
97	97	13
31	35	2
96	110	1
87	100	3
62	64	5
62	62	5
7	12	4
67	67	3
34	34	6
108	121	1
94	94	5
123	123	6
40	41	5
41	43	1
98	99	3
84	86	6
6	6	10
144	144	2
96	97	2
103	103	3
11	12	1
93	97	1
108	112	2
21	26	3
146	146	5
31	34	4
53	61	3
102	123	4
64	69	2
4	11	1
50	51	2
8	11	3
95	95	11
85	85	8
93	101	1
25	36	2
102	111	4
111	111	2
45	64	4
18	29	4
120	120	5
103	106	1
35	43	1
15	20	1
89	89	1
129	129	8
111	114	3
154	154	2
75	82	3
104	112	5
102	115	2
99	102	4
76	85	1
98	98	5
110	117	3
144	150	1
110	122	1
132	136	5
28	29	9
127	131	3
62	71	1
124	126	2
22	31	2
19	34	1
75	89	3
67	104	2
89	97	5
44	44	6
141	144	1
7	13	1
120	128	1
77	83	1
86	87	7
112	114	1
138	138	16
107	108	1
21	23	2
23	34	3
27	30	4
17	23	3
5	6	2
78	95	1
144	145	3
85	97	2
120	122	2
38	104	1
147	150	5
70	79	2
11	22	1
145	148	2
76	87	2
25	33	2
128	128	3
136	136	6
88	97	1
73	74	6
54	54	3
53	56	4
11	15	2
77	87	2
65	66	2
61	62	3
76	103	3
82	87	1
138	145	2
63	66	1
50	154	2
62	96	1
5	9	2
4	7	3
4	145	4
23	64	2
4	5	2
32	42	1
23	33	2
113	153	1
13	20	3
33	36	3
133	134	1
135	137	2
34	35	4
115	118	2
50	70	4
85	125	1
45	62	1
114	114	8
131	131	5
81	83	3
40	44	2
22	23	1
136	137	2
109	114	2
80	99	2
33	44	1
86	125	3
113	117	2
35	35	6
62	81	1
101	102	1
87	87	1
23	44	2
3	4	1
82	84	2
27	31	1
7	147	2
114	123	3
109	113	3
95	132	3
36	37	4
100	133	1
28	41	3
36	41	1
62	67	1
29	31	3
17	55	2
19	22	2
2	12	2
66	74	2
12	134	1
103	115	1
134	150	1
49	51	1
111	117	1
69	71	2
50	50	3
106	113	1
63	76	1
121	122	2
127	130	4
38	43	3
119	126	1
41	41	5
83	95	1
71	77	4
68	69	2
46	50	3
55	89	3
3	8	1
129	132	2
104	110	2
100	107	2
43	69	1
148	150	1
126	135	1
5	7	1
128	147	1
29	30	1
82	104	2
38	49	1
48	49	1
91	102	1
125	125	4
21	32	1
114	117	1
13	130	1
16	44	1
117	119	1
27	41	1
62	95	2
11	13	1
86	90	2
110	116	1
7	19	2
134	135	3
77	143	1
12	123	1
126	127	6
8	23	2
137	142	3
135	145	1
81	84	2
114	118	1
99	100	2
24	33	4
114	119	1
146	152	1
54	64	2
54	66	1
54	69	1
33	43	2
17	28	1
6	81	2
22	26	3
113	134	2
57	58	2
10	36	2
4	4	1
124	132	2
140	145	3
69	70	1
28	37	1
119	122	2
56	56	1
117	127	1
84	102	2
129	138	1
39	41	1
48	50	1
50	58	2
148	154	3
16	16	2
99	101	1
103	112	2
96	130	1
16	18	4
57	89	1
142	152	1
38	87	1
74	75	1
124	133	1
106	107	2
104	105	2
19	23	1
83	86	2
143	149	1
9	104	1
26	30	1
53	64	1
127	136	1
17	19	1
72	80	1
131	132	3
77	80	1
93	93	1
151	152	1
83	84	3
70	152	2
135	136	2
38	40	2
84	87	1
6	8	1
36	40	1
79	82	1
67	75	1
20	37	1
13	23	1
109	115	1
86	96	1
145	151	2
78	84	1
49	50	1
3	11	1
37	147	1
101	107	1
79	93	1
77	126	1
32	152	1
12	14	2
45	46	2
10	37	1
125	126	1
117	121	1
25	65	2
123	127	1
109	116	1
136	146	1
31	148	2
6	146	1
58	64	1
82	102	1
75	104	1
82	91	1
13	15	2
28	148	1
139	144	1
67	109	1
34	37	2
126	146	1
34	43	1
129	154	1
104	111	1
46	151	1
122	126	1
97	98	1
97	105	1
133	145	1
62	65	1
7	37	2
104	107	1
120	132	1
11	54	1
119	124	1
15	27	1
126	128	1
102	112	1
