18	18	14
77	78	1
5	5	12
87	89	2
1	1	4
70	70	11
31	130	3
130	130	7
36	36	8
143	143	11
64	66	4
84	84	6
26	97	2
19	20	3
25	130	8
61	61	7
28	94	2
80	80	7
115	115	5
105	105	9
39	39	14
30	41	4
18	91	3
62	63	2
68	68	9
117	119	4
29	29	17
28	95	4
48	48	23
66	66	3
104	104	7
27	27	4
79	79	6
50	51	2
103	103	16
118	118	8
1	22	2
6	6	3
103	119	2
30	30	6
52	52	4
37	38	1
123	123	10
27	28	4
63	140	2
95	97	1
111	111	6
75	75	7
129	129	3
10	10	8
127	127	2
105	106	5
71	74	4
25	25	9
111	119	4
114	114	9
72	72	5
132	132	3
99	99	10
100	103	1
61	81	4
144	144	7
19	19	10
69	143	5
17	17	4
75	83	2
38	124	6
94	94	9
59	59	6
57	57	3
67	72	6
78	79	1
75	76	3
13	16	5
63	63	7
26	33	8
54	54	10
113	113	5
8	21	3
66	141	1
0	1	3
69	69	9
82	83	2
96	96	14
140	140	4
42	42	12
92	92	7
33	34	4
76	76	6
87	122	3
55	55	1
98	99	3
28	30	1
78	81	5
4	4	4
71	73	1
131	134	3
71	71	8
114	115	4
55	56	5
22	22	11
41	41	8
50	50	6
62	74	4
65	66	5
54	55	2
60	60	8
0	59	6
90	92	4
128	128	7
49	49	3
125	125	9
77	77	8
128	133	9
1	59	1
70	71	6
82	84	7
104	105	7
74	81	1
14	15	4
93	93	7
134	134	5
97	97	11
28	29	1
2	2	9
16	18	3
83	83	1
58	81	2
33	88	2
131	131	6
62	104	2
86	86	5
38	38	2
61	94	2
121	121	5
135	135	3
83	84	2
6	71	12
27	36	2
53	53	2
74	74	12
43	49	2
56	56	3
52	53	2
17	22	6
116	116	4
126	126	5
130	131	6
107	107	7
52	89	5
41	125	2
36	123	4
66	108	5
81	81	2
107	133	1
122	122	2
12	12	2
20	20	4
82	82	1
78	78	2
57	58	1
31	31	8
77	79	1
106	106	6
64	65	3
122	123	3
92	94	4
84	85	1
66	99	1
37	123	4
47	47	7
142	142	5
120	120	7
97	104	2
135	142	1
98	98	2
125	126	2
142	144	3
26	26	3
26	129	5
107	110	1
32	33	4
10	11	4
72	73	9
119	119	5
47	59	2
101	120	2
49	57	2
110	110	2
57	86	2
22	23	1
89	89	3
41	42	1
35	35	3
136	137	1
43	43	5
118	122	1
42	89	1
11	11	3
108	115	1
34	34	11
40	40	7
102	103	4
37	37	9
140	143	1
95	96	1
6	20	1
73	73	1
142	143	7
102	102	1
8	61	2
71	72	3
36	37	2
0	6	1
5	91	2
9	9	3
58	58	7
105	120	2
119	121	2
109	109	3
128	131	2
108	108	2
38	42	1
104	137	2
65	68	3
9	10	2
90	90	3
56	57	1
33	33	2
29	125	2
40	124	1
26	96	3
139	140	1
53	56	3
27	38	1
25	96	2
79	80	4
114	116	1
91	94	2
27	29	1
8	8	1
30	31	2
106	133	1
24	25	2
63	104	1
3	3	4
91	92	2
124	124	4
50	52	2
127	135	5
8	9	2
94	95	2
91	91	6
93	95	2
87	98	2
112	112	4
132	135	2
26	27	2
64	143	2
96	97	4
32	32	2
98	103	2
97	98	1
25	26	2
146	146	2
123	124	1
67	68	1
4	5	1
27	37	1
3	57	2
132	133	1
69	70	4
48	120	1
65	65	1
106	107	2
141	142	1
100	100	2
59	60	2
54	56	1
26	30	1
64	64	5
34	88	1
115	117	1
21	21	1
24	24	3
117	117	2
49	53	1
51	51	1
144	145	1
74	75	1
14	14	1
93	94	3
112	117	1
98	120	1
14	93	2
87	91	1
123	136	1
74	77	1
97	99	1
128	134	2
145	145	1
105	107	1
88	90	1
24	96	1
9	11	1
139	139	1
141	141	1
