88	121	3
137	137	8
119	119	10
95	121	3
34	35	9
2	29	4
76	76	1
115	115	13
51	51	10
148	150	5
68	68	17
104	104	6
53	54	3
110	111	6
34	34	12
11	12	2
65	65	19
52	52	4
149	149	12
130	130	12
146	146	12
128	128	10
102	102	13
51	52	1
28	30	1
33	33	18
4	4	15
135	135	10
33	34	4
52	53	9
34	37	5
96	96	19
49	50	3
105	105	10
24	24	17
14	14	26
109	109	13
116	117	2
23	23	4
67	68	16
42	42	15
30	31	2
132	133	8
123	145	2
66	67	7
50	50	10
54	54	10
9	10	7
30	30	6
17	20	2
113	115	3
130	131	6
111	111	18
39	43	3
78	78	5
31	150	2
143	143	8
99	99	14
137	141	4
71	71	7
64	64	11
35	35	5
153	153	10
4	5	4
121	145	1
110	115	3
10	10	13
28	28	13
12	12	12
46	46	6
100	117	2
122	122	12
120	121	7
151	154	5
45	126	1
36	36	4
94	94	8
32	32	17
32	54	4
40	40	17
29	29	12
34	103	2
8	42	3
126	126	6
15	15	18
132	132	12
152	152	14
42	43	3
56	56	10
117	117	4
37	37	10
113	113	9
80	129	8
6	6	23
130	144	3
32	114	1
133	133	19
127	139	5
148	149	3
113	130	1
104	107	1
145	145	18
87	87	5
3	16	4
13	14	7
148	148	8
120	120	8
39	39	8
16	45	4
4	146	4
109	110	5
90	90	8
47	48	5
107	108	7
107	110	1
106	113	4
8	8	18
116	116	5
124	125	2
82	82	16
8	9	4
139	141	2
20	20	11
6	18	3
143	146	3
14	15	2
80	80	5
17	17	10
41	42	2
9	9	19
20	22	5
144	145	7
107	107	29
103	103	11
41	41	16
99	148	2
39	40	5
34	62	4
19	19	7
95	95	12
115	127	3
125	127	8
134	134	14
16	109	1
3	3	1
147	147	19
131	134	5
20	21	11
114	114	10
48	48	10
4	26	1
22	22	9
45	45	15
110	110	12
67	67	12
138	146	3
102	103	11
150	150	4
10	109	2
7	8	2
91	95	2
70	82	3
113	139	2
15	16	3
83	83	16
86	86	8
2	27	2
42	44	5
136	136	12
69	69	15
84	84	7
97	98	13
16	16	8
25	25	8
35	45	3
69	70	3
73	128	1
82	83	8
57	57	6
125	125	5
56	64	2
38	38	11
79	79	2
50	127	4
85	86	3
77	78	4
121	121	15
36	49	2
108	108	4
141	141	6
122	123	2
134	135	6
43	44	4
31	31	4
100	101	2
122	126	4
63	105	4
44	45	7
124	124	13
49	49	9
37	38	3
115	151	3
112	112	11
16	17	6
99	102	5
153	154	7
112	115	2
75	98	3
2	2	4
105	135	1
138	139	9
92	93	5
123	123	15
38	39	2
83	84	10
5	5	15
118	118	10
127	127	3
77	77	8
140	141	2
95	96	5
93	93	6
123	148	2
131	131	5
142	142	9
62	64	4
4	25	1
57	63	6
4	27	1
129	131	5
66	69	7
138	138	7
18	18	11
66	66	13
140	140	5
72	73	6
43	43	10
10	113	3
27	27	11
21	22	7
98	98	6
7	7	6
22	23	2
63	124	2
129	129	8
129	149	3
53	53	2
123	124	5
74	74	7
101	102	2
23	24	4
135	136	7
48	49	4
148	154	1
76	78	3
85	85	9
88	104	1
13	13	10
65	125	2
11	11	4
80	81	1
6	7	7
10	13	3
129	144	4
139	146	3
72	79	1
131	135	3
115	116	4
73	75	2
132	153	1
47	47	5
52	55	2
85	119	6
62	65	2
89	127	2
97	99	2
47	49	2
18	20	3
11	24	2
99	100	2
35	36	3
136	145	1
110	122	6
97	97	6
92	116	3
87	103	1
34	117	2
108	118	2
76	81	3
6	20	5
117	118	5
127	142	2
46	47	2
101	101	9
130	137	2
55	55	4
67	69	7
149	150	2
105	117	2
88	88	5
94	136	2
36	39	2
32	149	1
75	75	6
62	62	8
73	106	1
73	73	17
69	73	1
98	146	3
24	48	2
78	137	3
9	25	1
8	44	4
78	79	4
63	79	2
119	120	5
147	148	6
106	106	6
63	63	11
69	106	5
18	39	1
44	44	14
136	139	1
144	144	7
49	125	2
104	146	5
33	64	2
12	24	2
85	88	3
101	150	2
99	132	5
24	25	2
93	139	4
26	26	7
28	29	3
101	104	2
17	24	2
79	80	3
7	10	2
85	138	3
81	82	7
28	154	4
22	43	3
31	33	1
131	132	6
100	100	11
72	72	7
143	144	1
133	135	3
129	130	1
75	76	5
12	125	2
64	121	2
54	55	11
136	137	2
38	147	1
108	133	3
49	126	1
17	32	1
73	74	4
46	126	1
42	51	1
75	105	2
32	33	4
83	128	1
122	143	2
101	103	1
26	65	1
68	71	1
46	50	1
105	107	3
20	26	1
112	118	1
120	127	1
81	81	4
110	118	1
150	152	2
33	149	1
151	151	5
97	116	1
27	28	8
16	110	3
80	82	3
92	96	1
55	56	1
33	35	4
87	99	2
31	32	2
3	4	2
9	45	6
50	51	4
103	104	2
96	97	1
82	128	1
144	150	3
34	61	3
139	139	6
151	153	2
18	38	3
87	88	3
146	147	3
13	16	4
51	54	1
32	150	2
144	151	2
76	77	2
110	117	2
92	94	1
133	138	3
99	101	3
154	154	1
78	82	1
126	127	1
100	102	1
106	119	1
109	122	2
133	134	1
104	105	2
114	151	2
34	36	1
89	90	2
63	78	1
119	128	2
129	139	2
94	96	1
38	80	2
64	123	2
75	78	1
83	87	4
123	128	1
2	46	3
142	143	2
79	130	1
26	28	2
117	153	1
113	114	1
6	8	1
18	19	4
3	26	1
17	18	3
70	70	5
141	142	1
28	69	1
100	146	1
150	151	3
2	4	3
65	131	1
50	57	1
145	146	1
107	119	1
78	129	1
66	74	1
79	137	1
26	27	1
9	28	1
93	95	2
21	21	3
55	57	1
128	150	1
137	144	1
12	14	1
141	149	2
141	145	1
124	154	1
29	30	1
85	147	1
79	110	1
17	109	2
35	50	3
39	142	1
50	126	3
146	148	2
121	144	1
11	14	1
152	153	3
3	33	1
14	38	1
34	127	1
94	117	2
9	42	1
87	90	1
75	93	1
98	100	1
76	95	1
9	16	2
108	109	1
5	25	1
5	26	1
149	154	1
29	53	1
131	139	1
6	27	1
25	26	1
68	69	1
147	150	1
56	58	1
74	82	1
75	82	1
45	46	1
115	149	1
99	145	1
2	45	1
7	11	1
68	79	1
96	98	1
7	38	1
42	56	1
107	113	1
94	97	1
16	34	1
63	67	1
93	104	1
