15	15	1
54	54	5
23	24	1
104	151	2
124	124	7
144	144	4
72	72	8
145	145	2
165	165	6
7	7	6
47	47	5
121	122	3
79	155	5
79	101	1
175	175	4
129	129	3
3	3	6
85	89	3
55	55	8
99	99	8
27	28	4
88	89	5
110	110	1
73	73	4
157	186	2
90	91	3
148	149	5
174	174	1
182	182	4
12	14	3
32	32	5
160	160	5
142	143	1
147	147	2
24	24	2
186	186	4
74	74	1
44	47	3
133	133	8
126	126	5
22	22	4
143	144	3
12	12	2
128	140	1
106	167	3
139	139	5
163	163	8
123	125	4
68	72	2
172	173	1
79	79	5
167	167	4
143	143	4
153	154	10
52	52	2
187	187	3
61	61	8
31	31	4
70	70	1
156	159	2
122	122	4
5	5	3
181	181	14
176	176	5
179	179	8
36	36	3
108	108	7
89	89	7
87	88	1
131	131	2
67	94	2
185	185	1
147	152	3
25	25	7
111	112	2
131	132	5
162	162	1
26	27	3
105	106	1
116	116	4
123	123	2
114	114	3
155	155	3
101	101	7
117	117	1
149	152	3
102	102	5
80	150	4
176	182	3
109	110	2
39	39	3
8	8	2
115	115	7
38	38	2
108	150	2
136	136	2
184	184	5
188	188	5
14	14	3
121	121	3
82	173	2
120	134	3
105	105	3
93	93	3
81	81	3
97	97	4
64	64	5
100	102	2
190	190	2
112	112	3
74	79	1
16	16	5
60	60	8
115	117	4
9	46	4
44	44	3
0	0	2
118	118	4
165	166	1
183	183	3
83	173	1
18	18	3
67	93	2
126	127	2
63	63	5
48	48	3
177	179	1
145	146	1
111	111	3
168	168	1
88	90	2
11	11	4
96	96	1
152	186	2
166	187	2
81	82	6
170	170	2
110	153	1
6	6	2
2	2	1
180	180	4
156	157	1
89	117	1
138	139	7
69	71	2
109	109	5
20	20	5
16	38	2
63	64	1
152	152	2
84	84	2
17	18	2
154	154	3
184	186	1
45	46	1
71	71	2
30	31	1
158	158	3
87	87	1
34	34	1
42	42	4
29	29	3
17	17	3
96	97	2
84	85	1
146	146	3
26	26	1
155	157	2
4	4	1
28	29	3
104	104	1
54	55	1
10	12	1
148	148	1
53	53	6
77	77	3
77	78	2
179	180	4
140	140	6
115	116	2
85	86	2
173	173	3
87	90	2
142	142	3
79	80	1
23	23	5
13	20	2
35	36	3
171	172	3
170	186	1
104	105	3
106	174	1
178	179	3
65	65	2
100	100	3
149	150	3
7	54	2
103	149	1
182	184	1
66	86	1
115	118	3
84	95	2
110	112	1
164	164	2
56	56	1
83	96	2
127	127	2
30	30	3
78	79	1
52	55	1
68	68	1
134	134	4
135	135	1
98	98	2
119	119	1
158	159	1
171	175	1
12	46	2
62	63	1
183	185	3
19	19	1
78	155	1
138	138	3
124	126	2
13	13	3
4	5	1
43	43	2
169	169	1
155	156	1
20	21	1
115	119	2
130	130	1
10	11	2
33	33	1
178	178	1
5	53	1
166	166	3
37	37	1
76	77	1
150	150	2
66	66	2
123	124	2
187	188	1
41	42	1
148	157	1
57	57	1
96	98	2
110	111	1
108	143	1
55	56	1
168	169	1
78	78	1
120	120	2
40	40	1
27	27	1
172	172	2
171	171	1
157	157	1
6	7	1
141	141	1
95	96	1
117	118	2
13	15	1
42	43	1
27	29	1
53	97	1
127	128	1
