50	55	7
11	11	18
61	61	13
101	101	8
18	18	13
87	87	11
125	125	10
72	72	11
119	120	4
93	93	10
59	59	4
36	36	6
131	134	1
29	29	10
7	12	4
53	53	8
64	130	1
78	79	1
12	119	4
37	37	7
109	109	16
15	15	13
74	74	6
98	99	7
13	13	5
82	83	2
59	63	1
72	73	6
32	32	6
50	50	8
103	103	14
56	67	2
72	79	3
116	116	5
95	95	12
118	118	5
66	67	6
62	62	7
20	20	10
28	28	6
130	131	2
114	114	7
126	126	4
105	105	6
15	16	6
63	63	6
33	101	3
52	52	7
70	70	14
49	49	2
9	62	1
127	127	15
26	26	7
24	111	3
90	91	2
73	73	10
45	45	7
123	123	3
75	75	8
97	97	13
3	10	3
19	19	8
23	24	7
71	72	2
102	104	4
64	66	7
62	76	2
29	75	4
104	104	8
133	134	1
14	15	2
120	121	6
68	68	8
24	24	14
29	89	3
8	8	8
10	38	3
129	129	8
89	89	3
10	11	4
88	88	7
18	29	1
71	98	3
16	16	12
24	43	2
13	19	1
42	78	2
0	28	3
98	106	3
74	95	1
2	2	5
45	51	2
126	128	5
3	128	1
43	52	1
3	4	6
115	116	2
78	78	10
132	132	4
53	118	1
77	77	14
65	69	6
25	25	7
6	7	3
108	115	2
68	75	1
102	102	6
1	79	1
86	86	6
111	112	3
92	93	3
7	8	4
1	3	1
15	17	1
66	66	4
35	35	5
69	112	3
57	57	10
38	42	2
23	100	3
133	133	2
90	90	3
17	50	1
106	106	3
58	59	4
27	27	4
86	88	2
54	55	8
106	134	3
31	31	5
115	115	8
121	126	6
92	92	4
65	65	2
0	135	5
131	131	1
0	0	3
43	43	6
64	64	3
120	120	7
84	106	3
106	107	3
61	62	3
21	22	3
20	24	3
94	123	2
135	135	6
121	121	14
89	90	1
21	21	3
70	131	5
132	133	3
62	63	4
44	57	6
65	68	5
60	61	6
63	66	2
108	111	4
55	55	4
91	91	5
112	112	5
87	124	2
128	133	1
83	86	3
13	131	1
67	67	7
34	34	18
114	117	2
66	69	3
113	113	3
107	107	2
108	108	3
100	123	1
76	76	8
130	132	5
17	19	3
94	94	8
23	23	9
5	5	7
4	4	4
87	88	4
33	33	6
128	129	2
17	23	3
20	25	2
3	6	1
99	99	4
89	101	1
79	81	2
64	65	4
12	12	6
29	34	2
96	96	7
30	30	9
104	105	5
19	114	3
45	127	2
27	28	2
88	125	1
14	14	1
9	9	3
80	80	2
84	107	1
110	110	2
47	47	3
85	85	4
100	100	4
98	98	7
52	87	1
83	83	2
6	6	12
92	113	2
129	131	1
9	11	3
4	5	1
58	58	9
69	69	3
124	125	3
117	118	2
124	124	3
109	110	2
99	112	3
123	124	2
86	118	2
22	22	4
79	134	4
35	36	3
52	117	2
108	130	1
28	43	1
54	54	3
43	44	1
79	80	1
112	118	3
83	107	4
82	82	4
117	119	1
46	46	1
94	95	2
59	82	2
117	117	1
7	31	3
12	13	2
4	38	1
134	134	2
74	75	5
33	34	1
7	17	1
71	71	1
16	17	1
99	119	1
128	128	4
70	112	1
65	134	1
10	33	1
111	111	3
44	44	2
59	61	2
82	85	1
0	51	3
91	92	6
65	67	1
30	42	1
36	84	1
98	100	1
11	18	1
3	3	1
25	26	3
52	53	1
73	74	2
1	1	2
5	8	1
51	51	4
27	31	2
109	119	1
67	68	1
7	7	3
79	79	2
90	123	1
13	14	1
56	78	3
25	28	2
110	111	2
28	29	1
79	99	1
105	106	1
17	17	4
50	54	1
116	133	2
48	48	1
67	69	1
119	119	1
26	27	1
100	105	1
118	119	1
90	114	2
8	50	1
13	118	2
19	25	1
71	94	1
68	69	3
60	60	1
44	85	1
38	38	2
20	22	1
99	106	1
70	71	1
77	82	1
77	80	2
83	84	3
56	56	1
27	29	1
130	130	1
119	126	1
9	37	1
2	3	1
111	122	1
96	120	2
106	119	1
10	10	1
109	113	1
55	69	1
79	133	1
61	73	1
89	99	1
55	58	1
113	114	1
19	20	1
92	114	1
11	33	1
93	95	1
8	30	1
5	23	1
26	28	1
13	120	1
122	122	3
72	94	1
62	66	1
8	31	2
49	50	1
81	81	1
98	102	1
6	115	1
102	103	1
24	26	1
24	32	1
88	89	1
81	91	1
86	129	1
