12	12	5
14	16	3
117	117	3
24	25	4
34	34	15
121	121	1
90	96	2
46	46	18
102	102	8
92	92	11
17	17	8
70	70	7
109	113	3
59	59	5
11	11	11
90	90	5
14	14	4
75	75	11
35	36	2
31	31	9
55	131	2
45	45	3
19	19	11
68	68	17
91	92	4
86	86	6
107	117	2
134	134	11
37	37	2
14	15	2
5	45	2
116	116	6
107	107	7
22	29	2
23	23	7
18	18	16
113	115	4
121	132	1
36	36	4
71	71	2
15	15	10
88	89	3
130	131	4
109	109	11
111	111	10
113	127	4
6	84	6
34	44	6
28	28	1
126	128	6
83	83	7
131	133	6
90	95	1
120	120	6
5	16	4
28	40	2
51	54	1
39	39	14
115	116	3
4	4	3
124	124	7
47	47	8
32	32	9
106	106	5
105	110	2
99	99	16
63	63	5
127	127	8
12	48	2
58	58	5
123	123	3
100	102	3
77	77	9
73	78	2
41	93	5
34	35	2
57	57	3
35	35	6
74	74	4
25	26	2
27	27	10
2	27	6
39	40	4
95	96	6
122	122	5
48	48	3
121	122	2
112	128	5
29	29	2
16	16	3
22	22	7
66	66	6
133	134	6
73	74	5
43	43	5
57	77	3
114	115	1
62	62	2
73	133	3
3	4	2
10	86	3
89	131	1
33	33	8
30	32	4
64	64	6
108	109	2
80	97	2
128	128	4
110	110	8
94	94	7
87	87	3
95	95	3
7	11	1
96	96	8
19	36	1
78	78	3
20	20	4
73	73	7
22	41	1
38	38	12
97	97	4
114	114	2
96	100	6
13	50	1
120	121	2
8	8	5
19	45	1
118	119	3
133	133	5
2	2	5
55	55	1
118	121	4
30	30	9
113	126	1
10	10	9
11	20	4
131	131	4
0	85	2
5	77	1
115	117	4
27	28	2
5	44	4
132	132	6
24	24	5
107	118	1
0	1	3
40	41	1
108	110	5
128	129	1
109	130	3
7	14	1
18	33	1
59	78	1
79	79	6
88	88	2
12	37	1
36	45	1
21	21	4
110	111	3
98	98	6
83	96	5
27	41	7
28	30	1
112	124	2
130	132	1
88	98	1
67	67	3
119	119	6
121	130	2
129	129	6
5	5	1
15	83	1
100	101	6
1	84	2
18	21	1
84	96	1
35	38	2
102	104	2
118	118	2
69	122	3
56	87	4
113	129	1
81	81	1
65	65	14
60	60	1
82	83	2
41	48	3
4	5	6
22	23	4
48	79	2
124	125	3
125	125	4
78	79	4
78	95	2
105	115	4
42	42	1
69	70	1
55	97	1
32	33	2
41	41	3
108	118	3
36	38	1
65	66	2
13	14	1
18	37	1
69	71	3
61	61	6
37	38	1
9	14	3
82	84	2
3	3	3
85	85	3
7	20	1
37	39	1
119	120	5
19	20	1
91	95	3
44	45	2
104	104	4
91	94	1
64	73	3
33	34	2
16	78	1
86	95	1
28	36	1
11	13	1
56	56	2
108	111	2
59	81	1
93	124	1
44	44	2
64	65	1
89	91	1
89	89	1
59	79	2
18	19	1
0	3	1
63	65	6
56	86	2
76	76	1
23	24	1
3	47	4
43	44	3
108	108	3
6	7	1
105	105	2
91	91	1
26	26	3
113	134	1
103	103	3
46	47	5
69	69	2
91	102	1
112	115	1
25	25	1
112	112	3
80	119	1
56	82	4
13	15	1
58	80	4
12	78	1
75	76	3
84	84	2
113	113	1
83	84	1
131	132	1
13	13	1
56	76	2
12	38	1
79	91	2
8	16	1
55	69	2
36	42	1
30	31	1
31	34	2
115	115	1
16	44	1
117	126	1
3	55	1
81	82	1
99	101	1
35	40	1
102	103	1
93	93	1
30	35	1
124	134	1
3	82	1
6	6	1
5	121	2
80	91	1
111	114	1
62	66	1
30	41	1
63	119	1
31	84	1
47	58	1
43	90	1
68	70	1
130	130	1
0	0	1
108	128	1
49	83	1
29	31	1
26	27	1
11	17	1
89	90	1
67	72	1
10	85	1
9	17	1
