134	134	8
81	82	4
34	34	7
106	106	16
147	147	9
127	127	21
180	182	2
36	36	8
70	73	1
182	182	5
79	79	6
53	131	2
80	82	6
69	69	6
40	40	19
136	136	8
2	3	7
165	165	4
57	133	3
162	174	2
58	61	7
72	144	3
47	47	14
15	16	2
6	6	9
59	129	3
160	162	2
177	177	8
164	165	2
138	139	2
22	47	3
159	159	13
179	179	1
25	26	1
18	18	13
65	65	4
87	89	1
35	35	8
67	67	9
18	19	3
9	25	5
135	135	5
148	149	3
39	40	2
145	145	5
104	104	2
152	153	5
164	164	13
169	171	2
93	93	6
122	122	2
4	4	5
76	76	5
155	155	11
91	91	11
166	167	5
149	149	11
89	89	13
174	174	19
90	90	10
107	108	2
98	108	1
92	93	2
16	16	11
158	158	9
62	108	2
14	15	4
97	97	2
157	157	2
83	105	2
120	120	5
59	104	3
19	19	2
117	117	9
64	64	10
125	125	9
33	74	1
84	85	2
21	22	5
108	108	10
29	29	4
134	135	8
188	190	12
175	175	8
12	12	5
149	150	16
2	2	16
62	63	4
88	88	9
34	74	2
20	20	7
13	13	12
73	144	2
73	74	5
157	176	3
26	26	23
113	113	13
58	58	13
157	186	2
11	11	7
30	30	4
126	126	5
12	33	1
74	74	9
17	18	8
75	76	1
155	156	3
95	95	18
119	119	3
47	48	1
67	68	1
123	123	10
185	186	2
113	118	3
59	59	3
121	121	7
46	48	1
110	112	7
129	129	8
98	98	18
142	142	9
42	42	6
3	3	5
58	132	1
37	47	3
52	53	2
157	158	5
152	161	5
75	75	7
130	130	6
82	82	8
174	190	1
109	109	8
53	54	8
42	46	4
68	68	6
177	187	4
71	95	3
28	28	8
70	70	8
180	180	8
72	72	7
173	173	3
23	23	10
178	178	3
176	176	4
168	168	3
162	162	4
39	39	14
90	106	2
137	137	7
15	15	7
177	178	10
62	62	9
70	75	5
21	21	4
33	33	4
122	123	3
180	187	2
17	17	8
187	187	3
88	89	6
94	108	3
99	99	7
85	95	3
125	126	3
52	52	3
78	78	13
109	110	3
152	152	8
153	174	1
94	95	4
140	140	11
34	40	1
59	103	2
169	169	8
38	38	7
156	157	1
54	54	7
57	57	10
141	141	3
11	12	3
70	74	3
48	67	2
56	57	1
99	100	4
73	73	14
80	84	2
111	114	2
100	100	7
105	114	11
5	5	15
170	171	1
60	60	3
9	9	4
84	84	9
133	133	2
13	45	2
45	48	2
43	43	8
20	21	13
77	77	5
31	31	8
17	19	1
41	41	8
124	124	3
22	48	2
54	57	3
76	129	1
30	31	1
58	64	2
71	71	7
103	103	17
118	118	4
171	172	6
48	133	2
128	128	9
96	101	1
161	161	7
56	56	4
132	132	4
86	147	4
92	92	2
109	124	3
13	40	1
142	144	2
45	45	5
46	46	11
138	138	5
20	22	2
55	55	3
104	106	3
156	156	7
105	105	13
22	22	6
55	155	2
63	63	5
82	93	1
101	101	3
14	16	4
190	190	12
16	17	4
54	55	6
146	146	1
114	115	2
57	101	1
23	24	4
62	129	1
65	132	3
91	92	1
140	152	4
66	66	10
13	35	3
24	24	12
168	169	1
58	59	5
25	37	3
129	134	1
71	74	3
83	110	2
44	45	3
46	47	3
26	77	4
181	183	3
167	167	11
63	92	1
126	137	1
93	94	3
170	170	1
27	31	3
42	129	3
85	99	2
140	141	1
159	160	4
110	110	12
154	154	5
111	111	8
173	175	1
139	139	5
6	41	3
76	91	2
22	34	1
77	88	3
25	25	3
68	69	2
39	46	1
0	0	6
85	88	3
89	148	2
148	148	6
159	175	3
37	37	1
171	171	5
45	54	5
132	133	2
27	27	3
83	109	1
71	102	1
124	125	3
189	189	6
40	42	2
91	93	6
57	130	1
154	168	2
86	92	1
74	75	1
97	98	1
86	86	4
112	112	5
83	90	3
178	183	3
106	108	1
55	156	3
64	65	3
15	44	3
29	30	1
145	169	2
161	162	5
90	91	1
170	173	1
15	20	1
176	177	2
23	38	1
5	42	2
153	153	4
14	14	4
56	157	5
7	7	4
83	83	3
31	34	1
142	143	2
83	84	2
1	1	10
112	113	3
79	81	1
77	78	2
42	73	2
21	48	2
33	42	3
114	114	10
109	113	2
183	189	1
3	6	2
87	88	2
75	95	3
33	75	3
154	164	1
107	107	4
90	101	3
95	102	2
85	85	1
158	159	1
27	29	2
53	53	3
80	81	3
160	160	5
102	103	1
28	32	1
42	47	4
84	97	2
43	44	3
71	75	4
10	10	2
133	140	4
104	105	3
144	144	6
166	166	1
181	187	3
59	136	2
57	104	1
89	94	2
63	68	2
46	72	2
138	158	1
4	42	1
56	131	2
116	116	3
96	97	1
121	122	1
81	81	7
48	48	9
10	11	3
131	131	1
115	116	4
96	96	2
87	87	2
15	18	2
151	151	7
26	37	3
111	112	4
91	94	1
36	40	2
26	36	1
78	152	3
71	72	1
61	62	1
36	37	1
87	147	2
105	155	2
149	177	3
5	6	2
105	163	2
6	17	3
174	177	2
126	138	1
154	160	1
11	18	3
82	104	1
149	165	3
128	129	2
34	39	1
81	96	1
63	87	1
80	80	2
20	41	1
116	117	1
185	187	2
89	90	1
189	190	5
96	98	1
56	154	2
83	104	1
60	136	1
19	20	4
163	164	2
184	185	1
188	188	3
68	142	1
65	131	3
141	143	2
59	60	1
76	87	2
114	135	1
12	22	2
54	59	1
12	13	1
150	150	1
41	42	1
57	66	1
55	56	1
185	185	4
8	24	1
152	160	1
187	190	1
131	132	3
84	90	1
68	143	2
28	29	1
181	181	3
114	116	2
175	186	1
167	172	3
120	121	1
144	145	1
123	124	1
35	36	1
79	80	1
90	95	2
31	32	1
91	105	1
91	101	1
61	61	1
33	35	1
13	15	2
90	151	1
86	87	2
69	70	2
143	143	1
33	47	1
22	24	2
135	136	1
44	44	1
12	44	1
68	87	1
169	170	1
76	85	1
16	19	1
78	79	1
77	79	1
60	156	1
71	92	1
136	137	1
140	151	1
