21	22	5
119	139	3
38	42	7
141	144	7
116	118	1
94	145	2
144	145	3
98	98	3
19	37	1
89	89	6
110	110	4
14	14	6
39	39	4
81	82	2
87	87	6
62	62	1
122	122	1
133	133	2
153	153	2
43	43	4
138	138	5
10	10	7
67	67	1
115	115	1
41	41	1
48	48	4
32	32	1
61	61	2
124	124	4
103	103	4
33	34	8
92	92	2
65	66	1
7	13	2
49	49	1
92	93	1
102	139	1
53	53	1
29	29	7
127	133	2
142	157	2
117	117	11
129	130	2
56	56	4
69	69	10
104	104	4
108	108	5
68	68	4
47	47	4
24	24	11
123	130	2
15	15	3
24	25	2
97	104	1
120	120	3
125	125	7
72	87	1
84	84	7
96	97	8
8	8	4
36	46	1
116	123	1
40	41	1
107	108	5
3	41	2
109	109	1
33	33	2
3	44	2
23	140	1
24	26	1
127	127	8
16	16	4
155	155	2
130	138	2
19	20	6
70	70	5
90	90	3
79	79	3
134	134	3
77	78	4
75	75	5
130	131	1
128	128	4
55	55	4
106	106	2
130	130	4
7	36	4
150	151	1
154	154	7
114	135	2
108	109	2
34	34	7
121	121	2
84	85	3
67	68	2
139	139	7
67	120	3
31	46	3
21	21	2
106	116	3
18	18	2
11	11	3
71	71	5
135	135	1
31	40	4
63	63	2
13	13	3
41	42	1
65	65	3
145	145	2
100	100	8
96	103	4
119	120	4
152	156	2
35	46	1
52	52	3
5	5	4
111	111	2
64	64	2
45	49	1
28	29	1
121	123	1
65	116	1
25	25	1
102	102	2
121	132	1
84	133	1
132	132	3
63	64	1
156	156	1
102	103	2
7	7	3
68	71	4
27	27	4
42	42	2
117	123	3
105	105	1
90	91	1
85	86	2
51	51	3
45	45	5
138	139	4
77	77	2
43	53	2
2	2	2
84	146	1
12	12	3
129	139	1
23	23	1
9	9	3
4	4	2
37	37	2
0	57	1
152	152	3
109	116	1
148	148	1
36	37	3
3	29	3
34	37	3
87	91	2
151	152	1
78	78	2
127	131	1
29	30	3
72	72	1
72	122	3
114	114	1
86	91	3
68	69	2
94	94	2
31	33	1
113	113	2
44	52	2
28	36	2
66	66	2
112	112	1
145	146	1
36	36	2
71	122	1
0	127	1
88	88	1
73	73	2
157	157	1
39	54	1
20	23	1
54	54	2
46	46	2
112	114	1
8	13	3
88	91	1
112	116	1
102	138	3
7	9	1
93	94	1
91	92	2
98	112	1
83	84	1
1	27	1
131	133	1
106	112	1
142	142	1
17	17	1
98	108	2
144	157	1
152	155	1
124	125	1
144	144	1
128	129	1
124	133	1
30	41	1
78	79	1
83	83	1
