219	225	4
3	207	10
11	16	4
36	36	3
25	25	5
120	120	6
214	215	2
179	179	5
141	166	3
200	200	6
59	86	4
111	111	2
80	80	8
82	85	6
136	137	1
97	101	3
183	183	7
179	180	3
235	235	3
60	61	5
120	122	2
22	22	5
136	136	2
13	16	3
122	123	1
164	164	6
67	68	3
169	184	3
134	134	13
175	175	3
107	107	9
189	189	15
115	115	7
81	81	15
63	63	4
210	210	3
97	97	8
199	201	4
12	12	5
177	177	2
232	232	2
116	116	10
76	76	7
201	202	1
67	67	11
11	11	10
123	123	7
116	183	1
197	199	3
84	84	6
218	218	13
158	159	1
48	111	6
83	86	4
178	178	8
76	77	6
155	162	3
1	1	7
45	45	9
201	201	3
121	124	2
200	202	5
20	20	6
28	28	4
154	154	8
144	144	7
201	204	6
227	227	12
181	181	1
231	236	2
147	147	4
149	149	10
9	135	3
228	228	13
108	108	2
231	238	2
212	213	2
220	226	3
79	79	6
101	101	3
73	73	3
204	204	1
75	75	3
212	212	3
39	43	2
78	84	1
34	51	2
128	131	9
172	173	3
103	104	1
55	55	2
15	16	1
164	191	3
152	152	1
190	190	9
0	0	8
237	237	4
124	125	2
118	126	2
167	168	2
230	237	2
142	142	2
43	43	6
167	167	5
159	159	5
82	82	2
32	32	3
18	19	1
107	108	5
222	223	4
206	206	5
48	54	1
182	182	4
174	198	2
122	125	3
122	122	17
7	218	2
98	98	6
169	169	3
221	221	7
21	23	2
49	54	1
121	121	10
238	238	5
211	211	6
218	219	2
165	165	7
89	89	9
222	224	1
230	230	5
180	180	7
160	161	4
30	31	1
133	133	10
74	74	5
141	150	4
204	209	3
170	170	8
176	176	13
229	230	3
78	109	1
66	66	3
67	114	1
158	158	6
214	214	5
229	229	4
65	65	3
173	173	4
188	189	3
16	16	8
56	56	12
34	34	4
57	57	2
59	59	7
61	61	9
61	62	3
153	153	3
138	138	6
126	126	1
52	52	16
233	233	1
40	40	8
133	135	7
173	174	7
220	220	7
103	109	1
225	226	6
171	171	2
71	71	2
204	205	2
31	69	4
13	13	4
225	225	6
172	183	1
179	235	3
54	55	2
25	26	1
24	24	4
137	137	2
103	127	1
28	29	3
106	117	1
2	26	4
226	226	3
18	18	7
207	208	8
165	193	2
37	37	3
155	155	4
196	197	1
205	206	2
145	146	5
140	140	12
65	67	2
48	48	10
69	69	9
133	134	1
0	19	1
138	141	3
205	205	7
54	54	7
0	2	3
82	83	5
26	26	6
231	240	1
142	144	1
95	104	2
99	100	2
142	148	4
95	134	3
58	59	2
27	27	7
219	220	4
65	70	3
234	234	7
95	95	3
230	231	1
42	68	1
159	160	4
130	141	3
242	242	7
199	200	4
221	222	6
95	103	9
240	240	3
17	19	4
197	221	3
158	160	3
150	150	5
15	15	2
88	89	1
99	132	1
50	50	3
29	76	1
186	186	1
86	91	1
58	58	9
35	35	3
236	237	1
134	189	1
174	174	4
95	96	2
196	196	2
5	5	2
185	185	2
6	6	1
70	73	2
174	175	1
217	218	1
218	225	2
15	39	1
59	60	2
124	124	4
109	109	4
110	110	3
148	148	1
8	8	7
21	22	4
172	172	1
11	12	5
85	85	2
209	209	2
145	145	3
39	177	5
129	129	1
162	162	7
120	135	3
192	196	4
102	102	3
53	215	3
223	223	2
0	1	2
19	19	2
224	224	2
186	211	2
166	166	7
14	14	5
46	46	5
7	8	5
171	172	3
203	203	4
215	236	1
88	88	2
102	105	3
197	197	3
33	86	5
66	67	4
4	4	3
9	9	4
62	62	2
184	186	1
176	180	2
31	31	4
156	156	3
11	32	1
17	17	7
112	113	2
72	73	5
160	160	2
193	193	5
29	46	2
36	38	3
47	47	4
70	70	4
208	208	7
228	229	2
120	121	2
233	234	2
197	238	1
66	115	1
114	114	3
114	115	1
123	124	6
21	21	2
32	33	1
51	215	2
64	64	7
172	174	3
19	20	2
187	187	2
175	203	3
224	225	1
109	110	2
104	105	1
239	239	6
192	192	8
144	146	1
86	86	6
23	23	3
195	196	1
217	220	3
144	168	6
175	234	3
162	179	1
125	126	2
210	211	2
62	63	1
237	239	3
207	207	1
139	139	1
30	37	3
50	51	2
5	6	2
16	23	1
193	194	3
196	213	2
217	219	2
161	161	1
120	164	2
8	187	1
126	133	1
121	122	1
118	120	4
184	184	5
141	158	2
124	127	1
10	25	1
194	196	1
51	51	4
60	60	3
128	128	3
33	34	3
222	222	3
147	158	1
236	240	1
42	42	6
226	227	2
4	5	2
77	78	2
0	26	1
211	213	2
234	235	2
127	128	1
20	21	2
29	30	1
153	172	1
123	125	1
118	118	2
215	215	3
158	170	2
117	118	2
235	236	2
175	235	2
125	125	2
168	168	2
168	169	3
3	48	1
139	169	1
178	179	2
96	103	1
47	69	1
2	4	1
118	134	1
238	239	1
49	49	2
159	161	1
55	59	2
31	46	2
138	168	2
161	162	3
219	219	2
3	49	1
73	74	3
223	224	1
44	44	2
7	7	2
186	213	1
216	216	1
130	130	2
30	46	1
126	134	2
10	10	3
152	170	1
30	30	2
202	202	3
107	109	1
39	39	1
135	136	1
213	216	1
2	2	2
139	166	1
167	189	2
19	21	1
53	54	4
41	106	1
141	141	3
79	86	1
24	26	1
231	232	1
169	182	1
195	195	2
84	88	1
156	157	1
28	38	1
236	236	3
217	217	1
199	199	2
72	72	2
18	20	1
33	33	2
196	221	1
164	167	1
16	17	1
228	230	1
44	45	1
5	220	1
6	7	1
188	188	1
121	221	1
106	106	1
9	26	1
143	164	1
23	24	1
75	76	1
176	236	1
175	176	2
80	81	1
78	78	2
220	221	1
24	42	1
146	146	1
40	41	1
167	186	1
213	213	1
143	146	1
9	18	1
186	187	1
143	163	1
78	219	1
166	186	1
191	191	1
