82	82	3
25	29	2
60	60	6
120	123	2
113	113	6
105	105	3
43	43	11
35	35	2
102	103	6
57	59	1
17	32	3
69	69	2
60	68	2
12	12	3
52	52	7
117	121	5
33	34	4
71	71	3
54	54	3
52	79	2
32	32	3
111	114	2
129	129	4
68	68	4
79	79	5
44	44	5
18	21	1
9	12	2
12	99	3
121	123	5
1	6	1
99	106	2
19	19	3
21	21	5
56	57	2
91	110	2
73	83	1
126	131	1
23	23	3
100	100	6
85	86	2
13	14	6
27	28	2
31	32	1
80	87	2
8	8	5
4	16	1
118	119	4
96	108	2
25	25	6
117	117	9
65	69	2
75	75	3
118	118	5
107	107	2
19	21	3
87	88	2
50	52	4
45	46	2
103	121	1
108	111	2
131	134	2
97	97	2
110	112	4
44	66	3
122	122	4
85	95	1
109	109	5
116	116	6
64	64	6
21	22	3
15	16	1
99	99	2
87	87	3
11	32	1
7	32	6
91	91	2
33	33	2
77	90	3
56	56	6
107	122	2
56	69	1
45	76	3
57	57	8
17	17	1
87	96	4
16	30	4
93	106	1
9	10	5
103	103	5
98	99	2
62	62	4
86	86	2
10	10	3
84	85	2
112	112	10
131	131	6
4	4	4
28	28	8
106	112	5
119	120	4
43	45	1
37	37	6
119	126	1
50	50	5
122	123	9
130	131	2
74	74	8
120	120	6
130	130	7
91	100	1
127	129	2
6	6	3
135	135	1
62	66	3
14	14	2
80	101	1
1	1	2
50	79	3
37	38	2
125	125	5
30	30	2
9	11	2
104	105	2
16	16	5
42	42	4
3	4	4
1	4	4
18	33	1
18	18	1
114	115	3
90	96	2
31	31	8
121	124	5
27	27	5
66	71	3
76	76	4
11	23	1
89	89	2
106	106	4
127	128	3
63	63	8
104	116	1
85	85	9
15	15	5
26	26	3
0	0	3
123	127	3
20	20	1
71	79	3
44	80	1
110	110	2
82	129	2
80	80	6
93	124	1
126	126	3
23	25	3
62	64	1
10	13	2
125	129	2
34	34	5
108	108	1
81	81	1
25	28	1
105	106	5
134	135	1
80	81	3
90	90	5
57	63	3
22	22	2
45	45	7
10	23	2
4	22	1
4	7	2
123	123	4
4	29	1
55	55	2
58	73	1
111	111	2
3	37	1
101	114	5
11	11	2
16	24	1
7	7	3
72	73	1
53	53	1
61	67	1
96	101	2
23	24	1
56	58	3
120	126	1
93	93	4
128	128	1
65	70	2
2	3	1
72	72	1
127	127	4
65	65	3
116	129	2
104	104	1
70	70	1
30	31	6
5	6	4
77	77	4
90	111	1
62	63	4
82	127	1
132	132	3
126	127	2
112	114	1
99	100	3
61	61	1
98	101	2
7	8	1
70	71	5
94	100	1
32	33	1
61	72	1
87	89	3
114	114	3
79	85	1
65	68	1
56	59	5
65	66	2
2	2	2
120	122	3
96	103	1
101	101	2
66	72	1
15	20	4
92	92	2
129	131	1
94	95	2
122	124	4
71	86	1
98	105	1
121	122	4
110	111	2
67	67	2
3	3	1
102	127	1
84	130	1
100	109	2
10	11	1
50	51	2
28	30	1
124	124	4
25	36	1
61	71	1
5	43	1
123	124	3
96	97	1
111	112	1
13	13	1
58	58	2
68	72	1
132	133	2
61	62	1
21	29	1
66	66	1
63	74	1
75	91	1
10	24	1
90	100	1
9	9	1
28	34	1
74	75	2
19	67	1
104	123	2
96	96	3
122	128	1
98	98	1
105	133	1
53	62	1
16	17	2
84	84	2
53	54	1
45	55	1
54	110	1
89	95	1
77	85	2
75	76	1
115	115	1
103	104	1
16	23	1
4	20	1
81	134	1
134	134	1
22	23	1
26	28	1
57	65	1
36	36	2
103	120	1
73	73	1
63	82	1
59	60	1
101	109	1
128	129	1
47	95	1
90	92	1
3	5	1
103	109	1
59	93	1
92	108	1
7	94	1
106	108	1
90	91	1
35	36	1
68	69	1
24	24	1
82	91	1
69	70	1
100	102	1
117	118	1
29	29	1
119	119	1
44	45	1
95	96	1
93	96	1
98	111	1
80	120	1
12	13	1
