157	157	8
35	36	6
118	162	3
36	36	25
183	183	19
23	23	23
211	211	12
94	94	6
208	209	2
233	247	9
66	66	13
192	192	20
17	18	13
152	166	1
211	212	4
18	18	10
154	156	1
220	220	19
10	205	7
4	5	5
69	70	6
120	120	2
117	117	11
24	24	13
177	177	9
212	212	20
94	115	2
36	172	4
223	223	9
45	46	12
74	74	9
188	188	6
212	227	4
7	7	15
237	237	27
110	110	14
232	233	2
33	35	4
235	235	19
194	195	14
180	180	16
29	29	30
85	85	17
40	40	8
245	245	13
59	88	1
200	200	19
71	71	10
214	214	11
205	205	28
26	26	20
155	155	21
160	160	13
27	27	20
74	178	4
172	176	5
234	234	12
215	215	10
58	58	10
150	151	2
81	100	8
69	69	39
113	113	13
33	33	28
183	194	5
91	91	9
199	199	23
241	241	15
76	76	13
232	232	16
83	83	2
19	19	23
63	83	3
54	54	13
84	85	6
185	185	20
37	38	17
238	238	23
40	42	8
159	229	5
213	214	9
97	98	2
15	165	1
30	30	11
164	164	3
45	45	25
62	63	5
156	157	16
99	100	3
48	50	3
31	33	7
112	112	14
62	62	22
38	235	8
165	165	16
216	216	24
35	35	11
55	55	12
149	149	1
56	56	20
186	186	16
240	240	26
162	162	8
72	73	5
35	61	3
14	15	2
12	38	5
178	178	8
235	245	1
5	9	1
96	96	11
42	42	10
159	159	12
175	175	13
43	43	10
96	111	5
17	19	2
240	243	4
187	187	11
120	161	6
242	243	8
108	145	4
9	9	12
32	33	11
22	24	4
71	87	2
106	106	5
213	213	11
1	1	17
86	86	13
48	76	3
32	32	19
188	192	1
53	53	14
204	204	11
17	21	4
158	158	13
50	50	6
153	154	7
247	248	5
151	151	16
220	223	8
70	70	8
61	61	15
57	57	21
177	201	1
77	78	10
67	67	22
156	156	20
46	47	9
81	82	10
198	198	19
58	59	5
100	100	32
196	196	18
224	244	3
37	70	2
101	101	25
24	25	7
68	68	14
184	184	10
197	225	5
12	12	18
73	73	5
218	219	14
87	88	9
172	172	2
42	109	8
173	173	24
114	114	13
178	180	4
171	171	15
225	225	13
154	154	24
22	22	6
90	90	21
73	96	2
41	41	5
199	233	3
228	228	25
17	43	6
231	231	17
49	64	3
111	111	20
238	240	1
87	87	10
17	17	9
217	218	3
46	46	22
68	69	3
18	242	5
59	60	18
12	57	1
59	66	4
18	37	1
16	16	21
43	44	2
58	63	3
48	48	18
92	93	4
109	109	20
104	104	1
120	162	3
115	115	14
209	209	6
174	174	10
82	89	6
92	105	5
218	218	12
242	242	12
41	43	4
182	183	1
64	65	4
197	197	16
74	179	5
202	202	28
20	20	8
8	8	6
81	85	3
221	223	3
31	31	15
171	172	5
10	10	11
60	60	11
233	233	23
56	76	3
61	62	8
222	222	10
29	31	3
116	116	10
106	109	3
146	147	4
217	238	1
9	10	1
217	217	14
91	95	5
0	1	4
182	220	4
84	84	21
112	115	3
82	82	16
183	184	11
15	15	12
59	65	3
63	64	9
206	228	4
84	100	2
167	167	8
159	170	1
18	20	1
156	169	1
30	36	6
246	246	19
45	69	4
150	150	26
16	199	3
37	37	11
86	87	2
118	119	10
150	173	3
216	220	2
52	52	16
199	200	4
216	241	1
159	160	7
99	99	5
203	203	15
218	221	2
182	193	3
236	237	5
63	63	12
204	228	2
30	38	6
23	24	1
65	67	6
182	229	4
77	77	10
243	244	9
221	221	10
179	179	21
217	242	1
203	204	4
120	203	4
15	37	1
224	224	11
63	95	6
107	107	10
166	166	14
244	245	2
201	202	2
207	210	8
161	161	14
70	71	6
170	178	5
216	218	2
145	145	6
238	239	8
100	166	1
239	239	15
201	201	9
195	195	10
195	198	6
184	185	8
144	227	2
188	233	1
215	216	2
182	204	6
164	165	2
217	241	2
25	26	10
100	101	7
76	111	1
72	72	9
172	173	9
7	12	5
73	237	2
6	7	5
109	110	7
21	21	3
55	67	1
47	47	11
162	164	4
119	119	12
152	152	10
115	118	4
70	85	3
98	99	2
14	167	3
163	163	7
105	106	4
39	97	1
170	170	12
182	182	6
144	144	1
197	198	14
92	92	15
88	88	3
190	190	6
169	171	4
73	239	3
76	77	10
206	206	7
215	220	3
93	145	2
49	50	4
244	244	12
16	161	2
38	38	22
8	9	4
83	95	2
164	178	1
153	153	13
77	111	7
65	65	7
169	170	4
154	155	2
80	80	11
203	207	3
152	175	2
207	207	6
30	40	1
119	121	1
32	40	2
25	25	15
165	168	3
11	11	11
202	203	3
218	243	3
212	214	3
104	119	1
160	169	2
89	89	12
168	168	17
173	176	3
162	197	6
110	111	6
181	181	20
202	204	11
226	226	16
21	22	2
227	227	9
198	226	2
21	25	1
85	246	3
176	176	3
52	53	7
12	156	1
179	180	8
104	110	2
32	41	5
52	55	2
199	227	3
95	95	8
4	6	1
5	5	12
194	194	5
11	13	1
44	44	22
28	28	15
14	231	2
14	22	2
34	35	5
89	90	4
210	219	5
73	230	1
51	54	2
49	49	7
103	103	8
245	247	2
76	173	1
68	70	5
4	4	5
234	247	2
51	51	10
21	37	1
201	209	1
206	207	5
43	47	1
91	104	2
73	74	12
91	92	10
166	170	1
180	195	1
192	205	2
29	228	1
236	236	9
27	201	1
157	158	7
173	174	5
169	169	8
189	190	4
98	98	3
146	153	1
22	23	5
38	39	8
147	147	2
23	167	2
98	105	2
81	83	4
1	9	3
203	226	3
200	201	3
34	162	1
75	178	2
189	189	6
58	64	2
81	90	1
113	115	6
24	53	3
234	235	8
114	115	7
80	81	5
31	101	3
4	177	1
93	107	2
75	75	8
116	164	3
64	64	6
80	82	6
118	156	2
241	247	1
56	57	4
79	79	5
212	217	5
90	95	4
82	85	3
205	206	6
221	222	3
241	242	2
81	81	14
219	219	8
4	54	1
156	158	1
15	16	4
153	157	3
40	41	3
60	61	1
44	45	7
4	7	1
2	2	6
247	247	4
160	161	1
108	108	6
225	227	3
78	172	2
204	205	5
14	14	6
187	188	3
215	233	3
19	40	6
2	14	1
26	27	9
183	220	2
214	216	3
18	19	8
226	228	2
206	209	1
213	218	4
34	34	4
200	230	2
9	167	2
229	230	1
19	153	3
179	195	2
225	226	3
146	146	5
114	118	2
77	110	3
88	89	1
16	146	1
32	44	1
22	25	3
55	60	1
9	11	2
181	182	5
98	100	2
94	95	8
93	95	1
191	191	9
102	102	7
96	97	5
55	57	4
163	164	3
224	236	1
166	167	3
219	220	4
107	115	1
66	67	9
197	199	7
93	93	7
99	114	1
80	111	1
196	197	6
57	58	2
62	108	1
240	241	2
108	111	1
46	113	2
78	80	1
15	164	2
149	150	2
167	168	7
59	59	2
176	179	2
189	191	2
39	39	12
15	25	2
234	236	3
54	55	8
162	168	4
239	240	4
176	177	5
181	204	4
118	118	5
69	86	1
103	104	1
190	191	2
154	173	3
49	78	2
163	166	1
207	208	1
6	165	2
36	167	2
207	213	2
9	243	1
246	248	1
53	54	1
198	199	14
47	49	2
243	243	8
153	156	4
155	156	2
36	65	2
184	210	4
168	169	4
210	218	1
16	198	2
162	227	2
181	229	2
61	67	2
189	233	2
115	160	4
164	198	1
94	98	3
95	107	1
74	100	1
3	3	6
15	22	3
26	98	1
62	89	2
90	92	4
82	83	1
84	246	3
173	196	3
198	233	2
111	113	4
39	178	1
40	113	3
31	100	2
237	239	1
144	206	1
107	108	4
64	90	1
230	231	2
41	46	2
6	6	8
1	3	1
42	45	3
111	112	2
150	178	2
20	153	1
245	246	2
206	211	1
165	166	3
187	205	3
213	215	2
6	177	1
233	245	1
174	229	4
36	84	6
86	186	1
17	23	3
36	63	1
210	210	5
49	51	5
33	34	4
178	179	5
232	234	3
60	62	3
151	152	1
162	163	3
157	167	1
188	189	1
5	7	1
115	116	2
228	233	1
35	246	2
19	20	4
38	180	3
17	225	1
148	149	2
78	78	1
39	40	1
113	114	3
90	91	3
2	3	1
230	232	5
108	113	2
15	51	5
248	248	1
191	192	2
116	117	1
30	39	1
145	201	1
51	52	5
228	229	3
152	153	2
208	208	5
74	98	1
12	36	2
8	11	2
229	229	3
31	34	2
213	236	2
171	231	1
42	43	2
97	97	1
47	52	2
183	232	2
5	13	2
158	159	1
188	190	1
175	176	2
50	109	2
36	37	1
10	11	2
216	217	1
106	107	3
91	94	2
59	83	2
33	62	2
182	232	2
230	230	4
227	228	2
30	42	2
21	115	3
222	224	1
249	249	2
17	181	3
21	46	1
171	176	1
117	118	2
15	35	2
169	175	1
209	212	1
174	185	2
215	218	1
48	199	2
193	195	1
213	233	1
1	54	1
50	64	2
41	53	1
78	81	1
6	204	1
119	120	1
164	202	1
237	238	1
41	42	1
170	229	1
192	193	2
210	211	3
235	236	3
211	227	1
209	210	1
84	88	1
145	173	1
181	231	1
45	97	1
109	144	3
194	196	1
156	161	1
188	191	1
4	176	2
10	36	1
224	225	2
172	230	1
95	96	1
74	215	1
28	29	2
204	226	1
106	116	1
226	242	2
215	234	2
246	247	2
62	179	1
64	74	2
118	121	1
185	186	1
173	197	2
116	120	1
191	196	2
161	229	1
60	64	1
0	0	1
185	193	1
234	239	2
52	69	1
64	70	1
193	221	1
177	178	1
33	36	1
16	36	1
173	180	1
213	242	1
227	229	1
60	66	1
172	231	1
51	68	1
91	93	1
33	61	1
213	224	1
5	6	1
217	220	1
39	68	1
75	79	1
226	246	1
42	79	1
30	37	1
15	229	1
69	85	1
1	2	1
118	164	1
182	233	1
57	62	1
83	85	1
6	198	1
93	94	1
7	8	1
153	164	1
