77	77	10
50	88	2
76	76	10
56	73	6
33	33	10
59	70	4
22	94	4
54	54	13
87	88	5
39	55	2
57	67	3
70	74	3
40	40	11
61	67	3
73	73	13
69	73	3
95	97	5
42	44	5
89	89	8
70	70	21
70	75	1
72	72	11
81	81	15
38	38	3
51	52	3
78	79	6
86	86	10
62	62	12
96	96	17
31	31	4
85	86	3
64	65	3
51	51	14
53	53	2
94	95	10
26	26	6
49	97	4
83	83	13
30	30	1
87	91	3
80	80	14
62	63	3
67	67	6
67	68	4
84	84	7
37	38	1
69	69	10
45	45	5
68	85	2
75	75	12
55	79	4
68	68	13
81	89	4
80	81	3
54	77	3
27	27	5
49	89	2
73	75	2
24	24	5
47	47	6
88	88	7
26	43	5
37	37	5
93	93	7
66	66	5
74	74	9
72	74	2
79	79	5
61	61	13
66	67	3
38	89	1
61	86	1
31	58	1
95	96	1
25	25	1
57	86	3
41	42	4
82	82	7
63	64	3
25	98	4
71	71	6
63	63	7
100	101	2
51	85	2
49	49	4
20	80	2
94	94	5
99	100	2
35	35	6
49	50	3
32	33	3
65	65	5
20	21	2
63	66	5
56	56	5
25	26	5
22	88	5
22	98	4
61	62	7
91	92	1
79	80	5
81	82	3
55	102	4
36	36	2
60	74	3
61	64	1
87	87	4
80	87	3
91	91	3
92	92	8
28	28	6
96	97	1
97	97	2
68	69	1
64	81	3
64	64	11
48	83	2
22	22	3
56	101	3
101	101	5
52	52	4
69	71	4
84	89	2
82	83	1
99	99	2
35	77	2
32	32	1
91	93	1
82	86	2
28	48	3
38	98	2
46	57	2
101	102	2
49	98	2
41	75	1
69	86	3
75	81	4
57	57	1
46	46	7
53	54	4
78	78	9
83	84	3
63	83	1
53	93	3
62	67	5
95	95	1
55	58	4
36	52	3
59	59	2
70	72	1
79	81	5
71	72	7
44	99	2
80	93	5
34	34	5
28	33	1
79	88	1
38	58	2
93	94	2
59	72	5
70	71	2
58	59	2
68	94	2
44	44	1
64	91	1
47	100	2
50	51	1
73	86	2
39	56	1
55	64	1
74	75	1
87	97	1
65	89	3
23	33	2
87	92	2
59	77	1
42	42	2
86	98	1
29	56	2
45	100	1
42	45	1
58	58	1
36	51	1
41	45	1
67	75	2
51	102	3
22	53	1
50	50	1
60	60	3
80	82	1
55	57	2
63	65	1
50	84	1
43	43	3
45	99	1
34	37	2
100	100	3
81	95	1
93	95	2
41	41	1
58	80	1
68	81	1
20	24	1
39	39	2
59	73	1
27	33	1
29	52	1
85	85	1
