42	42	2
92	92	9
40	40	18
61	63	4
29	29	4
40	41	7
81	81	4
47	47	10
69	69	17
23	29	6
35	91	5
76	76	11
98	100	6
35	35	21
39	39	5
72	72	9
100	102	5
92	93	4
85	85	11
27	28	3
56	56	10
92	95	4
86	86	5
64	64	7
84	86	3
33	34	3
33	33	7
68	69	10
45	45	12
104	105	7
79	79	3
82	83	8
103	103	8
20	42	1
60	61	2
78	78	20
21	21	19
74	74	8
50	51	1
65	65	4
84	85	5
49	49	5
49	61	4
95	95	21
97	97	8
81	83	2
53	54	3
37	96	2
96	97	8
89	90	7
73	73	6
37	37	7
94	94	14
52	53	5
93	93	10
96	96	17
41	41	4
22	23	2
83	83	11
75	75	8
79	80	7
75	103	1
51	52	1
57	57	4
22	28	2
38	38	4
39	41	3
60	60	9
101	101	8
50	50	8
54	59	3
82	86	2
66	67	9
90	90	7
99	100	3
36	36	4
53	55	2
82	82	5
55	55	6
100	100	9
99	101	3
75	102	7
34	101	5
104	104	8
21	64	1
58	58	9
99	106	5
21	43	1
88	91	1
48	48	12
66	66	5
54	54	13
84	84	6
39	40	1
31	100	3
23	23	10
61	61	8
59	59	4
31	102	2
24	25	6
102	102	2
34	34	11
44	44	1
81	88	3
32	32	5
24	24	5
62	62	5
106	106	8
20	20	4
25	27	5
21	24	1
27	27	5
51	60	4
71	74	2
22	22	10
68	68	10
46	46	2
92	94	2
26	27	1
44	45	3
73	75	1
64	67	4
28	28	7
42	43	5
86	88	2
22	27	5
33	36	5
45	46	2
29	30	1
62	67	5
51	51	6
81	82	1
52	52	4
64	65	3
106	107	3
31	31	5
80	80	7
99	99	13
78	81	3
20	21	3
86	87	4
94	95	2
34	91	1
100	101	1
89	89	5
77	86	1
36	92	1
35	36	2
26	26	4
25	25	2
65	66	2
87	87	4
63	63	3
30	30	1
31	101	1
91	92	1
67	68	4
32	104	1
91	100	1
34	95	2
77	77	3
97	98	2
77	78	1
91	91	5
43	43	1
37	106	2
50	60	1
43	44	1
46	47	1
32	33	2
95	96	1
31	103	4
84	102	2
80	82	2
80	89	1
30	106	3
56	57	1
96	99	1
83	87	1
89	92	2
45	48	1
105	105	1
21	104	1
91	95	2
53	53	1
23	24	3
70	70	1
87	88	1
67	67	1
58	59	1
31	106	1
98	99	1
40	42	2
48	49	1
93	94	1
24	42	1
77	84	1
75	76	1
32	103	1
