75	77	6
80	80	10
49	50	4
128	128	6
28	28	7
125	131	4
53	113	1
17	17	3
14	16	2
72	76	2
24	25	1
39	72	1
80	81	1
0	0	8
13	13	3
54	54	5
19	19	3
112	112	7
108	108	9
89	91	2
51	51	5
3	3	13
52	52	5
25	25	4
64	65	2
43	44	5
39	76	1
102	104	1
104	104	4
111	111	7
124	124	9
107	107	7
132	132	4
41	44	1
50	50	2
41	41	2
66	66	7
70	71	1
40	77	4
43	45	2
73	76	3
82	82	2
39	39	10
116	116	9
93	93	2
120	120	9
14	14	2
93	94	3
96	96	4
105	106	7
38	38	2
91	92	5
130	130	2
52	54	3
83	83	1
24	24	10
26	27	2
46	46	2
18	38	3
89	90	2
53	53	6
18	19	1
122	122	1
72	77	5
49	49	4
77	77	1
51	56	8
79	79	4
71	89	3
3	16	1
65	65	1
84	85	3
10	10	2
101	101	9
48	48	2
26	26	1
27	27	3
4	4	4
61	61	4
119	119	1
109	113	2
29	29	5
113	113	1
125	132	2
97	97	1
72	73	1
92	118	1
75	75	6
85	85	4
40	40	3
15	15	2
98	98	7
47	47	1
63	63	1
129	129	4
100	100	7
64	66	1
98	100	1
92	92	4
22	23	1
43	43	7
114	114	3
117	117	4
32	32	2
115	115	7
23	23	2
99	100	2
51	55	4
128	129	4
60	60	1
71	100	2
4	14	2
76	76	5
42	42	5
116	121	1
11	12	1
131	133	1
89	89	2
12	109	1
74	74	3
131	131	3
19	32	3
91	91	4
126	126	1
6	6	1
90	91	2
1	1	1
52	55	1
22	22	2
50	51	1
90	90	3
118	119	2
73	73	2
93	98	2
23	24	1
109	110	1
30	30	2
41	42	3
40	72	1
9	9	2
33	34	2
67	67	1
99	99	1
95	95	3
11	16	1
62	64	1
113	114	3
102	108	4
33	33	1
27	28	1
67	83	2
45	45	2
110	110	1
48	107	1
123	124	1
57	112	3
21	21	1
44	44	1
76	77	2
6	7	1
133	133	3
119	120	1
69	74	1
105	105	2
69	80	2
7	7	2
75	76	2
78	78	1
94	95	2
2	2	2
69	70	1
102	102	3
110	111	2
81	81	1
41	100	1
106	106	1
31	31	1
13	55	1
23	28	1
121	121	1
86	87	2
22	25	1
