54	54	23
88	88	38
55	80	5
80	81	10
65	65	63
76	77	12
85	85	38
33	33	25
76	76	29
75	77	4
69	69	36
49	49	11
71	71	48
61	61	29
68	72	3
45	48	5
25	26	10
51	54	6
95	95	24
22	23	7
82	82	8
63	63	38
86	86	21
67	67	41
62	62	47
52	52	25
64	64	25
74	74	35
96	96	11
22	22	19
44	44	23
66	66	24
93	93	22
72	72	30
51	53	3
44	51	8
84	84	20
83	83	15
81	81	46
78	85	3
39	39	31
85	87	6
40	97	2
34	76	4
31	31	13
57	57	19
31	43	1
28	51	2
80	80	32
92	92	8
40	40	23
66	70	1
89	89	40
48	48	29
86	87	22
87	88	9
38	38	25
27	45	2
74	75	4
42	42	16
68	68	37
82	84	3
73	73	27
26	27	9
62	63	9
77	77	23
37	37	16
27	27	23
85	86	8
24	26	5
28	83	1
61	62	9
99	99	21
58	60	1
78	80	3
59	59	11
70	70	26
57	63	4
97	97	20
47	47	11
35	35	5
87	87	28
102	102	10
98	98	25
90	90	11
45	45	14
78	78	21
66	68	7
86	89	4
79	87	2
36	36	16
57	62	3
75	75	24
40	54	1
55	65	1
62	94	3
65	78	1
68	69	4
56	56	6
101	101	17
38	40	1
42	75	5
51	52	8
88	89	9
53	54	2
94	94	12
54	102	1
79	79	27
29	29	15
46	53	3
79	88	10
36	37	6
58	59	3
61	97	2
46	46	8
41	41	12
93	94	9
63	64	12
67	73	2
91	91	15
25	25	9
84	88	3
32	32	2
32	33	3
52	54	6
34	34	4
32	53	4
66	67	7
41	75	7
56	57	7
30	30	6
101	102	5
81	82	12
53	53	12
61	89	7
86	95	2
71	72	9
47	62	2
69	70	16
29	30	8
38	77	2
35	36	1
55	55	3
27	54	4
92	93	6
23	27	4
49	81	2
48	49	10
55	56	2
70	71	4
49	63	3
53	80	1
72	74	4
59	60	6
99	100	11
65	77	1
46	47	7
62	98	5
39	77	3
42	74	2
90	91	6
94	95	5
50	52	4
37	38	3
46	54	3
57	58	8
55	61	1
73	74	4
60	61	6
60	60	10
34	41	2
22	27	1
21	22	1
40	96	2
45	100	2
47	48	11
78	79	6
87	97	3
58	58	7
52	53	5
20	21	1
23	23	12
51	51	12
94	98	6
77	78	3
100	100	17
96	97	2
83	84	7
51	55	3
50	53	1
58	63	3
51	63	2
38	79	1
45	52	2
50	50	18
72	73	1
27	52	1
33	34	3
66	78	1
65	91	4
33	40	1
95	98	6
63	72	3
61	96	2
28	28	5
84	92	2
64	72	3
100	101	2
26	26	6
95	97	2
60	62	1
57	59	3
27	28	4
56	61	8
49	50	11
52	76	1
23	24	3
54	55	3
71	73	2
84	89	5
20	101	3
64	84	2
42	64	3
28	53	1
43	43	9
86	98	1
35	40	1
69	75	1
62	93	2
68	77	3
91	92	3
27	53	3
20	22	1
73	84	1
34	39	1
81	88	5
35	37	2
59	62	1
80	87	1
40	41	2
45	46	3
79	81	1
82	89	4
66	73	1
67	68	6
66	91	5
75	76	2
70	77	1
44	45	2
73	86	1
43	59	2
87	89	1
59	99	1
28	54	1
89	95	1
50	51	2
68	93	3
34	35	1
89	90	1
67	91	3
67	69	4
92	94	2
97	98	1
32	41	1
20	23	2
23	25	4
49	51	3
82	92	3
57	65	3
43	57	2
42	43	3
41	42	4
68	71	1
68	70	2
24	25	3
83	93	1
61	88	1
39	76	1
76	89	1
82	83	1
33	77	1
86	99	2
67	72	1
79	80	1
78	90	3
54	56	2
48	54	2
69	71	1
83	96	1
81	84	1
33	89	2
58	61	1
47	54	1
39	81	1
58	99	1
63	66	1
37	80	2
39	40	1
71	77	1
69	79	1
65	66	1
84	91	1
37	39	1
