67	67	3
27	27	3
152	152	2
90	158	4
156	160	3
25	25	10
110	114	4
88	90	1
142	142	4
130	130	6
125	125	5
4	4	3
0	1	1
20	22	2
11	12	4
15	15	6
52	70	3
119	127	1
136	136	5
106	106	4
127	128	1
18	75	2
129	129	6
135	139	2
7	22	2
159	160	2
123	124	3
20	23	1
118	119	8
74	75	2
44	44	6
90	133	4
121	122	4
73	73	4
92	92	2
89	89	3
14	16	1
131	131	3
143	143	5
88	88	1
47	47	3
99	99	4
148	149	3
16	16	8
3	4	2
63	63	2
153	153	3
35	35	4
128	129	8
76	76	5
41	42	2
82	82	2
41	45	1
5	9	1
52	52	10
33	39	1
47	48	1
56	56	4
6	7	3
86	86	4
164	164	3
124	124	6
21	74	2
147	147	4
53	53	1
9	9	3
112	113	1
14	15	1
138	138	4
55	55	1
108	108	3
5	5	3
134	134	3
137	137	9
127	127	1
50	67	2
141	141	3
145	146	3
111	111	1
104	104	3
137	138	4
5	8	6
66	66	1
83	83	1
97	97	1
10	10	5
134	135	3
161	162	2
117	117	4
53	70	2
84	84	1
139	139	1
36	36	2
12	13	4
62	85	3
65	65	5
139	140	2
41	56	1
1	2	2
2	2	2
76	98	2
105	105	2
100	100	4
15	16	1
21	21	5
11	53	1
13	13	5
155	155	1
24	24	2
118	118	3
11	11	2
9	10	2
63	81	2
85	85	5
14	37	2
6	54	1
153	165	1
28	28	2
107	107	1
20	24	3
72	72	2
38	39	2
78	79	3
3	3	1
128	128	1
151	151	2
58	58	1
43	43	1
116	116	4
132	132	4
142	143	2
41	41	2
11	24	1
25	41	2
5	7	1
13	38	1
50	52	3
91	130	1
94	95	2
148	148	2
91	91	2
165	166	2
90	129	3
114	114	2
68	68	1
149	149	3
70	71	2
43	44	1
124	125	1
74	76	2
117	120	2
78	78	1
135	135	1
33	37	1
73	74	3
166	166	2
157	161	1
114	131	1
51	58	2
4	8	1
13	16	1
110	110	1
126	126	3
150	151	1
14	14	2
103	103	3
69	71	2
40	40	1
0	0	1
39	39	1
102	102	1
12	17	1
50	65	1
62	62	1
110	111	2
123	125	2
90	90	1
12	72	2
153	154	1
99	100	1
100	104	1
22	23	1
140	140	1
144	145	1
97	98	1
91	93	1
154	164	1
37	38	1
154	154	1
160	160	1
70	70	2
145	145	1
17	75	1
22	22	1
13	57	2
93	93	1
38	38	2
16	18	1
12	12	1
76	108	1
38	56	1
119	119	1
26	26	1
33	33	1
119	160	1
126	127	1
