27	74	5
45	46	10
51	63	2
29	29	23
48	49	4
42	42	16
39	40	8
63	66	2
17	17	15
18	18	11
36	36	18
30	46	1
9	9	6
28	28	8
37	37	7
72	72	10
40	41	2
54	54	10
27	75	4
52	52	7
14	21	4
10	11	13
2	2	25
38	38	19
31	69	10
52	56	1
74	74	7
56	57	12
61	61	19
53	53	16
64	64	8
11	13	4
4	4	13
68	70	10
13	13	8
41	41	15
31	31	7
49	51	3
63	63	9
32	72	8
27	27	15
39	58	6
58	58	13
76	76	13
56	56	19
55	55	15
80	80	10
57	57	14
1	76	3
69	69	12
3	47	3
41	71	3
66	66	10
12	66	2
73	73	11
5	51	4
8	8	18
53	71	2
37	38	3
35	35	19
67	67	3
19	19	17
65	65	13
32	32	9
15	15	8
68	69	5
8	31	2
50	50	12
5	5	7
16	47	3
3	3	6
9	10	2
62	62	11
47	47	14
54	70	8
29	30	4
77	78	2
12	48	2
49	66	4
71	71	10
5	7	4
7	7	11
76	77	7
63	64	4
14	14	12
79	79	10
1	2	3
51	52	6
67	71	1
78	78	8
1	1	10
30	30	11
6	27	1
43	43	6
3	5	2
31	32	2
10	10	16
4	7	2
31	33	3
67	68	8
49	49	10
69	70	2
52	65	2
49	50	7
61	62	1
39	39	5
54	67	6
77	77	6
26	61	2
65	66	8
47	48	2
35	73	1
33	33	4
60	60	6
60	61	9
1	75	1
9	11	3
40	40	16
16	19	3
27	37	2
48	64	4
72	73	1
75	75	10
64	65	5
57	66	2
12	12	8
70	70	7
9	20	3
26	26	8
9	13	2
55	56	1
6	36	3
34	36	2
3	4	1
16	16	12
13	14	6
50	52	7
34	35	6
19	46	1
32	49	1
4	26	5
46	46	6
15	65	1
68	68	10
10	12	8
38	39	4
12	20	4
2	44	1
66	67	3
48	48	2
31	49	2
2	5	1
6	6	3
53	54	2
12	63	1
5	9	2
6	7	2
78	79	3
21	21	2
2	3	2
18	60	1
76	78	3
11	49	1
30	33	2
51	51	10
56	73	1
20	21	2
21	45	1
0	78	2
45	45	3
19	61	2
53	69	2
21	50	2
25	68	3
4	5	2
35	36	3
32	33	2
20	20	4
11	11	1
42	59	1
59	59	3
20	64	1
71	72	3
42	44	1
13	51	2
21	26	1
9	63	1
8	27	2
31	53	1
11	12	3
12	13	2
33	72	2
2	27	1
5	6	1
12	14	1
16	21	2
58	73	1
25	26	3
8	9	1
19	26	1
2	4	1
49	72	2
10	21	2
36	37	3
55	71	1
31	67	2
5	30	1
27	58	1
36	38	1
31	70	1
38	41	2
51	53	2
0	1	1
7	36	1
74	78	1
28	29	2
51	66	2
15	21	1
0	0	1
25	25	3
64	66	1
53	74	1
50	51	1
34	34	1
74	79	1
28	46	1
79	80	1
49	64	1
