62	62	5
12	12	7
28	28	7
4	4	9
0	14	4
67	67	5
57	57	5
0	22	4
25	77	3
42	42	12
65	66	2
48	48	10
4	7	3
68	69	4
25	28	1
39	39	7
63	63	8
42	73	2
47	47	11
2	3	5
29	29	6
30	76	7
65	65	5
57	65	1
38	68	1
45	46	4
31	31	5
43	77	1
44	55	4
34	34	15
73	73	9
58	64	2
27	28	2
75	75	3
23	23	5
73	74	1
74	74	3
72	76	4
37	37	7
52	53	2
39	40	5
9	9	10
31	76	2
49	77	2
11	14	6
57	66	3
3	3	15
59	61	4
11	11	7
61	63	3
37	38	5
47	48	3
35	35	8
32	51	1
18	28	5
6	7	4
25	26	2
24	24	10
70	70	3
33	33	5
36	48	2
19	28	1
66	67	4
36	64	1
51	51	1
26	30	6
26	26	5
56	57	1
54	58	3
8	27	1
72	72	4
38	38	8
48	59	2
5	5	8
21	21	9
58	59	6
3	10	4
39	72	3
68	70	6
2	2	5
66	69	1
13	13	2
20	42	2
43	45	4
49	59	4
30	30	3
37	74	3
26	35	3
35	46	2
56	56	3
49	49	4
55	59	4
28	32	3
68	68	3
1	11	2
69	69	4
57	58	2
35	36	4
49	75	5
3	14	1
21	41	2
6	6	8
31	36	4
43	71	4
50	50	7
33	35	1
58	58	8
45	45	4
25	25	6
51	52	2
36	77	1
47	50	5
38	39	2
37	64	6
64	77	2
73	75	1
36	44	1
55	55	10
40	40	1
31	43	2
29	47	3
3	5	4
23	25	5
0	2	1
51	74	7
42	51	1
53	53	2
38	72	5
29	33	2
36	36	4
49	68	2
20	20	2
69	70	4
45	47	3
22	23	5
76	76	3
72	75	3
26	44	5
53	54	2
46	46	7
42	69	7
60	61	3
8	10	2
22	22	1
43	50	1
77	77	2
36	49	2
53	73	2
60	60	1
42	43	2
45	57	1
32	43	1
32	32	2
19	19	1
51	75	1
52	54	3
66	76	3
44	45	1
7	7	7
23	27	3
57	62	1
5	11	3
58	74	3
32	69	1
44	57	2
47	70	1
11	13	2
25	30	1
62	71	1
52	52	2
66	66	6
40	48	2
0	13	1
42	75	1
31	32	4
8	9	2
0	0	2
61	62	5
18	34	1
48	49	4
25	29	1
10	23	2
9	20	4
37	39	1
36	73	1
66	73	1
61	72	2
29	48	2
34	42	3
67	72	1
11	29	1
7	10	3
44	44	3
1	25	1
41	41	2
34	35	1
1	2	1
19	53	1
30	69	1
24	49	1
5	6	1
33	68	3
1	1	1
61	61	2
43	43	6
62	63	2
19	20	3
22	33	2
49	62	1
71	75	1
21	54	1
35	39	2
34	53	1
34	43	1
39	59	2
47	75	1
36	52	1
14	22	1
67	73	1
71	74	2
71	71	3
18	18	2
24	51	3
67	68	1
43	60	1
28	49	1
36	68	1
60	72	3
32	68	1
43	74	1
34	70	1
64	64	1
75	76	2
35	52	3
50	73	1
38	49	1
54	54	1
18	27	1
26	28	2
25	35	1
35	45	1
