183	183	3
12	13	1
87	87	2
72	86	1
118	118	4
143	143	5
45	45	6
21	22	4
27	28	1
112	112	4
137	147	2
170	170	4
88	88	2
162	162	5
148	148	4
175	175	2
56	91	4
100	101	4
108	109	3
75	75	6
36	36	3
20	21	2
59	59	2
147	147	7
161	162	2
23	47	2
102	102	3
5	11	2
70	70	3
22	22	3
45	47	3
133	167	2
48	48	4
113	113	2
105	105	3
47	47	3
35	37	1
161	161	6
109	130	1
118	123	1
59	60	2
126	126	5
98	98	1
33	33	3
89	89	2
134	134	8
95	95	2
0	2	2
182	183	2
111	111	6
72	72	1
44	148	1
190	190	4
36	37	1
186	189	4
25	26	2
160	160	5
101	107	2
141	143	1
113	175	5
99	100	1
38	52	4
53	53	12
116	116	2
38	49	2
182	182	9
154	154	5
79	87	4
27	30	1
134	175	1
15	16	2
164	164	3
70	112	6
53	55	2
124	124	4
169	170	3
136	136	5
36	43	1
96	97	8
39	39	2
38	38	4
19	19	9
149	150	1
28	28	5
85	85	3
41	42	4
152	153	1
125	125	4
34	35	3
135	175	4
106	106	4
78	79	1
160	161	2
139	139	7
172	172	3
187	188	1
12	12	5
142	142	2
79	79	3
97	98	3
77	77	3
18	18	3
16	16	8
29	29	2
155	160	3
159	159	2
14	14	4
129	178	3
140	141	3
100	100	5
53	54	1
173	185	3
122	122	1
84	139	3
111	145	2
176	177	3
37	38	4
130	132	1
92	93	3
84	84	2
23	45	2
71	142	2
93	94	1
67	67	1
17	17	1
128	180	1
96	121	1
115	115	2
144	177	2
37	37	3
108	110	1
46	46	4
58	65	1
11	11	6
64	64	5
132	177	2
166	166	4
68	92	3
168	168	2
71	71	1
151	155	2
173	182	3
107	107	4
48	103	2
188	188	7
151	151	8
26	31	2
92	95	1
159	160	2
7	7	3
143	144	2
178	178	4
33	148	4
43	43	2
20	20	3
186	187	5
130	130	9
112	142	1
57	58	1
25	25	4
141	141	1
145	146	2
148	149	2
10	10	5
29	139	2
9	10	2
171	171	5
128	128	2
152	152	2
58	58	3
123	123	4
1	1	2
166	167	2
103	103	4
59	65	7
61	62	2
52	53	1
37	39	1
116	119	2
179	180	2
20	22	3
45	46	1
92	92	2
187	187	3
57	95	2
72	84	2
126	127	1
56	57	3
18	19	4
63	63	4
137	137	2
76	76	6
90	92	1
82	82	2
38	46	2
47	48	4
27	27	1
60	60	1
39	40	1
93	93	5
40	40	2
29	138	4
146	146	3
136	159	1
145	145	5
42	42	1
30	150	1
27	29	1
83	84	1
140	140	2
115	178	1
114	114	2
149	149	1
151	161	1
14	15	6
67	122	1
131	131	2
30	30	1
179	187	2
154	155	2
161	163	1
149	160	1
109	109	2
58	64	1
114	146	1
32	32	1
122	125	1
173	181	1
62	95	2
112	144	1
121	121	3
185	185	1
130	146	1
127	129	1
150	151	1
31	31	3
153	158	1
156	163	1
186	186	1
118	122	1
115	117	1
71	85	3
114	172	1
70	71	2
25	37	1
120	120	1
150	156	1
13	18	1
7	10	2
110	110	1
73	73	1
80	140	1
80	86	2
127	127	1
128	182	1
157	158	1
86	112	1
113	114	1
6	8	3
87	88	2
101	103	1
35	35	4
19	21	1
24	24	2
96	96	1
114	176	3
9	13	1
90	90	2
104	108	1
99	99	2
152	159	1
119	119	1
189	189	1
111	112	1
21	21	1
174	174	3
124	125	1
108	108	1
58	61	2
66	66	1
79	81	1
151	154	1
4	4	1
60	64	2
117	126	1
41	41	2
68	68	3
135	167	1
157	157	2
16	17	1
6	54	1
48	49	1
6	7	1
5	18	1
164	165	2
56	56	2
36	46	1
172	188	1
170	174	1
129	129	2
105	115	1
7	8	1
34	34	1
135	138	1
180	180	1
37	40	1
23	54	1
167	170	1
155	155	1
7	13	1
4	11	1
177	182	1
177	177	1
167	167	3
15	15	1
2	77	1
2	25	1
27	32	1
85	139	1
46	47	1
66	118	1
187	190	1
