104	104	6
29	31	4
87	88	1
16	23	4
27	27	14
83	138	6
20	20	17
38	38	12
55	59	4
4	36	10
31	32	8
0	13	3
107	107	6
142	142	10
67	67	11
5	6	4
16	16	5
1	55	4
90	90	7
107	109	3
22	22	16
21	21	8
10	10	13
136	136	9
79	79	8
130	130	13
40	41	2
54	54	7
95	143	3
59	60	5
116	116	4
70	70	9
129	131	3
83	128	3
90	106	6
133	133	21
2	53	1
3	34	6
129	140	2
98	98	11
92	93	7
125	132	7
97	97	6
88	89	3
10	61	3
81	81	12
37	42	2
64	64	5
36	37	2
23	23	7
0	0	7
117	117	12
60	60	16
9	9	11
95	96	8
120	120	8
73	74	4
47	47	9
79	129	2
91	91	3
126	126	6
26	26	12
51	51	13
38	39	1
20	22	6
103	103	22
32	32	5
83	83	13
81	82	4
81	124	1
80	121	4
120	125	4
17	17	7
19	42	5
71	130	1
53	64	6
38	40	1
142	144	2
12	12	2
16	20	4
35	35	8
80	80	5
1	34	2
18	18	7
6	10	1
12	20	4
0	36	2
110	111	2
47	86	2
129	130	6
122	122	6
5	33	4
120	129	1
75	131	4
123	123	12
31	31	11
71	140	2
88	144	4
106	106	8
81	107	2
87	101	2
86	90	4
18	69	1
29	29	19
109	109	2
128	129	7
33	84	5
144	144	11
26	27	9
72	82	3
29	32	4
136	137	1
85	85	9
82	82	12
69	69	15
34	36	3
79	115	5
25	25	5
112	112	2
37	37	11
120	121	3
63	89	2
118	141	4
56	61	1
49	49	7
74	74	4
56	56	3
6	6	6
109	110	1
6	43	1
132	137	3
15	15	13
73	73	4
139	139	6
141	141	17
72	72	5
59	59	5
139	140	3
36	42	4
37	40	4
2	16	3
129	129	4
49	50	3
13	36	1
73	118	4
58	58	6
41	41	8
17	33	1
29	57	2
1	20	3
14	14	6
42	53	3
6	32	3
3	3	4
134	134	9
109	111	1
106	108	3
131	131	7
140	140	8
95	95	8
13	14	6
54	108	1
61	89	3
39	39	1
114	114	6
119	119	7
16	35	8
105	106	2
10	42	4
19	19	9
93	93	13
63	63	4
5	36	2
89	91	5
73	125	3
145	146	1
134	135	2
65	74	2
75	75	13
115	115	7
132	132	3
5	5	5
4	34	2
76	77	2
120	130	1
49	56	4
59	127	5
77	90	5
28	28	7
30	33	1
18	22	3
73	136	7
84	84	5
104	117	4
72	138	2
88	119	3
35	36	1
52	92	2
127	127	11
89	90	3
54	97	6
97	106	5
28	59	3
25	26	1
136	142	1
108	109	5
55	83	2
131	133	2
47	55	4
79	119	4
11	12	2
133	134	4
14	37	2
100	101	1
142	143	5
65	65	12
6	100	6
86	86	6
96	96	5
85	137	2
18	109	1
36	36	2
32	33	8
42	94	3
87	87	3
125	125	6
101	101	8
105	105	5
53	55	1
1	1	3
113	113	6
111	117	3
11	32	3
112	113	4
88	88	10
57	129	6
61	61	3
120	137	1
57	82	3
121	122	2
80	110	2
84	109	4
84	86	2
114	115	2
143	143	10
31	33	2
40	40	11
13	13	9
18	19	2
3	36	5
33	33	9
133	135	1
4	42	2
2	47	6
0	3	3
99	100	4
65	120	3
82	108	2
37	48	2
123	130	1
50	51	5
24	24	4
82	126	1
108	108	5
118	119	2
105	127	2
97	105	3
30	30	10
138	138	8
124	124	11
77	77	5
92	94	2
68	142	1
23	24	4
72	73	1
119	128	2
8	8	7
75	100	2
8	9	2
88	95	1
104	105	6
55	101	2
48	48	12
34	53	2
9	144	2
57	76	1
108	112	1
135	136	4
24	37	1
14	35	2
4	4	3
5	37	6
137	137	3
85	86	1
22	23	9
118	140	1
70	71	1
37	39	1
108	111	1
71	71	5
11	100	5
75	95	1
53	53	4
13	107	6
132	139	2
10	31	1
124	125	1
97	117	1
102	143	1
122	123	2
15	54	3
123	124	2
67	93	1
6	66	2
62	63	2
20	21	4
132	134	3
99	99	3
1	113	3
116	117	2
92	92	1
107	125	1
77	79	3
50	50	7
66	74	5
140	141	2
80	112	2
42	42	1
115	118	6
48	50	4
55	87	1
83	86	2
135	139	1
9	10	4
121	121	1
0	4	1
122	129	2
94	94	5
87	89	2
1	63	2
14	16	1
113	116	1
85	111	5
59	103	6
11	11	6
62	62	4
3	33	2
65	119	4
33	38	1
81	108	3
61	91	2
67	69	2
59	62	4
118	118	4
13	17	1
10	52	1
101	103	4
103	105	1
62	91	5
2	2	1
24	25	1
12	35	1
69	71	1
57	80	2
19	97	3
137	140	1
110	112	1
34	35	4
65	70	1
56	123	1
89	126	1
3	43	2
1	47	5
134	139	5
9	67	1
29	30	1
90	110	2
57	57	5
66	66	8
76	76	5
105	112	1
80	96	1
16	28	2
109	113	1
78	78	4
0	20	2
97	116	1
100	100	2
58	83	1
98	117	1
11	101	2
125	126	1
110	138	2
107	110	3
60	61	1
43	43	3
29	51	1
131	141	1
98	103	2
33	41	1
52	93	1
25	27	2
53	57	3
53	58	3
1	3	2
62	126	2
34	66	1
19	21	2
131	139	1
83	84	1
104	108	1
5	34	1
66	135	1
91	93	3
10	11	2
128	128	1
87	95	1
14	17	3
54	101	1
49	57	1
119	142	1
55	60	1
71	73	1
56	64	2
82	138	1
135	135	10
8	66	1
96	97	1
77	121	2
47	48	3
66	67	1
34	34	1
89	89	8
115	117	2
14	39	1
58	59	2
73	106	1
2	54	1
92	117	1
92	96	1
81	112	3
91	110	2
30	58	2
74	107	1
13	15	1
87	90	1
11	62	1
52	52	2
136	139	1
102	102	1
17	24	1
87	125	1
28	32	1
130	131	1
21	43	1
62	127	2
71	112	1
55	55	3
120	131	2
4	5	1
98	104	1
132	133	3
78	128	1
39	96	1
80	107	1
136	146	1
21	54	1
110	110	3
56	59	2
119	122	1
84	120	1
58	60	1
6	28	1
74	118	2
14	15	4
70	144	1
79	118	1
99	101	2
20	102	1
145	145	1
49	51	2
97	98	2
67	68	1
123	128	1
74	90	1
98	99	1
97	103	1
56	58	1
3	35	1
106	117	1
119	126	1
28	57	1
12	42	1
82	83	1
103	104	1
58	64	1
61	102	1
60	64	1
1	46	1
79	125	1
61	64	1
54	64	1
52	94	1
113	117	1
34	54	1
9	142	1
23	25	1
0	1	1
