219	220	2
212	212	5
4	5	3
128	128	5
165	165	4
156	211	9
71	72	3
43	43	10
98	98	6
50	52	3
84	96	2
36	36	5
68	68	4
66	66	1
65	182	1
241	241	4
232	232	7
73	73	4
70	70	8
79	80	4
184	200	3
121	121	3
50	50	6
38	38	4
136	137	6
112	112	4
63	202	1
138	138	9
67	67	4
111	111	9
24	24	13
117	117	4
144	144	5
37	37	4
27	28	1
25	25	7
83	83	4
171	172	3
175	175	3
75	75	11
108	131	6
21	21	4
20	20	3
164	164	8
225	226	1
218	218	5
27	27	12
148	148	4
172	173	5
44	44	8
0	0	2
74	75	2
180	181	5
234	234	7
236	236	3
88	88	2
125	125	6
224	224	4
220	220	3
28	28	8
9	10	2
198	198	6
12	12	5
134	134	4
230	231	2
157	230	2
209	238	6
108	108	2
100	100	2
59	77	1
124	124	4
86	86	3
45	45	3
217	228	1
172	172	6
145	145	3
26	26	1
136	136	4
59	59	1
40	40	3
187	187	6
115	224	1
73	74	11
47	47	9
208	208	2
37	38	1
115	116	3
135	219	2
122	122	1
49	49	2
96	96	1
167	167	4
177	178	2
102	102	10
182	183	1
176	176	1
85	86	3
176	177	1
125	126	5
71	71	1
237	237	3
6	7	1
178	178	5
78	78	2
49	50	3
152	214	4
153	206	1
198	200	2
9	9	1
85	85	2
99	169	1
82	82	2
26	27	6
188	190	2
203	203	5
179	206	2
236	237	9
20	22	1
129	129	3
204	204	2
211	213	2
188	188	1
106	106	1
109	130	1
48	49	2
8	8	2
185	200	3
8	9	2
154	154	1
196	196	2
123	123	4
6	6	1
184	184	2
37	75	7
208	230	1
168	168	3
18	22	6
63	63	2
233	233	4
109	131	1
202	203	1
223	223	6
201	202	3
209	209	2
159	238	1
106	107	3
18	20	2
60	60	3
237	238	1
191	191	1
152	152	2
32	33	2
231	231	4
53	53	3
151	205	1
104	104	2
11	11	3
102	103	2
107	107	2
111	220	4
11	24	1
171	171	3
30	31	3
152	153	2
150	204	2
17	17	2
28	75	2
70	137	4
226	226	3
55	202	1
149	150	3
118	119	1
13	15	1
103	105	2
170	219	1
149	149	4
205	205	1
203	204	1
21	23	3
190	227	1
79	79	1
114	115	1
137	138	2
42	42	4
162	211	1
54	54	2
208	238	1
54	55	3
115	115	1
7	8	2
62	62	1
3	3	2
45	46	5
161	161	3
44	86	5
51	51	2
150	150	1
11	12	4
154	212	1
122	135	1
30	30	4
139	140	2
7	7	2
191	227	1
74	74	2
43	97	3
217	217	2
242	242	1
145	146	5
77	77	2
43	96	1
235	236	1
202	202	3
146	146	3
217	218	1
225	225	2
163	196	1
41	41	3
200	200	1
171	208	1
50	51	2
162	162	1
197	197	2
211	230	2
210	210	1
57	57	1
21	31	1
14	31	2
235	235	2
78	79	2
181	181	1
28	49	4
55	73	1
19	20	1
135	135	2
211	211	1
206	206	2
163	163	2
112	220	2
239	239	2
206	207	2
211	215	1
191	217	2
123	124	1
117	119	1
53	151	1
111	182	1
218	219	1
185	187	3
191	218	3
35	77	1
34	34	2
174	174	1
62	63	1
14	14	1
15	37	1
221	222	1
4	4	1
57	60	1
71	73	2
48	48	1
2	3	3
1	2	1
23	23	1
162	229	1
97	97	1
5	5	1
53	75	1
128	223	1
109	109	1
207	207	1
120	120	1
76	76	1
10	11	1
80	80	1
15	36	2
189	189	2
162	210	1
2	2	1
113	114	1
133	133	2
150	151	1
34	35	1
55	55	1
163	191	1
19	19	1
34	79	1
111	181	1
35	35	1
215	215	1
105	223	1
69	69	1
56	57	1
