52	52	4
87	87	7
205	205	3
197	197	5
19	19	4
10	10	5
90	90	2
177	177	4
182	187	1
227	241	2
116	116	3
95	105	4
152	153	8
75	76	1
50	58	2
9	9	9
36	167	1
239	239	6
55	70	2
164	164	3
18	19	8
191	191	5
203	203	7
56	57	1
23	24	6
156	156	4
25	25	4
106	107	2
68	68	5
82	82	4
172	172	5
181	181	6
174	196	2
245	245	3
36	36	3
161	161	10
229	234	1
88	88	9
151	159	4
186	186	5
1	1	1
151	151	1
193	207	1
38	39	4
151	156	2
217	217	5
214	220	1
224	226	1
41	41	4
94	95	5
154	154	4
79	80	3
22	22	1
34	34	5
210	210	7
54	78	3
242	242	5
38	38	2
94	94	2
101	108	3
235	235	3
33	33	4
243	243	6
180	180	1
39	39	3
172	209	2
58	74	2
49	245	4
12	12	4
197	199	3
233	233	4
53	85	3
113	113	1
151	160	1
244	244	2
120	145	1
12	13	1
46	46	6
221	221	2
240	240	1
202	202	3
161	211	3
26	26	3
111	120	1
91	116	5
155	155	3
100	100	7
201	202	2
173	174	2
218	218	7
227	236	2
216	218	1
53	53	2
208	209	3
28	28	2
24	24	5
66	66	2
223	223	4
89	89	3
112	112	1
167	167	5
32	32	3
95	95	2
202	204	2
63	74	2
224	225	4
12	28	5
64	64	1
96	96	2
72	73	5
201	201	6
231	241	1
158	158	2
220	220	1
145	145	1
187	191	2
204	204	4
78	86	2
48	56	2
60	64	1
6	6	5
78	87	1
243	244	2
200	200	3
211	211	3
47	87	1
41	42	3
45	45	6
162	162	2
42	43	2
23	23	7
4	4	2
162	163	2
176	178	4
229	230	1
232	233	2
168	171	1
47	65	2
161	207	2
61	61	3
169	182	1
5	5	4
193	194	2
185	186	3
49	50	6
176	177	1
111	112	2
31	31	2
226	226	2
111	210	1
12	41	1
111	111	2
66	74	1
8	8	3
164	166	1
208	215	1
159	159	5
10	36	4
204	205	2
76	76	4
35	36	1
52	62	6
12	24	2
15	247	1
176	176	2
35	35	1
37	37	5
40	40	5
105	105	1
106	106	3
91	91	4
85	91	1
97	97	3
48	60	2
10	24	1
161	162	1
2	3	2
161	179	1
170	187	1
213	221	1
27	27	5
187	189	3
201	203	1
213	213	3
194	196	3
16	16	6
238	238	1
170	170	2
185	204	3
187	187	5
65	65	2
192	192	2
184	184	2
1	44	2
193	195	2
73	74	2
237	237	2
21	21	1
49	49	2
75	75	1
84	84	3
27	28	3
112	210	3
86	86	4
32	109	1
83	85	3
171	172	1
101	101	1
179	179	4
241	241	4
221	222	2
188	204	3
119	119	2
114	116	1
146	147	1
2	180	1
171	211	1
30	30	2
53	90	3
101	105	2
155	156	1
212	212	6
208	210	1
17	17	3
90	116	3
33	110	1
29	29	1
55	55	1
80	80	2
166	166	1
15	17	5
54	54	1
234	242	2
230	230	3
44	44	3
71	72	3
48	63	1
48	49	1
96	97	1
144	144	1
179	207	3
2	171	1
7	8	1
109	109	3
51	51	1
56	56	4
191	192	1
221	223	4
195	197	2
17	26	1
7	7	1
88	89	1
229	243	1
93	93	2
231	231	2
87	88	3
85	92	1
194	197	1
229	229	1
78	78	1
2	2	2
15	15	1
228	229	1
20	21	1
232	232	2
104	104	2
175	175	2
209	209	2
99	100	1
234	237	1
157	159	1
37	181	1
28	41	1
107	107	1
148	156	3
209	210	2
194	200	1
199	200	1
198	198	1
156	157	1
67	67	1
48	48	2
157	157	1
248	248	1
222	222	1
115	115	1
52	54	1
89	115	2
58	58	2
201	205	1
168	168	1
157	158	2
213	214	1
65	76	1
