108	108	13
53	53	9
4	4	6
148	148	14
93	131	3
123	124	3
68	68	12
135	135	6
87	87	16
77	78	7
134	134	8
158	158	8
17	18	9
54	54	7
127	142	4
81	81	15
155	158	1
65	66	1
28	28	10
134	135	1
123	123	1
117	117	5
13	13	10
47	47	13
100	100	5
38	39	5
84	84	9
106	148	2
140	140	2
10	10	13
45	71	4
124	141	2
27	27	12
98	98	12
11	16	1
155	155	4
119	136	4
38	54	3
19	20	2
23	23	9
92	95	2
73	149	3
26	26	4
10	18	3
133	133	10
50	91	2
94	94	8
86	86	6
50	54	4
111	116	4
19	19	13
131	134	4
27	100	3
144	147	2
131	131	9
144	145	6
125	126	3
107	107	10
97	97	6
104	105	5
93	93	3
112	115	2
121	121	3
11	12	6
145	145	13
7	7	3
136	136	9
34	34	9
26	100	2
118	146	4
39	39	5
115	150	2
11	84	3
17	17	4
132	132	8
123	135	2
41	54	11
101	101	11
95	95	10
48	48	3
16	115	1
64	64	4
34	49	1
111	111	3
2	2	4
35	35	9
105	105	8
21	28	4
43	43	9
89	89	5
36	36	2
70	70	7
25	25	5
9	10	3
24	149	3
70	90	3
87	88	5
119	120	2
35	92	2
20	31	4
91	92	1
62	62	5
96	96	6
42	43	5
127	127	3
64	67	4
40	40	11
53	55	5
42	64	4
105	148	1
124	124	5
4	154	1
86	87	5
43	90	4
153	154	6
13	85	1
90	91	3
18	19	3
129	129	17
24	105	3
41	51	4
99	99	13
128	128	6
126	126	12
31	31	11
45	67	4
139	158	1
146	146	5
14	15	3
1	1	8
49	86	5
85	85	9
45	68	1
30	30	4
36	92	4
10	12	2
116	116	9
13	14	9
45	70	5
32	32	5
20	20	5
16	17	2
24	24	10
51	52	3
3	3	3
150	150	4
91	91	9
144	148	4
54	55	3
26	150	4
113	113	3
106	114	2
47	48	1
125	125	2
128	129	1
80	80	2
111	112	12
3	4	3
14	14	13
95	96	2
41	50	6
146	147	5
8	8	8
22	22	3
118	145	5
16	16	5
93	132	3
90	90	6
22	23	4
141	141	3
75	75	4
27	28	1
103	106	4
55	55	2
42	42	9
52	52	4
24	25	1
103	110	1
29	151	1
122	122	5
69	69	7
120	121	6
95	130	1
32	33	2
110	134	4
118	123	2
50	50	2
12	84	1
51	51	7
140	148	1
146	148	1
46	97	1
112	134	2
21	30	4
41	41	6
43	88	3
15	33	3
137	137	3
48	83	1
145	148	5
139	140	6
104	140	3
65	65	1
120	120	1
104	114	2
36	37	3
24	29	2
106	106	3
117	118	1
15	15	4
6	6	2
41	87	1
34	112	1
46	46	11
92	92	5
126	142	2
138	138	6
157	157	3
154	154	6
156	156	4
140	141	4
124	127	2
36	70	2
143	143	3
92	93	5
25	26	7
40	41	7
33	33	2
121	122	2
44	44	5
153	153	4
118	118	4
21	21	2
55	69	1
72	72	2
119	119	3
73	139	1
70	91	2
42	62	1
66	68	2
39	40	2
123	143	3
30	150	2
144	144	3
115	115	2
79	79	6
38	38	1
55	70	4
149	149	3
6	123	3
129	130	1
16	150	1
103	103	3
12	12	2
0	154	2
106	107	4
43	98	3
120	136	1
44	45	3
149	150	1
47	49	2
152	153	2
67	68	1
135	137	1
95	132	1
63	64	1
42	45	1
29	150	1
64	99	2
9	9	1
26	75	2
99	100	3
93	95	1
139	149	2
139	139	1
18	18	5
109	116	1
123	141	3
10	16	1
73	140	5
88	89	5
77	77	1
131	132	3
2	3	3
52	53	1
108	113	3
9	11	1
46	102	2
110	110	3
107	108	3
115	116	1
109	110	2
80	82	2
134	138	2
114	114	2
7	12	1
81	82	1
106	159	1
13	33	2
89	90	1
34	48	2
0	0	3
22	28	5
94	95	1
73	73	1
37	37	2
15	16	1
131	133	3
65	99	1
137	138	2
156	157	1
50	51	2
83	86	4
20	117	3
22	29	1
29	111	1
24	151	1
15	17	1
43	64	1
109	117	2
104	111	1
48	63	3
4	5	2
52	55	1
68	71	1
125	142	1
64	90	1
67	67	1
151	151	1
49	49	3
109	109	1
152	156	1
66	102	1
27	145	1
109	145	1
29	29	1
35	115	1
21	116	1
2	128	1
18	31	1
142	142	1
56	56	2
83	88	1
44	92	1
44	70	1
82	82	1
24	74	1
154	155	1
11	11	1
48	49	1
21	22	1
61	67	1
108	112	1
123	145	1
42	101	1
103	105	1
