17	17	1
155	177	3
28	28	14
172	175	4
154	154	7
4	5	3
16	16	4
114	114	7
81	81	3
135	135	3
108	109	1
22	29	2
88	89	3
167	167	9
100	102	1
78	78	4
22	32	2
83	118	2
151	151	8
70	71	1
100	100	7
50	50	5
168	168	7
86	87	1
111	111	4
161	163	2
79	79	6
8	8	5
76	79	5
153	153	3
71	71	3
115	115	11
171	171	2
119	119	6
37	37	5
65	65	5
56	56	2
173	173	4
43	43	10
33	33	18
166	166	7
146	146	5
22	22	3
53	54	1
141	141	8
56	57	4
58	59	1
60	61	4
51	51	9
174	174	5
98	99	1
158	158	5
9	9	1
72	72	2
172	172	5
144	145	2
165	165	1
123	123	5
85	87	8
88	88	1
52	52	3
166	167	6
144	144	4
35	38	3
6	6	11
161	162	4
94	95	5
39	39	9
13	13	9
7	19	3
110	112	2
118	118	4
5	5	6
26	26	4
127	127	1
176	176	6
150	152	2
29	30	2
92	93	4
150	150	7
77	77	9
10	11	4
55	56	6
135	136	2
41	41	4
178	180	3
121	121	3
144	147	7
100	101	3
142	143	7
18	22	2
36	36	3
63	63	6
25	26	7
25	25	4
42	42	4
24	24	5
12	13	12
44	44	9
68	68	10
90	90	6
130	143	2
126	126	2
50	51	2
95	95	3
85	86	1
80	80	4
166	180	3
128	128	1
106	107	4
3	3	2
73	73	4
120	121	2
140	140	5
32	32	9
76	76	1
143	143	1
146	148	1
12	12	4
101	102	2
87	87	1
75	75	13
104	104	8
67	67	3
97	110	1
43	44	2
158	172	4
110	113	2
66	67	1
99	99	1
113	113	1
71	72	4
27	27	3
145	145	7
91	91	1
34	43	2
178	179	2
4	4	2
30	32	4
133	133	7
138	138	4
18	44	2
148	155	3
159	160	1
119	120	4
18	18	3
119	143	2
58	58	8
160	170	2
103	104	1
129	130	2
152	152	2
0	0	1
102	102	3
109	109	2
147	148	4
149	149	1
117	117	2
148	176	4
9	18	1
53	53	4
19	19	3
14	14	2
15	15	2
38	42	2
34	34	2
132	132	7
83	123	2
2	16	1
159	159	4
11	13	2
173	174	1
9	17	1
55	57	4
19	20	1
129	143	2
11	11	2
179	179	3
122	124	1
116	116	1
57	57	1
131	131	1
35	35	3
169	170	2
136	136	2
121	122	2
92	92	1
120	120	2
150	154	3
129	129	1
110	110	2
156	158	1
102	103	2
24	26	3
134	135	2
89	90	1
148	148	1
112	112	3
133	134	1
131	140	1
155	155	2
103	103	1
104	106	1
80	81	4
2	2	1
101	101	2
22	33	1
77	78	1
167	169	3
2	5	1
26	28	1
172	174	2
94	94	1
30	30	1
10	10	1
61	61	3
125	126	2
123	125	1
83	83	2
14	16	1
2	4	1
156	162	2
137	137	1
161	161	1
21	21	2
151	152	2
157	157	1
160	162	1
171	172	1
42	43	1
17	35	1
142	142	1
118	122	1
82	119	1
31	31	1
34	36	2
90	92	2
149	154	1
38	38	1
60	60	1
