99	99	4
79	79	4
128	128	13
101	101	10
75	75	2
135	139	3
3	34	1
67	69	2
48	48	7
155	155	9
54	55	7
144	146	3
102	102	1
114	115	4
8	8	8
112	112	11
38	38	8
7	12	1
52	52	11
28	28	3
11	18	3
25	25	5
142	153	1
36	36	13
94	94	6
154	154	5
65	66	4
150	150	4
148	148	13
34	34	11
136	136	12
5	36	5
8	11	3
118	118	5
91	91	9
45	49	2
121	121	5
4	4	6
110	110	2
137	137	5
73	73	6
135	135	3
146	146	7
12	13	3
8	9	2
89	141	7
21	22	2
98	98	20
7	8	5
105	105	10
32	32	5
119	120	1
72	72	1
117	117	2
29	29	5
110	111	2
47	47	11
37	37	13
71	71	4
68	68	1
10	70	2
41	42	2
40	40	2
111	111	5
143	146	1
5	5	2
135	136	3
108	110	6
107	107	15
88	90	3
117	118	4
87	121	6
8	22	1
69	69	11
35	57	1
103	103	1
115	115	4
15	15	5
109	110	5
141	141	6
77	79	1
45	45	5
96	96	13
138	138	12
94	104	1
48	55	2
156	156	4
76	76	2
103	110	4
85	85	3
126	126	7
87	88	6
80	80	7
10	65	1
83	83	10
46	92	4
50	51	3
11	11	8
40	46	6
95	97	4
30	30	8
45	47	2
156	157	7
1	1	8
31	31	10
82	82	9
21	21	15
100	101	4
145	154	1
95	95	7
78	78	5
135	141	1
130	130	7
51	51	8
90	104	1
42	109	3
79	80	1
108	129	1
66	66	10
89	89	6
41	41	4
77	130	4
117	127	2
152	152	6
121	124	3
16	30	1
72	151	2
21	23	1
40	86	2
145	148	2
131	131	10
3	3	2
23	23	1
18	18	13
22	22	8
155	157	6
84	85	1
114	114	5
26	26	12
125	125	1
27	27	2
147	147	7
149	149	2
88	92	1
67	67	4
50	98	5
82	105	5
19	21	3
26	27	1
14	15	1
43	43	3
129	129	7
39	39	7
46	46	5
143	147	2
42	42	10
44	44	2
65	65	3
20	21	3
119	119	1
135	137	3
54	54	2
6	6	7
104	105	8
44	100	1
46	49	1
81	81	4
77	77	4
49	49	3
151	151	2
120	120	4
86	86	1
84	84	6
28	99	1
7	7	5
133	136	1
55	55	5
112	113	4
129	130	3
0	0	3
5	6	1
67	71	5
30	51	1
124	124	4
48	78	3
90	97	1
14	14	2
139	139	4
16	16	5
117	126	2
53	53	1
158	158	4
116	116	4
137	138	2
45	86	2
140	140	6
141	142	2
13	13	4
24	24	7
113	123	1
39	40	4
113	114	1
25	26	7
19	19	2
121	123	1
41	43	3
100	100	2
134	134	2
0	1	4
145	157	1
70	71	7
85	86	8
37	40	1
108	124	2
104	104	1
17	17	5
38	49	4
149	152	2
2	2	2
80	151	4
109	109	6
139	142	3
79	152	3
9	11	1
15	144	1
138	139	1
17	38	3
62	62	5
70	70	1
45	87	2
52	53	5
12	12	4
90	90	3
28	29	3
54	56	1
48	79	3
50	50	1
19	20	6
27	30	3
5	99	2
11	36	3
4	56	2
77	82	2
78	79	2
42	45	2
19	52	1
144	144	4
50	86	4
104	106	1
24	25	1
6	100	2
70	79	4
113	113	3
40	41	4
101	102	1
32	51	2
87	87	6
120	121	1
91	92	5
129	149	2
113	144	2
112	141	2
9	9	2
8	13	1
65	103	1
127	127	5
16	38	1
84	118	1
114	116	1
11	13	1
114	157	1
12	14	1
48	77	1
17	36	1
38	46	1
152	158	1
77	78	1
145	155	1
65	77	1
106	106	1
7	13	1
106	133	1
132	132	2
17	146	2
4	55	1
104	137	1
20	20	1
88	88	1
63	63	2
116	128	2
39	48	2
10	69	1
125	126	2
64	64	1
47	147	1
69	89	1
121	125	1
133	134	2
38	40	1
37	47	2
73	105	1
7	15	1
33	33	1
145	145	1
143	143	1
66	77	2
147	150	1
140	151	2
91	94	1
1	2	2
92	92	1
146	155	1
144	145	1
86	87	1
122	122	1
149	150	1
36	39	1
68	70	1
90	91	1
140	141	1
123	123	1
123	136	2
153	153	1
56	63	1
56	56	1
