126	126	2
128	138	2
84	86	5
57	57	3
52	93	5
98	98	3
22	23	4
1	47	2
78	117	2
12	12	2
87	87	3
7	7	8
103	103	3
67	67	3
128	128	6
106	156	3
90	90	4
23	25	1
9	9	5
2	72	1
115	115	1
30	30	1
2	2	6
27	27	10
113	126	1
54	54	4
121	121	6
155	155	4
130	130	4
147	155	3
36	39	4
66	66	3
44	44	9
89	89	3
28	28	6
49	53	4
71	71	2
84	84	1
133	134	3
26	28	4
75	75	2
85	116	1
45	45	9
117	117	1
3	3	6
0	0	4
84	85	1
22	22	3
95	95	11
99	99	2
23	23	10
88	89	6
102	130	1
110	110	3
42	117	1
47	47	5
70	71	1
6	6	2
85	86	7
43	74	1
101	101	5
52	52	4
1	1	4
4	5	1
48	48	6
99	100	3
156	156	2
81	82	2
123	123	4
5	5	3
94	94	3
50	50	2
40	40	3
139	140	1
67	68	2
5	72	1
72	72	1
55	56	1
25	25	3
15	16	1
48	52	2
75	76	1
93	93	10
115	142	3
74	116	1
150	150	6
33	106	2
83	84	1
70	70	2
63	63	4
112	126	3
143	151	3
140	141	4
46	47	1
40	54	2
102	102	2
92	93	4
109	109	2
14	14	4
127	127	7
88	88	1
12	13	1
151	151	3
156	158	2
82	109	2
122	123	3
43	43	2
93	94	1
117	118	2
96	96	1
137	137	2
76	76	5
120	120	1
10	10	3
132	132	2
66	73	4
100	100	3
104	104	4
84	92	3
94	95	2
80	83	3
134	134	2
111	116	1
105	105	3
9	11	1
121	122	4
139	139	2
130	131	1
153	154	1
42	42	6
37	37	2
77	77	1
28	29	1
119	119	2
111	111	2
143	155	1
3	49	1
135	135	5
25	28	1
131	131	4
152	152	9
29	46	2
129	129	4
0	46	1
29	29	7
65	65	1
56	71	1
146	147	1
26	26	2
31	105	2
25	80	1
79	79	1
132	134	1
107	155	1
115	118	2
45	75	1
97	98	2
143	149	1
4	55	3
154	158	1
145	153	1
87	91	1
63	64	1
101	130	1
38	38	2
97	97	2
129	130	1
34	34	3
12	17	1
110	111	1
0	128	3
33	33	1
39	39	2
97	129	1
32	32	2
107	107	5
133	133	2
7	8	2
158	158	1
31	32	1
54	55	2
17	17	3
69	69	3
36	37	3
128	129	1
19	19	1
43	93	1
25	26	1
83	83	1
4	4	2
17	18	1
1	128	1
36	55	2
27	45	1
133	137	1
157	157	1
114	114	1
52	53	1
69	71	1
136	137	2
112	112	1
49	49	1
114	126	1
41	46	1
91	91	1
154	154	1
125	125	1
16	18	1
22	73	1
46	91	1
29	52	1
24	24	1
138	138	1
18	23	1
15	15	1
