0	1	6
79	80	2
56	57	2
110	110	2
81	102	5
58	58	8
113	113	6
87	87	3
29	30	3
101	102	2
82	82	4
59	59	9
92	115	2
57	110	3
116	117	2
128	128	9
30	32	4
27	27	2
114	116	3
97	97	13
85	85	4
21	21	2
97	106	1
93	93	6
91	91	9
122	122	2
18	26	1
31	31	4
86	88	2
100	100	8
94	121	3
117	120	1
126	126	2
82	110	2
17	17	3
54	54	8
52	52	4
71	71	4
41	42	1
65	66	1
124	126	1
75	106	1
107	108	1
33	34	2
92	92	5
10	10	3
45	51	2
89	89	2
6	6	1
107	107	6
99	99	5
41	41	5
1	1	1
123	123	10
3	3	3
69	108	4
116	116	1
66	66	4
102	107	2
114	115	2
41	43	2
10	14	2
67	67	4
118	118	2
4	21	6
78	78	6
120	120	1
56	56	6
115	116	5
119	119	9
51	133	1
88	102	2
7	8	2
15	15	1
102	104	1
124	124	5
31	62	2
126	130	1
89	91	3
53	53	4
88	101	3
78	80	3
12	12	6
55	110	1
4	15	2
128	130	2
45	46	2
7	45	2
42	42	2
68	101	7
53	112	2
68	108	1
125	126	1
50	50	2
23	24	1
95	98	2
118	129	2
42	73	1
62	62	4
67	83	1
61	61	4
29	29	2
127	128	2
33	55	1
56	86	2
38	38	2
117	132	1
48	113	1
97	128	1
18	18	1
69	99	2
129	130	4
118	132	4
73	73	2
69	69	6
30	30	4
75	77	3
69	91	1
77	78	2
75	76	2
47	47	3
31	41	2
118	119	2
19	19	4
96	96	2
94	94	2
128	129	1
69	71	3
19	29	2
31	52	1
121	121	1
105	105	3
92	105	3
68	68	2
74	94	2
63	65	1
92	108	1
116	132	2
26	27	2
106	108	1
19	21	2
90	91	2
84	84	2
48	48	1
111	111	1
95	120	2
92	114	1
78	111	1
131	132	2
4	34	1
60	60	1
75	81	1
71	99	1
14	15	1
106	106	2
96	125	1
16	16	2
88	88	1
69	70	3
63	63	3
9	10	1
104	104	2
40	63	1
80	102	1
20	21	1
119	125	2
43	45	1
130	130	2
70	70	1
94	95	2
57	57	1
86	86	1
87	101	2
70	106	1
69	107	1
65	67	1
30	48	2
46	46	2
43	43	1
76	76	1
83	83	2
25	25	1
68	100	1
28	28	2
39	66	1
117	127	1
40	40	2
13	14	2
112	112	1
129	131	1
96	97	1
33	52	1
95	97	1
8	13	2
114	114	1
56	110	1
14	14	1
32	47	1
125	125	1
45	45	1
4	16	1
19	53	1
55	55	1
95	95	1
24	25	1
