24	46	2
99	99	3
73	73	7
102	102	8
70	70	7
51	51	14
42	73	2
29	32	3
97	97	8
59	60	3
54	55	3
49	49	2
36	37	8
90	91	2
73	75	3
75	75	3
54	54	9
68	68	5
71	71	2
98	98	7
51	72	3
57	87	2
47	48	5
39	39	15
102	103	2
76	77	3
78	78	2
40	42	3
36	36	4
100	100	12
81	97	1
103	103	3
42	42	6
56	56	6
78	79	3
46	46	6
105	105	8
53	86	3
33	33	8
26	26	4
82	82	5
97	98	2
40	40	4
67	67	5
92	96	1
36	44	2
81	84	2
44	45	3
60	60	10
56	81	1
93	93	2
65	65	5
49	61	5
108	109	1
37	37	2
100	108	4
29	29	2
74	80	6
22	49	1
38	38	5
77	77	4
45	45	3
66	66	2
48	48	2
52	52	3
69	70	3
76	87	2
105	106	2
53	53	1
34	35	6
40	43	3
57	86	2
100	105	1
25	25	4
106	107	2
28	32	2
79	79	4
44	44	7
103	104	3
86	86	3
111	113	3
70	71	3
46	50	3
30	30	1
50	50	3
41	41	2
21	28	1
108	108	2
40	79	1
115	115	2
101	101	10
71	72	3
28	30	1
61	61	3
86	87	2
85	90	2
81	81	3
74	99	2
100	101	4
114	114	2
25	34	1
62	71	1
95	95	1
22	22	2
110	110	10
58	58	7
109	109	10
43	43	5
34	34	1
108	110	2
84	85	1
112	112	4
47	47	2
85	85	5
55	56	6
58	64	1
69	69	1
99	100	5
66	67	2
23	24	1
84	84	4
55	82	1
19	19	3
55	55	10
106	106	5
104	105	2
52	85	1
110	111	2
19	22	2
24	24	1
76	76	1
43	44	7
104	106	1
59	59	2
25	26	1
91	91	4
104	104	1
89	112	1
89	89	1
88	89	5
27	27	1
27	28	1
73	74	3
83	83	2
40	41	1
39	70	2
72	72	1
80	81	1
98	99	1
65	68	1
20	21	1
103	109	3
93	95	1
57	57	4
91	98	2
82	92	1
23	23	2
55	81	1
32	32	2
94	94	2
54	82	2
109	110	1
57	58	1
80	106	2
48	49	1
53	72	1
36	60	2
41	78	1
94	95	1
57	90	1
46	72	1
83	93	1
93	94	1
113	113	1
111	112	1
53	54	1
89	110	1
83	84	1
59	69	1
95	96	1
86	90	1
