31	31	11
38	38	11
85	107	1
106	106	3
113	113	8
5	5	13
56	57	3
111	111	8
23	24	4
122	122	3
114	115	6
97	97	3
78	80	6
116	116	16
12	12	13
78	79	2
76	76	10
41	41	7
91	92	1
95	96	6
126	128	3
6	14	2
84	84	13
14	14	6
2	119	5
50	83	2
30	36	7
21	21	10
77	117	1
128	128	13
127	127	6
82	83	5
64	64	10
125	125	10
23	23	10
79	80	2
7	7	12
132	132	8
5	87	3
62	67	3
86	86	13
79	112	4
70	92	1
44	55	3
118	118	14
112	113	6
55	107	1
29	29	4
50	107	2
39	39	9
82	82	4
37	37	4
16	16	7
109	109	12
27	27	4
59	59	9
49	82	2
126	130	3
87	88	5
85	85	9
14	87	4
60	60	6
36	36	4
45	45	8
131	131	10
81	91	4
97	132	2
126	127	7
9	9	16
34	34	3
38	39	1
56	96	3
60	62	3
65	65	8
75	76	4
112	112	5
13	13	3
121	121	7
130	130	14
30	30	3
32	32	12
66	66	7
11	11	5
46	47	8
102	103	2
57	57	17
42	43	3
124	124	8
72	78	2
60	95	4
61	61	8
22	27	3
69	72	1
47	47	11
73	73	7
71	71	8
127	129	4
43	82	2
10	10	6
27	38	3
78	78	4
126	126	6
54	83	2
43	44	3
19	122	2
56	106	2
120	120	12
117	117	6
80	80	5
31	32	3
3	3	10
48	48	7
6	43	2
30	33	7
107	107	4
74	74	8
110	113	2
22	22	7
59	105	1
59	133	1
7	8	5
8	8	5
103	105	5
4	4	4
28	30	6
111	113	2
82	86	5
21	37	2
10	11	6
44	44	14
80	113	3
110	110	7
28	29	6
91	132	3
83	86	2
132	134	1
40	40	6
101	101	4
66	67	3
27	36	3
102	102	9
83	123	9
62	63	6
68	68	14
93	93	5
90	91	9
30	56	5
8	9	3
87	87	4
43	43	9
19	123	3
19	20	5
92	93	7
119	119	9
96	100	5
91	91	7
99	99	5
105	105	8
67	67	10
21	50	3
21	25	5
69	69	2
21	22	1
31	99	2
49	49	3
33	33	6
56	56	4
46	78	2
63	63	9
15	15	12
97	98	4
15	17	1
108	109	3
21	26	4
19	21	3
76	78	1
64	65	2
49	70	3
13	26	4
129	130	2
57	99	3
6	7	2
81	109	7
63	123	2
65	66	4
69	91	1
22	28	3
44	91	1
75	75	2
97	127	2
46	46	4
113	114	1
113	116	5
113	115	1
35	35	6
95	95	5
80	81	4
131	132	6
32	33	3
2	2	1
4	13	1
109	130	3
84	119	2
16	18	1
42	42	7
98	98	6
123	123	6
8	47	1
57	100	1
15	22	2
54	55	2
18	19	2
19	19	6
105	127	1
81	81	9
106	133	3
107	129	4
106	131	2
127	128	1
9	10	3
15	106	4
33	34	1
125	129	5
83	83	9
94	94	7
108	108	5
77	111	2
28	28	4
47	118	3
30	39	2
104	104	2
29	56	2
103	104	1
90	90	6
88	131	2
0	0	3
28	39	2
58	59	4
77	118	6
101	102	2
1	45	1
98	99	2
92	92	7
89	89	2
2	27	4
3	7	3
115	115	5
12	49	1
96	99	2
23	25	1
44	68	2
71	82	3
81	118	3
133	133	1
124	125	3
117	118	4
93	95	4
129	129	5
57	98	2
2	3	2
27	39	2
4	6	4
63	95	1
20	20	4
79	92	2
90	132	1
102	123	5
45	119	3
72	94	1
17	17	2
72	73	1
106	127	1
37	39	4
77	116	1
114	116	1
21	101	1
13	14	3
62	62	5
30	31	2
100	101	1
34	35	2
18	18	1
54	54	1
1	119	3
95	101	4
107	108	2
126	131	1
22	39	4
55	71	1
79	79	4
134	134	4
133	134	1
61	62	1
109	110	3
13	88	1
131	133	1
15	16	2
21	24	4
57	125	1
100	100	3
121	122	2
59	92	2
96	97	2
91	93	1
36	40	2
11	78	2
17	120	1
6	6	2
60	61	2
69	84	2
110	114	2
58	58	2
29	39	1
16	106	1
14	26	2
5	7	1
44	46	1
30	41	1
68	95	1
25	26	3
26	26	3
84	85	1
24	24	3
94	95	2
74	79	1
21	40	1
55	55	2
106	110	2
30	64	2
70	70	1
48	49	1
6	8	1
120	122	2
76	120	1
101	134	1
45	46	1
46	68	2
15	23	2
44	77	2
96	96	5
4	14	1
78	92	3
69	70	1
61	134	1
92	133	1
47	48	2
10	17	2
124	129	2
110	111	1
88	88	2
104	127	1
29	33	1
25	25	3
77	77	3
59	68	2
72	72	5
114	114	1
4	5	2
127	130	1
116	117	1
91	114	3
11	13	1
122	124	2
9	48	1
46	119	4
9	118	1
96	98	1
63	73	1
66	73	1
3	4	1
107	110	3
80	88	1
103	103	1
32	35	1
83	84	1
4	42	1
45	47	1
1	117	1
44	45	1
14	88	1
18	63	1
71	72	2
42	48	1
90	93	2
95	102	1
14	16	1
7	43	1
103	123	1
132	133	1
50	89	1
129	131	1
26	40	1
120	121	1
17	46	1
25	41	1
57	58	1
70	96	1
57	104	1
29	30	1
37	38	2
49	109	1
82	114	1
33	35	1
12	86	1
47	83	1
50	55	1
51	107	1
55	92	1
30	35	1
