100	100	6
74	75	3
106	106	8
57	58	3
174	187	3
156	175	2
120	120	5
103	103	5
136	137	3
136	138	1
95	96	4
78	93	2
97	97	3
10	10	2
12	13	6
26	26	6
0	0	8
146	146	4
117	120	3
111	111	2
98	98	12
19	19	6
90	90	6
82	83	5
72	72	2
94	94	3
154	176	5
39	40	1
189	189	12
8	8	4
22	22	7
157	157	11
61	62	2
113	113	10
97	111	2
17	17	12
124	124	10
25	27	6
138	138	3
84	85	2
7	7	2
77	94	3
79	108	2
124	126	3
137	137	4
76	183	2
5	5	2
178	178	3
58	60	3
16	17	8
150	150	5
14	14	5
154	177	2
154	154	7
128	151	1
138	139	4
34	35	3
152	152	12
118	118	13
59	61	4
40	40	4
35	35	17
96	97	5
38	38	3
159	162	3
131	131	2
128	128	4
43	43	7
175	175	6
164	165	3
129	129	3
62	62	5
76	90	1
55	55	15
77	78	1
101	102	6
135	135	1
108	109	1
108	108	8
117	119	2
20	21	6
64	65	6
143	143	4
133	138	2
188	188	2
130	130	9
78	78	6
115	148	4
1	1	10
52	53	1
169	170	5
142	145	6
168	169	1
46	46	7
70	92	4
160	160	2
106	107	4
81	107	3
164	164	3
110	111	1
126	126	4
41	42	4
13	13	7
124	125	4
126	127	2
46	85	5
13	14	2
168	168	1
18	18	1
104	104	3
159	160	3
101	101	3
24	24	6
186	186	3
139	139	4
31	33	5
36	37	7
187	187	3
137	138	9
3	3	3
86	86	4
149	149	6
54	55	2
66	67	1
57	95	1
72	73	5
60	60	7
11	12	2
48	48	7
87	88	3
135	150	4
153	153	10
4	4	14
107	107	1
165	165	1
181	181	6
112	112	5
114	136	5
41	41	5
155	155	2
114	114	8
151	151	4
130	132	5
54	54	6
15	15	3
16	16	3
65	66	4
185	185	4
20	20	1
71	71	6
13	48	2
176	176	4
159	159	4
75	183	1
121	122	1
182	182	1
19	20	2
128	129	5
9	10	1
85	85	1
89	89	8
183	184	9
180	181	2
152	153	1
142	142	2
14	15	2
75	90	2
158	158	7
140	140	5
42	42	3
34	34	7
89	140	1
148	157	3
111	113	5
148	150	1
83	83	5
145	145	3
116	150	3
76	76	3
175	189	1
68	68	1
94	113	2
37	106	3
166	166	3
28	28	3
53	53	6
94	95	3
175	187	3
173	174	3
47	47	1
135	136	1
79	79	4
167	168	1
115	115	7
102	103	2
77	77	4
56	56	7
110	110	6
29	30	1
52	54	3
25	25	6
183	183	8
36	36	3
121	121	1
53	54	2
75	75	6
155	178	1
88	88	2
25	26	6
122	126	1
162	190	1
70	71	1
134	135	4
93	93	1
156	162	2
113	114	1
67	67	4
127	127	2
99	99	2
119	119	3
57	57	1
105	106	3
163	163	2
105	105	2
99	100	2
29	29	4
130	131	1
167	167	3
9	9	1
122	124	3
156	177	1
46	47	1
59	101	1
76	89	3
77	80	1
118	123	4
82	107	1
117	117	4
71	86	3
182	183	1
169	169	1
58	64	5
80	108	2
94	109	1
155	156	1
116	116	4
33	33	1
58	59	2
77	108	1
134	136	2
66	66	3
58	103	2
120	128	3
177	178	2
117	118	3
73	74	2
115	116	1
160	180	2
148	148	2
116	120	2
55	95	2
75	94	1
21	21	1
91	91	3
175	176	1
146	147	1
133	137	3
23	23	4
107	108	2
138	154	1
87	183	2
71	84	1
170	170	5
90	181	4
172	172	2
115	136	1
99	101	1
62	63	2
113	146	1
158	162	1
126	128	1
46	82	3
154	186	2
96	96	2
147	147	1
59	100	2
58	100	1
122	122	1
166	167	1
137	139	2
156	174	2
186	187	1
43	45	1
2	2	3
61	103	1
7	8	4
43	90	1
27	29	1
157	158	3
145	146	2
6	6	1
69	112	2
174	175	2
37	52	1
88	89	1
14	24	1
45	45	2
90	115	2
81	108	1
115	145	1
40	41	1
154	155	2
156	156	3
63	63	2
11	11	2
30	33	2
96	152	1
71	87	2
171	173	1
60	61	1
92	92	1
97	100	1
125	125	1
81	81	3
39	39	2
43	44	1
1	2	1
56	57	1
56	95	1
114	148	1
2	3	1
33	34	1
95	98	1
10	23	2
88	140	1
138	188	4
55	56	1
161	185	1
89	177	1
68	112	1
86	91	3
65	67	2
190	190	1
72	75	1
65	65	1
134	134	2
184	186	2
178	180	1
184	184	1
181	182	1
169	189	1
109	109	1
142	143	1
130	164	1
137	151	1
4	6	2
82	82	1
93	143	1
