79	79	13
38	39	3
51	51	20
68	68	20
37	38	9
69	72	3
42	42	14
29	29	10
53	92	7
26	26	16
56	58	5
77	77	19
86	86	19
71	71	22
99	99	21
83	83	19
85	85	8
30	30	10
32	32	8
59	59	12
65	66	8
66	67	15
87	88	6
41	90	2
36	36	11
63	63	26
41	43	2
81	81	8
67	79	4
28	28	8
64	64	15
86	87	7
60	61	1
87	87	12
101	101	5
89	90	9
54	54	17
67	67	14
30	36	2
31	31	11
63	64	5
66	66	15
36	37	5
97	97	6
74	74	23
76	77	12
42	43	5
88	89	12
98	98	25
41	41	11
60	60	12
73	73	24
70	71	8
65	65	12
88	88	34
35	37	1
96	96	9
47	47	11
23	24	1
25	25	10
81	85	3
50	52	8
99	100	6
46	46	8
38	38	7
40	40	14
93	93	7
69	69	2
89	89	22
73	74	2
26	27	11
35	35	7
69	71	1
59	72	3
84	84	19
60	62	3
92	92	5
78	78	19
50	50	6
41	42	3
58	58	7
75	75	13
24	26	2
22	22	3
80	80	22
66	68	4
70	70	10
55	92	5
85	86	6
20	20	5
56	56	12
86	88	9
77	78	9
95	96	4
29	30	2
45	48	4
39	39	4
48	49	2
86	89	6
55	55	1
94	94	4
77	79	6
39	94	1
80	85	5
56	71	2
62	63	6
24	25	2
100	100	10
76	80	5
25	27	11
67	68	6
95	95	5
24	24	11
44	44	2
90	90	10
76	76	11
95	97	7
79	80	1
97	98	4
42	91	5
61	61	9
75	79	1
30	35	1
48	54	1
54	55	6
71	72	4
74	75	15
44	97	2
45	95	2
62	62	10
61	62	2
59	60	1
52	52	3
61	88	1
53	53	9
27	38	2
75	76	5
48	48	3
23	26	1
57	69	1
82	86	2
58	70	1
24	27	1
80	81	5
33	88	1
62	65	2
30	90	2
52	55	1
46	47	6
20	27	1
101	102	4
40	41	5
39	40	5
34	42	1
69	70	2
34	38	1
52	53	3
83	89	2
96	97	2
57	57	7
50	51	4
91	91	3
57	70	1
72	72	2
84	89	1
82	82	10
68	69	3
68	73	2
92	94	1
45	45	3
23	23	4
48	53	1
81	82	2
41	91	1
43	43	4
88	92	3
69	83	1
64	65	3
83	86	1
57	71	2
67	86	4
64	73	1
41	89	2
52	83	1
87	92	1
58	71	1
55	83	3
67	77	1
67	89	2
33	34	1
66	78	2
34	34	2
56	57	1
69	73	1
77	80	2
74	77	1
35	39	3
56	83	1
56	80	1
66	73	1
79	81	1
33	33	1
85	87	4
54	86	1
57	68	1
77	89	1
27	37	1
75	78	1
49	50	1
78	79	1
60	69	1
44	45	1
64	74	2
79	89	1
58	76	1
34	91	1
