20	26	3
64	64	8
69	102	3
31	40	3
42	42	2
55	55	16
89	89	4
105	105	6
58	58	3
100	100	13
43	52	1
74	74	11
83	85	1
61	61	10
63	63	7
79	83	2
54	54	6
72	72	6
60	88	2
90	90	4
92	92	12
30	39	1
28	38	1
71	71	16
53	54	8
59	59	6
103	103	7
43	43	7
82	83	4
23	24	3
24	24	5
73	106	1
68	68	2
69	69	8
28	28	2
24	25	2
94	94	11
70	70	4
43	60	2
88	88	3
102	102	19
97	97	6
77	78	4
67	67	2
99	99	6
65	67	4
106	106	2
73	74	3
56	56	8
92	103	2
54	55	2
81	81	13
102	103	3
57	57	3
54	106	2
70	98	2
33	33	3
45	45	4
39	41	1
35	35	16
36	36	7
62	62	3
74	105	5
52	52	11
56	69	1
85	86	2
46	48	4
38	38	1
87	87	11
65	66	1
30	31	2
96	97	1
48	49	1
61	62	2
78	78	8
75	75	5
72	84	4
48	48	10
85	85	1
46	49	2
40	41	3
31	31	6
34	34	6
31	35	2
77	77	6
66	66	7
58	99	1
22	41	1
90	91	1
73	73	6
86	86	4
40	40	7
22	22	8
47	48	1
70	71	6
44	45	1
44	44	2
101	101	1
83	91	2
76	76	5
72	81	2
79	80	2
27	27	2
23	23	3
90	106	2
34	94	2
46	52	2
72	80	4
32	32	4
29	39	3
84	84	9
42	51	1
41	45	1
68	69	2
60	60	3
50	50	7
53	53	1
91	91	8
22	39	3
58	69	1
82	82	2
96	98	3
98	99	2
81	105	1
95	95	3
107	107	1
54	58	3
97	99	1
52	53	1
51	51	1
30	37	1
52	54	2
69	71	1
57	102	1
80	80	8
47	47	1
20	20	3
20	21	2
65	65	4
58	59	3
96	100	3
98	98	1
21	44	1
63	64	2
51	55	4
25	28	2
104	105	1
29	31	2
21	21	11
45	61	1
84	85	2
75	77	1
89	90	1
29	38	1
60	72	2
49	49	2
104	104	4
91	105	1
46	46	2
41	41	1
79	79	2
44	46	2
21	23	1
68	101	1
73	97	2
92	101	1
76	77	2
39	39	1
87	98	2
97	101	1
67	68	1
97	102	1
20	39	1
96	96	2
81	85	1
50	72	1
80	84	1
79	88	1
33	36	2
58	106	1
28	29	1
68	103	1
20	24	1
39	42	2
68	102	2
50	51	1
74	75	1
93	95	2
83	83	1
27	34	1
70	104	1
57	107	1
27	40	1
30	30	2
26	28	1
43	44	1
75	76	1
35	36	2
71	72	1
39	40	1
82	86	1
