74	74	14
59	62	3
110	112	4
34	35	3
28	31	5
42	42	6
31	31	10
27	28	5
32	32	2
51	51	13
90	91	3
94	94	9
108	108	12
90	90	7
83	83	9
27	27	3
75	75	24
64	66	6
77	77	5
70	70	3
101	102	7
99	99	8
65	65	16
105	105	1
58	66	1
73	73	4
112	113	5
100	100	8
41	41	11
30	30	6
35	35	10
55	57	2
49	51	1
41	75	4
64	64	9
55	63	2
47	47	4
95	95	9
101	107	1
24	29	4
111	111	5
89	90	9
74	96	3
83	84	2
93	104	3
40	40	4
88	88	8
49	49	5
43	43	7
57	57	9
72	72	9
20	20	1
66	66	10
93	94	6
21	21	16
92	93	5
96	96	10
44	53	4
29	29	4
38	38	8
93	97	9
97	104	3
108	111	6
76	76	9
91	91	7
56	64	3
25	26	1
34	79	5
48	49	4
55	59	1
83	85	2
50	50	5
103	103	3
56	81	2
22	27	2
33	33	11
63	63	7
24	24	11
86	113	4
62	62	7
95	96	2
80	80	5
63	70	2
103	108	2
67	67	8
58	71	2
107	109	4
28	92	5
83	86	4
36	36	2
54	54	6
87	88	3
102	102	13
70	84	3
35	37	4
48	48	10
39	39	9
61	62	8
46	46	13
68	68	5
93	93	1
66	69	1
32	33	2
25	28	2
74	75	6
55	55	4
106	107	1
80	81	1
85	85	6
27	29	1
94	103	5
113	113	8
53	56	1
57	63	2
76	77	3
42	43	1
32	34	2
112	112	2
87	89	2
54	55	4
66	67	4
36	39	1
51	54	1
107	107	3
97	106	1
78	93	1
79	79	7
81	84	2
100	102	3
44	45	3
21	23	3
62	67	2
89	104	2
43	44	7
81	83	1
54	56	4
105	107	6
93	105	1
108	109	2
29	31	2
82	83	5
25	25	9
26	26	2
98	98	8
23	23	5
75	86	2
44	44	8
52	52	14
52	73	5
24	32	1
81	85	2
28	28	8
105	106	3
41	43	1
59	60	4
26	27	4
33	34	9
28	30	1
32	62	1
45	45	3
34	34	4
22	23	3
104	104	5
53	53	3
30	31	4
82	82	7
85	97	2
94	99	1
46	47	4
79	100	1
47	48	3
98	99	5
91	100	3
87	105	2
95	103	1
20	36	2
81	81	2
95	104	1
89	106	1
58	58	4
96	99	1
79	80	2
62	64	1
78	85	2
91	93	1
58	63	1
114	114	2
74	78	2
101	104	1
78	86	2
61	70	2
88	101	2
59	59	9
81	91	2
111	112	1
57	59	5
69	79	1
69	77	1
53	84	1
101	103	2
84	84	8
97	99	4
19	19	3
79	101	2
60	60	5
93	95	1
64	77	1
45	98	1
47	59	1
53	81	1
85	86	5
49	92	1
54	63	2
53	74	3
35	52	2
53	54	1
97	97	4
101	101	5
79	84	2
70	79	1
56	56	5
68	70	1
70	71	1
56	70	4
28	29	1
47	80	2
106	106	3
22	29	2
58	59	1
31	32	1
22	22	3
53	72	1
64	69	2
65	69	2
109	112	1
68	72	1
88	112	1
93	101	2
92	101	1
106	114	1
45	46	1
51	55	1
86	88	1
34	75	1
58	111	1
100	101	1
90	106	1
26	38	1
78	78	1
75	85	1
56	63	2
103	107	3
33	35	4
74	79	1
27	30	1
50	51	1
27	37	1
63	64	3
49	107	1
40	64	1
81	82	2
85	89	1
86	86	2
110	111	1
64	68	1
60	67	1
26	53	1
97	98	2
86	101	1
24	26	1
70	72	1
87	104	1
86	111	1
71	71	1
45	60	1
95	99	1
67	70	1
68	69	1
40	42	2
23	30	1
87	101	1
37	37	1
87	87	1
41	48	1
42	56	1
