45	67	5
89	126	2
49	49	3
69	69	2
31	33	1
95	105	1
115	116	3
32	32	2
132	132	3
51	60	4
112	112	3
104	107	7
118	118	18
113	113	3
16	17	2
90	125	1
90	131	7
18	21	3
16	33	5
107	108	3
4	11	2
41	42	3
59	59	4
126	132	1
85	113	4
53	53	8
12	43	5
23	23	4
84	85	7
17	33	2
75	75	4
2	2	6
110	110	10
38	56	2
69	86	3
81	99	1
29	29	8
39	39	2
57	57	7
14	14	5
54	81	5
98	98	9
28	46	3
56	91	5
88	88	4
7	7	4
56	93	3
67	67	7
63	63	2
95	113	1
101	101	3
11	17	2
117	118	5
6	41	1
55	55	14
17	18	3
3	3	5
18	19	2
133	133	4
25	32	8
9	9	1
125	125	8
42	42	5
93	121	4
51	57	4
20	20	3
64	68	2
62	63	4
89	100	2
91	91	5
124	124	3
57	66	1
90	129	2
122	122	7
4	14	4
112	113	3
63	99	1
44	61	7
11	11	6
25	26	7
90	128	2
76	76	3
79	80	2
29	48	5
118	119	3
31	32	3
8	8	8
23	30	1
90	90	4
45	56	1
71	71	1
54	77	5
52	53	3
70	103	7
95	95	6
32	33	3
82	82	7
78	122	3
41	41	2
105	105	4
111	111	5
62	62	16
43	46	7
114	119	7
87	96	2
11	16	2
6	31	2
63	69	1
75	108	2
131	131	5
96	101	3
19	19	7
12	58	1
117	117	5
15	17	6
79	121	1
116	116	3
24	24	9
52	52	2
68	68	4
103	104	4
48	49	3
6	6	3
84	84	3
12	51	3
85	106	1
109	127	1
106	106	6
123	123	3
44	59	2
51	51	3
123	124	1
115	115	4
95	119	3
47	47	4
15	15	2
108	110	4
54	95	2
108	108	2
70	102	2
89	89	6
44	46	3
22	22	4
118	128	3
21	22	1
130	130	6
1	1	4
61	67	1
54	54	2
66	66	5
107	107	1
106	109	1
38	58	1
129	129	3
124	125	4
12	12	3
21	21	1
104	104	10
127	129	1
25	33	1
62	68	1
40	70	2
85	86	1
59	68	6
5	33	3
89	127	4
26	26	5
38	101	5
63	65	1
33	33	4
0	16	1
24	31	4
73	74	2
69	76	3
96	113	1
97	97	6
10	10	5
114	114	2
44	45	1
74	105	2
71	117	4
30	30	2
75	114	3
121	121	5
103	103	1
78	79	4
120	123	1
109	109	4
5	34	3
76	77	1
68	99	3
75	76	1
84	87	2
17	17	6
44	44	2
81	102	3
27	27	1
100	100	1
127	127	1
16	16	5
64	64	2
40	103	2
47	69	3
73	73	4
26	27	2
29	34	1
62	99	2
55	58	3
70	70	5
127	130	3
5	12	3
102	102	9
92	92	2
40	42	1
31	31	6
91	93	3
87	87	1
51	85	1
65	66	2
27	51	1
43	43	5
85	104	2
5	5	1
80	80	4
91	126	1
73	75	3
57	59	2
48	48	1
108	117	1
40	66	2
116	117	2
6	30	2
83	95	1
2	13	1
127	128	1
65	65	3
131	132	2
28	29	1
99	99	1
2	53	1
13	13	3
120	120	3
46	47	1
86	86	1
70	88	1
74	75	2
105	118	1
72	105	1
83	101	1
38	86	1
96	96	4
129	130	1
45	45	1
58	59	1
56	66	1
108	109	2
24	30	1
120	132	2
47	58	2
65	86	1
6	27	1
28	67	1
2	3	2
63	64	1
15	16	1
75	85	1
88	100	1
8	10	1
22	24	1
12	27	1
75	109	1
19	20	1
15	33	1
125	126	1
106	114	1
44	103	1
