35	43	3
56	86	3
165	172	1
68	78	2
143	144	3
123	124	1
153	154	2
122	137	9
31	33	3
127	128	10
54	54	6
73	75	3
113	113	4
170	170	4
141	159	1
137	137	3
167	167	14
13	13	18
153	156	2
20	20	1
50	50	10
94	94	6
175	178	3
60	125	3
122	122	4
156	156	11
158	173	1
61	158	2
40	41	3
79	87	4
151	152	1
59	120	1
40	40	5
74	74	2
117	119	3
124	125	3
93	133	4
126	126	10
114	115	9
133	133	6
90	90	4
83	83	6
157	157	2
3	18	3
173	174	2
80	81	6
36	40	4
116	120	2
93	93	11
126	130	4
166	166	8
169	171	5
64	75	2
153	173	1
17	17	10
156	157	2
26	27	2
101	101	8
130	131	5
59	59	11
16	19	1
35	35	10
36	41	2
90	98	1
160	160	7
109	129	1
154	180	8
5	5	9
120	120	11
70	91	1
36	36	8
179	179	9
114	136	2
74	86	4
57	57	4
49	65	2
127	129	2
95	107	4
32	32	7
45	45	1
144	148	2
158	158	7
96	96	11
91	108	6
67	67	2
121	139	1
131	131	7
101	179	4
13	16	3
110	110	10
81	91	7
51	65	6
58	63	2
22	59	1
134	135	2
16	44	1
92	92	7
19	19	3
56	56	4
136	144	6
27	27	11
165	166	1
58	61	3
8	8	11
114	122	3
145	146	2
122	146	2
16	40	1
51	67	4
169	169	9
124	146	2
18	19	3
115	139	2
43	44	3
33	33	8
57	58	2
143	159	2
21	22	3
135	176	4
7	24	2
104	125	2
134	134	2
2	3	5
97	101	3
104	104	3
106	107	2
93	94	8
22	22	9
165	165	9
138	149	6
171	179	2
14	15	5
164	167	2
112	112	2
0	32	4
152	153	6
88	101	3
62	66	1
76	76	4
5	22	1
38	38	1
151	168	2
114	129	1
81	81	6
123	123	12
15	35	1
103	111	3
4	20	1
42	44	1
114	114	4
164	164	8
123	125	4
56	141	1
55	72	3
125	125	8
161	161	8
162	162	7
66	68	3
142	159	8
26	26	5
21	37	5
15	19	1
163	169	7
163	179	2
23	23	14
79	79	3
6	7	10
106	108	3
132	134	1
131	132	2
150	167	3
29	31	2
142	147	2
132	135	2
6	6	5
65	66	1
28	31	4
132	132	3
0	16	2
154	154	10
5	24	1
171	180	3
128	128	1
135	136	5
66	66	3
80	80	2
10	28	2
114	143	1
107	107	14
150	150	11
98	122	2
89	89	3
23	33	2
130	130	1
68	71	2
114	116	1
137	141	2
127	127	6
17	43	6
123	139	4
14	16	1
28	36	5
152	152	9
74	93	5
87	87	8
54	55	4
134	147	1
135	135	10
173	173	9
59	138	2
71	71	5
112	125	2
52	73	1
35	74	1
136	136	9
18	18	5
146	148	4
176	176	12
53	63	4
64	64	10
4	19	3
140	140	3
120	122	1
175	175	5
132	133	2
16	32	5
127	136	3
153	160	1
30	31	1
58	58	7
83	104	3
168	169	6
111	112	4
34	34	7
97	97	4
78	78	5
77	78	2
142	142	7
32	33	2
166	168	2
138	139	4
43	43	2
163	163	10
6	21	2
112	114	1
132	148	4
24	24	2
9	9	5
31	31	4
65	74	3
5	25	2
78	79	3
55	56	4
21	39	1
163	168	1
156	160	2
11	11	4
149	151	2
102	102	5
3	3	7
150	153	1
100	100	11
10	10	14
1	1	3
159	159	5
154	155	4
130	156	3
97	129	4
113	143	1
0	59	4
51	58	2
98	129	3
37	59	1
65	73	4
147	168	2
155	156	2
41	55	1
108	108	10
12	12	4
17	25	5
174	174	5
3	4	1
125	126	4
44	44	2
81	85	5
63	73	4
90	91	2
7	25	1
100	115	3
163	167	2
115	115	2
72	72	6
82	97	2
84	85	6
61	62	5
158	159	4
155	171	2
175	176	3
97	136	1
53	53	4
61	61	5
29	30	2
149	166	2
100	109	3
133	135	2
118	154	2
7	7	6
9	11	4
105	106	1
106	106	4
136	154	3
30	30	5
128	143	2
73	89	1
124	131	3
1	16	1
143	153	3
140	154	2
139	139	4
91	113	2
82	83	7
103	118	3
55	55	8
65	88	5
58	86	3
102	119	1
12	41	4
28	28	3
42	42	1
103	113	3
130	159	1
63	63	4
36	74	2
76	77	4
67	92	5
7	13	3
94	99	2
18	23	2
57	61	5
178	178	10
25	38	2
86	86	2
68	82	3
55	57	3
149	150	5
153	153	2
105	105	6
154	156	1
85	85	3
67	68	4
14	14	7
130	133	5
104	108	5
65	65	9
168	168	7
58	59	1
11	33	2
37	37	4
146	147	2
159	160	10
87	91	1
151	151	3
10	38	2
94	95	1
149	167	2
143	155	2
5	11	3
158	176	3
148	148	11
17	23	3
88	88	4
143	175	2
16	16	8
51	51	7
144	144	12
31	35	1
75	76	6
15	15	3
96	113	2
172	172	9
137	138	1
114	135	2
153	162	1
155	155	7
110	111	1
123	142	4
111	111	5
82	82	2
137	150	2
164	168	1
87	88	2
154	161	2
4	4	1
119	133	4
73	73	1
110	112	1
99	99	5
26	28	6
2	18	1
129	143	1
52	61	3
10	13	1
89	117	2
158	169	3
103	104	2
75	75	6
58	180	1
147	167	2
87	90	1
41	41	2
128	138	2
85	86	1
156	159	1
91	102	5
12	28	2
113	120	1
97	98	1
145	145	1
92	98	1
177	177	3
114	151	3
20	21	1
59	62	1
109	109	3
6	11	2
128	129	3
133	172	2
100	129	2
170	173	2
39	109	1
161	162	4
1	10	1
21	21	5
57	62	2
118	120	4
118	118	6
80	83	2
99	101	3
18	27	2
123	163	2
18	32	1
91	93	2
120	121	2
18	24	2
40	43	2
46	51	3
93	107	1
118	129	3
115	116	3
52	64	6
141	141	5
35	54	3
121	121	3
133	150	2
100	120	1
117	117	3
119	120	3
133	144	2
85	101	1
143	143	4
139	140	1
147	147	6
60	72	1
100	101	1
81	82	1
41	42	1
35	110	1
113	125	2
137	155	1
11	45	3
90	94	3
10	11	7
89	103	1
52	52	3
77	102	3
133	147	3
96	97	2
61	66	3
80	96	1
36	38	1
132	149	3
111	129	2
136	171	1
95	131	2
171	175	3
110	172	1
91	91	1
151	164	1
14	39	2
92	97	1
4	23	2
27	43	2
171	171	1
138	138	5
49	67	2
73	83	2
172	173	1
142	145	1
53	54	1
86	119	1
61	63	1
130	137	2
33	38	2
144	152	1
171	172	1
0	91	2
17	22	2
139	148	2
90	105	1
60	86	1
132	151	2
100	180	3
61	88	1
12	45	1
54	141	2
143	145	2
148	149	2
42	43	1
91	92	1
62	62	3
123	126	2
56	82	2
117	136	1
55	145	2
99	106	4
61	180	2
140	145	3
126	134	1
143	150	2
29	29	3
57	113	1
4	16	2
58	75	1
75	93	1
89	93	1
52	53	1
128	134	1
137	142	2
134	136	1
161	167	1
77	77	3
13	38	1
116	116	2
96	102	1
170	180	2
134	141	2
52	63	3
71	76	1
13	17	1
96	107	1
116	118	1
101	113	2
1	21	1
60	60	3
102	104	1
62	67	2
92	93	1
50	61	1
122	126	1
2	4	2
107	108	1
123	135	3
79	91	2
90	93	1
154	172	1
84	84	1
172	174	1
155	174	1
138	148	1
7	10	2
23	38	1
160	176	1
56	143	2
134	172	1
95	96	2
10	16	1
129	130	2
93	102	1
7	20	1
179	180	2
11	32	1
54	146	1
2	2	1
90	102	1
5	18	1
157	158	1
165	180	1
123	141	1
55	141	2
2	17	2
15	16	1
102	113	1
143	154	1
78	177	2
92	116	1
102	120	1
139	143	1
138	146	2
74	84	2
103	103	3
74	78	1
80	84	1
89	94	1
88	89	2
114	119	1
5	32	2
162	176	1
53	74	1
84	98	1
18	45	1
129	129	3
87	89	1
127	157	1
73	86	2
1	5	1
119	119	1
83	84	1
64	65	1
59	61	1
126	129	1
7	22	2
56	148	1
86	87	1
149	149	2
140	147	1
61	179	1
97	122	2
58	66	2
23	45	1
118	122	1
14	24	1
135	170	1
65	68	1
17	40	1
145	147	1
95	102	1
25	37	1
138	145	1
103	133	1
124	124	1
68	68	1
15	34	1
125	127	1
170	174	1
118	140	1
137	153	1
60	123	1
156	169	1
114	138	1
96	98	1
152	154	1
97	113	1
135	177	1
139	146	1
103	125	1
16	24	1
87	117	1
60	61	1
2	20	1
95	110	1
0	0	1
13	34	1
1	19	1
164	169	1
146	146	1
76	78	1
147	149	1
