61	61	20
67	67	21
38	38	19
4	79	1
68	68	18
69	69	27
70	71	2
65	66	7
31	31	30
0	0	18
53	53	13
66	74	1
63	65	2
49	50	3
33	33	20
2	2	20
77	77	10
28	28	15
17	17	4
41	41	21
40	40	24
54	55	5
72	73	7
33	37	2
5	5	8
56	56	19
37	37	22
37	39	6
64	64	17
71	71	15
78	78	22
32	32	12
7	7	15
19	19	15
67	71	5
35	35	31
39	39	25
53	56	2
9	9	24
26	26	18
5	6	4
42	42	13
74	75	6
47	57	2
27	28	11
13	14	17
8	9	5
73	73	17
54	54	11
4	4	27
38	42	4
66	66	19
51	51	33
15	20	1
1	1	22
21	21	3
16	17	4
80	80	13
1	2	5
70	70	14
58	60	3
16	16	10
52	52	28
63	63	22
8	8	15
60	61	6
79	79	7
47	47	24
29	29	6
75	75	36
0	28	3
15	15	3
55	55	15
65	65	19
49	49	22
69	70	7
36	54	6
10	11	12
57	57	13
67	68	13
46	47	3
12	13	15
10	69	2
66	67	4
53	58	1
77	78	12
45	46	8
27	27	19
8	26	3
72	72	14
75	76	6
28	29	2
71	72	10
6	6	20
60	60	16
16	30	1
76	76	20
9	13	7
50	51	7
38	39	10
33	34	3
12	12	22
42	47	2
11	11	12
75	78	1
53	66	4
59	59	13
39	42	8
34	35	8
25	25	7
50	50	17
43	43	4
34	34	10
21	69	2
26	27	6
49	56	3
58	73	2
6	7	4
58	58	5
46	46	12
13	13	8
29	30	4
30	30	4
74	74	10
45	45	18
20	20	8
55	56	2
19	20	4
48	49	6
11	14	3
3	3	29
28	45	4
61	62	5
43	76	3
1	3	2
11	12	5
9	70	1
77	80	1
40	41	5
68	69	7
18	18	8
10	21	3
51	53	1
17	18	4
30	35	3
39	45	3
0	4	2
14	14	11
59	60	3
48	48	7
14	16	2
10	10	19
53	54	7
43	59	1
53	55	7
25	54	1
6	8	9
51	52	7
7	8	4
25	26	8
28	30	2
7	30	1
29	35	3
42	45	2
81	81	1
45	53	1
42	43	2
10	12	4
4	5	3
48	57	1
22	69	2
26	29	3
10	70	2
32	33	2
2	3	5
36	46	2
34	73	2
36	36	6
40	58	3
9	10	4
41	47	1
40	47	2
62	62	6
8	71	1
20	21	6
56	57	2
30	31	2
62	63	2
5	32	1
5	9	3
37	42	3
19	38	2
42	54	1
64	65	2
47	48	1
8	72	2
33	77	1
57	65	1
9	27	3
48	71	2
35	36	1
25	67	2
73	74	1
44	45	3
36	37	1
48	73	1
76	77	1
1	79	1
58	59	1
14	25	3
0	1	3
27	30	1
73	75	1
69	71	2
13	67	1
27	34	5
57	58	2
9	72	1
49	55	1
79	80	2
52	54	3
5	11	1
39	44	1
11	26	1
29	43	1
14	15	1
50	52	2
30	53	2
47	58	2
0	56	1
47	56	1
32	76	2
39	48	1
45	54	1
40	42	1
68	70	1
46	48	1
1	27	2
18	19	2
2	4	1
7	33	1
44	44	3
27	36	1
14	68	1
66	68	1
20	36	1
14	67	1
40	56	1
31	37	1
31	41	1
