97	98	6
114	114	14
87	87	10
151	151	11
154	154	8
101	103	3
2	3	5
168	168	6
151	152	6
166	166	5
48	48	5
106	106	2
42	42	4
184	184	6
131	149	3
74	75	1
82	82	4
159	178	4
89	89	9
138	138	14
190	190	4
140	140	4
125	125	4
57	65	1
86	89	1
84	85	3
103	104	3
124	124	4
67	67	10
170	170	5
136	137	8
151	159	5
19	131	5
158	158	2
62	63	7
41	41	5
12	13	11
24	142	1
9	10	2
98	98	7
80	80	3
163	178	1
108	108	3
64	64	7
46	46	11
56	56	10
16	24	7
130	133	1
27	27	5
18	18	9
154	155	1
78	79	6
99	100	2
186	186	7
159	159	8
59	60	4
100	100	5
62	62	6
163	164	5
21	21	4
27	32	1
77	151	2
155	156	5
28	28	3
118	118	6
123	124	2
15	15	2
86	86	7
97	107	1
99	99	15
58	60	2
147	148	2
86	87	2
43	43	5
114	116	2
90	90	5
181	181	4
160	160	3
163	163	3
147	147	8
125	128	2
69	69	2
129	129	5
116	116	5
115	116	1
112	112	3
175	175	1
81	81	5
44	46	3
7	8	4
4	4	6
126	127	4
10	10	13
117	119	1
16	17	1
23	23	6
119	120	4
20	20	9
141	141	6
26	26	9
96	96	5
74	122	5
131	132	2
111	111	5
101	101	1
132	133	2
119	119	6
146	147	1
53	53	8
33	33	11
144	144	7
79	79	11
55	55	9
126	128	4
122	123	5
184	185	2
89	90	2
42	72	1
61	61	6
179	180	5
160	161	1
130	134	3
134	134	2
81	156	3
22	25	2
104	104	1
123	123	5
188	188	12
65	65	1
53	54	5
28	42	2
14	14	2
165	188	4
165	165	8
148	148	9
102	112	2
78	150	1
130	130	9
122	122	5
156	156	8
96	100	7
168	171	1
1	1	2
124	125	1
152	152	6
187	187	5
25	34	2
169	170	2
91	91	2
142	142	3
182	182	11
18	141	1
92	92	4
105	107	4
139	139	3
6	6	3
168	169	1
90	91	1
86	188	3
112	160	1
76	120	2
41	44	3
54	54	1
21	22	2
32	33	1
93	96	3
188	189	1
26	27	5
39	39	4
55	65	3
30	30	2
174	180	4
185	186	3
66	68	1
22	23	6
77	111	1
27	28	4
102	103	1
57	57	3
81	135	1
28	30	4
77	77	2
82	159	3
36	36	2
166	178	2
0	0	5
3	5	1
146	146	6
177	177	9
75	75	6
22	22	1
100	161	2
76	126	3
38	38	5
83	84	3
99	162	1
45	68	2
121	121	8
25	25	10
31	32	2
31	37	5
145	145	6
83	161	5
172	173	1
60	60	3
150	150	5
80	134	3
8	8	1
127	127	2
87	89	4
142	143	4
107	108	2
186	187	1
74	74	4
24	24	5
35	35	3
188	190	1
138	139	2
109	109	5
179	179	3
182	183	2
17	22	4
137	138	2
131	148	1
56	66	2
98	99	3
83	83	1
58	58	2
35	36	1
131	131	8
174	174	1
176	176	2
85	85	3
116	121	1
81	153	2
189	189	1
159	160	1
181	182	3
123	148	1
145	146	5
157	157	2
37	37	3
84	84	3
161	162	2
12	36	1
34	35	2
19	21	1
72	72	2
185	185	3
175	179	3
31	31	3
125	127	1
108	115	1
38	39	2
110	110	1
88	89	2
64	105	1
82	153	1
73	73	1
93	94	2
18	21	3
140	144	1
158	163	3
105	108	1
31	36	1
175	176	1
29	29	2
131	133	3
16	16	1
77	110	3
40	44	2
127	128	2
5	5	3
12	127	3
169	169	2
58	61	1
61	62	1
153	153	2
92	93	4
103	113	1
20	21	2
58	59	1
117	117	2
164	164	2
39	40	4
115	115	1
54	55	1
153	156	1
27	30	1
66	67	3
170	171	2
97	97	6
8	14	1
97	106	1
26	34	1
32	32	4
153	157	1
137	137	2
26	37	1
28	44	1
5	7	1
78	78	3
53	66	2
187	188	1
176	178	1
149	149	3
45	45	2
155	155	2
58	63	1
171	171	2
40	40	2
143	143	4
102	102	3
105	105	1
135	138	2
65	66	1
89	166	1
103	115	1
75	148	1
44	73	1
13	144	2
116	117	1
11	11	2
178	179	2
128	128	3
42	44	1
116	118	4
125	126	2
43	44	1
95	95	1
56	57	2
128	134	1
36	37	2
134	135	1
93	93	2
173	173	1
176	177	3
19	19	2
55	56	1
11	25	1
113	117	1
117	118	1
80	118	1
32	36	1
113	113	2
47	47	1
170	186	1
30	31	1
58	64	1
139	140	2
140	142	1
52	53	1
128	129	1
187	189	1
105	106	2
129	130	1
127	132	1
96	97	1
161	161	1
23	24	1
37	145	1
