29	29	10
39	39	25
31	31	6
42	42	8
68	69	5
55	59	2
50	50	7
21	21	22
39	56	6
27	27	13
1	1	31
40	41	4
75	75	13
42	43	6
36	38	3
66	66	3
0	0	10
56	56	16
25	26	9
63	63	15
31	43	2
27	29	1
44	45	11
38	39	7
3	3	30
53	53	25
54	55	5
26	56	1
41	53	2
32	42	2
54	54	8
58	58	21
71	71	6
9	9	11
34	34	11
2	20	5
36	36	7
5	5	10
2	3	3
49	52	1
45	45	7
26	27	2
59	59	12
39	40	11
64	64	3
62	64	2
41	42	5
63	65	2
51	51	15
43	48	6
23	23	9
6	6	4
64	66	2
2	2	21
46	46	12
70	75	1
52	56	9
11	13	3
53	54	8
57	57	5
60	60	29
33	33	15
39	49	2
71	77	3
69	69	4
19	19	15
56	57	1
47	54	2
47	47	14
67	67	6
18	18	2
55	55	7
57	77	4
49	55	3
39	41	6
68	76	2
33	34	3
20	20	9
44	44	10
52	53	1
34	36	1
40	40	15
48	48	15
11	11	8
52	52	9
55	56	13
42	48	2
57	58	14
43	43	9
30	31	4
76	76	3
27	28	5
61	61	10
3	24	3
7	13	2
4	4	16
22	27	1
26	67	2
35	35	7
70	71	1
43	44	2
7	8	2
48	49	1
0	2	5
25	25	8
12	12	7
26	26	8
7	7	12
41	41	9
65	66	1
60	61	7
77	77	2
1	8	4
73	73	5
0	65	2
30	43	2
8	10	5
58	76	4
19	49	2
19	20	3
61	72	1
24	24	8
7	9	3
37	37	6
35	37	2
49	49	16
47	48	8
13	20	5
55	76	4
13	13	6
72	72	6
9	10	3
29	31	5
3	31	7
3	36	2
36	41	3
70	70	8
39	43	3
22	36	1
58	66	1
6	7	1
1	2	2
62	62	5
38	41	3
37	38	3
71	73	3
30	30	4
67	70	5
74	74	8
5	6	3
28	44	1
68	71	1
22	22	5
51	52	4
12	14	2
0	3	3
0	40	4
75	77	1
18	19	2
22	35	4
20	21	4
57	76	3
63	71	2
9	12	2
28	28	2
21	48	2
35	36	3
74	76	3
38	38	7
30	67	3
34	35	2
18	34	8
4	24	3
39	50	1
66	67	1
8	8	4
32	32	11
63	64	3
19	50	2
61	65	1
65	71	3
14	15	1
3	37	1
22	23	4
38	40	1
60	69	1
3	42	3
42	53	1
9	11	1
6	32	1
3	4	3
49	50	2
28	32	2
13	14	2
25	34	1
18	33	1
8	9	1
34	42	3
23	24	2
31	32	2
39	55	1
65	65	1
43	49	1
4	5	1
50	52	1
67	77	2
