42	42	37
45	53	1
57	57	26
50	55	6
35	35	50
20	20	34
58	58	38
11	39	5
18	18	56
21	21	27
61	61	14
12	15	8
5	16	1
15	15	36
10	12	4
50	50	26
20	21	7
51	51	53
21	23	2
48	49	4
11	11	33
36	36	39
8	8	62
2	2	38
56	60	8
9	9	37
43	43	40
16	17	15
32	32	35
35	37	5
3	3	22
46	46	51
34	34	18
2	3	4
24	53	4
13	14	4
40	40	48
12	16	2
24	24	17
4	4	26
10	10	46
62	62	23
17	19	4
54	54	19
0	0	34
3	42	1
19	39	16
33	62	2
24	25	10
4	8	4
11	40	9
19	19	22
46	47	12
13	15	4
3	43	4
37	38	5
14	14	27
43	44	18
21	42	3
2	18	2
0	59	2
33	34	8
48	48	30
55	55	29
49	49	28
9	11	9
31	34	7
1	29	5
15	16	15
1	60	6
30	30	46
38	41	8
15	44	1
39	39	21
16	16	21
5	5	19
52	52	38
11	12	12
12	14	6
32	33	2
53	53	20
23	24	6
56	56	30
4	13	10
36	48	3
56	57	6
7	12	4
59	59	8
25	30	1
42	43	11
49	52	8
12	13	13
34	35	6
1	1	46
14	54	1
36	37	15
3	14	2
18	19	11
19	58	2
14	52	3
47	47	27
10	39	6
40	42	2
44	44	47
37	37	31
12	12	10
16	38	2
7	7	24
3	13	3
30	31	8
60	60	17
3	17	4
45	45	28
25	25	33
50	51	2
33	33	40
50	52	8
45	52	5
17	17	29
31	31	32
32	37	1
13	13	30
11	37	2
6	6	29
39	40	6
29	32	5
34	61	2
22	22	14
17	18	13
6	19	2
51	52	9
35	36	5
3	4	10
14	15	8
18	38	2
52	57	7
8	9	17
5	6	12
29	29	6
3	44	5
1	22	3
3	5	2
44	45	5
9	10	8
30	32	4
4	18	1
14	16	3
20	37	5
19	38	2
8	13	6
39	43	2
30	33	3
41	41	16
25	39	5
5	24	2
23	56	5
58	59	7
60	62	8
61	62	9
47	48	4
10	11	15
44	46	1
12	38	9
50	58	2
37	59	5
4	5	4
7	9	8
3	9	3
8	15	3
45	46	16
50	53	4
49	50	16
32	54	3
31	37	2
33	49	3
59	60	8
50	54	1
11	41	4
19	21	2
22	23	4
23	52	3
31	32	11
7	11	6
15	18	1
40	54	3
38	38	19
52	53	11
18	20	2
16	19	4
10	19	3
49	56	5
22	24	1
12	17	2
40	41	8
19	20	7
6	7	3
23	23	15
42	54	3
36	44	6
16	24	4
49	61	3
55	56	6
13	35	2
14	53	1
0	1	7
48	50	2
19	60	1
1	2	5
16	18	3
38	42	3
2	43	3
5	8	2
9	13	2
4	6	5
54	56	2
18	42	3
7	8	3
19	59	4
38	39	7
31	33	3
54	55	4
0	31	1
15	17	4
31	48	1
35	48	1
39	44	3
17	52	1
44	61	2
42	55	2
19	37	4
7	14	3
57	60	5
29	30	2
22	58	1
52	56	1
14	42	2
21	22	3
5	9	2
5	60	2
42	52	1
56	59	3
53	54	1
6	18	2
39	41	4
41	54	2
24	29	1
41	42	1
19	56	1
33	61	1
4	36	1
54	58	2
32	35	3
59	61	1
55	57	2
21	24	1
30	35	1
52	54	1
23	58	1
12	39	1
5	42	2
21	30	1
51	53	2
30	47	1
55	60	1
13	44	1
52	55	3
6	12	1
5	23	1
24	30	1
0	60	3
34	47	1
26	26	1
47	52	3
36	46	3
34	48	1
54	59	1
6	16	1
49	51	1
16	41	1
16	53	2
18	39	2
2	44	1
25	26	1
7	15	2
9	14	1
9	12	1
57	61	1
14	38	1
