40	40	34
58	58	24
51	132	2
72	72	41
40	115	1
79	79	41
61	97	2
133	133	21
134	134	39
19	33	2
113	113	36
91	91	37
75	75	43
120	120	29
121	124	2
85	85	29
69	70	16
117	117	48
106	106	37
102	102	34
120	123	3
12	12	24
122	123	12
26	26	25
55	56	11
15	15	53
10	11	8
33	120	7
8	8	27
112	132	2
16	16	35
50	55	4
92	101	6
14	14	29
76	76	45
43	44	12
82	82	47
24	24	33
45	45	44
31	31	43
45	46	9
101	101	41
37	37	48
22	23	12
19	19	39
121	122	13
61	61	47
116	117	8
9	92	7
76	117	2
88	88	19
120	129	3
128	129	18
94	94	38
3	4	8
68	69	5
62	62	32
10	34	3
32	68	4
73	73	36
44	44	27
100	100	27
9	9	33
6	7	19
31	32	6
129	129	41
40	41	13
65	65	25
94	124	4
7	7	35
111	111	44
83	95	3
122	122	26
13	14	10
126	133	3
47	47	35
65	66	12
9	10	6
16	17	5
112	112	32
92	92	52
25	25	23
57	57	37
123	123	31
93	93	46
85	126	6
39	39	18
14	15	10
97	97	37
110	110	40
107	107	41
108	128	5
80	83	6
35	35	43
23	23	32
132	132	13
83	83	26
121	123	9
126	134	8
86	94	6
66	72	4
117	118	4
22	91	6
96	96	28
64	64	36
97	98	14
107	109	7
102	103	23
67	67	19
105	105	47
27	28	16
20	33	6
59	59	45
32	32	31
29	29	16
81	82	12
39	124	2
36	36	33
26	27	6
88	132	4
79	111	17
33	33	35
89	89	10
6	6	37
87	87	35
68	68	37
97	99	4
95	95	27
22	22	19
105	123	3
108	108	39
80	80	41
128	128	42
40	90	5
99	99	17
110	111	13
1	1	19
46	46	25
10	10	33
60	60	41
90	90	24
6	59	6
0	2	6
95	101	4
10	46	2
73	113	4
60	61	13
41	41	30
30	30	33
0	0	11
13	13	37
59	82	4
84	134	1
35	37	7
34	34	43
104	104	33
29	30	18
8	26	5
11	11	54
37	38	17
11	47	9
81	81	37
23	24	13
93	96	5
77	115	6
104	123	1
130	130	11
18	18	19
84	125	5
12	13	7
124	124	31
109	109	44
108	109	12
90	91	4
121	121	49
2	2	28
20	21	16
130	133	3
75	117	5
79	82	2
20	20	24
78	79	4
66	66	39
74	74	26
127	129	10
69	93	2
116	116	25
107	108	10
114	114	50
62	64	4
96	119	1
77	78	9
14	37	6
110	113	2
88	89	4
107	111	1
119	119	43
21	21	36
4	5	3
84	106	1
92	124	1
66	67	10
48	48	19
24	34	5
106	107	5
86	86	28
63	63	27
12	36	2
17	18	11
70	70	36
113	114	10
17	93	1
88	133	3
79	93	1
7	8	2
1	2	5
77	77	43
19	23	8
93	94	6
43	43	20
19	34	6
31	94	2
112	113	11
57	58	9
59	116	2
32	33	16
94	95	22
113	115	10
16	38	3
131	131	9
88	126	9
50	51	3
17	17	24
76	92	4
128	133	4
38	38	42
113	130	2
103	103	21
68	73	1
125	126	11
70	72	5
113	116	5
96	99	8
4	4	26
81	90	2
15	37	2
86	87	7
91	125	1
56	56	33
5	5	15
19	85	9
115	115	36
105	128	3
18	19	9
85	86	12
76	77	13
61	73	2
68	70	10
27	27	19
58	92	1
98	98	14
42	42	9
0	26	4
100	104	3
36	117	3
28	28	11
88	121	1
82	85	2
114	115	18
62	63	13
33	34	10
88	92	6
69	69	21
84	86	1
7	43	6
120	121	12
58	59	2
85	116	4
71	71	16
44	74	2
83	93	3
124	127	3
126	126	19
34	35	5
46	63	2
133	134	12
15	16	16
46	47	11
101	123	4
22	25	3
78	125	5
55	55	13
26	49	7
81	123	12
127	127	7
57	121	3
126	129	8
59	60	4
96	98	9
115	133	4
104	105	3
30	65	2
79	124	5
118	119	3
3	3	15
26	28	7
8	10	6
41	42	7
31	101	3
39	40	14
86	118	4
28	36	1
82	90	2
78	111	6
105	113	2
83	125	3
28	48	1
84	84	23
0	1	11
19	119	5
61	134	4
32	48	6
25	26	10
125	125	26
78	80	7
123	124	4
22	39	2
114	116	11
9	102	1
17	61	3
32	47	6
38	115	3
83	115	1
31	89	2
84	85	17
124	125	19
60	111	2
80	123	1
33	45	2
55	58	2
49	50	1
80	101	2
95	111	7
79	110	1
72	117	4
62	73	2
12	15	1
61	79	4
19	20	12
118	118	21
59	110	5
119	120	14
36	57	1
21	22	12
97	114	3
127	132	4
87	100	3
35	36	5
27	37	2
68	76	2
8	72	3
77	118	3
48	56	4
94	96	3
59	120	2
98	100	7
14	35	7
84	119	2
10	78	4
81	108	4
22	29	4
19	22	1
116	134	4
84	115	1
101	102	15
113	117	1
5	32	1
82	84	2
34	69	5
23	40	2
24	35	3
92	93	9
99	102	2
11	12	9
35	41	3
31	85	3
108	126	5
111	115	3
114	134	5
59	108	7
8	9	8
64	103	3
48	49	1
34	120	2
78	82	3
13	28	1
91	93	3
56	121	1
70	71	4
98	101	2
18	45	5
85	113	3
10	77	10
75	76	4
29	89	2
5	29	3
31	45	3
32	92	1
59	105	3
11	24	6
91	92	14
83	84	14
129	131	4
14	40	1
17	40	10
40	86	2
11	48	5
64	65	17
109	111	5
61	118	3
22	88	3
36	41	1
81	130	1
36	37	8
3	20	1
13	15	3
99	101	2
22	24	17
100	101	4
84	107	2
30	89	1
72	73	5
7	37	3
48	83	3
131	132	3
28	35	1
50	50	7
122	132	1
74	75	8
78	100	1
23	34	1
42	43	3
59	109	1
16	43	4
88	91	1
87	88	14
44	45	11
57	122	5
61	87	1
34	41	1
22	33	3
78	110	1
78	78	20
5	6	10
6	25	2
128	130	4
25	41	3
129	130	5
22	28	1
71	72	5
81	127	2
12	80	3
5	10	2
130	131	5
16	48	6
27	87	2
49	49	1
101	119	1
79	125	1
102	118	2
61	119	3
30	33	3
0	71	3
108	124	3
83	113	2
19	24	1
15	45	2
97	105	2
35	119	2
111	112	8
99	100	4
61	65	2
121	125	1
21	28	4
12	24	2
60	115	2
26	50	5
88	127	3
58	123	1
107	112	2
93	97	1
101	103	6
122	125	4
34	89	1
79	80	16
56	112	2
21	24	6
7	33	8
15	111	2
21	88	1
81	112	1
82	83	14
33	119	2
67	118	2
26	29	4
51	55	4
111	117	6
13	23	5
118	121	2
124	128	3
9	44	3
93	102	1
11	17	1
115	116	10
88	120	1
86	129	1
78	116	2
39	56	1
57	124	2
61	83	6
27	29	5
11	14	2
12	20	5
20	31	3
11	78	3
16	115	1
108	123	1
7	44	2
9	91	1
16	58	2
10	47	3
131	133	5
11	15	2
8	42	2
28	50	1
87	121	4
30	32	2
32	101	1
98	99	5
97	108	6
74	117	3
95	96	10
29	31	5
26	90	2
61	64	3
14	16	4
64	102	1
78	112	2
18	61	1
88	105	1
13	27	1
36	65	2
33	47	2
127	133	5
59	133	1
93	95	2
63	64	5
106	108	3
90	93	3
9	43	1
106	123	1
4	6	3
18	38	1
77	114	3
94	123	1
59	134	1
108	117	1
97	111	3
86	115	2
70	84	1
39	42	1
90	92	3
16	93	1
89	90	4
89	91	1
131	134	1
77	95	1
32	102	2
84	95	2
95	119	3
11	18	2
105	106	5
65	71	1
30	34	4
127	130	1
93	100	1
35	85	1
78	94	2
11	72	1
37	40	1
84	94	1
101	105	5
124	126	1
112	133	1
8	45	2
62	67	1
129	134	2
54	56	1
79	99	2
93	99	1
96	97	1
81	83	2
47	48	5
25	27	3
79	94	3
0	67	1
24	25	7
41	92	3
111	114	1
16	116	3
127	128	1
92	125	2
31	102	1
51	51	4
34	57	4
31	86	1
23	25	1
40	102	1
87	106	2
80	124	3
10	12	6
21	81	2
30	92	2
31	84	2
80	95	3
17	116	2
87	115	2
83	94	1
58	94	2
15	17	2
17	19	4
36	39	3
4	59	3
44	46	1
24	26	4
31	49	2
8	39	4
8	36	3
30	31	3
56	57	4
55	59	3
68	85	1
47	86	1
58	103	2
126	127	4
34	117	3
10	72	1
24	31	2
111	131	1
17	44	1
94	117	3
13	80	2
34	40	1
14	47	1
13	16	3
125	129	1
28	29	1
85	129	3
11	20	3
57	123	1
56	58	5
106	121	1
127	131	1
59	93	1
20	78	2
74	84	1
5	59	1
38	39	4
111	113	1
61	96	2
18	47	1
97	110	1
41	43	1
83	89	1
112	116	2
27	36	1
122	124	1
88	104	1
132	133	1
40	89	1
12	79	2
33	64	1
56	127	2
10	18	1
109	110	6
26	39	1
20	34	2
94	120	2
8	44	1
38	93	1
38	58	1
86	92	2
67	71	1
125	133	1
17	41	1
76	83	1
60	134	1
56	81	1
25	29	1
57	127	2
104	121	1
118	129	1
59	92	1
59	61	1
39	83	1
3	6	1
63	117	1
119	124	1
94	102	1
67	68	1
12	18	1
100	105	1
85	89	2
13	45	2
39	93	1
125	132	1
107	116	1
80	126	1
20	119	1
32	126	2
80	100	1
4	29	2
14	23	1
98	110	1
130	132	1
67	69	1
1	61	1
107	110	1
126	130	2
15	38	1
49	59	1
92	130	1
19	72	2
36	116	1
87	133	1
56	128	1
80	81	1
106	124	1
59	111	1
33	85	2
36	85	1
110	112	1
107	120	2
31	92	1
107	115	1
97	101	1
25	48	1
51	127	1
68	75	2
83	90	1
87	105	1
97	109	1
33	35	1
106	114	1
26	38	1
13	37	1
57	71	1
16	40	1
35	93	1
102	105	1
117	119	1
