119	120	7
56	56	8
27	43	2
121	121	16
105	105	9
63	126	1
61	71	5
2	2	10
111	111	21
125	125	9
66	66	11
101	102	7
5	5	20
83	83	8
64	64	12
12	12	10
6	14	2
34	34	22
86	86	9
77	77	18
17	17	3
59	126	5
45	48	2
37	37	15
70	70	12
59	59	16
92	92	6
50	50	22
58	58	15
100	100	5
1	2	5
84	85	7
78	78	8
119	119	23
30	30	12
60	60	16
32	32	9
11	11	15
83	87	2
57	57	9
9	9	12
61	61	10
76	77	2
18	18	9
59	71	2
87	87	25
112	112	8
43	43	14
91	91	9
75	75	12
47	50	1
131	131	5
121	122	3
1	1	19
111	121	2
51	96	1
52	64	2
38	38	4
69	85	6
98	98	11
89	91	3
82	82	10
7	15	1
33	33	11
103	103	12
76	78	1
117	117	10
110	129	4
58	59	4
33	97	3
93	93	13
0	72	2
3	3	12
102	103	9
45	45	11
24	24	14
34	43	3
126	126	22
132	132	16
75	103	6
2	3	1
62	92	1
53	126	4
74	74	19
125	126	1
18	45	2
11	47	1
29	72	5
23	23	4
96	98	7
79	79	13
34	35	5
33	34	7
66	69	4
54	55	5
77	78	4
108	111	3
6	9	1
68	69	6
10	10	12
28	28	10
130	131	4
65	124	1
14	14	5
104	104	22
18	98	4
21	21	13
7	9	3
95	95	17
86	87	3
129	129	7
8	8	19
69	70	7
65	69	4
94	94	25
25	25	8
86	88	6
98	99	4
116	116	8
26	26	14
103	104	2
3	4	5
58	65	1
63	63	22
22	23	3
54	59	2
90	93	4
24	27	2
72	72	8
11	31	3
25	26	2
37	38	2
3	6	2
13	13	13
19	20	7
134	134	7
26	37	4
73	73	12
71	134	1
76	103	2
20	21	11
97	112	5
129	130	3
69	83	4
113	113	19
109	109	23
111	128	1
88	88	14
44	44	7
64	65	5
45	55	3
85	85	11
133	134	9
127	127	14
96	96	8
62	99	2
66	100	5
114	114	10
19	19	8
115	116	3
99	99	15
115	115	17
124	124	8
21	59	2
111	112	2
110	110	7
32	98	2
26	27	3
27	27	10
71	71	7
8	9	7
112	131	1
15	17	5
35	35	13
4	4	6
118	130	2
52	52	6
104	105	5
64	124	4
29	29	9
101	101	8
132	133	3
53	53	24
16	16	7
36	38	1
97	97	5
50	97	6
97	128	2
80	80	10
68	68	7
135	135	3
23	24	8
113	122	1
0	0	6
21	22	7
118	120	7
90	90	12
77	117	2
29	35	10
49	113	5
74	103	3
69	69	6
130	130	7
110	131	2
102	102	13
7	7	10
83	126	3
83	84	3
4	10	3
20	20	6
81	81	5
67	69	2
36	37	2
112	113	2
133	133	3
79	80	7
99	100	2
6	7	3
45	46	4
45	54	2
110	112	5
52	53	7
6	6	5
107	131	1
11	14	2
76	76	6
16	17	4
32	36	5
1	13	2
0	95	4
30	33	4
11	44	1
1	33	2
9	57	2
122	122	11
2	4	1
60	107	2
59	63	1
105	111	4
67	72	1
32	96	2
123	125	1
77	79	2
131	132	6
118	118	8
113	114	2
95	120	1
100	101	2
106	113	5
15	64	3
62	62	2
4	14	4
98	105	1
87	126	2
4	107	1
4	6	6
72	98	4
110	111	2
120	120	9
9	14	2
96	97	4
55	57	4
87	88	3
49	84	1
76	114	2
80	82	1
78	117	4
43	90	1
62	63	5
89	89	9
62	131	1
10	62	3
45	47	2
7	64	2
3	5	1
52	76	5
6	124	2
4	53	1
36	36	9
93	94	4
11	60	4
106	106	13
57	110	2
15	15	1
54	61	3
46	47	1
15	19	2
104	123	2
55	56	3
104	124	2
52	77	2
67	67	6
48	48	4
80	81	2
127	128	1
114	131	1
107	128	2
108	108	3
108	125	2
126	127	3
59	70	2
110	113	1
110	128	2
38	42	1
132	135	2
0	3	1
17	38	2
108	109	1
13	79	2
71	124	1
128	128	7
67	129	1
62	71	1
47	47	5
115	134	1
123	124	1
107	107	3
31	32	3
92	134	1
10	116	3
112	117	2
50	53	2
58	114	2
58	131	4
6	12	1
31	31	3
63	64	2
128	129	3
78	79	2
107	124	3
46	55	4
71	72	2
79	118	3
67	108	4
123	126	1
0	63	1
89	90	3
61	85	3
32	33	5
118	131	2
14	30	6
59	60	1
65	131	2
0	30	2
53	73	3
125	129	2
73	110	1
28	29	1
54	76	1
98	127	2
49	126	2
13	42	2
92	102	2
95	96	2
1	34	1
14	16	2
13	14	1
31	35	2
52	110	3
69	90	1
75	76	3
62	65	2
3	13	1
112	114	1
78	116	1
129	131	1
14	17	2
71	105	2
117	133	2
13	35	2
98	135	2
64	107	1
84	86	1
71	80	1
50	131	1
15	16	4
1	100	1
91	92	1
68	98	2
49	49	1
109	130	1
123	123	4
61	65	1
16	24	1
115	117	2
113	125	4
82	117	1
24	25	1
60	96	2
104	114	1
48	84	3
111	129	2
18	99	1
108	110	1
10	63	1
27	35	1
84	84	1
97	111	3
113	134	1
103	122	1
60	98	4
25	43	2
28	30	1
122	123	2
21	25	1
65	65	2
4	8	1
71	109	1
47	131	1
106	115	3
95	104	2
114	115	1
66	129	1
0	73	1
12	18	2
116	129	1
111	127	1
124	126	1
32	51	2
56	57	1
54	97	1
126	129	2
94	95	1
13	18	1
92	93	3
68	100	1
31	44	1
71	91	1
105	114	1
3	34	2
72	128	1
88	127	1
112	122	1
12	13	2
1	43	1
113	127	1
17	100	1
13	15	2
14	19	1
30	45	1
68	86	1
57	58	1
19	23	2
58	82	1
77	124	1
55	55	1
71	102	3
63	132	1
54	54	2
105	106	2
60	65	1
32	97	2
65	66	1
60	129	1
120	121	1
45	56	1
54	63	1
101	104	1
77	108	2
50	55	1
55	135	1
17	82	1
5	13	1
99	101	1
84	133	1
