4	4	6
49	49	5
26	26	6
42	43	3
66	67	12
47	47	5
1	5	1
27	62	4
26	27	1
25	25	8
60	63	2
74	77	1
4	14	2
60	77	1
36	37	5
36	45	2
37	68	2
22	22	10
50	50	4
73	73	9
6	6	13
23	24	12
76	76	10
1	1	7
63	64	3
42	42	6
43	43	11
9	20	2
29	31	1
9	9	5
72	72	13
46	46	3
24	24	5
21	22	4
68	69	2
29	32	3
53	56	2
9	11	4
58	67	1
33	38	5
45	45	2
47	53	6
19	19	8
56	56	11
36	36	4
58	58	11
54	55	6
72	74	1
20	25	2
63	63	7
3	5	2
34	55	2
35	37	1
32	33	4
66	66	9
51	51	8
31	49	2
70	70	5
12	12	5
48	53	1
74	74	2
18	22	5
33	51	4
54	54	8
2	2	8
29	30	1
41	51	3
38	38	2
23	35	1
61	66	1
25	52	3
3	3	1
29	29	11
9	10	5
67	67	6
69	69	4
71	71	8
40	45	2
37	38	2
20	20	20
22	24	3
57	57	10
60	60	4
56	58	1
50	54	9
61	63	2
11	11	5
39	57	1
29	38	3
10	10	2
55	57	1
75	75	1
0	3	3
66	69	1
46	69	2
33	55	3
61	62	3
8	20	3
5	5	2
46	71	1
36	39	2
22	55	3
37	69	1
55	55	3
31	31	4
60	71	3
6	7	1
1	6	5
1	2	4
75	76	3
48	48	11
77	77	2
33	33	3
22	23	2
50	73	1
76	77	3
57	59	4
59	67	2
42	44	3
41	48	5
52	52	2
68	68	1
27	27	4
68	71	2
32	56	3
21	21	2
43	50	4
4	11	3
25	34	2
18	18	6
52	75	3
57	73	3
25	33	3
35	35	6
27	29	3
61	67	2
44	53	1
23	45	2
37	52	2
49	52	3
65	65	6
23	23	1
36	38	6
42	55	2
44	47	1
0	4	2
42	53	4
37	37	5
58	61	3
32	32	3
8	9	3
22	42	3
72	73	2
43	45	1
49	71	2
26	52	2
24	40	1
53	53	4
37	73	2
53	65	1
46	50	2
62	66	1
43	44	1
64	64	2
57	67	1
39	41	1
64	66	2
0	0	10
22	34	1
39	40	2
61	61	9
35	52	1
20	59	1
30	42	1
73	76	1
8	8	7
24	42	1
12	14	1
21	36	3
7	7	3
47	67	2
37	55	2
39	39	2
61	73	1
45	56	2
19	24	4
41	42	2
48	49	3
59	59	2
7	38	2
41	41	3
35	50	2
58	59	3
53	72	2
21	41	3
36	40	1
34	61	2
38	60	2
42	58	3
22	35	4
57	58	1
6	22	1
4	13	3
47	60	1
1	9	3
13	13	2
40	40	1
56	59	1
36	69	1
25	50	1
41	43	1
33	34	1
47	72	1
57	70	2
3	6	2
60	68	1
25	26	2
45	46	1
32	40	1
37	39	1
51	61	1
64	65	2
30	30	2
67	69	1
65	67	1
10	11	1
37	59	1
7	8	1
24	36	1
7	19	1
71	75	1
65	66	3
10	13	1
26	38	1
27	28	1
44	44	2
36	44	1
43	64	1
