96	96	12
98	99	11
104	105	7
55	56	5
39	39	12
87	87	1
60	60	3
80	81	6
81	83	4
83	84	5
76	76	4
107	107	7
24	99	3
102	102	6
31	31	3
87	88	5
53	53	11
85	85	4
41	58	1
82	82	8
75	75	9
76	77	1
34	34	13
45	47	3
105	105	6
75	76	1
46	46	11
37	37	2
22	22	8
29	30	2
45	49	5
51	51	13
40	41	2
25	26	5
75	77	2
100	100	9
45	97	1
96	105	2
72	72	7
23	23	15
60	69	2
60	62	1
64	69	2
44	44	3
73	74	1
92	97	2
33	33	6
67	67	12
37	97	2
55	88	1
59	72	1
71	71	3
88	88	3
50	50	5
99	99	9
62	69	2
89	89	4
84	85	3
22	52	1
84	84	1
52	54	2
35	35	13
38	45	2
90	101	1
77	77	4
20	24	1
77	80	4
38	38	6
81	81	1
32	32	2
103	103	7
55	55	7
95	99	3
59	59	11
69	69	3
38	39	3
90	91	5
77	78	4
54	85	3
21	21	3
40	40	5
98	98	8
20	22	3
68	68	4
104	104	10
88	89	1
50	51	4
27	28	1
43	44	2
82	84	3
59	60	1
25	29	2
52	53	5
62	62	3
70	77	3
88	91	2
96	99	2
48	48	3
94	95	1
55	57	2
97	97	8
101	101	11
94	94	3
51	52	2
90	90	4
80	80	5
61	63	1
72	73	1
24	24	5
29	66	2
102	107	1
89	90	3
28	28	3
65	66	3
22	87	2
63	63	1
36	52	6
36	88	2
73	82	2
67	68	1
37	87	3
86	88	1
101	102	3
56	56	6
49	49	5
83	83	6
27	27	1
56	88	2
55	58	2
97	98	2
86	86	6
95	95	6
60	80	2
68	69	2
96	98	1
45	45	1
62	64	1
101	106	2
29	31	2
24	27	2
21	71	2
30	30	6
61	72	1
91	92	4
97	101	2
78	78	3
81	82	1
38	97	1
85	86	1
24	56	1
77	79	4
91	91	2
74	76	1
35	89	1
52	52	5
39	42	1
48	53	3
37	38	4
42	43	1
53	75	1
41	41	2
89	93	1
74	85	2
23	37	1
93	93	2
89	92	1
64	65	1
65	65	2
64	64	4
57	57	3
79	79	1
50	56	3
50	78	1
58	60	1
57	71	2
91	97	3
103	104	1
39	44	1
31	59	2
46	47	1
106	106	1
73	73	2
85	87	1
61	61	1
31	64	3
33	34	1
92	92	1
43	43	1
19	19	2
25	25	3
78	79	1
47	47	3
22	49	1
42	42	2
81	85	1
98	102	1
42	45	1
52	56	2
45	46	1
70	70	2
40	42	1
77	84	2
63	64	2
22	27	1
58	58	1
36	39	1
55	72	1
83	86	1
60	81	1
35	78	1
74	74	2
22	46	1
