85	86	1
132	132	6
81	99	2
3	18	1
87	92	3
58	70	2
108	125	1
3	12	3
106	108	2
75	77	3
21	29	4
123	124	3
26	33	4
105	113	2
114	114	7
22	45	2
20	24	3
123	127	4
42	43	3
44	44	3
44	45	5
120	121	2
102	110	3
117	124	4
109	118	3
80	93	2
79	94	2
49	49	2
121	122	3
57	57	1
62	62	3
2	18	1
81	84	3
13	28	2
106	112	6
82	85	3
133	134	3
27	30	2
82	84	1
100	100	7
13	16	1
39	49	3
118	118	6
126	130	1
92	93	2
122	123	5
98	111	1
7	7	3
118	133	1
34	36	1
90	102	3
41	45	3
96	119	2
19	19	4
116	121	2
115	116	1
10	11	2
2	13	1
20	23	1
106	107	1
68	70	1
92	97	3
94	95	2
65	66	4
80	80	1
123	125	6
60	70	1
67	69	1
75	84	2
78	92	3
118	132	2
43	43	3
111	112	3
29	31	4
86	95	1
118	131	3
82	82	1
68	84	1
112	120	2
5	6	1
13	23	2
131	131	7
1	7	2
66	82	1
99	109	5
0	4	4
94	122	1
10	10	4
3	9	4
100	105	1
65	68	1
101	103	1
44	47	3
22	23	3
39	39	2
14	15	5
17	19	1
122	130	1
20	22	6
57	58	1
123	123	5
61	63	1
39	48	1
99	101	3
32	34	2
16	20	2
62	70	2
129	131	1
116	116	3
109	122	3
122	122	5
106	106	3
31	41	1
78	83	1
38	41	2
26	42	2
29	29	1
107	108	3
37	38	5
94	101	1
96	97	1
111	126	3
34	37	5
116	124	1
47	47	1
80	81	5
95	104	2
38	39	1
38	42	3
93	99	1
46	46	2
13	13	3
122	125	1
21	22	2
73	73	1
68	69	1
79	87	3
65	65	6
65	67	3
76	81	1
123	131	3
110	110	2
87	87	3
62	63	3
28	29	1
4	5	3
33	34	5
120	132	3
23	28	4
30	30	3
113	113	3
39	40	1
100	112	6
27	27	1
94	107	1
98	98	3
104	109	3
79	82	1
90	90	2
34	35	2
6	21	1
45	46	3
21	33	2
40	40	3
15	18	2
102	107	2
123	126	1
106	117	1
129	129	4
21	21	1
112	115	1
40	43	3
72	72	2
61	61	5
56	62	1
120	133	1
72	75	1
86	87	2
117	118	5
60	68	4
22	24	1
31	32	5
111	113	1
6	13	3
120	120	1
58	62	3
127	131	3
105	114	1
78	78	3
58	58	2
112	119	1
18	24	1
15	16	1
84	85	2
109	129	1
120	131	2
12	12	1
107	107	1
18	18	1
119	134	1
3	3	1
43	55	3
70	80	1
83	84	4
25	36	2
109	109	2
118	130	2
48	48	1
108	112	2
64	73	2
10	18	2
59	70	2
94	94	5
7	11	1
88	103	1
37	37	1
97	104	2
45	45	1
8	18	3
81	81	2
12	14	1
67	67	3
38	50	1
24	24	2
48	49	1
116	122	1
74	90	1
6	6	2
126	134	3
118	121	1
119	132	1
99	115	1
74	85	1
114	120	1
112	118	4
112	114	1
102	104	1
69	84	1
36	37	3
81	87	1
5	5	2
87	105	2
90	104	2
111	111	1
85	92	1
64	87	2
43	46	1
69	74	1
18	35	2
45	47	2
9	27	2
69	69	2
105	109	2
63	80	1
105	125	1
36	36	2
21	23	1
106	115	1
68	71	2
80	96	1
92	92	2
72	77	1
99	100	1
125	131	1
25	25	1
79	83	1
72	74	1
91	96	1
98	101	3
7	9	1
61	72	2
44	55	1
75	75	1
14	16	1
9	16	2
7	13	1
128	128	1
123	129	1
3	5	1
62	64	1
31	33	1
44	67	2
3	19	1
108	108	2
67	68	1
101	108	1
15	17	1
116	131	1
118	120	1
25	33	2
130	130	1
14	18	1
125	127	2
103	104	1
92	101	2
87	95	1
55	56	1
21	30	2
58	64	1
27	31	1
0	3	1
93	93	1
98	107	1
6	15	1
11	11	1
60	66	1
108	113	1
20	21	2
84	94	2
103	111	1
60	65	1
13	24	1
55	55	1
18	23	1
81	83	2
89	98	1
12	22	1
91	93	1
35	40	1
6	9	1
1	3	1
69	88	1
6	8	1
46	47	1
20	20	1
67	71	1
7	14	2
0	2	1
35	44	1
55	60	1
30	31	1
39	47	1
59	59	1
24	25	1
80	88	1
128	134	1
126	127	1
96	100	1
100	113	2
70	70	1
40	41	1
41	42	1
69	70	1
76	79	2
25	31	1
73	76	2
77	84	2
113	123	1
65	77	1
36	38	1
64	75	1
8	15	1
24	36	1
56	60	1
83	96	1
122	129	1
58	59	1
76	83	1
14	14	1
94	105	1
125	128	1
75	86	1
79	97	1
68	74	1
131	132	1
68	78	1
95	107	1
86	96	1
85	97	1
125	134	1
61	73	1
127	129	1
74	81	1
70	76	1
69	71	1
