101	101	5
127	127	4
119	119	3
51	62	3
9	10	2
132	132	6
141	141	11
120	120	4
100	101	1
12	14	1
1	2	4
48	80	1
107	108	4
110	133	2
94	94	4
106	106	7
32	33	4
4	4	3
57	57	3
111	140	4
85	86	2
59	59	10
131	132	4
87	94	1
17	18	3
134	139	2
81	81	6
137	137	7
21	21	6
0	10	4
122	123	4
24	24	2
3	3	3
61	61	4
54	131	2
91	96	2
39	39	4
57	58	3
55	56	4
133	133	6
85	85	3
62	62	2
51	51	2
93	93	3
118	118	3
69	69	6
54	54	2
73	73	6
74	75	3
72	72	2
74	74	2
50	82	3
131	131	2
28	28	2
60	60	3
40	40	3
30	42	2
13	14	2
19	25	3
83	83	3
56	56	11
26	28	6
95	95	5
112	113	4
129	129	2
92	92	4
98	98	1
92	94	6
31	31	5
11	11	6
102	103	1
126	126	4
138	138	2
38	39	3
91	91	3
70	76	3
118	119	1
38	38	4
80	80	7
82	82	4
2	2	3
32	32	4
103	103	5
30	30	7
16	16	3
67	67	4
66	66	10
15	15	1
51	87	2
102	102	1
119	124	4
35	36	1
136	136	3
13	58	1
113	130	2
62	63	2
139	140	2
71	71	3
17	17	2
37	37	2
97	97	6
10	10	2
136	137	2
64	64	1
19	21	1
137	138	3
26	26	1
6	6	1
8	8	7
97	130	1
134	136	1
84	84	1
98	143	4
66	67	3
22	22	6
134	135	1
5	5	3
11	41	1
111	139	3
33	35	1
142	143	3
95	131	1
110	110	2
104	104	4
18	27	1
24	25	2
131	133	2
12	61	3
120	121	2
20	20	1
41	41	4
64	65	6
25	25	2
121	121	2
49	49	2
13	13	1
112	112	2
145	146	1
105	105	3
135	138	3
5	39	1
33	33	2
61	63	2
53	53	2
79	79	2
10	41	1
52	127	2
14	57	2
108	109	3
70	70	4
78	78	1
1	5	1
63	63	2
49	64	1
92	96	1
108	120	1
130	131	2
127	130	3
34	34	1
79	80	1
98	112	1
42	42	1
48	48	1
99	99	1
77	77	1
43	43	1
22	23	2
29	29	2
129	130	1
57	59	1
6	41	2
27	27	2
114	116	3
115	116	1
103	141	1
49	129	1
34	35	1
47	82	1
8	17	1
30	33	1
