147	147	3
147	185	1
54	68	2
129	131	5
150	154	1
90	92	11
42	42	12
99	99	4
115	115	11
164	164	4
54	93	9
75	75	9
154	154	10
0	43	1
10	11	4
91	173	3
74	82	2
24	24	4
187	187	7
139	147	5
1	5	3
13	14	1
31	31	1
43	43	4
161	162	3
126	136	3
59	61	6
8	12	9
109	109	4
135	137	2
54	55	4
160	162	2
105	105	5
21	31	7
168	169	5
117	117	3
186	186	13
23	23	10
95	137	1
187	188	4
61	61	6
147	183	5
108	110	4
122	167	2
33	33	3
127	128	3
59	60	5
155	156	6
183	183	8
70	70	10
185	185	7
92	92	2
117	126	4
52	52	1
1	1	13
120	120	3
8	8	1
127	169	1
170	170	3
65	69	3
128	142	1
74	115	1
26	57	2
47	47	6
85	85	3
40	48	2
188	190	5
26	39	4
55	57	7
14	45	4
24	41	1
93	93	7
91	91	3
147	148	5
22	55	3
17	17	5
80	120	4
66	141	2
26	26	9
80	125	1
158	187	1
110	111	5
114	114	3
3	3	2
97	139	3
114	141	5
35	35	1
90	90	13
97	97	9
134	137	3
161	186	7
99	101	5
62	63	2
11	11	5
107	107	5
18	38	1
21	21	2
138	155	4
16	16	2
3	48	4
25	26	2
82	125	5
19	19	3
30	58	4
3	43	1
15	15	6
88	100	3
18	19	1
141	141	2
94	94	5
67	68	2
102	102	3
157	157	2
55	56	5
113	142	2
96	141	1
67	116	2
144	182	4
9	10	3
182	183	6
60	60	2
163	166	1
121	126	1
158	159	3
13	19	3
129	170	4
133	166	1
109	110	1
164	173	3
64	64	3
77	77	9
173	173	1
20	20	4
88	91	2
44	44	1
126	126	3
148	184	2
30	31	1
133	133	11
87	88	3
153	153	8
79	121	6
110	110	1
129	129	2
152	177	4
155	155	2
177	178	4
69	115	1
136	175	2
112	144	1
30	34	3
45	45	3
52	99	2
87	170	3
57	57	6
132	132	3
141	172	3
130	132	3
4	41	3
5	5	16
179	187	2
175	175	5
119	124	1
25	25	3
148	148	8
103	105	2
122	129	1
140	141	6
157	162	3
141	142	2
162	162	5
39	39	3
13	13	1
97	130	1
108	109	4
73	74	2
146	148	3
103	103	7
96	109	2
95	95	3
79	79	4
37	37	11
158	158	1
32	35	5
97	175	3
66	66	2
45	46	4
161	166	2
136	167	4
130	130	3
43	48	1
165	165	3
33	35	1
181	184	3
101	102	2
116	116	3
106	141	7
127	127	7
10	40	2
34	34	2
161	185	2
89	91	2
148	153	4
40	40	3
159	190	2
130	138	1
46	47	1
76	99	2
156	169	4
130	165	2
15	102	1
9	9	2
88	89	5
170	174	6
140	140	7
152	152	7
130	131	1
149	153	3
21	32	2
122	123	2
157	161	2
32	32	3
92	94	1
100	100	1
68	103	2
22	44	1
20	27	3
103	141	3
159	159	4
131	131	4
68	68	2
144	156	1
30	64	1
20	21	4
24	27	2
107	145	3
108	113	1
8	20	1
111	111	1
92	101	2
36	36	6
116	147	3
55	55	5
75	109	3
156	156	1
145	145	2
10	43	2
173	174	1
98	98	2
97	173	2
115	126	1
108	141	3
150	179	2
143	147	1
106	106	2
155	181	2
4	4	1
6	13	2
117	125	1
127	156	1
0	5	4
163	163	3
12	25	1
162	185	1
182	182	2
23	38	3
54	54	3
137	137	5
121	168	1
53	53	3
188	188	1
61	63	2
184	184	3
112	112	2
146	149	1
94	95	3
2	2	2
37	45	3
156	184	2
135	135	1
41	41	1
56	90	4
145	146	3
144	154	2
153	186	1
155	185	2
83	86	2
171	171	2
12	42	1
113	113	2
7	7	3
188	189	2
7	13	1
180	180	3
184	185	4
139	155	3
19	40	1
118	121	1
131	170	2
82	129	2
6	6	1
104	141	1
63	63	2
134	134	4
167	167	1
106	172	1
53	55	1
19	38	1
101	101	2
87	87	2
15	38	1
52	53	1
68	79	2
124	124	2
112	149	1
71	78	1
71	79	1
10	37	2
179	181	3
24	38	2
1	2	1
53	101	1
139	139	1
136	166	1
160	160	7
123	163	2
28	28	3
98	101	5
161	161	1
27	68	1
153	187	1
29	29	1
86	86	1
81	126	1
153	155	1
15	65	1
10	10	2
82	82	6
89	89	1
24	25	2
101	103	1
15	20	2
166	167	1
20	40	1
174	174	2
133	180	2
20	37	1
102	104	1
119	120	1
40	42	2
36	37	1
157	160	1
16	58	2
150	150	1
127	131	1
190	190	1
41	42	1
116	143	1
144	144	1
157	185	1
144	183	1
134	177	1
39	68	2
132	135	1
74	172	1
138	138	1
32	36	1
22	22	1
136	165	1
162	164	1
17	38	1
71	71	3
33	34	2
82	118	1
30	66	1
27	27	1
66	68	1
157	163	1
88	88	1
138	152	1
