157	157	15
133	133	20
144	144	27
70	70	12
115	115	23
12	12	19
21	21	16
97	100	7
103	104	4
139	139	15
41	43	1
119	119	10
72	72	14
13	13	15
127	128	3
73	74	13
25	55	1
162	162	17
5	5	14
95	95	6
37	37	14
91	91	17
25	25	17
56	56	18
19	22	8
39	39	7
36	37	6
57	85	1
40	49	1
170	170	16
129	129	11
37	38	3
85	86	2
74	74	8
100	100	8
164	164	29
149	149	5
52	52	16
51	51	14
146	147	5
36	36	7
4	4	14
8	8	14
98	98	18
69	69	17
65	65	18
42	78	2
1	1	10
24	25	6
166	166	12
18	18	18
123	124	2
16	16	7
134	134	2
19	19	11
127	132	5
136	136	12
49	49	6
132	132	17
99	99	20
97	97	18
53	54	7
12	38	1
160	160	22
96	96	14
107	107	16
162	163	6
161	162	8
159	159	14
112	112	15
69	70	3
15	15	18
90	105	15
106	106	19
17	17	13
125	125	10
161	161	14
154	154	12
111	119	3
111	111	26
108	109	1
7	7	29
41	41	10
9	9	5
152	153	4
83	83	28
168	168	9
101	101	23
139	140	9
127	138	1
124	125	8
20	20	13
0	1	4
40	40	21
169	170	2
111	126	1
79	79	17
27	27	6
114	123	2
142	144	1
88	88	17
128	128	16
56	86	1
78	78	11
11	11	20
141	141	14
44	44	24
79	80	7
77	77	4
155	155	14
107	111	1
37	69	1
90	90	19
42	79	2
165	165	8
24	24	8
42	42	11
152	152	20
148	148	23
13	14	7
67	67	13
57	57	6
114	114	9
117	117	12
147	148	6
110	112	3
113	114	5
105	106	4
112	113	11
53	53	17
120	120	10
52	86	4
109	110	1
131	133	2
158	159	3
121	122	5
10	11	2
6	38	3
153	153	14
89	89	18
145	145	12
108	108	12
6	7	9
13	18	4
137	137	10
62	63	1
143	143	18
127	127	11
123	123	18
156	156	19
3	4	4
151	151	13
122	122	20
105	105	24
64	64	13
48	48	14
69	76	1
44	80	6
23	23	14
78	79	5
7	10	3
122	123	1
85	85	10
11	37	3
169	169	21
138	138	25
66	68	7
82	83	3
118	121	8
142	143	6
62	92	2
26	26	14
66	66	11
87	87	19
13	17	5
94	94	5
164	166	4
47	48	2
102	103	1
141	142	7
54	54	4
45	45	13
92	92	7
41	45	3
164	165	1
14	38	6
157	158	2
95	96	2
50	51	2
116	116	13
113	127	3
130	131	7
134	143	1
71	73	4
8	10	1
46	46	9
38	113	1
73	73	14
54	55	3
58	58	4
3	3	10
77	78	3
14	14	13
134	135	3
47	47	19
43	43	22
10	10	19
51	57	7
156	160	2
132	164	1
87	88	8
34	34	12
121	121	4
64	70	2
39	44	2
9	65	1
39	86	4
18	21	1
65	66	5
35	36	4
4	5	6
136	137	3
130	130	17
10	16	2
53	55	3
74	114	3
13	39	2
15	17	4
167	168	4
33	33	10
86	86	10
147	147	8
135	135	10
13	45	2
116	117	5
132	134	3
146	146	11
158	158	11
72	82	2
21	23	3
118	118	25
115	124	1
124	124	9
140	140	14
146	166	3
167	167	7
57	58	2
101	103	7
71	71	7
98	99	4
118	119	8
75	76	3
112	116	1
126	127	4
109	109	13
61	61	1
165	166	7
22	22	12
11	12	8
166	167	5
131	131	6
15	16	8
92	103	1
51	58	2
140	142	4
100	101	8
22	23	9
95	98	1
117	119	2
88	89	4
132	139	4
62	64	2
48	53	3
44	45	6
154	155	5
4	160	3
55	55	10
18	20	3
132	149	4
100	104	8
111	138	1
106	108	5
145	167	2
37	67	2
142	142	14
104	104	12
101	104	1
8	20	6
150	150	7
108	164	1
2	2	16
102	102	9
34	35	11
119	121	1
19	23	5
76	96	4
75	95	2
55	56	7
81	81	9
41	42	3
82	82	5
93	93	9
63	63	9
2	3	2
7	161	1
66	124	1
155	156	5
92	93	2
114	124	5
26	27	1
19	21	2
143	144	9
131	166	1
110	110	10
149	155	1
76	76	15
51	85	1
33	34	5
87	90	1
165	167	1
109	140	3
16	38	5
11	13	9
72	83	2
8	12	1
5	8	3
25	27	3
154	163	1
2	148	2
80	80	9
129	142	2
38	38	15
150	154	4
52	53	1
41	149	5
126	126	7
123	125	2
156	158	2
113	113	10
68	69	3
49	51	3
35	35	13
14	37	3
5	24	4
46	51	4
14	15	3
163	163	12
123	153	3
75	75	7
20	24	4
83	84	8
93	94	5
143	146	1
45	83	3
8	21	2
147	165	2
71	72	3
21	25	2
78	114	2
11	14	3
130	167	2
106	114	1
12	40	1
84	84	16
75	77	6
68	68	5
162	164	1
6	24	1
51	86	2
41	79	2
57	72	4
5	145	2
20	23	1
144	155	2
125	133	1
94	114	2
115	116	1
50	50	5
125	128	1
138	140	3
23	24	2
157	160	1
103	103	10
110	111	2
121	133	5
108	114	2
126	128	1
108	113	2
94	96	1
138	139	3
50	85	1
0	0	10
100	102	1
8	98	3
116	125	1
12	39	2
145	165	3
25	26	1
111	112	6
66	67	3
93	103	2
130	166	3
153	155	1
7	11	4
53	56	3
70	85	1
119	120	2
84	85	3
81	82	3
101	102	1
0	3	4
129	130	3
151	154	1
71	87	1
3	145	2
71	83	2
154	165	1
2	149	2
6	145	1
0	2	2
18	19	4
5	6	5
94	95	3
74	80	3
151	152	2
21	27	2
4	6	4
140	141	5
120	123	1
108	110	2
54	56	1
72	73	2
40	46	4
45	58	1
145	166	2
40	41	7
129	167	3
150	151	3
62	62	4
3	39	2
13	15	5
28	28	7
7	8	2
99	105	1
116	124	3
70	76	2
14	26	2
44	47	1
150	152	1
117	118	1
123	126	3
3	10	3
44	82	1
46	47	2
1	5	1
97	162	1
48	54	1
62	93	3
51	52	4
115	126	1
1	67	2
70	71	3
134	136	3
135	136	1
1	48	1
133	143	2
122	166	1
125	126	2
130	134	1
121	168	2
102	104	1
37	149	1
2	147	1
12	13	1
58	105	2
146	156	1
156	157	1
56	90	1
122	125	1
118	128	1
168	169	2
76	113	1
19	51	1
39	40	1
21	22	1
7	162	1
11	26	1
64	86	1
23	99	1
137	138	2
19	20	1
11	38	1
89	90	1
10	18	2
62	90	2
146	161	2
6	6	3
57	86	2
94	97	2
12	50	1
27	28	4
114	116	2
19	50	2
45	84	1
46	63	1
22	24	1
121	153	1
54	103	1
37	39	1
148	149	1
42	43	2
72	147	1
1	148	1
116	120	1
10	15	1
97	98	1
64	65	1
14	39	1
149	154	1
94	98	2
160	161	1
71	75	1
13	48	2
56	57	1
36	140	1
74	76	1
43	44	2
80	81	1
90	91	1
99	100	1
68	157	1
86	87	1
9	11	1
113	116	1
5	7	1
73	75	1
128	134	1
