191	191	4
37	37	7
103	103	3
9	10	13
47	187	2
105	105	1
128	128	11
179	179	5
97	150	2
51	55	2
197	197	12
116	117	3
49	49	3
33	33	2
181	182	7
47	47	5
39	40	2
5	9	5
48	48	5
127	128	3
164	166	2
8	9	4
124	124	12
52	52	5
158	158	11
146	146	3
119	119	2
32	33	4
132	193	2
168	168	11
30	30	1
94	94	4
150	151	3
21	22	4
87	87	2
157	157	4
23	23	1
2	2	1
43	44	3
129	129	5
115	115	4
21	44	2
111	112	3
177	178	2
34	34	7
133	133	6
55	55	5
34	36	3
21	41	4
98	99	1
147	147	1
101	134	2
167	168	1
40	40	1
154	155	2
112	112	2
15	15	3
132	132	3
161	176	2
185	187	1
65	66	6
4	7	3
43	43	3
135	135	5
21	21	1
111	111	1
93	144	2
165	165	2
168	169	3
172	172	1
48	51	1
19	19	4
29	29	7
117	140	4
30	31	6
117	137	1
28	29	1
131	131	5
107	138	1
127	127	5
122	122	6
136	136	1
88	88	4
159	159	4
13	13	3
24	24	4
149	150	3
32	32	6
62	62	2
187	190	3
20	21	1
73	73	2
190	190	5
64	64	1
170	170	4
20	20	3
68	68	3
107	107	3
3	3	1
88	89	2
131	170	2
145	145	1
67	71	4
51	177	1
146	147	2
8	8	1
141	152	2
58	58	3
182	183	2
96	97	1
177	177	1
56	56	1
140	140	3
102	102	1
37	38	2
107	120	1
31	31	1
112	193	3
100	100	1
16	16	1
22	24	1
77	80	1
141	141	3
138	146	1
171	171	4
12	12	4
169	169	4
162	164	1
189	189	1
65	65	4
79	79	1
101	140	2
187	188	3
59	61	3
57	57	2
171	187	2
196	196	2
165	167	2
125	152	2
80	80	7
63	63	4
36	36	1
130	130	1
45	45	1
184	184	1
195	195	2
112	131	1
1	1	2
83	84	2
156	157	5
25	26	1
42	42	4
151	152	5
175	175	1
50	50	4
67	67	2
53	53	3
104	106	2
98	98	1
39	39	1
6	6	1
187	187	1
123	154	4
185	185	1
156	164	1
114	114	1
86	86	1
82	82	1
113	113	1
73	74	1
63	67	2
97	97	1
73	75	2
46	46	4
120	120	2
102	103	1
131	164	2
95	96	1
5	38	1
97	125	1
138	138	1
152	152	1
58	72	1
53	159	1
126	127	1
95	95	2
99	123	1
61	77	1
161	172	1
41	41	2
44	44	1
176	177	1
116	118	1
101	101	1
64	67	4
122	127	1
5	5	1
102	140	1
104	104	2
60	61	1
48	56	1
192	192	2
170	186	1
121	145	1
29	31	2
126	155	1
173	173	1
48	87	1
144	144	1
26	26	1
25	27	1
16	28	1
123	123	2
83	87	1
192	194	1
178	178	1
132	189	1
18	18	1
81	86	1
108	109	1
22	27	1
155	155	1
183	183	2
176	176	1
62	67	1
16	17	1
59	60	1
71	74	1
