20	20	4
63	63	15
4	4	12
51	52	2
37	37	9
2	2	13
8	8	15
63	65	2
30	30	10
52	52	12
38	38	5
65	65	10
58	58	5
76	76	7
0	0	5
35	35	11
77	77	10
62	62	7
68	68	5
7	18	3
43	58	8
13	13	5
40	40	14
76	77	2
5	26	1
66	66	7
11	21	2
33	33	11
51	51	4
57	57	19
32	54	4
64	64	5
8	71	1
69	70	4
32	66	4
9	9	5
61	61	11
31	53	7
56	56	19
15	15	2
41	41	17
49	49	24
28	28	5
50	52	1
29	29	2
16	16	4
42	43	2
67	67	7
42	42	11
53	53	6
51	53	2
76	78	6
47	47	15
5	45	4
6	6	2
25	51	3
21	21	10
53	54	4
32	32	5
31	31	4
73	73	3
50	50	7
26	31	1
25	25	6
58	59	2
71	71	7
69	69	11
48	48	8
47	48	6
55	55	21
5	7	6
33	49	3
78	78	8
46	47	9
2	3	3
21	69	2
19	19	7
9	21	3
75	75	11
17	17	15
79	80	1
67	71	2
36	36	7
79	79	9
1	2	1
32	33	5
56	72	2
48	55	6
7	7	4
13	70	2
45	45	3
59	60	3
34	34	3
3	3	3
18	60	5
64	65	2
58	65	1
29	30	2
16	31	2
32	67	1
46	46	7
59	59	10
10	69	1
77	78	3
25	26	3
45	46	1
21	22	3
35	56	2
72	72	6
6	8	1
36	39	2
11	13	2
54	68	1
48	49	4
26	26	5
9	69	2
80	80	4
55	56	2
49	50	4
14	14	8
12	12	1
6	16	1
11	12	5
38	39	4
22	69	1
61	62	2
60	60	3
5	8	2
68	70	1
60	74	2
37	56	3
15	57	3
6	9	1
63	64	2
5	5	11
54	54	8
41	42	1
52	53	1
31	70	2
70	70	3
10	13	1
7	49	1
36	56	2
10	15	1
12	50	4
14	68	1
69	71	1
32	56	1
11	11	3
45	55	3
21	50	3
2	4	5
54	55	2
19	20	2
39	39	3
59	65	1
74	75	2
22	52	1
8	9	1
39	41	1
60	65	2
11	25	1
34	45	1
5	6	2
27	27	3
74	74	7
20	21	2
33	34	2
34	35	2
7	26	1
58	66	1
5	9	1
43	43	1
10	10	1
32	71	1
34	44	1
10	70	2
50	54	2
9	13	2
18	18	2
9	20	1
1	1	2
44	48	1
50	51	1
7	8	2
30	31	1
47	73	1
13	67	1
9	10	2
57	58	1
18	19	1
35	36	2
51	54	1
70	71	1
3	7	1
1	5	1
12	67	1
67	72	1
15	18	1
