5	12	3
48	48	24
6	6	10
10	11	2
47	47	15
12	12	11
42	42	24
15	15	12
32	32	8
36	36	9
10	13	2
50	50	19
38	38	25
18	18	11
39	39	11
33	33	12
23	23	5
44	44	8
31	36	2
35	35	24
34	54	4
57	58	9
9	13	1
54	54	11
28	31	7
17	17	9
3	39	2
3	3	17
15	21	2
2	2	11
51	57	1
33	34	2
9	9	16
31	31	8
42	50	3
54	55	8
28	32	1
2	3	8
56	57	3
45	45	16
9	11	3
37	37	4
37	38	3
13	13	15
4	4	14
0	1	5
43	44	2
14	14	8
30	31	12
21	22	3
1	1	11
41	42	4
45	51	2
43	43	6
16	16	7
29	29	7
48	50	5
16	19	3
17	18	3
52	52	12
32	35	1
18	20	1
30	30	4
0	0	8
49	52	2
13	46	1
58	58	10
4	5	9
43	51	1
44	45	11
5	5	5
24	24	2
42	44	3
1	49	2
34	34	3
19	19	4
35	57	5
46	46	4
53	53	9
27	28	3
13	14	2
5	10	4
8	8	9
20	22	2
29	57	1
10	10	20
57	57	2
55	57	3
48	49	2
11	14	3
12	15	3
39	40	1
10	14	3
7	8	2
31	32	2
7	7	11
12	18	6
2	9	2
55	55	4
12	58	1
52	53	2
28	28	4
11	11	6
45	50	1
32	33	3
47	48	6
29	34	5
29	30	2
49	49	3
53	54	1
47	51	3
56	56	5
14	15	5
55	56	2
35	36	3
1	4	1
40	40	8
11	12	1
46	56	4
42	45	2
51	53	1
43	46	2
30	40	1
8	9	3
8	54	4
43	45	4
12	20	2
35	39	3
30	58	2
9	10	1
53	55	2
15	16	2
39	56	1
29	31	3
41	50	2
49	50	3
28	29	1
34	55	1
5	6	2
37	56	1
8	13	1
11	20	4
41	41	3
4	14	2
40	42	2
38	42	2
6	8	2
28	57	2
29	39	2
18	22	1
1	3	3
22	22	1
18	19	1
31	57	2
57	59	2
19	23	2
51	51	2
20	20	2
6	16	2
47	54	1
29	32	1
8	14	1
52	58	1
7	10	1
38	41	2
15	19	1
47	52	1
40	51	1
7	18	2
9	53	1
16	23	1
44	51	3
5	46	1
1	48	2
6	7	3
17	20	1
38	39	1
12	14	1
36	38	1
34	35	1
20	21	1
11	13	1
40	43	1
46	47	1
52	54	1
1	2	1
32	54	1
8	16	1
33	35	1
16	20	1
42	47	1
13	18	1
30	33	1
54	57	1
14	16	1
34	52	1
40	48	1
