4	4	8
66	67	3
47	47	26
9	12	4
40	41	2
41	45	3
2	80	1
26	26	22
61	61	11
29	73	1
79	79	7
62	63	2
46	47	5
0	0	13
78	79	1
9	9	8
48	48	8
81	81	2
60	72	3
15	15	5
10	11	2
50	64	1
72	72	14
37	37	13
38	38	11
2	2	7
55	55	13
41	41	17
43	43	4
9	25	1
67	67	7
49	49	7
27	27	16
80	80	17
57	75	1
13	13	3
37	38	1
3	4	3
74	74	28
48	49	15
2	3	5
79	80	4
1	1	13
16	16	12
10	10	5
11	11	7
22	22	2
30	34	6
12	12	11
36	36	14
76	76	8
73	73	9
14	14	8
56	56	13
63	64	2
50	69	3
58	59	4
28	28	15
66	66	3
8	8	13
58	58	7
19	19	10
54	54	5
52	52	8
15	20	3
46	46	7
7	7	14
51	67	4
9	64	3
63	63	5
17	17	9
3	3	19
64	64	9
18	18	10
29	29	11
65	66	1
75	76	2
78	78	10
40	40	14
39	39	9
31	31	5
35	35	13
29	30	3
71	72	6
27	77	3
70	71	3
18	48	2
21	21	6
69	69	14
9	14	2
71	71	8
53	53	9
57	59	4
25	25	3
68	68	3
42	42	15
3	8	1
49	56	1
26	57	1
65	65	7
32	32	7
6	7	4
1	2	2
67	68	1
11	12	2
56	58	5
25	33	1
49	66	2
77	77	5
34	34	6
54	55	2
57	57	7
28	29	6
56	57	2
59	59	7
5	5	6
45	78	1
75	75	7
33	71	2
46	78	2
14	15	2
26	27	3
27	33	1
45	45	8
19	20	6
49	50	1
60	61	2
50	50	3
53	54	3
33	33	12
36	59	4
10	12	7
13	21	2
62	62	4
38	39	1
67	70	1
60	60	8
39	42	1
51	54	2
6	6	3
13	15	1
20	20	2
61	62	6
17	65	1
30	30	5
4	6	1
25	71	2
58	75	2
17	18	1
7	11	1
4	8	2
28	31	2
73	75	1
16	20	1
66	71	2
2	8	1
11	21	1
16	48	1
2	62	2
64	65	1
31	70	1
69	70	2
46	48	1
58	67	2
10	33	1
51	51	2
35	36	3
11	33	1
15	16	2
15	29	1
39	40	3
19	26	1
55	56	3
8	50	2
70	70	2
0	1	1
42	43	2
1	65	1
53	63	2
12	14	1
32	33	1
28	34	2
27	28	2
48	56	2
0	72	1
26	33	1
68	70	3
72	73	2
55	61	1
47	48	1
4	5	1
47	55	1
74	75	1
27	76	1
17	48	1
21	25	2
15	32	1
10	13	1
0	4	1
40	42	1
