95	98	2
29	30	5
46	47	6
30	31	1
48	48	7
110	119	1
122	122	5
84	85	5
90	90	10
97	97	3
36	57	1
25	25	4
18	18	8
92	92	10
30	30	5
113	113	11
65	79	1
73	73	6
109	110	3
64	64	3
87	87	7
103	103	5
27	28	2
99	99	14
88	88	11
62	62	9
105	111	2
36	37	2
35	35	12
79	79	18
86	87	1
78	79	3
8	8	1
13	13	8
111	112	2
116	116	2
70	70	6
79	80	4
120	120	7
84	84	9
124	124	2
34	34	1
4	4	7
105	105	7
1	2	2
111	111	7
14	14	4
1	1	6
114	114	1
59	59	7
91	91	4
129	129	4
19	19	6
71	71	11
126	126	15
37	37	4
88	90	1
76	76	10
17	17	2
12	12	7
20	20	4
34	35	1
60	61	2
63	63	9
54	54	4
2	2	3
121	121	11
96	98	4
32	33	1
133	133	5
52	52	6
15	30	2
57	57	7
115	119	1
108	109	3
71	72	5
134	134	13
68	68	8
77	77	5
127	127	6
117	117	10
74	74	6
19	21	4
31	32	2
9	16	1
102	102	5
61	61	8
104	105	5
46	46	6
109	121	1
94	95	2
65	88	1
125	125	7
32	32	9
103	117	1
132	133	2
9	11	2
98	99	3
9	10	3
69	69	2
123	123	12
116	118	5
22	22	4
21	21	4
82	82	5
33	33	1
55	55	3
86	88	1
21	25	3
19	27	1
11	11	5
112	113	1
65	84	1
85	85	1
130	131	2
75	80	1
69	70	2
28	28	3
23	23	3
10	10	3
88	89	1
68	70	1
31	31	3
0	1	3
7	17	2
104	121	1
75	75	5
27	27	2
108	108	3
115	133	3
5	5	2
35	59	4
54	61	1
29	29	3
115	115	2
120	121	1
33	49	2
119	119	6
2	4	4
6	12	4
54	55	2
104	111	3
57	60	3
65	67	2
85	86	1
15	15	1
102	104	1
96	96	2
21	24	1
9	9	7
10	16	1
124	126	1
102	103	2
90	91	2
112	118	3
74	75	3
115	132	3
6	6	5
118	118	2
55	60	1
35	37	1
88	99	2
0	0	2
105	121	4
76	77	3
68	69	3
72	72	2
50	50	3
55	56	2
89	90	1
96	97	1
4	5	1
72	73	1
47	47	1
62	67	2
130	130	2
67	67	1
26	32	1
83	83	4
44	44	1
101	101	4
60	60	1
98	98	1
79	81	2
109	114	1
66	67	2
64	65	1
26	31	2
73	74	1
91	109	1
37	38	1
49	50	1
13	29	1
53	53	1
39	45	1
101	102	1
119	120	2
91	105	1
119	129	1
114	119	1
112	112	1
106	111	1
54	60	1
117	132	1
43	43	1
97	98	2
64	66	2
70	79	2
106	106	1
65	65	1
44	45	1
3	3	1
18	21	1
6	7	1
104	104	1
