128	128	9
13	13	9
91	92	2
12	12	5
9	12	2
8	8	3
68	68	10
94	94	8
30	32	3
123	123	8
14	36	3
129	129	9
54	55	6
18	18	6
109	116	2
117	120	4
102	102	9
114	114	5
82	82	7
34	34	13
117	118	1
86	87	5
70	70	5
17	17	4
33	48	5
43	43	5
97	98	11
21	23	2
74	74	9
60	60	11
3	6	2
21	22	2
110	111	2
103	103	13
0	0	3
6	6	9
23	23	6
25	25	2
75	75	9
50	50	4
52	81	2
126	126	14
71	71	30
78	78	7
112	114	1
130	130	6
105	105	7
88	88	5
77	77	3
20	43	4
84	84	2
7	8	2
5	19	3
114	115	18
57	58	1
101	101	12
32	33	1
109	109	11
95	95	19
101	104	1
125	134	1
30	30	3
134	134	7
67	69	1
22	36	2
13	70	3
73	74	6
64	100	4
26	28	6
23	26	4
120	120	9
7	13	3
92	92	18
104	104	13
54	86	7
117	122	2
21	21	11
22	22	3
98	98	4
35	36	9
15	15	7
118	125	1
54	54	10
25	30	1
33	34	4
16	16	4
59	62	3
44	45	2
28	29	6
24	24	5
55	56	2
33	33	4
24	43	3
44	44	2
83	83	1
110	110	3
100	125	2
13	16	6
101	112	4
49	78	2
104	105	2
86	86	9
112	116	2
29	29	2
99	112	1
45	45	10
8	12	3
1	3	4
97	128	3
38	38	2
26	30	2
13	43	2
32	32	6
80	80	14
62	64	1
87	87	4
5	5	8
53	53	5
8	9	4
10	10	8
79	119	5
93	94	1
72	73	6
22	23	3
115	115	8
71	88	1
60	61	5
45	46	1
79	80	3
11	11	11
131	132	3
28	28	11
100	124	6
85	85	7
72	72	2
27	27	6
72	99	3
9	10	4
133	133	1
17	94	3
76	118	1
79	79	5
97	97	9
36	36	5
108	130	1
56	56	2
80	110	4
7	35	1
1	1	3
66	66	2
93	93	3
125	125	7
91	91	4
53	126	2
21	27	1
49	86	2
113	114	1
90	92	1
50	52	1
71	73	2
102	106	4
37	37	6
5	6	2
26	36	5
133	134	4
58	59	3
54	81	1
3	4	11
49	107	1
25	26	2
61	61	2
43	49	4
78	79	3
64	65	12
98	100	6
3	3	5
11	12	2
36	37	6
94	95	3
73	73	5
20	20	8
107	107	3
47	49	5
6	7	1
0	1	1
101	107	2
26	43	2
14	15	4
50	86	3
76	76	5
121	124	6
86	107	2
84	96	2
57	57	7
59	59	1
66	68	4
14	38	1
111	132	4
116	124	3
95	96	3
71	74	1
113	113	3
56	58	1
112	112	5
108	108	3
26	31	2
68	79	1
116	122	2
128	129	4
109	132	2
121	121	9
62	62	1
69	70	1
53	63	3
26	27	4
86	90	2
122	126	3
5	22	1
61	62	1
31	31	10
35	35	1
19	19	3
23	36	1
99	99	4
57	85	2
64	96	1
91	93	1
118	121	2
124	125	2
29	30	3
48	48	1
109	112	2
52	52	1
127	128	1
8	35	1
101	124	1
127	127	10
135	135	2
96	96	3
130	131	1
116	116	3
5	7	3
65	69	1
131	133	1
98	99	1
85	91	3
53	55	1
52	86	1
55	55	2
14	94	1
124	127	2
52	106	5
44	69	2
18	22	1
63	63	2
23	27	1
108	118	3
116	121	2
19	20	2
131	131	2
68	69	1
61	63	1
2	2	2
3	5	1
1	5	2
119	119	2
14	14	1
124	124	2
1	43	2
87	91	1
31	32	1
18	59	1
62	63	2
37	38	2
34	47	1
76	123	2
97	99	2
49	49	3
9	9	3
64	64	3
125	126	1
82	126	1
23	25	1
89	90	2
26	26	2
100	100	3
21	38	3
96	97	2
109	110	1
14	17	1
27	28	1
2	3	1
7	7	3
106	106	1
44	78	1
81	82	1
17	18	1
6	30	1
92	93	1
70	71	1
56	57	1
122	123	1
63	64	1
28	105	2
108	133	1
65	67	1
121	122	1
42	42	1
8	13	1
99	100	1
90	90	1
87	88	1
20	22	1
115	119	1
27	29	1
67	67	1
72	114	1
81	81	1
