84	85	9
81	81	4
55	91	2
46	46	7
30	55	3
47	61	4
91	91	8
98	99	2
82	82	8
96	96	4
56	100	3
99	99	6
60	64	3
53	53	1
65	65	7
76	76	7
26	26	11
83	83	3
25	25	5
26	27	1
60	72	2
66	66	7
56	56	13
93	100	1
41	44	3
50	50	7
94	94	4
30	54	4
80	80	12
93	93	8
104	104	6
73	89	3
27	38	3
62	73	1
22	22	10
88	90	1
96	97	6
72	88	6
68	68	6
85	94	3
95	95	7
94	102	3
55	55	3
24	24	16
101	101	6
72	72	6
77	77	5
97	97	8
32	36	1
69	89	2
29	53	6
64	76	3
52	52	11
21	57	4
79	82	4
71	80	2
36	36	10
87	87	3
20	24	1
22	26	3
55	79	1
82	83	2
59	64	1
46	65	3
44	65	1
61	61	5
67	67	8
58	58	5
88	88	2
42	70	3
76	91	1
40	62	1
46	62	2
78	79	3
50	53	5
84	96	2
62	88	3
80	81	6
76	78	2
102	102	12
67	83	1
74	100	1
92	92	5
58	69	2
27	27	1
98	98	8
51	51	2
67	102	3
78	78	2
60	73	2
54	58	6
55	58	5
92	94	2
64	94	2
92	102	2
25	38	3
105	105	3
40	40	4
90	90	3
57	57	4
33	66	2
43	44	1
52	66	3
91	100	7
102	105	2
35	48	3
86	86	4
95	99	2
95	96	5
71	72	7
47	47	12
71	81	5
20	23	2
44	51	1
70	72	2
60	60	6
59	59	5
41	41	4
44	70	5
60	62	2
80	88	1
63	63	4
32	64	2
70	70	1
31	54	1
48	48	8
57	96	2
22	58	1
38	38	3
69	69	7
29	29	6
76	84	1
67	91	3
45	71	1
87	98	2
25	26	4
62	64	4
93	95	2
28	28	8
40	53	3
36	37	1
77	78	6
103	103	6
72	79	1
36	42	1
30	42	6
71	79	2
78	100	2
24	36	1
51	53	1
71	71	1
62	63	2
23	23	7
27	29	2
19	20	1
84	94	1
90	92	2
52	68	1
61	86	1
33	33	6
58	59	1
52	53	2
47	66	1
48	49	2
66	87	1
28	29	4
25	39	1
79	106	1
79	97	4
102	107	2
64	64	2
92	95	4
100	100	3
56	61	4
100	106	3
35	51	3
20	36	2
61	75	3
43	68	2
37	37	2
89	89	1
44	71	2
44	44	1
85	85	2
87	88	4
48	53	1
21	21	5
37	39	1
78	102	5
61	62	1
83	84	1
32	33	1
20	27	2
87	99	4
49	78	1
23	68	1
29	31	3
36	44	1
43	45	1
94	103	2
70	71	1
22	44	3
89	93	1
32	35	1
43	52	2
34	67	1
45	68	1
34	34	1
87	96	1
30	31	1
89	91	1
39	41	2
103	104	1
47	48	1
45	69	1
22	36	1
21	32	3
35	52	4
21	54	2
79	79	2
66	91	1
32	32	3
32	34	4
62	62	2
89	102	1
91	102	2
23	24	1
102	106	1
30	30	1
77	92	2
93	104	2
81	107	1
95	106	1
76	77	1
75	77	2
72	80	2
23	53	1
63	72	2
74	81	1
37	38	2
33	65	1
20	30	2
38	54	2
41	45	1
75	75	2
21	23	1
59	72	1
61	69	1
92	96	1
54	54	2
58	68	1
56	58	1
93	107	1
41	42	1
38	40	1
58	71	1
31	31	1
60	63	1
62	67	1
87	90	1
34	42	1
83	93	1
