47	49	4
116	147	1
8	8	5
48	49	3
15	15	5
186	186	1
155	156	3
38	38	5
14	15	7
121	122	5
150	172	2
153	153	17
27	27	7
176	176	5
78	78	15
26	29	4
44	44	2
181	181	7
46	47	2
90	90	4
185	185	7
159	167	1
149	149	9
126	127	4
56	56	6
1	1	2
165	165	5
12	14	1
33	34	5
142	166	8
173	173	5
2	2	10
101	101	8
110	125	3
10	12	5
48	48	4
41	41	20
31	31	11
195	195	7
141	141	14
4	5	7
4	4	2
45	46	4
40	41	7
128	128	15
187	188	2
64	64	4
116	116	7
17	17	5
69	71	4
197	197	8
62	62	5
43	50	1
130	131	3
135	135	5
118	118	8
69	69	6
160	160	11
72	72	4
157	158	6
12	12	3
123	123	7
86	86	3
50	51	4
20	20	5
35	35	11
138	138	10
194	194	8
156	156	12
72	73	2
14	14	7
167	167	18
140	140	3
55	55	8
33	37	6
50	50	5
35	37	4
16	16	2
42	43	3
163	164	1
95	95	7
187	187	11
54	54	10
113	113	3
147	147	3
60	60	9
150	150	5
77	77	10
169	169	5
5	5	3
100	100	5
77	89	3
103	106	2
24	26	1
125	125	10
192	193	5
54	55	10
33	33	14
103	114	4
9	15	3
57	57	6
18	18	2
196	197	3
39	39	6
66	66	9
145	145	7
96	96	8
138	139	1
180	180	5
19	19	7
26	26	8
157	157	3
103	103	3
77	78	1
195	196	2
127	127	6
119	119	8
121	121	6
9	10	2
30	31	5
24	24	4
155	155	11
109	111	5
101	108	2
108	109	3
152	152	2
70	169	3
20	21	4
158	158	4
144	149	4
43	51	5
21	21	8
172	172	4
139	165	3
14	38	3
138	141	5
107	107	4
9	180	5
29	188	2
131	131	8
114	114	3
23	31	3
89	89	8
108	108	5
29	29	11
9	30	2
65	66	7
113	114	2
168	168	9
28	28	8
0	2	3
109	109	2
129	129	6
47	47	8
196	196	5
99	99	12
178	178	3
69	70	1
179	179	12
105	105	2
153	181	3
63	63	13
84	85	4
117	117	4
143	143	5
52	52	5
142	143	2
61	61	9
168	169	6
86	87	2
71	71	4
81	81	4
3	3	3
21	31	4
144	144	8
13	13	4
139	139	6
171	173	2
25	26	4
123	124	3
40	42	3
0	5	3
49	49	5
10	11	2
24	25	4
65	65	12
9	9	4
97	97	10
122	126	1
170	184	1
5	6	4
52	53	3
184	185	5
151	170	4
32	36	2
62	63	1
167	168	2
108	113	1
154	154	5
42	44	3
189	190	2
170	170	6
184	184	7
59	59	5
191	191	3
53	53	9
122	123	1
130	130	1
185	186	3
146	147	1
83	83	4
46	54	4
160	164	2
142	149	1
25	25	4
78	128	3
61	62	5
132	132	3
39	40	3
122	122	5
159	159	2
171	171	6
168	183	3
12	179	1
160	161	5
115	139	1
47	54	4
126	126	2
76	76	2
113	116	2
192	192	3
137	137	8
4	180	1
70	168	2
149	150	3
146	151	7
124	124	4
57	58	1
144	150	1
85	86	2
113	115	1
177	181	1
189	189	3
58	59	1
182	182	5
159	160	2
16	17	2
176	177	4
193	193	4
156	192	2
146	146	2
34	34	4
161	161	1
8	19	2
32	32	8
22	22	2
83	84	2
142	142	2
43	43	4
188	188	8
98	98	8
183	185	1
49	159	3
112	113	4
155	190	4
66	68	1
127	128	2
11	12	3
173	176	2
30	30	11
123	125	1
11	11	7
94	94	1
178	179	1
7	7	2
158	159	2
71	72	1
68	68	1
60	61	1
100	101	4
136	136	1
186	187	2
42	42	2
64	67	1
1	2	2
190	190	3
0	0	1
68	69	1
156	157	2
133	136	4
13	14	1
93	94	2
45	54	3
58	68	4
1	177	1
125	126	2
36	36	5
6	179	1
170	171	2
112	112	1
159	168	1
144	145	2
73	74	3
103	104	1
89	90	3
134	135	2
97	98	3
75	101	1
88	89	6
107	109	4
183	183	1
142	167	2
89	100	2
106	106	2
111	123	2
154	189	2
51	51	5
111	111	1
53	54	1
17	37	1
102	113	2
39	44	1
194	197	1
189	191	1
115	115	6
132	133	1
148	148	1
102	106	2
11	24	1
166	167	4
99	111	2
96	97	1
164	164	4
20	35	1
86	98	1
132	140	1
124	125	2
99	100	1
183	184	1
141	160	1
95	96	1
184	186	1
27	28	1
88	88	3
27	29	1
74	78	1
76	102	1
102	102	1
118	119	1
82	82	1
70	70	1
8	9	1
83	97	1
123	149	1
37	37	1
190	191	1
151	151	1
78	80	1
50	52	1
63	64	2
75	75	2
79	79	1
139	148	2
74	75	1
119	120	2
178	185	1
134	134	2
101	114	1
80	81	1
169	183	1
175	175	1
41	68	1
178	182	1
66	196	1
49	50	1
152	153	1
174	175	1
177	177	1
172	183	1
194	195	1
175	176	1
153	154	1
133	133	1
150	170	1
29	30	1
104	106	1
104	134	1
43	44	1
17	18	1
109	122	1
144	148	1
140	141	1
23	25	1
58	58	1
