92	92	5
37	37	6
119	120	2
53	90	5
57	60	2
71	71	5
1	1	1
35	35	6
21	28	5
104	104	6
90	90	6
90	92	2
33	33	5
108	109	4
6	49	6
22	59	1
69	69	6
73	73	5
79	111	3
30	35	5
27	27	3
118	120	3
67	67	9
57	59	1
87	87	2
5	31	2
33	34	5
89	129	2
96	105	1
4	4	2
10	10	4
6	6	1
28	28	7
129	129	2
46	47	1
22	35	2
126	126	5
3	92	2
24	24	2
114	114	5
26	26	1
55	55	5
125	126	1
29	29	6
53	53	4
94	94	7
116	117	3
20	92	9
107	108	3
85	85	1
24	25	6
80	80	3
135	135	5
74	114	3
55	56	3
68	68	3
50	50	6
88	96	6
36	36	9
59	59	5
19	23	7
29	32	1
11	11	5
84	84	4
83	97	1
111	112	7
7	7	7
49	49	3
110	110	6
2	2	2
31	32	2
64	65	5
108	110	2
120	121	3
34	35	7
109	109	4
31	31	5
11	17	1
22	22	2
84	132	3
62	62	7
106	106	4
94	95	8
24	26	1
10	16	1
21	29	1
74	74	4
95	96	2
6	7	4
32	32	3
116	116	5
102	102	6
1	32	2
9	10	5
50	62	2
123	124	1
52	53	2
97	97	9
132	132	6
16	16	11
119	119	5
56	67	1
65	65	4
19	19	2
86	88	1
125	125	5
116	118	2
130	130	2
23	23	2
121	121	3
49	60	2
5	28	7
50	82	1
3	3	3
108	108	2
54	60	2
66	66	3
72	72	3
13	13	1
0	0	3
61	61	1
44	44	4
117	117	4
18	19	2
43	45	1
28	29	1
34	34	2
99	99	1
75	134	2
123	123	1
87	118	2
36	44	1
70	71	2
53	59	4
78	111	3
63	63	1
70	70	4
75	75	2
95	95	1
73	105	2
14	15	2
88	122	2
11	16	6
14	14	7
1	2	2
64	68	1
31	34	1
74	105	6
79	79	2
63	69	1
83	84	2
100	102	2
120	120	2
112	112	1
103	103	5
97	114	2
52	60	1
81	81	2
133	133	2
7	8	3
8	8	3
26	56	3
25	25	1
91	91	2
64	64	3
68	69	2
127	127	2
82	110	1
112	113	1
4	55	1
27	59	1
127	128	1
74	134	2
45	45	1
4	27	1
59	61	1
73	104	1
71	101	1
106	107	1
112	114	1
126	127	2
89	90	2
128	129	1
49	84	3
118	118	3
15	15	4
36	67	1
22	54	3
5	5	1
112	115	1
88	121	1
60	60	1
124	124	2
89	89	1
67	69	3
129	131	2
62	68	2
113	113	3
12	12	6
63	82	1
28	32	1
15	17	2
4	22	2
95	134	2
83	85	2
27	28	1
99	104	2
62	82	1
49	52	1
76	76	3
0	7	1
87	122	1
98	98	1
1	31	1
73	98	2
101	101	1
3	4	1
14	16	1
98	133	1
50	84	1
79	80	1
87	97	1
88	126	1
54	54	1
50	52	1
56	56	1
7	9	1
132	133	1
53	84	1
21	21	1
110	114	1
108	115	1
