101	102	6
107	107	4
61	62	2
133	135	3
135	135	4
58	58	6
127	127	6
36	37	2
137	137	6
21	21	4
99	99	1
52	52	3
68	68	8
51	52	2
51	51	6
56	56	7
140	140	7
124	138	2
92	92	1
28	28	7
5	5	5
55	55	9
101	101	12
28	30	1
106	106	8
16	16	8
6	36	4
24	24	5
89	90	3
21	24	2
124	125	3
125	126	6
78	86	5
35	35	5
65	66	2
118	118	1
131	131	3
32	32	9
105	109	2
63	63	2
91	93	1
83	84	2
133	134	2
2	4	7
0	14	2
49	59	5
82	82	5
119	119	2
122	123	1
96	96	4
89	96	1
42	49	2
115	115	1
17	17	4
64	65	4
135	136	6
100	100	1
77	78	3
31	31	4
73	74	2
59	59	2
56	79	1
48	48	3
117	117	2
76	76	6
84	84	4
3	4	1
129	130	2
95	95	3
17	18	7
119	132	1
86	110	2
61	63	1
114	114	1
20	20	2
102	102	4
73	75	1
23	23	1
1	1	4
33	33	3
67	70	6
79	80	3
26	26	1
66	66	3
90	95	2
17	35	1
119	123	1
116	116	3
12	12	3
6	21	2
127	143	3
72	72	4
77	77	4
69	70	4
30	30	3
146	146	1
123	124	2
94	94	2
71	80	1
79	79	2
22	41	1
93	93	1
27	28	1
47	49	2
10	10	2
71	72	2
64	64	4
55	81	1
38	38	2
32	33	1
74	74	3
73	73	5
67	67	1
18	18	3
116	133	5
93	94	2
109	111	1
105	105	3
13	13	3
9	10	1
144	145	1
142	142	1
91	92	4
15	15	6
57	57	3
68	92	1
75	87	1
132	133	4
140	144	1
92	115	3
141	142	1
103	140	1
39	86	1
126	126	3
75	135	1
68	69	2
39	97	1
121	123	1
86	86	5
75	124	1
22	22	4
60	60	4
62	77	1
50	50	1
82	90	2
104	105	2
19	19	1
55	94	1
6	11	1
39	41	1
139	139	2
6	18	1
89	89	2
28	29	1
109	109	3
78	79	2
29	77	1
49	52	1
106	117	4
55	58	1
30	33	2
69	69	2
88	89	1
14	14	2
27	27	2
117	118	3
81	81	1
66	68	1
49	49	3
90	90	1
8	15	1
18	81	2
39	43	3
114	117	1
85	85	2
70	70	3
53	53	4
69	75	2
112	113	1
62	62	3
13	31	1
137	141	2
134	134	3
124	145	1
2	2	3
34	35	2
92	93	2
124	124	3
117	126	2
118	124	1
42	52	1
8	9	2
25	25	3
123	142	1
49	50	4
85	108	1
105	108	1
72	73	2
8	8	2
13	20	1
131	134	1
92	103	1
75	85	2
112	112	1
30	76	3
24	26	1
17	54	1
10	36	1
102	103	1
122	122	2
9	9	1
13	34	1
3	34	1
47	47	1
128	128	1
80	80	2
125	140	2
101	107	3
81	83	1
74	79	1
67	72	1
81	82	2
29	29	2
65	65	1
28	74	1
104	104	1
132	132	2
87	88	2
47	48	1
23	57	1
20	33	1
145	145	1
12	21	2
69	73	1
104	113	1
71	71	1
12	76	1
51	58	1
39	39	1
18	21	1
98	98	1
32	34	1
84	85	1
117	119	1
110	110	1
3	5	1
115	116	1
87	87	1
120	130	1
69	71	1
74	122	1
