137	154	5
39	39	5
67	68	2
69	102	2
88	140	3
40	40	6
79	79	2
47	47	3
87	91	4
95	95	8
117	117	6
64	64	4
53	54	2
23	23	3
0	0	2
93	93	3
41	45	1
67	67	4
21	30	1
139	139	1
132	156	2
106	107	1
92	94	3
3	157	3
121	131	2
14	15	5
104	104	8
83	85	1
17	17	2
0	4	1
111	111	4
125	126	2
42	42	6
111	134	4
75	123	1
22	22	5
5	5	7
68	68	5
77	94	1
8	8	8
1	8	1
151	151	6
156	156	2
112	112	8
94	94	6
110	110	8
9	10	3
27	27	5
75	75	5
152	152	5
91	91	14
105	105	6
107	107	1
87	87	9
0	99	4
54	54	5
123	123	6
120	120	6
135	135	3
15	68	6
92	92	5
78	78	3
22	52	1
129	129	5
90	91	1
157	157	3
82	158	4
14	14	7
46	46	5
45	46	4
150	150	5
11	40	5
128	128	9
4	55	1
23	42	2
100	100	5
146	146	5
24	52	1
18	18	5
15	17	1
44	44	3
109	135	3
3	55	1
111	131	1
66	66	4
88	89	3
48	48	10
36	104	2
51	51	4
142	142	9
26	31	1
135	147	1
137	137	2
12	12	5
128	129	3
31	31	5
145	158	1
18	23	1
114	114	1
69	125	4
145	145	3
24	25	4
109	109	3
21	100	1
24	24	3
2	2	1
108	108	2
85	85	5
69	138	2
133	133	3
30	31	1
31	70	2
141	141	5
33	33	9
19	19	8
36	64	4
36	37	4
67	69	4
73	73	7
65	90	1
77	77	9
52	52	1
147	147	6
82	82	10
2	7	3
15	16	3
41	44	1
83	83	5
7	8	3
95	104	2
9	9	2
119	119	6
36	36	2
103	103	4
132	134	2
78	105	1
90	142	1
121	124	2
69	69	6
92	115	2
16	16	5
2	44	2
127	127	6
115	126	1
99	99	1
82	133	1
8	9	2
29	29	4
35	35	6
62	68	2
54	56	2
114	116	1
37	41	2
106	106	3
79	141	4
52	98	2
96	96	3
107	108	2
92	114	1
158	158	5
82	114	1
32	32	2
21	22	2
70	147	3
37	37	3
129	130	1
11	11	2
2	12	1
64	66	1
11	25	1
14	149	1
56	56	5
76	85	1
3	156	4
41	48	5
25	27	2
25	28	2
76	90	4
16	44	2
71	154	1
111	136	1
50	50	3
120	156	1
38	46	2
147	148	4
148	152	4
101	108	6
21	21	2
134	134	1
84	84	1
118	145	1
55	55	3
121	121	3
27	44	1
80	143	3
26	26	4
90	90	1
16	17	3
97	97	5
102	147	3
118	118	6
25	31	1
41	41	5
122	122	2
90	104	2
38	157	1
96	103	4
100	101	1
89	89	5
108	121	1
140	140	2
119	157	2
146	155	1
14	36	4
148	148	4
87	96	2
25	25	3
3	3	4
8	105	1
93	94	5
4	38	4
28	28	6
116	139	1
73	76	2
94	115	1
31	32	2
144	145	1
82	83	2
121	122	1
88	88	3
28	38	1
15	15	3
68	113	6
124	124	1
3	38	1
17	36	1
67	147	2
45	45	4
101	101	3
155	155	1
69	133	1
34	34	3
154	154	2
69	70	1
52	53	1
126	126	1
39	114	1
11	44	3
116	123	1
89	90	3
4	17	2
132	132	4
115	121	3
99	147	3
138	138	1
113	113	4
104	129	2
33	40	1
113	126	3
83	84	2
38	115	1
118	143	2
16	29	2
13	14	5
109	112	1
7	7	1
40	41	2
62	147	1
79	80	3
133	156	1
145	148	1
109	111	3
67	149	1
25	32	3
77	78	2
107	158	1
95	96	2
34	37	4
156	157	2
66	90	1
120	121	2
78	148	2
49	49	3
120	126	1
70	70	1
43	75	2
81	81	3
47	158	2
2	41	1
68	69	2
31	50	4
135	142	1
32	33	1
73	78	1
136	136	2
114	119	1
102	129	2
92	93	1
80	81	2
116	125	1
78	81	1
142	143	1
20	20	1
2	10	2
118	158	1
34	63	1
27	28	1
106	132	2
90	108	1
71	118	1
46	47	1
66	89	2
1	31	1
33	34	2
130	139	1
102	102	1
149	150	1
14	16	1
98	121	1
141	142	1
13	68	1
43	43	1
133	134	1
91	110	1
137	155	1
117	132	1
23	32	3
118	119	1
80	80	4
117	118	1
130	130	1
32	36	1
64	130	1
136	153	1
34	56	1
110	112	1
71	71	2
9	79	1
143	156	1
30	30	2
54	97	1
19	24	1
78	79	2
94	96	1
95	97	1
73	123	2
108	113	1
99	149	1
20	117	1
67	145	1
111	112	1
123	124	2
10	16	1
6	6	2
2	32	2
74	75	2
72	73	1
17	23	1
43	158	1
46	53	2
124	125	2
98	98	1
125	127	1
87	97	1
41	49	1
101	140	2
8	102	1
48	49	1
144	144	2
17	134	1
63	64	1
94	95	1
73	132	1
50	53	1
132	150	1
135	136	1
149	149	1
81	82	1
111	154	1
139	148	1
134	135	1
115	115	1
8	16	1
68	71	1
33	50	1
93	97	1
116	117	1
95	103	1
46	52	1
143	143	1
48	64	1
