71	72	6
59	60	4
72	73	1
98	99	7
84	84	4
59	59	12
92	92	6
62	62	7
23	94	1
20	30	2
25	26	5
56	56	14
37	39	5
64	64	8
28	28	1
50	51	4
54	58	5
22	22	23
29	30	7
71	71	8
51	54	4
21	66	2
48	49	2
35	35	13
20	20	7
23	69	3
70	71	6
58	58	2
63	64	6
31	35	3
95	95	13
31	31	3
21	65	3
52	53	2
37	38	2
100	100	12
74	75	5
73	73	11
63	63	8
33	33	4
80	80	8
99	102	3
21	22	3
46	48	7
76	76	10
85	85	3
29	29	7
27	54	1
95	96	4
34	34	15
75	75	12
41	43	6
92	93	1
96	96	21
99	99	10
27	51	3
94	94	17
36	39	1
78	82	8
33	45	3
105	105	4
70	70	8
67	68	2
67	67	12
78	78	6
51	58	5
30	91	1
68	69	1
44	45	2
72	72	8
52	52	6
64	65	5
24	69	1
82	82	7
53	53	11
104	104	3
50	50	8
107	107	5
59	87	1
89	89	9
54	55	4
54	54	11
48	48	6
23	23	9
69	106	2
102	102	8
94	95	1
63	65	7
51	51	9
52	58	2
38	38	7
88	88	7
40	40	1
34	35	1
45	45	5
99	103	1
47	47	2
97	98	1
46	47	4
83	83	9
81	81	3
21	21	5
70	105	2
28	41	3
70	106	1
52	57	2
106	106	4
100	101	4
55	55	2
91	92	7
62	63	3
67	96	1
63	67	2
30	85	2
57	62	4
90	90	2
54	56	2
103	103	5
77	89	3
24	24	5
101	101	2
60	87	2
69	104	3
43	43	4
65	67	2
73	89	2
71	99	3
22	94	2
39	40	4
56	57	3
71	73	1
59	82	2
97	97	9
32	32	5
37	37	10
88	89	2
52	54	1
58	60	1
60	61	2
30	45	1
66	66	10
69	69	6
35	36	1
101	102	4
79	81	1
44	44	2
65	68	1
43	44	1
98	98	5
79	79	4
33	34	3
90	92	1
66	67	2
57	57	2
65	66	1
74	74	4
104	105	1
60	62	1
65	65	3
93	93	6
45	47	3
33	82	2
24	102	2
93	95	1
51	52	2
77	78	3
49	53	1
25	98	2
39	39	1
71	97	1
84	85	3
83	84	1
60	88	2
85	99	1
78	79	1
36	36	3
26	27	1
86	87	1
62	79	1
31	34	2
82	83	2
60	60	1
76	81	2
27	27	1
31	32	3
46	49	1
102	103	1
49	54	1
25	97	1
49	49	3
20	27	2
69	70	2
31	83	1
87	87	2
46	46	6
30	44	1
42	42	3
27	28	2
65	105	1
68	68	2
61	62	1
40	41	1
99	101	1
61	61	3
64	66	2
86	86	3
25	25	2
77	77	2
69	99	2
53	58	1
73	74	3
32	34	1
91	91	2
76	83	1
85	86	1
