160	161	2
65	67	1
5	5	2
56	57	3
167	167	1
25	34	3
146	148	4
61	61	7
75	150	8
131	154	9
92	92	16
169	173	5
116	151	8
18	18	5
151	151	4
3	3	5
53	53	5
11	11	10
36	38	5
85	85	7
137	137	12
181	184	4
143	143	7
86	86	6
75	75	15
29	29	10
94	94	4
73	74	7
55	96	3
127	127	4
68	68	8
93	93	5
62	64	2
142	142	1
88	88	7
141	141	3
71	71	4
103	104	2
34	34	3
140	162	3
133	135	3
80	151	2
97	97	6
140	140	6
190	190	5
98	98	4
59	60	2
57	57	3
81	81	6
182	183	9
183	183	4
124	124	8
5	15	2
57	61	4
64	65	1
62	62	5
117	117	1
107	107	7
115	117	10
101	101	5
83	94	5
77	83	2
96	96	5
79	79	4
63	63	4
115	116	2
118	190	3
39	39	12
90	90	7
157	158	6
130	130	2
161	161	3
37	37	9
82	94	2
24	25	3
140	159	4
100	101	2
72	72	3
17	37	3
32	33	3
177	178	1
60	60	11
160	160	9
59	59	2
120	120	6
121	121	13
102	103	2
161	162	3
185	189	1
162	162	10
149	149	3
147	150	6
1	103	2
78	82	3
77	95	9
131	156	3
185	185	2
80	117	2
42	42	3
166	166	8
173	174	2
173	173	6
132	141	4
24	24	1
188	188	8
146	146	9
45	45	7
133	141	2
163	174	2
174	174	7
98	106	3
27	27	5
156	156	7
123	147	4
55	105	5
56	89	1
153	153	2
113	113	5
59	93	1
70	71	6
71	73	1
27	28	1
35	35	6
85	88	2
159	160	4
109	109	3
154	185	2
82	82	5
103	112	1
43	43	3
172	172	7
153	185	2
187	187	7
169	170	4
172	173	7
72	75	2
154	154	2
102	102	3
84	153	1
186	186	5
106	106	3
24	31	1
152	152	3
132	132	4
134	134	2
12	12	3
145	145	4
171	172	1
36	36	5
95	107	1
139	139	7
180	180	3
178	181	2
13	32	2
31	45	1
119	119	2
119	148	3
23	24	3
90	91	1
112	112	3
37	38	1
147	190	2
120	123	1
165	174	3
136	136	1
14	15	1
179	180	4
103	103	1
187	189	1
77	82	1
48	48	4
27	30	2
130	134	1
98	127	3
90	92	5
115	115	2
160	162	3
128	128	6
71	72	2
107	108	2
8	8	1
44	44	3
176	176	3
98	99	5
10	10	2
182	184	3
116	116	1
108	108	2
139	149	4
74	75	1
40	41	4
25	25	4
127	137	2
169	169	1
176	177	3
13	15	2
114	115	4
66	66	4
43	45	2
5	16	4
138	186	1
21	22	2
84	85	2
33	33	3
5	33	5
26	43	1
95	106	2
11	12	1
61	73	1
36	44	5
78	79	2
181	181	1
96	98	3
65	68	1
53	54	2
67	67	5
47	102	2
10	11	2
185	187	4
65	65	2
55	55	3
166	168	3
76	76	4
118	121	1
20	20	2
67	68	3
56	56	4
162	165	2
24	30	2
6	6	3
54	54	2
145	148	1
80	80	3
74	79	1
147	147	5
100	100	1
36	37	2
120	147	1
76	150	1
28	28	3
80	82	1
118	120	1
125	125	2
140	170	1
130	154	1
133	133	2
26	30	2
37	44	1
3	6	2
77	77	4
110	114	1
87	87	1
120	122	1
17	18	3
174	175	1
115	151	3
135	135	3
109	114	2
30	30	2
97	98	1
0	15	1
138	138	1
89	89	1
124	166	1
32	45	2
141	145	2
41	41	4
78	107	1
95	95	4
89	90	2
168	168	1
69	69	3
4	41	1
5	32	3
72	73	4
2	2	3
17	53	1
23	23	4
80	150	1
163	172	1
110	110	1
142	155	1
72	135	1
167	181	2
32	32	2
119	120	2
93	94	1
70	70	2
117	122	3
168	179	3
99	100	3
128	152	2
155	155	3
169	174	2
131	132	1
159	159	1
56	96	1
25	26	3
163	164	1
16	16	2
57	58	1
158	158	1
134	135	2
184	185	1
132	142	1
180	188	1
123	125	3
110	113	3
79	150	4
108	109	1
62	63	2
126	126	1
22	45	2
87	88	1
91	91	3
75	76	2
131	134	2
162	170	1
129	129	1
61	78	1
118	118	1
47	47	2
81	82	1
182	182	3
29	30	1
159	171	2
161	167	1
141	160	1
73	73	1
22	46	1
164	164	2
154	156	1
118	122	1
22	22	1
38	38	1
104	104	1
71	130	1
148	148	1
36	45	1
91	94	1
175	175	1
78	78	1
