103	103	5
15	15	9
23	23	5
126	126	2
78	78	8
31	31	9
19	22	2
131	131	8
44	74	1
68	68	4
62	62	2
72	72	4
35	35	9
21	22	3
57	58	2
127	134	1
61	61	4
123	123	3
81	81	6
80	80	3
8	8	5
109	111	2
44	44	5
131	132	5
122	122	4
6	19	2
127	131	5
65	65	14
123	132	5
95	95	4
128	128	4
124	125	6
43	61	1
130	130	6
56	56	11
108	130	3
83	84	5
112	129	2
112	112	11
45	45	10
106	106	6
47	47	6
57	81	3
85	85	3
25	41	1
29	29	6
107	107	2
7	28	6
96	99	5
83	83	6
59	71	3
21	21	6
127	127	2
101	101	5
6	38	5
133	133	4
121	134	5
69	70	1
63	63	1
97	97	2
32	32	7
36	36	2
111	122	3
122	123	5
99	100	4
12	13	3
82	82	2
121	130	4
99	99	9
77	77	4
58	92	1
115	115	6
10	10	10
70	94	3
40	40	5
125	126	5
1	46	4
87	93	1
70	70	5
57	59	6
127	133	4
34	34	3
61	64	3
43	43	3
82	87	4
107	128	2
84	124	1
63	69	2
31	43	3
17	17	7
0	0	5
54	55	1
62	98	3
94	94	1
31	50	2
121	121	1
58	58	2
87	87	2
125	125	3
132	132	6
106	107	3
108	111	1
5	35	4
73	73	3
79	79	4
57	57	9
74	74	5
5	5	1
46	46	3
11	29	3
64	64	3
100	125	3
108	108	8
68	72	4
124	124	3
117	120	2
4	35	4
45	46	3
91	91	2
0	1	1
59	60	2
6	6	3
19	33	1
83	86	1
96	96	1
127	130	3
65	102	2
109	134	2
108	118	2
67	76	1
129	129	1
40	104	2
28	42	2
109	110	1
20	21	5
86	86	4
76	76	7
115	125	4
60	60	6
40	41	3
97	99	2
59	105	1
41	41	3
105	105	2
5	6	3
69	69	2
99	115	2
9	9	1
101	106	2
117	118	6
4	4	3
11	11	10
110	112	3
88	100	5
59	108	1
110	127	2
114	119	2
47	76	1
124	126	1
38	38	2
88	105	1
59	59	1
26	31	2
45	85	1
97	126	1
120	120	3
16	85	1
89	92	2
66	66	2
76	77	2
22	25	1
25	64	3
94	99	1
49	49	1
25	30	1
13	13	3
14	56	1
116	116	1
39	39	2
109	121	1
1	1	3
101	107	2
34	37	1
41	42	2
113	115	1
21	33	4
74	75	2
110	132	2
113	114	1
7	7	2
109	109	4
100	132	1
84	84	1
122	131	3
3	9	1
97	123	1
75	75	1
30	59	1
113	113	2
21	34	1
122	134	1
42	42	4
100	100	1
116	117	1
28	39	2
128	134	2
118	118	2
12	12	6
5	39	2
2	2	2
33	33	1
22	22	1
117	117	4
27	41	2
24	24	1
3	3	1
68	79	3
121	133	1
11	13	2
117	123	2
134	134	4
67	70	1
55	55	1
115	116	1
28	28	3
97	124	1
44	46	1
39	55	1
59	72	1
35	36	2
44	45	1
98	98	1
82	83	1
90	90	2
15	46	1
25	44	1
39	40	1
120	126	1
81	88	2
23	25	1
90	91	1
20	34	1
60	103	1
118	120	1
89	104	1
9	10	1
13	29	1
26	26	1
