33	34	3
67	70	1
41	41	11
76	76	10
29	29	7
24	24	11
72	72	19
56	56	7
61	61	11
65	89	2
80	80	11
99	99	13
28	28	3
31	31	9
30	47	1
66	66	10
65	65	27
53	53	6
63	63	11
87	87	21
61	71	3
66	69	2
71	89	2
45	45	4
68	79	1
38	52	3
36	53	3
86	86	18
50	50	7
34	47	1
93	93	10
41	78	4
68	68	14
91	91	5
75	76	6
47	47	5
32	53	1
84	88	2
83	83	8
39	39	10
88	89	5
27	48	16
31	51	3
65	72	3
31	47	1
25	25	6
79	80	5
47	88	3
35	35	17
81	81	13
51	66	4
44	44	9
61	70	1
82	82	8
37	80	8
46	58	2
89	90	3
77	101	2
84	84	5
78	79	6
90	90	8
89	92	5
54	54	5
97	100	6
75	75	13
54	56	1
61	88	3
86	88	6
84	94	4
70	75	3
59	79	1
34	34	8
53	55	3
30	30	3
96	97	5
81	82	7
88	88	25
59	59	12
23	29	2
58	58	11
55	55	1
26	26	10
98	99	3
101	102	1
31	55	1
38	38	6
37	37	5
27	28	2
44	45	1
42	42	9
66	67	7
94	95	4
49	49	4
70	71	15
27	27	10
65	66	5
48	48	7
64	64	12
62	64	3
62	83	1
36	36	2
50	51	10
73	73	6
49	50	8
67	67	12
46	46	5
98	100	5
80	82	3
38	58	3
94	94	7
98	98	8
49	71	3
32	32	5
101	101	7
52	52	5
32	33	5
92	97	2
22	31	3
89	89	11
86	101	2
25	47	2
33	33	5
88	99	2
85	85	14
84	85	6
69	80	4
36	45	1
73	75	4
40	40	18
62	62	5
79	81	2
86	87	7
76	77	5
81	83	1
59	60	4
74	74	16
65	71	2
71	76	3
25	34	5
76	79	8
59	81	2
67	75	5
95	97	3
27	33	1
28	44	4
55	66	4
78	78	6
82	84	2
42	48	2
26	49	1
79	79	4
34	50	3
77	77	14
70	70	9
74	75	3
72	73	6
72	95	1
46	47	3
25	35	1
66	72	1
40	53	3
85	86	14
96	96	6
90	91	2
45	49	3
53	56	3
69	69	12
59	75	2
81	84	1
68	71	2
73	77	4
66	68	3
91	95	4
66	83	2
95	98	1
36	40	1
69	70	1
97	97	3
46	61	3
93	100	1
77	96	2
43	43	2
99	100	3
81	89	3
31	90	2
71	72	5
35	53	5
59	62	1
73	76	1
100	100	2
62	67	1
62	63	4
71	75	1
92	94	2
60	60	3
84	87	5
72	81	1
20	22	1
67	68	12
25	26	3
80	81	10
36	56	3
26	29	2
63	64	1
22	22	2
40	41	2
71	71	11
65	70	1
45	57	9
63	89	2
27	29	1
73	89	3
36	37	3
91	93	2
61	62	5
34	52	2
55	71	5
65	76	3
93	95	1
45	64	2
35	68	1
86	100	5
38	59	2
49	65	1
48	68	4
64	68	2
83	84	4
31	33	1
50	71	1
49	55	1
25	28	3
27	49	2
26	31	2
87	89	1
35	64	1
22	23	1
49	60	2
57	81	1
68	69	3
57	57	2
51	60	2
51	67	1
94	96	1
42	60	1
57	74	3
54	57	2
49	62	1
68	70	1
55	56	2
50	70	3
45	46	1
53	64	1
66	93	1
37	58	1
60	63	2
58	59	2
24	27	1
32	35	1
97	101	1
44	46	2
80	83	1
64	83	1
60	71	1
43	74	2
20	20	1
77	78	1
61	63	2
51	51	1
43	46	1
66	71	1
50	52	1
75	101	1
76	99	1
56	57	1
24	25	2
55	70	1
58	71	1
27	51	1
64	65	1
76	84	1
41	60	2
35	40	1
52	58	1
51	55	1
53	60	1
29	33	1
39	53	1
51	58	1
68	77	1
68	73	1
35	54	1
90	93	1
48	90	1
48	85	1
62	65	1
54	55	1
67	69	1
36	39	1
41	69	1
87	88	1
