98	98	2
174	181	3
233	233	5
214	214	2
158	159	2
77	78	14
179	179	1
157	157	7
147	147	2
123	123	2
220	220	4
218	220	3
73	73	7
64	64	3
55	55	2
227	227	1
102	102	14
0	0	7
203	204	1
105	105	12
208	208	7
210	210	8
70	70	6
63	63	7
35	35	4
169	169	12
139	141	7
180	181	15
216	220	5
82	82	3
79	79	6
151	152	3
110	110	4
167	168	1
9	9	4
118	118	9
84	84	5
37	37	4
3	3	4
153	155	1
135	135	9
1	159	1
211	211	14
215	215	8
187	188	5
239	240	3
153	153	10
160	160	1
149	149	11
142	142	4
141	142	2
33	36	2
229	229	6
66	66	3
138	138	12
24	25	9
221	221	15
15	15	4
108	108	9
120	120	3
96	96	4
57	57	3
211	213	2
154	154	5
130	130	3
178	178	6
69	131	2
56	57	2
111	111	4
83	84	8
100	100	10
27	27	7
183	183	4
32	32	5
209	209	1
216	216	5
148	148	11
166	169	4
79	88	5
242	242	8
104	104	4
53	54	3
80	81	6
124	125	1
182	182	2
76	80	2
31	32	1
40	40	3
224	224	2
127	127	10
44	45	11
177	177	3
236	238	3
75	75	1
139	139	8
22	29	4
222	222	4
155	155	9
67	67	6
187	187	10
53	53	10
185	185	1
162	162	7
49	50	4
18	18	11
86	86	8
213	213	4
72	106	4
71	71	2
140	140	5
122	122	2
116	116	7
193	193	4
5	7	4
45	45	2
26	64	6
28	28	6
68	68	7
240	240	5
199	199	3
14	14	2
225	225	4
46	46	6
101	102	4
158	158	6
66	67	3
125	126	2
34	34	6
56	56	4
190	190	5
220	221	2
146	146	2
150	150	5
170	171	2
48	49	8
51	51	1
85	85	11
43	44	3
49	49	2
12	12	4
103	104	3
180	180	7
11	134	4
230	231	6
81	83	3
205	207	1
195	196	1
151	151	2
101	101	4
175	175	2
58	58	6
238	238	7
33	33	3
234	235	1
164	164	3
95	96	1
144	144	3
168	168	3
184	184	2
205	206	1
70	136	3
81	81	2
149	150	1
128	128	8
231	231	4
205	205	1
212	212	3
235	235	6
217	219	1
71	105	1
2	2	2
7	8	3
46	47	1
4	9	2
70	117	1
78	78	12
54	54	8
101	104	2
186	186	3
48	48	4
21	21	4
182	183	1
31	31	3
163	163	4
84	85	1
52	52	7
65	65	3
7	7	2
192	192	7
61	106	1
143	143	2
16	16	3
131	131	1
142	143	2
130	131	1
80	80	7
143	144	2
232	232	4
215	216	1
23	23	2
61	61	4
226	226	3
72	73	2
206	206	1
124	124	1
0	13	1
48	50	2
41	41	5
194	194	4
237	237	1
174	177	1
188	188	3
174	174	4
200	200	2
199	226	4
50	64	2
1	164	3
26	26	3
113	126	1
47	72	1
49	55	2
234	234	5
22	22	1
4	12	1
170	170	3
63	68	2
39	39	6
172	172	5
26	50	5
7	9	1
226	227	4
72	72	2
108	109	3
133	133	9
194	198	1
17	17	2
73	95	1
25	65	2
31	82	2
126	126	3
113	113	3
119	120	2
97	97	3
85	86	3
36	36	3
106	108	4
210	211	1
26	27	5
220	222	4
177	178	2
188	197	1
22	53	4
4	4	1
241	241	5
183	186	6
129	129	5
2	157	3
131	132	2
107	109	3
88	88	2
230	230	3
173	173	1
14	136	2
62	62	4
178	179	2
121	122	2
45	103	2
52	53	1
121	121	3
138	139	5
195	197	1
99	99	1
137	138	3
122	124	3
20	20	3
114	114	3
42	43	2
133	134	2
219	219	1
176	176	5
206	208	3
134	134	3
9	169	1
118	119	4
191	202	1
155	157	2
201	219	1
1	1	1
228	230	2
69	69	4
17	18	1
154	155	1
124	126	2
104	105	4
209	213	1
60	60	6
61	73	3
25	25	2
214	221	5
218	218	5
165	171	2
25	67	1
6	6	3
49	54	2
78	79	1
107	110	1
152	152	2
137	137	1
29	29	1
76	76	2
235	236	4
67	68	2
5	5	3
11	11	5
43	43	1
112	112	1
54	74	2
4	5	1
122	126	2
136	136	3
60	85	1
106	106	3
18	19	2
223	224	2
222	223	1
83	83	3
207	208	2
10	10	2
40	41	1
29	30	3
211	212	1
23	24	2
14	15	1
3	136	2
193	197	3
42	42	1
210	213	1
200	201	1
119	119	2
30	30	2
30	32	2
116	117	1
71	98	1
95	95	2
236	236	1
223	223	2
71	99	1
34	36	1
200	209	1
163	165	3
6	165	1
25	63	1
82	83	2
228	229	2
55	56	1
51	55	1
50	55	2
169	170	1
224	229	1
109	110	1
102	104	2
185	187	3
19	20	1
15	138	1
209	210	1
88	89	1
13	17	1
144	147	1
149	152	1
167	167	1
24	24	1
155	156	2
15	16	2
185	188	1
61	62	1
19	19	1
226	230	1
136	137	1
5	6	1
115	115	1
161	161	1
12	13	1
181	181	1
74	75	1
199	225	1
107	107	1
92	92	1
57	60	1
232	233	1
191	191	2
58	59	1
216	217	1
53	85	1
96	105	1
144	145	1
