82	82	4
83	83	8
77	77	10
54	55	1
88	100	2
44	45	3
43	43	11
88	88	15
58	58	11
92	92	12
31	31	8
72	72	25
62	86	2
48	48	5
67	68	3
87	87	6
62	63	5
71	73	2
86	86	2
89	89	12
79	93	1
69	80	4
75	75	22
64	64	23
60	99	5
38	39	4
30	30	4
68	68	7
29	29	3
50	50	10
88	101	3
69	69	9
67	67	35
91	92	3
22	28	1
51	69	3
91	93	2
24	46	3
64	66	4
91	91	6
63	63	6
39	89	1
62	93	5
65	65	46
28	46	3
61	61	25
96	96	8
49	49	7
80	80	7
81	81	13
61	88	2
66	67	6
60	60	13
39	87	4
58	59	9
98	98	5
27	48	2
90	102	2
80	99	1
73	73	14
76	76	8
23	46	2
60	61	8
87	88	4
78	78	13
25	25	5
70	73	5
63	64	8
33	33	5
94	100	1
70	71	7
80	83	2
65	66	2
53	53	1
57	57	4
38	38	2
41	41	12
45	45	5
70	70	6
35	37	3
24	24	2
56	56	4
92	93	2
68	69	2
71	71	19
83	84	2
52	60	6
42	74	5
53	69	1
93	93	8
79	96	2
69	73	2
52	53	6
63	66	3
55	62	1
87	102	3
53	57	4
34	37	3
94	101	5
20	20	6
66	66	11
64	65	2
82	83	1
42	42	9
88	89	2
71	72	7
44	44	7
69	70	2
40	40	8
25	47	2
54	54	5
68	87	2
81	98	3
37	37	3
86	90	1
42	43	5
76	78	2
85	86	2
78	79	1
99	100	1
62	62	5
61	87	4
87	100	5
35	73	1
30	31	1
74	74	6
76	77	11
23	28	2
41	74	1
51	58	1
96	97	4
92	98	1
63	89	2
62	87	2
81	82	1
48	54	2
95	95	2
74	75	8
99	99	8
80	81	4
53	54	1
36	101	2
26	26	5
39	39	2
55	55	2
79	79	6
26	27	4
75	81	2
53	60	1
55	56	5
70	79	2
59	59	4
91	100	2
52	52	6
62	71	3
55	58	1
32	46	1
24	84	1
22	47	1
57	68	2
45	46	1
41	73	3
63	69	1
52	55	2
61	70	3
86	88	3
94	94	4
93	94	2
62	64	1
69	74	1
26	48	1
86	87	3
22	27	3
56	57	1
40	41	2
63	85	1
48	70	1
34	34	1
97	99	1
36	37	1
35	40	1
32	32	1
75	76	1
48	49	1
100	100	1
102	102	1
70	77	1
35	41	1
95	98	1
55	60	1
34	38	1
62	69	1
93	100	1
74	77	2
41	42	1
46	46	1
26	30	1
62	80	1
83	90	1
38	87	1
21	24	1
84	85	1
62	88	1
84	95	1
71	78	1
53	55	1
23	73	1
84	98	1
25	52	1
88	102	1
