93	93	8
92	92	15
71	71	17
133	133	10
15	15	14
37	37	10
11	55	3
113	142	3
122	122	12
2	2	9
159	159	10
93	123	2
38	45	3
155	155	12
157	158	5
11	28	1
96	96	5
105	105	16
26	27	8
118	118	17
86	87	1
83	83	5
11	11	14
121	121	12
38	38	21
154	155	6
33	34	3
34	35	9
135	137	3
62	63	3
13	14	3
52	52	15
163	163	10
165	165	11
73	73	6
68	68	14
151	151	17
122	123	8
151	155	1
69	69	16
141	141	14
88	88	14
74	74	14
100	100	18
163	164	2
100	117	3
16	17	11
0	11	6
49	51	2
100	121	6
113	113	25
10	10	17
151	152	4
131	131	11
48	48	6
125	125	10
13	28	3
15	17	2
137	137	15
1	65	4
157	157	16
132	133	4
0	73	1
150	150	17
54	54	17
26	26	18
18	25	1
134	156	1
18	18	5
168	168	12
108	108	15
0	72	1
64	98	5
1	64	1
79	79	19
110	110	21
162	162	9
0	0	11
8	9	4
139	139	7
148	148	13
70	70	14
88	89	5
151	159	2
149	149	24
62	62	1
138	138	16
36	36	24
34	34	7
170	170	8
140	140	17
27	27	8
89	89	14
126	126	10
42	42	15
126	127	5
144	144	18
136	136	20
43	43	15
93	100	1
9	9	6
130	130	13
54	55	5
64	64	5
6	6	8
8	8	4
167	167	10
111	112	3
84	84	3
132	156	6
56	56	15
101	101	9
95	96	3
69	70	17
91	91	10
78	87	3
69	75	2
63	85	2
145	145	16
24	26	1
127	127	8
101	129	3
146	146	11
143	144	8
150	151	4
20	20	13
95	95	2
125	126	8
53	55	4
33	43	1
51	51	4
54	56	4
45	45	13
66	66	12
138	139	2
13	26	1
135	135	16
107	109	2
109	110	1
49	49	5
112	112	11
65	78	2
44	44	13
35	35	14
53	54	8
109	109	14
79	91	2
24	25	4
160	160	7
65	65	5
23	23	9
102	121	2
24	24	6
152	152	16
132	132	8
15	37	2
168	169	7
42	43	1
90	124	4
68	70	2
24	153	2
21	21	11
8	10	3
102	102	9
47	48	3
129	129	8
132	151	1
169	169	6
115	116	3
161	162	1
20	24	1
89	90	3
124	124	15
106	106	17
64	97	6
39	47	2
99	99	17
102	103	2
154	154	16
136	137	5
147	147	5
81	83	6
133	135	2
40	40	3
47	56	3
156	156	7
117	119	3
38	41	5
164	166	3
91	92	4
22	22	14
107	107	16
142	142	4
6	7	7
162	165	4
106	110	5
120	121	1
72	72	5
33	33	7
97	97	7
133	147	4
164	164	11
46	46	4
40	46	1
76	76	28
1	1	9
36	37	2
19	19	7
111	111	4
82	87	2
116	116	9
1	24	3
135	151	3
133	134	1
38	39	5
77	121	4
76	99	2
4	4	30
90	100	7
147	149	1
103	103	13
11	24	2
135	136	5
64	66	2
123	123	7
85	87	4
120	120	2
77	78	2
140	143	2
3	3	14
153	153	5
120	122	2
108	109	6
18	19	2
35	36	3
78	79	3
65	66	4
79	80	3
158	158	4
93	96	1
47	49	2
57	57	6
41	41	12
13	27	2
127	130	6
124	125	6
126	135	1
125	137	2
96	116	3
5	5	1
76	100	4
90	90	15
50	50	2
94	94	12
55	55	5
14	14	6
72	73	3
118	123	4
36	43	3
148	151	5
117	118	10
9	165	7
52	55	3
104	124	2
104	104	10
81	81	4
49	52	2
44	45	7
75	75	4
0	1	10
18	33	4
111	119	2
39	52	2
99	112	3
128	128	10
162	163	13
46	48	1
37	42	2
94	105	5
87	88	9
152	165	3
44	51	1
145	146	5
152	154	2
101	102	5
80	81	3
119	120	1
105	106	3
63	75	2
166	166	16
143	143	11
128	129	1
134	154	5
92	93	7
16	57	1
93	95	2
83	84	5
12	56	3
17	17	6
63	73	2
82	86	3
7	7	4
77	80	2
53	53	12
69	71	1
118	119	5
11	56	2
149	163	1
91	136	1
119	119	4
63	98	2
97	99	3
67	67	9
125	127	2
139	140	2
142	143	5
102	128	2
154	159	2
153	154	2
77	92	1
155	156	3
63	119	1
147	165	3
161	161	1
73	77	1
20	25	2
98	113	2
47	47	6
39	39	4
140	141	4
10	11	1
73	74	5
112	114	1
114	114	11
45	46	1
12	28	3
159	163	3
84	85	2
134	144	2
63	63	5
48	54	7
12	12	3
135	158	1
159	167	4
35	42	1
0	8	2
97	98	2
114	115	1
98	99	1
70	71	1
168	170	1
155	170	4
91	107	1
112	113	2
63	77	1
87	87	1
50	51	3
1	8	2
57	58	1
37	39	1
51	52	4
4	5	5
116	118	1
39	41	2
43	44	3
14	15	1
100	101	4
96	104	1
69	72	3
129	130	6
147	148	2
2	3	2
112	138	2
5	6	4
78	78	1
94	95	1
77	77	2
148	164	1
86	89	3
98	111	3
16	16	3
102	129	1
107	108	2
22	23	1
114	116	1
69	81	1
37	44	2
81	85	1
100	128	1
57	62	1
100	105	1
104	105	1
13	13	4
82	82	1
156	157	3
3	10	1
155	157	1
56	57	2
76	77	2
104	141	1
131	132	1
86	86	2
130	131	2
46	47	2
99	116	2
146	168	2
85	86	1
52	53	1
101	106	1
100	103	1
47	50	1
167	168	1
50	52	1
68	81	1
46	50	1
88	90	2
144	146	1
2	7	1
134	136	1
42	45	1
115	115	1
80	80	1
90	110	1
117	117	4
164	165	1
103	104	3
25	27	2
134	134	2
13	56	2
116	117	2
126	157	1
98	98	1
124	127	1
151	153	2
61	61	1
121	122	1
126	128	1
85	93	2
138	143	1
64	121	1
65	120	1
105	158	1
5	8	1
155	160	2
106	107	1
150	163	2
90	122	2
104	121	2
91	124	1
141	142	1
76	94	1
76	84	2
78	80	2
129	134	1
84	90	1
28	28	2
67	68	1
15	16	1
161	165	1
79	92	1
0	119	1
126	158	1
165	166	1
75	76	1
76	110	1
68	113	1
