40	40	19
49	49	24
97	98	1
116	116	20
220	221	3
202	203	4
30	30	3
202	202	15
226	227	11
11	11	4
2	4	5
2	2	16
80	80	8
156	157	9
19	19	9
122	122	13
86	86	11
62	62	13
7	73	1
190	191	2
209	209	5
234	234	15
106	106	8
49	50	12
227	227	24
205	206	3
181	181	9
176	176	18
88	88	3
179	179	22
58	58	12
236	236	16
78	128	1
207	207	8
73	74	2
65	65	9
217	218	6
79	79	1
216	220	3
153	153	7
237	237	11
167	167	11
206	207	8
35	35	9
42	42	6
190	190	7
82	82	10
29	30	7
51	55	3
44	46	4
212	213	4
223	223	12
212	212	15
124	124	11
56	56	14
169	169	18
110	110	13
135	135	6
16	74	3
88	89	3
29	29	11
203	204	5
197	197	10
108	108	12
103	104	5
81	81	10
142	142	5
216	216	5
25	25	11
141	141	12
189	190	6
174	174	16
6	6	6
10	11	9
203	203	17
155	155	11
128	128	18
146	146	11
72	80	2
119	120	5
104	105	5
144	144	10
85	85	11
231	231	4
24	24	9
28	29	7
208	222	1
173	183	2
103	103	1
211	211	12
233	233	13
144	145	3
23	23	26
129	129	18
44	45	9
8	42	1
83	83	22
30	31	3
9	9	8
136	136	6
57	58	5
147	150	2
160	160	7
26	26	19
166	173	6
236	237	3
53	53	12
10	10	11
35	44	4
177	177	7
195	196	4
210	223	1
118	118	4
222	222	6
48	48	8
205	205	11
114	127	1
70	71	4
21	21	10
199	199	11
128	129	3
235	235	7
127	127	14
17	17	12
59	59	7
183	183	9
12	12	20
201	201	7
3	74	3
3	3	16
194	195	9
112	113	4
198	198	8
121	121	13
182	182	5
123	123	14
143	143	17
130	130	2
204	204	8
71	71	8
2	3	4
95	96	5
126	126	30
162	173	2
162	163	11
37	38	2
21	22	6
224	224	13
16	16	5
46	47	3
196	196	3
118	123	1
239	239	10
168	168	6
40	41	12
197	212	6
2	9	4
50	52	1
175	175	11
33	40	2
8	41	1
192	192	8
166	200	1
79	80	2
153	155	5
154	160	2
61	202	3
169	170	11
39	40	1
208	208	10
33	33	14
32	32	10
165	165	6
20	20	11
171	185	4
210	211	10
153	160	4
24	25	11
77	77	11
113	116	1
63	63	12
45	45	13
57	68	2
50	50	8
13	13	10
185	185	9
163	165	5
4	4	11
139	140	3
105	163	1
210	212	3
168	201	4
105	105	11
144	146	4
174	176	1
156	156	10
2	6	3
98	98	6
200	200	6
55	55	10
21	81	4
106	107	3
111	111	7
119	119	11
223	224	3
5	5	8
188	190	3
180	181	5
99	99	6
74	74	17
120	123	5
163	164	2
189	189	9
64	67	1
140	150	1
34	34	14
115	116	2
159	159	12
112	120	1
139	156	2
167	191	1
114	114	8
41	41	16
51	51	6
230	230	20
153	158	4
101	101	15
150	150	8
22	22	23
233	235	4
137	140	1
239	241	1
202	212	6
109	109	2
239	240	7
65	131	5
115	115	9
188	188	8
84	84	15
68	68	4
129	146	3
163	170	1
27	28	3
125	125	15
153	167	1
84	85	11
138	139	3
191	191	9
201	203	5
102	102	9
75	76	2
23	75	1
221	221	7
61	61	4
219	219	23
21	24	2
139	139	9
196	215	7
129	130	7
220	220	13
232	232	14
188	189	7
80	117	2
156	158	5
31	238	2
45	46	6
1	1	3
112	123	8
234	235	3
230	231	1
228	229	6
170	176	3
9	10	5
52	52	15
166	169	4
7	7	20
152	161	2
47	234	5
2	5	1
43	44	1
136	137	4
12	13	4
240	240	13
12	16	3
215	215	12
237	238	2
221	222	7
18	34	3
55	205	1
47	219	3
12	23	1
54	55	3
0	0	10
215	216	5
205	211	2
31	31	19
7	8	4
156	169	6
214	214	8
27	27	3
98	102	1
109	155	3
38	38	20
151	152	6
225	226	2
14	15	3
46	46	11
177	178	7
182	183	5
31	32	4
37	37	10
228	228	8
97	97	6
163	163	4
114	119	1
111	177	2
164	165	4
212	214	1
151	151	9
210	210	8
168	169	1
178	181	2
153	163	2
3	5	4
57	57	3
225	225	9
154	156	7
179	218	1
50	55	1
113	113	14
157	157	8
75	75	17
64	64	6
171	171	4
195	195	4
127	128	3
13	17	3
235	236	7
107	158	1
35	36	2
67	67	13
49	174	1
96	96	7
5	41	3
158	159	7
179	180	1
208	217	3
55	57	5
229	230	4
58	59	2
154	154	14
36	52	2
69	69	8
168	199	1
162	162	4
120	120	10
116	118	5
186	186	8
134	139	4
154	157	3
241	241	8
117	117	9
14	14	7
242	242	11
119	124	2
155	156	4
218	219	7
43	135	1
213	213	9
164	164	9
220	222	2
55	56	3
1	12	1
19	21	3
166	166	15
43	43	6
217	217	7
176	177	2
44	44	9
167	199	2
174	175	1
180	180	5
169	177	3
140	140	5
158	158	13
169	182	2
211	212	1
16	24	4
193	193	7
126	127	5
109	136	1
59	69	3
238	238	4
76	76	9
53	79	3
183	185	1
33	34	6
102	118	1
192	241	1
115	184	1
45	171	1
8	8	9
229	229	11
35	78	1
161	180	2
170	171	7
35	52	1
118	162	2
147	147	9
102	117	1
167	192	1
47	63	3
0	1	6
142	143	4
121	122	3
159	160	5
102	103	3
126	192	3
236	238	2
15	16	3
6	8	1
134	134	6
136	146	1
192	194	5
197	198	4
180	205	4
128	130	3
166	167	6
14	17	1
83	84	5
198	201	3
35	215	1
201	212	1
129	131	5
189	205	1
100	100	9
117	118	3
72	73	2
126	185	2
17	19	2
134	136	1
166	171	1
43	60	1
95	95	1
79	84	2
12	14	3
104	104	4
107	107	9
129	132	2
145	145	7
18	19	4
185	186	5
161	165	1
165	166	2
193	194	6
139	152	2
72	72	6
47	49	5
213	215	1
53	130	1
184	184	4
60	60	4
54	200	5
139	157	2
224	225	6
149	149	5
207	231	1
192	195	4
44	236	2
154	193	1
35	37	1
134	135	7
36	36	12
170	170	10
214	215	8
190	205	3
43	46	1
59	66	3
135	150	2
38	47	1
219	235	1
38	46	2
38	202	2
124	125	1
34	37	1
15	15	7
142	193	4
114	232	2
26	31	3
32	33	2
155	198	2
7	29	1
185	187	2
54	171	1
178	178	8
137	137	2
190	197	1
189	191	2
128	135	3
120	121	4
187	187	6
173	173	1
209	211	1
5	6	2
78	79	1
135	136	2
63	64	6
169	189	1
17	18	3
70	70	9
9	70	3
218	218	3
226	226	7
39	65	1
161	161	7
175	177	1
23	24	1
28	31	6
48	61	3
175	178	2
196	197	4
4	59	3
199	201	1
46	217	2
238	239	2
34	35	4
33	50	5
154	155	2
231	232	2
138	157	2
78	78	7
114	116	1
115	117	4
50	51	4
205	220	1
59	60	3
39	39	3
26	27	4
212	222	1
170	197	1
194	194	5
99	151	3
43	52	3
225	230	2
118	127	1
35	66	3
47	47	8
118	119	2
152	153	2
157	158	3
172	172	5
237	239	1
54	61	5
172	173	6
110	160	1
66	68	2
1	18	1
24	32	1
60	66	1
131	131	5
160	161	1
0	237	1
77	78	2
127	133	1
89	97	3
139	150	2
240	241	2
9	54	1
145	147	4
226	229	1
165	167	2
25	38	2
36	46	1
24	238	5
97	229	1
133	133	4
13	14	10
175	176	2
199	200	3
171	201	2
148	148	9
30	74	3
66	66	4
56	57	5
39	41	1
133	134	6
16	17	3
95	103	1
128	134	2
153	161	1
138	138	6
147	148	5
169	174	1
60	61	3
28	28	6
81	83	1
83	85	3
149	150	4
119	152	4
16	20	3
29	127	2
85	86	3
183	184	1
109	161	2
181	182	3
54	54	3
145	146	4
173	174	2
29	54	3
10	29	1
103	106	1
136	143	1
24	75	1
73	73	7
64	65	1
1	9	1
161	163	4
196	200	2
49	150	1
120	131	3
187	188	1
123	124	2
82	83	6
136	157	1
167	168	6
40	141	1
148	149	2
178	180	2
215	223	2
33	236	1
169	205	3
232	239	1
220	226	2
202	219	2
61	62	2
198	206	2
217	233	2
209	210	6
210	229	1
180	182	1
197	211	1
31	104	1
221	231	3
37	222	1
33	49	1
139	142	1
160	163	2
169	173	1
51	227	1
0	16	1
221	226	2
2	223	2
38	203	3
220	224	2
140	141	2
74	75	1
112	112	2
32	144	1
230	232	1
203	205	2
52	216	1
11	53	2
191	201	2
114	115	1
139	148	1
128	146	1
8	72	1
143	147	1
213	214	2
219	220	2
112	180	2
206	206	4
42	129	1
152	152	2
141	146	1
47	48	2
81	82	2
117	119	2
199	212	1
20	21	1
153	154	2
163	166	1
111	229	1
219	223	1
58	65	1
233	234	1
150	151	2
29	109	3
10	69	1
25	26	1
241	242	1
44	141	3
203	208	2
66	67	1
56	69	4
133	141	2
17	25	1
67	68	1
47	62	1
222	223	1
18	24	1
103	118	1
54	56	2
173	189	1
171	184	1
98	99	2
8	10	1
63	205	1
125	127	1
64	136	4
53	54	3
135	137	1
136	140	2
192	193	1
105	106	3
12	15	1
137	138	3
76	77	1
208	223	1
146	148	1
230	236	1
38	43	1
20	30	1
53	62	1
42	43	1
4	6	4
80	81	3
39	42	1
210	215	1
97	101	1
186	198	1
154	171	1
15	17	1
209	223	1
209	229	1
198	199	1
52	74	3
204	236	1
51	52	1
122	123	2
77	132	1
39	148	2
176	179	1
11	21	2
171	196	1
106	162	1
48	160	1
165	196	1
168	176	1
81	86	1
201	202	1
156	188	1
183	202	1
123	127	1
89	89	1
172	181	1
101	119	1
235	237	2
147	149	1
32	40	1
16	73	1
191	192	1
138	147	1
158	160	1
215	220	1
18	35	1
162	166	1
147	178	1
49	73	1
0	43	1
99	100	2
211	216	1
19	44	1
100	101	1
45	151	1
150	178	1
3	85	1
81	84	1
16	36	1
170	200	1
19	45	1
155	163	1
3	6	1
46	49	1
38	39	1
166	175	1
232	233	1
18	18	1
82	85	1
53	74	1
64	69	1
203	207	1
154	168	1
109	110	1
192	196	1
