100	115	3
114	114	11
118	118	11
107	109	2
21	42	3
152	152	4
105	117	1
73	73	3
35	35	4
56	56	10
12	12	8
24	78	2
8	13	2
11	22	1
140	140	4
123	130	1
48	49	3
84	84	13
149	152	1
105	127	3
21	21	3
144	152	5
144	157	2
43	43	3
110	112	3
14	14	3
48	48	5
15	20	1
26	55	2
106	107	3
139	140	2
68	68	13
51	53	5
88	90	5
83	106	3
96	120	2
26	30	5
34	34	4
66	66	8
148	148	7
37	43	1
154	154	6
7	20	1
24	35	3
39	39	2
62	62	2
48	81	7
138	138	15
42	54	3
131	137	5
42	149	3
104	104	5
49	79	4
150	151	3
21	22	3
143	147	1
101	114	2
105	105	2
132	132	6
137	155	2
83	83	8
24	37	3
150	150	3
63	63	10
96	96	3
108	108	5
131	132	2
52	52	1
79	88	2
127	127	14
35	40	3
130	134	2
83	101	3
49	49	2
31	41	1
149	149	2
83	84	4
81	106	3
77	77	8
3	3	4
19	20	10
113	119	2
23	24	3
9	10	9
108	111	5
142	142	7
74	74	1
130	130	1
87	100	1
112	125	2
113	113	8
14	19	2
99	111	1
134	134	10
6	10	4
8	12	2
140	152	4
137	137	7
29	29	5
1	13	3
13	14	4
15	21	3
99	99	11
62	71	5
84	86	1
126	127	2
129	129	7
11	23	3
72	72	2
42	42	8
68	86	2
139	139	8
122	127	2
22	22	5
96	97	2
51	51	7
119	134	2
28	29	3
55	55	3
112	115	3
37	37	4
144	145	3
112	127	1
133	135	4
145	145	10
132	139	6
116	116	3
77	85	1
26	34	1
33	54	6
121	122	6
7	7	3
11	12	2
127	137	1
67	67	3
45	48	2
97	114	3
54	55	5
120	120	8
98	130	1
22	26	1
64	64	2
6	6	3
112	112	7
63	66	3
129	143	2
35	41	1
53	56	2
93	109	1
92	92	6
111	111	6
126	126	7
83	92	1
46	46	6
82	96	3
151	151	5
135	154	3
137	150	4
40	42	3
70	70	3
18	19	1
34	38	1
98	113	2
91	91	7
126	141	3
146	157	1
10	10	5
118	126	2
131	135	3
133	142	1
22	155	2
102	102	3
147	149	2
32	36	3
64	73	3
101	117	2
93	94	1
107	117	2
64	75	1
45	52	2
132	133	4
101	101	3
78	78	8
105	107	4
71	71	1
8	8	2
123	153	3
40	40	3
79	91	2
145	146	2
136	141	1
81	81	4
117	132	1
121	121	3
117	124	1
119	119	5
50	116	2
88	91	1
28	28	4
50	50	3
135	135	7
97	112	1
7	10	1
88	93	2
86	86	4
70	83	2
40	43	2
128	128	10
4	4	14
156	158	4
70	71	6
142	143	5
26	26	4
20	24	1
41	41	2
41	50	4
49	81	4
150	155	1
122	124	1
123	131	2
143	154	2
48	50	3
27	55	2
110	110	1
10	14	2
85	88	5
49	52	2
116	118	2
67	70	5
1	19	1
113	116	3
20	20	5
52	103	2
97	107	1
155	155	7
94	102	1
3	8	1
9	9	1
48	52	3
86	105	5
3	4	7
49	105	1
149	150	1
98	107	2
88	88	1
83	85	1
152	155	3
107	116	2
36	37	2
87	98	1
109	110	2
152	156	2
105	106	6
101	106	2
69	70	4
1	10	3
62	63	1
119	153	1
19	38	3
13	16	4
65	65	3
21	27	2
104	105	3
80	80	1
90	95	2
87	92	1
1	3	3
18	18	6
38	41	1
115	116	6
98	98	3
126	128	1
44	44	3
147	148	2
65	69	2
84	85	3
8	10	2
137	153	5
136	137	1
43	48	2
11	11	1
69	88	1
144	151	1
153	154	2
106	106	3
117	118	9
156	156	6
34	37	2
49	50	1
28	55	1
147	152	4
117	117	3
90	90	3
142	144	3
41	51	1
38	54	2
30	30	1
46	49	3
43	99	1
152	158	1
13	25	2
148	151	2
114	119	1
159	159	2
119	124	4
96	101	3
23	23	5
81	105	2
102	158	3
146	146	5
44	52	1
96	107	2
19	29	1
63	90	1
97	105	1
144	154	2
43	52	2
92	104	1
105	120	1
153	157	3
148	155	1
89	100	2
32	32	3
16	19	2
133	133	3
30	52	1
136	136	3
83	89	2
37	50	1
5	5	1
138	141	3
87	87	1
150	158	1
80	91	3
136	140	1
89	89	1
38	40	1
63	67	10
155	156	1
1	1	3
43	51	1
62	84	1
87	107	2
31	73	1
153	153	4
28	31	2
50	55	1
5	13	2
54	68	2
134	136	1
48	55	1
151	152	1
10	13	1
66	76	1
18	31	4
94	94	7
149	157	1
118	120	1
2	2	1
97	97	6
141	141	1
95	131	1
73	115	1
95	96	4
27	30	2
103	104	2
76	79	1
29	31	1
78	88	1
100	101	3
20	21	1
31	36	1
79	83	2
69	69	3
19	23	2
25	25	6
93	97	1
18	22	2
156	157	1
24	36	2
24	25	1
24	24	1
134	150	2
103	106	1
150	152	2
50	53	1
130	146	1
51	54	2
95	108	1
124	124	2
106	115	1
22	34	2
15	15	2
93	93	1
91	114	1
39	42	1
121	124	2
147	155	4
13	13	1
134	138	1
82	86	2
66	69	1
110	116	1
4	17	2
78	92	1
30	39	1
131	131	1
112	114	1
13	19	1
16	28	2
125	125	1
90	94	4
100	100	1
12	112	2
36	36	1
147	151	1
8	42	2
37	53	1
67	87	3
26	28	1
40	46	4
137	139	3
147	147	3
95	97	1
104	117	1
35	38	1
81	83	1
12	31	1
26	51	1
87	89	1
30	50	1
79	79	3
77	80	2
113	114	1
34	42	2
70	82	2
83	98	2
45	49	1
123	124	1
67	79	1
107	107	1
102	103	1
75	79	1
110	133	1
87	91	1
24	31	2
8	11	3
51	57	1
141	152	1
47	47	1
103	103	1
77	91	1
123	123	1
143	143	1
45	47	1
94	95	1
31	32	2
96	100	1
41	43	1
26	38	1
157	158	1
143	150	2
96	98	1
89	99	2
114	146	2
39	40	1
79	84	1
138	140	1
121	130	1
125	126	1
142	154	1
16	26	1
44	46	1
41	54	1
118	147	1
33	37	2
10	11	1
114	116	1
16	16	1
81	82	1
117	121	1
91	92	1
140	144	1
38	38	1
107	111	1
126	136	1
122	122	2
82	107	1
98	114	1
55	57	1
86	87	1
99	144	1
46	51	1
137	143	1
86	101	1
49	68	1
80	92	1
36	39	1
95	95	1
103	131	1
