35	36	4
140	140	13
67	67	4
31	31	2
130	130	2
138	138	5
177	177	7
9	11	4
89	89	3
5	5	5
146	146	8
109	109	3
10	10	4
52	71	3
34	36	3
59	60	5
43	43	7
179	179	1
74	74	10
52	54	1
119	119	5
17	17	3
118	118	3
107	108	5
92	92	1
18	18	2
86	86	6
128	128	4
35	35	4
133	134	5
153	153	5
159	160	1
62	62	2
160	163	5
160	161	4
166	166	2
121	121	10
158	158	4
174	174	4
23	24	3
111	114	1
59	61	5
102	102	3
19	19	3
124	125	2
66	66	4
93	93	4
145	145	1
28	30	1
134	171	2
7	7	3
34	34	5
164	167	7
39	39	2
155	156	5
157	158	1
180	180	2
161	161	4
4	12	2
32	32	3
18	23	1
16	22	3
29	33	1
152	156	2
52	52	2
92	93	1
107	107	13
87	107	3
28	28	10
140	167	2
5	6	1
15	15	1
144	145	4
16	17	1
40	40	2
137	137	3
94	115	1
12	12	4
33	33	4
37	37	5
37	43	1
149	149	4
16	16	5
13	13	2
132	132	3
164	164	4
159	159	5
104	105	1
173	174	3
77	77	4
4	10	3
54	54	6
150	150	3
58	58	3
154	154	2
105	105	3
58	63	4
87	87	3
139	139	1
14	14	6
0	1	2
55	56	1
91	91	3
151	151	6
42	42	2
51	51	2
172	172	2
176	176	6
59	63	3
22	32	1
73	87	1
96	98	1
122	122	4
148	148	1
45	45	3
101	101	1
9	33	1
34	37	1
34	35	3
71	83	3
133	133	5
100	100	1
116	118	1
15	16	4
25	26	2
75	84	3
83	109	2
1	3	2
96	97	1
169	169	4
147	147	1
45	57	2
36	36	1
126	126	1
27	54	3
53	53	3
18	20	1
142	143	2
136	136	3
12	33	5
153	168	1
142	142	3
103	105	4
38	38	1
167	170	2
78	87	1
26	26	3
162	162	2
91	103	3
176	177	1
171	171	1
89	90	1
79	92	1
90	90	1
128	130	3
2	2	1
88	89	4
168	168	1
79	106	1
61	61	3
0	0	1
17	66	1
41	42	1
11	13	2
74	77	1
73	73	1
20	20	7
163	163	1
54	73	1
140	156	1
139	174	1
175	176	1
41	41	3
1	1	1
129	129	1
101	169	1
173	173	1
55	55	1
64	64	2
106	106	1
2	4	1
101	147	1
26	30	2
123	125	1
141	141	1
93	108	3
175	175	1
174	175	2
99	100	2
136	150	1
128	131	2
18	43	1
98	98	2
157	157	2
109	110	1
142	145	1
139	145	1
23	35	2
170	170	1
59	62	1
29	29	1
96	96	1
27	27	2
91	107	1
89	107	1
39	40	1
82	82	1
90	93	2
83	83	1
101	151	1
8	9	1
84	84	1
151	153	1
8	8	2
148	151	1
88	88	1
