199	199	9
218	218	17
31	31	6
98	98	4
226	226	21
71	72	6
113	113	4
218	219	7
52	52	15
209	209	10
220	221	3
177	179	6
23	23	9
106	111	3
95	95	12
246	246	5
181	181	11
20	20	8
61	61	6
108	151	3
165	165	8
3	6	5
102	102	12
17	17	5
34	34	8
177	177	16
188	190	4
205	205	12
149	149	1
150	151	5
216	219	1
2	2	7
186	187	2
102	104	3
103	103	7
46	46	6
157	157	15
168	168	22
71	71	16
55	56	5
13	13	6
94	94	18
173	173	4
56	167	5
9	9	20
92	92	12
235	237	1
151	151	14
1	1	9
170	170	13
214	214	9
154	154	5
8	8	15
26	26	5
85	85	9
87	87	13
73	73	10
21	21	10
210	210	7
161	161	3
31	51	3
162	162	12
66	80	3
89	91	3
6	6	7
152	152	9
202	202	20
217	217	10
47	47	3
183	183	9
233	233	7
201	201	5
50	50	8
105	106	2
6	7	4
241	241	15
244	244	8
115	196	1
9	10	2
235	235	13
197	197	7
110	110	7
179	179	11
226	230	2
155	155	8
72	72	8
27	201	6
225	225	9
232	234	4
90	98	4
215	215	7
220	220	11
31	46	1
108	109	1
58	58	6
198	209	2
231	231	8
189	189	4
99	99	7
108	108	5
240	240	11
28	28	7
173	174	6
64	64	2
160	160	2
97	97	15
223	223	5
81	81	7
152	153	2
35	35	11
4	4	11
59	59	13
248	248	4
187	187	9
73	105	2
11	11	11
234	234	7
45	45	8
67	103	3
183	184	5
54	54	18
6	20	3
238	238	2
16	16	15
28	52	4
43	44	4
84	84	11
55	229	1
67	83	1
146	146	1
29	29	8
216	217	12
180	180	13
55	69	2
62	62	10
182	188	3
180	181	6
101	101	6
88	89	1
40	89	2
107	107	9
35	38	6
11	20	7
44	44	2
164	164	4
117	117	14
30	30	8
69	69	12
25	25	15
203	203	8
51	51	5
113	114	5
41	41	3
27	27	7
4	5	5
228	229	3
204	204	10
36	43	9
204	205	4
57	57	8
202	203	2
12	14	2
65	69	2
115	115	5
228	238	1
86	86	6
164	177	3
163	164	4
230	230	7
65	84	1
43	43	13
237	240	2
208	208	5
32	32	9
178	190	2
160	162	1
111	111	5
15	15	11
245	245	9
157	158	6
199	200	5
230	231	3
82	82	7
200	200	3
186	186	7
212	212	6
201	202	4
211	213	4
226	227	4
198	198	4
56	69	2
180	189	1
175	176	4
102	103	7
164	165	1
206	206	3
44	45	1
26	200	2
93	94	6
197	198	4
154	156	7
182	182	12
36	36	6
108	152	2
78	78	10
236	244	1
37	37	7
66	103	2
116	116	9
29	52	3
1	3	1
229	229	5
39	39	4
7	7	10
228	228	4
145	155	7
40	41	4
236	236	8
213	213	6
5	5	13
60	60	9
119	119	4
159	159	6
150	150	6
247	247	3
224	231	1
93	93	5
38	40	2
112	113	3
237	244	1
198	214	4
165	175	2
29	31	2
232	232	10
169	169	7
222	223	3
40	40	6
9	21	1
65	66	1
54	55	5
233	235	3
188	188	12
107	109	4
114	115	2
167	167	11
239	239	6
97	98	4
48	48	2
145	145	9
216	216	8
243	243	8
67	67	1
219	222	1
90	92	2
33	34	6
107	108	9
26	27	1
38	38	10
31	32	3
14	14	3
92	95	1
221	221	10
184	184	4
73	74	4
99	100	4
65	102	2
63	63	5
68	68	8
80	80	9
238	239	2
227	227	4
16	92	1
156	156	3
105	105	5
95	96	5
163	163	3
2	3	4
82	83	2
208	209	6
234	241	1
200	201	1
12	18	1
88	88	8
109	110	2
75	76	3
112	112	5
70	72	1
3	3	4
22	22	2
162	238	3
79	80	6
160	161	2
245	246	2
49	49	2
25	26	3
17	18	6
10	10	3
72	73	1
91	91	10
188	189	1
162	163	3
239	248	4
174	174	6
65	90	1
17	41	3
78	101	3
207	207	7
171	171	5
101	102	3
182	187	5
176	176	6
185	185	17
219	219	5
153	153	4
61	85	1
179	189	6
215	216	1
168	169	3
194	194	3
211	211	10
171	172	3
196	196	4
37	42	3
81	82	2
90	90	9
53	60	1
161	212	1
229	230	3
93	209	1
18	18	14
225	231	3
64	65	2
58	173	3
185	186	2
235	236	5
57	61	2
100	100	5
224	224	3
20	21	2
160	230	4
109	109	6
47	48	7
67	68	6
63	88	1
89	89	3
246	247	4
35	42	4
183	192	2
222	222	3
53	161	1
33	33	2
52	183	3
191	192	1
59	60	2
50	51	3
192	213	1
159	165	2
42	42	10
162	178	2
247	248	1
166	172	1
243	244	6
159	172	1
70	70	2
79	79	7
169	171	1
193	193	4
236	247	3
116	117	2
209	214	3
14	19	1
27	211	2
147	147	3
237	237	5
172	172	2
55	55	6
175	175	5
118	119	2
190	191	1
65	65	7
114	114	1
73	170	2
72	168	1
224	238	1
76	106	2
83	83	3
169	170	3
72	153	2
120	144	3
34	38	3
35	36	1
214	215	6
48	51	2
226	235	3
156	157	2
225	232	1
113	115	1
120	145	1
39	41	3
176	181	2
142	142	1
232	233	2
187	188	3
191	194	1
67	80	4
26	202	1
242	242	4
234	235	1
162	239	1
12	19	2
248	249	1
184	185	1
213	214	2
26	46	2
120	120	3
118	118	2
87	88	3
195	196	3
19	19	2
84	86	2
56	56	1
192	192	2
225	235	1
241	244	2
220	246	5
192	193	5
233	234	2
154	155	2
53	193	1
10	21	1
223	247	2
51	199	5
69	70	3
223	246	2
217	218	2
100	101	1
173	230	2
8	9	1
28	201	1
209	215	1
157	169	2
186	188	2
221	248	1
158	158	4
192	201	1
166	174	1
53	190	1
182	183	1
205	206	1
240	241	1
53	53	1
232	240	1
200	202	2
96	101	1
201	214	1
66	66	1
93	115	1
237	241	1
220	222	1
85	87	1
74	104	1
157	170	1
51	52	2
236	237	1
6	12	1
221	222	1
160	229	1
96	96	1
27	212	1
17	116	1
158	172	1
70	71	3
30	31	2
24	24	2
95	97	2
5	7	1
56	174	1
76	105	1
15	115	1
212	213	2
158	225	1
77	77	1
166	167	2
189	190	1
0	0	1
160	178	1
193	198	1
40	155	1
219	220	1
12	12	2
210	215	1
82	84	1
38	39	2
158	234	1
63	65	1
53	229	1
