5	5	15
22	23	7
122	122	19
69	69	20
85	86	9
15	19	3
29	30	11
78	79	6
26	26	16
50	50	3
77	125	2
84	86	2
3	3	6
1	1	14
124	124	14
82	83	9
59	59	30
76	76	10
15	15	20
87	88	9
4	4	11
23	23	10
128	128	23
98	98	32
77	77	26
80	80	24
132	132	9
100	100	11
43	43	22
70	71	13
47	47	25
121	121	25
43	76	1
74	122	3
83	84	4
91	93	2
48	57	3
38	38	12
89	90	2
66	66	13
15	16	11
103	123	1
65	66	6
2	2	10
32	32	7
65	65	14
38	39	1
118	119	10
12	13	8
63	75	2
73	73	9
95	95	11
97	97	5
41	41	19
40	41	6
56	99	4
6	7	8
10	10	9
113	113	15
70	70	19
35	36	23
79	79	22
96	96	14
62	62	22
74	74	18
82	82	7
120	120	9
104	105	16
21	21	25
19	19	23
56	56	7
11	11	18
105	106	5
58	59	7
92	92	15
90	91	4
37	37	10
107	110	5
17	17	23
128	129	14
12	12	15
22	24	13
92	93	7
51	51	1
9	9	14
81	81	10
81	82	10
107	107	22
9	11	2
93	93	12
7	7	13
130	130	23
28	28	11
131	131	26
90	90	14
61	61	10
87	87	12
100	106	2
56	57	4
25	26	3
121	122	12
1	16	2
108	109	7
18	18	22
116	117	8
123	123	20
58	58	16
34	34	19
132	134	1
105	105	24
112	113	7
84	85	12
27	27	20
64	74	6
117	125	2
43	93	1
43	44	11
68	68	28
14	14	7
110	110	11
16	48	3
26	27	17
6	6	4
20	21	10
40	42	6
63	64	5
80	81	2
0	0	12
117	117	12
8	94	2
108	108	27
111	111	21
79	80	4
77	78	4
46	46	25
101	122	1
125	125	19
106	107	5
71	71	3
126	126	13
84	84	14
33	36	3
11	46	1
4	5	10
133	133	12
82	84	2
57	59	4
72	73	11
112	112	12
24	25	3
125	128	2
24	24	6
85	85	16
62	64	7
27	94	5
41	42	7
105	107	2
78	104	1
5	38	1
8	8	10
124	125	7
114	123	1
55	55	15
23	27	3
114	116	3
22	22	12
115	115	15
19	94	3
127	127	11
83	83	5
103	103	24
64	64	18
84	122	6
123	124	7
118	118	18
14	15	6
74	75	8
9	10	5
98	115	1
57	57	7
117	118	2
83	124	4
72	72	24
31	31	10
1	11	1
82	124	3
29	29	14
23	24	5
12	14	1
119	119	24
116	116	16
108	123	3
96	98	1
91	98	3
40	40	14
49	56	2
18	19	4
63	63	12
45	45	10
1	17	2
127	131	6
12	16	5
120	121	4
89	89	9
44	45	14
30	95	1
91	92	5
44	44	23
42	78	2
78	78	16
5	7	1
9	94	4
109	109	23
54	54	4
16	35	2
33	33	10
133	134	3
129	129	20
56	97	4
101	101	6
58	61	1
92	102	2
106	106	9
95	96	3
44	77	3
7	25	1
32	33	9
83	103	2
93	118	1
35	35	20
11	71	4
14	44	2
130	132	2
64	66	5
49	49	3
15	49	2
107	111	5
20	20	9
21	57	2
11	70	2
19	82	1
114	114	15
10	11	5
131	133	1
75	75	15
94	94	18
102	102	9
109	111	5
59	81	4
92	99	4
134	134	12
114	115	11
99	99	12
91	114	1
48	62	3
78	80	7
57	58	9
93	120	4
0	1	8
73	107	3
77	122	1
86	86	16
9	61	2
25	27	1
13	70	4
113	114	6
107	122	4
39	39	6
126	127	4
129	130	10
61	104	1
92	103	1
24	69	5
132	133	5
118	120	3
91	91	18
2	3	7
46	47	4
79	103	4
63	74	1
19	43	3
106	124	3
42	42	9
101	102	7
36	37	4
9	19	2
6	32	2
61	62	1
104	104	17
62	63	2
8	95	3
79	81	1
12	45	2
36	44	1
8	9	6
1	32	1
130	133	2
14	20	4
126	131	5
14	48	2
101	106	2
19	83	2
35	43	1
60	60	10
107	123	3
45	71	1
47	48	2
99	100	6
32	39	3
119	120	6
14	19	5
16	17	3
16	18	7
36	38	4
125	130	3
7	24	7
48	48	6
68	69	6
9	14	1
24	26	2
19	84	2
7	26	4
4	25	1
36	36	6
6	42	2
93	99	1
124	134	1
2	33	2
109	110	8
42	43	2
82	125	1
3	4	6
13	20	1
111	112	2
125	126	2
59	64	2
5	20	2
98	99	1
39	41	3
30	30	6
112	134	3
13	13	2
16	34	1
30	31	1
101	103	3
88	88	9
9	20	2
14	55	7
122	123	2
16	16	12
45	63	2
115	127	2
115	124	3
67	67	10
47	60	1
22	25	3
1	8	1
75	76	2
10	13	4
2	9	1
60	61	1
1	2	1
11	12	2
106	123	3
5	36	2
114	122	1
13	94	1
45	64	2
110	111	2
7	27	2
123	125	1
28	29	2
30	96	2
99	115	1
1	3	2
101	104	1
100	126	1
83	86	3
2	32	1
77	85	3
96	97	3
39	40	10
80	103	4
15	44	2
102	121	4
31	40	1
13	14	3
116	118	5
29	94	1
115	116	3
97	98	2
114	132	1
48	49	2
6	9	1
2	5	1
127	132	1
14	94	2
6	86	3
107	108	2
55	104	1
57	133	4
106	112	2
87	104	4
92	98	1
71	72	6
48	61	2
126	130	1
106	113	1
116	120	3
66	68	2
25	25	3
56	133	1
34	94	1
84	92	1
25	91	2
76	78	3
131	132	3
65	74	2
49	50	2
99	101	1
85	87	1
27	29	2
21	22	4
99	127	1
55	56	1
18	39	1
123	126	2
76	77	4
20	23	1
20	22	2
31	95	1
120	122	1
125	132	1
102	103	2
15	17	2
34	36	1
4	28	3
103	104	3
83	87	1
63	119	1
5	6	2
126	128	2
112	132	1
47	57	1
75	77	1
124	133	1
73	74	2
5	15	1
34	35	1
93	97	1
79	104	1
73	75	5
46	57	1
17	47	1
21	47	1
97	115	1
2	8	1
59	61	1
79	87	1
74	119	2
101	107	1
116	123	2
29	32	2
64	75	1
62	118	1
113	115	1
44	46	1
36	43	1
101	116	1
11	13	1
23	25	1
84	104	1
61	63	2
111	114	1
47	61	2
51	56	1
86	87	1
90	108	1
17	60	2
127	128	1
50	80	1
99	102	1
37	39	1
54	56	1
116	132	1
69	70	1
19	20	1
67	68	1
100	101	2
116	119	1
90	109	1
101	110	1
82	130	1
78	116	2
33	34	1
45	47	1
62	98	1
47	62	1
38	81	1
76	84	1
