108	108	12
16	17	4
2	2	6
83	83	4
28	30	1
107	107	5
75	76	1
133	133	3
66	66	1
72	72	7
62	62	7
87	87	4
76	76	3
14	14	4
132	132	3
1	38	1
98	98	7
108	117	5
82	82	3
115	115	7
58	58	3
88	98	1
94	94	1
99	99	1
96	96	1
9	10	1
2	10	3
30	47	3
92	92	14
86	86	4
91	91	5
1	10	4
118	118	7
35	35	2
29	30	1
8	15	1
85	85	7
54	54	3
56	58	2
125	125	4
56	69	1
19	19	2
21	36	5
74	75	1
110	110	2
44	78	3
32	32	1
84	85	6
49	51	1
107	130	4
29	87	2
100	100	4
53	53	1
57	57	3
90	117	4
13	14	4
49	49	1
128	129	1
82	86	1
108	109	4
15	15	1
102	105	1
31	32	3
58	71	1
81	101	2
30	30	2
33	33	5
52	53	1
64	64	4
108	110	2
17	17	3
21	29	2
8	14	1
4	4	5
7	7	2
131	131	2
30	57	3
74	74	2
31	31	2
71	71	5
104	104	6
27	35	5
117	117	4
1	1	5
79	79	4
36	36	3
24	24	2
18	18	6
63	63	1
99	106	3
95	95	5
134	135	1
78	79	7
23	23	2
48	68	4
112	112	1
109	110	1
126	127	5
29	29	2
15	16	3
9	9	4
48	48	1
81	116	4
110	118	3
20	20	5
73	73	1
111	111	4
102	102	3
59	59	2
19	20	3
27	27	4
78	78	1
106	106	4
61	61	5
93	94	1
101	101	7
103	104	2
116	117	1
112	115	1
114	115	2
68	68	4
45	45	8
114	114	2
11	11	2
75	75	1
26	42	1
54	56	4
33	34	2
122	122	4
79	83	1
120	120	1
0	0	1
90	90	1
125	132	2
47	47	1
67	67	2
21	21	2
101	126	2
107	124	2
16	16	2
105	105	5
60	60	1
67	68	4
116	116	2
121	121	5
44	44	1
97	97	1
21	23	1
129	129	1
2	3	1
65	65	2
26	43	1
87	119	2
22	38	1
106	107	3
134	134	1
5	5	3
7	9	2
4	14	1
109	129	1
122	130	1
35	121	1
32	33	1
59	71	1
127	127	1
8	8	2
88	88	1
74	76	3
3	6	1
11	14	2
113	113	1
28	33	3
131	133	2
65	67	1
51	98	2
28	28	2
13	13	3
88	118	2
93	93	2
50	85	6
79	112	1
20	21	2
33	121	1
103	103	4
6	13	1
1	9	1
36	37	1
104	105	1
135	135	1
77	77	1
25	25	2
84	84	1
3	3	1
21	44	1
45	81	1
3	14	1
89	117	1
123	123	1
30	35	1
102	103	1
