61	236	1
70	70	8
76	77	2
244	245	7
6	6	15
200	200	10
230	230	11
165	165	11
66	68	4
119	119	7
175	194	2
231	231	10
196	198	3
169	169	10
43	43	14
237	240	5
220	220	15
229	229	9
248	249	3
115	118	2
185	185	3
81	81	6
150	151	1
25	210	3
182	213	5
116	116	6
54	77	4
42	42	5
17	57	4
62	70	1
207	240	1
189	192	2
221	221	9
175	175	9
19	19	10
218	218	8
208	209	10
111	111	3
167	212	3
245	245	10
117	117	6
200	201	4
51	62	2
17	17	5
98	98	7
82	82	17
237	237	10
181	181	5
29	29	11
20	33	1
231	236	3
85	85	7
47	48	3
167	167	17
15	15	8
39	39	9
35	37	1
56	56	8
18	18	18
54	56	4
147	154	1
179	179	7
238	238	12
199	199	3
13	13	3
185	198	3
21	22	1
65	65	17
37	37	6
115	115	5
26	26	8
152	153	4
239	239	5
201	208	2
225	226	3
196	196	7
63	113	1
19	203	5
75	75	12
192	193	6
235	235	14
159	159	8
16	16	18
20	20	8
21	21	8
155	155	11
183	183	17
225	225	8
23	23	6
161	166	3
40	40	8
49	50	2
195	219	1
201	201	7
10	10	22
163	176	1
215	215	19
35	35	12
102	102	12
156	156	8
227	228	2
87	87	4
214	214	19
14	15	4
61	61	2
97	97	11
7	7	8
153	153	6
236	237	1
204	204	8
234	235	3
208	211	1
14	91	2
53	53	4
76	90	1
168	168	11
233	233	10
77	77	9
184	184	1
42	50	1
9	10	6
8	215	1
202	203	6
164	164	7
4	4	8
67	67	5
214	215	4
33	33	12
16	56	1
7	15	1
62	62	9
5	5	20
184	185	4
234	234	7
234	241	1
82	83	2
160	160	8
103	104	1
114	114	11
1	1	3
173	173	12
86	86	19
243	243	5
152	159	2
154	154	14
78	78	2
64	64	3
189	190	2
224	226	5
27	27	10
246	246	8
54	227	2
22	23	4
4	6	1
93	93	13
199	200	4
150	150	8
212	239	2
25	25	6
118	118	6
68	70	1
8	8	15
28	29	3
169	170	3
24	25	6
177	177	6
50	63	1
108	108	6
26	27	3
229	232	2
3	6	5
206	206	3
54	228	2
178	178	17
18	23	2
191	192	3
151	151	10
227	227	9
207	207	5
166	166	6
89	89	12
12	53	3
178	185	3
46	46	6
145	145	9
176	177	3
103	103	2
210	210	6
237	238	7
188	188	5
84	84	10
240	240	5
11	11	7
241	241	2
216	217	4
80	88	1
198	199	2
167	168	2
92	92	9
45	45	10
155	180	3
68	68	14
22	26	6
150	155	4
20	32	1
120	120	3
55	56	3
106	107	1
77	85	3
224	224	10
88	88	7
110	155	1
102	103	6
172	173	2
169	194	2
236	236	7
89	90	3
223	224	5
114	115	5
89	94	4
223	223	8
39	40	2
48	48	8
180	180	5
110	110	12
163	164	3
66	66	4
112	112	8
222	222	4
47	47	7
228	228	4
186	186	3
233	234	6
19	21	2
41	41	12
192	199	1
113	114	5
111	116	4
54	55	3
66	67	2
182	200	1
205	205	10
229	237	5
95	100	3
109	109	8
184	210	2
189	193	7
42	43	2
53	233	2
35	232	3
109	119	1
30	245	8
69	69	7
172	183	2
165	166	2
170	170	5
99	99	10
146	147	2
41	42	4
213	213	7
38	38	11
54	78	1
48	65	2
51	235	3
203	203	11
217	217	8
157	158	3
54	54	7
237	239	2
100	100	10
162	162	10
242	242	5
161	162	4
58	59	1
86	95	2
244	244	4
81	82	5
153	154	2
31	31	6
87	88	7
156	229	1
101	105	2
60	60	3
211	211	8
182	183	1
8	14	2
245	246	7
172	172	10
39	44	2
9	52	1
55	57	2
176	176	10
71	71	8
38	39	3
154	164	5
32	32	4
95	96	1
50	50	4
115	117	2
208	208	2
146	146	2
171	171	4
20	29	2
94	94	6
186	193	1
166	167	3
51	51	7
226	226	6
22	22	2
46	68	1
7	14	2
149	149	5
27	224	1
45	46	2
54	231	4
247	247	3
43	44	2
90	93	2
248	248	6
60	184	1
21	23	2
97	99	3
4	5	6
49	49	6
213	214	1
216	216	8
47	51	1
163	166	2
190	191	3
157	157	4
9	9	8
79	84	1
49	158	4
90	90	3
202	202	12
147	147	2
174	174	6
32	161	1
206	225	3
110	117	1
183	188	3
190	192	4
17	42	5
64	65	2
52	62	1
14	14	5
20	25	3
68	69	8
80	87	1
104	106	2
68	85	4
24	24	11
109	113	1
163	216	1
99	100	2
0	0	1
204	205	4
12	14	3
50	115	5
182	201	4
192	192	5
8	15	2
186	187	4
98	108	1
105	107	2
91	92	2
93	97	2
96	97	6
182	182	2
226	227	1
158	162	4
44	44	13
212	219	2
232	232	3
62	117	1
212	212	6
209	210	3
188	240	3
172	174	1
55	55	5
83	84	3
35	36	2
229	230	1
57	57	2
12	12	6
184	186	4
106	106	5
118	119	3
59	117	3
243	247	1
163	165	2
12	52	2
177	181	3
59	71	1
80	80	2
20	21	7
52	52	4
32	36	1
211	212	8
113	113	2
2	18	1
167	219	1
217	218	9
74	75	1
210	211	1
240	241	1
158	191	3
29	55	2
52	84	1
212	229	2
158	158	2
111	115	1
28	118	1
74	74	4
178	179	1
111	190	1
59	59	2
33	65	1
232	234	2
58	58	4
16	53	1
6	54	2
33	35	1
163	163	5
4	29	2
95	95	5
206	207	2
17	18	3
18	20	1
212	221	1
205	223	1
157	172	6
187	190	1
81	84	2
179	180	4
91	91	2
2	2	5
218	219	1
146	181	1
20	22	1
101	113	2
16	93	1
63	63	5
96	96	3
93	94	1
97	98	2
158	185	2
79	79	7
157	168	1
162	207	2
101	101	6
102	245	1
175	176	3
88	89	1
24	83	1
107	107	2
104	105	1
164	175	2
168	196	1
152	160	2
28	28	2
161	161	2
161	167	2
173	180	1
109	112	1
240	246	2
109	110	1
36	36	2
73	73	4
99	116	1
197	198	3
53	94	1
63	67	3
17	37	1
172	225	1
158	161	1
152	152	2
79	81	1
23	25	1
1	2	2
67	68	4
34	34	2
213	241	4
165	167	1
188	199	2
161	163	1
232	241	2
61	62	3
4	11	1
238	243	2
197	197	4
173	174	1
7	10	1
3	12	4
61	70	1
90	151	1
69	70	2
44	45	1
226	242	3
5	34	1
63	227	2
52	64	1
69	73	1
205	206	1
171	172	1
153	156	1
4	58	1
243	244	1
60	61	1
77	79	1
48	55	2
172	181	1
22	25	1
161	165	1
168	171	1
67	120	1
76	76	1
214	219	1
30	30	2
3	3	5
154	160	1
74	76	2
95	117	2
195	196	2
144	147	1
221	222	2
70	71	4
74	92	2
63	93	1
212	213	1
34	60	1
75	77	2
200	223	1
238	239	1
101	112	1
49	51	1
78	96	1
33	37	1
149	150	4
202	224	2
189	197	1
216	220	2
36	39	1
63	238	1
190	190	2
180	184	1
213	225	1
194	194	1
188	191	1
164	165	2
82	84	1
198	198	3
95	102	1
168	169	1
237	243	2
159	181	2
103	117	1
247	248	3
63	100	1
3	37	1
225	227	2
180	182	2
34	35	2
86	87	2
164	182	1
157	174	1
24	31	1
91	189	2
10	32	1
12	37	2
55	59	1
71	206	1
38	42	1
57	58	1
207	225	1
33	205	2
46	48	1
60	64	1
147	201	1
229	231	2
76	79	1
108	114	2
94	100	2
46	47	2
113	115	1
216	225	1
108	109	1
58	233	1
4	30	1
110	154	1
175	217	1
6	7	1
18	19	1
65	66	1
98	99	1
193	194	1
28	52	1
31	79	1
61	184	1
19	20	2
11	88	1
96	100	1
1	36	1
110	111	1
158	235	1
196	197	1
70	73	1
181	184	1
229	243	1
16	17	1
64	79	1
181	214	1
180	189	1
27	110	1
221	223	1
219	219	1
15	27	1
