81	82	2
23	24	3
3	3	8
5	18	4
79	80	4
13	22	4
12	61	6
28	28	5
3	17	4
62	62	5
1	1	2
77	79	1
47	47	7
17	17	5
70	84	1
55	56	4
51	78	3
25	68	4
59	60	6
76	77	2
52	52	7
15	15	4
56	56	7
23	23	3
10	10	11
17	25	2
70	70	7
84	87	1
72	73	1
3	26	3
80	80	2
79	79	5
64	74	5
14	14	6
15	25	1
48	60	3
65	69	7
3	4	3
54	56	2
59	73	2
49	58	2
13	19	3
54	55	7
19	19	5
21	21	4
67	67	2
67	89	2
35	80	3
13	26	5
73	75	3
48	83	6
82	82	5
51	51	5
5	8	5
66	67	2
83	83	6
13	13	7
63	73	1
65	83	2
85	85	3
4	4	5
7	25	4
82	85	2
59	59	4
29	30	7
58	60	2
8	9	1
70	76	6
71	85	4
55	66	2
49	49	4
11	11	3
78	78	5
12	29	4
59	81	1
22	22	3
0	1	2
88	88	3
73	81	3
60	60	2
2	2	5
75	76	3
55	55	3
51	52	5
26	26	4
70	74	2
25	27	6
61	63	2
12	12	3
86	86	2
34	34	6
85	88	1
81	83	2
89	89	2
81	81	6
20	23	1
4	21	2
5	25	1
2	3	4
73	73	1
75	75	2
17	65	4
57	57	1
66	66	10
8	59	5
20	64	4
9	13	2
53	54	1
27	28	2
72	75	2
76	76	1
7	7	6
7	9	4
6	6	1
31	31	2
83	85	1
66	89	1
30	30	3
50	51	3
12	13	1
81	87	2
0	12	3
65	80	1
84	84	7
65	76	1
74	82	1
7	8	1
82	87	2
66	68	1
1	2	2
74	74	4
72	72	3
87	87	5
29	29	2
84	86	1
5	5	4
24	24	3
7	65	4
63	64	5
75	82	5
71	72	1
65	65	3
83	89	1
20	20	3
20	22	3
61	61	2
86	87	2
71	71	2
17	32	2
49	76	2
48	57	1
81	89	1
77	77	2
2	5	1
65	66	2
61	88	1
65	79	1
54	54	4
26	27	1
69	70	2
60	65	2
47	48	1
8	10	1
48	58	3
51	57	1
24	67	4
76	80	1
68	68	8
56	74	1
25	30	2
22	23	3
6	8	1
8	8	1
22	25	2
48	48	3
59	66	2
87	88	1
64	66	1
27	27	1
81	85	1
69	75	1
13	33	1
61	69	3
1	6	1
26	65	2
34	52	1
34	81	1
2	4	2
62	72	2
89	90	1
72	87	1
63	75	3
63	63	1
1	4	1
7	18	1
58	61	2
10	20	1
16	19	2
33	33	1
31	33	1
63	76	1
72	74	2
67	68	1
0	2	1
17	26	1
6	87	2
9	9	1
1	28	1
69	84	1
27	88	1
50	50	1
46	46	1
48	75	1
49	50	1
69	83	1
4	11	1
3	5	1
