93	94	4
31	31	4
143	143	8
130	130	7
9	11	4
120	120	8
63	66	1
121	122	2
37	37	3
83	84	12
71	71	6
99	100	1
112	115	1
127	128	4
91	91	8
103	103	4
96	96	11
30	30	9
19	19	19
98	98	17
151	151	6
109	110	10
6	6	8
73	73	21
79	81	7
143	145	1
89	115	1
122	122	4
139	139	3
118	118	8
32	34	6
29	76	2
82	83	6
105	105	6
70	70	1
115	139	1
35	36	6
93	93	2
24	25	1
148	148	4
85	85	6
4	5	1
48	124	2
109	112	8
39	49	2
109	109	4
87	91	2
138	138	4
68	68	6
40	40	2
10	10	2
116	118	3
30	110	1
97	131	1
140	141	2
114	114	3
95	144	1
97	97	3
2	2	4
26	28	3
41	41	6
21	22	3
3	3	3
65	128	4
126	127	5
88	89	2
12	12	8
133	133	6
119	120	5
36	38	3
110	110	4
149	151	2
91	92	4
26	27	3
29	30	4
134	134	8
47	123	2
13	14	9
84	84	13
14	15	4
18	18	5
1	2	2
72	72	3
152	152	6
27	28	1
136	136	2
27	27	3
94	94	8
77	77	12
144	144	2
30	37	2
26	26	7
7	7	7
69	69	4
128	128	16
80	80	4
127	127	17
32	72	2
133	139	4
13	19	2
78	80	1
143	148	3
92	92	14
146	147	8
107	141	4
104	104	4
83	96	5
21	21	9
38	39	1
118	119	2
130	132	1
33	37	4
82	82	2
68	69	5
42	45	2
100	101	1
141	144	1
43	50	1
0	0	1
110	156	4
106	106	7
6	45	2
125	125	4
132	132	3
55	155	1
143	144	4
19	20	2
85	114	1
23	23	6
112	139	1
62	62	1
23	24	3
128	129	7
104	116	1
45	45	2
3	42	1
22	22	15
16	125	1
68	136	1
25	25	4
11	11	4
79	79	7
65	65	7
141	141	3
16	16	3
80	81	6
46	47	3
5	5	9
0	25	2
28	28	6
99	101	4
95	96	5
36	36	2
92	93	1
8	43	2
1	5	1
135	148	2
154	154	1
17	18	5
10	11	4
125	126	2
131	134	5
1	1	3
109	141	2
51	53	4
24	24	5
153	153	7
68	71	6
39	39	10
4	4	8
119	121	1
111	111	2
107	108	3
108	109	2
32	32	2
47	96	2
105	107	1
9	9	11
96	103	5
103	105	1
49	151	2
137	148	2
100	100	6
77	91	1
67	136	6
131	132	1
20	20	3
20	21	4
28	31	2
121	121	8
70	71	4
74	74	2
78	78	7
53	53	3
78	79	1
156	157	6
33	69	3
67	73	2
129	129	7
47	47	2
87	87	3
84	96	2
100	102	2
115	137	3
35	35	2
29	32	2
17	17	5
115	116	3
44	44	6
67	68	2
49	49	3
54	96	3
53	54	1
34	38	1
83	83	8
62	145	3
103	117	3
137	137	10
13	24	2
76	77	2
131	131	3
5	6	2
15	18	1
78	82	1
140	140	8
146	148	3
50	50	6
134	135	3
150	151	4
82	106	1
135	137	1
34	37	2
131	137	2
66	66	1
22	24	1
135	144	1
4	154	1
156	156	10
101	149	2
94	95	1
147	148	2
32	135	2
95	95	4
104	105	7
95	117	1
105	112	1
103	121	1
63	124	4
41	150	2
126	126	6
49	50	2
122	124	2
130	138	1
57	155	1
43	43	4
86	86	3
28	86	1
101	101	7
106	114	3
88	88	10
155	156	2
30	39	2
28	29	2
65	156	1
75	75	4
51	52	4
69	147	3
28	36	1
114	139	1
78	86	1
62	71	2
30	40	1
141	145	1
135	135	4
117	117	2
0	6	2
13	25	1
137	138	2
63	71	4
112	112	3
38	38	4
51	51	1
22	23	3
64	64	7
119	119	3
80	93	4
116	116	5
135	145	2
139	140	1
46	49	1
15	20	3
29	29	4
13	13	1
19	21	2
8	11	1
111	116	1
90	90	2
142	143	1
108	111	1
83	131	2
56	56	1
19	24	1
76	76	2
125	141	2
62	70	1
61	67	1
75	76	2
108	108	4
50	53	3
15	15	3
123	126	2
124	126	2
98	129	1
113	114	1
45	151	1
46	46	4
47	54	1
3	40	2
150	150	8
3	55	2
6	68	1
123	124	3
123	125	1
84	85	1
84	134	1
66	71	1
12	14	1
89	91	4
57	61	3
85	113	2
146	146	2
41	42	1
84	97	6
115	117	3
51	111	1
48	96	1
116	119	1
40	49	1
115	115	1
117	118	2
98	101	1
21	35	2
42	42	3
13	15	2
116	117	1
57	62	1
7	36	1
108	112	1
87	88	1
29	31	2
77	78	2
8	10	2
86	88	1
41	153	1
7	9	2
136	145	1
10	12	3
112	113	2
56	57	2
5	11	1
8	8	2
123	123	2
87	89	1
14	14	2
33	36	1
113	113	2
17	19	1
120	156	1
48	48	6
26	87	2
85	86	2
42	47	1
149	149	2
16	19	3
25	31	1
16	23	1
80	84	1
88	90	2
29	37	3
79	91	2
63	64	1
33	33	3
107	107	1
69	106	2
151	152	2
144	147	1
112	141	1
109	111	2
141	142	1
114	133	1
26	91	1
111	112	1
16	17	2
33	34	1
81	82	1
15	24	1
39	124	1
68	70	2
46	150	4
49	54	1
111	121	1
4	153	2
103	116	1
49	97	1
90	91	1
53	122	1
52	52	2
55	157	1
44	46	1
65	66	1
69	70	1
47	48	1
87	92	1
81	86	1
107	113	1
106	107	1
42	154	1
31	34	1
7	8	2
142	142	2
112	156	1
54	54	1
45	46	1
105	106	1
48	151	1
29	105	1
56	71	1
41	154	1
