14	14	9
100	100	7
50	50	11
158	158	6
111	149	3
72	72	4
141	141	6
1	1	3
127	127	7
64	64	6
8	8	2
119	148	2
143	143	5
0	0	1
113	157	5
92	119	5
17	17	2
145	145	2
10	10	4
149	149	4
137	138	1
142	143	5
74	74	4
164	166	3
20	20	3
155	155	9
7	7	4
128	128	2
12	12	2
69	70	5
85	85	13
168	168	2
90	119	1
70	70	5
129	155	4
4	4	5
103	152	5
71	104	1
97	97	6
152	154	1
48	48	8
100	102	3
74	75	9
123	154	1
87	87	7
111	147	2
1	5	2
139	160	1
82	83	2
51	51	7
130	156	2
9	12	1
129	129	6
55	55	3
132	152	7
115	115	8
153	153	3
45	46	1
79	79	4
111	111	3
122	122	4
128	130	3
17	18	7
151	151	4
76	83	1
45	45	1
34	134	4
102	103	2
165	165	1
157	157	4
150	150	3
99	99	4
125	153	1
121	121	3
36	36	6
120	120	1
15	15	5
69	72	4
82	82	3
162	162	6
56	56	4
105	105	6
49	49	3
19	19	7
136	136	1
163	164	8
27	49	3
140	140	5
66	66	5
35	38	2
62	62	5
93	95	3
12	13	4
106	106	2
131	154	4
163	163	4
10	21	4
11	11	6
80	80	1
35	36	4
92	92	4
28	28	1
122	153	3
69	71	3
97	119	2
168	170	2
34	34	5
156	156	3
138	138	4
14	15	4
22	22	6
21	21	2
11	20	3
73	73	4
152	152	4
77	78	1
135	136	2
34	53	1
141	142	2
21	23	6
78	78	1
9	9	1
35	35	8
91	91	3
144	144	6
138	139	3
53	54	2
128	155	3
25	25	5
88	89	3
135	135	1
89	112	1
5	5	6
38	38	5
98	99	2
6	8	5
68	104	2
44	44	2
125	144	2
8	10	3
34	36	1
139	139	3
110	110	1
71	98	2
101	102	2
137	137	1
116	116	2
161	161	1
33	52	2
76	76	2
138	160	2
123	123	3
11	19	2
166	166	3
52	136	3
65	67	3
65	65	6
27	39	1
120	121	1
113	114	4
16	17	1
66	68	3
34	135	3
109	109	3
131	131	1
33	135	1
39	39	2
68	68	3
121	122	2
123	124	1
145	146	2
33	34	3
123	128	4
78	79	1
65	78	1
130	154	1
57	82	1
151	157	1
90	109	4
4	6	1
7	18	1
107	107	2
163	166	3
33	51	1
90	112	2
79	80	2
24	24	2
167	167	2
117	117	5
16	16	4
27	28	1
133	133	7
78	80	2
151	155	3
40	40	1
170	170	1
40	49	3
67	67	1
36	37	1
95	122	2
52	53	1
3	41	1
158	159	2
46	46	1
166	169	1
131	141	4
71	103	4
42	42	1
27	27	4
21	22	4
47	47	1
115	117	2
156	157	2
124	141	1
23	24	2
118	119	1
92	95	2
18	18	1
123	141	1
144	145	1
53	135	1
64	79	1
46	48	1
17	21	1
103	153	1
104	107	1
90	90	1
94	94	1
164	164	1
89	111	2
86	86	1
120	122	1
86	109	1
5	6	2
0	19	1
20	21	1
106	107	1
139	141	1
103	103	2
112	112	1
38	107	1
160	162	1
103	104	1
34	133	1
134	134	1
64	78	1
41	64	1
22	23	1
7	20	1
53	53	1
12	14	1
99	104	1
93	108	2
35	48	2
147	157	1
159	162	1
169	170	1
72	75	1
76	77	1
37	37	1
97	99	1
103	107	1
2	2	1
83	83	2
25	26	1
33	33	1
116	117	1
168	169	1
109	110	2
52	135	1
147	147	1
114	114	1
35	47	1
8	77	2
96	96	1
132	132	1
119	121	1
4	5	1
6	64	1
75	77	1
83	108	1
148	148	1
90	116	1
91	92	1
