94	94	13
75	75	20
100	101	7
37	37	4
104	105	3
86	88	6
45	87	1
61	106	7
86	86	9
37	99	3
21	90	5
79	79	8
37	40	5
33	33	11
45	46	8
83	83	4
48	48	11
104	104	10
58	58	14
102	102	11
38	38	5
95	96	5
62	62	11
63	90	3
44	44	3
78	79	1
21	32	3
60	61	2
72	72	6
98	98	22
43	43	6
60	60	12
31	45	4
98	99	4
26	26	9
85	89	2
68	68	11
69	69	16
55	56	1
95	95	14
63	63	14
56	56	5
24	88	3
81	81	2
21	64	4
71	72	6
36	37	6
92	92	12
38	69	3
90	91	10
45	89	2
82	82	8
64	89	2
57	57	6
28	28	6
54	55	4
65	65	8
31	41	4
41	41	6
39	40	8
72	73	6
80	80	2
49	49	6
35	35	13
66	66	9
90	90	6
36	36	8
54	54	14
39	39	9
22	22	5
96	96	5
42	42	3
25	78	2
60	91	3
27	27	11
101	101	9
44	70	1
22	105	3
71	78	5
61	61	6
91	91	3
72	82	1
99	100	5
54	83	2
71	85	3
94	95	2
72	78	5
56	89	2
50	50	9
90	107	3
38	51	2
51	78	3
31	32	3
106	106	5
84	85	2
64	64	2
31	31	6
38	98	2
103	103	10
21	82	2
46	47	2
86	87	3
40	43	3
74	76	2
99	99	16
47	74	1
52	52	4
55	55	6
82	83	4
77	78	3
49	54	3
59	59	9
22	89	2
24	24	3
37	38	2
70	70	4
47	48	2
100	100	9
70	71	2
59	65	2
29	107	4
31	33	4
36	38	3
97	98	6
45	45	10
57	77	4
65	66	4
60	82	4
46	46	4
24	82	1
58	59	3
53	100	2
47	47	3
25	28	5
21	50	3
73	74	4
30	39	5
53	53	3
31	55	3
87	87	12
97	97	10
55	59	2
19	25	1
25	25	1
20	20	2
101	102	6
21	21	5
32	33	2
107	107	3
91	93	3
51	100	4
25	26	1
73	73	2
65	89	2
50	97	1
93	93	2
97	99	2
87	88	5
35	36	5
70	84	1
20	90	5
76	76	9
74	74	7
89	89	6
36	40	2
29	29	3
31	44	3
24	93	1
24	27	3
62	106	4
71	71	5
37	67	2
77	77	3
85	85	3
26	28	1
23	23	4
43	46	3
84	86	3
66	91	2
61	66	1
46	87	2
84	84	1
37	105	4
30	58	1
63	66	1
67	67	3
78	78	3
45	54	1
94	103	4
22	24	2
31	57	2
61	95	5
73	82	1
83	84	3
45	88	2
52	53	3
34	75	3
21	49	2
35	51	3
95	106	2
96	97	3
57	58	1
43	45	2
29	88	2
51	51	7
34	34	5
46	106	1
22	82	1
22	104	2
42	45	2
79	81	3
52	82	1
31	58	3
85	86	1
28	89	1
36	39	1
39	68	1
52	55	2
22	106	2
67	103	1
23	24	1
58	103	2
58	77	1
105	105	1
30	30	3
43	81	1
92	93	1
64	90	1
21	31	2
53	81	1
55	57	2
71	84	1
25	88	2
42	81	1
23	90	3
40	42	1
21	48	1
42	79	1
26	78	1
63	64	2
40	41	1
32	50	2
87	89	2
31	105	1
33	35	2
90	92	1
89	90	2
24	78	1
23	52	1
27	28	1
99	101	1
62	63	1
64	70	1
33	58	1
88	88	2
25	87	1
37	54	1
30	36	1
65	68	1
22	26	1
82	84	1
