6	6	29
73	75	8
108	108	32
138	138	24
86	86	23
34	34	14
43	45	8
122	127	2
77	78	12
57	57	30
103	109	6
65	67	3
116	116	17
23	24	11
25	30	6
13	13	30
53	53	32
144	144	26
117	118	7
36	74	6
71	119	4
84	84	23
153	153	37
135	135	55
38	38	23
154	154	27
112	112	34
22	22	25
89	103	3
14	15	11
62	63	9
79	82	1
71	71	29
12	13	8
131	131	23
31	31	26
62	62	16
146	151	2
57	118	5
8	10	17
74	74	24
25	25	37
133	133	49
82	82	41
79	79	45
128	135	1
136	137	15
84	150	2
95	95	33
77	77	21
78	78	24
56	57	8
65	95	3
122	122	28
85	86	19
37	39	2
149	149	65
145	145	26
99	115	1
123	123	23
43	44	9
26	26	30
111	111	37
44	45	5
29	29	25
19	19	31
139	139	30
8	9	11
15	15	45
119	119	29
116	118	1
97	97	29
100	101	7
101	101	33
125	125	22
118	118	23
56	56	14
20	20	29
113	113	79
132	133	18
78	79	11
133	135	8
98	99	16
94	94	47
129	129	38
148	148	22
16	18	9
68	68	33
73	73	23
124	138	5
147	147	29
12	12	20
138	139	17
24	29	6
64	67	3
36	79	2
39	39	27
81	81	42
96	96	29
65	65	9
138	143	4
102	102	16
113	116	3
146	146	35
111	112	7
41	42	14
83	83	36
106	106	25
113	118	2
121	122	16
36	76	2
17	19	4
103	105	2
75	75	32
33	33	28
11	11	20
55	56	16
10	10	18
14	14	34
24	132	2
76	77	4
47	47	23
5	6	7
49	50	14
3	5	7
22	23	16
18	19	10
107	108	15
140	140	18
91	93	1
42	42	34
105	127	3
24	24	41
40	40	31
54	54	22
110	113	5
117	117	18
17	17	39
128	130	5
80	81	18
35	35	11
96	122	10
70	70	50
3	36	1
46	46	38
27	27	22
10	15	2
36	48	5
116	117	12
96	97	16
13	15	6
26	27	7
137	137	23
42	123	4
44	57	4
150	152	2
66	66	26
97	98	11
48	49	11
67	67	29
80	80	13
114	114	16
30	30	22
126	126	16
150	150	40
53	54	3
15	16	9
104	105	5
43	43	34
75	122	1
57	149	3
12	37	2
85	95	1
119	120	6
72	100	4
94	97	6
100	100	40
39	50	6
32	32	14
86	87	5
93	153	2
17	18	18
109	110	5
21	25	2
21	21	14
67	68	11
67	72	2
110	110	23
103	103	26
23	30	2
96	123	5
51	51	25
94	98	2
63	64	9
48	48	30
35	55	6
48	50	5
104	107	3
35	37	7
152	152	17
91	104	4
121	121	20
71	73	6
38	73	1
93	97	8
21	22	11
55	85	4
99	99	40
83	84	17
41	41	42
46	47	15
128	128	36
32	34	3
121	125	1
130	130	31
134	134	28
76	76	32
63	63	24
64	64	21
125	126	4
139	149	1
88	88	6
113	114	25
96	124	2
85	85	26
5	5	20
20	72	4
95	97	6
109	120	3
23	23	26
106	131	2
36	101	6
66	151	4
107	107	36
4	4	12
88	154	4
42	110	5
132	132	25
8	8	6
82	83	5
151	151	14
36	36	28
69	69	36
18	20	2
11	12	18
25	31	4
115	115	25
16	16	44
142	142	22
27	30	10
28	29	7
42	43	10
142	143	14
98	98	33
140	141	5
104	145	2
124	125	8
27	41	3
2	7	1
115	117	10
38	39	16
111	153	1
81	154	2
149	150	7
64	95	4
74	120	1
49	70	4
37	37	17
53	55	3
101	102	10
62	136	2
144	145	7
40	42	5
47	53	5
101	151	3
104	104	20
57	58	8
74	84	2
13	14	8
127	127	26
68	69	8
122	123	12
51	52	2
22	152	6
7	9	5
50	50	18
131	132	11
47	133	2
143	143	24
29	30	10
81	85	4
95	98	3
15	19	6
9	9	22
63	69	2
105	105	15
10	25	3
107	110	1
74	76	4
22	26	2
9	11	5
45	45	35
99	100	10
121	149	2
141	141	25
94	95	10
22	46	2
2	3	2
109	109	57
20	22	4
128	129	10
144	150	3
90	90	5
54	100	1
152	153	10
100	105	6
84	115	2
97	130	3
34	37	7
147	148	16
18	18	28
87	132	1
70	100	4
68	71	7
119	131	3
122	145	1
151	153	2
47	48	13
18	47	1
95	96	11
48	54	2
79	85	1
102	103	7
48	51	5
34	35	15
48	53	3
9	10	2
134	135	13
139	142	2
77	132	3
55	55	14
108	109	5
40	41	20
7	7	12
136	136	31
111	117	3
39	44	3
42	45	5
35	64	3
32	51	2
77	123	2
103	104	9
104	122	1
31	32	10
118	129	3
49	49	23
87	88	7
72	73	5
120	121	5
21	142	4
55	86	3
126	127	7
92	92	8
93	93	9
69	78	4
124	152	1
124	124	23
18	31	2
24	139	1
71	130	6
16	17	4
115	116	13
127	128	6
7	17	1
9	22	5
33	43	2
4	5	21
45	46	3
120	120	29
84	101	1
36	71	2
50	71	3
22	66	2
149	151	6
110	111	3
74	75	11
33	61	1
122	136	4
111	113	8
17	21	5
11	13	2
62	100	5
122	148	2
26	39	8
3	3	18
67	95	5
39	51	1
54	56	1
109	111	8
67	73	3
69	71	2
36	37	7
33	38	3
32	38	2
42	77	2
124	127	1
75	79	4
93	94	6
40	49	1
106	107	10
70	71	2
38	51	3
28	28	8
86	139	2
56	66	2
105	120	2
19	21	3
94	118	5
105	106	1
10	13	4
130	131	4
22	75	1
70	129	1
84	86	5
53	71	2
64	65	5
102	107	5
21	23	3
2	2	9
31	33	2
81	82	11
70	76	3
33	36	5
76	78	1
31	101	3
58	149	4
4	6	4
39	40	5
10	11	12
125	136	1
118	119	3
75	94	1
137	138	3
12	20	3
72	74	1
20	21	3
135	145	1
126	130	2
139	152	3
23	114	4
126	141	5
70	85	2
48	149	1
142	144	2
67	135	1
43	57	3
93	125	2
129	131	3
114	115	4
32	148	2
105	107	1
47	50	4
6	29	1
22	37	2
30	40	2
55	57	4
133	134	14
8	27	1
17	30	5
38	43	3
68	73	5
119	122	7
44	58	1
87	89	7
13	17	1
119	154	3
24	25	3
28	30	12
123	124	18
107	109	5
105	128	4
61	77	4
30	32	1
81	83	3
25	116	4
150	151	7
114	116	4
92	95	1
114	142	2
100	123	1
122	125	3
83	85	1
135	144	3
10	12	2
33	34	5
97	99	3
126	135	1
101	120	5
89	89	4
46	51	4
62	78	1
72	72	11
37	51	4
137	139	2
22	150	2
66	67	10
9	32	1
40	68	4
112	129	1
129	130	2
29	74	2
29	147	3
111	114	6
34	38	4
102	121	4
35	102	3
96	149	2
17	26	3
122	134	1
115	125	1
81	119	2
40	46	3
57	65	6
73	74	5
150	153	3
133	152	2
94	96	6
112	113	7
75	76	11
36	64	1
25	27	2
44	44	22
28	31	3
36	43	2
80	82	4
110	115	2
140	142	2
103	122	1
43	68	2
32	120	2
68	74	3
74	79	3
39	47	2
52	52	1
26	32	2
141	142	2
73	79	2
32	64	2
53	85	1
44	46	3
16	53	3
94	127	1
22	45	1
67	71	1
54	55	2
7	8	4
115	144	2
33	35	4
75	78	1
88	147	2
37	38	2
24	67	2
65	66	3
106	117	3
105	119	3
106	108	2
6	25	1
65	97	1
66	93	2
116	144	1
37	98	2
103	144	1
67	81	1
5	27	3
121	145	2
79	112	1
29	38	1
36	98	2
58	58	4
84	85	6
9	14	3
87	87	5
51	64	2
102	120	1
14	63	2
143	144	5
104	144	3
79	80	4
2	9	3
103	106	4
42	124	3
138	142	1
19	20	3
43	153	1
25	140	2
142	151	1
27	29	4
83	135	3
145	147	3
101	122	1
129	153	1
146	149	5
21	32	3
3	64	1
50	51	7
62	64	1
9	27	2
108	138	1
96	133	2
23	68	2
22	69	1
10	30	1
40	78	2
30	31	7
27	36	1
38	58	1
97	125	2
26	29	1
153	154	1
42	57	2
96	100	5
109	112	2
137	149	4
136	144	1
139	140	4
95	120	2
77	79	2
80	89	1
112	114	3
19	23	1
83	99	2
21	31	1
116	137	1
17	23	2
42	75	2
87	90	1
72	97	3
81	141	3
103	111	3
69	154	2
95	99	1
48	58	2
80	119	1
67	94	2
125	146	3
54	57	4
114	140	3
36	56	1
49	51	3
106	152	2
146	147	5
84	98	2
41	125	2
26	30	4
64	76	3
100	102	2
9	24	2
44	47	2
140	148	1
68	151	2
87	100	2
126	143	1
25	133	2
102	128	1
58	65	3
99	152	1
19	153	1
17	22	2
94	124	3
9	28	4
43	46	1
143	149	1
148	149	2
69	129	5
23	25	1
122	147	2
38	57	2
68	129	3
100	139	3
32	54	1
100	111	4
140	143	2
39	48	2
22	24	2
19	68	5
125	145	1
135	136	4
132	134	3
51	55	1
68	70	5
87	119	1
92	93	2
6	35	2
4	7	5
120	122	3
146	148	3
103	130	1
50	73	3
34	55	1
32	150	3
25	26	1
77	85	1
45	83	4
100	106	2
86	132	2
90	150	1
97	149	2
106	109	3
109	138	2
3	4	3
66	72	2
103	107	2
15	17	1
8	62	2
13	16	1
16	20	1
6	8	4
138	145	1
22	44	1
11	23	3
18	54	2
64	102	1
117	138	1
109	153	2
71	106	1
27	37	1
15	67	1
78	85	2
115	141	2
12	14	4
122	151	2
72	152	1
25	114	2
31	71	1
73	76	2
104	117	1
78	115	1
67	97	3
132	148	1
64	66	1
68	85	1
16	49	1
69	70	3
34	39	1
62	65	1
101	149	1
48	153	1
93	124	2
82	144	3
96	121	4
70	84	1
13	63	1
121	124	1
32	33	2
103	108	1
38	56	1
9	67	2
32	53	3
21	42	2
21	151	2
37	72	1
19	134	2
10	20	1
48	95	1
25	29	1
102	108	2
134	143	3
76	79	3
145	146	3
83	146	1
127	138	1
122	130	1
11	20	1
21	43	2
35	36	1
35	54	1
126	134	2
96	118	2
20	66	1
99	141	2
54	151	1
35	72	1
41	43	2
86	129	1
50	54	1
36	70	2
141	143	1
18	153	1
31	36	1
96	99	1
52	55	1
123	125	1
152	154	2
133	147	1
131	133	2
144	146	1
39	71	1
28	42	1
21	72	1
94	130	1
97	145	1
109	119	2
47	102	1
41	45	1
20	127	1
42	125	1
6	7	2
125	127	1
2	36	1
13	23	1
61	137	3
102	109	2
126	146	1
96	102	1
49	53	2
3	8	2
69	75	1
76	120	2
136	150	2
85	89	2
123	149	1
127	130	2
6	61	1
35	56	1
134	147	1
38	49	1
96	120	1
115	132	1
119	148	2
140	149	1
51	67	1
66	133	1
26	65	1
128	138	2
6	17	1
80	154	1
48	52	1
114	145	1
25	66	1
11	28	1
121	123	1
114	117	1
119	128	1
23	36	1
38	40	1
100	107	1
145	151	1
81	89	1
72	130	1
62	97	1
84	91	1
67	69	1
33	39	1
74	119	1
84	129	2
96	113	1
90	117	1
125	135	1
80	87	1
