44	50	6
21	21	7
5	11	2
107	107	5
133	133	2
109	134	1
35	35	10
98	98	16
3	3	3
92	92	10
9	11	5
70	70	5
103	116	2
5	5	12
79	79	7
118	119	4
28	29	7
132	133	3
116	116	5
94	94	5
60	60	1
65	69	4
13	27	1
0	0	6
24	24	2
125	125	11
103	103	10
85	85	1
107	108	7
109	110	1
109	109	3
101	101	2
120	121	2
5	18	4
128	128	1
19	20	1
65	66	2
102	102	8
62	62	3
45	51	3
56	56	9
67	67	3
6	76	3
71	71	3
43	53	2
11	11	2
103	104	6
111	111	1
123	123	13
78	78	3
49	52	7
131	131	7
85	96	5
120	120	10
7	10	1
1	17	4
34	34	6
114	116	9
44	44	5
97	97	1
105	106	1
58	58	3
1	1	8
57	57	3
68	72	1
83	131	3
114	115	2
72	124	1
23	25	4
7	7	5
114	114	3
80	80	7
29	29	1
119	119	4
101	104	1
109	132	2
77	77	3
87	87	6
1	13	1
118	118	4
84	85	3
91	91	7
46	47	2
18	18	7
113	113	1
106	106	4
76	76	6
32	33	4
124	125	2
27	27	4
61	61	2
26	26	1
14	34	2
122	123	5
113	114	3
73	73	3
121	121	4
10	20	2
95	95	1
57	58	3
77	78	2
0	105	1
104	104	2
49	49	2
13	13	8
104	105	1
17	115	1
4	5	3
115	115	5
44	49	2
72	72	4
117	117	1
4	4	8
121	126	1
17	17	1
116	117	5
68	70	2
97	99	1
23	23	5
70	71	2
44	54	2
9	9	5
36	36	4
91	92	3
105	105	2
124	124	2
75	76	1
121	123	1
60	63	2
79	80	1
54	54	1
130	131	1
106	111	1
3	18	3
68	68	2
112	113	1
52	52	1
131	132	1
86	88	1
30	35	1
79	119	5
90	90	1
53	122	3
50	50	1
93	113	1
43	83	1
19	19	3
129	129	2
18	105	4
132	132	3
127	127	2
13	14	1
119	120	1
1	2	2
10	10	2
15	15	1
90	104	1
83	130	1
30	30	1
47	56	2
129	132	1
130	130	2
63	63	1
14	115	1
89	89	1
14	14	1
71	72	2
122	122	1
2	2	2
102	103	2
74	74	1
83	132	1
82	82	1
18	35	1
65	65	2
2	34	2
98	99	1
85	87	1
43	72	1
80	117	1
30	37	1
