131	131	9
66	134	1
104	115	3
174	174	13
175	177	2
160	160	2
76	76	3
123	123	9
174	175	4
159	159	9
84	114	1
189	189	7
57	62	2
37	45	2
93	93	7
107	144	1
126	126	10
135	178	2
80	149	2
80	80	2
61	63	4
189	190	3
71	74	3
153	153	7
72	74	5
77	77	11
162	168	1
71	71	1
138	138	9
156	159	2
130	130	9
78	78	5
163	179	2
140	140	3
148	148	2
101	101	6
157	157	8
127	127	6
101	102	5
143	143	3
65	75	2
182	183	4
135	135	1
95	109	1
16	16	2
66	109	2
22	22	6
40	40	3
24	24	5
114	114	6
53	53	7
109	109	4
77	84	2
113	113	3
124	124	4
26	88	2
126	127	4
36	36	2
169	169	11
13	85	3
129	129	4
149	149	8
145	145	4
78	129	3
105	150	2
75	127	7
177	180	2
111	111	9
63	63	3
180	181	3
182	182	5
36	45	3
99	99	2
115	115	5
13	13	7
71	155	2
89	89	11
37	37	2
67	68	1
61	100	3
76	157	1
62	66	3
66	87	5
47	48	2
184	184	3
82	82	2
43	43	1
156	157	4
117	119	3
65	65	5
167	168	5
95	95	6
89	98	1
136	136	6
41	41	5
156	158	1
163	168	3
96	96	3
112	113	2
8	8	4
181	181	3
30	30	2
46	46	2
83	83	3
116	168	1
158	158	2
176	176	8
81	81	5
173	173	7
117	117	1
100	100	3
27	28	2
132	133	3
187	188	2
147	147	4
10	11	1
151	151	4
173	187	3
5	46	4
96	135	2
44	44	4
136	184	2
117	127	1
38	38	3
98	138	2
93	94	9
110	110	4
47	47	9
122	122	3
79	94	1
141	141	11
2	2	3
152	152	2
164	185	1
6	6	6
56	56	6
9	20	3
131	150	4
187	187	5
137	137	5
48	61	1
74	76	1
124	168	2
97	97	3
96	108	1
174	181	3
107	107	1
12	12	2
60	61	1
77	114	3
174	176	2
45	45	5
10	10	4
19	21	1
5	5	7
25	25	2
70	70	2
103	103	4
170	170	3
69	79	1
4	4	1
36	44	3
144	146	4
144	144	5
166	166	2
77	89	3
178	178	4
90	90	6
171	171	2
73	73	2
20	20	3
36	37	3
184	185	3
79	79	4
11	11	6
21	23	1
33	33	1
147	150	1
166	186	1
168	177	5
12	43	3
161	163	3
95	104	3
28	28	1
0	0	6
11	12	2
17	17	2
119	119	6
72	72	2
98	98	3
169	177	1
48	113	1
24	25	3
143	156	1
86	86	2
2	40	2
1	1	5
154	154	2
161	161	4
27	30	1
131	134	1
155	155	5
84	84	3
160	162	2
155	156	1
159	186	2
148	151	1
125	125	1
134	135	1
110	111	2
79	80	3
0	190	1
17	19	3
164	165	3
64	65	3
59	64	2
119	128	1
188	190	5
156	156	1
114	144	4
83	146	1
28	31	2
95	102	2
92	129	1
108	141	2
105	105	1
168	168	1
60	60	2
138	181	2
25	27	1
5	6	2
101	150	2
80	101	1
94	94	4
64	64	1
180	180	2
88	99	2
104	104	4
116	143	2
92	94	1
28	30	5
190	190	1
52	79	2
133	134	2
164	164	1
141	142	2
71	72	1
8	42	1
146	151	3
17	20	2
36	43	1
61	61	1
22	23	3
52	54	2
82	83	3
78	142	1
115	145	2
11	28	3
62	62	1
83	140	3
183	183	1
101	113	2
27	27	2
53	54	2
177	177	2
29	31	2
114	143	1
128	141	1
116	186	1
188	188	1
48	48	5
70	71	1
102	102	1
108	108	2
58	100	1
55	55	1
186	186	3
178	179	3
48	62	1
146	146	1
31	31	2
34	34	2
83	167	1
142	142	4
163	163	1
42	42	2
109	110	2
23	24	2
15	15	1
115	122	1
106	106	1
167	167	3
172	184	1
74	75	3
14	21	1
162	162	1
139	139	1
57	57	1
141	178	2
84	153	1
13	53	1
131	132	1
85	85	1
19	20	1
185	185	1
161	166	1
22	24	1
37	62	1
12	13	1
153	154	1
159	161	1
164	168	1
102	105	1
89	113	2
32	32	1
157	158	1
14	19	3
107	114	1
112	112	2
86	92	1
83	141	1
70	94	2
39	39	2
164	167	1
142	143	1
19	19	1
3	3	1
15	87	1
121	121	1
7	7	1
60	68	1
116	116	1
21	21	1
43	47	1
55	56	1
