77	77	3
4	4	10
29	29	15
44	101	4
88	88	9
32	32	22
48	58	2
67	67	5
65	65	4
30	30	4
113	113	9
116	116	11
53	53	4
120	120	11
97	97	2
112	113	4
46	48	5
81	83	2
70	75	5
48	49	2
116	117	4
39	39	1
108	108	8
115	116	1
86	88	5
115	115	2
114	115	1
49	49	6
58	58	3
104	104	3
111	111	5
73	73	2
102	102	8
60	61	5
76	105	1
75	75	7
46	46	9
43	43	4
71	72	1
28	28	7
64	64	3
109	109	7
76	76	7
13	13	6
48	48	17
133	133	6
100	100	5
17	17	6
70	70	7
101	101	7
89	89	5
113	114	1
63	64	4
103	103	4
32	75	1
7	44	3
31	31	6
52	53	2
16	16	6
86	86	2
80	80	7
125	125	5
93	93	10
61	61	3
69	97	1
12	12	5
111	112	3
95	95	5
130	131	1
8	8	2
43	44	1
15	15	3
50	81	3
119	126	4
117	117	5
23	24	3
67	68	4
92	92	6
24	25	3
104	127	6
7	7	12
54	54	2
59	59	6
72	72	1
120	125	4
85	88	2
63	63	9
9	10	2
30	56	5
52	52	9
117	118	2
101	102	3
55	56	1
81	81	9
2	2	8
57	58	1
124	124	2
85	85	5
51	51	11
92	96	6
57	57	2
10	10	4
5	5	8
72	73	2
44	45	2
56	57	1
2	3	2
112	112	13
40	40	4
45	45	13
87	87	4
106	106	7
51	52	1
47	47	4
111	117	1
65	66	3
33	33	6
106	107	2
48	81	1
62	64	2
104	105	3
30	50	2
43	102	2
69	69	6
23	23	5
76	100	1
122	123	2
96	96	2
118	118	6
98	99	1
40	96	1
62	62	1
94	94	9
124	125	3
20	20	5
99	99	4
90	90	3
110	113	3
42	43	3
0	0	4
50	50	7
69	105	1
93	94	3
28	42	1
91	91	2
107	107	2
120	121	2
78	123	1
105	131	1
42	96	4
41	41	6
71	71	6
24	24	5
120	132	1
98	98	1
123	123	6
43	101	2
129	130	3
128	129	1
131	131	4
74	74	3
27	27	2
55	55	2
40	55	1
78	78	3
8	49	1
22	22	7
6	6	2
28	29	2
40	69	1
69	88	4
118	125	1
16	17	1
69	70	2
110	111	3
126	126	1
9	9	3
112	114	2
87	89	1
126	131	3
94	95	7
73	74	4
91	92	3
38	38	5
84	84	3
104	118	1
62	63	1
68	68	2
75	76	2
63	67	1
25	25	2
6	132	2
110	110	5
44	44	3
1	1	4
114	114	4
34	75	1
26	27	1
56	56	1
22	24	1
22	23	2
7	8	1
77	117	1
21	21	9
81	86	3
11	11	4
104	126	1
18	18	5
29	31	1
110	122	1
96	119	1
33	55	2
77	118	3
132	132	2
7	46	1
72	74	2
29	30	1
66	66	3
46	47	1
86	87	1
45	46	2
79	79	2
31	32	2
3	3	3
56	75	1
105	105	2
76	77	4
27	28	1
42	104	1
83	83	4
13	27	1
18	49	1
19	31	1
19	19	3
94	116	1
31	74	1
119	119	1
19	22	1
99	100	1
90	91	1
58	81	1
79	85	1
89	90	2
79	80	1
9	57	1
100	101	1
127	127	1
18	25	2
10	11	2
56	58	1
44	46	2
19	25	1
68	88	2
121	121	1
33	34	1
19	30	1
118	119	1
63	66	1
90	93	1
32	40	1
126	130	1
82	85	1
78	80	1
51	56	1
60	60	1
80	81	2
92	93	1
21	27	1
8	9	1
103	104	1
18	30	1
9	74	1
71	75	1
39	40	1
21	22	1
