114	114	5
67	67	5
64	64	11
74	74	15
98	108	1
53	53	4
54	54	4
62	62	7
69	69	8
104	104	9
66	67	4
60	60	6
69	97	4
24	24	7
48	49	6
23	42	2
107	109	1
44	96	5
21	21	8
113	113	7
21	22	1
71	71	15
25	49	4
103	103	11
28	28	4
49	49	8
42	42	4
55	55	8
42	80	4
37	37	14
50	50	4
25	62	2
95	95	11
36	36	6
73	73	20
33	35	8
71	72	2
40	79	2
105	105	2
26	26	12
30	112	5
93	94	5
30	30	6
38	38	12
29	29	5
57	57	6
31	31	6
36	37	5
41	42	3
55	56	1
41	99	7
77	78	10
97	97	7
77	107	2
62	67	2
106	106	7
70	76	3
92	92	7
57	58	3
54	55	5
25	25	8
50	51	9
94	94	9
42	97	3
33	34	2
49	51	3
72	72	4
84	84	7
109	110	1
24	97	6
36	101	3
30	99	4
81	81	5
72	96	2
76	76	5
112	112	4
96	96	6
45	45	5
43	43	7
30	46	4
26	47	3
102	103	6
40	40	5
72	73	4
79	79	3
27	27	10
64	65	4
36	39	1
33	36	3
101	101	13
83	88	1
80	80	14
34	36	1
75	75	6
70	70	3
19	19	1
23	23	12
93	93	2
68	68	6
78	79	1
66	66	6
99	99	10
33	33	9
100	101	6
85	85	6
38	39	6
78	78	3
36	103	2
101	112	2
89	89	4
87	89	2
76	77	5
101	106	2
88	88	4
103	105	1
63	63	6
56	56	4
22	22	8
100	107	1
87	87	3
20	20	4
27	28	4
83	86	2
23	24	2
81	82	1
35	35	9
26	28	5
77	77	7
47	47	3
102	102	3
74	76	1
44	45	1
65	66	1
83	91	1
28	29	3
106	107	9
44	95	1
69	71	2
87	90	4
52	53	1
39	39	5
107	107	10
31	100	1
92	94	5
48	48	2
90	91	1
27	97	1
74	75	2
19	90	2
69	70	1
43	44	1
41	41	6
96	97	1
32	32	10
80	98	2
31	109	2
61	61	2
26	27	3
42	96	1
42	43	2
58	58	1
80	81	3
107	110	2
110	110	4
59	59	5
51	51	8
46	46	2
35	36	1
80	93	2
100	100	9
29	30	1
68	69	3
61	63	1
108	108	1
39	101	2
87	91	1
47	48	1
111	111	4
52	52	2
53	55	2
53	54	1
38	78	1
69	98	1
51	52	2
67	68	1
65	65	2
40	41	2
104	107	1
60	61	1
44	97	1
104	105	2
86	86	1
41	98	3
31	113	1
73	112	1
83	83	2
44	44	3
32	33	1
37	77	1
53	62	1
62	63	1
20	21	1
79	80	2
35	37	1
80	97	2
100	108	2
82	82	3
34	34	2
81	98	2
19	83	1
27	47	1
82	83	2
91	91	3
42	95	1
84	94	1
63	65	1
40	77	1
88	89	1
95	97	1
100	106	2
23	95	1
47	99	1
96	99	2
98	98	1
63	67	1
61	62	1
32	36	1
