95	95	4
109	109	15
18	18	6
69	69	2
128	128	7
51	51	9
123	124	4
145	156	2
125	125	5
105	105	5
84	84	2
73	73	2
53	61	11
147	147	4
99	99	6
64	64	8
66	66	6
32	32	7
39	40	2
27	27	6
127	127	4
80	83	2
39	39	4
12	12	6
16	17	3
144	145	1
134	135	2
68	68	6
92	99	4
54	56	4
131	131	7
131	132	6
145	145	5
146	147	3
1	9	1
139	141	2
46	50	2
99	100	1
115	123	1
94	94	8
36	36	6
11	12	2
150	153	5
23	25	1
71	71	8
33	33	12
150	150	5
138	138	7
20	20	4
38	38	14
124	124	4
7	8	4
50	53	1
26	26	2
28	28	11
147	154	4
103	103	6
115	115	1
47	47	6
137	143	1
14	15	3
91	91	5
132	133	10
101	101	3
49	64	1
79	79	6
127	129	4
1	2	3
97	97	3
86	86	3
9	9	8
40	40	8
151	151	9
93	93	1
57	57	3
140	140	4
149	149	7
7	7	1
3	3	2
28	99	2
144	152	2
34	35	5
8	8	4
144	158	2
31	31	2
16	19	2
132	132	9
120	121	2
87	112	3
68	70	2
34	34	9
115	117	3
35	36	3
103	104	11
91	132	4
1	7	1
15	15	5
77	77	5
137	138	2
98	150	3
136	136	1
26	28	1
97	119	2
108	108	5
128	129	2
85	86	1
114	116	3
75	75	3
129	130	2
78	78	1
80	80	4
121	153	1
108	109	3
45	47	2
17	17	4
81	114	2
21	21	1
72	92	3
46	46	8
62	62	3
2	2	7
42	42	4
156	157	1
139	139	4
113	113	2
120	120	1
29	29	3
153	153	3
82	82	1
156	156	2
44	44	3
153	154	3
8	30	2
83	136	1
147	148	3
14	42	1
111	111	1
11	11	2
37	53	1
22	22	4
146	146	3
105	106	2
138	139	3
23	23	4
144	144	6
100	101	5
6	128	1
109	114	4
115	116	1
16	16	2
130	130	3
25	25	2
50	50	4
99	101	2
135	136	1
157	157	1
110	111	1
31	34	5
64	67	2
34	86	3
38	39	2
37	37	2
90	91	1
5	5	1
14	14	3
3	4	2
19	29	6
69	70	1
96	96	1
13	43	2
155	155	5
107	107	3
83	83	1
55	55	2
114	115	2
0	0	2
106	106	2
69	133	1
18	23	1
112	112	1
141	141	3
54	91	1
21	22	3
144	153	2
122	122	5
134	134	2
104	104	3
139	142	1
0	57	3
10	10	1
89	129	1
24	24	3
45	45	4
28	29	1
103	106	2
67	67	6
90	130	2
148	154	2
78	79	2
158	158	1
117	117	3
6	6	3
88	88	3
29	30	1
98	98	2
70	70	3
125	127	1
83	123	1
3	50	2
1	1	1
145	146	1
151	152	1
20	25	1
91	99	1
154	154	1
97	118	1
122	155	1
121	122	1
80	84	2
95	148	2
113	115	1
85	85	1
81	81	1
119	119	1
5	27	2
37	38	2
115	157	2
116	116	1
81	82	1
10	14	1
28	30	2
1	102	1
27	72	1
142	143	1
100	100	1
144	156	1
123	123	1
142	142	1
88	110	1
126	127	1
116	117	2
148	148	1
89	131	1
126	126	1
18	25	1
