169	170	2
121	137	2
105	105	13
4	4	4
220	220	7
200	201	1
178	178	8
161	161	9
222	224	7
129	130	6
187	187	11
237	241	2
115	116	6
231	231	11
215	216	1
27	28	2
203	204	3
117	117	9
166	168	3
32	32	3
57	57	8
64	65	1
119	119	4
199	199	3
179	179	10
79	79	8
172	197	2
36	36	4
209	210	10
189	189	3
185	185	2
131	131	3
233	234	2
122	147	1
114	114	4
210	210	1
58	82	3
36	41	1
28	28	6
120	120	4
116	118	4
204	204	9
109	109	4
3	3	8
65	65	6
137	162	1
183	183	1
205	205	2
163	163	5
150	152	1
159	160	4
115	118	1
124	144	3
34	35	1
221	221	5
61	72	3
220	230	3
123	123	3
136	136	4
101	101	8
242	242	6
36	56	3
56	79	2
86	86	11
49	49	1
99	99	12
138	138	11
111	111	4
13	15	2
148	148	1
45	47	4
200	200	8
85	86	2
169	169	7
152	170	2
9	9	9
232	233	2
133	139	2
176	176	8
8	8	7
133	134	4
39	39	3
74	74	7
222	222	2
236	238	2
112	113	1
70	75	2
85	85	5
140	140	5
30	31	7
238	238	9
152	152	2
237	237	2
7	7	3
159	159	9
58	58	1
36	37	2
194	194	6
228	228	4
202	202	1
151	151	5
177	177	7
192	208	1
44	44	8
235	237	2
227	228	9
96	96	7
81	83	2
175	176	2
184	184	3
212	213	1
165	165	6
213	214	3
30	30	5
0	0	4
151	152	1
117	118	4
47	47	6
236	236	5
137	140	1
81	81	5
214	214	3
196	196	4
54	54	5
29	31	1
50	50	6
235	236	1
186	186	6
172	172	3
240	240	14
67	163	2
234	237	5
55	56	2
156	156	3
38	38	7
122	124	4
1	205	1
198	198	14
155	156	5
201	201	4
45	45	2
136	141	2
116	116	3
162	162	4
141	161	1
149	149	3
218	218	3
125	146	2
158	158	7
37	37	8
67	67	4
100	100	5
22	22	3
55	85	2
164	164	7
205	206	2
19	19	3
191	191	7
108	108	2
191	195	1
166	166	5
16	16	6
13	13	2
4	102	1
73	73	4
66	66	4
63	63	1
72	72	11
5	5	7
44	45	1
12	12	8
116	151	1
188	188	5
118	119	2
10	10	3
52	53	4
69	69	4
70	202	4
96	97	5
124	125	4
143	146	2
181	181	7
152	187	2
126	139	2
82	82	4
223	223	4
3	6	1
59	59	4
45	46	3
103	105	4
228	230	4
77	77	4
61	61	15
5	6	3
43	43	2
8	21	3
70	70	3
147	184	1
51	51	3
152	153	1
21	21	10
152	169	4
55	57	1
114	118	3
190	190	3
1	2	1
134	135	1
144	144	3
143	143	3
16	55	1
168	168	3
129	134	2
8	9	2
76	76	3
61	170	4
142	142	4
125	125	6
122	161	2
98	99	3
4	6	1
3	32	1
195	205	4
141	142	3
69	70	1
102	102	5
103	103	3
240	241	1
163	164	4
139	139	9
27	27	1
137	137	8
2	6	1
60	61	7
41	42	2
174	174	2
3	33	2
215	215	3
217	217	8
180	180	2
175	175	4
203	203	1
231	232	3
75	76	5
29	29	2
139	140	3
18	18	3
1	1	3
33	33	3
134	134	5
14	15	3
68	68	9
83	84	2
206	208	2
145	145	2
173	175	1
15	16	2
63	64	2
25	178	2
12	13	1
75	77	2
73	75	4
126	126	4
44	47	1
65	66	4
167	167	4
192	192	8
197	197	2
34	63	1
152	165	1
171	171	7
227	227	4
192	194	2
50	54	2
15	15	4
219	219	6
11	36	2
138	139	3
177	178	4
114	115	4
43	53	2
234	234	4
207	207	2
207	223	1
237	239	4
11	32	1
158	202	2
76	81	1
147	149	1
21	22	2
88	88	2
83	83	3
53	53	2
16	17	2
45	50	2
162	164	1
42	42	3
17	17	1
220	240	1
64	64	1
121	121	2
235	235	1
237	238	2
84	84	2
186	189	2
115	115	2
241	241	5
175	198	2
113	113	1
6	34	3
59	60	1
169	196	2
104	104	2
14	18	4
183	184	5
219	220	1
135	136	2
56	57	2
214	215	2
229	229	1
9	42	1
17	128	1
168	191	2
3	7	2
202	203	4
48	48	3
52	52	1
190	191	2
3	204	2
144	145	2
110	110	2
23	23	1
7	8	1
171	172	6
11	31	1
158	160	4
199	200	2
18	19	1
136	139	1
150	150	3
35	35	3
209	227	2
46	46	5
140	141	1
174	175	1
66	68	1
232	232	1
34	34	2
69	174	2
153	155	6
208	211	1
185	198	3
57	58	2
122	122	3
208	208	2
119	120	1
200	204	1
155	155	3
153	156	1
80	83	1
217	218	3
193	193	2
106	106	2
62	62	1
136	138	1
224	235	1
222	230	1
38	48	1
169	239	1
55	66	4
122	141	2
25	25	3
146	147	1
14	19	1
133	133	2
187	198	2
26	50	2
160	160	3
71	112	3
58	64	2
213	213	1
230	230	2
80	80	4
26	26	1
31	31	1
229	230	2
36	59	1
192	193	2
216	216	1
42	65	1
186	187	1
174	199	2
82	83	2
107	107	2
98	98	1
86	96	1
151	154	1
11	15	2
42	43	2
226	227	1
127	128	1
192	216	1
153	154	1
29	30	1
24	49	2
84	85	1
40	40	1
152	204	1
208	219	1
187	190	1
186	213	1
104	105	2
152	155	1
128	128	2
26	46	1
174	178	1
35	36	1
153	153	2
4	7	1
170	179	1
37	175	1
55	55	2
208	217	3
143	145	1
146	146	1
211	211	3
71	71	2
129	136	1
221	229	1
66	67	2
99	100	1
114	136	1
212	212	1
130	132	1
182	183	2
148	185	1
163	165	1
191	192	1
20	20	1
18	20	1
106	108	1
97	97	1
30	33	1
121	157	1
11	11	1
61	64	1
234	238	1
61	63	1
179	180	1
46	50	1
66	119	1
70	76	1
