66	66	11
79	80	3
22	105	3
72	72	4
52	53	4
118	118	3
50	50	4
95	96	8
92	95	1
29	29	4
2	2	4
56	106	2
97	98	3
91	93	2
56	56	1
97	97	3
30	49	1
72	105	2
13	46	5
61	64	1
100	102	2
82	82	3
11	12	3
124	125	2
41	41	6
11	11	4
93	93	7
113	114	2
112	112	6
96	96	2
92	92	4
27	27	1
59	59	4
13	13	5
95	101	3
33	33	2
32	32	3
125	127	1
71	71	7
116	116	1
55	55	3
117	122	5
56	107	3
67	74	2
8	26	2
63	63	3
8	8	4
102	102	3
90	90	6
115	115	1
78	120	2
119	119	3
54	55	3
83	85	3
95	95	3
87	88	1
88	88	2
83	84	3
56	109	1
20	20	1
100	100	1
7	7	4
26	50	2
130	131	2
82	84	2
44	44	1
92	100	1
85	86	2
12	48	3
77	88	1
6	6	9
75	75	8
72	93	3
63	66	1
72	73	1
51	51	1
112	113	3
89	94	3
30	30	4
61	66	2
4	4	1
12	12	4
47	47	5
72	107	1
107	107	1
65	65	1
26	26	2
26	43	5
57	57	9
118	130	1
79	79	2
0	0	2
21	55	1
109	109	5
128	128	3
52	78	1
42	57	3
10	12	1
72	106	4
93	102	1
14	29	1
30	38	1
28	28	2
57	60	1
1	1	2
125	125	5
41	67	1
60	60	5
15	16	2
15	15	4
11	79	2
126	127	2
121	121	2
0	1	1
88	89	2
129	129	1
54	54	2
130	130	2
25	25	3
105	105	5
120	120	2
128	129	3
81	81	1
89	120	1
101	101	2
29	30	2
123	123	3
58	61	1
23	23	2
22	24	2
85	131	3
9	9	1
60	65	2
24	24	2
107	108	2
8	9	2
80	81	2
102	103	1
0	111	1
22	22	2
108	108	1
58	62	1
48	48	4
18	18	4
89	119	2
114	114	2
85	85	4
127	129	1
34	34	2
42	67	2
57	76	1
32	33	1
70	70	3
69	70	2
46	46	4
117	117	1
93	99	3
31	39	1
27	43	1
68	68	1
89	89	1
119	129	1
21	56	2
104	108	1
132	132	4
16	18	2
74	74	2
12	79	3
78	78	2
87	87	2
43	44	1
17	18	1
26	67	1
8	51	1
131	131	1
5	5	2
31	31	2
59	60	1
46	48	1
17	17	3
106	106	4
67	67	1
87	91	1
94	102	3
21	21	3
28	30	2
110	113	2
16	16	3
76	106	2
54	56	1
18	33	1
91	91	3
75	90	3
77	90	1
103	104	3
104	104	2
73	107	2
10	10	1
93	105	1
42	42	2
64	80	1
39	39	1
8	57	1
106	107	1
93	100	1
66	77	1
22	68	1
54	69	1
77	77	1
69	109	1
92	93	1
11	26	1
