198	198	6
121	121	1
48	48	4
36	65	4
156	156	3
62	62	5
102	103	2
97	177	3
161	208	3
106	106	4
112	159	2
3	15	2
26	234	2
31	118	1
24	24	3
191	191	12
0	17	1
14	46	1
170	170	4
208	209	2
32	35	1
63	64	3
64	64	7
86	152	2
49	107	3
59	59	2
150	150	3
219	219	9
99	99	3
222	222	3
77	77	11
4	5	3
243	243	5
220	220	3
32	32	8
210	211	1
162	162	13
220	225	4
46	46	5
181	181	6
156	157	3
229	233	2
78	79	2
172	172	5
75	152	3
200	215	3
19	20	3
203	203	4
237	239	1
63	90	6
177	178	2
175	175	8
171	171	8
230	231	2
163	163	9
169	169	7
167	167	4
5	12	5
28	28	3
118	119	2
55	66	1
153	157	2
9	9	7
55	55	6
192	233	3
91	91	5
205	205	2
176	176	12
51	51	4
83	83	14
38	38	3
228	228	3
27	27	6
161	164	1
238	238	14
17	17	1
119	119	3
111	111	6
212	212	2
168	230	1
49	49	9
29	43	1
84	85	2
153	153	3
245	247	1
166	245	1
114	157	1
72	72	5
226	226	5
147	203	3
231	231	2
107	119	4
76	76	6
199	200	4
95	179	5
240	241	1
108	108	5
64	65	2
154	154	5
72	81	4
22	23	2
47	107	1
56	56	5
171	186	2
217	218	5
61	64	3
203	246	1
82	82	4
23	23	5
213	214	1
240	240	7
235	235	3
223	223	3
161	242	1
88	88	5
41	41	3
210	210	10
69	70	2
234	235	2
157	157	3
239	239	9
88	98	4
8	9	4
5	55	2
220	239	2
94	109	2
74	199	1
104	104	2
184	184	5
50	84	2
222	223	2
81	81	1
29	29	3
243	244	3
13	13	6
180	185	2
174	174	2
187	188	2
229	229	7
238	241	3
237	240	4
33	33	3
195	195	1
21	21	6
111	112	4
155	198	2
92	92	5
192	192	5
177	177	2
62	67	1
5	79	3
106	107	3
220	236	4
236	236	2
165	165	4
48	224	3
171	182	2
211	211	2
52	52	5
74	74	2
203	204	6
246	246	7
3	17	2
101	101	2
152	152	3
64	72	3
168	193	1
163	241	3
7	15	3
160	219	2
197	197	2
201	203	7
189	189	2
1	1	7
247	247	2
15	15	2
36	36	1
97	97	2
233	234	2
211	213	3
65	66	2
89	89	5
241	241	3
172	175	3
214	245	3
187	187	2
166	186	4
37	79	4
5	57	2
161	162	2
80	80	4
185	185	3
35	35	7
103	103	2
219	225	4
121	182	2
216	220	2
116	116	1
63	74	2
107	108	1
11	44	2
4	18	1
200	200	2
21	22	2
214	214	3
2	2	1
3	3	1
232	242	1
221	221	4
58	59	1
162	164	1
23	64	1
242	242	1
45	203	2
61	68	2
218	218	2
7	7	5
225	225	1
7	18	5
222	239	2
48	49	5
153	220	2
100	100	5
26	26	3
182	182	4
78	78	1
184	185	2
168	168	5
232	233	1
1	36	2
105	105	4
38	40	2
239	240	1
199	199	4
214	215	2
237	237	1
19	19	3
175	178	2
105	106	1
158	247	2
145	188	1
88	92	2
38	39	1
16	16	6
47	227	1
57	60	1
44	52	2
166	195	7
152	194	3
20	53	2
146	212	2
17	18	2
245	245	2
232	232	2
43	43	2
8	8	2
106	119	1
98	99	1
58	58	4
33	89	1
211	212	2
179	179	2
94	227	6
61	76	2
107	107	3
65	65	2
33	46	1
158	158	3
51	224	2
4	13	3
22	26	2
76	197	3
31	49	1
154	155	1
95	95	1
44	114	1
70	71	1
74	75	1
178	178	3
57	82	2
207	209	1
153	243	1
107	157	1
54	54	3
148	159	1
160	160	5
189	190	5
112	112	4
6	11	1
145	145	4
245	246	1
180	180	5
153	175	1
33	34	2
237	248	1
94	114	1
109	110	1
198	215	4
96	96	2
155	155	3
225	241	2
111	157	2
66	67	1
6	84	3
237	247	1
154	160	2
11	11	1
218	247	1
14	14	4
10	10	1
58	67	2
107	158	2
184	186	1
63	85	1
177	181	1
202	202	2
84	84	4
215	215	4
44	44	2
151	198	3
120	120	2
98	152	1
90	90	2
66	78	2
4	78	1
43	223	1
166	170	3
16	26	2
118	118	1
201	201	7
165	166	1
16	54	1
192	195	1
29	32	2
81	82	2
6	113	4
209	210	1
190	190	1
163	165	1
86	86	1
87	87	2
63	63	2
177	179	3
52	92	2
79	81	1
90	96	1
102	102	2
176	182	2
49	223	2
67	67	5
73	73	1
1	24	1
15	44	3
73	153	1
234	236	1
194	194	1
32	33	1
110	111	2
164	164	2
169	178	1
44	220	1
167	193	2
6	43	1
189	197	3
87	89	1
145	149	1
28	46	1
37	37	1
216	216	2
168	169	1
88	203	1
166	166	1
165	195	2
85	85	2
42	120	2
207	207	1
12	67	1
236	248	1
6	6	5
8	10	1
18	18	1
174	179	3
193	194	2
165	179	2
236	242	1
60	60	4
145	152	1
195	233	1
32	36	1
165	171	1
49	50	2
31	45	2
31	60	1
80	118	1
180	186	2
148	148	1
209	219	1
21	236	1
3	5	1
167	198	1
239	241	1
149	150	1
46	52	1
157	158	1
178	179	2
70	70	1
66	66	1
29	36	1
98	98	2
167	186	1
3	51	1
34	119	1
213	213	1
211	214	1
166	172	1
93	93	1
65	67	1
20	20	1
10	11	1
61	62	1
62	88	1
196	197	1
153	229	1
161	179	1
168	229	1
108	210	1
166	242	1
42	88	1
63	86	1
49	60	1
161	201	1
92	94	1
4	4	1
100	101	1
29	41	1
34	144	1
182	229	1
214	230	1
1	119	1
80	81	1
39	40	1
61	61	1
206	207	1
94	213	1
52	238	1
190	213	1
