21	21	5
69	69	5
7	11	3
113	113	5
10	10	4
71	71	2
155	157	1
9	15	2
115	115	6
38	46	1
85	85	1
30	30	4
77	78	4
37	42	4
67	69	2
41	43	5
132	132	3
116	131	1
131	146	2
136	136	2
108	150	4
80	80	4
3	3	6
26	26	6
33	55	3
134	134	6
8	8	8
128	128	6
34	34	7
38	106	2
75	75	4
27	33	2
11	11	8
144	157	6
108	108	3
126	149	3
57	75	2
82	82	3
114	121	2
24	24	9
123	142	2
23	23	4
7	23	2
30	31	2
138	139	1
25	47	2
70	70	8
91	92	7
39	49	4
116	135	5
131	131	3
9	28	2
45	45	4
115	116	2
19	19	2
40	51	2
97	97	5
38	38	7
93	116	2
117	118	5
139	139	4
20	21	7
22	23	5
54	55	2
79	79	4
37	37	4
49	49	2
36	42	4
104	104	3
148	148	1
65	69	1
150	150	1
87	87	5
17	17	4
42	42	3
52	55	7
6	6	3
92	105	5
113	136	3
90	92	2
33	34	1
105	109	1
89	89	1
147	150	2
72	72	6
102	125	4
65	68	2
47	51	5
0	0	4
66	66	1
4	4	9
33	43	3
53	57	2
122	158	1
85	93	2
9	9	1
107	117	2
48	52	3
0	11	1
150	153	1
70	83	4
89	109	3
20	20	7
63	63	2
107	125	4
40	40	2
154	159	2
53	53	1
146	157	4
11	12	1
14	29	8
3	19	1
124	134	1
144	144	2
104	118	2
25	25	5
100	116	1
131	144	1
95	105	3
3	10	1
79	80	2
34	35	2
50	53	1
133	133	1
80	83	1
0	16	2
108	125	2
153	153	3
43	43	2
51	52	2
34	37	5
147	155	2
136	137	3
86	100	2
65	65	5
87	95	3
14	14	2
70	90	1
150	154	1
157	157	3
23	32	1
39	39	4
24	27	3
109	118	3
91	91	2
108	115	2
14	30	3
18	70	2
36	50	1
127	127	4
77	77	4
67	67	8
146	146	1
62	81	2
99	113	3
67	68	3
92	92	1
0	4	1
41	41	4
17	53	1
2	3	1
45	52	2
18	39	4
44	48	1
89	105	2
118	118	4
12	14	3
101	101	6
103	103	3
80	104	2
42	52	2
75	86	3
125	125	5
113	143	1
27	43	2
81	83	5
110	148	2
145	158	3
2	17	1
142	142	3
147	158	2
155	156	1
135	135	3
112	143	2
62	62	2
154	154	3
150	151	2
18	18	2
93	93	2
87	91	1
23	25	2
14	26	1
28	28	2
70	91	2
113	125	2
69	79	1
24	41	1
141	145	1
112	112	4
108	111	2
140	141	2
123	133	1
140	156	7
54	54	5
119	125	4
32	32	1
38	55	1
23	43	2
152	152	2
61	61	2
107	120	2
132	144	2
131	132	3
48	51	1
119	119	7
113	131	2
22	22	7
120	136	5
103	108	2
6	92	1
98	116	1
145	154	1
43	85	1
90	90	2
61	106	1
10	14	5
76	97	1
149	153	3
27	27	1
78	79	1
63	91	1
92	118	3
150	152	2
9	12	2
103	105	2
92	115	2
29	33	2
20	35	1
32	46	1
138	152	1
110	110	3
68	69	2
117	126	4
77	128	1
12	27	1
15	27	2
86	87	1
112	126	1
128	134	1
68	68	7
127	148	1
8	11	1
47	71	1
8	28	1
29	29	3
73	73	4
126	136	1
106	106	1
42	43	2
158	158	3
69	75	1
101	105	2
8	16	3
112	117	2
42	49	3
73	75	3
28	29	1
42	48	1
103	118	1
102	110	1
10	37	1
19	26	1
111	122	1
31	31	8
144	156	1
78	81	1
5	19	3
95	95	3
155	155	1
9	23	2
12	12	4
66	68	1
84	84	2
25	27	1
48	48	2
2	2	1
108	114	3
126	126	1
147	156	1
17	51	1
9	13	2
86	86	2
149	149	2
44	55	2
133	147	1
34	50	4
65	73	1
121	133	2
9	10	3
117	117	4
158	159	1
7	9	2
112	125	1
93	94	2
65	75	1
38	41	1
101	121	2
107	124	1
49	54	3
43	55	1
96	102	2
17	40	2
96	140	1
96	116	3
150	158	3
9	14	1
0	3	2
75	91	1
113	130	1
112	130	1
49	50	1
44	44	1
73	97	1
105	105	5
33	44	2
63	84	1
47	47	1
101	102	2
116	116	3
97	107	1
10	12	2
30	37	1
136	148	1
96	124	3
61	67	1
155	158	1
25	29	1
23	118	2
18	26	1
55	55	2
93	110	3
44	54	1
27	47	1
41	46	1
123	145	1
132	136	2
31	32	2
72	89	1
57	57	1
13	13	1
65	79	4
111	125	1
32	36	1
42	55	1
44	51	1
111	118	1
39	41	1
98	98	1
103	114	1
108	134	1
7	22	1
84	85	1
89	90	1
73	90	1
81	81	1
63	77	4
131	155	1
42	50	1
135	150	1
7	7	2
145	145	1
121	130	2
114	114	2
0	1	1
21	32	1
147	147	1
130	145	1
38	44	1
13	23	1
124	124	1
33	71	1
98	124	1
100	101	3
154	155	2
38	39	1
26	127	1
83	83	2
94	94	1
151	156	1
91	94	1
88	89	1
81	82	1
93	113	1
96	96	1
46	53	1
6	8	1
137	137	1
3	16	1
131	145	1
33	88	1
16	24	1
92	111	1
14	27	1
43	46	1
90	114	1
29	47	1
82	83	1
19	20	1
1	8	1
77	99	1
83	85	1
14	15	1
109	111	1
106	125	1
