112	115	4
49	50	5
118	118	6
99	99	9
9	22	2
131	131	1
26	49	3
26	26	5
58	58	8
12	12	4
9	9	8
59	82	1
116	116	3
106	106	4
33	37	6
109	109	8
124	125	1
34	34	8
95	106	5
112	112	8
74	74	3
64	90	1
53	78	6
75	97	2
60	62	1
88	88	1
90	91	2
36	38	1
125	125	7
113	118	9
43	70	3
31	32	1
73	74	4
25	25	5
4	16	5
16	47	1
2	3	5
7	8	2
61	64	6
44	45	3
65	69	5
88	94	1
115	115	9
117	117	3
119	125	2
15	15	5
28	28	2
83	83	3
84	85	4
73	89	2
80	93	1
109	125	2
30	37	5
37	48	3
10	10	7
98	98	3
98	99	7
28	29	4
114	129	4
1	4	8
100	102	1
103	105	4
119	119	9
27	27	4
26	30	2
61	122	1
5	5	7
43	47	3
54	54	8
28	30	2
13	20	3
104	126	5
57	57	8
126	126	6
122	125	1
127	127	2
115	116	5
68	76	3
85	102	2
122	131	1
127	128	1
12	27	4
73	73	8
34	35	1
83	84	2
66	67	7
129	129	3
77	77	7
3	33	4
104	104	3
48	48	2
103	103	7
2	2	9
130	133	6
22	25	2
60	60	2
97	101	2
69	69	2
61	74	3
16	16	12
14	30	4
96	96	4
12	32	1
19	26	5
59	59	4
50	81	1
52	53	1
70	74	5
119	124	3
32	33	2
29	30	3
132	132	5
10	26	2
62	62	4
87	91	11
91	91	2
24	38	2
101	101	3
120	120	8
65	93	5
117	133	1
24	33	3
33	33	4
83	87	1
8	8	8
128	128	5
111	111	4
4	4	6
67	67	11
29	34	1
55	56	2
108	126	1
10	32	1
3	3	3
113	114	3
122	123	2
43	83	1
92	108	2
108	109	1
47	50	4
1	1	9
65	65	2
124	129	1
108	111	2
108	121	1
129	130	1
110	131	4
117	118	3
63	63	4
124	124	8
7	11	4
80	80	4
43	54	5
88	90	2
12	14	3
43	49	2
68	69	1
113	113	4
17	29	2
108	115	1
102	102	8
57	71	2
22	22	7
7	7	3
114	130	3
61	78	3
103	106	4
30	30	1
122	122	5
89	89	3
120	121	2
72	90	3
75	75	7
76	101	3
106	111	3
17	17	2
0	11	1
81	81	3
33	38	6
35	35	4
4	23	1
74	131	1
112	113	3
120	126	1
21	21	2
63	69	3
107	108	4
115	128	1
108	108	4
85	95	4
80	101	2
84	102	3
82	82	2
109	122	2
63	70	2
13	13	6
78	78	4
86	99	2
32	32	3
59	68	5
19	20	2
57	67	2
61	83	1
85	85	3
94	98	4
93	106	5
3	19	2
97	112	3
15	24	2
121	121	1
0	20	4
114	114	5
8	25	3
101	102	1
117	135	1
44	44	4
31	31	1
102	103	4
116	117	3
91	92	1
119	132	1
45	72	2
89	97	2
70	70	4
45	57	3
67	69	6
8	16	2
80	108	3
100	100	1
84	84	1
6	18	2
68	68	4
45	45	2
85	86	2
134	134	3
25	26	1
52	52	2
36	51	1
17	18	2
37	38	1
86	86	2
90	90	2
53	61	2
123	123	3
92	121	1
9	25	1
93	112	2
11	11	2
95	111	1
36	37	2
86	98	2
2	32	1
29	29	2
13	22	1
57	60	1
62	63	1
82	109	4
56	56	2
107	110	3
76	76	1
121	132	1
10	29	5
53	53	2
56	73	2
63	64	2
55	71	2
1	16	1
93	93	2
53	68	1
86	90	3
3	4	4
23	27	1
66	91	3
43	43	1
104	111	1
3	16	2
58	59	1
83	104	2
107	107	1
76	97	2
2	33	2
14	22	1
73	103	2
6	6	1
93	94	2
43	61	1
15	57	1
81	82	1
12	30	1
52	54	1
17	32	1
108	123	1
50	72	1
8	29	1
95	96	2
129	133	1
14	21	3
38	38	1
105	105	1
17	46	1
64	87	1
0	6	1
110	113	3
11	28	1
48	49	1
57	78	1
106	109	1
126	128	1
47	49	1
94	94	1
23	23	1
81	121	1
18	29	1
49	49	1
50	50	1
