30	44	1
28	28	9
31	31	13
27	27	9
10	10	10
7	7	22
41	41	13
9	9	18
6	6	17
16	16	15
42	42	14
69	70	2
73	73	15
28	29	7
26	26	16
57	57	8
8	17	5
48	48	9
3	3	8
58	59	3
2	2	18
4	4	9
30	30	14
74	74	5
55	55	20
53	54	5
72	72	17
31	32	8
45	45	10
47	47	14
37	38	3
38	38	25
73	74	5
14	14	6
71	71	8
11	11	13
79	79	15
26	27	1
18	18	6
29	29	15
17	17	8
49	49	21
74	75	3
15	16	1
7	8	10
43	43	4
54	54	14
8	21	2
33	33	20
64	64	10
20	20	5
13	14	10
59	59	21
1	4	4
1	1	8
80	80	22
8	8	21
80	81	5
32	32	13
19	19	3
34	34	4
75	75	14
78	78	16
76	77	2
40	49	13
13	13	3
10	22	2
48	56	2
65	65	16
53	53	8
35	35	13
58	58	8
51	67	3
32	33	5
3	4	11
60	61	6
61	61	16
76	76	9
29	30	3
43	79	2
55	64	2
63	64	2
60	60	9
77	78	5
39	39	16
30	35	8
25	25	11
1	7	3
50	51	5
28	30	4
12	12	5
77	77	14
68	68	8
37	37	8
34	35	5
16	33	3
10	11	1
19	43	2
78	79	6
42	47	4
8	9	3
40	40	19
41	42	2
27	35	5
5	6	3
14	15	2
51	51	10
34	36	4
15	15	5
16	17	4
19	49	5
62	62	10
52	52	7
70	70	3
71	72	9
66	66	11
50	66	2
30	31	2
15	49	2
57	62	1
46	46	14
36	36	3
50	53	3
31	33	4
63	63	7
4	7	1
57	58	4
41	80	3
56	56	17
29	47	2
2	3	3
17	18	1
64	65	4
13	68	4
28	42	3
5	7	1
32	36	4
69	69	4
51	54	3
3	5	1
37	41	1
44	45	1
79	80	5
27	47	1
12	13	1
17	30	3
5	72	1
46	47	3
52	53	3
55	72	1
59	60	5
56	57	4
60	73	1
39	40	2
54	55	1
73	76	2
40	41	1
25	72	2
6	9	1
42	43	1
0	0	4
56	62	2
5	5	2
27	41	1
10	12	1
32	34	1
27	30	2
48	49	2
12	21	2
50	52	2
12	69	1
17	33	2
29	46	4
3	7	2
16	19	1
25	54	1
0	62	1
53	66	1
10	21	1
39	48	1
17	41	1
17	27	1
49	70	1
49	55	1
36	37	1
65	66	2
66	67	1
67	68	1
50	50	2
44	44	2
30	45	1
20	21	2
14	25	1
69	71	1
40	47	1
55	56	1
4	5	1
4	6	2
67	67	1
25	55	1
41	48	1
55	63	1
38	41	1
40	48	1
38	39	1
7	27	1
