117	117	5
103	104	1
35	35	2
86	87	2
26	45	3
40	40	1
73	73	7
112	113	8
127	127	3
61	61	8
0	0	3
113	113	5
110	134	3
118	119	2
72	94	1
97	97	2
129	129	4
81	81	9
49	50	1
110	110	3
18	93	3
65	65	7
108	125	3
119	120	7
111	126	4
95	95	4
122	123	3
121	122	5
75	75	4
8	8	4
1	2	6
20	20	7
126	134	3
119	119	2
98	107	3
64	65	3
99	100	1
60	61	3
19	100	6
59	60	1
90	90	6
68	68	3
82	82	2
19	20	2
116	116	8
80	80	4
130	130	4
57	58	1
13	13	3
58	58	2
90	93	2
33	44	2
24	24	4
35	43	6
96	101	5
109	110	4
28	48	1
87	87	1
27	29	1
78	79	7
33	43	2
27	27	5
125	125	2
19	19	8
128	129	3
1	1	10
15	15	3
102	102	2
10	10	13
57	57	5
78	78	4
111	114	2
56	107	1
126	126	5
30	30	5
59	109	3
99	99	2
72	72	4
28	29	1
31	31	4
64	72	1
87	92	1
13	14	3
91	91	12
3	3	2
11	12	3
14	14	3
84	92	1
48	48	6
9	10	1
131	131	1
41	41	4
79	79	4
23	29	3
56	56	3
85	85	4
62	62	3
44	46	1
60	64	6
9	9	2
62	63	2
33	33	3
60	74	5
83	84	1
96	96	2
124	124	1
18	57	2
17	85	2
15	16	7
47	71	1
124	125	2
20	22	1
74	84	1
70	70	4
124	128	2
7	30	1
109	109	1
128	128	2
123	123	4
21	21	6
132	132	4
75	76	5
16	16	4
76	77	1
32	32	4
133	133	3
127	132	1
91	92	2
58	93	2
2	2	2
108	108	2
11	11	3
23	23	5
76	76	3
92	92	2
57	72	1
120	120	1
125	126	1
74	74	1
69	69	1
118	118	7
12	12	2
64	64	2
36	36	3
71	71	2
71	72	1
62	73	1
117	118	1
3	9	1
94	94	1
83	83	1
25	25	2
17	17	1
23	44	2
38	38	1
125	128	1
111	117	1
111	111	1
31	32	2
100	100	1
47	47	1
124	129	1
23	49	1
112	112	1
37	37	2
82	83	1
46	70	1
65	66	1
93	93	1
40	42	1
22	22	1
61	77	1
61	62	2
73	74	2
6	6	1
16	35	1
84	85	1
101	101	1
94	95	1
