75	75	70
22	22	9
54	54	41
60	61	8
41	41	20
48	48	28
50	64	7
70	70	66
83	83	40
77	77	69
38	45	8
81	82	29
87	87	43
25	25	42
51	86	1
61	61	47
33	45	6
71	71	56
50	50	31
76	76	55
32	32	16
52	52	39
81	81	65
98	98	29
67	68	37
89	89	63
71	72	19
43	43	26
77	99	6
69	69	58
52	85	4
31	31	22
80	80	82
22	61	2
78	78	62
39	80	1
92	92	33
85	88	4
68	69	26
92	94	8
23	23	3
77	80	5
62	62	38
84	85	9
84	84	45
96	96	24
101	101	28
36	36	31
66	66	94
93	94	11
69	72	2
31	32	9
53	53	57
58	59	10
59	59	27
63	63	77
43	73	3
90	91	7
71	74	4
76	77	26
54	55	16
83	84	11
47	49	6
81	85	1
69	71	4
70	71	20
46	46	40
60	60	26
45	46	7
65	65	82
47	48	15
22	23	5
100	101	4
85	85	52
44	44	31
31	96	3
67	67	57
30	30	13
29	29	34
91	92	21
68	68	57
36	38	9
61	98	4
97	98	11
72	72	88
26	51	3
34	34	36
80	81	34
100	100	38
43	44	8
51	79	8
69	70	30
49	50	19
42	83	5
87	88	21
27	27	29
88	88	52
64	64	91
29	30	4
40	40	28
86	86	39
23	24	9
42	42	54
73	73	87
91	91	49
66	71	2
79	79	54
79	80	31
25	79	3
59	60	8
33	54	3
60	62	9
38	38	46
20	22	5
74	74	52
93	93	44
71	77	7
48	71	4
55	55	28
33	33	19
95	95	20
26	26	18
86	87	15
65	67	8
102	102	5
82	88	5
89	90	12
45	45	29
99	99	33
46	47	21
44	45	4
24	24	17
66	67	13
54	87	2
61	80	3
37	38	18
47	47	40
90	90	43
36	37	13
57	57	32
22	25	7
53	101	3
58	58	34
49	49	14
66	75	12
56	56	23
83	101	4
37	37	23
82	82	22
65	66	10
74	75	18
45	48	5
22	47	3
68	77	1
55	83	4
39	39	29
75	77	1
39	58	4
82	83	2
20	20	18
44	49	3
92	93	6
61	62	2
33	96	2
61	88	14
73	74	15
95	98	7
35	36	16
79	84	6
51	51	27
66	90	7
77	89	5
36	57	9
46	93	1
94	94	18
56	57	5
64	65	12
55	56	7
67	73	8
91	94	2
46	48	5
35	35	20
64	86	3
66	68	5
79	101	2
28	28	15
55	59	4
97	97	13
26	27	9
45	49	2
86	89	5
99	100	2
29	58	2
46	53	1
65	68	5
33	60	4
85	86	7
30	39	2
31	70	1
33	34	6
86	88	5
56	80	5
63	65	2
82	84	3
21	21	2
72	78	2
78	79	4
42	66	4
24	46	3
90	93	1
87	89	2
51	55	2
42	74	3
63	64	22
61	87	6
27	34	3
72	73	6
32	33	1
64	66	2
63	80	1
69	76	2
58	94	4
62	64	4
40	41	6
27	28	4
79	87	2
95	97	5
63	69	5
51	52	12
62	63	21
72	75	4
72	77	3
61	85	6
64	88	2
75	76	15
25	57	3
79	81	10
56	81	3
24	27	12
79	82	2
25	32	4
42	43	7
42	70	1
87	94	5
51	82	5
48	49	11
67	78	1
52	55	2
88	89	6
69	77	6
62	80	2
62	65	2
65	78	2
51	53	1
41	42	11
70	72	5
36	93	2
85	90	1
86	96	3
63	88	4
44	70	4
61	89	2
78	80	2
53	58	3
50	51	5
43	45	5
25	26	20
83	89	2
23	25	3
63	85	2
87	96	1
20	94	3
34	37	2
38	39	10
32	98	1
35	56	1
74	77	1
64	71	1
45	81	3
22	63	3
27	88	4
30	42	1
34	39	1
71	78	2
76	80	1
70	75	4
51	96	1
56	58	5
36	41	5
54	57	3
66	77	3
86	93	2
70	73	1
52	73	2
98	99	1
60	78	2
26	84	1
35	37	5
96	98	4
49	101	3
57	84	1
97	99	3
62	89	2
53	54	8
71	83	1
33	88	5
37	53	1
67	69	2
26	88	3
20	88	2
68	70	2
76	83	1
69	93	1
32	68	2
33	39	4
84	88	2
67	81	3
67	76	2
80	84	1
57	77	1
39	45	1
27	51	4
71	73	1
43	83	2
63	78	3
39	78	4
67	74	4
32	70	2
55	58	3
31	34	5
72	74	4
24	54	1
21	81	2
25	60	1
29	33	2
31	63	5
73	75	1
77	79	3
77	78	2
68	84	2
68	76	2
22	95	1
67	77	2
95	96	9
70	78	1
68	74	2
63	89	1
37	39	1
31	33	4
45	72	2
23	63	1
28	51	2
52	53	3
25	47	1
38	40	1
92	96	2
43	46	4
63	76	1
81	84	4
84	101	2
71	75	4
46	82	1
74	76	3
68	83	1
87	92	1
66	83	1
42	44	4
66	91	2
66	88	1
44	50	1
25	29	1
57	85	1
32	96	3
41	59	1
49	51	1
40	49	1
28	30	1
35	45	1
24	71	1
36	81	4
39	46	2
38	56	1
45	82	1
51	83	1
90	92	1
88	100	1
77	81	3
52	101	2
29	90	1
89	91	4
51	80	2
55	77	4
63	66	1
26	40	1
46	94	2
34	80	2
39	47	1
23	67	1
27	94	1
53	56	2
38	72	1
79	100	1
79	88	1
59	79	2
24	25	1
22	53	1
59	62	1
62	69	2
54	56	1
33	81	1
39	83	4
34	79	1
45	71	1
34	35	3
35	47	1
64	74	2
66	78	1
98	100	1
39	40	3
41	43	1
29	81	1
43	52	1
23	66	1
66	85	1
34	45	1
27	93	1
28	29	1
31	73	1
84	86	1
81	86	1
62	84	2
57	58	1
50	52	1
85	97	1
91	93	1
64	77	2
28	52	1
26	28	1
45	53	1
34	89	1
86	100	1
46	49	1
50	90	1
94	98	1
86	98	1
67	71	1
49	70	1
71	90	1
20	31	1
78	83	1
95	101	1
30	31	1
94	97	1
