151	151	12
64	93	4
9	18	1
69	71	2
8	17	6
145	145	5
145	149	1
3	4	4
107	108	3
10	10	8
63	63	11
122	122	13
25	34	4
124	125	1
92	92	3
135	149	4
85	86	4
17	17	3
115	116	3
125	127	4
68	72	3
52	52	2
21	29	1
51	51	6
4	7	4
2	7	1
148	149	3
87	88	1
137	137	6
72	72	4
78	89	1
45	68	2
80	96	1
25	25	4
36	37	1
152	153	2
134	134	5
40	40	7
144	145	4
101	105	3
34	45	2
139	139	4
132	146	1
30	30	3
83	96	2
144	148	1
106	111	5
121	124	2
82	82	10
5	5	3
154	154	12
46	46	7
13	13	3
16	23	1
63	64	3
100	107	4
58	58	6
122	134	2
132	144	1
104	104	10
132	132	9
83	87	2
79	79	2
83	83	9
86	86	15
63	69	1
6	7	1
131	139	4
38	51	3
140	152	1
85	112	3
16	16	1
131	133	2
22	27	8
139	140	3
11	13	2
28	28	11
75	151	3
92	98	1
112	112	7
100	149	3
62	144	3
62	131	3
69	113	2
116	116	2
136	137	6
42	42	16
57	149	1
113	113	4
141	141	7
45	45	4
117	136	3
38	38	10
53	53	12
20	30	3
75	87	3
104	144	3
143	143	5
38	45	4
18	19	1
94	97	1
113	129	2
125	129	1
90	99	3
81	81	2
137	146	3
124	124	4
15	29	3
106	109	6
33	36	2
135	136	8
145	151	1
47	48	4
119	119	8
76	90	6
129	135	2
102	141	5
38	39	2
90	90	1
84	84	8
70	152	2
24	24	5
68	77	3
74	79	3
135	135	4
153	153	6
76	77	3
49	49	9
120	122	2
72	87	1
5	9	5
136	138	2
93	93	1
6	12	5
11	11	1
4	9	2
146	146	5
95	97	4
22	22	4
97	97	12
99	99	6
12	14	5
17	26	2
108	109	2
142	142	5
33	33	9
109	109	8
39	39	2
12	12	4
106	145	2
9	13	2
152	152	9
75	76	1
50	50	10
55	57	2
136	136	5
82	83	3
33	49	4
21	27	2
22	67	1
69	73	3
69	69	10
150	150	6
5	34	1
23	23	5
127	127	2
78	135	3
12	15	2
15	18	1
31	31	7
108	117	2
125	126	3
54	62	1
65	76	3
110	110	10
101	104	2
106	106	6
94	94	9
65	66	2
73	74	7
23	74	3
103	104	1
135	137	4
102	113	3
140	140	2
43	44	2
19	20	2
153	154	1
27	27	8
98	104	3
123	123	2
137	143	1
8	15	4
32	32	2
16	18	1
138	138	7
107	110	1
65	65	4
108	114	3
68	68	5
95	95	5
111	112	4
143	144	1
5	146	1
100	100	3
131	131	3
96	96	4
16	21	2
127	137	1
25	26	2
74	75	1
82	94	1
149	150	4
21	21	2
8	70	1
14	15	4
2	6	4
17	22	4
131	135	4
85	88	4
6	6	5
103	103	6
39	42	4
83	98	2
71	71	3
111	111	5
36	36	6
41	41	11
4	4	3
31	44	4
85	105	4
13	145	1
107	107	9
94	95	3
117	126	2
139	142	3
76	76	1
6	11	3
123	145	2
142	148	2
115	117	4
35	36	1
99	102	3
87	87	6
26	26	3
78	78	1
120	121	5
62	64	3
142	144	1
55	55	3
119	120	1
113	125	2
147	149	1
67	76	3
53	57	2
47	49	1
55	56	4
146	149	1
68	76	3
151	152	2
143	151	3
35	35	6
109	110	1
38	150	1
109	124	6
70	70	3
15	67	1
137	149	2
44	45	2
138	153	3
12	13	1
67	67	4
19	19	2
105	154	3
83	95	1
26	27	2
7	58	2
110	111	2
29	29	4
13	41	1
96	108	3
23	24	4
109	126	1
74	78	4
115	126	1
56	56	5
26	30	3
92	102	3
25	30	4
4	5	2
139	147	6
147	147	6
95	110	1
80	86	4
37	37	4
88	88	2
97	98	1
109	113	2
15	15	4
114	114	7
96	102	1
101	101	2
9	12	2
120	120	2
90	94	1
125	125	2
92	93	3
144	153	4
149	152	2
119	131	3
125	128	2
2	4	1
118	121	1
118	123	2
7	20	1
133	133	7
131	132	1
39	151	1
12	145	2
130	136	2
62	62	3
110	134	1
48	48	3
97	100	2
25	65	3
39	154	1
148	148	2
11	14	2
65	67	2
20	47	3
141	146	2
52	58	2
145	147	2
141	142	2
98	110	2
54	54	6
134	138	1
118	118	5
31	55	1
109	122	1
89	118	2
112	136	2
4	47	6
61	65	1
85	87	1
72	85	1
38	40	1
126	128	1
7	7	2
91	93	1
138	142	2
57	57	4
43	53	1
111	113	1
62	65	2
44	51	5
111	117	1
26	32	2
121	122	1
95	104	1
44	46	1
76	79	2
127	139	3
46	47	2
43	43	1
11	12	1
73	73	4
128	135	3
123	125	3
30	31	1
26	49	1
71	152	1
86	104	3
15	20	2
126	129	1
64	68	1
87	90	3
105	114	1
21	22	1
71	149	1
4	11	2
94	102	1
72	81	1
3	3	2
73	75	1
116	124	2
99	103	1
130	134	3
127	136	1
73	83	2
131	136	1
98	98	1
27	66	3
49	57	2
130	141	3
34	36	2
84	102	1
68	130	1
54	120	2
103	105	2
128	128	1
76	84	2
102	102	1
89	143	1
117	133	1
112	123	1
121	121	1
84	92	4
56	121	1
80	82	3
39	40	1
117	122	2
104	109	1
93	101	1
67	71	1
24	29	4
9	10	1
14	14	1
107	127	1
101	110	2
82	86	2
3	5	3
39	45	2
64	69	1
67	77	3
91	103	2
49	53	3
129	129	1
68	73	1
47	70	1
142	149	1
69	134	4
150	154	1
128	139	2
72	73	2
128	129	1
29	30	1
7	19	2
35	37	2
102	105	2
126	126	3
130	130	2
8	19	1
140	141	1
77	81	1
8	8	3
106	107	1
125	138	1
47	47	3
76	82	1
20	20	1
77	77	2
85	100	1
55	62	1
108	108	2
116	119	1
27	49	1
24	25	2
62	70	1
89	89	2
117	135	1
133	143	1
125	133	1
42	44	1
71	86	1
5	14	1
9	9	1
35	116	2
126	143	1
128	132	1
87	100	2
116	122	1
54	63	1
78	79	1
105	112	1
66	66	1
146	150	1
117	118	2
67	68	1
15	21	1
14	145	3
45	53	1
11	18	1
141	144	1
22	26	1
113	135	1
146	147	2
117	120	1
44	50	1
101	102	1
122	132	1
149	149	1
