157	157	10
168	168	1
95	95	5
82	82	4
35	35	7
5	5	2
165	165	1
88	88	6
100	101	2
10	10	8
130	130	6
148	148	4
11	11	10
163	163	4
37	37	15
52	52	10
158	158	11
5	62	4
15	15	6
105	106	3
131	133	2
83	83	9
39	39	5
7	7	7
128	128	7
146	147	5
74	110	2
160	160	3
122	122	5
114	114	12
165	170	3
42	43	10
139	141	1
155	155	4
162	162	6
149	150	4
37	42	2
70	70	1
48	48	9
107	107	5
85	86	2
101	102	12
117	117	12
87	87	6
55	55	7
50	51	3
119	122	6
3	107	3
108	108	9
6	10	1
116	117	2
117	127	3
54	54	1
37	101	1
22	23	1
104	105	2
117	131	3
166	166	3
74	75	1
143	143	3
39	41	2
13	13	6
96	125	5
118	119	3
8	9	3
66	66	5
136	164	1
169	170	1
76	76	8
56	56	12
134	135	3
36	36	4
11	46	6
34	35	1
138	138	5
7	99	6
152	153	5
106	106	6
133	133	6
89	89	3
27	27	11
2	2	7
79	79	3
17	17	2
8	8	1
38	39	3
108	167	3
149	154	1
84	84	5
150	154	7
105	105	2
140	159	5
39	45	1
101	154	4
146	146	1
98	99	3
119	119	7
156	156	2
53	53	8
153	153	2
34	36	1
11	25	1
144	144	8
125	125	2
40	45	3
137	137	9
126	126	3
91	91	1
132	132	10
161	161	4
46	46	10
4	4	5
101	101	4
140	140	1
110	112	6
17	18	3
110	111	1
12	12	3
20	20	2
14	15	2
152	152	4
33	36	3
135	169	3
161	165	4
38	41	6
16	16	4
95	126	2
11	13	1
136	136	1
8	10	1
111	112	6
72	73	1
1	2	2
118	124	4
74	86	1
145	145	2
111	111	10
24	51	1
9	9	5
42	42	2
113	135	2
116	116	5
145	158	2
22	22	2
86	86	4
137	138	4
115	115	3
142	142	4
57	57	4
44	44	4
114	115	1
18	18	3
75	76	4
19	21	6
112	112	9
96	96	2
78	80	1
99	99	13
150	150	7
64	64	2
2	132	1
41	41	5
86	92	11
71	71	4
124	124	6
169	169	4
8	11	2
77	77	3
135	135	6
85	85	3
110	110	3
19	20	1
36	42	1
89	95	1
143	146	5
151	154	1
69	70	1
118	118	3
119	121	5
63	127	2
54	55	2
49	49	5
23	23	5
0	19	1
167	167	6
159	159	5
147	147	5
51	51	4
14	14	4
109	168	2
21	21	2
67	68	2
123	123	5
103	103	2
151	151	5
80	84	3
21	23	4
6	6	8
2	136	1
129	130	3
84	138	1
162	163	2
154	155	2
139	139	3
62	62	3
19	24	2
1	1	1
81	105	2
136	137	2
96	97	3
10	47	1
74	92	2
149	149	3
148	154	2
70	112	3
47	47	5
72	90	2
104	104	5
106	157	1
120	120	1
64	117	2
100	156	1
64	65	5
36	37	2
27	49	1
24	24	3
20	22	3
55	57	1
86	93	2
157	159	2
107	138	1
141	142	2
41	43	2
155	156	2
112	135	3
63	63	1
142	144	2
62	63	5
100	100	2
154	154	5
18	20	2
89	90	2
0	0	1
69	69	2
128	129	1
43	43	7
102	102	2
11	38	1
117	130	6
9	10	1
98	98	4
75	75	2
92	93	1
80	80	3
109	109	3
64	131	3
74	76	1
74	74	2
148	150	2
129	129	2
67	113	2
109	160	1
25	26	1
45	45	3
38	38	1
52	53	4
49	52	2
5	63	2
71	73	1
85	96	1
11	125	2
34	34	1
93	93	2
112	113	1
70	71	1
106	155	1
72	91	1
10	11	3
26	49	1
13	41	1
97	97	3
53	54	1
97	105	1
49	50	1
18	23	1
5	7	1
104	155	1
63	64	1
84	97	1
6	47	1
25	25	2
90	112	1
66	67	1
70	72	2
12	13	1
143	154	1
108	158	1
48	49	1
72	72	1
91	93	1
139	142	1
127	129	1
136	160	1
57	132	1
