32	33	6
111	140	4
21	59	3
110	117	3
35	35	4
121	156	1
41	41	5
72	72	8
99	99	6
29	80	1
162	162	4
79	79	6
76	76	3
64	64	8
157	158	3
109	109	8
118	119	1
27	27	4
8	8	4
30	31	8
143	143	2
55	76	2
113	113	1
83	84	3
19	20	6
44	44	2
52	52	5
68	68	3
50	50	3
116	116	7
92	93	3
56	56	4
122	124	1
91	97	1
132	133	3
52	53	4
126	126	2
158	159	4
98	98	6
172	172	1
140	141	2
118	118	6
123	125	11
167	170	2
103	105	1
87	88	2
143	144	4
146	146	4
157	157	8
94	95	2
71	72	4
121	121	5
104	105	3
72	73	2
7	8	4
146	147	1
65	65	10
58	61	2
4	5	2
105	119	3
31	32	3
129	130	3
18	18	3
147	147	3
37	37	4
4	45	2
43	44	4
13	13	3
14	14	10
6	10	1
122	122	3
70	71	2
138	138	6
76	77	5
111	111	5
95	97	1
36	36	2
74	74	2
97	97	1
1	17	1
73	77	1
61	61	2
60	61	1
33	33	3
100	102	3
125	126	4
150	151	2
72	76	1
27	28	5
108	108	7
3	42	1
78	79	5
61	62	2
63	65	7
128	157	2
110	160	1
2	3	1
110	111	2
24	24	7
53	53	2
156	156	9
64	65	10
140	140	9
163	163	7
165	167	4
154	154	5
66	67	2
107	108	2
24	91	2
2	44	1
115	116	3
30	30	1
174	174	3
112	115	4
89	89	5
91	91	3
6	6	1
15	15	2
17	17	5
115	115	7
31	80	1
71	71	5
19	19	3
123	123	1
81	81	2
124	124	9
9	9	5
164	164	5
165	165	4
63	64	4
82	93	1
171	174	2
150	150	2
119	120	2
177	178	2
141	145	5
144	145	1
130	130	3
142	168	5
148	149	2
96	96	7
166	167	1
54	55	9
170	170	4
136	136	3
139	139	2
135	135	3
146	161	2
29	30	2
9	10	2
82	84	1
10	16	2
117	117	3
86	87	2
99	100	4
104	104	3
85	85	3
132	148	2
67	67	15
134	134	3
62	62	4
24	25	4
21	46	3
112	112	7
51	51	9
60	60	5
6	8	2
81	82	2
103	106	2
38	38	2
171	171	3
54	91	3
90	102	1
151	151	4
39	39	6
82	87	2
80	81	1
82	82	1
101	101	2
161	162	4
135	136	1
137	137	2
51	52	5
120	120	4
73	73	3
87	87	4
155	155	4
100	100	6
63	63	1
34	34	5
178	179	1
173	173	3
136	154	1
152	152	3
10	17	1
145	162	4
132	132	4
109	121	3
95	95	1
36	37	2
23	23	3
169	169	2
121	136	1
66	66	8
110	119	2
16	17	4
125	125	7
40	40	1
124	125	3
42	42	5
0	0	4
45	45	4
160	162	2
123	156	1
107	107	2
17	19	2
165	166	1
78	78	1
172	173	4
152	153	1
94	94	1
128	128	3
1	1	2
145	145	3
88	88	3
178	178	3
176	176	1
151	152	3
105	107	1
25	25	5
12	15	1
92	92	5
7	7	3
156	158	3
2	2	5
60	71	3
28	28	3
80	80	2
103	103	4
49	50	2
129	129	3
18	20	1
141	141	7
98	99	1
37	60	1
158	158	8
132	149	2
54	54	2
92	94	2
64	66	1
149	150	2
160	161	1
131	131	3
11	11	5
134	137	1
163	164	4
81	86	3
57	57	2
166	166	1
159	159	5
144	144	1
137	148	1
3	5	1
120	121	2
39	43	1
10	10	1
169	170	1
42	43	2
107	138	2
0	1	1
122	135	1
90	92	1
4	4	3
122	137	1
155	156	1
59	59	1
95	98	3
26	26	2
67	68	2
55	55	6
91	92	3
119	119	6
112	114	2
8	9	1
91	93	1
16	16	4
99	117	1
93	93	4
36	38	2
7	10	1
77	78	1
18	49	1
144	170	1
120	136	1
84	84	3
131	147	2
43	43	3
171	172	1
135	152	2
117	118	1
114	114	5
179	179	1
121	122	1
74	77	2
111	116	1
88	89	3
114	115	1
77	77	3
22	23	2
89	102	1
153	153	4
37	38	1
3	3	2
131	132	1
167	167	2
111	120	2
32	32	1
133	133	3
25	26	5
58	58	3
129	131	1
102	102	5
42	44	1
154	155	1
74	75	2
111	139	1
28	81	1
103	104	2
108	109	1
20	49	1
112	140	3
61	68	1
110	110	1
125	155	1
122	154	1
109	118	1
113	143	1
180	180	1
12	13	1
73	74	1
106	106	1
149	149	2
105	105	1
5	5	1
75	75	2
20	20	1
39	40	1
55	56	2
128	130	1
90	90	2
127	127	1
68	72	1
78	92	1
172	176	1
17	18	1
25	92	1
