61	62	8
71	71	9
29	66	1
83	84	5
43	44	5
129	129	1
114	114	9
72	72	1
23	65	1
116	116	12
84	84	4
66	66	4
87	88	2
53	108	6
21	21	1
17	17	3
100	100	1
70	78	2
25	76	2
49	49	1
131	131	2
67	68	3
126	126	2
124	125	3
50	50	7
51	51	4
127	127	3
123	123	2
65	65	2
54	54	12
25	25	3
105	105	2
0	0	11
57	57	1
41	42	2
15	19	1
1	2	10
75	78	1
126	127	5
68	68	11
13	14	3
8	8	2
61	61	4
52	108	2
44	45	1
124	124	4
14	14	1
63	63	3
78	81	1
102	102	3
1	4	2
63	80	2
46	73	2
12	20	2
101	101	1
10	10	1
133	133	1
13	13	2
60	60	3
69	72	3
47	47	5
9	12	1
111	111	2
121	121	1
59	72	1
97	97	8
71	73	2
30	30	2
94	94	1
74	74	8
83	83	2
78	78	2
81	81	9
109	109	2
82	82	3
70	70	4
60	62	5
37	38	1
127	128	1
11	49	2
88	89	2
125	125	1
15	16	2
26	26	3
63	85	1
117	117	2
66	68	2
89	89	3
31	66	1
69	93	1
93	93	4
28	66	2
101	108	1
75	75	2
15	15	3
122	122	1
3	3	6
44	44	2
58	64	2
120	120	5
75	85	1
85	85	2
132	132	6
24	65	1
52	52	4
12	12	2
40	41	1
44	101	2
6	6	4
92	92	3
67	70	2
76	76	3
79	79	5
83	91	1
32	32	4
32	34	2
11	29	1
1	1	3
112	112	2
56	56	2
16	17	2
73	74	2
93	94	1
58	94	1
98	98	1
7	7	4
90	90	5
92	94	2
33	33	2
70	71	1
119	119	2
118	118	3
130	130	1
4	5	2
115	116	1
128	130	4
106	106	3
33	34	1
128	128	1
27	66	1
8	9	2
91	128	1
65	86	1
103	103	2
28	28	1
19	19	2
15	79	1
115	115	4
90	91	1
126	128	1
80	80	1
81	82	2
27	27	1
111	123	2
100	107	1
32	43	1
1	18	1
80	93	1
77	77	3
15	18	1
9	9	1
84	85	1
27	67	2
34	34	1
11	11	3
3	4	1
5	5	1
125	129	1
102	103	1
29	30	2
38	38	1
23	23	1
78	79	1
63	75	1
110	110	2
71	85	1
47	61	1
52	53	1
67	67	1
1	13	1
54	55	1
6	7	1
16	16	1
55	55	1
22	22	1
18	18	1
39	39	1
41	43	1
97	98	1
