140	140	14
83	83	5
91	91	9
95	98	1
18	23	2
69	69	6
125	125	8
71	71	7
130	131	1
78	78	6
159	159	7
47	47	10
62	62	12
108	108	4
145	146	3
135	135	7
11	11	4
85	86	10
46	46	4
146	146	5
168	170	4
133	133	7
86	87	2
107	107	3
8	13	5
80	81	8
35	35	19
156	156	14
163	163	13
66	66	11
77	77	5
21	21	14
108	109	3
98	98	12
71	74	3
142	142	8
106	106	7
69	70	4
94	95	10
41	41	7
12	12	13
43	43	12
166	166	6
80	80	7
53	54	3
14	15	4
70	70	13
120	121	2
42	42	10
136	136	9
40	41	10
48	63	2
144	144	11
134	159	9
147	152	2
115	115	7
3	14	2
6	6	10
68	69	10
19	19	4
28	28	12
140	147	6
69	85	4
16	16	8
38	40	3
92	150	2
162	163	7
137	137	8
129	129	10
170	170	8
100	100	4
15	37	5
84	85	14
102	105	4
50	73	2
154	154	10
17	18	9
80	96	1
93	134	1
152	152	13
50	50	13
45	45	7
165	165	7
88	88	9
68	70	5
49	49	13
110	110	16
157	158	5
26	27	3
142	143	7
159	160	4
163	165	6
109	109	17
99	99	11
37	37	10
26	26	11
140	141	8
50	51	2
78	79	1
0	6	4
132	133	7
57	57	8
101	105	2
11	65	3
1	125	1
22	22	8
94	98	3
132	132	8
89	107	1
74	81	4
51	72	1
130	130	9
48	48	5
139	139	9
73	73	15
155	157	5
91	98	2
145	145	8
95	95	10
123	123	7
2	2	10
66	123	2
97	97	6
5	5	9
3	7	4
36	36	8
51	52	1
44	44	8
27	27	5
147	154	4
89	89	8
3	4	4
153	153	6
158	158	5
141	141	7
38	38	5
24	24	7
23	23	6
119	119	22
126	140	3
8	8	10
39	40	3
109	110	7
18	18	11
125	126	5
76	76	10
76	77	1
13	13	8
86	86	7
75	75	4
40	40	14
44	45	6
18	41	2
25	26	3
17	17	9
148	149	4
9	11	2
11	64	3
102	102	1
96	96	15
36	37	8
0	0	5
64	65	3
81	82	3
100	152	3
52	52	12
101	114	1
102	106	4
11	20	4
124	124	5
121	122	6
66	83	5
55	55	7
103	131	3
47	48	10
74	74	5
131	131	9
143	144	4
0	1	11
7	9	2
66	161	3
155	155	13
169	170	8
39	39	12
79	79	11
81	81	5
112	116	3
150	150	15
147	147	17
166	167	5
149	149	15
84	84	9
134	134	5
37	38	1
4	47	2
73	77	1
54	54	7
115	116	1
146	149	1
76	79	2
82	82	11
55	56	7
71	90	1
160	160	9
151	151	5
114	115	3
4	4	10
81	100	2
115	123	3
157	157	4
132	136	2
6	10	1
3	8	2
67	70	1
85	103	3
122	123	6
105	105	9
72	72	15
63	63	6
68	68	4
106	107	2
14	14	12
54	55	6
127	127	7
114	122	3
88	89	5
53	111	3
35	36	5
65	66	3
34	34	12
62	63	2
84	86	1
104	104	7
168	168	2
18	43	2
136	137	3
6	8	1
120	122	3
116	123	2
137	159	2
120	120	12
25	25	7
169	169	2
104	105	4
57	63	2
1	14	3
112	112	5
110	111	3
117	117	10
66	157	3
7	7	4
99	145	5
15	15	4
20	150	1
111	111	2
23	24	6
83	85	2
135	136	7
66	67	3
164	165	6
1	2	1
67	68	9
68	161	1
9	58	2
87	89	4
56	56	9
2	3	2
118	162	3
143	143	3
71	72	1
116	116	7
165	166	2
128	129	2
18	46	5
28	65	5
2	20	5
128	128	2
56	57	4
21	22	5
69	73	3
124	125	5
111	112	5
114	117	2
63	70	1
138	138	5
112	114	2
167	167	3
21	24	1
89	145	2
11	12	7
4	80	1
162	165	1
85	97	1
65	65	2
113	115	1
7	13	1
4	5	1
11	13	5
100	101	5
114	114	5
5	6	3
161	161	4
90	90	5
52	54	1
148	148	8
94	94	1
138	139	3
103	103	3
52	53	2
3	3	6
54	118	1
110	114	2
92	92	1
9	9	4
121	121	5
10	11	4
90	91	5
52	57	1
45	48	3
123	154	2
167	169	1
10	10	11
64	64	10
101	103	2
20	21	3
111	119	2
167	168	1
139	140	2
45	46	1
91	92	2
6	13	2
143	146	3
79	93	1
118	118	1
22	23	2
153	154	1
53	53	7
82	83	3
164	164	5
15	36	1
72	89	1
81	83	1
77	78	3
161	163	1
80	122	2
160	161	2
155	156	1
33	34	2
119	122	1
24	49	5
48	50	2
13	14	1
75	76	5
110	116	1
146	147	3
160	170	1
53	56	1
18	110	1
17	105	3
101	101	5
108	110	2
141	143	2
103	104	2
107	108	1
137	149	2
102	103	2
149	150	1
97	98	4
112	121	3
40	62	2
93	95	3
152	153	1
0	5	1
113	114	1
149	153	2
107	119	2
151	152	2
66	105	1
73	75	2
87	87	2
48	49	5
151	155	3
92	120	1
109	111	3
127	152	3
78	81	1
20	23	3
117	120	1
112	149	1
147	148	1
51	51	8
119	120	1
84	92	2
16	18	4
68	73	1
42	43	1
49	50	1
151	154	1
41	47	1
4	78	2
112	119	1
135	169	4
134	137	1
63	64	1
90	150	1
68	82	1
96	97	2
67	67	2
2	84	1
34	35	1
116	117	2
107	155	1
4	56	1
73	154	1
139	144	1
15	16	2
134	160	2
115	125	1
15	44	1
39	41	1
134	135	1
84	87	2
69	155	1
101	121	1
74	80	1
83	86	2
19	115	4
106	108	1
97	114	1
104	106	3
127	135	1
93	94	1
144	145	2
150	151	1
6	7	1
16	38	1
97	99	1
100	119	1
92	95	1
7	10	1
85	85	1
72	73	1
54	112	2
18	112	1
14	27	1
3	10	1
111	118	1
18	24	2
16	17	1
4	6	1
