168	168	6
217	217	17
127	128	3
121	121	5
209	209	5
141	153	2
78	78	6
64	68	3
112	113	1
15	15	2
161	161	7
235	235	7
146	152	2
147	147	5
188	188	16
45	47	3
99	99	12
97	97	13
214	215	2
1	2	2
149	150	5
166	166	8
212	233	2
9	9	7
27	28	1
191	191	18
104	104	15
20	24	3
2	2	3
71	71	12
205	214	2
101	101	17
70	70	13
141	142	2
149	149	7
88	88	3
48	48	17
175	175	11
13	13	1
4	4	11
34	34	6
69	69	1
224	224	8
156	156	4
192	192	8
72	73	3
161	163	3
125	164	3
160	161	3
19	117	1
20	20	6
8	8	11
196	196	2
181	181	13
30	30	7
148	167	4
242	242	13
107	127	2
100	100	9
3	3	7
31	31	6
221	221	5
189	191	7
141	141	16
180	180	3
58	58	10
185	185	9
162	195	2
63	63	9
199	199	8
50	51	2
170	170	8
54	54	7
61	61	8
59	59	5
208	208	12
113	113	8
147	148	11
142	142	5
65	65	8
110	110	3
120	120	6
46	46	14
236	239	5
43	47	3
27	27	15
163	169	6
118	118	2
25	25	8
74	75	1
197	220	5
135	135	8
219	219	7
67	67	3
13	14	5
96	96	4
215	215	9
39	235	2
152	152	15
182	182	7
147	174	2
43	43	14
207	207	6
77	77	1
24	25	2
49	55	2
24	24	5
227	227	5
203	203	3
170	171	3
149	169	6
230	230	6
15	37	1
230	236	5
38	38	9
21	21	5
173	173	8
232	232	7
155	155	8
158	158	4
199	200	6
198	199	1
50	53	1
223	223	9
146	203	8
28	28	10
13	86	1
184	184	4
211	214	2
73	73	10
149	192	4
76	227	4
55	55	14
35	36	2
30	31	3
212	218	3
37	60	1
172	224	2
204	204	5
42	45	1
47	47	19
114	114	2
54	55	3
213	215	2
115	127	2
85	85	7
50	71	2
110	123	9
6	6	10
22	22	2
80	225	1
32	32	4
169	197	1
222	222	8
56	56	4
25	85	4
200	200	4
129	134	2
128	225	4
221	222	1
205	205	8
135	136	4
49	49	11
73	75	3
211	211	5
102	102	13
177	177	1
193	238	4
202	203	3
15	25	3
60	60	5
198	198	3
44	44	6
18	18	11
17	18	2
176	177	3
200	215	1
122	164	1
162	162	4
174	174	6
0	0	3
159	163	5
66	66	5
154	155	3
159	159	5
26	26	15
5	6	4
141	161	2
49	50	2
76	81	2
183	184	1
201	201	5
232	239	2
23	23	7
148	169	3
42	42	12
228	228	5
226	227	3
205	213	3
74	85	4
18	117	3
45	65	3
105	105	10
148	148	7
239	239	1
193	193	4
109	110	2
172	173	3
117	135	2
83	84	1
208	214	4
14	15	2
68	69	2
171	171	4
57	57	5
80	80	4
1	1	6
117	118	2
19	19	7
18	20	2
4	6	2
136	137	4
125	126	2
52	136	3
213	213	9
172	172	6
187	187	9
3	10	4
155	160	1
115	115	8
143	143	5
128	128	3
0	2	1
231	231	8
74	74	4
25	26	2
222	231	2
124	177	1
123	123	6
11	11	7
144	144	6
85	86	3
53	53	9
124	176	1
73	119	1
130	130	2
36	36	8
116	146	3
240	240	10
176	176	7
123	125	1
35	35	3
42	44	2
207	208	4
209	210	2
206	209	2
64	66	2
180	218	3
175	225	2
53	135	2
61	62	3
150	150	4
197	198	2
214	214	7
76	80	5
186	186	7
96	148	2
138	138	12
198	215	1
45	225	2
7	7	3
237	238	2
80	81	1
104	105	3
99	106	2
16	30	6
28	29	2
15	32	1
71	72	3
95	108	1
26	75	3
56	57	3
151	165	1
123	161	3
17	17	4
7	8	1
153	153	2
234	235	3
203	204	3
111	123	2
160	160	8
116	138	2
214	216	3
171	172	2
190	190	5
180	181	7
116	117	2
5	5	3
64	135	3
50	50	6
131	131	5
233	233	9
109	109	3
238	238	6
224	226	1
2	5	2
117	117	6
87	87	1
157	175	1
108	108	5
205	215	1
111	111	2
132	132	1
19	20	2
17	120	2
197	197	1
215	216	2
209	211	1
186	187	4
194	194	7
4	59	1
144	202	2
84	84	2
228	234	2
21	22	1
122	122	4
144	175	4
63	64	3
143	153	8
141	154	2
125	125	3
10	10	3
96	97	8
81	82	2
126	126	5
40	40	1
236	236	2
230	231	2
78	79	2
201	204	4
33	35	1
68	68	4
128	173	4
177	178	4
192	193	3
229	229	1
82	82	3
127	161	1
175	224	1
183	183	8
145	175	1
64	64	2
179	180	5
178	179	2
21	68	1
157	157	6
105	106	3
48	54	1
225	225	7
210	210	3
76	76	5
200	201	1
211	215	1
202	202	5
65	66	2
106	164	1
213	214	1
198	217	1
213	218	2
143	144	2
73	74	7
137	139	1
222	223	2
118	174	2
87	89	2
129	129	16
142	145	4
127	153	3
145	153	3
14	33	5
96	98	1
83	83	8
124	124	3
46	117	2
173	174	3
239	240	1
3	6	2
41	41	3
122	123	2
9	14	3
51	51	1
37	37	4
162	163	2
39	135	2
173	176	2
241	241	6
174	175	3
12	12	3
17	73	2
212	212	3
132	188	2
149	181	2
27	77	1
177	179	2
72	72	3
172	223	3
119	119	7
168	169	3
74	111	3
105	146	1
122	125	1
100	142	2
140	140	4
157	160	2
99	105	2
227	232	1
153	161	2
181	194	1
159	223	1
163	163	2
129	130	2
157	158	1
103	104	2
98	126	2
137	144	1
190	191	3
213	216	2
198	216	1
81	81	3
165	165	6
107	202	2
67	68	1
39	39	2
33	33	4
216	216	2
159	164	2
62	71	2
114	119	1
69	70	3
198	214	4
127	127	6
44	148	2
198	200	2
107	107	5
152	172	1
45	48	1
27	54	1
137	138	2
101	149	2
103	103	5
179	179	2
211	212	4
133	160	2
109	143	2
10	11	4
235	241	2
124	125	2
221	231	2
133	133	5
196	219	1
200	202	2
98	98	2
216	220	1
217	218	1
52	52	2
155	156	2
200	220	2
52	53	1
195	196	4
156	157	2
125	127	1
12	37	2
103	220	1
228	230	6
232	236	2
106	108	1
119	120	2
146	149	1
14	14	2
206	212	2
145	176	1
149	151	2
33	88	1
167	168	3
44	74	1
218	218	5
11	20	1
184	185	3
130	231	1
140	141	1
53	54	2
75	78	1
201	215	2
76	77	2
132	134	1
75	75	1
170	174	2
60	61	1
149	166	1
191	192	1
18	38	1
33	38	1
40	41	2
1	22	1
0	67	1
2	72	2
168	190	1
188	189	1
39	41	1
139	139	3
62	62	1
175	176	4
145	151	1
156	183	1
167	167	5
144	174	2
115	173	1
11	49	1
41	42	2
128	132	3
106	168	2
189	189	1
224	225	2
134	134	2
234	234	5
218	219	3
64	65	1
226	226	3
51	54	1
138	145	1
123	127	1
147	168	2
237	240	1
44	89	1
17	71	1
8	40	2
235	240	1
151	151	1
210	211	2
41	134	1
136	225	2
201	203	2
18	173	2
11	15	1
45	80	1
46	47	1
211	213	2
31	32	1
71	75	1
235	236	2
183	186	1
83	148	1
202	209	1
4	165	2
16	16	1
135	145	1
208	210	2
89	89	2
181	232	1
131	226	2
0	10	1
153	154	1
80	83	2
195	206	1
180	183	2
18	19	1
59	60	1
206	206	2
41	63	1
127	144	1
101	164	1
111	121	1
45	226	1
227	230	1
125	175	1
152	166	1
107	125	1
227	228	2
163	165	1
223	227	3
2	15	1
70	172	2
142	211	2
226	230	2
140	208	2
34	35	1
101	185	1
50	123	1
136	136	2
20	23	1
169	171	1
220	220	1
178	219	1
62	63	1
37	38	1
43	45	1
112	112	1
29	29	1
126	127	4
108	143	1
48	49	1
142	143	1
7	14	4
125	161	1
116	116	1
26	49	3
152	153	1
137	137	1
146	146	2
98	182	2
86	87	2
86	86	2
151	228	1
218	223	1
178	180	1
47	55	1
38	62	1
13	15	1
108	125	1
138	139	1
4	5	1
136	144	2
13	16	1
169	169	1
43	44	1
84	85	1
194	195	2
21	66	1
135	140	1
142	144	1
95	95	1
27	78	1
99	109	1
148	151	1
155	206	1
36	37	1
45	45	1
152	170	1
