160	160	2
143	145	1
38	38	3
94	94	5
38	69	5
40	41	14
147	147	10
2	4	4
31	32	2
90	96	3
59	59	5
7	8	7
36	36	6
164	164	10
69	69	8
147	148	8
63	63	16
66	66	4
196	197	4
18	43	5
187	190	8
172	172	12
52	74	1
5	6	2
52	66	2
148	148	8
20	20	5
178	178	3
138	138	10
7	7	17
111	111	3
8	12	4
69	70	2
103	104	3
36	68	1
21	22	7
22	22	7
70	70	5
131	160	2
135	135	10
83	96	5
116	145	4
59	63	10
98	130	2
191	192	3
26	26	11
45	45	5
185	185	7
156	173	1
42	42	16
196	196	3
48	48	9
71	71	3
101	131	4
182	182	8
65	65	8
43	179	1
158	158	7
152	152	6
2	6	1
96	104	2
3	4	4
54	55	8
80	80	4
123	123	7
97	104	4
124	124	10
118	118	13
49	49	14
112	121	10
78	78	7
106	129	2
113	114	4
13	13	14
10	10	10
4	4	8
194	194	2
14	23	3
89	89	1
18	34	6
102	102	5
108	109	1
13	14	2
128	128	6
20	25	2
44	45	3
35	35	16
113	113	11
151	151	5
76	76	7
146	146	11
160	171	3
128	194	2
116	117	3
10	194	4
190	194	8
151	152	2
157	158	3
45	72	3
1	7	1
118	141	2
134	136	2
68	72	3
95	106	1
31	31	16
102	103	2
119	121	5
190	190	3
157	164	3
114	114	2
30	30	18
130	130	4
42	50	5
127	128	4
12	15	4
108	108	2
13	23	2
58	59	2
57	57	21
148	150	1
145	145	6
192	192	5
191	191	6
121	121	4
130	148	1
19	19	11
82	82	8
25	28	2
193	194	6
179	179	15
177	190	2
133	137	3
197	197	2
129	182	1
79	88	5
61	181	4
1	14	3
95	95	2
149	149	10
64	66	1
24	60	4
47	50	2
180	181	2
121	138	4
68	86	3
115	176	2
193	193	9
45	46	2
5	5	9
107	107	4
3	3	10
103	134	3
120	120	4
50	51	6
105	106	3
24	24	6
159	159	8
134	147	1
180	180	5
12	12	7
8	194	2
46	51	2
156	156	7
149	150	3
64	64	14
85	85	14
35	36	3
125	127	1
40	40	2
52	52	24
88	88	8
77	77	6
122	122	13
20	42	1
101	134	2
9	9	10
55	55	9
19	20	1
25	25	4
2	28	2
37	42	2
51	52	3
32	32	2
151	179	2
145	153	1
127	127	7
166	189	2
115	125	2
37	38	7
78	79	4
177	177	11
161	161	1
34	43	2
42	43	2
131	147	3
171	171	14
139	195	4
83	84	2
86	86	2
68	68	10
102	178	2
66	73	3
88	111	2
129	129	5
103	142	1
98	106	1
122	123	9
17	17	6
136	192	2
163	163	4
39	68	2
17	25	1
52	55	2
143	167	1
146	167	3
173	174	8
167	167	6
106	106	10
189	189	4
57	69	3
79	80	2
124	125	4
64	73	2
125	154	3
134	140	2
104	106	2
19	47	2
126	126	6
14	14	7
144	144	3
75	83	4
95	99	3
158	189	3
161	185	2
46	46	3
37	67	1
157	157	7
101	137	3
107	113	3
165	166	2
178	181	3
128	129	3
182	190	3
47	47	6
81	84	2
132	133	5
27	28	4
153	154	4
100	100	5
1	1	5
24	31	3
97	98	1
67	67	4
107	108	11
56	56	2
44	44	7
55	64	5
83	83	6
175	178	3
51	51	2
137	140	3
2	3	3
59	61	1
99	100	4
34	34	8
156	160	4
179	187	4
194	196	1
109	109	7
176	176	8
41	41	6
31	54	4
29	41	3
134	149	1
128	163	2
54	54	8
174	174	6
33	33	5
20	22	1
37	37	4
60	67	3
53	53	6
83	85	4
103	105	4
170	171	10
169	186	1
11	14	2
177	178	3
75	94	1
44	47	5
115	115	8
113	124	4
147	173	1
161	162	1
185	188	5
16	17	2
20	44	3
39	39	4
143	143	3
50	50	10
37	47	3
21	21	5
143	144	2
72	72	10
130	167	1
61	63	9
62	66	1
28	29	2
79	95	3
41	59	2
60	60	2
186	187	2
134	134	9
70	71	1
60	197	3
175	175	4
59	77	4
90	90	2
184	184	9
8	8	5
73	75	2
145	147	4
65	66	5
32	177	1
134	135	2
129	133	4
162	162	2
66	68	4
87	177	1
133	134	2
2	5	1
62	62	2
24	158	2
154	154	2
140	140	3
119	119	2
43	44	4
132	134	3
98	98	4
129	161	3
93	94	2
125	125	3
60	61	1
20	21	3
147	157	3
100	101	2
142	168	3
159	160	4
187	187	2
56	82	2
16	16	4
142	142	2
22	23	1
64	69	1
12	14	6
120	135	2
191	194	3
48	49	2
183	183	3
34	35	5
109	139	1
187	192	1
38	71	1
75	82	2
1	2	1
30	58	2
63	186	4
103	103	3
85	87	2
135	184	3
47	78	1
155	155	3
47	49	1
55	56	1
80	82	1
3	30	2
137	146	3
117	117	11
20	37	2
44	46	3
184	197	2
37	64	3
28	28	11
51	113	2
136	152	1
140	177	1
136	137	1
75	113	2
6	6	2
100	114	1
79	79	4
23	74	4
162	178	1
9	38	2
163	165	1
62	63	5
26	27	1
1	6	1
190	191	5
121	127	2
138	141	4
150	150	5
165	165	3
70	72	1
60	88	1
170	170	4
113	133	2
43	45	1
101	101	4
173	173	4
186	195	2
179	195	2
18	56	1
157	162	5
150	182	2
123	152	2
166	166	16
7	38	3
87	98	3
32	63	1
95	111	2
112	112	2
43	47	4
15	119	1
74	74	3
24	42	1
188	188	5
55	61	2
17	19	1
57	58	5
124	155	1
99	99	6
3	36	2
114	120	3
178	191	1
156	158	1
54	56	4
97	113	1
15	15	2
136	136	3
163	166	6
79	83	1
158	175	1
110	110	4
36	69	3
174	186	1
4	11	1
100	133	1
60	63	3
19	44	1
128	160	3
32	169	1
148	171	3
52	75	2
66	67	1
100	135	4
136	176	3
195	195	2
52	195	2
61	182	1
19	43	2
31	174	3
68	84	4
73	84	1
61	154	1
123	131	1
115	116	1
0	13	1
195	197	1
43	43	3
81	87	2
165	168	5
100	132	3
61	61	1
161	174	1
39	42	1
38	68	2
0	0	5
20	35	1
126	136	1
2	2	6
172	176	9
58	58	2
11	11	3
90	94	1
155	176	2
117	119	1
120	133	2
6	16	2
13	144	1
9	10	1
152	153	1
82	83	1
116	141	2
119	120	1
23	24	1
121	126	3
123	139	2
139	184	2
131	143	2
25	54	2
139	140	2
142	146	2
167	172	1
14	15	3
58	183	1
164	189	2
135	139	1
186	196	1
50	55	1
89	90	1
131	131	5
4	6	1
15	113	1
9	16	1
135	138	3
128	161	2
87	117	1
16	37	3
119	126	3
133	138	1
132	138	1
161	182	1
6	21	1
12	16	1
168	168	1
152	154	1
18	18	1
106	116	2
127	153	1
3	28	1
86	101	1
106	111	1
116	116	4
95	103	1
1	5	1
11	32	1
20	43	1
148	151	1
74	75	1
131	132	3
64	65	2
59	179	1
117	118	5
150	152	2
72	73	1
152	159	1
121	134	2
145	154	1
152	156	2
188	189	2
132	132	1
150	160	1
120	184	1
186	186	4
140	141	2
108	112	1
127	134	1
45	51	2
105	132	1
44	51	2
120	171	1
96	113	1
87	99	2
17	18	1
192	193	1
101	163	1
77	79	1
95	120	3
125	171	1
61	70	1
80	86	1
139	139	1
106	115	1
58	83	1
13	57	1
93	95	1
81	81	1
179	190	1
21	29	1
53	65	1
97	130	2
30	32	1
98	104	1
170	185	1
39	172	5
16	30	1
36	76	1
30	31	1
40	52	1
25	29	1
14	46	2
158	192	1
61	76	1
146	147	2
96	96	2
57	59	2
115	145	1
114	117	2
98	100	1
44	119	1
4	26	1
65	68	1
5	7	1
110	125	2
38	39	2
126	155	2
146	177	1
35	40	1
126	127	1
33	34	1
19	51	1
147	160	1
133	133	1
108	144	1
9	186	1
118	128	1
122	159	1
142	145	1
104	104	1
134	138	1
158	159	1
41	42	1
62	77	1
0	5	1
177	194	1
141	141	4
97	111	1
82	87	1
106	107	1
3	27	1
94	153	1
31	68	1
76	77	1
87	87	1
110	123	1
142	170	1
165	175	1
40	76	1
8	27	1
22	25	1
157	161	1
194	195	1
126	153	1
116	118	1
128	137	1
54	66	1
117	140	1
