63	64	13
25	26	4
72	76	7
93	93	14
4	5	7
102	103	3
132	132	11
53	53	19
120	120	5
12	12	13
86	87	2
97	97	2
8	8	15
122	122	7
9	9	13
3	5	3
127	127	15
73	76	8
101	101	6
81	84	5
68	69	3
21	21	7
68	70	4
44	44	7
119	119	26
29	29	3
46	46	11
67	67	9
111	111	11
70	70	8
129	129	10
48	48	13
74	74	13
115	115	7
112	113	5
44	45	5
32	39	8
31	31	7
29	30	3
60	60	3
79	79	8
14	14	9
45	45	11
104	107	5
23	23	28
22	25	2
13	13	35
8	9	3
123	123	9
1	2	7
58	58	10
103	103	15
116	116	8
102	102	11
77	78	6
109	109	8
18	19	3
48	55	3
57	57	11
89	89	19
124	124	15
33	33	9
23	44	2
48	54	5
96	96	9
112	112	12
99	99	6
16	18	3
41	41	4
34	34	13
66	66	4
127	128	15
13	21	8
30	30	18
28	28	8
124	125	2
111	112	3
45	46	8
83	83	9
39	40	6
56	56	9
50	51	2
98	101	2
110	110	12
92	98	1
81	111	1
104	104	6
71	71	8
92	92	3
1	1	6
75	75	12
32	32	5
81	81	10
122	123	2
117	118	2
2	4	5
89	90	6
114	114	6
26	26	8
40	43	1
38	38	8
107	108	2
84	111	5
96	98	10
78	79	3
11	12	3
24	24	7
12	14	1
19	19	6
116	117	11
2	2	5
39	39	7
109	111	1
87	88	2
86	86	8
54	57	2
104	110	1
22	22	5
85	87	4
43	44	10
60	72	3
120	122	2
101	108	1
113	113	10
126	128	4
101	102	5
5	5	15
90	91	1
68	68	14
126	126	7
128	129	2
125	125	8
90	90	4
60	61	2
78	88	3
61	61	4
130	130	10
81	82	8
66	67	5
99	101	5
32	33	2
94	94	6
1	77	2
105	107	8
21	22	3
85	109	1
55	55	8
85	114	1
65	66	6
108	108	18
47	47	10
95	95	5
128	128	5
16	16	6
38	39	4
10	10	6
26	27	4
6	7	7
0	0	9
3	4	6
110	111	1
81	83	1
59	59	9
51	51	9
84	103	1
69	69	6
7	8	5
15	15	7
43	43	8
6	6	7
41	42	7
131	131	17
4	4	4
105	105	1
29	40	6
108	109	2
126	127	7
60	74	7
97	101	2
91	91	13
33	47	8
27	28	4
113	114	3
133	133	5
126	131	2
41	44	2
105	106	3
104	109	1
62	62	7
106	106	9
6	28	2
73	73	5
54	54	9
72	72	3
50	50	6
118	118	5
24	26	1
72	74	1
17	17	5
77	77	3
79	87	5
85	86	1
90	96	3
3	3	12
52	52	4
107	107	10
20	20	7
25	25	5
104	105	2
83	85	5
63	63	5
46	47	1
27	27	3
24	25	2
75	91	3
83	107	3
94	95	4
112	117	2
54	55	7
82	84	1
98	98	7
77	94	4
75	92	4
17	18	2
76	94	1
106	107	2
85	85	6
67	68	1
40	40	8
88	88	2
78	78	5
130	131	2
74	92	2
49	49	12
22	24	2
86	109	2
69	70	1
15	16	2
7	7	2
5	6	3
31	32	1
59	60	7
76	76	7
23	26	2
28	30	2
48	59	1
117	117	2
29	31	3
86	114	3
121	121	7
95	96	4
34	47	2
82	83	4
118	119	1
58	59	1
14	15	2
129	131	1
88	94	4
71	73	3
83	84	2
116	119	1
9	10	1
81	85	3
77	91	1
77	79	2
70	76	2
5	7	3
62	71	1
85	110	1
18	18	1
103	104	2
0	1	2
30	41	3
125	126	1
22	26	1
2	3	2
98	99	1
42	42	2
19	21	2
82	82	1
91	93	1
13	16	1
63	69	2
13	14	4
57	58	3
61	62	2
58	72	1
26	41	1
53	54	1
80	81	2
26	42	1
123	124	3
5	31	1
109	110	1
89	95	2
30	31	1
11	11	1
90	103	1
92	96	1
64	64	1
10	11	1
64	69	1
79	80	1
80	112	1
80	80	1
120	121	1
12	13	1
71	72	1
124	129	1
48	58	1
70	72	1
131	132	1
