59	63	5
133	134	8
112	161	2
158	158	24
152	154	5
38	41	2
58	58	14
108	108	18
174	174	11
52	52	10
149	150	4
76	76	15
96	100	1
93	94	3
43	44	3
144	144	16
122	124	3
156	156	13
14	14	9
125	125	6
92	92	7
151	151	15
134	137	1
132	177	1
121	122	6
140	140	10
44	79	1
75	75	20
148	148	9
105	105	15
96	98	5
154	154	21
86	87	2
176	176	13
58	59	7
84	151	2
42	42	10
104	105	6
85	86	2
164	164	10
81	81	16
18	50	2
92	113	6
114	129	1
158	159	5
79	79	7
108	165	1
8	8	15
38	38	6
20	20	7
88	88	8
134	134	7
111	113	2
103	103	9
163	163	19
135	136	4
98	151	2
18	18	10
142	143	3
171	171	13
166	168	4
57	68	2
103	104	8
12	45	4
79	123	5
112	112	23
54	54	18
95	95	15
164	173	6
104	145	1
28	28	9
157	162	2
97	173	1
51	51	11
25	25	11
121	121	15
129	129	20
61	107	1
155	155	14
57	131	1
5	5	13
156	157	6
57	57	16
80	80	22
132	133	8
45	45	1
103	171	5
22	22	14
101	101	27
17	41	2
120	121	2
37	38	5
150	150	20
110	110	11
35	35	7
43	43	19
45	57	2
163	164	2
89	89	11
96	117	1
10	11	3
79	159	2
133	133	21
94	175	2
61	61	23
140	155	2
63	100	4
126	126	13
136	140	5
66	66	11
19	19	4
4	5	10
90	169	2
168	168	16
160	165	1
31	36	2
169	169	13
2	39	7
71	71	18
0	0	16
78	78	17
98	116	3
31	31	22
104	104	10
71	73	2
84	84	10
160	162	2
25	50	1
14	42	2
33	33	8
90	95	3
57	59	5
36	36	9
27	27	19
117	118	4
17	17	7
147	154	5
106	107	7
57	58	4
81	82	10
49	49	3
88	89	8
107	107	11
5	6	5
9	41	3
0	39	5
7	7	12
90	173	2
139	139	22
37	37	7
17	43	8
143	150	3
124	124	9
24	24	7
27	30	5
119	119	5
55	55	12
101	173	7
44	44	11
18	20	5
54	55	8
87	168	2
89	90	8
140	141	2
162	162	11
61	103	2
90	90	11
32	32	22
123	125	3
131	131	11
122	122	10
14	19	2
116	117	4
137	137	17
64	179	3
64	108	3
146	146	7
157	157	21
178	178	9
109	109	17
119	120	1
26	26	8
98	98	6
115	115	19
30	30	11
177	178	9
99	99	7
21	24	3
63	63	5
132	172	2
15	16	2
164	167	2
78	127	4
86	86	12
136	137	2
153	153	20
106	180	2
103	106	4
152	153	9
28	29	7
94	95	3
151	152	6
12	12	8
28	41	1
96	120	2
75	76	9
41	41	8
165	165	6
65	65	13
161	161	9
2	3	9
130	131	4
52	133	1
91	91	20
154	162	4
52	53	9
175	175	11
29	37	2
19	22	1
29	29	11
30	31	2
134	135	3
141	144	3
116	120	1
67	67	8
62	134	1
1	1	2
9	9	5
132	160	4
16	16	7
114	114	6
136	136	13
12	41	1
87	88	2
50	57	2
172	172	7
103	107	6
59	59	10
60	60	2
84	155	2
17	42	1
40	40	13
11	45	1
132	132	11
6	6	5
84	156	2
59	146	2
104	179	5
90	92	5
34	34	4
35	39	3
144	145	7
106	106	28
120	120	13
179	179	14
85	96	2
100	100	8
65	121	6
166	166	20
72	72	5
38	42	3
68	68	13
112	132	1
173	173	11
160	160	9
96	96	8
149	149	21
13	15	4
64	164	5
142	142	11
105	106	5
25	26	4
126	127	7
87	87	8
23	23	13
114	115	2
140	175	2
145	148	5
87	90	4
166	167	3
162	163	2
165	166	3
101	146	3
127	128	6
116	116	15
99	101	2
14	40	4
80	90	2
117	136	2
170	170	6
155	162	6
61	98	2
97	101	4
127	127	15
27	29	1
83	85	4
13	17	4
178	180	1
128	129	2
155	156	2
58	147	1
159	161	2
19	25	1
14	15	3
177	177	8
96	174	1
50	50	3
61	159	3
138	138	9
74	74	11
164	165	2
61	135	3
15	17	2
146	150	2
24	29	5
22	35	1
86	88	2
3	7	3
80	84	1
113	113	18
0	6	1
107	109	3
64	165	4
27	28	5
56	57	6
148	149	4
82	82	4
3	3	5
112	117	5
73	73	10
130	132	3
92	94	6
85	85	8
71	74	3
120	138	2
146	147	7
129	130	2
56	56	6
153	154	5
81	89	3
32	39	4
111	172	2
60	61	9
54	131	5
66	67	2
113	166	1
4	4	12
21	21	11
22	127	1
74	77	1
68	73	3
119	121	2
145	145	16
70	71	5
118	138	3
80	82	3
20	125	1
180	180	6
73	74	4
78	83	1
172	174	3
141	141	12
8	9	3
102	145	3
117	117	3
52	121	3
96	97	3
156	161	1
90	91	3
10	10	11
7	9	2
167	170	3
63	68	1
150	155	6
18	23	2
64	118	2
81	155	2
81	85	1
76	77	3
52	54	7
50	51	4
77	129	5
143	143	10
123	123	2
93	93	7
27	37	5
159	159	12
35	36	3
150	154	2
55	140	3
104	106	1
39	39	4
135	135	6
13	34	1
43	45	3
97	155	4
102	102	3
111	126	3
147	147	5
77	77	16
41	43	1
61	63	2
14	79	2
15	18	2
176	177	2
108	109	2
152	152	5
118	119	3
64	112	2
10	28	1
141	165	3
162	164	1
18	22	1
81	156	3
62	62	4
7	11	4
59	62	3
80	141	6
20	22	2
57	126	1
163	174	2
11	33	3
77	78	3
13	13	8
8	29	1
66	179	1
81	169	1
92	141	2
62	63	6
55	56	5
22	24	1
110	153	1
51	52	5
94	174	2
167	167	2
133	139	1
115	136	3
168	173	2
53	53	5
133	138	5
165	170	2
12	13	2
11	11	8
119	146	2
178	179	1
29	35	3
72	168	2
32	41	1
113	172	3
87	175	2
45	50	2
57	98	1
77	114	1
3	27	1
71	127	1
104	107	3
113	114	2
128	128	4
145	146	1
116	122	1
66	172	1
26	27	2
46	46	2
92	144	3
106	115	2
0	38	3
22	25	2
170	171	2
131	132	1
99	162	2
77	132	2
123	124	2
92	93	2
16	42	1
174	175	3
33	34	4
142	160	1
80	81	3
24	27	3
94	94	2
64	100	2
12	44	2
34	39	4
134	175	1
25	29	2
102	172	2
67	95	1
123	129	1
64	102	1
118	118	5
98	131	1
91	92	1
142	151	3
135	158	1
138	139	2
53	132	1
168	175	1
141	145	2
49	56	1
94	145	2
150	153	1
84	90	2
78	90	3
11	13	7
45	55	2
112	127	2
145	151	1
82	174	1
83	84	2
45	49	3
134	136	2
135	137	1
11	12	1
32	45	1
101	174	1
100	114	4
87	95	1
111	152	3
62	100	2
126	131	3
97	97	1
71	126	1
2	2	1
77	137	1
31	32	2
6	8	1
1	32	2
53	128	1
97	170	1
65	66	4
161	162	1
65	118	1
38	39	1
20	36	1
34	41	1
78	130	1
137	159	2
160	161	3
3	39	1
29	30	1
112	125	1
68	79	1
114	117	1
19	26	1
112	126	2
78	129	1
95	97	1
55	57	1
7	39	1
25	42	1
8	11	2
60	172	1
22	23	1
88	173	1
24	42	1
175	176	3
139	140	2
168	172	3
135	159	1
165	171	1
28	31	3
25	32	2
98	115	1
93	174	2
137	140	2
18	21	1
6	7	4
64	101	1
163	167	2
10	27	1
145	149	3
32	33	1
78	106	1
82	101	1
96	115	3
111	111	5
141	143	1
101	145	1
98	100	2
147	148	6
88	174	2
141	142	1
15	15	2
111	112	1
54	126	1
79	80	3
144	148	1
36	126	2
9	33	2
82	156	1
60	150	2
19	45	1
45	56	1
143	144	1
110	155	1
106	171	3
150	151	2
101	178	1
10	31	2
138	140	1
83	86	1
82	155	1
99	100	2
61	172	2
177	179	2
9	10	1
54	133	1
54	64	2
143	145	2
65	119	1
164	170	1
140	156	2
15	84	1
110	115	1
163	165	1
14	43	1
89	141	1
37	41	1
61	147	1
139	171	1
146	154	1
90	97	3
58	63	2
84	167	1
109	115	1
98	165	2
164	166	1
89	174	1
124	131	1
29	31	1
112	158	1
59	60	1
14	16	1
1	19	1
97	116	1
165	173	1
150	152	1
125	126	1
102	173	1
24	51	2
114	116	1
79	137	1
63	180	1
18	19	1
60	145	1
84	85	1
106	179	2
159	162	1
65	67	1
58	65	1
64	65	1
154	155	1
11	18	1
12	37	1
5	9	1
58	160	1
122	131	1
14	41	1
58	67	1
