82	82	6
135	135	15
100	100	13
123	123	15
139	139	12
39	39	9
130	131	8
54	85	3
4	4	8
44	44	9
31	31	7
49	50	7
73	73	18
38	40	2
61	62	2
109	136	3
30	30	7
19	20	3
128	128	13
70	70	8
18	18	8
29	29	20
70	71	2
120	120	7
96	96	13
35	36	14
21	21	5
112	113	9
111	118	2
26	27	10
8	36	3
69	69	8
32	62	3
118	118	7
53	53	10
111	112	1
22	22	12
11	11	6
12	13	12
67	68	8
37	38	3
43	86	2
85	85	13
3	3	7
143	143	10
97	97	13
78	78	3
100	102	2
130	130	9
86	88	2
15	16	1
95	95	13
13	13	13
131	132	3
103	103	12
111	111	15
18	19	6
116	125	1
137	138	2
122	127	4
82	83	3
13	37	2
39	40	9
92	92	5
140	140	2
107	107	8
108	108	7
77	77	4
118	135	1
129	130	7
72	72	6
15	15	6
26	26	4
83	83	4
80	83	3
69	119	1
58	138	1
66	66	6
50	50	14
47	47	5
132	132	8
127	128	3
82	128	1
150	151	1
134	134	3
43	43	8
8	32	1
41	42	6
115	115	4
141	142	9
29	30	2
46	46	4
67	67	11
76	79	2
153	153	4
113	113	28
102	102	9
114	114	5
138	139	2
17	17	10
83	84	10
22	25	5
80	84	4
109	110	2
113	114	3
129	129	5
3	8	4
65	138	5
25	25	11
122	128	3
3	36	1
110	110	8
116	116	7
84	85	5
25	26	1
6	6	9
105	105	5
23	27	3
74	74	7
56	56	9
107	129	2
58	67	3
64	64	2
136	136	6
75	75	3
48	48	8
72	73	2
95	96	3
98	99	2
7	34	2
22	23	6
90	94	2
55	55	5
37	37	6
9	9	10
124	124	3
104	107	2
29	99	1
20	21	4
86	86	9
68	71	2
56	82	2
71	71	9
112	117	3
52	52	3
28	29	2
98	98	1
17	20	1
140	141	2
68	68	8
94	120	3
62	62	4
54	54	1
71	84	2
69	70	2
84	84	3
138	138	11
150	150	4
133	134	1
20	20	6
112	112	7
8	8	3
151	151	2
72	74	2
17	25	3
19	19	3
119	119	7
97	98	1
112	122	4
63	63	5
45	45	4
30	103	1
7	7	2
73	74	5
24	25	5
122	122	8
62	104	3
42	42	3
28	30	4
21	30	3
102	103	3
14	14	9
153	154	1
104	105	1
111	134	4
44	45	2
16	16	7
123	150	1
4	5	4
12	12	8
93	93	2
123	124	7
16	21	1
141	141	5
9	10	2
86	120	4
74	122	1
87	88	3
23	23	8
46	47	3
71	75	1
76	76	2
2	3	3
57	105	4
31	56	1
94	94	3
147	148	2
56	83	3
41	41	5
142	142	2
145	145	2
10	14	1
40	40	3
30	76	3
101	101	1
36	36	4
13	101	3
31	102	5
71	72	2
13	16	2
75	77	1
139	141	4
34	34	4
106	139	2
21	25	1
137	137	4
133	133	3
121	121	1
36	37	3
123	127	2
122	146	2
45	46	1
126	127	1
57	57	1
53	54	4
131	131	7
51	51	5
73	97	1
32	32	2
49	49	1
10	15	2
99	99	2
78	79	2
4	33	1
38	38	1
30	31	1
101	102	1
17	21	1
106	106	4
144	144	1
27	27	7
84	94	2
19	23	1
152	152	1
109	132	2
96	97	4
62	64	1
35	35	2
50	120	2
113	145	3
28	28	2
24	24	6
33	34	2
41	45	5
10	10	2
111	120	5
42	43	2
32	34	3
57	81	1
132	133	1
88	88	1
116	141	2
67	75	2
63	64	1
14	16	1
26	31	1
142	143	1
30	34	3
3	9	1
33	33	2
127	127	1
148	148	2
116	127	2
48	85	2
84	88	2
11	12	2
54	67	1
5	32	3
115	143	2
2	2	1
80	80	3
125	125	1
125	126	2
14	15	1
79	79	3
57	101	2
40	43	2
51	121	1
150	152	2
32	33	1
3	7	1
78	81	1
13	14	1
16	22	1
94	98	1
22	26	1
23	26	1
91	120	2
17	18	1
147	147	2
48	49	1
96	106	1
108	109	2
116	147	1
80	128	1
79	80	1
116	128	1
80	81	1
96	99	1
114	138	1
13	15	1
16	17	1
79	81	1
117	117	2
110	149	1
40	52	1
57	58	1
64	76	1
144	145	1
115	116	2
72	75	2
37	40	2
11	14	1
38	39	1
152	153	1
131	134	1
54	55	1
28	99	1
103	105	1
65	136	1
102	123	1
18	20	1
68	69	1
65	77	1
40	45	1
