210	210	8
237	237	3
51	51	4
113	113	4
216	216	5
157	157	3
28	28	2
71	71	2
75	77	3
125	127	7
163	163	3
206	206	6
55	55	7
221	222	1
103	103	4
194	194	2
188	189	4
144	144	12
7	7	2
115	115	4
122	122	8
30	30	6
37	37	6
230	231	3
102	102	7
104	108	4
229	229	6
81	82	5
39	40	2
164	164	6
11	11	4
175	175	3
220	220	1
215	218	2
167	167	4
16	16	3
227	227	2
214	214	5
108	108	5
79	80	1
144	145	7
223	223	5
215	215	5
165	169	4
211	218	1
139	139	2
153	226	2
47	64	3
50	50	4
24	24	4
143	143	4
232	232	3
44	74	2
241	241	5
208	209	9
57	58	3
217	225	5
110	110	2
176	178	3
35	35	4
162	165	3
238	238	4
113	116	1
48	48	6
22	22	5
153	157	2
51	53	7
225	225	7
89	89	2
95	96	1
46	46	4
234	234	5
173	174	3
105	106	1
34	34	4
194	195	2
230	230	2
236	236	7
26	42	1
14	14	11
166	207	2
197	198	5
2	125	2
183	183	3
17	23	2
205	206	6
63	63	5
58	60	3
198	199	3
81	81	9
184	184	9
129	129	4
137	141	5
163	165	8
49	49	4
158	234	2
122	125	3
146	147	1
159	159	2
149	149	3
100	101	1
225	228	1
114	114	3
5	124	4
174	174	4
7	126	2
123	126	2
153	154	4
1	157	4
62	62	8
23	23	5
119	119	3
41	41	8
211	211	6
17	17	9
148	148	4
142	145	2
235	235	2
182	182	2
190	190	1
145	145	8
46	47	2
199	199	7
160	236	2
25	25	4
180	180	1
83	83	7
4	6	2
158	158	5
221	221	4
217	217	4
100	100	2
137	138	2
207	207	5
102	136	4
146	148	1
26	62	2
217	218	2
96	96	2
116	116	3
189	189	3
155	156	1
171	171	2
172	172	1
116	117	2
224	224	1
2	6	2
40	40	5
95	95	4
179	180	3
13	16	2
37	61	4
53	65	1
59	59	9
177	177	3
97	97	6
204	204	3
7	12	4
124	126	2
215	217	3
24	40	1
162	192	3
134	184	4
136	137	2
187	187	5
36	53	1
1	6	2
5	5	2
19	19	1
15	29	3
156	156	7
3	127	2
121	122	1
56	56	1
39	39	4
131	131	5
164	165	1
59	60	3
136	181	2
57	57	3
22	23	4
73	74	2
121	121	1
9	9	6
236	238	1
17	18	2
84	84	3
146	146	3
135	135	3
207	208	3
120	120	4
13	13	2
202	202	3
170	171	2
136	136	2
31	31	5
75	75	4
117	118	7
15	15	1
112	112	2
142	143	3
117	117	2
233	234	1
72	84	3
169	169	3
68	68	2
129	130	1
224	228	1
3	5	1
201	201	5
149	150	3
134	135	3
80	81	1
161	161	3
233	233	1
104	104	3
176	179	1
195	195	2
144	189	2
99	99	1
190	192	1
58	58	1
118	118	1
0	0	1
27	27	2
40	46	1
10	10	4
185	186	3
176	176	4
179	179	3
72	72	4
42	43	3
82	82	5
219	219	5
191	192	1
168	168	4
127	128	3
44	44	2
71	72	2
138	138	7
153	153	4
2	3	2
134	134	2
76	76	6
150	152	3
6	6	4
228	228	1
27	28	3
176	177	1
4	12	3
45	45	1
162	164	1
189	190	3
148	151	3
165	165	2
101	101	5
29	30	1
8	129	1
98	98	4
175	176	2
150	151	5
193	193	1
12	123	2
54	60	2
200	200	3
65	65	2
1	2	2
14	15	4
60	60	1
117	146	2
234	235	1
127	127	1
66	66	2
156	157	1
84	85	1
193	195	1
4	7	2
0	3	3
11	13	1
239	239	4
26	38	1
77	77	1
70	73	2
19	23	2
141	144	1
26	41	1
54	54	2
8	8	2
12	12	3
29	29	2
192	192	1
29	106	2
162	162	1
203	204	1
241	242	1
172	173	1
218	218	1
124	124	1
21	21	1
154	154	1
107	107	3
35	68	2
109	109	1
138	139	2
3	3	1
197	197	3
133	133	1
208	210	1
224	225	1
169	170	3
118	119	1
140	141	1
226	226	1
188	194	1
30	32	1
170	170	2
152	152	2
86	86	2
37	38	1
208	208	1
175	193	1
162	193	1
226	232	1
30	31	2
173	173	1
219	220	1
43	43	1
95	181	1
9	10	1
25	29	1
110	121	1
8	130	1
63	64	1
54	64	1
35	36	1
70	97	1
23	63	1
195	196	1
148	150	1
39	41	1
187	188	1
53	56	1
46	61	1
78	78	1
