115	115	8
97	97	8
139	139	5
132	132	6
80	83	3
125	128	3
28	28	19
16	16	21
16	17	2
102	102	18
76	76	2
75	103	2
88	89	2
26	27	7
4	4	4
116	116	18
71	72	2
86	88	3
71	71	7
36	36	3
129	129	11
75	75	10
103	103	5
107	113	4
5	5	12
11	28	3
7	7	6
75	77	3
78	90	1
33	36	1
108	108	5
76	77	4
127	128	4
12	12	11
134	134	10
131	131	15
37	37	12
19	19	13
125	126	6
94	94	7
79	79	6
98	98	7
35	35	9
24	24	6
95	95	11
4	5	9
80	80	12
38	88	2
7	9	3
19	20	5
76	104	1
38	93	2
30	69	2
18	18	10
99	99	11
112	112	9
104	104	15
34	34	4
128	128	7
78	82	1
110	110	13
24	33	2
112	126	1
87	87	5
82	82	13
136	136	6
127	127	5
121	121	7
129	130	8
3	3	13
90	90	10
31	31	6
91	91	14
23	23	7
125	125	8
130	131	1
5	110	3
6	6	1
96	96	16
114	115	3
11	12	4
114	114	7
85	85	4
136	137	3
110	130	2
32	32	18
103	104	6
109	109	4
77	77	5
81	81	8
84	85	3
113	113	15
108	110	3
114	120	2
78	78	13
105	106	6
76	79	1
83	83	5
93	93	5
119	121	2
135	135	2
89	89	3
1	12	1
74	74	6
73	73	9
134	135	6
28	29	3
12	14	2
117	117	6
122	122	14
19	112	5
124	124	8
138	138	8
109	110	6
38	38	6
8	9	1
131	132	2
120	120	2
77	79	1
110	111	3
18	115	1
107	107	11
12	30	2
11	11	5
123	124	2
33	33	4
137	137	4
20	20	12
15	21	1
88	88	2
111	111	11
30	31	6
94	95	2
78	79	6
2	26	1
138	140	1
128	130	1
123	123	1
30	30	9
130	130	5
141	141	1
100	100	5
14	22	3
17	17	2
112	113	3
140	140	7
111	112	3
96	101	1
1	3	2
101	101	4
126	126	9
21	100	2
90	91	3
14	15	1
90	93	1
76	78	2
92	92	4
27	27	2
117	121	1
73	74	4
97	108	1
112	115	3
2	2	9
29	29	1
115	126	2
118	118	2
29	31	2
2	3	6
23	99	1
120	122	2
78	100	1
73	100	1
25	25	2
75	88	1
16	20	1
17	105	1
13	13	3
6	8	3
37	133	1
10	12	1
34	123	1
26	26	3
10	11	4
99	103	2
13	19	1
8	8	1
3	18	2
1	1	2
27	28	1
126	127	1
35	36	1
90	94	2
80	108	1
9	9	1
74	77	1
83	84	1
10	10	5
113	118	2
86	86	4
121	122	2
96	128	1
0	0	4
31	32	1
138	139	2
122	123	2
118	119	2
106	106	1
1	5	1
113	114	1
28	32	2
14	14	2
38	125	2
125	130	2
29	90	2
108	109	1
137	138	1
86	94	1
79	89	3
0	12	1
0	11	1
116	138	1
92	93	1
93	96	4
101	102	3
128	129	2
37	38	3
79	80	1
102	103	2
73	75	1
98	134	1
124	133	1
119	119	3
7	8	2
93	94	2
24	28	2
115	116	1
21	21	1
0	1	1
72	72	1
112	114	1
36	37	1
21	22	1
15	15	2
18	20	2
117	122	2
22	22	3
23	24	1
135	136	1
104	105	1
87	88	1
21	37	1
13	14	1
5	6	1
25	26	1
78	88	2
124	127	1
79	82	3
100	102	2
1	2	1
30	72	1
89	92	1
16	18	1
105	105	1
84	84	1
107	112	1
86	128	1
110	119	1
72	99	1
18	112	1
96	98	1
