8	8	4
152	153	6
28	30	2
12	79	10
108	143	8
31	31	10
118	120	1
0	0	10
133	136	1
77	77	4
121	140	2
48	75	1
33	48	1
150	150	5
27	84	5
113	113	15
93	97	5
1	103	1
34	41	5
118	118	6
95	95	8
113	119	2
9	9	6
1	1	9
35	35	5
71	93	3
37	37	8
104	111	4
133	133	3
35	44	7
124	124	7
99	99	9
88	88	10
20	20	8
93	93	9
117	117	18
7	12	2
50	50	2
87	106	6
47	47	7
39	87	4
11	11	10
108	108	6
2	2	6
139	139	9
126	157	5
67	71	6
16	22	7
50	78	1
88	104	6
5	5	16
114	118	2
75	77	2
85	87	4
146	148	4
12	13	8
86	86	3
14	49	1
65	65	4
106	107	3
79	108	1
25	42	2
126	126	3
63	70	4
144	150	3
120	120	6
81	81	2
26	26	7
1	2	2
131	131	14
127	127	10
117	131	5
137	158	4
110	112	3
115	119	2
103	116	2
89	142	2
101	156	2
129	130	3
129	137	1
122	122	8
69	70	4
10	42	2
24	41	5
3	16	1
55	64	4
48	52	2
128	130	2
70	70	7
81	87	4
7	7	2
132	133	4
21	45	2
38	83	1
104	115	1
38	85	1
74	75	2
63	63	5
24	43	5
144	144	3
129	129	10
84	84	12
90	91	4
75	75	8
104	106	2
141	142	1
81	82	3
79	112	3
137	138	4
148	148	10
115	140	2
73	73	4
23	24	2
42	49	2
123	123	4
9	14	4
145	145	7
130	130	3
114	115	2
30	30	9
134	155	5
23	26	4
138	156	1
120	149	5
82	82	7
94	106	1
27	27	7
140	140	5
119	121	2
25	26	5
106	145	4
116	116	6
157	157	4
113	114	5
132	145	1
156	156	6
73	98	1
138	138	3
79	82	2
19	19	3
11	16	2
22	22	5
88	103	3
90	92	1
119	119	5
38	43	8
64	70	2
34	34	6
33	40	4
132	132	2
78	78	1
131	158	3
55	63	1
39	39	2
11	42	1
40	41	3
121	142	3
36	36	5
95	98	4
119	120	4
79	87	3
6	20	4
109	109	1
86	111	1
55	55	3
136	136	6
71	71	1
28	52	3
14	14	11
51	51	7
136	155	3
12	12	9
83	83	8
12	14	3
65	66	4
23	39	1
24	24	7
145	149	4
135	150	1
118	139	2
118	119	1
106	129	1
135	144	3
125	141	1
154	154	8
80	80	1
116	119	3
103	103	10
27	29	3
113	142	2
26	27	1
107	107	5
141	159	1
54	57	3
10	20	3
5	6	1
91	94	2
67	67	6
146	147	4
139	148	4
45	45	3
32	55	2
136	152	2
66	69	1
48	48	2
155	157	7
1	140	1
7	8	3
96	96	8
25	31	1
76	77	6
79	79	3
44	44	5
83	84	2
4	4	5
119	142	3
6	6	5
88	142	3
13	25	6
62	71	2
88	111	1
135	135	3
103	115	3
22	23	1
27	45	1
102	103	5
46	46	6
154	155	4
23	28	1
102	102	3
106	125	2
51	54	2
77	84	1
43	43	2
108	109	1
36	37	1
131	154	2
30	31	2
64	64	2
75	79	4
55	87	3
147	148	1
10	10	9
103	104	2
32	32	4
53	67	2
26	30	2
104	104	4
117	146	3
49	81	1
52	52	3
91	91	4
34	47	1
16	46	1
90	101	1
103	131	1
147	147	5
49	49	2
18	18	4
132	153	2
77	79	1
90	110	3
56	56	2
137	140	2
81	108	3
122	123	4
5	7	2
26	45	3
40	70	3
106	111	3
7	147	1
47	55	1
54	55	1
114	132	3
155	155	5
3	3	1
106	106	3
34	35	2
131	134	4
153	153	3
128	128	5
90	90	1
105	106	1
93	96	1
158	158	5
25	29	3
136	150	3
77	78	1
89	89	1
13	13	1
15	15	2
83	98	1
127	148	3
101	101	1
151	151	3
125	125	1
16	16	5
3	4	4
111	111	1
97	98	1
133	154	1
121	121	1
132	144	1
66	66	1
132	148	3
137	137	6
41	41	1
152	152	3
70	84	1
113	116	1
150	151	1
141	141	4
102	127	1
43	52	4
134	136	2
25	45	1
117	118	1
144	145	2
40	40	1
40	85	1
136	157	1
31	92	1
103	105	1
50	75	1
22	35	1
15	19	1
102	105	1
52	53	2
143	143	4
29	29	2
132	156	2
5	142	3
54	54	3
40	56	1
117	132	1
145	148	1
9	10	1
32	57	2
31	32	1
85	85	1
98	98	6
115	156	1
0	33	2
81	85	1
132	159	1
53	77	1
123	139	3
61	61	4
97	97	1
9	11	2
11	13	1
103	111	1
28	28	3
32	61	1
115	134	1
48	49	1
116	134	1
131	156	1
89	113	2
18	21	2
146	146	2
53	68	1
17	17	6
68	68	2
126	141	1
106	127	1
104	105	3
0	35	2
114	114	2
26	41	1
125	126	1
19	21	2
107	145	1
6	46	1
121	125	1
87	88	1
86	89	1
138	140	2
100	100	3
92	97	1
134	151	1
18	22	3
62	68	1
41	56	1
1	4	1
12	15	1
24	30	1
38	38	1
113	115	1
46	61	1
84	85	1
113	158	1
17	19	1
5	8	1
73	127	1
69	69	1
17	21	2
8	9	3
123	147	2
132	149	1
6	8	1
112	141	1
24	48	1
23	23	1
131	152	1
85	99	1
26	52	1
17	46	1
108	130	1
29	30	1
105	105	1
23	35	1
33	33	1
109	110	3
109	143	1
41	42	1
85	86	1
137	139	1
66	101	1
19	20	1
32	42	1
110	142	1
36	39	1
136	151	1
33	41	1
106	112	1
125	140	2
41	54	1
53	54	1
62	70	1
125	130	1
30	35	1
43	88	1
134	134	1
53	53	1
105	140	1
89	158	1
74	98	1
142	143	1
52	99	1
78	79	1
109	121	2
37	85	1
63	71	1
126	158	1
