57	57	4
102	102	6
104	104	8
63	63	3
9	9	6
73	73	3
70	71	4
77	77	11
68	69	5
22	22	6
6	6	2
62	62	5
71	73	3
93	93	5
19	20	2
55	57	3
31	31	5
71	116	3
132	132	10
116	116	6
37	37	4
54	129	1
89	89	6
55	55	6
79	79	9
54	54	2
49	54	4
33	33	4
111	112	2
50	133	3
88	88	8
68	68	8
67	69	3
102	103	3
27	27	4
87	92	1
108	108	1
129	129	8
97	97	3
115	116	3
118	119	2
122	122	3
49	49	1
112	113	9
50	51	2
71	71	4
99	126	3
69	69	3
106	107	3
128	129	1
122	132	1
82	96	1
105	110	2
65	67	1
111	114	4
32	32	6
113	113	10
99	99	6
58	59	1
56	56	5
112	112	7
25	25	3
83	84	1
45	85	2
117	118	3
5	5	8
35	36	5
10	10	3
20	20	3
115	115	8
129	130	4
3	3	2
0	0	4
36	36	7
51	106	3
6	7	2
96	102	4
103	103	8
15	16	3
92	93	3
105	105	6
121	121	2
24	24	5
23	26	2
72	73	5
98	98	3
1	121	4
3	4	3
83	83	6
111	125	2
110	118	2
61	61	2
108	109	5
87	87	6
115	126	4
132	133	4
125	130	7
34	34	2
10	11	3
55	56	3
133	133	3
101	101	8
119	119	3
65	65	2
60	60	6
55	131	2
4	14	3
100	108	5
90	90	10
81	82	2
109	109	6
76	76	4
75	75	2
123	123	5
31	37	2
52	98	1
44	44	3
1	1	1
29	29	3
124	124	2
76	77	4
86	93	1
114	114	3
52	52	2
85	86	2
126	126	5
101	102	2
11	11	1
103	104	1
64	64	4
82	82	2
24	25	2
88	89	3
130	132	4
134	134	6
26	26	3
38	38	4
24	105	2
108	125	2
107	107	1
13	13	3
96	107	3
51	76	3
60	67	2
22	59	3
81	95	3
94	94	3
79	84	2
96	96	2
21	22	2
105	123	1
58	68	1
84	84	3
60	112	2
85	92	4
23	23	4
15	15	6
86	87	1
83	92	3
73	74	2
126	127	3
127	127	2
99	101	1
72	72	4
125	125	3
28	28	1
58	60	3
130	130	2
80	81	1
66	69	2
27	35	1
86	86	2
106	106	3
115	119	2
43	43	3
74	74	2
66	66	1
109	114	1
17	30	1
79	80	1
95	95	3
16	16	4
17	18	1
31	32	1
75	76	2
75	102	1
124	125	1
47	50	1
67	67	5
26	31	1
64	65	2
112	132	1
83	86	1
14	15	1
115	117	1
49	92	2
66	68	1
117	117	2
82	83	1
100	100	1
13	14	1
110	110	1
131	131	2
75	127	1
44	45	1
124	126	2
8	8	5
59	114	1
104	105	1
127	133	1
81	83	1
86	91	1
15	17	1
30	30	1
7	7	1
86	95	1
58	58	2
70	70	1
2	2	1
52	97	1
78	120	1
48	113	1
6	11	1
55	130	1
59	68	1
72	88	1
45	78	1
21	23	1
87	88	1
74	77	1
115	118	1
50	56	1
48	48	1
93	94	1
89	90	1
54	55	1
