56	56	4
91	93	1
152	152	7
33	34	3
112	131	1
99	117	3
158	158	8
115	115	1
174	174	14
10	10	4
54	61	2
42	42	2
85	116	1
4	4	4
90	90	3
56	115	2
169	169	1
26	26	5
77	77	3
70	70	5
160	160	4
134	135	3
178	179	4
103	107	1
159	189	2
60	63	2
75	76	4
165	165	4
161	163	5
30	30	3
164	166	2
83	90	1
183	184	3
96	97	2
79	79	6
36	36	6
171	174	3
88	88	2
104	104	1
70	150	7
134	134	2
85	90	1
27	27	3
65	68	2
120	121	1
165	169	4
64	64	2
37	52	2
11	11	4
20	23	2
93	93	4
156	156	3
143	145	1
185	185	3
110	110	1
81	81	6
186	186	3
108	151	2
121	121	5
6	6	3
178	178	4
68	69	3
107	107	1
170	170	2
111	111	2
172	173	1
141	141	3
159	159	3
131	132	1
112	112	6
55	56	1
1	2	1
98	144	1
5	6	2
40	40	3
32	35	1
111	134	2
59	60	1
63	64	6
95	95	3
77	78	2
102	102	2
179	180	2
54	82	6
146	146	5
28	147	2
175	175	4
125	126	1
143	146	1
96	99	1
37	47	1
190	190	1
12	13	3
59	96	3
178	180	4
87	87	6
61	61	2
182	186	1
24	43	3
126	126	1
61	62	3
168	168	6
21	21	3
167	167	5
154	154	4
117	117	3
66	66	1
113	113	2
127	127	2
24	24	3
83	83	2
107	110	2
117	118	2
13	14	2
23	23	3
7	10	1
34	34	3
161	162	2
43	44	1
58	59	3
61	99	4
30	31	2
181	182	2
15	15	2
58	112	1
100	100	1
26	27	3
5	5	3
122	122	1
168	169	1
79	99	1
25	44	1
74	93	2
53	61	1
23	24	1
55	55	3
13	13	1
119	119	2
189	190	3
35	35	3
124	124	3
91	91	2
155	155	2
11	12	7
148	148	1
41	41	1
73	73	1
106	106	2
83	85	1
16	16	3
55	70	1
36	37	2
62	62	1
83	100	2
28	29	2
129	129	3
171	175	1
187	187	2
85	86	1
24	118	1
188	188	2
130	131	2
54	119	2
33	33	2
185	186	1
177	177	1
146	147	1
0	1	1
125	125	1
144	144	1
166	167	3
163	176	2
54	54	1
75	75	1
57	57	1
166	166	1
22	64	1
149	149	1
26	28	1
26	73	3
59	59	1
148	160	1
157	157	1
131	131	1
153	153	2
21	24	1
163	163	2
86	86	2
85	85	1
122	123	1
84	85	1
47	47	2
54	58	1
186	189	2
71	159	1
118	118	1
48	55	1
72	73	1
4	7	1
103	103	1
116	117	1
128	128	1
52	52	1
179	179	1
161	161	1
184	185	1
68	68	1
34	35	1
188	189	1
25	36	1
172	172	1
37	37	1
