135	135	13
99	100	11
27	32	1
71	71	12
75	75	19
10	18	5
6	16	2
15	15	16
14	14	5
35	35	4
19	19	5
37	127	2
82	92	4
15	28	3
82	82	6
130	130	16
32	33	5
4	4	17
127	127	8
120	122	2
90	90	4
4	5	5
21	23	2
122	123	2
35	130	2
89	89	15
25	27	4
3	3	7
136	136	3
37	37	6
34	34	7
76	77	5
8	21	3
85	100	1
21	27	3
107	108	4
103	104	2
140	140	2
93	95	3
33	35	1
27	28	4
74	76	4
113	113	14
13	22	3
31	31	9
13	24	3
83	102	5
1	21	1
11	11	4
32	32	10
110	111	4
86	97	4
106	110	2
77	82	1
73	73	13
22	22	15
77	84	1
17	17	9
20	21	7
80	81	6
13	13	15
33	33	23
33	34	7
89	101	3
27	29	5
14	15	5
74	74	16
101	104	10
99	99	10
16	17	7
76	78	2
29	29	5
119	119	8
83	90	3
71	73	2
120	131	4
8	10	1
3	120	1
119	120	2
1	1	6
83	84	3
126	126	9
27	27	13
86	86	9
94	98	3
10	10	4
100	109	3
102	104	2
10	19	2
111	112	3
114	115	2
29	31	3
25	25	6
102	102	18
28	28	7
0	10	5
85	85	10
138	139	11
24	24	4
5	5	14
120	121	5
74	75	1
72	73	5
129	130	1
97	97	7
77	79	3
93	102	2
20	30	3
22	27	2
126	127	6
109	109	11
85	105	2
72	72	8
23	23	16
118	118	5
108	108	10
80	84	2
101	103	4
21	34	3
45	71	1
105	111	1
31	35	4
98	98	4
101	101	3
6	6	6
121	121	10
9	9	5
119	121	8
12	32	5
134	134	7
106	109	1
93	98	2
3	121	3
83	104	2
7	9	6
20	20	7
38	38	11
22	23	12
78	78	9
102	103	6
120	120	4
92	92	5
124	124	8
93	93	12
104	110	4
114	120	1
123	124	6
2	2	6
95	95	6
31	34	3
73	74	8
129	131	3
124	125	3
3	7	1
112	122	1
139	139	5
23	33	6
105	105	6
18	28	9
19	24	1
36	115	2
88	89	2
2	3	3
132	132	12
27	36	6
4	8	5
128	128	6
10	13	2
19	31	1
118	122	3
114	114	9
7	8	5
0	0	2
31	33	1
81	118	2
11	20	2
23	24	5
131	131	8
100	100	6
81	107	3
80	86	2
80	119	1
131	133	1
20	25	3
124	130	2
118	121	4
1	3	4
9	10	2
79	79	10
85	91	2
118	120	4
37	38	5
84	84	10
10	16	4
44	81	4
103	103	9
5	7	2
26	26	11
117	117	6
112	114	2
14	19	1
26	32	3
72	123	1
88	88	2
111	111	5
22	29	1
104	104	6
1	11	1
110	117	1
8	9	6
104	112	1
80	80	15
17	19	3
90	102	2
5	16	2
26	86	2
81	91	2
88	94	2
13	17	2
74	81	1
31	38	2
74	107	2
103	105	6
106	118	1
87	87	12
12	12	3
82	86	3
112	113	4
84	89	2
72	80	2
99	105	1
78	80	1
137	137	6
35	36	1
122	122	7
1	22	2
19	21	3
117	118	5
96	96	4
112	115	1
14	18	3
86	101	4
30	30	5
114	122	1
72	84	1
20	26	3
77	81	2
110	113	1
36	130	4
96	110	2
110	115	2
3	23	2
0	26	1
13	14	5
91	93	5
24	25	5
87	100	1
36	107	1
112	112	7
16	16	3
83	85	3
22	24	2
4	6	4
1	5	2
30	38	1
115	119	4
21	25	1
111	113	1
75	76	1
83	83	7
1	121	2
92	96	1
79	90	2
139	140	2
8	8	11
113	116	6
6	7	1
118	119	4
20	22	1
26	37	6
109	110	4
5	6	3
128	131	2
22	25	2
11	22	1
109	115	2
101	102	1
26	27	5
24	28	1
95	104	2
134	135	2
2	13	1
0	4	1
137	139	1
113	129	2
1	4	6
21	21	5
36	97	2
117	120	2
97	98	4
12	15	1
84	93	3
98	100	2
125	125	3
89	104	3
111	115	1
127	129	5
123	123	11
18	25	1
105	107	2
77	77	4
92	101	4
37	129	1
1	87	2
113	115	2
136	140	3
137	138	2
72	75	2
25	26	5
107	107	7
36	108	2
33	97	3
93	94	1
115	120	6
92	97	2
12	13	1
92	95	1
71	72	1
106	107	2
105	106	3
126	128	1
120	127	1
79	84	3
36	38	2
89	100	1
86	88	1
110	110	3
114	118	1
37	97	4
131	132	4
98	101	1
88	90	2
106	106	3
73	85	1
18	22	1
77	107	3
14	96	3
18	18	3
36	36	3
73	77	1
85	86	2
86	89	4
6	19	2
81	81	6
134	140	2
28	31	4
94	94	2
71	112	2
25	101	1
112	126	4
116	117	1
87	91	1
92	93	5
3	14	1
107	112	2
100	101	2
136	137	5
19	28	2
32	37	1
4	17	3
109	116	2
83	101	3
10	11	1
138	138	2
100	105	1
35	133	1
21	86	2
15	116	1
7	7	12
123	126	1
112	117	2
26	30	1
110	126	1
102	110	3
78	79	3
12	16	3
87	88	2
121	122	1
33	38	1
89	91	1
90	91	2
95	97	1
123	133	1
8	20	2
18	20	1
17	18	3
109	111	1
128	130	3
75	77	1
9	13	1
18	27	2
91	98	1
124	126	2
122	124	1
107	132	1
21	28	1
18	19	3
1	6	1
72	108	1
34	35	2
115	116	2
17	23	3
10	23	2
104	113	4
81	85	1
24	27	1
25	29	1
91	101	2
68	68	1
5	9	1
78	84	2
87	89	1
95	109	1
19	37	2
127	128	2
45	79	1
125	128	1
93	105	1
112	133	1
115	123	1
82	89	3
125	129	2
0	1	6
95	123	1
113	125	2
86	110	1
115	115	5
72	74	2
116	116	3
112	125	1
114	126	2
82	85	1
29	32	1
0	2	1
78	90	1
78	93	2
108	109	1
14	17	1
104	106	1
96	108	1
1	2	1
76	90	1
113	127	1
76	94	2
9	16	1
95	105	1
100	110	1
6	20	1
125	126	1
89	102	1
84	100	1
99	107	1
29	30	1
21	32	2
99	106	1
93	106	1
2	4	1
111	122	1
10	15	1
25	34	1
89	90	1
3	4	1
16	129	1
72	83	1
130	131	1
101	113	1
84	94	1
91	92	2
85	90	2
98	118	1
90	92	1
83	105	1
100	103	1
10	12	1
10	22	1
128	129	1
