158	158	7
75	114	1
140	140	9
179	179	10
159	159	9
167	167	6
133	133	5
152	153	2
154	154	3
118	118	6
145	145	14
150	150	5
107	107	10
111	111	3
175	175	3
49	51	3
41	42	4
4	4	6
94	94	3
116	116	8
154	156	3
157	160	3
171	171	6
163	163	3
162	162	9
156	156	4
37	101	1
146	146	1
19	19	6
158	159	3
78	90	7
39	39	4
104	104	5
105	177	5
0	0	3
56	56	5
174	174	6
107	146	2
74	74	1
35	36	1
134	135	1
81	81	11
113	113	7
56	87	3
68	78	2
28	29	1
15	18	1
136	136	3
27	27	2
16	17	1
162	168	6
99	105	2
138	139	1
88	88	6
157	158	4
128	128	2
87	87	4
3	3	4
78	78	5
37	37	10
99	100	3
104	105	5
87	88	1
120	121	3
155	155	8
85	85	1
44	45	8
150	151	3
33	38	3
36	36	5
26	26	2
97	97	4
98	107	2
50	50	11
83	86	3
54	54	9
38	38	2
125	125	6
156	163	1
75	75	7
31	31	9
169	169	5
53	53	6
125	149	1
161	161	5
64	64	6
51	121	2
164	165	7
45	45	6
57	57	8
78	79	4
5	24	6
83	117	4
125	126	3
37	100	3
92	92	3
178	179	3
77	180	1
136	137	5
91	92	1
165	165	3
12	45	2
134	134	12
94	95	6
25	25	4
23	23	3
43	43	4
14	14	4
67	67	2
135	135	2
131	132	2
34	153	1
143	143	2
170	170	4
115	115	5
127	127	6
96	96	5
144	144	5
100	101	2
76	76	16
37	153	4
129	129	3
141	141	7
58	58	5
2	5	4
38	158	1
95	95	4
56	57	1
66	67	3
161	169	1
56	84	2
77	77	8
109	130	1
133	134	2
72	72	5
6	7	4
29	29	4
133	178	2
58	59	1
12	20	1
109	129	2
41	121	1
43	44	3
153	153	2
80	81	3
61	94	2
56	81	1
9	9	2
139	139	2
142	143	1
137	137	3
110	110	4
6	6	3
73	73	5
108	108	5
66	66	3
19	20	3
59	60	4
139	141	2
38	39	5
20	20	4
13	13	3
176	176	6
81	89	2
140	178	1
149	149	6
12	19	3
154	157	1
130	130	1
117	117	1
76	180	1
168	168	9
35	39	1
160	174	3
28	30	4
165	167	5
117	119	1
159	160	2
178	178	4
142	144	2
2	3	1
156	162	1
14	123	3
161	168	1
109	128	1
106	106	4
42	43	2
52	52	2
83	85	1
93	93	2
59	86	2
152	152	2
157	176	2
32	43	2
122	122	6
77	79	1
79	80	3
71	75	1
126	126	2
96	97	5
77	107	1
35	152	2
36	37	1
133	140	1
121	121	6
32	35	2
38	99	1
55	55	6
34	34	3
42	42	1
73	75	2
121	122	2
15	15	6
99	99	1
65	65	2
34	36	1
74	75	2
35	35	4
67	68	1
134	169	2
62	62	1
114	114	4
124	125	3
10	10	2
102	115	2
143	145	1
8	9	6
32	33	2
160	160	2
68	95	1
30	125	2
18	18	2
147	148	3
123	124	1
91	91	3
43	124	2
129	130	1
51	51	1
114	146	1
132	150	3
129	142	2
103	103	5
147	147	3
16	21	1
133	175	1
0	24	2
55	56	2
77	106	1
100	100	5
131	131	2
60	60	1
114	115	2
177	177	4
98	106	2
130	132	2
107	115	1
25	26	2
173	173	2
139	140	1
60	61	1
90	90	1
10	122	1
36	38	1
169	172	1
31	125	1
148	149	2
39	43	2
71	71	4
9	10	2
33	33	1
151	151	3
105	106	1
21	23	1
90	92	1
81	82	1
176	177	1
86	86	2
68	94	1
105	105	2
54	55	2
163	165	3
31	45	2
151	153	2
59	59	1
65	95	1
7	7	1
36	148	1
10	11	1
165	166	1
163	166	1
87	118	1
5	23	2
142	146	2
31	43	2
79	79	2
70	70	2
129	141	1
148	148	2
170	172	2
144	147	1
1	3	1
127	128	1
124	124	2
5	5	1
108	109	1
39	41	1
120	120	1
57	83	2
82	82	1
103	107	2
130	147	2
35	156	1
112	112	1
175	177	1
113	114	2
67	89	1
118	121	1
84	85	1
128	148	1
118	120	2
63	64	1
65	92	1
44	44	1
152	155	1
24	24	2
132	132	1
61	61	1
34	35	1
