107	108	5
125	125	6
110	110	1
111	111	9
40	40	6
82	108	3
83	133	3
57	87	3
114	122	1
113	113	11
6	6	12
102	102	13
76	77	3
118	118	16
65	65	16
74	74	3
59	59	13
126	126	9
19	19	18
1	1	12
85	85	9
63	77	3
61	61	15
14	27	8
56	59	1
35	35	9
7	7	9
33	33	6
81	81	2
4	4	7
121	121	3
82	82	5
78	78	5
94	94	5
33	61	5
109	110	4
76	76	16
66	66	18
113	123	6
77	77	6
72	72	14
29	30	2
116	117	4
45	45	12
120	120	11
86	88	8
115	115	9
43	43	15
124	124	8
84	84	9
75	76	3
64	66	2
71	71	3
44	44	9
29	29	4
39	39	10
38	38	10
83	126	1
64	64	8
90	90	5
36	36	7
56	87	2
79	79	8
92	127	4
14	14	9
13	27	2
106	106	8
80	81	6
27	27	6
96	98	4
70	70	5
9	10	7
79	80	5
31	31	14
93	93	9
63	67	4
112	112	6
80	80	7
72	118	1
8	8	4
37	105	1
62	62	5
28	28	2
85	86	11
119	119	12
101	101	3
41	41	3
30	30	5
68	68	17
100	100	3
35	105	3
83	107	2
92	94	2
81	124	5
87	87	6
107	107	4
118	120	7
45	46	3
65	66	5
98	100	1
18	18	1
5	5	8
91	130	1
84	85	6
21	21	5
14	28	2
82	83	11
9	9	3
32	32	3
128	128	10
3	3	1
91	91	5
75	75	4
101	102	1
34	34	8
105	105	9
17	18	5
86	106	3
91	96	5
73	119	1
13	13	2
106	107	3
10	17	1
104	104	1
13	14	1
127	127	7
47	47	15
100	101	5
57	62	2
63	63	8
70	117	3
31	57	1
99	99	13
23	23	2
108	108	9
79	81	5
16	16	7
15	15	2
72	73	5
110	111	6
127	132	5
31	105	6
132	132	6
64	65	7
24	24	6
33	62	2
58	59	1
12	18	3
16	23	1
117	117	5
12	45	1
43	44	1
133	133	4
10	11	1
128	130	1
88	89	7
123	123	4
23	24	2
17	24	2
126	127	2
89	89	3
125	126	1
34	44	1
68	108	1
114	116	1
64	77	3
79	111	3
61	67	2
67	67	5
1	2	5
16	26	3
107	112	1
67	68	1
69	69	1
46	46	12
43	102	2
37	37	4
25	25	2
30	59	1
131	133	1
96	97	2
22	25	2
35	43	1
2	2	12
55	102	2
89	134	6
38	41	3
134	134	3
82	84	3
9	66	3
118	119	2
28	36	1
44	63	1
12	19	1
95	96	2
81	83	3
11	45	1
91	92	6
33	46	1
27	36	2
129	129	1
56	56	4
57	57	4
98	124	8
43	45	2
103	104	4
124	130	2
41	43	1
14	16	1
17	17	6
43	103	1
88	88	4
47	48	3
95	125	2
73	73	2
68	107	3
86	86	4
67	124	1
114	115	1
20	20	3
71	117	2
50	50	3
33	44	1
57	58	3
12	26	1
29	59	1
30	32	1
73	74	2
37	39	2
87	88	1
133	134	1
106	119	1
33	45	2
10	10	2
5	6	2
127	131	1
90	125	3
101	110	3
55	105	1
86	87	1
31	32	4
122	122	2
112	123	1
11	11	1
77	78	1
100	109	1
115	116	5
39	40	1
32	33	4
102	104	2
96	96	5
55	56	1
46	68	1
28	30	1
130	130	2
92	92	2
36	43	1
14	26	1
0	0	2
103	103	2
131	131	1
71	119	3
50	54	2
48	48	1
47	84	1
94	131	1
50	104	1
90	91	1
88	134	2
11	18	2
97	99	1
98	109	2
47	82	1
110	118	1
12	12	2
80	101	1
113	116	1
111	123	1
109	111	1
60	60	1
35	103	1
124	125	1
33	47	1
33	34	1
17	45	1
82	112	1
96	99	1
