135	145	3
103	103	9
8	153	3
107	107	6
145	145	12
84	84	7
12	12	6
146	146	17
140	140	10
22	23	15
149	149	15
169	169	8
48	48	8
22	22	5
69	69	11
16	20	4
110	110	11
152	153	14
58	169	4
73	73	2
28	54	2
157	157	10
142	142	16
0	0	6
116	118	3
3	53	4
21	21	9
53	54	5
11	51	5
88	88	12
96	96	2
91	94	4
158	158	10
104	104	9
25	25	11
96	97	6
133	135	4
136	136	7
42	44	2
7	39	2
13	13	9
156	156	11
114	115	6
135	135	5
15	16	1
37	38	3
115	115	7
147	148	5
135	136	6
159	159	13
163	163	7
22	117	3
157	158	3
153	153	8
162	168	5
67	67	5
99	99	4
149	167	8
52	155	4
10	10	8
7	153	2
63	64	4
4	37	2
85	85	7
81	92	3
132	133	6
21	22	5
118	119	4
86	86	5
113	119	1
91	91	4
23	101	3
53	53	5
45	45	10
99	104	3
143	144	1
74	74	7
65	65	4
110	111	2
154	154	10
5	8	3
115	116	4
70	71	1
109	109	4
34	35	4
68	69	2
166	167	3
156	157	5
64	64	15
6	6	5
75	97	4
42	42	8
115	119	3
27	27	6
16	16	4
93	94	4
98	99	9
132	165	2
170	170	6
88	89	3
140	141	4
70	70	6
28	28	2
102	103	1
98	98	8
19	24	4
133	133	13
105	105	8
167	168	7
160	160	10
148	148	8
80	80	11
46	46	5
72	72	4
52	52	9
1	1	7
147	147	6
128	150	1
57	57	6
130	146	1
107	108	9
27	118	2
139	143	1
72	73	4
150	150	6
37	155	3
26	26	6
89	89	12
56	56	9
114	114	11
168	168	3
106	106	5
116	116	11
47	47	13
167	167	8
87	87	10
114	119	9
54	54	9
34	37	1
132	132	7
34	34	5
91	169	1
55	55	5
79	79	8
101	104	3
35	37	3
19	19	3
16	18	6
23	23	1
104	105	4
110	112	5
136	138	3
126	127	3
9	9	5
75	75	7
91	95	3
66	66	3
112	112	12
126	166	2
164	166	3
13	24	4
136	145	1
11	49	2
113	113	1
71	71	12
119	119	11
76	76	8
89	136	3
75	76	2
137	137	8
15	18	3
44	45	8
41	41	6
126	148	5
50	51	1
94	94	13
74	122	2
144	145	3
82	82	11
125	125	4
88	136	1
129	149	1
120	123	3
17	17	6
92	93	5
44	44	7
38	38	8
151	153	3
131	132	1
6	8	5
77	77	9
144	144	7
151	155	1
24	24	10
101	102	9
124	125	2
35	35	10
7	7	4
77	81	1
0	1	2
128	128	9
78	78	6
8	8	16
131	131	5
155	156	6
83	84	2
83	95	3
17	21	4
62	62	4
92	92	2
20	22	2
143	143	8
146	148	5
33	36	4
99	103	4
132	166	1
68	68	11
86	87	6
2	2	14
129	150	1
165	165	3
11	13	7
113	127	1
168	169	7
102	102	6
111	124	1
75	123	1
49	49	3
101	101	7
133	134	7
62	63	2
123	124	2
152	152	6
133	146	1
39	39	8
127	127	8
123	123	6
128	129	3
74	107	1
11	11	9
19	21	3
74	76	2
3	3	5
3	157	3
0	2	2
73	97	2
165	166	5
78	79	2
36	37	4
100	101	3
162	162	4
138	138	4
80	90	2
161	161	4
5	5	6
36	41	2
83	94	4
78	80	5
124	124	11
129	145	1
117	118	3
90	94	2
4	4	7
80	168	1
2	3	3
19	23	5
77	80	1
108	108	5
80	81	1
63	63	3
113	126	2
108	110	5
9	11	2
13	53	2
14	14	8
18	19	2
18	18	6
43	44	4
121	121	3
130	143	4
84	133	1
4	5	4
156	158	2
134	134	4
40	40	6
129	129	1
120	120	6
90	91	2
39	41	4
164	164	8
76	77	3
39	49	2
84	90	3
123	125	2
20	20	8
76	80	1
64	66	1
77	78	1
33	33	1
105	107	2
27	28	1
120	124	2
40	49	1
67	68	3
74	97	3
129	130	2
139	139	9
90	90	7
83	83	1
43	43	5
58	58	2
52	115	1
164	165	7
79	169	2
155	155	3
91	162	3
77	92	1
95	95	6
36	36	5
130	130	6
40	47	1
111	123	2
84	85	4
113	125	1
41	47	2
8	10	2
111	111	2
13	15	1
74	75	9
51	51	2
69	70	1
132	162	1
100	118	2
125	126	4
150	151	4
54	55	1
78	93	1
134	136	2
165	167	4
20	21	6
133	162	3
33	158	3
39	47	3
33	150	1
91	92	2
89	162	4
141	141	1
97	98	1
92	95	1
127	129	2
138	139	7
50	117	4
160	161	2
163	164	4
12	49	2
3	154	1
64	65	2
127	128	1
145	146	2
91	133	1
39	40	1
150	154	1
106	107	2
140	144	3
12	50	1
118	118	4
21	23	1
87	90	1
74	99	2
37	37	1
6	38	1
94	95	1
151	151	2
112	113	2
38	48	1
125	127	2
36	42	1
17	18	1
87	89	2
109	110	2
78	148	1
142	144	1
113	152	1
65	66	1
111	112	1
87	88	3
130	167	1
117	117	1
9	51	1
90	167	1
94	161	1
41	42	4
158	159	1
24	51	1
91	166	1
52	117	1
77	124	1
109	111	1
159	160	2
11	25	2
142	143	4
7	37	4
13	14	2
161	162	1
141	142	1
107	109	2
34	146	2
152	154	1
24	25	2
27	122	1
14	53	1
97	97	2
112	122	1
10	12	2
96	98	2
33	34	1
166	166	2
110	125	1
26	105	1
130	149	2
74	105	1
133	163	1
169	170	1
3	4	1
84	132	1
139	141	1
134	135	3
73	107	1
70	72	1
5	157	1
136	137	1
15	15	1
127	148	1
150	158	1
88	137	1
4	14	1
6	155	1
114	123	1
50	50	1
153	154	1
120	121	1
47	48	1
73	74	1
76	78	1
82	83	1
121	123	1
136	144	1
128	151	1
148	165	1
146	147	1
133	165	1
89	90	1
56	170	1
