14	30	3
4	4	10
138	138	6
76	123	2
59	59	13
30	67	4
123	138	8
84	84	8
55	55	6
115	115	13
95	95	12
69	69	16
58	59	6
27	27	13
5	5	2
65	65	7
40	41	2
78	78	6
85	86	1
8	8	4
42	42	4
40	40	3
135	140	2
19	20	11
26	27	3
94	94	14
26	26	9
22	25	5
37	37	14
34	34	5
109	119	2
57	118	3
16	16	4
145	145	4
30	30	8
119	119	5
22	22	10
132	132	8
28	28	7
142	143	8
21	21	10
50	50	4
123	123	9
80	89	3
15	107	1
129	129	4
3	3	6
106	106	10
13	16	2
43	43	4
130	130	8
116	116	6
18	18	6
49	49	5
47	130	2
81	110	2
62	62	8
125	125	19
60	69	2
17	17	7
48	125	4
32	32	9
33	33	8
98	98	13
83	117	5
41	41	7
69	70	1
55	137	2
0	71	1
57	119	2
112	112	4
75	75	13
139	139	8
125	128	2
70	70	9
3	24	3
117	117	7
2	16	4
107	107	9
56	83	5
85	85	11
53	53	14
63	63	2
6	42	2
144	145	1
13	13	8
102	103	9
13	15	1
128	128	5
19	19	8
93	93	12
35	36	4
127	129	3
110	110	13
140	140	9
12	23	1
54	54	11
18	22	3
0	0	1
88	89	2
121	121	7
135	136	6
81	121	4
57	57	7
118	118	16
55	56	4
102	102	4
12	12	9
19	22	2
91	91	3
109	109	8
82	120	2
123	130	5
27	28	5
1	1	4
135	135	6
145	146	3
6	13	1
9	9	5
36	36	11
24	24	2
51	53	1
131	131	7
61	61	4
11	89	2
96	98	2
136	136	6
125	126	5
15	18	3
13	14	9
78	89	3
31	67	3
124	126	1
101	101	7
0	1	4
86	86	5
23	23	1
127	128	2
47	110	6
1	4	2
22	23	3
77	129	2
52	53	4
96	96	3
35	35	6
54	55	1
127	127	11
74	87	2
51	136	1
90	90	3
88	88	4
97	118	1
31	31	8
89	89	7
122	122	9
1	29	2
52	52	7
106	107	2
66	66	6
83	88	1
65	66	5
126	126	5
76	76	7
96	125	2
144	144	2
86	87	3
104	104	5
37	61	5
15	15	6
113	123	2
103	103	4
108	108	3
88	98	2
74	74	7
93	127	4
142	142	5
57	136	2
67	75	2
51	51	13
50	141	6
76	97	1
79	110	1
34	39	7
134	134	3
133	133	7
137	137	3
91	98	2
78	79	2
83	83	5
89	90	5
2	3	3
102	104	1
74	75	5
48	48	3
60	73	1
35	39	2
112	113	3
105	120	2
30	32	5
17	29	3
82	82	3
114	122	2
47	53	2
113	125	2
10	10	4
12	13	3
29	29	6
114	115	1
58	58	5
50	51	4
113	113	5
6	6	7
1	35	2
39	39	2
138	139	1
87	87	7
62	64	1
110	125	2
24	25	2
38	69	2
20	21	6
116	120	2
80	80	3
110	111	1
14	23	1
39	108	5
100	101	2
2	2	3
0	29	2
47	47	1
77	77	2
102	105	1
71	71	2
114	125	2
36	61	1
128	129	1
98	137	1
36	37	1
124	128	3
0	34	4
61	131	2
81	81	3
15	16	1
58	118	1
130	141	1
81	82	1
73	73	1
0	70	1
134	135	2
96	97	5
8	9	2
124	124	1
105	121	1
59	75	2
78	80	1
39	41	2
59	60	1
20	20	4
28	71	2
12	76	1
43	76	1
120	120	3
110	113	1
56	87	2
95	104	1
30	70	5
42	120	1
98	139	2
131	133	1
23	24	1
94	127	1
72	72	1
115	116	1
48	97	1
93	94	1
75	76	3
76	116	1
77	78	1
20	104	1
13	23	1
90	93	1
17	30	1
62	63	1
18	29	2
131	137	1
60	61	1
73	134	2
92	92	1
11	90	3
56	56	2
21	40	1
56	137	2
51	52	1
15	40	1
32	33	3
143	143	2
136	142	1
21	104	1
74	92	1
53	72	1
112	114	1
50	139	2
47	129	1
61	76	1
26	108	1
33	65	1
23	26	1
99	132	1
48	55	1
60	60	2
18	40	1
120	124	1
146	146	1
25	26	1
111	111	1
68	68	1
56	84	1
24	26	1
1	2	1
16	17	1
81	118	1
67	67	1
