29	73	4
148	151	1
82	82	7
81	81	4
30	30	10
24	29	4
35	35	13
122	122	5
102	104	2
57	57	4
42	110	1
109	109	4
119	121	2
94	94	6
154	154	6
28	29	6
135	135	18
67	67	7
140	140	3
148	148	2
113	132	7
119	131	4
95	95	7
40	40	18
21	31	1
44	44	13
108	108	14
131	131	10
114	114	14
76	76	12
30	32	2
64	65	1
128	128	10
20	20	7
126	127	3
24	24	31
76	80	5
70	70	18
115	115	11
26	28	1
25	25	11
10	105	5
13	14	2
85	86	4
84	85	5
65	108	2
86	109	5
13	13	10
121	122	11
15	16	7
19	19	5
69	70	5
87	110	1
58	58	3
42	43	12
21	25	1
46	46	12
63	63	8
118	129	3
33	33	3
51	51	7
85	85	23
107	107	11
132	132	9
144	144	6
151	151	11
119	119	15
69	69	5
79	81	3
29	62	2
86	86	5
15	15	11
67	70	1
129	129	11
3	14	3
123	123	13
11	139	4
47	47	3
29	29	14
93	93	11
133	133	8
78	78	9
43	43	4
67	96	1
121	121	7
126	126	4
107	109	2
12	12	12
130	130	2
124	141	3
73	73	5
26	26	15
21	21	9
28	28	2
152	152	4
32	32	8
38	39	5
66	66	4
74	75	5
75	76	8
40	74	2
95	145	4
118	143	1
145	145	9
76	79	4
10	11	4
81	82	11
23	23	11
63	65	3
21	26	3
141	141	6
41	44	1
88	88	3
80	80	12
104	104	9
98	145	3
153	153	4
6	14	3
86	90	2
53	53	11
71	71	6
104	105	6
149	149	9
116	118	1
48	134	1
145	149	1
6	6	3
52	53	1
125	128	3
119	129	2
56	56	5
111	111	10
143	143	6
141	142	4
22	31	1
139	139	3
131	132	3
127	128	2
19	20	2
91	148	3
48	48	5
105	105	1
9	9	8
10	10	6
36	36	10
34	35	5
107	108	3
129	131	2
133	134	1
99	99	5
142	144	3
103	103	7
113	113	3
130	131	3
134	135	2
12	22	4
31	31	11
11	54	1
96	96	7
97	97	6
41	41	4
101	101	2
63	79	3
43	45	3
38	63	2
17	17	3
137	137	8
9	10	3
110	110	6
82	84	5
54	54	4
14	33	4
99	135	6
107	135	2
87	87	5
136	136	6
67	69	2
98	99	1
107	146	1
96	128	3
67	97	2
119	120	1
115	145	2
85	93	1
26	30	4
124	125	2
129	130	2
5	5	4
124	124	5
42	42	4
125	125	4
120	120	6
100	107	3
50	57	3
83	83	4
50	50	5
64	64	8
87	95	3
138	138	6
32	33	4
96	97	1
139	141	3
36	37	9
14	15	2
142	142	8
97	98	3
140	141	3
76	77	1
124	127	3
4	8	2
112	112	2
100	105	2
75	77	3
45	86	2
44	84	6
54	55	1
106	106	12
146	147	4
3	3	5
7	7	8
112	113	1
123	125	1
117	118	4
86	111	1
18	18	7
46	47	2
145	148	3
34	34	2
42	73	1
83	84	2
134	134	4
79	82	5
116	129	1
68	70	3
97	114	4
16	19	1
88	90	2
5	7	1
111	112	5
79	80	2
45	112	4
118	119	1
132	133	4
50	52	1
55	55	3
48	49	6
65	65	2
114	128	2
55	57	1
10	56	3
152	153	2
43	75	1
14	14	1
45	46	1
105	107	5
78	79	2
22	22	2
118	118	15
109	110	5
19	43	1
8	8	4
62	63	1
148	150	1
70	85	3
23	33	1
50	93	4
120	149	1
74	93	2
46	68	3
41	42	2
125	127	1
50	99	5
4	4	1
84	84	6
147	151	1
11	11	6
115	126	2
76	83	4
13	15	1
147	148	3
49	49	4
13	16	1
114	119	1
110	123	1
114	132	4
26	29	3
82	86	1
40	41	2
43	110	1
65	104	3
75	81	1
33	38	1
15	34	2
145	146	2
26	27	1
108	109	2
95	96	1
17	106	1
71	73	1
62	62	2
68	68	5
65	74	4
30	61	1
147	147	2
37	37	4
42	86	1
20	21	1
116	116	5
45	45	3
31	33	1
31	34	4
12	18	2
113	114	2
72	93	3
26	31	3
125	142	1
35	36	3
122	148	1
38	38	7
33	34	2
87	124	1
150	150	1
92	95	1
137	138	4
84	86	6
30	63	2
39	39	2
10	139	1
3	6	1
17	19	1
47	48	2
13	17	1
89	92	1
74	74	1
76	82	3
11	20	1
75	75	1
98	98	1
47	68	1
115	116	1
143	153	1
16	35	3
39	71	1
139	142	2
120	121	2
120	122	1
16	16	3
126	146	1
147	149	1
136	143	2
42	109	1
123	127	3
20	22	1
92	92	2
95	127	1
94	145	2
116	143	2
115	144	1
65	72	2
48	73	1
117	117	1
96	106	1
45	85	1
39	40	2
64	107	1
64	105	1
47	51	2
97	150	1
118	127	1
124	143	2
43	74	1
39	63	1
146	146	1
50	104	2
3	15	2
51	52	1
136	144	1
2	2	1
4	5	1
93	94	1
17	105	1
105	109	2
43	44	1
53	103	1
98	129	1
25	29	1
16	18	1
30	31	1
82	83	1
