61	61	1
21	21	6
45	45	4
96	127	3
2	4	3
60	62	5
102	102	7
132	133	3
11	22	2
134	135	2
33	33	4
7	26	2
66	66	6
129	130	4
130	130	1
80	80	1
81	97	2
4	4	3
34	34	4
12	12	5
32	32	4
20	20	2
92	93	1
82	106	5
99	100	1
7	7	1
9	19	3
111	112	1
10	10	2
107	107	4
94	95	1
15	16	4
2	6	1
108	108	2
101	122	1
13	72	1
115	115	5
86	86	2
59	64	1
85	85	2
104	104	4
0	0	2
45	47	1
100	129	1
110	110	6
74	74	4
109	111	2
102	103	1
58	58	2
68	68	3
87	128	2
87	87	4
0	112	2
63	63	3
52	65	1
119	120	1
117	117	1
83	88	1
113	125	2
91	91	3
16	16	1
92	92	3
2	2	5
113	113	2
25	26	1
84	84	6
4	5	4
72	72	1
73	74	2
24	26	1
49	91	3
13	119	4
66	68	3
120	120	2
14	14	4
125	125	1
50	50	5
96	99	2
93	135	1
100	100	3
37	37	1
5	5	5
54	66	3
52	52	4
58	67	1
134	134	1
54	54	2
124	124	2
106	108	3
95	105	2
24	24	3
130	131	4
7	8	1
20	21	1
119	119	4
82	89	3
115	129	1
73	121	4
59	59	3
99	99	3
84	86	1
71	71	1
27	27	2
9	9	2
67	67	3
52	90	2
118	118	2
2	25	2
83	83	5
96	97	1
95	99	1
36	37	1
81	101	2
62	62	2
95	101	1
49	49	3
121	121	5
3	4	4
93	93	3
6	7	2
48	132	1
18	18	1
35	36	1
100	107	2
0	35	3
71	118	2
104	122	1
44	47	2
96	96	4
95	122	3
9	20	1
108	115	1
123	123	2
37	38	1
118	132	1
53	53	1
73	73	1
78	78	3
52	107	1
96	98	2
87	131	3
131	131	2
74	105	1
122	122	1
10	73	2
98	116	1
57	57	1
52	53	3
107	117	1
118	129	1
101	101	4
81	81	2
79	100	2
101	121	2
17	17	2
106	107	1
111	111	1
77	79	2
4	7	1
36	36	2
11	11	2
30	112	1
26	35	2
14	15	3
133	133	1
86	94	2
49	50	1
108	109	2
35	35	1
80	98	1
8	8	3
84	95	1
44	44	1
43	43	1
112	113	1
122	123	1
21	24	1
108	114	1
46	46	1
116	116	1
3	3	1
23	23	1
