78	97	2
128	129	6
56	57	7
91	92	7
76	76	14
116	117	4
96	105	2
37	37	8
60	60	6
5	6	5
71	72	12
109	109	7
76	77	7
40	43	1
65	66	9
124	125	1
138	138	7
69	69	8
16	36	1
100	100	3
130	130	16
57	87	1
99	99	2
135	135	2
69	72	1
4	35	8
105	105	11
61	88	7
143	144	10
50	50	8
19	20	3
42	42	12
10	11	1
67	67	13
88	88	8
137	137	13
115	115	3
38	38	6
129	130	4
15	15	8
15	16	9
78	79	6
6	6	4
127	127	6
100	103	1
106	107	14
63	94	4
48	48	5
93	123	1
143	143	6
23	52	4
34	35	2
134	134	10
74	75	2
120	120	6
81	81	3
98	99	6
65	65	2
87	87	7
51	51	4
78	78	11
125	135	11
18	34	6
36	36	6
35	36	11
62	62	6
99	121	3
97	121	2
58	58	17
121	121	16
40	40	8
84	84	8
36	37	2
118	119	5
111	111	11
38	40	3
140	140	13
103	108	3
32	32	9
91	91	14
125	126	5
39	39	8
114	114	7
58	87	4
41	41	7
53	54	5
123	134	3
131	132	5
33	33	6
103	103	10
19	19	5
96	96	5
31	57	3
32	56	3
137	138	4
58	59	7
9	10	5
93	95	4
70	70	4
99	101	1
8	8	8
131	134	1
118	118	7
18	18	13
85	85	7
102	110	1
15	24	1
141	141	9
94	135	1
93	93	12
75	110	6
86	87	6
132	132	7
99	100	6
136	136	6
91	94	1
27	27	6
17	19	3
89	89	5
133	133	13
52	53	4
49	49	6
74	74	8
104	105	3
82	82	6
122	132	2
17	17	4
135	136	5
54	54	9
88	89	10
13	14	2
131	131	11
37	38	9
14	15	4
77	80	1
134	135	7
96	97	3
16	17	2
75	77	2
16	16	16
31	31	7
70	71	5
95	96	2
9	9	5
119	120	8
142	142	5
106	106	9
12	12	2
121	122	2
92	93	5
21	22	1
2	4	1
25	26	6
56	56	7
0	1	4
28	41	2
55	56	6
34	50	1
100	102	4
131	136	4
136	137	5
72	72	4
85	107	3
5	5	3
64	64	2
112	112	2
28	56	3
30	31	4
63	63	3
103	104	5
23	53	2
12	13	6
97	120	4
62	67	3
1	20	3
83	84	7
91	135	6
59	61	2
107	107	6
123	131	3
30	30	12
2	3	1
94	94	11
79	79	2
101	101	12
27	41	7
52	54	2
52	52	8
20	20	8
0	0	10
97	98	1
25	25	14
4	5	2
139	140	5
72	73	5
27	42	2
62	63	8
23	24	5
83	85	3
8	9	6
30	86	2
102	102	6
4	4	5
126	126	7
12	20	2
116	116	8
113	117	1
77	77	7
22	22	5
126	138	1
122	122	5
55	55	7
59	59	10
1	1	6
33	49	3
123	123	9
13	13	8
57	57	8
96	104	2
117	117	11
123	133	2
113	114	1
125	125	8
104	104	9
22	23	3
73	74	2
47	47	7
79	111	2
70	72	4
110	110	7
32	40	3
75	75	6
124	124	3
18	37	2
0	35	1
69	70	3
119	119	8
90	90	7
85	103	2
64	65	5
61	62	5
18	22	2
23	34	1
51	52	6
41	43	2
86	86	7
43	43	7
90	91	8
115	118	5
83	83	4
102	103	5
61	61	4
1	36	4
108	108	2
23	25	3
123	124	6
28	28	1
48	69	3
64	66	3
101	103	3
66	67	3
63	64	1
3	3	3
29	29	8
40	69	1
0	14	1
73	100	3
38	49	2
50	52	3
67	68	2
142	143	2
100	101	4
98	98	13
24	25	2
95	95	2
82	83	2
3	4	1
55	57	5
122	123	2
84	108	3
31	50	3
128	128	6
124	128	1
145	145	7
94	98	4
50	51	3
73	73	5
66	66	2
76	78	1
4	34	1
104	107	1
145	146	1
0	36	1
98	116	2
113	113	1
62	66	1
5	11	2
97	97	2
105	106	2
5	10	1
26	26	4
90	105	1
106	108	1
53	53	7
110	111	4
89	91	4
17	22	1
42	49	1
14	14	3
132	133	2
124	133	3
80	109	2
81	82	1
34	34	2
76	80	5
139	139	3
33	34	4
0	17	3
78	113	2
10	13	5
80	80	1
29	30	4
23	23	7
99	110	4
72	74	1
98	132	1
93	146	1
24	24	2
129	137	2
123	135	2
113	115	1
19	22	2
77	111	2
11	14	1
84	86	1
10	10	8
42	43	1
139	142	1
125	136	3
91	134	2
38	67	2
133	134	2
94	95	2
84	85	1
72	75	2
92	92	2
1	18	1
46	47	2
80	81	1
43	49	1
84	107	1
11	11	2
129	129	3
32	50	1
33	39	1
18	19	2
138	139	3
127	128	2
96	102	2
133	135	1
114	115	1
60	64	1
77	79	2
28	29	2
21	21	3
108	110	1
90	95	3
54	55	2
30	69	1
17	18	2
31	32	1
107	108	1
144	146	1
41	48	1
144	144	1
118	120	1
126	127	1
40	47	1
30	87	1
128	136	1
112	115	2
57	85	1
