38	38	7
157	157	7
138	138	15
120	120	10
158	159	3
133	133	6
3	3	5
27	27	9
123	123	9
2	3	7
13	13	7
12	12	1
127	127	4
111	111	11
83	84	4
160	160	9
84	110	4
119	119	6
50	50	6
140	154	6
151	151	3
158	158	8
75	100	3
24	24	5
74	74	3
147	147	3
58	59	4
29	29	8
84	84	3
86	110	2
2	9	2
55	56	3
167	168	1
40	40	5
84	86	5
86	102	7
156	167	4
163	163	4
135	136	3
17	17	12
54	54	8
124	124	9
3	29	5
130	131	3
25	25	4
64	64	3
139	140	1
36	37	9
129	155	3
171	172	7
14	14	4
156	156	9
153	153	6
106	106	7
82	82	2
58	58	3
13	20	8
118	134	4
44	44	7
53	79	1
56	57	4
59	123	2
141	141	6
35	35	1
98	98	4
93	93	2
9	10	1
134	137	3
105	105	7
5	5	7
1	6	2
81	81	3
115	115	1
22	26	8
13	14	7
169	169	3
65	65	7
39	40	5
142	143	5
3	4	5
16	16	2
95	96	4
161	161	4
9	12	2
173	173	2
168	168	5
171	171	3
63	63	3
103	103	5
142	145	4
60	60	4
61	71	3
5	6	6
66	66	4
78	78	2
28	28	9
174	174	6
71	72	2
119	120	2
155	155	2
107	107	2
77	77	5
0	1	3
90	91	1
30	30	2
67	67	3
68	68	2
32	36	3
80	80	1
60	165	5
105	106	6
8	8	1
111	112	2
53	54	7
19	20	2
45	45	4
60	112	2
57	62	1
119	146	6
18	18	4
113	113	5
172	172	3
74	75	3
21	21	4
145	146	2
41	41	6
121	121	5
51	51	6
141	179	3
151	174	6
178	178	2
109	109	6
125	125	3
92	92	6
89	89	1
127	128	2
0	0	2
130	130	5
126	128	1
46	46	1
90	104	2
9	45	1
26	29	1
73	81	3
149	149	7
34	34	4
76	77	1
33	33	5
11	12	2
86	86	1
153	154	3
146	146	7
129	129	11
72	75	1
43	43	3
163	164	4
4	29	2
87	88	3
97	101	1
62	62	4
159	160	4
112	112	2
91	95	1
150	154	1
164	164	2
149	172	1
9	9	4
93	94	2
18	20	5
10	11	1
1	16	1
179	180	1
57	61	3
173	174	3
19	19	2
10	39	1
87	87	4
134	134	5
135	135	2
165	165	13
11	11	3
70	70	3
91	91	5
159	159	7
105	107	3
96	96	2
154	154	6
177	178	1
65	66	3
144	144	3
149	151	2
61	122	1
92	95	5
139	156	3
83	85	1
110	110	5
66	67	4
129	180	2
132	132	2
125	136	1
152	152	6
156	157	3
137	157	4
157	158	2
59	59	9
80	82	2
83	83	5
90	90	1
177	177	2
74	82	3
31	31	3
131	131	2
140	140	2
86	87	3
44	45	2
147	148	2
26	26	1
136	136	3
89	90	4
15	15	6
112	122	3
143	144	3
52	52	4
80	81	1
7	7	5
151	171	1
42	42	1
59	146	2
53	53	2
117	117	2
149	171	3
150	150	2
145	145	7
54	80	1
76	76	1
167	167	2
79	79	3
61	61	4
0	22	1
132	137	1
94	94	1
142	180	2
87	89	2
96	97	2
37	37	1
176	176	2
6	7	1
6	16	2
57	60	2
81	82	1
118	120	1
148	178	2
8	45	1
58	66	1
28	29	1
85	86	1
161	164	1
126	126	1
137	145	1
139	139	2
88	89	2
160	168	3
32	32	3
150	173	2
73	73	1
91	92	2
125	143	1
62	63	1
108	108	2
24	27	1
34	36	1
104	104	2
140	169	2
89	97	1
129	173	1
159	168	2
56	56	2
128	129	1
102	102	1
155	156	1
137	137	1
130	173	1
131	142	1
149	179	2
2	2	1
172	175	2
97	98	1
140	170	1
11	40	2
72	81	1
165	166	2
72	72	1
39	39	1
66	68	1
154	155	1
17	18	1
54	72	1
34	35	1
16	17	1
71	113	1
118	178	1
175	175	1
0	23	1
