93	93	3
24	24	9
97	97	13
103	103	3
67	67	10
101	101	6
71	71	9
22	22	9
29	30	6
20	21	2
36	36	8
61	61	10
106	106	2
99	99	3
35	35	8
60	60	5
47	47	7
29	29	7
21	24	12
53	53	7
36	37	8
94	95	6
62	62	4
85	85	17
73	74	2
59	59	7
58	58	6
66	67	5
70	70	8
108	108	8
32	32	5
42	43	3
31	31	11
108	110	2
87	87	6
72	72	11
49	51	3
54	54	2
63	63	3
110	110	7
37	37	5
82	82	3
70	99	2
46	46	10
108	109	1
98	98	6
104	105	4
101	112	2
107	107	4
111	112	2
21	21	11
60	61	1
57	57	2
97	98	2
50	50	3
111	111	4
112	112	7
25	25	11
113	113	4
32	112	3
66	66	2
28	29	2
76	76	8
100	113	3
88	91	11
32	113	1
104	104	4
28	28	8
87	88	1
47	114	5
44	44	5
114	114	11
71	72	3
50	83	1
33	95	2
79	79	11
49	49	2
96	97	6
27	27	6
69	69	8
52	52	7
74	74	2
77	77	2
80	82	1
34	34	1
42	75	3
45	45	5
63	64	6
74	75	1
99	100	3
47	62	1
92	93	8
100	100	8
103	107	2
62	64	2
54	55	3
31	111	1
59	114	2
109	110	2
109	109	7
35	40	1
20	24	2
64	65	3
41	42	6
100	101	4
41	41	4
106	107	2
22	23	2
51	52	3
103	104	5
40	40	6
68	68	3
112	113	4
91	91	1
30	31	1
20	20	2
60	83	4
83	84	5
30	30	2
51	99	3
33	33	3
101	102	1
95	95	2
87	89	1
86	87	2
89	89	1
38	39	1
31	32	1
25	27	2
94	94	1
43	43	4
97	110	1
90	90	2
61	78	1
65	67	2
34	114	2
88	89	1
31	112	1
59	83	1
19	20	1
40	111	1
34	35	2
102	103	2
56	56	2
59	60	1
36	45	1
61	72	1
26	27	6
85	86	1
84	84	6
33	114	1
71	75	1
29	102	1
38	38	2
95	97	1
61	103	3
47	79	1
27	28	2
67	69	4
73	81	1
86	86	3
65	65	1
26	26	3
51	51	3
48	94	1
75	77	1
23	23	3
85	91	1
64	73	1
42	42	1
78	78	1
101	103	1
77	104	1
87	90	1
46	77	2
51	53	1
68	69	1
21	112	1
96	96	1
32	99	1
21	99	1
69	94	1
80	80	1
89	91	2
50	51	1
72	101	1
111	113	1
39	85	1
105	106	1
80	81	1
