55	68	3
103	109	2
102	102	17
112	112	2
106	107	10
60	60	9
71	71	2
65	65	5
9	85	1
109	118	6
49	52	2
10	10	11
133	133	8
67	67	2
130	130	8
117	117	12
46	47	4
62	62	2
109	110	3
23	23	7
14	20	2
0	0	10
91	91	11
51	51	6
52	52	5
2	2	3
118	118	8
52	93	4
43	43	11
55	61	3
65	77	2
32	32	13
12	72	2
125	126	1
82	85	6
82	82	6
8	8	9
87	87	6
74	79	1
125	127	2
59	59	8
72	74	4
69	73	6
97	97	4
125	125	3
80	80	8
100	100	3
131	131	4
40	40	1
81	81	10
116	116	2
107	107	4
103	112	2
81	82	6
73	73	6
16	16	9
119	119	7
109	125	5
124	132	2
103	103	1
126	126	13
38	89	2
50	51	6
0	14	1
120	120	12
45	45	11
78	80	4
60	98	2
38	77	1
93	93	5
19	19	10
96	96	7
115	115	4
17	18	1
52	53	2
54	54	6
68	68	2
44	44	2
77	77	9
104	104	6
69	96	1
69	69	9
44	45	1
37	38	4
63	63	4
88	88	4
56	56	5
76	76	7
110	118	3
4	4	13
57	57	9
45	120	1
79	79	6
19	20	5
0	31	1
118	119	2
107	108	8
22	22	6
64	91	2
6	6	5
70	70	9
85	85	8
105	110	2
99	128	5
47	47	17
51	111	3
20	20	11
12	97	4
78	78	6
128	129	2
64	95	1
13	15	1
8	20	3
111	111	7
62	66	2
121	121	10
16	20	5
114	114	3
41	41	9
94	94	5
113	114	6
2	5	3
30	30	11
88	89	3
20	22	2
56	57	3
121	122	4
61	62	1
102	109	2
99	99	1
127	130	2
27	27	13
0	9	4
57	58	1
53	53	6
110	110	4
71	73	1
45	61	4
69	108	4
15	17	6
3	3	6
72	73	2
64	64	8
1	1	4
40	59	2
109	109	6
89	89	6
11	71	4
28	28	4
18	20	1
39	78	4
105	105	7
88	97	2
124	128	2
72	72	3
18	18	7
67	108	2
122	122	5
11	70	1
92	92	5
21	21	3
78	81	1
18	19	3
3	4	5
124	124	2
132	132	6
7	7	5
39	91	1
9	9	7
101	101	5
66	66	3
33	34	2
5	9	1
89	90	2
27	32	2
50	50	7
10	26	6
86	103	1
12	12	2
40	48	3
4	63	1
83	84	2
42	93	3
21	70	4
51	84	2
105	107	2
42	43	1
40	111	1
21	68	2
105	109	2
51	52	3
11	26	2
1	41	1
110	111	4
25	114	4
119	123	3
69	70	3
56	108	2
17	17	3
123	123	1
38	91	3
33	33	2
104	114	1
87	101	2
41	73	2
95	95	4
25	27	1
38	38	2
26	26	4
5	5	2
48	112	1
84	84	4
124	125	2
99	100	2
8	82	3
83	83	3
24	24	2
81	94	2
94	111	4
90	90	3
8	9	1
73	74	1
14	98	2
29	33	1
88	130	1
29	31	1
19	26	1
13	13	1
61	108	2
105	106	1
49	49	8
127	127	4
126	129	1
58	58	2
12	41	1
10	31	2
15	15	3
87	90	1
129	129	4
29	29	3
106	106	2
98	98	2
67	103	1
108	108	1
103	131	2
46	115	1
31	31	5
28	31	3
0	18	2
39	39	1
70	114	5
51	70	1
61	61	1
46	99	1
98	112	1
55	55	2
113	113	1
46	46	2
122	123	2
110	133	3
0	75	1
102	104	1
70	71	1
11	11	2
48	48	1
101	102	2
46	120	1
40	52	2
24	70	1
40	60	1
69	111	1
12	16	1
11	19	1
80	81	1
40	90	1
104	105	1
6	49	2
78	90	1
110	116	1
91	93	1
93	111	1
1	32	1
112	113	1
7	8	1
66	67	1
38	39	1
76	77	1
99	113	2
4	57	1
98	99	1
40	43	1
40	94	1
85	101	1
43	52	1
110	115	1
43	93	1
77	80	2
100	126	1
10	28	1
86	86	1
4	27	1
31	75	1
15	18	1
96	97	1
81	84	1
7	52	1
53	111	1
