68	69	4
38	39	2
90	91	5
35	36	13
51	51	10
67	67	33
31	31	15
45	52	2
99	99	11
93	93	7
62	62	16
59	59	17
82	82	18
25	25	12
69	69	15
80	80	17
74	74	26
30	57	2
47	52	3
72	72	14
62	73	4
54	54	6
35	35	20
100	100	5
66	66	23
42	42	7
77	77	25
33	33	7
42	83	3
84	84	8
58	60	6
102	102	9
83	84	6
89	89	8
35	37	5
73	73	26
71	71	19
58	59	6
43	43	6
87	87	2
58	58	11
64	64	21
38	38	3
34	34	11
61	61	19
99	101	2
78	78	16
38	85	2
43	60	3
23	25	4
96	98	6
65	65	16
61	69	2
75	75	29
95	97	2
79	80	6
38	98	1
76	76	7
86	86	26
49	49	22
79	79	16
56	56	13
62	67	1
56	57	7
90	90	16
92	92	7
74	75	6
36	36	17
62	89	2
65	66	4
36	37	5
68	68	14
81	81	14
80	81	8
60	61	4
41	41	10
60	60	3
63	63	26
91	91	16
85	86	4
74	77	2
84	85	2
52	52	14
85	85	10
39	50	4
87	88	7
78	82	1
66	68	2
73	77	2
71	72	6
39	40	2
39	39	2
45	45	10
88	88	8
30	30	2
27	27	9
70	70	15
29	58	1
81	83	2
76	77	12
53	53	7
41	42	7
24	46	1
48	80	1
28	28	2
83	89	5
55	55	4
72	78	2
40	101	3
44	56	5
34	56	2
48	48	3
46	46	6
50	50	10
48	49	8
59	60	3
40	57	1
101	101	8
44	44	10
25	51	5
49	50	3
68	70	2
96	96	9
65	68	2
62	64	2
35	97	2
34	37	2
94	94	4
88	89	3
89	90	3
40	40	3
55	56	5
64	65	5
52	53	3
25	32	1
70	71	3
26	26	3
80	96	1
77	78	5
97	97	2
63	64	9
59	69	2
95	95	6
23	45	1
86	100	3
23	52	2
23	47	1
65	67	3
40	41	4
42	43	6
67	69	7
38	84	4
86	88	3
31	57	4
69	70	5
98	99	4
73	76	3
61	62	1
62	68	2
83	83	11
79	96	1
51	52	1
101	102	2
99	100	3
53	54	1
86	89	7
44	45	1
100	101	3
85	88	2
57	58	1
86	87	3
47	47	2
86	101	2
98	98	3
20	20	1
20	24	1
29	31	3
26	27	4
61	78	2
96	97	4
74	86	3
44	89	1
91	92	1
31	79	2
76	85	1
27	28	1
66	67	3
74	85	4
32	32	5
54	55	2
73	74	4
79	82	1
22	22	1
95	96	2
47	48	1
86	93	1
46	47	2
73	79	1
34	35	2
79	86	1
67	68	1
82	92	1
71	87	1
64	66	1
57	57	2
75	76	2
48	51	1
59	68	1
78	79	2
66	70	2
79	95	1
38	99	1
60	69	1
79	99	1
57	60	1
50	51	2
37	37	2
82	95	2
33	35	3
63	77	1
74	76	3
77	85	1
83	85	1
45	49	1
80	94	2
25	26	1
25	46	1
93	100	1
29	29	2
63	65	1
33	34	1
79	84	1
40	50	1
61	67	1
