38	38	3
41	41	9
168	168	8
177	177	3
129	129	5
83	83	4
94	95	3
50	50	9
36	67	1
161	163	4
99	102	9
174	174	2
167	174	2
113	114	5
126	126	6
124	127	3
13	13	3
26	26	6
108	109	4
15	15	3
159	159	4
47	47	12
15	16	10
170	170	13
16	16	4
81	82	2
179	180	2
54	54	10
86	152	1
58	59	3
16	64	5
168	172	1
10	10	1
132	132	2
28	28	11
40	42	3
3	4	3
148	152	3
73	75	4
192	192	8
94	96	1
43	43	3
179	179	11
71	106	7
3	28	5
48	48	10
155	159	4
40	40	2
138	162	6
62	62	3
27	27	1
194	194	6
127	127	7
136	136	5
80	80	9
2	2	3
27	64	2
32	32	10
23	23	4
79	79	6
76	76	7
187	187	5
14	14	13
124	125	2
178	178	8
190	190	4
175	175	5
138	159	3
4	6	3
35	35	4
11	11	5
80	82	2
1	1	2
133	133	5
116	116	3
177	188	1
104	104	4
128	128	1
70	70	6
65	65	2
72	72	4
93	94	1
181	181	7
88	88	10
120	120	3
157	157	13
49	49	5
143	143	3
18	167	3
71	71	7
168	169	1
161	162	2
69	69	4
113	113	2
103	103	8
158	158	2
6	7	3
9	11	1
52	52	17
117	117	1
44	44	23
155	155	2
78	79	1
181	182	1
126	142	2
64	64	1
17	64	1
5	5	7
68	68	5
115	117	3
5	7	3
148	149	1
154	154	7
103	104	1
45	45	12
153	153	3
149	149	4
31	31	10
68	84	5
163	165	2
39	39	5
4	37	1
47	48	4
70	72	3
106	106	2
14	16	1
93	93	2
119	119	12
86	87	4
54	58	2
163	163	5
182	182	6
171	171	6
16	187	4
188	190	3
51	51	3
86	116	3
186	186	9
34	147	3
12	12	5
115	115	6
36	65	4
152	154	3
59	59	4
94	94	5
3	5	2
55	58	1
107	107	2
18	18	5
156	165	1
9	10	1
70	108	2
105	107	3
142	142	4
135	135	3
102	102	3
97	123	1
46	46	5
78	78	7
108	108	4
30	31	1
15	17	2
112	112	2
175	190	4
19	64	1
156	164	3
36	36	5
4	4	2
161	166	3
99	133	3
25	25	5
188	188	9
56	56	2
166	187	2
106	107	4
42	42	1
165	165	3
161	161	2
148	148	3
0	3	3
7	8	5
74	74	4
61	62	1
87	116	4
68	151	4
95	95	7
116	117	1
172	172	2
130	130	2
176	177	2
152	153	5
120	123	1
12	32	1
20	39	2
53	53	3
23	24	1
197	197	2
125	126	3
32	33	1
104	105	3
134	135	1
30	30	3
184	184	3
169	169	7
123	123	5
7	7	4
110	111	1
101	101	4
32	38	1
137	137	2
105	106	1
18	188	4
61	71	1
37	38	1
67	150	1
35	156	1
9	9	2
140	185	1
11	46	2
29	177	2
67	67	1
59	174	3
51	180	2
29	178	1
143	144	1
60	60	1
66	66	1
125	125	2
190	192	3
185	185	2
183	183	2
88	90	2
111	111	2
11	57	1
98	98	1
170	171	3
18	36	1
195	195	1
86	151	2
119	120	1
29	29	1
38	63	2
66	151	1
189	190	1
139	140	2
153	154	1
13	174	1
112	113	3
171	172	1
144	144	3
54	55	3
61	61	1
86	153	1
135	140	2
87	87	1
86	89	1
19	19	1
156	166	1
173	173	1
122	122	2
109	111	1
40	41	1
75	76	1
43	44	1
165	166	1
90	90	2
16	17	1
100	100	1
139	139	1
102	127	1
16	33	2
124	124	1
86	86	1
146	147	2
20	42	1
178	189	1
0	0	1
188	189	1
33	38	1
27	37	1
15	133	1
107	111	1
115	116	1
