144	158	7
27	28	6
103	103	21
64	100	5
2	3	12
134	135	5
79	79	16
19	50	8
52	52	10
92	93	4
100	100	32
96	96	9
158	158	11
130	130	39
156	156	14
4	5	6
38	38	5
92	95	8
105	106	4
87	87	13
39	39	15
42	42	19
69	69	12
154	155	3
73	73	5
12	12	18
95	96	9
90	91	10
24	71	3
17	17	17
89	95	3
86	86	18
40	41	2
51	51	17
111	112	5
23	24	7
116	117	2
77	77	11
129	130	4
85	86	12
9	9	5
131	131	9
114	114	7
145	145	4
147	147	16
34	46	2
89	89	12
120	120	24
10	10	15
137	141	1
127	127	6
75	76	6
68	68	20
42	56	1
141	141	13
44	44	2
36	36	17
50	50	11
82	82	9
67	108	1
19	19	10
53	53	16
8	8	16
120	121	6
106	106	17
75	75	29
3	4	10
11	11	16
4	4	7
37	37	13
153	154	7
0	0	17
33	33	15
13	13	6
124	126	2
0	1	2
25	25	30
113	114	5
45	46	2
112	113	2
123	124	2
48	78	2
150	150	23
153	153	10
15	39	1
21	21	11
83	87	1
71	71	18
80	82	1
128	133	2
40	40	14
105	105	13
118	118	7
131	132	9
137	138	9
15	43	2
135	135	9
107	107	17
143	143	10
36	82	2
47	56	5
116	139	6
124	124	9
32	32	8
155	156	5
148	148	11
107	149	2
35	82	1
136	136	18
95	95	14
47	47	12
67	68	1
46	46	15
133	134	10
74	74	8
111	111	20
70	71	1
29	29	22
47	48	6
16	16	10
140	140	8
144	144	8
43	43	8
19	20	5
124	127	5
5	5	5
126	126	19
104	104	25
95	101	5
156	157	6
1	1	8
26	26	3
31	31	10
122	122	14
47	53	2
63	63	11
149	149	9
22	22	14
137	137	28
23	26	2
93	93	20
87	92	3
70	70	9
23	23	19
84	84	11
142	142	8
121	125	3
3	3	10
94	94	17
120	132	2
135	141	4
112	156	5
109	111	2
99	99	9
81	95	4
108	109	14
2	2	7
6	6	3
144	145	9
62	62	5
117	117	20
130	131	11
65	65	6
88	88	13
56	56	8
30	30	18
135	136	3
22	23	5
110	119	5
66	66	4
3	9	5
116	116	18
57	57	4
7	7	8
45	45	13
97	98	6
55	55	6
34	34	19
85	93	1
24	24	8
109	110	7
34	68	3
66	148	1
102	102	7
112	112	15
14	14	4
41	41	18
94	95	5
15	15	15
139	139	19
149	150	1
110	114	4
90	96	3
76	76	5
5	132	1
102	103	2
92	94	4
11	12	5
132	133	5
123	126	2
24	25	8
35	35	7
98	106	5
7	8	8
119	119	2
79	80	9
49	49	16
36	37	5
139	140	4
154	154	3
64	64	9
137	140	2
33	50	4
158	159	2
66	85	4
111	137	2
56	67	1
8	9	3
40	42	1
121	121	10
20	21	4
113	145	1
91	91	18
82	83	5
129	129	11
54	54	4
99	139	2
25	26	11
80	80	9
157	157	14
155	159	3
146	146	13
155	155	3
15	40	5
125	134	3
125	125	10
65	66	8
98	99	5
52	53	5
110	110	6
20	20	4
126	127	9
90	90	7
57	63	3
109	109	8
115	116	4
0	14	5
91	110	3
26	96	1
115	115	9
113	113	11
43	44	1
66	87	2
107	108	1
83	83	9
68	70	1
138	139	3
55	56	2
91	120	3
86	87	4
28	28	8
127	128	2
18	18	5
23	52	4
48	48	8
147	148	7
84	86	1
105	140	2
29	30	4
69	70	1
84	133	3
98	98	19
49	50	1
28	29	2
30	31	2
69	82	1
157	158	1
83	88	3
36	70	1
107	112	2
78	79	4
72	72	8
61	61	2
39	40	1
131	134	4
65	80	1
101	101	6
14	15	13
41	42	5
106	119	3
13	14	3
79	91	1
68	84	3
1	7	3
3	5	5
81	81	7
1	2	4
81	101	2
31	32	4
33	70	1
124	125	4
23	25	1
109	145	2
69	142	2
89	96	4
132	132	11
138	138	14
95	97	7
92	92	16
152	153	1
151	152	3
87	117	2
83	90	1
89	90	2
143	144	4
88	89	2
54	55	2
94	133	3
159	159	1
133	133	3
33	42	1
125	127	3
21	22	3
66	93	2
80	81	3
115	120	1
69	71	4
135	140	1
65	90	2
118	119	3
16	18	5
9	10	4
149	152	1
87	88	9
88	96	5
83	84	6
63	64	2
68	71	1
128	128	5
142	147	2
145	146	3
90	116	1
111	139	4
142	158	2
50	78	4
33	41	5
16	17	1
40	43	3
64	93	1
151	151	15
0	15	1
55	66	2
141	142	6
18	53	3
152	152	6
68	69	2
97	133	3
78	78	7
112	119	2
53	54	4
61	67	2
104	105	3
91	92	4
35	36	9
51	53	1
111	135	1
67	67	11
34	35	2
24	28	1
7	10	3
86	88	2
97	97	3
88	94	1
108	108	5
49	77	2
19	24	1
93	94	9
106	107	2
118	144	1
96	97	3
96	106	2
27	27	3
18	20	2
125	126	2
108	146	2
12	13	6
44	45	5
87	89	1
30	45	1
81	82	4
35	69	2
44	93	1
36	122	1
121	122	2
69	100	2
134	134	8
86	117	3
44	105	1
17	18	5
33	34	2
17	64	1
87	93	2
88	90	1
11	38	1
134	136	1
46	48	3
146	147	5
150	152	2
140	144	1
80	89	2
14	37	1
110	142	4
56	66	1
35	56	2
46	49	2
64	65	3
111	155	2
5	6	1
38	39	6
5	133	1
49	53	1
119	120	1
55	68	1
42	43	1
28	134	2
142	143	2
136	142	3
77	101	1
16	24	2
27	29	3
122	123	1
68	108	1
123	123	5
28	30	1
130	132	1
48	49	4
148	158	1
84	85	1
10	11	1
37	38	3
49	79	2
14	39	1
91	94	4
25	27	1
51	52	1
43	53	2
77	78	1
85	85	1
32	33	2
57	71	1
52	65	1
41	50	1
79	89	2
114	115	3
31	42	1
34	45	1
34	47	1
26	28	1
38	123	1
133	136	4
98	100	1
18	24	1
6	7	2
33	71	2
77	80	2
32	42	1
8	13	1
110	111	1
103	104	2
132	134	1
125	131	3
113	115	1
45	49	1
82	92	1
73	74	1
34	86	1
36	80	1
25	30	2
105	119	1
109	113	1
140	141	1
106	115	1
76	80	1
76	95	1
13	15	1
37	137	1
12	123	1
35	72	1
95	157	1
46	47	1
94	96	1
