25	119	3
156	178	2
214	214	2
208	212	6
128	128	16
163	163	5
72	75	1
140	142	4
167	167	4
39	39	4
141	142	2
29	29	3
101	110	3
5	6	4
123	123	9
7	95	6
38	38	8
126	126	3
218	219	2
186	186	15
65	65	3
60	61	3
143	143	15
166	166	8
201	201	6
97	97	5
225	225	5
169	169	4
55	55	8
242	242	13
208	208	4
37	37	15
58	58	9
74	168	1
182	208	4
212	212	9
102	104	1
5	5	4
17	17	8
68	68	8
32	32	5
206	206	8
188	188	6
139	140	1
86	127	2
52	54	1
100	100	13
141	141	6
82	83	4
142	142	6
16	16	8
209	210	1
105	105	4
74	74	12
61	61	4
133	133	2
116	117	4
62	62	7
129	129	7
159	160	4
111	111	3
230	230	3
19	19	7
112	113	2
52	52	10
142	164	2
172	173	7
29	30	4
15	16	8
144	145	4
227	227	7
102	103	3
53	53	13
139	139	9
134	135	3
239	239	7
35	224	2
216	216	8
138	138	4
27	27	5
110	110	3
18	18	6
88	88	1
86	88	1
27	28	4
171	171	3
22	23	6
7	33	1
179	181	1
44	45	4
217	217	8
211	211	6
188	189	4
34	84	1
36	36	7
85	86	1
161	202	1
81	82	1
69	69	11
20	20	5
3	149	1
144	148	1
236	237	1
45	46	2
37	38	5
190	191	2
135	135	4
238	238	2
33	33	13
51	51	9
2	2	3
136	137	3
233	234	3
144	144	6
51	53	3
66	66	15
76	77	3
55	56	3
45	45	11
241	241	3
56	56	14
109	109	3
47	47	10
170	171	4
182	182	7
115	115	10
113	114	2
224	224	13
216	222	2
235	235	11
24	25	3
74	97	2
102	102	3
128	129	2
14	14	5
232	232	9
101	113	1
202	205	2
43	43	9
148	148	6
67	67	6
30	30	10
199	199	6
209	211	4
119	119	11
173	174	1
202	202	14
48	48	11
24	24	6
20	21	2
157	157	5
223	223	3
175	175	12
25	26	4
52	53	6
6	6	9
11	37	1
45	50	3
178	178	7
211	234	1
77	78	2
235	240	2
0	1	5
191	191	3
188	228	2
105	106	6
78	78	5
104	104	10
210	221	3
165	168	2
6	88	3
15	17	2
10	10	11
85	85	4
83	84	3
73	85	1
160	160	2
167	169	2
203	204	2
12	89	1
164	164	5
207	207	5
174	176	3
99	100	2
158	158	9
205	206	4
124	127	1
107	108	7
82	82	6
192	194	1
9	10	4
127	127	7
210	211	1
162	162	13
198	201	5
181	181	7
7	22	1
17	81	2
9	9	11
207	208	3
161	161	4
228	228	8
196	197	1
37	239	4
142	143	5
229	230	3
217	222	4
149	149	4
153	153	1
98	176	2
176	177	1
172	172	5
184	185	3
57	57	7
121	121	3
36	37	1
111	112	3
219	219	5
98	98	8
116	116	2
83	83	4
134	145	3
145	145	4
231	231	7
220	222	1
80	84	1
35	36	3
81	81	3
59	116	3
135	136	1
31	31	1
152	152	8
130	130	4
63	64	3
73	73	4
154	154	2
41	41	9
71	71	1
103	104	7
86	232	2
240	240	3
151	151	4
190	203	1
21	34	1
173	173	3
155	155	6
197	197	4
155	156	1
40	40	10
75	224	5
104	105	2
103	103	2
203	203	10
30	31	3
239	241	4
198	198	4
184	184	7
123	124	3
0	14	2
79	79	1
13	13	3
3	4	2
200	200	2
46	46	8
120	120	5
220	220	5
11	12	5
191	194	2
69	70	6
236	236	4
150	150	5
194	194	2
155	157	2
122	122	5
54	54	7
11	11	6
187	187	5
148	149	3
181	182	4
215	215	5
233	233	10
194	225	5
179	189	1
165	165	5
223	224	2
106	106	4
12	12	10
70	70	4
189	189	7
26	26	8
221	222	4
118	119	4
101	102	2
59	60	3
137	208	1
133	134	2
173	175	9
42	42	5
119	120	2
64	64	7
31	32	4
42	54	1
45	74	3
168	169	1
125	126	4
234	236	3
67	68	3
212	220	3
222	222	5
70	71	1
214	226	2
110	111	3
68	69	1
28	28	4
59	80	3
204	205	8
72	79	1
15	15	4
168	218	3
182	195	2
96	98	1
16	17	5
167	197	4
80	80	5
195	195	5
174	174	2
230	231	3
49	50	1
72	72	4
140	157	1
187	191	1
40	41	4
66	88	2
187	227	4
179	179	6
146	146	2
70	76	3
190	190	4
176	176	3
75	180	1
3	54	1
74	213	2
238	239	7
133	145	2
23	23	5
144	185	1
137	143	6
157	178	4
147	147	3
26	27	5
34	34	4
112	112	2
148	150	1
174	242	4
176	205	5
121	122	1
44	44	3
79	80	3
108	108	4
75	76	1
147	148	3
10	11	2
181	222	2
4	4	1
2	238	2
85	179	3
60	60	1
50	50	2
63	63	6
25	25	2
138	139	1
88	89	3
222	224	1
145	146	4
85	217	1
99	99	8
137	137	4
1	1	2
168	240	2
138	219	2
229	229	2
161	179	2
218	218	1
76	127	1
132	132	4
32	33	3
166	194	1
235	236	1
71	72	2
124	124	2
234	234	4
205	205	5
213	213	1
164	165	2
20	232	1
139	142	2
43	44	2
35	35	2
71	82	1
228	229	4
116	119	1
170	170	1
197	198	1
185	230	1
99	153	1
34	36	2
80	126	1
113	113	4
147	184	1
75	75	2
193	193	4
38	208	2
14	15	1
34	35	5
212	213	5
59	67	5
177	179	1
193	204	2
177	177	3
171	206	2
165	166	3
9	25	2
196	196	2
96	97	3
172	219	1
8	8	3
105	109	1
136	136	2
204	204	3
3	3	1
48	50	2
46	53	3
183	185	2
178	190	1
74	89	1
86	86	2
21	125	2
101	101	5
168	168	2
150	180	1
84	84	1
196	204	1
27	219	1
183	183	1
2	41	3
59	59	3
131	200	1
20	240	1
98	151	1
21	61	1
158	159	2
57	58	1
99	152	2
95	95	2
114	114	1
118	118	1
192	192	5
226	228	2
7	7	6
222	223	1
77	77	1
214	224	1
232	234	1
42	193	1
85	135	2
233	236	1
239	240	2
66	67	2
139	228	1
74	238	1
61	62	1
71	75	2
177	178	2
76	76	2
107	107	1
237	237	2
62	63	1
163	165	1
160	173	1
139	190	1
138	147	1
19	20	1
210	210	1
227	230	1
133	135	3
143	147	1
65	66	2
177	187	1
157	159	2
86	87	1
140	140	1
173	179	1
12	13	1
31	33	1
216	226	1
49	49	2
65	68	1
164	181	1
150	152	1
21	21	1
106	128	1
6	7	1
156	156	2
9	61	1
181	221	1
45	47	1
186	192	1
162	169	1
115	165	1
62	81	1
140	227	1
67	69	1
188	230	1
82	230	1
133	143	1
171	179	1
167	168	1
164	201	1
