49	80	2
22	23	3
45	45	4
56	89	2
48	48	5
87	91	3
48	57	1
73	93	4
50	50	6
83	83	10
111	113	7
74	75	9
78	78	11
36	36	3
95	96	3
67	67	6
23	23	5
30	30	7
39	39	1
26	26	5
91	91	5
46	46	5
20	80	4
90	90	10
104	107	2
31	41	4
36	74	1
101	101	6
23	115	4
62	76	1
100	107	1
89	89	2
42	42	5
27	27	7
64	65	2
103	104	1
50	51	1
71	72	4
103	103	6
38	38	5
68	96	2
86	86	3
67	70	2
98	99	3
61	61	8
32	32	3
85	85	8
57	57	4
54	55	10
95	95	3
31	31	4
94	111	1
97	97	4
102	102	4
28	28	8
92	92	4
42	43	4
51	51	5
63	79	4
107	108	6
41	41	2
22	22	6
57	63	5
60	60	3
110	110	4
21	28	1
105	110	4
47	63	3
51	60	2
42	45	2
91	92	4
80	81	2
66	67	3
32	33	3
106	106	3
89	94	3
19	112	1
107	107	6
92	93	3
31	107	1
55	55	1
38	89	1
104	104	4
80	80	7
66	70	2
69	69	2
65	65	4
20	107	1
104	106	2
111	111	2
36	109	3
40	40	1
33	33	2
79	79	3
78	81	1
109	109	1
26	32	2
105	105	5
74	74	2
69	70	1
30	31	1
77	77	3
20	20	5
96	97	3
99	100	2
113	113	2
75	75	1
29	30	1
44	44	4
72	72	2
89	90	6
92	107	1
40	88	2
20	112	1
64	83	2
105	106	1
105	112	1
114	114	1
23	25	1
97	102	1
78	83	7
47	47	5
84	84	4
36	38	1
58	104	1
110	111	1
70	71	1
96	96	1
44	46	2
48	49	2
86	87	1
35	35	3
72	73	2
31	109	1
99	99	5
34	34	3
49	49	1
81	93	1
61	74	2
49	61	1
25	26	1
63	63	1
45	50	2
77	85	3
93	93	3
73	99	2
29	29	2
70	93	2
62	62	1
68	68	5
20	59	2
43	43	1
30	81	1
38	39	2
57	90	1
76	78	2
73	73	2
25	100	1
36	37	1
66	66	1
92	106	1
76	77	1
58	60	1
58	107	2
68	97	2
71	71	4
82	82	2
63	73	1
108	110	2
54	101	2
20	76	1
37	37	1
59	59	1
98	98	1
112	113	1
28	109	1
90	91	1
94	109	1
59	86	1
83	85	1
20	108	1
33	39	1
112	112	3
61	75	1
53	54	1
57	58	1
47	82	1
103	107	1
64	84	1
88	89	1
37	38	1
21	22	1
53	66	1
101	103	1
94	94	1
97	98	1
25	25	1
64	66	1
79	80	2
76	95	1
56	56	1
27	28	1
30	107	1
108	108	1
37	89	1
