124	126	2
203	203	5
56	109	2
8	8	1
180	189	7
161	161	3
49	49	4
210	210	3
186	187	1
95	219	2
143	146	2
179	191	4
98	98	3
55	55	2
101	101	4
203	204	3
23	23	5
219	219	1
228	229	1
184	184	7
22	22	3
72	72	3
14	14	5
162	190	3
134	134	3
176	176	2
202	204	1
36	36	3
45	46	2
113	153	4
169	169	5
186	189	1
42	42	1
4	5	5
147	147	4
71	71	5
198	198	5
128	147	3
67	68	3
214	214	6
2	21	1
206	206	1
69	69	7
12	12	3
134	135	3
52	52	4
168	168	3
194	194	5
105	128	4
1	2	1
215	215	5
55	56	2
81	142	1
64	242	3
20	20	8
27	97	4
0	22	4
18	41	3
43	43	5
158	159	2
161	190	1
180	180	1
127	127	3
183	183	4
163	164	3
38	38	5
219	220	2
207	207	1
208	208	8
57	58	1
225	225	5
205	206	1
173	179	1
143	143	4
14	15	2
169	170	1
191	191	4
107	134	1
172	172	2
13	16	2
202	232	2
17	72	2
13	13	2
3	10	1
82	83	5
187	189	3
108	133	1
204	230	3
99	99	4
125	131	3
61	61	8
40	40	7
236	236	1
5	5	3
37	37	4
69	70	2
129	129	1
84	125	1
211	211	3
236	237	2
148	148	4
46	46	1
18	18	4
151	152	4
234	236	3
109	109	5
138	138	1
34	72	2
82	141	4
45	45	5
155	163	3
233	233	1
16	16	9
63	63	2
146	146	3
139	139	1
111	111	5
182	183	1
140	140	3
17	17	1
25	25	5
29	219	1
11	68	1
13	56	2
212	215	2
2	3	1
150	177	2
106	118	4
8	67	2
29	29	1
39	39	3
212	212	6
9	9	6
225	226	1
28	28	5
209	231	3
118	119	3
229	229	1
30	31	1
144	144	4
10	218	1
83	85	2
65	68	3
173	181	1
227	227	6
238	238	9
195	200	1
150	150	1
106	107	2
64	65	1
84	84	2
184	201	1
210	227	2
29	33	2
241	241	4
49	53	3
21	33	4
218	218	4
10	194	2
213	213	2
126	232	2
2	11	1
60	72	1
200	200	2
154	154	1
216	216	4
105	105	3
32	32	2
21	21	2
82	84	2
162	162	4
221	221	4
33	33	2
9	233	2
105	138	2
83	83	2
114	117	2
209	209	1
19	19	5
70	70	3
208	217	1
102	143	3
18	19	2
3	25	3
26	26	4
13	18	1
212	238	2
104	206	1
174	174	3
57	124	4
76	76	1
15	235	5
190	190	3
205	205	2
22	65	1
30	88	2
51	51	4
104	104	3
154	187	2
171	181	1
192	194	1
75	78	3
53	53	6
188	188	1
7	7	2
123	125	1
76	143	1
103	103	1
127	150	1
27	27	3
193	193	2
235	235	1
135	136	3
173	173	1
113	113	2
179	181	1
58	61	1
234	234	2
128	128	1
46	47	1
197	198	1
101	105	1
185	185	1
149	149	1
141	141	1
169	171	1
77	78	2
19	63	1
140	142	1
154	155	2
182	182	2
152	152	2
3	63	1
31	32	1
12	224	1
230	230	3
230	239	2
133	133	1
190	191	1
125	125	1
127	145	2
60	73	2
164	164	3
217	218	1
220	220	4
228	228	1
48	48	2
223	230	2
67	197	1
195	198	3
150	151	2
148	150	1
124	166	2
0	0	3
188	189	2
122	125	4
36	88	1
161	164	2
201	201	2
119	119	2
10	10	1
116	171	1
158	160	1
31	86	2
35	36	2
11	14	1
30	30	1
122	126	2
75	141	2
96	96	1
224	238	1
3	11	3
39	40	1
18	20	1
188	190	2
123	123	2
181	181	2
189	190	1
211	225	1
204	204	1
151	184	1
119	122	1
85	85	2
198	199	1
15	15	2
213	229	3
224	224	1
155	157	1
29	61	1
115	121	2
167	167	1
202	202	1
131	131	1
151	151	1
134	140	1
192	192	1
156	163	1
54	54	2
117	118	3
223	223	2
2	19	1
121	124	1
101	147	2
202	219	1
126	206	1
22	36	2
213	239	1
105	148	2
103	104	1
129	130	1
165	165	1
189	189	1
137	137	1
32	136	1
222	223	1
10	228	1
152	159	2
170	170	1
61	242	2
156	164	1
35	37	1
199	200	1
2	4	1
124	125	1
221	222	3
73	73	1
14	17	1
156	156	1
66	66	1
71	73	1
15	17	1
195	195	1
12	19	1
8	209	1
47	47	2
24	24	1
230	240	1
171	171	1
186	191	1
44	44	1
135	135	1
98	242	1
