23	49	5
1	1	2
51	55	1
125	126	1
62	65	1
164	167	1
146	146	2
4	4	6
87	87	1
21	21	4
34	34	2
14	15	7
53	69	3
2	2	2
71	71	7
149	150	6
95	95	5
7	7	2
147	147	3
99	99	8
25	25	3
100	105	4
21	22	3
157	157	13
20	58	1
155	155	12
7	9	3
14	14	3
163	163	12
115	118	1
86	141	2
4	9	4
111	111	2
17	17	8
128	156	4
125	125	2
169	169	2
116	161	5
100	100	2
6	10	1
165	166	4
87	124	4
47	47	8
98	123	2
159	159	4
162	162	5
110	110	3
52	69	3
85	85	1
43	126	2
114	122	1
133	161	1
27	49	1
67	69	1
72	72	2
120	139	2
135	165	1
168	168	2
35	50	2
41	43	1
73	73	2
75	75	3
57	57	5
93	117	3
9	9	5
167	167	2
146	147	3
119	119	3
123	123	1
16	42	4
115	122	2
12	40	3
127	129	1
6	7	1
23	23	1
3	3	2
91	91	3
19	36	1
112	113	4
47	48	5
68	68	6
118	121	3
147	149	2
113	113	1
10	10	2
143	143	2
44	44	2
35	35	3
8	8	2
14	119	4
83	158	1
50	74	2
40	40	1
154	154	2
55	65	1
109	111	2
126	126	2
50	50	1
106	106	2
70	70	2
13	113	5
55	64	5
115	117	2
150	150	1
54	66	1
24	76	1
11	35	1
142	144	3
144	144	3
97	113	3
27	27	1
34	35	3
81	136	2
160	160	9
2	9	3
78	78	3
71	91	2
96	96	8
112	122	1
94	94	8
52	92	1
101	102	3
134	134	1
65	65	3
42	44	1
56	56	1
0	2	1
121	122	1
114	118	2
39	39	2
2	10	3
41	42	2
27	28	1
87	130	2
6	35	1
149	149	2
84	84	4
75	113	6
67	71	3
6	6	4
164	165	1
69	110	3
101	104	3
116	123	3
6	40	3
131	131	1
150	158	2
86	138	2
129	156	1
37	37	5
24	47	4
153	153	2
57	65	1
118	120	2
112	112	5
158	158	3
150	151	2
51	51	6
16	16	4
24	24	1
62	73	2
132	165	3
2	8	2
134	166	2
63	63	2
74	74	6
13	13	2
89	93	1
105	105	9
152	152	2
142	143	1
162	166	4
35	36	1
77	109	5
97	97	3
92	92	4
111	122	5
0	36	1
16	41	1
148	148	1
65	74	1
104	104	1
5	5	1
70	80	3
77	99	3
155	156	1
169	170	1
105	123	2
119	141	6
127	127	3
80	80	3
115	123	1
42	42	5
87	123	2
81	93	3
128	129	1
77	77	3
132	134	1
136	136	4
131	169	2
79	79	2
46	50	6
80	103	1
94	102	2
41	45	1
90	90	4
25	39	5
102	110	3
130	130	2
19	20	2
142	153	3
146	165	3
53	70	1
137	166	1
19	46	1
13	44	1
20	20	4
11	12	3
22	22	2
103	104	1
94	117	1
133	135	1
113	114	5
1	12	2
46	75	2
16	44	1
87	140	1
69	69	2
27	34	1
50	76	1
24	57	1
52	52	3
161	161	3
143	144	2
61	62	1
9	10	2
96	115	2
64	64	3
114	114	1
8	11	1
13	112	1
156	157	1
145	145	4
88	89	1
0	1	1
19	27	2
49	49	2
121	121	1
170	170	4
132	132	2
15	111	1
0	28	1
162	163	1
43	44	1
156	156	2
53	108	1
108	108	2
84	128	1
118	119	2
101	101	1
88	88	3
12	39	2
48	48	1
161	162	1
46	46	1
86	116	3
80	138	1
33	33	3
28	28	1
147	148	1
166	166	1
97	98	2
78	79	1
128	128	1
158	159	1
77	78	1
81	82	1
146	168	1
112	115	1
76	77	3
92	103	1
67	67	2
85	123	2
22	48	1
51	74	1
100	101	1
1	6	1
144	145	1
6	18	1
140	140	1
56	57	1
79	101	2
20	37	1
134	159	1
99	100	2
17	42	1
135	138	1
101	103	1
19	25	1
135	159	1
11	49	1
