102	112	1
17	77	4
146	181	3
161	161	12
15	40	2
186	186	3
47	47	6
122	122	6
21	23	4
108	166	1
102	115	1
118	148	1
34	34	4
75	75	3
32	32	3
70	71	3
96	97	3
27	28	6
114	115	2
15	16	1
37	66	5
154	157	2
29	29	5
46	46	3
62	64	1
80	80	5
5	5	3
191	191	4
182	183	1
177	177	10
48	58	4
55	56	6
188	188	5
70	70	12
147	147	1
118	120	7
65	65	6
128	149	2
178	178	3
51	51	9
16	18	3
83	83	3
18	77	2
73	76	6
67	67	7
157	157	4
19	19	6
115	117	2
115	115	4
129	129	5
85	85	4
87	90	4
6	6	5
143	143	8
97	153	1
25	42	2
115	116	2
76	76	5
128	129	2
54	55	3
152	160	3
100	100	3
10	10	3
50	53	1
95	95	3
72	73	2
35	36	1
59	59	5
141	141	3
30	59	2
127	183	3
28	28	4
17	78	2
69	73	2
121	130	2
82	83	5
195	195	1
68	69	2
123	123	3
33	161	3
57	194	4
178	179	2
139	139	4
45	47	2
109	109	6
81	85	6
63	64	4
14	42	1
26	26	4
192	192	1
137	137	2
103	114	1
149	150	2
154	155	1
118	122	2
123	133	3
136	136	7
179	180	2
117	117	3
120	120	2
66	66	5
68	68	10
113	113	5
35	35	2
176	194	3
114	114	5
182	182	8
134	135	3
1	1	2
119	119	2
61	61	1
167	167	1
4	4	1
162	163	1
9	11	4
43	43	1
57	60	2
51	52	4
138	139	3
53	56	1
147	150	3
25	39	2
41	41	3
78	79	4
166	167	3
53	53	7
9	9	4
181	181	4
171	171	3
101	101	1
50	52	3
34	36	6
185	185	5
12	12	5
170	170	1
27	27	2
155	155	1
70	162	1
72	72	2
112	112	5
103	105	1
7	10	3
179	179	2
24	42	1
125	125	4
97	160	3
84	84	9
115	178	1
102	113	1
78	78	7
127	127	2
7	7	2
33	160	4
118	121	2
24	25	3
122	130	3
38	38	3
125	126	2
165	165	4
140	141	2
107	114	1
81	81	3
172	177	1
181	182	6
19	23	1
58	72	3
175	176	3
34	35	3
144	180	4
104	104	1
45	49	3
57	108	2
37	37	2
108	111	1
47	173	1
184	184	8
45	45	3
132	132	2
48	48	1
147	149	4
47	49	4
3	6	1
54	54	6
52	52	4
138	158	2
74	101	1
163	165	1
116	116	2
150	150	2
180	180	2
124	148	1
83	86	4
110	111	2
22	23	2
33	33	5
169	169	1
153	153	2
123	124	4
12	13	1
196	196	5
152	152	2
30	31	2
85	169	1
119	120	3
26	27	6
65	66	3
16	16	5
137	160	5
70	161	2
108	109	1
27	59	1
31	31	2
125	148	1
71	71	2
148	148	1
64	66	2
74	102	1
77	78	2
177	194	2
28	30	2
16	39	3
105	105	1
112	175	3
142	142	4
163	164	1
153	158	3
168	169	1
174	175	2
197	197	4
118	182	1
106	107	3
163	163	1
10	12	2
39	39	3
183	183	2
131	131	2
31	58	1
52	53	2
149	149	3
5	11	1
130	131	6
0	3	2
0	6	1
73	73	2
187	187	2
33	98	1
89	89	3
137	158	1
48	57	1
173	174	1
107	107	1
111	111	6
98	98	5
62	66	3
105	113	2
142	152	1
123	125	3
19	40	1
55	55	3
74	74	1
11	13	2
34	161	1
56	60	1
84	85	2
17	17	6
141	149	2
19	20	2
120	121	2
118	118	2
59	60	1
126	126	2
53	54	1
47	171	1
185	186	1
168	168	6
87	87	1
25	26	1
110	110	2
170	171	3
88	88	1
141	144	1
38	39	1
181	183	1
14	14	4
14	43	1
99	161	1
151	152	1
172	172	3
128	130	1
57	57	2
64	64	1
99	99	1
144	145	1
6	10	1
170	187	3
140	140	1
20	23	4
18	19	1
38	66	2
133	134	1
63	63	1
133	133	4
159	160	3
144	144	1
110	112	1
117	118	2
64	65	1
116	178	2
60	60	2
148	149	2
12	110	1
3	3	1
180	181	2
122	131	1
101	112	1
193	193	1
34	70	1
11	11	1
67	68	2
160	160	1
88	90	2
112	113	2
31	32	1
81	83	1
38	57	1
151	151	1
140	152	1
16	19	1
76	78	1
69	72	1
18	18	2
142	151	1
137	156	1
135	136	1
30	30	1
33	139	1
0	0	1
31	57	1
48	54	1
101	114	1
