56	56	6
100	100	9
5	5	9
34	35	3
63	63	8
32	33	4
10	13	1
127	128	2
138	138	10
160	161	8
59	59	5
158	159	6
4	21	5
188	188	19
31	31	18
13	14	6
108	108	6
117	117	12
191	191	10
177	177	8
9	9	12
94	94	7
105	105	3
109	111	3
156	156	10
28	28	5
65	65	5
82	82	7
60	60	15
12	12	10
160	172	3
147	147	3
8	9	3
43	46	2
185	185	7
127	127	2
47	47	5
46	46	12
101	104	2
30	151	3
122	122	6
178	180	2
193	197	6
74	74	2
110	110	10
194	194	10
100	101	3
186	186	7
18	18	10
23	23	4
178	191	5
22	25	1
74	102	5
37	37	7
19	19	13
40	40	6
183	197	2
26	26	7
10	10	7
169	169	10
173	173	10
45	45	7
54	54	8
38	38	6
144	144	5
156	161	6
100	148	3
145	145	13
119	119	7
148	148	7
116	118	3
159	161	8
34	34	9
64	64	6
17	37	2
115	115	6
27	79	3
146	146	6
78	78	9
159	160	1
42	42	9
124	124	2
183	184	2
43	95	1
58	58	7
87	99	2
137	137	4
154	155	1
171	171	4
130	131	9
120	120	4
57	57	7
106	106	2
77	77	2
161	163	6
1	1	9
136	137	5
157	157	13
101	103	5
61	61	5
27	27	9
184	184	5
126	127	3
163	164	4
29	37	5
17	18	3
6	6	15
136	159	1
81	81	7
125	125	11
131	143	1
142	143	1
146	171	2
26	155	2
176	176	5
53	53	5
192	192	8
71	71	8
73	74	4
116	117	4
32	32	4
26	28	4
156	157	1
154	154	3
134	135	6
101	108	2
8	8	5
27	28	6
84	84	6
0	0	3
40	41	1
105	106	2
34	38	2
71	72	3
56	123	2
180	185	1
66	68	1
73	73	8
49	49	5
114	115	5
176	178	2
180	180	4
181	181	6
140	140	3
135	136	1
62	62	5
132	132	9
168	168	6
11	152	1
44	44	4
78	85	2
16	16	6
166	166	8
16	18	1
83	86	3
33	33	6
166	167	3
17	17	9
121	122	3
165	166	1
121	121	6
172	175	5
41	42	3
149	152	3
171	180	3
95	95	11
10	14	1
135	135	10
31	51	6
47	52	2
172	172	5
172	189	1
141	141	2
153	154	2
161	162	4
67	67	5
14	14	5
39	39	3
144	145	2
15	151	2
111	111	4
79	87	2
81	83	4
157	158	7
155	174	2
35	35	7
128	128	6
182	182	5
15	24	1
151	152	3
170	170	7
31	54	3
72	86	2
4	4	10
195	195	7
10	18	1
126	156	4
150	150	3
80	80	5
119	124	1
66	66	3
0	4	6
102	102	7
187	189	3
158	158	5
174	175	1
85	85	10
15	25	2
129	129	17
52	52	7
41	41	5
146	170	2
178	178	15
5	8	1
118	118	5
13	13	7
107	107	7
87	87	12
88	90	2
69	69	9
7	7	10
193	193	1
24	157	8
79	79	3
67	106	2
23	25	3
177	178	5
86	86	4
114	152	2
104	104	9
123	125	1
70	93	2
179	179	8
2	2	3
23	154	2
174	174	8
101	105	3
163	163	3
167	167	8
68	68	4
1	2	4
67	120	2
125	126	4
167	174	1
48	48	5
30	32	4
161	161	4
20	21	3
94	95	3
187	188	6
24	155	1
22	22	5
49	50	1
196	197	5
190	190	6
89	98	3
165	165	4
162	171	1
53	124	2
161	168	3
74	77	2
187	187	3
113	158	1
89	112	6
108	109	3
14	16	1
193	194	2
41	45	2
39	40	1
152	152	5
69	94	1
101	101	4
171	172	2
77	78	1
0	1	6
51	182	2
76	76	4
194	195	1
172	178	2
69	70	1
24	25	8
47	49	2
70	119	2
128	150	3
58	156	3
6	7	1
109	109	1
84	86	2
97	98	2
187	190	3
131	131	3
137	138	1
26	76	1
43	43	2
126	126	7
108	130	4
123	123	8
11	11	4
126	173	1
15	15	8
3	3	8
136	136	4
21	21	12
5	7	5
3	4	1
59	60	3
80	85	1
93	93	1
65	77	2
43	44	2
184	185	1
18	72	1
182	183	1
11	12	7
189	190	1
16	38	3
73	75	2
143	143	5
196	196	4
164	187	2
62	63	2
35	45	1
175	178	2
10	17	2
72	72	5
162	165	1
29	72	1
167	185	2
14	31	3
64	66	1
20	20	5
88	88	3
139	139	3
62	64	1
11	149	1
6	157	2
88	89	5
53	54	4
93	94	2
16	37	2
141	145	1
117	118	2
146	148	2
164	164	6
170	171	1
35	36	1
144	149	2
151	151	4
25	25	3
116	116	1
96	99	3
1	79	1
44	83	1
97	97	3
60	61	1
83	84	1
71	81	5
16	33	1
103	103	2
42	47	1
179	180	2
11	17	3
129	132	1
122	123	1
68	72	1
174	180	1
24	24	2
67	68	1
36	36	3
31	42	1
99	99	2
35	41	2
30	30	5
179	181	6
4	5	4
168	170	1
101	102	1
15	31	1
75	75	2
175	175	2
183	183	2
181	182	1
111	130	1
165	168	2
82	83	1
6	9	3
130	130	2
84	85	1
114	118	1
65	66	1
190	191	1
34	45	1
83	83	1
45	49	1
48	49	2
18	31	1
12	20	2
161	164	1
70	70	3
140	158	1
8	12	1
150	152	1
108	138	1
50	50	2
31	32	1
137	140	1
1	146	1
133	135	1
3	5	1
82	84	1
161	185	2
76	77	1
150	151	2
18	150	1
22	23	1
43	73	1
149	149	3
172	173	1
83	87	1
105	107	1
107	140	1
120	122	1
15	38	1
22	154	1
70	77	1
29	29	2
87	88	1
89	89	1
177	179	1
13	25	1
157	160	1
152	155	1
42	46	2
73	86	1
54	55	1
150	153	1
180	182	1
51	122	1
120	121	1
131	132	1
197	197	1
58	122	1
47	48	1
114	114	1
42	45	1
60	63	1
9	14	1
