133	180	3
57	57	6
182	183	2
72	72	12
52	52	2
220	220	10
217	219	6
25	55	1
184	185	7
2	46	3
222	222	6
30	30	4
184	187	4
59	59	3
158	173	2
86	132	1
236	236	2
79	125	2
208	221	6
2	5	9
8	49	1
230	231	5
178	178	10
2	24	4
223	223	3
202	229	2
24	47	1
158	158	6
225	227	3
126	128	5
26	42	2
4	4	3
98	98	7
238	239	2
195	195	3
64	77	1
46	46	6
196	196	4
32	48	2
10	231	4
138	138	10
121	121	4
34	43	1
36	46	1
6	6	7
203	203	6
134	134	3
99	132	3
163	163	12
69	69	2
189	189	7
127	127	4
23	33	3
82	83	1
28	51	4
225	225	3
184	188	3
164	164	8
162	197	1
116	116	9
100	100	1
4	11	2
222	224	1
230	230	4
194	195	3
215	224	1
97	97	4
39	39	6
75	83	3
52	53	2
28	28	3
28	61	2
137	147	2
63	120	1
181	181	6
145	147	1
191	191	3
229	229	4
28	55	2
127	128	4
186	190	2
200	200	7
12	13	3
76	76	7
232	233	2
122	145	4
198	198	3
188	188	3
237	237	4
2	2	4
113	113	4
15	17	1
2	47	2
123	123	3
193	193	5
161	161	8
157	170	1
29	59	4
135	203	1
26	35	4
30	61	1
8	8	4
143	143	1
15	15	1
119	119	2
170	177	3
21	21	3
22	22	8
209	228	4
58	58	4
206	206	7
104	146	1
17	49	1
29	30	1
5	5	3
43	45	7
41	41	2
10	180	3
54	63	3
154	154	5
18	60	4
82	82	2
73	73	1
50	63	4
238	241	4
213	213	6
20	20	4
227	227	8
211	214	3
135	204	2
238	238	3
188	189	1
44	45	3
83	83	2
211	213	3
191	231	2
239	239	3
5	6	9
186	223	2
85	85	2
26	33	2
235	236	3
61	61	3
23	36	2
166	176	1
18	47	2
37	38	8
193	228	1
77	119	4
139	139	5
216	220	2
194	194	4
5	14	3
49	78	1
214	214	6
193	206	2
160	160	1
40	74	2
74	75	2
49	49	3
242	242	2
197	200	5
112	112	1
170	171	6
12	12	2
33	36	2
151	151	2
148	149	1
173	178	2
178	218	1
81	81	2
193	226	1
214	216	2
202	202	5
133	134	3
162	163	5
32	113	3
121	158	2
174	174	7
171	172	1
207	228	2
67	67	3
103	146	2
53	53	3
61	63	1
136	137	1
192	228	1
187	188	2
84	84	2
32	32	2
168	200	5
78	96	1
183	183	3
170	174	3
166	166	2
205	220	1
205	205	1
215	215	3
136	147	2
70	70	1
75	85	5
116	172	1
178	182	1
218	218	1
29	29	5
37	44	2
155	161	2
169	192	1
193	194	1
102	102	2
210	210	3
3	7	2
7	7	7
170	170	8
65	65	1
117	123	1
114	157	2
64	85	1
240	240	6
7	232	1
58	114	1
42	42	2
222	223	1
80	80	4
107	107	2
190	200	3
174	177	4
37	37	5
212	212	8
167	167	2
57	101	1
162	200	2
217	217	10
178	209	2
221	221	3
54	54	2
27	61	1
26	26	6
24	60	1
235	238	1
170	175	1
28	29	1
185	221	2
115	116	2
177	217	1
34	36	6
208	208	3
57	62	2
44	44	3
90	92	1
35	35	3
234	236	3
113	114	2
185	222	4
2	18	4
178	179	2
57	59	2
207	232	1
228	228	2
101	101	2
50	65	1
125	125	1
212	238	2
107	147	1
108	108	2
64	64	1
161	218	1
16	60	2
17	17	4
183	189	5
23	23	3
62	62	2
79	79	1
182	182	2
138	152	2
144	146	1
140	163	1
67	73	3
215	227	2
126	151	3
160	223	2
40	40	1
8	20	2
136	136	5
71	71	4
169	195	1
224	225	1
184	186	3
239	241	1
18	20	2
166	179	3
118	125	3
172	173	1
66	108	1
113	122	1
115	122	2
171	171	1
162	162	6
14	16	1
65	69	1
165	166	2
193	227	1
153	153	2
66	96	1
41	42	1
103	128	1
226	226	3
19	21	4
1	13	2
86	86	3
1	2	1
219	219	2
39	70	2
14	15	5
11	140	2
104	104	2
27	27	1
211	211	1
25	25	7
3	4	1
89	89	2
139	170	3
39	73	2
19	19	1
209	210	3
43	43	1
176	176	5
228	233	2
99	99	1
217	218	3
165	165	1
10	10	2
153	162	2
27	52	1
16	63	2
0	1	1
101	129	1
32	128	1
86	103	2
216	216	1
56	119	2
185	185	2
106	107	3
199	199	2
118	119	1
3	3	4
235	237	2
196	197	1
25	157	2
173	176	1
211	234	1
42	43	1
56	56	1
76	80	1
28	52	1
173	173	1
138	173	2
78	78	1
2	31	1
10	233	1
77	95	1
221	222	1
123	124	2
103	113	2
213	242	1
140	140	1
175	175	1
150	151	1
60	60	2
33	33	3
185	216	1
29	57	1
68	69	1
6	59	1
137	143	1
197	232	1
26	45	1
51	52	1
201	201	1
21	22	1
77	101	1
124	124	1
95	125	1
234	234	1
190	190	1
192	194	1
180	229	1
156	159	1
122	122	1
34	34	1
19	20	2
30	51	2
1	1	1
31	59	1
114	114	1
58	140	1
115	157	1
41	71	1
29	61	1
33	34	1
48	48	1
4	6	1
11	11	1
166	181	1
133	133	1
226	227	1
34	35	1
215	242	1
214	215	1
