109	109	17
8	8	11
30	30	9
4	5	5
56	57	10
61	61	20
19	20	6
33	33	17
68	68	8
16	16	20
72	72	10
44	44	14
128	128	4
63	63	20
54	55	5
86	86	12
65	66	4
76	76	18
121	121	11
25	25	24
116	116	5
132	132	7
111	111	12
116	117	4
6	8	6
53	54	7
90	90	12
111	117	4
122	122	14
74	74	10
54	54	28
93	93	10
12	12	11
3	4	14
53	99	5
32	32	9
77	123	2
66	66	13
3	116	3
85	107	5
70	70	17
96	99	2
54	97	5
30	32	2
11	11	21
4	4	13
12	31	4
119	119	17
78	78	16
118	118	7
15	15	18
56	56	6
128	129	2
34	35	9
56	111	4
122	124	1
99	100	5
123	123	15
57	68	1
19	21	3
117	118	2
13	13	13
21	22	6
1	1	8
77	77	12
63	70	6
45	45	28
97	97	11
129	129	18
112	112	14
91	94	3
81	82	3
28	29	9
100	107	4
92	93	4
75	75	9
87	87	20
130	131	8
9	9	13
100	100	15
5	6	6
3	115	2
26	26	14
33	37	4
106	106	15
10	11	8
1	3	2
15	26	3
15	17	2
31	33	3
62	62	16
21	21	13
14	43	1
131	132	4
120	120	17
44	45	6
110	110	25
34	34	10
9	10	5
97	98	2
7	11	6
58	58	13
118	119	4
60	97	3
35	35	8
10	10	8
98	98	11
6	6	14
59	59	10
24	24	20
90	91	13
103	103	9
24	43	2
114	114	9
71	112	3
65	65	8
96	96	7
50	71	2
132	133	7
105	105	10
54	56	5
15	27	3
19	19	10
5	71	5
97	108	3
107	107	15
77	79	5
3	3	19
92	92	21
130	130	8
20	21	1
0	0	10
85	85	7
49	50	5
67	67	4
133	133	10
91	92	6
28	28	11
84	107	3
126	126	7
110	111	10
71	71	22
97	99	3
84	84	17
111	112	7
91	91	9
85	86	1
64	64	15
29	29	7
113	114	4
61	122	2
125	125	8
79	79	11
18	20	4
59	60	4
131	131	5
29	30	7
27	27	11
130	132	9
100	101	4
22	23	8
80	80	4
5	116	2
113	113	21
31	32	3
124	124	9
33	34	4
86	87	14
4	36	2
5	72	3
37	37	7
53	53	9
129	131	6
53	107	1
108	110	1
14	14	3
57	57	15
6	7	10
18	18	12
77	78	5
70	71	3
2	2	13
88	88	5
127	127	13
126	127	2
115	115	5
48	48	8
96	100	3
3	5	2
82	83	3
77	118	4
24	25	12
77	80	2
86	88	4
5	5	11
122	123	6
77	120	7
112	114	1
26	31	2
16	19	2
20	20	9
63	64	5
31	31	6
95	96	2
79	120	3
12	13	3
99	99	12
37	38	10
18	22	6
65	71	9
62	63	2
7	12	2
0	1	3
52	54	6
105	106	2
2	27	3
83	83	13
109	110	4
95	95	3
129	130	3
76	77	7
9	38	2
0	12	7
49	72	2
127	128	8
51	118	5
42	43	1
52	56	2
55	58	2
117	117	7
1	2	11
36	36	10
11	12	1
46	73	5
108	108	12
17	17	2
23	23	1
93	96	1
112	115	2
14	15	2
115	116	4
69	69	10
134	134	7
89	89	10
120	121	2
3	114	3
104	104	6
72	112	1
25	26	9
61	62	4
51	72	4
94	96	2
127	129	1
27	28	2
66	69	1
78	98	5
50	52	2
79	98	5
38	38	4
0	45	1
65	116	1
82	82	2
124	125	4
60	60	8
50	109	5
13	37	2
14	33	3
12	14	3
23	24	2
73	73	9
55	55	11
64	65	2
77	98	4
85	105	3
13	33	3
85	102	2
89	90	4
114	116	2
80	121	2
27	30	2
52	52	8
36	37	8
33	35	1
50	50	9
6	109	2
55	110	2
48	73	2
66	67	3
64	67	3
123	125	1
61	125	1
119	120	2
125	126	2
65	114	2
30	34	3
104	105	1
62	118	3
75	76	1
118	120	1
85	101	1
101	101	12
58	68	2
54	60	1
98	110	2
15	25	2
50	62	3
83	107	3
69	70	2
99	126	1
65	67	2
99	104	1
108	109	4
43	43	4
19	23	1
102	102	5
9	35	2
112	113	3
35	36	3
9	36	3
32	35	1
102	105	2
101	102	7
22	22	2
50	118	1
24	26	2
27	29	2
94	94	7
121	122	4
32	33	1
48	49	1
52	53	3
68	69	4
80	98	1
79	80	3
47	47	2
64	68	3
12	30	3
79	97	1
49	49	2
71	72	2
0	4	2
52	55	3
100	102	1
23	25	2
42	42	2
133	134	1
4	37	1
112	117	2
1	44	2
53	96	1
95	103	1
65	112	1
76	78	3
26	32	4
44	115	2
16	17	7
99	103	3
28	30	1
60	61	1
110	117	2
106	122	1
81	81	1
87	88	1
96	97	1
84	85	1
15	16	2
12	33	1
91	93	1
126	129	3
2	45	2
132	135	2
84	100	1
11	28	1
113	115	3
53	84	1
16	79	1
30	31	1
5	7	1
94	102	1
93	102	1
109	111	2
55	98	1
50	119	1
73	74	1
67	69	1
103	104	1
49	71	1
103	105	1
124	126	1
8	9	2
1	14	1
89	92	1
0	6	1
130	133	1
101	106	1
12	15	1
122	125	1
109	118	1
21	23	1
123	124	1
123	127	1
17	18	1
46	46	1
20	22	2
15	19	1
59	61	1
83	105	1
92	101	1
