62	78	1
50	50	6
73	73	10
120	120	8
124	124	11
25	25	14
67	67	5
0	0	12
38	38	11
21	21	15
58	60	1
18	18	8
96	96	2
128	128	8
14	14	8
45	45	8
76	81	8
70	116	7
130	130	7
17	24	8
32	77	1
122	122	6
105	105	11
79	79	9
99	99	31
22	23	2
11	30	3
129	129	25
62	62	18
4	4	9
16	16	7
11	11	6
36	36	2
8	8	9
35	38	1
98	98	20
85	85	11
28	28	5
115	115	6
71	100	10
86	86	9
89	89	7
126	131	1
64	65	6
27	28	5
22	22	6
97	97	13
125	132	1
118	118	11
78	78	10
30	30	3
93	93	5
64	64	6
70	101	1
95	95	6
92	92	4
108	108	11
135	135	3
53	53	9
74	90	3
124	125	10
74	74	16
32	32	4
3	4	2
13	13	7
123	123	6
23	24	7
78	86	1
75	75	7
69	70	2
126	126	13
19	23	3
73	74	4
77	79	4
16	17	1
94	94	6
76	76	15
6	7	5
55	55	8
44	44	10
32	79	2
15	15	9
104	105	5
65	110	1
57	58	2
12	12	2
83	87	1
43	43	2
66	66	12
102	102	6
61	61	7
125	126	2
72	73	1
43	118	2
47	47	2
134	134	3
112	112	10
63	63	4
114	114	6
55	57	2
16	23	6
96	98	3
13	79	5
87	87	8
81	82	2
44	57	4
31	31	9
5	33	3
83	84	3
47	48	1
71	71	9
123	126	1
76	114	1
89	90	5
6	13	4
58	63	2
27	27	3
24	24	5
35	35	5
127	127	8
54	54	7
77	78	7
31	32	3
23	23	2
29	29	7
70	70	4
45	91	4
102	114	1
44	56	2
126	133	1
65	66	9
12	13	2
20	21	7
10	11	4
72	100	2
6	6	9
95	97	3
109	109	12
61	88	3
57	57	8
34	80	4
92	130	2
81	86	1
8	30	3
88	89	9
65	109	1
32	82	3
118	119	2
103	103	8
102	103	1
100	100	3
43	117	4
2	4	2
104	104	9
131	131	8
133	133	6
26	26	8
83	83	1
125	125	5
4	19	5
107	107	5
127	134	2
5	21	2
19	26	1
113	114	1
82	82	5
56	119	3
71	101	2
33	35	5
117	117	5
78	87	1
85	86	1
34	34	10
111	111	7
1	29	1
3	3	7
59	60	2
61	87	7
124	126	3
59	59	7
90	90	3
60	86	3
114	115	1
42	117	2
91	91	1
119	119	4
60	60	9
14	15	4
74	102	7
45	92	1
7	7	8
2	2	2
19	20	3
72	119	1
5	5	6
106	106	2
33	33	9
10	10	4
20	20	12
1	1	4
118	120	3
15	21	2
68	68	3
58	58	3
121	121	8
60	61	4
88	88	2
80	80	8
17	18	2
33	34	5
56	92	1
113	113	1
61	62	6
110	111	1
132	133	2
72	120	2
119	120	4
99	100	1
96	97	2
1	2	8
67	68	4
75	76	1
107	110	1
35	79	2
72	72	3
101	101	2
134	135	1
59	62	1
109	110	1
72	102	1
116	116	5
130	132	2
103	104	3
84	84	3
16	18	1
68	69	1
74	115	3
110	110	6
25	26	2
79	105	1
63	64	1
125	131	1
1	24	1
34	35	1
64	70	1
45	57	1
93	122	1
52	52	1
19	19	4
20	27	1
53	54	1
94	95	4
49	49	2
8	9	2
21	22	1
131	133	2
5	6	2
99	120	2
101	115	1
7	8	1
112	113	4
59	116	2
126	127	1
77	77	2
14	33	2
58	116	2
76	79	2
132	132	2
37	63	3
95	99	1
67	69	1
9	30	1
5	19	1
98	134	1
69	117	1
24	26	1
97	98	1
54	55	1
38	63	2
127	128	2
91	92	1
19	21	1
37	64	1
83	86	1
84	85	1
74	75	1
43	56	1
78	82	1
9	10	1
62	76	1
105	106	1
35	106	1
76	78	1
108	110	1
69	69	1
35	37	1
17	17	1
