100	100	8
98	104	10
89	91	2
42	45	1
28	48	2
32	32	16
61	99	2
45	45	13
51	71	3
83	83	4
75	101	4
50	50	2
82	82	10
61	61	2
80	80	5
25	38	6
84	84	10
72	99	5
78	87	1
81	82	4
60	61	3
95	107	2
64	64	10
31	33	2
105	105	4
74	74	6
99	99	3
29	49	4
21	21	13
47	47	7
53	55	3
65	65	6
30	30	1
40	40	3
23	23	3
53	53	10
77	105	3
49	49	9
20	20	9
72	72	10
71	89	1
73	82	2
74	75	2
92	92	6
76	76	7
20	22	5
25	48	3
87	103	1
41	41	9
86	86	8
79	80	6
30	50	3
89	90	2
97	97	7
77	77	5
63	63	11
88	88	8
33	33	2
95	95	4
31	35	3
85	85	7
40	90	9
103	104	2
94	94	4
21	23	2
46	84	2
65	73	2
33	45	2
98	106	1
98	98	21
58	58	9
35	49	3
28	61	2
37	37	1
56	56	4
92	95	1
90	91	2
78	101	2
34	34	4
89	92	3
69	70	6
83	84	1
59	59	6
42	42	1
63	96	6
66	92	1
24	24	11
81	81	11
36	36	4
57	57	17
54	54	6
27	32	5
39	39	3
62	62	12
76	105	2
20	21	3
38	91	2
81	85	2
97	101	7
89	89	4
66	67	6
20	45	1
49	73	5
55	56	5
28	34	1
31	56	4
39	45	2
63	87	3
59	70	5
71	72	4
44	49	3
22	22	3
55	55	5
29	30	3
37	58	1
26	58	2
57	91	2
27	27	2
100	106	1
80	84	4
25	62	3
51	51	2
75	75	5
64	96	1
35	35	4
82	85	3
71	71	4
39	58	1
54	56	2
62	63	5
63	86	1
79	79	3
27	56	1
66	66	5
73	99	1
97	99	4
53	54	1
64	65	2
28	36	2
60	60	2
26	26	2
88	90	3
97	98	7
65	94	3
62	88	2
96	101	1
98	101	2
23	57	3
104	104	2
50	62	2
24	70	1
66	100	5
101	101	4
76	77	1
51	53	2
91	91	2
70	70	6
23	24	2
59	88	1
23	91	3
44	44	3
78	78	4
51	54	2
43	43	1
103	103	4
42	90	2
94	95	1
52	52	4
102	103	3
33	44	1
27	28	2
68	68	6
33	34	3
46	46	2
39	91	1
34	36	1
78	93	2
90	100	1
96	106	1
82	83	2
73	97	2
100	102	1
102	104	2
21	26	2
44	45	2
102	102	4
97	100	1
79	84	4
93	95	1
96	97	2
28	28	7
93	93	2
47	48	2
73	83	1
72	91	2
79	86	1
21	60	2
31	36	1
67	67	4
88	102	3
59	85	2
22	47	1
96	96	4
88	89	2
59	63	1
65	68	1
48	48	1
37	39	1
98	99	1
84	85	2
26	37	1
23	92	2
22	24	1
25	47	1
81	83	1
20	59	2
25	26	4
69	69	2
68	94	3
62	70	1
45	49	1
62	85	2
78	88	1
78	80	1
82	102	1
62	95	2
96	100	2
43	45	2
99	100	1
41	45	2
70	99	1
79	85	2
51	55	1
79	87	1
78	102	1
93	100	3
44	69	1
47	78	1
33	40	1
64	85	1
76	93	2
32	34	2
75	76	1
26	28	1
48	62	2
35	36	1
50	63	1
59	72	1
107	107	3
40	41	2
68	92	1
68	69	1
61	84	1
24	71	1
26	27	1
34	40	1
77	90	1
39	40	2
93	96	1
65	93	1
75	103	1
78	79	2
29	29	3
72	106	1
67	68	1
92	94	1
35	69	1
73	73	2
51	52	1
40	53	1
48	49	1
101	102	1
42	43	1
20	71	1
