6	57	4
94	94	7
1	1	3
88	88	8
30	30	6
33	34	2
127	128	5
41	45	1
126	131	3
22	22	8
54	63	1
25	25	2
87	87	5
33	44	2
55	90	2
97	97	9
103	103	10
128	128	3
83	85	2
33	62	2
5	6	2
12	12	3
40	60	4
4	31	1
19	19	4
43	43	6
81	81	8
45	45	5
5	5	7
70	70	4
101	131	2
27	27	11
82	96	7
53	53	11
14	15	8
49	49	8
114	120	1
75	75	16
23	23	5
72	72	20
116	117	4
33	63	1
67	92	3
87	130	1
107	124	3
120	120	7
21	21	3
46	67	4
8	32	3
2	5	3
46	47	6
100	102	7
92	92	16
17	17	4
29	29	3
63	63	3
15	15	3
29	30	3
112	112	18
23	113	3
67	108	2
124	124	3
43	74	1
59	77	3
97	98	2
73	73	8
13	14	5
89	90	7
42	74	1
33	33	1
48	57	2
2	52	3
124	125	3
3	3	3
89	94	4
75	108	1
14	14	8
46	46	9
21	47	8
109	109	3
105	106	5
16	17	2
127	127	4
39	39	8
79	79	6
110	110	13
91	92	1
63	77	2
122	122	6
10	10	3
56	110	2
95	95	3
9	9	4
53	54	2
29	74	1
93	93	14
13	13	4
84	84	3
96	96	14
44	44	4
4	4	6
129	129	5
86	86	1
107	108	4
62	64	4
54	54	6
65	67	4
57	57	11
56	104	5
24	24	7
85	99	3
4	5	3
50	50	9
4	13	5
16	16	4
88	89	4
26	26	11
26	49	2
61	62	9
51	51	8
101	101	2
61	102	2
48	48	5
74	74	5
60	60	3
9	32	1
110	111	4
6	52	2
46	55	1
18	18	8
66	77	2
91	91	6
39	78	3
76	108	1
56	57	7
64	96	1
64	64	7
102	102	4
85	85	5
38	67	4
33	40	3
49	50	2
95	132	2
89	89	2
115	115	8
61	61	11
71	72	1
28	32	3
66	66	10
89	112	2
106	106	5
67	67	6
65	79	4
0	49	5
82	82	6
89	99	1
83	83	6
25	26	9
56	106	1
128	132	2
8	8	7
63	78	4
56	56	5
118	118	2
39	77	1
1	53	1
117	117	1
31	31	4
21	34	3
65	65	4
99	119	1
71	74	4
62	101	2
42	76	2
68	68	7
80	80	7
26	32	1
63	64	3
19	20	2
104	126	1
80	94	4
133	133	2
108	108	8
120	121	1
98	127	2
42	43	1
85	95	1
127	129	2
100	107	1
39	48	3
28	28	2
90	90	4
11	11	2
41	41	4
79	127	2
16	18	1
21	77	2
113	113	3
60	102	1
96	98	3
100	101	2
8	69	2
66	101	5
38	38	4
47	47	5
59	59	9
62	63	3
104	125	1
8	26	1
70	76	2
8	9	1
90	91	1
57	58	1
50	52	2
78	78	2
118	120	5
114	114	4
69	69	6
89	92	1
100	100	6
63	79	2
8	30	3
97	107	1
17	20	2
98	129	2
88	118	5
26	110	2
132	132	2
6	76	1
115	118	2
114	117	1
103	108	2
44	45	4
43	44	6
46	48	1
67	68	2
19	54	1
28	31	2
123	123	5
107	107	12
23	69	2
114	115	3
23	24	3
63	103	1
119	131	2
70	72	2
114	118	1
121	121	5
99	99	3
78	104	3
107	126	3
71	71	3
95	96	1
65	66	4
106	107	4
6	6	6
88	126	2
60	92	1
115	117	4
115	116	5
85	87	1
0	0	3
38	65	1
13	70	1
42	73	2
129	130	4
33	43	1
116	116	8
125	125	7
6	43	1
76	77	5
7	48	2
71	73	5
111	111	4
21	56	2
32	60	1
3	7	1
9	55	3
87	94	1
40	40	1
54	118	4
81	86	2
6	8	3
102	103	3
38	79	1
80	102	1
101	128	1
32	32	3
60	103	1
52	58	1
83	97	1
9	90	1
99	118	1
63	91	2
34	62	1
22	77	1
56	107	3
87	98	2
8	93	1
20	20	5
55	55	2
33	77	4
44	46	2
1	3	1
97	126	2
45	46	3
25	118	1
6	42	1
77	77	5
129	131	1
61	87	2
33	39	3
24	40	1
131	131	1
23	28	2
41	42	2
56	69	1
107	109	2
64	97	1
5	52	1
105	105	1
3	8	1
19	23	1
30	71	3
56	66	1
87	103	1
89	118	1
9	92	1
58	59	2
39	40	3
95	101	1
109	120	1
103	104	2
98	98	1
11	116	1
128	130	1
76	76	3
62	102	1
53	64	2
44	61	1
23	27	1
51	52	1
124	133	2
42	42	3
119	119	1
63	97	1
28	29	1
52	118	3
89	111	2
25	43	2
24	69	1
34	34	1
72	73	1
62	62	1
53	66	1
89	117	1
6	7	1
99	120	1
54	117	1
1	51	1
68	93	1
5	43	2
109	110	1
58	62	1
59	63	1
130	130	1
83	84	1
15	17	1
49	112	1
24	54	1
112	113	1
19	69	1
54	130	1
18	19	1
82	83	1
