132	133	10
160	160	14
100	144	1
92	92	5
102	151	1
13	22	2
173	186	2
111	113	1
57	57	6
139	150	4
26	141	8
31	31	8
190	190	4
18	19	5
75	88	5
120	120	19
95	109	2
180	180	1
162	167	7
141	161	1
184	184	8
146	168	2
153	153	9
55	55	12
107	107	5
96	98	6
134	150	1
90	109	7
173	174	5
183	184	4
105	105	15
112	114	3
20	20	10
52	53	13
73	74	6
148	149	2
22	22	6
142	164	2
89	89	10
24	24	7
136	136	4
181	188	5
112	112	6
5	13	4
142	143	4
18	23	3
95	99	2
16	16	11
166	166	15
32	32	9
155	156	3
140	141	7
42	42	5
123	123	13
42	46	2
186	186	16
66	66	6
85	85	12
98	98	7
100	100	20
59	61	7
144	144	6
140	140	2
119	119	2
48	48	9
41	42	4
130	132	4
13	54	3
182	182	8
84	84	1
138	181	5
10	11	6
65	65	1
32	34	2
104	104	4
159	159	6
106	106	12
102	105	2
121	122	5
11	11	9
121	123	6
109	111	5
22	156	5
62	63	1
37	37	7
53	53	7
140	146	2
102	102	10
79	79	12
90	95	1
179	181	8
147	150	9
13	23	1
34	36	1
114	114	8
119	120	4
149	149	7
110	110	15
33	34	2
162	163	12
121	121	9
152	152	12
118	118	9
41	48	7
126	127	1
23	24	2
74	117	5
58	58	7
143	143	9
68	68	3
70	70	7
115	116	1
76	76	14
62	117	2
21	21	18
163	164	3
35	35	6
181	181	7
168	168	5
102	153	2
25	26	4
108	108	4
174	174	3
161	161	9
80	81	7
149	179	6
2	2	16
78	78	9
181	182	4
64	98	2
59	59	5
58	60	5
77	77	8
4	4	3
84	128	4
25	140	3
75	95	1
90	90	5
85	90	3
146	146	3
25	25	14
20	21	5
109	109	11
175	175	15
90	148	1
4	77	6
188	188	2
74	118	1
142	168	2
22	158	2
158	159	2
101	101	4
27	28	3
76	77	1
78	79	8
76	95	3
148	148	9
33	33	4
85	86	5
23	23	14
99	136	3
135	136	3
74	74	6
134	134	8
10	10	11
2	40	4
95	113	6
87	87	17
5	15	3
15	15	5
150	151	7
13	13	9
124	124	16
176	176	9
44	44	5
159	162	2
34	37	1
53	54	2
141	142	1
14	14	8
27	38	2
177	177	12
188	190	9
131	131	5
29	29	8
116	117	4
46	46	8
19	20	1
72	72	9
137	137	3
126	126	11
0	0	9
187	190	1
152	153	2
93	93	3
35	37	2
130	136	2
83	83	1
155	155	14
151	151	6
177	178	7
187	188	7
103	103	6
71	72	3
31	32	2
150	150	13
147	171	4
61	66	3
145	145	3
129	130	4
15	18	1
168	169	4
14	15	4
177	186	1
182	183	5
19	21	1
77	90	5
117	165	2
31	42	1
189	190	5
136	137	6
173	173	3
11	12	5
157	161	2
96	97	5
115	115	9
86	86	6
170	170	9
139	139	11
133	134	6
141	141	2
163	169	3
38	39	1
153	154	2
91	98	2
147	147	7
185	185	4
12	13	2
125	131	4
43	43	9
22	23	6
187	189	3
179	179	6
160	163	3
178	178	11
101	153	1
95	95	5
139	149	3
135	137	1
107	142	2
64	64	4
88	89	2
135	139	3
60	61	4
58	59	6
128	128	12
151	152	8
44	46	8
125	125	8
80	80	2
27	27	5
76	86	3
119	123	3
103	104	3
27	36	1
46	70	4
59	60	2
12	17	4
187	187	1
54	54	8
110	111	4
180	181	2
175	182	2
13	19	2
101	102	3
101	104	2
91	91	3
97	99	3
47	47	11
167	168	9
113	113	11
94	94	3
189	189	3
179	180	1
30	30	5
142	144	3
188	189	7
156	156	3
66	68	2
141	153	1
91	92	2
52	52	1
161	162	1
141	143	4
141	166	6
138	138	7
63	63	3
122	122	6
129	129	2
132	132	3
147	168	3
34	35	4
171	171	4
18	20	6
92	105	4
92	93	3
172	172	2
75	76	2
97	98	3
26	102	1
97	97	7
44	47	1
102	152	2
111	112	3
174	177	1
78	82	2
92	100	2
88	88	4
165	165	2
84	85	1
118	135	3
81	81	12
130	130	5
156	159	8
9	12	1
37	57	1
28	28	4
149	150	1
5	8	2
183	183	11
11	23	2
164	164	9
16	41	2
17	17	8
1	1	9
99	99	6
4	5	2
74	106	1
130	131	2
73	73	10
35	40	5
7	7	4
19	19	6
109	136	1
23	46	2
171	173	2
169	169	8
6	7	8
62	110	4
26	26	6
176	177	1
31	37	4
162	162	3
2	89	1
56	56	4
85	91	3
4	7	1
94	100	1
109	112	1
92	95	1
6	6	2
10	38	1
13	14	2
94	95	1
82	108	1
90	91	5
0	1	1
129	132	3
63	115	1
177	179	2
56	64	1
96	96	2
24	38	2
71	71	11
135	135	2
112	116	1
109	110	4
54	55	2
111	141	1
15	20	5
13	15	2
85	166	1
17	18	1
146	167	2
12	12	3
75	75	5
146	147	5
106	107	5
116	116	5
113	114	1
75	86	2
87	88	2
103	106	3
111	111	4
45	45	2
157	185	2
157	157	4
12	18	2
159	164	1
78	86	1
71	74	2
44	55	2
39	39	9
178	179	4
77	78	2
122	170	1
40	40	5
5	5	1
117	117	1
137	139	1
38	38	2
78	92	2
71	77	1
104	105	2
166	167	1
127	137	2
5	7	1
18	18	5
32	33	4
151	167	2
40	42	2
78	80	2
89	140	2
43	44	3
13	32	1
22	160	1
84	104	2
30	76	1
32	43	2
82	83	2
77	147	3
118	119	1
100	137	2
56	57	5
26	36	1
33	35	1
14	56	4
92	106	2
184	185	2
180	183	1
70	72	2
168	190	1
176	179	2
45	47	1
27	29	1
154	154	1
101	152	2
149	190	3
128	169	2
2	88	1
114	115	1
0	191	2
65	66	3
108	109	2
72	116	2
147	148	1
18	32	2
73	82	1
142	142	3
3	4	1
41	41	6
175	177	1
152	154	3
159	160	2
125	136	2
175	180	1
122	123	3
171	172	4
109	153	1
47	48	2
10	15	2
158	158	2
8	8	2
163	163	3
73	133	1
27	53	2
155	181	2
174	179	1
174	178	1
8	9	1
32	45	1
29	37	4
13	18	1
95	97	1
186	187	1
23	161	3
10	23	1
174	175	1
23	25	1
14	58	1
164	167	2
33	37	1
53	55	1
100	104	2
166	168	1
8	56	2
84	162	1
120	124	1
117	164	1
82	82	1
23	32	1
174	187	1
16	37	2
151	185	1
137	138	2
102	140	1
155	158	1
120	129	1
23	159	1
81	82	2
7	38	1
95	98	1
34	34	1
131	133	1
172	173	1
2	3	1
12	53	1
