42	50	6
32	32	3
63	63	7
27	27	12
13	13	14
1	1	12
53	53	12
55	55	24
61	61	9
52	52	14
24	24	14
67	67	7
36	36	11
43	43	8
25	25	22
26	27	3
0	0	18
41	41	9
2	3	5
39	39	14
8	9	1
35	35	19
46	47	8
40	40	17
54	54	13
23	24	7
22	22	11
10	10	11
37	37	5
51	51	13
44	44	2
52	54	1
7	10	4
18	55	4
41	42	4
55	56	8
73	73	8
9	53	5
9	9	6
20	20	9
47	48	4
38	39	4
53	54	10
11	13	7
39	40	9
3	3	17
11	12	4
77	77	6
58	58	10
62	62	4
32	40	2
62	63	6
34	34	16
28	28	9
46	46	23
30	30	7
24	25	5
6	7	2
56	56	21
64	66	1
66	67	4
1	5	3
19	19	8
72	74	6
35	36	2
12	23	3
70	71	7
45	45	12
50	50	2
47	47	18
75	75	7
49	68	3
60	64	4
48	56	5
36	37	5
32	39	2
42	43	2
52	53	6
8	8	14
74	74	11
34	36	2
71	71	2
41	75	4
49	58	2
48	50	1
44	48	2
29	29	14
12	12	14
23	49	7
65	65	9
4	4	5
53	56	3
64	65	7
60	60	9
33	33	2
42	70	7
45	46	1
0	13	2
60	61	10
59	59	6
38	38	15
5	6	2
10	23	3
44	45	2
65	67	11
31	31	5
31	32	7
38	52	3
68	68	5
40	41	4
43	44	6
26	26	2
72	72	3
19	56	2
49	50	6
48	48	14
1	2	2
7	7	2
21	29	3
76	76	7
54	55	4
14	14	1
28	29	7
19	20	1
32	71	4
20	30	3
43	49	3
73	74	2
25	33	1
66	66	1
34	35	1
59	65	3
68	69	2
11	11	4
38	64	2
41	72	2
65	66	3
9	43	3
4	5	5
64	64	2
59	60	2
18	18	3
18	19	9
21	21	15
41	73	2
61	63	2
38	63	3
45	48	1
43	45	3
49	49	4
5	5	6
57	57	6
10	53	1
24	26	2
28	59	1
48	49	2
18	56	2
26	32	3
61	62	4
27	28	4
12	13	5
51	68	1
1	4	2
6	6	5
9	10	4
44	72	2
37	38	2
51	53	1
70	70	2
2	2	7
43	47	1
25	26	5
39	41	5
26	62	2
32	57	2
23	25	3
23	23	4
63	64	3
42	42	1
54	56	1
22	23	3
20	49	3
73	75	1
31	68	4
26	30	2
22	24	1
0	18	1
32	33	2
0	1	2
39	69	1
76	77	1
69	69	1
23	43	1
23	66	1
30	31	2
10	11	1
0	5	1
33	34	1
48	55	2
25	61	1
22	30	1
23	61	1
72	75	1
19	30	1
39	62	1
35	37	2
35	38	1
30	59	1
59	66	1
53	55	1
28	77	1
56	57	1
31	72	1
