134	134	12
157	169	3
16	17	6
128	128	31
53	53	16
161	161	8
2	10	1
6	6	9
138	143	3
79	80	5
81	82	14
51	52	5
21	21	7
131	131	11
148	149	9
108	109	6
20	21	10
99	99	17
154	154	19
80	80	4
146	146	12
80	82	1
6	10	7
112	112	9
111	111	17
57	160	2
108	108	12
139	139	11
79	132	5
44	45	9
14	14	19
20	20	21
103	103	15
167	170	2
143	144	9
83	84	6
35	35	22
43	43	11
2	2	17
157	158	6
22	22	7
111	114	2
149	149	8
138	142	2
21	37	4
136	136	12
82	86	5
119	119	29
142	143	13
85	85	3
92	92	1
141	141	14
101	105	3
22	116	3
78	78	5
93	93	9
10	137	7
72	72	13
120	120	4
128	130	3
35	36	3
41	41	12
106	106	14
125	126	4
12	19	5
66	67	7
90	90	27
122	134	3
65	70	4
66	66	11
105	105	15
15	16	8
97	99	11
57	62	6
158	158	7
20	39	4
158	168	6
37	38	11
93	100	4
21	25	5
162	163	11
93	94	7
123	123	4
147	147	9
84	96	1
101	102	9
43	44	2
130	130	8
84	84	13
75	76	4
68	68	17
128	129	10
116	116	14
48	49	7
8	9	4
37	37	29
39	40	7
1	1	13
162	162	8
40	41	3
142	145	1
90	91	7
155	155	19
101	101	16
9	10	6
145	145	6
162	164	1
163	165	7
50	50	15
126	127	7
138	138	21
165	165	6
88	88	6
119	140	2
132	132	14
133	133	10
42	43	5
110	110	7
143	143	19
70	70	15
120	121	15
137	138	3
97	103	3
88	89	10
136	137	1
67	113	1
100	104	7
33	33	5
73	170	1
74	151	4
112	114	3
96	105	2
24	25	4
16	16	11
118	118	12
67	67	10
130	142	4
107	107	22
36	36	15
17	17	19
95	95	11
151	151	14
42	42	14
156	157	2
80	81	2
26	37	3
49	85	2
17	52	5
0	0	12
145	146	6
67	76	2
168	168	7
141	144	3
94	95	4
79	79	6
74	158	2
113	113	5
1	4	4
166	168	6
17	36	3
13	13	21
129	129	16
146	152	4
136	140	5
54	54	5
27	28	3
7	9	2
94	131	4
4	4	19
51	51	4
146	153	4
3	3	15
149	150	6
17	20	4
38	38	13
104	104	8
65	68	5
26	26	4
76	77	5
165	169	4
150	150	10
65	66	2
98	98	6
132	136	6
82	92	11
77	77	4
24	24	8
117	120	4
168	170	1
163	163	5
44	44	6
1	138	4
95	163	1
51	77	4
87	95	2
22	25	7
75	75	7
17	18	2
0	1	11
101	149	1
21	116	5
16	43	4
121	125	3
119	120	5
122	133	2
114	114	10
83	87	1
111	112	4
100	103	4
127	127	5
151	152	6
160	160	6
34	34	11
122	122	5
114	115	9
47	48	5
166	170	4
40	40	7
156	156	5
165	166	4
119	122	3
168	169	2
39	39	6
86	96	3
36	37	3
125	125	4
21	94	2
102	102	9
76	111	2
18	18	14
67	68	3
14	15	11
48	48	10
47	51	1
140	140	11
26	27	4
47	47	10
83	89	3
107	110	2
136	139	2
8	8	10
134	135	4
130	131	6
57	57	9
96	104	2
13	40	8
96	96	4
5	51	2
170	170	3
73	73	6
144	145	6
58	58	2
110	112	3
55	55	5
15	40	1
126	126	10
47	49	4
75	77	2
121	124	5
89	99	5
106	107	12
144	144	5
1	11	5
62	62	5
84	89	4
21	22	5
137	137	9
11	11	11
20	42	1
76	76	12
98	103	2
22	23	5
13	50	1
82	91	3
169	170	1
122	123	1
90	116	3
41	54	4
71	71	1
39	42	4
69	69	7
135	135	6
49	49	6
5	5	8
108	116	3
113	114	3
10	10	11
123	128	2
164	164	3
138	139	5
157	157	4
81	87	4
0	14	1
166	167	2
81	81	6
158	159	2
75	168	2
115	115	1
1	2	4
15	44	2
25	57	1
57	111	1
49	95	2
91	95	4
82	82	2
38	84	3
38	50	2
53	55	1
98	99	8
116	117	3
49	86	2
52	54	2
149	151	9
159	160	5
144	156	12
55	78	4
7	7	4
74	159	5
90	107	2
54	56	2
56	56	9
118	120	5
10	25	2
86	92	3
10	139	5
148	148	11
157	168	2
155	159	3
112	113	1
132	135	1
100	100	7
94	94	1
25	25	15
159	159	7
3	15	3
33	34	1
124	126	4
9	9	2
11	18	2
10	13	2
155	156	6
166	166	4
121	121	4
148	151	7
159	161	2
74	157	2
131	143	3
109	109	2
123	136	4
11	12	2
69	70	2
25	28	2
153	154	7
106	137	3
5	17	2
74	74	3
108	114	1
154	155	10
97	98	1
6	52	1
12	116	1
4	11	6
12	16	3
7	10	3
141	142	1
103	124	1
97	97	8
118	119	4
159	162	1
110	113	2
76	81	2
54	55	3
2	138	2
12	12	2
109	116	2
8	70	3
150	151	3
152	155	2
160	169	3
107	159	1
96	156	1
55	79	1
140	142	1
74	75	2
105	106	2
9	12	1
5	11	5
17	38	1
12	18	6
142	142	5
23	24	2
41	42	4
84	92	1
83	83	3
102	126	2
72	74	8
15	15	4
19	19	4
107	108	2
67	144	2
153	153	3
63	64	4
11	24	1
141	145	1
111	113	1
65	65	3
65	71	2
63	63	6
82	83	4
68	69	3
3	4	1
113	132	3
38	40	1
110	111	5
101	106	2
131	133	1
145	155	4
19	24	1
86	86	6
46	46	1
145	160	1
85	87	3
57	58	1
39	49	3
99	156	3
64	67	3
154	157	1
7	16	3
102	149	1
64	70	2
5	6	2
127	129	2
87	94	1
100	101	4
139	140	2
25	62	3
68	70	1
8	115	1
125	135	2
16	44	1
139	147	1
132	147	3
4	140	3
4	15	2
43	52	1
87	88	3
124	124	2
89	161	3
58	165	2
124	136	1
132	134	1
27	27	2
13	18	2
67	69	1
23	23	3
129	143	1
106	129	1
146	147	3
157	159	1
6	25	1
8	63	2
143	159	2
138	145	1
124	127	2
160	165	1
8	71	1
40	92	1
23	25	2
105	129	1
155	157	2
64	73	2
39	46	1
115	133	2
147	148	1
110	116	1
3	11	1
3	43	1
48	55	1
151	155	2
123	125	2
39	81	3
13	45	1
92	93	2
64	64	1
78	132	1
86	87	2
18	51	1
52	52	1
87	87	2
89	89	4
128	142	1
14	16	4
104	156	2
45	45	1
79	81	1
169	169	1
91	91	1
28	28	1
73	75	1
91	93	2
77	112	1
14	44	1
102	148	1
83	91	3
52	53	1
102	151	1
42	44	2
124	137	1
46	49	2
123	124	2
64	65	1
147	150	1
20	41	2
13	41	1
123	130	4
89	90	2
102	103	2
17	21	1
123	134	1
97	104	5
71	72	2
41	44	3
6	12	1
41	94	1
11	25	2
152	152	1
56	166	1
39	85	2
49	78	1
138	149	1
117	118	1
145	159	1
85	86	2
117	117	1
53	54	1
167	167	1
17	114	1
124	125	2
9	18	1
19	21	1
84	87	1
50	51	1
119	139	1
