5	5	3
83	83	2
115	116	5
109	113	2
74	74	2
61	61	6
4	4	2
75	75	6
88	88	1
102	103	4
9	9	8
54	54	8
126	126	2
103	103	11
70	70	9
120	120	4
79	82	2
22	22	15
85	86	3
2	2	2
122	122	2
13	20	2
101	101	5
61	90	2
12	19	2
118	119	4
97	97	6
17	17	9
54	56	3
5	10	4
115	115	7
84	84	7
63	63	9
30	30	6
48	48	9
35	36	2
87	87	6
71	71	13
141	141	12
94	94	16
142	142	4
137	137	10
53	53	6
88	89	5
3	3	1
72	72	5
99	99	4
92	92	18
78	79	1
123	126	2
68	68	4
67	67	10
96	120	7
96	141	4
125	125	5
89	90	4
96	96	3
144	144	13
38	38	5
73	74	1
96	140	3
135	135	9
77	79	1
104	105	1
139	139	2
116	116	4
123	125	3
105	105	6
81	81	7
80	80	2
123	123	10
95	95	12
24	24	3
132	132	4
8	9	4
37	37	10
9	17	2
82	82	7
28	28	2
59	59	3
9	22	2
100	100	3
74	75	4
133	133	4
52	52	2
107	107	3
18	18	8
136	136	8
124	124	7
76	77	1
77	77	6
108	119	1
16	16	4
106	112	4
80	96	1
140	140	7
33	33	5
112	112	10
106	110	2
102	102	5
42	42	3
33	39	5
0	0	4
21	22	2
145	145	3
104	111	3
117	117	4
90	91	5
59	96	3
49	49	3
85	85	4
48	56	3
17	18	2
128	128	3
84	85	3
106	106	4
57	60	1
101	107	2
126	129	2
22	23	1
9	49	3
78	78	4
34	35	3
55	55	5
111	112	2
106	111	3
128	129	2
17	23	1
128	130	1
99	100	1
8	8	3
25	25	1
105	111	1
108	108	2
96	98	2
118	118	3
31	33	1
0	1	3
138	139	7
91	114	2
58	58	1
3	20	1
121	121	6
49	109	1
79	79	2
132	133	2
21	21	3
106	132	4
35	35	1
31	31	7
70	71	1
75	77	1
20	21	5
14	36	3
72	91	1
117	132	3
18	19	3
111	111	3
58	88	1
40	40	3
110	110	3
91	92	2
79	80	1
123	127	1
49	50	2
137	138	1
29	29	3
1	1	1
59	60	1
103	104	2
88	99	2
109	111	1
90	90	3
28	29	1
93	93	3
61	67	1
132	137	2
98	98	3
69	69	5
122	123	2
131	131	2
79	85	1
56	56	2
77	78	4
68	69	2
138	138	2
21	30	1
23	108	2
11	11	3
132	136	1
113	113	2
97	98	3
129	130	1
13	19	2
119	120	4
134	135	2
15	30	1
78	131	1
29	30	1
135	136	2
30	31	1
140	141	2
18	53	1
54	55	2
104	104	2
110	120	2
62	66	1
71	72	2
67	68	1
129	129	2
4	10	2
9	10	1
55	56	1
20	20	1
97	135	1
62	63	2
23	48	3
119	119	2
14	14	1
23	23	2
62	64	1
19	19	1
83	87	1
80	82	2
130	130	2
64	64	1
17	21	2
60	60	1
27	28	1
114	115	1
66	67	1
127	127	3
12	12	2
80	81	1
65	92	1
30	32	1
61	62	1
87	103	1
2	3	1
113	118	1
22	48	1
62	65	2
96	110	1
26	26	1
146	146	1
101	102	1
41	41	1
51	52	1
73	85	1
98	99	1
61	93	1
