96	96	3
93	93	11
119	119	5
31	31	11
159	160	4
201	202	11
215	215	14
242	242	24
38	38	14
9	9	14
159	159	12
166	167	5
65	65	22
12	44	3
10	10	8
18	18	15
47	47	9
204	207	1
108	158	3
166	166	11
4	5	10
70	70	14
77	78	5
150	173	4
115	116	10
40	40	12
161	169	7
66	66	20
245	245	19
81	81	8
96	97	3
80	81	10
222	222	17
225	225	7
50	50	7
35	37	10
197	238	2
28	28	11
13	16	1
73	74	2
210	211	4
26	26	16
162	162	15
86	86	14
14	14	9
228	228	7
113	113	6
207	207	6
53	54	8
78	79	9
239	239	7
3	4	3
76	76	14
82	83	7
185	220	4
164	164	9
173	173	7
69	69	5
30	30	16
212	212	19
194	246	2
4	12	5
51	63	4
23	155	1
234	246	2
63	63	9
16	43	1
103	103	18
99	99	8
27	27	12
94	94	7
203	210	2
179	187	3
226	240	2
108	108	15
195	195	9
64	65	7
177	177	8
219	219	15
57	92	1
100	100	8
188	189	3
13	14	3
184	185	3
213	213	19
211	211	15
118	118	9
23	85	1
58	58	6
198	199	3
181	181	9
21	21	14
101	210	5
213	220	1
94	176	2
155	155	15
160	160	19
74	74	13
67	72	2
97	97	3
51	55	8
167	167	17
151	162	1
214	214	17
48	48	11
204	206	6
19	19	12
84	84	13
226	226	8
186	241	1
214	222	4
200	200	8
50	51	1
186	186	20
218	218	8
91	91	9
61	61	9
111	117	2
183	184	14
195	225	4
168	169	9
110	110	12
66	75	3
172	173	4
39	39	5
211	212	4
19	33	2
5	6	6
52	52	10
77	77	11
70	71	4
246	246	9
172	172	4
96	99	1
56	92	2
116	116	16
2	2	10
51	51	14
165	166	6
59	59	12
17	17	5
7	7	10
205	231	1
248	249	3
55	55	1
158	158	5
233	233	12
182	182	9
198	198	21
12	12	10
15	16	2
205	205	12
242	243	1
71	71	13
162	163	3
3	225	2
117	117	4
37	37	9
94	95	3
101	101	5
60	66	5
217	217	11
90	93	3
34	34	14
83	115	4
72	72	6
144	145	2
95	95	5
183	183	13
112	112	10
203	203	16
42	42	8
245	246	5
36	47	8
38	39	6
236	236	11
83	90	6
5	5	6
161	161	4
221	221	14
12	153	4
3	45	5
22	23	4
67	109	7
215	220	2
89	98	5
21	96	1
6	7	5
183	219	1
247	247	11
154	156	2
194	196	10
23	23	8
244	244	8
180	199	3
17	18	5
46	46	8
59	119	2
189	189	9
237	237	18
24	24	5
187	187	12
35	35	16
152	153	7
79	98	2
4	47	3
97	208	1
168	168	10
208	208	12
209	233	1
171	183	2
200	201	11
64	67	5
85	86	5
58	208	3
108	149	1
118	120	1
145	149	2
85	120	2
49	49	2
49	208	3
66	77	1
48	165	4
249	249	1
224	225	6
220	220	7
235	242	3
184	184	16
73	75	3
67	76	2
98	98	16
12	43	4
107	107	13
73	73	8
43	43	12
151	151	15
69	102	2
62	63	6
178	180	3
9	162	3
196	196	8
227	227	8
75	205	1
174	174	10
72	73	1
169	170	8
238	238	17
54	54	9
150	150	11
35	48	3
170	171	3
102	103	2
89	89	8
50	62	5
90	90	3
45	45	8
62	62	15
64	64	7
111	113	3
7	14	2
32	33	3
102	102	6
20	20	8
217	218	5
57	58	6
29	29	21
200	205	3
23	24	2
47	88	1
115	115	7
44	45	5
7	8	5
181	221	1
213	214	7
107	113	1
66	68	4
80	80	5
241	248	3
2	212	1
189	200	2
79	79	6
165	165	15
67	67	9
39	48	1
58	60	2
82	82	16
21	22	4
26	27	7
33	34	5
109	109	15
15	15	3
226	227	3
202	223	4
42	43	8
214	216	4
11	23	4
164	165	3
33	33	9
83	83	2
101	109	2
154	154	8
53	53	14
163	164	1
109	110	5
11	11	10
173	196	2
227	229	3
230	230	8
11	149	3
58	207	2
56	57	6
60	60	5
87	87	6
234	235	8
54	55	3
180	180	4
194	194	3
32	39	4
150	151	1
248	248	5
240	240	5
240	242	2
75	75	10
27	29	5
201	201	4
236	242	2
153	153	11
222	247	2
152	152	9
59	63	3
24	29	4
44	44	4
193	193	5
88	88	14
202	202	2
176	176	8
64	162	1
16	29	5
211	224	4
157	157	12
168	170	4
234	234	8
105	105	9
16	16	11
112	151	2
207	211	1
216	216	7
210	210	4
92	92	13
185	188	1
56	58	3
244	246	2
2	3	3
195	221	2
178	178	6
20	150	4
41	43	3
236	240	3
155	156	3
8	8	8
223	234	1
19	41	2
95	96	8
80	84	3
196	241	1
25	25	8
111	111	11
231	231	8
30	32	4
23	25	7
178	183	3
182	183	2
22	22	10
106	106	8
145	145	3
200	249	1
185	185	6
179	179	12
170	172	1
150	152	2
36	36	9
41	41	7
51	52	2
85	85	5
232	232	5
218	219	2
145	156	3
6	10	2
193	194	6
63	65	2
197	212	3
195	217	2
114	114	3
175	180	3
162	172	2
55	56	2
156	157	3
79	80	3
214	215	2
14	20	2
73	196	2
70	72	2
72	191	1
20	204	2
186	187	7
30	31	2
241	241	10
7	10	2
173	174	5
25	40	3
238	239	2
48	49	2
3	10	3
215	218	1
202	243	4
85	90	1
224	224	4
104	104	8
160	165	2
194	220	1
166	168	1
171	171	3
147	147	4
173	180	1
73	100	2
163	163	13
80	218	1
235	235	3
34	35	4
28	29	5
71	72	1
49	53	2
17	19	3
47	163	2
170	170	10
114	115	5
188	188	6
240	241	4
54	62	1
87	88	4
1	1	8
32	41	1
57	57	1
57	98	2
206	207	2
247	248	1
29	30	2
161	162	3
6	6	4
197	198	6
113	121	3
147	175	2
20	21	10
101	209	2
116	118	2
191	192	1
237	240	1
77	163	1
237	238	1
61	120	1
151	152	1
199	199	8
69	70	2
179	189	1
146	156	3
243	244	5
172	235	2
3	13	3
199	238	1
109	115	3
206	206	3
229	230	2
12	38	3
66	67	8
209	209	9
210	212	3
193	204	2
49	58	3
211	213	2
8	150	2
21	204	3
100	209	2
79	81	3
49	50	3
222	224	1
120	167	2
112	113	2
116	117	2
92	93	6
22	27	1
47	52	3
76	77	9
160	161	2
14	15	6
189	190	2
235	236	2
47	48	1
49	119	1
158	159	2
146	146	2
179	180	2
105	106	3
31	87	1
237	247	1
204	204	5
199	200	4
67	68	5
86	96	1
187	188	1
175	175	10
158	180	2
156	156	5
110	114	3
90	91	2
222	223	3
65	66	2
1	3	2
158	172	1
27	28	2
198	200	1
117	145	1
68	68	9
178	179	2
65	180	2
165	167	1
194	195	3
54	165	1
169	171	2
236	244	2
180	181	1
169	169	7
232	233	2
58	59	1
35	72	1
190	192	2
236	237	3
145	146	1
194	197	2
58	61	5
148	149	2
68	83	6
232	235	1
14	33	1
212	220	2
147	156	2
190	190	13
57	60	1
84	93	2
145	180	1
111	112	4
20	32	1
1	13	1
2	47	3
61	64	1
193	248	3
182	186	2
71	73	4
65	78	1
104	105	3
12	232	1
22	116	2
71	119	2
210	224	1
4	4	6
44	121	1
25	26	4
189	199	2
46	47	8
153	154	6
229	229	5
176	177	3
6	32	1
204	230	2
101	102	2
196	197	2
161	163	2
237	239	1
89	94	1
223	223	8
56	56	8
78	78	3
64	68	1
36	37	2
175	176	5
175	191	3
168	175	4
244	245	3
181	182	1
246	247	2
10	151	2
173	183	1
225	226	1
72	91	4
243	243	5
101	106	1
197	197	5
191	191	4
75	76	1
231	234	3
22	31	1
1	91	1
157	158	1
158	185	2
176	181	1
21	23	1
2	51	1
195	196	1
205	206	3
70	108	2
51	58	1
3	12	2
47	49	1
97	99	2
83	120	3
146	147	2
167	168	1
222	229	3
193	196	2
157	159	1
203	211	1
115	163	1
178	185	4
176	182	1
97	98	1
215	240	1
186	219	2
111	226	1
51	118	1
201	203	1
69	88	3
78	80	1
33	37	4
162	165	1
224	230	1
203	207	3
5	7	2
89	91	2
43	44	1
205	214	1
163	165	2
61	99	1
151	153	2
233	234	3
86	87	1
45	46	1
6	8	3
40	44	1
9	10	3
221	222	2
179	181	2
120	163	2
22	45	1
102	210	1
60	61	1
195	218	1
33	38	1
244	247	1
231	233	2
170	173	1
162	171	2
19	230	1
11	19	1
42	168	2
195	220	2
230	231	1
32	32	1
193	214	1
150	226	2
227	228	1
181	184	1
199	201	1
11	17	1
5	47	2
104	108	3
120	120	3
212	215	1
16	227	1
209	222	1
185	186	1
8	10	2
212	214	2
101	105	1
186	192	1
239	242	1
207	209	3
159	173	1
198	248	1
47	165	1
186	188	2
120	145	1
234	245	2
19	20	1
1	213	1
31	36	1
6	12	2
50	60	1
235	245	2
0	1	1
115	145	1
61	62	3
224	226	1
192	192	4
157	166	1
231	246	1
160	173	1
190	247	2
52	63	1
3	3	2
21	154	1
77	79	1
178	206	2
18	19	1
61	95	1
216	217	1
3	50	1
13	13	1
69	73	1
6	40	1
42	45	1
48	166	1
24	28	2
22	25	1
154	155	1
84	117	1
121	162	1
104	154	2
16	20	1
70	119	1
24	25	1
53	55	1
23	199	1
109	114	1
69	75	1
8	9	2
65	179	1
110	113	1
29	31	1
208	209	1
62	176	1
182	202	1
68	71	1
