73	73	8
39	40	5
107	107	8
20	26	8
92	92	14
83	83	18
28	29	5
61	62	7
62	62	9
84	85	4
77	77	16
103	103	18
109	109	11
27	27	3
85	85	7
88	97	2
100	100	10
21	21	12
79	81	5
76	81	10
51	51	11
84	84	5
61	61	2
58	58	7
112	112	3
71	73	4
110	111	2
93	94	1
76	77	9
92	93	2
102	103	7
64	87	2
92	94	1
97	97	14
29	29	1
75	75	8
97	109	1
50	50	12
68	69	17
101	102	6
63	64	9
98	100	1
55	58	2
75	76	3
105	106	2
49	50	4
85	98	4
99	99	10
46	46	15
82	82	14
77	78	11
110	110	16
66	68	3
47	47	2
24	24	5
19	19	4
89	89	12
23	23	5
68	70	1
43	43	7
96	96	14
59	60	6
52	52	8
68	84	1
105	105	4
86	87	8
54	54	7
95	95	10
71	71	9
46	63	6
70	71	4
48	48	6
47	49	5
106	106	8
85	86	2
67	71	1
115	115	5
55	60	3
78	78	8
48	49	10
44	58	4
42	42	8
62	86	1
93	93	6
49	49	8
33	34	4
74	74	9
56	56	10
57	57	4
30	30	5
67	67	4
54	55	4
32	32	13
53	53	8
80	80	5
69	69	9
64	64	3
64	68	1
34	35	12
95	96	4
81	81	7
26	28	1
29	57	3
74	92	1
71	72	6
70	70	7
68	68	9
29	30	3
45	45	9
113	114	6
78	79	4
103	104	2
43	44	3
39	39	4
35	35	13
80	81	6
57	61	5
106	107	6
66	67	6
66	66	4
104	104	18
41	41	5
33	33	5
42	43	4
94	94	5
47	48	7
94	95	5
65	66	3
74	75	2
111	111	12
57	60	5
99	109	3
66	69	12
88	89	3
65	65	10
79	79	5
61	84	4
48	67	2
28	28	1
87	88	3
88	88	1
51	79	4
37	38	4
113	113	6
89	90	2
96	108	3
85	87	2
32	33	3
99	110	1
112	113	2
107	112	2
87	87	6
84	86	4
26	27	5
104	106	2
102	105	2
55	55	1
37	37	3
101	101	5
31	32	4
88	110	2
67	70	3
34	34	5
43	46	1
91	91	8
38	38	2
22	22	1
72	73	6
67	69	7
19	27	1
44	44	6
46	47	2
53	55	4
29	63	2
26	26	6
82	93	4
51	53	2
100	101	5
44	101	2
105	111	2
31	53	1
97	108	3
76	76	3
63	63	2
65	68	2
61	68	3
19	26	7
60	61	1
97	98	5
31	36	4
98	110	2
102	102	8
38	39	7
56	58	1
100	102	2
65	69	2
36	52	1
59	59	2
66	70	1
31	31	3
96	107	2
36	36	2
98	98	7
82	92	2
108	108	6
89	98	3
58	59	2
30	38	1
75	92	2
75	82	1
58	60	6
52	55	1
73	82	2
52	53	3
44	46	4
50	80	3
46	48	1
79	80	2
69	71	2
114	114	2
26	48	1
69	70	2
81	82	1
111	113	1
46	57	1
100	110	1
29	46	3
69	83	1
90	90	6
20	21	1
82	94	3
19	28	1
83	84	2
25	25	1
48	61	1
20	20	1
60	62	2
98	99	2
30	31	1
84	100	2
28	30	1
109	110	2
40	40	3
93	97	2
81	83	1
64	65	3
27	47	1
50	51	2
82	83	3
97	99	2
42	44	1
100	105	1
25	37	1
48	50	2
86	86	2
106	111	1
25	72	1
99	100	4
60	60	1
107	108	2
71	83	1
49	67	1
36	51	1
48	71	1
36	37	1
41	42	1
111	112	1
