178	184	1
241	243	1
70	101	3
235	235	9
36	36	4
191	191	12
237	238	1
198	199	10
219	219	5
180	180	6
217	218	3
53	53	4
179	245	2
173	185	1
18	18	5
170	217	3
199	200	3
67	67	3
204	204	4
222	222	5
182	182	2
14	86	4
119	120	1
4	26	7
20	68	4
90	91	4
211	211	1
77	77	7
207	207	6
104	104	4
67	68	1
27	46	1
177	177	3
184	184	4
5	5	3
240	240	1
38	38	3
32	33	3
153	177	3
55	55	3
70	70	7
159	159	2
57	75	3
26	27	2
30	30	6
75	106	1
96	97	1
175	180	3
193	216	2
158	182	1
110	111	1
45	45	4
56	56	2
236	236	4
96	96	4
90	98	3
97	97	4
100	102	2
160	161	2
223	223	2
242	242	7
34	66	2
73	103	7
14	87	2
109	109	6
222	225	2
58	74	1
156	156	1
221	222	2
209	209	5
94	94	2
233	233	5
73	74	1
173	173	2
75	75	2
188	189	1
183	183	5
165	219	1
170	170	4
184	185	1
16	16	1
179	179	2
60	60	2
212	212	5
101	101	3
33	33	3
49	49	1
87	88	2
3	32	1
208	209	2
70	108	4
161	161	5
100	101	2
113	113	4
223	242	2
20	50	3
80	80	9
220	220	2
25	25	1
166	176	1
39	39	7
175	175	5
104	108	3
51	51	2
170	178	2
191	193	1
180	183	1
9	9	2
118	118	1
71	118	1
203	203	2
107	107	5
149	154	1
26	26	1
197	229	1
77	112	1
20	53	1
213	213	2
94	98	1
80	98	2
111	112	1
166	198	2
90	94	1
27	27	3
54	55	1
3	4	3
194	215	1
158	158	4
3	3	3
170	171	2
154	154	3
171	171	2
166	167	1
82	82	4
76	76	3
22	22	1
174	174	1
195	210	1
163	218	2
115	116	3
99	100	1
69	100	1
54	114	4
225	225	2
78	78	1
167	219	1
197	198	2
47	96	2
24	25	2
222	244	1
19	32	2
57	58	2
78	147	2
27	29	1
152	209	1
213	214	1
228	228	3
218	218	1
178	215	1
220	228	1
208	208	3
71	71	1
185	185	4
230	231	1
102	102	4
37	92	1
60	111	1
100	100	1
245	245	1
178	180	1
199	229	2
94	95	3
244	244	4
188	203	1
29	29	3
210	210	3
190	196	1
199	199	1
224	225	1
157	157	1
43	43	1
87	87	1
218	219	2
246	246	1
197	219	1
153	212	4
221	248	2
67	78	2
64	64	2
210	211	1
6	6	1
190	191	2
147	147	1
110	110	1
4	4	6
240	242	3
58	101	1
88	88	2
109	162	1
19	19	2
115	196	3
165	165	3
59	60	2
176	176	2
45	48	1
150	208	3
95	96	2
54	58	1
95	95	2
72	72	2
152	176	2
152	177	2
55	111	1
44	44	2
149	149	2
206	207	1
21	21	2
193	215	2
54	54	5
189	189	1
35	35	2
58	58	3
186	186	1
151	151	2
221	221	1
174	206	4
201	213	1
77	81	1
185	190	1
173	224	1
169	169	2
51	156	1
69	70	1
241	241	1
37	94	2
167	177	2
85	85	3
63	63	1
239	239	1
57	182	1
18	48	1
80	92	1
112	112	3
13	13	2
108	111	2
190	206	2
155	155	2
169	182	1
14	15	1
224	226	1
212	213	3
49	109	2
248	248	1
28	28	2
92	92	1
197	197	2
193	193	3
221	240	1
84	94	1
153	153	1
76	77	2
200	235	1
229	244	1
198	198	1
115	115	1
202	202	2
174	245	1
116	116	2
203	204	1
174	246	1
7	7	2
238	239	2
59	59	3
91	91	2
2	2	2
32	34	2
171	184	1
194	194	1
11	11	1
163	206	1
44	63	1
231	236	1
22	23	1
226	226	1
93	94	1
229	229	1
114	181	1
72	74	2
48	48	1
145	145	1
185	214	1
18	47	2
4	30	1
65	98	1
213	221	1
212	214	1
159	166	1
198	234	1
21	22	1
36	90	1
18	19	1
219	234	1
98	98	1
172	226	1
223	245	1
104	107	1
231	231	2
24	24	1
106	106	2
153	154	1
10	229	1
224	242	1
97	98	1
55	113	1
20	20	1
