112	112	13
63	63	10
76	77	9
109	109	12
81	82	2
14	14	11
31	31	8
88	88	21
74	74	22
32	32	12
54	54	6
28	31	8
102	102	24
47	47	3
0	0	27
35	37	2
93	94	7
114	114	18
3	3	3
9	96	5
16	16	13
88	101	2
118	119	5
85	85	6
134	134	14
96	97	5
59	59	21
79	80	3
97	97	2
82	82	7
80	99	2
126	126	14
7	11	1
15	17	7
61	61	21
125	135	5
90	90	17
108	108	6
124	124	8
80	102	2
34	34	12
50	50	6
67	68	7
79	102	1
60	60	15
79	79	12
76	76	21
10	36	2
97	98	6
120	121	3
116	116	29
0	1	7
120	131	2
86	134	3
131	131	11
122	122	12
7	7	6
42	42	3
3	9	4
109	127	3
95	101	2
71	71	14
33	33	12
52	68	2
17	33	5
109	110	8
95	95	9
45	85	4
110	129	7
27	27	13
35	35	10
22	22	19
54	83	1
29	29	26
70	70	21
123	124	3
80	80	18
6	6	22
101	101	9
115	115	24
118	118	2
125	125	25
100	100	13
56	127	1
134	135	4
11	32	1
103	103	11
78	78	6
11	29	2
45	52	5
98	98	11
21	21	12
44	54	13
1	30	1
95	96	2
87	87	13
119	119	16
43	43	3
111	125	1
44	44	11
57	128	6
92	100	2
44	82	3
83	84	6
92	93	1
127	127	14
102	103	2
22	23	5
82	108	1
100	101	5
89	90	2
28	28	15
60	61	5
75	75	23
24	25	5
25	25	15
6	7	10
121	122	3
106	107	2
89	89	9
17	20	4
105	105	16
44	69	3
28	29	2
69	69	23
129	130	2
61	63	2
64	124	1
128	128	11
57	63	2
23	23	16
104	104	10
120	120	15
127	133	3
36	50	8
57	57	3
45	45	10
86	87	8
83	107	3
2	35	6
124	125	7
121	121	12
67	67	7
50	68	2
68	68	14
62	62	20
73	73	18
4	4	9
90	91	6
24	24	12
32	102	2
62	63	8
126	133	4
11	11	20
33	35	1
111	122	2
5	5	14
94	94	21
17	19	5
37	37	8
53	58	5
30	30	20
47	74	3
78	132	1
71	72	1
56	56	3
112	116	6
87	88	3
2	2	11
99	100	4
77	78	1
107	108	1
49	49	3
111	114	2
38	38	1
33	34	2
62	64	4
108	111	4
123	123	11
91	117	5
61	62	6
101	108	1
96	96	8
117	117	9
17	18	6
91	91	8
77	77	13
8	23	2
91	93	5
6	23	4
81	88	6
15	15	12
77	128	1
106	106	12
128	133	1
113	113	19
17	17	12
82	85	2
18	19	1
14	15	8
43	71	2
64	65	6
57	58	3
16	17	1
85	114	2
26	26	11
83	85	2
53	53	10
132	132	6
27	28	10
99	99	9
52	58	1
130	131	3
93	93	9
79	126	3
72	72	14
50	108	1
47	51	2
7	35	4
36	36	8
5	23	2
38	50	3
119	120	1
45	124	2
6	8	1
70	71	15
44	52	2
118	128	4
31	48	1
12	12	5
94	95	5
95	119	1
4	6	1
84	84	3
125	126	2
57	122	3
78	129	1
15	16	1
33	48	3
63	64	2
18	18	6
19	19	7
111	113	3
9	10	2
53	55	1
11	12	7
21	34	2
53	69	2
7	32	3
43	45	1
3	6	3
102	125	1
8	8	6
126	127	4
58	58	9
80	108	2
10	10	9
20	20	10
8	36	2
78	128	3
83	83	2
0	20	3
64	111	1
86	129	4
103	104	2
10	11	3
91	95	4
69	70	1
13	14	3
13	13	7
68	69	5
55	55	7
79	128	1
122	129	5
44	45	1
55	119	4
92	92	4
78	125	2
52	52	8
65	65	11
37	38	4
129	129	5
108	132	3
116	117	1
82	86	1
91	119	4
96	101	3
1	1	2
60	70	1
121	127	1
56	57	1
132	133	3
110	110	3
16	35	2
112	113	3
9	9	6
66	66	2
127	128	6
86	86	8
129	133	6
59	60	3
45	133	1
79	125	1
87	108	2
48	71	1
83	114	2
81	81	5
91	131	2
130	130	8
82	116	3
75	135	1
64	112	1
44	83	1
86	117	2
12	77	2
111	111	4
20	21	2
54	56	4
45	125	2
128	129	2
80	118	1
34	35	3
54	55	3
79	127	1
7	15	1
86	130	3
107	107	1
65	68	1
3	11	3
58	116	4
135	135	3
99	101	3
52	70	1
12	13	1
83	125	2
0	18	3
16	25	1
87	127	2
56	125	2
13	72	1
98	99	2
71	80	3
133	133	5
16	68	2
126	134	3
42	43	1
45	134	1
25	26	5
117	118	2
92	96	2
76	125	2
88	107	1
14	71	1
7	8	5
31	33	1
15	68	2
52	53	1
36	37	1
75	76	3
44	70	3
65	109	4
26	27	3
115	116	3
84	125	2
16	69	1
3	8	1
1	32	1
82	132	1
81	105	1
92	95	4
66	67	1
30	31	1
111	115	1
87	129	1
46	125	2
3	32	1
19	20	1
3	4	2
131	132	1
130	132	1
21	22	2
43	79	1
71	73	1
29	30	1
79	118	1
73	74	1
70	109	1
114	115	1
100	104	1
79	129	1
43	44	1
82	117	1
82	125	1
78	79	2
131	133	1
113	116	1
59	116	1
5	6	1
13	15	1
10	32	1
54	133	1
35	50	1
88	90	1
23	24	1
49	50	1
120	126	1
76	80	1
