136	136	2
130	137	4
153	158	3
18	18	5
166	166	8
36	36	9
79	80	5
35	35	5
160	162	2
80	85	1
43	43	4
108	108	1
133	135	2
1	2	2
176	176	4
106	106	10
4	5	7
59	59	6
22	22	2
84	84	2
175	175	8
65	66	2
114	149	2
158	158	9
90	90	11
139	139	1
86	86	6
10	17	1
186	187	3
77	102	2
100	100	4
165	165	6
188	189	1
114	114	2
118	118	5
112	112	2
91	92	1
154	160	2
0	10	3
74	90	1
75	75	4
169	170	1
76	76	3
34	35	4
6	6	8
119	149	4
159	161	1
86	87	3
8	8	6
135	136	4
62	89	1
95	96	1
154	157	4
85	98	4
77	78	4
44	44	2
23	23	1
137	137	4
116	116	3
141	142	2
183	183	6
136	138	5
43	44	1
67	68	2
105	169	1
19	19	4
42	42	4
8	21	4
135	135	3
92	94	2
145	176	2
65	67	2
55	55	2
100	110	1
120	121	1
27	32	1
48	142	3
119	119	6
150	150	6
47	55	2
186	186	4
32	32	3
0	7	5
149	149	7
109	109	9
144	144	5
39	67	4
181	181	8
3	3	6
24	24	4
12	12	9
143	143	3
80	80	7
132	132	3
24	25	5
159	159	1
124	124	9
69	70	2
4	4	9
168	172	2
4	34	3
2	5	1
63	63	2
100	111	3
146	148	2
159	160	1
176	177	2
172	173	2
25	48	2
12	30	1
134	135	2
62	63	3
11	12	1
56	56	3
166	168	2
93	94	1
91	99	1
182	183	4
97	98	3
152	152	4
168	168	5
43	47	2
117	117	7
173	173	3
114	148	2
21	21	4
29	29	2
187	187	6
116	149	5
27	29	4
152	163	2
129	139	2
93	93	6
121	122	6
56	58	1
0	0	3
5	5	6
146	147	5
70	71	3
7	8	2
165	170	2
134	138	1
177	181	4
130	131	8
10	22	3
189	189	3
91	94	3
14	30	1
141	141	7
130	144	2
14	15	3
154	159	1
133	139	4
166	167	2
17	18	5
42	68	2
15	16	6
152	153	4
56	59	1
25	36	2
38	38	3
161	162	3
25	53	2
15	15	3
7	7	4
28	28	5
48	55	1
37	39	2
61	61	4
77	77	3
70	70	5
102	102	2
28	44	1
53	57	1
4	7	1
57	82	1
156	163	3
91	132	1
121	121	3
61	62	2
183	184	1
91	91	4
131	131	4
62	88	1
94	96	2
115	115	3
128	131	1
31	31	9
58	63	1
160	160	5
190	190	8
148	148	2
187	190	1
92	92	3
182	182	1
165	172	2
102	107	1
46	46	1
26	26	14
74	91	3
55	57	2
184	184	1
155	155	5
125	125	7
99	100	2
22	23	1
74	123	3
156	156	6
104	104	1
95	95	3
146	146	3
73	74	2
74	75	3
1	1	4
104	120	2
142	175	1
40	67	3
45	46	2
169	169	3
60	61	2
44	45	2
148	150	3
6	13	1
22	24	2
53	53	3
34	34	5
163	163	4
151	166	1
58	58	2
163	164	4
129	129	6
162	162	5
118	163	1
64	64	6
132	133	2
10	10	2
31	42	2
147	148	3
126	141	1
107	107	3
20	20	2
85	87	4
77	81	3
8	24	1
188	188	5
152	157	2
167	167	1
105	105	3
130	136	1
174	174	11
118	150	3
184	185	2
74	74	4
123	124	1
15	18	1
170	170	3
177	178	1
125	127	1
60	92	1
11	17	1
120	173	2
98	98	3
111	151	1
103	103	1
84	85	3
12	18	3
114	115	1
13	13	3
56	62	2
42	82	1
80	81	2
99	105	2
53	55	1
128	128	3
16	24	2
46	79	2
17	17	3
81	81	2
26	84	1
16	16	4
43	68	2
8	26	1
71	71	3
168	169	1
167	172	1
9	9	2
64	74	1
27	28	3
104	146	3
58	78	2
151	151	4
177	177	1
179	179	4
77	106	2
110	110	2
14	14	4
82	99	1
180	182	10
115	143	1
75	76	2
113	113	1
106	133	1
2	2	1
171	171	2
168	176	1
114	146	3
144	145	3
11	18	1
135	137	1
87	93	1
64	92	1
127	128	1
19	20	1
127	127	1
71	88	1
89	89	5
32	45	3
3	4	2
26	52	2
140	140	1
17	25	1
154	154	8
125	141	2
133	133	2
25	25	3
116	139	1
125	126	2
29	31	1
45	45	1
66	67	1
40	40	1
134	136	1
58	79	2
153	154	1
64	65	2
96	96	3
115	184	2
160	161	3
27	33	1
120	120	5
138	138	1
172	172	1
30	31	1
152	182	3
18	19	2
99	99	1
46	78	1
10	24	1
82	82	2
45	135	1
149	151	1
90	126	1
60	65	1
101	102	1
128	129	2
37	37	1
163	182	3
108	110	1
107	108	2
59	85	1
180	180	1
56	57	3
8	40	1
19	87	1
138	139	1
154	186	2
173	174	1
30	30	2
43	48	1
106	108	1
145	146	1
126	128	2
113	147	1
140	167	1
55	68	1
83	84	1
96	97	1
14	43	2
166	176	1
54	54	1
116	130	1
178	178	1
96	98	1
108	109	1
131	137	1
21	22	1
123	123	2
122	122	1
162	181	1
109	122	1
140	169	1
142	142	1
101	101	1
48	48	1
91	131	1
112	114	1
55	56	2
65	65	1
39	48	1
161	161	1
68	68	1
99	109	1
5	40	1
111	111	2
169	174	1
63	94	1
4	6	1
53	79	1
15	26	1
40	42	1
157	158	1
57	66	1
114	119	1
105	106	1
0	1	1
129	140	1
142	169	2
142	174	1
164	164	1
19	86	1
145	145	1
153	153	1
170	171	1
24	35	1
107	169	1
16	29	1
121	148	1
171	172	1
67	79	1
75	91	1
32	67	1
181	182	1
53	78	1
33	33	1
40	66	1
81	82	1
67	67	1
6	7	1
90	91	1
178	179	1
