128	128	21
16	16	16
47	64	6
47	47	6
100	102	2
29	82	1
40	40	11
55	56	2
79	80	12
101	101	16
59	59	6
45	45	3
59	85	3
96	123	2
129	129	20
13	23	3
59	83	10
124	128	6
78	79	7
44	45	10
110	110	11
38	38	13
42	55	1
13	73	1
131	132	15
68	69	3
7	42	4
46	68	1
74	74	10
14	15	6
7	44	4
87	87	9
122	125	5
46	46	3
0	0	8
15	15	38
95	133	4
29	29	11
56	56	7
106	106	14
68	68	4
27	27	14
121	122	2
24	25	7
58	83	12
91	91	18
60	61	12
97	98	11
6	35	3
98	98	14
67	68	9
122	122	8
32	32	8
35	36	9
101	102	4
124	124	20
72	72	12
107	108	4
90	90	14
113	113	7
123	123	17
15	16	17
96	96	13
33	34	10
11	11	20
67	69	4
107	113	1
101	104	2
57	60	4
79	81	5
10	11	14
36	37	4
58	60	4
5	6	2
70	71	8
30	31	5
23	36	4
14	27	4
4	35	6
120	123	1
65	70	2
33	33	16
12	25	8
112	112	9
113	114	6
73	123	1
26	30	2
78	78	8
32	36	6
105	105	13
87	88	11
97	97	10
28	34	3
29	42	4
25	25	22
34	40	3
44	46	1
131	133	11
122	123	3
73	73	8
81	83	6
47	63	2
1	2	3
75	76	6
50	54	4
83	83	7
49	49	6
99	100	7
114	114	14
34	36	2
102	103	4
30	30	14
93	101	3
5	5	16
57	58	4
24	24	5
37	37	12
40	43	1
106	110	10
17	72	5
42	43	5
34	34	13
43	43	16
126	128	5
7	8	4
132	132	20
26	27	6
130	131	6
67	67	9
17	17	15
96	97	2
37	40	3
55	57	4
31	32	4
44	77	1
13	14	2
66	67	8
68	70	3
83	85	2
55	55	3
92	92	19
85	86	2
65	72	4
61	61	4
1	1	5
125	125	7
124	125	6
49	55	6
79	79	8
97	106	4
26	32	1
39	40	4
6	32	5
102	123	5
81	81	14
86	86	9
97	100	10
101	105	3
2	2	8
44	74	3
91	92	2
33	38	3
31	43	2
10	10	18
21	22	7
100	107	3
42	42	14
77	84	3
105	106	7
21	21	6
75	77	3
73	74	7
4	5	10
42	44	3
48	48	11
30	37	1
60	86	2
14	14	4
78	125	3
58	58	11
114	115	7
130	130	6
94	94	11
84	85	6
8	8	9
130	132	6
29	34	1
111	112	5
109	110	4
128	129	6
131	131	14
27	28	12
31	31	13
115	130	3
23	23	12
12	16	4
118	118	7
88	88	16
103	104	2
126	126	6
12	23	2
64	72	4
15	17	4
126	130	6
19	19	19
20	20	7
22	22	14
4	6	1
32	33	9
6	31	2
111	111	5
56	57	5
108	109	6
127	127	14
69	69	5
45	46	2
60	60	15
58	59	7
41	41	10
98	99	1
14	16	3
39	43	5
11	33	3
85	85	14
56	90	2
16	72	3
16	17	9
43	44	1
18	20	5
119	122	1
95	95	6
109	111	1
70	70	4
115	134	3
24	58	2
99	99	12
95	96	1
35	37	7
43	45	3
20	22	6
20	21	7
110	111	6
43	72	2
93	93	9
108	108	8
69	71	1
16	19	1
96	100	2
58	71	2
127	128	7
40	42	2
115	131	2
116	117	2
41	42	9
11	12	9
43	47	1
26	26	10
123	124	11
120	120	8
119	119	7
80	80	6
92	94	5
127	129	5
29	41	2
65	66	1
57	57	6
65	76	2
110	113	2
104	104	3
39	39	7
36	36	8
77	114	1
10	14	2
17	18	2
102	104	3
117	117	3
2	7	2
64	64	5
12	12	6
3	72	2
63	72	4
103	103	10
46	47	3
104	124	1
18	19	3
59	82	1
96	101	4
121	121	12
62	63	3
34	35	6
68	72	3
116	119	3
115	116	3
6	6	5
66	66	6
23	24	5
34	43	2
74	78	5
9	9	4
93	94	4
82	82	9
71	71	5
21	27	2
71	72	4
94	96	2
84	84	5
44	44	11
10	71	5
112	113	1
37	41	1
72	74	3
106	107	14
129	132	5
18	18	8
102	124	3
67	82	3
49	50	8
25	26	3
89	89	5
59	122	5
60	63	3
109	109	9
10	34	1
108	113	4
47	48	1
116	134	4
33	37	1
57	85	4
108	114	1
129	133	4
23	25	3
75	75	10
14	26	4
84	114	3
107	107	8
29	30	3
100	100	10
33	41	1
7	7	7
13	13	6
85	125	2
96	98	3
92	93	5
45	48	4
97	121	1
6	43	2
3	3	4
116	129	2
77	77	3
26	31	3
93	95	2
107	129	2
103	123	1
117	132	1
65	65	3
62	62	2
129	134	8
16	22	1
2	3	6
128	132	3
56	64	2
77	83	1
8	68	2
14	19	3
126	127	6
60	88	3
117	119	2
84	121	3
37	38	1
106	129	3
95	99	2
20	36	2
50	50	1
78	83	1
83	87	3
118	119	4
89	102	2
38	39	2
12	14	3
22	23	3
111	116	3
79	83	3
18	23	1
10	18	3
27	29	5
65	78	3
65	75	3
80	81	3
16	26	1
73	78	2
12	24	1
116	116	3
3	31	3
3	7	3
20	32	2
86	87	2
12	13	3
30	39	2
8	9	4
62	64	1
35	35	3
81	85	1
76	76	6
66	88	1
115	115	7
14	17	2
60	120	3
9	17	3
44	86	1
44	47	1
63	64	3
120	122	1
78	124	5
134	134	4
108	110	3
126	129	3
61	62	5
100	101	4
59	61	3
93	96	3
76	78	2
11	17	3
63	69	2
69	70	5
110	112	2
34	42	2
98	106	1
74	75	4
59	62	2
57	91	2
30	38	3
28	28	3
31	36	2
63	63	4
121	134	1
9	67	1
32	34	5
106	111	2
58	75	1
84	87	1
3	4	2
74	95	1
2	68	2
78	80	3
98	133	3
28	81	4
0	1	1
94	100	1
83	122	1
3	86	1
83	124	1
116	118	2
97	123	3
72	79	1
27	84	1
4	4	3
62	119	2
107	128	3
76	77	3
123	128	1
45	50	1
60	90	1
97	111	1
13	24	3
102	102	2
98	102	2
89	92	5
77	78	1
61	82	2
13	39	1
112	116	1
114	122	1
57	59	2
25	27	1
77	82	1
61	119	2
11	34	1
123	134	3
94	95	1
6	7	1
19	20	3
76	84	3
90	91	1
89	91	1
56	84	4
133	133	2
48	89	1
92	97	2
73	80	1
35	40	1
128	133	1
107	115	1
116	123	1
68	77	3
126	134	1
37	39	1
35	44	1
9	68	1
64	80	1
61	118	2
104	105	1
84	86	1
133	134	1
56	62	1
67	70	1
97	105	1
124	126	1
2	6	2
40	41	1
51	51	1
79	84	1
83	130	1
72	73	1
116	133	1
82	84	1
5	63	1
46	123	1
82	125	1
104	107	1
10	13	1
18	71	1
16	79	1
29	40	1
132	133	1
81	82	2
75	85	3
77	119	1
