58	58	15
52	77	2
133	133	10
32	34	3
182	182	14
131	131	12
19	19	8
12	12	15
97	100	2
132	133	6
33	33	7
115	115	11
61	68	2
71	76	3
118	118	12
139	139	21
177	177	14
149	149	13
120	120	5
166	167	4
89	89	16
179	179	8
48	49	5
94	94	11
25	26	1
22	23	1
25	25	11
37	37	12
48	48	18
32	92	4
14	20	2
5	5	16
2	3	2
6	6	27
123	124	3
140	143	3
75	75	6
113	113	17
41	41	14
35	35	14
93	113	2
64	64	19
172	172	4
72	73	1
1	1	12
49	58	7
60	60	15
137	137	25
131	132	7
178	178	12
123	123	11
129	129	22
66	86	4
104	104	7
126	127	6
152	152	20
8	8	9
36	37	8
112	119	3
125	125	14
13	13	20
42	42	11
130	130	7
15	15	3
86	86	21
80	80	6
188	188	6
62	77	3
160	165	9
44	44	12
138	146	2
96	96	18
10	10	10
187	187	5
101	103	1
181	181	12
18	18	23
105	105	10
67	67	10
114	120	4
186	186	5
161	161	15
105	106	5
6	83	2
73	76	2
43	43	22
106	106	9
138	141	2
154	154	9
159	160	8
45	45	11
130	148	2
37	38	10
153	153	14
10	11	3
125	127	2
176	186	3
159	159	13
54	76	4
14	17	1
22	22	12
93	104	3
47	85	2
180	181	5
42	43	9
163	163	12
127	128	5
15	81	3
119	120	1
38	46	4
33	34	15
179	180	8
112	112	5
164	164	10
88	88	11
143	143	6
108	108	9
79	80	4
90	90	19
93	94	6
151	151	4
91	126	2
77	77	13
8	80	4
167	168	14
189	190	6
2	2	7
103	111	7
29	29	18
63	63	7
141	141	10
95	95	10
155	156	13
183	183	21
95	96	5
24	24	13
175	176	4
157	157	10
7	56	1
128	184	1
160	160	14
122	122	9
94	111	9
124	153	4
136	147	2
162	162	13
145	145	18
48	58	1
111	112	7
95	100	2
112	160	2
187	188	3
86	88	1
78	81	1
171	172	5
24	30	4
61	61	17
159	170	4
100	100	11
54	54	9
40	42	2
56	62	4
174	175	1
145	146	10
8	22	4
23	23	10
61	63	5
139	188	1
18	80	3
38	38	8
134	134	5
13	84	2
185	185	11
89	90	2
47	47	9
63	68	2
103	103	11
70	70	16
68	68	12
148	149	7
78	80	4
32	37	4
180	180	6
83	83	4
23	43	5
66	68	3
95	104	3
176	177	11
56	56	13
173	173	15
177	182	3
26	26	14
21	22	3
65	65	5
0	0	8
172	173	9
62	63	3
130	165	2
20	20	8
78	93	1
96	97	5
47	48	7
81	82	9
101	101	9
133	147	3
10	12	2
17	81	3
170	170	11
111	111	5
79	82	1
58	121	2
135	135	17
166	166	16
99	99	9
115	156	6
150	155	3
60	65	3
145	179	3
38	45	3
136	137	6
3	3	8
44	85	3
55	55	17
30	30	4
117	117	11
33	38	3
66	66	16
64	65	3
75	96	2
40	41	5
153	171	2
31	32	4
90	92	2
4	5	5
4	7	2
2	42	1
78	79	8
176	176	10
157	158	8
53	54	2
16	16	7
74	75	6
171	171	10
148	153	1
15	82	8
137	139	2
88	123	2
71	72	3
93	93	10
155	155	13
110	110	10
97	99	3
140	140	16
130	131	2
121	121	8
144	144	8
31	31	13
74	74	18
78	78	7
9	14	2
7	7	8
28	30	4
82	82	7
87	88	5
33	35	1
148	148	11
1	2	3
107	107	6
184	184	14
66	67	10
122	132	3
67	68	5
23	24	6
110	111	5
2	6	2
169	169	13
88	122	4
72	72	16
173	174	6
28	28	14
182	183	1
69	80	1
6	7	6
86	144	2
24	39	6
127	127	11
4	85	1
170	171	1
189	189	14
149	150	9
76	77	6
35	39	1
43	44	6
36	36	6
181	182	1
175	175	4
124	125	2
159	184	5
86	87	3
60	61	5
168	169	6
115	125	2
152	154	1
34	34	8
146	157	1
27	30	3
147	147	7
136	138	5
84	84	11
114	114	10
142	146	4
165	165	4
52	52	6
87	87	6
55	139	4
167	167	16
100	103	2
53	53	16
73	75	4
157	171	3
97	98	4
109	109	5
39	40	2
177	178	6
109	110	5
156	156	17
11	12	7
85	85	4
17	17	10
91	92	2
22	43	1
129	163	1
76	76	9
111	121	3
12	21	3
134	135	8
32	32	9
23	75	3
153	154	8
184	185	8
11	11	5
119	119	10
116	117	4
34	36	5
141	142	1
41	42	3
125	126	2
174	174	7
21	21	4
151	152	1
15	18	2
19	21	1
86	99	1
122	123	5
57	57	18
65	66	3
71	71	9
46	46	9
102	102	14
177	183	1
124	127	2
57	139	1
162	163	1
124	124	4
94	104	2
170	188	4
91	91	13
54	62	3
14	18	1
107	108	3
77	78	5
150	154	7
109	126	2
188	189	8
98	98	4
148	161	2
155	158	3
116	119	2
161	166	1
138	173	2
83	84	3
138	138	4
143	145	4
124	126	2
158	158	9
9	9	3
4	4	8
113	114	2
161	162	5
99	115	1
178	190	2
156	157	1
134	178	1
110	122	2
84	85	8
160	161	2
40	40	10
34	35	1
10	19	2
114	116	3
132	132	4
128	128	3
128	144	1
45	49	3
77	102	1
10	43	2
29	30	2
106	132	4
149	159	1
154	171	5
92	92	6
101	142	1
6	188	1
96	98	3
150	153	1
163	165	3
8	10	2
22	25	2
38	39	4
98	99	1
88	89	4
12	37	3
102	134	1
79	79	5
32	33	1
177	187	4
62	92	2
146	173	5
140	141	6
80	81	2
155	157	2
55	57	1
131	147	4
136	136	2
61	65	2
152	153	3
54	55	6
140	169	2
37	39	3
49	49	1
114	154	2
115	116	4
70	85	3
154	155	5
28	29	5
109	111	3
18	19	1
116	116	12
155	159	2
72	75	2
32	93	1
57	60	1
80	82	2
129	164	2
132	135	2
23	44	1
22	139	4
24	25	2
46	70	2
24	85	3
32	91	2
133	149	3
90	91	3
156	170	2
16	42	1
62	62	3
173	190	5
24	35	2
146	146	4
126	126	8
103	104	3
172	190	2
143	147	3
150	150	3
107	122	3
45	48	2
91	93	2
44	46	2
159	161	2
12	15	4
85	86	1
48	52	2
163	164	3
3	8	1
157	178	1
142	142	3
24	46	1
22	41	1
94	100	4
151	153	5
84	87	1
141	144	4
165	166	2
75	76	1
14	14	3
168	168	5
150	151	1
147	148	1
5	6	6
33	89	2
73	73	8
25	57	1
23	45	1
119	181	4
103	105	2
102	103	3
27	53	1
27	27	10
21	72	3
87	123	3
173	181	1
100	102	5
157	159	1
87	109	2
179	185	4
152	158	1
53	58	4
144	151	2
59	59	4
177	181	6
14	15	2
7	13	2
168	171	3
76	78	1
21	23	1
10	23	1
64	66	1
39	39	4
161	169	3
100	101	2
71	78	2
173	180	1
130	134	1
116	156	1
55	79	1
4	6	2
101	102	3
97	97	3
6	85	2
99	100	5
82	83	1
42	45	1
174	178	1
46	47	2
89	93	2
140	146	2
121	123	1
128	129	1
145	148	3
172	180	2
169	170	1
61	62	3
96	120	1
23	46	2
56	106	2
26	48	1
190	190	1
160	171	3
22	40	2
8	19	1
43	178	1
42	44	1
90	111	1
139	141	1
148	172	1
145	147	1
112	115	1
94	95	2
140	158	3
68	71	3
58	59	3
146	156	3
128	151	1
130	145	1
1	41	1
63	66	1
141	189	1
147	162	1
117	118	3
30	36	1
187	190	1
57	81	2
158	159	1
168	170	1
104	105	1
86	111	1
12	46	2
72	100	2
129	190	2
129	134	1
117	119	3
147	172	1
103	107	1
12	82	2
131	185	1
13	15	1
151	171	1
33	93	1
81	81	3
68	92	1
17	18	2
55	56	2
130	164	1
106	107	2
79	84	1
16	17	1
75	97	3
36	48	1
27	28	2
127	132	1
178	179	1
153	155	1
27	54	2
7	8	1
87	89	2
109	127	1
41	95	2
21	81	2
22	72	2
108	121	1
79	81	2
109	120	1
0	1	2
95	98	2
90	93	1
12	14	1
90	100	1
26	33	1
8	83	1
62	68	1
124	136	1
18	79	1
60	63	1
43	139	1
54	57	1
30	31	2
78	90	1
19	20	1
139	140	1
26	115	1
26	27	1
46	86	1
29	72	1
22	73	1
183	184	1
60	62	1
32	36	1
149	162	1
72	74	1
156	169	1
20	65	1
141	153	1
25	48	1
13	20	1
