6	24	4
78	78	5
61	63	1
93	93	3
121	121	2
85	113	1
43	43	3
36	37	1
39	39	4
10	11	1
133	133	4
25	26	1
55	56	2
108	108	4
20	21	4
31	79	1
25	41	3
75	75	3
108	109	1
54	54	7
83	83	4
18	18	7
154	154	2
128	128	2
19	68	4
29	29	2
16	16	1
132	132	2
129	129	2
37	39	2
19	19	3
17	19	2
20	22	1
107	107	7
79	81	3
103	138	1
20	23	6
81	81	3
34	34	1
74	75	1
24	117	1
4	5	3
45	45	3
57	127	2
42	118	1
41	47	3
150	150	6
74	82	2
109	109	3
150	151	4
19	20	2
100	144	1
63	64	6
92	92	3
79	79	4
18	19	3
104	104	3
15	15	3
62	63	1
25	38	1
76	77	1
32	32	4
8	8	1
79	80	2
87	89	2
8	65	4
136	136	3
20	29	1
87	87	5
69	69	1
21	21	3
138	138	3
116	116	2
97	108	2
135	135	2
28	58	3
2	23	1
45	46	3
12	37	1
75	76	3
34	35	2
72	72	1
32	33	3
38	38	2
105	105	2
20	20	4
118	122	5
2	20	2
87	110	1
83	110	2
6	6	4
26	61	1
55	57	4
31	31	2
139	139	3
23	23	5
21	76	2
96	142	1
56	56	2
77	77	3
24	24	2
99	133	2
11	11	1
32	36	3
39	40	4
9	9	4
24	25	1
144	146	1
5	5	4
78	80	1
127	142	1
119	120	2
63	63	1
80	81	1
30	106	4
26	152	1
24	41	2
102	103	1
76	76	1
29	47	2
96	96	1
39	83	1
36	36	1
29	51	1
143	143	1
67	70	1
111	112	2
151	154	1
138	145	5
100	104	1
103	103	3
134	136	1
102	153	3
149	149	3
56	57	4
71	71	1
44	44	4
33	35	1
50	50	4
83	113	1
17	24	1
115	115	1
48	51	1
40	40	5
148	150	2
65	69	1
3	3	1
84	112	1
118	118	3
8	31	3
114	114	2
47	49	1
65	76	1
85	85	3
119	128	2
14	15	1
86	86	1
91	91	2
112	112	2
40	41	1
76	81	1
101	147	1
4	77	2
132	133	1
94	119	2
22	81	1
104	143	1
75	77	1
80	80	3
56	96	1
142	146	1
97	131	1
14	14	1
122	122	4
52	55	1
82	82	1
87	88	1
93	96	1
54	136	2
87	109	1
134	134	1
38	78	3
138	144	1
98	98	2
130	130	1
102	102	1
95	95	2
4	23	3
43	114	2
83	114	1
10	10	2
4	4	1
86	110	2
19	67	1
105	108	1
119	142	1
62	62	1
130	136	1
13	17	1
14	110	1
83	115	3
71	72	1
146	150	1
24	62	1
145	146	1
53	53	2
77	78	1
110	110	1
48	48	1
13	13	1
130	135	1
35	35	1
137	144	1
25	25	2
64	65	1
46	46	1
53	54	1
28	28	1
49	57	1
3	20	1
9	50	1
27	27	1
147	148	1
6	10	1
144	144	1
111	126	1
129	132	1
65	73	1
9	153	1
46	118	1
124	124	1
71	123	1
