96	97	2
65	65	2
72	72	7
92	93	3
82	109	2
103	103	4
102	105	3
93	93	8
82	82	12
36	36	9
99	99	10
68	69	4
67	67	1
34	36	3
53	53	13
39	39	9
71	71	7
74	75	5
22	22	9
58	58	9
86	86	5
83	83	6
50	50	4
110	110	6
85	85	3
83	84	3
94	103	1
103	105	1
110	112	4
79	79	12
34	34	15
62	62	10
24	24	4
42	42	5
20	20	4
51	52	5
107	107	2
38	66	1
78	79	2
92	92	5
86	87	4
29	31	2
69	69	2
40	45	1
59	59	9
97	97	10
46	98	2
31	32	5
21	21	10
72	73	4
38	38	5
32	33	2
67	73	1
23	24	5
98	98	13
43	43	7
23	23	3
25	26	4
48	49	3
75	75	10
81	82	3
40	53	1
70	70	9
89	89	1
30	30	12
38	39	1
105	106	1
112	113	1
100	101	3
93	95	2
104	104	13
40	40	15
45	45	2
109	110	5
47	47	17
78	78	17
112	112	15
113	114	3
102	102	4
100	111	1
27	27	5
52	52	1
95	95	9
94	95	3
68	68	3
105	105	5
45	98	2
108	108	2
39	41	4
48	48	3
97	98	5
73	77	1
102	104	2
40	41	3
90	90	3
34	53	2
45	77	2
43	60	1
99	100	4
28	29	11
77	77	4
91	91	2
26	26	7
73	73	3
65	67	7
93	94	4
61	61	9
74	74	9
65	66	2
19	105	1
41	41	8
47	52	6
27	28	1
102	107	2
82	85	3
87	87	4
101	101	4
57	57	5
41	63	2
101	102	2
85	86	3
44	44	2
28	28	6
95	103	1
20	21	3
54	78	4
64	64	2
51	51	1
72	75	1
19	23	3
71	72	2
72	81	3
41	84	3
39	40	1
27	33	1
88	88	1
49	49	6
96	96	6
37	37	9
46	46	5
106	106	4
78	84	1
109	109	9
66	70	2
35	35	7
47	51	1
50	111	3
29	29	6
38	84	1
66	66	3
50	51	2
84	84	7
87	89	2
26	43	1
31	31	9
100	100	5
33	35	1
75	78	2
42	83	1
93	100	1
77	78	1
42	97	3
72	74	1
47	48	1
76	76	2
60	60	5
32	32	3
92	111	1
33	33	7
66	67	2
81	81	3
92	108	3
95	100	1
80	81	7
102	103	1
67	69	1
46	96	4
41	50	2
80	80	4
38	42	1
26	27	3
61	81	1
80	114	1
23	26	2
67	94	1
44	49	1
113	113	1
33	39	1
32	42	2
78	88	1
19	21	1
41	42	1
111	112	1
70	73	2
54	55	1
55	55	1
34	35	3
60	113	1
30	33	2
43	53	2
50	96	1
35	48	1
25	25	4
56	87	2
111	111	1
24	45	1
76	77	2
37	39	2
29	30	2
19	91	2
56	56	3
91	108	2
92	107	3
89	90	1
37	38	2
42	55	1
49	99	2
73	74	1
88	90	1
39	98	1
56	57	2
32	38	1
96	99	1
55	57	1
42	72	1
43	44	2
26	29	1
92	110	1
70	71	1
33	34	1
19	89	1
53	58	2
107	108	1
79	81	1
75	76	1
19	19	2
83	108	1
93	106	1
83	107	1
21	46	1
44	90	1
83	110	1
