16	16	8
120	120	6
156	156	4
170	170	5
145	149	1
100	100	1
67	67	3
28	28	2
152	152	5
162	162	8
119	119	3
142	142	4
109	110	6
74	74	4
105	105	2
1	1	7
15	109	1
117	118	3
78	120	2
46	46	13
92	100	3
14	14	7
77	77	4
41	41	6
148	148	6
87	87	3
88	90	1
9	9	2
89	89	15
55	55	1
23	23	7
91	101	1
133	133	3
160	160	8
20	20	3
34	34	8
116	116	2
80	80	2
11	21	2
43	52	2
112	116	2
41	53	5
10	10	6
76	113	13
169	169	4
94	94	8
159	160	4
36	36	12
82	124	1
70	70	3
139	140	2
155	155	9
146	146	4
76	76	8
45	45	2
18	18	1
153	153	2
132	132	10
52	53	2
62	62	4
38	38	8
91	98	3
138	138	5
37	37	4
98	153	2
157	157	4
91	91	2
35	35	4
114	114	1
24	24	8
1	5	1
86	91	2
52	52	7
64	64	2
99	167	5
33	33	4
141	142	3
25	25	5
144	144	5
11	80	4
112	112	4
49	49	3
126	126	2
97	153	2
113	113	2
103	103	1
37	38	2
15	15	5
80	81	3
106	107	4
65	131	4
54	54	2
129	129	4
107	107	7
117	119	1
22	22	3
133	134	4
49	50	5
64	131	1
42	66	2
106	106	4
84	85	2
43	43	6
134	135	2
8	28	3
135	135	6
1	49	1
0	1	1
111	111	6
1	8	1
108	108	6
105	149	1
124	124	6
78	79	2
88	121	1
161	162	3
75	75	5
159	162	2
150	150	6
97	97	4
91	93	2
57	62	4
118	118	5
142	143	1
15	108	5
14	36	1
11	20	2
99	153	1
97	99	4
7	7	3
163	163	3
165	165	2
13	14	8
56	71	2
21	23	3
11	17	5
80	123	1
57	57	2
66	66	1
130	132	1
34	35	5
166	166	5
13	13	1
22	72	3
81	81	2
78	113	3
50	50	2
129	135	1
49	51	1
27	27	3
164	164	7
91	99	5
145	145	5
42	42	8
168	168	4
47	49	1
6	6	2
90	90	2
38	50	1
92	92	3
18	76	1
96	99	2
68	68	2
115	115	6
55	56	1
53	54	3
56	72	1
73	74	3
83	83	5
149	149	2
91	97	1
53	53	4
4	4	7
65	65	2
101	151	2
72	72	4
82	82	4
88	89	8
137	137	8
159	166	1
25	27	1
69	70	4
47	50	1
63	63	5
148	149	1
144	145	3
78	78	2
122	122	1
136	136	4
101	103	1
17	17	2
139	139	2
84	102	2
96	97	3
21	21	3
143	144	3
140	140	3
119	121	1
48	48	5
98	98	4
88	88	3
154	154	5
117	117	3
41	54	3
112	113	2
11	36	1
80	115	1
131	131	3
40	40	7
105	106	3
79	88	2
42	43	3
136	138	3
35	110	3
6	7	4
79	114	1
40	51	3
83	123	4
14	15	1
36	76	1
2	47	3
79	79	2
167	167	4
11	12	2
42	135	3
158	158	2
3	7	1
8	8	3
114	115	3
143	143	1
62	128	1
104	143	1
56	56	1
123	124	1
101	101	4
84	84	2
75	76	1
129	137	3
96	96	3
165	166	3
125	126	4
107	124	1
84	103	2
77	120	1
11	11	4
144	146	1
57	128	1
51	51	4
108	109	2
22	24	5
13	126	1
13	24	1
121	121	1
109	109	1
151	151	1
128	128	2
94	95	1
76	123	2
122	123	2
3	3	3
25	52	2
1	2	1
71	71	1
43	136	1
110	110	1
84	124	1
95	95	3
125	125	1
16	17	1
118	121	2
58	58	1
81	82	1
76	77	1
18	75	1
50	51	2
88	118	1
159	159	1
103	104	1
0	0	2
14	16	1
16	36	1
74	116	1
159	161	1
5	5	1
163	169	1
7	8	1
152	153	2
18	116	1
24	73	1
126	127	1
77	78	2
150	151	1
56	134	1
110	111	1
134	139	1
102	143	1
153	165	1
12	12	1
46	47	2
87	88	1
102	102	2
85	85	1
