12	12	3
112	112	2
37	37	1
1	1	7
1	24	4
19	19	1
88	88	6
128	128	10
89	89	6
73	108	2
133	133	4
71	71	5
71	113	2
111	113	4
123	126	1
135	135	9
115	116	5
92	93	5
10	15	3
0	0	5
74	107	8
137	138	1
28	28	5
5	5	2
117	117	5
73	73	5
32	32	4
17	33	1
7	9	2
86	123	4
25	26	5
134	136	1
105	106	6
132	132	6
104	118	1
98	98	2
77	77	4
82	87	1
111	119	4
7	10	1
135	136	4
97	98	3
9	72	2
99	100	3
0	79	3
4	10	6
109	112	6
114	115	4
21	28	6
138	138	3
35	37	1
119	119	2
2	10	1
125	125	6
76	87	2
88	100	1
35	35	3
110	110	8
136	136	1
28	117	5
1	106	1
32	35	1
82	83	1
137	137	2
36	37	1
3	6	3
13	14	2
2	2	3
17	18	1
116	126	8
118	118	3
3	3	2
131	131	2
113	113	3
34	34	5
129	129	1
111	111	6
81	87	3
98	100	2
30	32	1
80	80	2
81	83	1
80	96	2
95	95	1
109	109	1
38	38	4
95	97	1
82	82	4
18	18	2
16	16	2
81	90	3
6	71	1
77	107	2
76	76	4
80	100	2
105	118	2
8	11	2
105	105	6
11	11	7
2	5	1
3	8	3
27	30	2
123	123	1
93	93	3
116	116	4
22	24	1
77	106	1
108	108	3
71	80	1
91	105	1
87	88	1
4	4	2
78	102	2
116	129	2
20	35	2
81	85	4
104	105	2
91	91	2
120	120	3
86	86	1
78	120	3
139	139	2
115	126	2
73	109	1
44	111	2
93	94	4
76	84	1
21	21	6
11	33	1
23	23	2
85	85	3
90	125	1
110	123	2
78	80	1
134	134	1
99	99	3
79	124	1
101	104	1
95	98	3
24	24	1
36	36	1
96	96	1
29	29	2
74	75	1
25	25	1
73	74	2
78	78	3
109	110	1
115	115	2
0	77	2
2	3	1
4	7	3
87	87	3
29	76	1
31	31	1
104	119	2
84	86	2
140	140	3
119	121	1
71	81	1
80	81	1
4	37	1
27	27	1
12	30	1
92	92	1
14	21	2
9	74	1
26	36	1
72	72	2
20	20	3
2	8	1
24	25	2
23	27	1
126	126	1
119	120	1
121	121	1
76	80	2
43	43	1
86	110	1
9	9	1
17	17	1
102	103	1
7	35	1
44	122	1
26	26	1
31	32	1
10	10	1
118	122	1
14	14	1
30	30	1
84	84	1
14	35	1
97	97	1
