58	61	5
61	61	7
51	51	4
43	43	17
134	138	2
109	109	10
9	9	10
80	81	4
7	7	1
36	36	10
81	82	5
76	92	2
169	170	8
25	25	2
17	22	2
135	136	7
88	88	7
41	41	10
2	2	7
125	126	3
92	92	12
90	91	2
86	86	9
128	128	3
133	133	4
159	160	2
96	96	5
60	62	3
87	87	8
78	79	6
6	6	6
167	167	5
164	164	1
27	72	3
50	51	9
105	105	2
117	117	2
27	71	1
33	33	21
60	61	2
71	72	2
154	154	8
172	173	7
149	149	12
137	138	8
17	17	7
140	140	12
110	112	6
125	129	6
86	87	2
123	123	8
63	63	3
6	9	3
31	31	6
93	97	3
12	148	4
105	107	2
15	145	9
113	119	2
151	151	5
75	75	11
160	160	7
132	132	12
56	56	4
95	96	5
24	24	7
148	148	9
148	149	2
91	98	1
6	10	3
104	105	4
78	107	2
176	176	6
52	53	7
122	123	2
162	162	4
64	64	3
55	55	4
127	127	15
15	15	4
96	130	3
74	74	13
34	35	2
152	155	2
12	12	4
91	91	5
91	94	2
137	137	4
63	64	2
11	11	2
98	126	2
5	6	6
35	38	8
163	163	3
150	161	1
3	28	1
57	57	2
103	103	2
170	171	1
94	94	3
165	166	8
157	157	1
168	174	1
175	175	4
159	159	7
15	16	12
76	93	1
159	166	5
85	85	7
154	156	1
92	95	2
55	71	6
95	97	3
145	147	1
72	72	5
116	116	3
85	87	2
121	122	4
84	85	4
38	38	6
90	167	3
141	141	6
79	79	3
130	130	6
98	104	4
112	113	3
154	155	7
20	20	1
71	71	7
45	45	3
21	21	2
101	101	3
129	129	2
79	80	2
124	124	8
117	118	2
44	44	3
138	138	3
95	95	2
165	165	4
3	3	3
22	22	8
96	97	1
107	125	5
118	118	7
110	110	4
87	88	1
12	13	10
1	52	8
9	13	3
61	62	5
53	134	1
13	13	4
17	20	6
107	108	3
10	10	3
119	127	1
130	131	5
103	125	1
4	4	1
1	1	2
153	154	3
77	90	3
139	139	5
89	89	9
135	135	4
79	81	4
27	27	3
147	148	6
54	54	9
125	125	3
150	157	4
173	173	3
23	23	2
118	120	2
35	37	2
132	133	3
6	175	2
144	144	6
56	66	2
115	115	1
97	97	3
112	112	3
134	134	2
133	168	1
88	108	2
26	26	2
89	90	1
53	53	6
31	72	1
44	173	2
93	93	1
31	52	1
179	179	2
39	41	3
30	30	6
90	90	5
80	80	4
93	96	3
10	13	6
104	104	4
99	99	1
124	125	2
65	66	2
40	41	2
148	159	2
174	174	4
133	174	2
115	116	2
14	14	4
29	29	2
35	35	3
164	165	6
147	159	2
152	153	3
65	65	3
109	110	1
115	118	9
146	146	4
14	16	3
150	151	1
163	164	1
113	118	1
3	4	1
16	16	3
141	145	1
156	160	1
152	152	1
39	52	1
127	129	2
52	52	3
4	19	1
18	18	4
28	28	3
0	171	3
0	0	3
77	77	5
17	31	2
126	129	2
60	60	5
108	108	5
111	111	4
19	19	2
106	106	1
168	168	1
129	137	1
102	102	2
54	55	1
39	39	5
57	67	3
22	23	2
11	12	1
169	169	4
78	78	1
102	126	2
39	53	5
32	32	7
174	175	2
171	171	2
49	49	1
123	132	2
96	98	1
177	177	4
150	159	1
32	172	2
73	74	1
10	145	1
2	10	1
29	30	2
44	174	3
8	13	3
61	63	3
26	27	1
155	155	3
172	175	1
151	156	3
54	139	1
2	21	1
9	11	2
66	66	2
180	180	4
16	17	4
136	136	1
120	121	2
8	160	1
41	43	1
120	120	1
38	157	1
40	40	2
107	107	1
5	5	2
7	12	2
27	136	4
81	83	1
94	151	2
119	119	4
158	158	3
28	30	2
91	92	1
59	59	1
81	81	1
60	78	1
42	42	3
88	89	1
75	76	1
129	130	1
55	64	1
81	84	3
17	143	1
39	40	1
32	72	1
144	145	2
17	176	2
150	150	2
32	33	1
31	32	1
62	64	1
90	94	1
158	160	1
165	167	1
119	120	1
120	127	1
84	84	2
70	71	1
135	166	1
171	172	1
67	93	3
140	169	1
52	134	1
130	134	1
68	68	1
46	46	2
110	111	1
123	127	1
158	162	1
49	50	1
55	58	2
106	172	2
7	10	1
155	163	2
147	161	1
89	96	1
172	172	1
43	174	1
97	102	1
99	101	1
37	37	1
82	82	1
76	78	1
141	176	1
133	177	1
8	8	1
