93	93	4
57	67	3
119	119	3
103	103	21
54	54	3
115	116	1
84	85	2
13	14	1
47	47	3
48	48	13
90	91	5
75	79	3
19	19	1
5	6	2
80	80	6
46	47	2
95	95	4
64	64	4
62	62	4
14	15	1
24	24	8
0	0	4
16	17	2
79	79	10
49	107	2
26	27	1
71	103	3
15	15	3
4	4	3
70	70	3
99	103	3
14	14	4
98	98	7
2	2	8
107	107	3
73	73	3
108	109	5
75	75	4
121	121	8
82	82	14
50	50	7
111	111	1
61	61	1
80	92	4
31	31	2
28	28	5
117	132	1
114	114	6
113	113	10
57	77	1
40	58	3
62	76	1
46	46	3
14	33	3
71	72	2
124	124	2
51	51	6
92	92	2
85	85	3
91	91	3
122	122	3
56	57	1
0	1	1
132	132	5
58	58	7
27	27	1
4	5	4
10	11	1
3	4	5
112	112	6
76	76	2
65	66	2
13	13	6
100	100	4
88	88	5
69	76	1
63	64	2
83	84	4
68	68	6
86	86	4
21	21	7
52	52	1
128	131	2
127	128	2
131	131	7
113	115	2
62	64	4
55	56	2
88	89	3
5	5	2
110	110	9
39	39	1
63	63	4
91	92	2
129	129	3
85	86	4
94	94	5
25	26	1
99	100	3
49	49	4
29	30	2
109	109	7
30	30	1
68	70	3
102	102	6
117	117	5
28	31	1
95	104	1
42	42	4
77	77	2
8	25	3
82	85	4
59	59	2
73	101	2
44	44	1
53	53	6
42	64	1
46	58	4
50	106	1
78	79	2
96	101	2
106	106	5
72	73	2
39	58	6
121	122	1
81	81	4
99	99	1
33	33	7
44	45	2
84	84	5
11	11	2
56	56	4
12	13	1
97	100	1
29	29	3
3	5	1
49	56	1
53	105	3
131	132	2
66	76	2
1	1	5
20	20	2
116	117	2
50	51	2
101	102	1
57	57	3
69	69	6
61	77	3
71	71	1
4	31	2
97	97	2
43	44	1
116	116	2
66	66	3
17	17	2
52	53	1
42	43	1
16	16	1
125	125	4
26	26	3
41	41	2
126	129	1
25	25	2
7	7	4
47	48	2
40	40	4
85	87	2
124	125	1
118	118	1
126	128	1
87	88	1
83	83	2
10	55	1
114	116	1
8	10	1
89	89	2
67	67	2
91	130	1
14	34	1
55	55	1
32	32	1
65	65	2
45	46	2
38	38	3
1	2	4
9	9	1
53	106	1
90	100	1
106	107	1
8	24	1
96	100	1
127	127	1
105	106	1
101	104	1
115	118	1
43	43	1
74	74	1
113	117	1
12	26	1
