91	133	3
113	113	19
57	57	26
89	89	21
45	45	8
96	97	3
38	38	14
68	83	2
90	94	1
86	86	17
48	48	14
7	8	6
130	131	4
159	159	8
24	25	8
122	123	3
37	45	9
105	106	8
68	84	2
114	115	3
46	46	13
138	138	15
78	100	5
37	37	3
129	129	21
150	150	7
79	80	7
83	84	1
79	79	12
121	122	11
2	2	18
180	180	4
146	172	3
127	127	11
166	166	12
118	118	13
182	185	4
152	153	14
73	73	8
163	163	15
142	148	2
100	100	12
68	68	8
153	159	7
73	82	2
164	164	9
143	143	24
6	6	3
92	92	5
107	109	2
30	30	12
81	81	14
25	26	2
15	24	11
142	142	11
24	24	9
63	70	2
120	124	5
181	181	16
10	10	11
130	130	9
29	29	20
58	59	10
9	9	7
141	184	2
67	124	1
152	159	3
72	72	12
20	42	2
87	88	8
144	144	8
151	151	32
153	153	13
64	64	11
88	93	5
36	36	5
1	1	14
62	63	6
56	56	11
154	158	1
35	62	4
16	25	6
141	141	17
100	130	1
101	101	15
171	171	13
125	126	3
30	46	8
108	182	2
132	133	6
129	130	8
109	113	4
154	155	3
144	145	5
27	32	5
171	173	6
41	41	19
159	164	2
4	4	12
107	108	4
152	152	23
96	123	4
16	20	5
97	98	13
181	187	3
105	105	9
36	71	2
178	189	3
124	126	6
114	114	13
163	165	2
102	138	1
144	171	2
64	70	1
134	135	7
43	80	3
42	43	1
58	75	2
18	22	2
161	161	13
33	35	3
98	98	16
17	23	4
101	138	5
15	15	14
88	89	1
32	33	6
17	20	4
12	12	7
32	32	21
125	125	10
40	40	17
92	115	3
139	139	16
67	123	1
87	87	9
61	62	7
105	137	1
3	3	5
47	47	13
31	31	9
93	94	2
171	172	8
81	89	7
107	107	12
102	102	9
95	95	9
105	126	1
82	83	3
102	103	6
108	108	20
142	145	3
64	68	5
54	54	8
33	34	7
44	47	4
162	162	13
94	95	4
42	42	20
105	108	1
157	157	19
35	35	12
163	164	6
6	26	5
19	20	4
18	21	2
36	37	6
80	80	21
31	42	3
52	53	2
143	169	11
8	24	1
72	75	3
88	88	9
17	19	1
15	63	1
136	137	17
21	21	10
84	99	3
12	27	9
85	164	1
13	29	2
104	104	11
91	92	3
10	13	3
126	126	4
188	188	14
182	182	12
16	23	1
110	110	10
58	58	10
125	127	6
80	81	1
179	179	6
54	114	1
107	122	1
20	21	9
109	111	8
99	99	14
159	163	4
59	60	5
83	83	20
19	21	5
62	62	22
96	125	2
67	67	9
23	24	2
11	12	8
82	82	16
71	71	10
158	158	10
45	79	7
70	70	12
134	136	3
27	28	11
170	173	15
0	1	5
16	16	13
184	185	7
124	124	13
48	75	4
160	160	11
156	156	22
52	52	4
83	122	2
133	133	2
27	31	1
59	65	3
78	79	6
75	75	8
70	100	1
175	175	7
68	71	2
27	27	7
103	104	3
121	121	8
86	98	2
61	61	4
108	113	1
63	63	10
145	146	1
178	178	7
119	119	16
18	18	12
86	164	1
149	175	3
106	106	12
17	25	2
135	135	9
73	75	4
115	115	2
18	19	7
77	77	7
160	161	1
171	174	1
2	5	2
99	100	7
77	126	2
26	26	14
100	138	4
116	116	11
56	73	4
170	170	19
184	184	12
66	67	4
60	64	6
5	5	26
117	118	4
59	107	1
90	127	3
103	103	9
103	110	3
60	74	1
23	23	11
48	52	1
4	12	2
176	176	11
21	22	6
173	174	9
120	120	2
0	0	6
108	109	5
8	38	2
180	181	2
114	116	3
170	174	3
34	34	12
68	124	4
13	13	13
173	173	11
103	111	4
94	94	14
10	55	7
141	143	2
19	134	4
167	168	5
121	123	4
75	104	1
8	48	3
66	98	1
115	117	6
151	152	2
11	14	2
101	102	8
146	171	7
144	168	3
84	84	3
110	125	2
114	119	1
16	42	3
171	178	3
43	43	8
98	117	4
63	66	5
14	14	6
148	148	4
65	65	4
9	24	1
186	186	16
86	87	4
147	149	1
141	142	7
24	28	2
145	150	2
146	147	1
44	44	11
115	118	5
169	171	2
97	97	13
14	23	12
131	176	3
178	183	2
130	133	4
53	53	20
174	177	3
15	16	1
20	20	10
179	181	1
34	35	2
9	13	2
47	48	3
90	91	4
157	158	1
161	162	6
62	73	4
74	74	7
130	132	1
190	190	9
55	105	4
6	106	2
30	31	3
120	155	2
125	128	2
5	27	3
133	136	1
143	166	4
39	39	7
44	46	2
80	84	2
166	168	5
165	165	15
171	179	3
76	76	14
138	139	7
90	93	4
8	47	4
4	30	1
38	47	1
134	134	11
62	119	1
183	184	2
40	41	4
106	110	5
164	166	4
99	128	1
185	187	3
2	6	5
178	179	6
174	174	5
3	5	2
81	120	4
63	65	4
87	161	1
167	174	2
64	65	1
140	142	2
37	48	1
123	123	5
179	187	2
121	155	4
147	147	8
28	29	10
151	170	2
61	72	1
126	128	5
186	187	6
59	59	4
175	180	1
126	127	4
33	33	8
110	113	2
129	137	1
17	17	9
145	145	8
10	12	2
95	96	6
19	19	10
25	78	4
77	102	1
65	67	5
23	25	2
132	132	5
36	41	8
85	85	6
147	150	14
38	40	2
167	173	2
83	126	1
1	57	3
136	147	1
89	95	1
189	189	2
44	45	3
7	7	9
187	189	2
172	173	6
55	55	3
117	124	2
113	114	3
170	171	3
131	132	6
96	100	2
8	39	2
80	127	4
130	147	5
31	34	1
83	119	3
85	128	1
14	73	3
164	165	3
53	54	5
116	123	2
63	75	2
189	190	3
98	112	1
56	57	3
3	13	3
127	136	3
122	122	6
109	109	7
32	37	2
123	125	4
13	15	1
31	35	1
90	90	7
91	93	4
48	81	1
39	41	5
35	38	2
183	183	9
165	166	4
66	68	2
76	103	1
56	74	1
160	165	2
102	150	2
15	120	1
181	182	4
78	78	7
67	68	1
91	94	8
168	168	9
60	61	3
9	31	1
76	157	3
118	119	1
174	176	3
66	66	11
58	66	3
4	7	3
10	24	1
144	150	1
170	177	1
39	48	1
5	26	1
128	153	3
81	90	2
174	186	3
61	63	4
109	110	1
60	60	6
71	72	2
77	97	1
55	56	4
3	4	4
25	25	10
66	146	3
30	36	1
146	151	2
169	172	5
35	71	2
178	190	2
92	93	5
65	72	6
59	61	7
25	28	2
136	139	1
57	74	1
37	38	3
188	189	6
149	150	4
114	117	5
33	37	2
160	164	5
128	128	9
155	155	8
185	186	8
71	75	3
74	82	4
143	150	1
134	147	5
8	10	1
12	31	2
104	108	3
103	113	3
110	112	5
9	59	3
76	81	1
74	76	2
56	71	12
70	78	3
108	111	2
81	127	1
104	188	3
136	136	8
130	138	1
139	140	4
84	128	1
36	59	1
76	97	2
84	87	1
149	149	13
113	119	1
169	169	11
31	37	5
84	85	3
9	28	2
140	141	3
87	127	2
185	185	6
152	166	1
12	30	2
90	96	2
6	7	1
172	172	8
62	75	1
116	117	6
111	111	8
39	40	1
112	113	4
9	83	1
12	13	7
22	22	4
103	109	2
121	156	1
101	104	4
117	119	2
127	128	5
49	49	2
81	164	2
131	148	3
145	147	2
156	157	4
175	181	1
143	167	2
131	143	1
175	177	2
59	76	1
104	105	1
74	75	4
9	38	1
140	140	5
58	76	5
40	47	2
91	91	7
154	157	2
19	22	3
123	126	1
27	33	1
179	180	4
132	141	6
177	177	6
174	175	4
146	146	8
131	131	5
44	80	1
45	46	6
21	44	4
107	121	3
35	40	1
77	96	1
177	179	1
12	46	1
98	111	3
59	122	3
117	117	3
112	112	4
100	127	1
46	77	2
67	127	4
110	111	3
36	61	2
20	23	2
168	170	1
119	120	1
59	118	1
140	144	2
90	137	4
148	149	7
169	170	5
86	146	1
129	136	1
102	149	1
175	176	1
168	169	2
35	36	2
74	83	3
1	2	3
5	7	1
62	138	1
58	74	2
43	46	4
29	30	3
96	129	2
123	127	1
108	187	3
58	83	2
63	71	1
149	184	1
87	162	2
26	34	1
11	11	6
82	100	1
68	74	3
167	167	3
152	154	1
154	154	4
5	24	1
76	154	1
37	43	3
80	82	4
38	64	1
77	90	2
97	99	3
78	80	5
96	96	3
84	88	5
98	139	1
11	45	1
141	182	1
41	46	2
9	10	1
54	55	1
24	59	1
174	178	3
72	73	2
89	90	2
133	134	2
43	45	1
17	24	4
34	37	2
89	126	1
123	124	2
10	48	2
155	157	1
86	139	1
165	167	4
69	69	2
89	91	1
187	190	4
21	138	1
143	146	3
77	157	1
71	84	1
184	190	2
110	123	2
25	42	1
120	156	5
2	3	2
13	14	2
45	78	1
21	135	2
77	125	4
18	20	2
131	139	1
187	187	4
163	167	1
101	106	1
137	138	6
16	17	1
96	98	1
128	129	2
182	183	1
137	137	1
152	158	1
81	162	2
99	126	1
176	180	1
71	74	2
173	186	1
146	148	2
48	74	1
139	144	2
145	171	1
141	151	1
20	22	3
131	133	3
63	68	2
45	80	3
59	80	1
65	69	1
141	148	1
36	42	1
122	124	2
179	182	1
166	169	1
89	92	1
31	36	1
57	67	1
102	136	4
61	64	2
46	78	1
10	14	2
10	80	1
61	73	1
58	70	2
2	4	1
153	157	1
55	106	2
12	37	1
14	71	1
37	42	1
124	156	1
142	146	1
28	28	2
132	142	1
8	8	2
77	120	4
57	58	2
8	25	1
98	103	1
10	25	1
42	44	1
171	189	2
70	72	2
96	118	1
66	144	1
58	60	2
64	72	2
59	64	1
61	65	1
90	140	1
41	42	1
29	32	1
140	182	1
107	110	1
100	102	2
99	103	1
44	48	1
14	15	3
24	30	2
175	178	1
185	189	1
111	113	1
57	68	1
61	68	2
142	180	1
46	48	1
142	144	2
96	111	1
73	74	2
78	99	1
128	139	1
80	146	2
142	143	2
175	189	1
9	11	1
63	64	2
89	96	1
104	189	1
52	113	1
39	47	1
120	123	1
84	117	1
105	138	1
49	71	1
57	121	1
139	156	1
90	125	1
10	11	2
17	18	1
105	150	2
27	29	1
8	12	1
53	107	1
184	187	1
143	168	1
107	188	1
131	138	1
55	72	1
70	75	1
83	102	2
9	48	1
4	31	1
184	186	1
70	84	1
77	78	2
67	129	1
67	126	1
4	28	1
59	67	1
105	109	1
48	49	1
23	78	1
66	130	1
38	39	1
12	72	1
182	188	1
115	128	1
103	105	1
140	184	1
166	174	2
