121	121	6
83	105	3
69	74	2
111	111	3
42	114	1
46	46	7
11	26	3
96	101	1
3	3	4
43	44	2
62	62	5
46	47	4
34	34	5
57	132	3
125	126	3
128	128	5
97	100	2
26	26	2
73	74	5
114	115	3
33	33	3
11	11	5
1	2	2
86	89	2
71	111	5
13	99	2
117	117	9
60	115	3
12	12	5
106	131	1
7	7	7
134	134	6
21	21	2
5	5	3
107	108	4
41	116	1
98	99	6
48	48	3
70	72	2
108	109	1
14	14	4
125	125	5
27	32	5
128	129	1
104	104	1
60	60	3
18	18	7
63	126	5
61	62	3
49	49	1
24	24	6
20	20	3
42	42	4
70	74	2
25	25	5
83	86	1
43	43	4
33	37	3
8	9	3
39	39	1
133	134	1
10	10	5
61	61	2
4	4	3
118	118	3
116	116	12
114	114	5
6	95	7
88	88	3
59	59	4
96	96	2
108	108	9
126	126	7
40	40	6
57	57	5
65	65	6
75	75	4
45	45	3
3	9	2
94	94	3
112	113	3
119	120	1
82	111	2
11	13	1
6	6	8
84	84	2
102	102	3
78	102	3
79	81	3
38	38	4
20	25	2
76	76	2
100	100	3
58	58	2
106	106	2
124	124	7
28	56	3
8	8	3
130	131	3
99	99	2
83	83	8
47	47	1
90	90	3
66	66	1
28	28	1
14	19	3
87	88	2
9	75	2
4	95	1
97	105	3
38	39	4
78	107	2
95	95	8
77	77	7
61	125	3
30	30	4
0	1	2
81	106	1
113	122	2
71	71	4
110	132	1
3	76	2
44	44	1
27	27	3
88	104	1
113	113	2
12	98	1
104	132	2
73	73	8
83	131	2
82	83	2
101	101	1
16	23	1
9	107	1
79	108	1
0	0	1
57	112	1
120	120	6
1	1	1
93	93	2
105	106	1
5	95	1
12	13	1
60	123	1
32	33	1
26	30	1
89	89	1
78	78	3
95	96	1
29	32	2
112	132	1
97	97	2
112	112	2
109	132	1
14	32	1
43	121	3
103	110	1
96	97	1
133	133	2
115	115	1
31	31	2
63	63	1
131	131	1
69	69	1
15	21	1
85	85	2
86	86	1
50	115	1
89	106	1
68	68	1
84	86	1
23	24	2
39	48	1
29	29	1
103	129	1
95	102	1
55	134	1
89	96	1
130	130	1
82	82	1
103	103	1
117	118	1
74	128	1
132	132	1
21	22	1
