111	111	1
20	24	5
48	106	3
74	90	2
44	46	2
14	14	4
184	184	10
47	47	4
5	5	14
172	172	6
1	1	5
90	91	6
56	56	6
63	63	9
176	176	5
43	43	3
86	86	1
164	165	2
156	156	6
186	186	13
46	46	7
54	54	2
130	130	2
66	66	6
158	159	3
145	146	3
112	112	9
76	77	5
48	48	7
0	2	1
106	106	6
78	78	3
96	96	2
162	162	3
29	30	1
139	139	4
183	184	1
33	38	1
37	37	2
110	110	5
120	120	5
73	73	3
120	124	1
134	134	5
89	89	5
25	25	5
61	62	1
148	150	7
170	170	6
57	57	8
73	74	6
77	77	10
135	135	2
155	155	6
72	73	2
105	105	5
41	41	3
118	118	8
158	161	3
74	74	3
16	16	3
72	72	7
165	165	6
125	125	5
99	151	1
141	141	10
55	55	5
11	46	1
36	38	4
137	137	2
109	109	6
28	28	3
18	18	1
126	127	7
134	135	2
33	34	2
36	36	4
47	102	1
85	113	3
61	61	3
41	42	5
26	26	2
145	145	4
13	13	5
103	103	7
91	91	2
31	36	1
10	10	2
116	116	4
137	138	2
11	11	2
151	151	6
143	143	3
124	124	7
29	29	1
160	160	2
97	97	1
107	108	2
187	187	2
177	177	3
12	13	4
179	179	1
76	144	1
122	122	5
26	27	2
154	154	4
53	53	3
168	168	1
83	83	7
152	160	1
95	164	3
75	76	3
161	162	1
108	108	5
21	21	2
76	76	5
135	136	3
169	170	6
152	153	1
153	154	1
175	175	1
158	158	3
99	99	5
107	107	2
126	126	1
164	164	5
118	119	5
131	141	1
22	24	2
154	155	3
99	100	2
87	87	4
90	90	7
44	44	5
130	183	1
18	20	2
98	98	2
152	152	2
178	179	3
183	183	2
21	22	1
27	28	3
114	164	3
71	71	2
159	160	1
134	140	1
77	78	4
96	151	4
133	133	6
79	79	3
181	182	4
166	166	1
33	37	4
149	150	2
106	110	3
36	37	2
62	63	2
184	185	3
53	54	3
62	62	1
17	17	2
89	114	2
181	181	3
0	0	3
136	136	3
163	163	2
68	167	1
92	92	2
100	100	2
185	185	2
121	187	1
162	163	1
138	138	2
108	109	1
72	166	1
189	189	1
89	90	1
33	33	1
157	157	2
65	65	4
144	144	1
172	174	1
148	148	2
5	109	4
142	142	1
150	150	3
3	3	3
20	20	2
26	41	1
115	115	1
169	169	1
64	64	1
176	177	3
174	175	3
176	181	3
133	134	1
59	60	4
173	173	1
182	182	2
159	159	3
153	153	2
55	57	1
40	40	2
48	49	1
85	85	2
67	67	2
180	180	1
4	4	1
113	114	2
53	170	2
56	57	1
178	178	1
27	27	1
100	102	1
31	31	2
74	119	1
188	189	1
156	157	1
3	127	1
80	80	1
127	127	1
187	188	1
89	113	1
153	162	1
30	35	1
53	55	1
10	11	1
87	88	2
147	167	1
