122	122	9
22	23	7
43	43	13
69	69	4
44	44	9
90	90	14
63	63	6
86	86	17
27	122	3
9	23	3
54	55	7
101	101	33
34	34	18
103	103	32
98	98	24
128	128	11
58	131	1
26	56	1
70	70	16
60	95	1
4	5	8
77	77	10
18	18	15
30	31	3
51	51	2
64	64	23
21	21	13
2	2	8
120	121	4
37	37	14
72	72	10
91	91	10
68	69	2
3	4	7
79	79	12
67	69	9
72	73	5
15	15	13
19	19	16
10	10	20
79	80	2
62	63	3
1	1	20
113	113	8
31	31	9
115	115	13
21	22	6
117	117	15
91	92	6
65	65	6
23	25	3
46	46	2
110	110	16
49	50	6
109	109	9
36	36	18
75	75	12
58	58	4
5	5	31
126	126	14
107	107	11
4	4	16
72	78	1
50	50	17
13	13	11
93	93	5
121	124	3
130	130	10
23	23	11
100	100	11
31	32	13
57	58	1
99	100	1
21	85	4
92	92	6
25	56	3
106	106	8
106	107	7
95	95	8
23	26	1
72	77	8
111	111	11
49	54	4
6	6	12
105	106	10
109	111	6
76	76	8
9	9	3
56	57	3
134	134	7
20	20	10
67	67	7
62	64	2
78	78	12
127	128	5
9	10	9
53	53	10
4	8	2
118	118	12
124	124	15
21	84	3
17	17	10
80	81	4
116	116	8
61	98	1
68	83	3
110	111	4
66	67	10
68	68	5
59	59	9
132	132	12
62	62	18
105	105	12
24	26	1
89	90	3
16	16	19
8	8	13
73	75	1
26	26	7
64	65	9
14	59	1
63	65	2
130	132	8
24	24	2
32	33	4
33	33	6
104	104	14
0	0	6
102	102	15
12	13	5
84	84	7
83	86	1
24	46	1
16	26	3
92	93	5
118	120	2
52	52	10
76	77	4
101	102	4
74	74	12
55	56	9
82	82	14
123	123	10
73	73	11
81	82	5
70	71	4
14	14	15
82	88	1
48	48	4
18	22	4
38	38	8
55	55	3
97	102	2
11	11	8
60	129	1
16	17	5
61	62	4
96	96	8
27	27	5
126	127	3
60	60	17
131	131	6
45	45	6
119	119	7
22	32	2
48	58	2
108	108	10
78	83	5
104	105	7
85	86	3
111	112	5
89	91	2
29	29	4
74	75	1
83	85	2
112	113	3
14	15	3
71	71	18
132	133	5
65	89	2
124	125	2
108	113	4
99	99	8
130	131	3
54	54	9
25	29	1
30	30	8
49	49	4
28	56	1
118	119	6
113	114	3
7	8	1
120	120	6
130	133	1
45	46	1
17	18	1
55	58	3
27	100	3
125	125	9
115	118	3
89	89	6
29	126	1
97	97	10
114	114	7
99	128	6
78	79	2
84	85	4
29	123	1
32	32	5
0	1	2
12	20	1
4	87	5
70	80	2
56	56	6
15	16	3
128	129	3
131	132	1
24	25	1
61	61	18
76	80	5
28	55	1
25	25	6
85	85	3
94	95	3
99	102	1
7	9	8
66	66	7
54	56	4
57	57	9
133	133	11
108	109	4
3	3	9
121	125	1
102	103	5
1	50	2
9	11	3
95	99	3
42	44	1
17	21	2
35	37	2
15	58	1
107	113	1
81	109	1
121	122	2
116	117	2
86	88	4
87	87	9
5	6	5
84	110	3
121	121	8
36	37	1
67	68	4
119	120	7
1	2	3
80	80	7
7	7	6
107	112	1
16	19	2
1	5	1
77	78	6
8	9	8
53	54	2
20	21	1
6	7	5
83	111	1
135	135	2
58	59	3
58	64	4
27	28	2
36	38	3
26	27	5
59	61	1
18	19	3
52	53	7
12	14	1
112	112	5
77	79	2
67	86	2
35	36	2
82	85	1
82	84	1
22	22	10
79	81	5
78	80	1
43	44	2
6	8	1
129	129	8
12	21	6
55	74	2
125	128	1
86	87	1
23	24	2
10	21	2
2	56	5
65	66	2
2	4	1
58	123	1
42	42	1
102	116	1
12	12	4
101	119	1
10	11	2
97	98	5
0	59	3
22	99	1
27	38	1
0	5	1
87	109	1
80	111	1
81	96	1
79	108	2
127	127	13
125	127	1
35	38	1
88	101	1
13	53	1
90	91	2
26	43	1
0	13	3
108	110	2
80	109	1
28	28	6
29	125	2
34	133	1
71	80	1
50	55	2
14	53	3
87	88	3
63	64	2
78	84	2
32	51	1
93	94	1
95	97	1
63	89	2
94	99	1
122	124	1
60	100	1
2	3	1
109	110	2
64	70	1
63	104	1
8	10	1
61	114	3
10	52	2
57	60	1
72	79	1
82	83	2
55	72	1
59	60	3
83	83	4
46	51	2
99	121	1
19	83	1
88	88	1
94	98	1
115	116	2
33	34	1
32	34	1
86	90	2
73	93	1
29	30	2
58	71	1
73	74	2
110	112	1
19	62	1
100	101	1
78	111	2
94	94	1
113	115	1
116	118	1
1	4	1
13	15	1
32	132	1
65	68	1
100	129	2
60	63	1
43	54	2
4	7	1
35	35	3
13	14	1
30	32	1
9	87	1
76	81	1
19	21	1
114	115	1
65	67	1
20	23	1
98	99	2
87	90	1
37	39	1
126	128	1
55	73	2
33	44	1
125	126	1
37	55	2
71	72	1
26	100	1
66	68	1
23	30	1
