27	27	22
141	144	6
83	83	9
30	42	4
12	12	15
108	122	3
114	117	5
21	22	9
14	15	4
8	11	7
86	88	2
103	103	13
80	96	2
110	110	2
33	43	5
138	149	3
17	19	7
11	11	10
32	32	7
138	147	6
143	143	9
9	11	6
7	7	12
9	24	4
128	128	16
133	133	7
14	96	1
132	132	13
45	45	14
37	37	6
113	114	5
41	42	11
5	16	3
127	128	4
112	142	2
5	5	9
141	142	6
9	12	3
124	125	4
85	85	11
107	109	4
74	74	15
130	130	3
101	102	10
95	95	11
46	46	7
113	113	9
99	99	8
127	131	3
3	3	7
76	77	4
40	40	8
68	69	6
121	151	5
49	49	2
20	21	5
122	122	11
68	68	10
129	129	17
64	79	2
138	138	10
150	150	6
121	126	4
114	114	18
70	70	3
140	144	4
119	120	10
47	49	2
28	29	4
81	82	7
149	149	13
29	29	18
49	52	5
41	41	6
82	140	9
75	75	6
139	140	7
139	139	7
8	8	3
117	117	10
31	34	5
37	38	6
141	141	13
80	80	10
56	57	5
21	21	9
125	125	7
145	146	11
76	76	9
85	86	6
79	79	15
15	15	6
109	109	5
13	85	7
57	63	3
107	107	9
101	128	3
46	47	6
34	34	15
87	87	1
73	73	16
9	23	6
146	146	26
106	106	9
38	38	18
26	26	6
137	145	2
53	53	7
81	81	5
120	122	4
45	46	2
5	6	3
126	126	5
43	43	13
82	82	25
6	16	2
18	18	10
11	24	9
150	152	4
140	141	2
4	8	4
73	74	8
36	36	20
121	137	7
145	145	6
121	144	2
63	63	6
114	119	1
118	119	5
104	105	8
47	48	1
120	137	3
73	76	3
65	65	7
4	17	3
80	102	4
44	44	8
92	93	3
11	12	8
67	67	8
136	136	6
63	65	4
22	22	17
28	28	9
132	133	5
43	44	4
83	138	3
76	78	4
32	33	8
64	66	9
112	112	12
16	16	6
19	19	5
114	116	3
30	30	7
108	147	2
67	78	5
112	113	11
25	25	16
53	54	3
111	111	7
10	90	3
99	100	3
8	13	4
2	147	4
110	149	4
100	100	9
30	99	1
77	77	9
114	115	4
103	106	1
33	94	5
29	30	10
94	98	4
119	119	8
78	78	4
71	132	2
25	26	5
90	90	8
66	66	2
8	25	4
32	35	2
131	131	9
24	25	6
35	35	14
136	137	8
97	97	6
103	116	1
62	64	2
6	6	12
10	10	11
84	85	2
18	19	4
15	97	9
121	125	4
116	117	6
50	57	4
108	108	18
3	17	3
42	99	8
72	73	9
124	124	3
37	54	4
49	50	2
69	69	3
41	99	7
127	127	11
102	102	13
83	123	1
10	25	1
108	139	2
126	127	5
40	41	2
20	20	6
99	130	2
150	151	6
15	16	8
112	118	2
131	133	1
20	30	1
84	84	9
57	58	2
13	14	3
119	143	2
9	9	6
92	92	6
83	144	3
11	147	1
137	137	3
51	65	2
12	14	1
116	125	4
13	94	2
35	36	10
35	37	4
19	20	5
9	10	2
121	121	14
135	136	9
70	103	3
63	64	8
108	142	1
65	77	1
142	144	4
95	106	2
96	132	3
137	138	3
55	55	10
112	117	3
9	20	5
107	138	3
83	104	2
14	14	3
38	39	6
69	76	3
123	127	3
30	95	3
37	67	3
36	37	3
80	129	1
88	88	7
119	137	2
133	153	1
22	23	5
27	29	3
17	36	3
15	18	2
95	99	6
80	123	1
97	98	8
74	75	4
71	71	7
33	33	12
123	124	10
95	96	3
58	58	2
105	105	12
123	126	3
64	64	5
54	63	3
129	130	1
64	65	6
2	3	7
130	133	3
72	75	2
108	109	4
90	148	2
79	125	7
142	145	11
4	4	4
50	69	1
104	125	1
76	90	1
135	135	4
53	55	5
17	18	2
4	5	3
39	40	5
113	117	3
78	79	5
54	55	3
7	17	2
42	42	10
121	122	8
104	104	12
94	94	9
96	106	2
90	147	3
7	8	1
6	34	2
34	69	4
34	37	7
51	56	2
22	25	3
2	11	2
66	67	7
81	84	2
38	42	4
46	96	6
70	71	3
109	110	7
145	147	4
83	107	4
38	41	4
34	35	4
19	28	2
49	57	3
86	86	4
37	55	1
149	152	2
138	142	2
14	97	3
95	100	3
84	95	1
48	53	4
116	116	3
13	13	4
6	15	4
154	154	3
56	56	3
84	105	2
83	141	2
35	122	2
95	127	1
58	63	2
52	67	1
67	68	1
17	24	1
89	90	2
110	111	3
77	95	2
103	104	4
23	23	6
16	85	1
113	118	1
93	105	3
153	153	9
48	54	3
99	104	3
48	56	1
93	94	8
17	17	3
47	57	1
24	28	4
27	28	6
95	97	1
102	103	3
135	153	5
26	38	5
104	114	1
79	80	6
28	30	2
100	101	1
69	103	5
113	139	2
86	87	1
117	147	2
97	106	4
146	148	5
80	81	6
73	75	1
73	137	1
115	115	2
54	54	5
105	106	3
140	140	6
4	16	5
123	129	3
125	126	6
16	25	3
104	106	1
45	153	1
29	43	1
47	52	1
98	98	3
82	83	4
69	70	3
136	138	1
4	7	2
90	91	1
47	47	4
146	147	4
15	32	1
85	94	2
46	53	4
98	100	1
22	24	1
66	80	1
80	82	4
111	118	2
23	24	1
15	30	2
105	107	1
36	38	1
24	37	2
131	135	4
74	78	3
94	97	2
153	154	4
107	147	3
106	107	4
27	30	3
98	99	2
75	80	1
42	43	2
95	101	2
68	73	1
137	149	1
5	12	1
15	31	3
93	93	7
137	147	5
115	116	5
122	140	1
16	17	3
29	32	2
73	77	1
7	19	3
13	18	1
119	122	2
67	77	1
93	98	3
29	31	7
31	31	6
44	99	1
96	96	5
39	39	6
79	81	1
123	123	7
9	25	2
51	77	2
122	141	3
94	101	3
126	128	4
109	135	1
8	23	2
128	129	1
142	143	2
30	31	2
72	72	3
23	29	3
85	87	1
48	48	6
85	92	4
119	138	1
9	147	1
137	142	5
143	144	1
87	88	3
29	44	1
83	125	4
101	101	2
117	118	2
108	123	2
57	57	6
50	50	1
3	16	3
148	148	5
108	124	1
2	2	3
138	139	2
142	142	4
26	27	4
69	106	1
37	39	1
75	102	3
83	84	4
40	53	1
75	77	3
6	7	3
19	21	2
96	131	1
14	21	1
136	146	1
116	142	1
71	72	1
118	118	2
24	26	3
102	124	1
111	119	2
30	44	1
120	120	3
111	112	1
17	28	4
42	154	1
97	107	1
74	86	2
81	124	2
5	19	1
77	79	2
5	7	2
109	147	2
41	44	1
100	103	2
48	50	1
96	123	3
105	141	1
73	84	2
108	143	1
71	97	1
104	139	4
129	132	1
66	75	1
72	74	2
69	132	2
46	84	2
52	69	1
114	139	1
75	86	1
87	105	1
48	49	1
151	151	2
147	147	1
24	24	2
141	143	3
126	136	1
48	51	3
33	73	1
119	149	1
41	43	3
10	12	3
103	113	1
85	123	2
124	129	1
62	63	2
6	18	2
25	29	2
42	44	2
44	101	2
133	135	1
50	68	1
31	32	3
96	98	1
122	125	2
140	145	1
74	93	1
3	85	1
139	153	2
85	88	1
107	108	4
87	98	1
70	107	2
22	32	1
75	137	1
19	26	1
147	148	2
50	54	1
110	148	1
66	68	2
55	65	1
41	46	1
123	137	1
94	95	1
112	114	1
119	136	1
2	16	2
98	107	1
44	46	2
33	42	1
136	147	1
121	141	1
42	128	1
13	87	1
51	52	1
104	141	2
56	68	1
69	78	1
67	80	2
81	94	1
51	51	1
34	42	1
15	17	1
15	95	2
108	148	1
21	25	1
75	78	1
74	85	1
36	42	1
49	53	1
139	141	1
16	58	1
84	86	1
131	132	1
134	134	1
62	78	1
102	125	1
95	98	1
17	25	1
144	145	1
65	78	1
18	27	1
120	136	1
