119	119	4
21	22	3
134	134	3
4	4	11
121	122	4
133	133	5
8	8	2
21	29	2
122	122	9
71	71	4
112	112	4
1	18	7
9	10	4
22	27	2
14	14	1
3	3	8
1	34	1
12	12	1
132	132	3
10	14	2
119	124	4
128	128	4
37	37	7
117	117	6
118	118	8
16	22	1
108	111	1
81	82	1
7	14	1
29	29	6
76	118	5
1	1	6
137	137	6
26	27	4
20	130	1
100	100	4
29	32	1
126	126	7
17	31	2
75	75	2
106	106	10
105	124	3
100	103	3
80	81	7
78	78	2
135	135	6
78	83	2
7	32	1
108	109	2
121	121	3
30	30	1
15	21	5
21	35	2
96	96	4
17	17	12
30	31	5
35	35	10
128	129	4
105	106	1
71	91	2
98	98	8
30	32	2
114	131	1
123	124	3
29	39	1
72	123	3
91	96	7
34	35	1
138	138	1
76	81	2
38	38	4
73	73	1
99	113	1
130	130	3
101	101	4
106	109	2
17	18	1
87	100	4
115	115	9
139	139	6
1	3	5
95	99	3
1	23	1
7	23	1
94	104	2
22	22	3
116	116	5
1	4	1
0	38	1
78	80	4
80	82	3
93	94	1
10	11	2
7	7	8
74	74	3
0	15	1
108	108	4
122	123	3
20	20	6
25	25	7
140	140	3
125	128	2
11	11	1
99	100	3
17	22	3
97	97	4
103	110	5
88	88	3
10	10	4
128	133	1
18	18	4
111	122	3
86	101	4
80	80	8
13	13	6
86	86	3
102	102	4
94	94	2
76	77	1
21	21	4
137	140	7
25	28	3
15	15	6
91	94	1
115	121	3
110	113	4
89	89	2
9	11	2
22	35	2
82	82	4
36	36	2
124	124	4
101	119	2
128	130	5
0	0	6
84	97	1
111	114	3
93	93	6
91	101	2
114	114	2
120	120	2
95	95	3
99	99	2
27	27	4
1	17	1
74	102	1
84	103	3
13	35	2
97	101	2
126	127	3
136	136	2
2	2	1
5	5	4
105	105	5
6	7	1
84	86	2
111	113	1
131	131	2
7	33	1
86	88	1
134	136	1
23	23	1
90	104	2
110	111	3
6	8	1
104	105	1
92	103	3
110	114	4
101	104	2
22	33	2
87	87	2
123	123	1
87	88	1
75	94	1
110	110	2
95	112	2
6	6	3
91	91	2
32	32	1
79	94	2
82	116	2
23	27	2
72	72	3
95	118	2
97	113	1
23	34	1
31	31	3
79	81	3
95	116	1
8	12	1
109	127	1
19	28	1
24	25	1
72	74	2
37	38	1
76	76	2
9	110	1
103	107	2
95	110	1
20	35	2
81	81	1
79	88	1
84	87	1
6	28	1
135	136	1
118	119	1
1	21	1
86	112	1
7	9	1
32	35	1
95	117	1
2	3	1
120	127	1
109	109	1
83	83	1
0	10	1
34	34	1
33	33	1
91	103	2
84	84	2
19	35	2
16	29	1
100	104	1
129	129	2
90	90	1
115	116	1
122	124	1
83	99	2
20	34	1
89	119	1
88	91	1
2	4	1
75	77	1
116	123	1
19	21	1
