32	32	6
102	102	8
95	95	15
11	11	9
52	52	7
33	33	4
128	128	4
84	84	8
95	96	3
123	124	2
111	116	1
114	115	6
89	89	5
23	23	5
15	15	10
34	34	7
33	34	1
124	129	1
61	61	5
5	5	15
6	7	5
56	56	2
16	16	2
71	71	2
12	12	8
114	114	3
35	35	9
73	73	5
112	112	9
12	35	3
113	113	3
61	76	4
58	58	5
103	103	5
116	116	12
45	45	2
100	100	2
109	109	3
34	35	4
88	88	11
18	18	1
76	76	4
50	99	2
13	14	7
57	57	6
115	116	3
60	60	4
55	55	2
3	4	2
2	2	4
132	133	3
79	79	3
110	110	1
91	92	2
121	122	2
23	24	1
121	121	5
94	94	4
59	69	1
58	84	3
108	109	2
98	98	6
87	87	3
53	57	2
101	101	3
19	22	3
50	58	2
44	44	2
57	58	4
64	90	2
124	125	1
43	43	3
10	37	1
75	76	1
17	17	3
104	104	4
79	123	2
37	37	3
111	111	3
29	29	5
18	19	3
135	135	2
10	16	2
50	50	3
6	6	6
75	75	2
52	53	3
94	95	1
131	132	2
12	13	1
12	14	5
63	63	6
127	128	1
59	59	4
68	68	4
106	106	1
26	27	6
13	13	3
131	131	4
70	71	1
49	49	1
7	7	6
131	133	1
97	98	3
77	121	1
96	101	1
106	131	2
80	80	1
85	85	2
56	57	1
127	127	4
69	69	3
90	90	2
21	21	2
111	112	2
133	133	5
78	123	1
112	121	2
38	45	1
117	117	4
125	126	2
43	106	3
63	64	3
11	35	2
5	6	1
28	28	1
36	36	3
70	70	9
24	27	1
60	79	1
118	119	1
59	77	1
92	92	4
122	122	3
93	93	1
80	127	1
28	29	1
8	10	1
0	0	7
74	74	8
49	56	3
108	113	1
48	48	4
25	25	2
126	126	4
111	125	1
108	116	1
69	70	1
38	38	2
105	105	4
78	79	7
105	106	1
44	56	2
26	26	1
90	103	2
71	72	1
35	36	1
77	77	1
97	97	1
10	10	1
82	82	1
16	25	1
65	68	1
106	107	1
74	75	1
81	81	1
118	118	1
56	58	1
106	112	1
126	127	1
124	124	1
20	20	2
64	64	1
24	24	2
16	20	3
18	23	1
4	5	2
21	22	1
120	121	1
134	134	1
14	14	2
19	19	2
116	117	1
44	45	1
85	86	2
3	3	2
72	73	2
65	69	1
11	12	2
105	114	1
68	69	1
99	99	2
10	103	1
13	28	1
117	125	1
10	11	1
80	81	2
110	111	1
119	120	1
79	124	1
60	69	1
51	100	1
123	133	1
78	98	1
11	33	1
80	123	1
107	107	1
8	8	1
