35	35	6
21	21	6
65	65	5
72	72	6
73	97	1
51	52	6
42	43	8
56	56	6
48	48	6
39	39	11
50	50	9
32	32	4
97	97	8
93	93	6
63	64	3
51	51	9
86	86	4
84	85	1
64	64	8
58	59	7
70	70	6
58	58	4
37	79	1
81	86	2
67	83	2
47	47	3
92	92	4
45	68	1
71	71	10
53	53	5
30	30	3
45	78	2
52	52	8
103	104	1
78	79	3
84	84	5
61	61	12
100	101	3
41	42	2
63	98	2
91	91	3
47	97	3
65	95	3
74	74	3
42	91	2
38	38	7
44	45	1
48	68	3
20	22	4
24	24	5
83	86	2
62	62	8
34	34	4
22	22	10
50	69	4
103	103	7
43	44	2
21	53	1
29	30	5
67	99	2
80	86	3
29	29	7
73	73	6
20	20	4
36	36	7
54	69	5
25	28	2
87	87	6
57	58	5
98	98	10
25	25	3
43	43	3
45	45	4
97	99	2
40	40	5
87	94	2
95	99	5
89	92	1
26	26	4
80	80	5
95	95	11
31	60	2
55	56	1
96	96	10
55	55	4
91	92	2
57	57	2
94	94	9
49	84	4
73	106	2
35	75	2
74	79	3
70	71	1
99	99	6
30	77	2
31	31	7
61	69	1
32	60	2
33	33	6
48	49	1
63	67	1
31	32	1
67	82	8
81	85	1
59	59	5
85	85	3
67	94	4
88	88	4
62	74	4
46	61	1
107	107	4
41	41	3
24	29	2
35	36	2
24	25	1
100	100	9
77	77	3
104	104	1
33	63	2
58	105	2
90	91	3
82	82	1
80	90	2
49	49	10
39	76	1
47	63	2
68	81	1
77	78	2
46	48	4
56	57	5
46	87	1
85	88	1
83	87	3
44	44	9
90	90	1
25	55	4
79	84	2
80	88	2
68	84	1
28	70	2
70	73	2
73	104	1
67	97	3
65	66	2
29	60	4
62	97	2
62	98	2
64	101	1
67	95	4
48	67	3
33	34	2
25	48	4
62	79	1
21	101	2
42	42	2
23	88	5
69	107	3
23	23	5
47	48	2
54	55	1
59	105	2
81	81	4
98	99	3
69	73	1
20	21	1
73	96	3
88	90	1
68	82	2
54	73	1
67	98	1
69	69	2
84	87	2
24	38	2
54	54	4
49	60	5
33	75	2
86	87	3
37	46	3
88	94	1
50	85	1
24	61	1
76	76	2
46	84	1
87	88	1
24	55	1
28	28	2
79	79	3
70	72	1
102	102	1
53	54	1
68	68	1
49	68	1
37	85	3
106	106	1
72	101	1
105	105	1
60	60	3
81	82	1
69	81	1
71	72	1
32	56	1
41	43	1
47	75	1
