35	36	2
227	227	15
161	162	3
18	18	2
179	179	10
169	172	1
61	61	3
29	30	7
117	117	9
226	227	10
153	157	2
176	176	2
98	98	8
162	162	5
37	37	9
115	116	2
4	4	7
243	244	10
224	224	4
164	164	6
21	21	7
111	149	1
84	85	2
191	193	4
81	83	2
78	78	9
73	73	5
191	247	2
69	69	6
161	161	5
207	207	12
48	66	5
184	185	3
47	49	1
51	51	7
182	220	2
9	40	1
97	98	6
26	26	4
21	214	3
75	75	9
36	37	1
54	54	9
24	24	6
224	225	6
187	189	6
181	208	3
185	185	9
24	25	4
241	241	5
5	110	1
11	11	12
210	210	8
101	102	2
47	83	1
28	28	6
174	174	4
28	36	2
189	246	1
34	35	4
245	245	6
206	209	2
9	11	4
171	172	3
77	174	2
16	16	7
209	209	21
38	38	4
70	70	7
23	23	11
2	2	4
57	57	4
152	152	8
42	42	21
7	145	1
226	226	15
118	119	6
31	32	7
43	44	3
205	205	15
29	34	3
240	240	10
183	183	7
77	78	5
179	234	2
239	239	5
86	86	6
213	214	4
203	208	4
225	225	2
154	154	6
112	114	1
14	14	8
202	202	6
182	182	2
165	171	3
204	204	7
15	16	2
47	109	3
237	238	4
201	201	5
208	208	5
229	233	2
220	220	8
48	48	7
111	111	9
159	209	3
43	43	7
30	32	2
173	174	5
159	160	5
153	153	9
231	231	6
91	91	1
228	228	4
2	218	2
92	92	9
246	246	3
60	60	3
210	211	3
73	74	4
172	172	9
44	44	6
195	195	6
4	109	1
169	169	4
221	222	4
96	96	8
219	219	4
66	72	4
102	102	6
27	28	4
104	104	5
67	68	1
119	119	7
30	30	5
150	151	3
62	63	2
36	36	7
39	144	1
85	85	5
32	32	13
10	10	8
3	3	7
243	243	5
6	6	2
79	80	3
188	188	4
52	53	3
12	56	4
215	215	6
110	111	1
159	159	11
73	172	2
9	44	2
234	234	9
160	160	7
84	84	7
218	218	10
1	1	4
81	106	2
120	120	4
233	233	9
157	157	8
167	167	9
79	79	4
231	233	3
62	62	7
232	232	8
219	220	1
188	191	1
23	24	2
214	215	8
67	67	7
199	199	3
90	90	2
192	192	7
199	203	1
53	53	11
187	187	2
91	201	3
80	80	5
240	244	1
189	189	6
203	203	2
165	165	8
113	113	7
101	101	4
104	105	3
158	158	6
90	181	1
75	76	4
114	114	7
81	81	4
110	110	13
198	198	5
194	232	2
167	168	3
60	64	5
75	85	1
207	214	1
200	200	6
107	107	7
160	161	1
177	177	8
190	190	4
211	212	2
238	238	5
44	46	2
15	56	2
83	83	4
105	105	4
216	216	6
116	208	5
57	58	2
82	82	2
164	217	2
182	183	3
64	64	5
233	234	4
114	115	1
74	74	6
41	99	4
237	237	11
42	162	3
77	77	6
89	89	4
190	248	1
193	193	7
145	145	4
55	55	3
87	87	2
91	93	1
236	237	3
234	245	2
50	50	3
247	247	3
27	27	12
164	165	4
7	8	2
94	94	1
188	189	9
23	224	4
100	101	1
217	217	8
42	45	3
89	90	1
72	75	4
50	92	1
156	156	4
29	29	6
58	58	12
244	245	2
49	81	3
19	46	1
71	71	3
170	170	4
41	161	6
59	59	8
166	166	8
236	238	4
39	39	5
164	174	1
7	12	5
191	199	1
12	55	1
39	58	1
41	45	2
171	171	2
31	33	2
48	50	1
31	31	10
8	8	17
151	208	2
19	20	2
87	106	2
49	49	4
168	168	2
107	108	4
34	34	7
239	240	4
42	59	2
9	9	8
225	228	1
8	10	3
65	106	2
230	231	2
64	66	2
28	31	1
22	22	9
41	102	2
196	234	3
19	19	4
99	99	7
247	248	2
39	40	1
56	56	9
150	150	4
172	178	7
17	19	1
184	184	6
242	243	2
214	227	5
111	145	2
76	76	1
244	244	6
191	191	7
157	158	5
178	178	6
24	38	2
59	64	1
118	118	4
40	41	3
236	239	4
112	112	4
213	215	1
99	105	1
7	7	8
158	176	1
151	153	2
65	65	6
147	147	3
5	5	4
95	95	6
119	120	2
181	205	1
36	53	1
147	215	2
185	186	3
13	13	2
152	177	1
176	177	1
100	100	4
115	115	6
116	116	6
12	53	4
50	112	4
238	239	1
22	23	4
47	108	1
66	66	4
89	229	1
177	178	3
40	40	10
111	112	2
163	163	6
146	146	1
75	77	2
94	145	3
205	208	3
160	209	2
96	97	3
151	152	3
112	119	3
234	239	1
76	119	3
109	109	9
46	46	6
146	147	2
19	21	2
94	99	2
208	209	3
34	217	1
169	170	2
13	38	1
47	64	1
63	65	3
117	207	3
90	107	2
161	175	4
97	97	1
22	36	2
17	38	1
173	173	4
17	18	1
74	75	1
158	159	2
46	87	2
77	79	1
235	235	7
63	113	2
103	103	2
20	20	3
63	63	3
42	43	4
52	52	9
72	72	2
162	218	2
23	217	2
71	72	3
165	166	4
238	244	1
165	167	2
216	217	1
34	37	4
147	154	1
157	198	2
102	103	3
198	199	1
19	38	1
183	184	2
232	247	1
68	68	2
66	96	6
22	216	2
69	85	1
12	12	3
45	45	1
194	194	2
64	65	1
100	105	1
215	217	2
7	230	1
221	221	4
175	175	1
56	57	5
97	104	1
186	186	1
236	236	8
108	145	1
229	230	1
151	151	1
158	211	1
47	47	4
49	50	2
93	93	1
2	3	1
153	160	2
218	219	1
48	212	1
207	219	2
95	105	3
213	213	2
7	10	1
35	35	1
231	248	1
120	121	5
166	171	1
150	229	2
5	6	2
69	71	3
108	108	2
185	187	2
222	222	3
66	119	2
192	210	1
39	57	1
149	209	3
92	99	1
194	195	3
192	229	1
90	230	1
50	51	2
37	38	1
240	242	2
65	112	2
241	244	2
71	85	2
44	100	3
88	88	2
82	83	2
82	85	2
160	193	2
47	81	1
215	218	1
55	64	1
185	190	1
72	80	1
41	41	1
86	105	1
156	165	1
223	238	1
97	99	2
197	197	3
185	188	2
79	106	1
81	82	3
162	203	1
21	22	1
173	176	2
76	77	1
19	37	3
55	61	1
90	201	1
230	230	1
43	111	1
235	236	1
214	214	2
186	187	1
5	14	3
192	194	1
87	88	1
235	239	1
62	113	2
33	33	4
87	182	1
217	218	2
182	226	1
213	218	1
241	242	1
85	93	2
16	17	1
70	101	1
106	106	1
204	220	2
47	48	1
49	107	1
86	89	1
180	181	1
71	163	1
178	179	1
17	40	1
15	57	1
232	235	2
201	202	1
88	182	1
4	14	2
5	7	1
115	119	1
38	39	1
225	226	1
227	230	2
198	200	2
73	78	2
187	190	1
42	44	1
70	71	1
15	15	1
113	114	2
49	110	1
172	174	2
15	39	1
48	49	2
14	17	1
208	218	1
18	21	1
83	101	1
80	82	1
99	103	1
59	63	1
155	155	1
42	55	1
196	196	1
153	154	1
