2	2	2
178	178	5
14	14	8
183	183	3
5	9	2
100	105	1
42	42	4
19	19	6
168	176	4
64	64	1
75	75	6
60	63	2
113	113	7
102	102	7
138	138	10
145	163	3
18	18	3
68	68	2
8	8	5
80	116	3
188	188	2
20	20	2
174	174	8
103	103	3
84	84	2
175	176	1
129	129	3
142	178	8
92	92	2
149	149	2
80	81	5
168	168	8
182	183	3
121	180	4
143	143	7
142	142	6
169	169	6
117	122	2
118	121	1
37	37	5
156	156	5
36	37	1
108	108	4
41	42	1
16	16	3
115	134	2
30	30	5
187	188	4
121	121	4
135	135	2
148	155	2
55	55	3
109	112	4
87	87	3
110	110	9
59	65	6
73	73	3
10	10	9
181	182	4
45	47	3
39	39	5
56	56	1
117	117	2
1	1	3
168	170	1
96	97	1
26	26	2
185	185	4
162	162	9
182	182	6
29	29	4
41	41	3
109	110	3
92	93	3
24	127	4
61	63	2
134	134	2
94	94	1
79	79	3
166	167	3
66	66	2
38	39	1
67	67	2
122	122	2
174	175	2
126	128	1
52	52	1
44	46	1
160	160	5
77	181	2
3	5	4
83	184	6
47	47	5
188	190	3
167	177	2
104	104	7
101	101	4
48	48	3
37	38	4
120	120	3
147	147	4
175	175	2
55	56	2
133	134	2
2	13	3
143	156	2
40	40	2
27	27	2
73	167	1
83	83	1
144	144	4
86	86	2
18	19	2
148	148	3
88	90	2
186	186	3
89	89	6
36	36	1
126	126	5
154	188	4
25	128	3
81	131	1
83	185	1
77	141	2
157	158	7
114	138	1
107	107	5
34	34	3
127	127	1
116	116	1
146	146	11
53	55	3
25	25	2
171	171	4
71	71	2
170	175	1
9	36	3
100	100	5
53	103	4
99	99	3
56	94	3
164	165	4
48	103	3
164	164	5
148	149	1
32	32	2
105	105	2
58	59	2
22	22	3
65	74	2
17	22	1
172	172	5
42	43	1
153	188	1
176	177	1
74	74	1
60	61	2
46	46	1
38	38	1
71	138	2
2	25	3
170	170	1
70	107	2
76	76	3
61	61	1
32	33	4
70	71	3
77	186	1
33	33	3
3	3	1
37	98	1
154	154	2
169	176	1
155	155	3
3	4	1
158	158	5
30	35	1
60	60	5
55	57	2
52	53	2
53	54	1
187	190	4
90	91	1
44	47	3
173	173	2
143	161	1
0	0	2
13	13	1
78	178	3
116	117	1
79	135	1
71	72	1
20	21	2
75	76	2
121	178	1
95	95	2
12	14	2
79	118	2
177	177	2
136	142	3
57	60	1
15	27	1
15	15	1
0	8	1
91	91	1
17	17	2
7	7	2
161	161	6
123	123	5
28	29	2
189	189	2
2	128	2
114	114	2
40	41	2
57	62	1
113	139	1
152	153	1
39	41	1
109	167	1
150	171	1
63	63	3
62	63	1
145	145	2
88	88	1
133	133	1
98	98	1
139	139	1
84	184	1
181	181	3
58	58	1
183	184	2
6	14	1
53	53	3
129	130	1
77	77	1
79	80	1
82	130	1
108	116	1
77	183	1
70	113	1
140	140	1
97	97	1
119	122	1
23	23	2
5	5	1
101	102	1
24	26	1
56	58	1
96	96	1
124	124	1
64	65	1
136	137	1
9	10	1
186	188	1
118	119	2
66	67	1
169	170	1
