128	129	6
117	118	1
60	60	5
15	109	5
56	56	11
27	27	9
72	73	4
122	122	5
118	118	12
7	7	6
50	50	18
107	107	10
69	81	3
111	111	15
10	10	6
101	103	6
96	99	2
95	95	13
12	12	6
29	29	6
2	3	3
49	49	16
24	32	3
68	68	7
41	41	6
80	80	3
105	107	4
129	129	6
53	53	5
132	132	11
69	69	10
81	84	5
44	45	3
112	112	9
26	26	7
93	93	4
87	87	3
90	90	6
23	49	5
32	33	1
52	52	21
22	22	5
70	70	7
16	73	1
54	54	14
82	82	5
39	105	3
16	16	3
57	57	3
67	70	9
125	125	10
78	91	2
33	33	6
18	18	6
55	55	5
40	103	3
6	6	11
31	31	7
11	12	5
116	116	17
78	78	3
106	106	5
76	76	7
128	130	7
45	46	3
51	51	16
124	124	7
113	114	8
114	114	13
5	5	5
17	17	3
110	110	8
3	3	8
109	111	1
13	13	13
87	88	2
113	113	11
117	119	7
88	88	1
121	121	6
133	133	8
62	62	6
91	91	8
81	122	4
40	47	5
4	4	12
23	23	3
72	76	3
122	123	1
1	1	4
19	67	2
125	131	1
119	125	5
61	62	2
75	75	1
119	119	10
124	131	3
24	24	1
94	133	1
83	84	3
51	52	4
111	113	4
46	46	8
100	100	3
33	34	2
94	96	3
93	94	3
0	0	13
40	40	2
120	120	6
4	7	5
20	20	12
44	44	3
46	47	3
76	79	4
13	73	3
115	115	11
81	81	3
13	19	2
105	106	4
84	84	1
53	54	2
114	115	3
29	30	3
25	25	5
104	104	8
60	84	2
8	8	4
99	101	1
79	79	4
2	65	1
123	123	2
18	26	2
131	131	8
63	63	3
40	99	4
39	67	8
8	21	1
86	86	4
126	130	4
34	34	6
77	77	3
125	132	2
103	126	6
126	126	4
103	103	10
32	32	3
43	44	2
78	79	1
92	92	3
67	67	1
38	38	7
85	85	6
74	75	2
77	93	4
117	117	5
89	93	1
59	61	2
102	102	2
47	47	10
130	131	2
65	65	1
108	108	3
18	19	1
83	83	5
2	2	2
94	101	4
91	100	1
7	18	2
92	94	3
90	100	1
109	109	1
97	97	2
56	100	2
42	42	2
14	15	5
81	85	3
58	59	5
79	86	1
42	43	3
2	4	2
7	16	2
120	121	2
43	43	8
94	95	2
56	101	2
9	10	6
79	80	5
93	96	1
69	89	1
94	94	4
69	85	4
39	58	1
58	131	5
10	23	5
37	67	2
71	75	3
89	89	4
71	97	2
5	6	1
64	64	2
39	62	3
58	58	6
43	55	1
80	81	4
96	96	1
68	69	1
116	117	3
70	86	1
44	63	3
72	72	3
30	33	2
13	14	6
48	49	1
66	66	1
45	45	1
95	100	1
87	92	2
19	20	3
104	105	4
15	116	5
115	122	1
71	96	1
8	17	2
45	64	1
96	97	2
55	91	1
71	86	2
96	101	1
107	108	1
48	48	2
63	67	1
15	15	4
28	29	2
98	99	3
11	11	2
39	68	2
55	57	1
73	75	3
20	38	1
89	94	1
63	68	1
54	57	1
56	102	4
21	21	1
60	62	2
84	85	4
43	54	1
10	117	3
113	115	1
70	72	1
100	102	1
23	26	1
100	101	1
101	101	1
104	131	1
20	21	1
41	69	1
79	117	1
31	116	3
91	93	1
60	129	3
71	71	1
57	58	2
89	90	1
39	39	1
65	66	1
124	125	1
30	30	2
106	107	1
102	127	1
25	26	1
41	52	1
79	92	1
64	107	1
127	127	2
127	128	2
13	15	1
104	125	1
132	133	1
19	19	1
63	108	1
1	69	1
6	7	1
88	89	1
14	14	1
