80	82	3
153	170	2
161	161	5
176	177	2
173	173	18
182	183	1
183	183	2
120	120	3
42	42	12
140	140	18
71	78	1
19	21	1
46	46	7
58	58	6
14	14	4
14	27	2
10	10	2
88	88	14
49	81	3
123	125	1
22	22	8
102	123	1
6	6	5
82	82	9
112	112	5
170	171	2
175	179	5
108	108	10
23	23	2
48	131	1
53	114	1
34	35	4
58	61	2
89	89	6
146	152	2
147	187	1
40	40	6
7	8	5
67	73	4
184	184	9
43	44	5
48	48	7
182	182	7
3	3	11
53	54	4
45	45	6
167	167	4
113	113	3
187	190	5
114	114	16
152	152	12
167	169	2
129	129	4
18	18	9
56	57	7
62	62	6
80	80	6
99	99	8
139	139	4
16	16	4
71	71	8
9	44	1
2	2	23
13	24	3
113	155	2
80	81	2
189	189	10
41	41	10
67	67	5
190	190	5
128	128	5
98	98	5
186	186	3
91	91	11
146	148	5
57	57	7
2	3	1
133	133	4
94	94	3
129	130	4
67	75	1
4	4	4
178	181	4
171	173	8
75	75	6
141	141	7
17	33	2
111	122	3
164	164	12
164	165	2
151	151	5
127	128	5
119	119	11
47	47	9
55	55	8
28	44	1
12	12	2
117	118	9
100	101	1
146	147	3
69	73	3
181	181	5
166	169	3
124	124	6
25	25	3
162	162	8
101	101	6
90	90	13
106	106	4
18	19	3
102	102	4
65	70	2
24	25	1
32	36	5
105	105	2
7	7	7
102	125	2
131	133	1
17	18	3
79	79	3
60	63	2
177	181	2
150	152	1
79	83	2
41	43	3
140	144	1
41	138	1
118	118	1
84	84	8
61	61	1
70	70	1
146	168	3
114	123	1
101	102	8
147	174	4
185	185	4
36	36	7
5	5	6
61	62	3
121	121	11
60	60	3
117	117	3
85	85	12
53	53	5
28	42	2
189	190	2
137	137	1
134	134	5
62	63	2
44	76	4
130	130	5
24	24	6
116	188	4
35	44	4
35	35	6
143	164	2
147	147	11
171	172	1
158	159	4
187	187	3
110	110	2
110	169	1
130	131	2
42	48	1
74	75	1
94	100	1
19	19	4
43	43	10
122	122	1
111	111	10
41	42	4
27	27	5
169	169	3
31	31	1
142	142	10
144	144	6
18	23	1
172	172	3
54	54	5
145	145	7
176	176	5
157	157	8
96	96	3
178	180	2
78	79	1
159	159	5
141	152	3
156	156	3
146	171	1
165	165	7
170	170	4
105	162	2
116	116	1
184	188	2
137	138	7
162	164	2
26	26	11
86	87	7
148	148	2
121	122	1
96	98	1
184	185	5
63	63	4
125	151	4
55	56	2
56	84	3
21	21	2
123	123	8
104	104	8
169	172	1
155	160	1
14	18	2
183	189	2
146	146	7
87	87	5
77	77	3
158	158	6
95	101	2
175	184	1
166	166	2
12	15	2
1	1	2
38	38	6
44	45	5
5	6	3
159	160	5
136	136	3
92	94	2
148	149	2
26	33	1
90	127	1
10	44	2
29	29	2
126	152	2
20	20	1
33	34	3
59	65	1
65	85	1
114	115	3
4	6	4
57	83	1
84	182	1
180	180	3
8	8	2
15	19	4
161	162	1
21	22	3
101	126	1
1	2	1
30	31	5
155	185	2
169	170	1
61	84	1
83	86	2
105	109	3
30	46	1
25	31	1
179	180	4
135	137	1
39	40	1
18	22	3
135	135	5
68	86	2
64	68	3
38	40	1
136	138	1
10	13	1
9	9	4
140	152	2
37	37	5
28	28	3
171	174	3
36	37	3
10	11	1
154	154	3
25	74	1
153	153	3
68	68	5
13	22	1
91	100	5
115	115	5
177	180	2
188	190	1
154	158	2
41	46	1
3	5	3
125	125	2
149	150	1
143	143	1
93	94	3
58	59	3
143	155	1
27	28	1
116	119	2
131	131	2
168	168	2
118	123	1
167	168	1
157	158	2
74	74	3
153	155	1
187	188	1
149	149	5
25	32	2
13	13	2
100	100	5
150	150	2
106	107	5
130	155	2
71	73	2
107	107	7
66	67	2
138	138	4
36	38	3
163	163	1
11	23	1
54	114	3
90	91	4
96	97	1
186	187	1
116	123	3
46	47	1
75	76	2
95	97	1
124	125	2
103	103	5
33	76	1
33	35	1
27	31	1
120	121	3
53	131	2
67	68	2
87	88	4
175	175	1
105	145	2
59	61	3
177	177	3
85	86	1
83	84	5
185	190	2
127	127	3
153	189	4
108	109	4
97	97	5
4	140	2
33	33	3
143	147	2
47	87	1
28	43	1
100	102	1
105	107	2
115	188	1
104	107	4
79	80	3
109	110	2
83	83	3
8	36	2
103	104	1
110	111	2
123	129	2
19	42	2
8	9	4
126	127	2
126	140	1
150	154	1
89	91	1
48	49	1
79	81	1
188	188	1
142	143	3
3	6	1
22	44	2
25	26	1
76	76	1
135	136	1
75	83	1
89	130	1
21	44	1
75	85	1
66	66	5
10	14	1
19	20	1
23	74	2
170	174	1
116	121	2
156	159	1
18	40	2
30	30	2
28	29	2
174	174	2
141	144	3
11	15	2
134	137	1
92	93	1
168	174	1
58	60	1
69	69	1
93	126	1
4	5	4
70	185	1
28	30	1
13	15	1
71	87	2
84	86	1
112	113	1
130	133	1
21	31	3
126	144	2
6	7	1
95	95	1
184	186	1
156	157	2
18	20	1
112	123	1
111	156	1
109	162	1
45	46	1
11	11	1
188	189	1
94	190	1
144	160	1
94	96	1
139	140	2
73	73	3
70	85	1
130	132	1
70	88	1
123	126	1
92	92	1
119	163	1
174	175	1
150	185	2
110	171	1
59	60	1
124	141	1
68	72	1
93	93	3
66	140	1
168	173	1
118	148	3
150	155	1
82	84	1
184	190	2
9	32	1
136	139	1
16	34	1
16	17	1
23	31	1
13	37	1
145	165	1
131	132	1
133	134	1
73	74	1
60	62	1
151	152	1
17	17	2
86	89	2
121	123	1
173	177	2
61	68	1
140	142	2
23	44	1
136	137	3
8	10	1
143	145	1
140	141	1
160	161	1
109	157	1
177	178	1
39	39	1
145	166	1
15	35	1
183	184	1
13	23	1
11	14	1
74	77	1
109	112	1
64	65	1
69	70	1
41	74	1
