139	139	20
12	12	15
81	81	2
91	111	1
125	125	7
120	120	3
7	8	4
12	13	4
101	101	6
46	46	7
75	75	2
18	51	3
127	127	11
36	36	3
0	6	2
7	7	4
43	68	5
6	20	1
43	43	16
13	24	2
120	158	3
116	116	3
35	35	5
134	134	2
45	51	1
79	79	5
20	20	7
113	119	13
85	138	4
103	103	3
107	107	15
104	104	6
67	67	11
112	112	4
131	141	3
66	66	2
91	91	6
86	86	2
69	70	3
144	144	5
140	140	10
57	62	2
6	6	2
8	48	1
39	39	1
145	157	1
87	87	4
77	77	10
105	105	5
158	158	5
133	133	5
92	113	1
1	2	6
67	68	6
26	27	1
1	5	1
150	151	1
147	158	4
23	34	5
116	158	4
146	146	3
38	51	1
143	143	2
136	136	10
157	157	5
36	57	1
126	127	2
50	50	4
117	117	5
50	51	2
95	95	9
71	71	8
18	18	4
23	23	6
104	105	1
53	53	1
129	130	2
80	80	9
152	152	3
146	148	2
5	5	7
62	62	1
115	119	1
15	24	2
24	25	6
22	22	2
9	9	11
44	44	4
28	28	4
118	119	3
83	83	3
14	14	3
90	105	2
78	79	4
152	153	1
26	36	3
126	130	2
9	16	1
117	146	2
25	25	4
148	148	4
153	155	6
114	114	2
68	70	3
29	29	1
6	12	2
73	88	1
82	95	3
94	94	3
119	119	2
155	156	5
109	109	4
46	49	2
33	35	2
91	105	2
15	15	1
153	154	2
141	141	2
85	110	1
0	4	3
113	113	2
83	84	1
135	135	2
131	133	2
46	55	1
13	13	1
136	158	1
132	133	2
113	116	1
0	0	4
156	156	2
93	93	10
41	71	1
50	72	2
63	68	1
147	147	3
30	30	9
151	157	2
70	71	1
146	147	2
107	112	1
45	45	2
40	46	1
41	97	3
65	91	2
48	84	1
82	82	3
48	49	1
51	52	2
76	76	3
70	70	4
88	88	9
19	19	6
106	116	1
16	110	1
40	40	8
142	142	2
123	124	3
10	26	3
92	92	2
37	37	1
96	96	6
72	72	3
11	11	5
15	98	1
38	38	1
24	24	2
94	122	3
98	98	2
26	26	4
54	97	2
6	11	1
65	65	5
129	129	2
130	130	5
118	118	3
132	142	1
132	132	2
16	51	3
116	117	1
8	11	2
62	63	1
11	18	2
18	20	1
70	87	5
76	78	1
102	102	2
29	30	4
84	93	3
81	82	3
137	146	1
99	99	4
114	158	1
49	50	2
88	120	1
125	126	2
149	149	2
42	42	1
71	95	2
93	97	1
97	97	4
21	22	1
46	54	3
14	32	2
113	114	1
107	158	1
4	4	2
82	83	1
150	150	2
0	8	1
27	27	1
142	146	1
10	11	1
27	48	1
105	128	2
18	50	1
148	149	2
32	33	1
34	39	1
48	82	2
51	54	1
132	146	1
8	9	1
124	124	4
145	145	3
152	157	1
123	123	3
36	49	1
100	101	1
66	69	1
100	100	2
68	69	2
15	21	2
23	25	1
126	126	1
8	8	2
47	52	2
124	125	1
111	111	4
85	85	1
1	1	2
51	97	1
39	40	1
23	27	2
65	82	1
37	38	1
84	91	1
72	97	1
113	143	1
2	2	1
2	24	1
50	52	1
112	119	1
139	157	1
91	125	2
93	95	1
114	153	1
106	106	1
6	7	1
34	34	4
143	148	1
131	131	1
41	41	1
12	44	1
136	137	2
111	112	1
39	44	1
94	125	1
