93	93	6
32	33	11
122	122	4
119	119	7
7	7	4
76	76	2
26	28	2
8	15	2
26	26	5
115	118	10
53	53	4
90	90	5
77	82	2
75	77	9
66	75	2
89	94	11
59	59	5
107	107	4
40	47	4
105	107	5
37	45	2
105	114	3
96	105	11
89	95	1
15	16	2
93	98	2
128	128	6
126	131	3
75	76	14
79	80	7
62	66	18
84	86	3
124	125	2
38	45	12
68	69	6
10	10	3
65	70	3
68	71	2
99	102	5
129	129	6
89	90	2
44	48	4
101	101	11
5	5	13
77	77	10
101	102	2
28	28	2
44	51	2
99	105	2
94	94	6
109	110	3
95	97	8
70	74	3
22	22	7
20	20	8
11	14	2
56	56	10
23	33	3
109	109	7
128	129	5
34	34	3
3	3	9
15	19	1
67	74	4
16	55	1
112	113	3
102	102	2
130	131	12
82	83	10
2	6	1
51	53	5
129	131	3
12	14	1
98	99	2
8	10	5
119	125	4
27	29	1
81	82	5
73	76	1
12	18	4
11	11	12
91	93	3
117	117	9
23	23	7
126	126	4
66	66	13
71	76	6
38	39	7
52	54	5
71	71	4
13	16	4
123	124	4
75	81	4
126	130	6
58	62	7
121	121	4
105	110	7
112	121	4
99	106	2
20	54	3
103	106	2
1	4	6
122	123	6
74	74	6
16	16	11
113	120	11
45	46	7
26	32	5
21	25	3
52	53	6
104	104	1
2	3	3
1	2	4
98	102	4
0	2	4
2	18	2
70	73	6
125	125	7
115	115	4
107	108	11
47	48	8
59	60	8
27	48	4
80	80	2
52	63	1
123	123	3
99	101	2
67	68	4
10	11	1
56	67	2
14	17	3
49	51	4
98	100	3
65	65	1
31	31	4
119	121	3
79	86	3
48	48	8
57	62	2
46	48	2
47	50	4
30	30	11
71	72	6
108	108	4
45	50	2
81	86	5
85	87	2
127	128	10
119	133	2
124	132	6
33	33	3
90	91	3
92	93	8
2	2	5
16	18	3
72	73	4
48	51	2
47	49	2
31	32	2
49	49	6
32	32	7
79	79	4
16	59	4
91	92	3
109	112	7
62	62	7
61	72	2
121	122	2
6	7	6
131	131	7
12	12	1
73	84	5
50	52	3
119	126	1
26	34	7
53	56	2
46	47	2
112	114	4
66	72	3
98	101	5
59	64	4
7	8	1
127	129	4
98	106	1
118	128	1
54	56	1
88	89	4
0	6	3
101	103	4
88	88	8
114	120	2
10	20	1
130	130	3
96	99	1
118	118	2
18	19	1
104	106	6
11	12	1
44	44	7
91	94	3
0	1	13
47	47	3
116	116	7
50	50	2
88	90	2
18	20	2
41	43	1
92	92	3
47	54	1
100	100	5
10	17	1
85	89	2
42	44	3
97	98	2
70	70	4
54	54	6
121	128	3
17	23	1
15	15	4
106	106	1
113	114	1
0	0	12
101	109	4
96	98	8
17	20	1
97	97	5
57	57	4
0	3	3
78	82	3
113	115	1
119	128	2
107	116	2
131	132	4
21	22	1
95	96	7
124	128	2
92	94	1
55	55	8
23	28	1
112	116	6
10	14	2
20	21	1
62	63	5
92	97	3
116	118	7
71	75	1
72	82	2
13	19	2
45	45	5
69	69	6
100	101	4
44	49	3
82	82	7
67	70	3
51	51	3
42	46	7
61	70	2
105	105	9
80	85	1
87	90	2
77	84	4
117	124	2
29	33	4
29	30	7
103	103	7
121	133	4
61	64	3
38	38	5
93	94	3
82	88	1
81	83	2
22	23	4
13	14	5
93	99	3
119	120	2
118	127	1
61	61	3
45	47	3
24	24	2
69	77	2
75	79	1
109	115	2
103	105	1
39	46	4
66	74	1
2	10	6
79	81	1
78	83	3
29	31	3
30	34	2
115	117	1
126	128	1
64	66	3
98	98	7
89	89	5
37	39	2
76	77	1
46	46	2
6	6	2
1	9	2
64	64	5
14	14	1
127	127	7
41	44	4
118	126	4
132	133	4
107	109	4
56	57	4
65	72	3
102	105	2
64	72	2
108	109	1
107	112	5
125	126	6
49	57	1
33	34	2
39	39	4
0	4	2
92	96	1
26	30	1
92	101	1
123	126	4
129	130	3
10	12	2
67	72	2
94	100	6
103	107	2
119	132	4
60	61	4
24	30	5
86	93	1
114	114	3
67	75	3
45	48	4
81	87	1
111	111	2
55	56	1
96	96	6
95	95	5
127	133	4
58	58	3
104	110	4
91	91	5
102	108	2
3	5	3
59	62	2
75	75	1
85	85	6
99	100	4
109	121	1
89	93	2
25	31	1
101	105	4
113	116	3
54	59	1
42	42	2
81	81	1
94	95	1
106	112	4
74	76	1
58	60	2
84	91	1
40	42	2
67	73	1
9	15	1
1	6	3
106	108	2
62	64	1
52	52	8
120	122	1
32	34	2
60	60	4
20	25	1
97	100	2
99	99	6
5	13	3
19	19	3
64	70	1
86	89	2
25	27	2
17	27	2
25	28	3
130	133	1
132	132	1
106	107	2
5	7	2
41	41	4
93	95	2
10	16	1
23	31	1
8	16	1
97	102	2
79	82	2
43	43	4
111	113	2
124	124	1
64	65	1
51	55	1
63	64	2
30	32	2
108	114	4
92	108	1
123	130	2
44	45	2
127	131	2
87	106	1
120	125	1
115	121	1
30	33	1
80	83	2
82	91	1
40	41	3
72	74	2
63	69	1
118	125	2
120	123	1
13	18	1
83	83	2
72	76	4
68	70	1
102	103	3
4	13	1
94	96	1
107	113	1
70	71	3
112	119	1
110	110	1
97	114	1
56	62	1
3	11	1
53	58	2
115	116	1
68	68	2
49	52	2
18	24	1
124	133	1
103	104	1
46	54	1
86	86	1
125	131	1
92	98	2
5	11	3
39	40	2
74	75	3
41	42	1
9	9	1
75	80	3
100	106	1
78	85	1
101	106	1
78	78	1
75	82	2
104	107	5
111	112	2
116	125	3
97	104	1
43	44	1
111	117	1
9	16	1
60	62	3
33	42	1
62	69	1
112	112	3
12	13	3
28	31	3
62	65	1
62	68	2
13	13	1
11	18	1
19	20	1
53	59	2
87	94	1
10	56	1
89	103	1
74	93	1
124	127	1
73	78	3
111	116	1
71	79	1
4	6	1
128	130	1
60	65	2
66	73	1
44	47	1
2	9	1
23	30	1
60	63	2
39	55	1
40	46	1
21	21	2
76	83	1
95	98	1
95	100	1
16	17	2
96	104	1
88	99	1
110	112	1
123	129	1
48	52	1
59	61	2
29	29	1
51	56	1
17	19	3
98	103	1
47	61	1
80	88	1
17	18	1
105	106	2
50	64	1
49	56	1
114	118	1
58	59	1
87	88	1
42	47	1
77	79	1
56	59	1
19	23	1
69	70	1
133	133	1
60	67	1
113	113	1
109	120	1
85	93	1
88	101	1
84	88	1
89	102	2
54	55	1
