120	120	3
134	134	15
84	154	3
36	36	8
34	34	11
162	165	2
55	55	6
96	97	3
82	83	5
132	132	15
99	114	2
157	157	4
136	136	14
111	116	3
97	97	6
130	130	7
116	117	1
1	1	5
58	58	1
88	88	3
144	144	14
28	28	5
146	146	16
42	42	15
5	5	5
163	163	13
14	14	13
66	67	1
155	156	2
19	19	12
25	25	4
42	43	3
26	26	7
93	93	9
0	37	2
135	135	4
1	3	1
130	131	6
24	47	7
24	26	4
162	162	8
15	15	12
74	124	3
62	125	2
145	145	5
150	150	14
139	139	12
97	99	4
99	99	10
104	143	3
68	68	3
49	49	3
16	16	10
152	152	14
143	143	5
77	77	6
38	38	9
82	82	7
83	146	1
133	133	1
53	53	5
125	162	4
6	7	7
57	57	4
133	137	4
118	118	13
66	66	4
148	149	3
139	149	4
131	131	8
65	66	7
98	99	4
61	74	2
79	130	2
45	45	8
46	46	6
124	124	6
63	63	1
71	71	6
80	80	9
156	158	1
112	112	4
7	8	8
40	41	6
111	111	9
74	74	11
141	141	12
63	96	1
94	94	2
156	156	10
4	7	5
145	146	4
22	55	5
48	48	5
6	6	3
0	2	6
127	127	1
148	148	10
95	95	10
63	64	2
104	104	4
22	46	2
147	147	7
79	79	4
11	11	13
138	138	5
21	22	2
83	83	7
28	38	2
100	100	5
65	90	4
74	90	1
109	109	13
113	113	7
103	116	1
110	110	7
71	135	4
74	75	3
21	21	5
64	64	11
91	91	8
134	135	3
91	95	2
117	118	5
128	128	5
103	103	11
107	107	9
7	7	10
56	56	5
150	170	3
67	68	4
83	84	3
78	79	1
166	166	5
143	148	3
16	96	2
101	103	1
96	96	3
116	116	9
167	167	6
114	115	6
93	94	5
121	156	5
85	85	10
140	140	13
1	2	4
24	123	2
13	13	10
84	84	4
90	91	2
14	15	11
17	18	6
43	43	7
98	98	5
47	49	9
117	117	2
54	54	7
122	154	4
158	159	2
110	118	1
142	143	1
154	154	3
64	97	6
162	163	2
3	3	3
16	17	1
52	52	7
129	151	4
169	169	3
157	160	4
72	72	6
26	27	2
65	65	3
127	128	1
79	132	3
9	10	1
87	88	5
69	70	4
153	154	3
115	115	2
82	116	2
22	22	5
23	23	1
25	26	3
62	63	5
47	47	5
110	111	2
37	37	10
69	126	2
126	127	2
50	52	1
73	135	2
119	119	5
56	58	4
164	165	6
4	4	6
18	18	7
2	3	3
141	149	1
37	38	3
17	17	9
14	17	4
81	81	13
86	156	2
122	122	8
151	151	6
108	108	11
79	80	4
18	27	1
67	67	5
142	142	3
10	10	6
15	16	2
165	165	2
105	112	3
90	90	3
167	169	1
99	106	1
39	40	3
57	67	1
139	140	3
81	82	1
153	153	1
47	54	4
136	137	2
73	73	5
126	126	5
154	157	1
161	161	3
13	15	2
90	92	1
22	23	1
132	138	2
18	19	2
83	141	2
18	98	2
89	89	3
9	12	4
125	125	6
76	76	3
125	127	4
40	40	7
158	158	6
105	106	2
72	73	1
3	4	2
43	47	1
35	35	6
2	2	6
103	104	4
102	102	3
132	133	6
17	97	4
143	151	3
85	86	4
99	110	3
89	90	1
123	123	3
159	161	2
47	48	4
57	74	5
166	167	2
39	39	5
6	12	2
8	8	6
41	41	2
143	144	2
52	53	6
111	112	1
84	85	5
21	57	1
121	153	1
33	33	6
120	156	2
20	20	1
81	153	3
86	86	10
164	164	5
100	133	3
151	167	1
51	51	2
82	84	3
44	44	1
53	54	5
63	127	2
44	45	4
159	160	5
90	103	1
57	87	3
61	86	4
17	137	3
169	170	1
18	20	2
9	9	4
97	100	3
27	27	3
50	51	1
100	101	3
78	78	2
161	164	1
118	119	1
160	160	4
27	28	5
101	102	3
101	113	2
55	56	1
51	52	3
137	137	11
18	58	2
123	128	2
10	11	1
101	101	3
11	37	1
162	164	5
133	135	2
69	69	3
165	167	5
0	0	4
64	133	1
154	169	1
56	57	1
33	34	1
83	147	1
135	136	2
106	106	2
5	19	1
48	49	6
12	54	3
39	41	1
143	147	1
161	162	1
70	70	2
99	133	1
150	151	2
12	93	2
109	110	1
139	141	4
149	149	1
73	134	3
129	150	1
40	49	1
0	1	1
149	151	1
8	9	1
123	124	1
72	135	1
97	128	1
77	131	2
85	87	2
105	149	2
87	89	1
168	168	1
88	89	1
74	125	1
81	83	2
133	139	1
69	71	2
36	37	1
167	168	1
64	101	1
67	129	1
135	140	2
147	149	1
97	106	2
24	24	2
80	113	1
151	170	1
140	141	2
115	116	1
148	154	1
83	142	2
129	129	2
87	87	1
35	40	2
17	70	1
74	118	2
150	152	1
84	141	1
146	147	1
151	152	3
119	123	1
77	118	1
139	142	1
154	155	1
168	169	2
129	130	1
26	90	1
36	42	1
149	150	1
152	153	1
41	52	1
10	27	1
161	165	1
77	78	1
170	170	1
155	158	2
18	28	1
45	49	1
133	136	1
132	134	1
100	112	1
