45	45	9
71	71	5
13	15	4
47	48	7
26	26	4
80	80	6
10	11	2
14	22	5
11	13	3
31	67	4
34	34	20
35	35	10
48	48	10
25	25	6
36	36	3
2	4	3
66	66	8
67	67	34
39	39	16
48	73	2
52	53	4
54	54	11
49	49	10
51	51	17
15	16	2
12	12	21
69	69	15
16	16	13
10	12	4
15	15	4
76	76	12
1	2	9
60	60	16
30	35	2
37	37	12
8	9	3
56	56	7
0	0	9
6	6	14
73	75	1
46	46	10
7	74	2
46	47	3
58	58	17
64	64	16
67	68	6
70	70	15
63	64	9
29	29	11
9	9	10
42	45	6
8	8	25
32	51	1
11	11	9
66	67	3
39	49	2
19	20	6
78	78	13
59	67	2
75	75	22
54	63	3
42	42	12
47	47	11
14	15	1
68	70	2
27	27	15
2	2	13
13	13	9
61	61	5
38	38	11
51	52	3
59	59	3
29	31	6
11	12	7
17	18	2
19	62	1
8	19	3
39	48	1
79	79	7
3	3	10
28	28	4
5	5	13
74	75	3
32	33	2
55	55	3
14	14	6
33	36	4
42	43	5
55	58	1
13	14	4
77	77	4
34	35	8
73	73	16
61	71	2
27	28	1
33	33	3
48	49	2
31	33	1
52	52	8
50	69	2
57	57	8
40	41	4
12	15	5
31	32	3
40	40	5
4	6	2
74	80	5
62	63	1
33	34	5
50	51	2
42	63	1
4	4	9
6	7	4
9	20	2
52	70	2
21	25	3
31	31	11
32	32	7
73	74	3
49	50	1
64	65	10
19	19	7
11	54	1
68	68	7
36	71	3
12	55	2
53	53	10
63	63	6
45	48	2
35	43	2
79	80	2
7	7	7
11	15	1
39	40	1
11	22	3
32	34	1
1	1	3
50	50	6
54	55	5
5	6	2
18	18	4
30	30	3
64	66	1
37	38	1
32	40	1
32	36	2
14	16	1
71	72	4
17	17	9
3	4	1
25	26	3
58	59	2
33	39	1
30	31	6
67	71	2
19	50	1
64	67	5
30	58	1
29	49	2
60	74	1
10	10	3
41	41	4
74	74	8
65	65	11
27	34	3
0	2	1
77	79	1
19	53	1
50	68	3
44	44	1
75	80	4
43	63	1
20	60	1
73	80	3
80	81	1
53	54	2
43	43	1
57	58	1
59	60	2
45	47	3
69	70	2
4	5	2
72	72	7
20	20	1
30	61	1
18	19	2
46	48	1
10	25	3
61	65	1
10	64	2
13	51	1
21	22	1
9	26	2
54	65	1
2	3	2
30	34	3
16	17	2
11	21	2
52	58	1
3	7	1
20	21	1
65	72	1
42	46	1
13	25	3
55	56	1
12	14	1
21	21	1
56	57	1
1	3	1
45	46	1
12	68	1
68	69	1
29	33	1
42	47	1
49	67	2
62	62	2
60	63	1
34	40	1
29	30	1
32	69	1
60	72	1
62	76	1
15	17	2
26	29	1
74	76	2
27	42	1
12	16	1
