18	44	2
52	52	11
142	142	12
122	122	11
152	152	18
87	87	10
39	40	8
149	149	11
92	92	16
56	57	9
159	159	12
167	168	5
71	71	28
1	2	4
2	2	17
99	99	12
85	85	18
145	146	5
170	171	7
58	59	9
51	67	3
81	81	9
84	85	3
33	33	22
117	118	6
38	40	2
24	26	6
35	35	16
144	146	2
37	37	14
16	16	15
18	67	1
157	157	13
72	72	20
14	15	11
159	160	7
161	161	17
8	8	18
135	144	1
0	0	15
140	140	22
62	62	10
59	59	14
115	116	9
132	132	17
110	117	1
128	129	2
99	109	8
114	114	18
50	57	8
53	54	12
120	120	12
119	119	11
26	33	3
90	169	2
9	9	22
12	13	7
110	110	16
159	172	3
30	30	10
41	41	27
23	23	21
66	66	9
153	158	2
158	158	17
65	65	21
1	1	11
139	139	27
13	13	15
155	158	7
3	3	12
145	145	11
56	103	1
97	97	9
105	105	13
97	98	9
119	120	9
117	117	13
116	122	2
138	139	3
94	94	13
147	147	25
5	5	24
131	131	13
83	84	11
111	127	5
121	122	2
156	156	20
78	78	13
123	123	8
76	77	4
175	176	3
125	126	2
54	54	13
27	27	22
173	173	21
40	41	1
154	154	15
153	153	14
156	157	4
122	126	3
71	82	6
66	67	17
113	113	7
90	92	4
68	132	1
17	60	1
124	124	10
170	170	14
43	44	8
63	63	7
15	15	7
71	80	2
52	53	5
155	156	6
87	89	2
93	93	13
104	104	8
90	90	3
150	151	4
70	72	1
108	108	26
95	95	7
129	130	1
44	44	8
12	12	21
150	150	21
88	88	10
118	118	12
146	146	23
135	136	14
103	103	19
79	80	4
121	121	7
83	83	10
116	116	12
5	7	4
57	57	11
77	77	8
32	32	14
22	22	11
168	169	13
171	171	20
178	179	5
112	112	10
76	76	7
176	176	18
144	145	1
55	55	10
122	127	4
72	77	2
30	31	9
152	153	11
140	180	2
89	122	3
4	24	1
98	106	2
60	60	5
40	40	9
63	64	2
70	70	1
17	17	17
6	11	8
88	89	5
61	180	3
154	155	6
160	161	3
144	144	7
60	61	9
53	53	20
31	31	25
174	174	23
44	54	2
51	51	12
74	76	2
20	20	13
128	128	6
163	163	7
115	115	18
67	67	13
82	84	1
56	56	15
89	89	8
45	45	10
42	43	1
39	39	20
72	103	4
172	172	27
28	28	12
50	50	6
14	86	4
109	109	5
89	90	6
80	82	3
76	112	3
155	155	11
72	73	6
68	68	20
41	123	2
8	9	7
50	51	7
74	74	14
79	79	13
107	107	8
102	102	12
178	178	24
34	34	6
19	19	13
59	61	4
164	164	11
105	106	7
127	128	9
36	36	16
168	168	12
7	10	4
180	180	11
4	4	17
161	162	2
73	74	7
126	126	24
24	24	4
136	136	5
38	38	18
0	1	3
42	42	15
52	57	2
143	143	11
75	75	12
167	167	12
58	84	1
92	94	13
26	26	19
26	27	7
73	73	23
172	173	7
86	129	3
18	18	5
13	57	2
115	118	2
114	130	3
98	98	12
125	125	14
129	129	11
91	91	18
106	106	10
118	119	5
159	163	3
21	22	6
37	38	2
55	56	3
135	180	3
169	169	21
166	166	14
80	81	5
76	88	2
144	152	7
71	78	2
17	61	3
43	43	13
148	148	11
49	51	1
5	6	10
94	95	13
29	29	6
28	29	1
138	138	21
75	132	1
119	125	2
179	179	7
64	66	6
35	36	2
57	102	3
96	96	4
41	43	9
75	76	5
96	163	4
179	180	1
100	100	5
44	45	3
30	67	5
106	108	2
138	169	1
119	122	4
80	86	4
91	93	1
142	143	5
64	64	17
177	177	4
93	170	2
84	84	7
86	87	4
79	129	5
136	139	2
60	62	1
157	158	15
162	162	16
86	97	6
18	19	4
15	16	8
134	174	1
29	30	2
2	3	4
20	21	4
61	61	10
68	178	2
17	18	4
71	72	4
14	57	5
24	25	6
127	127	13
90	98	1
135	135	11
75	111	2
101	102	3
7	42	1
12	21	2
108	109	2
13	21	1
58	58	9
175	175	7
151	151	6
99	100	4
170	172	4
123	124	4
137	137	7
123	126	3
10	10	14
21	21	5
130	130	5
15	57	3
143	145	5
11	11	7
133	133	16
121	123	5
110	111	9
173	174	5
13	14	7
149	150	3
70	71	3
59	85	1
25	25	7
14	18	2
166	167	1
68	80	2
165	165	15
114	115	3
96	119	3
55	102	1
134	135	3
58	82	2
124	126	2
24	29	2
6	6	13
141	141	8
59	60	3
6	7	2
161	167	1
82	83	4
78	80	4
14	14	13
27	131	2
21	24	4
10	11	4
57	58	6
148	149	3
111	111	5
77	80	1
165	166	7
78	79	4
59	63	1
101	101	10
67	133	2
31	32	3
96	97	4
91	92	4
98	99	3
18	134	2
100	101	3
86	86	8
158	159	2
55	59	5
77	78	1
86	96	1
4	5	8
18	20	1
159	180	1
129	165	2
62	63	1
133	139	2
76	80	1
81	129	2
3	6	1
62	102	4
134	139	3
174	176	7
121	124	2
19	20	2
95	170	2
162	170	2
93	171	3
164	166	3
7	7	4
51	53	2
111	115	1
71	109	1
61	83	2
90	91	3
104	127	1
145	147	3
134	172	5
134	173	1
92	104	2
3	4	2
111	113	1
58	61	3
22	23	3
104	105	2
36	37	5
113	114	1
6	17	1
137	138	2
36	41	3
114	124	1
77	115	1
110	113	1
143	144	4
120	121	5
78	114	2
73	77	2
39	42	1
171	172	3
70	73	2
72	108	1
37	39	1
107	169	1
100	109	4
82	82	10
87	116	2
82	86	1
32	33	3
136	137	1
118	121	1
112	132	3
82	85	2
78	160	1
68	73	2
116	117	1
145	148	3
104	119	3
146	148	2
140	141	1
52	54	2
20	22	1
97	116	1
147	148	7
15	18	1
7	9	1
60	80	3
125	129	2
164	165	2
116	131	2
95	164	2
130	137	2
137	177	1
174	175	2
124	125	1
111	112	2
23	24	1
155	162	1
134	134	3
27	30	3
159	161	1
60	68	1
15	82	2
80	87	1
153	180	1
165	167	1
110	114	3
126	127	3
139	140	1
55	61	1
81	82	1
52	83	2
80	80	4
33	34	2
88	121	1
92	93	1
23	50	2
54	55	2
136	170	1
72	132	1
63	67	2
51	52	2
38	41	1
92	106	2
122	123	1
136	140	1
101	109	1
111	150	1
16	133	2
79	121	1
96	118	3
101	104	2
116	136	1
132	133	1
93	103	2
130	131	1
117	157	1
103	108	2
80	128	1
41	42	1
161	163	1
102	103	1
13	17	1
113	131	2
103	105	1
34	35	1
14	85	1
89	125	1
97	109	1
153	154	1
11	57	1
162	164	1
11	15	3
97	118	1
15	85	1
107	108	1
114	116	1
22	24	1
169	170	1
119	121	1
111	158	1
82	101	1
133	167	1
177	178	1
102	104	2
160	160	1
156	158	1
5	11	1
161	166	1
61	64	1
145	151	1
11	17	1
51	62	1
62	67	1
13	49	1
135	140	1
131	149	1
