7	9	4
28	28	6
101	111	5
113	113	6
11	60	3
20	20	3
84	87	5
60	62	3
95	95	4
131	131	5
125	125	6
12	15	3
90	90	11
125	127	2
69	69	9
34	35	1
87	87	8
119	120	8
77	77	6
118	118	4
4	4	3
80	81	6
63	63	5
9	9	6
10	10	7
127	127	5
0	0	5
121	122	5
94	96	5
85	89	3
16	16	3
122	122	6
114	114	3
94	94	10
81	108	2
106	106	7
83	110	7
25	59	4
79	79	5
75	76	2
80	80	6
16	17	2
83	83	13
62	62	2
11	62	1
5	5	12
64	64	7
99	99	8
0	103	1
71	71	6
126	126	16
31	73	3
15	21	4
65	96	4
26	27	4
31	32	2
129	129	2
18	18	6
115	115	3
113	133	2
30	30	7
111	112	2
62	130	4
36	36	8
57	57	2
93	94	1
105	105	5
8	8	3
20	21	3
24	24	1
68	68	2
60	60	5
65	65	2
132	132	8
130	132	1
13	14	4
110	132	3
56	57	3
106	113	3
98	98	3
11	11	9
114	135	1
7	10	2
26	34	2
89	126	1
110	112	4
110	111	1
85	109	3
17	17	2
21	23	5
19	20	3
100	100	5
116	116	11
88	88	4
35	35	4
70	70	1
113	129	5
26	28	7
73	73	2
26	26	2
53	63	8
5	10	3
28	29	1
49	50	9
72	72	3
123	124	1
103	127	2
33	33	9
109	109	5
107	107	5
124	125	3
6	6	2
43	62	2
14	14	4
91	92	3
74	74	2
12	12	9
53	53	4
49	49	2
44	44	4
120	121	5
6	7	5
84	84	4
57	60	2
52	52	5
33	78	1
55	55	5
24	25	3
114	115	2
17	18	4
35	51	1
120	120	4
3	5	2
29	29	4
75	75	2
78	78	7
96	96	4
14	15	6
31	31	6
22	25	1
27	27	2
71	72	3
96	97	3
100	121	1
5	102	2
103	103	3
54	57	3
104	104	3
130	130	9
77	78	2
56	56	3
1	102	1
3	4	2
91	91	4
10	11	1
123	123	2
111	111	2
6	11	1
99	109	4
133	133	2
30	32	1
92	93	1
15	15	5
36	64	1
122	123	2
22	22	2
111	113	3
121	121	2
82	82	2
21	46	2
123	126	1
123	134	1
12	133	2
25	25	1
55	61	2
102	126	1
43	45	3
113	130	1
66	66	3
84	108	3
70	93	1
19	19	2
61	61	4
101	102	5
50	50	3
124	124	2
7	7	2
73	74	1
1	2	1
87	88	1
33	34	1
97	98	1
32	104	3
61	63	1
23	24	2
83	108	2
29	31	2
54	54	2
76	78	1
117	117	4
79	81	1
134	134	2
97	97	2
101	101	3
99	100	2
79	80	1
44	130	1
13	29	2
67	78	1
114	134	1
16	23	2
110	129	1
80	82	1
27	28	1
112	113	2
94	95	1
59	59	1
76	76	2
34	34	1
45	45	1
110	110	2
16	20	1
126	127	1
86	86	7
84	109	1
81	81	2
18	21	1
3	3	1
2	5	1
1	107	1
82	85	1
21	24	2
78	86	1
64	88	1
102	102	1
13	13	1
98	99	1
