59	75	4
25	25	7
74	75	4
178	178	9
54	55	1
89	89	4
86	114	2
175	175	8
116	116	4
210	210	7
190	190	13
167	220	2
191	191	7
84	95	5
100	100	2
36	36	1
20	20	4
95	96	7
14	14	14
58	76	5
21	21	5
112	112	7
120	120	3
12	12	7
232	233	1
109	109	11
44	44	4
77	77	3
149	149	1
214	215	7
86	86	5
167	234	4
37	37	5
236	236	6
167	222	2
92	92	6
197	197	7
29	35	2
90	91	12
216	234	1
224	225	3
170	217	2
189	189	3
175	241	1
12	15	1
154	154	4
76	76	11
104	107	4
189	190	6
235	246	3
216	216	7
41	41	3
74	74	1
42	43	4
160	160	5
10	10	1
42	42	4
209	211	2
2	2	7
118	118	5
234	234	3
147	147	10
207	208	1
9	9	7
49	49	9
32	32	4
242	242	5
241	242	6
62	66	2
211	230	4
164	165	7
82	83	3
60	60	1
207	207	7
198	199	2
62	62	5
11	92	5
99	107	4
4	5	6
224	234	2
247	248	3
83	85	2
240	240	6
106	109	3
43	45	2
57	108	2
227	227	5
204	204	4
224	224	8
161	162	3
202	202	7
98	98	6
31	32	5
106	106	2
173	173	8
51	51	3
247	247	6
15	15	4
99	99	8
114	201	1
162	162	6
60	77	7
54	72	4
45	45	10
187	189	9
177	177	4
225	226	7
19	19	3
175	183	1
193	195	1
231	232	1
93	93	5
73	73	1
159	160	2
153	153	3
226	230	3
19	20	4
203	212	2
102	102	8
6	6	7
242	243	6
58	60	1
213	213	2
1	1	2
145	145	7
87	202	1
95	101	3
26	26	12
117	117	11
194	194	1
224	235	3
238	243	2
209	215	4
178	190	1
54	54	4
225	225	5
51	112	4
238	238	9
210	211	2
177	178	2
30	31	3
38	43	3
92	115	1
155	155	10
114	114	5
10	26	4
65	66	1
245	245	2
82	82	1
101	101	13
70	80	5
68	80	3
180	180	3
40	40	1
182	182	3
201	202	5
12	118	2
223	223	2
54	79	1
46	46	8
16	21	3
246	246	5
173	231	6
146	147	2
222	222	1
165	165	4
107	107	4
68	70	2
18	18	11
184	184	3
56	56	5
75	75	3
54	63	6
169	171	3
95	95	2
17	17	3
218	218	3
23	23	4
156	156	5
146	146	7
209	209	10
208	208	8
98	99	2
198	198	9
61	61	1
220	220	7
97	98	3
229	231	5
59	60	3
214	240	3
17	201	6
151	151	4
217	218	3
188	188	5
242	244	5
85	112	1
192	192	5
59	66	4
33	36	2
79	111	3
0	1	2
157	157	6
233	247	1
42	50	2
201	201	7
95	97	7
178	179	4
45	46	2
211	211	4
48	112	2
238	245	5
172	172	5
172	232	4
116	117	1
76	105	2
13	14	3
231	236	4
206	206	3
53	53	2
31	50	5
25	37	4
154	155	7
117	119	7
230	230	1
145	241	5
88	88	1
221	222	2
85	85	2
4	4	4
168	223	1
223	224	2
81	81	6
179	183	1
38	39	2
38	50	1
68	79	1
162	163	3
22	92	3
56	67	3
186	192	2
171	171	7
27	27	4
173	174	2
75	76	5
111	111	3
150	155	3
118	119	2
44	45	4
89	93	4
38	38	5
48	48	3
235	235	2
28	28	4
16	26	3
59	59	4
91	91	6
56	110	3
119	145	1
239	240	1
226	237	2
203	205	7
43	43	5
182	244	2
237	240	1
159	159	4
186	186	6
104	105	2
212	213	5
9	117	3
248	248	2
38	41	1
23	36	3
58	75	1
193	193	2
214	214	2
217	222	2
104	104	4
61	105	1
167	167	4
240	241	4
223	249	1
8	9	2
171	247	3
239	244	1
101	107	5
66	67	1
58	64	2
223	247	1
32	37	1
29	38	4
187	187	4
119	119	3
176	245	1
74	104	1
158	160	2
181	181	2
22	22	3
90	90	2
63	67	3
158	158	6
168	168	1
191	212	4
31	42	3
63	104	2
66	66	2
203	243	2
218	220	3
74	78	2
228	231	3
236	248	3
33	33	1
112	113	1
30	56	1
230	237	3
83	176	4
30	30	1
219	219	3
83	91	1
204	205	2
35	35	3
72	72	3
8	8	2
34	34	9
67	67	3
54	73	1
211	214	1
170	170	3
77	78	1
179	179	4
215	247	5
100	101	3
199	199	3
111	112	2
192	195	2
103	103	3
212	212	2
113	237	1
209	210	1
70	70	3
196	196	2
47	47	2
73	74	3
73	103	2
195	198	2
16	88	4
203	244	2
91	93	1
109	110	1
52	56	1
210	214	1
64	64	2
55	76	2
105	105	2
93	94	2
69	69	1
71	71	1
36	50	1
60	108	2
200	200	1
39	39	1
24	24	2
173	232	1
17	18	1
201	243	1
55	55	4
50	51	2
11	115	1
54	71	2
235	244	1
222	223	2
180	181	2
41	42	2
195	195	7
87	88	3
15	201	1
30	35	2
31	56	3
72	76	2
166	177	2
96	102	1
191	195	1
82	113	1
233	233	1
14	37	2
221	221	4
7	7	1
206	207	1
87	113	2
193	204	1
105	106	1
80	121	1
168	169	1
157	163	1
89	113	1
230	240	1
68	68	1
174	174	3
217	217	1
231	237	1
78	78	2
59	78	1
65	65	1
83	114	1
22	27	1
180	182	1
163	163	1
25	92	1
57	58	1
67	110	1
183	183	1
186	187	1
11	11	1
215	223	1
68	102	1
207	214	2
49	245	1
17	202	1
50	50	1
204	213	1
232	232	1
178	205	1
113	113	1
240	244	1
79	80	2
52	52	1
211	212	1
175	238	1
29	30	1
