62	62	32
0	2	9
72	72	46
130	130	19
86	87	14
43	46	1
16	20	3
3	4	13
51	51	18
53	53	41
60	62	3
129	129	25
45	46	4
126	128	7
83	83	35
124	125	9
7	7	13
29	29	36
110	120	4
131	132	26
26	27	12
119	119	12
25	25	31
119	120	7
45	45	27
73	73	21
11	11	54
84	84	38
23	26	7
107	107	23
87	87	19
4	4	37
10	10	28
42	44	10
11	12	11
22	23	8
61	61	20
106	106	25
27	27	26
3	125	5
109	112	8
109	109	34
68	69	19
46	46	35
74	99	1
71	71	56
108	118	6
111	111	55
5	20	2
116	116	32
65	65	20
32	33	8
1	3	2
40	41	14
89	90	6
21	21	19
44	44	30
0	57	1
29	90	2
97	99	1
112	112	32
125	131	8
1	28	6
30	30	46
78	78	38
125	125	36
32	47	3
117	117	30
66	67	4
48	49	13
5	5	27
77	77	40
114	114	62
108	108	19
42	112	4
115	116	13
100	101	22
92	93	13
97	98	20
20	20	20
123	131	4
76	76	40
16	16	29
29	30	13
63	63	43
128	130	5
101	101	21
5	21	5
81	81	46
92	92	53
110	110	30
104	104	30
19	19	35
88	88	36
62	92	6
84	85	30
43	65	1
57	57	26
43	112	2
101	102	6
34	34	13
80	80	13
44	45	9
24	24	47
113	114	15
18	82	1
91	94	1
26	26	28
98	98	28
2	2	41
100	100	39
105	105	24
4	5	11
53	54	5
43	43	32
104	105	16
96	96	22
58	64	2
0	3	4
0	1	12
70	71	2
32	32	33
132	133	6
3	3	23
13	18	5
115	117	3
97	97	37
90	90	29
86	86	30
13	13	14
93	93	16
20	71	2
42	42	28
41	41	17
56	57	7
82	84	9
80	82	3
128	128	19
10	12	3
31	31	29
114	115	5
60	60	17
79	79	28
23	24	15
126	126	21
55	55	33
39	42	3
31	32	21
94	96	5
22	22	13
33	38	1
14	14	25
42	43	15
21	22	8
59	59	7
46	47	11
17	17	30
4	54	2
94	94	74
85	85	17
123	123	21
20	21	10
45	65	4
54	54	17
61	62	8
74	74	7
39	85	3
118	119	14
131	131	28
90	91	8
50	50	33
48	48	36
95	105	4
113	116	1
127	127	25
33	33	25
121	121	17
49	94	1
83	85	13
82	82	35
68	70	2
70	131	3
16	18	4
22	24	2
88	96	3
52	52	39
6	133	3
105	106	15
1	1	31
45	67	3
51	52	4
91	91	31
120	120	23
33	113	4
99	103	3
47	48	8
29	31	5
69	120	3
95	95	23
71	74	6
59	93	2
64	64	50
9	9	21
102	102	30
6	23	3
45	66	4
93	98	3
89	89	35
113	113	35
70	70	26
2	32	3
71	72	7
49	49	45
108	119	7
21	24	3
10	11	4
108	129	2
118	118	15
103	103	24
39	40	18
69	69	14
4	6	9
9	10	14
23	23	23
33	39	6
91	99	5
25	28	3
40	40	32
15	15	19
43	45	2
41	42	15
28	29	6
6	6	41
50	51	11
96	97	5
19	57	1
107	111	2
60	66	2
29	89	3
15	17	4
88	92	3
62	64	3
79	80	15
56	56	26
112	113	8
71	78	5
42	113	5
74	117	3
112	114	3
81	82	12
0	5	3
74	75	1
103	127	6
113	117	3
3	6	4
67	68	8
85	88	6
34	62	1
130	131	7
47	47	15
0	0	30
7	14	3
45	47	3
18	18	25
78	95	1
93	94	16
25	27	5
70	102	3
8	8	14
12	29	3
18	19	7
132	132	19
43	104	6
60	63	2
6	125	2
58	58	15
72	104	6
66	66	23
21	63	3
9	22	3
13	15	8
76	118	4
59	60	5
12	12	20
4	7	7
39	39	15
80	127	1
76	77	10
120	121	2
38	39	11
28	28	31
27	30	2
99	99	17
73	88	5
98	117	1
16	69	1
58	61	4
17	18	8
115	115	16
91	103	4
124	124	33
117	118	9
27	28	18
32	39	2
40	43	4
126	127	3
66	75	1
4	55	3
128	129	7
8	10	5
70	126	1
87	88	12
110	125	3
95	110	1
67	67	20
58	93	3
68	68	19
28	47	3
61	99	3
27	50	5
111	112	11
129	130	3
47	80	4
7	10	6
0	27	5
127	128	2
122	122	17
116	117	9
54	114	2
70	75	1
13	14	11
63	104	3
102	113	2
79	112	4
38	38	13
115	118	1
64	65	7
80	128	1
113	121	1
99	104	5
87	97	7
75	75	24
32	40	2
76	125	1
81	84	3
15	18	7
3	32	2
43	44	8
102	103	7
64	73	2
98	100	9
55	56	4
126	130	5
66	71	2
17	20	3
108	110	2
78	86	3
47	60	3
1	2	9
116	128	1
19	20	7
76	131	2
8	52	4
88	89	8
33	34	11
96	98	2
5	34	2
44	47	2
58	60	3
98	99	3
69	75	2
2	31	1
71	127	2
106	107	13
107	108	3
65	72	1
90	102	2
76	80	2
25	26	6
2	3	4
0	54	3
21	61	3
27	31	5
72	80	2
72	77	6
24	41	3
8	9	11
70	74	2
19	51	1
12	13	4
67	129	3
62	93	2
55	62	2
74	100	3
91	96	3
65	66	6
32	79	2
78	80	4
63	64	10
95	97	3
102	104	2
69	70	11
106	113	3
33	40	3
2	112	4
85	91	3
104	117	7
127	129	3
64	102	1
6	7	5
83	84	20
26	28	5
80	85	3
16	17	11
80	89	1
5	22	1
102	127	2
52	54	1
45	48	2
86	88	4
14	15	6
100	103	5
41	85	3
30	33	3
8	53	1
103	126	2
4	53	2
22	26	2
95	96	24
46	60	1
51	53	6
110	121	4
55	127	2
18	56	3
67	126	1
14	16	2
59	67	4
3	49	1
104	114	1
75	76	9
74	77	6
125	130	2
72	73	5
21	58	2
49	112	2
103	119	1
82	83	6
119	121	4
5	55	1
115	120	8
70	78	1
114	117	2
112	116	1
116	118	1
80	81	5
63	65	2
52	53	12
81	97	3
103	130	7
28	30	1
94	95	7
12	19	1
30	31	4
73	75	5
109	111	3
114	121	3
7	8	2
75	102	5
100	104	4
62	63	3
126	129	3
92	94	4
60	61	7
7	9	2
60	65	2
88	94	4
89	94	2
85	86	1
0	52	2
3	114	2
25	29	3
100	102	1
24	25	14
78	79	16
41	59	2
83	92	3
82	89	3
28	48	1
44	71	5
37	39	2
74	89	2
45	81	2
122	124	1
73	79	1
104	106	2
72	86	1
73	81	1
47	55	1
72	93	1
103	129	1
77	78	7
19	25	1
55	115	8
63	103	2
12	88	2
7	130	2
41	45	2
68	118	1
56	111	5
102	107	3
48	80	1
30	86	2
53	95	1
109	117	4
23	25	2
30	83	3
110	124	3
54	96	3
95	101	1
40	44	2
3	113	2
92	99	1
118	120	1
3	54	3
70	130	2
58	59	3
56	95	1
18	91	2
33	99	1
5	43	2
47	77	2
84	97	1
113	120	1
54	97	3
122	123	5
75	98	1
89	92	4
102	117	5
108	109	2
26	29	3
32	112	1
24	32	1
78	128	2
61	68	3
119	128	2
133	133	6
85	92	1
114	130	2
39	41	1
79	87	2
57	62	3
57	94	3
6	13	3
84	98	2
2	113	3
38	54	1
19	90	1
76	78	1
48	79	1
7	13	1
90	130	1
91	93	4
16	70	1
34	38	1
44	59	2
1	53	1
106	109	2
66	128	1
68	129	2
5	6	1
86	89	1
84	100	1
82	85	1
88	91	3
101	116	1
80	125	1
59	63	1
114	119	2
22	25	1
125	126	2
72	116	2
38	41	2
61	119	1
70	118	1
47	105	1
75	78	1
55	72	1
3	55	4
57	58	2
71	75	3
28	31	2
114	116	2
121	122	3
49	50	5
1	27	3
59	61	1
74	104	1
41	43	1
18	92	1
116	119	1
40	84	1
26	30	1
91	92	3
33	82	1
116	120	1
119	130	1
110	117	1
55	120	2
80	83	1
55	60	1
32	83	2
123	124	2
4	114	1
3	31	1
57	64	1
73	82	1
78	98	3
80	98	1
19	91	1
73	80	1
56	116	2
32	82	1
66	81	1
82	113	2
15	16	2
67	116	2
15	20	2
64	66	1
103	128	2
45	85	1
83	101	1
54	115	1
89	103	2
131	133	2
14	20	1
7	25	1
9	21	3
55	64	1
20	64	1
32	34	1
19	50	1
0	51	1
77	87	1
88	97	1
22	55	1
72	78	2
76	116	1
74	88	1
23	30	1
50	52	2
96	104	2
2	52	2
24	31	1
118	125	1
44	58	1
60	67	1
101	105	2
61	67	1
42	96	1
108	116	1
108	117	1
69	76	1
39	43	1
103	104	1
65	68	1
