104	104	10
114	116	5
37	37	4
33	33	15
70	70	4
83	84	3
29	103	2
169	169	10
190	190	12
25	25	22
154	154	2
172	172	17
55	55	9
130	158	2
82	82	5
138	138	8
30	168	2
74	74	12
119	119	5
188	188	8
82	83	2
89	89	5
18	18	11
54	54	10
42	42	8
20	20	7
64	64	19
99	144	2
104	106	2
173	173	14
17	17	8
19	20	2
126	126	5
84	84	12
51	54	1
31	32	7
81	81	7
14	14	13
15	15	22
141	142	1
157	157	13
196	196	5
30	30	17
125	126	1
56	56	11
173	174	3
36	36	13
142	157	2
160	160	8
191	191	7
176	177	4
119	138	2
112	113	6
180	181	9
113	113	10
174	174	9
54	61	3
197	197	4
96	96	2
74	75	15
108	108	3
161	161	2
17	71	1
155	155	4
60	60	6
141	141	11
165	165	5
85	85	10
24	24	17
37	69	6
97	97	10
76	77	12
189	190	4
182	189	1
147	147	15
131	132	1
51	51	4
115	115	5
64	65	3
49	50	4
79	81	2
167	167	4
39	39	9
105	107	3
13	13	6
29	186	2
52	52	4
48	48	3
180	180	9
32	32	8
126	127	4
58	58	14
120	120	10
4	5	9
77	78	2
99	171	1
79	79	5
47	47	5
120	122	5
93	155	3
136	161	1
0	2	3
57	57	3
130	160	4
145	145	2
23	23	8
176	176	11
86	86	4
38	45	6
94	154	3
24	25	7
99	99	9
78	79	7
187	188	6
181	181	10
44	45	4
133	188	2
148	160	3
16	71	2
5	7	1
8	8	4
72	72	13
163	163	10
148	148	5
44	61	4
131	140	3
9	10	5
35	35	2
22	22	10
27	27	12
163	164	3
178	178	8
48	49	3
134	136	2
87	87	4
194	194	12
19	19	5
106	106	10
177	177	8
106	181	1
12	12	9
127	127	8
129	129	8
170	170	7
14	103	3
53	60	2
142	142	17
175	175	7
31	31	10
4	76	9
69	69	13
183	183	9
117	136	1
8	59	3
21	23	2
119	120	1
184	184	7
162	162	5
66	67	2
131	192	1
49	49	8
123	123	9
113	181	1
13	46	2
0	0	6
122	123	4
149	150	6
38	69	2
102	103	1
151	151	10
25	28	3
134	135	2
143	143	9
8	45	2
101	101	17
38	38	8
127	183	1
41	41	5
11	12	8
110	110	4
105	105	4
186	193	2
130	159	7
193	193	13
185	185	4
32	112	1
29	166	2
146	146	7
149	149	6
89	90	1
29	76	3
60	66	2
171	171	13
38	39	2
112	176	2
19	33	1
127	135	3
124	171	5
59	59	13
107	107	10
9	9	4
40	40	5
57	58	2
109	109	3
195	195	4
166	167	7
134	181	1
53	53	12
113	172	1
187	187	6
17	72	1
159	159	5
21	21	11
20	22	3
116	117	5
179	179	3
14	64	4
103	167	1
169	170	1
114	172	1
11	58	2
116	116	23
133	133	8
115	176	2
29	29	3
182	183	4
26	27	4
111	111	8
7	66	2
2	2	5
118	118	8
4	77	3
77	77	8
122	122	7
186	194	2
78	78	11
46	46	6
8	23	1
122	161	3
77	85	3
44	60	3
33	34	1
112	112	8
43	44	5
37	150	2
59	62	7
78	81	4
44	185	1
16	16	9
46	47	5
50	50	4
54	60	1
148	161	5
43	60	5
192	192	5
114	114	6
104	105	1
133	135	1
30	31	4
61	61	2
166	166	5
169	171	1
130	130	4
28	29	4
80	103	6
105	163	2
174	175	3
141	158	3
21	77	2
184	185	2
120	121	3
54	56	2
23	171	2
106	107	3
160	161	1
5	5	6
94	94	7
15	16	3
113	171	2
152	152	6
132	137	2
53	56	1
22	23	3
172	173	8
148	149	4
50	149	4
2	40	2
113	136	1
62	63	5
155	156	3
11	11	2
4	8	3
110	113	2
168	168	16
43	61	2
71	71	5
130	172	5
100	100	4
26	26	7
186	186	6
13	14	3
98	98	3
132	132	11
126	182	2
34	35	2
0	193	5
67	67	7
182	182	5
130	131	1
133	196	2
88	88	4
124	124	5
133	160	1
29	30	2
66	66	4
125	127	1
50	51	3
80	80	4
174	176	4
17	18	2
136	137	3
167	168	5
83	87	4
130	144	3
117	117	9
137	137	1
45	45	5
131	131	2
111	112	1
19	34	1
144	144	7
10	10	5
63	63	4
103	166	2
144	145	2
51	52	2
157	159	3
24	81	1
168	169	2
100	101	3
37	45	6
189	189	1
69	73	2
10	12	6
7	43	1
136	136	4
175	176	4
193	194	2
62	62	6
158	158	7
138	139	1
132	189	1
30	193	3
20	33	4
128	128	8
135	135	6
3	3	4
96	98	1
121	151	2
28	28	6
112	131	1
44	44	12
9	70	1
55	56	3
165	167	2
0	76	3
36	39	2
156	157	2
43	43	7
12	13	1
65	66	1
127	141	2
170	171	7
3	65	1
79	103	1
137	139	3
84	85	1
124	125	2
105	164	2
8	64	2
161	165	1
132	134	1
119	123	3
57	62	4
29	193	4
167	174	2
103	103	3
153	153	5
159	172	1
131	190	3
20	25	2
85	86	3
39	85	3
150	150	1
187	191	2
71	72	2
41	42	3
43	55	1
19	21	1
7	64	2
136	194	2
29	187	1
1	1	3
9	71	3
58	63	1
135	136	3
146	159	2
37	70	1
67	68	3
133	193	1
57	142	3
16	107	2
107	108	1
70	71	3
97	155	3
129	130	3
65	68	2
66	167	2
111	130	1
93	157	2
10	70	3
83	83	4
108	178	1
178	179	2
134	134	6
76	76	2
125	125	2
133	191	1
118	119	1
163	174	3
107	174	3
23	169	6
171	173	3
159	160	6
24	148	1
123	124	2
123	140	2
104	164	1
60	61	3
102	102	1
148	166	1
73	73	6
121	121	4
31	196	2
110	111	1
108	110	1
7	7	3
24	27	2
133	136	1
98	99	1
18	32	4
75	75	1
27	28	3
168	170	2
147	153	4
113	176	1
28	102	1
97	98	1
195	196	1
156	156	2
6	65	1
162	165	1
9	12	3
12	59	1
24	78	3
131	176	1
34	34	4
143	154	2
176	178	1
30	73	1
35	38	1
107	164	2
72	73	2
139	139	2
99	100	2
23	146	1
29	77	2
4	4	1
15	17	2
95	154	4
43	50	1
181	182	1
18	42	1
54	55	2
68	69	1
87	88	1
131	133	2
113	130	1
161	164	1
165	166	1
102	167	1
3	106	1
114	115	1
56	57	2
164	179	1
59	61	1
150	151	1
95	155	1
135	137	1
99	140	1
81	82	2
177	191	1
94	97	1
93	95	1
58	62	1
6	6	3
25	29	2
88	89	3
30	169	1
98	131	2
108	161	2
146	153	1
10	11	2
36	110	1
81	83	3
46	61	1
133	134	1
191	192	1
23	24	1
140	140	1
134	193	1
160	162	1
23	155	1
75	77	1
73	74	1
58	59	2
132	133	1
69	70	1
97	142	1
5	65	1
104	182	1
8	9	1
118	134	1
186	196	1
129	131	1
136	193	1
27	31	1
186	187	1
114	171	1
154	155	1
65	65	1
69	79	1
65	166	1
