47	49	8
104	104	1
89	89	1
108	108	8
77	78	1
81	120	2
92	93	5
15	15	6
73	82	4
5	48	2
130	130	3
115	116	3
50	51	4
4	4	16
20	21	7
103	103	2
144	144	17
170	170	2
22	23	6
38	38	10
85	85	5
169	169	5
37	38	3
100	133	2
114	114	6
139	140	5
108	109	8
33	33	2
20	27	2
128	128	6
0	1	9
134	134	5
109	109	4
124	125	2
7	7	12
3	3	5
130	131	4
12	12	1
126	157	1
83	112	1
5	5	6
145	145	8
161	168	2
83	115	2
159	160	1
7	8	2
76	76	4
163	163	7
105	110	5
134	159	1
159	159	10
117	117	3
143	145	4
158	158	4
128	129	4
150	150	3
90	90	14
136	169	1
39	40	4
152	152	2
69	121	4
143	151	4
106	106	5
14	14	11
119	119	4
136	159	2
53	53	7
80	80	3
75	122	6
156	156	8
22	22	10
137	138	1
71	71	4
69	69	3
137	137	8
35	35	9
23	23	1
104	110	4
101	102	7
162	162	4
56	56	9
42	42	8
17	17	7
105	109	1
102	102	2
149	149	11
107	163	7
47	47	5
11	11	5
116	118	6
2	2	3
62	62	5
147	170	2
88	89	1
6	6	7
100	100	7
87	88	3
142	143	2
0	0	7
24	55	3
46	51	1
113	113	5
70	81	1
146	146	8
107	108	3
21	21	4
98	130	1
66	66	3
57	62	2
1	1	10
118	118	11
45	45	4
167	167	6
6	7	8
82	82	3
8	8	1
83	83	6
144	160	1
77	80	1
37	37	8
70	71	2
110	111	5
111	111	2
41	41	6
155	155	9
16	16	2
144	159	2
116	116	6
164	165	2
10	10	2
93	93	3
20	23	6
141	141	8
36	36	6
13	13	3
106	107	2
161	166	1
73	73	4
53	54	1
25	25	5
88	88	9
104	109	1
9	9	1
21	94	2
38	41	3
46	49	1
115	115	1
64	64	6
147	160	5
94	94	3
131	131	6
34	35	2
143	143	3
10	11	2
163	164	3
154	154	3
35	41	1
154	155	1
149	150	1
133	138	1
140	142	1
68	68	1
45	47	3
139	139	9
65	65	3
62	63	1
98	98	2
54	55	1
110	110	4
123	123	6
120	121	1
105	111	2
74	74	5
43	44	3
167	168	3
35	88	1
126	155	2
94	95	5
164	164	2
151	151	1
5	46	3
148	148	1
43	43	5
81	82	1
134	150	2
133	133	2
4	52	2
168	168	2
138	138	9
99	99	10
71	72	2
92	130	2
5	52	3
140	151	2
91	91	3
140	143	2
96	96	1
26	26	2
166	166	1
97	97	2
92	92	3
73	81	2
100	101	3
83	105	3
161	167	1
15	16	7
34	42	2
11	13	2
101	134	2
51	51	3
101	101	1
10	15	4
71	82	1
149	159	1
100	125	3
112	112	2
162	163	1
88	131	1
105	106	1
93	94	1
54	54	1
45	52	4
0	44	4
46	46	2
14	15	2
166	167	1
72	72	3
126	126	2
84	84	1
69	77	1
33	43	2
20	20	1
79	79	2
66	68	1
107	107	1
84	104	1
44	53	2
126	127	2
61	63	2
161	162	1
24	24	1
143	144	2
113	114	2
23	24	1
115	117	1
18	18	1
91	95	1
161	161	2
44	44	2
153	155	2
4	5	1
74	84	1
19	23	1
107	109	1
75	75	1
76	122	1
40	40	2
157	157	2
52	52	1
100	130	1
121	121	1
107	164	1
42	43	1
8	9	1
74	85	1
65	66	1
19	20	1
44	45	1
133	139	1
52	97	1
95	95	1
73	74	1
