31	31	2
98	98	4
102	106	2
97	99	6
25	49	4
35	35	10
103	103	2
22	22	14
50	50	16
92	92	8
47	91	4
58	100	7
40	40	7
44	44	15
86	87	2
78	88	4
100	105	4
53	54	4
77	77	14
28	28	3
59	59	10
21	22	9
89	93	4
41	41	19
58	58	7
43	44	1
68	68	16
77	88	6
53	53	8
84	84	10
32	32	9
23	39	3
76	85	1
91	91	10
28	29	5
74	74	10
66	97	2
24	38	4
68	69	4
30	51	7
97	103	5
69	69	5
24	25	8
34	35	1
108	108	10
90	94	4
82	110	4
110	110	10
35	36	10
26	33	2
92	107	3
36	36	9
63	67	5
47	47	5
56	56	6
29	30	3
72	73	2
78	78	7
82	86	5
72	72	6
43	43	7
26	26	14
54	55	10
101	112	4
90	90	1
102	105	1
20	57	2
86	86	5
54	54	4
37	37	5
45	46	3
39	54	2
111	111	8
32	35	1
62	62	6
94	94	9
69	81	3
43	96	3
81	81	8
49	88	1
101	101	7
106	106	4
30	31	6
30	30	11
51	51	16
24	24	5
101	103	1
45	53	2
38	38	11
22	36	1
107	107	7
73	74	4
97	97	10
57	57	11
58	59	3
23	56	4
53	61	7
46	46	7
110	112	3
63	63	1
82	102	6
39	56	2
67	67	1
38	39	6
31	50	1
80	80	6
62	90	1
104	107	3
76	111	2
39	39	2
29	31	3
109	109	7
75	80	5
82	114	5
48	70	2
76	76	7
113	113	3
59	64	3
69	90	2
79	85	1
57	101	1
79	79	2
60	72	3
111	112	5
55	55	6
41	59	3
60	77	2
32	70	4
70	71	2
49	49	9
64	65	2
95	96	1
32	44	3
63	64	3
93	93	6
80	94	3
59	78	2
26	29	1
71	72	4
82	82	9
29	29	7
69	70	9
60	60	5
42	42	1
66	66	7
55	64	4
70	70	6
95	95	4
65	69	3
88	88	1
28	45	2
91	92	2
73	73	7
100	100	7
41	42	3
99	99	10
33	37	4
52	71	3
38	65	2
47	48	1
22	66	4
90	91	2
106	107	4
56	58	2
24	37	3
112	112	2
66	67	2
83	83	1
27	27	4
44	45	2
35	49	1
76	78	2
36	37	1
24	36	1
32	97	1
37	55	2
33	36	3
29	47	1
73	75	3
87	89	2
27	63	1
81	86	2
67	96	2
20	21	1
21	21	5
105	106	1
93	95	1
61	64	1
78	79	5
30	61	2
87	87	5
48	56	1
85	85	3
83	84	7
89	89	2
61	62	1
24	49	2
105	105	3
65	68	4
81	83	1
56	57	2
89	90	1
37	38	4
96	96	6
26	89	1
68	78	3
44	85	1
45	45	3
81	104	1
96	97	2
81	88	2
54	99	2
48	48	3
86	89	2
86	104	1
103	104	1
41	45	2
52	55	1
86	91	2
61	61	4
26	80	2
90	102	2
30	52	1
25	25	1
54	73	1
85	86	1
97	98	1
80	86	1
58	90	2
20	23	2
27	28	3
41	90	3
81	85	2
71	71	1
61	72	1
64	67	1
89	105	1
75	75	3
76	77	2
68	90	2
49	79	1
88	89	1
27	44	2
44	46	1
26	67	4
48	92	2
19	19	1
109	110	2
25	38	2
65	66	1
47	58	2
112	113	1
82	108	1
41	53	3
65	65	3
48	72	2
23	40	2
92	113	1
36	67	1
63	95	2
38	56	1
108	110	1
93	94	1
92	94	1
87	88	1
106	112	2
37	49	2
26	28	2
20	20	2
40	42	1
41	57	1
43	45	1
102	103	2
77	79	1
79	106	1
63	76	1
103	106	1
20	58	1
36	56	1
50	51	1
52	52	1
68	70	1
45	96	1
63	74	1
26	105	1
20	35	1
41	64	1
23	23	1
67	73	1
99	106	1
108	109	1
48	54	1
40	41	1
64	64	1
103	112	1
