62	62	16
2	2	8
122	128	1
26	26	8
44	74	3
125	125	3
54	113	1
123	123	21
49	50	2
3	3	14
132	133	3
77	80	4
67	67	7
128	131	4
84	85	6
101	101	17
79	79	15
116	118	8
74	74	7
37	38	4
115	115	3
20	20	8
116	131	3
4	4	13
83	85	1
112	112	17
47	48	3
16	20	1
118	120	3
114	115	9
21	21	9
104	104	13
121	121	9
80	80	13
79	82	7
104	120	1
24	24	8
33	33	18
129	134	2
110	113	3
37	37	10
105	107	2
126	127	3
106	106	6
23	23	4
73	73	19
7	7	9
22	24	3
10	16	3
30	30	2
91	95	1
51	54	3
96	103	6
1	96	3
33	95	1
32	32	4
109	109	9
86	86	6
110	110	11
80	83	3
17	17	9
19	20	2
63	63	13
13	13	10
25	77	2
61	61	5
48	48	3
92	92	12
10	11	9
32	35	5
70	71	6
65	66	5
120	120	5
16	16	4
20	26	4
28	28	4
71	71	16
94	94	10
26	29	2
23	24	5
87	109	2
126	126	15
82	82	3
54	54	15
119	119	12
108	109	3
106	107	6
18	37	2
111	112	3
44	45	9
44	44	10
72	72	9
35	35	11
95	95	4
52	86	4
105	108	4
21	61	3
2	36	4
53	59	3
60	122	2
65	65	12
98	98	11
102	102	17
70	70	22
123	134	3
107	109	4
99	99	17
60	61	4
62	64	2
16	19	4
25	26	6
12	12	12
95	96	9
36	36	13
115	117	2
127	131	4
72	124	1
9	10	10
65	68	3
66	66	5
82	100	4
6	9	1
9	9	7
112	117	10
77	77	2
65	74	3
6	6	6
69	69	3
75	75	4
103	103	14
80	82	2
67	68	7
111	128	5
52	56	1
47	51	3
91	97	2
60	73	2
106	125	2
52	52	9
84	84	2
14	16	1
90	90	13
35	44	1
3	8	2
89	91	4
123	127	2
88	92	3
77	79	2
15	15	3
74	123	8
32	93	3
44	52	2
102	106	2
107	110	1
85	85	8
132	132	11
8	8	7
68	71	1
1	1	6
63	78	2
108	110	7
3	7	2
34	34	15
85	88	3
88	94	4
71	74	3
87	87	10
124	128	4
64	65	5
1	97	2
58	59	14
89	93	3
19	19	7
64	66	3
32	36	1
103	110	2
90	91	3
0	0	6
27	28	14
8	9	2
98	104	1
28	29	11
71	76	1
39	39	2
2	8	2
0	14	1
130	131	13
102	103	3
44	56	2
96	110	2
57	60	5
14	14	6
37	43	6
89	89	3
53	53	5
113	113	7
124	124	5
133	133	7
49	57	2
68	70	1
53	132	2
31	31	19
93	96	2
58	58	8
127	127	8
47	109	3
0	43	3
43	52	5
64	67	7
85	97	2
107	107	4
11	11	5
93	101	1
29	29	11
26	27	1
108	111	1
81	130	3
95	100	4
44	85	2
1	27	3
49	54	5
79	99	2
106	110	6
97	97	7
78	80	4
57	59	2
128	128	3
34	75	1
113	115	3
81	81	6
118	118	10
103	105	4
17	61	3
54	57	9
56	59	1
93	94	8
116	117	3
22	29	1
106	108	1
50	62	3
124	125	2
59	59	15
20	21	3
92	95	2
116	116	6
85	86	6
114	117	5
48	102	2
105	112	1
1	3	4
25	25	6
72	135	3
59	60	7
44	107	3
122	124	2
124	129	3
32	33	4
33	75	3
88	88	5
69	70	4
120	121	4
66	75	2
29	31	4
55	56	6
56	56	7
96	96	5
131	133	4
93	93	5
57	57	3
54	60	1
60	72	2
72	73	6
59	62	1
3	5	1
100	100	14
94	126	1
29	32	3
63	65	3
89	90	1
1	35	1
121	122	6
117	117	4
75	76	1
122	122	3
65	87	2
60	60	3
1	4	4
68	118	3
98	101	6
5	5	3
98	99	4
46	46	2
121	129	1
50	107	2
123	124	4
12	14	2
55	88	2
33	34	8
43	43	13
71	124	3
99	101	4
46	48	1
114	114	9
114	127	5
105	105	14
74	83	3
118	119	3
99	102	2
35	37	6
131	131	8
93	95	6
7	8	2
3	4	8
135	135	4
84	99	1
106	120	2
53	110	5
49	95	2
83	107	6
70	72	4
82	83	1
45	48	1
84	107	2
18	25	1
62	71	2
82	95	2
134	134	7
108	112	1
4	16	4
27	27	10
7	19	3
3	34	3
31	32	4
81	87	2
2	3	4
6	60	1
64	69	4
38	95	1
108	116	1
25	33	2
22	97	1
76	80	2
126	135	2
34	38	1
98	100	7
68	68	6
80	97	1
83	83	4
78	79	3
47	75	1
63	121	1
122	123	4
116	120	1
66	67	1
111	116	4
79	81	2
18	18	2
73	103	1
52	53	4
133	134	2
76	76	10
95	97	1
80	86	3
50	54	3
10	13	1
6	59	1
125	127	2
114	116	1
35	39	1
85	94	4
55	55	4
22	22	5
61	62	2
116	121	3
1	36	2
84	86	2
12	61	3
91	91	9
130	132	3
118	131	6
50	50	7
14	30	3
105	106	3
48	82	4
47	52	1
117	131	2
103	106	3
80	81	1
102	105	3
63	64	3
56	62	3
82	97	1
2	56	2
110	125	1
25	27	1
38	38	7
77	96	2
118	123	1
43	93	1
21	22	1
2	49	4
89	96	1
99	100	1
78	78	3
107	112	2
30	31	3
55	72	2
35	89	3
0	5	3
82	99	2
83	84	7
62	69	2
126	129	5
108	108	7
17	114	1
99	106	3
111	111	3
13	30	2
47	47	1
52	120	3
81	84	2
8	10	4
54	63	3
14	15	4
36	37	4
68	73	1
0	15	1
34	36	2
72	110	2
26	32	1
53	117	3
44	46	1
118	127	1
15	17	1
85	91	6
25	31	3
115	116	1
77	78	7
13	15	3
30	32	1
81	86	2
86	88	1
106	124	1
96	97	2
0	1	1
0	6	2
53	106	1
7	9	4
64	89	3
33	94	2
84	92	3
118	122	1
80	87	1
1	6	1
63	69	1
92	93	3
111	127	3
101	102	2
16	25	1
35	36	2
94	95	1
84	108	2
73	112	1
25	34	1
0	102	1
95	98	2
86	96	3
6	56	3
110	111	2
134	135	1
7	11	2
24	29	2
94	104	2
103	104	1
130	130	3
54	119	3
4	5	3
56	64	1
92	94	3
15	16	1
94	99	1
45	45	4
42	49	1
85	99	1
129	133	1
71	72	2
17	18	1
0	9	1
112	113	4
79	97	1
92	96	1
3	105	3
44	101	2
69	72	2
51	51	1
82	92	2
17	19	1
106	135	1
2	6	1
119	134	2
31	33	1
22	26	3
108	113	2
11	13	1
52	134	2
79	80	5
128	130	2
44	105	1
126	134	2
104	109	2
3	33	1
20	34	1
16	17	1
125	131	1
43	115	2
50	52	2
11	15	3
103	107	2
123	125	1
73	111	2
6	23	2
70	105	1
86	87	1
75	78	1
62	63	2
87	99	1
63	86	1
97	98	1
115	129	1
124	127	1
19	22	1
50	53	1
69	113	1
107	111	1
1	2	2
1	7	1
126	130	1
11	14	1
43	54	1
53	111	1
96	102	1
104	105	1
50	103	1
12	105	1
15	21	1
61	69	2
43	50	1
78	83	1
69	74	1
108	118	1
50	55	1
22	23	1
111	115	1
105	126	1
97	108	2
53	56	1
113	118	1
27	29	1
53	57	1
21	67	1
110	132	3
3	58	1
127	130	1
7	32	1
76	77	1
21	27	1
82	106	1
66	68	1
44	49	2
27	32	1
94	108	1
80	84	1
12	13	1
115	118	1
11	37	1
64	64	1
85	87	1
18	21	1
53	54	1
110	114	1
47	49	1
19	21	1
1	28	1
7	10	1
17	104	1
101	110	1
24	25	1
67	72	1
85	104	1
6	7	1
