88	88	12
48	76	2
93	94	8
73	74	19
100	100	12
81	81	21
58	58	9
39	78	4
86	88	5
85	88	2
69	73	2
50	50	6
96	96	21
33	35	1
60	88	5
95	97	2
67	67	13
51	51	3
70	71	8
99	99	11
61	61	19
75	75	7
26	84	5
70	77	2
52	87	2
92	92	17
66	74	5
24	25	4
96	97	7
94	95	4
53	53	10
23	44	9
91	96	6
31	36	6
45	89	5
46	47	4
31	38	3
34	35	2
82	84	2
95	96	10
22	74	2
93	93	6
34	34	5
72	81	1
83	84	10
87	88	15
71	78	2
85	85	13
72	73	4
66	75	12
79	80	10
66	66	19
32	33	1
64	66	2
69	69	14
53	54	4
68	69	7
83	85	1
91	92	4
27	27	15
100	101	4
70	72	4
22	22	4
58	60	3
79	79	11
52	52	9
37	37	6
92	93	10
65	65	14
97	98	9
26	26	4
80	80	12
68	68	6
76	77	2
75	93	1
64	64	13
81	86	4
26	58	5
70	70	9
87	87	9
35	42	4
89	89	14
95	95	7
95	98	6
94	94	9
44	45	8
44	44	5
91	91	4
54	55	5
50	56	5
67	68	2
83	83	5
43	47	3
60	60	2
98	98	7
55	60	3
72	72	7
59	60	6
62	63	9
78	89	1
37	38	1
42	43	1
70	74	2
36	36	3
69	70	2
25	54	4
76	76	12
25	25	9
48	48	4
56	61	1
49	50	3
91	100	3
53	89	1
59	59	3
85	86	1
101	101	11
77	77	7
80	83	3
35	35	4
77	78	5
78	78	5
68	79	8
63	63	8
28	52	4
61	63	4
74	74	12
47	48	5
65	86	2
21	47	1
98	101	2
87	89	3
91	94	1
97	97	8
31	32	1
38	38	11
99	100	5
23	23	3
66	68	5
80	81	4
29	77	2
50	77	1
81	82	3
84	86	4
62	62	17
24	24	9
40	40	8
71	72	5
56	56	1
62	74	1
57	60	4
39	59	2
63	77	3
41	44	8
41	41	4
101	102	1
68	76	3
23	24	4
88	89	4
28	73	1
59	68	3
56	58	1
27	28	2
80	85	2
62	90	1
48	78	2
39	39	5
82	89	1
92	96	2
51	52	1
24	56	1
32	42	4
102	102	1
90	90	2
45	80	6
73	73	10
60	89	1
57	70	4
96	98	2
49	49	2
71	71	11
75	77	3
65	66	5
49	75	1
37	43	1
49	76	5
84	84	16
45	45	3
52	57	1
35	79	1
28	28	1
31	58	1
33	33	2
58	81	2
53	55	4
35	64	1
80	89	3
54	87	1
91	97	1
67	72	2
69	71	3
58	78	2
59	61	2
41	42	2
26	69	1
60	61	3
63	64	2
47	47	5
29	37	1
46	46	1
40	41	1
62	75	5
22	23	1
79	85	4
66	67	4
82	82	6
40	52	1
64	87	1
74	84	1
25	26	3
29	30	2
25	56	2
25	50	2
64	90	2
50	57	2
33	34	2
22	45	1
99	101	3
76	93	1
48	89	2
91	99	2
40	72	3
90	91	3
29	65	4
52	89	2
81	83	2
54	65	2
86	86	4
72	77	2
31	40	1
48	87	2
59	78	2
57	57	2
94	96	1
69	76	1
81	84	1
43	43	1
79	81	1
72	79	1
37	79	3
46	53	1
23	45	1
28	53	1
62	64	2
92	94	1
67	78	2
33	36	2
98	99	2
45	88	1
62	65	1
33	37	1
61	62	1
38	64	1
57	61	1
70	79	1
21	22	2
38	69	1
46	90	1
32	41	1
52	56	1
22	73	1
22	44	1
81	88	1
55	88	1
86	87	1
20	20	1
66	70	1
94	97	1
34	40	2
89	90	2
29	29	1
58	59	2
74	75	1
27	57	1
84	85	1
60	62	1
