66	80	1
24	24	1
76	79	4
57	57	4
24	26	1
50	99	1
1	2	3
5	27	4
108	108	6
80	80	5
27	29	4
3	3	2
11	14	4
89	89	3
55	57	2
83	84	5
76	76	7
98	98	2
35	35	7
55	55	7
73	75	4
77	77	3
11	11	4
69	69	2
114	114	3
24	25	1
100	100	4
58	58	5
85	85	1
7	7	1
42	78	1
97	97	3
118	118	7
87	87	2
12	18	2
123	123	3
36	37	3
71	122	2
90	90	3
86	86	6
59	123	5
68	68	5
21	21	9
12	12	5
59	59	2
34	116	2
130	131	3
2	21	1
53	54	1
73	73	3
19	19	2
13	13	3
63	64	1
6	8	1
71	121	2
66	67	1
9	11	1
34	34	1
133	133	1
15	96	5
128	128	3
89	111	2
72	98	2
8	8	3
101	101	2
25	25	3
95	95	1
2	2	7
35	114	5
88	114	2
132	134	2
5	5	7
37	37	3
61	61	7
61	105	2
106	107	3
90	91	4
14	14	2
126	131	2
56	57	1
84	84	1
0	0	2
125	126	4
122	122	2
4	5	1
108	109	2
99	120	3
107	108	2
4	4	3
50	50	2
69	78	5
111	111	2
31	32	1
55	83	1
9	9	7
15	15	4
96	96	4
45	45	4
52	53	1
30	30	1
32	32	3
3	4	2
43	43	2
71	71	5
59	81	3
8	16	1
112	115	2
127	127	4
126	126	3
113	113	5
10	10	3
56	84	2
70	74	1
105	105	1
63	63	5
0	94	5
81	81	1
52	85	2
54	54	1
94	95	5
5	6	1
36	36	1
27	27	2
15	35	2
52	52	2
53	53	3
13	33	8
117	118	1
47	47	2
31	31	2
62	62	4
72	72	1
67	78	3
47	49	1
28	28	2
29	29	1
116	117	3
66	106	2
33	33	3
46	99	2
1	36	1
95	119	1
60	106	1
50	87	3
92	92	3
78	79	1
57	58	1
128	129	2
63	65	2
44	52	1
86	112	2
121	121	1
95	96	2
17	17	2
55	63	1
115	117	1
106	106	1
0	88	1
93	93	1
65	76	2
64	65	1
22	27	1
81	121	1
132	132	2
129	130	2
88	88	2
102	102	3
55	58	1
104	104	1
91	92	1
26	30	2
124	131	2
122	123	1
65	65	1
57	84	1
55	82	1
110	119	1
22	26	1
45	86	1
84	85	1
74	91	2
97	102	1
60	61	1
1	1	1
27	28	1
