153	153	1
97	98	1
215	228	1
8	8	3
147	147	2
65	67	2
72	113	1
135	135	3
234	234	3
52	52	1
121	122	1
46	47	2
17	17	2
170	171	2
113	113	1
21	228	1
45	45	4
198	198	2
134	134	4
168	168	3
24	24	4
46	46	2
121	121	3
173	173	1
242	242	2
154	154	2
64	65	2
146	147	1
16	16	2
0	51	1
149	150	1
13	13	1
56	56	1
141	141	1
70	70	1
145	187	1
81	81	1
81	85	1
171	171	5
176	176	4
2	2	1
223	223	4
3	4	1
43	43	2
150	150	2
160	160	2
149	157	2
140	141	2
208	208	2
231	231	3
193	195	1
21	21	2
42	70	1
19	155	1
117	117	1
152	168	2
179	180	1
187	203	2
127	127	4
157	157	3
13	14	1
44	61	1
232	232	2
33	33	3
20	20	1
217	217	5
85	85	1
7	7	1
143	143	1
194	195	2
84	84	2
55	62	2
151	151	3
132	190	2
160	169	1
216	216	5
188	188	2
122	123	2
44	44	3
220	220	1
174	181	1
86	86	1
65	65	3
44	45	1
172	172	3
7	42	2
114	116	1
67	67	3
126	127	1
229	229	2
135	136	4
1	1	1
110	110	1
19	19	4
237	237	1
235	240	1
174	174	2
238	238	2
206	218	1
236	236	2
51	51	1
63	63	2
170	170	3
138	139	3
136	144	1
130	130	1
10	10	1
125	125	3
184	185	1
37	50	1
196	196	2
135	137	2
226	226	2
6	6	1
27	27	4
201	201	1
163	163	1
13	44	1
49	50	1
96	120	1
47	48	2
190	191	1
68	209	2
178	178	3
82	82	3
30	30	2
172	173	3
85	88	3
177	177	1
241	241	1
50	50	1
83	84	1
175	184	1
225	225	1
104	105	1
8	53	1
177	179	2
38	38	4
21	23	1
17	19	1
239	239	2
103	103	1
190	190	3
164	175	1
112	113	2
59	59	1
40	45	1
37	37	3
42	42	1
98	98	1
210	210	1
165	165	1
146	146	1
219	219	2
158	161	1
88	96	1
169	169	2
191	191	1
10	170	1
0	0	2
128	128	1
35	36	1
148	149	1
49	49	2
58	58	1
31	31	1
11	11	2
157	184	1
115	115	1
108	108	1
158	158	1
66	89	1
70	71	2
9	106	1
23	24	1
228	228	2
152	152	2
155	160	1
66	66	1
139	142	1
183	183	1
104	107	1
46	58	1
240	240	1
221	227	1
54	54	3
176	183	1
81	83	2
18	18	1
122	122	1
192	210	2
99	175	1
141	143	1
26	26	1
52	53	2
200	200	2
149	149	1
48	49	1
154	155	1
101	109	1
80	80	1
114	114	1
206	206	1
20	21	2
182	188	1
22	22	1
150	151	1
131	131	1
14	14	2
144	144	1
45	63	1
150	154	1
4	39	1
62	62	1
220	223	1
5	17	1
109	109	1
134	159	1
136	136	1
161	161	1
186	186	1
69	69	2
69	241	1
62	63	1
222	231	1
138	138	2
189	189	1
137	168	1
202	231	1
194	196	1
218	233	1
214	214	1
221	221	1
9	9	1
74	75	1
180	181	1
139	139	2
102	102	1
44	62	1
28	28	1
178	208	1
23	23	1
41	41	1
75	75	1
183	187	1
4	6	1
146	148	1
49	81	1
140	140	1
56	60	1
192	192	1
217	218	1
142	144	1
97	97	1
185	187	1
48	48	1
132	145	1
72	72	1
156	157	1
130	144	1
149	169	1
45	47	1
152	159	1
101	101	1
10	11	1
155	155	1
9	21	1
162	162	1
101	120	1
18	19	1
82	83	1
128	129	1
190	201	1
114	115	1
196	197	1
239	240	2
177	242	1
224	225	1
100	100	1
121	170	1
204	206	1
239	241	1
227	227	1
7	8	1
180	180	1
166	169	1
34	38	1
