91	91	5
73	73	5
108	108	3
38	38	9
130	130	2
29	30	2
16	16	6
22	22	6
134	134	12
19	27	2
14	14	3
80	80	3
6	6	1
34	34	3
61	61	9
36	36	3
4	4	6
140	140	9
63	63	5
13	13	2
116	116	5
37	37	3
33	34	3
19	19	10
79	112	2
0	130	1
66	81	2
91	92	2
24	35	1
42	42	5
119	135	1
66	66	5
142	142	4
97	97	5
80	82	1
85	85	5
3	3	6
73	83	1
71	71	1
14	16	1
25	25	8
48	52	1
8	28	1
83	84	2
103	103	7
96	96	6
9	10	1
84	84	3
83	83	5
67	67	5
90	90	2
96	98	3
13	31	1
78	78	3
97	101	1
32	33	1
31	34	2
99	100	5
75	75	5
88	88	4
79	83	2
11	11	6
52	52	3
105	123	2
13	14	2
48	48	6
106	107	1
102	107	1
125	125	6
126	127	2
28	28	4
112	112	6
137	138	3
65	67	1
59	59	3
52	74	1
67	90	1
126	126	7
33	36	2
18	113	2
51	51	3
109	109	7
40	40	4
0	1	1
26	26	3
106	119	1
98	134	1
40	41	2
31	31	5
124	125	4
69	69	3
41	41	5
105	107	1
85	93	1
56	62	1
30	30	4
60	60	5
79	79	2
0	41	1
105	106	3
95	96	2
124	124	5
24	24	8
104	104	3
99	145	1
47	51	1
65	65	2
125	129	1
6	11	1
77	77	4
23	27	1
71	87	1
81	81	4
127	132	2
128	129	4
57	60	1
72	72	5
112	115	3
50	50	3
85	86	1
86	87	1
37	42	1
3	6	1
19	20	1
39	39	2
15	15	4
87	87	2
33	33	3
123	123	4
127	127	7
100	117	2
51	90	1
62	64	2
97	98	4
54	106	2
50	61	2
125	126	1
49	49	6
21	21	4
141	141	2
133	134	5
31	32	2
93	93	3
40	43	1
144	144	9
95	95	4
73	74	2
0	0	5
82	83	2
113	113	5
105	105	5
111	112	3
118	118	3
117	117	6
6	140	1
72	75	2
87	105	2
47	47	2
24	26	4
131	133	2
133	133	5
139	139	2
114	114	5
136	137	1
115	117	1
53	83	3
60	61	2
1	1	7
92	92	5
99	116	1
20	20	5
18	19	1
26	29	1
131	131	3
17	33	1
122	122	4
134	136	1
54	54	4
35	35	6
26	40	1
101	101	2
52	83	1
131	134	1
23	43	2
136	139	2
86	98	1
53	54	1
115	115	1
142	143	1
57	58	3
113	117	1
122	123	1
100	100	2
68	81	2
8	9	2
128	128	3
80	84	1
62	62	1
90	91	1
43	47	1
68	68	3
18	18	5
120	120	2
13	33	1
30	47	2
10	10	3
135	135	3
53	53	7
27	27	2
110	127	1
112	116	3
87	88	2
37	40	1
35	36	2
26	27	4
69	70	2
93	97	1
53	58	1
34	35	2
1	2	2
55	55	2
110	110	4
27	28	3
89	89	5
137	137	4
93	94	2
102	103	1
136	136	1
117	126	1
58	58	4
22	23	1
5	72	1
119	119	1
145	146	1
17	29	1
22	39	2
89	111	2
58	59	1
132	132	5
9	9	5
4	136	1
107	108	3
2	2	2
131	141	1
136	140	2
131	140	1
88	89	3
63	64	1
77	79	1
33	35	1
32	32	3
79	80	4
135	138	1
23	23	4
4	32	1
121	123	1
23	98	1
50	51	2
29	101	1
80	126	1
111	111	1
58	67	2
83	90	1
70	70	3
109	136	1
89	90	1
145	145	2
138	138	1
5	31	1
62	88	1
18	20	1
74	74	2
129	130	1
12	12	3
139	140	1
98	98	2
17	17	6
102	102	4
143	143	4
71	81	1
65	66	1
65	80	1
76	76	1
82	96	2
130	132	1
19	140	1
82	105	1
77	78	1
27	97	1
59	97	1
110	116	1
75	76	1
15	16	1
28	29	2
118	119	1
8	8	7
17	22	1
51	52	2
100	101	1
36	84	1
82	82	2
78	84	1
119	120	1
70	82	1
72	76	1
106	106	2
105	111	1
64	64	3
38	39	1
102	105	1
138	139	1
75	117	1
30	31	1
112	113	2
61	62	1
117	119	1
36	37	2
127	129	1
107	107	1
129	129	2
130	131	1
43	43	2
84	86	1
131	132	2
117	118	2
64	80	1
99	99	1
73	95	1
72	93	1
108	117	1
115	116	3
14	15	1
17	21	1
78	79	1
10	11	1
109	110	1
87	89	1
56	56	1
107	112	1
69	80	1
120	123	1
9	98	1
20	97	1
83	127	1
53	80	1
102	106	1
68	86	1
41	43	1
97	105	1
56	57	1
104	116	1
3	31	1
62	63	1
92	117	1
19	128	1
95	102	1
95	131	1
127	128	1
5	5	1
113	114	1
29	29	1
111	114	1
99	110	1
14	48	1
64	65	1
118	120	1
2	3	1
136	138	1
96	97	2
74	75	1
112	114	1
90	92	1
49	57	1
121	121	1
53	81	1
83	85	1
64	66	1
118	123	1
