161	166	2
148	148	5
7	7	6
122	123	4
4	4	1
18	18	7
124	124	10
114	114	4
150	150	8
100	100	8
134	134	4
158	158	5
165	165	7
78	121	2
168	168	3
113	148	1
74	75	2
52	53	1
75	75	3
4	123	2
83	86	2
104	104	4
111	112	2
57	88	1
113	140	1
141	165	1
41	42	3
37	37	4
47	47	9
16	43	1
137	140	2
41	135	1
136	136	3
133	133	5
52	52	4
45	45	4
17	138	1
154	154	5
85	85	1
164	164	6
48	64	2
162	162	3
66	67	2
43	43	5
77	77	4
48	50	2
163	166	1
73	73	3
16	16	6
125	125	5
73	92	1
3	3	7
20	21	3
144	146	3
62	62	1
101	105	1
147	147	3
113	113	2
39	39	8
150	151	2
13	13	2
82	103	2
10	10	4
121	127	1
150	158	1
27	43	1
62	67	1
111	111	3
68	68	2
144	153	4
123	156	1
27	27	3
130	130	3
141	141	3
79	105	3
12	13	1
159	159	7
135	135	4
57	57	3
163	163	6
1	1	7
23	23	7
52	70	1
86	86	2
152	152	4
156	156	7
82	83	1
66	69	2
98	98	3
132	132	5
53	53	2
55	55	1
45	47	1
103	103	1
69	69	5
8	8	4
91	91	2
115	115	3
72	73	1
157	161	3
71	71	3
113	129	1
4	5	1
88	88	7
76	76	3
152	153	1
151	152	1
1	12	1
89	90	4
155	155	3
157	158	2
140	140	4
119	119	7
102	133	2
0	7	1
51	51	2
22	22	6
26	26	1
131	131	2
97	97	1
107	110	1
141	142	3
108	108	2
94	94	1
161	161	3
49	49	5
139	139	2
155	156	3
105	123	2
109	109	2
142	142	4
44	44	3
131	137	1
148	149	2
90	106	1
110	110	2
79	79	3
17	18	8
92	94	2
161	162	2
113	115	1
166	166	4
40	169	1
143	151	2
88	107	1
140	145	1
18	21	2
84	84	2
33	149	1
89	89	2
122	141	1
41	41	4
83	101	1
52	136	1
169	169	2
99	99	2
131	153	1
62	88	1
6	6	5
65	67	1
40	40	4
128	129	5
122	128	1
9	48	1
5	167	1
15	26	1
135	137	1
162	163	1
127	127	4
28	168	2
25	25	2
100	128	1
39	119	1
135	166	1
153	153	2
143	155	1
97	98	3
128	133	1
160	160	2
40	45	1
151	151	2
144	169	1
115	117	3
83	83	4
145	145	3
40	41	2
97	99	2
2	2	4
34	34	4
53	69	1
14	14	5
98	99	1
92	92	2
167	167	1
42	42	4
56	56	2
23	25	1
88	89	5
143	144	2
67	69	2
46	47	1
93	95	1
23	24	1
170	170	9
21	21	3
119	121	2
5	5	5
95	95	2
0	1	3
90	91	1
19	22	1
87	87	5
80	144	1
144	144	3
2	3	1
129	135	2
67	116	1
8	64	2
12	12	2
138	138	1
74	74	5
116	119	1
164	165	1
5	6	1
2	135	2
26	47	1
112	112	3
121	121	2
94	98	1
82	100	2
134	135	1
64	73	2
154	155	2
6	7	1
96	96	3
80	80	1
157	157	4
54	55	1
38	38	2
125	126	1
11	12	1
153	154	3
90	90	2
96	97	1
100	101	1
116	116	4
105	130	1
11	13	1
52	149	1
109	110	2
67	82	1
11	11	3
138	147	1
91	92	2
102	102	2
11	17	1
100	105	1
82	82	2
163	164	1
126	126	4
73	125	1
81	82	1
143	143	2
80	81	2
58	75	1
15	49	1
85	86	1
143	145	1
140	166	1
15	16	1
76	86	1
130	157	1
24	24	5
145	154	1
17	17	3
0	0	3
127	128	2
144	148	2
7	9	1
101	101	2
119	120	1
46	46	1
10	16	1
133	154	2
110	125	1
13	14	1
146	146	4
111	119	1
64	66	1
10	19	1
49	75	1
133	153	1
100	147	1
72	113	1
56	58	1
67	68	1
35	35	1
142	151	1
129	129	2
101	112	1
85	104	1
137	137	5
57	81	1
42	43	2
86	87	3
49	52	1
19	19	1
90	110	3
118	118	3
48	48	2
117	117	1
167	168	1
161	164	1
159	160	1
87	88	1
14	15	1
101	102	1
39	44	2
106	106	1
24	118	1
3	4	1
76	126	1
120	120	2
112	113	1
93	93	2
120	121	1
107	107	3
21	36	1
21	23	1
128	128	1
158	159	1
139	140	1
133	149	2
63	63	2
18	20	1
79	95	1
15	15	2
108	109	1
5	10	1
114	115	1
115	116	1
96	98	1
117	118	1
105	105	3
162	164	2
27	28	1
112	166	1
83	103	1
72	75	1
58	58	1
7	10	2
13	144	1
134	147	1
113	122	1
8	120	1
44	45	2
99	116	1
138	143	1
157	167	1
125	140	1
100	104	1
5	134	1
51	53	1
83	84	1
52	54	1
51	52	1
9	9	2
21	52	1
83	87	1
3	139	1
42	170	1
5	34	1
50	50	1
8	131	1
36	44	1
47	118	1
20	20	1
36	36	1
19	21	1
81	81	1
81	98	1
119	143	1
98	118	1
151	153	1
47	55	1
28	37	1
76	91	1
63	64	1
70	70	1
10	91	1
139	157	1
102	103	1
111	151	1
17	20	1
9	10	2
42	53	1
0	11	2
122	122	2
49	57	1
114	132	1
106	107	1
39	40	1
120	164	1
0	46	1
68	116	1
64	64	1
2	45	1
62	63	1
7	8	1
142	161	1
81	87	1
3	135	1
