212	212	2
69	171	1
8	169	1
173	173	6
30	30	9
187	191	1
131	132	1
102	102	5
111	178	1
151	151	7
158	158	11
113	113	6
16	17	3
61	62	3
106	106	7
171	171	7
184	184	7
56	56	2
2	2	7
45	45	8
239	239	5
119	120	3
33	34	3
86	86	3
11	12	3
21	21	6
55	55	3
107	107	4
185	185	2
17	40	1
200	200	7
62	62	2
47	48	3
129	142	1
118	118	6
122	147	1
12	167	1
134	134	2
40	41	5
153	153	6
79	80	1
240	240	2
228	228	9
210	227	1
119	119	6
238	238	5
199	199	7
48	48	4
158	159	2
5	5	3
3	6	1
26	26	4
46	47	1
101	176	1
182	184	1
69	69	4
120	120	7
114	116	1
27	29	1
58	58	1
8	8	6
81	83	2
27	27	9
145	145	3
35	36	2
161	161	4
179	179	11
129	130	1
34	35	3
221	222	1
43	43	4
100	100	9
150	151	4
162	162	7
11	11	3
181	181	6
29	29	4
21	39	2
38	38	4
132	134	1
105	105	4
220	220	1
167	182	1
153	169	1
183	200	1
106	147	1
49	49	4
228	229	1
163	164	6
47	147	1
157	181	3
186	187	5
23	23	3
137	138	4
13	13	8
39	39	3
63	63	1
169	220	1
207	208	1
233	234	2
156	156	3
71	71	3
18	18	2
95	113	1
113	114	1
163	163	6
204	231	3
68	74	3
187	187	8
111	111	7
221	221	1
174	174	7
31	31	4
115	116	2
18	20	1
77	81	1
52	53	1
181	182	6
198	198	4
175	177	1
172	172	5
33	33	8
7	41	1
143	143	2
9	42	2
214	216	1
107	229	1
48	74	2
141	141	2
236	236	2
141	142	4
196	196	5
171	173	1
164	166	2
227	227	1
137	137	3
122	136	1
23	26	1
177	178	4
0	0	2
150	150	4
46	46	2
17	230	2
178	206	1
170	171	1
95	120	1
43	44	3
42	42	8
205	223	1
193	210	1
217	217	5
240	241	3
225	225	1
62	63	1
135	173	1
19	19	4
48	53	1
149	149	14
66	68	1
214	214	2
121	121	5
13	14	3
104	104	2
154	155	2
231	231	3
54	54	6
21	220	1
51	51	4
16	24	2
166	168	1
58	59	4
20	23	1
169	170	3
68	85	1
173	174	4
85	86	2
160	170	1
177	225	1
125	125	4
237	237	5
115	115	1
179	180	5
168	169	1
14	15	2
204	206	1
141	143	2
108	110	2
144	144	4
215	215	5
13	20	2
112	112	1
180	180	5
178	178	3
167	167	4
114	114	2
107	166	1
136	137	1
120	135	2
103	103	2
98	176	2
25	61	1
171	179	1
237	238	2
1	1	3
142	142	5
10	11	1
17	18	1
34	34	6
101	102	2
174	175	1
147	164	1
129	135	1
73	76	1
158	163	1
78	78	4
22	22	4
73	73	2
16	50	1
4	6	1
66	66	2
133	133	6
15	23	2
163	176	1
208	209	1
60	226	1
218	218	7
83	83	2
115	149	1
160	160	6
167	198	1
43	173	1
224	229	1
60	60	1
231	232	1
166	184	1
186	212	1
172	173	1
1	8	1
68	68	4
224	224	1
139	139	5
156	157	4
9	105	1
115	117	2
66	67	4
45	128	1
107	160	1
56	102	1
64	74	1
61	61	5
182	212	2
136	148	2
146	149	1
63	64	1
96	96	2
169	169	3
174	189	1
85	85	5
160	161	4
177	177	3
84	85	1
217	218	4
106	107	2
102	158	1
4	5	3
138	138	7
137	147	1
3	3	3
163	165	1
50	54	1
91	91	1
175	175	2
178	179	2
9	10	2
59	60	2
7	7	3
193	193	3
31	54	1
73	74	1
0	1	3
67	67	3
79	84	1
25	26	2
206	206	5
118	120	3
136	143	1
32	32	3
68	69	1
222	222	3
128	129	2
127	127	6
128	128	7
58	80	2
157	157	5
236	237	2
40	40	4
212	215	1
7	67	1
230	230	4
108	109	1
105	109	1
135	135	6
138	178	1
213	213	2
88	88	3
139	143	1
229	229	4
80	80	6
6	6	6
182	189	1
41	41	5
30	32	1
175	190	2
153	154	1
77	78	1
44	47	1
185	186	2
82	83	2
223	223	3
224	225	3
136	136	4
95	98	2
41	42	2
81	92	1
142	144	2
32	83	2
106	171	2
221	229	1
46	228	1
182	182	7
149	178	1
6	7	2
152	152	7
209	209	3
170	203	1
62	84	1
4	4	5
162	185	1
10	10	4
107	162	1
44	44	4
123	123	3
165	165	1
59	59	2
97	97	2
52	52	1
24	46	1
12	13	1
73	78	1
197	197	2
202	202	1
189	196	1
123	161	1
150	152	1
207	207	4
12	12	3
81	84	1
39	42	2
155	155	3
185	188	2
146	174	1
200	216	2
16	55	1
161	162	2
16	16	4
184	187	1
114	115	1
167	169	1
19	22	2
18	40	3
74	74	3
115	123	1
25	172	1
160	172	1
21	22	2
235	235	2
8	49	1
234	235	2
7	8	1
95	96	1
232	233	2
154	157	1
20	124	1
211	212	3
144	146	1
28	28	3
0	12	1
130	130	5
36	61	1
159	159	4
142	143	1
139	163	1
102	103	2
108	108	2
153	157	1
158	160	1
226	226	2
203	240	1
167	168	1
38	170	1
81	81	1
98	98	1
190	190	3
201	201	2
140	142	2
37	37	6
210	211	1
188	188	2
186	208	1
159	218	1
116	116	2
186	186	4
208	208	2
192	194	1
70	70	3
55	60	1
55	204	1
225	226	4
11	26	1
145	160	2
215	218	1
9	9	3
38	39	2
5	21	1
215	216	2
139	146	1
99	99	3
192	193	1
159	176	1
210	210	3
191	236	1
116	124	2
20	21	1
16	181	1
233	233	5
106	109	1
166	166	4
75	75	4
57	57	2
44	109	1
145	153	1
122	122	2
47	47	4
149	150	3
105	106	1
166	167	1
131	135	1
9	216	1
221	223	1
114	120	2
103	117	1
190	222	2
173	209	1
221	226	1
179	181	2
159	179	1
154	154	4
165	187	1
182	183	1
77	104	1
129	129	5
157	158	1
197	231	1
184	185	1
225	227	1
23	33	1
180	181	3
100	101	1
194	194	2
141	150	1
200	201	1
183	183	4
72	75	1
226	227	5
9	175	1
72	72	1
44	218	1
23	89	1
150	157	1
9	68	1
136	138	1
219	220	1
196	200	1
205	206	2
19	73	1
202	208	2
65	102	1
232	234	1
170	170	5
21	24	2
233	237	1
109	128	1
192	192	1
48	230	1
159	161	1
205	205	1
110	110	2
161	187	1
175	178	2
140	185	2
158	174	1
131	134	3
122	124	2
189	189	1
14	16	1
13	222	1
35	35	3
48	49	1
162	187	1
168	168	2
71	72	1
188	211	1
143	145	1
77	79	1
214	215	4
58	102	1
140	141	1
188	189	1
206	240	1
37	38	1
77	77	1
58	60	1
116	118	1
171	172	3
103	105	1
224	235	1
148	148	1
219	232	1
64	64	3
232	236	1
135	136	1
131	131	1
8	10	2
16	231	1
42	73	1
136	153	1
124	133	1
74	86	1
204	205	1
180	186	1
14	14	1
206	231	1
109	109	2
149	176	1
48	54	1
15	15	1
177	191	1
55	102	1
191	191	2
72	73	1
42	58	1
3	9	2
79	79	2
22	23	1
216	220	1
21	37	1
133	155	1
7	153	2
17	19	1
187	188	1
239	240	1
101	101	5
218	224	1
180	183	3
124	125	1
197	222	2
138	159	1
107	120	1
84	84	4
7	9	1
200	226	1
105	235	2
77	108	2
20	39	1
112	120	1
191	192	1
11	15	1
48	58	1
181	183	2
6	22	1
41	58	1
9	37	1
53	53	2
216	216	2
140	140	1
188	216	1
40	74	1
192	196	2
146	146	2
152	160	1
158	164	1
80	83	1
194	196	2
234	234	2
205	211	1
0	2	1
40	73	1
121	123	1
99	130	1
133	134	1
32	172	1
65	65	2
40	58	1
42	43	1
183	184	1
176	177	3
195	195	1
126	157	1
135	202	1
161	181	1
216	218	1
165	169	1
6	21	1
48	62	1
112	159	1
213	225	1
15	45	1
211	211	1
20	231	2
126	156	1
5	6	2
176	176	1
103	106	1
160	171	1
164	164	1
175	204	1
17	17	1
28	29	1
72	233	1
129	159	1
38	234	1
65	70	1
232	232	1
7	16	1
167	184	1
108	149	2
34	132	1
16	47	1
206	207	1
10	13	1
105	122	2
29	63	1
10	44	1
76	78	1
17	228	1
17	82	1
220	225	1
83	84	1
106	148	1
149	151	1
15	20	1
53	86	1
20	20	2
183	188	1
207	225	1
147	165	1
117	118	1
138	139	1
122	160	1
199	200	1
220	221	1
36	36	1
63	74	1
17	42	1
159	160	1
153	155	1
204	204	1
49	50	1
144	145	1
14	18	1
169	186	1
219	219	2
208	230	1
29	30	1
146	147	1
185	187	1
74	89	1
151	152	1
134	135	1
197	198	1
100	158	1
161	184	2
149	152	1
197	200	1
84	99	1
198	199	1
157	166	1
169	171	1
34	36	1
95	122	1
191	202	1
108	121	1
7	48	1
187	190	1
107	136	1
