123	123	8
6	7	2
65	65	12
66	66	6
93	93	5
84	84	9
69	69	15
68	70	2
58	58	7
73	117	1
98	133	2
134	134	8
30	30	5
118	118	10
96	97	2
40	43	2
47	47	4
88	109	1
26	27	4
129	129	5
111	111	7
15	15	7
9	129	1
109	109	8
94	94	7
93	105	1
17	19	1
104	104	4
67	68	3
16	16	1
14	15	3
75	75	5
122	122	7
105	128	1
93	94	1
32	32	8
73	73	6
60	60	9
25	26	4
19	21	1
112	112	6
113	116	3
10	10	2
5	114	1
83	87	1
91	91	5
72	72	9
46	94	1
35	36	5
39	87	1
78	82	4
18	18	8
49	49	3
34	34	6
29	30	2
97	121	1
124	130	1
74	75	3
39	39	1
23	25	2
59	83	1
6	6	4
87	98	1
64	67	1
108	108	6
132	132	7
77	77	10
96	96	5
36	36	6
107	108	3
96	98	1
18	85	2
46	47	2
27	27	3
99	99	5
38	38	5
34	63	2
5	5	3
133	134	1
68	68	14
24	25	2
15	16	2
112	113	4
95	121	2
125	125	3
121	122	3
24	24	2
110	110	5
77	94	1
95	95	7
121	121	13
45	45	8
128	128	8
12	126	1
46	46	11
76	77	2
22	22	4
24	51	1
80	80	7
119	119	9
2	2	7
87	88	5
74	94	2
45	46	1
41	42	1
102	102	5
5	39	1
112	114	1
68	69	2
40	42	2
55	55	3
99	101	4
4	4	4
40	40	1
56	81	2
20	20	7
78	78	7
63	63	4
73	112	1
83	85	3
95	97	4
120	121	6
20	27	5
61	61	10
78	102	1
101	101	4
90	90	10
102	107	2
67	70	1
81	98	3
127	131	1
113	113	4
131	131	5
84	87	1
50	57	1
67	67	5
13	14	1
33	37	1
59	59	3
17	17	9
33	33	2
86	124	2
34	35	1
48	48	4
130	131	3
106	106	5
81	81	6
22	26	1
121	123	2
97	107	2
123	128	1
70	70	4
9	10	2
0	0	3
116	116	10
124	124	6
74	76	1
73	74	4
44	45	5
1	3	2
95	115	1
99	100	3
23	24	3
124	126	1
76	118	1
19	19	5
56	56	2
127	127	2
126	126	4
50	50	2
103	104	7
51	56	1
107	123	1
106	107	1
102	105	3
76	76	4
82	82	9
16	39	1
126	128	2
55	57	2
102	106	2
92	92	3
19	20	2
110	111	2
86	108	2
12	12	6
95	100	2
23	27	1
109	110	1
103	105	1
62	62	7
67	69	1
44	131	1
43	43	4
85	101	1
62	64	1
1	1	5
105	105	2
44	93	1
86	86	4
29	29	2
50	77	1
41	45	1
132	133	1
44	44	6
31	31	5
60	81	4
89	96	1
14	14	3
44	57	3
42	95	1
18	34	2
8	9	2
13	58	1
35	35	4
71	72	2
17	18	1
35	44	2
70	83	1
64	64	13
21	23	1
73	118	2
12	18	1
31	45	1
41	41	2
122	129	1
107	133	1
97	98	1
66	76	1
45	73	1
34	44	1
79	85	1
45	76	1
45	86	2
26	26	5
102	103	1
83	83	4
28	29	2
105	108	3
124	125	2
75	94	1
125	129	3
74	74	8
32	86	1
7	7	8
11	11	5
117	118	5
79	79	3
108	119	1
94	122	1
71	71	4
81	82	3
80	84	1
62	65	2
66	118	1
122	123	2
20	32	2
36	39	1
84	85	2
18	19	3
3	5	2
116	117	1
42	43	3
4	5	3
10	17	1
71	76	2
46	55	1
75	108	3
115	115	5
74	93	1
127	132	1
48	85	1
41	49	1
23	23	1
87	87	1
21	21	5
57	57	2
55	56	4
13	13	4
15	48	1
107	130	1
33	133	1
7	8	2
122	128	1
35	43	1
18	45	1
88	122	1
9	12	1
34	59	1
20	21	3
120	123	2
69	115	1
119	120	2
56	57	2
85	85	1
103	107	1
83	94	1
22	23	1
97	99	1
16	78	1
8	8	2
118	119	2
100	114	1
75	118	1
104	129	1
49	50	1
15	124	1
63	69	1
22	40	1
59	60	1
92	93	3
13	119	1
6	27	1
103	103	4
27	28	1
117	117	4
104	105	1
120	120	6
112	116	1
126	130	1
133	133	2
10	32	1
99	111	1
99	133	1
100	101	2
131	133	1
38	41	1
42	42	2
3	3	1
85	88	1
14	59	2
109	111	1
131	132	1
57	58	2
63	65	2
114	114	4
65	66	2
8	27	2
129	130	1
130	130	4
104	123	1
59	107	1
100	100	3
2	3	2
130	134	1
87	90	1
95	132	1
5	7	2
6	110	1
58	59	2
56	58	1
97	129	1
58	82	1
61	74	1
92	94	1
22	25	2
62	119	2
35	46	1
81	103	1
108	130	1
5	27	1
30	31	2
34	62	1
73	124	1
96	129	1
88	88	4
90	98	3
41	85	2
90	92	1
127	129	1
95	96	1
44	47	1
17	45	1
27	31	1
94	96	1
16	17	2
3	4	1
98	132	1
78	80	1
109	114	1
12	100	1
25	25	2
80	106	1
36	47	1
32	33	2
13	125	2
12	13	2
93	102	1
88	91	1
98	98	1
77	93	1
33	46	1
34	45	2
61	123	1
3	12	1
108	110	1
33	59	1
36	37	2
113	125	1
108	125	1
127	128	1
63	64	1
89	99	1
78	90	3
38	83	1
102	132	1
9	75	1
82	93	1
2	16	1
15	22	1
62	63	1
111	115	1
111	112	1
90	91	1
60	76	1
31	32	1
100	126	1
9	60	1
126	129	1
16	45	1
6	33	1
25	58	1
38	128	1
41	127	1
35	76	1
54	54	1
18	27	1
84	86	1
85	86	1
14	95	1
74	91	1
38	58	1
56	94	1
5	61	1
16	38	1
98	101	1
83	86	1
117	121	1
16	24	1
95	101	1
92	133	1
74	119	1
107	107	2
39	40	1
75	85	1
66	72	1
67	93	1
66	77	1
37	38	1
69	70	1
100	128	1
30	105	1
118	124	1
105	106	1
82	83	1
18	44	1
90	93	1
87	89	1
86	116	2
103	106	1
98	99	1
64	65	1
66	68	1
102	104	1
13	15	1
39	92	1
4	6	1
21	37	1
