67	157	1
7	7	2
62	62	1
63	63	3
86	86	4
113	115	3
8	8	3
134	134	4
152	154	3
143	143	2
95	108	1
83	83	1
130	130	2
85	86	1
108	108	2
84	85	2
56	56	1
147	147	9
158	158	4
5	5	1
115	120	1
9	9	3
81	81	2
79	79	3
104	104	2
113	113	5
119	119	4
137	137	6
141	141	6
153	153	4
116	140	1
64	64	4
34	36	2
123	149	3
19	41	1
116	120	1
22	23	2
116	135	1
133	134	2
140	140	3
82	83	2
124	125	2
98	98	2
118	118	5
123	124	5
89	113	1
151	151	3
49	50	1
148	149	2
88	119	1
10	10	1
43	55	1
31	130	1
123	140	1
154	155	2
16	16	4
112	112	3
105	105	2
63	82	1
132	132	4
91	92	2
7	8	2
103	103	2
114	114	2
95	96	3
133	133	1
111	112	2
126	139	1
124	124	2
26	26	4
67	67	3
10	11	1
156	156	3
32	32	2
145	148	1
76	99	1
54	78	1
95	95	3
4	4	3
0	0	1
155	156	5
64	157	2
117	117	5
155	155	3
108	111	1
106	129	1
145	146	1
75	75	4
57	79	2
112	113	3
93	115	1
157	158	1
69	69	1
115	116	1
96	96	3
38	38	3
40	40	5
40	50	1
106	106	2
9	13	2
47	48	1
94	94	6
83	90	1
68	70	2
13	42	1
52	53	1
117	118	1
91	91	2
149	149	5
152	152	3
146	149	1
125	125	1
29	29	1
104	105	1
101	101	2
87	98	1
6	6	3
16	36	1
85	85	2
17	19	1
28	28	2
20	20	1
88	115	1
139	148	2
84	97	2
107	107	4
122	122	4
107	108	4
47	47	3
139	139	5
129	129	1
116	116	5
6	150	1
136	136	2
36	141	1
46	46	1
145	145	3
87	90	1
24	24	2
33	33	1
113	116	1
141	143	2
124	147	1
37	39	1
21	21	3
75	131	1
105	107	1
135	135	2
131	131	2
132	133	1
41	46	1
19	20	2
67	105	1
129	156	2
120	121	1
146	146	3
126	126	4
121	126	1
154	158	1
31	36	1
70	70	2
114	146	1
99	99	6
22	22	2
127	127	3
107	111	3
41	41	2
127	128	2
108	109	2
36	36	1
104	152	1
112	116	1
79	93	1
142	143	1
73	74	1
18	18	1
93	93	1
128	128	3
138	138	1
1	2	1
10	34	1
116	126	1
31	47	3
125	126	1
90	91	1
20	22	1
150	150	1
49	49	1
110	111	1
45	45	2
39	39	1
121	147	1
36	51	1
106	107	1
119	120	4
86	108	2
115	115	1
71	135	1
46	147	1
102	102	2
106	140	1
120	120	1
119	127	2
14	15	1
3	3	1
87	87	2
111	111	5
151	152	1
98	100	1
100	103	1
157	157	1
23	24	2
142	142	2
133	149	1
154	156	1
150	151	1
123	123	2
124	127	1
118	119	2
37	37	2
77	77	1
95	111	1
92	92	1
25	25	2
106	150	1
6	158	1
26	131	1
116	117	2
3	26	1
50	50	1
71	71	2
65	151	1
109	109	2
94	95	1
92	95	1
64	132	1
12	12	1
38	39	3
111	125	1
115	119	1
135	141	1
148	148	2
17	34	1
140	142	2
67	71	1
121	121	1
55	55	1
134	135	2
19	19	1
13	24	1
65	66	1
23	23	1
140	141	1
0	1	1
136	148	1
135	136	1
55	149	1
118	120	1
139	140	1
21	29	1
36	131	1
36	38	1
130	135	1
131	132	1
53	53	1
88	90	1
70	95	2
156	158	1
114	121	1
99	141	1
138	139	1
8	10	1
68	68	1
93	94	1
73	101	1
2	2	2
68	137	1
144	144	1
100	100	1
43	44	1
100	101	1
36	37	1
44	44	1
15	15	1
144	145	1
88	88	1
129	130	1
83	96	1
92	93	1
32	35	1
159	159	1
