3	9	1
7	7	12
9	9	4
22	22	14
66	66	1
35	37	1
26	37	1
6	6	4
23	24	5
42	42	7
34	34	7
77	77	5
35	35	5
11	11	5
62	68	1
47	47	4
19	60	1
37	37	7
32	32	6
22	25	1
73	73	4
28	29	2
1	1	6
2	2	5
28	28	5
25	27	2
58	68	1
5	5	10
31	36	1
61	61	4
49	51	2
70	70	1
48	69	1
33	35	1
59	59	5
23	28	4
64	64	5
5	6	1
60	60	5
21	21	5
4	4	9
24	24	6
22	23	3
62	62	4
4	31	1
24	25	4
45	45	3
6	7	3
53	55	3
29	29	4
20	20	3
20	21	3
5	7	1
1	2	2
58	63	2
3	7	3
0	0	5
23	25	2
10	10	6
68	70	1
44	44	4
1	7	4
36	36	12
29	31	1
7	8	5
8	8	5
55	55	4
73	77	1
26	34	1
10	43	1
56	56	6
13	13	3
29	34	1
26	26	4
12	12	4
25	25	8
55	57	2
20	23	1
34	35	3
69	69	4
19	46	1
10	44	3
75	75	3
13	20	2
22	38	2
3	3	4
35	39	1
43	53	1
58	65	1
57	57	2
25	52	1
38	38	4
30	30	8
2	9	5
43	43	4
23	77	1
50	51	2
35	36	3
27	28	4
50	50	3
12	13	2
19	21	3
19	20	2
3	4	1
29	32	1
52	57	1
10	12	1
64	66	1
40	40	5
33	33	3
48	50	1
19	19	3
11	12	2
23	23	3
49	52	1
36	37	1
70	71	3
30	34	1
56	61	3
35	53	1
64	65	2
41	41	1
1	5	1
10	11	4
52	52	2
37	49	2
39	43	1
28	70	1
28	32	2
23	31	1
20	33	1
1	9	2
76	76	4
22	28	2
32	35	1
22	37	2
60	67	1
51	51	1
67	75	1
4	5	6
12	43	1
28	35	3
35	68	2
20	43	1
32	33	2
22	24	1
1	22	2
20	30	1
19	47	1
27	33	2
49	50	2
5	36	1
73	75	1
22	53	1
48	48	3
2	3	4
58	59	1
63	63	2
54	54	2
72	73	2
27	27	4
49	49	5
30	31	2
39	39	1
66	67	1
52	56	1
23	55	1
54	58	1
67	68	1
3	8	1
62	64	1
74	76	1
61	66	1
54	60	2
71	71	3
7	24	2
13	56	1
43	60	1
0	1	1
55	70	1
34	40	1
28	37	1
31	32	2
68	68	1
45	47	1
26	27	2
27	30	1
8	24	2
1	21	1
8	9	2
25	26	1
38	64	1
7	23	1
0	7	1
74	74	1
76	77	1
48	49	1
62	66	1
30	37	2
43	52	1
74	77	1
75	76	1
51	72	1
30	33	1
34	36	1
12	44	1
37	40	1
31	31	1
13	55	1
51	54	1
34	39	1
46	46	1
29	53	1
72	72	2
7	38	1
4	10	1
39	60	1
64	68	1
5	31	1
27	37	1
0	2	1
1	6	1
58	62	1
42	47	1
65	65	2
30	32	1
13	37	1
13	31	1
44	47	1
24	34	1
23	27	1
22	35	1
18	20	1
5	10	1
56	57	1
20	24	1
6	24	1
4	26	1
37	38	1
20	29	1
