60	60	3
125	125	3
104	104	3
78	78	2
30	30	2
80	80	8
55	55	3
9	20	1
82	83	2
3	3	4
5	5	1
119	123	1
49	49	3
60	84	2
28	28	6
85	85	4
63	92	2
54	60	1
13	13	5
15	81	1
62	62	3
71	72	1
63	63	6
95	97	2
52	53	3
76	79	1
66	66	3
33	33	2
20	20	4
23	23	2
67	67	2
79	79	6
61	61	2
27	28	1
128	128	5
70	71	2
57	57	5
25	54	1
4	4	7
19	19	3
125	129	1
69	69	3
117	129	1
86	86	2
70	72	1
63	65	2
8	8	1
12	12	2
131	131	2
47	47	3
16	96	1
112	112	3
65	65	3
53	53	2
96	96	4
62	69	2
65	118	1
22	43	1
3	49	1
43	43	4
50	50	7
100	101	1
75	75	4
70	70	7
54	54	5
4	5	2
99	99	3
116	116	2
100	100	2
52	59	1
58	58	5
17	17	2
74	74	3
66	68	1
88	88	2
92	93	3
45	45	4
57	58	2
105	105	1
109	128	1
71	78	1
64	78	1
9	52	1
23	24	5
0	0	4
11	11	3
120	120	4
130	130	5
27	27	5
53	54	1
78	79	1
32	32	7
68	68	1
77	77	8
128	132	2
5	12	1
84	84	4
76	77	3
70	74	1
71	71	3
7	8	1
56	60	1
65	66	3
55	80	1
55	69	1
98	99	2
22	22	2
60	62	3
6	6	4
122	122	1
14	25	1
14	14	2
67	110	2
29	29	4
38	38	1
22	23	1
56	56	1
31	33	1
84	85	2
79	80	1
79	81	1
135	135	2
38	108	1
69	70	1
65	69	2
17	18	1
126	126	1
1	2	2
26	26	3
35	36	1
109	110	1
98	98	3
21	22	1
87	87	6
45	53	1
86	87	4
59	78	1
77	80	1
64	65	2
25	25	3
93	93	5
114	114	2
9	9	4
123	123	2
111	112	1
16	94	1
82	86	1
126	129	2
119	119	1
83	83	2
2	33	1
9	11	1
47	51	1
67	90	1
115	115	2
46	46	2
124	124	2
18	18	2
88	89	1
8	10	1
29	35	1
63	88	1
130	131	2
12	45	2
102	102	3
49	84	1
127	127	3
10	11	1
83	87	1
73	73	5
64	64	2
75	79	1
81	85	1
60	83	1
21	21	2
21	28	2
65	68	2
104	120	1
113	113	1
44	44	5
10	77	1
91	108	1
134	135	1
90	90	1
7	7	4
31	32	2
0	2	1
45	57	1
111	111	2
15	15	1
29	125	1
104	127	1
97	105	1
119	120	1
69	78	1
77	79	2
44	45	2
57	59	2
33	34	1
82	109	1
90	113	1
83	84	1
13	79	1
2	2	1
84	87	1
34	34	2
85	88	1
54	107	1
36	36	1
42	61	1
43	47	1
101	101	2
72	72	1
11	13	1
3	4	1
26	27	1
52	52	1
6	8	1
92	92	1
95	96	1
81	81	2
94	119	1
29	34	2
90	92	1
61	68	1
56	59	1
1	1	1
58	62	1
129	129	1
94	94	2
59	63	1
61	86	2
30	52	1
34	35	2
16	16	3
52	61	1
76	76	2
81	83	2
108	109	1
54	58	1
33	67	1
72	127	1
54	55	1
56	57	1
29	74	1
31	31	1
60	77	1
128	129	1
61	65	1
97	98	1
44	53	1
59	59	1
9	10	1
89	90	1
124	125	1
55	71	1
82	106	1
74	81	1
130	132	1
33	36	1
60	68	1
126	130	1
42	43	1
