100	100	1
20	20	2
41	41	3
20	21	2
91	91	2
103	103	1
65	110	1
27	27	5
72	72	2
122	123	1
122	122	3
38	38	1
90	91	1
59	124	1
3	5	1
127	127	3
131	141	1
36	36	2
60	65	2
8	9	2
118	118	3
18	19	2
78	78	1
61	61	3
59	62	1
68	89	1
21	21	2
87	87	2
123	123	1
16	35	1
93	93	2
6	27	1
23	23	2
83	83	2
99	99	1
29	33	1
69	69	2
142	143	2
55	55	1
55	56	1
5	14	1
43	43	1
15	15	2
36	84	1
71	72	3
10	10	2
22	22	2
105	105	2
4	14	1
96	96	6
58	58	1
91	117	1
129	130	2
25	74	1
19	22	1
29	29	2
121	133	1
64	64	3
133	133	1
37	37	2
9	9	4
41	54	1
95	95	1
112	112	2
31	31	2
76	76	1
133	134	1
92	96	1
28	98	1
21	77	1
2	6	1
120	120	1
132	132	2
16	16	3
41	42	2
0	0	1
145	145	2
69	72	1
84	84	1
119	119	1
47	47	1
101	102	1
69	70	1
60	62	1
59	60	2
83	88	1
68	76	1
85	85	1
84	85	1
13	14	1
119	137	1
90	90	2
37	64	1
130	141	1
8	8	3
108	110	1
56	71	1
26	26	1
138	138	1
40	41	1
70	73	1
97	142	1
107	107	1
16	30	1
32	33	1
63	78	1
117	117	2
142	142	1
136	137	2
97	97	1
59	59	2
52	52	1
1	4	1
73	73	2
74	74	3
10	144	1
56	123	1
136	138	1
60	60	1
70	70	2
50	52	2
136	139	1
61	95	1
28	28	1
68	68	1
68	92	1
139	139	1
58	140	2
126	126	1
24	24	1
130	130	1
87	88	1
81	81	2
134	136	1
65	65	1
81	82	1
104	104	1
94	95	1
125	125	2
62	62	1
119	121	1
35	65	1
66	66	2
80	82	1
4	4	1
6	6	3
123	124	1
106	106	2
89	90	1
66	67	1
111	111	2
17	17	1
57	59	1
40	74	1
101	134	1
43	132	1
101	106	1
54	66	1
17	34	1
11	32	1
1	13	1
146	146	1
11	102	1
39	39	2
124	134	1
53	53	1
115	115	1
102	102	1
1	8	1
131	131	1
32	32	1
140	140	2
77	80	1
87	129	1
77	79	1
93	94	1
31	35	1
102	103	1
70	75	1
63	63	1
3	3	1
48	48	1
71	132	1
14	14	1
25	25	1
90	133	1
41	100	1
33	33	1
111	116	1
21	40	1
10	11	1
52	87	1
100	125	1
