146	147	2
175	175	2
129	129	2
167	168	1
39	39	4
142	143	2
150	150	2
47	47	2
13	19	1
43	43	3
123	123	2
101	103	1
67	67	1
61	62	3
78	99	1
83	88	1
14	14	1
97	97	2
82	119	1
109	110	1
55	55	5
186	186	1
127	127	7
156	157	1
125	125	2
167	167	3
103	103	2
74	85	1
95	103	2
81	81	1
147	149	1
121	181	1
15	83	1
69	70	1
136	137	1
158	158	5
64	64	5
58	81	1
151	155	2
80	123	2
61	65	1
89	122	1
140	140	2
74	77	1
63	71	1
71	71	3
19	61	1
117	118	1
41	41	3
45	45	2
19	19	3
54	87	2
120	120	2
10	10	1
5	6	1
59	59	7
176	176	1
179	179	1
142	153	1
65	66	2
111	112	1
55	56	1
131	131	3
126	128	2
22	23	2
151	151	1
187	187	4
75	76	3
41	56	1
158	170	1
88	88	2
22	47	2
23	23	2
177	177	2
152	153	1
140	147	1
52	52	1
113	113	1
130	130	4
134	134	1
183	183	2
93	101	2
88	109	1
48	57	1
97	107	2
145	145	2
7	7	4
82	83	3
7	17	1
0	0	3
145	185	1
80	80	2
96	136	1
173	176	1
13	14	1
98	116	1
1	1	4
155	182	1
13	20	2
13	13	1
188	188	1
142	142	3
28	28	2
102	102	1
93	93	1
77	77	2
35	45	1
189	189	4
112	112	1
42	42	3
60	60	2
34	35	1
84	106	1
108	109	1
42	59	2
105	105	1
149	149	6
178	182	1
134	137	1
66	66	1
61	61	1
8	12	1
180	181	3
169	169	2
4	4	2
30	34	1
188	189	2
150	180	1
68	71	1
109	109	2
185	185	1
62	67	1
30	31	1
98	98	1
110	110	4
184	184	2
149	171	2
74	74	2
7	8	1
22	43	1
74	75	2
5	5	4
83	83	2
155	155	1
173	173	3
103	119	1
57	57	1
72	73	1
165	166	1
127	135	1
178	178	1
54	54	1
156	156	1
2	2	1
128	129	1
58	58	1
129	150	1
12	15	1
68	87	1
146	146	1
32	33	1
116	119	1
125	126	4
3	3	2
1	2	1
65	101	1
38	39	1
29	46	1
93	116	1
4	8	1
119	146	1
70	72	1
35	35	1
48	81	2
121	158	1
79	141	3
175	176	1
104	105	3
156	163	1
16	16	2
167	172	1
22	22	1
141	155	1
96	97	1
73	74	1
56	56	3
100	100	3
118	118	1
31	31	1
9	9	2
187	188	1
82	82	1
86	86	1
123	124	1
36	42	2
101	101	2
128	128	1
154	183	2
137	137	1
65	67	1
8	8	2
143	143	1
106	108	1
156	160	1
36	46	1
72	72	1
117	148	1
70	101	1
76	76	2
6	6	1
120	121	1
25	25	1
121	122	1
16	17	1
24	24	1
48	48	2
68	68	2
153	153	1
27	30	1
176	177	1
94	95	1
108	136	1
116	116	1
92	158	1
29	29	2
69	69	1
69	75	1
107	115	1
81	82	1
182	182	1
175	178	1
111	111	2
12	12	1
157	179	1
12	19	1
54	60	1
170	170	1
37	37	2
100	104	1
26	56	1
172	173	1
166	167	1
117	122	1
163	164	1
17	64	1
97	100	1
120	123	1
124	124	2
89	151	1
139	165	1
34	36	1
66	67	1
140	145	1
85	86	1
135	136	1
177	178	1
155	157	1
2	3	1
17	17	1
135	138	1
14	15	1
107	107	1
47	53	1
78	78	1
104	118	1
151	159	1
11	13	1
77	172	1
9	10	1
140	141	1
144	145	1
24	25	1
168	168	1
172	172	1
162	180	1
32	32	1
141	141	1
164	164	1
131	168	1
79	79	1
62	62	1
40	40	1
120	150	1
38	38	1
26	26	1
82	168	1
139	139	1
135	135	1
149	185	1
43	44	1
34	58	1
97	98	1
