79	79	2
136	193	1
142	142	1
50	50	2
94	94	1
128	128	5
33	34	2
0	1	2
137	137	1
196	196	5
180	180	1
73	73	2
40	40	5
103	103	2
16	18	1
145	145	3
174	174	3
90	90	1
4	14	1
172	172	3
10	11	2
85	90	1
44	47	1
52	52	3
134	134	2
150	187	1
12	12	5
38	38	8
110	110	2
51	51	2
31	31	6
6	6	2
120	120	1
116	116	1
152	152	5
96	102	1
181	181	2
180	181	1
184	184	5
188	188	2
185	185	4
137	142	2
82	84	1
167	180	1
139	143	2
189	189	5
28	29	2
156	159	1
35	35	4
80	120	1
48	196	1
25	25	8
42	42	3
60	60	3
43	43	1
83	84	1
42	43	3
34	35	1
148	148	5
11	11	4
156	156	4
39	39	2
76	78	2
133	134	1
18	18	2
138	138	1
67	119	1
32	33	4
49	49	2
109	111	1
143	165	1
110	111	3
171	174	2
49	55	1
15	15	3
50	51	1
123	123	1
7	8	1
117	118	3
34	34	3
160	164	1
183	183	5
89	89	2
102	102	1
162	171	1
186	191	1
165	187	1
178	182	1
48	48	3
110	112	1
5	5	3
137	138	1
36	37	2
20	21	2
18	19	1
47	48	1
17	18	1
25	45	1
59	62	1
193	194	1
69	69	2
44	44	4
26	27	1
76	76	3
0	0	4
159	159	3
113	196	1
133	133	2
24	24	3
190	192	1
128	151	1
115	115	2
45	45	3
76	77	1
182	184	1
15	16	1
145	147	2
78	79	1
70	72	1
188	189	1
58	58	4
27	27	3
127	127	2
2	153	1
19	22	1
27	187	1
27	31	1
176	177	2
172	177	1
120	138	1
63	132	1
64	69	1
111	116	1
129	142	1
162	163	1
55	55	3
185	186	1
56	56	4
150	150	3
2	2	2
8	8	3
52	129	1
162	189	1
88	88	3
67	67	2
22	104	1
151	151	3
178	178	3
19	19	3
14	14	4
157	185	1
128	129	1
170	170	1
168	168	2
24	36	1
166	166	2
25	26	3
164	166	1
7	7	2
23	25	1
37	37	4
55	59	1
132	132	1
40	41	2
194	194	3
81	81	2
28	28	2
3	6	1
113	113	1
184	194	1
156	157	1
33	186	1
133	135	1
157	157	1
117	117	3
98	98	1
132	170	1
140	187	1
122	196	1
136	136	1
184	185	1
4	33	1
13	69	1
31	62	1
59	59	2
6	7	1
46	46	3
143	143	1
162	181	1
189	192	1
70	70	1
118	142	2
32	32	3
153	154	1
47	47	3
193	193	2
74	74	1
13	13	2
16	16	1
139	176	1
160	161	1
148	149	1
99	99	1
41	41	2
82	83	2
124	136	1
125	125	3
161	161	3
3	3	3
142	186	1
152	153	1
174	180	1
187	187	1
20	20	3
82	82	1
21	31	1
137	148	1
1	37	1
129	134	1
28	31	1
36	36	2
28	30	1
107	107	2
135	136	1
161	168	1
1	31	1
186	189	1
154	154	3
170	171	1
97	97	1
12	150	1
44	45	1
75	75	1
0	3	1
141	141	2
93	93	2
57	134	1
164	164	1
106	107	1
68	68	1
155	156	1
45	46	1
191	191	1
9	9	3
21	21	2
165	166	1
115	136	1
112	112	1
171	171	2
5	6	1
169	169	1
142	151	1
16	191	1
32	47	2
152	181	1
111	111	2
111	112	1
51	55	1
179	180	2
114	114	1
52	53	1
106	149	1
139	139	2
173	174	1
11	12	1
43	46	1
13	14	1
23	29	1
21	29	1
54	55	1
167	167	1
97	99	1
196	197	1
27	40	1
62	63	1
4	4	1
149	149	1
125	139	1
73	74	1
47	148	1
179	179	1
41	42	1
195	195	1
55	56	2
170	172	1
65	85	1
100	100	2
125	126	1
30	41	1
0	2	1
26	26	1
130	130	1
190	190	1
29	29	1
146	146	1
106	106	1
177	195	1
85	85	1
34	47	1
2	37	1
1	1	1
57	57	1
183	185	1
1	2	1
84	84	1
88	119	1
95	95	1
10	10	1
177	177	1
115	158	1
30	30	1
63	63	1
176	176	1
122	122	1
151	152	1
54	62	1
160	160	1
164	187	1
