112	114	2
82	85	1
14	14	3
32	32	2
108	108	7
33	33	2
81	82	2
97	98	5
28	28	1
121	121	3
134	134	9
100	134	1
0	0	3
34	34	2
133	133	8
104	122	1
113	113	8
5	5	5
104	104	5
89	89	7
136	138	2
75	75	3
98	98	6
6	6	1
129	134	1
110	111	1
102	102	3
1	1	5
76	76	3
111	112	3
119	119	5
91	91	3
110	110	8
106	106	1
98	103	1
132	132	4
107	107	5
126	127	1
113	121	1
105	105	2
10	10	3
71	72	1
8	8	2
11	12	2
137	137	7
132	133	1
126	126	4
135	135	4
96	97	2
111	113	1
35	35	2
15	15	1
101	101	4
90	97	2
9	10	1
92	92	4
80	80	3
138	138	4
98	100	1
96	96	3
71	71	2
16	16	5
118	118	9
73	101	1
79	80	1
117	117	5
124	124	4
94	94	3
7	7	4
97	97	2
130	130	4
93	93	5
12	12	1
112	112	6
114	114	3
107	111	2
14	15	3
81	81	2
93	94	2
99	99	2
116	116	5
111	111	4
95	101	1
101	103	1
82	109	1
127	127	3
87	87	6
78	78	6
79	115	1
7	9	1
80	82	1
1	2	2
86	94	1
105	107	1
139	139	7
97	129	1
122	122	3
94	131	1
74	75	1
115	115	5
86	86	1
76	77	1
74	74	2
110	123	2
83	83	1
35	36	1
85	85	2
140	140	2
124	125	1
10	11	1
2	2	4
84	84	5
127	128	1
13	13	1
123	124	1
38	38	3
121	127	1
19	19	5
131	131	1
13	14	3
81	87	1
101	122	2
103	104	2
118	120	2
107	131	1
80	86	1
98	116	1
91	96	1
103	115	1
17	17	2
7	8	2
125	125	1
108	109	3
90	94	1
3	3	1
120	122	2
18	18	1
109	109	2
74	110	1
116	125	1
134	136	1
93	101	2
100	123	1
12	13	1
81	106	1
100	100	3
36	36	2
110	114	1
121	123	1
88	103	2
120	121	1
2	3	2
12	18	1
118	119	2
128	128	3
32	33	1
127	132	1
9	9	1
88	93	1
120	120	2
90	90	1
37	125	1
82	82	1
121	122	2
6	14	1
88	88	1
20	20	1
136	136	1
80	113	1
117	118	1
33	36	1
103	103	1
101	109	1
37	38	1
86	114	1
97	102	1
123	123	2
104	107	1
79	87	1
97	130	1
106	109	1
130	136	1
80	119	1
2	4	1
98	99	1
119	121	1
114	117	1
72	72	1
95	95	1
100	107	1
113	114	2
76	121	1
80	97	1
78	79	1
