5	29	1
1	1	5
93	94	1
115	115	3
150	173	1
38	38	2
86	86	7
104	106	1
81	81	8
120	122	3
85	85	4
125	125	2
5	16	2
26	48	3
8	166	1
114	114	6
178	178	4
10	10	1
59	85	2
170	170	3
190	190	2
158	159	1
21	21	3
129	129	4
97	104	1
77	77	2
74	160	1
149	183	2
19	21	1
9	9	2
157	157	3
71	90	1
72	73	2
105	105	5
138	140	1
113	114	1
133	133	2
56	56	2
148	148	1
152	152	3
4	18	1
55	55	4
40	83	1
79	79	2
156	160	1
140	141	1
102	102	1
83	123	1
163	163	2
165	175	1
26	27	1
7	7	3
172	172	2
47	47	4
160	161	1
130	131	1
92	92	4
171	171	1
28	28	3
61	61	1
87	89	2
155	155	3
42	42	1
176	176	4
26	30	1
169	170	1
82	83	3
115	134	2
115	117	1
38	40	1
71	71	2
0	0	1
132	141	1
165	165	3
174	177	2
74	75	2
82	82	5
71	73	1
81	83	1
19	20	1
152	186	1
131	131	3
45	46	1
81	82	1
28	36	2
167	176	1
167	167	1
34	34	1
102	109	2
89	89	1
54	55	1
11	11	3
58	58	1
177	177	4
135	135	3
131	132	1
46	46	2
183	183	2
35	46	1
19	19	1
67	67	1
132	132	1
154	154	3
189	189	1
42	71	1
84	84	2
82	85	1
180	180	1
45	45	3
185	185	1
124	124	2
103	103	2
19	30	2
39	39	1
56	57	2
33	46	1
151	183	1
85	149	1
178	179	1
20	21	1
64	64	2
107	107	4
158	158	1
41	41	4
70	70	1
181	181	2
115	139	1
159	159	2
119	122	1
167	182	1
96	97	1
104	104	2
168	168	1
13	13	5
54	54	3
155	156	1
136	136	2
102	141	1
130	133	1
110	110	2
100	106	1
3	3	1
61	62	1
156	156	3
182	182	2
139	139	3
117	117	2
27	27	2
130	130	2
40	40	1
142	144	1
137	137	1
96	96	1
43	93	1
91	92	1
134	134	5
101	102	1
117	155	1
158	172	1
65	65	1
64	65	1
83	83	1
68	68	1
120	121	1
116	126	1
75	75	2
172	176	1
58	64	1
175	177	1
6	6	2
52	52	2
83	84	1
184	184	1
186	186	4
97	98	1
8	17	1
32	32	2
22	22	2
66	101	1
138	138	3
23	24	1
150	175	1
5	5	2
58	88	1
106	106	2
90	97	1
34	42	1
175	175	1
141	142	1
119	120	1
18	18	2
33	34	1
97	97	3
25	25	3
97	105	2
78	80	1
88	88	1
31	31	1
69	69	1
109	109	1
152	154	1
134	136	1
156	158	2
95	95	1
188	188	1
86	113	1
66	67	1
139	146	1
122	126	1
108	112	1
153	154	1
160	160	2
17	17	5
15	15	2
123	124	1
111	111	3
175	176	2
33	45	1
99	99	1
150	150	3
154	178	1
164	166	1
57	61	1
112	112	3
141	141	2
38	39	1
101	103	1
28	29	1
113	113	1
42	56	1
46	47	1
123	123	2
65	73	1
83	124	1
182	183	2
10	11	1
166	166	2
94	94	4
119	119	1
121	131	1
174	175	2
12	12	1
137	167	1
68	95	1
163	169	1
24	85	1
186	187	1
103	104	1
8	9	1
67	97	1
31	32	1
122	123	2
158	174	1
74	74	2
58	62	1
84	85	1
16	28	1
153	172	1
4	4	2
94	118	1
133	166	1
15	16	1
111	114	1
171	173	1
130	169	1
39	40	1
98	98	1
36	45	1
30	30	1
41	56	1
85	87	1
117	186	1
149	178	1
145	145	2
47	57	1
185	186	1
117	118	1
143	143	1
81	123	1
26	26	1
95	96	1
147	148	1
127	128	2
93	93	2
44	45	1
68	73	1
122	128	1
174	174	1
98	125	1
126	127	1
119	134	1
117	126	1
142	188	1
57	160	1
149	149	1
138	139	2
2	2	2
160	177	1
106	129	1
144	144	2
82	154	1
89	90	1
133	168	1
13	29	1
126	126	2
164	183	1
18	27	1
153	187	1
133	134	1
58	60	1
69	109	1
78	79	2
171	172	1
36	36	1
20	20	2
25	141	1
78	78	1
159	181	1
22	35	1
37	37	1
29	29	1
42	72	1
23	23	1
164	188	1
104	107	1
159	160	1
171	175	1
17	18	1
122	122	2
68	103	1
57	57	1
72	72	1
55	57	1
147	155	1
0	168	1
164	164	1
24	24	1
140	143	1
6	7	1
