69	70	1
35	36	3
46	46	4
19	42	1
20	21	3
57	57	4
6	6	3
29	31	3
25	25	5
2	2	4
72	72	4
61	61	1
28	36	1
30	64	1
7	7	4
56	57	1
55	56	1
34	34	2
50	51	2
26	26	5
24	24	9
57	60	2
37	38	2
51	51	4
20	33	2
48	48	6
4	35	1
62	62	4
31	31	5
9	9	9
27	64	1
65	66	4
29	29	7
35	65	1
53	53	3
41	58	1
62	63	3
38	38	6
0	0	5
40	40	6
45	45	4
70	70	4
22	24	1
66	66	1
5	7	1
75	75	6
13	13	5
50	50	5
4	5	2
8	8	4
3	3	3
23	24	4
29	34	1
63	63	1
19	23	1
33	34	2
73	73	2
5	6	3
68	71	1
33	33	7
64	65	3
60	60	4
22	38	2
46	47	2
42	43	2
63	64	1
5	5	8
20	20	6
52	73	1
2	3	1
11	13	1
3	24	1
4	4	4
41	54	1
67	67	1
1	2	1
34	35	4
9	10	3
42	60	2
28	77	1
22	22	5
24	25	2
55	55	3
54	54	3
76	77	2
72	77	1
43	43	3
42	56	1
68	68	2
9	13	1
35	38	1
54	57	1
56	56	3
27	27	3
28	28	7
23	23	6
11	30	2
51	52	3
10	10	5
19	20	2
12	12	7
52	56	1
31	32	4
36	36	4
65	77	1
25	31	1
49	75	1
1	1	4
67	72	1
1	9	1
22	23	2
77	77	1
6	50	1
73	75	1
8	48	1
18	18	5
60	61	1
53	54	2
27	28	3
71	71	2
72	73	2
12	14	1
30	30	6
32	35	2
11	11	2
44	44	6
21	35	1
10	29	1
70	72	1
32	32	6
68	69	1
21	23	2
33	36	1
42	42	4
26	31	1
48	49	2
2	18	1
30	33	1
25	30	1
14	14	2
32	59	1
70	71	1
22	60	1
28	38	1
54	74	1
38	39	2
18	21	1
6	7	1
74	76	1
38	41	1
52	67	1
24	66	1
35	35	4
59	59	2
28	33	2
48	52	1
21	21	1
23	26	1
0	4	1
38	64	1
47	47	1
36	38	1
22	25	1
24	29	1
64	64	1
34	70	1
37	61	1
0	5	1
40	68	1
32	33	1
26	27	2
40	41	1
10	21	1
61	68	1
68	70	1
39	41	1
69	69	2
44	45	1
39	39	4
10	19	1
45	75	1
34	38	1
35	39	1
35	37	1
4	6	1
4	24	1
37	37	1
38	71	1
1	22	1
48	54	2
2	9	1
11	29	1
58	58	1
14	22	1
10	11	1
4	9	1
28	29	1
20	29	1
22	26	1
19	19	2
18	19	1
3	45	1
12	18	1
36	37	1
64	66	1
52	52	1
27	35	1
0	23	1
