52	52	3
69	69	4
34	34	2
91	92	8
61	87	1
21	23	1
22	67	3
46	67	1
45	45	2
103	105	1
85	85	1
81	108	1
70	72	1
24	25	1
92	92	9
74	85	2
91	91	15
87	92	1
21	21	2
38	38	1
46	46	3
94	95	3
48	49	1
32	32	2
40	40	2
109	110	2
90	90	14
59	60	1
68	68	1
56	56	1
100	101	2
58	58	6
88	93	1
24	24	1
74	76	2
111	114	1
95	115	1
98	107	1
66	69	1
95	95	4
81	81	5
104	104	2
36	36	2
80	80	5
112	112	1
21	22	3
30	30	3
51	51	5
59	84	1
94	94	2
67	67	1
25	27	3
28	29	2
59	59	3
81	91	4
45	46	2
41	41	1
102	103	1
85	89	3
72	72	3
20	21	1
84	84	1
62	67	3
74	74	4
105	106	3
90	108	1
60	62	1
26	26	3
69	70	1
102	102	5
42	44	1
66	66	3
100	100	2
86	86	4
92	93	6
97	97	4
56	74	1
50	50	2
61	62	2
30	32	1
82	82	3
44	44	2
101	106	2
22	22	6
83	84	2
101	110	1
48	48	1
97	98	1
57	58	2
27	73	1
40	47	1
55	55	3
101	101	5
78	78	1
73	76	1
75	75	3
86	93	1
114	114	1
34	35	3
77	77	2
47	49	1
99	99	3
43	43	2
36	38	1
104	105	2
80	83	1
91	93	3
89	90	1
28	28	4
108	108	2
76	76	1
47	47	5
112	113	1
68	69	3
61	61	3
78	82	3
75	76	1
42	42	1
25	25	1
56	57	1
36	67	1
52	53	1
33	34	1
109	111	2
106	106	4
27	27	2
96	98	2
104	110	1
71	71	1
26	104	1
33	36	1
57	66	1
26	29	3
58	59	3
59	87	1
29	29	3
27	30	1
58	65	1
65	65	3
35	35	1
89	92	1
110	110	2
63	63	1
29	31	1
101	104	1
77	93	1
73	73	1
20	20	3
22	29	1
93	93	5
75	79	1
25	26	2
80	81	2
50	100	1
89	89	1
54	54	1
87	87	1
78	80	1
72	103	1
40	53	1
47	107	1
108	110	1
27	46	1
39	51	1
71	74	1
31	31	2
78	85	1
68	70	2
72	107	1
62	63	1
96	96	1
88	91	1
113	113	1
27	32	1
90	91	1
75	93	1
49	49	2
80	95	1
79	80	1
84	85	1
111	113	1
63	64	1
105	105	3
65	92	1
106	108	1
64	102	1
99	107	1
27	28	1
60	60	2
45	71	1
81	83	1
48	112	1
71	72	1
64	72	1
96	111	1
75	110	1
35	67	2
79	79	1
28	44	1
113	114	1
37	37	1
59	97	1
101	109	1
78	79	1
56	59	1
61	63	1
47	73	1
58	82	1
54	56	1
81	93	1
63	65	1
83	86	1
39	40	1
111	111	1
36	37	1
97	99	1
