152	152	2
170	170	1
14	14	1
79	80	1
90	90	3
183	184	1
112	112	1
38	38	3
24	24	6
42	44	1
68	68	2
180	182	2
89	89	1
122	123	1
101	101	2
121	121	3
82	82	6
166	168	1
77	78	1
148	148	3
177	177	1
17	55	1
57	87	1
146	147	1
62	62	1
34	34	1
179	179	3
86	91	1
125	125	2
96	96	1
3	4	1
164	165	4
85	85	1
44	45	1
15	31	1
69	70	1
15	16	2
129	139	1
27	27	3
155	155	3
21	22	3
30	34	1
79	107	1
64	66	2
118	137	2
55	55	3
73	73	1
59	60	1
27	32	1
111	111	4
93	93	2
53	53	1
93	94	1
102	102	2
46	47	2
100	100	2
124	125	2
88	88	2
68	73	1
40	54	1
74	75	2
102	103	1
2	2	1
146	146	3
65	65	1
123	124	2
31	36	2
176	176	3
72	72	3
135	135	1
53	55	2
81	81	4
41	41	3
48	48	2
39	39	2
151	158	1
184	184	1
143	143	2
18	36	1
71	71	3
89	110	1
41	48	1
25	41	1
174	190	1
124	160	1
167	167	4
173	173	5
45	45	1
87	87	1
156	157	1
136	137	1
81	94	1
187	187	1
159	160	1
32	32	1
189	189	1
145	169	1
63	64	1
31	32	3
57	57	3
113	113	1
116	116	1
141	142	2
172	173	1
79	109	1
131	147	1
115	117	2
37	37	2
133	133	1
53	54	1
153	153	1
2	3	1
66	66	3
74	74	3
92	92	2
12	12	1
54	54	1
71	72	2
30	30	1
94	98	2
172	172	1
107	107	2
148	149	1
9	9	1
25	57	1
165	182	1
111	112	1
137	139	1
167	189	2
158	158	3
117	117	3
36	36	1
4	4	1
162	162	1
187	188	1
20	20	1
137	138	1
7	7	2
15	15	1
151	151	3
56	57	1
157	157	3
48	56	1
120	121	1
107	124	1
70	70	1
95	96	1
125	126	1
62	63	1
169	169	1
33	37	1
76	76	2
148	158	1
26	42	1
114	116	1
141	141	2
8	8	3
186	187	1
112	119	2
104	104	2
188	188	2
72	80	1
47	47	1
38	39	1
61	64	1
38	88	1
89	90	1
75	75	3
12	16	1
132	132	1
154	154	1
108	109	1
111	113	1
43	43	1
83	83	1
39	40	1
28	29	1
20	30	1
129	129	1
11	11	1
101	104	1
130	131	2
89	120	1
106	106	1
82	83	1
143	144	1
5	5	1
102	116	1
98	98	3
25	48	1
58	58	2
42	43	1
168	168	2
95	95	1
177	178	1
77	77	3
94	94	2
60	114	1
142	142	2
121	143	1
18	19	1
159	159	1
31	37	1
140	140	1
57	58	1
68	69	1
34	37	1
42	47	2
77	127	1
149	151	1
78	78	2
6	6	1
181	181	1
150	150	1
124	124	2
47	54	1
160	160	2
104	105	1
47	55	1
21	27	1
139	139	1
27	31	1
29	29	2
140	143	1
60	60	1
130	130	1
16	40	1
42	42	2
80	80	1
97	112	1
112	114	1
79	79	1
116	119	1
101	102	1
37	38	1
180	180	1
22	22	1
174	174	1
110	110	1
136	136	1
13	13	1
86	86	1
28	28	1
178	179	1
101	103	1
3	3	2
117	119	2
138	138	2
63	65	1
175	175	2
111	121	1
150	151	1
156	156	1
37	41	1
86	98	1
119	139	1
152	153	1
54	55	1
44	116	1
84	84	1
112	117	1
157	183	2
71	89	1
131	133	1
46	46	2
105	105	1
94	95	1
168	169	1
10	11	1
131	131	1
160	167	1
71	73	1
23	37	1
149	149	1
120	122	1
190	190	1
56	56	1
170	181	1
35	101	1
41	42	1
140	154	1
99	99	1
140	141	1
128	128	1
162	163	1
171	172	1
26	26	1
85	119	1
174	175	1
19	19	1
45	47	1
