154	154	3
189	189	4
185	185	7
65	72	1
73	73	1
16	43	1
76	80	1
138	138	7
24	24	6
174	174	3
28	28	5
136	136	4
150	150	4
32	197	1
146	146	2
163	163	3
139	151	1
18	18	4
17	17	2
30	30	6
12	12	7
181	181	5
69	71	1
149	149	3
16	16	5
141	142	1
187	187	7
10	47	1
23	24	4
33	33	8
51	51	5
32	32	5
82	82	3
162	162	1
119	126	2
19	19	4
18	40	1
1	1	7
161	161	3
157	159	1
185	186	2
44	68	1
122	186	1
36	36	7
176	176	5
36	37	6
191	192	1
12	15	1
158	158	1
114	121	1
164	164	2
72	183	1
127	128	4
3	4	1
20	21	5
124	125	1
27	28	2
45	45	6
57	58	1
110	110	6
166	166	7
119	119	2
40	40	3
184	184	5
26	26	5
146	147	1
61	61	3
37	37	4
103	103	1
159	159	9
39	39	5
42	43	1
119	136	1
181	182	1
0	0	4
176	177	2
11	185	1
70	71	3
182	182	3
10	15	1
25	25	5
5	5	6
89	89	1
134	135	1
10	10	4
169	169	5
11	11	3
26	66	1
147	147	4
156	156	6
114	114	1
179	179	4
155	155	5
68	69	1
54	56	2
6	25	1
33	37	5
145	145	3
6	7	1
33	36	1
103	133	1
160	173	2
10	11	1
72	73	3
196	196	4
192	192	7
14	14	4
70	85	1
125	125	4
106	107	2
77	77	2
170	171	2
135	135	6
40	42	1
13	14	1
36	44	1
135	159	2
53	53	1
80	80	1
56	57	2
12	42	2
71	72	1
11	12	3
95	106	1
39	40	4
141	141	4
5	9	1
129	150	1
142	143	4
1	2	3
122	122	4
157	157	2
158	159	2
113	113	3
135	137	2
0	1	4
38	108	1
121	121	5
124	124	3
171	171	3
13	15	1
34	34	3
3	3	4
78	78	1
15	15	4
8	8	5
4	37	1
64	65	2
15	37	1
15	39	2
20	20	1
175	176	1
193	193	8
144	144	3
142	150	1
27	29	2
144	145	2
5	6	2
123	152	1
172	172	7
47	47	4
84	84	7
46	46	3
58	58	4
101	101	3
174	176	1
4	5	2
78	79	2
153	153	2
63	63	1
2	2	3
87	88	2
139	139	5
10	43	1
43	48	1
73	74	1
38	38	1
42	44	1
161	168	1
17	41	1
45	47	2
37	38	2
23	23	3
9	24	1
23	30	2
66	66	2
6	6	3
32	33	1
34	35	2
98	98	2
27	27	5
21	26	2
48	48	3
157	158	3
9	9	7
195	196	2
79	80	1
44	45	3
49	49	5
138	139	1
188	188	1
11	43	1
167	167	4
177	177	3
67	68	3
31	113	1
113	115	1
140	140	3
26	68	1
126	128	1
43	43	4
29	29	1
160	161	2
25	55	2
130	130	2
70	70	1
65	65	3
118	188	1
194	195	5
113	119	1
196	197	1
170	170	1
134	160	1
194	194	2
106	106	1
55	55	1
121	155	1
18	19	2
62	112	1
71	93	2
21	37	1
141	149	2
109	112	1
104	104	1
173	174	1
190	190	1
173	175	1
27	31	1
160	160	5
56	59	1
109	109	2
113	120	1
35	36	5
142	142	2
191	191	4
45	178	2
13	13	3
127	127	2
174	175	1
155	156	2
173	173	1
178	193	1
182	195	1
179	183	2
155	182	2
4	39	1
42	42	2
21	21	3
183	183	8
62	62	4
144	164	1
130	150	1
50	50	3
102	102	1
21	142	1
119	157	1
94	95	1
69	69	4
112	113	1
175	175	2
119	120	1
8	41	1
139	184	1
128	128	1
111	111	2
98	99	1
84	85	1
98	101	2
35	188	1
52	52	1
11	17	1
98	107	1
25	68	1
149	150	1
41	41	6
5	152	1
55	56	3
132	133	1
88	120	1
171	177	2
123	185	1
162	186	1
168	169	1
118	118	1
0	3	1
113	133	1
97	97	2
15	16	2
179	185	1
151	151	4
51	52	1
22	22	1
31	55	1
16	46	1
189	190	2
148	148	1
108	109	1
23	36	1
40	41	1
184	185	1
30	31	2
137	137	3
21	31	1
152	155	1
133	133	1
185	187	1
20	61	1
86	104	1
101	107	1
165	165	2
17	18	2
163	165	1
67	67	2
6	145	1
132	166	1
57	57	1
123	123	3
150	151	1
4	4	5
62	63	1
47	74	1
112	146	1
102	103	2
44	44	1
0	44	1
179	180	1
112	112	2
135	136	3
99	100	1
20	23	1
7	7	1
139	140	1
131	132	1
31	31	3
18	25	2
77	100	1
87	87	2
46	47	1
10	110	1
45	52	1
152	152	2
38	127	1
164	172	1
50	125	1
176	178	3
120	121	1
109	110	1
160	172	1
90	90	1
130	156	1
179	182	1
1	159	1
6	42	1
7	8	1
127	135	1
4	17	1
7	189	1
144	166	1
61	70	1
96	96	2
119	123	1
147	149	1
151	154	1
134	134	1
81	81	1
41	169	1
88	89	1
173	192	1
162	165	1
27	33	1
17	56	1
171	172	1
125	126	1
161	162	1
156	157	1
37	190	1
189	192	1
177	178	1
11	13	1
143	160	1
34	36	1
104	120	1
5	32	1
9	12	1
17	32	1
83	83	1
33	123	1
145	165	1
58	156	1
32	61	1
187	189	1
33	34	1
197	197	1
188	190	1
32	41	1
108	112	1
168	168	1
74	74	1
68	68	1
162	168	1
108	110	2
85	85	1
58	59	1
23	142	1
86	134	1
72	72	1
58	62	1
143	143	1
10	14	1
138	151	1
137	138	1
79	82	1
35	35	1
19	40	1
126	127	1
116	118	1
189	194	1
99	99	1
60	60	1
129	130	2
79	79	1
56	56	1
9	185	1
5	8	2
172	191	1
116	117	1
66	69	1
172	173	1
178	178	1
129	129	1
