57	57	5
6	6	4
46	46	3
105	106	2
108	112	1
58	59	2
130	130	3
134	134	5
78	78	3
63	63	2
103	103	5
14	15	1
74	74	2
0	0	4
41	41	1
84	110	1
69	70	1
27	58	2
11	11	4
68	68	7
85	103	1
12	14	1
42	42	4
119	119	5
133	133	3
26	27	1
33	33	6
79	79	3
120	120	5
8	9	3
27	27	3
62	63	1
62	123	3
80	81	1
116	116	1
25	26	1
124	125	3
84	84	3
2	2	7
33	34	2
8	8	3
40	40	2
82	82	3
93	93	1
117	117	4
5	6	1
114	114	1
15	16	4
112	112	2
112	113	3
113	114	2
22	122	1
37	42	1
41	42	4
123	123	2
33	75	1
73	74	3
67	67	2
123	124	2
116	118	1
1	1	5
48	48	2
107	107	3
62	62	3
18	57	1
68	69	1
47	47	6
20	32	1
31	32	5
5	5	3
124	124	1
44	44	5
122	128	1
12	13	2
70	70	5
104	104	5
97	102	3
23	23	2
34	34	5
4	4	3
55	55	5
77	102	1
45	45	4
111	112	2
23	27	1
21	21	1
96	96	2
115	116	1
27	28	1
86	86	2
79	80	2
107	108	2
5	10	1
32	81	1
128	128	3
31	31	1
19	19	3
98	98	2
36	36	4
90	92	3
81	89	1
118	118	4
71	72	1
60	60	3
65	65	6
32	32	4
90	90	3
95	95	4
10	10	1
29	29	1
7	8	1
77	77	1
92	92	1
50	50	2
18	91	2
28	31	1
59	60	3
113	113	3
94	94	6
132	132	3
113	116	1
99	99	4
16	16	3
100	100	2
34	78	1
38	38	4
118	119	1
104	105	1
89	89	2
61	61	3
121	122	1
72	73	1
13	13	4
94	95	2
38	47	1
83	83	1
22	30	1
18	32	1
22	22	2
127	131	1
108	108	3
28	28	3
103	104	1
99	100	2
85	85	5
93	117	1
122	122	2
24	24	4
56	56	2
87	88	4
34	129	1
131	131	1
47	48	1
36	48	1
35	35	2
19	35	1
115	115	3
126	127	3
101	102	1
58	79	1
125	126	2
75	75	1
105	105	1
77	78	1
20	20	3
109	110	1
25	27	1
30	30	1
111	120	1
125	125	2
46	47	1
111	111	1
91	91	1
44	45	2
102	102	2
36	37	2
81	81	3
77	79	1
108	110	1
15	17	1
61	62	1
126	126	1
6	14	1
65	67	2
100	101	1
55	56	1
128	129	1
17	17	2
64	64	2
101	101	2
15	15	1
58	58	1
75	76	1
5	7	1
18	18	2
18	36	1
47	82	1
69	69	1
106	106	2
116	117	1
12	12	2
59	61	1
16	17	1
3	3	2
66	67	2
100	116	1
78	82	1
78	79	1
111	116	1
76	108	1
9	9	1
103	105	1
43	43	2
72	113	1
125	129	1
98	100	1
25	25	3
27	29	3
98	106	1
11	15	1
44	129	1
71	71	1
74	75	1
122	133	1
16	63	1
95	100	1
26	26	1
47	98	1
19	45	1
72	72	1
33	35	1
76	76	1
85	92	1
