81	113	2
55	56	2
105	105	2
25	25	3
106	106	6
4	31	1
123	123	6
47	47	5
77	92	2
111	113	1
131	131	8
41	42	2
61	62	1
64	81	1
18	18	1
51	55	1
90	90	3
92	141	1
22	22	5
75	77	2
54	54	2
100	100	5
49	49	3
38	38	5
53	53	2
71	71	2
92	92	3
116	117	2
50	50	3
102	129	1
108	109	1
2	2	3
109	109	3
35	37	2
61	61	4
17	17	4
125	125	5
130	131	2
87	87	1
93	94	3
122	122	1
63	63	5
57	58	3
31	31	5
91	91	3
121	121	4
94	94	5
138	138	2
83	83	1
29	30	2
57	57	4
62	63	1
130	130	2
9	9	4
84	84	2
73	74	2
5	5	1
107	108	1
70	70	3
79	80	1
15	15	2
82	82	2
139	139	4
143	143	4
142	143	5
126	127	1
37	37	3
41	41	2
86	86	2
100	101	2
89	89	2
110	110	3
23	23	3
24	24	4
76	79	1
75	75	3
99	99	2
11	11	3
33	33	2
35	35	1
127	127	2
69	69	3
99	100	2
92	93	1
20	20	1
83	84	3
10	10	2
39	40	3
31	33	1
29	29	3
65	65	4
104	104	1
101	102	2
113	114	1
133	135	1
124	125	2
130	133	1
73	101	1
52	52	1
58	58	4
91	97	1
135	135	2
101	101	4
111	136	1
88	89	1
126	129	1
28	28	2
102	102	2
111	112	1
102	104	1
48	48	3
93	93	3
81	81	2
115	115	1
50	52	2
52	54	1
62	62	2
74	75	1
119	133	1
79	79	1
76	78	1
127	141	1
58	59	1
25	26	1
49	50	2
141	142	2
116	116	2
128	129	2
83	85	1
127	143	1
17	18	2
22	23	1
1	1	2
20	21	1
50	51	1
128	141	1
144	144	3
72	73	1
42	42	2
82	102	1
117	119	1
9	19	1
67	67	1
58	62	2
55	55	2
86	91	1
52	53	1
5	6	3
18	19	1
145	145	2
33	37	2
56	56	2
64	64	1
140	140	4
66	66	2
102	106	1
41	97	1
135	136	1
0	1	1
26	27	1
13	32	1
37	41	2
30	39	1
8	8	2
124	124	4
86	99	1
142	142	2
133	134	2
34	34	4
89	121	1
134	134	4
96	97	3
2	3	1
59	60	2
59	59	3
82	83	1
95	96	1
120	120	1
75	76	1
114	121	1
139	140	1
73	73	2
60	74	1
141	143	1
98	98	1
123	124	1
22	25	1
133	136	2
16	16	2
137	137	2
96	96	3
94	95	1
68	69	1
12	12	1
73	77	2
107	107	1
13	13	3
133	133	2
2	47	1
129	130	1
80	104	2
112	112	2
72	72	1
119	119	3
109	110	1
128	128	1
18	37	1
6	6	3
63	92	1
17	21	1
39	39	1
60	60	3
123	137	1
74	74	1
40	97	1
4	4	3
85	85	1
97	97	1
63	64	1
6	96	1
49	58	2
119	120	1
36	36	2
33	34	3
49	74	1
86	94	1
61	75	1
10	11	1
90	108	1
117	117	1
27	29	1
113	115	1
95	97	1
118	118	1
107	109	1
108	108	1
31	40	1
55	61	1
54	100	1
112	117	1
0	48	1
30	30	2
28	29	1
33	80	1
30	31	1
62	67	1
14	14	1
136	139	1
137	138	1
22	41	1
27	27	1
0	0	1
37	38	1
19	19	2
136	137	1
51	51	1
6	95	1
105	109	1
70	72	2
105	106	1
34	35	1
75	82	1
85	86	1
