112	112	2
0	8	2
154	155	3
182	182	6
79	95	1
25	28	3
32	32	3
168	168	5
135	138	3
165	166	1
43	43	3
176	177	1
180	180	2
31	31	2
11	12	1
15	15	5
159	159	3
2	2	2
177	177	3
121	121	2
137	166	1
41	41	5
69	73	1
64	64	4
9	9	9
194	194	1
98	116	1
36	36	3
162	166	2
162	163	1
24	24	4
48	48	3
138	142	1
110	110	4
21	21	4
33	150	1
10	11	1
174	174	3
49	49	1
31	32	2
157	157	5
162	170	1
33	33	6
3	3	1
72	72	1
0	2	3
29	31	2
25	26	1
140	140	3
73	73	1
38	38	6
82	82	1
1	18	1
9	49	2
126	127	1
45	45	7
25	25	4
160	160	3
129	129	2
178	178	1
175	175	1
134	135	5
150	150	1
16	36	1
7	7	2
38	39	1
46	46	5
88	88	3
147	175	1
145	145	4
18	68	1
123	125	2
71	71	4
139	139	4
190	190	2
136	136	3
117	118	1
187	189	1
44	44	1
2	4	1
106	106	3
6	56	1
95	95	2
172	187	1
29	30	1
196	196	1
53	83	1
93	120	1
152	152	3
6	6	1
20	20	5
161	161	3
170	170	4
125	128	1
37	38	4
22	23	2
26	26	5
5	5	5
176	176	3
31	33	1
133	133	4
10	10	3
124	124	2
195	195	2
185	186	1
122	122	3
5	6	3
101	101	4
193	193	1
146	148	2
76	76	1
169	170	1
187	187	2
67	69	2
84	85	1
119	122	1
40	41	3
4	194	1
115	118	1
0	0	2
26	29	1
32	37	1
1	1	3
29	40	2
177	178	1
172	173	1
85	85	2
130	141	1
114	114	2
128	128	2
138	138	2
70	71	1
6	25	2
23	23	6
96	97	1
32	33	1
156	156	1
30	30	3
24	26	1
86	86	1
113	138	2
169	169	3
34	54	1
30	68	1
11	42	2
120	179	1
15	16	1
173	173	1
16	16	2
19	19	3
100	100	1
147	170	1
14	14	4
94	95	1
132	132	4
44	51	1
78	78	2
191	191	2
5	53	1
158	187	1
173	175	1
61	61	2
34	35	2
192	192	4
5	45	1
149	149	5
75	75	1
26	76	3
116	116	1
9	10	3
83	85	1
183	183	4
17	41	1
27	27	2
166	166	2
4	9	1
5	25	1
18	18	1
142	142	2
37	39	1
42	42	5
185	197	1
143	143	2
147	153	2
127	127	1
158	158	1
47	47	2
56	56	2
52	52	2
9	37	1
40	40	4
147	147	2
173	174	1
96	96	2
8	8	2
182	187	1
116	117	1
122	139	1
155	156	2
50	50	4
25	27	1
29	29	1
172	176	1
192	193	1
12	13	2
143	173	1
54	140	2
72	73	3
113	120	2
64	101	1
151	151	2
134	134	1
104	106	1
186	186	4
162	162	2
39	39	3
64	66	1
148	173	1
100	120	1
22	22	1
39	40	5
52	53	1
94	94	1
148	148	2
43	44	1
54	93	1
154	156	1
17	17	3
12	12	2
171	171	1
4	4	4
90	90	1
4	5	2
164	164	1
127	129	1
128	129	1
113	114	1
58	60	1
50	157	1
197	197	2
42	43	3
61	62	1
60	60	2
10	43	1
45	72	1
137	137	1
135	166	1
189	189	3
24	25	1
58	58	1
8	37	1
52	97	1
165	165	1
20	176	1
20	185	1
60	62	1
155	155	2
15	187	1
41	42	1
194	195	1
57	87	1
103	137	2
5	37	1
26	27	1
139	140	1
167	168	2
33	34	1
53	53	1
118	119	1
38	49	1
165	191	1
15	17	1
108	108	2
37	98	1
68	103	1
11	11	2
60	65	1
107	113	1
62	111	1
21	27	1
168	169	1
177	182	1
172	179	1
188	188	1
178	179	1
23	30	1
0	3	1
138	139	2
8	36	1
34	34	2
98	107	1
55	59	1
70	70	1
74	74	1
172	174	1
67	67	1
187	188	1
182	183	1
159	176	1
3	4	1
18	30	1
171	183	1
13	194	1
181	181	1
32	46	1
16	17	1
170	171	1
35	35	1
3	8	1
13	36	1
64	70	1
162	164	1
109	110	1
111	111	1
33	37	1
168	192	1
156	182	1
8	16	1
48	130	1
4	38	1
179	179	1
151	152	1
167	167	1
186	193	1
