75	75	8
74	75	4
36	36	7
68	68	8
76	76	5
91	91	7
26	26	7
93	93	7
48	48	5
55	96	1
59	59	9
66	66	2
102	102	4
65	65	11
92	99	2
52	90	1
23	40	1
32	33	2
54	54	4
69	69	9
27	27	7
34	34	5
96	99	2
41	42	2
36	38	2
38	38	9
89	93	1
29	49	1
37	37	5
84	84	8
92	92	4
33	33	6
44	44	5
86	87	1
83	83	2
73	73	5
58	59	2
88	88	11
50	50	1
29	34	2
46	48	3
70	71	2
22	22	3
82	82	3
42	42	13
71	71	7
49	49	2
51	51	6
52	56	1
89	90	1
31	60	1
96	97	1
39	39	3
57	57	5
80	80	8
63	63	5
62	62	8
32	60	1
67	67	3
94	94	10
64	64	5
85	85	3
70	70	7
56	56	6
79	79	10
41	41	4
53	53	5
99	99	7
35	36	3
66	67	2
28	28	3
75	98	1
87	87	6
54	55	2
74	74	6
38	93	1
60	60	2
27	28	5
78	78	9
31	34	1
29	29	6
58	77	1
46	46	6
95	95	11
22	31	1
60	67	1
31	31	2
45	45	3
82	102	1
81	81	10
46	52	1
42	43	2
51	84	1
53	54	1
80	81	2
23	24	3
60	61	1
89	89	6
101	102	1
67	69	2
56	58	2
58	58	9
25	25	5
44	69	1
26	27	4
26	31	2
77	77	4
95	96	3
65	66	2
101	101	4
57	68	2
43	43	2
40	40	6
33	34	1
35	35	4
28	46	1
49	50	2
90	91	3
69	74	2
70	93	2
46	47	1
99	100	2
23	23	1
48	50	1
24	24	1
47	47	5
87	89	1
83	84	1
90	90	4
98	98	5
95	97	1
41	83	2
27	29	1
87	88	2
56	57	3
63	64	2
61	64	1
26	35	1
55	55	4
100	101	2
70	72	1
83	101	1
56	70	1
28	31	2
46	56	1
30	30	2
83	85	1
52	52	4
33	39	2
30	31	1
74	76	1
35	52	1
60	74	1
86	86	4
81	82	3
72	72	3
39	44	1
38	39	2
59	60	1
25	26	1
96	98	2
29	30	1
76	77	3
97	97	2
39	42	1
53	86	1
50	60	1
34	62	1
86	94	3
35	49	3
50	51	1
44	52	1
57	58	1
57	88	1
31	50	1
85	96	1
27	47	1
60	62	1
28	51	1
52	57	2
57	87	1
61	61	2
77	87	1
41	72	1
34	57	1
39	43	1
52	88	1
77	78	1
97	98	1
40	41	1
34	56	1
96	96	2
85	99	2
100	100	1
67	68	1
88	99	1
65	67	1
82	85	1
66	82	1
61	62	1
71	72	1
88	89	1
83	96	1
28	35	1
26	92	1
51	87	1
64	65	1
44	60	1
69	70	1
53	55	1
51	56	1
36	37	1
34	35	1
24	26	1
93	94	1
