118	118	2
74	96	2
41	41	4
64	65	4
0	0	5
101	102	2
112	112	3
72	72	7
93	95	1
92	92	2
77	77	3
6	6	6
15	15	3
46	46	1
6	9	2
7	7	1
86	86	5
68	73	2
123	123	2
42	42	2
78	124	2
97	97	4
1	1	6
70	70	6
110	120	1
35	35	2
81	82	1
110	110	2
78	78	5
63	64	5
76	76	3
61	61	6
50	50	2
64	64	9
37	37	4
31	31	4
13	13	4
130	130	4
79	79	1
67	67	2
128	128	1
84	102	1
118	119	3
126	126	3
10	10	5
59	59	6
102	103	1
8	8	4
93	93	4
3	4	2
126	131	1
85	85	3
100	100	7
116	129	2
29	31	1
12	12	3
40	40	4
82	85	1
117	117	6
23	24	1
119	125	1
94	95	1
58	58	2
57	57	8
87	105	1
111	112	1
121	122	2
134	134	6
94	124	1
112	113	1
86	112	1
15	16	2
18	18	8
94	96	1
36	36	1
59	77	2
78	81	1
17	76	2
63	63	2
5	5	9
69	70	2
11	12	1
65	65	6
127	128	4
47	47	3
115	115	1
73	73	7
8	13	2
57	58	2
100	102	1
57	61	1
109	109	5
20	22	2
12	13	1
122	122	4
3	3	5
4	34	1
56	56	2
26	26	2
22	22	1
19	19	3
89	92	1
95	95	4
9	9	3
70	118	1
111	111	5
14	14	3
73	77	1
80	81	2
132	133	2
45	45	2
106	107	1
10	65	1
47	48	2
35	36	3
93	94	5
60	75	1
20	20	3
39	39	2
77	82	1
18	20	1
79	80	1
133	133	5
37	38	1
119	120	2
68	68	2
102	102	1
45	46	4
2	65	1
38	38	2
17	17	7
83	83	5
125	125	3
1	62	1
65	66	2
55	56	2
69	69	4
124	124	4
108	108	7
38	46	1
74	74	3
27	30	2
33	33	4
104	104	1
77	78	1
50	85	1
129	129	3
15	23	2
82	82	4
107	111	3
128	129	1
123	124	1
127	127	1
103	104	2
121	121	1
60	60	3
124	125	1
20	28	1
49	50	1
87	87	1
105	105	3
30	43	1
40	41	2
106	122	1
67	68	1
82	90	1
34	34	2
16	25	1
96	96	3
120	120	2
94	126	1
86	87	3
85	86	1
101	101	1
114	129	1
4	4	2
16	16	1
87	89	1
101	114	2
27	34	1
110	111	1
94	94	2
4	19	1
114	114	1
27	28	1
72	73	1
103	103	3
38	47	1
131	132	1
84	84	3
84	85	2
132	132	1
23	26	2
60	68	1
32	32	2
62	62	6
25	25	1
108	120	1
114	115	1
32	51	1
77	84	1
68	71	1
23	23	2
66	66	2
44	45	1
23	25	1
16	27	1
31	86	1
2	2	1
75	76	1
56	130	1
11	11	4
40	115	2
30	31	1
36	39	1
80	80	1
63	95	1
88	93	1
24	39	1
90	90	1
59	60	1
39	40	1
59	86	1
91	91	2
81	81	2
43	43	1
75	75	2
31	33	1
104	106	1
56	58	1
23	32	1
20	60	1
5	6	1
129	130	1
80	96	1
7	13	1
95	126	1
106	106	2
109	124	1
8	32	2
32	33	1
56	57	1
50	55	1
46	47	2
22	23	1
21	23	1
63	108	1
105	113	1
117	118	1
89	90	1
58	85	1
83	84	1
44	44	1
88	88	1
27	27	4
91	93	3
71	72	1
94	120	1
108	109	1
30	30	1
63	67	1
78	82	1
87	88	2
119	119	1
116	116	1
18	22	1
127	133	1
95	96	1
68	70	1
18	19	1
82	119	1
82	96	1
14	22	1
114	120	1
12	47	1
122	131	1
7	20	1
2	4	1
108	111	1
90	91	1
23	57	1
73	133	1
0	67	1
9	63	1
114	130	1
25	45	1
22	110	1
55	55	1
128	132	2
11	73	1
27	37	1
92	121	1
