78	78	3
131	132	1
15	107	1
131	149	1
134	135	3
146	147	1
7	7	1
117	117	2
131	131	3
45	45	2
39	39	3
149	151	2
110	110	2
119	120	3
57	64	1
6	6	4
68	69	1
164	164	4
5	56	1
125	125	2
149	149	2
26	26	6
119	131	1
62	62	2
82	82	1
130	157	1
155	157	1
36	37	2
8	8	6
1	1	6
103	103	1
13	14	1
152	154	1
123	123	1
118	119	1
161	164	1
14	14	1
147	148	1
154	154	3
133	134	1
55	84	1
105	120	1
124	125	1
55	56	1
119	124	1
145	146	1
139	146	1
170	170	2
17	17	2
160	162	1
18	18	2
155	155	2
80	80	2
9	9	7
160	160	5
24	24	5
119	137	1
90	91	3
64	64	3
69	92	2
0	24	1
11	11	3
84	84	4
74	74	2
108	119	1
67	67	1
23	23	1
16	16	1
137	137	3
120	120	1
159	159	3
53	53	1
52	52	2
130	148	1
34	34	2
97	97	1
16	18	2
159	168	1
91	95	1
85	85	2
168	168	1
86	86	3
107	107	2
37	37	3
135	135	1
107	108	3
105	106	2
112	113	1
44	45	3
92	92	3
54	54	2
145	145	3
140	140	3
17	18	2
147	147	3
169	169	3
51	51	1
10	154	1
55	55	4
50	50	1
109	109	4
101	122	1
15	15	6
40	88	1
136	136	2
156	156	3
35	35	1
74	95	1
109	110	2
5	6	2
126	126	5
108	109	2
43	43	1
121	122	1
133	133	2
48	48	3
10	10	2
75	79	1
106	106	4
119	122	1
116	154	1
4	5	1
47	47	1
100	100	2
14	15	1
6	7	1
65	92	1
3	3	6
62	63	3
52	57	1
113	113	1
158	158	3
83	83	4
89	89	2
51	55	1
20	21	1
77	77	3
147	157	1
66	66	2
162	166	1
53	55	2
148	149	2
54	55	1
142	142	2
156	157	1
143	143	2
65	65	1
167	167	3
11	12	3
40	40	2
121	123	1
131	133	1
46	46	2
141	141	3
153	154	1
163	163	3
12	13	2
98	98	1
140	141	1
128	144	1
105	105	1
7	10	1
37	38	3
87	87	1
166	167	1
127	127	1
49	49	2
108	108	1
12	12	2
132	133	1
115	145	1
68	68	1
128	129	1
71	73	2
27	27	4
103	104	1
113	128	1
37	39	1
116	116	1
160	161	1
75	75	1
43	52	1
34	35	1
144	144	2
76	76	2
138	146	1
148	148	3
73	81	1
168	169	1
142	152	1
139	140	1
72	72	1
152	152	3
163	164	1
144	145	3
162	162	1
143	151	1
42	43	1
102	103	1
111	112	1
9	50	1
86	87	1
136	137	1
133	153	1
152	156	1
130	130	1
147	149	1
21	21	2
160	168	1
72	113	1
102	104	1
99	100	1
84	85	2
99	99	1
19	19	1
41	41	3
157	157	3
110	155	1
101	135	1
69	111	1
125	126	1
42	109	1
57	58	1
81	81	1
71	72	1
120	122	1
146	146	1
21	71	1
79	118	1
42	52	1
42	42	2
70	70	2
10	11	1
89	119	1
107	109	1
21	22	1
129	130	1
122	123	1
81	83	1
166	166	2
71	77	1
152	153	1
123	125	1
142	165	1
42	44	1
23	25	1
142	143	1
62	64	1
35	44	1
129	129	1
49	55	1
5	5	1
144	153	1
40	41	1
82	102	1
25	25	1
132	154	1
113	115	1
148	169	1
13	13	1
164	165	1
103	139	1
127	131	1
8	48	1
75	76	1
111	116	1
106	107	1
69	104	1
20	57	1
38	38	1
165	165	1
22	22	1
48	49	1
118	118	1
68	92	1
134	151	1
70	135	1
4	4	1
38	39	1
127	149	1
97	98	1
161	163	1
135	158	1
126	127	1
