15	16	1
104	124	2
97	98	4
123	123	6
118	118	7
63	108	1
59	59	3
105	106	2
32	109	1
32	33	2
127	128	1
130	131	2
97	99	1
9	9	5
30	34	1
83	83	5
114	114	15
33	33	6
62	62	4
48	49	3
57	57	7
98	98	12
100	100	5
50	51	2
67	70	4
110	111	5
131	132	3
41	43	1
111	112	3
60	60	6
24	24	4
86	126	2
115	115	4
107	107	7
23	24	2
28	28	8
104	104	7
62	63	3
130	130	8
47	47	6
70	70	10
68	79	1
80	84	2
16	18	1
49	49	12
108	108	6
65	65	8
0	0	4
18	18	6
64	65	4
51	51	7
75	75	5
94	94	4
109	109	11
38	55	1
72	74	1
30	46	1
52	52	5
93	93	3
74	74	13
90	90	7
105	105	5
29	29	4
102	102	6
88	89	3
111	111	10
31	31	8
39	42	1
63	63	7
94	95	1
46	55	1
116	116	7
110	110	8
39	41	1
69	121	2
69	69	6
68	68	1
80	80	9
113	114	1
84	84	5
129	129	4
86	88	2
76	77	2
26	29	1
112	112	7
13	25	2
42	43	2
44	44	1
58	58	6
92	92	2
29	30	4
4	4	8
121	122	3
32	32	7
86	87	1
131	131	9
17	18	1
101	101	6
109	122	4
12	12	2
32	69	2
53	53	5
64	64	7
45	46	3
106	106	6
92	93	1
125	125	8
87	87	2
69	70	3
85	85	3
79	79	7
98	100	2
41	41	6
81	81	3
40	70	1
91	91	2
22	24	1
89	93	1
30	31	1
79	80	5
132	132	6
113	113	5
93	94	5
120	120	5
112	113	4
106	126	1
114	115	1
121	121	6
95	96	1
54	54	9
3	3	2
30	45	1
38	128	1
102	104	1
53	54	2
74	76	1
76	76	6
41	44	2
52	53	2
89	90	4
96	96	3
9	10	4
81	86	1
2	3	2
126	126	4
94	105	1
77	92	1
68	69	3
24	25	1
43	45	2
45	45	2
91	130	1
19	19	7
52	79	1
95	95	8
56	56	6
1	1	6
60	62	1
102	103	3
123	129	2
15	62	1
28	29	2
66	66	7
46	47	2
111	113	1
102	106	1
77	77	2
67	68	2
50	50	8
119	120	3
49	51	1
89	89	3
10	10	2
14	15	1
2	4	1
3	56	1
5	12	2
48	48	5
77	78	2
7	7	4
74	79	1
54	110	1
63	65	1
119	129	1
15	15	2
71	71	7
103	103	6
22	22	2
129	130	2
5	5	2
34	46	1
84	100	1
97	101	2
109	110	3
62	120	1
27	27	6
27	28	4
103	127	2
67	67	9
14	14	3
60	84	1
99	99	2
98	99	2
30	30	5
100	102	1
122	122	4
4	51	1
11	11	2
11	12	2
60	61	2
120	121	2
101	122	1
16	16	3
72	99	1
122	123	1
37	39	1
31	32	2
12	19	1
72	72	8
33	34	3
43	43	6
20	20	2
38	81	1
132	133	1
78	82	3
40	41	1
23	29	2
92	105	1
0	1	2
43	44	3
26	28	1
26	26	6
118	119	1
84	85	1
46	46	5
73	73	5
1	48	1
130	132	2
97	97	4
65	66	1
81	82	1
32	52	2
118	130	2
97	119	1
125	126	3
66	73	1
30	48	1
126	128	3
82	82	5
88	88	2
115	129	3
66	107	2
83	88	1
3	4	2
67	109	2
88	92	1
28	49	1
119	119	7
66	88	1
61	62	2
108	110	1
133	133	4
17	17	2
55	55	8
2	2	2
77	81	1
80	82	1
13	13	1
2	5	2
27	29	1
78	78	2
61	67	1
85	86	1
20	21	1
101	103	2
8	9	2
37	37	1
99	100	5
44	47	1
96	100	1
73	74	1
61	61	4
21	21	2
42	42	4
97	103	1
84	86	2
115	116	1
44	45	2
79	89	2
127	127	1
69	92	1
40	40	2
53	121	1
29	44	1
89	91	1
14	17	2
41	42	3
119	121	1
58	61	1
6	31	1
84	89	1
74	78	1
105	109	1
22	29	1
106	109	1
5	6	1
39	39	3
112	114	2
107	131	1
12	13	1
52	120	2
56	57	1
78	79	1
93	122	1
40	61	1
40	60	1
11	58	1
117	118	1
51	52	2
110	117	1
28	63	1
115	125	1
117	117	2
65	120	1
11	123	1
94	96	1
7	8	1
13	14	1
14	131	2
34	34	1
53	62	1
79	90	1
93	100	1
124	125	1
87	88	1
42	62	1
8	8	2
3	25	1
66	123	1
80	83	1
104	108	1
107	125	1
15	104	1
8	49	1
39	72	1
72	88	1
39	56	1
67	93	1
107	108	1
15	58	1
46	48	1
107	128	1
107	130	1
124	124	1
39	40	1
22	23	1
72	75	1
121	123	1
58	62	1
116	121	1
63	71	1
106	107	1
32	34	1
70	71	1
