43	43	4
1	1	4
61	62	3
127	127	2
30	30	2
176	176	3
185	185	3
24	24	3
184	184	1
157	183	1
107	107	1
144	144	1
147	147	1
40	40	2
159	159	3
118	119	1
111	112	2
16	16	3
112	149	2
183	183	5
160	165	1
12	12	4
161	162	2
22	23	1
7	8	2
181	187	2
74	74	2
35	35	2
186	186	1
47	125	1
0	0	3
154	155	3
182	183	1
14	23	1
60	60	1
189	189	3
47	47	2
45	46	1
72	72	1
48	184	2
138	138	1
16	171	1
7	7	2
177	177	3
175	175	1
41	41	3
166	166	3
161	161	1
123	124	1
27	27	3
183	194	2
20	20	4
33	37	1
42	42	2
44	44	3
153	153	2
14	15	2
57	57	1
113	115	1
194	194	4
49	50	2
13	13	3
25	25	1
46	47	1
14	14	2
150	152	1
188	189	1
46	46	2
81	87	1
182	182	2
170	170	1
164	164	3
62	64	2
181	182	1
73	81	1
139	139	1
68	68	2
117	117	3
191	191	2
94	95	1
41	42	1
115	115	2
181	181	2
64	65	3
178	193	2
192	193	1
3	3	1
5	5	1
141	141	3
42	182	2
195	196	2
79	82	1
45	45	1
32	35	1
173	173	2
15	15	3
125	133	3
5	7	1
4	4	3
5	6	1
18	19	3
36	36	4
0	2	2
50	50	3
86	86	1
47	52	1
39	39	2
174	174	3
82	83	2
98	98	1
160	166	1
34	36	1
26	37	1
20	34	1
87	87	3
105	105	1
69	69	1
0	4	1
176	177	1
11	13	2
14	44	1
163	165	1
133	133	1
155	155	1
165	166	1
169	169	4
98	115	1
189	190	1
14	43	1
188	188	3
190	191	1
187	187	3
95	95	2
108	110	1
29	29	1
16	20	1
142	143	1
134	138	1
70	70	2
71	71	2
97	97	3
53	53	4
110	110	3
23	27	1
59	61	1
140	149	1
15	16	1
179	180	1
73	74	2
38	38	1
17	17	2
48	48	4
195	195	2
136	136	3
2	22	1
156	156	1
28	28	3
49	49	1
10	10	3
44	45	1
100	100	2
1	7	2
101	101	1
119	119	2
24	25	1
196	197	1
176	188	1
96	96	1
23	25	1
70	72	1
94	104	1
154	154	1
76	76	1
13	14	1
123	123	1
136	137	2
15	17	1
168	169	1
81	81	1
125	129	1
172	173	1
32	33	1
70	71	1
72	73	1
194	195	1
122	122	2
64	64	1
159	160	1
124	124	1
17	18	1
22	22	1
93	105	1
6	6	1
162	164	1
136	138	1
23	23	1
31	32	1
94	94	2
130	130	1
55	56	1
19	23	1
153	171	1
181	191	1
33	34	1
148	148	2
102	102	1
32	32	2
164	165	1
3	8	2
52	52	2
37	37	1
165	165	1
51	51	1
80	123	1
45	126	1
55	55	1
180	180	1
106	106	1
127	128	1
58	63	1
158	158	2
150	150	2
83	83	1
29	31	1
55	59	1
88	90	1
11	11	1
85	85	1
6	8	1
19	33	1
140	140	1
25	38	1
34	35	1
19	19	1
104	104	1
18	18	1
66	66	1
178	178	1
16	21	1
151	186	1
9	12	1
