66	81	1
14	14	6
45	45	5
48	83	1
86	113	2
155	155	4
53	56	1
62	62	3
131	131	2
102	102	3
161	161	4
99	115	1
106	109	1
7	15	1
96	96	1
68	76	2
23	23	7
166	166	5
87	87	2
93	93	2
17	17	4
15	15	3
27	27	2
0	0	4
100	101	1
40	40	7
3	99	1
98	99	1
65	65	2
7	7	5
9	9	7
3	7	1
117	130	1
76	76	2
87	88	1
21	21	8
139	139	2
86	86	2
145	165	2
101	105	1
165	165	4
146	146	6
153	153	3
79	79	3
139	169	1
127	128	3
125	164	1
64	87	1
54	54	3
147	148	1
4	126	1
167	168	2
3	3	7
25	25	8
81	82	1
103	103	2
4	9	1
46	46	4
136	137	1
11	11	2
2	2	3
93	94	1
119	119	1
140	140	1
122	122	5
10	10	2
110	110	2
36	36	4
147	147	3
37	44	2
86	91	1
164	164	4
42	43	1
72	91	5
118	125	1
75	75	1
126	127	2
113	113	3
40	94	1
128	131	1
74	74	3
20	22	2
1	26	2
163	164	4
132	145	1
35	35	3
45	55	1
166	169	3
9	23	1
5	5	5
159	160	2
145	164	1
127	127	2
47	47	3
70	73	1
123	124	1
19	22	1
85	144	1
159	161	2
115	116	1
144	144	6
143	144	2
36	101	2
12	12	5
136	141	1
6	111	1
39	48	1
116	122	1
53	53	3
8	11	1
14	149	1
110	111	1
130	130	5
21	22	2
37	48	1
79	124	1
14	15	2
159	159	2
130	131	2
151	151	2
86	87	1
76	85	2
45	46	1
105	144	1
109	109	2
18	19	1
18	21	1
39	40	2
82	83	2
42	42	3
119	160	1
17	38	1
83	83	4
97	97	2
72	95	1
163	163	2
143	148	1
1	9	1
4	21	1
136	168	1
39	39	2
140	142	1
71	71	1
152	155	1
22	23	1
6	6	4
137	139	1
132	142	1
142	164	1
72	90	1
3	89	1
16	109	1
158	158	3
8	8	2
34	49	1
3	4	1
44	45	8
69	75	1
6	145	1
150	150	4
135	148	1
153	154	1
134	134	1
69	69	1
71	72	1
81	81	2
145	145	2
124	124	2
24	24	1
27	28	1
88	89	1
6	7	3
117	125	1
16	16	1
104	104	1
35	37	1
99	118	1
118	118	1
117	118	1
77	78	1
160	160	1
162	162	1
63	63	1
142	142	1
100	156	2
37	37	1
90	91	1
50	50	3
83	96	1
57	65	1
34	35	1
127	137	2
111	111	1
85	86	1
65	81	2
110	155	1
4	16	1
149	149	2
126	147	1
110	112	1
23	27	1
85	85	1
106	106	6
126	137	1
136	136	1
152	152	4
83	117	2
89	90	1
137	137	3
68	69	1
105	119	1
12	49	1
54	55	1
77	77	1
65	67	1
11	16	1
107	122	1
24	25	1
4	4	1
144	146	1
43	44	1
12	21	1
119	120	1
39	41	1
130	136	1
51	53	1
122	123	2
127	129	1
11	26	1
85	113	1
143	143	2
149	160	1
168	169	1
50	92	1
52	52	1
43	89	1
142	163	1
43	43	1
120	125	2
18	18	1
84	90	1
91	91	2
90	90	2
105	122	1
64	65	1
82	90	1
9	10	1
118	119	1
9	11	1
148	148	1
144	145	3
137	151	1
65	66	1
142	151	1
73	74	1
72	94	1
155	159	2
167	167	1
105	109	1
147	149	1
19	19	1
135	135	2
34	34	2
67	68	1
119	131	1
160	162	1
45	47	1
33	33	1
8	21	1
138	139	1
24	26	1
146	157	1
123	123	4
11	12	1
35	151	1
18	23	1
94	94	1
140	143	1
114	115	1
16	159	1
84	85	1
64	67	1
116	119	1
98	98	1
89	147	2
21	23	1
169	169	2
44	46	1
95	96	1
112	141	1
144	160	1
36	46	1
112	113	1
67	67	1
1	1	1
91	105	1
135	136	1
129	134	1
73	143	1
139	140	1
92	103	1
105	106	2
14	47	1
96	105	1
10	20	1
9	24	1
109	110	1
2	49	1
46	47	1
41	87	1
127	130	1
57	62	1
51	52	1
88	88	2
103	121	1
132	155	1
122	145	1
128	128	1
80	80	1
66	69	1
16	17	2
0	18	1
154	167	1
53	85	1
107	107	1
157	157	1
143	145	1
108	108	1
4	108	1
20	21	1
144	147	1
6	148	1
121	125	1
13	13	1
101	104	1
44	44	2
129	129	1
133	152	1
145	147	1
0	1	1
99	99	1
16	160	1
138	148	1
168	168	1
34	70	1
71	80	1
63	64	1
1	2	1
88	92	1
7	12	1
6	45	1
8	9	1
26	26	1
47	56	1
3	27	1
