102	102	4
52	56	4
46	49	3
78	91	1
38	39	1
25	25	5
51	51	1
21	22	1
66	66	3
90	91	2
21	21	3
53	53	3
23	23	3
43	47	2
61	65	1
24	73	2
83	83	1
83	87	1
52	52	2
53	55	1
60	61	3
74	74	3
62	63	3
82	82	2
95	95	4
65	65	4
34	50	1
77	77	4
32	34	1
39	72	1
101	101	2
98	99	3
71	71	7
64	67	1
79	80	2
47	47	2
35	35	3
67	67	3
27	29	1
66	67	4
95	96	1
65	78	1
24	104	1
40	62	1
25	38	1
95	105	1
60	79	1
80	80	2
20	21	1
64	65	1
56	65	1
32	32	3
90	97	1
47	53	1
77	92	1
73	73	5
26	27	1
50	50	3
33	33	3
35	68	1
37	37	2
23	105	1
50	71	1
27	27	6
105	105	6
41	41	1
99	99	4
20	20	1
45	45	3
83	84	2
56	56	4
26	38	1
84	89	1
37	38	1
43	44	2
24	24	6
59	60	1
61	61	3
78	78	6
81	81	8
59	59	6
47	58	1
70	70	2
55	55	3
58	58	2
78	79	1
74	77	2
104	104	7
98	98	5
60	64	1
100	100	5
50	79	1
76	102	2
58	103	1
27	28	2
48	49	3
72	73	1
34	34	2
59	78	2
74	95	1
58	76	2
87	87	2
72	72	4
46	46	2
59	97	1
22	22	3
33	34	1
52	99	1
39	39	1
75	75	4
96	96	4
61	93	1
85	85	1
59	96	1
36	36	5
48	48	2
24	74	1
103	103	1
68	68	2
40	83	1
63	63	6
104	105	1
44	44	3
90	90	3
31	31	3
79	81	2
76	76	4
94	94	5
69	69	1
61	78	1
61	62	1
50	75	3
42	42	1
94	99	2
54	54	2
38	38	3
41	42	2
49	86	1
21	24	2
47	86	1
55	57	1
89	93	1
77	100	1
31	34	2
58	61	1
94	95	1
55	56	1
37	81	2
26	26	2
46	47	1
75	77	1
88	88	1
85	86	1
38	43	1
30	36	1
22	71	1
92	92	2
57	57	1
68	69	1
39	64	1
53	66	1
93	93	2
102	103	1
45	76	1
21	32	1
35	36	1
21	23	2
55	66	1
84	88	2
80	83	1
47	54	1
100	101	1
79	99	1
86	87	1
57	58	1
32	33	1
50	65	1
49	49	1
41	44	1
63	80	1
87	88	1
29	29	2
91	91	3
96	97	1
92	96	1
97	97	1
60	60	1
40	42	1
24	47	1
41	43	1
