33	33	6
116	116	6
87	88	3
64	64	7
112	112	5
78	86	1
78	78	1
14	75	1
87	89	1
26	27	2
34	34	2
91	92	1
125	125	4
124	124	3
20	24	1
83	83	1
76	76	4
19	19	1
43	43	2
84	84	2
90	90	3
77	77	2
11	12	1
23	24	2
27	28	4
127	127	4
110	111	1
110	110	1
75	75	2
78	94	2
113	118	1
1	1	3
98	99	1
37	37	1
119	120	1
69	69	1
21	21	2
24	24	4
26	26	2
118	118	2
133	134	5
59	59	1
35	36	1
63	63	6
124	125	1
81	81	5
91	91	3
133	133	1
10	10	3
104	108	1
74	119	1
94	94	3
108	108	4
99	99	1
114	114	4
46	46	2
80	81	2
130	130	2
89	101	1
80	101	2
84	85	1
85	85	3
25	25	1
2	2	2
104	104	3
74	75	1
41	43	1
60	103	1
93	93	1
119	119	4
98	98	1
131	131	5
111	111	2
61	61	3
73	73	7
96	96	1
110	115	1
101	111	1
113	113	4
20	20	2
68	68	2
44	108	2
107	108	1
122	124	1
66	66	4
106	107	2
115	122	1
28	29	1
67	67	1
100	100	3
78	79	2
95	130	1
42	43	4
79	110	1
4	4	2
33	44	1
125	134	1
102	102	3
100	101	1
79	79	2
40	41	1
72	93	2
105	105	1
20	22	1
35	35	2
71	71	2
95	95	3
88	103	2
38	38	2
115	115	2
12	12	2
109	109	3
88	88	1
8	8	2
83	84	1
9	10	2
117	117	3
15	15	4
10	47	1
132	132	1
107	111	1
123	123	2
21	27	1
65	65	1
9	9	2
72	72	1
70	71	4
92	93	2
33	35	2
134	134	3
121	127	2
4	96	1
91	94	1
13	46	1
94	95	2
65	66	3
91	93	1
56	56	2
62	62	1
17	64	1
60	60	2
26	28	1
42	42	1
13	13	2
99	100	1
72	73	1
101	105	2
45	45	1
62	63	1
49	49	1
11	11	6
47	48	1
126	126	2
102	103	2
46	47	1
80	80	2
47	47	3
41	41	1
59	85	1
111	112	1
81	82	1
115	116	2
36	36	1
3	119	1
132	133	1
58	58	1
81	83	1
128	128	1
31	31	2
102	121	1
115	123	1
3	3	1
40	57	1
125	126	1
107	107	1
28	32	1
24	58	1
49	50	1
29	29	2
10	46	1
21	40	1
121	122	2
6	6	1
18	18	3
20	21	1
19	20	1
3	8	1
73	119	1
102	106	1
30	42	1
28	28	1
45	128	1
5	12	1
116	117	1
79	109	1
61	72	1
32	48	1
61	62	1
27	27	1
106	106	2
22	42	1
125	128	1
111	122	1
81	84	1
90	92	1
89	89	1
20	31	1
14	14	1
127	128	1
32	34	1
89	102	1
90	91	1
106	114	1
55	56	1
4	49	1
95	100	1
31	36	1
77	78	1
5	5	1
44	45	1
101	101	1
0	0	1
57	57	1
121	121	1
90	114	1
114	132	1
69	72	1
107	121	1
44	44	1
73	75	1
17	17	1
