32	32	4
138	139	1
2	15	1
11	15	1
44	44	1
174	175	1
196	196	2
183	186	1
170	170	4
61	64	1
161	161	4
236	236	3
151	169	1
53	55	2
2	3	2
217	218	2
11	11	5
182	182	5
197	197	3
42	42	2
39	39	6
9	9	3
15	26	1
153	158	1
177	197	1
0	0	1
184	184	2
175	176	2
115	124	1
126	126	1
152	152	1
27	27	3
238	238	3
37	37	3
115	116	3
171	171	6
128	128	2
120	136	1
177	177	1
146	146	3
83	83	4
20	20	8
61	62	1
188	196	1
177	178	3
16	17	1
122	122	3
107	107	2
139	140	3
64	64	3
145	180	1
175	201	1
0	1	2
228	228	2
126	155	1
233	233	1
173	173	1
102	102	5
38	38	3
100	100	1
3	3	2
16	16	4
190	191	2
242	242	5
3	48	1
205	205	3
31	31	1
56	56	1
215	215	1
38	39	1
58	58	2
189	190	1
30	30	2
29	30	1
60	60	1
125	126	2
209	209	3
86	86	3
216	216	2
241	242	3
61	61	5
136	170	1
187	211	1
79	79	3
4	5	1
207	219	1
29	29	5
8	8	3
95	95	3
128	129	1
106	106	2
157	184	1
65	65	3
97	97	4
6	7	1
217	217	3
11	26	1
129	129	3
41	41	1
32	48	1
12	15	1
121	121	2
203	203	1
31	33	1
130	130	2
127	127	2
71	71	3
53	58	1
22	23	1
78	78	1
72	72	1
13	13	1
208	225	1
125	125	1
164	164	1
178	178	2
239	240	1
96	96	1
69	69	3
15	15	1
123	123	1
26	29	2
34	55	1
218	218	1
1	1	1
7	7	2
81	81	1
179	191	1
37	88	1
203	217	1
150	152	1
165	166	1
101	101	2
43	43	5
59	60	2
190	190	2
76	76	2
108	109	2
236	238	1
9	24	1
151	151	2
67	69	2
28	33	1
118	119	2
155	155	2
73	73	2
131	131	1
136	137	1
183	183	3
67	67	1
54	54	2
206	228	1
147	148	2
17	54	2
96	97	2
192	192	3
108	108	2
154	155	2
175	175	4
158	158	3
161	162	1
180	180	2
35	35	1
36	36	3
137	164	2
205	206	2
160	161	1
169	169	1
163	163	2
109	109	2
182	183	1
98	122	2
16	28	1
222	222	1
217	234	1
139	141	1
25	25	3
17	17	2
159	159	3
144	145	1
228	229	1
198	198	2
9	12	1
10	64	1
45	45	1
103	104	1
70	70	1
74	74	4
149	150	1
23	23	3
30	46	2
50	50	2
85	85	4
105	127	1
44	231	1
114	125	1
209	227	1
172	172	2
73	74	1
124	124	1
170	201	1
49	56	1
89	89	2
162	183	2
157	158	1
139	143	2
118	118	1
150	150	2
102	178	1
80	80	1
175	177	1
230	230	1
26	27	2
55	55	1
26	74	1
114	117	1
201	202	1
110	110	2
206	206	1
138	138	3
220	220	1
82	85	1
160	160	1
95	96	1
215	220	1
151	183	1
187	187	1
114	114	1
48	48	2
17	20	1
229	229	2
133	135	1
104	104	2
6	8	1
21	21	3
50	51	2
174	174	2
208	208	1
54	55	2
146	147	1
217	222	1
137	137	2
141	141	2
233	234	1
151	152	1
227	227	1
47	47	1
19	20	1
10	10	1
186	187	1
64	65	1
65	67	1
32	70	1
32	69	1
167	167	1
40	40	4
152	153	1
63	64	1
24	24	2
134	134	1
116	120	1
17	55	1
207	207	1
4	4	1
149	149	1
68	104	1
5	22	1
19	21	1
140	140	2
62	69	1
157	159	1
102	122	1
204	205	1
14	14	1
135	135	1
128	130	1
150	151	1
137	147	1
84	84	1
212	212	2
26	26	2
212	226	1
200	201	1
43	44	1
13	22	1
168	168	1
187	189	1
241	241	1
2	2	2
117	117	1
53	60	1
223	223	1
82	118	1
57	57	1
144	144	1
190	208	1
227	230	1
153	153	1
120	120	1
59	59	1
220	221	1
77	77	2
169	183	1
22	22	1
202	203	1
33	157	1
40	41	1
140	141	1
39	54	1
84	85	1
165	165	1
231	231	1
63	63	1
179	201	1
176	176	1
62	62	1
176	201	1
140	142	1
226	227	1
