96	96	2
61	61	2
174	174	2
175	175	2
114	114	2
117	117	1
157	157	2
128	152	1
84	85	1
160	161	2
12	12	2
2	3	3
134	149	2
109	110	2
163	163	2
31	174	1
57	57	4
116	116	1
24	26	1
104	116	1
13	13	3
112	112	3
134	134	4
75	75	3
101	106	1
0	0	4
80	81	1
25	30	1
85	85	1
52	52	1
50	123	1
159	163	2
137	138	2
158	158	4
38	38	5
146	147	2
35	35	5
67	67	1
144	147	1
26	27	1
101	101	4
130	141	1
44	70	1
27	27	3
167	169	1
165	167	1
82	85	1
177	178	1
152	152	1
17	17	2
2	5	1
138	138	1
6	74	2
41	50	1
119	120	2
164	165	1
2	2	2
17	37	1
107	107	2
96	98	3
63	118	1
109	131	1
32	35	2
78	78	2
55	76	1
26	28	2
145	158	1
149	149	1
140	144	1
32	32	1
90	117	2
163	165	2
20	46	1
139	139	3
148	157	2
144	144	1
91	113	2
63	63	2
10	10	3
178	178	1
134	135	1
142	156	1
129	129	1
55	55	2
179	179	2
104	115	1
124	125	2
44	45	2
124	124	2
145	145	2
61	140	1
43	43	2
132	132	2
127	148	1
118	118	2
173	173	5
135	136	2
24	24	4
92	111	1
58	61	1
5	5	4
169	169	4
62	63	1
1	2	1
176	177	3
51	51	1
33	34	1
34	159	1
16	16	5
138	150	1
98	115	1
150	151	1
155	162	1
102	105	1
165	168	1
108	108	1
40	55	1
4	4	1
116	117	1
42	70	1
146	146	1
171	171	1
167	168	3
121	121	2
41	137	1
117	118	1
176	176	5
59	60	1
1	4	1
88	88	2
104	104	1
18	19	1
102	133	1
58	59	1
25	27	1
162	171	1
6	6	3
14	54	1
89	100	1
74	74	1
64	76	1
136	136	1
16	18	2
49	51	2
9	10	1
127	129	1
1	1	3
180	180	2
162	162	1
153	154	1
32	34	1
23	35	1
77	136	1
11	13	1
170	170	2
154	154	1
72	72	2
153	153	3
68	68	2
54	54	2
131	131	2
156	156	1
28	28	1
76	76	1
152	156	1
147	147	1
163	167	1
4	27	1
39	39	2
2	58	1
37	118	1
8	9	1
56	60	2
25	25	2
167	167	1
123	124	1
120	127	1
119	119	1
137	137	1
18	45	1
10	20	2
105	105	3
49	125	1
10	11	2
37	37	2
168	168	2
91	92	1
81	82	2
66	67	1
2	6	1
107	127	1
2	10	1
95	148	1
20	21	1
165	170	1
72	137	1
31	32	1
126	128	1
169	177	1
14	14	1
44	44	1
52	61	1
70	71	1
163	170	1
77	77	1
23	27	1
153	155	1
41	41	2
96	97	1
34	34	1
19	21	1
94	94	1
91	96	1
81	81	2
113	113	1
99	101	1
15	15	1
87	87	2
155	156	1
120	120	1
83	86	1
88	112	1
18	18	1
65	65	1
33	33	1
59	59	1
92	93	1
145	151	1
6	7	1
161	163	1
18	21	1
155	161	1
26	26	1
21	26	1
19	99	1
68	71	1
66	157	1
3	13	1
100	101	1
131	175	1
43	44	1
4	9	1
22	29	1
144	145	1
135	135	1
98	140	1
160	160	1
22	25	1
55	158	1
6	15	1
80	141	1
110	110	1
83	83	1
22	45	1
115	115	1
3	3	1
154	155	2
156	158	1
151	151	1
140	140	1
153	169	1
155	170	1
43	168	1
81	127	1
133	133	1
90	90	1
5	6	1
121	122	1
99	99	1
46	46	1
12	45	1
67	137	1
168	178	1
132	133	1
172	176	1
9	9	1
42	42	1
62	62	1
6	121	1
31	31	1
