95	110	1
73	107	1
100	100	1
9	10	1
112	112	2
85	85	4
61	67	2
67	112	1
110	117	1
72	73	2
129	129	2
62	72	1
105	105	3
102	105	1
8	8	3
87	100	1
15	15	1
79	95	1
73	73	1
80	82	1
133	133	1
59	59	2
125	125	2
69	70	2
80	87	1
118	119	1
37	41	2
10	11	2
47	47	3
95	95	4
21	21	3
82	83	2
125	126	1
92	92	2
10	16	1
16	25	2
102	102	1
17	17	2
94	95	3
46	46	3
123	123	1
128	128	1
126	126	2
49	55	1
127	127	1
22	28	1
76	108	1
77	77	3
34	34	1
33	33	3
20	20	1
50	75	1
1	1	1
109	109	1
132	133	2
69	85	1
81	81	1
64	64	1
20	44	1
83	101	1
94	94	3
16	16	1
120	128	1
29	29	1
114	114	1
4	4	2
60	60	3
119	123	1
72	72	3
91	91	2
82	82	2
116	116	4
7	8	1
62	113	1
38	38	4
62	64	1
61	62	1
83	86	2
0	1	1
93	93	3
94	123	2
84	85	1
128	133	1
112	113	2
81	82	1
69	76	1
124	124	2
98	122	1
19	19	2
75	79	1
111	114	1
22	22	2
46	47	2
95	96	2
120	120	5
9	9	3
85	94	1
75	75	3
29	30	1
62	62	1
88	88	1
23	23	1
25	32	1
73	82	1
3	4	2
97	97	2
125	129	1
11	11	2
64	65	1
101	101	1
124	128	1
58	58	2
43	43	4
34	46	1
14	14	2
134	134	1
13	13	2
44	44	2
86	86	2
98	99	1
36	36	1
3	3	2
40	48	1
113	120	1
8	10	1
18	18	2
113	113	1
66	112	3
110	114	2
130	134	1
78	113	2
9	42	1
101	110	2
9	45	1
124	126	1
79	79	3
10	10	2
78	84	1
131	131	2
75	76	2
85	93	1
111	111	1
121	122	2
67	70	1
27	32	1
1	2	2
32	33	1
47	48	1
96	98	1
115	116	1
71	71	1
96	96	3
130	130	1
87	93	1
90	91	2
30	31	1
55	55	2
126	129	1
68	68	2
67	69	1
14	15	1
12	12	1
65	65	1
32	34	1
3	10	1
80	85	1
122	122	2
108	132	1
35	41	1
76	76	1
32	32	1
3	6	1
17	18	2
57	57	1
68	69	1
10	18	2
110	110	2
114	118	1
46	61	1
24	31	1
9	34	1
109	130	1
42	42	1
2	2	3
56	56	1
62	63	1
41	42	1
6	6	1
2	13	1
61	61	1
67	67	1
119	131	1
106	106	2
82	126	1
40	40	1
56	57	1
64	114	1
45	45	1
104	105	2
70	78	1
5	5	3
98	100	1
27	27	1
35	45	1
70	70	1
39	40	1
119	120	1
98	98	1
21	22	1
109	134	1
43	44	1
5	35	1
77	90	1
12	18	1
87	87	1
0	0	1
87	94	1
7	7	3
69	69	1
125	134	1
8	33	1
112	114	1
49	49	1
