67	75	1
56	56	3
6	6	4
50	50	1
131	131	5
21	21	3
120	120	3
73	73	3
46	47	1
137	137	6
115	116	1
39	39	3
119	129	1
55	55	1
105	120	1
100	101	1
95	95	1
28	35	2
9	9	3
135	135	6
56	57	1
75	75	1
62	64	2
19	20	1
80	80	3
150	150	5
68	68	1
139	139	6
14	14	5
2	16	2
107	110	2
128	128	1
121	122	1
78	78	3
84	85	3
134	134	1
96	97	1
107	107	1
53	54	1
20	37	1
132	132	2
65	66	1
119	119	1
102	102	1
3	3	2
23	23	5
142	143	1
141	143	2
96	96	3
10	11	3
109	109	1
70	151	2
13	13	2
108	109	1
127	128	1
69	70	2
48	48	4
73	76	1
64	73	1
27	28	1
104	112	1
53	53	2
141	141	1
20	21	1
92	92	1
149	150	2
129	129	2
55	56	1
29	29	1
130	130	3
22	42	1
31	31	2
122	123	2
87	87	1
5	6	1
143	143	1
103	110	1
112	149	1
96	114	1
34	36	1
118	133	1
67	100	3
121	124	2
89	89	2
149	149	1
35	35	1
30	61	1
77	77	1
98	115	1
28	82	3
130	133	2
17	18	2
116	116	3
12	12	2
13	31	2
16	16	2
110	110	2
107	108	1
79	79	2
22	29	1
71	71	3
122	122	1
75	95	1
109	119	2
123	123	1
117	117	1
4	4	2
101	101	1
36	42	2
65	106	1
40	40	3
7	25	1
103	103	1
113	113	2
42	43	1
22	22	1
98	99	2
120	124	1
93	94	1
28	28	1
98	104	2
130	132	1
66	96	1
104	104	1
40	41	1
115	117	1
26	26	2
31	32	1
119	152	1
57	57	1
3	4	1
74	75	1
21	22	1
137	138	2
20	132	1
151	151	2
126	128	1
50	51	1
4	17	1
45	45	1
50	65	1
83	84	2
27	29	1
138	138	1
65	65	4
65	67	1
30	30	1
124	125	1
109	134	1
37	37	3
47	48	2
34	50	1
32	32	1
75	129	1
118	118	1
86	111	1
72	73	1
17	17	2
29	56	1
71	77	1
40	51	1
124	124	1
119	122	1
140	140	2
43	52	1
22	30	1
69	69	1
39	54	2
19	19	2
7	33	1
143	145	2
85	85	1
99	99	1
11	11	2
41	41	1
111	111	1
126	127	1
144	144	1
137	139	1
85	87	1
144	147	1
145	145	1
62	82	1
119	139	1
7	7	3
114	136	1
136	136	1
81	81	1
114	124	1
33	34	1
66	78	1
41	51	1
33	33	1
29	97	1
93	93	1
62	63	1
73	77	1
63	64	1
38	38	1
100	131	1
30	33	1
11	12	1
83	115	1
110	111	1
43	43	1
62	79	1
112	113	1
147	147	1
146	146	1
