103	103	1
94	105	2
92	92	9
81	90	4
57	58	1
34	34	3
71	71	2
91	91	8
81	91	7
78	78	4
107	108	2
93	94	2
101	102	1
81	81	9
35	37	1
37	38	1
33	43	3
91	92	5
91	108	1
90	92	2
59	90	1
25	31	1
72	72	6
52	60	1
75	75	3
21	21	3
60	86	2
90	90	2
85	85	4
36	72	1
105	105	3
61	61	2
96	97	2
102	102	2
107	107	3
67	72	1
101	114	1
42	42	1
81	108	3
62	88	2
66	67	1
43	56	2
53	54	1
33	33	1
23	23	1
29	29	4
87	87	2
106	106	3
36	39	2
48	48	4
94	94	4
80	103	1
51	51	2
94	96	1
104	104	2
44	46	1
70	70	2
27	27	3
76	78	2
95	97	1
45	45	3
30	31	1
66	68	2
79	79	2
73	80	1
83	87	2
82	84	1
61	62	1
26	47	1
24	24	2
109	111	1
27	97	1
32	32	1
43	44	1
58	76	1
46	46	2
64	74	2
44	44	1
99	99	2
43	43	3
101	101	1
84	84	1
114	114	3
113	113	2
90	100	1
86	86	2
63	73	1
49	49	3
64	71	1
104	105	2
39	39	1
60	77	1
34	44	1
93	93	2
93	108	3
103	105	1
59	59	1
101	108	1
106	108	1
102	109	2
90	93	1
48	97	1
67	67	1
63	63	1
69	91	1
71	72	1
47	99	1
69	73	1
56	91	1
110	110	2
40	40	1
38	38	1
113	114	1
51	99	1
28	31	1
57	66	1
73	73	2
63	84	1
83	88	1
95	95	1
32	36	1
71	106	2
55	55	2
111	113	1
74	91	1
35	35	1
74	74	1
49	50	1
40	44	1
32	43	1
70	73	1
64	64	1
69	69	1
40	97	1
24	25	2
62	65	2
103	113	1
72	92	1
55	57	1
31	31	2
87	88	1
96	99	1
26	26	1
22	24	1
49	59	1
41	45	1
77	94	1
47	48	1
20	28	1
50	60	1
33	34	1
79	110	1
35	36	1
56	64	1
50	50	1
83	102	1
107	110	2
75	78	1
52	109	1
97	99	1
95	96	1
37	81	2
39	40	1
84	86	1
41	54	1
41	41	1
57	57	1
51	74	1
47	64	1
85	86	1
28	28	1
47	56	1
78	97	1
28	29	2
43	51	1
109	109	1
69	77	1
41	49	1
74	78	1
105	111	1
108	113	1
90	91	2
54	55	1
55	69	1
25	27	1
61	105	1
39	48	1
53	61	1
