86	90	2
90	90	3
23	23	3
59	60	1
67	86	1
84	84	1
2	58	1
86	87	1
116	116	2
74	74	3
110	133	1
120	120	3
12	12	2
93	93	2
45	45	2
65	65	5
132	132	1
86	89	1
88	89	2
131	131	5
65	117	1
68	93	2
115	115	4
48	48	7
72	89	1
18	39	1
63	63	4
117	117	4
93	104	1
31	31	2
94	94	9
78	78	5
130	130	4
86	127	1
77	77	5
118	118	4
33	40	1
33	33	1
122	122	2
44	44	7
42	48	1
58	58	3
27	44	1
42	42	1
89	90	6
56	116	1
57	57	5
42	57	2
46	46	6
102	103	2
105	105	3
126	126	5
80	80	1
72	72	3
41	60	2
124	124	4
42	72	1
96	98	2
64	64	4
75	100	2
48	49	1
126	128	1
61	61	4
96	96	3
97	98	1
76	76	3
81	81	2
97	99	1
55	56	1
17	17	2
40	40	1
83	84	1
32	32	1
23	32	1
27	131	1
111	111	3
54	77	1
13	49	2
24	24	1
45	46	5
74	76	1
126	127	1
53	53	3
98	98	5
100	100	2
61	63	3
128	128	6
108	108	4
43	44	2
2	2	2
54	54	3
127	127	3
107	107	3
62	62	2
80	81	1
55	55	3
117	121	1
4	48	2
130	131	1
75	82	1
83	83	2
98	107	2
104	105	1
56	56	4
99	99	2
32	33	1
6	124	1
3	4	1
95	96	1
64	70	1
25	26	2
83	85	2
18	20	1
52	57	1
71	71	1
133	133	1
105	107	1
95	95	2
30	30	2
44	45	1
94	99	1
45	71	1
127	128	1
29	29	1
90	91	4
113	113	2
52	53	3
69	70	1
7	7	3
10	14	1
43	43	4
50	51	2
4	47	2
96	97	1
106	106	2
79	86	2
86	88	1
39	41	1
121	121	2
14	14	2
34	44	2
72	92	1
49	49	3
101	101	1
125	125	3
28	28	4
110	110	4
100	108	1
26	26	1
26	30	1
79	79	5
65	67	2
52	52	4
89	103	1
67	68	1
60	60	2
128	129	1
42	77	2
40	42	1
63	74	1
77	79	2
100	101	4
102	102	1
92	92	3
69	69	1
125	129	1
65	66	2
82	82	3
25	25	1
96	100	1
112	112	1
68	69	2
70	70	2
91	91	3
19	125	1
26	27	1
75	75	3
4	129	1
104	104	1
88	88	2
79	80	1
39	39	3
84	86	1
51	51	3
62	65	2
91	92	2
67	103	1
28	57	1
15	17	1
56	110	1
0	0	1
34	34	2
118	119	1
123	123	2
103	103	3
91	98	1
38	39	2
15	16	1
122	123	1
28	29	1
31	32	1
109	111	1
79	85	2
34	38	2
41	43	1
102	104	1
60	75	1
20	20	1
114	116	1
50	64	2
113	114	1
25	30	1
46	70	1
23	24	1
17	19	1
131	132	1
47	58	1
98	99	1
82	89	2
7	32	1
59	59	1
47	47	1
67	67	1
73	73	1
97	97	2
5	5	1
114	114	2
39	91	1
42	43	1
109	109	1
49	50	1
15	25	1
105	119	1
77	89	1
107	109	1
95	127	1
41	41	1
101	104	1
73	75	1
50	50	2
51	52	1
39	43	1
4	4	1
6	7	1
16	16	1
