115	115	4
14	75	1
22	22	6
85	86	1
66	66	4
19	21	2
49	96	1
81	81	6
60	61	6
85	85	9
132	132	3
70	70	8
80	80	11
74	74	15
68	68	9
52	55	2
16	16	5
26	26	5
108	109	3
108	110	2
35	35	11
21	21	13
44	44	3
64	64	8
16	86	1
97	98	1
93	105	1
58	59	1
58	58	3
61	61	4
54	54	5
90	90	4
56	56	8
14	14	5
84	84	10
101	101	4
8	9	1
28	28	5
52	52	7
94	94	4
95	95	5
71	71	8
6	6	5
13	14	3
28	29	3
101	103	3
8	8	9
1	1	4
124	125	3
27	27	6
113	113	4
87	87	10
99	103	2
72	72	6
16	21	1
3	91	3
72	89	1
100	100	3
73	102	1
102	102	8
32	32	9
3	3	4
30	30	6
123	123	6
116	118	1
106	106	7
83	83	11
122	122	4
12	12	6
4	4	2
125	125	6
75	75	5
33	34	6
49	49	2
131	131	2
104	104	5
11	11	8
57	57	2
69	69	6
99	112	1
23	23	5
33	33	6
25	25	6
49	71	2
7	17	1
106	129	2
64	65	2
87	90	1
13	13	6
76	76	11
50	52	2
1	4	2
43	44	1
114	115	3
111	111	7
77	78	2
50	50	10
91	107	1
5	5	5
36	36	8
42	42	6
109	109	6
65	66	3
115	118	1
79	79	7
7	7	7
24	26	1
10	10	3
77	77	11
43	43	9
6	7	4
45	87	1
119	119	5
34	34	7
31	32	1
18	19	2
78	78	7
121	122	2
2	2	9
16	57	1
60	65	1
116	116	4
63	63	7
38	38	3
71	95	1
133	134	2
92	92	3
19	19	7
93	94	2
17	26	1
11	13	1
120	120	10
50	115	1
112	113	2
118	118	3
127	129	1
91	105	1
129	129	6
126	126	4
57	59	1
18	37	1
53	53	4
53	61	1
113	114	2
7	44	1
55	56	2
22	23	4
35	36	2
107	108	1
78	79	1
29	29	7
48	48	1
130	130	7
65	65	6
128	129	1
73	73	10
56	85	1
67	67	6
20	20	5
13	32	2
112	112	5
55	55	2
122	129	1
34	50	2
105	106	4
107	110	1
62	62	3
126	127	1
124	124	5
135	135	1
82	82	11
83	84	3
96	96	5
0	0	3
36	38	1
31	31	2
24	24	6
61	63	1
58	68	1
23	62	2
59	60	2
94	95	1
68	91	1
133	133	4
121	121	5
99	99	5
115	125	2
78	125	2
22	24	1
72	77	2
101	102	1
129	130	1
117	117	3
80	133	2
37	37	1
11	28	1
7	8	2
64	66	1
0	29	1
66	67	2
65	132	1
86	86	8
9	10	3
50	62	1
82	85	1
108	111	1
9	9	3
97	97	5
23	24	2
108	108	1
49	113	1
96	125	1
92	129	2
92	108	1
130	131	1
97	103	2
44	45	3
97	102	1
89	89	2
74	75	1
50	71	1
92	93	1
1	3	1
42	43	1
45	45	3
55	65	1
90	91	1
43	45	2
117	118	3
91	91	8
106	108	3
93	93	5
75	76	1
31	34	2
21	22	3
46	47	3
70	87	1
18	18	2
127	127	6
68	69	1
30	31	1
86	87	4
24	25	1
100	104	1
0	1	3
21	23	1
114	114	1
24	35	2
95	120	1
54	66	1
119	125	2
9	18	2
45	51	1
72	73	2
25	26	1
134	134	3
68	113	1
81	82	1
45	46	2
103	103	3
15	15	2
98	99	1
2	3	1
16	17	2
105	105	5
5	6	1
17	18	1
82	83	2
121	131	1
63	64	2
61	62	1
46	46	1
34	35	1
7	11	1
30	44	1
30	46	1
73	93	1
23	35	1
88	108	1
117	128	1
0	2	1
53	57	1
66	68	4
12	15	1
27	28	1
20	35	1
54	55	1
11	18	1
22	72	1
72	80	1
44	51	1
62	63	1
89	95	1
70	98	1
17	17	3
50	86	1
14	15	1
98	102	1
57	58	1
107	113	1
89	119	1
52	69	1
98	98	1
23	101	1
21	45	1
11	21	1
80	81	1
97	120	1
76	77	1
96	97	2
11	16	1
109	110	1
0	14	1
12	14	1
7	19	1
116	117	1
127	128	1
60	68	1
99	104	1
1	2	1
54	110	2
104	105	1
104	108	1
55	58	1
119	126	1
99	100	1
47	47	2
80	96	1
