115	125	2
109	109	5
73	75	2
140	141	3
39	40	3
119	119	8
123	124	5
48	49	3
113	115	2
45	68	1
12	12	11
155	155	7
142	142	8
113	119	1
77	77	5
137	138	8
139	139	12
143	143	5
111	112	8
3	25	2
43	43	2
83	83	6
75	75	9
7	9	1
124	124	8
114	120	1
103	127	1
14	18	2
110	110	9
147	147	7
96	97	3
17	20	1
92	92	6
148	148	6
103	103	7
68	70	1
84	84	6
118	120	4
19	19	4
132	156	2
132	132	8
93	93	6
107	107	8
81	82	4
36	36	8
153	153	9
100	136	1
87	139	1
105	105	12
132	137	1
141	142	3
26	26	5
53	53	5
29	116	1
125	125	6
135	135	10
121	121	7
49	52	2
119	134	2
91	96	1
112	116	2
117	117	7
85	85	4
112	112	6
74	84	1
91	91	5
18	18	6
11	11	4
110	116	1
158	158	8
17	17	5
40	40	5
78	80	1
124	145	2
20	40	1
90	90	7
84	86	1
33	33	6
98	98	7
86	87	2
149	150	2
99	99	8
67	70	1
106	107	3
126	126	7
27	56	1
141	141	9
121	122	4
134	134	9
144	144	8
32	32	6
83	85	1
71	71	6
110	115	3
88	89	3
49	49	8
69	69	7
24	44	1
13	14	3
35	54	1
38	38	6
137	137	4
24	25	2
40	81	2
106	139	1
47	47	4
138	139	4
146	147	2
29	34	2
123	157	1
94	96	1
4	4	4
45	45	3
44	75	2
18	20	3
5	7	1
123	123	6
103	152	2
115	124	2
73	73	3
28	28	5
150	150	10
3	4	3
2	2	3
128	128	5
118	124	2
48	48	2
80	80	2
14	15	2
41	44	1
110	134	2
89	89	3
16	49	1
122	147	1
15	15	2
131	131	20
145	145	6
117	118	2
9	10	2
12	13	3
70	71	3
96	96	7
114	114	5
33	35	1
110	112	1
105	106	4
133	133	3
18	31	1
150	154	1
87	94	1
50	50	3
154	154	6
21	21	2
156	156	8
35	43	1
94	144	1
108	108	11
136	136	9
53	55	1
84	111	1
46	48	1
10	147	1
117	119	1
97	97	1
113	113	4
152	155	2
16	39	3
91	92	2
65	66	2
101	101	8
75	106	2
20	21	4
111	132	2
126	130	1
84	109	1
6	6	3
138	138	10
67	67	6
129	129	8
140	154	1
72	72	3
152	152	4
87	121	1
151	153	1
108	109	1
56	68	1
52	52	3
10	10	4
103	105	1
107	117	1
46	46	2
96	107	2
79	80	1
120	120	4
92	129	1
42	42	4
52	53	4
82	82	5
108	111	4
49	50	1
8	11	2
44	45	2
79	79	6
95	95	6
0	4	1
111	111	5
85	86	3
144	149	1
93	108	1
85	108	1
51	51	5
31	31	3
104	105	2
78	95	1
43	51	1
27	35	1
20	20	11
121	127	1
134	135	2
122	123	2
70	70	5
127	127	10
8	8	4
78	111	1
78	115	1
129	157	1
92	93	3
112	113	3
88	88	3
129	130	2
32	43	1
90	105	3
81	81	5
118	137	1
106	106	3
70	86	2
13	13	2
100	100	6
86	86	9
21	31	1
87	87	8
73	111	1
106	149	1
118	118	1
69	70	2
81	83	1
116	116	6
82	93	2
105	111	1
3	3	4
135	136	2
55	55	3
31	32	1
18	19	2
133	152	1
115	115	5
2	32	2
66	66	6
87	88	3
145	146	6
67	103	1
0	0	8
122	122	7
92	94	1
63	63	4
50	109	1
151	151	5
117	145	2
124	125	3
75	76	1
64	90	1
116	118	1
1	38	3
149	149	4
147	148	5
93	96	1
99	100	1
39	43	2
126	127	3
2	3	1
121	145	1
81	107	1
157	157	4
30	102	1
90	92	1
7	8	4
149	154	1
15	16	1
10	89	1
144	147	1
39	39	7
117	125	1
144	156	2
56	56	2
2	158	1
1	1	5
95	96	1
148	149	1
156	157	4
110	146	1
155	156	3
149	155	1
2	22	1
73	100	1
43	50	1
77	86	1
93	97	2
42	89	1
146	155	2
1	4	1
151	152	6
114	116	1
38	83	1
131	158	1
146	146	5
44	44	5
19	20	1
79	99	1
23	23	3
50	150	1
0	1	2
94	94	5
157	158	1
3	158	2
130	130	2
111	117	1
140	140	5
131	132	2
46	47	1
100	102	1
125	126	2
116	137	1
43	87	1
7	7	4
30	135	1
15	46	1
16	28	1
120	130	1
29	42	1
154	155	2
10	36	1
119	120	3
106	131	1
53	83	1
35	35	3
4	23	1
111	143	1
120	121	3
33	36	2
107	108	1
128	147	1
43	128	1
37	38	1
134	140	1
65	69	1
103	104	1
76	76	2
2	12	2
81	115	1
128	129	2
25	154	1
18	42	1
68	92	1
41	42	1
144	148	1
137	140	1
81	86	1
104	104	4
31	122	1
118	121	1
144	145	2
120	147	2
24	24	3
38	68	1
138	140	2
102	102	3
78	78	2
48	78	1
123	132	3
99	121	1
116	123	1
110	111	1
37	41	1
29	29	2
23	24	1
118	123	1
53	54	4
126	132	1
25	26	1
9	11	1
66	157	1
27	27	2
32	41	1
46	50	1
37	37	2
73	107	1
128	149	2
47	87	1
82	95	1
101	102	1
5	5	2
65	95	1
125	134	1
94	95	2
54	54	4
158	159	1
13	155	1
118	154	1
75	88	1
22	22	7
34	96	1
97	142	1
152	158	1
140	142	3
154	156	1
107	135	2
139	142	1
27	28	1
109	115	1
92	96	1
12	14	1
1	102	1
101	148	2
52	57	1
122	146	1
117	120	1
65	65	1
93	116	1
68	68	1
113	117	1
142	146	1
87	108	1
97	98	1
30	111	1
92	95	1
96	112	2
98	99	1
80	88	1
46	90	1
150	158	1
153	158	1
57	76	1
76	77	1
136	137	2
130	131	2
98	105	1
118	119	1
106	147	2
71	73	1
8	10	2
121	125	1
145	153	1
66	131	1
55	56	1
15	37	1
145	147	1
85	107	1
86	96	1
34	71	1
53	57	1
110	136	1
11	21	2
64	64	1
4	45	1
115	146	1
32	33	1
123	137	1
12	146	1
124	126	1
30	30	2
114	147	1
37	125	1
105	107	1
106	126	1
17	22	1
35	36	1
133	137	2
36	45	1
43	129	1
9	9	3
18	25	1
127	131	1
67	68	2
101	131	1
16	19	1
133	153	1
19	41	1
101	158	1
7	37	1
26	41	1
123	126	1
50	51	1
118	125	1
21	22	1
90	91	1
68	69	1
142	143	1
137	146	1
129	131	1
89	91	1
16	17	1
86	90	1
116	129	1
102	103	1
32	35	1
19	21	2
119	142	1
136	145	1
115	116	1
124	141	1
152	156	1
15	17	1
20	24	1
51	55	1
125	151	1
11	12	2
29	30	1
73	101	1
83	84	1
132	138	1
103	128	1
63	77	1
11	16	1
21	40	1
85	93	1
87	89	1
153	156	1
51	63	1
37	39	1
78	82	1
98	103	1
16	105	1
131	140	1
62	63	1
14	14	1
107	153	1
108	125	1
33	67	1
105	110	1
67	87	1
40	41	1
80	82	1
139	140	1
5	132	1
148	150	1
94	97	1
95	138	1
73	88	1
107	110	1
132	142	1
20	34	1
102	157	1
63	68	1
17	18	1
34	34	1
129	132	1
