35	81	1
180	180	3
79	79	1
24	27	1
168	168	1
132	133	1
113	121	1
47	47	6
95	95	2
150	150	2
16	31	1
107	149	1
3	3	1
30	30	1
139	139	1
68	68	1
72	181	4
188	189	2
44	178	1
184	184	5
41	42	1
52	52	1
165	165	3
137	137	2
16	16	3
149	149	4
197	197	1
176	177	1
29	30	2
142	143	1
12	13	1
128	128	4
120	120	1
142	142	4
2	4	1
171	171	4
17	34	1
29	29	2
1	1	1
194	194	4
108	108	4
121	121	1
178	178	1
62	62	1
26	26	3
181	181	1
66	67	2
96	96	2
65	65	2
36	37	1
76	77	2
31	87	1
21	22	1
62	78	1
93	96	2
182	182	1
17	19	1
193	193	3
61	61	2
104	104	1
112	112	1
7	7	3
83	83	2
102	104	2
27	27	1
173	173	1
21	25	1
81	82	1
122	149	1
105	105	1
152	152	1
33	34	1
58	59	2
12	12	8
161	165	1
177	177	4
14	14	2
188	188	1
58	63	1
34	35	4
38	38	1
1	3	1
192	192	2
195	195	5
21	21	2
7	8	3
35	35	2
164	167	1
19	20	3
140	140	4
113	113	2
62	64	1
150	163	1
163	163	1
59	59	4
22	23	2
28	28	1
108	114	1
169	169	3
31	31	1
49	49	1
66	66	4
110	110	2
69	69	1
125	125	1
127	128	2
0	3	1
179	179	6
135	136	1
185	185	1
1	2	2
166	191	2
20	20	3
4	166	1
42	42	2
119	119	1
186	186	2
193	195	1
164	164	1
43	43	1
4	4	1
28	31	1
129	130	1
15	15	2
160	160	3
50	51	2
146	147	1
8	8	1
25	25	2
170	170	3
161	167	2
78	80	1
101	101	1
154	155	1
166	167	1
144	145	1
15	171	1
32	32	1
184	185	1
94	98	1
7	103	1
10	10	1
150	171	1
145	146	1
56	100	1
46	46	1
23	23	1
155	155	2
25	31	2
65	66	1
53	53	1
13	14	2
2	2	1
119	120	1
17	20	1
54	113	1
50	50	2
19	19	1
142	151	1
162	162	3
65	82	1
98	98	2
183	186	1
77	80	1
34	37	2
134	135	1
151	151	1
109	112	2
38	40	1
36	36	1
148	148	3
22	25	1
144	144	2
65	87	1
8	9	1
57	58	1
106	106	1
132	140	2
123	123	1
165	172	1
141	141	1
134	137	1
162	165	1
12	140	1
191	194	1
10	38	1
65	68	1
41	114	1
149	159	1
161	164	1
159	160	1
13	13	4
70	70	2
20	21	2
163	164	1
122	122	2
52	53	1
17	18	1
191	192	1
85	85	1
156	156	2
156	157	1
41	65	1
172	173	1
61	107	1
13	184	1
67	68	1
154	154	2
101	107	1
32	131	1
153	153	1
6	8	1
5	6	2
178	180	1
176	176	2
6	6	1
179	182	1
24	24	1
54	54	1
87	87	1
45	45	1
43	78	1
134	138	1
109	114	1
196	197	2
9	32	1
192	193	1
55	55	1
25	26	1
166	166	1
25	28	1
135	135	2
24	30	1
138	138	1
48	48	2
8	70	1
71	71	1
63	71	1
88	88	1
187	187	1
33	33	2
27	28	1
108	110	1
4	73	1
14	15	1
36	67	1
25	27	1
47	48	1
167	169	1
42	43	1
39	59	1
94	94	1
190	190	2
153	154	1
165	166	1
37	37	1
40	47	1
42	113	1
