227	227	5
61	65	1
116	116	8
75	75	1
9	9	6
206	207	1
11	11	12
102	102	2
27	28	5
221	222	2
235	236	3
55	55	11
193	197	1
17	17	8
159	159	2
109	109	4
219	219	7
171	171	10
202	203	1
181	231	1
113	148	1
241	241	11
172	231	1
52	52	4
226	226	10
164	164	5
115	116	3
215	215	9
70	70	5
40	206	1
41	41	7
60	60	2
15	37	1
206	206	4
53	53	12
2	2	2
62	62	4
200	200	5
220	221	1
169	182	1
25	25	6
6	10	1
197	197	2
151	151	9
43	43	11
186	233	1
81	81	3
179	179	5
171	172	3
32	32	5
181	181	5
247	247	8
84	84	3
174	175	1
46	46	5
7	7	12
38	38	5
73	75	4
31	31	6
15	15	11
4	5	3
10	10	4
51	55	1
110	110	6
47	48	4
166	166	9
71	73	1
233	233	11
46	47	1
20	20	9
110	111	1
63	63	2
79	79	3
49	50	2
244	244	5
117	117	6
175	175	7
167	167	5
228	228	5
220	220	9
177	178	1
4	4	2
78	80	2
153	153	6
108	108	2
19	20	2
231	234	1
175	197	1
40	40	5
36	152	1
111	112	2
203	203	2
208	209	2
231	231	6
246	247	5
193	193	6
5	5	4
21	155	1
23	23	7
216	216	3
19	19	11
172	186	1
37	37	6
69	70	1
213	214	3
118	118	4
168	169	8
115	115	2
240	240	4
105	106	1
190	190	2
176	177	1
61	64	1
216	219	1
2	44	1
64	65	3
197	198	2
59	60	1
187	187	5
236	236	5
28	28	6
234	234	5
30	31	3
8	8	2
87	87	2
14	15	1
146	146	1
37	38	2
156	156	8
91	91	8
225	225	6
160	160	7
239	241	1
167	200	1
187	193	1
98	103	2
243	243	4
189	192	1
238	240	2
71	71	2
21	21	7
230	231	4
229	229	6
151	211	2
22	22	7
155	156	2
177	177	5
7	224	1
207	207	4
26	26	5
38	39	2
237	237	5
212	246	1
43	44	2
33	33	1
245	245	11
44	44	6
77	77	2
198	198	4
101	101	7
94	94	5
35	35	1
15	16	3
180	181	2
230	245	1
25	27	2
51	52	3
16	16	2
47	47	5
119	119	3
208	208	7
189	189	3
41	89	1
102	103	1
230	230	5
246	246	6
224	224	4
34	34	6
172	172	4
120	120	4
196	197	2
247	249	1
179	181	1
154	155	1
116	118	1
68	68	4
24	24	3
157	157	6
176	176	3
170	172	1
186	186	2
26	27	2
36	36	2
184	185	2
145	145	3
86	88	1
210	210	2
72	73	1
204	204	8
210	211	1
2	226	1
68	70	2
182	183	1
236	247	1
219	235	2
113	115	2
166	167	1
50	248	1
157	159	1
11	54	2
65	67	1
61	61	4
90	92	1
8	78	1
153	203	1
218	248	2
184	184	5
168	168	5
35	117	1
211	211	2
3	3	3
48	48	5
223	223	3
188	188	2
4	54	1
182	182	7
239	239	5
247	248	1
55	74	2
226	228	1
216	218	2
103	105	1
113	114	2
205	205	13
158	158	2
35	36	3
214	215	3
154	154	1
50	51	2
33	47	1
189	222	1
212	245	1
180	200	1
29	30	1
64	110	1
171	232	1
176	179	2
146	147	1
1	1	2
218	218	4
215	216	4
92	92	3
75	207	1
155	155	6
67	215	1
193	194	2
6	33	1
154	156	2
73	102	1
193	228	1
93	93	6
201	202	2
45	53	1
175	179	1
168	170	1
240	241	1
51	51	5
85	114	1
213	215	3
209	209	5
66	66	4
49	248	1
231	236	2
197	229	2
87	100	1
101	153	2
23	24	2
93	100	1
82	84	1
244	245	1
180	182	1
17	19	1
83	85	1
173	174	1
88	88	1
237	238	2
186	197	1
47	145	1
113	113	5
222	222	9
233	234	1
12	12	5
44	67	1
73	74	2
212	212	4
167	168	3
178	179	6
229	230	3
78	224	1
49	52	1
75	88	1
6	7	2
76	76	2
85	86	3
183	183	9
194	194	2
214	219	1
35	227	1
223	224	3
211	214	2
209	211	1
165	169	2
44	46	1
30	33	2
168	201	2
44	45	1
16	17	1
29	29	5
89	89	2
65	65	6
114	114	4
160	246	1
179	244	1
203	246	1
193	198	1
161	162	1
60	97	1
90	90	2
19	109	1
248	248	5
199	199	2
99	99	2
233	248	2
61	114	2
22	25	1
56	56	4
163	217	2
174	174	5
38	205	1
238	241	2
235	235	3
14	14	3
120	182	2
107	107	4
59	59	3
244	247	1
198	199	2
213	213	3
164	171	1
98	99	1
201	201	2
72	78	1
96	97	1
57	57	5
120	145	1
30	30	6
69	69	3
228	229	1
27	27	4
112	112	5
193	196	1
39	39	4
178	178	4
174	203	1
222	234	1
114	118	1
180	180	3
234	235	2
55	112	2
238	239	3
201	228	1
13	64	1
111	111	2
205	211	1
74	75	2
150	150	3
184	193	2
80	87	1
77	224	1
97	97	1
84	85	1
76	77	1
70	71	1
232	233	2
203	205	3
98	101	1
25	26	1
209	213	3
107	108	1
1	4	1
186	187	1
224	225	1
12	15	1
17	18	2
18	18	2
57	59	2
24	25	2
172	173	3
54	54	1
95	95	9
236	237	1
202	202	4
98	98	1
61	62	2
55	67	2
77	78	2
63	65	2
28	29	1
19	108	2
193	244	1
162	162	3
227	228	1
158	159	1
42	42	4
102	104	1
173	173	5
83	84	1
163	164	2
86	86	1
31	32	1
233	241	1
226	227	5
36	37	1
33	34	1
2	5	1
89	90	1
35	41	1
45	45	2
196	198	1
179	202	1
27	36	1
112	113	1
200	201	1
65	225	2
188	190	1
190	191	3
18	87	1
64	73	1
78	99	1
163	170	1
183	184	1
78	78	2
214	231	1
185	185	1
221	221	2
42	43	1
43	45	1
85	85	2
186	224	1
79	80	1
186	188	2
195	195	1
36	150	1
201	234	1
181	190	1
30	158	1
65	200	1
92	93	1
19	30	1
238	238	2
67	207	1
170	170	2
192	198	1
165	166	2
151	193	1
173	180	1
103	104	1
178	180	1
217	217	1
225	232	1
214	235	1
170	171	1
177	200	1
168	183	1
182	229	1
96	98	1
65	66	2
67	75	1
106	106	2
163	165	1
203	245	1
201	203	1
211	212	1
219	220	1
217	218	1
26	28	1
174	201	1
242	242	3
168	197	1
236	238	1
117	118	1
167	182	1
167	180	1
87	88	2
203	236	1
230	232	1
116	117	2
191	194	1
213	232	1
163	163	2
76	107	2
95	205	2
106	108	1
231	235	1
149	149	1
81	86	1
80	80	1
94	155	1
66	222	1
95	97	2
212	230	1
195	197	1
39	40	1
220	236	1
58	58	1
208	221	1
108	151	1
6	19	1
243	244	1
15	19	1
118	119	1
185	223	1
35	116	1
220	224	1
82	85	1
67	67	1
204	206	1
21	22	1
100	100	2
55	66	1
192	195	1
40	42	1
13	14	1
66	67	1
214	214	2
218	225	1
52	53	1
79	81	1
82	83	2
184	186	1
231	233	1
187	191	1
184	220	1
194	195	1
50	50	1
78	87	1
211	243	1
109	110	1
161	212	1
51	57	1
169	171	1
166	244	1
220	245	1
60	62	1
29	31	1
71	93	1
179	180	2
104	105	1
151	200	1
94	95	1
196	196	1
8	45	1
80	91	1
164	170	1
153	154	1
36	44	1
38	167	1
54	55	1
207	208	1
118	178	1
18	19	1
