120	124	1
4	5	1
77	77	1
110	114	1
3	5	1
3	3	6
4	4	1
39	39	2
33	33	1
55	55	3
88	90	2
45	45	4
58	58	5
10	11	2
71	71	4
50	67	2
106	106	2
91	101	2
75	86	1
127	127	6
73	73	1
78	81	1
69	71	1
102	102	3
104	131	2
66	66	1
101	103	1
89	89	1
90	102	1
22	22	2
85	87	1
92	92	4
18	47	1
64	77	2
55	56	1
57	57	3
49	49	2
68	68	1
89	90	1
51	53	1
41	41	2
104	104	1
31	33	1
43	43	2
67	68	2
56	56	2
74	85	1
91	91	4
101	105	1
11	11	1
90	90	1
16	18	1
70	70	2
105	114	1
48	48	5
21	21	2
83	97	1
60	62	3
85	85	1
98	98	1
5	5	1
5	23	1
73	74	1
79	79	1
14	14	2
115	118	1
26	30	1
68	77	1
1	1	1
99	101	1
38	39	3
115	115	1
93	93	1
130	130	3
28	40	1
64	70	1
129	129	2
22	25	1
46	46	2
37	39	1
107	107	1
2	4	1
99	99	1
53	57	1
42	80	3
28	79	1
48	52	1
64	65	1
6	6	1
59	60	1
70	112	2
24	24	1
57	119	2
51	51	2
75	76	2
131	131	2
23	24	2
85	86	1
50	50	3
73	80	1
54	67	1
55	74	1
15	15	3
63	63	3
52	53	1
34	34	1
17	20	1
74	77	3
20	68	1
45	47	1
72	72	3
72	76	1
38	43	1
54	54	3
25	25	1
86	86	2
44	44	2
57	62	1
73	78	2
125	127	1
110	110	3
59	64	1
16	16	1
70	71	4
60	78	1
79	84	1
43	72	1
47	76	2
48	49	1
52	52	3
115	116	1
58	63	2
45	50	1
94	94	3
74	74	1
21	22	1
31	31	1
111	111	1
121	121	1
45	112	1
4	6	2
95	95	1
93	95	1
76	80	1
32	32	4
89	91	1
114	114	1
65	75	1
80	80	3
2	2	1
99	104	1
51	109	1
67	67	2
115	117	1
85	103	1
74	92	1
65	66	1
97	97	1
7	8	1
78	82	1
53	53	3
82	84	1
65	69	1
64	64	1
38	121	1
119	119	1
87	87	3
78	85	1
80	83	1
108	108	1
47	82	1
20	21	1
78	79	1
14	27	1
103	103	2
42	42	1
92	130	1
51	70	1
24	29	1
42	48	1
55	58	1
5	24	1
28	28	1
48	69	1
69	69	1
79	81	1
30	31	1
70	78	1
68	73	1
111	114	1
27	27	1
93	94	1
