12	12	3
78	78	5
108	108	5
19	19	1
33	33	5
33	34	1
94	95	2
104	104	3
35	35	6
59	60	3
132	132	3
23	24	5
26	26	5
23	60	2
127	128	1
74	74	4
17	85	1
5	28	1
64	64	9
97	97	5
7	7	3
22	22	6
95	95	2
28	28	3
71	71	4
83	84	1
21	21	5
88	88	4
81	94	1
94	94	4
119	120	1
36	36	4
0	73	1
32	32	3
5	5	6
65	65	2
70	70	4
17	21	1
64	65	3
24	24	5
10	11	2
55	87	1
43	43	4
104	112	3
133	133	2
117	123	1
73	73	6
126	126	3
124	125	3
64	77	1
68	68	3
122	124	2
22	86	1
56	56	7
76	79	1
98	98	6
107	115	1
113	127	1
50	50	7
49	49	2
114	114	6
23	23	4
117	117	6
65	66	2
99	99	2
53	53	4
4	5	1
19	21	3
122	122	2
72	72	1
86	87	4
110	110	1
67	67	2
78	79	3
108	118	1
85	85	3
11	11	6
96	96	4
105	105	3
87	87	3
79	79	6
46	48	1
25	27	2
42	52	1
83	83	2
90	90	1
77	77	1
29	29	2
86	86	3
60	60	2
76	76	7
68	86	1
81	81	3
7	14	1
21	43	1
66	66	3
63	63	6
76	78	2
101	101	2
35	38	1
91	91	1
18	18	1
9	127	1
8	8	5
58	58	2
15	15	1
34	70	1
61	61	3
84	106	1
84	84	3
78	86	1
112	112	3
113	113	3
52	53	1
45	45	4
34	34	2
115	115	5
22	30	1
49	50	1
128	128	2
60	61	1
48	51	1
121	121	8
55	55	2
62	62	5
16	16	1
5	11	1
63	69	1
119	119	4
2	2	4
3	3	4
65	69	3
6	6	5
70	77	1
94	111	1
45	49	1
63	77	1
17	17	3
25	25	2
11	35	1
80	80	7
68	69	1
75	94	1
44	45	1
44	44	4
3	72	1
79	80	1
76	77	3
82	82	4
106	106	5
68	110	2
120	121	1
62	66	1
122	123	3
76	115	2
10	10	2
89	89	2
7	70	1
51	63	1
20	30	1
83	107	1
54	62	1
86	90	1
83	85	1
125	125	5
16	35	1
28	34	2
84	109	1
127	127	1
14	47	2
71	72	1
103	104	1
93	93	2
80	94	1
86	107	1
27	27	1
52	58	1
22	77	1
123	124	1
61	63	1
38	38	1
6	7	1
55	56	1
54	55	1
81	82	1
2	28	1
114	115	2
9	9	2
92	92	2
15	28	2
109	110	1
34	36	1
8	19	1
45	56	1
23	34	2
1	1	1
5	14	1
116	116	1
4	4	1
116	117	1
107	108	1
55	61	1
77	78	2
100	100	2
37	38	1
37	37	2
3	4	2
120	124	1
130	131	2
62	79	1
65	70	1
6	31	1
81	117	1
46	49	1
61	62	1
130	130	2
31	31	2
35	36	1
14	14	3
7	9	1
50	51	1
120	120	1
52	52	2
30	30	1
45	46	1
11	12	1
69	69	2
66	68	4
85	86	1
103	103	2
18	19	1
43	44	1
78	80	1
100	126	1
55	58	1
15	16	1
134	134	2
106	109	1
70	71	1
135	135	1
20	20	2
24	38	1
64	72	1
93	94	1
91	105	1
57	57	2
106	110	1
43	49	1
111	111	3
84	85	1
9	10	1
38	39	1
129	133	1
71	121	1
7	10	1
83	87	1
96	98	1
22	23	1
26	33	1
113	114	1
70	93	1
75	75	1
98	100	1
67	68	1
123	123	1
1	33	1
46	46	1
