24	24	4
40	40	4
64	64	2
197	231	1
162	162	3
65	65	1
26	26	8
175	212	2
208	233	1
115	115	3
59	60	2
155	155	2
172	172	3
182	183	1
102	105	1
21	22	3
59	59	1
233	234	1
20	20	3
77	77	1
85	85	3
150	150	9
50	51	1
100	100	5
28	44	1
39	39	4
147	147	1
212	213	1
177	177	2
231	232	1
93	93	3
220	220	5
109	109	5
39	40	2
27	28	2
114	114	4
68	90	3
28	28	8
12	12	3
73	73	2
41	41	3
197	197	2
52	93	1
207	208	1
207	207	2
243	244	2
175	175	5
226	226	4
237	237	4
11	11	3
186	186	4
27	27	3
23	23	2
56	56	2
176	178	1
52	52	5
0	1	1
211	225	1
229	229	3
82	82	1
85	86	5
33	36	1
4	4	1
203	203	2
225	225	4
2	4	1
32	32	6
152	153	3
151	151	11
84	84	1
103	106	1
228	228	4
156	156	4
191	191	2
44	45	1
238	238	1
103	103	1
111	111	2
10	10	3
50	179	1
185	194	1
29	30	2
54	54	3
15	15	3
212	212	4
17	17	1
40	230	1
157	157	1
55	55	5
5	5	5
96	96	3
244	246	2
219	219	2
50	97	2
31	31	3
201	201	1
180	180	3
206	206	1
76	76	2
46	46	6
99	99	1
34	34	4
200	200	3
230	231	1
7	8	5
202	202	5
228	229	3
8	8	4
4	5	1
29	77	1
8	24	1
116	116	7
31	32	1
185	186	2
69	74	1
104	105	1
40	41	1
208	208	2
48	48	4
92	227	2
18	18	2
169	169	1
43	43	3
233	233	2
233	241	1
17	104	1
155	156	4
121	121	2
245	245	3
154	154	3
64	65	3
173	173	1
96	97	2
234	243	1
49	177	2
205	205	2
100	101	1
178	178	4
29	29	2
164	164	5
218	218	1
50	50	1
193	193	2
118	118	2
188	188	4
57	57	1
95	98	1
95	95	3
167	167	2
160	160	4
247	247	3
208	209	1
75	75	5
106	106	2
176	176	5
50	101	1
9	9	2
55	57	1
100	109	1
118	216	1
175	179	1
199	199	1
198	203	2
47	47	2
70	70	1
68	68	2
231	231	2
234	234	2
147	180	1
33	33	2
102	227	1
53	53	3
38	39	2
229	230	1
110	110	1
166	166	2
100	103	1
222	223	2
48	71	1
189	189	2
77	78	1
15	16	1
178	191	2
106	232	1
48	77	1
92	92	3
199	200	1
30	37	1
19	20	1
36	36	1
81	81	1
14	15	2
42	42	3
153	223	1
181	181	2
38	38	1
114	116	1
69	69	1
92	94	1
37	37	2
192	207	1
229	231	2
167	212	1
45	45	3
69	70	2
190	191	1
191	192	3
120	144	2
44	44	1
88	89	1
82	84	1
157	158	3
4	6	1
1	1	2
214	215	4
187	187	1
192	217	1
176	191	1
57	59	1
156	167	1
202	204	1
71	88	1
22	22	3
183	195	1
19	26	1
215	215	1
230	230	2
182	193	1
232	233	2
204	204	1
166	169	1
5	6	1
168	169	1
244	247	1
30	30	4
183	183	2
153	153	2
60	68	1
165	166	1
42	112	1
190	193	1
16	16	1
3	3	2
186	190	1
159	159	2
241	241	2
14	14	1
6	27	1
94	94	3
217	217	3
51	51	3
145	145	2
91	91	1
75	85	1
112	112	1
114	115	1
48	97	1
50	81	1
236	236	1
207	241	1
52	53	2
115	116	1
18	19	1
167	201	1
149	229	1
211	246	1
92	93	1
171	171	2
113	113	1
158	158	1
163	165	2
229	243	1
47	51	1
184	188	1
211	211	3
78	78	3
90	109	1
185	185	3
7	7	3
86	86	1
4	34	1
42	44	1
176	177	1
237	238	1
184	184	1
63	78	1
25	25	3
152	152	1
103	104	1
21	21	1
90	93	1
219	221	2
242	242	1
19	19	1
180	181	2
101	101	1
58	195	1
211	212	1
249	249	1
79	79	1
95	100	2
170	170	2
174	234	1
36	161	1
188	189	2
107	107	2
71	71	1
206	208	1
173	174	1
146	146	1
55	86	1
216	217	2
33	34	1
22	23	2
226	227	1
248	248	1
6	6	3
247	248	1
220	221	1
90	90	1
75	86	1
192	192	1
81	84	1
62	68	1
102	102	1
186	211	1
222	246	1
186	219	1
111	113	1
16	17	1
198	198	1
222	222	1
153	154	1
239	240	1
210	210	1
190	190	1
164	170	1
224	224	1
61	66	1
159	160	1
204	205	1
191	217	1
