48	48	11
94	114	2
103	103	2
61	61	4
64	64	9
40	41	2
19	19	2
93	93	4
45	45	4
14	14	3
231	241	2
42	42	15
35	35	10
65	65	5
38	38	6
39	39	6
186	188	1
167	167	7
179	179	3
211	211	4
81	81	2
107	107	1
111	112	2
53	53	3
97	97	2
241	241	5
168	181	2
118	118	3
37	37	7
234	234	10
231	231	5
29	33	1
30	30	7
4	5	2
198	198	4
175	175	7
69	69	5
168	168	7
223	223	9
180	231	1
165	165	12
223	226	2
32	32	8
221	222	1
248	248	2
229	246	1
155	155	2
1	1	5
113	166	1
63	64	3
50	56	1
242	242	5
164	164	10
85	101	1
106	107	4
201	205	1
23	23	6
19	27	1
47	75	1
215	215	6
56	56	5
100	100	5
96	98	1
240	240	8
212	229	1
20	20	6
225	225	5
169	169	5
202	228	1
22	22	7
238	248	1
208	213	1
235	235	9
238	242	1
50	50	3
222	223	1
101	102	4
222	222	4
208	246	1
212	212	6
29	164	1
34	35	4
161	161	4
98	98	4
245	246	5
164	165	1
238	238	2
182	182	5
49	49	5
110	110	6
237	237	5
233	234	3
214	214	4
214	225	1
205	206	1
210	211	1
75	97	1
40	40	6
144	182	1
91	92	1
240	241	4
29	29	8
82	118	1
166	166	4
221	221	6
188	214	1
172	172	11
24	24	3
59	61	1
92	92	6
23	24	1
118	119	2
226	226	6
242	243	1
208	210	5
197	198	1
215	220	2
76	76	3
232	232	10
31	31	8
90	95	1
70	71	2
245	245	14
59	59	8
60	60	5
236	236	4
200	200	5
156	161	1
34	34	8
159	169	1
163	163	4
8	40	1
80	80	3
156	156	6
52	53	2
70	70	5
213	213	5
162	162	5
54	54	5
204	204	12
18	18	9
184	184	13
228	229	4
225	226	1
75	118	1
152	152	5
237	239	1
22	34	1
8	8	4
219	219	8
36	36	10
202	202	5
97	102	1
109	109	3
55	55	7
196	199	1
197	200	1
27	28	1
119	119	5
216	217	4
26	26	4
169	197	1
193	208	1
205	236	2
44	44	6
174	174	3
154	155	1
91	91	4
50	71	2
90	92	2
45	53	1
208	208	5
73	74	1
170	171	3
145	145	1
75	76	1
46	47	2
188	191	1
28	167	1
18	20	1
183	183	7
75	75	7
41	41	6
82	83	1
209	209	7
243	244	3
158	158	5
90	90	4
184	194	1
200	220	2
197	197	4
90	101	1
153	153	4
112	112	4
241	242	3
191	191	3
58	58	4
201	201	6
188	188	3
169	183	1
214	218	1
55	57	2
188	189	1
94	94	3
33	35	2
108	108	3
68	68	4
178	179	4
36	207	1
217	218	1
222	239	1
171	178	1
74	74	3
96	99	1
107	108	2
212	213	2
86	86	2
159	159	4
224	224	7
59	65	1
57	57	7
87	87	3
90	91	2
80	83	1
100	101	2
220	220	4
217	217	8
4	29	1
239	240	5
173	173	3
6	158	1
5	5	4
244	244	7
229	230	2
160	160	2
92	93	2
69	87	1
77	101	1
73	84	2
227	227	7
207	207	5
27	27	7
9	9	3
206	206	7
233	236	1
11	35	1
109	110	2
48	93	1
10	36	1
218	218	6
36	245	1
230	230	4
62	62	6
77	78	3
15	205	2
116	116	3
171	171	4
114	114	7
211	212	3
32	33	3
88	88	3
26	32	1
95	95	3
105	105	1
220	223	1
186	191	1
219	221	1
208	209	3
91	93	2
201	202	3
190	191	2
170	170	4
221	240	2
47	47	4
57	69	1
83	83	2
76	77	3
146	150	2
42	77	1
71	72	2
166	167	3
120	145	2
113	203	1
165	167	4
201	210	2
56	61	1
44	113	1
111	111	8
21	21	4
205	205	5
96	96	4
5	6	2
11	11	8
168	172	1
42	60	1
181	185	1
71	71	1
87	88	3
74	82	1
4	4	2
183	224	1
181	181	3
235	236	2
179	180	2
78	79	1
12	12	5
78	86	1
32	46	2
235	241	1
173	174	2
227	246	1
54	63	1
216	221	1
119	174	1
72	72	3
190	190	5
192	219	1
102	102	1
43	43	3
154	154	4
172	206	2
199	199	2
51	101	1
68	87	1
5	51	1
61	62	4
69	70	2
186	186	4
209	210	2
10	10	6
51	51	2
49	50	3
209	224	1
236	241	2
45	46	3
55	179	1
53	67	1
177	177	2
173	244	1
187	243	1
187	188	1
224	225	3
6	208	1
117	223	1
99	99	5
202	203	1
220	246	2
197	235	1
73	75	1
25	202	1
69	77	2
209	246	1
32	111	1
6	15	1
45	203	1
31	32	1
243	243	5
227	245	3
48	49	2
228	228	2
16	21	1
188	244	1
67	67	4
55	56	3
62	84	1
232	248	1
229	229	2
185	186	2
221	223	1
3	11	1
192	192	3
29	155	1
115	116	1
159	160	4
207	208	2
158	159	1
89	89	4
187	190	1
181	213	1
166	171	1
26	28	1
205	245	1
68	110	1
181	182	3
62	68	1
149	149	1
223	241	1
195	195	3
48	51	1
219	220	2
78	236	1
42	43	2
6	6	4
200	239	1
81	83	1
232	233	1
108	109	1
85	108	1
144	144	1
157	157	3
247	247	3
77	77	1
212	244	1
28	28	4
144	197	1
155	207	1
93	109	1
51	228	1
78	78	2
14	19	1
246	246	4
178	178	4
37	54	1
51	52	1
167	168	2
215	216	1
185	200	1
81	82	3
85	86	1
20	151	1
52	52	2
36	37	1
101	101	1
219	239	1
196	196	2
59	145	1
233	233	6
193	213	1
201	214	2
35	36	2
113	113	3
176	177	3
87	117	1
37	41	1
174	235	1
34	43	1
17	17	2
182	183	1
62	63	2
117	117	4
67	75	1
194	196	1
214	216	1
66	67	1
96	119	1
64	111	1
184	185	3
210	210	2
194	199	1
57	59	1
50	51	2
60	78	1
186	187	1
7	8	2
84	84	2
167	226	1
200	222	1
88	89	2
236	237	1
226	234	1
213	231	1
104	120	1
203	220	1
247	248	2
161	162	1
3	3	2
209	230	1
185	208	1
200	211	1
171	172	1
16	16	2
192	197	1
247	249	1
197	215	1
94	95	1
171	223	1
10	113	1
48	50	1
180	185	1
97	98	3
202	205	1
33	34	1
68	100	1
183	211	3
67	68	1
226	227	1
85	87	1
15	15	2
53	54	2
207	209	1
109	111	1
66	66	1
15	38	1
78	248	1
194	195	2
203	203	3
102	103	2
156	164	1
17	22	1
49	76	1
163	178	1
184	186	1
40	150	1
55	193	1
155	156	1
78	80	2
3	205	1
21	22	1
187	187	1
53	55	2
218	219	1
93	94	1
61	78	1
162	167	1
104	107	2
26	27	2
82	82	4
98	99	1
12	13	1
224	243	1
106	106	2
160	162	1
195	197	1
86	88	1
38	39	1
114	115	1
190	218	1
217	219	1
120	120	1
190	234	1
2	2	2
28	29	1
175	182	2
73	73	1
52	100	2
193	193	2
54	66	1
33	33	3
7	9	1
84	85	1
188	209	1
106	108	1
216	216	2
25	26	1
71	73	1
176	178	2
206	208	2
13	15	1
8	160	1
12	44	1
191	192	2
2	3	1
183	185	1
248	249	1
233	248	1
158	173	2
93	144	1
202	229	2
236	243	1
58	60	2
193	195	1
0	0	1
165	171	1
84	200	1
83	101	1
161	165	1
238	247	2
65	91	1
41	63	1
216	222	1
198	200	1
89	94	1
24	25	1
187	189	1
190	233	1
184	233	1
10	11	1
180	211	1
215	217	1
60	90	1
150	150	1
198	226	1
176	176	2
196	197	1
56	57	1
179	234	1
82	85	1
189	191	1
176	195	1
7	7	2
95	111	1
17	25	1
183	213	1
74	77	1
239	239	1
52	59	1
213	215	1
46	204	1
47	201	1
50	79	1
225	242	1
202	226	1
222	237	1
226	228	1
199	236	1
20	21	1
35	38	1
249	249	1
39	45	1
183	184	1
186	232	1
177	189	1
115	115	1
22	25	1
