117	117	3
58	59	2
2	2	6
36	38	1
73	73	11
108	124	1
50	65	1
52	53	3
15	29	1
119	120	1
50	52	1
1	1	6
47	47	4
87	109	1
72	84	1
0	0	6
122	123	1
34	34	3
12	12	7
69	70	1
58	58	5
80	124	1
23	23	3
134	134	4
53	53	3
54	64	1
55	56	2
117	118	4
64	64	6
19	19	3
6	6	1
86	123	1
133	133	3
61	61	7
92	92	4
37	37	5
63	63	5
80	132	1
16	18	2
125	130	1
100	100	1
57	57	6
88	89	1
76	77	2
5	23	1
36	36	2
54	54	2
49	52	1
81	83	1
131	131	2
126	126	5
77	80	4
130	130	3
81	81	2
111	119	2
50	50	8
90	90	4
67	68	3
18	18	2
71	71	5
21	21	2
116	117	2
82	82	7
44	44	6
17	33	1
5	5	2
120	120	6
62	63	3
79	79	5
94	94	2
54	55	2
27	27	2
70	71	1
101	101	2
53	54	3
24	24	7
109	109	2
65	66	2
87	88	3
129	129	3
115	115	3
75	75	6
70	70	5
65	65	5
119	119	2
109	112	1
107	107	1
13	13	4
84	85	2
69	69	4
76	76	5
50	53	1
30	30	4
114	114	1
27	28	1
74	74	2
44	48	3
90	91	1
112	113	2
87	87	3
68	69	2
44	45	3
8	8	3
81	82	1
52	73	1
25	26	1
67	86	1
3	3	4
9	10	4
11	12	1
31	31	4
123	124	1
84	84	2
60	60	6
118	118	3
131	132	1
59	59	3
80	80	6
14	14	1
103	103	3
23	25	1
49	50	3
21	23	1
16	16	3
18	20	1
97	101	2
134	135	1
48	48	1
92	93	2
116	116	1
91	91	3
56	57	2
88	102	1
6	35	2
35	35	3
1	81	1
28	28	4
42	42	1
65	77	1
96	97	1
85	85	2
98	99	1
86	86	2
112	112	4
118	129	1
24	25	1
11	27	1
72	72	2
106	107	1
86	87	3
35	37	1
108	109	1
77	79	2
97	98	1
105	105	1
12	82	2
3	4	2
125	127	1
113	113	3
66	68	5
17	17	2
66	67	1
15	71	1
23	24	2
7	27	1
65	68	1
99	99	4
56	56	3
83	84	2
83	109	1
92	94	2
108	108	1
109	113	1
20	20	1
35	38	1
33	33	1
22	22	1
88	88	2
132	132	2
30	31	2
98	98	2
67	82	1
125	125	2
128	128	1
0	2	3
127	128	1
49	49	2
10	11	2
24	67	1
127	127	2
77	77	4
29	29	3
3	69	1
20	21	1
62	62	1
64	92	1
79	92	1
43	131	1
76	79	1
111	130	1
17	65	2
123	123	3
135	135	1
73	74	2
93	93	3
104	121	1
68	68	4
36	57	1
67	67	1
127	129	1
59	60	3
19	24	1
96	96	2
8	10	1
60	61	1
25	25	2
58	63	1
110	117	1
97	105	1
106	108	2
32	32	3
54	56	1
8	19	1
45	45	3
15	15	1
125	126	2
68	82	1
26	26	2
55	60	1
78	109	1
110	111	2
122	122	1
69	119	1
11	35	1
115	119	1
75	76	1
26	58	2
118	119	1
76	88	1
65	87	2
33	35	1
9	61	1
6	7	1
2	5	1
78	78	1
132	133	1
82	84	1
87	122	1
33	37	1
45	77	1
107	109	1
14	15	1
67	69	1
104	104	1
128	129	2
63	76	1
95	95	1
52	75	1
101	102	1
7	7	2
70	86	1
18	44	1
7	8	1
4	4	1
2	14	1
66	66	3
133	134	1
46	46	1
96	102	1
29	31	1
79	80	1
112	114	1
0	1	1
91	128	1
12	13	1
111	111	2
55	55	1
21	22	1
