30	33	1
177	178	2
149	149	1
60	60	2
63	65	1
58	63	1
39	39	4
129	138	1
49	54	1
151	151	2
65	66	3
175	175	1
12	12	1
112	136	1
42	42	2
41	41	2
138	139	2
148	148	2
102	104	1
175	177	1
64	75	1
7	7	2
7	54	1
38	38	3
131	131	2
103	104	3
10	13	1
95	95	1
92	139	1
97	98	1
167	189	1
27	28	1
124	128	1
64	65	2
55	56	1
33	34	1
120	120	3
133	134	2
78	80	1
18	18	1
55	55	2
137	139	1
169	169	3
79	81	2
136	138	2
55	59	2
29	32	1
81	81	7
43	43	2
4	4	2
44	44	1
147	147	1
87	132	1
136	137	2
150	150	1
13	15	1
146	147	1
89	103	1
105	105	1
13	13	2
17	17	1
97	97	2
22	23	4
112	113	1
28	30	1
47	48	1
39	40	1
148	150	1
8	8	1
145	145	3
188	188	1
83	83	2
169	171	1
45	45	1
125	125	2
61	73	1
159	163	1
45	46	2
107	115	2
140	147	1
110	110	3
166	170	1
110	111	1
143	143	1
76	76	1
147	154	1
24	24	2
60	99	1
140	140	1
88	90	2
6	6	4
104	104	3
173	175	1
174	174	2
171	171	3
87	88	1
25	25	1
123	124	1
137	138	2
175	176	1
94	112	2
29	30	1
119	119	2
142	142	1
167	167	1
156	156	2
165	165	1
159	159	2
106	158	1
161	161	1
56	68	1
58	60	2
146	148	1
171	173	1
144	144	1
158	159	3
29	29	1
30	32	2
117	117	1
163	163	1
170	170	2
63	63	2
46	46	2
64	68	1
107	107	2
71	72	2
106	119	1
183	183	3
24	25	1
70	70	1
21	21	1
143	144	2
11	11	1
121	121	1
32	32	2
37	37	2
181	181	1
66	68	1
77	77	1
82	82	2
98	111	1
38	79	1
68	68	1
28	69	1
84	84	2
145	147	1
99	124	1
99	107	1
72	127	1
72	74	1
75	75	1
122	170	1
92	92	1
48	76	1
80	80	1
74	95	2
9	44	1
100	100	3
168	168	3
139	139	2
164	166	1
114	137	1
52	52	1
22	22	2
56	110	3
96	96	1
188	189	1
178	178	1
57	57	2
172	172	1
143	145	1
30	30	1
19	20	1
112	139	1
95	103	1
132	132	1
6	7	1
119	120	1
186	186	1
126	138	1
184	187	2
99	99	1
31	33	1
187	187	1
88	94	1
86	87	1
72	72	1
78	78	1
173	174	1
182	182	2
129	129	1
119	123	1
67	88	1
7	86	1
0	1	2
135	135	1
10	37	1
40	40	1
108	109	1
26	26	1
71	71	1
2	2	3
186	187	1
122	123	1
152	152	2
101	102	1
179	180	1
56	56	2
166	168	1
84	110	1
44	48	1
116	116	2
106	157	1
125	126	1
92	95	1
119	133	1
28	28	1
65	88	1
90	91	1
62	62	1
145	159	1
108	144	1
48	48	1
16	16	1
15	15	2
92	93	1
122	122	1
20	21	1
174	177	1
178	179	1
5	5	1
104	133	1
73	73	1
18	19	1
176	181	1
130	131	1
97	121	1
185	185	1
154	154	1
164	164	1
158	158	1
167	170	1
181	183	1
65	65	1
33	33	1
86	86	1
160	165	1
