9	9	3
175	175	3
159	160	2
54	55	2
8	8	5
224	227	1
77	79	1
212	213	1
99	99	3
165	165	4
59	59	4
18	22	1
2	2	5
172	172	5
215	215	1
179	179	5
220	222	2
177	188	1
17	20	2
159	159	1
182	184	1
152	152	3
100	100	3
34	182	1
149	150	1
44	44	3
80	80	2
116	117	1
135	136	3
173	173	4
212	217	1
45	45	2
144	149	1
133	133	5
129	130	2
81	81	3
238	238	1
78	78	2
221	221	1
28	47	1
75	122	1
7	7	6
198	198	1
23	23	3
160	160	1
107	107	6
168	168	3
183	183	2
201	201	2
116	116	2
242	242	5
166	168	2
186	188	2
150	151	1
27	27	1
145	149	1
15	20	1
63	63	2
160	198	1
224	224	2
202	202	1
58	58	2
169	170	1
217	217	3
191	191	2
144	144	4
20	20	3
132	134	1
2	18	1
184	184	3
230	230	5
55	55	3
4	4	2
37	38	2
11	11	2
32	55	1
199	199	2
39	39	2
97	97	2
218	218	4
171	171	1
6	6	1
30	62	2
55	61	1
6	7	1
12	12	5
129	129	3
32	32	2
235	235	2
82	83	2
38	39	1
13	13	2
197	197	1
145	147	1
192	208	1
31	31	5
185	185	2
15	24	1
118	118	2
34	179	1
23	125	1
158	159	2
127	127	2
61	61	4
113	114	1
112	170	1
115	115	3
89	100	1
167	169	1
35	35	2
150	150	2
197	230	1
144	146	3
134	134	4
144	203	1
240	241	1
174	184	2
108	108	2
101	101	2
16	16	3
7	13	1
165	166	1
28	29	2
49	49	1
1	7	2
43	44	1
206	206	6
171	172	1
178	178	2
143	143	1
113	113	1
188	189	1
190	190	1
207	208	2
205	205	4
151	153	2
6	14	1
184	185	1
170	176	1
39	48	1
77	81	2
174	175	3
160	179	1
77	77	2
151	151	2
126	126	2
47	47	1
121	152	2
119	119	1
19	22	1
109	109	2
47	48	1
67	67	6
237	237	4
181	181	1
123	123	3
188	188	1
42	42	2
48	48	1
122	169	1
88	95	1
76	84	1
75	76	1
130	130	4
3	33	1
137	137	3
101	102	1
232	232	2
220	221	1
7	8	2
102	102	2
120	133	1
120	120	2
68	68	2
203	203	3
184	187	1
18	18	1
151	152	1
83	83	1
179	185	1
141	142	1
139	139	4
210	210	1
225	226	1
155	155	1
10	10	3
211	211	1
17	18	2
174	174	2
140	140	1
121	121	2
104	104	2
105	105	1
20	23	1
76	76	2
212	214	2
164	164	1
43	74	1
52	53	2
33	33	2
156	156	1
172	173	1
46	46	3
179	180	1
180	180	1
56	56	1
121	122	1
118	119	1
223	223	2
157	157	2
116	118	2
36	59	1
70	70	1
239	239	1
103	138	1
195	195	2
149	149	4
96	96	1
136	137	2
36	36	1
30	30	2
167	167	1
24	43	2
103	103	1
141	141	1
29	29	1
14	14	1
172	202	1
173	174	1
177	209	1
24	24	1
219	220	1
200	206	1
13	15	1
3	3	1
79	80	1
114	114	1
216	216	1
220	232	1
75	75	1
152	159	1
102	103	1
147	147	2
231	231	1
106	136	1
43	156	1
26	26	1
32	145	1
110	110	1
62	63	1
240	242	1
74	74	2
170	171	1
21	21	1
22	23	1
240	240	1
37	37	1
105	121	1
161	162	1
135	135	1
228	228	1
119	149	1
191	224	2
157	166	1
145	146	1
65	65	1
27	28	1
161	168	1
153	153	1
28	28	1
177	178	1
170	170	1
203	204	1
233	233	1
220	220	2
50	56	1
164	167	1
23	38	1
106	106	1
162	162	1
25	30	1
225	225	1
160	161	1
56	57	1
147	149	1
187	187	1
125	127	2
178	179	1
128	128	1
167	194	1
103	104	1
62	62	1
19	19	1
161	161	2
78	80	1
18	162	1
219	231	1
25	25	1
158	158	1
241	242	1
213	214	1
222	222	2
144	145	1
8	9	1
170	203	1
159	169	1
112	112	1
194	194	1
158	179	1
38	42	1
80	82	1
69	69	1
