95	96	1
127	128	5
35	47	1
81	81	2
126	126	5
125	125	5
53	53	3
30	30	8
88	88	3
68	73	1
142	142	6
132	138	2
61	61	3
104	104	4
25	25	4
82	106	1
8	8	4
62	62	2
60	87	1
124	124	6
97	97	4
105	105	5
127	138	1
28	28	9
120	120	4
132	136	1
87	87	4
112	116	1
26	26	4
34	48	1
80	80	2
14	16	2
74	102	2
20	20	7
77	78	1
119	120	1
50	50	2
110	124	1
13	25	2
94	94	1
74	91	1
34	34	7
103	103	5
75	75	2
30	108	1
119	119	7
137	137	4
10	11	1
113	114	1
86	86	1
57	91	1
49	49	4
100	100	6
67	68	1
37	41	1
10	10	5
27	28	3
118	121	1
48	48	5
142	144	1
98	98	3
140	140	3
107	107	3
75	77	1
92	121	1
9	10	3
82	86	1
58	58	4
43	43	6
134	134	6
19	19	3
57	68	1
112	112	6
141	141	6
136	139	1
145	145	2
64	65	1
37	37	7
87	119	1
38	42	1
15	16	3
1	28	1
23	23	7
3	3	2
119	132	1
90	126	2
83	84	2
137	138	5
91	95	1
130	130	4
123	123	7
59	59	2
91	92	2
25	26	2
117	117	3
6	20	1
112	117	2
29	29	5
51	60	1
144	144	3
53	65	1
131	132	3
27	27	2
95	117	1
76	77	1
6	112	1
97	143	2
51	65	2
9	9	4
57	57	6
70	71	2
85	87	1
86	87	2
4	5	2
131	131	2
99	99	4
96	96	2
122	123	4
126	133	1
87	88	2
32	33	4
17	17	2
32	32	3
71	71	3
47	61	1
52	52	5
60	63	2
15	40	2
31	31	1
70	70	3
80	100	1
111	111	3
41	41	6
41	42	2
79	80	3
97	98	3
114	114	1
6	66	2
107	112	1
42	121	1
49	50	2
23	38	1
139	140	1
135	138	3
98	99	2
66	67	2
11	11	5
93	93	3
89	89	4
84	86	1
131	137	1
58	107	1
93	129	1
56	98	1
2	17	1
112	123	1
58	59	1
139	139	6
73	73	3
6	6	5
110	117	1
131	133	3
95	95	2
102	102	2
69	85	2
112	115	1
71	108	1
54	54	1
73	139	1
56	56	4
118	120	1
123	124	2
42	42	5
126	127	1
110	113	1
11	101	2
84	84	1
20	22	1
18	18	3
136	136	2
39	40	1
37	38	1
75	87	2
52	65	2
16	17	1
28	141	1
135	136	1
72	73	1
135	135	2
115	115	2
55	55	5
83	83	2
66	69	1
24	116	1
67	67	4
47	48	1
60	76	1
101	101	2
106	107	1
109	109	4
51	52	1
127	127	1
75	94	1
14	15	1
62	63	1
10	18	1
8	9	2
0	0	2
128	129	1
129	129	2
48	50	1
106	106	2
77	79	1
15	15	1
84	111	1
5	5	1
76	83	1
128	128	2
118	118	2
40	40	1
108	133	1
51	51	2
106	127	1
79	84	1
34	36	1
21	38	1
105	107	1
112	113	1
62	68	1
32	64	1
135	139	1
53	54	2
88	90	2
27	141	1
14	23	1
97	99	1
57	58	2
74	80	1
76	76	2
21	21	5
106	108	1
134	136	1
134	135	2
24	41	2
6	26	1
143	143	3
21	23	1
17	19	1
24	24	2
95	124	1
96	98	1
1	3	1
70	73	1
50	63	1
47	47	3
39	56	1
132	132	2
33	33	3
118	127	1
71	106	1
2	2	4
59	60	1
17	18	1
35	35	2
126	128	1
63	63	3
8	21	1
81	127	1
29	102	1
68	74	1
108	108	1
81	104	1
36	36	2
0	6	1
89	90	1
121	121	3
75	76	1
2	23	1
32	39	1
59	91	1
56	134	1
82	82	1
79	79	1
118	119	2
125	126	1
96	106	2
102	130	1
70	108	1
142	143	3
19	22	1
140	141	1
78	80	1
122	122	1
62	64	2
74	74	2
12	23	1
60	60	1
54	74	1
1	6	2
0	5	1
39	39	1
138	138	1
110	141	1
53	56	1
22	22	1
25	48	1
82	107	1
133	136	1
50	51	1
53	83	1
66	66	2
132	135	1
42	124	1
131	134	1
91	91	1
110	112	1
127	130	1
47	64	1
77	77	1
38	38	1
25	38	1
70	72	1
90	90	1
96	104	1
13	18	1
94	117	1
55	73	1
92	92	1
38	41	1
68	69	1
69	72	1
2	6	1
133	135	1
95	97	1
30	33	1
84	92	1
20	21	1
58	86	1
5	35	1
105	130	1
116	117	1
1	1	2
134	140	1
14	14	1
4	4	1
65	65	1
78	79	1
