6	10	1
64	64	5
153	153	2
1	2	2
57	57	5
8	9	3
165	166	1
19	19	7
119	119	4
38	38	4
166	166	6
84	84	3
19	20	2
49	49	7
6	8	1
86	86	4
63	63	1
14	14	5
144	147	1
170	170	10
101	101	6
87	88	2
134	134	5
10	11	4
67	72	2
120	122	1
69	69	1
8	8	6
108	109	3
28	134	2
21	88	1
10	101	2
2	12	1
136	136	5
38	41	2
79	79	2
45	45	3
25	25	8
39	39	3
97	100	1
40	40	5
26	26	2
163	164	3
152	152	4
100	129	1
108	108	5
50	50	2
53	90	1
43	44	1
169	169	7
89	89	2
0	0	5
13	13	5
51	51	3
132	133	2
160	160	7
106	106	3
55	55	5
135	135	4
41	42	3
132	132	10
54	56	2
130	131	1
138	138	4
134	135	2
21	21	8
144	144	3
73	117	2
104	104	7
88	88	4
131	149	1
141	141	4
43	43	5
7	7	3
47	47	4
96	96	2
13	50	1
102	102	1
115	116	1
2	24	2
83	83	7
100	100	6
158	158	5
13	14	2
143	143	5
85	85	4
155	155	9
153	154	2
147	147	1
9	9	10
110	110	5
20	20	5
34	34	4
88	136	1
162	163	2
67	69	1
112	117	1
146	146	2
113	117	1
64	70	2
144	156	1
48	50	2
50	69	1
167	169	1
107	112	1
4	5	1
93	96	1
124	124	2
140	140	3
44	44	6
163	163	5
3	3	5
139	139	5
150	150	4
152	155	1
21	22	4
119	162	1
148	148	6
19	130	2
151	151	6
57	87	1
165	165	1
69	75	2
15	15	7
93	94	5
13	38	1
1	11	2
137	170	2
48	48	1
14	15	1
11	11	4
145	146	2
167	167	4
141	144	1
23	23	2
112	113	4
66	66	1
41	41	8
33	33	9
44	85	1
72	95	1
135	136	2
131	137	1
6	6	5
145	151	1
69	70	2
20	144	1
5	5	3
121	121	3
44	45	3
78	79	2
137	137	4
142	142	6
93	95	1
157	157	2
140	155	1
151	167	1
91	91	5
143	160	1
87	87	4
147	149	1
162	165	1
116	116	3
99	99	5
54	55	2
120	121	3
126	126	3
132	144	1
58	58	1
116	117	2
89	90	1
2	2	3
100	103	1
27	27	5
13	39	1
122	123	3
15	160	1
85	101	1
11	64	1
125	126	5
10	15	1
26	27	2
72	96	1
71	71	5
70	70	5
129	141	1
10	10	4
3	4	2
42	42	7
65	65	3
164	164	3
36	36	3
12	12	4
47	69	1
23	24	1
159	159	1
133	133	5
161	161	6
116	134	1
79	82	2
125	125	1
131	132	2
140	145	1
75	75	4
7	86	2
101	102	2
149	150	3
83	104	3
115	115	2
35	35	4
27	135	2
16	25	2
154	154	1
123	123	2
103	104	3
49	74	1
152	165	1
108	134	1
49	100	1
154	155	3
6	7	2
122	122	2
76	77	1
56	56	5
6	151	1
123	131	1
70	71	3
52	56	1
2	14	1
93	93	2
124	129	3
98	98	3
92	92	2
3	7	1
151	161	1
16	16	11
49	156	1
49	50	2
71	87	1
131	156	1
45	136	1
139	148	1
158	160	1
81	84	2
163	168	1
80	100	1
76	80	1
99	112	1
147	148	2
20	21	1
81	81	4
94	95	1
24	24	4
131	131	1
149	149	2
11	16	1
121	122	1
97	97	4
148	153	2
107	110	1
140	159	1
76	76	1
62	62	1
18	18	3
107	108	2
168	168	3
141	164	1
36	63	1
0	25	1
147	168	1
63	76	2
18	20	4
77	78	1
6	16	1
109	109	1
53	53	1
34	37	1
74	75	1
128	128	2
52	52	2
37	41	1
7	12	1
17	17	3
50	51	1
73	74	1
2	149	1
168	169	2
153	167	2
82	82	1
125	154	1
133	134	1
72	72	4
11	12	1
75	136	2
130	132	1
120	120	2
57	70	2
109	136	2
109	131	1
22	22	1
80	80	3
84	85	1
5	85	1
45	46	1
106	107	1
103	103	4
46	47	1
10	20	1
4	4	2
26	71	1
77	79	1
57	71	1
13	145	1
137	138	1
140	144	1
63	84	1
157	158	1
92	97	1
12	13	2
39	40	1
2	25	1
56	71	1
73	80	1
111	118	1
130	130	3
161	162	1
162	162	1
56	73	1
112	116	1
17	135	1
50	54	1
163	170	1
68	69	2
90	90	6
101	104	1
158	159	1
92	94	1
97	126	1
86	95	2
53	54	2
37	37	4
112	114	2
1	1	1
95	95	1
34	35	1
70	86	1
107	107	2
164	165	1
2	28	1
7	14	1
127	128	1
129	129	1
72	75	2
9	49	1
126	130	1
122	124	1
147	151	1
123	124	1
138	139	2
22	131	1
136	168	1
46	46	1
94	94	1
9	46	1
110	111	2
110	113	1
80	81	1
108	110	1
21	61	1
78	78	3
116	133	1
145	152	1
70	89	1
131	142	2
21	24	1
19	22	1
152	154	3
144	146	1
25	147	2
138	157	1
105	105	1
5	6	1
144	167	1
114	114	1
18	19	1
167	168	1
89	119	1
126	127	1
21	134	1
143	144	1
10	44	1
44	146	1
46	64	1
136	137	1
22	24	1
77	77	3
166	169	1
7	10	3
52	71	1
80	103	1
9	156	1
83	84	1
84	105	1
7	21	1
66	76	1
150	151	1
159	160	1
58	72	1
89	118	1
38	39	1
77	120	1
92	93	1
54	54	1
99	100	1
51	52	1
86	88	1
145	145	2
54	70	1
141	142	1
92	155	1
10	160	1
96	99	1
120	140	1
73	91	1
13	15	1
91	92	1
117	117	1
49	155	1
