98	100	1
176	176	3
27	28	5
5	11	1
0	1	2
137	137	6
122	122	12
21	21	4
33	33	6
186	197	1
151	151	10
236	239	1
179	189	1
22	22	6
105	105	6
102	104	1
221	221	4
154	154	3
171	171	5
73	73	6
119	119	7
26	51	2
112	138	1
24	24	6
174	175	4
178	178	3
57	65	2
188	188	5
209	209	4
142	142	6
14	226	1
20	20	3
145	145	6
113	122	1
195	199	1
81	83	3
127	232	1
163	165	1
185	185	4
49	49	6
55	55	3
204	204	4
186	188	1
80	80	3
231	234	1
216	217	1
3	16	2
123	123	4
106	106	8
40	40	6
140	141	2
208	216	1
126	126	4
107	107	3
78	105	1
69	69	6
157	165	1
198	198	9
127	128	2
198	199	1
61	61	8
29	39	2
79	115	2
28	29	2
104	104	8
205	205	4
184	185	1
228	229	4
184	186	4
166	166	7
180	182	2
80	81	6
67	67	4
56	59	4
175	175	6
141	142	4
106	109	1
241	242	3
125	125	5
73	75	2
136	137	1
2	9	1
147	147	6
17	32	1
47	47	4
139	139	3
179	190	1
179	179	3
119	135	1
154	188	1
16	35	1
113	149	1
135	135	3
72	73	3
132	132	2
122	142	1
49	50	3
218	218	5
80	82	1
66	68	1
169	170	2
12	45	1
242	242	5
181	181	6
121	121	7
175	181	2
127	141	1
239	240	4
7	37	1
193	206	1
144	144	3
144	236	2
173	173	4
38	38	4
107	109	1
218	219	2
182	182	7
128	128	6
192	193	2
29	30	3
3	10	1
203	217	1
23	39	3
1	3	1
196	196	7
62	101	1
26	26	5
152	153	2
167	168	5
162	165	1
14	14	11
12	12	5
85	85	5
38	39	3
200	200	4
46	67	1
17	145	2
172	172	6
102	106	1
98	98	4
84	85	2
186	186	4
5	28	1
229	230	1
47	49	2
162	167	1
68	68	8
57	57	2
234	234	2
63	64	1
125	134	1
147	148	1
31	32	2
32	32	6
118	118	2
70	73	1
50	50	8
141	141	2
147	170	1
85	95	1
79	79	6
169	169	7
37	37	3
31	33	2
75	92	1
227	227	4
34	35	3
152	163	1
148	148	6
133	159	1
150	150	6
56	68	1
27	27	3
15	15	9
178	179	2
102	102	3
232	242	1
101	101	6
65	65	9
103	104	5
130	130	2
225	226	2
106	107	1
3	21	1
58	59	2
45	45	6
37	38	1
213	213	5
42	42	6
4	7	2
226	226	8
153	168	1
169	173	1
183	187	1
9	10	1
102	108	1
76	76	6
211	227	1
238	238	5
2	152	1
153	157	2
162	173	2
137	142	1
22	23	3
200	202	1
213	216	1
33	43	1
54	54	5
212	221	1
45	88	2
157	179	2
180	180	6
55	56	4
163	163	5
129	156	1
156	156	2
37	132	1
170	174	2
174	174	5
9	9	6
173	174	1
239	239	2
157	157	5
191	191	4
203	203	3
177	178	1
102	103	1
9	12	1
14	20	1
58	156	2
138	139	3
2	20	1
109	160	1
128	135	1
23	23	5
13	155	2
209	223	1
161	167	1
11	11	9
120	148	3
235	236	1
192	192	9
139	167	1
0	0	4
59	59	7
104	105	1
183	222	1
198	200	1
37	45	1
149	175	1
77	79	1
64	64	4
122	127	1
184	184	6
25	131	1
116	152	1
122	131	1
185	188	2
128	129	1
194	195	2
136	136	4
97	111	1
179	191	2
30	30	4
71	71	5
12	13	2
38	42	1
12	14	1
61	64	1
25	25	2
85	86	3
79	113	1
54	59	1
67	68	2
19	22	1
46	46	4
240	240	3
134	137	1
157	158	1
2	2	3
165	174	1
137	139	1
211	213	1
8	8	9
113	113	7
129	129	5
2	4	2
153	153	3
202	203	3
229	229	2
14	15	2
172	174	2
131	137	1
7	7	2
43	48	2
15	23	1
106	120	1
121	159	1
46	55	1
77	77	6
124	137	1
167	167	4
120	120	2
117	117	4
194	194	1
103	103	5
3	9	1
75	75	4
21	22	1
117	118	1
38	46	1
183	183	5
4	5	2
179	180	4
236	236	2
208	208	2
216	216	7
18	18	4
225	225	2
40	41	3
155	155	4
17	17	2
142	163	1
75	101	1
158	158	2
224	224	1
176	178	2
157	166	1
200	222	1
191	196	1
46	50	2
82	82	2
54	55	2
6	13	1
20	22	1
143	143	7
181	183	1
78	79	3
53	53	5
3	3	7
182	187	1
98	99	2
193	194	1
63	63	2
16	22	1
28	28	3
129	130	2
19	19	6
183	188	1
139	147	1
168	169	4
0	7	1
121	128	1
170	171	3
202	219	2
163	164	2
240	241	1
145	158	1
162	170	1
201	219	2
189	190	1
72	72	6
228	228	3
140	156	1
181	195	2
176	182	1
125	128	1
154	155	2
88	88	3
127	130	2
116	119	3
221	222	2
34	34	4
40	49	1
46	160	1
216	237	1
80	83	2
17	18	2
53	58	1
39	40	3
60	61	2
144	149	1
96	96	3
125	127	1
223	223	3
170	242	1
29	31	1
217	218	6
51	71	1
185	189	1
206	206	6
164	165	3
52	52	1
24	25	1
50	140	1
12	20	1
74	74	3
187	205	1
83	83	3
155	175	1
12	15	1
111	111	4
173	183	1
15	22	1
223	224	2
79	80	1
66	66	1
170	170	3
42	43	3
156	159	1
13	14	1
80	101	1
224	234	1
173	175	2
177	177	6
133	134	2
12	18	2
187	188	3
1	4	1
210	210	5
33	56	1
47	98	1
22	52	1
171	173	2
36	37	2
192	196	1
52	53	3
168	168	4
158	179	2
78	78	2
118	119	1
211	212	1
16	17	2
193	195	2
121	135	2
147	160	1
217	217	7
69	71	2
86	111	1
6	7	2
189	192	1
222	222	4
214	215	2
158	163	2
241	241	1
202	202	2
126	139	2
81	82	1
72	75	2
165	188	1
126	136	1
109	109	6
161	163	1
143	185	2
67	73	2
151	164	1
59	66	3
215	216	1
145	151	1
99	106	2
235	235	3
137	138	1
81	81	4
30	37	1
8	9	1
140	140	3
176	181	1
160	181	1
117	119	1
175	183	1
108	109	1
64	70	1
29	29	7
57	63	1
202	230	1
106	108	3
133	133	1
58	58	3
51	51	3
148	151	1
233	233	4
143	145	1
138	138	3
11	19	1
162	162	4
127	129	1
3	7	1
181	182	4
187	215	2
134	135	1
99	99	1
146	146	1
29	45	1
118	123	2
43	43	5
62	62	9
161	162	5
237	237	1
153	154	1
100	103	1
124	124	7
84	84	3
53	57	1
88	171	1
187	187	1
153	155	1
35	172	1
12	33	1
65	66	1
148	149	1
214	214	2
148	169	1
5	9	1
206	210	1
4	6	1
122	124	1
17	34	1
220	220	2
232	232	6
160	205	1
164	164	2
179	182	1
34	49	2
8	19	1
10	10	3
35	35	3
114	116	1
167	169	1
175	176	2
221	225	1
41	41	3
177	179	2
239	242	1
15	16	4
80	88	1
95	95	2
199	199	1
197	200	2
36	36	4
206	229	1
205	226	1
12	214	1
175	187	2
197	197	3
30	32	2
14	16	1
201	225	1
140	162	1
20	21	3
4	4	2
135	170	1
87	87	4
104	107	2
2	12	2
76	81	1
136	139	1
212	213	2
23	117	1
201	201	3
13	13	2
154	170	1
104	135	1
75	84	1
225	227	1
80	103	1
5	5	2
26	27	1
149	159	2
159	159	7
58	60	1
225	228	1
237	238	1
172	173	3
38	41	1
71	73	2
133	150	2
158	174	1
86	86	1
116	116	1
34	37	1
75	77	2
165	168	1
103	110	1
149	149	3
145	153	2
134	134	1
124	144	1
69	70	3
0	11	1
112	113	4
140	151	1
56	58	1
193	193	4
144	200	1
70	71	1
215	215	5
123	124	2
35	63	1
233	234	3
59	63	1
148	150	1
177	188	1
177	181	3
196	197	1
147	166	2
96	97	1
151	155	2
135	137	1
147	149	1
204	206	1
32	70	1
161	187	1
66	67	1
206	207	1
11	15	1
142	149	1
156	157	1
67	80	1
3	27	1
8	23	2
114	114	2
49	51	1
51	56	1
209	211	1
77	81	2
78	106	1
151	160	1
159	160	1
31	31	2
39	39	6
167	171	1
149	165	1
33	36	1
10	11	1
143	144	1
42	44	1
223	227	1
27	113	1
219	219	1
169	178	1
127	127	4
135	141	1
131	131	2
59	64	1
158	162	1
155	166	1
238	239	1
139	145	1
16	23	2
165	167	1
30	31	3
85	137	1
59	60	1
108	143	1
15	20	2
180	188	1
103	191	1
130	131	1
7	13	1
175	177	2
31	43	2
19	20	1
108	108	2
19	37	1
124	135	1
115	115	1
8	12	1
160	170	1
160	163	1
3	4	1
17	20	1
152	152	6
57	59	2
230	231	1
40	47	1
183	184	1
35	53	1
128	130	2
220	230	1
47	55	1
8	37	1
74	75	1
150	156	1
138	141	1
199	200	1
44	46	2
5	15	1
200	201	1
180	181	1
112	112	2
212	212	1
15	27	1
78	80	1
24	44	1
55	65	2
49	53	1
58	61	1
75	82	2
161	161	2
14	19	2
189	189	1
119	121	1
188	198	2
18	34	1
125	126	2
5	12	1
73	74	1
153	178	1
43	46	1
73	76	1
5	6	5
28	46	1
189	199	1
149	150	2
30	41	1
62	74	1
184	187	1
24	26	2
0	2	1
37	64	1
12	52	1
16	30	1
12	17	3
61	84	1
15	43	1
48	48	1
43	89	1
106	117	1
45	68	1
136	138	1
64	67	1
114	115	3
170	176	1
40	44	1
207	207	3
97	97	2
230	230	2
39	58	1
152	157	1
163	171	1
7	12	1
7	149	1
120	152	1
9	231	1
34	38	1
15	17	2
123	157	1
159	233	1
38	55	1
172	177	1
71	133	2
144	161	1
115	178	1
116	117	1
78	104	1
99	101	1
1	1	4
166	183	1
210	212	2
203	204	1
2	5	1
9	20	1
155	161	1
6	6	3
44	56	1
155	158	1
209	215	1
69	72	1
60	68	1
143	148	1
181	184	2
16	16	4
3	5	1
159	205	1
160	160	1
64	69	1
33	40	1
151	212	1
148	153	1
121	134	2
113	117	1
110	141	1
38	43	1
75	113	1
146	147	1
14	56	1
83	85	1
37	39	2
68	111	1
40	59	1
30	51	1
22	30	1
188	190	2
118	121	1
148	185	1
103	126	1
7	225	1
43	44	2
205	240	1
105	106	1
34	56	1
211	216	1
13	15	1
162	178	1
220	221	1
184	222	1
3	25	1
58	118	1
202	205	1
178	188	1
158	159	1
10	176	1
162	164	1
107	146	1
201	203	1
195	197	1
165	184	1
109	110	1
51	52	1
159	174	1
25	45	1
131	133	1
155	156	1
154	157	1
35	42	1
78	81	1
190	193	1
225	229	1
33	34	1
2	18	1
103	130	1
14	118	1
60	71	1
104	122	1
121	122	1
70	70	1
104	170	1
44	44	1
118	134	2
35	36	1
106	129	1
20	178	1
220	222	1
32	54	1
109	128	1
150	169	2
169	180	1
55	58	1
111	129	1
144	145	1
45	171	1
142	150	1
48	111	1
144	146	1
62	73	1
165	165	1
23	176	1
113	150	1
181	208	1
16	31	1
9	47	1
126	127	1
154	180	1
169	185	1
231	231	1
47	61	1
76	103	1
1	20	1
51	59	1
175	198	1
187	204	1
175	206	1
226	228	1
32	37	1
143	150	1
100	100	1
197	207	1
215	218	1
145	148	1
57	62	1
109	114	1
152	154	1
112	120	1
64	65	1
54	66	1
18	223	1
107	161	1
118	122	1
157	161	1
60	74	1
