123	123	4
8	8	2
134	134	4
89	89	2
152	153	2
149	149	3
99	99	1
132	133	1
155	156	2
92	92	1
20	20	4
50	50	5
15	15	4
144	144	1
131	131	2
23	24	1
107	107	1
95	106	1
106	106	3
121	122	1
130	130	3
30	30	1
154	154	5
147	148	2
12	12	5
126	126	3
132	132	3
48	53	1
18	18	1
157	157	6
67	68	1
40	40	2
16	21	1
41	41	1
37	37	4
124	125	2
112	112	3
85	85	1
142	142	2
3	3	3
151	151	4
88	88	2
84	84	3
102	102	1
128	128	3
136	136	1
103	116	1
10	10	3
100	100	2
140	141	1
17	21	1
155	155	5
116	116	1
138	140	2
39	134	1
50	51	1
109	121	1
75	75	2
133	142	1
87	88	1
94	94	2
70	70	1
79	79	1
24	24	1
135	143	1
73	73	1
48	48	1
111	111	1
158	158	4
23	23	1
151	158	1
148	148	3
153	154	1
36	36	1
15	34	1
77	130	1
2	2	1
125	125	3
69	69	1
113	113	3
74	75	1
27	27	2
98	98	2
145	145	1
148	153	1
129	129	3
33	34	1
138	138	1
24	25	1
105	106	1
77	78	1
86	86	2
42	42	1
145	150	1
139	139	1
36	37	1
67	67	2
17	38	1
131	133	1
106	107	1
90	93	1
118	118	2
80	81	3
132	138	1
74	107	1
11	11	2
151	152	1
117	117	2
135	135	2
33	33	1
15	16	1
134	138	1
45	45	2
143	146	1
52	52	2
18	20	1
102	104	1
66	66	1
154	155	4
22	22	3
81	82	1
108	109	1
119	119	2
13	13	1
127	128	1
105	105	3
77	109	1
109	110	1
94	97	1
150	150	3
36	154	1
124	137	1
122	122	4
19	19	1
153	153	2
76	76	1
92	128	1
127	127	2
64	65	1
68	68	1
12	13	1
35	35	1
20	39	1
113	115	1
38	38	1
152	152	3
28	97	3
73	156	1
30	36	1
124	126	2
121	135	1
4	4	1
93	93	2
44	44	1
9	10	1
46	47	1
118	119	1
5	5	1
143	143	1
103	105	1
140	140	2
121	121	1
96	97	2
13	14	1
26	26	1
126	127	1
129	130	2
17	17	1
90	90	3
116	142	1
52	62	1
146	147	1
123	146	1
147	147	3
83	84	1
78	79	1
93	94	1
14	14	1
125	137	1
144	149	1
141	141	1
116	117	1
48	50	1
137	137	1
8	14	1
66	67	1
34	34	2
121	124	1
110	110	1
81	93	1
73	139	1
2	3	1
6	43	1
70	72	1
146	153	1
54	54	1
50	53	1
3	134	1
95	95	3
150	153	1
117	120	1
146	146	1
127	158	1
82	83	1
18	19	1
