51	51	3
131	131	5
83	83	3
29	29	7
9	9	4
143	143	5
18	20	1
88	88	1
53	53	2
102	102	8
107	107	1
48	48	1
35	73	1
138	138	5
11	29	1
59	59	3
83	111	1
14	39	2
5	51	1
76	76	1
144	144	3
113	114	1
27	42	2
38	38	7
53	58	1
50	102	1
55	56	4
69	69	3
59	61	2
16	16	3
16	18	2
101	101	4
123	123	5
33	33	3
69	131	1
40	40	3
118	119	6
125	142	2
133	133	7
116	117	3
129	129	1
3	110	1
121	124	1
58	59	2
25	25	3
15	42	1
42	42	4
40	74	1
136	136	4
124	129	1
114	114	2
66	107	2
87	87	1
126	143	1
27	27	5
0	0	2
140	141	1
10	10	1
127	127	6
0	54	1
109	109	2
46	60	1
93	94	1
122	122	6
58	83	1
32	33	3
61	61	7
4	4	2
134	134	3
139	139	4
61	74	1
55	58	1
91	134	1
101	102	1
63	64	2
28	118	1
142	142	3
126	126	4
13	95	1
21	21	4
96	96	6
124	124	6
53	82	4
102	103	2
13	13	3
81	81	2
75	75	2
97	142	1
57	57	6
132	132	2
96	137	1
136	140	1
135	135	5
120	120	2
87	89	1
103	103	7
137	138	2
23	54	1
126	127	4
11	21	2
125	125	6
22	22	10
31	31	3
48	49	2
103	143	1
65	85	1
42	142	1
67	67	3
23	24	2
52	95	1
59	71	1
49	49	2
106	106	5
140	140	4
62	62	4
58	60	1
110	135	1
43	43	4
89	89	3
105	106	1
51	116	2
11	27	1
49	52	1
91	136	1
14	14	2
106	127	1
96	127	2
94	94	3
134	135	1
71	71	3
48	53	2
93	103	2
54	55	2
128	129	1
28	28	4
72	72	1
34	35	3
100	103	1
131	132	1
62	127	1
41	41	2
78	78	3
2	12	1
50	50	2
37	38	4
24	24	3
55	86	2
89	109	1
104	136	1
9	20	1
128	128	3
111	111	1
97	140	1
41	48	2
19	20	1
48	55	2
30	56	1
25	135	1
85	85	1
2	3	2
3	64	1
104	104	1
96	98	4
49	53	1
19	52	1
11	54	1
74	74	3
25	54	1
20	21	5
23	56	1
6	29	1
67	80	1
73	73	1
55	55	3
141	141	4
94	129	1
105	108	1
43	47	1
100	101	2
20	56	1
56	92	1
119	119	1
40	41	1
86	87	1
56	56	1
127	128	2
54	54	3
80	80	2
3	4	2
3	20	3
67	106	1
32	32	5
2	8	1
64	64	1
11	11	4
28	140	1
30	30	1
58	113	1
77	77	2
64	104	1
4	5	1
17	18	3
47	47	1
24	143	1
62	63	2
35	36	1
56	125	1
15	15	3
98	98	1
88	89	1
65	65	3
68	105	1
20	22	1
42	74	1
0	1	1
27	80	1
94	106	1
77	132	1
138	139	1
6	32	1
9	10	4
93	93	1
41	42	2
137	139	1
139	141	1
6	6	2
58	58	2
94	118	1
2	139	1
37	40	1
21	22	1
51	52	3
81	95	1
34	34	2
84	84	2
22	38	1
66	66	2
96	97	1
60	60	2
86	86	2
82	106	1
119	133	1
38	130	2
97	107	2
100	100	1
23	25	1
19	39	1
42	126	1
20	20	1
68	75	1
79	84	1
47	61	1
115	115	1
98	138	1
46	47	1
113	134	1
86	102	1
116	119	1
63	63	1
52	131	1
23	23	4
37	97	1
38	59	1
10	11	1
83	104	1
76	80	1
130	130	1
72	89	1
99	100	1
97	97	3
27	39	1
2	2	1
59	60	1
28	42	1
3	3	2
17	17	1
102	141	2
97	129	1
24	31	1
31	32	1
105	105	3
34	36	1
36	36	2
17	38	1
103	129	1
5	18	1
141	142	1
145	146	1
22	28	1
91	91	2
66	99	1
43	53	1
2	4	1
114	127	1
5	19	1
75	79	1
43	66	1
123	137	1
121	121	2
108	108	1
34	40	1
53	74	1
57	58	1
79	79	3
21	41	1
122	137	1
99	99	1
18	128	1
62	74	1
145	145	2
70	70	1
87	90	1
30	33	1
27	28	2
108	123	1
23	47	1
76	78	1
103	109	1
126	138	1
60	65	1
123	124	1
19	19	1
114	116	1
15	47	1
37	54	1
30	32	1
61	134	1
104	117	1
72	80	1
135	136	1
14	15	1
10	30	1
65	80	1
95	103	1
109	113	1
105	109	2
18	19	1
111	118	1
72	73	1
32	35	1
124	125	1
24	79	1
114	115	1
118	118	1
12	13	1
37	37	1
53	55	1
81	82	1
100	125	1
