140	140	5
53	60	1
174	178	2
151	151	8
142	143	3
72	72	17
187	188	8
32	32	8
228	229	3
9	9	11
115	115	4
111	111	6
180	183	1
3	4	1
230	230	8
96	96	5
30	33	2
11	15	2
29	29	8
158	158	6
198	200	4
40	40	5
188	189	3
74	74	8
50	51	2
177	177	8
13	13	8
151	152	3
47	47	6
25	25	15
211	212	1
76	76	7
198	198	10
179	180	2
69	70	1
123	124	7
105	105	9
239	239	5
58	74	1
45	45	7
75	168	1
137	138	2
101	101	3
109	109	5
11	27	1
218	218	5
236	236	5
4	4	5
12	12	8
18	19	4
12	14	2
89	89	2
60	60	6
1	1	4
10	11	3
117	117	6
231	231	3
8	8	12
5	5	10
21	22	6
210	211	1
163	163	16
199	200	2
167	167	9
13	14	10
183	185	2
26	26	10
66	66	6
175	175	7
59	60	3
220	223	2
3	3	13
59	209	1
55	55	7
88	97	1
85	85	10
175	176	5
190	190	5
3	9	1
220	230	1
198	227	1
25	26	3
116	117	5
169	169	8
143	143	6
122	122	7
143	150	1
86	86	6
197	197	5
104	104	7
125	125	5
205	205	7
82	82	6
185	186	2
149	149	9
171	219	1
140	143	2
53	53	4
162	162	7
157	158	1
71	71	13
155	156	4
116	116	3
44	98	1
216	216	6
168	170	1
211	213	1
77	77	8
181	182	3
133	134	4
36	82	1
173	173	6
49	50	4
180	182	2
152	169	1
21	35	1
51	51	2
182	182	10
155	155	8
174	174	10
166	167	3
15	16	2
136	136	9
217	218	3
120	120	7
214	216	1
80	80	7
199	199	3
10	10	12
206	206	3
187	187	5
63	64	1
112	113	3
75	75	8
122	125	1
140	144	1
121	121	13
65	65	11
138	138	5
28	28	10
107	107	7
148	148	6
54	54	11
208	208	2
204	205	2
171	171	15
124	124	2
207	207	3
48	48	7
184	184	15
115	116	3
215	217	1
160	160	4
165	165	6
81	82	5
192	196	2
166	166	9
172	172	13
52	52	3
202	202	6
149	151	1
222	222	1
79	79	11
115	123	1
211	211	3
49	49	5
220	221	4
200	200	4
213	214	3
185	206	1
75	78	2
160	179	2
123	123	4
135	135	8
210	210	7
181	181	15
152	153	2
74	75	3
18	18	9
179	209	2
134	136	3
184	185	6
153	153	16
68	69	1
20	20	8
132	145	1
141	147	1
22	22	5
145	145	3
102	102	8
194	196	1
179	179	9
193	195	5
139	141	5
33	36	2
88	88	8
143	145	1
56	56	6
129	131	1
39	43	1
16	17	1
30	30	14
217	217	2
46	46	13
77	78	6
48	50	2
228	228	3
203	230	1
0	0	7
227	227	8
31	42	3
108	125	1
51	52	5
193	193	5
46	48	1
59	59	9
38	38	8
154	156	1
11	11	8
7	15	1
100	100	4
35	36	2
146	146	5
74	84	1
223	223	9
58	58	8
161	161	8
176	176	6
0	2	1
35	35	11
236	240	1
159	159	5
126	126	3
186	186	5
188	190	1
102	109	2
156	156	9
205	206	1
226	226	5
154	155	6
144	146	4
20	47	1
54	85	2
37	37	3
153	158	2
27	27	2
191	191	2
84	103	2
172	174	1
152	158	1
240	240	5
113	113	6
58	116	1
135	139	1
139	150	2
23	23	1
37	38	5
34	35	5
117	118	5
43	43	7
24	67	1
104	155	1
186	187	5
15	47	1
145	146	1
19	23	1
66	67	2
201	201	2
106	107	2
122	124	1
9	109	1
214	214	6
133	133	6
173	174	6
42	84	1
156	157	3
170	171	2
177	178	2
17	18	4
225	225	3
192	193	1
180	180	5
41	41	5
48	117	1
159	160	5
91	91	2
83	227	1
145	166	1
204	207	2
183	183	6
88	96	1
43	85	1
221	222	2
149	162	1
175	190	1
169	174	4
220	220	5
54	55	1
39	39	6
188	188	4
142	147	2
178	178	7
33	33	3
15	15	6
149	150	1
63	63	4
226	228	2
17	17	5
83	84	4
103	103	2
102	127	1
221	221	6
60	67	1
152	152	10
88	100	1
175	208	1
52	79	1
204	206	1
119	119	6
197	198	1
50	50	6
167	168	3
36	36	8
16	16	5
142	142	13
21	49	1
64	64	6
131	131	6
233	235	1
34	41	1
195	196	2
70	70	4
47	75	1
168	179	1
55	56	4
0	1	2
192	192	6
161	164	2
150	150	11
114	136	1
34	54	1
236	239	1
29	30	1
184	186	1
225	227	1
237	237	4
211	229	1
61	61	4
215	215	5
104	124	2
181	210	1
176	177	1
21	23	1
229	229	6
95	95	2
131	145	2
32	42	1
62	64	2
58	63	1
37	68	1
196	196	5
8	23	1
55	61	1
12	13	3
190	212	1
19	19	6
0	33	1
138	139	3
144	144	12
3	6	2
150	151	4
48	85	1
51	59	1
140	141	2
185	185	9
69	69	6
161	163	2
164	168	1
162	163	3
106	106	7
223	227	1
209	209	2
52	81	1
136	137	1
172	173	2
154	154	17
127	127	6
125	126	4
120	121	1
140	142	1
21	40	1
219	220	2
176	179	1
78	79	2
46	85	1
174	175	1
27	28	3
79	80	3
128	128	4
31	31	11
114	114	2
104	105	2
228	230	1
3	8	1
15	68	1
157	157	12
8	64	1
118	118	3
85	87	1
115	164	1
84	84	2
97	97	2
34	34	5
107	108	3
60	66	1
122	123	1
2	2	7
137	141	2
50	54	2
168	169	2
25	43	1
32	33	3
6	7	1
139	140	2
193	221	1
18	60	1
233	234	1
149	152	4
147	147	5
4	5	4
134	170	1
51	53	2
43	68	2
70	72	1
143	148	1
235	235	3
24	47	1
129	129	2
223	226	2
83	83	1
182	220	1
137	137	6
179	183	1
219	219	2
139	139	4
195	214	1
78	78	3
62	70	1
227	229	1
128	177	1
32	159	1
33	34	1
166	170	1
234	235	2
143	147	1
7	7	6
122	141	1
76	77	3
136	156	2
71	74	2
8	11	1
1	180	1
14	14	2
204	204	3
146	152	1
46	47	1
151	161	2
37	69	1
52	57	1
51	104	1
203	203	2
6	6	7
21	21	4
232	233	1
147	157	1
130	130	5
192	197	1
144	145	4
194	194	6
165	166	2
82	193	1
67	67	6
99	99	4
71	73	1
169	172	1
40	41	2
119	120	2
56	57	1
24	24	2
58	81	1
39	40	1
141	142	2
21	150	1
120	122	2
14	40	2
19	40	1
218	219	1
232	232	1
111	112	3
139	162	1
158	172	1
126	127	1
157	186	1
123	140	1
76	104	1
164	164	9
62	62	3
67	68	1
26	28	1
39	42	2
70	71	1
3	21	1
134	135	2
47	218	1
14	21	1
194	212	1
157	200	1
8	32	1
170	174	1
183	210	3
49	150	1
13	15	2
7	16	1
3	10	2
12	16	1
121	122	2
85	86	2
123	127	1
146	165	1
136	177	1
131	136	1
77	83	2
127	152	1
128	174	1
9	10	1
5	143	1
229	230	1
146	147	2
70	176	1
223	224	2
7	139	1
144	153	2
164	166	1
44	64	1
81	81	6
64	103	1
184	187	1
70	108	1
3	7	1
238	240	2
134	134	3
180	181	2
48	51	1
170	170	5
51	55	1
72	73	1
116	147	1
4	16	1
41	42	1
12	30	1
58	60	1
105	106	3
176	178	2
151	165	1
57	81	1
97	98	1
159	175	1
20	216	1
183	188	1
8	13	1
156	167	1
124	125	4
76	78	2
168	168	3
205	209	2
108	108	3
135	176	2
189	189	2
118	119	3
164	165	1
43	201	1
166	169	1
8	36	2
32	37	1
156	158	1
124	141	1
160	161	1
75	80	3
60	73	1
238	238	1
2	33	1
62	63	4
234	234	1
242	242	4
224	225	2
50	80	1
60	82	1
208	210	1
195	195	2
209	210	1
147	148	1
14	19	1
104	106	1
139	144	1
51	76	1
10	29	1
179	192	1
44	44	4
141	141	4
171	173	1
0	242	1
80	188	1
161	183	1
224	224	2
201	203	1
179	182	2
103	105	1
205	207	1
115	121	1
212	212	3
65	70	1
114	144	1
52	53	2
161	162	4
142	149	1
177	183	1
68	68	5
137	148	1
24	95	1
14	15	1
35	181	1
109	110	1
198	199	1
62	72	1
123	151	1
42	42	3
34	40	2
180	185	1
146	170	1
22	23	1
150	165	1
164	182	1
78	80	1
103	155	1
28	29	1
182	210	1
237	238	1
75	113	1
114	115	1
197	204	1
158	159	1
5	8	1
112	112	2
56	81	1
169	185	1
86	88	1
125	154	2
144	151	1
122	126	1
2	8	1
55	153	1
164	171	1
107	147	1
20	23	1
134	167	1
52	147	1
193	194	1
126	139	1
123	152	1
211	230	1
98	98	1
160	178	1
181	185	1
113	114	1
135	138	1
65	66	1
183	184	1
30	48	1
57	57	1
196	197	2
171	174	1
182	183	1
160	170	1
75	76	2
123	125	1
72	120	1
7	150	1
35	79	1
23	24	1
84	222	1
21	149	1
123	136	1
14	136	1
10	16	1
65	67	1
106	109	1
235	236	1
62	73	1
194	195	1
8	136	1
10	31	1
233	233	3
220	222	1
146	150	1
145	207	1
21	64	1
138	153	1
31	32	2
10	27	1
50	84	1
151	180	1
216	217	1
209	211	1
213	215	1
80	83	1
241	241	1
48	150	2
225	229	1
183	227	1
169	201	1
215	216	1
171	172	1
116	120	1
139	142	1
33	105	1
116	119	1
33	48	2
187	192	1
140	148	1
53	85	1
85	111	1
8	10	1
162	164	2
226	227	1
203	231	1
56	80	1
182	185	1
8	172	1
61	62	1
152	160	1
212	215	1
136	143	1
76	115	1
158	174	1
214	229	1
1	15	1
99	171	1
26	46	1
194	234	1
120	135	1
99	100	1
45	46	1
115	166	1
172	201	1
172	190	1
27	241	1
155	161	1
208	209	1
58	59	1
151	159	1
188	192	1
95	111	1
44	45	1
168	210	1
197	199	1
48	54	1
84	86	1
73	73	1
202	208	1
56	58	1
26	27	1
2	10	1
73	98	1
190	191	1
141	143	1
