47	47	8
59	60	2
20	21	2
70	70	3
59	59	3
108	108	1
18	18	2
89	89	2
14	14	2
44	44	5
112	117	2
68	83	2
107	107	3
75	76	3
110	114	2
77	82	2
80	80	5
126	129	1
93	94	1
78	94	2
28	28	4
45	46	3
117	117	5
37	38	1
114	132	1
65	65	4
21	21	2
68	68	4
91	92	2
29	88	2
95	131	2
59	63	1
118	118	3
19	19	4
15	15	3
84	85	2
58	125	1
29	29	2
61	61	2
75	75	3
6	6	3
23	25	1
132	132	3
12	112	2
40	40	1
25	25	1
109	109	3
100	101	1
99	99	1
61	62	1
3	33	1
11	11	1
66	66	3
9	9	6
26	26	1
122	122	2
124	125	1
20	20	3
102	102	2
120	121	3
6	35	1
30	32	1
76	76	2
114	134	2
68	69	2
9	10	1
126	126	4
41	42	2
6	7	2
15	16	1
98	99	1
82	86	2
132	133	1
91	91	3
99	133	1
110	110	1
129	129	1
100	100	2
64	68	1
121	121	4
77	78	1
78	79	1
97	97	1
17	17	1
119	119	2
54	56	1
85	123	1
64	64	3
114	114	1
111	111	2
87	107	1
116	116	2
125	125	4
4	4	1
128	128	2
76	77	2
35	35	3
12	16	1
86	86	4
31	35	1
40	60	1
60	74	1
101	101	3
63	64	1
37	39	2
127	127	2
96	96	1
34	35	1
83	83	2
85	85	3
101	122	1
74	74	1
8	9	1
106	106	2
84	84	1
19	34	1
60	61	1
42	42	3
22	23	1
67	68	1
79	79	2
124	124	1
69	69	2
46	46	3
131	131	2
57	58	1
13	13	1
30	30	2
23	23	1
89	111	1
45	45	3
41	41	1
103	103	3
112	113	2
90	90	1
58	118	2
16	16	1
67	67	3
13	14	1
105	105	1
32	32	1
49	114	1
0	0	2
2	2	2
29	30	2
38	38	1
82	83	1
58	58	3
72	73	1
12	12	1
37	37	1
79	97	1
67	73	1
81	97	1
71	71	2
77	111	1
69	74	1
114	131	1
86	107	2
34	34	3
7	7	1
93	129	1
72	72	2
13	58	2
28	125	1
86	94	1
4	25	2
4	5	1
7	10	1
42	43	1
32	46	2
115	117	1
43	43	1
7	26	1
9	21	1
106	109	1
95	95	2
62	62	2
15	17	1
21	87	1
42	44	1
56	86	1
93	93	2
86	87	1
13	47	1
134	134	1
33	33	2
57	57	1
130	130	3
109	121	1
35	36	1
85	86	2
77	89	1
89	92	1
93	122	1
74	119	1
40	41	1
125	130	1
12	13	2
26	27	1
116	117	1
77	92	1
70	71	3
97	98	1
1	1	1
56	59	1
125	126	1
108	113	1
64	65	1
131	133	1
18	31	1
4	7	2
115	124	1
127	131	1
73	73	1
63	63	1
107	108	1
1	32	1
82	82	1
84	88	1
115	115	1
39	39	1
34	57	1
45	58	1
51	58	1
79	113	1
66	67	1
7	31	1
60	60	1
4	134	1
