140	140	3
102	103	2
8	25	1
103	103	2
11	13	1
128	128	6
31	52	1
41	43	4
23	64	1
40	40	3
121	121	1
122	122	2
125	126	2
68	68	4
123	123	1
63	65	1
111	111	1
15	109	1
41	41	1
50	50	1
8	17	1
138	138	2
121	122	2
23	23	1
32	33	2
129	129	2
7	31	1
24	74	1
80	81	1
107	107	2
109	110	1
16	17	1
46	82	1
113	113	3
125	125	2
72	72	1
139	139	1
118	119	2
10	10	1
9	9	1
128	130	1
108	108	4
32	74	1
16	16	1
43	43	2
70	70	3
48	48	4
8	34	2
37	37	1
48	53	1
105	105	3
46	46	1
5	7	1
47	47	4
15	15	3
94	94	2
37	53	2
55	68	1
93	95	2
65	65	2
148	148	3
53	53	3
38	38	4
28	28	1
95	95	1
136	136	5
132	132	3
83	83	1
141	147	1
46	56	1
100	122	1
55	58	1
135	135	2
84	84	2
45	83	1
6	27	1
139	144	1
70	71	2
110	113	2
110	121	1
100	113	1
24	31	1
131	132	1
42	46	1
76	76	1
57	129	1
65	67	1
64	65	1
126	126	1
119	120	1
61	61	2
117	117	3
42	42	1
78	79	1
103	115	1
71	71	5
106	106	3
7	33	1
3	3	1
33	33	1
74	74	3
154	154	3
118	118	3
153	153	3
64	67	1
111	112	2
12	13	1
34	36	1
87	94	1
135	136	2
39	44	1
72	84	1
127	127	2
49	50	1
127	128	2
130	130	3
116	117	1
141	146	1
129	135	1
63	64	1
150	150	1
25	26	1
5	6	1
56	57	1
136	138	1
110	111	2
151	153	1
31	31	2
26	78	1
78	78	2
80	82	1
34	34	1
45	45	1
55	55	3
125	133	1
114	135	1
124	124	1
144	144	1
134	134	3
39	49	2
93	115	1
46	47	3
39	40	2
112	112	1
142	142	2
4	33	1
93	97	1
87	88	1
30	30	2
56	56	1
120	120	1
98	98	3
117	118	1
149	150	1
38	40	2
22	22	2
4	4	2
109	113	1
109	109	2
145	145	1
11	11	2
116	116	1
120	121	2
7	51	1
139	140	1
128	129	1
38	48	1
35	35	2
13	14	1
137	138	1
121	137	1
18	18	2
53	56	1
127	136	1
103	106	1
81	81	1
70	109	1
62	62	2
131	148	1
82	85	1
69	71	2
20	22	1
10	35	1
54	54	2
49	49	1
108	147	1
131	134	1
20	55	1
22	23	1
75	97	1
77	77	2
142	144	1
106	110	1
16	30	1
145	146	1
32	32	1
7	7	1
13	30	1
23	67	1
32	45	1
101	113	1
91	91	1
24	62	1
4	116	1
97	97	2
45	46	1
90	95	1
98	113	1
149	149	1
6	31	1
62	63	1
26	26	1
38	43	1
135	138	1
33	36	1
20	20	1
147	148	1
13	13	1
87	124	1
147	147	1
109	112	1
96	97	1
6	66	1
140	141	1
51	51	1
13	18	1
132	138	1
25	25	1
144	146	1
124	130	1
114	128	1
88	91	1
137	137	1
54	55	1
69	69	1
