67	67	1
83	84	3
103	104	3
38	38	3
47	48	3
20	20	5
33	33	2
168	168	1
136	136	5
114	123	1
42	42	3
149	150	2
68	68	2
14	14	4
151	151	4
170	170	3
43	43	2
135	135	2
152	152	3
48	48	4
147	147	3
95	95	1
133	133	1
21	22	1
110	111	2
156	156	4
56	56	1
111	167	1
6	17	1
125	125	1
131	132	1
0	0	1
134	134	1
85	156	1
124	124	2
51	51	1
18	18	2
121	121	2
100	100	2
45	45	4
124	125	2
122	122	2
140	144	1
76	111	2
22	23	2
127	127	2
126	157	1
12	12	6
40	40	4
137	143	1
162	163	4
96	122	1
119	126	1
1	2	3
6	13	1
106	106	3
72	72	2
62	62	1
42	43	2
119	119	1
145	145	1
123	123	1
97	146	1
96	96	2
154	161	1
35	35	2
44	44	1
150	150	2
63	64	1
19	19	4
100	143	1
167	167	2
34	34	3
116	117	1
64	69	1
52	52	3
81	81	1
129	130	2
148	148	2
160	160	2
77	78	4
139	140	2
74	74	1
36	36	6
131	131	2
115	115	1
49	52	1
5	5	3
157	157	2
57	57	2
149	157	1
39	39	2
161	161	1
118	118	2
94	94	2
11	11	4
2	16	1
137	138	1
37	37	2
46	50	1
142	142	2
112	112	2
147	148	2
17	17	1
9	9	2
155	156	2
27	27	2
57	86	1
111	111	2
169	169	5
46	47	1
138	151	1
16	16	4
164	164	1
138	138	5
118	119	1
49	50	1
48	50	1
145	146	2
18	19	2
8	45	1
158	160	1
2	2	2
159	160	2
116	116	1
161	163	1
119	122	1
20	25	1
146	148	1
10	10	2
0	1	1
13	13	1
155	155	1
169	170	1
1	1	2
34	35	2
17	18	2
15	15	1
22	22	2
44	45	2
57	90	1
74	76	1
72	155	2
109	109	1
139	139	6
161	166	1
4	4	3
131	166	1
75	75	1
105	106	1
24	24	1
147	164	1
127	128	1
162	169	1
108	109	1
120	124	1
47	49	1
19	75	1
77	77	1
117	118	2
150	151	2
162	162	1
146	147	1
69	69	2
135	144	1
113	114	1
26	27	1
143	143	2
167	168	1
56	101	1
99	99	1
141	141	2
15	49	1
152	154	1
113	113	1
141	143	1
83	119	1
86	88	1
98	98	2
25	25	1
15	16	1
90	90	2
73	99	1
6	6	2
126	127	2
41	42	1
140	140	1
89	89	1
41	41	2
99	125	1
69	70	1
28	41	1
158	158	3
153	154	1
0	2	1
13	16	1
128	128	1
3	3	1
80	106	1
126	126	1
128	131	1
84	84	2
67	68	1
67	69	1
137	137	1
88	135	1
81	83	2
91	128	1
50	50	1
130	130	1
151	152	1
8	9	1
143	144	1
5	26	1
66	66	1
148	149	1
159	159	1
44	48	1
92	92	2
154	154	1
151	155	1
82	93	1
164	165	1
140	141	1
126	133	1
102	103	1
9	68	1
144	146	1
20	21	1
163	163	1
46	46	2
130	131	1
22	25	1
115	116	1
71	71	3
107	107	1
146	146	1
14	15	1
94	96	1
87	87	1
132	134	1
158	167	1
109	135	2
12	13	1
116	127	1
97	97	1
