62	62	2
74	74	3
39	39	7
83	91	1
75	75	2
43	53	1
92	92	10
96	96	6
31	37	1
34	36	2
26	26	2
90	90	8
45	45	2
32	32	2
91	92	9
62	86	1
39	87	2
60	61	1
59	60	2
71	71	5
50	51	1
62	63	1
36	43	1
24	103	1
89	89	5
93	96	1
112	112	2
98	98	2
81	81	3
110	110	3
51	51	2
57	63	1
77	77	5
56	56	2
59	59	3
108	108	5
78	78	5
71	77	1
67	67	3
42	43	1
45	73	1
95	96	1
79	109	2
68	68	2
44	46	1
95	95	3
63	85	1
60	60	2
109	109	2
96	97	2
91	96	1
93	93	3
41	41	2
69	73	1
104	104	2
29	29	2
91	91	11
86	88	2
64	65	1
90	91	7
81	91	4
105	105	2
82	85	1
95	97	1
27	27	2
48	48	1
53	73	1
41	42	1
69	69	1
106	106	2
30	30	3
43	43	4
80	80	2
42	53	1
45	93	1
112	113	3
23	33	1
39	60	1
20	98	1
99	100	1
91	108	1
111	111	2
31	32	1
106	113	2
19	19	1
65	83	1
25	25	2
28	29	2
53	53	2
46	77	1
86	87	1
21	21	1
40	84	1
52	52	4
84	100	1
44	44	2
60	63	1
82	84	1
23	37	1
114	114	5
42	42	3
42	45	2
102	102	1
50	50	3
71	72	1
99	99	4
43	74	1
84	85	2
87	87	3
88	101	1
94	94	1
105	107	1
49	49	4
85	88	1
74	92	1
44	113	1
46	46	3
104	105	1
34	35	1
67	73	1
61	62	2
24	24	1
58	86	2
64	66	1
99	113	1
97	97	1
103	107	1
57	59	2
79	95	1
101	101	2
98	99	2
65	65	1
73	73	1
32	62	1
83	94	1
88	88	2
23	67	1
23	24	2
93	94	1
22	52	1
33	33	1
90	108	1
44	55	2
81	83	1
31	31	1
20	20	1
93	108	1
100	100	1
103	103	1
40	52	1
74	76	1
28	28	2
36	39	1
42	74	1
23	109	1
80	95	1
100	113	1
61	61	1
53	94	1
90	94	1
51	52	1
83	90	1
42	99	1
72	73	1
113	113	1
110	111	1
106	107	1
32	37	1
29	96	1
70	71	1
38	38	1
91	93	1
56	97	1
68	69	1
86	86	1
35	36	1
54	59	1
38	39	1
51	62	1
107	107	1
54	67	1
28	30	1
95	101	1
96	104	1
42	60	1
54	54	1
