28	30	3
49	49	4
169	197	1
89	89	1
186	186	2
95	200	1
46	46	2
15	15	2
79	79	3
152	152	3
48	54	1
149	149	3
184	185	1
105	105	1
150	151	4
43	43	4
211	230	1
23	109	1
117	117	2
41	41	6
148	149	1
65	65	2
161	163	1
85	85	2
219	219	2
53	53	3
12	12	2
134	136	2
47	47	6
97	97	2
104	105	1
96	96	3
174	174	2
137	162	1
20	20	7
48	48	3
39	39	1
18	21	2
167	167	2
220	220	2
106	128	1
24	61	1
101	101	4
193	193	2
13	15	1
137	137	2
37	37	5
101	102	2
14	14	1
141	141	1
197	198	1
17	17	2
136	136	3
37	38	1
3	3	4
216	216	4
125	169	2
9	11	1
124	124	5
76	76	3
199	199	2
33	47	1
169	169	5
217	217	1
55	55	2
116	123	1
155	165	1
203	231	1
156	168	1
0	0	4
4	6	2
102	119	1
227	227	3
208	208	4
2	3	4
65	66	1
127	129	2
159	159	3
150	150	2
59	59	2
18	18	7
158	158	2
129	129	6
16	16	4
176	176	2
2	37	1
170	187	1
161	161	4
200	200	5
36	57	2
123	123	4
95	119	2
134	134	6
122	123	1
232	232	1
157	157	3
58	60	1
33	33	3
30	31	2
172	175	1
203	203	2
42	42	1
119	119	3
10	10	5
184	184	3
48	63	1
10	75	1
140	180	1
165	184	1
209	209	1
24	24	4
26	30	1
125	126	2
143	143	3
221	222	3
230	230	3
175	175	1
147	147	3
198	231	1
37	43	1
113	113	6
80	81	1
169	170	2
32	32	3
115	115	1
127	169	1
0	13	1
66	66	4
178	178	3
114	118	1
156	167	1
71	71	1
99	109	1
18	19	3
176	177	3
130	131	1
133	134	1
7	8	1
131	131	1
21	21	5
198	199	1
68	68	5
98	98	1
126	126	2
9	9	5
31	68	1
108	108	1
62	62	3
82	82	2
118	119	3
154	156	1
187	187	2
0	1	1
163	163	2
160	160	4
68	113	1
133	133	2
28	28	3
136	137	1
148	148	2
156	182	1
53	82	1
116	118	2
78	78	1
80	80	2
74	74	4
11	15	1
40	40	3
23	23	3
95	95	3
52	53	1
25	33	1
83	83	1
109	109	1
226	226	2
58	59	1
29	30	1
16	238	1
91	91	1
17	187	1
149	187	1
171	176	1
110	110	1
155	155	5
64	85	1
172	172	5
122	122	1
22	22	4
232	233	3
0	5	1
186	192	1
45	45	2
134	164	2
24	54	1
223	224	1
205	217	1
128	128	3
103	103	2
26	26	3
61	170	1
206	206	1
102	102	2
34	34	2
235	235	1
46	74	1
195	195	1
47	55	1
192	222	1
64	64	2
168	229	1
144	149	1
76	99	1
125	138	1
140	143	2
219	223	1
37	47	2
74	131	1
85	86	4
145	152	2
150	168	1
126	165	1
70	70	2
137	156	1
191	191	3
120	120	6
35	35	1
147	148	1
25	32	1
183	183	2
234	234	2
134	135	1
177	177	6
180	193	1
46	76	1
58	58	1
237	237	2
231	231	1
15	136	1
81	83	1
75	75	3
146	147	3
181	182	2
182	182	2
149	152	1
44	46	2
114	115	3
186	187	1
189	190	1
188	188	2
127	127	1
170	179	1
51	98	1
52	52	1
142	143	1
214	214	3
219	220	2
241	241	2
107	107	3
190	196	1
148	162	1
136	173	1
153	153	6
138	163	1
15	86	1
168	169	1
202	202	5
153	161	1
205	205	3
62	174	2
0	3	1
42	95	1
240	240	2
157	158	1
129	179	1
81	81	1
1	8	1
10	16	1
135	135	2
67	67	1
66	67	1
67	84	1
12	15	1
173	175	1
33	39	1
119	131	1
190	190	2
51	51	1
201	202	1
210	214	2
221	237	1
178	188	1
162	162	3
192	196	1
170	172	2
153	154	1
196	226	1
11	11	3
151	166	1
42	55	1
50	50	1
150	152	1
111	111	4
218	218	2
10	11	1
76	79	1
169	171	1
33	122	1
168	168	1
63	63	2
51	91	1
192	192	2
45	46	1
159	170	1
8	8	3
104	107	1
53	54	1
1	1	1
145	145	3
135	136	1
236	236	1
173	173	2
26	29	1
140	140	1
221	221	1
232	236	1
50	186	1
153	158	1
86	86	3
204	205	1
128	170	1
44	44	1
148	157	1
180	182	1
38	78	1
34	35	3
36	37	1
213	225	1
152	156	1
27	239	1
164	165	2
153	184	1
30	30	1
154	155	1
105	106	1
38	38	4
162	206	1
181	188	1
74	89	1
147	149	1
170	170	3
19	21	1
25	25	2
116	117	1
218	220	1
227	229	1
83	85	1
147	166	1
5	5	1
73	73	3
223	226	1
156	156	1
165	166	2
99	99	2
180	183	1
27	28	1
222	222	3
233	233	1
57	57	1
162	171	1
208	209	1
211	211	1
6	6	1
50	51	2
69	70	1
39	85	1
239	239	2
121	121	2
28	61	1
135	167	1
136	138	1
127	134	1
11	136	1
7	7	1
106	109	1
107	155	1
106	106	2
166	184	1
138	178	2
65	68	1
117	118	1
39	42	2
185	186	1
165	180	1
117	126	1
79	83	1
163	183	1
43	46	1
4	5	1
173	174	2
132	133	1
164	193	1
185	185	1
144	147	1
86	118	1
69	69	1
111	121	1
60	60	1
112	112	1
199	201	1
27	27	2
118	124	1
29	73	1
180	180	2
180	188	1
62	63	1
15	37	1
109	110	1
146	155	1
207	208	1
141	142	1
42	157	1
204	204	1
2	235	1
174	179	1
179	182	1
29	29	2
73	95	1
122	137	1
165	165	1
21	53	1
175	176	1
91	119	1
144	144	1
211	215	1
121	136	1
8	15	1
39	44	1
100	100	1
160	187	1
159	160	1
14	15	1
221	227	1
70	171	1
204	206	1
121	175	1
63	64	1
54	54	1
164	164	2
122	124	1
48	50	1
108	156	1
171	171	2
153	172	1
56	56	1
201	201	1
156	200	1
61	73	1
44	60	1
