35	86	1
61	61	5
30	31	1
62	63	1
95	95	3
2	2	2
8	9	2
54	76	1
173	173	3
66	66	3
89	89	3
19	19	2
123	124	3
38	107	1
79	79	2
15	15	4
55	74	2
12	12	4
85	85	3
17	17	1
68	68	1
133	133	5
59	59	1
44	44	1
129	170	1
49	49	1
132	132	2
107	107	1
166	166	3
100	101	3
92	92	1
117	117	2
85	108	2
104	106	3
137	137	3
49	50	1
123	125	2
139	139	2
170	170	2
134	134	2
2	3	1
154	154	2
56	61	2
18	18	1
153	156	2
65	65	5
144	147	1
6	7	1
109	110	1
23	23	1
10	38	1
140	140	4
5	6	1
78	78	1
24	24	1
145	149	1
121	122	1
167	167	1
176	176	5
18	62	1
15	16	1
27	34	1
75	75	5
163	163	5
6	16	1
97	98	1
94	169	1
51	51	2
122	123	2
65	94	1
142	142	4
179	180	1
128	128	1
34	35	1
91	91	3
131	137	1
80	81	1
73	73	2
155	155	1
31	31	1
87	87	4
179	179	2
56	56	2
102	113	1
7	25	1
131	131	2
8	8	1
49	51	1
172	172	4
36	43	1
30	30	1
88	88	2
57	57	1
156	156	1
38	38	2
16	35	2
7	8	1
150	150	4
152	156	2
124	124	1
130	170	1
165	167	1
37	81	1
77	77	2
32	32	3
29	61	1
67	68	1
13	31	1
65	66	1
158	163	2
61	71	1
3	3	3
147	147	3
86	116	1
108	108	2
120	120	1
33	33	2
1	1	1
34	34	1
114	114	2
65	67	1
5	5	1
123	123	3
90	90	1
37	38	1
91	165	1
96	96	2
12	13	1
146	147	2
118	118	3
71	72	1
36	36	3
26	26	2
173	176	2
143	147	1
63	63	1
90	112	1
158	158	4
165	166	2
103	108	1
135	136	1
52	71	1
154	157	2
145	145	1
8	25	1
159	159	1
112	112	2
143	144	1
101	104	1
125	130	1
171	171	2
45	45	1
50	51	1
152	152	1
149	149	1
4	4	1
66	79	1
96	100	1
43	136	1
58	59	1
29	29	1
9	9	2
42	51	2
95	162	1
0	1	1
134	142	2
81	81	1
10	10	4
103	105	1
26	27	1
162	163	1
168	168	1
8	23	1
94	168	2
160	161	1
40	40	2
22	22	2
23	24	1
176	179	2
131	132	1
106	106	1
72	138	1
0	0	2
79	86	2
80	114	1
86	87	1
43	76	1
41	41	3
28	29	2
113	113	1
105	106	1
11	11	1
90	92	1
74	74	1
89	92	1
95	102	3
45	82	1
103	104	2
11	17	2
72	72	1
52	60	1
148	148	1
14	14	1
62	62	1
99	101	1
159	160	1
101	101	1
174	174	1
153	153	1
127	148	1
105	114	1
175	175	1
39	44	1
43	43	1
130	130	2
177	179	1
102	114	1
144	151	1
50	71	1
84	85	2
49	70	1
18	37	1
148	149	1
15	18	1
94	94	2
25	26	1
102	102	1
72	76	1
125	155	1
133	153	1
