111	115	3
156	156	5
89	89	6
101	102	1
71	86	1
188	189	4
23	23	7
176	180	1
102	102	1
48	48	6
108	113	1
16	46	2
129	157	2
155	156	3
54	54	4
150	176	1
108	137	1
113	113	3
103	103	2
128	132	2
74	74	5
45	46	3
27	29	2
28	35	1
33	33	2
177	177	8
104	104	6
18	32	3
117	148	1
121	121	2
56	87	1
29	29	2
132	133	1
44	46	2
88	104	1
1	1	4
43	60	2
164	165	2
130	177	1
70	70	4
181	182	1
164	164	3
127	128	3
3	123	3
87	115	1
11	27	1
159	159	3
6	6	3
11	65	1
188	190	2
21	22	5
32	32	5
6	15	3
143	144	2
53	53	5
4	4	4
183	183	6
170	171	2
12	12	3
72	72	4
14	14	2
123	123	5
25	25	4
181	181	3
120	122	2
45	45	1
82	82	6
40	109	1
146	146	2
172	172	1
86	86	2
81	81	3
30	30	4
58	58	6
174	174	5
125	125	2
73	74	2
97	98	1
2	2	4
117	117	2
20	20	6
141	141	5
13	13	10
105	105	3
23	24	3
108	108	3
94	150	1
142	142	3
44	48	1
100	118	1
41	41	7
1	6	2
93	93	5
183	186	1
152	152	3
155	155	3
97	97	4
184	185	4
124	127	3
4	5	5
23	48	1
34	35	1
109	110	2
129	129	3
163	163	2
176	177	4
27	27	5
143	143	7
186	186	5
19	19	4
148	148	3
19	91	1
102	104	2
29	35	1
122	122	1
55	88	1
47	47	12
119	150	1
65	65	4
145	145	4
99	119	1
122	125	1
77	77	2
165	165	1
134	138	1
151	166	2
104	118	1
166	166	5
71	89	1
96	96	3
161	176	1
72	159	1
68	68	3
76	76	1
125	126	3
48	84	1
2	4	1
107	107	5
163	166	1
28	28	5
15	16	2
80	185	2
22	22	6
62	62	1
7	7	3
60	61	2
43	43	5
23	185	1
59	60	1
17	53	1
116	136	1
158	159	1
7	8	2
18	18	2
7	25	1
82	120	1
105	114	1
171	171	6
27	37	2
66	67	1
119	133	2
38	38	7
128	128	3
98	98	5
21	21	5
35	35	3
130	131	5
149	152	1
45	106	1
134	134	6
161	164	1
97	143	1
91	107	1
64	64	7
174	177	1
116	116	6
180	180	7
38	183	1
27	89	1
94	94	3
157	158	1
100	100	1
40	56	2
31	37	1
161	161	1
64	79	2
90	108	2
24	24	3
56	111	1
37	38	3
118	118	8
71	72	2
37	37	2
46	118	1
59	59	4
32	33	3
106	113	1
137	176	1
18	44	1
17	17	5
168	180	1
60	60	3
58	63	1
100	103	1
184	184	6
46	95	2
3	3	5
85	142	1
84	84	3
131	131	2
110	110	5
162	162	2
127	127	3
27	168	1
16	23	1
47	48	1
13	14	1
61	62	1
55	55	7
10	10	2
40	40	8
140	141	2
99	99	8
159	160	1
173	174	1
36	36	3
23	63	1
39	39	2
29	61	1
190	190	3
28	29	1
144	144	3
44	64	1
147	148	3
185	186	2
158	158	6
11	11	5
168	168	1
12	22	1
114	157	1
88	88	5
155	181	1
36	37	1
19	36	1
16	16	5
65	68	1
170	170	5
129	133	2
8	8	2
122	126	1
44	98	2
62	67	1
6	71	1
106	120	1
71	71	5
57	57	1
42	44	1
74	76	1
109	109	3
153	165	1
63	63	3
53	54	3
151	151	5
150	150	3
68	87	2
135	156	1
175	175	1
142	158	1
73	143	1
54	55	2
34	34	2
112	114	2
40	45	1
101	101	2
42	42	2
122	180	1
19	43	1
139	159	1
34	59	1
146	148	1
160	160	3
73	77	1
142	143	3
115	115	3
148	165	1
5	6	2
178	180	1
59	62	2
101	106	1
150	156	1
128	187	1
137	137	3
67	99	1
104	105	2
78	78	3
78	79	3
15	15	2
79	80	1
133	133	4
98	99	1
126	134	1
85	85	3
34	54	1
42	65	1
120	120	3
153	154	1
110	111	4
29	31	1
76	103	2
37	89	1
80	87	1
24	42	1
62	63	1
5	5	3
91	91	5
140	187	1
21	33	1
155	186	1
182	189	3
31	33	1
130	130	3
139	139	2
95	129	1
116	117	1
44	44	1
74	112	1
160	163	1
104	107	1
176	176	3
84	85	2
68	71	1
170	182	3
67	67	1
168	169	2
44	63	1
64	69	2
179	180	3
124	124	2
7	81	1
119	119	2
131	143	1
25	29	1
24	26	1
39	42	2
44	45	1
151	159	1
18	43	1
136	136	1
187	187	1
28	36	1
30	43	1
170	178	1
18	19	2
74	104	1
153	153	3
33	34	2
175	184	2
137	150	1
177	180	1
91	92	1
114	118	1
73	73	3
111	111	2
80	81	2
114	115	1
188	188	2
27	32	1
98	114	1
15	86	1
103	108	1
79	79	2
11	21	1
104	125	1
64	70	1
74	148	1
12	45	1
125	127	1
147	183	1
53	55	2
87	133	2
140	142	1
114	125	1
107	111	1
147	147	1
54	71	1
91	93	2
56	56	1
23	27	1
19	20	2
80	82	2
31	32	1
145	147	1
12	13	2
18	33	1
133	134	1
75	75	1
182	182	3
169	169	1
126	130	1
92	94	1
3	141	1
151	182	1
29	30	3
82	83	2
83	107	2
135	149	1
91	94	1
57	82	1
185	185	4
112	115	1
141	157	1
41	123	4
112	139	1
14	15	2
80	80	1
143	166	2
186	190	3
169	181	1
124	125	1
55	79	1
10	13	1
56	57	1
27	28	1
86	151	1
95	95	1
92	126	1
155	176	1
58	62	1
35	36	1
181	183	1
155	159	1
24	28	1
96	100	1
144	146	1
148	151	1
121	180	1
92	93	1
149	149	5
40	59	1
177	190	1
189	189	3
70	72	1
69	105	1
45	64	1
66	112	3
122	175	1
0	0	1
53	87	1
79	145	1
154	155	1
75	128	1
124	126	1
74	75	1
127	131	1
90	90	2
178	184	1
38	53	2
135	135	2
179	181	1
96	105	1
42	48	1
35	59	1
57	87	1
142	168	1
126	126	2
134	136	1
32	34	1
23	31	1
135	150	1
95	99	1
22	23	1
137	138	1
157	164	2
72	73	1
114	114	1
10	11	1
83	83	3
39	43	1
14	16	1
134	166	1
140	164	1
158	175	1
139	184	1
140	140	2
61	61	2
111	112	1
138	139	1
106	107	1
139	183	1
103	128	1
30	32	1
62	65	1
63	64	2
8	124	2
14	18	1
141	142	1
41	67	1
166	168	1
46	46	1
16	22	1
131	171	1
75	89	1
156	158	1
86	88	1
6	56	1
16	20	1
133	138	1
16	17	1
76	79	1
68	82	1
102	122	1
64	132	1
6	7	1
20	21	1
154	154	2
55	56	1
131	132	2
167	168	1
94	99	1
62	91	1
117	121	1
140	155	1
31	31	1
64	68	1
115	116	1
72	75	2
42	45	1
44	47	1
92	125	1
127	130	1
171	172	1
172	173	1
90	91	2
128	131	1
139	155	1
135	136	1
157	157	1
126	127	1
52	165	1
178	179	2
108	109	2
75	76	1
31	124	1
74	145	1
9	16	1
35	54	1
45	47	1
150	151	1
111	188	1
139	148	1
58	59	2
16	34	1
12	19	1
36	41	1
177	179	1
123	141	1
115	118	1
126	128	1
23	45	1
38	39	1
187	188	1
84	94	1
68	113	1
26	32	1
73	184	1
155	166	1
87	87	1
168	176	1
154	159	1
103	141	1
104	106	1
64	65	1
9	10	1
119	121	1
142	145	1
143	146	1
175	177	1
13	17	1
11	23	1
123	124	1
128	135	1
162	163	1
114	121	1
46	47	1
148	150	1
166	188	1
101	105	1
75	103	1
149	171	1
