39	40	2
22	98	1
15	15	5
18	113	1
83	87	1
20	20	3
28	28	1
119	119	1
12	18	1
61	61	3
0	44	2
74	74	6
33	77	2
27	27	4
107	107	4
21	21	1
130	130	5
133	134	1
8	8	6
23	26	2
32	32	4
118	118	3
133	133	3
93	93	4
86	86	2
27	29	3
6	32	1
78	78	4
85	99	1
56	57	2
75	82	1
35	35	5
128	128	4
83	83	5
129	134	1
97	105	2
40	43	1
126	126	6
64	64	7
113	113	10
31	31	2
94	95	3
0	0	8
100	100	6
25	25	2
112	113	2
79	79	10
11	18	3
64	94	1
103	104	2
73	73	4
90	90	5
14	15	2
80	80	4
97	97	3
56	134	2
114	114	3
100	101	6
76	76	3
63	63	4
123	128	2
61	62	2
56	56	7
55	55	4
120	120	6
101	101	5
93	121	1
38	38	5
71	72	1
120	128	1
75	75	6
117	117	2
82	83	2
80	97	1
13	14	2
120	121	1
96	98	1
116	116	6
45	45	5
16	16	5
68	69	2
99	99	6
75	76	2
26	26	1
60	60	5
12	12	6
105	116	1
10	11	1
127	127	4
58	58	2
69	70	2
110	110	4
62	62	2
47	55	1
75	116	1
96	96	1
24	27	1
32	33	3
3	3	2
111	111	3
24	115	1
68	68	4
105	105	4
18	18	2
40	42	1
21	22	4
123	123	4
97	100	1
126	129	1
37	37	8
17	17	4
90	129	1
67	67	2
106	106	3
34	76	1
92	92	2
83	88	1
82	82	2
37	38	1
14	14	4
42	42	5
2	2	3
25	32	1
46	46	7
0	1	2
9	9	6
80	81	1
11	11	6
22	27	1
84	84	4
109	109	5
114	116	2
96	99	1
64	71	1
57	57	2
71	71	3
122	133	1
128	129	1
119	120	1
102	102	5
96	97	2
43	43	2
111	112	1
90	91	2
37	42	1
93	129	1
1	1	2
22	22	1
20	100	1
121	121	1
115	116	2
95	95	3
29	29	5
112	116	1
6	6	4
91	108	2
104	105	4
59	60	3
118	119	3
15	16	1
19	19	2
23	24	1
19	20	1
12	31	1
66	68	1
28	29	1
81	81	3
98	99	1
24	24	1
47	47	3
110	111	1
57	58	2
86	99	2
94	94	2
78	79	1
93	94	1
36	40	2
48	51	2
94	98	1
89	89	1
124	124	2
13	30	1
28	32	1
24	26	2
98	98	4
131	132	2
60	64	1
29	30	1
86	87	3
64	65	1
15	17	1
29	31	1
72	72	3
23	23	4
36	36	3
108	110	1
87	87	2
59	59	3
112	112	4
66	67	1
90	115	1
83	84	1
95	98	1
41	42	2
27	28	3
8	9	2
108	121	1
99	100	2
109	125	2
125	130	1
16	35	1
71	73	1
33	114	1
87	88	2
57	77	1
5	5	3
93	116	1
39	49	1
15	77	1
47	48	1
66	66	2
61	63	1
44	45	1
30	30	4
115	115	1
132	132	2
39	39	3
59	76	1
115	128	2
131	131	3
102	126	1
27	32	1
72	73	1
120	134	1
55	56	1
62	73	1
12	14	1
65	65	3
25	40	1
92	93	1
22	80	2
109	114	1
55	77	1
85	85	1
78	102	1
4	9	1
87	125	1
88	90	1
90	102	1
48	49	1
65	66	1
20	110	1
4	5	1
88	88	1
91	91	1
90	133	1
40	51	1
4	4	2
97	98	1
17	18	1
35	43	1
123	124	1
84	86	1
49	49	1
84	127	1
17	44	1
132	133	1
77	78	1
10	10	2
92	129	1
12	82	1
69	69	2
34	35	1
21	23	1
134	134	1
117	128	1
122	122	1
70	70	2
12	34	1
7	7	1
84	88	1
45	76	1
90	92	1
17	36	1
31	32	1
121	122	1
1	122	1
108	114	1
13	13	1
101	102	1
105	108	1
40	40	1
