175	175	1
190	190	1
140	140	1
60	62	1
118	119	3
4	55	1
186	186	3
78	79	1
92	98	1
150	150	2
114	115	1
154	155	3
93	93	3
104	133	2
36	36	2
137	138	2
182	183	2
2	2	3
91	93	1
110	144	1
74	74	2
148	148	2
103	103	1
104	105	1
57	57	2
145	145	2
62	92	1
128	129	2
5	5	3
25	25	1
10	11	1
110	133	1
66	67	2
7	7	2
181	181	1
9	10	1
36	43	1
30	31	1
11	13	1
44	44	3
55	80	2
71	72	1
85	85	3
81	82	1
99	100	1
116	172	1
172	189	2
104	104	2
55	68	1
172	173	2
87	88	2
184	184	1
139	174	1
178	178	1
177	178	1
37	37	1
53	155	1
188	189	1
1	95	3
173	173	4
176	178	1
132	190	1
138	138	1
187	187	4
126	127	1
177	181	1
172	172	1
45	45	1
143	143	3
165	166	1
84	84	3
8	9	1
1	3	1
110	175	1
179	181	1
19	19	3
37	43	1
162	181	1
119	119	1
97	106	2
90	90	2
130	130	2
176	176	3
75	75	1
11	11	2
24	44	1
58	126	1
59	59	4
48	48	1
172	182	3
154	154	1
79	140	1
118	118	2
81	83	1
91	105	1
56	57	1
139	139	1
32	32	1
142	142	1
71	71	3
1	1	1
95	100	1
119	140	1
39	55	1
108	108	2
35	35	2
96	96	1
170	170	2
94	112	1
129	129	1
22	45	1
10	18	1
121	121	1
132	137	1
114	117	2
42	44	1
101	101	3
169	185	1
137	137	1
56	56	1
127	128	1
62	65	1
43	44	1
3	3	1
166	171	1
138	139	1
140	175	1
13	14	1
15	16	1
31	121	1
72	73	1
105	106	2
29	29	1
24	25	1
42	43	2
178	189	1
160	161	1
105	105	1
122	123	1
116	117	1
149	149	1
1	67	1
119	122	1
141	152	1
30	32	1
110	110	6
81	81	1
65	65	3
0	0	3
105	111	1
93	94	1
58	60	1
82	82	1
117	118	1
61	106	1
156	158	1
25	26	1
100	106	1
127	147	1
88	88	1
80	80	2
63	63	1
24	24	1
175	176	1
95	95	2
152	183	1
132	139	1
153	153	1
96	98	1
46	123	1
146	148	1
157	157	1
18	138	1
17	23	1
18	18	1
156	156	1
154	165	1
92	92	2
96	99	1
16	16	1
67	67	1
102	105	1
125	152	1
133	136	1
184	185	1
44	45	1
152	152	1
109	109	1
34	37	1
154	164	1
115	116	1
25	47	1
27	27	2
72	72	1
172	175	1
45	47	1
6	7	1
159	175	1
101	102	1
70	71	1
178	184	1
160	160	1
47	47	1
99	99	1
97	98	1
63	114	1
110	139	1
13	13	1
58	58	2
133	133	1
107	119	1
149	177	1
122	124	1
23	44	1
188	188	1
171	171	1
165	169	1
148	149	1
117	119	1
40	40	1
17	55	1
10	13	1
135	136	1
54	81	1
38	38	2
68	107	1
83	85	1
41	41	1
124	125	1
165	165	1
112	112	1
167	169	1
27	60	1
