20	20	4
137	137	5
7	7	4
23	82	1
85	85	2
21	21	3
128	128	4
20	48	2
84	84	5
150	150	6
116	116	5
98	98	9
18	18	4
45	47	5
27	28	1
127	127	8
141	141	5
136	137	2
108	120	1
47	51	1
4	4	5
69	70	2
70	70	2
42	42	6
151	152	2
17	18	2
47	48	1
89	89	2
15	113	1
84	86	1
77	77	5
104	104	12
6	6	5
148	148	9
110	110	2
86	87	2
140	140	9
21	22	1
90	90	5
25	27	1
78	78	3
53	53	4
36	98	1
7	8	2
136	136	3
62	62	3
124	124	3
111	113	2
67	67	2
95	95	4
80	80	7
153	153	2
1	1	6
154	154	9
135	135	5
139	139	5
96	96	2
151	151	5
146	146	4
126	126	4
92	120	1
23	23	2
27	29	1
75	99	1
131	132	1
105	105	7
50	50	2
14	14	3
123	124	1
84	151	1
5	5	4
157	157	8
36	38	2
117	117	5
149	150	1
158	158	8
9	52	1
138	139	2
71	71	4
20	34	2
90	92	1
93	94	1
104	135	1
68	68	2
77	112	1
143	144	1
41	41	6
61	85	1
33	33	3
0	0	6
130	132	1
31	32	1
83	83	6
69	69	8
17	19	1
152	152	4
15	16	2
91	95	1
86	86	2
119	120	1
142	142	8
34	34	4
4	5	1
133	133	5
156	156	2
56	56	2
111	111	4
94	94	6
24	24	2
124	127	2
13	14	3
80	89	1
82	83	2
91	91	7
112	112	5
55	65	1
66	67	1
107	148	2
122	122	5
138	138	7
120	126	2
137	139	1
57	57	1
96	116	1
26	26	3
13	13	1
77	91	1
108	108	4
31	40	1
95	110	2
38	39	1
14	15	3
131	131	3
48	56	1
115	117	1
98	138	1
98	105	1
117	134	1
66	66	1
103	104	2
81	82	1
35	138	1
125	126	5
2	2	9
119	119	4
23	24	2
109	109	5
134	145	1
118	119	3
27	27	4
138	144	1
92	92	6
127	128	1
55	55	7
12	15	1
44	148	1
40	83	1
129	129	5
99	100	1
88	89	3
29	29	3
127	138	1
135	142	1
31	31	3
95	136	1
88	88	8
80	81	4
101	101	8
117	118	2
25	116	1
82	82	2
75	75	7
44	44	4
1	4	2
90	96	1
64	65	3
150	151	1
38	80	2
40	85	1
133	138	3
155	158	1
97	102	2
155	155	4
72	72	3
108	109	2
81	81	1
73	73	8
97	97	2
103	103	4
32	35	4
123	123	5
146	147	4
48	67	1
106	107	4
123	127	1
39	40	2
154	156	1
96	152	2
105	139	1
122	123	1
120	120	4
66	75	1
71	72	2
45	45	3
26	27	1
144	144	2
9	10	3
63	63	5
93	97	1
65	65	3
107	107	4
97	98	2
43	96	1
146	148	1
89	90	1
56	69	1
134	135	2
27	71	1
30	30	4
3	3	3
71	89	1
42	43	2
134	134	9
143	143	3
134	137	2
130	130	2
12	12	4
26	72	1
120	121	1
33	50	1
93	93	2
104	130	2
65	71	1
112	119	1
40	41	2
39	39	1
118	120	2
25	25	3
154	155	1
48	49	1
152	153	3
46	49	1
121	121	5
30	72	1
122	124	2
108	110	2
8	20	1
53	61	1
90	112	1
11	15	1
102	103	1
111	120	1
35	35	1
130	139	1
128	139	1
49	49	1
149	149	3
130	131	3
79	110	1
2	4	1
118	157	1
16	16	2
114	114	3
79	93	1
99	103	1
28	42	1
115	141	1
102	102	1
73	77	2
121	123	2
90	91	3
10	15	1
113	113	5
66	80	1
67	78	1
55	56	2
46	46	5
70	71	4
117	138	1
117	143	1
106	106	3
144	146	2
77	80	1
149	151	2
53	54	1
22	27	1
130	151	1
11	13	1
11	11	2
22	26	1
38	38	4
145	146	2
139	149	1
99	99	2
121	122	2
125	125	2
47	47	3
43	47	2
93	122	1
20	36	1
32	50	1
86	109	1
147	147	3
19	19	1
64	64	1
16	32	1
34	54	1
72	73	2
56	61	1
12	131	1
25	36	1
25	131	1
22	22	4
37	37	2
39	122	1
13	16	2
87	87	1
54	54	1
96	97	1
28	50	1
34	48	1
11	14	1
144	145	1
46	47	4
30	31	1
118	118	2
135	140	1
5	6	1
34	78	1
80	90	1
148	149	2
12	14	1
48	48	6
132	133	2
32	33	1
129	130	2
137	138	1
124	125	2
156	158	1
139	140	2
10	10	1
100	100	2
48	94	1
79	81	1
126	143	1
65	100	1
78	79	1
120	141	1
46	48	1
112	117	1
117	119	1
131	139	1
90	127	1
108	111	1
33	47	1
39	147	1
110	114	1
11	12	1
145	145	1
154	157	1
32	38	1
54	55	1
110	137	1
5	7	1
129	138	1
27	133	1
1	2	2
67	97	1
40	40	2
15	15	2
77	79	1
67	68	1
48	86	1
8	12	2
111	112	1
76	77	1
20	21	1
51	52	2
157	158	1
91	96	1
50	55	1
111	139	1
80	82	1
32	32	1
123	149	1
24	44	1
66	130	1
9	41	1
6	12	1
113	117	1
18	50	1
107	139	1
52	52	1
17	34	1
93	95	1
109	110	1
78	122	1
107	110	1
26	71	1
99	105	1
100	151	1
3	4	1
75	127	1
