90	91	2
21	21	4
79	81	2
3	3	16
78	78	8
157	157	5
5	5	11
89	89	8
72	108	1
26	26	8
24	24	13
124	141	1
4	4	6
157	167	2
43	43	7
95	96	3
121	121	12
163	178	1
12	14	2
131	132	1
5	6	2
71	71	14
71	72	4
119	119	12
174	175	2
7	8	4
79	79	16
137	137	6
129	151	1
142	143	4
109	111	1
0	0	8
175	175	5
27	28	2
15	23	2
136	176	1
177	180	2
56	56	8
82	127	1
177	188	1
102	102	12
96	96	7
148	159	1
131	131	8
97	102	1
168	169	2
124	150	2
111	120	1
178	178	9
156	179	2
166	166	8
42	69	2
17	24	2
54	55	4
155	155	17
13	15	4
37	37	14
136	136	6
107	107	10
123	128	2
82	82	12
142	146	1
117	117	6
97	97	9
79	124	1
41	41	11
99	107	1
159	159	7
128	129	4
107	108	3
179	181	3
99	99	10
183	183	9
57	58	2
100	100	12
55	55	15
149	180	2
4	5	3
95	145	1
3	7	1
83	96	1
66	67	1
30	30	9
106	110	2
47	54	1
76	77	3
29	31	2
153	155	2
41	55	1
172	174	1
163	164	4
11	12	5
177	177	8
126	127	3
186	188	2
128	181	1
113	113	10
40	48	1
149	150	6
85	85	7
120	121	1
83	124	1
188	188	9
15	15	10
111	127	1
142	142	11
147	154	1
46	46	10
174	174	10
169	170	5
78	79	2
99	103	2
148	148	2
46	47	5
106	106	9
172	172	10
36	36	7
13	16	1
94	94	11
116	116	5
114	114	7
125	125	7
19	20	5
6	6	7
157	158	3
180	183	1
141	142	4
91	91	2
165	167	1
143	143	13
185	185	18
25	25	9
77	77	13
72	72	4
164	164	6
8	8	7
138	138	8
126	129	1
80	96	1
76	134	1
84	84	7
135	137	3
132	132	3
157	180	2
86	86	7
183	184	7
106	170	1
185	186	3
115	126	1
64	65	2
95	124	1
187	187	14
144	144	11
69	95	1
38	38	6
146	187	1
175	182	1
55	56	2
110	111	5
127	127	4
23	23	8
125	126	2
53	53	11
54	54	12
123	124	7
146	146	4
70	71	4
61	61	6
103	124	1
29	41	1
82	83	3
110	110	15
149	149	11
111	112	5
31	31	5
101	101	13
150	151	4
70	124	2
151	185	1
0	2	1
56	57	6
109	109	11
148	155	3
88	89	2
28	30	3
158	158	12
80	81	8
114	123	1
41	42	3
92	93	3
108	109	7
143	183	1
44	44	3
129	129	7
1	2	3
176	177	4
27	41	1
176	190	1
14	14	10
40	40	8
182	183	5
169	169	8
118	119	6
134	144	1
181	181	5
20	21	3
130	131	4
120	146	2
30	31	1
63	64	3
100	117	1
111	111	6
151	152	2
115	116	1
106	127	1
142	170	2
147	147	14
9	10	2
121	138	1
119	174	1
10	10	10
57	57	12
1	1	10
162	163	1
92	92	5
175	183	1
135	135	4
147	153	1
172	173	3
160	160	8
168	168	8
141	150	2
45	46	4
97	99	1
140	140	15
32	32	8
170	174	1
127	144	2
81	81	8
186	186	7
66	66	10
73	73	6
103	104	3
54	77	1
178	186	1
121	122	4
34	35	4
33	33	7
18	19	3
44	47	1
89	129	1
42	45	1
72	93	1
45	45	8
62	62	5
20	72	1
141	141	6
76	99	1
22	22	8
123	123	14
122	122	14
117	118	5
178	184	2
75	75	3
179	179	5
112	112	8
17	17	11
154	154	15
78	107	1
13	28	3
127	137	1
43	44	7
96	98	1
129	148	3
23	89	1
163	163	4
107	114	1
80	80	7
11	11	8
134	134	4
189	190	3
14	41	1
119	120	3
27	30	1
47	47	7
87	142	1
187	188	1
79	139	1
21	35	1
139	139	13
105	105	12
29	29	7
125	128	1
171	171	3
86	89	2
54	58	1
119	123	1
10	40	1
7	7	10
145	148	1
87	124	1
161	161	2
114	116	2
56	69	2
19	19	4
67	68	3
150	170	1
90	90	11
130	139	2
63	71	1
6	36	1
145	146	3
23	24	2
3	145	2
6	7	5
77	88	1
145	145	5
24	42	1
153	153	7
180	180	10
13	14	3
175	176	3
167	167	9
190	190	8
85	119	1
128	128	8
115	115	6
38	40	1
175	178	2
39	39	10
142	164	1
42	55	1
37	44	1
23	30	1
128	131	1
9	71	1
174	178	1
159	183	1
158	160	1
103	103	8
98	164	1
52	52	1
143	144	2
138	139	3
98	98	5
91	94	2
49	49	1
152	166	1
23	37	1
2	2	16
136	139	2
106	141	1
126	126	7
26	39	1
96	110	1
9	13	1
70	70	4
112	137	1
28	28	8
52	53	1
76	76	7
13	24	2
47	48	2
150	150	6
64	68	1
72	103	1
178	183	1
88	88	6
76	109	1
178	180	2
118	118	6
152	152	8
130	134	1
64	66	1
170	171	3
48	77	1
121	166	2
175	186	1
35	58	1
145	154	1
77	127	1
184	184	10
173	173	14
98	99	1
68	68	8
128	140	1
11	30	2
147	152	1
39	128	2
13	37	1
44	46	2
89	90	3
96	97	4
134	138	1
58	58	8
182	182	4
15	26	2
61	62	2
24	87	1
144	154	2
1	6	3
0	1	2
54	78	1
73	123	1
83	83	9
166	190	1
13	13	4
62	66	1
180	182	1
26	30	3
16	17	1
87	87	7
12	19	1
43	77	1
146	160	2
173	190	1
6	39	1
162	164	1
10	12	3
12	13	2
140	141	2
76	89	1
12	183	1
100	110	1
99	114	1
63	108	3
6	109	1
149	158	1
138	170	1
81	140	3
92	100	1
7	9	1
80	125	2
84	85	3
156	156	12
91	138	1
53	56	1
91	92	1
63	89	1
78	129	1
130	130	6
80	153	1
120	120	8
28	29	4
48	49	2
98	112	1
18	70	1
44	57	1
94	95	3
166	183	1
40	47	2
40	41	1
112	113	1
37	38	1
0	109	1
170	173	1
159	184	1
34	34	2
145	185	1
75	122	1
16	16	6
154	188	2
173	174	1
141	151	3
154	165	1
5	7	2
102	113	1
158	180	2
188	190	2
113	122	1
131	145	1
18	23	1
188	189	1
167	179	1
124	124	6
152	153	2
149	165	1
26	27	5
95	95	9
104	106	2
122	123	3
90	122	1
167	168	3
18	18	3
92	114	1
25	74	1
127	166	1
84	114	1
95	106	2
131	133	2
78	95	1
131	137	1
42	49	1
116	117	1
42	44	2
87	88	2
32	37	1
91	102	1
75	89	2
91	93	1
29	30	4
20	20	3
83	85	1
165	165	5
16	26	1
9	22	1
170	170	7
179	180	2
40	42	1
189	189	4
156	158	1
9	9	1
154	155	4
156	157	1
27	27	6
31	33	2
22	29	1
59	59	4
56	68	1
184	185	1
125	139	1
151	151	5
0	30	1
171	173	2
9	42	1
53	64	1
60	70	1
26	55	1
76	96	1
115	117	3
184	187	1
133	173	1
128	183	1
43	45	2
31	32	4
75	76	2
55	58	1
108	108	9
155	159	1
126	183	2
159	160	1
151	155	3
152	183	2
102	103	2
139	140	2
12	40	1
176	176	7
42	43	2
77	78	1
128	130	1
150	168	1
93	93	8
26	47	1
177	178	2
11	24	1
44	45	2
86	117	1
25	38	1
14	15	6
18	20	2
118	166	2
42	42	5
183	186	1
105	150	1
15	16	2
48	48	11
172	178	1
166	167	2
144	153	1
154	169	2
125	134	1
184	186	1
67	90	2
16	108	1
148	151	1
138	150	1
120	140	2
58	70	1
1	153	1
137	144	1
33	35	2
167	169	1
124	126	2
64	64	6
166	175	1
58	63	1
124	144	1
151	154	1
123	153	1
149	164	2
12	12	7
3	4	1
110	125	1
160	162	1
58	59	3
92	98	1
105	121	2
104	105	1
152	154	1
114	121	1
35	35	3
116	155	1
16	23	1
1	38	1
160	163	1
52	56	2
9	36	1
80	82	1
164	169	1
121	126	1
127	128	1
25	41	1
90	95	1
181	190	1
32	42	3
175	187	1
99	108	1
101	106	2
97	118	1
98	101	1
13	27	1
97	124	2
148	150	1
11	13	1
30	32	1
161	164	1
61	63	2
115	127	1
163	174	1
73	74	2
28	32	1
63	130	1
139	151	1
59	61	2
89	94	1
178	182	1
159	164	3
125	160	1
85	100	1
123	127	2
47	86	1
159	174	1
165	166	2
126	137	2
146	151	1
53	54	1
34	37	1
135	158	1
68	86	1
25	56	1
74	80	1
65	65	3
170	172	1
78	100	2
77	109	2
71	93	1
106	128	2
111	151	1
180	187	1
171	172	5
149	151	2
147	149	1
129	130	2
133	136	1
163	180	1
166	170	1
111	122	1
126	139	1
9	26	1
79	80	2
97	103	1
24	25	3
27	47	1
97	115	1
67	67	4
139	163	1
57	97	2
63	63	4
109	119	1
137	149	2
8	123	1
32	35	2
95	118	1
16	19	2
75	77	1
113	123	2
68	72	1
120	189	1
155	160	1
84	105	1
127	152	1
177	179	2
139	145	1
154	170	2
65	108	1
29	33	2
113	129	1
48	57	1
108	170	1
1	53	1
143	178	2
147	151	1
104	104	4
151	183	1
181	189	1
120	128	1
27	35	1
0	22	1
127	132	1
82	111	1
162	162	1
58	89	2
1	14	1
117	133	1
12	28	2
78	108	1
140	175	2
65	68	1
27	29	2
32	34	1
166	179	2
123	151	1
155	183	1
20	28	1
180	181	1
135	136	2
80	113	1
57	71	1
97	98	1
106	111	1
6	25	1
130	132	1
105	106	1
120	142	1
134	135	1
133	138	1
112	159	2
120	122	1
74	74	4
122	128	2
171	188	1
4	154	1
164	165	3
181	183	1
101	177	1
2	25	1
62	63	1
181	186	1
118	122	1
147	148	1
60	60	2
181	182	2
53	100	1
166	187	1
108	112	1
150	180	1
109	110	2
179	182	1
124	125	2
113	130	1
71	79	1
8	9	1
119	124	1
141	170	1
15	47	1
116	121	1
23	35	1
53	118	1
104	108	1
11	43	2
65	83	1
143	156	1
187	190	1
174	185	1
114	115	3
95	99	1
16	42	1
10	11	3
74	75	1
101	102	2
2	57	1
163	181	1
28	35	1
169	175	1
76	94	1
135	139	1
127	148	1
17	18	1
110	122	1
86	112	1
79	122	1
163	165	1
15	25	1
10	38	1
114	159	1
18	72	1
38	145	1
169	178	1
38	123	2
151	160	3
15	41	2
7	13	1
92	94	1
2	186	1
17	20	1
121	165	1
81	82	2
98	168	1
72	90	1
171	183	2
115	119	2
138	144	1
56	70	1
89	99	1
111	130	1
104	125	1
2	8	1
19	21	1
33	34	2
53	86	1
139	154	1
18	47	1
10	39	1
151	156	1
76	78	1
93	94	2
152	155	1
71	104	1
106	108	1
87	120	1
125	138	1
92	104	1
7	16	1
31	36	1
15	17	1
153	178	1
23	56	1
88	111	1
101	104	1
32	71	1
86	107	1
39	40	3
145	155	1
106	113	1
114	135	2
60	61	1
55	77	1
9	24	1
58	68	1
8	74	1
143	166	1
4	6	1
108	110	1
87	108	1
24	27	1
141	143	1
35	37	1
158	159	1
186	190	1
79	119	1
15	18	1
126	128	1
55	57	1
109	141	1
99	100	1
117	130	1
29	34	2
6	8	1
159	189	1
53	107	1
53	75	1
55	184	2
38	39	1
7	104	1
117	119	1
26	52	1
133	133	1
83	139	1
177	187	1
107	126	1
121	130	1
67	96	1
102	137	1
16	177	1
116	118	2
151	187	1
97	114	1
137	159	1
137	138	1
21	22	1
111	113	1
174	176	1
71	74	1
186	187	2
142	171	2
100	102	1
132	133	1
108	131	1
158	163	1
100	122	1
83	89	1
19	28	1
16	31	1
