157	157	7
118	118	2
23	23	4
150	151	5
46	46	8
10	16	1
92	104	1
100	100	6
0	0	2
22	22	4
92	92	2
90	90	1
4	4	9
119	120	1
44	44	2
21	21	3
123	147	3
38	38	2
101	101	6
68	68	1
126	126	1
66	152	1
116	138	1
110	110	7
52	52	2
125	126	2
116	117	1
18	18	2
108	109	1
146	147	2
75	75	6
87	88	2
135	135	9
42	43	2
110	117	1
152	152	4
38	39	3
146	146	5
65	75	1
13	14	2
6	72	1
128	129	1
90	95	1
21	22	1
35	35	1
116	133	1
67	67	4
124	125	2
9	9	3
120	120	3
143	143	1
26	26	2
67	78	1
1	1	2
91	91	7
91	94	1
111	111	3
119	119	2
129	129	2
82	82	4
123	126	4
138	138	3
112	112	5
127	127	3
97	97	3
156	156	3
156	157	2
5	6	3
116	140	1
102	102	2
121	121	5
70	71	2
72	97	1
136	136	3
87	137	1
9	11	1
30	30	1
41	41	3
20	35	2
36	68	1
84	109	2
117	117	2
106	106	3
79	79	2
123	125	2
10	12	1
158	158	3
55	56	1
11	11	3
53	53	3
20	21	2
25	25	4
78	85	1
88	89	1
69	69	5
32	32	1
112	124	1
98	98	4
155	155	5
134	134	3
110	145	1
122	122	3
2	2	4
54	55	1
94	94	1
140	140	4
142	143	3
105	154	1
27	27	2
106	129	3
134	135	1
142	142	3
43	43	2
50	50	2
148	148	5
71	71	5
137	147	1
108	108	6
145	159	1
103	103	3
4	5	3
61	61	1
99	99	2
88	113	1
28	28	3
38	41	1
40	48	1
144	144	1
112	127	1
119	155	1
19	46	3
3	36	1
1	2	2
64	64	1
125	142	1
69	119	1
137	137	5
49	49	3
0	1	2
22	23	2
110	111	3
73	73	1
20	20	1
55	92	1
131	131	2
105	105	2
124	136	1
36	36	1
8	9	1
99	159	1
83	95	1
10	10	1
131	149	1
56	56	3
69	71	1
139	139	4
136	137	1
113	117	1
89	90	1
109	110	1
80	80	1
123	136	1
104	105	2
115	115	4
87	95	1
128	128	4
16	16	5
83	84	1
17	17	1
141	141	1
116	116	2
124	142	1
89	91	1
155	156	2
15	15	1
109	109	3
150	150	5
123	123	2
132	132	3
36	85	1
148	150	1
104	104	2
104	155	1
14	14	1
77	106	1
87	87	1
124	124	2
92	138	1
122	124	1
25	37	1
114	114	3
117	118	1
149	149	4
107	107	2
88	88	2
24	53	1
48	52	1
76	76	3
10	11	1
129	152	1
43	50	1
47	47	2
85	108	1
134	146	2
145	145	3
131	134	1
13	15	1
33	34	1
112	113	1
99	101	1
10	31	1
33	33	2
130	130	1
71	73	1
15	136	1
133	133	2
66	66	2
145	149	1
22	29	1
114	115	1
88	90	1
85	85	1
36	37	1
52	78	1
57	58	1
123	124	1
31	32	1
31	31	2
81	82	2
33	112	1
126	131	1
141	152	1
95	95	1
87	97	1
83	109	1
105	107	1
149	150	1
8	131	1
127	138	1
42	119	1
13	13	1
79	82	1
28	36	1
111	151	1
43	44	1
52	53	1
147	147	1
43	139	1
120	127	2
39	39	2
151	154	1
35	41	3
6	6	2
28	92	1
65	65	2
103	104	1
55	55	3
26	27	1
138	139	3
65	149	1
82	83	1
150	155	1
46	81	1
67	69	1
93	93	1
145	146	1
32	43	1
12	13	1
45	109	1
85	123	1
151	151	1
96	96	1
31	126	1
11	12	1
16	23	1
155	158	1
72	72	1
42	42	1
144	147	1
147	148	1
109	120	1
102	104	1
51	51	1
154	155	1
154	156	1
95	96	1
126	141	1
41	51	1
28	30	1
40	40	1
144	146	1
