47	50	1
161	161	7
53	53	3
95	96	2
43	60	1
21	26	1
30	30	7
37	37	9
8	9	3
25	25	6
15	40	1
125	125	3
138	139	1
64	65	2
48	50	1
195	197	1
12	13	2
9	9	15
141	141	9
59	60	1
19	19	9
140	141	2
11	17	1
44	44	11
64	66	3
43	45	2
81	81	2
72	73	3
22	23	5
148	148	2
11	15	1
80	86	1
155	155	8
14	14	15
114	136	2
73	73	4
193	193	6
80	94	1
99	105	1
67	87	1
120	124	3
41	41	6
2	2	5
3	21	2
17	19	1
197	197	11
37	38	1
122	122	6
169	169	8
100	100	4
174	174	4
13	24	2
123	123	3
27	29	2
6	7	3
40	51	1
67	67	5
105	120	2
37	50	1
64	72	1
27	27	11
76	76	3
11	11	9
172	172	9
175	176	2
172	177	1
38	45	2
162	162	4
71	71	5
24	24	5
6	6	2
149	154	1
153	153	5
113	113	4
127	127	4
20	20	6
106	106	6
52	72	1
46	46	9
183	183	10
9	10	7
118	121	1
50	50	7
160	182	2
147	147	5
8	8	5
12	12	10
161	169	1
24	26	2
34	35	2
33	66	1
109	137	2
51	51	7
17	17	6
55	55	2
39	39	10
10	11	4
46	47	3
134	135	2
94	137	2
146	147	2
86	86	4
23	24	4
137	138	2
140	140	6
130	130	6
47	47	11
118	120	1
52	52	6
186	186	8
82	82	1
59	59	3
13	15	1
88	114	1
107	107	5
105	105	1
25	27	1
112	112	5
36	36	10
147	148	2
108	108	2
132	132	6
181	187	1
150	150	8
45	45	13
10	10	6
142	186	1
188	188	7
33	60	1
7	7	6
48	49	1
4	5	4
5	5	8
107	108	2
101	101	2
10	12	1
196	196	6
157	157	5
64	87	1
143	143	5
39	181	1
108	150	2
0	0	4
117	117	4
26	27	2
175	175	1
99	117	2
72	72	8
43	44	3
115	115	7
185	185	4
158	158	5
159	160	1
14	15	1
15	16	4
41	43	1
178	178	5
40	40	8
181	182	1
43	43	8
147	161	2
42	42	9
148	150	1
142	142	5
30	31	1
97	99	1
168	168	4
26	30	2
57	88	1
4	112	1
167	180	3
179	179	7
98	157	1
181	195	1
101	107	1
164	164	5
108	140	1
54	54	4
1	1	5
184	184	9
176	176	3
139	139	7
98	148	1
158	159	2
94	94	5
110	148	1
95	95	1
97	97	1
20	21	4
31	32	1
163	164	3
49	128	1
178	192	1
23	23	15
5	9	4
154	164	1
38	39	5
42	44	3
195	195	3
190	190	3
119	119	1
69	69	6
63	63	5
128	128	3
173	174	2
62	107	1
36	38	1
15	15	8
66	73	1
156	172	1
40	43	1
135	135	5
4	7	1
192	192	4
32	43	1
126	127	2
154	154	7
159	159	8
167	167	3
123	125	2
34	34	5
151	151	3
103	104	1
126	126	3
40	41	2
62	62	3
11	13	1
27	65	1
109	109	3
28	47	2
169	171	1
116	117	3
107	148	1
24	193	1
4	4	5
88	89	2
1	2	2
16	16	8
39	42	1
79	79	4
104	104	3
69	73	3
149	170	3
195	196	2
140	150	1
165	166	2
3	4	4
20	24	2
182	182	7
64	68	1
152	154	1
35	35	4
152	152	10
54	63	1
180	180	6
182	183	3
3	3	7
100	108	2
142	143	2
84	87	2
157	182	1
31	31	8
134	134	7
123	167	1
38	78	1
79	87	3
171	171	4
19	20	2
112	136	3
124	125	1
44	45	2
23	197	1
132	184	1
32	32	4
14	39	1
181	181	4
55	135	2
38	41	1
94	106	1
168	187	1
57	57	3
187	187	8
73	75	1
28	29	3
37	61	1
74	76	1
106	107	2
106	136	1
17	20	1
145	145	3
118	118	5
18	18	8
115	116	2
74	94	2
66	66	2
32	33	3
29	30	2
101	133	1
73	88	2
164	168	1
47	48	2
114	114	3
104	116	1
185	187	1
149	149	9
93	107	1
196	197	1
21	22	2
78	78	1
17	18	6
13	46	2
19	25	2
149	150	3
144	144	4
113	127	1
70	73	1
50	51	2
10	32	1
118	182	1
177	177	10
163	163	2
157	159	1
133	133	1
9	12	4
22	34	1
85	85	2
156	157	2
136	136	2
165	165	2
170	170	4
138	150	2
29	29	3
166	167	1
81	83	1
77	77	4
13	20	1
170	182	2
33	36	5
185	194	1
116	116	3
114	115	1
121	123	2
126	128	3
120	120	1
77	78	2
28	102	2
105	106	1
138	138	5
156	156	4
98	99	2
102	102	2
53	54	2
177	178	2
89	89	3
57	127	1
166	166	4
139	142	2
146	163	2
99	106	1
26	26	9
169	170	1
70	72	1
177	188	1
85	97	2
11	12	5
169	184	1
28	28	2
95	102	1
160	160	5
145	147	2
18	19	2
121	121	3
133	134	2
194	194	6
33	33	8
83	84	2
168	169	2
115	118	2
157	172	1
110	110	3
17	140	1
13	13	10
143	146	3
71	72	1
131	134	1
170	193	1
131	155	1
151	194	1
105	141	1
174	190	1
152	155	1
128	129	1
49	49	4
31	64	1
151	197	1
145	146	2
111	111	2
13	14	3
16	72	2
15	69	1
174	177	2
74	79	1
56	57	1
176	188	1
134	138	1
22	22	6
41	182	2
63	65	1
61	61	6
48	48	2
118	124	1
58	58	3
34	63	1
21	21	1
146	148	1
109	111	2
124	124	1
36	154	1
39	77	1
23	26	1
58	61	1
28	31	2
103	103	3
60	62	1
28	79	1
84	84	3
150	193	2
36	37	1
107	139	1
141	150	1
83	83	1
160	161	1
44	122	1
18	22	1
10	13	2
38	38	4
37	196	1
49	50	1
52	53	2
125	129	1
79	80	2
67	69	1
94	95	1
130	131	1
23	37	1
131	131	4
137	137	2
88	90	1
111	112	2
56	56	2
6	8	1
122	186	1
161	162	1
170	171	1
162	189	1
60	61	1
132	133	2
21	34	1
192	193	2
87	88	1
178	187	2
165	167	1
114	167	1
21	25	1
142	148	1
123	124	1
62	64	1
17	45	1
68	68	3
191	191	1
138	148	1
107	138	1
142	149	1
80	82	1
39	40	1
190	194	1
24	25	2
172	173	1
29	68	2
55	56	1
142	157	1
74	74	2
9	15	1
176	178	1
33	45	1
150	156	1
0	26	1
128	151	1
27	28	1
4	8	1
117	118	1
12	189	1
3	19	1
13	43	2
160	189	1
116	153	1
141	142	1
21	27	1
14	17	1
80	84	1
14	38	1
135	150	1
161	188	1
183	196	1
53	63	1
194	195	1
14	46	2
129	129	3
114	140	1
143	160	1
46	197	1
172	174	1
99	119	3
5	22	1
121	171	1
5	6	2
25	29	1
35	36	2
171	184	1
99	99	2
32	37	1
18	40	1
49	195	1
12	39	1
82	97	1
4	192	2
58	63	1
61	107	1
192	194	1
20	32	1
112	132	1
3	6	2
34	36	2
174	192	1
157	158	1
60	60	2
153	154	2
154	184	1
51	52	1
25	66	1
127	128	1
96	99	1
166	191	1
158	181	1
11	40	1
12	14	1
57	64	1
100	135	1
37	72	1
46	52	1
87	87	2
105	114	1
52	75	1
134	139	1
79	86	1
155	169	1
121	163	1
31	39	1
136	137	2
88	88	2
164	166	1
178	179	1
141	197	1
121	161	1
60	87	1
63	82	1
108	109	1
54	58	1
17	24	2
119	121	1
173	173	2
121	135	1
142	160	1
64	64	3
131	132	1
112	159	2
81	86	1
5	27	1
150	153	1
108	136	1
157	166	1
52	55	1
96	97	1
100	119	1
139	140	1
42	171	1
121	176	2
179	189	1
155	186	1
15	42	1
141	185	1
115	140	1
150	151	2
189	189	1
100	101	1
185	186	1
158	160	1
29	31	1
20	22	1
2	6	1
