1	11	1
182	187	1
224	224	2
183	183	1
75	75	1
198	200	3
152	152	2
149	149	4
211	211	5
3	4	1
118	118	3
187	193	1
37	48	1
129	130	2
14	59	1
77	77	2
56	56	3
200	200	2
204	204	1
3	59	1
211	228	1
102	102	3
221	231	2
201	201	2
168	182	1
58	59	5
124	125	1
189	189	3
69	69	2
34	34	2
221	221	5
28	28	6
144	144	2
81	81	4
73	73	2
5	6	1
85	85	4
177	177	4
150	150	2
179	179	3
124	134	2
182	182	1
67	67	2
43	43	2
40	40	1
162	181	1
103	103	2
228	237	1
21	21	2
167	167	4
236	236	3
218	218	2
0	11	2
147	150	1
51	51	5
9	32	1
169	169	1
179	187	1
109	110	1
230	230	1
20	20	3
45	45	4
18	19	1
126	126	4
205	238	1
15	15	2
242	242	1
31	31	6
88	88	4
125	125	2
205	227	1
68	68	3
231	231	2
40	41	3
173	173	3
34	189	1
169	200	1
181	181	2
107	108	2
198	220	1
8	8	1
2	45	1
40	193	1
63	63	2
145	145	1
17	17	1
104	127	2
121	121	1
38	182	1
38	38	1
179	190	1
163	163	1
170	170	5
179	199	1
14	14	2
37	37	3
169	194	1
185	186	3
184	195	1
70	89	1
207	208	2
127	127	3
169	172	3
97	97	2
190	190	1
185	185	4
120	127	1
151	166	2
58	68	1
83	83	2
151	151	3
178	178	1
174	175	3
106	106	3
184	228	1
165	181	2
20	22	1
222	226	1
190	191	4
178	197	1
188	188	2
232	232	1
0	7	2
13	13	2
85	86	1
156	164	1
86	87	2
193	193	1
233	234	1
241	242	2
7	15	1
115	116	1
42	42	2
202	202	2
117	164	1
147	147	3
172	172	4
48	48	1
95	95	2
162	162	4
17	20	1
220	220	1
166	195	2
1	1	1
225	236	1
50	52	2
181	182	1
187	187	5
199	218	2
86	86	1
104	107	1
68	75	1
154	155	2
35	35	2
64	97	3
213	213	3
235	235	2
10	11	1
64	64	1
6	6	2
67	68	1
102	103	1
71	72	1
153	153	2
172	203	1
8	10	2
17	19	1
41	41	2
133	155	1
65	65	5
66	68	2
65	69	1
16	16	4
58	58	2
105	119	1
160	161	1
98	98	1
60	60	3
223	223	1
76	77	1
167	169	1
139	139	1
18	18	1
122	133	1
72	72	2
20	31	3
17	59	1
133	133	1
212	212	1
37	43	1
234	234	1
164	164	4
160	180	2
30	30	3
225	225	1
160	162	5
206	206	1
34	59	1
57	114	2
119	119	2
19	19	2
63	78	1
119	127	1
158	158	5
42	58	2
149	153	1
23	23	4
69	70	1
135	135	2
195	195	2
5	7	1
32	32	2
101	101	3
76	76	2
109	178	1
74	74	3
7	31	1
31	33	1
46	46	1
169	189	1
116	116	1
160	169	2
229	229	2
33	35	1
223	224	1
199	199	1
193	194	2
144	145	1
104	105	1
12	12	1
84	113	2
104	104	1
174	174	4
187	188	2
114	115	1
45	46	1
39	39	3
212	222	1
2	2	2
24	24	1
152	154	1
96	110	1
186	186	3
142	147	1
214	214	2
210	210	1
102	135	1
21	22	1
138	179	1
9	9	3
140	140	1
42	74	1
26	26	1
168	169	1
123	123	1
169	170	1
107	109	2
144	148	1
102	120	1
70	70	1
79	83	1
205	205	3
102	105	1
108	118	2
220	221	2
5	5	2
57	57	1
233	233	1
209	210	1
150	167	1
79	80	2
35	36	1
131	131	2
126	136	2
86	97	1
161	161	2
209	209	1
221	222	1
48	49	1
19	51	1
37	219	1
219	220	1
27	27	1
2	36	1
226	226	2
138	138	2
155	155	1
139	140	1
52	84	1
168	168	3
63	71	1
137	138	2
40	42	1
82	84	1
108	126	2
122	122	1
9	37	1
115	117	3
135	169	1
171	177	2
127	135	1
216	216	1
151	169	1
28	29	1
28	30	1
210	211	1
49	59	1
100	131	1
129	129	1
182	183	3
59	60	1
155	158	1
98	100	1
44	44	1
182	188	1
214	215	1
37	56	2
148	148	1
66	67	1
17	36	1
142	154	1
152	153	1
180	180	1
187	192	1
197	197	2
199	209	1
13	14	2
162	180	2
24	25	1
175	175	1
78	79	1
0	35	1
219	219	3
159	160	1
37	61	1
156	156	2
143	144	1
48	159	1
52	52	2
150	168	2
30	31	1
228	228	1
7	10	1
8	9	1
65	99	1
64	88	1
31	38	1
15	16	2
84	84	1
45	55	1
12	152	1
191	191	1
194	207	2
21	52	1
1	156	1
159	159	1
17	18	2
158	159	1
47	131	1
137	148	1
62	62	1
157	158	1
140	167	1
21	58	1
157	172	1
146	146	1
68	74	1
141	151	1
229	230	1
31	40	1
119	120	1
167	168	1
89	89	2
227	227	1
174	179	1
107	107	3
111	111	1
142	143	1
128	158	1
83	84	1
188	189	1
78	78	1
190	206	1
142	146	1
65	85	1
79	79	1
10	10	1
80	80	1
14	51	1
235	236	1
30	47	1
75	79	1
118	135	1
3	3	1
48	85	1
217	218	1
11	39	1
239	239	1
159	162	1
161	176	1
101	177	1
133	169	1
208	218	1
2	22	1
101	111	1
140	147	1
212	225	1
53	53	1
36	36	1
193	195	1
210	214	1
68	69	1
225	227	1
