121	139	2
149	149	3
88	88	3
124	155	1
49	50	1
165	170	1
87	87	2
68	80	1
6	6	3
149	173	2
20	22	1
33	35	2
26	27	1
165	167	1
104	104	4
95	98	1
116	117	2
45	50	1
174	174	2
125	126	2
146	146	6
13	30	3
32	32	1
117	125	1
53	53	4
176	176	2
13	13	5
92	101	1
136	142	1
138	174	1
89	89	3
77	135	1
5	5	6
98	98	2
84	84	2
73	115	3
35	35	2
38	38	3
25	27	4
140	141	2
169	169	2
39	39	5
67	78	2
142	142	5
12	50	1
143	147	1
11	11	3
27	27	1
125	127	2
75	75	2
41	44	1
100	116	1
90	98	1
115	115	1
159	179	1
5	37	2
124	124	4
20	42	1
71	71	2
127	127	1
156	156	1
9	9	4
166	166	4
146	152	1
94	135	1
121	121	1
7	7	3
111	113	3
143	143	1
40	41	1
57	57	2
15	15	1
38	54	1
118	122	1
153	157	2
14	14	3
25	31	1
102	102	1
34	76	1
54	54	1
22	22	2
18	21	2
17	17	1
59	93	1
56	56	2
28	29	2
17	18	1
147	148	1
95	95	2
127	128	2
119	119	2
156	157	1
173	173	3
24	24	2
39	95	1
64	80	2
81	81	1
40	42	1
2	2	3
101	101	2
96	107	1
33	33	2
143	162	1
109	109	1
154	155	1
178	178	2
7	15	1
86	112	1
29	31	1
138	138	2
135	136	1
52	53	3
34	108	2
97	97	1
102	112	1
79	103	1
96	96	2
142	153	2
145	152	1
40	40	4
168	168	3
132	172	1
17	35	1
88	89	1
74	89	1
34	34	3
75	76	1
140	140	4
155	155	4
106	106	1
133	133	1
152	157	1
16	16	3
126	142	1
62	62	2
157	157	3
4	16	1
31	33	1
22	25	1
157	158	3
74	74	3
148	167	1
2	36	2
148	148	4
172	172	2
141	150	1
79	80	1
36	36	2
152	152	3
76	86	1
30	30	3
10	16	1
114	115	1
41	46	1
168	173	1
84	85	1
129	148	1
100	100	3
56	60	1
15	16	1
68	68	2
130	130	2
86	86	2
126	126	1
15	50	2
94	100	2
6	9	1
103	104	1
51	51	2
37	38	1
8	8	2
3	13	1
123	123	1
83	83	1
4	4	1
161	163	1
72	72	2
41	41	1
104	110	2
26	28	2
160	160	3
72	111	1
151	152	1
0	0	2
86	104	1
76	89	1
97	98	1
142	145	2
27	33	1
158	175	1
82	82	1
10	10	2
104	119	1
108	108	1
43	67	2
124	125	1
168	171	1
10	11	1
128	128	1
126	127	1
56	62	1
129	129	1
93	99	1
103	130	2
37	41	1
58	63	1
164	164	1
82	163	1
103	103	1
106	111	1
4	5	1
27	146	1
66	66	1
113	113	2
116	116	2
163	163	2
5	6	1
167	168	1
157	160	1
78	86	1
79	98	1
154	164	1
90	90	2
5	38	1
37	68	1
55	55	2
120	120	1
19	27	1
106	116	1
107	111	1
146	154	1
3	15	1
74	133	1
78	94	1
86	94	2
164	166	2
138	180	1
7	10	1
25	25	1
114	114	2
99	106	1
44	44	2
19	19	1
31	31	4
165	165	2
82	84	1
9	10	1
111	111	2
95	111	1
67	68	2
90	92	2
147	154	1
161	161	1
92	92	1
101	111	1
71	136	1
159	159	1
130	142	1
163	164	1
122	126	1
113	114	1
142	148	1
20	20	2
98	101	1
76	77	1
23	25	1
3	3	1
14	34	2
148	156	1
137	137	1
136	136	1
73	157	1
147	147	1
119	120	1
123	125	1
4	57	1
115	120	1
119	143	1
61	61	1
110	123	1
100	101	1
65	68	1
100	114	1
134	134	1
42	42	1
63	88	1
1	2	1
167	167	1
5	14	1
147	167	1
39	40	1
24	30	1
37	37	2
73	89	1
79	79	1
24	25	1
0	173	1
170	170	1
