79	79	1
64	69	3
109	111	1
26	31	1
89	89	2
75	75	3
31	31	2
21	21	5
98	99	1
122	122	3
140	140	4
26	26	1
120	120	2
36	36	2
62	62	2
76	76	2
92	92	4
109	110	3
33	33	2
106	106	2
132	133	2
63	75	1
108	118	1
102	102	4
111	111	6
64	64	4
96	97	1
90	91	1
90	90	4
39	40	1
5	5	4
57	58	1
126	126	2
98	98	3
94	94	5
91	91	5
139	141	1
87	87	1
67	82	1
52	52	1
39	39	1
132	132	3
28	28	5
140	141	1
30	30	4
31	32	2
88	88	1
18	39	2
115	115	1
119	119	1
49	50	2
118	118	2
19	19	2
67	67	1
49	49	1
130	130	3
22	22	3
57	57	5
102	103	3
125	125	2
16	82	2
64	65	1
117	117	1
58	58	3
53	53	5
127	127	2
80	100	2
37	37	1
30	41	1
16	16	1
62	63	2
99	140	1
74	74	4
81	81	2
63	63	4
13	13	2
14	14	2
93	93	3
139	139	2
110	110	2
40	41	2
32	32	1
29	29	2
129	129	2
126	133	1
31	39	1
54	57	1
110	131	1
55	55	2
40	40	1
93	94	2
52	54	1
114	114	2
137	137	2
20	20	9
2	2	3
66	66	5
104	107	1
34	34	3
41	41	2
119	127	1
23	23	1
15	15	3
18	26	1
4	5	2
19	129	2
107	125	1
55	56	2
9	9	2
2	6	1
63	139	1
43	43	2
131	131	3
35	35	2
48	49	1
71	71	1
25	25	2
104	108	1
101	101	2
109	113	1
105	105	2
69	69	1
47	47	1
20	21	2
130	131	1
55	57	1
83	84	1
83	83	2
85	85	1
107	109	1
110	115	1
97	97	3
68	72	1
101	102	3
41	68	1
49	66	1
73	75	2
65	65	1
32	35	1
143	143	1
135	136	1
11	11	3
145	145	2
50	50	4
59	59	3
136	136	3
86	86	1
109	116	1
93	107	2
73	73	1
57	96	1
28	29	1
141	142	1
42	42	2
92	93	1
37	38	2
57	85	1
105	106	1
27	27	3
94	95	1
6	22	1
82	82	1
4	4	1
56	56	1
121	121	2
29	41	1
24	24	1
93	96	1
108	123	1
0	0	2
104	104	1
108	108	1
112	113	1
108	109	2
141	141	1
17	18	1
67	68	1
18	90	1
95	95	2
30	31	1
110	117	2
109	109	1
124	124	1
50	51	1
39	41	2
6	6	2
96	96	1
128	128	1
12	12	1
1	74	1
72	72	1
39	88	1
60	60	1
50	52	1
112	112	1
134	134	1
