148	148	5
117	118	4
140	155	3
93	109	2
118	118	2
94	94	1
66	66	4
134	135	3
80	119	1
23	23	2
153	153	4
20	20	1
122	122	4
69	70	4
84	85	2
136	136	5
111	118	1
116	117	1
38	38	7
2	2	3
56	57	1
144	156	1
39	39	2
122	124	2
120	141	2
71	71	1
15	16	1
121	144	1
4	4	3
138	146	3
123	126	1
107	110	2
127	129	1
41	41	4
27	48	1
126	126	2
147	147	2
18	19	2
20	37	1
123	129	2
141	141	6
36	36	4
32	32	4
56	56	2
26	26	7
45	45	2
82	82	5
126	148	1
98	99	2
140	140	11
107	108	2
137	137	6
132	132	4
140	141	2
96	97	3
16	16	2
70	78	2
151	156	1
83	99	1
19	19	3
105	120	1
56	61	1
67	67	2
151	158	1
0	10	1
116	116	4
13	13	3
155	155	3
134	140	2
157	158	2
150	150	9
70	122	1
128	148	2
98	98	5
79	86	1
91	91	4
106	106	2
120	132	1
118	130	2
63	63	4
25	25	4
37	37	2
123	123	4
142	142	5
138	142	2
45	56	1
99	99	5
99	128	1
121	121	8
113	117	1
39	41	1
99	100	1
84	86	1
89	94	1
29	36	2
127	127	4
105	106	3
144	144	2
117	119	1
140	142	1
7	7	5
130	149	1
68	71	3
55	55	2
139	139	4
154	154	3
79	80	1
152	152	2
18	18	1
153	154	2
130	133	1
156	157	2
65	65	2
91	132	1
158	158	5
143	143	6
100	100	1
128	157	1
0	1	1
3	18	2
84	87	1
11	11	3
45	46	1
131	131	4
3	5	2
0	0	4
87	87	3
49	49	1
40	43	1
98	106	1
90	90	5
96	96	5
113	113	3
99	101	1
100	108	1
129	129	3
157	157	4
43	43	2
105	105	6
155	156	2
37	153	1
25	27	3
107	107	4
88	92	1
41	42	2
64	64	1
3	7	1
118	119	1
120	120	2
9	9	5
15	15	3
78	78	2
93	93	3
54	54	2
91	92	1
68	68	4
73	73	4
158	159	1
128	129	2
121	122	1
119	120	2
35	96	2
86	86	4
55	56	2
24	26	2
16	20	2
54	55	2
136	139	1
145	145	1
31	31	9
80	80	1
157	159	1
149	154	1
1	24	2
35	36	2
68	70	2
32	44	1
91	101	1
151	151	8
24	24	2
77	148	1
114	115	1
145	146	1
12	12	6
91	107	1
102	102	2
16	31	1
138	138	2
146	147	2
111	127	1
112	118	1
12	26	1
135	137	2
107	141	1
138	158	1
70	70	3
69	69	3
26	31	1
62	62	1
93	94	2
128	128	2
111	120	1
155	157	1
135	136	2
135	135	1
66	71	1
102	106	1
53	53	4
99	102	1
134	134	5
110	110	4
72	148	1
152	153	2
151	152	2
112	112	3
46	46	4
11	13	1
64	77	1
122	123	2
35	35	5
114	120	2
3	4	1
65	66	2
113	115	1
46	53	1
109	109	5
20	22	2
23	24	2
92	93	3
3	3	3
20	64	1
120	124	1
101	101	3
139	149	1
89	91	1
66	76	1
29	29	3
1	1	3
116	126	1
13	14	2
154	155	3
39	54	1
81	81	1
124	138	1
44	45	2
130	130	2
108	108	3
50	50	2
48	57	2
64	67	1
135	147	1
117	123	1
111	112	1
112	141	1
146	146	5
125	125	4
29	30	2
17	93	1
109	121	1
94	104	1
104	104	5
85	117	1
14	15	1
89	100	1
95	96	2
119	119	2
123	124	1
152	154	2
3	96	1
135	140	1
6	6	1
47	47	3
13	16	1
149	150	2
88	141	2
156	156	4
83	92	1
79	79	3
113	123	1
78	91	1
73	98	1
104	105	3
85	91	1
43	50	1
67	70	1
131	132	1
10	10	2
126	136	1
116	151	1
34	52	1
127	130	1
139	140	1
30	30	5
111	111	1
114	114	3
87	95	1
111	122	1
55	67	1
128	142	1
28	29	2
1	11	2
130	137	1
107	116	1
118	127	3
23	30	1
84	84	2
140	149	1
94	152	1
131	141	1
130	156	1
35	45	1
118	120	1
136	145	1
141	142	1
129	130	1
112	115	1
21	93	2
99	106	1
91	104	1
150	153	2
112	124	2
117	129	1
57	57	1
94	96	1
134	137	3
73	104	1
149	151	1
75	75	3
17	17	1
4	5	1
87	88	5
48	48	1
122	137	1
150	157	1
90	96	1
22	139	1
68	85	1
33	92	1
112	133	1
90	93	2
34	34	2
98	111	1
47	48	1
67	72	1
133	133	5
86	97	1
41	43	1
50	69	1
90	91	1
88	88	2
148	155	2
2	15	2
85	85	1
114	117	1
98	100	1
138	145	1
22	65	1
116	127	1
143	150	1
78	120	1
97	101	1
49	52	1
101	114	1
103	106	1
98	101	2
135	144	1
13	19	1
83	119	1
113	149	1
144	145	1
92	105	1
35	48	1
37	40	1
11	14	1
16	17	1
71	73	2
103	103	1
85	86	2
70	72	1
127	128	1
119	131	2
83	90	1
92	98	1
50	51	1
118	123	1
12	13	1
83	83	1
33	34	4
114	122	1
73	145	1
46	47	1
100	101	1
114	132	1
67	69	1
70	93	1
132	134	1
129	142	1
155	158	2
97	105	1
30	32	3
150	154	1
131	133	1
131	145	1
126	135	1
130	135	1
66	92	1
94	97	1
69	75	1
93	95	1
95	98	1
123	134	1
26	27	1
103	105	1
130	140	1
115	116	1
36	146	1
19	21	1
42	55	1
144	146	1
139	147	1
81	91	1
105	149	1
145	147	1
138	139	2
124	124	1
5	12	1
143	144	2
77	77	2
89	89	2
142	149	1
112	116	1
77	107	1
108	110	1
40	40	1
115	117	1
127	137	1
73	74	1
96	154	1
123	137	1
78	114	1
25	36	1
116	120	1
67	73	1
5	6	2
85	96	1
23	156	1
154	158	1
106	107	1
6	7	2
37	46	1
80	110	1
37	38	1
64	131	1
51	51	1
109	110	1
57	85	1
8	10	1
97	97	1
24	34	1
19	20	1
44	47	1
68	144	1
45	102	1
10	11	1
115	115	1
126	138	1
87	94	1
104	106	1
44	44	1
37	53	1
79	82	1
20	29	1
16	124	1
41	49	1
34	49	1
71	72	1
142	157	1
72	72	1
76	77	1
