151	152	1
80	80	4
6	7	1
92	94	2
71	71	3
111	112	3
7	7	5
143	143	4
74	88	2
156	156	4
43	44	2
83	83	3
70	70	8
85	91	1
46	46	1
121	123	1
15	16	1
144	144	9
13	13	1
39	39	3
91	155	1
64	64	2
69	69	4
100	117	1
122	125	1
151	151	4
35	35	8
168	168	4
1	1	7
136	136	4
50	50	3
10	10	2
16	16	1
22	112	1
149	157	2
3	3	2
154	154	4
25	25	5
3	44	1
50	51	3
161	161	8
86	146	1
93	93	1
155	155	2
87	130	1
97	97	2
85	85	2
103	103	1
135	136	2
137	150	1
158	158	2
45	45	2
101	101	1
133	133	3
20	20	2
8	9	3
7	42	1
9	9	1
101	102	3
40	40	1
149	151	2
118	118	2
154	157	1
1	2	2
112	112	4
49	49	2
18	18	2
108	108	2
0	0	2
110	110	2
159	159	3
67	76	1
38	38	2
15	15	2
103	104	2
98	98	3
34	34	5
160	161	1
23	24	1
45	69	1
6	45	1
157	157	4
115	115	2
118	139	1
165	165	2
11	11	4
130	158	1
167	167	4
116	116	4
37	37	2
22	22	3
162	162	3
164	164	1
43	43	5
111	111	2
167	168	1
169	169	2
141	141	4
72	72	1
52	80	1
73	88	2
14	14	7
8	8	3
39	41	2
127	128	1
111	133	1
91	91	4
14	20	1
62	100	1
137	137	3
14	89	1
57	57	1
123	123	1
24	44	1
65	65	1
4	169	2
52	52	1
43	126	1
12	12	2
121	121	2
87	87	1
86	86	1
121	122	1
40	147	1
162	163	2
33	33	1
100	116	1
117	117	3
134	140	1
88	88	4
39	40	1
36	36	4
6	6	2
54	54	2
140	141	1
163	164	1
95	118	1
20	21	1
53	53	3
48	48	4
130	130	1
21	21	1
86	88	1
148	149	1
127	127	2
41	42	2
146	147	1
139	139	4
33	34	1
42	43	2
26	27	4
13	14	2
76	77	3
150	150	4
152	152	1
130	134	1
121	125	1
138	139	1
114	114	1
128	128	1
166	167	1
34	35	4
92	92	3
8	46	1
132	132	3
96	96	1
142	142	1
44	44	1
149	149	2
12	13	1
120	120	2
120	143	1
138	138	2
84	100	1
76	95	1
24	26	1
153	154	1
84	85	1
84	84	1
97	116	1
165	166	1
57	58	1
107	107	2
126	126	4
112	115	1
105	107	1
107	109	1
140	142	1
79	80	1
51	51	1
5	7	1
168	169	1
89	89	1
119	154	1
99	112	1
27	27	4
136	147	1
26	26	2
83	84	2
40	41	1
41	41	4
74	74	1
109	109	2
170	170	4
119	137	1
125	125	2
49	50	1
148	148	1
124	124	1
86	87	1
130	141	2
131	151	1
66	66	2
97	98	1
5	6	1
107	108	1
54	55	1
90	91	1
122	122	2
92	142	1
77	132	1
44	107	1
35	41	1
78	78	1
24	149	1
18	19	1
4	4	1
2	2	3
15	24	1
119	119	1
146	146	1
24	24	1
151	154	1
133	134	1
56	57	1
76	76	1
68	68	1
5	5	1
149	150	1
140	140	2
145	146	1
146	156	1
131	131	1
145	145	2
58	62	1
81	81	2
150	151	1
134	134	1
70	75	1
49	65	1
