8	8	9
75	75	11
43	43	7
77	77	11
67	68	3
65	65	16
69	70	2
37	37	9
78	78	10
63	63	14
45	45	9
28	28	9
62	62	6
66	66	11
27	27	20
52	52	9
57	58	5
46	46	6
56	78	1
79	79	5
19	21	3
80	80	12
12	12	5
77	78	3
10	10	9
61	74	1
56	56	20
32	33	6
35	35	12
60	74	1
59	59	12
50	67	1
9	12	2
33	48	1
46	59	2
48	48	9
70	70	10
76	76	9
46	47	2
54	54	19
64	64	16
39	39	8
61	61	19
37	57	1
38	38	8
53	53	12
66	67	2
51	51	3
42	42	15
31	39	1
2	2	6
48	49	3
49	49	14
14	14	5
44	44	1
31	31	11
13	13	6
6	6	7
36	59	1
25	49	1
47	48	4
3	4	2
13	14	3
17	17	5
4	7	1
46	76	1
56	57	2
5	5	7
6	8	1
71	71	9
68	69	3
40	40	12
34	34	6
26	26	10
45	74	1
50	51	2
15	16	2
55	55	18
63	64	5
74	74	11
58	58	8
37	38	1
30	30	6
73	73	20
19	19	3
42	73	1
8	10	1
49	51	5
29	29	8
41	41	12
18	18	1
65	66	2
72	72	12
40	41	2
30	31	7
57	57	8
47	47	11
36	36	10
59	60	3
49	50	6
3	3	9
51	52	2
12	13	3
54	66	1
13	31	1
64	65	1
53	54	5
20	20	5
68	68	9
52	54	1
67	67	6
21	21	7
38	39	2
6	7	1
31	32	5
48	72	1
53	55	2
49	56	1
33	34	3
1	42	2
1	1	8
71	72	3
71	79	1
35	36	1
28	72	1
26	53	1
50	50	5
11	11	7
0	0	4
73	74	5
60	60	9
45	46	3
70	71	7
18	72	1
17	19	1
33	33	8
26	27	4
69	69	8
32	32	12
67	69	2
36	73	1
6	10	1
7	7	5
62	63	3
49	70	1
39	40	2
45	47	2
31	34	1
25	26	2
56	75	1
25	25	6
27	76	2
7	9	2
75	76	1
53	66	1
5	7	1
66	71	2
74	81	1
42	43	2
48	73	2
49	54	2
41	42	1
46	61	1
7	11	4
48	56	1
72	73	2
68	70	2
79	80	4
63	72	1
27	28	1
32	34	1
4	4	3
65	72	1
1	2	2
35	74	1
33	43	1
26	60	1
55	56	4
60	61	3
76	78	1
60	62	1
16	16	4
67	70	1
48	66	1
33	35	1
78	79	1
61	62	2
28	30	1
54	56	1
9	9	3
54	55	2
37	40	1
10	11	3
27	47	1
56	60	1
47	55	1
20	41	1
49	68	1
65	75	1
9	10	1
0	41	1
12	28	2
51	68	1
60	76	1
74	75	1
48	71	1
8	9	3
52	55	1
49	52	1
43	44	1
1	45	1
63	69	1
43	46	1
7	17	1
21	25	1
27	42	1
61	73	1
30	37	1
20	21	1
64	71	1
54	65	1
2	3	1
75	80	1
56	72	1
8	33	1
11	12	1
39	41	1
7	8	1
35	39	1
63	77	1
49	66	1
8	11	1
76	77	1
27	45	1
