16	16	1
133	133	1
20	20	4
45	81	1
3	4	1
124	124	9
41	41	7
67	68	6
80	80	4
23	24	3
50	50	6
28	28	6
108	108	9
32	32	4
90	90	7
56	56	4
121	121	4
117	117	5
87	87	5
21	21	2
14	26	1
92	92	4
91	91	3
71	71	3
24	24	6
132	132	5
62	62	2
43	45	1
107	107	7
96	98	1
23	23	2
128	128	1
96	96	10
120	120	4
29	29	9
65	83	2
93	106	3
47	47	7
40	116	1
92	94	2
44	81	2
84	86	1
132	133	1
41	42	3
52	52	8
60	61	5
88	88	4
69	70	2
89	89	4
20	127	2
129	129	4
98	98	5
31	32	1
126	128	1
14	23	3
54	55	2
82	84	1
70	70	2
49	49	2
61	68	1
42	43	2
82	82	3
12	12	2
27	33	1
13	13	3
31	34	1
41	43	2
83	129	2
60	60	2
93	94	3
110	110	3
88	92	1
63	65	1
111	111	8
114	114	5
51	52	1
26	27	2
30	127	2
125	125	6
17	21	2
112	113	1
127	127	5
77	77	2
113	115	1
99	99	8
23	27	1
66	68	2
73	73	3
7	112	1
67	67	2
103	104	2
109	109	1
38	39	1
51	51	6
92	96	1
89	101	4
38	38	3
113	113	4
72	123	1
41	45	1
103	103	9
3	3	2
119	119	9
31	31	3
115	115	5
83	83	2
6	6	4
115	116	3
58	77	1
58	59	3
95	95	5
98	100	1
9	9	2
59	60	2
55	55	1
82	83	2
106	117	1
113	114	3
62	65	1
53	53	4
105	105	3
92	104	1
117	118	4
85	85	7
114	116	4
105	106	1
128	129	1
89	90	4
123	123	2
104	105	3
58	58	2
124	125	2
119	131	2
39	109	1
8	8	4
126	127	3
74	76	2
16	17	2
2	2	1
70	72	1
25	25	2
14	30	1
52	53	3
23	105	1
76	76	3
131	131	3
58	83	1
65	97	1
45	45	4
129	130	2
67	70	1
110	132	1
7	7	1
130	130	2
45	86	1
48	48	8
91	96	1
69	69	4
66	108	1
100	100	2
104	104	2
122	123	2
31	95	1
22	53	2
100	101	1
56	61	2
108	109	3
64	65	2
81	81	3
46	50	3
19	125	1
78	78	5
24	47	1
81	101	1
44	44	4
106	130	1
68	68	4
97	98	5
71	72	1
65	87	1
94	105	1
101	102	2
112	121	1
67	69	1
22	99	1
78	129	1
17	17	1
93	102	2
45	58	3
109	110	1
28	30	2
118	118	4
89	91	1
27	46	1
22	22	1
19	93	1
1	2	1
54	54	3
69	92	1
27	39	1
101	101	1
90	99	1
5	5	2
112	112	2
84	85	2
97	97	2
32	33	3
48	57	1
94	94	3
0	0	2
102	102	5
88	90	1
54	58	1
84	84	3
75	75	1
82	102	2
59	59	1
106	106	2
15	39	1
13	19	1
63	66	1
0	1	1
130	131	1
79	83	1
15	17	1
47	76	1
33	70	2
61	62	1
111	113	1
23	48	1
66	92	1
74	75	1
92	93	1
91	94	1
39	39	3
62	63	1
56	60	1
100	127	2
86	88	1
88	89	3
63	63	4
26	26	2
71	80	1
63	67	2
22	23	1
86	87	2
50	51	1
27	27	1
10	11	3
81	82	1
14	14	1
1	1	2
59	84	1
41	44	1
75	76	1
38	82	2
109	119	2
91	128	1
24	100	1
44	45	1
14	15	1
50	74	1
78	79	3
61	61	3
76	97	2
46	51	1
116	117	2
65	117	1
56	122	1
79	80	2
56	58	1
59	82	1
46	47	2
39	40	2
46	46	2
58	60	1
81	128	1
11	28	1
131	132	1
81	102	1
107	129	1
66	67	1
120	122	1
76	88	1
72	73	1
53	54	1
21	22	1
65	66	1
93	93	1
122	125	1
106	129	1
23	26	1
126	126	1
33	33	1
68	111	1
76	129	1
64	64	1
103	127	1
114	115	1
109	124	1
10	10	1
86	86	1
17	41	1
25	85	1
65	65	1
43	43	1
67	87	1
94	117	1
128	130	1
46	48	1
18	19	1
90	91	1
64	67	1
57	59	1
70	71	1
50	52	1
22	25	1
20	21	1
79	79	2
67	98	1
66	66	1
