58	58	2
135	135	6
2	2	6
79	79	1
95	95	7
122	122	2
140	140	2
128	128	5
82	82	2
13	14	2
75	75	5
27	28	1
22	22	7
112	112	2
127	127	2
120	138	1
130	131	1
105	105	4
91	91	4
28	36	1
114	114	1
29	30	1
75	130	3
135	136	1
78	78	1
69	69	4
105	135	1
60	60	5
9	9	6
137	137	5
116	117	2
132	132	4
20	21	1
49	49	4
101	102	1
117	118	2
142	142	4
19	19	6
73	74	2
33	33	4
70	70	1
102	103	1
0	0	4
6	6	2
51	51	3
94	96	1
59	59	4
4	4	7
135	139	2
108	116	1
115	117	2
28	29	2
55	56	3
74	95	1
64	71	1
55	55	5
144	144	1
118	119	4
57	57	3
33	36	3
13	69	1
81	82	1
55	90	1
79	136	1
127	128	3
37	37	2
91	92	2
108	111	2
93	94	3
3	13	2
111	111	2
104	118	1
106	106	3
96	97	2
128	129	2
55	64	1
136	136	11
13	40	1
93	93	1
57	62	1
124	124	3
47	48	2
133	133	4
58	59	3
5	5	4
103	103	6
35	35	3
113	113	3
53	53	4
17	17	2
18	34	1
4	6	2
16	16	7
26	29	2
62	62	6
3	3	1
47	47	1
3	35	1
90	90	5
21	21	3
25	29	1
81	81	2
64	69	1
77	78	3
103	131	1
132	135	1
18	18	4
121	130	1
76	76	2
71	72	2
107	108	4
125	125	4
41	41	5
50	59	1
64	64	3
130	130	2
55	59	2
67	67	3
84	84	1
143	144	2
118	118	2
10	11	1
97	97	4
3	4	2
14	14	2
76	82	1
26	26	3
133	134	2
34	35	1
102	102	4
116	116	2
134	134	4
130	134	1
119	119	4
40	40	3
114	115	2
30	30	5
25	30	1
11	11	3
58	118	2
83	85	1
43	50	1
63	64	2
32	32	6
88	115	1
97	110	1
1	2	1
33	34	1
42	42	7
52	53	1
68	68	2
8	10	2
122	123	2
115	132	1
145	145	3
81	108	1
80	80	2
138	138	3
105	112	1
125	133	1
56	56	3
12	30	1
129	129	5
123	123	1
72	72	3
73	73	5
126	128	1
87	102	1
13	29	1
62	63	2
115	115	3
95	96	1
31	31	2
89	89	3
74	74	5
117	120	1
25	26	3
100	100	7
63	88	1
120	120	6
92	93	1
81	91	1
111	113	1
49	50	2
18	127	1
125	127	1
85	85	3
27	27	1
77	77	3
14	34	2
136	138	1
108	108	1
143	143	1
84	104	2
116	118	1
59	60	2
120	121	2
38	39	1
76	77	2
105	131	1
3	88	2
31	32	2
12	19	2
34	34	1
132	133	1
29	29	1
125	126	2
98	128	1
71	71	3
1	1	1
104	105	1
4	5	3
24	25	3
125	130	1
52	52	2
75	80	2
94	95	2
126	126	2
92	96	2
84	85	3
10	17	1
98	98	3
38	40	3
92	92	4
35	36	2
0	128	1
110	110	1
145	146	1
85	88	1
117	117	4
99	99	2
18	30	1
103	141	1
139	139	1
96	96	1
101	101	3
9	11	1
66	66	2
20	20	4
10	10	2
131	132	1
128	130	2
19	26	1
17	18	2
134	135	1
70	73	1
31	38	1
116	138	2
109	110	1
131	135	1
18	19	1
141	141	3
28	28	1
83	83	1
137	138	1
24	26	1
120	123	1
17	19	1
48	48	1
66	70	2
84	119	1
50	51	1
60	62	1
88	89	1
65	83	1
58	67	1
119	138	1
69	74	1
89	90	2
87	87	1
57	58	1
75	76	1
78	96	1
110	111	1
26	32	1
94	94	3
23	23	4
22	23	1
55	70	1
6	10	1
39	39	1
3	23	2
39	47	1
30	59	1
131	131	2
28	33	1
119	122	1
15	17	1
5	13	1
114	117	1
35	50	1
105	106	2
108	126	1
50	50	1
2	3	1
47	49	1
112	113	1
102	144	1
86	86	1
114	139	1
136	137	1
67	68	1
8	22	1
68	84	1
121	121	1
55	61	1
94	97	1
109	109	1
126	127	1
24	24	1
83	84	1
109	111	2
119	123	1
13	15	2
55	57	1
104	104	1
107	107	1
34	50	1
61	61	1
4	16	1
13	39	1
97	107	1
23	28	1
10	28	1
100	101	1
98	120	1
25	25	1
142	143	1
144	145	1
72	73	1
87	91	1
61	68	1
54	54	1
