8	17	2
17	18	3
32	32	1
160	160	2
5	8	1
24	26	1
175	175	1
95	111	1
24	24	1
35	35	2
27	32	1
153	153	1
44	60	1
176	176	2
25	26	1
53	53	3
54	54	2
1	3	2
170	170	2
27	37	1
8	20	1
16	16	1
112	115	2
195	195	7
94	94	3
33	34	3
69	86	1
141	141	2
165	165	2
148	148	2
9	184	3
187	187	3
62	64	1
6	6	2
143	143	1
107	146	1
0	28	1
55	55	2
43	169	1
20	23	2
27	27	1
185	185	3
32	33	1
38	38	1
174	174	3
168	168	4
170	193	1
186	187	1
10	67	1
191	191	1
196	196	2
124	127	3
8	8	2
97	118	1
43	45	1
150	151	1
176	177	5
116	117	1
163	164	1
142	143	1
9	10	1
40	40	1
29	31	2
103	103	1
122	122	1
154	154	2
79	79	2
57	57	1
15	45	1
100	100	2
23	23	3
191	192	1
157	157	3
181	187	2
183	186	1
84	84	1
115	137	1
5	180	1
65	65	2
21	21	1
105	106	1
12	66	1
150	150	3
28	30	1
146	146	2
104	191	1
144	144	1
58	58	2
143	144	2
70	70	1
45	186	1
26	37	1
162	164	1
173	174	1
56	57	1
113	114	3
90	90	1
17	34	1
162	162	2
29	29	2
190	192	2
45	46	2
192	192	2
71	72	1
104	106	2
34	34	1
19	19	3
36	36	1
87	89	1
48	195	1
103	109	1
9	44	1
11	11	5
44	45	1
10	10	1
85	85	2
56	65	1
100	136	1
100	139	1
14	14	2
63	63	2
57	58	2
96	96	1
46	46	2
40	41	1
67	67	1
59	61	3
197	197	3
17	19	1
150	167	1
83	83	2
167	167	1
51	51	1
2	2	3
12	12	1
125	126	1
15	15	1
45	45	1
116	116	1
77	79	1
117	118	1
166	166	2
3	3	1
15	16	1
146	147	2
161	161	2
127	127	2
4	12	1
49	141	1
27	28	2
1	1	3
166	167	2
139	139	1
39	39	1
3	4	2
169	170	1
107	107	1
154	155	1
175	181	1
78	78	1
132	133	1
42	42	2
28	32	1
75	75	1
142	142	1
178	178	1
144	145	2
44	44	1
152	152	2
49	49	2
30	30	2
6	25	2
16	17	1
11	177	2
60	65	1
10	11	1
94	95	2
186	186	1
47	183	1
151	176	1
134	134	2
0	1	2
5	5	2
158	158	1
37	37	1
195	196	1
23	31	1
21	24	1
31	31	1
105	105	1
95	97	1
98	98	1
123	176	1
13	13	2
121	121	1
187	188	1
39	65	1
154	160	1
4	7	1
8	9	1
101	103	1
7	7	1
154	162	1
140	141	1
170	195	1
195	197	1
43	44	1
128	128	1
15	64	1
43	43	2
147	178	1
87	99	1
135	135	2
12	193	1
194	194	1
110	110	1
159	159	1
142	195	2
99	99	1
4	5	1
17	17	1
41	43	1
4	22	1
107	111	1
184	184	1
21	34	1
136	137	1
111	111	1
155	155	1
