73	73	4
2	2	5
108	108	2
126	126	4
74	74	5
91	91	5
67	68	3
136	138	3
71	72	1
126	133	1
105	105	3
30	32	1
28	53	2
47	47	2
10	10	4
124	124	1
118	119	2
127	130	1
94	94	5
87	108	1
56	97	1
20	20	2
1	1	5
141	141	2
48	48	5
76	78	1
106	106	5
128	130	1
91	92	1
53	53	2
25	54	1
136	137	2
124	125	4
129	139	3
65	65	6
59	59	5
85	135	1
97	97	4
47	55	2
26	26	4
21	22	3
24	24	1
62	62	5
42	42	1
83	84	1
19	19	5
48	54	2
67	67	5
55	55	3
128	133	2
14	16	2
130	130	4
117	117	6
15	24	1
13	13	4
37	129	1
68	87	2
128	128	5
35	36	2
87	95	1
75	75	4
49	49	3
51	51	2
66	74	1
144	144	5
29	29	4
96	96	7
84	84	2
61	61	9
33	33	2
140	140	6
92	92	6
26	41	2
92	131	1
87	90	2
54	54	3
85	87	1
37	37	3
72	73	1
11	11	1
111	130	1
91	94	1
0	41	1
87	88	2
30	30	1
131	131	3
63	63	1
55	65	1
129	129	4
73	82	1
93	93	5
101	101	4
86	106	1
123	123	2
38	50	1
31	54	1
142	143	2
60	74	1
4	15	1
142	142	3
143	143	2
76	80	1
0	38	1
3	4	4
6	10	1
60	60	2
84	135	1
84	108	1
24	25	1
68	80	1
135	136	2
112	113	1
5	5	2
121	137	1
130	135	1
104	104	3
119	122	1
138	139	2
0	0	3
80	80	2
113	113	1
137	139	2
89	89	7
83	86	3
95	95	6
112	115	1
92	95	1
18	18	2
135	135	2
25	41	1
93	94	3
101	125	1
6	15	1
139	139	1
29	30	3
11	13	1
9	9	5
120	134	1
112	112	2
68	68	1
36	36	5
21	26	1
87	87	1
120	121	2
58	58	2
86	86	4
2	6	1
61	62	1
8	9	1
22	76	1
115	115	2
134	134	5
103	103	2
100	100	4
38	38	3
138	138	1
27	27	2
61	89	1
15	57	1
3	17	1
66	66	1
2	10	1
111	111	1
23	25	1
1	12	2
64	64	2
125	126	1
132	132	4
26	86	1
61	86	1
21	21	2
70	101	1
121	126	1
74	80	1
114	115	1
50	52	1
133	141	2
88	109	1
99	99	2
77	79	2
55	56	1
41	41	4
77	111	1
12	61	1
121	122	1
32	32	1
97	129	1
81	110	1
53	54	2
141	144	1
6	6	2
73	74	1
98	98	2
119	119	1
135	140	1
82	82	2
40	40	1
69	70	3
50	50	1
55	67	1
73	81	1
133	135	1
119	120	1
73	86	1
39	39	3
122	122	2
55	58	1
119	138	1
121	121	1
59	60	1
27	56	1
23	23	5
141	142	1
33	61	1
4	4	2
2	57	1
84	96	1
85	90	1
15	15	2
34	34	4
41	42	3
76	88	1
20	23	1
85	85	2
122	129	1
88	114	1
64	109	1
92	94	1
116	141	1
102	105	1
143	144	1
81	81	3
107	107	1
128	129	1
21	94	1
76	77	1
40	42	1
35	43	1
71	71	2
25	25	5
116	116	1
116	129	1
24	37	1
42	97	1
109	109	2
90	90	1
117	125	1
117	139	1
66	103	1
21	82	1
105	107	3
56	56	3
137	137	1
29	61	1
102	103	1
18	40	1
40	41	1
35	35	2
57	57	1
32	60	1
120	132	1
65	66	1
70	70	1
12	12	1
118	133	1
3	3	2
1	67	1
94	124	1
34	69	1
117	118	1
69	92	1
110	110	1
107	108	1
76	76	1
64	78	1
28	30	1
133	133	2
17	17	2
127	133	2
109	110	1
27	28	1
28	28	3
36	39	1
58	70	1
73	102	1
22	22	2
57	58	1
0	8	1
0	3	1
31	64	1
16	81	1
9	10	1
87	109	1
15	51	1
18	19	2
25	31	1
43	43	3
31	31	2
67	73	1
79	79	2
58	62	1
2	125	1
14	14	1
78	78	1
3	118	1
107	110	1
93	140	1
120	120	2
90	92	1
16	80	1
3	30	1
127	134	1
42	49	1
36	38	2
72	72	1
50	72	1
102	102	3
12	13	1
94	130	1
2	20	1
75	79	1
106	107	1
3	26	1
141	143	1
15	16	1
64	65	1
129	130	1
100	141	1
85	128	1
23	24	1
110	112	1
0	53	1
72	74	1
42	48	1
116	117	1
50	78	1
8	8	2
130	133	1
124	126	1
68	69	1
136	136	1
93	107	1
91	134	1
103	140	1
60	75	1
41	61	1
54	55	1
2	140	1
47	48	1
70	126	1
109	123	1
4	5	1
17	24	1
16	16	1
77	78	1
