85	85	2
89	89	3
140	140	1
108	108	3
106	106	4
43	43	3
79	80	2
88	127	1
75	75	2
92	92	1
111	111	3
124	124	1
78	79	3
39	39	4
41	41	2
111	154	1
109	123	1
26	27	1
11	11	1
9	10	2
141	141	2
68	93	1
120	143	1
2	2	1
152	152	1
16	16	3
96	96	3
127	127	2
23	43	1
5	5	1
36	37	2
42	43	1
55	55	2
142	142	1
118	126	1
3	3	2
4	4	2
71	71	1
137	137	1
9	85	1
24	24	1
129	130	3
40	40	1
50	51	1
122	122	2
119	119	1
93	94	1
34	34	1
84	84	3
157	158	1
53	61	1
117	117	4
48	48	2
138	138	4
43	71	1
143	143	2
156	156	1
123	123	3
98	98	4
107	107	2
14	14	2
125	125	1
126	126	1
113	113	3
138	140	2
105	105	2
137	147	1
151	152	1
97	98	2
151	154	1
111	112	1
50	50	2
79	79	2
47	47	3
78	78	2
106	107	1
44	44	1
103	103	2
149	149	1
21	40	1
13	61	1
104	104	2
143	148	1
68	119	2
131	153	1
44	50	1
67	67	1
123	124	2
19	41	1
89	90	4
73	73	1
128	128	1
120	120	4
31	31	3
137	138	1
97	107	1
147	148	1
114	114	2
3	51	1
9	9	1
54	55	2
131	133	1
90	90	1
21	21	2
133	138	1
84	95	1
147	147	1
46	46	3
143	146	1
155	157	2
94	94	4
113	115	1
97	131	1
140	141	2
137	139	1
21	22	1
102	102	1
114	117	1
150	150	2
24	29	1
25	25	1
13	13	1
84	85	2
27	43	1
6	7	1
148	148	2
153	155	1
129	129	2
52	54	1
1	2	1
139	140	1
23	24	1
70	71	2
158	158	4
97	97	2
69	80	1
83	83	4
48	55	2
121	121	1
105	106	2
17	19	1
80	82	1
15	15	2
152	154	1
100	100	1
117	121	1
121	122	2
46	47	1
139	139	2
15	34	1
157	157	2
10	14	1
133	133	1
144	145	1
42	42	1
64	65	1
135	136	2
54	54	1
30	30	3
32	32	1
34	42	2
23	25	1
4	22	1
108	109	1
93	93	1
114	115	1
142	143	1
29	69	2
55	56	1
61	61	1
123	125	1
20	20	2
51	51	1
91	91	3
27	27	2
145	145	1
95	95	2
8	8	1
91	135	1
134	134	1
70	70	1
80	90	1
101	101	1
116	137	1
90	94	1
154	154	1
146	147	1
35	35	2
131	150	1
33	33	1
82	93	1
36	36	1
123	126	1
1	1	1
126	127	1
108	112	1
81	86	1
81	81	1
87	92	1
17	17	1
116	116	1
104	129	1
