16	18	1
74	81	1
76	76	5
95	105	1
77	78	3
8	8	3
22	23	2
23	24	1
120	120	2
110	110	4
79	79	3
78	78	5
7	11	1
45	45	3
35	35	4
85	86	5
112	112	5
21	22	2
117	121	2
119	119	5
7	7	5
71	72	1
106	106	2
19	20	1
61	61	3
113	113	4
95	95	5
66	66	4
98	100	1
9	63	1
125	125	6
58	58	3
30	49	1
63	63	4
72	72	7
67	73	1
27	40	2
6	6	3
108	124	1
92	92	1
114	114	1
100	101	1
62	62	2
107	113	1
97	97	4
118	118	4
24	24	2
17	17	5
42	43	2
37	37	3
19	19	5
46	46	3
90	104	1
102	124	1
21	50	3
82	82	3
68	69	1
27	28	3
68	68	3
25	36	1
12	12	6
51	55	1
87	87	5
79	80	1
115	116	2
132	132	2
127	128	2
22	22	3
93	94	2
128	128	5
5	6	3
102	102	4
70	70	4
0	65	1
93	93	3
88	88	3
111	111	3
4	13	1
18	18	6
117	117	5
27	41	1
103	103	1
29	30	2
12	13	1
89	112	2
43	43	5
41	56	1
20	22	2
64	64	2
3	3	1
60	60	2
124	124	4
13	13	3
105	105	6
116	116	4
93	125	1
108	108	2
95	119	1
20	20	6
87	88	2
55	55	2
31	31	6
85	87	1
32	32	2
62	63	2
113	114	2
121	122	1
85	98	1
85	85	3
60	66	2
100	104	1
35	36	1
71	71	2
94	94	3
47	47	2
83	83	2
36	36	1
109	109	1
90	91	2
59	59	4
96	97	2
55	81	1
61	62	1
122	122	5
105	107	1
106	109	1
12	34	1
96	105	1
57	58	1
132	133	1
101	101	2
133	133	3
94	95	3
57	112	2
44	45	2
128	129	2
24	25	1
29	29	1
93	98	2
16	16	2
51	56	1
99	103	1
92	124	1
20	27	2
15	19	1
21	29	1
34	45	1
126	126	5
35	59	1
80	96	1
84	131	1
120	122	1
5	5	3
73	74	2
25	25	2
97	105	1
102	105	1
129	129	3
34	34	2
99	124	1
35	44	1
17	18	3
30	31	1
73	73	4
33	33	2
33	34	2
46	47	2
134	134	2
116	126	1
79	123	1
50	50	1
79	93	1
58	59	1
130	130	3
126	128	1
96	111	2
103	105	1
43	45	1
28	28	1
9	9	4
14	14	2
47	48	1
8	15	1
41	42	1
115	115	2
75	75	3
18	19	2
2	2	1
81	81	1
90	90	1
81	110	1
75	95	1
1	62	1
107	108	1
83	84	1
98	99	1
120	123	2
57	57	2
57	99	1
21	54	2
21	43	1
120	121	1
30	30	1
82	91	1
10	10	4
59	60	1
56	56	1
116	117	1
26	26	3
84	85	1
123	123	5
131	131	1
27	27	3
40	40	1
11	11	1
51	58	1
99	100	1
87	106	1
12	31	1
131	132	3
26	27	2
100	100	2
99	99	1
91	92	1
101	121	2
33	108	1
79	82	1
40	42	1
79	134	1
69	70	1
38	38	2
69	69	1
28	30	1
17	45	1
44	44	2
15	18	1
31	33	1
85	111	1
28	29	2
17	20	1
21	23	1
90	92	1
92	93	2
123	124	1
1	1	1
63	64	1
79	86	1
11	14	1
125	126	3
82	84	2
6	19	1
55	56	1
29	98	1
74	74	2
102	120	1
85	109	1
93	116	1
97	100	2
123	132	1
96	101	1
114	116	1
123	127	1
70	73	1
84	84	1
49	49	1
123	134	1
86	86	1
86	91	1
55	92	1
