1	2	1
95	95	6
14	50	1
5	6	1
58	58	9
31	49	2
116	116	5
76	107	2
78	79	2
26	26	4
52	52	1
66	74	1
76	92	1
90	90	3
59	73	1
104	104	3
96	97	1
10	11	1
105	107	1
46	48	2
55	55	8
110	111	1
93	93	5
92	92	8
117	119	1
0	0	1
57	57	11
54	54	6
45	45	2
96	96	1
27	27	2
61	62	1
109	110	2
12	12	1
105	106	5
93	96	1
63	118	2
109	109	13
117	117	9
131	132	4
16	16	3
120	120	9
22	22	4
91	91	1
120	121	3
125	125	4
118	130	1
73	75	1
89	89	6
11	12	2
52	68	2
32	57	1
114	114	4
94	118	2
26	27	1
49	49	5
80	80	4
40	41	2
132	132	3
88	88	2
23	23	7
18	21	1
24	24	5
113	113	5
4	4	5
89	90	2
46	46	4
107	132	1
130	130	1
31	31	6
131	131	4
94	104	2
112	112	2
13	14	3
3	3	1
65	65	8
67	67	4
62	63	1
117	118	1
2	2	5
39	40	2
107	108	2
64	64	2
51	52	1
119	120	1
71	76	1
47	47	1
7	7	2
64	65	1
64	71	2
71	71	4
30	30	3
41	41	2
106	106	7
9	9	2
101	101	5
100	100	9
126	128	2
72	83	2
49	69	1
119	119	6
39	39	2
26	61	1
129	130	2
83	85	1
42	44	1
94	94	2
94	95	2
11	11	1
111	111	2
67	68	1
130	131	1
128	128	4
58	76	1
56	56	5
102	102	1
76	93	2
32	32	2
129	129	5
54	58	1
0	1	1
40	42	1
25	30	1
115	115	2
62	62	3
44	44	2
63	64	2
78	106	1
118	118	3
70	94	1
126	126	2
110	122	1
113	117	2
48	48	10
121	121	2
28	28	3
108	108	5
6	6	1
70	71	2
15	15	1
38	38	1
105	105	3
107	107	2
14	14	2
98	98	1
68	68	2
58	59	1
124	124	7
24	25	1
127	128	1
81	82	1
33	33	5
33	34	1
96	116	1
85	85	2
81	99	1
7	53	1
14	15	1
86	87	2
60	60	1
50	51	1
34	58	1
127	127	3
78	84	1
120	131	2
52	109	1
84	84	1
71	72	2
97	97	4
0	109	1
76	76	4
42	49	1
53	53	3
90	91	1
50	50	3
27	32	2
65	112	1
125	126	1
104	125	1
66	66	1
3	4	1
90	103	1
85	88	1
103	104	1
99	99	1
73	73	2
1	1	2
80	98	1
103	103	4
61	61	1
109	116	1
38	39	1
118	119	1
27	29	1
88	90	1
54	55	1
63	63	1
49	50	1
102	104	1
53	54	1
103	128	1
3	5	1
83	83	4
34	34	3
125	131	3
10	12	3
112	113	1
82	82	3
43	43	2
115	116	1
104	105	3
88	101	1
107	133	1
112	117	1
41	48	1
81	81	3
68	121	1
51	51	3
74	75	1
89	92	1
102	103	2
72	82	1
78	81	1
41	42	1
58	98	1
66	68	2
29	29	2
69	120	1
84	85	1
120	123	1
63	65	1
78	78	2
58	79	1
5	5	3
86	86	1
28	54	2
103	119	1
15	16	1
66	67	1
23	27	1
77	77	2
68	106	1
123	124	1
99	102	1
70	70	2
113	118	1
68	69	1
93	94	1
13	21	1
58	62	1
42	42	1
19	19	1
86	92	1
25	26	1
32	33	1
94	114	1
72	72	1
87	87	1
59	60	1
118	133	1
79	79	1
74	85	1
128	130	1
56	57	1
50	69	1
87	89	1
123	123	1
10	10	1
75	104	1
122	122	1
53	57	1
74	74	1
42	43	1
19	21	1
115	120	1
110	110	1
102	124	1
77	80	1
67	70	1
17	17	1
80	95	1
87	93	1
29	32	1
116	117	1
48	54	1
62	117	1
108	109	1
47	107	1
45	47	1
25	25	1
