16	16	11
19	19	5
44	44	4
70	70	8
94	108	1
131	131	4
42	43	3
154	154	4
31	31	3
12	12	3
149	150	2
50	50	5
112	112	4
26	26	1
104	105	2
55	55	5
76	76	3
14	14	2
105	105	3
71	71	8
129	145	2
104	104	1
103	105	2
40	40	4
42	42	3
20	20	4
118	119	3
32	33	3
6	6	1
67	67	6
73	83	2
135	136	1
11	40	1
51	51	4
109	109	7
37	37	2
49	49	8
119	119	3
27	27	1
62	84	1
147	147	4
66	129	2
116	117	1
134	134	3
153	153	3
106	106	6
23	23	3
99	99	3
80	81	1
84	84	1
24	24	5
122	122	1
83	84	1
17	17	5
121	122	1
143	146	1
62	65	1
108	108	3
111	114	1
79	81	1
24	149	1
110	110	2
73	73	2
53	53	7
7	7	5
144	144	2
68	68	1
40	41	1
63	81	1
93	97	1
70	154	1
39	39	5
117	117	6
113	113	6
14	25	1
62	81	2
66	69	1
97	97	2
45	46	2
48	48	6
3	3	5
31	43	1
64	64	6
141	141	6
98	99	3
139	140	1
4	4	5
43	43	4
20	63	1
130	130	4
100	100	3
47	47	4
36	36	4
104	108	2
93	93	1
36	37	2
20	21	5
69	69	3
130	145	1
10	12	1
149	149	1
80	80	4
133	133	3
8	9	1
97	99	1
27	28	2
15	16	1
78	79	1
75	75	2
66	83	2
77	85	1
66	66	3
138	138	5
30	37	1
6	21	1
126	127	2
69	70	1
94	95	2
128	146	2
82	82	1
49	65	1
76	77	2
135	135	6
39	40	1
68	73	2
128	129	2
122	136	1
11	76	1
112	113	3
54	54	4
110	113	1
134	137	1
152	154	1
16	77	1
83	83	1
10	10	3
54	119	1
138	146	1
45	45	4
11	31	1
74	75	1
50	51	1
125	125	3
120	120	1
67	69	1
107	109	1
62	68	1
89	90	1
98	126	1
146	146	3
125	126	2
137	137	3
98	98	2
70	114	1
9	20	1
140	140	3
8	30	1
11	11	3
9	97	1
124	138	1
145	145	2
96	116	2
77	77	2
112	130	2
96	99	2
25	25	6
115	117	1
124	124	2
46	47	2
15	15	5
144	149	1
127	128	3
9	9	3
55	56	1
142	142	3
139	139	2
27	29	1
29	29	3
33	43	1
100	111	1
13	13	2
74	74	7
63	63	2
12	18	1
11	35	1
146	149	1
84	109	1
9	10	1
34	34	2
95	97	1
102	102	5
27	30	3
16	17	1
95	95	3
12	14	1
28	28	1
4	5	1
118	118	2
20	24	1
126	128	2
152	153	1
34	36	2
33	35	1
85	85	2
79	150	1
84	87	1
84	93	1
148	148	1
43	46	1
8	8	1
57	57	1
34	35	1
72	101	1
41	42	1
131	132	2
26	27	1
38	39	1
56	57	1
103	107	1
77	80	1
38	38	2
7	27	1
152	152	1
6	7	1
65	65	3
21	23	1
5	5	2
97	100	2
117	119	3
44	45	1
109	117	1
115	116	1
134	135	1
123	128	1
33	42	1
10	25	1
53	69	1
94	94	1
27	98	2
96	96	3
103	104	1
28	37	2
109	111	1
49	50	1
128	128	2
116	116	1
46	46	2
82	83	1
43	45	1
129	130	1
12	13	1
109	137	1
7	8	1
30	31	1
150	150	1
79	82	1
93	94	1
151	151	1
101	108	1
113	114	2
47	117	1
65	87	1
77	86	1
128	130	1
67	135	1
132	132	1
48	49	1
29	31	1
67	147	1
80	83	1
111	115	1
19	20	1
134	140	1
123	124	1
94	97	1
120	131	1
53	54	1
120	122	1
21	21	1
33	33	1
80	111	2
56	63	1
105	106	1
41	43	1
15	27	1
56	65	1
24	92	1
97	98	1
61	62	1
86	86	1
42	80	1
9	12	1
7	21	1
107	121	1
76	78	1
41	41	1
14	15	1
42	81	1
50	53	1
123	123	2
129	129	1
69	100	1
24	30	1
14	119	1
133	144	1
104	107	1
73	76	1
110	122	1
