21	22	6
89	89	4
64	64	9
126	126	7
74	86	2
111	112	2
23	23	12
117	117	3
123	124	5
28	28	5
80	81	3
25	41	1
54	54	6
107	107	12
57	58	3
118	118	2
77	77	6
17	17	6
68	74	2
131	141	1
2	5	1
86	125	1
80	83	2
53	57	3
23	24	2
66	68	1
48	49	1
12	18	3
124	124	5
114	114	7
4	5	3
132	132	6
51	68	1
72	80	1
142	143	1
20	20	4
82	82	7
108	108	3
126	135	2
81	81	3
59	78	2
136	140	1
36	37	1
40	40	10
93	121	1
126	127	1
9	9	6
90	90	4
61	61	3
127	127	4
55	55	6
70	71	3
21	43	2
8	29	2
62	62	3
83	85	3
114	117	1
84	86	1
80	89	1
64	66	1
33	62	2
104	107	1
100	100	8
18	20	2
112	117	1
72	72	5
110	112	1
21	21	10
125	142	1
61	89	1
72	75	1
71	71	7
24	24	2
14	14	4
92	92	9
86	88	1
128	131	1
3	13	2
0	0	9
42	42	6
49	52	2
123	127	2
20	21	3
119	119	4
113	118	1
17	18	5
26	26	6
38	38	6
101	101	1
88	127	2
54	62	1
64	93	1
34	34	6
15	87	1
110	117	2
145	145	6
119	132	1
93	93	3
31	31	2
29	32	1
60	83	1
131	131	5
102	110	1
5	5	5
15	15	4
123	134	1
6	6	6
120	121	3
63	65	1
47	49	1
69	73	1
128	129	3
62	65	1
41	41	5
19	27	2
111	111	5
94	94	9
63	63	5
58	88	1
3	3	4
23	41	1
91	109	1
56	66	2
9	10	4
111	140	1
139	140	2
26	61	2
88	89	1
55	57	1
50	51	3
37	37	9
36	36	10
30	36	2
32	32	12
53	53	3
22	22	11
72	73	2
112	112	6
135	135	6
128	130	2
9	22	1
95	95	7
105	109	1
108	113	1
100	106	2
76	82	2
73	74	2
41	49	1
84	85	3
58	64	1
76	76	5
95	96	3
2	6	3
17	20	1
27	27	8
34	35	3
91	93	3
112	137	1
83	83	4
142	146	1
116	128	1
133	134	3
73	94	1
100	104	1
86	99	1
69	76	1
50	71	1
62	92	1
57	57	5
13	14	4
97	97	9
126	128	2
42	54	1
22	27	4
28	29	5
75	95	1
50	50	9
96	97	4
38	56	1
97	142	1
98	98	5
70	77	1
51	88	1
99	99	14
130	130	5
57	64	2
52	60	1
1	1	9
130	137	1
4	4	4
58	96	1
20	29	1
56	63	1
113	114	5
8	8	6
19	25	1
69	69	5
80	82	2
67	80	1
51	79	1
70	72	2
81	112	1
38	42	1
37	54	1
121	121	5
51	52	1
81	91	1
55	75	2
101	103	2
142	142	3
110	118	1
18	68	1
16	25	2
90	91	4
49	49	5
103	111	2
97	98	5
136	137	2
120	120	4
14	15	1
26	30	1
108	109	2
115	122	1
68	73	1
64	85	1
101	110	1
137	137	4
1	17	1
68	103	1
118	125	1
146	146	5
75	75	6
125	132	2
125	125	10
113	113	6
79	79	5
59	61	1
10	91	2
43	43	2
120	135	1
30	30	9
138	144	2
125	141	1
89	90	2
48	48	4
39	40	5
91	91	6
136	139	1
87	87	5
61	72	1
77	89	1
58	81	2
35	38	2
58	58	4
80	113	1
70	70	5
77	79	1
143	143	3
127	128	2
141	145	1
96	96	6
11	11	8
134	134	8
19	19	7
64	67	1
103	104	1
129	129	2
128	128	3
51	51	6
18	129	1
68	72	1
113	126	1
140	140	8
48	50	1
105	117	1
1	14	1
65	69	1
41	42	1
144	144	4
91	101	1
47	47	3
121	133	1
84	84	5
145	146	1
10	10	4
120	122	1
136	136	9
3	6	1
74	74	2
67	67	8
132	133	2
54	55	3
52	52	6
55	82	1
59	59	4
64	83	1
79	90	1
25	25	4
25	26	1
62	63	1
97	139	2
15	27	2
114	126	1
35	35	5
123	123	7
86	86	3
31	32	2
102	102	8
71	91	1
91	94	1
99	102	2
105	106	1
107	108	1
2	2	5
106	106	2
138	139	1
122	122	2
48	77	1
58	63	1
91	113	2
82	87	2
86	91	2
73	73	4
33	38	1
102	126	1
4	10	1
18	18	5
76	79	1
17	30	2
109	109	7
135	136	3
16	39	1
58	91	1
116	117	2
105	105	3
38	117	1
92	106	1
140	141	2
70	79	1
104	105	1
106	107	2
16	17	2
104	121	2
10	129	1
49	63	1
26	38	2
29	29	4
119	120	4
113	117	2
93	94	5
16	38	2
141	142	2
29	30	2
52	59	1
87	128	1
69	84	1
53	73	1
135	143	1
107	109	3
55	56	1
116	116	3
118	119	1
92	112	1
35	114	1
5	36	2
115	123	1
74	75	1
50	54	1
75	77	2
24	33	1
91	92	1
119	122	1
65	65	3
141	143	1
50	78	1
103	103	9
10	22	1
60	60	2
18	19	5
118	127	1
133	133	7
138	138	4
38	40	1
94	102	1
20	22	1
66	66	3
98	99	1
28	48	2
1	21	1
33	33	4
104	119	1
109	120	1
141	141	3
109	112	1
33	34	4
33	37	2
61	69	1
34	60	1
101	115	1
71	92	1
39	39	2
54	67	1
134	137	1
33	36	2
133	146	2
28	67	1
113	132	2
73	83	1
134	135	2
29	38	1
26	40	2
94	108	1
63	69	1
70	75	1
110	120	1
59	60	1
114	115	1
52	54	2
99	101	1
70	91	1
57	62	1
76	81	1
99	100	3
96	108	1
34	40	1
104	113	1
53	54	1
84	93	1
42	95	1
23	95	1
104	104	1
63	92	1
131	133	2
137	138	1
62	93	1
68	68	5
136	142	1
23	25	1
62	70	1
88	97	1
15	60	1
56	56	4
1	39	1
93	103	1
121	134	1
85	85	4
143	144	2
89	102	4
125	126	3
134	143	1
106	126	1
60	66	1
61	62	2
107	139	1
100	102	1
64	82	1
82	86	1
25	28	1
129	130	3
1	2	1
118	134	1
67	68	4
110	110	1
104	112	1
47	52	1
58	62	2
63	77	2
27	56	1
118	120	1
71	73	1
132	139	1
60	85	1
26	27	1
132	134	1
133	136	3
6	10	2
26	34	1
100	101	1
68	129	1
105	120	2
112	113	1
3	10	2
56	87	2
12	31	1
20	33	2
65	67	1
22	23	1
106	113	1
94	109	1
132	137	1
2	3	1
10	11	2
117	123	2
30	38	1
101	102	3
87	89	1
115	117	2
13	13	4
59	62	1
115	119	1
50	52	1
3	47	1
124	141	1
33	43	1
71	113	1
53	70	1
88	90	2
66	77	1
50	66	1
78	78	2
139	139	5
136	138	1
124	142	1
103	124	1
1	66	1
115	115	2
9	36	1
53	55	2
76	77	3
56	57	3
75	78	1
9	126	1
27	42	1
42	106	1
50	109	1
38	39	2
83	87	1
8	11	1
40	41	3
5	6	1
68	76	1
37	73	1
15	16	1
96	101	1
123	125	1
64	65	1
138	140	1
16	16	1
142	145	2
54	66	1
88	88	1
72	79	1
9	29	1
0	20	1
94	103	1
12	26	1
79	81	1
11	12	1
30	31	2
52	70	1
76	80	1
16	47	1
29	31	2
74	145	1
22	62	1
28	32	1
119	125	1
12	12	1
49	51	1
96	133	1
73	75	1
118	121	1
35	66	1
87	91	1
144	145	1
67	71	1
71	79	1
120	127	1
123	131	1
71	72	1
105	131	1
56	82	1
32	36	1
11	130	1
86	90	2
77	88	2
125	131	1
56	68	1
12	24	1
142	144	1
74	84	1
37	49	1
79	87	1
98	107	1
105	113	1
77	78	1
122	125	1
61	63	1
31	69	1
72	76	1
60	109	1
121	123	1
31	33	1
115	133	1
108	140	1
127	133	1
96	100	1
83	91	1
24	37	1
22	61	1
93	104	1
9	32	1
80	80	1
56	97	1
109	110	1
49	77	1
113	115	2
135	141	1
96	98	1
92	94	1
26	39	2
65	68	1
3	4	1
35	37	1
74	103	1
15	17	1
59	63	1
34	84	1
103	145	1
55	73	1
53	58	1
131	134	1
56	61	1
89	95	1
121	122	1
90	97	1
137	139	1
75	91	1
36	47	1
72	74	1
58	61	1
135	139	1
97	99	1
75	76	1
5	8	1
35	36	1
1	10	1
