73	74	2
67	67	2
16	16	2
58	68	1
47	120	1
9	9	5
21	33	1
71	71	7
78	78	4
52	52	1
73	73	3
30	30	2
50	50	1
22	22	2
17	17	5
21	23	1
82	83	3
70	70	3
112	112	2
95	95	2
106	107	1
125	125	1
84	85	4
76	134	1
49	74	1
3	76	1
97	97	2
21	21	2
79	79	1
68	68	2
97	104	1
47	48	1
93	93	2
81	81	1
3	3	3
20	20	1
76	76	3
23	23	3
74	75	1
64	65	1
18	21	1
62	63	2
80	80	4
84	87	2
99	100	1
66	66	4
4	5	2
87	87	2
48	48	2
129	129	2
8	8	2
49	49	2
97	111	1
103	103	3
23	24	1
81	82	1
57	57	1
98	98	2
63	63	1
17	58	1
104	104	3
57	58	1
119	119	2
106	106	3
11	11	1
45	45	4
96	99	1
34	131	1
9	10	2
26	26	2
7	7	3
83	86	1
55	55	2
5	5	4
86	87	3
77	78	1
53	53	1
12	22	1
4	4	2
32	32	2
84	84	2
43	45	1
127	127	2
79	80	4
74	100	1
102	103	1
94	94	1
26	27	1
1	3	1
65	69	2
115	116	1
130	130	3
134	134	2
15	16	1
116	116	2
101	101	1
124	124	1
12	12	1
2	2	2
64	64	3
35	70	1
19	20	2
65	65	2
61	61	4
121	122	1
43	43	4
59	60	1
38	38	1
126	126	1
58	60	1
122	123	1
44	45	1
83	83	2
107	109	1
38	43	1
34	35	2
6	7	2
31	31	4
14	14	3
7	9	1
43	44	1
27	27	2
88	89	1
53	54	1
37	38	2
100	101	1
131	131	2
22	28	1
1	1	2
58	58	1
13	13	2
86	86	1
62	62	2
83	85	1
10	10	2
36	36	1
21	22	1
123	123	1
8	80	1
132	133	1
49	50	3
69	87	1
66	130	2
102	102	2
77	77	2
27	45	1
56	59	1
82	108	2
74	74	1
72	73	1
50	76	1
117	117	1
92	92	2
108	110	1
57	60	1
72	72	1
24	24	3
26	28	1
44	52	1
6	6	2
5	47	1
115	115	1
18	18	1
120	120	2
88	88	1
66	129	1
15	15	1
25	25	1
65	68	1
63	65	1
14	80	1
0	29	1
69	70	1
16	52	1
80	81	1
53	55	1
33	34	2
53	117	1
75	75	1
125	126	1
50	54	1
118	118	1
61	87	1
26	29	1
14	17	1
2	3	1
93	94	1
130	131	1
46	46	1
