28	28	1
121	153	1
134	134	3
103	103	4
124	124	3
45	50	1
30	30	4
82	82	1
94	94	3
99	112	1
144	144	2
128	128	3
89	89	1
13	13	2
133	147	1
122	145	3
11	11	1
62	69	1
49	49	2
34	34	2
132	132	6
140	140	1
137	139	1
87	87	1
135	136	1
14	14	2
112	113	1
67	68	2
113	121	1
106	106	1
125	140	1
146	146	1
139	139	7
142	142	2
0	0	1
157	158	2
87	106	1
41	41	3
79	86	2
127	139	1
128	135	1
149	149	2
121	144	2
75	139	1
106	123	1
90	90	2
9	9	2
155	155	4
25	25	3
37	37	3
104	105	2
82	83	1
106	107	5
20	20	3
8	8	3
154	154	6
136	137	2
146	147	1
96	116	1
68	69	2
67	69	2
79	79	2
151	151	2
14	34	3
54	65	1
35	35	3
92	93	1
111	111	5
18	19	1
71	104	2
115	115	3
136	136	5
122	125	1
43	43	2
41	65	1
52	53	1
93	96	1
121	121	1
39	40	3
135	135	2
79	80	1
15	16	1
5	5	2
84	91	1
117	117	1
111	116	3
50	50	2
63	63	1
33	33	3
47	47	4
137	137	4
72	73	2
133	134	3
125	125	5
33	54	2
22	22	2
116	116	1
71	71	2
70	76	1
122	122	2
113	135	1
157	157	3
158	158	1
54	54	1
155	156	1
84	84	2
101	101	2
26	50	1
148	148	7
85	85	1
102	102	5
1	23	1
133	133	4
135	141	1
130	133	1
126	127	1
9	10	2
5	6	1
136	142	1
105	107	1
15	15	3
86	87	1
2	2	3
24	33	1
77	79	4
89	90	1
70	75	1
98	149	1
21	27	1
136	141	1
12	28	2
11	40	1
78	78	1
21	55	1
7	13	1
65	65	1
67	67	3
52	80	1
16	17	1
26	26	5
24	24	1
83	83	2
133	137	2
112	115	1
48	51	1
88	105	1
46	46	2
129	129	3
150	154	1
66	148	1
46	55	1
121	127	1
105	105	5
26	43	1
40	42	1
75	75	3
117	119	2
119	119	3
3	82	1
100	100	2
12	12	1
82	85	1
26	30	1
36	36	2
93	94	1
91	91	4
103	106	1
4	4	6
140	141	1
28	36	1
152	153	1
3	3	3
130	130	3
114	114	2
138	139	2
77	77	2
41	49	1
1	1	4
103	119	1
66	66	2
48	49	1
121	136	1
67	120	1
18	18	1
83	85	1
71	72	1
39	39	1
145	145	1
23	24	1
36	50	1
93	93	2
11	19	2
118	119	1
123	126	1
120	123	2
117	125	1
2	3	2
80	80	1
127	127	1
148	154	1
69	69	2
86	100	1
27	28	2
10	10	1
147	147	2
73	84	1
107	107	2
85	86	1
16	16	3
126	126	1
119	121	1
103	114	1
90	91	1
69	70	1
92	98	1
35	54	1
7	7	2
17	44	1
91	96	1
158	159	1
110	110	1
103	104	1
116	130	1
156	157	1
80	94	1
62	88	1
88	89	1
6	6	1
53	54	1
97	97	1
94	95	1
91	95	1
135	137	1
68	68	1
73	73	1
28	132	2
13	15	1
51	51	1
5	23	1
64	64	1
97	106	1
24	25	3
73	74	1
131	131	2
68	86	2
108	123	1
20	21	1
110	111	1
16	43	1
37	110	1
78	87	1
70	70	1
152	152	1
114	115	1
30	44	1
106	111	1
77	97	1
113	115	2
48	48	1
141	145	1
42	155	1
150	150	2
78	93	1
44	44	1
135	139	1
23	23	1
79	81	1
120	147	1
42	42	2
120	120	1
74	74	1
7	8	1
146	154	1
105	106	1
117	118	1
143	143	1
2	134	1
62	62	1
66	67	1
11	155	1
137	154	1
129	148	1
134	149	1
65	75	1
132	138	1
144	146	1
83	106	1
85	89	1
67	131	1
27	27	1
47	53	1
30	102	1
102	157	1
123	142	1
112	112	1
47	50	1
125	126	1
38	39	1
113	113	1
118	123	1
23	50	1
132	139	1
121	143	1
78	107	1
106	109	1
36	48	1
145	153	1
