50	56	1
12	12	2
64	64	3
126	127	1
80	86	1
58	58	3
2	2	3
92	130	1
126	126	4
81	85	2
128	128	3
130	130	2
121	121	5
83	83	3
34	58	1
100	101	1
5	5	5
88	89	2
90	90	5
73	73	1
60	65	1
8	9	1
29	30	1
127	127	2
105	105	2
81	81	5
111	111	3
106	106	5
80	80	2
26	26	1
104	105	2
57	57	2
77	77	1
71	76	1
91	91	3
22	22	3
23	24	2
39	80	2
70	70	1
63	77	5
50	50	4
92	92	7
47	47	4
78	78	4
127	128	1
52	52	4
6	6	4
62	65	1
88	90	2
28	28	5
25	25	3
125	125	1
99	99	2
115	115	5
39	39	3
107	107	2
46	63	1
105	106	1
24	24	2
38	38	1
68	68	4
97	97	4
9	66	1
124	124	2
103	103	1
51	51	1
88	88	3
42	43	1
2	12	1
53	120	1
9	114	1
66	66	5
131	132	1
113	116	2
112	112	3
64	89	1
39	40	1
30	30	5
49	49	1
75	97	1
116	116	1
101	103	1
132	133	1
66	70	1
64	65	3
33	33	3
110	110	4
119	119	6
42	45	3
63	76	1
87	89	1
95	100	2
95	95	1
14	14	1
95	96	1
122	122	4
116	117	1
31	50	2
118	119	1
56	57	3
62	62	1
120	120	4
100	127	1
56	124	1
129	129	2
27	27	3
52	53	2
100	126	3
100	100	5
69	70	2
74	74	1
94	94	1
23	23	2
96	97	1
61	61	1
70	71	2
17	17	1
12	116	1
13	18	1
13	13	1
60	60	1
58	63	1
47	48	2
15	15	3
46	46	2
3	3	3
76	77	1
9	9	1
109	109	1
20	20	1
41	41	3
79	79	3
25	26	3
114	128	2
98	99	1
125	129	1
67	96	1
63	88	1
123	123	2
69	123	1
102	102	1
48	110	1
99	100	1
45	58	1
48	125	1
10	10	1
114	114	2
98	98	1
10	114	1
67	93	1
106	110	1
69	95	1
53	53	3
42	49	1
16	16	1
18	19	1
72	72	1
131	131	1
11	12	2
67	67	1
93	94	1
32	32	1
70	73	1
19	19	1
108	108	1
40	40	1
65	85	1
105	130	2
76	93	1
84	88	1
45	64	1
33	39	1
109	110	2
64	125	1
7	7	1
42	42	2
55	55	1
82	82	1
51	118	1
21	22	1
82	83	1
118	118	1
113	113	1
59	61	1
44	58	1
63	75	1
48	49	1
58	59	1
58	64	1
57	76	1
112	113	2
129	130	1
14	15	1
45	45	1
25	48	1
45	76	1
80	83	1
13	14	1
93	93	2
106	107	1
104	104	1
17	21	1
51	52	1
97	98	1
91	93	1
