76	76	1
4	4	2
25	25	1
33	33	1
32	32	1
97	98	1
104	105	2
20	34	2
104	104	4
106	106	2
129	129	2
100	101	1
82	93	2
127	128	1
64	64	1
115	115	3
29	29	2
116	116	2
67	67	1
1	1	1
0	0	4
63	63	4
76	108	2
82	84	1
114	114	7
109	109	3
34	34	2
61	61	5
10	11	1
70	70	3
68	69	2
45	46	1
2	5	1
95	95	3
97	97	1
39	39	1
84	84	1
103	111	1
122	123	2
93	93	1
89	95	1
50	51	1
123	123	4
79	81	1
117	120	1
29	31	2
53	53	1
50	50	2
131	131	2
45	45	1
24	24	2
125	125	1
55	55	4
118	118	1
72	73	4
86	86	3
28	28	1
102	103	1
120	120	2
55	107	1
7	7	3
81	81	2
62	62	3
20	20	3
54	54	1
58	120	1
59	61	1
57	57	2
88	89	1
105	105	3
73	74	1
42	42	1
68	68	1
113	113	1
90	90	3
82	82	1
16	23	1
44	44	1
101	101	1
124	124	1
5	5	1
72	72	1
126	126	2
122	122	1
103	103	2
13	13	1
2	4	1
73	73	2
31	33	1
14	14	1
8	13	1
74	75	1
30	31	1
73	85	1
102	102	1
91	97	1
114	131	2
40	41	1
68	123	1
23	23	2
62	90	1
6	6	2
89	89	2
119	119	2
110	110	1
4	5	1
106	114	1
112	112	4
24	25	1
13	15	1
43	43	2
39	42	1
16	18	2
109	110	1
22	24	1
79	79	2
130	131	1
20	33	1
94	95	1
56	56	2
83	83	4
100	100	1
69	69	1
98	98	1
8	8	1
52	52	2
26	26	1
75	80	1
71	71	2
6	7	2
125	129	1
47	47	2
99	99	1
65	67	1
111	113	1
91	93	1
58	58	2
22	23	1
108	109	1
5	52	1
123	124	1
63	106	1
93	100	1
54	55	1
30	30	1
76	93	1
32	33	1
69	76	1
73	75	1
0	53	1
117	117	1
114	115	2
39	40	2
92	104	1
127	127	1
85	86	1
27	27	2
70	105	1
90	102	1
75	75	1
111	111	1
104	108	1
12	12	1
78	78	1
107	107	3
17	18	1
23	24	1
83	93	1
3	3	2
3	52	1
17	19	1
11	11	1
51	53	1
76	82	1
78	90	1
9	11	1
52	53	1
128	130	1
59	59	1
65	65	1
92	92	1
46	46	1
9	9	1
116	117	1
7	122	1
2	3	1
133	133	1
121	121	1
15	15	1
