176	176	5
181	214	2
20	20	5
228	228	11
202	202	10
107	170	1
106	107	2
18	18	3
6	6	2
38	42	2
12	12	7
39	40	2
32	32	5
26	26	3
186	186	5
57	82	1
227	227	4
29	37	1
83	83	1
44	45	2
222	224	2
88	95	1
45	45	3
107	114	1
236	242	1
203	203	7
205	230	1
238	241	2
91	91	6
214	221	1
110	110	6
118	118	5
28	28	5
226	226	5
233	234	1
8	8	5
198	199	1
81	81	3
169	174	1
67	68	1
7	9	1
170	209	1
63	63	2
39	39	6
57	57	2
247	248	5
47	47	5
232	233	1
4	49	1
75	158	1
215	215	5
27	27	2
194	194	6
80	80	2
57	69	1
81	82	1
24	24	5
16	25	2
197	211	1
162	162	7
166	166	4
33	39	2
242	242	1
246	246	2
54	54	4
65	65	2
79	83	1
111	112	1
15	165	1
59	59	4
201	246	2
212	212	6
40	40	9
220	244	1
174	176	1
199	199	7
196	198	1
173	173	4
163	175	2
224	224	10
216	216	1
109	119	1
28	154	1
213	213	7
50	50	6
11	15	1
243	243	4
17	17	4
33	35	1
217	218	1
231	231	5
195	195	7
167	167	2
182	182	4
186	209	2
3	11	2
221	221	5
150	151	4
120	120	5
221	222	3
200	200	5
237	237	2
178	194	1
172	172	2
34	34	6
84	86	1
109	113	1
66	97	1
86	86	4
106	111	2
237	238	3
66	69	1
209	209	4
213	214	4
20	246	1
36	36	7
15	15	11
30	36	1
95	97	3
179	179	4
225	225	2
150	156	1
42	42	2
176	188	1
236	236	4
208	208	6
90	117	1
231	232	8
19	19	6
99	100	3
211	211	5
11	11	4
191	198	2
61	71	2
101	112	1
238	239	2
223	241	1
111	113	2
35	35	3
101	109	2
156	167	2
0	1	1
201	202	1
204	205	3
193	194	2
10	10	5
34	40	1
94	94	5
214	214	6
112	113	3
75	76	2
185	191	1
234	236	2
53	54	3
51	89	1
242	243	2
212	213	1
109	109	4
72	73	2
29	29	5
208	211	1
7	7	7
216	218	4
4	12	1
54	55	2
99	99	3
96	97	1
35	48	2
192	196	1
168	168	3
236	247	2
160	161	1
175	213	1
76	76	4
192	202	2
197	199	3
117	117	6
198	198	6
218	219	2
111	111	6
74	77	1
15	16	2
241	241	6
21	22	1
202	209	1
3	3	2
78	81	2
19	32	1
226	229	1
192	194	1
55	200	1
100	100	3
95	96	1
9	9	3
44	44	6
109	197	2
170	170	5
82	82	2
94	153	1
201	201	3
206	207	2
144	144	1
39	47	1
26	39	1
159	160	1
103	104	1
234	234	2
203	212	1
244	244	2
204	212	1
17	18	3
27	32	1
218	218	3
77	79	1
162	166	2
173	193	1
92	93	2
214	215	2
59	60	3
48	90	1
49	50	3
227	228	3
174	177	1
12	14	1
156	156	5
153	153	4
246	247	2
22	31	2
31	32	2
25	25	3
25	28	2
74	74	1
38	47	3
4	5	2
201	204	1
158	159	1
23	23	4
207	207	4
0	59	1
155	155	3
180	180	2
109	110	2
109	117	1
168	178	1
112	116	1
15	203	2
105	106	3
165	192	2
105	105	2
58	58	5
21	21	7
4	4	3
233	236	1
195	196	1
171	171	5
52	53	2
79	80	2
172	174	1
174	174	4
161	203	1
52	52	2
55	56	1
85	90	2
147	147	2
29	154	1
204	204	3
47	50	1
222	223	1
190	193	1
236	237	2
1	44	1
165	166	1
31	33	1
69	69	2
187	213	1
71	71	3
228	229	1
229	234	1
186	195	1
238	238	3
14	15	2
106	106	2
72	75	1
54	58	2
41	41	5
164	169	1
199	219	1
226	227	1
24	28	1
114	115	1
104	104	2
175	176	2
181	182	2
86	92	1
150	150	2
162	165	1
8	21	1
225	228	1
0	0	1
197	197	4
27	31	1
189	189	2
16	16	1
22	27	1
48	48	4
161	161	1
156	173	1
64	64	4
31	41	2
210	210	1
92	92	3
37	38	2
43	48	1
63	65	1
51	51	2
91	93	1
160	172	2
163	163	3
108	108	2
173	196	1
89	89	3
46	46	1
19	20	1
213	216	1
176	178	1
182	187	1
239	239	2
211	213	1
9	10	1
184	184	5
166	167	1
34	37	1
2	2	1
30	41	1
204	220	1
200	219	2
165	170	1
98	98	3
33	38	4
175	179	1
6	47	2
151	151	5
237	239	4
24	35	1
215	216	1
61	61	3
145	153	1
183	183	3
10	19	1
220	220	3
115	115	4
41	42	2
26	53	1
13	13	2
152	152	2
192	213	1
156	166	1
245	246	1
56	56	1
192	192	4
5	7	2
14	14	5
87	96	1
37	39	1
79	79	1
212	223	1
28	29	1
101	101	1
179	205	2
76	87	1
184	185	2
31	31	4
162	208	1
19	40	1
23	190	1
200	204	1
58	59	2
233	233	4
178	182	1
46	67	1
196	196	1
165	165	4
47	48	1
156	164	1
16	17	1
43	43	4
234	235	3
116	116	3
220	228	2
88	92	1
223	223	4
231	234	1
185	193	1
205	207	1
51	52	1
46	47	1
185	185	4
214	218	1
79	102	1
145	145	1
200	224	1
114	118	1
234	237	1
156	157	1
95	95	1
22	25	1
107	108	1
28	37	1
117	119	1
222	227	1
169	171	1
50	51	1
230	230	2
245	245	4
242	247	1
1	228	1
54	64	1
235	238	1
6	8	3
62	69	1
49	53	2
54	59	2
87	87	3
205	205	2
115	119	1
5	5	2
96	102	1
198	210	1
165	219	1
38	38	9
42	44	1
220	229	1
182	183	2
57	61	2
214	220	1
112	112	5
212	217	1
162	163	2
213	223	1
15	23	1
171	202	1
84	84	1
224	225	1
55	55	2
99	101	1
20	30	1
176	177	1
210	215	1
64	67	1
113	113	3
25	26	1
23	42	1
240	241	2
200	201	2
225	226	2
16	44	1
179	180	2
179	190	1
150	153	1
180	193	1
146	146	2
210	219	1
219	220	1
53	53	4
67	67	2
65	76	1
203	204	1
179	226	1
166	169	1
72	74	2
113	114	2
72	72	3
84	85	1
47	49	1
1	11	2
49	49	2
211	212	1
83	84	1
85	91	1
228	230	2
1	1	2
119	120	1
168	172	1
84	91	1
30	30	1
33	33	2
6	16	1
59	68	1
11	37	1
174	192	1
117	118	1
30	31	2
227	241	1
30	33	1
178	200	2
234	243	1
91	92	1
91	105	2
240	240	2
96	99	1
161	163	1
201	203	2
177	177	2
157	157	2
173	182	1
231	233	2
8	9	2
2	4	1
92	103	1
56	79	1
1	6	3
53	67	1
151	153	3
243	244	2
3	6	1
67	85	2
89	91	1
11	14	1
199	220	1
37	37	2
10	11	1
2	14	2
175	178	2
182	189	1
172	175	1
167	179	1
63	66	1
212	225	1
15	228	1
209	210	1
5	8	1
170	171	1
3	5	2
4	10	1
55	62	1
181	206	1
229	229	2
8	11	1
87	113	1
68	68	2
236	245	2
235	236	2
71	88	1
230	238	1
172	173	1
74	96	1
28	34	1
240	244	1
195	215	1
249	249	1
197	212	1
14	19	1
204	214	1
4	6	1
68	77	1
189	201	1
166	172	2
34	35	2
187	187	1
56	86	1
180	181	1
182	207	1
93	95	1
230	246	1
38	40	1
45	46	1
216	217	1
32	33	2
38	39	3
160	160	1
52	60	1
247	247	1
65	66	3
222	222	1
1	2	1
177	178	1
119	119	3
9	11	1
211	215	1
10	45	1
33	34	2
45	54	1
161	162	1
66	67	2
239	240	1
65	67	1
26	27	2
219	219	2
8	10	1
223	224	1
61	68	1
153	155	1
109	206	1
82	155	1
80	104	1
70	70	1
20	21	1
201	206	2
179	218	1
35	36	1
167	171	1
110	117	1
168	205	1
178	178	2
207	213	1
106	110	1
233	245	1
219	228	1
169	169	1
31	34	1
202	203	1
238	240	1
36	201	1
186	187	1
22	23	1
166	174	1
235	235	2
76	78	1
248	249	1
221	224	2
175	210	1
4	11	1
40	47	1
27	28	1
163	164	1
147	157	1
7	49	1
27	30	1
239	248	1
47	67	1
223	232	1
215	222	1
235	249	1
168	171	1
91	94	2
187	217	1
193	195	1
61	69	1
164	164	1
71	72	1
65	86	1
37	45	1
9	14	1
231	241	1
39	41	1
88	88	1
183	191	1
114	114	1
97	98	1
29	39	1
14	34	1
3	10	1
1	205	1
36	44	1
32	38	1
226	241	1
11	32	1
220	223	1
237	247	1
158	166	1
15	22	1
24	25	1
219	227	1
212	214	1
17	24	1
77	87	1
67	70	1
113	118	1
69	75	1
165	178	1
60	60	1
232	232	1
175	175	1
222	245	1
84	160	1
89	116	1
199	200	1
25	79	1
12	22	1
97	97	1
