59	59	4
125	125	7
111	111	2
26	26	8
126	126	3
209	218	1
2	2	2
134	134	5
200	202	1
157	157	4
8	9	2
113	113	4
224	225	1
225	226	2
111	129	1
140	143	1
29	46	2
188	188	6
133	133	6
23	24	2
39	39	7
98	99	2
168	168	4
218	218	4
64	64	5
3	3	2
177	177	3
69	69	6
187	187	4
169	190	1
212	212	2
191	191	5
19	19	3
206	208	1
238	239	1
124	125	4
20	20	4
65	66	2
159	160	3
57	57	5
185	185	6
229	229	5
181	183	2
36	36	5
49	53	2
80	80	1
168	184	1
98	98	3
32	39	1
136	136	5
190	210	1
86	86	3
150	150	8
54	54	3
25	25	5
13	17	1
122	134	1
73	73	5
6	180	1
144	147	1
21	21	6
85	85	5
109	109	5
10	10	4
74	85	1
42	42	3
0	20	2
60	60	4
117	117	10
165	183	1
24	42	1
51	51	2
6	6	4
17	17	3
105	105	2
135	135	5
228	228	3
53	53	6
108	108	7
122	163	2
101	178	1
227	227	4
103	105	1
7	7	9
166	180	2
52	53	4
5	150	2
210	210	3
216	216	1
196	200	2
135	137	2
222	222	5
119	119	1
174	176	1
71	71	4
4	223	1
44	44	5
160	160	6
50	50	2
107	107	4
107	108	3
81	82	3
170	172	1
186	188	2
75	75	5
31	31	3
33	33	4
20	23	1
118	118	7
32	146	1
102	102	6
58	58	4
15	15	2
175	178	1
104	104	5
225	225	2
2	135	1
81	81	3
183	186	1
18	18	8
211	211	2
100	100	2
197	200	4
22	35	1
44	45	4
74	75	2
120	128	2
137	137	9
137	138	1
178	178	3
15	23	1
7	188	1
149	152	2
136	137	1
186	186	3
4	4	4
214	214	3
154	154	5
27	27	6
181	181	5
130	131	2
107	139	1
205	205	1
153	154	2
167	167	8
167	168	1
174	174	2
146	146	3
65	65	4
120	120	5
57	59	1
240	240	3
129	129	3
239	239	2
139	139	2
69	70	2
66	66	4
22	22	7
19	20	3
213	213	2
103	103	2
184	188	1
180	180	4
32	55	1
80	84	1
155	155	2
195	196	2
201	201	2
159	159	1
42	48	3
150	151	2
69	120	1
9	9	4
184	184	3
101	101	3
2	3	1
224	224	2
218	231	1
34	83	1
188	189	2
141	141	4
115	116	2
41	59	1
182	183	1
26	97	1
49	49	5
164	165	2
173	173	6
165	166	1
59	60	2
124	161	1
0	1	2
120	121	3
32	54	1
159	228	1
178	210	1
183	183	5
179	179	2
1	1	1
170	170	4
101	203	2
126	140	1
22	23	1
128	128	6
122	122	2
158	158	2
166	166	3
179	180	1
28	28	5
41	41	2
33	37	1
34	34	6
169	169	7
145	150	2
127	127	3
29	29	3
215	216	3
128	218	1
148	149	2
195	195	2
198	198	1
84	84	3
207	207	3
136	140	1
139	209	1
101	102	2
190	190	3
208	209	5
176	176	6
163	164	3
74	74	2
18	22	2
153	163	1
117	118	2
18	19	3
169	170	1
131	131	3
43	43	3
24	24	2
206	207	2
140	140	4
16	16	3
178	179	2
177	205	1
149	153	2
152	180	1
125	149	1
197	197	1
65	180	1
114	115	1
125	126	2
45	45	4
202	203	1
149	150	2
143	185	2
21	150	1
97	97	4
175	177	1
166	181	2
198	200	1
4	175	2
11	14	2
83	170	1
137	140	2
161	161	4
16	22	1
141	142	1
14	16	3
171	204	1
160	224	2
123	124	3
172	172	2
150	155	1
10	11	4
115	115	3
184	187	1
95	133	1
123	123	3
24	26	2
95	95	3
231	232	1
79	79	5
148	148	2
176	178	1
158	159	4
126	127	3
1	2	1
169	172	1
160	162	1
60	67	1
207	209	1
15	152	1
241	241	2
4	21	1
67	90	1
180	182	1
103	109	1
30	30	5
230	230	2
236	237	2
197	215	1
132	133	1
138	172	1
152	172	2
10	15	1
89	89	1
182	182	4
143	143	2
175	176	1
21	22	1
236	236	2
70	70	2
4	13	1
12	13	5
75	77	1
181	182	4
157	159	1
72	72	4
58	59	3
31	32	3
147	161	1
210	211	1
230	231	1
116	117	2
106	119	2
114	114	1
13	13	5
12	35	1
162	162	1
48	48	5
138	139	1
53	72	1
38	38	6
136	138	3
20	21	1
151	151	6
26	27	1
32	32	6
31	37	1
83	83	3
15	49	3
144	149	1
99	99	2
7	9	1
25	28	3
122	130	1
9	32	1
46	47	1
54	55	1
11	11	3
36	53	1
88	88	2
119	145	3
152	152	2
21	40	1
171	171	2
116	116	1
27	28	1
47	47	1
106	106	1
62	64	3
67	67	5
164	183	1
163	163	3
208	208	2
1	186	1
40	40	5
177	230	1
71	72	2
43	44	1
47	48	1
226	227	1
16	21	1
9	10	2
128	143	1
102	105	1
52	52	3
82	91	1
194	194	2
232	232	1
35	36	3
6	19	1
42	97	1
54	69	1
14	14	3
161	162	1
221	221	2
61	61	1
164	166	1
121	121	4
7	12	1
214	215	2
145	145	1
74	120	1
157	178	1
140	141	1
170	171	1
190	220	1
212	213	1
130	241	2
139	143	2
146	147	2
157	165	1
68	68	1
197	198	1
20	31	1
62	62	3
33	36	1
153	157	1
103	117	1
34	36	2
130	130	1
31	33	2
185	186	1
172	173	1
153	153	2
2	188	1
174	175	1
207	229	2
103	104	1
68	179	1
34	59	1
5	6	2
80	89	1
119	122	1
8	8	2
165	165	2
73	74	1
235	235	2
161	185	2
65	131	1
77	79	1
183	194	1
160	190	1
168	183	1
100	128	1
38	39	2
191	210	1
132	132	1
112	112	1
82	82	1
23	23	4
238	238	2
111	112	1
82	83	1
171	173	1
186	187	2
171	190	1
191	196	1
211	212	1
68	69	1
220	220	1
108	109	1
17	20	1
55	55	4
113	114	1
144	144	1
106	114	1
231	231	3
158	197	1
22	154	1
211	213	1
54	56	1
61	62	1
147	147	2
172	174	1
2	13	1
98	237	1
215	215	2
100	121	2
115	137	1
211	216	1
42	43	1
30	31	1
152	156	1
80	81	2
141	143	1
219	219	1
116	139	1
40	147	1
180	205	1
207	208	1
2	7	1
37	42	1
13	14	2
53	91	1
3	7	1
124	124	1
100	242	1
123	146	1
205	219	1
156	157	1
99	102	1
221	222	1
242	242	1
123	126	2
157	158	1
21	34	1
79	80	1
209	209	2
24	172	1
189	189	1
112	114	1
171	172	4
118	119	1
4	6	1
100	113	1
204	204	1
63	64	1
193	193	1
64	86	1
76	76	1
173	175	1
27	172	1
221	224	1
162	164	1
164	168	1
226	226	1
142	143	1
138	138	1
108	142	1
72	73	1
39	47	1
146	148	1
142	142	1
174	203	1
0	0	1
175	175	1
152	158	1
26	38	1
99	130	1
109	113	1
37	38	1
37	51	1
2	176	1
20	75	1
29	176	1
136	143	1
15	16	1
30	63	1
100	101	1
83	84	1
116	150	1
191	224	1
200	201	1
159	189	1
28	31	1
216	217	2
183	184	2
164	164	1
210	215	1
46	46	1
75	79	1
7	8	1
131	241	1
26	99	1
147	164	1
90	90	1
234	238	1
17	18	1
237	237	1
52	72	1
22	223	1
159	170	1
160	161	1
192	192	1
162	209	1
4	179	1
29	30	1
163	165	1
19	34	1
119	124	1
0	187	1
138	179	1
204	206	1
