107	107	2
90	91	7
84	84	1
34	36	1
93	93	3
31	41	1
68	69	2
34	34	2
103	103	2
54	56	2
102	104	3
22	22	3
46	47	1
62	63	3
38	38	6
39	41	1
56	60	1
105	106	1
43	46	1
31	32	1
42	46	1
69	71	1
37	37	2
81	82	2
91	91	17
58	58	2
90	90	7
112	112	7
28	28	1
76	76	1
102	102	1
53	61	2
38	40	1
81	81	4
81	91	3
76	78	2
86	87	1
45	45	5
78	78	2
48	49	2
110	110	2
90	93	2
110	111	3
47	48	2
71	72	2
105	105	3
81	93	3
82	86	1
21	21	3
113	113	4
20	53	1
31	31	3
92	92	2
22	23	1
68	68	5
58	59	2
96	96	3
35	35	2
101	102	1
95	96	1
25	25	2
40	40	1
29	51	1
20	37	2
98	98	2
102	103	1
27	27	7
108	108	4
69	69	2
97	106	1
90	92	2
52	52	3
39	40	2
111	112	1
44	44	4
62	64	1
67	67	3
64	64	1
104	106	2
87	98	2
59	59	1
86	89	2
26	26	3
33	34	5
24	53	2
53	54	3
30	30	2
88	89	2
109	109	3
72	74	1
63	63	1
41	41	2
111	111	4
101	101	3
57	57	2
45	46	1
73	76	1
87	87	1
44	45	1
78	97	1
29	46	1
100	100	2
48	48	3
94	98	1
100	109	1
60	65	1
42	42	2
74	75	1
85	86	2
20	40	1
87	89	1
97	97	4
93	94	1
96	97	3
43	43	1
70	70	5
83	109	1
28	29	2
77	77	1
88	88	1
91	92	4
50	51	1
63	64	2
73	73	1
38	39	1
104	104	3
78	79	1
95	95	5
89	90	1
100	103	1
41	42	1
60	83	1
46	46	1
55	55	1
33	66	1
64	65	1
82	82	3
75	76	1
47	47	2
82	85	1
80	80	2
36	42	1
83	84	1
51	52	2
61	61	3
94	94	3
60	63	2
92	108	1
61	66	1
30	43	1
94	104	1
40	58	1
100	111	1
39	39	2
88	91	1
112	113	1
95	97	1
44	64	1
73	75	1
41	47	1
81	83	1
49	49	1
33	81	1
96	98	2
50	50	2
20	46	1
100	107	1
99	99	1
106	106	1
33	33	2
28	30	1
94	97	1
24	24	2
57	60	1
71	71	2
62	62	2
70	73	1
63	67	1
101	103	1
36	39	1
98	99	2
85	85	1
80	81	2
60	60	1
73	78	1
56	56	1
92	93	1
59	93	1
35	37	1
55	56	1
66	66	1
