30	44	2
141	141	6
90	91	1
43	43	3
23	90	2
75	75	1
6	6	2
147	148	2
20	20	4
123	123	7
111	120	1
112	112	7
1	1	3
106	106	6
158	158	3
132	132	2
129	129	3
135	135	5
150	150	5
5	5	4
69	70	3
36	37	4
13	13	5
126	126	2
107	107	3
136	137	3
108	108	3
3	3	3
103	107	1
9	9	2
133	134	2
144	144	4
96	120	1
124	124	4
62	62	2
143	153	2
92	92	6
13	14	2
156	156	10
98	98	6
3	4	1
104	104	4
83	111	2
111	142	1
50	103	1
97	106	1
128	129	2
2	2	1
3	35	1
115	115	4
154	155	4
84	84	2
85	110	1
97	134	1
73	75	1
82	85	2
17	17	1
97	155	1
138	138	3
121	122	2
50	50	4
89	119	1
116	123	1
122	122	5
131	134	1
114	114	2
99	100	1
157	157	3
36	36	2
127	127	4
105	105	5
40	40	1
68	69	1
55	55	4
88	88	5
48	49	3
78	87	1
83	83	2
30	30	6
64	110	2
24	90	1
0	0	1
42	118	1
135	136	2
22	145	2
126	132	1
54	80	1
34	56	1
14	14	1
106	107	2
4	4	4
34	34	2
10	10	1
29	29	2
46	121	1
111	148	1
76	103	1
153	153	2
43	68	1
113	113	2
114	115	1
116	116	3
152	152	3
119	119	5
38	38	3
87	87	3
15	15	1
68	68	4
63	63	4
137	137	2
80	80	4
69	69	1
82	82	2
131	131	2
119	136	2
133	133	1
52	53	1
10	11	1
53	53	3
14	21	1
101	101	6
83	84	2
78	78	1
16	16	5
77	77	4
134	139	1
102	102	1
33	33	2
52	52	3
146	146	1
85	121	1
84	86	3
57	86	1
67	67	1
144	145	3
154	154	3
128	135	1
96	117	1
119	126	1
27	27	4
87	113	1
100	100	7
124	125	1
9	11	1
47	48	1
140	140	4
91	122	1
105	151	2
143	143	3
144	146	1
67	83	2
45	47	1
147	147	1
35	35	2
77	92	1
39	39	2
26	26	4
96	153	1
57	57	1
86	86	3
6	23	1
134	134	2
42	45	1
90	90	5
46	46	1
53	54	3
32	33	1
123	127	1
125	127	1
120	120	4
47	71	1
78	79	1
149	149	3
7	7	2
145	153	1
16	17	1
92	93	1
25	26	1
89	145	1
12	26	1
91	129	1
90	133	1
148	148	1
108	113	1
73	88	1
53	85	1
117	117	5
22	23	1
155	155	2
157	158	1
72	73	1
17	18	1
122	137	1
123	124	1
73	73	2
96	96	1
143	144	1
24	30	1
51	51	2
151	151	1
133	154	2
37	42	1
52	90	2
131	132	2
19	19	1
24	24	1
132	133	2
131	139	1
18	19	3
128	128	2
76	76	1
121	121	2
38	47	1
130	130	2
118	121	1
149	150	1
148	151	1
135	137	1
81	81	1
63	94	1
93	93	2
9	18	1
49	49	2
142	142	1
89	108	1
94	95	1
35	96	1
146	147	1
21	21	1
71	71	3
85	108	1
82	87	1
139	139	2
44	44	1
152	153	3
67	68	1
11	11	2
70	90	1
81	87	1
118	118	1
8	12	1
92	106	1
105	129	1
12	12	1
71	158	1
24	25	2
89	89	2
42	42	3
88	89	1
20	21	1
31	34	1
110	110	4
153	154	1
99	99	1
89	90	2
127	129	1
56	61	1
145	145	2
87	109	1
135	140	1
71	72	1
125	125	2
131	133	1
93	95	1
54	54	2
85	85	1
41	41	1
150	153	1
120	135	1
94	94	1
138	140	1
108	109	2
74	74	1
110	111	1
67	156	1
73	131	1
101	102	1
120	146	1
39	122	1
72	72	1
116	117	1
87	88	1
45	45	3
103	103	1
42	110	1
152	154	1
24	91	1
123	130	1
95	97	1
84	87	1
28	29	1
98	99	1
38	43	1
31	31	1
128	150	1
27	28	1
75	76	1
26	27	1
