53	53	3
59	60	1
67	67	1
71	78	1
40	47	1
60	60	3
52	52	6
38	38	5
35	36	1
32	81	1
34	34	4
35	38	1
31	88	1
79	98	1
90	90	5
86	88	1
58	58	7
101	101	4
82	83	1
53	74	1
69	69	3
57	57	4
100	100	3
95	95	4
21	72	1
40	41	2
74	74	3
104	104	4
87	88	3
78	79	3
88	88	5
70	70	4
60	63	1
60	62	1
98	98	3
44	45	2
91	91	3
40	49	2
32	32	3
42	42	1
66	66	3
59	72	2
54	57	1
55	56	3
50	50	3
68	69	4
80	80	3
36	36	5
93	93	4
97	99	1
48	49	1
90	100	1
97	97	4
85	86	2
86	86	2
23	24	3
85	87	1
76	76	3
68	68	3
23	23	2
28	28	2
68	79	1
92	92	3
73	73	1
77	91	2
77	77	1
94	94	6
36	64	1
22	22	3
61	61	1
66	71	1
84	84	1
41	43	1
55	55	2
25	25	1
39	63	1
103	103	4
96	96	2
60	61	1
21	100	1
84	98	1
56	81	2
65	65	1
54	54	1
89	95	1
66	87	1
97	98	2
62	62	2
91	92	1
105	107	1
92	93	3
89	89	3
33	33	4
105	105	3
61	73	1
24	24	2
106	106	2
98	99	1
90	91	2
77	97	1
91	94	2
83	83	2
34	75	1
35	35	1
54	79	1
72	73	1
92	98	1
26	26	2
25	35	1
59	94	1
74	76	1
71	72	1
102	103	1
23	39	1
39	39	4
52	53	1
56	58	3
48	48	1
63	77	1
79	81	1
51	51	3
29	52	1
51	81	1
64	65	2
46	46	1
21	21	2
65	66	3
96	97	1
102	102	2
30	64	1
36	50	1
52	88	1
77	95	1
58	59	1
33	67	1
79	79	1
32	40	1
37	37	3
41	42	1
20	20	1
56	56	6
27	28	1
42	43	2
44	59	1
72	72	2
34	51	1
26	43	2
31	61	1
76	77	1
32	43	1
46	47	1
95	96	1
45	45	5
96	101	2
71	71	1
21	22	2
67	78	1
30	31	1
43	63	1
30	30	1
23	34	1
72	74	1
51	56	2
26	29	1
69	102	1
93	104	1
44	44	1
80	81	1
76	88	1
43	43	1
50	56	1
64	91	1
89	96	1
49	49	1
105	106	1
72	89	1
51	52	1
25	29	1
58	63	1
62	63	1
53	81	1
45	47	1
78	78	1
62	96	1
52	82	1
77	96	1
34	37	1
83	87	1
40	94	1
85	85	1
54	55	1
61	89	1
43	51	1
42	80	1
