113	113	1
15	15	8
44	44	6
3	3	9
123	123	3
63	64	4
47	47	3
121	121	4
75	75	10
58	58	3
68	69	1
126	126	6
91	91	6
3	15	1
119	119	7
2	20	1
32	33	2
79	79	11
63	63	10
110	111	3
38	38	1
125	125	3
102	102	5
72	72	9
76	76	8
22	31	2
99	99	10
78	78	9
45	65	1
62	78	2
45	45	9
93	93	4
1	3	1
77	77	3
16	16	8
28	28	5
124	125	1
26	26	6
59	60	4
115	115	6
109	128	4
50	52	4
46	46	6
75	80	1
82	83	4
56	56	8
107	109	1
34	43	1
66	67	3
31	31	9
69	69	13
56	57	3
10	18	2
74	74	10
25	25	4
19	20	1
61	61	9
8	11	2
48	48	1
80	81	3
52	59	1
73	73	10
114	114	3
64	64	4
65	82	1
55	56	2
1	1	9
112	112	2
3	4	4
5	5	9
52	53	1
45	68	1
23	23	7
15	31	2
16	38	1
32	32	3
90	90	3
78	79	2
120	121	2
82	82	8
79	80	7
8	8	2
96	96	5
97	97	3
56	69	1
43	43	10
54	58	2
49	50	2
50	50	10
47	50	2
55	107	1
20	20	1
66	66	4
101	101	6
79	81	1
52	52	7
86	86	4
26	79	2
7	8	1
30	30	2
53	53	6
35	61	1
63	78	3
47	48	2
21	21	8
131	131	3
97	98	3
125	126	3
87	87	7
71	71	10
69	97	2
103	124	1
29	29	8
100	100	4
84	84	3
81	81	4
88	88	5
120	120	5
33	33	5
62	62	5
107	107	2
4	7	1
64	65	3
17	17	2
133	134	1
56	61	1
43	55	1
12	35	1
86	87	3
31	53	1
87	109	2
116	117	1
11	11	9
113	114	1
70	70	7
83	84	2
118	118	5
114	123	1
58	110	2
0	24	1
27	28	1
35	38	1
45	46	2
13	118	1
0	32	2
114	125	1
116	116	5
128	135	1
84	85	3
90	91	1
30	32	3
43	76	2
71	87	1
80	80	8
111	111	3
124	124	3
21	22	5
23	44	1
13	32	1
69	82	1
72	73	2
78	85	1
81	82	3
15	16	4
133	133	2
105	121	1
82	87	1
35	35	3
127	127	2
2	8	3
87	88	1
29	30	3
67	67	5
6	6	8
35	43	1
51	51	3
130	130	7
126	133	1
14	30	2
36	36	3
92	92	2
22	22	7
104	104	7
47	97	1
91	129	1
55	59	1
78	80	1
19	19	2
75	76	2
129	130	1
129	129	4
31	65	3
24	24	4
72	105	1
82	109	1
7	13	1
21	32	1
85	106	1
135	135	1
13	28	1
12	14	2
54	54	3
61	64	1
83	85	2
85	85	3
47	49	1
118	130	1
82	128	1
11	12	2
74	75	2
13	15	2
74	120	1
106	106	5
14	15	1
7	11	1
23	24	3
60	60	9
71	72	2
13	47	3
83	83	3
61	62	1
130	132	1
10	36	1
60	61	1
16	23	1
14	14	5
108	131	1
5	6	2
65	66	1
76	77	4
7	7	7
43	88	1
89	90	1
4	5	2
0	0	2
2	24	1
118	129	1
45	91	1
115	116	1
2	2	5
0	68	1
108	109	1
122	123	1
98	104	2
30	31	1
52	106	1
80	90	1
10	10	4
63	65	1
77	78	1
26	28	2
106	107	2
5	14	1
67	68	1
105	105	5
31	32	1
49	49	4
131	132	1
128	129	1
49	62	2
110	130	2
34	66	2
45	117	1
112	113	1
69	70	2
73	75	1
67	97	1
134	134	1
117	117	3
27	27	4
44	45	1
65	87	2
18	18	4
72	77	1
109	110	2
17	18	1
130	131	2
102	103	3
85	86	1
103	103	1
89	89	3
13	13	3
113	120	1
57	57	4
3	6	1
53	55	1
114	115	1
30	122	2
108	108	1
91	92	1
11	15	2
28	29	2
126	127	1
12	12	2
99	100	1
44	72	1
65	65	3
108	129	1
52	91	1
106	111	1
100	101	2
43	44	3
68	68	1
11	29	1
82	85	1
16	17	4
99	127	1
33	34	1
95	117	1
77	122	1
8	26	1
111	115	2
4	4	2
127	128	1
77	83	1
5	22	1
81	125	1
88	112	1
98	98	4
65	70	1
18	71	1
105	106	1
62	85	1
34	34	2
62	63	1
9	9	1
43	45	1
21	70	1
101	102	1
91	95	1
82	84	1
52	54	1
98	115	1
0	1	2
3	7	1
54	55	1
68	90	1
21	43	1
65	67	1
18	19	1
21	54	1
102	119	1
26	27	1
24	25	1
16	91	1
28	30	1
57	58	1
53	56	1
11	24	1
56	62	1
22	23	3
53	54	1
12	29	1
128	128	1
37	37	2
55	57	1
10	53	1
122	122	1
73	80	1
18	33	1
64	86	1
73	74	1
43	71	1
52	60	1
95	95	1
36	37	1
35	37	1
38	67	1
22	24	1
60	90	1
13	14	1
77	80	1
94	94	1
25	26	1
62	67	1
21	26	1
15	17	1
55	55	1
