78	85	1
160	160	4
11	11	2
181	181	1
142	142	1
86	172	1
165	166	1
18	19	2
144	145	1
78	80	1
151	167	1
18	23	1
86	100	1
65	68	1
83	83	2
69	70	2
43	43	3
104	104	3
136	136	2
192	221	1
26	26	1
10	10	2
72	72	10
239	239	4
20	22	1
69	69	2
217	217	1
76	80	1
76	133	1
169	169	2
2	188	1
70	70	1
2	182	1
125	125	1
169	175	1
119	119	2
124	138	1
202	203	2
107	111	1
65	137	2
7	7	2
24	24	1
5	6	1
13	14	1
101	136	1
224	224	2
76	85	2
29	29	2
119	166	1
66	67	2
153	166	1
129	129	4
237	237	3
104	141	1
136	137	2
170	170	1
101	106	1
5	5	3
29	31	1
153	153	1
153	167	1
71	242	1
109	109	1
157	158	1
32	41	1
105	110	1
38	38	2
167	167	1
149	149	1
66	66	2
175	176	1
99	219	1
131	174	1
232	232	1
195	199	1
16	31	3
77	80	1
178	178	1
161	161	1
171	178	1
67	67	2
6	6	2
173	173	2
130	171	1
168	168	1
126	147	1
160	188	1
200	200	1
34	34	1
184	205	1
72	73	1
167	168	1
109	110	1
153	154	2
63	73	1
150	150	3
185	185	1
201	201	3
114	114	1
234	234	1
55	68	1
150	154	1
212	212	2
163	186	1
198	198	2
116	167	1
221	221	2
49	60	1
42	42	1
187	188	1
35	36	3
104	182	1
60	197	1
231	231	1
28	28	4
211	211	2
79	84	2
171	174	1
168	183	1
63	64	1
175	175	2
103	105	1
59	60	2
122	123	1
128	128	3
138	180	2
49	58	1
37	37	4
139	139	1
45	45	1
26	203	1
188	212	1
197	197	1
117	117	2
126	126	3
3	3	3
44	45	1
62	62	1
191	191	1
99	99	1
203	203	2
64	64	1
24	39	1
182	182	2
176	177	1
191	201	1
19	19	3
142	168	1
164	165	1
142	157	1
31	97	1
88	89	2
0	0	2
85	109	1
107	107	1
18	45	1
183	187	1
190	190	1
178	180	2
135	135	1
118	119	2
53	53	1
216	217	1
32	33	1
113	219	2
145	145	1
187	187	1
33	33	1
174	174	1
192	192	1
188	188	2
20	33	1
61	61	2
225	228	1
98	125	1
70	72	1
68	68	2
56	56	2
102	102	2
137	140	1
195	211	2
229	230	1
219	219	1
207	207	1
242	242	2
127	127	2
227	227	3
52	84	1
64	87	1
46	46	1
126	156	1
180	180	2
85	174	1
29	36	1
161	163	1
121	172	1
127	143	1
156	157	1
33	109	1
182	183	2
71	73	3
163	165	1
139	140	1
47	47	2
0	2	1
122	122	1
236	238	1
27	27	5
63	72	1
48	217	1
123	143	1
137	138	1
108	108	1
32	73	1
112	113	1
229	229	1
74	74	1
52	52	1
186	186	1
215	238	1
202	202	1
101	113	1
226	226	2
133	133	1
53	54	1
26	27	1
174	175	1
46	47	2
91	91	1
44	146	2
184	184	2
117	118	1
1	161	1
58	60	1
150	163	1
9	9	1
152	182	1
37	38	1
32	109	1
32	32	2
190	191	1
179	179	1
206	209	1
7	33	1
174	176	1
88	88	1
146	166	1
71	71	2
189	189	1
133	155	1
100	100	1
152	181	1
101	101	1
54	56	1
123	142	1
30	30	1
5	19	1
175	198	2
137	137	1
25	103	1
65	85	1
154	155	1
100	101	1
12	12	2
226	227	1
195	195	1
71	72	1
40	41	1
21	21	1
182	186	1
47	48	1
201	209	1
35	35	1
74	84	1
173	177	2
178	179	1
4	5	1
80	80	1
4	14	1
240	240	1
213	213	1
210	210	1
166	166	2
52	57	1
23	77	1
171	172	1
12	14	1
123	123	1
214	215	1
97	97	2
139	149	1
218	218	1
129	181	1
201	218	1
111	111	1
20	36	1
53	79	1
131	131	1
135	160	1
96	96	1
99	173	1
152	161	1
18	18	1
39	55	1
140	140	1
118	118	1
121	121	1
51	52	1
14	14	1
27	98	1
100	175	1
187	206	1
15	15	1
163	163	1
52	53	1
126	164	1
25	222	1
153	157	1
115	115	1
31	32	1
28	62	1
152	174	1
156	156	1
81	82	1
61	192	1
169	170	1
