126	126	1
25	25	1
40	43	1
110	110	1
123	123	3
36	38	1
62	73	1
124	125	1
24	26	1
116	116	3
80	89	2
58	58	4
14	14	5
56	57	1
41	41	3
11	11	1
28	28	3
91	91	4
46	46	1
16	102	1
94	94	2
126	129	1
118	119	2
133	133	5
120	120	2
65	116	1
59	59	3
10	10	3
134	134	4
83	85	1
127	127	2
68	68	5
57	57	4
121	121	3
112	112	3
64	65	1
25	26	1
110	133	1
130	130	3
100	101	1
131	132	1
84	85	1
56	77	1
38	38	2
131	131	3
104	105	2
61	61	3
27	27	2
37	37	2
117	118	1
95	95	3
83	83	3
93	93	1
128	128	2
84	84	2
111	111	1
5	8	1
20	33	2
45	45	4
79	79	2
65	65	3
56	56	6
76	76	3
13	35	2
32	33	2
113	113	1
118	118	4
39	39	3
99	101	3
93	95	2
63	64	1
10	15	1
36	45	3
48	48	1
104	106	1
47	47	4
106	106	3
2	2	4
99	100	3
21	21	3
24	25	1
61	62	1
19	20	1
115	115	2
122	122	2
9	10	1
78	78	3
123	124	1
67	67	1
7	7	1
102	126	1
124	124	4
127	128	1
70	70	2
36	39	2
25	27	1
110	132	1
8	8	2
59	60	2
18	18	1
23	23	1
80	81	1
11	12	1
129	130	2
29	29	1
60	60	1
73	73	1
24	24	3
15	15	3
93	94	3
120	124	1
7	9	1
107	107	1
28	29	1
114	114	1
75	75	3
102	102	3
108	108	1
92	92	1
43	58	2
63	63	4
110	111	1
49	78	1
32	47	1
132	132	1
75	76	2
66	66	2
6	7	1
50	50	1
72	72	1
15	37	2
20	21	1
12	12	3
99	99	2
81	84	1
108	110	1
87	87	2
96	96	1
71	71	1
43	43	1
79	82	1
82	84	1
40	40	1
113	114	1
6	59	1
93	112	1
19	19	4
35	36	1
41	42	2
104	104	1
44	44	1
17	17	1
36	41	1
66	67	1
67	68	1
109	109	2
21	80	1
3	3	2
119	119	1
39	40	1
72	73	1
120	122	1
78	100	1
77	78	1
9	9	3
83	100	1
62	63	2
81	81	1
6	6	2
80	80	1
29	30	1
86	86	1
89	106	1
0	0	1
64	73	1
40	41	1
3	4	1
90	90	1
5	6	1
40	42	1
73	74	1
83	87	2
43	72	1
125	126	1
34	34	1
80	90	2
4	4	1
121	122	2
100	100	1
91	92	1
74	74	1
98	98	1
94	126	1
97	98	1
112	113	1
132	133	1
77	77	2
12	13	1
107	119	1
78	115	1
56	72	1
82	85	1
69	69	1
110	113	1
106	110	1
16	16	1
58	59	1
65	66	1
77	98	1
83	84	1
111	124	1
60	76	1
42	42	1
15	45	1
92	93	1
13	13	2
20	31	1
