53	74	1
43	43	2
139	161	2
26	32	1
221	222	1
43	63	1
28	32	1
99	101	2
11	11	2
154	154	2
31	31	1
84	86	1
51	62	1
81	81	1
60	61	1
140	140	1
66	68	1
32	33	1
119	121	1
26	146	1
38	48	1
2	6	1
14	49	1
13	46	1
132	167	2
26	26	1
139	140	2
13	14	1
235	240	1
60	78	1
219	220	1
80	82	2
7	47	1
126	156	1
209	217	1
233	233	2
149	149	1
192	200	1
6	7	3
100	104	1
103	121	1
98	111	1
241	241	2
130	130	1
216	216	1
57	59	1
172	174	2
241	243	1
211	212	1
33	165	1
113	122	1
72	73	1
119	119	4
217	217	3
96	98	2
107	110	1
16	16	1
237	241	1
217	218	2
209	212	1
80	84	1
98	99	1
210	210	1
10	12	2
76	77	2
116	117	2
50	60	1
122	124	2
7	7	1
58	58	2
161	161	3
228	228	1
42	59	1
144	148	1
171	189	1
237	238	1
205	209	1
205	230	1
57	58	1
15	20	1
129	129	1
33	33	3
99	104	1
23	30	1
178	217	1
29	29	2
2	41	1
143	159	1
8	8	1
26	28	2
73	180	1
107	118	1
128	137	1
225	225	2
100	106	1
74	75	2
29	34	1
42	67	1
23	36	1
10	48	1
176	180	1
141	141	1
43	70	1
79	88	1
116	149	1
232	237	1
104	104	1
242	242	3
38	46	1
82	84	1
44	57	1
52	53	1
140	142	2
17	46	1
17	17	2
6	13	2
38	41	1
194	198	2
51	60	1
205	205	1
233	235	1
197	198	1
171	200	2
0	0	1
116	125	1
40	46	1
204	204	4
192	192	1
29	32	1
49	53	1
35	44	1
103	103	2
163	163	1
4	6	2
205	207	2
127	134	1
101	105	1
109	118	1
95	95	1
176	189	1
208	211	1
85	85	2
114	119	1
177	184	1
69	71	2
111	119	1
117	121	1
74	74	1
236	237	1
109	134	2
24	24	1
4	4	1
53	68	1
196	222	1
31	39	1
40	48	1
118	120	1
201	205	1
213	218	1
164	164	1
50	52	3
199	200	1
97	111	1
55	56	1
15	53	1
218	218	1
113	138	1
29	30	2
71	71	1
22	26	1
118	148	2
182	182	1
161	168	1
14	46	1
84	84	1
24	65	1
102	102	1
18	18	2
116	116	1
10	10	3
40	51	1
34	35	2
116	118	1
121	121	1
140	141	1
219	221	2
170	176	1
32	37	1
49	52	1
129	152	1
21	21	1
57	57	1
149	150	1
149	162	1
202	205	1
176	176	1
8	12	1
34	34	1
101	106	2
81	82	1
69	75	1
66	69	1
44	59	1
53	53	1
135	136	1
190	197	1
109	113	1
198	227	1
41	47	1
52	60	1
219	222	1
208	216	1
5	12	1
28	38	2
159	162	1
52	52	1
16	19	1
41	52	1
14	16	1
69	72	1
37	37	1
68	68	1
206	209	1
59	59	1
204	205	1
118	147	1
218	220	1
200	200	1
102	129	1
79	81	1
46	49	1
48	63	1
136	136	1
191	191	1
171	180	1
155	165	1
74	85	1
62	82	1
78	79	1
67	86	1
218	231	1
117	119	1
75	113	1
143	171	1
219	223	2
135	137	1
5	11	1
105	105	1
60	60	1
100	100	1
113	135	1
120	121	1
55	80	1
70	70	1
150	162	1
43	54	1
57	60	1
73	73	1
165	168	1
193	193	1
37	38	1
207	230	1
214	214	1
139	139	1
194	196	1
47	47	1
3	3	1
129	160	1
154	158	1
240	241	1
181	235	1
47	50	1
119	122	1
40	40	1
98	100	1
197	203	1
135	135	2
25	54	1
56	66	1
136	140	1
12	12	1
215	216	1
169	180	1
53	56	1
83	88	1
142	142	1
126	149	1
147	148	1
158	168	1
0	1	2
160	160	1
117	122	1
130	139	1
229	234	1
113	113	1
16	21	1
198	216	1
122	155	1
162	197	1
239	240	1
100	109	1
225	234	1
160	163	2
111	127	1
76	81	1
102	103	1
233	234	1
220	222	1
31	32	1
85	86	1
42	42	1
152	193	1
62	62	1
222	239	1
227	236	1
154	157	1
232	233	1
127	133	1
35	35	1
129	131	1
19	22	1
