32	32	18
18	39	1
75	75	4
69	69	4
5	5	6
54	54	4
28	28	8
53	53	5
9	9	6
74	76	1
0	0	5
73	80	1
1	1	11
7	8	4
54	70	1
35	35	9
75	76	1
31	31	9
26	35	1
36	37	2
42	42	5
68	68	4
30	30	5
46	46	5
80	80	6
72	76	1
14	14	6
40	40	13
60	61	1
2	3	1
39	39	7
3	4	3
61	62	1
48	49	1
43	43	7
48	57	1
56	56	7
34	34	4
29	30	4
47	47	14
50	52	1
74	74	3
63	65	1
11	12	4
41	41	11
44	45	2
32	63	1
49	50	6
49	55	2
16	16	4
12	12	5
38	38	6
65	65	9
76	76	8
10	20	1
31	32	5
16	17	2
55	55	7
72	72	3
57	57	2
35	36	3
15	16	3
4	5	2
78	78	6
3	3	4
61	65	1
36	36	5
47	56	1
46	47	2
13	15	3
29	32	1
10	11	2
27	79	2
78	79	2
55	56	4
7	7	8
61	61	3
27	78	1
68	71	1
67	67	9
56	57	4
64	64	2
79	79	4
17	17	5
45	45	4
11	11	2
21	21	4
6	6	4
10	10	3
63	64	3
45	46	3
73	73	10
38	39	4
29	29	4
21	38	1
1	3	2
26	26	8
63	66	4
8	8	9
27	27	12
30	32	1
52	52	4
63	63	10
65	72	1
26	27	1
32	35	1
39	61	1
56	58	1
48	56	1
52	56	1
71	77	1
62	62	6
76	77	7
66	67	1
6	13	1
46	65	1
60	60	4
61	68	1
33	33	4
51	51	2
13	13	4
65	67	1
66	73	1
32	41	1
59	59	5
3	5	1
15	15	2
73	74	2
71	71	2
32	47	1
49	49	7
39	40	3
58	59	2
31	37	1
66	66	9
7	9	1
37	37	8
8	9	2
74	75	1
37	47	1
19	19	3
48	52	2
48	48	7
0	13	1
27	55	1
4	4	5
77	77	5
67	71	1
69	73	1
33	38	1
46	48	2
1	6	1
76	79	1
62	63	1
10	14	1
41	42	2
7	38	1
18	37	2
49	60	1
18	18	2
58	58	7
46	50	1
25	25	2
25	27	1
70	70	5
17	45	1
59	61	1
37	46	1
80	81	2
12	38	1
79	80	1
67	68	2
38	40	1
46	52	1
34	43	1
55	60	1
39	70	1
47	48	3
49	54	1
50	54	1
55	72	1
57	58	1
10	12	1
67	70	2
40	41	1
27	45	1
70	72	1
4	7	1
71	72	2
58	61	2
48	58	1
40	42	2
28	29	2
31	33	1
81	81	1
31	35	2
33	34	1
26	29	1
0	2	1
48	50	1
77	79	1
53	57	1
25	26	1
30	31	1
49	53	1
35	37	1
57	66	1
57	61	1
32	33	1
39	57	1
68	69	1
13	14	1
50	50	3
0	5	1
27	36	1
68	77	1
14	15	2
45	52	1
4	38	1
33	37	1
35	38	1
11	14	1
56	59	1
2	2	1
52	54	1
10	17	1
65	71	1
59	69	1
66	71	1
36	39	1
50	70	1
39	51	1
46	55	1
1	2	1
37	38	1
72	73	1
76	78	1
