153	153	2
99	121	1
39	39	1
172	186	2
150	150	3
4	5	1
20	62	1
82	82	3
168	168	2
208	208	2
218	219	2
208	209	1
3	3	3
178	178	1
69	69	5
30	32	1
43	44	1
154	155	2
127	149	1
88	88	3
151	184	1
46	46	4
239	240	1
206	206	2
71	71	2
56	56	2
5	5	2
69	74	1
239	239	3
33	33	3
36	36	1
26	26	1
68	68	4
19	19	1
102	121	1
38	38	1
5	10	1
232	232	2
102	102	4
51	59	1
34	35	3
52	52	1
20	20	3
71	110	1
153	154	1
18	18	1
180	180	1
232	233	1
190	190	1
22	22	1
73	79	1
179	179	3
107	118	1
138	147	2
171	171	2
144	177	1
214	215	2
11	11	4
220	220	1
113	113	3
153	166	1
68	73	2
224	226	2
65	65	1
134	134	2
210	211	1
147	148	1
204	205	2
12	12	2
145	145	1
155	163	1
218	225	1
13	13	2
108	108	2
29	29	4
134	163	1
114	116	1
127	148	1
193	193	3
85	85	2
18	50	1
29	30	2
169	174	1
126	127	2
188	197	3
50	65	1
119	131	1
151	161	1
161	161	2
64	73	2
142	142	3
187	189	1
142	154	2
174	178	1
26	43	1
173	173	3
104	130	2
214	214	1
46	47	1
59	59	2
21	22	1
100	100	1
58	58	2
181	184	1
191	191	1
49	49	1
74	74	3
222	222	1
64	65	1
137	138	2
137	137	1
86	86	1
75	75	2
119	119	3
152	153	1
122	122	5
18	24	1
149	151	2
27	46	1
10	11	1
171	236	1
237	237	1
186	186	3
63	72	1
104	104	1
81	81	2
147	147	1
124	140	1
103	104	2
163	163	4
73	73	1
139	140	1
55	55	1
186	188	1
136	136	1
43	43	3
10	19	1
138	138	1
14	14	1
187	201	2
2	188	1
224	227	1
152	155	1
95	95	2
163	168	2
130	144	1
21	37	1
236	236	2
119	122	1
47	47	2
171	172	1
30	38	1
111	111	1
201	217	1
116	116	2
84	85	1
7	8	1
211	224	1
148	148	2
99	99	1
104	105	1
167	168	1
174	175	2
49	231	1
201	201	3
192	193	1
203	203	1
39	106	1
27	27	2
7	19	1
227	227	2
152	152	2
138	139	1
135	136	1
10	10	2
144	144	1
181	182	2
225	225	1
79	79	2
120	143	1
205	210	1
2	2	2
60	60	1
55	191	1
168	169	1
184	185	2
169	169	1
23	23	3
48	54	1
63	63	1
180	188	1
222	226	1
119	127	1
199	199	1
228	228	1
101	101	1
105	106	1
160	160	4
47	61	1
98	113	1
42	42	1
53	53	1
17	31	1
45	49	1
172	197	1
156	156	2
238	238	2
32	70	1
158	169	1
21	82	1
35	86	1
81	83	1
79	80	1
97	97	1
62	68	1
169	187	1
222	227	1
64	80	2
160	163	1
23	184	1
24	24	1
139	148	1
175	175	1
24	25	1
39	42	1
57	72	1
117	118	1
67	68	1
235	236	1
128	129	2
14	15	1
61	61	1
17	149	1
73	74	1
210	210	1
17	23	1
112	115	1
28	42	1
185	185	2
40	40	2
170	187	1
240	240	1
96	96	1
9	9	1
150	151	1
54	80	1
84	84	2
220	222	1
7	18	1
227	228	1
242	243	1
69	122	1
221	222	4
123	123	1
216	216	1
135	135	1
150	162	1
53	63	1
153	157	1
228	229	1
58	59	1
140	141	3
155	156	1
76	76	1
146	146	3
183	184	1
165	170	1
199	201	1
163	165	1
182	189	1
176	176	2
30	30	3
14	34	1
80	80	1
42	43	1
184	187	1
168	184	1
157	173	1
34	36	1
22	24	1
109	109	2
223	223	1
201	202	1
212	214	1
184	184	2
201	215	1
127	127	1
174	174	1
124	124	1
187	187	1
15	16	1
205	206	1
125	126	1
193	194	1
66	78	1
9	169	1
226	226	1
129	135	1
129	129	1
21	21	1
38	47	1
42	161	1
24	84	1
167	167	1
