22	22	6
33	33	2
124	124	1
38	38	3
8	8	5
9	9	7
132	132	2
123	123	8
34	36	1
131	131	3
47	69	1
72	72	3
30	30	4
129	129	2
23	25	1
51	51	2
119	119	4
11	11	6
28	37	1
140	141	3
0	1	3
21	21	2
36	36	1
139	139	2
95	96	3
55	55	5
25	26	2
120	120	4
55	84	1
98	98	7
24	50	1
121	123	2
112	115	1
34	34	2
22	28	1
76	77	2
111	111	2
1	1	6
25	25	4
75	75	4
95	95	7
87	88	1
126	126	7
59	59	7
94	101	1
77	77	4
127	132	2
20	20	3
3	3	3
81	81	3
91	91	6
32	32	6
83	83	1
30	33	1
24	24	4
115	115	3
105	105	3
128	137	1
78	143	1
48	48	6
56	56	3
123	124	1
54	81	1
129	130	1
2	2	6
89	93	1
63	74	1
13	16	3
6	6	2
112	112	5
37	38	3
57	57	2
67	67	5
3	19	1
113	137	1
96	96	3
69	70	1
136	136	3
118	118	2
43	49	1
69	69	3
59	61	1
103	103	4
107	107	2
61	74	1
101	101	6
8	22	1
33	34	4
5	5	2
97	97	1
16	17	1
69	94	2
138	138	2
106	126	1
28	28	8
98	99	2
59	65	1
71	71	4
78	80	1
99	99	5
16	18	1
80	80	5
2	6	1
35	55	2
108	109	2
33	42	1
96	99	1
80	81	3
110	116	1
20	21	1
62	62	2
41	41	6
21	39	2
40	40	1
125	125	3
57	58	1
63	64	3
39	39	2
73	73	4
127	143	1
103	145	1
119	127	1
87	89	2
128	131	1
98	102	1
114	114	7
54	54	2
144	144	5
29	29	2
93	94	1
16	16	4
19	19	3
47	47	2
3	4	1
58	58	3
23	24	2
104	104	2
65	71	1
79	79	2
42	42	6
27	27	4
64	64	4
133	141	1
105	117	1
58	59	2
63	63	3
9	34	1
58	97	1
131	133	1
41	86	2
10	10	4
99	100	2
21	37	1
35	35	1
68	68	2
50	52	1
94	94	2
102	102	5
137	137	2
64	73	1
50	50	3
108	126	1
82	82	3
18	18	1
103	106	1
141	141	3
1	18	1
61	61	3
49	49	4
105	114	1
142	142	1
14	14	2
22	144	1
130	130	3
17	17	2
12	34	1
66	134	1
43	43	3
135	135	3
113	118	1
132	133	1
94	129	2
116	116	3
37	41	1
104	127	1
74	94	1
90	116	1
130	131	2
67	86	1
1	17	2
82	103	1
35	57	1
88	88	1
58	117	1
96	117	1
4	4	2
137	138	1
118	121	1
17	22	1
54	59	1
13	13	4
79	85	1
106	107	3
34	35	2
68	69	1
127	127	3
102	125	1
122	122	1
49	50	1
104	123	1
60	61	1
128	128	1
65	65	1
75	78	1
29	133	1
4	26	2
23	23	2
52	53	2
122	123	2
56	84	1
13	32	1
61	71	2
19	37	1
35	52	2
56	59	1
103	107	1
109	109	2
92	93	1
73	74	2
53	53	2
53	56	1
86	87	1
57	73	1
124	134	1
92	92	1
62	65	1
0	0	1
88	89	1
119	121	1
62	68	1
89	90	1
12	52	1
42	48	1
84	84	1
143	143	1
113	123	1
3	6	1
146	146	1
93	93	3
131	141	1
83	85	1
121	121	1
2	21	1
53	55	1
86	86	2
60	62	2
31	31	1
30	31	1
69	98	1
117	120	1
47	60	1
127	128	1
83	97	1
80	143	1
19	21	1
71	73	1
140	140	1
6	26	1
100	103	1
134	134	2
66	74	1
104	108	1
95	100	1
110	110	2
75	79	2
86	95	1
86	102	1
62	86	1
72	73	1
122	126	1
8	28	1
38	41	1
19	20	3
61	62	1
40	68	1
28	29	1
90	91	1
134	135	1
61	73	1
121	122	2
33	35	1
83	84	1
112	129	1
112	113	1
15	17	1
86	93	1
133	133	1
63	79	2
66	66	1
84	85	1
142	143	1
97	98	1
109	110	1
110	111	1
85	85	1
60	60	1
106	124	1
78	78	1
51	52	1
27	62	1
118	119	1
