8	9	3
194	199	2
238	238	4
4	4	5
2	6	1
77	77	4
145	145	1
16	153	1
159	159	2
174	174	5
245	245	3
68	69	1
247	247	4
50	51	3
173	180	1
119	119	3
173	186	1
91	110	2
110	110	5
214	214	1
191	191	1
20	20	4
227	227	3
57	63	1
111	111	3
90	90	3
227	233	2
235	235	4
98	99	1
232	233	3
45	91	1
5	5	4
57	58	1
170	170	4
56	56	3
210	210	1
181	182	2
47	113	3
87	177	1
112	112	5
110	115	1
114	114	1
163	163	1
193	193	2
54	55	1
214	219	1
109	109	2
3	3	1
84	84	2
209	209	3
41	41	4
3	4	1
164	164	5
102	105	2
200	201	1
79	79	2
239	240	1
235	236	2
2	2	3
60	60	2
84	99	1
217	217	2
161	161	1
45	100	1
188	188	2
94	98	1
10	31	1
246	247	1
189	189	2
244	244	3
7	7	4
246	246	5
186	188	1
117	117	3
181	227	1
110	114	1
154	154	4
34	35	3
185	185	5
15	15	3
51	51	5
48	163	1
211	212	1
59	59	3
201	201	5
46	46	1
80	80	1
33	33	2
14	228	1
163	173	2
62	63	3
93	94	2
219	219	6
104	104	1
27	27	2
10	17	1
145	156	1
168	214	1
207	208	1
44	44	6
198	198	5
88	88	1
200	231	2
156	173	1
71	71	1
62	65	2
29	29	2
197	209	2
67	68	1
47	47	4
200	200	2
204	204	9
33	44	1
105	106	1
75	76	1
86	86	2
208	208	3
205	205	2
17	17	1
50	50	4
30	30	5
172	175	1
63	63	3
156	156	2
211	211	3
183	206	1
177	208	2
104	105	2
196	196	1
198	199	1
37	37	4
112	114	1
32	32	3
62	62	2
103	104	3
23	23	1
229	229	3
34	34	3
48	49	1
180	180	2
182	183	1
189	191	1
110	241	2
232	242	1
77	78	2
61	85	1
181	181	5
28	28	5
98	98	1
40	40	3
113	113	3
49	49	5
199	199	3
113	114	2
184	185	1
87	87	1
176	176	1
167	167	2
11	11	1
92	110	1
95	95	1
203	203	4
241	242	3
219	233	1
108	109	1
152	153	1
171	171	3
227	228	1
157	160	1
195	195	3
66	66	1
177	177	4
233	234	1
165	165	3
24	24	2
67	71	1
210	225	1
213	230	1
234	234	4
240	240	2
191	192	1
230	245	1
16	16	1
208	209	1
35	35	3
23	24	1
165	166	1
230	246	1
236	236	4
43	111	1
235	243	2
216	216	2
231	234	2
190	190	3
210	211	2
182	184	3
216	217	1
22	24	1
72	72	2
179	179	1
2	3	2
26	27	2
196	222	1
80	84	1
206	206	3
19	20	1
48	50	1
187	187	1
175	175	2
230	230	2
52	52	1
224	224	3
57	57	3
107	172	1
172	172	2
76	76	1
182	210	1
10	38	1
58	58	2
86	87	1
182	182	2
21	22	1
71	74	1
74	74	1
244	245	2
160	184	1
99	99	1
249	249	1
188	191	2
216	218	2
14	14	2
180	181	1
191	231	2
242	242	2
42	42	2
223	223	2
213	213	1
95	108	1
213	214	2
231	232	2
173	173	1
186	186	1
6	7	2
4	5	1
93	93	1
221	221	2
19	19	1
82	83	1
157	157	3
184	184	3
45	45	2
241	241	2
53	92	1
49	50	3
96	97	1
45	92	1
81	83	1
68	71	1
13	15	1
82	82	1
225	225	2
180	200	2
114	115	1
156	182	1
70	82	1
12	12	2
36	63	1
193	195	1
78	78	2
38	38	3
197	197	1
43	43	1
179	180	2
169	217	1
164	178	1
212	212	1
101	102	2
201	229	1
107	107	2
166	166	1
67	110	1
120	120	2
10	10	2
221	240	1
180	212	1
26	26	2
116	116	1
25	27	1
65	65	2
54	54	2
79	82	2
239	239	1
100	166	1
199	200	1
75	75	2
186	190	1
118	119	1
101	103	2
219	232	1
151	151	1
168	168	1
25	26	1
70	71	1
203	204	1
85	85	1
178	185	1
162	163	1
146	146	1
78	186	1
92	92	1
115	116	1
188	193	2
36	36	1
110	111	1
32	33	1
89	90	2
53	53	3
233	233	2
18	18	3
243	244	1
89	111	1
35	54	1
61	61	1
62	91	1
144	145	1
85	86	1
177	233	1
161	162	1
95	96	1
237	238	1
178	178	2
25	25	1
207	207	1
87	176	1
155	156	1
119	120	1
198	201	1
169	169	2
211	219	1
85	120	1
116	117	1
67	67	1
159	185	1
163	164	1
103	103	2
222	222	2
200	215	1
174	185	1
166	185	1
88	102	2
202	202	3
232	232	1
37	45	1
89	89	1
171	173	1
215	215	1
102	102	1
220	237	1
84	119	1
162	164	1
214	220	1
37	38	1
22	23	1
107	108	1
18	19	1
11	12	1
7	151	1
226	226	1
105	107	1
70	90	1
226	227	1
3	6	2
103	106	1
168	169	1
151	161	1
151	187	1
46	53	1
118	121	1
5	27	1
169	171	1
88	90	1
153	154	1
8	8	1
64	64	1
31	31	1
80	86	1
191	215	1
176	178	1
70	75	1
221	222	1
192	196	1
212	234	1
99	100	1
44	45	1
168	170	1
201	202	1
182	241	1
155	229	1
