185	193	1
5	5	4
10	10	4
234	234	2
201	202	1
97	97	4
169	169	4
232	232	6
205	205	6
202	202	4
87	87	1
206	206	1
219	232	1
224	231	1
67	67	4
154	154	8
193	216	1
194	195	1
26	30	1
40	40	2
105	106	1
57	57	1
83	83	2
193	193	1
242	248	1
49	50	1
221	223	3
235	235	2
50	51	1
38	39	2
64	76	1
60	60	5
181	182	1
57	107	1
12	12	1
193	194	1
115	115	3
88	88	2
31	31	2
11	11	6
24	29	1
58	232	1
70	70	1
23	38	1
80	81	1
213	213	2
29	29	4
7	7	3
20	20	3
111	112	2
85	86	2
146	147	1
18	18	4
118	118	4
51	51	2
179	179	2
58	58	1
1	211	2
94	95	1
222	240	1
91	91	2
203	205	1
215	216	3
178	178	1
151	151	3
193	195	1
99	102	1
184	185	2
150	151	2
21	21	3
80	80	1
44	44	1
96	98	3
25	25	5
95	95	1
194	194	3
188	188	1
211	211	1
98	101	2
47	47	2
227	227	8
237	237	6
119	119	2
198	198	1
239	239	3
117	117	2
204	205	1
162	162	4
65	65	7
16	27	1
210	211	1
186	186	3
172	172	4
225	225	2
204	204	2
166	166	1
19	20	1
111	119	1
33	34	1
4	4	3
247	247	3
75	75	2
80	84	1
106	107	1
213	214	1
158	159	4
164	165	1
113	114	1
200	211	1
218	219	1
48	48	1
54	54	7
18	36	1
73	75	1
174	203	1
18	20	1
53	53	3
57	75	1
33	33	3
246	246	5
199	199	2
157	157	2
71	71	2
90	90	5
147	147	2
165	193	1
3	3	4
228	228	4
27	31	1
185	209	1
222	222	2
160	160	3
56	56	1
180	180	4
230	230	3
30	30	3
28	28	3
185	185	1
150	150	3
9	9	2
112	116	1
72	75	1
214	214	3
49	225	1
9	156	1
24	24	3
174	195	2
45	45	2
73	107	1
16	16	2
175	175	1
191	191	3
176	176	2
26	26	5
46	46	3
84	103	2
63	92	1
184	191	1
92	92	2
6	34	2
232	234	1
112	112	2
164	164	1
42	43	1
203	204	1
36	36	4
6	65	1
82	86	4
113	113	3
96	103	2
61	66	1
236	236	2
66	66	2
190	190	2
84	84	3
22	30	1
160	203	1
23	40	1
176	177	2
207	207	1
114	114	5
218	239	3
212	212	4
8	9	3
116	116	2
19	19	4
28	29	2
197	198	2
219	221	1
96	96	1
242	242	4
215	215	4
22	24	2
92	94	1
100	107	1
217	217	1
43	43	1
85	89	1
183	183	3
39	45	1
200	200	2
180	182	1
28	43	2
15	15	6
145	145	2
94	94	3
203	203	3
101	101	2
110	110	4
101	106	2
204	214	2
38	44	1
98	98	1
100	101	2
182	182	3
221	221	1
56	57	1
43	68	1
34	34	1
77	77	2
49	51	2
40	117	1
241	241	2
191	192	2
21	45	1
152	157	1
172	181	1
77	78	1
201	203	1
11	12	2
146	151	1
216	219	2
34	212	1
184	184	1
41	43	1
168	169	1
160	167	1
184	189	1
105	105	1
183	220	1
55	55	1
161	161	3
54	55	3
181	181	2
66	204	1
190	191	1
16	17	1
85	90	2
44	160	2
32	35	2
20	227	1
174	174	5
27	28	1
102	103	1
177	178	1
38	38	3
171	186	1
0	1	1
23	23	1
173	174	1
238	241	1
87	92	1
98	99	1
120	120	1
187	187	3
154	159	1
163	163	1
118	120	2
172	173	1
5	244	1
1	2	1
116	117	1
73	73	1
61	62	1
99	100	2
61	61	2
238	238	1
159	178	1
207	222	1
156	156	1
68	68	2
23	29	1
110	111	2
59	59	1
167	168	1
8	179	1
47	67	1
218	236	1
209	209	1
69	69	2
93	93	1
50	50	2
111	111	1
109	109	1
216	216	3
170	170	1
10	205	1
204	233	1
71	75	2
192	194	2
78	78	1
23	25	1
167	203	1
52	52	2
35	35	1
2	2	1
64	110	1
22	23	1
39	39	1
231	234	1
47	50	1
26	31	1
107	107	2
4	5	1
82	82	1
16	184	1
173	173	1
242	243	1
152	152	1
16	116	1
155	155	2
208	208	1
32	38	1
92	93	1
68	70	1
6	228	1
243	243	1
80	98	1
170	172	1
176	184	1
201	201	2
180	181	1
195	195	1
224	224	1
167	167	1
94	115	1
165	240	1
42	42	3
243	246	1
81	81	1
51	116	1
72	74	1
222	223	1
196	217	1
22	22	2
189	189	2
189	194	1
201	223	1
58	230	1
169	190	1
188	193	1
54	63	1
167	245	1
5	247	1
86	86	1
80	86	1
146	146	1
10	11	1
229	230	1
226	226	1
14	14	1
37	37	1
187	238	1
177	177	1
17	17	1
49	49	1
80	82	1
32	32	1
8	66	1
51	229	1
