20	22	1
138	140	1
149	150	1
147	148	4
116	116	1
110	110	2
114	136	1
64	81	1
43	44	6
127	128	1
44	44	2
3	3	2
20	32	1
26	27	2
142	143	1
108	109	2
41	43	1
136	136	1
5	6	1
39	41	1
64	66	1
109	109	3
154	154	1
128	128	3
78	105	1
27	46	1
133	133	1
100	100	4
41	41	3
88	113	1
19	19	2
13	14	1
107	107	1
143	143	1
111	112	1
121	121	3
45	45	2
118	118	4
72	74	1
9	9	3
37	44	1
134	135	1
81	81	2
14	31	2
132	150	2
8	8	2
79	154	1
66	66	4
110	130	1
16	96	1
119	120	2
57	57	2
97	97	2
73	75	2
31	32	1
35	35	1
25	25	1
86	86	1
61	61	1
131	149	1
139	145	1
27	57	1
21	25	1
53	55	1
51	52	1
136	145	1
151	152	1
54	84	1
40	44	1
100	106	2
63	64	1
40	40	2
144	144	1
42	42	3
51	51	1
32	34	1
113	113	1
39	39	1
68	69	1
20	20	3
139	139	2
119	119	3
131	131	3
145	145	1
66	70	1
131	135	1
78	104	1
49	49	1
26	26	1
40	47	1
47	47	1
77	77	5
123	123	4
16	16	1
32	32	2
151	151	2
73	84	1
4	19	1
11	14	1
54	153	1
129	129	2
63	65	1
21	22	2
150	150	2
38	39	1
10	10	4
18	96	1
122	122	1
7	7	1
63	92	1
14	14	1
38	38	2
4	4	2
143	144	1
20	21	1
98	98	1
65	65	1
83	85	2
53	53	1
15	15	1
90	100	1
17	96	1
128	139	1
70	70	1
67	67	1
102	115	2
87	97	1
16	37	1
17	17	3
44	45	2
23	24	2
153	153	2
11	12	1
2	2	1
117	118	1
139	143	1
8	57	1
42	151	1
82	86	1
36	38	1
64	64	2
17	18	1
10	23	1
22	22	2
19	64	1
34	34	1
142	142	2
108	108	2
75	75	1
66	78	1
12	33	1
8	22	1
11	24	1
49	85	1
138	138	3
5	42	1
79	79	1
114	114	1
87	87	1
144	146	1
151	154	1
126	126	2
83	84	1
72	72	1
79	92	1
77	102	1
73	73	1
103	103	1
79	80	1
87	91	1
67	78	1
119	149	1
71	71	2
149	149	1
124	124	1
21	21	1
135	135	1
64	67	1
25	26	1
71	73	1
142	146	1
9	38	2
11	34	1
14	19	1
76	77	1
73	74	1
152	152	1
46	46	1
25	36	1
31	43	1
5	26	1
11	11	1
24	30	1
12	37	1
125	125	1
100	101	1
83	88	1
137	148	1
115	117	1
