117	117	8
0	1	2
127	127	6
94	131	1
102	102	4
19	23	1
21	21	5
96	96	5
58	58	5
3	3	1
128	128	2
73	77	1
53	53	4
131	131	2
94	94	3
98	98	8
111	111	1
107	130	1
75	88	1
11	11	3
40	41	2
16	16	5
42	42	4
25	25	5
83	83	4
66	66	8
16	21	1
123	123	2
91	101	1
130	130	3
95	98	1
74	78	1
4	4	5
70	70	6
101	101	9
48	48	5
126	126	2
73	74	2
89	98	1
43	43	3
110	110	8
29	29	3
86	86	1
93	93	8
0	0	2
75	75	3
33	34	2
39	39	2
67	67	2
31	31	7
106	107	2
124	124	2
115	115	8
78	78	4
92	99	2
125	129	1
125	125	3
15	15	5
102	103	2
127	129	1
112	112	5
21	22	1
30	32	1
27	27	4
6	7	1
49	49	5
6	6	2
1	1	3
18	18	3
72	72	1
84	84	3
98	99	1
60	61	1
52	53	2
108	108	4
97	98	4
87	88	2
67	108	2
57	57	1
85	87	1
117	120	1
79	79	3
117	118	1
104	105	1
89	89	4
68	68	3
73	73	1
77	80	2
71	71	4
114	114	5
92	94	2
8	8	2
50	50	7
95	95	3
107	107	4
27	45	2
91	102	1
91	106	1
10	11	2
124	127	2
126	127	2
31	32	2
20	21	1
88	88	1
92	92	3
62	62	3
23	24	2
96	97	3
121	121	4
43	44	2
50	51	2
28	28	2
105	105	2
42	44	1
113	114	4
116	119	1
119	121	3
106	106	3
14	15	2
19	19	2
72	95	1
59	59	2
120	120	4
55	56	2
51	51	2
14	24	1
122	122	1
63	63	5
119	119	3
118	118	1
46	58	3
2	2	5
114	117	1
5	10	1
81	82	3
39	44	1
52	52	1
101	102	2
129	130	1
53	118	2
103	103	5
32	32	1
51	109	1
7	7	3
109	109	1
5	7	1
122	132	1
126	128	2
88	93	1
90	90	4
62	72	1
44	44	2
92	93	1
30	30	1
47	51	1
58	59	2
10	31	1
116	117	1
80	80	2
114	122	1
44	45	1
45	46	1
79	80	3
78	79	2
77	78	1
55	55	2
94	95	2
112	113	2
33	33	1
90	91	1
77	77	2
5	5	3
47	47	4
24	24	2
74	74	2
87	87	2
13	13	1
120	121	1
57	58	1
97	97	3
53	56	1
65	65	2
54	54	3
116	116	3
64	65	2
95	99	1
60	103	2
58	62	1
25	26	1
88	89	1
113	115	1
14	14	2
104	104	1
71	74	1
89	90	1
28	53	1
67	68	1
9	9	3
45	90	2
52	117	1
100	100	2
113	113	2
132	133	1
38	39	2
108	109	2
18	19	1
12	12	1
76	76	1
118	119	1
69	72	1
105	129	1
51	94	1
82	82	1
77	83	1
69	69	1
98	101	2
53	96	1
113	120	1
46	46	1
68	107	1
131	132	1
38	41	1
56	56	2
112	114	1
64	64	1
85	85	3
19	20	1
76	81	1
65	69	1
61	67	1
111	131	1
68	71	1
44	75	2
99	99	1
91	91	1
103	107	1
128	129	1
23	26	1
129	129	1
57	77	1
96	112	1
27	28	1
23	23	1
133	133	1
60	73	1
91	92	1
42	81	1
48	71	1
