168	169	2
173	174	1
170	171	2
164	165	1
67	196	1
196	217	1
43	43	2
162	185	2
48	213	1
183	183	4
133	146	4
78	78	3
45	45	1
2	8	1
203	203	1
129	131	1
18	19	2
115	115	2
182	182	4
42	44	2
120	120	5
109	109	5
28	30	1
184	186	2
117	123	1
136	137	3
209	227	1
76	81	1
152	152	2
175	201	2
117	118	3
120	121	2
60	60	3
171	171	1
30	209	1
242	242	3
179	179	2
192	192	1
63	64	2
2	2	2
234	234	1
153	153	4
5	5	2
103	103	2
150	150	8
74	88	1
64	66	3
133	133	4
20	21	1
30	30	3
6	6	2
238	239	1
230	230	1
189	221	1
44	46	1
42	42	2
119	119	7
163	164	2
84	84	6
7	7	3
80	80	1
104	105	1
152	169	1
159	159	4
128	129	1
75	75	6
188	189	1
53	58	2
11	11	4
49	49	1
207	208	3
193	193	2
37	37	2
4	4	1
40	52	1
46	61	2
186	187	1
96	112	1
167	167	2
223	223	2
109	128	1
68	68	6
21	22	1
141	141	2
215	215	3
158	159	3
233	235	2
10	27	1
3	3	3
62	62	3
10	240	1
157	157	2
27	32	1
29	30	2
108	108	2
158	158	1
41	41	1
216	217	1
215	216	2
71	72	1
57	59	1
116	117	1
212	213	1
126	127	2
80	81	4
4	6	1
199	200	1
51	52	3
99	99	1
143	143	1
168	168	2
27	27	5
33	34	2
124	139	1
207	207	1
55	55	2
204	204	2
129	201	1
203	204	2
184	184	2
151	164	2
200	200	2
103	104	1
102	102	3
123	123	3
180	180	4
20	23	1
85	89	1
66	66	3
135	135	2
181	182	2
198	198	1
40	40	2
0	7	1
156	187	1
152	157	2
125	125	2
110	110	1
206	207	1
167	168	1
41	82	1
11	28	1
58	59	2
189	228	1
120	142	1
126	126	2
73	75	1
34	106	2
117	117	3
172	172	3
17	18	1
135	137	1
226	226	5
102	120	1
27	44	1
28	29	1
228	229	1
13	14	2
178	178	1
146	146	1
138	138	3
216	216	2
52	53	1
177	177	4
221	224	2
52	52	4
13	13	4
81	81	4
140	150	1
23	23	1
38	38	4
71	71	3
64	65	3
101	101	1
115	116	3
202	202	5
139	139	4
10	10	1
20	20	6
210	211	1
169	169	6
81	131	1
144	145	2
142	142	2
16	31	2
241	241	3
100	100	3
114	122	1
33	33	2
113	113	1
69	69	1
104	104	1
228	230	2
160	160	1
139	140	1
63	150	2
174	175	1
165	180	1
36	36	2
175	175	4
191	231	1
39	39	3
154	154	7
67	195	1
29	29	4
172	173	2
185	185	2
9	9	2
10	11	1
76	76	2
149	149	2
179	181	2
185	188	2
77	77	1
151	153	1
1	1	3
150	151	1
8	8	1
32	32	4
63	63	2
143	144	2
22	22	5
164	164	3
88	88	1
63	85	2
129	130	1
133	135	1
34	34	2
28	28	1
179	180	3
144	144	2
235	235	3
47	47	1
15	15	5
154	164	1
98	100	2
176	176	5
18	18	1
191	192	1
161	164	1
162	162	1
120	128	1
3	6	1
187	187	1
123	125	1
148	152	1
122	122	3
124	124	2
16	16	4
47	68	2
109	130	1
74	74	2
140	141	1
18	20	1
171	175	1
202	203	2
201	201	1
80	89	1
186	186	3
140	142	1
69	204	1
169	172	1
233	236	2
131	131	2
111	111	2
21	31	2
85	85	4
119	120	1
12	13	1
239	239	3
106	106	1
105	105	1
71	170	1
170	170	4
161	161	2
9	10	1
15	19	1
118	118	1
220	220	2
149	150	1
116	116	3
158	160	2
8	9	1
219	219	3
221	222	2
176	177	3
137	150	1
165	165	1
0	229	1
16	34	1
239	240	1
98	99	2
28	65	1
64	64	1
48	54	1
114	114	1
56	56	1
66	67	2
96	96	1
181	184	1
198	217	1
112	112	1
236	236	1
240	241	1
89	133	2
136	136	2
147	148	1
174	174	2
207	231	1
214	216	1
58	58	3
25	25	1
65	65	2
86	86	2
50	50	2
5	7	1
180	182	1
210	210	2
227	227	3
203	232	1
97	98	2
147	147	1
34	41	1
212	212	3
26	26	3
46	46	1
223	224	1
14	21	1
234	239	2
140	143	1
79	80	1
9	69	1
173	173	2
213	213	1
59	59	2
53	53	2
128	128	2
20	32	2
124	141	1
203	206	1
57	57	3
69	70	2
232	232	1
237	237	2
192	228	1
19	19	1
148	148	2
194	194	1
129	161	1
108	109	1
109	114	1
199	199	1
31	31	1
214	215	1
50	51	1
234	235	1
222	222	1
113	142	1
166	166	1
218	218	1
188	188	3
115	137	1
12	63	1
179	202	1
21	23	1
12	12	2
140	140	2
72	72	1
199	228	1
67	67	2
156	156	1
1	68	1
169	187	1
61	108	2
24	24	3
144	148	1
4	5	1
70	70	1
68	69	1
160	162	1
68	70	1
187	199	1
207	212	1
37	48	1
11	25	1
184	187	1
4	58	1
0	0	1
125	126	1
79	79	1
27	28	1
14	14	1
214	214	1
118	135	1
220	223	2
75	76	1
228	237	1
137	147	2
164	216	1
26	44	1
40	49	1
59	60	1
32	33	1
132	132	1
197	197	1
0	1	1
46	47	1
24	146	1
190	225	1
162	164	1
32	66	1
191	217	1
154	155	1
17	230	1
73	73	1
83	84	1
115	136	1
42	84	1
161	162	1
139	150	1
135	144	1
229	229	1
69	160	1
189	189	1
144	149	1
130	154	1
29	234	1
66	68	1
123	124	1
146	147	1
6	7	1
119	124	1
226	229	1
114	115	1
131	160	1
122	151	1
