64	64	3
109	110	1
4	4	3
84	104	1
79	79	7
28	29	1
29	29	1
90	92	1
96	96	1
28	30	2
78	78	1
42	42	4
32	32	1
59	59	2
76	93	1
28	28	1
100	100	1
8	8	2
20	20	2
83	83	1
35	43	2
51	54	2
86	96	1
117	117	3
18	19	1
57	58	1
48	87	1
78	79	2
116	116	4
7	7	2
120	120	2
111	112	1
112	112	4
127	128	2
47	47	6
44	44	3
55	55	1
88	92	1
76	116	2
36	36	2
80	101	1
105	132	1
105	110	1
114	114	2
119	120	3
22	22	1
56	56	1
72	72	1
124	126	1
87	96	1
82	92	1
74	74	1
110	110	2
19	21	1
15	15	4
21	21	2
5	70	1
81	81	1
75	75	4
13	16	2
130	130	2
69	69	1
61	74	1
9	97	2
87	87	1
19	32	1
46	93	1
103	104	2
111	111	2
48	49	1
40	43	1
23	27	2
102	111	1
5	5	2
1	1	1
27	28	2
131	131	2
88	88	1
70	70	2
113	113	3
107	107	1
132	132	1
124	124	2
83	93	2
11	106	1
104	104	1
103	103	2
81	109	2
133	133	3
33	35	1
57	57	3
19	19	2
112	129	1
126	126	2
30	30	3
95	97	1
65	65	2
33	33	1
60	60	1
2	2	1
110	111	1
76	76	1
24	24	1
34	34	1
97	97	1
9	10	2
93	109	2
80	91	2
41	41	2
123	128	1
29	55	2
123	123	2
39	43	2
65	66	1
10	32	2
78	82	1
125	125	3
51	55	2
98	98	1
64	75	1
8	24	2
115	115	2
109	115	1
102	103	1
95	100	1
3	3	2
57	102	1
12	12	1
31	31	1
45	45	2
34	35	1
84	84	1
24	99	1
78	86	1
22	47	1
11	11	1
25	101	1
105	106	1
128	128	1
63	63	1
104	108	1
45	57	1
82	82	1
84	107	1
84	103	1
84	87	1
120	121	2
102	102	1
10	10	2
46	61	1
21	22	1
94	130	1
21	28	1
93	93	1
85	85	1
124	125	1
51	51	1
18	18	1
19	20	1
66	67	1
127	127	2
15	17	1
16	16	1
31	55	1
99	110	1
67	67	1
46	47	1
109	109	2
95	95	1
82	107	1
106	106	1
119	122	1
94	95	1
94	94	1
62	62	1
121	121	1
2	3	1
37	39	1
23	49	1
83	92	1
61	61	1
0	0	1
48	88	1
13	13	1
92	92	1
61	70	2
79	84	1
90	90	1
26	99	1
99	101	1
