104	108	1
134	134	7
84	85	1
100	116	1
111	115	1
101	101	4
73	74	1
82	88	1
81	85	2
34	34	2
8	9	1
3	3	2
4	4	1
123	123	4
17	18	2
110	111	3
115	115	4
140	140	1
97	97	6
105	105	6
133	136	1
102	102	6
117	117	6
27	27	1
125	125	3
130	130	2
88	90	1
116	116	3
131	140	2
80	80	1
109	109	4
80	84	1
104	104	2
126	128	1
103	105	3
81	87	1
133	133	9
37	37	3
118	118	1
111	111	6
117	127	1
95	95	4
108	108	6
16	19	1
96	96	5
18	18	2
36	36	3
12	12	5
124	124	5
71	88	1
111	127	2
113	113	2
125	126	1
99	100	1
14	14	2
5	5	3
97	98	1
120	120	2
16	17	2
100	100	2
87	87	1
93	96	1
80	83	1
83	83	2
110	114	2
136	136	4
103	103	4
88	88	1
94	94	2
130	131	1
98	98	1
107	112	1
123	126	1
130	132	2
19	20	1
0	0	2
32	32	1
74	74	3
131	132	1
109	110	2
72	74	1
95	102	1
6	6	1
78	106	1
35	35	2
130	135	1
81	81	1
112	112	2
127	127	2
108	116	2
117	118	1
89	90	1
97	117	1
137	137	2
112	118	1
132	132	4
107	107	2
110	110	1
87	88	1
80	96	1
2	2	4
75	97	1
77	77	2
100	101	1
9	10	1
68	68	2
14	19	1
134	135	1
122	122	1
12	14	1
84	84	2
128	128	2
101	102	2
119	119	3
75	75	4
117	121	1
114	115	1
73	73	1
100	104	1
66	66	1
76	77	1
27	32	2
106	106	2
1	3	1
102	106	1
114	114	2
94	95	1
117	124	1
7	7	2
77	115	1
95	108	2
38	38	2
135	140	2
108	112	1
103	104	1
13	13	2
131	136	1
11	11	2
107	108	1
101	109	1
79	79	2
103	108	1
87	97	1
106	109	1
131	139	1
38	93	1
111	122	2
73	106	1
33	35	1
116	123	1
112	114	2
71	115	2
0	15	1
71	71	1
13	15	1
28	37	1
123	127	2
77	94	2
115	120	1
76	76	3
74	75	4
13	14	2
85	87	1
10	12	1
129	129	1
4	5	1
85	85	1
126	126	1
127	130	1
17	17	1
78	112	1
33	33	1
71	114	1
115	124	1
35	36	1
27	35	2
7	14	1
71	97	1
121	121	1
121	122	1
84	114	1
5	6	1
117	123	1
135	135	1
81	82	1
