100	100	2
126	143	1
76	76	2
9	9	4
134	139	1
89	123	1
97	98	1
73	73	2
85	86	1
122	122	2
82	82	2
30	30	2
5	5	1
53	54	1
159	187	2
106	148	1
133	137	1
169	169	2
160	160	2
1	1	5
142	142	4
145	145	2
74	75	1
108	109	2
84	84	5
124	124	2
141	141	1
77	77	4
104	148	1
151	151	7
109	109	3
53	53	2
81	81	2
160	165	1
34	35	1
155	159	1
84	110	1
89	89	2
103	104	1
55	57	1
153	153	3
2	2	8
12	12	2
87	88	2
24	24	3
25	29	1
15	15	1
31	34	1
95	95	2
58	59	1
55	55	3
3	3	2
173	186	2
90	90	2
78	78	2
45	45	1
129	129	1
190	190	1
86	86	2
145	172	3
176	176	1
96	96	3
109	110	3
75	76	1
163	163	1
54	67	2
39	56	1
103	103	3
75	75	1
9	187	1
73	74	2
110	110	2
88	89	1
66	66	1
3	4	1
159	160	1
81	82	1
178	179	2
31	31	1
85	85	4
130	130	1
91	105	1
166	166	1
81	108	2
92	92	1
88	88	1
79	79	2
6	7	1
157	157	2
165	165	1
126	126	1
71	71	2
174	174	2
162	162	1
184	184	2
7	7	2
90	91	4
119	120	3
138	139	1
42	42	1
143	143	1
10	42	1
35	35	2
159	184	1
58	58	3
187	187	1
111	112	1
47	47	1
150	150	2
156	156	2
26	27	1
126	127	1
155	156	1
104	104	1
87	87	3
61	61	5
186	190	1
149	149	1
117	117	1
76	77	2
121	121	1
77	78	1
144	144	3
93	112	1
137	138	1
108	110	1
115	115	1
37	37	1
27	29	1
25	27	1
12	13	1
170	170	1
173	173	4
44	55	2
128	146	1
112	116	1
73	170	1
152	152	3
134	147	2
99	99	2
166	187	2
102	104	1
100	104	1
48	48	2
20	20	2
42	71	1
163	177	1
129	130	1
40	41	1
120	120	1
4	4	4
171	173	2
80	80	1
27	119	1
131	131	2
48	49	1
63	63	1
139	185	1
149	150	1
175	180	1
178	178	1
106	108	1
111	111	2
114	114	1
10	15	1
164	165	2
93	93	2
28	28	2
27	27	1
67	67	1
123	128	1
98	173	1
53	56	1
88	94	1
14	67	1
155	155	2
81	111	1
128	134	1
18	18	2
139	139	1
185	186	1
11	12	1
80	81	1
70	70	1
140	140	1
130	131	1
0	0	1
154	154	2
105	105	1
18	19	1
74	74	1
6	6	1
27	30	1
46	46	1
103	139	1
172	173	1
11	11	1
45	46	1
72	72	1
119	119	1
187	190	1
123	135	1
152	153	2
13	15	1
10	10	1
108	108	2
135	135	1
171	172	1
7	38	2
135	137	1
25	25	1
188	188	2
145	146	1
44	45	1
168	184	1
57	57	1
176	177	1
158	158	1
4	5	1
68	75	1
173	182	1
102	102	1
105	130	1
7	8	1
103	111	1
91	91	1
138	138	2
172	172	2
34	34	1
68	68	2
2	38	1
105	106	1
123	123	1
39	42	1
153	155	1
112	112	1
40	40	1
135	136	1
0	44	1
55	56	1
19	22	1
20	84	1
87	94	1
101	101	2
106	107	1
