55	89	1
102	118	1
149	149	11
44	44	7
68	71	1
10	10	10
174	174	5
121	122	1
125	127	2
57	60	1
109	130	2
13	18	1
91	92	3
45	45	7
50	50	3
154	155	7
83	96	1
5	9	1
86	86	6
81	82	1
94	94	4
118	121	3
58	67	1
31	72	1
122	122	8
24	34	1
112	117	1
111	111	7
15	62	2
168	168	3
150	150	6
172	172	8
71	71	6
76	76	4
146	147	3
117	117	7
156	158	1
90	93	2
102	102	8
91	110	1
90	94	2
94	104	2
18	18	5
20	25	1
65	65	7
52	52	3
26	26	4
148	148	9
125	125	5
0	0	5
60	134	1
152	152	3
116	116	4
35	35	6
5	5	7
95	102	3
40	43	1
16	16	6
8	8	4
127	131	2
14	23	2
178	178	3
88	88	2
163	163	2
121	121	4
83	83	5
123	123	5
126	128	1
29	29	5
72	72	8
173	173	9
165	165	5
98	98	6
3	3	7
91	123	2
147	147	4
168	169	3
62	103	1
19	19	4
132	149	1
37	37	9
77	77	5
31	31	5
146	146	8
27	27	5
157	157	9
76	78	1
55	66	1
115	122	1
88	131	1
112	112	6
67	67	4
24	24	3
115	120	1
77	92	1
140	140	12
177	178	2
53	53	3
55	61	1
120	121	1
108	110	3
109	110	2
75	77	1
139	153	1
33	33	7
42	42	8
94	95	2
95	96	1
159	169	2
17	178	1
165	172	1
61	62	3
54	55	2
108	108	4
149	150	2
142	148	1
80	81	2
36	36	7
41	41	3
129	130	3
179	179	3
145	170	1
154	157	2
151	151	3
112	113	2
104	127	1
4	5	1
144	158	2
162	162	5
145	145	10
74	74	5
166	166	2
158	158	2
38	54	2
95	95	4
66	67	1
8	9	5
30	33	1
116	119	2
32	38	1
114	130	1
19	22	4
75	81	1
62	63	1
140	176	1
14	15	8
50	51	2
92	92	4
11	27	1
4	17	1
84	85	3
156	166	1
62	62	2
14	14	6
3	75	2
172	180	1
175	175	7
58	58	2
110	110	3
57	58	3
158	164	1
153	170	1
145	158	2
158	159	4
37	38	3
9	9	5
129	129	4
2	7	1
91	115	1
101	102	4
15	15	3
101	105	5
52	53	3
67	70	1
167	167	3
81	81	6
61	64	1
138	138	6
137	137	3
90	90	6
67	68	1
19	33	2
11	12	1
133	139	2
125	133	1
126	127	3
166	167	2
0	5	1
110	111	2
117	121	1
159	159	12
19	42	1
140	141	1
81	83	1
120	120	7
76	80	2
2	51	1
127	127	6
139	139	4
134	134	6
4	4	8
170	172	1
28	71	1
161	161	6
104	104	5
39	40	1
97	97	2
106	110	1
3	4	2
10	11	2
115	115	6
57	57	5
63	63	2
21	21	3
146	164	1
156	156	7
22	23	4
153	153	5
73	73	7
16	24	1
123	127	2
131	141	1
17	18	2
118	157	1
21	25	1
23	23	1
55	72	1
142	142	3
177	177	3
7	7	5
137	138	4
96	97	1
129	131	1
38	65	1
62	66	1
16	33	1
82	82	4
6	6	5
105	105	5
12	12	2
155	155	2
118	118	7
141	141	9
77	133	1
43	43	5
89	114	1
115	117	2
132	132	4
77	176	1
56	57	3
14	17	1
171	171	3
176	178	1
131	132	3
150	151	1
98	104	2
107	107	5
114	116	1
151	153	2
153	160	1
89	96	1
11	11	7
103	110	1
97	98	2
40	40	5
3	34	1
169	169	6
134	137	1
144	144	7
159	162	2
144	145	1
28	30	1
144	148	2
16	38	1
34	34	3
26	30	3
173	174	2
142	168	1
145	149	1
87	87	2
75	75	3
135	136	2
61	61	7
170	170	4
96	96	3
102	104	1
179	180	2
132	133	1
133	136	2
100	110	1
93	93	4
109	109	4
102	116	2
158	169	1
72	108	1
55	74	1
173	176	1
83	84	3
114	114	4
130	130	5
144	152	1
13	13	7
66	66	2
175	179	1
49	53	1
15	16	4
0	1	1
30	30	6
128	128	7
39	39	4
126	126	4
156	157	6
2	2	10
51	60	1
160	162	1
35	40	1
141	142	3
1	1	4
37	42	3
131	147	1
78	94	2
171	175	1
176	176	4
138	180	2
104	105	2
87	88	1
100	100	4
128	129	2
19	30	1
102	139	1
7	8	1
14	25	1
160	161	1
131	131	2
59	61	1
163	168	1
22	22	7
106	107	1
105	106	1
10	15	1
78	108	2
38	39	2
136	136	3
6	7	1
65	72	1
140	155	1
88	91	1
118	124	1
113	113	3
80	80	4
28	35	1
25	25	1
127	128	3
9	35	1
5	17	2
65	66	2
95	114	1
33	35	1
126	151	1
121	127	1
92	98	1
38	38	5
115	126	1
118	126	1
81	111	1
61	65	1
18	62	1
79	89	1
153	161	1
101	101	3
145	164	1
60	60	1
154	154	4
120	123	1
27	38	1
117	119	1
110	121	1
120	131	1
26	27	4
11	20	1
91	91	4
12	15	3
16	17	2
119	121	1
29	30	1
113	114	1
35	37	1
178	179	1
89	107	1
123	130	2
167	170	1
91	112	1
148	159	1
3	5	1
124	124	4
34	35	3
59	59	4
167	176	1
139	140	1
41	44	1
98	147	1
98	99	1
180	180	3
89	89	4
72	73	1
145	147	1
56	56	2
108	109	1
133	134	1
52	56	1
126	130	1
49	50	2
64	77	1
28	28	5
27	28	2
20	20	3
27	30	1
150	168	1
135	148	1
61	68	1
10	14	2
143	144	1
21	23	2
80	111	1
71	73	1
96	118	1
12	30	1
89	95	1
36	59	1
28	32	2
56	81	1
31	35	1
53	54	3
82	85	1
122	133	1
153	168	2
52	55	1
8	31	1
6	12	1
73	88	1
173	175	1
25	30	1
32	33	1
18	31	1
119	119	5
81	87	1
131	134	1
0	3	1
11	14	2
6	16	1
80	154	2
125	141	1
79	180	1
22	25	1
81	88	1
77	83	1
20	28	1
168	174	1
158	160	1
162	167	1
117	125	1
86	144	1
28	40	1
112	114	1
147	160	1
128	145	1
59	86	1
18	26	2
19	29	1
39	43	1
16	28	1
68	68	1
23	26	1
29	177	1
34	39	1
99	100	1
92	105	1
123	132	1
164	164	4
95	100	1
67	77	2
157	177	1
133	143	1
93	97	1
171	172	2
138	139	1
84	101	1
103	103	2
169	170	1
4	7	1
78	78	4
114	115	1
108	114	1
110	124	1
74	75	2
155	156	1
123	128	3
44	63	1
7	23	1
138	150	1
131	133	1
32	32	2
101	150	1
133	168	1
175	177	1
23	24	1
172	175	1
76	82	1
28	31	1
90	91	1
90	92	1
95	112	1
85	86	2
62	75	1
136	149	1
17	20	2
118	119	1
113	121	1
107	108	1
1	6	1
102	112	1
123	124	1
163	170	2
17	31	1
117	128	1
147	151	1
116	129	2
134	135	1
10	99	1
81	90	1
77	85	1
111	128	1
81	93	1
5	11	1
76	77	1
152	153	2
172	174	1
98	100	2
81	94	1
60	72	2
115	116	2
2	53	1
54	56	1
160	160	2
7	10	1
14	52	1
124	125	2
54	134	1
28	38	1
95	98	1
140	143	1
15	28	1
6	8	1
103	111	2
32	34	3
46	169	1
11	15	1
138	144	1
12	13	1
80	98	1
55	56	1
88	90	3
87	91	1
160	167	1
6	10	1
151	152	1
79	79	3
99	99	3
74	78	1
140	142	1
30	31	1
145	176	1
30	35	1
78	172	1
77	89	1
84	84	1
61	90	1
4	18	1
29	41	1
92	99	1
139	145	2
147	150	1
112	115	1
121	137	2
24	25	1
5	31	1
94	103	1
27	31	1
115	145	1
103	106	1
72	134	3
24	26	1
51	64	1
134	142	1
65	79	1
158	161	2
25	43	1
80	135	1
11	13	1
78	79	2
143	147	1
66	77	1
102	114	1
25	26	1
57	59	1
96	98	1
42	43	1
18	19	1
103	105	1
154	159	1
86	87	1
106	106	2
85	90	1
95	134	1
110	139	1
177	179	2
153	157	1
36	159	1
2	6	1
165	169	1
4	8	1
157	158	1
18	27	1
135	140	1
30	34	1
149	154	1
50	53	1
40	41	2
133	133	2
79	81	1
124	129	1
18	22	1
144	161	1
8	21	1
104	115	1
74	122	1
31	42	1
130	140	1
39	65	1
119	124	1
35	45	1
168	173	1
5	28	1
77	102	1
116	121	1
114	119	1
137	143	1
140	151	1
107	110	1
106	116	1
14	54	1
91	94	1
2	4	1
44	45	1
26	28	1
14	34	1
18	21	1
164	165	1
5	29	1
117	171	1
21	24	1
107	114	1
16	56	1
54	54	1
32	37	1
43	45	1
64	64	1
65	74	2
11	23	1
144	156	1
8	14	1
82	86	1
135	135	1
16	37	1
8	16	1
30	43	1
153	178	1
166	170	1
26	45	2
87	90	1
131	136	1
1	5	1
17	17	1
118	131	1
141	159	1
87	92	1
96	141	1
124	133	1
162	166	1
162	172	1
30	61	1
137	144	1
137	153	1
85	97	1
80	82	1
149	171	1
103	104	2
153	167	1
56	66	1
151	156	1
78	89	1
160	169	1
70	70	1
9	10	1
104	133	1
111	117	1
128	159	1
107	137	1
33	36	1
105	107	1
26	41	1
51	51	1
85	102	1
92	96	1
82	106	1
79	102	1
28	29	1
