185	185	5
138	138	8
23	24	1
18	18	5
194	194	5
16	17	2
67	67	2
17	20	3
151	152	1
149	163	1
38	38	6
141	150	1
182	192	1
129	129	3
4	4	9
156	156	5
120	134	1
10	10	15
25	25	11
18	24	1
110	110	3
6	36	1
0	0	2
46	46	4
101	102	1
60	80	1
12	12	9
139	139	11
13	13	12
82	84	1
42	42	3
4	6	1
109	110	2
74	99	1
154	154	2
33	33	7
157	182	1
186	193	2
8	26	1
174	176	1
36	37	1
173	176	3
176	176	6
144	145	3
24	25	5
151	151	6
3	3	4
190	190	3
36	36	7
24	24	5
97	182	1
178	178	1
161	161	2
173	175	1
70	70	4
159	159	4
9	9	5
28	28	6
17	63	1
31	31	7
37	38	1
42	44	1
141	141	4
68	68	2
44	44	4
186	186	10
116	116	2
136	155	1
15	15	4
103	103	3
5	6	2
13	14	3
166	166	2
112	112	1
122	122	1
11	57	2
182	183	2
106	117	2
27	27	4
41	41	4
160	160	4
10	16	1
3	4	1
4	5	3
146	146	2
44	46	1
173	173	4
99	100	1
156	157	2
172	172	4
42	43	4
6	35	1
150	151	2
29	29	5
55	55	2
101	101	4
48	48	4
153	161	1
143	143	4
5	160	1
15	16	3
192	192	3
8	8	8
148	170	2
62	110	1
172	177	2
63	63	6
110	148	1
14	14	7
167	167	3
47	47	6
109	109	5
98	98	2
7	41	1
180	182	3
174	174	4
40	40	7
120	120	3
87	87	2
171	186	1
177	177	4
196	197	1
115	115	3
61	64	2
146	148	1
116	117	2
19	74	2
1	1	5
74	103	1
114	114	3
143	183	3
17	17	1
38	45	1
151	155	1
39	39	5
111	111	3
147	147	4
150	182	1
137	137	5
4	10	1
84	84	2
20	98	1
25	26	6
30	30	5
124	125	1
142	142	4
39	40	3
25	27	3
151	154	1
183	183	11
32	33	2
20	23	1
133	134	2
82	82	3
188	188	3
168	191	1
30	31	3
121	121	2
22	22	7
169	171	1
97	117	1
34	34	6
21	22	3
90	94	2
182	182	3
66	67	1
47	48	1
82	83	1
11	11	3
157	157	6
64	64	2
178	179	2
17	19	1
121	122	2
18	19	7
131	132	2
79	79	3
22	24	4
9	10	2
106	106	2
186	187	2
143	147	2
114	119	1
170	170	1
5	5	10
45	128	1
158	158	6
26	26	5
8	9	1
29	33	1
172	185	2
38	39	2
99	99	2
193	193	4
108	111	2
104	104	1
17	105	3
176	177	3
21	23	3
12	14	1
95	96	2
125	126	1
97	113	1
19	105	1
166	167	1
83	83	4
55	72	1
131	182	2
170	171	1
171	171	4
131	131	1
2	3	2
119	119	3
178	192	1
134	134	2
127	127	2
76	76	2
65	66	1
28	42	2
193	194	1
123	138	1
114	117	1
40	43	1
98	108	1
59	60	2
157	158	2
39	42	1
8	33	1
187	187	3
167	186	1
32	32	1
123	150	1
130	130	2
2	2	3
21	134	1
125	165	2
96	96	2
41	186	1
9	58	1
37	37	6
43	44	4
49	49	2
124	142	1
124	124	3
22	23	2
133	186	1
169	169	2
181	181	5
35	36	3
184	184	1
115	119	1
152	153	3
87	88	2
76	78	1
197	197	2
24	31	1
45	46	3
45	57	1
187	189	1
148	174	1
96	97	1
110	111	2
53	54	2
149	149	4
177	178	2
95	102	1
143	144	1
83	86	1
97	98	2
179	180	3
152	156	2
171	172	2
122	123	2
163	173	1
128	128	2
14	41	2
73	73	3
16	16	4
187	193	1
108	110	2
136	136	4
20	26	1
133	133	4
139	183	1
8	23	1
23	23	4
56	59	1
51	51	3
74	74	1
127	128	2
57	57	1
5	31	1
127	185	1
54	54	6
7	7	7
126	126	4
39	52	1
180	194	1
140	140	3
111	146	1
168	169	1
194	195	1
72	183	1
155	155	4
17	25	1
19	20	3
73	74	1
150	150	2
163	191	1
146	154	1
146	147	1
174	181	1
52	61	1
53	53	2
21	35	1
152	152	5
34	35	4
69	70	1
55	61	1
2	23	1
40	71	1
156	174	1
7	8	1
6	6	5
79	86	1
65	65	1
192	193	1
5	7	2
40	41	1
195	195	2
20	20	8
45	60	1
100	100	2
86	95	1
181	182	1
112	114	1
131	133	1
29	30	2
58	65	1
153	153	5
48	58	1
62	85	1
52	52	1
18	75	1
160	161	2
167	169	1
3	28	1
125	125	2
10	23	1
115	117	1
72	72	4
20	34	1
82	85	2
141	185	2
142	143	1
151	168	1
15	37	1
169	187	1
3	26	2
140	141	1
141	142	1
170	172	1
8	27	1
35	35	2
108	108	1
111	114	3
158	173	1
108	118	1
18	53	1
149	150	1
145	145	4
98	99	3
97	97	1
17	18	2
53	142	1
168	168	1
58	59	1
1	2	1
136	137	3
118	119	1
167	168	1
178	182	1
41	42	1
184	185	1
107	107	1
114	115	1
93	125	1
189	190	1
21	21	3
98	107	1
10	139	1
54	55	1
24	47	1
16	32	1
0	3	1
113	113	3
98	118	1
112	145	2
43	43	2
87	105	1
105	105	1
0	7	2
119	120	1
44	45	3
117	118	3
110	115	2
1	67	1
83	85	1
100	131	1
59	59	3
191	192	1
171	183	2
28	29	1
21	186	1
6	27	1
12	135	1
106	107	1
155	156	1
147	156	1
101	111	1
2	5	1
177	179	1
93	93	2
183	195	1
37	39	1
191	191	1
0	2	1
87	89	1
130	131	1
2	16	1
66	66	2
190	191	2
20	22	1
71	72	1
46	47	1
112	178	1
44	88	1
177	193	1
147	148	2
89	90	1
158	184	1
165	165	3
96	116	1
4	8	1
130	141	1
164	164	1
20	21	1
29	32	1
22	26	1
104	105	1
181	191	1
85	85	1
112	131	1
99	106	1
6	7	2
77	77	1
115	116	1
19	19	2
52	53	1
180	181	2
45	45	2
3	5	1
3	7	1
189	189	2
187	191	1
136	171	1
188	192	1
15	33	1
78	79	1
153	154	1
180	180	1
58	58	2
135	135	1
11	12	1
15	141	1
169	185	1
64	66	1
89	89	1
39	44	1
134	135	1
1	63	1
162	162	1
102	103	1
15	101	1
86	86	1
67	68	2
24	34	1
189	191	1
101	119	1
175	192	1
14	55	1
5	25	1
21	193	1
184	196	1
85	86	1
69	137	1
7	25	1
9	15	1
105	108	1
51	52	1
130	132	1
69	69	1
95	95	1
14	40	1
40	42	1
147	159	1
33	48	1
