11	11	11
20	20	4
68	68	8
4	9	1
71	71	2
93	93	5
134	135	4
127	127	6
133	133	7
74	74	5
1	1	6
16	16	4
126	130	1
41	41	10
52	97	1
81	102	1
57	58	3
98	98	5
97	97	5
62	62	6
128	128	3
66	66	7
26	27	3
96	97	2
142	143	1
48	48	5
99	99	4
0	28	2
130	130	7
119	121	1
51	51	3
75	75	6
10	10	4
100	100	2
114	114	9
59	80	1
141	142	4
59	66	1
107	107	4
101	102	2
68	69	1
88	88	4
15	15	2
17	47	1
91	91	10
66	67	1
0	20	1
24	25	2
130	131	4
53	53	4
119	120	2
89	89	4
94	94	2
131	131	9
64	65	2
3	3	1
114	116	2
9	9	5
55	55	3
18	18	4
109	119	1
14	15	3
120	123	3
85	85	3
138	140	1
103	104	2
136	136	7
87	87	4
83	105	1
113	114	2
145	145	5
71	72	2
88	89	1
23	23	17
140	140	3
137	138	3
23	38	2
22	22	9
19	22	1
32	33	1
6	12	1
121	122	1
104	104	2
77	78	1
58	59	6
86	110	1
129	129	7
103	105	2
78	79	1
73	104	1
17	17	5
119	119	7
26	37	1
34	34	5
60	60	2
19	19	4
121	121	1
4	4	2
49	49	3
63	65	2
136	138	3
79	80	3
67	81	1
145	146	1
6	15	2
120	120	3
92	92	7
124	124	6
85	89	1
84	84	8
106	106	4
59	59	4
4	5	2
108	108	7
118	118	3
30	33	2
128	133	1
143	143	7
21	21	3
134	136	1
102	102	8
14	14	2
11	61	1
107	109	2
138	138	3
56	57	2
95	96	2
124	134	2
128	129	3
126	126	6
116	116	4
90	91	2
67	103	2
28	30	1
50	77	2
56	56	1
82	82	4
111	114	1
38	38	6
118	140	1
16	17	2
48	57	1
115	115	1
115	128	1
80	80	8
74	80	1
84	85	1
111	140	1
82	84	1
110	131	1
41	42	1
8	9	1
61	61	3
6	6	1
137	137	2
26	26	2
117	117	3
112	114	1
34	36	1
8	8	7
146	146	1
27	27	7
39	39	3
59	61	1
28	28	4
64	64	2
1	22	1
30	31	2
96	98	1
76	76	5
47	48	2
66	75	1
30	37	1
36	36	2
101	117	1
108	109	2
109	111	2
74	75	2
79	79	4
15	16	2
106	107	1
80	82	1
144	144	6
0	0	5
96	124	1
27	61	1
86	86	3
31	32	3
33	36	1
93	94	4
32	32	4
69	69	3
132	132	3
50	50	2
141	141	7
95	95	7
17	25	1
88	110	1
30	34	2
131	134	1
50	51	4
24	24	3
33	91	1
94	95	2
64	69	1
29	29	6
18	21	2
89	92	1
113	115	2
125	125	2
58	58	5
54	73	1
42	43	1
142	142	3
67	140	1
126	128	3
121	123	2
49	50	3
42	42	5
52	82	2
16	20	1
97	116	1
85	104	1
40	56	1
67	91	1
111	113	2
55	98	1
101	101	3
135	135	2
88	90	1
67	68	2
5	5	4
105	105	7
25	25	2
17	36	2
98	123	1
128	130	2
57	60	1
9	63	1
116	117	1
11	54	1
65	69	2
135	138	1
93	95	1
54	63	1
112	113	2
38	56	1
77	77	2
18	19	1
92	93	2
12	31	1
116	124	2
51	52	1
33	34	1
82	83	1
67	69	1
81	95	1
99	124	1
63	63	5
22	37	1
37	37	3
122	136	1
74	96	1
100	124	1
58	60	1
111	111	2
104	110	1
74	103	1
78	78	1
92	94	1
20	24	1
113	113	4
70	88	1
127	128	1
139	139	1
40	40	3
96	96	3
76	77	1
106	108	1
69	117	1
75	78	3
124	141	1
111	112	2
124	125	2
122	123	1
77	80	1
30	30	5
50	65	1
139	140	1
101	141	1
33	41	2
116	130	1
28	140	1
52	52	2
121	132	2
117	118	1
13	16	1
96	105	1
120	134	1
137	139	1
65	65	2
72	72	4
110	111	1
136	140	1
103	103	5
112	112	1
67	67	4
125	128	1
37	48	2
3	4	1
48	52	2
66	107	2
78	140	1
35	35	3
91	104	1
69	80	1
87	90	3
25	38	1
54	54	2
98	99	2
50	85	2
138	139	1
2	2	4
72	122	1
52	75	1
8	17	1
1	142	1
110	129	1
109	110	2
81	81	2
115	116	1
13	13	1
47	47	1
13	14	1
136	137	2
33	33	1
72	106	1
91	128	1
80	81	2
140	141	1
9	41	1
134	134	2
38	40	1
58	75	1
127	134	2
132	135	1
21	29	1
90	90	3
36	43	1
37	38	1
59	60	1
99	101	1
123	123	3
1	8	1
36	37	2
59	90	1
66	98	1
12	38	1
55	56	1
9	10	1
17	18	4
9	37	1
38	41	1
116	118	1
117	129	1
81	83	1
66	69	1
83	83	1
2	4	3
124	126	1
61	62	2
131	140	1
19	33	1
70	70	2
135	136	1
3	38	1
90	106	1
48	53	1
122	122	1
31	33	1
118	119	1
96	101	1
79	83	1
26	54	1
19	34	1
2	25	1
126	131	1
97	109	1
128	135	1
23	40	1
53	64	1
1	23	1
22	23	1
86	129	1
12	95	1
73	79	1
19	56	1
60	62	1
94	104	1
8	11	1
97	98	1
116	132	1
64	66	1
114	117	1
87	88	1
97	105	1
31	31	1
110	126	1
25	53	1
43	43	2
110	130	1
6	9	1
27	37	1
10	92	1
56	62	1
29	145	1
10	38	1
91	94	1
143	144	1
22	38	1
62	112	1
73	100	1
123	135	1
57	57	1
91	92	1
20	21	1
29	30	1
60	85	1
37	41	1
73	73	1
110	112	1
