101	101	1
6	6	7
10	11	4
16	16	2
108	108	4
129	129	3
5	6	3
102	102	5
117	117	4
119	119	2
23	31	1
59	59	2
78	105	1
111	111	7
68	69	2
94	94	5
3	3	4
18	18	9
30	30	1
82	82	6
15	16	4
74	74	3
63	63	4
38	38	1
4	5	2
12	12	4
83	83	2
32	32	7
87	87	2
40	40	3
47	47	4
127	128	3
132	132	1
77	78	1
0	0	4
19	19	5
105	106	2
17	17	5
75	75	3
106	124	1
27	27	2
11	11	4
76	77	1
27	116	1
81	82	1
69	69	5
110	116	2
134	134	5
128	128	4
44	44	6
12	13	2
88	88	2
77	77	7
37	39	1
46	46	6
78	78	2
94	95	4
14	14	4
118	118	4
87	88	1
23	24	4
33	33	5
133	133	6
72	72	4
71	72	2
57	57	7
89	90	1
58	58	6
72	73	1
115	115	2
24	94	1
126	127	1
71	71	2
98	100	2
118	119	1
82	84	2
41	41	1
9	15	1
81	81	2
113	121	1
83	85	1
122	122	3
112	113	2
38	39	3
117	118	1
107	107	4
104	104	3
85	85	5
100	101	1
74	75	2
70	71	1
8	25	3
25	29	1
39	39	3
86	86	6
61	61	2
36	36	2
110	110	3
72	75	1
20	20	9
81	84	1
96	96	3
34	34	1
129	130	1
64	64	1
66	66	1
125	125	5
14	15	1
8	98	1
99	99	1
97	99	1
109	113	1
120	120	3
4	20	3
29	29	4
84	84	3
106	106	2
23	23	1
113	116	2
51	54	1
100	100	1
0	64	1
127	129	2
91	92	1
131	132	1
131	133	1
109	123	1
8	8	2
89	89	1
123	123	3
44	57	2
92	124	1
13	13	2
98	99	2
1	1	3
113	113	6
85	92	1
82	86	1
105	107	1
45	45	1
42	42	2
25	25	1
116	117	1
48	48	3
35	36	1
94	101	1
92	93	2
88	97	1
90	90	2
60	60	4
112	112	3
84	85	1
9	9	4
35	35	4
30	31	2
45	47	2
28	28	3
45	46	1
19	20	1
57	59	2
14	94	1
16	18	1
62	62	2
68	68	1
103	108	1
33	34	1
124	124	2
20	48	2
1	117	1
33	35	1
111	113	2
95	95	3
41	88	2
10	10	3
79	79	3
8	10	1
126	131	1
27	29	2
2	2	4
125	126	1
96	97	1
85	86	2
24	24	3
111	133	1
56	57	1
83	84	1
14	20	1
83	111	2
107	123	3
93	93	4
20	21	1
18	19	1
43	64	1
60	61	3
76	76	7
78	118	1
78	86	1
21	21	1
76	85	2
126	126	3
132	133	1
107	119	1
27	85	1
6	42	1
91	91	3
5	5	1
22	22	1
93	104	1
82	83	2
121	121	2
9	16	1
1	2	1
13	113	2
50	50	1
104	105	2
24	26	1
7	41	1
83	87	1
78	108	1
17	18	1
2	113	1
19	43	1
97	98	1
101	104	1
2	112	1
36	39	1
26	26	1
93	103	1
43	43	1
97	97	2
61	62	1
14	44	1
20	85	1
27	28	1
13	14	1
33	66	1
13	38	1
114	116	1
65	65	1
56	56	1
88	101	1
73	73	1
116	116	2
9	11	1
