30	30	6
73	73	2
43	90	1
93	106	3
139	139	1
75	79	1
133	133	3
22	22	1
108	135	1
95	95	1
56	90	1
33	33	3
109	109	1
1	125	1
127	127	1
16	16	3
21	21	3
82	93	2
23	33	1
69	69	3
9	10	3
29	29	5
80	82	1
144	145	1
118	118	2
96	96	2
108	128	1
142	142	3
27	27	2
41	41	2
140	140	1
13	13	2
71	71	1
57	57	1
26	26	3
99	129	1
59	60	2
14	33	1
55	56	1
35	36	2
90	91	2
8	9	2
56	101	1
28	35	1
64	68	1
124	124	4
18	18	1
34	35	2
120	136	1
1	126	2
122	122	2
74	74	1
99	100	1
74	82	2
132	132	4
4	5	1
112	112	1
104	104	1
22	28	1
80	80	2
91	91	1
10	10	4
70	70	2
100	101	1
134	134	3
128	130	1
40	40	2
58	59	1
102	103	1
28	37	1
141	141	4
81	135	1
48	48	1
31	31	2
3	4	1
144	144	1
146	146	1
128	129	3
33	85	1
41	42	1
90	90	1
119	119	4
130	130	1
131	133	1
87	87	1
84	84	2
137	137	1
92	92	2
89	89	1
53	53	4
42	48	1
36	86	1
35	35	2
4	4	1
59	80	1
8	26	1
99	108	1
139	140	1
64	110	1
42	42	3
13	14	1
56	56	2
135	135	3
145	146	1
95	96	1
11	11	1
67	74	1
76	77	1
110	110	3
61	61	2
125	125	1
39	39	1
33	36	2
62	63	1
49	50	1
26	85	1
123	124	1
138	146	1
94	111	1
36	36	1
98	98	2
126	126	1
141	143	1
91	112	1
28	67	2
68	71	2
88	89	1
96	119	1
28	38	1
127	128	2
89	90	2
6	23	1
3	3	1
58	66	1
116	116	1
38	42	1
111	111	1
28	28	1
105	106	1
77	77	1
91	121	1
10	11	1
49	49	1
112	115	2
110	111	1
37	37	1
133	135	1
19	19	1
123	123	1
42	126	1
55	75	1
102	102	3
92	109	1
123	131	1
101	101	1
115	115	1
11	49	1
32	32	3
14	14	1
67	68	2
77	78	1
32	35	1
34	34	2
115	116	1
117	118	1
20	20	1
47	47	1
132	139	1
130	131	1
105	107	1
62	79	1
88	121	1
72	100	1
108	108	1
12	13	1
83	85	1
24	25	1
93	114	1
31	33	1
132	133	1
15	15	1
26	27	1
102	131	1
38	38	1
117	117	1
86	86	1
68	68	1
