88	115	3
118	159	3
101	101	4
97	97	4
56	80	1
116	150	3
111	111	8
1	2	2
96	96	3
152	152	2
107	111	2
173	173	2
131	132	1
50	50	2
84	86	1
54	56	2
15	15	8
165	165	1
98	101	1
77	77	4
7	7	9
77	78	3
22	22	1
168	168	3
107	109	2
163	163	3
66	66	3
41	41	5
92	92	1
159	159	4
11	27	2
163	164	1
54	54	1
140	167	1
29	29	2
85	85	4
58	59	1
1	1	2
134	135	3
10	28	1
20	20	1
2	2	2
87	87	6
65	65	6
119	119	5
32	34	1
43	43	2
145	160	3
139	139	7
19	23	1
57	57	2
81	81	3
103	103	7
40	40	1
61	61	4
130	130	1
92	93	2
164	165	2
107	107	1
167	167	2
107	108	2
60	60	1
43	94	1
75	75	5
108	109	1
179	179	4
59	59	4
141	173	3
129	129	2
133	134	2
31	31	6
166	167	3
16	16	3
83	83	2
137	138	3
38	38	7
95	96	1
64	65	1
132	132	3
63	63	6
17	35	2
73	74	1
153	153	3
121	174	1
152	160	1
163	167	1
92	94	1
105	106	1
143	144	3
102	111	2
25	26	1
172	172	3
67	67	2
10	10	3
39	39	5
6	6	6
5	5	4
123	123	2
150	150	5
135	171	2
151	152	2
5	126	1
68	68	4
82	82	3
49	51	1
125	125	5
8	8	7
133	133	1
145	158	1
57	83	2
58	58	3
79	79	3
143	143	5
51	51	1
65	153	1
176	176	7
144	145	1
38	143	1
5	6	4
162	162	6
21	21	3
160	161	1
25	34	1
42	43	1
102	102	2
16	17	3
147	147	11
77	141	2
98	98	2
117	117	3
28	128	2
105	105	2
59	84	1
79	80	1
166	166	1
114	115	2
33	86	1
40	41	1
160	160	6
21	22	1
88	88	3
158	160	1
31	106	2
5	148	1
62	63	1
141	141	2
156	167	2
157	158	2
125	126	1
140	141	1
145	145	3
55	55	4
38	141	1
34	34	2
155	156	2
133	141	1
36	37	3
99	99	3
84	84	3
131	131	3
169	169	2
87	90	2
117	118	2
0	0	1
35	35	5
137	137	2
148	148	4
172	173	4
118	119	3
158	171	2
147	154	1
134	134	2
27	27	2
72	72	3
41	42	2
13	14	1
174	174	3
33	33	5
114	116	1
156	157	1
45	46	1
106	106	1
51	52	1
32	32	3
140	169	1
15	128	1
146	146	2
94	95	2
147	148	3
39	41	1
56	56	2
88	118	1
162	163	3
52	53	3
144	144	5
4	4	3
76	76	1
23	23	1
155	155	4
14	14	5
104	104	2
37	37	4
4	32	1
117	119	2
12	111	1
8	11	1
106	107	1
16	127	1
24	24	2
156	156	2
50	62	1
90	90	3
139	140	1
14	16	1
34	93	1
85	87	1
109	126	1
94	94	3
158	158	5
122	131	2
149	149	3
74	74	2
63	90	1
104	106	1
14	71	1
54	55	2
180	180	3
13	13	1
42	42	6
170	171	3
44	44	3
73	73	2
13	15	2
159	162	3
36	129	1
178	179	1
11	11	3
177	177	1
175	175	1
78	78	1
134	169	1
55	56	1
135	136	1
171	171	6
63	152	1
30	30	1
17	17	2
5	156	1
11	15	1
144	160	1
9	9	2
123	124	2
9	27	1
110	111	3
109	109	2
59	60	2
144	151	2
27	28	1
126	126	1
121	121	3
53	53	2
12	12	2
118	118	4
112	112	2
11	18	2
50	51	2
85	86	1
6	9	1
122	133	1
26	27	2
116	117	1
15	16	1
128	128	1
103	104	1
32	145	1
6	31	1
124	124	1
66	80	2
124	146	1
33	97	1
126	131	1
113	113	1
154	154	2
56	88	1
32	33	1
131	133	1
23	24	1
17	18	2
157	170	1
64	64	1
102	147	1
127	131	1
97	98	1
52	52	3
92	101	1
157	157	3
100	100	1
174	176	2
108	108	2
136	139	2
3	4	1
178	178	2
83	84	1
174	175	1
158	159	1
168	171	1
34	55	2
127	127	1
98	99	1
76	78	1
72	73	1
12	17	1
6	150	1
57	89	1
89	97	1
114	114	3
122	122	2
127	128	2
96	151	1
141	150	1
74	75	1
95	95	2
50	52	1
118	143	1
148	170	1
8	9	1
102	103	1
86	86	2
12	160	1
11	42	1
71	76	1
98	100	1
168	169	1
51	65	1
87	89	1
61	62	1
132	169	1
27	128	1
66	67	1
10	36	1
107	146	1
74	76	1
93	93	2
162	170	1
145	146	1
136	136	1
71	141	1
37	39	1
59	90	1
45	45	1
82	86	1
53	54	1
131	154	1
103	105	1
79	81	1
71	71	1
135	135	2
64	96	1
70	70	1
109	163	1
9	15	1
154	163	1
82	104	1
76	77	1
138	138	1
62	96	1
7	157	1
159	169	1
135	157	1
90	111	1
140	140	1
67	151	1
