73	73	2
13	13	3
0	0	4
68	69	2
44	44	4
66	66	2
75	75	3
138	139	1
123	126	3
157	157	3
8	8	3
112	112	1
150	150	5
84	84	1
17	17	2
122	125	1
40	40	2
15	15	1
85	86	2
109	109	2
10	10	1
32	33	2
140	155	1
150	155	5
151	152	2
16	17	1
53	54	1
120	121	2
63	63	5
152	152	1
18	18	2
98	98	7
141	142	2
138	138	3
144	144	3
126	127	1
81	82	5
83	83	1
123	123	4
157	158	3
129	129	10
11	157	1
70	71	2
82	83	1
100	104	2
134	134	5
88	88	2
103	103	2
86	86	8
107	107	3
93	93	1
155	155	6
85	87	1
23	44	1
95	108	2
8	10	3
140	140	2
117	142	1
20	20	3
127	129	1
150	151	1
52	52	1
110	110	3
114	114	1
87	110	1
16	33	1
154	154	2
70	70	3
19	19	1
30	31	1
111	111	3
40	41	1
66	68	1
25	25	7
91	91	8
120	120	1
69	70	1
118	143	1
136	136	1
100	100	5
2	2	1
35	36	1
19	20	1
24	24	1
56	56	1
120	154	1
89	89	7
48	53	1
68	68	5
114	147	1
119	126	1
10	21	1
131	131	7
115	115	4
45	45	1
146	146	3
24	26	1
118	118	8
22	22	2
31	31	2
127	127	3
130	130	2
104	104	4
65	75	1
32	32	1
135	140	1
117	117	5
65	65	2
87	88	5
46	51	1
8	11	1
95	96	1
6	6	1
90	93	2
113	115	2
44	45	1
129	130	1
71	71	1
54	54	5
7	7	3
122	122	4
133	133	2
108	109	1
88	89	1
85	85	2
77	77	3
121	122	3
47	47	1
119	119	2
3	3	3
126	126	3
69	69	3
99	99	3
95	120	1
48	49	1
42	42	1
116	134	1
88	109	1
30	30	4
148	149	2
139	139	2
87	89	1
101	101	1
11	11	2
39	40	1
144	148	1
115	146	1
90	134	1
145	145	1
34	35	1
33	34	1
45	63	1
82	85	2
67	67	3
93	137	1
86	87	2
96	96	3
23	24	1
133	141	1
79	80	2
31	55	2
43	43	3
73	74	1
78	79	2
94	94	3
128	129	3
95	110	1
86	91	1
80	84	1
118	125	1
90	90	2
97	98	1
147	147	2
150	154	1
128	128	5
49	49	3
135	137	1
153	154	1
142	142	4
105	105	2
20	22	1
38	56	1
41	42	2
124	125	1
82	82	1
116	116	3
36	37	3
112	114	1
36	36	1
97	97	4
135	142	1
125	125	2
7	8	2
132	133	1
116	141	1
65	66	1
87	87	3
153	153	1
13	14	1
130	131	1
67	105	1
84	85	1
42	44	1
117	118	1
33	33	2
103	104	1
83	95	3
134	137	1
137	138	3
159	159	1
46	46	2
152	154	1
113	113	1
96	97	2
37	50	1
137	137	1
94	136	1
158	158	2
127	148	1
149	149	2
154	155	1
80	80	2
104	129	1
151	151	1
124	124	2
90	92	2
73	111	1
3	26	1
26	27	1
104	107	1
130	133	1
135	135	2
71	72	2
136	137	1
78	81	1
101	129	1
27	27	2
118	119	1
67	68	1
105	140	1
3	25	1
155	156	1
74	74	1
4	24	1
132	132	1
56	57	1
84	87	1
47	48	1
83	84	1
122	123	1
119	125	1
92	92	1
145	146	1
53	53	2
75	76	1
109	110	1
103	130	1
39	39	1
50	50	1
21	21	2
79	79	1
113	114	1
38	38	1
37	37	1
121	121	1
12	12	1
119	120	1
10	11	1
90	91	1
1	1	1
64	64	2
48	48	1
9	9	1
129	148	1
77	87	1
35	35	1
117	121	1
106	107	1
34	34	1
81	81	1
96	98	1
78	89	1
118	126	1
41	41	1
120	122	1
94	143	1
2	30	1
90	122	1
108	108	1
