48	48	2
34	34	5
209	209	5
140	141	4
96	97	1
219	223	2
138	138	3
115	117	1
150	161	2
171	203	1
219	219	6
39	39	6
13	13	8
107	109	3
66	66	3
127	128	4
122	127	4
117	118	3
14	14	5
11	12	5
197	197	4
157	158	1
66	67	2
232	232	6
2	2	5
80	80	3
161	161	4
17	17	6
199	199	5
177	177	10
155	162	2
128	128	10
213	213	6
74	74	7
225	227	2
82	82	5
47	47	8
221	221	4
184	185	6
156	156	6
217	218	3
63	169	1
170	170	4
134	134	5
36	42	2
61	61	5
7	7	9
78	79	3
221	222	3
103	105	2
164	164	5
42	179	1
102	120	1
173	176	3
179	180	2
65	66	1
120	120	6
28	239	1
133	135	1
196	196	2
206	231	2
178	178	8
106	106	4
177	178	5
148	148	2
156	157	3
216	216	7
65	65	5
105	105	6
185	185	2
142	143	5
149	172	2
107	108	6
150	151	4
84	174	1
222	222	2
238	238	3
28	29	2
1	167	2
169	169	8
21	54	2
48	49	1
130	133	3
16	16	3
173	173	5
101	101	5
171	172	3
227	227	1
35	35	1
172	173	3
3	3	2
159	159	1
30	43	2
121	123	1
174	175	6
139	142	2
98	100	2
151	164	1
116	116	4
124	127	1
99	99	3
228	228	2
180	180	4
139	158	1
135	135	5
158	158	4
24	25	2
226	227	1
157	191	2
194	195	1
40	40	3
73	73	3
235	236	1
181	187	1
231	232	1
31	31	3
191	193	1
32	32	3
144	144	6
63	63	3
104	125	1
171	171	7
147	147	3
148	149	2
72	72	2
180	182	2
96	112	1
182	182	10
29	29	1
2	34	3
170	172	1
36	36	2
135	149	1
42	42	4
156	186	1
143	143	3
187	187	10
127	127	5
123	123	4
32	37	2
44	44	3
133	138	2
98	231	1
214	214	5
42	168	1
18	18	4
16	42	2
3	42	1
9	62	1
130	130	3
197	198	1
84	84	6
54	54	3
122	122	2
164	208	1
40	41	4
65	67	1
59	59	3
188	188	7
115	115	4
239	239	4
118	124	1
115	126	3
1	33	1
86	87	3
152	152	3
155	155	4
167	168	2
149	149	7
106	109	1
10	55	1
50	50	6
230	231	3
38	39	2
1	1	3
46	134	1
58	60	1
117	117	4
5	5	7
113	113	7
155	157	5
32	45	3
12	12	3
79	80	2
182	187	1
157	157	4
74	75	1
73	96	2
55	55	5
155	156	5
133	134	3
193	195	2
154	155	1
150	159	1
60	60	6
229	229	2
172	172	6
11	13	1
156	181	1
137	137	6
22	22	3
21	22	3
76	137	1
19	21	1
212	212	1
62	63	1
152	156	2
137	138	2
175	175	6
60	61	1
69	69	8
212	213	1
60	176	1
176	176	9
203	203	3
29	31	2
182	183	2
19	19	1
166	187	1
45	232	1
49	49	2
234	234	4
39	220	1
163	168	2
39	195	1
157	194	1
208	209	1
59	60	1
234	235	1
187	188	1
24	24	2
2	3	2
67	67	4
165	166	5
15	33	2
202	202	3
237	240	1
191	208	1
168	169	1
63	100	2
101	102	2
163	163	2
78	81	1
147	154	1
34	35	4
166	166	4
56	56	7
95	96	1
80	86	3
136	137	1
139	139	4
68	68	3
1	217	1
231	231	3
23	157	1
129	143	1
225	225	5
165	165	4
181	182	3
119	119	7
1	166	1
240	240	5
51	51	1
33	33	1
121	122	1
236	236	3
132	187	1
58	70	2
129	130	2
135	169	1
178	209	2
114	118	1
119	122	2
81	81	2
141	142	6
174	180	1
120	127	1
169	170	3
179	179	3
109	109	4
111	111	4
181	181	1
208	208	1
100	100	5
47	179	1
182	185	3
154	154	10
105	127	1
86	86	1
108	108	3
37	38	3
140	166	1
117	179	1
48	53	1
119	120	1
4	4	4
112	112	1
153	153	7
18	160	1
122	149	1
41	41	5
149	159	2
52	53	2
166	167	6
136	163	1
71	72	2
152	167	1
208	220	1
162	163	1
133	140	2
139	141	2
49	222	1
115	116	1
170	171	2
73	86	1
4	5	3
0	33	1
174	174	6
110	110	1
216	217	1
76	82	1
26	26	6
37	42	1
102	102	6
225	226	2
192	193	1
7	12	1
141	151	1
186	187	1
6	6	8
103	103	1
3	165	1
46	64	1
53	54	2
37	58	1
144	166	1
208	210	1
206	232	1
9	9	3
62	62	5
108	109	2
107	107	6
9	15	2
184	186	1
148	159	1
39	55	1
220	221	1
186	186	7
125	125	4
144	146	3
28	28	4
99	137	2
78	78	1
183	183	3
189	189	2
166	195	1
129	133	3
43	43	5
27	27	4
114	114	4
6	149	1
150	155	1
64	67	2
124	130	2
37	37	6
35	50	1
59	72	1
157	159	1
151	151	3
126	127	1
118	119	1
185	186	3
142	147	1
167	167	3
83	83	4
23	23	1
20	20	1
64	69	1
52	52	1
240	241	1
15	16	2
127	136	1
8	11	1
62	172	1
10	10	2
57	57	2
56	59	1
5	7	1
77	77	5
33	36	2
161	162	1
144	147	2
104	104	4
31	238	1
198	198	3
121	121	5
105	122	1
13	21	1
70	70	4
171	176	2
120	172	1
84	85	1
150	150	4
160	160	3
26	233	1
163	199	1
146	148	1
15	21	1
37	85	1
97	98	1
109	128	1
75	75	5
210	210	1
162	162	4
42	54	1
210	211	3
84	95	1
97	97	5
156	176	1
9	37	1
11	11	3
78	96	1
16	39	1
180	181	2
190	190	2
14	179	1
67	68	1
142	142	5
16	32	1
140	140	1
206	206	6
41	224	1
123	126	2
163	164	1
85	85	5
224	224	4
200	200	2
56	60	1
10	199	1
165	186	1
201	201	1
8	47	1
30	30	3
50	52	1
57	58	2
205	205	1
5	6	2
118	127	1
54	55	2
157	192	1
191	191	2
189	190	2
15	15	3
86	128	1
133	144	1
168	184	1
46	47	2
209	220	1
135	174	1
153	154	1
79	83	1
149	150	3
178	183	1
2	205	2
1	191	1
236	237	1
60	66	1
114	117	1
127	129	2
45	161	1
124	125	2
47	55	1
38	128	1
121	127	1
106	128	1
131	131	2
153	155	1
124	126	1
4	6	1
76	77	1
27	232	2
38	38	2
223	223	2
104	105	1
124	124	1
6	7	4
64	238	1
190	191	3
67	107	1
29	47	1
114	158	1
27	240	1
71	71	2
168	168	2
95	95	1
145	146	1
186	189	2
158	189	1
238	239	1
30	31	2
8	10	1
154	185	1
45	45	5
142	148	1
55	84	1
147	149	1
8	29	1
12	16	1
136	179	1
98	98	1
181	185	1
1	214	1
171	175	1
40	195	1
216	226	1
80	83	2
45	46	1
136	174	1
134	135	2
14	21	1
153	160	2
64	217	2
171	174	1
80	82	1
145	167	1
53	53	2
135	136	1
0	1	1
55	56	1
66	84	1
184	184	1
129	129	3
164	165	3
79	79	5
8	21	1
114	148	1
1	3	1
0	6	1
192	192	3
220	223	1
160	183	1
195	197	1
106	108	2
73	234	1
227	228	2
137	139	1
138	163	1
76	76	3
211	211	2
8	8	2
165	167	2
114	150	1
21	21	2
14	36	1
96	96	2
163	209	1
226	229	1
33	231	1
118	118	1
209	210	2
152	157	1
17	23	1
62	68	1
125	127	1
230	230	1
60	107	1
223	226	1
109	111	1
51	104	2
61	62	1
46	231	1
62	65	1
160	161	2
153	169	1
81	83	1
141	141	2
103	104	1
18	19	1
82	150	1
111	172	1
58	174	1
193	193	2
98	99	1
7	9	2
46	46	2
180	183	1
88	238	1
195	196	1
21	23	1
11	24	1
176	191	1
109	129	1
128	152	1
75	76	1
138	203	2
234	236	1
111	112	1
152	153	1
64	64	1
52	57	1
58	58	1
133	133	2
168	177	1
182	192	2
109	118	1
36	37	3
109	119	1
29	30	1
116	125	1
82	84	1
207	228	1
24	60	1
193	194	1
122	128	1
136	136	2
76	79	1
186	188	1
62	64	1
10	11	1
221	223	2
25	25	2
57	59	1
99	100	1
12	19	1
215	216	1
88	231	1
38	171	1
130	159	1
159	160	1
35	36	1
141	143	1
73	235	1
62	237	2
54	60	1
224	225	1
161	166	1
17	18	2
149	163	1
237	238	2
135	158	1
114	143	1
146	165	1
53	56	1
221	229	1
209	224	1
140	179	2
11	16	1
10	15	1
125	126	1
218	232	1
120	121	2
27	28	1
68	69	2
179	200	2
146	147	1
153	157	1
233	236	1
11	64	1
65	68	1
89	89	1
22	23	1
138	139	1
147	148	2
179	181	1
30	238	1
179	198	1
30	38	1
42	43	1
88	99	1
0	58	1
127	133	1
170	203	1
135	175	1
169	191	1
27	239	1
102	113	1
233	233	1
45	61	1
0	0	1
162	164	1
204	204	1
101	236	1
32	43	1
107	125	1
198	199	1
122	123	1
2	229	1
198	200	1
175	176	1
150	170	1
16	21	1
209	228	1
196	197	1
191	192	1
195	195	1
64	65	1
118	150	1
3	7	1
188	190	1
12	15	1
152	168	1
30	103	1
146	157	1
