40	40	8
134	137	3
97	120	2
145	147	2
57	88	1
22	23	5
152	152	9
171	173	1
129	129	3
144	144	1
120	120	8
118	118	2
143	143	3
89	100	1
55	55	3
125	125	4
183	187	1
108	112	2
166	166	2
71	72	1
39	40	4
6	8	3
87	87	7
112	113	1
146	146	2
38	38	1
136	175	1
74	74	5
162	162	4
148	148	3
172	172	1
134	134	6
119	119	3
156	156	4
82	82	4
10	30	1
16	16	4
183	183	5
94	94	2
14	14	3
96	118	1
88	89	3
155	157	1
79	79	6
141	154	1
48	54	2
163	164	2
53	67	1
133	134	2
129	135	1
48	48	6
9	9	1
130	139	1
59	108	1
29	30	2
168	169	2
140	147	1
15	15	4
176	176	7
17	19	1
126	127	2
167	167	5
138	139	1
11	11	3
134	151	1
68	68	3
78	78	1
159	159	4
43	43	1
123	124	1
114	115	3
57	57	1
160	164	2
116	117	1
60	62	1
149	149	3
154	155	3
23	31	1
128	152	1
7	8	1
184	184	3
145	146	1
45	45	2
115	117	3
173	173	1
148	150	3
67	67	2
123	190	1
55	56	4
164	164	2
87	88	4
60	60	4
168	168	5
166	175	3
14	16	1
21	21	4
9	10	1
53	53	2
188	188	3
139	141	1
59	62	1
123	127	2
116	118	1
101	103	2
135	135	3
18	20	3
82	83	2
105	105	1
26	26	3
141	167	2
85	85	3
97	98	1
170	175	1
108	108	4
101	101	2
77	77	3
180	180	2
104	105	2
23	33	3
149	190	1
103	103	7
158	181	1
186	186	4
22	27	1
164	184	1
63	64	2
150	150	2
25	39	1
34	35	2
184	185	3
10	10	4
72	73	1
100	100	2
124	127	1
8	170	1
154	164	1
68	161	1
10	26	1
2	2	4
185	185	2
169	169	1
151	151	3
121	121	1
84	114	1
99	100	2
182	188	1
139	142	1
65	65	2
182	183	1
96	97	2
58	59	2
116	116	2
17	17	5
155	181	1
98	98	1
109	111	3
164	183	1
114	114	4
135	136	3
32	33	2
131	133	3
95	98	2
130	130	2
64	66	2
7	7	1
116	149	2
80	80	1
181	181	2
171	171	2
95	96	3
13	13	2
117	117	2
95	95	2
111	142	1
33	37	1
101	118	1
99	99	3
29	31	1
52	52	3
88	122	1
36	36	2
92	92	1
54	61	3
4	4	4
15	33	1
91	91	2
8	16	1
176	177	2
37	37	6
164	165	5
111	112	1
44	44	2
180	188	1
76	77	1
19	60	1
49	64	2
19	20	3
167	169	1
178	178	2
134	138	1
62	62	1
4	5	2
173	174	1
6	6	3
14	15	1
136	137	2
89	111	1
154	154	4
111	113	1
12	13	1
157	157	3
131	131	1
181	182	3
74	103	1
97	116	1
42	73	1
96	115	2
140	141	1
74	77	2
174	175	1
155	183	1
154	178	1
157	158	1
5	5	3
90	90	3
169	170	1
25	32	1
15	34	1
56	119	1
179	179	4
143	187	1
152	153	2
116	148	1
110	141	1
73	129	1
133	133	2
111	111	3
129	131	2
150	151	1
105	106	2
189	189	2
55	145	1
12	174	1
88	88	1
123	123	5
103	129	1
139	140	1
141	143	1
156	159	1
101	114	1
75	78	1
122	122	3
123	128	1
71	96	1
129	140	1
56	72	1
59	60	1
21	46	1
21	22	3
16	47	2
56	64	1
115	118	2
75	75	4
96	96	2
144	147	1
76	76	2
158	158	3
180	181	1
64	64	1
143	177	1
24	25	1
152	187	3
140	149	1
84	84	3
147	147	1
83	83	4
34	34	2
39	39	3
139	139	2
136	136	3
166	168	1
22	24	1
32	32	2
61	62	3
113	113	3
107	112	1
20	20	3
166	167	1
93	93	4
83	84	3
18	18	1
113	120	1
17	18	1
115	119	1
29	29	2
107	108	1
128	128	2
47	47	1
67	115	2
100	107	1
8	24	1
153	153	4
87	114	1
148	183	1
81	81	2
100	102	1
57	58	1
119	120	1
120	121	2
101	102	1
109	109	4
170	170	4
23	45	1
73	73	1
14	25	2
29	34	1
19	62	1
1	1	3
8	8	2
32	34	1
68	101	1
2	3	1
109	116	1
155	155	3
131	132	1
17	20	1
190	190	2
77	84	1
69	69	1
38	52	2
85	86	1
0	0	3
160	162	1
17	26	1
143	144	1
10	70	2
106	106	2
12	12	1
54	55	1
175	175	1
71	92	1
104	104	1
153	154	2
165	165	3
105	133	1
122	126	1
2	39	1
178	181	1
172	173	2
72	72	3
77	78	2
22	22	2
145	145	1
146	190	1
132	132	1
102	103	3
11	34	1
187	188	1
87	116	1
35	35	1
84	144	1
81	103	1
11	21	2
89	128	1
62	98	1
22	58	1
74	149	1
61	61	2
137	137	3
134	135	1
174	174	2
58	58	2
8	40	1
84	85	2
16	17	1
13	15	1
96	106	1
133	139	1
113	123	1
102	102	1
42	47	1
45	46	1
159	182	1
138	138	1
43	108	1
11	22	1
149	180	1
6	7	1
159	170	1
58	60	1
165	188	1
28	28	1
25	26	2
41	41	2
19	19	3
5	6	2
100	152	1
107	107	1
5	23	1
126	128	1
135	138	1
71	73	1
176	180	1
3	3	1
107	113	1
24	24	1
25	40	1
74	109	2
3	38	1
133	183	1
167	170	1
132	142	1
109	124	1
10	12	1
96	98	1
42	42	1
100	113	1
52	53	2
119	170	1
112	112	1
187	187	1
182	182	1
155	169	1
89	92	1
142	144	1
75	77	1
178	179	2
153	190	1
79	86	1
177	177	1
36	43	1
156	158	1
61	76	1
41	42	1
151	161	1
127	127	1
188	190	1
