7	7	5
36	36	7
37	37	3
114	115	2
116	116	6
127	127	10
50	51	2
156	156	4
50	50	5
138	157	1
133	135	1
105	105	6
131	132	2
149	150	1
12	13	2
122	143	1
73	73	5
134	134	7
93	94	3
118	119	1
106	106	6
122	122	5
112	112	7
5	5	4
137	137	4
146	147	2
122	123	1
35	134	1
68	131	1
90	91	1
132	132	5
94	94	4
108	108	5
119	119	4
10	11	4
148	148	3
159	159	2
130	130	3
6	112	1
3	3	5
140	141	4
139	149	1
158	159	1
132	133	3
148	149	1
111	111	10
111	114	3
75	75	7
151	151	7
85	85	3
124	124	3
46	48	1
152	152	6
138	138	7
89	89	2
90	90	1
39	109	1
88	88	2
70	70	4
0	1	3
120	120	8
22	22	6
20	20	2
44	44	2
41	41	3
24	24	1
138	139	4
73	74	1
35	35	2
77	88	1
78	79	2
150	150	8
38	116	1
157	157	9
136	138	1
28	28	4
40	41	4
139	139	5
46	70	2
126	126	6
71	71	3
34	34	4
99	99	7
133	133	3
129	135	1
83	83	1
127	145	2
86	86	5
53	55	2
31	110	1
30	30	2
129	130	2
5	23	1
42	43	2
78	78	2
79	96	2
12	12	1
107	111	1
157	158	1
81	81	1
31	31	5
123	123	4
140	154	1
149	156	1
121	121	6
141	141	1
135	135	3
100	100	8
69	69	4
92	92	7
142	142	2
75	106	1
119	130	1
142	143	1
158	158	6
140	156	1
119	120	1
129	129	7
127	128	2
132	151	1
11	11	3
118	118	1
110	111	2
7	139	1
21	21	3
30	35	1
2	2	6
13	15	1
40	43	1
77	106	2
108	109	2
87	87	3
84	86	1
9	11	1
153	153	9
153	154	3
107	107	4
46	46	4
19	19	5
154	154	2
42	42	2
95	95	3
9	10	1
18	18	2
95	97	2
103	111	1
13	13	3
149	149	6
64	64	2
101	154	1
0	3	1
151	155	1
17	17	2
36	45	1
108	123	1
4	28	3
8	8	4
125	126	2
105	107	1
77	77	4
57	57	1
134	141	3
130	131	3
39	39	6
140	140	1
23	23	3
36	37	1
29	29	3
98	100	1
113	117	1
110	110	2
67	67	2
101	101	3
32	32	4
89	90	1
1	2	1
54	54	2
131	131	4
94	95	1
109	109	2
36	51	1
89	112	1
128	128	5
143	153	1
80	124	1
98	98	2
5	27	1
53	53	1
14	14	3
113	116	1
90	93	1
86	87	2
122	141	1
33	34	3
39	42	1
55	55	3
145	145	5
111	116	3
65	66	1
49	50	1
117	121	2
131	148	1
133	139	1
80	80	2
110	114	2
147	153	1
25	67	1
7	8	1
123	126	2
105	106	2
29	30	1
152	155	1
68	69	2
123	124	2
120	155	1
121	122	2
76	92	1
27	30	1
125	125	1
128	129	1
110	134	1
44	50	1
107	108	2
65	65	3
108	142	1
36	139	1
87	88	1
47	47	1
102	105	1
33	46	1
39	41	1
72	72	1
26	28	2
93	93	3
38	38	1
4	6	1
88	95	1
132	154	1
2	3	1
43	43	1
16	16	2
104	105	3
152	153	1
2	4	2
9	9	1
76	112	1
26	26	1
111	112	2
113	113	1
103	103	2
49	53	1
97	158	1
143	143	2
101	103	1
28	29	1
106	107	2
110	115	1
80	129	1
104	104	2
138	150	1
25	26	2
91	91	2
147	147	1
0	0	3
88	89	1
57	62	1
10	10	2
101	135	1
66	66	2
40	40	2
115	115	3
110	112	1
93	97	1
15	15	1
3	28	1
54	55	1
56	56	1
77	86	1
75	103	1
69	104	1
67	69	1
73	95	1
151	152	1
150	156	1
137	138	1
118	120	1
112	133	1
51	54	2
114	114	1
18	19	1
144	147	1
155	155	2
134	136	1
95	96	1
46	47	1
107	112	1
113	114	1
20	21	2
34	101	1
99	158	1
51	51	1
26	31	1
81	82	1
90	143	1
47	48	1
110	138	1
1	1	1
13	14	1
39	40	1
144	144	1
25	103	1
87	118	1
