135	137	1
23	23	5
72	73	1
71	72	3
126	142	1
125	125	1
142	142	6
0	0	2
14	45	1
94	94	1
120	120	3
61	64	1
75	76	1
126	126	2
173	173	5
104	104	6
139	139	8
70	79	1
88	88	2
111	111	1
80	80	2
178	178	2
27	28	1
33	33	6
113	114	3
150	150	8
38	38	4
13	14	1
96	96	4
154	154	9
2	2	4
90	91	2
32	137	2
104	106	2
128	128	3
145	145	4
4	4	6
129	129	2
140	146	1
134	134	5
116	116	3
13	13	4
151	151	4
105	140	1
141	141	7
91	91	3
14	14	2
146	147	1
115	115	4
171	171	6
11	11	2
39	39	5
138	138	2
30	31	1
78	80	2
68	72	1
10	14	1
128	145	1
131	131	2
170	170	5
62	63	2
163	170	1
179	179	10
37	39	1
92	92	4
130	130	5
157	158	2
30	30	2
91	97	1
6	6	3
108	108	3
151	156	1
117	117	5
130	169	2
169	169	7
50	160	1
127	166	1
24	24	3
77	78	2
18	19	3
89	89	4
40	40	6
8	9	1
168	168	1
40	41	2
118	118	3
150	172	1
83	84	1
140	140	4
77	77	2
127	169	1
79	79	2
9	9	4
68	68	6
103	103	2
162	162	3
164	164	3
93	93	2
92	94	2
96	97	1
71	178	1
168	169	1
150	157	1
17	28	1
43	43	2
57	57	4
119	120	2
119	119	5
21	38	1
100	101	3
50	51	1
5	5	2
65	65	2
50	118	2
73	73	6
138	139	1
8	8	5
15	15	4
153	153	3
77	133	1
174	174	9
124	125	3
148	149	1
21	21	4
16	16	2
136	136	3
127	148	1
39	51	1
81	81	2
76	76	5
95	95	2
53	54	1
76	172	1
42	42	5
149	149	2
22	22	1
103	106	1
158	158	5
62	62	1
55	55	4
128	129	1
165	166	3
165	165	2
110	110	2
75	75	3
1	79	1
167	167	2
134	148	1
32	45	1
114	116	1
10	10	6
39	40	3
77	154	1
17	21	1
122	122	2
60	60	4
100	100	2
107	111	1
91	93	2
115	119	1
101	101	1
86	86	1
31	32	3
72	72	3
4	14	1
158	159	2
176	176	3
142	143	2
97	97	1
85	88	1
154	157	1
121	121	4
29	29	5
109	109	2
121	123	1
32	32	2
44	44	4
56	56	2
150	154	1
132	132	3
156	168	1
175	176	1
18	18	3
177	177	3
1	1	3
176	177	1
61	61	2
154	155	3
91	92	1
148	171	1
82	82	2
157	159	2
34	64	1
17	17	2
6	134	2
7	9	1
172	173	1
11	12	2
31	31	2
17	37	1
106	106	4
35	35	2
90	95	1
12	12	2
41	41	4
81	82	2
13	35	4
57	147	1
87	88	1
64	64	2
135	140	1
111	112	2
102	102	2
55	96	1
112	112	2
152	174	1
45	45	8
87	87	6
145	163	1
78	78	3
139	140	3
61	65	1
169	170	2
117	154	1
152	152	1
96	99	1
64	81	1
136	137	1
80	81	1
152	153	1
71	71	2
159	159	6
23	25	1
107	108	3
160	162	1
77	89	1
19	19	2
32	33	2
111	113	2
104	105	1
34	35	1
74	74	2
36	36	3
95	156	1
166	166	2
91	94	1
16	44	1
154	156	1
90	90	2
105	107	1
153	154	1
123	124	1
125	145	1
138	140	1
103	104	1
68	134	1
26	26	1
146	146	2
59	63	1
161	162	1
94	95	1
125	130	2
25	25	1
108	111	1
137	137	2
58	64	1
54	54	2
99	99	2
101	107	1
157	157	4
160	160	2
38	65	1
63	63	2
133	134	2
127	151	1
147	147	1
14	16	1
36	37	1
134	150	1
76	139	1
119	121	1
112	122	1
126	140	1
147	148	1
13	24	1
3	4	1
130	148	1
98	98	1
66	66	1
78	179	2
5	6	2
18	41	1
118	119	1
138	159	1
132	138	1
97	101	1
89	175	1
20	20	1
7	7	1
144	144	1
27	29	1
149	180	1
16	17	1
131	138	1
156	156	1
124	124	1
163	165	1
28	31	1
101	102	1
128	146	1
143	144	1
52	52	2
62	116	1
112	121	1
66	95	1
61	62	1
67	67	1
114	119	1
145	148	1
161	161	2
19	23	1
151	154	1
179	180	1
98	99	1
56	58	2
107	133	1
1	10	2
96	100	1
64	108	1
148	148	1
37	37	2
123	123	2
175	175	1
121	144	1
84	86	1
163	164	4
180	180	1
147	152	1
27	37	1
155	155	1
146	168	1
109	111	1
15	16	1
63	83	1
114	114	4
115	118	1
60	118	1
134	139	1
25	28	1
96	132	1
78	81	1
11	28	1
83	83	3
107	107	3
28	28	1
79	178	1
22	28	1
39	52	2
30	34	1
139	159	1
140	172	1
159	160	1
150	153	1
92	93	1
38	43	1
63	64	1
32	36	1
127	127	2
25	27	1
56	57	1
129	140	2
26	27	1
12	33	1
145	146	2
4	22	1
111	118	1
173	174	1
160	161	1
38	52	1
137	140	1
177	178	1
16	39	1
35	38	1
2	4	1
19	40	1
12	13	1
33	42	1
40	42	1
17	18	1
67	68	1
50	66	1
17	35	1
45	46	1
3	6	1
32	60	1
85	92	1
84	85	1
17	58	1
63	114	1
138	149	1
110	111	1
126	150	1
10	41	1
162	163	1
95	97	1
4	26	1
132	134	1
54	79	1
81	87	1
137	159	1
128	130	1
140	141	1
83	85	1
111	116	1
40	85	1
70	71	1
