73	73	8
37	38	2
93	93	4
61	62	1
130	130	4
11	11	7
49	50	1
116	126	2
45	75	2
68	68	12
107	107	7
39	40	6
117	117	8
104	104	7
96	97	3
59	59	3
68	69	1
65	65	1
4	11	1
102	103	2
101	101	1
32	85	3
41	41	3
9	9	3
82	82	13
23	23	5
23	25	2
95	122	1
77	77	4
29	59	2
82	86	1
82	111	1
23	24	2
31	31	2
56	58	2
78	78	3
70	70	12
99	99	2
16	16	7
91	91	4
85	85	8
12	12	7
20	21	1
4	28	1
86	86	5
133	134	2
57	59	1
24	26	1
80	80	5
84	84	5
90	92	2
17	17	4
82	83	5
26	26	4
102	102	5
103	123	1
133	133	6
86	91	1
72	72	13
115	130	1
111	113	1
111	112	2
123	123	3
18	18	11
13	13	15
45	45	7
90	90	5
131	131	2
10	10	8
121	121	7
28	50	1
48	119	1
57	57	4
108	116	2
115	115	5
33	33	5
61	61	7
0	1	2
78	79	1
88	88	4
100	100	2
50	50	1
2	3	3
118	118	7
66	66	11
40	40	4
94	94	5
46	46	13
48	50	1
76	76	7
15	16	1
20	20	6
57	111	1
78	108	1
38	39	4
40	41	3
16	18	1
5	33	1
79	80	3
35	35	2
109	109	7
22	23	1
56	56	3
95	95	2
99	100	2
124	125	2
127	127	1
105	105	5
21	21	1
83	111	1
24	25	1
113	113	9
80	83	3
6	7	2
63	63	4
96	99	2
38	43	1
18	34	1
84	85	3
34	34	6
102	114	2
79	81	1
45	46	2
40	42	2
22	22	6
73	125	1
90	91	1
86	87	1
116	117	1
125	125	4
27	27	2
31	42	1
116	116	4
96	100	2
33	34	1
103	104	2
119	119	10
62	63	2
80	81	1
108	109	2
41	43	1
122	122	1
114	114	3
59	86	1
44	44	5
29	30	2
92	102	2
106	106	3
2	2	3
64	64	8
62	62	3
80	120	1
60	72	1
36	40	2
102	105	1
108	128	1
105	119	1
122	124	2
0	0	2
20	47	2
5	5	6
75	75	7
76	108	1
117	120	1
28	29	1
132	132	4
3	3	4
8	8	3
120	120	3
5	6	1
103	103	4
120	121	2
19	21	1
37	37	2
19	19	2
84	90	1
7	7	1
16	45	1
5	111	1
91	105	1
110	113	1
5	47	1
71	71	3
113	116	2
129	129	4
124	130	2
36	36	2
112	112	4
106	107	2
47	47	9
130	133	1
120	130	2
12	13	2
32	32	1
110	111	2
98	98	2
35	36	2
96	119	1
6	77	1
39	39	2
76	77	2
14	15	2
111	111	8
20	33	1
125	126	1
114	115	2
88	102	2
124	124	2
34	48	1
79	126	1
58	108	1
67	68	2
27	28	2
74	74	4
8	9	3
62	74	1
120	124	1
108	108	3
128	132	1
126	127	1
3	4	2
4	4	6
14	108	1
69	69	2
109	110	1
97	98	1
18	47	1
31	32	1
98	100	1
78	82	1
1	1	4
73	74	2
95	96	1
60	60	3
83	84	2
55	55	2
14	16	1
105	106	1
1	45	1
46	65	1
28	28	2
71	72	1
129	134	1
108	117	3
106	112	1
43	43	3
123	124	2
75	76	1
86	108	1
113	118	1
18	20	1
123	126	1
94	95	2
83	85	3
54	55	2
48	49	1
129	130	1
92	92	2
123	125	3
77	78	5
55	56	2
115	124	1
126	126	2
1	5	3
42	42	2
16	33	1
119	120	1
120	133	1
58	58	3
17	22	2
8	11	1
67	67	2
128	129	2
86	88	1
84	127	2
32	77	1
9	10	1
75	118	1
81	81	2
112	130	1
18	46	1
36	38	1
19	27	1
3	9	1
113	114	2
17	33	1
4	5	2
79	79	3
98	107	1
63	65	2
18	19	4
75	77	1
33	117	1
20	29	1
123	127	1
97	97	1
29	29	1
101	133	1
35	46	1
91	103	1
107	113	1
30	31	1
128	128	2
96	96	2
118	119	1
107	124	1
20	22	2
97	114	1
134	134	1
115	116	1
6	8	1
119	125	1
107	119	1
74	86	1
6	6	1
58	59	1
20	93	1
25	25	1
93	94	1
41	42	1
87	87	2
86	102	1
84	92	1
63	66	1
0	23	1
27	32	1
96	98	1
14	14	1
63	76	1
98	114	1
33	68	1
91	92	2
120	127	1
48	130	1
80	104	1
105	109	1
34	39	1
4	50	1
36	43	1
25	28	1
86	98	1
87	93	1
67	73	1
104	134	1
61	130	1
80	109	1
83	83	2
19	28	1
20	86	1
48	48	1
56	103	1
21	24	1
19	56	1
77	86	1
6	44	1
117	118	1
36	42	1
35	45	1
21	39	1
32	33	1
24	24	1
4	33	1
60	61	1
17	18	1
64	67	1
