107	119	1
130	134	1
39	39	3
35	35	3
124	131	1
7	7	6
27	30	1
74	112	1
89	89	4
60	67	1
60	61	1
121	121	4
130	130	5
70	70	7
23	23	4
72	77	3
55	56	1
91	110	1
30	30	2
110	110	2
47	47	2
64	65	2
102	102	5
133	133	7
8	9	1
26	26	5
100	111	1
116	116	4
55	55	5
56	57	6
3	44	1
3	3	1
90	91	3
87	87	2
95	96	2
63	63	3
82	83	1
77	77	3
10	10	3
115	115	1
9	9	2
60	60	3
95	95	3
28	37	1
78	78	6
4	4	2
44	44	3
129	130	1
67	67	6
81	81	2
3	118	1
74	74	1
111	111	1
21	21	3
73	73	4
6	15	2
6	6	3
18	18	4
43	48	2
95	112	1
41	41	3
11	11	2
122	122	4
113	113	5
90	90	2
37	38	2
17	18	1
5	123	1
44	45	2
132	132	4
6	28	1
97	101	1
107	108	1
58	58	3
93	93	6
46	46	4
22	22	3
65	65	2
124	124	5
22	28	1
74	108	2
83	93	2
118	118	1
103	103	2
85	85	5
134	134	1
13	13	4
88	89	2
29	32	1
32	57	1
0	64	1
82	82	1
56	56	4
25	25	1
62	62	1
64	64	3
59	116	1
29	29	1
18	117	1
20	20	5
112	112	2
79	79	3
17	20	1
114	114	1
8	8	2
119	119	9
114	115	2
76	76	4
106	107	1
88	88	2
73	85	2
23	25	2
18	69	1
126	126	6
27	39	1
83	102	1
61	61	1
92	100	1
57	57	4
58	85	1
1	1	1
19	19	2
27	27	3
129	129	2
94	94	2
45	45	1
131	131	4
110	115	1
123	123	4
81	122	1
36	36	1
5	5	2
63	66	1
33	33	2
72	72	3
75	75	4
118	119	1
69	69	1
101	101	2
74	119	1
19	22	1
40	48	1
100	100	2
111	113	1
2	2	1
96	100	1
17	17	1
120	121	1
6	44	1
3	34	1
92	93	1
20	21	1
25	38	1
126	129	2
3	11	1
34	35	2
59	59	1
37	37	3
48	49	1
106	115	1
72	75	2
121	122	2
66	66	2
23	26	1
117	117	5
90	95	1
25	26	1
26	27	1
105	106	1
77	78	2
86	86	1
106	109	1
19	20	2
130	131	2
0	0	1
85	108	2
126	127	1
42	42	1
96	97	1
49	50	1
97	97	2
15	15	2
0	9	1
106	106	3
120	120	2
21	26	1
32	32	2
99	99	1
2	16	1
65	66	1
109	109	2
74	75	1
78	79	1
20	32	1
16	17	1
67	68	1
0	1	2
24	56	1
76	119	1
127	127	3
107	107	1
12	12	2
131	132	1
84	85	1
4	64	1
84	84	2
15	17	1
36	46	1
105	105	1
119	120	1
87	133	1
88	120	1
97	98	2
46	61	1
92	92	1
103	109	1
31	125	1
79	80	1
125	125	1
27	28	1
21	22	1
29	30	1
68	68	1
14	14	1
5	6	1
99	101	1
125	126	1
51	55	1
9	38	1
9	18	1
