11	11	4
70	70	6
74	74	4
116	116	6
90	90	3
5	5	1
30	30	4
74	113	1
32	33	2
98	98	2
47	59	2
65	65	8
119	119	4
109	110	1
6	6	3
87	131	1
10	10	4
64	64	5
12	12	2
104	104	5
60	62	1
33	57	1
67	67	6
22	33	1
24	25	2
33	33	2
63	63	2
99	100	1
32	32	5
68	68	3
102	102	2
24	24	1
113	113	4
34	34	12
115	116	1
127	128	1
31	31	5
92	92	3
130	130	6
42	42	1
102	103	2
128	128	4
67	68	2
131	131	4
117	117	5
87	87	1
58	59	1
49	49	2
6	7	2
74	116	1
120	120	3
133	133	6
126	126	10
131	132	3
117	118	2
115	115	5
121	121	4
76	78	2
21	21	1
27	27	7
46	46	4
81	84	3
45	56	1
18	18	1
109	109	1
7	9	1
80	83	2
0	0	4
78	97	1
55	55	2
57	58	3
5	6	1
19	19	3
132	132	1
100	100	1
33	34	1
129	129	2
37	38	1
79	133	1
72	72	4
95	115	1
24	59	2
69	70	1
41	57	1
47	47	2
45	45	7
8	8	4
134	134	2
17	17	4
56	57	2
80	99	1
36	36	3
92	97	1
9	9	2
91	91	4
104	106	1
78	78	3
112	112	5
79	81	2
123	123	3
107	108	1
61	62	2
96	99	1
124	125	1
71	71	2
62	62	4
26	57	1
19	20	1
22	24	3
48	48	2
13	14	1
114	115	2
84	98	2
81	81	2
12	13	2
44	44	5
94	117	1
104	105	1
77	77	4
110	110	1
5	69	1
14	14	3
93	93	4
13	18	1
73	73	3
43	43	4
101	102	2
111	119	1
80	80	3
94	95	1
87	88	1
106	106	2
16	34	1
15	16	1
65	66	2
23	90	1
75	75	2
32	34	1
37	37	3
5	46	1
25	78	1
65	77	1
61	115	1
133	134	1
94	108	1
59	59	4
116	117	1
119	122	2
31	32	1
69	69	5
107	107	1
83	83	2
5	8	1
61	61	2
101	123	3
46	64	1
83	109	3
83	90	1
73	74	1
56	56	1
86	87	1
11	12	1
88	88	3
45	50	1
37	39	1
57	57	4
29	29	4
101	101	1
66	66	1
3	64	1
20	22	2
118	119	1
6	82	1
60	60	2
108	108	1
125	125	4
79	79	2
71	73	1
118	118	1
92	122	1
121	122	1
95	95	2
93	95	1
35	76	1
22	22	1
86	119	1
7	7	1
2	2	6
94	94	3
40	40	1
95	96	1
114	116	1
9	10	1
20	20	3
89	120	1
15	15	1
105	105	1
84	84	2
40	42	1
98	99	2
90	92	2
47	48	1
81	83	2
130	131	1
35	63	1
127	127	2
97	97	1
110	111	2
35	35	1
128	129	3
91	105	1
122	126	1
91	93	1
0	1	1
4	4	1
35	44	1
11	13	1
39	39	1
31	35	1
16	16	1
81	82	1
39	40	1
69	71	1
20	21	1
58	58	2
87	96	1
89	90	1
38	43	1
97	98	1
73	75	1
1	2	2
132	133	1
80	131	1
114	114	1
108	109	1
0	8	1
70	95	1
120	121	2
85	85	1
96	97	1
44	56	1
82	82	2
67	69	1
78	80	1
95	120	1
19	46	1
65	105	1
44	107	1
33	68	1
42	43	1
93	116	1
48	49	1
14	15	1
18	32	1
107	120	1
13	13	2
68	69	1
3	5	1
84	132	1
77	95	1
126	131	1
9	11	1
126	130	1
27	32	1
41	42	1
74	118	1
