41	99	1
27	29	1
133	133	1
61	64	2
119	129	1
14	14	14
183	184	2
46	46	2
112	112	1
22	22	4
120	122	1
142	142	3
158	158	2
185	185	4
53	57	1
187	188	2
114	116	2
131	132	3
83	83	5
159	173	1
113	122	1
148	149	1
126	126	5
182	182	3
7	7	4
144	144	6
128	128	3
87	126	1
39	39	6
116	116	4
71	71	3
81	82	1
43	43	4
123	128	1
127	127	1
141	187	1
138	142	1
26	68	1
186	186	2
16	16	6
159	159	5
20	96	2
96	100	1
9	40	2
175	175	5
25	26	2
54	54	2
149	149	7
180	180	3
58	63	1
55	55	3
143	143	3
124	125	1
32	46	1
186	187	1
0	65	1
136	181	1
110	110	3
29	30	1
10	10	2
169	170	2
152	152	2
27	27	2
52	94	1
167	168	1
145	145	3
115	115	5
168	168	2
108	109	1
139	152	1
119	119	4
188	189	1
11	36	1
117	118	4
142	143	2
93	93	1
114	114	4
59	59	2
42	42	7
167	167	3
30	31	2
26	38	2
19	43	1
1	1	3
94	95	2
87	97	1
178	178	2
185	186	1
0	0	1
25	25	2
45	46	3
20	21	3
63	64	2
84	84	2
105	105	2
169	169	1
27	34	1
88	88	1
183	183	6
3	8	1
88	89	2
1	2	4
27	30	1
132	133	1
124	124	3
86	86	1
90	93	1
3	25	1
141	144	1
102	102	4
28	31	2
80	103	1
5	6	1
30	47	1
120	123	1
123	123	5
61	62	3
148	148	4
64	65	1
1	6	1
165	165	2
118	124	2
26	26	3
47	47	4
94	94	3
128	129	2
4	4	3
129	129	2
91	91	3
21	21	3
170	170	4
130	131	2
22	42	2
41	41	5
13	45	1
82	83	2
8	8	5
113	113	3
11	18	1
23	23	4
171	171	2
150	150	4
92	93	2
69	70	1
38	38	4
145	186	1
151	152	2
173	173	8
142	148	2
64	67	1
33	33	2
42	123	1
37	37	5
157	157	4
179	181	3
119	120	1
189	190	1
135	135	3
139	145	2
27	32	1
18	18	4
184	185	2
72	138	1
12	12	4
129	155	1
129	130	1
152	153	1
118	118	2
120	121	1
40	40	7
141	141	3
5	5	4
178	180	2
110	111	3
13	22	1
147	147	3
188	188	1
164	164	2
38	39	1
125	126	1
8	10	1
136	137	2
159	160	2
28	28	2
117	136	1
80	80	2
139	139	2
45	47	1
154	159	1
141	185	1
161	161	2
24	24	6
158	165	1
111	111	2
174	175	1
121	121	3
106	129	1
45	62	1
57	74	2
184	184	1
14	22	1
45	45	4
99	100	2
104	104	1
58	58	3
132	132	2
69	69	2
78	80	1
124	183	2
48	48	2
120	120	2
65	65	1
11	12	1
166	186	1
47	48	1
44	44	5
15	15	5
178	179	3
2	40	1
32	33	4
154	154	3
143	169	1
72	173	1
135	164	1
17	30	1
31	32	1
117	117	2
146	146	3
134	164	1
74	74	2
77	78	1
70	71	2
33	74	1
181	181	4
63	63	2
125	125	3
151	187	1
34	34	5
151	183	1
149	155	1
153	153	3
112	113	1
17	17	4
95	116	1
58	65	1
37	38	1
179	180	1
37	78	1
170	183	1
176	177	2
3	3	3
96	96	3
61	112	1
99	104	2
124	130	1
48	96	1
47	83	1
24	71	1
109	159	1
101	102	2
73	73	1
173	180	1
134	134	4
85	85	3
6	7	3
64	64	4
107	107	2
163	163	2
106	155	1
74	75	1
34	36	1
95	95	3
22	23	1
53	53	5
53	56	2
159	174	1
13	38	1
75	87	1
149	150	1
125	165	1
164	165	2
189	189	2
55	89	2
53	85	1
174	177	1
156	158	1
11	14	2
95	104	1
32	52	1
56	56	1
57	69	1
171	174	1
20	20	1
97	98	1
130	136	1
68	68	3
182	183	2
111	123	1
61	68	1
106	106	3
81	81	1
133	189	1
14	42	1
103	103	2
152	159	1
108	108	1
66	66	2
154	186	1
152	184	1
17	18	1
76	76	3
155	155	1
0	1	2
56	57	1
101	103	1
171	173	1
129	182	1
92	112	1
114	147	1
70	70	1
119	121	1
26	71	2
101	108	1
119	169	1
166	166	3
36	37	1
83	88	1
6	25	1
138	143	1
32	32	2
72	72	1
109	109	4
122	122	2
100	100	2
35	36	2
44	47	2
71	110	1
70	183	1
12	13	1
84	141	1
131	131	1
101	101	2
6	6	3
151	151	1
156	156	1
138	138	1
176	176	1
67	67	1
161	188	1
178	181	1
111	140	1
97	97	2
5	13	1
149	181	1
133	160	2
163	168	1
87	87	3
32	36	1
58	59	2
83	99	1
75	75	1
136	136	2
170	186	1
150	152	2
107	108	2
89	89	1
48	123	1
29	29	1
110	119	1
90	90	2
15	16	2
46	96	1
58	64	1
77	170	1
71	81	2
154	190	1
141	142	1
78	78	1
167	182	1
19	22	1
67	69	1
153	176	1
160	160	1
56	72	1
28	29	1
68	71	1
55	57	1
131	133	1
137	137	1
2	2	4
60	60	1
109	134	1
187	187	1
4	37	1
135	154	1
77	80	2
116	122	1
82	82	1
179	179	1
60	92	1
57	57	4
108	139	1
91	92	1
153	154	1
23	24	3
176	179	1
59	112	1
135	151	1
164	187	1
159	167	1
114	128	1
79	79	1
174	174	1
129	139	1
53	86	1
148	177	1
13	14	1
10	169	1
130	133	1
102	103	1
131	135	1
91	176	1
140	140	2
6	33	1
165	180	1
177	177	1
58	93	1
4	5	1
120	129	1
78	79	1
36	111	1
105	107	1
95	100	2
35	65	1
63	102	1
137	150	1
82	85	1
148	150	1
9	9	2
53	58	1
135	139	1
97	107	1
31	31	1
36	36	2
98	98	1
128	130	1
6	8	1
147	157	1
143	179	1
99	113	1
107	131	1
155	157	1
161	164	1
156	173	1
108	135	1
26	73	1
77	77	1
167	169	1
44	45	1
17	82	1
25	40	1
41	68	1
41	57	1
40	141	1
163	164	1
19	19	1
136	173	1
