77	77	4
85	86	1
97	98	4
129	130	4
115	115	4
58	114	1
124	124	5
49	65	1
84	84	4
68	68	6
19	20	1
46	46	3
112	112	3
91	93	1
56	56	6
108	108	11
86	87	2
106	106	4
7	7	3
9	9	3
72	72	7
41	41	3
74	74	1
19	24	1
89	90	2
73	74	1
67	67	1
109	109	9
131	131	6
3	102	1
6	6	6
14	14	2
132	132	3
78	79	1
0	4	1
108	131	1
13	13	2
83	83	2
27	28	2
33	33	3
101	103	2
108	109	3
128	128	3
116	116	3
43	43	2
129	129	2
21	21	2
45	66	1
83	84	2
130	130	1
102	102	6
46	49	3
2	4	2
53	53	7
72	73	2
82	84	3
15	15	2
100	100	2
78	80	2
31	32	1
46	77	1
67	117	1
3	4	1
98	98	4
85	85	1
58	58	9
120	132	1
4	111	1
101	102	1
93	94	1
31	40	1
55	55	3
110	121	1
42	49	1
96	96	6
16	16	3
30	38	1
105	105	1
64	113	1
2	2	7
70	70	4
115	116	1
22	24	3
52	52	7
110	110	8
99	100	2
52	110	1
81	81	2
12	13	1
45	46	2
118	118	6
107	107	6
101	101	4
126	126	2
103	104	2
40	40	4
28	76	1
48	48	10
17	20	1
45	45	5
67	68	1
114	114	4
44	44	1
121	121	2
133	133	4
88	97	1
117	117	4
127	127	2
66	66	3
51	52	2
94	95	2
113	113	8
55	56	1
28	28	3
68	69	3
125	127	2
5	7	1
5	5	5
88	88	4
74	77	1
122	123	1
76	76	4
79	80	2
92	93	1
126	128	1
97	97	2
113	120	2
88	89	1
27	32	1
112	120	1
53	54	2
25	25	4
57	69	1
83	94	2
110	111	1
70	91	1
8	8	1
26	26	7
71	71	7
58	65	1
3	70	1
38	41	1
130	131	1
0	0	2
28	29	1
85	87	1
111	111	3
78	78	4
83	86	2
122	122	4
62	63	1
51	54	1
27	27	3
3	3	3
92	92	3
51	51	3
120	120	5
119	119	4
43	60	2
76	77	1
123	123	2
83	88	1
87	87	2
95	95	6
46	67	1
94	94	1
132	133	2
59	59	2
106	109	1
62	70	2
23	24	1
19	21	1
19	19	3
40	103	1
14	15	1
93	96	1
41	71	2
120	121	1
17	21	1
11	11	2
79	79	2
40	70	1
61	84	2
54	54	4
69	69	2
93	93	1
103	103	3
48	49	2
90	100	1
29	29	1
6	8	1
73	73	1
12	12	3
1	1	1
107	110	1
91	95	1
99	99	3
104	105	1
42	81	1
93	104	1
9	26	1
94	120	2
90	92	1
80	83	1
91	92	1
110	113	1
55	131	2
112	113	2
119	120	1
16	18	1
24	24	1
94	105	1
39	39	2
4	4	6
91	91	1
0	1	1
65	66	1
50	116	1
58	61	1
41	77	1
52	123	1
49	51	2
95	96	3
58	77	1
47	48	3
50	52	1
18	20	1
1	56	1
31	31	1
80	102	1
24	25	1
77	87	1
43	46	1
65	67	1
105	106	2
90	90	3
102	125	1
117	118	1
38	39	1
121	122	2
75	75	1
81	82	1
57	57	1
65	65	1
72	77	2
38	38	2
32	32	2
77	78	1
70	124	1
102	103	1
44	45	1
104	108	1
59	124	1
86	86	1
42	43	1
18	18	1
46	47	1
29	39	1
83	85	2
62	78	1
49	49	2
104	104	2
1	2	1
30	30	1
108	118	1
125	125	1
43	79	1
75	76	1
34	38	1
42	42	1
89	89	1
118	120	1
106	107	1
20	21	1
102	118	1
28	46	2
82	88	2
46	58	1
47	47	1
45	71	1
102	104	1
12	50	1
6	7	1
57	95	1
42	75	1
34	34	1
90	102	1
124	125	1
39	113	1
1	10	1
63	63	1
60	62	1
55	109	1
