95	95	8
38	106	1
125	125	5
118	118	3
133	133	17
124	126	1
6	6	3
98	98	8
115	115	3
132	133	2
83	108	1
132	132	7
124	124	6
90	90	2
94	94	4
139	139	3
115	116	3
104	104	5
72	72	2
130	130	6
96	96	9
102	102	3
117	117	5
33	33	2
134	134	4
37	71	2
100	101	2
122	123	4
114	114	2
82	83	2
126	126	5
129	129	3
12	12	1
7	7	3
128	128	8
38	38	3
34	34	5
83	83	3
117	118	3
85	86	1
16	16	1
110	113	1
79	79	3
123	123	6
125	127	1
128	129	2
106	109	2
136	136	4
36	36	1
137	137	7
112	114	1
117	127	1
5	13	1
75	75	2
2	4	1
111	111	5
122	122	6
133	134	2
74	86	1
115	124	2
115	120	1
19	19	3
84	84	1
103	104	3
122	124	1
121	122	3
89	89	1
138	138	3
11	12	1
86	88	2
139	140	2
83	84	3
120	120	7
111	112	4
92	93	6
135	135	2
113	113	2
106	107	2
121	121	6
103	103	6
119	119	5
17	17	4
4	4	1
114	115	2
123	129	1
74	74	1
105	107	4
85	85	2
106	106	3
116	117	2
86	86	1
2	2	1
35	35	2
111	113	2
11	19	1
99	99	3
114	116	2
76	76	3
112	112	2
126	127	1
78	78	3
97	99	1
3	4	1
123	124	1
80	80	2
75	80	1
14	17	1
119	121	1
109	109	4
131	132	2
97	98	1
109	113	2
130	131	3
113	119	2
126	128	1
137	138	1
34	35	2
71	71	1
77	77	1
123	130	1
99	125	1
13	14	1
11	13	1
3	3	1
80	104	1
111	125	1
73	73	1
1	1	1
75	78	1
8	10	1
101	101	1
116	116	3
99	100	1
92	92	3
94	95	1
100	100	3
78	81	1
110	111	3
37	39	1
96	97	1
87	87	5
37	38	1
95	139	1
109	110	1
33	34	1
97	101	1
102	116	1
0	6	2
127	131	1
0	0	2
32	32	1
74	82	1
2	3	1
110	110	1
10	11	1
131	131	2
98	125	1
1	10	1
75	79	1
89	128	1
68	100	1
117	119	1
81	81	1
16	17	1
127	127	1
115	128	1
37	100	1
37	37	3
140	140	2
0	15	2
120	122	1
101	114	1
73	74	1
27	37	1
76	77	1
127	128	1
93	93	1
79	80	1
120	121	1
133	140	1
125	126	1
91	96	1
89	90	1
118	121	1
82	82	1
108	108	1
