140	140	5
142	143	2
82	82	3
68	68	3
86	86	1
19	19	2
141	142	3
24	24	3
123	123	2
14	14	2
120	123	1
25	25	2
0	17	1
107	107	1
32	32	5
12	17	1
20	20	2
67	67	6
91	105	1
9	9	2
53	53	1
0	0	1
102	103	1
112	113	2
106	135	1
119	120	1
124	124	7
125	125	3
0	1	1
81	81	2
62	62	2
18	18	3
37	41	2
104	104	4
95	107	1
2	30	1
82	84	1
48	48	1
26	26	3
70	92	1
85	112	2
95	106	1
38	38	1
5	39	1
121	121	2
122	123	2
123	138	1
121	132	2
64	65	1
71	72	1
66	67	1
97	97	4
109	110	1
50	50	2
71	71	2
142	142	2
145	145	1
136	136	3
30	30	2
83	83	4
52	52	1
13	34	1
54	62	1
79	79	1
72	75	1
115	115	2
73	73	1
92	92	1
87	88	2
1	2	1
101	107	2
128	129	1
17	37	1
107	108	2
72	72	4
108	108	3
132	132	1
89	89	1
75	75	3
25	36	2
29	29	1
73	79	1
23	23	1
17	35	1
4	4	1
68	69	1
103	103	1
134	134	1
22	22	4
101	101	1
126	126	2
112	114	1
70	70	2
5	6	1
144	144	2
54	54	2
137	137	2
19	25	1
41	125	1
103	116	1
96	96	1
84	84	3
11	11	2
14	34	2
60	125	1
2	6	1
131	132	1
110	110	2
130	130	1
56	56	1
73	74	1
2	2	1
5	83	1
133	134	1
49	55	2
87	89	1
128	128	1
20	123	3
101	103	1
13	37	1
143	143	1
90	93	1
135	135	1
14	16	2
52	63	1
78	85	1
28	29	1
137	138	1
17	38	1
100	100	1
113	113	1
52	62	1
14	51	1
132	138	1
60	60	1
46	47	1
5	5	1
15	132	1
43	51	1
34	34	1
105	105	2
15	15	1
22	23	1
77	89	1
121	133	1
134	136	1
69	69	1
129	129	2
60	90	1
133	133	1
145	146	1
47	47	1
120	120	1
40	40	2
118	118	1
58	58	1
36	62	1
117	117	1
71	80	1
71	89	1
5	41	1
52	55	1
70	95	1
53	63	1
65	66	1
86	104	1
56	58	1
79	80	1
94	94	1
76	77	1
65	69	1
87	87	1
122	124	1
73	82	1
12	38	1
43	47	1
56	59	1
