9	9	4
38	38	5
12	15	3
132	132	3
32	32	2
76	77	1
27	28	5
37	40	2
61	61	6
80	80	6
109	113	1
40	40	4
81	106	2
90	90	3
119	119	6
145	145	1
27	27	2
25	25	1
75	75	1
39	47	1
24	24	2
97	97	2
29	29	5
74	133	1
76	79	1
15	15	2
39	39	4
47	47	2
96	98	1
94	94	4
30	30	3
67	105	1
54	54	2
105	105	4
98	142	1
90	109	2
93	93	1
134	134	2
95	95	2
123	123	3
144	145	2
90	101	1
142	143	3
21	21	2
56	66	1
76	76	2
138	140	1
129	130	2
56	56	3
70	71	1
143	143	2
130	130	3
82	83	2
50	50	4
92	119	3
20	26	2
40	41	2
0	8	1
28	29	3
33	51	1
61	110	1
126	126	4
13	13	1
90	107	1
83	83	2
99	100	1
141	142	1
88	88	3
92	92	2
102	102	2
20	21	1
0	0	3
95	134	2
132	133	4
108	117	1
122	122	3
64	64	2
139	139	1
60	61	1
79	81	1
115	115	7
70	70	3
11	11	6
115	131	1
67	67	3
108	108	2
89	139	1
2	2	1
5	5	3
62	62	2
69	85	1
18	36	1
118	119	2
71	72	3
72	72	3
16	16	3
120	120	2
47	57	1
63	76	1
59	59	2
81	87	1
18	18	5
49	49	1
93	94	3
129	129	1
111	112	1
117	117	2
27	41	2
109	109	3
8	17	1
88	89	2
106	107	1
106	142	1
133	133	3
57	57	3
10	18	1
99	99	4
63	65	1
124	125	1
140	140	2
141	141	4
131	133	2
95	96	1
131	132	1
125	125	4
67	68	1
7	11	1
103	103	2
79	80	2
76	78	1
31	31	2
55	55	3
144	144	4
122	123	1
69	106	1
139	142	1
36	39	1
78	80	1
142	142	2
114	114	3
118	120	1
123	124	1
18	38	1
110	111	1
104	104	1
12	123	1
94	138	1
1	2	1
51	51	1
78	88	1
109	132	2
73	73	1
74	74	2
112	112	3
19	20	1
134	140	1
68	68	3
121	121	4
98	101	1
96	96	2
114	115	1
94	96	1
27	40	1
52	52	2
86	86	1
82	82	2
3	4	1
6	6	2
84	84	4
20	20	2
131	131	1
105	108	1
73	75	2
80	84	1
101	101	3
116	116	2
115	136	1
56	57	1
111	111	1
27	49	1
22	39	1
128	128	2
124	140	1
87	87	1
116	117	2
89	90	1
49	56	2
42	42	3
41	41	1
54	55	2
97	99	1
94	110	1
111	143	1
82	84	1
81	120	1
53	56	1
10	126	2
4	4	4
53	53	1
64	65	2
93	125	2
11	25	1
104	105	1
29	68	1
19	19	2
24	26	1
125	130	1
2	6	1
49	52	2
48	48	3
8	21	1
119	120	1
102	106	1
36	59	1
104	112	1
113	115	1
110	110	1
17	17	1
27	124	1
81	82	1
58	66	2
106	108	1
19	30	1
33	60	1
106	106	2
61	87	1
28	33	3
8	29	1
96	126	1
124	133	1
107	108	1
22	22	1
79	79	1
41	42	2
32	40	1
121	122	1
135	139	1
33	33	2
49	50	2
98	98	1
59	62	1
27	103	1
26	97	1
120	127	1
98	143	1
25	26	2
120	137	1
138	138	1
43	62	1
24	71	1
76	133	1
65	66	1
139	140	1
58	58	1
96	97	2
116	118	1
28	28	1
108	109	1
71	71	1
28	30	2
90	96	1
115	117	2
92	105	1
115	134	1
53	54	1
10	140	1
55	64	1
91	91	1
72	76	1
41	58	1
69	69	1
10	10	1
28	32	1
136	137	1
28	56	1
35	55	1
137	138	1
61	64	1
37	37	1
26	26	2
123	126	1
6	10	2
41	93	1
35	35	2
39	70	1
81	81	1
70	73	1
103	104	1
58	119	1
36	37	1
115	116	1
113	117	1
40	48	1
63	83	1
90	91	1
47	70	1
128	129	1
