118	123	1
15	15	10
187	188	3
167	178	1
134	134	3
107	107	3
167	167	5
57	100	1
13	14	1
42	42	12
0	2	3
69	70	2
24	29	1
23	47	3
20	23	1
55	55	4
23	24	3
19	24	1
43	43	6
13	13	6
62	62	5
74	74	2
179	187	1
47	47	10
104	105	1
178	178	5
192	194	1
180	180	6
33	33	4
26	27	3
34	34	3
32	121	1
187	187	3
176	178	1
141	141	6
182	182	7
38	38	14
101	101	3
46	46	11
130	170	1
4	5	1
145	151	1
24	24	8
150	167	2
138	158	1
21	181	1
40	40	8
126	127	2
154	157	1
165	165	2
17	17	9
17	19	1
94	95	1
128	128	5
49	72	2
142	142	4
137	140	1
37	37	10
169	172	1
161	174	1
156	156	4
135	135	2
156	158	2
37	183	1
141	142	1
137	168	1
73	100	1
140	186	1
194	194	5
41	41	9
30	30	5
93	93	2
20	20	5
140	140	6
65	65	2
144	144	4
68	68	6
5	5	7
190	190	3
7	32	1
21	29	1
166	166	5
38	71	2
4	4	9
25	25	6
138	138	4
196	196	8
31	31	9
151	151	4
82	82	1
121	168	1
8	23	1
168	168	10
146	147	3
52	55	1
185	194	1
18	19	3
96	96	1
160	160	5
177	177	6
4	17	1
170	171	4
15	51	1
12	12	5
116	116	3
113	113	5
57	57	2
27	27	6
25	28	2
182	183	1
80	82	2
120	163	1
38	40	1
132	134	1
185	185	3
161	161	8
116	131	1
59	66	1
21	21	4
154	154	5
173	176	1
133	133	4
19	20	3
179	181	1
162	162	3
189	189	3
10	10	5
84	84	5
19	19	12
86	86	2
150	151	1
122	122	5
165	166	2
71	71	3
56	57	1
149	149	3
29	29	7
44	45	1
17	191	1
48	48	4
103	103	4
25	160	1
188	188	4
153	153	4
64	64	4
67	67	3
177	180	3
173	173	2
14	14	4
7	8	2
39	71	1
53	53	2
102	102	3
6	6	5
4	186	1
45	46	2
112	134	2
54	58	2
105	105	2
45	48	1
7	7	8
186	196	2
13	57	1
147	148	2
176	177	6
179	188	2
16	22	2
152	152	3
47	48	4
191	191	3
188	189	2
3	32	1
100	100	4
151	152	3
81	83	1
123	123	4
20	33	1
181	181	4
69	72	2
121	121	6
16	16	2
14	38	1
4	171	1
30	32	2
21	22	1
80	80	2
2	3	7
79	103	1
1	1	7
27	29	1
171	194	1
18	18	4
157	157	7
148	148	3
85	85	4
96	97	4
155	155	4
169	169	2
183	183	10
12	14	1
58	58	4
43	150	1
38	39	2
60	60	3
160	178	1
189	190	4
76	93	1
99	99	5
195	195	2
175	176	3
16	30	1
59	60	2
9	12	1
80	189	3
114	114	2
33	49	1
54	54	3
93	115	1
102	103	3
179	179	3
46	47	2
20	36	1
22	22	4
45	45	6
106	106	1
11	11	3
180	189	1
126	126	3
10	11	1
103	105	1
170	170	8
120	120	3
27	31	1
183	184	1
44	88	1
186	189	1
27	28	7
108	112	1
108	108	4
158	165	1
16	17	1
37	38	1
94	118	1
137	137	6
109	117	2
136	155	1
3	4	2
24	30	1
159	162	1
24	48	1
33	36	4
117	146	2
122	123	2
65	71	1
136	136	3
159	160	1
125	125	3
72	170	1
39	39	3
28	28	4
119	157	2
50	50	4
105	106	2
186	187	3
169	170	2
1	6	2
118	119	2
57	58	1
106	108	1
94	94	4
144	145	4
44	44	5
37	39	1
173	174	1
142	171	1
172	172	4
186	186	6
116	151	1
151	153	1
28	64	2
111	114	2
15	16	3
93	114	2
96	98	1
32	32	1
61	61	3
155	165	2
161	163	2
72	78	1
9	9	3
73	73	1
184	184	3
143	144	2
195	196	1
161	162	1
47	60	1
31	32	1
187	189	2
130	131	2
193	193	2
192	192	5
164	164	2
134	140	1
154	170	1
4	32	2
171	183	1
55	56	1
192	193	3
79	80	2
24	25	2
112	112	1
72	79	1
39	65	1
36	36	5
90	90	4
42	43	1
146	146	3
131	131	1
150	150	2
137	166	2
0	1	2
94	117	1
12	131	1
139	140	2
149	150	1
39	115	1
181	182	3
139	152	1
56	56	3
117	117	6
154	173	1
73	74	1
1	23	1
26	26	5
70	71	3
9	183	1
161	165	2
138	139	1
171	171	5
158	160	1
3	6	2
110	110	5
29	30	1
133	135	1
8	8	5
55	61	1
76	77	1
4	9	1
159	159	4
3	3	4
9	10	3
109	112	2
132	132	2
142	151	1
36	157	1
26	28	3
146	156	1
175	175	3
155	159	1
185	186	1
130	147	1
28	29	4
83	83	1
155	169	1
112	115	2
178	179	1
118	118	1
170	186	1
11	13	1
98	100	1
128	129	2
154	155	2
25	27	1
77	77	3
40	41	2
49	49	1
5	31	1
135	136	1
124	138	1
79	79	1
5	32	1
43	44	2
157	158	2
51	51	2
103	106	1
69	69	1
33	37	1
58	65	1
93	128	1
128	137	1
29	34	1
40	42	1
139	139	2
104	106	1
64	119	1
41	67	1
147	147	2
36	37	1
136	137	1
177	193	1
15	23	1
170	192	2
197	197	5
76	76	1
126	135	1
22	34	1
120	143	2
158	161	1
112	148	1
179	180	2
71	72	1
25	60	1
6	28	1
13	43	2
64	65	2
13	46	1
2	2	3
119	151	1
127	127	4
68	77	2
125	126	2
43	186	1
155	156	1
119	119	1
109	109	1
32	36	1
162	166	1
174	187	1
101	135	1
113	170	1
21	44	1
5	56	1
44	46	1
4	8	2
41	63	1
166	167	2
12	27	1
115	115	4
125	132	1
56	61	1
63	126	1
81	81	1
176	176	4
98	133	1
9	32	1
52	52	2
3	8	1
46	127	1
102	117	1
118	151	1
78	78	2
163	163	2
98	118	1
97	97	1
176	180	1
191	197	1
85	138	1
35	35	4
41	45	1
33	39	1
5	6	1
56	60	1
98	98	2
70	72	1
77	79	1
156	169	1
35	36	1
17	18	1
53	57	1
154	193	1
14	25	1
143	181	1
180	182	1
144	148	1
41	42	1
79	81	1
190	191	1
68	69	1
1	18	1
4	176	1
60	61	2
160	161	1
155	158	1
113	151	1
77	87	1
1	2	1
160	187	1
187	194	1
11	18	1
143	187	2
133	134	1
150	186	1
7	11	1
171	172	1
34	35	3
163	189	1
103	104	2
75	80	1
146	149	1
139	186	1
170	174	1
96	130	1
64	106	1
95	95	1
66	83	1
129	135	1
41	59	1
82	83	1
81	123	1
34	40	1
11	33	1
74	75	1
142	158	1
39	110	1
15	18	1
88	89	1
0	0	2
168	169	1
20	21	1
30	31	1
14	15	1
23	23	3
150	159	1
111	111	1
10	70	1
122	124	1
95	118	1
32	140	1
155	160	1
97	98	1
8	19	1
1	20	2
104	104	1
186	188	1
14	20	1
8	39	1
181	190	1
114	115	1
117	157	1
8	26	1
22	24	2
22	23	1
136	148	1
176	190	1
3	7	1
142	145	1
120	183	1
152	159	1
69	183	1
8	17	1
130	134	1
63	63	1
48	184	1
2	30	1
29	31	1
179	183	1
72	72	1
141	155	1
5	11	1
32	33	1
54	55	1
83	87	1
88	88	1
97	104	1
131	132	1
134	135	1
120	152	1
70	70	1
8	35	1
11	46	1
35	41	1
62	65	1
