40	40	4
80	80	10
138	138	2
6	12	2
124	124	4
109	110	1
20	20	4
18	18	2
135	135	5
10	20	2
151	151	6
25	25	6
139	140	7
3	3	5
152	152	6
166	166	3
19	19	3
112	113	1
112	112	3
11	11	5
159	160	1
124	125	1
79	79	2
134	134	2
92	93	1
81	82	3
108	108	5
102	103	5
76	78	1
86	86	4
122	122	2
162	162	8
146	152	1
65	70	1
82	83	1
112	152	2
45	118	1
134	136	3
41	109	1
167	167	10
44	47	1
18	22	1
43	44	1
47	47	3
101	101	2
35	35	5
147	147	6
128	133	1
7	7	7
49	49	7
113	114	1
101	102	2
50	51	5
72	79	1
16	17	1
142	142	4
65	66	2
137	138	2
110	110	5
64	135	1
150	150	5
38	38	6
160	160	2
155	166	1
27	28	2
157	158	3
114	125	1
9	10	1
139	157	1
16	23	1
127	138	2
41	46	2
47	97	2
0	0	2
48	48	6
99	100	3
127	130	1
123	123	2
91	92	2
151	161	1
37	37	3
18	52	1
130	130	3
1	1	3
141	142	2
91	95	1
68	68	4
165	165	2
161	161	5
36	36	4
67	69	2
0	21	1
46	46	2
88	89	3
143	143	5
113	113	3
156	156	3
68	146	1
141	141	6
109	109	3
43	43	3
22	81	2
17	17	6
63	63	4
49	50	3
100	100	2
24	24	5
110	111	2
161	162	1
106	107	1
51	51	4
69	69	5
137	137	2
57	57	2
44	80	1
143	144	2
153	154	3
56	56	2
11	12	1
5	5	6
105	105	2
144	144	6
144	148	1
114	156	1
144	145	1
146	146	6
149	149	6
52	53	2
154	154	3
88	88	2
41	41	3
27	27	4
97	117	1
161	170	2
57	133	1
136	136	3
71	71	2
0	26	1
19	24	1
163	164	1
117	129	1
120	120	2
83	83	4
14	14	6
111	143	2
4	5	2
140	143	1
47	48	1
144	152	1
36	37	2
28	28	4
48	51	1
121	121	3
100	118	2
7	15	2
89	89	4
106	106	2
98	98	2
75	75	2
4	4	4
125	125	3
70	70	1
50	118	1
158	158	3
100	101	1
128	128	1
85	86	1
145	145	3
8	9	1
45	45	3
50	50	1
154	155	1
20	119	1
80	82	1
107	107	3
116	147	1
90	91	2
13	51	1
9	9	5
107	148	1
143	151	1
84	84	1
119	119	3
39	39	2
81	87	1
140	142	2
85	85	2
169	170	1
111	111	3
81	81	4
55	56	1
131	131	2
151	152	2
22	39	2
139	160	1
12	12	3
164	164	1
12	58	1
163	163	2
13	14	1
33	33	2
22	41	1
98	154	1
122	123	1
20	74	1
48	54	1
139	139	5
118	118	1
94	94	2
26	26	1
44	45	1
135	136	2
126	130	1
143	152	1
62	122	1
87	87	1
40	41	1
11	13	2
152	154	3
15	15	2
27	47	1
14	108	1
22	22	2
39	40	2
6	7	3
157	157	3
145	146	1
23	23	4
14	83	1
99	99	1
86	87	3
17	18	3
38	39	2
104	117	1
132	132	4
121	122	1
16	16	5
86	103	1
24	83	1
34	34	3
168	170	2
123	124	2
77	77	2
124	129	1
137	143	2
102	102	2
78	78	3
2	2	5
146	147	2
76	85	1
170	170	2
7	8	1
153	169	1
148	148	4
127	129	1
28	36	2
21	83	1
110	129	1
141	153	2
100	104	2
1	2	4
22	45	1
158	159	2
69	73	1
8	8	1
13	16	2
161	165	1
16	101	1
55	70	1
90	90	3
37	40	1
23	24	1
130	132	2
64	75	1
91	91	1
54	54	3
39	46	1
154	156	1
157	161	1
160	161	3
64	65	1
53	53	4
132	133	1
46	52	1
12	13	1
66	66	3
14	15	1
169	169	3
43	135	1
117	117	2
21	21	1
20	21	3
22	87	1
126	126	3
149	150	2
144	166	2
5	11	2
44	44	4
138	139	1
97	97	1
155	156	1
112	119	1
153	153	1
12	51	1
103	104	1
17	38	1
116	117	1
76	80	2
136	138	1
146	148	1
67	67	2
48	49	1
147	148	1
47	49	2
165	166	1
73	88	1
114	114	1
96	96	1
87	88	2
52	52	3
13	13	1
117	122	1
40	58	1
127	128	2
93	93	2
70	71	4
102	104	1
33	34	1
66	132	1
120	122	1
132	151	1
77	88	1
20	72	1
42	107	1
159	159	1
142	145	1
148	162	1
77	78	1
129	131	1
15	41	1
0	1	1
93	94	1
143	145	1
42	42	3
158	160	1
103	103	2
150	151	1
76	76	1
66	131	1
116	128	1
128	129	2
49	51	1
118	125	1
7	12	1
88	112	1
5	41	1
16	47	1
84	85	1
26	84	1
13	56	1
113	129	1
10	40	1
66	93	1
73	74	2
138	141	1
39	42	1
49	86	1
97	98	1
54	55	2
140	160	1
70	80	1
3	109	1
57	101	1
10	10	1
134	135	1
112	132	1
168	169	1
118	120	1
84	86	1
106	137	1
62	63	1
104	104	1
157	159	1
72	72	1
55	69	1
33	35	1
149	169	1
6	6	1
4	18	1
79	83	1
152	153	1
3	4	1
35	37	1
138	156	1
133	133	1
68	70	1
70	83	1
66	67	1
100	105	1
134	151	1
93	97	1
129	129	1
92	92	1
