48	48	2
25	25	6
121	121	4
96	107	1
51	52	3
62	62	3
83	84	4
21	21	3
32	32	4
109	111	1
29	29	1
101	101	2
106	106	4
118	118	9
112	112	6
58	58	5
45	45	6
54	54	13
104	105	3
103	103	2
116	120	2
94	94	7
128	128	6
89	89	5
39	39	4
53	53	10
58	59	1
131	131	11
110	110	7
49	52	1
57	58	3
95	95	4
107	107	2
22	26	2
65	65	3
46	116	1
87	87	4
49	49	8
50	50	9
126	126	6
61	61	1
98	98	5
116	117	4
115	116	1
112	113	3
122	122	3
59	59	2
26	26	7
96	116	1
97	129	2
32	90	1
114	114	10
113	113	4
127	127	5
60	60	1
93	93	4
66	66	4
129	130	1
0	0	2
34	34	3
3	3	4
39	43	2
4	4	6
43	43	5
27	27	5
91	91	2
73	73	6
14	14	7
74	76	3
120	121	1
44	45	1
38	38	3
83	83	2
10	10	1
25	90	2
5	5	3
77	77	3
104	113	1
109	109	8
60	61	1
28	29	2
44	44	1
108	109	1
91	94	1
129	129	4
56	57	3
85	87	2
83	91	3
69	69	2
123	123	6
28	28	2
103	106	1
25	26	1
116	116	3
115	115	9
14	43	1
53	112	1
7	7	5
120	120	11
105	105	5
111	111	5
71	71	3
70	127	1
16	16	6
114	115	2
128	129	5
70	80	1
13	13	1
13	19	1
32	48	1
2	4	1
117	117	2
53	54	2
17	17	2
108	108	6
132	133	1
102	102	3
72	72	1
44	88	1
104	104	1
127	129	1
89	92	1
75	75	3
101	103	1
30	30	2
82	82	1
97	97	5
33	34	2
27	39	1
81	82	2
79	79	2
90	126	1
6	49	1
90	91	1
46	46	2
31	31	3
133	133	3
123	124	1
115	117	1
99	99	1
100	100	3
99	100	2
77	80	1
11	13	1
68	100	1
63	102	2
88	88	3
23	23	5
125	125	3
128	131	2
70	72	1
101	104	1
107	118	1
53	106	1
56	56	3
9	9	1
78	78	3
12	12	2
85	85	4
46	47	2
107	108	1
57	57	8
62	67	1
68	68	1
16	18	1
50	51	1
79	80	1
42	42	2
113	119	1
57	93	1
40	41	3
86	86	1
19	31	1
75	82	1
106	129	1
119	120	2
12	94	1
95	98	1
67	67	2
28	31	1
76	94	2
112	121	2
64	65	1
124	124	2
71	74	1
23	24	1
121	122	1
47	47	3
2	2	2
101	107	1
40	73	1
29	30	2
39	62	1
78	82	2
71	93	1
9	10	1
80	80	1
101	102	1
82	87	1
60	74	1
45	55	1
95	96	1
74	74	1
33	44	1
47	68	1
80	82	2
67	68	1
113	114	1
19	19	1
28	75	1
55	55	1
59	71	1
19	27	1
76	76	2
41	41	2
15	15	1
92	106	1
20	20	1
103	104	1
90	106	1
79	81	1
27	98	1
31	32	1
110	125	1
96	96	2
93	114	1
119	119	2
109	110	1
90	90	3
48	68	1
78	87	1
7	112	1
94	95	1
75	101	1
50	107	1
45	46	1
40	66	1
99	101	1
59	62	2
123	131	1
50	112	1
114	117	2
41	46	1
54	96	1
53	57	1
92	128	1
21	30	1
2	120	1
33	33	1
18	38	1
79	103	1
24	55	1
25	47	1
115	119	1
76	78	1
50	72	1
102	104	1
75	77	1
85	86	1
132	132	1
22	22	1
117	131	1
11	11	1
52	52	2
2	6	1
18	19	1
92	92	1
63	64	1
56	116	1
76	77	1
2	3	1
80	97	1
47	48	1
55	76	1
72	92	1
96	99	1
40	55	1
40	40	1
61	69	1
130	130	1
48	119	1
51	51	1
92	130	1
10	11	1
95	101	1
81	81	1
30	94	1
115	118	1
22	42	1
93	132	1
117	118	1
130	131	1
57	94	1
102	107	1
96	113	1
46	57	1
15	99	1
1	2	1
58	96	1
6	111	1
118	119	1
