133	133	14
72	72	3
130	130	4
82	82	2
131	131	5
112	112	2
86	86	6
117	122	1
20	20	3
73	73	1
81	82	2
32	38	1
105	106	1
11	11	3
93	94	3
138	138	5
107	108	3
79	81	1
84	84	1
124	125	2
96	115	1
87	87	4
121	121	6
37	38	3
115	115	3
0	0	2
26	27	2
117	119	3
125	127	1
128	128	5
109	109	9
14	14	2
95	128	1
104	105	1
116	116	2
8	9	2
10	10	3
113	113	1
129	129	3
19	19	2
13	14	1
18	18	2
78	110	1
83	85	1
117	118	1
114	118	1
17	17	2
118	118	6
10	11	2
102	102	2
119	122	1
116	124	1
93	93	2
104	104	4
7	7	3
127	128	2
105	105	5
33	33	2
79	117	5
116	123	1
101	114	1
101	101	7
108	109	5
126	126	1
103	105	1
3	4	2
1	2	1
2	2	4
90	91	1
75	75	2
123	123	5
130	133	1
78	79	1
78	82	1
96	125	1
97	97	3
83	84	1
110	110	5
37	37	5
6	6	3
9	12	2
4	5	2
107	107	3
102	103	3
105	112	1
111	111	6
80	80	4
119	119	4
92	127	1
100	100	2
103	103	7
90	90	2
89	89	7
12	19	2
104	111	1
79	79	2
77	77	5
10	12	2
124	124	3
76	76	4
4	4	3
91	92	3
108	111	1
102	108	1
11	13	1
36	36	3
121	122	1
129	130	1
16	16	6
120	120	6
89	91	1
95	95	3
108	121	1
9	9	1
85	85	2
35	35	2
28	31	1
1	1	2
128	129	1
81	81	2
34	34	1
106	106	7
118	122	1
114	114	4
80	81	3
73	74	2
13	13	2
28	28	4
98	116	1
109	111	2
105	109	2
90	92	1
133	134	2
76	80	2
120	121	3
118	119	2
111	117	1
16	17	2
136	136	2
71	89	1
113	114	1
19	20	1
117	117	2
99	115	1
94	134	1
34	37	1
71	95	1
108	108	3
103	104	1
122	122	5
114	115	3
71	73	1
139	139	1
134	134	2
77	102	1
85	86	1
94	94	1
125	125	3
12	12	1
71	94	1
17	18	1
71	101	1
119	120	3
72	73	1
140	140	1
117	123	2
82	83	2
132	133	2
12	14	3
76	112	1
89	90	1
98	99	2
138	139	1
96	96	1
137	137	3
78	78	1
110	111	2
117	120	2
91	91	1
111	112	1
132	132	1
137	138	1
37	130	1
17	34	1
5	6	1
111	119	1
77	78	2
12	15	1
135	135	2
31	31	1
106	108	1
99	99	1
103	110	1
101	102	1
122	123	1
0	1	1
110	115	1
4	6	1
72	99	1
109	126	1
3	3	1
104	107	1
86	87	1
99	111	1
27	27	2
41	74	1
98	135	1
31	38	1
73	119	1
98	98	1
74	74	1
79	80	1
80	117	1
96	133	1
90	116	1
