26	27	3
138	138	5
99	99	5
77	77	3
118	118	1
9	11	1
84	84	3
126	127	1
44	44	1
124	124	10
104	104	6
93	93	6
35	35	4
101	103	1
100	100	7
133	133	14
140	140	7
117	120	3
84	85	5
75	88	1
117	119	1
97	135	1
9	9	2
104	112	1
109	109	3
90	90	6
117	117	9
137	138	5
104	108	3
130	130	5
95	96	2
128	129	6
104	105	3
96	96	3
79	79	3
97	123	1
98	99	2
112	112	7
131	131	5
111	111	3
97	97	5
127	127	2
118	119	4
74	74	4
96	132	1
95	95	6
106	106	9
108	108	7
14	17	1
36	36	5
79	96	1
134	134	12
103	104	3
123	123	8
125	125	2
37	38	1
0	2	2
124	127	1
91	91	2
18	18	2
73	79	1
38	38	1
122	122	6
116	116	2
88	123	2
113	130	1
117	123	2
99	102	2
71	71	2
2	16	2
99	100	4
113	113	3
121	121	4
125	126	2
131	132	2
8	9	2
10	10	2
35	36	2
72	72	1
3	5	1
2	2	2
94	94	4
135	135	7
98	119	1
130	132	1
93	97	2
110	110	4
129	129	2
107	107	2
37	37	2
123	124	1
72	73	2
132	132	4
134	140	3
120	120	7
17	18	2
78	78	2
105	105	6
115	116	1
80	80	1
81	81	1
78	119	2
18	19	1
87	87	7
34	35	3
100	114	1
26	34	1
104	121	1
7	10	3
136	137	2
8	10	1
123	125	1
85	86	1
120	121	1
27	27	1
110	111	3
71	92	1
80	86	3
82	82	7
5	5	2
8	8	1
13	15	1
81	115	1
34	34	3
1	1	4
7	7	2
96	97	1
75	90	1
129	130	2
88	88	2
134	135	3
106	120	1
139	139	2
126	126	2
119	122	1
11	17	1
98	98	2
106	107	3
80	102	1
121	122	1
89	89	2
15	15	2
137	137	5
104	106	1
119	119	2
86	86	2
89	91	1
0	0	1
75	77	1
9	12	1
84	106	1
33	35	1
37	95	1
108	109	1
4	7	1
76	78	1
83	83	2
89	131	3
119	120	3
127	130	1
97	98	1
85	106	1
32	32	1
107	108	1
4	4	3
101	101	2
124	125	1
129	139	1
20	20	2
102	102	3
130	134	3
86	118	1
121	123	1
1	2	1
104	107	1
127	129	1
112	116	2
82	85	1
2	3	1
93	94	1
97	114	1
111	114	1
13	14	1
112	113	1
33	33	1
102	103	4
129	131	1
4	5	1
84	112	1
85	91	1
87	88	1
16	19	1
91	98	1
73	73	1
86	112	1
19	20	1
79	80	1
78	80	2
6	9	1
84	105	1
7	8	1
3	3	1
10	11	1
109	113	1
75	76	1
81	83	1
27	37	1
136	136	1
73	74	1
100	131	1
115	124	1
