195	195	3
118	118	2
187	192	1
60	60	1
93	93	3
124	124	5
172	176	2
183	184	1
50	51	1
38	38	7
15	15	4
61	79	3
128	128	2
24	24	5
135	135	2
9	9	7
36	36	4
15	16	1
152	152	1
34	35	1
137	137	1
167	167	3
179	179	3
40	41	2
194	194	3
5	5	5
61	61	1
38	183	2
184	184	3
44	44	10
41	41	2
48	48	2
138	138	2
122	122	3
143	145	2
197	197	5
172	172	1
27	29	1
158	158	3
107	107	1
135	136	1
188	192	1
174	177	1
193	193	2
176	176	4
7	7	3
59	59	1
186	186	2
13	14	1
72	72	1
164	172	1
71	72	1
142	192	2
37	78	1
190	192	2
30	31	2
158	166	1
126	126	2
63	63	2
39	39	3
13	13	4
93	112	1
171	171	4
47	47	8
150	150	4
147	147	3
121	121	2
42	42	3
60	61	1
140	140	4
37	37	3
109	109	1
21	21	3
152	163	2
155	155	3
53	54	1
27	27	2
73	73	3
97	97	2
123	123	2
181	181	3
36	38	1
185	185	1
34	34	3
26	26	2
11	12	2
131	131	1
88	88	2
66	66	2
14	14	2
183	183	1
21	22	1
142	142	1
139	139	1
119	119	2
153	154	1
189	189	1
68	68	3
19	19	1
10	10	5
80	80	4
104	104	1
113	114	2
18	18	2
0	26	1
32	32	1
85	97	1
5	7	1
143	143	4
17	17	1
10	11	2
49	49	2
55	56	1
121	122	2
152	160	1
141	141	3
145	145	3
0	4	1
106	107	1
84	84	1
101	108	1
121	160	1
87	87	1
45	59	1
147	148	1
58	58	1
54	55	1
109	111	1
187	188	1
53	53	1
47	48	3
40	40	1
168	187	1
115	115	1
112	112	3
103	103	1
160	160	1
20	22	1
69	70	1
119	171	1
30	30	1
46	46	2
16	17	1
159	166	1
53	130	1
43	43	1
98	98	2
186	194	1
114	114	2
189	190	2
121	149	1
108	108	1
14	15	2
111	111	1
13	184	1
29	31	1
43	127	1
0	0	2
4	5	1
81	81	1
78	78	1
145	149	1
28	28	2
117	118	2
3	3	1
51	51	5
183	185	1
95	96	1
56	57	1
10	101	2
149	149	2
169	169	1
26	27	2
110	111	1
95	95	1
67	70	1
123	124	3
159	159	2
24	34	1
39	136	1
57	57	1
59	60	2
9	10	1
132	132	2
7	177	1
69	69	2
134	135	1
65	65	1
24	25	1
23	23	1
62	62	1
118	159	1
22	23	1
64	64	1
196	196	2
133	135	1
168	176	2
182	184	1
18	20	1
101	113	1
11	11	2
190	191	2
70	70	1
46	52	1
181	182	1
163	163	1
177	177	1
161	161	2
46	47	2
134	134	1
13	123	1
4	4	2
76	77	1
34	37	2
188	191	1
144	144	1
98	133	1
121	165	1
23	24	1
110	110	2
19	20	1
82	82	2
114	177	1
168	169	1
98	107	1
13	126	1
48	49	1
154	155	1
21	47	1
133	133	1
182	182	1
12	12	3
140	141	2
82	85	1
94	94	1
146	159	1
2	3	1
162	164	1
153	168	1
156	156	1
97	114	1
168	168	2
115	116	1
142	196	1
45	45	1
35	36	1
3	4	1
31	31	1
171	172	1
27	122	1
130	130	1
101	105	1
173	173	1
189	193	1
56	56	1
20	25	1
149	150	1
166	166	1
35	35	1
29	29	1
118	119	1
148	148	1
110	112	1
106	110	1
15	17	1
20	20	1
192	193	1
16	16	1
