164	164	2
173	173	1
72	73	1
13	13	2
55	55	2
126	127	2
175	176	2
54	174	1
134	135	1
187	187	4
108	155	1
73	109	1
141	142	2
33	33	1
123	123	3
102	102	4
27	29	1
166	167	1
70	70	3
114	114	1
125	125	1
14	14	5
90	98	1
39	39	1
27	27	1
30	30	7
40	40	4
0	0	3
27	28	1
141	141	1
170	190	1
57	57	3
130	130	6
7	7	2
139	144	1
140	140	3
174	174	1
56	56	3
124	139	1
171	171	3
148	189	1
29	29	1
107	108	2
160	160	1
143	143	3
54	54	3
98	98	3
167	167	2
142	142	4
148	148	3
146	146	3
175	175	1
116	118	4
152	153	1
74	75	1
75	153	1
88	89	1
64	64	3
89	90	1
30	66	1
156	156	2
63	63	1
38	38	2
100	100	2
146	183	1
87	87	3
176	176	4
58	59	2
92	92	3
28	28	2
180	180	3
10	10	2
121	121	1
72	72	3
83	83	2
122	122	1
149	150	2
23	23	3
53	176	1
150	167	3
27	41	1
18	19	2
106	106	1
30	32	1
24	24	1
91	91	2
45	45	2
184	184	1
157	157	4
75	76	1
85	85	1
81	124	1
94	97	1
139	139	2
82	82	1
125	136	1
52	52	1
43	43	2
138	138	1
73	73	1
181	181	1
113	114	1
35	35	4
108	111	1
149	149	1
77	77	3
127	131	1
94	100	1
104	104	3
185	185	4
117	118	2
6	6	7
18	18	1
161	161	1
13	22	1
97	131	1
182	182	2
20	20	1
84	84	3
95	95	1
169	171	1
155	164	1
25	25	5
68	68	1
101	105	2
115	115	4
45	47	1
67	68	2
151	152	1
190	190	1
172	172	2
103	103	3
53	53	3
9	9	1
21	21	3
1	1	3
138	167	1
32	32	3
60	60	3
61	62	2
137	138	1
12	13	2
79	79	2
91	97	1
3	3	1
12	12	3
74	92	1
72	109	1
76	76	1
154	154	2
66	66	3
132	132	2
48	136	1
127	129	4
129	159	1
15	15	1
168	168	1
43	44	1
109	111	1
152	187	1
4	4	2
74	74	3
131	131	1
17	17	2
74	128	1
105	132	1
91	92	3
122	123	1
81	125	1
55	59	1
99	100	3
136	137	1
169	169	3
128	134	1
1	2	1
137	137	2
139	148	1
95	96	1
80	81	1
56	110	1
36	38	1
150	162	1
84	86	1
143	166	2
80	80	1
11	11	3
113	113	2
27	33	1
27	32	1
18	21	1
178	178	1
81	82	1
71	71	2
129	130	1
4	5	1
112	112	1
65	65	1
1	25	1
116	116	3
177	179	1
118	118	2
46	47	1
31	32	1
42	42	1
172	188	1
69	69	1
60	61	2
113	155	1
112	115	2
26	26	1
96	104	1
177	178	1
135	148	1
102	103	1
173	174	1
120	120	1
81	81	3
180	182	1
34	34	1
184	185	1
109	109	1
167	168	1
53	54	1
73	74	1
86	187	1
177	177	1
75	75	2
47	47	2
121	122	1
64	65	2
147	147	1
78	78	3
165	165	1
117	117	1
168	173	1
129	166	1
58	58	2
153	153	2
16	17	1
186	187	2
24	25	1
13	14	1
44	46	1
2	24	1
189	189	1
188	188	1
19	22	1
169	170	1
142	162	1
93	93	1
8	8	1
23	46	1
96	96	1
59	59	2
89	122	1
110	111	1
33	34	1
148	149	1
179	180	1
54	63	1
88	188	1
167	173	1
160	163	1
110	113	1
88	123	1
