127	129	2
98	98	3
87	94	1
116	117	1
97	98	1
75	75	6
127	127	4
86	94	1
11	11	3
54	54	3
120	120	2
80	94	1
37	37	8
152	152	2
129	129	2
132	145	2
138	138	2
30	30	3
136	136	6
169	169	7
164	164	2
109	112	2
72	72	4
172	172	2
77	89	1
126	126	3
133	133	4
97	97	4
160	160	2
9	10	3
162	165	1
64	65	7
29	29	2
101	107	3
168	168	1
111	114	1
138	139	3
6	17	1
171	171	7
104	108	2
45	45	3
96	96	5
61	63	1
35	35	3
14	20	1
27	28	1
39	42	2
21	21	4
73	73	3
19	19	3
113	118	1
30	33	3
95	95	4
0	13	1
142	143	2
63	79	2
8	8	4
25	25	1
173	173	4
57	57	4
62	62	3
139	139	6
57	60	1
3	4	1
91	106	2
85	91	1
150	153	1
2	5	2
137	138	2
149	160	1
16	16	6
179	179	2
149	149	5
142	142	8
63	63	2
160	164	1
173	177	1
77	79	1
66	87	1
44	44	4
10	53	1
38	38	2
170	171	2
68	68	5
178	179	2
128	129	1
148	148	4
147	148	1
58	58	1
1	1	1
88	88	6
137	143	2
4	4	3
176	176	1
130	130	2
32	32	3
117	117	1
172	173	2
99	99	2
105	105	1
12	22	1
44	52	1
100	100	2
77	132	3
180	180	1
20	27	1
64	64	2
23	23	4
92	93	2
52	56	1
150	150	4
157	169	1
79	79	2
0	0	3
132	133	2
176	180	2
72	135	1
171	172	1
137	137	4
94	95	2
141	141	3
123	125	2
41	41	1
16	24	1
161	163	1
160	174	3
71	71	5
174	178	1
37	38	2
87	95	1
118	118	2
90	104	1
76	76	3
104	118	2
170	173	1
0	4	1
6	6	2
77	77	2
83	98	1
53	53	3
172	175	1
79	145	1
142	144	1
124	124	2
94	96	1
29	32	1
88	95	1
10	10	8
3	3	4
8	11	2
16	38	2
157	158	2
89	90	1
21	40	1
7	15	1
60	67	1
107	107	2
156	157	1
111	111	4
18	27	1
116	129	1
134	137	2
55	55	1
114	114	2
149	157	2
60	163	1
79	95	2
147	147	7
39	39	4
85	86	1
99	101	2
174	174	2
9	24	1
123	129	1
31	31	3
123	123	2
33	34	2
53	54	1
167	167	3
159	161	3
132	170	1
2	3	3
0	37	1
145	145	2
117	121	1
14	37	1
18	22	1
111	112	1
165	173	1
11	12	2
114	126	1
95	105	1
116	116	2
31	35	1
108	111	2
170	170	3
108	108	3
145	146	2
28	28	4
133	135	2
61	65	1
143	143	2
166	170	2
99	100	2
164	180	2
22	22	1
14	14	1
81	81	1
133	138	2
2	2	3
83	83	1
23	35	1
95	107	2
119	127	1
135	135	5
65	66	1
153	153	6
162	170	1
164	165	1
133	137	1
150	170	1
122	122	3
120	126	1
60	64	1
19	20	1
78	79	2
21	36	1
112	118	2
155	155	1
43	43	2
145	167	1
13	16	1
24	25	1
4	6	1
35	37	1
103	103	3
83	84	1
174	180	1
62	67	2
134	134	5
101	106	1
54	55	1
100	106	1
15	26	1
58	59	1
40	43	2
88	92	1
22	28	2
169	175	1
139	149	2
3	34	1
154	154	2
119	119	1
15	15	1
9	9	1
166	166	2
85	85	1
34	34	2
132	132	5
31	32	2
94	94	1
2	4	1
142	151	1
144	144	2
110	111	1
22	23	1
64	66	1
104	104	3
7	16	1
178	178	6
2	16	1
116	121	1
81	83	1
61	66	1
13	60	1
99	107	1
90	90	4
61	61	1
66	66	3
136	137	1
158	158	4
98	101	1
62	75	1
160	162	2
78	87	2
138	156	1
86	87	2
133	134	1
37	45	1
56	61	1
57	72	1
12	14	2
87	87	3
8	15	1
35	45	2
138	143	2
134	139	1
96	97	1
155	156	1
73	112	2
153	161	1
120	125	1
79	111	1
50	51	2
115	126	1
44	45	2
112	112	1
36	43	1
131	169	2
161	161	2
154	172	1
146	150	1
42	42	2
100	109	2
72	81	1
177	177	1
61	64	2
57	133	1
20	21	1
151	151	2
64	67	1
131	150	2
173	174	1
81	82	1
36	36	3
16	23	1
91	99	1
83	100	1
154	164	1
131	131	1
54	61	1
33	33	3
92	92	3
52	58	1
32	33	1
51	51	3
91	91	1
136	139	1
28	30	2
27	38	1
105	112	1
143	156	1
148	150	1
9	19	1
148	160	1
98	109	1
102	103	1
166	167	1
100	119	1
147	162	1
126	127	1
85	175	1
102	102	1
109	109	2
35	40	1
67	68	1
164	172	1
67	67	1
165	172	1
78	132	1
114	116	1
133	149	1
78	78	1
39	55	1
66	68	1
125	125	1
77	93	1
163	163	1
114	115	1
120	122	1
108	110	1
135	153	1
39	40	2
1	6	1
70	80	1
82	91	1
176	178	1
10	11	1
50	50	3
169	172	1
163	170	1
112	124	1
141	142	1
31	40	1
135	137	1
168	169	2
80	81	1
111	124	1
42	60	1
109	115	1
131	132	1
134	149	2
104	106	1
133	139	1
91	92	1
33	35	1
150	171	1
114	131	1
79	80	1
97	100	1
118	128	1
101	101	1
75	76	1
18	18	3
90	91	1
93	98	1
139	140	1
17	17	2
89	89	1
20	22	1
75	79	1
122	135	1
5	5	1
157	157	1
159	159	1
162	164	1
29	31	1
83	99	1
24	30	1
49	49	1
167	173	1
15	16	1
77	78	1
71	78	1
156	164	1
120	128	1
168	176	1
140	141	1
73	82	1
88	93	1
165	166	1
143	146	1
123	133	1
95	96	1
6	7	1
4	5	1
86	90	1
83	128	1
71	72	1
101	104	1
115	119	1
117	128	1
156	156	1
99	103	1
108	116	1
39	71	1
76	132	1
110	115	2
89	99	1
52	52	1
175	176	1
62	102	1
29	33	1
143	147	1
84	91	1
0	16	1
141	148	1
164	166	1
23	26	1
140	140	1
38	39	1
41	53	1
23	29	1
58	120	1
159	172	1
55	59	1
14	16	1
53	56	1
163	164	1
22	80	1
137	139	1
96	128	1
7	8	1
13	14	1
18	37	1
6	16	1
129	130	1
100	101	1
10	23	1
73	100	1
