104	104	4
7	139	1
70	70	7
30	39	1
140	140	11
130	138	1
144	144	7
79	80	3
44	44	3
132	132	10
121	121	7
132	153	1
149	149	4
120	147	1
66	75	1
156	156	11
64	65	1
75	96	1
67	127	1
150	150	2
106	106	8
48	49	1
51	51	5
6	6	4
127	127	11
134	136	3
105	130	2
103	103	6
47	47	3
154	154	9
115	116	3
157	157	8
133	134	2
2	3	1
16	16	6
19	19	5
11	29	1
86	90	1
107	131	1
141	141	10
45	45	10
4	38	1
7	104	1
129	130	1
8	11	1
20	20	7
39	40	2
79	79	3
50	50	4
117	117	11
104	135	1
100	100	5
114	115	1
147	147	9
119	119	4
104	105	4
92	92	3
21	21	6
107	130	1
139	139	9
38	38	5
70	77	1
122	122	4
108	110	2
97	97	5
86	86	9
137	137	17
113	113	8
103	132	1
5	12	1
12	12	5
143	148	1
111	123	3
111	136	2
33	33	4
16	65	1
146	147	7
67	67	5
121	122	4
11	11	8
38	40	1
39	39	5
130	130	6
148	148	8
14	19	1
12	14	2
1	1	1
115	144	3
41	44	1
130	131	2
113	114	4
84	84	5
87	91	1
62	68	1
52	52	5
153	153	2
117	119	3
118	118	9
68	69	4
112	114	2
21	22	1
135	135	13
9	40	1
131	131	7
78	79	1
135	136	3
17	17	4
47	53	2
30	30	7
73	73	6
124	125	6
134	144	1
71	150	1
10	10	7
137	144	1
50	71	1
116	116	10
86	92	1
128	148	1
103	104	1
34	34	9
102	102	2
107	107	11
122	123	2
8	8	6
125	125	8
131	132	3
118	141	1
126	126	6
112	112	8
65	71	1
105	105	8
133	133	5
115	118	1
115	115	13
148	149	2
22	77	1
91	91	5
146	154	1
4	6	1
65	81	2
110	110	2
55	55	3
112	113	2
81	85	1
52	53	5
85	85	3
109	110	4
79	82	1
79	90	1
77	82	1
40	41	1
9	9	2
96	96	9
34	89	1
151	151	6
101	101	6
119	151	1
56	57	1
95	95	5
94	120	1
2	2	5
4	4	6
142	149	1
9	94	1
139	151	1
93	94	5
123	124	5
142	142	12
14	15	2
92	146	1
27	27	3
110	143	2
0	0	5
94	94	6
89	89	3
124	140	1
123	125	2
20	28	1
98	98	7
123	146	1
155	155	7
77	92	1
147	149	1
46	46	3
102	133	1
8	12	1
130	151	1
69	73	1
112	134	1
141	155	1
47	54	1
63	63	4
5	5	5
111	112	1
14	16	1
31	31	2
152	152	3
22	35	1
84	86	1
111	111	6
125	126	1
145	146	1
81	81	9
109	109	5
39	42	2
19	32	1
87	108	1
157	158	3
25	26	3
158	158	6
135	140	1
95	111	1
110	116	1
104	122	4
119	133	1
140	141	1
69	69	4
1	23	1
118	147	2
96	142	2
55	56	2
77	77	3
119	121	2
153	154	3
114	114	9
75	75	7
131	136	1
50	53	1
155	156	4
108	109	5
116	133	1
145	145	11
36	36	5
25	25	4
99	99	11
56	56	4
134	134	5
13	14	1
128	129	1
43	44	2
142	153	1
112	126	1
20	23	2
83	83	4
112	116	1
91	100	1
62	62	2
26	26	4
30	82	1
85	108	1
123	123	7
144	152	1
54	54	3
143	143	4
138	138	9
85	90	1
62	69	1
134	138	1
136	137	2
122	144	2
113	117	1
40	40	5
124	124	6
29	29	9
101	127	1
52	84	1
107	116	1
0	20	1
27	28	1
46	95	1
135	155	3
48	48	5
108	108	9
50	51	3
90	90	4
77	125	1
91	98	1
16	48	2
33	34	3
119	120	2
13	13	3
124	126	1
125	141	1
147	148	2
83	119	1
115	136	1
38	39	1
128	128	8
108	141	1
23	24	3
18	42	3
138	139	3
85	122	1
7	7	8
149	152	1
49	50	1
127	142	1
6	13	1
72	72	4
154	155	3
129	141	1
37	39	1
41	46	1
119	156	2
132	155	2
61	61	1
75	115	1
99	107	2
4	5	1
138	140	1
72	75	1
22	66	1
70	71	1
120	120	4
120	141	1
71	71	3
67	69	3
65	65	4
87	87	2
129	129	3
82	82	5
28	29	2
120	123	1
137	138	2
20	96	3
16	51	2
139	142	1
92	148	1
95	96	4
139	140	3
84	130	1
123	130	2
121	147	1
117	118	1
101	102	1
109	111	1
53	53	4
117	140	1
16	35	1
111	116	1
149	151	1
109	127	1
40	137	1
32	32	3
8	9	2
30	31	2
40	52	1
70	95	1
17	80	1
155	157	2
110	120	2
73	98	1
137	143	2
122	135	1
4	7	2
118	136	1
34	46	1
15	15	1
91	112	1
23	23	3
38	130	2
110	157	1
137	141	1
28	30	1
48	56	1
66	99	1
1	4	1
81	83	1
22	140	1
50	133	1
28	35	1
86	88	3
5	31	1
67	70	1
42	43	2
126	144	1
37	37	4
94	113	1
127	149	1
113	147	1
97	98	1
55	140	1
142	144	4
136	136	4
10	11	2
153	156	1
70	73	1
135	137	1
28	44	1
81	82	1
42	42	1
73	111	1
90	143	2
115	127	2
146	146	4
3	3	7
75	107	1
120	132	1
22	28	1
11	12	1
66	66	4
85	86	2
118	151	1
100	101	1
138	157	1
105	122	1
6	22	1
80	82	2
66	89	1
117	135	1
110	111	2
1	2	2
55	137	1
52	107	1
28	28	2
48	50	1
19	41	1
83	86	1
80	80	1
64	64	3
12	13	1
24	24	2
74	75	1
93	93	3
39	46	1
82	86	1
93	126	1
139	141	1
131	134	1
80	107	1
118	152	1
82	118	1
87	93	1
82	85	1
18	32	1
10	12	2
4	8	1
68	68	3
49	49	3
93	95	2
95	150	1
144	147	1
99	100	1
22	22	3
108	112	1
51	52	2
64	80	1
55	136	1
26	29	1
68	70	1
14	14	3
66	72	1
117	156	1
137	139	1
91	92	1
10	18	1
75	76	1
48	83	1
77	95	2
107	118	1
33	136	1
134	137	1
63	64	2
93	98	1
156	157	1
7	105	1
122	138	1
87	107	1
140	149	1
87	116	1
78	137	1
110	122	1
76	76	1
135	138	2
126	145	1
32	87	1
98	102	1
18	18	3
86	87	1
107	108	1
30	120	1
101	151	1
19	20	1
52	63	1
77	112	1
24	27	1
10	28	1
29	70	1
106	107	2
9	46	1
23	86	1
16	20	1
142	145	1
138	145	1
35	36	2
132	134	1
29	51	1
127	141	1
69	109	1
0	5	1
88	88	2
67	89	1
21	108	1
30	133	1
7	14	1
62	64	1
41	41	4
93	119	1
138	156	1
27	29	1
41	135	1
23	51	2
43	158	1
54	76	1
43	43	2
20	40	1
117	141	1
93	115	1
105	125	1
37	70	1
0	9	1
126	129	1
105	111	1
23	46	1
17	42	1
87	89	1
116	129	1
120	155	1
37	48	1
119	142	1
150	155	1
3	8	1
105	110	1
156	158	2
7	21	1
53	119	1
64	95	1
32	37	1
144	148	1
17	18	1
120	122	1
3	140	1
89	122	1
11	33	2
78	78	3
128	156	1
17	86	1
84	85	1
127	128	2
77	107	1
100	130	1
88	89	1
85	95	1
15	53	1
47	48	1
125	134	1
70	81	1
36	135	1
72	83	1
88	91	1
134	152	1
132	149	1
155	158	1
119	131	1
130	135	1
150	151	1
87	141	1
150	152	1
45	47	1
24	25	1
13	16	1
133	147	1
76	77	2
89	96	1
6	44	1
122	155	1
4	9	1
138	154	1
30	32	1
47	129	1
16	67	1
17	49	1
120	143	1
117	128	2
70	112	1
3	30	1
105	120	1
90	106	1
99	132	1
87	88	1
132	133	1
63	110	1
73	74	1
66	67	1
84	87	1
31	32	2
91	127	1
125	139	1
69	111	1
132	156	1
9	11	1
141	147	1
85	104	1
21	44	1
115	117	1
77	78	1
48	78	1
133	141	1
50	64	1
52	57	1
71	73	1
116	144	1
52	54	1
102	103	1
129	135	1
45	64	1
7	83	1
40	67	1
108	115	1
7	8	1
142	150	1
43	47	1
