20	20	2
74	74	3
110	110	3
81	90	1
14	14	2
94	95	3
32	32	1
33	33	6
46	46	6
47	47	5
23	23	3
64	64	5
126	126	4
74	76	1
94	94	1
68	68	3
47	81	1
99	125	2
97	97	1
70	70	5
2	28	2
115	118	1
3	3	3
118	118	1
12	23	2
81	81	3
9	9	2
120	121	4
55	55	6
41	43	1
51	51	3
108	109	2
65	67	1
28	29	1
58	58	4
75	91	1
61	61	2
56	56	3
59	59	1
25	26	4
83	83	1
120	120	4
12	12	2
49	114	1
89	89	1
133	133	1
95	95	3
26	62	1
65	65	5
49	110	2
4	5	1
106	107	1
111	112	2
76	76	3
53	54	1
26	26	2
27	27	3
100	100	3
123	123	1
106	106	2
65	112	1
60	61	1
98	98	1
76	97	2
59	95	1
82	91	1
46	47	1
26	38	1
102	102	2
117	117	4
53	53	3
45	45	3
85	85	2
111	111	4
79	99	1
84	84	1
88	88	3
21	21	3
119	119	2
98	103	1
107	107	2
83	98	1
113	113	4
43	43	2
121	122	2
44	45	1
127	127	2
109	109	5
85	101	1
8	8	1
57	57	2
4	4	2
47	52	1
69	69	4
71	75	1
66	68	1
112	112	3
24	24	1
115	115	4
101	101	3
88	91	1
116	116	3
65	66	4
45	67	1
22	22	3
50	50	3
97	103	1
79	79	1
118	120	1
16	16	2
117	118	1
56	57	1
125	125	2
72	72	2
132	132	4
15	17	1
75	89	1
80	80	3
25	25	1
66	67	1
67	67	3
104	104	2
19	19	2
41	41	1
54	54	3
68	75	1
100	101	2
113	114	1
30	31	1
39	39	2
129	129	2
47	70	1
7	7	3
17	17	3
74	100	1
12	53	1
42	95	2
25	69	3
96	96	3
48	48	4
102	104	1
66	112	1
40	44	2
73	74	3
45	58	1
124	124	3
51	132	1
58	62	1
105	105	1
23	24	1
86	86	2
4	68	1
40	46	1
77	89	1
66	66	1
5	5	2
77	77	1
28	28	3
88	90	1
50	51	1
114	118	1
52	53	1
29	30	2
13	25	1
56	95	1
102	130	1
109	110	2
92	132	1
20	21	1
131	132	2
38	38	3
92	92	2
64	68	2
40	40	1
70	71	1
6	6	1
2	2	1
27	28	2
61	62	1
82	83	1
65	68	1
73	73	2
71	71	3
118	119	1
51	52	1
5	6	1
78	80	1
0	112	1
24	25	2
11	12	1
11	13	1
108	108	2
108	116	1
63	63	1
88	89	1
64	66	1
76	110	1
81	99	1
55	114	1
47	91	1
49	49	1
103	103	1
119	120	1
68	69	1
64	65	1
31	31	1
15	16	1
71	72	1
93	93	2
52	69	1
113	117	1
78	79	1
39	40	1
52	52	3
126	127	1
77	79	1
92	113	2
89	94	1
2	3	1
121	123	1
58	60	1
44	44	1
116	117	1
131	131	1
9	10	1
75	75	1
128	128	2
45	60	1
114	114	2
28	31	1
22	24	1
10	11	1
31	56	1
57	71	1
84	87	1
104	127	1
85	95	1
48	49	1
1	1	1
30	30	1
0	1	1
18	34	1
