52	66	2
73	73	2
72	72	3
8	56	1
6	6	3
136	136	2
94	94	3
92	92	3
133	133	2
55	57	1
70	94	1
36	37	4
86	108	2
129	129	1
76	76	3
27	27	3
48	48	2
8	25	1
119	119	2
123	125	1
79	79	4
94	95	2
51	53	2
32	33	1
118	118	3
60	60	1
13	14	2
137	137	3
117	118	4
97	97	4
119	122	2
86	90	1
106	106	1
47	47	1
8	9	1
112	112	5
104	104	1
122	122	2
131	131	1
65	66	2
121	123	1
89	89	2
105	105	3
68	68	1
54	54	4
0	1	2
88	89	4
77	78	2
55	55	2
59	74	1
109	109	1
116	116	1
79	107	1
15	16	1
131	135	1
49	49	4
76	77	1
123	123	1
2	5	1
87	87	3
141	141	2
140	140	6
64	65	1
82	82	2
114	114	1
65	65	1
86	86	1
56	56	2
114	119	1
69	69	1
85	85	3
83	84	3
66	69	2
93	94	2
143	144	1
18	18	1
78	78	1
72	73	3
42	42	3
9	9	4
89	90	3
42	57	2
58	60	2
39	88	2
117	117	1
126	129	2
90	90	1
90	120	1
69	104	1
1	17	1
26	42	1
131	133	1
57	59	1
133	135	1
10	10	3
88	88	2
74	74	2
31	33	1
13	13	1
2	3	1
111	111	1
53	55	1
130	130	1
11	11	2
27	28	2
63	64	1
99	100	1
5	5	2
139	139	2
127	131	1
118	119	3
17	18	2
38	38	1
47	48	2
110	110	2
30	31	1
35	89	1
54	55	1
129	140	1
52	52	2
36	36	2
84	84	2
77	77	2
70	70	1
107	107	1
125	125	1
90	91	1
144	144	1
14	14	1
75	75	2
18	20	1
29	29	2
132	132	2
15	15	2
31	38	1
23	23	1
95	95	1
34	36	1
31	31	2
48	66	1
54	57	1
112	133	1
4	35	1
134	139	2
6	35	1
59	59	1
50	50	1
34	34	2
102	106	1
70	72	1
33	36	2
80	80	1
63	65	1
133	134	1
114	117	2
74	75	2
60	76	1
66	67	1
34	35	1
33	35	1
128	129	1
127	128	1
53	54	1
112	122	1
2	2	1
113	113	1
30	30	1
49	53	2
21	42	1
91	94	1
102	102	1
111	112	1
60	63	1
97	100	1
64	66	1
136	137	1
135	135	1
103	105	1
79	80	1
35	35	1
136	139	1
35	36	2
20	20	1
96	96	1
107	108	1
108	109	1
87	113	1
82	104	1
110	114	1
63	63	1
14	24	2
76	78	1
40	40	1
3	3	1
122	127	1
124	133	1
