96	122	1
17	17	3
19	142	1
77	91	1
144	144	3
157	157	7
111	111	4
69	69	3
64	86	1
8	9	2
105	159	1
141	141	6
154	154	6
153	153	4
140	142	1
39	43	1
132	132	6
110	110	8
130	130	5
71	71	4
101	101	6
57	57	1
31	31	5
0	0	2
17	47	1
156	156	4
3	3	4
63	63	3
87	88	1
52	53	1
95	96	1
139	139	4
105	106	2
23	24	1
136	136	3
88	89	3
99	99	6
134	134	9
111	158	1
128	128	6
3	4	2
114	115	2
113	113	6
91	93	2
53	53	5
108	108	4
63	64	1
137	137	9
116	124	1
70	91	2
21	107	1
27	28	2
29	30	3
21	21	4
90	91	2
131	131	6
90	95	1
127	127	5
72	72	1
36	133	2
158	158	3
148	148	3
135	137	6
46	47	1
87	106	1
52	54	1
43	43	4
81	85	1
39	40	1
65	65	2
20	41	1
113	114	6
154	155	1
100	101	1
108	113	1
150	150	5
98	98	5
90	90	3
127	137	1
122	125	1
104	104	2
56	64	1
38	39	1
114	117	1
134	141	1
50	64	1
11	20	1
34	34	3
78	78	8
128	148	1
50	50	7
10	10	3
5	5	2
142	143	3
68	68	5
144	153	1
96	130	1
120	147	1
54	55	1
108	111	1
135	151	2
149	149	2
147	147	3
69	91	2
132	133	4
81	81	1
88	104	1
94	94	2
102	104	1
30	30	2
37	37	5
140	141	1
36	127	1
131	133	1
102	103	1
82	82	3
36	36	4
147	149	1
130	132	3
40	125	1
135	135	4
113	116	1
109	110	2
140	140	4
26	26	1
109	109	5
54	56	1
112	135	2
17	19	2
146	147	3
133	134	2
12	13	2
19	19	6
149	157	1
112	116	1
75	75	3
73	106	1
51	51	1
122	141	1
73	73	3
121	137	1
114	114	5
139	141	1
97	97	4
120	120	3
119	122	2
31	36	1
42	42	4
12	50	1
1	1	5
96	96	3
13	13	4
16	16	3
107	149	1
81	82	3
65	66	1
129	140	1
126	126	4
79	79	3
87	87	5
83	83	3
111	112	2
130	152	1
91	91	2
97	105	1
70	70	2
65	70	1
112	115	1
92	92	5
23	26	1
122	123	2
100	100	3
22	22	4
69	70	3
41	78	1
88	88	5
126	137	1
40	43	1
105	105	3
142	142	1
18	20	2
20	20	3
107	107	5
95	115	2
19	20	3
112	112	3
31	52	1
143	143	1
23	36	1
47	67	2
21	31	1
67	67	3
15	15	3
70	71	1
119	119	4
124	124	2
46	46	4
113	120	1
44	44	2
151	156	3
95	95	3
2	2	3
120	121	2
139	140	1
108	117	1
56	56	1
103	104	1
62	62	3
52	52	1
1	3	2
123	123	4
117	117	2
38	40	1
80	82	2
143	144	1
133	133	2
24	24	1
127	134	1
33	33	4
125	125	3
115	125	1
15	16	2
118	118	2
147	148	2
94	95	1
97	98	1
99	100	1
26	27	2
66	67	3
88	113	1
130	131	2
48	49	1
134	140	2
119	120	1
129	129	3
53	90	2
152	153	4
93	93	1
81	86	1
82	83	1
152	152	4
56	57	1
14	14	3
0	44	1
34	35	1
125	147	1
77	77	2
32	34	1
153	154	1
144	145	3
108	141	2
121	121	3
68	71	1
49	49	5
127	149	1
14	135	2
9	9	3
150	151	1
47	47	3
121	148	1
112	113	1
103	149	2
53	56	1
65	69	1
1	2	1
144	146	1
107	108	1
135	138	2
66	68	1
121	138	2
71	154	2
138	138	4
48	48	1
68	86	1
127	141	1
84	85	2
56	66	1
89	90	1
154	156	1
18	22	1
106	106	2
46	48	1
106	107	1
93	115	1
35	35	3
11	11	3
129	152	1
127	135	1
8	8	1
113	136	1
95	140	1
117	144	1
34	39	1
29	29	4
119	131	1
18	18	3
10	18	1
28	119	1
25	25	2
70	105	2
146	146	1
118	119	1
12	47	1
108	109	3
138	139	1
86	86	3
68	129	1
98	127	1
11	40	1
45	46	1
72	112	1
89	89	2
122	122	2
96	106	1
100	150	1
18	19	1
86	91	1
40	40	1
145	147	1
136	153	2
8	12	1
124	146	2
32	32	1
30	113	1
25	45	1
129	135	1
155	156	1
120	124	1
6	6	1
111	113	1
22	27	1
14	15	1
29	105	1
116	149	1
80	81	1
120	122	2
21	22	2
106	112	1
141	144	1
21	38	1
129	132	1
151	151	1
21	140	1
150	155	1
42	43	1
38	50	1
69	92	1
129	130	1
10	15	1
119	148	1
108	122	1
49	53	1
113	123	1
96	102	1
39	61	1
122	156	1
94	113	1
54	54	1
116	128	1
36	37	2
145	145	1
141	146	1
85	85	1
25	26	2
68	69	1
33	127	1
116	116	4
127	128	1
134	135	2
105	131	1
110	122	1
155	155	2
107	151	1
139	146	1
102	111	1
62	63	1
49	77	1
121	122	1
98	138	1
50	135	1
87	89	1
151	152	1
113	142	1
50	51	2
64	91	1
71	84	1
131	132	1
143	147	1
53	87	1
112	154	1
122	145	1
138	140	1
39	42	1
115	115	1
61	105	1
78	82	1
105	115	1
107	112	1
120	139	1
128	130	1
109	116	1
55	65	1
127	138	1
78	79	1
55	105	1
129	138	1
80	80	1
11	12	1
85	92	1
159	159	1
94	122	1
114	150	1
30	32	1
26	36	1
