2	2	3
129	129	1
131	133	1
85	88	2
152	159	2
93	93	1
55	55	7
60	61	3
134	134	3
162	163	2
73	73	5
60	62	1
83	84	3
29	29	2
0	15	3
156	157	2
166	168	1
12	12	1
133	133	1
4	4	2
114	114	7
169	169	1
56	56	3
171	172	2
92	92	4
156	177	1
150	150	1
19	20	1
9	10	2
103	119	1
45	146	1
148	152	1
146	146	5
56	78	4
6	6	3
107	111	1
14	14	3
181	181	2
116	125	1
188	190	5
53	54	2
22	22	2
27	28	1
90	90	3
60	60	4
171	176	1
6	7	3
75	76	3
157	157	1
31	31	2
25	25	1
106	107	2
117	117	2
113	113	3
189	190	1
65	66	2
116	116	1
68	68	1
110	113	2
108	114	1
48	48	4
61	64	1
95	128	2
176	176	2
58	59	1
65	117	1
154	154	6
135	135	1
69	90	1
140	154	1
153	154	2
48	98	1
92	116	1
165	189	2
95	95	4
35	35	2
145	182	1
123	123	1
162	162	1
111	122	2
121	163	1
116	118	2
158	158	1
179	180	2
61	61	1
62	62	1
144	144	1
79	81	1
170	173	1
156	180	1
10	10	7
99	99	2
52	55	1
115	115	1
167	167	2
18	21	1
168	169	1
173	173	1
180	180	3
140	140	1
99	100	2
185	185	2
112	112	3
127	128	1
148	148	1
15	16	4
177	177	3
172	173	1
88	88	3
110	110	3
82	88	2
127	139	1
156	158	1
83	83	1
30	30	1
67	68	1
76	77	2
77	78	1
77	77	2
127	127	1
13	17	1
114	118	1
86	86	1
134	136	4
46	47	6
5	5	3
92	95	1
18	20	3
186	186	1
140	145	1
142	142	2
24	24	1
0	0	2
1	2	1
71	92	1
118	118	2
129	178	2
130	131	2
179	179	1
64	64	2
94	94	1
79	79	4
10	15	1
96	97	2
11	11	2
81	81	1
30	31	1
5	15	1
138	138	2
72	74	1
3	3	1
44	46	2
164	165	1
40	40	2
128	128	2
71	71	1
168	168	2
66	66	1
8	8	2
21	21	2
23	23	2
91	94	1
38	38	1
31	33	3
68	76	1
16	16	1
70	70	3
52	52	1
108	108	3
95	110	1
26	26	1
62	64	1
81	82	2
45	45	2
169	171	1
155	178	2
136	138	2
175	177	1
108	109	1
74	111	1
134	150	1
90	94	1
62	66	2
95	96	1
39	40	1
32	32	1
72	72	4
166	169	2
164	164	3
53	53	1
130	140	1
43	45	1
75	75	1
141	142	1
83	141	1
42	47	2
7	7	4
183	185	1
92	93	1
101	103	1
66	70	1
133	135	1
111	112	1
74	74	1
160	160	3
28	28	3
109	110	1
162	168	1
2	3	1
181	186	1
132	164	1
171	173	1
95	154	2
101	102	3
149	149	1
76	76	1
58	61	2
94	95	1
98	98	2
55	57	1
8	12	1
46	46	1
157	177	1
190	190	1
91	91	2
99	112	1
2	4	1
123	125	1
178	178	1
111	113	2
131	164	1
124	124	2
164	174	1
42	42	1
110	111	1
156	159	2
40	56	1
160	164	1
85	87	1
36	37	1
103	103	2
100	100	1
181	183	1
133	164	1
38	39	1
152	155	1
69	71	1
143	143	1
121	121	2
63	63	1
159	159	1
37	41	2
109	109	1
23	72	1
159	184	1
1	1	2
159	178	1
102	102	2
65	68	1
90	113	1
12	20	1
7	8	1
38	110	1
126	127	1
43	44	1
20	20	1
156	164	1
141	141	1
84	85	1
57	57	2
99	117	1
121	122	1
170	171	1
149	174	1
82	82	1
24	32	1
148	151	1
144	145	1
84	84	1
87	87	1
122	122	2
97	97	1
119	120	1
172	172	2
40	41	1
13	15	1
154	169	1
106	106	2
111	111	1
66	67	2
130	130	2
155	155	1
125	166	1
124	129	1
115	118	1
70	71	1
70	112	1
175	176	1
42	43	1
129	186	1
131	136	1
5	36	1
152	152	1
105	105	1
130	133	2
69	70	1
147	147	1
19	22	1
93	94	1
140	178	1
137	137	1
89	89	1
33	35	1
140	147	1
178	179	1
120	131	1
140	152	1
124	126	1
41	48	1
10	13	1
37	37	1
97	122	1
172	181	1
103	106	1
186	187	1
27	30	1
67	67	1
135	158	1
37	44	1
177	180	1
41	42	1
155	177	1
15	15	1
19	19	1
141	143	1
119	123	1
11	12	1
95	122	1
176	177	1
36	44	1
43	43	1
43	54	1
142	143	1
140	141	1
