141	145	3
120	120	2
136	136	1
29	29	1
95	95	2
90	92	1
153	153	1
108	120	1
10	11	2
47	50	2
134	134	2
100	104	1
122	124	2
140	141	3
114	114	1
113	115	1
100	125	1
85	91	1
16	16	4
30	30	1
118	121	1
152	152	2
123	124	1
51	53	2
67	67	2
40	47	1
112	112	3
152	155	2
50	51	1
106	106	2
106	108	1
65	83	1
102	141	2
26	40	2
123	123	1
108	123	2
136	137	2
129	129	2
132	132	3
114	115	1
15	17	1
9	12	1
67	70	1
41	42	1
75	77	2
70	71	1
94	95	1
67	68	1
128	143	1
22	22	1
124	124	1
77	77	1
114	127	2
116	121	4
62	94	1
131	135	3
118	118	3
93	93	1
115	119	1
78	117	1
130	133	1
91	96	1
139	139	3
154	155	2
119	119	1
2	4	1
125	127	1
93	94	2
128	128	2
101	101	1
126	127	1
150	155	1
84	115	2
25	25	2
38	39	1
148	152	1
36	44	1
82	86	3
28	32	1
141	142	2
64	69	1
17	43	1
45	54	1
4	4	1
7	8	1
131	148	1
154	156	1
82	87	1
154	154	4
72	74	2
98	99	3
128	131	1
3	9	1
91	95	2
149	149	1
84	86	1
113	124	1
12	12	2
87	90	2
144	144	1
7	15	1
145	145	1
23	23	1
133	154	1
54	55	1
145	152	2
97	100	1
26	29	2
109	113	1
15	15	2
50	54	1
138	139	1
2	3	1
94	108	1
19	25	1
156	157	3
88	126	1
72	79	1
27	28	1
132	134	1
109	112	1
26	34	2
133	134	1
21	21	1
6	17	1
138	144	2
65	68	1
24	28	1
105	126	1
114	132	1
13	33	1
126	126	3
97	98	1
21	22	1
106	124	1
7	12	2
88	88	1
69	81	1
71	71	2
89	126	4
66	69	1
88	93	2
148	148	1
121	137	1
69	69	2
39	39	2
42	46	1
109	119	1
17	17	2
108	109	1
107	108	2
79	83	1
42	52	1
130	146	1
139	154	2
30	46	2
95	100	1
126	141	1
102	111	1
11	11	1
37	37	1
147	148	1
78	79	1
133	133	2
45	45	1
111	122	1
87	88	1
80	104	1
106	107	1
56	56	1
71	91	1
23	27	2
65	89	1
79	107	1
69	77	1
3	12	1
122	122	1
134	135	1
141	147	1
44	44	2
138	142	1
110	118	2
29	45	1
110	110	1
151	157	1
78	105	1
82	88	1
151	151	5
154	158	1
24	31	1
118	122	1
125	125	2
1	2	1
80	80	1
127	134	1
34	48	1
134	137	1
157	157	4
147	150	1
25	66	1
108	115	1
100	100	2
80	82	1
106	110	1
87	116	1
80	83	1
156	156	1
144	145	1
123	138	2
111	118	1
68	83	1
80	99	1
25	26	1
77	80	1
109	122	1
152	153	2
78	95	1
32	36	1
39	43	1
117	117	2
17	19	1
118	126	1
6	6	1
57	57	2
63	86	1
145	151	1
120	121	3
139	145	1
13	14	1
15	16	1
105	105	1
113	116	1
109	111	1
137	137	1
122	130	1
129	131	1
106	111	1
2	8	1
29	51	1
153	154	1
25	27	1
73	73	2
94	94	1
121	125	1
22	24	1
92	141	1
134	141	1
102	105	1
82	112	1
75	78	1
48	49	1
107	127	1
83	83	2
26	27	1
36	66	1
98	122	1
26	28	1
36	36	1
141	157	1
70	97	1
151	155	1
114	123	1
78	78	1
41	44	1
8	9	1
8	11	1
65	75	1
20	24	1
37	38	1
141	144	1
103	121	1
96	96	1
103	106	1
149	159	1
71	77	1
91	91	1
15	21	1
144	152	1
30	33	1
127	129	1
75	84	1
136	138	1
32	56	1
128	129	1
84	118	1
27	39	1
113	126	1
33	35	1
49	51	1
10	10	1
2	6	1
46	53	1
118	141	1
54	54	1
55	57	1
105	152	1
32	55	1
135	136	1
122	126	1
149	150	1
5	39	1
