100	100	4
122	123	4
152	152	5
90	90	3
180	183	1
108	108	4
0	42	1
87	87	3
26	27	2
165	165	7
55	55	5
185	186	4
67	67	3
88	88	5
36	43	1
106	106	4
183	184	1
132	138	1
47	86	2
64	64	3
11	11	4
169	173	1
61	61	1
154	155	2
109	110	3
110	113	1
178	178	4
122	122	3
131	131	3
44	47	1
103	103	6
0	0	4
186	186	5
188	190	1
13	20	1
119	119	2
140	140	5
28	42	1
173	174	2
184	184	2
105	105	9
159	164	2
72	95	1
12	12	1
34	34	5
150	150	1
115	115	2
71	71	5
187	187	3
136	140	1
11	12	3
187	188	1
5	5	6
89	89	6
29	34	1
98	145	1
53	76	1
48	89	1
62	62	3
106	107	1
101	107	1
3	5	1
110	110	5
168	168	2
6	99	1
159	159	8
107	107	2
74	74	3
151	153	1
33	37	2
160	160	3
121	121	7
138	138	1
36	36	2
32	42	1
145	188	1
68	69	2
77	77	5
57	57	3
99	99	3
17	17	2
67	70	1
48	48	3
66	66	3
11	14	1
83	84	4
42	43	3
184	185	2
68	68	2
79	79	1
91	91	2
128	128	1
185	185	2
189	189	3
113	147	1
141	141	2
3	3	4
123	123	2
170	170	6
111	111	2
175	176	2
143	143	4
37	37	2
65	108	2
177	177	4
95	99	3
114	137	1
96	97	4
117	117	1
113	115	1
182	183	1
158	158	1
101	101	8
56	56	2
9	9	3
159	177	1
136	137	1
178	179	1
73	73	5
114	114	2
53	53	4
58	58	3
180	180	5
121	124	1
188	189	5
113	138	1
81	81	1
20	21	2
47	47	4
167	168	2
157	158	3
1	54	1
145	151	2
104	105	2
23	23	4
28	29	1
126	126	2
82	82	2
22	24	4
25	25	6
169	184	1
112	138	2
33	33	4
117	118	1
38	38	7
18	33	1
151	151	4
40	40	6
166	166	6
119	120	2
156	158	2
59	93	1
149	149	4
59	59	5
137	149	1
146	146	3
95	96	1
188	188	1
90	150	1
13	14	1
144	164	1
181	181	1
166	167	1
100	102	1
7	7	1
70	71	1
123	141	1
157	157	2
79	83	1
47	57	1
173	173	2
17	18	3
39	40	2
182	182	1
26	26	6
38	52	1
105	107	2
166	171	1
153	153	3
92	93	2
173	179	1
124	124	4
155	155	5
141	185	1
102	102	7
137	138	1
80	81	2
70	70	1
76	76	3
56	151	1
142	142	2
45	58	1
84	87	1
29	33	1
121	176	1
156	157	2
114	115	1
8	8	3
140	147	1
87	94	1
54	54	2
136	136	2
92	92	1
147	147	6
154	154	5
114	159	1
29	29	1
41	41	3
10	10	6
131	132	1
66	67	1
74	79	1
86	86	2
183	183	1
1	25	2
24	24	2
97	116	1
22	22	1
38	56	1
119	135	1
13	80	1
85	85	5
140	141	2
156	156	10
112	112	1
144	148	1
155	158	1
109	109	3
125	131	1
144	144	1
39	39	4
99	141	1
62	63	1
96	96	4
70	107	1
185	187	1
30	30	2
41	48	1
132	167	1
101	110	2
16	16	1
121	122	1
6	38	4
133	138	1
151	154	1
111	146	1
95	95	3
17	24	2
81	84	1
40	84	1
123	124	1
30	31	2
175	175	1
4	8	1
94	94	2
62	66	1
54	55	3
165	167	3
139	160	1
45	45	2
43	44	1
179	179	1
27	27	1
92	94	1
129	129	4
44	44	5
25	26	1
166	170	2
177	178	1
37	39	1
6	6	3
72	73	3
116	116	1
164	164	2
19	19	3
24	25	1
56	57	1
124	126	1
119	128	1
154	184	1
133	133	2
107	108	2
119	137	1
141	152	1
116	118	1
148	148	1
154	164	1
118	119	2
175	187	1
53	55	2
130	131	1
29	36	2
49	49	1
175	177	1
137	137	1
98	98	2
15	15	5
18	23	1
12	13	1
41	75	1
79	80	1
69	69	1
147	148	2
139	139	2
101	111	1
125	125	2
46	46	2
171	171	1
155	156	2
41	42	1
74	174	1
134	134	2
167	167	2
35	35	2
84	122	1
118	118	3
25	32	1
177	179	1
14	14	2
84	84	1
47	113	1
160	163	1
176	176	2
75	76	1
77	78	2
128	155	1
23	24	2
75	75	4
32	33	1
163	164	1
94	95	2
127	127	1
60	60	1
14	17	1
130	134	1
113	154	1
91	102	1
42	42	1
48	49	1
20	22	2
103	104	1
79	81	1
26	32	1
31	33	1
6	7	2
28	72	1
7	38	1
120	121	2
7	154	1
32	32	1
2	113	1
120	120	1
121	150	1
4	4	1
44	46	1
78	79	1
66	68	1
140	157	1
125	129	1
24	38	1
44	67	1
143	145	1
40	57	1
2	2	1
113	113	2
127	131	1
132	133	1
144	160	1
65	152	1
130	130	2
178	182	1
148	149	1
104	104	1
92	97	1
166	168	1
130	166	1
123	128	1
65	65	1
181	182	1
170	185	1
74	76	1
53	58	1
15	16	1
43	43	1
80	82	1
70	176	1
57	105	1
31	73	1
72	72	1
36	55	1
186	188	1
21	31	1
72	88	1
190	190	1
2	3	1
21	32	1
64	65	1
113	144	1
67	90	1
80	113	1
122	137	1
7	75	1
52	55	1
162	162	1
59	69	1
17	19	1
172	172	1
9	10	1
60	62	1
35	36	1
10	11	1
125	142	1
83	126	1
187	190	1
80	160	1
26	73	1
18	19	1
58	59	1
38	41	1
169	169	1
107	135	1
122	151	1
145	145	2
96	103	1
147	154	1
97	98	1
14	20	1
31	31	1
7	85	1
171	188	1
168	174	1
96	102	1
93	93	1
48	88	2
32	48	1
31	34	1
135	135	1
112	113	1
53	54	1
32	45	1
106	123	1
7	41	1
17	81	1
53	65	1
72	174	1
40	87	1
113	139	1
