49	50	2
101	101	2
20	21	2
92	93	1
159	159	4
74	74	5
43	43	4
66	66	2
161	161	5
142	144	1
98	98	1
15	106	1
155	157	1
17	18	3
25	25	7
129	130	2
38	38	5
21	21	2
2	2	2
88	92	1
24	76	1
160	160	5
45	51	2
130	130	8
48	49	2
151	151	5
120	137	1
1	1	4
108	108	3
45	45	4
41	41	7
100	104	3
37	38	2
112	114	1
41	44	1
165	166	1
36	108	1
50	50	2
80	80	4
139	142	1
21	22	3
134	134	3
3	3	3
87	90	1
126	126	2
64	65	1
152	153	1
140	140	2
150	150	5
142	142	3
12	13	3
6	7	1
33	37	1
123	138	1
94	94	5
61	63	1
103	104	1
18	18	1
120	120	3
148	148	5
20	20	4
119	121	1
146	164	1
163	164	2
157	159	1
156	157	2
14	14	5
33	34	1
123	123	1
16	16	4
79	79	2
49	49	4
103	117	1
2	3	2
19	87	1
117	119	1
157	158	1
87	133	1
133	133	2
15	69	1
137	137	7
5	148	2
147	147	1
106	107	4
121	127	1
36	36	3
73	73	5
76	79	2
132	132	2
27	27	2
15	27	1
118	118	4
152	165	1
0	0	2
94	95	2
136	137	1
7	21	1
157	160	1
131	131	2
88	89	3
138	138	2
138	139	1
139	139	2
109	109	2
135	135	2
165	165	1
161	164	2
87	87	4
122	122	2
153	153	4
40	40	7
156	156	2
169	169	4
44	45	1
117	141	1
63	63	2
5	5	3
13	14	2
6	6	4
139	145	2
9	9	3
138	143	1
92	92	5
19	19	3
52	52	1
118	120	1
47	53	2
128	137	1
138	140	1
15	15	3
72	72	1
43	45	1
40	143	1
89	89	2
22	22	2
17	17	4
139	160	1
153	154	2
85	88	1
38	106	1
125	126	1
134	136	1
168	169	1
84	88	1
81	81	1
56	56	1
107	107	3
43	44	1
154	158	1
149	149	2
48	48	2
85	87	2
78	80	2
77	77	2
134	143	1
137	156	1
128	129	1
155	155	3
54	54	3
112	113	1
93	94	1
130	146	2
57	57	2
35	35	4
17	20	3
75	75	2
12	104	1
12	12	2
47	143	1
75	76	1
124	124	3
157	157	1
152	152	6
160	166	1
81	82	2
74	75	3
106	157	1
158	166	1
90	90	2
144	144	3
86	86	1
65	75	2
47	47	5
119	147	1
116	116	2
49	51	1
19	20	1
24	25	1
119	130	1
168	168	2
55	55	3
143	143	2
25	26	1
5	8	1
56	70	1
44	44	7
72	141	2
20	101	1
44	47	1
127	129	1
76	100	1
116	132	1
86	88	3
91	91	3
51	53	1
27	28	1
42	42	1
163	165	1
51	51	1
90	116	2
151	166	1
166	166	2
40	136	2
97	117	1
113	113	1
145	145	1
34	34	3
41	42	2
7	7	1
12	14	3
69	72	1
161	168	1
135	136	2
143	145	1
96	98	1
83	83	1
78	104	2
13	13	2
145	146	1
23	24	1
21	23	2
146	146	1
114	117	1
132	133	1
20	25	1
71	72	1
24	37	1
105	106	1
62	62	3
34	35	2
158	158	1
144	145	2
145	151	1
18	22	1
113	114	1
128	155	1
71	71	2
82	82	1
48	123	1
111	111	2
37	37	1
163	163	2
123	155	1
56	72	1
20	108	2
46	51	1
51	52	1
84	85	1
80	82	1
85	115	1
102	105	1
86	116	1
53	53	1
170	170	3
11	11	1
108	109	1
98	131	1
47	56	1
100	100	1
162	162	1
96	96	1
119	119	2
5	6	1
79	87	1
4	4	1
68	68	1
18	69	2
141	142	1
8	9	1
70	70	1
13	16	2
166	167	1
164	164	1
84	84	1
99	99	2
26	26	1
35	36	1
159	160	1
147	148	1
149	151	1
45	49	1
161	162	1
105	105	2
125	125	3
140	163	1
127	127	1
102	104	1
69	69	1
121	121	1
160	161	1
20	22	1
96	97	1
139	170	1
76	94	1
47	54	1
44	46	1
76	76	1
23	23	1
162	163	1
122	123	1
87	89	1
76	89	1
159	165	1
85	90	1
93	93	1
80	104	1
52	70	1
67	67	1
90	94	1
10	10	1
15	16	1
124	133	1
126	150	1
142	143	1
11	13	1
102	102	1
125	161	1
136	158	1
67	70	1
126	130	1
78	78	1
