66	67	2
34	34	5
63	63	8
22	22	4
91	100	2
54	98	1
42	64	1
28	28	5
76	76	8
37	39	1
54	55	4
78	79	2
41	41	15
69	78	2
64	64	2
47	47	9
44	57	1
70	90	2
63	72	1
96	100	2
75	75	7
60	62	2
69	69	9
101	101	11
30	30	2
92	94	1
85	88	1
23	25	3
51	51	11
91	91	21
66	66	15
39	56	2
73	74	2
90	90	4
29	29	9
92	92	11
60	60	10
52	59	2
96	98	4
100	100	12
71	71	7
87	87	5
39	40	5
54	54	7
50	50	11
47	50	1
88	88	7
99	99	11
93	96	2
94	94	22
42	43	4
86	86	9
89	89	11
70	70	16
85	85	10
43	43	14
48	54	1
80	90	1
55	55	15
58	68	2
55	56	2
48	49	5
77	77	10
92	93	5
51	52	1
47	48	2
59	59	8
61	61	18
37	37	15
48	51	1
26	26	12
25	26	4
36	36	10
58	59	2
94	97	4
68	68	12
53	53	11
46	47	5
71	80	1
58	58	8
46	46	5
96	96	13
31	31	6
79	79	8
23	31	1
63	89	1
93	93	22
52	52	9
61	69	1
32	84	1
71	72	8
36	37	4
35	35	14
53	54	5
61	71	1
68	73	2
95	95	18
69	71	1
61	62	1
81	81	12
48	48	9
40	41	2
73	73	5
78	78	5
27	27	13
67	68	2
42	42	8
97	98	4
20	51	2
41	42	6
28	96	1
100	101	3
31	85	1
62	62	11
93	99	1
50	51	2
32	89	1
95	96	3
25	25	10
48	70	1
38	38	13
46	56	1
92	96	1
79	80	5
82	82	7
97	97	9
67	67	8
85	96	1
33	33	12
34	35	3
66	91	1
63	64	6
95	100	4
46	87	2
53	93	1
40	43	1
57	64	1
65	65	7
89	91	1
37	38	4
79	84	1
98	98	7
39	68	1
38	39	1
38	50	3
90	92	1
43	45	1
70	71	3
56	57	3
44	44	9
53	87	2
40	40	5
68	69	3
43	79	1
26	27	3
29	43	2
20	20	2
39	39	20
84	84	6
23	23	3
56	56	5
58	75	1
63	79	1
81	82	2
62	71	1
49	49	7
83	83	5
80	81	5
93	94	1
74	74	12
24	26	1
74	75	1
91	92	1
28	39	1
96	97	4
52	53	1
57	57	10
49	51	4
26	28	2
28	34	1
42	58	1
50	68	1
60	68	1
45	45	10
86	94	1
86	97	1
57	58	2
90	91	2
34	44	1
29	75	1
63	78	2
71	99	1
36	38	3
53	56	1
102	102	4
80	80	7
86	87	3
58	85	1
88	89	1
101	102	5
29	57	1
45	85	2
44	64	1
72	72	4
20	54	1
65	89	1
47	49	3
41	49	1
24	24	5
55	99	1
60	80	1
65	66	2
37	49	1
28	29	1
35	60	1
79	90	1
43	44	2
99	100	2
24	25	2
69	70	2
49	50	1
91	98	1
45	83	1
41	44	1
92	99	1
86	89	1
72	73	3
23	24	2
81	83	1
64	65	3
60	88	2
57	89	1
27	28	3
22	85	1
45	48	1
77	78	2
59	60	2
22	23	2
27	98	1
67	76	1
81	91	1
24	38	1
100	102	2
75	76	1
50	95	1
36	39	2
33	34	1
57	60	1
51	88	1
23	66	1
39	43	1
62	63	2
41	43	1
43	101	1
44	102	1
76	78	2
88	97	1
45	76	1
45	69	1
35	37	1
69	74	1
35	59	1
48	62	2
61	86	1
33	53	2
41	78	2
89	96	1
84	100	1
76	77	2
38	52	2
35	69	1
47	53	1
30	31	1
98	99	2
68	81	1
69	73	1
82	89	1
35	44	1
86	98	1
75	77	1
61	70	1
33	58	1
49	52	1
63	80	1
57	59	1
42	51	1
37	59	1
28	67	1
59	98	1
27	46	1
92	98	1
87	92	1
43	66	1
94	95	1
61	83	1
60	61	2
27	56	1
89	92	1
43	65	1
60	101	1
95	99	1
51	79	1
88	99	1
35	96	1
87	95	1
45	58	1
35	58	1
58	67	1
35	56	1
59	90	1
56	98	1
89	90	1
72	102	1
21	22	1
53	55	1
87	88	1
38	89	1
42	66	1
28	35	1
26	33	1
25	36	1
85	102	1
32	32	1
70	72	1
50	85	1
79	83	1
40	42	1
