15	15	2
2	25	1
39	40	5
19	19	4
166	170	2
149	153	1
5	6	3
7	8	2
108	108	1
1	2	1
129	130	2
166	167	1
131	132	2
91	92	1
5	38	2
83	84	2
169	169	2
3	54	1
131	131	3
35	35	1
171	171	2
101	125	1
138	139	2
103	105	1
98	100	1
142	142	2
24	24	2
101	110	1
9	9	2
73	73	1
16	17	1
13	13	5
107	107	1
149	150	1
91	91	1
110	116	1
22	22	1
24	27	1
156	156	2
92	93	3
105	105	1
127	128	2
156	166	1
143	145	1
79	79	3
147	147	2
11	11	1
120	120	2
12	15	2
3	8	2
62	62	1
17	17	1
101	112	1
149	149	3
18	18	3
30	30	2
160	160	2
52	57	1
63	63	1
62	64	1
7	9	2
21	33	1
19	20	4
139	140	1
155	168	1
126	126	3
7	7	1
74	74	4
41	43	1
112	130	1
148	161	1
95	98	1
168	168	4
161	162	2
87	87	1
6	6	4
3	96	1
52	53	2
42	42	1
173	173	4
86	86	2
55	55	3
87	94	1
151	170	1
109	110	1
11	15	1
21	28	1
95	95	2
117	117	1
29	30	3
151	153	1
111	114	1
66	66	1
14	34	1
105	106	1
147	148	1
55	75	1
116	116	3
103	103	2
146	151	1
138	177	1
11	45	1
125	125	1
109	109	1
133	133	2
64	65	2
115	116	2
4	35	1
37	37	4
138	138	2
18	39	1
65	66	1
3	3	3
56	56	2
134	134	2
154	154	1
110	110	3
4	4	1
12	13	1
25	26	2
26	27	2
5	5	3
70	70	1
10	10	3
109	113	1
136	136	1
123	123	1
132	132	2
118	126	1
31	32	1
172	172	5
140	140	3
101	101	2
36	37	1
130	164	1
31	35	1
60	60	3
84	86	1
64	64	1
9	15	1
52	52	1
76	76	3
20	26	1
127	127	1
100	100	1
76	93	1
111	142	1
90	91	1
78	78	1
107	110	1
28	40	1
14	14	3
162	162	2
174	174	1
158	167	1
160	162	2
88	89	2
159	163	2
144	144	1
19	32	1
160	164	1
128	128	2
131	135	1
72	96	1
39	39	1
145	145	1
110	113	1
112	140	1
111	111	2
176	176	2
36	36	1
3	27	1
8	8	1
90	90	4
16	19	1
143	144	1
50	50	2
40	40	1
113	114	2
111	115	2
113	132	1
92	92	1
150	156	1
99	100	1
117	119	1
113	113	1
141	142	1
97	97	1
67	67	1
129	129	1
149	170	1
79	90	1
91	93	1
15	16	2
1	5	1
157	157	1
32	33	1
128	129	1
137	137	3
33	33	1
141	141	1
1	6	1
135	174	1
30	45	1
31	31	2
158	169	1
165	167	1
105	107	1
82	94	1
66	67	1
118	119	1
72	72	1
27	166	1
155	155	1
157	169	1
89	92	1
120	129	1
163	169	1
140	141	1
81	90	1
33	58	1
58	58	1
158	159	1
115	117	2
2	3	1
41	41	3
151	151	1
58	63	1
16	16	1
92	102	1
65	65	5
61	61	1
44	44	1
170	170	1
148	148	4
84	84	1
98	99	1
121	122	1
173	174	1
4	44	1
118	154	1
96	99	1
72	74	2
145	149	1
80	81	1
103	122	1
34	34	1
32	32	2
152	152	1
114	115	1
15	19	1
178	178	1
43	43	2
128	155	1
23	35	1
119	119	1
161	170	1
161	161	1
87	121	1
2	28	1
126	156	1
3	29	1
177	177	1
71	71	1
150	151	1
165	166	1
23	23	1
55	79	1
54	54	1
14	40	1
176	178	1
108	110	1
104	150	1
11	14	1
