130	131	3
160	160	3
83	84	1
6	6	4
87	89	2
164	164	3
0	1	2
159	161	1
134	134	5
10	10	10
24	25	4
94	94	1
163	163	3
102	113	2
122	123	2
137	137	8
82	82	2
153	155	1
83	90	1
78	79	2
63	63	1
148	148	3
28	28	3
79	79	3
132	132	7
45	45	4
109	110	2
11	17	3
110	110	3
99	99	5
152	152	2
148	150	1
150	150	6
111	111	3
7	7	4
52	52	4
89	89	2
127	127	6
99	105	1
55	58	1
105	105	3
16	16	6
10	11	2
46	46	2
44	44	6
9	9	7
3	35	1
39	39	6
133	155	1
138	138	4
149	150	3
12	12	5
155	156	4
64	85	2
102	103	1
23	24	2
90	91	3
15	16	1
41	42	1
96	141	1
20	20	5
25	26	3
7	10	1
86	103	2
5	14	1
44	58	1
74	85	1
39	135	1
132	133	3
11	12	3
153	153	3
151	151	4
2	2	5
1	2	4
144	144	6
161	161	2
122	122	4
119	130	1
91	92	1
143	144	2
55	55	4
35	35	3
107	144	1
76	141	1
157	157	7
148	162	1
79	80	1
42	42	7
56	56	2
16	21	1
24	24	4
5	5	4
112	118	1
133	134	1
92	93	1
80	86	2
48	50	1
162	165	1
117	120	1
48	48	4
140	140	5
38	38	8
8	20	1
64	64	4
23	128	1
98	98	4
161	167	1
139	139	4
169	169	3
86	117	1
123	123	6
11	11	6
37	37	6
112	112	4
44	45	1
36	36	4
99	100	1
86	131	1
101	101	3
116	116	9
1	1	3
114	114	1
75	75	4
158	158	2
97	98	1
105	106	1
166	167	1
147	148	2
7	8	2
14	39	1
77	131	1
80	80	4
3	41	2
97	134	1
89	90	1
14	41	1
0	0	2
136	136	4
40	40	2
42	43	2
90	90	4
58	58	2
27	52	1
129	129	2
6	7	4
101	103	3
102	102	2
121	123	2
54	54	4
10	12	1
3	3	8
84	85	4
131	131	1
70	71	1
14	15	2
106	106	5
45	144	1
17	17	8
34	34	5
19	19	5
157	159	1
115	115	3
117	117	1
25	25	3
156	157	1
119	125	2
92	92	2
16	17	2
49	49	6
15	25	1
50	50	4
21	21	2
27	27	7
16	49	1
154	156	1
121	121	1
138	147	2
27	41	1
145	146	2
65	65	3
37	38	2
69	70	1
164	165	2
85	85	2
100	109	1
108	158	1
90	116	1
2	4	1
119	150	1
114	115	1
82	83	1
5	6	3
104	104	1
90	96	1
18	19	2
142	144	1
43	43	10
145	145	2
119	119	6
39	41	1
17	25	1
156	156	4
154	155	1
121	122	1
88	88	4
5	161	1
108	108	3
10	13	1
53	56	1
51	51	5
134	154	1
120	121	2
146	146	2
124	124	3
22	24	1
96	96	3
53	55	1
4	5	1
128	130	2
110	111	2
23	23	5
97	97	1
106	112	1
8	10	1
86	89	1
22	23	2
135	141	1
6	14	1
47	47	6
141	142	1
71	109	1
95	95	3
126	155	1
98	102	1
149	167	1
34	35	3
40	161	1
100	106	1
35	36	2
146	148	1
128	133	1
147	149	1
18	18	2
69	69	3
76	86	2
119	123	1
37	159	1
111	116	1
66	67	2
76	76	2
126	126	3
87	87	1
73	83	1
45	72	1
38	40	1
125	143	1
160	161	1
71	100	2
115	116	2
57	87	1
10	20	1
14	14	5
41	41	4
119	122	3
117	118	2
159	159	2
80	83	1
120	120	3
14	26	1
25	149	1
119	120	3
111	169	1
74	74	1
155	155	3
67	100	1
71	72	2
77	86	1
53	88	1
15	15	3
100	100	3
5	7	1
111	112	2
127	129	1
0	109	1
111	135	1
9	10	2
119	159	1
43	106	1
161	163	1
94	95	1
158	159	2
28	135	1
42	71	1
57	57	2
86	86	2
94	99	1
162	162	2
73	73	1
0	168	1
145	166	1
167	167	1
151	159	1
155	157	1
134	135	1
81	81	2
47	49	1
112	135	1
38	41	3
147	147	1
98	99	2
13	13	3
84	84	1
83	108	1
141	141	1
62	70	1
149	149	3
8	8	2
137	158	1
3	4	1
111	117	2
62	91	1
17	18	1
78	78	2
129	130	2
167	170	2
36	108	1
74	75	1
56	111	1
106	119	1
118	118	4
150	151	4
126	127	1
136	168	1
71	71	2
106	107	1
62	63	2
155	158	1
54	56	1
26	26	4
3	83	1
165	165	3
112	113	1
125	164	1
38	43	1
93	94	1
102	104	1
12	18	1
95	96	1
84	88	1
152	153	1
13	26	1
44	46	1
106	121	1
47	51	1
159	167	2
143	149	1
4	4	3
21	23	1
2	18	1
42	47	1
143	152	1
5	41	1
129	131	1
144	145	1
135	162	1
108	135	1
123	124	1
67	69	1
125	137	1
125	125	1
155	162	1
33	34	1
162	163	1
111	125	1
72	73	1
156	160	1
39	150	1
168	168	2
81	83	1
94	96	1
39	40	1
81	129	1
113	113	2
37	39	1
107	136	1
96	124	1
169	170	1
53	53	1
83	85	1
33	33	2
68	87	1
77	79	1
151	152	1
105	131	1
47	53	1
68	92	1
93	93	1
122	145	1
154	154	1
18	20	1
122	127	1
55	97	1
58	70	1
52	57	1
159	166	1
50	51	1
83	132	1
107	110	1
149	152	1
2	26	1
130	134	1
99	101	1
142	142	1
96	102	1
133	135	1
72	72	1
76	79	1
100	147	1
124	125	1
139	140	1
133	151	1
65	112	1
56	57	1
