72	72	3
69	69	1
53	53	5
111	111	2
158	158	2
96	96	1
3	3	5
88	88	3
151	151	2
44	44	2
115	125	2
58	59	1
176	176	3
43	43	3
152	152	3
65	65	4
158	166	1
212	212	3
169	169	3
127	129	1
131	131	5
121	122	3
41	41	4
230	231	1
181	183	1
55	55	5
86	86	6
88	241	2
52	55	2
201	201	3
136	136	3
142	142	1
21	22	1
203	203	2
146	146	3
161	161	3
65	238	1
50	50	2
26	28	1
149	151	1
67	67	2
155	156	1
232	232	2
164	164	2
210	213	1
39	39	3
201	204	1
231	231	3
61	61	2
225	226	1
97	97	4
31	31	1
4	6	1
23	58	1
90	144	1
59	78	1
154	186	1
75	75	5
40	40	2
30	30	2
116	116	1
95	103	1
220	234	1
225	225	1
220	220	3
51	51	1
125	125	2
109	119	2
191	191	2
19	34	1
157	164	1
187	190	1
49	49	4
178	178	5
149	149	3
107	107	2
173	173	5
120	121	1
228	231	2
128	128	4
150	163	1
45	45	2
187	187	3
186	186	4
7	150	1
184	185	1
168	200	2
133	201	1
137	138	2
121	159	1
25	25	4
27	171	1
233	233	2
40	42	1
39	42	2
45	46	4
198	198	2
144	145	1
205	206	2
71	71	4
147	156	1
200	201	1
6	7	1
11	11	2
33	33	2
100	100	2
165	166	1
172	172	6
188	189	1
182	183	3
27	27	4
162	162	3
98	98	6
149	150	3
242	242	5
219	219	1
216	216	2
37	40	1
125	127	1
141	143	1
194	194	3
56	56	2
123	154	1
63	64	2
123	123	3
122	136	1
10	200	1
122	123	1
230	230	3
173	174	1
20	20	3
46	46	3
175	176	1
160	162	1
34	35	1
98	99	1
73	74	1
66	150	1
59	59	1
121	121	10
0	0	5
42	42	2
208	208	1
40	41	1
168	168	5
218	218	4
148	149	3
144	146	1
70	71	1
153	169	1
26	26	4
10	10	1
34	34	3
66	66	3
168	169	4
118	118	2
196	196	2
112	172	1
105	106	2
37	37	5
74	74	3
136	198	1
96	97	1
236	236	2
166	167	1
124	143	1
163	163	4
35	36	1
62	170	1
129	130	2
193	195	3
5	6	1
150	152	2
38	38	1
3	220	1
109	109	2
120	136	2
47	68	1
23	147	1
138	139	1
127	236	1
140	141	1
47	47	2
156	157	1
132	132	1
13	14	3
168	201	1
30	31	2
183	208	1
135	174	1
209	227	1
112	171	1
147	148	2
190	190	4
95	95	1
197	200	2
13	13	1
114	114	3
186	188	1
184	184	2
24	24	3
29	29	3
174	201	1
55	85	1
138	142	1
183	187	1
41	53	1
200	200	2
153	162	1
210	211	2
46	47	2
241	241	1
63	63	2
81	82	1
127	127	2
58	58	1
28	28	2
12	12	3
217	217	4
165	165	1
16	17	2
120	120	1
174	174	3
30	55	1
62	62	3
221	222	2
126	126	3
38	39	3
67	150	2
196	197	1
159	159	4
68	68	1
74	75	1
23	23	2
113	129	1
48	52	1
15	54	1
219	220	1
9	9	2
216	238	3
59	60	2
60	63	1
167	167	1
156	156	1
10	11	1
9	10	1
180	180	1
51	52	1
68	71	1
190	213	1
67	79	2
7	7	2
47	109	1
120	129	2
54	54	3
144	144	3
149	152	1
18	21	1
161	162	1
210	214	1
110	110	2
216	217	1
153	153	4
237	237	1
32	32	1
76	84	1
29	38	1
181	181	1
85	85	1
12	54	1
151	161	1
133	133	1
15	201	1
2	3	2
8	8	1
234	234	2
215	216	1
176	228	1
48	73	1
183	183	1
155	155	1
4	4	2
73	73	4
5	8	1
206	215	1
139	139	1
37	38	1
18	18	1
54	58	2
113	113	3
34	40	1
70	70	3
69	86	1
208	228	1
117	140	1
64	208	1
19	42	2
179	179	1
170	170	1
204	206	1
153	159	1
15	20	1
68	70	1
22	22	1
156	159	3
25	157	1
153	156	1
137	137	1
128	136	1
101	101	3
160	160	1
48	48	1
53	214	1
105	105	1
221	221	1
37	58	1
24	25	1
160	172	1
209	209	2
185	185	1
178	180	1
86	87	1
38	43	1
1	12	1
119	119	1
65	101	1
134	134	3
209	210	1
149	170	1
171	171	1
19	19	1
217	218	2
53	55	1
153	178	1
154	154	1
202	232	1
55	220	1
47	86	1
43	218	1
141	148	1
16	16	1
71	73	1
152	158	2
80	80	1
77	77	1
52	52	1
240	240	1
55	56	1
32	38	1
7	23	1
95	145	1
102	102	1
148	168	1
53	56	1
3	5	1
174	177	1
108	108	1
80	145	1
154	157	1
32	37	1
21	21	2
95	97	1
160	173	1
80	81	1
29	61	1
213	226	1
158	169	1
14	14	1
212	213	1
38	54	1
