64	65	2
0	0	4
23	23	4
51	52	1
82	82	2
89	89	1
14	14	2
11	11	1
47	47	1
13	13	1
112	113	3
63	63	2
70	70	3
24	24	3
44	45	3
0	4	1
14	15	1
120	124	1
85	87	1
16	17	1
6	17	1
118	118	6
124	124	1
1	1	2
91	113	1
64	64	3
106	106	2
18	18	2
36	38	2
31	33	1
80	104	1
133	133	2
23	30	1
20	21	1
116	118	1
50	50	2
105	105	2
27	116	1
6	6	3
56	56	2
12	12	1
88	88	3
110	110	1
31	32	2
38	38	1
75	75	2
3	4	1
19	77	1
105	124	1
68	68	2
26	26	4
25	25	2
132	132	2
99	99	2
35	36	1
54	58	3
10	38	1
75	94	2
7	25	1
87	87	4
98	98	2
69	69	3
8	8	2
81	81	3
117	117	1
86	86	3
66	68	1
75	77	1
12	115	1
127	127	2
60	61	1
33	34	1
125	125	3
28	28	2
34	36	1
22	22	2
35	35	2
101	101	1
67	68	1
61	82	2
104	120	1
83	83	1
60	60	1
80	80	2
95	95	1
16	16	4
4	4	1
20	20	3
1	4	2
0	1	1
126	126	2
3	3	1
30	30	1
91	91	2
27	68	1
123	123	2
61	62	1
21	22	1
72	72	2
43	43	5
32	32	3
5	7	1
45	45	1
29	29	4
129	129	2
97	97	2
90	90	1
33	33	1
128	130	1
2	2	5
7	7	2
102	102	1
37	37	1
25	26	1
84	84	2
79	79	2
57	58	1
116	116	1
110	111	1
92	92	1
31	93	1
66	66	2
45	50	2
34	34	2
50	51	1
112	112	1
52	52	2
108	109	1
88	89	1
14	71	1
122	122	1
45	46	1
74	74	1
128	128	1
73	73	2
120	120	1
31	31	1
62	80	1
82	84	1
89	90	2
13	14	1
121	121	1
94	100	1
19	19	1
63	64	1
107	107	1
62	62	1
23	71	1
131	132	1
113	113	1
18	22	1
71	71	2
1	10	1
42	42	1
82	83	1
5	5	1
109	110	2
19	20	1
16	70	1
106	109	2
77	79	1
59	59	1
17	17	1
104	104	1
131	131	1
119	120	1
61	69	1
105	111	1
7	8	1
12	13	1
49	49	2
46	47	1
63	85	1
54	60	1
2	9	1
27	27	1
6	23	1
53	54	1
86	87	1
114	119	1
58	58	1
19	66	1
85	85	1
