10	35	1
81	113	1
80	80	2
55	107	1
20	141	1
116	116	1
22	22	1
118	118	1
61	62	2
30	30	3
89	90	1
74	74	2
126	126	6
28	28	3
69	94	1
34	35	1
124	124	2
108	121	1
114	115	1
67	67	2
32	34	1
53	58	1
121	121	2
68	69	2
69	89	1
127	131	2
57	57	2
134	135	2
133	140	1
50	50	4
121	128	1
81	81	3
97	97	2
131	139	1
141	141	3
91	141	1
58	59	2
61	61	2
102	103	2
10	11	1
22	103	1
90	91	1
113	113	2
48	62	1
52	137	1
48	48	4
115	116	2
34	34	1
50	79	1
10	10	3
8	8	2
2	8	1
122	122	2
89	118	1
40	40	1
144	144	4
128	128	6
135	135	4
115	115	1
9	9	2
105	106	1
108	108	1
70	72	1
74	91	1
104	105	2
24	24	1
53	53	4
115	117	1
110	110	2
20	71	1
106	106	3
140	140	2
100	103	1
3	37	1
143	143	3
134	134	3
75	75	1
58	58	3
124	135	1
37	38	1
27	27	2
23	23	2
5	5	1
96	101	1
15	16	1
83	83	3
73	74	1
129	138	1
112	112	5
3	4	1
99	99	3
102	102	3
1	12	1
68	75	1
48	49	1
25	130	2
19	19	3
66	67	1
136	139	1
92	103	1
38	38	1
121	123	1
10	37	1
40	41	2
16	16	1
105	105	3
76	77	3
100	100	1
11	19	2
132	132	4
97	98	2
58	81	2
8	12	1
94	94	1
32	32	2
108	114	1
129	141	1
65	65	2
42	42	2
59	64	1
39	39	1
33	33	3
19	21	1
105	109	1
145	145	2
52	88	1
59	60	3
131	132	2
99	100	1
27	30	1
116	117	2
85	85	2
120	120	3
79	79	2
67	68	1
84	85	1
125	125	3
74	75	1
129	129	1
60	60	3
73	73	1
134	137	1
51	85	1
143	144	1
6	6	1
94	96	1
93	93	2
3	57	1
36	37	1
130	130	1
48	71	1
15	32	1
4	4	2
31	64	1
90	93	1
100	143	1
1	23	1
137	137	2
113	116	1
20	20	1
62	62	1
70	70	3
29	29	3
139	139	1
9	53	1
59	128	1
71	74	1
93	94	2
89	142	1
86	86	1
101	101	1
57	86	1
72	72	2
126	143	1
26	37	1
15	25	1
10	38	1
13	24	1
43	43	1
107	118	2
57	85	1
144	145	1
39	40	1
117	119	2
17	17	2
104	104	3
56	82	1
3	14	1
41	41	2
6	22	2
28	29	1
2	2	1
136	136	2
71	71	1
77	77	1
28	142	1
95	99	1
105	118	1
19	22	1
111	111	1
4	14	1
114	120	1
117	117	1
68	120	1
55	84	1
66	66	1
31	31	1
52	52	1
123	124	1
72	73	1
92	94	1
88	89	2
107	107	2
56	56	2
66	82	1
97	102	2
47	78	1
33	36	1
37	37	2
89	89	2
43	46	1
129	130	1
9	64	1
14	23	1
28	37	1
42	66	1
88	88	2
18	19	1
98	99	1
103	103	3
18	18	1
58	79	1
70	91	1
98	98	1
118	119	1
21	144	1
26	26	2
62	83	1
56	60	1
34	36	1
13	17	1
127	140	1
120	135	1
135	139	1
30	67	1
124	126	1
81	87	1
3	26	1
58	84	1
73	131	1
41	98	1
17	18	1
75	80	1
135	136	1
28	144	1
64	64	1
1	4	2
118	122	2
92	120	1
75	77	1
119	119	1
130	131	1
136	138	1
10	130	1
82	82	1
61	73	1
21	21	1
89	113	1
78	78	1
61	71	1
123	123	1
49	68	1
6	42	1
120	140	1
