5	32	2
85	85	1
45	45	7
95	118	1
24	24	5
57	57	4
113	114	1
70	70	1
65	65	2
75	75	3
34	34	8
14	24	1
64	64	6
104	104	1
11	12	1
77	77	2
124	124	4
75	76	2
3	76	1
77	100	1
123	123	5
60	77	1
127	129	1
104	124	1
61	61	5
128	128	2
103	103	3
100	127	2
9	9	5
109	109	4
130	130	2
107	118	1
20	22	1
108	109	1
6	6	4
28	29	2
41	42	1
26	26	1
64	75	1
98	123	1
20	21	2
38	38	4
15	16	3
2	2	2
72	72	4
125	125	2
59	59	4
12	12	1
37	39	2
81	81	3
27	27	2
112	112	5
114	131	1
111	111	2
31	31	1
108	108	2
131	133	2
60	60	1
133	133	3
82	82	3
46	47	1
109	110	2
131	132	4
118	118	1
134	134	2
102	109	1
79	79	2
10	18	1
17	18	1
23	23	1
0	0	2
101	130	1
44	44	4
133	134	3
113	116	1
121	122	2
11	57	2
57	133	1
107	119	1
47	47	3
104	105	1
19	19	2
92	114	1
35	36	1
1	1	2
99	121	1
14	109	1
79	82	1
1	3	1
76	77	1
74	74	1
110	110	4
113	130	1
97	97	2
98	133	1
112	113	2
30	30	1
13	13	3
8	8	4
85	93	2
90	90	1
55	55	3
114	114	2
128	129	1
32	32	1
105	105	1
10	12	1
67	67	2
8	27	1
10	47	1
18	69	1
36	36	1
94	95	2
116	116	1
23	28	2
93	93	2
72	107	1
77	87	1
66	67	1
126	126	4
122	134	1
40	40	1
100	102	1
113	113	1
10	13	1
119	119	1
41	41	1
96	96	3
117	117	1
10	10	2
66	66	1
18	18	2
17	17	2
20	27	1
98	98	1
33	33	2
94	112	1
107	107	2
4	4	1
101	101	1
86	93	1
21	22	1
117	118	1
132	132	1
102	116	1
5	5	1
127	128	1
40	42	1
7	7	1
68	68	1
29	29	2
11	11	3
62	62	1
12	47	1
35	35	2
28	28	2
24	37	1
5	12	1
76	76	1
38	125	2
86	86	1
120	120	1
21	21	2
56	56	1
18	117	1
97	133	1
98	100	1
79	83	1
109	130	1
36	37	1
102	102	1
84	121	1
48	49	1
130	131	1
43	43	1
68	69	1
17	45	1
69	69	1
14	14	1
95	105	1
112	121	1
66	75	2
15	15	2
91	92	1
127	127	3
73	73	1
9	10	1
48	48	1
84	87	1
37	37	1
20	20	1
84	84	1
116	130	1
71	71	1
96	101	1
77	80	1
63	68	1
96	97	1
22	22	1
101	102	1
115	115	1
