102	102	6
66	66	8
83	83	1
138	139	2
90	92	1
20	41	2
95	95	2
91	106	1
16	16	3
21	21	8
58	60	1
79	80	4
1	1	3
31	31	2
105	128	1
6	9	3
22	38	1
66	98	1
15	15	6
106	107	6
30	70	1
72	73	2
77	81	1
141	142	1
84	141	1
116	117	4
74	74	6
4	14	1
101	102	1
71	81	1
70	83	1
141	141	5
125	126	1
27	141	2
54	136	1
106	106	3
65	65	4
62	67	2
19	19	1
103	103	8
137	137	8
97	97	2
22	22	3
14	14	4
53	53	7
43	43	3
128	130	2
25	25	2
110	110	6
131	131	11
60	118	1
80	80	6
33	33	5
134	134	7
18	18	5
1	4	3
135	139	1
19	20	2
117	133	1
123	125	1
61	61	4
23	27	1
127	127	9
23	23	5
64	66	1
116	135	1
140	140	3
28	28	4
55	57	2
107	122	1
84	86	1
124	124	7
89	89	6
37	42	1
5	35	1
99	101	3
108	108	3
68	68	3
68	71	1
63	63	4
129	130	4
86	87	2
48	94	1
58	58	3
65	69	1
69	69	4
85	88	1
87	87	4
57	57	5
97	100	1
75	76	3
111	118	1
112	114	3
98	117	1
30	31	3
66	67	1
142	142	5
41	41	7
37	38	2
136	138	2
51	51	2
76	83	1
38	38	5
71	72	5
101	101	5
30	30	4
99	103	1
139	139	5
11	11	6
68	72	2
26	26	4
12	12	3
104	104	4
130	130	4
100	101	2
83	92	1
135	135	4
115	115	1
128	128	4
119	120	4
141	143	1
54	54	7
0	1	4
71	71	7
59	59	2
6	6	4
77	86	1
85	85	9
36	36	1
118	143	2
49	49	1
76	76	3
142	144	1
129	129	3
110	111	1
78	79	2
75	75	4
4	5	3
117	119	1
39	43	1
118	124	1
103	110	2
4	4	4
20	20	6
58	63	1
96	103	1
131	135	4
128	136	1
47	51	1
127	128	2
27	27	4
39	40	2
16	32	2
136	136	5
1	17	1
16	35	1
105	107	1
36	42	1
91	91	5
54	94	2
59	69	1
80	109	1
33	34	2
112	112	2
126	135	1
126	130	1
82	82	7
118	118	4
98	98	2
5	16	1
92	100	1
104	105	3
52	59	1
31	32	3
111	111	3
134	135	1
91	98	1
10	18	2
108	117	1
17	80	1
138	138	3
40	41	3
80	84	3
33	143	1
31	77	1
57	58	2
47	47	3
23	31	1
133	133	6
37	37	4
59	89	2
117	118	2
50	57	2
145	145	1
3	3	7
105	105	6
57	74	1
4	85	2
101	124	1
17	17	5
96	96	7
116	116	4
79	87	1
11	18	1
35	35	2
10	10	9
79	83	1
87	90	2
9	13	1
54	70	1
58	65	1
132	132	5
116	118	1
34	36	1
74	75	1
109	109	3
68	73	1
32	47	1
90	90	1
42	42	3
29	29	6
68	81	1
73	73	3
9	20	2
22	24	1
105	106	1
130	131	2
100	100	4
1	2	1
76	78	1
92	94	1
123	123	6
16	39	1
54	83	1
8	30	1
121	121	1
126	126	2
8	8	3
39	98	1
84	84	4
94	94	3
87	98	1
113	113	7
107	110	1
119	119	2
125	125	2
25	66	2
40	40	2
71	82	1
94	97	2
53	74	2
96	97	3
0	18	1
21	24	2
137	138	3
83	84	3
48	68	1
69	72	1
78	78	2
34	37	1
103	105	1
9	17	2
5	5	6
69	82	1
52	55	1
65	77	1
55	90	1
62	62	5
117	139	1
85	93	1
109	121	1
27	71	1
52	52	3
137	139	3
76	77	3
99	102	1
57	62	1
112	117	1
18	21	1
32	33	4
79	79	6
115	120	1
126	137	1
5	6	1
88	88	4
92	92	4
17	18	2
99	99	2
94	96	1
87	88	2
2	139	1
19	21	3
117	125	1
127	137	1
9	9	4
0	0	4
13	13	4
48	56	1
98	108	1
24	25	6
2	2	4
82	107	2
40	144	1
131	134	2
18	32	1
13	23	1
47	49	1
28	39	1
53	54	1
107	124	1
35	36	1
105	108	1
47	59	1
71	99	1
115	116	2
50	59	1
62	65	2
122	122	3
74	108	1
82	95	1
109	130	1
135	137	3
63	78	1
49	59	1
74	77	1
2	105	1
72	81	1
55	56	3
116	121	1
55	55	2
20	23	2
71	74	1
101	106	2
56	56	6
108	110	1
10	20	1
19	41	1
73	79	1
77	77	2
40	42	1
133	140	1
86	134	1
96	125	1
46	65	1
65	68	3
32	42	1
107	108	2
85	86	1
79	85	1
70	122	1
10	29	1
54	82	1
123	128	1
102	103	1
8	20	1
82	83	1
48	48	2
114	116	1
121	130	1
21	23	1
15	34	2
24	24	2
81	81	3
8	11	1
89	96	1
127	130	1
84	85	2
8	10	1
77	78	2
67	86	2
38	39	1
114	114	1
140	145	1
3	9	1
85	89	1
56	59	1
126	128	2
62	64	1
53	57	1
73	74	2
118	121	1
56	73	1
3	5	1
47	55	1
144	144	3
91	104	2
67	68	1
9	19	1
80	103	1
113	114	4
35	40	1
98	101	1
9	10	1
49	50	1
51	52	1
120	121	1
131	133	1
146	146	1
0	15	1
94	95	2
132	138	1
115	129	2
32	32	3
105	110	1
124	127	3
4	6	1
54	57	2
64	64	2
67	71	1
30	32	2
8	18	1
61	65	1
59	94	1
2	3	2
52	58	1
125	128	1
89	93	1
143	143	1
69	83	1
105	112	1
115	123	1
135	136	2
34	39	1
144	145	1
116	120	1
7	10	1
136	137	5
98	99	1
88	90	2
60	65	1
132	144	1
15	17	1
30	104	2
106	123	1
139	140	1
31	53	1
67	88	1
57	73	1
33	53	1
8	28	1
12	13	1
69	70	1
64	65	1
67	67	2
132	134	1
6	33	1
86	90	1
6	30	1
96	105	1
80	99	1
18	23	1
58	79	1
41	47	1
82	85	1
52	86	1
74	88	1
59	60	1
75	79	1
61	62	3
124	131	1
1	12	1
95	128	1
30	103	1
28	29	1
107	107	1
34	34	1
52	67	1
82	88	1
17	42	1
63	89	1
112	132	1
7	8	1
66	74	1
71	85	1
5	8	1
104	114	1
0	13	1
114	126	1
74	114	1
104	107	1
121	123	1
113	121	1
41	61	1
67	72	1
55	66	1
90	108	1
109	110	1
126	127	1
72	72	2
108	130	1
97	98	2
110	124	1
110	136	1
70	100	1
75	82	1
15	22	1
118	123	1
42	49	1
113	124	1
104	115	1
29	31	1
100	103	1
70	80	1
79	81	1
57	66	1
101	107	1
114	122	1
57	68	1
47	50	1
27	29	1
127	133	1
17	62	1
52	63	1
12	14	1
68	69	1
65	70	1
104	110	1
97	111	1
103	124	1
24	30	1
26	30	1
92	93	1
131	141	1
122	125	1
108	120	1
41	42	1
69	93	1
16	20	1
