126	126	4
93	93	4
6	6	2
70	70	4
60	60	2
126	127	1
36	37	2
43	43	2
128	129	3
107	107	3
138	138	1
92	92	1
114	116	1
57	57	5
83	83	3
81	92	1
112	113	1
119	130	1
115	116	1
61	62	3
98	99	2
131	132	2
144	144	4
125	125	1
31	32	1
64	65	1
136	136	3
91	97	2
142	142	2
14	51	3
84	84	2
47	48	1
99	99	2
81	85	1
126	133	1
102	103	1
103	110	1
13	14	3
100	100	4
30	33	1
134	135	1
71	108	1
55	55	3
19	19	2
66	66	2
75	75	5
5	8	1
51	52	1
111	111	5
10	10	1
23	23	2
14	47	1
30	30	1
76	111	1
145	145	3
33	33	3
90	90	1
49	99	1
95	95	2
114	117	1
11	23	2
23	24	2
41	41	2
73	73	4
96	97	1
52	53	1
113	113	1
65	65	1
37	37	2
127	127	4
69	71	2
133	133	2
42	56	1
15	15	1
19	20	1
104	104	3
47	47	1
6	12	1
130	130	1
68	70	1
143	144	1
49	62	2
87	87	2
66	70	1
49	50	1
37	41	1
22	22	3
129	130	1
80	126	1
59	59	2
64	64	1
109	112	1
11	11	3
56	56	2
86	86	1
63	63	1
131	131	1
128	134	1
103	138	2
47	49	1
109	109	2
38	38	2
0	0	1
135	135	3
110	111	1
62	62	2
101	101	1
124	126	1
42	131	1
67	68	2
88	88	2
81	94	2
97	98	1
61	61	4
62	88	1
116	118	1
53	54	1
2	2	4
40	40	2
76	77	2
123	123	4
29	33	1
71	71	1
13	13	2
29	29	2
64	66	1
124	125	1
119	124	2
32	32	1
139	139	1
99	100	1
94	94	2
105	106	2
0	36	1
96	96	2
140	140	2
24	24	2
29	36	1
125	126	1
116	116	3
139	140	2
99	101	1
67	67	1
55	56	1
27	27	1
79	95	1
81	81	2
53	53	1
26	26	1
30	74	1
14	14	2
72	72	1
79	84	1
18	18	2
136	138	1
1	2	4
120	120	1
74	75	2
51	51	1
98	98	1
58	58	2
2	27	1
39	39	1
121	132	1
134	134	4
2	10	1
91	96	1
74	74	1
21	21	1
124	124	1
143	143	1
102	128	1
129	129	1
102	102	1
17	17	1
118	118	1
48	108	1
79	79	1
25	25	1
5	5	1
107	110	1
106	106	1
121	133	1
17	27	1
109	123	1
36	36	1
121	122	1
120	125	2
19	26	1
69	69	1
4	32	1
50	50	1
1	1	1
90	91	1
82	82	1
30	42	1
114	114	1
103	103	1
23	66	1
72	83	1
37	38	2
71	72	1
57	58	2
59	87	1
107	131	2
73	110	1
138	139	1
97	99	1
48	48	1
49	49	1
20	91	1
71	107	1
36	39	1
30	31	1
80	81	1
20	20	1
106	125	1
141	142	1
9	9	1
102	127	1
80	80	1
103	104	1
34	39	1
132	132	1
49	108	1
106	127	1
67	86	1
