222	223	3
191	191	3
224	225	2
38	43	1
7	8	4
72	72	5
235	235	4
49	49	3
159	159	3
218	218	5
32	32	3
171	171	4
82	82	4
108	108	4
186	186	1
217	233	1
172	173	2
16	49	1
178	178	7
155	155	5
150	150	5
12	12	2
0	0	3
231	232	2
153	153	2
239	239	3
187	188	2
185	185	4
104	104	2
120	120	4
170	170	5
234	234	2
67	68	3
85	85	4
169	170	3
58	58	7
30	30	5
202	203	2
162	162	4
102	106	3
224	224	3
46	46	6
161	161	9
28	28	10
86	86	6
61	62	2
169	169	6
182	184	1
102	102	7
75	75	3
223	224	2
153	158	3
3	3	4
123	125	1
207	208	1
106	112	1
113	113	3
1	2	1
63	64	1
37	37	6
1	151	1
131	131	2
31	31	3
145	145	4
120	121	1
182	182	3
14	14	1
232	232	6
126	126	2
99	99	4
3	10	1
172	172	4
239	240	1
195	210	3
225	227	2
16	16	6
72	73	1
127	127	3
149	149	5
62	73	1
81	81	3
43	43	4
105	105	7
118	118	1
55	75	1
36	36	5
16	17	4
163	182	1
115	117	4
22	22	2
108	109	2
129	129	2
47	47	3
231	231	2
146	146	2
112	112	1
61	61	3
33	120	2
45	45	3
151	151	10
141	142	4
56	57	1
11	12	1
222	222	4
8	8	5
29	29	8
179	184	1
24	113	2
158	158	8
23	23	4
54	54	2
109	109	1
205	206	1
223	227	2
161	179	2
31	50	1
170	172	2
113	114	2
194	196	1
167	167	3
128	128	4
23	24	1
133	135	1
88	88	2
130	130	3
125	125	3
173	173	4
15	15	3
32	62	1
206	206	7
121	122	2
48	72	1
194	195	3
103	103	3
86	163	1
237	237	5
27	28	1
105	110	2
25	25	4
10	10	7
14	79	1
158	159	5
210	210	2
5	5	4
71	73	3
8	9	1
119	119	7
32	233	1
133	133	3
38	38	1
241	241	2
57	57	4
202	202	2
111	121	1
175	176	1
9	20	3
11	32	1
135	135	2
144	144	2
66	66	3
55	55	5
157	157	6
9	9	4
177	236	1
204	204	3
4	4	4
180	181	3
157	234	1
174	174	5
118	129	1
81	84	2
224	226	1
190	208	1
130	140	1
21	21	1
156	157	4
74	74	3
165	165	3
115	115	6
216	216	2
17	21	1
184	184	3
163	192	1
148	173	1
168	168	4
21	22	2
28	96	1
237	239	1
236	236	1
131	169	3
95	96	1
138	138	4
100	101	1
2	6	1
89	89	1
59	59	2
44	44	4
198	198	1
124	124	1
125	126	2
142	142	2
170	171	3
172	174	2
122	122	5
140	158	1
121	128	2
123	124	2
41	69	1
71	71	6
41	41	2
127	190	1
76	79	1
181	182	1
24	24	1
20	20	7
11	55	1
147	147	3
43	44	1
109	119	1
225	225	1
160	160	2
39	39	3
137	137	3
86	113	1
240	240	2
180	180	1
78	79	1
14	16	1
28	46	1
121	235	1
116	117	1
51	52	2
174	178	1
121	129	1
33	33	2
73	73	6
183	183	1
150	151	4
230	230	3
197	197	4
138	139	2
1	152	1
64	65	1
188	188	3
192	192	2
57	59	1
170	183	1
106	106	3
101	235	1
179	183	1
150	173	1
80	80	3
19	19	1
115	116	2
17	35	1
182	186	1
67	67	4
155	156	1
120	127	1
152	152	4
26	26	5
106	162	1
38	39	3
68	69	2
11	11	6
46	73	1
134	135	3
77	78	1
148	148	1
101	118	1
172	231	1
194	194	1
211	211	3
220	220	3
40	40	1
153	154	1
0	1	1
27	27	2
219	233	2
107	108	2
34	35	2
66	67	2
3	15	1
53	53	2
209	216	1
64	64	1
13	13	2
179	179	1
75	79	2
190	190	2
17	17	4
153	177	1
6	7	3
114	114	2
48	48	5
17	65	1
102	118	1
66	119	1
79	79	5
29	64	1
35	36	1
31	33	1
215	222	1
221	221	2
13	15	2
201	201	1
1	1	1
54	61	1
217	217	4
114	119	1
162	166	1
149	150	3
129	130	4
141	175	1
165	170	1
185	186	1
63	85	1
52	52	1
185	221	1
214	215	1
5	6	1
181	181	2
163	164	1
96	97	1
159	178	1
139	139	4
29	30	1
146	147	1
171	172	2
74	75	1
48	55	1
54	80	1
147	148	1
200	201	1
76	80	1
132	132	2
58	63	2
173	174	1
232	233	1
20	201	1
80	85	1
61	240	1
223	223	3
31	32	2
26	47	1
36	68	1
80	82	1
128	166	1
199	199	2
32	238	1
17	80	1
17	18	1
197	209	1
80	89	1
79	80	2
177	177	4
207	207	3
225	228	1
203	203	3
47	85	1
68	68	2
15	16	1
34	36	1
151	154	1
82	83	2
30	33	1
57	58	1
7	7	5
176	177	2
206	211	1
164	164	2
107	107	1
125	160	1
69	69	2
50	53	1
77	84	1
123	148	1
11	15	1
9	170	1
178	197	1
219	219	3
10	63	1
165	166	1
5	152	1
175	175	2
15	48	1
3	20	1
178	180	1
56	56	4
153	178	1
190	203	1
100	100	3
28	45	1
182	183	1
190	191	2
52	62	1
143	143	3
96	113	1
228	229	1
30	31	1
208	208	3
135	139	1
60	60	3
128	131	1
192	194	1
178	181	1
58	59	1
184	185	2
157	179	1
96	122	1
48	61	1
11	58	1
168	186	1
121	121	1
236	239	1
158	179	1
130	165	1
123	188	2
227	227	1
106	148	1
39	42	1
134	134	2
148	149	1
154	155	1
43	70	1
159	161	1
150	155	1
190	205	1
19	50	1
54	65	1
208	209	1
208	231	1
32	37	1
103	145	1
201	232	2
117	117	3
59	60	1
209	210	1
7	9	2
27	86	1
214	214	1
25	26	1
219	232	1
189	189	1
69	70	2
178	179	2
122	129	1
43	46	1
136	136	2
167	168	2
28	70	1
107	151	1
71	102	1
198	217	1
51	51	1
111	112	2
209	215	1
210	219	1
148	153	1
111	136	2
2	2	1
206	210	1
97	97	2
59	82	2
152	180	1
204	231	1
193	194	2
211	212	1
65	70	1
78	80	1
56	80	1
229	230	1
221	223	1
122	145	1
30	131	1
106	152	1
162	163	2
195	195	1
18	59	1
1	14	1
32	34	1
125	127	1
106	109	1
52	56	1
144	145	1
154	154	3
69	72	1
32	46	1
49	53	1
35	35	1
116	116	1
9	41	1
96	96	1
152	236	1
62	62	4
122	169	1
187	213	1
137	166	1
50	50	2
103	105	1
55	56	1
119	121	1
136	137	2
106	107	1
80	142	1
227	231	1
102	173	1
85	89	1
199	200	1
166	166	1
28	121	1
122	123	1
3	131	1
164	165	1
196	197	1
20	21	1
145	146	1
166	174	1
30	96	1
127	128	1
3	71	1
126	127	1
27	172	1
141	141	1
4	31	1
46	47	1
124	126	1
37	73	1
2	4	1
65	65	1
139	142	1
191	232	1
62	86	1
145	171	1
18	19	1
62	64	1
197	198	1
191	200	1
15	49	1
24	25	1
44	45	1
70	120	1
