123	123	2
75	77	1
25	25	1
46	46	1
57	123	1
73	74	1
73	73	2
53	53	7
62	62	5
106	106	3
0	0	5
54	55	1
106	107	3
120	120	5
50	50	1
71	71	3
52	53	2
95	96	2
2	2	4
97	97	1
26	26	6
98	99	1
64	65	2
108	108	4
97	100	1
26	27	2
126	128	1
2	31	1
93	93	4
113	114	6
91	91	1
101	101	2
74	74	3
48	48	2
65	67	1
42	45	1
92	92	2
49	49	7
59	68	1
129	131	2
109	111	2
66	66	4
47	84	1
126	126	4
95	95	3
128	128	4
23	23	2
83	83	2
60	60	3
30	30	4
6	6	2
42	42	3
54	54	3
84	91	1
16	34	1
100	100	3
76	116	1
33	33	2
47	47	3
121	121	2
65	65	3
41	41	2
51	51	2
15	15	2
59	60	1
63	63	3
113	113	3
99	100	1
89	89	1
38	41	1
38	39	1
109	109	3
100	101	3
131	131	2
96	98	2
78	78	1
11	12	1
109	110	1
75	84	1
94	94	3
118	119	1
63	74	1
75	76	1
14	14	1
76	108	1
45	45	3
79	101	1
16	16	2
22	22	2
125	130	1
44	45	2
89	101	1
116	116	2
89	93	1
122	122	1
59	59	2
68	80	1
84	84	1
96	99	1
81	81	1
119	120	1
46	115	1
90	90	2
115	115	1
82	82	2
88	88	3
112	112	3
19	19	3
32	47	1
78	79	1
132	132	1
69	69	2
61	62	2
10	10	2
113	118	1
32	45	1
108	109	1
20	20	1
82	99	1
39	39	2
94	96	1
24	26	2
105	130	1
56	56	2
3	120	1
15	22	2
18	20	1
104	104	1
53	55	1
72	72	2
24	24	2
118	118	5
52	52	3
34	66	1
86	86	1
117	117	1
119	119	1
58	72	2
59	63	1
29	29	4
85	85	1
125	127	2
86	88	2
43	46	1
55	55	3
51	64	1
79	81	2
76	76	1
67	67	1
7	7	1
57	57	2
67	69	1
127	129	1
69	76	1
32	33	2
86	91	1
70	70	1
81	128	1
66	67	1
40	40	2
80	80	1
31	32	1
38	67	2
81	96	1
104	106	1
61	61	1
47	48	1
3	3	2
1	50	1
87	88	1
110	111	1
5	92	1
7	10	2
79	79	1
68	70	2
128	130	1
40	127	1
81	82	2
8	8	1
41	42	1
17	17	1
28	67	1
102	102	2
32	32	1
38	38	1
18	18	1
124	124	3
58	59	1
11	11	1
98	98	1
116	117	1
50	57	1
82	101	1
103	103	1
91	93	1
126	127	1
65	66	1
99	127	1
99	99	1
42	60	1
45	46	2
70	71	2
31	31	1
42	43	1
87	87	1
42	46	1
33	34	1
105	105	1
80	81	1
4	92	1
129	129	1
18	19	1
62	64	1
101	102	1
110	110	1
9	11	1
1	1	1
59	61	1
126	130	1
49	50	1
25	77	1
32	63	1
32	62	1
85	88	1
96	96	1
