45	45	4
77	77	6
140	140	13
121	122	4
111	111	12
42	43	2
71	71	7
42	55	1
37	37	7
46	46	6
127	151	2
33	33	5
157	157	3
92	116	2
125	126	2
16	48	2
49	49	3
127	128	3
18	19	3
123	143	1
55	55	3
113	113	5
66	66	7
106	107	1
107	107	10
24	158	1
72	72	2
146	147	2
153	153	8
118	118	5
129	143	1
119	119	2
146	146	7
131	131	5
7	7	10
65	121	1
142	142	3
13	90	2
116	116	3
128	128	7
26	28	2
76	76	5
28	28	7
117	117	11
121	121	5
32	32	2
79	79	5
23	23	6
140	142	1
154	154	9
7	8	1
141	141	7
123	123	5
120	121	1
20	20	3
36	38	2
3	3	5
45	48	1
25	25	6
110	112	1
156	157	1
107	129	1
8	11	1
100	105	2
78	78	3
68	68	5
157	159	2
134	135	5
79	80	1
136	136	5
8	115	1
27	28	3
96	96	4
149	149	6
38	39	1
148	148	9
64	64	3
108	108	4
123	137	1
5	5	1
125	125	1
3	22	2
93	93	4
85	85	7
27	27	1
7	140	2
137	138	2
104	104	1
82	82	5
16	16	4
151	151	5
80	80	10
87	87	2
129	129	6
122	122	5
12	14	1
12	13	4
4	4	4
24	24	5
157	158	3
145	145	3
55	56	1
121	123	1
122	123	3
103	103	3
134	148	1
91	91	9
155	155	9
106	106	6
39	39	4
42	42	1
150	150	6
158	158	4
75	75	5
144	146	1
155	156	3
63	63	3
17	25	1
77	78	2
62	62	1
67	67	8
32	35	1
26	26	3
31	32	5
144	144	8
83	83	6
19	19	2
133	137	3
44	44	3
84	108	1
14	14	1
90	90	2
150	151	1
156	156	5
130	130	3
101	101	4
124	124	4
83	84	2
106	129	1
10	10	2
56	56	3
65	66	1
95	116	1
112	133	1
112	112	7
28	37	1
92	92	2
105	105	7
29	30	3
87	90	1
94	94	9
29	29	3
54	54	3
135	135	4
2	2	1
137	137	8
134	134	6
154	155	2
36	67	2
95	95	5
28	44	1
126	126	9
10	33	1
48	58	2
117	125	1
97	97	6
29	39	1
71	131	1
141	142	1
102	102	2
100	100	8
108	109	3
31	31	2
133	134	2
81	108	1
152	152	3
132	132	4
18	18	3
67	104	2
54	84	2
11	11	3
67	70	1
89	89	3
126	143	1
144	145	3
92	148	3
17	35	1
115	123	2
43	43	5
15	16	1
34	36	2
26	39	2
23	75	1
138	138	4
84	85	3
34	34	2
23	24	2
109	109	5
139	141	1
26	74	1
112	113	1
53	53	4
127	127	1
111	112	1
70	132	1
86	89	1
11	12	2
8	8	4
115	116	1
114	114	3
21	22	1
124	125	2
114	117	2
24	26	1
50	50	2
63	64	2
8	9	1
100	101	2
108	124	1
15	15	5
118	120	4
93	112	1
9	117	1
12	12	3
20	21	1
114	118	2
130	135	1
78	79	3
75	76	1
110	110	2
88	88	3
21	50	1
32	42	1
128	132	1
69	156	1
152	153	3
88	89	2
90	119	1
4	5	1
85	86	2
98	98	3
117	121	1
17	33	2
117	119	1
134	140	1
88	90	3
133	141	1
21	23	1
21	21	3
23	25	1
113	114	2
140	141	2
10	12	1
70	70	4
30	30	2
71	154	1
138	139	2
120	120	2
80	105	1
69	69	1
51	66	1
48	48	1
26	100	1
128	138	1
139	140	1
86	86	2
82	83	1
135	137	1
35	35	2
89	90	1
155	157	1
110	115	1
8	21	1
25	101	1
148	149	1
29	31	1
153	156	1
69	120	1
77	82	1
62	92	1
109	124	1
109	113	1
135	136	1
130	132	1
13	13	2
36	36	3
149	150	2
71	72	1
48	49	1
17	45	2
115	115	5
91	92	1
74	74	1
36	37	1
68	138	1
51	51	2
112	131	1
44	45	1
108	116	1
129	130	2
106	148	1
99	99	1
107	134	1
117	126	1
79	90	1
17	34	1
1	2	1
37	75	1
13	39	2
93	95	1
42	86	1
81	81	1
47	47	1
34	52	1
151	152	1
91	112	1
67	105	1
147	147	2
128	139	1
82	86	1
130	140	1
132	133	1
88	109	1
70	155	2
87	89	1
50	64	1
126	153	1
29	52	1
87	111	1
17	17	1
67	69	1
95	135	1
68	69	3
40	41	1
115	142	1
115	118	1
12	15	1
65	65	3
0	0	1
95	96	3
40	113	1
62	84	1
33	34	2
71	74	1
90	94	1
104	105	1
38	38	3
37	119	2
15	88	1
91	109	2
11	39	1
126	127	1
6	25	1
112	135	1
9	9	1
113	118	1
75	106	1
46	63	1
27	47	1
130	134	1
151	156	1
9	52	1
119	120	1
77	109	1
85	110	1
78	94	1
90	91	1
111	120	2
101	156	1
34	57	1
116	117	2
24	35	1
64	107	2
6	6	2
84	111	1
143	143	1
87	93	1
38	75	1
38	40	1
134	136	1
96	119	1
70	107	1
85	118	1
117	154	1
26	27	1
96	107	1
14	15	1
88	93	1
139	139	2
43	44	1
31	42	1
52	52	1
64	80	1
114	123	1
126	142	1
46	47	1
90	120	1
41	41	1
105	107	1
18	22	1
127	131	1
149	151	1
118	119	1
46	48	1
116	120	1
