95	95	6
87	87	1
69	70	1
56	56	3
58	104	1
104	105	4
99	100	5
31	34	1
2	6	2
136	136	8
14	15	2
64	64	3
27	27	6
139	140	2
129	129	11
3	4	4
65	65	3
58	58	4
25	136	1
21	22	2
22	22	6
102	102	4
18	25	1
72	72	3
2	2	4
63	63	5
38	38	6
89	89	2
17	17	5
17	18	1
93	93	4
49	49	2
9	24	1
135	135	3
32	32	4
78	80	1
98	98	4
89	90	2
118	119	2
82	82	1
123	123	2
55	55	4
117	117	3
88	117	1
71	71	7
111	113	2
11	11	3
132	132	2
107	107	3
30	30	4
103	126	2
82	92	1
20	21	1
29	32	1
38	41	1
25	25	1
40	40	7
12	13	2
19	19	3
98	129	1
54	92	1
108	108	4
52	52	6
137	137	3
36	36	2
101	101	1
124	124	1
77	77	3
97	97	3
68	71	2
31	31	3
81	81	2
127	139	1
66	111	1
58	60	1
71	72	3
139	139	4
48	104	1
111	111	4
66	66	4
69	69	1
84	84	2
110	112	4
119	120	3
65	70	1
68	68	3
118	122	1
141	141	3
121	121	7
116	119	1
60	60	1
24	108	1
82	83	2
133	133	5
80	82	2
78	78	3
96	96	5
76	76	3
61	61	5
123	131	1
88	89	2
118	118	3
64	65	1
25	111	2
116	116	2
125	125	3
67	68	2
133	134	4
106	106	2
28	30	3
88	88	3
23	41	1
41	63	1
30	131	2
24	25	1
23	23	4
50	50	6
59	59	3
75	95	2
3	3	1
99	99	2
101	103	1
34	34	3
3	5	3
29	29	4
128	130	1
100	100	5
82	121	1
14	14	4
56	61	1
83	92	1
120	121	1
6	19	1
53	53	4
91	91	6
30	32	1
126	126	5
115	115	4
115	118	1
142	142	2
33	33	3
85	85	4
122	122	2
4	4	4
10	10	2
61	62	1
82	86	1
99	103	1
6	30	1
6	68	1
105	105	5
108	109	1
81	101	1
92	92	1
79	79	3
43	80	1
110	139	1
17	35	1
57	91	1
54	55	2
10	21	1
77	79	1
62	62	3
90	90	3
143	143	6
131	131	5
144	144	4
71	86	1
110	111	1
130	130	7
49	53	1
122	123	3
15	17	1
133	139	1
104	104	4
4	5	2
26	61	1
101	108	1
9	10	1
39	39	4
126	130	1
123	124	1
21	21	3
26	26	6
48	98	1
48	48	2
31	37	1
83	109	1
47	47	1
16	16	5
37	37	6
74	74	4
8	8	4
2	5	2
95	99	1
41	42	1
87	88	1
110	110	1
33	36	2
113	113	1
18	18	6
75	82	1
18	20	1
25	29	1
5	5	4
145	145	7
42	126	2
19	40	2
27	37	1
81	92	1
53	55	1
102	110	1
49	52	1
127	127	3
95	141	1
27	30	1
99	130	1
126	128	1
102	124	1
83	84	3
113	137	1
67	73	2
127	134	1
76	77	2
93	119	1
94	94	2
20	20	4
6	8	2
138	139	2
34	35	2
13	13	1
134	134	2
97	124	1
119	119	3
43	43	2
5	46	1
1	2	1
137	138	2
23	28	1
57	57	3
23	26	1
75	75	3
41	41	2
22	141	1
9	9	2
48	64	1
8	22	1
99	107	1
77	78	1
8	107	1
42	72	1
33	35	1
80	80	3
91	92	1
105	106	1
138	138	1
23	97	2
0	0	1
102	103	1
104	111	2
63	83	1
80	87	1
116	117	1
2	25	1
63	65	1
78	117	1
21	23	1
86	86	2
146	146	1
81	93	1
96	114	1
16	35	1
51	52	1
1	9	2
28	29	1
114	116	1
69	71	2
106	123	2
102	131	1
40	41	2
68	69	1
86	109	2
128	129	2
74	98	1
71	96	1
28	28	2
142	143	1
128	128	1
125	127	1
87	89	1
86	110	1
40	133	1
73	74	1
19	67	1
36	69	1
90	91	1
70	70	2
96	102	1
124	140	1
4	6	1
3	50	1
6	50	1
67	67	1
51	128	1
18	19	1
97	130	1
87	91	1
83	120	1
112	112	1
93	94	1
121	122	1
109	109	1
35	37	1
77	82	1
24	24	2
132	134	1
79	80	1
136	139	2
103	104	2
86	100	1
57	73	1
42	42	1
139	141	1
76	78	2
80	90	1
103	103	1
8	98	1
83	83	1
54	54	1
107	131	1
56	75	1
16	17	1
141	142	1
27	28	1
66	67	1
6	42	1
42	43	1
136	138	1
18	41	1
80	81	1
75	88	1
35	36	1
3	12	1
67	101	1
53	78	1
53	54	1
101	105	1
100	101	1
41	66	1
86	91	1
