156	156	3
193	193	5
172	174	4
178	181	1
51	181	1
28	28	9
211	211	4
91	91	5
31	31	7
12	12	5
212	212	9
117	117	4
39	39	9
53	53	8
237	237	7
101	101	10
76	97	1
34	34	7
217	221	1
167	201	1
33	33	7
48	48	3
2	2	3
10	10	8
144	144	1
44	44	5
145	145	4
29	29	10
42	42	5
154	154	8
37	165	2
214	214	10
236	236	3
177	184	1
149	149	4
111	111	10
74	247	2
209	242	1
147	147	3
225	225	8
67	94	1
89	89	6
21	21	5
6	6	6
84	84	2
23	27	2
51	51	3
79	79	3
47	47	7
156	201	2
195	195	7
230	230	5
8	8	6
213	213	3
162	162	12
90	90	5
73	79	1
150	150	8
3	35	1
23	227	2
81	81	3
162	163	3
242	242	3
36	39	3
7	8	1
189	190	3
170	170	6
195	199	2
182	182	3
33	37	1
198	198	6
41	41	5
9	41	1
169	169	5
160	160	5
110	110	7
30	31	1
107	107	3
43	43	6
22	22	6
14	14	4
74	105	1
26	26	3
167	167	5
155	155	2
180	201	1
65	65	5
36	36	6
33	34	1
188	209	1
191	191	4
30	30	9
204	205	2
179	179	9
172	172	6
235	235	5
151	224	1
69	75	2
210	210	6
201	201	9
51	52	2
58	61	2
219	219	5
94	221	1
15	15	4
40	41	1
186	189	1
207	207	5
231	232	1
24	145	2
241	241	5
115	115	8
108	118	1
83	98	2
5	5	4
209	209	6
175	175	8
118	118	11
238	238	5
194	194	8
106	119	1
58	170	1
73	73	1
187	188	3
64	118	1
216	216	1
194	195	2
76	85	1
72	216	1
185	185	2
248	248	4
157	165	2
41	42	1
174	174	5
221	221	6
223	223	6
37	38	2
164	164	3
24	25	1
121	121	1
79	98	1
168	168	2
4	5	3
24	24	5
69	70	1
11	11	8
118	119	3
205	205	9
18	18	7
27	27	6
98	98	4
4	4	9
167	204	2
229	229	8
7	16	1
79	105	1
20	21	1
40	40	6
116	116	5
32	40	2
9	9	7
156	161	1
51	67	1
183	183	3
32	32	2
166	166	9
62	62	5
90	91	2
3	3	4
29	30	6
197	197	5
110	111	2
112	112	9
95	95	6
203	205	1
215	215	2
220	220	7
188	247	1
203	207	4
233	239	1
190	213	1
220	225	1
16	52	2
38	47	1
159	159	5
44	45	1
151	226	1
231	231	7
58	59	2
23	23	4
208	208	1
165	165	4
66	66	4
75	75	2
88	89	5
237	238	1
112	152	1
232	232	4
2	3	2
1	1	5
192	193	1
34	219	2
173	173	11
20	20	6
200	200	3
249	249	1
57	57	7
176	176	2
60	62	2
113	116	1
85	86	1
38	39	4
89	90	1
48	63	1
114	115	2
27	28	4
218	218	2
247	247	7
215	217	1
19	19	7
228	228	7
109	109	4
46	46	3
204	207	2
59	59	6
189	232	1
69	69	1
35	35	4
227	227	5
88	88	3
89	112	1
184	184	5
217	218	1
239	240	1
36	38	1
227	228	3
198	199	1
245	246	5
157	157	7
153	153	6
94	94	5
182	183	1
91	174	1
186	186	3
67	68	6
60	60	5
233	233	3
52	52	3
113	113	2
180	180	4
235	241	1
210	226	2
71	77	1
43	44	1
0	0	1
54	55	1
69	71	1
204	233	1
224	224	4
159	180	2
38	234	2
11	46	1
104	106	1
55	55	5
204	204	7
97	98	4
69	210	1
226	226	6
62	167	1
199	210	1
23	37	1
50	50	5
9	21	1
215	216	2
226	227	2
8	14	1
26	32	1
146	146	4
152	152	3
80	80	1
168	169	1
19	20	2
244	244	3
120	120	4
246	246	4
185	186	1
48	50	3
213	216	1
171	171	3
55	56	1
240	242	2
228	229	2
162	176	1
60	232	2
78	78	2
216	217	4
61	61	6
99	99	3
68	87	1
66	74	1
212	213	3
105	105	1
238	240	2
221	223	1
52	53	2
19	25	1
154	155	3
151	151	3
64	119	1
87	88	2
213	214	1
202	202	3
167	181	1
214	215	3
167	168	1
38	118	1
23	24	1
68	68	1
71	88	3
82	82	2
42	52	1
206	206	2
217	217	3
243	244	2
47	48	3
172	173	1
17	47	1
36	37	3
37	37	13
175	181	1
196	217	1
77	77	4
182	209	1
63	74	1
82	83	1
79	81	3
157	208	1
56	57	2
119	119	3
168	200	2
222	222	5
207	226	1
203	203	7
58	64	2
199	214	1
192	233	1
209	214	1
243	243	4
75	85	2
190	218	1
5	245	1
181	181	7
165	166	2
159	170	2
175	177	1
70	73	1
64	69	2
169	213	1
29	31	2
59	60	1
25	25	7
196	199	2
54	54	5
64	68	1
114	114	2
72	72	3
0	1	2
65	70	2
70	76	1
186	213	2
92	92	6
64	64	2
195	196	1
240	243	1
65	245	1
193	194	2
63	68	1
100	100	3
102	102	2
239	239	2
104	104	2
196	196	3
171	186	1
49	50	4
9	10	1
75	76	2
245	245	3
71	72	2
13	161	1
3	40	1
247	248	1
120	144	1
86	87	2
219	220	2
49	49	3
180	184	2
10	11	1
96	97	1
74	80	1
185	190	1
7	7	5
186	241	1
236	237	1
30	32	2
182	206	1
76	78	1
163	165	1
166	177	1
182	205	2
202	205	1
6	46	1
177	177	3
85	85	4
54	93	1
230	231	1
234	234	5
46	47	1
89	97	1
60	64	2
188	188	1
35	36	3
76	88	3
214	219	1
91	99	1
28	35	1
160	161	2
49	65	1
67	87	2
179	180	1
45	46	1
162	180	2
177	186	1
161	172	1
235	238	1
28	36	1
62	75	1
174	199	1
213	219	2
66	91	1
85	117	1
38	38	6
186	188	1
94	100	1
178	178	4
66	69	1
212	223	1
199	199	3
31	32	2
103	103	1
97	97	1
50	51	2
67	77	1
93	109	1
216	241	1
21	156	1
72	73	1
17	17	4
224	225	2
180	181	1
90	93	1
229	230	1
29	54	1
45	45	5
163	163	2
50	60	1
199	200	1
190	190	2
214	216	1
10	42	1
222	231	1
76	76	2
235	236	1
202	223	1
244	245	2
34	35	1
12	46	1
13	14	2
16	16	2
210	211	2
30	48	2
53	174	1
155	156	1
104	105	1
18	19	1
90	100	1
240	248	1
176	178	2
71	247	1
58	58	3
156	179	1
22	24	2
33	230	2
78	84	1
24	44	1
162	166	1
186	191	1
60	234	1
39	40	1
33	46	1
177	183	1
106	106	2
178	200	1
183	184	1
186	187	1
226	235	1
16	46	1
192	192	2
113	205	1
14	15	3
184	185	2
164	165	1
84	108	1
37	203	1
201	212	1
87	87	2
29	227	1
69	78	1
178	193	1
88	96	1
58	209	1
108	109	3
71	71	1
83	83	1
93	100	2
47	51	1
5	34	1
2	11	1
11	228	1
77	85	1
163	176	1
220	234	1
191	199	1
8	20	1
181	182	1
170	171	1
232	233	2
240	240	1
57	61	1
247	249	2
223	236	1
77	78	1
81	107	1
29	40	1
25	154	1
223	224	1
191	193	1
225	245	1
177	178	2
202	203	1
29	110	1
47	50	2
74	74	1
201	246	1
46	59	1
6	54	1
1	16	1
48	108	1
94	95	1
197	198	1
157	162	1
4	96	1
223	230	1
39	45	1
228	246	1
188	189	1
242	247	1
34	36	1
24	54	2
207	244	1
219	221	1
86	89	1
8	203	1
238	239	1
16	65	1
194	235	1
242	244	1
5	18	1
187	189	1
93	101	1
6	8	1
70	70	2
211	229	1
189	189	1
169	170	1
222	223	1
100	101	1
207	236	1
63	64	1
28	31	1
244	246	1
186	214	1
194	210	1
165	199	1
19	78	1
226	228	1
242	243	1
44	109	1
62	84	1
47	57	1
59	65	1
63	112	1
18	20	1
176	177	1
166	167	1
84	85	1
