119	119	3
72	72	1
49	131	2
142	142	2
172	172	1
40	43	1
30	31	2
138	156	2
2	2	1
9	154	1
40	41	1
38	45	1
179	179	2
39	40	1
142	154	1
69	69	3
37	37	2
71	71	1
183	183	2
110	117	3
67	67	1
53	53	2
44	45	1
96	96	1
11	11	3
176	177	7
185	191	2
139	141	1
54	55	2
88	89	1
20	23	1
151	151	3
152	152	5
136	136	1
23	23	5
169	169	1
47	122	1
40	40	3
108	113	2
57	58	2
1	161	1
6	6	3
44	44	3
104	105	1
42	45	1
148	148	3
163	163	3
195	195	1
117	117	1
33	33	1
173	174	2
6	8	1
35	35	2
37	45	1
41	41	1
161	161	1
169	170	1
167	168	1
37	43	1
186	186	2
4	9	1
51	51	2
56	67	2
33	34	2
50	50	3
55	88	2
65	122	1
42	118	1
10	37	1
28	28	3
0	3	1
21	22	2
56	59	2
36	36	3
153	154	1
124	135	1
133	133	1
4	4	3
106	107	1
181	181	2
11	135	1
96	98	2
43	49	1
12	47	1
21	21	2
20	21	1
144	144	2
98	119	1
141	172	2
147	148	2
31	34	1
18	19	1
43	43	1
107	107	2
42	150	1
31	31	2
33	105	1
190	190	2
18	18	1
53	54	1
162	162	1
22	26	1
138	138	2
140	140	1
63	63	1
191	192	1
15	15	1
3	8	1
155	156	1
5	5	1
82	85	1
152	171	1
22	22	2
170	170	1
99	113	1
58	58	1
57	57	1
95	95	2
66	68	1
46	46	2
3	3	2
186	189	1
185	185	2
182	182	1
7	7	4
27	30	1
78	78	1
105	105	1
177	190	2
128	128	1
7	8	1
34	35	1
164	190	1
58	129	1
138	195	2
38	38	1
127	127	1
0	23	1
20	20	1
133	134	1
9	9	1
108	108	1
74	74	1
175	175	1
143	143	1
162	166	1
2	6	1
177	177	2
141	141	1
60	62	1
194	194	1
52	122	1
34	34	2
29	29	1
39	151	1
189	189	1
135	156	1
42	42	3
10	11	1
189	190	1
27	27	1
180	181	1
10	10	2
174	178	1
130	130	1
150	151	1
183	197	1
26	26	1
121	142	1
173	173	1
27	29	1
59	59	1
138	186	1
25	25	1
195	196	1
48	48	2
139	143	1
12	153	1
170	172	1
145	146	1
139	140	1
140	142	1
80	80	1
68	68	1
2	16	1
8	20	1
168	168	2
134	134	1
154	164	1
26	44	2
145	148	1
21	30	1
135	135	1
151	153	1
171	182	1
160	160	2
15	193	2
158	158	1
187	189	1
9	10	1
182	196	1
52	58	1
141	170	1
109	110	1
88	88	1
196	196	1
