84	84	2
42	48	2
90	90	4
65	66	2
47	63	2
97	97	7
73	73	3
106	106	2
56	56	3
143	143	3
77	77	1
10	10	3
18	18	4
82	83	1
128	129	3
140	140	3
112	112	2
104	116	2
75	75	1
52	107	1
88	88	1
4	5	1
80	88	1
13	13	2
41	41	3
66	66	5
129	130	1
129	129	3
43	43	3
25	25	5
8	8	2
82	85	1
94	94	2
86	87	1
87	89	1
58	58	1
40	40	1
101	101	5
86	97	1
141	142	1
100	101	1
118	118	5
92	93	1
33	34	1
59	97	3
48	48	10
126	126	5
38	38	2
107	108	1
133	133	5
131	132	2
87	87	2
120	120	4
90	92	2
9	9	3
62	62	6
60	60	3
20	20	2
96	96	4
53	54	1
78	79	2
25	30	1
134	134	3
130	130	2
95	95	2
35	35	2
132	132	4
72	77	1
11	11	2
105	105	3
85	85	1
103	103	4
95	130	1
39	39	1
76	78	2
120	121	2
31	31	3
36	36	4
50	50	2
125	125	10
29	29	5
98	98	2
17	17	3
55	71	1
29	30	2
83	83	2
65	123	1
88	118	1
0	0	2
3	4	1
110	115	2
3	3	1
119	119	1
105	131	1
19	19	2
49	50	4
91	95	1
70	70	3
26	56	1
2	23	1
26	26	1
72	72	5
56	134	1
101	102	5
127	128	1
20	21	2
14	79	1
24	24	3
63	63	1
116	117	2
113	113	1
84	85	1
80	125	2
36	37	1
27	27	3
109	111	1
53	104	1
62	73	1
94	95	3
55	68	1
2	2	1
74	97	1
92	94	1
49	49	2
102	141	1
110	110	4
100	100	6
109	136	1
1	13	1
87	88	1
85	86	3
98	99	3
12	33	1
110	118	1
139	140	3
127	127	2
28	29	1
13	69	1
98	144	1
75	106	1
33	37	1
91	91	3
10	73	1
42	42	2
95	140	1
77	78	2
34	34	2
67	105	1
83	84	1
14	56	1
97	98	1
37	48	1
30	30	4
118	135	1
28	28	2
86	105	2
6	6	3
59	60	1
142	143	1
74	74	1
121	121	1
67	67	4
19	20	1
48	103	1
117	117	4
76	80	2
114	123	1
128	128	3
114	115	1
22	22	2
132	133	2
123	123	3
48	49	1
90	94	1
113	114	1
90	91	1
61	61	4
92	92	1
47	48	1
131	131	2
65	92	1
56	100	1
129	141	1
104	104	2
102	103	3
86	86	1
54	117	1
82	82	3
104	105	1
73	97	1
109	109	3
68	68	1
51	51	2
35	51	1
42	62	1
54	54	2
59	77	1
124	125	3
113	116	3
22	23	1
112	117	1
137	138	1
47	47	1
139	139	2
17	18	1
119	126	1
69	73	1
32	32	1
124	124	4
93	94	2
6	25	2
42	59	1
50	84	1
34	35	1
99	102	1
13	16	1
56	106	1
119	128	1
49	140	1
68	69	1
70	96	1
33	140	1
6	17	1
116	116	2
81	82	1
59	122	1
110	111	2
127	136	1
136	136	4
138	138	1
71	100	2
76	76	1
41	42	2
102	102	2
93	93	1
115	116	1
101	128	1
27	28	1
27	57	1
82	124	1
91	131	1
81	81	1
107	107	2
37	37	1
17	54	1
126	135	1
65	65	1
99	99	1
13	34	1
80	80	1
54	68	1
23	23	1
56	117	2
3	5	1
119	120	1
96	98	1
114	114	1
21	55	1
61	67	1
16	16	1
121	122	1
54	102	1
122	122	2
48	142	1
61	100	1
14	18	2
2	19	1
122	123	1
114	116	1
95	96	1
125	134	1
97	103	1
17	33	1
18	55	1
17	23	1
37	43	1
64	64	1
115	117	1
89	136	1
13	32	1
21	21	1
77	79	1
9	19	1
1	1	1
23	25	1
67	87	1
90	132	1
56	126	1
25	57	1
109	126	1
74	100	1
