37	130	1
87	87	5
108	109	4
81	120	1
85	85	1
130	134	1
137	137	5
130	130	3
106	106	7
93	94	1
134	135	4
78	78	6
131	131	2
75	75	4
74	82	1
101	132	1
2	12	1
80	80	4
13	14	2
12	13	2
123	123	4
84	84	1
110	111	2
125	125	8
78	87	3
135	135	4
13	13	4
117	117	3
131	140	1
96	132	1
120	120	3
126	127	3
71	71	1
89	89	5
79	114	3
38	38	7
113	113	7
133	133	11
7	7	4
86	86	3
80	91	1
103	104	2
98	98	5
94	129	3
34	35	3
6	7	3
96	97	1
100	101	5
4	5	1
122	122	5
123	124	2
109	109	5
110	119	1
37	37	4
90	90	2
140	140	7
115	115	3
72	72	7
134	134	5
19	19	3
76	76	3
101	101	4
91	91	7
99	99	6
77	77	3
88	88	1
94	96	1
116	123	1
8	9	2
8	8	2
121	121	5
73	73	3
0	0	2
91	92	1
102	103	1
100	100	2
94	94	4
82	103	1
120	121	4
133	134	3
100	128	2
35	35	3
127	127	5
82	85	1
111	111	4
93	93	2
33	38	1
83	86	1
129	130	4
124	124	2
33	33	3
2	4	1
138	138	1
132	133	1
6	6	3
107	111	1
128	128	5
80	102	1
106	121	1
72	73	1
136	137	1
117	118	2
5	6	1
81	81	4
96	96	2
119	119	3
34	34	3
118	119	2
79	112	1
95	95	3
132	132	3
112	112	4
100	136	1
114	114	4
36	36	3
71	72	1
89	91	1
113	114	3
102	102	2
130	132	1
82	83	1
116	116	5
136	139	1
96	133	1
79	79	1
12	12	1
115	119	1
76	111	1
131	132	2
108	108	3
11	12	1
74	74	1
85	86	1
99	128	1
28	28	2
125	126	1
129	129	2
118	118	2
74	77	1
90	102	2
73	105	1
119	120	2
83	83	1
15	15	2
85	108	1
137	138	1
132	139	1
2	2	2
44	44	1
74	114	2
121	122	2
136	136	1
111	122	1
77	79	1
9	11	1
128	131	2
96	98	1
1	1	1
87	116	1
2	3	1
15	18	1
73	74	2
15	16	1
32	32	1
3	3	1
117	120	1
83	121	1
82	82	3
117	123	1
83	101	1
90	92	1
74	75	1
103	103	1
97	97	1
108	110	1
36	37	1
126	126	2
73	115	1
104	108	1
135	136	2
11	13	1
17	17	1
4	4	1
18	18	1
104	104	1
94	95	2
109	110	1
103	117	1
37	38	1
95	129	1
14	14	1
90	101	1
96	115	1
