83	84	2
190	190	2
183	183	3
77	77	1
152	152	3
177	181	1
44	44	2
80	80	1
182	182	2
47	47	1
15	16	1
155	166	1
3	3	2
183	187	1
122	126	1
156	167	2
8	8	6
56	56	2
101	102	3
169	169	5
91	102	1
81	81	1
13	36	1
105	105	6
17	22	1
40	40	4
185	185	6
155	168	1
39	81	1
72	72	3
16	16	1
76	77	2
145	169	1
174	174	1
85	85	2
38	55	1
13	14	3
83	123	1
91	92	2
60	60	3
153	154	1
162	164	1
128	152	1
60	62	3
158	159	2
47	68	1
136	182	1
141	181	1
167	168	3
155	155	3
102	118	1
0	0	2
26	26	2
111	130	1
189	190	1
156	181	2
42	42	1
6	7	1
86	95	2
97	99	1
2	2	3
81	83	1
123	123	2
154	165	1
18	20	1
96	98	1
31	42	1
179	183	2
24	25	2
169	174	1
38	39	2
7	7	1
138	179	2
4	4	3
179	179	4
188	188	2
10	11	1
6	6	3
23	23	2
115	118	2
165	166	2
73	73	3
10	28	2
83	83	2
141	141	3
112	180	1
76	76	2
100	102	2
30	32	1
153	153	5
54	54	2
38	54	1
93	93	1
145	145	2
148	150	1
12	12	2
98	121	1
178	181	2
89	119	1
140	156	2
57	57	4
136	149	1
84	85	1
147	148	1
160	162	1
137	149	1
99	99	1
82	184	2
145	185	2
65	65	2
43	44	1
138	139	2
77	110	1
13	33	1
58	60	1
127	128	1
38	38	3
29	29	2
89	89	1
2	3	1
170	183	1
97	97	3
118	118	2
136	136	1
68	68	1
64	65	2
129	129	1
6	53	1
66	108	1
1	37	1
11	12	1
165	165	1
52	78	1
122	123	1
36	37	2
90	97	1
114	116	1
142	143	1
155	157	3
171	173	2
35	35	2
7	9	1
118	119	1
23	33	1
148	155	1
67	95	1
17	23	2
5	5	3
27	28	2
62	99	1
166	166	3
78	80	1
27	27	2
86	100	1
62	62	1
139	139	3
173	173	1
147	147	1
70	70	2
98	98	1
1	1	2
14	53	1
159	160	1
73	168	1
22	35	1
128	128	1
77	78	3
48	109	3
90	90	1
140	187	1
134	139	1
140	185	1
138	141	1
2	7	1
15	15	3
124	124	2
47	48	1
108	122	1
97	114	1
136	183	1
157	157	1
108	132	2
176	188	1
158	158	1
167	169	1
14	31	1
59	59	1
8	13	1
92	93	1
80	94	1
150	150	2
61	61	2
141	145	3
22	32	2
45	45	5
16	17	1
130	131	2
89	110	1
46	47	1
12	13	1
5	7	1
110	110	5
181	181	1
130	184	1
161	161	1
95	95	1
10	10	2
30	43	3
127	134	1
111	111	1
160	160	1
94	104	1
163	164	2
58	58	4
133	133	2
32	33	1
163	174	1
34	35	1
24	24	2
130	130	2
11	11	2
178	178	1
12	23	1
151	151	2
107	107	1
154	154	1
159	183	1
21	22	1
176	176	1
166	178	1
31	31	2
33	33	1
47	72	1
103	124	1
159	159	2
155	170	1
26	66	1
175	175	1
41	54	1
184	184	1
121	169	1
152	162	1
56	57	3
91	115	1
28	28	2
168	169	1
156	164	1
98	99	1
106	106	1
135	136	1
102	103	1
63	66	1
19	21	1
100	124	1
64	64	1
70	99	1
64	90	1
16	41	1
184	186	1
53	55	2
132	132	1
169	170	1
121	130	1
24	27	1
184	185	1
182	187	1
12	15	1
112	118	1
30	30	1
111	120	1
17	55	1
82	82	1
109	109	2
12	68	1
176	179	1
6	76	1
150	162	1
20	20	1
157	178	1
127	177	1
49	79	1
142	178	1
62	67	1
22	22	1
2	101	1
2	39	1
16	53	1
179	180	1
76	83	1
173	178	1
17	54	1
94	118	1
103	103	1
180	182	1
67	67	1
130	144	1
94	94	2
27	29	1
17	40	1
103	110	1
96	96	1
142	144	1
84	86	1
134	134	3
22	41	1
98	115	1
24	48	1
124	127	1
121	122	1
101	101	1
25	25	1
121	137	1
128	180	1
164	175	1
12	33	1
78	78	1
26	33	1
87	113	1
166	182	1
61	66	1
25	36	1
126	166	1
102	102	1
129	130	1
