13	13	5
49	49	3
22	22	5
22	23	2
85	85	7
71	71	13
23	23	8
53	53	10
110	110	3
68	68	4
80	80	7
54	57	2
44	45	1
53	131	1
89	89	2
21	21	4
54	54	2
8	8	5
74	74	5
116	116	3
75	79	2
2	4	2
117	119	1
67	69	4
92	92	2
97	114	1
92	117	1
120	121	2
133	133	7
18	18	4
73	74	2
18	19	1
78	78	9
121	121	5
126	126	3
25	25	8
10	10	9
78	79	4
127	130	1
50	50	9
11	11	5
62	82	1
10	19	3
117	117	5
68	69	3
9	9	2
55	56	1
82	84	4
29	33	1
56	56	3
12	21	1
82	82	2
100	101	1
3	60	2
117	131	2
37	37	4
114	115	1
32	32	3
28	28	6
31	31	8
123	123	3
123	133	1
2	2	4
54	107	1
16	16	3
104	104	4
36	36	3
73	73	3
52	69	1
84	84	5
27	30	1
123	124	3
114	129	1
115	115	4
77	81	1
87	87	4
76	94	1
104	124	1
6	6	4
83	83	5
77	78	7
33	38	2
52	59	1
23	47	1
44	44	5
49	52	1
34	35	2
59	60	2
79	79	14
113	128	1
67	78	1
8	53	1
16	43	1
56	81	1
60	67	1
15	16	3
61	61	4
8	9	5
15	22	1
105	105	7
114	123	1
120	120	6
12	15	1
79	89	1
7	23	1
62	62	6
24	24	3
65	87	2
4	6	1
30	102	2
37	78	1
59	59	2
65	65	7
115	120	2
55	55	2
134	134	4
86	86	6
29	97	1
60	65	2
23	24	3
69	69	3
1	1	4
82	104	1
121	122	1
26	26	6
24	61	1
62	87	1
66	66	2
27	33	1
110	111	2
27	28	2
111	112	3
14	14	4
22	125	2
54	55	1
113	113	2
106	108	1
0	0	4
72	72	8
16	49	1
77	77	3
3	3	6
57	57	2
12	12	5
3	10	1
100	100	6
109	110	1
95	104	2
102	102	5
48	48	2
10	35	1
93	94	1
60	60	3
99	99	4
19	19	6
31	35	1
52	54	1
125	125	3
75	76	2
75	127	1
131	133	2
132	132	6
49	50	5
20	20	3
4	21	1
83	111	1
101	101	4
76	76	7
42	64	2
122	130	2
61	64	1
21	22	2
16	18	2
43	43	7
23	64	1
135	135	1
64	64	2
52	53	3
67	67	4
5	6	2
94	95	1
64	86	1
26	27	3
3	4	1
53	54	3
19	20	3
7	37	1
33	34	2
85	86	1
63	63	3
19	24	1
30	32	1
47	47	5
124	126	1
34	34	4
131	131	3
9	10	4
78	83	1
47	62	2
55	59	2
13	14	2
115	122	1
88	88	2
114	119	1
101	102	4
61	79	1
91	117	1
74	102	1
45	46	1
66	112	1
4	10	1
72	73	3
75	75	4
97	98	2
122	122	3
29	30	1
113	116	1
123	127	1
80	101	2
127	127	3
33	37	1
43	61	1
103	104	1
17	17	4
62	64	2
32	33	1
1	5	1
59	85	1
19	109	2
73	76	2
6	12	2
111	113	1
125	134	2
112	113	2
90	90	1
28	37	1
14	15	1
15	18	2
1	43	1
61	62	1
32	45	1
4	5	1
31	32	1
9	11	1
65	68	3
15	15	3
12	13	2
76	121	1
15	17	1
126	127	3
93	93	1
33	33	2
119	119	2
2	26	1
24	25	1
57	105	1
42	55	1
23	28	1
56	59	1
109	109	2
27	27	1
11	22	1
84	85	3
49	56	1
130	134	1
81	81	2
52	60	1
107	107	1
23	65	1
91	91	2
18	22	1
21	49	1
7	11	1
31	34	1
86	87	1
108	111	1
33	97	2
64	87	1
91	92	2
45	77	1
23	61	1
47	80	1
118	118	2
53	67	2
71	121	1
76	77	2
35	35	4
11	24	1
106	106	1
50	52	1
104	126	2
99	101	1
84	94	2
98	105	1
38	38	1
30	30	1
77	108	1
19	53	1
12	93	1
12	24	1
7	8	1
30	44	1
112	112	1
60	62	1
83	84	1
94	94	1
88	93	1
10	101	1
4	4	1
61	84	1
2	25	1
64	65	1
10	58	1
52	63	2
67	68	1
47	64	1
5	5	1
79	80	1
125	126	1
36	82	1
75	80	1
0	29	1
20	25	1
113	118	1
65	79	1
57	58	2
95	95	2
49	79	1
52	72	1
29	29	3
61	87	1
7	9	1
87	88	3
33	57	1
43	46	1
70	70	1
107	128	1
73	94	1
51	51	2
32	69	1
69	70	1
92	107	1
22	122	1
66	67	1
4	28	1
1	6	1
71	73	1
52	52	2
16	72	1
58	58	3
35	49	1
108	113	1
36	39	1
82	86	1
13	70	1
127	128	1
53	66	1
11	90	1
43	63	1
1	13	2
96	96	1
52	85	1
6	7	1
7	7	1
79	100	1
45	98	1
123	126	1
36	37	1
25	26	1
8	63	1
25	34	1
19	56	1
