193	193	1
31	32	2
34	34	2
30	30	3
162	162	1
22	23	1
48	48	3
11	111	2
37	37	3
40	40	1
181	181	1
190	190	6
149	149	2
14	44	2
90	90	1
2	3	2
20	20	1
151	152	2
113	113	4
179	180	2
117	117	2
132	132	1
141	141	2
103	103	2
55	55	3
97	97	2
24	24	2
89	89	2
50	50	4
54	54	2
14	14	5
101	101	2
8	8	3
23	23	2
1	2	1
47	48	1
194	194	2
102	102	2
39	40	1
25	25	1
179	179	2
131	132	1
38	52	1
33	33	2
39	44	1
135	135	2
20	21	2
44	48	1
138	138	3
115	115	1
26	27	1
74	74	2
49	138	1
40	41	5
15	15	4
155	155	3
175	192	1
88	97	1
185	185	6
52	52	2
157	159	1
194	195	1
25	31	1
54	56	1
143	144	1
157	157	2
97	98	1
47	47	1
182	183	2
114	114	1
1	35	1
105	105	1
11	12	2
22	190	1
144	145	1
1	1	1
188	189	1
82	87	2
169	169	1
183	184	1
4	4	3
61	85	1
32	32	2
175	176	1
177	178	2
123	124	1
115	193	1
122	122	1
21	22	1
172	172	1
184	184	4
94	106	1
23	37	2
53	53	2
43	44	1
46	46	2
5	5	2
171	171	2
191	192	1
31	31	1
174	174	1
4	34	1
104	104	1
120	124	1
44	45	1
139	139	4
72	73	2
83	83	1
168	168	1
197	197	3
21	21	2
16	16	1
129	130	1
186	186	2
38	38	2
28	32	1
105	106	1
101	157	1
66	66	3
156	157	1
156	156	2
133	133	1
119	120	1
14	193	1
150	150	1
128	128	3
64	64	1
61	61	1
189	189	3
86	86	3
93	93	1
106	166	1
41	41	1
180	180	1
106	106	1
2	2	2
86	158	1
28	28	2
13	13	3
63	63	3
13	186	1
33	46	1
78	78	2
83	84	1
8	9	1
173	174	1
100	100	3
15	20	1
42	42	2
7	7	1
110	111	1
9	9	4
18	21	1
167	189	1
19	19	1
85	85	1
93	140	1
159	189	1
127	127	1
86	154	1
59	60	1
130	130	1
49	50	2
17	40	1
66	80	1
26	26	2
118	118	1
102	104	1
30	31	1
9	15	1
173	176	1
154	154	1
34	36	1
17	18	1
19	180	1
121	121	1
65	65	2
27	28	2
0	186	2
111	111	1
143	143	1
95	96	1
45	46	1
182	182	1
60	123	1
110	110	1
72	72	1
187	187	4
144	174	1
130	138	1
12	12	2
146	146	1
129	129	1
186	191	1
142	142	1
44	44	1
195	195	1
51	126	1
7	8	1
161	161	1
11	11	1
126	129	1
56	56	1
66	71	1
165	166	1
183	183	1
10	10	2
90	153	1
195	196	1
32	33	1
147	147	1
24	25	2
51	186	1
177	177	1
6	21	1
47	53	1
37	38	1
169	185	1
71	72	1
182	195	1
40	160	1
49	49	1
16	38	1
156	164	1
120	120	1
173	189	1
