127	127	3
93	93	4
97	97	3
103	104	1
60	60	5
84	84	2
75	75	4
8	25	1
67	67	2
79	82	1
25	25	1
24	24	3
23	24	2
96	97	1
30	31	1
11	24	2
56	58	1
103	127	1
101	101	2
39	88	1
3	3	4
108	108	2
2	110	2
134	134	1
18	19	1
59	59	5
90	92	3
95	120	1
106	106	5
115	116	3
118	118	4
43	107	1
76	76	3
78	78	1
56	56	1
9	85	1
125	125	4
109	110	1
111	111	1
130	130	1
120	120	2
95	95	3
113	113	6
100	121	1
72	72	4
43	44	3
126	126	7
57	57	4
129	134	1
71	71	4
34	34	2
96	100	1
37	37	7
11	38	1
57	58	3
46	47	1
70	70	2
18	32	1
99	99	2
31	31	1
46	46	3
8	70	1
104	104	5
74	74	8
35	35	4
23	26	2
7	7	4
131	133	1
133	133	4
98	123	1
131	131	2
95	101	1
87	87	6
5	5	4
58	58	3
79	125	1
85	95	1
102	128	2
27	29	1
30	30	5
40	40	2
2	71	2
42	42	2
89	113	1
65	65	2
92	92	3
14	14	4
63	125	1
3	11	1
94	94	2
7	56	2
30	32	1
129	129	1
45	45	5
19	20	2
63	63	1
74	116	1
62	62	3
41	41	1
13	13	2
60	61	1
24	30	1
23	27	2
32	32	1
13	14	3
94	95	1
70	116	1
69	69	4
64	64	2
50	59	1
8	8	1
85	85	4
47	47	6
44	44	2
117	117	2
93	94	4
126	128	1
98	112	1
11	11	5
21	21	4
47	100	1
27	27	1
42	43	1
92	93	1
131	132	1
124	124	1
0	1	1
2	5	1
114	131	1
46	61	1
65	67	1
38	40	1
96	99	1
68	68	3
15	26	1
104	107	2
71	112	1
33	45	1
66	129	1
114	115	1
16	16	3
79	80	2
109	109	2
121	121	1
91	91	3
19	19	2
56	57	1
64	67	3
29	30	1
108	109	2
105	113	1
61	61	3
97	121	3
44	59	1
86	87	1
58	83	2
18	34	1
97	99	1
66	66	4
47	48	1
39	59	1
10	10	3
119	119	1
43	43	2
92	100	1
78	79	2
81	99	1
17	18	1
95	98	1
110	110	3
5	6	1
90	90	3
130	131	1
37	38	4
124	125	1
89	89	1
122	122	1
103	123	1
12	12	2
14	48	1
14	26	1
57	74	1
44	67	1
116	116	2
98	101	1
27	57	1
127	128	2
24	26	1
29	29	1
83	84	1
35	36	1
23	23	2
29	55	1
55	56	1
63	66	1
26	27	2
128	128	1
107	107	1
102	114	1
26	26	1
80	80	2
17	17	1
34	44	1
104	132	1
64	69	1
29	31	1
33	43	1
10	68	1
41	43	2
102	125	1
15	16	2
62	64	1
49	49	1
57	59	1
97	103	1
79	79	1
87	88	1
42	105	1
65	66	1
16	17	1
18	63	1
36	59	1
73	73	1
66	111	1
14	34	1
20	20	1
81	81	2
37	39	1
105	132	1
83	95	1
84	89	1
18	18	1
114	116	1
61	62	1
65	78	1
28	84	1
19	32	1
78	82	1
2	3	1
115	115	1
40	43	1
90	130	1
77	77	1
7	57	1
120	124	1
98	122	1
10	85	1
35	117	1
103	103	1
24	25	1
82	85	1
