93	93	5
68	69	2
132	133	2
155	155	6
71	71	3
111	111	3
149	149	3
121	123	1
106	106	6
80	82	1
103	103	3
17	19	1
75	150	1
138	138	5
145	146	1
4	5	1
126	126	2
136	136	4
78	89	2
95	96	2
137	138	5
36	36	2
112	112	3
108	108	2
128	128	5
39	41	1
139	139	5
44	44	4
56	56	3
106	129	1
143	149	1
42	48	1
80	81	1
82	82	2
7	7	2
140	140	5
123	123	5
49	49	4
101	101	7
9	9	2
79	79	4
129	129	12
51	54	1
68	68	2
13	13	1
94	94	3
84	84	1
107	108	1
133	133	2
132	132	3
79	113	2
121	122	1
72	99	1
145	145	4
38	38	1
42	42	4
21	22	1
45	45	5
98	98	6
40	40	2
133	134	2
16	16	3
113	113	2
78	95	2
131	131	2
91	91	5
92	98	1
0	0	2
66	66	3
124	124	2
109	110	2
138	156	2
104	104	6
107	110	1
87	118	2
113	114	1
83	84	1
19	20	2
81	83	1
75	75	3
157	157	2
25	25	3
134	134	4
107	123	1
151	151	7
135	137	1
114	122	1
2	3	1
129	133	3
138	141	1
33	33	5
148	148	4
97	110	1
65	102	1
92	95	1
23	72	1
136	137	2
67	67	9
157	158	2
137	137	2
124	125	3
110	111	1
135	136	3
6	6	1
115	118	1
127	128	2
3	3	2
107	107	4
83	83	1
51	52	1
130	130	5
8	9	1
73	73	2
38	39	1
63	63	1
100	100	1
23	24	1
35	35	5
10	10	3
65	65	2
85	88	1
126	147	1
14	51	1
2	26	1
155	157	2
87	132	1
128	129	5
8	8	2
122	122	3
125	125	4
141	141	3
129	130	1
41	41	1
30	30	4
145	149	1
20	20	3
142	142	4
125	127	2
120	121	2
135	139	1
144	144	1
67	68	2
67	69	2
120	120	6
22	27	2
12	12	1
138	139	1
116	116	1
117	120	1
2	2	1
155	156	2
86	86	2
72	72	2
130	132	1
112	132	1
88	91	1
87	134	1
152	155	2
43	43	2
154	154	4
127	127	2
116	117	1
150	150	5
107	111	1
98	130	1
67	70	1
77	138	1
123	124	2
40	56	1
121	121	3
138	145	1
128	148	1
120	158	1
99	99	5
53	54	1
7	35	2
41	53	1
26	29	1
118	118	1
119	156	1
106	107	1
105	105	3
77	77	2
41	42	2
135	135	3
92	125	1
102	102	2
76	76	1
86	94	1
64	64	2
95	107	1
102	103	3
85	85	1
15	17	3
97	97	2
105	106	1
5	5	2
26	103	1
92	92	4
22	22	1
38	50	1
95	97	2
156	157	1
88	133	1
88	88	1
31	31	4
118	144	1
104	132	1
95	95	4
68	70	1
132	134	1
116	120	1
119	119	1
24	97	1
115	115	2
21	45	1
93	94	2
156	156	2
118	119	1
76	94	1
117	141	1
81	81	1
99	100	2
34	37	1
134	135	1
4	4	2
23	23	1
45	63	1
152	152	1
1	99	1
94	95	1
131	132	1
129	137	1
72	155	1
77	78	1
47	47	1
70	70	1
27	27	1
96	96	1
143	143	1
15	15	1
150	156	1
28	28	2
105	107	1
140	152	3
144	145	2
109	141	1
34	35	2
23	151	1
81	93	1
21	21	1
123	125	1
153	154	1
26	26	2
46	46	1
22	24	1
146	146	1
113	115	1
1	1	1
72	156	1
52	53	1
105	139	1
65	68	1
116	119	1
130	131	2
50	51	1
140	150	1
33	77	1
39	40	1
103	148	1
99	106	1
96	134	1
72	73	1
158	158	1
21	27	1
87	90	1
28	40	1
12	16	1
46	54	1
76	109	1
