92	92	8
31	31	5
88	88	4
33	33	8
85	85	4
58	58	5
97	99	2
80	80	3
97	98	2
82	82	6
66	67	1
104	104	4
91	91	12
72	72	11
94	94	7
105	105	5
27	27	2
25	28	3
54	54	4
103	103	6
55	92	2
24	24	5
55	55	11
23	23	13
57	58	3
62	62	3
98	98	7
37	37	3
74	74	7
49	49	1
57	57	6
30	30	2
99	99	8
96	96	9
59	59	6
47	47	2
38	38	4
91	92	1
70	70	2
87	87	9
50	69	1
47	49	3
101	101	2
41	41	8
35	35	7
85	86	2
92	96	1
97	97	12
28	28	8
43	43	2
95	95	4
52	52	9
79	86	2
104	105	2
60	60	6
76	76	7
54	79	2
69	69	6
81	81	12
74	76	1
68	79	1
52	81	1
53	67	1
31	33	2
58	59	1
68	68	2
37	39	3
83	83	5
77	77	1
25	26	1
29	29	1
71	71	7
25	27	1
73	97	1
48	48	2
49	69	3
102	103	1
88	89	3
72	80	1
45	63	2
89	90	1
86	86	4
21	21	5
66	100	2
27	33	2
40	43	1
51	51	2
36	36	6
41	46	1
61	61	2
69	104	1
79	80	2
44	44	1
100	100	6
106	106	1
46	46	3
60	61	2
90	90	3
78	78	4
76	77	1
87	88	3
39	39	5
36	100	1
84	84	6
78	81	2
82	83	2
22	102	1
26	27	1
64	65	1
24	25	1
102	102	3
40	40	3
75	75	7
65	65	2
20	20	5
45	45	4
49	50	2
22	23	2
89	89	9
84	85	1
63	63	4
53	53	3
86	87	3
45	47	1
64	64	6
66	66	2
56	56	3
71	97	2
61	62	1
94	96	2
41	43	1
92	93	1
40	41	1
21	66	1
78	79	1
44	45	1
47	72	1
38	48	1
74	91	1
36	37	2
52	53	2
35	75	1
101	102	3
22	22	3
49	72	1
34	34	5
67	67	1
48	72	3
52	54	1
26	26	5
73	73	5
58	67	1
107	107	3
50	50	4
32	74	2
35	106	1
41	42	1
32	32	5
38	41	1
20	21	1
61	81	1
55	82	1
25	25	3
77	78	1
89	100	1
37	38	1
73	74	1
34	61	2
20	22	1
56	65	2
43	44	1
55	56	2
32	34	1
67	81	1
42	42	2
48	49	1
80	81	1
53	61	1
75	76	1
72	98	1
51	52	1
93	93	1
96	99	1
42	51	1
40	79	1
71	85	1
26	29	1
33	34	1
51	78	1
42	43	2
29	31	1
67	102	1
35	36	1
66	83	1
73	92	1
78	103	1
55	63	1
62	64	1
71	73	1
84	87	2
74	75	1
34	76	1
79	79	1
28	29	1
25	96	1
53	55	1
32	39	1
95	96	1
39	41	1
21	95	1
79	81	1
46	47	1
55	62	1
39	49	1
42	45	1
19	40	1
31	74	1
