63	63	1
85	85	2
16	17	1
142	143	1
127	127	2
30	31	2
179	180	2
187	187	4
13	26	1
45	45	2
47	47	4
103	104	1
73	73	4
94	94	3
58	58	3
2	2	5
164	164	4
107	108	2
114	114	2
27	27	5
72	72	2
113	113	4
174	174	6
38	38	4
133	134	1
173	173	2
155	155	3
100	100	3
128	138	1
27	31	1
42	42	4
32	35	1
10	10	4
96	98	3
36	36	2
57	57	2
83	84	2
66	68	1
52	52	3
180	181	2
40	40	3
30	30	1
59	62	1
174	175	5
16	30	1
19	19	1
104	105	1
167	167	4
55	56	1
77	77	3
187	188	2
145	145	3
0	13	3
1	1	1
119	119	2
54	54	4
178	178	3
129	143	1
110	113	3
121	121	5
84	85	1
56	56	5
115	116	1
158	158	5
186	186	3
142	144	1
79	79	7
68	68	6
7	8	1
98	98	1
137	137	2
159	160	2
3	3	3
7	41	1
189	189	1
67	67	1
81	82	1
103	103	3
134	134	2
21	22	1
153	154	1
109	109	4
107	107	2
148	148	2
111	112	2
125	125	3
166	166	1
126	126	1
74	74	3
153	153	3
19	20	1
88	114	1
36	114	1
160	162	2
12	12	1
117	117	1
165	165	3
95	95	5
143	144	2
44	44	4
178	179	5
130	130	4
156	157	2
80	80	2
31	33	1
89	89	3
30	33	3
3	4	1
177	177	2
84	84	3
129	130	1
122	122	4
26	26	3
175	177	1
136	137	1
83	83	2
116	116	3
90	90	3
17	17	1
87	87	1
189	190	1
117	119	1
188	188	5
5	5	4
91	94	1
100	103	2
27	36	1
83	85	2
167	177	1
100	101	1
90	120	1
97	98	2
64	102	1
147	147	3
169	169	2
185	185	3
35	35	3
47	48	1
19	33	1
150	150	1
183	184	1
159	159	1
158	187	1
119	131	2
154	154	4
154	159	1
169	170	2
26	36	1
87	108	1
30	36	1
5	7	2
99	100	1
23	24	1
181	182	2
61	61	2
110	110	5
169	189	1
39	39	3
139	140	1
104	106	2
102	102	1
43	44	1
73	74	4
183	187	1
6	6	1
72	99	1
81	81	3
122	125	1
41	41	1
93	93	2
10	12	1
63	66	1
105	106	2
184	184	2
15	15	1
167	171	1
64	101	1
0	0	2
20	20	3
62	62	1
109	120	1
5	53	1
160	160	2
120	120	3
71	71	2
114	158	1
44	45	2
46	48	1
16	16	1
89	126	1
140	142	1
108	108	1
7	15	1
17	24	1
149	150	1
163	163	3
122	186	1
82	82	4
97	112	1
72	104	1
170	172	1
141	141	2
99	99	3
112	112	3
9	12	1
25	25	2
58	60	1
182	182	3
54	80	1
131	131	2
143	143	2
11	13	1
177	178	3
137	138	3
8	8	2
62	63	2
151	151	1
7	7	3
142	142	2
22	22	1
152	152	2
75	83	2
102	113	1
136	136	1
130	138	2
181	181	1
118	118	1
54	55	1
176	177	1
104	104	1
176	176	1
55	55	2
75	75	2
76	76	3
82	122	1
106	112	1
173	188	1
60	60	1
24	24	2
53	53	3
36	37	2
94	95	1
101	101	1
158	159	1
94	124	1
70	71	1
109	140	1
168	169	1
108	109	1
48	48	2
33	33	1
113	155	1
156	156	1
167	169	1
139	186	1
1	2	1
15	16	1
27	29	1
38	40	1
111	113	1
60	98	1
64	64	1
170	179	1
103	109	1
165	166	1
160	175	1
177	179	1
111	111	1
66	71	1
146	146	1
86	87	1
66	66	1
88	126	1
139	139	2
56	57	1
132	168	1
162	162	1
41	43	1
29	31	1
144	144	1
105	105	1
174	187	1
12	15	1
34	46	1
130	134	1
91	115	1
18	18	1
74	77	1
170	170	1
4	4	1
171	172	1
72	116	1
155	183	1
88	88	1
92	93	1
35	36	1
92	92	1
157	168	1
124	125	1
