124	124	4
75	130	1
133	133	2
34	35	2
3	3	3
75	75	5
43	64	1
157	157	1
9	10	2
140	145	2
148	148	2
144	144	4
43	43	3
5	5	2
107	108	1
116	139	2
42	42	2
109	119	1
82	82	1
6	18	1
34	34	3
108	108	6
0	0	1
92	92	2
38	39	1
109	112	1
143	143	1
65	68	1
139	140	1
27	28	2
97	97	2
73	73	4
3	139	2
141	142	1
135	136	1
72	72	1
114	114	2
93	93	2
2	2	3
25	25	2
28	29	2
45	47	1
87	87	3
78	79	1
67	71	1
124	126	3
80	80	4
66	66	1
129	135	1
124	137	2
132	132	1
131	132	1
149	149	7
140	140	1
44	44	5
20	20	1
19	19	1
131	131	2
135	135	3
27	27	1
150	150	2
64	78	1
69	69	3
121	122	2
77	91	1
18	19	1
63	63	3
68	68	2
156	156	3
69	95	1
35	51	1
101	101	4
108	112	2
112	112	2
39	39	4
26	98	1
38	88	1
52	54	2
104	104	2
73	74	1
36	36	1
44	140	1
13	13	4
112	119	2
54	54	1
99	100	2
67	70	1
23	24	3
111	111	5
109	110	2
40	40	1
154	154	5
113	114	3
125	135	1
76	77	1
155	155	4
17	18	3
13	15	1
12	12	2
98	129	1
9	19	1
152	152	3
78	78	2
85	92	1
18	40	1
151	151	2
85	86	2
158	158	4
111	120	1
120	120	1
79	79	3
5	26	1
18	18	2
144	147	1
121	121	3
65	65	2
139	139	3
26	26	2
86	116	1
31	155	1
91	112	1
52	52	6
102	107	1
30	30	4
100	100	2
123	123	4
99	109	1
101	102	1
87	88	2
137	137	2
6	6	1
118	119	2
86	86	2
20	41	1
86	94	1
4	4	3
3	4	2
89	89	1
153	157	1
22	22	2
151	157	1
48	49	1
112	113	4
125	144	2
131	134	2
147	147	3
111	112	1
51	54	1
38	38	1
130	131	1
144	145	2
150	151	2
99	99	2
154	156	1
106	106	2
71	71	3
15	15	1
93	96	1
66	67	1
24	24	2
90	137	1
79	80	1
90	91	1
87	109	1
92	102	1
5	68	1
134	134	1
123	128	1
105	105	2
85	109	1
114	119	1
117	117	3
72	98	1
96	130	1
90	90	2
49	49	1
32	32	1
47	48	1
103	103	1
98	98	3
29	30	1
19	20	1
127	140	1
92	139	1
17	31	2
129	129	2
48	62	1
140	148	1
84	150	1
7	7	2
4	28	1
11	33	1
29	50	1
107	149	1
157	158	1
145	145	1
81	81	1
96	141	1
119	119	3
98	131	1
65	91	1
90	114	1
42	53	1
35	57	2
56	66	1
4	36	1
144	146	1
70	70	4
11	15	1
121	136	1
42	43	1
153	153	1
130	142	1
88	88	2
128	128	1
155	156	1
64	64	1
70	71	1
30	31	1
85	85	1
110	121	1
46	47	1
94	94	2
65	71	1
92	116	1
8	8	1
137	146	1
152	155	1
156	158	1
62	78	1
36	37	1
96	96	2
127	141	1
21	21	1
77	90	1
19	54	1
108	109	2
146	147	1
48	118	1
120	136	1
117	143	1
123	136	1
122	122	1
3	20	1
95	153	1
6	15	1
110	110	2
115	145	1
134	138	1
146	146	1
102	102	2
4	25	1
109	109	1
136	137	1
32	68	1
147	148	2
63	79	1
68	95	1
77	87	1
8	32	1
39	54	1
106	153	1
33	33	1
91	91	2
7	75	1
1	1	1
17	19	1
90	142	1
118	124	1
67	69	1
132	137	1
105	106	1
62	62	1
77	77	1
118	120	1
57	57	1
54	55	1
142	142	1
0	98	1
55	55	1
148	153	1
153	154	1
13	111	1
112	115	1
8	12	1
