87	115	2
115	115	1
100	100	6
98	99	2
112	113	1
26	27	1
65	65	3
114	114	1
125	125	4
96	96	2
14	14	2
71	72	3
16	16	3
105	107	1
77	77	1
21	21	1
50	50	4
6	6	1
7	7	2
62	62	3
81	81	4
93	93	3
59	60	4
112	112	3
114	116	1
56	56	4
108	108	4
131	131	4
110	110	3
105	117	1
115	116	1
64	68	2
75	103	1
128	130	1
100	101	3
8	8	4
74	82	1
0	1	1
123	123	6
21	58	2
74	74	2
122	122	6
95	95	2
51	51	1
42	42	5
66	104	1
57	57	5
78	78	1
11	27	1
64	64	3
70	96	1
12	12	2
63	63	2
39	39	3
127	128	1
53	53	3
102	102	5
103	103	9
120	120	8
77	78	1
50	51	1
11	12	2
78	79	1
89	99	2
46	46	1
54	54	5
106	106	2
85	87	2
83	83	3
48	48	3
99	103	2
8	54	1
52	52	5
109	110	1
68	68	2
73	74	2
126	126	9
67	72	2
50	52	1
64	65	2
132	132	3
78	87	1
126	128	1
114	130	1
105	105	4
15	73	2
92	92	1
106	107	3
29	40	1
25	27	1
32	32	2
88	88	1
117	117	3
93	94	1
57	71	2
20	20	1
99	99	4
9	9	1
79	79	3
67	67	2
98	100	3
119	119	3
6	7	1
86	86	1
22	22	1
44	44	1
66	66	1
128	129	1
125	127	1
86	88	1
113	113	2
85	86	2
28	31	1
104	104	2
94	94	1
109	109	4
26	26	1
30	30	1
82	82	1
71	71	2
111	112	1
61	61	1
41	41	1
108	109	2
115	119	1
43	44	1
42	43	1
55	55	1
63	64	3
72	88	1
126	127	1
39	41	1
127	127	4
7	8	1
88	89	1
76	76	1
14	15	1
120	133	1
11	11	3
93	121	1
31	31	2
10	10	2
87	88	2
116	116	4
19	21	1
45	45	3
79	126	1
29	48	2
111	111	3
85	103	1
27	31	1
28	28	2
130	130	2
90	91	1
83	85	1
70	70	1
52	53	2
75	76	1
97	97	2
40	44	1
5	6	1
96	103	1
85	85	2
75	75	1
75	89	1
71	90	1
47	48	3
12	14	1
29	29	2
0	0	1
1	1	1
18	18	1
3	3	1
59	61	1
23	25	2
77	87	1
38	40	1
101	102	1
90	90	3
5	5	1
9	10	2
107	107	1
91	91	4
44	62	1
69	70	1
118	118	1
105	122	1
80	80	1
67	83	1
76	77	1
44	45	1
99	100	1
115	117	1
53	54	1
66	67	2
46	47	1
4	4	1
31	32	1
49	49	1
102	103	1
69	105	1
19	19	1
110	130	1
17	17	1
122	124	2
50	110	1
49	51	1
32	79	1
129	129	1
48	73	1
121	121	1
124	124	1
45	76	1
4	5	1
38	38	1
34	34	1
98	98	1
84	84	1
