11	11	3
38	38	3
95	95	3
94	96	1
124	124	5
65	65	3
38	44	1
63	63	5
29	72	1
118	118	2
31	32	1
94	94	1
33	33	4
45	45	1
52	52	1
105	105	2
101	101	1
69	69	2
112	112	2
125	125	4
60	62	2
131	131	3
84	84	1
25	25	1
77	77	2
10	11	1
49	50	1
19	20	1
28	109	3
26	26	4
32	33	3
129	129	1
106	106	2
78	79	2
25	26	2
113	114	1
133	133	3
122	122	4
24	24	6
111	111	5
28	28	7
54	54	3
89	89	2
91	91	4
47	61	1
60	61	1
97	98	1
46	60	1
91	92	2
4	4	2
109	109	5
122	123	2
118	119	1
48	48	4
102	103	3
74	96	1
123	124	1
107	108	1
90	90	4
114	114	6
42	42	4
125	126	1
81	82	1
127	127	2
27	27	3
93	104	2
120	120	2
112	115	1
84	108	2
93	101	1
29	29	2
93	94	1
98	98	4
106	107	3
111	120	1
121	121	3
127	128	1
110	110	1
93	93	1
84	85	1
39	40	1
125	127	2
67	67	2
113	113	2
43	82	1
99	99	1
85	89	1
71	71	1
6	6	2
117	117	3
23	23	1
55	55	1
61	61	1
57	57	3
5	5	1
50	131	1
82	83	3
102	102	6
94	101	1
125	130	1
107	107	4
14	16	1
2	3	2
119	119	3
7	7	4
48	56	1
130	130	2
57	104	1
120	121	2
123	123	1
77	82	1
110	113	1
61	62	1
116	117	1
8	8	2
70	70	3
31	31	1
3	3	1
80	80	1
19	26	1
62	62	3
46	47	1
92	93	1
66	66	4
53	53	5
92	92	2
100	101	1
22	22	1
50	50	2
48	53	2
25	102	1
117	118	2
9	9	1
40	40	1
87	87	1
47	47	2
111	112	1
75	75	1
22	34	2
56	110	1
115	115	1
47	48	1
81	99	1
76	77	1
46	46	2
76	100	1
121	122	1
74	75	2
132	132	1
63	77	1
11	14	2
98	99	1
51	51	1
30	31	1
73	73	1
19	19	1
108	108	1
62	63	1
39	47	1
1	2	1
56	56	1
3	4	1
71	72	1
57	91	1
97	97	1
91	98	1
131	132	1
64	64	2
112	113	1
12	12	1
2	2	2
30	30	1
12	13	1
99	100	1
83	85	1
23	24	1
63	65	1
