20	20	3
30	31	1
38	38	4
167	167	5
170	171	1
185	185	2
107	107	3
83	84	1
11	11	3
168	168	5
97	97	2
80	80	4
65	65	2
153	153	3
7	7	1
180	181	1
214	214	3
45	45	3
105	113	1
158	177	1
187	187	4
148	150	2
137	137	2
140	140	2
117	117	4
213	213	3
175	175	3
86	86	2
96	96	1
35	35	2
42	42	3
191	200	1
101	101	4
148	162	2
25	25	2
184	184	3
186	187	1
203	204	1
82	82	2
137	179	1
128	128	4
172	173	3
47	47	4
76	76	2
200	201	1
17	17	5
231	231	4
134	134	6
15	15	3
121	122	1
111	171	1
121	121	1
224	224	6
29	30	1
108	109	2
34	56	1
102	104	1
73	73	2
60	60	3
46	46	5
197	197	3
192	192	1
198	199	3
39	43	1
157	157	5
9	9	3
100	101	1
186	186	2
228	228	3
79	80	2
201	201	2
27	27	6
123	123	2
7	8	2
58	58	2
113	113	1
98	98	2
183	188	1
226	228	1
58	83	1
130	130	3
126	126	1
61	61	2
178	178	4
159	160	3
34	34	2
185	190	1
221	228	1
178	179	2
3	3	4
70	70	3
227	227	4
175	218	2
152	152	6
238	238	3
188	196	1
48	48	2
8	8	2
44	44	2
0	43	1
83	83	1
106	106	3
203	219	1
22	22	1
39	39	3
230	230	6
145	145	4
120	128	3
49	49	2
150	160	2
9	10	2
102	102	2
110	110	1
108	108	1
81	81	4
142	142	1
173	173	2
95	96	1
220	220	2
73	74	2
114	114	2
40	40	3
12	48	1
120	120	2
34	35	1
181	183	2
110	120	1
29	29	1
171	172	2
46	89	1
173	174	2
147	147	1
155	155	2
34	62	1
188	188	4
154	154	2
5	5	1
150	151	1
88	88	3
210	211	3
184	185	2
216	216	2
242	242	1
139	139	2
105	105	6
2	2	3
151	151	5
15	16	4
50	50	2
86	88	1
222	222	2
122	122	2
173	175	1
158	158	4
31	31	5
18	18	4
225	225	2
62	62	2
140	141	1
78	79	2
144	146	1
54	76	1
181	181	2
205	205	2
232	233	1
30	30	1
138	138	2
76	148	2
82	84	2
206	206	2
207	207	2
53	84	2
75	75	2
26	26	1
69	69	5
11	38	1
189	209	1
133	133	2
137	154	2
122	148	1
107	108	1
221	221	3
183	183	7
24	25	3
127	127	1
74	75	1
165	168	1
204	204	3
54	54	2
140	157	1
12	12	2
141	141	1
34	84	1
64	64	3
79	79	2
103	103	3
53	58	1
189	190	1
137	138	1
24	108	1
43	44	1
37	37	5
53	53	1
104	104	1
235	235	1
20	42	2
208	208	3
149	150	1
64	65	1
33	152	1
159	159	1
58	216	1
99	99	1
57	57	2
147	150	1
177	178	1
16	17	1
210	210	2
63	63	1
196	196	2
176	177	2
81	84	1
182	182	3
202	202	1
23	23	1
181	182	1
149	149	1
75	78	1
11	12	1
32	32	1
32	106	1
219	219	3
136	136	1
218	219	1
18	19	1
10	10	3
191	191	1
149	152	1
1	1	1
170	170	2
13	13	1
217	218	1
7	224	2
177	177	3
180	180	3
169	170	2
21	21	2
158	159	1
160	162	1
215	215	1
150	150	3
21	48	1
188	190	1
163	187	1
61	62	2
72	72	3
159	177	1
223	223	1
172	172	1
66	68	1
176	176	1
7	15	1
124	124	1
16	21	1
0	0	1
166	167	2
241	242	3
19	19	2
74	74	2
54	55	1
55	55	1
184	187	1
163	163	1
225	228	1
232	232	2
193	193	2
58	60	1
20	21	1
44	45	1
119	119	1
199	199	1
51	52	1
28	28	3
240	240	6
6	7	1
191	197	1
135	136	1
16	16	1
137	153	1
55	88	1
151	152	1
113	121	1
39	54	1
77	77	1
217	217	1
195	195	2
156	156	1
19	22	1
154	155	1
4	4	3
13	14	1
33	48	1
36	37	1
148	148	1
225	226	1
127	128	2
33	100	1
41	41	1
230	231	2
191	193	1
129	130	1
66	67	2
7	31	1
203	203	1
164	167	1
208	210	1
28	47	1
179	181	1
6	34	1
102	105	1
119	120	1
237	237	2
99	100	1
145	146	1
50	51	1
222	223	1
34	60	1
128	130	1
48	54	1
111	112	1
193	195	1
70	113	1
164	165	1
220	221	1
86	97	1
207	209	1
140	143	1
63	64	2
72	148	2
68	69	1
71	72	1
24	24	1
155	156	1
175	176	1
145	176	1
185	200	1
55	76	1
218	232	1
48	49	1
33	33	1
2	198	1
101	222	1
239	239	1
171	171	1
116	117	2
105	115	1
14	19	1
185	188	1
212	229	1
108	123	1
188	189	1
85	85	1
100	100	1
36	36	1
26	71	1
3	24	1
3	5	1
28	131	1
174	174	2
112	112	1
118	118	1
21	23	1
0	2	1
66	66	1
197	201	1
129	129	1
223	224	1
37	38	1
4	22	1
153	156	1
181	194	1
55	85	1
115	118	1
161	161	1
197	200	1
78	78	1
113	114	1
8	30	1
84	84	1
