104	104	5
14	14	6
47	47	3
78	78	1
71	73	1
73	74	5
62	63	4
62	62	2
30	30	4
93	93	4
80	80	4
33	33	3
80	128	2
135	135	2
91	92	4
78	79	1
65	65	6
37	72	1
88	88	4
100	100	8
74	74	6
35	35	6
6	7	2
25	25	5
45	45	1
24	26	2
78	85	2
44	44	2
32	32	5
23	31	1
60	60	3
24	27	1
49	50	1
130	130	3
37	37	2
69	71	1
65	66	2
58	58	2
46	47	1
5	64	2
76	77	2
11	11	7
109	110	1
3	3	5
122	122	5
34	34	6
61	61	4
63	70	1
36	37	3
64	64	7
121	122	1
86	87	1
31	32	1
61	62	2
16	31	1
66	67	3
113	116	3
37	38	1
81	81	3
108	111	2
11	19	2
100	101	1
82	85	2
71	72	2
21	21	1
131	132	2
49	49	5
82	82	12
21	24	1
11	50	1
66	66	6
64	87	1
53	53	3
0	1	2
13	29	3
12	12	1
71	71	10
102	102	6
47	74	1
17	20	1
72	72	9
0	7	1
69	69	5
70	70	3
61	65	1
50	51	4
81	82	1
125	130	1
73	73	5
60	89	1
42	42	2
10	10	4
49	71	3
9	24	1
114	114	6
108	108	6
3	4	1
26	27	2
106	106	2
16	16	4
67	67	3
53	64	2
76	93	1
84	85	4
18	18	1
4	4	1
50	50	4
59	68	1
22	22	1
36	36	6
19	19	1
96	96	1
13	13	8
112	112	4
76	79	1
109	109	1
7	33	1
55	56	2
63	63	5
91	91	1
28	29	1
115	127	1
126	126	3
7	8	2
81	113	1
23	23	5
56	60	1
21	23	2
109	111	2
84	84	5
64	65	2
121	123	1
125	125	1
9	9	4
17	72	1
8	9	1
63	98	1
6	29	1
59	59	6
68	68	3
54	56	2
38	38	1
64	66	1
60	61	1
24	24	5
103	103	2
124	124	4
2	2	2
103	104	1
31	31	3
86	86	4
51	52	2
57	57	3
26	35	1
29	62	3
79	81	2
92	92	1
48	70	1
43	46	1
26	26	5
77	78	3
127	130	1
97	97	2
98	98	4
23	24	3
85	85	3
5	5	1
29	30	2
106	118	1
56	56	3
105	105	3
27	27	1
6	31	1
87	110	1
1	2	1
87	87	2
60	75	1
132	132	2
10	11	4
20	20	3
47	49	1
43	44	2
58	108	1
79	79	1
83	84	3
106	115	1
129	129	3
88	89	1
127	127	1
77	77	1
43	43	2
76	76	6
133	134	2
44	106	1
99	99	4
27	31	1
82	83	3
115	115	2
30	38	1
108	109	1
2	25	1
17	17	2
112	114	1
74	75	1
45	56	1
89	89	2
55	83	1
50	70	1
69	82	1
68	69	2
45	68	1
8	8	2
119	121	1
110	110	1
8	25	1
94	94	1
111	111	1
114	115	1
7	7	3
107	108	1
116	116	1
15	15	2
118	118	1
80	134	2
131	131	2
122	123	1
85	92	1
117	122	1
128	128	1
91	106	1
24	25	1
55	55	1
19	23	2
9	23	1
65	69	1
54	54	1
82	84	1
119	119	2
28	28	2
117	117	1
13	14	1
33	34	1
52	52	1
70	71	1
44	45	1
0	0	1
32	33	1
0	19	1
101	103	1
122	129	1
3	16	1
113	113	1
59	82	1
95	95	1
56	59	1
75	75	2
108	127	2
133	133	1
120	120	3
19	21	1
98	99	2
44	62	1
34	82	1
11	12	1
14	18	1
67	68	1
28	33	1
42	45	1
59	63	1
90	90	2
1	65	1
101	101	3
42	44	1
85	87	1
134	134	1
83	89	1
30	31	1
6	6	1
5	76	1
79	80	2
47	65	1
35	45	1
1	29	1
69	70	1
53	68	1
116	118	1
8	57	1
72	80	1
