96	96	3
105	126	2
68	68	3
102	121	1
47	47	6
110	110	1
98	98	1
43	44	1
15	104	1
86	130	1
72	72	3
94	120	1
127	127	2
101	103	1
64	64	2
30	30	3
46	47	2
128	131	1
110	114	4
97	99	1
75	75	4
0	73	1
33	33	3
101	102	1
91	91	4
86	123	2
84	84	2
127	128	2
59	60	4
87	88	1
125	125	2
36	36	9
22	24	2
118	118	5
85	86	1
112	112	5
99	100	1
15	17	3
126	126	4
125	129	3
58	59	1
90	91	1
101	101	4
38	38	1
45	61	2
124	126	2
97	97	2
76	78	1
81	81	2
21	21	1
66	68	1
29	30	1
26	26	1
61	61	7
113	114	1
112	113	1
103	127	2
28	63	1
94	94	3
94	95	2
108	108	2
74	74	1
23	23	4
20	20	3
117	118	1
27	28	1
65	66	1
86	114	2
134	134	3
116	122	1
111	112	2
25	25	1
90	90	1
80	81	1
132	132	1
35	36	1
10	10	1
79	90	2
73	74	2
20	32	2
19	19	2
131	134	1
104	106	1
123	129	2
124	124	1
102	102	3
8	25	1
86	86	1
85	85	2
61	62	1
29	29	1
130	130	3
25	79	1
27	27	2
38	39	1
44	44	2
85	102	1
126	128	1
45	46	2
32	32	2
28	30	2
5	20	1
22	22	1
100	100	1
6	9	2
100	102	1
76	76	1
131	131	3
42	42	1
37	38	1
115	124	2
123	124	2
70	70	2
56	56	3
16	104	1
5	6	1
66	66	2
73	117	1
12	16	1
93	116	1
105	105	4
15	15	1
115	115	1
113	113	1
57	57	2
69	75	1
48	48	1
73	73	2
122	122	1
114	114	2
103	104	1
85	133	1
119	119	2
7	79	1
116	116	2
42	57	1
117	117	3
109	110	2
14	14	2
11	12	1
65	65	1
77	77	1
92	92	1
13	15	1
20	21	2
78	117	1
9	9	3
92	94	3
11	11	4
121	123	1
6	33	1
36	38	2
133	133	2
130	131	1
87	101	1
86	87	1
2	2	1
62	62	2
49	49	1
4	5	2
8	28	1
24	25	1
88	101	2
104	105	1
131	132	1
64	73	1
105	106	3
1	1	1
67	67	1
69	69	1
122	129	1
7	21	1
44	116	1
106	106	1
97	107	1
86	120	1
35	70	1
87	87	2
115	116	1
107	108	1
59	59	2
45	60	1
118	126	1
109	109	1
71	71	1
81	82	2
40	40	1
31	36	1
79	80	2
51	51	1
129	129	1
121	131	1
96	97	1
91	92	2
132	134	1
40	41	1
14	38	1
1	64	1
28	28	1
26	28	1
42	43	1
7	7	1
27	30	1
79	79	1
45	45	1
103	103	1
79	92	1
63	64	1
84	103	1
1	66	1
13	14	1
