69	69	4
31	31	3
4	6	2
31	36	1
37	38	1
55	55	2
161	161	4
31	32	2
57	57	4
132	133	1
90	90	1
44	44	3
16	16	5
24	29	1
12	12	7
151	151	6
0	23	1
186	186	6
149	149	3
96	97	2
14	14	3
51	53	1
104	105	2
196	196	2
51	78	1
5	5	6
142	142	6
32	32	2
24	25	2
28	28	2
172	172	1
33	36	1
17	17	6
192	192	3
40	40	6
156	156	6
115	115	3
160	179	1
135	156	2
170	170	4
59	60	3
13	13	5
81	81	1
34	34	2
170	171	2
138	139	2
20	22	1
158	158	4
185	186	2
99	101	1
121	121	2
99	100	1
41	41	2
187	188	3
129	129	2
80	80	1
1	3	2
104	104	2
177	178	1
103	105	1
46	46	4
194	194	5
27	30	1
133	134	1
118	118	2
17	18	2
43	43	6
25	26	1
152	152	1
187	187	4
37	130	3
3	3	1
25	25	2
158	159	2
74	74	1
9	10	3
29	29	7
157	157	4
7	31	1
94	94	3
6	7	1
19	19	4
182	182	1
133	133	3
147	147	2
112	113	2
181	182	4
84	84	2
109	110	1
167	167	4
72	72	3
112	112	1
135	150	2
66	66	3
42	42	1
40	41	3
46	49	2
22	22	3
145	181	2
53	53	1
173	176	1
188	190	2
176	177	2
37	37	4
68	68	1
70	71	1
135	136	2
95	95	3
114	116	1
27	28	1
45	45	6
166	166	2
137	147	1
160	163	2
21	21	1
42	43	4
33	35	1
178	178	4
37	85	1
63	84	1
181	181	1
174	175	1
102	102	2
27	27	3
122	122	3
183	186	1
31	33	2
28	160	1
39	39	5
38	38	2
14	16	1
4	4	2
141	142	1
21	23	1
85	86	1
136	148	1
149	194	1
1	2	2
18	18	8
153	153	2
143	177	1
188	189	1
113	113	1
36	36	3
34	36	1
129	131	1
50	50	2
129	130	1
15	15	2
62	62	4
180	180	2
108	112	1
36	37	1
9	9	4
100	100	2
121	123	1
51	51	1
47	48	1
37	131	1
183	183	1
28	29	3
15	24	1
23	24	1
148	172	1
26	27	1
138	138	2
128	128	2
89	89	1
161	167	1
20	20	2
179	179	6
30	31	2
63	63	3
169	169	3
43	61	1
178	179	4
12	15	2
153	180	1
146	147	3
1	4	1
40	185	1
143	143	2
124	124	3
165	165	1
53	54	1
193	194	1
25	93	1
177	177	2
2	4	2
146	146	2
171	171	4
184	184	2
101	106	1
187	191	1
24	24	2
18	20	1
10	10	3
5	8	1
194	195	1
128	137	1
12	45	1
175	175	1
114	114	4
123	124	2
180	181	2
117	117	2
113	170	1
189	189	2
106	114	1
197	197	5
133	155	2
33	33	6
134	134	1
164	165	1
5	9	1
126	126	2
166	167	1
139	139	2
145	145	1
85	85	2
188	188	1
23	23	1
56	56	3
62	66	1
110	111	2
41	42	1
110	175	2
113	114	1
30	30	4
150	150	7
127	127	4
174	174	1
84	86	1
105	106	1
60	60	3
11	11	1
191	192	1
78	78	1
105	105	3
109	176	2
119	122	1
117	118	1
6	25	1
61	171	1
108	108	2
183	184	1
136	138	1
18	29	1
46	47	1
137	139	1
144	144	1
34	35	1
111	111	1
94	102	1
185	185	1
195	195	3
110	110	3
8	8	2
109	109	1
5	7	1
5	113	1
25	27	1
131	131	1
7	7	2
125	125	1
35	35	1
160	160	2
87	99	1
83	86	1
11	12	2
49	49	1
15	16	1
4	113	1
160	188	1
168	190	1
6	23	1
155	155	2
189	191	2
20	179	1
123	123	2
65	66	1
140	140	1
176	176	1
191	191	1
107	150	1
87	87	1
93	93	1
58	133	1
0	0	2
163	165	1
67	67	1
193	193	1
7	29	1
116	116	1
76	78	1
47	47	3
150	152	1
159	159	1
140	171	1
2	2	1
145	146	1
4	17	1
77	78	1
98	98	2
52	52	2
26	26	1
187	192	1
122	123	1
119	119	2
2	34	1
65	65	2
165	194	1
182	183	1
151	155	1
32	46	1
5	37	1
109	158	1
167	180	1
29	30	1
173	174	1
70	70	1
170	184	1
150	155	1
22	23	1
83	83	1
59	59	1
141	141	1
128	129	1
17	20	1
71	71	2
67	101	1
15	17	1
140	144	1
66	67	1
94	98	1
10	41	1
172	190	1
120	120	1
80	81	1
57	113	1
27	29	1
42	168	1
107	107	1
138	158	1
6	6	1
78	82	1
157	158	2
16	17	1
147	149	1
107	127	1
161	180	1
13	16	1
152	153	1
