28	30	2
76	85	1
146	147	3
138	173	1
85	85	1
135	135	2
65	67	4
142	142	3
163	164	2
30	30	3
79	79	3
97	97	2
105	107	1
108	108	1
95	97	1
8	40	2
67	67	4
149	149	5
38	38	7
56	56	3
142	169	1
39	86	1
119	119	3
7	7	1
66	67	1
107	107	4
73	73	6
78	79	2
122	141	1
36	36	6
1	1	2
6	9	1
14	14	4
151	152	1
11	11	3
173	173	5
153	153	1
45	49	1
45	46	1
30	31	2
9	10	3
54	54	1
39	40	2
110	128	1
55	55	1
22	22	2
150	150	4
128	128	3
29	29	5
38	40	1
91	115	1
65	65	5
100	104	1
87	87	2
58	58	1
158	158	6
172	173	1
156	156	2
81	81	1
111	111	3
31	179	1
90	95	1
42	42	5
16	16	3
90	90	3
134	139	1
180	180	4
160	160	5
134	134	4
39	39	3
145	157	1
103	103	4
75	75	3
6	6	6
43	44	2
115	115	4
76	76	2
167	167	1
132	132	3
119	121	1
9	9	6
91	91	2
66	66	4
126	132	1
169	169	4
10	12	2
147	147	2
133	148	3
3	7	1
6	10	2
51	63	1
110	110	2
25	25	1
8	8	1
23	23	4
50	50	4
59	59	5
149	154	1
2	6	3
146	146	2
13	20	2
151	154	1
176	176	4
44	44	1
37	44	1
96	96	3
17	39	1
109	109	2
112	112	2
139	139	6
99	101	1
169	170	2
13	13	3
125	125	7
101	107	1
126	126	2
104	107	1
34	34	2
2	2	3
131	133	1
43	43	4
95	95	3
78	78	5
71	71	2
3	3	3
157	157	4
154	154	3
53	53	5
12	24	1
72	72	2
157	158	4
148	148	3
60	81	1
131	132	1
145	159	1
77	77	3
3	5	1
105	105	1
2	30	2
118	131	1
83	83	3
141	147	1
10	10	3
15	15	2
19	59	2
35	35	3
104	154	1
40	50	2
127	127	1
133	133	2
109	163	1
12	13	1
112	140	1
43	72	2
51	51	1
135	137	1
65	68	1
63	65	2
129	129	2
142	143	2
11	13	1
179	179	2
162	163	1
56	61	1
44	45	1
36	43	2
119	120	2
32	32	2
32	35	1
32	33	3
153	173	1
80	90	1
163	163	3
30	32	1
108	110	1
95	149	1
121	122	3
70	70	1
161	163	1
108	123	1
101	101	1
140	140	3
131	134	1
39	77	1
12	12	4
80	80	1
154	156	1
60	60	2
131	131	4
96	143	1
152	166	1
81	89	2
7	16	1
28	28	1
40	41	2
178	178	1
144	144	3
97	117	1
16	17	1
142	144	2
173	178	2
55	81	1
119	175	1
105	106	1
171	171	3
129	130	2
49	50	1
41	44	1
92	93	1
172	172	1
157	164	1
35	36	1
132	133	1
161	161	3
45	45	3
74	74	3
8	17	1
19	22	1
52	52	3
168	168	3
139	150	1
95	102	1
154	155	1
143	143	2
158	164	1
64	75	1
79	126	1
59	76	1
52	56	1
76	79	1
157	159	2
18	18	3
141	142	3
129	136	1
7	31	1
164	164	3
84	84	4
10	14	1
14	28	1
178	179	2
41	89	1
120	120	2
127	128	1
165	166	1
26	36	1
91	117	1
92	92	2
136	136	3
71	72	1
64	64	2
131	137	1
95	109	1
34	36	2
134	135	1
127	130	1
12	23	1
148	151	1
4	15	2
170	171	1
2	16	1
118	118	3
82	136	1
112	133	1
138	146	1
147	152	1
26	26	3
159	159	2
162	162	1
159	160	1
145	145	1
86	88	1
36	37	1
150	156	1
85	106	1
18	21	2
24	38	1
68	68	1
75	90	1
137	137	3
114	174	1
59	60	1
41	42	1
31	31	2
4	23	1
63	63	1
53	135	1
150	151	1
170	170	2
41	41	3
135	167	1
54	55	3
101	112	1
61	61	2
100	114	1
123	123	1
53	55	2
126	145	1
89	89	1
7	14	1
96	100	1
126	127	1
160	161	1
142	175	1
136	146	1
57	57	2
175	175	3
172	175	1
37	37	3
115	116	2
21	42	1
84	85	1
141	141	2
159	167	1
27	28	1
130	130	1
0	0	2
103	104	1
113	166	1
7	12	1
81	99	1
113	114	1
56	57	1
128	144	1
77	102	1
104	106	1
83	84	1
104	146	1
24	42	1
159	164	1
21	21	1
33	34	1
19	19	2
33	35	1
140	143	1
162	165	1
24	24	3
33	33	2
101	102	1
91	92	1
106	106	1
86	87	1
171	177	1
40	40	1
1	2	2
63	99	1
138	142	1
144	159	2
172	178	1
77	80	1
4	19	1
57	103	1
74	76	1
63	83	1
139	145	1
158	163	1
177	178	1
113	113	2
125	131	1
94	94	1
50	67	1
159	162	1
95	98	1
33	44	1
58	59	1
109	110	1
102	102	1
155	156	1
117	148	1
107	108	1
62	95	1
17	17	1
103	105	1
33	39	1
2	3	1
99	99	1
117	117	1
135	136	1
91	110	1
113	116	1
3	12	1
107	111	1
20	20	2
39	82	1
81	82	1
3	10	1
118	122	1
44	109	1
143	146	1
140	142	1
137	147	1
158	159	1
111	115	1
106	112	1
109	130	1
91	94	1
82	89	1
110	178	1
154	158	1
64	129	1
83	85	1
122	122	1
16	38	1
17	20	1
3	4	1
28	32	1
7	11	1
72	84	1
136	142	1
25	29	1
64	65	1
