53	69	1
47	48	2
148	159	1
48	49	3
33	33	3
76	76	1
167	167	1
34	132	1
150	151	1
169	169	5
161	161	3
93	98	1
4	4	1
127	129	3
57	57	3
14	14	7
47	47	3
74	74	6
84	84	2
56	56	3
101	102	1
123	123	3
20	25	1
148	149	1
142	142	1
8	9	3
27	27	1
154	166	1
44	47	1
72	76	2
134	134	2
89	90	3
110	110	3
162	162	6
130	130	2
156	156	3
6	6	4
152	152	4
139	142	3
69	69	4
74	80	1
97	108	1
65	65	2
138	143	1
94	95	2
159	159	6
23	24	1
26	27	1
115	153	2
134	135	1
41	41	2
150	168	1
140	140	4
40	40	3
143	147	1
20	21	1
86	86	7
36	36	4
45	46	1
44	44	2
137	155	1
11	12	4
128	128	3
81	81	1
79	113	2
38	38	7
9	9	2
66	67	3
3	4	1
124	124	3
147	148	1
84	85	2
23	63	2
16	17	4
73	73	2
145	145	3
150	150	4
151	153	2
131	131	1
82	82	4
3	3	3
111	111	1
138	139	1
123	146	1
90	90	1
45	45	2
1	1	5
34	34	4
139	139	2
116	116	1
139	153	1
125	125	1
126	127	1
33	40	1
23	76	1
23	23	5
157	157	4
146	146	2
133	133	1
170	170	2
112	112	2
99	99	3
11	11	4
16	40	3
52	83	1
118	118	1
139	143	1
94	94	2
164	164	9
101	105	1
105	149	1
39	40	1
88	88	1
39	39	3
10	10	1
51	51	3
107	108	1
47	49	2
105	106	1
18	18	1
155	155	1
42	42	1
153	153	3
48	48	2
108	108	2
102	155	1
116	117	2
77	77	1
55	55	3
22	22	2
14	27	1
56	57	1
102	102	2
70	70	2
106	106	1
156	158	1
12	12	3
22	105	1
52	52	2
44	45	2
40	102	1
142	143	1
72	140	1
91	91	2
41	42	2
121	121	2
20	20	4
128	129	2
72	72	1
133	164	2
143	144	1
22	23	2
100	100	1
126	128	1
58	58	1
163	163	7
58	80	1
168	168	1
5	5	2
2	2	3
25	33	1
99	100	3
53	53	3
92	103	1
75	75	1
54	55	1
5	7	1
2	121	2
13	154	2
93	93	1
89	89	2
48	50	1
103	103	2
0	0	2
52	57	1
153	154	1
15	15	1
25	25	3
17	17	3
54	54	1
4	5	1
24	24	2
158	158	1
135	135	2
87	88	2
141	142	1
3	6	1
78	78	3
40	103	1
21	24	3
35	43	1
148	148	1
155	156	1
15	107	1
97	99	1
82	90	1
145	146	1
104	104	2
13	13	3
129	131	1
8	8	1
111	112	1
117	117	2
160	166	1
67	67	1
10	130	1
62	82	1
93	94	2
79	80	1
163	164	1
118	125	2
37	38	1
105	148	1
37	37	3
54	58	1
151	151	2
21	75	1
165	165	2
19	19	2
149	149	1
50	50	1
118	119	1
143	161	2
137	137	2
118	127	1
18	19	2
119	121	2
20	24	1
133	135	1
113	118	2
79	79	2
10	11	1
95	96	1
129	129	1
116	154	1
16	16	1
132	132	2
136	136	1
62	63	1
122	122	2
143	155	1
150	154	1
76	77	2
17	18	2
91	100	1
77	78	1
50	54	1
21	62	1
138	155	2
71	72	1
68	91	1
75	76	1
62	62	1
68	70	1
118	120	1
7	7	1
127	127	1
5	12	1
105	160	1
10	16	1
1	2	1
120	120	2
103	104	1
141	141	4
67	68	1
94	101	1
64	64	1
140	142	1
147	162	1
73	74	1
46	46	1
119	130	1
161	162	2
14	135	1
129	130	1
7	49	1
28	107	1
74	76	1
6	7	1
8	130	1
73	79	1
150	167	1
14	15	1
123	124	1
14	16	1
105	105	1
19	25	2
157	158	1
27	107	1
117	119	1
90	91	1
141	152	1
35	36	1
15	136	1
154	154	1
87	87	1
147	147	1
80	81	1
49	49	1
98	98	3
23	64	1
136	137	2
80	80	2
66	66	1
64	71	1
144	145	2
44	46	1
114	114	1
1	149	1
127	128	1
5	6	1
97	100	1
48	51	1
7	10	1
95	95	1
