29	29	2
1	1	1
121	121	4
47	47	7
122	122	5
90	90	4
11	11	5
5	5	1
105	105	1
67	68	1
112	112	3
25	25	6
34	69	1
62	62	2
119	119	3
50	50	5
23	23	2
73	74	1
76	80	1
64	93	1
4	4	3
70	70	7
45	46	1
107	107	1
57	57	3
114	114	7
15	23	3
0	0	2
103	103	4
64	91	1
8	8	1
13	13	1
110	110	3
32	32	1
107	115	1
48	51	2
124	124	1
65	65	2
6	6	4
58	71	1
15	15	1
51	51	3
29	30	1
114	115	1
17	17	1
108	108	4
92	93	1
102	102	1
90	92	1
131	131	3
46	47	1
104	117	1
72	72	1
69	69	5
69	101	2
88	88	1
13	23	1
66	118	1
72	73	1
106	106	2
120	120	5
79	79	3
28	28	3
113	113	1
12	12	3
80	80	2
58	58	2
117	117	2
78	79	1
65	67	1
132	133	2
45	47	2
130	131	1
72	103	1
63	68	1
114	116	1
55	55	3
60	78	1
76	76	4
52	54	1
68	96	1
59	89	1
54	121	1
34	41	1
54	54	5
30	30	2
94	95	1
32	34	1
48	48	1
34	34	2
53	53	4
127	127	3
60	60	3
52	53	2
82	86	1
68	112	1
111	111	3
63	64	1
129	129	1
44	100	1
16	44	1
16	16	2
104	105	2
91	91	1
2	3	1
41	44	1
47	48	1
39	39	1
81	90	1
75	75	2
87	87	1
99	100	1
95	112	2
82	85	1
106	107	1
115	115	2
39	78	2
108	109	1
84	85	1
23	25	1
1	2	1
26	26	1
66	66	1
90	91	1
95	97	1
20	20	1
31	31	1
91	94	1
2	2	1
21	21	1
77	78	1
82	82	1
54	55	1
125	125	3
24	24	2
93	94	1
39	44	1
52	52	1
112	122	1
73	73	1
101	102	1
77	77	1
69	105	1
7	7	2
61	62	1
96	96	1
118	118	1
109	109	4
11	12	1
24	46	1
23	24	2
81	82	1
93	93	1
34	39	1
24	63	1
3	3	1
44	96	1
100	101	1
77	79	2
4	5	1
78	78	2
64	90	1
56	111	1
69	102	1
16	17	1
117	118	1
82	83	1
131	132	1
49	53	1
60	62	1
92	108	1
116	116	2
115	116	1
48	49	1
59	59	1
51	52	1
49	120	1
10	11	1
95	96	1
40	40	2
133	133	1
