25	203	1
228	228	7
85	101	2
246	246	3
94	95	1
15	120	2
32	32	4
201	201	4
79	83	2
31	31	2
65	65	3
8	8	3
199	222	4
166	166	6
38	39	2
227	227	2
37	37	2
18	23	1
2	3	1
205	205	3
97	97	1
28	28	2
37	40	2
226	226	2
229	229	4
224	224	5
47	47	2
211	221	1
87	89	1
236	236	1
114	114	2
51	51	6
215	215	5
53	53	3
15	15	3
43	46	1
33	33	4
25	26	1
36	36	6
24	42	1
115	115	2
218	218	2
76	76	4
79	82	1
168	168	6
110	110	2
19	19	5
207	207	11
201	202	2
175	175	3
68	68	5
25	25	2
199	200	1
59	60	1
48	48	4
110	111	1
7	7	2
243	247	1
165	166	2
70	70	2
232	232	4
191	192	1
204	225	1
78	156	2
217	217	2
187	187	3
204	204	2
69	69	1
34	34	2
112	112	3
245	245	4
229	235	1
196	196	3
105	106	3
166	183	1
146	146	2
157	157	3
184	184	8
52	53	1
46	47	4
14	16	3
22	23	1
26	26	3
85	85	4
213	214	2
17	17	5
187	191	1
38	38	5
154	155	1
46	46	4
88	88	3
199	199	1
82	83	1
27	27	3
151	155	1
156	156	3
176	176	4
66	67	1
210	210	3
19	38	2
28	40	3
14	15	2
116	116	2
178	178	2
14	14	2
167	167	4
236	241	1
1	1	2
109	109	1
56	56	2
146	155	1
61	61	8
76	77	1
70	71	3
183	183	1
152	152	4
115	116	1
173	173	1
211	213	1
9	9	4
200	200	2
158	159	2
52	63	2
35	94	1
186	186	1
28	29	1
57	57	1
72	73	1
103	103	1
59	59	3
30	30	4
43	77	1
41	41	5
67	67	5
163	164	2
202	202	3
4	4	4
117	117	3
74	74	2
106	184	2
35	35	3
7	8	1
20	20	3
244	244	4
160	160	1
6	6	2
40	40	2
233	233	2
163	163	1
204	236	1
164	164	1
231	231	2
217	237	2
4	5	1
111	162	1
36	45	1
45	45	3
170	170	1
95	95	1
88	89	1
72	72	1
47	109	1
42	42	7
227	228	2
165	165	2
113	113	1
80	80	1
165	179	3
194	194	1
159	159	1
204	205	1
190	190	1
231	234	2
121	121	1
89	90	1
55	56	3
94	100	2
150	150	3
221	221	2
242	242	3
206	206	1
36	37	1
161	161	1
237	239	1
78	78	1
198	198	2
111	111	4
247	247	1
13	13	3
29	31	1
62	62	1
171	171	2
52	52	1
178	179	1
35	48	1
28	203	1
21	22	1
244	246	1
10	10	1
230	230	2
23	23	3
170	171	1
164	198	2
64	65	1
100	100	4
24	24	3
203	220	1
166	172	1
107	107	2
213	226	1
191	196	1
55	55	1
61	62	1
40	110	1
30	59	1
181	181	1
162	163	1
58	58	3
24	25	1
84	85	2
67	70	1
114	115	1
241	246	1
18	18	1
162	162	3
224	225	1
62	68	1
102	102	2
169	169	1
188	190	1
237	237	1
206	207	1
55	58	1
15	16	1
48	101	1
86	184	2
81	81	1
9	10	1
185	195	1
66	66	1
65	94	1
36	44	1
11	11	2
12	12	4
64	66	1
236	247	1
216	217	1
50	54	1
91	91	1
229	231	1
23	24	1
172	173	3
17	26	1
43	43	1
47	48	1
102	104	1
197	197	2
30	230	1
98	99	1
111	112	2
210	211	1
40	118	2
98	98	1
181	182	3
92	92	1
186	188	1
151	152	1
33	93	1
61	63	1
62	63	1
204	224	1
172	172	1
182	182	2
212	212	1
214	214	2
29	228	1
234	234	2
50	50	2
185	222	1
54	54	1
84	94	2
225	236	1
213	213	1
235	236	1
208	208	1
118	118	1
29	29	1
243	243	1
50	51	1
41	110	1
52	220	1
172	176	2
60	60	1
214	216	1
207	211	1
151	151	2
113	115	1
235	235	1
5	22	1
179	186	1
6	7	1
180	180	1
107	108	1
81	82	1
208	209	1
192	192	1
212	213	1
3	3	1
20	113	1
26	41	1
46	116	1
188	188	1
53	102	1
50	68	1
112	113	1
31	36	1
168	171	1
220	224	1
82	82	1
230	231	2
210	223	1
158	158	1
106	106	1
197	199	1
43	44	1
101	102	1
147	175	1
16	16	1
5	5	1
186	190	1
215	218	2
207	212	1
39	39	1
177	177	1
184	236	1
