29	30	1
92	92	2
21	21	4
48	48	6
108	120	2
95	130	2
2	4	1
136	139	3
4	5	1
84	86	1
65	65	3
87	89	3
134	141	1
17	18	2
24	24	1
9	9	2
16	35	1
122	123	3
91	92	1
41	48	1
8	9	1
110	120	1
130	135	2
129	129	3
110	116	1
20	20	4
55	55	2
38	41	1
19	19	1
0	0	4
1	1	1
18	18	2
71	74	1
104	104	2
108	108	2
124	124	4
25	25	7
56	74	1
133	140	1
54	54	4
34	34	1
67	68	2
134	135	1
105	112	1
68	74	4
64	64	1
107	108	1
136	136	3
74	74	2
20	21	2
111	111	2
37	37	2
143	143	4
94	94	2
73	73	2
97	97	2
141	141	3
42	43	1
106	110	2
116	116	3
48	59	1
118	118	2
54	66	1
67	70	1
95	95	9
95	125	1
115	115	5
6	6	1
51	51	1
61	61	1
96	97	1
60	83	1
57	100	1
107	107	2
106	107	1
66	71	2
40	40	2
103	139	2
144	145	2
26	26	2
99	99	3
119	121	1
3	3	4
18	25	1
67	67	1
31	32	1
135	137	1
28	28	4
47	48	1
133	133	1
50	50	2
59	60	1
109	109	2
68	68	2
101	101	2
83	84	2
49	61	1
105	105	3
77	91	1
25	28	1
63	63	1
125	126	4
30	30	2
77	77	1
19	22	1
14	16	1
11	11	3
57	105	2
5	5	1
36	36	2
95	98	1
140	140	4
66	66	1
41	41	1
79	79	3
138	138	1
87	87	2
40	41	1
113	113	1
123	123	1
5	6	1
126	126	3
75	75	1
52	55	1
91	91	3
100	102	1
145	145	2
99	100	1
10	55	1
14	43	1
25	26	1
2	3	1
69	70	1
46	47	1
103	103	1
83	83	1
22	67	2
93	94	1
102	102	1
88	88	2
96	96	2
146	146	2
34	51	1
72	75	1
128	130	1
69	69	2
0	123	1
8	8	2
38	93	1
89	89	1
144	144	1
27	28	2
85	128	1
119	119	2
30	59	1
76	76	1
78	82	1
75	76	1
31	33	1
52	53	1
134	140	1
57	58	1
56	61	1
39	39	1
67	77	1
58	75	1
54	61	1
3	4	1
70	70	2
60	60	1
88	89	1
2	2	1
84	84	1
18	20	2
127	136	2
57	57	1
80	80	1
32	59	1
23	25	1
125	142	1
142	142	2
16	16	1
131	131	1
32	32	2
66	77	1
56	68	1
84	128	1
74	75	1
100	101	1
93	105	1
14	14	1
81	82	1
35	35	1
95	96	1
63	86	1
107	116	1
76	78	1
116	117	1
105	106	1
94	107	1
101	102	1
11	100	1
