174	174	1
3	3	3
7	7	4
108	109	1
128	128	1
53	53	2
114	114	3
129	131	1
13	13	4
8	8	5
152	155	1
24	24	1
17	18	1
139	139	5
51	83	1
1	1	3
110	110	1
137	154	1
4	27	1
81	81	1
173	173	5
145	145	3
40	40	4
91	107	2
26	88	2
169	170	1
96	96	1
8	9	2
9	92	1
46	46	2
32	41	1
172	172	4
6	6	2
76	76	1
27	88	1
143	154	1
11	11	4
113	145	1
15	15	2
170	171	1
144	144	6
3	41	2
74	74	1
167	167	2
3	4	1
174	179	2
12	12	2
165	169	2
86	86	3
95	95	3
174	175	2
5	6	1
132	138	1
38	108	2
142	142	1
78	78	1
169	169	4
75	76	1
119	137	1
166	166	1
0	0	2
136	136	2
58	59	2
79	79	1
152	152	2
80	80	3
19	21	1
37	37	3
141	141	1
147	147	2
171	171	2
107	115	1
44	45	1
148	170	1
2	2	1
146	163	1
68	75	1
161	161	2
93	103	1
32	32	1
41	41	2
55	58	1
149	149	5
118	148	1
99	101	1
95	104	1
176	176	3
132	132	3
10	11	1
25	27	1
38	38	1
149	170	1
27	27	4
85	85	1
62	62	2
33	39	1
37	38	1
89	89	3
148	168	1
29	30	1
42	42	1
130	130	1
73	73	2
159	159	2
157	157	3
30	30	1
8	26	1
146	146	2
91	93	1
154	154	1
167	168	2
11	13	1
150	150	1
153	153	1
92	92	1
107	112	1
94	132	1
117	121	1
39	41	1
43	43	2
64	64	1
12	140	1
147	148	2
10	24	1
35	36	1
77	77	2
26	26	2
19	19	1
25	25	2
148	163	1
43	44	2
96	97	2
155	155	2
71	135	2
107	109	1
60	60	1
171	172	1
165	167	1
109	109	3
113	126	1
65	65	1
160	163	1
109	132	1
52	54	2
158	170	1
54	76	1
123	123	2
61	132	1
11	24	2
176	180	1
126	127	1
11	32	1
112	112	2
22	29	1
101	103	1
127	143	1
27	41	2
20	24	1
83	85	1
170	170	1
8	51	1
113	113	1
109	110	2
99	100	1
43	64	2
131	131	1
22	23	1
33	33	1
5	5	2
30	31	1
133	133	1
10	10	1
179	179	1
116	119	1
45	45	1
71	71	3
94	94	2
134	134	1
33	54	1
80	81	1
41	103	1
25	33	1
135	135	1
160	160	1
57	109	1
122	122	1
17	64	1
180	180	1
121	121	2
65	66	1
111	111	1
178	178	1
95	135	1
52	52	1
121	122	1
94	95	1
9	9	1
96	122	1
100	101	2
12	108	1
99	127	1
15	93	1
51	51	1
168	168	1
175	176	1
16	55	1
123	124	1
29	29	1
115	115	1
124	124	1
140	142	1
143	143	1
133	134	1
58	105	1
36	38	1
104	107	1
137	137	1
113	117	1
61	61	1
115	145	1
122	131	1
67	67	1
130	154	1
96	117	1
23	23	1
87	88	1
105	105	1
156	156	1
22	22	1
