118	118	4
34	36	1
125	125	5
23	28	2
8	8	2
99	100	1
89	90	1
129	134	1
136	136	7
94	94	2
40	41	3
146	146	2
30	30	3
125	126	1
47	47	3
48	48	2
109	109	7
133	134	3
39	54	1
13	14	1
110	110	5
70	70	3
142	143	1
127	127	3
73	73	3
153	153	7
12	21	2
51	53	1
42	42	3
24	24	6
123	124	3
78	79	2
62	63	1
91	92	1
27	27	2
85	85	4
14	45	1
92	94	2
124	125	2
25	25	5
143	143	2
104	104	3
45	45	4
110	130	1
154	154	3
30	31	3
126	143	1
137	137	3
150	150	3
106	106	6
130	131	3
124	124	2
97	99	1
40	53	2
4	6	1
28	28	3
51	51	7
148	149	4
93	105	1
13	13	6
71	75	1
141	144	1
114	115	2
63	64	1
33	36	1
32	36	1
105	105	2
108	111	1
115	115	2
22	22	6
52	52	1
97	121	1
9	123	1
140	141	1
107	124	1
23	23	3
7	7	6
74	76	1
128	128	8
141	141	1
69	74	2
71	102	1
122	122	7
115	116	1
48	49	2
54	54	7
63	63	3
44	44	5
12	12	3
11	11	3
78	78	2
106	122	1
98	141	1
38	38	2
102	102	3
86	86	4
118	135	2
87	87	3
119	119	1
21	24	1
29	29	5
5	5	5
86	110	1
16	17	1
46	53	1
120	120	5
6	9	1
144	146	2
29	32	1
97	97	2
153	154	1
69	69	2
24	84	1
142	149	2
14	67	3
55	63	1
25	26	2
67	68	4
68	68	3
77	77	2
146	150	1
6	6	3
93	94	1
75	78	2
49	49	4
43	43	4
64	83	1
134	152	1
23	27	2
95	95	2
63	65	2
21	21	7
66	66	2
43	45	1
9	10	1
148	148	1
73	74	2
12	17	1
67	67	6
115	117	1
46	154	1
83	86	1
67	71	1
64	64	3
12	15	1
121	142	2
132	132	3
144	147	1
45	47	3
35	35	4
88	92	1
126	126	1
16	23	1
139	145	1
78	104	2
52	54	1
43	44	1
142	142	4
113	113	7
11	12	1
85	103	1
35	36	1
85	100	1
3	3	1
80	80	4
106	107	3
147	148	1
35	37	1
53	54	1
75	76	1
30	38	2
121	124	2
65	65	3
24	25	3
98	121	1
90	90	2
98	99	2
25	28	1
10	11	2
114	114	3
40	48	1
127	128	2
21	23	2
15	15	3
139	139	3
74	79	1
96	96	2
130	130	1
20	20	1
104	105	3
131	132	1
31	42	1
114	152	1
116	117	2
65	67	2
144	144	3
4	10	1
17	17	2
5	6	2
129	129	6
133	133	4
121	121	5
55	55	2
45	46	2
74	74	1
121	125	2
107	107	1
106	110	1
138	138	2
30	56	1
71	71	4
77	80	1
133	153	1
101	101	4
3	9	1
46	47	1
39	39	4
93	95	1
10	31	1
49	135	1
50	77	1
116	116	1
149	149	4
104	127	1
87	115	1
53	70	1
117	129	2
135	135	3
84	84	2
62	64	1
108	114	1
49	51	1
33	33	4
132	133	1
81	82	3
31	75	1
36	145	1
134	134	1
128	129	3
119	122	1
105	106	2
123	145	1
141	142	2
109	138	1
9	9	3
96	99	2
145	145	1
9	14	1
123	123	2
37	40	1
33	35	2
124	126	1
50	50	4
82	83	1
62	79	2
111	111	4
17	20	1
125	128	3
71	136	1
81	83	1
27	28	4
28	31	1
14	14	1
139	141	1
66	99	1
126	142	2
63	66	1
76	76	1
22	69	1
119	120	2
7	28	1
41	41	2
24	45	1
26	26	3
117	119	1
23	24	2
113	114	2
144	149	1
32	33	1
43	56	1
126	127	1
86	99	1
62	62	2
64	65	2
69	132	1
137	139	1
111	122	1
16	42	1
22	23	2
79	95	1
19	49	1
31	31	1
67	69	1
65	66	1
83	116	1
12	13	1
104	115	1
36	36	2
50	51	1
18	18	2
135	136	2
110	111	1
10	10	3
117	117	4
109	152	1
86	100	1
64	148	1
86	96	1
46	46	4
37	38	1
81	81	1
128	147	1
129	130	1
66	78	1
130	138	1
129	133	1
79	79	1
126	147	1
33	34	1
2	4	1
83	103	1
120	133	1
99	99	2
64	79	1
54	55	1
49	50	1
107	114	1
54	56	1
97	142	1
37	37	1
30	120	1
10	131	1
99	150	1
131	131	1
42	43	1
125	127	1
40	131	1
124	128	1
141	148	1
69	70	2
118	133	1
18	39	1
137	138	1
102	106	1
72	87	1
26	29	1
13	51	1
151	151	3
16	68	1
80	81	1
34	34	2
37	67	1
31	39	1
142	145	1
12	30	1
86	107	1
78	136	1
17	18	1
103	103	1
112	113	1
98	112	1
6	47	1
109	110	1
40	40	1
15	16	1
10	33	1
38	39	1
68	134	1
145	146	1
79	82	1
39	40	1
107	108	1
28	29	1
125	139	1
4	4	1
13	19	1
8	37	1
4	33	1
100	100	1
138	139	1
53	53	2
46	51	1
112	112	2
75	75	1
35	55	1
18	46	1
41	42	1
19	19	1
8	10	1
85	93	1
38	62	1
122	123	1
39	62	1
3	41	1
64	66	1
2	2	1
63	82	1
