43	78	2
14	14	7
41	42	2
78	78	8
7	7	4
51	65	1
27	28	1
5	5	7
38	38	11
75	77	1
34	34	5
19	19	3
68	69	6
25	25	4
73	75	1
33	35	2
69	69	7
70	71	4
36	37	3
67	67	4
18	81	1
52	52	4
28	28	3
6	39	2
73	74	2
27	36	1
68	68	2
54	68	2
67	68	4
45	45	12
63	64	3
25	53	1
15	16	4
9	49	1
28	29	2
50	51	5
79	79	7
74	76	2
32	33	2
75	76	3
72	72	14
13	30	1
30	30	9
17	17	4
48	57	1
67	70	3
76	80	2
76	76	7
6	20	1
81	81	2
49	49	4
37	38	3
5	6	3
18	78	1
49	50	3
49	58	1
25	37	1
46	46	2
71	71	11
61	61	10
48	48	7
74	74	6
42	42	4
62	62	5
40	41	2
34	35	2
26	47	1
48	49	2
58	58	7
60	60	1
11	14	2
6	7	2
63	67	1
26	39	1
47	47	11
61	66	2
55	55	3
54	54	10
1	1	5
67	69	1
21	21	1
40	40	10
80	80	7
4	57	1
33	33	7
36	39	1
57	57	4
33	73	1
27	27	5
6	6	4
47	48	3
36	36	6
49	52	2
8	8	3
10	10	5
46	56	1
55	56	3
16	16	1
20	42	1
58	59	1
66	66	4
32	32	6
51	53	2
62	63	1
6	81	2
73	73	6
63	63	5
41	41	6
25	70	1
35	35	4
3	3	5
53	53	2
45	73	1
55	68	1
51	52	2
72	73	1
52	66	1
2	2	2
1	4	1
26	72	1
65	66	2
79	80	4
66	67	3
77	77	7
9	9	1
55	58	1
39	39	2
63	65	1
3	6	4
56	56	2
36	78	1
31	32	5
46	48	2
50	50	3
12	12	3
4	5	3
31	31	7
30	31	4
54	71	1
58	64	1
28	33	1
38	40	2
37	37	9
53	54	1
29	29	4
38	78	1
66	70	2
57	73	1
68	70	1
7	42	1
65	65	2
28	41	2
21	31	1
30	34	1
43	79	1
76	78	1
7	80	1
34	42	1
61	62	1
38	39	1
11	19	1
64	64	3
0	0	3
26	27	3
47	76	1
72	74	1
59	59	3
26	26	6
30	45	1
4	4	1
35	36	1
46	47	1
11	12	2
53	55	1
80	81	2
11	11	3
48	74	1
33	42	1
74	75	3
18	42	2
17	38	1
78	79	1
40	75	1
5	46	1
45	46	2
69	70	1
33	37	1
9	12	1
31	41	1
32	54	1
77	78	1
59	61	1
39	40	1
48	55	1
12	41	2
22	22	1
54	59	1
54	64	2
30	60	1
56	61	1
72	75	1
64	67	1
16	43	1
25	31	1
55	64	1
29	45	1
21	27	1
57	59	1
8	11	1
50	53	1
48	72	2
27	30	1
2	3	1
77	79	1
34	53	1
27	71	1
71	72	1
75	75	1
13	78	1
26	34	1
63	79	1
0	37	1
53	71	1
51	51	1
1	2	1
2	5	1
7	8	1
38	42	1
25	26	1
30	42	1
29	36	1
1	3	1
53	70	1
12	31	1
70	70	1
