25	25	6
110	113	1
33	53	1
12	14	4
24	25	1
10	10	6
84	84	3
112	112	8
134	134	4
62	64	2
17	24	2
142	142	5
134	138	1
98	98	8
136	137	2
63	63	5
24	24	5
115	115	11
69	69	8
32	34	4
42	42	9
16	17	4
29	29	8
25	43	2
49	49	3
153	153	4
99	99	6
45	45	9
108	136	1
125	126	3
35	35	5
123	128	1
17	19	1
97	98	4
74	75	2
116	117	3
41	41	7
96	139	1
128	129	3
19	27	2
147	147	9
31	40	2
103	103	6
17	103	1
30	30	10
38	39	3
110	112	1
153	154	5
55	57	2
68	68	12
18	18	3
97	114	1
7	7	4
81	81	6
136	136	5
54	105	1
4	4	10
129	152	1
44	45	4
5	37	1
132	137	1
102	106	2
83	83	9
142	144	2
34	34	7
144	144	3
143	143	6
111	114	1
124	125	2
114	118	2
15	15	9
152	152	8
32	33	2
117	131	1
40	40	8
13	16	1
20	21	5
17	17	4
100	100	11
80	82	2
46	46	7
19	124	1
122	122	11
47	48	4
87	87	3
125	128	2
32	32	9
64	66	2
151	151	6
122	128	2
134	136	1
130	130	5
118	119	3
125	125	9
134	135	1
85	86	4
33	36	1
132	132	3
138	138	8
22	25	2
107	107	3
9	9	6
76	88	1
5	5	6
30	69	1
135	135	10
36	37	2
128	128	7
65	68	2
85	139	2
62	63	2
133	134	3
108	114	1
26	91	1
63	65	1
47	47	9
3	3	4
6	6	2
65	79	1
115	116	5
29	35	1
103	118	1
48	49	1
84	86	2
44	149	1
49	51	1
133	133	2
114	114	2
116	116	6
14	14	4
97	97	3
132	133	3
16	16	12
101	103	1
37	37	1
74	84	2
69	75	1
22	22	6
127	127	11
71	71	8
33	33	7
10	23	1
131	133	1
110	110	6
149	149	8
5	26	2
31	32	1
16	65	1
118	118	10
121	122	1
84	87	1
75	75	8
101	102	4
94	95	3
75	138	1
109	133	1
39	39	4
4	6	1
7	8	2
48	48	10
12	12	3
141	142	3
67	119	2
45	46	3
9	25	1
42	43	2
137	137	8
53	53	1
109	111	4
131	139	2
13	13	7
81	82	5
102	102	8
44	44	7
80	81	4
88	127	1
80	80	5
101	101	6
19	22	1
95	98	1
131	131	7
65	65	8
12	13	3
146	146	5
70	70	9
56	56	6
143	144	2
106	107	3
106	106	4
38	122	1
88	116	4
79	87	1
102	148	1
119	119	3
77	78	3
82	88	1
109	109	5
104	109	1
150	150	12
10	19	1
73	135	1
96	104	1
90	90	3
38	38	8
64	123	2
13	14	2
27	31	1
61	62	2
83	84	1
121	121	3
66	66	6
8	9	3
146	147	4
126	127	4
154	154	1
51	51	3
100	111	2
131	137	1
52	52	3
97	122	2
19	19	7
23	36	1
138	142	1
74	74	3
62	62	3
57	57	5
107	108	1
64	65	3
108	108	5
21	21	12
63	78	1
114	117	1
71	72	1
70	118	1
111	111	3
109	136	1
50	51	2
125	137	1
41	42	2
53	70	1
41	43	1
43	43	5
113	113	3
139	139	4
53	112	1
71	85	1
104	104	1
36	36	2
27	28	3
11	16	2
67	75	1
65	123	1
53	150	2
40	122	1
20	41	1
4	9	1
145	145	4
86	87	2
92	95	1
113	114	2
5	10	1
137	138	3
102	103	3
135	136	3
129	129	5
120	120	4
5	8	2
147	149	1
83	85	1
39	40	1
25	29	1
26	26	3
49	52	1
86	86	2
95	95	2
55	55	4
96	96	5
109	117	2
18	40	3
115	130	1
79	79	4
117	117	9
141	141	8
37	38	4
97	128	1
148	148	11
21	112	1
93	94	3
123	139	1
23	23	7
64	64	6
54	71	1
46	47	3
3	7	1
139	151	1
124	124	4
94	97	1
129	148	1
82	83	1
77	77	5
106	120	1
106	109	1
47	151	1
131	132	1
101	107	2
8	8	5
139	148	1
34	35	2
130	132	3
121	128	1
6	8	1
140	141	1
63	83	2
31	138	1
25	26	5
7	89	1
129	151	1
15	16	3
126	126	1
74	88	1
66	67	3
124	140	1
114	146	1
74	81	1
33	134	1
105	105	5
70	100	1
70	102	2
28	28	3
55	56	3
45	50	1
137	144	1
141	147	1
117	121	1
26	42	1
82	82	2
140	142	3
45	70	1
26	27	2
73	95	1
67	67	4
94	107	1
61	61	1
104	105	2
112	115	1
142	143	1
9	35	1
100	109	2
130	131	3
130	150	1
6	7	3
10	11	2
14	15	2
67	78	1
135	146	1
95	99	1
27	29	1
63	64	2
106	108	1
73	119	1
20	36	1
4	5	2
123	129	1
123	123	5
78	78	3
62	101	1
110	111	1
17	26	1
55	150	1
83	87	3
31	31	1
50	50	4
20	20	5
102	121	1
95	97	2
109	112	1
73	73	6
38	42	1
118	144	1
20	33	1
94	94	2
9	27	1
98	99	1
14	30	1
58	58	1
18	19	4
19	41	1
127	141	1
37	41	1
17	51	1
30	40	1
9	24	2
78	107	1
13	43	1
43	44	1
22	40	1
84	96	1
62	91	1
112	114	1
50	52	1
66	74	1
75	81	1
105	108	2
65	66	1
94	99	2
11	11	5
54	54	4
151	152	1
54	66	1
66	72	1
116	118	1
95	103	2
117	118	1
110	115	1
7	9	1
11	12	3
86	98	1
4	25	4
92	92	1
70	72	1
121	137	1
73	82	1
3	23	1
123	124	2
72	73	1
105	137	1
137	150	2
77	84	1
18	21	1
125	127	1
140	144	1
144	146	1
58	114	1
9	22	1
84	85	1
144	145	2
73	110	1
67	135	1
23	41	1
21	22	1
11	17	1
17	18	3
98	103	1
31	84	1
11	38	1
85	85	1
49	64	1
30	36	1
54	67	1
94	98	1
41	53	1
56	120	1
16	28	1
55	149	1
75	76	2
9	17	1
92	98	1
123	134	1
128	140	3
51	93	1
21	31	1
40	61	1
81	98	1
62	122	1
110	135	1
131	151	1
149	150	3
52	69	1
150	151	1
122	131	1
122	130	1
14	18	1
19	21	1
48	51	1
63	77	2
40	41	1
51	62	1
127	128	1
56	58	2
14	116	1
22	43	1
10	140	1
30	31	1
130	133	1
81	83	1
124	144	1
76	76	2
17	25	1
86	88	1
98	109	1
42	45	1
83	98	1
76	77	2
12	31	1
85	98	1
96	97	1
136	144	1
84	128	2
77	86	1
93	93	1
105	122	1
140	148	1
2	2	1
108	115	1
8	135	1
113	123	1
119	122	1
84	97	2
33	35	2
105	115	1
76	111	1
34	36	1
13	24	1
69	70	2
62	84	2
12	28	1
101	122	1
140	140	1
80	96	1
72	72	1
45	66	1
124	129	1
141	146	1
49	70	1
94	96	1
109	110	2
138	139	2
75	84	1
46	77	1
139	144	1
47	53	1
63	68	1
66	79	1
105	106	1
129	130	1
127	130	1
102	117	1
106	132	1
56	57	1
16	69	1
99	127	1
27	27	1
129	131	1
11	13	1
63	80	1
69	76	1
141	144	2
68	74	1
10	45	1
86	94	1
10	17	1
118	123	1
25	32	1
87	98	2
84	99	1
13	19	1
27	42	1
81	105	1
127	138	1
133	136	1
76	107	1
117	143	1
65	69	1
24	37	1
51	52	1
116	127	1
7	19	1
17	41	1
114	119	1
85	105	1
55	72	1
97	121	1
41	46	1
65	84	1
33	34	1
45	53	1
64	82	1
8	25	1
133	150	1
65	122	1
122	126	1
