95	95	2
106	107	1
65	70	1
61	61	5
28	28	4
32	35	1
55	56	1
42	56	1
118	131	2
71	71	4
75	80	1
39	39	1
8	8	1
19	19	1
1	1	5
62	73	1
134	134	6
120	120	2
22	22	3
24	25	1
67	68	3
66	66	2
96	96	6
124	141	1
50	50	2
62	62	1
64	115	1
130	131	1
16	16	2
46	47	1
82	82	3
68	68	4
29	29	7
57	58	1
98	98	4
99	103	1
57	104	1
114	114	2
135	135	3
90	90	2
34	35	3
17	17	2
122	122	5
80	80	3
102	102	3
74	82	1
32	32	4
125	140	1
141	141	2
140	140	1
50	51	1
133	133	1
91	91	1
111	111	3
127	127	2
96	98	2
30	30	3
59	59	2
71	73	1
38	38	2
116	116	1
34	34	3
49	52	1
33	42	1
91	95	1
81	81	3
13	15	1
87	92	1
126	126	2
30	38	2
1	26	1
104	104	1
127	128	1
65	72	1
40	110	1
117	118	1
73	74	2
101	101	4
91	92	1
27	28	1
2	5	1
92	92	4
43	69	1
15	15	4
142	142	1
130	130	5
131	131	2
70	87	2
67	92	1
35	35	2
134	135	1
67	67	2
26	26	2
20	20	4
51	51	2
14	14	2
31	33	2
58	58	3
123	123	2
30	37	1
107	107	1
53	54	1
35	38	1
6	6	2
99	100	2
43	73	2
13	24	1
23	23	3
118	120	1
49	49	1
72	73	2
120	121	1
128	129	1
35	36	1
85	85	1
89	89	4
137	138	1
121	121	1
49	65	1
63	63	1
53	53	1
32	33	2
47	47	3
65	65	1
21	21	1
60	63	1
111	112	1
93	94	1
77	78	1
125	125	1
78	78	1
103	103	2
72	72	2
59	61	1
145	145	1
10	27	1
124	124	3
99	99	4
114	115	1
109	111	1
27	27	4
110	111	1
110	118	1
141	142	1
143	143	2
13	26	1
25	26	1
36	36	1
112	112	3
83	83	2
68	95	1
85	86	1
2	2	2
25	25	2
79	81	1
34	64	1
119	121	1
84	85	1
10	11	1
11	11	1
93	97	2
132	136	1
3	6	1
138	139	3
134	139	1
30	33	1
113	114	2
41	41	2
57	66	1
1	27	1
24	24	2
113	118	1
144	144	1
69	69	1
28	37	1
131	133	1
24	35	1
98	106	1
48	48	1
94	94	1
96	107	1
88	89	1
18	30	1
31	32	1
57	57	1
96	130	1
97	97	1
13	13	1
121	133	1
31	31	1
61	62	1
132	138	1
72	98	1
115	115	1
54	54	1
21	22	1
111	113	1
73	89	1
71	72	1
40	40	2
56	56	2
22	23	1
116	117	1
17	18	1
110	110	1
58	71	1
76	77	2
97	98	1
2	3	1
140	141	1
49	50	2
132	132	1
118	119	1
94	95	1
89	104	1
61	102	1
113	116	1
75	75	1
3	26	1
93	93	1
95	125	1
76	89	1
93	95	1
64	64	2
60	62	1
137	137	1
25	56	1
54	55	1
136	137	1
64	65	1
104	108	1
103	104	1
52	52	1
120	123	1
33	56	1
77	82	1
94	96	1
9	9	1
143	144	1
