68	68	7
87	90	1
1	1	2
44	44	1
40	40	5
71	71	4
75	75	6
58	65	1
17	17	6
92	93	1
134	134	6
57	57	11
60	60	6
51	51	1
21	38	1
69	78	2
123	124	5
7	8	1
82	83	3
112	112	7
4	4	5
121	134	2
106	109	1
35	36	2
108	108	8
58	58	6
37	37	3
36	39	1
87	87	6
25	26	1
87	88	2
76	76	5
131	131	9
40	91	1
45	45	5
34	45	1
90	90	5
47	56	1
103	103	5
57	60	2
10	10	6
7	7	3
101	101	8
49	49	3
109	109	3
0	2	1
34	34	4
74	74	13
51	55	3
35	35	7
73	73	6
42	42	2
29	29	7
7	11	1
123	123	5
9	9	5
85	93	1
4	5	4
97	101	1
39	39	5
96	96	2
84	84	4
122	123	3
87	94	2
19	20	3
93	95	3
82	82	5
122	122	2
128	130	1
56	57	1
79	79	5
124	124	2
133	133	6
29	38	1
41	43	1
107	129	2
14	14	4
44	45	3
109	111	1
104	106	3
23	98	1
98	102	1
91	91	3
121	122	1
59	60	5
124	130	1
47	47	6
100	100	6
75	80	1
23	23	4
15	15	11
64	64	5
105	105	1
38	38	6
126	129	1
97	97	2
6	14	1
20	21	1
27	27	4
64	69	1
127	127	4
61	61	17
127	129	1
8	13	1
126	130	1
11	11	5
119	119	4
31	37	3
58	60	1
9	34	2
129	130	2
92	124	1
25	105	1
111	112	3
80	80	1
9	10	1
78	79	1
113	115	2
104	108	3
80	92	1
95	96	2
130	131	2
94	94	4
99	101	1
63	63	4
111	111	6
86	93	1
78	83	1
80	81	3
6	17	1
30	30	5
94	95	5
111	115	2
22	23	1
92	92	3
82	84	1
57	59	3
67	67	7
64	65	3
39	60	1
70	70	8
124	127	1
89	92	2
36	36	2
32	32	2
47	66	1
45	47	1
56	56	4
28	29	2
91	99	2
0	3	2
65	65	4
25	25	7
12	12	5
3	3	5
26	28	1
126	126	4
26	27	2
27	28	2
119	128	1
21	60	3
18	18	2
39	42	2
28	55	1
94	103	1
102	104	1
125	125	2
11	13	1
110	110	7
59	59	8
24	25	4
21	21	3
38	39	1
20	27	1
64	70	1
16	25	2
77	79	3
104	104	3
81	81	4
20	44	1
72	72	6
22	26	2
119	120	1
33	47	1
5	5	4
107	112	1
6	57	1
66	66	4
31	32	1
20	34	2
128	132	2
59	61	1
15	35	1
121	121	3
13	14	1
55	55	3
126	131	1
80	83	1
83	83	3
112	128	1
85	85	5
124	131	2
84	87	2
129	129	3
132	132	7
2	65	1
103	132	1
91	92	4
32	41	1
88	88	3
115	115	2
26	26	5
121	129	2
100	106	2
3	4	1
117	119	1
77	77	1
78	78	3
100	101	2
130	133	2
14	18	1
33	64	2
15	21	2
98	98	3
74	79	1
116	116	8
28	28	1
90	96	1
20	58	1
6	6	4
130	130	6
39	54	1
81	116	1
107	109	1
112	130	1
95	95	3
2	2	5
32	134	1
84	128	1
97	100	1
56	58	1
117	120	2
128	129	2
57	63	1
17	18	3
101	131	1
62	62	3
68	125	1
97	107	1
33	34	4
33	35	1
10	35	1
90	91	2
113	114	2
117	117	6
86	91	1
8	8	6
87	92	2
29	30	1
116	118	1
62	65	1
95	115	1
88	89	1
33	62	2
27	32	1
60	69	1
59	129	1
12	13	1
41	41	4
131	134	2
105	110	1
82	96	1
109	110	2
121	132	2
126	128	1
86	87	3
9	24	1
124	125	1
27	29	1
89	89	1
96	106	2
81	93	2
129	133	1
99	99	2
114	114	2
110	112	1
69	69	1
31	43	1
128	128	3
86	86	5
8	9	1
107	107	1
55	57	1
20	39	1
82	87	1
18	22	3
100	104	1
123	126	1
83	84	3
106	110	2
98	104	1
32	33	2
85	89	1
115	126	1
5	10	1
88	90	1
10	16	1
24	38	1
13	19	3
89	94	1
78	109	1
102	106	1
0	32	1
75	97	1
46	46	4
102	103	1
50	106	1
108	109	2
33	33	2
89	102	1
9	14	1
18	21	1
113	113	1
78	82	1
84	88	3
16	22	1
109	114	2
37	133	1
39	47	1
77	78	1
79	95	2
112	114	1
115	116	1
40	43	2
91	94	1
6	10	1
28	46	1
26	37	1
111	114	1
43	48	1
106	108	1
96	101	1
36	46	1
78	103	1
78	87	1
83	94	1
85	86	1
107	108	2
114	115	1
119	122	1
104	111	2
93	94	1
14	25	1
84	85	1
74	78	1
28	36	1
96	99	1
22	22	2
65	66	1
55	56	1
98	106	1
97	105	1
7	133	1
66	67	1
69	82	1
68	70	2
58	61	1
61	62	1
37	45	1
57	58	2
101	110	1
0	4	2
13	16	1
43	43	2
55	64	1
71	72	1
121	128	1
12	17	1
0	8	1
58	59	1
92	119	1
5	12	1
108	117	1
22	49	1
13	15	1
40	41	1
34	51	2
98	99	1
44	46	2
104	133	1
41	42	1
1	2	1
35	44	1
132	134	1
14	17	1
14	15	1
106	124	1
118	118	1
24	24	3
112	116	1
83	86	1
7	19	1
31	31	1
39	58	1
24	88	1
21	50	1
79	107	1
69	70	1
11	12	1
34	36	1
99	100	1
96	97	2
12	48	1
87	91	1
82	86	1
30	51	1
111	118	1
21	27	3
129	134	1
75	81	1
88	99	1
104	105	1
106	106	1
7	36	1
127	128	1
35	57	1
20	22	2
109	126	1
35	38	1
20	20	1
95	123	1
91	110	1
84	90	1
9	13	1
115	122	1
11	14	1
63	80	1
40	42	2
120	120	2
93	107	1
82	85	1
105	111	1
75	108	1
81	103	1
107	110	1
41	50	1
129	131	1
86	95	1
51	56	1
59	115	1
2	3	1
13	13	1
105	117	1
72	98	1
76	102	1
90	94	1
47	75	1
113	116	1
84	92	1
94	96	1
31	35	1
99	102	1
83	103	1
