152	153	1
142	142	5
127	128	1
87	87	2
29	30	1
3	3	2
46	46	1
47	47	2
3	4	2
151	152	2
8	8	3
106	106	4
135	149	1
2	3	1
117	117	2
7	7	1
154	154	4
120	140	1
66	66	4
148	148	2
23	37	2
135	135	4
138	139	2
157	157	3
10	35	1
99	99	3
27	27	2
133	134	2
13	13	1
28	28	3
40	42	1
94	94	1
130	130	6
140	140	3
46	52	1
109	109	2
91	92	1
144	144	2
55	55	1
109	123	2
127	127	3
154	155	1
141	142	2
129	129	6
108	123	1
150	151	2
92	92	1
137	138	1
126	126	1
132	132	3
111	135	1
36	36	2
1	1	3
62	62	2
111	111	2
157	158	1
42	44	2
81	82	1
156	156	4
20	20	2
22	22	3
73	73	3
31	32	1
135	137	2
107	107	4
144	146	1
145	145	3
91	91	4
4	4	5
95	97	1
11	147	1
139	139	6
25	25	4
44	44	6
149	150	1
114	114	4
111	112	3
119	119	4
17	17	2
110	110	5
123	123	3
77	77	1
121	141	1
105	149	1
65	91	1
101	101	3
113	117	1
93	93	3
121	121	1
77	103	1
30	30	4
1	3	1
9	9	3
2	2	5
42	42	2
20	21	2
33	34	1
96	96	2
159	159	1
64	64	1
21	21	1
90	90	1
44	98	1
15	15	1
138	138	3
139	140	1
124	136	1
25	26	1
133	133	6
88	89	2
43	43	1
128	128	2
93	95	1
85	87	1
38	39	2
19	47	1
121	122	2
12	12	2
99	101	1
105	116	1
104	104	1
65	65	3
38	38	3
95	95	2
122	123	1
149	149	2
105	105	3
45	47	1
90	91	1
101	104	1
30	31	1
13	14	1
23	23	1
147	147	1
29	44	1
52	52	1
19	19	3
24	25	2
45	45	2
78	78	2
113	115	1
86	86	1
151	151	2
103	104	1
102	102	1
108	121	1
29	29	1
132	139	1
40	40	1
143	143	1
153	153	1
46	47	1
126	127	1
75	75	2
24	24	1
115	115	1
116	116	5
112	113	1
106	107	4
8	32	1
140	141	2
148	149	1
91	106	1
26	26	1
98	98	3
146	147	2
108	114	1
83	83	1
52	53	1
14	41	1
12	18	2
69	69	1
67	67	1
116	147	1
136	137	2
134	134	1
124	126	1
99	100	2
141	141	1
123	124	1
51	55	1
131	131	1
78	81	1
130	131	2
145	147	1
154	158	1
148	157	1
134	135	1
134	140	1
50	50	2
80	81	1
37	47	1
17	18	1
155	155	1
136	136	2
129	133	1
156	158	1
108	111	1
104	106	1
76	80	1
73	129	1
155	158	1
93	137	1
156	157	2
128	139	1
37	37	1
100	100	3
84	85	2
98	99	1
44	45	1
103	103	2
97	98	1
39	39	1
125	126	2
108	108	2
143	148	1
120	147	1
36	45	1
89	107	1
152	152	1
77	92	1
4	155	1
78	126	1
113	113	1
146	146	1
68	68	1
90	133	1
16	16	1
96	97	1
67	68	1
55	56	1
32	32	1
64	80	1
86	87	1
118	120	1
