122	122	3
52	52	6
8	8	2
32	32	4
77	77	6
117	117	3
0	0	3
13	13	1
98	98	1
44	44	4
46	47	2
39	39	2
83	84	1
56	56	11
82	82	1
22	27	1
107	107	12
100	100	1
106	106	4
101	102	3
24	24	3
14	14	4
31	31	1
54	54	6
50	50	2
119	119	2
127	127	8
121	121	4
41	41	3
40	41	1
34	34	1
60	61	2
25	28	1
89	89	3
98	99	1
2	2	3
37	39	1
9	10	1
67	67	4
72	73	3
64	64	1
124	124	4
131	131	8
97	98	1
62	63	1
94	94	7
66	66	2
76	76	5
57	58	2
122	123	1
129	129	1
33	33	3
115	115	1
40	40	2
16	16	5
70	70	3
18	18	5
74	74	4
5	5	3
63	67	2
11	12	2
109	109	3
85	85	3
120	131	1
89	90	2
112	112	3
123	124	3
112	113	2
91	91	4
77	83	1
105	106	2
108	108	4
103	103	3
49	49	2
48	48	6
111	111	2
47	47	3
41	42	1
102	102	3
48	49	2
39	114	1
28	28	3
90	90	3
125	127	2
45	47	2
72	72	1
88	89	1
45	46	1
95	98	2
133	133	5
54	55	1
40	114	1
80	95	1
40	45	1
65	67	1
116	116	4
56	104	1
74	79	1
125	125	2
72	105	1
38	38	2
42	42	2
55	56	1
71	78	1
128	128	2
92	92	2
75	75	3
60	100	1
96	96	5
83	83	1
4	4	2
28	30	1
43	43	2
61	63	2
99	100	1
57	57	4
78	82	1
21	22	1
0	2	1
27	27	3
63	95	1
61	61	2
21	21	1
93	93	3
38	39	3
115	116	1
44	47	2
50	53	1
53	53	4
126	126	4
121	122	1
53	121	1
7	7	4
83	103	1
75	76	2
79	80	1
109	110	2
123	123	4
118	118	1
118	119	4
22	22	2
104	105	1
68	69	2
30	30	2
13	14	1
79	79	2
104	104	1
95	96	1
60	60	1
105	105	2
62	62	2
61	62	2
86	86	1
59	59	2
71	72	3
114	114	5
120	130	1
63	65	2
45	45	5
2	3	2
32	33	1
24	39	1
102	103	3
51	51	2
113	113	2
102	104	1
27	28	1
95	95	4
25	25	3
34	39	1
108	109	1
23	23	4
12	12	1
78	78	1
11	51	1
86	87	1
132	133	3
33	45	1
6	6	2
105	113	1
77	80	1
110	110	1
130	130	1
31	40	2
1	3	1
93	94	1
4	6	1
129	130	1
3	3	2
14	24	1
117	119	1
85	86	1
32	46	1
58	62	1
31	32	1
28	29	1
88	119	2
118	130	1
1	2	2
10	10	2
116	125	1
73	73	1
106	107	1
54	56	1
55	55	2
71	77	1
44	45	1
130	131	1
59	99	1
99	120	1
119	130	1
95	123	1
2	128	1
19	19	1
102	118	1
96	124	1
25	27	1
29	29	1
101	101	1
14	29	1
29	30	1
97	97	1
99	99	1
91	92	1
