47	47	2
10	12	3
53	53	1
11	21	1
135	136	2
72	72	1
142	146	2
51	51	1
92	92	2
24	24	1
121	122	1
37	54	1
98	98	2
144	145	3
84	85	1
130	130	1
67	145	2
144	144	4
39	39	1
104	104	1
113	114	3
17	18	1
68	68	4
130	140	1
137	137	4
144	147	1
152	152	3
139	139	7
67	67	2
140	141	2
74	101	1
118	118	5
104	106	2
134	134	2
15	15	1
155	156	1
66	66	1
110	127	1
77	80	1
109	110	2
28	31	2
112	112	3
91	92	2
128	128	3
136	137	2
16	22	1
156	156	2
41	47	1
45	45	4
122	134	1
152	155	1
27	27	1
92	93	1
124	126	1
116	116	2
111	112	1
107	107	3
117	117	2
129	140	1
21	96	1
140	140	3
81	81	4
113	115	1
86	87	1
138	138	3
149	149	1
120	122	1
148	148	1
94	94	1
16	16	2
95	97	1
63	63	1
80	80	2
19	21	1
115	116	1
48	48	2
10	13	1
141	144	1
113	113	1
1	1	2
154	154	2
78	81	1
151	151	2
134	148	1
23	23	1
126	127	1
22	22	2
0	0	1
127	127	2
39	40	3
130	157	1
65	140	1
94	110	1
155	155	2
118	119	1
100	100	2
31	37	1
101	101	3
97	97	1
18	18	1
131	143	1
87	146	2
133	133	3
105	105	1
99	99	2
117	118	1
93	94	3
142	142	3
5	5	2
106	148	1
121	121	1
71	151	1
111	111	1
50	51	1
77	78	1
46	62	1
45	50	1
93	93	2
134	135	1
106	106	3
20	39	1
92	112	1
147	147	2
82	82	2
20	20	1
77	90	1
18	41	1
17	22	1
89	89	2
54	57	1
46	47	1
107	131	1
148	150	1
17	19	1
37	37	1
136	136	5
104	105	1
96	131	2
117	119	1
45	47	1
103	103	1
132	149	1
129	139	1
86	90	2
66	67	1
95	105	1
48	49	1
86	86	1
78	78	1
8	8	1
34	34	1
129	130	1
8	87	2
18	49	1
78	79	1
121	126	1
68	87	1
118	120	1
14	20	2
5	6	1
14	22	1
158	158	1
129	129	2
29	103	1
3	3	1
153	155	1
68	153	1
135	135	1
146	147	1
1	100	1
19	20	1
26	26	2
125	125	1
13	80	1
31	32	1
131	131	2
25	27	1
102	102	1
90	91	1
44	44	1
73	97	1
99	105	1
82	83	1
14	14	1
145	145	2
126	126	2
81	85	1
146	146	1
55	55	2
31	31	1
153	153	2
139	155	1
73	73	1
130	131	1
56	56	1
145	146	1
54	54	1
96	96	1
47	48	1
120	120	1
38	38	2
11	36	1
123	128	1
21	21	2
1	2	1
84	84	1
108	109	1
143	145	1
4	100	1
122	122	1
12	12	1
30	30	1
148	149	1
107	112	1
16	54	1
40	40	1
103	129	1
77	81	1
