57	57	1
140	140	4
90	118	1
50	50	2
6	31	1
25	47	1
16	16	2
48	48	5
23	23	2
148	148	4
108	108	1
145	145	3
140	151	2
155	156	1
109	110	6
107	107	5
79	93	1
3	66	1
158	158	5
122	123	1
155	155	6
136	137	1
135	135	5
135	137	3
145	147	1
78	78	3
70	70	1
36	36	1
69	69	2
132	133	1
113	114	1
67	67	5
151	151	5
97	126	2
139	141	1
85	85	2
66	67	1
112	112	4
127	128	2
130	130	3
20	20	1
91	91	2
131	131	2
100	100	5
121	122	3
27	28	2
75	75	4
153	153	4
7	7	2
105	105	3
37	37	1
77	79	1
128	128	3
157	157	5
73	73	3
30	30	6
95	97	1
82	83	2
151	152	2
108	109	2
17	17	1
118	118	2
66	66	3
131	132	2
50	66	1
29	29	2
150	150	3
123	124	1
43	43	1
45	53	1
116	116	4
96	97	1
1	1	4
30	31	1
103	103	6
90	90	2
33	33	2
22	22	1
127	127	4
156	157	1
38	38	4
110	111	3
136	142	1
15	15	1
80	138	1
39	43	2
99	99	3
122	122	4
28	29	2
70	71	6
134	141	1
35	35	1
62	63	1
2	36	1
9	50	1
3	3	2
7	22	2
0	0	3
39	39	2
72	72	1
43	64	1
149	150	1
1	2	1
94	95	2
28	28	2
41	55	1
121	121	1
45	45	2
129	129	5
139	139	7
55	57	1
97	98	1
117	117	3
106	106	4
97	97	2
11	11	1
102	102	2
4	4	3
24	24	1
25	25	2
109	109	3
121	123	1
52	53	1
120	120	5
98	98	4
95	112	1
80	80	2
65	65	1
134	134	4
71	71	4
154	155	2
103	104	1
18	21	1
32	32	2
42	42	1
101	101	3
111	120	1
133	145	1
141	141	3
87	88	1
18	18	4
108	120	1
158	159	2
145	146	1
140	150	1
110	114	1
19	19	1
37	38	1
82	82	2
34	34	1
68	68	2
105	107	1
12	22	1
26	26	2
120	126	1
30	45	1
134	135	4
156	156	2
83	84	1
98	139	1
40	41	3
77	77	3
37	71	2
29	32	1
6	6	2
132	132	2
3	42	1
138	138	3
52	52	2
85	86	1
119	133	1
0	2	1
13	14	4
22	47	1
95	95	3
13	13	2
31	85	1
142	145	1
90	91	1
152	155	1
5	5	2
41	41	2
25	26	1
81	82	1
10	11	1
56	57	1
133	133	1
132	141	1
2	2	1
53	53	1
34	120	1
65	99	1
76	76	1
133	148	1
68	120	1
41	42	2
31	31	1
79	79	1
144	148	1
122	141	1
33	35	1
101	150	1
56	56	1
104	105	1
93	93	2
133	149	1
86	87	2
125	126	2
31	32	1
146	147	1
144	144	4
152	152	1
44	44	1
75	102	1
0	1	2
78	79	1
44	45	1
136	136	2
116	143	1
128	129	1
89	89	3
124	126	1
13	51	1
111	112	1
87	92	1
92	93	1
16	17	1
7	8	1
124	124	1
92	92	2
119	120	1
96	96	1
153	154	1
112	122	1
17	18	1
147	147	1
111	111	1
14	34	1
11	17	1
109	126	1
82	85	1
66	72	1
98	129	1
96	105	1
19	41	1
131	138	1
49	49	1
123	126	1
155	157	2
46	126	1
137	137	2
115	120	1
137	138	1
36	44	1
127	148	1
66	99	1
129	130	2
48	125	1
55	55	1
124	125	1
10	116	1
81	84	1
84	87	1
40	40	1
132	148	1
34	84	1
45	47	1
