46	89	1
108	108	2
83	84	1
9	18	1
119	119	4
109	138	1
147	147	5
116	116	5
76	77	1
108	118	1
109	109	6
101	101	3
117	117	4
154	158	2
4	4	3
31	31	2
88	89	3
131	157	1
120	120	3
133	134	2
20	20	5
49	51	1
116	117	1
136	136	2
24	24	4
80	80	2
127	127	3
129	130	1
36	37	1
143	148	1
64	89	1
141	156	1
125	126	1
38	38	1
92	92	2
81	83	1
123	123	6
123	148	1
29	29	3
47	86	1
151	151	3
70	70	2
67	67	4
124	124	4
27	27	2
134	141	3
67	92	1
112	112	4
21	21	2
153	153	1
144	144	3
81	81	3
70	104	1
114	114	5
2	4	1
11	11	2
137	138	2
28	29	2
95	145	2
68	92	1
17	18	1
139	139	1
105	106	2
77	132	1
26	28	1
106	106	2
111	112	1
63	63	1
133	139	1
93	94	2
141	142	2
48	48	3
89	89	2
78	78	1
42	42	3
43	43	2
146	146	4
20	47	1
16	16	3
152	153	2
50	52	1
57	61	1
140	147	1
97	97	1
82	82	2
109	113	3
85	85	2
145	145	2
152	152	4
157	157	1
95	95	4
93	95	1
141	141	3
49	49	2
132	140	1
115	115	2
107	110	2
135	135	3
81	85	1
8	8	2
41	41	3
46	47	1
134	134	2
13	13	3
37	37	2
3	4	1
83	90	3
53	53	2
96	97	2
138	138	4
125	125	4
67	119	2
5	8	1
137	139	1
127	128	1
5	6	1
126	126	2
68	69	1
56	71	1
45	45	1
68	68	3
124	126	1
0	0	1
119	120	2
23	23	3
131	131	3
69	69	2
141	145	2
40	40	1
17	17	4
155	156	1
12	12	2
77	84	1
140	140	1
93	93	2
100	100	1
111	117	1
111	114	1
46	48	1
112	116	1
34	34	2
97	134	1
40	71	1
111	111	5
138	139	1
2	2	1
46	46	4
109	120	1
87	87	1
94	94	1
47	49	1
46	49	2
117	118	2
121	121	2
107	108	1
5	5	2
156	156	2
116	155	1
92	111	1
136	137	1
73	97	1
75	75	4
11	16	1
7	7	1
108	111	1
42	43	1
78	79	1
22	22	1
21	22	1
1	1	1
41	42	1
143	143	1
97	98	1
19	19	3
32	53	1
52	52	1
118	121	1
87	90	1
148	148	2
47	47	1
132	132	5
115	116	1
48	62	1
86	90	1
146	147	1
49	52	1
153	157	1
14	14	3
71	71	2
7	8	1
83	83	3
79	80	1
78	82	1
18	18	1
52	54	1
85	87	1
84	85	2
130	130	1
3	3	1
79	79	1
84	89	1
49	53	1
96	119	1
138	141	1
130	131	1
70	111	1
76	104	1
36	89	1
117	155	1
126	127	1
142	142	4
104	104	1
51	51	2
15	16	1
53	54	1
154	154	1
39	39	1
24	25	1
3	23	1
94	113	1
10	21	1
148	149	1
105	105	2
157	158	1
77	111	1
16	17	1
107	107	1
98	98	1
45	47	3
156	157	1
131	134	1
36	36	1
91	91	1
17	20	1
106	107	2
110	110	1
75	129	1
110	117	1
90	91	1
8	9	1
40	46	1
46	63	1
72	94	1
107	112	1
54	55	1
158	158	1
134	143	1
96	96	1
95	127	1
142	143	1
121	122	1
