169	169	4
139	144	1
164	164	6
34	34	5
13	13	3
101	101	3
1	1	4
53	53	2
52	52	3
25	25	5
9	9	2
119	119	3
152	152	3
57	57	1
4	4	3
139	143	1
98	98	2
49	49	2
161	161	6
109	142	2
2	2	6
0	0	2
47	48	1
23	72	1
154	154	4
76	77	2
125	125	4
24	84	1
86	86	2
131	131	1
153	153	3
154	166	1
7	7	7
140	164	1
21	24	2
42	42	1
149	149	2
167	167	1
80	97	1
57	62	1
135	136	2
51	51	3
26	26	4
12	12	4
164	166	2
36	37	2
155	155	4
107	107	2
139	139	3
102	102	2
20	20	2
108	109	2
106	106	2
99	102	1
46	53	1
111	111	3
10	11	2
12	84	1
118	118	1
7	17	3
11	12	1
41	41	1
164	165	1
25	110	1
116	164	1
165	165	4
145	145	5
48	90	1
11	11	3
143	143	4
166	166	2
114	115	1
39	39	4
41	42	1
47	49	1
78	78	1
163	163	3
43	44	1
40	118	2
91	91	2
72	72	2
44	44	4
148	149	2
45	45	4
135	135	1
105	105	1
162	162	1
122	132	1
68	68	1
150	150	3
40	40	1
159	159	3
47	50	2
124	124	1
120	122	3
137	137	3
88	88	1
74	76	1
128	128	2
129	139	1
3	3	4
46	46	2
17	17	2
71	71	2
138	138	2
83	114	2
169	170	1
50	72	1
10	10	1
130	130	1
108	108	3
104	104	2
134	134	1
115	115	2
65	81	1
15	15	3
49	56	1
10	112	1
35	36	1
13	15	2
43	43	3
40	43	1
49	85	1
104	105	1
11	71	1
28	28	3
35	35	3
114	131	1
57	58	1
111	130	1
17	135	1
66	76	2
89	89	1
159	160	1
18	21	2
37	37	5
116	116	2
115	116	1
24	24	2
19	20	1
15	26	1
36	42	1
56	57	2
138	161	1
77	78	1
14	14	1
8	8	3
138	139	2
56	66	1
157	158	1
136	136	2
114	114	1
41	45	2
84	88	1
166	167	1
44	138	1
41	73	2
6	7	1
97	97	1
157	157	2
140	142	2
160	160	2
54	54	1
33	34	1
74	85	1
132	132	3
113	114	1
110	168	1
50	50	3
116	141	1
103	103	1
141	142	2
76	91	1
84	84	3
111	131	1
99	99	3
118	141	1
146	146	2
37	39	1
156	156	1
63	63	1
109	109	1
94	94	2
154	164	1
158	158	1
132	133	1
17	80	1
151	151	2
5	6	1
122	123	1
40	119	1
69	69	1
56	56	3
69	102	1
144	144	1
93	93	1
128	129	1
15	16	3
10	82	1
161	162	1
98	99	1
51	65	1
127	143	1
150	159	1
81	81	1
21	73	1
76	76	1
35	111	1
5	5	1
36	36	1
80	91	1
121	121	1
149	150	1
38	39	1
47	88	1
89	168	1
28	40	1
110	110	1
53	56	2
55	55	1
90	90	1
170	170	1
2	3	1
20	47	1
14	15	1
0	1	1
149	160	1
