128	129	4
19	20	3
153	153	6
98	98	3
27	64	1
37	37	9
9	15	1
139	140	4
45	45	8
140	141	3
125	125	4
176	179	1
180	181	3
15	15	7
50	50	4
159	159	4
5	5	6
53	54	1
137	137	6
86	86	2
24	24	4
19	19	4
195	197	1
144	146	3
141	142	1
184	184	8
138	141	1
60	60	3
13	13	7
100	100	2
170	191	1
107	107	4
168	168	3
0	0	2
134	134	5
132	132	2
57	101	2
107	127	3
5	32	1
121	121	3
24	89	2
30	30	4
14	14	9
23	25	1
113	113	3
134	141	1
149	149	4
142	142	5
49	49	6
186	186	4
178	179	1
123	123	2
181	191	1
27	27	2
190	190	3
38	121	1
127	127	3
110	111	1
140	140	9
94	96	1
156	156	7
172	177	1
5	6	1
169	169	1
18	19	1
142	187	1
32	80	1
17	17	4
138	195	1
33	38	1
3	4	1
0	2	1
183	184	1
142	143	1
45	46	3
46	47	1
142	196	1
98	106	3
47	47	8
4	4	8
185	185	6
151	171	1
59	59	4
94	94	3
9	9	7
50	51	1
194	194	5
1	1	3
23	23	7
139	139	1
62	62	2
114	121	3
138	138	7
116	116	3
191	191	2
57	57	4
16	16	5
170	170	4
78	78	1
148	150	1
172	172	5
6	6	2
192	192	1
38	38	9
30	85	1
84	85	1
37	38	4
110	146	1
43	43	7
178	178	5
47	100	1
39	39	3
185	186	6
11	57	2
194	195	2
5	150	1
179	180	2
73	73	2
40	41	1
151	151	3
155	171	1
177	177	6
104	104	2
47	140	1
10	10	2
102	102	3
12	12	6
44	44	2
16	34	1
48	49	2
163	179	1
34	35	3
181	181	4
103	103	2
190	193	1
119	193	1
186	187	5
9	33	1
68	68	2
101	157	1
146	146	4
63	64	3
33	37	1
33	39	1
174	175	2
182	183	2
187	187	3
197	197	7
152	152	2
183	183	4
31	31	4
188	188	3
160	195	1
70	71	2
181	182	4
155	155	4
118	118	4
40	40	8
41	41	5
22	22	5
71	73	1
79	80	1
195	195	2
46	46	6
26	26	1
64	64	1
148	153	1
156	157	1
24	25	3
88	189	1
128	128	5
133	137	1
53	53	1
20	22	2
55	55	1
85	85	3
162	182	1
54	54	2
88	123	1
196	196	3
136	136	2
2	3	3
173	174	1
9	10	2
39	40	2
14	39	1
11	11	6
48	48	1
112	112	1
86	89	1
176	176	4
165	165	2
105	126	1
21	22	1
103	105	1
182	184	1
152	183	1
141	141	7
12	13	3
40	72	1
169	170	3
65	87	1
124	125	1
93	93	2
179	189	1
58	58	2
144	153	2
71	71	2
115	181	1
32	32	3
42	42	3
162	169	1
94	95	1
161	188	1
29	29	1
146	148	2
167	167	1
160	160	2
169	194	3
190	191	3
6	9	3
160	161	1
36	37	2
163	163	1
43	44	1
17	19	1
185	195	1
101	101	1
124	124	2
8	134	3
127	128	1
186	194	1
171	171	6
141	170	1
37	87	1
193	193	7
77	83	1
72	72	2
135	137	1
162	162	2
167	168	1
15	56	1
108	136	1
126	126	2
173	173	1
101	107	1
72	120	2
155	163	1
77	77	1
129	197	1
79	79	2
152	177	2
30	32	1
77	78	1
168	192	1
162	177	3
82	85	1
23	31	1
70	78	1
148	169	1
115	159	1
108	113	2
182	182	1
20	20	1
164	164	3
86	90	1
35	35	4
25	26	2
0	3	2
21	24	1
140	177	1
108	108	2
69	89	1
132	151	1
3	3	2
4	5	1
146	147	3
120	120	2
30	31	1
10	15	1
67	67	3
95	113	1
30	34	1
48	127	1
154	154	2
144	144	3
34	34	2
168	169	1
66	66	1
179	179	1
157	194	2
36	41	1
96	97	1
7	8	1
143	143	1
164	169	1
66	72	2
5	7	2
82	86	1
136	184	1
155	156	1
69	131	1
169	196	1
17	20	5
56	56	1
184	195	1
87	87	2
13	141	2
88	88	1
183	186	2
31	36	1
16	38	1
106	120	1
184	185	1
138	139	1
20	21	1
18	26	1
21	21	3
28	28	2
38	39	1
154	164	1
33	34	2
26	30	1
152	178	1
74	74	3
151	152	2
27	29	1
33	35	1
76	78	1
7	7	3
2	2	1
175	176	1
42	43	1
167	188	1
119	119	2
118	139	2
127	129	1
83	85	1
145	145	4
150	150	2
155	170	1
101	105	1
189	189	1
170	171	1
142	150	1
69	72	1
153	172	1
4	15	1
160	166	1
18	18	2
175	178	1
167	169	1
152	153	2
20	23	1
131	131	1
115	116	1
161	165	1
32	33	1
69	119	1
25	25	2
11	12	1
172	173	1
69	69	2
65	66	1
86	87	1
37	120	2
33	36	2
175	175	1
54	56	1
148	148	2
12	130	1
8	8	1
111	111	1
130	130	2
140	178	1
122	122	3
9	13	1
194	197	1
107	108	1
160	186	1
27	28	1
33	33	2
24	65	1
96	96	1
1	5	1
158	158	1
132	139	1
32	85	1
115	115	1
42	66	1
65	65	1
10	12	1
125	126	1
131	132	1
18	143	1
13	132	1
166	166	3
109	154	1
71	122	1
164	181	1
10	195	1
133	161	1
52	52	1
34	38	1
5	119	1
43	72	1
110	147	1
1	2	1
15	41	1
43	66	1
143	146	1
15	57	1
173	176	1
129	129	1
142	185	1
38	46	1
132	166	1
165	166	1
130	131	1
192	193	1
89	111	1
3	39	1
5	9	1
22	23	2
47	48	1
171	194	1
168	178	1
61	61	1
129	185	1
117	120	1
65	125	1
