149	155	1
73	99	1
21	21	2
115	116	2
112	112	3
26	102	1
139	139	5
103	106	1
147	147	5
93	93	4
119	119	1
148	148	6
67	67	4
104	104	3
119	124	1
98	116	2
85	127	1
95	96	4
42	71	2
113	139	1
91	91	2
91	95	1
111	111	2
54	68	1
95	97	2
112	113	2
41	41	2
129	129	6
116	120	2
42	42	2
43	43	4
154	154	6
108	112	1
90	106	1
151	151	3
64	64	4
55	55	1
110	110	2
85	85	1
120	120	1
118	120	2
45	48	2
79	79	3
117	117	1
107	133	1
17	19	2
87	89	1
45	47	1
130	130	4
10	19	1
128	128	3
45	45	3
15	15	2
0	0	1
86	86	4
85	86	1
97	119	1
90	91	1
99	120	1
99	99	6
29	30	2
113	113	4
147	148	1
83	90	2
97	98	2
52	53	1
103	103	5
37	37	2
43	66	2
37	40	2
31	32	1
158	158	2
90	95	1
9	9	2
0	2	1
24	26	1
78	79	1
74	74	1
114	115	1
156	157	2
75	75	1
100	100	2
72	73	2
7	22	1
55	71	2
7	12	1
107	148	1
117	119	1
137	137	2
66	120	1
88	88	2
15	62	2
32	32	2
99	152	1
68	69	1
49	49	2
44	45	1
8	12	1
145	147	1
70	70	4
48	48	3
23	43	1
92	92	2
95	95	4
128	130	1
106	106	3
153	154	1
126	140	2
118	118	1
73	73	3
40	41	1
114	114	1
108	108	2
32	33	1
155	155	4
134	134	3
17	18	1
24	24	2
20	21	1
116	116	8
108	111	1
89	124	1
121	121	1
8	49	1
97	97	2
78	78	1
4	4	2
44	44	2
149	149	2
22	22	3
1	1	2
116	134	1
19	19	1
150	150	6
3	3	3
81	81	1
97	127	1
142	142	3
108	109	1
156	156	2
63	63	2
17	17	1
143	143	2
65	66	2
119	120	2
39	55	2
34	88	1
87	87	2
84	84	4
72	72	1
93	94	1
21	28	1
8	9	1
126	127	2
66	71	1
140	140	1
96	120	1
47	47	1
46	46	1
109	109	2
126	126	2
142	150	2
105	105	2
102	103	1
91	92	1
80	80	3
49	80	1
86	87	1
129	130	2
27	30	1
36	104	1
141	146	1
145	145	3
138	138	1
76	76	2
125	125	1
6	7	1
65	65	1
39	39	1
13	13	1
72	95	1
54	54	1
7	36	1
134	135	2
144	144	2
25	29	1
117	121	1
105	106	1
84	88	1
98	99	1
36	36	1
8	27	1
104	131	1
5	5	1
113	114	1
82	83	1
138	139	1
103	104	1
67	108	1
2	3	1
135	135	2
37	38	2
34	34	1
87	91	1
123	123	1
96	96	1
107	122	1
43	107	1
56	56	1
49	50	2
83	113	1
155	156	1
118	119	1
26	28	1
107	124	1
26	26	1
144	145	2
18	20	1
2	2	1
29	29	1
52	55	1
71	80	1
93	97	1
98	98	2
135	136	2
6	26	1
109	110	1
18	18	1
38	39	1
75	99	1
14	14	1
13	14	1
5	105	1
109	111	1
111	112	1
117	124	1
62	63	1
111	136	1
16	16	2
35	35	1
68	68	1
42	43	1
21	22	1
139	140	1
121	144	1
122	124	1
98	104	1
6	6	1
40	40	1
90	117	1
55	73	1
65	75	1
107	107	1
16	19	1
120	122	1
114	137	1
57	57	1
63	114	1
26	32	1
27	27	1
54	69	1
11	11	1
89	89	1
2	25	1
96	97	1
158	159	1
7	8	1
12	18	1
133	133	1
103	105	1
52	108	1
8	8	1
47	50	1
98	108	1
