115	117	2
28	28	3
10	10	4
40	40	5
107	107	1
17	99	1
126	126	3
114	114	4
58	58	1
69	80	1
27	27	1
134	134	1
72	73	1
6	6	3
71	94	1
120	138	1
30	30	2
36	60	1
26	26	5
85	86	2
14	14	3
82	82	2
100	106	1
79	79	2
50	51	1
40	41	1
42	42	3
69	70	1
87	115	1
108	108	3
74	92	1
9	9	1
125	125	1
87	91	2
32	34	3
55	59	1
47	47	3
136	138	2
107	108	1
141	141	2
57	57	3
99	99	4
112	112	1
65	70	1
113	113	1
123	123	2
96	96	1
31	31	6
128	130	1
34	35	2
102	103	2
139	141	1
62	63	1
119	119	1
15	19	1
69	69	2
50	53	1
3	4	2
140	140	2
25	61	1
88	115	1
52	52	2
95	95	1
39	39	2
135	135	2
46	92	3
139	140	1
128	128	1
70	73	1
25	25	1
8	9	2
60	60	3
93	93	1
37	67	1
54	54	3
57	58	1
48	58	1
102	102	2
78	78	2
130	130	3
48	102	2
4	33	2
89	90	2
51	51	1
120	121	2
129	129	4
41	66	1
136	137	1
144	144	1
112	114	2
70	70	2
103	124	1
91	135	1
20	22	1
49	53	1
1	1	1
69	92	1
105	105	2
0	0	3
34	36	1
83	83	1
2	8	1
36	36	1
65	71	1
63	63	3
71	71	1
77	78	1
112	139	1
111	112	3
92	94	2
41	41	3
26	33	1
8	18	1
64	65	1
67	68	1
11	11	1
53	54	2
65	65	2
87	90	1
137	138	1
10	11	2
77	77	1
130	133	1
21	21	1
101	103	1
52	63	2
127	127	1
23	23	2
114	116	1
124	124	3
87	89	1
4	4	1
117	117	1
74	80	1
15	15	1
95	96	1
12	30	1
136	139	1
99	123	1
86	117	1
112	126	1
80	129	1
118	118	2
142	143	1
87	87	1
22	22	2
131	133	1
98	98	1
92	92	1
62	102	1
53	53	1
124	125	1
68	68	2
48	100	1
65	85	1
18	18	2
81	81	1
74	95	3
60	63	1
57	100	1
51	140	1
61	68	1
107	110	1
104	113	1
62	67	1
70	72	1
5	55	1
17	30	1
37	37	1
53	61	1
43	75	1
40	54	2
89	118	1
139	139	1
12	14	1
8	8	1
55	56	1
142	142	2
122	122	1
110	140	2
120	120	1
42	99	1
13	14	1
62	62	1
33	36	1
17	18	1
135	136	1
5	6	1
134	135	1
35	35	1
73	73	1
