29	30	3
65	65	3
97	134	1
125	125	4
108	110	1
37	37	2
51	52	1
110	110	4
124	124	3
48	49	2
85	85	2
72	149	1
29	43	1
146	146	7
78	113	3
78	78	4
99	101	1
31	47	1
94	95	2
29	29	4
95	97	3
32	130	1
155	156	4
148	148	6
46	46	2
98	98	2
66	70	1
157	157	4
107	107	3
103	103	5
114	116	2
114	114	1
116	116	5
45	45	6
13	13	2
111	112	1
81	81	1
127	127	5
130	131	5
117	117	1
92	92	1
128	129	2
159	159	1
137	138	3
70	70	3
101	105	1
106	127	1
13	14	1
34	34	5
32	75	1
68	68	3
41	41	1
146	147	2
141	148	2
150	150	6
0	0	3
129	129	2
18	19	2
113	135	1
73	73	4
143	143	1
65	112	1
95	95	4
144	144	1
96	97	2
128	128	6
66	66	4
51	54	1
71	71	4
11	11	5
137	137	3
134	134	2
21	21	2
131	131	2
116	133	1
101	101	1
93	118	1
17	17	5
102	102	1
103	127	2
67	67	3
92	129	1
154	155	1
109	109	2
123	123	3
76	81	2
49	88	1
101	139	1
72	75	1
7	7	4
119	119	2
130	130	2
78	103	1
107	120	1
95	112	1
154	154	2
95	98	2
100	100	4
123	125	1
136	137	1
91	95	1
126	126	2
30	30	2
50	50	3
83	83	2
96	98	1
116	117	2
99	99	3
133	137	1
124	159	2
88	109	1
121	121	7
151	151	2
123	124	7
152	153	1
39	39	1
94	94	1
96	96	3
6	6	5
90	90	2
91	91	6
44	44	3
109	111	1
69	69	3
144	146	2
158	158	4
86	86	5
81	82	1
83	92	1
80	80	4
142	142	2
111	111	3
147	147	3
138	139	2
129	130	1
144	145	1
72	72	1
18	102	1
117	136	1
70	81	1
14	15	1
107	116	1
30	149	1
53	54	2
23	23	2
113	113	3
43	43	3
149	149	4
69	92	1
56	57	1
63	63	1
13	36	1
145	145	1
49	49	2
113	114	1
108	108	3
109	121	1
88	89	1
19	20	1
131	133	1
93	96	1
19	19	2
75	155	1
72	77	1
50	52	1
37	55	1
55	55	2
33	33	1
34	35	1
14	14	1
115	116	1
103	139	1
3	4	2
104	104	2
106	107	1
77	77	2
136	136	1
95	137	1
75	96	1
79	79	1
133	138	1
152	156	1
6	22	1
86	110	1
36	37	1
157	158	2
78	90	1
123	126	1
135	138	1
107	108	1
141	141	1
106	106	2
118	118	1
84	111	1
62	62	2
100	101	1
135	140	2
112	112	2
122	124	1
32	33	1
84	84	1
120	121	1
114	135	1
78	81	1
52	52	1
3	3	1
7	111	1
4	115	1
152	152	1
93	94	2
108	121	1
31	31	1
89	89	3
138	141	1
77	80	1
32	32	1
138	150	1
153	153	1
54	55	1
142	158	1
140	141	1
40	40	1
44	45	2
105	107	1
56	56	1
57	57	1
86	125	1
100	151	1
78	79	1
22	22	2
154	156	1
105	105	2
118	119	1
126	127	2
4	4	1
152	154	1
144	147	2
115	117	1
64	119	1
140	140	1
90	91	1
51	51	1
70	71	1
135	135	1
131	134	1
131	157	1
132	132	1
47	76	1
12	14	1
82	85	1
71	115	1
75	75	1
82	89	1
132	139	1
53	88	1
40	41	1
87	88	1
139	139	1
134	148	1
1	1	1
69	121	1
98	99	1
77	98	1
84	91	1
91	108	1
101	102	1
64	65	1
155	155	1
142	143	1
117	135	1
65	66	1
138	138	1
86	87	1
74	74	1
