4	4	7
111	111	17
91	96	2
91	114	1
116	116	21
0	0	4
96	96	9
114	119	2
90	90	5
131	131	9
11	11	2
100	117	1
96	97	3
108	118	1
8	15	1
34	34	10
120	120	10
105	106	8
119	119	16
103	106	1
132	132	14
71	73	1
91	92	4
105	105	4
106	106	12
130	138	2
103	104	3
19	19	10
89	89	5
122	122	14
136	136	12
100	100	12
134	134	20
133	134	3
113	113	8
108	110	4
126	126	11
80	80	6
93	93	6
95	95	9
109	109	9
10	16	3
117	117	9
72	74	1
7	7	7
115	115	8
10	15	2
99	99	8
76	82	1
37	37	18
103	103	9
10	12	3
127	128	4
125	125	14
101	101	15
27	27	4
133	133	26
79	79	10
106	107	2
124	124	14
87	99	1
28	28	2
127	127	13
74	74	6
112	114	3
11	12	4
12	12	5
75	75	4
91	112	1
36	36	12
112	113	2
5	5	6
135	135	9
78	78	9
7	10	1
71	72	3
137	137	16
18	18	6
87	106	1
78	83	2
123	123	10
102	116	1
130	130	9
102	102	6
44	71	1
118	119	2
104	104	6
13	13	6
72	80	1
71	100	1
87	87	8
81	81	10
17	18	3
125	129	1
108	108	10
138	138	14
73	107	1
1	1	6
139	139	10
129	130	5
114	114	11
90	91	4
105	110	2
103	109	1
33	34	3
72	72	12
116	117	1
140	140	12
8	8	4
121	121	7
20	20	5
107	107	7
105	107	2
35	35	5
127	137	1
17	17	3
131	133	1
125	126	4
7	9	1
33	33	4
132	135	1
4	5	5
16	16	4
129	129	6
130	140	1
112	112	7
1	2	4
1	3	2
116	123	2
98	111	1
134	135	1
35	36	4
118	120	2
117	119	1
108	109	3
32	32	3
97	97	9
1	121	1
73	82	1
97	127	1
71	71	7
118	118	10
108	122	2
100	101	3
32	33	5
90	110	1
9	9	2
82	84	2
85	86	1
77	87	1
130	131	2
75	80	1
101	109	1
86	86	7
88	88	10
86	128	1
120	121	6
37	38	4
73	115	1
131	132	4
104	105	2
74	113	1
89	90	4
110	123	2
92	92	2
38	38	5
119	121	2
110	110	7
80	133	1
114	115	4
128	129	2
91	91	3
98	98	9
77	79	2
100	102	1
81	85	1
72	73	5
6	6	8
95	99	1
71	112	1
119	122	2
123	132	1
119	120	3
82	106	1
97	110	1
123	124	4
10	10	4
14	14	4
3	3	9
68	71	1
3	4	3
78	102	2
0	10	1
95	132	1
100	127	1
77	77	4
93	97	1
98	124	2
2	3	2
131	134	1
12	16	2
111	112	3
95	127	1
77	78	1
88	135	1
138	139	1
74	87	2
124	125	2
83	122	1
97	129	1
128	128	7
110	111	5
127	130	1
85	85	7
102	104	1
114	116	1
136	137	1
121	122	2
112	117	1
95	96	3
103	120	1
139	140	1
115	126	1
114	132	2
94	98	1
94	95	2
93	94	2
119	123	3
107	112	1
137	138	3
82	82	1
102	111	2
107	108	1
117	123	2
101	123	1
106	109	1
124	128	1
37	116	1
91	94	1
87	88	3
108	120	1
72	88	1
72	96	1
117	118	3
135	136	2
99	110	2
100	126	2
8	9	2
3	9	1
16	17	2
66	66	1
83	120	1
132	133	1
101	103	2
109	111	2
15	15	2
11	14	1
125	127	1
113	116	1
94	94	4
89	127	1
74	93	1
27	37	1
84	105	1
83	83	2
100	124	2
71	86	2
113	114	2
11	13	1
116	122	2
79	132	1
108	123	1
75	77	2
2	2	3
19	20	3
80	105	1
80	124	1
12	13	1
94	101	1
28	32	1
3	32	1
106	116	1
105	113	1
4	14	1
7	8	1
82	115	1
76	85	1
15	108	1
77	81	1
126	127	1
27	32	1
127	129	1
4	102	1
2	18	1
13	19	1
37	111	1
72	75	1
79	87	1
101	110	1
102	103	1
75	114	1
104	106	2
120	122	1
118	121	2
81	102	1
113	115	1
112	116	1
133	135	1
111	123	1
79	84	1
2	6	1
98	99	2
136	138	1
90	127	1
104	110	1
118	122	1
85	112	1
79	80	1
97	130	1
76	76	1
134	139	1
73	73	1
122	123	1
109	118	1
92	130	1
106	119	1
127	138	1
97	132	1
37	140	1
99	100	1
115	116	3
103	112	1
114	135	1
117	125	1
0	19	1
91	100	1
7	12	1
106	115	1
18	19	1
89	91	1
108	124	1
10	11	2
76	77	1
13	14	1
108	113	1
114	117	1
34	35	1
101	102	1
97	98	1
103	121	1
111	116	1
129	138	1
10	19	1
28	38	1
84	86	1
135	139	1
34	36	1
73	79	1
134	137	1
104	114	1
132	134	1
79	92	1
104	116	1
108	111	1
