133	133	3
85	85	2
49	49	6
71	71	3
16	18	1
47	47	3
27	27	5
113	114	1
47	51	1
112	112	7
23	27	2
72	72	3
70	91	1
43	44	1
76	77	1
43	43	2
52	52	6
105	105	5
120	120	3
69	83	1
112	120	1
130	130	3
26	26	6
47	55	2
129	129	3
7	94	1
98	98	3
89	89	3
46	48	2
94	110	1
131	131	2
75	77	1
59	59	3
32	32	1
83	88	1
62	62	2
123	123	5
80	103	2
127	127	3
7	49	1
115	115	1
24	24	2
60	60	2
115	121	1
53	53	2
96	96	4
88	91	1
13	13	2
72	75	1
126	126	5
29	29	1
73	85	1
107	107	3
67	67	2
58	58	5
56	69	2
129	130	2
19	22	1
78	79	1
115	116	3
100	115	1
97	128	1
66	67	1
86	86	4
33	33	1
65	65	3
111	111	1
88	90	1
125	131	1
59	72	1
106	106	1
104	105	2
101	101	3
1	102	1
94	94	2
54	56	1
47	48	2
45	60	1
18	22	1
108	108	3
55	55	2
84	84	2
73	77	1
118	118	5
15	20	2
79	83	1
63	63	1
69	69	6
22	23	1
117	131	1
77	82	2
87	97	1
90	90	1
57	58	3
121	121	4
124	124	4
16	16	2
76	76	2
82	82	2
7	7	6
44	44	3
4	5	1
102	102	3
50	51	1
1	9	1
0	0	2
25	25	2
81	81	4
80	81	1
6	7	1
78	82	1
108	109	1
5	64	1
114	114	4
54	54	2
42	48	1
6	93	1
76	133	1
113	113	5
49	92	1
68	69	4
90	91	1
12	13	2
109	109	3
95	95	2
52	53	2
15	15	1
90	92	1
93	93	3
50	50	6
117	119	1
45	46	1
110	112	1
112	123	1
71	90	1
105	108	1
3	4	1
113	120	2
51	51	3
81	87	1
101	102	2
57	110	1
45	68	1
42	52	1
66	73	1
75	75	3
55	75	1
4	4	1
69	70	2
125	125	2
5	31	1
116	116	4
21	21	2
14	14	1
67	69	1
66	71	2
7	33	1
2	2	3
62	64	2
122	122	3
12	12	1
42	43	1
67	119	1
58	62	1
28	28	2
91	92	1
118	119	1
84	88	2
114	115	1
117	118	1
66	68	1
40	62	1
84	85	1
128	128	4
37	59	1
68	68	1
7	8	1
42	42	1
103	103	1
64	64	2
70	70	2
31	31	1
87	89	2
28	29	1
45	45	1
22	22	1
51	56	1
68	105	3
5	14	1
45	66	2
92	124	1
94	96	1
45	75	1
27	98	1
70	71	2
117	117	2
73	73	2
90	93	1
97	100	1
93	94	1
76	79	1
83	83	1
1	1	2
99	100	1
16	17	3
119	119	2
87	87	2
24	25	2
55	80	1
57	84	1
3	3	1
56	56	1
32	40	1
85	86	1
106	109	1
110	110	3
107	108	1
129	132	1
48	48	1
79	79	1
39	52	1
23	23	1
132	132	1
78	78	1
126	128	1
128	130	1
46	46	2
55	56	2
126	127	1
53	56	1
39	39	2
23	25	1
28	42	1
49	51	1
109	116	1
96	102	1
14	62	1
41	41	1
100	100	2
22	24	1
64	65	1
63	65	1
41	42	1
40	40	1
116	117	1
18	21	1
88	88	1
100	101	1
125	126	1
40	41	1
94	102	1
75	106	1
94	95	1
43	59	1
130	132	1
47	69	1
59	82	1
82	117	1
101	106	1
97	97	1
19	19	1
19	20	1
130	131	1
53	111	1
57	57	1
106	107	1
33	34	1
93	111	1
80	80	1
99	99	1
8	52	1
67	68	1
