6	6	3
40	41	2
130	130	2
158	158	1
120	147	2
77	77	1
82	102	1
119	148	2
5	6	4
27	27	1
122	122	1
123	128	1
11	11	1
136	137	2
142	142	8
53	54	2
97	97	1
16	22	1
28	28	2
133	133	1
83	84	1
169	169	3
66	68	1
138	141	1
148	148	4
150	153	1
68	78	1
43	114	1
5	5	2
131	131	1
165	166	1
42	42	3
13	13	2
49	49	1
177	178	1
88	127	1
137	137	4
19	20	1
16	16	5
43	43	4
142	145	1
159	159	2
71	71	1
156	157	3
93	93	2
168	168	2
101	148	1
14	14	2
70	71	2
79	80	2
18	18	1
10	10	2
147	147	1
87	87	2
110	114	1
111	111	1
3	3	1
16	34	1
80	95	1
65	65	4
98	98	2
89	90	1
167	167	2
41	41	2
158	159	3
31	31	3
115	115	3
1	1	3
54	54	4
121	121	4
52	52	3
127	127	3
5	37	1
110	110	1
65	66	2
7	9	1
109	109	2
154	154	2
26	26	1
16	17	2
145	148	1
71	80	1
119	121	1
153	153	1
173	173	1
145	145	1
45	50	1
7	7	1
35	35	1
67	67	4
36	37	1
29	31	1
72	72	2
150	150	2
108	108	1
0	0	3
100	101	1
31	32	1
36	40	1
139	139	1
4	4	4
174	174	1
144	144	2
55	59	1
0	1	1
24	27	2
135	137	1
8	8	1
58	58	1
85	86	1
117	117	1
88	88	1
64	94	2
136	136	2
123	124	1
156	156	1
92	92	1
33	33	1
6	10	1
29	29	2
34	43	1
115	116	1
75	78	1
163	163	2
14	33	1
25	26	2
68	68	2
61	61	1
143	145	1
39	39	2
98	99	1
23	24	1
175	175	3
2	3	2
36	36	1
82	112	1
64	95	1
83	83	1
74	76	1
106	106	1
176	176	2
23	23	1
76	76	2
149	150	1
30	30	1
112	112	2
80	159	1
78	78	2
166	166	2
143	143	1
145	147	2
124	128	1
163	166	1
165	165	1
75	75	1
141	141	1
134	143	1
17	17	1
76	77	1
151	158	1
53	169	1
144	145	1
128	128	1
132	132	2
43	44	1
148	149	1
126	126	1
151	172	1
178	178	2
170	170	1
20	24	1
102	102	1
123	123	2
161	161	2
107	107	1
149	149	1
171	171	1
67	68	1
111	112	1
155	155	1
90	90	1
101	102	1
41	42	1
21	21	1
120	121	1
14	15	1
94	94	2
143	144	1
96	96	1
84	123	1
61	153	1
79	79	1
85	85	1
154	156	1
135	135	1
12	12	1
38	38	1
140	140	1
118	118	1
171	173	1
