158	160	1
134	134	6
43	44	1
138	138	1
83	83	1
184	185	1
159	159	4
141	141	3
182	183	2
64	64	3
166	174	1
42	42	2
1	1	1
187	190	1
41	42	2
43	45	1
115	118	1
58	65	1
11	21	2
130	133	2
149	149	4
23	23	2
134	135	1
126	132	2
140	141	1
59	92	1
47	97	1
123	123	3
61	65	1
87	87	2
14	35	1
19	19	5
156	156	4
65	66	3
54	86	1
146	146	1
25	25	1
156	165	2
130	130	1
18	19	2
94	94	3
66	67	1
174	175	2
150	150	3
83	141	3
5	5	2
127	127	1
8	8	1
112	116	1
76	79	2
188	188	1
83	84	1
34	34	2
75	75	1
132	132	2
184	184	5
175	175	2
114	119	1
119	142	1
167	167	1
122	122	1
117	118	3
158	159	3
62	73	1
7	7	1
157	157	1
74	129	1
106	107	2
81	111	1
115	115	2
19	20	1
11	11	2
88	88	3
28	28	1
99	99	2
136	136	3
90	90	2
70	70	2
7	8	1
113	113	1
169	169	3
136	137	1
97	97	5
10	10	1
92	93	2
152	164	1
155	157	2
0	0	1
18	18	1
92	97	2
141	143	1
188	189	4
43	46	1
61	63	1
72	72	2
78	78	1
154	154	1
131	132	1
48	48	1
65	87	1
112	112	1
91	91	2
23	41	1
105	105	3
29	32	1
135	138	1
85	85	1
61	80	1
95	96	1
176	181	1
55	55	1
147	159	2
122	124	1
139	139	2
115	117	1
59	59	5
130	139	1
127	147	1
96	96	7
126	126	5
120	121	2
155	156	1
125	125	1
109	109	2
172	173	1
26	26	3
110	110	3
86	86	1
123	124	1
100	100	1
28	29	1
74	75	2
31	31	2
176	176	4
46	46	3
17	18	1
103	103	2
59	66	2
27	27	2
53	53	1
179	181	3
62	62	2
106	115	1
121	121	1
119	119	1
148	148	3
63	64	1
136	143	1
104	105	1
171	172	2
105	117	1
6	8	1
147	147	1
175	183	2
62	63	1
58	58	1
89	110	1
185	185	2
42	44	1
89	89	2
185	188	1
77	85	1
74	74	2
66	68	2
22	22	1
66	66	2
67	67	2
181	181	1
170	170	4
63	65	1
55	84	1
10	13	1
161	161	2
171	176	1
121	126	1
152	152	2
185	186	1
62	181	1
86	90	1
11	12	2
13	22	1
20	20	1
162	162	1
157	188	1
134	138	1
129	169	1
65	65	1
172	172	1
121	122	1
106	108	1
101	102	1
56	57	2
140	140	1
96	97	1
160	162	1
99	100	1
130	131	2
107	107	2
38	38	1
173	173	1
31	33	1
166	168	1
9	12	1
155	155	2
144	145	1
40	41	1
131	139	1
144	173	1
67	68	1
21	21	2
35	36	1
129	129	1
189	189	1
105	107	1
108	109	1
145	145	1
170	173	1
106	106	2
177	177	2
25	28	1
87	88	1
98	98	1
63	116	1
183	183	1
111	111	2
73	89	1
54	54	2
65	67	1
60	61	1
85	86	1
81	82	2
53	67	1
87	89	1
142	143	1
130	136	2
45	46	1
131	131	1
125	126	1
114	117	1
37	37	1
146	147	1
157	159	1
171	171	1
59	60	1
58	60	1
58	61	2
149	180	1
140	155	1
145	146	2
137	140	1
112	114	1
181	184	1
159	160	1
64	65	1
188	190	1
104	104	1
92	92	2
179	179	1
81	81	2
12	13	1
149	150	1
35	35	1
88	90	1
118	120	1
73	73	1
30	31	1
121	125	1
15	15	1
53	86	1
58	59	1
52	52	1
130	132	1
134	137	1
137	139	1
36	37	1
162	177	1
54	68	1
153	153	1
27	28	1
110	123	1
17	17	1
