147	147	3
109	109	4
101	108	1
86	135	1
122	125	1
53	53	2
26	26	2
66	90	1
3	5	4
88	88	2
170	171	1
63	63	1
158	158	1
114	114	4
171	171	2
175	175	2
80	80	1
177	181	1
108	108	3
23	24	1
138	138	1
101	102	3
18	19	1
98	98	1
123	123	1
124	124	2
2	2	2
180	180	6
29	29	2
20	24	1
27	37	1
86	86	2
27	30	1
125	125	3
174	175	1
8	8	2
64	66	1
35	37	1
185	185	5
96	111	1
142	142	3
38	38	2
7	7	6
49	49	1
103	103	2
47	47	2
105	106	2
95	109	1
165	165	4
128	128	1
96	96	3
120	120	2
95	95	1
116	119	2
154	154	2
92	135	1
67	68	1
177	180	1
170	174	1
78	120	1
178	178	1
18	18	2
159	166	1
76	76	3
15	15	3
134	134	2
59	60	1
181	181	1
129	130	2
64	101	2
33	33	5
108	111	1
124	127	1
159	164	1
95	96	1
58	60	2
127	127	1
6	7	1
129	129	1
48	48	4
60	60	2
169	174	1
184	185	1
168	168	1
72	98	1
170	170	1
124	125	1
4	7	1
172	175	1
160	160	2
155	159	1
130	130	2
148	150	2
147	186	1
182	189	2
26	27	1
19	22	2
22	22	2
41	41	3
39	39	4
168	170	2
107	107	1
138	139	1
53	58	1
174	174	2
14	19	1
38	42	1
9	10	1
115	115	2
131	140	1
156	160	1
155	155	1
171	172	2
187	187	2
68	85	1
86	87	1
162	163	1
24	24	1
89	89	5
159	159	5
187	188	1
11	11	1
178	180	1
131	131	5
123	124	1
32	34	1
36	36	2
5	5	3
113	113	2
173	174	2
136	136	2
179	179	4
80	82	1
176	178	1
74	74	4
6	6	2
132	132	1
169	169	2
97	97	1
140	140	1
27	27	2
160	166	1
4	57	1
75	75	3
37	37	2
77	80	1
122	122	1
23	23	1
34	35	3
65	110	1
146	146	1
118	118	3
128	129	1
66	67	1
83	83	1
84	84	3
79	79	2
0	0	2
66	66	1
80	83	1
122	123	1
81	83	1
55	106	1
151	151	2
151	166	2
35	35	1
2	4	1
34	34	1
85	85	2
157	158	1
80	81	1
166	184	1
159	160	2
126	126	2
87	87	1
173	175	1
85	107	1
112	125	1
160	164	1
173	173	1
188	188	1
56	58	1
19	21	2
176	180	1
105	105	2
167	167	1
157	157	1
137	137	1
158	159	1
152	152	2
115	180	1
170	186	1
73	77	1
156	157	1
81	81	1
146	149	1
57	57	3
44	44	1
87	96	1
136	138	1
83	84	1
119	119	1
14	88	1
17	20	1
105	108	1
104	114	1
155	156	1
152	153	1
88	89	1
136	178	1
44	48	1
46	47	1
87	88	1
100	102	1
31	35	1
79	81	1
190	190	1
111	112	2
158	160	1
186	186	2
10	23	1
65	66	1
111	111	1
91	92	1
172	179	1
139	154	1
163	163	1
113	119	1
83	124	1
65	65	1
136	137	1
59	61	1
132	171	1
74	77	1
123	128	1
37	39	1
61	61	2
47	178	1
26	34	1
78	79	1
17	17	1
157	159	1
120	121	1
176	177	1
98	108	1
139	139	1
161	163	1
181	188	1
164	164	1
153	153	1
77	78	1
20	39	1
115	116	1
98	99	1
99	101	1
122	128	1
53	54	1
13	13	1
90	90	1
97	120	1
107	108	1
144	144	1
133	153	1
108	120	2
172	172	2
183	186	1
172	173	2
3	6	1
84	88	1
14	33	1
97	99	1
40	76	1
11	29	1
183	185	1
21	29	1
116	116	1
73	73	2
110	113	2
164	166	1
37	41	1
121	122	1
19	19	1
27	28	1
109	110	1
68	68	1
3	3	1
17	18	1
7	8	1
120	164	1
14	16	1
45	46	1
110	110	1
46	46	1
106	107	1
