111	111	2
122	132	1
127	127	5
58	58	4
36	159	1
145	166	1
132	133	1
155	169	1
138	150	1
47	47	5
192	192	3
86	86	3
4	5	2
147	147	1
158	159	2
67	67	2
167	168	1
13	18	1
89	89	2
184	184	3
76	78	1
15	44	1
26	26	6
187	189	1
37	37	6
31	31	3
5	5	8
95	111	1
129	129	2
128	128	2
80	82	2
106	106	2
153	153	3
2	178	1
109	109	1
150	150	3
72	72	1
156	156	2
124	124	1
158	160	1
88	88	2
14	14	3
144	144	2
55	55	3
191	192	1
130	131	1
0	29	2
135	135	1
25	25	4
13	13	3
78	78	1
44	44	1
82	86	2
28	34	1
7	7	2
193	193	1
3	24	1
186	186	3
21	21	2
179	179	2
169	169	1
62	62	2
48	48	4
123	123	2
40	55	1
33	33	5
160	160	1
94	94	2
63	68	1
107	107	1
161	161	3
2	7	1
79	79	1
180	180	3
163	166	1
148	148	3
187	188	1
196	196	4
8	8	1
16	16	6
144	145	1
93	94	2
58	100	2
151	155	1
113	113	3
101	101	3
87	87	1
20	20	2
108	108	3
164	164	1
53	53	1
82	83	2
3	3	3
6	7	1
34	34	3
140	140	2
145	145	2
159	165	2
148	149	2
104	106	1
80	85	1
171	171	4
100	101	1
64	65	1
45	55	1
39	39	3
184	186	1
42	42	3
149	150	1
12	13	1
29	29	4
119	119	4
15	192	1
3	12	2
59	85	1
28	28	3
138	138	5
133	133	1
173	176	1
151	151	4
172	173	1
48	49	1
162	164	1
40	40	6
24	24	3
193	194	1
36	44	1
111	114	1
148	154	1
139	153	1
174	175	2
66	157	4
153	156	1
49	57	1
176	176	2
105	105	1
182	182	1
20	21	2
73	74	1
185	185	1
38	38	1
176	189	1
10	11	2
22	22	1
195	197	1
15	15	2
127	128	1
126	135	1
40	44	1
165	165	3
36	39	1
0	3	1
0	2	1
84	84	1
15	17	1
188	188	2
135	138	1
116	117	1
8	9	1
29	30	2
83	86	1
15	54	1
192	193	1
41	41	1
98	119	1
175	177	1
66	66	3
122	122	1
159	160	2
150	172	2
156	157	1
149	153	2
7	9	1
45	45	3
42	43	1
177	177	2
172	174	1
126	127	1
175	175	2
109	110	2
117	118	1
70	150	1
7	31	1
28	30	1
141	149	1
183	184	3
183	183	1
98	98	1
107	110	1
136	136	2
148	155	2
155	156	1
173	173	1
102	107	1
169	173	2
121	121	1
70	70	1
52	52	2
141	141	1
10	10	3
118	135	1
150	181	2
49	49	1
177	179	1
189	191	2
154	154	1
100	100	1
93	93	1
5	53	1
59	60	1
3	7	1
149	149	1
167	167	2
153	157	1
76	76	1
32	67	1
133	136	1
188	190	1
23	47	1
187	187	1
178	178	1
154	156	1
172	172	1
132	132	1
81	81	1
9	9	2
32	32	2
5	6	2
18	18	1
126	126	2
83	84	1
19	19	1
0	1	1
1	1	1
190	190	1
14	46	1
31	34	1
163	163	1
75	76	1
139	140	2
143	144	1
134	135	1
107	196	1
38	44	2
134	136	3
40	42	1
117	117	1
11	11	1
37	63	1
194	194	2
132	134	2
108	110	1
15	16	1
115	117	1
7	21	2
143	143	2
23	24	1
140	142	1
107	108	1
190	194	1
182	183	1
32	38	1
98	150	1
168	168	1
64	66	1
20	22	1
183	186	1
34	35	1
128	129	1
82	85	1
99	100	1
10	64	1
10	12	1
115	160	1
33	37	1
152	194	1
14	15	1
16	39	1
2	3	1
112	116	1
141	142	1
73	73	1
9	72	1
4	57	1
51	51	1
4	177	1
67	74	1
69	81	1
139	139	1
75	84	1
98	149	1
59	59	1
43	194	1
143	147	1
124	125	1
12	12	1
107	115	1
191	193	1
35	36	1
39	40	1
23	23	1
8	172	1
182	184	1
117	119	1
155	155	1
6	6	1
70	71	1
