26	27	1
92	92	9
39	39	5
63	63	4
98	98	2
34	35	4
52	83	1
52	52	6
36	37	1
101	102	2
94	94	5
77	78	2
40	40	6
70	100	1
33	33	7
61	61	4
44	45	2
35	35	7
24	25	2
80	80	3
42	42	8
93	95	2
73	73	8
29	29	1
58	58	4
85	91	1
73	75	1
99	100	2
26	33	1
85	85	5
50	51	1
62	62	6
93	93	3
101	101	9
46	47	2
87	87	5
88	91	1
31	32	2
89	89	9
39	40	3
84	87	1
23	38	2
22	22	2
85	86	4
69	70	1
72	73	2
57	57	7
72	72	3
88	95	2
56	56	1
48	49	2
69	88	1
92	93	1
99	99	2
71	71	5
34	73	1
82	88	1
100	100	7
60	89	3
85	89	1
75	75	3
51	51	3
60	60	2
59	59	8
36	65	1
46	46	1
52	53	1
40	41	1
68	68	5
36	40	3
24	38	1
46	55	2
34	34	3
54	54	5
47	47	1
44	44	1
66	78	2
25	25	5
67	67	6
41	41	2
41	52	1
29	30	2
24	35	1
97	98	3
58	68	1
79	79	6
70	70	3
44	59	1
91	93	1
37	65	1
74	74	7
87	88	1
66	66	3
65	65	5
48	48	5
24	24	2
50	50	3
59	82	1
43	43	6
26	65	1
54	60	1
83	84	2
95	95	5
52	81	2
80	81	1
65	66	4
53	65	1
53	56	1
37	59	1
53	68	1
90	90	4
36	36	2
72	75	2
78	78	3
27	27	3
55	55	2
76	76	2
83	83	2
93	96	1
47	48	3
37	37	2
32	32	3
55	95	1
77	77	2
95	96	4
61	80	1
45	45	6
96	96	5
69	69	3
64	67	2
97	97	1
67	68	1
88	88	6
53	53	4
91	91	1
96	98	1
25	27	1
48	50	1
38	38	2
91	92	3
26	29	2
84	84	1
57	80	1
68	83	1
69	93	1
56	58	1
35	42	1
87	98	1
43	91	1
82	82	3
30	31	1
81	91	2
68	69	1
94	97	1
31	31	1
38	70	1
51	56	1
45	46	2
35	36	1
79	84	1
60	83	1
49	87	1
39	46	1
82	95	1
76	77	1
58	59	1
37	38	1
26	26	2
81	81	1
86	87	1
64	64	1
73	74	1
72	92	1
33	36	1
77	82	1
44	51	1
93	94	1
88	96	1
75	78	1
45	52	1
20	25	2
64	65	1
45	61	1
40	58	1
102	102	1
25	35	1
41	50	1
71	95	1
100	101	1
41	42	1
61	62	1
