131	131	4
75	76	1
26	26	4
84	84	4
86	87	2
11	24	2
45	62	1
35	36	1
108	112	1
50	69	2
44	53	1
5	15	1
110	110	1
29	36	1
76	90	1
130	130	2
23	23	1
134	134	2
65	67	2
97	97	2
30	30	3
28	28	3
89	91	1
115	130	1
13	23	1
68	68	4
25	33	1
36	36	2
98	99	1
64	64	2
75	77	1
122	133	1
121	125	2
48	53	3
0	20	2
7	7	1
10	10	5
84	96	2
95	96	1
20	21	1
109	110	1
128	128	1
53	59	1
110	126	3
79	80	1
95	108	1
59	71	1
59	67	1
21	25	1
3	3	2
66	76	1
47	49	1
122	127	1
72	72	3
21	21	2
73	74	1
7	23	1
71	82	2
85	85	2
25	25	4
42	42	3
54	67	1
24	24	3
23	26	1
67	67	1
17	17	3
80	80	2
120	121	2
65	65	1
90	90	2
14	29	1
77	77	2
67	76	1
79	79	2
36	37	1
27	38	1
100	109	1
97	102	1
56	57	1
70	70	1
124	125	2
32	37	1
6	6	4
24	25	1
86	86	1
67	78	1
59	78	1
58	58	2
83	86	1
106	106	3
133	133	1
97	114	1
129	129	5
60	61	1
96	96	3
5	5	2
43	43	1
70	71	1
116	116	1
69	69	2
104	104	3
87	87	3
1	1	1
19	19	1
61	61	2
17	28	2
104	106	1
125	127	1
0	6	1
57	75	1
10	15	1
110	113	1
110	122	1
120	130	1
117	117	2
68	84	1
56	63	1
33	33	2
62	63	1
91	92	1
71	71	1
63	65	1
2	5	1
71	73	1
56	56	1
9	10	1
67	72	1
110	129	1
132	132	1
35	43	1
60	63	1
69	71	1
47	68	1
12	26	1
77	81	1
6	20	2
66	69	1
23	25	1
26	34	1
88	88	1
100	116	1
0	0	1
73	73	1
1	10	1
49	49	2
7	8	1
75	75	1
76	76	1
133	135	1
52	52	2
96	111	1
98	98	2
49	61	1
129	132	1
53	61	1
21	22	1
15	27	1
56	79	1
104	109	1
80	82	1
114	135	1
111	129	1
18	18	1
105	105	1
50	63	1
62	62	1
22	28	1
27	27	1
8	24	1
122	135	1
11	13	1
92	92	1
65	66	1
21	23	1
97	107	1
23	24	1
103	118	1
20	36	1
47	47	1
56	58	1
82	97	2
80	95	1
67	81	1
98	101	1
76	91	1
132	135	1
83	83	1
114	117	1
3	13	1
68	98	1
111	111	1
115	118	1
20	35	1
57	60	1
19	20	1
58	59	1
81	92	1
60	60	1
108	115	1
82	93	1
17	18	1
101	101	1
11	14	1
53	53	1
91	91	1
39	39	1
15	26	1
69	76	1
113	115	1
