51	86	1
36	36	6
43	44	1
23	23	3
103	103	3
91	91	4
91	92	1
84	86	1
93	93	2
98	98	3
34	58	1
68	68	6
44	45	3
38	38	3
27	28	1
41	41	6
91	102	1
75	75	3
30	30	3
74	74	4
94	95	3
22	22	3
58	65	1
67	67	5
94	94	5
31	37	1
35	35	2
23	35	1
92	92	1
38	40	1
42	42	5
49	49	2
95	95	1
69	69	3
55	55	5
30	47	1
83	83	1
81	81	3
58	64	1
102	102	2
85	85	2
100	100	1
30	56	1
33	34	1
34	36	1
62	62	1
106	106	2
64	64	1
78	84	2
70	70	3
97	99	1
21	73	1
57	59	2
61	61	4
26	27	1
72	72	4
46	46	2
83	86	1
58	68	2
91	96	1
26	26	2
45	45	1
67	68	1
25	26	1
40	40	1
62	85	1
96	96	3
86	86	2
39	39	5
92	97	2
57	71	1
33	37	1
36	37	5
54	54	1
34	34	1
79	80	1
96	97	1
90	90	6
24	24	1
87	88	4
78	79	1
60	61	1
77	91	1
104	104	1
87	87	2
53	54	1
77	77	2
88	95	2
71	71	1
92	94	2
55	56	3
89	89	5
67	97	1
84	88	2
97	97	2
37	37	4
43	43	3
54	55	1
26	57	1
28	28	1
31	31	2
78	78	3
51	52	1
73	73	9
63	98	1
57	57	5
52	52	6
25	41	2
20	20	2
60	60	2
99	99	4
49	54	2
50	52	1
51	51	3
58	58	4
44	47	1
86	87	1
63	65	1
56	89	1
55	61	1
35	36	1
101	102	1
53	53	1
68	105	3
57	65	1
46	48	2
50	50	3
82	82	2
56	56	4
51	96	1
62	65	1
76	76	3
40	42	2
31	57	1
48	48	2
79	79	3
41	49	1
23	53	1
30	50	1
21	21	1
91	99	1
99	100	1
41	42	1
55	59	1
73	74	1
78	95	1
27	27	1
32	32	2
88	90	1
30	32	1
45	84	1
33	33	1
24	31	1
76	77	1
102	103	1
98	99	1
21	22	1
29	61	1
101	101	2
54	107	1
47	48	1
47	47	2
21	51	1
87	92	1
58	59	1
38	39	1
84	84	1
65	65	1
24	46	1
47	50	2
91	100	1
89	90	1
37	46	2
97	100	1
65	76	1
55	57	1
66	66	3
80	80	3
25	30	1
33	35	1
29	29	1
52	56	1
37	95	1
78	81	1
79	97	1
48	49	2
35	50	1
83	84	1
40	43	1
40	41	1
90	93	1
52	53	1
49	51	1
66	67	1
63	64	1
77	78	1
50	51	1
44	44	1
57	75	1
39	42	1
33	59	1
71	72	1
39	43	1
85	89	1
103	104	1
