8	19	1
30	30	1
26	26	3
8	22	1
84	84	3
14	15	1
96	97	1
39	115	4
89	89	3
126	128	1
128	128	3
27	27	3
78	123	1
44	44	1
9	10	2
45	47	1
41	42	1
105	105	2
131	132	1
127	128	1
82	82	2
133	133	4
63	63	1
56	56	3
124	125	1
32	33	2
96	96	1
64	64	2
106	106	3
59	74	1
5	61	1
96	98	1
40	40	2
55	55	1
90	91	1
119	119	1
120	121	1
24	25	1
119	120	1
16	16	3
116	117	1
85	86	3
58	58	3
86	87	1
99	100	1
11	11	6
118	119	1
97	110	1
93	93	2
93	115	1
117	117	2
91	91	1
130	130	2
125	125	2
102	102	2
33	33	3
131	131	3
116	116	2
10	11	1
114	114	1
98	98	4
21	21	2
12	12	1
62	62	3
19	19	1
19	105	1
39	41	1
25	25	1
127	127	1
15	15	3
107	107	2
62	64	1
33	34	1
32	35	2
79	79	2
26	27	1
35	35	2
102	125	1
66	69	1
121	121	1
45	114	2
73	73	2
38	40	1
28	28	1
102	104	1
11	12	5
59	59	3
20	20	1
44	78	1
57	79	1
108	109	1
13	13	1
91	92	1
20	55	1
45	51	1
96	101	1
65	67	1
76	113	1
18	129	1
87	87	1
7	8	1
36	36	1
57	57	1
21	28	1
108	113	1
88	110	1
114	115	1
22	22	1
8	8	1
10	14	1
67	67	1
32	58	1
94	95	1
81	81	1
115	115	2
11	75	1
128	130	1
39	39	2
6	6	1
46	46	1
79	80	1
2	2	2
16	59	1
69	69	1
19	44	1
113	113	2
105	124	1
68	69	2
70	71	1
29	124	1
41	41	1
132	133	1
62	63	1
112	112	1
40	41	4
74	74	4
65	65	2
78	78	1
99	99	1
90	90	1
106	109	1
32	32	1
63	118	1
43	49	1
77	77	3
30	133	1
10	10	2
42	42	1
3	4	1
68	73	1
83	83	2
55	56	1
104	105	2
59	61	2
32	42	1
45	45	1
74	113	1
76	76	1
77	78	1
123	123	1
99	101	1
68	68	1
115	116	1
14	14	1
23	23	1
0	34	1
10	35	1
28	49	1
32	60	1
94	124	1
70	70	1
106	107	1
23	24	2
48	48	1
84	87	1
2	3	1
21	27	1
61	61	1
56	57	1
