99	99	2
135	135	4
68	110	1
114	114	1
75	75	9
115	116	1
41	41	2
117	118	1
40	40	1
120	120	6
153	156	1
138	138	3
151	151	4
14	15	1
87	87	5
148	149	3
62	63	3
67	80	1
86	87	1
110	110	6
138	139	2
111	111	5
80	82	1
77	84	1
148	148	4
146	146	1
46	46	1
123	139	1
67	67	5
66	73	1
108	108	3
139	139	9
149	149	1
121	121	4
141	141	6
151	152	3
45	120	1
24	24	1
84	84	8
25	28	1
116	116	4
3	3	3
130	139	2
70	70	1
134	135	2
147	147	3
128	129	2
23	23	1
50	50	5
133	133	3
114	126	3
133	134	1
157	157	4
144	144	3
102	103	2
132	132	4
140	140	2
103	103	4
150	154	3
150	150	3
119	150	1
5	25	1
5	5	3
43	43	2
134	134	2
134	141	2
113	114	5
155	156	4
38	47	1
130	151	1
82	83	1
29	30	5
100	138	1
44	45	1
106	106	4
134	148	1
31	31	2
98	153	1
102	102	1
69	70	1
18	18	1
122	124	1
63	63	1
51	52	2
11	13	1
120	121	2
98	106	1
49	49	2
155	155	5
143	143	4
33	33	1
72	72	1
54	54	1
38	38	3
92	92	4
14	14	2
109	109	3
120	142	1
12	36	1
127	128	2
13	31	1
125	125	3
92	95	1
17	17	2
119	119	1
126	126	2
7	40	1
88	88	5
111	123	1
25	27	1
25	25	3
92	114	1
111	112	1
8	9	1
108	109	1
4	4	2
121	123	3
19	37	1
123	134	1
129	129	5
110	111	1
18	19	1
104	104	4
27	28	1
15	16	1
10	11	3
7	7	1
6	13	2
115	121	1
69	69	1
82	82	2
92	94	1
130	130	4
10	10	1
0	1	2
78	119	1
50	53	3
83	84	1
89	90	1
26	44	1
142	142	2
67	68	1
123	123	1
125	153	1
124	125	3
84	94	2
69	145	1
32	32	1
107	111	2
116	125	1
52	56	1
127	142	2
134	149	1
3	135	1
127	127	2
54	79	1
7	29	1
0	0	2
13	13	1
94	94	1
4	5	2
29	29	1
156	157	1
8	8	1
80	80	1
53	63	1
120	126	1
158	158	4
52	52	3
45	45	1
126	145	1
69	71	1
116	135	1
121	137	1
119	120	1
113	113	3
150	158	1
35	35	2
11	11	2
28	29	1
52	54	1
36	36	1
96	97	1
9	10	1
122	145	1
79	79	3
17	18	1
63	81	1
26	27	1
43	132	1
120	131	2
48	48	1
34	49	1
52	53	1
94	135	1
30	43	1
82	85	1
42	42	1
26	26	1
20	37	1
48	100	1
71	71	2
97	97	1
103	143	1
111	155	1
70	83	1
85	94	1
15	15	3
78	78	1
87	119	1
9	11	1
118	118	1
7	18	1
21	21	2
68	68	1
97	129	1
106	132	1
111	141	1
100	100	2
147	149	1
81	81	1
103	104	1
74	74	1
145	146	1
118	119	2
90	90	1
69	112	1
132	133	1
2	2	1
107	112	2
99	106	1
16	16	1
19	19	2
29	90	1
139	140	2
152	157	1
37	37	2
92	112	2
18	42	1
126	141	1
47	47	1
49	50	1
25	26	1
152	152	1
53	56	1
73	151	1
108	139	1
95	97	1
105	105	3
70	71	1
66	69	1
90	139	1
50	64	1
43	46	1
125	135	1
105	106	1
112	135	1
32	35	1
113	137	1
112	116	1
144	146	1
130	131	1
39	39	1
131	131	1
115	117	1
6	6	2
118	126	1
117	144	1
109	119	1
13	156	1
89	114	1
48	52	1
149	156	1
109	110	1
84	85	1
69	114	1
128	128	1
48	129	1
151	156	1
127	129	2
114	115	1
62	62	1
39	42	1
120	141	1
140	155	1
