26	26	9
64	66	1
22	43	2
68	68	9
90	90	3
100	104	1
12	14	2
132	132	12
121	121	7
148	148	16
20	32	2
33	33	4
145	145	8
100	100	17
5	6	1
101	121	2
154	157	2
111	148	1
32	35	2
45	68	1
117	118	2
64	84	1
139	139	12
115	145	1
92	92	5
153	154	5
51	52	3
98	98	7
102	108	1
142	142	12
47	47	3
158	158	13
115	115	5
106	106	6
30	30	7
149	150	1
31	38	1
132	139	1
147	147	14
143	144	1
123	124	3
73	73	11
143	143	5
27	27	6
131	131	12
15	15	6
113	113	8
3	3	7
34	46	1
38	40	3
69	69	8
157	157	8
102	102	5
41	41	6
127	127	6
150	150	14
47	56	1
136	136	6
71	71	8
146	147	5
135	135	12
108	108	10
94	94	12
147	158	1
26	29	1
12	12	6
95	102	1
73	86	2
25	25	9
28	28	5
45	45	7
104	109	1
24	28	4
133	137	1
133	133	9
134	134	12
153	157	2
95	95	8
46	46	8
155	155	10
97	99	3
151	151	7
129	130	8
136	147	1
105	110	2
116	117	1
79	80	2
94	147	1
86	112	2
148	149	3
106	107	4
56	56	5
64	64	7
70	106	1
80	80	1
30	150	1
39	45	1
82	85	2
0	75	1
93	93	5
37	38	2
66	69	3
114	114	5
4	7	1
134	137	2
109	110	4
4	4	8
91	97	1
117	117	9
7	7	8
19	20	3
69	120	1
118	119	2
73	92	1
89	93	1
95	97	1
47	55	1
57	57	3
21	25	1
68	70	1
96	96	4
7	23	1
23	24	2
127	133	2
86	87	1
6	24	1
80	81	4
139	148	2
132	135	3
114	115	5
113	115	2
68	69	5
75	75	7
136	137	3
81	87	1
81	82	3
91	105	1
118	122	1
105	105	16
1	3	4
137	139	1
100	101	3
24	24	5
10	10	3
78	78	5
18	19	3
18	18	2
31	32	2
17	30	3
70	102	1
109	109	9
142	143	3
40	41	2
117	142	2
7	8	4
29	29	4
130	131	5
17	26	2
83	84	1
81	81	10
82	82	7
140	155	1
9	13	1
138	138	13
120	120	3
123	127	2
40	40	10
73	74	1
19	46	2
130	130	8
29	30	1
103	120	2
15	16	2
153	153	10
45	152	1
40	43	1
34	49	1
97	97	8
2	18	1
106	112	2
8	50	1
95	106	1
112	112	7
19	19	5
105	127	2
25	51	1
77	89	1
110	110	8
49	50	2
112	116	1
4	5	2
128	128	11
99	99	6
30	42	2
103	105	1
4	130	1
92	133	1
146	146	8
51	51	3
103	103	12
124	125	3
37	37	3
87	87	10
38	39	2
85	85	4
50	50	10
99	102	2
81	83	1
3	8	1
16	79	1
134	135	2
123	123	11
86	86	4
151	152	3
134	139	1
116	116	9
29	45	2
53	94	1
126	126	3
7	39	1
42	69	1
101	101	8
156	156	13
51	89	1
43	52	1
5	23	1
73	158	1
80	86	1
80	88	3
127	132	1
137	151	1
87	93	1
40	149	1
71	72	1
131	151	2
107	116	1
12	129	1
105	106	10
12	20	1
79	81	1
129	129	13
20	20	1
78	79	2
63	63	6
42	42	14
73	82	1
144	145	4
38	63	1
90	94	1
9	9	2
144	148	1
54	54	3
90	140	1
122	122	6
107	107	7
104	104	3
107	131	1
110	127	2
135	142	1
116	120	1
21	22	2
143	147	1
53	53	2
52	53	2
53	54	2
31	31	1
84	84	10
106	158	1
115	118	1
27	102	1
14	14	5
55	70	1
2	4	1
118	141	1
138	140	1
39	39	3
2	2	4
71	82	1
125	125	8
111	111	10
105	108	3
70	133	1
87	116	1
95	96	2
38	38	4
130	133	2
6	6	4
44	44	4
28	31	1
5	5	7
122	125	1
129	137	1
154	154	11
112	113	1
115	146	1
25	107	1
82	83	3
67	87	1
22	22	4
46	50	1
1	99	1
43	43	10
144	144	6
154	156	1
94	95	3
48	69	1
11	21	1
84	85	1
22	77	1
107	115	2
1	2	3
34	96	1
145	146	5
42	44	2
108	112	2
16	16	7
155	158	2
40	42	1
0	4	1
76	93	1
70	70	5
134	140	2
99	100	3
27	35	1
110	130	1
55	55	7
117	131	1
48	48	5
105	139	1
88	89	2
140	141	3
112	132	1
67	71	2
79	87	1
42	57	1
109	111	1
135	136	5
106	111	3
77	86	3
141	141	10
8	10	1
141	156	1
109	131	2
31	71	1
26	27	1
75	154	1
64	93	2
132	133	4
8	8	5
5	18	2
122	136	1
54	55	4
34	40	1
30	32	1
95	98	1
46	55	1
36	39	2
153	155	1
90	93	1
118	136	2
44	102	1
21	21	1
31	72	1
147	157	1
111	117	2
146	151	1
65	65	6
149	149	7
13	16	1
113	114	3
80	95	2
124	129	2
105	153	1
83	142	2
106	119	1
65	66	3
108	111	2
2	3	1
130	135	1
11	11	3
113	126	1
17	17	3
132	134	1
20	21	3
66	66	4
26	45	1
9	10	1
28	39	2
34	34	3
112	118	1
14	19	1
1	4	1
104	106	1
35	37	1
90	107	2
125	138	1
115	116	3
32	32	5
134	141	1
1	1	7
66	71	3
51	53	3
30	31	1
139	140	1
48	49	3
78	88	1
18	22	1
17	38	1
123	133	1
110	111	3
89	121	1
133	138	1
67	67	7
10	11	1
66	68	1
66	73	1
78	83	2
126	147	1
78	81	1
20	26	1
17	18	4
23	29	1
65	106	1
36	36	3
33	36	1
13	13	4
119	123	1
3	13	1
97	142	1
137	138	1
138	139	3
91	91	7
74	150	2
108	117	2
159	159	1
140	140	14
99	140	1
113	147	1
119	122	1
16	135	1
89	89	6
79	79	7
73	75	1
81	86	1
129	152	1
77	78	3
91	92	3
53	55	1
71	133	1
34	35	4
78	92	1
41	44	1
156	157	2
124	146	1
118	118	3
119	119	3
139	157	1
87	94	2
104	105	1
43	55	1
127	128	1
70	83	1
3	131	1
105	107	3
22	33	2
129	131	1
148	150	3
34	48	1
126	127	2
146	150	1
83	93	1
12	13	3
70	72	1
50	51	1
103	107	1
113	125	1
24	27	1
99	105	1
64	69	2
88	88	6
67	104	1
13	22	1
98	151	1
73	83	1
125	131	1
78	80	1
153	156	1
67	70	1
116	119	2
23	30	1
14	18	1
9	29	1
69	83	1
62	62	1
114	137	2
103	129	1
92	104	1
145	150	1
116	127	2
84	111	1
9	11	1
147	150	1
37	49	1
102	104	1
155	156	3
136	141	1
77	77	6
52	52	1
55	56	3
140	142	1
21	23	1
113	117	2
107	110	1
158	159	1
35	36	2
31	46	1
84	87	1
112	120	2
75	127	1
122	123	1
119	124	2
101	151	1
9	15	1
39	40	1
52	61	1
25	26	1
36	37	4
136	139	1
121	126	1
92	138	1
8	141	1
111	114	2
35	35	2
137	137	5
125	126	1
107	109	1
16	34	2
94	109	1
3	14	1
97	106	1
64	72	1
65	78	1
106	151	1
69	90	2
75	76	1
118	128	1
41	43	3
152	153	1
107	108	1
19	32	1
118	120	1
141	151	1
96	97	1
126	140	1
122	144	1
44	45	2
77	85	1
24	39	1
96	112	1
23	23	6
69	93	1
28	40	1
12	151	1
28	53	1
69	88	1
31	70	1
62	64	1
27	29	1
152	156	1
91	122	1
6	43	1
83	86	1
100	109	1
22	24	1
101	110	1
131	132	1
120	126	1
93	96	2
64	67	1
108	135	1
73	78	1
32	55	1
49	49	4
83	83	2
30	128	1
113	116	2
68	81	1
152	154	1
101	102	2
124	124	3
126	136	1
26	33	1
73	99	1
22	23	2
7	21	1
129	134	1
141	157	1
115	138	1
68	76	1
117	140	1
138	142	1
75	106	3
13	20	2
86	89	1
72	92	1
84	86	1
117	121	1
26	44	1
141	144	1
13	18	2
8	12	1
99	101	2
102	103	2
141	147	1
11	12	1
30	39	1
14	52	1
81	89	1
0	1	1
150	151	1
70	147	1
3	143	1
32	43	1
119	120	2
117	133	1
91	94	1
108	110	2
110	119	1
112	115	1
120	122	1
1	106	1
36	49	1
29	55	1
152	152	4
13	14	3
35	39	1
8	54	1
121	123	1
33	51	1
125	136	1
13	126	1
43	67	1
33	35	1
112	117	1
65	72	1
65	73	1
67	68	1
62	83	1
151	153	1
72	78	1
36	38	1
87	89	1
37	50	1
104	137	1
88	108	1
66	72	1
70	71	1
109	136	1
133	136	1
44	53	1
106	117	1
26	31	1
70	136	1
154	155	1
81	91	1
9	34	1
0	47	1
124	141	1
36	56	1
88	94	1
16	18	2
112	114	1
142	153	1
129	138	1
85	86	1
151	155	3
90	120	2
69	70	1
0	0	2
86	95	2
157	158	1
149	151	1
33	52	1
111	113	1
42	43	1
131	139	1
143	146	1
84	115	1
89	92	1
104	111	1
0	7	1
93	94	2
132	141	1
45	93	1
112	158	1
92	103	1
10	15	1
113	122	1
34	36	1
1	5	1
31	37	1
111	136	1
72	73	1
131	133	1
6	12	1
111	122	1
82	91	1
120	127	1
6	77	1
117	134	1
65	77	1
104	130	1
94	97	1
5	56	1
138	145	1
135	146	1
80	82	1
15	19	2
98	105	1
12	135	1
3	127	1
83	85	1
43	98	1
18	41	1
39	43	1
64	81	1
86	105	1
95	114	1
135	141	1
16	22	1
129	135	1
34	42	1
94	120	1
83	87	1
28	42	1
125	128	1
71	76	1
51	54	2
75	80	1
121	153	1
28	29	1
144	147	1
29	32	1
128	137	1
141	145	1
145	156	1
78	82	1
46	52	1
127	134	1
69	101	1
8	9	1
83	104	1
127	139	1
33	50	1
107	139	1
72	72	1
136	143	1
48	51	1
22	31	1
23	100	1
135	137	1
92	95	1
70	107	1
