76	85	1
35	35	5
156	156	4
199	199	6
214	214	2
199	224	2
112	112	4
182	182	5
181	181	6
62	84	2
78	84	1
153	154	1
205	205	4
69	76	1
116	166	1
94	95	2
80	80	1
51	54	1
234	234	3
102	102	1
225	245	1
175	175	4
183	183	2
53	225	1
5	5	3
188	189	1
36	36	8
106	106	3
174	174	1
112	113	5
45	45	6
15	15	6
72	72	2
32	32	6
37	37	5
229	230	2
40	40	6
11	40	1
114	116	1
203	203	6
65	65	2
50	51	1
237	240	2
10	10	3
225	225	2
11	11	4
82	83	2
206	206	1
55	57	1
18	18	3
191	191	2
219	219	1
195	195	3
180	180	2
209	209	4
172	173	1
184	184	4
233	233	4
21	22	5
46	46	4
167	228	2
10	11	1
100	100	1
200	200	2
176	179	1
240	240	1
150	150	2
213	214	1
109	116	1
43	85	1
22	23	1
236	236	3
93	93	2
45	46	2
52	52	5
96	97	2
114	115	2
208	208	2
220	221	1
101	101	2
85	85	2
8	66	1
60	60	3
247	247	1
183	184	1
25	25	2
184	185	1
41	41	4
221	221	3
172	172	4
233	237	1
1	1	2
34	34	2
82	82	2
88	88	3
226	226	6
107	107	2
171	187	1
118	119	1
92	92	1
30	30	3
213	213	3
225	227	2
59	62	1
35	36	1
224	231	1
39	39	4
76	76	1
207	207	3
4	4	3
105	154	2
69	69	1
211	213	1
144	145	1
70	70	3
87	87	3
193	197	2
171	171	1
103	103	1
99	99	2
37	178	1
8	8	5
62	62	3
6	113	2
232	232	2
58	58	2
59	60	1
227	228	2
210	214	1
12	12	2
23	26	1
42	42	3
174	175	1
78	98	1
113	113	2
114	114	5
9	45	1
32	84	1
49	63	1
49	49	1
19	23	1
68	96	1
219	220	1
165	181	1
96	96	1
78	80	1
212	212	1
75	75	3
40	84	1
192	212	2
95	97	1
238	238	2
245	246	1
206	211	1
185	197	1
33	33	1
158	158	2
148	149	2
178	178	2
46	53	1
179	180	1
231	232	1
190	190	1
202	202	2
200	224	1
8	9	1
108	108	2
152	153	1
172	174	1
113	114	1
47	71	1
26	26	3
1	6	1
6	6	6
19	19	3
50	50	3
44	52	1
173	173	2
40	85	1
21	23	1
33	85	1
211	245	1
222	222	4
187	187	3
14	38	1
2	2	3
6	7	1
77	77	1
177	177	1
185	185	4
213	231	1
238	239	1
79	79	2
118	118	1
10	23	1
53	70	1
245	245	2
186	187	2
81	81	1
223	231	1
228	229	1
193	195	1
85	99	1
247	248	1
115	115	1
170	170	1
115	116	1
76	77	1
241	242	1
21	21	1
89	89	2
224	224	2
162	162	2
233	238	1
181	210	2
236	238	2
154	154	1
109	109	1
90	90	3
20	20	5
79	81	1
3	3	1
153	153	2
116	117	1
97	103	1
24	24	1
168	168	2
117	117	1
205	206	1
184	235	1
169	193	1
71	78	1
205	231	1
144	144	2
14	30	1
65	232	1
61	111	1
230	231	1
161	165	3
90	91	1
59	59	3
194	195	2
38	39	2
167	246	1
156	220	1
207	208	1
3	153	2
197	198	1
211	212	1
214	221	1
160	160	1
216	216	1
181	182	1
212	214	1
188	188	1
222	227	1
200	209	1
178	179	2
61	62	1
163	165	1
78	78	1
242	242	1
91	158	1
56	60	2
46	52	2
169	170	2
219	221	1
30	33	1
223	224	1
209	214	1
15	16	1
32	117	1
176	223	1
25	26	1
84	84	1
228	228	2
236	239	2
110	110	4
166	166	2
161	167	1
95	95	1
31	32	1
29	29	3
67	67	1
80	81	1
92	160	1
220	220	2
6	40	1
248	248	1
19	22	1
179	205	1
168	174	1
220	235	1
239	240	1
244	244	2
61	61	2
246	246	1
215	221	1
119	119	1
47	48	1
10	38	1
29	30	1
160	162	1
198	199	2
32	33	1
231	233	1
198	198	1
86	117	1
189	218	1
157	157	1
27	33	1
55	67	1
164	177	2
6	92	1
147	147	3
71	71	3
161	162	2
91	98	1
235	235	2
41	45	1
16	17	1
14	14	1
68	68	1
24	25	1
242	243	1
56	70	1
43	43	2
187	192	1
78	99	1
83	84	1
151	161	1
226	228	1
222	226	1
5	44	1
210	231	1
217	217	2
23	24	1
209	211	1
57	57	1
27	28	1
38	173	2
23	23	2
14	16	1
88	97	1
3	92	2
160	167	1
164	164	1
43	44	2
78	176	1
27	27	1
209	241	1
171	186	1
201	201	1
196	234	1
22	22	1
27	32	1
83	83	1
195	196	1
210	220	1
8	67	1
16	16	1
86	110	1
176	176	1
84	145	1
55	55	1
169	175	1
162	163	1
44	44	1
232	237	1
87	88	1
182	203	1
68	70	1
231	231	1
218	249	1
189	191	1
27	156	1
28	28	1
54	61	1
81	82	1
67	175	1
235	237	1
91	94	1
98	99	1
11	34	1
76	90	1
187	189	1
47	47	1
244	245	1
233	235	1
190	192	1
230	230	1
26	28	1
9	10	1
94	94	1
215	215	1
161	179	1
179	186	1
175	212	1
229	235	1
