130	131	4
100	100	13
132	132	6
110	110	2
111	131	1
94	142	2
12	12	2
85	85	1
69	70	4
98	98	4
34	34	2
137	137	5
142	143	4
25	36	1
86	153	1
65	131	1
139	139	10
107	107	6
145	146	1
121	121	3
126	126	3
136	136	4
98	133	2
69	69	1
80	80	3
104	104	6
144	144	6
101	101	8
99	99	5
55	55	4
142	142	5
44	65	1
105	105	9
62	81	2
16	47	1
91	93	1
65	65	2
111	111	5
12	13	2
75	75	5
114	114	4
32	33	2
119	119	4
26	26	5
117	118	3
154	154	4
144	147	1
18	18	1
97	104	1
96	96	3
122	122	5
66	69	2
81	81	3
14	14	3
124	146	1
62	94	1
79	79	7
94	94	5
140	140	8
155	155	6
69	122	1
13	13	1
124	124	7
140	141	2
113	125	1
111	112	5
115	116	1
0	0	2
127	127	7
5	28	2
153	153	4
150	150	11
3	4	2
56	83	1
106	107	3
44	44	6
27	27	6
156	158	1
56	56	3
6	6	6
30	106	1
30	32	2
109	109	4
157	157	8
140	145	1
131	131	7
74	75	2
71	93	1
57	61	1
136	137	1
156	157	2
31	40	1
20	40	2
113	113	5
4	33	1
25	25	3
28	29	1
157	158	2
129	151	1
134	134	8
158	158	7
134	139	1
22	23	5
118	119	1
112	112	4
127	150	1
47	48	2
83	83	6
51	51	1
77	77	3
138	151	1
128	128	4
46	46	6
37	37	1
78	114	1
5	5	6
42	55	2
111	119	1
48	48	1
97	131	1
106	106	8
128	129	2
156	156	2
9	9	5
36	36	4
135	138	2
137	138	2
16	21	1
35	35	4
68	68	6
42	42	3
75	156	1
147	153	1
70	70	3
103	103	3
53	53	3
90	90	3
16	34	1
105	106	5
103	104	3
127	140	1
86	86	4
65	67	1
80	84	2
49	125	1
126	154	1
7	7	2
134	138	1
33	53	1
121	126	1
8	8	2
63	63	2
131	134	1
145	145	8
152	152	4
25	54	1
91	91	4
150	151	2
151	151	7
1	99	1
83	91	1
4	4	6
149	150	1
87	87	5
82	83	2
127	128	2
2	2	3
69	76	1
65	66	3
81	119	1
3	23	1
67	67	3
7	8	3
146	147	1
33	33	2
84	84	7
151	152	1
5	6	2
90	113	1
120	121	2
32	32	5
100	101	2
54	54	3
88	88	6
28	28	1
47	111	1
123	125	1
127	137	1
82	114	1
155	156	2
135	136	2
129	129	6
65	98	1
1	6	1
7	151	1
138	141	1
4	5	2
79	80	3
30	30	1
3	3	5
97	154	1
52	52	2
84	104	1
95	98	1
50	93	1
149	149	5
106	128	1
66	72	1
27	120	1
74	99	1
92	92	2
116	148	1
122	141	1
122	144	1
138	138	6
110	112	1
19	19	2
31	36	1
123	126	2
47	47	5
38	38	1
116	116	6
125	125	4
15	15	2
147	152	1
16	16	3
22	22	2
17	42	1
10	10	2
16	18	1
95	132	1
129	148	1
116	143	1
33	34	1
14	137	1
96	97	1
76	77	1
88	89	3
141	141	2
154	155	1
150	157	1
37	39	1
68	133	1
78	78	1
108	124	1
118	118	1
111	120	1
41	41	4
97	111	1
147	147	2
11	12	3
0	1	1
19	20	1
93	121	1
16	28	1
78	79	1
107	111	1
120	138	1
75	86	1
1	1	2
86	129	1
108	112	1
82	111	2
117	117	2
37	38	1
84	103	1
73	73	4
133	133	2
92	127	1
43	43	3
108	110	2
113	114	3
3	47	1
102	102	3
89	89	2
64	65	1
24	28	1
154	158	1
50	50	2
120	120	2
66	66	2
40	41	1
93	95	1
82	82	1
73	151	1
76	76	1
21	42	1
128	130	1
134	136	1
31	31	2
64	111	1
88	90	1
40	40	2
39	39	2
22	56	1
128	151	1
127	138	1
126	127	1
50	64	1
25	28	1
8	106	1
32	36	1
7	127	1
36	37	1
53	125	1
26	120	1
97	98	2
22	24	1
108	108	3
67	85	1
22	128	1
155	157	3
77	89	1
121	147	1
45	46	1
40	49	1
93	133	1
112	144	1
133	134	3
73	75	2
35	94	1
120	127	1
104	105	4
90	108	1
23	25	1
148	148	4
68	119	1
81	104	1
84	93	1
138	139	1
42	43	1
134	135	2
77	92	1
132	133	1
123	124	1
76	115	1
131	150	1
36	43	1
119	120	2
105	129	1
78	81	1
107	110	2
71	71	2
64	67	2
6	27	1
94	119	1
25	26	1
64	64	2
29	29	2
95	96	1
45	45	1
117	121	1
46	89	1
101	152	1
111	155	1
87	113	1
80	83	1
70	91	1
84	85	1
72	73	1
15	43	1
2	3	1
118	134	1
34	35	1
37	102	1
25	80	1
152	154	1
25	119	1
46	47	1
3	5	1
44	100	1
146	146	1
49	49	1
38	39	1
93	96	1
42	46	1
141	142	1
75	76	2
66	71	1
119	156	1
89	144	1
56	57	1
90	91	1
13	14	1
115	115	1
159	159	1
17	17	1
71	104	1
1	2	1
19	21	1
111	113	1
113	119	1
142	158	1
135	135	2
113	116	2
93	117	1
72	72	1
29	71	1
99	100	1
97	130	1
31	70	1
56	157	1
69	108	1
101	103	1
20	20	1
24	25	1
53	54	2
131	135	1
7	16	1
5	128	1
87	125	1
