54	54	11
81	85	1
129	129	6
131	131	2
74	74	6
126	126	3
51	112	2
106	107	3
12	12	6
0	2	1
25	25	3
123	123	4
26	42	1
56	56	15
71	71	9
28	89	1
1	7	2
93	93	8
84	88	1
132	132	3
92	92	9
70	70	6
115	115	5
67	67	5
125	125	7
63	63	4
7	52	1
75	98	1
107	107	4
22	22	1
9	9	1
127	128	3
44	45	4
108	108	6
27	33	3
30	39	2
65	68	1
49	49	7
105	105	8
94	94	3
76	76	5
48	48	8
86	86	4
116	116	4
56	57	2
63	95	1
69	81	3
110	112	1
60	62	1
39	39	5
119	119	7
78	78	8
6	6	6
96	96	6
69	69	5
22	27	2
85	95	1
108	109	3
77	78	5
34	40	1
112	112	6
28	29	1
84	84	3
50	50	7
102	102	5
114	114	7
13	13	9
32	46	1
95	95	10
1	1	7
93	108	3
124	125	1
81	81	6
70	89	1
78	79	3
109	109	3
52	52	9
53	53	10
22	28	1
28	28	7
83	83	9
122	124	1
4	5	1
30	31	3
120	120	13
3	3	3
5	5	5
121	121	7
104	104	4
58	63	1
80	80	2
62	62	7
79	79	6
127	127	8
110	110	1
118	118	8
30	30	4
58	58	4
15	55	1
12	13	1
58	74	2
89	95	1
14	14	1
97	99	1
29	32	2
58	64	2
77	77	3
86	87	4
10	54	1
17	18	2
10	10	2
64	65	2
112	117	1
38	38	3
81	82	3
96	98	3
97	97	2
59	62	1
14	16	1
103	103	6
127	129	1
30	69	1
73	73	5
19	21	1
7	7	2
104	107	1
69	71	1
75	78	1
41	41	7
41	42	4
65	67	2
60	60	3
14	18	1
93	94	1
87	95	1
46	46	7
34	34	1
33	81	1
0	0	3
68	79	1
75	76	2
24	40	1
42	42	6
43	43	1
115	125	3
98	98	1
69	70	3
68	106	1
16	42	1
77	79	1
45	46	2
2	2	5
90	90	3
101	101	3
72	72	4
82	89	2
43	46	1
68	69	5
112	113	2
110	111	2
43	83	1
68	68	3
84	85	1
61	61	2
117	117	5
95	97	1
106	106	5
63	76	1
111	112	2
26	26	3
23	24	2
27	31	1
64	64	9
11	11	1
100	100	5
83	85	2
19	33	1
82	85	1
113	113	10
66	98	2
111	111	3
51	51	6
99	99	4
82	82	2
123	124	3
40	42	1
113	114	1
102	103	1
6	48	1
50	51	1
49	50	1
118	119	1
87	88	2
79	85	2
108	110	1
46	47	2
47	47	7
89	90	1
88	88	2
96	102	1
94	113	1
69	76	1
80	81	2
39	40	1
23	23	6
25	26	2
19	22	2
32	40	1
117	118	1
62	63	1
85	85	4
96	97	1
65	73	2
75	75	1
129	130	2
50	52	1
65	66	1
131	132	1
27	27	6
85	86	3
20	20	2
57	62	1
27	28	2
59	60	1
128	130	2
32	70	1
33	33	2
118	132	2
54	58	1
40	41	1
59	71	1
32	32	1
55	55	2
44	44	1
67	81	2
17	21	1
0	1	1
128	129	1
57	57	6
57	104	1
115	116	3
85	88	3
89	92	1
88	89	2
15	15	2
18	18	1
75	77	1
10	27	1
133	133	1
44	46	2
91	91	2
40	40	2
33	34	1
124	124	2
122	122	3
92	93	1
132	133	3
109	111	3
66	71	1
85	89	1
8	11	1
90	91	2
19	19	3
52	53	1
4	4	2
100	101	1
111	131	1
128	128	2
31	31	3
24	26	1
43	44	1
38	39	2
56	122	1
65	65	3
24	24	4
67	68	1
129	131	1
54	56	1
121	124	1
16	16	4
116	117	1
27	29	1
9	10	2
61	62	1
98	103	1
54	55	1
112	116	1
94	96	1
97	98	2
111	114	1
81	83	1
59	61	2
45	45	1
69	94	1
90	113	1
53	54	1
0	112	1
80	106	1
130	130	2
87	87	1
33	80	1
131	133	1
43	45	1
66	66	1
109	110	1
82	86	1
65	76	1
70	71	1
22	23	1
42	45	1
1	2	1
43	47	1
42	57	1
94	115	1
94	95	1
50	117	1
86	113	1
44	56	1
91	100	1
110	122	1
120	121	1
9	22	1
58	61	1
10	22	1
38	40	1
101	104	1
62	72	1
93	114	1
94	124	1
63	77	1
22	24	1
31	32	1
29	29	1
61	75	1
