40	40	11
166	167	1
51	53	1
24	24	1
117	132	1
48	48	3
155	155	3
91	91	2
138	139	2
130	130	4
74	74	2
85	85	3
115	118	1
39	45	1
5	6	4
88	90	1
66	66	4
15	43	1
167	167	3
20	20	3
122	153	2
47	47	4
11	11	4
136	154	1
15	15	4
163	163	2
7	7	5
49	49	1
37	37	6
5	5	4
141	142	4
112	130	1
45	49	2
106	106	3
20	23	1
33	34	3
108	109	1
71	72	2
125	131	1
16	16	3
145	157	1
135	147	1
70	70	2
109	110	1
42	46	1
137	138	2
139	142	2
165	165	5
87	105	1
107	107	1
147	147	2
50	51	3
100	100	2
166	166	7
110	110	3
2	3	4
164	166	1
131	131	2
163	165	1
144	151	1
41	41	2
161	161	2
64	78	3
4	4	1
144	144	4
56	56	3
23	63	1
95	95	1
101	102	1
76	108	1
170	170	2
58	58	1
133	133	6
22	22	6
138	138	6
23	23	4
149	149	1
154	154	5
162	162	2
120	121	1
6	6	1
126	126	5
169	169	1
130	137	1
144	147	1
8	11	1
140	141	3
6	7	3
164	164	3
48	58	1
140	142	1
98	99	1
10	10	3
72	73	2
146	148	1
12	12	1
1	2	2
154	155	4
14	15	5
155	156	1
159	161	1
139	141	2
142	144	2
102	102	2
142	165	1
36	36	4
86	102	2
142	146	2
69	99	1
8	8	4
162	163	1
14	14	1
146	146	3
151	152	1
16	27	1
153	154	3
120	120	2
99	100	1
129	130	1
139	139	2
84	86	1
55	101	2
156	165	1
169	170	1
1	4	2
87	87	2
55	55	3
38	39	2
111	111	2
11	12	2
13	13	3
168	168	4
34	88	1
161	166	1
53	53	2
72	93	2
76	76	1
48	49	3
153	153	3
73	94	1
46	46	4
137	137	6
87	104	1
148	148	2
163	166	1
83	83	1
97	99	1
25	26	1
113	114	2
1	152	1
112	113	1
105	105	2
77	94	1
70	99	1
4	11	1
16	20	2
167	168	1
134	135	1
38	46	1
136	137	1
101	101	2
51	139	1
151	151	2
22	25	1
44	45	2
106	107	1
96	102	2
64	67	1
45	50	1
118	118	1
102	103	1
137	139	1
124	124	3
80	80	1
132	132	3
139	147	1
17	17	1
44	44	2
113	113	1
84	85	1
142	142	2
2	6	1
57	57	3
18	18	3
75	76	2
147	166	1
39	39	1
25	25	2
149	168	2
98	98	1
99	110	1
41	42	1
125	126	1
36	37	1
114	114	1
58	65	2
73	89	1
26	26	1
94	94	2
12	44	1
39	42	1
53	54	1
92	94	1
25	36	1
79	79	1
77	77	2
51	51	2
78	121	1
15	16	1
112	125	1
0	0	2
122	128	1
88	89	1
159	159	2
38	47	1
5	7	2
103	104	1
157	157	2
50	50	2
90	90	1
3	13	1
33	33	3
152	152	2
21	22	2
9	10	1
67	70	1
142	147	1
72	72	2
126	145	1
112	112	3
115	115	2
119	129	1
54	54	2
157	158	1
18	20	1
2	2	3
81	81	1
109	109	3
69	69	1
159	160	2
7	8	2
121	121	1
22	23	1
77	120	1
156	162	1
35	51	1
21	21	3
144	146	1
1	1	2
100	101	1
158	158	1
49	50	2
128	153	1
145	146	1
127	127	1
28	28	1
140	140	1
135	135	1
148	166	1
86	91	1
153	156	1
53	56	1
24	64	1
15	47	1
150	150	2
8	13	1
28	39	1
152	153	1
160	161	1
86	87	1
27	27	1
99	99	1
3	3	2
136	136	2
131	132	1
12	16	1
160	160	1
18	22	1
88	88	2
78	79	1
10	55	1
19	105	1
81	83	1
125	142	1
102	104	1
128	128	1
79	82	1
85	87	1
112	114	1
142	145	1
87	88	1
73	73	1
101	104	1
0	1	1
35	35	1
13	150	1
25	57	2
71	71	1
9	9	1
