144	146	1
94	94	4
50	50	3
73	73	5
82	83	1
110	110	3
105	106	3
29	29	2
65	65	1
118	119	1
139	139	5
17	17	1
137	137	2
154	154	3
30	50	1
22	22	3
86	86	1
39	45	1
62	62	1
106	106	3
71	71	4
30	30	4
40	40	2
2	2	1
53	54	1
114	114	4
131	131	2
81	83	2
105	105	5
75	75	3
153	153	2
147	148	2
29	38	1
77	77	2
6	6	1
6	23	1
89	89	1
139	142	3
85	86	3
7	7	3
34	34	1
1	1	2
92	92	5
73	75	1
36	121	1
127	127	3
157	157	3
70	70	6
4	4	2
150	151	3
99	106	3
128	151	1
41	42	2
17	26	1
145	147	2
110	111	1
19	19	2
12	66	1
101	101	3
23	71	1
25	46	2
143	143	1
67	104	1
68	68	5
122	122	4
140	140	1
143	150	1
135	135	4
130	133	1
52	53	1
47	47	1
76	84	1
5	5	2
23	23	1
31	43	1
78	78	5
112	116	1
123	127	1
140	141	2
155	157	1
144	144	5
106	129	1
46	46	1
22	23	2
76	76	1
32	32	1
96	96	2
97	97	4
66	66	1
90	91	1
99	100	1
87	90	1
106	145	1
113	120	1
112	120	3
36	36	1
111	111	2
79	79	1
12	13	1
63	64	1
11	12	1
24	24	2
31	31	4
87	87	1
9	9	4
25	25	2
121	122	1
119	119	2
150	150	2
65	66	1
39	39	2
14	15	3
119	120	1
138	139	2
151	151	5
107	107	1
107	116	1
27	28	1
21	21	3
84	84	1
19	83	1
130	130	1
97	124	1
146	146	1
62	64	1
107	148	1
3	3	2
128	129	2
91	120	1
147	147	1
155	156	3
23	26	1
116	124	1
95	95	2
148	148	1
101	131	1
98	98	3
127	135	1
85	85	1
88	91	1
8	8	2
52	68	1
117	118	1
130	131	3
142	142	2
93	132	2
44	44	1
123	129	1
155	155	2
83	83	1
51	53	1
117	117	1
121	123	2
80	80	2
54	54	1
92	106	1
115	115	1
133	133	3
43	43	3
156	156	4
138	138	2
120	123	1
100	100	2
137	149	1
21	138	1
132	133	2
99	99	2
82	94	1
144	145	1
145	148	1
82	82	1
116	116	1
1	2	1
112	112	2
126	127	1
53	53	1
117	121	2
139	143	1
134	146	1
120	120	1
95	158	1
7	54	1
81	85	1
52	54	1
97	98	1
108	108	2
69	140	1
87	92	1
12	12	4
102	102	1
66	71	1
2	27	1
93	93	1
67	67	2
83	84	1
18	27	1
8	9	1
69	71	1
96	111	1
149	149	3
37	37	1
129	129	1
132	132	1
90	90	1
7	8	1
126	126	1
88	107	1
55	55	2
43	72	1
66	92	1
81	81	1
71	72	1
123	131	1
98	155	1
48	48	1
43	44	1
56	64	1
152	152	1
42	46	1
56	58	1
134	135	1
76	82	1
76	77	1
135	138	1
52	52	1
33	33	1
98	100	1
