21	21	9
39	39	7
23	23	4
65	67	1
22	22	7
57	57	5
49	49	1
44	44	10
48	48	4
58	58	5
95	95	7
60	60	8
82	83	2
108	108	2
87	87	5
57	72	2
134	134	7
59	60	3
96	96	5
70	70	7
68	68	10
46	46	7
57	59	1
77	77	7
119	119	9
131	133	3
102	103	1
79	96	2
67	67	2
11	11	7
14	14	8
8	8	4
73	73	6
27	27	4
37	37	4
49	50	1
1	1	11
91	91	5
28	29	2
126	126	7
94	94	11
17	18	3
36	37	4
84	86	2
79	79	8
20	21	3
13	13	2
58	80	2
97	98	2
55	55	6
70	72	1
103	104	3
33	33	9
10	10	4
78	78	12
27	28	1
76	76	5
78	82	1
90	90	3
89	89	3
74	74	10
130	130	1
111	116	2
98	98	12
1	19	1
117	117	13
19	46	1
63	63	9
47	47	10
62	64	1
6	8	1
113	113	5
9	9	2
12	12	7
105	105	5
17	17	6
90	109	1
72	116	1
65	65	6
34	34	6
104	104	6
14	16	1
41	41	4
61	61	6
126	130	2
121	123	1
111	111	9
109	109	2
59	59	6
75	75	6
15	15	8
100	122	2
91	128	1
118	118	7
28	49	1
15	16	3
42	42	3
3	3	7
24	27	1
81	97	1
6	6	3
127	127	1
83	85	3
0	0	8
16	16	7
129	129	7
43	43	5
76	77	4
110	111	3
84	110	1
125	126	1
64	64	6
115	115	5
88	92	1
26	40	2
11	13	2
31	31	6
22	35	2
109	133	2
73	112	1
56	56	4
69	73	1
94	111	3
128	128	3
97	97	4
57	83	1
19	20	1
41	42	1
104	115	1
51	93	1
22	23	2
38	43	1
46	47	5
106	108	2
31	101	1
133	133	4
4	4	6
25	31	2
30	123	2
2	3	2
71	72	1
125	125	6
8	18	2
30	31	4
67	68	4
120	121	2
128	131	1
120	120	9
93	94	1
19	19	7
89	114	1
122	123	1
124	125	3
0	73	2
114	114	6
40	43	1
116	116	7
99	99	9
9	10	4
66	74	1
98	99	1
15	30	1
64	74	1
43	47	1
97	110	1
39	48	1
63	64	1
1	5	1
69	69	8
57	58	4
71	71	4
72	75	1
107	109	2
16	27	1
45	45	5
75	125	1
16	68	1
101	101	1
48	50	1
64	65	1
38	38	6
102	102	3
86	86	7
44	65	2
5	5	7
130	134	1
102	105	2
35	36	4
86	88	1
113	114	1
7	7	4
83	83	8
26	26	5
86	87	1
2	2	6
50	50	1
18	19	2
101	102	3
24	24	3
81	81	4
101	133	1
124	124	3
80	80	1
106	106	1
45	46	3
108	130	1
31	32	3
14	70	1
85	86	3
100	102	1
100	106	2
72	73	1
93	111	1
116	125	1
5	6	2
34	35	2
73	74	4
23	27	1
36	44	1
72	72	3
6	12	1
92	92	3
35	122	1
57	84	1
21	23	1
111	125	1
84	84	2
32	32	4
65	86	1
118	119	4
23	25	2
14	15	2
4	10	2
117	118	2
4	5	4
7	8	1
34	36	1
108	111	1
37	38	1
18	47	1
85	85	5
16	35	1
18	33	1
132	133	1
12	13	2
24	26	2
47	83	1
57	73	1
36	36	2
13	15	2
1	2	3
35	35	5
8	36	1
100	100	3
107	107	5
39	40	3
88	129	1
84	85	3
112	112	6
93	93	5
3	6	1
18	18	4
7	29	1
6	45	1
109	132	2
55	103	1
88	88	2
66	66	12
121	121	3
82	98	1
24	38	1
4	26	2
112	123	2
114	116	1
82	82	4
123	123	8
20	20	5
61	62	1
99	100	1
95	97	2
20	22	1
110	110	4
82	84	1
95	96	3
16	44	1
128	132	1
114	115	1
10	18	1
94	95	3
16	17	2
40	40	4
108	116	1
91	92	2
30	30	1
18	20	1
62	62	3
92	93	1
117	119	1
97	100	1
64	129	1
8	9	1
131	131	7
62	118	1
48	49	1
40	41	3
6	19	1
44	61	1
111	112	3
35	37	1
59	85	1
43	48	1
77	78	2
102	129	1
88	125	1
7	88	1
121	122	1
111	133	2
127	128	1
74	75	1
79	80	2
51	54	1
120	125	2
83	93	1
56	57	1
62	63	1
90	92	2
16	57	2
122	122	2
42	43	2
90	91	1
11	18	1
24	25	2
26	27	1
27	57	1
86	120	1
31	40	1
27	34	1
47	59	1
20	47	2
130	132	1
116	134	1
83	84	1
63	96	1
19	36	1
73	113	1
27	30	1
17	45	1
105	106	1
38	39	2
57	71	1
92	122	1
131	132	2
104	106	1
13	14	1
112	113	1
113	123	2
16	45	1
33	34	2
4	6	1
21	22	1
58	81	1
80	101	1
82	93	1
6	7	1
75	76	1
60	95	1
54	55	2
129	131	1
60	101	1
96	97	1
103	103	2
107	108	2
3	4	1
34	77	1
99	101	1
10	46	1
118	120	1
88	90	1
99	104	1
100	101	1
109	127	1
17	102	1
97	99	1
107	110	1
45	47	1
89	92	1
27	29	1
82	85	1
34	57	1
87	93	1
101	115	1
105	109	2
4	34	1
61	72	1
19	22	1
41	43	1
2	64	1
12	33	1
107	116	1
123	131	1
26	31	1
4	16	1
109	134	1
80	82	1
26	29	1
25	26	1
20	27	1
109	122	1
9	28	1
103	105	1
