66	66	2
241	241	2
63	64	1
8	210	1
233	243	2
203	203	1
9	9	3
7	7	3
67	67	2
83	83	4
136	197	1
172	239	2
139	140	1
27	27	5
152	153	1
220	220	2
165	183	1
185	186	2
65	74	3
21	21	6
151	151	3
15	15	5
74	74	2
214	214	1
158	158	2
109	109	2
0	16	1
55	55	2
215	215	2
1	1	4
54	54	5
88	101	1
176	178	2
75	120	2
57	57	2
179	215	1
49	49	2
11	11	5
25	25	3
0	0	1
204	204	2
183	210	1
163	163	1
50	51	1
72	167	1
205	206	1
202	203	1
140	142	1
146	146	4
161	161	1
11	231	1
175	175	3
101	109	1
211	212	1
201	201	3
115	115	2
124	154	1
36	36	1
50	81	2
162	162	3
6	6	4
155	156	1
137	155	1
63	63	1
187	187	3
129	129	1
225	226	2
64	75	1
73	73	3
168	168	7
225	225	1
124	148	1
135	135	1
33	33	2
124	126	1
161	188	1
65	65	5
17	18	2
9	24	1
70	70	3
85	85	2
236	236	3
47	48	1
193	193	2
239	239	2
79	79	3
44	44	1
124	143	1
231	231	1
220	224	1
170	170	4
159	164	1
126	126	3
159	161	3
140	141	1
7	10	1
102	113	2
5	7	1
92	92	2
26	26	3
189	189	1
99	99	1
167	168	1
52	52	1
156	157	1
191	191	3
46	47	2
20	24	1
170	178	1
2	14	1
159	178	1
200	206	1
53	53	2
89	89	1
43	43	3
125	126	2
98	99	1
229	230	1
11	31	1
61	64	1
80	81	1
208	208	3
127	127	2
29	30	1
222	222	4
16	16	1
35	35	1
101	158	1
8	8	1
71	72	1
174	174	2
165	182	1
11	24	1
117	124	1
69	69	2
118	119	2
26	32	2
118	122	1
178	220	1
219	219	3
186	187	1
138	142	1
135	158	2
104	104	2
10	10	3
131	131	2
148	149	1
28	29	1
57	58	1
128	135	1
72	73	1
232	232	1
148	148	1
172	173	1
139	141	1
68	68	2
82	83	1
76	90	1
40	41	1
34	34	1
226	230	1
172	172	1
28	28	2
137	175	1
23	23	2
2	2	1
72	72	3
116	120	1
31	31	3
176	176	1
51	52	3
107	108	4
3	3	3
199	199	3
154	154	1
213	216	1
121	121	1
171	171	4
37	37	2
156	156	1
12	13	1
230	231	1
42	68	1
61	61	1
123	123	1
52	53	1
227	227	2
119	119	4
71	71	2
22	22	1
242	242	3
12	38	1
39	43	1
39	40	2
122	123	1
166	166	1
128	128	3
167	167	1
58	58	1
107	107	2
77	79	1
49	81	1
32	32	2
45	45	2
101	101	2
229	229	2
50	50	2
136	198	2
18	18	2
146	158	1
60	60	1
47	47	1
24	25	2
98	98	1
39	64	1
12	12	1
202	202	1
86	86	1
179	180	1
84	85	3
204	206	2
240	241	1
144	181	1
33	35	1
40	40	1
149	149	2
44	47	1
45	46	3
56	57	1
35	36	1
216	216	1
29	29	2
197	211	1
13	13	1
105	112	2
34	51	1
159	160	2
59	59	1
115	162	1
82	82	1
154	156	2
21	24	1
33	55	1
29	45	1
29	32	2
138	141	1
34	36	1
150	151	1
120	120	1
65	70	1
55	61	1
64	64	1
137	138	1
182	184	1
104	123	1
225	237	1
106	108	1
23	24	1
59	60	1
161	199	1
239	240	1
164	164	2
51	51	1
217	218	1
204	205	1
219	222	1
157	221	1
175	177	1
145	146	1
140	140	1
62	62	1
143	143	2
39	39	2
195	195	1
136	136	1
154	157	1
114	114	2
155	157	1
26	27	1
77	78	1
157	157	1
78	78	1
191	220	1
21	23	1
21	22	1
233	242	1
108	108	1
37	38	1
218	218	1
18	20	1
158	159	1
239	241	1
233	233	1
7	8	1
80	80	1
81	81	1
42	42	1
198	198	1
200	200	1
137	156	1
182	182	1
74	106	1
174	178	1
117	117	1
4	5	1
43	53	1
14	15	1
116	116	1
72	133	1
217	217	1
