63	63	3
114	114	2
5	5	1
115	115	4
12	12	5
31	32	1
84	84	8
34	34	2
25	25	3
43	43	2
29	29	1
65	65	4
108	108	1
123	124	2
11	11	1
58	58	2
83	85	3
96	96	1
78	78	3
69	107	1
30	30	4
104	104	3
72	72	5
15	78	1
76	76	6
113	113	2
127	127	1
12	13	2
85	85	1
67	67	3
65	69	1
123	123	2
105	105	4
4	5	1
19	21	1
121	121	3
64	64	3
79	79	6
129	129	2
82	85	1
81	81	1
18	21	2
3	27	1
26	26	4
59	59	3
77	78	3
88	88	6
70	70	5
124	125	1
104	112	1
92	92	4
62	62	3
9	9	1
97	97	7
105	120	1
61	61	6
103	104	1
86	87	1
9	78	1
69	69	4
17	24	2
60	60	3
132	132	1
44	70	1
102	102	2
13	13	3
87	87	9
47	50	2
75	75	6
94	95	1
10	10	1
106	110	1
4	4	1
66	66	4
9	10	5
21	23	1
25	33	1
111	111	3
31	52	1
84	85	2
77	77	3
19	19	5
9	12	1
117	117	1
131	131	3
122	122	3
31	31	2
125	125	2
3	3	3
16	16	1
28	28	3
86	86	2
50	75	1
16	17	2
67	68	1
56	56	2
15	15	2
37	68	1
95	95	2
30	31	3
57	64	1
48	71	1
112	112	5
26	53	1
94	94	1
7	7	4
29	53	1
64	69	1
17	17	1
99	99	2
57	60	1
82	84	1
6	22	1
24	24	3
33	34	2
114	115	1
133	133	3
37	38	2
36	37	2
126	126	1
127	132	1
72	74	1
107	107	1
49	49	2
106	106	1
49	50	2
36	36	1
22	23	1
0	3	1
44	45	2
33	36	1
88	114	1
24	28	1
75	76	1
52	52	2
101	101	3
20	21	1
80	80	3
79	80	2
119	120	1
22	35	1
68	69	4
1	3	1
82	82	5
83	84	3
8	9	1
54	58	1
50	50	2
89	121	1
24	25	2
128	129	3
82	86	3
21	32	1
127	129	3
23	24	1
37	37	3
71	71	4
44	44	2
98	99	1
74	74	2
119	119	1
11	12	1
89	91	2
57	59	1
134	134	1
65	68	1
13	14	1
54	57	1
114	122	1
119	122	1
93	93	2
130	130	1
38	38	1
62	82	1
42	43	2
36	69	1
62	81	2
106	108	2
20	20	1
110	110	1
83	83	1
116	116	1
107	108	1
112	114	1
8	8	2
69	79	1
58	59	1
29	115	1
20	24	1
122	123	1
52	53	2
92	93	1
109	110	1
20	36	1
68	90	1
64	65	1
14	14	2
71	80	1
81	104	1
27	28	2
60	68	1
35	36	1
30	43	1
101	126	1
96	97	1
2	2	1
42	42	1
27	27	2
45	49	1
1	1	1
2	3	2
115	126	1
44	78	1
55	56	1
64	67	1
54	54	1
44	58	1
6	6	1
21	21	1
120	120	1
35	35	1
