175	176	1
47	47	4
10	10	5
58	79	1
130	130	5
36	36	2
155	156	1
85	85	5
164	165	2
148	190	1
178	178	7
144	145	1
23	23	2
136	136	5
187	188	4
12	19	1
86	86	1
119	160	1
77	78	2
183	184	1
12	15	1
135	135	2
174	175	2
76	76	2
155	155	5
101	104	1
115	141	1
55	55	10
8	8	3
185	185	6
186	186	2
38	38	6
171	172	3
26	40	1
148	149	3
7	40	1
169	169	2
152	152	3
145	146	5
129	133	1
125	125	9
184	185	1
113	146	1
82	83	5
156	156	2
3	3	2
187	187	1
170	170	5
124	124	3
56	56	2
121	121	4
96	96	4
80	80	6
64	101	1
74	74	6
149	150	2
4	4	2
129	129	4
141	141	1
160	161	1
128	128	2
154	157	1
14	14	6
54	54	3
0	48	1
154	155	4
58	60	1
102	103	1
127	127	4
20	21	1
120	121	1
28	28	1
34	34	1
26	53	1
130	133	1
37	37	1
55	63	1
120	120	4
2	2	3
106	106	2
90	90	3
103	105	3
7	7	4
104	105	1
79	81	3
88	88	2
59	61	1
160	160	3
188	188	4
117	137	1
77	77	3
142	143	2
38	39	2
18	19	1
105	105	4
52	52	1
165	165	3
89	89	2
81	81	4
107	135	2
174	177	1
89	90	2
167	167	1
101	101	5
92	96	3
183	186	1
41	41	4
184	186	1
18	18	3
78	79	1
25	25	4
124	125	1
59	60	1
120	147	1
83	84	2
70	71	1
153	153	5
40	40	1
113	113	5
40	42	2
167	168	1
177	182	1
79	79	2
27	28	1
94	98	1
113	140	1
75	75	3
136	137	2
189	189	2
0	1	1
127	128	2
5	5	1
113	115	1
148	148	1
58	58	3
184	184	4
141	144	2
34	35	2
178	180	1
15	19	1
13	13	2
177	177	6
111	113	2
170	172	1
32	33	1
65	66	1
18	104	2
95	96	2
47	89	1
68	74	2
28	31	3
98	99	2
91	93	2
100	101	1
168	176	1
6	6	1
19	21	2
12	12	3
17	17	4
67	67	1
182	184	1
95	95	2
20	20	1
42	42	1
46	46	1
107	107	2
84	100	1
54	109	1
159	159	1
167	174	1
112	131	1
172	175	1
31	31	2
43	43	3
81	82	1
106	109	1
66	67	1
123	153	2
183	183	4
60	60	2
122	155	2
133	136	1
123	123	2
109	109	4
139	139	1
152	154	1
145	145	1
71	71	2
152	153	1
19	19	2
54	55	1
45	45	1
57	99	1
118	118	3
4	5	2
59	63	1
121	155	1
8	9	1
21	21	2
65	101	2
94	94	3
133	134	1
146	190	1
113	114	2
168	170	1
183	190	1
102	107	1
73	73	2
96	97	1
138	138	5
11	12	2
146	146	1
110	146	2
154	154	1
35	36	1
13	15	1
114	115	1
116	118	1
97	97	1
47	48	4
155	160	2
76	77	2
122	122	2
107	108	1
30	31	2
75	76	1
149	149	2
140	140	2
102	102	2
116	116	1
10	12	1
6	39	1
91	91	1
168	169	1
162	162	1
173	174	2
10	11	2
142	142	1
128	151	1
11	11	1
41	42	1
68	68	1
63	63	3
32	32	1
140	141	2
179	180	1
112	112	1
28	33	1
185	186	1
53	54	4
1	1	1
59	88	1
13	21	1
119	119	1
157	158	1
134	136	1
19	20	1
151	154	1
14	20	1
144	144	1
157	157	4
31	45	1
131	133	1
5	6	1
42	89	2
151	151	4
182	182	2
55	87	1
16	26	2
85	87	1
48	48	2
100	100	1
53	53	2
167	175	1
103	103	1
153	184	1
158	158	1
166	166	2
176	177	1
163	165	1
111	112	1
112	114	1
28	29	2
72	73	1
126	127	2
43	44	1
0	0	1
82	82	2
111	125	2
91	92	1
57	57	3
25	55	1
168	168	1
142	169	1
39	39	2
22	22	1
5	7	1
9	9	1
104	104	2
20	22	1
179	182	1
83	83	2
137	138	1
66	66	1
143	144	2
70	72	1
35	35	1
108	108	2
117	117	1
166	178	1
119	120	1
114	114	1
62	62	1
125	126	1
135	137	1
115	119	1
48	86	1
92	92	1
110	154	1
116	117	1
61	65	1
134	135	1
56	128	1
16	27	1
55	56	1
1	2	1
175	175	2
173	177	1
153	154	1
72	74	1
57	68	1
84	85	1
173	173	1
147	147	1
67	93	1
174	174	1
72	128	1
109	110	1
4	6	1
59	59	1
172	173	1
24	24	2
87	87	2
94	95	1
131	131	1
131	134	1
159	163	1
22	34	1
19	190	1
23	48	1
148	163	1
10	13	1
141	145	1
119	147	1
133	135	1
94	96	1
105	190	1
