146	147	4
160	160	5
13	28	3
176	176	6
173	174	3
193	193	3
146	146	4
38	68	1
99	99	7
41	42	1
167	168	2
143	143	6
120	139	2
182	182	6
106	106	5
14	14	6
169	169	7
39	40	4
181	181	3
194	194	5
131	132	2
157	157	4
130	130	6
184	184	6
150	150	6
197	197	8
59	61	1
41	41	4
113	113	2
85	85	3
72	72	8
51	135	2
155	155	5
54	56	1
19	20	4
55	56	1
51	51	5
26	26	2
73	73	6
195	195	10
161	164	1
162	165	2
30	30	5
161	162	2
23	23	4
53	53	7
49	49	5
174	174	4
139	139	3
17	17	3
33	34	2
70	83	1
152	153	2
189	190	3
134	136	1
52	52	8
190	192	1
168	168	5
46	46	7
52	183	1
133	133	7
147	147	4
162	163	2
23	46	4
9	9	7
9	57	1
32	32	7
37	37	11
45	45	5
38	38	8
3	3	8
34	118	1
135	135	6
153	153	6
24	26	1
30	39	2
189	189	4
30	34	1
185	185	11
142	143	1
6	6	5
48	48	9
114	114	1
155	156	1
40	74	1
179	179	3
183	183	6
29	194	1
22	22	2
69	69	5
152	152	2
56	56	3
2	4	1
2	179	3
158	158	5
1	6	1
6	15	1
10	11	2
185	186	3
142	171	1
187	188	3
5	6	2
140	140	11
178	178	4
40	65	2
26	27	2
138	138	8
40	41	3
70	70	2
7	7	3
24	24	7
191	191	1
176	177	3
13	52	1
128	128	3
47	47	9
25	25	4
132	132	5
2	2	4
100	101	3
127	127	4
129	142	1
172	174	1
100	100	5
124	124	5
36	36	4
195	196	1
150	154	3
101	150	1
121	121	3
171	171	6
87	87	5
115	115	3
109	109	1
166	170	2
106	107	2
9	15	1
95	95	3
140	141	2
102	103	4
143	144	3
154	154	3
119	119	4
0	8	1
83	83	3
5	5	11
16	16	6
14	21	1
55	62	1
2	3	2
15	15	6
129	129	7
60	60	2
123	124	1
99	100	2
31	31	11
71	71	4
139	141	2
36	37	2
107	107	3
149	150	4
9	10	3
13	17	2
72	73	2
75	75	1
42	42	6
19	19	2
133	183	2
36	38	1
4	4	11
162	162	2
180	180	2
20	20	2
110	110	4
66	66	4
192	192	2
174	178	1
1	1	5
43	195	3
79	80	3
58	58	8
25	26	1
29	29	7
170	185	6
148	149	1
65	66	1
2	22	1
118	118	1
148	148	10
158	172	1
151	193	1
164	164	3
15	24	3
161	163	1
90	90	2
39	39	6
122	172	1
136	136	5
126	126	4
165	165	1
159	159	4
179	183	2
43	45	1
43	138	2
151	152	7
61	61	2
13	46	1
150	153	2
44	48	2
18	19	2
116	137	1
77	85	3
76	76	3
103	104	1
19	21	1
158	164	2
58	59	1
181	192	2
142	142	7
13	13	13
0	54	1
71	133	1
9	129	2
0	1	3
27	27	5
145	147	1
46	47	2
128	195	2
12	12	11
163	163	4
136	160	1
33	73	1
72	93	1
40	42	1
125	125	6
71	72	1
176	178	2
164	165	1
141	142	2
183	186	1
101	101	5
182	183	4
17	18	2
44	44	5
109	111	1
28	31	1
43	43	3
147	148	1
18	22	1
151	153	1
126	128	1
141	141	5
124	141	1
126	127	2
10	10	3
88	88	1
94	94	2
116	118	1
34	34	4
28	29	2
81	81	3
83	84	1
88	89	1
21	25	1
157	158	1
6	8	2
51	52	4
38	39	3
151	151	5
153	154	1
54	54	1
21	22	2
82	82	3
184	186	1
172	179	1
116	117	1
51	178	1
64	65	2
4	5	2
49	58	1
185	187	1
173	175	1
137	138	1
93	93	2
78	81	1
96	96	2
97	101	1
180	181	3
39	76	1
53	55	1
25	27	1
16	36	1
166	166	5
16	37	1
171	184	1
17	192	1
167	167	1
139	167	2
177	178	3
12	43	1
13	32	1
122	122	2
187	187	3
99	141	1
45	46	2
33	69	2
172	172	2
171	179	1
45	48	2
163	164	2
150	151	2
0	2	1
18	36	1
196	196	4
172	173	1
131	196	1
147	155	1
188	188	1
67	192	1
65	69	1
72	128	1
161	161	3
117	117	2
89	89	1
190	190	2
174	175	1
134	134	2
78	78	4
123	127	1
166	167	2
102	104	1
28	30	1
130	152	1
34	35	2
180	187	1
170	176	1
77	133	1
108	172	1
11	11	6
28	28	4
33	33	3
162	164	1
178	185	1
22	23	3
172	182	1
80	81	1
14	184	2
125	126	1
186	186	1
8	8	2
11	13	1
175	175	2
137	167	1
13	44	1
122	123	1
108	117	1
7	23	1
39	41	1
29	30	2
149	149	5
21	21	4
108	112	1
67	67	2
138	179	1
23	48	1
159	181	1
191	192	1
5	7	2
131	131	3
158	174	1
50	64	1
18	20	1
114	118	1
155	160	1
74	74	3
40	40	3
121	139	1
97	97	1
130	142	1
154	155	1
173	176	2
161	180	1
107	123	1
10	13	2
35	35	1
149	167	1
22	24	1
104	104	1
78	79	1
43	44	1
63	65	1
111	112	1
42	69	1
53	54	2
50	50	3
127	128	1
134	135	1
156	177	1
35	36	2
135	139	1
16	52	1
100	138	1
163	176	1
116	116	2
57	57	2
121	122	2
70	87	1
101	105	1
62	65	1
105	105	1
170	171	2
139	140	1
5	25	2
2	7	1
60	135	1
167	169	1
59	134	1
13	14	1
57	58	3
47	185	1
31	32	1
96	110	1
60	66	1
171	172	1
73	79	1
18	18	2
11	43	1
4	8	1
6	30	1
86	86	1
0	0	3
138	184	1
73	99	1
120	120	1
133	138	1
177	177	1
73	98	1
124	125	1
193	194	2
24	34	1
189	191	1
158	159	1
132	159	1
96	98	1
47	48	1
27	30	1
136	194	1
115	179	1
44	47	1
98	98	2
102	102	1
182	193	1
23	24	1
117	118	1
143	145	1
97	107	1
34	40	1
64	69	1
182	186	1
112	112	1
168	178	1
157	182	1
1	2	1
179	187	1
77	77	1
4	182	1
138	139	1
170	170	1
109	194	1
16	20	1
34	36	1
130	171	1
59	59	1
62	63	1
74	75	1
95	97	1
137	137	2
129	130	1
35	68	1
16	18	1
128	184	1
24	25	1
63	84	1
82	98	1
3	4	1
119	146	1
63	64	1
28	36	1
135	137	1
155	158	1
168	169	1
146	168	1
196	197	1
27	37	1
