122	122	3
113	113	4
99	99	9
19	19	4
95	96	3
76	76	5
55	55	5
10	10	4
64	64	5
36	36	6
55	74	1
135	136	3
124	124	4
109	110	1
87	87	2
138	138	3
72	73	1
31	31	3
132	133	3
115	115	2
43	44	4
13	23	2
154	154	4
43	43	6
110	112	1
47	50	1
129	129	8
67	68	2
5	5	5
54	54	2
63	64	1
25	25	6
95	97	1
15	15	3
130	150	3
121	122	1
32	32	3
39	39	8
79	80	1
71	71	11
30	30	4
12	13	4
113	114	2
130	130	4
67	67	4
151	151	10
152	152	3
4	4	5
27	28	2
106	109	1
20	23	1
3	3	5
38	38	2
106	106	2
42	45	1
46	46	3
150	150	5
67	69	1
136	136	2
40	41	2
57	57	4
86	86	2
100	100	6
94	95	4
80	81	2
93	97	1
114	114	4
53	53	4
145	145	1
5	127	2
26	26	3
33	33	3
5	126	1
3	5	2
85	86	2
142	142	4
34	35	1
132	132	5
133	133	3
136	138	1
18	18	5
74	129	1
69	71	1
96	99	1
148	148	1
106	129	1
8	8	3
118	119	1
23	23	5
123	124	1
6	6	3
104	105	2
139	139	6
83	83	4
64	65	5
68	68	5
37	37	6
50	141	2
137	137	5
116	117	2
100	124	1
104	104	4
121	121	3
81	81	3
81	94	1
139	141	1
130	134	1
83	87	1
128	136	2
44	45	2
25	31	1
31	34	2
125	131	1
45	45	5
5	6	3
50	50	3
22	23	2
108	108	2
107	109	1
100	101	4
141	141	2
121	135	1
146	146	7
40	43	1
29	29	3
74	74	3
97	97	2
38	39	3
112	112	3
27	27	2
12	12	5
20	20	4
17	18	1
107	107	3
10	30	1
22	22	8
141	144	4
121	138	1
73	75	1
77	139	1
70	101	1
73	73	3
108	109	3
117	117	2
8	9	1
106	128	2
92	92	2
25	27	2
78	78	2
72	72	2
56	73	1
33	51	1
127	127	3
82	83	1
101	103	1
63	63	1
145	146	2
2	55	1
16	16	6
98	98	4
149	149	3
73	76	2
47	47	6
109	109	7
123	123	2
131	131	2
46	50	1
75	75	1
28	32	1
21	21	3
119	119	2
26	27	1
51	51	1
40	45	1
85	85	2
135	135	1
4	5	2
21	22	1
19	20	1
78	93	1
7	8	3
76	77	2
16	19	1
50	51	1
25	40	1
48	48	4
118	118	3
21	24	1
146	147	4
134	134	4
131	132	1
24	24	1
149	150	1
138	141	2
98	99	1
42	42	3
119	120	1
112	113	2
106	107	2
125	127	1
74	76	1
83	86	1
126	127	1
105	105	2
90	94	1
49	119	1
90	92	2
57	81	1
84	84	3
107	115	1
45	147	1
94	94	5
94	103	1
89	123	2
84	87	1
65	77	1
39	40	2
53	54	1
88	88	3
9	9	4
16	17	1
112	137	1
69	69	3
79	124	1
26	41	1
102	117	2
137	138	2
65	65	5
89	93	1
99	109	1
17	150	1
100	108	1
11	11	3
138	139	2
28	29	1
20	21	2
56	56	2
13	27	1
82	82	2
120	129	1
124	129	1
102	102	2
101	101	1
92	95	2
7	7	1
16	149	2
19	30	1
45	46	1
71	73	1
16	44	2
117	138	1
122	129	1
109	115	1
14	15	2
118	130	1
150	151	2
141	146	1
6	7	2
108	111	1
80	80	1
120	120	3
52	53	1
77	77	2
132	137	1
71	88	1
35	35	1
88	96	1
3	50	1
96	96	1
147	148	2
17	17	2
110	149	1
9	38	1
99	102	1
69	109	1
101	113	1
132	145	1
95	98	2
121	137	1
38	71	1
81	83	1
115	122	1
39	71	1
53	129	1
107	108	1
13	31	1
144	144	2
10	11	3
131	143	1
73	122	1
20	54	1
143	146	1
28	28	1
71	102	1
144	147	1
127	128	1
65	67	1
144	145	1
11	12	1
93	100	1
62	62	1
69	70	2
7	11	1
49	49	1
71	79	1
29	30	1
76	79	1
125	126	1
97	98	1
12	15	1
153	153	3
125	141	1
10	18	1
124	125	1
55	56	1
137	151	1
125	125	1
117	148	1
22	24	1
128	138	1
111	113	3
126	126	3
87	94	1
84	86	1
41	41	1
7	9	1
116	116	2
41	65	1
140	143	1
44	44	2
97	99	1
62	64	1
14	14	1
145	147	1
18	131	1
75	80	1
111	112	1
15	38	1
106	136	1
79	79	1
64	71	1
57	117	1
13	14	1
24	30	1
66	66	1
42	43	1
38	44	1
70	71	1
