114	115	1
23	23	11
147	148	2
69	69	8
26	80	1
121	121	3
82	82	6
61	64	1
100	103	1
96	104	1
2	2	3
67	68	6
157	157	6
128	129	2
135	136	1
144	144	3
160	160	6
100	104	2
72	103	2
72	73	2
102	102	2
119	119	4
122	122	1
124	124	5
117	118	1
11	12	4
135	148	2
58	58	1
138	138	7
1	4	3
119	154	1
146	146	2
11	13	1
37	41	1
50	50	3
141	142	2
121	123	1
147	147	3
42	42	5
148	167	1
6	7	2
164	168	2
48	50	2
22	22	3
43	43	6
143	143	6
40	40	3
148	161	2
6	22	3
160	161	1
45	46	2
44	45	3
41	41	3
19	87	1
47	47	5
0	0	5
33	42	2
98	99	1
66	68	1
4	4	8
101	102	2
125	125	2
37	37	4
24	44	1
3	4	2
98	125	1
24	25	3
57	57	3
81	124	1
117	122	1
85	85	3
129	130	1
137	138	1
90	90	7
45	45	3
53	57	1
76	77	1
21	23	1
132	132	3
142	142	6
52	52	1
105	105	2
14	14	8
49	49	1
140	140	1
98	124	1
63	63	4
3	3	5
62	63	1
137	137	1
69	70	1
75	104	1
78	78	2
46	46	2
15	15	4
17	18	2
39	39	3
62	62	5
87	87	4
96	97	2
28	106	1
72	72	4
18	18	2
25	25	3
148	148	4
38	38	3
163	165	1
66	66	1
65	65	2
26	90	1
123	142	1
36	37	3
49	85	1
18	19	1
153	156	1
154	156	1
74	112	1
103	103	3
144	145	1
1	13	1
66	123	1
156	156	6
70	70	2
6	9	1
68	68	2
134	134	3
1	12	2
63	139	1
75	75	1
117	121	1
23	24	1
128	128	3
19	19	1
23	48	2
86	86	1
44	44	4
35	37	1
8	9	1
65	66	1
130	130	1
0	47	1
55	55	2
154	154	5
111	147	1
4	5	2
1	14	1
113	113	2
131	151	1
133	137	2
8	8	3
155	155	2
143	169	3
150	158	1
16	16	5
14	15	3
74	113	1
103	104	1
140	142	4
17	17	5
95	98	2
100	126	1
27	27	2
120	121	1
126	143	1
154	155	1
7	7	2
116	116	3
2	89	2
166	167	1
67	113	1
48	72	1
9	10	2
153	154	1
51	51	4
137	147	2
97	97	1
92	92	1
16	25	1
150	150	3
98	98	2
83	87	1
76	76	2
134	164	2
80	126	2
100	100	1
161	161	1
110	112	2
36	36	3
63	64	2
143	163	2
133	133	4
57	62	2
169	169	3
24	84	1
49	51	1
111	161	2
158	158	1
68	69	1
24	24	4
78	81	1
144	146	1
15	47	1
127	127	1
129	129	2
139	143	1
145	145	2
15	149	1
81	98	1
39	41	1
47	54	1
145	146	1
71	71	1
81	123	1
119	161	1
64	66	1
104	104	1
118	134	1
111	114	2
79	79	2
166	166	2
12	12	1
89	128	1
133	135	1
149	150	2
126	126	2
48	48	2
157	160	1
168	168	1
5	6	2
136	143	1
45	56	1
95	99	1
26	68	1
158	166	1
130	132	1
131	131	1
152	153	2
139	139	4
158	159	1
149	149	3
21	47	1
162	162	1
53	53	2
19	21	2
162	163	2
25	26	2
27	43	1
74	75	1
111	112	1
33	33	3
21	22	4
109	109	2
0	53	2
79	107	1
155	157	2
143	144	1
127	142	1
94	94	5
163	166	1
144	164	1
163	164	1
120	120	1
14	160	1
9	9	1
164	164	1
10	14	2
13	14	1
87	88	1
92	95	1
89	106	1
167	168	1
14	20	1
26	26	3
0	12	1
41	42	1
17	109	1
127	140	1
138	157	1
8	22	1
127	141	1
73	74	2
20	20	1
130	133	1
136	136	2
1	1	2
102	107	1
6	6	2
122	133	1
110	110	2
89	89	2
73	113	1
64	64	2
115	146	1
50	52	1
133	134	1
111	111	1
2	44	1
131	134	1
160	164	1
11	43	1
83	83	1
137	153	1
112	112	3
47	53	1
78	79	1
19	86	1
92	94	1
77	77	3
63	94	1
65	100	1
58	73	2
142	151	1
85	87	1
99	99	2
45	74	1
1	11	1
136	137	2
55	56	2
11	11	1
35	35	2
41	90	1
125	126	1
2	50	1
39	105	1
81	81	1
92	93	1
108	109	1
145	163	1
114	125	1
21	21	1
67	101	1
44	46	1
138	150	1
163	170	2
74	74	1
7	37	1
153	155	1
5	5	1
11	41	1
51	55	1
21	82	1
137	155	1
117	136	1
49	50	1
98	128	1
47	49	1
91	102	1
117	143	1
73	73	1
2	3	1
52	53	1
58	72	1
15	148	1
62	94	1
41	136	1
119	136	1
84	84	1
39	147	1
4	24	1
46	49	1
70	136	1
10	10	1
96	99	1
152	152	2
131	132	1
130	131	1
158	162	1
138	163	1
13	13	1
142	162	1
43	149	1
1	2	1
69	110	1
13	52	1
34	35	1
