18	19	3
143	150	2
123	123	4
4	4	4
139	139	3
132	132	1
19	19	2
67	67	2
111	111	5
83	92	2
46	46	4
101	101	3
28	28	1
62	85	1
39	40	1
117	118	2
156	156	3
110	110	2
25	25	1
105	105	2
54	54	2
149	149	3
70	70	1
69	105	1
0	1	1
97	97	3
87	87	2
37	37	1
139	140	2
108	108	4
115	116	1
158	158	1
83	83	1
21	21	5
103	103	3
92	92	1
39	39	2
154	154	1
11	11	1
121	121	1
66	66	1
107	107	5
99	99	2
128	129	1
88	89	2
135	135	4
102	103	1
127	141	1
152	154	1
2	2	1
157	157	5
126	126	2
23	117	1
25	26	2
150	150	4
117	117	2
48	48	4
133	133	2
144	147	1
148	148	2
132	133	3
142	142	5
116	116	3
82	82	1
53	53	1
86	87	1
44	44	1
29	29	2
145	147	1
136	136	1
151	151	5
155	158	3
43	43	1
120	120	3
142	149	2
131	131	2
116	117	1
145	146	2
91	91	2
18	18	3
115	115	3
50	50	2
66	67	2
140	140	4
47	47	2
24	24	2
30	30	2
15	15	2
89	89	2
112	112	3
77	77	1
113	114	2
118	119	2
86	109	1
70	107	2
156	157	1
129	129	1
98	98	2
46	48	1
31	32	1
2	99	1
100	100	2
92	93	1
16	91	1
138	138	4
147	147	4
10	10	2
155	155	2
36	36	2
35	66	1
23	23	1
98	105	1
95	96	1
113	113	3
17	21	2
38	38	3
90	90	1
115	121	1
19	118	1
132	134	2
107	108	1
116	127	2
118	118	2
23	24	2
29	30	1
1	1	1
134	134	2
10	19	2
138	141	1
20	20	2
85	86	1
117	123	1
29	44	1
128	128	2
31	31	1
106	107	1
38	39	2
96	96	1
6	6	2
43	51	1
66	68	1
68	68	2
70	71	1
159	159	1
141	142	2
108	111	2
120	124	1
75	75	2
157	158	1
0	0	1
15	17	1
5	26	1
151	152	2
14	15	1
129	152	2
28	32	1
94	94	1
7	7	1
137	140	1
122	122	3
114	115	2
93	94	2
137	137	1
127	131	1
84	111	1
66	111	2
27	28	1
19	20	1
158	159	1
129	130	2
30	99	1
52	54	2
32	32	1
3	3	3
145	145	1
23	66	1
148	149	1
1	6	1
16	16	1
73	73	1
144	144	2
109	111	1
14	14	1
78	80	1
146	147	1
78	79	1
84	85	1
124	125	1
143	146	1
73	105	1
56	56	1
34	42	1
80	80	1
64	65	1
109	110	1
119	121	1
26	26	1
123	124	2
71	71	1
125	150	2
93	93	1
47	48	1
33	33	1
26	28	1
105	106	1
4	128	1
117	121	1
