16	16	5
112	112	6
152	152	6
71	71	2
2	2	11
108	110	1
92	94	2
167	168	2
52	57	2
156	157	3
50	50	9
11	13	1
21	21	13
133	133	8
1	2	3
115	117	2
86	86	8
1	1	5
88	89	2
96	99	2
153	153	7
4	4	6
132	155	1
38	38	6
34	36	1
135	136	3
145	145	8
115	115	3
144	144	4
135	139	1
100	127	2
77	77	5
164	164	1
10	10	8
53	152	1
41	41	12
47	47	10
90	91	2
53	53	11
45	86	2
14	14	10
127	128	2
133	135	1
52	64	1
115	155	1
120	120	12
146	166	2
56	105	1
156	156	7
101	106	1
77	79	2
146	146	9
136	136	12
1	25	1
148	148	7
114	117	3
87	97	1
107	116	2
161	164	1
143	144	3
43	43	9
7	150	1
83	168	1
11	11	10
73	140	1
132	134	1
151	151	8
39	41	3
39	39	5
87	90	1
144	155	1
7	9	1
100	102	1
36	37	6
49	49	6
95	95	6
170	170	7
93	93	6
80	80	11
100	101	3
0	0	4
130	131	1
71	84	1
168	168	7
49	86	2
124	124	5
70	73	1
8	17	1
12	13	2
24	24	10
17	18	2
121	121	6
70	76	2
135	135	10
149	149	10
27	35	1
12	12	10
162	162	9
89	151	1
52	52	10
127	127	8
167	167	10
96	96	3
110	136	1
7	7	6
62	62	4
154	155	3
73	74	1
166	166	9
165	165	9
15	20	2
143	151	2
1	3	2
7	145	2
119	119	8
73	158	2
23	24	3
87	87	6
25	46	2
84	84	2
161	165	1
3	4	5
139	141	3
89	99	2
17	17	11
0	160	1
128	128	2
6	7	4
64	74	1
93	141	1
89	106	2
110	110	7
57	57	4
19	20	6
48	54	2
20	20	9
113	143	1
48	49	4
141	141	7
5	6	7
126	126	1
52	53	3
109	136	1
128	129	6
89	90	2
117	117	9
44	45	4
142	142	9
9	51	1
18	20	3
50	73	1
2	151	2
148	154	1
78	78	4
14	26	1
155	156	3
9	162	2
43	88	1
2	11	2
65	70	4
64	68	1
56	56	4
37	37	6
17	26	1
121	164	2
26	35	1
144	165	2
2	3	1
157	157	5
158	158	7
34	34	7
117	118	2
51	51	6
98	98	5
118	118	11
15	16	3
44	112	2
94	95	4
130	130	6
13	79	1
4	10	1
101	101	3
85	88	2
86	87	3
159	159	13
163	163	5
91	91	3
154	154	1
3	90	1
104	104	6
76	76	7
112	134	2
58	58	3
27	28	3
1	5	1
92	98	3
22	22	6
44	44	8
122	123	2
109	111	4
62	78	1
71	113	1
143	150	1
6	161	1
1	169	2
27	27	10
92	92	3
157	158	4
162	163	3
164	165	2
34	41	1
144	159	2
42	122	1
23	23	7
50	51	3
104	106	1
126	136	1
45	45	5
146	147	1
160	160	11
37	38	2
150	150	5
21	22	3
21	24	4
40	40	10
64	64	5
49	68	1
91	92	4
120	121	2
6	6	9
19	19	8
131	163	1
78	80	1
56	62	1
113	113	3
92	93	2
53	54	2
13	20	1
108	109	2
125	125	3
26	26	5
18	160	2
161	162	3
137	137	6
147	147	7
35	36	2
91	93	3
149	153	1
64	79	1
69	69	8
9	163	1
10	144	1
82	82	2
79	80	2
114	118	1
96	97	3
43	52	1
150	151	1
4	26	1
75	75	6
97	99	2
13	43	1
169	169	11
123	123	2
111	111	3
141	142	6
72	72	2
127	129	1
138	138	5
33	33	6
169	170	5
16	51	1
5	5	8
53	138	1
56	130	2
110	117	1
81	81	7
70	70	2
25	64	1
7	18	2
39	40	4
83	83	5
125	150	2
97	133	1
95	96	1
1	13	2
82	83	4
166	170	1
52	63	1
138	158	1
50	63	1
88	121	1
49	69	1
126	128	2
100	100	3
40	41	1
90	90	11
124	133	2
74	75	2
108	132	1
133	134	2
78	86	1
10	11	1
129	129	3
79	79	5
159	160	2
16	25	1
42	42	9
130	141	1
104	135	1
46	46	7
54	54	2
103	117	1
68	68	6
57	129	1
26	49	1
168	170	2
48	48	6
140	140	5
116	116	6
167	170	1
161	161	8
4	44	1
134	134	5
68	109	1
20	25	1
134	151	1
133	155	2
51	156	1
3	3	8
2	149	1
35	35	4
6	152	1
25	25	4
151	160	2
149	150	2
54	62	2
118	163	1
70	71	2
2	43	3
6	13	1
53	62	2
40	70	2
121	122	4
96	98	2
14	25	1
64	67	2
19	49	1
105	117	1
8	46	2
106	109	1
142	143	3
81	82	1
160	169	1
114	114	5
86	153	1
5	74	1
13	14	4
28	28	3
71	106	1
157	159	1
15	15	3
9	9	5
18	18	10
139	139	5
145	148	1
57	62	2
45	57	1
78	88	1
125	126	3
137	138	1
142	166	1
5	10	1
8	8	8
155	157	1
6	10	1
130	136	2
42	159	1
16	49	1
94	96	1
107	118	1
66	72	2
118	119	1
100	104	1
51	70	1
103	114	3
38	40	4
14	15	3
130	138	2
155	155	5
36	36	8
103	103	4
109	110	1
138	139	4
55	55	3
106	107	1
21	25	1
112	113	1
44	73	1
13	13	2
113	154	1
125	131	1
116	118	3
109	109	5
122	129	1
21	23	1
7	14	1
137	160	1
127	130	1
66	68	1
16	50	1
144	145	2
112	115	2
5	97	1
11	12	3
154	167	2
63	63	4
65	97	1
44	47	1
24	25	1
24	51	1
83	99	1
42	170	1
5	126	1
131	131	3
118	150	1
84	148	2
148	149	3
43	44	3
44	106	1
126	146	1
73	73	6
27	42	1
2	5	1
40	45	1
44	52	1
0	1	2
16	17	3
133	139	1
46	50	2
101	103	2
63	65	1
12	47	2
57	64	1
62	64	1
26	27	3
76	78	2
72	82	1
3	16	1
52	74	1
69	70	1
143	143	8
27	153	1
2	6	1
7	16	1
125	147	1
20	21	2
115	116	2
131	161	1
8	9	2
139	140	5
94	94	2
136	155	1
114	161	1
64	65	4
135	158	1
17	49	1
10	164	2
97	97	2
154	156	2
143	165	1
168	169	3
160	170	1
123	156	1
12	143	1
145	154	2
18	19	3
72	156	1
72	104	1
101	104	3
83	89	1
76	93	1
45	80	1
130	165	1
95	122	2
132	133	3
156	164	1
135	155	1
24	73	1
51	52	2
145	146	1
8	10	2
113	117	1
97	98	3
63	64	2
111	150	1
99	106	1
136	148	1
131	132	3
17	70	1
106	106	4
62	77	1
105	142	1
139	142	1
148	166	1
110	137	1
132	132	5
100	106	1
136	149	2
136	143	1
47	48	1
8	11	1
75	76	1
40	91	1
105	116	1
55	56	1
106	111	1
88	88	4
137	151	1
67	67	5
140	141	1
19	23	1
57	58	3
76	88	1
106	135	1
41	42	1
2	136	1
55	168	1
67	68	1
33	34	1
41	45	1
49	87	1
84	109	1
99	122	1
67	69	1
72	73	2
150	159	1
3	6	1
124	126	2
105	105	4
143	161	1
165	166	1
18	25	1
5	109	2
18	22	2
20	26	1
89	149	1
38	41	2
105	119	1
64	66	2
114	115	1
65	67	1
106	138	1
38	39	1
1	107	1
11	16	1
74	109	1
54	57	1
45	112	1
66	66	4
99	99	1
11	28	1
90	105	1
47	74	1
120	126	1
93	140	1
41	44	1
6	97	1
9	40	1
159	168	1
0	13	1
113	114	2
52	89	1
74	88	1
57	65	2
101	143	1
108	108	3
16	47	1
90	160	1
45	58	1
49	51	1
152	153	2
19	22	2
145	147	1
114	157	1
120	141	1
52	132	2
150	162	2
148	161	1
62	79	1
22	23	2
40	94	1
166	167	2
7	169	1
13	16	1
105	106	2
110	151	1
9	24	1
6	166	1
150	160	1
78	79	3
74	91	1
77	78	2
74	76	2
76	87	1
167	169	1
4	5	1
112	126	1
13	107	1
89	89	3
9	10	1
70	82	1
161	163	1
53	55	1
24	26	1
46	47	1
16	20	2
153	154	1
162	164	1
14	37	1
61	61	1
24	39	1
137	166	2
8	145	1
57	76	1
82	130	1
90	166	1
80	112	1
25	27	1
4	109	1
150	164	1
65	75	1
28	42	1
16	159	1
6	12	1
104	105	1
154	158	1
70	111	1
140	165	1
88	151	1
132	165	1
71	72	1
139	153	1
139	143	1
131	150	1
122	122	1
113	115	1
4	150	1
148	159	1
46	48	1
142	164	1
163	165	1
162	166	1
103	141	1
83	114	1
138	148	1
14	52	1
148	151	1
14	45	1
16	151	1
1	6	1
43	106	1
70	105	1
82	85	1
15	109	1
116	131	1
41	159	1
45	111	1
162	167	1
136	156	1
18	156	1
20	23	1
5	136	1
84	88	1
149	168	1
79	87	1
119	150	1
129	130	1
134	135	2
90	116	1
74	74	1
10	66	1
45	47	1
138	147	1
18	53	1
107	107	1
102	102	1
79	112	1
117	135	1
2	4	2
57	130	1
98	99	1
76	99	1
102	104	1
14	38	1
147	160	1
82	131	1
4	25	1
129	141	1
148	164	1
132	156	1
91	97	1
3	5	1
86	90	1
25	26	1
66	67	1
120	123	1
75	88	1
34	35	3
17	52	1
0	36	1
26	37	1
123	124	2
35	70	1
119	123	1
14	144	1
14	18	1
12	46	1
3	11	1
50	54	1
110	111	1
166	168	1
74	79	1
136	137	1
135	148	1
19	54	1
88	130	1
7	15	1
80	98	1
138	146	1
108	143	1
144	167	1
116	143	1
65	65	1
73	146	1
52	119	1
51	64	1
124	125	1
127	164	1
142	149	1
52	71	1
129	133	1
130	135	1
