87	87	6
105	105	5
41	49	1
129	129	4
107	107	5
137	137	3
25	25	2
1	1	2
2	3	1
150	150	1
118	120	2
92	92	3
31	32	2
117	117	3
78	79	3
69	110	1
73	73	6
17	17	2
152	152	3
115	117	1
78	78	3
110	121	1
48	48	3
154	155	2
120	138	1
88	90	1
83	93	1
138	138	3
128	128	2
110	111	1
3	4	1
109	110	2
86	94	2
140	140	2
109	111	1
70	87	1
69	145	1
127	127	4
67	67	3
66	66	2
41	68	3
116	116	4
95	96	1
155	156	1
15	56	1
53	53	2
87	124	2
6	7	1
62	62	2
114	117	1
63	63	2
81	81	5
105	139	1
126	126	4
7	7	2
89	89	1
97	152	2
84	84	1
121	121	3
41	41	1
143	144	1
153	153	1
88	88	1
108	111	2
16	104	1
131	133	1
56	56	1
36	36	4
106	106	6
135	139	1
85	86	1
94	94	1
37	50	2
156	156	3
92	133	1
44	56	1
151	151	3
103	103	2
155	155	4
135	135	6
108	109	1
86	86	2
147	147	1
43	43	5
53	54	1
91	92	4
112	112	4
130	130	5
122	122	2
98	98	3
12	12	1
68	70	1
131	153	1
19	20	2
97	97	2
100	100	2
75	75	7
20	20	1
50	50	1
111	111	1
35	47	1
108	124	1
144	144	2
126	137	1
118	119	5
75	98	1
77	84	1
40	40	3
39	46	2
17	34	1
93	110	1
135	137	2
28	37	1
106	123	1
70	70	1
8	8	2
94	95	1
65	65	1
83	84	1
77	77	1
158	158	3
120	120	1
80	82	1
129	135	1
15	104	2
115	115	2
49	89	1
18	18	1
10	11	1
83	83	1
45	55	1
102	102	1
131	134	1
79	85	1
38	38	2
154	154	2
117	118	2
16	16	2
82	86	1
99	100	2
76	76	3
104	104	2
52	52	1
25	107	1
139	140	2
134	134	5
121	141	1
132	132	3
85	98	1
64	65	1
33	33	1
142	142	2
23	38	1
61	153	1
44	44	2
80	80	1
34	34	2
131	131	1
31	31	1
76	81	1
16	18	2
107	139	1
139	139	1
123	124	2
19	19	1
10	10	2
157	157	2
2	2	3
32	34	2
29	29	2
136	136	2
3	53	1
148	148	1
90	115	1
128	129	1
20	41	1
22	23	1
14	14	2
28	32	1
26	26	3
54	55	3
70	71	2
111	149	1
24	104	1
26	28	1
27	141	1
49	49	1
68	108	1
64	64	2
9	46	1
121	131	1
124	124	2
27	27	1
113	113	3
84	86	1
23	23	3
25	26	1
8	11	1
108	108	2
105	106	2
75	149	1
51	51	1
81	125	2
4	4	1
37	37	1
22	24	1
127	128	1
24	24	1
28	28	1
132	133	1
81	84	1
38	47	1
84	93	2
50	51	1
88	89	1
103	104	1
12	15	1
153	154	1
152	153	1
101	101	1
6	6	1
25	27	1
33	53	1
99	99	1
15	17	1
30	30	1
47	48	1
9	10	1
119	119	1
82	91	1
18	19	1
0	0	1
5	5	2
90	90	1
69	131	1
65	98	1
57	57	1
118	118	1
69	69	2
39	40	1
82	135	1
97	98	1
102	103	1
93	94	1
15	16	1
123	129	1
126	127	1
8	10	1
77	87	1
52	53	1
33	35	1
130	131	1
29	30	1
20	64	1
21	41	1
146	146	1
132	152	1
51	54	1
