137	137	4
129	154	1
68	108	1
110	151	1
130	130	5
23	55	3
50	68	2
15	16	3
135	135	6
76	77	3
21	21	4
24	46	2
132	132	2
106	106	5
39	51	1
107	142	1
24	24	10
30	30	4
64	64	4
106	107	3
74	103	1
47	51	1
140	140	1
142	146	2
53	70	1
17	18	1
133	150	1
114	114	5
12	20	1
111	111	6
40	40	5
41	41	2
105	117	1
146	146	2
8	8	3
11	15	1
77	78	2
39	39	9
6	7	2
13	13	8
49	49	2
131	131	4
150	151	4
44	45	1
3	11	1
150	150	4
22	23	3
128	128	4
7	7	3
112	112	2
66	66	3
44	124	1
136	139	3
133	133	5
78	78	5
97	97	1
73	73	4
44	44	7
62	62	4
14	15	2
122	122	8
16	17	1
14	16	2
54	54	4
29	103	1
20	20	4
139	142	1
103	103	3
38	38	4
66	73	1
138	142	1
105	115	1
75	76	3
68	68	13
28	28	3
125	141	1
149	149	4
96	99	2
116	116	3
37	37	4
109	109	8
20	21	1
131	132	2
129	129	1
18	18	2
112	142	4
95	95	3
115	116	1
19	53	1
151	151	4
63	64	4
76	76	4
93	95	1
69	69	6
81	87	1
131	138	1
99	124	1
53	53	8
137	139	1
42	43	2
31	36	1
31	130	1
114	130	1
5	5	3
113	113	3
96	97	2
56	57	3
29	29	1
30	31	1
45	45	7
31	31	4
72	74	2
152	153	1
123	123	3
64	65	1
48	53	1
108	108	4
138	138	3
18	19	4
45	46	2
47	47	5
15	15	3
102	102	3
122	125	1
23	46	1
32	57	2
72	72	3
141	141	2
35	35	3
117	118	2
151	152	2
24	36	1
62	63	1
136	143	1
121	130	1
124	126	3
72	86	1
148	148	2
34	34	1
49	53	1
9	9	3
93	93	3
107	114	1
79	80	2
4	9	1
126	126	2
136	136	2
100	106	1
56	56	4
120	120	2
105	105	1
101	102	2
12	12	3
39	46	1
104	144	1
149	150	2
95	113	1
65	65	2
11	12	1
46	46	2
14	14	2
80	80	4
134	134	1
16	16	2
39	40	3
126	128	1
110	110	4
25	25	3
76	80	1
74	74	3
125	128	1
98	99	1
99	99	4
79	86	1
144	144	2
117	120	1
111	118	1
82	82	6
118	118	6
25	33	1
87	87	1
11	11	4
128	130	1
103	136	1
85	85	4
107	115	1
54	100	1
21	22	1
28	29	2
22	30	1
12	13	1
92	103	2
50	50	4
3	90	1
127	127	3
6	23	1
51	51	2
10	12	2
22	22	2
123	124	2
75	75	3
20	32	1
86	86	1
132	133	1
124	125	1
57	57	2
104	104	2
24	39	1
97	99	2
124	128	1
43	43	2
24	31	1
19	49	1
79	79	1
50	51	2
55	65	2
139	139	3
55	55	2
122	123	1
26	32	1
115	117	1
139	140	1
35	38	1
67	68	1
121	121	4
43	46	1
96	115	1
21	37	1
41	42	1
142	145	2
77	77	2
129	131	2
126	138	1
117	117	1
36	36	1
94	105	1
107	131	1
154	154	3
81	97	1
14	46	1
7	35	1
87	88	1
32	32	2
115	115	2
113	134	1
124	124	1
114	115	1
141	142	3
135	136	1
71	73	2
131	134	2
20	24	1
82	83	2
125	126	1
94	94	3
26	26	1
82	98	1
86	114	2
31	38	1
34	35	1
12	14	2
152	152	2
26	27	2
37	68	1
85	94	1
24	25	1
125	125	2
143	145	1
109	110	2
145	147	1
40	41	2
143	143	2
102	103	1
85	95	1
13	14	1
96	96	1
143	144	1
110	112	2
23	23	2
129	130	1
30	70	2
42	42	2
76	84	1
17	17	3
47	48	1
148	153	1
23	38	1
110	114	1
10	13	1
43	125	1
137	138	1
6	9	1
133	136	1
91	95	1
43	56	1
4	8	1
120	124	1
152	154	1
63	63	1
119	122	1
103	106	1
147	147	2
84	85	1
129	149	1
25	58	1
118	122	1
10	11	1
43	45	1
53	54	1
27	27	1
72	73	1
15	25	1
48	54	1
101	101	1
77	108	1
110	117	1
10	10	1
33	33	1
94	96	1
81	81	1
113	114	2
27	28	1
130	140	1
92	97	1
144	146	1
110	149	1
98	98	2
3	24	1
86	87	1
25	28	1
24	123	1
33	35	1
109	152	1
13	65	1
54	55	1
83	83	1
68	69	1
