140	140	9
84	86	2
70	71	3
13	13	6
93	98	1
114	125	1
147	147	4
129	129	10
38	38	1
140	149	1
39	39	6
88	88	1
37	38	2
92	104	1
73	73	9
71	71	10
95	95	3
2	4	2
133	133	6
120	120	6
113	113	7
35	35	3
120	142	2
12	148	1
3	3	5
156	156	9
70	70	3
152	152	10
34	34	5
86	86	9
132	132	9
154	155	6
115	144	1
5	5	7
82	82	1
126	126	5
113	137	1
134	134	4
78	79	1
113	141	1
128	128	8
85	86	2
8	12	1
3	4	2
103	139	1
106	106	8
155	156	4
29	29	6
76	76	4
2	3	1
101	101	8
38	39	2
121	124	1
108	108	6
66	66	4
47	47	1
148	149	2
30	30	4
53	53	4
67	67	2
150	150	12
21	21	2
112	141	1
46	48	1
151	152	1
107	111	2
98	98	2
139	140	1
42	42	3
128	129	4
99	99	7
103	103	6
115	115	8
36	36	3
120	121	2
14	14	2
141	141	3
119	120	3
51	51	3
83	83	1
75	75	6
84	85	3
65	65	2
143	145	1
74	74	2
98	157	4
13	14	1
113	114	2
30	93	1
120	139	1
48	51	1
87	87	4
0	0	2
83	106	1
28	90	1
118	118	2
52	52	5
144	147	1
77	77	5
90	90	5
137	137	4
119	136	2
117	156	1
151	151	7
130	130	9
157	157	4
115	116	1
125	125	7
136	137	1
30	32	1
9	9	4
117	118	1
97	148	1
125	126	6
56	56	2
7	24	1
22	22	2
66	67	1
45	45	3
88	89	2
69	69	10
153	153	4
142	142	3
130	139	3
46	52	1
155	155	4
152	153	4
15	15	2
152	154	1
119	119	8
122	122	7
79	82	1
98	105	1
141	142	1
111	112	1
19	21	3
36	39	1
18	19	1
18	18	4
102	102	4
140	146	2
137	138	2
109	109	3
67	68	2
135	135	5
145	145	4
138	139	1
94	94	7
154	154	4
118	149	1
126	127	1
37	37	7
16	40	1
17	37	1
84	84	2
116	116	7
80	134	1
8	22	1
105	123	1
16	16	4
2	157	3
123	123	7
51	93	1
107	107	4
50	50	7
136	136	4
33	50	1
5	151	1
116	127	1
112	113	3
17	17	5
68	68	6
19	19	6
80	81	2
51	52	2
153	154	2
103	129	1
28	29	1
112	112	2
64	64	3
122	123	1
67	80	2
135	136	5
73	130	1
104	105	1
91	91	4
29	104	1
81	82	2
72	75	2
31	31	3
100	102	1
38	93	1
145	147	2
20	20	6
127	154	1
122	143	1
145	146	4
4	4	3
49	49	4
100	100	7
75	76	1
110	110	2
55	55	5
115	133	1
138	138	3
43	43	5
149	149	3
83	112	1
129	132	1
6	7	2
144	145	2
129	140	2
39	40	1
140	141	2
112	114	1
10	11	1
78	141	1
85	85	5
26	26	1
71	104	1
130	137	1
123	124	3
139	139	5
104	104	5
105	105	4
41	48	1
125	146	2
143	144	1
7	11	2
4	7	1
99	128	1
93	93	9
112	148	2
122	146	1
121	122	5
123	126	1
97	99	1
121	121	3
131	131	5
89	91	1
12	12	5
42	43	2
146	147	1
132	139	1
134	135	1
128	131	1
111	152	2
91	92	1
84	148	1
117	117	8
106	140	1
82	83	1
41	41	4
121	133	2
127	127	10
44	45	1
106	111	1
2	2	4
123	142	1
39	55	1
7	7	4
80	83	1
157	158	1
106	107	2
7	43	1
7	21	1
118	119	3
130	159	1
135	138	1
133	134	2
119	146	1
23	23	3
48	112	1
158	158	7
40	47	1
87	116	1
37	41	1
31	103	1
126	136	1
98	156	1
62	107	1
83	86	1
52	54	2
25	25	4
8	8	3
10	12	1
19	50	1
97	98	1
33	45	1
87	133	1
126	142	1
144	146	2
47	48	1
144	144	6
139	155	1
115	117	2
103	104	1
120	122	1
9	150	1
11	11	1
80	80	2
120	158	1
66	86	2
43	44	2
119	134	1
24	24	1
111	149	1
48	48	2
17	20	2
124	124	2
146	146	2
114	114	1
38	119	1
38	86	1
90	115	1
17	106	1
54	54	4
85	88	1
98	106	1
143	143	2
155	157	3
7	36	1
14	15	1
67	94	1
127	132	1
44	44	2
91	102	1
20	92	1
129	154	1
132	134	1
31	53	1
30	38	1
129	139	1
47	55	1
118	146	1
69	91	1
97	107	1
134	137	1
98	99	1
32	32	3
116	126	1
27	28	1
112	139	1
110	113	1
68	152	1
108	109	1
110	112	1
112	140	1
8	96	1
6	6	2
107	126	1
12	36	1
10	10	2
78	78	3
33	34	1
114	146	1
107	110	1
158	159	1
150	152	1
14	126	1
131	152	1
130	138	1
156	157	1
108	120	1
40	40	1
127	138	1
92	92	1
95	120	1
31	37	1
69	147	1
96	127	2
116	139	1
109	110	1
85	110	1
48	108	1
89	89	2
81	81	1
148	148	1
97	97	1
111	111	1
40	41	1
79	79	3
50	51	1
126	141	1
79	80	1
1	1	1
11	15	1
29	35	1
25	61	1
149	150	1
43	50	2
114	115	1
139	148	1
88	93	1
51	54	1
117	136	1
17	18	1
31	106	1
128	136	1
48	49	1
93	120	1
69	70	2
77	78	1
93	94	1
123	125	1
121	138	1
46	57	1
140	156	1
86	88	1
88	109	1
108	110	1
23	153	1
104	110	1
138	152	1
33	33	1
68	69	1
63	63	1
8	9	1
127	141	1
6	13	1
44	106	1
19	20	1
96	96	1
51	99	1
113	117	1
0	1	1
99	100	1
131	132	1
40	77	1
117	120	1
56	57	1
