151	151	2
235	236	2
52	54	1
44	45	1
185	226	1
146	166	1
127	129	1
170	170	4
52	52	2
74	74	4
228	228	3
36	36	3
29	69	1
69	69	3
8	8	2
133	134	3
42	45	1
41	41	2
102	124	1
102	103	2
141	157	2
98	98	3
145	150	1
144	145	2
194	194	1
12	23	1
149	149	3
242	242	4
126	126	4
151	152	4
210	210	3
154	154	3
109	109	3
58	58	2
157	160	2
72	72	5
174	174	2
226	226	3
173	236	1
117	117	3
179	179	2
12	12	5
76	77	2
236	236	1
181	181	2
79	79	1
51	51	2
9	10	3
29	29	5
153	179	2
10	11	3
167	168	3
1	2	1
129	129	3
42	42	4
162	162	2
51	52	2
12	14	1
145	172	1
70	71	2
51	56	1
8	13	1
96	98	2
171	172	3
88	88	1
128	128	1
169	172	1
1	1	4
148	150	2
118	118	5
199	199	3
142	155	2
42	46	1
158	194	1
150	151	2
111	111	3
65	70	1
164	181	1
113	113	2
192	192	1
27	27	3
85	85	1
66	66	3
178	178	3
56	63	1
134	134	1
149	150	3
86	86	2
68	68	1
157	157	1
45	45	1
56	56	7
82	83	3
146	146	5
219	219	1
33	34	2
135	136	1
232	232	1
234	234	2
47	48	2
50	53	1
198	220	2
132	132	3
233	234	1
152	154	2
30	30	2
184	185	1
21	21	2
121	121	4
191	191	2
182	182	1
39	179	1
28	30	1
7	7	1
167	167	3
217	239	1
3	3	2
66	67	1
221	221	1
30	66	1
172	172	2
21	22	1
26	26	2
233	233	3
59	60	2
15	15	2
56	57	3
160	179	1
13	13	1
58	60	2
166	168	2
38	122	3
143	143	2
149	160	1
171	187	1
173	173	7
66	86	1
19	19	2
197	197	2
114	120	1
69	71	1
166	166	4
159	177	1
34	36	2
201	202	1
31	31	3
71	71	1
231	232	5
188	208	2
55	55	4
200	206	1
60	60	3
169	169	2
147	148	1
77	86	1
231	231	1
80	80	2
195	197	2
198	198	2
224	232	1
45	48	1
65	67	1
164	200	2
37	52	1
216	231	1
204	204	2
238	242	2
80	122	1
153	153	1
42	44	1
96	97	1
184	184	3
201	201	2
180	180	4
119	128	1
70	70	2
208	210	1
190	190	2
158	158	2
59	59	1
120	154	2
230	231	1
123	123	5
211	215	1
240	241	1
180	181	2
33	33	1
156	158	1
95	95	2
189	190	3
17	229	1
64	64	3
215	215	2
188	188	1
100	100	1
166	169	1
138	200	1
119	119	2
77	77	1
108	108	1
80	83	1
125	134	1
187	188	1
217	219	3
120	120	1
24	25	1
173	178	1
152	152	1
209	209	1
46	48	1
50	50	1
81	81	3
223	225	1
10	10	1
118	127	1
107	107	1
103	103	3
26	27	2
34	34	1
80	84	1
46	219	1
0	2	1
198	199	1
158	160	1
174	175	1
141	143	4
205	205	3
32	231	1
172	179	1
166	184	1
107	108	1
202	202	1
168	168	3
100	101	1
112	112	2
137	138	1
177	177	1
206	206	2
183	183	1
31	49	1
122	128	1
177	203	1
59	180	1
76	80	1
2	2	4
35	57	1
145	152	1
0	0	3
20	47	1
63	63	2
67	124	1
157	164	1
17	17	1
51	57	1
118	119	1
41	42	1
53	75	1
137	137	2
104	104	3
82	82	4
230	232	1
223	230	1
177	179	1
6	7	1
122	124	1
17	20	1
39	41	2
14	16	1
225	226	1
150	150	2
180	201	1
89	102	1
22	35	1
22	24	1
73	73	1
166	181	2
29	66	1
13	14	1
154	156	1
196	197	1
223	223	1
115	116	1
149	152	1
28	48	2
6	6	1
154	158	2
203	203	2
160	160	1
135	139	1
6	220	1
47	47	2
100	171	1
49	49	2
20	20	2
217	217	1
171	171	3
63	69	1
220	220	1
148	157	1
83	103	2
44	55	1
124	149	1
207	207	1
65	65	1
57	58	1
16	20	1
81	82	2
118	149	1
38	39	1
124	133	1
230	234	1
155	156	1
67	67	1
215	232	3
208	217	1
54	54	1
99	102	1
106	106	4
32	69	1
14	18	1
34	39	1
221	222	2
151	172	1
124	125	1
138	138	1
99	99	1
32	47	1
160	161	1
164	188	2
35	35	2
165	165	2
158	159	2
237	237	1
179	204	1
0	24	1
62	62	1
239	239	1
204	217	1
18	19	1
9	9	1
28	28	1
210	211	1
54	66	1
142	142	1
196	198	1
31	42	1
105	106	1
76	76	1
146	172	1
100	104	1
113	118	1
4	4	1
133	133	1
68	99	1
15	16	1
102	121	1
168	182	1
175	178	1
6	226	1
141	141	1
54	76	1
48	52	1
135	135	1
215	230	1
159	159	2
178	180	1
145	146	1
143	152	1
85	86	1
203	204	2
220	221	1
35	36	1
236	237	1
142	143	1
37	37	1
228	229	1
141	142	1
199	201	1
44	44	2
156	156	1
170	175	1
124	126	1
17	33	1
45	202	1
115	121	1
179	185	1
33	78	1
122	123	1
2	3	1
216	216	1
11	11	1
184	190	1
223	227	2
117	118	1
193	194	1
161	166	1
79	81	1
67	85	1
13	41	2
49	51	1
143	144	1
48	48	1
59	74	1
31	33	1
53	53	1
32	74	1
33	211	1
14	34	1
126	128	1
111	112	1
227	227	1
180	182	1
43	44	1
172	174	1
103	105	1
172	185	1
139	139	1
187	187	1
216	220	1
175	175	1
78	80	1
39	39	1
238	238	1
195	195	1
