123	148	2
57	57	4
39	39	3
135	135	2
4	4	1
149	149	2
47	47	1
42	42	1
12	12	6
98	98	5
132	132	3
14	15	3
14	14	2
110	110	3
68	69	1
93	93	2
6	8	1
111	111	2
115	116	1
138	140	1
63	67	1
123	124	2
99	99	1
38	38	1
121	121	4
94	148	2
28	32	1
15	16	2
57	87	1
94	128	1
43	43	3
29	29	5
66	85	1
106	107	1
124	125	1
106	106	4
53	152	1
67	67	3
53	53	4
106	115	1
83	83	1
39	51	1
105	112	1
138	138	1
79	84	1
16	30	1
18	19	1
154	154	2
97	97	2
152	152	1
6	7	2
36	36	1
54	54	4
125	125	1
27	28	2
16	16	1
97	98	2
87	87	6
25	126	1
25	33	2
77	78	1
44	44	3
82	82	1
68	68	2
126	126	1
35	36	1
132	134	1
84	84	2
80	80	2
151	151	2
111	149	1
142	146	2
81	85	1
17	66	1
37	37	2
55	56	1
104	104	1
64	69	1
49	109	1
97	139	1
110	111	2
2	2	1
109	109	3
54	55	2
66	66	2
75	85	1
146	146	2
130	130	1
99	102	1
8	8	4
111	114	1
11	16	1
54	150	1
124	124	4
45	45	3
141	142	1
48	51	1
95	95	3
8	135	1
47	48	1
137	137	1
40	40	4
4	8	1
115	115	2
73	73	2
32	32	1
75	87	1
131	131	1
61	83	1
134	134	1
124	129	1
33	33	2
26	26	3
27	57	1
24	24	1
21	21	1
145	146	1
14	30	1
127	127	1
143	145	1
22	22	1
150	150	1
145	145	1
147	150	1
113	113	1
94	96	1
125	128	1
137	138	1
25	25	1
136	136	2
13	13	1
144	146	1
136	137	1
41	43	1
141	146	1
41	42	1
101	101	1
93	96	1
70	71	1
12	18	1
120	123	1
79	79	1
118	118	3
148	149	2
28	36	2
15	15	1
122	122	1
102	102	1
20	22	1
74	78	1
63	63	1
139	139	1
41	41	3
23	86	1
106	122	1
114	114	1
148	148	1
70	70	1
142	145	1
7	31	1
25	26	1
88	96	1
141	141	1
107	110	1
24	30	1
134	135	2
75	76	1
77	77	1
150	152	1
74	74	1
112	112	1
153	153	3
30	31	1
77	79	1
3	8	2
102	121	2
129	129	2
20	20	1
27	27	1
142	142	1
120	122	1
130	150	1
100	114	1
81	82	1
96	96	1
49	49	1
51	69	1
23	23	1
112	113	1
123	123	1
31	33	1
128	128	1
100	129	1
18	41	1
5	22	1
72	72	1
123	144	1
108	108	1
