61	62	1
56	56	9
59	61	2
30	30	8
6	6	10
13	13	7
5	5	3
38	38	9
42	42	9
22	22	6
7	7	7
44	44	7
54	55	2
33	35	1
45	46	1
51	51	5
49	50	1
34	35	1
18	19	2
34	40	1
39	39	15
40	40	9
42	50	1
39	54	1
1	1	4
25	40	1
57	57	10
58	58	5
33	33	7
51	52	1
43	43	7
31	31	14
40	41	2
41	57	2
50	50	7
5	6	2
32	43	1
50	56	1
1	2	1
50	52	2
3	3	5
43	44	4
19	19	7
20	20	4
4	33	1
2	5	1
48	48	11
15	15	6
55	55	11
53	53	11
35	35	9
56	58	1
50	61	1
45	45	8
54	54	4
38	54	2
8	9	1
41	41	6
10	11	1
46	46	8
2	2	9
15	19	3
22	23	1
37	37	10
48	53	4
21	21	3
4	13	1
14	14	3
5	13	1
34	34	2
36	36	6
60	60	2
42	54	2
11	11	7
61	61	6
25	25	4
50	55	1
40	42	1
4	31	1
22	53	1
12	32	1
13	18	1
32	32	7
52	53	2
10	13	3
31	34	1
14	15	3
16	16	6
12	12	4
47	47	11
9	9	3
51	53	1
34	48	1
60	62	2
58	61	1
59	59	7
6	7	2
48	54	2
17	17	8
39	42	2
38	39	1
47	48	4
49	52	1
30	45	1
60	61	2
29	42	1
39	41	1
10	10	2
37	38	2
50	51	3
42	47	1
17	18	1
23	48	1
53	54	2
46	47	3
30	53	2
12	17	1
32	38	1
24	33	1
10	12	3
29	35	2
49	49	9
24	24	4
52	52	10
34	43	2
62	62	5
7	8	1
42	43	1
9	13	1
35	52	1
33	34	2
35	46	2
48	49	3
33	39	2
40	59	1
34	38	1
39	40	3
57	58	3
55	56	1
39	50	1
37	60	1
12	14	1
25	49	1
44	49	1
23	23	4
58	59	2
37	52	1
25	26	1
17	47	1
50	53	2
37	39	1
15	17	1
4	4	3
38	44	1
9	15	1
19	25	1
14	17	2
18	20	1
0	0	5
7	14	1
16	21	1
21	23	2
46	60	1
40	52	1
44	45	1
29	29	1
40	57	1
11	12	1
35	36	1
17	19	1
56	57	1
39	45	1
37	43	1
20	21	1
23	53	1
29	30	1
18	18	1
52	58	1
49	58	1
53	57	1
16	17	1
30	32	1
20	22	1
8	8	1
21	22	1
2	3	1
56	60	1
16	22	1
32	33	1
30	36	1
16	19	1
11	14	1
8	22	1
33	59	1
47	50	1
39	52	1
2	14	1
3	4	1
41	47	1
31	32	1
