10	10	5
92	92	4
56	56	1
104	104	2
25	25	1
119	119	4
4	6	2
99	99	3
94	94	5
8	37	2
3	4	3
44	45	1
120	126	2
79	80	1
9	11	2
50	50	7
115	115	1
84	85	2
48	48	3
68	70	1
87	87	4
73	73	6
101	101	2
76	76	7
29	30	1
93	93	4
7	8	1
13	13	3
71	72	2
123	124	1
97	97	3
47	47	2
107	108	1
118	118	3
44	44	2
134	134	3
77	77	1
22	22	2
16	88	1
127	127	2
55	55	2
76	77	2
63	63	4
54	55	1
5	21	1
38	38	1
27	27	2
105	106	1
58	58	4
72	72	4
111	111	2
24	24	4
32	32	2
0	11	1
69	69	4
8	8	2
29	34	1
1	14	1
130	130	2
57	69	1
66	66	3
80	80	7
35	35	4
122	123	3
67	68	1
19	19	3
13	37	1
70	70	3
23	52	1
71	71	4
59	59	4
120	120	1
83	83	2
30	52	1
125	125	2
128	130	2
0	1	2
54	67	1
81	81	1
72	73	2
31	31	3
108	127	2
43	43	3
108	108	4
56	59	1
5	5	2
88	91	1
45	45	5
94	95	1
95	95	2
82	84	1
86	87	4
124	124	3
91	93	1
65	110	1
79	79	4
92	94	1
50	66	1
58	84	1
21	35	2
129	129	3
69	109	1
98	99	3
12	32	1
46	46	1
84	86	2
12	30	3
23	25	2
31	34	1
52	53	2
44	50	1
46	50	1
8	67	3
74	74	5
63	64	2
82	82	1
77	82	1
15	15	2
66	67	2
103	103	1
9	10	2
68	85	1
11	98	1
78	79	1
85	86	2
31	32	1
57	58	1
49	65	1
122	122	2
106	112	1
64	65	3
21	21	1
33	33	4
102	102	1
96	110	1
105	105	2
58	59	1
69	82	1
85	85	3
65	65	3
126	128	1
109	135	1
71	78	1
90	96	2
1	2	1
16	16	2
108	109	1
4	9	1
128	129	1
37	37	3
75	75	4
4	5	1
93	94	1
12	17	1
113	118	1
133	133	2
34	34	1
78	78	2
52	77	1
61	97	1
27	38	1
84	116	1
107	113	1
57	61	1
28	37	1
7	12	1
4	4	2
6	26	1
20	20	2
14	14	1
111	112	1
32	33	1
23	24	1
21	27	1
6	6	1
2	3	3
122	124	1
55	83	1
26	26	1
3	5	2
53	54	1
82	83	1
49	71	1
64	69	1
77	78	1
60	61	1
130	132	1
6	34	1
55	68	1
6	13	1
73	74	2
115	119	2
29	29	1
54	57	1
59	62	1
63	87	1
107	107	1
96	108	1
113	113	1
10	28	1
47	71	1
61	61	1
60	64	2
22	24	1
75	76	1
64	68	1
60	60	1
93	111	1
121	121	1
109	129	1
106	106	1
30	30	1
128	135	1
68	68	1
17	17	1
7	13	1
1	3	1
28	28	1
44	74	1
5	7	1
9	9	2
15	16	1
11	27	1
12	14	1
110	110	1
60	69	1
61	65	1
62	78	2
112	112	1
78	82	1
17	18	1
36	36	1
38	58	1
53	61	1
126	126	1
11	11	1
79	91	1
27	49	1
78	86	2
62	62	1
91	91	1
33	35	1
83	96	1
84	84	1
83	84	1
18	34	1
20	23	1
1	1	1
118	127	1
126	127	1
