125	126	2
131	131	6
104	108	1
9	10	4
122	122	6
132	132	13
110	111	1
27	27	2
128	129	5
108	116	1
134	134	11
103	115	3
33	33	4
100	117	1
35	35	3
136	136	7
110	110	4
107	107	3
139	139	5
98	98	6
111	129	1
118	118	9
103	129	2
129	130	4
132	133	4
88	88	1
93	96	1
120	122	4
17	18	2
138	138	6
99	99	4
130	130	6
77	77	4
100	100	7
81	86	2
123	123	9
0	0	7
91	91	3
128	128	4
37	37	7
133	133	21
19	19	5
97	97	5
78	78	5
137	137	5
115	116	1
11	11	2
95	95	10
128	139	2
125	133	1
140	140	7
12	12	3
121	121	2
120	120	5
34	34	5
82	114	2
16	16	3
36	36	3
90	93	1
104	115	2
109	109	8
81	104	1
118	119	2
76	76	2
26	38	1
109	110	2
104	104	10
83	87	1
108	109	1
6	7	1
96	96	8
95	98	1
89	99	2
107	108	4
85	115	1
114	114	5
135	135	5
90	91	1
135	136	3
126	132	1
100	101	3
13	13	2
77	122	2
101	128	1
106	107	2
133	134	2
119	119	7
98	125	1
127	128	2
1	1	1
28	28	1
86	86	3
98	131	1
138	139	1
116	116	6
126	127	2
96	129	1
106	114	2
97	98	4
127	127	4
133	135	1
93	95	1
4	4	3
111	111	6
71	71	2
19	20	1
89	90	1
124	124	4
83	83	1
8	19	1
94	95	1
124	134	1
130	131	4
87	87	3
4	6	1
77	93	1
118	124	2
126	126	4
83	85	2
74	77	1
134	135	3
122	123	1
20	20	5
10	13	1
75	104	1
73	73	3
117	120	1
75	75	4
105	105	3
124	125	4
112	118	1
103	104	1
106	106	3
92	92	3
129	129	4
103	116	1
117	122	1
35	36	2
75	81	1
27	38	1
103	103	3
37	38	2
9	9	2
113	113	5
74	74	7
92	93	1
117	118	2
102	102	3
76	85	2
7	7	3
115	121	3
123	132	1
125	125	6
73	123	1
109	120	2
94	94	2
121	122	2
18	18	1
117	117	3
120	121	1
116	134	1
32	32	1
76	104	1
118	136	1
0	4	3
3	4	2
71	89	1
0	1	1
5	5	2
36	37	2
72	94	1
98	127	1
17	19	1
124	126	2
79	85	1
102	137	1
79	79	2
95	96	3
84	85	1
10	10	1
14	14	1
93	135	1
87	115	1
115	115	4
72	99	1
130	138	1
95	126	2
90	90	1
112	113	1
17	17	1
2	2	4
72	72	4
75	80	1
85	85	2
44	44	1
117	133	2
108	108	4
72	73	2
76	77	1
38	115	2
114	118	1
74	87	2
102	117	1
103	109	1
3	19	1
131	132	3
98	100	1
102	119	1
38	38	2
99	100	1
95	100	1
93	93	1
86	87	1
125	131	1
10	12	1
130	140	2
8	14	1
79	80	1
73	87	1
94	98	1
129	138	1
136	137	1
131	135	1
71	96	2
9	12	2
103	108	1
114	116	1
109	121	1
37	99	1
14	15	1
86	88	1
15	16	1
3	6	1
80	80	1
27	34	1
123	131	1
86	115	1
33	34	1
117	123	1
104	111	1
104	109	1
116	133	1
6	6	1
38	128	1
82	82	1
99	101	1
