63	63	1
116	116	2
113	113	1
107	107	2
82	82	2
119	119	2
106	106	2
37	37	3
110	110	1
145	145	2
152	163	2
179	179	2
83	83	2
36	36	5
5	5	3
67	67	1
6	6	6
65	65	3
173	174	1
10	11	1
8	9	3
66	67	2
170	171	1
145	146	2
87	89	1
10	10	2
141	145	2
121	126	2
67	75	2
102	102	5
57	57	3
6	7	2
169	169	3
132	132	2
26	45	2
31	31	2
119	121	1
5	6	3
32	32	4
122	148	1
162	163	1
1	2	4
24	36	1
163	163	4
16	16	3
8	8	2
13	13	3
41	42	1
137	138	2
60	169	1
132	138	1
11	45	2
32	33	2
114	147	1
140	158	1
11	12	1
2	5	1
59	84	1
160	160	2
56	56	1
150	150	1
123	123	1
45	45	2
35	40	1
1	1	3
6	8	1
35	35	3
53	53	1
115	115	2
95	95	1
11	42	1
11	11	3
126	158	1
160	162	1
18	18	6
123	124	2
168	168	1
73	75	1
43	43	2
71	140	2
14	31	1
0	0	2
91	92	1
108	108	1
92	93	1
27	27	1
96	97	2
2	2	2
30	31	1
121	121	1
147	148	1
50	50	2
120	120	2
4	4	3
143	169	1
101	105	1
61	149	1
85	85	1
127	127	1
67	68	1
77	80	1
79	89	1
93	93	2
151	151	2
33	33	2
66	68	3
120	124	1
73	121	1
167	167	2
58	59	2
105	106	1
27	30	2
83	84	1
59	59	2
130	131	1
61	61	3
38	66	1
92	113	1
9	9	4
110	121	1
146	154	2
118	118	1
112	112	1
149	149	2
166	167	1
163	167	1
111	111	2
15	15	2
52	53	1
139	139	2
21	22	1
88	88	2
64	98	1
125	126	1
19	19	1
43	44	1
122	125	1
117	117	2
128	144	1
42	42	3
142	157	1
144	144	1
3	3	1
130	158	1
171	172	1
131	169	1
81	150	1
172	172	2
72	108	1
141	141	3
163	164	1
28	28	1
18	19	2
3	4	1
74	88	1
146	151	1
173	173	1
46	46	1
126	141	1
154	154	2
39	64	1
51	51	2
126	169	1
7	8	1
142	143	2
20	20	1
137	177	1
153	153	1
17	17	1
105	109	2
162	162	1
43	50	2
76	79	1
76	77	2
42	45	1
140	140	1
60	168	1
97	97	3
38	38	2
41	41	2
86	87	1
39	40	1
55	109	1
98	98	1
146	162	2
153	166	1
14	15	1
166	166	1
115	116	1
62	62	1
103	104	2
136	136	2
157	158	1
27	28	1
136	139	1
14	14	2
60	61	1
34	34	1
56	151	1
76	82	1
23	23	2
76	80	1
119	120	1
2	53	1
96	113	1
72	72	2
133	134	1
77	77	1
25	26	1
95	120	1
31	42	1
66	66	1
22	22	1
7	7	1
40	40	4
165	166	1
105	105	1
140	141	1
71	108	1
34	35	1
17	18	1
138	139	1
176	176	1
134	135	1
144	145	1
89	90	1
39	39	1
37	38	1
96	96	1
117	118	1
143	143	1
1	4	1
109	110	1
51	64	1
178	178	1
104	104	1
159	159	1
116	118	1
114	116	1
104	176	1
148	148	1
44	45	1
0	32	1
7	9	1
176	177	1
131	131	1
111	125	1
153	154	1
93	94	1
2	16	1
150	154	1
110	120	1
57	58	1
102	103	1
126	127	1
61	63	1
0	5	1
56	106	1
94	94	1
