32	32	8
156	156	2
184	207	1
209	247	1
59	59	3
160	160	3
22	23	3
28	28	4
162	162	5
178	187	1
194	194	2
78	78	3
209	209	5
4	4	2
116	117	1
152	152	2
181	186	1
112	112	5
17	227	1
244	244	6
33	33	6
84	85	1
105	108	2
168	169	2
72	73	1
155	155	3
208	246	2
45	45	4
118	120	1
234	234	1
196	196	3
151	151	3
202	202	2
186	186	2
204	204	8
105	106	2
18	18	3
75	75	2
199	199	1
117	118	1
46	46	5
166	166	3
222	232	1
110	110	3
14	15	1
53	67	2
78	92	1
189	192	2
21	234	1
205	205	2
198	198	2
35	35	3
55	55	4
27	27	6
150	150	2
27	28	2
197	197	1
211	211	3
73	74	1
236	236	4
231	231	4
220	235	1
98	98	1
153	153	1
208	208	2
109	109	2
233	234	1
31	31	6
223	224	2
240	240	1
242	246	1
5	5	8
92	93	1
187	187	3
31	33	1
48	48	5
58	59	4
12	12	5
58	58	2
50	50	2
53	167	1
226	226	2
233	233	1
19	19	1
88	88	3
34	34	4
11	11	5
90	90	3
23	23	2
169	172	1
32	33	2
49	50	1
230	231	2
166	181	1
15	16	2
179	179	1
161	161	3
246	246	1
212	212	4
10	113	1
56	56	2
196	220	1
14	14	2
175	232	1
228	228	6
120	120	4
213	213	1
193	194	1
26	26	2
154	154	4
8	8	2
24	24	1
116	118	1
72	74	1
32	34	1
63	63	2
81	82	1
200	200	2
12	40	1
165	169	2
237	240	2
97	97	1
47	47	2
232	232	1
91	91	2
20	20	2
210	211	1
103	103	2
212	231	1
174	174	1
100	100	3
59	227	1
70	71	2
41	41	5
176	177	3
16	17	1
150	151	2
169	169	2
247	247	1
118	118	1
212	213	1
43	43	5
230	230	2
214	218	1
194	210	1
117	117	3
114	115	4
181	181	1
155	165	1
228	229	1
210	210	2
208	214	1
218	218	2
38	38	2
176	176	1
180	180	1
68	68	5
11	13	1
203	207	1
71	71	1
215	218	1
101	101	3
20	21	1
44	44	4
189	193	2
235	235	4
39	44	1
67	67	4
90	100	1
110	114	1
214	214	2
237	237	1
21	21	4
197	198	2
209	245	2
53	53	2
28	38	1
158	199	1
236	239	1
201	201	4
186	187	1
9	9	3
36	36	4
192	192	2
54	54	4
79	79	1
211	214	1
113	113	4
42	42	3
175	175	1
229	229	2
197	225	1
157	157	1
58	74	1
36	92	1
168	214	1
204	213	1
203	204	1
8	22	1
7	7	1
115	115	2
174	175	1
39	39	2
87	101	1
38	173	1
186	193	1
25	25	1
26	31	1
63	65	2
238	238	3
90	93	1
185	185	1
224	224	3
94	94	3
245	245	2
37	38	1
241	241	4
75	76	1
163	163	1
156	226	1
76	77	2
30	30	4
173	173	6
88	101	1
195	195	2
21	204	2
182	201	1
151	152	1
98	170	2
60	60	3
113	117	2
40	40	3
219	219	1
116	116	2
57	57	2
175	184	1
1	1	2
96	96	2
172	173	1
216	216	1
177	191	1
81	81	1
69	89	1
220	232	1
69	69	1
180	183	1
165	166	2
111	111	3
177	177	1
107	108	1
227	227	1
168	168	1
165	165	1
51	51	1
71	91	2
162	165	1
247	248	1
59	60	1
106	107	2
204	205	1
91	92	1
220	223	1
6	7	1
22	22	2
25	183	1
188	188	1
155	229	1
86	99	1
196	212	1
185	231	1
233	235	1
173	191	1
191	191	2
19	20	1
119	119	2
22	31	1
227	228	2
223	223	1
167	167	3
183	206	1
226	228	1
90	91	1
61	62	1
213	235	1
203	231	1
241	242	1
87	88	1
203	203	1
68	69	1
60	62	1
156	159	1
218	219	1
158	160	1
182	182	1
49	49	2
189	189	1
25	203	1
100	164	2
10	10	2
83	86	1
74	74	1
246	249	1
229	230	1
190	197	1
204	211	1
163	164	1
76	85	1
29	44	1
166	167	1
94	98	1
178	179	2
217	217	1
52	52	2
179	188	1
107	107	1
160	161	1
24	25	1
3	3	1
159	159	2
17	17	1
206	207	1
71	75	1
61	61	1
86	86	1
36	236	1
16	16	1
164	164	1
174	176	1
64	66	1
208	245	1
172	172	1
210	217	1
222	236	1
178	228	1
235	238	1
77	78	1
178	178	1
207	228	1
188	189	1
145	145	1
62	62	1
221	221	1
213	215	1
47	50	1
95	96	1
74	102	1
246	247	1
222	222	1
