89	89	4
59	59	2
156	156	1
160	160	5
70	71	1
151	151	3
131	139	1
24	26	1
102	102	2
23	23	4
79	138	2
110	117	1
177	177	5
24	24	3
99	104	2
167	167	2
169	169	4
96	109	1
104	110	1
16	33	2
112	112	2
77	77	2
28	28	5
2	2	4
45	85	1
90	90	1
9	23	1
171	171	4
134	134	4
44	44	3
94	95	1
152	152	3
174	179	1
6	7	1
126	126	2
130	154	1
125	125	1
92	92	1
131	131	2
170	171	1
158	158	2
103	103	3
105	105	1
8	10	1
139	139	1
124	124	4
12	13	1
52	52	1
110	110	2
148	170	1
17	17	1
14	42	2
96	115	1
65	65	3
178	179	2
39	44	1
92	93	1
148	149	2
67	67	3
34	34	4
71	71	4
43	43	2
107	107	3
99	99	1
83	83	4
57	58	1
176	176	3
96	96	2
106	106	2
161	163	2
89	92	1
29	29	4
49	84	1
108	108	4
80	80	3
49	49	2
6	22	1
157	158	1
140	140	3
15	15	1
12	12	1
20	25	1
148	151	1
32	32	2
178	178	1
11	24	1
143	146	2
61	61	3
66	66	2
11	11	3
104	104	1
18	23	1
45	45	2
55	55	1
163	163	1
164	167	1
168	169	1
153	153	1
131	145	1
86	86	1
130	159	1
90	93	1
16	21	1
150	150	1
21	88	2
74	74	1
59	60	1
28	33	1
137	138	1
42	42	2
143	143	1
67	68	1
42	43	1
138	138	1
0	0	2
87	87	1
161	161	1
4	4	1
158	163	1
25	25	2
149	150	4
129	129	2
165	165	2
95	111	1
115	123	1
147	154	1
150	151	1
12	36	1
84	85	2
19	19	1
180	180	1
160	163	1
64	130	1
38	38	1
91	100	1
128	128	1
20	32	1
78	78	3
72	72	3
142	142	2
91	91	1
19	45	1
81	134	1
106	107	1
122	122	2
133	134	1
9	9	2
20	20	1
137	137	2
114	115	1
28	30	1
3	35	1
97	120	1
133	133	1
59	91	3
18	18	3
3	176	1
20	22	1
19	32	2
73	73	1
98	103	1
88	106	1
113	113	1
21	21	1
179	179	1
50	52	1
173	173	1
170	170	1
172	172	4
99	100	2
34	37	1
35	35	3
122	141	1
81	81	1
85	91	1
24	33	1
129	155	2
121	121	1
75	75	1
168	168	1
141	141	2
114	114	2
113	114	1
174	174	1
110	129	1
119	119	2
57	57	1
118	118	2
100	100	2
4	8	1
2	4	1
36	36	1
165	166	1
109	110	1
152	154	1
30	30	2
22	44	1
123	124	1
13	13	1
110	111	1
146	146	1
11	13	1
161	162	1
84	86	1
121	122	1
157	157	1
10	13	1
30	31	1
64	64	1
93	94	1
5	5	2
154	154	1
41	45	1
79	79	1
16	17	1
111	118	1
119	144	1
136	136	1
53	54	1
27	62	1
3	14	2
29	31	1
101	103	1
63	63	1
116	117	1
96	121	1
127	128	1
111	111	1
16	37	1
3	3	1
95	108	1
123	123	1
10	10	1
