181	181	2
88	89	3
144	154	1
193	193	2
45	45	6
197	197	11
129	132	1
35	35	12
146	146	2
181	182	1
121	121	5
9	9	5
3	4	2
131	131	3
14	14	12
20	20	6
52	52	6
54	54	4
26	26	6
40	40	8
36	36	8
146	165	2
61	89	1
86	86	2
8	9	1
21	21	9
144	145	2
158	158	7
9	14	2
111	111	3
187	187	8
126	127	4
115	115	8
125	125	3
149	150	2
76	76	3
25	25	8
89	89	4
157	158	3
144	144	1
179	179	2
175	176	2
74	74	4
50	50	4
42	42	4
24	25	6
105	105	2
14	15	5
72	72	3
0	0	2
30	30	4
64	64	4
75	75	4
102	102	6
171	171	8
84	86	1
14	45	1
191	192	3
44	57	1
140	141	3
11	12	3
138	139	2
11	13	1
186	194	1
195	195	6
182	193	1
185	193	1
173	173	5
12	12	6
62	62	3
178	178	2
137	146	1
31	33	3
4	4	4
0	1	1
5	5	9
139	139	7
124	127	1
23	24	2
64	65	1
129	129	1
139	140	1
167	167	8
152	171	2
76	85	1
103	103	4
153	153	3
182	182	6
176	176	4
11	17	1
46	141	1
160	160	1
43	60	2
156	156	8
20	39	1
28	28	4
43	43	9
188	188	4
108	108	2
71	71	3
194	194	3
196	196	4
18	18	3
69	69	4
15	15	5
37	37	11
172	172	6
54	61	1
33	34	1
67	68	1
44	44	9
122	122	6
43	44	2
123	124	4
51	51	5
165	165	2
58	71	1
9	38	2
42	58	1
34	34	1
154	154	6
119	119	3
1	30	1
1	3	3
192	192	4
69	80	1
99	100	1
169	169	2
27	28	2
9	12	2
13	47	2
69	117	3
114	115	3
11	11	9
17	17	6
37	38	2
130	140	1
129	169	1
70	70	2
177	177	1
68	68	5
97	153	1
58	64	1
32	47	2
189	190	2
152	153	1
12	13	2
180	189	1
114	118	1
78	78	3
174	174	5
83	84	4
28	32	1
97	100	3
76	78	1
116	116	1
87	111	1
61	61	6
27	27	5
71	73	1
134	134	5
11	101	1
159	160	1
41	41	6
165	166	3
16	20	1
170	170	7
131	138	2
0	3	1
97	97	2
13	13	9
46	46	9
135	135	3
166	166	8
173	174	2
184	184	3
5	8	2
155	155	3
39	40	2
7	7	7
60	61	2
93	134	1
100	100	4
183	183	6
6	6	8
156	170	1
192	193	1
52	57	1
83	83	2
4	5	1
112	113	2
29	30	3
27	29	1
142	142	4
152	163	1
65	65	2
124	125	3
167	191	2
138	138	6
130	139	3
136	137	1
107	107	3
32	32	3
156	196	1
24	24	7
23	39	1
41	97	3
140	140	5
178	179	1
183	185	1
69	71	1
109	109	6
176	192	1
189	189	2
86	88	1
59	59	1
77	77	1
59	60	1
134	148	2
34	35	2
190	190	1
87	87	2
104	104	3
112	139	2
23	23	11
55	65	1
45	46	2
141	141	3
63	66	1
44	170	1
38	38	2
176	190	1
161	162	3
27	43	1
100	101	1
58	58	4
10	10	3
110	110	4
3	3	3
12	36	1
49	49	4
61	62	1
39	45	1
33	37	1
70	99	1
191	193	1
148	148	1
82	82	2
37	196	1
38	39	4
63	65	1
47	47	5
50	51	2
149	149	3
97	98	2
116	117	2
43	100	1
98	109	1
155	191	1
33	33	5
117	147	1
55	139	2
182	184	2
102	103	1
13	123	1
101	101	1
79	80	2
26	27	3
30	31	1
8	8	4
29	29	5
58	62	1
63	63	1
38	44	2
161	186	1
101	102	2
35	36	1
123	123	4
53	56	1
39	39	5
154	156	1
53	71	1
48	48	2
176	177	1
33	151	1
179	192	1
103	104	1
113	113	3
132	182	1
138	195	1
146	148	3
118	118	3
38	42	2
196	197	2
10	11	1
0	2	2
60	60	1
73	73	1
22	23	2
128	128	5
126	126	2
142	149	1
96	96	2
74	75	1
180	192	1
93	94	2
2	5	1
185	185	1
153	163	1
57	57	1
75	76	1
168	169	1
99	111	1
85	85	2
80	80	2
53	53	3
93	100	2
93	93	2
141	183	1
124	124	3
156	157	2
22	22	2
194	195	1
168	168	2
15	134	2
145	145	4
16	16	3
84	84	1
1	8	2
141	171	1
1	1	3
127	127	3
179	181	1
182	183	2
159	159	3
129	130	1
99	99	6
166	175	1
170	171	2
180	180	2
187	188	1
129	141	1
157	157	2
117	117	2
126	136	1
71	72	1
0	8	1
51	53	1
174	175	1
163	166	1
9	10	3
120	120	4
19	19	2
105	106	2
133	133	2
169	170	2
132	132	4
126	128	1
150	170	1
130	130	3
159	169	2
136	136	1
16	17	2
41	56	1
96	97	1
60	77	1
59	76	1
28	29	3
11	39	1
55	112	1
27	40	1
117	137	1
46	47	1
35	41	1
21	24	1
3	8	1
163	163	2
1	2	1
114	114	2
14	46	2
112	114	1
127	139	1
14	38	1
47	129	1
147	147	2
166	189	1
146	147	1
171	172	2
69	77	1
106	106	1
70	71	2
172	174	1
152	184	1
182	186	1
20	23	1
56	56	1
119	120	2
109	110	2
6	7	1
163	164	1
68	72	1
55	77	1
40	42	2
14	16	1
74	158	1
182	197	1
72	73	1
155	156	1
9	13	1
19	25	2
77	78	4
18	19	3
31	31	3
73	74	1
9	45	2
33	36	2
24	68	1
158	159	1
29	111	1
3	157	1
31	32	1
67	67	1
136	139	1
154	155	1
152	152	3
98	167	1
33	35	1
118	119	2
55	55	2
15	16	3
21	26	1
42	43	1
189	193	2
20	32	2
164	164	1
161	161	1
185	186	2
106	109	1
132	133	1
13	45	2
131	135	1
122	124	1
17	18	1
143	145	1
150	169	1
186	187	1
121	122	1
2	41	1
42	78	1
16	28	1
143	148	1
79	79	1
152	156	2
55	62	1
157	179	1
4	13	1
193	194	1
114	136	1
109	112	1
34	64	1
18	174	1
141	151	1
127	128	1
151	156	1
166	167	1
167	169	1
150	150	1
143	155	1
94	95	1
40	77	1
49	50	2
146	150	1
101	112	1
57	127	1
150	157	1
98	99	1
143	144	1
18	160	1
11	38	1
54	62	1
4	7	1
187	193	1
73	77	1
110	111	2
83	86	1
177	185	1
106	118	1
19	24	1
178	180	1
48	49	1
73	183	1
76	77	1
2	30	1
12	70	1
40	41	1
33	46	1
81	81	1
94	94	1
7	8	1
126	138	1
22	36	1
20	138	1
