136	136	2
123	123	4
56	56	3
16	16	2
19	139	1
130	130	2
32	32	4
66	95	2
37	37	8
122	122	2
104	105	3
75	75	3
14	16	1
102	102	5
48	48	2
9	15	1
29	29	3
118	118	2
17	17	1
47	48	4
20	21	1
33	33	2
135	135	4
93	94	2
134	134	3
49	49	3
71	72	2
30	37	1
6	37	1
57	57	2
119	119	2
51	51	1
98	98	3
130	136	1
60	61	1
65	65	3
136	137	2
19	19	2
80	104	1
94	94	1
77	77	2
40	41	6
19	20	1
126	139	1
116	117	3
54	67	1
113	114	2
111	111	2
55	55	3
125	125	2
28	28	6
74	74	4
2	3	1
67	67	5
59	59	1
11	11	5
81	81	2
40	40	2
90	92	1
67	68	2
73	73	2
46	47	1
78	78	1
107	108	2
128	128	2
69	71	1
13	13	6
99	99	4
103	140	2
72	73	1
129	129	2
22	22	2
18	111	1
28	32	1
23	25	1
131	132	6
141	143	1
134	141	1
62	66	1
118	131	1
30	30	2
76	76	4
24	24	3
126	126	3
124	125	3
13	15	2
141	142	1
116	116	3
108	108	1
66	66	2
35	35	1
23	24	1
90	90	1
120	121	1
52	52	2
133	134	2
127	127	4
61	61	4
47	65	2
24	33	1
143	144	1
97	97	2
87	90	1
38	38	1
8	8	2
143	143	3
23	23	1
62	62	1
5	5	8
60	60	1
102	103	2
20	20	4
117	117	1
15	16	1
27	27	5
128	130	1
119	132	1
41	41	2
71	71	3
36	37	2
75	79	1
119	134	1
46	48	1
36	36	1
124	124	1
13	14	1
58	101	1
120	120	3
110	110	2
8	9	1
3	16	1
118	119	1
76	77	1
141	141	3
64	64	2
144	144	2
92	92	1
10	10	2
39	39	2
64	67	1
125	126	1
74	91	1
26	27	1
145	146	1
80	80	3
28	93	1
23	37	1
85	85	1
37	38	3
93	93	3
49	77	1
113	113	1
91	91	2
9	10	2
8	38	1
87	87	2
6	6	3
99	134	1
58	58	1
53	53	1
47	47	4
91	92	1
42	42	2
83	84	2
135	138	1
119	139	1
50	51	2
33	34	1
4	4	1
41	43	1
84	85	1
12	12	2
31	31	1
50	50	2
78	105	2
47	71	1
132	132	1
18	18	2
86	89	1
6	38	1
140	140	2
19	49	1
68	68	2
84	84	1
64	66	1
117	134	1
48	62	1
68	75	1
131	131	1
112	114	1
69	69	1
34	34	1
66	67	1
128	129	1
94	117	1
106	108	1
107	123	1
139	140	1
70	70	2
101	103	1
58	67	1
35	63	1
136	138	1
35	36	1
49	52	1
58	59	1
65	68	1
95	95	1
119	120	1
5	36	1
0	1	1
82	82	1
1	27	1
138	139	1
87	89	1
10	11	2
56	64	1
130	140	1
73	79	1
109	110	1
73	78	1
137	137	1
69	96	1
15	35	1
68	70	1
