48	54	1
58	66	2
91	91	30
51	51	4
96	98	3
45	45	6
66	67	2
56	65	2
96	96	7
42	51	2
95	95	5
91	92	6
90	92	2
105	112	2
113	113	10
33	45	1
109	109	7
26	26	8
78	81	1
111	111	3
21	22	5
81	82	3
99	99	6
50	50	2
85	86	2
100	109	2
36	39	2
66	90	1
91	93	4
31	37	1
90	90	19
26	80	1
24	24	6
101	101	6
102	102	4
44	44	6
46	46	5
33	105	4
31	32	3
107	107	7
93	93	8
28	41	1
109	110	2
66	71	1
79	84	1
97	97	4
19	24	1
76	76	1
104	107	1
42	45	1
78	78	2
100	100	6
56	56	2
75	75	4
33	44	3
104	106	2
77	80	2
37	48	3
89	91	1
108	108	6
35	35	2
97	106	1
43	44	1
50	71	1
54	54	3
58	59	1
85	85	1
23	24	1
90	91	9
32	32	2
22	45	1
81	81	4
72	72	2
103	104	2
40	40	2
32	33	1
74	74	6
30	30	3
93	108	4
112	112	2
29	44	2
87	87	1
108	111	1
25	25	4
103	103	4
46	49	1
101	105	1
110	110	5
35	45	2
43	43	5
98	99	2
37	37	3
79	79	7
69	80	1
81	90	5
80	80	4
55	55	1
61	64	1
33	35	1
66	98	2
65	65	4
28	28	4
83	92	1
99	111	2
22	24	1
22	22	6
22	30	2
88	88	3
83	83	2
106	107	2
94	94	3
67	67	2
56	57	1
92	106	1
77	77	1
94	95	1
89	93	1
46	47	2
103	107	1
85	87	1
38	38	3
50	51	2
113	114	3
57	80	1
24	27	1
58	70	1
26	27	2
47	48	1
30	47	3
25	32	1
103	105	1
105	107	1
63	63	5
104	104	2
60	60	5
111	112	1
72	76	1
39	41	1
57	58	2
93	94	1
61	63	2
61	61	3
62	89	1
71	73	1
91	103	1
70	70	4
37	38	1
81	91	4
20	30	1
106	106	2
95	96	1
82	82	1
56	59	1
98	98	3
92	92	11
41	41	4
21	21	2
43	53	1
42	44	1
52	52	6
63	66	3
48	49	1
69	70	1
21	46	2
70	73	1
104	108	2
69	71	1
69	69	2
47	47	3
28	44	1
33	33	3
81	85	1
85	88	1
58	58	1
89	90	2
83	102	1
37	60	1
101	104	1
20	20	2
62	62	3
57	57	3
22	50	1
52	53	1
66	66	2
65	66	1
105	106	1
110	111	1
74	75	2
107	113	1
76	79	1
41	47	1
58	64	2
97	99	1
42	47	1
105	105	2
61	66	1
39	39	3
49	49	5
38	76	1
78	109	1
27	28	1
59	78	1
33	36	1
89	95	1
34	34	2
86	86	2
81	86	1
54	56	1
19	21	1
50	52	1
48	50	1
82	84	2
49	53	2
55	74	1
82	83	2
31	82	1
33	39	1
36	40	1
48	57	1
43	46	1
62	86	1
35	37	1
86	97	1
32	34	1
54	107	1
45	65	1
48	48	2
32	38	1
76	80	1
63	64	1
95	102	1
53	53	1
77	79	1
51	61	1
29	29	3
27	27	1
35	68	2
98	100	1
54	65	1
53	57	1
23	51	1
66	89	1
51	80	1
85	90	1
71	74	1
91	98	1
49	50	2
45	49	1
99	100	1
94	106	1
103	106	1
52	54	2
33	38	2
108	110	2
63	102	1
36	43	1
38	40	2
79	81	1
111	114	1
34	35	1
79	80	1
72	73	1
86	105	1
25	27	1
84	85	1
73	74	1
92	93	1
23	23	1
31	31	1
49	51	1
90	93	3
58	90	1
22	23	1
54	55	1
30	52	1
47	77	1
71	72	1
80	82	1
106	113	1
57	62	2
65	67	1
25	26	1
68	78	1
59	82	1
57	95	1
71	71	2
51	57	1
55	56	1
41	44	1
42	42	2
89	89	1
41	45	1
92	108	1
35	59	1
57	81	1
77	100	1
79	86	1
67	68	1
90	108	1
81	93	1
90	100	1
81	92	1
