34	34	4
103	105	2
3	3	5
26	26	3
33	33	3
67	67	1
23	24	2
7	7	5
5	13	1
67	87	1
101	101	2
0	0	3
79	79	4
127	127	5
11	11	2
105	105	2
123	124	1
43	61	1
7	9	1
120	121	5
128	134	1
90	90	2
75	88	1
133	133	2
23	23	12
94	94	3
68	69	3
88	88	2
82	82	2
69	70	3
99	99	1
15	16	2
77	78	1
72	72	6
117	117	1
37	53	1
31	31	1
53	53	2
24	24	3
63	63	3
68	68	2
115	115	2
18	19	1
44	44	8
30	30	5
29	30	1
96	96	1
78	78	8
83	83	3
87	87	5
82	100	2
45	45	4
27	27	1
80	80	6
108	108	2
92	92	3
97	99	2
119	120	1
81	81	3
101	102	1
49	49	6
98	99	2
59	59	9
30	32	1
62	73	1
84	84	3
120	120	1
50	50	12
7	8	4
67	68	1
132	133	1
74	74	2
24	27	1
6	6	5
52	52	5
26	36	1
129	130	2
112	112	9
98	98	3
124	124	2
110	110	4
32	32	3
64	64	2
16	16	2
130	131	1
32	33	2
8	13	2
60	60	6
22	29	4
25	25	2
81	94	1
93	93	1
90	92	1
106	111	2
116	116	3
13	28	1
51	63	1
116	127	1
92	93	1
65	65	8
90	91	1
71	71	7
25	26	1
23	25	1
128	128	2
73	73	3
63	64	1
43	43	3
125	126	1
97	98	1
111	112	1
7	12	1
10	10	2
86	87	5
62	62	4
54	55	1
70	70	2
33	34	2
46	134	1
54	54	7
104	104	2
66	67	2
116	119	1
50	51	1
34	38	1
28	28	3
20	20	1
9	9	4
28	29	1
124	131	1
78	119	1
66	66	1
17	18	1
14	15	2
122	123	1
75	75	1
107	107	3
21	21	2
4	4	1
130	130	2
1	1	3
112	118	1
21	22	1
43	76	1
110	111	1
5	5	3
12	12	2
102	102	2
61	62	1
77	77	2
76	77	1
134	134	2
83	87	1
53	57	1
63	65	1
22	22	2
8	9	2
106	106	1
99	100	1
55	59	1
53	87	1
0	1	1
96	98	1
8	8	2
19	20	1
58	58	2
18	18	2
100	100	1
30	31	2
73	74	1
64	66	1
17	17	2
11	12	1
7	37	1
69	71	1
81	82	2
13	13	3
63	72	1
32	34	1
85	86	1
19	19	1
35	38	2
96	115	1
7	21	1
85	85	2
103	103	3
112	114	1
53	56	1
16	33	1
82	84	1
35	37	1
46	47	1
29	29	1
15	15	1
13	14	1
122	122	1
35	35	1
86	86	4
113	115	1
34	35	1
70	72	1
64	84	1
91	91	1
1	72	1
119	119	1
55	55	1
82	91	1
49	50	1
129	129	1
56	56	1
7	11	1
54	56	1
66	68	2
25	44	1
19	21	1
37	37	1
59	60	1
38	38	1
32	74	1
36	36	1
69	69	1
131	131	1
89	89	1
96	97	1
132	132	1
114	114	1
111	117	1
87	88	1
76	76	2
