84	90	1
68	70	1
44	45	1
129	130	2
134	134	5
105	105	6
131	133	1
155	155	5
127	127	7
6	6	1
135	135	4
154	154	4
9	9	1
18	18	2
31	31	1
141	141	4
17	17	3
45	45	2
100	100	6
63	63	2
113	114	1
146	147	1
85	85	1
151	151	3
126	129	1
8	21	1
25	25	5
82	82	2
138	138	3
3	152	1
116	128	1
102	102	1
7	7	3
106	112	1
121	121	2
137	137	4
39	39	1
12	13	1
126	126	4
99	99	3
89	90	2
97	103	1
73	73	2
20	20	3
106	106	5
117	117	2
68	68	4
68	82	1
33	33	2
8	8	5
83	84	2
7	8	1
69	69	1
45	91	1
53	53	3
41	41	1
109	109	4
37	37	2
140	140	2
24	72	1
62	63	1
80	82	1
70	70	1
7	117	1
38	38	2
133	134	1
77	77	5
30	31	2
136	142	1
128	128	2
130	130	5
32	32	2
1	1	1
47	47	1
93	94	1
145	146	2
142	142	1
43	43	2
138	139	1
90	90	3
52	52	1
145	145	1
107	111	2
49	49	2
115	115	3
109	111	1
43	77	1
0	0	1
156	156	4
146	148	1
150	150	1
13	14	1
153	153	2
114	115	2
119	119	2
85	88	1
111	111	2
55	55	4
39	51	1
51	52	1
77	91	2
38	55	2
154	155	3
30	30	2
93	93	4
50	51	1
86	141	1
152	152	2
127	143	1
10	31	1
144	146	1
118	118	2
99	112	1
4	4	2
8	38	1
78	78	1
96	96	1
92	119	2
120	120	2
125	126	1
137	142	1
143	143	1
131	131	2
94	114	1
142	145	1
51	51	1
37	48	1
26	44	1
144	144	4
113	113	1
149	149	4
3	3	1
12	41	1
105	115	1
88	88	1
85	86	1
67	67	1
149	155	1
81	81	1
14	14	1
42	42	1
22	36	1
112	113	1
87	87	2
79	80	1
108	108	1
144	147	1
98	99	1
157	157	1
43	56	1
48	50	1
10	10	1
17	62	1
36	37	1
132	132	2
36	41	1
2	2	2
50	50	1
136	136	2
21	21	2
90	154	1
15	15	2
132	150	1
65	65	2
123	123	1
132	138	2
12	20	1
75	75	2
120	141	1
117	137	1
104	104	1
8	9	1
116	120	1
9	11	1
46	53	1
139	139	1
141	144	1
137	138	1
132	133	1
21	37	1
29	29	3
40	63	1
35	43	1
116	116	2
94	136	1
94	109	1
62	62	1
147	147	1
53	54	2
110	110	2
11	13	1
7	23	1
103	103	1
78	121	1
12	12	2
71	71	1
5	6	1
79	79	1
29	50	1
76	100	1
66	66	1
99	100	1
36	39	1
109	120	1
113	120	1
65	66	2
48	48	1
69	70	1
86	86	1
