16	18	1
154	155	1
121	124	3
73	77	1
92	96	1
176	180	1
123	125	2
90	90	3
52	52	2
50	50	2
102	107	2
24	24	3
140	142	1
55	55	4
123	123	3
36	36	3
66	66	2
172	172	3
61	63	1
88	133	2
20	30	2
166	166	1
143	144	1
73	88	1
95	96	2
104	104	2
86	86	3
93	94	1
39	39	4
84	109	1
111	111	2
146	146	5
94	94	1
171	174	1
49	50	1
91	91	5
66	67	2
176	176	9
151	151	2
78	79	2
159	159	1
107	129	1
37	38	2
173	173	5
118	118	2
37	37	3
156	156	3
88	88	3
143	146	2
143	168	1
80	80	3
77	89	1
108	108	1
177	178	1
37	39	1
101	107	2
10	16	1
154	154	1
74	76	1
12	13	3
72	178	2
99	99	1
140	141	1
149	159	2
67	67	4
11	11	4
11	103	1
3	3	3
101	101	2
139	140	2
65	66	3
80	86	1
135	135	1
8	8	1
12	23	2
161	171	1
11	13	2
35	35	1
72	73	1
93	112	1
82	82	1
51	51	5
144	144	4
134	134	3
90	105	2
45	45	3
141	141	1
39	41	1
1	71	1
113	113	4
131	148	1
15	15	4
92	93	2
93	130	1
41	41	6
114	116	1
96	101	1
88	91	4
71	71	2
116	116	3
30	30	3
160	160	1
84	108	2
163	163	3
142	142	2
127	127	2
43	46	1
162	162	1
110	110	3
150	151	1
124	126	1
6	6	3
115	115	4
54	55	1
117	117	6
34	35	1
99	101	1
137	137	3
14	14	1
109	127	3
77	77	1
143	143	3
154	156	1
109	110	1
104	161	1
71	72	1
78	78	1
53	54	1
59	59	3
71	134	1
54	54	2
63	63	1
133	133	3
155	157	2
107	107	3
79	80	1
102	102	2
103	113	2
166	167	1
131	131	2
82	85	1
32	32	1
58	59	2
2	153	1
145	145	4
157	157	1
53	53	1
57	79	1
24	33	1
10	127	1
33	35	3
75	76	2
29	160	2
60	60	2
10	13	1
18	18	2
120	145	1
59	101	1
11	14	1
144	145	1
61	61	4
42	42	4
1	1	3
147	148	3
19	19	3
132	172	1
168	168	2
10	10	2
174	174	2
59	85	1
16	16	1
136	136	2
26	26	3
126	175	1
131	150	2
92	92	1
104	127	1
167	168	1
114	122	1
2	2	1
31	38	1
79	79	1
22	22	6
4	4	1
21	29	2
70	138	1
149	150	2
68	71	1
28	28	1
31	31	7
173	174	1
31	32	2
103	103	1
24	27	1
146	158	1
147	147	2
179	179	1
172	173	3
65	81	1
9	9	2
152	153	1
94	96	2
20	20	1
21	41	1
99	107	1
36	37	2
96	96	3
95	95	3
62	63	3
145	146	1
139	139	1
123	124	1
12	25	1
74	74	1
144	146	1
148	149	1
93	93	1
7	7	1
98	99	1
28	35	2
90	95	1
42	45	5
141	158	1
5	6	1
171	171	3
107	108	1
140	140	2
160	162	1
165	165	1
153	153	3
161	161	2
174	177	1
53	56	1
110	161	1
61	90	1
164	167	2
163	164	1
81	81	1
127	128	2
170	174	1
72	72	2
122	131	1
106	108	2
162	169	1
130	131	1
52	88	1
109	109	1
17	17	3
132	133	1
174	176	1
126	126	2
173	175	1
25	27	3
157	159	1
50	51	1
180	180	1
178	178	2
97	97	1
178	180	1
65	65	1
142	148	1
13	14	1
76	79	1
31	159	1
119	120	1
72	74	1
125	126	1
179	180	1
2	3	1
1	2	1
10	11	1
123	161	1
0	1	1
85	85	2
57	146	1
89	89	1
57	57	1
7	34	1
74	171	1
56	56	1
161	163	1
101	102	1
34	34	1
23	23	1
148	159	2
105	106	1
113	114	1
33	33	2
9	33	1
142	150	1
9	50	1
76	76	1
96	109	1
148	150	1
121	122	1
91	92	1
19	25	1
141	142	1
149	149	1
59	83	1
130	130	1
81	88	1
108	157	1
32	34	1
49	49	1
124	124	1
4	35	1
168	171	1
0	118	1
28	33	1
164	164	1
85	88	1
40	40	1
80	156	1
46	49	1
12	12	1
170	170	1
106	106	1
112	139	1
148	148	1
120	120	1
21	28	1
56	57	1
