123	123	1
232	232	1
190	200	1
170	170	5
135	135	6
175	176	1
179	179	4
172	174	2
17	34	1
241	241	2
175	175	2
61	61	6
1	31	1
146	161	1
33	33	4
24	25	1
114	115	2
25	170	1
186	187	2
49	49	1
142	142	2
148	148	1
19	19	4
124	126	1
78	78	3
43	55	1
176	176	2
219	220	1
184	184	4
105	105	2
99	99	1
209	214	1
210	210	1
177	177	6
155	156	1
115	115	2
104	105	1
54	54	1
148	189	2
151	152	1
66	68	1
98	98	3
173	174	1
170	202	1
209	222	1
179	180	3
151	154	2
62	65	1
231	231	3
69	69	4
143	143	3
101	101	3
175	236	3
112	113	1
25	25	1
237	237	1
193	195	1
88	88	2
138	148	1
212	212	3
127	127	2
182	183	1
169	169	3
37	37	1
2	3	1
85	85	4
171	171	2
201	202	1
142	143	2
172	172	3
219	219	2
209	220	1
129	129	2
81	199	1
47	47	3
192	201	1
55	58	1
214	214	1
17	17	3
9	30	1
186	186	3
39	39	5
45	45	1
173	175	2
177	178	3
133	135	1
15	17	2
122	122	4
211	211	1
56	60	1
193	194	1
154	154	3
161	162	2
26	38	1
227	227	1
123	124	1
238	238	2
203	203	2
166	169	1
21	23	1
61	205	1
61	62	2
166	175	2
168	184	1
50	50	1
159	162	1
71	72	1
206	232	1
197	205	1
7	15	1
74	75	2
10	10	2
221	221	2
109	109	3
187	187	3
174	174	2
34	35	1
181	182	1
105	106	1
168	168	2
134	134	1
121	121	1
90	90	2
131	170	1
41	64	4
236	236	2
56	57	3
77	77	2
173	187	1
58	58	3
70	70	3
174	236	1
169	191	1
206	206	2
3	15	1
79	79	1
120	120	1
71	74	1
74	74	1
43	44	2
141	153	1
120	127	1
20	20	1
235	236	1
201	201	1
196	207	1
43	196	1
194	196	2
156	156	2
180	183	2
35	35	1
181	181	3
213	213	2
241	242	2
11	11	2
0	0	2
102	102	1
209	209	2
7	7	1
196	196	2
187	189	1
62	75	1
3	3	2
20	53	1
95	95	1
100	100	1
165	165	1
233	238	1
217	217	1
34	34	4
180	180	2
0	5	1
72	73	2
184	186	1
204	204	1
68	68	2
47	60	1
86	86	2
193	193	1
168	179	2
150	150	1
83	199	1
169	170	2
43	220	1
71	79	1
43	43	1
125	125	1
38	38	1
167	167	2
206	238	1
113	113	2
183	184	1
216	217	1
189	212	1
106	160	1
2	2	1
234	234	1
71	71	2
146	146	1
242	242	2
229	229	1
108	108	1
147	147	1
142	151	1
104	104	1
97	97	1
202	235	1
28	28	1
12	12	2
57	78	1
184	185	1
216	216	2
23	192	1
116	116	2
136	166	1
138	140	1
140	142	1
3	9	1
191	208	1
5	5	2
168	169	1
21	21	1
189	189	2
53	88	1
54	68	1
54	56	1
224	224	2
226	226	1
48	49	1
83	83	1
99	155	1
62	62	3
161	161	3
30	30	2
210	212	1
51	51	2
82	82	2
187	214	1
18	20	1
190	190	1
85	126	1
188	188	1
128	136	1
149	149	1
68	69	1
145	148	1
125	126	1
202	202	1
24	26	1
13	15	1
1	3	1
26	86	1
104	136	1
208	208	1
13	151	1
33	36	1
158	158	1
136	136	1
215	223	1
217	236	1
228	228	2
21	22	1
27	27	2
36	36	1
205	205	1
211	213	1
235	235	1
165	166	1
35	36	2
102	103	1
138	138	2
220	220	1
72	144	1
182	182	1
25	29	1
130	169	1
192	196	1
108	109	1
189	193	1
51	52	1
124	125	1
178	178	1
171	179	1
139	139	1
59	60	1
167	168	1
122	127	1
25	27	1
78	79	1
33	42	1
80	82	1
183	188	1
42	42	1
176	177	1
14	14	1
108	160	1
191	203	1
85	86	1
21	51	1
66	192	1
