5	5	2
35	36	2
102	117	2
106	106	6
0	0	6
117	119	1
10	10	4
67	67	5
8	8	2
147	148	2
77	128	1
84	84	4
25	26	1
184	184	1
4	109	1
9	10	1
10	13	1
178	179	2
34	108	2
80	80	2
62	63	1
6	153	2
38	38	3
160	181	2
55	55	4
176	176	1
68	68	5
19	19	2
58	58	4
81	94	1
176	180	1
155	155	1
128	129	3
118	118	4
94	111	1
126	126	5
65	66	3
145	145	5
24	24	6
13	13	4
26	26	1
25	27	1
92	92	1
56	56	4
15	15	3
82	82	6
20	20	2
20	49	1
116	116	3
108	111	1
1	1	3
117	118	1
17	17	1
65	65	3
64	68	4
159	160	3
31	31	1
149	149	1
18	20	1
128	128	1
93	112	1
37	37	2
160	160	1
3	8	1
137	138	1
10	12	2
93	93	1
30	32	1
133	135	1
121	124	1
89	95	2
180	182	1
152	153	3
41	41	1
169	169	1
119	120	2
4	7	1
71	110	1
75	76	2
90	92	3
109	109	2
165	165	2
121	147	2
115	115	1
19	20	1
7	7	7
123	170	1
33	35	1
26	39	1
163	163	2
103	103	5
34	34	2
3	39	1
123	123	1
145	146	3
55	81	1
124	124	3
137	137	2
101	101	4
112	118	2
111	111	4
15	40	1
115	117	2
103	104	2
90	90	3
80	90	1
43	43	3
53	57	1
76	114	1
47	53	1
160	161	1
181	182	1
72	86	1
57	57	4
76	76	4
72	73	2
74	83	1
88	88	4
174	174	3
14	14	2
90	93	1
6	6	4
152	152	2
129	129	1
157	159	2
144	144	1
162	162	2
97	150	1
138	138	2
154	154	3
110	110	5
41	130	1
172	173	2
170	171	1
104	106	3
91	91	1
124	152	3
108	108	2
90	91	2
75	139	1
102	102	1
100	100	1
15	17	1
78	79	1
109	110	2
166	177	1
15	32	1
131	131	2
26	40	2
140	140	3
4	4	1
106	107	1
155	156	2
44	44	3
40	40	2
146	146	3
9	9	2
16	16	3
35	35	2
76	77	1
117	117	2
96	96	2
48	48	3
80	92	1
44	45	2
60	60	1
77	77	3
54	80	1
78	78	3
67	79	2
61	61	3
84	113	1
24	41	1
180	190	1
178	184	1
49	58	1
71	95	2
155	172	1
30	34	1
148	148	3
47	47	1
71	71	1
18	18	3
27	27	1
81	81	4
6	129	1
119	119	2
48	49	1
34	36	3
70	72	1
173	174	2
144	145	2
10	11	1
54	54	2
59	149	1
124	174	1
61	62	2
21	23	1
83	84	1
79	79	3
86	87	2
147	147	5
152	169	2
151	151	3
179	180	3
48	57	2
188	189	3
173	173	4
186	186	5
38	39	2
133	133	1
21	21	2
147	173	1
28	30	2
181	183	1
185	185	3
172	172	1
113	113	5
46	46	1
87	89	1
183	184	1
60	63	1
130	130	1
189	189	1
165	166	4
2	3	1
64	65	2
77	78	2
142	142	2
148	149	2
71	82	1
99	103	1
64	64	3
54	106	1
80	84	1
123	127	1
11	37	1
120	150	1
121	122	1
63	108	1
72	72	3
120	120	1
42	48	2
4	5	1
155	158	2
129	130	1
139	151	1
134	134	1
61	107	1
33	34	1
17	26	1
153	154	1
155	174	1
89	151	1
25	25	2
182	190	1
115	141	1
23	27	2
53	53	3
73	73	1
12	13	1
127	128	2
122	142	1
12	12	1
130	141	1
29	30	2
121	121	2
158	167	1
104	117	1
23	23	1
3	3	2
125	125	3
13	17	1
171	171	1
28	28	1
60	61	1
91	93	1
156	177	1
59	59	2
85	85	5
116	125	1
22	22	2
97	97	2
110	127	2
188	188	2
139	153	1
181	181	1
87	87	1
158	158	1
154	172	1
47	48	1
55	57	1
0	6	1
18	27	2
132	132	4
95	95	5
110	123	1
32	32	1
70	102	1
85	86	1
184	187	1
106	151	2
53	79	1
127	127	1
104	104	1
157	158	1
99	99	1
99	100	1
177	177	1
89	90	1
123	145	1
40	109	1
52	53	1
101	102	1
85	104	1
180	187	1
0	7	1
44	60	1
146	152	1
16	27	1
13	37	1
137	139	1
164	164	2
99	131	1
110	111	1
96	125	1
30	30	1
180	180	1
154	155	1
182	182	1
166	166	3
141	169	1
54	61	1
114	117	1
40	41	1
72	164	1
56	57	1
94	108	1
95	111	1
168	181	1
82	88	1
70	70	1
13	15	1
63	63	1
159	159	1
125	126	1
42	43	1
81	119	1
71	72	1
122	124	1
170	175	1
39	39	1
123	140	1
159	167	1
40	77	2
128	142	1
163	164	1
134	149	1
100	104	1
112	154	1
89	119	1
103	120	1
175	175	1
153	153	1
45	45	1
69	70	1
85	103	1
