70	70	3
5	11	1
98	98	6
79	79	7
105	106	2
1	4	1
95	95	5
43	44	3
52	60	1
3	3	9
122	122	1
59	60	1
83	83	3
115	115	4
120	121	2
0	0	1
94	94	5
32	32	2
33	33	3
23	23	2
76	76	4
75	76	1
65	68	3
133	134	1
59	83	1
62	62	6
131	131	3
110	110	1
45	45	9
92	92	3
117	117	4
49	49	7
30	30	9
75	75	5
51	52	2
70	71	1
16	16	4
97	97	2
81	81	8
48	48	1
7	9	2
2	2	6
46	47	1
124	124	3
52	62	1
108	108	2
7	7	5
7	11	1
124	125	1
80	80	4
101	101	5
132	132	2
19	19	3
18	18	3
76	132	1
34	34	2
5	6	1
48	125	1
7	34	1
81	82	1
90	111	1
104	104	3
106	106	3
82	82	4
100	100	2
119	119	5
111	111	1
64	69	1
49	50	3
50	97	1
52	61	1
22	27	1
13	13	6
120	120	3
61	61	2
82	85	3
7	12	1
66	67	2
102	102	1
21	34	1
90	91	2
106	107	2
121	121	4
15	22	1
134	134	2
105	120	1
4	4	2
5	5	2
101	126	2
93	93	3
31	31	4
108	116	1
61	62	2
52	52	2
45	46	1
91	91	2
72	72	5
46	46	2
2	3	2
73	73	2
99	99	2
12	23	1
18	53	1
110	111	2
53	95	1
119	126	1
74	93	1
18	21	2
9	10	2
29	32	1
127	128	2
55	62	1
126	127	1
135	135	2
26	26	5
12	12	2
105	105	3
114	114	1
83	85	1
6	6	3
84	84	1
55	57	2
64	65	1
78	78	1
54	55	1
38	38	2
82	84	1
52	73	1
90	90	1
25	25	1
9	9	2
54	60	1
15	15	2
122	125	1
37	38	1
18	20	2
71	80	1
98	99	1
10	10	2
11	11	2
53	61	1
69	70	1
84	85	1
1	1	1
20	37	1
54	54	2
119	129	1
112	112	2
28	28	1
72	73	1
100	104	1
65	65	2
131	132	1
50	123	1
22	33	1
3	9	1
63	63	3
16	23	1
8	8	1
8	11	1
127	127	2
97	102	1
115	125	1
66	66	1
56	56	1
22	22	1
27	27	2
6	7	1
29	29	1
50	50	1
62	108	1
43	43	1
82	83	1
103	103	1
108	113	1
113	113	1
35	35	1
126	126	1
3	66	1
2	4	1
57	58	1
134	135	1
51	51	1
68	68	2
12	13	1
130	130	1
71	71	1
59	59	1
74	74	1
21	22	1
30	70	1
52	55	1
18	38	1
67	67	1
123	123	1
86	87	1
64	70	1
79	80	1
24	34	1
60	60	1
42	43	1
43	45	1
