218	218	3
23	23	4
82	82	3
13	13	3
9	61	2
114	114	1
176	176	3
41	41	2
146	147	1
207	207	4
9	9	6
66	82	1
218	233	1
154	154	9
171	172	2
61	61	2
105	105	6
135	135	2
11	11	5
47	55	1
170	170	7
171	171	7
147	148	1
139	139	6
87	88	1
184	184	5
171	201	2
23	25	2
203	203	3
114	184	1
15	15	1
148	149	2
224	224	3
56	56	6
127	127	4
150	151	6
5	5	1
10	10	5
119	119	1
188	188	1
175	175	2
129	130	2
183	183	3
219	236	2
21	21	3
86	86	2
108	119	2
102	105	1
210	211	4
80	81	2
192	193	1
18	18	1
37	37	3
157	157	3
6	6	3
214	214	6
230	230	4
197	209	1
227	228	2
103	103	1
226	226	3
179	179	1
54	54	6
191	223	1
212	212	2
39	39	2
159	182	1
149	183	1
48	48	2
125	154	1
242	242	3
148	153	1
54	56	1
162	162	2
202	202	3
103	112	1
186	189	2
168	168	2
206	206	2
44	44	1
1	1	2
3	7	1
166	167	1
79	82	2
29	31	1
88	102	2
211	222	1
2	2	4
23	24	2
239	239	1
51	53	1
160	174	2
200	200	1
160	208	1
2	8	1
158	159	2
116	119	1
14	36	2
74	74	1
235	235	3
150	150	5
35	35	7
51	57	1
140	141	2
201	202	2
221	221	4
104	110	1
191	191	4
142	151	1
5	18	1
227	227	2
146	157	2
168	179	1
20	20	4
65	65	5
164	164	3
32	32	3
177	177	3
12	15	2
70	70	2
220	220	4
161	161	1
112	113	3
216	230	1
159	161	1
62	63	3
157	158	3
122	122	2
133	134	1
20	24	1
130	130	2
210	210	3
10	11	1
110	110	4
185	185	4
103	117	1
146	146	3
225	225	3
171	173	1
226	227	1
231	231	3
152	154	1
116	162	1
159	162	1
215	215	5
13	105	2
169	169	4
47	47	1
30	30	1
0	110	2
162	164	1
219	219	6
217	218	1
26	69	1
180	181	2
25	102	1
44	53	1
185	186	1
163	163	5
172	172	3
38	38	5
33	36	1
152	152	2
106	122	2
136	136	3
121	133	2
147	147	2
202	203	2
132	159	1
166	180	1
43	43	2
80	80	3
65	178	2
216	217	1
234	234	1
157	159	1
205	205	2
62	62	1
199	200	2
67	67	3
153	153	3
171	178	1
85	85	3
129	129	3
51	51	1
40	40	1
106	106	3
187	188	2
46	49	1
71	72	1
75	75	2
181	181	2
108	120	1
162	175	1
128	128	4
28	28	2
69	69	3
29	30	1
69	144	1
0	23	2
166	166	2
177	178	1
78	78	3
50	51	2
55	74	1
155	155	5
35	39	1
53	53	3
58	59	2
75	79	3
100	241	1
237	237	1
7	7	3
81	81	1
100	100	3
29	29	4
63	63	3
98	99	1
123	123	1
151	151	4
46	68	1
77	78	2
176	178	1
197	207	1
166	176	1
109	109	1
229	229	2
127	145	1
126	145	2
164	174	1
109	111	1
55	55	1
25	25	2
182	182	3
145	147	2
25	65	1
3	5	1
11	12	1
5	22	1
124	135	1
197	218	2
199	199	1
201	201	1
163	165	2
182	183	1
26	28	1
142	150	1
121	131	1
232	233	1
174	176	1
141	141	2
9	24	1
62	238	1
162	165	1
66	67	2
20	178	1
121	121	3
71	95	1
13	19	1
174	192	1
72	72	1
139	142	1
107	107	4
104	106	1
146	153	1
174	174	2
149	149	4
45	56	1
165	165	3
193	193	1
66	136	1
192	195	1
71	200	1
167	167	3
145	145	2
34	48	1
167	168	1
69	101	1
13	14	4
203	219	1
158	160	1
48	53	1
21	23	1
42	151	1
191	206	1
131	158	1
113	113	5
2	3	1
140	168	2
12	42	2
180	180	3
8	15	1
116	116	2
103	104	1
45	45	2
150	179	1
117	117	2
76	76	3
55	57	1
156	156	1
209	231	1
117	118	1
103	106	1
84	84	1
19	19	4
138	139	2
18	19	3
232	232	2
159	159	1
58	60	2
98	98	2
143	143	2
125	125	1
189	189	1
71	71	2
64	113	2
52	52	3
150	161	1
207	208	2
181	182	1
12	12	3
159	160	2
101	101	1
24	24	2
156	197	1
102	103	1
198	198	1
23	35	1
83	84	1
107	108	3
211	211	1
16	34	1
148	167	1
196	196	2
115	115	2
175	177	1
38	237	1
0	1	2
38	58	2
220	225	1
6	7	1
17	17	1
99	174	1
9	218	1
139	140	1
104	104	3
183	215	1
46	46	2
145	146	1
209	210	1
197	197	1
109	110	1
9	10	1
211	216	1
136	170	1
26	27	1
56	57	2
84	108	1
134	135	2
79	79	2
30	31	1
178	217	1
31	31	1
131	168	1
73	173	1
28	64	1
54	55	2
170	171	1
160	160	1
111	121	1
28	40	1
32	33	1
142	142	3
54	85	1
108	108	1
145	165	1
208	223	1
138	155	2
14	14	1
179	182	1
136	137	2
211	230	1
8	8	2
183	188	1
109	119	1
178	203	1
154	155	2
172	173	1
5	41	1
34	180	1
59	79	1
230	232	1
55	65	1
10	240	1
161	170	1
20	48	1
26	26	2
158	158	3
59	59	1
115	118	1
168	169	1
148	148	1
66	66	1
223	223	3
126	127	1
2	46	1
216	220	2
95	95	2
207	214	1
97	97	1
26	47	1
241	241	2
195	195	1
66	95	1
236	236	2
73	80	1
11	25	1
139	143	1
133	159	1
2	179	1
108	125	2
13	38	1
36	36	1
27	27	2
55	58	1
48	54	1
233	233	2
160	198	1
173	177	1
216	216	1
23	230	1
14	15	1
63	64	1
105	110	1
22	60	1
187	187	2
72	73	1
167	184	1
6	14	1
43	55	1
0	0	1
73	75	1
65	66	1
188	223	1
97	158	1
16	35	1
108	117	1
175	176	1
18	20	1
46	47	1
75	85	1
103	105	1
58	58	1
24	46	1
200	216	1
4	5	1
65	228	1
26	109	1
95	128	1
155	162	1
65	68	1
220	223	2
204	205	1
181	184	1
65	121	1
169	170	1
63	72	1
217	217	1
136	167	1
125	127	1
185	187	1
19	20	1
131	131	1
77	77	1
120	120	1
79	80	1
