10	10	3
54	54	3
69	73	1
237	237	5
57	58	1
203	204	1
173	173	1
221	222	1
13	13	3
170	170	5
155	205	1
39	39	2
11	17	1
217	217	3
182	183	1
167	200	2
206	207	1
206	206	1
5	5	3
213	213	4
212	212	4
172	172	2
20	20	5
235	246	2
224	224	3
150	150	4
204	204	3
108	108	5
62	89	1
242	242	2
7	7	4
158	246	2
48	48	4
165	165	2
237	238	1
217	219	1
56	56	2
93	93	3
25	25	1
82	83	1
177	177	2
60	60	2
153	153	2
81	96	1
18	20	2
59	59	3
244	244	1
209	209	5
246	246	3
169	172	1
198	198	2
80	80	2
230	230	2
40	40	1
63	65	1
31	32	2
76	76	6
193	193	1
244	246	1
225	231	1
62	63	1
151	151	3
241	242	2
207	224	1
115	115	2
9	9	2
189	190	1
205	206	1
74	99	1
22	22	2
174	174	3
168	201	1
242	243	3
235	235	1
207	212	1
75	80	1
37	37	3
203	203	3
213	214	1
195	195	2
222	222	2
240	240	3
21	21	2
43	43	2
188	189	1
183	183	1
114	116	2
70	70	1
232	233	1
91	92	2
199	199	3
33	33	4
192	192	3
116	118	2
79	79	1
214	214	2
49	49	3
247	247	4
16	22	1
197	198	1
38	39	1
61	61	3
24	24	3
57	57	1
145	154	1
105	105	2
147	147	1
85	86	1
192	226	1
113	119	1
35	36	2
151	179	1
18	18	4
92	92	1
44	44	1
113	113	3
164	164	1
234	234	4
28	28	1
161	162	1
216	218	2
69	96	1
229	229	2
188	188	3
53	53	1
64	84	1
238	238	3
211	211	1
159	159	1
104	104	1
180	180	7
216	240	1
119	119	3
52	53	1
160	176	1
68	69	1
82	96	1
19	19	3
86	86	1
155	155	2
186	186	3
190	190	2
200	207	1
64	64	1
205	205	1
98	98	1
168	168	4
96	96	3
169	170	1
212	213	2
205	229	1
159	164	1
221	221	1
33	158	1
227	227	2
181	182	2
88	89	1
9	101	1
214	238	1
83	83	3
202	202	4
29	46	2
51	64	1
32	32	2
208	208	1
109	109	1
194	194	2
176	176	2
12	12	1
95	101	1
194	208	1
69	69	1
215	215	5
245	246	1
191	191	2
178	178	2
163	164	2
75	75	1
47	47	3
171	187	2
65	65	1
157	157	1
5	233	1
163	176	1
239	240	1
210	210	1
36	36	4
31	31	2
180	181	2
14	14	2
162	163	1
89	91	1
80	102	1
59	60	1
111	159	1
114	114	1
168	215	1
21	54	2
17	18	1
67	67	2
231	231	1
233	233	1
11	117	1
76	78	1
15	15	3
182	224	1
41	41	1
200	200	1
214	234	1
26	26	2
218	218	1
43	47	1
237	248	1
228	228	3
95	95	1
176	187	1
15	16	1
112	204	1
191	192	1
182	182	1
85	85	1
34	34	1
162	172	1
156	156	2
14	15	2
164	170	1
27	27	1
168	178	1
109	121	1
78	78	1
51	52	2
90	91	1
172	173	1
209	233	1
154	154	1
175	175	1
116	116	2
230	245	1
23	23	2
201	201	1
76	108	1
12	36	1
51	51	2
110	110	1
173	228	1
5	6	1
59	94	1
58	68	1
87	88	1
30	30	2
52	52	2
160	160	2
217	224	2
42	42	1
28	29	1
29	29	1
186	187	2
1	1	1
84	86	1
164	190	1
198	238	1
165	168	1
169	235	1
208	233	1
152	152	1
77	79	1
90	95	1
82	184	1
113	116	1
207	207	2
17	17	2
48	50	1
11	37	1
214	215	1
39	111	1
16	16	2
230	240	1
84	84	1
236	236	2
29	30	1
215	217	2
161	161	1
184	184	1
69	71	1
2	2	1
196	196	1
112	112	1
6	6	1
217	218	1
221	240	1
20	245	1
86	108	1
168	200	1
53	109	1
210	211	1
241	241	1
230	231	1
239	239	1
13	14	1
189	189	1
73	73	1
207	226	1
120	120	2
185	185	1
222	223	1
75	107	1
98	102	1
37	155	1
10	11	1
60	61	1
163	163	1
165	186	1
81	81	1
101	101	1
94	94	1
