36	36	2
79	79	2
137	137	7
127	127	4
108	108	4
70	111	1
157	158	2
19	19	3
78	79	3
111	111	5
97	97	1
121	122	3
20	20	3
113	123	1
100	100	2
63	63	2
1	2	1
154	154	6
138	138	6
118	118	4
96	125	1
116	116	3
111	112	2
112	112	2
112	132	1
102	102	2
95	105	1
69	117	1
133	133	3
71	72	1
17	17	1
71	97	1
22	42	3
123	123	6
73	73	1
145	145	3
8	8	5
135	135	6
40	40	3
13	14	1
4	4	3
123	135	2
43	43	1
96	96	4
53	53	2
107	107	3
158	158	2
129	129	2
130	130	4
29	30	1
67	67	5
132	132	6
93	93	1
45	45	1
126	126	3
106	106	1
95	95	3
157	157	3
35	35	1
27	28	1
109	110	2
0	0	4
34	34	5
108	117	1
83	84	2
24	24	2
150	150	8
66	66	3
125	126	2
0	1	1
102	104	1
46	46	3
105	129	1
155	155	3
156	158	1
146	146	5
107	108	1
108	109	1
69	69	3
97	127	2
134	135	1
105	131	1
82	83	1
155	158	1
35	36	1
125	125	2
103	103	4
30	30	2
90	122	1
134	134	2
136	136	4
80	121	1
95	96	2
126	127	2
6	6	1
151	152	2
128	128	1
153	153	1
147	147	1
137	138	2
7	7	1
99	99	6
79	80	1
114	116	1
132	133	1
12	13	2
98	98	2
83	85	3
98	99	1
12	12	2
37	37	2
36	37	3
97	98	1
33	33	1
105	105	1
113	113	3
21	21	3
119	120	1
67	85	1
104	112	3
131	131	4
50	51	1
71	71	1
56	57	1
41	41	2
148	148	1
70	70	2
118	141	1
101	101	2
105	106	1
43	129	1
139	140	2
77	77	1
64	65	1
9	9	1
154	156	1
121	121	1
28	28	8
94	94	2
109	121	1
27	57	1
28	29	1
47	47	2
142	142	2
117	117	5
72	72	3
50	50	1
140	142	2
73	129	1
54	55	2
76	79	1
54	54	1
44	152	1
144	145	2
109	109	2
122	122	1
114	114	3
37	142	1
119	119	2
140	140	2
62	62	1
108	110	1
92	93	2
22	37	1
102	103	1
70	71	2
14	14	3
84	85	1
55	55	1
65	95	1
1	3	1
23	23	1
52	52	3
38	38	2
13	15	1
3	3	1
108	135	1
16	16	2
1	1	3
68	85	2
46	48	1
109	112	1
10	11	2
10	78	1
91	92	1
115	116	2
45	49	1
144	146	1
113	114	2
18	18	1
46	49	2
152	152	1
141	141	2
67	69	1
14	15	1
104	104	1
19	47	1
2	3	1
83	83	1
129	148	1
138	143	2
124	126	1
86	113	1
98	139	1
3	4	2
67	68	1
83	95	1
17	40	2
98	149	1
16	26	1
104	105	1
70	108	1
92	92	1
120	121	2
26	26	1
48	48	1
91	123	1
49	49	1
4	29	1
89	89	2
150	151	1
84	84	2
44	44	1
45	119	1
22	23	1
75	75	1
64	119	1
91	107	1
86	87	1
29	29	1
120	120	1
133	134	1
84	86	1
130	131	1
51	51	1
46	50	1
32	33	2
70	79	1
114	120	1
101	103	1
77	78	1
144	147	1
115	115	1
11	12	1
13	13	1
25	25	2
153	158	1
94	129	1
78	81	1
128	130	1
103	111	1
144	144	1
139	139	1
123	124	1
23	26	1
68	69	1
68	68	1
10	10	1
122	123	1
22	24	1
