18	23	1
90	135	1
103	114	1
90	108	1
114	114	3
20	144	1
37	37	2
87	104	1
113	113	1
74	74	3
26	26	2
117	117	3
14	14	8
127	131	2
111	112	1
118	119	2
13	13	4
47	47	3
137	137	2
1	112	3
155	155	2
49	49	3
40	40	2
64	64	1
8	9	2
154	162	1
161	161	7
82	82	3
17	20	3
53	74	1
39	40	4
5	5	4
62	62	2
22	24	1
9	46	2
150	150	3
84	84	2
28	28	1
137	139	1
40	45	1
128	128	4
15	15	4
151	158	1
38	38	3
1	44	2
170	170	2
146	147	1
120	124	1
136	136	2
141	141	4
112	112	2
136	137	2
158	158	2
16	17	2
50	51	1
9	113	1
65	66	3
109	109	2
153	153	5
43	43	2
157	157	1
148	148	3
24	24	3
24	25	1
81	82	3
133	152	1
44	44	2
154	154	3
120	120	3
49	166	1
3	3	4
68	79	1
68	124	1
16	16	4
130	131	1
42	42	4
36	36	2
27	27	2
52	88	1
125	145	1
41	44	2
117	129	1
107	107	3
147	151	1
2	2	3
96	96	1
76	76	3
56	56	2
35	35	4
15	159	1
7	7	1
115	115	1
76	92	1
130	130	1
33	33	1
50	50	4
148	149	2
119	125	1
22	22	1
39	39	3
70	70	4
125	130	2
121	133	1
139	139	2
152	153	2
103	104	2
50	73	1
12	12	3
133	144	1
4	4	1
149	149	1
115	116	2
86	86	3
34	34	2
91	91	2
127	141	1
48	48	1
88	88	3
95	96	4
94	117	1
89	105	2
93	93	1
54	54	4
144	144	3
144	151	1
104	163	1
56	88	1
127	127	2
102	104	1
146	146	2
145	145	1
169	170	1
51	55	1
1	1	1
41	86	2
118	118	2
83	83	3
129	157	1
71	71	3
21	22	3
53	55	1
124	128	1
123	141	1
5	24	1
154	160	1
21	21	2
142	142	1
65	68	1
25	25	2
155	156	1
9	9	5
152	166	2
92	93	1
23	24	1
23	23	2
77	77	2
69	71	2
18	18	3
15	41	1
144	145	2
109	111	1
19	23	1
125	126	1
162	162	1
17	17	2
138	160	1
69	69	1
157	168	1
68	68	3
58	58	1
159	159	1
142	164	1
90	105	1
98	98	1
77	80	1
151	151	1
145	152	2
114	147	1
79	115	1
109	163	1
36	42	1
76	97	1
8	8	2
124	127	1
1	162	2
157	159	1
133	133	2
108	108	2
129	130	3
117	126	1
128	129	1
78	79	1
6	7	1
42	43	1
100	100	1
132	132	3
93	94	2
11	12	1
133	145	2
105	137	1
160	161	1
79	79	1
125	125	1
65	65	1
51	51	2
72	74	1
74	80	1
133	146	1
121	121	4
143	144	1
88	91	1
97	104	1
73	73	2
52	52	2
169	169	2
85	85	1
66	67	1
43	106	1
10	37	1
147	158	1
28	35	1
151	161	2
12	164	2
25	52	1
101	101	2
88	134	1
126	126	1
57	62	1
144	159	1
137	157	1
40	67	1
19	19	2
0	8	1
83	90	1
135	135	1
116	117	1
105	105	1
38	49	1
66	66	1
12	89	1
119	119	1
52	53	1
160	160	1
165	166	1
48	50	2
152	165	1
12	165	1
114	115	1
138	151	1
100	101	1
23	55	1
129	129	1
154	155	1
49	57	1
57	57	1
10	10	1
121	122	1
110	111	1
87	87	1
164	164	1
34	35	1
41	41	2
146	156	1
4	6	1
70	73	1
162	163	1
140	140	2
102	102	1
90	91	1
47	49	1
124	140	1
119	120	1
106	106	1
128	130	1
9	100	1
108	109	1
7	10	1
84	100	1
138	138	1
137	167	1
137	148	1
91	92	1
