62	70	1
60	67	2
82	91	1
91	91	36
88	90	2
81	91	4
33	33	11
93	109	1
62	62	7
78	78	5
81	81	18
21	21	9
90	91	8
54	59	1
72	76	1
34	34	9
59	69	3
77	78	3
86	90	2
66	66	2
53	53	10
82	83	3
90	90	19
61	61	3
26	27	3
95	97	2
68	68	5
39	60	2
83	91	1
51	51	10
31	32	1
64	64	4
97	97	8
92	95	1
97	98	6
52	52	5
56	56	4
44	51	1
36	37	1
50	50	8
24	49	1
92	92	32
79	79	5
27	27	14
78	87	1
96	107	2
105	105	4
113	113	12
46	47	3
92	93	9
32	37	1
75	75	4
81	84	1
108	108	12
39	39	3
87	87	3
93	94	5
26	31	1
30	31	8
106	106	4
32	32	5
102	102	5
71	72	2
49	49	2
30	30	10
81	90	4
44	82	1
63	64	1
95	95	16
98	98	6
73	73	5
102	103	3
20	20	7
38	64	1
91	93	7
104	105	3
76	77	6
34	36	1
80	87	1
24	26	1
108	110	2
88	92	1
59	59	6
42	45	1
35	35	7
24	24	8
113	114	5
47	47	4
94	95	2
67	71	1
71	82	1
86	86	4
110	110	9
54	68	1
109	109	4
105	106	2
41	41	2
35	79	1
19	19	3
46	48	1
25	25	5
50	114	1
82	82	4
31	31	5
83	83	5
67	67	6
49	51	1
43	53	1
101	101	4
44	45	6
78	93	2
44	44	5
60	60	6
76	76	9
99	99	6
111	113	3
23	23	6
72	72	3
42	46	2
26	26	6
20	44	1
28	28	7
38	38	6
84	84	4
62	63	7
45	45	10
74	74	8
55	55	4
43	45	1
37	37	8
91	92	12
52	95	1
103	103	9
43	43	7
87	88	3
21	22	4
80	80	7
58	58	5
27	30	1
69	81	1
45	112	1
90	92	7
101	104	1
88	89	4
73	75	1
89	89	2
57	58	3
57	57	4
97	109	1
36	83	1
99	100	3
54	70	1
78	85	1
65	66	5
77	77	5
69	69	5
97	104	1
75	76	3
54	55	2
78	79	1
29	29	3
100	111	1
46	49	1
94	94	9
50	51	1
57	59	1
44	46	1
93	93	14
60	61	1
100	101	2
107	108	4
93	108	3
54	54	4
81	82	10
84	88	2
104	104	4
69	71	5
25	45	1
74	75	1
29	30	1
47	49	1
34	42	1
89	90	3
80	81	1
30	37	1
102	104	3
107	107	5
97	111	1
95	100	1
22	33	2
63	63	2
37	39	1
80	94	1
46	46	7
71	71	6
65	65	4
51	52	2
35	36	2
79	102	1
37	38	3
43	61	1
112	112	7
100	100	4
78	88	1
30	32	1
104	110	1
21	25	3
42	42	6
44	73	1
115	115	1
43	44	2
20	43	1
90	93	1
28	101	1
55	56	2
70	70	6
42	59	1
33	70	1
106	108	1
48	48	4
23	24	3
38	39	1
44	98	1
42	49	1
48	51	1
96	96	4
79	82	1
39	43	1
60	83	1
110	111	1
41	60	1
38	86	1
72	75	1
87	89	2
97	105	1
76	101	1
103	104	4
48	90	1
97	101	1
22	46	1
105	107	1
59	61	1
42	43	2
74	95	1
52	73	1
68	70	4
27	28	1
102	106	1
111	111	7
102	107	2
98	100	1
107	109	1
44	77	1
27	36	1
40	40	2
32	52	1
24	45	1
62	64	1
78	83	1
91	108	1
22	43	1
56	57	2
21	46	3
70	84	1
31	49	1
45	46	1
85	86	3
95	96	1
73	88	1
36	36	5
40	41	3
96	97	1
47	95	1
36	48	1
103	106	3
22	23	1
92	94	1
22	22	5
24	25	1
54	56	1
96	109	2
114	114	2
61	62	2
34	35	3
73	74	1
45	50	2
76	78	1
40	42	1
47	48	4
85	97	2
45	48	1
112	113	2
85	88	1
85	112	1
41	95	1
97	106	1
59	60	1
79	81	1
58	97	3
99	102	2
79	80	1
85	90	1
56	61	1
79	95	1
31	61	1
52	53	2
31	51	1
61	63	1
87	91	1
54	57	1
44	60	2
75	77	1
33	37	1
73	76	1
32	39	1
62	67	1
54	60	2
40	48	1
53	60	1
85	98	1
104	108	1
33	77	1
28	30	2
79	97	1
32	44	1
31	33	1
62	92	1
42	60	1
81	93	2
23	28	1
99	103	1
39	40	1
99	109	1
88	88	1
98	110	1
37	48	1
41	44	1
66	82	1
85	85	1
67	78	1
100	103	1
90	101	1
21	26	1
28	29	1
45	80	1
49	80	1
60	99	1
45	60	1
27	113	1
101	107	1
97	114	1
106	109	1
68	69	1
