67	67	7
48	48	6
25	25	7
70	70	3
101	102	7
61	61	6
95	96	4
81	92	3
104	104	12
23	24	2
41	92	2
29	100	2
98	98	6
52	93	1
83	87	1
37	38	2
57	57	6
75	75	11
58	62	1
80	80	3
42	70	1
97	97	8
57	58	1
50	50	2
46	50	1
60	60	3
100	103	1
43	43	5
82	86	1
74	74	5
26	26	3
71	71	4
20	25	1
39	39	6
61	106	1
64	100	3
68	69	2
33	33	5
32	34	2
49	90	1
28	28	1
99	99	1
67	78	1
21	74	1
73	87	1
94	95	4
35	58	3
97	107	1
24	24	4
74	101	1
83	83	3
96	96	7
45	61	1
46	49	1
38	38	2
93	93	4
95	95	5
81	88	1
21	22	2
85	85	6
90	90	5
66	94	2
102	102	6
44	45	1
63	63	2
47	47	3
89	90	2
105	105	1
71	77	1
60	61	2
86	86	2
36	36	9
55	97	1
73	76	1
37	37	3
82	82	3
35	35	4
29	29	2
67	71	1
22	22	5
53	54	1
23	91	1
62	64	2
73	73	3
39	40	2
88	97	1
75	76	2
104	106	2
100	100	8
63	64	3
50	75	1
56	56	3
21	21	6
58	99	1
55	56	1
27	53	1
49	49	2
39	69	1
78	96	1
87	87	3
49	55	2
62	63	1
37	66	1
55	55	5
64	69	1
59	59	3
79	82	1
78	78	2
40	40	6
48	49	2
57	73	1
81	81	4
82	84	2
101	101	2
25	28	1
42	42	3
44	44	3
68	68	5
80	81	1
87	107	1
50	61	1
88	88	5
92	92	6
35	42	1
31	39	3
52	61	1
94	94	6
72	72	4
89	99	1
51	52	1
77	77	6
69	69	4
30	35	1
76	77	3
46	48	1
77	78	1
62	62	4
106	106	2
55	65	1
27	30	1
79	85	1
77	81	1
103	103	10
43	44	1
33	34	2
53	53	4
90	91	3
47	56	1
83	85	1
79	79	5
74	75	1
87	97	1
65	74	2
96	97	1
41	43	1
66	66	1
83	86	1
68	71	1
37	57	1
44	47	1
37	39	1
76	76	3
60	62	1
64	64	2
39	45	1
30	30	2
80	84	2
23	23	8
84	85	2
32	32	1
23	27	1
100	102	2
46	46	2
100	104	1
56	61	1
55	91	1
98	99	1
78	87	1
53	56	1
65	65	7
89	89	1
41	41	5
58	58	1
70	73	1
85	89	1
54	54	4
52	58	1
50	54	1
71	72	2
38	46	1
47	49	1
64	77	1
83	84	2
53	61	1
78	84	1
66	73	1
27	27	2
74	76	2
20	21	2
20	49	1
87	88	1
99	100	2
94	96	1
95	99	1
23	95	1
52	52	3
60	79	2
84	84	1
79	81	3
58	59	2
29	34	1
78	79	1
31	32	2
35	103	1
101	106	1
26	28	2
41	49	1
65	94	1
78	99	1
29	90	1
91	93	1
59	67	1
30	33	1
49	50	1
91	91	1
59	81	2
65	75	1
25	26	2
34	34	1
31	31	1
26	29	1
59	87	2
33	53	1
83	92	1
69	73	1
57	71	1
69	70	1
50	51	1
66	67	1
27	29	2
56	59	2
32	36	1
66	95	1
24	31	1
48	54	1
53	64	1
37	67	1
78	85	1
38	40	1
61	68	1
56	100	1
59	60	2
68	101	1
23	37	1
33	35	1
95	100	1
63	70	2
28	30	1
85	86	1
22	23	1
51	92	1
55	58	1
40	43	1
78	91	1
23	35	1
32	33	1
23	25	1
35	36	1
