54	63	1
21	24	1
60	61	1
4	9	1
158	163	2
88	98	1
137	139	1
96	99	1
74	75	2
70	71	2
9	37	2
13	15	2
127	133	1
29	31	1
16	101	1
143	144	1
56	57	2
149	152	1
175	175	3
35	37	1
73	83	1
155	155	1
151	151	1
134	138	1
52	52	1
3	38	1
40	40	1
43	45	1
21	21	1
160	161	1
179	180	2
180	180	1
132	165	1
1	25	1
149	150	1
125	142	2
54	54	2
145	169	1
99	100	2
129	130	1
88	93	1
8	8	6
90	104	1
72	72	2
57	101	1
82	82	3
118	149	1
17	17	2
173	176	2
37	43	1
28	43	3
41	41	1
44	44	2
96	97	1
40	45	1
72	75	1
105	107	1
41	43	1
43	43	2
33	44	2
159	163	1
106	137	1
91	95	1
40	44	1
159	159	2
100	110	1
63	92	1
159	165	1
79	83	2
174	177	1
149	151	1
51	51	2
144	145	1
10	10	1
53	54	1
169	172	1
8	11	1
134	139	3
14	17	1
99	104	1
113	116	1
75	75	1
4	5	1
35	40	1
112	116	1
1	1	2
124	129	2
167	168	1
16	18	1
159	173	2
12	15	3
162	163	1
87	90	1
2	3	3
116	116	4
156	157	1
6	10	1
173	173	1
92	92	1
105	108	1
75	83	2
27	45	1
37	37	1
90	94	1
122	122	1
25	35	2
115	116	1
60	60	1
31	32	1
57	57	2
83	83	1
128	168	1
148	148	1
139	141	1
178	179	1
135	135	1
154	159	1
155	156	2
166	166	2
53	55	1
131	169	3
11	11	1
162	170	1
32	33	3
165	165	2
116	123	2
168	169	1
144	151	1
27	33	2
55	55	1
97	100	1
5	6	2
173	178	2
7	11	1
38	38	3
172	177	1
129	163	1
161	180	1
136	159	1
169	169	1
50	58	1
176	180	1
9	11	1
128	132	1
63	102	1
150	160	1
61	91	1
106	111	1
79	111	1
88	122	1
139	157	1
51	56	1
169	170	1
46	58	1
68	71	3
86	86	1
112	112	3
25	37	1
178	178	1
24	26	2
101	107	1
65	65	1
62	66	1
153	159	1
102	106	2
118	118	1
29	41	1
29	42	1
1	42	1
117	159	1
2	15	1
100	136	1
117	117	1
133	139	1
80	103	1
10	40	1
84	84	2
161	163	1
148	153	1
79	80	1
104	104	1
19	21	1
20	20	1
165	166	1
24	27	2
131	134	2
170	174	1
142	142	4
135	139	1
147	178	1
76	81	1
143	147	3
26	29	1
67	67	1
172	175	1
0	8	1
127	127	1
5	8	1
35	43	1
13	19	1
179	179	1
156	156	1
6	39	1
23	41	1
113	113	1
88	89	1
15	19	1
76	76	1
121	126	3
91	105	1
104	114	1
171	173	1
21	22	1
104	109	1
138	146	2
38	39	2
174	174	1
21	25	1
142	146	1
26	26	2
161	167	1
92	95	1
81	82	1
110	111	1
17	18	1
123	155	1
164	166	1
115	152	1
163	163	1
10	38	1
22	22	2
140	141	1
22	26	1
86	112	1
147	152	1
76	105	1
154	158	1
28	28	1
131	135	1
16	16	1
13	14	1
81	84	1
67	71	1
110	158	1
112	149	1
100	103	1
152	152	1
75	77	1
142	152	1
36	37	1
121	121	1
10	11	1
114	114	1
28	31	1
23	43	1
145	145	1
64	64	1
14	15	2
102	102	1
159	164	1
107	108	1
1	4	1
84	99	2
148	149	1
123	124	1
95	124	1
103	112	2
172	172	1
84	87	1
60	101	1
157	157	1
79	79	1
26	27	1
27	29	1
90	90	1
116	121	1
30	31	2
44	45	1
77	77	1
32	37	1
118	123	1
14	14	1
175	178	1
53	53	1
132	166	1
16	29	1
76	78	1
120	125	1
72	74	1
130	130	1
68	84	1
59	61	1
100	127	1
120	120	1
160	160	1
33	33	1
97	98	1
11	15	1
158	159	1
146	150	1
80	102	1
154	155	1
32	32	1
62	95	1
159	161	1
140	140	2
