128	163	1
115	116	1
91	91	2
25	26	1
56	56	4
22	43	1
33	33	1
65	65	2
158	158	2
103	107	1
34	34	1
133	133	2
32	33	1
13	13	7
92	92	4
112	112	1
122	122	3
152	157	1
131	131	2
130	131	1
36	36	1
103	103	1
146	147	1
68	68	4
115	115	2
106	106	3
16	16	1
31	39	1
152	152	1
38	38	4
98	101	2
134	135	2
91	100	1
146	165	1
129	129	1
160	160	2
120	121	1
165	165	1
143	143	1
22	22	1
54	60	1
20	21	1
5	17	1
172	172	1
125	125	2
65	66	1
146	146	5
24	25	3
64	137	1
124	124	2
150	150	1
1	1	3
13	15	1
142	147	1
55	138	1
37	37	2
104	104	2
74	87	1
31	33	2
165	167	2
4	4	3
126	127	2
58	58	1
10	10	4
57	57	3
108	108	2
79	79	1
177	177	1
14	14	2
45	45	3
157	158	2
45	57	1
109	109	1
5	5	2
110	111	2
157	157	3
142	156	1
67	68	1
135	169	1
28	28	2
151	151	2
178	179	1
169	169	2
82	86	2
114	114	1
60	60	1
132	132	2
107	107	2
41	41	2
96	96	2
29	29	1
6	6	2
149	149	3
174	174	1
15	16	3
18	18	2
8	8	3
9	33	1
123	124	1
74	75	2
33	36	3
127	127	2
134	134	2
39	39	1
81	117	1
135	136	1
15	18	1
156	162	2
155	155	2
82	85	1
153	153	1
133	134	1
95	95	3
117	158	1
43	45	1
120	146	1
20	23	1
120	151	1
128	128	1
169	170	1
159	159	1
140	140	2
20	20	1
162	162	1
148	148	4
4	5	1
76	134	1
82	82	1
173	173	1
7	7	2
35	37	1
116	116	1
171	171	2
87	88	2
118	120	1
174	178	1
117	117	2
23	23	1
43	44	1
111	111	1
56	83	1
66	67	1
85	86	3
137	138	1
102	102	2
136	136	2
73	136	1
63	64	2
62	63	1
35	35	1
147	156	1
77	77	1
147	147	4
2	2	1
154	154	1
161	163	1
15	15	2
31	31	2
98	103	1
23	24	1
139	139	1
66	66	1
10	26	1
52	52	1
4	32	1
57	104	1
118	139	1
89	89	1
99	100	1
0	0	1
113	113	2
123	123	1
72	72	2
117	118	1
179	179	1
122	123	1
76	157	1
63	63	1
61	86	1
50	50	2
53	53	1
142	167	1
145	147	1
138	150	1
17	24	1
30	30	1
163	163	2
24	24	2
94	94	1
56	94	1
43	43	2
4	10	1
108	109	1
107	108	1
107	117	1
96	97	1
39	40	1
149	150	1
137	137	2
151	153	1
101	144	1
166	166	1
109	111	1
135	135	2
148	152	1
167	168	1
80	81	1
40	40	1
41	42	1
54	54	1
105	106	1
63	106	1
77	78	1
51	51	1
33	34	1
145	145	1
77	95	1
154	156	1
71	71	1
85	85	1
88	88	1
176	176	1
59	60	1
