188	190	1
57	57	2
64	64	2
79	80	1
13	17	1
115	115	2
141	148	1
182	182	3
17	17	2
141	143	4
153	153	5
126	126	2
123	123	2
139	159	2
6	6	4
166	166	3
85	87	2
125	125	3
59	72	1
187	187	7
97	97	5
86	87	1
16	20	1
158	159	1
31	36	1
88	88	3
184	184	4
174	174	2
108	139	1
106	106	2
59	63	2
177	177	2
23	23	5
90	95	1
140	140	3
144	169	1
182	183	1
141	141	2
156	158	3
77	78	2
13	53	1
83	85	2
79	79	2
19	19	2
105	105	5
111	111	4
142	142	3
142	143	3
7	7	7
155	155	2
96	98	2
95	103	1
53	54	3
54	54	3
146	146	4
62	63	1
172	172	2
102	113	1
146	153	1
56	56	5
43	46	1
143	143	2
25	25	2
122	123	1
101	101	5
119	119	2
154	154	3
16	17	2
70	72	3
11	12	2
186	186	5
13	14	2
121	148	1
123	125	4
60	60	1
83	108	1
26	26	3
65	66	1
80	80	2
100	100	1
39	39	3
181	181	2
68	68	1
75	103	1
33	33	1
129	129	2
3	40	1
165	165	2
2	2	6
38	38	2
22	22	1
59	90	1
1	2	2
60	62	2
171	171	2
123	128	1
27	27	4
148	148	2
170	174	1
133	135	1
90	90	5
0	0	4
26	47	1
10	10	4
39	40	1
130	142	1
42	47	1
5	5	4
5	54	1
85	85	3
149	149	3
14	14	2
147	147	4
125	127	1
66	66	2
130	130	1
141	156	1
46	54	1
152	153	1
87	89	1
71	88	1
42	42	1
31	31	2
46	46	3
113	113	2
133	139	2
104	104	2
96	96	2
49	49	1
55	55	3
180	180	1
24	24	2
43	62	1
142	147	1
169	169	2
35	35	3
85	120	1
1	1	3
28	28	1
130	137	1
41	44	1
101	102	1
52	53	1
36	37	1
42	73	1
4	4	3
15	53	2
129	134	1
121	121	1
74	76	1
85	99	1
78	79	2
127	128	1
68	85	1
92	115	1
158	158	2
188	188	1
166	189	1
161	161	1
122	122	1
90	124	1
5	6	1
15	15	2
37	38	1
160	160	2
17	20	1
124	138	1
173	174	2
164	184	2
158	182	1
190	190	2
63	101	1
70	73	1
8	8	1
144	145	2
145	145	1
37	39	1
116	141	1
144	158	1
144	144	2
26	37	1
95	96	1
81	81	1
40	40	1
44	44	1
58	58	1
37	37	1
129	130	1
173	173	1
120	121	1
166	172	1
56	121	1
10	13	1
45	80	1
80	81	1
119	169	1
19	20	1
78	78	2
66	71	1
130	131	1
176	177	1
152	160	1
110	110	2
167	167	2
99	104	1
108	111	1
71	71	5
54	58	1
79	81	1
156	157	1
27	47	1
34	36	1
21	125	1
102	103	1
16	16	3
66	70	2
66	73	1
111	112	2
48	128	1
54	56	1
96	104	1
163	165	1
97	124	2
145	147	1
124	124	1
146	147	1
7	24	1
52	52	1
34	46	1
76	77	1
170	170	1
9	38	1
81	97	1
169	170	1
0	1	1
3	3	2
118	118	1
136	136	3
20	20	2
164	164	1
30	34	1
108	108	3
32	32	2
138	138	4
113	114	1
13	13	2
141	160	1
84	84	3
69	69	1
93	93	1
68	74	1
152	178	1
48	78	1
107	108	1
72	72	2
14	15	1
46	47	1
127	129	1
63	66	1
61	61	2
22	23	1
180	183	1
153	154	1
144	172	1
128	128	1
16	76	1
42	45	1
1	39	1
107	107	1
178	182	1
41	41	1
84	85	1
157	171	1
61	63	1
109	109	1
64	70	1
23	28	1
43	112	1
84	122	1
124	125	1
47	47	1
56	100	1
90	102	1
143	144	1
182	187	1
30	30	1
115	117	1
60	65	1
77	83	1
89	89	2
185	185	1
183	184	1
106	131	1
92	92	1
138	149	1
69	70	1
149	150	1
139	151	1
120	125	1
112	112	1
138	170	1
104	106	1
32	34	1
43	43	1
107	125	2
60	87	1
166	176	1
18	18	1
46	91	1
178	179	1
74	74	1
52	54	1
27	59	1
109	123	1
44	88	1
62	62	1
43	86	1
178	178	1
166	167	1
65	65	1
70	70	1
53	84	1
