152	169	1
187	187	3
235	235	6
59	59	5
85	85	6
175	175	12
161	187	1
80	81	2
128	128	5
156	156	3
50	54	1
74	74	5
173	174	2
159	174	2
209	234	1
64	64	8
22	22	5
58	58	5
168	179	2
189	190	1
179	179	7
134	134	2
69	69	5
3	7	1
169	170	3
141	143	1
137	137	5
208	208	4
60	60	4
150	151	2
63	63	6
35	35	5
10	10	4
117	118	3
82	117	1
241	241	4
136	136	4
170	170	6
205	205	4
71	71	2
223	223	6
71	72	4
31	32	2
84	105	1
51	52	3
102	112	1
232	232	6
65	65	4
151	168	1
101	101	4
113	113	7
11	11	8
126	146	1
51	51	2
27	27	8
135	135	9
15	38	1
83	83	5
43	43	6
142	143	1
159	159	8
108	108	6
205	206	2
180	180	3
55	56	2
173	173	7
120	149	1
226	227	4
163	165	2
232	235	1
126	126	7
53	53	3
48	50	1
170	171	2
151	151	15
68	68	5
174	174	6
153	154	1
119	119	6
53	82	1
197	197	4
50	51	2
177	178	1
143	165	1
204	204	3
102	102	4
47	47	3
96	96	5
174	207	1
42	42	7
242	242	1
83	136	1
158	158	8
62	62	10
191	203	1
172	172	5
23	23	4
2	2	5
82	83	2
41	41	4
219	219	7
54	54	9
239	239	4
9	9	6
177	177	4
175	179	1
13	13	2
149	149	4
127	127	5
159	160	3
230	230	4
86	86	6
183	187	1
161	161	3
144	153	2
145	145	6
173	184	1
92	92	1
11	14	1
68	109	2
180	181	5
135	152	1
124	124	3
122	122	9
122	123	3
98	100	2
7	7	5
176	176	6
78	78	3
106	106	4
37	38	5
201	208	2
72	72	9
225	230	1
24	168	2
33	33	2
164	164	9
95	119	1
190	191	4
104	105	2
120	121	3
203	203	3
123	123	3
24	24	4
106	109	1
46	46	5
30	70	1
106	127	2
183	183	8
157	176	1
107	107	3
10	204	1
144	148	1
157	175	1
166	166	4
40	41	3
140	154	2
145	147	1
60	86	2
144	144	4
138	141	2
169	169	9
38	38	5
82	82	7
63	85	2
153	153	5
18	18	4
152	152	3
83	123	1
204	208	1
133	147	1
14	14	1
18	19	1
170	173	1
74	75	1
220	221	3
18	70	1
54	137	1
116	147	1
188	189	1
115	115	3
26	27	3
64	65	3
36	36	7
12	12	5
125	125	2
214	215	3
47	53	1
3	9	3
67	67	3
219	230	1
81	84	1
200	220	1
121	122	4
140	140	4
29	29	9
3	6	1
15	17	1
199	200	1
103	117	1
45	46	3
31	31	4
201	201	1
1	2	2
227	227	5
162	162	11
214	214	2
12	198	1
61	61	8
7	22	1
154	154	4
128	136	1
95	96	2
49	50	1
50	75	1
76	79	1
48	55	2
213	229	1
194	194	4
33	60	1
21	25	1
146	146	6
181	183	3
29	72	2
220	220	4
157	157	9
18	36	2
212	212	4
19	19	6
189	189	4
191	194	1
70	70	4
56	56	8
79	80	3
150	150	8
200	200	5
178	178	8
7	34	1
153	168	1
171	171	2
4	6	2
160	201	2
26	145	1
52	52	2
96	111	1
99	113	2
19	34	1
179	181	2
118	118	3
18	41	1
44	44	8
57	57	7
71	73	1
240	240	4
16	33	1
207	207	4
155	157	2
54	55	3
142	181	1
31	175	1
24	25	2
97	97	7
20	20	4
194	211	1
182	183	3
50	50	3
101	109	2
143	144	3
79	83	1
16	38	1
8	24	1
156	158	2
98	170	1
102	174	1
6	6	5
152	181	1
130	169	2
114	174	1
54	60	1
104	180	1
38	60	1
10	24	1
236	237	1
163	163	4
21	21	1
198	198	5
100	100	2
0	0	2
209	209	3
193	195	1
182	210	1
67	68	1
153	155	1
147	148	2
202	202	4
115	139	1
129	129	1
51	53	2
231	231	7
113	114	1
138	138	6
38	55	2
24	28	1
103	103	3
48	54	2
72	76	2
17	17	5
40	40	2
1	156	1
215	215	2
26	26	3
101	102	1
2	60	1
39	40	1
80	80	3
197	198	2
133	134	1
5	5	4
8	36	1
56	57	1
7	10	1
229	229	3
234	234	3
32	61	1
158	160	1
8	238	1
6	185	1
143	143	3
203	205	1
55	55	6
120	120	2
171	172	2
168	169	1
182	188	1
69	70	1
228	228	2
112	145	1
209	210	1
133	133	3
220	222	1
198	201	2
191	191	2
29	30	1
37	54	1
31	34	1
206	206	1
1	1	6
101	178	1
130	135	2
166	167	3
3	3	4
45	136	1
186	186	3
168	168	5
227	228	1
161	185	1
234	236	1
99	99	3
150	154	1
28	69	1
234	235	2
6	13	3
224	225	4
8	8	1
10	231	1
161	167	1
135	136	1
195	195	2
143	145	1
95	95	2
16	16	3
192	193	3
23	226	1
81	224	1
133	186	1
108	114	2
217	237	1
47	187	1
161	165	1
44	240	1
146	147	1
198	228	1
55	211	1
209	224	2
220	235	1
146	163	2
30	30	3
216	216	1
135	170	1
60	67	2
165	167	2
76	78	1
207	215	1
199	199	5
81	81	2
55	61	1
141	141	3
226	226	3
167	188	1
9	29	1
32	32	6
23	55	1
167	167	3
2	3	1
183	185	1
127	143	1
219	233	2
238	238	4
120	145	1
149	152	1
174	175	2
3	63	1
1	14	1
109	109	3
183	192	2
126	180	3
222	223	1
163	164	1
38	145	1
230	231	1
129	130	2
241	242	1
131	131	3
239	242	1
202	203	2
181	184	2
34	36	1
66	74	1
183	188	2
152	153	2
7	8	3
104	112	2
168	183	1
211	228	1
126	144	1
4	4	1
195	197	1
48	48	1
233	235	2
178	188	1
216	231	1
184	185	1
33	160	1
20	41	1
157	182	3
11	12	1
35	37	1
137	138	1
182	182	5
176	177	2
5	6	1
160	161	1
21	23	1
123	125	1
76	76	1
236	236	1
30	37	1
14	16	1
110	110	1
9	230	3
120	152	1
225	225	3
45	45	3
20	31	1
205	209	1
107	108	1
140	141	1
66	66	1
3	10	2
43	44	1
179	191	1
161	188	2
39	39	1
190	203	3
221	221	2
101	113	1
14	18	1
193	196	1
108	109	3
216	217	1
172	173	1
32	73	1
4	14	2
53	107	1
51	59	1
98	98	1
76	77	1
142	142	1
59	60	1
192	192	2
181	181	2
46	47	5
77	77	2
211	211	2
120	158	3
57	58	2
53	56	1
210	211	1
213	214	2
193	197	1
12	13	1
123	141	1
78	79	3
217	217	2
155	155	2
5	11	1
217	220	1
187	188	3
147	161	1
210	210	5
107	118	1
106	113	1
75	75	2
132	224	1
10	208	1
205	215	1
114	138	1
56	104	1
180	182	1
161	164	1
238	239	3
50	53	1
41	58	2
105	105	1
148	158	2
196	201	1
79	79	2
15	42	1
63	71	1
213	213	2
58	180	1
81	103	1
151	152	1
21	22	1
204	241	2
138	140	2
165	166	2
58	60	2
46	202	1
221	222	2
185	185	2
121	121	2
186	187	1
65	68	2
128	129	1
84	84	2
212	216	1
16	18	1
175	176	1
136	149	1
210	212	1
25	104	1
156	157	1
4	5	2
206	208	1
20	23	1
16	183	1
91	91	1
7	23	1
210	222	1
184	186	2
146	182	1
9	48	1
117	117	2
0	12	2
222	222	1
5	7	1
14	19	1
237	237	1
8	23	1
38	43	1
139	142	1
150	168	1
190	190	1
100	118	1
116	117	1
211	222	1
191	192	1
177	189	1
6	7	2
40	138	1
158	159	3
139	146	1
139	148	1
126	127	1
4	18	1
49	49	1
216	218	1
15	15	1
207	208	2
134	164	1
123	124	1
82	84	1
16	17	1
59	79	1
157	158	1
136	139	1
206	220	1
168	205	1
82	122	1
83	84	1
124	126	1
111	111	1
224	224	2
3	35	1
223	224	1
9	44	1
175	177	1
139	153	1
158	183	1
81	82	1
38	39	1
160	160	1
201	227	1
6	206	1
171	224	1
160	176	1
25	25	3
112	166	1
54	58	1
99	135	1
111	120	1
145	150	1
235	236	1
152	168	1
167	184	1
125	126	2
161	162	2
46	65	1
140	142	1
219	220	1
188	188	1
164	166	1
3	42	1
106	112	1
65	66	1
202	218	1
158	179	1
152	174	1
205	230	1
237	238	1
133	142	1
130	130	1
65	70	1
121	172	1
1	169	1
188	190	1
32	71	1
84	89	1
124	163	1
37	37	2
110	111	1
206	207	1
44	212	1
148	179	1
32	40	1
52	53	1
139	141	1
208	216	1
165	168	1
122	127	1
149	150	1
28	28	1
139	139	2
178	190	1
5	41	1
104	174	1
134	158	1
9	47	1
167	168	1
18	157	1
192	200	1
43	62	1
145	149	1
125	128	1
62	63	1
212	213	1
68	69	1
25	42	1
20	33	1
37	73	1
