47	47	3
70	70	2
103	103	4
104	105	2
125	125	7
169	170	1
14	15	1
120	120	2
35	36	2
156	157	2
180	182	2
48	151	1
38	38	6
75	75	3
7	40	2
33	33	1
97	97	3
98	99	1
139	141	1
57	57	2
8	8	3
116	116	1
76	79	1
171	172	1
188	190	1
89	90	2
55	55	7
13	14	2
187	188	2
15	15	4
48	85	2
20	36	1
144	145	1
96	98	3
178	178	2
13	15	1
114	119	1
134	135	3
188	189	1
126	127	6
150	157	1
149	149	2
101	102	1
157	159	1
12	12	1
7	7	3
159	159	1
59	59	4
88	99	1
189	189	3
129	129	2
54	55	5
99	100	1
40	40	3
20	21	1
189	190	2
5	5	7
160	160	1
170	170	4
163	165	2
171	171	4
157	157	3
176	182	2
124	124	3
59	60	1
82	83	3
141	141	6
64	64	3
10	104	1
60	63	1
158	158	4
112	112	2
89	95	1
164	164	3
84	84	5
119	119	5
39	39	2
96	97	1
187	187	2
42	42	3
123	126	1
140	141	3
18	30	1
63	63	4
17	18	1
53	53	7
48	54	1
155	157	2
79	79	2
4	4	2
16	21	1
183	184	1
111	111	2
127	127	3
29	30	1
33	93	1
140	140	2
109	110	1
118	118	3
165	165	4
73	125	1
37	37	5
36	37	2
98	98	7
25	48	1
182	184	1
44	170	1
78	78	3
49	49	1
99	99	4
55	57	1
17	17	2
31	31	2
153	160	1
123	186	1
9	12	1
160	161	1
54	54	3
185	186	1
11	104	1
123	154	1
16	16	2
184	184	3
104	106	1
166	186	1
0	0	8
77	77	7
147	147	3
156	156	3
104	104	2
62	70	1
9	9	4
169	184	1
155	155	3
132	132	2
159	160	2
62	64	2
65	65	1
152	153	1
92	111	1
131	134	1
56	77	1
35	35	2
81	82	7
106	108	1
135	135	1
23	30	1
104	154	1
28	28	2
62	65	1
49	65	1
139	143	1
129	130	1
130	132	1
41	42	2
21	21	2
79	80	2
63	64	3
81	81	2
39	68	2
32	92	1
150	150	2
138	138	3
26	26	2
34	35	2
74	74	2
52	54	1
166	167	3
167	167	3
151	152	1
45	47	1
29	29	2
110	110	2
89	89	3
19	63	1
111	112	1
91	91	2
136	136	3
114	114	1
7	8	2
27	27	2
173	174	4
103	106	1
142	142	1
1	2	2
30	32	2
80	80	2
5	7	1
6	48	2
101	101	1
9	13	1
121	137	1
16	17	1
1	1	2
173	173	1
115	117	1
3	3	3
145	166	1
28	29	2
69	134	1
108	108	5
24	24	3
123	123	3
2	2	4
186	186	4
90	90	3
2	4	1
36	36	1
122	122	1
185	185	2
58	60	1
5	6	2
113	139	1
23	24	1
29	31	1
25	74	2
96	96	4
18	18	1
76	77	1
113	115	1
146	146	1
58	58	2
142	143	1
98	101	1
2	6	1
163	164	1
91	92	1
57	58	1
139	139	1
121	121	1
41	41	4
17	23	1
151	151	2
73	73	2
70	71	1
117	117	2
190	190	2
13	125	2
114	115	4
4	5	1
102	104	2
135	138	2
131	135	1
98	122	1
74	78	1
60	105	1
76	76	1
136	137	1
27	30	1
86	110	1
71	71	3
181	181	1
40	52	1
122	129	2
145	145	1
72	129	1
119	120	1
38	154	1
153	153	3
154	154	2
134	139	2
23	23	1
14	14	3
174	174	1
23	27	2
4	27	1
6	7	1
32	33	1
177	179	1
126	126	1
163	163	1
143	143	1
107	108	1
33	58	1
66	66	1
34	155	1
32	32	1
95	95	2
175	175	2
114	129	1
26	28	1
13	13	2
180	180	1
90	94	1
182	183	1
56	74	1
88	88	1
91	93	1
152	152	4
116	117	2
82	82	1
78	110	1
113	113	3
11	12	3
149	164	1
140	142	1
148	148	1
129	140	1
68	68	3
102	102	2
95	96	1
159	164	1
27	29	3
10	11	1
87	88	1
118	175	1
6	6	1
131	133	1
22	22	1
62	68	2
10	10	1
43	43	1
45	46	1
159	165	1
14	125	1
98	100	1
59	63	1
61	84	1
182	182	1
114	116	1
130	139	1
53	54	1
177	177	1
175	176	1
85	86	1
29	35	1
44	44	1
32	34	1
4	7	1
49	55	1
136	138	1
108	114	1
135	136	1
48	48	1
106	106	1
25	25	2
105	107	1
118	137	1
29	34	1
158	173	1
12	22	1
25	103	1
131	131	2
133	133	1
110	111	1
10	12	1
122	126	1
105	105	1
94	94	1
95	100	1
130	134	1
85	85	1
61	63	1
144	144	1
171	173	1
73	127	1
120	121	1
129	139	1
95	99	1
142	144	1
101	106	1
169	169	2
141	143	1
68	70	1
134	134	1
16	18	1
135	143	1
187	190	1
165	167	1
22	24	1
70	130	1
15	16	1
71	73	1
94	95	1
44	45	1
155	156	1
97	98	3
48	56	1
146	149	1
15	24	1
56	71	1
131	132	1
118	119	1
33	35	1
79	82	1
148	149	1
40	76	1
137	142	1
67	67	1
172	172	1
28	30	1
152	171	1
39	40	1
132	133	1
