97	98	1
138	138	2
8	8	4
67	95	1
42	42	1
72	73	1
49	105	1
125	125	3
136	136	2
75	79	1
6	6	2
19	20	2
67	87	3
134	134	1
57	58	2
109	109	1
143	143	1
22	22	5
104	115	1
141	141	2
11	11	2
55	58	1
80	80	4
2	2	4
3	4	1
101	101	2
126	126	1
98	98	5
74	74	6
128	129	1
9	9	2
59	60	3
2	6	2
138	139	1
53	53	4
111	114	2
27	48	2
62	62	3
110	117	1
94	95	2
93	93	1
121	121	1
20	20	3
32	32	3
102	102	3
27	28	2
92	93	3
123	123	6
128	128	2
103	125	1
96	96	1
4	4	1
136	137	2
103	104	2
34	34	2
129	129	4
23	23	2
72	72	3
1	37	2
131	132	1
99	100	2
1	2	1
39	39	2
56	56	3
14	15	1
105	105	3
110	110	1
112	120	1
95	102	1
47	105	1
142	143	1
91	91	2
33	33	3
62	75	2
90	91	2
90	90	2
57	57	1
61	61	2
88	90	1
40	40	2
18	22	1
27	27	6
48	48	1
135	136	1
87	106	1
37	37	5
99	99	2
145	145	3
58	58	4
37	38	1
118	119	2
3	3	2
28	28	3
68	68	2
82	85	1
15	16	1
87	133	1
105	106	2
117	117	3
60	61	1
28	56	1
18	27	1
107	126	1
26	27	2
10	10	5
100	100	1
104	104	1
31	32	3
13	18	2
83	85	1
97	97	2
60	60	1
75	75	2
116	139	1
105	112	1
13	32	1
84	85	1
20	26	1
17	17	2
82	83	2
25	26	1
3	38	1
127	130	1
69	70	1
74	75	2
29	29	3
118	118	2
71	89	1
58	60	1
94	94	2
65	66	1
75	137	2
40	41	4
128	130	1
36	36	1
107	107	2
133	133	1
10	21	2
56	130	1
59	59	1
95	95	1
110	112	1
87	87	2
41	41	2
137	137	1
0	0	1
20	21	1
120	120	3
113	113	1
116	116	2
66	84	1
109	123	1
85	85	3
67	67	2
17	25	1
1	1	1
42	50	2
57	59	1
59	91	1
103	115	1
133	138	1
49	49	1
78	78	1
12	19	1
97	130	1
48	53	1
124	125	1
43	43	1
21	21	1
94	110	1
77	90	1
24	24	1
53	55	1
18	18	1
66	70	1
68	70	1
66	66	1
26	26	1
140	140	1
109	110	1
