100	100	1
161	166	1
123	123	1
166	166	3
7	15	1
40	40	3
25	25	6
84	84	3
149	149	1
68	83	1
127	129	1
6	13	2
27	28	1
0	1	1
161	161	5
0	0	1
38	38	2
144	144	5
155	155	4
125	126	1
122	122	2
48	164	2
141	141	1
117	128	1
107	107	4
155	161	1
77	77	1
64	64	2
127	127	3
113	133	1
78	78	1
107	136	1
152	153	3
81	81	3
148	148	3
152	154	1
23	23	3
88	88	1
150	150	3
151	152	2
16	146	1
158	158	2
159	159	2
38	41	1
10	10	2
89	89	4
17	136	1
57	62	2
14	15	3
22	22	1
128	128	1
103	103	1
36	36	3
160	160	6
121	121	3
71	71	1
42	109	1
2	2	4
164	164	1
44	47	1
6	7	1
4	4	4
139	143	1
1	16	1
48	48	4
46	46	5
155	156	1
54	62	2
119	120	1
109	109	4
90	90	4
45	64	1
105	105	1
119	119	2
154	154	2
101	104	2
91	91	2
94	95	1
131	131	3
19	22	1
147	148	2
107	109	3
140	141	1
16	16	2
169	169	2
146	146	1
20	20	3
53	53	2
47	47	3
38	43	1
13	13	4
74	74	1
124	124	2
116	129	2
162	162	3
33	33	5
3	3	4
12	12	2
46	49	2
15	16	1
35	35	4
3	12	1
109	110	1
56	56	1
52	52	3
15	15	6
143	143	2
3	6	1
51	51	1
130	155	1
70	71	1
90	101	1
64	65	1
110	110	1
156	156	1
99	130	1
24	24	1
42	42	2
38	107	1
141	144	1
132	132	2
139	140	2
144	146	1
97	105	1
112	113	1
34	34	1
41	41	1
49	49	2
157	157	3
158	159	1
139	139	2
167	167	1
14	14	2
106	108	1
28	28	1
75	134	1
121	124	1
115	115	1
54	55	1
97	97	2
79	80	1
85	85	1
126	136	1
23	54	1
67	67	2
38	150	1
6	6	3
69	69	1
79	83	1
152	152	2
149	163	1
44	44	2
26	26	1
113	113	3
45	47	1
118	118	2
76	76	1
57	64	1
153	156	2
57	57	1
106	149	1
115	133	1
14	106	1
109	138	1
80	82	1
108	109	1
78	101	1
5	15	2
116	117	1
1	7	2
137	161	1
101	103	1
138	138	1
116	118	1
3	14	1
17	17	1
150	151	1
111	131	2
109	134	1
5	12	1
159	160	1
137	137	1
152	155	1
87	87	1
145	152	1
17	25	1
21	21	1
94	94	1
47	52	1
134	134	3
45	45	1
43	43	2
164	165	1
3	108	1
146	164	1
111	111	1
135	135	2
54	54	1
27	27	1
81	85	1
47	48	2
45	46	1
18	18	1
88	120	1
133	133	1
117	163	1
70	83	1
136	136	1
165	165	1
100	101	1
37	37	1
117	117	1
44	62	1
135	158	1
99	99	1
80	80	1
9	9	1
125	125	1
152	166	1
131	135	1
82	82	1
163	163	1
111	130	1
106	106	1
47	49	1
36	37	1
37	38	1
19	19	1
23	100	1
