95	97	1
33	34	2
61	61	1
64	64	3
125	126	1
116	117	2
29	29	1
82	117	4
36	72	1
94	94	2
76	77	2
78	78	1
58	58	3
117	117	4
119	120	1
67	67	4
6	6	1
28	28	3
56	56	3
20	21	1
136	136	1
69	69	3
52	52	1
122	123	2
21	21	2
53	54	1
9	9	4
142	142	5
42	42	3
0	1	2
5	16	2
31	34	1
85	131	1
9	21	1
11	11	3
80	94	2
95	96	1
12	13	2
116	123	1
137	138	1
30	87	2
118	139	1
39	39	2
22	22	3
95	95	2
24	24	2
144	144	4
96	96	6
113	114	2
88	88	2
112	113	1
67	68	1
17	17	3
66	66	1
102	102	3
119	137	1
65	65	1
36	37	1
96	131	1
40	40	3
14	16	1
119	119	2
127	135	1
10	10	4
103	103	4
4	24	1
101	101	2
138	139	1
63	63	2
90	90	3
99	116	1
34	34	3
60	60	2
57	58	1
110	113	1
19	68	2
1	2	1
121	121	1
100	100	1
72	72	2
127	128	2
143	144	1
83	85	1
36	36	2
123	123	2
71	82	1
62	62	1
119	121	1
35	35	1
31	32	2
82	106	2
37	38	3
111	113	1
92	93	1
2	6	2
83	84	1
41	42	1
98	98	3
5	5	2
102	103	1
84	85	1
60	70	1
18	19	1
134	134	3
133	134	2
78	86	1
114	114	4
92	92	1
109	109	1
53	125	2
14	52	1
77	80	1
48	48	1
106	107	1
145	145	2
21	27	1
18	128	1
111	114	3
35	36	2
69	71	1
50	51	2
70	70	2
115	119	1
108	108	2
88	89	1
138	138	2
76	76	2
64	110	1
104	104	2
51	51	4
59	59	1
99	100	2
87	135	1
16	60	1
66	68	2
46	48	1
93	93	1
134	135	2
102	125	1
1	1	1
26	27	1
95	140	2
19	19	2
91	91	1
43	43	1
48	49	1
127	127	1
2	40	1
14	17	2
8	30	1
133	133	2
52	103	1
126	126	1
134	136	1
89	89	2
100	101	1
102	142	1
28	38	1
96	98	1
145	146	1
0	29	1
129	129	2
140	141	1
64	103	1
137	139	1
87	87	2
97	106	1
54	69	1
96	140	1
3	4	1
65	71	1
21	22	1
79	79	2
70	71	1
131	131	2
90	120	1
92	111	1
38	48	1
8	9	2
41	41	2
87	90	1
31	31	3
92	103	2
22	41	1
18	27	1
74	79	1
72	79	1
81	81	1
35	37	1
70	88	1
71	71	1
100	129	1
12	29	1
73	73	4
113	113	1
141	141	2
20	20	2
46	76	1
95	127	1
15	16	2
16	17	1
107	107	1
74	74	2
117	139	1
33	33	2
132	132	2
26	26	2
99	99	2
2	13	1
8	8	1
49	49	1
71	95	1
110	110	1
57	57	2
13	14	2
30	125	1
86	86	1
136	137	1
84	84	1
47	47	1
81	96	1
112	112	1
30	40	1
140	143	1
125	125	1
124	125	1
105	105	1
75	75	1
130	134	1
97	139	1
115	115	1
13	13	1
130	140	1
32	32	2
36	47	1
130	130	1
19	40	1
38	38	1
25	26	1
24	25	1
97	102	1
106	106	1
30	30	1
72	76	1
25	25	1
14	14	1
