96	96	11
1	1	4
13	18	1
85	86	2
13	13	2
33	33	4
98	98	8
27	27	1
124	125	1
83	87	1
132	133	1
102	102	9
116	124	1
119	119	2
99	125	1
135	137	1
132	132	3
114	115	3
136	136	9
9	10	1
133	137	1
109	109	5
86	86	5
98	99	2
139	139	5
37	38	5
121	122	2
37	37	9
33	34	2
99	100	2
98	125	1
72	77	1
75	75	3
72	73	3
11	11	3
129	129	2
131	132	4
137	137	3
107	107	2
111	111	6
120	121	4
28	28	1
116	117	1
112	112	9
120	120	5
95	95	5
102	113	2
101	101	10
123	124	1
97	98	1
91	91	6
96	97	2
2	2	2
119	123	2
116	118	1
92	124	1
8	8	1
127	127	3
116	116	5
3	4	1
126	126	3
101	124	1
15	15	2
117	119	2
111	123	1
105	106	1
97	97	3
7	7	5
12	12	2
108	109	3
106	106	3
95	111	2
104	104	3
87	87	6
103	103	5
131	131	4
36	36	3
130	130	11
123	123	9
133	133	6
115	115	6
34	34	7
118	118	5
104	116	1
117	117	6
3	3	2
113	113	7
100	100	4
38	38	5
84	85	1
82	86	1
125	126	3
134	134	7
17	17	1
80	80	6
101	112	1
35	35	5
124	124	2
9	9	4
18	18	4
110	125	1
87	116	1
110	110	4
90	90	5
19	19	4
71	101	2
0	1	1
128	128	1
134	135	2
82	82	2
94	95	2
71	71	4
26	38	1
20	20	2
35	36	2
125	125	5
10	20	1
114	114	4
34	35	2
102	132	1
115	116	2
88	88	2
14	14	3
74	91	1
33	35	1
78	78	3
135	135	2
36	37	1
89	89	2
102	103	1
99	99	5
0	0	2
73	74	1
87	88	1
103	104	1
15	18	3
126	128	1
79	93	1
88	89	1
2	4	1
83	83	3
94	94	2
91	100	1
101	102	1
92	128	1
107	118	1
117	123	1
96	101	2
77	103	1
110	112	1
100	101	1
113	114	2
137	138	1
103	109	1
95	96	3
10	11	1
88	101	2
131	133	2
76	76	3
112	113	1
101	126	1
102	117	1
16	17	1
5	6	2
99	115	1
92	93	1
93	93	1
86	88	1
89	90	2
120	122	2
138	139	2
81	84	2
105	107	2
100	137	1
72	72	3
6	8	1
101	131	1
74	74	1
6	6	1
116	119	1
33	36	1
127	140	1
12	15	1
112	114	1
104	106	1
109	110	1
4	4	1
38	133	1
140	140	1
114	117	1
102	119	1
7	9	1
138	138	1
131	138	1
5	5	3
117	118	1
32	32	1
89	102	1
87	103	1
126	127	1
108	110	1
127	128	1
10	10	1
82	122	1
94	112	1
85	117	1
116	125	1
115	125	1
75	76	2
133	134	1
130	132	1
74	77	1
127	134	1
79	86	1
130	131	1
128	133	1
123	129	1
79	109	1
