87	87	3
102	102	1
147	148	2
14	15	3
134	134	1
78	79	2
18	19	2
19	19	2
145	149	1
50	52	1
144	146	3
106	106	2
64	65	1
108	108	3
48	49	1
113	114	4
77	78	1
23	23	1
12	13	1
66	66	4
75	76	1
49	49	1
30	31	3
130	132	1
110	110	3
63	65	1
4	4	3
123	130	1
53	54	2
99	101	2
130	130	3
30	32	1
116	116	4
77	77	4
20	21	1
109	109	2
111	111	2
37	37	3
41	69	1
74	75	2
70	70	3
64	64	3
37	38	1
105	107	1
83	83	1
51	51	2
31	32	1
121	121	3
120	120	2
103	104	5
29	35	1
133	133	2
57	57	2
79	107	1
28	28	1
119	119	2
126	126	1
34	35	2
122	122	3
118	118	3
24	24	2
137	138	5
85	85	1
62	62	2
47	47	5
76	103	1
69	152	3
151	152	1
17	17	3
136	136	2
95	95	2
128	128	7
36	36	2
27	28	4
48	50	1
81	82	1
38	38	1
114	114	4
16	16	1
138	138	1
10	10	2
145	145	2
46	46	3
32	32	5
42	42	3
137	137	3
148	148	1
43	43	5
66	67	3
107	107	4
13	13	2
31	31	5
58	74	1
12	12	1
40	40	2
8	8	1
125	127	1
103	103	1
34	34	1
102	103	2
149	149	2
143	144	2
15	15	2
29	29	2
139	139	2
99	99	2
74	74	2
12	33	1
67	67	1
32	35	1
138	139	2
131	131	4
39	39	2
2	2	1
57	103	1
92	92	1
140	142	2
12	98	1
100	101	2
143	147	2
91	92	1
14	14	1
83	84	1
11	38	1
51	53	1
76	77	2
111	135	1
106	116	2
146	147	2
113	113	2
44	44	2
108	114	1
76	76	2
13	67	1
108	110	1
9	9	4
129	130	2
146	146	2
30	30	3
89	98	1
78	78	1
145	146	1
142	143	1
104	107	1
23	36	1
20	128	1
128	130	1
6	6	2
93	93	1
79	79	2
12	29	1
150	151	1
118	151	1
97	97	1
18	20	1
135	135	2
114	119	1
22	22	1
35	35	1
152	152	1
129	129	1
69	69	2
65	66	1
39	69	1
64	66	1
21	98	1
48	48	1
7	7	1
138	145	1
139	140	1
57	100	1
114	115	1
104	104	1
49	71	1
64	68	1
81	115	1
99	105	1
28	29	1
11	11	1
123	124	1
93	98	1
27	30	1
18	18	1
10	33	1
69	117	1
144	144	1
5	5	1
25	25	1
133	134	1
33	58	1
53	107	1
22	23	1
45	45	1
120	136	1
31	38	1
26	26	1
99	115	1
27	27	1
142	142	1
43	45	1
42	43	1
28	30	1
47	48	1
66	69	1
150	150	1
52	53	1
10	11	1
41	41	1
86	123	1
5	6	1
33	34	1
54	55	1
84	111	1
112	131	1
86	87	1
17	46	1
73	73	1
112	112	1
127	127	1
