68	68	4
153	153	5
146	165	2
49	49	8
2	43	1
109	109	5
102	102	2
4	4	10
161	161	6
46	65	1
124	125	3
102	123	2
150	151	2
16	16	7
56	56	4
14	15	4
21	21	5
10	10	4
158	158	4
128	129	4
53	53	8
143	157	2
106	106	4
117	118	5
77	77	2
102	103	3
141	141	7
28	28	4
112	112	7
130	130	3
117	117	4
71	71	4
21	22	1
145	145	8
3	3	11
48	50	1
66	75	1
8	157	1
137	137	6
114	114	5
131	131	6
164	164	13
88	170	2
0	100	2
47	49	3
101	105	1
156	156	4
20	20	6
150	150	12
46	49	1
147	149	1
66	66	6
41	41	11
149	149	1
42	43	4
80	83	3
34	34	11
159	159	7
20	22	1
12	13	1
80	118	2
6	7	6
48	48	7
105	105	8
37	37	5
133	133	4
41	52	1
84	84	10
12	12	5
42	108	1
9	9	4
151	155	1
21	24	3
20	24	3
86	87	4
80	81	3
126	126	9
46	46	4
19	23	2
142	142	4
0	166	1
152	155	2
132	132	8
83	84	3
142	143	3
154	155	2
165	165	3
162	163	3
27	28	3
102	110	1
96	97	2
0	0	5
88	88	4
1	1	5
42	42	5
125	125	8
23	154	2
6	6	7
45	46	1
146	146	3
80	80	5
119	119	11
0	10	1
144	144	6
89	89	7
104	113	1
91	92	1
87	87	5
47	48	1
5	6	2
25	25	5
70	70	2
77	79	2
132	133	2
132	134	2
5	5	4
64	64	4
54	74	1
43	43	14
102	105	1
69	70	3
152	153	1
75	75	6
101	144	1
142	151	1
160	160	7
78	78	4
136	136	11
101	103	2
44	44	8
17	17	5
69	69	2
13	13	5
170	170	7
17	21	1
38	41	1
15	126	1
155	155	5
124	124	6
65	69	1
40	105	1
111	112	1
138	138	5
1	2	1
42	44	3
168	169	3
10	11	2
3	5	2
18	19	2
38	39	1
123	145	1
120	120	4
129	130	1
15	15	2
155	156	2
14	14	3
39	39	6
79	79	4
95	96	1
36	36	8
51	51	5
143	143	7
76	77	1
159	160	2
121	122	2
111	111	4
54	55	4
40	40	9
102	104	1
55	69	1
79	80	3
117	127	2
25	52	1
70	74	1
57	71	2
73	73	3
74	74	5
64	125	2
51	52	1
50	50	3
35	35	4
108	149	3
2	4	2
4	150	1
122	122	3
139	169	1
162	162	6
157	157	5
166	166	4
111	117	1
105	116	1
44	46	1
49	50	1
77	78	1
7	161	2
91	129	1
157	158	2
18	18	7
113	120	1
108	164	1
48	51	2
98	128	2
142	145	1
151	151	10
162	164	1
83	83	7
100	100	5
40	41	1
13	44	1
53	56	1
135	135	6
49	55	1
7	11	1
33	35	2
11	12	3
52	52	4
2	2	4
134	161	1
106	117	1
27	27	3
38	38	5
119	123	2
96	96	2
7	7	5
143	149	2
34	42	1
128	128	5
69	167	1
63	63	2
81	81	4
92	93	1
113	113	4
90	91	2
98	98	2
143	144	5
62	63	1
152	152	5
144	154	2
93	95	1
110	110	5
73	77	1
154	154	3
121	121	6
90	90	4
122	123	2
3	4	4
45	47	2
147	147	12
22	22	3
115	124	2
101	114	1
45	45	3
44	47	1
67	69	3
140	140	2
140	141	1
137	138	3
22	24	1
167	167	8
83	119	1
67	67	6
24	24	4
5	12	1
54	54	6
41	42	2
115	115	4
169	169	3
41	43	2
94	94	3
161	166	2
13	53	2
11	154	1
147	148	2
0	1	2
149	150	2
22	23	3
46	47	2
76	94	1
56	68	1
93	93	7
88	128	1
116	118	1
39	40	2
20	99	1
33	33	1
117	157	1
99	99	6
86	112	1
153	156	1
105	106	2
53	70	1
8	155	2
127	127	2
163	163	5
57	57	2
26	167	1
63	66	2
105	140	2
153	166	2
123	123	4
94	99	1
136	147	1
140	142	1
108	108	3
139	139	3
64	65	1
86	86	2
99	130	1
151	152	1
56	57	1
11	11	3
90	97	1
36	88	1
129	129	3
148	148	3
8	8	6
107	149	1
93	94	3
73	148	1
27	40	1
156	157	2
82	82	2
14	35	1
146	147	1
17	89	1
140	165	1
113	116	1
73	74	1
114	116	1
64	66	1
131	154	2
39	42	1
55	55	2
101	102	1
101	101	1
158	159	1
132	154	1
106	107	2
149	160	2
160	161	2
11	14	1
23	23	1
46	55	1
47	47	5
91	91	4
66	81	1
143	150	1
163	164	1
28	44	1
37	150	1
44	45	2
2	167	1
37	38	1
148	149	1
90	112	1
8	9	1
65	68	2
118	118	3
6	12	1
7	10	1
149	154	1
36	107	1
57	58	1
121	123	2
26	150	1
79	118	1
76	76	2
13	27	2
130	139	2
64	73	1
39	41	1
18	24	1
167	169	1
75	93	1
17	18	1
137	140	2
68	80	1
46	70	2
35	36	1
93	117	1
134	160	1
24	52	1
93	123	1
130	140	1
97	97	2
42	147	1
97	114	1
152	163	1
92	92	2
2	17	1
153	154	1
3	105	1
69	80	1
98	113	1
79	121	1
2	3	1
168	168	2
65	66	1
5	45	1
26	26	1
20	21	2
122	146	1
58	58	1
7	25	1
50	55	1
112	113	1
76	84	1
155	157	1
140	157	1
164	165	1
25	26	1
33	34	3
126	146	1
36	37	1
116	116	1
103	103	4
36	42	3
141	156	1
117	143	1
68	81	1
111	125	2
46	48	1
62	62	1
88	89	1
147	160	1
109	110	2
136	138	1
36	44	2
12	54	1
111	116	1
141	142	1
110	130	1
13	47	1
58	71	1
149	159	1
107	107	3
7	8	1
136	146	1
22	127	1
77	94	1
137	151	1
104	104	3
161	162	1
17	47	1
72	85	1
169	170	2
5	48	1
121	145	1
92	102	1
134	138	1
112	148	1
37	109	1
34	35	1
122	125	1
134	134	1
85	85	2
75	102	1
53	54	1
127	130	1
123	124	1
48	49	1
72	82	1
117	126	1
22	70	1
58	72	1
81	82	1
156	166	1
113	114	1
54	94	1
120	147	1
106	109	1
1	46	1
112	114	1
7	23	1
106	136	1
111	150	1
110	111	1
117	133	1
131	134	1
76	102	1
103	133	1
89	90	1
105	119	1
121	146	1
85	95	1
7	9	1
76	80	1
126	143	1
4	5	1
41	86	1
42	52	1
80	92	1
