102	135	2
55	59	1
113	113	2
129	129	6
54	61	2
59	59	3
98	128	1
84	84	2
5	5	8
113	114	3
52	54	5
10	10	5
16	16	7
36	36	5
15	16	4
74	75	2
2	2	3
120	120	6
65	65	7
66	68	2
89	89	5
84	85	5
6	6	4
13	21	3
80	80	14
95	97	1
105	112	2
17	17	5
99	100	1
43	45	1
72	72	7
15	15	4
45	46	1
66	66	7
17	22	1
28	28	7
64	65	5
110	111	2
31	32	2
4	7	2
53	61	1
1	3	1
52	79	2
78	78	5
54	77	2
82	82	3
19	25	1
119	119	5
87	87	13
106	108	2
30	30	4
126	126	5
44	44	5
73	73	6
22	22	5
128	128	5
45	45	8
5	29	4
7	9	2
11	26	1
130	131	1
90	90	2
33	35	1
95	96	1
91	118	1
67	67	2
1	1	3
46	46	1
79	79	9
119	124	1
116	117	2
52	64	1
118	119	1
69	85	2
4	4	11
47	47	4
104	110	3
85	85	8
19	19	2
21	21	8
68	68	8
77	77	3
104	104	4
35	38	1
63	108	1
106	106	4
50	50	8
16	29	2
92	92	3
25	25	6
64	64	8
77	78	2
55	56	2
6	11	4
61	61	7
65	68	1
18	20	1
63	71	1
66	67	3
52	52	4
111	112	1
98	98	8
20	52	1
48	55	1
70	70	6
76	76	4
118	118	3
30	31	1
21	23	2
74	74	3
111	111	3
34	34	4
131	131	5
75	75	5
115	116	2
65	67	1
12	12	7
132	132	6
0	1	3
52	59	1
108	108	7
60	86	1
96	96	5
43	43	7
108	128	1
106	109	1
96	97	2
122	122	2
76	77	2
107	110	2
7	7	1
14	14	3
91	91	2
60	77	1
0	44	1
66	97	1
59	80	1
55	57	1
14	17	2
42	45	1
74	89	1
71	71	11
108	110	2
105	105	3
48	56	1
130	130	6
134	134	2
27	27	2
81	81	6
53	53	9
122	123	3
44	46	1
8	8	2
68	69	1
70	94	1
43	44	2
1	2	1
92	101	1
102	102	6
105	131	1
86	87	5
110	110	5
90	120	1
58	114	1
63	63	6
42	43	1
79	81	1
3	3	5
24	24	8
18	19	3
127	127	2
5	34	1
125	125	3
105	107	1
46	53	1
18	18	5
38	82	2
127	128	1
74	79	1
38	38	1
106	116	1
9	9	4
56	56	3
43	70	2
72	104	1
103	121	2
60	60	4
83	83	4
11	11	6
100	100	3
61	64	1
0	0	3
28	32	1
55	55	2
1	131	2
99	99	2
73	74	1
100	122	2
13	13	2
53	54	1
27	29	1
109	109	4
9	11	2
98	126	1
54	57	1
86	94	2
32	35	1
105	119	1
124	124	2
53	60	1
35	35	3
115	115	3
59	68	2
94	94	2
34	62	1
6	7	2
31	31	6
81	82	1
133	133	5
33	34	2
63	115	1
18	23	1
88	88	3
13	16	1
97	97	1
69	69	5
128	133	2
54	55	2
69	82	1
29	29	5
126	127	2
88	102	1
94	97	2
82	83	2
117	117	4
20	21	2
101	101	3
49	49	2
57	58	2
56	60	1
3	4	2
33	33	5
109	134	1
107	108	1
131	132	2
32	32	2
44	45	2
112	112	5
37	59	2
86	86	4
89	93	1
11	12	1
116	116	1
83	85	2
54	54	5
72	73	1
20	20	3
67	68	1
100	101	2
12	28	1
112	126	1
89	91	1
23	23	2
32	33	1
31	38	1
130	133	1
121	123	2
56	93	1
87	99	1
93	134	1
119	120	2
1	6	1
1	7	1
76	91	1
57	127	2
45	53	1
115	117	1
88	114	1
73	75	1
2	22	1
13	31	1
107	107	1
8	72	1
48	48	1
112	114	1
120	121	2
3	5	1
34	76	1
114	114	1
6	9	1
93	93	2
78	117	1
12	14	1
9	10	1
87	88	3
123	123	1
97	99	1
24	27	1
38	58	1
91	104	1
103	103	1
76	79	1
44	50	1
61	85	1
65	66	1
95	95	1
118	126	1
120	131	1
57	57	3
132	133	1
25	26	1
52	65	1
79	115	1
61	62	1
37	37	2
125	126	1
119	122	1
34	35	1
64	95	1
51	51	1
69	70	1
89	90	2
57	64	1
5	6	1
19	21	1
96	131	1
78	111	2
63	64	2
90	91	1
25	31	2
92	96	1
110	113	1
16	132	1
124	133	1
49	50	1
56	59	1
25	118	1
56	58	1
79	87	1
59	60	1
118	122	2
80	83	1
74	132	1
82	85	1
47	52	1
75	78	1
35	36	1
121	121	2
57	62	1
52	61	1
119	121	1
8	28	1
42	42	1
77	87	1
70	71	1
71	73	1
62	62	2
106	107	1
112	113	1
27	44	2
60	61	1
109	111	1
17	18	1
64	88	1
22	70	1
63	82	1
