69	69	4
123	123	2
112	115	1
117	117	4
17	46	1
8	8	2
74	75	1
32	32	2
99	99	3
131	131	3
40	40	1
78	78	3
124	124	1
78	80	1
35	55	1
34	44	1
62	62	3
56	58	1
18	44	2
81	104	2
31	31	2
35	43	1
65	65	5
107	120	1
45	58	1
41	41	1
6	10	1
121	121	4
108	121	1
114	114	2
46	46	6
100	101	1
15	114	1
106	106	2
36	36	2
50	50	1
20	21	1
90	93	1
16	16	1
72	72	3
111	130	1
47	47	7
131	132	1
48	48	1
111	111	4
57	68	1
75	76	2
23	23	1
68	68	2
58	102	1
61	61	3
133	133	1
115	116	1
87	129	1
38	38	3
93	93	4
58	58	5
59	59	7
11	12	1
118	120	1
82	82	3
33	34	2
38	101	1
15	15	1
99	100	1
79	79	3
21	26	1
133	134	3
25	25	2
95	96	3
81	122	2
115	115	4
120	120	3
74	74	4
127	128	2
129	129	1
104	104	2
27	27	1
105	105	3
29	29	1
11	11	2
75	75	1
111	112	1
56	56	2
28	28	1
102	113	1
35	36	2
19	35	1
122	122	5
103	106	1
66	117	2
126	132	1
49	55	1
84	94	1
120	123	1
73	73	1
3	3	6
44	44	3
12	46	1
45	71	1
14	15	1
123	124	1
20	40	1
10	10	2
7	7	3
13	14	1
57	58	1
40	41	1
14	14	1
130	130	1
63	64	1
105	122	1
5	5	3
30	83	2
119	119	2
85	92	1
64	66	1
19	57	2
4	6	2
102	102	1
6	7	2
104	111	1
84	128	2
13	15	2
0	0	4
20	39	3
97	97	2
12	12	2
77	77	1
128	134	1
32	33	1
92	92	1
82	114	1
66	83	1
30	30	1
9	9	1
105	106	3
1	46	1
51	51	1
26	26	1
116	116	1
24	30	1
108	108	1
118	118	3
104	105	1
39	41	2
94	126	1
21	21	1
102	122	1
13	13	2
71	72	1
33	37	1
112	112	3
105	123	1
100	100	2
62	66	1
64	65	1
1	1	1
125	125	1
106	109	1
85	85	1
55	55	2
71	71	1
14	31	1
60	60	1
80	80	1
98	98	1
80	102	1
6	15	1
39	39	2
57	74	1
82	83	1
33	36	1
76	76	1
126	126	2
22	22	1
93	112	1
19	19	1
85	111	1
45	45	1
37	90	1
29	30	1
93	100	1
66	66	1
2	2	2
109	109	1
88	115	1
79	90	1
18	21	1
2	45	2
91	92	1
117	118	1
44	62	1
63	63	1
9	11	1
94	95	1
117	119	1
107	107	1
37	38	1
88	90	1
87	104	1
10	67	1
110	110	1
31	56	1
115	126	1
