29	31	1
129	130	2
204	204	4
217	227	1
24	24	4
158	158	2
33	33	1
180	184	2
4	6	1
183	183	1
114	114	2
4	58	1
20	20	2
23	23	5
99	99	6
24	25	1
63	64	1
139	139	1
174	238	2
66	75	1
18	18	2
70	71	1
185	186	2
19	19	4
3	3	1
41	41	4
237	238	1
169	169	1
6	6	5
164	166	1
241	241	2
8	120	1
171	174	1
65	120	1
205	206	1
31	32	1
158	183	1
61	61	1
66	69	1
170	242	2
164	164	1
2	2	2
54	54	3
76	85	2
84	84	2
134	134	3
200	200	2
84	153	1
65	65	1
214	214	4
198	198	3
173	174	2
230	230	5
106	108	1
79	79	3
80	81	2
146	146	1
216	216	3
170	170	2
159	159	3
142	142	3
234	234	1
70	70	4
112	172	3
167	167	1
228	229	1
61	85	1
129	132	1
119	119	1
179	179	1
174	200	1
144	144	2
177	177	3
4	5	2
199	222	1
78	78	2
42	42	2
4	4	2
39	39	1
192	192	3
58	58	4
161	161	4
222	223	1
103	105	1
162	162	8
4	161	1
46	46	2
18	212	1
212	212	2
200	208	1
13	14	1
55	66	1
102	102	2
199	199	3
31	39	1
2	3	3
201	201	2
53	53	2
226	226	1
29	29	1
153	154	2
223	225	1
27	27	1
109	133	1
126	127	2
10	15	1
9	12	2
15	15	2
148	158	1
151	153	1
71	71	2
118	119	1
55	181	1
155	155	1
6	210	1
200	201	1
163	164	1
51	51	3
154	154	1
81	81	3
174	175	2
179	180	2
25	26	1
160	160	2
206	207	1
67	67	2
180	180	3
34	35	2
50	50	1
64	64	2
159	160	3
47	47	2
12	13	1
127	128	1
224	224	2
1	1	3
117	124	1
153	156	2
80	84	1
132	134	1
151	154	1
133	133	3
83	83	2
147	199	1
174	174	1
140	140	1
109	109	3
55	55	2
186	194	1
10	10	6
196	197	1
8	8	7
203	206	1
30	31	1
105	105	2
165	165	1
156	156	2
75	75	5
52	52	2
7	9	1
13	13	2
1	150	1
135	135	1
105	127	1
206	206	2
178	183	1
193	195	2
3	8	1
210	210	1
137	138	2
77	83	1
34	34	2
157	158	1
182	182	2
109	110	1
232	232	1
80	80	2
125	126	1
64	96	1
138	138	2
49	49	1
124	124	1
74	74	4
197	198	1
148	148	2
46	47	1
145	145	2
120	121	1
197	197	3
147	147	1
215	215	2
123	124	1
40	41	1
172	217	1
151	163	1
205	205	1
21	22	1
188	189	1
179	183	1
221	221	1
176	176	1
121	241	1
170	174	1
107	108	2
188	188	1
17	17	4
77	77	1
137	137	2
181	181	2
139	140	1
31	31	1
159	175	1
143	143	2
52	77	1
194	212	1
39	42	1
1	2	1
27	28	2
48	64	1
186	186	5
162	163	1
60	67	1
194	195	1
57	57	2
57	68	2
178	179	1
91	108	1
225	225	1
147	148	1
167	177	1
131	152	1
14	14	2
21	21	2
144	148	1
103	103	1
156	157	1
148	179	1
9	9	4
4	210	1
65	66	1
18	229	1
103	104	1
117	117	1
85	85	1
63	63	1
136	136	3
104	141	1
190	190	1
141	143	1
239	240	2
32	32	2
5	5	1
183	187	1
124	126	3
36	36	2
22	22	1
43	44	1
197	203	2
124	143	1
0	0	2
48	55	1
163	163	1
3	131	1
168	168	2
184	206	2
164	167	1
50	53	1
113	113	1
5	6	1
70	74	1
44	44	1
60	60	1
152	152	3
231	232	1
173	173	2
224	226	1
16	18	1
191	209	1
16	16	2
72	73	1
23	24	1
45	62	2
98	98	2
12	14	1
11	152	1
79	85	1
59	78	1
164	186	1
36	38	1
124	136	1
77	79	1
73	74	1
7	8	1
175	206	1
184	185	1
227	227	1
37	38	1
117	118	1
130	173	1
223	223	1
172	173	1
211	211	1
124	125	1
47	63	1
232	242	1
144	161	1
141	142	1
182	184	1
218	219	1
166	168	2
95	95	1
166	189	1
123	123	1
134	135	1
127	127	1
15	39	1
157	170	1
145	149	1
209	209	1
130	131	1
136	152	1
144	199	1
173	178	1
18	211	1
97	97	1
239	239	1
171	171	1
48	49	1
54	75	1
187	208	1
106	106	1
193	193	1
33	34	1
30	30	1
193	194	1
178	178	1
97	98	1
185	185	1
236	236	1
81	114	1
159	162	1
204	205	1
