33	33	3
39	39	3
170	179	1
21	40	1
5	33	1
185	185	1
43	45	1
159	159	1
170	170	5
20	20	3
160	160	2
125	125	1
19	19	4
158	158	3
13	13	4
64	98	2
36	37	1
139	139	3
121	122	1
122	122	5
70	70	1
53	53	3
154	154	1
150	171	2
36	36	10
32	32	4
72	72	4
58	58	5
42	87	1
180	181	1
181	181	3
50	51	4
183	185	1
103	104	1
177	179	1
8	8	2
183	183	3
8	30	1
65	65	1
168	171	1
159	160	1
7	7	4
40	40	3
164	164	3
73	73	2
24	25	1
156	171	1
174	176	2
12	12	1
79	80	1
186	194	1
170	187	1
145	155	1
66	66	1
16	17	3
23	24	1
177	177	1
16	21	1
147	147	3
69	69	3
142	172	1
9	9	4
172	172	6
134	135	1
187	187	3
137	149	2
154	191	2
145	149	2
30	30	7
18	18	3
126	126	1
35	36	2
34	36	2
83	83	4
29	163	2
29	30	2
130	130	2
21	21	6
128	129	1
47	47	2
1	1	2
45	45	5
182	183	1
38	38	2
31	31	2
101	101	2
192	192	3
177	178	1
117	117	2
4	69	1
116	116	1
190	190	2
120	120	2
27	27	2
0	1	2
49	49	2
48	48	3
132	141	2
4	5	1
40	41	5
140	141	1
109	109	2
89	89	1
106	106	1
190	191	2
52	54	2
41	41	2
187	188	2
181	182	1
194	194	2
22	22	4
5	5	4
112	113	1
81	81	1
148	148	1
148	149	1
157	158	2
171	171	2
78	85	1
28	30	1
15	16	1
102	103	1
4	4	2
176	177	2
184	184	2
115	118	2
178	179	1
8	10	1
46	46	4
81	83	1
21	24	1
152	152	1
191	192	2
142	142	2
17	17	2
24	24	5
137	137	1
23	34	1
59	123	1
135	135	2
0	5	1
175	175	2
80	81	2
115	115	2
144	144	3
1	191	2
135	152	2
67	67	2
162	167	1
25	25	2
145	146	1
43	43	3
31	74	1
8	31	1
38	39	3
138	138	1
108	108	2
104	104	1
182	184	2
86	86	4
148	161	1
20	22	2
118	118	1
132	132	2
59	59	1
8	16	1
112	116	2
138	156	1
64	65	2
161	161	3
155	155	3
44	44	2
167	167	2
157	192	1
54	186	1
27	187	1
19	23	1
10	10	1
186	186	1
23	23	2
125	127	1
3	3	1
190	192	1
17	143	1
133	133	2
14	44	1
182	187	1
52	52	2
162	162	2
67	68	1
176	176	3
78	79	1
149	149	2
94	94	1
113	113	1
0	0	1
57	57	1
84	85	1
136	136	1
172	179	1
110	113	1
156	156	1
12	13	1
21	22	2
21	23	1
16	32	1
103	105	2
46	47	1
62	70	1
14	14	3
95	95	1
34	34	1
168	168	2
178	178	4
20	21	1
196	196	1
131	132	1
174	178	1
119	120	1
19	151	1
141	143	1
37	41	1
186	188	1
117	118	1
118	119	1
33	43	1
141	142	1
35	35	1
141	141	1
29	31	1
106	125	1
21	33	1
174	174	1
174	175	1
7	24	1
88	88	2
128	128	2
6	6	3
188	189	1
96	97	1
2	2	1
117	120	1
19	20	1
9	10	1
17	23	1
110	111	1
148	150	1
74	74	1
123	123	2
1	2	1
143	143	1
152	172	1
159	162	1
158	163	1
179	181	1
131	131	1
66	69	1
29	179	2
39	40	1
18	19	1
111	112	1
134	134	1
45	135	1
5	67	1
119	119	2
1	23	1
179	180	1
77	82	1
15	15	1
154	155	1
11	11	1
81	85	1
61	70	1
121	121	1
130	135	1
63	63	1
106	107	1
45	47	1
144	145	1
150	150	1
108	115	1
193	194	1
126	127	1
161	162	1
62	62	1
188	188	1
77	77	1
131	139	1
51	51	1
172	182	1
111	111	1
68	68	1
31	32	1
166	166	1
71	71	1
137	171	1
41	42	1
37	37	1
