66	66	4
117	117	4
61	62	2
55	80	1
111	111	4
86	86	3
14	14	4
35	35	3
5	6	5
71	72	2
104	105	1
72	119	1
76	76	6
32	32	4
101	101	4
126	126	6
67	67	1
103	104	1
65	65	9
91	91	3
59	60	2
57	57	3
118	118	8
110	110	2
113	113	2
75	75	4
93	94	2
130	130	9
68	68	8
132	132	1
72	72	7
121	122	2
33	33	1
123	123	3
69	69	9
12	31	1
80	80	7
78	123	1
119	119	7
3	4	2
106	129	1
61	61	5
71	71	3
94	94	9
116	122	1
10	10	7
91	93	1
115	115	3
21	22	1
94	95	3
84	84	3
50	50	2
56	57	1
5	5	3
87	87	5
15	15	11
4	8	1
65	66	1
22	25	1
73	73	5
108	120	1
114	116	1
102	102	4
111	117	1
27	27	2
120	120	8
24	25	2
78	93	2
100	100	4
77	77	2
16	44	1
1	2	1
4	4	3
11	11	4
31	37	1
32	42	1
59	59	6
46	47	2
122	122	3
26	26	1
38	38	1
49	49	2
62	62	9
90	90	5
105	105	5
12	12	3
104	104	3
106	106	3
114	115	3
83	83	3
124	125	3
116	120	1
30	30	4
112	112	5
111	121	1
2	2	2
79	79	3
92	94	1
58	80	1
35	36	2
63	63	6
125	125	5
29	30	2
9	9	5
4	6	1
12	13	3
15	17	1
96	99	1
26	27	1
134	134	10
78	81	1
103	103	4
78	94	2
128	129	2
60	60	3
26	39	1
80	86	1
78	78	5
70	71	2
120	134	1
101	110	1
8	8	4
23	23	4
42	42	1
37	42	1
90	92	1
56	56	6
119	120	1
32	47	1
97	98	3
97	99	1
9	35	1
82	93	1
109	109	4
0	1	1
131	133	1
114	114	2
31	123	1
28	28	3
14	15	2
78	79	2
68	82	1
8	44	2
19	19	3
85	85	3
22	22	4
33	34	2
64	64	3
70	70	4
4	5	1
115	125	2
28	32	1
86	89	2
77	78	1
20	21	2
6	6	3
127	127	3
39	42	1
19	20	3
107	107	3
13	13	3
81	82	2
91	121	1
23	25	1
62	63	2
45	45	3
41	41	2
36	40	1
96	97	1
131	131	3
48	49	1
73	74	1
3	3	2
72	74	1
17	17	2
108	108	3
120	121	1
62	71	1
86	93	1
31	44	1
5	29	1
58	74	1
64	65	1
21	32	1
63	64	1
11	76	1
102	104	1
129	129	4
46	46	4
123	124	2
20	20	1
32	75	1
69	71	1
123	127	2
19	24	1
74	74	2
31	31	3
95	107	1
26	30	1
47	47	2
33	61	1
5	13	1
95	95	4
132	133	1
58	111	1
33	47	1
74	75	1
27	28	1
46	59	1
131	132	1
57	58	2
104	108	3
133	133	2
99	99	2
108	112	1
128	128	3
109	110	1
24	24	4
68	69	3
35	43	1
46	94	1
66	67	1
115	116	1
34	34	2
7	8	1
97	108	1
6	7	2
22	103	1
34	35	2
16	17	2
74	118	1
103	105	2
124	124	4
11	14	1
133	134	1
88	88	3
107	108	2
116	116	2
101	104	1
42	43	1
16	16	1
0	0	2
4	45	1
101	107	1
75	76	1
98	98	3
21	21	1
40	41	1
112	114	1
15	18	1
86	88	1
100	108	1
82	82	1
121	123	1
75	79	1
35	57	1
37	100	1
20	33	1
94	100	1
29	29	1
69	70	1
100	102	1
93	93	5
44	44	1
27	29	1
121	121	1
76	78	1
15	16	1
2	58	1
40	42	1
33	44	1
111	112	1
120	127	1
112	113	2
92	92	2
25	25	2
122	127	1
55	56	1
81	110	2
64	117	1
130	131	1
18	18	2
47	48	1
93	124	1
44	45	1
59	63	1
95	96	1
13	14	1
8	9	1
84	85	1
43	43	1
58	58	1
22	38	1
39	41	1
59	79	1
100	101	1
1	1	1
18	19	1
105	107	1
117	118	1
11	13	1
17	18	1
87	90	1
