127	150	1
95	96	5
68	68	3
170	176	2
144	144	1
183	183	4
153	166	1
71	71	6
158	159	4
222	222	1
220	220	3
230	230	3
101	106	2
112	112	1
143	144	3
150	151	1
182	182	3
219	219	3
34	34	3
4	4	1
179	179	4
78	78	3
236	236	2
10	10	6
133	133	2
4	33	1
217	217	2
108	108	1
2	2	4
175	175	1
108	109	1
102	102	2
37	37	2
103	103	3
192	192	3
155	155	1
45	45	1
124	125	2
98	100	2
66	66	1
106	106	2
126	126	1
170	170	4
38	38	2
176	177	1
121	121	2
30	31	1
19	20	3
98	98	3
85	86	1
137	137	2
21	205	1
185	187	1
127	127	2
183	211	2
228	228	2
25	25	3
150	150	2
44	44	3
225	227	1
7	138	1
61	61	2
149	149	3
202	202	2
5	8	1
86	86	4
6	6	4
21	21	1
46	47	1
15	205	1
0	1	2
14	14	2
135	135	2
49	49	3
189	189	3
233	233	2
157	157	6
233	242	1
223	223	1
7	85	1
202	203	2
120	120	1
203	203	2
156	156	2
180	180	4
201	201	3
143	143	1
153	153	1
138	138	1
28	28	3
238	238	1
160	161	1
134	134	2
58	58	4
17	17	3
179	202	1
164	165	2
74	74	4
80	80	2
207	208	1
56	56	1
7	8	1
13	13	1
138	140	1
113	113	3
213	214	2
204	204	2
114	114	2
183	184	1
16	18	1
65	65	7
29	29	2
188	188	2
119	119	2
83	83	1
62	78	1
218	218	1
237	237	1
97	97	2
7	7	1
234	234	2
62	63	1
165	166	1
169	169	8
105	106	1
8	8	2
96	96	1
37	40	1
227	227	1
43	173	2
113	114	2
39	42	1
75	85	1
168	168	2
85	85	1
54	54	5
186	186	2
158	178	1
107	108	2
159	159	1
138	139	3
114	160	1
65	66	1
116	116	2
47	47	2
1	1	2
43	43	2
45	46	3
7	150	1
120	121	1
149	151	1
120	135	1
196	200	1
34	36	1
7	152	1
170	175	1
158	169	1
176	184	1
152	217	1
27	27	2
47	77	1
64	69	1
160	173	1
135	136	2
154	155	1
139	139	1
162	162	1
145	172	2
31	208	1
41	41	5
30	30	1
228	229	1
70	70	1
139	152	1
48	50	1
166	166	1
52	52	1
124	124	1
152	152	2
125	125	1
181	181	1
12	15	1
104	105	2
88	88	2
206	206	1
26	27	1
84	84	1
2	58	1
146	146	2
219	231	1
169	176	1
69	69	1
123	123	3
38	53	1
84	85	1
158	158	2
156	157	1
103	109	1
27	175	1
224	224	1
73	74	1
15	37	1
60	61	1
44	45	1
104	104	2
33	40	2
1	2	1
36	36	1
76	76	1
16	16	3
70	71	1
8	31	1
197	223	1
62	79	1
33	33	1
187	187	2
239	239	2
48	48	1
115	115	1
141	142	2
185	185	1
74	75	2
44	121	1
58	60	1
117	118	1
148	154	1
174	174	1
41	123	1
26	26	1
83	84	1
177	177	1
191	191	1
55	55	2
42	43	1
11	11	1
232	232	2
32	36	1
53	54	1
128	135	1
117	117	1
164	164	1
67	67	1
75	75	2
198	198	1
121	122	1
145	149	1
173	173	1
16	25	1
122	123	1
51	53	1
99	99	1
40	117	1
23	23	1
56	57	1
170	171	1
105	105	3
63	70	2
184	186	1
242	242	2
55	85	1
196	225	1
22	22	2
37	38	1
148	181	1
25	27	1
84	95	1
100	100	2
226	229	1
81	81	2
15	31	1
75	84	1
169	170	1
135	171	1
128	128	1
5	36	1
160	160	1
200	200	1
195	195	1
129	134	1
107	107	1
194	197	1
176	176	1
15	15	1
6	139	1
154	154	1
63	64	1
163	167	1
145	145	1
151	151	1
157	159	1
101	102	1
168	169	1
95	95	1
163	163	1
210	211	1
65	172	1
57	59	1
63	65	1
122	122	1
199	224	1
221	221	1
185	186	1
130	130	1
9	28	1
233	234	1
24	152	1
51	51	1
148	148	1
14	56	1
210	210	1
20	60	1
109	110	1
