99	99	2
119	119	2
33	131	2
7	8	2
127	127	5
127	128	1
96	96	6
101	101	5
136	136	6
89	89	3
98	98	4
105	106	2
73	73	2
12	12	2
123	123	7
125	125	4
119	120	1
88	88	2
86	87	2
77	77	1
7	13	1
82	84	1
103	104	1
116	116	4
26	26	4
106	109	1
96	99	2
108	109	1
87	88	1
80	80	4
114	114	3
126	127	2
78	78	4
118	118	5
75	76	2
108	108	1
134	135	3
138	139	1
112	112	5
82	86	1
115	116	2
9	11	1
90	90	2
107	107	5
2	4	1
120	120	2
131	131	4
105	113	1
85	121	2
120	122	1
98	123	1
134	134	6
7	9	2
123	131	1
110	111	2
129	129	4
97	98	1
100	100	5
79	79	2
124	125	1
38	110	1
28	28	2
76	76	4
103	103	2
120	121	1
34	37	1
109	110	1
78	104	1
117	117	6
14	14	5
91	91	3
93	93	1
132	132	4
8	9	2
114	115	2
84	85	1
102	102	7
118	120	1
88	123	1
104	104	2
95	95	3
5	5	1
4	4	3
133	133	11
71	72	1
104	106	1
128	128	2
81	82	2
35	37	1
15	15	1
9	9	1
130	131	1
36	36	2
106	106	1
72	72	4
115	115	3
98	99	1
35	138	1
136	138	2
114	117	1
107	108	3
3	4	1
91	100	2
121	123	1
124	124	2
101	127	1
136	137	2
130	136	1
83	83	1
92	93	1
37	38	2
93	131	1
121	122	2
116	125	1
121	121	2
16	17	2
113	113	2
7	7	6
116	124	2
35	35	1
74	75	1
137	138	1
11	11	4
74	77	2
122	122	1
130	130	2
92	92	1
34	35	1
75	79	1
111	112	1
123	124	2
33	33	2
3	3	1
89	92	1
82	119	1
2	5	2
109	109	1
93	128	1
75	103	1
71	71	1
110	110	2
37	37	2
112	113	2
101	102	2
102	103	1
135	135	5
33	34	1
2	2	2
116	117	1
87	87	1
20	20	1
83	85	1
34	34	1
125	135	1
15	16	1
11	16	1
19	68	1
94	94	2
38	38	1
99	131	1
113	114	1
111	111	1
93	125	1
131	132	1
94	97	1
6	6	1
75	75	1
109	112	1
37	111	1
0	0	1
84	84	1
103	112	1
117	118	1
80	116	1
88	89	1
140	140	1
105	105	1
118	119	1
38	129	1
111	116	1
97	97	1
13	13	1
7	18	1
89	98	1
