97	100	1
5	35	2
70	70	1
44	44	5
62	62	2
75	76	2
33	33	6
42	42	2
77	77	4
17	17	3
105	106	2
58	70	1
92	93	2
25	25	2
69	69	3
111	112	1
128	128	1
131	131	1
23	23	2
112	113	1
63	64	2
78	78	2
66	68	1
43	52	1
0	2	1
22	22	4
61	70	1
76	76	4
64	65	1
108	118	1
50	50	3
120	120	3
28	30	3
20	20	1
32	35	1
75	75	2
0	0	2
60	63	1
44	45	2
13	13	2
36	36	3
119	119	2
14	14	2
6	6	4
87	88	2
105	105	3
63	63	2
3	3	1
34	34	2
56	56	1
28	28	5
79	79	1
80	80	4
53	53	3
98	98	2
16	16	3
123	123	2
124	124	3
105	120	2
49	50	1
52	61	1
74	74	4
34	35	2
104	105	2
63	88	1
64	69	2
5	29	2
65	65	2
117	117	2
54	54	1
71	71	5
72	73	2
126	126	3
106	110	1
0	1	1
122	122	1
4	4	3
70	82	2
86	92	1
47	47	1
109	109	1
135	135	1
25	43	1
100	100	1
102	102	2
56	58	1
114	115	1
1	1	3
120	123	1
15	15	1
101	101	5
32	32	3
61	61	1
15	72	1
13	14	1
128	129	1
30	30	2
127	127	2
110	127	2
85	86	2
108	108	2
98	126	1
35	35	2
56	83	2
114	114	3
54	56	1
9	9	2
67	77	3
90	91	1
49	49	1
134	134	2
113	113	4
130	130	3
94	94	2
64	64	5
7	12	1
90	90	2
7	7	1
7	8	2
12	12	1
2	3	2
58	58	3
112	112	1
67	67	3
67	69	2
123	133	1
54	58	2
104	104	1
10	10	2
97	97	3
92	92	1
77	117	2
11	11	1
59	59	2
127	129	1
76	77	1
96	97	1
88	88	2
66	66	1
107	111	1
72	72	4
18	19	1
43	43	1
109	110	3
82	83	1
35	38	2
87	87	1
96	96	4
85	85	1
1	7	1
124	125	1
59	60	2
133	133	1
86	86	1
23	24	1
45	45	2
103	103	1
37	37	1
115	115	1
26	26	1
71	72	1
74	75	1
112	130	1
106	106	1
73	73	3
72	74	1
80	115	1
79	127	1
44	51	1
86	87	1
83	83	1
68	68	1
29	29	1
33	34	1
68	69	1
78	80	1
43	45	1
60	60	1
54	55	1
84	84	1
5	5	1
44	63	1
52	52	1
10	11	1
4	5	1
119	132	1
57	57	1
19	19	1
48	48	1
