75	106	3
96	96	2
49	71	1
151	151	4
93	93	2
131	131	1
109	109	5
120	121	2
109	118	2
125	125	3
64	65	6
9	9	6
22	22	5
21	83	1
100	100	5
125	126	2
116	120	1
35	35	5
25	26	1
86	86	1
28	29	2
6	6	1
124	126	1
118	118	2
3	3	5
31	31	2
47	47	1
39	40	1
139	139	4
70	70	2
78	78	2
99	99	3
3	123	1
144	146	2
83	83	1
106	106	4
30	30	1
3	6	2
117	150	1
148	148	3
141	147	1
143	145	1
90	91	1
150	150	7
50	50	3
67	67	4
66	66	3
17	17	2
49	49	5
153	153	1
147	147	4
129	129	7
113	113	4
87	88	1
128	129	1
112	112	1
68	68	2
144	145	1
106	114	1
80	81	2
128	128	1
104	104	4
127	128	3
133	134	1
110	110	2
14	14	1
122	131	1
52	52	1
18	19	1
79	87	1
73	73	3
15	15	3
21	21	2
114	114	3
24	37	1
37	41	1
99	100	1
26	26	1
21	33	1
55	55	1
37	37	2
145	147	1
126	137	1
68	127	1
53	55	1
62	71	1
94	99	1
15	31	1
127	127	3
119	151	1
80	80	1
84	84	3
58	62	1
92	94	2
138	148	1
18	18	4
20	45	1
8	50	1
111	114	2
42	42	1
53	53	4
109	152	1
102	114	1
71	71	5
29	29	1
69	69	1
10	30	1
133	133	1
94	94	3
115	115	1
67	68	1
143	143	1
117	117	3
85	85	3
23	23	4
135	136	1
40	40	1
42	43	3
141	142	2
132	137	1
113	119	1
104	105	1
107	108	2
39	39	2
100	103	1
32	35	1
118	150	1
122	125	1
34	36	2
46	46	2
21	79	1
102	102	2
81	81	1
152	153	1
110	111	1
74	86	1
45	45	2
20	21	3
115	116	2
105	105	2
74	74	1
76	76	3
140	140	3
79	79	2
77	78	1
56	57	1
54	55	1
108	108	3
46	146	2
69	131	1
8	14	1
22	23	2
20	20	3
111	112	1
11	11	2
17	18	2
43	43	2
38	38	2
123	123	1
154	154	2
34	34	2
8	9	1
6	38	1
82	82	2
56	69	1
123	124	1
54	54	4
130	130	2
19	21	1
126	126	1
86	87	1
121	121	3
63	63	2
32	33	1
7	10	1
8	24	1
76	131	1
48	118	1
32	32	3
135	135	1
92	92	2
122	136	1
138	138	2
115	145	2
111	111	2
101	102	1
38	39	1
65	65	4
27	29	1
126	127	1
55	84	1
119	122	1
88	94	1
95	98	1
87	87	3
97	99	1
3	55	1
109	112	1
84	85	2
123	141	2
152	152	2
117	118	1
8	21	1
28	28	1
17	20	1
132	133	1
127	136	1
106	107	1
13	13	1
145	145	1
31	38	1
55	72	1
134	135	1
19	19	2
57	57	1
113	114	2
92	93	1
77	77	2
20	25	1
53	54	1
4	4	2
5	5	1
95	115	1
77	111	1
16	16	2
122	122	2
98	108	1
24	31	1
93	107	1
147	148	1
95	97	1
25	25	1
134	134	1
61	61	1
6	16	1
18	20	2
54	129	1
64	73	1
28	33	1
26	27	1
8	67	1
92	99	1
41	42	1
119	133	1
33	33	1
146	146	1
107	107	1
32	34	2
116	145	1
132	132	1
89	92	1
108	109	1
62	62	1
75	101	1
79	94	1
86	93	1
103	103	1
