202	202	3
64	64	4
163	167	1
86	86	8
218	231	1
236	236	2
210	210	3
143	144	2
32	32	3
44	196	2
148	148	2
230	230	2
29	29	6
171	171	5
76	76	4
217	217	4
125	141	1
234	234	3
195	195	2
11	11	4
172	172	2
83	83	5
216	226	1
56	120	1
4	4	4
33	33	5
27	27	3
157	157	6
3	3	3
193	211	1
187	188	2
26	27	1
63	68	1
7	39	1
45	45	9
173	173	6
207	207	2
86	128	2
184	202	2
224	225	1
159	160	4
192	192	3
126	126	3
86	87	1
8	8	6
16	16	2
153	154	2
29	30	3
218	218	3
222	234	2
44	179	2
42	54	2
171	179	1
160	160	4
31	31	9
135	135	4
140	140	2
179	180	1
195	197	3
214	214	2
152	156	1
157	158	1
70	72	1
154	155	1
13	21	3
24	25	2
231	231	4
102	102	4
62	63	3
19	19	8
61	61	2
124	124	2
68	68	5
110	129	1
188	188	6
209	209	3
182	182	1
58	58	4
122	122	6
208	208	2
153	185	2
107	118	1
26	26	5
226	227	3
139	140	1
100	100	3
235	236	1
146	148	2
146	146	2
59	60	2
71	72	2
134	144	3
138	138	3
173	177	2
62	62	3
62	65	1
153	156	1
241	241	3
156	180	1
97	97	2
235	235	3
39	61	4
47	47	7
152	155	1
130	130	1
129	129	4
56	56	6
169	212	1
74	74	3
64	66	1
55	55	2
174	174	6
145	146	3
144	144	3
21	45	1
12	12	9
225	226	1
134	134	1
44	44	4
143	143	4
117	117	1
184	226	1
178	184	2
211	213	1
43	45	3
38	38	1
130	135	1
181	181	1
177	178	2
15	15	3
58	59	4
2	3	1
128	128	5
12	13	3
24	65	1
3	4	2
45	204	1
18	58	2
44	206	1
63	83	1
10	10	7
109	109	6
28	28	3
39	39	2
169	169	3
80	80	7
109	169	1
226	226	2
57	57	2
43	43	5
39	48	1
46	120	1
161	187	1
36	161	1
239	239	1
196	197	1
85	85	6
7	8	1
190	190	1
99	99	2
111	113	1
104	104	2
149	150	3
119	120	1
12	17	1
136	137	1
174	175	1
161	161	4
165	166	2
5	6	2
55	56	2
123	139	1
192	196	2
12	45	2
189	189	5
143	202	1
123	141	1
108	108	3
60	85	1
154	156	2
84	85	1
179	179	6
54	54	3
152	160	1
180	180	3
228	228	1
49	49	3
40	63	1
25	32	1
114	114	2
65	66	2
198	239	1
159	159	8
134	145	4
170	170	3
158	159	2
44	46	1
216	229	2
157	159	1
118	122	2
48	158	3
152	152	6
69	69	4
200	200	2
182	183	1
156	157	1
107	107	2
9	9	1
65	65	1
176	183	1
118	118	1
180	184	1
144	157	1
51	51	1
147	148	1
79	79	5
149	149	3
20	20	1
215	215	3
186	186	3
47	48	1
9	38	1
147	147	3
185	185	5
176	177	1
113	122	2
176	176	2
41	41	1
145	145	6
120	120	3
222	222	4
220	240	3
177	177	1
137	138	1
132	132	1
150	150	5
42	42	4
123	163	1
29	65	1
163	163	1
3	15	1
3	48	2
58	85	1
12	225	1
144	145	1
151	151	3
4	5	2
136	136	1
157	160	3
23	23	3
32	33	3
127	172	1
105	106	1
98	187	2
240	241	1
175	175	7
43	202	1
13	13	5
175	212	1
67	67	1
187	209	1
127	166	2
59	59	5
67	68	1
168	168	7
73	73	4
70	70	4
183	184	1
162	166	1
33	34	1
113	128	1
53	53	2
185	186	1
110	127	2
47	157	2
120	177	1
18	18	1
113	114	1
145	148	1
239	240	3
6	6	3
197	198	1
31	33	1
37	207	1
78	80	1
150	151	1
146	160	1
25	25	1
4	222	1
196	220	1
37	37	3
11	12	2
61	71	1
188	207	1
213	213	1
56	66	1
162	182	1
68	69	1
2	38	2
219	220	1
20	21	1
27	63	1
36	36	6
181	183	1
137	137	3
60	61	1
201	201	1
14	14	1
166	166	3
124	126	1
216	216	5
119	119	1
166	168	1
232	232	5
91	91	3
115	148	1
63	64	1
184	185	3
187	187	6
204	204	1
9	220	1
172	173	2
83	84	5
162	162	1
42	63	1
21	21	1
7	7	2
101	108	1
33	35	1
78	78	2
131	131	1
22	23	1
186	187	2
128	129	2
106	107	1
156	179	1
96	96	3
6	49	1
178	180	1
156	156	2
28	29	1
152	153	1
59	81	1
43	44	1
51	52	1
84	84	1
99	185	1
209	211	1
139	139	2
77	77	1
191	195	1
183	185	2
46	46	2
199	200	2
71	71	2
101	103	1
118	119	1
219	241	1
229	230	1
1	2	1
12	44	1
205	205	3
30	30	1
10	20	1
212	212	1
113	136	1
0	5	1
25	64	1
48	48	2
111	111	1
178	178	2
31	32	2
148	155	2
85	102	2
14	49	1
88	88	2
44	45	1
148	154	1
147	154	1
24	24	2
24	45	1
190	204	2
190	201	1
184	184	6
125	125	1
142	142	2
98	98	1
39	42	2
80	84	1
164	165	1
116	116	1
233	233	3
123	140	1
106	114	1
21	84	1
151	173	2
10	11	1
173	174	1
174	187	1
21	52	1
164	164	1
223	234	1
161	212	1
242	242	4
8	37	2
74	173	1
61	172	1
177	182	1
153	169	1
0	2	2
182	201	1
201	241	1
82	82	1
194	194	2
69	98	1
181	182	1
114	116	1
50	50	1
150	152	1
162	163	1
237	238	2
191	220	1
21	22	1
103	103	1
2	4	1
190	207	1
31	65	1
99	105	1
221	234	2
75	75	2
192	216	1
39	60	1
33	39	1
163	164	1
113	113	3
114	119	1
49	50	2
17	17	1
188	209	1
217	218	1
98	105	1
211	211	1
123	123	1
134	165	1
39	157	1
144	148	2
138	168	1
27	29	1
122	159	2
42	145	1
175	176	1
229	229	1
233	234	1
219	239	2
224	227	1
84	102	1
138	148	1
36	48	1
223	223	1
106	106	1
165	165	2
195	196	1
1	3	1
32	47	1
74	84	1
162	178	1
88	98	1
160	176	1
153	160	1
9	39	1
236	237	1
204	206	1
191	208	1
15	16	1
125	126	1
174	179	1
196	196	1
106	113	1
85	100	1
34	34	1
15	36	1
122	125	1
144	154	1
221	221	2
138	143	1
0	1	1
237	237	1
183	183	2
219	219	2
32	37	1
220	221	1
30	32	1
136	164	1
9	10	2
199	199	2
98	101	1
89	89	1
144	174	1
19	20	1
27	225	1
158	158	1
209	216	1
7	49	1
197	197	1
85	88	1
18	55	1
225	225	1
177	180	1
121	121	2
193	193	1
80	170	1
114	134	1
37	42	1
191	191	1
14	16	1
66	67	1
2	33	1
12	36	1
41	59	1
