1	18	1
169	169	5
26	29	2
139	140	1
71	71	4
116	116	5
79	79	2
22	22	4
26	26	4
0	1	2
155	156	2
159	159	7
50	51	2
150	150	2
37	38	3
91	91	5
165	165	1
123	124	1
17	33	1
14	160	1
135	135	8
171	172	1
102	102	4
109	139	2
51	51	2
87	87	4
132	132	4
29	29	1
81	81	4
115	116	2
172	172	4
8	31	1
5	24	2
162	162	3
44	44	2
179	180	2
132	133	1
143	144	1
27	27	5
13	13	3
41	44	1
36	36	9
114	114	2
6	6	5
88	104	1
74	110	2
103	103	6
2	3	4
37	37	3
8	9	3
117	120	1
28	28	2
4	91	1
87	88	2
6	34	1
70	71	1
139	139	3
173	173	2
78	81	1
124	143	1
112	118	3
80	80	2
87	92	1
5	5	3
140	140	4
142	142	4
136	136	3
33	33	4
92	96	1
55	55	3
171	171	5
119	119	5
91	92	1
135	136	3
3	4	1
151	151	1
84	85	1
119	121	1
130	147	1
161	161	4
32	81	1
141	141	6
41	42	2
57	57	7
132	141	1
66	67	1
148	148	4
118	118	2
92	92	4
39	39	4
180	180	2
10	10	4
145	145	1
61	61	5
72	72	4
174	175	4
45	45	1
56	78	1
85	85	1
24	24	6
32	32	1
97	106	1
143	143	2
53	73	1
124	146	1
24	34	1
54	55	2
148	149	2
127	127	2
3	5	1
166	166	3
94	94	2
106	106	2
43	43	1
78	78	7
112	112	2
15	33	1
26	28	2
161	163	2
15	17	2
127	147	1
99	99	3
174	174	3
84	84	3
157	158	3
168	168	6
60	60	2
137	137	6
40	45	1
125	125	2
176	176	3
134	135	1
167	167	2
155	155	7
120	120	1
65	65	3
152	152	5
121	124	2
6	7	1
56	57	2
16	17	3
0	0	5
22	24	1
36	38	1
18	18	2
96	98	2
37	79	1
90	90	1
75	75	4
138	139	2
126	127	3
18	21	1
124	124	2
56	61	1
134	134	1
169	170	2
127	146	1
68	68	1
14	16	1
42	42	2
109	109	4
153	153	1
67	68	2
107	107	2
105	105	3
56	118	1
78	133	1
40	40	2
52	52	3
130	130	3
161	162	1
18	19	3
15	22	1
32	33	1
4	28	1
105	172	2
24	25	1
50	50	1
157	157	3
146	146	2
154	161	1
158	158	8
11	11	3
20	22	1
108	109	1
179	179	2
49	50	1
175	175	2
130	132	1
149	149	2
27	28	1
133	138	1
125	127	1
74	79	1
85	91	2
95	95	1
158	159	1
114	115	2
23	26	1
77	135	1
86	86	3
2	2	3
119	120	2
98	99	1
53	53	3
1	1	3
15	16	2
3	3	4
81	86	1
30	30	1
156	156	1
154	160	4
82	82	2
11	13	1
65	66	3
146	151	2
15	15	6
118	121	1
105	109	3
54	54	2
62	62	2
106	107	1
92	157	1
1	5	1
137	138	1
138	138	3
29	32	1
164	164	1
80	82	1
17	21	1
92	93	4
94	95	3
4	4	2
66	138	1
25	25	1
1	77	1
42	43	1
37	175	1
1	2	3
58	58	2
40	131	1
19	22	1
97	98	1
163	167	1
29	44	1
73	77	1
4	106	1
173	174	1
111	111	3
50	107	1
77	77	1
152	155	2
14	14	3
71	72	1
11	16	1
17	18	1
16	16	1
85	86	2
9	9	1
89	90	1
144	144	1
128	128	1
11	30	1
38	39	2
98	101	1
178	178	2
113	113	1
95	96	1
76	76	2
31	31	3
11	12	1
160	160	4
74	75	1
85	92	1
125	126	1
7	9	1
126	126	1
29	31	1
63	63	1
7	13	1
70	70	1
49	49	1
11	14	1
36	89	1
131	132	1
123	123	1
122	125	1
52	107	1
104	104	1
27	44	1
156	159	1
159	160	1
76	135	1
172	175	1
26	60	1
92	94	1
9	12	1
133	170	1
7	7	2
90	92	1
10	14	1
155	162	1
21	23	1
122	122	3
75	96	1
77	79	1
35	35	1
19	19	2
0	16	1
135	177	1
52	53	1
23	23	1
67	70	1
101	101	1
157	159	1
73	73	1
10	12	1
123	163	1
97	97	1
46	46	1
152	153	1
93	93	2
33	34	1
92	173	1
140	142	1
43	44	1
12	12	1
8	8	2
145	146	1
91	99	1
91	105	1
27	30	1
144	145	1
17	17	4
116	117	2
74	74	1
107	123	1
66	66	1
16	19	1
86	99	1
76	134	1
110	111	1
18	20	1
170	170	1
102	104	1
39	40	1
172	173	1
96	96	1
110	110	1
15	26	1
108	130	1
80	171	1
