66	67	1
143	143	3
46	46	1
5	41	1
12	16	1
90	109	1
78	78	3
46	69	1
22	27	1
88	93	1
96	96	3
33	48	1
19	19	4
95	96	2
91	91	1
120	120	1
60	61	2
62	62	5
84	84	3
8	8	6
115	115	1
8	41	3
31	31	2
122	122	2
110	120	2
82	82	5
0	0	4
22	59	2
101	101	5
75	77	1
73	73	6
74	74	3
98	98	2
63	63	4
92	119	1
124	144	1
61	61	3
81	91	1
21	21	5
29	34	1
61	80	1
25	25	2
143	144	1
77	77	6
89	96	1
23	23	6
19	21	1
79	107	1
111	119	1
121	126	1
39	39	2
79	79	2
145	145	4
53	68	1
75	84	3
36	37	2
60	68	1
112	122	3
52	65	2
8	18	1
77	78	2
96	106	1
6	6	4
51	51	7
87	114	1
61	62	2
126	126	5
137	137	5
20	21	1
30	32	1
83	88	2
141	141	4
69	70	1
122	124	1
60	74	1
135	136	2
18	19	1
36	36	2
30	36	1
120	122	1
101	102	2
95	95	1
8	9	3
51	59	1
112	113	2
20	20	5
103	117	1
93	93	3
99	100	2
81	81	2
142	145	1
113	113	6
83	83	3
97	103	1
126	131	1
11	15	2
48	48	4
40	40	8
39	54	1
92	94	1
119	122	1
39	41	1
76	77	2
69	69	2
103	103	2
130	130	2
38	38	1
114	118	1
24	24	3
129	129	3
24	26	2
87	93	1
127	127	5
29	29	3
139	143	1
120	125	1
66	81	1
76	76	3
100	100	2
85	85	10
59	59	6
108	108	2
58	58	2
103	104	1
18	18	3
118	118	1
102	102	2
75	107	1
88	115	1
106	111	1
10	10	3
14	14	2
105	105	6
37	38	3
50	50	7
37	37	3
136	137	1
136	138	1
103	110	1
111	111	1
119	119	3
8	17	1
73	119	1
92	92	3
35	35	4
1	17	1
57	57	1
64	64	3
56	56	4
120	127	1
91	92	2
75	76	2
114	116	3
9	9	6
111	115	1
117	117	1
26	26	2
61	65	1
38	40	1
131	134	1
9	10	3
131	131	1
67	67	1
134	134	3
29	41	1
109	123	2
109	111	2
94	97	1
13	14	1
117	135	1
142	143	1
33	33	3
105	125	1
106	116	2
80	80	3
118	121	1
6	8	1
142	142	3
131	136	2
22	22	4
137	141	1
14	15	2
125	125	1
107	127	1
15	106	1
65	65	5
15	40	1
126	140	1
49	50	1
10	11	1
42	42	5
59	67	1
51	52	2
103	122	2
26	27	2
87	88	3
70	70	1
47	47	3
105	115	1
55	55	1
118	119	2
89	90	1
54	67	1
117	125	1
124	124	3
53	62	1
48	50	3
14	31	1
41	41	6
126	130	2
84	98	1
21	49	3
123	123	2
119	133	1
67	68	2
16	17	1
57	59	2
136	136	2
77	83	1
138	138	6
60	60	1
135	135	1
141	144	1
115	116	1
36	50	1
84	89	1
121	124	1
139	139	1
28	28	2
33	36	1
92	101	1
90	106	1
34	34	3
113	123	1
68	69	1
23	54	1
130	141	1
99	99	3
4	5	1
110	110	3
114	115	2
100	101	1
101	103	1
22	31	1
89	118	3
33	39	2
5	8	1
78	104	1
19	26	1
8	22	1
128	129	2
133	133	1
52	66	1
140	140	2
97	98	1
16	16	1
92	106	1
89	92	2
55	56	1
49	68	1
129	131	1
95	142	1
109	118	1
56	60	1
40	41	2
66	66	4
23	30	1
9	38	1
79	80	1
78	79	1
90	99	1
49	52	1
109	109	2
96	101	2
136	139	1
42	43	1
83	104	1
39	40	1
89	108	1
39	140	1
122	123	1
120	121	1
17	18	2
11	41	2
48	68	1
98	103	1
104	105	1
68	82	1
125	126	1
33	42	1
124	126	1
71	71	1
70	87	1
110	116	1
146	146	2
51	54	1
32	32	2
91	94	1
41	109	1
76	84	1
29	30	2
91	123	1
113	117	1
15	49	1
39	63	1
35	38	1
139	141	1
23	106	1
53	81	1
88	88	1
103	105	2
97	97	1
94	105	1
106	106	1
76	82	1
62	63	1
88	106	1
108	123	1
111	124	1
90	91	1
97	102	1
4	4	2
8	15	1
3	4	1
133	144	1
70	84	1
31	40	1
50	51	1
90	90	1
11	11	1
139	140	2
133	140	1
92	107	1
48	49	1
111	118	1
52	52	1
125	132	1
13	13	1
92	93	2
1	1	1
56	67	1
107	116	1
49	49	3
116	116	1
6	29	1
24	34	1
118	130	1
3	3	2
68	73	1
80	92	1
113	114	1
127	128	1
5	20	1
134	135	1
85	109	1
73	75	1
12	29	1
128	143	1
72	72	1
47	90	1
15	15	2
99	106	1
5	81	1
90	108	1
1	26	1
91	108	1
119	127	1
23	25	1
57	58	1
85	86	1
119	120	1
93	98	1
