50	50	2
84	85	2
0	1	1
140	141	2
141	141	5
141	142	3
109	109	3
66	132	2
136	136	1
80	141	2
143	143	3
110	111	5
98	98	5
113	114	2
144	144	2
88	88	7
153	153	6
117	123	1
94	95	2
127	127	1
155	156	3
33	40	2
101	101	3
41	42	1
151	151	6
12	12	2
147	147	3
22	22	2
69	69	2
22	39	1
37	37	3
14	14	3
6	7	1
106	107	1
122	122	3
115	124	3
149	149	2
103	103	7
4	4	2
97	97	2
134	139	1
33	33	1
146	147	4
25	30	1
139	159	1
21	21	2
53	53	4
124	125	1
73	98	1
17	17	2
139	139	3
52	52	2
143	146	1
135	135	6
138	138	6
22	28	1
105	105	1
98	111	1
26	26	4
78	144	1
92	92	2
0	0	2
150	150	6
36	36	2
75	75	8
5	5	1
115	120	1
44	44	3
156	156	4
100	150	2
4	5	1
130	131	3
153	154	1
128	128	2
15	41	1
95	104	1
31	31	3
27	27	2
133	134	1
100	100	5
153	157	1
15	16	1
68	68	1
110	110	2
46	46	1
64	64	3
157	157	3
40	40	2
154	154	2
131	131	3
86	119	2
91	111	1
28	39	1
140	150	1
125	125	4
24	24	1
113	121	1
3	3	3
130	130	2
96	97	1
115	148	2
99	99	2
158	158	3
41	41	2
104	104	2
36	37	2
84	84	3
140	153	1
63	64	1
134	135	1
75	98	1
20	22	2
111	111	3
138	141	1
1	1	2
123	124	1
129	131	1
19	21	1
107	107	1
146	146	4
87	89	1
67	67	3
159	159	1
131	136	2
66	68	1
102	102	2
111	112	2
9	78	1
108	134	1
64	65	1
113	113	2
30	30	3
28	41	1
3	21	2
107	108	1
3	4	2
43	43	4
8	8	1
94	94	1
87	88	2
29	29	2
98	99	1
11	12	2
5	140	1
4	149	1
82	82	1
120	120	2
80	80	2
112	112	3
39	39	1
20	20	2
132	132	3
82	83	3
110	113	2
25	25	2
140	140	2
65	72	1
98	107	1
75	130	1
6	6	2
106	106	3
57	57	2
10	23	1
91	95	1
36	68	1
135	136	1
138	139	1
45	45	1
149	150	2
117	117	2
23	23	2
95	95	1
10	10	1
87	87	3
66	66	1
86	90	3
148	148	2
34	35	1
103	104	1
78	78	1
107	110	1
83	85	1
21	22	2
86	86	1
134	138	1
155	158	2
118	118	1
25	26	1
89	90	1
151	152	2
144	145	1
51	51	1
52	53	1
79	79	1
7	7	1
22	23	2
10	40	1
28	28	2
71	71	2
70	70	1
86	87	2
16	16	1
98	103	1
93	99	1
115	115	3
119	138	1
144	146	1
71	72	1
123	123	1
121	121	3
81	82	1
132	134	2
69	70	1
19	19	1
73	73	1
68	105	1
136	137	1
122	126	1
23	24	1
123	125	1
42	71	1
79	81	1
152	154	1
127	134	1
124	124	2
35	42	1
13	13	1
18	21	1
108	110	1
145	146	1
101	131	1
108	108	1
6	12	1
132	148	1
65	66	1
48	48	1
32	32	1
137	138	1
5	141	1
26	45	1
17	18	1
33	91	1
85	85	1
155	157	1
93	94	1
20	31	1
34	34	1
30	31	1
155	155	1
139	140	1
119	119	1
79	90	2
137	137	1
15	15	1
124	126	1
142	142	1
35	35	1
13	14	1
