29	47	1
87	87	1
122	122	1
15	19	1
8	9	1
119	120	2
97	97	2
52	52	2
38	39	2
101	101	4
73	74	3
75	75	3
4	4	3
120	122	1
23	24	1
140	140	2
100	100	1
56	56	3
88	88	3
47	47	2
128	131	1
77	77	1
95	95	4
93	93	2
70	93	1
79	80	1
74	74	3
105	105	3
121	121	2
40	40	2
80	80	3
37	37	5
66	66	3
1	1	3
50	50	3
41	41	1
144	144	3
92	92	1
42	42	2
108	108	2
75	78	1
102	102	4
13	13	1
75	88	1
91	95	1
72	72	2
58	58	2
18	18	2
23	23	6
143	143	3
113	114	3
82	119	1
75	80	1
136	136	2
98	99	2
125	125	1
47	65	1
125	127	2
30	37	1
24	25	1
11	11	2
21	21	1
131	131	4
81	82	1
93	123	1
19	26	1
130	131	2
124	124	1
106	106	1
16	16	2
72	76	1
34	35	1
27	27	2
102	103	2
110	110	2
82	83	1
23	48	1
69	83	1
121	124	1
32	36	1
19	19	1
79	79	1
26	38	1
25	25	2
16	33	1
97	99	1
62	91	1
86	87	1
10	11	2
63	64	1
116	116	1
118	119	1
92	93	1
146	146	2
17	56	1
61	61	5
30	31	1
59	59	2
64	65	2
3	3	2
103	131	1
24	24	1
84	84	3
103	103	2
38	38	3
20	20	3
12	13	1
55	56	3
56	58	1
35	35	2
128	130	1
109	118	1
126	135	1
73	92	1
115	132	1
100	101	1
137	137	1
98	98	3
30	30	1
119	119	2
19	40	1
134	134	1
124	140	1
136	137	1
96	129	1
124	142	2
48	48	1
73	73	1
70	70	1
126	130	1
60	61	1
18	22	1
35	36	1
83	85	1
33	33	2
33	36	1
110	113	1
22	22	1
3	106	1
125	134	1
96	96	2
53	53	2
25	68	1
60	60	1
101	103	1
57	57	1
67	67	1
139	139	3
117	117	1
145	145	1
66	82	1
82	82	4
135	135	2
90	92	2
6	6	2
0	22	1
125	139	1
63	63	1
133	133	4
54	81	1
143	144	1
29	29	4
68	101	1
115	115	3
67	68	1
26	128	1
50	59	1
76	79	1
17	18	1
130	143	1
8	8	1
5	5	1
9	9	1
113	113	1
145	146	1
86	106	1
50	51	1
5	12	1
78	78	2
141	141	1
76	76	1
128	128	2
87	93	1
57	58	1
115	120	1
105	106	1
28	29	1
54	54	1
24	69	1
62	63	1
130	130	1
29	30	1
122	135	1
6	134	1
71	76	2
93	94	1
14	24	1
106	110	1
69	80	1
89	121	1
88	89	1
65	65	1
126	126	1
88	132	1
137	138	1
64	64	1
33	37	1
