92	92	1
107	107	2
116	117	3
93	93	1
133	133	3
62	66	1
4	6	1
2	24	1
8	9	2
122	122	6
46	46	2
19	38	1
12	12	1
3	3	1
70	70	2
67	67	2
65	122	1
51	53	2
131	154	1
14	14	4
132	132	2
94	94	2
97	97	2
16	37	1
129	129	2
13	13	2
131	133	1
44	45	1
71	71	2
11	39	1
17	46	1
27	27	1
63	63	1
110	120	1
112	113	1
123	123	1
139	140	2
84	85	1
65	65	1
43	43	3
139	139	2
153	153	2
138	149	1
35	35	1
56	56	2
82	84	2
125	125	3
71	77	1
9	16	1
9	34	1
11	11	3
135	136	1
116	125	2
42	42	2
14	15	2
11	30	2
14	28	1
54	54	4
140	144	1
96	111	1
121	122	1
43	44	1
6	6	1
85	85	1
22	22	4
108	112	2
69	69	1
137	137	1
30	30	1
98	99	1
9	9	1
78	78	1
21	21	2
135	149	1
4	4	2
38	38	1
153	154	1
74	75	1
33	47	2
104	104	2
36	36	1
112	112	1
32	33	2
11	12	1
53	64	1
87	87	2
154	154	2
101	101	1
39	40	1
73	73	1
37	37	3
6	7	1
111	111	2
103	103	2
98	98	1
113	122	1
41	43	1
117	117	1
68	69	1
110	114	3
124	124	1
25	25	1
130	130	3
42	43	3
65	66	1
41	135	1
148	148	1
145	146	1
109	109	1
119	123	1
70	74	1
19	19	1
144	144	1
71	122	1
51	54	1
57	57	1
128	145	1
24	24	3
34	34	2
146	146	2
40	44	1
4	25	1
126	126	1
79	79	3
26	42	1
138	138	1
5	7	1
72	72	1
71	72	1
140	140	1
120	120	1
99	100	1
68	68	1
40	40	2
99	99	1
16	16	1
79	87	1
93	99	1
70	71	1
18	19	2
15	16	1
55	56	2
21	25	1
103	117	1
49	49	1
128	128	2
77	77	1
12	32	1
36	53	1
32	32	1
152	152	1
130	144	1
149	149	1
78	85	1
13	40	1
10	11	1
112	127	1
150	150	1
57	58	1
118	118	1
21	23	1
64	82	1
96	96	1
29	29	1
26	27	1
24	70	1
116	116	1
66	66	1
38	45	1
62	62	2
16	44	1
20	20	1
118	124	1
110	110	1
141	142	1
147	147	1
76	84	1
6	27	1
56	57	1
