136	136	2
3	40	1
100	104	1
22	23	2
53	72	1
103	105	1
177	177	4
139	139	5
129	129	3
78	82	1
66	66	1
5	5	1
97	98	1
87	87	7
97	97	2
56	56	1
140	140	1
144	147	1
82	82	2
125	125	3
119	133	1
42	43	3
129	140	1
109	109	4
47	47	2
29	29	2
39	47	1
168	168	1
45	45	4
134	134	2
15	15	2
154	155	1
21	21	3
11	55	1
142	142	3
118	138	1
57	57	1
120	136	1
32	38	4
26	78	2
11	12	2
149	150	5
128	128	1
144	148	1
142	166	1
25	27	1
22	22	4
55	55	2
38	38	3
24	24	2
11	13	2
127	184	1
145	146	1
10	10	4
151	153	1
93	93	3
157	157	1
130	142	1
35	35	1
82	126	1
32	37	1
2	2	2
105	105	1
167	169	3
187	187	6
44	46	1
48	56	1
42	42	3
173	174	2
122	122	1
29	31	1
83	83	2
40	87	1
86	87	1
12	27	1
122	139	1
135	135	1
146	146	2
157	158	2
54	54	2
26	96	2
90	124	2
130	130	1
40	40	3
167	177	1
58	72	1
31	31	3
184	184	4
64	67	2
137	138	1
81	82	1
79	80	1
21	22	1
45	179	1
28	28	1
141	142	1
82	86	2
19	55	1
104	105	2
58	58	1
147	147	2
107	107	2
6	65	3
57	113	1
176	176	1
92	97	1
152	177	1
33	33	1
173	173	3
131	131	1
78	78	6
159	159	1
182	183	1
25	37	1
43	43	2
134	138	1
160	161	2
65	67	2
176	178	1
140	141	1
14	14	1
27	29	3
52	52	1
186	187	1
180	180	1
86	86	2
153	153	2
71	71	1
63	63	3
90	95	1
59	59	1
8	8	1
39	39	2
35	86	1
100	102	1
155	155	1
167	184	1
189	189	3
179	180	1
20	21	2
3	13	1
90	90	1
12	15	1
84	85	2
87	115	1
0	75	1
54	56	1
3	3	1
76	151	1
100	100	2
11	46	1
4	4	2
87	89	1
138	138	2
19	19	2
22	49	1
175	176	1
146	155	1
177	178	1
87	117	2
174	174	4
155	175	1
96	105	1
107	108	2
37	37	1
179	181	1
120	160	1
186	188	1
137	137	1
63	80	1
41	55	1
12	13	3
143	143	1
67	67	1
128	164	1
44	45	1
180	182	1
26	26	2
18	20	1
1	1	3
88	88	2
128	129	3
6	7	1
70	70	1
25	25	1
131	132	1
13	15	1
130	132	1
171	171	3
63	64	1
158	158	1
152	152	2
144	144	1
89	110	1
60	62	1
24	25	2
37	40	1
11	11	2
184	185	1
156	159	1
84	84	1
63	94	1
57	68	1
29	92	1
113	113	2
108	164	1
60	64	1
142	144	1
181	182	1
32	34	1
187	188	2
20	48	1
101	102	1
33	36	1
46	46	1
16	47	1
188	189	1
150	150	1
157	179	1
111	120	1
100	106	1
38	39	1
151	151	1
135	166	1
6	6	1
16	17	1
148	156	1
98	98	2
73	73	2
99	99	1
25	26	1
172	172	1
169	169	2
189	190	1
134	151	1
171	178	1
176	177	1
15	38	1
27	28	1
106	106	2
180	183	2
106	107	1
149	149	1
18	19	1
16	16	1
137	143	1
81	81	2
23	54	1
47	57	1
23	24	1
59	138	1
0	0	1
117	117	1
116	117	2
6	48	1
154	158	1
32	59	1
74	146	1
96	102	1
144	154	2
22	46	1
30	33	1
30	30	1
186	186	1
87	119	1
108	108	1
59	132	1
124	125	1
138	139	1
111	152	1
79	159	1
34	34	1
164	165	1
115	115	1
53	56	1
101	101	1
1	82	1
137	172	1
166	166	1
175	175	1
94	108	1
141	141	1
118	118	1
83	110	1
129	184	1
170	173	1
72	72	1
119	138	1
80	80	1
33	39	1
55	56	1
135	141	1
27	27	1
