16	35	1
50	50	4
126	127	1
6	11	1
38	38	2
70	70	5
50	67	1
11	11	2
75	75	4
128	128	2
53	53	2
3	4	2
74	75	3
96	96	2
84	85	2
134	134	2
103	103	4
118	118	1
1	1	2
119	123	1
120	120	2
63	63	2
66	66	2
5	6	1
15	15	5
109	111	1
64	64	2
36	37	1
110	110	1
59	87	2
132	132	2
114	114	1
112	112	2
62	62	1
62	87	1
68	68	2
69	69	2
114	119	1
80	80	2
61	61	2
24	24	1
61	62	1
35	35	3
88	89	1
54	54	1
83	85	1
91	92	1
85	85	1
70	82	2
36	36	1
78	78	2
71	71	8
18	18	2
47	47	2
97	97	2
2	2	2
125	125	2
132	133	1
67	68	1
100	100	2
13	14	1
98	98	1
94	94	4
72	72	4
5	7	2
8	8	2
58	76	3
70	81	1
123	127	1
65	65	2
6	6	1
62	63	2
74	74	1
92	93	1
65	69	1
26	26	1
45	45	1
104	104	2
5	5	3
133	133	1
33	33	2
73	73	2
115	126	1
12	12	4
108	108	1
88	88	1
66	67	1
114	115	1
58	59	1
13	13	1
81	85	1
130	130	2
56	57	1
48	48	1
66	68	1
113	113	1
119	121	1
19	19	1
28	28	3
35	44	1
30	30	1
58	58	3
123	123	2
76	77	1
127	127	1
43	43	4
86	87	3
124	125	3
34	34	2
122	127	1
106	108	1
60	61	1
61	76	1
37	37	1
56	58	1
80	81	1
93	93	2
105	105	2
10	10	3
75	76	1
16	16	2
7	8	1
22	100	1
44	44	1
23	23	2
54	58	1
57	58	1
119	119	1
95	95	1
79	80	1
17	17	1
50	69	1
73	74	1
21	100	1
27	28	2
21	21	2
16	18	1
55	63	1
45	50	1
35	42	1
1	23	1
61	80	1
46	57	1
82	82	1
76	80	1
36	78	1
89	89	1
78	87	1
121	121	1
83	84	1
76	86	1
100	101	1
98	99	1
17	18	1
27	27	1
32	32	3
123	124	1
115	121	1
45	46	1
117	117	1
52	52	2
110	111	1
126	133	1
52	56	1
106	110	1
25	25	1
49	49	1
7	7	1
20	20	1
87	87	1
126	126	1
9	10	1
16	20	1
105	106	1
93	94	1
79	79	1
9	9	1
111	121	1
32	50	1
59	60	1
14	15	1
111	111	1
