65	68	1
56	56	3
27	41	1
147	147	5
45	46	1
63	64	1
20	21	4
110	110	5
28	28	3
43	45	1
93	93	3
113	114	1
9	9	6
92	94	4
132	149	1
27	34	1
85	88	1
5	5	3
87	88	2
68	68	3
32	32	3
100	102	1
144	144	3
79	79	4
22	23	3
53	54	1
133	133	4
44	50	3
127	127	5
143	144	1
30	30	5
33	85	1
152	153	2
136	137	3
6	6	3
14	21	1
25	25	2
82	149	1
118	118	6
24	26	2
97	97	2
131	132	1
77	77	2
48	54	1
97	99	1
36	102	1
15	50	1
118	123	1
100	100	2
148	148	2
11	11	1
16	22	1
92	92	1
48	48	5
56	58	1
85	85	3
130	131	2
142	142	3
132	132	3
43	43	1
36	36	1
126	128	1
115	115	1
126	126	1
28	33	1
67	68	2
3	3	1
109	109	2
66	67	1
95	108	1
57	57	2
9	54	1
127	128	3
75	76	1
41	42	1
138	138	4
80	86	1
116	121	2
47	50	1
152	152	4
112	141	1
46	46	1
64	69	1
37	37	1
82	82	5
95	96	1
93	94	2
15	15	2
14	22	1
103	103	2
129	129	2
80	82	1
123	123	5
35	55	1
145	145	1
113	113	1
26	26	3
37	38	2
131	131	4
42	42	2
94	95	1
19	31	2
31	31	4
141	142	1
136	136	2
32	123	1
79	80	2
105	105	3
123	132	3
75	81	1
76	76	1
66	72	1
116	116	3
39	40	1
105	109	2
79	107	1
117	117	4
69	140	1
67	67	3
73	74	2
41	41	4
80	80	1
96	116	1
149	149	2
50	104	1
106	114	1
151	151	3
20	31	1
50	50	2
79	82	1
25	29	2
102	106	1
108	109	2
132	140	2
94	99	2
117	118	1
10	11	1
122	122	2
35	35	4
32	33	1
81	147	1
19	20	1
138	139	2
36	85	1
64	64	1
112	112	3
63	63	2
101	101	4
124	125	1
46	51	1
119	119	2
121	122	2
31	43	1
80	147	1
63	83	1
120	120	3
18	18	2
39	39	3
20	20	2
33	33	4
24	24	1
41	55	1
4	4	2
29	29	1
103	104	2
17	17	5
14	23	1
142	145	1
63	69	1
107	109	1
145	146	3
134	134	1
23	23	1
153	153	3
121	121	2
30	154	1
77	85	1
116	117	1
120	138	1
50	51	1
94	94	3
9	10	2
37	66	1
74	93	2
128	128	2
74	74	3
44	44	2
82	89	1
95	95	3
70	70	2
99	117	1
115	117	2
21	21	2
109	112	1
114	114	2
62	62	2
18	39	1
16	18	1
13	15	1
22	22	2
97	98	3
76	77	2
106	107	3
16	16	4
149	150	3
21	26	1
47	53	1
49	49	1
13	113	1
140	143	1
131	151	1
78	85	1
7	8	2
44	47	1
36	42	1
98	112	1
13	13	1
43	64	1
87	87	1
100	111	1
83	83	1
137	137	2
95	97	2
7	7	2
121	125	1
8	8	2
96	96	3
36	37	1
143	143	1
55	83	1
103	105	1
77	129	1
140	141	1
150	150	1
27	27	2
88	104	1
19	35	2
4	5	2
19	23	1
135	135	2
110	117	1
110	111	1
65	78	2
14	30	1
97	126	1
72	73	1
96	98	1
35	115	1
91	92	1
38	39	1
107	107	3
115	116	2
48	49	1
47	47	1
90	90	2
54	54	2
74	78	1
25	30	1
103	109	1
139	140	1
52	52	1
77	78	2
18	19	2
78	79	1
120	121	1
33	77	1
133	134	1
47	48	1
78	78	1
144	145	2
108	108	1
38	38	2
13	22	1
25	26	2
125	128	1
57	58	2
101	102	1
132	136	1
80	81	2
44	45	1
87	94	1
105	108	2
82	83	2
81	81	2
86	86	1
33	34	1
147	148	1
76	79	1
132	144	1
130	138	2
69	69	1
55	55	1
3	19	1
26	27	1
131	144	1
84	84	1
114	124	1
141	141	2
130	132	1
76	85	1
45	45	1
30	32	1
66	66	1
64	66	1
98	98	1
6	8	2
78	136	1
21	36	1
80	96	1
128	129	1
10	10	1
69	70	1
72	72	1
84	85	2
22	37	1
21	23	1
51	51	1
111	127	2
33	42	1
54	55	1
116	120	1
98	99	1
113	116	1
124	124	1
75	83	1
96	97	1
41	43	1
125	126	1
104	105	1
110	137	1
14	15	1
130	145	1
143	145	1
117	123	1
139	139	2
146	146	1
12	22	1
75	75	1
92	116	1
3	4	1
130	130	1
11	13	1
100	103	1
102	102	1
123	146	1
81	83	1
19	19	1
