105	106	1
86	86	1
69	70	1
4	4	3
113	114	1
102	102	3
64	64	5
68	68	2
81	87	1
92	106	1
21	21	1
117	117	6
25	25	6
69	79	1
12	58	1
56	56	4
121	122	2
87	87	4
73	74	1
16	16	5
132	132	2
106	106	4
81	81	1
69	69	5
85	86	1
108	108	4
66	67	1
112	112	4
48	48	2
6	6	1
44	45	4
74	74	1
44	44	1
109	109	2
10	10	3
131	133	1
1	1	1
107	107	3
89	89	1
45	46	4
57	57	2
67	67	2
89	103	1
79	79	3
110	110	2
25	27	1
33	64	1
73	73	1
75	75	3
62	62	1
114	114	4
129	129	3
43	43	4
33	33	1
62	93	1
46	46	3
51	51	4
121	121	1
61	61	1
124	130	1
131	131	3
87	88	1
70	94	2
130	131	2
16	17	1
94	95	2
60	101	1
55	55	2
99	99	4
37	38	2
29	31	1
100	100	2
53	53	3
49	50	1
123	124	1
111	111	9
116	117	4
21	59	2
93	109	1
96	96	1
76	76	3
21	40	2
66	111	1
23	24	3
2	2	4
91	127	1
25	34	1
20	21	2
14	17	1
70	70	4
42	42	4
63	63	6
19	19	2
50	50	4
3	3	3
4	5	3
18	20	1
56	57	2
82	82	1
79	84	1
119	119	4
122	122	4
88	89	4
52	52	3
71	71	4
125	128	1
130	130	1
115	115	2
128	128	1
47	47	3
111	117	2
67	83	2
125	127	3
131	132	2
65	65	1
90	94	1
86	87	2
90	99	1
127	128	2
123	123	7
123	125	1
83	83	1
109	113	1
34	34	2
13	13	3
116	116	2
26	27	1
22	23	2
65	66	2
74	78	1
68	79	1
13	43	1
103	103	4
77	77	3
67	92	1
97	97	3
70	128	1
16	21	1
59	59	2
72	72	5
66	66	4
31	56	1
78	78	2
58	59	3
93	94	2
110	111	1
125	125	1
41	41	3
30	30	1
92	93	1
118	118	2
75	86	1
57	70	1
101	101	3
94	94	2
91	91	3
89	90	1
86	101	1
79	127	1
77	95	1
101	103	1
24	24	1
31	31	3
44	73	1
38	39	1
1	7	1
15	32	1
78	79	2
18	38	1
43	46	1
98	99	2
107	108	1
2	49	1
18	19	2
124	124	1
63	91	1
73	75	1
41	88	1
45	45	1
48	49	1
68	86	2
90	90	2
60	60	1
88	88	1
21	22	1
81	108	1
90	102	1
25	26	1
84	85	3
29	55	1
59	62	1
104	104	1
8	9	1
117	130	1
83	84	1
19	78	1
118	119	1
6	7	1
23	23	1
13	20	2
43	44	1
127	127	1
117	119	1
104	105	1
64	65	1
17	17	1
91	99	1
95	108	1
40	44	1
72	77	1
40	40	2
73	79	1
126	130	2
18	18	2
129	130	1
87	102	1
126	127	1
85	89	1
60	100	1
80	81	1
59	60	1
29	29	2
15	17	1
5	5	1
120	133	1
101	102	1
82	83	1
12	12	1
120	120	1
28	28	1
32	32	1
54	54	1
84	84	1
71	95	2
94	122	1
24	32	1
33	34	1
58	58	1
33	58	1
65	76	1
58	62	1
106	110	1
