20	20	13
131	132	1
40	40	7
102	109	1
65	67	1
107	107	3
74	92	1
125	126	2
3	3	1
136	136	2
133	142	1
78	78	1
116	116	4
27	30	2
17	17	8
130	134	1
12	12	5
26	82	1
55	56	2
153	153	4
147	147	7
107	110	1
99	99	1
149	149	8
107	109	3
111	111	5
86	92	1
63	63	2
103	149	2
41	41	3
50	50	3
100	101	2
114	114	7
102	111	2
130	130	2
16	16	5
23	25	1
23	23	7
31	31	5
95	95	8
120	120	5
25	25	3
102	102	2
6	6	2
65	68	1
97	110	2
17	18	2
102	103	2
104	104	4
14	14	5
83	83	6
9	10	2
47	47	10
133	134	3
91	113	3
20	21	6
136	137	2
151	151	9
26	56	1
71	74	1
125	127	4
93	104	1
80	80	4
6	7	1
44	44	9
145	145	3
13	13	4
15	15	3
88	92	1
68	69	1
78	83	2
55	69	1
119	120	2
8	30	1
115	115	4
123	128	1
130	148	2
21	21	5
69	69	4
93	103	2
106	107	3
77	77	9
68	74	1
9	9	5
116	126	1
14	15	2
22	22	8
49	50	1
26	27	4
12	15	2
43	43	6
54	54	8
154	154	3
81	82	3
45	45	7
76	76	2
35	36	5
55	55	3
67	67	4
106	127	1
147	148	3
109	109	6
123	124	4
70	71	2
37	37	1
8	8	4
127	127	8
67	86	1
64	145	1
102	115	2
114	115	2
2	2	1
33	33	4
34	34	5
148	148	4
67	89	1
4	8	3
142	142	2
51	52	1
65	65	4
79	83	1
64	64	4
97	97	4
63	64	3
125	125	3
42	45	2
3	143	1
125	141	2
67	107	1
140	140	4
105	105	5
3	4	1
11	11	4
92	103	1
105	123	1
86	86	2
5	5	4
4	6	4
5	7	1
139	140	3
3	19	1
139	143	1
117	117	1
6	10	1
73	119	2
124	124	5
76	79	1
86	88	1
68	76	1
32	32	3
123	123	4
104	138	1
85	100	1
113	149	2
132	132	4
18	18	4
62	63	2
30	30	4
107	108	2
27	83	1
128	133	1
46	46	5
96	96	2
73	73	6
51	51	5
84	84	5
119	119	9
19	19	3
115	116	2
126	126	4
134	135	1
95	96	1
28	28	4
3	8	1
47	48	1
118	118	1
82	82	4
26	26	5
129	129	9
8	9	2
117	146	1
71	71	7
5	6	1
109	110	1
100	110	1
138	138	5
48	70	1
76	78	2
39	39	9
54	56	1
94	94	3
22	23	1
25	27	2
119	122	1
139	139	5
113	113	1
120	121	3
86	87	2
57	57	6
36	36	1
33	34	3
96	103	1
57	63	1
35	35	5
103	137	1
77	78	2
150	150	5
53	62	1
108	110	2
32	33	1
129	130	1
91	93	3
53	53	2
65	66	1
72	72	3
150	151	1
124	125	4
152	152	3
64	93	1
19	34	2
107	118	1
85	85	4
86	121	1
7	7	2
53	54	2
121	122	1
48	48	5
70	70	2
143	143	2
146	146	2
98	98	4
4	4	3
56	72	1
69	74	1
49	49	2
38	44	2
144	145	4
36	37	1
64	65	1
135	135	3
64	108	1
104	120	1
111	151	1
109	135	1
94	98	2
84	147	1
134	152	1
148	149	2
92	92	2
56	56	2
45	46	2
72	73	1
109	112	1
104	105	1
34	37	1
78	80	1
145	146	1
141	141	1
112	112	3
74	74	7
78	81	1
68	68	2
105	108	1
111	112	1
79	80	1
44	49	1
24	24	4
134	153	1
93	95	1
43	126	1
47	55	1
122	122	2
100	100	1
45	58	1
34	94	1
37	51	1
15	16	2
133	133	1
80	92	1
151	154	1
62	95	1
131	131	4
75	75	2
110	111	1
137	138	1
126	144	1
127	128	1
66	107	1
25	28	1
70	101	1
29	29	1
38	38	4
128	129	2
46	80	1
144	146	1
108	150	1
143	145	1
66	66	3
104	110	1
101	102	1
110	110	1
11	12	2
43	46	1
21	24	1
4	78	1
121	121	5
102	106	1
75	87	2
8	10	1
24	41	1
62	62	1
26	36	1
9	19	1
113	114	1
12	13	1
124	133	1
144	144	2
24	30	2
73	76	1
130	133	1
97	98	1
120	142	1
103	103	1
44	45	2
19	23	1
105	147	1
74	75	1
123	141	1
112	113	2
27	27	1
33	63	1
90	91	1
89	89	1
27	28	2
7	12	1
131	133	1
128	128	4
96	98	1
53	56	1
19	37	1
28	69	1
41	45	1
93	99	1
18	19	1
90	90	1
13	14	1
141	142	3
20	23	2
98	99	1
104	111	1
29	32	1
34	36	1
106	106	1
101	104	2
41	43	1
25	26	1
10	10	1
52	53	1
58	58	1
54	71	1
4	5	1
143	144	1
73	74	1
90	142	1
110	112	1
107	117	1
116	144	1
77	95	1
96	97	1
148	150	1
99	128	1
90	94	1
129	151	1
130	132	1
23	24	1
115	117	2
11	13	1
140	141	1
5	43	1
40	41	1
42	43	1
108	108	1
94	113	1
55	67	1
22	139	1
73	78	1
10	12	1
37	40	1
35	51	1
104	143	1
73	83	1
21	22	1
58	71	1
92	117	1
46	55	1
2	23	1
