89	136	1
66	66	5
54	54	3
5	5	4
61	63	2
102	102	1
41	41	6
18	21	1
95	95	2
159	159	1
37	37	4
59	59	2
67	67	2
22	23	3
109	109	3
33	34	2
24	30	1
35	35	2
79	89	1
175	175	3
83	83	2
26	27	1
167	167	2
81	81	6
117	118	1
42	42	2
2	2	4
29	32	1
13	13	2
56	56	1
7	8	2
158	158	3
156	156	3
75	179	4
15	16	2
172	174	1
142	142	2
157	160	1
9	11	2
59	85	1
43	54	1
36	36	1
102	103	1
122	129	2
114	115	1
23	24	1
100	100	2
150	153	2
60	61	2
132	133	3
176	176	1
80	81	1
95	104	1
141	149	1
127	129	2
104	104	1
65	65	2
148	148	2
16	19	1
132	132	2
117	117	2
112	112	1
153	153	2
40	40	3
155	156	1
64	66	2
9	10	1
147	150	1
85	103	1
126	130	1
27	35	2
75	94	1
177	177	1
39	39	2
168	168	5
82	102	2
151	151	2
37	39	1
78	78	1
178	179	2
18	18	1
11	11	2
53	53	2
49	51	2
45	59	2
58	84	1
1	1	2
102	148	2
3	3	2
73	73	3
73	75	2
144	144	2
38	38	6
135	135	3
96	97	3
133	133	3
123	125	1
17	17	4
125	125	1
0	0	2
143	145	1
30	51	1
174	175	3
31	31	3
9	9	3
3	4	1
117	119	2
141	141	3
99	103	1
90	91	3
67	89	1
95	96	1
74	74	4
119	122	1
0	18	2
60	60	1
141	170	1
178	178	3
157	157	1
82	85	2
126	127	1
131	133	1
111	115	1
94	95	1
145	149	2
97	98	1
147	147	4
164	165	1
76	81	3
129	130	1
131	162	1
12	14	1
64	64	1
31	32	2
135	137	1
5	10	1
50	50	7
167	170	2
28	28	2
66	67	2
154	154	2
122	126	1
124	124	1
45	45	3
58	58	1
119	146	1
84	139	1
106	127	2
110	110	1
154	156	1
61	95	1
169	169	3
88	89	1
57	94	1
152	152	1
162	162	1
87	88	1
118	119	1
13	15	2
116	116	2
77	77	1
98	98	1
173	173	2
138	138	2
71	71	3
18	20	1
170	170	3
26	29	1
76	77	1
113	115	1
166	166	1
68	68	1
164	166	2
9	20	2
168	171	1
59	61	2
162	171	1
91	92	1
33	33	2
84	87	1
23	23	2
54	57	1
52	63	1
27	27	2
21	21	1
76	76	2
35	36	2
165	166	1
1	2	1
22	45	1
123	128	1
94	94	3
10	10	3
6	6	3
61	61	3
141	142	2
126	151	3
57	58	2
33	35	1
134	134	1
120	122	1
70	71	1
10	15	1
154	155	1
50	51	2
180	180	1
118	125	1
39	40	2
31	61	1
24	26	1
32	37	1
120	120	1
144	145	1
101	101	1
148	156	2
90	90	1
55	55	3
8	8	4
134	135	2
34	35	1
143	144	1
16	23	1
149	149	1
24	24	1
14	14	3
10	11	1
119	121	2
52	52	1
130	130	1
83	85	1
145	145	4
147	148	1
138	148	1
104	105	1
128	129	1
79	80	1
51	52	1
75	75	2
139	139	2
0	28	1
35	39	1
86	86	1
160	160	1
108	108	1
62	63	1
140	142	1
156	159	1
171	171	1
123	123	2
82	82	4
34	34	1
163	163	2
90	94	1
115	115	1
22	24	1
168	169	1
164	164	1
155	155	1
89	108	1
107	107	1
149	150	1
57	57	1
127	147	1
93	93	1
15	18	1
64	72	2
166	168	1
106	106	1
33	39	1
79	79	2
136	136	2
89	89	1
56	57	1
60	66	1
137	175	1
127	128	1
165	165	1
24	42	1
30	30	1
72	72	1
150	150	1
83	84	1
136	139	1
53	55	1
138	149	1
20	30	1
65	67	1
101	105	1
22	61	1
17	27	1
80	83	1
19	19	1
0	12	1
32	32	1
153	162	1
110	114	1
137	138	1
158	160	1
97	106	1
122	124	1
27	28	2
20	21	1
11	12	1
159	160	1
141	144	1
62	62	1
35	37	1
121	121	2
68	139	1
174	174	1
121	123	1
21	23	1
120	121	1
