132	134	2
113	113	2
102	103	2
84	84	5
114	114	12
7	7	2
73	74	3
99	99	3
96	96	5
125	125	6
8	11	1
101	101	5
108	113	1
72	72	4
98	98	6
106	107	3
127	127	4
10	20	2
84	85	2
101	126	1
118	118	5
13	13	6
17	18	2
86	119	1
102	102	5
20	20	1
38	94	1
118	120	2
82	84	2
33	33	5
121	121	6
36	36	5
87	87	3
117	117	6
118	119	3
79	79	4
18	19	1
126	126	7
13	15	1
111	112	1
104	106	1
109	126	1
94	96	1
111	111	10
133	133	8
122	122	5
71	76	1
32	32	8
116	117	1
81	82	1
90	90	6
75	75	4
111	115	2
135	135	8
115	116	1
100	133	1
105	107	1
1	7	1
103	103	4
119	122	1
122	123	1
95	95	5
1	1	2
75	127	1
7	8	2
82	82	4
138	138	3
106	106	2
71	71	2
105	108	1
129	130	3
27	32	2
78	78	5
14	15	2
110	111	3
19	19	5
126	127	2
123	123	3
112	112	2
2	2	4
113	121	1
121	122	2
124	125	2
109	109	4
130	130	4
114	115	3
83	83	2
119	120	1
34	34	3
120	123	3
16	17	2
116	116	9
129	129	4
115	115	4
27	27	3
86	87	1
96	110	1
106	109	2
120	120	5
109	113	1
80	98	1
33	34	1
100	100	5
97	100	1
74	75	1
6	7	1
109	112	1
12	13	1
111	114	1
88	88	2
100	101	1
98	117	1
119	119	6
85	85	5
89	93	1
8	8	1
89	89	2
136	140	1
137	137	5
132	133	1
11	11	1
104	104	3
73	77	1
80	80	2
31	31	2
95	107	1
134	135	4
5	5	2
99	100	1
124	127	2
127	135	1
135	136	2
1	19	1
133	134	2
118	138	1
104	105	2
107	107	4
99	105	1
117	132	1
14	14	1
131	133	2
128	128	6
93	93	1
85	86	5
134	134	5
107	108	3
84	120	2
117	118	3
84	94	1
92	92	1
77	99	1
127	129	2
100	102	2
17	17	2
137	138	1
124	124	6
123	130	1
15	15	2
74	92	1
109	111	2
74	74	3
86	86	1
13	14	2
76	77	1
128	131	1
103	112	1
72	91	1
108	109	1
86	106	1
131	131	5
4	10	1
127	128	2
71	111	1
76	104	1
101	103	1
97	108	1
80	82	1
94	94	3
80	124	1
26	33	1
33	35	2
82	83	1
106	119	1
32	35	1
130	132	1
94	129	1
9	9	1
120	122	1
87	89	1
109	120	1
110	116	1
123	133	2
0	0	2
93	102	2
37	37	8
125	127	1
82	96	1
108	111	1
96	97	1
12	12	1
75	76	1
72	134	1
110	110	1
87	104	1
107	117	1
117	139	1
14	18	1
82	104	1
3	3	2
28	32	1
18	18	1
108	108	2
38	38	1
83	105	1
74	95	1
3	7	1
79	101	1
4	4	1
91	91	1
113	129	2
93	94	1
103	109	1
32	34	1
81	81	3
102	107	1
132	132	3
95	97	2
91	97	1
80	115	1
66	72	3
86	88	1
112	115	1
36	37	1
140	140	1
118	123	1
91	95	1
2	3	1
117	120	1
77	77	2
120	121	1
1	2	1
41	79	1
114	136	1
79	95	1
10	12	1
1	4	1
84	86	1
136	136	1
91	124	1
108	126	1
100	116	1
101	128	1
105	105	1
26	26	1
38	103	1
139	139	1
109	110	1
84	87	1
0	4	1
0	1	1
95	96	1
81	119	1
72	76	1
115	125	1
81	84	1
79	117	1
15	19	1
