240	241	3
114	114	3
212	212	3
160	161	1
14	17	1
228	228	3
65	66	3
159	159	3
105	107	1
55	55	3
5	6	1
123	124	1
8	8	6
56	56	3
107	107	3
165	165	2
57	57	3
201	202	1
37	37	4
35	36	6
187	188	3
125	126	2
69	96	1
14	15	1
40	40	1
185	186	1
63	80	1
122	123	1
28	29	2
16	17	1
108	108	3
97	97	3
72	74	2
203	203	1
106	109	3
113	113	1
99	100	2
58	60	3
85	85	5
49	57	1
208	208	1
100	100	6
112	113	3
14	14	1
116	117	2
27	27	5
184	190	2
151	151	7
214	215	1
72	72	7
106	108	4
197	197	2
119	119	1
211	211	1
221	221	4
45	47	1
30	30	2
74	74	2
41	41	5
29	30	2
121	121	3
36	36	4
198	198	4
232	232	2
180	180	1
182	182	1
23	23	1
233	233	3
202	202	3
135	135	5
54	54	5
231	231	1
70	70	4
163	166	1
149	149	9
84	84	1
49	49	2
65	65	4
88	88	5
9	44	1
199	199	2
154	154	2
124	125	4
185	185	3
68	68	2
163	163	1
15	23	1
186	186	6
109	109	2
42	42	2
99	99	4
9	9	3
224	224	2
167	167	2
49	53	1
101	101	2
21	21	4
8	9	1
30	31	1
143	143	5
143	147	1
205	205	4
109	135	2
184	184	1
133	134	1
66	67	3
8	38	1
229	229	2
210	210	1
62	62	2
153	154	1
54	100	1
224	225	2
171	171	6
155	155	5
216	217	1
189	196	1
20	20	1
18	18	3
13	14	1
172	172	1
217	217	7
232	233	1
145	145	1
161	161	2
133	133	4
215	215	2
67	67	2
205	206	1
28	28	1
96	96	1
185	187	1
243	243	1
188	188	4
177	177	5
101	110	1
117	117	1
114	159	1
127	127	6
17	17	3
157	157	4
104	104	1
103	103	2
162	162	5
73	73	2
56	57	2
109	110	1
3	7	1
36	198	2
82	181	1
58	80	2
89	89	1
4	4	7
51	83	2
125	125	2
152	152	6
221	222	2
174	175	1
175	176	1
98	98	4
130	130	5
114	115	1
206	206	2
129	129	7
33	48	1
157	158	3
169	178	1
216	228	2
10	10	2
9	10	2
144	145	2
214	214	1
225	225	2
179	181	2
176	176	4
78	81	1
180	181	3
162	163	3
32	32	6
179	179	2
84	88	2
175	175	2
150	150	3
191	192	1
122	122	2
45	45	3
148	149	1
43	43	3
35	35	2
12	12	1
226	227	1
51	53	1
105	105	2
138	138	4
21	68	1
220	223	1
2	2	1
126	126	2
165	166	2
106	107	1
7	7	2
140	181	1
142	142	2
29	29	3
71	71	2
209	218	1
124	124	3
189	189	4
44	45	1
125	128	1
238	238	2
160	160	1
35	37	1
80	83	1
141	143	1
96	100	1
201	201	2
46	47	2
230	230	4
25	25	1
201	203	1
211	216	1
173	174	1
85	86	1
109	114	1
40	79	1
118	118	3
18	19	1
99	175	1
147	162	1
235	235	6
134	154	1
121	122	2
195	195	1
226	228	1
83	83	2
121	139	1
80	89	1
6	6	2
181	181	4
227	227	1
194	194	2
147	148	2
195	197	1
52	52	1
87	178	1
241	241	1
173	173	3
49	50	1
80	81	2
168	168	4
211	212	1
37	38	1
75	75	1
116	116	2
217	218	1
222	222	2
21	47	1
4	7	1
78	78	2
129	131	1
240	240	2
155	156	2
120	159	1
209	209	1
190	218	1
147	154	2
169	169	8
82	82	1
5	5	2
137	137	4
42	43	1
60	60	4
31	223	1
154	159	1
134	134	2
57	58	1
212	214	1
219	219	4
160	166	4
132	134	1
69	69	3
46	46	3
33	168	1
31	32	3
233	234	1
191	191	3
51	52	1
120	121	1
181	182	1
47	47	3
24	26	1
40	42	1
185	188	1
34	35	2
219	220	1
169	228	1
146	146	1
17	52	1
113	114	2
32	33	1
38	38	2
51	51	2
129	158	1
3	3	1
22	22	1
81	82	1
2	3	1
58	58	2
151	154	1
79	79	3
242	242	2
54	58	1
130	158	2
21	22	1
4	5	3
85	101	1
44	44	1
111	171	1
98	99	1
172	173	1
179	184	1
15	17	1
207	235	3
170	187	1
12	46	1
183	183	1
70	71	1
234	234	2
117	137	1
159	160	2
139	139	2
142	144	1
117	127	2
131	131	2
108	142	1
140	179	1
184	186	1
33	33	2
188	206	1
186	187	2
144	144	3
192	192	2
105	108	1
166	169	1
169	188	1
170	170	1
61	61	2
86	86	1
11	11	1
192	193	1
147	147	1
48	48	2
32	44	1
210	211	1
120	120	3
239	241	1
126	137	1
70	203	1
114	121	1
149	180	1
59	59	3
229	230	2
63	63	1
122	128	1
141	142	1
1	1	4
132	138	1
39	39	1
204	218	1
119	120	1
115	115	1
204	204	1
223	224	1
207	208	1
48	56	1
190	208	1
131	136	1
124	134	1
196	196	1
112	112	1
0	0	1
154	155	2
123	123	1
66	68	1
37	77	1
66	161	1
198	200	1
151	156	1
27	30	1
75	95	1
34	36	1
34	221	1
213	213	2
153	156	1
164	165	1
239	239	3
164	164	2
198	199	1
50	51	1
127	132	1
122	126	1
136	136	1
42	54	1
237	237	1
20	36	1
111	111	1
118	158	1
77	77	1
218	219	1
236	236	1
105	128	2
205	226	1
190	190	1
13	150	1
178	201	1
234	236	1
115	116	2
118	162	1
6	7	1
169	170	1
161	162	1
144	148	1
11	12	1
110	110	1
101	102	1
216	216	1
163	164	1
107	108	1
169	191	1
88	89	1
10	11	1
138	158	1
211	218	1
30	178	1
184	185	2
100	101	1
146	166	1
149	150	1
64	64	1
190	192	1
144	186	1
