142	143	2
68	68	2
102	103	1
116	116	1
50	52	2
89	89	2
62	63	2
144	144	2
41	41	2
67	67	2
104	106	1
140	140	8
130	141	1
30	48	2
2	2	2
8	9	2
83	83	1
87	87	2
11	11	2
104	104	2
118	137	2
61	62	2
33	34	2
84	85	1
10	10	4
103	103	1
26	26	1
51	51	4
119	119	2
40	41	1
118	118	3
80	90	2
106	110	1
95	106	2
49	49	3
1	1	2
62	64	1
32	32	1
93	107	1
8	8	1
121	123	2
17	17	3
39	39	1
18	18	3
78	78	1
145	145	1
105	105	3
135	135	1
5	6	1
60	60	3
14	16	1
100	100	3
96	101	1
107	107	2
72	73	1
10	96	1
18	19	3
58	58	1
57	57	1
23	23	2
93	93	1
94	95	1
19	56	1
95	95	2
43	43	2
0	86	1
38	38	2
24	37	1
26	27	1
137	138	1
118	120	1
125	125	4
22	22	3
73	74	1
76	76	1
111	111	2
76	78	1
140	142	1
97	97	1
29	29	2
31	31	1
60	80	1
120	120	1
91	110	1
103	106	1
81	81	1
10	21	1
49	53	1
74	74	1
35	36	3
123	124	1
48	59	1
79	82	1
3	72	1
92	92	6
133	135	1
86	97	1
76	77	2
125	126	1
13	13	1
137	139	1
69	70	2
47	47	1
96	96	1
137	137	2
27	27	3
25	25	1
80	80	1
72	72	1
94	106	1
40	40	2
141	143	1
136	136	1
106	106	1
105	109	1
42	62	1
61	61	1
51	52	1
2	3	1
18	20	1
87	120	1
6	6	1
139	139	1
9	10	2
75	75	1
98	98	1
126	126	1
125	127	1
104	105	2
133	133	2
19	71	1
115	115	1
57	76	1
77	78	2
53	53	1
108	108	3
113	114	1
0	2	1
136	139	1
91	91	1
24	54	1
84	84	1
32	34	1
6	20	1
33	38	1
50	51	2
105	106	1
96	100	1
136	137	1
59	59	2
143	143	2
110	110	1
144	145	1
123	123	1
33	33	2
3	3	1
15	17	1
141	141	1
110	111	1
24	24	1
90	90	1
112	112	1
1	74	1
97	98	1
36	37	1
41	42	1
129	129	1
128	128	2
23	58	1
130	131	1
80	81	1
99	100	1
69	71	1
47	48	1
48	66	1
110	117	1
49	50	1
65	65	1
73	73	1
1	6	1
118	119	1
103	110	2
70	139	1
0	26	1
23	37	1
57	90	1
3	13	1
83	85	1
50	50	1
36	36	1
114	115	1
117	123	1
134	134	1
23	53	1
29	30	1
125	142	1
132	132	1
6	26	1
9	9	1
138	138	1
62	62	1
1	28	1
114	116	1
