16	16	8
144	144	7
3	3	5
23	23	6
156	156	8
133	134	4
146	146	4
13	13	6
51	51	2
14	14	9
19	19	5
34	34	5
12	12	9
91	91	5
163	164	2
9	9	11
160	160	3
151	151	4
159	160	1
129	132	2
104	105	1
10	22	1
131	164	2
35	45	1
17	17	11
101	101	3
1	2	3
0	1	1
162	164	1
6	56	1
35	35	6
36	36	6
102	103	1
96	97	3
24	24	10
50	50	6
56	56	3
44	45	2
21	80	1
44	44	4
11	11	3
109	109	3
119	120	2
72	73	2
149	149	4
5	5	5
110	111	2
10	10	3
74	150	1
163	165	1
90	90	2
105	156	1
92	93	2
86	91	1
46	46	8
104	104	5
41	41	2
51	119	2
47	53	3
98	101	1
8	8	6
139	157	2
0	33	1
112	120	1
27	27	5
97	98	1
22	24	1
157	157	4
168	168	5
135	151	2
119	119	4
78	78	4
141	156	1
152	152	6
135	136	3
74	79	1
128	128	9
110	110	2
68	70	2
0	0	7
1	1	6
161	161	7
145	145	3
47	47	3
99	99	4
155	156	1
19	20	1
80	126	2
89	126	1
28	28	1
139	143	2
141	141	3
143	143	8
170	170	2
80	80	3
81	115	1
41	42	2
121	121	5
49	49	10
134	134	3
105	105	5
136	136	4
90	91	2
108	109	2
116	116	3
113	113	2
55	57	1
162	162	9
81	93	1
38	38	3
100	100	4
42	42	4
169	170	1
166	167	2
18	18	1
40	40	5
165	165	7
33	45	1
126	126	3
137	138	1
87	88	1
115	115	2
39	40	8
111	111	2
164	165	1
85	85	3
155	155	2
154	154	4
114	114	2
91	106	1
118	122	2
105	107	1
145	146	6
139	139	6
54	54	3
108	125	1
116	117	2
147	148	1
83	83	3
117	117	4
123	123	3
21	21	3
15	34	1
167	167	7
18	20	2
7	8	1
96	96	2
128	130	2
19	21	1
79	79	1
98	98	1
133	133	2
68	69	4
97	121	2
92	92	1
124	124	3
142	142	4
7	33	2
58	58	1
12	13	2
129	130	2
153	154	3
120	129	1
167	168	2
15	15	1
158	158	2
47	49	2
14	15	3
136	152	1
2	2	7
1	3	2
107	107	3
166	166	7
154	155	2
122	144	1
57	57	2
87	87	3
56	57	2
70	113	1
8	144	1
5	114	1
100	126	1
75	146	1
11	12	2
52	52	3
130	153	1
84	85	2
22	55	1
39	169	1
25	25	8
62	62	4
136	138	1
163	163	4
124	161	2
52	53	2
4	4	7
143	144	1
40	41	1
150	150	3
88	88	2
114	118	2
72	72	3
78	147	2
130	130	1
126	127	1
100	110	1
88	89	1
69	69	4
112	156	1
143	151	1
118	118	2
81	81	3
78	80	1
141	145	2
101	102	2
107	108	1
147	167	1
118	119	2
128	145	1
123	124	2
70	79	1
121	133	1
86	86	3
57	64	1
57	90	2
135	135	4
136	137	1
109	132	1
70	70	4
39	88	1
50	51	3
3	4	1
149	162	2
64	71	3
45	45	4
25	83	2
112	129	1
89	89	2
99	117	1
64	64	4
15	16	4
164	164	4
131	131	3
122	122	2
22	22	3
102	102	3
90	111	1
7	7	4
77	78	2
15	44	1
69	77	1
131	132	1
47	48	2
46	47	1
10	12	1
138	139	1
43	43	4
80	87	1
94	115	1
138	168	1
48	48	6
137	137	1
76	80	2
26	27	1
156	157	1
162	167	1
76	76	1
76	77	1
119	136	1
17	20	1
123	143	2
84	118	1
68	68	1
159	159	2
18	49	1
6	7	2
146	148	1
108	108	3
112	112	2
140	141	2
35	36	3
37	37	2
51	52	2
7	10	1
95	123	1
147	147	1
45	46	1
77	77	4
53	53	3
75	75	2
85	86	2
142	144	2
15	22	2
99	104	1
130	133	1
104	121	1
154	158	1
48	57	1
160	161	1
132	133	1
85	87	3
5	6	2
18	19	1
24	26	1
101	118	1
86	117	1
103	103	2
150	160	1
127	127	4
106	106	2
118	134	2
64	68	1
97	97	4
120	164	1
13	113	1
113	114	1
71	71	2
49	53	1
27	28	2
79	81	1
90	107	1
139	140	1
164	166	1
3	90	1
63	100	1
73	121	1
80	86	1
20	20	4
82	118	1
105	130	1
121	152	1
99	106	1
68	77	1
25	131	1
65	65	1
69	91	2
148	148	1
141	165	1
125	147	2
46	51	1
119	156	1
150	157	2
38	39	1
144	147	1
3	99	1
100	101	1
48	50	1
36	42	2
115	116	1
75	79	2
81	82	1
134	136	1
130	141	2
128	129	2
133	156	1
6	6	2
41	160	1
157	160	1
2	11	1
18	104	1
5	139	1
7	28	1
169	169	1
43	93	1
162	163	2
152	154	1
73	91	1
138	138	2
76	142	1
112	160	1
128	141	1
40	45	1
63	152	1
55	55	1
101	107	1
2	4	1
80	83	1
49	51	1
37	44	1
39	150	1
25	26	1
153	153	4
101	135	1
156	165	1
6	46	1
42	43	1
13	14	1
131	154	1
22	25	1
139	141	1
91	98	1
16	49	1
16	20	1
96	118	1
123	125	1
93	94	1
97	106	1
19	44	1
73	73	1
131	138	1
103	104	1
91	107	1
150	151	1
92	94	1
84	84	1
74	74	1
120	120	1
64	96	1
96	152	1
107	140	1
139	150	1
57	86	1
138	147	1
10	50	1
64	76	1
77	126	1
151	153	1
99	102	1
64	104	1
