113	115	2
133	133	5
13	17	1
72	74	2
9	9	7
116	125	1
151	152	1
135	135	6
146	151	1
22	22	7
78	80	2
51	51	2
81	81	3
133	137	1
130	130	4
0	0	4
151	151	4
140	162	2
76	76	3
11	13	1
137	137	5
50	50	2
2	2	4
103	103	3
88	88	1
166	167	6
113	113	4
8	8	5
149	150	3
165	166	2
160	166	1
15	15	4
3	27	1
86	86	3
37	37	4
16	16	5
56	160	1
126	127	2
39	39	2
139	140	3
155	156	1
93	93	7
77	77	3
6	47	1
92	93	2
116	117	1
70	99	1
42	42	3
128	129	2
50	51	1
73	73	3
63	69	3
139	139	2
49	49	4
17	17	3
70	70	4
9	23	1
10	11	2
33	35	1
20	22	2
37	39	1
126	126	3
84	84	6
137	139	2
35	35	9
4	4	5
147	148	2
63	63	3
120	120	4
34	35	2
84	100	1
54	54	1
96	99	2
144	145	3
134	145	1
48	48	6
129	129	4
13	14	1
16	20	1
36	36	6
17	18	2
156	156	2
20	20	3
79	80	2
34	144	1
118	118	3
162	162	4
90	119	1
69	69	3
44	44	3
152	156	1
161	161	5
47	47	5
169	170	1
136	143	1
154	168	1
66	67	1
41	48	2
6	15	3
156	157	3
106	106	2
82	84	2
159	159	7
110	111	2
148	155	1
14	14	4
86	105	2
141	147	2
141	141	4
41	118	2
107	107	2
122	123	3
2	3	1
144	144	3
166	166	2
145	148	1
95	95	3
61	62	2
131	131	3
107	115	1
88	89	3
157	157	4
96	96	2
55	55	4
134	135	3
129	146	1
5	5	7
153	153	3
23	23	5
105	114	1
15	16	3
5	6	2
3	3	4
68	86	1
41	41	3
165	165	2
137	144	1
89	90	1
169	169	5
140	140	4
104	104	1
24	40	1
161	163	2
27	42	1
97	130	1
119	119	2
147	147	4
21	21	2
112	114	1
68	70	2
45	45	1
64	69	1
163	163	5
8	9	1
100	100	1
123	123	1
39	139	1
64	64	3
97	105	1
25	34	1
43	43	9
136	152	2
115	115	3
16	24	1
128	128	4
97	99	2
76	77	1
0	7	1
170	170	4
1	4	2
145	147	2
78	104	1
12	14	1
11	12	1
87	114	2
69	86	2
16	17	1
83	83	3
102	112	1
114	114	4
85	85	4
160	160	3
65	65	2
125	126	1
24	24	1
162	163	1
145	145	6
112	123	1
150	150	6
39	40	3
27	44	1
68	87	1
56	105	1
57	63	1
125	141	2
5	10	1
67	67	1
158	165	1
56	56	2
33	34	2
161	164	1
108	119	1
92	92	4
115	116	1
146	146	3
157	159	1
108	110	1
53	53	4
25	25	5
26	27	1
151	153	1
11	11	1
98	98	6
52	52	3
0	1	2
44	46	1
73	168	1
138	138	5
141	143	1
143	153	1
140	141	4
126	156	1
149	164	1
74	74	5
117	120	1
125	125	2
12	12	2
5	7	3
112	121	1
57	57	3
26	26	4
51	68	1
161	162	4
53	54	1
139	170	1
76	81	1
103	111	1
142	145	2
6	6	3
121	129	1
159	165	1
163	166	1
124	124	2
75	75	2
152	152	3
72	73	1
34	34	2
55	62	1
111	111	5
116	116	3
135	158	1
127	127	2
141	146	1
149	149	1
27	27	1
134	134	2
121	121	1
46	49	1
72	113	1
84	168	1
80	80	2
109	112	2
69	70	1
92	102	1
125	133	1
106	108	1
135	136	2
86	90	1
160	168	1
14	15	1
7	15	1
87	87	1
95	103	1
102	103	1
6	7	4
25	150	1
145	153	2
99	99	4
68	68	3
107	112	1
24	114	1
123	136	1
9	11	1
41	44	1
13	13	1
24	25	3
79	96	1
136	136	6
91	93	1
108	108	1
81	82	1
37	41	1
164	167	2
45	169	1
152	153	2
13	44	1
142	142	2
62	62	4
168	169	2
12	20	1
1	16	1
136	137	1
112	156	1
13	20	1
66	66	1
159	161	1
69	83	1
123	129	1
112	131	1
97	104	1
93	95	1
7	11	1
0	3	1
11	49	1
22	47	1
168	168	3
130	135	2
0	70	1
124	126	1
107	109	1
136	141	1
113	116	1
143	156	1
47	49	1
7	39	1
132	132	3
38	38	2
121	131	1
51	52	2
79	79	2
18	44	1
116	128	1
22	24	1
163	164	2
164	164	1
44	45	1
142	155	2
85	99	1
20	44	1
151	155	1
82	83	2
123	130	1
40	40	1
35	39	1
23	26	1
89	89	1
102	102	1
92	98	1
23	24	1
143	147	1
41	42	1
94	98	1
52	53	1
17	25	1
112	112	1
155	155	3
33	33	1
118	129	1
6	17	1
148	148	1
79	81	1
114	125	1
57	88	2
93	94	1
90	90	4
19	19	2
101	101	1
36	42	2
7	7	4
71	97	1
90	107	1
128	145	1
143	143	2
16	42	1
162	170	1
102	113	2
97	101	1
148	163	2
97	97	1
82	82	1
10	10	1
72	72	1
127	128	1
88	90	1
67	68	1
6	16	1
4	7	1
78	78	1
63	65	1
3	5	1
142	170	1
52	73	1
106	107	1
73	115	1
98	99	1
117	117	1
127	163	1
138	157	1
65	67	1
90	93	1
14	19	1
14	140	1
122	122	2
12	15	1
10	16	1
158	169	1
143	155	1
40	140	1
47	48	1
158	158	1
140	169	1
158	159	1
118	128	1
2	170	1
74	110	1
154	154	1
83	84	1
18	18	1
99	116	1
