3	43	2
138	138	2
35	35	3
86	87	2
100	100	2
67	68	2
124	124	6
99	101	1
69	69	1
91	91	2
133	136	2
2	2	2
26	39	1
91	92	1
92	92	3
109	109	1
125	128	1
142	143	1
6	9	1
126	126	2
23	24	1
110	112	2
86	92	1
118	135	1
132	132	3
111	123	2
3	3	2
138	139	1
102	102	3
54	74	1
53	61	2
15	15	2
142	142	2
24	25	2
102	105	1
99	99	3
4	5	2
67	67	2
6	6	2
137	138	2
120	123	1
8	10	1
115	117	1
11	11	2
10	10	4
127	127	1
107	133	1
27	38	2
131	131	1
83	83	2
137	139	1
115	115	2
121	122	3
63	63	2
106	141	2
90	91	1
134	137	1
72	75	1
93	102	1
60	62	2
123	124	1
39	41	1
17	17	2
1	2	1
104	105	3
37	37	2
5	25	1
21	23	1
90	90	1
141	144	1
9	40	1
64	66	2
89	89	2
133	133	4
28	28	2
141	141	2
2	3	2
56	69	1
20	20	1
118	124	1
15	17	1
26	32	1
77	80	1
57	57	2
137	137	2
140	141	1
55	55	1
83	84	1
58	76	1
27	116	1
58	58	2
9	12	1
42	42	3
79	80	1
95	95	3
96	97	2
107	107	3
4	4	1
74	74	3
70	70	2
29	29	1
19	19	3
33	33	2
60	60	2
96	96	2
71	126	1
56	57	1
120	120	1
56	56	1
9	9	3
128	128	2
116	116	2
105	107	1
88	88	1
27	40	1
119	119	1
134	134	3
135	136	1
59	82	1
32	32	2
141	142	1
32	103	1
73	73	3
93	94	2
48	48	2
26	26	2
81	82	2
23	23	2
106	125	2
108	108	5
77	77	1
140	140	1
40	40	2
104	118	2
84	84	2
21	21	2
21	98	1
17	18	1
14	14	1
76	76	1
37	38	1
63	64	1
82	82	3
29	37	1
94	94	1
65	67	1
105	106	2
57	59	1
62	62	1
80	105	2
89	120	1
119	121	1
59	60	1
125	125	4
130	131	1
65	66	1
50	50	2
145	145	2
40	41	1
49	50	1
34	34	3
77	81	1
106	106	1
92	93	1
27	27	3
49	49	3
129	136	1
18	19	1
101	101	1
19	21	1
130	134	1
58	59	1
61	61	1
34	37	1
63	141	1
41	41	1
143	143	5
85	86	1
93	93	1
36	36	2
28	29	1
69	70	2
114	114	2
39	58	1
66	67	3
108	112	1
68	86	1
118	118	2
54	124	1
122	122	1
30	48	1
30	105	1
110	110	1
112	114	1
75	82	1
130	130	2
66	66	3
110	129	1
50	51	1
56	59	1
65	65	1
64	64	1
16	16	1
68	68	1
80	80	2
39	39	2
123	123	1
135	135	1
51	52	2
13	13	1
43	43	1
17	24	1
1	1	1
107	110	2
31	31	1
89	90	1
20	68	1
29	34	1
8	8	1
31	32	1
25	25	2
10	12	1
117	121	1
78	78	1
117	117	1
131	133	1
37	100	1
55	57	1
136	136	1
81	83	1
132	133	1
25	27	1
91	100	1
98	99	1
122	124	1
