25	25	5
105	105	4
209	209	3
161	161	3
11	11	4
102	102	6
20	20	6
23	23	2
225	225	1
242	242	3
204	204	1
128	170	1
18	18	1
46	46	4
127	127	1
112	112	1
162	197	1
76	82	1
63	63	2
67	67	2
150	151	1
163	177	1
135	136	2
48	48	3
70	70	1
155	155	1
30	30	2
138	138	3
88	88	6
178	178	3
150	150	1
234	235	1
114	114	3
200	201	2
29	29	5
1	1	7
206	207	1
175	175	6
162	162	3
69	69	2
47	53	1
40	41	1
185	185	4
79	79	2
180	181	1
163	163	1
171	171	6
191	225	1
36	36	2
152	152	1
166	167	2
211	211	1
55	55	2
46	47	2
164	164	2
7	7	1
38	38	4
107	107	1
106	106	2
192	193	2
172	172	4
108	108	2
52	57	1
168	168	2
179	181	1
191	191	1
65	70	1
128	128	4
79	83	1
2	2	4
74	75	1
73	73	1
238	238	1
160	169	1
39	39	4
47	69	1
104	104	1
77	79	4
224	224	2
35	35	1
74	74	1
64	64	1
187	187	1
27	30	1
219	219	4
48	49	1
122	122	3
173	175	1
138	143	2
115	116	1
75	79	1
28	28	3
192	192	3
30	32	1
61	62	1
183	183	3
144	155	2
226	227	1
239	239	4
170	171	2
72	72	4
49	58	1
4	5	1
231	231	1
118	118	2
131	131	3
49	49	1
158	159	3
79	125	1
145	208	1
53	195	1
50	51	2
27	27	3
185	187	1
159	159	7
221	222	1
235	236	1
131	132	2
52	54	1
145	171	1
153	153	1
157	157	3
169	174	1
44	44	1
214	214	1
176	176	3
101	101	3
43	44	3
7	15	1
80	81	1
81	81	1
165	165	3
19	19	2
208	208	1
9	9	2
236	236	3
157	158	1
24	24	1
212	212	1
186	187	1
119	120	3
193	194	3
82	82	2
180	212	1
9	120	1
25	73	2
16	16	3
140	143	1
98	98	2
83	84	1
147	147	1
80	88	1
69	70	1
149	149	2
59	60	1
63	83	1
240	240	2
12	12	2
133	133	3
172	173	1
145	145	1
39	207	1
41	41	1
220	224	1
151	151	3
115	132	1
76	76	1
198	198	1
154	156	1
181	183	1
43	46	1
190	192	2
228	231	1
49	165	1
47	86	1
5	5	1
220	223	1
85	85	3
167	168	2
172	175	1
203	205	1
26	27	1
97	97	1
32	32	1
176	187	1
37	43	1
24	25	1
144	144	2
43	43	2
66	66	1
65	65	2
154	154	2
124	136	1
37	37	1
27	238	1
203	204	1
28	204	1
49	51	2
95	101	1
136	139	1
84	86	1
218	218	1
183	184	1
88	89	1
53	53	1
216	216	1
116	116	1
230	231	1
120	121	1
54	55	1
1	2	1
0	0	2
179	183	2
161	162	2
11	12	1
197	197	2
11	101	1
15	15	1
29	30	1
119	131	1
161	183	1
201	201	1
196	213	1
223	223	2
159	160	1
19	35	1
182	183	2
52	53	1
76	80	2
178	179	1
161	165	1
145	148	2
139	139	2
103	104	1
229	229	1
38	39	1
160	160	1
5	6	2
21	21	1
139	161	1
170	170	2
182	182	1
4	15	1
8	8	2
60	60	1
181	182	1
119	119	1
108	117	1
29	207	1
169	170	1
50	50	2
140	142	1
54	54	1
50	52	2
211	212	1
81	82	1
9	39	1
76	81	1
32	45	1
51	51	1
110	120	1
21	22	1
76	79	1
3	179	1
78	78	1
144	188	1
20	38	1
195	195	3
24	69	1
31	31	1
136	136	2
64	69	1
200	200	1
126	126	1
16	35	1
52	52	1
14	40	1
27	74	1
139	140	2
103	103	1
169	169	1
139	142	1
84	85	1
29	208	1
155	156	1
206	206	1
144	145	1
50	53	1
196	196	2
61	86	1
86	86	1
100	241	1
209	222	1
26	69	1
241	241	2
204	233	1
189	189	1
179	180	1
46	48	1
122	177	1
19	99	1
10	64	1
174	220	1
3	17	1
156	156	2
191	232	1
36	59	1
58	63	1
81	83	1
18	19	1
62	62	1
220	220	1
148	149	1
128	136	1
27	29	1
49	55	1
30	31	2
25	55	1
113	128	1
142	142	1
44	207	1
56	56	1
33	33	1
219	232	1
119	137	1
167	167	1
71	72	1
33	97	1
100	100	1
23	24	1
72	73	2
43	45	1
26	26	1
68	68	1
225	227	1
49	50	1
190	223	1
6	6	1
199	199	1
65	66	1
34	34	1
33	66	1
0	1	1
205	205	1
134	134	1
205	206	1
180	180	1
207	207	1
234	237	1
224	230	1
179	179	1
2	3	1
163	165	1
