73	80	3
76	77	5
91	91	4
23	26	1
19	19	1
79	79	4
16	16	6
35	36	5
22	23	1
15	16	5
18	18	2
53	53	6
85	93	1
65	70	2
76	76	9
55	55	6
61	61	2
45	45	5
66	68	2
73	73	6
14	33	1
111	111	5
80	81	1
117	117	4
96	96	4
131	133	1
58	91	1
82	83	3
59	59	4
126	126	3
52	69	1
93	108	2
94	104	1
57	58	4
22	22	3
9	57	1
24	36	1
10	10	4
0	0	2
71	80	2
77	78	2
21	21	2
100	100	3
71	71	8
101	101	2
66	66	5
17	17	3
89	89	3
65	67	1
124	125	1
61	92	1
87	87	7
120	120	3
50	52	3
106	106	3
130	130	6
47	47	5
52	52	3
70	70	4
103	103	2
36	36	4
25	35	1
11	11	4
44	44	3
74	75	3
5	5	4
86	87	4
55	56	1
102	104	1
46	46	2
48	48	1
131	131	4
56	56	3
96	114	1
129	130	1
5	6	3
107	107	2
64	64	4
124	124	2
31	31	9
60	60	5
85	86	2
20	20	3
57	60	1
67	67	6
72	72	6
25	34	1
43	43	1
80	80	8
97	97	1
82	82	3
73	74	3
83	85	2
2	2	5
12	12	5
67	68	1
35	35	2
63	64	2
125	125	2
44	47	2
69	69	5
105	105	2
49	49	4
49	54	1
72	105	1
21	22	2
95	102	1
33	61	1
129	129	2
72	73	1
119	119	2
75	76	1
61	62	1
84	84	4
58	85	1
57	57	5
23	23	5
24	24	4
77	77	8
122	122	1
56	57	2
4	5	1
59	96	1
15	33	1
66	95	1
68	68	4
134	135	1
32	32	3
92	95	2
68	69	3
65	65	3
102	102	6
0	1	2
31	36	2
9	9	4
59	91	1
62	63	3
51	51	1
50	50	4
74	79	1
31	32	3
37	37	2
75	75	2
29	29	3
72	75	1
31	34	3
62	62	1
135	135	2
0	3	1
85	107	1
85	85	6
94	112	2
2	4	2
27	27	6
99	99	4
102	103	1
74	74	2
10	20	1
92	92	2
14	15	1
109	110	2
76	80	1
26	26	2
54	54	1
108	118	1
93	93	2
28	29	1
38	62	1
3	4	1
88	89	2
121	122	1
1	1	4
116	116	3
95	95	1
64	65	1
15	15	4
83	84	1
30	30	3
29	30	1
107	111	3
35	59	1
23	24	3
27	28	1
54	55	2
12	13	2
112	112	1
32	77	1
107	108	2
6	6	2
113	113	2
62	111	1
128	128	1
61	70	1
33	36	2
103	104	2
52	63	1
25	25	3
56	58	2
60	65	1
81	81	4
13	13	3
1	3	1
83	86	1
123	123	2
106	111	2
99	101	1
90	90	1
127	128	1
72	80	1
11	21	1
52	53	1
16	17	2
83	83	3
71	72	2
4	4	2
114	114	1
14	50	1
3	3	2
68	71	1
44	49	1
97	98	2
18	19	2
35	52	1
120	134	1
64	105	1
7	7	2
62	80	1
78	78	3
115	118	1
4	63	1
9	15	1
116	117	1
132	132	2
36	54	1
109	109	1
8	8	1
45	51	1
123	124	1
64	70	1
70	71	2
33	33	3
104	105	1
128	129	1
58	58	1
113	117	1
7	8	1
86	86	3
119	120	1
2	11	1
33	34	1
121	134	1
82	84	1
27	62	1
18	20	1
56	80	1
126	132	1
15	30	1
49	50	1
63	63	1
5	18	1
94	96	1
108	110	1
66	81	1
133	133	1
122	124	1
70	72	1
108	116	1
104	104	1
130	132	1
72	79	1
98	98	1
11	36	1
32	83	1
117	118	1
78	114	1
132	133	1
44	45	1
18	22	1
87	88	2
28	28	1
134	134	2
126	133	1
4	6	1
60	61	1
38	55	1
116	118	1
50	51	1
20	53	1
11	64	1
53	54	1
120	121	1
77	83	1
81	82	1
1	2	1
61	81	1
3	117	1
100	101	1
133	134	1
79	80	1
59	80	1
