98	98	1
101	101	2
133	134	1
141	141	3
131	137	3
133	133	1
76	76	3
82	84	2
129	129	4
13	24	1
10	41	1
61	81	1
60	61	2
50	51	1
9	9	5
88	89	1
38	39	1
115	117	3
22	22	2
5	14	3
18	23	2
52	52	2
38	38	1
88	106	1
39	39	3
63	63	4
68	68	2
5	5	2
135	135	2
27	27	4
111	120	1
77	77	1
24	24	3
15	15	2
123	132	1
69	88	1
64	82	1
102	102	1
55	100	1
69	76	1
18	18	2
138	139	2
120	120	2
119	119	2
80	82	1
126	127	1
124	124	4
67	82	1
30	30	1
108	123	1
104	105	1
104	104	1
70	70	3
89	108	1
52	88	1
6	6	3
58	90	1
50	83	1
17	17	2
130	130	2
140	140	3
113	120	1
74	74	1
87	87	2
109	120	2
42	42	1
114	116	1
36	36	1
3	3	3
103	103	2
86	86	3
60	60	4
57	139	1
11	11	3
69	72	1
132	132	2
55	106	1
23	23	3
112	119	1
75	75	3
123	142	2
111	112	1
76	77	1
134	134	1
43	43	2
113	113	2
86	87	1
96	98	1
109	109	2
133	140	1
65	76	2
19	20	1
73	73	1
37	37	4
8	42	1
90	90	1
112	112	1
117	121	1
49	51	3
139	139	3
118	118	1
124	143	1
130	139	2
67	67	1
129	132	1
9	26	1
144	144	1
72	73	1
2	2	1
55	55	2
79	90	1
68	74	1
127	127	1
17	26	1
79	79	3
16	16	2
3	24	2
72	117	1
40	41	1
115	115	2
42	43	1
26	27	1
87	88	1
49	49	1
93	93	1
66	67	1
124	125	1
29	30	2
88	88	3
116	116	3
114	121	1
35	36	2
69	70	3
106	107	1
14	14	1
78	79	2
4	5	2
115	121	1
41	59	1
99	100	1
81	118	1
107	108	1
8	20	1
78	78	2
105	105	1
113	115	1
143	144	1
107	107	1
145	146	1
122	122	1
65	65	1
136	136	2
57	57	1
19	19	2
28	28	1
17	18	1
23	24	1
20	20	1
111	111	1
54	54	1
74	102	2
41	47	1
77	106	1
8	8	1
71	71	1
91	91	1
69	69	1
53	90	1
22	26	1
64	64	1
99	99	1
21	21	1
142	142	1
132	136	1
141	142	1
132	137	1
81	108	1
137	137	1
80	80	1
73	74	1
58	129	1
69	80	1
73	92	1
89	89	1
51	51	1
74	134	1
56	102	1
