2	61	1
43	43	4
27	58	1
118	118	4
78	78	5
70	70	3
5	10	1
8	9	1
130	133	1
10	10	2
33	33	9
125	125	2
47	47	1
61	61	1
72	72	4
47	55	1
8	8	3
95	95	3
94	94	3
6	6	3
15	15	2
100	100	2
126	127	1
76	76	2
117	117	1
36	42	3
102	102	1
9	9	4
24	24	1
72	74	1
85	85	3
10	11	2
119	119	4
112	112	2
124	129	1
38	39	2
12	12	4
21	85	1
32	32	4
105	122	1
103	104	1
111	111	2
37	42	1
40	40	1
37	37	2
96	96	3
101	101	1
126	128	1
126	133	1
65	65	3
30	30	2
92	93	2
58	58	3
77	77	2
68	68	5
97	97	1
45	45	4
19	56	1
116	116	2
95	96	1
0	0	3
104	109	1
25	25	1
115	117	1
93	120	2
86	86	1
125	126	2
123	123	5
55	56	1
26	27	1
124	125	1
56	58	1
127	127	3
51	56	2
113	118	1
16	16	1
46	62	1
104	104	1
11	11	4
41	42	1
113	116	2
22	22	1
32	34	1
64	65	2
38	38	2
79	82	1
63	63	4
0	1	1
7	38	1
19	47	2
36	36	1
23	23	1
2	2	2
29	30	1
59	59	5
42	42	2
59	86	1
34	35	1
0	16	2
108	108	1
17	82	2
113	113	2
26	28	1
73	74	3
103	103	1
23	25	1
74	74	3
13	13	1
36	38	2
22	24	1
45	46	1
84	84	2
11	12	1
73	73	2
131	131	2
109	109	2
26	26	1
4	5	1
128	128	1
4	34	1
75	75	2
129	130	2
90	90	2
21	22	2
57	57	2
46	46	3
87	87	1
23	24	1
80	81	2
95	111	1
103	107	2
19	79	1
129	129	1
15	17	1
98	99	1
60	60	2
34	34	1
59	83	1
96	107	1
132	132	1
26	44	1
46	47	1
126	126	3
17	17	1
14	15	1
75	82	1
64	64	3
110	110	2
122	123	3
116	117	1
81	81	1
13	15	1
86	113	1
18	18	1
69	69	1
67	67	1
86	87	1
68	69	1
120	120	2
134	134	2
127	128	1
123	125	1
66	66	1
28	29	1
67	69	1
71	71	1
80	80	1
76	86	1
60	61	1
35	35	2
63	64	1
96	98	2
80	91	1
57	59	1
123	126	1
35	36	1
97	112	1
12	32	1
57	58	1
87	129	2
82	105	1
108	116	1
10	13	1
40	42	1
98	98	1
97	103	1
90	92	1
69	70	1
89	102	1
26	41	1
27	29	1
76	78	1
105	109	1
82	84	1
130	130	1
21	21	1
107	108	1
133	133	1
114	116	1
7	7	1
