79	79	4
106	106	2
109	110	3
124	125	5
58	96	1
126	126	1
71	71	1
27	28	3
112	112	1
146	186	2
63	63	2
108	108	1
80	80	1
57	57	8
7	7	6
4	7	1
21	21	5
168	168	3
34	34	5
72	73	3
169	169	3
2	2	8
6	7	2
111	113	1
129	129	7
72	72	4
28	32	1
152	152	2
1	2	1
23	23	2
96	96	2
61	62	2
182	182	5
179	181	2
24	26	1
20	22	1
70	78	1
4	77	1
45	45	6
60	60	2
5	5	7
74	74	4
141	141	3
91	92	1
98	107	1
157	158	2
79	82	3
75	88	2
132	137	1
140	140	4
126	127	2
135	164	1
19	20	3
153	153	4
180	181	1
125	125	2
27	27	3
31	31	3
135	139	1
169	170	2
114	141	1
11	11	3
136	181	1
186	186	1
57	58	2
82	82	4
30	30	3
179	179	2
174	181	1
147	151	2
158	167	1
185	186	1
36	36	2
13	13	3
115	180	2
6	53	1
13	17	1
81	81	3
131	131	2
17	25	1
12	17	2
68	95	2
82	97	1
44	95	3
96	97	2
28	36	1
131	132	1
85	113	1
33	66	1
24	24	6
45	46	1
48	53	1
75	77	1
34	37	1
79	141	1
132	134	2
26	28	1
155	155	3
20	24	1
110	111	2
184	185	1
111	111	3
173	173	5
12	12	6
110	110	3
20	20	1
37	38	2
16	38	1
0	0	6
87	110	1
0	15	1
4	5	4
147	147	6
15	17	1
18	21	1
18	20	2
10	11	1
59	59	2
78	78	3
60	136	1
47	89	2
47	64	2
151	151	1
21	22	2
123	123	4
115	116	1
127	127	4
61	92	1
184	186	1
111	140	2
166	167	1
177	177	3
163	163	1
40	40	2
78	80	1
140	141	1
96	124	1
188	190	1
19	19	3
93	93	4
77	77	1
88	88	3
38	39	3
26	56	1
156	156	1
182	183	1
43	43	3
55	55	6
152	190	2
133	133	2
115	118	1
103	151	2
162	162	1
149	149	3
8	10	1
10	10	2
42	43	3
125	139	1
190	190	7
31	32	1
185	187	1
89	89	1
164	164	2
99	99	2
119	119	4
45	132	1
154	154	4
115	115	5
18	80	1
122	122	2
127	128	1
120	120	3
20	68	1
148	148	4
14	18	1
157	157	2
134	148	1
113	160	1
84	84	4
107	107	3
4	6	1
108	109	2
40	96	1
175	180	1
114	138	1
151	188	1
89	129	1
87	87	3
159	160	2
106	186	2
83	83	1
90	95	2
141	144	1
55	56	1
90	93	1
56	56	5
24	29	2
116	116	3
76	76	7
153	154	3
66	89	2
1	1	1
174	175	1
107	112	1
95	95	3
170	170	2
6	6	7
41	41	1
47	58	2
184	184	4
109	109	2
106	184	1
10	14	3
130	131	2
0	6	2
146	146	1
55	73	1
149	150	3
52	53	1
90	90	2
183	183	4
105	126	1
97	97	2
152	153	4
39	40	1
47	47	3
141	143	1
64	64	2
160	160	1
56	96	1
97	99	2
38	38	2
109	144	2
149	151	1
88	139	1
59	60	2
26	26	2
25	25	5
63	65	2
97	98	1
143	143	3
85	85	3
28	28	2
148	149	1
56	57	1
119	120	1
171	171	2
52	71	1
185	185	4
70	93	3
8	8	5
94	106	1
147	174	1
129	185	1
177	179	2
166	166	2
128	129	2
58	58	2
105	105	5
70	86	1
40	45	1
145	145	3
178	178	2
187	187	1
141	184	1
48	74	1
142	159	1
129	169	1
66	67	2
15	20	1
134	182	1
158	158	2
172	172	6
93	94	1
113	113	3
65	65	3
83	113	1
164	172	1
73	85	1
170	174	1
75	75	1
88	89	1
3	3	2
128	128	2
65	76	1
71	100	1
121	121	3
14	15	1
188	188	2
58	61	2
178	184	1
55	86	1
175	175	2
100	101	1
106	107	2
101	102	2
31	33	1
124	128	1
169	186	1
68	171	1
42	127	1
181	182	1
21	28	1
167	167	2
181	181	2
179	180	1
188	189	2
124	124	3
64	65	2
18	18	2
12	13	2
10	40	1
32	34	1
77	78	1
152	155	1
97	122	1
153	183	1
72	97	1
89	90	2
161	161	2
76	88	1
105	113	1
65	66	1
137	137	3
155	156	1
15	16	1
9	9	2
17	17	1
128	150	1
98	98	1
149	179	1
17	34	1
84	85	1
104	105	1
63	66	1
136	165	2
128	156	1
11	12	2
45	47	1
15	15	1
8	47	2
144	146	2
154	155	2
28	30	1
139	141	2
54	56	1
156	173	2
46	59	1
146	151	1
53	57	1
116	121	1
134	137	1
105	112	1
100	129	2
2	7	3
144	176	1
62	62	2
12	29	1
187	188	2
36	37	2
6	32	1
48	48	2
114	115	1
73	73	3
76	77	2
139	140	1
47	71	1
82	83	2
189	190	2
129	154	1
22	22	3
154	175	2
33	37	1
87	89	2
104	127	1
54	54	2
174	174	2
6	10	1
159	159	3
75	76	3
72	98	1
99	111	2
130	130	1
140	159	1
164	185	1
110	170	1
39	39	2
86	86	1
126	128	1
182	188	1
80	86	1
149	176	1
178	180	2
4	40	1
3	155	1
111	112	2
86	87	1
82	108	1
28	29	1
120	135	1
4	86	1
100	100	4
62	86	1
108	115	1
155	187	1
44	45	1
54	70	1
139	139	1
64	113	1
37	55	1
122	128	1
165	165	1
58	59	1
77	80	1
91	91	2
81	82	1
123	127	1
131	137	1
61	67	1
61	76	1
16	16	2
114	114	1
106	185	1
16	17	2
116	123	1
105	106	1
74	103	1
136	136	1
87	88	1
53	53	2
58	170	1
70	70	1
17	24	1
92	92	1
109	138	1
176	188	1
42	42	1
41	45	1
8	186	1
35	42	1
144	144	1
1	104	1
165	169	1
4	4	3
16	25	1
22	45	1
111	118	1
67	67	1
17	39	1
176	176	1
111	176	1
10	18	1
75	87	1
11	15	1
137	139	1
33	34	1
14	16	1
81	87	1
106	180	1
31	65	1
159	166	1
157	169	1
102	102	1
180	180	1
92	93	1
23	26	1
0	41	1
103	103	1
5	41	1
17	109	1
25	27	1
71	160	1
95	97	1
10	34	1
72	99	1
52	64	1
30	31	1
104	104	1
141	147	1
99	129	1
25	39	1
87	125	1
140	154	1
