91	91	9
23	80	1
75	75	11
77	78	1
122	122	4
29	36	2
33	34	1
27	37	2
59	62	2
135	135	5
0	0	7
94	94	5
129	129	3
113	113	11
66	66	8
139	139	8
97	97	1
136	137	3
101	101	9
118	119	2
53	53	7
82	118	2
36	51	2
122	123	5
59	59	5
26	26	8
47	48	1
145	145	4
88	88	6
144	145	3
3	4	4
50	66	1
103	103	5
21	21	10
0	2	3
143	143	4
22	22	11
142	142	6
106	107	5
86	86	2
58	59	4
69	69	10
78	78	4
93	94	3
52	72	1
17	17	8
128	128	8
22	25	1
76	78	3
57	81	1
19	21	3
41	41	9
100	100	11
72	72	7
97	98	4
131	132	2
31	33	2
99	99	7
119	120	5
82	82	9
141	141	3
69	76	1
1	1	4
54	54	6
111	111	7
57	94	1
107	107	5
138	138	6
63	65	5
144	144	7
83	83	6
61	62	1
40	127	1
22	61	1
2	2	8
34	34	6
109	135	1
141	142	5
20	20	11
71	106	1
42	42	6
5	5	8
131	131	12
31	31	4
123	124	1
104	104	5
47	47	5
109	122	1
13	14	3
88	89	2
89	89	7
34	35	1
118	118	11
78	122	1
107	110	3
130	130	8
18	18	5
137	138	5
111	137	1
119	137	2
64	64	5
126	126	6
39	39	4
80	80	4
53	54	4
134	134	8
70	71	3
76	76	6
0	1	2
74	78	1
90	90	4
60	60	5
25	70	1
133	133	6
13	34	1
46	46	1
123	123	10
39	73	1
65	80	2
24	24	8
26	104	1
13	13	3
20	21	4
14	15	2
79	79	10
73	73	3
53	122	1
119	135	1
62	62	4
10	10	9
105	105	8
84	85	4
105	106	3
68	68	8
30	37	2
23	23	7
63	63	6
67	67	5
120	120	5
132	132	7
15	15	9
92	92	11
31	32	2
14	39	2
50	50	1
16	16	4
42	47	1
55	55	3
88	90	2
4	5	5
30	31	1
12	12	2
102	102	7
79	80	1
40	40	7
114	115	2
51	67	2
86	125	1
74	106	2
38	48	1
113	131	1
6	6	5
57	71	1
98	99	2
91	92	1
5	6	1
38	38	5
28	28	4
136	139	2
43	43	2
49	50	1
85	89	2
112	112	3
37	37	6
11	11	6
106	106	5
99	126	1
32	58	1
39	77	1
92	103	1
117	117	4
48	48	9
73	74	2
119	119	5
15	16	1
2	3	5
118	126	1
68	116	1
17	19	1
62	91	2
52	52	2
23	24	3
27	27	6
26	27	1
91	128	1
109	112	3
74	77	1
49	49	2
87	87	7
140	140	5
124	124	6
36	36	7
73	75	1
64	85	2
70	70	9
20	22	1
68	89	3
50	52	1
90	91	2
83	90	1
56	56	4
22	23	1
48	53	1
67	68	5
136	136	8
1	36	1
35	35	7
130	133	1
30	30	9
100	102	1
12	40	1
109	110	2
110	112	1
109	111	1
118	136	1
14	16	1
8	8	6
57	58	5
70	72	4
93	93	6
5	24	1
139	140	5
111	132	1
21	22	1
85	114	1
65	65	4
51	51	5
16	17	1
120	123	1
94	95	3
90	117	1
91	102	1
33	33	6
14	14	3
32	32	4
114	137	1
143	144	1
85	85	5
137	139	2
125	125	8
53	72	1
74	80	1
74	116	1
66	82	2
8	108	1
54	55	3
58	58	4
124	125	3
127	127	9
30	32	1
132	133	1
84	84	2
62	69	1
92	105	2
60	61	2
1	24	1
95	96	2
40	42	1
110	110	4
29	41	1
27	98	1
10	42	1
134	135	2
87	89	2
66	67	4
47	61	1
48	49	1
77	79	3
120	133	1
96	97	2
105	110	1
89	90	1
108	108	3
111	116	2
133	137	1
41	42	2
95	95	6
96	96	3
128	130	1
70	73	1
39	40	1
82	87	1
41	60	2
96	103	1
74	74	2
33	35	1
96	98	1
38	63	1
53	56	1
76	79	1
42	66	1
25	25	7
105	133	1
3	3	6
112	114	1
135	137	2
146	146	2
1	41	1
98	98	4
8	9	1
27	28	1
57	57	4
22	30	2
115	118	1
56	58	1
86	87	1
126	128	2
19	19	6
120	121	1
123	125	1
18	19	1
142	143	4
98	100	1
32	92	1
111	139	1
105	107	3
135	136	2
74	94	2
121	122	2
81	81	4
69	85	1
31	81	1
40	123	1
101	125	1
116	116	3
115	115	3
92	96	1
25	26	3
116	117	2
48	56	1
125	128	2
98	101	2
24	33	1
49	52	1
137	137	2
34	36	1
105	111	1
122	133	1
61	67	1
89	122	1
123	136	1
9	10	2
29	29	7
117	118	1
23	25	2
104	105	1
12	33	1
74	95	1
86	91	1
38	39	1
74	131	1
50	56	1
128	129	4
112	113	1
8	11	1
65	90	1
78	79	1
51	52	2
111	113	1
36	37	1
114	119	1
116	118	1
0	9	1
50	67	1
56	74	1
121	121	3
108	110	1
130	131	2
36	40	1
27	41	1
50	93	1
117	134	1
126	127	1
70	93	1
30	56	1
60	66	1
81	131	2
80	81	1
46	47	1
134	139	1
50	51	1
109	109	3
71	71	2
38	42	1
61	61	2
115	116	2
100	101	1
138	139	1
16	18	1
72	114	1
77	77	4
136	138	1
26	67	1
48	94	2
102	106	1
83	84	1
53	55	1
1	2	1
125	126	2
81	82	2
108	109	1
12	30	1
110	111	1
35	47	1
35	36	1
80	106	2
52	63	1
72	73	3
63	68	1
91	95	1
130	141	1
85	86	1
50	54	1
7	12	1
62	75	1
86	116	1
49	53	1
39	62	1
107	140	1
3	5	1
4	4	1
3	6	1
63	115	1
116	127	1
69	70	3
92	118	1
68	72	1
50	57	1
61	63	1
66	84	1
102	133	1
19	25	1
56	61	1
73	79	1
28	41	1
106	131	1
121	124	1
140	141	1
134	142	1
26	32	1
4	13	1
145	146	1
97	120	1
92	93	1
33	38	1
67	74	1
47	80	1
22	28	1
74	79	1
62	80	1
127	142	1
2	30	1
32	73	1
81	118	1
9	9	1
67	70	1
