22	23	1
130	130	2
188	188	6
195	195	3
15	15	2
1	3	2
148	164	1
9	9	6
177	177	2
31	31	3
89	89	2
156	157	2
139	149	2
52	52	1
108	110	1
1	1	2
5	8	3
73	75	2
118	119	1
128	128	5
173	173	5
29	29	1
25	28	1
10	10	3
158	159	1
3	23	1
24	24	3
171	171	2
116	144	2
136	136	2
56	63	1
155	157	2
181	182	1
96	96	1
187	187	2
188	190	1
94	94	2
4	4	4
135	169	1
116	116	1
168	168	2
46	103	1
37	37	4
176	178	3
57	57	2
118	118	2
12	13	2
102	103	1
17	31	1
141	141	3
154	160	1
82	85	1
182	187	1
109	111	1
194	194	2
88	88	1
58	58	1
35	35	5
167	168	4
146	153	2
165	167	1
68	68	1
43	43	2
180	180	2
62	65	1
79	79	1
159	160	1
9	44	1
146	149	1
61	123	2
175	178	1
33	42	1
16	16	2
54	54	2
176	177	2
151	152	1
98	98	1
31	32	1
78	83	2
17	24	3
16	23	1
17	17	2
63	63	1
125	125	3
50	50	1
43	45	1
53	53	1
36	36	1
88	90	2
188	189	2
192	193	2
150	151	1
176	182	1
186	187	1
38	38	1
81	85	1
4	5	1
163	181	1
194	195	1
13	13	1
167	167	1
14	14	2
0	1	1
13	15	1
2	3	1
158	158	2
27	27	3
129	131	1
58	64	1
44	44	1
53	141	1
170	170	3
154	154	1
123	123	1
56	67	1
146	147	1
19	19	1
123	170	1
184	184	2
174	174	1
164	189	1
54	70	1
12	64	1
3	8	1
35	36	1
37	44	1
25	25	3
177	186	1
33	33	2
72	73	1
149	149	1
72	72	1
48	48	2
179	180	1
135	135	1
96	102	1
112	113	2
39	39	2
152	152	2
103	104	1
58	60	1
58	59	1
184	195	1
8	38	1
80	85	2
26	30	1
73	73	1
187	192	1
166	166	1
172	172	1
26	26	1
160	160	1
53	99	1
179	179	1
197	197	1
147	148	1
183	183	1
56	58	1
88	89	1
71	72	1
179	181	1
45	45	1
148	149	1
83	84	1
40	40	1
115	115	1
105	106	1
120	120	1
155	155	2
42	42	1
157	157	1
33	38	1
8	12	1
146	146	1
49	49	1
185	185	1
150	150	1
64	64	1
10	14	1
151	153	1
186	186	1
174	175	1
159	189	1
40	42	1
173	174	3
61	61	1
156	187	1
18	22	1
164	164	1
6	25	1
33	37	1
145	169	2
167	179	1
2	28	1
151	151	1
67	69	1
193	193	1
125	156	1
136	137	1
152	154	1
190	190	1
129	132	1
145	147	1
54	59	2
33	41	1
22	22	1
98	121	1
124	124	1
28	30	1
4	138	1
41	41	1
15	16	1
129	130	1
145	145	1
32	32	1
53	149	1
187	188	1
47	47	1
142	142	2
7	7	1
70	71	1
8	8	1
102	106	1
