75	75	2
78	78	5
58	59	1
40	40	7
108	108	4
81	81	6
71	71	3
76	76	3
74	75	1
36	36	4
63	109	1
94	113	1
23	23	2
107	107	4
43	43	3
79	79	4
81	92	2
26	26	5
30	30	3
50	51	1
95	95	4
69	72	3
87	87	2
91	91	19
98	98	5
26	27	1
57	57	1
74	74	6
43	99	1
42	42	7
93	93	11
22	23	1
90	91	8
77	77	4
93	108	2
27	27	5
84	85	2
22	22	7
38	38	3
67	77	1
100	100	8
69	70	3
91	92	6
20	21	1
47	47	11
80	97	1
87	93	1
21	21	4
35	35	5
96	96	4
72	103	1
73	73	2
75	77	2
49	51	1
92	93	4
28	28	2
79	80	1
45	45	2
30	31	3
90	92	3
49	49	6
36	37	1
21	22	1
63	63	2
46	46	3
85	85	2
42	43	1
95	97	1
39	39	7
55	55	5
104	104	4
32	33	3
67	67	6
92	92	4
71	93	1
104	105	3
109	111	2
29	29	2
33	35	1
60	60	3
70	70	2
65	65	3
90	93	1
29	30	1
92	105	1
103	106	1
48	48	3
28	52	1
102	102	5
112	113	1
25	25	4
70	71	1
23	24	3
44	44	3
38	54	1
57	58	1
101	104	1
83	83	4
114	114	3
64	87	1
94	94	1
54	54	3
51	51	5
83	86	2
101	101	7
81	91	1
32	32	3
63	65	1
62	62	2
101	103	1
113	114	2
103	104	2
99	111	1
111	111	1
34	34	3
47	64	1
53	53	3
31	31	6
42	50	1
22	104	1
64	80	1
57	59	2
63	66	1
52	52	3
95	96	2
105	106	2
68	69	3
29	59	1
44	62	1
25	99	1
54	55	1
23	27	2
41	41	3
113	113	5
37	40	3
40	94	1
93	94	1
72	105	1
67	70	1
93	95	1
82	85	1
110	111	2
24	24	2
44	92	1
86	90	1
79	100	1
26	33	1
69	69	3
85	87	1
110	110	8
68	68	3
43	46	1
40	41	1
81	108	1
91	93	3
99	99	3
25	26	2
54	66	1
108	110	1
56	59	1
108	109	2
58	58	5
19	45	1
80	81	2
79	103	2
84	84	3
76	77	1
72	72	1
41	46	1
89	89	2
29	61	1
88	88	1
89	91	2
90	90	4
49	70	1
75	76	1
107	113	1
67	73	1
80	80	2
61	61	2
38	40	1
80	96	1
81	103	1
47	48	2
86	89	1
23	53	1
69	91	1
48	49	2
106	106	3
31	33	1
66	79	1
42	59	1
20	20	2
98	99	1
20	42	1
82	86	1
104	107	1
56	91	1
109	110	1
41	80	1
65	109	1
93	110	1
91	94	1
97	97	1
33	33	1
62	63	1
83	98	1
49	113	2
50	52	1
101	102	1
37	37	2
40	42	1
49	64	2
64	65	1
55	57	1
66	67	1
91	95	1
56	56	1
35	36	1
106	107	1
85	101	1
37	38	1
29	32	1
53	100	1
82	82	1
38	61	1
65	66	1
112	112	2
102	106	1
111	112	1
59	111	1
28	67	1
50	50	2
33	37	1
66	99	1
81	82	1
88	89	1
56	57	1
30	32	1
100	101	1
28	61	1
72	73	1
26	50	1
82	83	1
42	66	1
55	56	1
73	100	1
109	109	1
