2	2	3
53	56	1
183	183	7
41	41	4
63	63	2
174	174	6
163	182	1
153	153	7
86	86	3
142	142	2
106	106	7
71	72	1
158	158	3
39	39	4
148	148	7
30	69	1
121	122	2
133	134	3
135	135	2
27	27	4
14	14	2
86	109	1
67	134	1
11	11	6
41	69	1
76	103	2
150	150	3
37	38	1
157	157	3
67	67	5
179	179	6
163	163	3
38	38	6
74	75	1
120	131	1
102	121	2
58	59	2
97	97	3
141	145	1
47	85	2
29	29	8
13	13	2
55	69	1
84	84	5
163	165	1
218	218	4
22	23	4
68	68	3
127	153	1
220	220	3
110	110	4
170	171	3
207	207	6
168	168	5
8	9	1
12	12	5
109	109	4
171	171	9
186	186	3
12	13	2
173	174	3
69	69	2
61	61	5
108	108	2
87	101	1
80	80	2
152	152	2
177	177	5
26	172	2
49	49	1
48	55	1
113	113	3
85	85	3
198	201	3
11	15	1
206	209	1
33	33	1
31	31	8
203	204	1
210	212	1
161	165	1
19	19	2
210	210	2
198	198	3
234	234	3
155	155	1
240	240	3
9	9	6
126	126	4
95	95	3
120	120	4
77	78	2
107	119	1
17	17	6
22	22	2
98	111	1
169	183	1
101	101	4
55	55	1
134	135	1
209	209	4
127	133	1
107	107	2
169	171	1
190	190	5
96	111	1
177	178	1
62	62	4
116	116	2
71	102	1
119	119	11
31	38	1
189	189	1
153	181	1
46	46	3
82	82	3
3	37	1
48	54	1
56	56	4
37	151	2
64	72	2
136	140	1
104	104	2
134	134	3
127	127	2
42	44	1
187	187	4
232	233	2
161	161	4
123	123	1
225	225	2
25	25	5
166	166	4
60	60	3
149	149	7
15	15	4
154	163	1
163	164	4
55	56	3
131	145	2
65	65	2
27	115	1
206	206	2
46	50	2
70	70	1
230	231	3
79	105	1
131	131	2
64	65	1
136	136	4
139	187	5
60	71	1
145	145	3
45	68	1
37	37	4
43	43	6
204	204	2
151	178	1
54	54	2
173	173	3
51	51	3
159	159	5
225	229	1
26	26	1
42	42	2
128	128	3
111	111	1
191	191	2
221	221	1
46	47	1
75	80	1
138	140	2
212	212	2
208	209	1
0	12	1
179	180	2
77	77	4
2	20	1
202	202	3
74	74	2
24	24	1
169	169	1
129	129	2
157	158	3
48	48	1
141	142	2
46	55	1
170	170	3
86	92	1
100	233	1
42	43	1
20	20	4
20	53	1
58	58	1
224	224	3
186	187	3
137	137	2
154	154	4
159	181	2
128	135	1
175	175	4
95	151	1
192	197	1
51	53	2
33	42	1
173	176	1
28	33	1
121	121	1
102	129	1
178	179	1
29	46	1
233	233	4
10	11	1
73	73	2
100	100	3
143	146	1
127	152	1
4	16	1
9	11	1
238	238	1
30	30	1
108	146	1
11	44	1
114	114	4
99	100	1
21	21	2
45	45	3
44	44	1
17	18	1
174	178	1
10	10	2
154	182	1
218	220	1
44	75	2
139	140	2
203	203	1
146	177	1
115	115	1
57	58	1
36	36	1
66	66	3
4	34	1
7	7	2
165	165	3
219	219	1
71	71	9
80	194	1
130	153	1
55	57	1
133	133	2
145	146	1
241	241	3
172	172	2
80	105	2
12	15	1
164	164	3
105	105	2
65	75	1
215	215	3
165	230	1
125	126	1
79	79	2
146	146	2
15	35	1
181	181	2
64	64	3
152	160	1
8	20	1
188	188	2
63	69	1
162	204	2
140	177	1
216	231	1
57	57	2
50	50	2
82	149	1
217	218	1
170	177	1
106	159	1
174	175	1
175	176	1
158	183	1
37	54	1
16	16	2
175	178	1
6	6	2
166	218	2
66	67	1
200	200	3
176	178	2
224	226	1
51	58	1
107	108	1
138	138	2
27	28	1
106	121	1
101	238	1
184	187	1
205	209	2
72	72	4
96	96	1
225	226	2
160	162	3
27	64	1
197	215	1
122	122	2
193	193	1
205	223	1
125	125	1
61	102	1
229	229	2
75	75	3
227	227	4
9	10	2
131	136	1
47	86	1
88	88	2
29	44	1
199	199	1
152	154	1
24	39	1
73	74	1
48	74	1
166	228	1
192	192	4
139	139	3
150	151	2
1	67	1
64	172	1
35	182	1
23	23	1
45	65	1
183	188	2
235	235	3
226	226	1
82	83	2
175	177	1
102	102	1
31	32	1
220	221	1
114	128	1
167	167	1
99	99	1
102	103	2
13	15	1
3	39	1
101	121	2
217	217	2
182	184	3
1	66	1
232	232	2
18	34	1
228	230	1
117	118	1
37	62	1
242	242	1
236	237	1
135	155	1
47	47	3
118	147	1
100	101	1
102	105	1
170	172	1
89	169	1
200	219	1
106	120	1
109	119	1
126	134	1
60	64	1
17	48	1
4	4	1
182	182	3
196	197	1
28	28	3
1	6	1
215	222	1
33	39	1
26	28	1
161	188	1
209	210	3
203	208	1
144	148	1
137	138	1
176	176	2
129	133	1
151	151	2
69	72	2
97	109	1
213	213	2
200	216	1
208	208	2
223	231	1
67	176	1
112	178	1
8	203	2
129	159	1
144	144	3
98	100	2
34	34	1
224	230	1
62	75	1
29	30	2
157	160	1
171	172	1
38	48	2
11	12	2
150	152	1
41	56	1
134	140	1
211	211	1
60	152	1
8	155	1
29	31	1
5	5	2
57	59	1
160	160	3
100	119	1
140	142	1
118	118	2
178	178	1
226	227	1
40	41	1
29	47	1
53	53	2
60	179	1
79	80	1
62	71	1
32	37	1
155	159	1
175	182	1
24	42	1
193	209	1
101	232	2
69	108	1
19	50	1
86	95	1
14	15	1
98	168	1
222	222	1
56	60	1
228	228	1
60	175	1
18	18	1
142	143	3
239	240	1
241	242	1
199	200	1
162	162	1
154	157	1
216	217	1
133	152	1
125	141	1
26	29	1
98	98	1
182	183	1
147	166	1
21	34	1
192	193	1
225	228	1
201	218	1
85	86	1
123	124	1
201	201	1
83	83	1
15	16	2
160	180	1
180	180	1
172	201	1
136	170	1
231	232	1
141	146	1
107	136	2
5	7	1
130	130	1
43	173	1
146	227	1
1	1	1
124	124	1
156	157	1
136	137	1
147	148	1
87	88	1
152	153	1
127	137	1
109	110	1
148	149	1
6	206	1
22	31	1
79	82	1
0	0	1
81	82	1
23	29	1
55	191	1
237	237	2
7	8	1
0	34	1
127	135	1
149	150	1
81	81	1
185	185	1
51	52	1
224	228	1
151	152	1
133	150	1
