76	76	4
112	112	1
28	28	6
25	25	2
86	86	5
132	132	2
113	129	2
12	62	1
53	93	1
69	70	2
64	64	4
49	49	3
29	29	4
73	73	7
0	0	2
8	8	4
85	86	2
85	85	6
5	5	1
131	131	4
133	133	3
5	6	2
15	33	1
95	95	2
10	11	2
60	60	4
106	106	2
43	65	1
10	10	3
98	98	2
47	49	2
110	110	2
20	20	2
104	104	2
103	125	1
53	54	1
6	6	2
72	72	7
101	102	1
7	11	1
62	62	4
22	27	2
33	33	2
30	30	2
32	74	1
43	43	2
9	10	1
9	11	1
80	80	6
80	92	1
89	94	1
110	113	1
31	31	2
20	78	1
4	4	6
73	99	1
84	84	1
77	78	1
1	1	3
99	99	1
70	70	4
30	32	2
3	3	2
122	122	2
97	122	1
22	22	3
108	111	1
44	47	1
58	58	1
45	45	3
130	130	3
73	103	1
2	34	1
11	11	2
70	80	1
77	77	4
112	129	1
14	14	3
79	79	3
94	94	1
34	53	1
125	125	3
97	98	1
14	28	1
15	15	2
125	131	1
27	79	1
34	34	1
64	65	2
49	104	1
79	80	2
12	12	1
0	3	1
66	67	2
15	16	1
97	97	3
21	22	1
123	123	1
109	125	1
116	118	1
34	35	1
113	113	1
53	58	2
63	66	1
21	27	2
92	92	3
124	124	2
112	114	1
120	120	1
6	7	1
62	63	1
128	129	1
59	59	2
117	117	1
92	113	1
24	25	2
109	109	2
83	83	2
71	119	1
25	28	1
101	101	1
25	35	1
116	116	1
105	106	2
88	88	2
57	58	2
11	12	3
8	10	1
62	126	1
21	21	2
91	91	1
20	22	2
74	102	1
18	18	1
27	27	1
59	61	1
91	110	1
2	8	1
38	38	1
56	58	1
86	87	1
89	89	1
74	74	1
17	28	1
4	27	1
87	87	2
66	66	3
72	73	1
87	89	1
8	16	1
8	27	1
60	62	1
16	16	1
131	132	1
111	112	2
22	23	1
91	92	1
35	35	2
3	5	3
72	80	1
52	52	2
63	63	1
115	115	3
54	54	1
128	130	1
66	69	1
71	71	1
112	113	2
65	67	1
53	53	1
50	62	2
114	114	1
43	81	1
49	74	1
75	77	1
78	78	1
73	74	2
98	104	1
2	2	2
36	42	1
68	68	1
31	36	1
100	100	1
81	81	2
82	82	1
50	60	1
16	31	1
15	30	1
55	55	1
55	61	1
84	106	1
46	71	1
50	50	2
63	124	1
9	9	1
17	17	1
119	125	1
49	79	1
75	75	1
93	93	2
119	120	1
67	67	1
126	126	1
99	101	1
58	59	1
22	72	1
61	61	1
19	19	1
12	15	1
43	86	1
35	37	1
74	75	1
65	69	1
56	68	1
74	120	1
