111	114	1
75	75	1
105	105	1
56	56	3
2	140	2
90	90	1
64	79	1
166	168	1
64	73	2
41	41	5
94	95	1
33	109	2
165	165	3
145	145	4
45	45	4
3	6	3
91	91	2
163	163	2
54	54	3
77	82	2
33	34	1
2	11	1
22	24	2
170	170	1
13	14	3
40	40	4
71	71	3
86	86	1
12	13	3
162	162	2
117	118	1
79	82	2
125	125	2
25	25	3
111	131	1
50	50	1
130	152	1
160	160	1
52	105	1
125	129	1
107	107	1
147	147	5
3	3	6
103	103	3
110	112	1
167	169	2
133	133	1
106	106	2
52	52	5
35	108	1
37	38	1
144	147	1
17	57	1
136	136	5
52	56	1
130	130	3
53	53	3
48	54	1
119	120	1
160	164	1
116	116	1
35	37	1
8	10	1
3	7	3
114	114	1
141	142	1
47	54	1
49	49	4
20	25	1
43	43	3
41	56	1
137	168	1
134	134	1
155	155	2
9	9	3
112	133	1
40	41	1
5	5	1
35	35	4
14	14	4
2	151	2
151	151	3
117	119	1
108	109	3
67	67	1
96	96	2
36	36	4
146	147	1
41	79	1
56	58	1
37	49	1
143	143	4
95	95	2
89	89	2
13	13	2
4	11	1
100	101	1
84	84	3
17	17	3
169	169	3
72	72	2
8	9	1
138	140	1
132	132	2
74	75	2
113	145	1
124	125	2
65	67	1
153	154	1
167	167	4
33	33	2
57	58	1
38	43	1
112	126	1
140	143	1
11	125	1
2	7	2
164	164	5
168	168	1
11	11	3
108	108	3
64	65	1
146	162	1
5	26	1
113	113	5
101	102	1
68	69	1
154	154	2
48	49	1
1	1	4
149	149	2
36	38	2
116	120	1
115	116	1
124	124	2
11	16	1
41	141	1
131	132	3
71	92	1
19	20	1
45	49	1
132	140	1
140	140	1
43	44	3
126	127	1
81	88	2
10	10	1
18	99	1
142	142	1
138	139	1
132	135	2
46	46	2
124	129	1
125	137	1
38	38	5
155	156	1
123	140	2
148	167	1
109	109	2
111	111	1
26	28	1
131	133	1
104	104	1
101	101	3
74	74	2
1	24	1
62	62	2
4	4	4
57	57	3
9	10	1
156	157	1
161	161	1
122	168	1
18	19	2
16	16	2
121	122	1
38	41	1
119	119	1
124	126	1
95	98	1
147	160	1
8	8	2
26	26	2
0	0	1
110	110	2
141	141	2
58	115	2
39	39	3
98	98	1
112	121	1
69	70	1
158	162	1
118	132	1
153	153	1
152	155	1
8	11	1
100	110	1
156	156	1
73	74	1
154	158	1
148	169	1
123	124	1
137	158	2
118	118	1
139	140	1
137	137	2
161	164	1
151	153	1
18	43	1
48	65	1
131	131	1
84	86	1
135	135	1
93	113	1
75	76	2
20	35	1
53	89	1
15	15	3
163	165	1
3	37	1
78	79	1
51	51	1
5	6	3
154	169	1
144	144	1
42	42	3
24	25	1
44	44	1
112	161	1
76	76	2
146	165	1
82	82	2
46	47	1
12	12	2
87	87	1
112	112	1
94	94	2
11	12	1
90	91	1
34	34	3
62	63	1
99	99	1
3	4	3
35	41	1
166	167	1
136	137	1
145	146	1
84	85	1
5	36	1
120	128	2
168	169	2
130	131	1
117	117	1
55	55	1
84	112	1
137	149	1
124	141	1
139	139	1
16	96	1
6	6	3
80	80	2
64	85	1
138	138	1
83	85	2
132	165	1
121	121	1
129	130	1
76	77	1
88	90	1
62	95	1
74	101	1
22	49	1
106	150	1
143	147	1
100	148	1
95	126	1
27	27	2
152	152	1
18	18	1
3	5	1
151	159	1
7	7	1
24	41	1
49	50	2
5	170	1
63	63	1
77	78	1
166	166	1
130	140	1
