95	95	5
76	83	1
100	100	1
23	41	1
133	134	1
122	122	5
75	77	1
70	70	3
85	112	1
74	81	1
88	88	3
145	146	1
41	51	2
58	60	1
130	130	4
130	131	2
6	6	5
49	49	3
53	53	3
55	55	4
63	63	6
106	106	3
134	135	1
17	18	1
29	106	1
3	62	1
2	49	1
94	94	2
99	99	2
61	61	3
80	80	2
130	141	1
43	43	3
66	68	2
14	14	3
83	83	1
104	104	1
127	127	3
144	144	5
38	38	6
16	16	3
9	9	3
64	64	3
109	109	3
28	94	2
33	33	1
98	98	2
109	137	1
101	125	1
42	42	3
28	28	4
105	105	2
55	56	2
30	42	1
63	64	1
107	108	2
12	12	4
59	62	1
4	4	3
121	122	1
13	15	1
126	126	3
17	20	1
113	114	1
18	18	1
129	130	2
117	117	4
35	35	3
111	112	2
34	55	1
120	120	3
50	50	1
32	32	1
37	40	2
107	107	3
77	77	1
22	23	2
4	34	1
58	66	2
29	29	1
50	51	1
10	19	1
137	137	5
129	129	2
79	80	1
8	8	4
24	24	3
2	2	3
26	26	3
36	61	1
141	141	4
59	59	5
51	52	1
20	20	3
88	131	1
23	26	1
48	61	1
74	75	1
117	126	1
146	146	1
81	110	1
123	134	1
75	75	4
123	123	2
17	30	1
101	101	2
121	125	1
20	21	2
37	59	2
31	32	1
104	105	2
92	93	1
27	27	3
84	87	2
101	103	1
25	25	2
25	26	1
66	66	3
103	126	2
111	111	3
21	21	1
14	17	1
137	138	1
88	104	1
36	37	1
80	85	2
52	53	1
124	124	2
111	114	2
50	52	2
22	133	1
62	63	2
141	142	3
71	73	1
32	40	1
74	99	1
98	101	1
72	72	1
58	58	2
78	84	1
127	132	2
36	36	2
91	106	1
76	78	2
23	129	1
55	57	2
87	89	1
88	113	1
3	3	1
15	15	2
9	10	1
1	1	3
23	23	3
88	89	1
103	103	4
124	127	1
134	134	2
25	34	3
48	48	6
119	120	2
3	4	1
131	132	2
119	119	2
71	71	1
82	82	3
53	54	2
3	24	1
74	74	2
81	101	1
30	30	2
28	29	1
135	135	2
41	96	1
116	117	2
54	59	1
133	133	3
56	56	3
96	96	1
125	126	2
84	85	1
75	76	1
120	127	1
83	85	1
10	57	1
66	67	1
19	19	1
120	121	1
126	134	1
22	22	3
65	66	1
78	78	3
108	108	1
68	70	1
86	86	1
1	41	1
118	119	1
143	143	2
20	49	1
0	0	1
69	69	1
37	50	1
82	106	1
135	137	1
56	79	1
105	106	1
135	139	1
52	85	1
102	103	1
70	110	1
29	101	1
64	71	1
60	88	1
86	87	1
77	78	2
140	140	1
42	67	1
110	110	1
125	141	1
128	128	2
95	101	1
67	68	1
93	94	2
131	131	1
90	90	1
105	116	1
118	118	3
1	28	1
40	113	1
105	107	1
104	118	1
3	5	1
76	76	1
83	84	1
41	41	1
41	42	2
36	39	1
99	102	1
110	115	1
139	140	1
97	97	3
106	107	1
54	60	1
33	139	1
65	70	1
89	103	1
121	121	2
92	94	1
12	65	1
109	111	1
83	89	2
138	138	1
93	93	1
2	131	2
113	118	2
42	99	1
104	141	1
26	116	1
69	70	1
114	132	1
99	100	2
10	27	1
31	33	1
39	39	1
67	67	1
28	101	1
127	128	1
47	50	1
126	131	1
81	81	1
58	68	1
72	88	1
57	67	1
64	69	1
23	30	1
78	79	1
134	139	1
56	58	1
78	82	1
60	60	1
33	34	1
52	52	1
110	120	1
10	10	1
69	104	1
