102	102	5
190	192	1
170	170	3
46	46	6
10	32	1
79	79	3
77	78	2
148	148	2
146	146	5
171	171	2
27	32	1
114	114	4
99	99	4
119	120	3
203	205	2
119	161	1
26	69	1
6	12	1
26	26	2
224	227	2
21	21	4
208	211	1
159	170	3
27	128	1
150	150	2
156	156	4
106	107	1
113	113	3
6	6	2
184	184	5
218	222	1
33	39	1
39	39	4
3	3	4
74	75	1
169	171	1
110	117	1
59	60	2
13	28	2
148	161	1
5	7	1
211	237	2
119	126	2
157	157	6
15	15	2
62	62	3
165	165	4
1	2	1
18	18	1
232	232	2
167	167	3
221	221	1
11	15	1
80	80	4
10	11	1
33	33	4
26	32	1
14	14	1
30	30	3
111	111	1
4	8	1
40	41	4
151	154	2
70	98	1
70	78	1
37	37	2
98	99	1
178	178	5
32	32	3
155	160	1
172	172	4
120	120	3
155	156	2
104	110	1
30	31	1
122	125	1
205	220	1
125	127	2
127	149	2
133	133	1
0	29	2
167	168	3
220	220	1
65	66	1
55	84	1
144	162	1
174	174	7
116	123	1
180	181	3
45	58	1
28	30	1
120	121	2
22	22	5
200	210	1
74	74	8
115	117	2
203	204	2
144	156	1
50	50	3
144	166	1
59	62	1
219	219	1
31	33	2
178	180	1
55	56	1
73	74	2
152	174	1
101	101	3
18	20	2
58	58	2
242	242	2
42	42	2
151	151	4
213	218	2
40	44	1
222	222	3
152	153	1
191	198	1
109	109	6
45	45	1
2	2	4
163	187	1
24	24	5
135	145	1
193	193	2
10	158	1
51	53	2
26	33	1
116	120	1
183	183	2
223	223	4
19	19	4
41	41	2
182	182	3
239	239	3
11	11	2
60	70	2
134	166	1
60	179	2
29	42	2
117	117	5
155	155	5
113	152	1
128	129	2
4	4	7
219	224	1
217	218	1
129	136	2
164	165	2
64	64	2
218	218	1
115	115	3
27	27	5
153	153	2
54	55	1
229	241	1
84	85	1
4	5	1
134	134	2
122	135	1
34	35	1
230	230	1
220	222	2
217	217	3
57	57	1
36	36	2
68	68	2
50	61	1
119	119	1
42	49	2
181	182	1
23	48	1
29	29	3
16	16	4
109	113	1
227	227	2
116	116	2
162	166	2
237	238	1
83	83	2
4	21	1
81	81	1
96	96	2
126	134	1
202	203	1
171	172	2
148	177	1
0	12	1
33	49	1
191	191	1
121	122	2
161	166	1
149	149	5
142	143	2
219	220	2
168	169	2
151	153	2
82	83	2
205	216	1
171	175	1
53	55	1
180	182	1
12	16	1
31	32	2
226	226	1
173	174	1
63	63	2
137	143	2
105	105	6
0	7	1
19	20	2
107	108	1
10	10	2
215	216	3
33	37	1
195	228	1
167	171	2
235	235	3
107	116	1
108	123	1
32	38	1
24	26	1
213	213	3
136	137	1
70	71	4
206	218	1
95	95	1
29	31	2
53	53	2
110	110	5
74	86	1
168	168	1
143	143	2
199	199	3
136	136	3
38	38	3
80	178	1
177	179	1
241	241	2
18	19	2
207	207	2
66	67	1
82	86	1
223	224	1
61	61	3
173	173	2
147	147	1
66	66	1
73	73	4
217	239	1
156	163	3
101	118	1
82	82	2
78	78	1
158	158	3
69	69	2
161	172	1
164	175	1
218	219	2
124	185	1
105	109	1
196	196	1
159	159	2
160	163	1
11	23	1
130	130	1
162	164	1
157	165	1
8	8	4
159	160	2
133	134	1
122	122	3
127	128	1
220	223	1
25	33	1
152	152	3
21	22	1
216	217	2
99	106	1
173	196	1
156	171	2
150	151	1
88	88	2
162	165	2
8	21	2
28	28	1
61	62	2
10	16	1
45	46	1
232	242	1
199	207	1
212	212	3
66	75	1
148	151	1
98	98	2
13	14	2
41	42	1
3	5	1
42	54	2
6	7	1
7	8	2
237	237	1
145	145	4
232	238	1
225	225	1
40	40	2
174	175	3
100	113	1
156	157	3
127	127	3
127	160	1
160	160	2
145	147	2
228	230	1
134	136	2
20	21	3
17	21	1
63	225	1
211	211	1
127	130	1
123	125	2
145	167	1
185	189	1
115	116	1
23	38	1
166	166	1
195	227	1
194	195	1
230	241	2
17	19	2
129	129	5
157	162	2
119	127	1
112	126	2
224	224	1
198	200	4
57	61	2
39	49	1
126	126	2
142	142	3
37	38	2
63	65	1
30	185	1
135	135	1
163	165	1
8	9	1
85	85	4
184	185	2
196	197	1
48	48	3
189	190	1
228	228	2
65	75	1
140	141	1
180	180	2
182	186	1
128	138	1
142	145	1
166	168	1
52	53	1
122	126	1
21	23	2
170	174	1
2	6	1
195	217	2
141	149	1
105	143	1
113	167	1
152	234	1
241	242	2
122	123	1
118	118	2
92	144	1
238	239	1
180	183	3
179	186	2
105	108	1
123	126	2
31	31	1
179	181	1
32	74	1
209	209	1
195	204	1
217	233	1
58	62	1
125	125	2
39	40	1
170	171	1
216	226	1
162	162	2
114	119	1
153	207	1
112	113	1
91	91	1
71	72	1
220	221	1
154	154	1
63	64	1
69	70	1
207	208	1
55	55	4
42	192	1
159	171	1
229	229	1
46	48	1
5	5	2
159	169	1
197	197	1
201	203	1
23	25	1
17	22	2
74	83	2
106	106	2
148	178	1
64	65	3
48	95	1
119	121	1
236	237	1
145	146	1
70	70	1
157	166	1
75	75	1
147	149	1
64	152	1
234	235	1
157	172	2
126	130	1
149	154	1
65	68	1
126	132	1
112	238	1
166	167	3
168	176	1
35	36	2
6	25	2
137	137	2
198	204	1
58	63	1
143	163	1
33	36	1
52	52	1
208	208	1
117	126	1
237	241	1
100	105	1
154	156	1
9	26	1
160	165	1
175	175	1
104	104	1
100	100	2
236	240	1
47	48	1
148	155	1
205	208	2
238	238	1
163	167	1
45	97	1
48	61	1
236	236	3
158	159	2
67	79	1
0	0	1
103	104	1
26	71	1
16	17	1
74	79	1
152	157	1
8	22	1
103	103	2
84	84	1
186	186	1
60	72	1
102	103	1
184	187	1
121	121	2
35	37	1
59	59	1
185	185	1
141	161	2
25	26	1
8	11	1
229	230	1
217	225	1
95	96	1
122	124	1
52	199	1
159	176	1
86	86	3
102	104	1
27	48	1
182	184	1
177	177	1
51	58	1
180	184	1
103	161	1
80	84	1
42	43	1
61	65	2
97	98	2
32	43	1
15	16	2
43	43	1
153	168	1
10	23	1
20	20	1
8	10	1
205	237	1
9	102	1
85	86	1
44	44	1
81	83	1
128	128	3
208	228	1
31	45	1
166	187	1
137	144	1
215	215	2
78	86	1
171	173	1
202	202	2
49	49	1
186	192	1
1	1	1
29	30	2
62	64	1
206	207	2
138	138	1
11	159	1
51	59	1
240	240	1
44	45	1
58	166	1
169	169	1
150	152	1
47	61	1
25	25	1
113	127	1
125	126	1
54	69	1
132	132	1
176	177	1
96	97	1
240	242	1
122	127	1
239	242	1
123	123	1
35	45	1
68	73	1
59	67	1
187	208	1
140	140	3
202	234	1
43	56	1
47	47	1
0	9	1
182	194	1
21	24	1
141	141	1
72	74	1
9	10	1
160	162	1
149	150	1
144	144	1
104	234	1
139	139	1
193	194	1
228	235	1
28	39	1
211	212	1
163	164	1
131	149	1
178	197	1
23	23	1
134	135	1
15	23	1
15	22	1
12	15	1
65	65	1
161	162	1
151	171	1
64	69	1
