113	141	1
135	139	1
55	56	1
1	13	1
11	12	3
86	87	1
98	98	1
131	132	1
53	53	3
56	58	2
87	87	2
99	99	4
10	12	3
0	0	1
125	126	2
141	150	1
164	183	1
92	93	2
37	37	4
122	123	2
91	91	2
111	113	1
153	153	3
3	3	4
15	15	3
25	26	1
94	94	5
64	65	3
92	92	5
10	10	5
71	71	3
55	61	2
35	35	2
23	23	2
32	34	1
136	137	2
20	20	4
81	82	1
47	62	1
27	27	3
79	79	4
3	5	1
122	122	3
16	16	2
116	116	2
185	185	3
36	46	1
82	86	2
127	127	4
183	184	4
188	188	2
25	28	1
83	84	3
13	13	3
109	111	1
83	99	1
68	81	1
56	56	4
120	122	1
18	20	1
146	146	3
114	122	1
60	62	2
165	165	3
183	183	4
118	131	1
48	83	1
168	168	3
7	8	1
116	122	3
57	60	1
24	24	1
39	84	1
2	2	2
82	89	1
95	95	3
157	160	1
80	80	5
182	182	3
96	109	1
101	106	1
68	68	1
134	134	4
186	186	4
167	170	1
174	176	5
104	107	1
150	189	1
138	139	1
136	138	5
58	58	3
137	138	2
123	124	2
118	118	1
114	116	1
11	11	1
139	140	2
152	152	3
126	137	1
66	67	1
181	181	3
114	115	2
17	57	1
130	131	2
26	26	7
144	156	1
83	92	1
151	151	3
44	45	1
6	7	1
23	43	1
190	190	3
89	89	7
28	34	1
30	31	1
22	22	4
15	17	1
112	131	1
18	18	3
142	142	1
99	100	1
104	104	2
167	167	1
130	130	2
84	86	1
98	103	1
102	103	2
37	43	3
114	114	2
121	121	3
184	187	1
165	166	1
64	64	1
111	111	2
177	183	2
37	39	1
78	79	4
83	86	2
70	70	1
158	158	3
117	129	1
99	111	1
110	110	3
188	189	1
85	114	1
30	44	1
33	63	1
84	85	1
24	26	2
33	33	2
59	59	2
115	119	1
4	4	3
160	172	1
134	135	1
100	101	2
16	18	1
15	16	2
48	48	3
164	190	3
96	103	1
108	110	1
113	113	3
83	83	2
164	164	4
29	29	2
71	74	1
104	106	1
19	21	1
135	135	1
32	32	2
149	149	2
137	168	1
49	49	2
3	4	1
5	5	3
171	172	4
6	6	2
152	163	1
180	181	1
17	18	2
85	111	1
129	129	2
92	94	1
31	31	2
117	117	3
27	28	1
56	57	1
127	128	1
147	170	2
173	173	4
25	25	3
165	176	1
177	179	1
17	19	1
33	34	1
35	36	2
37	38	1
16	24	1
150	151	2
47	47	2
74	74	4
174	184	2
39	40	1
39	42	1
0	1	1
179	182	1
66	66	1
22	23	4
139	139	1
126	128	1
90	90	2
28	28	2
131	131	3
102	102	2
24	37	2
23	85	1
85	86	1
166	166	2
83	87	1
136	173	2
87	88	1
108	108	1
74	75	2
184	184	2
74	88	1
41	41	2
43	43	3
107	107	1
115	117	1
31	84	1
109	114	1
76	87	1
46	46	2
146	150	1
65	65	3
88	89	1
142	166	1
14	189	2
97	98	2
116	117	2
94	125	1
20	27	1
78	82	1
154	154	3
120	120	1
9	15	1
157	183	1
17	26	1
74	76	2
26	37	1
10	26	1
136	141	1
170	170	3
145	177	1
7	7	1
89	90	1
115	124	1
142	145	2
77	77	3
5	23	1
97	130	1
29	138	1
53	104	1
174	174	1
40	46	2
180	186	1
39	39	2
160	163	2
12	25	1
117	134	1
115	115	1
76	76	2
106	106	1
57	57	2
182	183	2
92	103	1
76	97	1
84	84	3
47	73	1
150	159	1
169	170	1
21	21	2
72	75	1
1	40	1
45	45	1
155	155	2
24	25	3
85	89	1
61	62	1
106	111	1
12	168	1
107	113	1
155	171	1
97	97	1
140	140	1
187	187	2
1	2	1
5	6	1
47	48	2
143	143	2
168	171	1
14	14	1
144	148	1
185	187	1
61	65	1
109	109	1
128	129	2
115	118	1
73	73	2
152	157	1
170	172	2
93	93	2
156	156	2
32	37	1
142	143	1
159	159	2
79	81	1
107	108	1
69	69	1
37	47	1
172	172	2
96	97	1
123	126	1
105	114	1
15	40	1
1	16	1
61	61	2
123	127	2
82	85	1
137	137	1
153	154	1
148	163	1
140	145	2
24	34	1
108	115	1
144	145	2
152	164	1
6	53	1
73	74	1
52	84	1
171	171	1
6	11	1
9	9	2
165	177	1
44	44	1
130	135	1
65	66	1
55	57	1
110	120	1
134	138	1
19	19	1
174	177	1
15	31	1
60	61	1
93	94	1
171	173	2
75	75	1
12	12	1
101	101	1
13	159	1
128	139	1
166	169	1
88	88	4
103	107	1
127	145	1
152	153	1
175	176	1
56	79	1
59	60	1
168	175	1
176	176	1
186	187	1
172	182	1
81	99	1
183	185	1
54	73	1
71	72	1
138	173	1
104	105	1
53	54	1
147	156	1
36	37	1
0	11	1
54	54	1
94	97	2
151	160	1
167	173	1
71	92	1
179	186	1
163	163	1
181	182	1
77	100	1
161	161	1
26	48	1
129	134	1
138	154	1
8	11	1
184	185	1
38	38	1
40	45	1
91	92	1
170	180	1
147	159	1
28	39	1
63	73	1
105	115	1
105	106	2
17	31	1
42	42	1
164	178	1
61	98	1
44	85	1
150	150	1
26	28	1
54	70	1
151	156	1
159	160	1
62	68	1
123	132	1
85	85	1
21	22	1
59	62	1
105	107	1
171	185	1
185	186	1
111	135	1
38	44	1
60	60	2
55	55	1
13	26	1
58	59	1
149	150	1
98	99	1
57	65	1
127	166	1
80	103	1
158	170	2
109	110	1
17	17	1
161	162	1
150	163	1
82	82	1
