114	115	2
153	153	8
131	131	6
16	53	2
131	132	2
112	149	2
144	144	9
0	0	3
70	70	7
128	130	1
118	118	9
62	67	1
42	43	6
11	14	3
134	142	1
19	118	1
79	79	5
147	147	6
27	27	11
8	8	3
97	98	2
155	155	11
11	12	2
2	2	4
98	98	11
45	51	1
107	107	12
136	136	9
112	114	2
4	4	7
113	114	3
101	101	10
33	33	9
148	148	8
66	112	1
30	30	10
129	129	8
90	91	2
110	110	4
156	157	2
151	151	11
134	134	17
154	154	14
152	152	20
133	133	9
151	155	1
118	119	1
148	149	5
26	26	3
150	150	14
75	75	13
98	99	2
16	16	8
138	138	12
13	13	4
14	14	6
121	121	7
81	81	5
51	54	1
146	146	9
132	133	3
85	85	4
137	138	5
80	89	3
12	43	1
26	45	1
44	44	6
86	91	2
135	152	1
121	123	2
158	158	9
84	84	5
29	30	2
92	92	10
19	19	7
68	69	3
79	80	2
156	156	8
123	124	2
77	78	3
139	139	8
70	120	1
132	132	14
112	113	2
41	41	7
11	24	1
9	10	4
97	97	5
78	85	3
85	88	1
99	99	13
47	48	3
66	67	4
90	90	10
128	129	1
140	140	11
135	135	7
127	128	2
117	117	14
115	115	7
88	88	10
157	158	6
112	146	1
116	116	11
144	147	2
80	83	2
94	94	7
65	66	4
112	112	13
82	85	2
130	130	8
71	130	1
22	22	6
36	36	10
104	104	8
53	54	4
101	103	1
129	158	1
73	73	8
64	64	7
120	120	12
8	33	1
50	50	6
80	80	7
144	145	2
137	137	14
117	143	1
70	104	3
67	67	8
90	92	1
102	129	1
25	27	1
132	138	1
125	137	1
24	25	2
100	101	1
116	148	1
19	46	1
119	119	3
43	43	5
45	66	1
95	96	1
54	54	8
7	7	3
31	32	5
49	49	2
128	128	10
18	18	5
64	66	2
119	144	2
54	55	3
123	123	10
103	103	6
147	148	2
117	120	3
116	119	2
74	75	1
42	42	8
126	135	1
71	71	16
149	149	3
117	135	3
77	77	6
135	136	3
93	112	1
9	9	5
62	64	1
15	15	5
33	35	2
24	154	1
21	109	1
36	39	2
31	31	12
159	159	2
129	130	2
105	105	6
35	35	6
17	17	6
7	128	1
53	53	4
152	153	1
91	123	2
48	49	1
138	143	1
100	100	5
84	109	1
140	141	6
78	78	7
55	55	5
28	71	1
3	3	9
127	127	13
154	155	1
142	143	4
83	84	3
140	151	1
44	71	1
10	63	1
28	28	3
126	127	7
144	146	7
84	85	2
69	70	4
38	38	5
152	155	2
24	113	1
120	142	1
25	26	5
157	157	13
44	47	2
94	99	2
95	146	1
131	133	2
141	141	8
113	124	1
108	112	1
124	124	6
32	36	2
42	138	1
56	56	4
145	146	2
15	41	1
117	126	1
117	118	3
109	121	1
22	23	4
89	89	4
45	45	6
10	50	2
96	96	8
39	51	1
76	107	1
23	24	7
5	25	1
131	156	1
86	87	3
48	63	1
114	114	2
48	50	1
20	20	5
69	69	7
0	100	2
6	6	7
32	32	4
33	37	1
46	47	2
126	147	1
126	148	1
86	92	1
70	101	2
13	25	2
148	155	3
96	120	1
42	53	2
38	39	1
107	108	5
112	136	1
66	68	2
25	25	9
75	111	1
131	134	2
86	86	5
115	116	4
106	128	2
10	17	2
150	151	4
12	12	8
29	45	1
101	102	2
16	17	3
8	10	3
21	21	5
72	73	1
37	37	6
104	106	1
70	91	3
92	99	1
34	34	4
141	145	1
36	37	3
116	117	1
103	104	1
125	125	3
120	127	1
105	106	5
126	141	1
33	34	1
143	145	2
7	20	1
43	45	1
102	151	1
86	108	2
3	29	1
88	90	3
14	138	1
127	138	1
48	53	1
6	44	1
13	23	1
21	38	2
131	149	1
81	86	1
26	99	2
10	10	3
158	159	1
1	1	5
95	95	2
107	120	1
104	105	3
8	110	1
81	82	2
37	155	1
82	82	4
108	108	5
54	63	1
23	23	4
91	92	5
75	90	1
50	57	2
79	86	1
145	145	3
39	40	2
143	143	4
95	120	1
11	13	2
111	112	6
137	140	2
37	40	2
121	143	1
26	27	2
110	116	1
146	147	7
108	121	1
86	104	2
122	122	11
78	81	1
111	111	5
86	106	1
123	148	1
108	118	1
97	99	1
82	115	1
81	85	1
91	91	5
52	53	1
43	50	1
66	66	2
150	157	1
106	106	7
31	34	1
2	3	1
97	105	1
126	151	1
20	42	1
126	126	6
40	41	3
87	88	2
124	134	1
21	32	2
134	143	1
17	18	1
124	127	1
123	125	1
106	107	4
86	117	1
67	69	1
6	140	1
108	110	1
28	29	1
129	131	1
39	155	1
95	131	1
94	95	2
32	34	1
92	93	5
102	102	2
111	116	1
112	124	1
11	11	2
107	110	1
46	54	2
68	68	7
134	135	2
41	115	1
24	24	2
14	15	2
108	126	1
120	124	1
130	131	3
18	41	1
12	16	2
40	40	4
96	138	1
65	65	7
98	131	1
29	29	5
93	94	1
32	35	1
51	65	1
18	100	2
56	63	2
137	148	1
93	120	1
109	109	2
122	124	1
63	86	1
7	36	2
44	66	1
133	152	1
119	126	1
24	43	1
19	20	1
149	150	1
39	44	1
88	89	1
122	154	1
109	125	1
108	109	2
110	123	2
66	97	2
124	125	1
7	11	3
155	156	3
68	130	1
128	139	1
133	134	1
71	72	1
142	142	6
96	97	1
13	16	1
70	72	1
82	89	2
109	110	4
35	36	1
83	86	1
61	61	1
97	149	1
14	27	1
139	140	5
8	9	2
138	148	1
125	148	1
139	141	1
121	122	2
85	86	1
1	38	1
72	97	1
44	45	3
78	79	2
103	130	1
17	52	1
135	148	1
90	118	1
30	31	2
91	105	1
78	80	1
119	120	2
86	124	1
63	64	1
39	39	3
66	75	1
36	55	1
12	13	3
133	138	2
38	93	1
47	47	2
114	147	1
79	83	1
3	22	1
38	86	1
74	74	2
4	105	2
7	8	3
82	84	2
3	4	1
99	105	1
4	5	1
33	45	1
108	115	1
145	150	1
120	121	4
136	146	1
84	97	1
13	56	2
33	41	1
127	142	2
110	111	2
135	143	1
43	158	1
109	120	1
63	63	1
87	87	4
105	129	1
37	53	1
92	106	1
107	111	1
131	137	1
37	38	1
98	105	1
93	93	3
86	90	2
51	78	1
116	131	1
28	36	3
97	142	1
51	52	1
151	152	2
93	107	2
5	5	3
76	76	1
138	139	1
0	99	1
91	95	1
9	11	1
14	19	1
41	78	1
44	104	1
80	86	1
112	135	1
109	112	1
76	131	1
153	154	1
42	51	1
66	71	1
112	130	2
102	105	1
52	54	1
69	92	1
83	83	2
153	156	1
119	146	1
40	45	1
43	44	1
67	77	1
77	79	2
104	158	1
109	111	1
118	120	1
61	105	1
27	28	1
104	109	1
157	159	1
54	56	1
21	37	1
118	122	1
108	117	1
116	147	2
120	144	1
132	134	1
69	91	1
65	73	1
70	71	1
69	93	1
10	11	1
31	33	1
6	139	1
82	87	1
133	149	1
129	148	1
90	119	1
11	130	1
10	133	1
111	121	1
41	79	1
122	123	1
15	80	1
0	4	1
90	105	1
35	47	2
76	111	1
13	14	1
77	156	1
131	141	1
84	86	1
24	153	1
141	153	1
110	119	1
121	125	1
32	42	1
93	108	1
97	122	1
127	145	1
40	123	1
113	135	2
1	157	1
124	126	1
141	146	1
5	106	1
20	28	1
21	22	1
73	109	1
49	53	1
116	142	1
93	126	1
3	16	1
105	107	2
17	20	1
9	18	1
22	158	1
132	139	1
43	116	1
81	93	1
8	11	1
42	149	1
46	46	1
76	97	1
50	51	1
68	104	1
54	79	1
36	70	1
57	79	1
20	21	1
47	55	1
