89	89	6
93	96	3
68	93	1
58	58	6
88	88	9
67	67	5
72	72	3
99	100	2
97	98	1
26	26	4
70	71	2
81	88	2
93	93	8
90	90	5
69	74	1
85	86	3
99	99	8
42	42	5
71	71	9
23	56	2
85	85	7
82	82	4
86	94	1
57	57	8
22	23	3
40	40	7
69	69	9
97	99	4
75	75	6
104	105	3
77	77	3
56	69	4
33	34	4
34	34	10
51	96	1
96	97	2
43	44	2
60	61	2
56	56	5
97	97	13
35	36	3
104	104	9
98	98	13
34	65	2
67	68	3
40	41	2
80	80	6
52	52	7
21	21	11
55	56	6
22	61	1
83	84	5
106	106	7
60	60	4
96	96	8
101	101	8
102	106	2
94	96	1
105	105	8
103	103	11
37	37	5
74	74	8
107	107	3
39	43	1
75	101	1
45	47	1
91	91	10
52	53	6
32	32	7
55	55	4
39	81	1
44	44	3
77	95	1
45	45	5
82	83	1
84	86	1
65	65	10
39	40	2
41	43	3
84	84	5
91	96	4
61	62	6
93	94	1
58	61	2
23	70	2
51	51	2
65	66	9
89	90	3
60	64	1
76	93	1
74	76	1
29	41	1
63	63	3
38	62	1
54	97	1
53	53	7
41	86	1
92	92	13
30	30	6
24	24	6
37	57	1
46	49	1
54	54	10
80	82	4
82	84	3
92	95	1
94	94	6
79	80	2
102	103	1
81	81	6
62	78	1
49	49	7
62	63	6
71	81	1
70	72	2
78	78	10
55	63	1
24	89	2
29	29	5
70	75	1
79	90	2
86	88	2
68	68	4
61	63	1
92	93	2
95	96	5
64	65	7
98	99	1
35	35	6
20	20	5
70	70	11
37	38	1
55	99	2
33	33	2
31	31	6
46	46	4
62	62	10
25	25	4
29	89	2
32	39	1
53	54	7
88	90	1
76	102	1
29	65	1
49	66	1
95	95	8
54	56	2
43	43	2
73	74	2
92	100	1
48	48	5
61	64	1
59	74	1
39	41	3
41	42	2
79	79	7
49	62	2
27	37	2
68	69	3
79	98	1
47	47	3
45	48	2
74	94	1
93	95	1
38	39	2
57	69	3
61	61	2
48	66	1
58	59	2
73	73	5
47	49	2
52	97	1
29	88	1
40	44	1
23	23	8
76	76	7
25	89	2
66	66	9
57	61	2
59	59	9
41	45	1
64	64	8
26	27	2
49	67	1
36	37	5
29	31	1
52	54	3
41	50	1
86	97	1
22	22	8
58	65	1
67	70	1
20	21	6
51	77	1
29	30	5
102	102	7
70	92	1
106	107	2
32	36	1
71	90	1
69	86	2
25	26	4
55	71	1
81	83	2
58	77	1
29	39	3
65	77	1
24	55	1
51	62	1
38	38	6
35	75	1
45	49	2
88	91	1
88	89	1
53	97	1
68	76	1
27	27	6
42	44	1
66	89	2
34	35	1
75	102	1
87	87	4
55	68	1
66	67	2
100	100	5
87	88	1
56	88	1
35	87	1
60	63	1
31	32	3
86	87	3
88	92	1
28	28	2
77	100	1
58	67	1
42	43	3
75	90	2
24	25	2
44	45	1
31	51	1
81	84	1
50	62	1
78	79	2
39	39	1
74	75	5
81	95	1
50	96	1
22	103	1
90	91	2
20	37	1
71	72	4
83	83	3
76	77	1
46	48	2
50	77	1
39	50	1
20	66	1
50	51	2
50	68	1
103	105	1
35	74	1
98	100	1
101	102	4
30	31	1
81	82	1
62	84	1
36	61	2
71	78	1
86	86	2
90	92	2
89	96	1
57	74	3
21	23	1
59	61	2
53	91	2
33	45	1
48	49	1
53	76	2
72	73	2
41	41	2
50	67	1
48	60	1
91	94	1
43	45	1
68	78	1
70	74	1
89	92	1
23	55	1
34	36	1
105	106	1
53	61	1
80	81	1
50	50	2
28	49	1
24	39	1
46	47	1
77	91	1
68	74	1
85	87	2
46	50	1
20	22	1
25	27	2
54	69	1
36	36	1
24	105	1
32	38	1
87	94	1
51	52	2
23	33	1
69	91	1
38	63	1
51	55	1
38	87	1
75	93	1
58	63	2
24	41	1
93	101	1
28	29	1
21	34	1
42	58	1
75	76	1
41	73	1
68	73	1
37	45	2
23	28	1
24	31	1
22	39	1
90	96	1
94	98	1
72	89	1
91	103	1
70	87	1
25	40	1
92	94	1
23	35	1
93	102	1
27	28	1
96	101	1
100	101	1
28	46	2
47	83	1
53	59	1
24	74	1
23	75	1
63	84	1
