99	99	1
66	66	11
69	70	1
130	130	1
105	105	1
69	69	2
4	4	2
50	50	5
67	68	4
9	20	1
3	3	6
55	57	2
100	100	1
44	44	3
66	82	1
78	79	3
23	23	2
46	75	1
110	110	3
94	94	2
52	52	2
86	87	2
63	87	1
106	106	2
106	108	2
112	112	2
96	105	2
11	61	1
52	54	1
14	14	1
123	126	1
58	59	1
86	86	2
63	123	1
13	13	2
87	87	2
126	126	4
8	8	5
116	116	1
27	29	1
114	114	2
61	86	1
67	67	2
73	73	4
9	9	1
96	96	1
5	6	1
127	127	1
90	93	3
54	54	5
128	128	1
93	93	1
121	122	1
53	53	3
53	55	3
29	29	1
64	64	2
12	12	2
71	71	2
45	45	5
9	10	3
114	115	3
35	35	1
64	65	2
1	3	1
82	82	2
111	113	1
109	117	1
19	19	4
63	63	1
113	113	4
6	6	6
43	54	1
129	129	2
104	105	1
118	119	2
81	82	1
47	47	1
104	104	2
130	131	2
5	5	5
25	25	3
60	61	3
32	32	3
76	76	2
12	21	1
101	101	2
62	62	3
31	31	1
72	72	2
75	99	2
31	98	1
24	24	3
91	91	3
28	29	1
59	60	1
78	78	2
33	34	1
21	66	1
125	125	1
47	77	1
1	1	4
12	24	2
26	26	4
15	22	1
36	53	1
8	9	1
133	133	2
70	70	1
37	37	1
61	62	1
90	90	2
22	22	1
85	85	2
58	62	1
73	81	1
117	117	2
80	124	1
54	55	1
9	33	1
61	70	1
61	61	5
109	110	1
55	55	3
93	94	1
27	28	2
16	16	3
49	49	1
134	134	1
27	27	3
84	84	4
95	95	1
108	109	1
83	83	1
58	58	1
124	125	1
2	2	2
74	74	1
53	54	1
52	53	1
122	122	1
24	25	1
65	91	1
19	20	2
88	88	1
21	21	1
73	94	1
30	30	1
102	103	1
80	80	3
0	0	1
15	16	1
86	117	1
124	124	1
89	90	1
3	4	1
81	81	1
75	75	1
63	64	1
64	70	2
10	10	1
34	70	1
43	43	1
56	60	1
38	74	1
120	120	1
11	12	2
92	92	1
65	65	1
45	76	1
79	80	1
123	123	1
4	35	1
56	59	2
82	83	2
108	127	1
58	84	1
68	69	2
84	85	1
48	78	1
75	76	1
61	63	1
11	11	1
90	91	1
85	86	1
119	119	1
71	124	1
3	5	1
121	121	1
44	45	1
