114	115	4
54	54	4
89	112	1
88	118	1
12	12	2
142	143	1
64	64	3
121	127	1
172	172	2
42	42	5
145	145	4
66	67	2
28	28	4
35	35	6
18	19	4
41	141	2
144	144	3
83	141	1
14	16	3
57	59	1
92	117	1
21	28	1
129	129	5
103	103	4
61	61	7
33	34	2
65	65	7
97	99	1
163	167	1
19	19	7
99	103	2
32	32	6
80	80	3
43	55	1
118	119	3
169	169	6
98	98	2
4	13	1
125	130	1
123	124	3
124	129	3
6	39	1
142	142	3
93	93	4
87	87	7
163	163	3
130	130	3
51	51	1
116	125	1
156	156	3
2	3	2
6	7	2
55	55	8
113	113	4
4	4	5
169	170	1
141	141	3
108	108	1
41	41	4
80	81	1
71	71	7
37	37	7
73	73	5
54	55	1
117	118	1
116	117	4
164	165	2
10	14	1
156	167	2
159	162	2
73	95	1
36	36	4
22	140	1
72	72	6
134	137	2
20	103	1
7	7	2
155	155	3
53	79	1
113	128	1
4	42	1
80	86	2
179	179	3
130	141	1
161	161	1
176	176	5
93	94	1
6	6	4
122	126	1
158	160	2
110	110	2
8	58	1
123	123	2
52	57	2
52	52	4
99	100	2
67	81	1
91	92	1
115	147	1
158	159	4
118	121	1
125	127	4
5	5	1
118	118	3
11	12	2
139	139	6
0	6	1
160	160	4
6	40	1
62	85	2
37	80	2
85	87	2
40	40	5
154	154	4
95	95	5
93	95	1
132	135	1
154	169	1
104	104	3
73	78	2
145	146	3
56	80	1
106	106	1
10	37	1
10	10	7
99	116	1
128	128	4
1	1	1
117	117	2
158	170	1
9	9	3
121	122	2
62	87	1
131	171	1
133	133	5
147	147	2
87	147	1
71	72	2
17	18	1
87	143	2
74	74	5
109	111	1
132	132	1
29	32	2
124	124	3
37	38	2
21	21	1
27	30	1
103	108	1
12	124	1
94	130	2
52	54	2
171	171	2
13	15	1
50	51	2
90	90	3
3	3	3
68	71	1
85	85	2
15	15	3
14	14	3
180	180	1
99	113	1
91	91	5
119	120	4
89	96	3
175	175	2
89	89	5
150	153	2
43	43	5
66	66	1
137	137	1
39	73	1
85	86	2
31	32	2
168	168	2
24	24	4
161	170	1
166	166	3
178	178	3
94	126	1
115	116	1
90	91	1
34	34	3
38	38	2
11	11	1
89	94	4
43	44	3
135	136	2
151	153	1
35	51	1
119	119	2
12	22	1
143	144	3
143	146	2
115	115	4
140	140	1
90	118	1
173	176	1
131	131	3
132	141	2
90	93	2
41	43	1
152	155	1
13	13	1
157	158	2
146	147	1
138	138	4
79	79	1
55	79	2
78	78	1
17	17	2
173	175	1
108	109	1
151	151	2
1	2	1
53	66	1
139	140	3
81	81	2
96	96	2
59	60	2
76	76	5
140	141	3
33	33	4
62	84	1
19	20	1
109	109	1
26	26	3
102	122	1
0	0	2
33	36	1
57	87	1
164	168	1
149	149	4
62	62	1
51	115	1
148	171	1
94	112	1
31	31	2
16	16	1
43	53	1
44	44	2
131	141	1
22	24	1
167	167	2
107	108	3
81	86	2
92	92	2
97	97	1
166	168	2
51	82	1
100	101	2
29	29	4
27	28	1
123	125	2
155	163	1
118	156	1
153	153	4
67	76	1
159	159	3
119	125	1
160	161	6
144	151	1
83	101	1
130	154	1
73	75	1
8	8	2
65	90	1
79	112	1
21	22	2
98	99	2
56	56	2
103	104	2
44	45	1
81	87	1
79	174	1
5	138	1
6	172	1
150	150	2
121	121	2
23	24	1
138	139	2
36	38	1
98	102	1
157	157	2
88	88	1
2	2	2
19	124	1
39	39	3
82	86	1
2	6	1
170	170	3
41	42	2
119	129	1
165	167	1
119	121	1
22	22	1
74	75	1
114	114	2
51	59	1
7	15	1
110	166	1
28	29	1
175	176	1
173	173	2
108	146	1
45	45	1
151	152	1
116	147	1
68	179	1
40	41	2
52	114	1
149	150	2
148	148	1
90	112	2
75	76	1
53	53	2
134	134	1
6	136	1
152	152	2
8	9	1
177	180	1
91	119	2
24	25	1
23	23	1
83	83	2
165	165	1
153	154	1
134	135	1
86	86	2
3	7	1
157	171	1
169	171	1
38	76	1
116	151	1
86	91	1
107	107	2
166	167	2
30	30	2
111	112	1
67	68	1
18	18	1
104	105	1
49	50	1
94	94	1
22	31	1
4	30	1
63	63	1
9	16	1
162	162	3
102	102	1
27	127	1
127	147	1
168	169	1
13	56	1
83	84	1
59	59	1
178	179	1
63	87	1
118	163	1
112	112	2
4	5	1
120	120	2
124	125	1
111	111	2
145	157	1
133	139	2
126	126	1
94	95	1
27	140	1
35	36	1
158	163	1
71	136	1
11	13	2
128	129	1
38	75	1
86	93	1
177	178	1
24	39	1
114	127	1
137	148	1
152	153	1
34	35	1
54	115	1
126	172	1
162	167	1
40	44	1
105	105	3
73	135	1
60	67	1
3	4	1
25	26	1
21	32	1
70	70	1
135	135	1
162	166	1
136	172	1
20	25	1
28	40	1
15	21	1
177	177	1
3	39	1
64	65	1
2	4	1
117	119	1
23	26	1
66	68	1
35	83	1
75	75	2
60	60	1
87	89	1
26	27	1
123	157	1
125	125	1
