15	16	4
19	19	11
115	119	1
61	63	2
205	220	1
218	218	9
22	22	14
110	110	11
68	70	3
3	4	2
5	5	9
17	17	9
114	121	1
159	159	6
242	243	3
160	164	1
33	33	13
179	179	4
115	115	4
211	212	6
55	60	1
91	120	1
77	82	2
216	216	3
28	33	3
195	218	2
38	38	15
61	62	6
54	54	8
112	112	9
27	27	15
175	176	6
10	224	1
207	207	7
43	43	14
204	204	10
113	115	2
240	240	6
164	164	4
114	117	4
49	49	7
21	21	20
8	10	1
57	158	1
97	106	1
86	108	1
48	48	10
192	192	6
226	226	8
217	217	3
45	46	4
234	235	4
6	6	5
81	105	1
63	63	6
180	184	1
46	46	8
13	13	1
46	53	1
10	11	6
214	245	2
244	247	1
117	117	10
52	59	1
41	42	7
23	28	1
94	110	1
109	109	9
96	104	2
234	240	4
193	242	2
181	181	14
4	6	3
173	219	1
82	85	1
104	104	3
205	205	13
99	100	1
33	36	3
188	210	1
114	114	8
34	34	8
75	76	1
213	213	6
70	74	1
56	56	5
11	11	11
220	221	2
171	171	3
8	45	1
119	119	7
52	54	3
12	12	14
20	20	10
177	178	5
162	162	6
73	74	4
238	239	3
47	47	8
80	99	3
82	82	5
197	217	1
163	163	10
196	212	1
87	87	5
227	230	1
241	241	14
61	61	4
82	105	1
235	235	9
55	56	4
228	233	2
18	18	12
53	202	1
212	212	6
14	14	14
26	150	1
57	71	1
221	223	2
61	70	3
77	77	4
238	238	6
224	224	5
36	36	14
52	57	2
32	33	2
28	28	20
195	195	3
246	249	2
26	26	9
118	175	3
6	36	1
177	177	13
88	89	2
101	101	9
173	184	1
16	85	2
9	9	11
167	202	1
13	14	2
246	246	5
226	235	2
172	172	5
226	245	2
245	245	9
54	55	4
105	105	4
34	41	1
225	225	8
201	228	1
107	107	6
175	175	11
184	184	7
227	227	10
19	21	1
53	58	1
110	111	2
47	75	1
199	208	1
4	4	7
14	219	1
183	184	4
116	116	8
96	109	1
168	169	2
193	213	1
78	78	6
202	202	9
216	217	4
118	118	9
182	182	11
223	223	6
170	170	5
17	18	3
12	47	1
232	232	8
202	207	1
51	70	1
231	232	2
51	245	1
64	66	3
103	103	5
90	90	7
150	150	8
200	200	10
68	68	7
55	55	6
5	76	2
30	30	9
100	100	9
156	156	11
166	166	13
92	92	5
178	178	9
247	247	6
44	44	8
7	7	12
72	72	3
236	236	3
195	237	1
56	70	1
26	27	6
158	158	8
211	214	2
188	192	2
151	151	10
52	56	2
24	27	1
176	176	5
224	225	3
180	180	10
26	33	1
30	181	1
157	157	8
187	187	4
241	243	2
39	39	6
162	163	1
170	171	1
40	40	10
61	78	1
2	4	2
224	243	2
176	177	1
213	217	2
239	239	6
57	70	1
191	216	1
35	35	8
218	219	1
18	19	4
237	247	3
65	65	10
37	37	10
2	3	4
234	234	12
193	195	1
178	179	1
167	167	9
206	206	7
214	214	6
45	51	1
145	145	7
31	31	7
83	88	1
42	42	14
146	146	7
62	62	6
113	201	1
26	156	1
178	184	1
67	67	10
64	64	4
163	186	1
164	168	1
173	193	1
241	245	1
12	119	1
230	230	16
85	85	12
186	186	7
6	7	2
61	89	1
69	71	1
171	202	2
16	112	1
242	242	9
172	197	1
82	84	1
1	3	1
100	101	1
71	76	2
24	24	8
205	208	1
105	106	5
165	166	3
73	155	1
25	26	5
45	160	1
76	80	1
171	174	1
21	22	3
217	219	2
38	40	1
203	205	2
77	152	1
246	248	3
86	86	4
52	52	7
160	160	6
181	182	3
155	155	5
29	30	5
155	156	5
50	51	4
196	196	6
57	63	2
99	99	2
53	55	1
79	83	1
215	215	10
40	44	2
22	23	2
32	40	1
209	212	2
41	41	6
203	203	11
227	232	1
229	230	4
174	182	2
51	51	12
83	86	1
10	10	17
244	244	6
32	32	11
221	221	6
118	119	4
45	45	5
153	153	8
79	79	2
160	245	1
92	93	3
212	214	3
111	119	1
74	76	1
210	210	9
74	74	2
237	237	11
96	97	1
197	197	4
201	202	2
6	45	1
161	161	3
120	120	4
111	116	1
166	168	1
81	81	7
28	29	3
152	152	3
199	231	1
44	45	2
112	161	1
81	82	3
185	185	8
97	97	2
77	179	1
58	58	2
188	189	1
106	106	2
77	92	1
114	116	1
168	193	1
76	77	1
223	237	1
89	90	2
97	99	3
164	165	3
156	166	1
16	16	6
21	162	1
16	23	1
173	173	9
201	201	8
207	241	1
71	71	3
105	108	1
71	248	1
198	198	9
154	155	1
217	241	1
162	173	1
188	239	1
48	51	3
192	195	1
226	227	4
87	246	1
229	229	9
228	228	7
198	210	1
208	223	1
69	88	3
76	85	1
41	156	1
2	9	1
66	66	5
44	47	1
97	155	1
177	209	1
88	101	2
8	8	2
43	90	1
55	58	2
151	204	1
109	231	1
55	65	1
57	57	6
199	215	1
209	215	1
222	222	6
199	199	11
186	187	2
117	118	2
15	15	6
181	199	1
2	34	1
115	117	3
67	68	2
153	166	1
98	108	2
201	204	2
197	198	5
111	111	9
82	89	1
195	197	1
119	145	2
227	239	1
158	160	3
241	242	5
234	247	3
60	74	1
59	62	1
230	246	1
209	213	1
185	187	1
248	248	7
17	40	1
15	206	1
169	169	4
166	167	1
182	188	1
56	81	1
28	31	1
208	208	7
165	165	8
89	89	5
79	84	2
222	224	1
232	236	1
33	39	1
60	60	5
165	167	1
172	173	3
197	236	2
75	77	1
212	224	1
83	98	1
73	73	4
41	43	2
53	60	1
67	94	1
211	245	1
77	83	2
169	170	2
72	105	1
86	87	1
98	107	2
107	114	1
167	179	1
51	71	2
91	93	2
111	112	2
164	197	1
53	53	11
239	240	2
1	1	4
219	220	1
190	192	1
244	245	2
115	116	3
149	149	1
234	239	1
224	246	2
229	232	2
207	220	1
233	246	1
206	207	1
167	168	3
62	228	1
191	195	1
174	175	1
12	29	1
50	50	7
228	231	2
189	189	5
43	44	2
223	241	1
5	6	2
183	183	12
84	85	1
178	205	1
84	87	1
201	208	1
35	36	1
87	90	1
196	197	2
64	70	1
11	28	2
12	21	1
169	237	1
109	113	2
184	234	1
29	31	2
29	187	1
184	213	1
1	19	3
29	40	1
13	20	1
80	80	2
1	2	1
175	182	1
37	38	2
16	226	1
44	54	1
163	166	1
168	168	14
9	25	1
171	185	1
24	28	2
245	246	4
235	236	3
199	210	1
16	75	2
114	115	3
43	53	1
14	15	3
49	72	1
15	114	1
215	219	1
227	236	1
159	160	3
108	108	3
196	199	1
8	12	2
107	108	2
75	75	4
156	163	2
243	244	1
22	30	1
0	1	2
112	116	2
40	42	3
83	83	2
237	240	1
207	212	1
79	85	1
196	223	1
154	156	1
99	110	1
165	172	2
246	247	3
235	249	1
219	219	6
191	191	9
6	66	1
84	84	2
26	32	1
17	234	2
33	35	1
12	14	1
168	172	1
78	86	2
212	213	3
163	173	2
88	88	3
53	54	4
232	233	5
52	68	1
170	183	2
207	208	1
59	59	5
72	77	2
14	229	1
24	31	4
62	169	1
25	25	7
195	196	4
59	60	2
169	172	2
58	64	1
173	178	1
233	233	3
95	95	7
60	67	1
237	243	1
86	100	2
45	52	2
177	195	1
114	165	1
52	246	1
217	240	1
216	218	1
29	29	8
221	241	1
95	107	1
211	249	1
87	98	1
164	171	1
94	94	4
165	176	1
173	174	4
9	15	1
27	28	3
113	113	7
163	164	6
168	170	1
193	194	1
66	69	1
76	76	3
210	211	3
60	63	1
171	190	1
23	23	9
78	88	1
65	94	1
191	193	3
5	213	1
169	176	1
23	54	2
201	215	2
75	80	1
95	96	2
181	193	1
236	237	2
178	188	1
229	244	1
16	17	3
37	40	1
93	99	1
38	39	5
23	24	3
7	45	1
156	168	1
191	192	6
165	193	2
192	193	2
66	67	1
10	19	2
190	190	1
20	21	2
158	163	1
194	196	1
142	142	1
167	172	1
96	96	5
210	214	1
77	78	2
221	225	1
209	209	8
171	172	1
45	208	1
187	194	1
181	190	1
79	107	1
80	82	1
39	62	1
147	147	3
15	55	1
170	194	1
179	180	3
177	184	1
15	17	2
220	235	1
165	169	1
222	223	2
170	177	1
154	154	5
77	173	1
76	120	1
10	15	1
174	224	1
226	229	1
200	202	1
102	104	2
221	222	3
69	69	4
64	85	2
231	231	3
49	216	1
15	203	2
24	25	2
247	249	1
145	146	1
19	20	2
101	107	1
176	194	1
194	195	1
116	119	1
98	98	3
82	83	1
158	159	2
226	246	1
169	177	1
112	118	1
64	231	1
172	174	2
97	117	1
167	204	3
51	65	1
42	43	2
227	228	2
91	91	3
37	57	1
41	45	1
35	37	1
180	182	2
51	92	1
226	231	1
62	64	1
115	173	1
151	156	1
2	7	1
168	184	2
97	98	1
85	91	1
48	236	1
64	65	3
3	5	1
197	212	1
155	160	1
180	181	2
165	235	1
185	233	1
47	157	1
164	174	2
49	50	2
14	166	1
70	70	2
210	213	1
164	191	1
194	194	2
208	209	1
69	75	1
35	92	1
239	247	2
194	218	1
226	232	1
199	200	2
157	166	1
176	238	1
200	201	1
58	59	4
220	220	7
229	241	1
97	104	1
21	24	1
73	87	1
94	95	2
111	117	2
101	102	1
155	157	1
178	189	1
75	95	1
5	59	1
194	201	1
156	181	1
54	59	1
14	19	2
47	57	1
189	190	1
37	45	2
1	21	2
46	47	1
101	108	1
26	37	1
228	235	1
112	115	1
222	240	1
195	214	1
90	91	1
159	185	1
59	175	2
177	193	1
52	92	1
93	93	3
41	44	1
214	229	1
47	48	2
36	37	3
111	115	1
95	119	1
34	37	1
147	151	1
153	172	1
45	113	1
72	75	1
184	189	1
114	120	1
171	184	1
72	86	1
2	2	1
104	108	1
205	206	1
79	81	1
222	225	1
55	57	1
187	188	1
72	73	1
185	202	1
193	193	5
226	228	1
25	36	1
57	60	1
230	232	1
71	72	1
172	198	1
108	110	1
204	209	1
72	82	1
3	3	3
62	234	1
36	42	1
230	231	1
74	247	2
203	245	1
9	201	1
188	196	1
57	68	1
209	211	1
216	234	1
195	215	1
174	174	4
248	249	1
62	86	1
74	77	2
219	222	1
231	236	1
166	213	1
177	191	1
9	11	2
34	35	2
1	8	1
175	214	1
97	105	2
1	38	1
33	41	1
179	181	1
44	46	1
32	37	2
240	241	2
77	79	1
214	215	3
176	178	2
93	110	2
87	93	1
9	42	1
191	218	1
25	29	1
75	179	1
5	7	1
9	10	3
47	64	1
36	38	1
88	91	1
47	89	1
89	100	1
78	81	1
223	234	1
40	41	1
48	61	1
76	90	1
33	159	1
30	57	1
237	239	1
41	150	1
39	53	1
92	95	2
220	236	1
70	84	1
6	10	1
185	190	1
194	221	1
201	235	1
4	8	1
69	70	1
183	194	1
179	185	1
200	211	1
181	184	2
9	37	1
151	152	2
240	242	1
35	54	1
0	228	1
29	41	1
50	71	2
186	192	1
49	61	1
71	247	1
165	171	1
47	51	1
63	66	1
243	243	1
106	108	1
233	237	2
218	239	1
58	108	1
22	155	1
65	67	1
70	101	2
239	241	1
173	214	1
31	45	1
21	28	3
91	102	1
11	12	1
13	15	1
224	226	1
61	110	1
67	74	1
164	172	1
194	237	1
53	67	1
197	201	1
51	109	1
3	7	1
7	9	1
37	52	1
19	28	1
197	200	2
167	174	1
193	197	1
12	19	1
198	199	1
33	37	3
2	13	1
94	96	1
64	69	1
48	50	2
102	103	1
181	188	1
198	209	1
81	84	1
77	96	1
167	192	1
14	28	1
78	102	1
200	203	1
144	150	1
102	105	2
60	64	1
192	242	1
47	54	1
87	89	1
77	221	2
192	205	2
85	233	1
232	242	1
189	198	2
152	198	1
223	242	1
225	226	1
201	203	1
238	241	1
110	117	1
199	241	1
222	246	1
161	163	1
215	248	1
179	187	1
160	168	1
201	212	1
208	210	1
171	193	1
101	109	1
223	230	1
180	187	1
16	20	1
7	54	1
204	228	1
186	193	1
24	29	1
168	173	1
2	32	2
51	159	1
166	169	1
32	94	1
60	84	1
18	20	1
10	144	1
78	100	1
17	30	1
185	192	1
204	227	1
188	188	1
75	81	1
146	147	1
174	180	1
178	183	1
235	246	1
48	49	1
218	220	1
54	64	1
100	110	1
205	212	1
172	192	1
87	159	1
173	175	1
110	118	1
86	99	1
231	234	2
173	177	1
80	88	1
52	53	2
15	27	1
11	29	1
234	241	1
12	17	1
97	102	2
91	96	1
63	169	1
182	212	1
55	233	2
98	99	2
213	215	1
90	94	1
62	91	1
85	86	1
27	32	1
79	102	1
67	76	1
187	191	1
220	223	1
160	207	1
38	45	1
1	25	1
225	234	1
30	56	1
206	219	1
41	93	1
172	178	1
44	49	1
73	103	1
241	244	1
196	200	1
189	191	1
116	117	1
145	162	1
56	211	1
244	248	1
77	81	1
228	229	1
214	217	1
165	221	1
214	222	1
7	226	1
218	228	1
78	114	1
100	109	1
227	243	1
238	240	1
49	54	1
247	248	1
211	211	2
51	52	1
205	207	1
190	246	1
102	109	1
46	57	1
186	191	1
32	38	1
202	204	1
198	202	1
37	43	1
162	165	1
215	216	1
60	239	1
11	82	1
211	219	1
31	47	1
8	40	1
188	215	1
202	205	1
194	214	1
182	185	1
176	220	1
160	169	1
60	119	1
228	234	1
19	36	1
207	211	1
187	218	1
219	228	1
23	35	1
222	228	1
71	109	1
229	234	2
16	27	1
157	172	1
62	63	1
235	237	1
216	239	1
203	204	1
200	212	1
219	224	1
