77	80	1
104	104	3
154	165	2
49	49	4
26	26	8
162	162	8
17	17	8
7	27	1
16	16	7
128	129	4
123	124	1
33	33	3
44	44	5
118	118	4
105	105	4
145	146	2
153	154	4
115	115	3
84	84	7
69	70	2
5	11	2
18	18	5
119	119	9
133	133	10
151	151	5
146	146	5
11	11	4
3	3	10
56	133	1
89	89	4
141	142	5
135	136	2
117	118	2
72	81	1
57	61	1
160	160	8
166	166	5
10	11	2
155	155	5
168	168	7
126	126	4
84	85	1
125	125	4
136	137	4
140	140	3
137	137	5
99	99	4
148	148	3
77	77	2
26	150	1
39	40	4
135	135	4
88	89	4
12	12	5
159	159	10
4	4	4
167	167	4
81	82	1
161	168	3
24	146	2
71	71	7
117	117	2
114	121	1
143	143	8
43	43	12
40	41	1
167	169	1
42	44	1
46	46	4
10	10	4
78	78	7
139	159	3
18	52	1
85	85	5
78	83	2
130	130	5
132	133	3
44	49	1
27	27	7
93	93	8
156	156	7
45	45	5
158	158	3
169	169	6
155	159	1
122	141	1
66	66	1
38	39	1
144	144	9
48	48	8
2	3	2
110	110	7
95	95	4
130	132	1
160	163	2
122	122	4
34	39	1
86	87	3
141	159	1
79	79	4
153	153	2
147	147	3
101	113	2
153	156	2
28	28	2
97	149	2
35	35	9
131	132	4
91	91	5
157	157	7
37	37	6
97	97	8
75	75	7
118	120	2
69	69	1
5	5	3
85	101	1
134	134	3
9	9	10
87	88	3
6	6	6
125	129	1
120	120	4
14	15	2
40	40	5
124	124	3
102	102	2
80	80	4
81	83	1
114	116	3
104	105	2
163	163	6
145	152	1
145	145	6
95	132	1
43	44	5
96	96	5
48	49	1
105	106	2
147	149	2
127	127	5
22	22	1
24	24	7
42	42	3
0	2	1
23	23	4
51	52	2
67	113	1
135	150	1
127	129	1
50	51	5
27	168	1
20	84	1
71	106	1
51	51	6
26	136	1
26	38	1
14	14	7
41	41	8
47	47	6
106	106	2
53	53	3
128	128	6
64	84	1
123	123	4
88	147	1
165	165	3
8	22	4
48	50	4
42	43	4
21	22	3
47	48	3
136	142	1
13	169	3
15	45	1
23	24	2
19	19	8
46	50	1
152	166	1
40	42	1
142	142	3
164	164	5
83	93	1
68	68	2
18	47	1
142	161	1
64	147	1
48	62	2
1	2	2
0	1	3
72	72	1
81	81	2
133	135	2
25	25	3
74	74	6
27	71	1
1	1	10
106	107	2
17	47	1
139	139	5
147	148	2
7	7	3
20	20	6
91	92	2
163	164	4
111	111	2
92	118	1
55	84	1
143	150	1
146	152	1
2	2	8
149	149	3
167	168	3
122	142	1
49	51	2
44	45	2
154	154	4
148	149	3
155	156	5
150	150	9
97	100	1
22	166	1
161	164	2
21	21	7
70	89	2
90	90	3
160	161	2
125	127	1
100	100	5
141	141	4
152	152	6
18	132	1
14	118	1
107	107	1
120	132	1
124	127	1
142	146	1
142	151	1
70	97	1
136	136	3
65	65	1
62	62	3
121	121	2
108	108	7
35	38	1
133	134	1
91	110	1
16	49	1
10	36	1
50	50	4
140	143	1
49	53	1
130	169	1
157	159	1
52	52	7
63	70	1
70	70	2
3	4	2
13	13	5
38	167	1
117	119	1
36	36	5
161	166	1
38	38	3
125	142	1
9	10	3
76	76	2
70	71	1
130	131	3
3	151	1
74	77	2
35	47	1
116	116	2
160	167	1
154	155	3
62	75	2
9	17	1
92	95	2
55	69	1
82	82	4
77	78	1
9	23	1
130	147	1
73	77	1
14	43	1
161	161	4
141	154	2
151	167	3
80	81	1
25	26	3
24	25	2
147	154	1
21	34	1
95	96	3
146	148	1
115	116	1
5	8	1
92	92	2
26	27	2
130	149	1
17	110	1
73	73	3
0	0	6
101	134	1
18	128	1
147	150	1
94	98	1
16	24	1
0	163	1
164	165	2
170	170	4
19	24	1
76	77	2
55	55	3
129	129	2
150	161	1
23	25	1
101	102	2
109	137	1
68	71	1
6	7	3
110	114	1
8	8	4
97	99	1
8	9	3
69	75	1
129	134	2
150	151	3
64	64	1
1	19	1
139	151	2
63	68	1
145	166	1
25	116	1
78	79	1
130	151	1
98	98	8
65	66	1
71	90	1
45	108	1
41	42	1
5	6	2
56	85	1
73	74	1
116	149	1
0	105	1
162	163	2
142	143	1
71	84	1
151	166	1
145	147	1
162	164	2
5	111	1
131	131	4
114	114	4
21	85	2
145	165	1
16	17	1
45	46	2
82	100	1
168	170	2
18	19	1
14	27	2
99	100	2
152	161	1
88	105	2
113	114	1
75	78	1
17	23	1
13	43	3
124	166	1
36	42	1
8	12	1
15	15	4
69	78	1
129	130	1
74	76	1
121	122	1
130	167	1
80	86	1
53	167	1
90	102	3
4	5	2
112	150	1
138	138	3
133	139	1
113	113	2
143	156	1
142	162	1
57	57	2
65	72	1
1	25	2
11	44	1
22	23	1
1	11	1
92	93	1
25	126	1
63	63	4
131	152	1
160	166	1
0	6	1
53	54	2
135	137	1
139	157	1
41	47	1
134	135	2
66	105	1
144	145	1
49	50	1
143	160	2
119	151	2
100	104	1
15	133	1
109	109	2
124	125	1
86	89	1
20	24	2
146	158	1
107	170	2
89	125	1
63	66	1
53	57	1
153	155	1
34	34	2
144	146	1
21	146	1
17	20	1
7	8	2
24	48	1
139	140	2
109	110	1
34	35	1
72	80	1
126	136	2
100	114	1
98	132	1
137	139	1
46	58	1
140	141	1
86	88	1
4	10	1
54	75	1
151	152	1
104	125	1
137	157	2
132	132	1
151	158	1
101	101	1
35	52	1
95	97	1
148	160	1
100	101	3
7	151	1
76	82	1
13	137	1
49	97	1
2	4	1
116	118	1
73	84	1
165	166	1
39	39	1
56	56	1
33	34	1
119	125	1
119	130	1
26	84	1
7	13	1
13	14	1
168	169	1
147	151	1
167	170	1
82	83	2
23	49	1
17	26	1
123	146	1
123	160	1
51	85	1
53	55	1
21	25	1
47	73	1
136	155	1
110	111	1
7	9	1
93	115	1
17	18	1
124	126	1
145	149	1
86	86	1
129	137	1
33	157	1
76	86	1
138	139	1
83	85	1
129	132	1
148	151	1
21	24	1
139	158	1
143	144	1
13	16	1
12	14	1
108	109	1
11	111	1
125	133	1
134	143	1
