77	77	15
55	56	3
128	128	8
68	69	2
123	123	10
6	6	18
0	0	3
72	120	2
72	73	13
114	116	3
41	41	7
92	92	16
64	64	21
132	132	9
47	47	16
115	115	12
102	102	13
34	34	11
125	125	10
87	100	1
6	7	5
24	24	7
109	109	10
106	106	14
30	30	10
31	43	1
113	113	19
105	106	3
119	120	2
43	43	20
107	108	5
86	86	15
24	40	1
117	117	12
79	81	6
15	15	13
100	100	9
68	68	6
88	89	1
103	103	10
5	16	1
104	104	10
22	22	11
9	9	9
94	94	8
33	33	12
66	66	11
108	108	6
73	73	13
41	42	3
45	45	20
112	112	18
49	50	3
7	7	13
120	121	1
70	72	1
95	95	10
103	104	4
1	1	5
27	28	4
125	131	1
128	129	3
87	87	9
2	2	14
94	110	2
75	76	8
121	131	1
71	72	5
22	27	4
116	117	1
0	1	2
7	8	2
61	61	16
78	78	15
29	49	1
121	121	8
119	119	11
35	36	8
134	134	12
100	102	1
123	124	9
79	79	9
128	132	1
29	30	5
35	35	15
109	110	4
77	78	4
62	74	1
133	134	2
70	116	2
27	42	1
101	101	11
28	28	9
41	43	4
130	130	12
76	124	2
34	43	1
32	33	4
17	18	6
39	41	2
121	122	4
13	14	4
59	59	8
74	75	4
65	65	14
107	107	8
21	21	12
113	124	1
37	38	4
17	17	11
84	85	6
91	91	15
56	57	2
74	74	6
27	75	1
112	113	5
121	132	1
93	96	1
70	70	9
32	34	1
83	83	8
78	80	1
74	117	1
67	67	9
80	80	9
14	14	12
72	72	15
32	32	13
15	16	6
33	36	1
51	56	2
16	48	1
116	116	9
37	37	9
63	64	7
93	100	3
8	9	2
100	101	3
128	131	3
63	63	5
28	87	1
5	5	13
120	126	2
22	37	1
126	126	15
132	134	1
97	98	5
81	81	11
2	75	2
75	75	10
87	90	1
79	104	1
34	117	1
46	46	16
101	104	1
43	44	6
71	71	11
68	78	1
10	10	18
44	44	19
58	58	10
118	118	8
58	120	1
22	57	1
133	133	13
73	74	3
64	66	2
104	105	3
82	82	12
25	25	5
101	102	3
12	13	2
132	133	3
19	19	14
78	93	1
36	36	9
21	37	1
25	30	2
11	11	14
18	18	9
36	49	1
60	60	13
80	81	3
23	23	3
90	90	9
27	36	1
86	87	4
5	10	1
95	108	1
57	57	8
3	3	6
67	69	1
14	15	2
124	125	4
8	8	7
45	46	5
111	111	9
56	108	1
12	19	2
96	101	1
36	37	1
85	85	6
26	26	5
28	129	1
12	44	1
121	123	1
62	62	11
110	110	8
56	133	2
108	110	2
48	48	10
85	86	3
59	60	4
16	17	1
27	31	4
86	102	1
25	26	4
20	20	9
31	31	12
105	107	1
99	101	2
51	55	3
114	115	2
78	81	4
33	46	1
120	120	11
100	104	1
24	25	1
66	67	2
90	91	2
7	10	1
122	122	10
56	56	3
33	86	1
75	118	1
16	16	5
93	114	2
11	45	1
131	131	5
129	131	2
59	108	1
61	62	2
13	13	10
34	35	4
96	96	5
125	126	3
117	134	1
76	76	7
93	93	7
118	120	1
89	110	2
91	97	1
29	29	4
55	55	8
76	94	1
19	38	1
84	84	6
129	129	11
24	27	1
19	22	1
30	32	1
38	40	1
57	134	1
4	4	10
82	93	1
26	30	1
25	27	2
118	119	3
81	91	1
12	14	3
105	105	7
7	34	1
21	23	1
14	110	1
45	57	1
118	124	1
79	80	6
106	108	2
6	19	1
64	65	1
68	72	1
99	99	6
22	28	1
10	14	1
70	71	2
39	55	1
117	118	2
69	69	9
27	30	1
27	27	15
78	122	1
114	114	8
101	105	2
33	34	1
12	12	10
38	39	1
116	128	1
98	102	2
97	103	1
93	121	1
13	85	1
34	95	2
101	125	1
42	42	4
65	68	1
89	102	1
109	119	2
44	77	2
111	134	1
98	100	1
26	27	2
98	98	4
105	112	2
58	93	1
58	59	3
20	21	6
91	92	4
47	59	1
117	119	2
40	40	9
13	15	3
79	82	3
9	10	4
102	104	3
42	43	5
88	93	3
47	48	1
87	88	2
4	12	2
88	88	10
51	51	1
12	18	1
119	125	2
11	17	2
117	120	3
122	124	1
4	18	1
95	96	3
60	66	1
62	63	5
78	79	2
120	124	2
85	129	1
8	16	2
83	85	2
45	47	2
39	40	2
127	127	7
19	28	2
94	100	2
38	42	1
47	118	1
109	131	2
131	132	2
124	131	1
14	20	1
124	124	4
129	130	5
22	41	1
86	93	1
92	128	1
5	18	1
85	118	1
18	19	2
28	34	2
93	94	6
115	127	1
73	75	2
40	43	2
122	123	4
8	36	1
74	86	1
39	39	3
33	57	1
66	69	1
38	38	2
82	112	1
126	127	1
112	116	1
65	66	1
86	114	2
90	100	1
85	101	1
97	97	6
4	46	1
36	38	4
18	34	1
18	72	1
102	120	1
40	42	1
59	77	1
34	82	1
113	114	6
28	85	1
57	118	1
82	83	3
108	120	1
45	68	1
79	111	1
50	50	2
105	131	2
12	16	1
71	73	1
49	89	1
15	17	2
109	133	2
81	82	3
119	121	1
10	60	1
47	57	2
110	111	4
38	48	1
32	43	1
115	116	2
89	92	1
62	72	1
50	57	1
123	125	2
20	29	1
19	20	2
111	112	2
61	66	1
44	49	1
4	5	2
129	133	2
33	43	1
106	128	1
107	129	1
104	129	1
106	107	1
130	134	2
20	134	1
47	49	1
54	55	1
13	73	1
108	109	2
83	84	1
107	126	1
10	11	3
91	129	1
18	47	1
2	3	1
99	124	2
31	32	1
16	36	1
62	73	1
20	22	1
81	83	1
93	113	1
123	126	1
112	124	1
102	107	3
14	68	1
31	49	1
32	47	1
107	125	1
106	127	2
93	116	1
98	99	1
3	71	1
11	12	1
34	74	1
40	41	2
40	50	1
54	56	1
46	47	1
113	129	1
96	113	1
96	98	1
21	22	6
48	49	1
29	48	1
59	69	1
82	121	1
113	130	1
69	108	2
88	120	1
98	113	1
17	20	1
47	61	1
44	45	1
85	93	1
14	35	1
120	130	1
130	131	3
99	100	2
5	43	1
92	93	1
90	92	1
57	58	2
117	124	1
126	129	1
28	31	1
35	38	1
2	18	1
69	70	1
91	98	1
3	129	1
44	123	1
59	62	1
28	29	2
107	110	1
20	33	1
95	100	1
114	122	1
16	31	1
76	77	1
127	128	1
10	12	1
85	119	1
35	43	1
113	115	1
104	107	1
97	100	1
103	122	1
16	35	1
120	122	1
35	50	1
17	19	2
111	124	1
57	125	1
94	115	1
18	43	1
61	63	1
110	114	1
75	114	1
108	126	1
130	132	1
30	31	1
84	87	1
106	110	1
17	45	1
115	122	1
26	31	2
17	64	1
82	88	1
1	69	1
46	62	1
19	27	1
1	2	1
77	82	1
37	39	1
60	61	1
121	133	2
68	118	1
32	130	1
9	11	1
18	63	1
122	132	1
47	75	1
108	128	1
24	26	1
22	23	1
8	46	1
48	100	1
95	97	1
38	45	1
67	118	1
56	79	1
38	82	1
61	67	1
6	8	1
115	126	1
97	99	1
39	42	1
32	118	1
10	81	1
5	45	1
15	34	1
20	36	1
73	107	1
89	90	1
4	7	1
28	30	1
8	11	1
74	113	1
82	86	1
12	38	1
1	39	1
22	38	1
88	92	1
78	102	1
10	15	1
36	43	1
111	113	1
23	24	1
10	13	1
20	40	1
87	102	1
7	44	1
96	97	1
