46	46	2
119	135	1
141	141	5
41	41	6
111	111	7
61	61	1
156	156	4
112	112	4
139	139	5
52	54	3
92	116	2
109	109	3
81	83	1
142	142	6
152	154	1
83	121	2
120	120	5
16	17	3
92	92	8
108	126	1
110	110	3
8	8	3
86	86	4
1	2	1
31	34	1
124	124	6
99	99	1
71	73	2
115	133	1
81	81	1
116	116	5
135	135	3
127	128	3
105	105	3
42	42	7
73	73	1
103	103	4
106	106	7
118	118	4
96	96	3
149	149	3
1	1	2
31	31	1
93	102	1
25	25	4
135	136	1
124	148	1
131	132	2
128	128	1
88	92	1
43	44	2
98	149	1
78	78	5
75	75	4
127	127	3
115	115	1
132	132	7
57	57	1
126	126	7
113	113	1
116	127	1
114	138	1
21	21	4
36	43	1
108	108	4
129	129	3
11	11	2
151	151	3
39	40	1
38	39	1
33	33	1
9	10	1
24	25	5
131	131	1
78	79	1
15	42	1
30	30	5
17	18	2
158	158	4
78	81	1
10	10	4
12	12	3
2	3	3
12	47	1
76	76	1
70	71	1
40	40	2
73	116	1
144	144	2
115	144	1
153	153	3
68	69	2
140	141	1
52	52	3
13	13	2
15	18	1
143	143	2
144	147	2
18	38	1
121	124	1
23	24	1
131	151	1
125	126	1
46	53	2
92	97	1
128	141	1
14	97	1
38	41	2
146	147	2
72	89	1
100	152	1
84	84	2
132	133	2
47	47	1
18	18	3
25	43	1
117	120	1
130	130	4
119	119	5
126	138	1
159	159	2
100	100	1
41	47	1
131	134	1
147	147	3
74	76	2
51	51	2
52	53	2
123	123	4
54	56	1
43	43	2
120	133	1
154	157	1
3	3	3
104	104	3
138	138	1
24	24	2
32	37	1
22	22	1
105	126	2
26	26	2
86	99	1
66	67	1
84	87	1
94	94	3
19	19	2
85	90	1
122	122	4
116	119	1
77	93	1
90	91	2
65	65	2
142	149	2
146	146	3
40	41	1
136	145	1
101	114	1
104	105	1
65	150	1
136	138	1
147	148	1
57	87	1
62	62	2
124	125	1
93	95	1
134	134	3
2	4	1
145	158	1
120	121	2
104	121	1
28	28	1
89	89	5
25	27	1
20	90	1
84	110	1
73	83	1
55	55	2
37	37	4
96	97	2
80	102	1
64	64	2
98	103	2
94	110	1
48	49	1
149	152	1
127	131	1
148	148	2
56	56	2
33	34	1
20	20	1
67	93	2
153	154	1
137	138	2
114	114	3
53	53	3
128	143	1
93	113	1
158	159	1
125	125	1
157	157	2
77	77	3
138	139	1
62	63	2
84	96	1
88	89	1
154	154	4
86	87	1
16	16	2
47	135	1
80	111	1
82	82	2
152	152	1
7	7	5
119	121	1
107	107	2
136	136	3
85	85	3
64	108	1
20	21	2
154	155	1
78	86	1
102	127	1
152	153	1
64	76	1
110	111	1
63	71	1
35	36	1
31	44	1
157	158	1
121	132	1
13	14	2
36	37	1
0	3	1
12	135	1
130	131	2
10	11	1
115	116	1
48	48	1
75	148	1
105	106	1
91	91	2
7	24	1
93	93	1
13	47	1
141	143	1
155	158	1
1	101	1
4	4	1
72	72	1
63	63	1
39	104	1
118	152	1
31	32	1
98	98	2
135	137	1
126	146	1
155	155	1
9	17	1
145	146	1
79	79	3
50	67	1
86	110	1
111	148	1
134	138	1
117	127	1
114	154	1
35	35	1
19	20	1
87	96	1
69	69	1
109	115	1
116	117	3
6	6	1
87	87	1
111	146	1
111	130	1
105	138	1
133	133	1
85	89	1
85	86	1
67	118	1
125	153	1
115	117	1
113	114	2
112	155	1
104	112	1
40	42	1
67	94	2
67	127	1
68	68	4
98	99	1
139	140	1
79	80	1
31	150	1
118	139	1
21	49	1
23	23	1
79	115	1
45	45	1
77	79	1
70	70	1
122	136	1
123	124	1
78	124	1
17	128	1
35	40	1
156	158	1
36	39	1
117	118	1
9	32	1
146	148	1
0	0	1
47	95	1
106	128	1
32	32	1
128	129	1
75	130	1
2	2	1
24	37	1
3	4	3
68	89	1
5	35	1
47	48	1
54	54	1
79	81	1
9	9	1
144	145	1
133	136	1
14	108	1
92	93	1
112	136	1
93	96	1
49	50	1
122	156	1
120	122	1
14	15	1
52	78	1
148	151	1
34	35	1
66	66	1
7	8	1
88	88	1
67	69	1
71	106	1
83	83	1
140	140	1
91	102	1
122	123	1
108	110	1
73	90	1
97	97	1
