33	33	3
125	125	3
64	64	2
111	111	3
77	80	1
110	110	2
86	86	3
104	104	3
100	127	1
132	133	2
5	5	2
53	53	6
25	25	3
54	54	2
95	95	3
3	3	5
51	51	4
112	112	1
58	58	1
14	14	3
45	60	1
87	87	2
47	47	2
66	66	2
114	114	4
56	56	2
102	102	4
91	91	4
63	64	1
104	105	1
11	11	2
56	57	2
82	82	4
55	72	1
19	19	2
57	102	1
85	87	1
29	30	2
49	50	3
83	101	1
23	23	2
55	106	1
89	89	4
26	27	1
89	90	3
109	112	1
44	44	3
30	62	1
105	105	5
77	77	2
76	76	1
12	12	2
100	100	5
99	99	4
90	91	1
47	57	1
0	0	1
32	33	1
112	113	1
29	46	1
131	131	2
7	118	2
32	32	3
74	74	3
84	84	1
80	102	1
1	39	1
59	62	1
111	113	2
50	50	1
81	81	2
22	23	3
88	88	1
25	28	1
15	20	1
3	4	1
68	68	1
24	25	1
34	34	1
75	75	1
66	104	1
32	120	1
20	21	2
91	93	1
109	109	2
73	78	2
20	20	1
72	72	1
93	93	1
53	54	2
84	101	1
21	34	1
25	26	2
6	6	3
52	52	4
40	43	3
49	49	1
57	124	1
97	98	2
29	29	1
55	55	1
42	42	2
52	92	1
58	59	1
100	101	3
97	97	1
60	60	1
109	111	1
111	112	1
79	79	3
70	71	1
114	115	1
75	97	1
75	79	2
57	58	1
33	34	1
108	108	2
38	43	1
21	21	1
92	92	3
94	94	2
39	39	2
101	101	2
64	86	1
128	128	1
71	72	1
59	59	1
93	98	1
54	55	1
85	85	1
106	106	1
68	69	1
92	94	1
28	28	2
71	73	1
122	122	1
132	132	1
77	96	1
96	96	2
15	15	2
4	113	1
40	40	2
130	130	1
98	98	3
15	70	1
2	2	2
88	99	1
104	106	2
120	120	1
54	123	1
58	62	1
103	103	1
126	126	3
107	107	2
112	122	1
24	24	1
19	20	1
71	71	1
131	132	1
73	73	1
80	81	1
76	77	1
54	71	1
111	114	1
102	133	1
38	39	1
70	70	4
43	43	1
88	89	1
65	65	1
0	104	1
112	114	1
79	80	1
113	114	1
13	13	1
10	11	1
46	46	1
93	95	1
127	127	1
95	103	1
61	81	1
123	123	1
83	85	1
129	129	1
88	92	1
93	97	1
90	92	1
99	108	1
93	94	1
84	94	1
59	60	1
