64	64	2
81	82	1
48	48	1
182	182	2
91	121	1
41	41	5
20	21	7
184	186	1
152	152	7
73	74	3
1	4	1
98	98	5
151	151	5
157	158	2
25	25	3
168	168	6
77	78	3
159	159	5
146	146	5
58	59	2
58	58	4
36	36	3
173	173	1
146	186	1
174	176	1
148	160	1
166	167	2
113	127	2
78	78	5
154	155	6
155	155	8
71	71	2
1	1	4
126	128	1
14	42	1
7	7	6
25	40	5
68	70	1
2	2	5
61	61	1
188	188	6
55	56	3
167	167	7
124	141	1
139	139	7
15	35	2
13	13	4
127	155	2
136	173	1
57	61	1
47	47	4
14	30	2
80	80	5
150	150	3
22	35	1
37	37	4
170	170	3
9	12	1
45	45	2
184	184	2
171	171	2
28	28	3
15	16	2
138	148	1
8	15	1
183	183	6
43	43	5
125	128	1
164	165	3
174	174	2
107	107	4
133	133	1
148	148	3
122	122	3
184	185	1
169	170	3
178	180	1
143	177	1
122	123	3
26	37	1
71	72	4
6	6	6
58	65	1
145	145	4
4	5	1
43	45	1
21	22	1
158	158	3
169	169	3
101	117	1
114	114	1
107	108	1
164	164	6
62	62	4
63	63	1
105	106	1
57	57	2
84	84	2
65	90	1
183	187	1
129	129	5
56	56	3
59	60	1
7	8	2
8	78	3
32	32	2
10	35	2
128	129	1
35	36	4
137	137	2
10	10	3
120	131	1
101	101	3
175	175	9
119	120	3
172	172	3
123	123	1
24	24	2
147	147	3
95	109	1
40	40	2
59	59	1
16	39	2
75	75	1
40	41	1
22	24	1
135	135	2
57	170	1
152	153	3
47	68	1
118	118	3
130	130	3
124	125	4
39	39	3
109	109	1
79	83	1
73	73	2
177	178	1
57	103	2
105	107	1
115	171	2
119	119	3
189	190	3
178	186	1
23	130	1
125	125	3
124	124	3
153	153	3
42	47	1
108	113	1
8	8	3
55	76	1
12	12	4
159	185	1
129	140	2
55	55	2
4	6	1
104	104	4
32	33	2
35	35	2
166	168	2
180	180	1
46	46	4
5	6	2
30	30	5
106	121	2
1	88	1
70	70	1
37	41	1
141	141	2
22	22	2
111	111	1
136	189	1
102	104	1
89	89	4
171	173	2
136	137	1
6	7	1
66	107	1
2	3	1
140	140	2
81	81	3
59	65	2
183	184	1
19	19	6
143	143	2
43	44	2
44	44	4
68	85	1
131	131	3
102	102	3
183	186	1
95	153	1
86	86	1
185	186	2
80	106	1
65	67	1
139	142	1
38	38	3
11	13	1
116	119	1
23	23	3
95	97	1
181	181	1
66	101	1
101	104	2
60	89	1
134	135	1
9	9	1
25	33	1
18	18	7
90	90	4
23	37	1
85	85	2
65	65	4
3	3	2
71	74	3
160	166	1
137	145	1
162	162	2
19	21	2
95	103	1
148	151	1
84	85	1
6	58	1
53	53	5
125	126	2
82	82	2
169	189	1
26	26	2
122	125	1
93	94	1
157	157	3
16	16	1
148	167	1
104	115	1
188	189	1
113	113	2
172	177	1
4	4	3
93	93	1
138	179	1
94	94	5
121	121	3
179	181	2
31	31	6
78	119	1
47	87	1
106	116	2
77	77	4
153	155	1
171	189	1
136	136	1
177	177	3
117	117	2
174	175	2
17	126	1
128	128	4
113	114	1
79	145	1
176	180	1
16	26	1
137	138	1
37	38	1
91	104	1
61	62	1
59	61	2
97	98	1
0	1	3
170	171	1
97	99	1
80	82	1
69	69	1
18	19	2
57	100	1
179	179	4
57	134	1
135	138	1
67	67	7
135	137	1
59	63	1
111	114	2
16	21	1
88	89	2
179	180	1
53	54	1
92	92	2
103	103	4
113	123	1
129	130	1
148	152	1
17	18	1
33	34	2
84	87	1
45	46	1
17	17	4
55	107	1
0	14	1
97	97	1
147	151	1
43	47	2
132	134	1
110	110	1
130	131	1
108	111	1
170	173	2
36	37	1
113	116	1
100	100	1
56	57	2
42	82	1
132	133	1
10	11	2
143	178	2
42	42	1
165	165	1
140	144	1
76	78	3
124	126	1
87	95	1
1	2	1
142	145	1
121	122	1
86	140	2
131	132	2
156	156	2
37	53	1
66	67	1
13	189	1
112	113	1
47	48	1
76	76	5
127	127	1
90	125	1
160	162	1
76	84	1
27	28	1
108	131	1
155	156	1
88	88	1
69	71	1
95	96	1
0	2	1
190	190	1
5	89	1
160	161	1
73	77	1
167	168	1
156	183	1
79	79	2
61	63	1
14	22	1
186	186	1
160	164	1
29	29	2
29	127	1
79	84	1
19	48	1
149	149	2
168	179	1
126	126	1
166	166	1
95	99	1
58	60	1
75	76	2
30	31	3
181	183	1
57	84	1
105	105	2
101	103	1
11	11	3
170	185	1
5	5	3
143	145	1
119	121	1
95	95	1
78	79	1
141	162	1
172	173	2
181	182	2
91	91	1
52	70	1
114	150	1
106	106	3
14	15	1
159	170	1
32	35	1
106	187	1
160	184	1
101	102	1
168	169	1
61	171	1
176	176	1
31	35	1
102	113	1
12	43	1
33	33	1
125	155	1
107	168	1
74	74	2
166	174	2
57	99	1
146	187	1
64	66	1
16	18	1
44	45	1
90	91	1
11	12	1
78	106	1
13	20	1
104	106	1
96	97	1
152	155	1
63	64	2
165	168	1
13	18	1
23	24	1
83	83	2
98	99	1
87	88	1
149	159	1
71	94	1
24	25	1
189	189	1
74	75	1
96	96	2
72	73	1
19	22	1
96	128	1
99	100	1
92	116	1
132	132	1
27	27	1
60	64	1
142	142	1
138	150	1
71	139	1
14	14	2
137	146	1
38	78	1
143	144	1
82	85	1
154	154	1
48	75	1
64	65	1
84	187	1
116	116	2
87	87	2
138	138	1
117	128	1
57	58	1
37	43	1
72	72	1
123	124	1
81	84	1
72	76	1
28	65	1
45	47	1
31	32	1
62	67	1
54	55	1
142	143	1
162	163	1
26	86	1
93	100	1
132	173	1
22	23	1
155	157	1
104	105	1
153	154	1
21	21	1
77	80	1
133	134	1
103	113	1
