237	237	3
191	194	1
64	64	7
36	117	2
27	27	15
152	152	5
46	46	10
116	117	3
84	85	3
162	180	1
23	223	2
37	37	6
53	55	2
166	166	6
60	60	9
146	147	2
190	192	2
66	66	8
147	148	1
134	134	3
0	0	8
203	203	2
176	187	2
234	236	3
226	232	1
142	143	2
136	143	1
125	126	2
69	70	2
68	69	4
4	6	2
141	143	4
88	88	5
35	51	2
53	54	1
131	133	1
109	197	1
160	160	13
48	55	1
84	139	1
99	99	10
131	131	1
8	8	2
96	96	3
130	134	1
184	188	1
74	85	1
46	77	1
188	188	4
180	180	8
239	239	5
73	73	5
111	111	5
58	58	9
13	15	1
171	171	7
126	154	1
119	126	1
191	233	1
6	22	1
47	47	10
143	143	3
123	123	7
168	182	1
105	105	4
221	221	8
35	35	6
174	182	1
28	29	2
176	184	2
49	49	5
11	44	1
42	43	2
128	134	1
24	25	2
145	149	1
210	211	1
44	45	11
43	43	4
151	163	2
158	158	4
223	230	2
30	54	1
170	170	8
106	106	7
177	185	3
148	148	5
187	187	3
228	228	3
150	151	3
19	40	2
142	167	1
50	50	6
23	153	1
230	230	1
161	162	2
178	179	1
134	171	2
16	16	8
104	104	7
41	41	3
21	22	3
211	211	1
152	205	1
168	168	8
137	139	2
178	192	1
181	182	2
10	11	2
131	170	1
133	140	1
52	52	5
76	76	5
213	213	6
220	220	5
179	179	7
67	67	5
70	70	7
57	76	2
229	230	2
157	157	7
149	149	6
20	232	3
197	222	1
32	32	5
224	226	2
147	147	2
113	118	1
5	5	4
229	229	2
14	14	6
44	44	7
22	63	1
4	4	4
138	138	5
119	134	2
55	55	6
77	77	2
122	127	1
178	183	4
68	68	2
116	128	1
11	11	7
165	166	4
165	165	7
158	159	2
205	205	2
6	18	1
27	28	4
6	6	8
108	108	5
153	153	5
116	116	5
26	26	8
179	191	1
115	133	1
123	124	1
170	171	2
86	131	1
150	150	6
151	151	9
109	114	2
125	127	1
4	5	3
166	167	2
191	204	1
34	35	2
59	80	1
193	214	1
125	125	9
191	192	1
71	71	3
124	126	1
65	66	1
48	54	1
167	167	7
26	28	1
18	19	3
161	161	6
121	124	2
172	172	11
17	18	4
179	181	3
85	85	10
47	54	1
62	62	9
28	28	10
9	9	7
33	34	2
122	129	1
154	165	3
2	2	5
121	129	1
215	217	1
77	78	4
201	202	1
39	119	1
86	86	6
163	210	1
42	152	1
30	30	8
182	182	8
112	112	6
8	15	2
121	121	5
212	213	4
114	114	3
82	83	4
201	203	1
234	237	3
76	79	1
156	158	1
112	113	5
211	229	1
209	209	3
19	217	1
74	74	10
135	136	2
8	11	1
190	190	4
101	102	3
64	68	1
194	196	3
59	66	1
56	56	10
33	55	1
147	152	1
37	40	1
139	139	2
30	31	3
21	23	5
113	113	11
193	193	1
140	140	2
118	118	3
83	83	2
174	177	1
137	137	3
181	183	1
143	168	1
184	186	1
23	23	10
12	12	8
164	164	4
100	101	3
86	109	1
31	173	1
161	186	1
160	161	2
28	31	1
32	33	4
241	241	2
161	163	3
235	235	3
124	124	6
35	36	1
180	200	1
75	75	9
199	199	5
29	30	1
156	177	1
115	115	8
150	161	2
177	177	6
117	117	3
175	175	12
4	18	1
222	222	7
118	217	1
146	146	5
186	186	6
32	34	1
36	36	4
100	100	5
190	220	2
34	73	1
113	119	2
183	183	2
81	83	3
49	50	5
42	45	1
54	81	2
0	50	1
182	188	1
45	45	9
15	15	6
79	79	10
101	101	11
42	42	9
38	38	4
166	171	1
20	127	2
106	117	1
17	17	3
129	143	1
115	123	2
225	225	3
125	129	1
39	42	1
136	136	7
162	166	1
185	206	1
12	217	1
157	171	1
174	175	2
201	201	2
58	67	2
132	132	2
22	22	3
181	181	4
31	31	4
69	69	10
29	29	2
1	49	1
58	61	1
119	119	4
59	59	7
191	191	4
58	108	1
16	21	1
173	173	6
169	177	1
76	77	1
71	75	1
39	43	5
175	177	2
197	231	1
68	82	1
169	169	9
172	175	1
152	153	2
229	234	1
182	183	2
202	202	7
159	159	4
71	72	5
72	75	2
121	135	1
154	156	3
163	181	1
139	159	2
210	210	1
9	182	2
19	19	7
224	224	5
115	117	1
99	100	3
234	234	2
144	148	1
208	208	1
154	154	4
214	214	5
64	66	2
103	103	5
218	218	7
142	142	5
67	76	1
28	32	2
59	61	2
227	227	3
174	178	1
234	235	3
109	112	1
127	127	2
3	18	1
176	176	6
32	76	1
192	192	4
10	25	1
206	208	1
1	4	1
25	25	4
100	108	2
185	186	2
198	198	4
15	16	2
238	238	6
57	83	1
1	2	1
152	170	1
29	174	1
54	198	1
217	227	2
126	155	1
33	33	5
7	14	1
158	170	1
39	60	1
52	54	1
20	42	1
215	215	5
129	129	9
41	44	1
145	145	2
155	155	4
165	189	1
173	180	1
127	149	2
58	59	2
232	233	2
8	16	1
206	206	7
134	154	1
190	209	1
173	182	1
183	184	4
184	184	6
198	218	1
241	242	2
197	214	1
13	14	3
152	156	2
59	69	1
20	20	5
105	129	1
68	77	1
60	71	1
167	182	1
149	166	2
169	170	2
33	47	1
140	142	1
128	128	8
0	28	1
146	180	1
109	109	5
188	192	2
150	157	1
19	151	1
196	196	6
214	221	1
84	84	5
95	96	1
188	196	1
161	187	1
65	68	2
135	135	5
99	121	2
154	175	1
238	239	1
3	3	2
82	88	1
167	178	1
193	226	1
192	193	3
143	163	2
186	187	2
208	228	2
24	24	7
130	130	3
79	104	2
33	66	1
97	97	3
60	73	1
216	216	2
34	54	1
55	56	2
30	96	1
132	133	2
21	49	1
37	42	1
37	38	2
167	168	1
57	57	2
139	167	1
135	183	1
110	112	1
9	10	1
20	22	1
19	22	3
151	161	1
83	84	2
29	168	1
42	46	1
67	73	1
99	101	1
10	10	7
65	67	2
116	118	2
80	80	9
156	157	3
39	39	1
21	24	2
227	228	1
151	180	1
107	108	3
132	134	1
236	236	5
58	66	1
112	132	1
28	39	1
84	128	1
216	222	1
26	68	1
187	198	1
121	122	5
188	198	1
65	78	1
130	131	1
11	97	1
16	42	1
217	217	5
0	8	2
97	111	3
169	171	1
183	185	1
219	219	7
188	189	3
154	166	2
239	240	1
165	167	1
46	61	1
70	71	1
173	175	2
50	53	1
17	38	1
226	226	5
187	189	1
1	1	3
3	157	1
9	21	1
3	21	2
159	161	1
86	112	1
179	180	1
178	188	1
21	21	4
159	169	1
182	185	1
212	212	4
126	126	4
240	240	5
70	77	1
0	16	1
102	102	3
24	43	3
141	164	1
224	240	3
46	57	1
16	38	1
212	227	1
135	152	1
17	20	1
222	224	2
118	121	1
233	233	5
80	84	1
162	162	4
154	187	1
24	26	1
15	47	1
225	226	1
25	26	2
127	138	1
145	171	2
49	51	1
0	148	1
51	53	2
118	128	1
48	48	5
150	153	1
164	169	1
169	201	1
13	13	4
7	8	2
18	20	2
207	208	2
99	178	1
137	144	2
40	81	3
207	207	3
150	154	1
177	178	4
7	16	1
125	151	1
140	149	1
30	40	1
221	222	1
53	53	4
153	154	2
58	60	3
223	223	2
97	113	1
49	60	2
7	7	5
31	36	1
39	40	3
59	84	2
146	150	1
135	139	2
242	242	7
151	152	1
175	178	1
205	207	1
49	63	2
69	74	2
9	97	1
122	122	2
180	181	1
144	144	4
186	242	1
35	38	1
41	56	1
31	32	1
67	85	1
6	12	1
39	48	1
196	202	2
95	95	2
81	82	1
11	86	2
98	99	2
215	216	1
2	3	2
34	40	2
81	81	9
29	31	3
177	179	1
103	105	1
125	139	1
78	79	1
58	62	2
67	68	3
12	38	1
224	227	2
14	15	1
25	43	2
171	172	4
20	21	3
106	121	1
105	115	1
34	34	4
139	147	1
65	65	7
120	172	1
181	188	1
51	51	5
8	26	1
151	183	1
206	220	1
74	75	1
78	78	4
32	39	1
156	156	3
137	140	1
106	107	1
111	175	1
154	230	1
188	210	2
52	53	4
192	198	1
31	97	1
194	194	4
204	205	3
107	146	1
36	37	1
129	178	2
159	192	1
154	162	1
9	11	1
174	180	2
139	163	1
85	88	2
64	176	1
184	185	2
185	187	1
238	240	1
173	188	1
175	179	1
173	174	1
172	176	1
142	159	1
213	221	1
163	164	2
134	135	1
192	220	1
38	39	2
61	61	6
113	114	2
154	155	2
141	183	1
20	24	2
11	30	1
133	134	1
44	56	2
33	43	2
51	60	1
23	54	1
107	107	2
129	137	1
7	11	1
232	232	2
200	206	1
22	24	1
30	33	1
180	182	1
99	172	1
168	173	1
152	160	1
69	85	1
3	4	1
25	46	1
27	30	1
55	89	1
225	232	1
127	161	1
178	178	3
103	108	1
147	150	1
199	206	2
142	146	1
174	174	8
122	123	1
106	128	1
217	219	1
30	61	1
33	36	1
160	169	1
66	71	1
129	130	2
20	242	1
150	168	1
170	183	1
183	198	2
190	191	1
7	12	1
236	237	1
141	141	4
128	130	1
79	81	1
80	83	1
165	186	1
41	42	1
40	41	2
204	204	1
75	81	1
145	153	1
30	79	1
163	163	3
25	45	1
231	231	4
154	161	1
80	81	1
62	66	1
56	58	1
85	98	1
181	186	1
202	205	1
23	24	2
75	77	1
3	7	1
72	72	1
0	32	1
82	82	2
191	220	1
213	215	1
167	169	1
220	221	1
12	16	1
28	232	1
150	170	1
171	236	1
30	34	1
133	133	6
1	13	1
214	215	1
233	238	2
149	159	1
6	7	1
0	1	1
232	236	1
60	61	1
69	78	1
13	53	1
149	150	2
185	185	1
129	138	1
171	178	1
236	240	1
54	54	1
175	176	3
52	60	2
12	30	1
111	179	1
140	143	2
139	143	1
51	54	1
4	19	2
22	23	1
148	202	1
172	173	1
46	47	1
132	141	1
187	188	1
179	185	1
46	85	1
203	212	1
190	208	1
138	142	1
179	203	1
151	153	1
178	182	1
56	59	2
190	210	1
104	105	1
181	237	1
183	187	1
72	91	1
232	242	1
111	112	1
65	102	1
11	12	2
144	149	1
195	215	1
152	172	1
176	177	2
171	182	2
20	44	1
153	157	1
32	35	1
98	100	1
4	7	1
132	136	1
114	128	1
162	165	1
172	177	2
120	120	4
210	226	1
119	120	2
164	168	3
37	62	1
179	184	1
41	50	1
120	122	1
163	165	1
141	142	1
117	118	2
2	23	1
26	44	1
143	151	1
221	223	1
185	190	1
106	110	1
85	86	1
180	187	2
164	176	1
57	58	1
88	89	1
189	190	1
182	199	1
35	165	1
164	165	1
47	63	1
124	133	1
71	73	2
148	157	1
159	162	1
137	141	1
55	76	1
57	84	1
102	106	1
1	6	1
56	80	1
159	160	2
46	97	1
78	84	1
43	120	1
222	228	1
215	242	1
89	89	2
214	241	1
2	4	1
171	174	1
99	137	1
189	192	1
36	41	1
161	170	1
54	55	1
18	18	4
5	7	1
9	62	1
170	178	1
64	65	2
237	238	1
213	216	1
48	80	1
130	173	1
171	180	1
235	237	1
9	225	1
45	46	1
23	49	1
175	180	1
97	193	1
22	187	1
87	87	1
149	158	1
43	47	1
122	124	1
33	39	1
68	70	1
114	129	1
103	104	1
157	167	1
182	221	1
63	65	1
11	21	1
161	167	1
11	62	1
42	48	1
16	17	1
79	80	1
16	167	1
146	181	1
168	177	1
39	59	1
184	196	1
84	220	2
63	63	2
174	206	1
25	60	1
126	127	1
39	49	1
231	232	1
7	23	1
227	230	1
163	166	1
169	173	1
7	21	1
12	41	1
136	137	2
22	101	1
189	189	1
159	206	1
122	136	1
199	200	1
107	109	1
20	128	1
14	35	1
6	146	1
228	229	1
177	223	1
182	204	1
5	6	1
138	139	1
14	19	1
45	50	1
195	196	1
145	146	2
44	109	1
202	206	1
162	171	1
134	136	1
16	86	1
139	140	1
7	56	1
180	183	1
40	40	2
104	107	1
31	33	1
13	23	1
53	57	2
13	25	1
153	161	1
19	23	1
202	203	1
206	207	1
208	209	1
113	121	1
167	185	1
114	115	1
122	152	1
82	85	1
172	198	1
106	118	1
105	106	1
116	141	1
5	16	1
10	39	1
9	20	1
120	145	1
160	190	1
33	144	1
166	168	1
200	209	1
162	181	1
76	80	1
66	67	1
108	169	1
118	153	1
62	70	1
168	180	1
27	39	1
129	159	1
44	53	1
34	39	1
23	36	1
158	169	1
