114	141	1
137	137	4
223	233	1
17	17	5
16	41	1
9	9	3
132	178	1
182	200	1
31	31	3
177	177	3
106	107	1
124	124	1
152	152	2
163	165	2
216	234	1
99	99	3
168	168	3
123	125	1
83	83	3
14	14	4
3	3	4
141	141	3
18	18	2
63	145	1
182	182	2
147	148	1
234	234	4
157	157	2
82	82	2
72	72	3
106	106	2
146	146	3
88	88	4
4	5	2
33	131	1
129	129	3
181	181	1
101	135	2
76	76	3
216	216	2
81	83	1
221	222	1
38	38	5
135	135	5
36	37	1
49	50	1
192	192	3
122	123	1
9	10	1
161	161	2
169	170	2
159	159	1
64	64	3
189	190	1
14	16	1
40	107	1
107	108	2
65	66	3
174	175	1
128	128	5
123	123	1
26	27	2
37	37	4
47	47	3
185	185	2
211	223	1
226	227	3
238	238	3
81	171	2
10	10	4
207	231	1
114	114	3
29	78	1
207	207	1
138	139	1
220	220	1
65	65	3
236	239	2
147	147	2
201	201	3
51	51	1
154	164	1
134	163	2
21	21	2
175	175	1
187	187	2
120	145	2
12	12	1
217	217	1
178	179	2
127	127	3
219	219	2
150	151	3
168	170	1
98	99	2
18	22	1
169	169	1
69	85	1
26	26	2
227	227	2
216	217	1
39	40	1
81	81	1
173	174	2
19	19	1
28	28	3
219	234	1
51	136	1
84	84	2
17	18	2
156	156	4
45	45	3
20	20	2
57	59	1
198	198	2
58	58	2
16	16	2
145	145	2
74	74	1
180	180	3
172	203	1
120	179	1
56	56	1
189	224	1
103	105	2
85	85	3
11	11	1
221	221	1
111	111	2
183	183	1
3	63	1
122	122	1
30	30	1
218	219	2
160	175	1
70	70	1
163	163	3
25	25	3
172	173	2
30	31	2
68	128	2
153	153	2
208	239	1
213	213	1
75	80	1
178	178	3
39	39	4
73	74	2
186	186	1
158	158	2
167	180	1
226	226	3
108	108	2
189	223	1
225	226	1
176	203	1
152	153	1
208	231	1
133	134	1
175	176	1
59	59	1
233	233	1
34	34	1
39	42	1
142	142	2
185	186	1
170	170	4
1	1	3
97	98	1
119	122	1
18	19	2
38	39	1
54	55	2
221	224	1
78	78	1
134	134	5
109	231	2
148	148	1
193	195	1
157	166	1
42	42	2
125	138	1
171	171	3
222	225	1
176	176	3
167	168	2
48	48	3
84	85	1
160	174	1
63	70	1
133	157	2
27	27	2
5	5	2
195	195	2
11	25	1
150	177	1
151	152	1
120	120	2
196	197	1
176	180	1
58	78	1
226	228	1
126	127	1
222	222	1
184	185	1
198	205	1
211	220	1
139	139	2
109	109	1
101	102	1
53	64	1
199	199	1
116	117	2
126	126	3
236	237	2
67	67	3
125	125	1
239	239	1
206	206	1
121	127	1
231	231	1
242	242	3
136	136	1
154	154	1
160	160	1
234	236	1
119	119	1
184	187	3
18	179	1
166	167	1
48	57	1
128	172	1
16	18	1
151	151	4
20	54	2
223	223	2
76	78	1
43	45	1
64	149	1
102	102	1
71	71	2
45	88	1
212	212	1
232	232	1
191	233	1
213	225	1
151	177	1
2	2	1
181	182	1
9	12	1
191	191	3
36	42	2
225	225	3
139	140	1
11	43	2
37	38	1
107	107	1
166	177	1
35	35	3
60	60	1
13	15	1
75	84	1
205	205	1
86	86	2
53	54	1
158	172	1
150	150	5
16	17	1
33	33	3
79	82	2
107	109	2
7	7	2
146	148	1
80	80	2
179	180	1
202	202	2
73	73	3
11	24	1
178	182	1
68	70	2
32	47	1
179	179	3
110	110	1
71	174	1
5	33	1
179	182	1
158	169	1
143	147	1
211	211	2
228	228	3
7	15	1
203	203	1
217	218	2
24	43	1
143	144	1
101	131	1
241	241	2
52	52	1
24	24	2
88	89	1
180	182	1
66	67	1
7	8	1
63	118	1
1	2	1
15	15	1
214	214	2
170	172	1
114	115	1
91	91	1
29	29	3
46	69	1
192	202	1
133	133	1
152	154	1
144	144	2
173	180	1
23	49	1
131	169	1
8	169	1
39	58	1
54	78	1
207	208	1
61	61	1
222	223	1
122	168	1
117	146	1
78	84	1
49	49	1
37	120	1
209	228	1
166	166	1
58	59	1
20	22	1
95	95	1
4	4	1
63	63	2
212	225	2
197	210	1
118	118	1
41	41	1
123	146	1
141	142	1
32	33	1
62	111	1
188	189	1
134	166	1
46	47	1
77	79	1
135	143	1
184	198	1
196	209	1
34	35	1
189	189	1
64	65	1
162	162	1
0	1	1
124	125	1
23	24	1
115	115	1
209	225	1
196	208	1
237	237	1
130	130	1
116	147	1
115	118	1
173	177	1
184	184	1
75	75	1
208	208	2
200	200	1
23	34	1
174	174	1
187	234	1
51	52	1
172	189	1
142	148	1
44	70	1
40	40	1
229	231	1
153	154	1
25	32	1
18	20	1
228	238	1
96	167	1
39	53	1
173	173	1
112	113	1
224	224	2
216	219	1
149	152	1
205	223	1
128	175	1
113	113	1
79	79	1
162	167	1
36	39	1
235	237	1
30	38	1
140	140	1
212	213	1
149	149	1
103	104	1
112	159	1
55	57	1
