115	115	12
225	225	1
247	247	7
203	203	10
54	55	6
173	173	3
183	186	1
44	44	7
246	247	4
15	15	5
226	226	5
212	212	8
176	236	1
4	4	6
71	72	4
184	185	1
195	210	1
40	40	8
208	208	5
33	33	1
93	93	1
201	201	8
7	7	3
20	20	6
179	179	9
221	222	5
19	19	10
165	166	3
51	161	1
34	37	1
181	181	5
232	232	3
11	11	6
58	60	1
144	144	1
179	247	1
8	8	4
10	11	2
215	219	2
30	31	2
220	220	6
218	219	1
154	154	2
102	103	2
219	219	2
243	243	8
24	24	7
67	159	1
175	219	2
105	105	6
237	237	7
26	26	7
245	245	3
59	59	1
35	35	5
165	178	1
79	79	5
112	112	2
218	218	4
180	180	4
92	92	2
85	85	5
219	220	1
29	30	2
178	178	7
229	230	3
38	38	8
231	233	2
47	47	4
119	119	4
242	242	4
229	236	2
166	166	9
234	235	8
158	158	3
3	4	2
109	109	5
76	76	5
116	116	5
41	42	2
209	209	4
36	36	6
200	200	7
56	79	2
99	99	1
91	91	6
113	113	3
182	182	8
42	42	8
177	177	3
69	69	7
64	64	4
67	158	1
68	69	2
119	225	1
241	241	6
29	29	8
67	68	2
65	65	5
232	233	7
235	235	3
37	37	6
211	211	6
202	203	1
193	193	4
181	182	1
171	179	2
215	215	2
61	62	2
206	206	2
3	3	2
162	162	6
185	185	5
80	80	1
92	93	1
28	28	4
55	55	6
3	8	1
48	180	1
62	68	2
47	48	2
186	187	1
199	199	3
86	87	3
54	54	2
188	189	2
17	17	1
207	208	1
231	231	6
200	201	2
74	74	3
113	115	1
183	183	3
77	77	4
190	191	3
178	249	1
97	97	2
88	101	1
39	39	2
191	191	4
198	198	6
196	196	2
17	20	4
66	66	9
48	48	2
222	222	4
164	164	5
173	230	1
246	246	1
41	116	1
212	244	1
70	72	1
171	190	2
34	34	5
164	165	3
230	231	3
47	52	2
102	111	1
49	159	1
172	172	6
47	64	1
248	249	1
222	223	1
198	219	1
101	101	1
197	197	3
210	210	5
209	223	1
206	207	3
175	176	4
216	218	1
75	76	2
182	228	2
236	236	9
71	71	1
184	184	2
51	70	2
169	169	2
239	239	2
102	102	5
74	75	1
87	88	1
23	23	11
107	107	1
66	68	1
7	29	1
75	75	4
213	213	5
17	21	2
78	78	1
9	15	2
108	108	2
214	217	2
15	23	2
228	228	6
12	12	3
177	247	1
245	246	5
111	111	3
5	5	4
52	52	9
198	201	1
4	5	1
87	90	1
215	240	1
22	22	5
233	237	1
168	169	1
88	88	3
49	49	4
212	213	2
214	214	3
229	235	1
209	210	2
146	147	1
53	53	3
118	118	1
247	248	3
171	201	1
13	14	1
109	110	1
243	244	3
8	42	1
48	175	1
192	192	3
60	62	1
6	9	1
114	115	3
56	58	1
115	116	4
238	238	2
170	171	3
176	176	2
186	186	4
197	219	1
32	32	3
117	117	2
67	70	2
171	171	4
89	89	6
164	168	1
228	229	1
200	209	1
204	204	5
179	185	2
83	83	1
106	106	3
57	59	1
176	177	2
157	158	1
221	221	5
81	81	1
30	30	3
197	200	1
118	119	4
50	50	3
84	84	3
56	76	1
152	152	4
155	155	2
105	106	3
172	179	1
167	167	5
196	198	3
244	248	1
108	109	1
179	180	1
18	234	1
248	248	4
242	243	1
77	78	3
44	49	1
239	240	1
157	157	2
0	1	2
31	31	4
44	45	1
194	194	2
183	213	2
81	83	1
1	1	2
208	209	2
193	194	1
82	83	1
21	21	3
78	79	1
1	29	1
68	68	2
60	86	1
79	84	1
234	234	4
241	244	1
26	27	3
51	53	2
165	165	1
187	191	1
229	229	2
34	35	1
49	50	3
50	157	1
187	187	1
67	170	1
90	91	2
45	205	1
170	170	6
113	114	1
170	172	1
25	25	2
225	245	1
116	117	2
61	68	1
45	45	2
19	24	1
176	181	1
87	100	1
192	193	1
50	158	1
174	174	1
23	59	2
161	161	1
46	46	6
86	86	1
95	100	2
208	223	1
163	178	1
194	195	4
65	71	1
110	110	1
26	41	1
55	62	1
161	162	1
63	63	5
230	230	2
215	217	1
54	156	1
45	156	1
227	227	1
145	145	2
163	163	3
180	207	1
232	234	1
35	37	1
81	82	2
79	82	2
22	23	2
120	120	2
88	99	1
94	94	4
244	244	1
81	105	1
16	16	3
180	201	1
227	230	2
88	89	1
43	43	5
15	24	2
57	57	2
151	153	1
206	226	1
150	150	2
179	249	1
167	168	1
169	170	1
12	17	2
32	34	1
217	218	1
156	156	4
190	190	2
33	34	1
59	60	2
213	228	1
211	212	1
95	101	1
31	32	1
15	25	1
93	111	1
28	29	3
51	51	2
18	18	5
173	183	1
187	197	1
2	2	1
186	197	1
29	31	2
55	57	1
21	22	1
72	72	1
50	173	1
162	163	2
173	175	1
205	205	4
203	246	1
144	150	1
233	233	2
215	221	1
45	117	1
90	108	2
106	107	2
173	209	2
90	90	4
242	248	1
48	49	2
207	207	2
152	153	1
201	229	1
175	228	2
231	235	1
227	228	1
153	154	2
85	86	2
68	70	1
103	118	2
6	6	3
93	229	1
163	164	1
184	189	1
159	170	1
90	109	1
69	70	2
90	92	2
23	24	2
169	210	1
201	202	1
167	213	1
41	41	1
66	198	1
95	95	2
45	46	2
56	94	2
159	159	1
79	119	1
99	106	1
223	223	2
100	101	1
70	71	1
57	60	1
175	175	1
175	207	1
200	235	1
78	116	1
170	199	1
204	225	1
84	85	2
35	36	2
198	200	1
200	214	1
87	92	1
222	246	1
183	211	1
182	183	1
24	26	1
79	80	1
222	248	1
175	185	1
231	232	2
17	19	1
66	70	1
42	112	1
57	76	1
103	103	1
217	219	1
10	10	1
194	196	1
224	224	2
12	40	1
177	181	1
51	54	1
178	179	1
174	204	1
213	214	1
110	114	1
160	160	1
86	95	2
114	114	1
150	151	1
43	44	1
56	56	1
14	15	2
76	77	1
82	87	1
46	47	1
244	246	2
197	235	1
104	104	1
7	8	1
61	61	2
160	161	1
59	78	1
6	7	1
193	210	1
62	62	2
217	217	1
147	147	1
75	94	1
51	175	1
34	36	1
9	9	1
113	116	1
199	211	1
226	245	1
207	241	1
183	245	1
210	211	1
27	27	1
195	196	1
65	66	1
216	216	2
211	230	1
224	225	1
0	0	1
19	20	1
110	112	1
212	214	1
60	67	1
181	244	1
67	69	1
114	117	1
173	213	1
