80	84	1
44	44	2
57	57	3
20	20	4
151	151	1
11	25	1
205	205	2
43	47	2
165	171	1
209	209	2
184	184	3
58	61	1
181	181	1
94	94	4
27	27	2
200	200	1
59	59	1
228	231	1
106	108	2
172	172	1
47	47	2
201	201	1
229	229	4
10	10	2
19	19	7
113	116	1
84	85	1
30	30	2
53	53	4
160	180	1
203	204	4
40	40	4
5	6	2
101	102	2
8	8	3
238	239	2
99	100	4
81	82	2
61	61	2
8	37	2
42	42	3
198	198	2
15	15	5
9	9	3
202	202	2
52	52	2
207	207	6
216	221	1
167	167	2
55	55	4
230	230	2
246	246	2
47	225	1
12	12	6
102	102	2
43	43	3
6	7	2
58	102	1
174	174	1
226	226	5
186	192	1
221	233	1
169	173	4
68	68	2
238	238	2
22	22	5
58	58	1
234	234	4
150	150	1
186	187	1
55	76	1
46	46	2
236	236	2
197	201	2
115	116	1
175	175	1
110	110	3
29	29	1
56	56	2
182	182	8
60	62	1
65	65	2
2	2	1
239	239	1
222	222	3
111	111	3
224	225	1
203	203	4
157	157	2
31	31	4
50	51	1
245	246	4
57	58	2
215	216	3
212	212	2
166	167	1
16	53	1
97	97	1
162	182	2
204	206	1
33	33	4
26	27	1
213	213	1
115	115	2
153	153	3
91	92	1
64	64	2
99	99	1
61	62	1
213	220	1
171	171	1
186	189	2
162	162	5
225	225	1
183	193	1
12	39	1
189	191	3
36	36	1
73	74	2
63	64	2
155	155	4
97	98	2
32	43	1
5	59	1
241	248	2
237	237	3
45	45	2
221	221	1
59	84	1
108	108	2
92	92	1
4	5	1
87	90	1
166	166	1
23	23	3
49	51	1
74	74	1
108	158	3
54	54	2
180	180	2
156	156	2
160	161	1
28	28	1
214	220	1
84	84	3
245	245	4
91	91	2
26	26	2
67	95	1
37	37	3
162	194	1
168	168	3
223	224	1
220	220	3
62	62	2
178	178	4
224	224	2
66	66	1
192	192	1
24	25	1
39	40	1
38	38	4
6	6	3
116	116	2
198	208	1
48	48	3
169	171	2
195	195	1
74	88	1
153	163	1
231	233	1
223	223	2
2	3	1
235	235	3
169	169	1
112	112	2
216	216	1
173	173	2
159	159	3
86	87	1
231	231	4
77	78	1
219	225	1
113	114	3
180	181	1
103	104	1
5	5	1
208	211	1
19	20	1
95	95	1
9	45	1
192	195	1
22	46	1
101	101	1
206	206	1
6	8	1
210	210	1
119	119	2
188	192	1
197	200	1
85	85	2
78	78	1
102	103	1
73	80	2
244	245	2
216	217	2
161	161	2
24	71	1
165	165	2
237	239	1
34	34	3
77	77	2
226	228	1
96	98	1
240	242	1
197	197	1
117	117	2
117	120	1
72	75	1
88	88	1
170	170	1
26	109	1
20	21	1
225	226	1
54	68	2
17	17	3
8	9	1
79	84	1
5	7	1
171	172	1
35	35	6
14	14	1
23	24	2
210	220	1
163	163	1
89	89	3
80	82	1
178	184	1
217	218	1
42	43	1
79	79	1
114	115	1
14	39	1
199	199	1
57	60	1
114	147	1
44	45	1
48	66	1
54	55	1
204	204	3
109	109	1
248	249	1
60	60	1
4	4	1
154	154	1
241	241	3
145	145	1
160	160	1
21	21	1
167	168	1
158	225	1
103	108	1
157	160	1
43	229	1
151	162	1
11	11	1
228	228	1
206	207	1
153	154	1
208	208	3
152	153	1
86	86	1
156	206	1
104	104	1
51	51	4
233	233	1
244	244	1
7	7	3
24	24	1
189	189	1
18	18	2
240	241	1
58	108	1
9	46	1
69	69	1
183	183	1
41	43	1
185	185	1
16	16	1
193	195	1
233	236	1
152	152	1
49	50	1
39	39	1
94	99	1
43	52	1
93	94	1
95	96	1
16	28	1
190	190	1
72	72	1
217	219	1
164	164	1
209	210	1
182	191	1
18	145	1
25	25	1
114	165	1
71	72	1
32	182	1
7	9	1
100	100	1
196	196	1
173	184	1
161	162	1
70	71	1
218	218	1
47	224	1
31	32	1
187	187	1
74	75	1
223	229	1
25	26	1
210	223	1
32	32	1
