119	119	3
20	26	1
12	13	1
29	29	2
126	126	1
108	108	4
75	75	4
12	12	3
26	26	5
68	117	1
80	91	1
28	30	3
6	7	2
31	32	2
18	19	2
93	94	1
36	38	1
88	92	1
122	122	6
82	82	3
77	77	1
100	100	3
63	63	5
66	66	3
117	117	4
115	115	5
99	99	2
89	89	1
85	87	2
86	86	1
42	42	3
121	121	2
133	133	4
44	44	1
86	125	2
91	91	1
35	35	2
70	70	6
105	105	2
46	47	2
82	109	1
19	47	1
132	132	3
109	109	2
81	81	6
83	91	1
103	103	1
28	28	3
57	57	2
37	37	2
19	19	1
66	68	1
99	100	2
110	111	1
78	78	3
46	46	5
128	129	1
56	56	4
81	82	1
37	38	3
36	36	3
125	125	2
120	120	3
118	118	7
68	68	5
73	73	3
131	131	1
4	5	2
104	104	3
100	109	1
78	113	1
61	61	4
124	124	3
48	48	2
64	65	1
19	31	1
25	25	1
79	81	1
74	74	3
2	3	1
36	43	4
75	78	1
111	116	1
129	129	4
85	95	1
80	80	2
40	40	1
105	121	1
20	20	4
9	11	1
3	3	1
81	110	1
58	58	2
112	123	1
62	62	1
20	22	2
113	114	1
97	97	2
89	112	1
110	129	1
19	93	1
49	50	1
17	17	1
107	107	1
58	59	1
86	111	1
11	11	3
76	76	1
96	96	3
15	16	1
8	8	5
73	74	4
15	15	5
103	104	1
106	125	1
27	30	1
6	6	2
43	43	1
110	110	2
66	76	1
70	73	1
24	27	1
86	87	2
59	59	4
40	42	1
129	130	1
7	8	1
20	24	1
38	38	4
49	49	1
71	71	1
118	119	1
45	45	4
5	5	4
85	85	1
7	7	1
94	95	2
92	92	2
84	84	3
64	64	3
1	2	1
14	14	3
19	28	1
21	21	2
5	6	2
111	111	1
32	32	3
79	80	1
101	102	1
96	99	1
34	95	1
47	49	1
98	98	3
85	86	1
39	40	1
90	91	1
95	97	1
88	88	1
65	65	1
33	35	1
130	130	1
83	84	1
6	84	1
102	112	1
107	111	2
33	33	1
2	2	2
1	12	1
30	30	2
128	128	1
77	78	2
100	101	1
22	22	1
34	34	2
112	112	2
66	67	1
50	50	2
127	127	1
105	106	1
17	18	2
3	4	2
4	4	1
55	56	1
79	79	1
127	128	1
13	13	1
19	20	1
23	23	1
40	41	1
108	109	1
25	37	1
10	19	1
15	17	1
87	87	1
116	116	1
20	59	1
72	72	2
37	58	1
124	125	1
117	118	3
98	99	1
110	122	1
17	45	1
68	69	1
77	94	1
103	121	2
83	110	1
94	110	2
16	16	1
91	132	1
129	131	1
69	69	1
24	24	1
113	119	1
124	130	1
11	15	1
80	96	1
18	45	1
35	36	1
15	126	1
113	113	1
124	134	1
0	18	1
107	108	1
44	45	1
70	71	1
23	25	1
11	13	1
92	95	1
31	31	1
10	10	1
37	42	1
123	134	1
83	83	1
