34	34	5
87	88	2
134	136	1
86	87	2
8	8	2
83	83	6
23	117	1
124	124	7
125	125	5
39	39	5
14	16	1
36	37	1
13	13	4
9	9	3
18	18	5
152	152	4
100	110	2
65	65	2
37	37	2
104	127	1
118	118	5
120	120	3
16	18	1
139	140	1
42	42	7
169	169	4
1	1	8
4	4	7
146	147	1
43	138	1
150	161	2
168	168	6
89	89	4
20	20	4
72	147	1
54	55	2
164	164	2
111	111	2
98	98	4
50	66	1
110	110	5
23	23	4
138	138	4
114	121	1
27	28	2
162	162	1
4	5	1
66	66	2
93	97	1
15	15	4
70	70	3
103	103	3
25	38	1
5	5	2
109	109	1
0	0	6
21	119	1
154	154	2
75	145	1
18	57	1
126	126	4
45	45	4
93	96	1
138	160	1
40	45	1
43	43	7
63	63	2
170	170	5
73	86	1
145	145	4
44	122	1
159	159	3
90	90	4
7	7	4
38	39	1
157	157	4
116	138	2
88	89	3
40	40	6
141	141	6
67	67	1
167	167	2
75	75	2
99	99	4
14	14	2
78	78	3
15	16	4
160	161	1
64	70	1
24	24	5
130	158	1
72	72	3
92	92	3
22	23	3
10	10	6
126	127	1
85	85	1
44	44	4
130	130	5
127	127	1
143	144	3
160	160	2
128	129	2
2	25	1
39	43	1
166	166	4
167	168	3
161	161	4
43	89	2
81	104	1
145	146	1
8	18	1
136	136	2
99	108	2
77	77	1
83	90	2
11	13	1
125	129	1
132	154	1
52	52	3
86	86	1
142	142	3
103	129	1
122	125	1
26	26	2
114	114	3
106	134	1
101	134	1
87	143	1
135	135	3
44	45	2
3	3	3
62	62	1
133	161	2
36	36	6
125	166	1
139	139	2
46	46	3
159	160	2
101	101	1
119	119	5
66	67	1
17	19	1
19	19	4
150	150	1
12	12	4
103	120	1
94	117	2
96	111	1
101	102	3
78	80	1
22	22	1
41	41	5
24	148	1
147	148	1
77	154	1
117	134	2
82	82	3
165	165	4
56	70	1
69	69	1
51	53	1
153	153	4
96	96	1
160	167	1
156	156	5
53	53	5
100	100	2
114	115	1
111	114	1
137	137	1
11	11	2
144	154	1
24	128	1
47	95	1
109	110	2
0	148	1
7	11	2
49	49	2
13	14	1
167	169	3
84	85	2
165	166	1
35	64	1
7	8	2
102	104	3
108	109	2
17	18	1
24	25	1
151	168	1
144	144	2
154	163	1
15	111	1
163	163	2
13	20	1
67	69	1
79	80	1
116	116	2
78	112	1
137	157	1
47	47	2
162	165	1
83	84	1
112	112	1
123	124	1
88	88	1
65	66	1
132	132	2
38	38	2
157	159	1
18	19	3
71	71	3
143	143	4
25	159	1
141	143	1
20	21	2
2	2	2
91	123	1
10	24	1
53	109	1
6	36	3
146	164	1
33	43	1
48	48	3
94	95	2
132	165	1
76	157	1
98	156	1
28	28	1
70	72	1
91	91	2
64	79	1
105	106	2
26	126	1
17	114	2
1	2	2
148	148	4
106	106	1
102	117	1
134	134	1
149	149	5
140	140	4
147	169	3
153	155	1
131	131	2
152	153	1
129	129	4
16	161	1
24	160	1
150	151	2
155	155	2
96	99	1
128	128	3
74	104	1
0	1	2
76	76	3
39	148	1
99	129	1
55	55	1
6	6	2
21	22	2
107	107	1
115	115	1
68	69	1
112	114	1
75	121	1
132	155	1
25	25	2
21	21	3
8	10	1
119	132	1
80	84	2
6	12	1
73	92	1
86	100	2
27	27	2
99	101	1
149	157	1
129	152	1
27	35	1
51	51	1
100	101	1
161	162	1
154	155	1
107	127	2
26	27	1
80	156	1
144	146	1
104	120	1
122	122	1
151	156	1
1	3	2
129	154	2
164	165	1
16	16	2
72	78	2
114	126	1
99	143	1
105	105	1
79	112	1
113	113	2
64	64	1
12	16	1
98	118	1
132	166	1
99	100	1
36	38	2
140	141	1
136	137	1
72	103	1
35	35	3
37	73	1
66	76	1
86	118	1
47	51	1
102	123	1
158	158	1
68	151	1
84	84	2
81	81	1
56	57	1
38	109	1
100	103	1
111	151	1
46	47	1
147	168	1
93	93	1
98	124	1
113	115	1
17	17	2
62	63	1
118	124	1
20	164	1
94	94	1
118	119	1
53	56	1
146	146	1
39	142	1
125	126	1
58	75	1
135	136	1
140	153	1
74	74	2
62	139	1
69	70	1
115	123	1
116	117	1
124	147	1
151	151	1
72	73	1
77	78	1
6	16	1
43	44	1
16	65	1
