172	174	2
94	94	1
232	232	2
231	231	2
193	193	2
117	117	1
229	245	1
70	70	2
201	201	3
87	87	1
32	32	1
164	164	3
167	169	1
79	83	1
198	198	3
229	230	2
184	201	2
186	189	1
204	204	5
5	5	5
203	203	5
180	180	5
53	53	5
226	229	1
172	173	1
238	238	2
165	166	1
249	249	1
160	160	3
113	113	4
98	98	1
163	164	1
28	28	3
224	224	1
150	150	3
55	55	1
155	155	4
74	74	2
195	197	1
182	182	1
27	27	6
31	31	2
36	36	1
158	158	2
187	191	2
75	110	2
53	54	1
79	80	2
218	218	2
23	24	1
235	235	2
210	237	1
222	222	5
219	247	1
80	82	1
152	152	3
73	73	2
31	32	3
151	151	1
153	154	1
47	48	2
30	39	2
9	31	1
119	119	4
78	78	1
45	45	2
57	58	1
29	29	3
114	115	1
88	88	1
67	67	5
183	184	1
171	171	3
165	165	2
202	202	2
51	67	1
115	115	2
215	215	5
182	184	1
214	215	4
46	46	1
62	62	3
49	49	2
210	210	2
40	40	3
9	9	4
87	107	1
10	11	1
2	3	1
181	197	1
35	35	4
64	67	1
84	84	2
11	11	5
12	90	1
186	186	2
30	31	2
241	241	1
238	239	1
150	156	1
105	208	1
178	178	1
29	30	2
47	47	5
68	68	3
41	41	3
21	22	1
170	170	2
187	187	3
209	209	5
150	151	2
177	177	1
82	82	1
21	21	2
47	55	1
188	189	1
51	65	1
49	50	1
89	89	3
38	38	2
1	6	1
221	221	1
238	243	1
170	171	1
20	20	1
200	200	1
245	246	1
29	31	2
166	191	1
106	107	2
220	223	1
50	50	2
172	172	2
15	25	1
229	229	5
30	30	2
93	165	1
154	154	1
25	47	1
4	4	1
16	25	1
243	244	1
39	39	3
230	230	1
223	223	1
233	234	1
162	162	3
185	185	1
4	7	1
66	66	2
12	12	7
57	86	1
33	36	1
242	248	1
221	222	3
4	183	1
33	33	4
51	51	6
241	248	1
214	214	1
112	112	2
160	173	1
92	92	1
232	233	1
221	240	2
43	43	1
175	175	1
154	155	1
190	190	4
161	163	2
120	120	2
179	180	1
116	116	2
38	68	2
245	245	2
185	192	1
83	99	1
59	59	3
186	188	1
201	228	1
156	156	4
199	200	2
60	75	1
233	233	1
217	217	1
175	201	2
83	83	1
145	162	1
18	18	2
243	248	2
226	226	1
44	44	1
19	19	2
167	167	3
17	17	2
15	15	4
234	234	2
79	81	1
183	183	1
81	81	1
10	39	1
21	201	1
233	235	1
197	197	2
78	80	2
63	63	1
21	52	1
157	158	1
99	99	2
55	70	1
221	236	1
173	173	1
55	56	1
44	45	4
105	107	1
198	200	1
29	47	1
37	38	1
207	227	1
184	184	1
87	175	1
219	224	1
180	230	1
72	72	2
155	156	1
195	195	1
55	75	1
59	60	1
102	103	1
32	33	1
63	64	1
85	85	2
152	162	1
77	77	1
217	241	1
204	205	1
4	52	1
207	207	2
191	191	2
48	50	1
186	197	1
239	243	1
40	44	1
60	60	1
25	26	1
81	98	1
197	198	1
166	166	1
22	29	1
55	71	1
88	112	1
222	223	1
13	14	2
48	48	1
78	97	1
34	34	1
192	192	1
190	191	1
244	244	1
65	66	2
26	43	1
187	188	3
23	23	3
79	79	2
17	24	1
10	18	1
236	236	2
174	201	1
210	211	3
164	177	1
145	145	1
56	72	1
199	199	2
192	193	2
7	7	1
64	64	1
69	69	1
20	29	2
209	248	1
225	225	1
90	91	1
98	102	2
18	19	1
56	58	1
4	14	1
153	155	1
186	187	1
115	116	3
159	159	1
240	240	1
206	247	1
215	217	1
100	103	1
238	241	1
213	213	1
226	227	2
81	99	1
19	47	1
109	109	1
187	192	1
163	163	1
219	219	1
37	37	1
92	109	1
159	215	1
13	211	1
12	14	1
206	206	1
216	216	1
227	227	1
218	219	2
193	219	1
113	231	1
189	189	1
110	110	1
84	96	1
166	180	1
54	54	1
236	238	1
57	88	1
6	6	2
57	57	1
179	221	1
162	163	1
110	113	1
43	44	1
51	68	1
196	199	1
76	76	1
103	104	1
205	206	1
1	1	1
208	208	1
50	51	1
74	249	1
182	208	1
188	188	1
230	233	1
36	160	1
90	90	1
168	168	1
42	42	1
204	207	1
174	180	1
205	205	1
82	96	1
230	232	1
57	60	1
216	218	1
41	92	1
116	151	1
30	114	1
45	46	1
180	198	1
152	183	1
