77	82	1
37	37	2
115	122	1
73	75	1
56	87	1
89	107	1
104	104	2
126	126	1
92	105	1
137	137	2
21	21	7
129	130	3
31	31	2
63	63	4
110	111	1
76	76	2
145	145	8
71	76	3
43	43	2
19	20	1
8	9	1
56	56	8
65	65	1
126	140	1
38	42	1
95	95	1
133	133	1
128	130	3
107	128	2
113	115	1
99	101	1
20	141	1
63	83	1
54	54	3
144	145	1
70	93	1
71	71	3
42	42	2
135	136	1
142	143	1
38	38	2
9	9	3
55	55	5
59	59	5
11	11	8
124	124	2
12	13	1
120	120	2
90	98	2
145	146	1
144	144	3
6	6	1
53	54	2
25	25	2
94	94	4
84	84	4
100	101	1
22	22	4
61	61	1
103	116	1
74	75	2
125	125	2
103	103	5
27	27	10
49	49	2
26	26	6
19	40	2
56	60	1
60	61	1
1	20	1
141	142	2
125	131	1
80	106	1
141	141	6
34	34	2
75	76	2
128	129	1
136	139	1
10	19	1
76	78	1
113	121	1
35	35	1
88	88	4
139	139	3
143	143	4
135	135	3
112	112	1
48	49	4
130	130	5
126	127	2
81	87	2
20	75	1
77	78	1
110	119	1
40	132	1
75	127	2
19	19	5
8	8	1
40	40	3
111	114	1
127	128	1
37	61	1
109	135	1
66	66	2
107	117	1
28	29	1
82	86	1
2	2	2
20	38	1
13	14	1
134	134	3
136	136	6
61	101	1
107	107	1
25	47	1
4	5	1
64	66	1
110	129	1
96	101	1
31	60	1
29	29	6
24	24	1
132	138	3
17	17	2
68	75	1
39	40	4
131	131	2
82	82	2
37	38	1
3	4	2
93	110	1
114	114	1
123	123	1
107	112	3
104	105	1
140	140	1
32	33	1
121	123	2
8	22	2
30	30	4
28	28	1
127	127	1
80	80	1
79	79	1
90	119	1
2	8	2
39	39	1
35	81	2
15	16	1
82	87	1
93	94	1
64	64	3
85	85	2
73	73	2
97	97	1
38	39	1
73	108	1
32	35	1
72	72	2
70	71	1
62	62	2
99	100	1
91	92	1
132	132	1
12	12	1
50	60	2
85	109	1
109	109	1
50	50	2
121	121	1
3	16	1
53	53	2
129	139	1
47	47	1
10	87	1
35	36	2
3	3	1
101	102	1
128	131	1
41	42	1
60	60	3
13	13	1
35	62	1
2	6	1
100	100	1
107	108	1
117	121	1
138	139	1
51	52	1
111	111	2
52	53	1
70	70	2
97	99	1
96	96	2
80	82	1
14	15	2
74	74	1
105	105	2
78	92	1
131	132	3
103	117	1
5	5	2
18	18	1
20	20	1
16	16	1
33	33	3
83	83	1
54	55	1
6	40	1
60	135	1
20	23	1
16	17	2
119	121	1
18	26	1
94	124	1
48	57	1
108	110	1
90	91	1
38	50	1
56	66	1
117	124	1
23	25	1
67	67	2
15	15	1
88	89	1
23	38	1
98	98	1
17	24	2
127	134	1
110	110	1
15	17	1
122	131	1
48	141	1
108	108	1
136	137	2
70	72	1
95	96	1
15	39	1
94	111	1
101	103	1
41	41	1
57	57	1
10	25	1
9	29	1
58	58	2
36	36	1
134	135	1
116	117	1
95	125	1
0	0	1
36	49	1
75	79	1
1	101	1
91	94	1
64	84	1
118	120	1
19	21	1
118	118	1
94	127	1
117	123	1
130	135	1
125	126	1
13	19	1
106	106	1
99	99	1
68	68	1
