65	158	1
135	135	7
151	151	6
51	54	1
133	133	4
135	136	3
120	123	1
21	21	1
131	131	2
131	139	1
129	156	1
157	157	4
136	136	5
71	71	1
130	130	1
88	88	2
11	11	1
125	126	2
137	137	3
109	110	1
120	120	3
17	20	1
102	103	1
24	24	4
119	143	1
129	129	2
46	85	1
1	2	1
124	124	3
87	91	2
107	107	5
95	95	4
114	114	3
69	69	1
156	156	4
43	43	1
93	93	1
140	141	2
113	114	2
80	81	1
105	105	5
83	83	2
127	127	4
101	102	1
113	113	1
119	119	1
30	30	5
150	150	1
68	69	1
110	145	1
144	144	2
108	110	1
25	25	4
110	110	1
47	47	1
152	152	2
127	131	3
89	89	1
23	23	5
133	147	1
122	122	1
143	143	2
37	38	1
141	141	2
96	96	2
138	138	2
34	34	3
36	36	4
98	98	3
153	154	1
47	48	1
3	3	1
124	126	2
121	121	1
128	147	1
111	111	2
7	7	2
30	105	1
109	109	1
134	134	3
26	47	1
155	155	3
138	139	3
147	147	2
116	116	2
142	142	5
39	66	1
32	32	3
150	151	1
108	108	1
81	81	1
67	68	1
137	144	1
78	78	3
44	44	1
68	90	1
22	22	4
18	19	1
155	157	1
148	148	1
90	90	1
86	116	1
110	112	3
140	142	1
139	139	1
17	17	1
130	132	1
40	40	2
81	82	3
145	145	1
97	97	3
68	68	3
22	26	1
51	51	1
52	52	1
26	26	1
39	41	1
139	140	1
73	73	2
90	94	1
46	80	1
18	18	1
31	31	1
6	6	1
32	50	1
82	83	1
5	5	1
158	158	1
104	120	1
126	128	1
0	1	1
126	126	1
92	110	1
147	148	1
62	62	1
77	77	1
8	8	1
144	145	1
43	62	1
62	82	1
8	22	1
115	137	1
6	32	1
41	41	1
29	29	1
154	155	4
115	115	1
78	85	1
132	133	1
48	48	1
45	45	1
109	111	1
121	124	1
93	97	1
70	70	2
132	132	1
128	128	2
9	9	1
71	72	1
85	86	1
99	100	1
106	106	2
98	105	2
86	86	3
123	124	1
56	56	1
101	103	1
103	103	1
153	153	2
87	87	1
100	100	2
48	51	1
134	135	1
20	21	1
82	82	1
12	12	2
131	132	1
37	37	2
72	72	2
154	154	3
96	117	1
24	25	1
78	86	1
28	28	2
65	99	1
2	27	1
93	95	1
15	15	1
42	68	1
64	94	1
72	129	1
97	105	1
71	145	1
128	129	1
121	123	1
76	77	1
16	42	1
38	39	1
64	64	1
4	4	1
93	94	1
46	47	1
4	20	1
86	88	1
55	56	1
49	49	1
32	33	1
