114	115	4
43	43	9
69	70	3
73	73	17
79	82	2
13	13	7
56	90	1
54	62	1
71	71	11
56	60	3
63	70	1
99	99	9
4	5	5
26	27	2
78	78	8
79	87	2
59	59	8
82	85	4
33	33	8
3	35	2
36	36	8
22	27	1
134	134	8
102	102	8
11	11	7
56	56	4
28	29	2
24	24	11
12	13	2
19	36	1
97	97	3
50	53	3
22	22	7
3	3	10
65	65	10
100	100	7
72	72	11
25	58	2
2	43	1
48	48	5
66	116	1
66	66	7
72	73	2
115	115	5
59	84	1
10	10	3
28	58	1
9	9	7
46	46	3
61	61	10
24	36	2
95	96	2
27	27	11
10	11	2
8	36	4
32	33	7
23	23	7
123	123	3
126	126	3
79	79	10
84	86	1
26	26	7
132	133	4
127	127	4
91	93	1
77	77	13
86	86	13
53	53	8
32	32	6
7	7	6
25	105	1
2	2	3
107	128	1
0	45	1
54	54	2
19	20	2
23	24	6
15	15	8
5	5	8
34	34	5
68	68	8
134	135	1
67	67	3
84	84	4
60	60	5
1	8	2
0	0	2
1	1	10
108	108	4
32	35	1
114	120	1
116	116	7
59	61	2
14	15	1
57	57	8
132	132	5
114	114	2
76	76	4
103	103	7
14	14	3
58	58	5
81	81	4
80	119	1
70	70	7
95	98	1
8	22	1
46	52	1
109	111	3
69	69	4
68	73	1
1	4	1
110	110	2
49	50	1
94	95	2
116	118	1
102	103	4
61	81	1
80	80	5
18	18	5
16	16	8
75	75	8
37	55	1
76	78	1
2	16	1
62	62	2
13	14	2
49	49	4
123	126	1
121	121	2
73	81	4
127	129	1
117	128	1
24	25	6
65	66	4
11	115	2
7	27	1
52	52	5
96	97	1
106	129	1
82	82	5
80	93	1
37	37	4
117	117	7
1	3	1
50	50	10
42	43	1
107	107	7
112	127	2
12	12	4
131	133	2
108	131	1
112	114	2
111	113	1
28	28	10
35	35	7
104	104	2
87	87	12
11	29	1
56	59	5
82	86	1
94	97	1
98	103	1
31	33	1
74	75	5
84	88	2
17	62	1
6	6	8
36	95	1
4	18	1
112	112	3
63	63	5
47	61	1
84	91	2
111	122	1
28	30	4
65	77	1
64	68	1
21	21	4
77	84	1
14	21	2
25	52	1
50	70	1
29	35	2
101	101	10
7	16	1
101	102	5
126	128	1
87	96	1
24	68	1
71	74	3
131	132	1
115	116	1
64	64	8
98	101	1
103	104	3
85	85	5
67	68	3
130	131	3
68	69	1
30	31	3
0	33	1
44	44	6
119	119	4
107	108	3
95	95	6
30	30	4
0	2	1
116	117	4
57	59	3
86	90	1
120	121	1
29	29	5
24	27	1
25	25	6
43	59	1
131	131	2
47	70	1
92	92	4
79	83	1
90	97	1
3	18	1
17	18	1
52	67	1
98	99	3
115	119	1
63	78	1
9	10	3
16	32	1
110	113	1
120	120	3
83	83	4
45	45	6
109	109	5
50	85	1
49	119	1
74	74	3
60	62	2
89	89	2
53	65	1
44	46	1
16	17	3
5	6	2
20	20	6
24	29	1
36	60	1
55	64	1
0	16	1
124	124	2
86	88	1
6	7	5
88	88	1
108	109	3
47	53	1
130	130	3
47	48	1
25	61	1
9	11	4
2	6	2
49	76	2
94	94	6
94	98	3
20	21	1
97	121	1
80	101	3
45	71	1
119	120	3
98	104	1
3	4	6
4	14	1
62	63	1
0	1	3
47	47	3
114	119	1
106	106	8
34	36	1
21	22	2
72	80	1
61	63	1
8	8	4
106	110	1
125	125	5
55	55	4
68	72	1
12	28	1
12	27	1
114	123	1
22	23	1
83	85	2
42	42	1
79	80	1
108	111	2
103	106	1
105	105	3
93	93	4
118	119	1
109	110	1
66	69	2
7	53	1
76	81	1
5	12	1
20	23	1
22	24	1
129	129	4
52	54	1
117	118	1
13	31	1
10	19	1
4	4	5
67	70	1
71	72	1
5	7	1
118	130	1
55	56	1
45	50	1
31	31	3
57	63	1
60	61	3
85	86	3
3	15	1
133	133	3
33	34	1
53	54	2
112	113	1
4	62	1
0	15	1
50	79	2
92	116	1
106	113	1
106	107	3
44	47	1
30	32	2
58	61	1
76	77	4
128	129	1
123	124	1
114	129	2
17	17	5
32	34	2
125	126	1
115	118	1
66	67	3
94	111	1
114	118	1
126	134	2
80	81	1
59	75	1
57	66	1
79	81	1
24	67	1
97	98	2
119	125	2
33	63	1
20	37	1
126	133	1
60	66	1
102	135	2
93	94	1
29	33	1
77	79	2
10	52	1
96	96	3
83	84	2
84	108	1
30	50	2
1	2	1
75	76	2
114	124	1
73	75	2
2	3	1
53	78	1
65	68	1
49	55	1
127	132	1
92	95	1
124	125	1
98	106	1
97	102	1
111	112	1
15	30	1
106	111	1
62	64	1
55	68	1
54	58	1
93	104	1
72	98	1
107	113	1
56	66	1
19	19	4
12	21	1
81	91	1
1	6	2
128	128	3
25	26	1
56	57	1
61	62	1
62	79	1
118	118	1
93	120	1
27	70	1
10	12	1
100	133	1
108	117	1
21	70	1
113	113	2
7	77	1
96	99	1
52	53	1
76	80	1
91	91	1
17	25	1
45	80	1
77	78	2
52	64	1
38	38	2
9	19	1
42	59	1
78	82	1
16	19	1
7	8	1
86	91	1
29	30	1
135	135	1
44	59	1
29	80	1
92	108	1
3	5	1
98	98	1
10	14	1
119	131	1
110	117	1
71	73	1
91	92	1
47	49	2
90	95	1
58	59	2
73	74	3
100	121	1
46	48	1
76	106	1
0	4	1
79	111	1
64	65	1
80	84	1
50	52	3
49	53	2
64	66	1
107	109	1
80	98	1
0	3	1
71	82	1
63	74	1
21	23	1
105	114	1
85	87	1
0	31	1
36	54	1
70	81	1
100	101	1
39	39	1
25	128	1
75	77	1
15	16	1
19	26	1
24	34	1
43	44	2
18	19	1
59	60	1
45	47	1
28	38	1
10	90	1
65	93	1
33	35	1
78	79	2
107	112	1
72	87	1
96	102	1
77	115	1
60	63	1
122	123	1
14	23	1
13	20	1
52	55	1
90	90	1
32	53	1
23	64	1
82	83	1
99	100	1
70	73	1
13	16	1
