121	122	1
154	154	2
9	13	1
189	189	1
126	126	1
141	174	1
130	145	1
39	39	3
110	110	2
48	48	2
183	186	1
35	35	1
43	44	2
168	185	1
38	38	2
58	58	5
143	179	1
73	73	1
95	96	1
179	180	1
63	63	4
6	8	1
114	114	1
96	96	1
114	128	1
185	185	1
95	95	1
183	183	1
169	169	1
37	37	1
165	168	2
123	165	1
13	13	1
81	82	1
68	76	1
135	135	6
136	150	3
175	186	1
2	5	1
119	124	1
74	75	1
76	100	1
118	118	2
78	78	1
113	117	1
156	156	1
153	175	1
33	33	2
71	72	2
106	170	1
154	179	1
160	161	1
61	63	1
42	42	4
127	128	3
146	172	1
157	157	3
18	19	2
54	54	1
171	180	1
40	40	3
84	111	1
103	109	1
112	112	3
143	143	2
133	133	1
94	94	1
140	140	3
79	79	1
123	124	2
146	146	1
131	132	1
178	185	1
166	190	1
53	55	1
110	148	1
129	129	2
150	169	1
27	27	5
76	76	4
108	131	2
12	26	1
174	174	2
186	186	1
105	105	1
74	74	1
145	145	3
16	17	1
27	28	1
128	142	1
177	181	2
108	108	2
87	87	1
139	139	1
61	83	2
149	149	4
22	22	1
2	34	1
4	52	2
82	125	1
12	39	1
1	1	1
46	46	2
123	131	1
155	156	2
5	16	1
120	120	4
34	42	1
16	16	3
93	93	3
75	75	2
152	154	3
26	26	3
180	180	1
3	5	1
5	5	2
119	119	1
137	137	1
12	12	2
115	115	1
8	8	2
96	100	2
117	118	1
109	109	2
29	29	1
116	116	1
34	34	1
104	108	1
188	188	1
164	164	1
183	187	1
124	137	1
45	45	1
71	71	1
134	134	3
170	175	1
105	106	2
63	65	1
20	22	1
55	55	2
126	128	1
5	11	1
104	104	1
2	2	2
166	166	1
86	86	1
156	157	1
81	81	2
97	97	1
110	111	1
175	175	2
153	155	1
170	170	1
91	91	2
138	139	1
121	121	2
23	28	1
12	15	1
80	88	1
70	70	1
147	147	3
157	178	1
33	46	1
22	23	1
31	31	3
117	117	1
182	183	1
124	125	2
131	131	1
85	85	1
171	177	1
182	184	1
30	31	1
139	140	2
155	155	1
62	63	1
127	127	2
187	187	1
177	183	1
69	105	1
101	102	1
68	68	1
115	137	1
162	163	1
125	143	1
89	89	1
28	30	1
173	173	1
136	143	1
176	176	1
17	24	2
73	84	1
95	110	2
163	163	1
80	80	3
67	87	1
98	101	1
80	86	1
138	168	1
177	178	1
7	7	1
148	148	1
187	189	2
122	122	2
94	95	1
54	55	2
107	112	1
100	104	1
125	125	1
154	169	1
137	144	1
158	179	1
36	77	1
181	181	1
175	176	1
83	119	1
10	23	1
57	57	2
82	85	1
66	66	3
99	104	2
84	84	1
45	175	1
163	164	1
37	38	2
77	77	2
15	16	1
12	40	1
11	12	2
17	18	1
28	32	1
151	151	2
60	60	1
124	139	1
67	67	1
177	177	2
133	136	1
107	126	1
30	34	1
41	41	2
73	76	1
21	21	2
56	56	4
103	104	1
19	19	1
100	130	1
93	102	1
97	112	2
14	15	1
48	52	1
138	138	1
83	123	1
155	159	2
133	134	1
29	64	1
154	155	1
170	171	1
145	182	1
30	30	1
0	0	1
99	100	1
100	100	1
110	146	1
39	40	1
132	132	2
162	165	1
34	46	1
174	175	1
184	185	1
119	147	1
23	23	2
113	115	1
54	65	1
6	6	1
59	60	1
16	22	1
159	159	2
88	89	1
65	65	1
97	101	1
128	147	2
126	160	1
16	20	1
13	35	1
75	76	1
159	179	1
92	107	1
142	142	1
121	136	1
45	46	1
