53	53	5
17	17	7
26	27	2
127	127	3
51	51	2
120	120	6
112	117	1
118	118	2
32	32	2
29	29	4
10	11	3
38	38	1
16	17	4
60	60	3
49	49	3
69	89	1
54	54	2
4	5	1
108	108	4
113	113	4
92	92	3
33	33	2
44	45	2
90	90	2
109	109	3
79	96	1
86	103	1
123	123	5
76	76	3
101	101	4
74	80	1
41	41	4
99	99	1
108	122	1
1	1	2
11	11	2
25	25	1
23	65	1
29	40	2
77	77	2
67	70	1
47	47	1
114	114	4
115	115	5
100	100	2
8	8	1
6	8	1
17	18	1
93	100	1
3	3	2
67	67	2
129	129	1
6	6	1
104	104	2
42	44	1
0	0	2
14	14	4
28	28	1
32	33	1
116	116	2
94	94	3
59	59	1
12	12	2
19	19	1
125	125	1
112	113	1
10	32	2
117	117	5
89	92	1
112	112	4
27	27	1
10	14	1
128	128	2
69	69	1
16	16	1
98	113	1
104	114	1
74	78	1
71	124	1
115	129	1
57	57	3
77	104	1
85	85	2
62	62	1
45	46	2
1	2	2
119	119	2
79	79	2
79	80	1
103	103	1
61	62	1
52	52	4
81	82	1
121	121	1
73	74	1
86	86	1
78	78	1
80	84	1
29	31	1
132	132	1
88	126	1
70	70	1
38	41	1
84	88	1
24	24	1
73	73	1
75	75	3
5	27	1
4	4	2
111	112	2
40	74	2
54	56	1
46	46	5
58	58	1
114	115	3
72	74	1
114	118	1
130	131	1
92	93	1
70	103	1
27	28	2
23	23	1
63	63	1
131	131	2
80	80	1
102	116	1
75	80	1
40	60	1
77	92	1
91	111	1
97	97	2
99	128	1
126	126	1
87	87	2
52	112	1
106	106	2
68	101	1
129	130	1
26	26	1
122	122	1
22	68	1
126	127	2
56	70	1
107	107	1
87	90	2
40	40	2
71	71	2
109	111	1
45	45	2
44	44	1
7	7	1
105	105	1
113	114	1
50	50	2
2	2	1
26	32	1
18	19	1
22	22	1
68	69	2
21	45	1
89	89	1
94	95	1
21	21	1
65	88	1
9	9	1
45	117	1
82	83	1
63	64	1
93	93	1
2	4	1
31	31	1
92	95	1
27	32	1
61	61	1
33	68	1
14	16	1
78	99	1
54	76	1
55	56	1
104	107	1
58	125	1
74	77	1
101	102	1
84	84	1
22	114	1
49	50	1
121	122	1
91	91	1
