72	72	3
74	74	5
20	36	4
56	57	2
57	57	8
62	63	2
40	40	3
53	61	1
75	75	8
25	26	3
73	73	4
40	41	3
81	81	3
96	96	2
58	69	1
45	46	2
51	68	1
92	99	1
65	67	1
34	35	2
28	28	1
79	79	5
88	89	1
35	35	7
83	84	1
68	74	1
91	91	7
27	28	3
100	100	3
63	65	2
89	89	4
35	80	1
45	45	4
80	80	6
85	85	4
82	82	5
51	51	3
76	76	3
88	88	7
90	90	7
57	59	1
63	63	6
78	78	7
63	64	2
94	97	1
96	101	3
48	48	4
69	70	1
58	58	6
94	94	5
98	98	2
67	67	3
74	75	1
35	40	1
46	46	3
70	70	4
62	62	4
44	44	4
28	37	2
93	94	2
85	89	2
65	78	1
68	100	1
53	53	3
23	23	1
52	53	2
60	61	5
53	94	2
89	96	1
84	84	3
29	68	1
34	34	2
41	41	2
42	42	2
27	27	3
33	33	4
101	101	3
49	49	6
65	65	5
30	31	1
45	102	1
25	25	4
52	52	3
92	93	1
64	64	6
66	66	3
34	75	1
86	86	1
61	61	7
92	92	4
87	87	2
56	88	1
26	26	1
50	51	1
22	23	1
24	24	1
99	99	1
60	60	3
53	96	1
76	77	2
87	88	1
69	69	2
51	52	2
46	48	1
29	29	5
70	72	1
97	99	1
83	83	3
68	68	2
40	43	1
46	47	2
59	63	1
36	36	2
43	43	4
52	55	1
57	70	1
67	80	1
92	94	1
30	30	1
99	100	1
100	102	1
40	54	1
53	54	1
55	55	3
62	77	1
65	66	1
97	97	3
30	43	1
45	52	1
77	77	2
102	102	1
68	69	1
50	87	1
45	47	1
24	97	1
63	66	1
48	49	2
72	89	2
37	38	1
67	77	2
56	56	3
41	85	1
45	49	1
55	56	2
40	57	1
63	70	1
86	88	2
83	89	1
47	47	2
59	59	2
71	71	3
38	48	1
93	93	1
70	71	1
95	95	2
58	59	1
75	76	3
58	67	1
61	62	3
85	86	1
100	101	1
73	80	1
96	98	1
47	48	1
57	58	2
54	97	1
70	73	1
41	43	1
74	77	1
93	98	1
49	51	1
50	50	1
86	96	1
42	75	1
48	51	1
56	83	1
31	31	3
22	22	1
24	26	1
20	20	1
54	55	2
96	97	1
39	39	2
42	43	1
32	33	1
49	91	1
81	84	1
73	74	1
93	96	1
