176	176	9
133	136	1
139	139	3
173	173	7
137	137	5
42	42	3
76	76	2
155	170	2
150	150	4
72	76	3
111	115	1
74	76	2
145	147	1
117	117	1
39	41	1
102	102	2
40	40	4
108	108	1
136	136	3
42	43	1
92	94	1
12	31	1
43	43	4
66	66	2
54	54	3
78	78	4
31	31	3
25	26	1
34	34	5
58	58	3
14	14	7
36	36	6
33	33	1
127	127	2
8	8	7
23	28	1
0	2	1
12	12	4
22	22	1
106	117	1
133	133	7
65	92	2
116	125	1
35	35	2
83	84	2
132	173	1
122	143	2
96	118	1
125	125	1
88	88	2
19	43	3
40	76	1
38	38	8
102	127	1
19	19	3
106	106	1
118	145	1
174	174	1
45	45	2
159	159	3
41	41	1
104	121	1
89	90	2
26	27	1
63	63	1
57	81	1
86	86	1
178	178	5
147	161	2
91	92	2
74	75	1
137	138	1
6	6	4
106	152	2
101	101	1
10	10	4
178	179	2
55	55	3
147	147	1
103	104	1
109	110	1
67	67	3
19	25	1
16	16	3
157	170	1
26	26	3
7	8	2
60	60	2
145	146	1
130	130	1
50	63	1
57	111	1
84	85	2
45	46	1
44	45	1
125	129	2
83	115	2
104	135	1
29	29	1
71	71	2
17	17	3
19	21	1
171	172	1
73	73	5
152	152	2
105	105	1
160	161	2
115	115	4
3	3	2
4	15	1
2	2	3
143	143	2
132	133	2
170	170	3
165	167	3
153	153	1
20	33	1
83	83	5
60	108	1
77	77	2
57	57	2
113	114	1
1	1	4
177	177	2
52	53	1
165	166	1
72	110	1
96	97	1
0	0	1
43	44	3
132	132	3
167	167	3
66	67	1
148	169	1
64	140	1
125	143	1
64	68	1
137	180	3
153	154	1
111	111	1
101	102	1
102	122	1
98	100	1
90	90	3
59	63	2
162	162	2
27	50	1
9	9	5
0	10	1
148	152	1
154	154	5
28	28	1
98	113	2
87	87	1
23	27	1
84	93	2
179	179	5
27	28	3
82	82	1
173	174	1
100	100	1
94	102	1
135	170	1
92	93	2
148	153	1
138	139	1
159	170	1
13	13	2
37	70	1
157	164	2
179	180	1
39	39	4
5	5	1
121	121	2
32	32	3
164	165	1
75	75	2
53	77	1
64	64	4
168	173	1
11	58	1
65	65	1
109	109	3
89	93	1
61	63	1
76	77	1
7	14	1
80	145	2
79	80	1
112	112	1
106	107	1
124	125	1
125	145	2
53	53	2
135	140	1
5	6	1
145	145	4
148	148	2
74	81	1
62	92	1
135	175	1
172	172	6
79	79	1
168	168	1
63	64	1
32	39	1
129	129	2
142	145	1
43	132	1
4	4	5
171	171	2
87	100	1
51	51	1
109	111	1
131	131	2
151	152	3
133	134	1
98	99	1
113	151	1
56	56	1
55	88	1
137	148	1
113	113	2
160	173	1
149	149	2
12	16	2
56	62	1
156	156	1
111	112	1
58	109	1
128	128	2
1	7	1
141	141	2
3	35	1
76	78	1
57	58	1
6	31	1
169	169	1
6	32	1
85	85	2
52	90	1
180	180	1
72	87	1
26	44	1
118	118	1
59	62	1
55	56	1
23	23	1
150	158	1
99	99	2
15	15	1
97	97	1
51	90	1
120	162	1
138	138	1
146	146	1
108	118	1
133	135	1
166	166	1
58	63	1
121	122	1
68	68	1
39	134	1
95	95	1
112	114	2
12	13	2
90	92	1
56	57	1
88	95	1
37	39	1
67	68	1
136	173	1
166	168	1
158	158	1
160	166	1
13	17	1
90	91	2
154	155	1
116	117	1
13	14	2
111	123	1
56	63	1
92	92	1
159	168	1
51	52	1
97	125	1
177	179	1
18	18	1
139	168	1
41	42	1
121	149	1
134	135	1
21	25	1
120	120	1
119	119	1
95	96	1
3	4	2
121	139	1
39	43	2
52	93	1
16	31	1
133	137	1
73	74	1
56	60	1
80	80	1
12	14	1
82	110	1
34	90	1
122	122	2
62	89	1
156	157	1
25	25	1
9	169	1
44	44	2
74	74	1
31	32	1
54	78	1
164	164	1
22	23	1
