88	88	2
95	97	2
107	108	1
94	94	3
37	107	1
72	72	3
115	125	1
96	107	1
91	91	1
130	130	2
74	74	3
123	134	1
121	121	2
96	96	4
0	2	1
78	78	1
120	124	1
131	131	5
95	95	4
9	10	3
74	75	2
10	13	1
6	6	5
2	10	1
26	38	1
71	72	1
111	113	1
5	5	6
113	113	2
108	117	1
128	129	2
118	118	3
27	28	1
112	112	2
120	122	2
106	108	2
80	82	1
134	135	3
75	75	2
38	38	3
111	111	4
136	136	2
78	95	2
121	122	1
133	133	8
130	136	1
89	97	1
119	119	1
109	110	2
117	117	6
126	127	1
26	33	3
34	35	2
76	77	1
83	83	1
12	16	2
18	18	1
93	93	1
131	132	3
126	126	1
103	103	1
34	34	1
81	81	1
77	91	1
99	111	2
37	37	2
85	86	1
95	96	2
77	96	1
124	124	5
35	35	3
135	135	2
37	94	1
139	139	4
125	128	1
79	79	3
125	125	3
87	87	2
116	116	7
98	99	2
115	115	1
105	105	2
17	17	1
75	76	2
19	19	2
16	16	2
109	111	1
99	99	3
2	2	3
116	117	2
110	116	1
83	84	1
134	134	4
109	115	1
3	5	2
82	83	1
86	89	1
97	97	3
140	140	1
20	20	1
104	104	1
4	4	1
114	126	1
106	107	1
114	114	1
104	107	1
115	126	1
137	137	1
134	136	1
126	128	1
81	82	1
27	27	1
110	126	1
115	116	1
114	121	1
123	123	2
7	13	1
134	137	1
32	33	2
86	86	1
36	36	1
127	131	1
82	82	1
129	130	2
37	38	3
14	17	1
0	1	1
37	96	1
77	79	1
81	85	1
127	127	2
84	85	1
102	102	2
100	120	1
14	133	1
94	107	1
133	137	1
137	138	2
33	33	1
12	12	3
78	87	1
96	101	1
132	132	4
129	129	1
124	131	1
107	124	1
110	110	3
37	65	1
100	101	1
108	108	1
86	120	1
74	83	2
81	83	1
83	87	2
102	107	1
136	137	1
76	76	2
85	85	1
15	15	2
101	101	2
139	140	1
123	125	1
125	126	1
112	125	1
89	90	1
140	141	1
138	138	1
6	8	1
3	3	1
72	94	1
98	109	1
7	8	1
89	89	3
99	104	1
108	110	1
120	120	1
7	7	1
4	5	1
92	94	1
100	100	1
8	8	2
10	11	1
13	13	1
13	14	1
113	114	1
5	6	1
1	1	1
84	95	1
