54	54	3
106	107	1
35	35	2
4	4	2
86	87	1
17	55	1
16	17	2
143	145	1
106	109	1
86	86	1
122	124	1
21	21	2
120	120	1
29	29	1
14	14	1
66	66	1
47	47	2
28	28	2
53	54	1
150	150	3
10	10	1
146	146	4
18	18	6
30	30	5
7	7	2
102	102	1
38	38	2
45	45	3
109	109	1
48	48	3
76	76	3
3	3	2
28	29	1
16	16	2
113	113	1
104	104	2
117	117	2
10	53	1
20	20	1
80	83	1
12	15	1
71	71	2
46	46	1
87	88	2
154	154	2
106	106	1
111	111	1
96	97	3
110	110	1
37	37	2
137	137	1
64	64	1
33	34	2
152	152	2
147	147	1
95	95	2
39	52	1
22	22	1
77	77	2
78	78	2
119	120	1
74	102	1
141	143	1
131	131	4
107	107	1
43	43	2
113	148	1
144	146	1
118	154	1
133	135	1
100	100	2
105	108	1
82	83	1
121	121	1
83	83	2
145	145	1
49	56	1
125	126	1
62	67	1
41	41	1
25	25	1
136	136	1
113	121	1
7	42	1
92	93	1
50	114	1
7	46	1
130	131	1
116	116	1
5	5	2
8	8	1
127	128	1
132	132	1
136	139	1
84	84	1
98	98	2
27	37	1
39	39	1
93	137	1
45	46	1
107	108	1
132	149	1
109	110	1
41	43	1
32	32	1
26	26	1
148	148	1
31	41	1
75	75	1
22	54	1
90	95	1
116	117	1
124	125	1
136	137	2
141	141	3
44	45	1
96	96	2
24	25	1
12	27	1
149	150	2
144	144	2
36	36	1
63	64	1
74	86	1
27	27	2
118	118	1
112	112	2
19	20	1
142	144	1
73	73	1
64	83	1
42	43	1
48	49	2
115	116	2
56	57	1
40	42	1
84	86	1
33	33	1
25	27	1
32	33	2
145	149	1
93	98	1
21	87	2
120	148	1
135	135	3
38	39	2
130	132	1
63	65	2
42	42	1
141	142	1
90	92	1
50	54	1
21	117	1
74	75	1
102	118	1
91	93	1
123	130	1
110	114	1
58	63	1
144	145	1
119	119	1
4	35	1
19	24	1
79	79	1
133	150	1
41	42	2
53	73	1
103	109	1
133	133	1
68	68	1
30	31	1
133	134	1
124	124	1
27	29	1
14	15	1
62	87	1
36	37	1
23	23	1
17	37	1
67	68	1
122	122	1
16	57	1
5	8	1
115	115	1
138	140	1
66	75	1
100	101	1
31	31	1
69	69	1
94	117	1
81	81	1
65	65	2
57	57	1
82	82	1
20	21	1
44	46	1
51	55	1
51	51	1
58	58	1
72	75	1
97	97	1
19	65	1
