129	129	1
78	78	1
39	95	1
136	138	1
55	56	3
159	160	1
153	153	2
169	169	3
75	76	1
29	30	1
22	22	2
217	218	1
30	30	2
162	166	1
67	68	2
208	208	1
191	209	1
70	71	1
30	33	2
34	35	1
2	3	1
100	100	1
46	46	3
158	188	1
71	72	2
165	178	1
48	48	1
123	124	1
168	184	2
81	81	2
171	171	2
74	74	5
39	39	1
121	121	3
240	241	1
70	70	3
167	215	1
183	183	2
127	192	1
20	37	1
111	111	3
10	10	3
181	181	1
43	43	4
1	20	3
201	201	2
66	66	3
56	56	4
237	237	1
1	15	1
169	172	1
204	204	2
185	185	3
226	226	1
9	201	2
51	51	2
230	230	3
163	163	2
119	119	4
37	59	1
105	105	1
10	216	2
9	9	1
38	38	2
157	157	1
183	200	1
194	194	4
150	150	2
166	166	2
65	65	2
15	15	1
62	62	3
158	159	3
238	238	1
207	207	1
137	138	1
137	137	1
200	222	1
168	171	1
102	102	1
57	57	1
148	148	1
40	40	2
115	153	1
142	142	2
215	215	1
84	84	3
45	45	2
114	114	2
144	145	2
21	21	1
103	104	2
176	177	1
97	97	1
33	39	1
109	173	1
139	158	1
83	84	2
26	26	2
50	50	2
16	16	5
219	219	1
99	99	5
235	235	1
123	123	2
47	48	1
205	225	1
15	167	1
135	139	1
19	33	1
179	179	3
18	18	3
173	173	1
182	182	1
50	51	2
14	15	1
23	23	2
127	198	1
212	212	1
147	147	1
103	123	2
19	19	3
109	174	4
174	174	1
37	38	1
103	103	1
136	136	1
242	242	3
61	61	1
8	8	3
106	106	3
224	225	1
49	49	3
30	61	1
7	211	3
210	222	2
178	180	1
75	75	1
149	149	2
144	161	1
76	106	1
53	54	2
25	29	1
66	204	1
127	127	2
24	24	1
58	58	1
151	151	2
31	74	2
180	180	2
31	33	1
12	12	1
169	170	1
168	169	1
102	129	1
86	86	3
109	109	2
8	199	1
7	7	2
48	54	1
177	177	2
6	7	1
150	153	1
96	96	3
40	91	2
119	121	1
156	156	2
192	192	1
53	53	1
145	145	1
161	161	2
104	105	1
113	113	1
169	196	1
65	190	2
3	7	1
187	187	2
82	84	2
3	3	2
229	229	1
177	178	1
146	146	2
56	84	1
42	42	2
152	155	1
170	170	1
170	171	1
184	184	1
174	175	2
143	143	1
138	139	1
65	66	1
168	168	1
96	97	1
104	104	1
59	60	1
128	130	1
152	152	1
0	201	1
17	18	1
227	230	1
17	21	1
55	55	1
203	204	1
159	159	1
6	126	1
47	47	1
129	152	1
115	120	1
202	202	2
167	168	1
154	162	1
79	79	1
107	125	1
48	49	1
225	225	2
31	31	1
162	162	1
0	3	1
71	71	1
124	124	2
145	148	1
150	157	1
179	181	1
228	228	1
1	1	1
163	164	1
155	155	1
6	6	3
98	98	2
133	133	1
11	170	1
33	34	1
231	231	1
119	120	1
83	83	1
73	73	1
179	180	1
214	216	1
117	117	1
155	157	1
55	105	2
203	203	1
122	124	1
132	134	1
32	38	1
2	2	1
101	101	2
79	80	1
13	21	1
66	67	1
160	184	1
