173	174	2
174	174	4
65	65	5
19	20	2
34	35	2
170	170	2
58	60	1
142	142	1
125	125	1
202	202	1
70	70	4
96	96	1
170	171	2
122	122	3
127	133	2
49	49	4
125	126	1
114	114	2
18	18	1
62	63	1
180	182	1
153	158	1
136	139	2
33	48	1
173	173	3
55	55	1
239	239	3
76	76	2
25	26	1
31	31	1
35	36	1
78	78	1
32	33	1
146	146	6
238	238	2
42	42	4
162	165	2
20	20	1
242	242	2
56	56	1
73	73	1
223	224	1
2	2	4
128	128	2
100	100	1
132	157	1
21	211	1
136	159	2
1	33	2
44	44	4
162	163	2
84	84	1
103	103	1
16	16	4
169	177	2
179	179	3
184	187	3
34	36	2
83	83	2
88	88	3
115	116	3
235	236	1
39	48	1
34	34	2
148	148	1
145	145	4
53	53	5
67	67	3
201	201	1
209	209	1
64	64	1
159	159	1
4	4	1
178	179	2
65	66	1
160	160	3
30	31	1
165	165	1
216	217	2
177	177	3
11	11	2
80	80	1
104	108	1
62	62	2
75	75	6
170	179	1
72	73	1
117	118	1
194	195	1
48	49	2
101	101	3
102	102	2
32	32	1
124	124	1
17	55	1
20	21	1
105	106	1
141	158	1
121	121	2
58	58	4
220	223	1
3	3	2
15	227	1
14	15	1
150	151	2
36	38	1
51	51	1
141	142	1
184	198	1
120	120	3
89	89	1
170	232	1
176	185	1
106	169	1
217	217	1
27	48	1
237	237	1
167	168	1
101	103	1
21	21	2
165	167	1
29	36	2
26	26	4
25	25	1
108	109	1
46	46	3
138	139	2
76	77	1
116	116	1
37	37	4
224	224	1
50	54	1
179	180	1
74	74	3
69	69	3
212	213	3
22	22	2
41	42	1
135	136	2
12	152	2
186	187	2
235	235	1
187	205	1
161	184	1
68	68	1
155	155	3
206	206	3
79	79	4
49	50	2
181	188	1
87	237	2
12	147	1
33	33	2
61	61	1
110	111	1
186	186	1
221	221	1
54	54	2
187	188	1
161	161	2
151	151	1
191	220	1
11	231	1
77	135	1
188	217	1
234	236	1
0	0	2
8	22	1
128	129	1
112	152	1
12	15	1
152	152	2
112	112	2
188	188	2
204	216	2
56	57	3
174	175	1
177	178	2
158	160	2
213	221	2
96	97	1
185	185	1
102	103	1
156	158	1
149	149	1
205	206	2
172	172	4
10	12	1
95	95	1
26	27	1
118	118	2
6	6	2
115	118	1
184	188	1
133	133	4
175	188	1
86	86	1
35	166	1
202	203	1
7	7	2
25	118	1
164	164	1
230	230	1
191	192	1
241	241	1
228	228	2
158	173	1
85	86	1
153	154	2
59	95	1
105	105	3
36	36	1
10	10	1
186	188	1
171	172	1
72	72	1
31	119	1
150	150	3
29	29	2
219	233	1
105	147	1
204	205	1
151	153	1
160	161	1
102	145	1
40	40	1
24	24	2
138	141	3
182	182	1
156	185	1
184	184	1
66	174	1
76	126	1
130	130	1
148	153	1
127	128	2
43	43	2
53	55	1
17	17	1
15	15	1
163	163	1
164	166	1
119	119	2
116	117	2
47	47	1
8	144	1
197	205	1
18	19	1
4	17	1
2	142	1
131	131	1
137	137	2
118	119	1
66	80	1
203	204	1
77	103	1
8	9	1
99	99	1
113	113	1
82	83	1
15	47	1
36	39	1
13	14	1
57	80	1
39	55	1
52	53	1
120	169	1
64	65	1
167	167	1
222	223	2
158	178	1
162	180	1
63	64	1
226	226	2
1	3	1
153	153	1
78	79	1
13	169	1
134	161	1
33	39	1
127	127	1
77	77	1
36	60	1
170	173	1
8	8	2
26	201	1
154	154	1
108	146	1
27	27	2
48	48	1
2	23	1
187	187	2
142	148	1
105	148	1
193	195	1
126	127	1
9	44	1
29	30	1
240	240	1
7	12	1
144	145	1
123	126	1
39	39	1
182	184	1
62	67	1
38	38	1
49	54	1
166	166	1
183	187	1
9	9	1
126	126	1
53	56	1
210	211	2
215	216	1
144	144	1
199	205	1
136	147	1
67	108	1
138	138	1
0	17	1
196	196	1
162	168	1
170	172	1
135	171	1
14	14	1
176	176	1
