76	78	1
16	16	1
37	37	2
52	53	2
165	165	1
111	111	4
43	43	5
81	81	2
152	152	4
61	63	1
106	106	3
118	118	1
163	163	3
151	151	3
14	15	1
35	35	3
42	42	2
74	74	2
5	5	2
24	24	5
15	15	4
78	93	1
23	23	5
89	89	1
115	115	1
110	157	1
129	129	2
16	155	1
168	168	2
18	18	1
117	118	3
62	63	1
160	160	4
112	128	1
7	7	1
117	119	1
158	158	2
80	83	2
77	78	1
53	53	2
6	12	2
126	127	1
104	104	5
140	141	4
49	49	1
147	147	1
103	104	3
130	130	2
159	159	3
1	15	1
93	94	2
146	146	2
145	145	1
0	0	3
109	110	3
2	3	1
90	90	4
76	77	1
155	156	1
78	97	1
126	150	1
134	134	3
107	109	1
15	111	2
164	164	1
138	138	5
16	144	1
39	39	3
143	143	8
27	28	1
127	134	3
68	119	2
88	88	1
130	162	1
19	19	2
147	148	2
83	85	1
112	113	1
44	44	1
3	4	1
72	73	1
86	86	2
123	123	1
119	119	2
87	88	1
6	24	1
109	111	1
140	140	2
130	132	2
38	38	1
170	170	1
132	134	1
97	97	3
100	100	3
0	6	1
109	109	1
85	119	1
99	126	1
41	42	2
122	152	1
4	22	2
128	128	2
39	40	2
13	28	1
36	37	1
33	33	1
12	12	1
11	11	4
14	14	2
75	75	1
151	152	1
94	96	1
17	17	1
120	120	1
149	161	2
139	151	2
157	157	4
148	149	2
134	150	1
11	13	2
92	92	1
3	27	1
4	13	1
132	132	2
148	148	1
8	8	3
5	7	2
13	13	4
67	77	1
123	151	1
160	161	1
45	45	2
7	35	2
83	83	1
142	142	1
10	10	1
26	80	1
121	122	1
114	114	3
45	46	1
25	25	1
126	126	1
0	38	1
85	85	2
2	2	1
120	156	2
22	23	2
116	116	1
137	142	1
80	94	1
67	67	2
8	106	2
15	16	2
48	49	1
36	36	3
14	106	1
3	3	2
163	167	1
73	73	1
54	54	2
69	85	1
154	154	1
108	108	3
136	139	1
10	107	1
70	71	1
136	136	1
27	27	2
139	155	1
162	162	1
8	150	1
141	141	2
42	43	1
129	162	1
34	34	3
137	137	2
98	99	1
135	135	3
92	112	1
149	149	3
169	169	1
8	49	1
65	65	1
14	27	1
87	87	2
128	163	1
125	125	1
113	114	2
114	123	1
145	146	1
6	6	2
1	1	1
28	28	1
41	41	1
0	46	1
144	145	1
15	18	1
50	50	1
40	40	1
161	166	1
106	169	1
78	92	1
162	163	1
63	82	1
149	168	1
71	93	1
64	66	1
96	104	1
123	127	1
110	110	1
49	50	1
36	39	1
86	162	1
161	161	1
127	127	1
156	157	3
155	157	1
48	48	2
14	109	1
71	71	1
49	51	1
52	52	1
75	76	1
99	99	1
164	166	1
105	107	1
102	102	1
139	139	1
97	104	1
167	168	1
