40	40	6
179	179	10
98	114	2
34	34	6
112	112	7
176	176	11
124	146	1
20	40	2
80	170	1
54	60	2
148	148	13
56	57	1
58	89	1
128	128	1
84	84	3
158	158	7
78	78	4
160	161	1
126	154	3
154	159	2
75	75	5
169	169	6
66	66	9
50	50	3
27	29	1
66	81	1
156	156	6
10	10	9
95	96	4
123	139	1
63	63	5
95	106	2
107	107	7
155	155	2
55	55	8
159	168	2
168	172	1
21	24	1
73	74	4
46	46	2
133	135	1
75	89	2
32	32	10
33	33	10
119	119	8
66	67	3
28	29	1
53	53	7
134	134	9
153	153	12
26	26	5
50	52	2
118	118	7
173	174	6
76	77	1
51	51	4
38	38	7
149	151	2
77	77	4
139	139	10
95	128	1
117	117	4
67	67	5
65	135	2
53	58	1
127	127	9
149	150	4
32	65	1
22	22	4
32	36	1
113	114	3
24	27	1
1	1	8
13	41	1
31	32	1
177	177	6
123	126	1
56	56	6
135	135	5
14	60	2
6	7	3
121	121	3
84	86	3
19	30	2
174	174	7
53	77	1
163	170	2
124	161	1
36	37	3
120	120	4
168	168	6
4	4	5
166	166	2
44	44	2
94	94	5
114	114	3
64	85	2
35	35	11
95	95	8
45	45	6
137	137	2
178	178	8
8	8	8
130	133	1
125	126	2
104	104	8
14	22	1
29	29	2
150	150	7
52	52	5
41	41	10
123	123	9
161	162	5
15	18	3
110	122	1
42	99	2
75	176	2
116	116	5
145	146	1
110	110	4
31	31	8
83	93	1
141	141	7
23	23	4
41	113	1
106	107	1
65	65	10
14	14	6
30	31	2
132	136	1
126	145	1
92	92	13
129	129	3
132	133	4
55	74	2
157	157	8
61	61	3
144	144	10
12	12	3
80	80	7
180	180	9
153	154	3
138	138	4
54	54	6
116	117	2
93	143	1
102	102	2
171	174	1
7	7	6
143	143	5
142	145	1
19	20	2
162	162	5
103	104	4
154	155	3
42	42	8
119	121	1
146	146	5
165	167	2
28	142	1
167	167	6
142	142	4
52	61	1
22	24	1
145	145	10
148	159	1
65	66	2
20	20	2
97	108	1
175	175	7
99	100	4
42	43	6
171	171	9
121	122	3
7	42	3
68	68	6
114	115	1
125	125	7
152	153	3
16	17	1
96	107	1
164	164	3
126	126	6
157	158	2
5	10	1
89	89	8
166	168	1
52	54	1
85	99	2
39	39	7
3	3	7
98	98	6
72	72	9
89	109	1
131	131	5
71	91	1
110	111	4
73	73	8
77	78	6
66	84	1
122	122	5
148	158	1
121	130	1
165	166	2
13	13	1
42	62	1
80	135	2
172	172	13
112	115	2
9	9	11
115	115	5
37	38	2
38	39	2
31	45	1
41	42	2
43	44	3
105	105	4
146	151	2
16	16	7
111	128	1
89	133	1
81	86	1
109	109	7
159	159	4
160	162	4
15	16	2
146	147	1
80	81	1
54	108	1
31	64	1
117	118	3
55	56	4
13	18	1
131	132	3
115	126	1
36	36	7
159	160	2
43	43	7
71	71	9
91	91	3
138	140	1
83	84	4
178	179	5
11	11	10
5	5	7
91	152	1
17	19	1
159	171	1
82	95	2
62	62	2
91	92	1
148	154	1
37	37	4
130	130	2
149	149	6
125	129	1
81	81	5
26	28	1
38	43	1
85	85	5
133	149	1
126	127	2
119	144	3
139	140	1
40	44	1
108	108	5
173	173	6
137	172	2
161	161	4
82	82	3
57	57	3
25	28	2
95	115	1
17	22	2
121	123	2
133	133	9
21	23	2
4	30	2
50	51	3
177	178	2
175	176	2
19	28	1
74	103	1
127	128	1
87	90	1
64	64	4
5	17	1
30	30	3
140	140	5
62	64	1
121	132	1
121	129	1
59	60	2
143	144	2
148	149	1
25	31	1
0	55	1
15	22	2
120	122	3
4	10	1
141	142	3
58	58	4
77	79	1
99	99	3
172	173	3
76	76	5
113	113	5
50	59	1
6	6	4
170	171	3
58	59	1
158	159	4
21	26	1
2	2	6
163	163	3
2	3	2
27	28	3
130	131	2
151	151	6
62	83	1
156	160	3
44	45	2
8	9	5
39	40	2
152	154	1
152	152	6
102	103	1
21	21	1
121	153	1
83	85	2
153	158	2
21	42	1
24	24	3
114	127	1
75	76	2
28	40	1
155	156	2
104	116	1
87	87	4
98	99	4
29	30	2
136	136	5
15	15	4
163	165	2
71	174	1
90	132	1
96	97	2
119	120	4
11	14	1
4	5	1
11	90	1
96	105	3
82	83	3
147	147	1
132	132	5
84	114	1
141	145	1
154	154	4
66	68	1
20	22	2
72	73	2
111	111	7
49	65	1
21	43	1
105	120	1
170	170	3
102	139	1
84	85	3
100	100	3
77	142	1
19	21	1
117	134	1
26	27	2
154	168	1
111	125	1
37	137	1
136	138	1
150	151	2
71	80	1
18	41	1
56	88	1
60	76	3
107	108	2
16	49	1
86	98	1
154	156	2
71	74	1
40	58	1
93	128	2
96	96	4
51	58	2
148	153	2
145	147	1
77	150	1
118	137	1
57	62	1
86	86	4
111	113	1
122	149	1
32	34	1
9	10	2
28	28	4
149	173	1
93	93	4
24	26	2
168	169	4
43	55	1
108	109	2
60	61	3
60	60	2
18	21	1
85	88	1
16	37	2
86	138	1
162	168	2
6	31	1
61	79	1
90	110	1
54	132	2
122	154	1
140	142	1
131	171	1
90	91	1
1	16	1
22	23	2
34	35	2
56	80	1
23	30	1
101	101	3
21	25	1
146	154	1
139	141	1
53	85	1
60	102	1
139	167	1
54	77	1
24	30	2
156	175	1
128	129	1
31	37	1
115	117	2
66	82	1
119	145	1
90	90	1
98	101	1
103	103	3
88	88	1
142	148	1
171	172	1
108	143	1
62	63	4
98	110	1
56	66	1
18	20	2
127	129	2
55	90	2
133	141	1
71	72	3
161	166	1
78	79	1
20	23	2
136	167	1
154	160	1
123	134	1
23	24	1
10	14	1
159	167	2
101	105	1
2	6	1
59	83	1
36	39	1
39	85	1
53	54	2
169	171	1
142	149	1
6	9	1
89	96	1
74	74	4
148	168	1
61	62	1
118	119	1
40	41	2
11	12	1
88	107	1
43	89	1
7	10	1
112	113	2
124	125	1
49	50	2
112	134	1
35	36	1
17	17	2
103	112	1
111	112	1
127	130	1
26	29	3
126	128	1
0	0	3
147	148	1
19	19	3
96	140	1
75	105	1
5	6	1
127	131	2
22	35	1
127	145	1
25	29	2
15	20	1
9	25	1
2	5	1
83	83	1
122	123	2
117	137	1
58	90	1
53	72	1
164	165	1
12	16	1
10	11	2
134	175	1
106	106	2
103	105	2
35	52	1
27	27	1
54	55	2
140	161	1
36	38	1
76	80	1
89	90	3
71	85	3
141	149	1
122	138	1
115	116	1
123	125	1
9	13	2
120	121	2
18	19	1
31	33	1
41	58	1
82	84	1
50	91	1
94	95	1
60	96	1
137	159	1
77	122	1
1	32	1
142	143	1
57	59	1
28	39	1
145	158	1
144	145	3
5	24	1
1	2	1
97	97	2
54	56	1
59	59	1
159	162	1
135	136	1
79	79	2
149	168	1
59	84	1
115	124	1
5	53	1
122	124	1
32	33	1
134	172	1
87	111	1
123	124	2
169	174	1
18	22	1
111	130	1
18	18	1
1	55	1
74	75	1
14	37	1
122	134	1
54	135	1
95	131	1
100	111	1
176	177	1
3	10	2
160	160	1
147	153	1
62	85	1
10	37	1
156	165	1
96	119	1
52	53	1
122	167	1
24	25	1
14	15	1
85	90	2
92	94	1
84	111	1
78	102	1
12	15	1
81	111	1
94	110	1
25	27	1
6	34	1
5	9	1
97	103	1
92	93	1
51	100	1
52	83	1
71	78	1
134	135	1
86	90	1
81	138	1
114	130	1
8	17	1
100	101	1
107	134	1
19	23	1
2	4	1
80	86	1
75	77	1
136	172	1
39	41	1
55	73	1
51	115	1
63	64	1
14	32	1
13	30	1
39	66	1
166	167	1
137	138	1
125	170	1
9	53	1
101	109	1
151	155	1
60	75	1
65	148	1
140	141	1
91	93	1
68	96	1
122	141	1
92	101	1
144	157	1
39	80	1
158	160	1
76	78	1
146	153	1
