5	31	1
9	11	1
95	98	3
78	82	1
32	32	3
85	86	3
27	27	7
20	82	2
75	76	1
43	43	6
125	125	7
109	109	3
108	109	3
43	45	1
110	116	1
18	18	12
49	50	1
30	30	7
26	29	4
101	101	3
13	31	1
42	42	2
72	72	8
10	120	1
9	43	1
78	78	6
9	61	1
16	17	3
68	68	8
97	97	6
62	68	1
17	17	6
65	65	9
34	34	3
27	39	2
98	123	1
133	133	4
131	131	3
37	37	2
35	35	8
15	15	13
80	84	2
94	94	4
4	4	5
121	122	2
63	63	3
84	84	4
2	2	4
18	26	1
108	108	10
115	118	1
40	40	5
1	1	4
57	57	5
90	90	7
71	71	3
130	130	9
20	29	2
104	105	2
7	7	9
5	5	3
82	83	1
111	111	4
99	99	6
123	128	1
45	75	1
67	67	8
117	117	10
131	132	3
126	126	1
38	39	3
6	59	1
82	82	6
12	12	3
94	132	1
80	80	2
34	35	2
115	115	4
100	100	6
59	59	5
22	22	2
66	67	1
20	30	1
47	48	2
64	64	10
129	131	1
101	121	1
24	24	2
73	74	3
133	134	1
56	56	6
129	133	1
132	132	5
9	9	6
74	74	6
83	83	1
79	79	4
120	122	2
69	69	8
87	90	1
113	113	5
39	39	2
105	121	2
36	36	7
20	20	3
67	68	4
11	11	4
6	7	1
103	103	4
37	39	1
7	56	1
128	128	2
24	26	2
105	105	1
86	86	2
66	120	1
92	92	4
23	23	3
107	111	1
87	87	3
15	45	1
23	24	4
84	90	1
10	27	1
70	70	6
114	114	5
38	38	6
134	134	5
76	76	3
19	19	6
46	58	1
61	61	2
17	45	1
45	45	5
93	93	4
89	115	1
114	115	1
18	47	1
85	85	5
109	126	4
98	127	1
78	79	2
119	119	9
28	29	3
43	44	1
15	18	1
29	29	1
86	88	1
77	78	3
91	91	1
123	123	2
21	21	4
68	73	1
30	31	3
17	33	1
25	25	7
129	129	1
23	26	1
49	92	2
46	46	1
0	64	3
118	118	4
5	16	1
57	58	1
95	96	2
86	121	1
122	122	2
36	37	1
69	70	2
66	66	5
41	41	2
82	120	1
26	26	2
109	115	1
8	8	3
5	34	1
42	83	1
34	77	1
112	134	1
102	102	5
124	133	1
73	73	4
78	83	1
77	77	6
6	6	3
7	10	2
46	47	1
10	15	1
107	108	1
79	89	2
71	72	3
60	60	5
100	123	1
84	85	1
99	101	5
78	80	1
12	34	1
59	61	1
79	80	3
75	75	2
124	126	1
61	62	1
6	9	3
97	107	2
111	114	1
93	116	1
12	13	4
107	115	1
42	55	1
0	0	2
105	109	1
114	133	1
68	69	1
39	55	1
112	112	2
98	132	1
62	62	8
8	9	1
24	28	1
130	132	2
92	93	2
107	109	1
3	111	1
46	67	1
102	112	1
93	119	1
103	104	1
85	95	1
48	88	1
81	81	4
79	81	1
13	94	1
17	18	2
11	16	1
58	58	3
10	17	1
82	90	1
95	132	1
106	107	1
48	49	1
95	95	3
87	113	1
40	41	2
121	121	2
115	116	1
10	34	2
78	94	1
94	131	1
119	120	1
86	87	1
78	101	1
13	13	2
23	25	1
82	95	1
79	82	1
55	55	2
110	110	3
40	43	1
12	22	1
28	40	1
16	16	3
112	127	1
16	30	1
14	14	2
19	20	3
12	14	1
20	25	1
113	114	3
10	10	2
93	99	2
109	123	1
88	88	2
26	27	1
120	120	2
19	36	1
98	99	1
7	121	1
115	124	1
91	92	1
83	110	1
132	133	1
47	47	5
9	10	1
91	134	1
14	15	3
127	127	3
98	98	1
6	13	1
132	134	1
24	25	2
40	97	1
32	33	2
10	11	1
13	14	1
107	107	1
97	98	1
116	130	1
13	46	1
107	126	1
3	3	1
88	98	1
82	84	1
18	45	1
29	42	1
108	127	1
116	117	1
29	30	1
126	130	1
33	33	1
113	132	1
76	77	1
130	131	2
21	22	1
61	68	1
3	4	2
126	128	1
39	41	1
121	123	1
18	23	1
83	99	1
31	39	1
35	43	1
13	93	1
10	73	1
65	67	2
102	110	2
104	104	1
10	33	1
44	44	2
28	42	1
108	111	1
50	91	1
112	113	1
80	122	1
116	116	1
28	32	2
76	115	1
6	60	1
37	38	1
99	100	1
68	97	2
84	120	1
45	46	1
56	58	1
83	103	1
33	34	1
15	122	1
15	16	1
31	33	1
90	101	1
103	128	1
4	11	1
131	133	1
44	77	1
16	34	1
108	126	1
47	93	1
27	41	1
