24	205	1
77	79	1
167	167	1
189	189	3
7	8	2
234	247	1
234	234	4
109	109	5
168	168	3
81	100	1
70	78	1
176	177	1
83	83	2
63	64	1
21	41	1
53	100	1
104	105	1
15	15	2
217	217	2
203	203	5
159	162	1
81	101	1
248	248	4
61	90	1
1	22	1
159	159	3
155	155	3
149	150	2
9	9	1
174	174	1
3	3	2
226	226	4
113	115	3
192	192	3
23	23	4
240	240	3
180	180	4
233	233	2
54	90	1
45	45	1
111	111	4
237	238	2
79	79	1
163	164	1
163	170	1
115	118	1
232	232	1
30	30	3
144	158	1
212	212	2
99	99	2
176	176	1
44	46	2
183	183	2
160	160	3
209	209	2
71	71	1
171	175	1
245	245	7
191	191	1
117	117	2
64	64	2
236	240	1
196	197	1
8	8	1
89	89	5
22	22	6
193	194	2
228	228	2
181	181	2
6	6	2
221	221	2
28	161	1
152	153	2
11	11	2
169	171	1
74	95	2
90	90	5
55	55	5
172	192	1
205	205	1
49	50	3
179	179	2
72	72	1
237	243	2
28	28	5
68	68	2
59	87	1
60	61	3
165	166	1
21	21	5
54	55	2
109	166	1
107	108	1
66	66	5
39	53	1
240	242	1
231	231	2
164	164	1
25	27	1
41	42	1
6	8	2
14	14	4
26	26	1
157	159	1
56	56	1
232	233	1
156	160	1
112	112	2
57	57	3
53	63	1
81	81	5
212	213	1
100	100	2
73	73	1
107	107	2
119	119	2
227	227	2
40	245	2
12	40	1
108	109	1
44	44	2
95	95	2
116	116	2
12	12	3
15	38	2
87	87	3
78	90	1
119	171	3
239	244	1
160	161	1
188	232	1
32	32	2
201	201	2
218	218	2
23	24	1
208	208	3
220	226	1
215	216	1
195	229	1
220	220	1
35	35	2
70	93	1
108	120	1
175	205	2
8	9	1
184	184	1
31	31	2
67	68	1
62	64	2
53	53	5
178	179	2
48	48	3
162	172	2
108	108	2
28	32	2
198	200	1
64	65	1
150	204	1
233	234	1
238	238	3
55	65	1
171	171	1
214	215	1
25	36	1
222	222	2
54	64	1
54	54	4
158	158	1
211	241	1
209	210	1
33	161	1
183	203	1
90	91	1
174	184	1
195	234	2
56	85	1
224	224	1
154	154	2
244	246	1
55	61	1
21	46	1
6	48	1
206	228	1
208	209	1
62	62	1
10	10	1
221	222	4
1	1	1
115	116	1
157	158	1
81	97	1
193	193	1
64	92	2
78	78	1
84	84	2
169	169	3
213	213	2
193	234	3
36	36	1
210	210	1
243	243	1
45	46	1
175	185	1
58	58	1
121	121	1
88	114	1
211	214	1
201	228	2
82	82	1
17	32	1
194	196	2
34	34	2
105	106	1
41	84	1
177	177	2
100	101	1
36	38	1
26	155	1
41	205	1
198	198	3
229	229	2
5	5	3
58	63	1
225	229	1
152	152	2
11	22	1
113	113	1
162	163	1
97	98	1
105	105	1
173	180	1
179	230	2
18	18	1
64	87	1
30	31	2
168	176	1
200	233	1
18	206	1
94	94	2
42	156	1
114	115	1
172	178	1
235	235	3
201	202	2
219	219	2
185	228	1
173	174	1
6	7	2
161	161	1
178	178	1
186	186	1
28	33	1
75	236	1
187	187	1
59	236	1
37	92	1
36	207	1
171	172	1
56	61	1
102	103	1
237	239	1
84	101	2
63	63	1
63	112	1
210	221	1
46	47	1
164	165	1
47	47	2
99	100	4
42	54	1
207	207	2
37	37	2
108	119	1
44	47	1
217	233	1
165	165	1
14	16	1
38	40	2
189	191	1
76	76	2
98	98	2
223	223	1
207	226	1
54	57	1
157	157	2
49	49	1
9	14	1
175	175	2
92	93	3
234	235	2
159	163	1
41	41	1
151	151	1
98	102	1
118	119	1
80	80	2
16	205	1
201	211	1
73	74	1
113	114	2
214	214	2
102	102	1
182	182	1
53	111	2
216	232	1
24	24	1
27	27	1
2	3	1
157	161	1
160	174	1
93	93	1
41	45	1
229	231	1
162	162	2
52	52	2
208	214	1
93	112	1
100	104	1
231	232	1
45	77	1
201	204	2
167	168	1
20	20	3
70	70	1
220	231	1
187	209	1
209	215	1
239	243	1
46	46	2
25	26	1
156	156	2
186	190	1
22	23	1
203	204	1
74	74	1
65	65	2
68	78	2
4	4	1
20	39	1
69	70	1
146	147	1
150	228	1
203	226	1
180	183	1
197	197	1
39	39	1
196	199	1
195	196	1
52	111	1
212	235	1
33	93	1
19	19	1
200	201	1
186	205	1
241	244	1
247	247	1
66	67	1
242	242	1
244	244	1
168	169	1
55	56	1
50	50	1
190	190	1
118	118	1
238	241	1
17	52	1
7	7	2
33	111	1
163	172	1
166	211	1
85	85	1
94	95	1
222	223	1
63	77	1
175	179	1
202	204	1
200	218	1
97	97	1
204	204	1
4	5	1
173	234	1
219	236	1
197	208	1
40	41	1
220	221	1
65	67	1
206	207	1
171	182	1
59	59	1
81	84	1
36	46	1
120	120	1
