75	96	1
9	10	1
220	220	4
190	191	1
169	169	2
177	177	3
203	204	1
174	175	2
229	229	1
74	74	4
45	45	2
24	71	1
138	140	1
11	109	2
66	66	4
212	213	2
11	12	1
121	121	2
161	161	2
182	182	2
44	62	1
99	99	5
155	155	1
184	185	1
151	151	4
150	150	3
191	191	4
23	23	3
10	10	2
116	116	2
85	85	4
239	241	1
51	51	2
239	239	1
17	17	1
47	74	1
154	154	3
172	173	3
202	202	5
168	168	3
56	57	1
130	130	1
234	234	1
172	172	1
238	239	1
22	22	4
134	135	1
79	80	1
102	102	3
208	208	1
190	192	2
214	230	1
126	126	6
12	24	1
117	117	2
132	135	1
214	214	1
161	189	2
166	199	1
97	117	2
210	212	3
171	171	3
150	187	1
138	139	2
146	146	1
217	218	2
162	165	3
242	242	2
123	124	2
126	127	3
81	83	1
29	30	2
119	119	2
133	133	2
227	227	2
153	153	1
39	42	1
21	21	4
211	211	5
23	55	2
193	194	1
0	0	3
24	24	3
80	81	1
11	121	1
79	104	1
46	175	1
27	27	4
36	36	1
111	140	1
44	45	2
30	107	1
61	61	2
48	49	1
234	235	2
174	174	6
84	84	2
173	173	5
225	225	1
137	138	1
157	157	3
56	60	1
223	223	1
164	164	3
104	126	2
159	159	3
206	207	1
43	61	2
37	88	1
152	152	1
81	81	2
204	206	1
54	66	1
149	150	1
32	32	1
60	60	1
158	158	6
167	168	1
37	38	1
199	200	1
55	55	2
197	197	1
127	127	3
101	101	4
163	163	1
47	65	1
193	193	2
140	142	2
59	60	1
78	78	1
137	148	2
79	79	3
28	28	2
50	50	1
8	8	4
154	155	2
199	199	2
49	49	1
128	185	1
216	224	2
70	70	1
114	119	1
172	216	1
145	145	2
125	125	1
103	103	1
193	195	2
9	9	1
128	128	2
162	162	1
58	81	1
183	201	1
187	187	2
190	201	1
118	118	1
66	67	2
237	237	1
169	200	1
85	98	1
39	39	5
5	70	2
29	62	1
30	30	3
73	73	1
74	75	1
31	31	2
88	96	1
178	178	1
163	199	1
147	147	2
95	127	2
183	183	2
113	113	2
203	203	2
54	58	1
106	106	1
158	172	2
188	188	1
122	122	1
43	43	3
215	216	1
209	209	2
228	228	1
211	216	1
164	188	1
167	174	1
40	40	1
196	196	2
3	12	1
186	212	2
48	51	1
27	32	1
193	206	1
10	198	2
140	140	2
107	107	2
45	62	1
98	98	1
195	198	1
134	157	1
34	34	3
54	55	2
104	117	1
7	7	1
6	228	1
25	25	2
71	71	2
65	158	1
230	231	1
195	205	1
52	53	1
8	31	1
112	122	1
15	15	1
170	170	1
139	142	1
105	122	2
217	219	1
179	187	1
51	61	1
150	151	1
240	241	1
69	237	1
186	186	2
33	33	2
11	11	4
69	69	1
90	104	1
220	222	1
15	23	1
217	217	2
24	25	1
202	232	1
231	231	1
96	96	3
3	4	1
219	219	1
33	37	1
62	62	2
82	82	2
133	150	1
232	233	1
216	216	1
194	195	2
129	130	1
54	78	1
162	187	1
42	42	1
120	145	1
124	125	2
238	238	1
106	128	1
40	41	2
16	39	1
4	4	2
137	137	4
65	65	2
45	71	1
185	187	2
184	187	1
86	86	1
21	22	1
42	43	1
76	76	2
123	123	1
104	104	1
133	151	1
28	61	1
166	166	1
57	59	1
14	14	2
192	196	1
119	120	1
58	58	1
3	9	1
158	160	1
26	26	2
13	22	1
107	123	1
136	170	1
136	136	3
46	47	1
11	15	1
15	16	1
138	148	1
187	188	1
165	166	1
200	200	2
68	69	1
207	207	1
10	11	1
46	46	2
137	139	1
124	157	1
0	1	2
160	160	1
18	34	1
23	108	1
233	233	1
183	192	1
240	240	1
47	47	1
107	118	1
176	176	1
32	41	1
58	59	1
236	236	1
42	48	1
18	18	1
185	186	1
214	215	1
183	191	1
72	72	1
12	231	1
6	40	1
10	179	1
159	171	1
34	35	1
85	86	1
153	158	1
167	167	1
34	36	1
99	146	1
20	20	1
135	135	2
124	124	1
76	81	1
54	54	1
181	181	1
3	3	1
110	110	2
45	63	1
8	184	1
32	33	1
230	230	1
149	151	1
104	105	1
226	229	1
119	130	1
143	143	1
