146	146	1
2	2	5
38	38	7
27	27	11
10	10	5
78	78	5
41	42	1
0	46	1
51	51	5
56	56	5
123	124	3
149	149	7
86	87	1
80	150	2
154	156	3
86	86	7
42	136	1
118	118	4
150	150	6
142	142	6
166	166	3
105	106	2
82	83	1
57	57	3
125	125	4
124	126	1
93	93	2
20	21	2
148	148	2
160	160	5
11	104	1
139	139	6
107	107	4
46	46	3
35	35	6
8	8	2
94	94	2
163	163	5
144	144	5
117	117	4
24	50	1
39	40	6
42	79	1
104	105	3
44	90	1
9	9	4
26	26	6
40	40	10
50	50	6
106	106	4
168	168	7
85	136	3
88	104	2
43	43	4
74	75	3
155	164	1
84	85	1
6	6	3
99	99	4
13	13	7
77	80	1
100	112	1
46	47	3
71	146	1
157	157	7
133	134	2
53	53	4
33	37	1
6	90	1
154	154	8
102	103	3
126	126	3
116	116	6
98	164	1
54	54	4
150	151	3
160	163	1
49	49	2
3	3	5
92	94	2
24	25	1
39	39	3
136	136	7
162	162	5
119	119	2
7	7	5
74	74	5
102	102	1
44	44	3
17	18	3
127	130	3
68	69	2
149	150	2
81	81	5
124	145	1
155	155	9
75	75	4
112	113	2
125	157	1
34	34	8
44	45	1
37	37	10
47	47	6
167	167	4
91	95	1
143	143	6
121	121	2
12	12	4
65	71	1
9	10	1
44	46	1
123	155	1
73	73	7
36	37	5
115	115	1
132	132	6
3	138	1
82	82	4
4	4	7
108	108	7
69	69	4
111	111	3
169	169	3
86	88	1
5	5	5
114	117	3
119	125	1
155	156	2
142	143	1
71	133	1
77	78	2
144	146	1
136	147	1
42	42	4
25	50	1
137	137	3
22	22	3
56	57	1
63	64	1
146	147	1
153	154	4
34	35	3
135	135	4
50	51	1
87	87	2
161	161	2
66	66	2
165	165	3
8	9	1
161	163	1
12	48	2
20	20	4
123	123	5
151	151	6
36	36	7
152	154	1
87	88	4
18	18	6
70	70	1
2	83	2
23	23	5
78	79	1
84	84	4
14	14	3
147	160	2
15	15	6
159	159	9
47	49	2
158	159	1
125	126	3
109	109	1
144	170	1
151	158	2
129	154	1
108	109	1
120	120	4
91	92	2
123	156	1
128	128	2
126	127	1
10	18	1
16	16	3
41	41	6
19	23	1
76	107	1
88	89	1
114	114	3
43	88	1
66	67	1
144	145	1
116	163	1
105	105	2
7	11	2
12	25	1
17	17	11
4	73	1
86	90	1
134	135	2
64	64	2
143	145	1
131	132	3
145	145	2
79	79	1
161	162	1
19	20	2
90	90	5
25	25	3
52	57	1
6	14	1
21	21	3
165	166	1
159	160	2
115	116	1
110	110	4
153	155	3
113	113	3
147	148	1
169	170	1
20	38	1
163	165	1
129	129	2
146	164	1
170	170	3
92	92	1
23	25	1
127	127	3
134	134	4
157	158	1
11	18	1
7	9	1
119	134	2
51	52	1
27	28	2
143	147	1
53	55	1
65	140	1
98	99	2
14	15	4
92	93	1
153	153	2
89	89	2
104	104	4
126	130	2
45	45	5
155	161	1
98	98	1
10	15	1
144	165	1
53	62	1
21	22	2
20	137	1
10	11	1
97	99	1
73	83	1
93	94	1
149	151	2
90	91	2
87	97	1
93	95	1
132	140	1
0	1	1
15	17	1
140	140	4
22	40	1
152	152	2
118	133	1
76	76	1
144	147	2
132	133	2
24	24	4
39	41	1
133	152	1
0	147	1
68	101	1
11	11	4
139	150	1
131	131	1
55	55	2
79	151	1
147	147	3
135	136	3
126	161	1
143	148	1
139	149	1
65	67	1
100	103	1
83	84	2
57	62	1
136	137	3
95	96	3
5	74	1
91	94	1
109	136	1
65	69	1
40	140	1
38	39	1
18	27	1
130	135	1
4	14	1
130	154	1
101	101	1
130	130	3
163	164	2
164	164	3
99	100	1
16	17	1
110	111	1
97	106	1
122	122	2
85	85	2
91	91	2
15	16	1
138	139	1
15	27	1
19	19	3
161	164	1
1	1	1
97	102	1
34	111	1
126	129	1
44	51	1
38	41	1
33	33	3
124	124	1
0	0	2
58	58	1
100	101	1
118	156	1
50	63	1
164	165	1
5	25	2
22	23	1
154	155	3
6	47	1
49	57	1
38	56	1
138	138	3
130	131	2
144	159	1
133	133	2
101	102	4
17	52	1
135	137	2
24	40	1
71	83	1
7	34	1
52	52	4
53	66	1
159	162	1
24	136	1
141	141	2
144	154	1
142	155	1
71	71	3
9	12	1
156	157	1
83	162	1
138	144	1
103	104	1
89	108	2
72	73	2
149	160	1
156	156	3
1	2	1
4	15	1
134	140	1
89	90	1
108	136	1
151	170	1
55	80	1
100	100	1
148	149	1
158	158	1
72	72	1
14	16	1
62	65	1
112	112	1
1	5	1
127	134	1
80	80	1
5	7	1
110	118	1
111	149	1
69	70	1
137	138	1
6	7	1
48	50	2
50	72	1
13	14	1
168	169	1
3	4	2
136	138	1
70	105	1
56	62	1
97	164	1
2	3	1
11	12	1
91	96	1
125	145	1
147	151	1
48	48	2
85	140	1
127	151	1
127	129	1
22	24	1
167	168	1
138	140	1
64	65	1
67	68	1
21	23	1
6	15	1
116	131	1
