100	109	1
123	123	2
11	13	1
99	99	2
125	125	3
40	41	2
64	64	3
31	31	1
33	36	4
117	117	3
68	68	5
119	123	2
147	147	1
44	44	2
119	119	5
41	48	2
75	75	2
92	94	1
35	35	3
112	114	1
65	65	2
107	108	1
143	146	1
31	36	1
4	4	3
2	38	1
8	9	2
7	15	1
113	114	2
54	55	2
90	93	1
86	86	1
92	121	1
80	92	1
81	82	1
35	36	2
114	114	4
107	107	2
56	56	4
107	120	1
53	54	1
100	100	3
123	124	1
14	42	1
11	11	2
85	85	6
110	118	3
79	81	1
117	137	1
95	95	3
146	146	4
5	5	3
26	82	1
66	89	1
137	145	2
137	146	1
88	88	2
145	146	1
43	49	1
86	87	1
103	103	2
39	54	1
65	68	1
84	84	2
130	132	1
122	122	2
6	7	1
63	66	1
132	132	2
76	76	2
124	128	1
49	71	1
108	108	3
46	147	2
135	136	1
70	70	7
137	137	2
69	69	4
11	12	2
127	127	3
149	149	1
148	148	2
114	143	1
143	144	1
115	115	4
4	96	1
152	152	1
30	30	3
95	97	2
3	3	2
39	39	3
29	29	2
24	24	3
25	25	1
23	23	2
111	115	1
17	17	7
150	150	1
37	37	1
144	146	1
97	98	3
7	14	2
7	7	1
87	102	2
130	130	3
32	32	2
90	90	2
87	87	1
150	151	1
26	33	1
48	48	3
62	64	1
36	36	1
50	50	1
43	44	1
45	46	1
144	144	2
3	30	1
104	144	1
79	111	1
46	46	2
110	111	1
71	71	1
38	39	2
100	106	1
18	18	4
80	82	1
106	107	1
85	86	1
119	148	1
129	129	4
93	93	3
93	98	1
109	110	3
13	13	1
21	21	2
125	128	1
91	94	1
92	92	1
47	47	2
32	36	1
136	136	3
132	148	1
3	85	1
32	33	2
79	79	1
15	16	3
110	110	1
99	132	1
154	154	3
113	113	1
27	28	2
102	102	2
104	105	1
75	76	1
125	127	1
78	78	4
14	14	2
63	63	1
67	84	1
12	12	4
38	38	2
73	73	3
118	118	2
83	83	3
22	23	1
153	153	3
49	154	1
57	58	1
137	138	2
66	66	1
71	73	1
114	138	1
138	138	1
55	71	1
145	145	2
142	144	1
51	51	4
50	53	1
88	93	1
48	54	1
25	26	2
139	141	1
128	128	2
58	63	1
74	74	3
10	22	1
114	116	1
3	4	1
105	124	1
128	139	1
120	121	1
72	117	2
16	16	1
8	26	1
129	130	2
78	79	2
46	138	1
128	129	1
49	49	3
41	41	1
96	96	1
139	142	1
9	12	1
34	37	1
23	25	2
16	37	1
35	75	1
20	21	1
16	25	2
142	142	3
45	45	1
28	28	1
143	143	1
134	134	2
101	113	1
131	132	1
94	108	1
29	90	1
71	100	1
53	76	1
31	50	1
27	34	1
67	67	1
19	21	1
102	114	1
101	114	1
72	73	1
116	126	1
7	10	1
37	75	1
78	105	2
14	34	2
115	116	2
62	62	1
80	86	1
124	125	1
86	99	1
19	19	1
56	108	1
75	85	1
100	102	1
54	54	3
40	40	2
64	69	1
104	111	1
134	135	1
69	117	1
135	135	1
20	22	1
121	147	1
74	75	1
34	36	1
6	69	1
20	20	1
66	67	1
56	57	1
120	124	1
100	108	1
4	42	1
151	151	2
4	6	1
126	126	1
80	80	1
106	106	3
141	141	2
120	122	1
132	144	1
77	77	1
17	19	1
16	42	1
74	85	1
86	93	1
32	34	1
48	53	1
48	49	1
35	41	1
19	42	1
144	145	1
122	130	1
113	117	1
44	103	1
19	20	1
98	98	1
124	127	1
152	153	1
64	66	1
111	114	1
112	122	1
96	97	1
16	18	1
104	104	1
9	9	1
123	135	1
65	85	1
