14	31	2
128	128	5
56	80	2
83	85	1
35	49	1
71	72	2
133	133	2
42	43	1
6	6	2
61	61	3
130	131	2
125	129	1
92	93	2
124	124	3
89	89	2
92	94	1
130	134	4
84	104	1
32	133	1
18	46	1
117	117	1
82	82	7
32	32	3
40	41	1
115	115	2
121	121	2
42	42	5
94	112	1
70	76	1
5	5	4
86	96	1
27	30	1
15	15	3
14	14	1
57	58	3
64	123	1
87	89	2
98	99	1
59	77	1
110	110	2
62	62	1
69	69	3
128	132	2
107	107	6
13	13	1
5	13	1
9	11	3
115	120	1
25	27	1
125	126	1
71	71	2
66	66	2
99	99	4
83	84	2
27	32	1
22	22	3
36	37	2
95	95	1
79	121	1
111	115	2
26	26	4
24	31	1
38	38	5
45	47	2
96	98	2
50	50	1
123	126	1
20	23	1
70	71	1
85	85	2
63	72	1
38	45	1
131	132	1
91	104	1
85	86	1
119	119	1
128	129	1
130	133	1
36	43	3
107	128	1
32	33	2
12	12	1
19	20	1
4	118	1
103	103	3
65	66	1
103	121	1
2	62	1
39	42	2
89	92	1
118	118	2
35	36	1
134	134	2
97	99	1
120	120	3
93	93	4
114	115	1
8	8	2
19	19	4
63	86	1
40	40	2
77	77	1
60	60	3
18	18	3
97	97	1
44	44	3
39	39	2
73	74	1
51	51	1
131	133	1
133	134	1
92	92	5
88	88	1
10	11	2
39	41	2
72	72	2
126	126	2
4	112	1
58	58	1
24	24	2
8	29	1
11	11	2
55	55	2
112	112	4
18	68	1
31	32	1
2	2	5
94	95	2
130	130	3
10	10	6
102	102	1
21	21	1
1	67	1
34	34	3
102	128	1
17	74	1
2	60	1
83	83	1
80	80	1
2	11	1
36	98	1
12	15	1
92	124	1
129	129	5
101	101	2
104	104	3
33	34	3
31	33	1
108	108	1
125	125	2
47	67	1
131	131	2
109	109	8
0	0	2
91	91	1
116	116	1
70	70	3
82	85	1
67	67	2
75	75	1
45	45	2
21	22	2
96	96	1
108	131	2
8	30	1
14	79	1
87	87	4
90	90	1
41	41	3
98	110	2
81	81	3
36	36	1
26	27	2
40	42	1
77	92	1
8	11	1
24	41	2
23	23	2
84	84	5
7	29	1
124	125	1
95	114	1
80	110	1
79	80	3
44	119	2
33	33	2
59	59	4
112	115	1
16	16	1
79	134	1
14	98	1
5	71	1
28	112	1
123	123	1
78	120	1
4	4	3
7	7	2
116	120	1
94	123	2
15	16	2
85	118	1
114	131	1
65	65	3
31	31	1
44	94	1
127	133	2
11	32	1
95	125	1
63	63	3
25	26	2
110	132	1
80	81	1
73	73	2
28	28	1
7	32	1
100	100	2
106	106	1
46	46	1
60	61	1
111	111	3
9	10	2
93	94	1
101	122	1
15	18	1
27	27	1
41	55	1
25	25	1
117	118	2
104	107	1
37	37	3
107	129	1
56	56	2
95	119	1
97	110	2
32	114	1
57	57	1
103	105	1
27	28	1
60	69	1
81	91	1
30	30	1
48	48	1
46	59	1
94	94	1
33	67	1
86	86	1
85	97	1
86	126	2
101	133	1
69	75	1
102	107	1
78	78	1
59	69	1
95	107	1
70	72	1
72	73	1
112	117	1
112	113	2
113	113	2
110	111	1
127	127	2
56	91	1
49	49	1
20	20	1
35	35	1
20	22	1
64	64	1
13	14	1
47	47	1
3	9	1
1	1	1
107	116	1
132	133	1
35	94	1
113	114	1
20	47	1
9	110	1
72	75	1
16	74	1
108	111	1
84	126	1
