158	158	5
16	16	5
22	24	2
40	40	5
145	146	1
137	137	3
17	21	1
53	53	4
152	166	1
161	161	3
13	14	1
5	5	8
35	35	7
167	167	7
94	96	1
64	69	2
133	162	1
113	113	1
22	23	2
50	50	3
144	144	3
49	49	3
124	124	1
100	100	2
123	124	1
74	74	2
57	57	4
158	163	1
74	87	1
25	25	8
34	35	1
84	84	2
24	24	2
167	169	2
133	133	4
127	127	5
76	77	2
112	112	3
0	0	3
17	18	1
152	152	2
160	160	2
5	24	1
121	123	1
163	164	4
15	15	5
73	73	3
26	26	3
169	170	1
14	25	1
2	3	1
69	72	4
109	111	1
10	10	1
38	38	5
4	4	7
9	9	2
89	89	2
155	155	2
6	6	4
44	46	1
153	153	2
109	109	3
56	56	3
136	136	5
15	16	4
138	138	4
36	36	3
159	160	1
143	143	2
23	24	1
65	65	2
22	22	4
125	125	3
156	156	7
19	19	4
71	83	1
106	107	2
118	158	2
107	107	2
11	11	1
68	68	2
75	96	1
8	9	1
82	82	2
35	43	1
42	42	4
88	88	3
68	112	1
39	39	2
51	51	3
44	74	1
170	170	3
147	147	4
56	57	1
7	10	1
112	126	1
139	139	1
4	39	1
27	27	1
168	168	2
150	150	1
52	53	1
41	42	1
46	50	1
7	7	2
156	157	1
102	102	3
6	37	1
13	37	1
139	140	1
100	101	1
34	43	1
27	28	2
138	139	1
111	111	1
21	22	1
140	140	1
106	106	1
122	122	1
7	8	1
152	165	1
7	134	1
161	163	1
90	90	1
147	148	1
83	84	1
101	101	3
105	106	1
132	133	1
126	136	1
120	120	1
45	45	1
3	3	1
121	121	1
70	80	3
151	151	2
47	84	1
129	163	1
66	67	1
52	52	1
54	54	2
9	152	1
95	135	1
137	159	1
5	6	1
146	146	1
104	104	2
165	165	1
154	154	3
37	38	1
20	20	1
96	98	1
115	163	1
130	130	2
70	105	1
115	115	2
93	93	1
28	28	1
113	142	1
71	71	2
116	116	3
79	79	1
70	70	1
46	46	3
117	117	1
93	94	3
135	136	2
97	97	2
18	18	1
98	99	1
4	37	2
157	158	1
126	126	4
131	135	1
94	94	1
111	136	1
36	37	1
119	119	3
148	148	1
64	64	3
111	112	1
141	141	1
149	149	1
81	81	5
118	118	1
129	131	1
133	134	1
75	75	3
166	166	2
14	15	2
161	168	2
143	144	1
40	117	2
164	164	1
52	56	1
72	72	2
20	21	2
124	125	1
3	4	1
150	151	1
134	134	1
83	83	2
5	8	1
87	87	1
116	127	1
160	169	1
3	18	1
140	141	1
135	140	1
110	111	1
141	142	1
24	26	1
17	17	1
128	132	1
4	20	1
76	76	2
105	105	1
110	110	1
86	87	1
153	154	1
132	132	2
160	161	2
169	169	1
69	69	1
96	96	1
11	12	1
26	27	1
108	109	1
91	91	1
91	92	1
43	56	1
41	41	1
8	8	1
133	142	1
129	130	2
43	68	1
54	55	1
5	38	1
33	40	1
90	91	1
131	132	1
76	80	1
13	49	1
4	15	1
50	52	1
159	159	1
138	161	1
81	82	1
118	119	1
11	15	1
58	58	1
1	2	1
11	14	1
101	102	1
130	150	1
73	75	1
1	1	1
158	159	1
39	40	1
40	41	1
131	131	1
145	145	1
104	105	1
