149	179	1
9	9	2
101	183	1
118	118	2
160	162	1
101	101	3
14	14	3
188	188	5
18	18	3
137	137	2
140	142	1
169	191	2
147	147	4
80	80	9
189	189	6
149	149	2
48	50	1
121	124	1
150	150	5
33	42	1
137	138	1
179	179	2
73	73	4
180	180	1
157	157	5
219	219	2
51	51	2
128	128	1
149	206	1
164	164	4
156	156	4
45	66	1
99	173	1
241	241	2
212	222	1
147	148	1
3	3	2
173	173	3
25	32	1
64	240	1
189	192	1
56	170	1
103	107	1
52	53	1
34	35	5
41	49	1
56	59	1
187	187	1
158	158	2
120	120	1
132	134	1
139	139	3
160	176	1
171	171	2
132	132	3
10	11	1
66	66	3
33	220	1
13	13	6
64	64	3
32	32	2
119	119	3
207	207	1
76	76	1
129	129	3
178	178	2
115	115	3
88	89	1
123	126	1
190	210	1
234	236	3
221	222	2
139	140	4
39	80	1
31	37	1
145	145	1
80	81	1
143	151	1
183	183	2
40	40	1
225	226	1
162	162	3
155	155	3
77	77	3
138	138	1
215	215	1
229	229	2
83	84	2
123	123	1
40	60	2
177	177	4
25	242	1
20	20	1
220	220	1
217	218	2
143	150	1
44	44	2
182	182	3
177	178	1
47	47	3
203	203	1
22	23	2
236	236	2
81	84	1
60	61	1
33	35	1
29	29	4
41	159	1
44	45	3
238	238	5
182	183	1
100	100	2
198	201	1
167	167	2
74	208	1
224	224	6
211	211	2
43	43	6
218	236	1
166	166	1
210	212	1
97	97	3
202	202	2
160	160	3
76	164	1
136	136	2
165	166	2
31	31	2
11	11	3
85	85	2
59	59	3
140	143	1
129	174	1
130	130	3
168	168	1
193	193	2
134	160	1
95	95	1
238	241	1
5	6	1
78	78	2
64	65	1
206	206	1
26	26	3
166	191	1
2	3	1
149	181	1
204	204	1
92	102	1
170	170	2
161	162	1
150	151	1
61	61	3
42	42	5
169	180	1
136	157	2
181	181	2
174	175	4
121	121	3
111	111	1
233	233	2
221	221	1
52	52	2
117	117	4
154	154	2
16	16	2
74	74	1
174	174	2
204	206	3
198	200	1
178	183	1
113	113	3
142	153	2
133	133	1
57	58	2
49	49	2
21	21	1
70	70	4
208	208	3
9	231	1
146	218	1
208	231	1
202	203	1
56	56	1
120	124	2
19	20	1
172	172	3
116	117	1
110	130	1
224	225	1
104	104	2
190	190	1
69	73	1
63	103	1
151	151	5
75	75	4
17	17	1
62	65	1
31	39	1
169	169	4
35	36	1
27	27	4
197	197	1
195	195	1
143	145	1
105	105	1
102	128	1
61	86	1
135	135	3
71	71	1
86	86	2
167	168	1
154	155	2
31	32	1
107	107	2
185	215	1
141	142	1
127	128	1
81	82	2
36	38	1
124	124	3
51	53	2
15	15	1
194	196	1
186	186	1
28	28	3
54	55	2
200	208	1
84	84	4
10	27	2
153	153	1
122	122	1
57	81	2
131	131	1
204	207	1
58	62	1
146	146	1
33	34	2
35	57	1
60	196	2
12	13	1
1	3	1
176	176	1
102	102	2
50	50	2
67	68	1
115	116	1
120	130	1
36	36	1
58	58	1
226	226	2
180	182	2
15	36	1
7	7	3
59	60	1
185	187	1
214	214	3
139	141	1
164	165	1
98	98	1
156	157	1
175	175	1
115	170	1
106	113	1
185	185	2
6	6	2
10	10	2
32	218	1
201	204	1
35	179	1
139	152	1
7	23	1
37	39	1
218	218	1
192	192	1
11	217	1
166	167	1
114	118	1
18	19	1
144	147	1
184	184	2
211	212	2
152	152	2
240	240	2
143	147	1
98	100	1
170	171	1
173	174	1
17	19	1
149	177	1
65	65	2
126	126	1
67	75	1
88	88	1
41	42	1
125	126	2
116	116	2
205	206	1
62	62	3
169	170	1
2	7	2
242	242	1
183	184	1
29	31	1
165	165	1
157	224	1
143	143	1
35	35	1
128	129	1
150	156	1
31	33	1
32	58	2
7	183	1
228	230	1
138	140	1
142	142	2
205	205	1
172	173	1
44	106	1
133	137	1
156	225	1
158	159	2
61	69	1
3	25	1
34	34	1
57	57	1
116	156	1
143	149	2
218	220	1
33	33	2
54	54	1
143	144	1
233	234	1
0	0	1
24	70	1
148	149	1
37	37	1
147	165	1
69	69	1
138	157	1
199	200	1
77	98	1
181	184	1
160	171	1
8	8	1
235	236	1
5	7	1
55	61	1
19	19	1
68	69	1
25	26	1
12	12	1
56	57	1
77	78	1
235	235	1
66	67	1
4	5	2
84	108	1
174	238	1
111	130	1
125	125	2
49	51	1
167	191	1
103	103	1
65	69	1
148	148	1
167	184	1
