125	125	2
95	127	1
135	135	5
79	79	4
30	30	4
101	102	2
44	44	3
90	90	2
71	71	3
95	95	3
80	80	2
10	10	3
119	119	4
156	156	5
40	42	1
151	151	4
71	73	2
75	75	4
85	87	1
142	142	4
32	33	3
116	147	1
3	4	2
132	132	8
40	40	6
157	157	5
141	141	1
131	131	2
122	122	5
94	94	6
51	52	1
98	98	7
141	147	1
93	94	5
43	127	1
103	103	6
97	97	6
105	106	2
121	122	3
18	18	3
106	106	4
136	137	3
135	140	1
86	86	3
80	81	2
117	118	1
73	73	12
98	100	1
32	36	1
62	62	3
133	133	12
128	128	6
21	21	6
84	84	2
120	135	1
118	122	2
108	108	9
113	113	6
55	55	3
78	80	1
149	150	1
2	2	4
132	133	4
23	23	4
145	145	1
87	94	2
144	144	6
66	105	1
9	9	2
153	153	5
116	116	2
68	68	5
155	156	3
12	23	1
103	104	2
4	4	3
158	158	3
130	130	4
114	114	5
136	140	2
91	91	2
117	117	5
36	36	4
49	49	5
145	146	3
37	37	6
138	138	7
135	136	3
107	107	5
42	42	4
31	31	5
32	32	2
79	80	2
89	89	1
150	152	1
87	88	1
139	139	6
127	127	7
24	24	3
110	133	1
3	3	4
27	27	3
95	96	2
112	112	4
137	138	3
154	154	2
114	115	4
8	8	2
66	66	7
134	134	5
79	81	1
137	137	4
15	15	3
26	50	1
139	140	1
80	82	1
150	151	2
66	67	5
2	129	1
21	24	1
10	48	1
140	140	3
81	81	2
73	74	1
10	17	1
131	140	1
47	48	1
67	67	2
65	65	6
150	150	5
34	34	1
46	46	3
81	146	1
53	54	2
143	143	3
118	120	1
22	22	3
73	130	1
30	75	2
120	120	5
154	155	1
31	44	1
48	48	1
19	20	4
35	35	5
64	85	2
117	121	1
45	95	1
89	147	2
24	47	1
14	14	3
54	54	2
107	108	1
153	154	1
101	101	4
77	77	1
69	70	2
143	144	2
5	5	3
138	139	3
37	52	1
30	43	2
108	109	2
86	134	1
111	111	7
56	56	3
1	1	4
118	118	2
50	51	4
91	116	1
19	19	1
109	118	1
113	114	3
130	131	3
141	146	1
132	144	2
1	2	1
24	44	1
104	104	5
12	40	1
121	141	1
45	45	5
38	38	3
9	135	1
128	129	2
10	33	1
123	123	4
12	14	3
147	148	2
39	39	1
124	124	2
133	139	1
44	47	1
97	106	1
13	14	1
111	129	1
63	63	1
53	84	1
51	54	1
53	57	1
5	29	1
111	112	2
102	103	1
136	136	3
50	98	2
86	138	1
146	146	2
2	3	3
20	120	1
112	120	1
123	124	2
66	138	1
56	57	1
20	20	2
78	78	4
102	102	3
11	17	1
93	93	2
81	145	2
121	121	3
56	86	1
106	107	2
95	121	1
40	48	1
66	73	1
77	109	1
92	96	2
69	69	2
45	53	3
142	145	1
112	126	1
70	70	3
68	71	1
110	111	1
109	109	5
129	140	1
140	141	1
98	104	2
87	142	1
105	159	1
115	115	3
82	155	1
107	113	1
50	50	4
92	92	3
72	106	1
12	12	2
152	153	2
155	155	2
44	64	1
37	89	1
23	106	1
15	18	2
43	43	1
118	138	1
30	111	1
28	28	4
125	127	1
80	108	1
46	55	1
110	110	3
29	30	2
116	120	2
25	25	3
135	137	3
45	52	1
8	23	1
105	105	1
78	79	1
52	52	2
10	93	1
123	125	1
156	157	1
108	111	2
111	116	1
146	147	3
31	55	1
37	91	1
82	83	1
116	117	1
100	100	3
147	147	2
0	0	2
87	87	3
78	123	1
55	56	1
131	154	1
71	153	2
139	141	1
11	48	1
137	141	1
6	6	3
48	56	1
100	150	1
116	119	1
105	150	1
109	124	1
23	25	2
157	158	1
33	33	3
17	21	1
56	66	1
35	75	1
120	121	1
33	55	1
148	148	1
140	148	1
131	142	1
88	88	1
131	132	1
64	123	1
55	67	1
120	157	1
31	83	1
32	79	1
8	9	1
135	142	1
94	95	3
31	50	1
30	44	1
87	90	2
151	154	1
98	143	1
46	52	2
126	126	2
20	21	1
104	157	1
155	158	2
134	137	1
20	25	1
139	156	1
85	86	2
47	47	4
144	145	1
69	131	1
104	106	1
84	88	1
24	29	1
96	96	1
62	123	1
11	55	1
151	153	1
4	72	1
18	19	1
0	119	1
117	120	1
115	116	1
76	76	1
128	153	1
3	104	1
19	21	1
65	106	1
8	10	1
129	129	2
30	31	1
23	26	1
14	15	1
77	137	1
95	106	2
128	130	1
53	53	1
149	149	1
9	12	1
54	82	1
115	119	1
69	132	1
0	1	1
62	63	1
90	111	1
1	99	1
112	116	1
99	106	1
142	151	1
148	150	1
104	105	2
62	113	1
142	154	1
90	91	1
36	37	1
65	66	1
152	152	1
10	47	1
