44	148	1
0	28	1
77	77	1
121	165	1
128	128	2
149	150	2
143	159	1
39	40	1
3	5	2
82	82	2
78	78	3
121	121	2
138	138	2
86	87	1
48	54	1
151	153	3
134	134	1
127	129	1
157	157	1
87	94	2
62	66	2
70	72	1
53	53	1
13	15	2
114	116	2
108	109	1
26	52	1
70	71	1
39	41	2
27	52	1
157	160	1
152	154	2
109	143	1
109	109	3
162	162	2
85	95	2
40	45	1
96	103	1
120	150	1
150	162	2
81	83	1
43	45	1
8	19	1
154	163	1
168	168	1
43	43	2
86	86	1
133	135	1
85	87	2
147	148	1
116	118	2
63	73	1
169	169	3
44	44	2
16	37	1
104	105	1
21	21	2
124	126	1
141	148	1
74	74	2
101	135	1
5	5	1
104	109	1
160	165	1
119	155	1
23	23	1
137	166	1
147	149	1
160	163	2
12	20	1
112	113	2
69	72	1
38	48	1
18	23	3
143	143	3
142	143	1
69	69	2
20	21	1
138	139	2
6	22	1
38	49	1
165	166	1
161	164	2
99	106	1
61	62	1
107	109	2
124	124	3
93	93	2
142	153	2
48	63	2
150	152	2
78	79	1
159	159	2
22	28	1
111	115	1
44	52	1
120	128	1
46	54	2
137	144	1
68	91	1
136	136	1
111	111	2
138	167	1
158	160	1
106	110	1
163	165	1
122	124	1
160	160	1
130	132	1
141	144	2
122	123	1
100	100	1
22	23	3
26	26	2
151	152	3
3	3	2
9	46	1
14	16	1
152	158	1
99	101	1
7	29	2
129	130	1
40	40	3
105	106	1
139	142	2
123	137	1
87	91	1
148	151	1
22	22	2
109	120	1
92	92	2
117	117	1
142	151	1
161	161	2
85	94	1
136	139	2
19	22	2
89	119	1
49	49	1
15	15	2
57	66	2
15	41	1
77	92	1
113	114	2
148	150	1
146	146	1
71	98	1
164	170	1
79	79	2
137	145	2
140	140	1
67	72	1
27	44	1
152	153	1
57	62	1
37	39	1
100	102	1
149	153	2
152	152	1
129	129	1
33	34	1
45	49	1
147	155	1
41	49	1
103	109	1
144	145	1
90	91	1
167	169	1
120	125	1
9	12	2
82	85	1
101	104	1
124	165	1
8	8	1
127	163	1
121	158	1
77	79	1
143	145	2
5	16	1
148	149	2
92	116	1
164	164	1
89	91	1
7	47	1
90	90	1
13	23	1
103	103	1
110	119	1
155	157	1
3	24	1
39	39	1
155	164	1
65	65	1
136	138	1
37	37	1
99	100	1
166	169	1
11	12	2
86	93	1
85	125	1
89	90	1
78	84	1
33	33	1
33	35	1
66	71	1
12	13	1
83	86	1
100	126	1
103	104	1
160	161	1
136	162	1
2	5	1
85	85	1
152	170	1
168	170	1
0	2	2
151	151	1
139	143	1
80	85	1
44	45	1
71	71	2
12	12	1
7	12	1
88	122	1
51	51	1
37	52	1
94	111	1
38	42	1
162	164	1
118	126	1
111	112	2
98	101	1
108	113	1
118	138	1
84	84	1
123	145	1
4	6	1
113	120	1
153	168	1
82	107	1
49	50	1
52	52	1
40	47	1
2	7	1
80	117	1
73	76	1
133	133	1
141	142	1
13	13	1
64	70	1
135	138	1
24	44	1
142	142	1
98	98	2
36	45	1
77	78	1
107	111	1
43	48	1
151	168	1
163	166	1
38	41	1
151	157	1
155	156	2
23	25	1
2	33	1
17	34	1
161	165	1
94	128	1
41	52	1
118	119	1
102	105	2
21	34	1
22	24	1
52	56	1
135	140	1
15	18	1
68	69	1
0	4	1
158	158	1
20	49	1
64	72	1
69	71	1
61	65	1
5	48	1
131	133	1
148	153	1
62	64	1
149	149	1
130	130	1
