66	67	2
45	45	9
142	142	5
12	12	11
87	87	5
128	128	5
14	14	10
46	49	1
66	66	3
39	39	10
158	158	10
150	151	3
44	45	2
17	18	4
124	125	4
76	76	6
118	118	12
169	170	2
164	164	6
157	158	2
9	9	12
56	56	7
49	49	8
145	146	3
37	37	7
68	68	5
4	4	6
110	147	1
27	41	2
13	13	8
86	86	6
3	3	10
133	134	5
90	90	7
55	69	1
7	7	9
45	70	2
169	169	11
105	105	8
92	128	1
66	84	1
116	116	3
5	5	6
18	19	1
43	43	6
117	117	3
74	135	1
114	114	7
42	42	5
140	141	3
22	23	5
109	143	1
111	118	2
39	40	7
161	161	8
6	52	1
36	41	2
165	165	5
15	15	11
19	19	8
130	131	4
50	50	4
97	97	5
126	126	10
155	155	5
46	53	2
129	129	12
76	78	2
47	47	9
156	162	1
69	70	2
166	166	4
149	149	7
90	91	4
159	159	6
26	26	5
124	126	1
17	17	7
151	151	11
156	160	2
79	79	4
35	35	12
130	160	1
58	93	1
10	10	9
118	120	3
132	132	5
142	143	2
46	46	8
139	140	5
36	36	11
160	160	8
6	6	5
75	77	1
106	106	7
131	131	5
102	104	1
157	157	7
99	100	4
101	102	1
88	88	5
120	120	8
44	44	5
141	141	10
155	156	2
113	113	2
142	165	1
16	16	6
76	77	1
111	111	10
106	140	2
168	168	7
27	27	7
146	146	7
112	112	11
103	105	1
109	136	1
117	121	2
5	17	1
74	75	3
121	127	2
73	73	5
102	103	1
25	37	2
89	89	4
4	17	1
153	153	5
57	57	3
84	84	4
62	62	2
69	84	1
83	83	3
139	139	7
34	34	7
1	2	3
138	138	3
86	95	2
88	107	1
99	131	3
20	20	8
8	8	6
163	163	5
66	82	1
25	25	8
41	41	13
54	54	2
22	22	8
18	18	3
26	27	1
20	21	8
148	160	2
116	138	1
145	145	8
103	104	2
34	37	2
108	108	12
63	63	2
53	53	2
74	74	4
72	72	6
140	140	5
158	159	3
23	23	5
40	47	1
88	124	1
10	12	1
146	154	1
34	35	1
147	147	2
80	80	3
105	106	3
50	51	2
136	136	12
141	142	1
76	80	2
147	165	1
91	96	1
10	133	1
94	94	2
123	127	2
107	107	9
94	95	4
95	95	4
106	107	2
150	150	14
96	115	1
126	129	3
142	146	1
144	144	8
38	41	2
125	140	1
1	1	9
6	12	1
65	65	2
95	137	1
79	80	4
133	133	5
156	156	6
163	164	3
139	142	1
122	156	1
70	74	2
51	51	7
0	13	1
170	170	9
108	143	2
144	145	4
35	36	3
125	125	4
148	149	3
21	22	1
21	23	1
91	92	5
64	64	2
152	152	6
121	121	5
52	62	1
119	120	3
9	21	2
103	103	4
108	138	1
162	163	2
86	91	1
57	64	2
52	52	5
97	99	1
161	166	1
142	156	1
80	82	1
42	70	1
74	78	1
131	132	3
42	43	1
49	50	1
2	112	1
134	134	5
159	160	2
143	143	5
100	100	5
1	3	1
57	95	1
52	56	1
69	69	8
0	1	3
165	168	1
21	44	1
0	10	1
137	137	7
45	161	1
71	80	1
117	136	1
66	70	1
88	163	1
91	91	6
50	52	1
156	157	1
3	4	4
110	144	1
16	17	2
21	21	6
112	115	1
27	109	1
149	151	1
37	42	1
53	56	1
75	100	1
162	162	4
138	139	5
66	140	1
141	166	2
67	69	1
57	68	1
98	99	2
47	48	6
167	168	3
129	130	1
98	98	3
16	26	2
113	114	2
108	109	3
36	42	1
5	6	4
119	119	6
0	0	9
14	15	5
71	71	7
147	148	2
90	157	1
9	10	2
15	82	1
73	80	1
89	91	2
111	112	1
143	144	4
154	155	2
96	97	2
116	119	1
112	114	1
132	168	1
24	24	11
144	146	2
75	76	2
117	143	1
99	138	1
115	115	3
110	110	6
51	62	1
14	80	1
111	160	2
115	166	2
138	140	1
75	75	3
57	63	2
28	28	2
131	135	2
109	109	3
141	148	1
25	26	1
92	133	1
40	40	3
13	14	2
135	135	5
66	75	1
83	84	1
121	122	4
136	161	1
16	27	1
20	22	1
65	87	1
1	68	2
100	102	1
10	11	2
62	86	1
50	84	2
88	97	1
167	167	6
49	51	2
1	159	1
50	66	1
103	118	1
160	161	3
75	80	1
123	128	1
41	44	1
148	148	2
20	168	3
120	121	2
70	70	2
77	115	1
71	106	1
105	144	1
99	125	2
77	77	5
38	39	3
39	41	1
41	45	1
12	125	1
24	25	5
67	67	2
124	124	1
99	102	2
161	163	1
38	38	4
38	44	2
121	128	1
81	81	4
47	49	2
54	56	2
45	164	1
107	158	1
55	56	2
123	124	2
122	122	4
102	155	1
13	15	1
16	44	1
2	2	5
140	149	1
164	165	2
118	163	3
143	146	1
137	138	1
113	133	1
130	144	2
38	47	1
124	127	1
114	115	3
33	33	2
83	154	1
49	56	2
126	127	4
82	82	1
81	94	2
118	119	1
122	123	1
64	66	2
109	110	1
48	58	1
0	49	1
22	46	1
162	165	1
154	154	4
148	150	1
64	109	1
55	58	1
71	89	1
96	98	1
151	152	1
91	103	1
88	109	1
19	23	1
48	48	1
155	165	1
4	47	1
117	118	1
71	73	2
33	34	1
93	126	1
125	153	1
72	73	1
20	44	1
18	27	1
137	140	2
107	108	1
10	130	1
94	122	1
37	38	2
115	116	1
168	169	1
22	67	1
99	146	1
73	87	2
4	52	1
1	148	1
134	135	1
120	122	2
8	57	1
96	96	2
51	86	1
7	34	1
90	111	1
87	99	1
19	25	1
76	92	1
140	145	2
143	152	1
9	50	1
135	136	2
42	136	1
141	152	1
117	134	1
38	45	1
95	96	2
85	85	2
50	73	1
93	94	1
140	170	1
141	162	1
84	85	1
97	105	1
40	45	1
117	119	1
0	20	1
16	39	1
119	157	1
130	130	2
123	123	1
111	119	1
103	116	1
147	150	1
42	89	1
94	96	1
73	116	2
139	143	1
47	85	2
164	169	1
92	92	2
93	96	1
57	138	1
68	113	1
125	152	1
17	24	1
4	5	1
146	150	1
159	169	1
15	16	1
92	100	1
142	166	1
162	166	1
152	166	1
78	79	3
82	85	1
149	150	2
117	133	1
86	92	1
57	58	1
66	71	1
77	79	2
45	46	3
51	58	1
19	22	1
120	152	1
26	43	2
46	47	1
46	48	1
123	130	1
141	145	1
116	134	1
79	154	1
152	153	2
58	58	1
102	126	1
117	142	1
146	147	1
27	28	1
158	160	2
164	166	1
8	10	1
125	126	1
66	72	2
80	88	1
51	52	1
52	53	1
144	151	1
130	132	1
143	154	1
144	164	1
81	83	1
141	165	1
80	114	1
17	20	1
13	16	1
134	150	1
105	139	1
134	144	1
55	57	1
56	57	1
73	74	1
132	140	1
146	160	1
11	11	2
85	101	1
5	18	1
119	135	1
43	44	1
2	138	1
115	128	1
154	157	1
155	157	2
61	62	1
129	132	1
135	158	1
128	129	1
104	104	1
2	3	1
93	93	1
41	42	1
166	167	1
136	162	1
67	68	2
71	74	1
110	119	1
99	99	1
122	126	1
63	67	1
47	51	1
130	141	1
26	139	1
85	86	1
123	155	1
132	133	1
78	99	1
75	102	1
88	91	1
48	57	1
