97	97	3
59	59	4
47	49	1
86	87	1
4	7	2
114	114	2
122	123	1
79	80	1
72	73	2
14	14	1
32	112	2
5	35	1
110	110	1
127	127	2
109	110	3
103	103	2
83	83	4
25	25	6
33	34	1
13	13	3
94	94	2
35	35	2
130	130	2
8	11	1
74	74	1
63	63	3
12	43	1
134	134	3
86	86	3
65	66	1
118	118	4
16	16	2
9	10	3
5	5	1
12	12	3
79	79	1
108	109	1
73	74	1
11	44	1
76	80	2
17	17	2
109	109	1
133	133	1
75	76	1
128	128	1
52	53	2
1	30	1
68	69	1
106	108	1
24	24	1
71	76	1
34	34	3
62	62	2
126	132	1
11	11	1
80	80	3
76	76	3
84	84	2
15	15	3
6	6	2
7	7	3
113	114	1
65	65	2
91	92	1
30	30	2
45	45	3
23	31	1
44	45	3
99	100	2
68	68	3
22	22	1
53	64	1
77	77	2
37	37	2
36	37	1
85	85	2
26	27	1
52	52	1
71	72	3
0	0	5
91	91	1
132	132	3
19	20	1
57	57	1
60	62	3
67	67	1
95	95	1
112	123	1
43	43	5
107	107	1
31	31	3
81	81	1
29	29	2
8	15	1
23	24	1
18	18	2
89	115	3
50	50	2
29	75	1
19	19	2
127	128	1
30	34	1
3	3	2
119	130	1
71	71	2
49	49	1
96	97	1
33	33	1
48	48	1
56	59	1
26	26	2
100	100	1
38	38	1
53	53	1
73	73	3
88	88	2
38	50	1
64	64	1
94	131	1
128	129	1
11	25	2
4	5	1
14	49	1
82	82	1
69	118	1
64	74	1
1	28	1
13	15	1
130	131	2
66	66	1
32	32	1
113	113	5
35	45	1
75	79	1
78	79	1
81	106	1
54	54	1
70	70	2
65	86	1
99	99	1
50	80	1
2	2	1
42	42	1
65	88	1
106	106	1
69	70	2
78	78	1
121	121	1
98	98	1
8	21	1
131	131	1
8	18	1
55	56	1
135	135	1
104	104	1
14	44	1
79	121	1
77	78	1
3	4	1
24	25	1
124	124	1
89	89	3
57	58	1
28	79	1
18	21	1
23	25	1
121	122	1
71	80	1
112	112	1
114	115	1
62	63	2
14	71	1
54	57	1
119	119	1
28	29	1
76	121	1
4	4	1
101	101	1
58	58	1
11	35	1
13	14	1
114	130	1
50	77	1
71	77	1
