9	9	4
49	168	1
56	57	2
113	113	6
186	186	2
52	53	4
51	51	3
69	69	4
66	81	1
57	59	3
148	148	4
69	70	1
154	154	5
48	158	2
83	83	2
164	164	4
27	44	1
146	158	1
5	5	2
161	163	1
146	150	1
15	170	1
152	169	1
226	228	1
115	181	1
143	143	3
56	59	1
73	95	1
156	156	6
209	227	1
233	233	3
217	217	2
177	177	7
236	237	1
173	173	3
68	68	4
27	28	2
15	15	5
104	104	3
195	196	2
9	10	1
48	48	2
174	175	2
176	231	1
129	129	4
9	112	1
211	212	2
107	108	4
86	86	7
12	12	4
224	224	2
12	18	1
88	88	5
178	178	6
36	49	2
84	84	4
151	222	1
40	40	6
73	73	2
161	178	1
104	106	2
4	4	1
105	105	4
119	119	3
47	47	7
114	114	4
142	142	4
45	70	1
23	23	1
114	123	1
25	26	1
85	85	5
51	52	1
102	102	4
4	21	1
171	224	1
45	45	2
82	82	3
134	149	1
28	28	3
153	165	1
11	11	4
69	172	1
72	72	1
59	59	3
169	176	2
25	39	1
197	197	1
191	191	5
60	78	2
12	13	3
175	176	2
69	99	1
165	166	3
118	118	7
63	63	4
157	157	2
45	179	1
201	202	2
241	241	5
117	117	3
6	6	4
31	31	4
103	103	5
218	218	1
95	95	1
54	54	5
174	176	1
50	51	2
153	187	2
108	123	1
156	157	1
175	175	2
221	221	4
182	182	4
135	152	1
180	180	5
175	179	1
240	240	6
74	75	1
115	116	1
154	158	3
135	135	5
232	232	4
66	66	6
71	72	3
50	50	3
12	15	1
135	136	2
238	239	2
134	134	3
171	172	1
139	139	5
24	24	3
231	231	1
44	44	6
185	185	3
57	58	1
140	140	6
14	224	1
2	2	3
83	102	1
17	17	2
183	183	3
103	108	1
168	168	3
121	121	2
177	178	1
193	193	2
39	42	1
52	52	5
12	201	1
179	179	6
158	158	5
144	146	1
26	32	1
101	101	3
216	216	3
37	71	1
143	146	1
34	34	2
79	79	3
170	171	3
166	166	4
27	33	1
196	197	2
147	147	2
42	44	2
171	171	3
187	188	2
55	170	1
187	187	7
22	60	1
160	160	2
223	223	3
212	222	1
151	158	2
140	141	3
60	75	2
199	199	2
204	204	2
30	30	2
117	118	1
78	78	1
58	59	2
211	211	1
62	62	2
76	76	3
162	162	3
186	187	3
112	120	1
111	112	1
210	210	2
106	109	1
7	41	1
33	33	2
115	115	1
79	80	1
51	53	1
75	75	2
190	191	1
7	20	1
109	110	1
57	57	2
221	228	1
32	32	5
23	28	1
44	97	2
114	116	1
197	198	1
45	46	3
63	114	2
36	36	5
119	120	1
57	61	1
146	147	2
126	127	2
183	184	1
18	19	2
60	60	3
22	22	3
138	154	2
123	150	1
179	180	2
151	152	1
41	42	1
8	47	1
13	13	4
10	10	2
153	153	6
120	120	2
46	46	1
19	40	1
208	222	1
66	106	2
47	54	2
22	53	1
65	66	1
55	55	3
23	225	1
44	45	4
212	212	3
174	174	3
151	153	3
122	122	4
27	220	1
89	118	1
140	147	1
169	169	3
179	189	1
225	225	2
176	176	2
71	71	3
137	137	2
50	85	1
223	224	1
0	0	5
237	238	2
42	42	4
17	19	1
164	215	2
146	182	1
168	169	1
104	170	1
234	234	6
61	73	1
4	14	1
201	201	1
41	41	4
155	155	1
32	33	1
136	138	1
30	72	1
39	39	7
182	183	1
77	79	2
146	146	2
17	138	1
37	37	6
154	155	1
4	6	2
81	82	1
133	133	3
188	188	3
213	215	1
138	138	1
140	150	1
222	226	1
31	218	1
18	18	4
16	16	1
105	106	1
202	202	2
53	53	3
143	144	1
180	194	1
15	16	3
200	200	1
3	3	3
58	69	1
47	85	1
226	227	3
58	58	5
220	220	2
40	53	2
203	203	2
112	112	1
44	47	1
48	55	1
144	145	1
89	89	2
63	64	1
104	115	2
103	104	1
192	192	4
144	147	2
195	195	2
128	128	3
161	165	1
201	216	1
38	38	1
181	181	3
30	71	2
21	40	1
159	160	1
163	163	3
133	134	1
160	170	1
151	151	2
109	109	1
64	64	3
17	77	1
81	81	2
108	108	3
74	74	2
239	239	5
78	80	1
7	7	7
150	150	3
49	52	1
230	230	1
170	170	3
85	115	1
29	74	1
141	142	2
169	178	1
22	23	2
206	220	1
146	148	1
160	161	1
8	9	1
167	215	1
128	136	1
96	96	1
130	130	3
220	231	1
27	27	7
152	153	2
137	138	4
71	98	1
164	165	1
103	175	1
157	158	1
192	203	1
210	213	1
20	38	1
123	123	3
21	21	2
120	121	1
8	17	1
21	39	1
139	151	1
161	162	1
98	98	2
62	63	1
166	196	1
187	189	1
140	142	1
184	184	2
216	217	2
131	178	1
211	235	1
193	194	1
236	236	1
89	174	1
74	198	1
73	74	1
116	116	2
51	56	1
134	155	1
163	164	1
235	236	1
88	159	2
106	119	1
165	165	2
152	172	2
158	159	2
30	31	1
225	230	1
18	23	1
137	151	1
116	117	1
127	127	4
238	238	2
82	83	1
230	231	1
21	226	1
239	240	1
210	211	1
136	136	1
213	213	2
106	106	1
228	228	4
16	17	1
192	193	1
176	177	2
221	222	3
184	186	1
46	70	1
184	187	1
141	141	3
149	149	5
67	67	4
211	229	1
61	61	2
107	124	1
102	103	2
199	200	1
8	14	1
129	130	1
174	178	1
222	222	1
180	182	1
219	219	2
20	22	1
167	171	1
160	169	1
70	70	1
8	8	2
11	25	1
16	37	1
19	19	2
47	70	1
69	71	1
26	27	1
197	219	1
141	144	1
236	239	1
145	145	4
138	139	1
4	16	1
190	190	3
38	43	1
182	199	1
150	160	1
159	161	2
226	226	2
61	62	2
205	205	1
14	14	2
152	152	1
192	196	1
173	175	2
163	205	1
167	167	3
17	34	1
151	157	1
97	113	1
148	158	1
65	68	1
55	56	1
208	208	2
99	99	1
51	80	1
181	182	2
205	214	1
206	206	3
151	184	1
176	179	1
170	172	1
107	107	1
55	75	1
217	218	1
214	215	1
49	49	1
184	223	1
101	105	1
40	41	3
145	171	2
124	127	1
47	113	1
34	208	1
31	34	1
168	194	1
156	195	1
225	226	1
198	199	1
59	60	1
150	153	1
159	220	1
207	207	1
17	53	1
106	111	1
17	24	1
97	97	1
80	80	2
131	131	1
209	209	2
210	214	1
47	55	1
193	197	1
191	192	1
107	119	1
20	33	2
135	238	1
216	223	1
83	89	1
68	196	1
77	77	1
6	7	1
99	100	1
20	20	1
157	168	1
21	42	1
53	54	2
3	37	1
64	73	1
24	33	1
161	161	1
139	140	1
49	50	1
147	167	1
32	172	1
172	173	1
37	39	1
125	125	1
184	206	1
58	62	1
173	174	1
71	86	1
123	124	1
10	47	1
184	185	1
150	151	1
14	22	1
148	149	1
182	184	1
75	196	1
124	124	1
136	140	1
114	118	1
163	165	1
157	216	1
144	144	1
132	134	1
43	231	1
21	22	1
7	8	1
154	156	1
125	126	1
10	11	3
166	182	1
197	204	1
182	231	1
74	240	1
215	217	1
12	25	1
163	183	1
77	78	1
50	52	1
198	198	1
23	24	1
49	53	1
61	91	1
29	29	1
15	40	1
197	202	1
222	225	1
5	6	1
232	233	1
30	170	1
12	128	1
136	175	1
37	38	1
198	207	1
