37	37	5
99	107	1
70	70	1
142	142	6
19	31	1
88	88	2
186	186	3
3	5	1
150	151	1
12	12	4
189	189	3
35	36	1
98	102	2
43	44	7
41	60	1
30	31	2
120	120	3
13	13	7
110	110	2
149	149	2
78	79	1
18	18	5
15	15	8
5	187	2
135	136	2
39	39	6
191	191	4
143	143	3
128	128	3
147	147	3
6	6	3
5	5	6
145	150	1
10	10	5
157	158	3
21	23	1
196	196	4
58	58	3
138	138	8
133	133	3
180	181	1
183	187	1
153	153	3
151	151	4
105	105	2
19	28	1
160	160	5
9	9	5
2	2	3
98	120	2
131	131	1
166	166	3
42	42	4
17	112	1
9	12	1
93	99	1
170	183	1
185	185	3
197	197	6
109	109	2
173	175	2
50	50	4
112	112	5
24	24	3
57	57	3
175	175	3
141	142	1
30	30	4
94	94	3
38	39	3
118	118	1
3	25	2
33	35	2
148	149	3
74	74	3
170	170	3
51	51	2
98	105	2
16	16	5
139	139	4
132	163	1
11	11	5
81	81	3
26	26	2
188	188	3
148	148	4
45	45	3
16	18	1
178	178	2
149	150	2
19	20	2
43	43	9
17	20	1
53	53	5
97	97	2
132	132	5
28	30	3
59	60	2
1	2	4
54	54	1
17	18	1
99	99	2
12	43	1
48	48	1
87	87	3
182	182	6
109	110	2
55	55	2
184	184	3
59	59	3
44	45	1
139	141	1
111	111	3
55	56	1
40	40	5
6	8	1
146	146	3
115	116	1
172	172	4
32	32	10
126	126	1
107	107	3
31	31	6
187	187	3
96	96	2
168	168	3
159	160	2
7	8	3
16	33	1
15	16	2
139	140	2
25	25	1
143	144	1
158	158	4
189	190	5
33	33	5
67	86	1
73	74	1
25	68	1
167	167	3
36	40	1
178	179	2
69	69	1
156	157	2
47	47	5
169	169	3
55	57	1
1	32	1
144	144	3
107	108	1
79	80	1
159	159	2
186	187	1
19	21	1
15	31	1
60	60	1
36	36	4
10	11	4
88	127	1
41	42	1
9	142	1
101	101	3
39	40	2
68	68	2
42	43	1
66	66	3
4	5	1
11	12	1
44	46	1
136	137	1
121	121	4
17	17	4
15	54	1
76	87	1
122	123	2
151	154	1
4	4	4
136	136	6
141	141	4
127	127	4
14	14	2
72	72	3
171	182	1
160	161	1
4	186	2
134	135	4
5	6	2
134	134	2
146	147	2
180	180	2
108	110	4
3	3	4
20	23	1
145	146	2
59	61	1
94	96	1
8	20	1
78	78	1
183	183	1
6	7	2
129	129	3
116	116	1
163	164	1
96	98	1
12	15	1
11	13	1
21	21	5
9	14	1
104	104	2
40	65	2
123	125	2
171	171	2
51	52	1
180	183	1
9	132	1
181	181	3
192	192	1
22	23	1
9	11	1
171	172	1
122	122	3
150	155	1
14	169	1
10	130	1
107	169	1
94	104	1
22	22	4
44	44	4
168	169	2
35	35	5
124	124	3
140	160	1
177	177	4
162	163	1
84	86	1
152	152	3
189	191	1
140	141	1
170	171	1
101	105	1
181	191	2
113	113	2
155	155	1
62	62	3
154	171	1
19	33	1
2	17	1
98	106	1
71	71	1
196	197	1
128	171	1
155	156	1
67	67	1
46	46	3
18	61	1
190	190	2
9	47	1
11	39	1
51	127	1
100	105	1
13	128	1
12	186	2
135	135	2
93	109	1
88	89	3
20	42	1
103	104	2
20	20	3
47	48	1
176	178	1
144	145	2
29	30	1
182	183	1
157	157	1
103	113	3
121	147	1
176	176	1
152	155	1
36	41	1
36	39	1
27	28	1
119	119	1
65	65	3
24	132	1
152	167	1
174	175	3
107	123	1
42	108	1
18	19	1
174	174	1
100	100	1
16	37	1
146	148	1
8	33	1
192	193	2
150	150	1
26	28	1
117	117	2
64	65	2
195	195	2
27	27	1
34	34	3
105	120	1
167	168	1
156	156	3
12	14	1
194	194	3
187	189	1
130	130	2
60	63	1
96	97	1
172	186	1
151	186	1
193	193	4
128	197	1
142	143	2
38	38	2
5	167	1
123	123	1
34	36	1
155	171	1
69	71	1
13	15	1
178	191	1
108	108	1
13	44	1
28	29	1
171	191	1
17	26	1
161	165	1
5	138	1
14	194	1
24	25	1
102	106	1
158	160	1
14	47	1
172	178	1
49	52	1
165	165	1
0	1	1
56	58	1
58	59	1
106	106	2
99	100	1
25	26	1
16	35	1
45	46	1
86	88	1
89	112	1
29	29	2
53	54	1
161	161	2
54	59	1
179	179	1
49	50	1
15	20	1
98	107	1
0	2	2
0	0	1
23	23	1
113	151	1
185	186	2
109	113	1
121	141	1
76	111	1
135	141	1
188	192	1
3	4	1
132	133	1
21	22	1
162	165	1
39	42	1
66	67	2
12	46	1
168	180	1
21	24	1
54	61	1
79	84	1
11	141	1
5	37	1
171	186	1
154	154	2
9	171	1
140	140	2
4	15	1
181	182	1
142	151	1
39	53	1
153	154	1
26	36	1
163	163	1
82	82	1
52	57	1
79	79	1
173	173	1
19	30	1
136	152	1
41	41	2
47	128	1
28	28	1
4	8	1
32	33	1
168	178	1
