38	38	1
32	34	1
91	91	4
44	44	2
64	64	4
57	57	7
80	81	2
94	94	2
89	89	2
90	91	1
54	54	4
51	52	1
61	61	3
83	127	1
45	45	7
54	55	2
125	125	1
124	124	2
53	53	3
84	103	1
92	92	2
2	2	3
109	112	1
93	93	2
95	95	1
50	50	5
40	40	5
123	123	5
99	99	3
55	55	2
129	132	1
23	23	1
60	60	3
107	107	2
119	119	5
131	131	2
95	96	1
106	106	2
17	17	2
47	118	1
42	63	1
114	114	1
124	125	1
84	84	3
9	9	2
87	87	2
49	65	1
76	76	3
15	16	5
78	79	1
104	106	1
116	116	1
8	8	4
119	120	2
74	74	1
2	3	2
105	105	4
83	83	2
66	66	2
113	123	1
56	56	3
16	16	1
109	109	3
96	125	2
100	100	4
62	63	2
94	102	1
72	72	1
63	63	2
68	68	3
30	30	2
22	22	3
117	117	5
19	19	2
19	29	1
26	26	2
94	111	2
88	98	1
99	126	1
102	102	1
74	123	1
41	41	1
1	2	3
127	127	1
130	131	1
81	97	1
86	86	3
93	94	2
78	82	1
20	21	1
3	3	2
67	94	1
113	115	1
59	60	2
42	42	2
132	132	1
13	14	1
104	104	1
70	96	1
5	6	2
96	96	2
63	87	1
97	97	3
49	49	3
106	107	3
103	103	1
27	110	1
90	103	1
18	30	1
80	80	1
47	47	2
2	4	1
4	6	1
74	76	1
65	66	3
113	113	3
6	6	2
46	72	1
98	98	1
43	43	2
93	95	2
129	129	1
40	43	1
48	48	1
25	26	1
122	122	1
3	4	3
5	5	2
6	51	1
89	90	1
17	30	1
1	54	1
108	108	1
115	115	2
74	75	1
75	81	2
128	129	3
58	59	1
66	95	1
67	67	2
68	95	1
73	74	2
49	51	2
92	99	1
39	39	1
126	127	1
51	51	1
51	53	1
70	102	1
70	70	1
79	79	1
116	128	1
58	58	1
22	23	1
115	133	1
63	125	1
118	118	1
118	130	1
12	12	1
72	73	1
57	105	1
102	105	3
129	130	2
111	111	1
21	21	1
71	95	2
41	42	3
85	100	1
10	42	1
88	88	2
39	72	1
27	28	1
50	109	2
59	85	1
46	46	1
125	127	1
128	128	1
115	116	2
117	124	1
71	71	3
85	85	1
104	105	1
81	118	1
82	84	1
0	0	1
75	75	2
121	121	1
85	126	1
44	61	1
114	115	1
126	126	1
62	70	1
24	25	1
66	67	1
82	82	2
118	119	1
68	69	1
13	13	1
112	112	2
86	90	1
112	114	1
68	73	1
14	14	1
94	104	1
