49	49	1
33	33	3
71	71	3
19	19	4
148	148	4
77	77	2
106	141	1
124	124	4
20	31	1
91	92	2
155	155	4
128	128	8
124	125	3
111	118	1
116	116	5
108	109	1
129	130	4
99	99	4
106	106	4
135	135	3
43	55	1
93	116	1
11	11	2
4	4	2
129	131	1
125	125	5
100	102	3
86	86	3
4	5	5
139	139	7
153	154	2
41	41	3
11	19	2
140	141	1
126	126	2
131	131	8
57	57	3
120	142	1
126	127	2
129	152	2
34	85	1
128	148	1
104	104	1
144	145	1
134	134	4
104	107	1
150	150	6
138	139	1
132	132	8
123	123	4
32	32	4
154	156	1
39	39	4
49	50	1
69	70	1
29	29	5
137	138	1
2	3	2
140	140	5
84	84	1
129	129	5
110	131	1
80	116	1
114	147	1
130	131	4
103	103	1
133	133	4
112	112	2
9	49	1
70	96	2
1	1	2
50	50	1
138	138	5
105	105	9
113	114	2
53	53	3
70	70	6
72	73	1
51	55	1
4	68	1
98	99	1
105	106	2
156	156	4
2	6	1
101	101	2
142	142	1
83	98	1
67	70	1
55	55	2
30	94	1
78	82	1
141	141	6
3	4	1
48	49	1
67	67	1
100	157	1
151	152	1
14	14	2
128	142	1
152	152	1
3	3	2
152	153	2
159	159	3
25	26	1
38	38	4
110	111	2
97	97	3
29	30	2
112	140	1
149	149	3
115	120	1
65	65	1
88	90	1
136	137	4
146	146	3
94	141	1
66	66	2
111	111	1
107	107	3
25	25	1
37	37	1
75	75	4
117	117	3
68	68	2
32	33	1
140	142	1
33	46	2
73	73	2
100	100	5
30	32	1
40	40	2
97	98	2
138	142	2
64	75	1
26	26	2
46	46	4
114	115	1
42	42	5
40	53	1
22	22	1
52	52	3
131	132	1
66	67	1
43	43	4
130	130	5
94	94	6
0	4	1
127	127	2
109	110	2
117	120	1
72	72	1
69	73	1
31	31	2
130	137	1
69	69	2
79	79	1
106	140	1
16	16	3
30	30	4
120	120	5
130	149	1
128	149	2
154	154	3
21	37	1
138	149	1
103	105	1
83	83	2
86	92	1
90	92	2
14	19	1
85	120	1
24	25	1
115	116	3
19	20	2
92	92	2
151	151	1
108	114	1
36	36	3
145	149	1
46	49	1
93	93	1
18	21	3
132	137	1
153	153	3
40	50	1
110	110	3
11	17	1
15	15	3
144	144	2
43	47	1
128	129	1
67	69	2
80	80	1
93	112	1
40	86	1
95	95	1
90	90	1
47	47	2
96	96	1
157	157	2
34	34	1
156	158	1
85	85	2
92	134	1
24	24	3
10	42	1
147	147	2
9	10	2
88	88	1
122	142	1
113	113	1
14	15	1
32	50	1
63	79	1
152	154	2
64	104	1
64	64	1
114	114	1
87	89	1
46	77	3
156	157	2
13	14	2
146	147	1
8	8	1
2	2	1
112	141	1
95	111	1
115	115	1
137	137	3
132	140	1
89	89	2
108	126	2
154	155	1
55	56	2
155	157	1
56	56	1
135	139	2
112	148	1
21	21	1
28	28	2
102	102	2
136	136	1
6	7	2
158	159	1
158	158	2
130	135	1
31	32	1
35	35	1
78	78	4
51	51	1
120	133	1
82	82	1
108	113	1
54	54	1
67	125	1
96	108	2
108	111	1
13	16	1
89	90	1
135	136	1
81	81	1
8	9	1
118	118	1
93	94	1
119	146	1
129	135	1
157	158	1
62	62	1
134	138	1
71	98	1
17	17	2
119	119	1
120	148	1
27	27	1
47	48	1
7	7	3
134	135	1
92	138	1
86	113	1
27	28	1
99	100	1
111	124	1
132	133	1
98	115	1
121	134	1
121	121	2
44	44	2
79	80	1
2	22	1
20	50	1
116	130	1
122	145	1
28	29	1
110	116	1
104	139	1
111	122	1
0	1	1
96	127	1
116	132	1
103	150	1
81	82	1
123	124	1
90	96	1
70	71	1
107	111	1
113	116	1
107	108	1
84	118	1
122	122	2
91	107	1
5	5	1
42	43	1
10	10	1
30	31	1
97	122	1
23	23	1
78	79	1
23	127	1
91	109	1
