46	52	1
96	97	1
157	161	1
154	161	1
167	168	5
155	156	2
4	4	3
162	162	2
2	5	1
84	96	2
9	9	2
111	116	1
167	167	3
72	73	1
117	117	1
163	163	1
10	12	1
102	120	1
17	53	1
123	124	2
135	135	4
108	108	2
41	41	4
65	68	1
118	118	1
15	15	2
7	7	2
54	54	1
126	126	2
71	71	3
48	48	1
162	163	1
114	117	1
35	35	2
20	21	2
35	53	2
78	78	2
37	38	1
168	168	2
106	106	2
84	86	1
34	35	2
34	52	1
97	167	1
13	13	5
83	100	2
81	81	2
152	152	2
11	11	2
3	35	1
91	143	1
127	127	1
17	17	3
170	170	1
56	63	1
69	82	1
138	138	2
95	95	2
149	149	2
118	155	1
121	121	2
85	85	1
164	164	2
151	155	1
12	12	2
14	15	2
46	53	2
108	147	2
69	70	1
147	148	1
25	25	2
143	153	1
93	93	3
155	155	2
88	140	1
99	99	2
24	24	1
101	119	1
80	80	1
7	8	1
161	161	3
155	157	1
89	99	1
38	46	1
123	123	1
129	129	2
49	63	1
116	154	1
42	43	1
14	158	2
90	100	1
153	153	2
78	92	1
36	43	1
74	74	2
113	113	1
37	37	2
42	42	2
80	82	1
160	160	4
147	147	2
38	38	3
16	16	1
94	95	1
98	98	4
67	67	2
140	141	1
22	22	1
11	12	2
55	55	1
47	51	1
95	96	1
18	18	2
23	23	1
150	150	2
86	141	2
57	58	2
64	67	1
51	156	1
21	21	1
53	53	2
141	141	2
20	122	1
5	166	1
43	44	1
68	68	2
63	63	2
43	43	3
87	87	2
39	52	1
151	157	1
117	118	1
87	89	1
92	92	1
139	143	1
99	100	1
110	137	2
128	128	1
46	46	1
12	13	1
169	170	1
142	143	1
17	107	1
44	44	2
2	2	1
101	101	2
76	79	1
107	107	1
169	169	1
36	38	1
96	96	1
114	116	1
50	50	1
0	1	1
119	119	1
103	104	1
139	140	2
45	45	1
27	27	1
105	118	2
79	79	1
146	146	1
142	145	1
104	105	1
82	98	3
145	145	1
142	142	1
148	148	1
91	91	1
5	169	1
154	157	1
100	102	1
36	37	1
48	58	1
91	92	1
18	40	1
66	66	1
91	97	1
82	82	1
121	122	1
104	104	1
136	136	2
158	159	1
76	76	1
47	47	1
28	28	1
52	52	1
5	5	1
49	49	2
124	124	1
83	113	1
5	6	1
41	42	1
