78	89	1
91	91	21
45	47	1
30	37	2
92	96	1
46	46	2
54	56	1
98	98	3
107	107	3
80	80	3
90	90	4
39	112	2
41	41	5
99	99	4
72	72	4
33	60	3
27	35	1
106	106	7
77	77	1
61	61	3
37	87	1
65	66	1
66	70	1
103	109	1
45	46	2
109	110	4
42	42	4
53	60	1
23	24	1
52	52	2
106	113	1
50	51	2
35	35	1
55	55	3
83	106	1
71	71	3
92	92	7
81	81	8
38	39	4
84	84	3
36	48	1
94	94	2
86	86	5
20	20	5
63	64	1
55	63	1
101	101	3
54	54	3
57	60	3
28	28	6
64	64	2
83	84	3
90	92	5
63	69	3
45	45	4
96	101	1
21	26	2
30	31	4
87	87	2
58	58	3
47	54	1
100	100	5
46	48	2
92	95	1
33	34	4
47	48	2
103	103	2
21	21	4
102	103	2
49	64	1
74	74	5
30	44	1
65	65	2
24	24	3
75	95	1
48	95	1
104	104	5
45	51	2
36	103	1
100	101	3
34	39	1
82	82	6
43	50	1
91	92	5
85	113	1
60	62	3
78	78	5
29	30	1
97	97	6
58	59	3
24	25	1
31	31	3
86	90	1
72	73	1
49	60	1
92	112	1
79	79	5
36	45	2
39	42	1
39	41	1
75	75	3
95	98	1
21	28	1
39	73	1
47	49	1
64	65	3
92	93	1
56	64	3
37	38	1
92	94	1
40	41	3
27	30	1
81	82	3
74	81	1
39	60	1
53	53	2
57	72	1
88	88	2
95	95	2
41	52	1
96	107	1
96	104	1
48	48	2
105	105	3
81	105	1
114	114	3
59	60	3
26	31	1
68	68	1
110	110	3
57	57	2
39	39	2
88	90	1
108	108	6
22	22	3
81	99	1
74	76	1
112	112	3
104	108	1
70	70	1
113	113	3
102	104	1
28	29	2
75	83	1
93	93	2
39	55	1
33	36	1
102	102	1
65	70	2
26	29	1
25	25	3
22	23	2
75	77	1
96	112	1
90	93	1
81	93	2
73	99	2
67	67	3
66	67	1
91	93	1
77	85	1
29	29	2
61	62	4
36	37	1
66	68	1
31	32	1
100	108	1
46	53	1
27	27	2
85	106	2
63	65	1
85	102	1
38	38	5
96	96	3
104	107	1
35	43	1
90	108	1
71	72	1
66	66	4
46	50	1
30	30	2
44	44	5
81	92	3
81	90	2
60	60	2
32	32	3
73	102	1
38	49	1
26	26	1
33	33	5
67	68	1
68	69	1
84	91	3
78	86	2
63	66	1
49	61	1
95	96	1
89	89	4
71	103	1
96	97	1
109	109	2
54	55	1
68	71	1
72	97	1
97	98	2
21	22	2
57	58	1
29	31	1
83	86	1
87	90	1
45	49	1
79	85	1
84	106	1
106	111	1
111	111	6
49	50	1
69	70	1
48	49	2
45	100	1
80	84	1
46	49	1
77	79	1
109	111	1
69	69	1
34	34	1
83	83	1
105	107	2
79	80	1
71	77	1
106	107	1
39	40	1
41	42	1
51	59	1
58	64	1
110	113	1
90	91	5
28	114	1
63	63	3
78	82	1
50	50	1
59	59	1
103	104	1
84	85	1
94	103	1
60	67	1
91	105	1
36	38	1
41	45	1
82	96	1
47	51	1
112	113	2
66	91	1
20	40	1
91	97	1
46	62	1
32	37	1
85	85	2
96	99	1
47	47	2
101	102	1
110	112	1
51	51	2
93	108	1
103	115	1
42	52	1
69	73	1
94	95	1
59	78	1
62	72	1
53	58	1
74	75	1
87	98	1
35	37	1
74	111	1
23	23	2
22	44	1
90	101	1
78	84	1
19	19	1
26	27	1
28	44	1
86	89	1
54	58	1
43	43	1
33	35	1
61	83	1
85	88	1
71	79	1
33	49	1
88	92	1
55	56	1
87	88	1
87	95	1
93	96	1
81	84	1
105	106	1
73	80	1
104	105	1
73	92	1
36	36	1
81	100	1
20	21	1
96	98	1
34	36	1
