22	22	7
172	174	2
159	160	1
2	18	2
12	12	1
74	78	1
147	147	2
125	125	6
71	71	3
79	95	1
27	30	2
129	130	1
82	104	1
116	118	2
128	129	3
28	28	3
84	85	1
167	167	2
0	0	4
112	112	3
18	46	1
82	82	1
66	66	2
141	141	4
148	148	7
159	159	4
169	169	5
176	176	7
36	37	5
118	118	3
35	53	2
40	41	6
153	153	4
0	1	2
54	56	2
158	159	2
121	121	3
44	44	4
138	138	3
107	107	4
107	108	1
39	39	2
76	78	1
85	85	2
116	116	2
146	157	2
178	178	4
133	133	6
96	96	5
11	11	4
150	150	3
43	43	4
141	145	1
27	28	1
52	53	3
5	5	6
161	162	3
179	179	3
29	29	2
83	86	3
110	156	1
54	55	4
105	112	1
23	31	1
169	170	2
0	36	1
2	3	6
156	157	1
4	5	4
83	84	4
3	3	7
35	35	12
164	164	2
22	23	1
32	72	2
153	157	1
60	60	1
135	135	2
160	160	4
67	67	8
104	150	1
33	33	7
154	155	2
100	100	3
29	30	2
126	148	1
174	174	5
55	81	1
144	144	2
177	177	2
33	35	2
75	75	3
41	41	3
91	94	1
137	137	4
83	83	1
67	95	1
172	172	2
68	68	5
122	122	4
142	145	2
158	162	1
144	145	2
152	152	3
178	179	1
25	44	1
117	117	5
45	45	3
136	136	5
49	49	1
56	56	6
156	156	3
52	52	2
87	87	3
103	103	2
65	65	1
7	15	2
12	13	1
168	169	1
106	106	2
101	153	2
74	74	1
111	131	1
107	114	1
28	29	3
115	115	2
51	51	3
108	163	2
9	20	1
91	91	6
149	149	4
145	145	3
173	173	4
130	142	1
90	91	1
119	121	1
157	158	2
173	174	3
139	142	1
53	54	2
22	53	1
115	141	2
114	114	4
58	58	5
95	95	3
38	38	4
57	96	1
40	40	2
120	120	1
1	1	4
5	6	2
122	127	2
127	127	2
11	13	2
36	36	2
96	103	3
130	130	2
96	97	1
97	97	2
92	98	1
33	81	1
53	53	2
107	154	1
6	6	4
131	148	1
59	80	1
25	25	6
88	89	1
3	5	2
58	83	1
123	124	1
161	161	2
166	166	2
124	125	3
18	19	3
77	77	2
37	37	7
15	32	1
59	59	1
42	45	2
135	156	1
34	34	1
84	84	1
151	151	4
120	140	1
144	160	2
9	14	1
115	116	1
132	133	2
163	164	1
23	24	2
90	90	1
26	26	4
82	109	1
16	42	1
73	76	2
1	36	1
75	76	1
180	180	3
61	61	4
163	166	1
137	145	1
167	169	1
25	28	1
121	129	1
20	20	1
3	41	1
131	131	1
139	139	3
30	31	2
83	105	1
74	77	1
32	32	5
92	93	2
41	43	1
50	51	2
27	27	3
25	26	1
94	94	7
29	32	1
64	64	1
93	93	4
123	165	1
50	50	1
10	11	1
14	14	7
111	112	1
97	98	2
78	78	2
134	134	3
146	146	4
61	62	3
108	108	2
92	92	2
117	118	2
86	87	2
153	154	1
128	128	2
131	176	1
109	109	2
16	16	1
38	39	1
76	76	2
107	115	1
71	73	1
108	159	1
125	147	1
50	57	1
177	179	1
73	73	4
6	9	1
170	170	2
1	2	1
65	67	2
175	175	2
35	36	3
100	107	2
171	171	1
146	147	1
89	89	1
4	8	2
109	110	2
80	82	1
2	2	4
57	57	1
156	160	1
98	98	1
59	97	2
150	151	1
103	110	1
83	107	1
53	57	3
133	145	1
125	126	1
62	62	1
0	178	1
63	63	1
11	12	1
102	102	1
81	82	1
172	173	2
18	18	2
54	54	4
24	26	1
123	123	1
81	106	2
141	169	1
73	74	1
140	140	2
4	4	2
10	10	3
9	9	3
23	25	1
55	64	1
55	79	1
34	44	1
104	119	1
82	110	1
162	162	5
19	20	1
91	92	1
66	90	1
21	21	2
30	30	1
61	68	1
144	164	1
65	85	1
114	115	2
59	62	1
88	88	2
55	55	2
155	155	2
120	143	1
82	83	1
177	178	3
129	129	2
21	26	1
78	79	1
2	16	1
28	87	1
67	100	2
26	27	1
24	24	4
83	92	1
65	100	1
121	122	1
32	33	2
72	72	1
2	4	3
111	111	1
6	11	1
74	76	1
17	31	2
71	72	2
7	20	1
158	158	2
118	121	1
168	168	2
58	59	2
143	143	3
123	126	1
9	10	2
74	75	1
126	126	4
42	42	4
165	165	1
113	113	1
56	57	2
17	17	1
9	19	1
105	106	3
163	168	1
114	120	1
171	172	1
120	121	1
1	6	1
104	105	2
61	63	2
39	41	1
32	34	1
72	73	1
1	5	2
1	111	1
66	67	1
110	111	1
131	158	1
143	147	1
81	81	1
10	90	1
79	79	1
8	11	1
117	151	1
40	56	1
5	10	1
15	15	2
147	148	1
86	86	1
112	141	1
141	170	1
110	157	1
94	127	1
86	89	1
80	81	2
7	7	1
172	176	1
92	105	1
103	111	1
142	142	1
21	22	1
31	31	2
170	171	1
56	62	1
126	127	1
62	64	1
21	29	1
94	96	1
63	71	1
53	88	1
85	89	1
110	110	2
56	58	1
108	109	1
20	21	1
154	159	1
165	166	1
164	166	1
137	138	1
105	109	1
89	92	1
45	46	1
14	17	1
16	34	1
5	7	1
143	155	2
103	106	1
52	54	1
55	61	1
23	23	1
52	63	1
19	19	1
67	68	1
123	160	1
96	102	1
105	107	1
132	132	1
54	64	1
31	115	1
62	63	1
94	105	1
7	35	1
6	7	1
134	175	1
154	154	1
115	122	1
100	101	1
37	38	1
