127	129	1
116	116	2
102	102	1
131	132	2
44	44	1
142	142	9
158	172	1
154	154	2
175	175	2
174	174	5
3	3	1
54	55	1
8	30	1
9	11	2
88	88	3
138	139	1
43	43	3
71	71	4
7	8	2
72	72	2
153	170	1
115	115	3
179	179	5
14	14	4
50	50	1
81	149	1
53	53	3
20	20	1
21	21	1
143	143	3
141	141	8
26	29	1
24	24	1
1	1	2
81	81	2
3	6	2
98	98	1
149	150	1
156	156	1
10	145	1
66	70	1
158	158	2
7	7	2
87	91	1
6	6	4
134	134	1
162	162	3
1	6	1
107	121	1
10	13	1
30	39	1
3	4	2
123	123	3
143	144	1
164	166	1
55	71	1
45	45	5
140	140	4
2	2	3
113	113	1
85	86	1
164	165	2
42	42	2
82	82	2
178	178	5
62	62	1
127	127	1
23	26	1
39	40	1
61	61	3
144	144	1
25	29	1
54	54	1
118	118	2
66	66	3
37	37	4
1	2	1
32	32	5
133	140	1
79	79	3
90	94	1
123	124	3
19	19	1
91	91	1
90	91	1
35	35	1
169	169	1
177	178	1
76	76	4
99	99	4
52	52	2
122	144	1
78	78	1
137	137	2
15	56	1
74	74	2
20	24	1
17	61	1
80	81	1
101	101	2
151	152	1
83	87	1
81	98	1
120	122	1
135	136	1
8	40	2
0	0	1
30	38	1
170	170	1
36	36	2
55	55	2
56	56	3
171	171	3
24	28	1
105	105	2
118	119	1
117	117	1
107	107	2
119	119	1
110	111	1
133	133	3
168	168	2
131	141	1
173	173	1
131	131	1
71	73	1
93	94	1
9	9	1
134	135	1
98	124	1
176	176	2
151	154	1
26	27	1
19	23	1
138	138	3
111	112	1
26	26	1
65	145	2
96	98	1
31	39	1
18	20	1
114	114	1
86	110	1
17	18	1
153	154	1
10	16	2
145	153	1
23	24	1
17	17	1
103	103	2
34	36	1
148	148	2
94	94	1
125	125	1
149	172	1
150	150	1
40	40	3
81	88	1
166	166	1
135	135	2
8	10	1
149	149	1
139	139	1
177	177	1
65	65	4
96	96	1
34	34	1
162	163	1
42	43	1
101	121	1
65	66	1
31	32	1
121	121	1
152	156	1
12	12	1
8	8	1
110	110	1
89	89	1
160	160	1
77	78	1
165	165	1
130	149	1
4	6	1
132	132	1
102	108	1
73	74	2
13	24	1
87	87	1
128	129	1
16	21	1
41	41	1
164	164	1
77	90	1
163	163	1
31	31	1
67	67	1
19	25	1
150	153	1
66	67	1
20	21	1
59	59	1
108	148	1
70	70	1
137	138	1
39	64	1
156	157	1
172	172	1
15	15	1
8	11	1
78	79	1
43	60	1
73	73	1
180	180	1
109	109	2
139	150	1
104	104	1
138	173	1
64	64	1
63	63	1
5	12	1
88	89	1
