66	66	3
87	129	3
59	59	3
137	138	1
92	94	1
63	108	2
22	24	2
128	142	1
77	77	1
41	41	3
6	7	2
100	100	3
60	107	2
129	157	1
174	175	3
113	114	1
10	10	2
19	23	1
38	38	1
85	86	1
20	21	2
26	26	1
8	8	2
131	131	3
90	91	1
53	53	3
153	153	2
42	88	1
135	135	1
126	128	1
40	40	4
90	93	1
72	72	1
124	126	1
24	29	2
119	120	3
129	159	2
108	109	2
20	24	1
137	137	4
15	15	3
124	124	1
84	88	1
42	43	1
170	170	3
75	75	2
12	12	3
103	103	3
161	162	1
143	143	5
80	81	1
106	111	1
82	140	2
2	3	2
106	136	1
76	77	1
128	128	3
176	176	1
144	144	1
13	34	2
171	171	2
176	177	1
19	19	2
140	140	1
115	115	1
157	157	2
109	110	1
86	86	2
135	175	1
42	42	2
138	138	2
90	92	1
156	159	1
132	132	1
3	4	1
21	22	2
148	148	4
127	127	2
2	4	2
37	37	6
24	25	1
4	5	2
77	137	1
61	61	1
21	21	1
172	172	2
173	174	1
39	39	3
44	44	1
84	84	3
82	82	1
34	38	1
9	9	2
159	159	1
170	171	1
88	88	2
5	6	2
169	169	1
125	147	1
56	58	1
7	7	1
146	147	1
15	46	1
4	4	1
163	163	2
103	106	1
160	160	1
19	24	1
116	117	2
0	0	2
138	139	1
52	53	1
36	36	1
67	67	2
65	65	1
32	53	1
77	78	1
84	86	2
152	152	1
130	131	1
33	33	1
137	172	1
95	95	1
83	127	1
17	17	2
111	111	3
179	180	1
31	42	1
58	59	1
73	73	1
145	146	1
157	158	2
167	167	1
119	119	2
31	31	1
74	74	2
162	165	1
87	87	2
180	180	2
166	166	1
133	180	1
22	22	1
16	16	1
97	97	1
20	22	1
168	168	1
122	146	1
130	130	1
24	28	1
6	6	1
162	162	1
112	115	1
158	159	1
145	169	1
16	105	1
76	76	1
134	135	2
158	158	2
20	20	1
45	50	1
29	29	1
99	107	1
123	126	2
123	124	1
3	3	1
116	116	1
146	146	3
5	5	2
52	52	1
147	147	1
93	95	1
72	73	1
87	88	1
33	42	1
156	157	1
83	83	1
104	104	1
2	34	1
145	145	1
166	167	1
132	133	1
1	1	1
118	119	1
150	150	1
151	151	2
90	90	1
159	162	1
105	112	2
71	72	1
121	122	1
154	154	2
30	31	1
1	6	1
174	176	2
175	177	1
51	51	1
57	57	2
155	155	1
175	175	2
29	30	2
45	46	1
4	65	1
9	62	1
9	17	1
5	7	1
89	91	1
118	121	1
93	93	1
150	176	1
80	80	1
175	180	1
30	30	1
7	8	1
95	96	1
122	122	1
18	19	1
84	85	1
118	118	2
35	38	1
54	54	1
27	29	1
136	136	1
44	52	1
20	25	1
126	133	1
58	58	1
76	134	1
96	96	2
9	10	1
106	106	1
177	178	1
149	169	1
