103	105	2
105	124	1
33	34	2
111	111	6
52	70	2
104	104	3
98	98	4
92	92	8
89	100	1
26	26	3
28	29	3
29	29	5
14	14	4
46	57	1
124	124	5
123	123	3
107	107	4
105	105	7
23	23	6
90	90	3
111	112	2
58	70	1
67	67	2
88	89	5
53	53	4
41	41	2
108	108	6
89	89	3
12	13	2
113	113	12
52	52	6
99	100	4
99	99	10
18	18	3
94	94	5
55	55	2
49	54	2
25	101	3
47	47	5
116	121	1
66	66	3
86	102	2
121	121	6
57	93	3
96	97	3
112	112	8
94	129	1
57	57	8
72	72	2
1	1	7
56	56	7
82	83	1
17	17	1
49	49	3
30	30	4
42	47	1
70	101	1
75	76	2
19	69	1
116	116	2
131	131	12
29	31	2
21	38	1
107	108	2
122	122	6
122	123	2
52	53	3
92	127	1
117	117	6
58	58	7
109	111	2
118	118	6
114	115	4
40	40	1
44	44	3
65	89	2
63	122	1
103	103	9
91	91	8
80	80	2
96	96	4
54	54	8
66	125	1
58	59	1
16	33	2
59	63	1
6	6	3
127	127	7
59	60	1
61	118	1
65	65	3
69	71	2
39	39	1
76	76	7
8	8	6
68	68	3
9	9	3
26	27	4
61	62	3
70	70	6
76	77	1
25	25	4
121	122	2
113	119	1
82	82	2
114	117	1
28	28	5
109	109	9
102	102	7
83	84	1
64	66	1
1	2	1
74	81	3
77	119	1
97	97	7
93	93	2
110	111	1
100	100	4
79	81	1
63	63	7
120	120	4
23	40	1
126	126	7
71	71	2
15	15	3
34	34	2
105	106	3
31	39	1
43	44	2
92	93	1
109	110	2
118	132	1
61	61	2
115	115	2
124	125	7
78	78	3
47	60	1
119	119	4
112	123	1
54	55	1
90	91	3
101	102	4
60	62	1
48	54	1
106	108	1
68	89	1
130	130	3
13	13	3
110	118	3
56	76	1
2	2	2
100	103	2
130	131	1
54	63	1
106	106	5
60	60	2
59	59	4
110	110	5
114	114	5
128	128	3
86	90	1
51	116	1
3	3	7
112	122	1
74	75	2
122	127	1
60	61	2
98	100	2
46	46	2
30	31	1
51	65	1
55	68	1
91	99	1
56	94	1
95	95	2
74	76	1
101	101	7
16	16	2
26	28	3
86	86	3
48	48	6
129	129	3
94	95	1
123	124	2
52	131	1
46	101	1
8	19	1
91	93	3
61	63	1
20	20	1
113	114	2
81	85	1
22	25	1
103	128	1
49	65	1
91	92	1
48	62	1
132	132	2
85	87	1
132	133	1
47	48	4
46	63	2
111	113	1
51	132	1
84	85	1
66	67	2
69	69	8
59	71	1
98	101	1
131	132	1
67	68	1
51	51	4
110	112	1
43	60	1
72	74	1
10	10	2
64	64	3
108	121	1
50	50	3
57	58	2
45	93	1
3	12	2
120	127	1
23	25	3
106	109	1
64	68	1
103	104	1
56	57	1
103	115	1
33	33	5
119	123	1
79	80	1
63	64	1
84	84	1
119	125	1
4	4	2
45	45	3
106	125	1
75	75	2
85	86	1
58	63	1
87	133	2
45	46	1
112	113	1
81	81	3
31	31	2
62	62	1
77	81	2
25	26	1
106	107	2
79	86	1
23	24	2
77	77	1
116	120	2
74	74	2
3	4	2
127	129	1
4	5	1
125	130	1
56	84	1
122	124	1
92	122	1
23	66	1
62	83	1
41	72	1
99	102	1
87	87	1
66	87	2
40	43	1
49	50	1
78	81	1
13	27	1
118	122	1
42	58	1
72	102	1
64	88	1
20	21	1
82	85	1
46	47	1
62	63	1
102	107	1
43	49	1
90	109	1
39	41	1
108	109	1
47	110	1
26	29	1
109	115	1
9	46	1
58	67	1
17	18	1
12	12	2
91	95	1
51	52	1
104	105	2
46	59	2
97	98	2
58	65	1
49	68	1
79	79	3
22	27	1
49	109	1
125	125	3
83	83	1
127	128	1
83	88	1
73	73	1
47	64	1
117	121	1
15	16	1
48	66	1
76	93	1
97	100	1
80	81	3
21	21	1
44	50	1
24	24	1
87	100	1
93	96	1
9	17	1
126	129	1
62	90	1
78	82	1
127	130	1
42	42	2
111	114	1
87	88	1
79	90	1
45	61	1
69	77	1
84	95	1
77	79	1
5	5	1
7	129	1
43	43	1
72	76	1
126	131	2
18	19	1
5	6	1
105	107	1
26	39	2
78	80	1
58	62	1
98	99	1
108	113	1
38	38	1
11	12	1
13	22	1
51	67	1
64	65	1
43	47	1
113	116	1
48	113	1
29	41	1
102	104	1
126	127	1
7	8	1
116	117	1
77	80	1
82	91	1
107	125	1
130	132	1
37	40	1
7	7	1
3	6	1
