131	131	2
63	63	2
101	103	1
66	78	2
9	9	2
130	130	2
106	120	2
73	85	1
62	62	3
18	18	3
170	170	2
143	145	3
72	81	1
6	7	1
74	75	1
99	99	2
89	89	1
103	104	4
134	134	6
2	2	1
139	139	2
131	145	1
152	164	2
169	171	1
149	153	1
6	6	2
126	126	2
151	173	1
140	140	2
92	92	5
14	27	1
108	113	1
84	84	2
170	176	1
148	152	1
35	35	3
36	37	2
138	138	2
3	6	3
158	159	1
131	144	1
61	62	3
5	5	2
81	96	1
93	98	2
172	173	2
15	16	1
40	43	1
87	87	2
17	36	2
81	95	2
27	38	1
42	60	1
95	106	2
6	25	1
7	10	3
15	25	1
62	64	1
26	28	1
6	17	1
144	155	1
82	97	1
107	108	1
78	79	2
165	168	1
36	36	2
5	11	1
91	147	1
147	174	1
136	137	1
53	53	3
152	152	1
10	10	9
144	145	1
138	140	1
77	78	1
7	13	2
143	143	2
43	43	2
121	122	3
137	137	3
38	38	1
179	179	2
147	151	1
78	80	1
43	44	1
139	163	1
116	126	1
66	67	1
130	131	1
75	79	2
77	93	1
132	149	1
169	169	3
112	130	1
55	55	7
136	159	2
7	30	1
151	151	3
10	11	1
66	70	1
84	125	1
127	131	1
2	9	2
35	37	1
100	102	1
2	28	1
116	116	2
53	54	1
91	95	1
3	13	1
13	31	1
89	96	1
150	150	2
147	163	1
143	147	1
20	40	2
82	82	1
93	93	2
132	132	2
142	162	2
11	11	1
136	136	3
5	13	1
129	129	1
122	143	1
64	65	1
57	57	1
90	93	1
119	120	2
158	158	3
98	98	1
142	142	2
127	158	1
8	19	2
81	84	1
21	31	2
59	68	2
111	115	2
55	56	1
81	82	1
117	120	1
80	80	2
60	67	1
100	103	1
66	87	1
14	14	3
172	179	1
145	146	1
123	137	2
20	25	1
111	111	1
162	163	3
73	80	1
148	148	3
7	8	1
28	37	1
133	144	2
30	35	2
115	115	1
73	75	1
172	172	1
162	165	1
23	25	1
65	65	2
8	15	1
167	176	2
117	133	1
160	160	1
38	41	3
66	66	3
103	117	1
118	118	1
57	58	1
113	128	1
2	13	1
3	3	3
42	46	2
77	95	1
135	150	1
140	143	1
8	13	1
91	99	2
142	145	2
128	157	1
88	88	2
127	130	2
42	42	1
93	113	1
174	176	1
73	79	1
61	68	1
8	8	2
5	18	1
122	129	1
19	32	2
94	95	1
29	31	1
171	171	3
73	73	1
93	99	1
32	36	1
23	39	1
12	12	1
173	178	1
107	139	1
27	28	1
4	4	3
126	135	2
29	29	2
88	89	1
31	31	2
140	163	1
3	136	1
9	111	1
22	40	1
107	124	1
1	14	1
97	97	1
22	23	1
15	32	1
160	174	1
174	178	1
33	35	2
78	78	2
115	116	1
140	159	1
1	1	3
41	41	2
22	49	1
110	116	1
51	53	1
26	26	1
39	39	1
149	149	1
121	123	1
8	41	3
30	40	1
94	94	1
140	152	2
96	97	1
81	102	1
54	62	1
44	44	1
13	24	1
9	35	1
123	123	1
96	111	1
6	10	1
56	65	1
138	157	1
131	137	1
106	106	1
45	45	1
114	116	2
150	169	1
31	35	1
4	21	1
139	168	1
15	29	1
5	9	1
76	89	1
133	147	1
26	45	1
90	90	1
92	115	1
12	27	1
23	23	2
128	140	1
135	139	1
58	58	2
26	38	1
86	113	1
79	82	1
79	88	1
105	118	1
125	135	1
137	153	1
59	85	1
140	156	2
112	112	2
125	126	1
160	173	1
123	124	1
159	159	1
110	110	1
67	68	2
167	167	1
126	131	1
36	44	1
30	30	1
23	29	1
132	146	1
55	67	1
76	95	1
51	51	1
72	76	1
3	25	2
8	10	1
73	74	1
165	165	2
128	128	1
152	166	2
86	147	1
71	71	1
160	161	1
17	17	1
72	82	1
67	67	2
0	1	1
173	173	2
108	108	1
84	96	1
112	114	1
59	59	1
146	148	1
142	143	1
100	105	1
137	142	2
93	107	1
121	134	1
22	22	1
21	38	1
1	4	1
120	120	1
160	176	1
9	11	1
77	83	1
13	23	1
109	109	1
16	67	1
94	99	1
32	43	1
31	87	1
127	127	1
51	62	1
25	25	1
167	168	1
156	158	1
46	46	1
33	33	1
5	35	1
61	79	1
135	166	1
98	113	1
156	157	1
44	45	1
156	156	1
157	157	1
