218	231	1
64	64	1
8	8	2
4	14	1
15	15	2
110	110	1
216	216	1
17	17	3
151	151	4
146	168	3
97	97	2
85	86	2
6	8	3
120	120	2
192	212	1
182	182	3
165	178	1
115	116	2
20	21	1
173	173	3
24	24	2
144	144	1
213	217	2
54	54	2
158	158	4
145	145	4
26	26	3
188	195	1
21	23	1
151	154	1
20	22	1
174	174	4
220	220	3
54	58	1
167	178	1
118	118	2
156	156	1
3	206	1
125	125	2
27	27	2
122	122	2
4	18	1
8	16	2
201	201	2
5	5	4
229	229	1
153	153	4
122	127	1
30	46	2
11	73	1
185	185	2
58	61	2
173	174	5
23	23	1
136	136	4
186	186	1
192	193	1
157	162	1
219	219	2
17	18	1
159	159	6
6	14	1
207	207	2
48	49	1
32	32	1
238	238	1
49	80	1
164	165	1
220	239	2
161	161	4
217	217	3
179	197	1
16	16	1
178	178	3
223	223	1
201	231	1
140	140	2
28	28	1
79	79	1
124	124	2
172	172	1
44	45	2
81	82	1
176	178	2
124	127	1
32	33	2
234	234	4
155	155	1
152	153	1
242	242	1
125	126	1
219	220	1
149	149	2
57	57	1
190	216	1
38	145	1
69	70	2
129	129	2
49	50	2
75	75	1
233	233	1
62	62	1
170	170	2
138	138	2
221	221	2
64	65	2
40	89	1
121	121	5
175	175	5
221	222	1
15	20	1
235	235	2
46	86	1
15	16	1
158	160	1
232	233	1
177	179	1
55	68	1
58	59	3
34	34	3
16	17	1
167	192	2
9	9	4
200	200	1
54	55	1
122	123	1
36	36	1
180	180	2
157	168	1
199	199	1
131	132	1
80	80	1
38	38	4
218	218	2
187	189	1
172	178	1
42	42	4
138	177	1
143	153	1
55	55	1
86	86	1
130	131	1
71	71	2
123	125	1
191	195	3
98	101	1
161	162	2
58	58	4
228	228	2
17	200	1
104	104	3
51	51	1
43	43	5
220	222	1
192	204	1
183	183	1
104	117	1
102	160	1
116	116	1
119	119	1
189	190	1
76	77	3
161	182	1
81	81	2
96	97	1
142	142	1
218	223	2
180	187	1
215	228	1
101	101	5
152	152	1
25	25	1
172	173	2
96	96	1
60	60	3
126	130	1
7	7	3
114	114	1
98	98	5
147	147	1
215	216	2
146	146	1
139	166	1
5	36	1
47	86	1
61	68	1
169	169	3
178	180	1
72	72	2
99	99	4
178	179	2
48	92	1
170	171	3
12	190	2
76	76	2
2	2	3
160	161	3
45	97	1
200	206	1
232	232	4
31	31	1
105	124	1
148	149	2
226	226	1
151	152	1
19	19	1
179	180	1
26	27	2
33	159	1
37	37	2
61	74	2
109	109	1
6	7	1
85	87	1
139	140	1
53	78	1
120	159	1
10	10	2
88	88	3
237	237	1
99	100	1
128	128	1
139	139	1
84	84	1
106	108	1
37	45	1
83	84	2
154	155	1
56	57	1
177	177	1
152	156	1
132	135	1
39	48	1
63	63	2
20	54	1
63	129	1
229	235	2
29	30	1
123	123	2
162	163	1
145	171	2
8	232	2
32	36	1
159	188	1
117	118	1
187	188	1
11	16	1
61	61	2
197	197	1
4	36	1
53	53	1
95	95	1
167	167	1
6	6	1
56	81	1
77	114	1
73	73	1
74	74	1
227	227	3
134	135	1
65	66	1
41	41	1
176	176	2
157	157	1
24	209	1
135	148	1
75	77	1
160	160	1
127	129	1
45	46	2
240	240	1
175	176	1
108	108	1
148	148	2
48	48	1
70	85	1
185	187	1
166	167	2
47	48	1
8	32	1
213	213	2
154	154	1
130	135	1
67	68	1
85	85	1
164	164	2
188	189	1
233	234	1
13	38	1
61	85	1
22	23	1
239	239	1
105	106	1
35	83	2
25	26	1
84	88	1
10	98	1
68	68	1
190	190	1
38	39	1
146	167	1
62	127	1
105	105	1
13	192	1
137	137	1
119	150	1
166	224	1
145	158	1
0	7	1
192	192	1
222	222	1
188	188	1
145	146	2
13	15	1
84	85	1
17	33	1
227	229	1
103	177	1
135	135	1
134	144	1
29	29	1
203	204	1
183	184	1
52	62	1
4	6	1
188	200	1
206	217	1
154	166	1
65	65	1
101	102	1
163	164	1
1	229	1
47	47	2
45	45	1
206	206	2
147	153	1
184	185	1
46	48	1
21	21	1
181	181	4
234	236	1
150	150	1
61	62	1
169	183	1
117	117	1
169	209	1
134	134	1
228	230	1
13	17	1
33	33	1
38	190	1
191	191	1
