31	31	2
67	68	1
79	106	1
148	148	5
125	125	2
158	159	2
142	142	2
139	140	3
149	149	6
69	69	4
108	150	1
63	83	1
91	91	7
127	127	3
16	21	2
92	97	1
53	53	4
26	26	2
117	117	1
150	151	2
94	94	1
101	101	1
158	158	4
57	57	2
132	132	2
100	100	2
126	126	4
50	50	3
18	77	1
98	98	3
128	128	6
132	148	1
28	28	1
27	27	4
151	151	3
7	30	2
75	151	1
68	68	1
137	137	3
35	36	1
115	115	1
118	118	2
7	70	3
136	136	2
140	140	1
95	111	2
142	143	1
20	20	1
156	157	2
66	96	1
14	16	1
88	90	1
30	39	1
84	116	1
77	77	3
141	141	4
146	147	2
107	107	3
39	39	2
155	155	3
92	92	1
143	147	1
80	80	1
3	4	1
45	47	3
0	0	1
38	96	1
111	111	2
128	129	1
14	14	2
114	114	3
146	146	2
129	129	1
47	52	3
120	121	1
73	73	3
55	55	1
139	139	2
49	49	1
84	86	1
90	92	2
1	1	4
12	51	2
87	87	2
113	119	1
132	134	1
131	131	2
27	28	1
115	116	1
11	40	1
113	113	2
82	82	2
51	51	1
23	23	1
125	127	1
23	25	1
84	84	1
25	25	2
53	54	1
30	30	2
130	130	1
66	66	4
152	153	1
141	149	2
74	75	1
87	89	3
75	75	3
134	134	1
106	106	2
132	155	1
43	47	1
142	148	1
36	47	2
143	143	1
79	79	1
144	144	1
0	25	1
67	69	1
107	124	1
131	132	2
81	81	2
67	71	1
44	44	2
150	150	4
21	21	2
120	120	2
11	42	1
93	93	3
3	3	1
99	99	1
13	76	1
112	112	3
157	158	1
133	133	3
128	150	1
65	65	3
127	153	1
107	109	2
63	63	3
7	20	1
55	64	1
64	64	3
106	107	1
103	103	2
52	52	1
28	43	1
38	38	1
108	108	1
153	154	1
137	151	1
91	92	1
156	156	4
130	132	1
5	6	1
41	41	3
124	124	3
105	105	1
43	43	1
11	12	1
104	104	3
110	110	2
88	88	1
126	127	1
153	153	1
25	36	1
99	128	1
128	148	1
70	101	1
36	36	1
23	38	1
110	111	1
47	47	1
2	2	3
31	32	1
107	110	1
34	34	1
79	81	1
152	152	2
107	111	1
32	32	1
13	81	1
90	156	1
24	70	1
48	54	1
71	71	1
80	83	1
18	18	1
72	72	2
147	147	2
76	107	1
86	86	1
9	9	1
96	155	1
103	104	1
33	64	1
10	10	1
115	147	1
114	119	1
79	126	1
34	50	1
62	62	1
40	49	1
132	133	1
53	55	1
78	85	1
96	97	1
121	136	1
80	109	1
123	139	1
4	4	1
90	143	1
155	156	1
35	35	2
102	103	1
6	6	1
117	119	1
