33	33	4
113	113	3
2	2	6
21	21	3
13	14	1
115	115	5
142	142	4
29	30	2
38	38	2
30	32	1
69	69	2
137	138	7
105	105	2
137	137	3
117	117	3
91	93	1
17	17	3
94	94	7
158	158	2
121	122	1
18	40	1
138	138	4
118	118	2
105	129	1
145	146	1
69	79	1
2	4	1
27	27	3
30	30	1
123	124	1
9	13	1
111	111	2
123	123	2
113	115	1
106	106	3
22	22	2
144	144	5
101	111	1
110	116	1
101	101	5
102	103	2
130	130	1
108	123	1
99	99	3
61	61	1
132	132	3
87	87	3
134	134	2
80	82	1
45	45	1
87	103	1
15	15	2
144	148	2
155	155	2
29	29	2
119	141	1
126	126	3
110	110	2
4	4	2
41	41	2
102	102	2
39	39	4
85	86	1
131	131	1
97	97	2
118	119	2
20	20	1
44	88	1
146	146	4
104	104	3
83	83	1
89	89	1
87	88	1
125	138	1
145	145	1
43	43	3
121	121	3
124	124	1
138	149	1
82	84	1
130	152	1
70	70	2
152	152	2
64	64	1
3	3	2
114	125	1
110	111	1
119	119	3
143	143	2
136	145	1
144	145	3
147	148	2
68	68	2
111	112	1
55	55	1
9	9	1
22	44	1
46	50	1
139	139	2
157	157	2
125	126	1
7	7	3
1	1	1
122	122	3
135	148	1
134	138	1
63	63	2
85	126	1
21	22	1
40	40	3
128	129	1
80	109	3
133	140	1
86	107	1
153	153	2
148	148	4
87	114	1
125	125	3
46	46	3
132	133	2
1	150	1
150	150	4
101	138	1
88	90	1
133	133	2
6	6	3
156	156	3
107	139	1
36	88	1
8	10	3
28	28	1
112	112	2
108	108	1
25	43	2
133	134	1
117	139	1
5	5	3
96	123	1
34	34	1
19	19	1
151	152	1
137	147	1
92	92	1
50	50	3
29	36	1
47	47	1
103	104	1
83	108	1
16	16	2
26	44	1
13	13	2
128	128	2
12	12	1
100	100	2
26	27	1
112	124	1
101	129	1
109	109	8
114	114	3
123	125	1
89	90	2
12	14	2
6	7	1
117	118	3
99	101	1
135	135	3
113	117	1
82	82	1
120	121	3
136	136	2
80	80	1
71	71	1
151	151	1
115	136	1
94	153	1
93	94	1
118	125	1
23	23	3
146	147	2
86	86	2
62	62	1
24	24	1
147	147	2
19	42	1
63	89	2
18	18	1
121	138	1
92	93	2
66	66	1
37	153	1
17	19	1
10	10	2
69	70	1
82	95	1
78	79	2
103	145	1
140	140	2
71	73	1
42	88	1
7	131	1
109	126	1
26	47	2
82	83	1
8	8	1
149	149	1
127	129	1
14	15	2
113	114	1
93	93	1
69	103	1
80	81	1
19	20	1
93	153	1
109	110	1
75	75	1
89	124	1
120	120	1
101	130	1
40	42	1
122	141	1
19	154	1
131	150	1
35	50	1
115	119	1
48	48	1
51	51	1
84	84	1
50	52	2
142	145	1
8	149	1
149	152	1
78	78	2
72	72	1
18	19	1
118	120	1
135	136	1
103	103	1
154	154	1
63	64	1
45	50	1
154	155	2
108	109	1
116	135	1
127	127	1
54	54	1
144	147	1
25	45	1
79	79	2
101	105	1
32	32	1
67	153	1
95	95	1
89	92	1
84	86	1
138	150	1
136	147	1
135	137	1
44	45	1
