19	19	5
96	100	2
106	106	9
9	9	7
90	91	2
73	94	1
72	74	1
14	22	1
76	77	1
32	32	4
102	102	1
83	83	5
61	61	2
97	98	2
98	100	1
119	119	6
120	120	5
77	85	1
99	100	2
30	31	3
16	69	1
19	22	1
59	59	3
108	108	5
107	126	1
34	34	7
96	96	2
30	30	4
96	98	1
111	111	9
130	130	3
47	47	3
69	69	5
36	36	5
73	73	3
0	3	1
10	10	6
128	128	5
83	85	2
117	118	1
38	38	2
91	106	2
127	127	1
78	78	10
42	42	2
25	25	3
131	133	3
107	114	1
23	24	1
91	92	1
72	119	1
44	44	7
72	72	3
84	84	5
123	123	5
63	63	6
31	31	8
66	66	4
40	40	1
64	64	9
131	131	5
75	75	9
8	9	2
59	101	1
107	107	1
21	31	1
71	71	5
104	106	2
121	127	1
68	68	3
5	5	5
43	43	1
47	59	2
101	101	3
121	121	3
80	81	2
36	42	2
74	74	3
62	73	1
16	16	2
103	103	2
113	114	1
35	35	4
59	124	1
65	65	5
18	18	4
59	60	1
85	114	2
115	115	5
94	94	3
118	118	7
73	98	1
57	58	1
112	112	3
18	21	1
28	28	4
12	12	5
0	0	2
7	31	1
21	21	2
2	66	1
8	8	1
87	87	2
70	70	2
104	105	1
14	14	4
117	117	5
13	45	2
110	110	3
96	97	1
56	56	4
26	26	6
100	102	1
45	46	1
101	109	1
61	70	1
126	126	3
57	57	6
75	76	2
55	55	1
122	122	5
105	105	2
2	17	2
95	95	1
125	127	2
27	27	4
61	68	1
120	121	1
11	11	6
41	41	1
60	60	3
10	16	1
22	24	1
61	76	1
101	128	1
22	22	1
121	122	2
62	69	1
113	113	3
85	111	1
40	41	2
123	131	1
81	81	5
72	78	1
107	110	1
34	35	1
64	65	2
107	111	2
131	132	3
15	15	1
21	22	3
37	37	2
70	79	1
85	85	3
109	109	2
133	133	3
92	93	2
92	92	4
58	58	2
28	56	1
46	46	5
41	42	2
115	116	2
126	134	1
20	20	4
112	119	1
76	78	2
104	104	2
102	134	1
21	129	1
125	125	4
76	76	1
3	4	2
93	93	4
82	83	1
66	75	2
90	90	1
111	123	1
31	36	1
62	62	3
123	124	1
12	13	2
7	8	1
45	45	4
39	42	1
12	114	1
109	110	1
14	46	2
102	129	1
83	96	1
15	17	1
11	12	2
71	72	1
9	10	2
68	70	1
99	99	2
116	116	3
107	115	1
121	132	1
66	67	1
80	121	1
124	124	3
118	119	2
5	14	1
82	82	1
120	129	1
39	41	1
44	57	1
46	47	2
31	114	1
112	113	2
132	132	3
21	32	1
20	24	1
33	34	1
7	7	1
128	129	1
62	63	2
10	11	1
86	133	1
77	78	2
5	132	2
33	33	1
85	86	2
80	103	1
67	67	1
24	26	1
123	125	1
97	97	1
102	105	1
100	101	1
67	69	2
37	38	2
29	31	2
91	91	1
110	111	1
34	61	1
134	134	1
79	81	2
3	9	1
4	6	1
114	114	2
93	98	1
130	133	2
79	80	1
59	76	1
35	43	1
90	130	1
2	2	1
20	39	1
29	29	2
102	104	1
44	45	1
104	123	2
105	106	1
61	63	1
59	116	1
19	46	1
126	128	1
65	66	2
35	36	2
24	30	1
78	95	1
111	112	1
71	94	1
61	73	1
124	125	1
24	31	2
84	91	1
25	38	1
2	33	1
32	47	1
28	57	1
68	69	1
119	129	1
21	50	1
23	23	1
20	28	1
86	86	2
3	3	2
64	119	1
23	33	1
91	133	1
14	47	1
12	32	1
70	75	1
14	15	1
59	61	1
1	11	1
98	98	1
3	73	1
5	17	1
91	123	1
29	30	1
63	64	1
14	91	2
39	39	1
80	97	1
102	108	1
132	134	1
31	32	1
38	90	1
103	106	1
60	62	1
93	94	1
98	99	1
57	60	1
14	17	1
2	73	1
1	2	1
95	96	1
