53	53	4
134	134	6
27	27	3
106	106	1
62	82	1
79	79	3
28	29	1
8	34	1
59	78	1
104	104	1
108	108	4
127	127	2
129	129	2
92	93	2
0	0	2
24	24	3
78	79	1
103	103	1
50	50	3
45	45	1
35	46	2
118	118	1
87	87	2
132	132	2
113	113	4
19	19	1
3	3	4
63	78	1
15	17	2
21	24	1
32	32	2
71	71	2
81	81	4
15	30	1
105	118	1
105	106	1
22	43	1
64	64	2
74	74	7
80	80	4
64	83	1
84	84	2
77	77	4
13	46	1
28	37	1
55	57	1
45	64	1
95	96	1
0	5	3
114	118	1
54	54	1
91	111	1
88	88	1
129	131	1
59	59	1
49	72	1
66	66	4
14	22	1
21	22	1
26	63	1
63	85	1
58	81	1
36	36	1
8	9	2
10	10	2
73	73	5
101	101	3
115	115	1
133	134	2
82	83	1
29	29	1
83	83	2
50	57	1
97	100	1
1	3	2
44	44	2
60	77	1
37	37	2
0	119	1
14	14	1
4	9	1
44	45	1
86	87	3
124	125	2
72	72	2
109	110	2
75	76	2
62	62	3
93	93	1
98	98	4
109	125	1
3	14	1
2	18	1
75	88	1
99	100	1
64	74	1
21	21	2
4	14	2
125	126	1
63	69	2
1	4	1
113	130	1
25	25	2
63	63	1
72	74	1
126	126	1
17	18	1
112	112	1
21	29	1
26	26	1
23	23	2
86	86	2
116	116	1
5	5	1
52	52	2
31	31	2
97	103	1
15	15	3
120	120	1
78	86	1
91	91	1
68	68	2
91	109	1
30	32	1
99	99	1
102	103	1
97	121	1
29	52	1
58	59	1
21	68	2
52	53	1
130	130	2
66	67	1
13	13	1
93	120	1
91	92	1
119	120	2
23	28	1
106	113	1
119	119	1
45	46	1
121	122	1
110	118	2
12	31	1
65	75	1
28	54	1
87	91	1
76	76	4
85	90	1
124	132	2
135	135	1
7	7	1
101	125	1
82	82	2
1	10	1
11	11	1
7	18	1
33	33	3
79	81	1
9	20	2
59	63	1
93	95	1
27	97	1
92	114	1
54	68	1
92	101	1
121	125	1
102	102	1
14	32	1
122	122	1
55	75	1
89	90	1
25	29	1
60	60	1
9	10	1
25	37	1
82	124	1
10	23	1
3	4	1
117	117	1
108	119	1
44	47	1
1	2	1
125	127	1
104	122	1
8	8	1
13	14	1
72	76	1
55	58	1
11	14	1
107	107	1
32	33	1
6	7	2
95	95	1
110	110	1
79	97	1
19	44	1
27	28	1
56	74	1
67	86	2
107	110	1
35	50	1
45	49	1
5	12	1
18	18	1
116	124	1
43	44	2
57	66	1
89	98	1
70	97	1
65	87	1
78	78	1
16	16	1
31	32	1
16	25	1
65	67	1
90	93	1
97	118	1
80	81	1
25	34	1
115	132	1
57	60	1
11	13	1
