106	106	7
16	17	1
50	55	1
13	13	4
65	96	1
114	125	1
73	104	1
128	128	12
148	148	5
36	127	2
154	154	7
18	18	2
119	120	2
91	105	2
9	9	2
100	100	6
152	152	8
47	55	3
127	127	11
45	47	2
106	107	3
30	30	6
35	55	1
26	26	2
92	92	7
78	85	1
134	134	7
103	104	1
71	117	1
2	4	1
132	132	7
140	152	1
100	130	1
108	109	1
135	135	9
139	140	1
32	95	3
90	90	5
133	133	11
129	130	3
144	144	4
8	8	4
80	80	1
150	150	5
23	23	6
48	48	7
101	101	8
151	155	2
98	99	2
97	97	2
153	154	3
19	19	3
105	106	2
146	146	5
21	21	3
121	141	3
121	121	3
79	80	2
109	109	5
73	73	7
45	45	4
76	76	2
82	82	2
36	36	5
18	19	1
137	141	1
136	136	8
120	142	2
149	149	2
121	122	3
31	31	3
130	130	2
151	157	1
1	1	4
137	137	5
39	39	8
2	3	2
77	77	6
156	156	6
41	41	3
47	47	3
93	98	1
151	151	3
87	129	1
116	120	1
12	12	4
139	139	5
146	147	1
99	99	10
123	125	2
134	135	1
92	115	1
2	106	2
78	79	2
110	117	1
17	111	2
11	11	3
136	137	3
99	129	1
23	24	3
87	148	1
31	47	1
8	9	1
67	67	3
44	44	5
111	111	3
5	5	5
123	123	1
129	129	4
50	50	7
126	126	6
142	142	4
104	128	1
108	111	1
94	94	3
64	64	4
150	152	1
106	158	2
120	120	5
104	104	5
110	112	1
158	158	5
123	126	1
51	51	1
144	146	2
89	90	1
88	88	3
157	158	2
124	124	3
65	65	4
79	79	3
83	83	2
27	39	1
56	56	2
140	140	6
115	133	1
6	6	3
112	113	3
150	157	1
15	15	10
125	125	6
40	40	4
157	159	1
122	145	1
34	34	5
65	128	1
111	115	4
103	103	4
17	17	4
102	102	2
147	147	2
113	113	4
25	25	4
55	55	3
86	86	5
96	96	3
111	112	1
87	87	2
112	119	1
26	27	4
6	8	2
130	132	2
44	47	2
115	117	1
8	46	2
70	70	3
122	122	5
155	155	4
0	0	2
96	155	1
91	91	2
95	96	2
117	117	4
90	127	1
66	66	4
121	147	1
7	8	3
27	27	4
98	98	9
65	75	1
124	135	1
131	131	6
43	43	4
52	53	2
145	145	4
10	21	1
90	91	1
78	78	3
95	130	1
116	117	1
39	40	1
108	116	1
115	115	4
15	19	1
127	128	1
85	86	2
118	118	1
22	22	7
34	35	1
128	139	3
95	95	4
3	3	6
107	108	2
10	37	1
141	142	1
69	69	2
71	71	5
33	35	1
133	137	1
100	101	1
7	7	3
24	24	2
131	132	2
17	20	1
35	35	3
79	85	2
133	154	1
75	99	1
138	138	6
38	38	4
28	28	3
113	125	1
75	97	1
105	105	4
25	26	2
110	111	3
107	111	2
31	32	2
77	86	2
88	89	2
156	157	2
124	125	4
2	2	3
132	134	1
128	149	1
107	107	5
54	55	1
84	93	1
92	104	1
63	63	3
135	139	1
3	4	1
24	77	1
81	82	2
53	53	2
23	30	1
45	46	1
137	138	3
67	69	1
82	108	1
93	93	2
17	56	1
54	54	3
96	112	1
66	93	2
92	127	1
93	110	1
92	93	1
98	107	1
45	55	1
130	133	2
112	148	1
132	133	1
139	151	1
116	116	5
40	41	1
109	113	1
42	42	4
144	145	1
22	23	1
22	71	1
62	62	4
92	95	1
46	46	4
116	138	1
131	134	1
52	52	3
119	119	3
135	145	2
87	127	1
91	131	1
153	153	1
44	45	2
37	38	1
23	28	1
36	46	1
81	81	1
125	126	2
12	18	1
10	10	4
29	76	1
48	49	2
72	128	1
84	84	4
148	151	1
91	93	1
114	115	2
123	142	1
140	153	1
52	54	2
27	28	1
46	52	1
55	56	1
69	95	1
47	48	1
140	141	1
32	32	3
157	157	3
114	147	1
99	100	1
135	141	1
154	155	1
80	88	2
75	75	3
148	154	1
147	151	1
50	51	2
109	110	1
67	96	1
116	118	3
11	20	1
92	106	1
8	119	1
72	73	1
128	129	1
129	151	2
46	49	1
35	43	1
79	84	1
26	39	1
115	125	2
73	106	2
145	146	1
37	103	1
139	148	2
98	128	1
117	121	1
121	124	1
142	148	1
10	22	1
112	138	1
108	108	2
110	110	3
20	20	2
36	43	1
124	126	2
78	80	2
101	151	1
49	49	3
68	138	1
107	116	1
107	154	1
120	126	2
88	110	1
91	96	1
24	30	1
140	148	1
29	29	2
112	112	3
137	148	1
99	151	1
135	152	2
16	16	2
114	114	2
124	146	1
104	130	1
66	72	1
61	61	1
18	20	1
95	97	1
82	112	1
113	121	1
36	40	1
128	131	1
124	128	1
34	36	1
117	118	1
148	149	1
25	27	1
5	6	1
42	67	1
119	143	1
62	63	1
34	120	1
54	79	1
95	110	1
48	50	1
29	38	1
143	143	3
36	140	1
81	83	1
14	16	1
91	127	1
135	137	2
119	136	1
154	158	1
80	81	1
129	134	1
155	158	2
27	43	1
100	155	1
68	68	2
31	48	1
156	159	1
123	140	1
33	33	3
11	47	1
113	114	1
4	5	1
74	74	1
37	42	1
152	153	1
92	125	1
80	92	1
72	72	1
97	116	1
135	136	1
72	77	1
42	103	1
14	14	1
155	157	1
150	151	1
99	103	1
131	153	1
121	136	1
6	106	1
43	45	1
32	41	1
22	103	1
42	48	1
12	53	1
4	4	1
37	37	1
89	89	1
155	156	1
142	143	1
85	85	1
71	72	1
120	124	1
32	47	1
117	120	1
19	20	1
115	116	1
