5	6	1
49	50	1
144	145	1
80	80	5
108	108	6
121	121	4
14	14	2
25	25	6
46	46	2
4	4	1
51	51	4
52	52	2
126	161	2
67	67	2
170	170	1
144	149	1
17	17	1
28	28	1
20	21	1
35	41	1
37	37	6
11	11	4
0	1	1
100	101	1
0	0	5
152	154	2
137	137	3
159	159	2
139	140	3
85	85	2
1	1	4
70	70	2
105	105	2
157	157	3
96	96	1
161	161	3
133	133	3
90	97	1
142	143	2
57	106	1
143	143	4
54	54	1
50	51	2
87	87	3
78	79	1
38	40	3
112	126	1
65	65	1
111	112	1
44	44	2
51	56	1
136	136	4
48	48	2
162	162	3
135	135	2
102	102	2
12	12	3
40	40	2
101	101	3
160	160	4
146	146	3
45	65	1
62	63	1
15	15	1
88	89	1
153	153	1
58	58	1
34	34	1
147	155	1
131	131	1
145	146	1
168	168	6
98	98	3
90	92	1
64	65	2
13	14	2
135	136	1
125	154	1
83	83	1
129	130	1
3	39	1
110	110	2
95	96	2
76	96	1
71	147	1
23	23	1
4	7	2
111	111	3
38	38	4
151	151	2
54	87	1
46	48	1
2	3	1
145	145	2
36	36	4
40	41	1
49	49	1
112	125	1
68	68	2
8	125	1
106	106	1
164	165	3
149	166	1
100	100	1
63	68	1
35	35	3
43	43	4
3	3	3
104	104	2
20	20	1
22	47	1
84	96	1
42	42	4
149	150	2
169	169	1
71	101	1
41	42	2
107	108	1
76	76	1
127	161	1
148	148	1
66	66	1
8	8	1
136	137	1
65	66	1
130	131	2
114	115	1
83	84	2
125	143	1
126	127	2
7	8	3
141	141	1
128	128	2
27	43	1
9	9	2
47	49	1
147	149	1
39	39	1
152	153	1
11	48	1
92	92	2
9	45	1
167	167	1
125	125	3
15	139	1
102	103	1
69	69	1
72	72	3
118	118	1
77	77	1
145	164	1
86	87	1
10	10	2
119	119	1
88	88	4
36	135	1
129	129	1
158	158	3
147	147	1
153	154	1
142	142	2
56	56	1
120	121	1
33	33	2
103	104	1
84	84	1
115	115	1
81	81	1
39	89	1
47	48	1
55	55	2
140	140	2
110	111	1
126	167	1
126	126	1
47	47	2
164	164	2
21	23	1
154	155	1
115	139	1
144	144	2
41	41	5
45	46	2
125	129	1
50	50	1
2	2	1
65	67	2
113	114	1
5	5	2
161	162	1
137	138	1
109	109	1
22	23	1
93	95	1
116	121	1
86	86	1
21	22	1
20	25	1
154	154	1
156	156	1
6	6	1
50	72	1
72	73	1
150	150	1
16	16	1
7	7	2
27	27	1
8	10	1
66	69	1
18	18	1
39	42	1
127	127	1
46	156	1
100	102	1
50	100	1
39	41	1
134	136	1
87	149	1
26	26	1
137	139	1
61	61	1
123	124	1
64	64	1
10	11	1
81	83	1
93	93	1
