1	1	5
130	130	2
86	86	3
127	154	2
26	26	2
28	30	1
60	61	4
42	42	5
125	133	1
30	30	2
65	65	1
90	90	4
159	161	1
117	117	3
8	28	1
97	100	1
172	172	4
56	82	2
87	88	2
45	45	9
39	67	1
99	99	5
79	79	1
114	114	3
87	87	4
12	12	4
128	135	3
31	31	3
72	74	1
21	24	1
21	21	1
97	129	1
75	135	1
180	180	3
142	142	7
143	143	2
23	23	4
12	13	1
152	153	1
133	133	3
132	139	1
130	131	1
140	140	4
98	152	1
39	39	2
19	19	2
168	168	3
92	93	1
41	42	1
64	64	2
84	88	1
91	92	2
86	87	1
28	28	1
16	17	2
70	70	1
106	107	3
128	147	2
101	109	1
108	108	1
67	67	2
90	91	1
176	177	2
150	150	2
26	27	1
11	35	2
167	167	3
123	123	2
16	21	1
16	28	1
178	178	3
33	33	4
113	127	2
173	174	4
93	119	1
133	180	2
104	104	2
76	138	1
177	178	5
177	177	1
122	122	1
75	76	2
175	175	2
37	37	4
134	134	3
10	11	2
7	10	1
89	90	2
40	40	4
15	15	2
141	141	5
19	22	2
127	127	2
98	98	3
0	0	3
74	136	1
150	154	2
36	36	1
61	61	4
6	6	5
60	60	4
166	167	1
169	169	2
66	92	1
131	132	2
10	10	8
128	156	1
148	148	1
145	151	2
5	5	2
109	109	1
1	2	2
158	158	2
72	72	3
179	180	3
132	132	4
5	6	2
80	80	1
75	75	1
79	81	1
164	164	1
119	120	2
102	103	1
59	59	1
13	16	1
77	77	2
18	27	1
116	117	3
71	71	1
62	62	2
51	51	1
53	53	2
18	20	3
89	95	1
24	24	2
159	160	2
131	131	2
41	41	1
80	96	1
120	120	1
116	119	1
56	85	1
100	152	1
29	30	1
137	137	6
151	151	4
176	176	3
139	139	1
63	80	1
33	35	1
102	107	1
24	25	1
27	27	2
24	27	1
149	149	2
22	24	2
151	152	1
2	2	1
68	68	3
149	150	1
171	171	3
21	44	1
0	1	1
52	52	1
21	26	1
78	78	2
112	112	3
74	75	1
96	96	3
122	123	1
93	93	2
55	56	2
148	156	1
25	25	3
22	26	2
99	104	1
163	163	1
167	169	1
18	18	2
172	173	1
3	3	1
94	95	1
66	66	2
144	145	1
143	144	1
83	83	1
3	5	1
54	54	1
160	160	1
73	73	2
13	35	1
121	155	1
92	92	1
161	161	1
54	55	1
17	17	1
155	155	1
145	145	2
50	57	1
170	170	2
76	77	1
83	86	1
64	73	1
58	58	1
107	107	1
162	162	1
8	8	1
65	67	2
7	9	1
6	140	1
10	55	1
44	44	1
153	169	2
62	87	1
179	179	1
102	102	4
115	116	1
14	14	1
76	76	3
144	144	1
115	144	1
108	110	2
126	126	1
34	60	1
52	55	1
39	44	1
136	136	2
62	63	1
160	162	1
111	127	1
124	148	1
174	175	1
158	159	1
81	81	2
141	150	1
118	118	2
20	21	1
19	20	1
116	116	2
32	32	1
54	81	2
118	121	1
102	106	1
9	10	1
9	9	1
150	151	1
72	134	1
52	88	1
134	147	1
6	14	1
107	108	1
97	120	2
147	147	2
38	39	1
122	124	1
150	153	2
31	32	1
32	37	1
6	7	2
137	138	1
126	128	1
146	148	1
16	16	1
9	28	1
78	134	1
44	45	1
84	84	1
145	146	1
66	68	1
153	153	1
153	154	1
46	50	1
135	135	2
20	40	1
133	138	1
53	54	1
37	41	1
13	13	1
141	154	1
85	85	1
32	149	1
31	34	1
121	121	1
13	33	1
