42	42	6
70	71	2
25	25	6
48	66	1
103	103	15
77	96	3
97	97	5
110	135	1
54	55	3
2	2	5
36	36	10
78	83	1
34	34	4
98	98	12
154	155	2
130	139	3
127	127	11
21	21	7
67	67	14
121	134	1
93	94	3
111	111	14
52	115	2
102	104	1
18	18	9
123	123	5
21	105	1
119	119	12
151	151	6
95	97	2
115	121	1
81	84	4
50	153	1
7	18	1
158	158	7
52	52	6
128	148	1
100	100	13
90	96	1
82	82	1
55	55	5
142	154	1
105	105	11
3	25	1
116	116	3
77	90	2
112	112	9
81	121	1
146	147	6
139	139	9
112	114	1
135	140	1
132	139	1
116	117	3
156	156	15
124	127	2
157	157	15
120	123	1
138	138	17
95	95	4
68	68	9
125	126	8
124	124	10
134	145	1
67	68	4
104	104	15
87	87	5
146	146	4
128	128	6
3	3	5
46	46	10
83	83	4
99	99	6
44	45	2
129	129	16
145	145	9
135	135	12
140	141	2
71	71	12
84	94	1
51	131	1
149	151	3
17	17	3
46	47	5
4	4	4
126	126	9
17	20	1
115	155	1
119	120	4
134	134	17
81	82	5
90	93	1
122	149	2
75	76	1
129	130	6
110	110	10
28	28	8
0	150	1
91	92	3
31	32	1
150	150	11
1	2	5
130	130	13
73	74	3
97	98	1
155	156	3
143	143	6
7	8	2
81	140	1
96	96	11
73	128	1
153	153	12
95	96	4
47	47	5
17	18	3
144	144	5
137	141	1
132	132	9
154	154	11
114	114	7
122	123	2
20	21	2
29	29	5
150	151	1
63	63	6
121	121	9
1	1	9
75	75	6
105	106	5
12	13	4
147	147	5
45	142	3
84	110	1
134	135	9
136	136	9
140	148	1
62	64	1
144	145	1
54	54	5
5	28	2
64	77	1
22	22	7
133	133	9
66	75	1
148	148	11
113	117	1
13	13	3
12	12	4
23	23	6
43	43	7
15	15	2
88	88	4
12	56	1
113	115	3
36	37	3
56	56	3
128	129	3
25	28	2
94	94	4
55	56	2
103	104	4
7	7	8
10	44	1
112	113	3
8	8	8
27	27	5
120	120	12
144	146	4
80	80	2
109	109	3
0	0	5
101	101	10
39	52	1
12	30	1
24	24	9
21	22	4
50	52	1
130	131	4
108	112	1
106	106	8
152	152	9
73	73	7
92	93	2
123	124	7
155	155	11
37	38	1
7	67	1
142	142	7
43	69	2
107	140	1
107	107	13
70	70	8
31	35	1
80	83	1
91	91	9
129	151	2
40	40	5
79	79	5
93	93	10
72	129	1
45	46	2
32	32	8
31	31	7
125	125	6
84	114	1
26	26	8
148	149	5
50	50	4
115	115	5
90	125	1
90	95	1
139	149	2
77	77	5
5	5	7
30	30	7
143	148	2
33	35	2
159	159	1
23	24	3
53	53	5
128	151	2
0	1	3
87	88	3
69	71	1
117	117	6
77	91	3
114	143	1
106	111	2
38	39	4
108	128	1
114	116	1
134	146	1
122	148	1
137	138	3
40	41	1
141	141	10
71	72	5
108	108	6
139	140	5
108	111	1
4	26	1
149	149	6
10	10	6
151	158	1
12	17	1
107	108	2
94	119	1
39	39	6
122	126	1
28	51	1
131	133	1
140	140	5
43	128	1
13	39	1
68	69	1
86	91	3
33	33	3
78	78	4
136	137	2
100	150	1
50	54	1
152	157	2
84	93	1
137	146	1
142	143	3
101	102	1
3	4	2
69	69	5
90	90	6
38	38	6
71	92	1
134	136	4
20	20	3
3	68	1
35	35	5
122	122	8
89	90	1
26	29	1
31	40	1
52	54	2
24	27	1
67	69	1
81	81	7
123	126	2
4	25	1
9	9	2
76	127	1
69	95	3
107	112	1
117	118	4
119	121	1
129	138	1
89	96	1
132	141	1
131	131	12
71	139	1
6	6	2
29	30	3
76	77	3
72	72	1
95	107	1
46	48	1
118	119	2
112	115	1
100	101	3
15	16	3
79	136	1
123	136	1
70	100	1
145	154	1
35	36	1
82	88	1
106	134	1
113	113	10
79	117	1
73	103	1
19	19	1
26	27	2
123	125	1
138	139	3
51	52	3
137	144	1
156	157	1
77	80	1
86	86	5
113	116	1
92	92	6
57	61	1
108	109	2
38	50	1
57	57	3
63	64	3
116	123	1
123	144	1
51	51	2
157	158	4
104	141	1
109	110	3
26	38	1
123	127	1
30	39	1
88	89	2
66	71	1
93	122	2
130	153	1
72	73	2
47	51	2
133	135	2
109	111	4
98	99	3
137	137	9
13	16	1
21	26	1
24	28	2
83	120	1
90	91	1
33	38	1
115	116	3
15	18	1
80	84	1
111	153	1
11	11	7
87	111	1
27	152	1
106	108	1
22	99	1
50	51	2
48	49	1
71	131	1
78	135	1
79	89	2
34	55	2
36	43	1
113	145	1
155	157	2
66	66	5
64	64	2
110	131	1
86	87	2
16	16	5
7	12	1
106	131	2
141	142	2
92	94	1
16	17	1
105	134	1
118	142	1
90	92	1
69	70	1
47	50	2
152	158	1
130	133	3
48	48	5
144	147	1
145	146	2
92	95	1
98	139	1
84	84	2
118	118	2
65	65	6
33	85	1
94	110	1
153	157	1
85	90	2
101	105	1
26	104	2
37	47	3
14	32	1
137	140	1
19	108	1
93	124	1
111	112	1
154	157	2
53	56	1
95	111	1
82	83	1
19	20	1
111	113	1
120	121	1
77	157	1
75	132	1
128	140	1
56	113	1
37	37	3
68	116	1
127	133	1
113	136	1
88	90	1
24	25	1
72	100	1
19	52	1
87	89	1
106	107	3
96	97	2
84	86	3
111	124	1
131	132	3
62	62	2
14	37	1
92	132	1
14	15	2
45	45	1
133	148	1
94	95	2
13	55	1
87	93	1
48	114	1
39	69	2
83	84	1
32	37	1
117	122	1
14	14	3
19	21	1
120	141	1
81	83	1
9	11	1
7	10	1
92	97	1
32	35	2
83	85	1
62	63	1
39	40	1
49	49	1
79	121	1
29	39	1
65	97	1
66	67	1
93	131	2
42	43	1
116	137	1
111	134	1
44	44	4
24	29	1
140	152	1
64	105	1
75	98	1
77	111	1
108	141	1
115	117	1
84	88	1
8	17	1
45	47	2
77	92	1
131	134	2
23	129	2
43	44	1
16	29	1
138	140	1
151	152	1
77	126	1
68	85	1
77	95	1
133	138	1
110	120	1
120	145	1
34	35	1
87	121	1
49	51	1
65	101	1
28	30	2
15	19	1
110	115	1
78	80	1
85	85	1
13	14	1
111	123	1
82	121	1
139	148	1
114	115	1
38	44	1
103	106	1
94	104	1
95	127	1
35	45	1
137	145	1
115	123	1
66	73	1
87	118	1
32	40	1
31	124	1
96	98	1
127	153	1
152	153	1
118	133	1
154	156	1
12	16	1
158	159	1
90	104	1
8	44	1
115	122	1
76	128	1
93	143	1
99	100	1
132	133	1
41	62	1
55	142	1
103	129	1
112	140	1
