11	42	1
37	53	1
139	140	1
116	137	1
135	139	2
38	102	1
41	41	3
101	101	2
105	105	2
141	142	3
58	58	3
81	81	2
131	131	2
134	135	4
13	14	1
114	114	2
75	79	1
38	81	2
83	83	1
69	69	2
56	56	3
125	125	4
118	118	1
42	42	8
75	75	1
137	137	3
38	38	4
105	115	1
16	55	1
126	127	2
21	21	4
60	60	1
140	140	1
73	75	1
82	82	2
32	32	3
136	136	2
115	118	1
80	80	1
92	92	6
73	73	1
52	53	1
136	137	2
63	63	3
3	4	1
62	64	1
9	9	2
123	123	2
88	88	3
139	139	2
50	65	1
81	82	1
95	98	1
11	11	2
143	143	1
128	128	6
29	29	3
110	110	1
117	117	2
3	3	2
54	54	5
59	82	1
64	65	1
55	55	1
10	10	1
134	134	2
74	94	2
64	64	3
60	61	1
142	142	2
37	37	2
58	59	1
1	6	1
38	42	1
47	50	3
133	133	3
100	100	2
39	41	2
113	113	1
111	111	1
59	61	1
141	141	2
86	86	1
133	135	1
8	106	2
74	74	2
88	109	2
51	65	1
109	119	2
108	109	1
57	57	1
16	16	2
97	120	1
39	97	1
111	113	2
40	40	3
46	47	1
27	27	1
98	98	1
63	65	1
102	102	3
65	65	1
87	87	2
4	5	1
89	89	1
30	37	1
25	40	1
21	22	2
13	13	3
107	117	1
67	68	2
17	18	1
72	72	2
19	19	3
95	95	2
95	96	1
11	21	3
97	141	1
41	58	1
128	130	1
67	69	1
137	138	1
3	20	1
70	71	1
73	77	1
78	79	1
61	61	6
75	77	1
8	8	3
119	122	2
91	91	1
30	30	1
71	71	4
39	40	3
99	100	1
59	80	1
30	60	1
68	69	2
90	90	2
55	66	1
96	96	1
1	41	1
2	2	1
30	31	2
89	90	1
63	64	1
80	81	1
129	134	1
55	57	1
50	50	2
4	4	1
77	77	5
10	11	1
89	92	2
126	126	1
135	136	1
91	133	1
48	48	4
17	23	1
108	110	1
33	69	1
142	143	1
120	120	1
36	39	3
12	12	2
47	48	1
0	0	3
62	63	1
22	22	3
138	138	1
145	145	2
47	47	1
59	110	1
92	120	1
132	132	1
52	52	1
36	37	1
35	35	2
106	106	2
19	76	1
6	18	1
25	26	1
27	141	1
98	99	1
3	118	2
8	105	1
116	127	1
49	49	4
29	40	1
39	52	1
14	16	1
130	131	1
97	98	1
143	144	1
24	36	1
79	79	1
1	1	1
8	30	1
37	51	1
127	127	1
97	97	1
115	117	1
93	123	1
131	133	1
66	66	1
48	49	1
36	36	3
26	26	1
59	59	1
130	130	1
103	104	1
93	112	1
92	93	1
23	41	1
144	145	1
95	102	1
23	24	1
121	121	1
133	136	1
15	16	1
99	99	2
110	111	1
124	131	1
16	32	1
25	75	1
140	141	1
91	118	1
1	30	1
129	129	1
0	1	1
20	20	1
108	108	2
34	34	1
109	109	1
41	109	1
72	73	1
50	59	1
70	70	1
26	27	1
41	48	1
104	108	1
85	85	1
26	41	1
33	34	1
89	109	1
118	119	1
