57	59	1
130	130	6
69	70	5
56	57	2
103	103	3
26	27	3
87	87	3
43	43	5
78	78	7
34	52	1
25	25	5
16	16	7
73	73	7
72	72	6
117	117	2
102	103	1
56	86	1
65	65	5
94	102	1
85	103	1
7	7	3
112	112	6
60	60	5
78	86	2
61	61	4
98	98	3
76	76	4
115	115	9
47	47	2
53	54	2
69	84	1
69	69	8
44	44	9
76	77	5
96	96	2
134	134	8
45	45	8
109	109	2
131	131	7
26	26	2
86	87	2
31	31	3
66	66	4
28	28	5
14	14	6
63	63	2
36	36	2
9	9	6
107	107	4
24	24	6
115	125	1
71	71	6
132	133	2
77	77	7
68	83	1
127	127	6
104	104	5
119	123	2
25	45	1
80	81	1
114	115	2
66	69	2
4	5	2
16	17	1
70	81	1
13	15	1
85	86	1
3	3	5
89	89	2
71	72	2
22	22	7
70	80	1
129	129	3
121	121	3
82	82	7
3	23	1
52	52	3
52	80	1
52	69	2
7	8	1
37	37	2
84	85	2
72	74	1
18	30	1
18	18	2
10	67	2
29	29	4
11	105	2
123	123	5
124	125	1
90	90	3
122	122	5
15	17	1
66	87	1
125	125	4
110	110	5
55	55	1
32	33	1
105	105	3
49	49	3
81	81	2
62	77	1
88	88	5
10	10	1
108	111	1
50	50	6
11	11	3
43	64	1
130	131	3
2	4	1
20	20	6
78	88	1
4	4	3
21	22	2
0	28	1
128	129	1
64	86	1
99	114	1
114	118	1
70	70	5
2	2	2
18	19	1
85	107	1
50	73	1
84	128	1
53	89	1
24	64	1
84	84	2
93	94	1
29	43	1
24	29	1
92	92	1
10	11	2
69	73	1
59	59	2
13	33	1
27	28	1
64	64	4
10	16	2
115	116	5
114	114	3
75	75	4
64	65	3
57	57	5
68	68	1
94	94	1
21	35	2
95	101	1
58	58	3
42	43	1
12	13	1
31	32	1
122	127	2
126	126	2
80	80	4
3	28	1
67	67	4
67	68	4
27	27	3
24	25	4
9	19	1
74	74	2
62	62	6
17	17	3
34	34	4
28	34	2
45	50	1
54	54	5
133	133	3
118	119	2
33	33	3
54	69	1
91	92	1
85	85	5
118	130	1
12	12	3
25	68	1
22	69	1
89	104	1
8	12	1
83	84	2
78	79	5
16	61	1
32	32	5
88	89	1
66	68	2
128	128	2
74	76	2
50	97	1
52	81	1
106	107	2
64	68	1
80	115	1
79	79	4
25	26	1
25	95	1
22	23	2
49	72	1
70	71	2
23	23	6
119	119	2
73	74	1
97	98	2
19	20	2
71	74	1
75	76	1
99	99	1
9	10	1
82	97	1
13	13	1
54	55	1
28	29	1
67	96	1
48	48	1
135	135	1
29	30	2
106	106	2
65	66	1
77	128	2
83	83	4
21	21	3
35	35	2
66	71	1
56	56	2
87	88	1
62	63	4
106	108	1
8	9	2
30	80	1
97	97	4
124	124	3
63	65	1
76	78	1
95	132	1
82	84	2
86	86	3
83	87	1
14	21	1
74	120	1
77	78	4
49	50	1
3	4	1
83	108	1
131	132	2
113	113	2
24	30	1
121	122	3
118	118	1
5	6	1
71	79	1
30	30	2
61	62	3
120	121	1
50	134	1
63	114	1
111	111	2
24	37	1
60	113	1
53	66	1
55	66	1
77	82	1
115	118	1
87	90	1
125	126	2
98	102	1
123	124	1
112	113	1
15	15	3
108	109	1
105	124	1
36	37	2
93	93	1
2	8	2
100	101	1
24	26	1
75	112	1
8	8	3
99	106	1
104	105	1
52	60	1
31	58	1
3	13	2
57	58	1
13	94	1
0	34	1
76	79	1
79	80	1
76	93	1
33	34	1
8	36	1
79	85	1
26	28	1
100	100	2
58	85	1
51	51	1
55	58	1
14	15	1
1	1	1
116	130	1
67	69	1
82	83	2
90	91	1
65	67	2
61	95	1
65	68	1
65	69	2
4	17	1
58	68	1
15	79	1
24	44	1
102	102	1
108	127	1
106	130	1
98	124	1
53	53	1
11	21	1
13	23	1
132	132	1
91	91	1
126	127	1
111	112	1
93	95	1
44	46	1
101	101	1
11	27	1
