45	46	1
99	99	1
9	9	3
149	167	2
57	57	3
63	85	1
18	31	1
155	155	2
6	7	2
5	8	1
72	72	3
182	182	1
74	74	1
47	47	1
102	102	2
40	40	3
141	141	2
136	136	3
173	175	1
142	183	1
160	187	1
165	180	1
127	127	4
196	196	2
93	93	1
84	85	1
15	15	6
28	28	2
4	4	2
156	159	1
17	75	1
107	108	1
22	23	5
62	63	1
14	14	3
12	12	2
184	184	3
100	100	1
19	19	4
141	150	1
143	145	2
110	110	3
187	188	2
171	171	3
183	184	3
77	78	1
43	45	1
170	170	3
179	179	2
24	24	5
17	17	2
146	161	2
4	164	1
25	30	1
43	43	5
30	30	2
143	143	2
13	13	3
5	5	4
130	130	2
147	156	1
139	139	4
58	60	3
51	51	2
1	1	3
69	69	1
110	111	3
41	47	1
128	197	1
151	152	4
68	68	1
148	148	2
149	150	1
22	25	1
89	90	1
107	143	1
17	31	1
186	186	2
150	150	4
89	89	1
76	76	1
3	21	1
11	12	1
34	34	2
166	166	2
78	78	2
100	107	1
18	18	2
168	168	2
183	183	1
180	180	6
134	134	2
111	119	1
34	37	1
74	76	2
8	8	2
3	22	2
144	145	1
129	155	1
8	9	1
57	58	1
27	27	1
22	22	4
124	124	2
56	57	1
170	196	2
16	16	1
118	118	3
105	107	1
116	116	2
1	3	2
31	31	3
115	132	1
71	71	2
65	65	2
193	193	1
74	106	1
11	17	1
18	22	1
162	174	1
123	125	1
39	39	2
166	167	1
109	109	2
23	23	1
59	59	1
175	175	1
47	49	1
158	158	4
32	32	3
172	173	2
163	164	1
134	140	1
15	46	1
21	21	3
30	31	1
148	179	1
26	29	1
155	157	1
101	111	2
114	154	1
95	95	1
48	48	1
11	11	2
61	61	2
179	180	1
79	82	1
107	107	1
69	107	2
177	178	1
158	169	1
35	35	3
130	131	1
21	23	2
149	168	2
191	192	3
150	151	1
42	45	1
170	193	1
157	158	1
18	36	1
5	33	1
165	187	1
1	2	1
66	136	1
194	194	1
182	183	1
108	112	1
113	113	1
2	2	1
146	148	2
1	4	1
147	147	2
145	146	1
38	38	2
77	77	1
63	86	1
159	159	1
122	122	1
93	95	1
28	30	3
138	138	3
36	36	1
157	157	1
152	152	4
42	42	3
32	38	1
105	116	1
126	126	1
114	115	1
130	172	2
128	142	1
39	42	1
119	119	1
153	153	2
140	140	2
166	172	1
23	25	1
185	186	1
25	25	1
98	107	1
49	49	2
36	172	1
156	156	2
134	153	1
5	7	1
103	103	1
27	29	1
117	118	1
19	20	2
93	100	1
71	87	1
186	194	1
111	111	3
176	183	1
172	195	1
41	41	2
148	158	1
196	197	1
55	63	2
112	112	1
33	33	1
174	174	1
9	10	1
113	144	1
151	151	1
187	187	1
115	116	1
159	192	1
53	53	1
29	29	1
0	1	1
134	171	1
45	45	1
170	182	1
167	167	2
87	87	1
136	158	1
50	50	1
129	129	1
110	169	1
6	58	1
73	75	1
195	195	2
55	56	1
131	134	1
7	7	3
113	124	1
178	185	1
36	37	1
119	120	1
158	161	1
73	74	1
125	125	1
84	84	1
23	24	1
134	135	1
172	176	1
188	188	1
99	142	1
110	168	1
10	10	1
142	143	1
