143	143	7
146	153	1
106	106	6
190	190	3
156	158	2
178	180	1
148	151	3
164	166	1
109	111	1
69	69	3
140	140	6
68	68	1
176	176	8
178	178	1
29	33	2
22	22	3
66	77	1
89	109	2
81	82	1
16	24	1
32	33	4
14	14	4
79	80	5
111	129	2
185	185	6
81	81	6
116	134	2
25	25	4
169	170	3
90	91	7
85	91	1
181	183	2
146	146	3
12	12	6
134	134	2
23	31	1
42	42	2
98	98	10
152	152	7
163	164	4
63	65	1
86	95	3
58	94	2
3	3	3
92	92	1
102	102	6
182	183	2
184	184	7
155	155	5
95	95	3
1	2	2
28	28	4
168	174	1
18	18	3
17	17	4
43	43	3
168	168	3
94	94	8
71	71	3
132	133	1
24	24	4
4	4	3
170	187	3
173	173	3
126	130	1
147	147	5
31	33	1
8	15	1
159	168	1
87	93	1
5	42	1
112	113	3
32	32	2
20	21	4
67	67	3
131	167	1
119	119	2
63	63	4
26	37	1
35	42	1
186	186	4
100	100	4
53	53	4
35	61	1
153	170	1
54	54	7
183	183	3
130	152	1
79	79	7
80	81	1
128	128	2
24	26	3
133	152	1
61	100	1
160	172	1
139	139	5
69	71	1
13	13	5
153	153	6
122	122	3
64	66	1
139	142	1
13	17	1
103	103	7
90	90	3
2	2	6
93	133	1
141	141	3
48	48	4
38	38	2
162	164	3
135	136	2
77	77	6
109	122	1
97	97	3
175	176	2
35	58	1
108	115	1
146	159	1
30	31	1
145	164	1
152	159	1
181	182	2
0	0	4
158	158	3
77	79	1
178	179	5
14	15	3
137	138	1
59	61	1
8	8	6
117	117	2
85	85	5
148	148	6
182	182	5
187	188	2
135	135	8
186	187	2
154	155	3
181	181	3
23	23	4
111	111	4
101	101	6
120	120	4
47	53	1
94	99	2
113	153	1
16	16	4
166	166	3
20	20	2
63	118	1
91	94	1
36	36	3
170	174	3
169	186	1
115	115	4
145	145	8
19	20	3
68	85	2
41	41	1
173	174	2
171	171	4
26	26	6
154	158	1
132	149	1
114	114	4
6	6	4
72	95	1
59	59	2
31	42	1
66	66	7
154	157	3
59	63	2
169	169	5
174	175	2
59	81	1
113	113	4
180	182	4
152	169	1
126	171	1
35	35	3
39	40	2
58	68	1
33	64	1
153	165	1
139	145	1
175	177	2
86	86	2
133	168	1
165	169	1
55	55	4
16	31	1
119	175	1
82	115	1
2	6	1
122	123	2
139	166	1
28	31	2
29	31	1
125	125	3
172	172	9
180	180	3
93	93	2
11	12	3
96	97	2
13	16	3
64	65	1
45	46	2
53	112	1
58	106	1
167	167	2
157	162	1
62	86	1
175	175	2
94	97	1
0	94	1
123	123	5
37	55	2
52	52	3
61	61	1
24	25	1
151	151	2
33	33	1
142	142	7
33	36	1
74	74	6
155	156	2
170	170	2
11	11	6
46	47	2
99	99	7
144	144	6
115	117	1
124	124	3
149	149	3
113	126	1
184	185	2
174	174	8
79	93	1
57	57	6
132	132	1
73	73	2
14	171	1
150	150	2
133	136	2
28	29	2
20	23	1
177	177	3
126	126	5
171	182	2
22	23	1
118	118	5
84	120	1
58	59	4
74	76	1
159	159	3
114	134	1
60	60	3
104	131	1
2	3	2
68	69	1
75	76	2
171	172	2
89	89	3
78	78	7
37	37	3
92	94	1
27	29	3
67	68	1
176	188	1
106	118	1
168	169	1
10	10	8
39	39	2
169	188	1
44	44	5
65	65	2
6	28	1
112	114	1
75	75	3
134	159	1
105	110	1
43	44	1
116	116	4
9	17	2
44	120	1
80	80	2
33	34	3
91	91	2
19	21	1
121	121	6
166	182	1
164	164	3
168	171	1
33	37	1
64	67	1
175	187	1
131	133	2
139	177	1
130	130	4
29	30	1
42	48	1
174	177	2
130	131	2
89	94	1
27	107	1
5	11	1
94	95	3
121	122	2
45	45	1
22	123	1
148	155	1
18	19	2
60	61	1
69	84	1
117	120	1
96	99	2
107	107	5
124	125	2
82	82	4
83	83	6
29	29	2
76	76	6
117	188	1
28	30	2
10	32	2
4	5	1
110	113	1
185	187	1
58	58	5
3	6	2
108	119	1
57	88	1
60	131	2
93	117	1
100	104	1
21	21	3
18	32	1
104	104	4
177	180	1
159	185	1
189	190	2
54	104	1
67	111	1
34	34	1
70	88	1
104	106	1
5	5	6
26	43	1
1	13	1
56	95	1
126	168	1
114	123	1
187	187	5
58	61	1
138	138	5
87	88	1
179	179	1
126	128	2
74	100	1
148	169	1
83	113	1
68	112	1
134	135	2
138	147	1
103	108	1
94	115	2
10	11	2
108	112	2
40	40	2
85	87	2
12	13	1
20	41	1
72	72	1
153	154	2
77	83	1
160	169	1
156	157	1
15	15	4
19	19	2
29	43	2
167	168	1
52	61	1
29	46	2
67	69	1
56	56	4
82	83	2
183	185	1
2	8	1
101	102	1
90	92	1
87	87	4
175	184	1
23	24	2
144	154	1
92	101	2
118	119	1
62	64	1
42	46	1
165	165	4
7	7	5
86	94	1
126	133	1
138	164	1
70	143	1
122	139	1
61	62	1
68	83	1
137	137	3
102	103	1
82	147	1
126	127	1
93	100	1
103	118	1
16	17	1
41	73	1
154	154	8
111	112	1
44	45	1
155	160	2
38	152	1
66	68	1
58	60	1
1	3	1
36	68	1
1	1	3
129	130	2
10	24	1
151	169	1
127	127	2
110	110	2
59	60	1
100	105	1
55	61	1
72	113	2
112	147	1
99	130	1
128	129	2
130	153	1
154	166	1
100	117	1
112	112	2
84	84	4
89	113	1
144	147	1
120	175	2
27	27	1
146	147	1
96	105	1
25	37	1
108	108	2
16	27	2
88	89	1
151	170	2
136	156	1
142	143	3
77	85	1
157	157	3
67	79	1
57	58	2
23	47	1
28	32	1
16	18	2
150	163	2
160	160	3
110	184	1
85	121	1
171	176	1
79	109	1
4	26	1
138	145	1
62	73	1
91	92	2
156	188	1
161	188	1
97	98	1
10	31	1
5	6	2
163	176	1
170	185	1
169	181	1
123	124	1
176	178	1
48	63	2
97	102	2
82	96	2
115	155	1
40	46	1
69	91	2
155	174	1
130	138	2
188	190	1
0	12	1
122	128	1
71	79	1
147	148	1
129	129	4
103	106	1
66	80	1
100	101	1
72	92	1
171	173	1
15	31	1
56	57	2
54	60	1
109	110	1
84	85	1
5	41	2
4	44	1
88	88	1
162	162	1
160	170	1
135	141	1
38	39	1
131	134	1
38	48	1
89	108	1
73	82	1
109	109	3
0	39	1
146	151	1
143	144	1
175	178	1
81	186	1
127	139	1
103	104	1
82	86	1
182	185	1
167	170	1
23	33	2
83	140	1
53	146	1
25	187	1
3	25	1
17	21	1
147	151	1
104	105	1
112	115	1
9	141	1
156	156	1
86	87	1
47	47	1
185	186	1
19	22	1
119	176	1
65	66	1
86	93	1
107	110	1
70	72	1
138	140	1
147	149	1
59	62	1
61	93	1
125	126	1
164	169	1
37	38	1
37	47	1
116	125	1
13	24	1
107	108	2
75	109	1
62	71	1
155	187	1
84	94	1
140	145	1
138	176	1
35	75	1
15	19	1
160	161	1
90	94	1
107	119	1
6	47	1
148	173	1
100	142	1
79	99	1
61	68	1
116	122	1
170	190	1
150	176	1
22	53	1
189	189	3
116	117	1
188	189	2
69	72	1
177	182	1
37	128	1
139	170	1
89	95	2
134	136	2
164	165	1
4	7	2
58	62	1
97	99	1
117	118	1
122	130	1
13	14	1
23	46	1
40	48	1
93	111	1
72	73	1
4	20	1
76	77	1
73	74	2
127	152	1
143	155	1
27	48	1
139	144	1
96	110	1
23	58	1
130	133	1
107	127	1
43	45	1
169	185	1
120	141	1
139	160	1
146	167	1
62	77	1
170	188	1
67	81	1
15	16	1
147	155	1
31	32	1
166	170	1
124	141	1
