74	74	4
125	125	5
50	56	1
137	139	4
35	35	3
9	140	3
129	140	1
105	144	1
17	128	1
71	71	7
137	138	6
6	6	12
18	38	1
8	8	8
82	82	4
1	1	4
65	65	5
17	40	1
75	75	5
26	26	5
0	0	5
20	37	1
40	40	3
10	12	1
127	127	5
78	78	7
49	49	6
97	128	1
35	55	1
36	36	2
138	138	8
32	32	10
145	145	8
23	23	4
20	20	4
88	89	4
35	36	2
9	9	2
54	56	1
134	134	9
1	10	1
50	51	2
93	139	1
106	108	3
104	105	2
90	90	7
64	72	1
64	66	1
57	60	1
131	131	5
17	143	1
58	59	3
13	13	7
106	107	1
51	51	5
48	48	8
116	120	1
38	48	2
116	116	7
109	112	1
60	71	1
72	72	7
131	132	5
128	130	1
21	22	5
79	80	3
58	58	7
14	15	2
56	56	5
108	116	1
46	84	1
137	137	4
136	136	5
83	84	2
130	131	1
25	25	11
4	4	1
90	95	2
82	104	1
118	123	2
133	133	3
24	24	7
23	26	3
41	43	1
62	63	2
119	119	6
96	98	5
38	38	5
142	142	6
54	54	6
41	41	11
90	96	1
33	35	4
130	130	3
54	55	4
127	128	1
111	113	4
10	10	10
31	32	5
21	21	8
14	14	7
3	3	4
67	67	3
70	104	1
72	73	3
129	130	2
59	71	1
115	116	1
2	2	3
101	105	1
118	118	5
20	22	1
53	53	5
54	65	2
94	96	1
95	95	5
114	114	5
57	59	2
63	64	1
77	77	3
84	84	5
38	42	1
73	73	4
90	91	4
118	119	2
2	11	1
3	4	2
5	24	2
64	64	2
122	123	1
14	16	1
105	105	4
110	113	2
74	100	1
141	141	7
123	123	7
102	103	3
124	124	6
117	117	6
71	74	1
77	111	2
124	135	1
37	59	3
39	40	3
27	38	1
30	31	1
38	39	1
29	29	7
53	100	1
120	120	5
88	88	3
33	33	5
109	109	2
58	60	1
22	30	1
37	38	1
105	115	1
30	30	9
9	105	1
23	134	1
115	115	2
49	50	1
1	2	1
104	104	3
91	91	5
73	74	2
109	110	1
6	8	1
27	27	5
112	112	6
77	79	1
19	19	5
57	61	1
52	53	3
106	106	5
99	101	1
16	17	1
67	68	3
81	90	1
2	17	1
110	110	4
4	5	5
111	116	1
128	129	3
140	140	3
88	109	2
87	87	4
81	91	1
143	143	7
92	92	5
55	72	1
77	91	1
15	15	8
63	110	1
100	102	2
69	71	3
12	18	1
59	59	4
17	17	5
92	94	2
40	41	1
10	27	1
1	21	1
70	71	1
58	132	2
68	68	3
127	129	1
81	81	2
70	81	1
63	89	2
11	11	3
63	63	8
108	113	1
57	73	1
133	134	3
42	42	9
144	144	6
52	83	1
27	28	3
97	97	1
99	100	3
126	127	1
135	135	5
80	104	1
53	54	2
15	17	1
104	118	1
37	37	5
33	34	1
106	118	2
122	122	5
60	84	1
80	80	5
33	42	1
117	118	1
12	26	1
5	5	6
90	119	1
56	58	1
111	111	3
18	22	1
139	139	1
54	57	3
47	47	4
77	92	1
0	2	1
143	144	2
101	101	6
80	110	1
2	14	1
127	131	2
61	65	2
63	66	2
96	97	3
92	93	2
39	39	4
18	20	4
27	29	2
50	53	2
52	52	5
56	62	2
103	103	2
98	98	4
96	96	8
83	83	4
41	42	2
13	17	2
73	104	1
5	23	2
85	85	4
16	16	4
90	99	1
15	26	1
34	34	3
80	123	2
39	143	1
12	12	1
82	86	1
48	61	1
74	78	1
55	65	2
69	69	2
129	129	5
22	22	5
50	52	2
2	12	1
108	108	3
98	126	3
32	33	4
96	130	1
8	18	1
92	115	1
59	62	1
93	94	1
135	141	1
109	134	1
18	19	1
28	28	4
89	89	2
94	94	5
134	135	2
39	134	1
35	76	2
29	55	1
75	77	1
5	32	1
68	102	1
105	120	2
102	145	1
107	107	3
101	106	1
52	54	1
43	48	1
87	88	3
18	18	2
58	69	1
27	143	1
62	62	4
75	105	1
128	128	5
60	60	3
120	135	1
55	56	1
106	110	1
113	115	1
116	122	1
31	31	2
55	55	7
42	61	1
118	120	1
60	63	1
126	126	5
67	69	1
48	129	1
56	61	2
102	102	4
101	102	1
74	75	1
135	138	1
104	125	1
132	132	2
111	117	1
16	21	1
73	93	1
107	140	1
64	65	1
20	21	2
48	57	1
78	109	1
49	57	1
76	84	1
57	57	7
111	127	1
67	126	1
66	131	1
2	8	1
73	92	1
53	55	2
124	130	1
146	146	1
56	59	1
98	101	1
71	72	3
29	42	1
25	40	1
23	24	1
10	11	3
114	115	1
102	129	1
30	37	1
108	126	1
66	67	2
70	70	2
100	100	2
66	102	1
102	107	1
21	143	1
24	33	1
48	49	1
74	93	1
126	128	1
11	34	1
97	98	2
119	120	1
121	121	4
133	136	1
132	134	1
33	88	2
119	140	1
56	98	1
46	46	1
2	25	1
106	135	1
109	119	2
81	107	1
54	142	1
15	49	1
3	12	1
76	77	1
109	133	1
1	19	2
133	135	1
62	66	1
68	69	3
60	62	1
13	32	1
140	141	1
79	122	1
15	16	2
12	13	1
104	106	1
87	90	1
22	27	1
130	143	1
104	131	1
103	106	1
30	32	1
106	117	1
39	89	1
29	71	1
9	10	4
39	82	1
116	123	1
66	66	3
58	62	1
83	105	1
94	95	1
115	117	1
11	100	1
86	86	1
119	128	1
84	85	1
75	83	1
69	70	1
37	57	2
82	88	1
68	71	2
58	73	1
113	113	1
93	93	2
4	6	1
90	94	1
101	124	1
26	27	1
126	130	1
107	136	1
39	86	1
22	23	1
99	102	2
21	99	1
136	138	2
135	139	1
50	50	4
131	139	1
144	145	1
19	20	1
56	73	1
123	139	1
55	57	1
43	47	1
5	6	1
56	57	1
121	122	2
2	23	2
18	35	1
81	82	1
94	128	1
0	1	1
80	81	2
12	30	1
59	61	1
85	89	1
54	72	1
101	126	1
136	137	1
39	65	1
13	31	1
54	62	1
76	79	1
35	39	1
125	131	1
43	90	1
119	133	1
125	141	1
17	18	1
135	136	1
51	68	1
32	43	1
107	144	1
100	101	1
60	64	1
37	41	1
116	117	1
131	134	1
108	118	1
47	48	1
56	64	1
47	49	2
61	61	1
107	110	1
138	139	1
8	9	1
17	19	1
15	18	1
91	95	1
2	5	2
29	30	1
122	125	1
125	130	1
103	105	2
118	122	1
79	79	1
33	36	1
139	140	1
13	20	1
51	83	1
127	140	1
70	72	1
133	141	1
142	143	1
115	118	1
100	124	1
51	69	1
90	113	1
84	90	1
120	121	1
89	121	1
111	114	1
136	139	1
18	136	1
28	49	1
108	109	1
125	128	1
127	141	1
103	124	1
141	142	1
8	141	1
