7	7	1
10	11	1
239	239	2
153	153	2
143	143	3
142	149	1
62	74	2
16	19	1
162	166	1
160	160	3
27	27	2
25	46	1
213	213	1
44	44	4
115	115	3
228	228	1
173	173	5
168	168	4
199	199	1
108	108	2
135	135	3
6	6	2
198	201	2
4	224	1
57	57	2
180	180	3
128	128	3
29	29	3
142	142	1
48	104	1
65	67	2
104	115	1
119	119	2
63	63	1
155	156	1
240	241	3
5	5	3
18	18	1
109	109	3
164	199	2
60	88	2
154	154	1
121	121	3
148	148	1
11	11	1
16	16	2
118	118	1
194	194	3
114	114	2
72	72	5
51	51	1
153	166	2
223	230	2
191	197	1
176	176	2
61	73	1
66	66	1
184	186	2
39	39	2
152	152	3
157	157	1
15	15	1
133	148	1
201	201	1
185	185	1
161	161	2
49	52	1
237	237	4
229	229	1
76	76	1
59	59	1
91	91	1
102	131	2
34	34	2
95	95	2
30	33	1
197	197	2
166	224	1
124	124	2
131	135	2
105	105	2
68	68	2
52	52	2
183	191	1
38	39	1
222	222	1
156	161	1
5	6	1
132	135	1
128	171	1
86	86	2
167	183	2
172	172	1
40	40	1
234	236	1
210	210	2
122	122	1
134	149	2
131	131	1
111	111	2
174	174	1
209	218	1
212	222	3
10	10	1
31	39	1
95	96	1
171	177	2
20	70	1
64	65	2
6	7	2
178	178	2
103	123	1
64	64	1
154	157	1
74	98	1
20	20	2
79	80	1
30	74	1
86	88	2
9	20	2
171	171	6
216	216	1
53	53	3
181	182	3
240	240	2
191	191	2
155	157	1
208	208	2
1	1	1
14	14	1
36	36	1
33	33	1
42	42	1
78	78	1
164	165	1
103	105	1
183	183	1
139	139	2
41	41	2
3	3	1
145	152	1
188	188	1
56	82	1
29	31	2
130	130	1
35	35	3
225	225	2
84	100	1
31	31	1
30	30	2
47	47	3
77	77	2
29	47	1
186	186	1
132	133	1
80	82	1
146	146	1
46	47	2
110	135	1
88	106	1
58	58	1
133	133	1
155	155	3
144	145	3
170	171	1
62	75	1
157	188	2
222	223	1
4	6	1
175	175	4
48	48	2
1	19	1
62	66	1
195	195	2
0	0	2
236	236	1
103	103	2
54	54	2
146	176	1
200	230	1
198	198	2
85	102	1
152	176	1
151	154	2
24	28	1
157	162	1
9	9	1
105	118	1
192	192	1
71	71	2
51	53	2
163	163	1
117	151	1
117	135	1
162	163	1
101	101	1
105	141	1
186	187	1
7	214	1
232	232	1
214	216	1
29	42	1
208	209	1
24	24	2
109	120	1
187	205	1
42	47	1
8	8	1
37	56	1
104	124	1
124	125	1
13	13	1
43	43	2
34	236	1
144	144	2
199	200	2
29	30	1
224	224	1
73	73	1
152	153	1
26	26	1
219	219	1
218	218	2
170	183	1
15	16	1
62	63	1
196	196	1
28	29	1
169	178	1
170	223	1
42	43	1
152	166	1
35	36	1
2	3	1
134	158	1
179	179	1
103	117	2
190	191	1
3	16	1
8	9	1
187	187	1
25	25	2
4	4	1
75	84	1
44	52	1
76	81	1
134	134	1
181	181	1
169	198	1
171	183	1
173	199	1
39	40	1
55	55	1
129	129	1
149	159	1
125	125	1
84	84	1
151	163	1
49	49	1
49	50	1
100	100	1
22	22	1
149	151	1
159	169	1
76	82	2
212	212	1
158	158	1
149	149	1
35	52	1
150	151	1
144	159	1
80	80	1
128	129	1
38	47	1
76	79	1
1	31	1
180	197	1
61	61	1
150	150	1
84	164	1
21	116	1
63	75	1
29	51	1
2	18	1
177	203	1
197	198	1
140	141	1
68	69	1
60	89	1
148	152	1
148	174	1
202	203	1
164	164	1
123	124	1
193	194	1
115	116	1
98	98	1
45	45	1
204	204	1
