15	15	5
178	192	2
9	9	5
151	151	5
13	13	3
3	34	1
99	99	9
176	176	1
45	45	2
182	182	7
17	39	2
4	21	2
116	118	1
124	143	1
100	101	1
41	41	2
145	145	3
15	39	2
1	1	3
70	70	1
139	139	5
52	52	2
71	73	1
192	192	4
186	193	1
53	54	3
0	1	2
133	133	3
4	4	2
42	42	7
65	65	3
152	152	2
127	127	5
3	3	4
29	35	1
85	85	5
0	3	1
121	121	3
162	162	2
125	127	2
72	73	2
108	136	1
142	142	3
157	158	2
107	107	4
115	118	1
138	138	5
194	194	6
189	189	3
74	74	2
8	8	8
30	30	3
191	192	1
29	63	1
143	143	2
110	111	2
100	111	1
26	34	2
169	170	1
58	58	3
190	191	1
114	116	1
177	177	9
94	94	2
187	187	3
180	180	4
105	105	2
172	173	1
123	123	2
153	153	1
51	51	3
152	167	1
149	149	2
29	30	2
129	130	1
170	170	3
141	141	2
32	37	1
197	197	4
7	24	1
150	186	2
107	143	1
137	138	1
22	22	6
167	167	3
184	184	8
109	110	1
49	49	4
160	190	1
89	89	2
44	45	1
109	111	1
102	102	2
4	20	3
141	142	1
63	63	1
88	89	1
70	71	2
47	47	3
122	122	5
115	115	2
31	31	2
159	162	2
144	144	6
181	181	4
0	4	1
59	59	3
117	117	1
174	174	3
143	144	1
171	172	4
138	139	1
25	25	1
172	172	2
66	66	3
127	128	2
160	164	2
59	61	2
61	61	6
32	47	1
179	180	1
43	43	4
15	16	2
159	160	1
75	75	2
13	38	1
72	72	1
26	26	3
146	148	1
170	177	1
36	36	3
57	57	3
111	111	2
94	95	1
10	11	3
23	23	3
14	15	1
95	106	1
6	8	1
31	35	2
186	186	4
191	191	2
180	181	1
106	106	1
126	126	1
77	78	1
17	24	1
60	60	1
1	3	2
44	44	3
140	140	2
34	35	3
95	95	3
93	95	1
97	98	1
125	126	1
120	121	1
36	37	1
133	136	1
37	37	3
2	2	5
175	175	6
40	40	6
54	56	1
32	32	5
38	38	4
22	36	1
4	33	2
46	46	5
156	157	1
19	87	1
17	18	1
14	14	6
44	58	2
71	71	1
99	100	5
54	54	1
18	19	1
22	23	1
98	99	1
11	11	5
134	134	2
100	100	2
32	58	1
34	34	2
168	168	2
136	136	1
161	178	1
155	155	6
161	162	1
19	20	1
60	61	1
72	87	1
20	98	2
35	36	2
28	30	1
7	7	8
24	26	1
130	130	2
88	88	1
140	171	1
82	120	1
15	40	1
112	165	1
174	176	1
164	164	3
40	44	2
12	12	5
41	99	1
113	113	2
35	35	2
87	87	2
79	88	1
94	96	2
38	39	2
131	140	1
154	154	3
157	157	1
45	123	2
16	41	1
66	84	1
33	33	3
8	23	1
55	56	1
9	10	1
68	68	1
188	189	1
38	85	1
10	10	3
191	193	1
182	189	1
129	129	3
26	27	2
106	107	2
159	159	1
158	158	4
126	129	1
0	0	1
20	20	3
21	23	1
154	168	1
150	150	1
163	164	2
172	176	1
183	185	3
147	167	3
189	190	1
43	171	1
163	163	3
16	18	1
48	48	3
22	29	1
93	98	2
39	40	1
166	166	2
166	169	1
58	122	1
93	93	1
35	37	1
24	24	2
114	115	3
95	96	1
120	143	1
76	76	1
43	53	1
105	106	1
5	5	1
171	177	1
103	105	1
40	41	2
5	6	1
149	150	1
144	145	2
151	170	1
64	64	1
7	8	1
81	81	2
169	169	1
0	2	2
160	160	2
41	60	1
80	83	1
162	167	1
128	136	1
16	16	3
15	128	1
47	48	1
119	143	1
176	179	1
178	178	5
168	169	1
96	96	1
151	152	1
168	177	1
161	163	1
1	4	1
172	174	1
159	194	1
39	60	1
28	29	1
123	140	1
123	124	1
21	21	1
148	149	1
8	35	1
112	112	2
161	191	2
160	194	1
44	128	1
17	17	2
18	18	1
195	195	1
125	125	1
128	128	1
124	124	2
165	165	1
190	190	1
103	103	1
119	160	1
102	111	1
10	32	1
108	149	1
1	29	1
80	81	1
178	182	1
21	87	1
27	28	1
6	6	3
13	98	1
77	77	1
17	157	1
187	194	1
4	42	1
179	179	2
77	86	1
3	6	1
42	187	1
196	196	1
2	8	1
53	53	2
5	10	1
76	77	1
60	64	1
11	107	1
150	160	1
183	183	1
165	168	1
95	98	1
69	69	1
86	86	1
131	131	1
110	110	1
113	150	1
193	193	1
15	33	2
4	6	1
4	5	1
143	156	1
42	139	1
135	186	1
39	39	1
173	179	1
83	83	2
57	58	1
130	131	1
143	165	1
81	84	1
2	3	1
39	72	1
33	36	1
45	46	1
10	15	1
