167	167	5
15	15	4
35	35	3
70	70	3
51	51	2
12	12	8
64	64	1
5	182	1
112	112	4
173	173	1
151	151	3
119	119	1
123	124	3
154	154	2
53	53	3
0	1	1
181	190	1
190	191	1
118	157	1
48	48	2
13	13	7
33	36	2
5	5	7
135	135	2
132	132	2
114	114	5
144	144	3
62	62	2
162	162	1
31	31	5
15	16	2
42	47	1
118	118	1
20	20	2
6	7	2
88	89	2
170	170	4
10	13	1
29	29	2
67	70	1
169	169	3
179	180	1
96	96	3
38	49	1
181	181	1
14	14	5
23	162	1
186	186	5
34	81	1
21	22	2
9	49	3
24	24	6
69	69	2
81	81	4
178	181	2
69	80	3
25	122	1
159	159	1
148	148	4
40	40	6
18	18	6
51	52	3
37	37	3
42	42	2
29	30	1
16	17	3
52	52	7
143	188	2
117	119	1
1	3	1
66	66	1
193	195	1
168	169	1
37	42	2
8	9	3
8	8	8
154	172	1
184	185	1
45	46	3
5	8	3
65	83	1
47	48	1
67	76	2
39	39	5
23	24	1
16	27	1
178	180	2
2	3	1
149	150	1
126	127	2
65	65	5
73	74	2
101	107	1
124	125	4
121	185	2
128	128	3
111	111	3
149	149	5
34	34	2
168	168	2
149	173	1
176	176	2
102	103	1
161	163	2
44	44	3
121	121	4
16	16	3
32	125	1
44	57	1
3	3	4
109	109	3
19	19	3
112	150	1
120	121	2
138	138	4
194	194	3
5	6	1
99	100	2
163	163	2
172	173	1
49	49	2
94	114	1
25	26	1
134	191	1
160	164	2
57	57	4
196	197	2
27	27	1
17	17	4
142	142	5
38	38	2
28	28	3
10	11	2
93	113	1
77	77	2
127	127	2
144	145	1
22	22	2
32	33	1
190	190	1
70	99	1
33	34	3
143	143	2
100	100	2
187	187	5
155	155	3
140	141	1
185	185	3
32	32	3
7	7	2
176	179	1
38	39	1
146	147	3
4	5	1
102	113	2
21	21	2
182	182	3
33	43	1
60	60	3
25	25	2
34	36	5
18	29	3
50	50	2
113	113	5
96	99	1
67	68	1
124	124	5
196	196	4
197	197	2
30	30	2
44	128	1
152	152	2
18	19	1
155	176	1
9	9	7
59	59	1
165	165	2
11	12	2
107	107	3
33	33	5
182	183	4
56	56	3
21	29	1
34	35	2
20	24	2
173	174	2
94	96	1
25	35	1
98	98	1
24	25	1
72	72	1
113	115	1
45	196	1
121	122	2
166	166	2
156	157	1
181	182	1
73	75	1
94	97	1
183	183	5
12	13	1
124	151	1
40	41	6
17	20	1
23	23	5
36	39	1
28	31	1
112	113	1
14	15	2
152	172	1
101	101	2
195	196	1
96	97	1
134	134	3
41	127	1
9	25	1
31	34	1
175	176	2
150	156	2
17	18	2
4	4	2
174	174	1
10	10	1
115	115	2
167	168	1
1	1	4
193	194	2
94	95	2
69	88	1
164	186	1
175	175	2
195	195	2
157	157	1
10	37	1
189	190	2
146	148	1
46	46	1
179	179	1
19	33	1
108	108	1
14	42	1
153	189	3
42	44	2
137	138	1
192	192	1
156	156	1
22	27	2
45	45	4
36	37	2
11	176	1
158	158	2
152	154	1
126	126	1
177	177	3
33	37	1
70	185	1
58	59	1
9	22	1
122	122	2
24	26	1
93	93	1
5	65	1
41	41	3
137	137	1
186	194	1
167	187	1
156	183	1
172	172	2
6	6	3
153	153	1
171	171	1
143	146	1
107	113	1
159	160	1
115	116	1
29	35	1
147	147	1
158	177	1
74	74	2
39	40	1
47	47	1
71	72	1
114	115	2
99	99	1
73	98	1
26	26	1
149	172	1
79	83	1
93	184	1
42	45	1
174	175	1
13	14	1
15	197	1
163	181	1
0	2	1
4	34	1
141	141	1
124	194	1
139	140	1
58	58	5
139	139	2
111	112	1
39	42	1
67	184	1
124	131	1
129	129	1
68	68	2
115	123	1
110	110	2
21	23	1
83	83	1
70	71	1
37	65	2
12	14	1
125	182	1
191	191	1
66	85	1
132	133	1
163	164	1
42	43	1
28	29	1
146	155	1
11	11	3
150	150	3
128	171	1
61	61	1
87	87	2
146	150	1
17	39	1
43	43	1
123	194	1
143	144	1
0	4	1
96	113	1
17	47	1
54	55	1
73	73	1
133	133	3
7	8	1
97	98	1
108	111	1
1	2	1
174	176	1
118	119	1
3	4	1
155	172	1
140	140	1
105	170	1
62	63	1
77	80	1
12	37	1
162	163	1
146	146	1
73	122	1
32	47	1
178	178	1
75	78	1
142	171	1
70	88	1
164	165	1
29	31	1
16	21	1
3	32	1
177	179	1
19	21	1
194	195	1
188	189	1
31	32	1
