83	97	1
73	74	1
209	209	2
1	1	1
39	39	2
107	108	2
49	74	3
69	69	3
52	53	1
118	118	3
175	175	2
177	177	4
184	228	1
225	225	4
98	98	3
232	232	5
8	24	1
46	46	2
31	31	2
208	208	2
187	188	2
73	73	2
69	70	1
227	228	2
110	110	3
71	71	4
17	26	1
7	174	2
201	227	1
151	151	2
246	246	3
183	183	1
221	221	6
200	209	1
37	37	4
34	34	5
242	242	2
42	91	1
26	31	1
11	12	1
181	181	3
112	112	3
186	192	1
43	43	3
166	166	4
222	225	2
7	7	1
19	19	4
120	120	2
222	240	2
93	93	3
109	109	2
58	58	3
77	77	4
201	201	2
212	213	1
179	179	2
240	240	4
219	221	2
21	22	1
43	156	1
29	30	2
192	192	2
186	201	2
66	76	1
104	105	2
204	206	1
18	18	5
2	228	1
158	158	1
215	215	3
85	86	2
165	165	3
2	2	2
75	76	2
173	173	4
219	239	1
11	11	3
50	50	3
26	26	1
198	198	2
110	111	1
186	187	2
102	102	5
47	47	4
190	190	2
52	52	4
25	25	2
244	244	1
30	30	3
168	184	1
8	10	1
168	168	3
54	54	6
3	3	1
40	40	2
188	188	1
186	188	1
248	248	2
32	32	4
42	64	1
245	245	2
230	230	2
57	57	2
28	28	3
53	63	1
49	49	1
204	229	1
99	99	2
65	113	1
228	228	2
211	212	1
20	20	1
166	167	1
68	68	1
67	67	2
79	80	1
74	75	2
224	224	3
45	45	2
119	119	4
23	23	3
6	110	1
195	196	2
63	67	1
236	236	2
246	247	1
222	239	1
105	107	1
95	96	2
42	42	2
117	117	6
17	17	1
92	92	3
160	161	1
170	170	3
236	247	2
234	237	1
96	97	2
49	50	2
225	226	1
88	88	2
70	70	3
182	184	2
211	213	1
195	195	2
216	217	2
59	203	2
207	207	1
146	146	1
10	113	2
80	80	1
169	169	1
171	193	1
214	214	4
172	172	4
84	84	3
187	190	1
53	53	2
51	84	1
213	213	2
72	72	1
208	238	1
211	222	2
109	110	1
9	39	1
60	211	1
156	156	5
157	157	2
189	189	2
199	214	1
219	219	1
116	118	1
220	220	3
44	181	1
178	178	3
65	66	1
46	211	1
64	64	3
203	203	1
56	56	2
168	169	1
41	90	1
94	94	2
231	231	2
39	47	1
204	204	4
85	85	3
16	16	2
186	186	1
213	214	2
156	160	1
6	6	4
24	24	2
6	7	1
175	176	1
184	184	4
240	241	2
59	60	1
19	45	1
209	218	1
111	111	1
226	226	2
223	224	1
63	63	1
160	160	3
7	17	1
234	244	1
114	114	1
42	95	1
169	171	1
169	170	1
168	175	2
107	107	2
79	79	1
155	158	1
178	181	1
196	196	1
199	209	1
163	198	1
64	65	1
217	217	1
165	180	1
14	14	3
87	95	1
229	229	2
95	98	1
60	61	2
87	99	1
43	246	1
64	150	1
15	15	2
239	239	2
86	86	2
114	116	1
161	161	1
49	111	1
0	112	2
56	57	1
36	57	1
16	26	1
98	99	1
153	160	1
114	115	1
193	194	2
21	21	1
209	210	1
113	113	3
210	210	1
238	239	1
9	9	2
27	27	2
82	82	1
40	145	1
25	30	1
46	68	1
154	154	1
78	79	1
238	238	1
43	52	1
35	36	1
186	213	1
180	180	4
99	100	1
62	62	1
35	35	2
229	245	1
100	100	3
226	227	1
233	233	2
155	155	1
230	241	1
30	116	1
40	210	1
88	98	1
80	83	1
115	115	2
174	174	2
19	20	2
65	65	1
159	160	2
168	187	1
98	106	1
112	113	2
171	171	1
48	49	1
33	33	3
167	167	2
216	216	2
194	195	1
242	243	1
236	249	1
10	16	1
247	247	2
180	181	1
244	246	1
182	182	2
90	109	1
76	99	1
212	212	1
204	212	2
163	163	1
190	214	2
163	165	1
89	107	1
196	211	1
218	218	2
27	37	1
233	234	1
149	149	1
45	46	1
183	208	1
230	231	1
12	12	1
9	35	1
239	241	1
186	214	1
61	75	1
187	211	1
83	83	1
226	229	2
110	197	1
49	192	1
6	8	1
227	227	2
41	41	1
81	86	1
44	45	1
74	74	1
81	87	1
193	213	1
48	51	1
5	6	1
194	198	1
166	238	1
24	30	1
179	180	1
89	89	1
108	108	1
117	172	1
116	116	1
236	246	1
176	187	1
86	93	1
211	215	1
191	192	1
191	191	1
161	166	1
4	4	1
37	39	1
150	150	2
168	171	1
24	25	1
164	194	1
38	39	2
49	175	1
14	15	1
29	29	2
40	41	1
105	106	1
208	209	1
50	63	1
163	164	1
193	193	1
38	38	1
185	190	1
165	199	1
102	103	1
4	5	1
58	62	1
60	60	1
15	229	1
231	244	1
77	79	1
222	222	2
181	182	1
167	176	1
89	113	1
97	102	1
237	243	1
84	85	1
52	246	1
237	237	1
209	215	1
30	34	1
211	211	1
2	3	1
210	211	1
98	104	1
5	5	1
214	215	1
94	116	1
