221	222	1
83	83	1
35	35	3
147	147	1
194	195	1
109	109	3
164	164	5
135	138	1
10	131	1
105	125	1
110	141	1
104	117	3
225	226	2
171	171	3
24	62	2
129	129	2
137	137	5
13	14	2
159	159	2
117	117	2
19	19	3
105	106	1
50	52	1
10	158	1
69	175	1
174	175	1
49	50	1
61	61	2
65	65	2
81	91	1
150	151	2
54	54	4
213	213	3
29	29	2
145	147	2
70	70	4
39	39	3
144	144	1
14	14	6
139	139	1
31	32	1
170	170	4
86	87	1
180	180	4
184	185	4
192	192	2
99	100	1
60	60	3
76	80	1
116	117	1
62	62	1
17	21	1
122	122	3
159	160	1
3	231	1
44	44	2
231	232	1
123	150	1
133	133	2
126	151	1
187	187	3
218	218	2
89	89	1
63	63	1
24	24	3
43	45	1
4	4	3
78	78	1
43	69	1
79	81	1
123	123	2
119	120	2
69	130	1
55	55	3
150	150	3
98	98	2
111	120	2
18	19	1
185	185	2
106	152	2
161	161	1
226	226	3
216	218	1
28	28	1
23	23	4
84	84	2
37	79	1
191	192	1
149	158	1
69	69	2
56	56	4
222	222	3
119	119	2
43	43	4
5	6	2
4	5	1
38	38	4
88	88	4
54	63	1
197	197	2
129	130	3
209	218	3
1	1	1
217	218	2
66	82	1
79	79	3
75	89	1
212	215	1
214	215	1
178	178	1
166	167	2
120	120	3
224	224	1
103	103	3
231	231	3
18	18	3
122	170	1
13	13	3
80	80	2
49	49	1
213	229	1
15	15	4
73	73	5
68	68	1
86	96	1
219	232	2
74	75	1
129	138	1
108	110	1
156	156	1
58	59	1
57	57	3
154	155	3
166	188	1
169	170	2
163	163	2
182	182	2
64	66	1
58	58	3
164	165	2
45	45	1
26	26	2
134	134	2
157	157	3
191	197	1
12	12	2
7	9	1
167	167	4
170	171	1
103	122	1
130	130	1
113	121	1
32	102	1
181	181	2
115	115	2
175	175	1
113	115	1
69	70	1
0	0	3
179	185	1
176	176	1
3	156	1
5	5	2
53	175	1
227	230	1
144	145	2
6	18	1
36	36	1
10	10	2
165	166	1
33	33	3
189	191	1
31	31	2
46	70	1
151	151	4
46	46	1
174	174	4
198	198	1
12	13	1
125	127	2
12	16	1
121	121	1
90	95	1
154	154	4
176	220	2
112	112	1
65	66	3
66	66	3
128	128	1
139	169	1
52	52	2
59	60	1
62	63	1
128	165	2
105	105	3
101	101	3
32	36	1
218	234	1
240	240	1
118	163	1
6	6	1
27	28	1
74	74	6
99	99	2
223	223	2
41	41	2
3	9	1
107	107	2
136	137	1
8	8	5
158	159	1
53	111	1
149	149	1
48	48	1
171	198	1
196	196	1
241	241	1
168	168	2
221	221	4
152	152	2
158	169	1
176	177	2
206	208	1
165	167	1
2	2	2
140	146	1
30	30	2
169	175	1
102	121	1
22	22	2
238	239	1
172	183	2
158	158	1
119	125	1
165	188	1
21	21	3
116	116	1
201	201	3
135	135	1
40	40	1
124	124	4
184	184	1
155	161	2
237	238	1
155	155	2
156	157	1
215	215	1
219	231	1
234	234	1
189	189	3
168	182	1
155	156	1
202	202	1
153	153	3
45	66	1
53	54	1
214	229	1
51	54	1
236	236	2
170	183	1
237	237	1
61	63	1
13	41	3
125	125	2
64	64	2
238	238	1
146	146	2
138	138	2
179	179	1
216	225	2
53	53	2
8	9	1
162	163	1
107	151	1
71	170	1
9	24	1
222	223	1
100	100	1
2	10	1
82	84	1
165	165	1
149	150	1
10	25	1
104	104	1
222	225	1
47	47	2
156	158	1
62	197	1
70	74	1
86	86	2
6	14	1
118	118	3
7	7	2
194	194	2
96	109	1
111	111	1
51	51	1
17	17	2
3	3	2
168	169	1
217	217	1
225	225	2
107	108	1
135	145	1
166	166	1
59	59	2
112	128	1
65	67	1
204	236	1
126	126	1
16	16	1
37	103	2
220	220	1
69	71	1
213	224	1
42	42	1
48	50	1
68	242	1
9	9	1
34	35	1
181	182	2
27	27	1
168	172	1
23	232	1
32	32	1
169	169	1
14	19	1
85	85	1
235	235	1
39	44	1
167	173	1
31	45	1
71	88	2
153	164	1
63	196	1
182	183	1
26	46	1
179	190	1
96	97	1
186	187	1
3	7	1
206	206	1
141	167	1
104	108	1
212	225	1
198	217	1
134	139	1
66	67	1
203	203	1
220	224	1
173	173	1
227	227	1
67	67	1
160	204	1
154	168	1
220	228	1
44	71	1
193	193	1
162	162	1
65	212	1
238	240	1
30	31	1
116	135	1
181	196	1
141	143	1
183	183	1
167	183	1
168	199	1
98	99	1
103	104	1
200	200	1
2	3	1
17	42	1
45	46	1
228	229	1
11	11	1
143	144	1
74	131	1
