36	38	1
15	15	2
138	138	3
137	137	3
124	124	2
102	102	3
17	17	1
80	81	1
68	68	2
62	67	2
5	194	2
11	11	3
37	38	1
154	155	2
24	39	1
183	183	3
16	16	1
4	5	2
106	107	1
4	4	2
67	68	2
141	141	4
38	47	2
179	180	1
99	111	1
16	21	1
13	14	2
187	192	1
32	33	2
58	77	1
47	47	1
43	43	4
147	148	1
158	159	1
24	32	1
196	197	3
149	150	1
196	196	1
16	17	1
2	2	2
131	131	2
37	37	7
9	9	2
140	141	2
45	46	1
182	182	3
33	35	1
118	151	1
150	150	2
23	47	1
8	42	1
181	181	1
20	20	1
120	148	1
8	37	1
100	100	3
13	13	4
164	164	1
46	46	3
38	38	3
167	169	2
115	116	2
128	128	2
175	175	1
101	103	1
58	58	4
95	95	3
51	51	3
169	169	2
170	170	3
126	126	4
103	104	1
131	150	1
155	155	5
34	34	3
150	155	1
79	79	2
40	41	2
40	40	3
156	156	3
125	125	3
17	74	1
108	108	1
197	197	3
177	177	3
5	34	2
51	143	2
176	176	2
26	26	2
47	71	1
15	38	1
115	122	1
86	86	1
168	168	1
186	186	3
20	24	1
10	166	1
145	146	1
143	157	1
169	170	1
70	78	1
36	36	2
71	71	1
163	163	1
130	130	2
166	168	1
170	194	2
85	86	1
17	18	1
15	58	1
42	42	3
136	136	2
49	49	1
12	12	1
157	157	5
152	152	4
89	90	2
184	184	1
100	147	1
115	115	1
5	6	1
19	70	1
69	85	2
109	109	2
41	41	1
127	135	1
149	149	2
25	25	4
20	21	4
160	163	1
28	68	1
130	131	1
96	97	1
110	110	1
187	188	1
151	160	1
172	179	1
112	124	1
61	61	2
10	10	1
31	59	1
44	44	1
19	19	2
87	89	1
83	84	2
137	164	1
158	158	1
9	10	1
18	18	2
160	160	1
45	45	3
31	31	1
14	14	1
65	65	1
56	56	1
191	191	1
107	107	1
176	177	1
60	61	1
49	50	2
18	19	1
139	139	1
30	30	1
15	16	1
171	171	1
172	173	1
44	46	1
58	59	1
21	21	1
193	193	2
159	159	2
146	146	2
9	195	1
160	166	1
107	177	1
80	80	2
78	79	1
122	122	2
143	144	1
23	23	1
53	53	1
172	172	2
6	6	2
189	190	1
124	128	1
189	189	1
173	173	1
100	195	1
67	67	1
11	33	1
5	5	2
29	29	1
41	42	1
33	33	1
143	143	1
113	113	1
134	134	1
98	114	1
128	129	1
51	52	2
47	49	1
54	54	1
151	152	1
4	10	1
144	145	1
37	53	1
47	48	1
136	167	1
114	115	1
140	180	1
153	153	1
48	48	1
0	33	1
8	8	2
112	169	1
7	7	1
142	185	1
13	15	1
24	26	1
47	72	1
36	194	1
118	119	1
2	5	1
116	116	1
105	105	1
185	185	1
155	156	1
135	138	1
133	133	1
6	158	1
16	18	1
98	99	1
21	23	1
102	104	1
