111	111	3
28	28	1
111	129	1
123	123	6
115	134	1
103	103	3
20	20	2
32	102	1
22	41	1
109	109	3
118	118	3
34	61	1
87	87	2
70	71	2
70	122	1
45	46	2
15	15	4
79	80	1
4	4	5
6	6	4
57	57	7
133	133	6
106	106	4
12	12	5
128	129	1
65	72	1
38	38	1
93	93	2
23	29	2
124	125	3
127	128	1
17	46	1
42	42	3
92	131	1
93	94	1
7	111	1
6	10	1
122	123	1
59	59	4
8	8	5
50	50	2
102	102	1
100	100	4
119	119	5
13	13	1
10	10	3
91	92	1
95	102	1
21	100	1
1	1	3
51	56	1
26	27	2
128	128	1
74	74	6
27	27	3
59	60	1
76	115	1
65	65	5
90	90	1
16	16	3
45	45	5
23	23	4
99	100	2
55	55	1
60	60	2
62	76	1
3	34	2
112	112	4
95	95	2
112	115	1
34	38	3
46	46	1
58	59	1
95	97	2
6	44	2
35	59	1
103	105	1
16	47	1
39	39	2
62	62	4
44	44	3
112	114	1
107	107	2
35	35	1
56	56	5
74	75	1
77	77	2
69	71	1
117	117	6
41	41	1
3	3	1
63	63	2
111	112	2
134	134	4
19	19	5
122	122	3
58	58	4
32	33	1
22	22	3
24	24	2
72	72	5
16	27	1
73	73	2
115	115	1
120	120	3
124	130	1
96	96	3
34	129	1
29	31	1
68	68	2
7	11	1
34	34	2
97	98	1
93	119	2
54	55	1
116	116	4
114	114	2
77	86	1
80	80	1
8	9	2
83	84	2
78	78	4
69	69	2
87	88	2
97	97	3
118	125	2
60	61	2
94	94	1
64	64	2
2	2	2
66	66	4
3	9	1
12	15	1
56	81	1
27	31	1
21	21	3
43	44	1
69	70	2
76	76	1
14	15	2
26	26	1
71	71	1
31	31	1
99	101	1
0	0	2
17	17	2
33	33	2
64	72	1
48	85	3
70	70	3
68	69	1
130	130	1
29	29	3
55	56	3
88	109	1
81	81	2
79	92	1
113	113	3
81	90	1
125	125	1
67	68	1
98	98	2
77	78	1
109	110	1
101	101	1
41	43	1
79	86	1
80	92	1
92	93	2
6	19	2
92	92	3
83	109	1
120	121	1
1	2	1
132	132	5
116	134	2
125	126	1
131	131	2
49	129	1
13	14	1
61	62	1
92	103	1
43	43	2
91	91	1
9	10	1
29	30	2
68	73	1
39	50	1
3	14	1
128	130	1
34	46	1
96	98	1
90	91	1
40	40	1
105	106	1
70	73	1
11	11	3
129	129	1
110	110	1
106	129	1
84	85	1
81	102	1
47	47	1
127	127	1
23	30	1
23	24	1
40	126	1
131	133	1
35	36	1
48	49	1
94	96	1
108	108	1
81	87	1
14	14	1
61	61	1
18	18	1
35	43	1
131	134	1
100	133	1
91	93	1
132	133	1
24	25	1
80	81	1
84	84	1
36	38	1
9	9	1
77	118	1
108	119	1
86	86	1
18	19	1
119	128	1
102	104	1
20	101	1
