46	46	3
44	44	3
53	54	1
196	196	2
161	161	2
182	182	2
128	128	1
137	137	2
24	24	2
41	41	3
0	23	1
81	81	3
69	69	1
66	66	2
17	17	3
31	31	3
38	38	5
159	159	2
40	40	3
158	158	2
127	127	1
45	46	1
165	165	3
106	106	1
170	170	3
98	98	2
36	36	3
68	68	1
15	194	1
5	6	1
153	153	6
144	168	1
153	154	2
19	19	2
18	33	2
157	157	1
3	5	1
42	42	3
167	170	1
89	89	1
193	194	2
112	112	1
65	95	1
140	169	2
9	37	2
108	143	2
184	185	1
153	173	1
77	81	1
120	120	1
77	77	2
195	196	2
15	15	2
147	147	1
23	24	3
190	190	2
49	49	4
20	20	4
38	39	1
122	123	1
157	158	1
108	146	1
3	3	2
8	8	5
85	86	3
11	39	1
172	172	2
180	180	2
80	81	1
150	151	2
134	134	1
18	26	1
6	6	2
140	140	1
149	178	1
39	39	3
72	73	1
170	171	2
44	52	1
57	151	1
139	139	1
183	183	1
42	44	2
132	132	1
176	178	1
18	18	4
108	148	1
107	107	2
122	131	1
4	7	2
43	43	2
135	135	1
21	21	1
141	141	5
166	180	2
50	50	1
2	2	2
26	26	1
19	33	1
171	186	1
83	86	1
6	33	1
138	140	1
7	7	3
40	41	2
100	107	1
14	15	1
6	31	2
37	37	1
85	110	1
77	88	1
194	194	3
76	76	1
93	94	1
27	35	1
16	17	2
16	41	1
56	56	2
191	191	1
72	72	2
55	55	1
125	126	1
154	160	2
70	123	1
12	12	2
63	63	1
34	34	1
15	193	1
79	81	2
23	42	1
35	35	2
76	77	1
163	169	1
0	0	1
145	145	1
99	99	4
197	197	1
151	154	1
108	108	3
132	159	1
133	135	1
149	177	1
168	168	4
22	39	1
28	28	4
109	111	1
18	19	1
146	146	1
114	115	1
79	80	2
14	14	3
176	176	1
9	9	1
151	172	1
130	130	1
114	137	1
181	182	1
159	160	1
59	59	1
104	104	1
173	174	1
77	96	1
82	83	1
191	192	1
20	69	1
137	138	1
48	49	1
22	23	1
39	47	1
42	131	1
10	10	1
114	114	1
55	56	1
70	70	1
53	141	1
187	187	2
120	121	2
65	96	1
53	58	1
186	186	2
82	82	1
1	1	1
3	8	1
20	27	1
54	152	1
132	134	1
4	4	1
168	173	1
16	16	1
113	113	1
6	167	1
136	136	1
133	133	1
65	65	2
123	123	1
23	73	1
154	154	1
154	155	2
45	47	2
27	27	1
186	191	1
97	98	1
171	172	1
88	88	1
45	45	1
139	140	1
158	159	1
6	7	2
178	178	2
131	131	1
95	96	1
161	164	1
147	148	1
164	164	1
114	120	1
19	20	1
62	75	1
103	106	1
138	139	1
152	152	1
178	179	1
43	150	1
142	142	1
10	21	1
75	75	1
140	168	1
94	115	1
1	181	1
160	160	1
171	171	1
9	10	1
26	29	1
121	121	1
67	68	1
87	87	1
113	118	1
119	119	1
185	185	1
165	166	1
107	134	1
87	88	1
5	5	1
100	101	1
111	111	1
7	8	1
135	137	1
22	22	1
192	192	1
43	44	1
60	69	1
33	34	1
8	9	1
