186	187	3
153	154	2
17	17	3
217	218	2
174	195	1
36	38	1
141	141	2
0	1	2
40	41	2
4	5	4
59	187	1
149	186	2
67	67	7
103	103	4
139	139	8
125	125	8
39	42	2
117	118	4
161	161	6
88	112	1
228	228	3
78	78	3
160	160	4
222	222	3
171	186	1
40	40	3
86	86	3
235	235	3
18	19	4
165	166	2
116	116	2
168	169	1
122	124	2
219	219	6
70	85	1
192	224	2
58	59	2
207	209	2
120	132	1
133	133	5
39	39	5
70	70	3
143	162	2
11	11	8
99	202	1
21	21	2
145	150	1
13	14	4
26	26	8
82	82	3
42	42	5
25	25	5
113	113	6
140	140	3
138	140	1
162	185	1
175	175	8
130	130	3
147	180	1
38	38	4
221	221	4
4	6	1
32	43	1
224	224	3
174	174	6
28	48	1
10	10	10
145	145	4
1	1	2
21	22	3
123	123	4
88	201	1
118	118	1
159	159	8
29	29	3
9	9	8
119	119	7
137	137	4
210	210	6
34	35	1
238	238	2
55	109	1
180	180	9
195	195	5
173	173	7
8	12	2
62	62	3
7	7	5
152	152	8
178	178	8
237	237	2
5	5	3
181	181	4
3	6	1
37	37	6
13	13	4
106	106	6
44	44	6
153	188	2
45	45	4
122	136	3
169	180	1
158	217	1
164	165	5
82	84	1
103	157	2
55	56	3
149	151	4
3	3	7
129	130	2
142	144	1
72	72	2
155	155	4
108	108	2
154	155	4
36	36	4
2	31	1
174	177	2
69	70	2
83	83	4
27	27	5
164	164	1
177	178	1
20	40	1
12	16	4
170	170	5
136	153	1
145	146	4
51	54	1
232	232	5
0	0	2
20	20	10
156	156	6
53	53	4
48	78	1
15	16	5
1	49	1
236	236	3
217	217	7
7	8	2
171	188	1
64	65	2
146	146	4
202	203	4
152	169	1
217	230	2
79	79	11
159	187	1
176	176	6
24	24	6
80	81	5
104	104	3
38	51	1
218	218	9
187	187	6
133	134	2
12	234	1
144	144	6
184	184	5
29	239	1
220	220	7
100	106	2
122	127	2
160	179	1
14	48	1
135	144	2
146	184	1
120	120	3
206	206	2
24	28	1
167	168	4
77	78	1
120	128	1
216	216	5
150	153	3
58	58	4
123	139	1
42	73	1
80	80	3
113	121	1
51	51	3
228	235	1
128	128	4
211	218	1
31	31	5
3	23	1
183	189	1
228	230	1
165	181	2
179	185	1
101	102	1
57	59	1
3	26	1
32	58	1
71	71	6
85	85	3
220	224	1
158	180	1
48	48	7
14	14	3
191	191	5
63	63	4
77	77	4
194	229	1
131	145	1
34	36	1
126	139	1
162	162	5
234	237	3
156	184	1
138	138	5
233	233	2
189	189	1
234	238	1
193	193	3
50	50	1
134	161	1
131	131	2
58	142	1
84	85	1
39	40	2
184	199	1
119	122	1
190	197	1
183	188	1
181	182	3
143	145	1
98	98	2
47	47	4
98	99	1
2	129	1
45	172	1
64	64	7
56	56	2
52	52	5
105	105	5
100	100	1
4	4	3
160	181	1
66	66	2
107	126	1
136	165	1
154	154	4
5	6	1
74	75	4
209	209	3
172	172	6
169	169	10
126	126	4
120	216	1
186	186	3
176	180	1
205	205	3
153	158	1
221	224	1
35	35	4
160	161	1
83	84	2
190	191	2
22	22	3
2	2	5
7	12	1
88	88	4
221	222	2
72	73	3
159	170	1
48	51	1
175	177	1
88	89	1
161	162	3
114	114	1
75	75	6
180	183	1
115	139	1
115	117	2
242	242	4
199	205	2
169	170	2
189	239	1
73	73	5
32	32	4
224	226	1
180	225	1
196	196	3
6	7	1
69	69	7
207	207	3
60	60	4
107	108	1
9	232	1
16	16	7
1	19	1
154	190	1
28	28	2
120	149	1
215	215	1
208	218	1
165	165	6
122	122	3
194	194	1
153	167	1
50	57	1
2	20	1
212	212	3
121	121	3
25	61	1
188	188	7
207	233	1
85	208	1
143	148	1
59	59	4
20	37	1
154	165	2
167	184	1
32	36	1
40	134	3
38	58	3
115	115	6
193	203	1
6	6	5
163	163	5
109	241	1
182	182	6
178	196	1
181	187	1
99	99	2
55	55	4
150	158	1
179	192	2
24	39	1
178	179	3
140	141	2
54	54	2
4	168	1
159	164	1
110	110	2
213	215	1
168	168	5
202	202	3
23	187	1
238	239	1
5	36	1
86	100	1
24	136	1
74	74	4
137	153	2
91	91	1
231	231	5
13	15	1
198	198	3
81	82	2
60	62	2
30	30	5
198	217	1
61	174	1
106	114	2
203	203	3
148	159	1
201	201	4
231	235	1
49	50	3
168	181	1
47	198	1
33	33	6
62	63	2
116	135	1
116	149	1
102	102	5
76	76	6
150	150	7
216	227	1
192	192	5
110	171	1
115	118	5
30	44	1
153	153	4
161	177	1
185	186	2
125	128	1
6	8	1
147	174	1
12	12	6
49	49	5
68	79	2
230	235	1
129	156	1
11	21	1
239	239	10
148	148	2
65	80	1
129	131	1
134	135	1
151	151	7
81	81	3
138	147	3
66	74	1
103	121	3
193	194	1
143	143	4
95	96	2
134	163	1
15	30	1
132	135	1
118	134	1
33	61	1
55	62	1
104	105	1
15	15	5
132	133	1
84	84	2
142	180	2
200	200	2
158	174	1
112	112	1
30	197	1
72	76	1
189	220	1
214	214	1
30	31	2
118	152	1
142	142	4
9	25	2
156	158	2
166	166	7
12	36	1
222	223	1
105	106	1
108	152	1
197	228	1
145	160	1
68	68	6
149	170	2
30	32	1
172	179	1
209	210	1
177	177	3
157	157	5
211	211	2
229	229	2
211	223	1
116	117	1
140	163	1
53	54	3
73	182	1
124	126	1
156	179	1
29	32	1
117	119	2
179	179	4
111	131	1
179	223	1
127	127	7
17	21	1
1	2	1
198	199	1
162	163	4
129	188	1
11	12	2
167	167	2
226	226	4
2	19	1
3	40	1
182	193	1
185	185	1
4	18	1
46	71	1
211	217	1
158	169	1
164	172	1
228	237	1
153	178	1
238	241	2
219	220	1
106	116	1
52	53	1
200	201	1
195	211	1
114	208	1
11	17	2
151	165	2
227	227	3
184	185	6
129	187	1
162	169	1
109	110	1
41	41	5
170	171	1
15	20	1
31	160	1
223	223	4
195	196	1
154	156	1
28	29	1
51	63	1
237	238	2
178	219	1
113	131	1
60	69	1
182	184	1
146	163	1
150	175	1
201	207	1
204	204	1
3	5	3
188	228	1
140	142	1
132	132	1
184	186	2
131	134	1
143	146	1
223	228	2
192	196	1
139	142	3
1	3	1
142	163	1
170	188	2
124	138	1
57	71	1
101	101	6
2	181	1
138	175	1
31	32	3
27	28	1
107	119	1
174	197	1
16	19	1
89	89	2
184	187	2
110	111	1
146	162	2
121	144	1
54	55	1
39	44	1
127	131	1
146	182	1
197	209	1
54	57	1
151	166	1
138	148	1
139	157	1
44	46	1
236	237	1
171	171	5
128	136	1
116	138	1
63	68	1
209	212	1
174	178	2
106	107	1
121	128	2
108	129	1
123	124	2
179	183	1
34	34	6
39	60	1
123	143	1
66	67	1
170	220	1
41	46	1
32	34	1
8	8	2
134	134	5
183	183	3
148	149	1
117	151	1
159	201	1
85	86	1
230	231	2
45	46	3
10	64	1
97	100	1
218	219	1
43	54	1
142	145	1
111	130	1
76	77	1
125	126	1
131	132	1
52	59	1
57	57	2
121	136	1
37	38	4
146	160	1
46	46	2
192	193	1
173	188	1
138	139	1
152	171	1
234	234	2
174	175	2
107	109	1
182	222	1
169	186	1
9	38	1
197	200	1
22	23	2
97	108	1
151	155	2
141	142	1
103	158	1
183	184	1
170	174	1
47	55	1
181	225	1
217	219	1
141	177	1
178	186	1
156	178	1
176	177	1
122	163	1
21	23	1
158	159	2
107	115	1
149	174	1
209	228	1
40	49	1
135	135	2
16	17	2
142	143	1
210	211	1
150	166	1
100	176	1
124	150	2
133	142	3
158	164	1
0	13	1
34	50	2
61	61	1
116	133	1
16	45	1
145	147	1
103	106	1
49	78	1
197	197	2
72	106	1
15	17	1
146	154	1
223	225	2
140	175	1
5	18	1
213	213	1
65	65	1
136	138	1
209	226	1
130	156	1
18	23	2
164	184	1
23	23	2
9	10	1
6	9	1
26	27	1
137	138	1
161	164	2
74	76	2
163	166	1
16	35	1
130	188	1
38	39	2
139	141	1
46	47	1
70	72	1
33	39	1
108	135	1
237	240	1
108	109	1
55	85	1
46	85	1
149	149	1
227	228	2
157	184	1
204	224	2
146	148	1
59	179	1
61	76	1
192	205	1
134	148	1
149	166	2
11	27	1
231	232	1
190	190	2
96	96	1
23	36	1
166	169	1
179	181	1
235	236	1
81	83	2
193	197	1
22	58	1
166	167	2
112	113	1
124	124	3
75	76	2
240	240	1
137	165	1
187	188	1
155	157	1
121	216	1
30	67	1
177	182	1
166	168	1
145	149	1
232	233	1
239	240	2
27	29	2
84	105	1
198	200	2
23	144	1
109	120	1
13	16	1
196	197	1
123	140	1
204	205	1
3	42	1
200	203	1
115	125	1
98	102	1
19	19	1
83	86	1
7	14	1
132	148	1
41	79	1
193	208	1
143	150	1
52	55	1
100	173	1
118	119	1
19	107	1
121	135	1
147	147	2
77	85	1
110	113	1
160	176	1
106	144	1
232	236	1
24	27	1
198	201	1
18	18	1
45	66	1
45	49	1
9	24	2
129	129	2
47	48	1
56	57	1
156	157	2
199	200	1
158	158	2
116	118	1
66	69	1
138	154	1
15	45	1
190	231	1
62	65	1
43	47	2
191	201	1
24	25	1
225	226	1
59	79	1
229	230	2
181	184	1
5	8	1
118	139	1
205	209	1
146	147	1
151	185	1
241	241	1
43	43	1
48	62	1
3	15	1
234	235	1
146	153	1
42	209	1
170	196	1
31	35	1
217	238	1
29	62	1
17	48	1
175	178	1
89	105	1
3	29	1
48	50	1
59	101	1
56	130	1
144	162	1
189	193	1
126	140	1
45	74	1
89	91	1
2	16	1
47	61	1
213	214	1
59	63	1
168	212	1
228	229	1
47	68	1
179	180	1
31	210	1
135	136	1
148	150	1
159	162	1
10	11	1
45	72	1
105	120	1
97	189	1
9	11	1
29	45	1
159	185	1
235	240	1
221	223	1
