53	53	1
114	114	2
30	42	1
71	71	1
35	36	1
102	102	4
46	108	2
13	15	1
80	80	2
136	136	2
43	44	1
77	77	4
38	39	2
72	73	1
37	37	2
53	129	1
129	160	1
16	16	3
141	141	3
164	179	1
140	140	2
100	101	2
158	158	1
145	145	1
78	78	1
61	61	2
2	2	3
5	5	2
76	76	1
45	45	3
62	63	2
115	115	2
101	101	2
87	87	1
87	99	1
66	66	1
141	145	2
81	82	1
24	24	1
115	116	1
18	18	3
48	48	3
39	39	2
28	33	1
28	28	2
107	108	2
18	20	2
10	10	2
4	4	2
168	169	2
80	81	1
13	13	2
184	184	2
22	23	2
19	44	1
127	157	2
18	33	1
122	125	1
148	150	1
185	185	2
140	143	2
111	112	2
185	187	1
155	155	2
123	123	2
153	153	1
43	63	1
142	142	2
169	169	1
1	2	2
112	115	1
27	27	1
128	128	3
86	86	4
56	56	2
112	112	2
147	147	3
8	8	2
92	111	1
158	162	2
120	123	1
34	36	1
126	136	2
175	176	1
45	46	1
126	127	1
88	88	1
158	159	1
149	149	1
28	29	2
182	182	2
131	131	2
181	181	3
79	144	1
82	83	1
131	132	1
75	76	1
188	190	1
165	165	3
154	154	2
63	70	1
2	6	2
68	117	1
32	32	1
121	122	2
109	185	1
37	42	1
111	111	1
137	138	1
130	130	1
151	151	1
173	186	1
124	124	1
2	3	2
167	168	1
79	79	2
8	42	1
97	99	1
59	60	1
11	11	3
104	127	1
183	183	2
48	56	2
75	88	1
148	177	2
87	110	1
104	104	1
82	82	1
21	21	1
67	93	1
55	55	1
16	36	1
141	142	1
132	137	1
161	180	1
184	187	1
14	60	1
117	117	1
58	75	1
3	3	1
84	127	1
65	90	1
157	157	2
177	177	1
182	183	1
10	11	2
127	127	1
157	158	1
68	68	3
121	121	5
29	30	3
18	60	1
39	40	1
0	0	1
139	146	1
12	12	2
70	71	1
77	133	1
58	58	4
150	177	2
83	83	1
27	29	1
31	31	1
135	171	1
167	167	1
15	15	2
155	156	1
5	54	2
6	40	1
80	82	1
156	159	1
158	181	1
84	84	1
109	111	1
144	173	1
38	38	1
91	91	3
152	152	1
183	184	2
110	186	1
19	19	2
147	166	1
78	88	1
93	93	1
108	112	1
108	108	1
22	22	2
58	61	1
128	129	2
62	62	1
134	139	1
17	144	1
94	94	1
129	139	1
180	181	2
177	178	2
16	33	1
73	73	2
148	148	1
172	172	2
18	89	1
67	67	1
30	44	1
56	119	1
164	165	1
143	143	1
37	41	1
54	64	1
29	29	1
176	187	1
29	31	1
57	57	1
175	177	1
31	33	1
115	131	1
165	166	1
176	178	1
166	166	2
20	56	1
40	40	1
122	140	1
99	140	1
79	87	1
135	136	1
186	187	1
139	178	1
69	69	1
138	138	2
189	189	1
17	36	1
96	96	1
1	36	1
166	168	1
91	93	1
23	24	2
159	168	1
116	116	1
119	130	1
54	54	2
123	128	1
31	35	1
33	33	1
47	47	1
79	160	1
85	85	1
35	54	1
179	180	1
172	173	1
90	90	1
20	22	1
120	125	1
39	160	1
33	34	1
113	113	2
167	169	1
97	106	1
172	188	1
187	187	1
134	167	1
34	59	1
149	178	1
100	100	2
141	144	1
176	176	1
116	119	1
118	118	2
60	60	1
140	151	1
168	180	1
63	73	1
165	170	1
35	147	1
119	141	1
110	122	1
34	42	1
178	182	1
78	124	1
31	32	1
17	24	1
74	74	1
105	135	1
75	75	1
134	179	1
112	131	1
63	91	1
65	66	1
175	175	1
67	72	1
22	42	1
120	120	1
56	159	1
16	17	1
134	134	1
