161	162	1
138	138	2
187	187	1
114	114	3
174	174	1
62	62	1
186	186	5
43	43	6
2	2	4
98	99	1
148	153	1
46	46	4
178	179	3
181	181	2
7	7	3
6	8	1
65	65	2
4	4	3
37	37	1
142	193	1
66	69	3
10	10	5
12	12	3
111	111	1
191	191	2
32	33	1
30	30	3
82	82	3
36	37	1
168	168	2
56	56	5
33	33	1
47	47	1
50	50	3
57	57	3
165	167	1
119	150	1
13	13	4
18	24	1
24	24	2
45	45	6
154	154	3
88	88	1
0	22	2
115	115	5
166	166	4
156	191	2
40	40	3
49	49	7
35	36	1
182	183	1
108	108	1
73	76	1
131	141	2
168	169	1
156	156	2
67	67	2
48	49	1
1	1	2
55	56	1
9	169	1
20	20	2
76	76	2
130	191	1
164	179	1
136	186	1
83	83	3
21	21	4
6	6	2
177	178	1
125	125	1
130	130	1
131	169	1
193	193	4
100	100	1
158	181	1
113	113	2
139	139	2
94	94	2
150	150	3
55	113	1
144	144	2
117	139	1
112	113	2
70	70	1
156	157	1
133	182	1
160	160	2
155	166	1
193	194	4
65	72	3
185	185	2
39	39	4
42	42	4
137	137	1
34	34	2
113	114	5
164	164	1
39	70	1
171	171	3
170	170	1
142	142	3
104	104	4
23	23	2
3	4	1
122	122	1
183	183	4
25	26	2
138	141	3
79	86	1
22	22	1
161	161	1
14	15	1
31	31	2
148	149	2
183	186	1
106	143	3
173	173	3
47	48	1
145	152	1
37	38	3
173	174	1
0	0	1
100	160	1
9	10	3
4	5	1
135	135	2
165	165	1
8	8	3
153	185	1
25	25	1
5	5	3
147	147	1
185	186	2
143	165	1
55	59	1
152	153	2
53	60	2
14	17	1
150	152	1
179	180	2
71	72	1
130	131	1
9	9	2
39	43	2
104	109	2
138	184	1
86	86	2
194	194	1
69	69	1
6	179	1
186	187	1
180	180	1
143	146	2
184	185	1
32	32	2
158	178	1
136	136	1
193	195	1
93	95	1
18	27	1
176	177	1
149	149	2
80	86	1
133	144	1
22	23	1
114	116	1
63	63	1
15	15	2
63	149	2
157	157	1
33	37	1
28	28	1
97	97	1
101	101	1
109	110	1
74	74	2
11	11	1
3	3	1
24	25	2
55	65	1
147	148	1
177	177	2
14	14	3
20	21	1
190	191	1
151	151	2
72	72	2
163	163	1
124	124	3
38	38	1
174	175	2
133	138	1
169	169	1
51	51	1
197	197	1
116	118	1
2	3	1
38	44	1
128	128	1
178	178	1
105	105	3
167	167	1
2	4	1
152	152	1
109	109	1
196	197	1
17	17	1
176	176	1
19	19	1
20	22	1
22	25	1
99	99	1
15	16	2
89	90	1
127	127	2
41	41	1
74	75	1
190	190	1
159	191	1
16	16	2
112	112	1
188	188	1
27	28	1
11	12	1
131	132	1
162	165	1
96	96	1
73	75	2
106	106	1
27	27	1
184	184	1
32	39	1
57	100	1
13	14	1
44	44	1
150	197	1
28	30	1
0	20	1
48	48	1
