47	47	3
182	182	6
12	12	3
8	47	1
8	26	1
17	17	2
22	22	5
9	9	9
155	155	1
194	194	2
76	77	1
201	202	2
200	200	2
41	41	4
216	216	4
206	206	4
168	168	6
55	55	4
93	93	2
225	225	6
245	246	1
213	230	1
42	66	2
191	191	2
215	247	1
117	117	3
146	146	3
40	54	1
10	10	4
39	44	2
46	46	2
178	178	3
65	66	2
155	230	1
162	162	7
224	225	3
19	19	3
86	87	1
216	217	3
184	184	1
197	197	5
117	118	2
180	181	2
167	169	3
68	68	4
44	44	4
224	224	4
190	191	1
195	195	1
115	115	6
238	238	3
35	35	2
221	246	2
56	56	3
15	15	2
176	176	1
8	9	3
119	119	3
230	230	1
227	227	2
54	167	1
185	247	1
89	92	1
222	222	3
226	227	3
118	118	10
226	226	3
18	18	4
76	76	2
110	111	1
9	10	1
86	115	2
52	53	2
30	30	3
214	220	1
234	234	4
234	235	1
45	54	1
188	188	2
1	1	1
114	114	1
46	182	1
19	145	1
157	157	2
63	185	2
210	210	2
219	240	1
71	72	2
29	59	1
23	23	4
233	233	1
35	229	1
235	235	3
2	2	4
247	249	2
88	88	3
241	247	1
25	114	1
112	113	1
175	175	2
27	27	4
105	105	2
58	58	2
201	201	1
120	120	1
32	32	6
96	96	3
68	84	1
53	53	4
214	214	1
169	214	1
226	228	1
65	65	2
89	89	1
172	173	2
77	77	1
189	196	1
183	183	5
149	165	1
161	162	2
212	212	6
248	248	1
7	8	2
111	111	6
112	112	1
206	212	1
105	236	1
193	193	3
163	171	3
113	113	4
220	222	2
34	34	3
207	207	5
72	72	1
30	31	2
32	33	2
219	219	4
158	159	2
152	152	3
54	54	3
6	6	1
210	211	2
166	166	1
211	211	3
25	25	2
64	65	1
187	192	2
109	109	5
203	203	2
144	207	1
93	112	1
169	175	1
14	15	1
213	220	1
204	205	1
173	173	4
197	227	1
220	221	4
107	119	1
42	42	3
85	85	5
145	145	1
7	7	2
11	11	5
240	240	5
216	218	1
13	13	1
75	75	1
61	61	3
191	217	2
220	220	3
64	78	1
196	197	2
74	74	1
154	154	1
192	192	2
217	217	1
16	17	2
45	45	4
205	205	3
85	119	2
51	53	2
151	151	1
55	75	2
41	43	2
20	20	2
38	39	3
60	60	1
101	101	2
218	220	1
193	195	1
28	28	1
177	177	3
69	69	1
199	200	1
43	43	3
37	37	3
198	198	1
169	169	1
22	92	1
61	66	1
167	167	1
26	26	4
8	8	2
211	212	2
178	181	1
185	185	4
223	223	2
215	215	3
176	179	1
237	239	1
158	158	2
209	209	2
204	246	2
110	110	2
100	109	1
80	80	3
31	32	1
36	36	3
202	202	1
233	246	1
191	192	2
179	180	1
179	179	2
78	78	2
162	163	1
85	97	1
19	37	1
168	201	1
78	79	1
191	193	1
10	52	2
165	165	2
2	34	1
98	98	1
19	20	3
59	60	2
244	244	1
5	29	3
240	242	1
96	98	1
4	6	1
37	38	1
54	55	3
222	223	2
223	224	1
95	95	1
52	52	1
162	172	1
204	204	5
175	186	1
32	46	1
213	213	1
229	230	1
29	30	2
229	229	3
10	41	1
213	246	1
236	241	1
34	35	1
116	120	1
190	190	5
231	232	1
65	70	1
47	87	1
160	160	2
217	219	1
116	116	2
52	63	1
94	94	1
171	171	1
187	188	1
82	83	2
199	232	2
100	102	2
217	245	1
213	232	1
67	67	1
29	40	1
197	241	2
40	41	1
51	219	1
216	219	1
115	117	1
213	217	1
2	3	2
15	37	1
170	170	2
221	221	3
85	117	1
81	82	1
102	114	1
29	33	1
203	245	1
24	24	2
50	50	3
5	5	1
174	174	1
77	99	1
196	196	1
185	200	1
64	66	1
30	42	1
220	223	1
111	112	1
237	237	3
181	181	1
108	108	1
48	50	1
102	103	1
214	215	1
168	214	1
156	156	1
217	220	2
102	102	1
245	245	2
31	31	2
181	204	1
76	159	1
77	79	1
241	241	1
228	228	1
82	240	1
214	245	1
91	91	2
173	174	1
187	187	1
162	166	1
230	231	1
16	16	2
230	233	1
103	108	1
21	21	2
144	206	1
150	229	1
224	226	1
81	81	3
51	51	2
63	64	1
237	238	1
153	153	1
106	107	1
214	217	1
71	101	1
66	70	1
45	153	1
90	100	2
172	172	1
190	192	1
61	62	1
84	84	2
48	48	2
239	240	1
96	99	1
5	6	1
215	216	1
45	46	1
221	222	1
231	231	2
212	213	1
202	223	1
90	90	1
33	33	2
208	208	1
156	157	1
213	214	2
60	82	1
245	247	1
240	241	1
183	184	1
111	116	1
244	245	1
247	248	1
176	189	1
59	75	1
150	150	1
180	180	1
242	242	1
60	61	1
175	183	1
95	96	1
211	236	1
161	161	1
