113	113	4
88	89	4
26	26	7
81	96	1
66	66	4
139	140	1
123	123	7
103	103	8
109	110	4
87	88	1
50	66	1
3	6	1
54	54	6
51	53	1
92	92	8
75	79	1
87	89	4
72	72	5
42	42	6
15	15	7
29	29	8
97	97	2
49	66	1
118	146	1
85	85	3
126	131	3
106	106	4
110	119	1
12	23	1
76	79	1
14	34	1
82	98	1
25	32	1
141	141	6
109	113	1
11	102	1
104	106	1
57	72	1
73	76	1
17	22	1
25	25	6
124	129	1
39	39	2
19	19	4
117	123	1
142	142	4
115	117	3
95	96	2
34	37	1
109	109	2
125	125	4
75	75	4
58	58	1
112	112	5
67	67	4
57	83	3
22	22	3
48	49	2
98	98	6
92	93	1
74	74	4
30	30	7
128	128	5
54	55	2
136	137	2
51	51	5
47	54	1
27	27	5
35	63	1
68	69	4
135	135	5
91	91	8
14	14	5
118	118	5
20	20	6
119	121	3
49	49	3
122	124	1
105	122	1
89	89	5
65	65	1
9	10	2
32	36	2
17	17	6
117	118	1
55	69	1
23	23	6
18	20	2
116	116	4
76	84	1
52	52	1
86	86	2
24	28	1
15	57	1
3	61	1
124	127	2
48	48	5
96	96	5
35	37	1
62	62	5
47	48	1
36	36	1
69	71	2
67	70	2
2	3	2
17	74	1
38	39	3
69	69	2
31	35	1
83	84	1
69	70	2
5	5	4
132	136	1
87	94	1
63	63	3
104	110	1
25	37	1
84	84	1
12	13	2
105	133	1
80	117	1
12	12	3
57	57	4
59	59	3
19	23	1
145	145	7
95	95	2
138	138	6
99	105	1
21	21	12
98	124	2
37	41	1
80	81	1
136	136	4
96	121	1
56	56	5
0	0	4
120	120	5
58	71	1
51	60	1
2	17	1
140	143	1
64	78	1
110	113	2
83	83	5
18	18	3
137	139	2
70	86	1
60	62	2
62	70	1
79	79	5
81	81	4
17	42	1
40	40	5
110	110	5
128	129	3
112	118	1
108	108	4
4	19	1
40	66	1
140	140	8
37	37	4
91	94	1
121	138	1
10	21	1
21	22	2
34	34	5
24	82	1
71	76	1
35	36	3
3	3	2
74	75	1
16	16	9
10	11	2
131	134	3
130	130	2
120	123	2
32	70	1
87	87	4
97	121	1
95	99	1
133	135	3
50	69	1
13	13	2
133	133	5
111	112	1
104	116	1
64	64	2
13	24	1
38	38	7
68	68	5
0	41	1
75	77	2
18	39	1
90	90	4
102	109	2
104	124	2
63	64	1
105	106	3
8	28	1
24	24	1
53	53	2
81	94	1
96	134	1
132	133	1
81	82	1
6	6	9
71	71	6
73	85	1
76	77	2
10	103	1
8	8	4
91	93	1
94	94	9
56	78	1
43	134	2
79	138	1
143	144	1
42	70	2
124	141	1
126	138	2
61	62	1
17	28	1
131	131	1
82	82	4
40	63	1
55	55	4
93	94	1
55	56	2
121	139	1
8	11	1
47	47	6
11	11	3
114	114	5
124	125	4
119	119	7
68	128	1
41	41	6
101	101	8
112	113	3
107	107	4
102	103	2
3	4	2
51	52	1
129	130	3
99	99	6
84	92	1
47	57	1
36	90	1
1	96	1
82	84	1
129	129	10
36	89	1
0	68	1
54	74	1
61	61	5
50	50	1
73	75	1
104	104	5
49	50	2
120	121	4
93	93	4
39	42	1
32	55	1
43	43	1
77	77	3
121	121	4
66	108	1
84	85	1
64	66	1
124	124	10
119	123	1
115	116	1
67	68	1
23	40	1
73	74	2
11	26	1
13	14	2
130	134	3
22	28	1
133	140	3
4	6	1
25	29	1
74	92	1
80	80	3
97	98	1
97	103	1
106	107	2
4	4	1
62	63	1
2	6	1
121	122	1
18	19	3
9	11	1
0	32	1
118	130	1
0	2	1
73	73	2
60	60	4
110	132	1
31	32	1
108	114	1
63	65	1
68	71	1
35	35	7
89	90	2
75	78	2
143	143	5
25	31	3
30	32	1
82	83	2
117	117	8
3	81	1
131	132	4
93	131	1
87	90	3
103	118	1
69	75	1
28	28	3
2	2	4
13	76	1
9	9	4
38	49	1
112	119	3
63	69	2
86	117	1
18	43	1
126	126	4
76	76	4
130	141	3
104	105	1
145	146	2
59	61	1
67	71	1
60	63	1
94	97	2
14	23	1
110	135	1
71	75	1
78	78	2
79	80	1
5	14	1
144	144	2
78	79	2
39	40	1
110	112	1
32	32	5
57	58	1
22	23	2
47	49	1
38	42	2
2	25	1
106	140	1
111	113	1
105	105	1
14	30	1
119	120	2
141	142	2
15	17	1
137	137	2
13	16	1
114	117	1
72	73	1
114	139	1
90	94	1
132	132	2
100	104	1
21	120	1
13	15	1
65	67	1
91	92	1
88	88	2
57	75	1
95	98	1
50	54	1
53	67	1
61	63	1
108	121	1
93	98	1
118	120	1
6	95	1
126	140	1
35	54	1
42	56	2
49	61	1
33	35	1
37	146	2
36	132	1
50	52	1
69	76	1
9	30	1
25	33	1
4	5	1
14	39	1
38	47	1
134	137	1
104	122	1
36	47	1
67	108	2
49	53	1
43	60	1
139	139	3
36	37	1
43	68	1
53	55	1
134	134	2
79	88	1
23	39	1
17	20	1
60	72	1
33	33	4
19	29	1
122	122	2
138	145	1
4	46	1
29	59	1
25	89	1
50	56	1
66	67	1
107	111	1
23	41	1
26	74	1
21	37	1
124	126	1
43	61	1
102	102	2
27	28	1
25	27	2
121	123	1
24	35	1
42	48	1
15	33	2
49	52	1
115	115	2
73	84	1
19	24	1
38	40	1
123	124	1
71	72	1
28	43	1
100	102	1
51	54	1
75	76	1
41	56	1
64	83	1
77	78	1
111	111	2
39	41	2
27	64	1
76	99	1
82	85	1
127	133	1
66	71	1
41	42	1
70	84	1
64	105	1
77	79	1
103	128	2
125	131	2
72	75	1
42	67	1
96	97	2
118	133	1
46	47	1
93	136	1
113	117	1
31	31	1
136	138	1
27	82	1
41	67	1
128	130	1
99	100	1
1	18	1
50	71	1
127	127	1
2	26	1
18	55	1
37	54	1
33	37	1
65	82	1
113	135	1
105	116	1
31	33	1
127	128	1
18	47	1
110	111	1
117	129	1
83	89	1
98	129	1
72	76	1
1	1	1
53	54	1
15	18	1
114	118	1
118	119	1
33	34	1
110	138	1
97	104	1
55	76	1
