32	32	17
98	98	4
182	182	7
33	34	3
29	29	4
15	15	5
171	171	4
212	212	8
28	28	13
216	218	3
166	166	3
244	244	3
22	23	3
87	87	5
108	109	4
166	171	1
1	1	5
168	168	7
79	102	1
14	14	6
224	224	3
179	245	1
8	8	9
221	221	2
86	86	4
247	247	8
152	152	5
232	232	7
84	85	2
183	184	4
144	144	1
42	43	5
62	62	8
16	20	2
65	66	1
121	231	1
33	33	7
44	165	1
164	164	6
16	16	11
69	69	3
227	227	6
31	38	1
68	77	1
147	147	4
185	196	1
165	165	9
19	19	11
88	88	5
69	90	1
183	212	2
188	190	4
175	175	4
34	34	4
163	164	4
9	9	10
196	196	6
204	204	16
73	73	4
32	34	1
2	3	1
6	182	1
31	34	1
65	65	5
61	61	5
19	35	1
189	189	3
44	110	1
67	67	2
38	39	4
6	6	12
35	35	6
18	18	10
185	186	5
38	38	8
13	13	2
154	155	1
31	32	1
223	223	8
199	199	10
53	110	1
171	172	2
44	44	4
110	166	1
40	40	6
166	188	1
174	174	4
24	25	2
11	11	7
22	22	6
40	229	2
180	226	2
202	202	4
181	193	2
235	235	6
17	21	1
37	51	2
114	114	9
220	220	10
71	71	5
233	247	1
194	195	4
206	228	2
56	56	7
27	27	11
160	160	13
211	218	1
208	230	1
94	94	5
43	43	10
230	230	8
226	226	5
179	180	3
12	12	4
113	115	1
205	205	8
189	190	1
43	44	2
14	15	2
6	9	1
7	7	8
159	159	7
187	188	4
171	173	4
195	198	1
88	116	1
145	145	2
10	10	7
192	197	1
165	222	1
175	246	1
162	162	4
218	218	5
187	191	1
112	112	8
186	186	4
119	119	8
192	192	5
232	233	2
170	171	1
210	240	1
95	96	3
99	99	4
117	117	8
70	70	3
85	85	3
182	192	2
42	42	4
57	57	6
213	213	10
234	234	8
212	227	3
111	111	9
197	200	1
187	189	3
195	196	1
82	82	4
112	116	1
8	9	2
34	50	1
75	77	1
209	238	2
240	241	1
151	151	5
218	220	2
20	20	14
44	45	1
113	113	4
188	189	3
179	229	1
118	119	1
243	243	3
157	157	6
68	92	1
1	14	1
3	3	7
241	241	6
192	193	5
45	78	1
102	102	4
177	177	11
52	52	6
186	189	1
4	4	12
45	45	4
46	46	11
79	81	3
30	30	8
163	163	7
54	55	3
160	168	1
5	9	2
84	84	5
179	219	1
102	120	1
29	30	3
211	211	6
23	172	1
161	161	4
64	64	3
187	187	4
228	228	9
2	225	1
107	107	6
116	117	3
229	230	4
226	246	2
200	200	4
98	117	2
174	184	1
97	97	1
178	178	5
150	155	2
57	58	3
75	76	2
167	167	8
102	103	4
237	237	15
158	158	5
25	25	6
4	5	2
225	225	8
232	238	1
115	116	3
198	198	8
243	245	1
204	205	3
172	172	9
201	201	6
81	82	2
190	190	2
208	209	3
31	31	3
23	23	11
46	61	1
109	109	4
231	231	6
17	17	7
55	67	1
15	27	1
78	108	1
175	176	1
54	54	8
245	245	12
61	62	1
66	66	5
24	24	7
85	93	2
184	196	2
69	82	1
90	91	1
76	76	1
230	231	2
109	112	1
154	160	1
2	2	4
95	95	2
45	54	1
55	75	1
168	198	1
33	180	1
150	150	7
41	41	7
219	219	2
26	27	4
91	91	5
56	59	1
9	10	3
93	93	6
60	60	5
72	73	2
58	58	4
200	225	1
45	53	1
1	2	1
173	193	1
195	195	5
65	68	1
34	35	1
106	106	2
115	115	4
49	49	9
184	184	8
107	108	3
155	155	8
49	70	1
236	236	5
90	90	4
51	53	1
207	230	1
10	26	1
89	90	3
172	176	1
145	207	1
170	170	6
83	83	1
182	183	1
173	174	1
72	75	1
229	245	1
11	26	1
194	194	5
209	209	5
92	94	1
207	207	2
105	105	1
185	185	5
176	176	3
80	80	2
193	198	2
10	15	1
0	0	1
146	146	1
215	215	2
202	231	2
239	239	6
180	180	10
166	208	1
219	222	1
222	222	8
172	173	3
36	36	5
156	156	6
179	179	4
6	7	4
68	68	3
231	234	1
92	92	5
60	62	1
104	104	3
248	248	5
113	117	1
120	120	2
43	52	1
229	229	5
110	110	3
76	78	3
52	119	1
47	47	7
210	216	1
218	219	1
80	105	1
206	206	4
51	51	7
72	72	5
47	85	1
10	155	1
11	55	1
174	235	1
45	66	1
180	207	1
11	12	2
153	154	2
74	74	2
209	210	1
103	104	1
201	211	1
5	185	1
194	223	2
202	203	1
12	15	2
21	21	7
50	51	1
109	110	2
180	181	2
188	188	2
17	25	1
80	82	1
80	81	2
68	73	1
210	225	1
57	64	1
210	210	5
5	47	1
96	221	1
176	177	2
81	85	1
27	28	1
101	101	2
215	219	1
35	38	1
70	88	1
215	217	2
62	82	1
53	53	2
160	231	1
109	111	2
25	26	2
243	244	2
242	242	4
89	212	1
21	22	2
196	214	1
49	51	2
26	26	5
173	176	1
228	236	1
5	104	1
196	199	1
146	147	1
177	178	2
193	193	4
2	32	1
173	173	3
154	154	6
93	110	1
171	185	2
16	33	1
37	37	4
208	208	3
184	185	1
201	202	2
220	246	1
239	240	3
194	209	1
208	247	1
237	242	1
37	53	1
171	211	1
56	57	1
191	191	2
151	214	2
33	110	1
162	163	2
111	112	1
68	93	1
6	54	1
61	212	1
100	109	2
59	59	2
216	216	6
238	239	1
30	31	3
111	120	1
190	192	1
29	32	2
193	194	1
187	192	1
39	39	4
186	190	1
41	44	1
79	99	1
48	248	1
55	168	1
92	174	1
30	116	1
233	234	2
42	112	1
58	60	3
235	240	2
189	199	2
104	108	1
48	69	1
183	193	1
49	50	4
58	79	1
73	74	3
40	207	1
68	70	1
96	96	5
97	99	1
70	71	2
104	107	1
44	246	1
245	246	3
41	42	2
75	99	1
113	152	2
171	205	1
103	103	1
181	181	4
187	194	1
25	161	1
81	83	1
216	217	1
200	201	1
200	204	1
14	248	1
48	48	6
63	74	1
197	197	3
234	247	1
208	213	1
208	248	1
58	59	1
169	169	2
32	52	1
203	203	10
105	106	1
62	64	2
49	56	1
45	46	2
158	180	1
175	177	1
114	202	1
194	219	2
116	116	3
203	204	2
23	24	1
50	75	1
241	243	1
178	209	1
78	84	1
13	14	1
207	212	2
61	63	1
214	216	1
222	224	1
87	119	1
102	105	1
157	161	1
160	180	1
18	23	1
217	239	1
149	168	1
179	216	1
93	117	1
63	63	6
183	183	4
182	195	1
89	89	2
156	157	1
58	179	2
87	94	1
86	213	1
35	37	2
150	151	2
35	39	1
186	187	1
55	55	3
39	174	1
78	81	1
190	193	1
232	247	1
47	95	1
246	246	2
71	73	1
118	118	5
204	227	1
155	203	1
75	75	2
68	69	2
167	242	1
235	242	1
108	108	2
8	10	1
171	179	1
42	232	1
78	80	2
32	33	2
92	93	1
36	37	2
183	195	1
4	49	1
212	225	1
5	5	3
214	214	3
104	106	1
5	34	1
100	100	1
165	168	2
160	165	1
7	12	1
69	70	2
76	77	1
176	197	1
153	153	5
53	229	1
172	174	1
58	185	1
50	50	2
93	94	3
154	225	1
92	110	1
105	107	1
114	116	1
60	61	1
155	160	1
50	73	1
46	147	1
96	238	1
233	233	3
38	41	1
77	80	1
208	220	1
116	118	1
77	99	1
167	179	1
201	233	1
40	41	1
101	226	1
85	87	1
240	240	3
151	153	1
163	170	1
220	240	1
52	68	2
114	120	1
91	92	2
69	79	1
156	163	1
234	235	1
246	247	2
97	98	2
64	67	1
180	200	3
182	212	1
67	174	1
171	214	1
198	199	2
18	19	1
156	201	1
221	245	1
217	217	3
8	152	1
19	20	2
28	32	1
168	169	1
165	186	1
167	171	1
176	190	1
165	166	2
71	72	1
150	161	1
162	165	1
228	229	1
45	77	1
114	115	1
16	27	1
96	97	1
209	221	1
218	221	1
77	77	2
169	216	1
59	60	1
247	248	1
53	54	1
111	117	1
71	75	1
167	168	1
157	201	1
86	189	1
3	6	1
3	37	1
228	231	1
69	77	1
78	197	1
62	78	1
40	117	1
8	31	1
156	181	1
188	209	1
191	244	1
14	18	1
193	195	1
174	185	1
185	200	1
236	237	1
59	245	1
104	105	2
193	197	1
169	184	1
241	246	1
79	82	1
14	17	1
49	83	1
90	144	1
197	198	3
215	216	1
116	151	1
40	54	1
144	145	1
57	214	1
89	99	1
2	235	1
214	219	1
235	243	1
192	207	1
47	150	1
190	191	1
43	207	1
109	167	1
194	196	1
36	207	1
119	120	1
71	74	1
111	179	1
220	237	1
31	45	1
94	175	1
85	86	1
211	212	1
43	46	1
217	218	1
69	219	1
64	111	1
86	88	1
48	50	1
16	39	2
32	169	1
166	175	1
53	65	1
188	192	1
45	109	1
214	215	1
26	46	1
160	161	1
47	48	1
68	87	1
224	235	1
