5	168	1
133	133	3
24	24	5
15	16	2
134	134	2
161	161	3
110	110	6
1	1	5
127	127	1
138	138	5
46	46	8
1	2	1
83	83	2
152	152	3
16	16	3
26	27	1
8	48	1
106	106	1
41	41	2
52	84	1
113	114	1
64	64	2
147	148	3
159	159	2
144	144	2
57	57	4
26	26	5
21	21	1
10	12	1
160	160	1
99	99	3
10	11	5
90	90	2
25	25	4
17	24	3
124	124	2
156	156	4
36	36	2
120	121	2
72	74	2
153	153	2
19	20	2
4	13	1
27	27	2
87	98	1
108	108	2
151	153	3
75	84	2
14	15	4
34	34	4
146	146	2
87	87	3
73	83	1
38	38	7
132	141	1
35	35	1
0	0	4
98	99	2
43	45	1
166	166	1
14	14	4
163	163	2
84	85	2
16	27	1
5	5	4
15	15	6
39	40	3
158	158	3
45	45	4
119	119	4
54	79	1
84	84	8
143	143	3
39	39	5
85	85	2
132	132	3
145	145	2
51	51	1
114	115	1
42	43	1
126	126	3
137	137	2
108	111	2
151	151	3
117	121	1
50	50	1
3	3	6
17	18	1
150	150	3
136	136	2
138	140	1
36	37	2
49	49	3
13	13	3
135	160	2
20	20	2
118	118	4
98	98	3
76	76	1
54	54	3
123	123	3
20	50	1
155	167	1
73	73	3
97	97	2
169	170	1
12	12	3
139	143	1
165	165	3
5	11	1
118	119	1
86	88	1
147	147	2
37	37	5
81	117	1
11	18	1
64	65	2
52	52	2
157	157	2
114	116	2
88	89	3
88	88	2
149	149	3
43	44	1
167	167	5
140	143	1
148	148	3
16	17	3
44	45	1
163	164	3
154	155	1
89	111	1
145	146	2
141	142	1
107	107	3
8	8	3
76	77	1
65	65	2
82	125	1
50	51	1
81	84	2
37	38	1
139	139	6
155	155	3
56	56	3
164	166	1
150	151	1
44	44	3
127	130	1
138	148	1
112	112	2
126	127	1
72	72	1
47	48	1
145	153	1
49	73	1
95	95	2
67	67	1
120	120	2
42	42	4
169	169	1
120	165	1
3	4	1
144	162	1
164	165	1
6	6	3
25	38	1
16	50	2
148	149	1
87	125	1
85	86	2
121	121	1
92	92	1
48	49	2
170	170	1
166	167	1
128	128	2
86	86	2
105	105	3
44	136	1
82	82	1
7	7	2
154	156	1
0	28	2
17	25	1
115	115	1
125	125	1
96	97	1
106	112	1
158	159	3
17	17	3
142	145	1
43	43	4
18	18	2
142	142	4
141	141	2
137	159	1
149	157	1
92	93	2
91	108	1
107	108	2
80	80	1
149	169	1
125	126	2
74	82	1
101	101	1
23	23	1
4	4	2
67	70	1
77	78	1
117	120	1
114	114	1
65	67	2
103	103	2
10	10	4
11	11	3
26	28	1
47	97	1
141	152	1
135	135	1
47	47	2
156	157	1
87	88	1
54	58	1
22	23	2
117	119	1
117	117	2
122	153	1
71	71	1
63	63	1
69	69	2
64	70	1
78	78	1
38	39	1
146	163	1
41	90	1
41	111	1
9	9	1
4	5	1
132	133	1
89	90	1
55	55	1
25	26	1
17	50	1
123	124	1
53	53	1
147	159	1
122	124	1
19	19	1
90	136	1
82	124	1
45	46	1
22	24	1
64	85	1
162	165	1
154	154	1
117	118	2
74	76	1
45	50	1
162	162	1
135	136	3
144	156	1
142	146	1
108	109	1
79	84	1
40	41	1
81	81	1
22	22	1
0	1	1
50	56	1
14	109	1
1	3	2
79	80	1
88	121	1
103	104	1
4	11	1
86	97	1
162	163	1
105	106	1
2	2	1
83	138	1
33	33	1
