86	87	4
185	185	3
33	33	3
131	131	1
130	130	6
108	109	1
153	154	1
88	88	2
189	189	2
8	8	7
78	78	6
175	176	1
5	8	2
69	70	1
66	70	1
30	32	4
180	180	2
75	75	2
5	42	1
185	186	3
83	113	1
84	84	1
87	96	1
102	102	2
66	66	3
124	124	4
15	15	2
93	94	2
48	48	3
167	168	2
57	57	2
186	186	4
99	99	6
157	158	5
26	26	5
54	55	1
55	55	7
110	170	1
188	189	2
117	119	1
104	104	2
106	119	2
85	85	3
90	90	5
143	143	3
135	137	1
150	150	2
127	140	1
0	2	1
3	5	2
109	109	5
4	8	2
47	144	1
107	108	1
125	167	1
170	183	3
73	73	1
107	107	7
123	123	4
140	153	2
165	168	1
186	187	2
17	17	5
68	71	1
187	188	2
153	153	4
64	89	1
77	77	3
72	94	1
159	160	2
80	110	1
77	187	1
184	184	4
58	79	2
32	33	1
144	145	3
82	142	2
154	160	1
177	177	4
39	83	2
117	118	1
43	43	4
155	155	7
110	110	5
64	65	2
63	63	5
25	26	2
61	61	2
179	181	3
45	45	3
2	2	4
39	79	1
179	182	1
7	40	1
163	163	5
36	36	2
157	157	1
98	98	2
135	136	1
20	29	1
70	71	1
30	31	2
179	180	2
101	102	1
18	20	3
96	97	4
97	98	2
173	174	1
169	169	3
20	20	2
27	28	1
16	16	3
111	112	1
0	0	4
40	64	1
9	9	3
24	26	1
52	53	2
71	72	2
188	188	6
140	140	7
117	117	3
18	34	2
113	113	3
87	89	1
6	6	5
36	37	5
105	164	1
47	47	3
92	92	2
9	26	2
38	38	4
21	21	5
116	116	1
76	110	2
26	32	1
38	39	1
65	66	2
29	30	2
171	171	5
73	74	5
6	7	3
123	152	2
5	6	3
13	15	2
165	165	5
180	181	1
55	57	1
7	7	3
59	59	3
54	54	1
154	154	3
95	142	1
163	179	1
14	15	2
76	76	4
100	100	4
106	122	1
64	75	1
44	45	1
139	139	3
43	68	2
13	81	1
22	22	3
7	25	1
71	82	2
142	142	1
60	61	1
144	144	2
97	97	3
15	17	3
59	61	1
81	81	5
190	190	2
95	95	3
0	1	1
31	46	1
12	45	1
99	138	1
170	170	3
62	64	2
121	130	2
37	52	2
17	26	2
125	128	1
74	74	3
181	182	1
84	85	1
147	165	1
37	37	4
127	127	4
176	176	2
145	148	1
164	164	3
80	80	4
61	63	1
86	86	2
68	68	4
27	30	1
33	88	1
157	161	2
3	3	2
170	173	2
115	115	1
60	60	3
104	115	1
140	186	3
49	49	2
140	141	2
113	131	1
143	145	1
28	28	1
71	77	1
172	172	2
183	183	2
27	27	2
162	162	2
59	60	1
141	141	1
111	111	2
122	151	1
35	35	3
100	104	1
148	148	2
25	25	2
19	19	4
146	147	1
63	94	2
181	181	2
88	113	1
24	25	2
39	77	1
44	44	2
167	167	2
174	174	3
160	160	2
23	23	1
75	76	1
79	79	3
186	188	1
112	141	1
5	5	1
52	52	1
140	148	1
58	58	3
8	145	1
26	57	1
91	91	2
89	89	1
122	122	1
16	40	1
27	31	1
126	127	1
149	149	4
110	111	1
130	131	1
145	145	2
82	83	2
141	155	1
137	137	2
146	146	2
13	13	2
42	47	2
66	86	2
18	30	1
151	151	2
120	144	1
144	155	1
29	47	1
81	96	1
128	128	4
82	82	2
166	166	1
82	107	1
140	175	1
160	162	1
72	72	1
103	104	1
116	117	1
175	177	1
39	39	2
121	142	1
56	56	3
136	136	1
22	23	1
71	71	3
122	125	1
114	127	1
102	138	1
41	42	2
89	116	1
128	173	1
107	111	1
165	183	2
173	173	2
137	150	1
88	100	1
138	138	1
99	100	2
129	129	1
123	130	1
14	22	1
87	87	3
121	121	2
123	175	1
10	10	2
75	100	1
178	181	1
40	40	2
74	87	1
108	117	1
10	24	1
126	177	1
142	143	1
12	12	3
189	190	2
39	81	1
53	65	1
84	89	1
152	152	1
11	21	1
31	31	1
61	97	1
22	24	1
106	106	3
95	100	1
4	140	1
134	135	1
39	40	2
148	163	1
71	73	1
141	142	1
156	179	1
34	36	2
100	108	1
146	148	1
176	177	1
46	46	2
30	30	2
57	58	1
114	114	4
120	125	2
130	136	1
58	59	1
187	187	2
44	82	1
179	179	3
62	62	1
67	67	1
129	176	1
182	182	1
10	11	2
24	24	1
42	74	1
13	14	1
55	56	1
8	25	1
42	68	1
136	137	1
90	95	2
137	138	1
174	183	1
168	168	2
2	110	1
79	81	1
166	183	1
139	152	1
126	126	1
151	153	1
128	129	1
159	159	1
64	64	1
14	26	1
33	34	1
57	62	1
158	167	1
45	47	1
34	34	1
108	108	1
170	176	1
100	113	1
10	12	1
64	86	1
4	4	1
155	156	3
13	150	1
120	120	1
12	16	1
172	178	1
28	72	1
81	83	1
49	78	1
125	125	1
102	143	1
12	22	1
130	134	1
157	173	1
18	177	1
172	183	1
16	17	1
42	42	1
133	134	2
112	112	1
32	32	1
97	99	1
9	10	1
14	14	2
165	166	2
11	11	1
41	41	1
80	81	1
89	90	1
130	135	1
105	113	1
162	163	1
91	94	1
139	140	1
87	99	1
135	135	1
89	127	1
100	146	1
147	147	1
73	75	1
