237	237	2
243	243	5
171	172	1
83	83	2
172	172	3
197	198	1
171	198	1
59	59	5
155	161	1
159	170	1
191	191	5
225	225	3
154	154	3
205	205	3
117	117	3
246	246	3
1	37	1
28	33	1
218	220	2
155	155	5
176	176	1
178	178	2
41	41	2
185	185	2
36	36	1
49	50	1
48	49	1
29	29	4
200	200	3
193	193	2
59	60	1
202	203	1
116	116	2
115	115	2
55	76	1
195	195	3
21	21	3
85	85	2
242	247	1
46	46	2
1	1	3
2	3	1
245	245	1
162	162	1
153	153	5
214	215	1
236	236	1
188	188	6
5	5	3
241	243	2
237	247	1
63	63	3
27	27	4
93	101	1
116	117	1
247	249	2
165	165	5
81	81	2
209	210	1
46	47	2
70	71	1
43	43	5
229	229	4
213	214	1
169	171	1
16	16	2
18	18	4
151	151	1
87	87	1
11	11	2
35	35	3
118	118	2
224	225	2
153	155	1
171	171	5
120	120	3
66	66	3
8	9	1
167	167	4
184	187	1
10	10	2
70	70	3
53	53	3
60	61	2
9	9	2
172	173	2
200	208	3
3	3	1
1	23	2
151	153	1
177	177	3
211	211	2
155	162	1
67	67	1
190	190	1
54	54	2
213	213	2
224	224	3
26	26	6
231	231	2
27	175	2
152	152	4
231	242	1
27	28	1
16	26	1
73	95	1
183	202	1
82	82	3
220	221	1
53	230	1
200	219	1
174	174	2
240	241	1
223	223	4
80	80	1
78	83	1
157	157	1
39	40	1
102	102	2
210	210	3
9	11	1
22	22	3
73	73	1
108	120	1
22	23	1
208	208	5
104	104	1
144	145	1
13	13	1
223	245	1
87	88	1
168	200	1
18	19	1
212	212	8
227	227	4
150	202	1
119	119	2
29	30	2
79	82	1
88	88	1
48	48	2
11	54	1
163	164	3
180	180	2
152	153	1
234	234	3
195	211	1
31	31	1
45	45	4
3	4	2
79	79	1
54	55	2
57	57	1
56	56	2
175	175	3
100	100	1
7	7	1
8	8	1
17	51	2
192	196	1
76	76	5
52	53	1
220	220	3
110	110	3
193	194	1
242	242	1
20	20	3
217	217	1
199	199	1
159	159	2
17	17	2
14	14	2
84	98	1
186	189	1
152	162	1
214	214	2
170	216	1
194	196	1
244	244	2
4	4	2
50	50	4
189	190	1
169	170	2
169	169	1
163	179	1
49	49	1
234	237	2
186	187	1
170	171	1
47	47	1
182	182	2
70	75	1
15	16	1
232	232	3
100	162	1
23	23	1
96	97	1
107	107	2
24	25	1
34	34	1
40	40	3
166	166	2
113	113	2
77	77	5
230	230	1
94	94	1
187	187	4
248	248	1
241	241	2
76	97	2
58	58	4
194	194	2
163	163	1
150	150	1
68	68	2
198	225	1
159	191	1
25	27	1
216	216	2
77	85	1
225	226	1
204	204	2
55	55	2
239	239	1
182	183	1
44	44	3
49	51	1
9	36	1
226	226	2
38	38	2
201	201	3
57	59	1
19	20	2
146	146	1
6	6	1
232	233	1
209	209	1
186	186	1
161	161	1
16	92	2
162	166	1
78	78	2
164	164	2
52	52	3
156	156	2
161	162	1
70	78	1
190	191	1
177	198	1
184	184	2
192	192	2
101	101	1
219	220	1
15	15	2
26	27	1
34	112	1
8	10	1
160	160	1
238	238	2
96	96	2
10	11	1
92	92	2
54	100	1
65	66	1
32	32	1
95	95	1
162	163	1
184	230	1
173	173	1
87	92	1
227	228	1
188	190	1
69	69	1
42	42	2
221	244	1
5	219	1
35	152	1
33	112	1
63	65	1
101	117	1
76	219	1
189	189	1
12	12	1
183	183	3
80	81	1
215	215	1
158	158	1
172	191	1
166	202	1
180	229	1
233	234	1
38	39	2
165	166	1
194	230	1
109	109	3
106	107	1
233	241	1
168	168	2
72	72	1
2	2	1
198	198	1
60	60	1
64	64	2
213	221	1
234	246	1
60	63	1
51	51	1
180	222	1
51	55	1
48	174	1
95	168	1
16	224	1
71	71	1
202	202	2
214	220	1
173	174	1
239	240	1
28	28	1
43	45	1
181	181	1
75	76	1
33	34	1
3	224	1
80	84	1
11	23	1
19	19	1
220	223	1
65	68	1
179	180	1
115	119	1
30	31	1
42	234	1
114	202	1
221	222	1
111	111	1
