110	113	3
107	108	3
41	154	1
112	112	7
19	19	4
138	138	7
86	87	3
121	121	1
46	51	1
73	73	3
105	123	1
85	87	1
8	9	2
106	106	6
146	146	4
121	141	1
128	129	1
17	17	8
143	143	6
143	145	1
25	25	3
95	98	1
44	135	1
46	47	2
132	133	4
122	122	7
33	33	4
124	125	3
123	124	4
68	68	3
77	100	1
134	135	3
82	82	4
11	12	3
9	48	1
33	35	1
104	104	3
35	41	1
109	109	2
75	75	6
54	74	1
40	47	1
147	148	4
103	131	1
8	8	6
71	73	3
64	64	1
28	33	1
2	2	1
116	116	4
142	144	4
6	6	3
134	134	3
132	132	5
34	35	1
65	65	6
37	37	2
110	110	3
125	127	3
130	132	1
70	70	3
10	10	4
13	18	1
14	22	1
14	64	1
139	139	2
100	102	3
53	53	5
147	147	7
32	36	3
7	7	4
38	38	4
9	9	4
72	72	2
41	41	4
123	126	2
97	98	1
145	145	3
22	151	3
39	39	6
18	18	3
143	144	1
113	113	3
103	115	1
23	23	6
103	119	2
93	93	1
79	79	4
71	72	2
151	152	4
72	88	2
108	119	2
4	4	4
13	13	7
71	102	2
35	35	3
112	114	1
11	11	7
46	46	1
72	75	2
125	125	2
51	148	1
47	48	1
58	58	2
13	14	1
126	126	1
82	83	2
31	47	2
107	129	1
108	114	3
29	29	3
115	115	3
115	116	3
49	49	3
9	16	1
141	148	1
152	154	2
47	47	3
129	129	7
20	20	2
32	33	2
15	15	2
100	123	1
40	40	1
111	111	1
15	124	4
33	40	1
54	56	1
133	133	4
76	76	2
7	13	1
15	36	2
33	34	2
152	152	1
100	120	1
87	87	1
68	70	2
12	12	5
36	37	1
68	106	2
28	62	1
130	130	7
31	34	2
121	126	4
103	103	1
141	141	6
40	42	1
80	80	2
96	96	4
137	137	3
92	94	3
99	99	1
35	36	3
92	92	1
106	119	1
140	140	1
44	44	4
53	54	3
7	15	1
43	45	4
4	6	2
133	147	1
15	56	1
117	117	2
35	37	2
9	10	2
63	63	4
7	8	1
100	100	2
5	5	2
48	49	2
144	144	3
102	102	3
30	30	3
130	131	2
13	17	1
102	118	1
27	29	1
141	142	1
48	48	3
47	117	1
128	130	3
27	30	1
108	110	2
151	151	3
76	78	1
16	16	4
114	115	1
95	97	1
22	22	2
107	107	1
108	108	2
85	85	1
63	65	1
128	128	2
117	151	1
108	130	1
119	138	1
23	43	1
135	136	2
80	81	2
67	68	3
44	45	2
45	45	4
95	101	1
103	106	1
17	20	1
15	16	4
99	131	1
101	101	2
55	114	1
80	83	1
126	127	1
119	122	1
20	30	1
28	36	1
21	21	1
134	149	1
81	82	1
58	63	1
32	32	4
146	148	2
85	86	2
128	131	1
16	23	1
100	117	1
43	43	2
25	30	1
42	42	4
113	122	1
118	118	4
75	96	1
102	124	1
41	53	1
153	153	4
64	84	1
12	145	1
109	110	3
99	100	2
52	52	2
97	99	1
38	39	5
75	79	1
23	70	1
69	73	1
79	85	2
83	86	2
114	114	1
135	135	4
84	114	1
64	67	1
18	22	1
98	99	2
70	73	2
102	108	1
136	136	1
64	83	1
23	25	1
43	44	2
78	88	2
78	78	1
81	83	1
76	102	1
92	103	1
31	31	2
113	127	1
35	89	1
149	150	1
86	86	4
150	150	1
120	120	1
72	80	2
44	138	1
25	36	1
89	89	1
73	77	1
33	42	1
24	24	5
41	44	1
81	81	1
68	69	3
96	97	1
37	38	1
131	131	3
10	11	1
3	3	1
129	130	2
93	97	1
57	58	2
14	38	1
17	18	1
6	7	1
71	103	1
23	24	2
63	64	3
66	67	5
71	71	3
46	149	1
42	43	1
10	149	1
117	119	1
64	68	1
70	123	2
41	113	1
136	144	1
101	102	1
34	74	1
55	55	1
117	118	1
36	36	1
120	131	1
55	70	1
95	95	2
69	69	2
74	98	1
50	50	3
154	154	1
34	34	1
99	123	1
149	149	3
108	109	1
83	85	1
124	124	4
127	127	3
77	77	1
104	115	1
13	15	2
80	85	1
100	103	1
72	73	1
51	51	2
45	46	2
14	141	1
17	47	1
112	113	1
50	51	1
104	105	1
98	110	1
139	142	2
51	52	1
152	153	1
138	147	1
56	57	1
17	29	1
153	154	1
31	32	1
144	146	1
9	13	1
38	46	1
110	111	1
67	67	2
117	128	2
54	54	1
72	78	1
64	65	1
22	23	1
48	52	1
105	114	1
66	76	1
81	84	1
28	28	1
20	39	1
137	138	1
30	38	1
32	34	1
12	23	1
55	76	1
120	124	1
124	129	1
94	104	1
71	84	2
14	14	1
87	88	1
86	106	1
95	102	1
9	40	1
24	40	1
67	115	1
5	8	1
76	77	1
135	138	1
11	40	1
117	135	1
20	24	1
14	44	2
103	112	1
12	13	1
108	146	1
109	130	1
19	22	1
101	104	1
97	97	2
62	62	2
126	130	1
115	118	1
118	135	1
97	111	1
136	145	1
65	117	1
56	56	2
140	142	1
47	53	1
76	101	1
28	29	1
141	143	1
110	112	1
73	109	1
99	101	1
57	57	1
30	49	1
148	149	1
13	39	1
81	105	1
26	55	1
19	21	1
27	27	1
111	114	1
106	124	1
113	114	1
64	107	1
148	148	1
94	94	1
48	103	1
