87	87	2
113	149	1
152	152	3
175	175	3
129	140	1
103	103	1
111	112	1
86	86	2
143	143	3
26	184	1
134	134	2
39	74	1
12	13	1
39	39	3
165	166	1
7	7	5
21	72	1
16	16	5
119	120	1
24	24	5
82	82	6
39	54	2
89	95	2
170	170	3
160	161	2
56	56	1
164	164	1
36	188	1
40	40	1
23	32	1
84	87	1
84	85	1
73	73	2
130	131	1
142	143	1
136	147	2
118	118	1
152	154	2
183	183	3
72	72	3
133	133	1
3	3	2
6	6	1
70	70	1
150	187	1
110	111	2
10	10	1
113	151	2
181	181	1
149	149	1
101	101	1
169	169	2
131	152	1
12	12	2
123	123	4
167	168	2
41	47	1
38	38	3
13	13	2
44	45	1
76	76	4
48	54	1
10	166	2
39	89	1
113	138	1
47	47	2
140	141	1
88	88	2
21	22	1
24	42	1
110	110	4
113	114	1
80	89	1
68	74	1
83	83	3
178	178	1
44	44	2
133	150	1
65	68	1
9	9	1
91	91	1
95	95	4
37	37	3
28	28	2
122	122	5
34	35	1
148	169	2
121	121	1
74	74	2
8	38	1
129	129	3
14	20	1
90	90	2
174	174	2
106	106	3
35	35	1
84	84	1
135	135	2
31	31	2
104	104	1
100	100	1
189	189	3
178	180	1
132	154	1
184	184	3
126	126	2
95	96	3
144	144	1
179	184	1
92	94	1
5	6	1
58	58	1
3	4	1
125	126	2
48	71	2
46	46	2
30	30	2
114	114	1
80	81	1
155	164	1
113	113	2
77	77	1
17	17	2
142	142	1
109	110	2
123	124	1
18	20	1
41	72	2
57	57	1
133	136	1
24	25	1
24	26	1
119	129	1
116	116	2
110	119	1
63	63	2
8	8	1
157	157	1
79	79	1
111	111	1
96	96	2
15	22	1
140	140	1
143	172	1
146	146	2
121	122	1
14	43	1
22	23	1
14	15	1
184	185	1
174	175	1
33	35	1
153	153	1
29	29	2
186	187	1
30	31	1
26	26	1
41	41	2
25	25	3
147	147	1
81	81	2
109	109	1
10	12	1
175	185	1
115	128	1
92	93	1
85	88	1
182	182	1
0	136	1
18	18	1
125	127	1
185	185	1
20	20	1
54	54	1
2	2	1
107	107	1
40	56	1
100	102	1
163	164	1
136	136	1
39	40	1
74	75	1
17	20	1
34	34	1
80	80	1
61	61	1
177	182	1
120	148	1
151	151	1
23	23	1
98	104	1
4	5	1
39	123	1
128	128	1
11	13	1
106	130	1
152	185	1
81	82	1
77	78	1
55	55	1
94	94	1
94	95	1
53	54	1
108	108	1
82	93	1
172	172	1
36	36	1
133	139	1
7	9	1
172	173	1
0	0	1
22	137	1
179	179	1
39	110	1
131	142	1
53	53	1
92	92	1
112	112	1
99	99	1
126	143	1
28	31	1
119	122	1
102	102	1
85	85	1
85	86	1
15	15	1
56	57	1
38	39	1
111	113	1
