40	40	3
175	175	1
189	190	1
171	188	1
134	134	1
57	57	1
82	82	2
156	156	2
160	160	1
30	30	5
77	77	2
162	162	2
172	172	3
153	153	2
107	107	1
130	130	2
143	143	1
141	153	2
142	143	1
41	69	2
71	71	3
89	89	2
183	183	3
90	90	1
20	20	4
2	16	1
44	50	1
138	147	1
159	159	1
141	141	1
33	33	1
48	48	2
185	195	1
73	74	1
65	65	2
184	184	2
3	3	3
96	96	1
29	29	2
47	47	3
124	156	1
37	37	2
117	137	1
0	0	2
45	45	3
147	159	1
6	22	1
145	146	4
155	156	2
175	178	2
125	156	1
4	12	1
15	15	1
69	69	1
15	16	1
21	21	4
122	122	1
169	169	2
168	176	1
34	35	2
156	159	2
94	94	1
77	83	1
147	147	1
10	10	2
89	116	1
68	79	1
10	17	1
135	135	2
107	133	1
131	133	3
124	129	1
176	177	2
121	127	1
17	17	1
41	41	8
39	39	1
137	137	1
132	133	1
127	127	2
38	38	4
102	105	1
3	14	1
165	165	1
27	28	2
62	63	1
187	187	2
40	65	1
32	38	1
25	25	1
150	161	1
19	23	2
63	63	1
31	97	2
93	96	1
117	117	1
169	170	1
150	150	1
26	26	1
76	76	1
115	121	2
177	177	2
104	105	1
78	78	1
123	124	1
115	115	1
16	16	3
193	193	2
3	181	1
54	55	2
191	192	1
151	151	1
140	140	2
0	1	1
6	6	1
161	161	3
117	154	1
173	176	1
124	124	1
155	155	1
188	188	1
120	120	1
19	19	3
18	18	1
34	34	3
5	11	1
79	95	1
22	23	1
112	157	1
60	61	1
2	18	1
102	104	2
5	26	1
13	13	4
70	70	1
170	170	1
168	168	3
109	110	1
171	171	1
174	176	1
62	62	3
64	65	1
109	111	2
10	11	1
119	161	1
82	86	1
55	56	1
2	158	1
144	147	2
26	28	1
53	73	1
95	95	1
21	23	1
185	187	1
51	51	1
75	75	1
32	33	1
136	136	2
38	69	1
180	181	1
12	20	1
31	31	3
186	186	2
106	106	1
167	167	1
111	117	1
103	106	1
88	90	1
195	195	2
190	190	2
44	44	1
153	154	1
42	42	2
1	1	1
73	76	2
20	22	1
22	24	1
143	145	1
22	22	1
57	128	1
40	41	1
107	113	1
194	194	1
49	155	2
179	186	1
145	166	1
22	64	1
8	11	1
100	115	1
48	129	1
144	144	2
194	195	1
165	166	2
3	4	1
4	4	1
35	35	1
191	191	1
102	133	1
9	9	3
123	123	1
174	175	1
43	43	1
172	178	1
80	80	1
17	18	1
67	67	1
129	133	1
27	40	1
163	163	1
142	142	1
190	191	1
8	8	1
66	66	1
149	151	1
150	157	1
179	179	1
44	46	1
178	187	1
20	32	1
163	166	1
21	68	1
136	165	1
35	54	1
173	173	1
20	66	1
178	178	1
140	152	1
128	135	1
28	29	1
183	184	1
29	64	1
118	118	1
173	175	1
81	88	1
45	52	1
60	84	1
117	118	1
88	89	1
52	52	1
25	26	1
162	164	1
137	167	1
84	102	1
