154	154	4
81	99	1
43	45	1
142	143	1
16	24	1
130	130	6
110	110	3
83	83	1
43	58	1
22	22	2
118	123	1
31	31	1
4	4	1
114	114	6
88	93	1
39	39	3
15	16	3
42	42	4
70	70	1
152	153	2
143	145	2
65	65	1
87	87	2
143	144	3
81	81	2
20	21	1
101	101	3
122	149	1
113	113	2
133	133	2
120	149	1
118	119	1
147	147	2
36	36	1
99	109	1
37	123	1
136	136	6
138	138	5
139	139	1
3	3	2
150	151	2
137	139	1
12	12	3
117	149	2
75	75	1
124	124	4
74	74	3
39	50	1
115	115	3
152	152	4
125	125	3
33	33	4
123	123	1
64	65	4
94	94	5
26	26	1
32	32	4
12	13	1
39	40	2
110	111	1
14	15	2
121	121	3
96	97	1
45	45	5
15	15	3
122	123	2
81	83	3
144	145	2
9	9	3
108	108	4
88	89	1
135	148	3
120	120	1
83	95	1
68	68	3
55	55	2
103	109	1
146	146	2
100	100	3
79	80	1
62	63	1
70	131	2
42	50	1
47	47	2
111	114	1
27	27	3
38	38	1
134	135	1
11	30	1
18	19	1
78	84	1
44	44	1
96	96	2
28	30	1
13	13	5
100	109	2
69	75	1
107	107	2
9	55	1
23	24	1
8	24	2
45	52	2
112	112	3
80	95	1
103	103	2
95	97	1
145	145	2
82	83	2
35	36	1
48	48	2
53	53	3
114	127	1
86	86	2
134	134	1
137	137	3
149	149	7
23	23	4
98	99	1
131	131	1
37	37	2
116	144	1
41	47	3
106	107	1
144	144	4
84	98	1
5	6	2
20	20	3
24	24	2
47	50	1
122	122	4
73	73	2
117	117	1
123	124	1
106	114	1
57	57	2
56	56	3
38	65	1
54	54	4
84	97	1
41	42	2
77	77	1
10	11	1
14	25	1
38	45	1
9	78	1
46	46	3
140	140	1
17	23	1
111	137	1
140	141	1
19	19	5
143	143	1
4	142	1
92	93	1
54	57	1
105	105	3
77	78	1
145	146	2
119	119	1
44	53	1
9	41	1
83	84	1
84	86	1
67	68	2
17	19	1
2	102	1
30	56	1
18	18	2
16	16	1
67	67	1
13	54	1
115	117	1
11	11	2
68	79	1
94	95	1
85	117	1
80	82	1
102	102	2
62	62	1
146	147	1
129	129	4
4	79	1
109	109	1
92	98	1
12	51	1
79	97	1
93	93	2
109	110	3
30	30	1
29	29	1
141	141	1
132	132	2
3	45	1
121	143	1
139	141	1
100	102	1
75	119	2
92	92	2
10	10	4
8	9	1
85	87	1
150	150	2
107	114	1
51	52	1
10	51	1
104	125	1
17	40	1
116	116	1
78	78	1
31	32	1
118	130	1
44	46	1
77	86	1
151	151	2
23	26	1
104	135	1
43	44	1
83	127	1
126	126	2
13	25	1
35	35	1
147	148	1
20	22	1
130	131	1
47	53	1
66	66	1
64	64	1
64	68	1
153	153	1
75	76	1
69	71	1
65	72	1
11	21	1
129	132	1
132	133	2
50	50	1
80	81	1
79	79	2
93	94	1
142	145	1
97	99	1
145	148	1
10	12	1
98	98	2
76	76	1
33	34	3
48	118	1
57	62	1
124	151	1
103	104	1
4	6	1
21	22	1
38	41	1
5	36	1
14	14	1
111	112	1
63	64	1
136	138	3
42	68	1
5	143	1
69	77	1
126	148	1
78	80	1
17	39	1
3	4	1
127	127	1
65	66	1
57	58	1
38	40	1
