174	176	4
19	19	4
0	0	3
157	158	4
87	87	4
151	153	1
152	152	7
168	168	2
140	140	9
118	118	4
24	81	1
130	133	1
40	40	4
112	113	1
52	54	1
153	153	4
143	171	1
170	173	1
173	174	3
146	147	3
172	172	5
171	172	2
37	37	2
57	84	1
15	17	3
44	44	5
124	124	11
56	56	5
166	166	5
140	169	1
27	28	1
145	156	1
187	187	5
78	78	6
91	94	2
36	36	2
149	149	2
118	119	1
20	46	1
159	160	3
68	69	3
180	182	2
132	133	1
12	12	3
131	132	1
122	123	1
140	160	1
27	27	4
153	175	1
34	34	1
188	190	4
4	10	1
105	105	3
92	93	2
74	74	1
14	14	2
180	180	2
145	157	2
62	74	1
127	127	3
58	59	3
164	165	2
71	72	1
84	85	2
17	33	1
159	159	2
96	97	4
163	164	2
8	8	5
94	94	4
115	115	3
57	57	8
125	126	5
90	93	1
105	106	2
172	173	6
29	30	2
25	31	1
124	126	2
136	154	1
100	101	2
110	110	1
166	169	1
128	128	3
22	79	1
151	151	7
144	144	2
57	109	2
164	164	7
45	46	3
153	154	1
154	154	4
147	147	5
2	3	4
30	30	2
104	104	4
136	137	4
44	46	1
126	126	3
178	179	2
177	179	3
183	183	5
109	109	8
107	107	2
4	4	3
75	75	6
2	2	6
126	157	1
70	95	2
59	60	3
108	111	1
36	37	1
170	171	2
15	26	2
53	90	1
2	39	1
17	17	2
71	74	1
84	86	1
32	38	1
93	93	4
162	162	2
96	96	1
6	6	7
114	114	5
6	7	3
81	125	1
130	130	3
103	103	3
65	65	4
3	3	5
9	9	2
28	28	6
122	129	3
16	18	1
19	20	1
188	188	5
155	158	1
15	15	3
42	42	2
88	91	1
181	185	1
72	72	3
10	11	2
123	123	8
28	29	2
14	15	2
77	77	5
16	17	2
177	178	1
113	113	3
153	159	1
125	130	1
158	159	2
21	21	7
87	94	1
77	83	1
83	83	4
99	99	3
80	80	4
89	99	2
131	138	2
68	68	10
22	22	10
138	176	1
81	81	4
47	52	1
176	177	1
4	6	1
13	15	1
122	122	1
18	18	5
110	111	1
53	53	6
38	38	3
124	185	2
115	116	3
184	188	1
10	10	6
26	31	1
84	84	6
73	76	2
62	62	10
31	35	1
97	128	1
79	79	4
32	32	3
180	181	3
18	19	4
97	98	1
109	134	1
52	53	1
88	88	5
161	161	4
11	11	5
184	184	9
176	176	6
79	120	1
185	186	1
25	25	5
116	118	4
100	100	5
13	14	2
95	95	2
166	182	1
166	167	1
58	58	2
187	190	1
119	139	2
163	163	1
155	157	1
76	76	5
186	186	4
179	179	3
26	29	1
136	136	2
62	63	2
148	148	3
64	64	6
18	71	1
11	19	1
158	179	1
34	36	1
139	139	3
53	54	2
185	185	4
67	67	1
56	57	2
54	55	1
63	64	1
52	52	2
48	48	10
184	189	1
58	63	2
70	70	2
121	121	8
70	123	2
31	31	3
186	187	2
73	73	2
116	130	1
82	82	4
20	20	3
129	129	5
29	29	1
26	26	3
161	166	2
103	104	1
142	181	2
110	123	2
145	145	1
5	54	1
143	143	1
64	66	1
181	181	3
101	101	3
119	119	5
39	40	4
66	66	2
108	108	3
90	102	2
84	125	1
141	141	4
91	92	3
161	162	1
108	109	4
113	123	1
106	106	1
12	14	1
109	123	1
15	53	1
150	158	1
141	144	2
138	164	1
10	12	3
169	170	2
86	94	1
88	89	1
90	90	2
26	27	1
189	189	1
110	134	2
74	77	1
40	113	1
46	46	3
164	183	1
35	39	1
99	122	2
123	124	2
139	151	1
66	68	1
53	126	1
183	189	1
79	80	2
54	54	2
131	131	5
60	60	2
57	71	1
71	73	2
82	83	1
104	105	1
115	122	1
134	171	1
57	103	1
5	5	2
71	75	1
120	120	2
165	168	2
72	76	2
88	128	2
34	85	1
135	135	3
75	76	3
122	154	1
4	170	1
138	138	4
6	38	1
73	74	1
20	21	1
21	22	2
132	134	2
190	190	2
13	13	1
127	129	1
93	124	2
182	182	1
61	61	2
169	169	3
30	32	1
82	114	1
98	99	2
63	63	2
122	128	1
61	62	1
170	170	2
35	35	3
24	24	2
28	30	1
16	16	3
135	137	1
83	84	1
141	166	1
146	156	1
156	156	2
30	31	1
86	86	1
10	53	1
178	178	2
96	100	2
145	146	2
150	150	1
156	158	2
124	148	1
117	117	1
146	179	1
134	135	1
85	85	4
9	38	1
140	151	1
158	158	1
122	151	1
22	37	1
130	131	3
86	90	1
1	79	1
157	164	1
178	181	1
141	149	1
46	47	3
59	59	1
173	189	1
114	115	1
43	43	2
59	63	1
35	88	1
47	47	1
171	171	2
103	121	1
92	147	1
29	33	1
27	30	1
155	156	6
17	40	1
55	55	2
9	10	1
43	45	1
23	23	4
137	137	1
133	133	2
141	142	2
175	183	1
148	176	1
82	130	1
92	92	1
35	36	1
17	18	1
129	154	1
88	110	1
97	97	1
55	56	2
154	160	1
182	183	2
142	142	3
111	138	1
15	18	1
28	36	1
121	134	1
109	110	2
58	77	2
41	41	2
22	24	1
173	173	3
173	182	1
124	152	1
10	44	1
109	111	1
42	45	1
39	39	2
7	7	2
87	121	1
67	74	1
151	160	2
69	80	1
167	168	3
11	59	1
71	71	1
132	132	2
15	100	3
139	165	1
1	1	2
90	91	1
129	130	1
123	128	1
80	81	2
125	125	1
87	92	1
27	32	1
116	117	1
147	148	1
144	173	1
56	68	1
128	129	1
31	32	2
35	55	1
22	26	1
63	65	1
101	102	1
166	168	1
134	154	1
179	186	1
89	89	2
162	165	1
114	118	1
116	116	1
53	56	1
56	82	1
152	153	1
58	60	1
39	84	1
122	150	1
120	122	1
175	175	1
61	64	1
89	100	1
107	143	1
134	137	1
114	116	1
176	180	1
141	171	1
61	101	1
8	174	1
135	141	1
81	106	1
54	90	1
87	111	1
13	45	1
91	91	1
178	180	1
149	183	1
175	178	1
7	8	1
124	164	1
133	134	1
102	102	1
134	134	1
96	98	1
146	146	1
77	78	1
5	22	1
54	57	1
147	155	1
169	190	1
40	41	2
167	167	1
108	134	1
165	165	1
80	140	1
30	33	1
173	175	1
11	12	1
112	112	1
12	13	1
130	137	1
127	128	1
174	174	1
