146	146	3
162	162	1
54	54	4
112	112	5
62	62	3
130	131	2
123	124	1
107	107	1
89	95	2
126	149	1
123	123	1
67	67	2
19	19	4
159	162	1
14	25	1
125	125	1
93	103	2
66	67	3
108	113	1
150	151	1
9	11	1
5	5	6
63	64	1
81	85	1
30	30	2
31	31	3
38	38	4
15	15	3
14	37	1
72	72	1
170	170	1
82	83	1
140	140	3
125	128	2
95	95	1
23	24	1
168	168	1
166	167	3
116	119	1
12	12	1
128	161	1
139	139	4
84	84	1
15	16	4
18	43	1
17	18	1
36	36	1
122	122	3
174	179	1
105	105	1
56	94	1
163	163	4
108	109	1
160	160	1
82	82	3
42	42	5
1	168	1
2	149	2
22	24	1
30	31	1
150	150	3
13	61	1
127	129	2
7	7	2
10	14	1
76	76	6
13	13	3
94	117	1
174	174	2
99	100	4
142	142	2
43	44	1
126	130	1
57	57	2
155	155	4
160	161	1
52	54	1
91	91	4
27	27	4
119	121	1
16	27	1
79	81	1
115	116	1
4	4	1
24	38	1
172	172	4
58	58	4
53	55	1
128	128	2
13	14	2
27	29	1
180	180	1
147	147	3
149	149	2
143	143	6
41	41	6
28	40	1
108	108	2
18	19	2
17	17	3
39	39	2
146	147	2
26	27	2
54	94	1
135	135	5
95	102	1
21	22	2
14	14	1
156	156	1
100	100	1
7	8	2
120	125	1
161	162	1
140	141	1
171	171	3
5	24	1
101	105	1
146	162	1
89	90	2
144	146	1
104	105	1
24	24	2
51	51	3
8	8	3
129	129	3
158	159	1
172	173	3
178	178	2
101	101	2
131	132	1
16	36	2
18	18	6
57	58	1
94	118	1
153	154	1
96	96	1
137	137	2
94	94	1
124	125	1
22	42	1
5	6	2
10	11	1
92	92	4
28	29	2
73	73	1
167	167	2
22	23	3
51	52	1
5	34	1
53	53	3
33	33	7
157	157	2
2	2	2
120	121	1
43	61	1
50	62	1
66	66	2
129	152	1
50	50	2
121	121	1
137	172	2
73	77	1
16	16	2
65	66	4
123	125	1
124	145	1
58	91	1
98	101	1
127	128	1
44	44	1
10	10	1
16	35	1
96	97	1
34	36	1
11	12	1
44	45	1
127	127	1
45	45	1
28	28	3
32	32	2
29	29	2
68	72	1
91	92	1
9	9	2
117	117	1
113	113	2
64	85	1
106	113	1
142	145	1
115	115	2
72	73	2
159	159	1
28	58	1
13	24	1
98	100	1
153	153	2
94	111	1
76	77	1
138	138	4
173	174	1
27	56	1
144	163	1
136	136	1
83	83	2
134	134	1
97	98	1
79	80	1
106	106	1
1	1	2
21	21	1
164	165	1
132	133	1
96	153	1
0	0	2
20	23	1
36	37	1
62	63	1
154	154	1
103	103	1
65	65	1
84	85	1
3	144	1
64	64	2
179	179	1
179	180	1
135	136	1
121	157	1
10	65	1
77	78	1
37	38	1
176	176	1
111	111	1
120	120	1
173	173	3
23	23	1
74	74	1
103	151	1
8	13	2
20	20	1
111	121	1
163	168	1
12	13	2
85	87	1
169	169	2
81	81	1
131	131	1
132	132	1
17	19	1
64	67	1
90	91	1
125	126	1
87	87	1
27	58	1
6	6	1
132	134	1
6	7	1
151	151	1
155	157	1
129	131	1
93	93	1
7	13	1
