140	140	3
104	105	1
127	128	3
113	113	1
15	15	1
104	104	2
52	52	2
15	45	1
92	92	2
132	132	2
163	170	1
170	170	3
98	107	1
65	67	1
95	95	2
71	71	4
57	61	1
21	23	1
112	112	6
104	106	2
12	13	1
112	114	1
4	4	5
110	129	1
127	127	3
85	85	2
155	155	1
111	119	1
36	37	1
38	38	1
142	142	2
44	44	2
13	14	1
171	173	1
5	30	1
66	66	2
130	134	1
8	8	2
148	159	1
111	111	1
166	166	1
60	81	1
91	91	1
123	123	3
99	100	1
146	148	1
166	167	1
7	7	1
144	145	3
58	58	2
3	4	2
103	103	1
135	135	3
141	142	3
2	17	1
130	147	1
32	33	4
151	151	1
163	163	1
3	6	1
169	171	1
172	172	1
49	59	1
115	118	1
99	99	1
94	94	1
124	124	2
156	156	1
7	38	1
141	175	1
34	34	4
9	9	4
57	57	2
140	163	1
10	14	1
88	90	1
43	44	1
108	108	2
71	72	2
17	17	1
42	42	2
148	148	1
11	13	1
126	126	2
179	180	1
137	137	4
79	79	1
90	94	1
66	88	1
154	154	1
40	40	1
107	110	1
23	23	2
37	37	1
128	128	3
122	122	3
50	50	3
35	35	3
86	89	1
75	104	1
130	136	1
169	170	1
97	115	1
39	39	2
153	153	3
54	75	1
1	1	3
65	65	1
163	164	1
133	133	3
14	27	1
92	125	1
52	56	1
36	36	1
117	123	1
148	149	2
159	159	4
73	79	1
143	143	2
103	124	1
90	91	1
137	173	2
54	54	1
139	140	1
28	36	1
44	53	1
110	110	2
101	102	1
95	126	1
174	174	1
97	97	2
108	131	1
74	74	1
12	12	3
103	135	1
117	118	1
164	164	1
121	121	1
0	137	1
24	25	1
89	125	1
27	27	1
67	67	3
101	101	2
11	17	1
13	13	1
55	55	1
0	0	1
180	180	1
30	30	1
159	162	1
106	107	1
39	40	1
31	31	2
106	106	2
18	34	1
90	90	2
96	107	1
144	144	1
127	146	1
94	106	1
161	161	1
102	105	2
7	15	1
125	145	2
112	113	1
24	24	1
134	134	2
80	80	1
91	93	1
7	17	1
98	100	1
34	36	1
175	178	1
23	24	2
171	171	1
156	159	1
2	2	2
77	95	1
158	158	1
152	152	3
76	76	1
146	159	1
72	103	1
152	154	1
175	175	3
23	25	2
168	170	1
153	154	1
51	51	1
36	44	1
115	116	1
130	130	1
2	4	1
115	115	1
116	117	1
89	89	1
5	5	2
87	87	1
90	92	1
62	62	1
86	86	1
109	127	1
33	34	1
96	96	1
149	149	2
88	88	1
169	169	1
83	85	1
83	83	1
57	58	1
142	171	1
102	102	1
45	57	1
52	54	1
131	131	1
84	84	1
29	33	1
114	114	1
5	17	1
56	56	1
6	17	1
61	61	1
60	60	2
108	128	1
73	73	1
17	38	1
29	31	1
107	108	2
117	117	1
32	32	2
145	146	1
33	33	1
157	158	1
88	89	1
53	64	1
98	117	1
126	137	1
53	53	1
134	176	1
