44	45	2
108	108	1
96	96	3
195	195	1
164	165	2
224	224	4
76	77	1
52	52	3
35	37	1
81	82	1
178	178	2
48	232	1
160	160	3
164	164	4
68	68	1
185	185	2
155	155	3
22	24	1
119	119	2
54	54	3
111	229	1
174	174	5
153	153	2
101	101	1
98	99	3
45	45	3
78	91	1
47	47	4
80	80	1
191	191	1
196	198	1
6	6	1
62	62	3
104	109	1
232	232	2
79	91	1
109	109	2
103	105	1
114	114	5
158	159	1
209	209	5
5	5	3
116	116	3
217	217	1
90	90	5
104	106	3
29	30	3
67	69	1
93	93	1
111	111	6
37	37	5
79	80	1
105	105	2
216	217	1
53	54	3
161	161	2
198	198	2
204	204	2
160	161	4
56	56	2
111	173	1
97	98	1
26	26	2
65	67	1
48	49	1
52	230	1
214	214	2
17	18	2
188	188	1
152	152	1
180	180	5
202	246	1
179	179	4
40	40	3
206	207	1
79	79	1
237	242	1
230	230	5
39	39	5
82	82	1
176	211	1
88	88	1
163	164	2
59	67	1
95	97	1
33	33	1
240	240	4
11	11	4
51	51	3
232	234	3
192	192	1
186	190	1
53	53	1
207	236	1
57	59	2
167	167	2
237	238	1
236	236	1
145	145	1
26	37	1
228	228	1
5	113	1
186	189	2
16	16	3
86	87	2
168	189	1
211	211	6
173	173	1
177	177	1
56	57	1
110	110	3
239	240	4
23	23	4
237	237	1
229	229	2
163	163	4
55	55	2
184	184	1
27	27	2
20	20	1
50	51	1
48	67	2
34	34	3
247	247	2
153	154	2
64	66	1
31	31	5
226	226	2
169	170	2
102	103	1
237	239	2
216	218	1
63	63	1
3	3	3
91	91	3
144	145	1
158	191	1
157	224	1
87	87	3
150	150	3
100	100	2
183	183	2
151	152	2
19	20	1
46	47	2
221	222	1
46	53	1
244	244	2
206	206	1
182	182	1
69	70	1
108	113	1
84	84	1
8	21	1
237	241	1
61	61	2
117	117	2
202	202	2
218	219	3
238	238	1
159	164	1
38	38	2
85	85	2
58	58	3
212	212	1
55	100	1
7	7	1
35	35	1
208	208	4
47	223	1
99	99	1
199	199	1
219	219	2
76	119	2
112	113	3
166	167	1
23	24	3
199	225	1
41	41	3
205	227	1
60	61	2
224	225	2
19	19	2
43	43	4
57	57	1
207	207	3
30	31	3
65	65	1
73	74	1
205	205	3
34	35	1
25	25	1
225	225	2
22	36	1
170	171	1
24	24	1
201	213	1
202	231	2
17	17	2
221	221	2
231	232	1
15	15	1
78	78	3
222	222	1
211	212	1
243	243	1
29	29	2
201	202	2
86	86	2
94	94	1
111	171	1
233	233	1
205	207	1
112	112	2
219	220	1
113	115	3
204	212	1
21	22	2
8	8	1
170	170	2
32	115	1
96	97	1
168	168	1
120	120	1
10	43	1
115	115	2
159	159	2
54	67	1
54	65	2
44	44	3
230	235	1
79	87	1
91	145	1
106	108	1
41	44	1
83	169	1
21	21	3
56	69	1
194	194	1
235	236	2
203	203	2
165	182	1
79	81	1
74	74	1
223	223	1
179	183	1
8	43	1
78	79	1
212	227	3
52	54	1
191	192	1
41	42	1
121	121	1
157	191	1
64	65	1
2	2	3
158	178	1
228	230	1
22	22	1
213	214	1
201	201	1
15	103	1
243	244	2
9	10	1
175	175	1
109	116	1
151	151	3
156	157	2
198	225	1
162	162	2
115	116	1
219	221	1
196	196	1
242	242	1
7	9	1
71	71	1
154	156	1
192	194	1
175	184	1
10	17	1
233	235	1
152	153	2
70	70	1
67	67	1
52	53	1
28	28	1
210	210	1
20	21	1
157	157	1
69	69	1
238	239	2
85	95	1
193	193	1
6	12	1
168	178	1
147	147	1
200	225	1
75	76	1
197	197	1
156	156	1
245	245	1
94	95	1
224	228	1
195	196	1
27	35	1
36	36	1
27	29	1
166	228	1
173	213	1
200	201	2
165	165	1
234	235	2
241	249	1
24	25	1
101	103	1
60	62	1
86	97	1
61	62	1
38	39	1
47	51	1
171	184	1
14	14	1
244	245	1
23	26	1
181	181	1
77	77	1
