70	70	3
58	58	4
20	21	1
44	44	4
77	77	2
59	59	3
79	79	2
113	113	2
46	47	6
1	88	1
68	68	2
41	41	4
45	45	7
125	125	5
72	72	3
120	120	4
107	107	2
122	134	1
14	15	2
78	86	1
94	95	4
6	6	2
14	14	5
57	58	2
9	10	2
98	98	3
47	47	3
116	116	2
90	91	1
15	16	2
132	132	5
12	12	4
110	110	1
93	93	2
18	63	2
10	115	2
66	66	4
77	78	1
110	111	2
119	120	2
43	44	1
17	17	6
131	131	1
88	88	2
109	127	1
65	65	13
114	114	4
38	38	1
63	68	1
24	25	1
78	78	4
64	65	1
19	19	5
1	1	2
124	124	3
64	64	5
3	4	2
69	69	1
119	119	4
21	21	1
28	32	1
133	133	4
40	41	1
83	84	2
82	83	2
102	102	1
45	46	1
34	34	3
117	117	4
83	88	2
74	74	3
0	2	1
4	6	3
22	22	2
130	130	6
17	47	1
22	25	1
93	122	1
94	94	5
79	80	2
46	46	3
56	57	1
78	94	1
12	13	1
123	123	2
37	37	3
1	113	1
115	115	2
100	100	3
132	133	2
86	89	1
36	42	1
119	123	3
124	125	2
87	87	1
102	103	1
96	97	1
13	26	1
47	66	1
29	30	2
86	86	1
60	61	1
10	10	3
92	92	2
5	5	1
27	27	1
23	23	2
72	73	1
79	81	1
0	0	2
9	12	1
4	4	2
62	74	1
30	31	2
7	7	1
128	128	3
73	73	2
11	11	2
67	67	2
61	61	2
113	114	4
89	89	1
33	33	3
2	3	1
40	40	4
123	124	1
31	31	1
134	134	2
28	29	2
75	75	1
105	107	1
62	62	3
25	25	1
3	3	1
30	30	2
103	103	2
6	7	1
32	32	1
35	35	4
96	96	1
101	102	1
85	85	3
48	48	2
128	130	1
101	101	2
120	124	1
10	11	1
133	134	2
62	63	1
16	17	1
69	70	1
58	59	1
20	20	2
109	110	1
9	14	1
26	26	2
93	94	1
99	99	1
29	29	1
111	126	1
42	42	2
122	128	1
36	36	2
83	83	2
93	124	1
125	129	2
64	68	1
108	109	1
108	108	2
109	109	1
60	60	2
120	134	1
15	15	1
80	80	2
37	38	1
106	106	1
112	112	2
63	64	1
2	5	1
80	82	1
9	9	1
2	2	1
44	45	1
56	56	2
88	122	1
116	117	1
111	111	1
118	119	1
31	32	1
126	126	1
84	85	1
94	96	1
16	16	1
4	5	1
