3	24	1
46	49	1
86	86	4
11	11	4
5	6	2
10	11	1
15	15	3
128	128	4
45	46	1
188	188	2
40	40	4
69	69	1
5	20	2
169	169	5
25	25	4
42	47	1
195	195	3
4	25	2
196	197	1
125	126	1
196	196	1
119	119	3
24	25	2
192	192	4
167	167	4
143	195	1
168	169	1
182	183	2
73	73	4
60	60	5
0	1	2
187	187	4
165	165	2
138	138	3
68	68	5
12	13	1
10	10	8
105	105	1
44	44	5
117	118	1
17	17	4
2	25	1
11	30	2
110	111	1
66	69	1
31	31	3
87	87	1
19	19	2
64	64	1
98	98	3
136	136	1
166	166	5
179	179	2
46	46	1
193	194	3
84	85	2
24	24	3
146	148	1
36	36	4
45	85	1
141	141	4
110	124	1
37	52	3
114	114	3
54	54	2
48	48	7
122	122	1
141	142	1
7	7	3
128	183	1
157	186	1
166	181	2
154	159	1
4	4	3
115	116	1
120	120	2
168	184	1
17	36	1
104	104	4
177	177	2
38	39	2
45	59	1
170	170	1
6	6	3
33	33	2
153	156	1
163	163	1
23	23	3
112	112	3
27	28	1
53	54	1
2	3	1
14	14	8
125	128	1
110	110	2
45	45	5
121	121	1
154	172	1
45	71	1
52	52	3
14	15	1
13	13	4
165	167	2
124	124	2
50	50	2
145	177	2
138	139	1
173	174	2
63	63	3
81	82	1
8	9	1
41	41	2
172	179	1
42	43	1
86	114	1
170	189	1
60	87	1
72	180	1
144	193	1
165	166	2
60	61	2
138	149	1
54	196	1
57	57	2
168	168	3
47	48	1
98	99	1
118	118	1
97	98	1
163	164	1
130	130	1
132	132	2
102	102	1
154	173	2
38	47	1
1	1	2
160	160	4
0	8	1
126	140	2
175	175	3
24	27	1
9	9	4
140	140	2
124	125	1
28	40	1
101	102	1
22	22	5
134	138	1
174	191	1
8	35	2
172	172	2
21	22	1
144	164	1
145	160	1
5	21	1
188	189	2
137	137	2
61	73	1
174	174	1
153	153	3
156	156	6
113	113	1
181	189	1
74	74	2
143	143	1
15	16	1
5	17	1
68	69	1
149	183	1
65	65	2
43	43	5
37	38	1
146	167	1
66	67	1
85	85	1
5	5	2
33	44	1
59	62	2
139	139	2
190	192	1
158	158	1
19	35	2
11	42	1
53	150	1
66	66	1
99	170	1
154	187	1
146	146	2
35	35	4
120	128	1
186	195	1
85	86	1
43	44	1
26	28	1
181	183	1
62	62	1
73	190	2
70	70	1
47	47	4
173	173	2
167	169	1
115	115	2
20	32	1
77	80	1
116	123	1
26	67	1
122	126	1
111	121	1
112	113	2
109	157	1
43	121	1
189	190	3
90	115	1
95	97	1
64	65	2
85	87	1
4	180	1
151	156	1
67	67	3
44	60	1
0	188	1
75	76	1
147	147	1
149	149	1
34	39	1
61	61	2
46	62	1
113	116	1
63	64	1
113	123	1
2	21	1
29	36	1
151	151	1
53	141	2
28	30	1
1	2	1
76	87	1
88	88	3
158	159	1
115	123	1
109	109	1
30	30	1
141	187	1
39	39	1
100	100	1
136	149	1
55	55	1
125	140	2
25	26	1
31	118	1
32	33	1
58	64	1
53	53	2
16	17	1
165	181	1
171	171	2
22	23	3
73	81	1
184	184	3
78	78	1
103	104	1
152	152	1
3	4	1
105	106	2
32	32	1
79	97	1
178	181	1
161	179	1
169	190	1
143	147	1
37	40	1
159	160	1
38	40	1
48	49	1
62	83	1
45	183	1
96	121	1
154	154	2
31	36	1
52	53	1
28	44	1
167	172	2
44	45	1
16	16	1
2	2	1
176	176	1
95	95	1
12	12	1
160	171	1
106	118	1
111	111	1
77	77	1
131	131	2
127	128	1
94	96	1
102	106	1
3	3	2
159	159	4
117	117	1
143	144	1
77	81	1
153	158	1
28	29	1
32	119	1
2	24	1
60	158	1
144	144	1
143	160	1
193	195	1
150	150	3
148	148	1
104	111	1
184	186	1
154	160	1
160	169	1
183	183	1
78	79	1
8	40	1
164	189	1
141	194	1
197	197	2
94	99	1
150	152	1
155	156	1
9	138	1
141	151	1
68	82	1
186	186	1
15	24	1
181	181	1
147	187	1
121	143	1
181	182	1
38	38	2
72	139	1
153	157	1
94	95	1
149	180	1
99	118	1
18	19	1
43	45	1
156	157	1
42	119	1
28	28	1
39	196	1
8	12	1
9	10	1
21	30	1
90	96	1
141	143	1
42	42	1
182	182	2
148	149	1
119	170	1
46	47	1
0	0	1
0	23	1
80	81	1
