121	121	6
5	5	7
36	36	9
35	35	5
85	85	6
65	68	1
51	52	3
153	170	2
148	148	10
62	63	2
50	50	6
6	22	1
81	82	5
126	126	7
138	166	1
55	55	6
141	141	10
24	24	12
39	46	1
54	54	6
10	21	1
151	153	1
49	76	1
143	147	3
140	147	1
92	92	5
116	117	3
23	23	11
134	134	5
169	169	10
79	80	3
109	109	2
130	134	2
133	134	1
68	68	3
44	45	4
164	165	2
89	89	7
82	83	5
113	113	4
71	73	2
63	98	1
37	41	1
2	2	8
82	82	5
79	93	2
111	111	3
4	6	1
37	37	9
36	38	1
4	5	5
98	113	1
47	47	5
108	136	1
158	158	8
49	49	8
11	11	9
144	144	14
114	114	9
86	87	3
81	81	2
8	9	6
13	13	7
132	133	5
90	97	1
21	21	6
99	100	2
12	44	1
15	15	6
48	53	1
157	158	2
149	154	2
5	16	4
10	10	9
107	110	1
153	153	11
147	163	1
1	6	1
139	142	2
3	3	13
97	97	2
22	24	2
54	55	3
98	98	11
0	24	1
106	106	6
110	110	5
90	91	1
122	141	1
8	37	1
6	7	4
99	144	1
143	144	3
9	10	4
145	145	5
94	114	1
168	168	3
111	130	1
55	56	3
168	170	2
105	105	1
124	124	7
143	143	9
73	79	1
159	159	3
139	147	2
136	136	4
39	40	1
156	156	7
122	122	2
44	44	4
8	8	4
70	78	2
25	26	1
92	128	1
65	101	1
9	9	7
24	25	3
121	127	1
112	142	1
10	12	1
40	40	12
98	99	3
150	151	2
99	104	1
93	98	3
71	71	7
143	148	2
162	162	6
116	116	7
4	13	1
75	82	1
162	165	1
12	14	1
136	142	1
154	156	1
53	54	2
47	48	1
65	65	2
109	117	1
97	115	3
149	150	3
149	149	8
76	87	1
129	129	6
36	40	2
17	17	9
92	97	1
20	20	5
139	143	1
48	50	2
27	28	2
139	141	1
66	66	3
45	45	3
16	16	4
166	168	1
73	104	1
86	86	5
56	56	4
108	112	2
108	109	2
155	155	8
49	50	3
72	83	2
119	119	4
123	126	2
1	2	2
77	77	6
104	115	2
153	155	3
89	90	1
3	99	1
64	65	4
82	88	1
101	101	2
40	165	1
80	81	1
71	74	4
167	167	10
140	142	1
107	112	1
10	16	1
43	44	1
161	162	3
19	19	6
41	41	7
84	85	1
150	158	2
99	99	8
11	21	1
151	160	1
36	42	1
140	148	1
14	14	7
160	165	2
150	160	1
138	138	4
19	21	2
135	135	12
143	169	1
85	86	6
127	127	5
70	83	1
39	39	4
108	108	7
93	93	3
130	130	6
35	36	3
134	158	1
64	64	2
7	7	6
119	120	5
2	3	1
116	165	1
135	145	2
155	160	1
69	79	1
17	18	4
94	94	4
46	109	1
80	83	2
106	109	1
102	103	2
1	1	5
82	118	1
142	143	4
48	48	8
53	53	6
139	139	6
154	154	6
56	57	3
148	168	2
129	133	1
83	83	7
84	84	3
18	18	8
80	80	3
136	150	1
151	157	3
51	84	1
6	6	4
70	81	1
136	140	1
115	117	1
110	117	1
132	134	2
133	135	2
146	146	2
115	132	1
158	159	2
77	79	1
99	109	1
118	118	5
77	87	1
138	142	3
153	158	2
38	38	3
127	136	1
52	52	3
151	151	9
155	159	1
25	25	6
12	13	2
120	120	2
124	165	1
165	165	3
26	26	3
48	81	1
72	72	3
106	107	3
164	164	4
103	115	1
10	63	2
147	147	5
120	132	1
159	160	2
14	20	1
37	168	1
142	142	10
89	108	3
147	150	1
17	49	1
138	151	2
85	89	1
4	12	2
58	84	1
91	91	2
51	79	1
157	157	7
95	125	1
170	170	5
90	90	8
117	117	6
46	46	5
137	137	8
14	16	1
11	12	2
10	19	1
39	138	1
156	158	1
43	46	1
154	164	1
140	140	5
16	36	1
88	88	3
71	79	1
130	138	1
33	34	1
42	150	1
134	135	1
112	114	1
45	51	2
107	107	7
57	58	1
34	35	3
94	123	1
16	17	1
118	123	1
152	156	1
150	150	9
22	22	7
42	42	7
113	114	1
101	102	2
76	77	1
14	36	1
0	0	5
128	128	2
135	136	2
14	15	3
74	74	5
79	79	3
142	145	1
15	44	1
69	81	3
15	17	1
86	129	1
143	155	2
104	107	1
91	95	2
110	115	1
169	170	2
3	57	2
91	100	1
24	154	1
86	92	1
104	106	1
166	166	3
80	94	2
8	15	2
124	134	1
140	143	1
131	136	1
100	100	2
67	67	2
125	125	9
129	137	3
113	117	1
158	161	1
104	104	5
66	76	1
134	151	1
91	97	1
154	162	1
127	128	1
110	111	2
16	18	3
44	87	1
132	132	3
0	6	3
99	107	2
16	44	1
135	143	1
52	53	2
153	157	1
163	163	3
86	90	1
77	78	1
27	27	5
38	51	1
75	75	1
118	119	2
144	146	2
78	78	2
94	107	1
47	67	1
87	88	1
136	151	1
74	86	2
160	161	3
160	160	4
162	163	2
3	4	1
111	122	1
161	165	2
80	84	1
121	128	1
163	165	1
138	139	2
86	98	1
66	68	1
38	163	1
105	134	1
76	76	3
104	105	1
153	165	1
161	161	6
45	47	2
41	42	4
139	146	1
4	16	1
113	134	2
153	156	1
33	33	4
50	55	1
137	151	1
130	146	1
4	4	5
1	4	1
133	133	3
106	121	1
21	26	1
67	70	1
111	115	1
40	42	1
103	103	2
121	124	1
95	95	3
137	144	1
100	128	2
96	99	1
161	163	1
70	75	2
34	34	5
23	24	1
165	166	3
118	126	1
47	49	4
34	144	1
7	8	1
83	98	1
127	130	1
107	108	2
0	69	1
148	151	2
48	49	2
121	123	1
125	139	1
156	159	2
136	169	1
62	62	3
105	109	1
84	97	2
115	115	4
122	123	1
117	118	2
145	157	1
105	162	1
51	51	3
0	7	2
8	10	1
5	12	1
18	21	1
135	151	2
137	138	1
96	103	2
47	50	1
121	140	1
131	131	4
18	22	1
67	80	1
108	113	1
164	170	1
91	92	3
79	81	1
97	101	1
73	82	1
42	43	2
147	170	1
84	86	1
110	137	1
106	132	2
3	41	1
142	156	1
18	23	3
141	149	1
5	10	1
143	154	1
77	81	2
152	153	1
151	161	2
164	169	1
111	112	3
146	147	2
153	154	1
10	27	2
96	96	3
121	164	1
137	146	1
123	123	2
21	23	1
6	12	1
73	73	2
105	110	1
117	119	1
12	12	3
47	55	1
43	45	1
69	69	4
45	49	2
164	166	1
82	86	2
92	94	1
16	20	1
34	40	3
23	25	3
96	98	1
146	157	1
48	55	1
126	162	1
72	73	1
115	141	1
92	93	1
156	157	1
55	66	1
135	155	1
69	71	1
155	156	2
162	169	1
46	48	1
99	108	1
77	92	1
141	142	2
152	152	7
102	102	3
81	111	1
142	146	1
146	161	1
65	69	1
94	95	1
10	23	1
57	57	2
97	99	2
89	104	1
112	116	1
128	137	1
160	162	2
144	145	2
13	14	1
160	163	1
7	16	1
10	11	2
136	137	1
96	97	1
7	10	1
118	146	1
126	138	1
109	116	1
91	98	1
7	37	1
148	155	1
147	149	1
90	95	1
110	112	2
58	58	2
81	86	1
122	125	1
76	79	1
72	96	1
63	78	1
137	150	2
85	96	1
3	76	1
80	111	1
44	50	1
94	98	1
73	89	1
136	167	1
46	52	1
100	105	2
145	147	1
121	126	1
27	42	1
145	148	1
141	163	1
135	161	1
121	122	1
128	130	1
148	150	1
66	86	1
123	132	1
72	75	1
1	9	1
7	15	1
67	68	1
4	9	1
125	128	1
68	69	1
40	47	1
81	97	1
85	97	1
37	39	2
141	145	1
41	46	1
122	132	1
101	140	1
135	137	1
94	96	1
18	71	1
151	167	1
18	19	1
26	131	1
63	65	1
7	21	1
66	88	1
0	10	1
125	130	1
144	164	1
126	151	1
75	81	1
15	16	2
23	64	1
132	155	1
19	24	1
151	152	1
131	141	1
163	164	1
43	50	1
141	151	1
18	26	1
24	27	1
39	149	1
140	160	1
41	84	1
49	54	1
87	89	1
139	160	1
16	47	1
130	131	2
112	129	1
126	130	1
0	1	1
104	110	1
0	64	1
112	115	1
46	47	1
133	145	1
147	151	1
26	40	1
52	104	1
6	15	1
43	43	1
88	89	1
70	70	1
106	118	1
166	167	1
3	7	1
147	155	1
22	27	1
108	167	1
124	135	1
74	76	1
148	149	1
107	111	1
38	45	1
117	121	1
64	66	1
34	36	1
132	144	2
135	146	1
42	51	1
49	53	1
41	170	1
16	19	1
50	51	1
159	168	1
62	66	1
78	99	1
57	62	1
2	8	1
87	87	1
54	63	1
91	126	1
112	124	1
7	17	1
92	100	1
