24	55	1
78	78	3
72	73	1
72	74	1
45	56	1
50	50	6
85	85	2
83	87	1
91	95	1
82	83	1
40	43	3
76	76	6
68	69	1
102	103	3
61	61	6
106	106	3
102	102	4
55	55	9
26	26	1
31	32	1
74	74	4
97	97	5
58	64	2
90	90	9
83	83	2
72	72	13
31	39	1
101	101	9
61	62	4
23	23	6
99	99	2
56	56	6
53	53	2
75	75	3
48	49	3
67	67	3
85	88	2
58	58	4
48	48	9
85	87	1
25	27	1
29	36	1
91	91	2
61	91	1
35	36	4
33	33	5
90	91	1
92	92	3
32	32	2
40	53	1
64	64	9
27	29	1
44	44	5
96	97	1
95	95	8
90	101	1
21	21	3
103	103	4
65	65	5
25	25	3
30	30	7
52	66	1
32	35	1
40	40	1
98	98	11
68	82	1
39	45	1
32	33	1
40	42	1
69	69	2
60	62	2
52	52	3
73	74	2
45	45	4
66	76	1
29	29	3
70	70	7
88	88	1
66	67	2
86	87	1
49	49	3
47	47	3
22	22	3
62	64	1
66	105	1
69	95	1
100	100	1
73	73	4
51	51	6
80	81	3
74	75	2
94	94	3
47	58	1
31	55	2
27	27	3
78	79	2
84	86	2
59	59	3
37	37	4
45	50	1
104	104	7
65	68	3
82	82	4
62	62	4
54	54	4
96	106	1
74	77	1
76	95	1
39	39	4
31	31	4
84	84	2
60	94	1
82	84	1
72	80	1
86	99	1
105	105	3
26	46	1
87	87	3
94	95	1
37	38	2
107	107	7
73	105	1
52	53	1
69	106	1
35	69	1
41	45	1
70	71	1
67	68	1
27	28	2
50	53	1
42	42	2
105	106	2
28	30	1
40	47	1
51	61	1
65	67	1
77	77	3
50	81	1
58	59	3
30	49	1
23	24	1
88	89	1
71	71	3
60	60	3
55	56	3
37	43	1
83	84	1
54	55	1
49	86	1
20	20	2
76	96	1
89	89	3
35	76	1
35	35	1
29	31	1
74	76	1
57	59	1
74	102	1
34	34	5
80	80	2
46	46	1
28	29	2
82	88	1
22	58	2
57	90	1
65	70	1
47	49	2
71	73	1
101	102	1
52	67	1
96	96	5
24	24	1
35	57	1
45	46	1
25	51	1
95	96	1
45	61	1
57	57	3
61	63	1
93	93	2
101	103	1
94	101	1
58	60	1
32	80	1
64	65	2
76	77	2
38	38	1
34	47	1
71	88	1
86	88	1
81	81	2
20	21	1
81	85	1
86	86	1
20	34	1
49	75	1
37	55	1
50	91	1
68	70	1
48	51	1
28	28	1
43	44	1
23	37	1
59	60	1
79	81	1
24	36	1
85	86	1
62	63	2
42	53	1
65	66	1
25	30	1
91	92	1
46	47	1
30	53	1
63	63	3
23	35	1
75	76	1
