2	24	2
179	179	3
138	139	3
72	72	6
24	33	1
62	76	1
144	155	1
32	33	3
195	195	5
182	182	5
20	20	6
31	31	8
80	95	1
106	106	1
124	125	1
12	13	2
131	131	2
149	149	7
13	13	6
23	23	5
188	188	3
36	151	1
156	156	8
176	177	1
179	181	2
129	157	1
1	1	3
27	28	3
137	137	3
194	194	5
180	180	1
33	33	5
24	24	4
65	65	3
102	106	1
98	98	2
66	67	1
99	99	1
28	28	7
4	8	1
143	143	9
139	140	4
22	22	3
20	21	1
107	114	1
158	158	2
28	29	2
100	107	2
39	40	2
20	39	3
26	26	1
23	59	1
172	172	6
32	37	2
183	183	2
10	10	6
140	140	5
189	190	2
63	64	1
11	12	2
87	99	2
41	44	1
0	0	2
176	176	5
181	181	2
19	20	3
29	30	1
0	1	3
74	74	6
62	62	3
46	46	4
37	37	3
38	38	6
14	14	5
177	178	1
110	110	4
16	19	1
51	51	1
29	29	1
103	104	3
73	116	1
60	60	1
93	100	1
24	32	1
6	29	1
171	172	2
58	69	1
6	6	4
32	36	2
89	89	1
187	187	2
146	147	5
31	40	1
141	141	6
23	24	1
151	157	1
53	53	2
2	5	1
41	41	5
145	145	2
126	194	2
178	179	4
185	185	3
196	196	5
61	62	2
35	35	5
189	189	2
85	85	1
6	8	1
143	145	2
98	99	2
146	148	1
88	90	2
40	40	5
174	176	1
32	32	3
13	14	1
108	108	1
120	145	2
193	193	2
23	130	1
175	187	1
42	42	9
154	154	5
130	183	1
3	3	2
59	61	1
170	170	3
161	161	2
62	102	1
165	173	1
93	93	2
104	104	2
134	151	1
76	78	1
21	21	6
129	130	1
168	168	2
167	169	2
68	68	2
5	6	1
153	172	1
31	128	2
4	20	1
8	8	1
132	132	3
44	44	5
54	88	1
5	52	2
105	106	1
83	83	2
177	177	3
164	165	1
9	9	5
121	121	1
36	36	2
35	36	1
47	47	1
173	173	4
57	57	3
64	64	2
117	117	4
22	28	1
115	147	1
103	103	2
181	188	1
62	63	1
49	49	3
70	70	3
182	183	1
148	149	3
15	15	2
19	19	5
170	171	1
107	108	1
37	38	1
12	12	1
150	150	3
95	95	1
8	20	1
54	54	1
18	18	3
184	185	1
1	22	1
10	42	2
185	194	1
67	67	1
99	100	2
22	23	4
35	39	1
42	43	1
129	129	1
100	100	1
136	137	2
4	9	1
39	39	2
182	193	1
101	102	1
6	7	1
80	88	1
179	180	1
100	105	1
149	150	1
89	97	2
50	50	1
76	76	1
24	26	2
30	30	3
11	11	5
17	29	1
47	48	3
115	115	2
12	14	1
163	163	4
94	94	1
136	136	2
122	122	3
186	186	5
61	69	1
16	17	3
135	136	2
10	12	1
197	197	1
119	119	1
59	59	1
105	105	2
138	138	1
102	102	3
60	86	1
33	34	1
134	135	1
152	152	3
78	80	1
136	177	1
69	69	1
45	45	3
137	139	3
82	83	1
103	107	1
58	58	3
128	128	1
166	166	5
188	192	1
134	134	1
80	80	2
191	191	2
4	4	3
146	162	1
7	8	1
9	169	1
178	178	1
167	167	3
38	129	1
84	84	2
171	171	6
46	149	1
9	186	1
114	115	1
16	42	1
125	138	1
166	168	1
188	189	1
36	137	1
56	56	1
64	69	1
55	55	2
160	160	3
190	190	3
88	96	2
104	106	1
71	72	1
24	25	2
154	155	1
169	186	2
147	168	2
88	88	3
3	8	1
34	35	1
72	136	1
190	191	1
79	81	2
1	2	4
168	169	1
1	3	1
58	59	1
10	33	1
18	189	1
124	124	4
34	34	1
135	135	1
59	65	1
121	149	1
142	142	1
16	16	2
147	148	1
151	151	1
7	7	2
36	85	1
174	174	3
139	139	2
32	46	2
161	162	1
10	11	2
43	43	2
31	32	1
156	157	2
162	162	1
144	145	1
127	127	2
184	184	1
37	39	1
44	46	2
109	109	1
66	69	1
102	104	1
166	167	1
27	29	1
66	66	1
53	55	1
155	155	1
161	172	1
153	153	1
108	110	1
189	191	1
163	167	1
17	17	1
129	171	1
185	186	1
152	172	1
77	77	1
111	112	2
155	156	1
40	42	1
26	27	3
121	122	1
52	52	1
20	24	1
131	132	1
147	164	1
5	5	1
97	98	1
126	126	1
12	38	1
157	157	1
2	3	2
49	50	1
27	59	1
56	66	1
82	82	1
79	80	1
32	87	1
159	159	1
141	142	1
106	107	1
13	128	1
3	6	1
178	183	1
15	16	2
10	38	2
25	25	2
141	186	1
175	178	1
28	30	1
169	169	1
71	71	1
78	78	1
154	172	1
147	147	1
93	94	1
140	141	2
34	36	1
128	133	1
133	133	1
60	61	1
132	155	1
149	176	1
