36	36	4
66	66	9
10	16	1
52	79	2
52	52	8
24	24	8
118	118	3
27	27	10
25	25	4
119	119	4
71	71	7
113	113	3
23	23	9
28	28	8
95	121	1
4	4	4
101	101	7
81	86	1
90	91	1
54	55	3
45	45	8
72	76	3
50	50	4
87	107	1
134	134	3
11	12	2
22	22	3
117	117	4
14	14	4
43	43	9
72	72	9
18	19	5
68	69	4
9	37	1
82	82	6
76	76	12
9	10	3
62	63	3
80	107	2
32	32	7
86	87	7
111	112	6
72	73	3
6	75	1
105	105	8
28	29	2
133	133	2
75	75	7
37	37	2
27	29	4
7	7	7
59	82	1
16	45	1
3	34	2
78	78	11
64	64	14
6	11	2
21	21	9
65	65	3
45	53	1
26	26	10
29	29	9
16	16	7
107	107	4
125	125	3
111	111	6
12	38	1
102	103	1
46	47	1
54	54	5
102	102	5
86	86	6
99	99	8
60	62	1
34	34	6
56	56	5
66	67	4
94	96	1
127	129	1
88	133	1
5	15	2
100	100	2
55	59	1
8	8	6
67	67	4
6	6	3
56	61	1
104	104	6
58	58	2
114	133	2
77	77	10
76	78	2
19	19	7
57	58	2
6	12	2
52	59	1
62	62	3
53	53	2
132	132	2
80	81	2
127	127	6
98	98	3
108	108	5
1	3	1
70	74	1
84	85	2
96	96	5
55	56	2
3	3	6
18	18	4
2	6	1
8	107	2
86	89	1
61	61	5
131	131	4
15	20	1
98	99	1
10	10	1
97	97	3
17	17	3
44	44	6
21	25	1
126	126	4
58	59	1
65	77	1
110	110	7
74	75	3
12	12	7
50	79	1
85	85	9
106	106	1
31	31	5
16	32	1
22	68	1
83	83	5
2	2	8
54	82	1
22	23	2
127	128	2
10	12	2
80	80	7
134	135	1
130	130	3
1	2	3
15	15	5
64	65	3
69	69	7
74	74	7
20	20	7
124	124	2
55	55	4
77	78	2
123	123	2
63	63	7
90	126	2
121	121	6
68	68	5
122	122	6
119	127	3
8	9	1
12	106	1
81	81	7
35	35	4
76	82	1
81	126	1
14	47	1
26	27	1
102	105	1
92	92	5
15	32	1
110	111	1
57	59	2
95	96	2
44	77	1
101	102	1
79	79	6
0	0	6
30	30	7
112	115	1
90	90	3
49	49	7
15	38	1
115	115	2
108	130	1
87	87	8
61	75	1
44	45	2
126	127	1
48	48	1
73	73	16
33	49	1
24	25	4
90	105	1
11	13	1
114	114	4
2	8	1
82	83	2
3	97	1
56	60	1
38	38	1
93	93	3
106	116	1
103	103	2
94	94	1
6	28	2
9	16	1
122	123	1
115	116	1
122	127	1
59	60	2
105	114	1
95	97	1
67	68	3
85	86	4
83	84	1
130	131	1
132	133	3
47	47	3
24	119	1
56	59	2
104	105	2
23	24	2
67	69	3
5	5	4
61	66	3
11	11	6
33	33	3
45	46	2
29	74	1
15	114	1
3	4	2
71	74	1
76	77	1
121	122	3
69	70	3
66	82	1
124	125	4
70	70	8
23	88	1
70	71	4
54	60	1
111	113	1
78	92	1
10	11	1
53	58	1
100	121	3
52	53	2
59	59	4
9	38	1
15	23	1
105	106	1
35	62	1
95	95	4
44	52	1
119	131	1
61	62	2
56	57	2
25	26	2
84	84	2
7	14	2
112	112	2
55	57	1
32	33	3
19	20	2
66	77	1
52	85	1
97	98	2
44	85	2
12	104	1
50	76	1
91	92	1
21	52	1
32	52	1
66	68	5
44	65	1
86	90	1
59	61	1
45	50	2
23	25	1
17	52	1
12	15	1
89	89	3
88	88	2
93	94	2
130	132	2
13	13	4
76	108	1
8	19	1
9	9	2
51	51	1
120	124	1
85	117	2
60	60	6
99	100	1
5	18	1
106	108	2
1	70	1
73	74	1
120	120	1
71	77	1
135	135	1
53	61	1
10	23	1
95	99	1
33	34	2
128	129	1
7	8	2
125	126	2
93	103	1
110	113	1
103	105	1
17	18	1
107	109	1
109	109	1
56	58	1
18	90	1
71	72	2
107	125	1
108	109	1
14	33	1
116	116	2
62	75	1
87	96	1
128	132	1
91	91	1
20	22	1
61	63	1
2	3	1
22	26	2
129	129	3
62	87	1
0	2	1
36	112	1
63	105	1
123	126	1
52	55	1
70	90	1
119	120	2
76	80	1
8	20	2
29	61	1
57	57	1
4	5	1
130	133	2
16	28	1
27	49	1
54	56	2
71	75	1
75	76	1
33	50	1
12	26	1
114	115	1
11	17	1
19	90	1
109	110	1
65	129	1
73	79	1
116	121	1
28	62	1
43	50	1
19	25	1
96	128	1
116	118	1
55	58	2
16	90	1
60	65	1
47	48	1
9	39	1
13	15	1
84	88	1
103	104	1
49	50	2
107	131	1
85	87	1
17	24	1
23	29	1
71	94	1
66	69	1
4	31	1
47	49	1
16	89	1
8	10	1
16	35	1
5	14	1
94	95	1
7	22	1
54	65	1
1	1	1
113	114	1
25	27	1
65	69	1
