99	99	3
174	187	1
131	131	2
28	58	2
39	48	1
124	128	1
157	167	1
138	139	1
0	38	1
111	113	1
182	189	2
17	17	2
37	37	1
78	78	1
106	106	2
84	85	1
23	24	2
125	150	1
60	60	3
10	10	5
35	35	4
96	112	1
57	57	4
11	11	4
90	90	2
22	22	2
114	115	2
68	68	1
82	82	3
15	15	1
6	6	2
103	103	4
146	183	1
142	142	4
46	46	1
178	178	1
38	38	2
112	136	1
123	123	1
153	153	4
80	80	2
95	95	3
134	134	3
34	34	2
39	108	1
14	14	3
79	80	3
99	106	1
3	3	2
166	166	1
43	48	1
121	121	1
88	88	3
142	165	1
17	38	1
71	71	2
86	86	4
5	5	1
73	74	2
129	129	3
45	45	3
152	166	1
148	148	2
185	185	2
11	12	1
33	34	1
39	41	1
184	184	3
122	130	2
0	0	3
5	6	1
63	63	2
131	137	1
7	7	3
23	23	1
165	166	1
31	33	2
164	164	2
83	83	6
40	40	3
134	135	2
18	18	1
125	125	1
105	105	2
128	128	3
16	17	1
72	89	2
66	143	1
8	8	2
104	105	1
85	86	1
167	167	3
28	28	3
10	13	2
153	154	1
181	182	1
72	93	1
66	66	1
108	108	1
182	182	1
19	45	1
116	116	1
19	32	1
155	155	1
68	71	1
11	37	3
22	29	1
123	125	3
26	26	2
131	166	1
59	60	3
149	149	2
58	58	2
27	32	2
100	100	1
13	14	1
2	2	2
98	98	3
160	160	1
158	158	1
183	183	2
97	97	3
61	63	1
81	89	1
33	33	2
147	163	1
52	54	1
94	94	2
21	21	1
61	61	1
121	138	1
5	57	1
65	92	1
36	36	2
118	118	1
45	46	1
86	91	1
166	181	1
36	107	1
77	82	1
26	27	1
77	84	1
70	114	1
177	182	3
114	114	1
74	77	1
130	133	1
112	112	1
151	151	2
75	111	1
85	95	1
35	36	1
175	186	1
139	139	2
119	138	1
55	55	2
85	85	1
30	63	1
29	32	1
27	27	1
24	24	1
120	138	1
141	141	2
180	181	2
78	80	1
102	102	1
13	13	1
1	5	1
172	172	1
130	138	1
87	87	1
79	79	1
1	1	1
137	144	1
96	97	1
56	56	2
132	156	1
175	189	2
116	119	2
65	65	1
122	122	1
20	20	1
71	92	1
172	174	1
188	188	1
1	2	1
79	88	1
116	117	2
127	159	1
25	55	1
170	170	1
106	107	1
133	133	1
54	54	1
146	146	1
109	188	1
71	72	2
34	54	1
143	177	1
109	124	1
95	108	1
126	126	1
18	35	1
30	34	1
99	100	1
131	172	1
189	189	1
186	186	1
26	57	1
189	190	1
154	159	1
10	28	1
52	52	2
157	157	1
42	42	1
18	19	1
43	44	1
18	149	1
133	136	1
156	156	1
81	81	1
101	101	1
100	111	1
63	64	1
102	103	1
25	25	1
41	41	1
132	132	1
