90	90	3
111	111	2
125	125	2
124	125	2
35	35	4
74	74	3
57	57	3
20	21	1
76	113	1
11	13	1
79	79	4
43	44	1
4	79	1
64	64	4
96	99	1
19	19	2
97	97	1
109	130	2
44	45	1
17	17	2
115	115	4
55	56	2
61	61	3
38	43	1
13	14	1
11	45	2
109	109	3
12	13	2
46	57	1
37	38	3
12	12	2
47	47	3
116	117	3
131	131	4
20	20	4
8	8	4
114	115	1
6	7	2
112	112	4
38	38	4
11	11	4
78	78	1
129	129	3
134	134	2
122	122	4
33	34	1
75	75	3
93	93	5
72	72	2
120	120	2
0	18	1
48	48	1
28	28	4
69	69	4
107	108	3
66	66	3
10	10	3
42	42	2
92	92	1
73	132	1
7	7	3
92	97	1
85	85	4
28	129	2
128	128	3
37	92	1
33	33	2
77	78	1
123	123	1
108	108	5
113	113	1
58	58	1
126	126	3
21	25	2
55	103	1
108	112	1
3	3	1
29	29	1
87	89	1
48	82	1
40	48	1
120	129	1
122	133	1
92	93	1
73	73	1
48	49	1
101	101	3
67	67	1
3	9	1
78	86	1
61	62	2
4	4	3
78	82	3
15	26	2
97	99	2
27	33	1
98	99	1
102	129	1
106	106	5
41	43	1
0	0	1
6	6	1
117	117	1
70	71	1
24	25	3
66	67	1
130	130	1
76	76	1
24	24	3
6	19	1
82	82	2
106	127	1
65	66	2
24	31	1
119	119	3
81	81	5
26	27	1
116	116	5
44	49	2
114	116	2
45	46	1
103	104	1
56	57	2
40	40	1
46	46	2
83	84	1
34	34	1
99	99	1
87	88	1
2	2	2
65	65	2
42	100	1
80	81	1
17	19	1
104	104	2
26	36	1
108	114	1
132	132	2
36	38	1
60	61	1
54	54	1
15	15	3
63	63	1
111	129	1
41	41	1
108	127	1
50	84	1
34	35	3
1	2	2
11	14	1
40	127	2
126	134	1
15	16	1
107	107	1
46	47	1
87	87	2
4	6	2
39	39	1
70	72	1
100	100	2
8	9	2
85	86	1
115	116	1
62	67	1
33	113	1
10	78	1
36	36	1
34	44	2
93	112	1
22	22	2
37	37	1
54	56	1
14	31	1
45	45	1
14	15	1
121	121	2
18	18	1
59	59	2
93	94	2
1	1	1
123	125	1
96	96	1
72	114	1
14	14	2
125	126	2
95	95	1
28	31	1
127	127	1
72	73	1
30	31	1
99	100	2
114	114	3
0	69	1
111	120	1
95	98	2
47	85	1
102	102	1
11	17	1
133	133	1
108	109	1
119	120	1
44	44	1
79	82	1
2	3	1
95	108	1
87	96	1
132	133	1
23	23	1
130	131	1
94	94	1
93	95	1
86	86	2
131	132	1
26	29	1
27	55	1
121	122	2
112	113	1
112	120	1
22	24	1
62	63	1
126	128	1
25	25	1
88	93	1
123	126	1
4	5	1
95	96	1
5	5	1
59	80	1
79	80	1
62	62	1
81	82	1
22	108	1
71	71	1
32	32	1
43	43	1
89	89	1
38	55	1
