131	149	2
113	115	1
64	66	1
147	147	1
151	151	3
25	25	1
56	56	2
109	113	1
138	138	4
106	106	1
95	96	1
93	105	1
37	37	1
39	39	2
31	32	1
110	110	4
101	137	1
122	123	1
58	63	1
154	154	2
89	102	1
131	131	2
32	35	2
57	57	3
16	16	4
6	7	1
78	78	3
55	55	1
13	13	1
23	23	2
122	122	2
112	114	1
128	128	1
110	126	1
112	112	2
14	20	2
3	3	4
66	72	1
58	126	1
68	68	1
44	44	3
86	86	3
141	142	1
99	102	1
101	112	1
107	108	1
121	121	2
11	11	4
117	123	1
38	38	1
40	64	1
53	53	1
5	62	1
26	29	1
33	34	1
135	135	4
118	118	4
125	125	1
27	33	1
71	71	5
28	29	2
19	19	1
18	18	4
63	64	1
72	72	3
48	48	3
103	103	1
65	65	1
126	126	1
53	55	1
98	98	2
80	82	1
45	46	1
69	69	2
13	15	1
136	136	1
97	97	1
51	51	2
77	79	1
55	56	1
93	94	1
45	72	1
135	136	1
68	84	1
14	14	1
53	154	1
50	51	1
44	70	1
79	87	1
130	131	1
128	130	1
42	42	3
147	148	1
127	146	1
114	114	1
10	10	3
41	43	1
95	95	3
69	108	1
117	117	2
87	87	1
86	93	1
17	22	1
28	151	1
52	58	1
21	27	1
7	7	1
32	32	3
127	140	1
132	133	1
113	113	2
45	45	1
18	19	1
50	50	2
144	144	3
139	139	3
99	99	1
149	149	1
57	58	1
106	108	1
46	49	1
54	54	2
142	142	1
146	146	1
5	34	1
21	21	1
16	38	1
148	148	1
49	49	2
48	53	1
4	4	1
12	12	3
84	84	1
100	112	1
132	132	2
42	43	2
144	146	1
71	114	1
22	31	1
123	124	1
98	122	1
145	145	1
124	148	1
56	79	1
144	145	1
75	76	1
76	76	1
72	79	1
43	109	1
70	80	1
6	6	3
65	72	1
62	85	1
105	105	2
79	79	1
50	63	1
130	133	1
88	90	1
7	138	1
35	37	1
35	36	1
47	47	1
101	101	1
72	73	1
22	25	1
115	115	1
104	115	1
120	120	1
33	33	1
67	68	2
104	104	1
26	26	1
150	151	2
22	22	2
152	152	1
22	36	1
127	127	1
100	100	1
142	146	1
5	25	1
63	95	1
130	130	1
28	28	1
117	118	1
3	5	1
7	8	1
63	63	4
136	137	1
17	17	1
40	41	2
16	23	1
102	118	1
29	29	1
111	111	1
43	63	1
9	9	2
69	76	1
116	116	1
108	109	1
96	128	1
31	31	1
78	79	1
9	18	1
30	31	1
150	150	1
10	12	1
3	9	1
