68	68	2
103	103	2
23	24	2
168	176	1
155	187	1
47	47	2
57	57	4
133	133	2
3	3	1
181	181	7
75	75	3
31	31	2
168	168	2
33	34	2
26	26	1
73	73	1
136	136	1
134	134	3
116	116	2
114	114	3
7	7	4
173	173	2
38	38	4
89	89	5
40	40	2
29	29	1
106	117	1
113	114	2
177	177	1
54	56	1
18	23	2
174	175	1
163	164	1
34	106	1
63	63	3
188	188	3
27	37	1
95	95	1
140	184	1
3	4	2
139	139	1
40	77	2
186	187	1
114	119	1
105	105	3
174	174	1
113	144	1
25	25	3
82	82	1
76	77	1
9	20	1
180	180	1
10	11	3
66	66	3
113	113	4
40	41	1
42	43	1
6	7	2
146	183	1
79	82	1
19	20	3
1	1	1
43	43	2
156	157	4
166	166	3
27	27	1
140	140	2
30	31	2
147	147	2
113	115	1
72	72	2
87	87	6
147	171	1
30	30	3
72	73	1
78	85	1
48	48	3
16	17	1
11	11	2
22	22	2
63	65	2
58	58	2
131	131	1
146	147	3
134	135	3
111	113	1
169	188	1
117	117	1
95	98	2
45	45	5
156	156	2
162	162	3
58	60	1
2	2	2
109	109	1
44	44	3
91	91	1
169	169	4
148	148	6
37	90	2
39	39	2
93	150	1
81	81	2
12	65	1
138	138	1
151	175	1
179	180	1
39	55	2
137	137	5
144	144	2
97	97	5
179	179	1
123	123	1
15	75	1
182	182	1
178	183	2
29	30	1
103	150	1
130	135	1
66	90	1
62	62	3
64	65	2
110	110	2
65	65	2
64	64	1
28	28	1
68	69	3
144	145	2
93	93	2
189	189	3
53	54	1
6	8	1
76	76	2
82	83	1
140	141	1
127	127	1
13	26	1
164	168	1
125	125	1
57	58	1
145	145	1
14	33	1
8	33	1
154	154	1
26	37	1
185	185	3
137	159	1
121	122	1
13	13	7
82	84	1
102	102	3
41	41	1
14	14	2
38	40	1
54	55	1
99	99	5
17	17	2
126	143	1
0	0	2
61	64	3
91	92	1
126	128	3
19	21	2
165	165	1
170	171	2
46	47	1
139	151	1
17	24	1
147	185	1
65	91	2
147	164	1
157	157	2
6	6	3
88	110	1
16	26	1
176	176	2
95	115	1
78	78	2
35	35	1
118	118	6
110	113	1
108	108	2
121	121	2
112	112	2
92	93	2
153	155	1
16	16	3
72	94	1
10	10	1
85	85	3
82	103	2
88	90	1
67	158	1
24	24	1
177	181	1
175	177	1
26	28	1
155	156	1
97	99	1
152	152	2
111	111	1
118	125	3
128	128	1
69	71	1
122	183	1
4	4	2
91	93	1
28	31	2
115	115	1
101	117	1
101	101	1
161	161	1
170	170	1
116	118	1
39	77	1
56	56	2
114	115	1
13	18	1
21	21	1
126	183	1
10	12	1
12	12	4
68	81	1
164	164	2
76	80	1
2	5	1
16	54	1
34	35	1
60	60	1
180	181	2
184	184	1
169	181	3
31	42	1
82	85	1
184	185	1
84	84	3
66	67	1
156	182	1
56	74	1
124	125	1
180	182	1
61	61	1
103	146	1
25	68	1
71	71	1
6	56	1
90	90	1
80	80	1
10	48	1
159	159	1
148	149	2
142	143	3
106	107	1
172	173	1
22	36	1
104	104	2
141	141	1
92	92	1
163	180	1
78	79	1
8	13	1
101	112	1
97	98	1
47	92	1
83	83	3
18	20	1
77	85	1
130	185	1
11	19	1
34	34	1
87	88	2
130	136	1
130	131	1
153	154	1
15	15	2
147	148	1
20	31	1
98	98	1
136	137	1
93	94	1
142	142	2
25	27	1
175	179	1
128	140	1
115	117	1
164	165	1
76	78	1
127	128	1
18	19	1
146	146	1
183	183	1
158	159	1
190	190	1
80	109	1
163	163	1
72	89	1
38	39	1
8	15	1
73	74	1
186	186	1
55	55	1
