18	19	2
107	107	3
144	146	4
75	75	4
90	90	6
23	50	1
108	108	5
9	10	1
9	11	1
42	76	1
114	114	6
72	130	1
143	143	4
30	30	4
117	117	7
67	67	7
92	92	3
111	112	3
138	139	2
86	86	6
112	113	2
15	49	2
20	21	3
15	15	4
146	146	3
115	115	8
79	79	4
10	10	7
90	110	1
80	81	1
129	129	5
131	137	1
65	65	2
16	16	6
79	80	1
93	96	1
113	116	1
118	118	5
101	101	9
7	29	1
145	146	1
125	125	7
157	157	7
66	66	4
41	49	1
144	145	1
87	87	5
131	131	7
11	11	4
17	17	2
139	141	2
64	120	1
6	6	4
100	100	6
134	135	1
137	137	3
132	132	2
11	15	1
2	3	1
132	134	2
110	111	3
18	18	4
37	39	2
2	2	7
21	21	3
114	145	1
105	105	7
48	49	2
37	38	5
80	80	5
31	31	4
158	158	4
116	137	1
5	5	2
138	138	3
128	128	5
64	65	1
130	132	2
108	109	3
110	113	1
69	69	3
139	139	7
117	118	2
124	137	1
22	40	1
91	91	11
94	94	5
116	116	3
106	111	2
127	127	10
77	77	3
132	133	3
144	144	3
154	154	3
55	55	3
88	89	2
99	100	4
145	148	1
106	107	3
44	45	1
125	126	5
134	134	8
8	51	2
136	136	7
118	119	2
85	86	1
98	98	3
8	9	2
141	142	1
50	50	5
119	119	5
62	62	2
22	22	3
23	24	1
25	25	5
111	111	7
50	68	1
123	123	12
47	47	2
141	141	5
124	124	3
57	145	2
112	112	5
126	127	2
105	138	1
109	109	5
156	156	2
26	26	4
46	46	5
108	123	1
32	32	1
97	97	2
135	136	3
148	148	2
89	89	4
106	106	6
133	133	4
65	78	1
113	115	1
155	155	3
86	123	1
153	153	2
32	33	1
53	54	1
100	128	1
149	149	2
152	152	3
63	63	2
70	71	1
51	51	1
152	154	3
85	87	1
122	122	5
148	149	1
43	43	2
133	139	2
79	135	1
69	70	3
48	48	5
38	38	7
86	95	1
9	9	2
40	40	3
113	120	2
75	150	1
24	24	4
147	154	1
140	140	5
113	113	3
91	96	1
95	95	2
67	70	3
84	86	2
111	138	1
92	139	1
3	5	1
33	49	2
150	150	6
20	30	1
33	33	2
120	121	2
147	147	4
41	41	2
82	83	2
35	35	2
26	47	1
0	0	3
89	98	1
154	155	1
77	129	1
66	67	2
5	29	1
76	76	2
88	88	4
34	35	1
96	97	2
44	86	2
112	150	1
126	131	1
10	43	1
130	130	3
50	55	1
135	135	4
104	137	1
87	118	1
127	128	3
88	118	1
120	120	6
93	93	6
81	81	1
65	105	1
99	99	3
64	64	1
124	125	6
125	147	1
70	70	2
124	144	1
8	8	4
44	44	3
52	52	5
67	68	1
89	115	1
54	54	1
34	49	2
26	27	2
140	141	2
126	126	2
101	151	1
8	10	4
27	142	1
103	103	3
115	140	1
108	133	1
49	49	2
10	11	1
87	88	1
68	68	1
17	19	1
152	153	1
83	83	4
7	7	1
46	50	1
117	123	1
78	89	1
63	110	1
94	95	2
73	73	3
108	144	1
90	124	2
16	39	1
39	39	2
42	42	5
78	78	4
40	66	1
65	84	1
122	124	2
83	84	2
151	155	1
5	140	1
22	47	1
96	96	2
106	128	1
115	117	1
2	6	1
10	12	1
56	56	2
121	122	4
111	121	1
28	28	4
14	15	1
37	37	4
20	20	2
133	134	2
136	137	3
145	145	4
146	147	3
108	111	1
81	82	1
27	51	1
128	131	1
14	27	1
64	95	1
15	19	1
46	89	1
12	13	1
120	132	1
101	102	2
122	123	1
65	70	1
71	71	2
4	5	1
111	113	1
149	150	1
6	90	1
82	122	2
116	133	1
128	148	1
137	146	1
62	63	1
31	40	1
84	84	2
13	14	2
69	71	1
150	154	1
148	154	1
3	3	1
21	22	1
79	82	1
121	123	4
142	142	2
81	88	1
114	123	1
75	77	1
97	119	1
100	101	1
135	137	1
35	109	1
118	121	1
25	39	1
64	134	1
102	102	1
151	157	1
39	40	1
151	151	1
131	155	1
104	104	2
121	121	3
140	148	1
8	11	1
29	99	1
19	20	1
7	13	2
20	57	1
91	92	1
48	51	1
106	148	1
72	72	1
68	69	2
45	45	3
95	122	1
50	52	1
1	2	1
13	47	1
95	141	1
109	111	2
40	114	1
30	47	1
19	19	1
29	30	1
105	127	1
144	147	1
142	143	2
40	41	1
27	27	1
116	123	1
126	135	1
16	119	1
88	95	1
110	110	2
128	152	1
5	6	1
87	89	1
112	114	1
29	45	1
50	53	1
104	106	1
119	130	1
145	147	1
80	82	1
123	127	1
128	133	1
36	38	1
89	93	1
42	43	1
6	8	1
83	89	1
39	43	1
102	104	1
91	127	1
73	129	1
30	75	1
8	68	1
24	30	1
43	45	1
23	23	1
114	115	1
126	136	1
132	151	1
108	110	1
102	129	1
66	70	1
40	69	1
53	53	1
17	48	1
1	1	1
121	124	1
97	98	1
2	4	1
124	147	1
82	82	1
155	156	1
90	116	1
120	136	1
15	47	1
66	132	1
104	105	1
32	41	1
117	143	1
105	107	1
74	142	1
12	12	1
