29	30	1
93	93	2
130	134	2
37	42	1
89	90	1
144	144	1
96	96	3
105	105	3
142	142	4
89	92	2
62	63	2
24	24	2
20	20	4
143	144	2
102	102	7
3	81	2
21	100	1
53	53	2
82	84	1
123	123	1
37	37	2
98	106	1
128	136	2
8	13	1
26	26	2
120	120	1
96	99	1
125	126	1
22	22	2
120	128	1
73	75	1
15	25	1
27	39	2
42	42	3
96	106	1
111	111	1
136	139	2
40	40	1
82	82	2
2	2	2
20	95	1
16	16	2
111	137	1
36	36	1
104	104	6
60	60	1
9	9	5
127	130	1
40	41	1
107	109	2
135	135	1
10	10	1
53	54	1
38	41	1
35	36	1
73	73	1
62	62	3
108	108	2
0	1	2
116	116	1
141	141	3
80	80	1
51	51	1
67	90	1
30	33	1
124	124	4
55	57	1
115	134	1
86	140	1
25	25	2
23	23	1
65	65	1
97	97	3
128	128	1
92	139	1
107	107	6
18	18	2
134	134	1
61	62	2
0	0	1
86	86	2
103	104	2
118	118	1
66	66	3
67	68	1
73	74	2
99	99	1
61	61	1
90	90	1
50	50	5
19	19	6
77	77	1
109	110	1
76	76	1
132	132	1
121	121	1
101	101	1
6	10	1
116	118	2
47	47	2
96	97	2
107	111	1
127	128	1
85	110	2
70	71	1
94	94	3
81	99	1
129	129	2
71	72	1
29	29	1
54	54	1
1	1	1
13	13	2
134	136	1
6	6	3
65	66	1
121	123	1
57	59	1
94	105	1
1	2	1
93	94	1
90	104	1
16	24	1
26	48	1
112	123	1
135	137	1
24	25	1
51	76	1
92	92	1
56	56	1
55	56	3
28	28	1
62	128	1
83	84	1
67	67	1
38	38	1
31	32	1
54	61	1
52	52	1
119	119	2
69	69	2
86	87	1
114	114	3
145	145	2
49	52	1
74	74	2
90	91	1
15	16	1
131	131	2
91	91	2
31	31	3
89	89	2
4	6	1
98	99	2
74	86	1
81	106	1
103	103	2
26	56	1
106	106	1
140	140	1
32	32	1
19	37	1
34	35	1
56	57	1
27	126	1
57	75	1
68	68	1
100	101	1
81	81	2
47	87	1
37	53	1
20	54	1
76	110	1
17	17	1
64	64	1
97	98	1
143	143	2
70	88	1
62	106	1
75	98	1
103	129	1
67	80	1
131	132	1
136	136	2
58	59	1
137	138	1
112	117	1
35	35	2
107	108	1
53	58	1
43	43	1
116	117	1
78	78	1
118	129	1
89	109	1
105	111	2
119	126	2
97	102	1
79	79	1
41	41	1
63	71	1
14	15	1
91	92	1
15	15	1
126	128	1
68	69	1
81	82	1
83	85	1
21	21	1
113	114	1
49	49	1
76	77	1
