56	56	7
96	96	4
83	83	6
86	130	1
129	134	1
23	23	8
85	85	9
91	91	2
96	122	1
94	94	6
123	124	5
108	108	9
44	44	10
46	46	3
17	17	5
128	132	1
57	59	3
74	74	3
8	8	3
66	66	5
61	61	8
91	92	3
43	43	6
95	96	4
64	64	7
100	101	1
63	63	4
132	133	1
10	10	4
130	130	3
124	124	9
14	15	2
18	18	6
62	62	5
1	5	1
93	93	6
37	55	1
2	32	3
9	10	2
32	95	2
59	59	6
84	106	1
102	105	1
77	77	6
71	71	6
131	132	4
86	86	4
122	122	9
57	57	5
92	92	7
76	76	6
115	115	5
28	29	1
125	125	6
87	87	3
7	7	5
14	16	2
82	83	4
3	3	7
55	55	5
119	119	11
55	57	1
16	16	5
117	117	15
123	123	3
6	6	5
69	69	10
33	90	1
8	9	2
115	121	1
131	131	5
112	113	2
20	26	1
113	116	1
72	72	7
33	33	4
65	65	11
27	28	2
5	5	3
30	42	2
73	73	4
12	14	1
111	111	7
107	107	4
70	70	6
126	126	3
116	116	6
43	48	1
98	98	4
4	4	5
34	34	3
44	73	2
106	107	3
43	46	1
2	11	1
45	45	7
83	84	1
34	38	1
124	125	2
32	32	9
79	79	1
12	12	1
105	106	2
114	114	6
78	78	6
63	64	3
35	36	1
114	120	1
92	102	1
105	105	2
42	43	4
35	35	5
54	55	2
9	9	6
118	118	10
104	105	1
117	125	1
112	112	12
28	28	6
37	39	1
2	2	10
84	84	5
105	107	1
1	1	3
47	48	2
120	120	6
66	67	2
14	14	5
127	127	8
0	1	2
127	128	2
60	60	6
15	15	5
14	17	2
41	42	3
129	129	3
96	103	1
64	96	1
67	67	3
114	115	4
38	39	1
134	134	6
82	82	9
101	102	2
69	70	1
11	11	3
26	43	1
19	44	1
78	102	1
42	42	3
94	95	2
102	102	4
47	47	9
39	41	2
64	66	1
121	121	3
21	21	2
78	79	2
0	0	8
62	63	1
99	99	5
20	20	5
8	16	1
110	110	7
94	96	2
27	27	3
23	26	1
130	133	1
88	88	3
105	131	1
130	131	1
133	134	5
87	88	3
43	100	1
111	112	3
81	81	6
79	83	1
29	29	4
28	37	2
110	131	1
109	109	6
104	104	4
13	43	1
95	100	1
57	94	2
68	68	5
106	106	3
18	36	2
21	39	1
57	58	2
75	75	5
7	15	1
84	85	2
97	98	4
15	17	1
65	66	2
110	121	1
39	39	1
82	116	2
90	100	2
41	41	3
40	40	2
33	38	1
49	49	2
9	85	1
116	117	1
94	110	1
19	19	3
36	38	2
113	113	2
67	69	1
133	133	7
111	120	1
92	93	1
20	36	1
85	90	1
97	97	5
34	36	1
101	121	1
97	100	1
16	17	2
37	38	2
13	13	3
126	128	1
37	37	2
68	69	1
126	130	1
79	89	1
113	117	1
91	110	1
124	126	1
32	33	1
1	2	3
75	100	1
43	47	2
97	112	1
93	94	2
94	98	1
70	71	1
74	75	4
81	86	1
64	65	1
37	43	1
75	110	1
40	50	1
22	23	1
73	86	1
108	125	1
65	67	1
7	122	1
132	132	2
25	25	1
108	110	1
4	5	1
44	77	1
36	36	4
37	40	2
24	24	2
79	82	1
30	31	3
31	31	2
120	122	1
58	58	3
30	30	2
117	124	1
48	49	1
100	100	4
13	15	1
39	40	2
82	87	1
75	76	1
95	95	1
120	121	1
5	11	1
131	133	1
73	74	2
6	59	1
129	130	2
98	99	1
104	111	1
72	73	1
61	62	2
78	115	1
110	128	1
6	9	1
7	19	1
99	100	1
1	4	1
88	102	1
81	89	1
32	35	1
60	72	1
85	94	1
115	116	1
7	90	1
43	44	1
15	26	1
71	72	2
59	60	1
90	98	1
77	78	1
12	16	1
115	130	1
77	119	1
7	70	1
81	85	1
36	37	1
122	123	1
19	27	1
23	24	1
25	27	1
44	48	1
88	121	2
73	75	1
40	42	1
78	93	1
105	111	2
34	35	1
102	130	1
97	99	1
128	130	1
22	22	1
18	22	1
10	11	1
31	32	1
47	134	1
90	104	1
20	22	1
127	130	1
126	133	1
103	108	1
26	26	1
119	120	1
34	117	1
99	101	1
55	56	1
73	94	1
109	131	1
77	109	1
90	91	1
