100	100	8
46	46	9
104	104	5
63	64	1
81	82	2
120	121	2
120	120	1
107	109	1
102	102	10
3	5	2
70	70	4
125	125	6
92	92	9
27	27	5
95	95	3
96	96	3
124	125	2
106	106	10
106	128	1
39	40	3
26	34	2
12	12	3
64	80	2
72	72	3
110	110	4
82	82	3
33	38	1
93	93	9
107	107	6
113	113	3
94	94	6
81	100	1
28	45	2
126	126	6
14	14	1
91	91	2
0	1	1
42	43	2
50	50	2
74	74	4
48	48	5
13	14	2
42	42	5
37	37	1
59	59	3
98	98	3
98	122	1
90	90	4
46	48	1
5	5	1
118	118	5
108	108	3
38	40	1
41	41	4
71	72	2
130	131	1
85	98	1
123	123	7
109	109	7
4	4	2
17	17	2
16	16	3
76	104	1
58	62	1
116	116	4
24	28	1
90	91	4
24	24	5
77	77	2
55	55	4
126	130	1
92	95	1
102	107	1
88	89	1
132	132	4
56	72	1
99	99	4
88	88	3
60	62	1
65	65	1
85	85	2
47	47	6
31	32	2
18	19	1
115	115	2
101	101	3
22	22	3
111	111	6
84	84	1
15	16	2
102	106	1
60	61	1
8	50	1
112	112	2
66	100	1
31	33	2
67	67	3
40	43	1
133	133	3
90	92	4
6	7	1
49	49	3
71	71	2
44	67	1
74	79	1
103	103	3
9	9	1
45	45	2
51	51	4
66	74	2
68	68	3
97	98	2
82	97	2
100	106	1
83	83	2
30	43	1
21	24	1
95	96	2
64	64	1
64	65	3
29	29	7
54	55	1
124	131	1
105	105	4
111	117	1
119	119	4
32	33	1
127	127	3
117	124	2
86	90	1
68	108	1
10	12	1
42	87	1
92	105	1
90	100	3
26	26	4
2	94	1
128	128	4
61	62	1
75	75	5
65	70	1
69	69	1
129	129	2
15	15	2
25	25	2
101	102	2
66	67	1
62	62	2
39	39	4
97	97	3
11	11	1
3	3	3
53	54	1
50	51	2
109	111	1
61	61	3
108	109	2
89	89	4
12	13	1
42	62	1
86	87	1
104	105	2
20	21	1
76	76	2
10	48	1
30	30	3
28	29	2
54	54	3
112	113	1
87	87	1
24	34	1
32	32	1
65	68	1
19	19	2
125	127	1
7	7	3
91	92	2
61	63	2
94	95	1
101	105	1
23	27	1
92	106	1
31	31	1
33	33	1
28	28	1
16	17	3
81	81	3
105	106	3
75	78	1
90	93	1
44	45	1
130	130	1
73	99	1
21	22	2
100	108	1
88	90	1
75	86	1
113	115	1
71	75	1
92	108	1
45	53	1
84	91	1
131	132	2
64	89	1
58	58	3
72	73	4
60	60	1
57	107	1
121	121	3
34	34	1
57	57	2
13	13	1
111	113	1
59	88	1
124	124	2
27	28	2
89	90	1
69	122	1
15	17	1
56	76	1
49	50	3
67	68	1
58	65	1
71	98	1
43	45	1
20	20	1
68	69	1
27	29	1
18	18	3
132	133	1
45	46	1
25	117	2
21	21	1
82	83	1
0	0	2
97	99	1
76	83	1
45	54	1
53	53	2
43	60	1
60	82	1
128	129	2
79	105	1
63	66	1
6	6	1
118	119	1
5	6	2
109	110	1
68	76	1
51	52	2
14	28	1
44	44	2
97	103	1
128	130	2
38	38	1
98	123	1
52	52	1
114	117	1
26	27	1
32	39	1
69	70	1
78	78	1
110	111	1
96	98	1
46	47	1
72	88	1
123	124	1
4	6	1
116	119	1
10	10	1
47	48	1
105	107	1
68	72	1
87	96	1
27	32	1
58	126	1
113	114	1
48	49	1
76	96	1
56	57	1
