66	66	2
76	76	1
108	108	1
149	149	2
173	175	3
42	42	3
153	154	2
94	94	2
89	89	3
20	20	4
75	93	1
140	140	2
14	14	5
42	43	1
114	114	8
144	144	1
101	101	1
153	153	2
10	10	5
171	171	3
71	71	5
176	176	2
39	39	1
113	113	2
134	134	3
118	118	1
139	156	1
34	36	4
151	161	1
56	56	4
83	83	2
40	40	2
3	3	1
180	180	2
143	144	1
68	68	1
38	38	2
86	114	1
119	141	1
113	117	1
118	132	1
2	2	2
156	176	1
97	97	3
11	11	1
26	27	1
124	145	1
7	8	3
112	112	3
37	37	4
168	169	1
128	128	2
100	100	1
156	157	2
131	131	2
170	170	1
152	170	1
43	43	1
6	6	1
24	28	1
175	175	2
160	162	3
53	53	1
32	34	1
9	15	1
18	23	1
99	120	1
172	173	1
15	42	1
0	54	1
84	100	1
105	128	1
158	158	2
138	139	2
132	132	4
101	123	1
148	148	6
141	141	1
93	93	2
100	101	2
110	118	3
85	85	2
15	16	1
146	147	3
4	21	1
3	4	2
161	162	1
132	166	1
99	102	2
16	16	1
30	31	2
16	19	1
127	143	1
154	154	1
34	34	1
154	155	1
111	111	1
79	79	2
150	175	2
5	5	1
38	45	1
75	75	2
106	106	1
4	8	1
4	4	1
146	146	1
174	174	3
74	81	1
39	43	1
142	179	1
131	157	1
168	170	1
14	27	2
150	150	2
5	7	3
10	26	1
55	55	1
161	167	1
62	63	2
119	120	1
95	97	1
178	178	2
7	7	2
129	145	1
0	14	1
8	8	1
27	28	1
83	84	3
145	153	2
138	138	1
107	107	1
70	78	1
20	21	2
19	27	1
137	137	2
119	119	1
130	130	1
156	161	1
160	161	1
42	45	1
87	88	1
28	41	2
141	145	1
172	172	4
58	63	1
81	82	1
36	39	2
54	68	1
27	27	2
94	113	2
33	40	1
67	67	2
60	62	1
145	171	1
29	29	1
14	16	1
86	86	3
124	124	1
78	133	1
108	112	1
41	41	1
104	131	1
82	88	1
120	120	2
18	27	1
160	166	2
23	23	2
77	78	1
134	173	1
156	156	2
126	126	1
117	117	2
15	15	1
109	109	2
19	44	1
76	90	1
152	152	1
57	57	2
99	100	2
87	110	1
55	56	1
135	135	1
77	77	1
99	99	2
140	154	2
39	42	2
133	134	1
148	170	1
30	32	1
157	157	2
146	148	2
168	171	1
28	35	1
32	56	1
64	64	1
10	43	1
144	145	1
115	116	1
139	139	2
35	51	1
87	87	2
96	96	3
22	22	2
78	78	1
26	35	1
12	12	1
158	163	1
84	95	1
12	23	1
110	110	1
0	0	2
102	102	3
65	65	2
163	163	1
153	156	1
177	177	1
128	160	1
10	40	2
121	122	1
116	117	1
151	151	1
43	44	1
19	19	1
126	133	1
92	92	2
131	149	1
141	142	1
149	169	2
67	72	1
67	68	1
146	163	1
24	24	1
132	133	2
67	77	1
36	36	2
31	31	1
145	152	1
121	123	1
166	166	1
32	60	1
92	106	1
95	95	1
52	52	1
65	66	1
127	128	1
39	139	1
51	51	1
165	165	1
13	13	1
26	32	1
129	131	1
94	133	1
35	35	1
151	158	1
108	109	1
164	167	1
5	9	1
162	163	1
18	18	1
54	54	1
2	5	1
145	149	1
168	168	1
145	145	3
107	123	1
159	159	1
150	151	1
83	86	1
30	30	2
111	123	1
151	157	1
163	165	1
103	169	1
52	56	1
80	80	1
179	180	1
82	82	1
152	165	1
7	37	1
32	32	1
92	109	1
99	113	1
83	85	1
3	14	1
26	40	1
58	64	1
73	90	1
