162	163	6
49	49	13
142	142	9
140	141	5
22	22	8
62	65	1
129	129	4
108	109	2
16	16	11
106	106	6
151	152	4
146	146	8
17	18	4
7	7	16
43	43	20
47	48	4
48	52	3
1	41	1
161	161	10
114	151	1
71	71	4
158	158	11
14	14	11
74	74	3
11	11	12
45	106	1
3	34	1
12	13	3
4	13	1
22	23	4
128	128	8
159	159	11
53	54	1
157	158	2
50	51	4
54	54	5
100	102	1
38	38	12
149	149	14
36	36	5
40	40	12
18	18	13
134	134	9
97	99	1
20	140	1
126	159	1
159	170	1
82	83	2
6	6	14
76	90	3
135	135	7
69	69	7
116	120	1
39	39	8
118	118	6
166	167	2
136	136	7
68	71	1
71	102	1
18	25	1
137	149	2
38	39	4
145	145	9
117	123	1
138	138	7
140	161	1
113	129	1
34	34	10
131	131	6
12	12	11
114	128	1
41	42	3
90	91	4
25	25	10
66	75	1
8	8	7
120	121	3
3	4	2
87	99	2
164	164	5
169	169	6
41	52	1
99	117	1
15	15	13
152	152	4
155	155	5
90	108	1
48	48	4
15	16	3
150	150	6
115	127	1
168	168	6
148	148	7
97	97	3
139	142	2
11	12	4
82	82	1
170	170	15
64	91	2
8	44	2
24	24	8
153	153	5
132	132	9
44	48	1
102	102	8
45	76	1
45	45	5
130	130	7
69	73	1
5	5	9
7	37	1
84	84	6
46	47	6
147	149	2
0	9	1
126	126	7
126	127	3
90	90	6
37	37	12
87	88	7
47	47	4
3	3	7
5	45	2
116	121	1
93	93	3
53	53	3
156	157	2
112	112	8
163	164	2
63	63	5
125	125	6
6	39	2
148	155	1
21	22	7
150	157	1
17	17	6
107	169	1
138	149	1
4	4	7
144	148	1
17	20	2
85	85	3
147	147	14
68	68	5
135	146	1
168	170	1
19	19	5
1	2	3
100	101	5
162	162	9
46	55	2
81	81	7
139	139	9
79	120	2
68	73	1
73	73	7
149	150	4
167	167	7
66	67	3
9	24	3
2	2	9
91	91	3
35	35	8
101	103	1
103	103	4
102	110	1
1	1	7
64	64	3
4	5	1
144	144	3
154	155	3
33	33	4
112	137	1
114	155	1
6	7	3
127	127	4
148	168	1
55	142	1
137	137	10
107	109	1
136	139	1
102	104	2
160	161	3
151	161	3
100	138	1
156	156	9
131	137	1
55	56	3
73	74	2
70	70	5
52	57	1
147	163	2
20	20	11
116	119	1
42	119	1
50	50	6
101	101	3
100	100	6
141	141	8
157	157	7
152	161	1
75	89	1
46	49	2
40	41	3
99	99	4
98	98	5
97	108	1
38	40	2
86	86	6
4	11	1
98	135	2
4	6	2
163	163	5
0	0	2
99	105	1
159	161	1
94	94	6
110	143	3
122	130	1
89	91	2
56	56	5
102	126	1
120	120	4
23	23	3
74	75	2
161	168	1
84	108	1
65	65	2
19	22	1
5	161	1
19	20	3
165	165	5
19	25	2
55	58	1
119	119	7
112	139	1
56	57	1
117	137	2
38	51	1
120	124	2
96	122	1
163	167	3
117	140	1
142	145	2
128	132	1
61	61	1
151	151	8
5	11	3
6	9	3
66	128	1
0	6	1
21	26	1
107	107	3
36	43	2
116	126	1
50	57	2
9	25	1
89	90	1
78	82	1
148	153	2
121	121	3
13	13	6
78	78	5
94	104	1
2	3	1
75	75	5
85	88	2
35	36	4
156	164	1
88	89	2
143	147	1
9	144	1
161	166	1
65	162	1
144	146	2
72	72	3
93	94	2
26	28	1
16	17	2
100	105	1
1	13	1
9	9	7
129	133	1
48	97	1
26	134	1
99	101	1
152	163	2
158	166	1
106	130	2
27	27	7
54	55	4
0	4	1
95	119	1
106	107	2
142	143	3
62	87	1
135	136	2
166	166	11
88	88	5
154	157	1
158	161	2
10	14	1
45	46	2
102	103	3
83	83	10
137	151	1
37	89	2
28	41	2
89	89	6
141	153	2
8	9	2
84	85	2
90	97	1
22	25	1
154	156	3
52	52	4
19	21	2
18	22	1
52	79	1
140	150	2
0	1	2
21	25	1
44	45	3
10	51	2
92	92	5
22	46	1
14	21	1
110	110	3
22	24	2
136	137	5
71	80	1
104	104	2
132	133	3
159	160	3
160	162	1
114	114	6
20	21	2
95	95	2
34	44	1
9	10	4
83	160	1
119	131	1
114	115	4
93	97	1
17	136	2
115	115	3
154	154	7
18	23	2
57	64	1
83	102	1
77	77	6
20	24	1
78	79	1
110	111	1
65	67	1
38	43	1
39	41	3
72	73	1
93	110	1
138	148	1
51	51	7
122	132	1
145	164	1
138	139	3
113	113	4
70	72	1
146	147	1
20	22	1
95	96	2
149	151	1
5	6	3
169	170	4
48	51	2
109	109	3
97	101	1
48	54	1
101	134	1
122	122	5
145	166	1
82	112	2
112	113	2
14	47	1
135	168	1
103	104	2
45	71	1
121	122	2
17	52	2
80	83	1
36	42	1
86	121	1
25	46	2
1	3	1
7	21	1
68	72	1
49	104	2
72	83	1
150	151	5
119	146	1
68	69	4
105	107	1
50	68	1
117	130	1
80	86	1
127	130	1
163	169	1
129	161	1
130	136	1
57	57	2
96	97	2
41	41	4
44	44	9
125	129	1
160	160	6
95	99	1
157	161	2
123	124	7
22	47	1
129	156	1
71	88	1
46	48	1
117	117	5
1	4	1
13	16	1
70	96	1
99	106	1
14	15	2
97	141	1
100	135	1
84	91	1
28	28	4
65	82	1
144	145	2
16	20	1
57	63	1
7	10	2
163	166	1
76	76	3
79	79	1
96	96	5
139	154	1
150	159	1
96	115	1
91	93	1
62	63	1
87	153	1
66	74	1
111	111	5
161	162	3
11	36	1
38	84	1
73	167	1
61	96	1
126	138	1
6	8	1
154	162	1
122	123	3
21	21	2
47	49	1
5	9	2
114	118	1
140	152	1
91	97	1
90	138	1
47	53	3
130	138	1
124	142	1
94	100	2
8	10	1
152	164	1
90	92	1
143	161	1
143	144	5
105	106	2
119	121	1
18	24	1
162	164	2
7	14	1
76	94	1
139	143	3
118	122	1
40	46	1
10	47	1
10	25	1
18	19	3
157	160	1
97	98	1
54	57	2
7	15	1
99	103	1
34	37	1
55	55	3
150	155	1
134	140	1
36	41	1
99	108	1
133	135	1
139	140	1
46	46	3
42	42	3
11	13	2
133	133	4
143	143	7
142	152	1
136	138	1
137	138	2
100	106	1
89	148	1
81	82	1
26	26	5
124	124	1
96	104	1
156	166	1
94	102	1
151	163	1
104	154	1
13	14	2
70	73	1
9	57	1
134	146	1
3	44	1
11	16	1
140	143	1
35	46	1
10	94	1
72	75	1
117	118	3
54	56	1
87	97	1
69	130	1
101	113	1
67	67	2
73	155	1
87	89	1
144	168	1
108	108	3
72	87	1
25	50	1
53	56	1
124	140	1
127	129	1
86	87	2
33	35	1
113	114	2
124	135	1
7	8	3
90	110	1
146	162	1
132	137	1
123	148	1
2	4	1
72	99	1
89	137	1
127	132	1
118	134	1
10	10	4
140	140	3
82	116	1
16	43	1
92	93	4
114	126	1
145	146	2
80	82	1
11	18	1
105	105	4
43	44	1
164	167	2
147	148	3
148	149	1
46	73	1
27	119	1
1	12	1
82	84	1
8	20	2
12	154	1
77	80	1
65	80	1
75	81	1
70	76	1
151	154	1
26	27	3
94	95	1
79	85	1
33	34	2
49	68	1
128	141	1
25	40	1
85	110	1
111	115	1
147	158	1
82	93	1
34	42	1
9	17	1
66	71	1
93	107	1
152	153	2
114	162	1
39	40	1
144	147	1
6	26	1
5	14	1
63	84	1
61	67	1
62	79	1
123	123	2
58	85	1
120	122	1
36	37	2
93	98	2
81	113	2
99	100	2
124	125	2
17	21	1
20	151	1
111	116	2
80	80	1
3	168	2
119	138	1
121	129	1
51	52	1
119	158	1
149	161	1
24	27	1
1	14	1
47	56	1
51	54	1
138	142	1
71	76	1
151	159	1
5	44	1
16	159	1
113	133	1
91	140	1
91	94	1
125	126	2
82	91	1
27	28	1
11	14	1
6	45	1
19	147	1
4	108	1
143	155	1
141	147	1
114	135	1
147	157	1
52	54	1
16	22	1
151	153	1
148	156	1
106	127	2
18	26	1
123	162	1
125	130	1
45	57	1
83	84	2
112	114	1
118	123	1
121	123	1
115	117	1
16	38	1
54	143	1
76	77	1
62	62	1
46	50	1
90	105	1
108	110	1
134	149	1
122	153	1
35	87	1
155	166	1
87	87	3
98	107	1
133	134	1
122	134	1
94	105	1
118	119	1
162	165	1
43	135	1
104	123	1
25	151	1
39	108	1
90	137	1
13	17	1
15	18	1
68	80	1
148	162	1
111	112	1
81	100	1
57	134	1
8	23	1
119	120	1
118	133	1
0	7	1
12	49	1
93	101	1
3	37	1
114	133	1
153	156	1
115	116	1
23	146	1
84	160	1
131	146	1
40	45	1
47	72	1
48	49	1
109	110	1
51	57	1
76	85	1
105	124	1
128	129	2
81	84	1
145	162	1
138	170	1
2	150	1
121	133	1
113	128	1
155	158	1
165	166	1
97	110	1
122	124	1
23	24	1
7	25	1
165	167	1
74	101	1
10	11	1
69	74	1
