54	54	3
134	134	2
56	56	3
43	43	6
215	215	3
23	23	4
220	224	2
155	155	4
151	168	1
227	227	5
182	182	3
14	14	4
103	122	3
131	136	1
137	138	4
84	84	3
183	187	1
171	175	2
225	226	1
242	242	4
239	239	2
189	189	5
157	157	7
6	12	1
153	153	5
233	235	1
123	123	3
168	182	2
170	231	2
40	53	2
48	49	1
42	42	1
27	238	5
128	128	2
57	57	2
46	46	1
102	119	2
76	76	7
107	108	1
186	186	4
172	172	3
169	169	6
5	5	2
35	36	2
13	14	1
89	120	2
112	113	2
7	7	4
10	11	3
117	117	6
30	37	2
47	85	2
206	220	1
118	118	2
124	124	3
80	80	8
64	64	2
130	130	1
51	51	2
139	139	2
178	217	1
173	173	5
154	154	6
19	19	2
97	97	1
188	189	1
10	10	2
152	153	2
3	3	10
206	206	7
64	74	1
138	138	3
146	147	2
24	24	4
62	63	1
176	176	9
7	8	4
172	178	1
156	158	2
79	81	1
105	105	3
36	36	4
107	144	1
78	78	1
38	70	1
165	165	1
11	37	1
159	160	2
49	49	10
239	240	1
69	69	3
181	181	2
125	126	2
50	50	1
37	38	1
161	170	1
168	168	4
229	229	2
203	203	2
104	105	2
131	131	4
155	167	2
38	38	3
115	116	2
39	39	4
21	23	2
148	148	3
25	39	1
45	45	4
25	25	1
77	77	4
119	119	7
220	220	5
63	63	3
129	130	2
115	115	2
224	224	5
108	144	1
67	67	3
44	45	4
31	31	3
74	74	3
11	11	2
26	72	1
217	217	3
178	197	1
71	71	3
185	185	4
129	129	3
16	37	1
151	151	4
199	199	3
209	209	3
223	224	1
222	222	3
135	135	1
127	127	4
221	221	1
189	203	1
48	48	3
213	213	1
197	198	1
120	120	1
57	213	1
119	121	1
217	219	1
241	241	2
130	134	1
211	211	3
161	180	1
144	144	2
159	161	1
22	23	3
76	77	2
156	156	5
228	229	4
148	162	1
97	176	1
147	147	4
106	144	2
83	84	2
188	188	1
34	34	4
188	214	1
15	15	2
19	35	1
158	158	1
52	52	2
9	9	2
153	154	3
181	197	1
145	146	2
102	102	2
219	219	4
20	20	2
31	47	1
106	234	1
24	25	1
107	107	4
158	179	1
5	6	1
107	143	2
146	146	3
167	167	3
33	33	6
218	218	3
71	73	1
65	147	1
2	4	1
163	163	1
168	169	2
111	119	1
166	166	4
134	135	1
8	75	1
118	126	1
238	238	2
75	75	5
69	70	1
68	68	3
72	72	2
60	60	3
64	73	1
1	1	2
28	32	1
119	120	2
136	136	4
82	82	1
60	187	1
102	105	1
236	238	1
192	199	1
70	70	3
145	145	3
51	78	1
108	108	2
12	12	1
86	87	1
205	205	1
187	187	2
16	20	1
179	179	2
98	149	1
81	81	3
150	151	3
7	37	2
159	159	2
74	88	1
208	208	2
140	142	2
21	22	3
176	178	1
170	187	1
49	50	3
28	72	3
70	71	1
101	119	1
175	177	1
133	145	1
180	181	3
90	113	1
103	103	1
53	54	1
4	4	2
47	47	4
91	91	1
214	214	1
214	228	1
194	194	1
189	190	2
186	187	1
68	69	1
65	169	1
118	238	1
226	226	4
100	100	4
153	170	1
198	198	3
236	236	1
74	79	1
178	178	2
126	126	3
141	141	1
192	205	1
179	180	1
133	133	4
137	137	3
205	206	1
53	68	1
16	16	3
191	191	1
111	111	2
28	39	1
234	236	2
18	19	3
76	80	1
43	75	1
71	72	3
206	210	2
178	179	1
103	105	1
152	152	6
171	172	1
155	168	2
228	228	1
160	163	1
8	8	3
109	109	2
135	138	1
9	55	1
37	37	2
166	168	1
96	96	3
195	195	3
59	59	2
99	99	3
89	89	1
32	33	1
116	116	2
133	134	1
237	237	1
33	36	2
192	193	1
73	219	3
177	177	1
75	78	1
202	202	4
28	29	1
104	142	3
175	178	1
122	122	3
88	88	1
225	225	1
29	29	3
207	209	1
62	66	1
44	44	3
1	207	1
28	28	2
111	171	1
17	17	3
70	207	1
121	121	1
234	235	1
119	130	2
158	160	2
140	140	1
41	42	1
82	83	1
144	146	1
232	233	1
206	207	2
73	73	1
153	157	1
10	44	1
58	58	1
27	27	4
40	40	1
171	171	6
231	231	1
237	238	1
164	164	1
55	80	1
165	166	1
184	228	1
130	176	1
204	204	3
187	188	2
199	200	1
210	210	1
49	53	1
232	232	1
183	184	2
156	162	3
42	78	1
194	195	1
199	226	1
8	39	1
196	199	1
150	150	2
26	26	3
235	238	1
169	170	2
33	37	1
52	53	1
14	15	1
175	176	3
0	27	1
144	167	1
180	180	2
157	158	1
105	112	1
103	104	1
22	22	1
95	106	1
97	175	1
218	241	1
102	103	1
173	174	1
166	167	1
2	3	2
113	113	3
65	65	1
150	153	1
41	41	2
118	120	1
30	31	1
181	182	2
165	183	1
124	126	1
18	18	1
63	66	1
6	6	1
117	137	1
73	74	1
23	231	1
216	217	1
121	179	1
174	175	3
39	42	1
207	207	1
34	36	1
102	152	1
2	2	2
238	240	1
53	53	1
233	233	1
121	122	1
205	227	1
58	60	1
103	169	1
228	230	1
191	197	1
203	233	2
124	125	1
156	157	1
36	37	1
175	175	2
170	209	1
190	190	1
102	178	1
142	143	1
80	81	1
3	5	1
102	131	1
99	100	1
6	7	1
177	191	1
184	198	1
183	183	1
140	141	1
114	115	1
173	176	1
177	178	1
149	160	1
172	175	1
104	104	1
45	73	1
161	161	3
104	143	2
103	143	1
235	235	1
122	166	1
98	98	1
86	86	2
146	166	1
76	83	1
100	101	3
50	57	1
139	143	1
126	127	1
201	201	1
100	159	1
125	125	2
62	62	2
156	181	1
106	181	1
202	234	1
12	23	1
25	26	1
145	157	1
8	71	1
30	30	1
59	185	1
46	47	1
130	131	1
3	4	1
217	220	1
27	72	1
19	50	1
7	9	1
106	114	1
109	127	1
127	152	1
226	227	1
