213	213	6
171	171	2
176	176	2
15	15	3
246	246	8
69	72	1
172	172	2
168	168	4
57	57	5
202	202	6
117	118	2
4	4	3
68	89	1
234	234	6
156	157	1
36	36	6
165	165	3
170	170	5
35	35	3
27	27	5
181	181	3
97	97	3
43	43	7
233	246	1
28	202	1
192	192	2
152	152	1
247	247	4
93	93	6
158	175	2
110	111	3
11	11	3
173	173	3
53	53	6
221	223	1
14	14	4
214	226	2
205	205	3
111	111	3
8	9	2
169	170	1
1	161	1
157	158	2
200	235	1
108	113	1
69	88	1
244	244	5
15	36	1
60	60	2
19	19	5
153	153	2
177	177	6
12	12	5
244	245	1
8	8	2
79	79	2
26	26	5
201	202	2
194	194	1
230	230	1
87	89	1
187	187	4
2	3	2
147	147	3
245	245	8
24	25	2
191	215	1
164	164	3
44	44	7
31	31	2
162	165	1
2	6	1
99	99	3
239	239	1
222	222	2
115	116	1
229	229	5
178	179	1
113	113	7
16	16	3
74	75	2
189	190	1
38	38	7
216	242	2
65	65	3
103	103	4
59	59	3
69	77	2
32	32	6
166	166	3
151	151	4
194	216	1
21	21	6
110	110	4
54	54	5
34	35	1
20	20	3
156	231	1
183	189	1
160	161	1
168	197	1
73	73	2
170	172	1
204	204	6
217	218	1
44	45	2
26	228	1
228	228	3
45	45	2
145	145	2
163	163	4
7	7	5
158	158	2
28	29	2
37	37	6
32	204	1
89	90	1
76	76	2
49	79	2
34	34	4
48	49	2
71	72	2
91	91	2
204	230	1
92	100	2
41	41	3
7	204	1
218	218	2
46	46	6
177	178	1
85	85	2
213	246	3
210	210	3
223	223	4
162	185	1
182	222	1
4	5	2
6	6	4
99	107	1
156	156	5
155	155	3
20	227	1
64	64	2
59	60	2
33	33	2
159	159	1
191	191	2
196	218	1
163	164	2
57	58	1
114	115	2
39	39	3
160	160	5
7	19	1
48	66	1
222	241	2
198	198	4
217	217	1
181	182	1
88	89	2
157	164	1
180	182	1
69	69	2
222	223	2
22	23	2
214	214	4
55	78	1
219	219	4
231	231	1
42	42	3
197	198	3
2	2	4
118	118	1
167	211	1
201	201	8
161	161	1
89	89	1
3	3	2
40	40	7
20	55	1
248	248	1
186	186	2
214	215	1
172	190	1
116	116	6
86	87	1
184	184	5
112	112	2
30	30	6
10	10	3
109	110	1
225	225	3
118	119	1
1	2	1
206	223	1
17	17	1
78	79	1
186	189	1
243	243	1
213	239	1
120	120	1
101	101	4
61	61	1
227	227	1
242	243	1
47	67	1
183	183	3
159	170	1
107	107	1
1	1	2
171	174	1
171	172	2
192	210	1
101	108	1
94	100	2
189	224	1
182	182	3
192	193	1
49	50	1
220	220	2
51	51	2
158	159	1
43	53	1
62	63	1
203	224	1
115	115	2
61	62	1
162	162	4
159	189	1
247	248	2
68	71	2
16	44	1
67	67	4
32	229	1
196	196	2
21	40	1
28	28	2
9	18	1
33	34	1
62	82	1
204	205	1
181	183	2
43	65	1
76	97	1
227	228	1
5	6	1
208	227	1
56	56	1
220	221	1
71	79	1
52	52	3
190	192	1
90	93	1
48	48	6
199	199	1
162	182	1
236	236	4
212	212	2
157	157	4
76	77	1
96	97	1
167	167	1
159	208	1
84	119	1
83	84	1
31	229	1
169	169	1
192	195	2
43	62	1
18	18	1
4	12	1
5	5	2
209	210	1
195	195	1
1	46	1
215	215	1
58	58	4
186	220	1
200	200	2
203	203	5
76	89	1
170	223	1
60	62	1
84	84	4
239	240	2
228	229	4
211	211	5
225	226	1
77	82	1
200	244	1
182	199	1
38	39	1
224	237	1
22	22	6
95	97	1
180	180	1
35	36	2
23	23	4
150	204	1
244	246	1
175	181	1
224	224	3
109	109	2
200	223	1
112	114	1
50	50	2
104	108	1
225	234	2
164	169	1
83	83	2
80	80	3
0	0	2
169	196	1
29	29	3
75	75	2
222	233	1
221	222	1
46	47	2
168	200	1
13	14	1
190	190	1
35	46	1
18	34	1
98	98	2
80	84	1
240	240	1
185	191	1
237	237	2
9	9	2
206	207	1
51	114	1
231	246	1
55	55	2
48	77	1
47	47	1
9	38	1
104	104	1
43	44	1
204	207	1
197	197	2
212	245	2
155	212	1
164	165	1
216	216	1
10	11	1
10	47	1
117	117	1
63	64	1
170	171	1
16	145	1
24	24	1
209	209	1
92	93	1
215	216	1
88	94	1
179	181	1
154	154	3
198	199	2
95	95	2
174	247	1
77	77	1
82	98	1
90	90	2
86	86	1
203	230	1
50	249	1
72	72	2
233	234	2
65	116	1
105	105	2
217	240	1
243	246	1
29	173	1
56	65	1
55	65	1
175	175	2
188	217	1
110	157	1
76	91	1
169	224	1
11	19	1
154	155	1
79	80	1
168	169	1
15	19	1
184	185	1
159	169	1
213	235	1
87	97	1
171	193	1
1	151	1
70	110	1
189	225	2
162	235	1
81	81	1
211	212	2
203	204	1
174	176	1
183	184	1
70	71	1
63	63	1
45	46	1
6	19	1
77	87	1
241	241	1
82	82	1
160	213	1
72	83	1
10	21	1
57	62	1
80	81	1
207	207	1
6	16	1
242	242	1
82	119	1
21	26	1
147	153	1
85	101	1
221	221	1
173	174	1
179	179	1
23	39	1
146	147	1
64	65	1
231	233	2
50	86	1
18	19	1
112	158	1
238	238	1
58	59	1
232	232	1
35	55	1
100	100	1
49	49	1
207	208	1
200	201	1
175	176	1
160	229	1
106	106	1
70	70	1
151	152	1
8	39	1
213	214	1
208	209	1
175	182	1
7	8	1
50	56	1
150	151	1
55	232	1
168	212	1
178	178	1
180	204	1
241	243	1
