91	95	2
5	12	2
108	109	5
46	46	1
108	108	1
111	112	2
57	57	2
48	48	2
89	107	1
4	4	1
92	93	1
122	129	1
27	34	1
87	89	2
90	92	1
123	126	1
87	103	1
102	102	2
109	109	2
122	125	1
115	118	1
3	21	1
54	79	1
92	130	1
48	50	1
72	75	1
117	117	2
99	100	1
8	9	1
23	25	1
30	30	5
64	68	1
79	81	1
130	130	2
75	114	1
55	55	2
85	95	2
73	74	1
106	108	1
119	124	1
78	78	2
89	94	1
44	46	3
123	123	2
81	127	1
20	21	1
96	98	1
64	66	1
2	4	1
53	68	1
74	87	2
5	6	2
32	32	2
112	112	1
98	99	1
58	60	1
54	57	1
42	43	1
92	96	1
33	33	1
6	6	4
113	114	1
92	122	1
119	119	1
85	109	1
25	25	1
110	110	1
56	75	1
81	102	2
73	75	1
128	128	1
102	105	1
114	116	1
86	91	3
50	53	2
101	108	1
90	99	1
81	81	1
118	118	1
82	82	1
7	7	1
47	48	1
123	125	2
76	77	3
54	75	1
60	67	1
66	66	1
61	61	1
83	86	1
21	25	1
63	65	1
75	82	1
89	91	3
80	116	1
76	76	2
25	32	1
57	61	1
29	31	1
22	23	1
30	31	1
93	93	1
66	89	1
32	33	1
43	65	1
22	22	1
87	87	3
114	117	2
120	120	1
11	23	1
86	88	2
4	5	1
59	62	1
125	125	2
48	55	1
68	81	1
107	108	1
94	94	1
66	68	1
68	78	1
97	102	2
93	105	1
49	49	1
70	70	1
78	95	1
72	76	1
60	64	2
72	72	1
88	121	1
87	88	1
10	11	1
29	30	1
5	7	2
28	29	2
43	58	1
75	77	1
43	45	2
54	58	1
74	74	1
121	122	1
107	107	2
114	114	1
83	84	1
94	97	1
82	130	1
98	98	1
108	112	1
59	64	1
3	5	1
7	9	1
101	102	2
8	14	1
23	23	1
2	3	1
95	100	1
11	21	1
19	20	1
69	76	1
13	18	1
2	2	1
24	25	2
122	122	2
90	90	1
42	54	1
97	97	1
72	73	1
101	101	1
126	133	1
29	33	1
47	50	1
104	107	1
117	119	1
59	61	1
10	10	1
105	106	1
31	32	1
115	115	1
105	109	1
0	22	1
10	12	1
110	111	1
