131	132	1
112	112	1
77	77	2
188	189	2
99	100	2
7	7	1
148	170	2
21	29	1
173	174	1
57	57	2
97	98	2
60	60	1
180	180	2
158	158	1
99	99	1
31	31	3
186	186	1
126	127	1
37	37	1
175	177	3
52	53	2
67	67	2
101	101	3
29	29	1
14	14	3
45	45	2
121	121	1
2	2	2
16	16	2
177	177	4
108	108	2
142	160	1
143	143	1
13	17	1
74	74	1
108	140	2
75	76	1
18	18	1
147	148	1
179	181	1
155	179	2
43	44	1
42	42	1
164	164	2
66	66	1
155	155	3
137	143	1
63	63	1
42	43	1
103	103	1
45	48	1
76	76	3
141	144	1
11	12	1
158	159	2
66	93	1
121	122	4
53	53	1
46	47	1
61	61	2
81	111	1
63	65	1
53	54	1
181	182	2
120	122	1
130	138	1
59	59	5
135	169	1
166	180	1
92	92	2
1	1	4
12	12	3
54	54	1
150	150	2
142	159	1
35	42	1
20	44	2
9	9	2
22	23	2
147	147	1
79	79	1
184	186	1
105	113	1
175	175	1
72	72	1
145	146	1
95	95	2
15	15	1
190	190	2
172	172	1
188	188	2
126	147	2
119	119	1
19	30	1
31	32	1
171	173	1
182	182	1
160	169	1
153	155	1
97	97	1
25	48	1
29	30	3
6	6	1
134	136	1
25	42	1
122	123	1
89	89	2
160	160	4
11	11	1
43	53	1
107	107	1
161	163	1
100	113	1
88	88	1
78	90	1
9	48	1
36	36	1
100	100	2
110	110	1
176	176	1
168	169	1
105	130	1
144	170	1
32	33	1
105	105	1
159	160	1
141	145	1
157	157	2
148	148	1
111	147	2
82	82	1
3	3	1
41	42	1
179	182	1
145	158	1
60	92	2
132	132	2
11	42	1
10	11	1
154	155	1
24	40	1
87	87	1
27	27	1
102	102	2
39	39	1
74	154	1
65	65	1
114	173	1
61	93	1
44	47	2
86	87	1
11	98	1
113	113	1
185	185	1
4	110	1
67	90	1
117	118	2
10	10	1
104	104	1
180	183	1
118	118	1
15	16	1
0	0	1
123	180	1
90	93	1
81	81	1
80	80	1
142	155	1
28	29	1
39	48	1
96	98	1
127	127	1
61	62	1
94	109	1
174	174	1
122	122	1
98	105	1
40	41	1
31	33	1
153	153	1
163	170	1
115	119	1
70	71	1
28	32	1
134	134	1
38	38	1
130	133	1
167	174	1
174	185	1
184	184	1
131	135	1
56	56	1
103	123	1
175	176	1
129	129	1
57	62	1
67	68	1
123	123	1
103	127	1
101	118	1
36	43	1
96	96	1
25	25	1
12	17	1
35	35	1
25	47	1
71	71	1
48	55	1
4	4	1
157	165	1
40	40	1
151	151	1
144	145	1
155	173	1
149	149	1
55	55	1
31	45	1
106	129	1
104	105	1
141	173	1
140	178	1
75	75	1
