84	98	1
8	9	4
2	2	6
143	144	4
37	37	1
49	50	1
136	136	4
110	110	3
57	57	3
44	44	3
138	138	8
65	65	1
131	138	1
164	164	3
48	48	1
137	148	1
145	145	4
161	162	1
74	74	5
26	148	2
61	61	1
69	69	5
35	36	2
132	132	4
7	7	8
160	160	4
25	25	4
56	56	2
165	165	3
98	98	2
62	62	1
18	20	2
169	169	3
155	157	1
167	167	4
79	104	1
8	10	2
141	141	6
42	42	7
47	50	2
155	156	2
77	77	5
14	15	3
21	21	5
17	17	3
76	81	1
97	99	2
111	111	3
150	150	3
27	27	5
123	124	1
109	110	1
111	135	1
45	45	2
48	49	1
113	115	1
80	82	3
102	155	1
90	90	7
6	7	2
52	53	2
156	156	7
73	74	2
0	0	3
65	67	1
5	6	3
17	18	1
100	101	1
153	153	6
8	142	1
126	126	6
122	126	1
23	61	1
142	143	1
42	45	1
156	163	2
22	22	4
89	89	3
107	108	2
151	152	2
117	127	1
116	116	1
13	13	4
70	70	2
88	88	6
120	120	7
76	76	2
9	9	1
109	109	4
84	84	1
46	46	4
79	79	3
11	12	3
81	81	2
0	1	3
26	26	2
16	16	1
163	165	1
27	35	1
149	150	1
96	97	2
119	121	1
131	131	1
144	144	3
6	6	5
134	134	4
52	52	1
85	85	4
19	19	2
90	91	3
101	103	2
68	68	2
145	148	1
117	117	5
128	140	1
158	158	5
41	42	2
168	169	1
12	12	10
112	112	5
11	11	6
23	23	2
99	114	1
85	86	5
93	94	1
151	155	1
87	87	4
63	64	1
41	41	4
40	40	6
143	145	1
157	157	5
138	160	1
12	122	1
58	63	1
151	151	2
159	160	1
63	68	1
139	162	1
149	149	4
125	125	1
67	67	4
72	72	4
23	24	1
4	6	1
54	54	3
123	123	1
101	101	2
101	102	1
51	56	1
76	79	1
114	115	3
159	159	5
133	133	3
105	106	1
112	115	1
137	137	5
3	3	2
99	146	1
11	122	2
38	38	2
140	141	2
163	164	4
99	99	2
75	77	2
143	143	7
140	144	1
119	144	1
140	140	3
15	21	2
24	24	6
169	170	1
102	102	1
39	40	1
146	146	4
138	141	2
1	1	6
5	5	9
83	90	2
75	75	1
8	8	4
18	18	4
134	140	1
69	70	2
124	124	2
130	131	2
129	156	1
142	142	2
44	46	3
121	122	3
39	39	4
50	50	3
154	154	3
121	121	3
91	92	2
63	63	2
147	169	1
133	142	1
7	13	1
40	70	2
161	163	1
80	97	1
105	105	2
6	10	1
102	104	1
157	158	2
119	119	1
15	15	2
49	49	3
83	84	1
42	43	1
67	82	1
129	129	3
4	4	6
101	143	1
50	51	3
112	156	2
83	108	2
163	163	2
145	146	1
14	14	6
153	154	2
78	78	3
51	51	3
155	155	2
53	56	1
64	67	2
106	106	2
56	57	1
83	83	1
98	99	1
113	113	2
128	129	3
163	166	1
137	141	1
82	82	2
38	136	1
103	128	1
64	64	3
73	73	2
97	97	1
108	109	1
95	95	1
83	116	2
91	151	2
153	155	1
45	47	2
70	71	1
0	2	1
96	96	1
92	93	1
54	55	1
166	167	2
139	140	2
168	168	4
114	114	1
166	166	4
131	132	1
141	142	1
95	96	1
5	12	1
77	78	1
21	22	1
133	134	1
72	73	2
118	128	1
100	100	2
34	36	1
120	129	2
105	107	1
156	157	1
9	10	1
153	156	1
81	82	1
9	133	1
93	100	1
124	140	1
144	150	1
3	13	1
40	91	3
143	149	1
161	161	2
152	153	1
3	27	1
120	121	2
118	118	1
152	152	5
101	106	1
28	28	1
146	147	1
1	112	1
68	103	1
20	20	1
63	74	1
140	142	1
134	135	1
160	161	2
74	77	1
162	166	1
53	54	1
148	148	1
127	127	1
35	35	1
103	104	1
122	123	1
67	68	2
154	164	1
66	66	2
1	166	1
55	55	3
112	116	1
78	103	1
75	76	1
164	165	1
100	145	1
122	122	1
20	21	1
154	156	1
52	89	2
8	143	1
67	71	1
89	90	1
77	82	1
36	37	2
69	71	1
40	41	1
80	80	3
48	129	1
123	125	1
46	53	1
94	95	1
83	127	1
21	138	1
86	86	1
76	133	1
2	3	1
18	19	1
79	80	1
111	149	1
104	105	1
23	131	1
120	125	1
67	95	1
90	111	1
47	49	1
147	147	1
161	166	1
161	164	1
34	34	2
126	127	1
110	135	2
86	87	2
3	4	1
97	116	1
91	91	1
10	10	1
158	159	1
74	131	1
0	169	1
48	87	1
118	130	1
96	129	1
139	139	1
103	126	1
130	155	1
127	128	1
73	160	1
107	107	1
149	169	1
39	169	1
15	16	1
108	108	1
87	90	1
20	25	1
135	136	1
133	139	1
86	112	1
