115	116	2
88	88	3
79	79	5
68	68	5
58	78	1
49	49	1
123	123	4
111	111	5
26	28	1
11	11	9
85	85	8
24	30	1
8	56	1
122	122	5
72	73	1
59	59	11
43	43	3
37	37	1
61	61	4
22	25	1
108	116	2
60	60	8
112	112	1
25	25	4
112	113	2
70	71	1
20	20	1
115	115	4
31	32	2
127	127	2
120	124	1
22	22	3
85	86	2
113	113	1
88	90	1
66	66	2
12	12	2
33	33	5
64	64	1
99	103	2
95	95	5
59	77	1
13	13	2
56	56	6
58	58	5
94	94	2
18	18	7
10	11	3
132	132	3
48	60	1
99	99	3
43	44	2
125	125	11
26	26	4
27	31	1
58	82	1
90	90	3
42	42	5
34	34	6
11	12	1
106	107	1
10	10	5
92	100	1
90	93	1
109	109	5
44	46	1
41	42	3
126	128	1
23	23	3
29	29	2
45	45	1
15	37	1
84	84	2
129	130	3
64	65	2
126	127	2
131	131	6
4	4	1
74	75	1
19	21	1
44	44	3
77	77	2
110	110	3
0	0	3
120	120	2
67	67	3
74	74	4
40	40	3
102	102	3
75	76	1
107	107	2
112	114	2
65	65	4
76	76	5
44	45	1
93	93	4
20	22	1
71	71	3
38	80	1
114	114	2
121	121	3
12	14	1
91	92	1
63	63	5
96	99	1
16	95	1
55	55	1
130	130	2
104	104	1
97	99	1
17	19	4
42	43	1
98	98	1
27	40	1
39	42	2
70	70	3
17	17	6
29	32	2
63	118	1
14	35	1
108	110	2
82	82	2
46	46	3
15	38	1
113	116	1
16	86	1
114	123	1
36	36	4
113	117	1
116	116	4
14	95	1
8	9	2
57	57	2
117	117	3
123	126	1
17	35	1
15	16	1
75	75	2
68	69	1
14	14	2
28	29	2
96	96	1
126	126	3
103	105	2
92	133	1
28	28	2
106	131	1
131	132	2
72	72	2
30	30	4
16	28	1
92	93	2
32	32	5
85	105	1
104	105	2
0	1	1
97	97	1
62	62	8
129	129	4
78	78	1
37	39	1
111	113	1
73	74	1
81	81	4
80	80	1
81	82	1
12	13	3
102	126	1
58	59	2
21	21	2
128	128	1
80	81	2
114	115	1
67	68	2
124	126	1
78	82	2
108	108	4
33	47	1
83	83	1
92	92	2
21	43	1
99	100	1
33	42	2
15	21	1
17	27	1
119	120	1
78	79	3
128	129	2
17	18	4
65	67	1
86	87	4
101	109	2
118	118	2
32	33	1
122	126	1
97	105	2
133	133	2
14	15	1
27	27	2
26	29	1
43	45	1
8	62	1
28	32	1
15	15	1
124	124	4
41	41	1
105	105	2
34	35	2
2	72	2
1	1	3
92	94	1
7	7	2
5	5	1
7	8	1
12	93	1
121	126	1
6	6	3
61	118	1
105	106	1
73	73	1
9	44	2
47	47	2
39	39	2
97	102	1
3	3	1
118	119	1
19	19	3
119	119	5
95	98	2
16	17	1
89	92	1
102	105	1
101	101	1
90	92	1
24	25	2
22	38	1
85	118	2
84	85	1
95	129	1
96	97	2
103	103	1
85	93	2
134	134	1
56	58	1
65	66	1
10	56	1
123	124	1
106	106	1
19	45	1
9	9	2
50	50	1
128	130	1
18	28	1
84	89	1
78	116	1
82	105	1
122	131	1
27	29	1
83	84	1
91	91	1
51	51	1
87	87	1
87	134	1
95	96	1
94	102	1
108	112	1
19	33	1
111	116	1
109	110	1
57	58	1
8	8	2
83	110	1
55	56	1
51	55	1
43	56	1
