62	62	9
84	84	1
59	60	2
90	91	2
119	119	9
113	126	1
114	114	1
7	8	1
78	78	4
56	91	1
92	92	2
7	7	2
19	36	2
61	61	4
35	35	3
47	48	1
95	119	1
61	62	3
17	17	4
134	134	2
58	58	1
11	47	1
119	126	1
66	66	5
129	129	1
103	103	1
34	34	2
20	20	3
66	67	2
76	76	2
23	25	1
3	3	2
5	5	5
114	123	1
0	1	1
116	116	7
132	132	2
17	18	2
1	2	1
101	101	1
86	86	2
100	102	1
75	75	3
47	61	1
10	10	4
28	31	1
63	63	5
118	118	2
94	94	1
26	43	2
12	12	4
18	31	1
132	133	2
26	26	3
78	102	1
4	15	1
57	57	3
89	90	1
84	86	1
88	88	1
131	131	3
65	65	1
24	24	2
45	45	5
77	77	2
109	109	4
73	73	5
12	74	1
96	96	3
41	41	2
87	90	1
12	13	2
29	29	1
127	127	2
115	116	2
68	68	2
113	113	1
120	123	2
9	9	3
43	43	8
102	106	1
91	91	3
37	37	3
41	42	1
38	49	1
121	121	3
46	46	7
97	98	1
43	44	1
112	112	1
83	83	2
24	26	1
47	47	8
107	107	2
19	19	5
128	128	1
133	133	1
109	110	3
120	121	2
94	120	3
115	115	4
111	111	2
69	69	3
82	82	4
56	59	1
9	47	1
28	28	2
33	33	2
106	110	1
4	4	1
1	63	1
32	32	2
31	31	2
96	97	2
93	93	1
103	104	1
100	100	1
36	36	3
125	125	5
86	110	1
8	9	1
98	98	2
57	58	3
105	105	3
108	110	3
13	47	1
44	44	3
22	22	2
0	65	1
64	64	5
61	63	1
79	79	1
0	0	1
38	40	1
14	17	1
82	88	1
126	127	2
74	74	1
85	85	3
117	118	1
99	99	2
110	110	2
16	17	3
133	134	1
124	134	1
11	34	1
60	60	2
59	59	4
78	82	1
81	81	2
120	120	2
117	117	2
126	126	1
73	118	1
102	102	1
122	122	2
8	12	1
27	28	1
123	123	1
64	73	1
128	129	1
5	113	1
79	100	1
70	70	1
14	24	1
14	14	2
73	74	3
39	39	1
72	72	2
11	11	2
8	15	1
19	20	2
6	6	5
63	72	1
104	105	1
30	30	3
2	3	2
91	92	1
15	16	1
16	16	3
68	69	1
64	72	1
41	44	1
20	48	1
33	46	1
3	4	1
113	130	1
4	6	1
84	109	1
104	104	1
56	57	1
93	129	1
21	29	1
102	104	1
116	134	2
21	22	2
21	27	1
71	71	2
11	12	2
85	86	1
13	13	3
55	56	1
15	21	1
25	26	1
32	43	1
99	101	1
112	119	1
12	33	1
116	117	1
125	127	1
31	34	1
102	103	1
47	68	1
95	96	1
27	32	1
6	7	1
94	123	1
24	39	1
100	101	1
8	8	1
4	10	1
27	39	1
50	125	1
36	44	1
114	115	1
49	49	1
18	18	1
