69	69	5
50	50	5
44	44	3
39	39	6
132	132	4
154	155	1
156	157	2
68	68	2
29	29	5
128	149	1
106	106	7
89	89	4
133	157	1
81	81	4
3	4	3
76	76	3
0	0	4
113	117	1
131	132	6
25	28	1
120	142	1
128	128	2
135	139	1
80	80	3
92	92	5
122	123	4
136	136	4
103	103	6
55	56	1
146	146	3
82	82	4
51	51	4
121	121	6
97	133	2
86	86	5
110	111	2
104	105	3
12	17	1
73	73	7
136	137	2
43	43	8
119	119	5
26	28	1
5	5	6
81	116	1
143	143	6
18	18	3
87	89	1
103	104	2
64	105	1
115	116	1
75	90	2
125	126	4
38	38	3
15	142	1
65	70	1
127	142	2
158	158	6
2	2	1
129	129	6
108	109	2
15	15	2
9	9	3
10	25	2
85	85	4
112	112	5
53	53	3
87	87	4
33	44	1
86	91	1
111	111	10
67	68	1
149	149	2
102	103	2
21	27	1
110	110	5
36	37	1
72	72	3
23	23	5
47	50	1
151	151	7
33	35	1
71	71	3
124	124	3
104	106	1
152	152	4
131	131	6
121	145	1
141	147	1
123	123	3
95	97	1
10	13	1
52	52	4
156	156	6
115	115	3
98	99	1
31	31	6
54	55	3
128	134	1
138	138	3
120	121	1
25	25	2
137	138	1
128	129	2
78	78	3
55	55	1
133	133	2
145	145	3
40	40	2
31	36	1
88	88	5
13	13	2
118	119	3
48	48	3
99	99	3
65	76	1
88	90	2
94	94	2
77	77	6
49	61	1
90	90	6
98	103	1
119	120	3
130	130	2
36	36	5
153	153	5
123	124	1
63	63	1
12	12	1
22	28	1
42	42	5
157	157	6
81	136	1
107	107	4
46	46	4
116	154	2
151	152	2
155	155	1
142	142	5
70	71	1
116	116	3
72	151	1
144	144	2
146	147	1
31	33	2
47	47	5
12	75	1
120	134	1
95	95	1
70	70	3
84	86	1
53	54	2
82	87	1
107	108	2
155	156	1
43	47	1
139	139	5
17	17	2
85	86	3
93	94	1
95	96	3
45	47	2
127	127	5
67	67	3
45	45	3
20	20	2
33	41	1
110	112	1
1	2	1
106	135	1
118	118	3
104	104	3
33	33	3
26	26	4
21	21	5
150	150	7
3	3	3
147	147	4
111	112	3
45	46	2
40	55	1
65	65	2
126	126	3
30	30	1
8	8	3
120	148	1
91	116	1
73	74	1
106	107	4
14	14	2
22	31	1
120	120	3
100	101	1
105	105	5
125	125	6
132	133	2
141	141	6
135	137	1
109	110	1
140	140	1
79	79	4
28	28	3
117	117	2
74	74	1
19	19	1
67	69	1
34	34	5
86	117	1
135	135	2
98	98	3
121	140	2
122	147	1
55	96	1
8	9	1
157	159	1
143	148	3
116	117	2
121	122	2
94	95	2
53	83	1
101	101	2
83	83	2
79	80	1
77	101	1
96	96	3
54	54	3
97	97	2
124	126	1
122	122	2
149	150	1
22	131	1
118	141	1
116	136	1
48	54	1
93	95	3
109	109	2
134	134	7
130	131	2
150	158	1
92	93	1
20	137	1
111	138	1
112	129	1
146	148	1
63	113	1
64	64	1
18	19	1
81	82	1
52	61	1
99	129	1
118	145	1
30	36	1
108	108	1
148	148	3
7	7	1
107	112	2
110	115	1
99	154	1
20	115	1
16	16	5
108	110	1
68	83	2
53	55	1
129	132	1
93	93	3
158	159	1
115	156	1
21	31	3
39	43	1
49	49	1
102	102	2
6	7	2
149	152	2
46	53	1
141	148	2
75	75	3
154	154	2
91	91	3
22	22	3
99	100	1
129	130	1
99	127	1
8	10	1
29	67	1
22	30	1
71	148	1
113	113	3
18	94	1
82	95	1
125	146	1
151	157	1
22	52	1
128	150	1
24	26	1
84	84	2
50	51	1
104	111	2
4	4	1
98	106	1
13	18	1
125	141	1
37	55	1
68	69	2
12	61	1
140	141	1
38	95	1
16	75	1
145	155	2
3	25	1
91	92	1
11	14	1
109	142	1
23	24	1
100	100	1
41	41	1
34	35	1
89	111	2
134	137	1
66	71	1
69	95	1
24	30	1
50	52	1
71	149	1
27	27	2
39	42	1
114	115	2
16	107	1
13	14	2
35	36	1
98	104	1
106	134	1
133	139	1
85	95	1
150	152	1
17	18	1
77	153	1
34	41	1
144	147	1
11	11	1
71	73	1
69	126	1
118	121	2
46	48	1
131	139	1
17	115	1
6	6	1
125	152	1
96	97	1
117	119	1
90	91	1
103	105	1
21	22	1
126	154	1
70	95	1
87	93	1
11	12	1
48	49	2
43	106	1
105	106	1
69	70	1
83	84	1
90	113	1
86	96	1
27	28	1
153	154	1
75	99	1
28	29	1
115	119	1
83	90	1
19	48	1
113	114	2
16	35	1
14	15	1
75	106	1
149	154	1
100	102	1
35	35	1
138	142	1
24	71	1
114	114	1
38	128	1
