101	101	4
136	136	3
20	20	2
12	32	2
139	139	4
83	83	4
95	95	5
1	4	1
1	1	4
137	138	1
152	152	3
106	107	1
8	9	2
70	70	1
128	156	1
46	46	2
67	67	3
108	109	1
141	141	2
115	116	1
104	104	5
129	129	5
66	107	1
85	85	6
69	69	7
146	146	2
154	155	1
106	106	2
148	148	3
93	94	1
116	117	1
5	5	1
138	138	3
13	13	3
30	30	3
118	118	2
124	125	3
87	87	2
21	21	1
52	52	3
100	100	1
93	138	1
33	37	1
99	100	2
151	159	1
3	3	1
69	130	1
158	158	2
46	48	1
112	112	3
126	126	4
78	78	4
109	110	1
156	156	1
153	153	5
11	50	1
118	136	2
131	132	1
64	78	1
141	142	2
99	99	5
65	65	3
114	114	1
113	114	1
80	80	3
127	127	5
115	117	1
95	120	1
81	81	3
4	4	1
45	45	2
110	110	2
130	131	1
79	81	1
124	124	3
103	104	3
135	137	1
145	145	7
90	111	1
132	133	2
138	152	1
110	150	1
100	101	1
154	154	1
111	111	4
90	92	1
67	131	1
19	19	1
17	19	1
150	150	1
147	147	1
92	127	1
32	32	3
117	152	2
116	132	1
108	111	1
137	137	2
17	17	1
36	139	1
22	22	1
54	54	1
97	98	1
115	127	2
24	71	1
83	109	1
126	130	1
136	153	1
142	142	1
157	157	5
130	130	1
16	16	1
105	120	1
128	128	1
27	27	1
10	10	2
44	98	1
87	117	1
122	122	1
125	125	2
151	152	1
50	50	2
132	132	7
73	73	2
135	135	3
11	11	2
117	117	3
137	148	1
128	132	1
1	2	1
105	130	1
36	42	2
88	123	1
149	149	1
150	153	1
35	35	2
53	53	2
18	18	1
94	95	1
133	153	2
5	6	1
94	94	1
26	26	3
123	126	1
44	45	1
82	82	2
63	64	1
110	118	1
121	154	2
31	31	1
143	143	2
20	21	1
80	82	1
35	127	1
88	96	1
16	37	1
155	155	1
49	86	1
105	105	1
93	95	1
98	98	1
140	140	3
63	63	1
131	142	2
72	106	1
144	144	2
151	151	1
7	7	1
107	135	1
139	156	1
117	119	2
102	102	3
146	147	1
92	92	1
103	103	2
86	158	1
39	112	1
96	97	1
111	117	1
17	35	1
40	40	1
120	123	1
38	53	1
98	127	2
67	69	1
110	138	1
68	145	1
11	18	1
75	105	1
69	107	1
71	71	1
43	43	1
138	150	2
117	135	1
76	87	1
13	14	1
107	108	1
77	79	2
75	139	1
79	82	1
77	80	1
65	66	1
6	13	2
114	119	1
134	134	2
108	110	1
91	128	1
13	15	1
102	128	1
81	82	1
109	135	1
47	50	1
6	150	1
7	116	1
136	147	1
103	105	1
91	91	1
79	79	2
84	84	1
142	154	2
102	103	1
106	129	1
71	72	1
15	15	1
34	34	1
110	111	1
101	104	3
46	47	1
145	146	2
90	117	1
84	117	1
76	76	1
68	68	1
142	143	1
55	57	1
107	107	1
70	71	1
123	138	1
17	18	1
133	133	2
38	38	1
66	66	1
42	43	2
77	77	1
133	134	1
116	116	1
33	45	1
0	0	1
51	56	1
113	119	1
49	87	1
55	55	1
111	112	1
123	123	1
66	69	1
23	23	1
85	118	1
53	54	1
127	129	1
91	150	1
95	97	1
