5	5	1
171	187	2
189	189	3
9	12	1
116	117	1
3	4	1
22	22	2
28	28	5
145	146	3
178	188	1
148	148	2
122	122	2
96	97	1
3	19	1
180	180	2
153	154	1
89	89	2
126	127	2
21	39	1
43	43	5
0	1	3
49	49	1
160	160	4
140	140	3
146	146	4
68	106	1
106	107	3
171	171	4
130	130	3
162	164	1
162	163	2
7	7	1
192	192	3
14	41	2
63	63	2
102	103	1
29	29	3
24	24	2
159	159	2
27	31	1
185	186	1
19	19	6
155	155	3
14	14	2
34	34	2
142	143	1
45	45	5
44	45	1
35	35	3
68	68	1
73	73	3
178	178	3
156	156	2
3	3	5
72	122	1
74	74	2
44	44	6
95	95	4
146	147	1
85	85	1
176	176	5
144	144	2
168	169	1
27	27	1
106	111	1
155	157	2
30	31	3
75	75	1
84	86	1
25	26	1
139	139	2
119	119	1
54	54	2
191	192	2
185	185	1
47	47	3
135	135	1
140	146	1
9	9	6
158	158	1
16	17	1
170	171	2
113	121	1
183	184	1
33	33	7
39	39	7
63	138	1
11	11	2
169	171	1
17	17	4
65	99	2
100	100	2
3	5	1
158	160	1
19	38	1
83	83	2
112	112	2
23	23	1
48	48	1
121	122	2
21	21	2
157	158	1
41	43	2
51	95	1
154	154	5
102	102	1
28	29	2
50	50	3
181	182	1
187	187	3
142	142	3
100	101	1
79	79	1
186	187	2
57	57	1
30	30	5
12	15	2
109	109	2
179	179	3
20	20	3
69	185	2
90	90	1
141	141	1
48	49	1
191	191	1
120	121	1
1	2	3
157	157	2
60	60	1
25	25	1
27	28	2
180	181	1
148	149	1
166	166	1
32	37	1
183	183	3
10	19	1
21	32	1
10	10	4
16	18	1
136	137	1
114	114	1
154	171	1
151	151	2
15	15	1
125	125	2
147	147	1
64	151	1
42	42	2
40	40	2
175	175	2
134	135	1
172	172	1
41	41	1
153	153	2
117	117	1
194	194	1
181	181	3
67	68	1
195	195	3
135	140	1
41	42	1
36	36	3
165	186	1
8	31	1
8	8	1
150	150	2
18	19	2
13	13	3
52	52	1
19	21	1
39	184	1
128	128	1
46	47	2
84	87	1
50	52	1
173	173	1
167	168	1
73	185	1
150	165	1
116	116	3
182	182	1
113	113	1
110	110	1
70	70	2
64	64	1
151	178	1
44	72	1
17	18	1
1	1	3
162	162	3
173	176	1
163	164	1
98	98	2
27	195	1
78	78	1
34	36	1
126	126	2
113	115	1
149	171	1
77	77	1
10	173	1
52	53	2
82	83	1
151	153	2
105	105	1
13	14	1
2	7	1
9	10	2
10	11	2
124	124	1
132	132	1
34	35	1
138	138	1
39	40	1
38	38	1
60	96	2
22	47	1
154	156	1
11	12	1
2	2	2
164	166	1
46	63	2
177	178	1
71	71	2
186	186	1
114	115	1
6	6	1
39	74	1
1	36	2
163	163	1
2	31	1
5	6	1
145	145	1
104	104	1
79	83	1
37	37	2
35	36	1
66	67	2
105	112	2
74	75	1
142	167	1
156	160	1
84	110	1
118	136	1
160	164	1
32	33	1
133	133	1
114	122	1
116	118	1
178	190	1
118	118	2
149	149	2
42	43	1
78	89	1
196	196	1
154	160	1
159	171	1
56	56	1
100	102	1
143	143	1
47	48	1
45	50	1
166	167	1
42	196	1
16	16	1
86	87	1
37	38	1
125	155	1
152	152	1
67	137	1
117	118	1
