102	102	3
41	41	9
97	97	8
72	72	8
69	69	11
33	36	1
95	95	5
62	81	2
33	70	1
77	77	9
27	42	1
27	29	5
42	42	7
91	91	10
52	54	1
63	63	6
100	101	1
38	39	1
31	32	1
77	78	5
40	45	3
53	54	3
99	101	3
40	40	11
68	68	7
65	73	1
61	62	2
46	46	6
80	84	1
97	98	3
78	78	11
88	88	5
76	76	5
64	64	11
67	67	10
44	45	4
41	44	1
45	48	1
60	60	4
51	55	1
87	94	1
47	71	1
96	96	8
25	99	1
55	74	2
83	89	1
53	53	11
62	62	8
24	27	2
100	100	8
33	33	8
83	86	1
86	89	3
25	25	3
75	75	7
86	86	5
89	90	1
58	59	1
93	102	1
96	97	3
85	85	9
66	66	4
73	73	9
46	71	2
99	99	5
39	39	7
44	67	1
74	74	6
61	61	3
78	79	1
61	94	1
73	77	1
56	56	8
92	92	8
87	87	6
48	48	10
42	45	1
34	37	2
93	93	8
41	42	4
43	57	2
71	71	3
57	58	2
57	57	4
36	36	4
81	83	2
95	96	5
70	70	14
59	59	5
57	68	2
82	93	1
51	52	2
59	60	1
63	82	1
26	26	11
69	71	1
44	44	7
101	101	6
34	85	1
50	50	8
93	101	1
22	22	1
90	91	4
84	84	5
82	82	2
65	65	7
36	46	2
34	34	5
66	68	1
42	43	3
83	83	3
54	62	1
59	89	1
93	98	2
80	82	1
38	42	2
55	57	1
51	51	6
86	87	1
77	79	1
98	98	6
63	76	1
72	74	1
47	47	2
55	56	1
79	79	5
90	90	5
52	52	4
29	60	1
38	38	6
27	27	4
44	76	2
41	43	2
28	33	1
89	89	3
43	43	3
99	100	1
40	47	1
77	80	1
54	55	1
44	58	1
70	75	1
52	56	2
29	29	5
41	63	1
45	45	11
33	60	2
25	27	2
46	60	1
55	55	6
88	95	2
71	72	3
39	40	1
25	26	2
27	33	1
66	67	2
73	74	1
55	63	1
35	35	3
54	96	1
89	93	1
50	55	1
29	38	1
91	93	1
49	49	4
41	77	1
24	24	2
75	81	1
53	56	1
94	94	2
45	47	1
64	69	1
65	66	3
87	93	1
24	26	1
77	89	2
94	97	1
85	89	2
97	99	1
39	42	1
27	77	1
49	50	1
58	58	3
31	31	5
29	31	1
48	53	1
76	77	4
68	85	1
30	31	1
54	54	3
27	28	1
66	75	1
48	50	1
87	88	3
34	35	2
81	88	1
29	44	1
32	39	1
35	37	1
36	38	2
20	26	2
67	68	2
88	101	1
95	100	1
81	81	3
80	96	2
80	80	1
24	34	1
25	46	1
31	34	1
92	100	1
37	37	2
93	94	3
72	75	1
34	38	2
44	52	1
20	24	1
78	86	1
94	96	1
79	80	1
93	97	1
46	48	2
74	75	3
35	38	1
81	82	1
95	101	1
63	65	1
42	67	2
40	44	1
80	81	2
45	85	1
68	70	2
75	89	1
85	99	1
94	95	3
67	72	2
28	28	1
90	92	1
31	64	1
39	50	1
36	37	1
36	39	1
68	79	1
71	76	1
45	52	1
83	85	2
47	69	1
46	47	1
79	81	1
47	48	1
55	64	1
62	70	1
56	72	1
58	75	1
23	38	1
69	70	1
57	59	1
43	45	1
78	87	1
73	79	1
65	69	1
45	51	1
64	65	1
43	44	1
24	25	1
49	53	1
93	95	1
71	73	1
92	102	1
66	90	1
69	85	1
44	50	1
67	70	1
50	51	1
72	77	1
23	31	1
71	78	1
98	102	1
69	81	1
61	73	1
88	93	1
