159	159	3
45	51	1
19	20	2
126	126	7
105	105	2
134	135	3
190	190	3
68	68	8
154	177	2
119	136	1
178	178	5
39	39	10
100	100	3
78	78	5
152	152	10
30	31	5
61	61	6
138	139	3
28	29	4
60	61	1
129	129	4
56	61	1
27	28	3
132	132	5
150	168	1
126	128	1
195	195	4
21	25	2
16	16	7
57	57	4
60	93	1
157	157	6
27	27	13
185	185	11
1	1	7
136	136	5
138	138	3
122	122	5
145	145	5
12	12	6
40	40	10
194	194	10
148	169	2
22	22	5
47	53	1
10	32	1
137	138	2
73	76	1
148	148	6
9	10	8
111	194	2
161	162	2
43	43	8
158	158	6
149	149	6
25	26	3
196	196	5
153	153	6
85	85	5
123	123	7
84	85	3
35	35	7
81	100	1
137	163	1
7	7	11
71	73	2
30	34	3
60	75	1
17	18	3
160	160	6
177	187	2
107	142	1
113	117	1
13	13	10
155	155	5
5	9	1
32	32	8
127	127	6
34	34	11
32	45	1
54	56	2
70	70	15
43	189	3
124	124	7
12	15	1
105	106	1
184	184	8
37	41	1
108	110	1
61	62	2
150	150	5
98	98	4
94	108	1
159	160	1
170	171	2
45	45	10
172	172	4
182	183	4
30	32	1
170	170	5
40	44	1
105	140	1
14	14	8
46	46	15
118	120	1
145	146	1
186	187	1
96	144	1
17	17	5
151	152	5
154	155	1
87	87	2
138	185	2
47	47	5
159	173	1
126	127	1
141	185	1
170	176	1
11	11	9
164	166	1
128	128	1
187	187	4
112	112	1
49	49	5
188	189	2
3	3	3
77	80	1
161	168	1
171	172	2
43	44	5
55	55	4
109	109	3
18	19	5
139	139	7
182	186	1
119	119	4
171	186	1
156	169	1
195	196	6
1	3	1
156	156	4
87	170	1
18	20	1
136	137	6
23	37	1
41	41	10
111	147	1
131	131	5
53	53	8
166	166	3
8	8	7
155	176	1
2	3	3
65	107	1
52	66	2
11	24	2
0	3	2
43	56	1
108	133	1
124	125	2
119	167	1
151	151	2
24	24	9
20	20	7
102	103	5
20	21	10
94	95	1
136	143	1
10	11	6
95	95	3
97	97	1
140	183	2
171	177	4
15	16	3
31	31	8
2	29	1
42	43	4
26	26	6
9	9	10
196	197	4
24	39	1
0	1	4
101	101	4
58	58	5
193	195	1
63	64	1
28	28	5
23	23	8
176	176	2
66	75	2
34	35	4
101	106	1
22	23	3
88	88	2
101	102	2
32	33	4
135	135	1
111	112	2
149	182	1
114	114	2
36	36	3
19	60	1
59	59	4
8	13	1
14	50	1
33	33	12
15	17	3
165	165	4
155	156	2
24	25	6
124	139	1
83	85	2
62	63	1
192	193	3
93	100	1
42	42	6
182	182	3
4	37	1
183	184	1
162	162	5
10	10	9
21	23	2
157	158	1
186	186	8
30	30	8
6	7	3
38	58	2
118	119	2
126	140	3
3	4	3
178	179	3
82	82	3
11	12	2
102	102	3
171	195	1
190	191	3
166	167	1
37	37	9
126	141	2
140	176	2
110	164	1
152	153	5
56	60	1
101	143	2
25	37	1
189	189	4
56	56	3
88	89	4
39	40	4
107	108	1
23	31	1
165	167	2
59	60	3
37	38	2
18	18	6
69	69	2
143	143	3
21	21	5
142	142	5
114	163	1
149	170	1
52	52	6
140	140	7
142	170	1
44	44	4
164	164	3
74	76	1
125	126	1
24	32	1
13	25	1
181	182	2
27	114	1
179	180	1
197	197	6
117	117	3
10	12	2
60	60	3
27	29	1
64	127	2
143	147	1
46	47	2
179	179	4
50	50	5
151	178	2
72	72	4
47	48	5
45	53	2
137	141	1
25	25	11
192	192	8
188	188	8
9	11	2
19	19	6
103	103	3
169	169	8
50	139	1
172	191	1
85	86	1
3	22	3
7	32	1
64	65	2
5	5	11
65	66	1
45	46	1
140	143	1
174	174	8
104	104	4
107	107	1
17	40	1
68	76	1
77	100	1
95	97	1
15	53	2
30	159	1
7	8	1
64	70	1
150	151	1
15	15	9
87	121	1
6	6	4
65	65	4
159	181	1
6	24	2
71	124	2
141	158	1
103	105	1
60	94	1
58	87	1
87	101	1
153	155	2
147	147	4
66	108	2
136	185	1
111	149	1
125	140	1
133	133	3
119	120	1
89	89	4
170	184	2
157	178	1
112	113	2
100	101	2
184	185	3
56	168	1
178	186	2
2	5	1
20	23	2
168	169	4
151	156	1
189	192	2
183	183	6
9	69	1
58	60	2
74	80	1
140	157	1
99	99	3
148	149	2
152	182	2
126	193	2
18	24	1
140	163	1
185	186	4
51	51	3
141	170	1
33	36	1
13	14	4
101	138	2
181	181	9
81	87	2
77	78	2
132	182	1
64	81	1
13	15	2
13	33	1
9	20	1
62	62	4
173	176	1
37	81	1
40	41	4
171	184	2
1	2	3
144	144	6
11	38	2
134	134	3
108	108	1
53	54	3
183	186	1
141	157	1
191	191	3
5	16	2
114	155	1
137	137	7
73	73	3
165	168	1
67	67	1
80	81	2
193	193	3
173	175	1
140	186	1
2	30	1
86	86	4
73	107	1
29	29	2
96	98	1
97	99	1
78	79	1
177	178	1
142	183	2
163	163	3
14	15	1
112	123	1
137	164	1
131	132	2
12	13	1
172	173	3
4	4	2
171	183	1
64	64	4
129	130	3
129	140	1
111	129	1
173	174	6
47	52	1
166	181	1
141	141	6
109	111	1
66	87	1
70	71	2
88	90	2
167	191	1
67	68	1
135	136	1
96	96	1
94	94	1
157	182	1
23	46	1
174	175	2
110	110	2
93	93	1
101	142	2
40	53	1
141	142	1
137	140	1
114	148	1
4	35	1
59	61	2
5	11	1
99	106	1
175	177	1
80	86	1
23	69	1
61	108	1
85	102	1
14	17	1
145	147	1
54	70	1
167	167	5
177	177	4
28	37	1
28	33	1
50	160	1
140	177	2
5	45	1
35	36	3
111	123	1
25	28	1
142	168	1
75	81	1
158	160	2
180	181	1
156	170	1
80	82	1
142	148	1
16	17	3
0	0	3
23	61	2
144	157	1
82	85	2
48	49	2
43	46	1
142	178	3
144	146	2
183	195	2
125	125	2
113	113	2
141	167	1
26	29	3
21	22	1
94	140	2
4	10	1
114	123	1
8	9	2
146	146	2
128	129	2
60	62	1
58	59	1
6	8	1
120	120	1
164	172	2
67	137	1
110	111	5
50	127	1
57	60	1
41	42	2
72	75	1
119	134	1
81	81	1
33	34	1
156	157	2
5	6	2
101	130	1
75	75	1
69	70	1
56	67	1
194	195	2
51	172	1
139	169	2
0	6	1
87	93	1
186	191	1
159	162	1
6	9	1
124	133	1
84	84	1
98	99	2
68	80	3
14	16	1
45	72	1
155	170	1
166	175	1
93	94	2
12	47	1
102	158	1
115	122	1
120	122	1
5	32	2
142	185	1
167	187	1
151	194	2
133	184	1
161	161	1
147	148	2
17	47	1
98	182	1
144	145	1
154	154	2
2	2	4
23	25	1
159	172	1
115	116	1
33	44	1
80	80	1
130	130	1
30	78	1
66	66	1
42	45	1
32	39	1
122	155	1
59	112	2
157	171	1
10	46	1
160	194	1
129	141	1
94	189	1
48	48	2
168	170	1
19	40	1
54	62	1
123	124	1
78	81	1
141	171	1
188	192	2
72	73	2
173	173	4
53	197	2
12	51	1
0	5	2
191	192	2
144	168	1
52	56	1
38	61	1
97	146	1
8	10	1
54	54	2
83	83	2
179	182	1
171	171	1
50	52	1
175	175	3
168	168	4
136	152	1
119	196	2
51	156	1
36	37	1
158	175	1
179	189	1
162	168	1
187	190	1
9	12	1
172	187	1
94	99	1
95	96	1
108	140	1
77	81	1
1	27	1
102	105	1
120	121	1
38	38	2
4	5	1
180	182	1
55	87	1
15	95	1
38	39	1
68	70	1
148	150	1
57	177	1
101	197	1
133	135	1
63	63	1
140	142	1
33	195	1
189	190	1
169	185	1
133	138	1
167	178	1
155	157	1
58	155	1
149	150	2
114	137	1
19	26	1
49	178	1
12	14	1
158	159	1
121	121	1
114	115	1
167	168	1
143	193	1
5	24	1
73	110	1
17	39	1
118	118	1
183	193	1
43	55	1
61	63	1
167	185	1
44	46	2
112	119	1
153	154	1
142	143	1
142	169	1
176	177	1
2	7	1
122	124	1
117	142	1
16	194	1
146	179	1
140	158	1
34	157	1
27	30	1
158	172	1
144	147	1
127	128	1
143	144	1
119	132	1
174	189	1
71	72	1
26	27	1
