76	76	6
79	100	1
126	127	3
10	21	1
105	116	2
47	51	1
29	29	5
23	24	1
81	82	1
149	149	4
121	127	1
97	97	5
130	130	4
33	81	1
102	102	2
95	121	1
64	64	5
45	45	6
44	44	6
31	31	2
146	146	2
25	30	2
12	14	1
123	126	1
118	118	4
114	117	1
74	113	1
69	69	2
148	148	3
65	69	1
5	7	3
4	4	2
152	152	6
65	67	3
3	6	1
110	110	3
27	27	3
48	48	7
112	112	3
110	111	1
134	135	1
26	27	2
139	139	2
78	78	3
8	16	1
66	66	4
131	131	3
52	52	1
39	39	2
150	150	4
94	98	1
63	63	4
79	80	2
111	111	1
33	33	3
70	74	1
43	46	2
121	121	4
13	15	3
106	106	2
7	7	3
46	46	3
137	137	3
22	23	3
123	123	8
5	5	6
82	82	2
123	139	1
67	68	2
14	51	1
85	85	3
43	43	2
13	13	2
87	87	1
104	105	3
10	10	2
140	142	2
11	11	6
30	35	2
119	119	2
93	93	3
22	22	3
145	146	2
100	101	1
68	135	1
84	85	2
68	68	3
151	151	2
104	104	4
127	127	1
109	110	3
38	38	4
96	101	1
18	18	2
95	98	1
124	125	1
78	115	1
43	45	1
138	138	3
117	117	3
24	24	3
6	23	2
46	53	1
128	128	2
143	147	1
114	116	1
65	65	1
42	68	1
113	113	4
15	15	4
32	33	2
68	69	2
136	137	1
141	146	1
92	115	1
95	95	6
30	30	2
112	113	1
41	43	1
71	72	3
115	148	1
94	96	1
8	8	3
144	146	1
133	133	3
31	33	1
142	142	1
71	129	1
70	70	1
57	57	3
54	54	2
75	75	1
64	65	1
121	139	1
31	37	2
63	76	1
3	4	1
46	51	1
6	6	4
34	66	1
121	122	2
24	25	3
20	20	2
129	131	1
129	129	2
3	3	1
105	105	1
123	124	3
21	21	5
113	115	4
48	70	2
41	41	1
19	19	4
97	121	1
41	42	1
46	55	1
136	136	1
34	34	2
27	29	1
101	101	3
110	114	1
4	5	1
147	147	4
118	138	1
154	154	2
132	132	2
36	56	2
74	74	3
32	32	2
68	120	1
76	84	3
52	53	1
86	94	2
93	107	3
93	94	1
137	138	1
141	141	2
105	132	1
39	40	3
127	128	1
86	86	3
18	19	1
113	114	1
107	107	4
113	137	1
116	122	1
73	74	1
26	28	1
119	120	1
94	94	1
25	25	3
16	16	2
84	93	1
109	109	5
63	64	1
122	123	1
75	78	1
98	141	1
54	55	1
144	145	4
30	37	1
97	103	1
124	124	1
35	36	1
58	58	1
62	62	2
73	108	1
65	66	3
94	95	2
49	49	1
111	121	2
71	71	1
94	121	1
115	115	3
11	15	1
73	90	1
37	37	1
47	48	2
69	83	1
102	113	1
120	120	1
47	47	3
74	76	1
73	73	3
8	9	1
66	141	1
144	144	2
13	23	1
76	77	1
77	84	1
129	130	1
106	107	2
69	146	1
85	86	2
2	20	1
135	135	1
49	53	1
72	73	1
38	68	2
17	18	1
67	67	4
140	141	1
67	97	1
14	14	1
62	129	1
135	136	1
56	56	2
48	49	1
125	125	2
122	125	1
93	96	1
142	143	3
128	152	1
117	120	1
5	19	1
116	116	1
103	103	1
33	62	2
66	67	1
96	115	1
64	103	1
133	134	1
74	110	1
82	83	1
28	28	1
111	113	1
79	79	1
118	119	1
139	140	1
126	132	1
103	104	1
32	37	1
131	132	1
26	29	1
141	142	1
51	62	1
110	112	1
94	99	1
69	149	1
122	122	2
81	81	1
97	117	1
77	90	1
40	43	2
100	118	1
38	39	1
33	51	1
91	93	2
96	96	1
95	102	1
119	133	1
108	115	1
75	77	1
72	72	1
142	145	1
78	81	1
66	88	1
8	26	1
106	117	1
90	94	1
