79	79	2
47	49	1
2	2	8
118	118	2
171	171	6
182	182	3
62	62	4
147	147	2
2	3	3
180	180	3
30	30	3
10	11	3
128	128	4
83	85	2
88	100	1
122	122	3
9	10	2
70	70	5
172	172	3
88	89	2
37	194	1
54	54	2
144	144	4
177	177	6
45	45	9
184	185	1
194	194	4
19	19	3
121	138	1
45	46	4
195	195	2
187	188	2
187	193	1
11	12	2
110	110	2
37	37	4
154	175	1
6	6	5
155	172	1
193	194	1
3	8	1
21	22	1
132	132	6
135	135	1
126	126	7
137	137	5
40	42	1
161	161	1
40	41	3
179	180	2
48	48	4
14	14	8
139	139	3
39	39	6
53	53	2
8	8	2
61	61	1
35	35	6
38	38	7
72	81	1
34	35	1
164	164	4
50	50	4
27	181	2
15	16	4
23	23	7
131	131	2
140	140	5
193	193	2
7	7	6
158	160	3
40	75	1
69	69	2
35	36	4
177	178	3
68	68	3
95	96	1
109	163	2
9	9	10
6	7	3
146	146	1
165	165	2
184	184	5
108	132	1
167	174	2
13	13	2
34	36	4
58	61	3
181	194	1
197	197	4
33	33	5
161	163	1
106	107	1
113	113	2
63	107	1
18	164	1
26	31	1
185	186	3
18	168	2
132	133	3
151	152	2
103	103	3
84	87	1
93	97	4
47	53	1
176	176	3
185	185	2
81	81	3
38	45	1
186	194	1
36	36	4
58	58	2
9	48	1
159	170	1
1	1	2
46	131	1
42	112	1
26	26	5
67	68	5
3	4	1
130	131	1
39	40	1
0	0	3
46	46	5
82	82	3
154	185	1
176	177	1
67	67	5
119	123	1
152	152	4
14	45	1
121	121	4
22	41	1
145	145	2
3	11	2
18	21	2
111	111	5
158	167	2
99	112	1
5	5	5
164	167	1
60	61	1
174	175	2
188	188	5
2	33	1
23	24	3
71	72	3
87	87	1
55	56	2
157	157	6
109	111	2
32	32	2
119	119	1
52	129	1
3	3	3
114	137	1
116	116	2
189	190	2
38	53	1
94	157	1
141	141	3
155	155	6
71	71	1
186	186	2
32	46	1
86	108	1
44	44	5
110	111	3
112	112	1
113	114	1
98	98	1
17	21	1
49	185	1
45	87	1
12	47	1
15	32	1
160	167	1
169	170	1
116	118	2
13	14	5
81	83	2
27	28	3
168	168	4
179	179	3
19	26	1
84	84	1
120	157	1
189	189	3
28	36	1
43	43	6
117	117	4
100	100	7
12	13	1
99	99	3
134	134	1
169	193	1
57	57	2
19	23	2
138	138	5
124	124	2
86	90	1
177	179	1
59	60	1
12	38	1
22	22	3
191	192	1
191	191	2
149	150	1
148	148	4
191	193	2
150	150	3
69	70	1
196	196	3
111	138	2
64	64	1
69	81	1
38	138	1
59	76	1
66	71	1
4	14	1
51	51	1
155	156	1
42	42	3
174	174	2
44	113	1
166	189	2
153	153	1
30	39	1
101	101	6
16	16	2
52	52	1
98	148	1
34	34	3
186	187	1
151	156	1
166	174	1
117	118	1
49	49	2
18	18	1
186	193	1
86	89	1
43	44	2
65	65	4
154	154	2
94	99	2
134	135	2
103	106	1
12	12	6
26	27	1
183	183	4
40	40	3
181	182	1
9	25	1
4	4	6
13	15	1
17	17	4
167	179	1
133	133	4
31	31	3
142	142	4
174	176	2
138	142	2
179	186	1
152	153	1
67	70	1
167	167	2
76	76	4
103	109	2
33	45	1
41	42	2
18	19	2
151	151	1
177	182	1
158	174	1
175	175	1
165	175	1
96	97	2
15	15	2
138	139	1
80	141	1
56	60	3
173	174	1
6	8	1
121	122	1
73	170	1
180	189	1
135	136	1
127	127	3
87	100	1
145	146	1
18	27	1
119	131	1
14	39	2
72	73	1
52	147	1
137	138	1
77	81	1
20	20	2
10	10	3
29	29	4
41	41	4
49	52	1
124	139	1
104	105	1
0	26	1
73	76	1
159	160	3
150	156	1
64	184	1
169	192	1
73	75	1
106	115	1
21	28	1
0	1	1
40	47	1
14	139	1
163	164	2
173	173	1
28	28	4
136	137	2
24	26	1
112	136	1
14	15	1
34	37	1
95	95	2
114	114	2
24	28	1
178	178	2
19	137	1
167	172	2
123	123	1
106	106	2
103	104	1
102	103	2
25	32	1
86	86	1
0	6	1
162	163	1
52	182	1
157	169	1
19	20	2
37	38	1
20	21	1
99	110	1
129	129	2
149	149	3
32	33	3
181	181	3
163	163	1
62	65	1
158	173	1
59	59	1
24	24	4
73	73	1
72	72	2
171	172	1
5	26	1
125	125	3
97	107	1
46	47	2
143	143	1
66	68	2
44	45	1
73	77	1
187	187	1
188	189	3
162	162	2
25	25	2
32	34	1
5	8	1
4	5	1
83	83	1
125	126	1
116	117	2
171	176	1
86	106	1
66	66	1
18	68	1
102	104	1
75	78	1
47	47	3
37	42	1
16	22	1
128	129	1
12	135	1
60	60	1
44	195	1
161	162	1
67	69	1
18	22	1
80	80	1
8	136	1
42	43	1
107	115	1
100	101	1
139	140	2
26	40	1
129	185	1
9	31	1
160	160	1
177	195	1
26	28	1
105	105	1
118	119	1
5	6	1
17	150	1
28	30	1
75	76	1
31	32	2
60	81	1
2	4	1
77	77	1
20	24	1
130	130	1
20	23	1
192	192	1
17	18	1
192	193	1
112	113	2
164	165	1
190	191	1
63	102	1
54	133	1
44	138	1
43	45	1
169	177	1
20	36	1
194	195	1
81	96	1
89	90	1
105	155	1
15	17	1
4	15	1
27	27	1
29	30	1
81	85	1
96	96	1
26	29	1
59	61	1
115	115	1
29	79	1
168	174	1
171	174	1
157	181	1
65	123	1
156	156	1
195	196	1
