2	3	2
14	14	7
51	51	4
2	2	3
75	75	6
89	89	2
30	84	1
67	67	10
9	85	1
80	83	1
79	79	4
15	15	2
61	64	1
86	86	11
73	83	1
47	48	5
78	78	3
75	76	1
64	65	3
25	26	1
76	76	2
58	61	1
86	88	1
82	83	4
10	10	4
20	20	9
25	33	1
29	30	1
16	17	2
90	90	2
16	16	4
57	57	10
61	65	1
0	0	2
80	80	7
79	83	1
84	84	10
15	23	1
73	73	6
51	52	1
26	27	2
7	7	3
61	63	3
30	30	2
8	13	1
85	85	2
3	3	7
49	49	2
47	47	2
70	79	2
79	80	3
88	88	2
72	72	4
71	71	5
23	24	1
47	53	1
68	68	2
26	26	3
75	85	1
59	60	6
52	52	5
46	47	1
83	83	4
58	84	1
79	82	1
17	17	6
25	25	4
58	58	3
56	56	3
54	58	2
25	67	1
82	82	4
68	69	2
9	10	1
57	68	3
50	52	1
22	22	6
9	9	6
23	23	2
48	58	1
78	79	1
21	22	4
24	24	2
1	1	3
13	13	2
59	59	5
52	53	1
81	81	4
66	68	1
59	82	1
5	5	1
72	73	2
75	78	1
6	11	1
54	54	6
75	81	2
59	61	1
21	70	1
70	70	4
62	62	5
50	56	1
27	27	2
4	4	4
12	12	1
74	75	1
7	20	1
52	59	1
61	61	3
15	17	1
8	8	4
57	67	2
77	78	1
19	20	2
87	87	2
48	69	1
57	58	2
21	21	3
63	64	2
48	48	2
72	79	1
34	34	1
6	6	3
53	54	1
84	85	1
55	55	2
68	81	2
65	67	1
50	50	2
47	80	1
48	72	1
65	76	1
28	28	3
74	77	1
80	81	2
60	60	1
31	31	2
86	87	1
66	66	4
69	69	4
63	63	1
20	27	1
61	62	1
0	1	2
59	77	1
74	76	1
11	85	1
9	70	1
10	11	1
78	83	2
85	86	1
65	66	2
67	81	1
54	64	1
49	51	1
19	19	2
74	74	2
7	49	1
64	64	1
1	2	2
20	25	1
48	53	1
27	28	1
77	81	1
76	83	1
27	87	1
50	54	1
3	5	1
11	11	1
63	71	1
67	79	1
71	85	1
5	10	1
83	85	1
16	20	1
3	14	1
49	72	1
58	68	1
7	8	1
32	32	1
24	47	1
67	86	1
1	12	1
50	67	1
6	7	1
34	52	1
56	65	1
23	69	1
67	70	1
33	33	1
77	77	1
55	80	1
54	55	1
48	51	1
20	21	1
