234	234	6
117	117	7
22	22	3
63	63	2
61	61	1
221	221	5
77	78	4
52	52	5
213	214	4
210	211	3
60	61	3
236	247	1
225	225	10
34	37	1
203	203	3
211	211	6
158	159	1
187	188	2
3	3	1
88	88	4
23	23	9
244	244	3
183	183	7
85	85	2
209	210	1
21	21	5
95	95	1
94	94	4
164	164	3
210	210	5
229	229	10
226	226	6
176	176	2
208	210	2
89	89	6
35	35	3
200	201	2
198	216	1
215	240	1
153	172	1
52	53	3
207	207	8
107	107	4
217	222	1
69	69	3
62	62	2
48	48	6
190	190	1
87	88	1
173	225	1
49	50	3
244	247	1
166	166	6
10	10	5
37	38	4
108	108	6
37	37	4
33	33	6
233	233	2
12	12	5
3	6	2
230	231	1
76	78	1
238	238	3
233	234	3
200	200	3
218	220	1
240	240	4
43	43	3
62	101	1
203	206	1
236	237	2
11	11	6
156	156	3
112	112	3
197	198	1
93	93	7
55	77	1
96	96	4
221	222	1
109	110	1
231	231	5
57	61	1
101	101	2
218	218	5
49	49	8
242	242	4
95	101	2
64	65	1
238	240	1
188	189	4
205	205	5
14	14	6
46	46	2
56	56	3
210	212	4
51	51	4
41	55	1
113	113	8
84	97	1
53	53	4
58	58	5
185	211	1
38	38	6
112	113	1
66	68	1
232	232	7
81	82	1
197	199	1
68	78	2
227	228	1
157	157	3
88	108	1
38	109	1
0	0	1
197	210	1
2	2	3
19	19	2
153	153	7
114	114	1
191	192	1
24	24	4
174	186	1
153	165	2
201	201	5
73	84	1
224	225	1
6	9	2
194	194	4
60	60	4
236	239	2
189	190	2
218	219	1
218	221	1
194	195	1
204	204	11
216	216	5
167	202	1
45	45	2
96	99	1
185	214	1
159	159	2
181	181	6
236	236	2
189	192	1
114	115	1
170	170	2
85	87	1
239	239	4
84	100	1
14	15	1
90	90	4
179	211	1
245	245	4
116	116	3
55	55	5
162	162	1
165	165	5
199	199	1
68	94	1
34	34	4
198	217	1
80	82	1
115	115	2
150	150	4
197	197	6
84	85	2
180	181	1
228	228	1
164	170	3
171	171	4
110	110	6
198	198	5
234	235	3
216	218	1
5	6	2
192	192	2
201	202	1
246	246	3
157	158	1
64	64	3
27	44	1
57	57	3
15	15	4
109	109	3
40	40	7
155	212	1
74	74	3
220	220	8
175	201	1
241	241	6
7	7	7
107	108	2
95	100	1
104	104	1
212	212	1
178	208	1
83	83	1
178	214	1
179	179	3
73	73	6
44	44	4
5	5	7
30	30	1
56	89	1
174	175	2
224	224	5
187	189	1
111	111	1
48	49	2
9	9	3
54	92	1
208	213	1
97	98	1
97	97	1
4	4	6
145	145	2
76	76	4
100	101	2
86	95	1
120	120	2
191	191	2
115	116	2
28	28	1
70	70	2
171	186	1
163	163	2
173	173	4
222	223	5
237	239	4
185	187	1
99	99	6
228	230	1
68	69	1
53	67	1
93	118	1
168	168	2
31	33	2
209	209	2
86	88	1
60	104	1
178	178	2
217	217	3
186	187	2
169	183	1
57	58	2
172	197	1
183	204	1
76	77	1
182	182	1
29	29	3
230	230	4
66	67	1
6	6	3
16	16	1
176	177	1
219	219	4
162	189	2
67	67	1
41	41	3
186	236	1
241	242	4
47	47	2
195	195	5
176	200	1
186	186	3
227	227	1
168	180	2
77	77	4
85	97	2
99	101	1
211	213	1
223	223	1
73	77	1
27	93	1
66	66	2
67	68	3
171	226	1
56	57	2
182	203	1
220	221	3
203	204	1
118	118	3
175	179	1
50	50	1
102	175	1
92	92	1
40	109	1
65	78	1
224	234	1
116	117	2
20	22	1
155	155	1
17	17	3
68	93	1
58	71	1
217	219	1
68	68	3
167	203	2
177	177	3
25	29	2
211	230	2
86	86	3
216	217	2
85	86	2
55	58	1
206	206	3
213	230	1
6	10	1
153	154	2
36	36	3
1	19	2
59	59	2
120	145	1
80	80	2
237	245	1
193	199	2
169	170	1
61	62	1
188	188	2
55	75	2
174	174	3
191	196	1
214	214	1
41	42	2
110	117	1
169	171	2
27	27	2
235	235	5
176	220	2
146	146	1
248	248	2
55	56	3
20	20	3
42	42	2
195	196	1
55	57	1
42	43	1
33	34	2
172	172	2
151	152	2
163	164	3
39	39	2
62	63	1
208	209	1
179	180	1
108	115	1
222	222	3
154	154	4
237	237	2
86	87	1
156	157	2
101	109	2
53	55	1
82	96	2
184	208	1
161	161	1
116	175	1
199	248	1
50	51	1
54	54	2
242	243	1
70	72	1
53	219	1
98	98	2
226	227	1
74	82	2
208	208	5
25	25	2
10	11	2
58	60	1
95	96	1
72	172	1
57	63	1
105	106	2
18	42	1
84	118	1
160	198	1
113	114	2
36	37	1
47	246	1
84	119	1
78	79	1
79	79	1
89	94	1
215	215	2
94	100	1
28	29	1
197	221	1
184	185	2
56	110	1
175	175	1
18	19	1
111	113	1
8	9	1
58	75	1
208	219	2
180	180	1
184	184	2
119	119	4
61	63	1
65	66	1
3	42	1
1	1	1
145	156	1
91	92	1
48	71	1
167	168	3
239	240	1
213	213	1
71	71	1
4	11	1
16	184	1
228	231	1
18	18	2
32	33	3
194	197	1
193	193	1
45	46	1
173	184	1
151	151	1
54	67	1
198	242	1
232	233	1
151	155	1
197	200	1
169	169	1
65	65	1
168	169	1
160	160	1
78	107	1
156	160	1
89	90	1
119	120	1
15	16	1
226	231	1
212	243	1
215	218	1
44	112	1
55	94	1
34	65	1
214	223	1
31	32	1
56	94	1
34	66	1
214	215	1
219	220	1
52	64	1
180	193	1
179	181	1
230	246	1
207	228	1
87	87	1
31	31	1
202	202	1
120	160	1
58	59	1
5	7	1
53	54	1
175	176	1
147	147	1
13	14	1
54	59	1
106	106	1
214	222	1
2	3	1
243	243	2
164	183	1
235	236	1
196	196	1
187	187	1
2	5	1
97	104	1
39	40	1
20	44	1
