113	113	3
53	53	5
28	28	3
19	19	3
148	149	2
64	65	5
109	109	3
56	56	3
116	117	1
51	51	2
119	119	2
149	149	2
6	8	2
16	16	2
93	93	3
94	94	2
106	106	2
114	114	1
70	70	2
62	86	1
95	127	1
41	41	4
57	57	1
14	14	5
89	104	1
82	82	1
137	138	2
11	11	2
102	102	2
22	22	2
95	95	4
152	152	4
135	141	2
69	69	4
136	136	2
44	44	3
147	148	2
96	97	1
30	32	1
130	130	5
94	116	1
27	29	1
85	86	2
65	65	2
124	124	3
76	76	3
39	150	1
146	146	1
15	16	1
21	21	1
86	102	1
146	148	1
33	33	2
68	68	1
10	31	1
33	36	1
93	94	2
149	150	3
50	51	2
30	30	3
144	144	3
142	142	3
134	151	1
38	38	4
14	15	2
4	4	1
55	56	2
32	34	1
7	8	1
79	80	1
76	77	1
97	97	2
107	107	3
39	39	2
48	48	5
154	154	2
47	47	2
100	115	1
42	42	1
62	63	1
24	26	1
65	66	1
48	50	1
67	67	1
121	121	2
120	120	1
67	73	1
88	99	1
138	138	4
85	88	1
20	20	1
29	29	3
31	31	3
145	149	1
119	120	1
151	152	1
83	83	2
92	125	1
77	100	2
84	87	1
100	100	2
104	104	4
98	98	2
83	84	1
122	122	2
19	31	1
140	142	2
8	8	3
123	131	2
45	45	2
117	117	3
109	150	1
74	74	1
53	117	1
26	27	1
54	55	1
7	7	2
57	58	1
46	46	3
115	115	2
134	134	4
18	43	1
132	136	2
6	6	1
102	129	2
15	26	1
29	80	3
30	39	1
40	40	3
36	36	2
100	101	1
47	67	1
23	23	4
45	46	3
92	92	1
6	7	1
119	128	1
13	13	3
20	23	1
150	151	1
99	99	1
5	5	1
50	50	1
129	129	4
7	10	1
4	6	2
110	110	1
87	87	3
135	135	4
63	125	1
17	39	2
29	43	2
119	148	1
18	18	4
10	10	2
9	9	3
54	74	1
32	32	2
43	43	1
27	27	2
53	123	1
80	80	4
27	28	1
67	68	1
25	26	3
79	79	2
64	64	1
108	108	2
112	113	2
37	72	1
81	83	1
20	21	1
139	139	3
126	128	1
98	99	2
27	114	1
111	111	1
43	45	1
28	42	1
38	39	2
132	132	1
126	127	1
138	139	1
69	70	1
94	98	2
93	99	1
81	82	1
82	84	1
133	133	2
96	96	2
17	18	1
73	73	2
28	43	1
101	101	1
143	148	1
6	33	1
64	106	1
104	105	1
97	98	1
85	114	1
42	43	2
140	144	1
139	144	1
9	10	1
148	148	1
24	24	2
108	149	1
51	54	1
92	93	1
153	153	2
78	78	1
145	145	1
103	105	1
24	25	1
28	29	2
21	26	1
12	21	1
75	82	1
103	104	1
151	151	1
86	86	1
39	40	1
68	71	1
81	84	1
125	125	1
144	145	2
108	109	1
100	118	1
29	56	1
37	39	1
74	75	1
127	128	1
3	3	1
107	122	1
36	43	1
137	137	1
42	50	1
147	147	1
35	35	1
131	131	1
75	76	1
98	115	1
13	16	1
120	121	1
77	78	1
54	54	1
41	84	1
37	37	1
53	118	1
70	71	1
12	13	1
71	73	1
72	72	1
55	55	1
54	61	1
