146	147	1
120	120	3
153	154	3
111	113	1
7	8	1
201	202	1
192	192	4
2	3	1
73	74	1
190	190	1
178	178	3
17	18	5
61	65	1
171	174	1
38	38	2
23	51	1
146	161	1
22	22	2
171	172	1
173	173	6
154	154	1
168	168	3
23	23	4
56	72	2
210	210	2
171	171	2
16	17	1
204	204	4
102	105	1
142	142	1
27	28	1
61	122	1
148	148	1
57	59	1
96	96	1
85	86	1
163	163	1
135	136	4
170	170	2
188	188	1
115	115	2
226	227	2
125	125	1
201	217	2
100	100	1
147	148	1
122	122	3
0	3	1
118	118	1
62	63	4
155	155	3
25	25	4
160	169	1
19	19	3
24	25	3
31	61	2
102	102	2
47	47	6
1	9	3
169	200	2
229	231	1
165	165	1
116	116	3
21	22	2
2	2	2
217	217	1
177	178	1
206	207	1
194	194	3
75	76	2
52	53	1
1	2	2
176	176	3
226	226	1
184	184	2
163	167	1
175	175	4
118	121	3
198	209	3
185	186	1
24	24	1
29	29	5
141	141	4
75	107	2
97	97	2
180	181	3
188	190	2
147	147	2
177	187	1
148	151	1
218	218	4
13	41	2
53	60	1
156	157	1
169	170	1
191	191	2
45	47	1
200	200	3
120	132	1
146	150	3
7	9	1
198	219	1
228	228	2
222	222	1
103	103	4
79	79	2
213	213	3
49	49	2
6	6	3
44	45	3
186	187	4
37	39	1
199	212	1
216	227	1
34	35	1
121	132	3
27	47	1
23	205	1
43	47	1
149	151	2
150	150	3
154	156	1
129	129	1
207	207	1
175	176	3
55	55	3
152	170	1
158	188	1
77	77	3
79	82	2
27	27	2
195	195	1
34	36	1
177	183	1
33	36	1
156	195	1
158	187	2
181	182	1
65	65	3
38	42	1
75	75	3
37	42	1
70	70	2
158	158	4
178	179	2
83	83	2
191	217	1
148	149	1
124	125	2
1	1	2
33	37	1
215	216	1
5	7	2
28	29	2
130	130	1
56	57	1
11	11	2
78	78	2
117	118	1
54	61	2
214	214	1
113	113	8
9	9	4
26	26	2
233	234	1
39	39	2
181	181	2
33	33	2
48	80	1
46	46	1
69	69	4
237	237	2
36	36	1
72	72	4
112	112	2
176	201	2
29	48	1
42	42	4
163	164	1
85	85	3
141	143	1
168	179	1
172	176	1
216	228	1
61	61	2
81	83	1
13	13	3
218	219	2
20	23	1
135	135	1
158	159	2
44	44	2
187	187	3
136	139	1
146	146	6
183	186	2
12	13	1
32	33	1
144	157	1
62	62	2
64	111	2
139	139	2
216	216	1
169	169	2
162	169	1
124	124	1
47	48	1
0	0	2
240	240	1
43	43	2
151	151	1
166	167	1
73	73	3
134	165	1
145	145	1
30	30	2
160	161	1
156	156	2
107	107	1
18	19	1
54	105	1
16	16	1
149	154	1
100	106	1
88	88	1
45	45	4
149	149	2
115	116	1
74	74	3
209	209	1
136	171	1
183	184	1
215	215	1
106	106	2
64	64	2
58	58	2
104	104	1
21	21	1
155	168	2
172	172	2
177	177	1
179	179	3
64	65	1
103	104	1
6	13	1
0	31	1
98	98	1
37	38	1
126	126	2
31	33	1
236	236	1
207	230	1
142	144	1
162	162	3
111	112	1
10	10	1
167	169	1
87	88	1
42	43	1
13	15	1
3	3	2
71	71	2
49	59	1
127	127	1
117	117	1
60	60	4
151	152	1
102	106	1
41	41	1
76	76	1
51	51	1
163	166	1
45	46	1
78	79	1
15	58	1
126	151	1
165	166	1
128	128	2
64	69	1
70	71	1
197	213	1
166	166	2
192	219	1
186	228	1
154	155	1
15	17	1
26	28	1
6	184	1
144	147	2
128	129	1
17	17	1
134	149	1
75	80	1
49	50	1
170	171	1
86	86	3
201	201	2
91	145	1
73	101	1
32	32	1
202	202	1
190	191	1
182	182	2
167	167	1
77	78	3
188	189	1
73	102	1
161	162	1
67	67	1
134	134	1
208	209	1
28	30	1
14	14	1
205	205	2
242	242	1
135	160	1
161	213	1
79	80	1
14	19	1
33	34	1
186	186	1
189	209	1
88	89	1
140	141	1
13	14	1
84	84	1
63	64	1
26	27	1
8	11	2
105	105	2
109	114	1
153	179	1
3	64	1
50	51	1
197	198	1
221	221	1
83	84	1
163	165	1
7	7	2
223	224	1
29	96	1
215	229	1
0	2	1
199	214	1
193	193	1
233	233	1
219	219	1
81	81	1
104	105	1
104	127	1
162	165	1
51	57	1
