73	73	4
22	22	2
155	155	6
151	151	3
84	84	1
42	42	3
148	148	4
128	129	1
30	30	3
103	103	4
119	119	2
41	41	4
101	134	1
88	88	1
80	80	1
36	36	3
11	11	2
26	26	1
156	156	2
6	6	3
106	106	4
128	128	1
8	8	1
31	31	1
16	16	6
131	132	2
91	91	3
29	32	1
153	153	2
23	23	2
66	67	1
83	86	1
136	143	1
92	92	3
120	120	1
71	71	3
124	141	1
108	121	2
158	158	7
54	54	2
7	7	1
135	135	4
51	51	1
152	154	1
98	98	3
150	150	6
85	85	1
3	3	4
67	67	2
13	13	2
75	138	1
64	64	1
89	89	1
144	144	1
115	142	1
131	131	4
54	55	1
142	142	2
1	2	1
129	138	1
150	151	1
123	152	1
151	152	1
90	91	2
107	107	2
144	147	2
107	115	2
92	97	2
94	94	2
68	122	1
156	157	1
24	24	1
140	140	1
66	66	2
121	122	1
53	54	1
5	6	3
22	23	1
21	21	1
135	136	1
88	89	1
130	150	1
47	48	1
115	115	1
109	109	1
129	130	3
0	2	1
139	139	2
25	25	3
105	111	2
132	132	2
62	101	1
7	23	2
102	102	2
86	86	2
11	12	1
130	130	2
117	118	1
87	87	2
154	154	2
33	33	2
2	26	1
103	104	2
107	111	1
45	45	1
133	133	3
154	155	2
28	28	2
17	19	1
35	36	1
70	72	1
97	97	1
152	152	5
25	26	1
46	46	2
139	140	1
49	49	1
127	128	3
157	157	1
5	5	1
12	12	1
121	121	2
14	14	1
55	55	2
105	105	3
104	105	1
27	27	1
70	70	2
0	0	4
127	127	3
64	132	1
4	140	1
114	114	1
108	108	3
0	23	1
12	13	1
137	137	2
56	56	1
28	153	1
45	50	1
157	158	2
29	30	1
69	69	2
18	19	1
32	32	2
28	154	1
55	57	1
1	1	2
53	55	1
65	75	1
17	40	1
116	137	1
77	77	1
38	39	1
68	82	1
147	147	1
50	50	1
143	145	1
100	100	1
80	81	1
40	40	2
107	131	1
67	68	1
79	79	1
141	143	1
29	29	1
47	47	1
90	127	1
28	29	1
47	71	1
116	129	1
1	151	1
17	48	1
5	7	1
135	138	1
70	71	1
129	139	1
4	4	1
109	120	1
2	2	1
82	82	1
104	104	1
80	105	1
33	38	1
110	110	1
65	65	1
105	116	1
91	92	1
73	152	1
63	63	1
52	54	1
