150	150	6
65	65	5
64	64	2
3	3	5
120	120	5
152	155	1
123	123	1
46	47	1
92	96	1
36	50	1
126	126	3
90	141	1
130	130	3
151	151	4
106	107	2
84	84	2
91	91	3
124	145	1
157	157	5
139	139	6
80	85	1
51	51	1
127	127	6
33	34	2
67	67	3
132	132	5
106	116	1
15	16	3
142	142	4
10	12	3
9	14	2
113	113	2
141	141	2
138	138	2
156	156	2
106	150	1
46	46	1
138	140	1
124	124	3
121	124	1
45	45	3
134	134	3
22	22	2
13	13	2
115	135	1
71	71	4
63	63	1
133	133	2
150	152	1
116	127	1
118	118	4
117	117	2
112	112	2
67	85	1
44	97	1
87	112	1
32	33	1
131	132	3
143	143	5
148	148	3
138	146	1
154	155	4
125	126	1
26	27	2
66	97	2
31	109	2
79	81	3
111	112	3
127	142	1
21	21	1
120	144	3
111	111	4
120	142	1
151	154	1
127	139	2
88	92	1
82	82	1
135	135	6
157	158	3
38	39	1
15	15	3
77	79	1
128	128	6
144	144	3
78	78	1
88	88	2
0	0	2
70	70	2
49	49	2
110	110	1
104	105	2
70	71	2
14	14	2
95	95	1
151	152	1
106	106	5
121	122	2
107	107	5
30	30	1
109	109	2
80	81	1
31	32	1
61	93	1
74	74	1
105	105	3
140	140	2
134	135	1
0	1	1
6	6	1
79	83	2
78	86	1
34	35	2
100	100	5
87	87	1
7	7	2
154	154	3
155	155	3
138	139	2
68	149	1
25	36	1
125	125	1
92	92	3
92	93	1
44	44	4
101	155	1
31	31	2
35	35	2
47	47	1
127	128	1
20	20	1
132	157	1
124	125	2
86	87	1
68	68	2
40	41	1
54	54	2
27	27	1
71	72	1
98	98	2
129	129	2
141	142	1
39	39	2
66	66	1
4	4	2
1	1	1
86	92	2
135	137	1
131	131	1
152	153	2
120	140	1
75	75	2
82	83	1
105	107	1
73	73	1
69	69	1
144	145	1
110	116	1
22	23	2
100	119	1
111	124	2
13	16	1
77	93	1
118	119	1
16	16	1
41	41	1
119	120	1
43	43	1
2	2	1
97	97	2
158	158	4
79	80	2
13	43	1
72	100	1
155	156	1
153	153	1
99	129	1
37	39	1
10	10	2
94	94	1
96	96	4
104	104	1
8	10	1
113	114	1
3	104	2
77	77	4
108	108	2
12	12	2
115	126	1
9	9	1
0	143	2
102	103	1
23	24	1
123	126	1
101	101	2
93	97	1
24	65	1
144	148	1
16	32	1
17	17	2
55	55	2
137	137	1
123	124	1
21	107	1
142	151	1
73	151	1
66	92	1
112	116	1
39	40	1
68	69	1
25	25	1
152	152	1
56	56	1
78	79	1
27	37	1
16	22	1
18	19	1
101	103	1
14	15	1
136	136	1
38	47	1
100	101	1
103	103	2
83	84	1
133	139	1
18	57	1
34	34	1
115	115	1
48	48	1
35	36	1
7	38	1
88	89	1
38	40	1
40	40	1
116	116	1
141	155	1
130	131	1
11	14	1
42	42	1
8	8	1
72	72	1
122	122	1
24	24	1
109	112	1
85	85	1
111	134	1
79	79	1
