141	141	3
0	0	1
132	133	1
78	78	1
106	107	2
93	93	5
46	46	1
58	61	1
41	42	5
52	52	2
34	144	1
83	86	1
67	101	1
120	120	3
43	87	2
123	149	1
3	4	3
155	155	6
118	136	1
79	109	1
2	2	2
114	114	3
18	21	1
77	77	5
22	22	3
79	80	4
50	53	1
158	158	2
54	55	1
16	33	2
114	147	1
119	119	6
66	73	3
21	22	2
139	139	4
125	126	2
147	147	5
127	127	3
40	41	1
14	14	2
96	96	8
93	144	1
138	139	1
113	114	1
47	48	1
75	77	1
4	5	1
72	72	1
124	135	1
18	19	2
67	68	2
118	118	3
122	122	5
104	104	2
105	105	7
45	45	1
87	90	1
144	144	9
25	25	3
102	103	3
70	70	5
109	110	1
140	140	5
28	29	2
122	137	1
67	86	1
149	150	1
146	148	1
38	39	2
151	151	2
19	53	1
107	108	1
114	121	1
95	96	2
92	92	4
26	68	1
93	94	3
122	136	1
128	128	4
116	117	1
109	109	4
117	117	1
126	126	3
103	132	1
101	101	3
119	121	1
134	134	3
15	15	4
119	141	1
150	158	1
69	69	2
135	135	4
88	88	2
137	137	1
46	63	3
9	9	2
8	8	2
136	136	3
67	67	2
114	118	2
112	112	4
7	8	2
63	114	1
51	52	1
19	20	1
30	30	2
8	9	2
42	42	3
123	147	1
130	149	1
99	99	1
134	135	1
31	31	2
115	121	1
113	113	1
5	6	2
146	146	3
73	75	1
135	136	2
108	139	2
74	95	1
23	23	1
4	4	5
36	36	2
86	87	1
41	41	1
106	106	3
108	113	1
133	134	2
66	66	2
95	112	1
108	108	2
45	46	1
43	43	1
100	100	2
125	145	1
45	54	2
47	47	2
29	29	1
18	18	2
31	32	1
49	49	1
39	155	1
86	132	1
111	111	7
134	136	1
48	48	1
152	152	4
107	109	1
28	28	2
130	130	2
157	157	3
21	21	5
10	10	1
2	3	1
118	119	2
84	84	1
82	82	3
142	142	6
129	129	4
2	26	1
73	73	2
150	150	5
123	125	1
156	156	1
17	19	1
132	132	6
75	75	2
119	126	1
131	131	2
146	147	4
39	119	1
36	37	1
7	10	1
123	124	2
110	110	1
159	159	1
148	149	1
88	89	1
12	12	3
110	121	1
108	109	4
105	106	2
24	25	1
89	89	4
68	121	1
55	55	3
10	117	1
42	43	1
113	118	1
130	131	1
123	123	3
43	44	1
33	33	1
35	36	1
91	92	1
145	145	4
90	91	3
70	140	1
57	57	2
27	28	2
144	145	1
148	148	2
107	107	4
62	63	1
88	90	1
40	40	1
21	145	2
95	133	1
49	52	1
143	147	1
64	143	1
24	24	3
112	135	1
91	91	2
68	70	1
94	95	1
85	85	1
26	26	1
11	23	1
151	154	1
103	139	1
90	90	1
56	56	2
149	149	3
122	141	1
71	71	3
98	98	2
14	16	1
116	127	1
103	103	1
130	133	2
82	83	3
16	29	1
102	102	1
33	41	1
14	40	1
111	116	1
116	116	1
142	149	1
51	51	1
99	100	1
97	97	1
26	101	1
127	143	1
1	1	1
80	80	2
124	127	1
13	13	3
21	41	1
32	33	2
48	50	1
2	128	1
44	105	2
122	138	1
124	126	1
126	127	1
33	68	1
126	145	1
153	154	2
91	94	1
138	138	1
31	33	1
131	141	1
12	149	1
127	134	1
79	93	1
90	92	1
34	34	1
155	157	1
77	78	1
16	16	1
45	50	1
17	24	1
140	141	2
43	47	1
113	115	1
117	120	1
10	11	1
0	1	1
111	130	1
125	135	1
63	63	1
112	115	1
153	153	2
47	50	1
42	86	1
95	95	1
155	156	1
67	85	1
87	87	1
124	124	1
35	35	1
7	7	1
43	45	1
46	87	1
154	154	2
20	154	2
50	50	1
68	69	1
76	77	1
142	143	1
136	137	1
140	150	1
62	62	1
11	145	1
12	14	1
5	5	1
