48	48	6
45	45	4
99	99	5
80	83	2
34	35	3
79	80	3
77	78	1
54	55	3
47	48	2
50	50	2
74	74	5
89	101	1
96	96	1
46	71	1
26	26	5
56	66	1
52	52	4
24	24	1
53	56	1
27	27	1
92	92	2
97	98	3
82	82	3
85	93	1
69	69	5
70	71	1
78	78	4
37	37	4
38	38	2
94	94	6
28	69	1
93	95	2
48	51	2
98	98	8
85	85	3
35	45	1
61	63	3
22	22	4
83	83	7
61	61	3
49	49	1
57	57	3
51	52	2
83	84	2
71	71	6
54	54	10
76	76	5
58	62	1
38	41	1
77	77	1
91	92	2
64	64	2
66	67	3
56	56	3
49	72	1
59	59	1
24	25	1
47	47	4
50	51	4
80	80	5
58	58	4
86	86	1
79	79	7
25	26	2
102	102	3
89	89	5
88	88	8
86	87	2
36	36	2
65	65	2
56	57	3
57	89	2
25	55	1
26	28	2
87	94	2
99	100	2
57	58	2
63	64	1
101	101	7
61	66	1
74	76	1
91	93	1
68	68	3
70	70	3
39	40	3
59	62	1
39	39	6
91	91	5
68	69	2
87	87	2
35	43	1
88	99	2
26	34	1
59	61	1
25	25	3
48	49	2
66	70	1
55	55	3
77	93	1
57	60	1
67	67	1
41	41	4
93	93	2
53	54	2
51	55	1
32	32	2
46	46	4
95	95	4
63	63	4
40	40	2
96	98	1
94	98	1
62	62	3
62	63	1
84	84	2
58	60	1
95	96	2
101	102	1
100	100	4
90	90	2
66	68	1
55	85	1
72	75	1
88	89	4
37	38	2
20	20	1
41	42	1
48	50	1
27	29	1
93	94	1
35	35	1
43	43	4
42	42	1
44	44	4
89	91	1
57	91	1
34	34	1
29	29	2
89	92	1
42	43	2
65	66	1
96	97	3
63	65	1
98	99	1
36	54	2
20	38	1
60	61	1
87	88	2
85	88	1
26	70	1
75	84	1
69	70	1
23	23	3
84	100	1
53	53	4
90	102	1
40	100	1
35	54	1
65	68	1
59	68	1
51	51	1
33	34	1
58	59	4
80	87	1
69	71	1
88	101	1
60	80	1
35	37	1
85	96	1
77	97	1
95	98	1
60	60	2
80	97	1
80	99	1
81	82	1
77	79	1
51	80	1
33	33	2
81	81	1
23	24	1
26	29	1
86	88	1
85	90	1
33	49	1
40	42	1
97	97	1
31	31	1
61	62	1
76	77	1
28	28	1
49	78	1
