39	55	1
224	224	1
10	29	2
3	3	5
173	173	8
143	181	1
43	43	8
82	82	2
170	170	3
139	139	5
204	204	2
187	187	3
175	176	1
117	117	2
189	189	4
17	20	2
151	213	1
150	155	1
163	168	2
55	56	1
159	159	5
206	220	1
114	176	1
27	27	2
17	17	3
102	170	1
71	106	1
12	20	1
40	40	1
155	194	2
35	35	1
106	173	1
162	163	1
45	45	2
223	223	3
168	169	3
215	218	1
124	124	2
154	154	2
23	59	1
161	161	2
129	130	2
96	96	1
103	127	1
21	21	4
80	96	2
163	184	1
175	219	1
17	18	2
47	47	2
137	180	2
35	36	4
33	35	1
231	231	1
86	236	1
39	47	3
202	202	3
166	166	1
54	198	1
205	205	2
50	50	1
152	154	1
57	57	4
75	235	2
59	60	1
72	73	3
158	159	2
104	104	3
185	186	4
137	151	1
68	68	1
32	51	1
69	172	2
181	182	1
140	140	3
223	224	1
136	145	1
100	121	1
211	211	3
34	34	3
58	58	4
52	52	3
227	227	1
234	234	2
138	149	1
100	100	3
136	179	1
111	111	1
30	32	4
171	171	3
76	76	2
136	178	1
154	155	1
12	12	4
8	8	5
177	211	1
153	197	1
167	180	2
195	195	2
221	221	2
21	45	1
69	241	1
123	124	3
54	54	2
184	187	3
123	123	3
212	212	1
8	9	1
64	64	1
173	242	2
119	150	1
180	185	1
61	64	2
179	179	2
7	7	7
85	85	2
130	130	1
20	120	1
143	163	2
66	67	2
213	213	1
67	151	1
114	114	1
234	235	1
153	156	1
129	131	1
206	207	3
65	65	2
61	61	2
230	230	1
142	143	1
24	39	3
208	208	1
22	36	1
191	219	1
75	75	2
207	210	2
45	68	1
51	52	1
214	214	1
32	57	1
9	9	4
144	171	1
218	218	1
157	157	3
160	160	3
48	55	1
144	146	1
143	147	1
180	180	5
56	57	1
70	70	4
237	240	1
181	181	4
222	222	1
186	187	2
116	116	1
76	77	3
158	158	2
29	29	3
55	55	3
15	19	3
207	213	1
128	128	3
15	15	2
131	135	1
102	178	1
95	95	1
206	206	2
156	210	1
40	42	1
186	186	3
188	188	1
146	147	2
71	109	1
149	149	2
109	113	1
225	225	1
86	86	1
153	157	1
81	81	4
141	141	3
203	203	2
48	48	3
185	188	3
172	172	2
60	60	2
74	74	3
133	134	2
39	39	1
77	79	1
36	36	1
5	13	1
83	83	2
180	187	2
155	156	2
18	38	1
131	175	2
203	216	2
49	49	2
50	54	1
10	15	1
136	137	1
196	197	1
152	152	1
66	66	5
16	16	1
9	65	1
0	15	1
180	184	1
46	47	2
174	238	1
137	137	2
182	217	1
118	118	6
169	169	2
12	22	1
15	16	2
142	150	1
134	134	3
200	208	1
99	100	2
85	95	1
32	32	1
199	201	2
6	151	1
236	237	3
132	132	1
207	208	1
202	203	1
30	30	1
178	178	2
238	238	1
214	215	1
106	106	1
147	147	1
216	216	1
1	1	2
164	164	3
136	171	1
207	221	1
154	189	1
23	33	1
167	167	2
78	78	3
115	134	2
211	212	1
177	177	2
114	178	1
160	201	1
11	11	1
213	214	1
136	136	2
168	178	1
146	146	2
21	226	1
113	113	2
239	239	1
146	148	1
41	42	1
206	208	1
59	59	1
209	209	1
208	209	1
242	242	6
210	213	2
178	180	1
118	161	1
108	108	3
109	110	2
19	19	1
184	184	2
163	163	1
229	230	1
137	197	1
98	174	1
185	185	3
54	97	1
77	81	1
14	19	1
176	176	3
234	238	1
158	191	1
192	196	2
180	210	1
169	170	2
38	38	2
4	206	2
19	20	2
14	14	2
144	144	2
240	240	3
139	150	1
149	179	1
152	153	1
161	182	1
164	181	1
33	37	1
193	194	1
4	4	3
182	183	1
4	56	1
105	234	1
232	232	2
165	165	2
194	197	1
34	40	1
174	174	2
179	180	1
53	53	1
162	164	1
121	127	1
35	52	1
138	138	1
33	33	1
69	69	4
98	100	1
168	168	2
135	135	2
7	8	1
190	190	2
155	157	1
203	206	1
191	191	4
73	73	1
205	221	1
194	194	1
50	52	1
152	198	1
234	237	2
130	218	1
184	186	1
42	62	1
159	160	1
22	56	1
116	118	1
139	140	1
125	125	1
192	193	1
33	34	1
220	220	2
49	63	1
46	46	1
101	180	1
75	80	1
67	67	3
68	197	1
158	160	1
20	20	3
120	135	1
6	6	1
9	28	1
161	162	1
226	227	1
10	10	1
11	15	1
149	151	1
191	199	1
26	27	1
116	186	1
54	100	1
77	77	2
52	53	1
235	235	1
101	101	1
193	193	2
198	198	2
142	147	1
8	15	1
110	110	1
141	142	1
159	182	1
38	39	1
157	160	1
155	155	2
62	62	1
145	174	1
100	168	1
30	31	1
100	111	1
19	224	1
206	225	1
25	27	1
105	105	1
51	51	1
204	206	1
154	162	1
201	202	1
71	71	1
153	187	1
30	59	1
116	117	2
45	46	1
37	198	1
151	151	1
171	172	1
183	183	1
33	51	1
75	107	1
237	237	1
25	25	1
62	121	1
78	81	1
101	236	1
103	126	1
18	19	2
12	17	1
162	162	1
28	28	1
150	151	1
75	173	1
2	7	1
153	154	1
133	133	1
220	221	1
195	197	1
136	149	1
72	72	1
4	150	1
16	29	1
43	45	1
63	63	1
22	62	1
129	235	1
135	136	1
163	165	1
107	164	1
115	118	1
