42	42	2
113	113	3
10	20	1
115	127	2
84	95	1
139	144	1
63	97	1
98	100	1
150	151	2
125	146	1
85	85	3
79	100	1
74	104	1
119	134	1
43	46	1
125	125	1
83	86	1
135	140	1
75	75	2
134	153	1
103	103	1
132	132	2
27	34	1
5	5	1
77	77	1
102	111	1
88	91	1
113	144	2
107	117	1
76	76	2
28	28	1
100	101	1
40	50	1
74	95	1
24	38	1
70	78	1
40	41	1
7	14	1
24	25	2
24	24	3
84	111	1
101	103	2
54	54	1
105	108	1
13	13	3
138	138	2
22	46	1
141	147	1
130	130	4
12	34	1
10	31	1
35	43	2
152	152	3
10	13	2
8	22	1
149	149	1
92	93	1
4	8	1
80	80	4
107	107	1
25	26	1
100	111	1
78	101	1
122	123	1
38	44	2
29	29	1
16	16	1
47	47	2
7	8	1
11	11	1
135	135	1
14	31	1
128	128	3
125	150	1
19	19	1
18	18	2
133	144	1
9	17	1
78	102	1
102	104	1
84	115	1
108	108	2
78	78	1
23	46	1
96	116	1
121	124	2
72	76	1
121	121	2
117	117	2
38	51	2
112	116	1
126	144	1
43	43	1
75	77	2
48	53	1
113	129	1
68	68	2
53	58	1
32	36	2
39	39	2
128	137	1
153	153	2
120	133	1
116	132	2
154	154	1
104	104	1
140	140	1
57	58	1
34	34	1
5	12	2
35	35	1
116	117	1
13	15	2
129	131	1
27	38	2
69	70	1
95	98	1
18	19	2
142	148	2
96	97	1
55	55	1
106	106	1
150	150	1
104	113	1
45	45	1
45	46	1
97	115	1
147	147	1
82	85	1
63	66	1
87	88	1
49	49	2
49	56	1
8	51	1
83	84	1
3	6	1
133	133	1
9	15	2
21	22	3
124	130	1
68	70	1
118	118	1
45	48	1
105	106	1
126	126	1
33	34	1
12	14	1
145	147	1
127	140	1
30	39	1
23	23	1
115	126	1
52	52	1
24	31	1
86	99	1
104	106	1
67	68	1
76	77	1
38	38	1
17	20	1
17	17	1
136	141	1
100	114	1
35	36	1
44	49	1
87	87	1
39	42	1
50	50	2
93	93	1
21	21	1
122	138	1
76	79	1
20	20	1
131	149	1
111	111	2
25	28	1
106	133	1
130	143	1
44	44	1
49	50	1
147	153	1
109	123	1
125	126	1
46	54	1
137	137	1
120	121	1
131	131	1
127	130	1
25	41	1
108	123	1
129	132	1
67	82	1
123	139	1
47	53	1
89	95	1
83	83	1
94	94	1
