3	3	9
57	57	2
125	125	7
113	114	2
138	138	8
21	41	2
9	12	1
87	87	3
109	109	8
43	67	1
83	84	2
40	45	2
140	140	3
126	146	1
152	152	10
107	127	1
121	122	5
15	15	5
4	4	3
123	124	2
129	129	5
148	148	6
1	2	4
112	141	2
9	9	7
92	92	3
89	89	4
128	128	3
103	130	1
144	144	8
100	101	4
130	152	1
115	115	4
81	81	3
64	64	4
141	141	6
96	96	6
114	114	5
157	158	3
36	36	2
7	7	7
153	153	3
93	93	4
123	123	5
118	119	3
122	123	3
95	95	3
32	32	2
130	130	6
80	83	1
79	79	3
86	86	6
44	44	7
156	156	5
101	101	3
106	106	7
66	67	2
131	131	7
21	21	5
105	105	4
111	111	7
27	27	2
73	73	2
48	49	1
93	94	5
151	151	8
114	115	5
49	49	6
24	28	1
112	112	8
126	144	1
77	77	3
123	130	1
31	32	1
78	78	6
95	107	1
51	52	2
33	33	3
118	118	5
20	43	2
67	67	4
82	82	7
133	133	3
14	15	3
84	127	1
20	20	5
18	19	1
139	140	1
22	25	1
127	128	1
142	142	10
97	97	3
28	28	4
6	105	1
104	105	4
110	125	1
149	149	3
86	88	2
29	121	3
90	115	1
74	92	1
62	62	5
154	154	5
105	106	2
113	113	4
3	103	1
24	24	3
126	126	6
100	100	5
139	139	6
8	8	2
68	68	6
11	16	2
71	84	2
5	5	3
55	55	4
127	127	9
47	48	1
134	134	4
19	19	3
63	64	3
74	99	1
138	139	1
8	10	1
84	84	2
46	46	8
48	52	1
42	42	8
50	50	3
34	54	1
23	23	1
134	136	3
109	111	2
48	48	2
66	66	4
12	12	4
21	22	1
135	135	7
29	30	1
47	47	5
131	133	2
53	54	7
85	86	1
17	17	1
146	146	9
7	8	1
65	80	2
111	112	13
120	120	9
116	118	1
83	124	1
26	26	4
112	133	1
8	9	4
99	99	7
52	53	2
35	35	3
7	85	1
151	152	4
65	65	1
91	91	5
65	128	1
121	121	2
4	38	1
69	69	7
67	68	3
124	126	2
132	132	10
46	52	1
124	125	4
33	34	1
85	85	1
68	154	1
30	30	2
122	122	5
0	0	2
39	43	1
116	116	6
41	41	4
20	29	1
158	158	12
18	18	2
107	107	4
14	14	3
44	45	3
137	138	2
136	136	3
149	153	1
87	89	1
80	80	6
54	54	3
88	88	7
83	83	4
116	132	1
115	116	2
155	155	7
92	94	1
95	110	1
99	100	1
144	145	1
43	43	2
137	137	5
124	124	5
98	98	2
119	141	2
51	51	2
53	53	1
123	137	1
65	66	2
81	84	1
122	142	1
31	46	1
63	90	1
34	34	4
88	89	2
37	37	4
134	135	2
15	16	2
94	102	1
83	85	2
35	140	1
2	156	1
152	153	2
21	26	2
13	13	3
97	98	3
116	117	2
145	145	3
157	157	2
86	116	1
51	53	1
38	39	2
2	3	1
79	85	1
56	56	2
77	86	1
75	106	1
110	110	5
104	151	1
8	129	1
52	52	3
123	138	1
149	155	1
76	76	1
10	11	1
122	125	1
117	119	2
123	134	1
25	110	1
111	142	1
11	12	3
66	76	1
33	141	1
108	109	2
102	102	2
41	69	1
109	144	1
123	148	1
28	40	1
92	93	1
26	27	1
91	92	4
55	56	1
78	79	1
71	71	3
25	25	5
90	90	4
133	137	1
31	31	3
104	104	4
110	148	1
82	83	2
154	155	5
109	110	2
119	120	1
33	35	2
120	138	1
130	131	1
93	125	1
144	147	1
132	153	1
146	147	3
69	70	3
19	51	2
42	43	1
2	2	2
110	111	2
87	88	2
27	28	1
117	117	5
79	84	1
66	72	1
135	136	2
119	119	3
11	14	1
3	120	1
41	55	1
148	153	1
82	86	1
90	91	3
145	146	1
76	77	2
116	119	1
84	86	1
72	73	1
133	134	1
7	23	1
2	5	1
38	38	1
85	87	1
136	144	2
143	144	2
94	117	2
7	44	1
76	85	2
147	147	1
3	38	1
11	11	2
145	148	1
150	150	4
144	146	2
19	33	1
72	72	3
29	29	4
134	140	1
147	148	4
73	98	2
114	116	1
38	102	1
40	41	1
132	144	1
128	152	1
108	108	3
110	143	1
17	40	1
155	156	3
70	70	3
139	156	1
46	53	1
37	38	1
74	74	1
30	106	1
103	103	1
19	42	1
87	90	1
23	30	1
70	151	1
6	6	1
109	113	1
75	75	4
117	139	1
36	37	1
93	106	1
41	43	1
120	134	1
22	24	1
106	137	1
76	90	1
46	54	1
37	55	1
30	36	1
22	23	1
156	158	1
39	39	5
45	137	1
143	146	1
94	94	3
68	70	1
142	147	1
91	113	1
79	80	2
32	37	1
82	126	1
130	143	1
50	66	1
7	29	1
2	15	1
20	124	1
104	152	1
25	26	1
17	18	2
21	33	1
153	154	1
150	151	2
142	143	1
84	125	1
122	147	1
19	20	1
53	78	1
68	71	1
23	43	1
133	153	1
53	83	1
33	122	1
68	156	1
112	142	1
46	47	2
18	21	1
24	26	1
36	68	1
70	71	3
136	137	2
127	133	1
131	139	2
63	63	1
135	145	1
81	82	1
16	16	2
4	7	1
69	130	1
77	81	1
13	14	1
77	78	1
7	39	1
99	107	1
64	80	1
98	103	1
36	39	1
4	116	1
1	1	1
83	88	1
9	34	1
40	40	1
14	20	1
106	107	1
61	61	1
56	71	1
94	95	1
32	33	1
107	108	1
132	155	1
10	10	1
152	155	1
88	92	1
141	142	1
25	38	1
123	125	1
152	156	1
73	103	1
96	97	1
