75	75	8
57	75	1
85	85	12
78	79	4
74	74	3
27	27	5
14	14	8
55	61	2
50	51	1
76	77	3
52	52	5
26	26	7
17	18	2
17	17	6
67	84	2
86	86	3
50	50	7
16	17	2
15	15	2
22	23	4
73	73	4
23	23	12
49	50	2
34	34	9
49	49	5
25	26	4
63	82	1
58	58	2
60	60	3
50	71	2
53	59	1
64	65	4
0	0	5
78	78	5
33	33	3
22	22	8
68	68	4
57	90	1
82	82	10
77	77	4
5	9	2
67	67	8
69	69	9
89	90	2
9	9	5
63	63	3
67	79	1
54	55	3
6	6	7
65	65	6
81	81	13
72	72	3
1	2	1
18	18	3
11	12	3
20	20	5
29	29	3
3	4	4
54	75	3
30	30	7
62	62	2
11	19	1
80	80	7
3	3	7
89	89	1
8	14	1
28	28	4
88	89	6
51	51	5
15	16	1
13	13	3
47	47	7
79	79	6
53	53	3
83	83	4
56	56	8
51	52	1
57	59	1
66	66	3
57	57	13
4	4	3
66	83	1
2	2	3
11	11	6
23	24	1
24	25	5
55	57	1
71	71	2
90	90	3
8	9	2
85	86	2
88	88	3
66	67	5
15	27	1
81	84	3
20	21	1
67	68	2
10	11	1
48	49	5
59	60	2
6	12	2
59	59	1
7	7	4
54	54	7
69	80	1
56	57	1
7	9	2
46	46	3
5	5	1
60	64	2
70	74	1
51	53	1
51	59	1
12	12	3
54	64	2
61	61	1
24	24	5
58	66	3
70	70	4
9	10	2
60	63	3
8	8	5
30	31	1
78	80	4
7	8	3
56	90	1
64	64	2
10	10	6
81	82	2
6	10	1
19	19	4
67	71	1
80	81	2
25	27	1
65	82	1
2	12	1
53	56	2
25	25	3
84	84	8
57	84	1
5	6	1
1	1	12
58	77	1
31	31	4
23	50	1
78	81	2
21	22	1
51	64	1
8	70	1
26	27	1
47	50	1
86	87	1
46	47	1
53	54	2
19	20	1
34	46	2
69	85	1
82	83	1
16	16	2
23	81	1
21	21	2
87	87	4
47	48	1
81	83	1
62	64	1
51	89	1
60	61	2
5	7	1
9	12	1
6	7	3
68	69	2
31	33	1
6	8	2
60	65	1
58	59	1
27	30	1
48	48	2
54	56	1
79	81	1
62	65	1
6	17	2
19	31	1
55	55	2
80	84	1
78	84	1
54	87	1
84	86	1
49	53	1
75	77	1
57	58	1
88	90	2
65	74	1
29	31	1
61	65	1
76	76	3
77	79	1
6	24	1
53	55	1
50	66	1
51	79	1
61	62	2
74	75	1
12	14	1
53	90	1
70	73	1
