77	77	5
67	102	1
112	120	2
126	126	9
140	141	7
11	11	5
156	156	8
149	149	1
107	107	4
121	121	6
68	68	3
92	93	1
134	134	6
95	96	4
140	140	6
139	139	7
154	155	2
77	78	3
17	18	1
1	1	2
122	123	3
45	45	4
152	152	7
131	131	5
112	123	2
28	39	1
133	133	2
88	88	2
39	39	4
144	144	7
128	128	2
87	89	1
97	97	4
139	157	2
3	3	5
23	23	6
119	119	4
70	138	1
94	95	1
25	25	4
68	69	2
51	51	3
4	5	1
7	8	3
157	157	6
69	154	1
36	36	5
43	44	3
155	155	5
136	136	9
130	130	5
41	147	1
151	151	7
148	148	5
139	142	2
110	111	2
82	82	2
100	100	3
136	137	1
132	132	7
134	135	2
22	23	2
55	55	3
114	114	7
22	36	1
135	140	1
54	55	2
118	118	4
97	98	1
16	16	3
83	84	3
27	28	1
146	146	4
98	98	9
17	17	1
51	55	1
110	110	2
145	145	5
6	6	2
102	102	2
134	137	2
8	8	2
27	27	1
108	109	2
119	121	1
62	62	3
117	117	10
144	146	1
84	85	2
50	50	4
40	40	1
81	81	3
9	17	1
86	138	1
26	26	7
123	124	1
72	73	2
130	132	5
66	105	1
111	112	3
41	41	3
87	87	3
66	66	2
143	143	1
90	91	3
101	101	8
85	90	1
69	71	2
14	14	2
30	30	1
129	156	1
42	42	4
37	38	2
63	84	1
53	53	1
13	13	5
51	52	1
91	91	1
155	156	2
122	122	2
78	78	5
153	153	5
142	142	7
10	11	2
47	47	5
32	32	1
24	36	1
132	133	4
19	19	2
30	36	2
92	92	4
112	112	5
22	22	4
108	108	7
95	95	2
45	46	2
50	56	1
113	115	3
17	47	1
156	157	2
33	33	1
113	113	3
86	87	1
151	152	3
151	153	1
50	63	5
94	107	2
137	144	1
18	18	3
2	36	1
132	149	1
123	126	2
20	20	4
3	4	4
26	27	2
138	138	6
69	69	4
40	41	3
35	117	1
35	44	2
141	141	2
36	120	2
81	82	1
111	127	1
111	124	2
109	110	1
20	21	2
106	107	1
22	38	1
127	128	1
46	46	5
111	111	4
37	42	1
18	19	1
57	84	1
34	34	2
157	158	1
4	4	3
115	152	1
72	133	3
84	137	1
20	65	2
28	28	8
106	106	7
115	116	1
63	63	3
34	48	1
103	103	3
104	104	3
77	106	2
49	49	2
71	71	5
114	116	1
78	79	2
18	56	2
127	127	8
142	143	1
32	35	1
146	147	3
145	146	1
70	70	2
143	147	1
9	16	1
48	48	2
115	115	4
112	125	1
105	105	3
36	37	2
121	122	3
144	148	1
147	147	3
129	129	4
5	5	8
104	105	2
103	104	1
22	24	1
97	155	1
44	44	4
76	76	3
152	156	1
116	117	1
67	67	2
143	148	2
152	153	5
73	73	3
110	117	1
77	93	1
35	35	2
75	106	1
66	103	1
153	154	1
83	83	2
84	84	1
123	127	1
131	133	1
86	128	1
135	135	4
109	109	5
150	150	1
7	7	1
70	71	1
86	86	2
36	43	2
89	90	1
116	116	2
68	133	1
14	41	1
135	148	1
93	93	2
67	69	2
125	126	2
108	110	1
154	154	4
42	54	2
45	119	2
50	51	1
75	75	2
113	123	1
76	77	1
144	145	1
137	137	2
2	2	1
78	80	1
118	141	1
12	12	1
99	99	4
10	10	3
18	20	1
129	130	2
108	124	1
112	113	1
78	94	1
30	31	2
16	17	1
30	39	1
106	134	1
117	141	1
94	94	2
158	158	2
121	137	1
155	158	1
16	18	2
93	94	1
39	40	1
46	48	1
91	92	1
31	33	1
120	120	4
6	22	1
124	124	3
62	63	1
29	29	2
114	115	1
91	99	1
25	26	1
56	56	2
74	74	1
38	54	1
66	70	1
1	72	1
138	139	1
64	65	1
19	20	1
39	42	1
127	151	1
99	100	2
21	21	1
89	89	1
112	115	1
3	5	2
24	26	1
126	127	2
96	96	3
139	155	1
123	125	1
88	89	1
94	106	1
0	0	1
120	121	1
130	131	2
98	131	1
37	37	1
30	32	1
65	67	1
84	117	1
70	72	1
24	25	2
98	100	1
15	15	1
49	63	1
107	108	1
28	29	1
148	149	1
67	115	1
7	40	1
33	41	1
110	112	1
145	149	2
38	40	1
31	32	1
12	13	1
117	119	1
119	120	1
43	71	1
65	65	1
