127	127	4
172	174	1
157	157	3
18	18	5
45	84	1
106	106	3
171	173	1
17	17	11
11	11	9
189	189	3
138	179	3
150	150	2
187	188	1
196	196	10
159	160	1
2	2	3
5	43	1
25	28	2
123	123	7
10	10	6
22	22	5
191	193	1
71	71	2
23	23	2
159	159	3
87	87	7
155	155	2
65	65	1
154	187	1
146	147	3
31	31	6
127	150	1
42	42	3
81	82	2
169	169	5
173	174	1
23	33	1
29	29	1
18	24	2
185	185	6
121	122	1
58	58	4
89	89	3
133	134	1
28	28	4
113	117	2
121	121	2
15	15	3
67	67	1
70	71	2
93	99	1
140	179	2
30	30	5
67	72	1
99	99	1
173	173	2
40	41	2
73	78	1
47	47	4
8	8	4
165	165	3
3	5	4
49	53	2
126	128	2
39	43	2
88	88	1
9	9	5
127	128	1
190	190	2
17	25	1
105	106	4
88	93	1
40	40	4
135	135	4
4	4	3
175	175	2
144	145	2
139	139	1
162	162	6
187	187	3
88	89	1
20	21	2
105	105	2
7	8	1
130	137	1
68	68	2
125	125	1
33	33	9
95	95	6
44	61	1
161	161	3
35	35	9
55	58	1
165	166	2
4	8	1
66	66	4
142	143	3
170	171	2
131	131	3
152	152	5
122	123	2
2	3	1
142	142	5
167	167	2
139	140	3
32	42	1
29	34	3
37	45	1
95	102	1
138	142	1
77	77	3
54	54	1
136	139	1
63	68	1
110	112	2
183	184	2
48	49	2
15	38	1
138	140	1
174	174	2
154	157	2
65	70	1
0	1	1
53	57	1
43	43	4
7	28	1
138	138	5
78	78	1
118	120	2
132	135	1
39	72	1
4	11	2
174	175	2
181	182	3
64	65	5
188	188	3
179	179	3
168	171	1
26	27	1
182	183	4
134	134	3
182	182	6
189	192	1
158	159	2
128	128	3
1	1	2
130	138	1
9	40	1
7	9	3
163	163	4
171	184	1
155	160	2
56	57	2
138	184	2
26	26	5
23	29	1
149	149	4
63	63	2
168	168	3
68	78	1
159	164	1
19	19	4
194	194	5
48	48	11
50	50	3
45	45	2
56	56	2
158	158	4
13	14	1
47	48	1
164	168	1
171	172	4
23	24	2
38	39	1
82	82	2
151	151	4
75	75	2
162	163	2
186	186	4
24	32	1
189	190	2
6	6	2
160	191	3
146	146	1
15	17	1
13	13	5
7	7	5
28	29	4
8	12	2
103	103	3
73	73	2
167	174	2
25	25	2
101	101	7
81	81	4
124	139	1
12	12	6
143	143	3
184	185	1
170	170	8
30	31	4
154	159	1
149	160	1
96	100	1
74	74	1
28	30	3
0	7	1
144	144	9
1	2	1
171	171	4
153	159	1
49	66	1
17	20	1
100	103	1
53	135	1
8	16	1
34	36	1
126	150	1
116	116	5
183	196	1
132	133	2
178	178	2
5	23	2
3	3	4
83	86	1
28	34	1
80	80	1
36	36	5
18	20	1
34	34	8
59	59	2
24	26	3
129	176	1
85	85	2
43	63	1
140	140	1
8	9	1
128	134	1
33	65	1
160	182	1
24	24	1
156	156	4
42	47	2
19	25	2
76	85	1
183	183	8
112	114	1
193	193	2
182	187	1
49	49	2
28	173	1
142	147	2
184	184	8
70	73	1
12	20	1
46	46	2
31	33	1
16	16	4
153	153	2
120	120	1
149	150	2
149	174	1
53	53	2
167	183	1
118	121	1
126	126	1
172	182	1
197	197	3
32	40	1
96	97	1
113	115	1
14	37	1
18	25	1
130	130	3
20	24	1
144	147	1
169	187	1
16	19	1
115	115	1
57	57	1
189	191	4
141	151	1
45	47	1
103	104	1
27	28	2
158	160	2
0	20	1
142	153	1
1	3	1
6	13	1
5	9	1
10	137	1
104	104	1
32	32	5
104	105	1
15	23	2
46	127	1
128	129	1
183	190	1
87	131	1
161	164	1
141	141	2
174	177	1
176	176	4
35	166	1
110	145	1
102	102	1
159	162	1
38	73	1
71	74	1
33	36	1
46	53	1
114	114	2
148	179	1
104	109	1
50	51	2
146	148	1
45	46	2
186	193	1
15	19	1
191	191	1
192	192	6
163	164	2
79	79	1
15	18	1
9	31	1
21	77	1
14	14	4
166	167	1
18	19	1
177	177	1
5	5	2
99	112	1
51	70	1
145	148	1
62	67	1
9	24	2
6	8	2
161	163	2
115	117	1
39	88	2
35	36	2
115	153	1
98	99	3
82	84	2
41	44	1
142	150	1
70	85	2
154	154	4
120	129	1
18	41	1
81	99	1
55	56	1
29	32	1
166	189	1
141	150	1
164	166	1
25	33	2
98	110	1
119	119	1
18	21	2
0	2	1
78	79	1
21	22	2
160	160	3
13	128	1
14	72	1
123	129	1
52	52	2
186	187	1
172	172	1
87	90	1
40	53	1
73	85	1
107	118	1
80	81	1
108	114	1
110	138	1
172	179	1
195	196	1
166	170	1
121	143	1
72	72	3
117	144	1
167	170	3
27	31	1
169	170	1
38	40	1
17	31	1
153	154	1
138	143	1
64	70	1
93	93	1
121	123	1
23	25	1
70	70	2
29	30	1
5	6	1
131	133	1
141	160	1
27	27	1
3	31	2
113	113	2
145	145	1
124	129	1
41	41	2
24	25	1
38	38	2
63	129	1
12	14	2
9	11	1
0	0	2
102	114	1
133	133	2
153	186	1
167	168	2
155	162	1
140	172	1
132	132	2
108	108	3
164	165	2
14	20	2
106	107	2
174	188	1
19	23	1
114	116	1
39	40	1
148	148	1
112	112	1
165	168	1
27	30	1
102	106	1
10	11	2
117	117	2
109	109	2
193	194	1
47	193	1
163	166	1
138	141	1
12	13	1
67	74	1
168	175	2
159	180	1
9	14	2
179	183	1
94	100	1
57	65	1
181	189	1
53	55	1
13	21	1
122	122	1
118	118	1
168	179	1
46	47	1
50	53	1
156	159	1
109	145	1
82	83	1
137	182	1
77	79	1
100	104	1
54	60	1
9	10	1
20	20	2
176	177	1
86	86	1
148	150	1
194	197	1
119	121	2
126	127	1
26	28	1
150	159	1
122	130	1
83	90	1
37	37	3
33	34	1
177	182	1
130	149	1
178	179	2
178	180	1
177	187	1
33	39	1
11	158	1
136	136	1
5	8	1
63	69	1
118	119	1
188	193	1
180	182	1
98	121	1
51	52	1
32	37	1
182	186	1
146	159	1
36	37	2
23	40	1
65	152	1
16	33	1
107	107	1
142	172	1
129	129	1
166	166	1
152	163	1
116	117	1
132	169	1
