65	66	1
22	30	1
164	164	1
164	167	1
10	32	2
137	137	2
73	73	4
172	172	3
170	170	4
57	58	1
124	124	1
10	10	2
145	163	1
4	14	1
136	136	2
44	44	4
89	117	1
171	171	2
101	101	3
134	136	1
107	113	1
34	34	1
5	5	4
103	112	2
112	112	2
54	55	1
139	139	1
0	43	1
115	126	1
16	16	2
180	180	1
150	151	1
30	30	1
165	165	1
102	118	1
89	90	1
70	70	1
39	39	1
31	33	1
46	46	3
57	57	2
154	154	1
17	17	2
143	143	6
6	7	1
114	114	3
149	149	3
118	118	1
31	31	3
11	11	2
133	133	5
106	106	2
33	73	1
94	95	2
153	153	1
9	9	2
5	6	1
61	61	2
162	162	2
63	66	1
168	168	3
54	76	1
134	135	1
81	121	1
71	72	2
14	15	1
151	154	1
25	32	1
125	125	2
130	130	2
39	40	1
23	23	1
37	37	2
156	156	1
151	151	1
104	105	2
72	72	2
178	178	1
146	147	1
132	132	3
2	2	2
2	43	2
17	27	1
144	155	1
140	166	1
50	51	1
95	95	2
101	108	2
42	42	4
55	55	2
179	179	3
1	1	1
8	8	4
88	90	1
83	84	4
36	36	1
29	29	1
151	152	1
90	90	2
65	72	2
109	109	2
136	137	1
14	14	1
66	66	1
86	87	1
125	146	1
93	117	1
27	27	1
173	174	1
126	126	2
127	139	1
117	119	1
167	168	1
155	155	1
144	144	3
95	126	1
169	169	1
113	114	1
150	157	1
114	117	1
158	158	1
1	2	1
176	176	6
74	82	1
150	150	2
54	95	1
104	104	2
45	45	2
42	64	1
24	24	1
135	135	3
23	24	1
96	96	1
26	75	1
3	34	1
143	144	1
122	122	1
84	84	1
3	35	1
27	49	1
126	158	1
123	124	1
11	14	1
95	130	1
7	9	1
177	177	2
40	40	2
26	26	1
137	138	2
4	23	2
77	78	1
77	77	1
10	14	1
108	109	1
100	100	1
141	141	1
124	125	1
64	64	1
82	89	1
156	157	1
67	107	1
114	121	2
22	22	1
93	93	1
108	139	1
152	153	2
76	76	2
92	99	1
179	180	1
32	32	4
6	6	2
151	158	1
65	65	2
128	155	1
87	87	1
37	38	1
125	145	2
81	149	1
157	171	1
51	51	1
85	94	1
50	50	1
83	89	1
28	29	1
75	75	2
92	93	1
75	134	1
1	3	2
105	105	1
7	26	1
139	140	1
154	156	1
49	49	1
83	83	3
138	138	1
172	174	1
131	131	1
167	169	1
71	71	1
110	110	3
140	140	1
35	35	1
139	141	1
102	102	1
136	172	1
3	5	2
10	43	1
8	11	1
59	60	1
159	159	1
152	152	1
74	74	2
78	78	1
52	52	1
6	10	1
86	127	1
81	81	1
150	163	1
3	3	1
115	116	1
43	43	1
135	140	1
116	116	1
8	9	1
19	20	1
135	136	1
136	140	1
66	67	1
28	37	1
148	148	1
75	139	1
41	41	1
56	56	1
88	88	1
149	150	1
130	131	1
157	158	1
