135	135	5
23	23	1
133	133	2
85	85	4
87	87	8
70	79	1
97	97	2
71	72	2
19	19	2
20	20	2
24	24	4
21	21	1
114	133	3
80	80	4
97	99	1
108	109	1
58	58	1
62	62	2
63	63	5
33	93	2
25	25	3
50	50	2
119	119	2
46	46	2
124	126	1
49	49	2
53	53	6
4	4	2
15	15	1
66	66	2
95	96	1
76	76	2
59	59	1
111	111	3
79	80	1
9	9	1
82	82	4
8	9	1
86	86	3
55	55	1
28	28	2
70	70	4
114	115	2
106	106	1
84	84	7
83	84	2
10	10	1
59	60	1
61	64	3
64	64	1
60	60	2
65	65	2
9	10	3
93	104	1
131	133	1
113	113	1
108	111	2
19	20	2
11	22	1
5	5	1
66	70	1
125	130	2
99	103	2
119	122	2
22	23	2
44	44	3
57	57	1
5	6	1
74	74	3
7	11	2
105	105	3
17	17	1
77	77	2
7	8	1
72	114	1
75	88	1
52	104	1
112	112	4
107	107	1
28	29	2
91	92	1
10	25	1
8	8	3
63	64	3
22	22	2
112	129	2
18	21	1
69	69	4
98	98	2
86	87	1
14	14	1
92	92	3
43	61	1
31	32	1
77	86	1
111	112	2
108	108	2
67	69	1
90	90	2
66	67	1
123	123	1
25	29	1
130	130	2
26	66	2
61	61	3
45	46	1
32	32	2
116	116	2
62	63	1
81	81	2
57	70	1
6	6	1
32	64	1
78	114	2
100	100	1
52	57	2
115	115	2
54	55	2
66	68	1
58	59	1
93	93	2
37	37	3
16	16	2
1	1	2
45	61	1
119	120	1
120	120	1
64	93	1
35	66	1
20	37	1
122	122	1
30	45	1
44	62	1
68	68	3
110	110	1
4	48	1
17	22	1
115	116	1
65	68	1
35	82	1
25	52	1
78	78	1
53	90	1
33	34	1
75	81	1
58	60	1
72	72	1
85	90	1
49	50	2
38	38	2
101	101	1
119	124	1
10	11	1
61	63	1
102	102	2
71	71	1
134	134	3
5	27	1
43	44	2
14	15	2
6	7	1
7	45	1
126	126	1
101	104	1
22	49	1
52	82	1
13	15	1
96	97	1
93	111	2
29	34	1
77	84	1
32	33	1
78	86	1
54	54	1
16	53	1
62	116	1
52	94	1
84	85	1
9	11	1
78	79	2
13	13	1
88	112	1
127	127	1
31	31	1
55	57	1
35	35	1
73	73	1
104	104	1
60	61	1
26	26	1
27	27	1
11	11	1
2	2	2
95	122	1
