37	51	1
26	27	1
7	8	1
123	135	1
132	132	1
41	41	2
42	43	3
117	117	2
72	73	1
74	74	1
41	43	2
22	22	1
39	75	1
73	73	1
139	139	2
80	81	1
28	28	1
6	7	1
54	55	2
111	111	2
15	18	1
31	32	1
79	82	1
32	32	2
119	119	3
117	118	2
23	23	1
133	135	1
68	68	1
106	107	1
153	153	3
141	142	1
11	11	2
111	112	3
72	72	2
19	19	3
87	98	1
116	118	1
136	136	3
147	148	2
45	46	1
96	96	2
94	94	1
138	138	1
108	108	1
138	143	1
21	21	2
42	45	1
142	142	2
49	50	1
5	8	1
122	122	1
154	154	1
105	106	1
147	147	1
6	6	1
128	130	1
39	39	2
68	69	3
42	42	5
70	106	1
25	27	1
131	131	2
5	5	2
133	133	3
82	86	1
28	29	1
96	110	1
36	36	1
50	53	1
103	104	1
133	151	1
18	22	1
34	117	1
144	144	2
66	66	2
33	34	1
120	120	1
149	149	1
43	73	1
106	106	1
3	3	2
4	5	1
46	46	1
145	146	1
128	129	1
104	104	1
125	125	1
116	116	1
131	140	1
20	20	1
121	137	1
35	35	1
25	25	1
81	81	1
123	125	1
5	37	1
63	64	1
24	25	1
7	7	1
34	34	4
121	121	1
16	16	3
121	122	1
67	67	1
115	143	1
20	37	1
116	138	1
118	118	2
123	130	1
12	12	1
61	62	1
146	146	2
98	98	2
27	27	1
8	9	1
102	103	2
63	63	2
35	37	2
112	112	1
104	113	1
34	35	1
51	53	2
141	141	1
127	127	2
61	119	1
131	132	1
121	124	1
129	129	2
69	69	1
38	40	1
114	114	2
83	84	2
11	28	1
98	99	1
18	46	1
13	44	2
76	76	1
65	66	1
107	113	1
65	65	1
44	50	1
102	102	2
126	126	1
118	144	1
10	10	1
133	134	1
6	35	1
100	105	1
145	145	1
105	127	1
31	31	1
62	84	1
56	56	1
13	13	1
43	45	1
84	85	1
10	25	1
18	20	1
17	17	1
97	126	1
85	85	2
145	150	1
104	122	1
49	49	1
147	149	1
61	61	1
70	70	1
109	110	1
121	144	1
148	148	2
49	76	1
110	110	1
129	130	1
17	44	1
62	62	1
54	54	1
14	14	1
37	45	1
75	75	1
153	154	1
50	50	1
66	67	1
4	8	1
