75	75	3
8	8	2
54	136	1
83	83	3
119	119	1
124	124	2
27	27	1
64	64	1
93	93	3
44	44	4
28	28	1
52	52	4
41	45	1
48	96	2
43	43	3
146	146	2
76	76	1
1	146	1
35	35	2
153	153	2
45	134	1
169	169	2
144	155	1
34	34	3
124	128	2
150	150	3
161	161	1
45	150	1
3	3	1
86	87	2
143	143	5
116	116	1
168	168	1
18	18	1
19	23	1
47	51	1
147	147	2
20	21	1
72	87	1
51	51	3
121	123	1
100	105	1
155	155	2
12	12	1
35	36	5
66	66	2
2	2	2
47	48	2
79	121	1
139	164	1
103	103	1
41	41	4
109	109	2
144	144	3
33	34	1
84	85	1
158	158	2
70	71	1
134	135	1
163	163	1
77	77	2
165	166	2
23	23	2
9	9	2
11	11	3
133	134	3
134	134	1
105	106	2
92	92	1
85	85	1
90	91	1
98	99	2
24	24	3
162	163	1
130	130	4
138	138	3
138	144	1
80	81	4
77	78	2
48	49	1
91	91	3
62	71	1
132	141	1
0	2	1
0	0	1
126	127	1
4	5	2
156	156	1
83	84	2
7	7	2
20	20	3
19	24	1
138	157	1
49	49	2
149	151	2
136	137	1
53	56	1
62	63	1
148	159	1
7	12	1
71	72	1
86	86	2
47	47	2
25	44	1
104	104	1
115	115	1
145	145	5
107	107	1
143	144	1
26	26	1
44	136	1
76	99	1
80	80	1
150	154	1
165	165	1
90	106	1
158	160	1
74	74	1
79	79	2
63	64	2
129	144	1
25	25	4
129	139	1
149	150	1
140	140	2
110	110	3
67	67	1
152	158	1
18	97	1
55	56	1
136	136	2
122	122	2
26	27	1
43	144	1
68	161	1
150	151	1
149	167	1
146	147	2
168	169	1
87	88	1
118	118	1
117	117	2
147	148	1
116	146	1
71	71	2
44	45	1
37	37	2
96	96	2
74	76	1
120	143	1
11	12	1
61	62	1
131	131	2
53	55	1
108	135	1
40	40	1
142	142	2
7	11	1
88	89	1
53	54	1
1	5	1
133	165	1
110	157	1
78	79	1
24	25	2
21	22	1
97	106	1
17	17	2
79	108	1
1	1	1
22	22	1
69	69	1
36	36	3
49	92	1
129	159	1
6	6	2
6	7	1
10	10	1
19	19	2
166	166	1
12	13	1
0	1	3
12	15	1
122	123	1
92	115	1
53	53	1
161	170	1
161	162	1
121	122	1
1	4	1
101	102	1
5	27	1
81	81	1
159	159	1
139	139	1
14	14	3
77	79	1
68	68	1
135	135	1
125	126	1
39	40	1
45	45	1
56	56	1
121	121	1
125	125	2
15	15	1
157	159	1
109	135	1
126	126	1
17	25	1
117	164	1
123	125	1
110	117	1
95	96	1
70	156	1
133	133	1
27	28	1
87	87	1
4	4	1
75	76	1
103	120	1
49	95	1
151	153	1
107	108	1
68	70	1
77	93	1
21	24	1
162	162	1
128	133	1
98	98	1
128	129	1
42	43	1
68	88	1
37	39	1
73	73	2
84	86	1
112	117	1
48	48	1
40	53	1
144	154	1
164	164	1
160	160	1
91	93	1
101	101	1
112	112	1
99	99	1
147	150	1
155	156	1
40	41	1
