133	133	3
103	103	3
4	4	5
188	189	1
22	24	1
192	193	1
161	161	1
34	34	2
8	181	1
16	99	2
35	36	1
44	44	2
102	104	1
38	39	2
48	49	1
170	171	1
77	77	1
27	28	2
46	46	3
7	7	2
37	37	3
15	15	3
149	149	3
37	65	1
177	177	3
42	42	2
27	27	1
13	13	2
78	97	1
63	63	2
61	61	1
152	152	3
70	71	1
141	142	1
173	173	2
10	10	3
183	183	2
4	9	1
3	4	1
136	141	1
196	197	3
180	181	1
45	45	2
68	68	1
79	79	2
167	180	1
74	74	3
72	72	1
34	35	2
16	21	2
14	43	1
112	136	1
6	7	2
29	29	1
106	137	1
144	144	2
118	118	1
156	156	2
47	47	1
182	194	1
41	41	2
35	83	1
40	41	1
110	110	2
180	180	1
25	32	1
122	122	2
101	164	1
64	64	2
34	197	2
21	21	2
20	20	3
189	189	1
114	114	1
83	85	1
116	116	1
59	59	1
22	78	1
104	110	1
172	174	1
82	102	1
154	169	1
24	24	4
93	93	1
197	197	1
58	58	3
165	166	2
39	41	3
88	88	2
72	87	1
1	74	1
9	31	1
163	164	1
140	141	1
54	55	1
58	60	1
122	132	1
119	147	1
39	39	4
158	158	2
176	176	2
194	194	2
80	80	1
14	14	4
151	151	1
185	185	2
32	32	3
145	145	2
82	86	1
134	134	2
160	160	1
109	110	3
76	76	5
94	102	1
185	186	1
0	0	1
157	159	1
148	148	1
132	132	1
35	35	3
129	129	1
28	28	1
33	33	2
161	162	1
38	38	4
69	69	1
8	8	4
39	51	1
150	151	1
1	1	3
12	12	1
170	170	1
112	187	1
1	3	1
96	96	1
32	56	1
154	154	3
193	194	1
95	104	1
159	159	3
16	85	1
139	139	1
61	98	1
24	25	2
161	163	2
28	67	1
8	9	2
25	33	1
36	36	2
30	30	1
16	17	1
104	104	1
192	192	1
59	61	1
31	31	1
187	187	2
73	73	1
193	193	2
147	148	3
175	175	2
154	155	1
115	115	1
142	158	1
18	18	1
62	63	1
39	129	1
143	144	1
58	59	1
182	182	2
2	2	2
67	84	1
57	57	1
188	191	1
94	94	1
94	95	1
66	67	1
5	5	1
60	62	1
22	22	2
65	65	1
41	47	2
165	165	3
29	36	1
56	56	1
184	184	1
25	26	2
151	156	2
89	89	1
188	188	1
9	15	1
18	98	2
59	62	1
5	111	1
150	150	1
21	22	2
173	174	1
76	77	1
66	66	2
86	87	1
57	129	1
123	124	1
173	193	1
49	49	2
135	135	1
5	6	1
4	24	1
35	75	1
63	113	1
153	153	1
112	112	2
66	72	1
9	10	1
113	113	1
148	168	1
44	177	1
111	169	1
77	78	1
174	175	1
7	22	1
146	146	2
181	181	1
109	109	1
168	168	1
144	145	1
43	43	1
5	16	1
53	53	1
184	194	1
117	119	1
50	50	1
71	71	1
17	17	1
16	48	2
192	194	1
167	181	2
11	11	2
62	62	1
48	48	1
39	40	1
102	159	1
190	190	1
141	141	1
22	23	1
147	147	1
120	120	1
156	183	1
174	178	1
149	150	1
6	18	1
124	124	1
122	123	1
32	33	1
179	179	1
41	42	1
46	131	1
159	166	1
43	44	1
17	21	2
125	125	1
2	3	1
58	62	1
140	140	1
1	2	1
118	119	1
67	72	1
186	187	1
16	19	1
167	169	1
23	23	1
9	9	1
