125	126	1
19	20	4
1	1	3
140	140	4
132	132	1
44	44	4
158	158	4
147	147	2
51	51	2
33	34	1
154	154	3
54	54	1
94	95	2
91	91	1
64	65	1
120	120	4
49	50	1
24	35	2
167	168	1
11	11	1
139	139	2
83	84	1
169	169	2
15	29	2
95	150	1
142	142	2
155	155	1
160	161	2
151	155	2
111	111	4
173	173	3
1	44	1
130	167	1
10	10	5
100	113	2
97	117	1
136	136	2
94	94	1
106	106	2
125	158	2
87	99	1
71	71	1
6	7	3
163	167	1
81	81	1
125	144	1
2	2	1
175	175	5
107	107	3
12	12	1
14	15	2
153	154	1
68	68	2
34	34	2
6	6	5
99	99	2
84	99	3
135	136	1
106	119	1
128	128	2
33	33	1
83	83	2
98	116	1
101	101	1
16	17	2
176	176	2
154	156	2
91	97	1
87	87	3
171	172	2
23	27	2
132	134	2
145	145	2
76	78	1
31	31	3
138	138	2
43	43	1
11	13	1
14	14	1
110	110	1
172	172	5
77	77	3
110	128	1
126	148	1
97	97	1
41	41	2
39	39	4
24	24	3
25	26	1
86	102	1
112	112	2
90	90	2
50	50	2
84	101	1
57	64	1
116	116	3
39	40	1
140	141	1
161	162	1
141	141	4
53	54	1
122	122	1
152	153	1
9	9	2
137	137	6
8	41	1
37	37	2
162	162	3
39	43	1
90	91	2
22	24	1
1	38	1
45	45	2
54	75	1
55	55	2
145	160	1
23	23	1
40	41	2
5	5	3
104	106	1
74	74	1
176	177	1
131	131	4
149	168	1
85	85	1
26	26	2
180	180	3
35	35	2
88	89	1
148	148	2
36	36	1
73	73	2
100	100	1
146	160	2
134	134	1
171	171	3
65	65	2
119	142	1
123	125	1
66	73	1
179	179	2
63	63	1
38	38	2
29	37	1
42	163	1
98	102	1
165	166	1
104	108	2
126	159	1
98	98	1
15	18	1
100	112	1
66	66	2
85	86	4
0	0	1
115	116	1
150	150	1
4	4	1
64	83	2
7	7	2
131	132	1
13	13	2
152	168	1
103	109	1
93	93	2
141	142	1
38	160	1
9	11	1
42	42	1
114	119	1
95	96	1
76	76	1
59	59	1
18	18	1
103	105	1
104	105	3
163	163	1
103	103	2
84	85	1
65	66	2
142	143	2
104	104	1
158	162	1
29	29	1
143	146	1
97	98	2
143	143	1
127	127	1
92	100	1
74	75	1
125	148	2
118	118	1
3	3	1
106	116	1
143	144	1
40	40	1
148	158	1
174	174	2
5	33	1
121	121	1
126	131	1
149	150	1
152	152	1
96	96	1
26	30	1
163	166	1
58	58	1
115	154	1
53	66	1
103	126	1
85	93	1
168	168	1
42	49	1
2	36	1
154	159	1
75	76	1
22	22	1
61	61	1
7	36	1
34	44	1
43	45	1
41	42	2
125	145	1
86	89	1
161	169	1
124	151	1
23	24	1
74	77	1
40	162	1
8	8	2
151	152	1
72	74	1
159	159	1
3	16	1
123	166	1
3	14	1
96	131	1
125	125	1
162	163	1
