2	2	5
34	39	1
133	133	4
23	23	2
100	114	2
118	118	2
19	141	1
106	106	2
21	27	1
9	9	2
77	77	5
31	31	3
2	4	1
34	34	9
69	69	6
62	80	2
131	132	1
12	13	2
146	146	3
116	116	3
20	96	2
30	30	1
38	40	1
19	19	2
66	66	2
141	141	3
25	26	2
25	25	5
70	70	5
105	105	1
87	87	1
118	120	3
104	104	2
113	113	1
1	1	4
97	99	1
29	32	1
59	60	2
22	22	4
62	62	3
53	53	4
91	98	1
106	137	1
121	121	4
80	81	1
96	97	2
120	120	3
68	118	1
64	122	1
91	124	1
129	129	1
90	118	1
67	69	1
127	127	5
27	27	2
135	135	2
65	65	1
98	98	2
17	17	2
51	51	3
11	11	2
56	56	3
4	5	2
43	43	1
97	97	1
74	74	1
75	76	1
108	110	4
49	49	3
92	103	1
102	103	2
0	0	1
126	130	2
71	71	2
92	92	1
64	64	2
145	145	2
107	107	3
26	26	2
27	29	1
111	113	2
40	56	1
96	96	1
137	137	1
29	29	2
37	37	3
79	83	1
38	95	2
69	93	1
35	35	3
75	75	5
100	100	3
134	134	1
24	56	1
112	112	1
111	118	1
84	85	1
52	52	2
14	15	1
54	57	1
47	55	1
130	130	3
119	119	1
71	132	1
65	123	1
41	42	1
34	35	1
118	136	2
10	21	1
72	75	1
20	20	1
54	54	2
91	91	4
42	43	1
24	24	4
61	86	1
58	58	3
71	72	1
43	123	2
118	141	1
18	18	1
123	123	2
8	8	1
47	60	2
128	130	1
92	93	1
13	13	3
39	39	1
67	67	3
84	86	1
14	16	1
107	110	1
105	108	2
121	122	1
85	87	1
65	91	1
111	114	1
67	68	1
136	138	1
63	63	2
30	33	2
111	138	1
87	90	1
63	64	2
14	24	1
112	116	1
103	103	3
61	61	1
102	104	1
122	123	1
114	117	1
73	73	3
98	130	2
9	42	1
134	136	1
14	14	2
26	66	1
8	128	1
123	124	1
81	82	1
40	40	2
36	36	1
10	10	1
135	140	1
2	12	1
109	110	2
21	21	3
33	33	2
20	72	1
8	9	1
17	18	1
118	121	1
131	131	1
108	108	3
72	72	1
85	90	1
69	78	3
53	54	1
85	123	1
113	116	1
50	53	2
58	59	1
109	109	1
101	142	1
144	144	1
100	117	1
6	6	1
138	138	2
15	15	1
82	82	1
83	83	2
82	127	1
20	97	1
25	57	2
13	14	1
48	48	1
65	110	1
59	59	2
38	38	2
140	140	1
114	115	1
95	96	1
103	104	1
50	57	1
10	20	1
115	117	1
116	117	1
100	141	1
8	102	3
139	139	1
20	21	1
70	104	1
103	134	1
88	90	1
118	119	1
6	30	1
117	117	1
42	42	1
110	132	1
133	141	1
124	124	1
124	125	1
84	84	2
23	24	1
5	5	1
57	57	1
60	60	1
99	131	1
66	120	1
50	50	1
68	68	1
21	98	1
73	90	1
18	128	1
99	99	1
16	17	1
23	56	1
110	111	1
115	115	1
28	28	1
83	84	1
17	23	1
