131	131	5
109	109	5
83	120	1
77	83	1
106	107	3
133	133	19
117	119	2
95	96	4
112	114	2
120	120	4
116	116	3
78	79	1
16	18	2
125	125	6
131	135	1
80	80	5
5	16	1
6	19	1
4	4	3
113	118	2
18	18	6
1	1	3
84	85	1
36	36	6
132	132	14
116	117	8
115	115	4
73	73	1
32	32	4
94	94	3
114	114	6
117	117	8
104	119	1
81	81	2
85	85	5
78	78	4
33	34	1
83	87	1
115	117	1
98	98	3
83	83	2
121	121	5
124	124	4
118	119	2
105	105	4
99	99	4
94	131	1
102	107	2
74	74	2
16	16	4
111	112	3
117	118	2
72	72	3
119	122	1
130	130	4
9	9	7
2	3	2
110	110	3
107	108	1
37	37	5
79	79	1
100	100	3
14	14	3
77	77	1
76	76	3
2	2	3
126	128	1
89	89	4
95	95	3
97	101	1
122	122	1
75	75	3
103	103	1
112	123	1
38	97	1
4	5	4
76	78	1
119	120	1
113	113	6
128	128	6
113	114	1
108	118	1
123	123	2
38	38	5
88	88	3
35	35	2
97	97	3
127	127	4
134	134	5
5	5	5
33	113	1
92	92	1
102	129	1
34	34	4
10	11	1
90	90	1
109	110	2
89	90	3
75	76	1
5	19	2
96	96	3
120	122	1
136	136	3
138	138	2
107	107	5
0	0	4
139	139	2
82	82	1
83	84	1
27	27	4
93	95	2
8	8	2
13	13	2
106	106	2
20	20	2
102	103	2
33	33	1
17	17	1
32	33	1
103	104	2
129	130	2
101	101	6
101	102	2
33	109	1
110	111	3
111	111	1
104	105	1
134	135	2
87	87	6
137	137	1
108	108	4
3	5	1
127	128	3
6	6	1
108	109	2
81	85	2
112	112	1
3	3	3
115	116	1
7	7	3
74	75	2
140	140	3
121	122	1
102	102	4
9	10	1
103	107	1
127	133	1
119	119	2
127	129	2
80	91	1
92	93	1
129	129	1
88	107	1
13	15	1
95	115	1
114	116	1
102	116	1
105	106	1
132	133	1
84	84	2
8	9	1
87	88	2
94	95	1
128	129	1
133	134	2
80	116	1
138	139	1
71	71	1
109	111	1
97	100	1
11	11	1
19	19	1
112	121	1
86	86	1
37	38	1
72	73	1
86	87	1
15	15	1
118	118	1
37	101	1
131	132	1
78	82	1
99	124	1
93	93	1
135	135	1
137	138	1
75	77	1
