53	53	3
81	81	4
75	75	3
45	45	2
46	48	1
81	90	1
54	54	1
54	56	2
80	96	1
87	89	1
50	50	2
51	51	5
47	50	2
85	85	1
89	97	1
46	46	2
25	25	5
100	100	6
60	60	1
36	39	1
72	73	1
34	34	5
42	69	1
64	64	4
30	31	3
80	80	5
78	84	2
46	47	2
65	65	3
83	90	2
85	92	1
32	33	4
86	87	1
37	63	2
95	96	2
38	58	1
96	96	3
70	70	1
31	34	1
56	56	2
39	39	3
101	101	5
35	52	1
78	83	3
35	36	1
74	74	3
54	55	2
58	62	1
58	58	2
73	73	3
54	62	1
90	90	2
33	36	1
79	79	6
63	63	5
62	62	5
98	98	6
37	37	2
38	38	3
69	69	2
78	78	4
86	93	1
25	26	1
35	43	1
71	80	1
93	93	3
55	55	2
47	47	3
20	56	1
88	89	1
61	61	3
40	45	1
40	40	3
34	35	1
65	78	1
81	89	1
94	94	5
54	61	1
57	73	1
45	56	1
57	82	1
22	23	1
29	30	2
48	49	3
86	86	4
48	48	3
84	95	1
87	87	2
42	42	4
61	62	1
66	66	2
22	50	1
89	90	1
51	52	1
24	24	1
70	71	2
50	51	1
60	61	2
59	59	2
92	92	3
69	71	1
72	72	2
77	77	2
98	99	3
38	39	1
56	57	1
87	100	1
69	70	1
30	30	3
29	29	3
62	64	1
20	22	1
37	38	4
33	33	3
30	42	1
27	31	1
84	84	3
86	91	1
20	46	1
99	99	2
51	55	1
57	57	3
66	75	2
88	100	1
65	66	1
48	50	1
50	57	2
64	67	1
72	74	1
44	44	3
88	88	3
20	20	4
71	72	1
91	92	5
53	56	2
99	101	1
92	101	1
50	55	1
22	22	1
47	48	2
43	43	2
91	91	1
94	95	1
87	90	1
55	73	1
68	68	3
23	30	1
95	95	3
83	101	1
48	56	1
83	83	1
25	33	1
58	59	1
86	94	1
73	74	1
68	74	1
61	63	1
27	35	1
96	97	1
52	52	4
42	43	2
63	71	1
72	75	1
25	28	1
79	96	1
76	76	2
67	68	1
49	49	1
64	68	1
41	41	1
24	25	1
78	81	1
56	71	1
100	101	1
35	83	1
77	86	1
89	89	2
80	86	1
64	73	1
84	94	1
29	59	1
90	101	1
43	89	1
35	49	1
49	51	1
92	93	1
68	89	2
47	55	1
97	97	2
65	67	1
75	82	1
87	95	1
51	85	1
25	27	1
64	78	1
59	63	1
93	98	1
43	77	1
41	51	1
27	29	1
45	51	2
84	88	1
95	102	1
81	88	1
34	36	1
78	79	1
89	93	1
