97	112	1
19	19	2
130	130	1
106	107	2
80	80	2
111	121	1
23	23	3
108	139	3
91	92	3
52	52	2
39	39	3
53	53	1
163	163	3
143	143	3
93	93	6
139	139	3
3	4	1
79	79	2
32	35	1
97	97	5
74	74	3
40	41	2
10	10	2
122	133	1
134	134	5
29	29	3
176	176	4
148	156	2
112	112	4
18	19	2
137	168	1
41	42	1
63	63	4
82	84	1
170	171	2
140	145	1
128	130	1
91	117	1
22	22	4
150	151	1
86	88	1
92	92	4
71	75	1
11	23	1
26	26	3
91	91	1
24	25	1
126	126	2
115	115	2
89	89	1
29	30	3
152	152	5
136	136	3
153	154	2
31	31	3
153	153	2
179	180	2
162	166	1
125	125	6
8	56	1
35	36	2
102	104	1
147	147	2
15	15	3
150	150	1
135	135	5
28	28	7
11	119	1
111	112	2
23	24	3
158	158	2
6	6	1
71	71	3
113	152	1
122	122	2
90	90	3
4	23	1
55	55	2
131	131	3
57	57	4
78	78	2
172	172	3
171	172	2
17	17	3
106	106	2
12	12	4
169	170	2
169	169	1
105	105	3
62	62	3
85	103	1
42	43	2
5	6	1
178	178	1
16	16	2
86	87	2
113	114	2
37	38	1
78	102	1
148	153	1
60	60	4
30	30	5
60	61	3
146	146	2
49	50	1
59	59	2
118	118	5
2	2	6
41	41	4
32	55	1
108	125	1
107	107	3
160	160	5
45	45	5
128	129	3
103	103	1
13	13	6
119	121	1
66	66	3
111	111	1
167	167	3
36	73	1
26	27	1
166	167	2
116	116	1
129	129	2
167	168	1
9	13	1
64	75	1
95	95	2
123	125	2
27	27	2
40	40	2
110	111	1
65	67	1
151	153	1
81	81	1
76	77	2
31	33	1
32	32	3
85	85	1
103	107	1
22	23	2
3	3	2
117	119	1
38	38	5
100	101	1
133	133	7
101	106	1
132	134	1
86	86	5
94	94	1
36	36	3
144	157	1
8	9	3
43	43	2
132	132	4
32	150	1
175	175	4
10	12	2
132	172	1
130	141	2
37	37	3
58	59	2
3	5	1
101	117	1
120	120	1
126	128	1
86	109	1
58	58	2
177	177	4
2	3	2
130	168	2
130	132	1
24	24	2
101	102	1
130	131	1
75	75	1
103	104	2
11	11	2
157	157	2
54	55	1
35	35	1
30	40	1
34	34	2
140	140	2
116	129	1
81	82	2
88	88	2
137	137	2
9	19	2
14	15	1
174	174	1
124	125	1
148	148	3
37	49	1
140	141	2
100	106	3
14	14	3
101	174	1
95	96	1
7	7	1
129	152	1
8	8	3
39	40	1
51	51	1
155	155	2
18	18	1
14	21	1
170	170	1
106	121	1
54	54	1
72	72	3
88	90	1
127	127	1
82	87	1
68	138	1
64	101	2
122	156	1
1	1	2
28	29	1
138	138	2
77	77	3
156	157	1
67	79	1
121	121	2
76	76	2
8	35	2
173	173	2
140	143	2
143	144	2
15	28	1
119	123	2
87	93	1
29	45	2
145	152	1
109	109	3
121	122	1
156	156	1
44	45	1
98	98	1
100	114	1
61	79	1
99	100	3
0	0	2
119	125	1
160	163	2
55	56	1
24	26	1
56	56	1
131	132	1
150	152	2
14	40	2
159	171	2
11	12	1
44	44	3
152	153	2
92	95	1
180	180	4
117	117	3
165	167	1
73	126	1
14	19	1
95	142	1
23	31	1
135	141	1
36	37	1
134	136	1
152	167	1
158	170	2
130	172	1
22	45	2
151	154	2
118	120	1
154	155	2
129	154	1
7	32	1
149	149	1
126	158	1
67	70	1
85	87	1
161	162	1
162	162	4
107	142	1
4	4	1
7	44	1
16	39	1
167	169	1
124	124	2
151	151	3
145	145	4
108	108	2
30	165	1
142	142	2
26	36	2
166	168	1
74	93	1
43	44	1
24	27	1
18	35	2
70	71	1
8	11	3
115	121	2
57	61	1
121	164	2
141	141	3
64	64	1
97	99	1
167	170	1
60	135	1
132	133	1
66	67	1
124	150	2
20	42	1
165	165	1
161	161	1
10	11	1
96	96	1
51	57	1
84	84	1
87	87	3
92	93	2
138	139	1
52	53	1
83	86	1
29	32	1
166	166	1
82	114	1
42	42	2
68	176	1
68	68	2
82	126	1
96	98	1
25	26	1
165	166	2
6	7	1
123	123	1
128	128	1
23	28	1
76	130	1
50	50	1
119	119	2
159	167	1
67	149	1
126	177	1
98	104	1
100	100	1
92	101	1
173	174	1
12	43	1
26	30	1
5	138	1
62	63	1
12	41	1
159	159	1
83	83	1
39	41	1
7	35	1
179	179	2
30	31	1
25	25	1
140	142	1
83	87	1
84	85	1
101	101	1
50	82	1
115	140	1
82	85	1
123	124	1
