8	8	2
16	16	1
160	160	3
98	100	1
11	11	2
88	88	2
117	117	4
79	79	3
32	33	2
172	172	3
109	109	2
33	33	4
35	42	1
61	61	6
148	148	1
123	124	2
103	103	2
139	139	4
74	74	4
3	3	3
81	82	1
81	86	1
111	126	1
65	93	1
96	96	1
89	89	2
137	137	5
58	58	2
64	84	1
77	77	2
55	55	3
146	147	1
179	179	4
110	111	1
71	73	1
82	82	3
150	150	3
176	176	1
31	31	1
23	39	1
146	146	4
111	111	3
63	65	2
119	119	2
73	78	1
41	42	1
64	64	3
32	32	2
35	35	3
151	152	1
113	113	2
17	44	1
93	93	4
171	171	2
25	58	1
75	75	2
4	4	4
161	163	1
70	80	1
10	10	1
172	178	1
58	59	1
125	125	2
106	108	1
36	80	1
178	178	2
50	58	1
89	125	1
65	158	1
25	26	1
24	29	1
153	153	8
67	98	1
96	102	1
37	37	4
115	116	1
175	176	1
95	98	2
65	65	2
126	126	7
84	91	2
128	130	1
84	85	2
173	173	3
34	37	1
12	13	2
85	104	1
64	65	2
50	51	2
172	179	1
163	163	4
124	125	1
12	12	1
28	28	3
35	44	2
129	129	2
86	88	1
175	175	2
154	154	4
17	34	1
148	152	1
118	118	2
151	151	1
132	132	2
113	114	2
13	13	1
100	100	1
23	24	2
22	23	1
99	101	1
5	5	6
133	176	1
122	125	1
19	39	1
158	158	2
125	145	1
28	39	1
146	148	2
123	126	2
8	31	1
25	25	2
44	44	3
42	44	1
97	98	1
7	9	1
152	168	1
92	93	2
60	61	4
37	38	1
71	74	1
0	0	2
8	9	1
71	72	1
54	55	3
65	71	1
38	38	1
19	40	1
155	155	3
117	121	1
33	37	1
133	133	1
154	156	1
94	115	1
39	88	2
170	170	2
14	14	1
90	107	1
110	110	2
152	153	1
165	165	1
83	84	1
3	36	1
26	26	2
17	17	1
5	6	1
57	57	2
87	87	1
133	134	1
108	108	2
15	15	2
143	143	2
1	5	1
98	117	1
52	66	1
56	57	1
171	174	1
2	3	1
42	42	4
82	104	1
29	29	1
107	108	1
82	112	1
124	124	1
134	134	3
121	127	2
36	37	1
30	30	2
145	145	1
116	116	1
130	131	1
35	41	2
139	169	1
90	91	1
41	85	1
143	144	1
128	164	1
91	92	1
10	31	1
19	33	1
156	156	1
132	133	1
164	167	1
29	30	1
123	123	1
92	92	1
117	118	2
91	93	1
159	160	1
62	62	2
131	131	1
51	51	1
80	86	1
85	85	2
1	1	1
66	66	1
63	63	1
23	23	1
22	22	1
96	98	1
102	131	2
64	66	1
115	115	2
44	45	1
142	163	1
107	107	1
133	136	1
139	160	2
160	162	1
92	123	1
94	94	1
19	36	1
151	154	1
164	165	1
78	79	1
97	101	1
78	78	1
167	167	1
118	131	1
106	106	2
7	7	1
53	71	1
111	112	2
125	178	1
76	76	1
122	122	2
2	2	1
75	80	1
68	68	1
142	142	3
73	74	1
174	174	1
151	153	1
86	86	1
138	138	1
55	56	1
39	40	1
36	36	1
168	168	1
162	162	1
180	180	1
133	179	1
71	71	3
101	101	1
80	80	1
159	159	2
19	19	1
128	128	1
71	79	1
40	40	1
9	10	1
61	72	1
139	140	1
103	106	1
30	39	1
123	125	1
102	102	1
115	117	1
40	41	1
8	10	1
117	136	1
108	109	2
24	25	1
3	4	1
29	31	1
135	135	1
95	95	1
9	9	1
43	43	1
60	60	1
165	166	1
54	54	1
25	29	1
128	129	1
99	100	1
11	12	1
18	29	1
138	172	1
130	146	1
