168	186	1
225	230	1
86	86	7
4	4	11
182	183	2
3	7	1
43	43	5
99	99	3
74	74	4
171	173	2
165	165	3
80	80	7
237	238	1
19	19	12
153	154	4
145	170	1
8	8	9
29	29	2
176	177	2
149	151	1
60	60	6
54	54	5
101	102	4
101	101	2
67	67	7
121	122	4
38	88	1
99	100	1
14	35	1
214	215	3
119	179	1
153	169	1
178	217	1
230	230	2
157	157	3
179	179	7
147	148	1
171	171	3
151	151	12
107	107	3
217	217	6
168	168	6
173	173	7
5	5	4
220	220	3
134	134	2
37	37	9
222	222	2
169	169	3
124	124	3
173	174	3
68	119	2
61	97	1
182	195	1
2	2	1
69	69	11
166	167	1
8	9	3
118	118	3
238	238	5
121	121	3
50	50	5
72	72	3
18	19	2
65	65	3
103	105	1
12	12	3
71	71	5
63	63	2
2	7	1
59	64	1
120	121	2
155	157	2
34	36	1
187	188	2
200	200	1
38	39	1
237	237	2
48	53	3
9	33	4
65	68	1
127	127	4
155	155	3
110	110	2
55	66	1
123	123	2
125	126	1
120	120	1
224	224	6
164	165	2
30	42	1
15	36	1
101	103	2
18	18	4
70	70	2
31	31	9
212	214	2
26	27	2
149	150	2
36	37	1
61	62	5
171	172	1
195	196	1
153	156	2
20	20	10
59	60	3
137	137	6
216	216	5
45	45	5
185	185	1
78	78	2
162	178	2
189	189	2
1	3	1
52	53	2
177	177	6
3	3	1
178	178	3
40	216	1
47	47	4
3	9	1
51	51	8
61	61	6
112	112	3
28	64	1
1	1	4
32	169	1
57	57	1
41	41	4
163	165	3
36	36	2
68	68	6
81	82	1
11	11	3
29	119	1
144	144	7
100	100	5
242	242	4
49	53	2
208	208	5
77	77	3
2	19	1
55	55	4
15	23	1
19	20	2
109	109	3
226	226	4
159	159	8
17	17	5
130	144	2
135	143	1
1	30	3
171	183	1
175	175	4
204	204	2
149	149	3
57	60	1
172	172	4
215	215	2
40	40	3
106	118	1
181	181	4
162	184	1
38	38	6
153	153	3
152	171	1
228	229	2
233	233	2
66	66	3
71	86	1
177	178	3
23	23	3
103	135	1
16	49	1
147	147	6
108	108	5
167	169	1
186	186	3
193	194	3
118	119	1
80	82	3
150	150	3
140	141	2
174	174	4
28	29	2
115	115	4
151	152	1
168	169	2
48	48	4
97	97	4
9	85	1
180	180	2
32	32	2
81	81	4
36	58	1
221	223	1
136	136	2
213	226	1
25	55	1
182	182	6
196	197	2
55	56	1
108	110	1
15	15	9
28	71	1
235	235	2
129	129	3
4	35	1
31	202	1
39	43	1
26	26	5
161	161	3
199	200	2
163	186	1
157	190	2
231	231	1
18	50	1
25	26	3
158	162	1
28	72	1
83	118	2
82	83	2
11	230	4
33	33	4
56	58	1
167	168	4
136	137	1
179	180	1
142	142	2
143	143	1
20	169	1
192	192	1
152	152	4
188	206	1
221	221	1
20	24	1
22	22	6
158	190	1
134	137	2
139	172	1
0	0	3
35	35	4
73	73	2
46	47	1
28	55	1
152	154	1
7	183	1
125	125	3
130	130	3
77	78	2
30	62	1
49	52	1
10	38	1
26	85	1
228	228	6
152	179	1
13	35	1
143	150	1
154	155	1
183	183	6
144	145	1
69	73	1
75	189	1
162	167	1
14	14	3
156	156	4
178	179	1
186	187	3
128	129	3
85	99	1
54	74	1
112	127	1
33	34	2
145	159	1
156	171	2
96	98	1
180	183	1
77	79	1
113	113	3
12	145	1
207	207	2
160	160	2
157	189	1
18	35	1
133	133	2
148	148	3
79	79	4
214	214	2
184	184	2
131	131	3
212	212	3
21	73	1
69	191	1
135	135	6
159	203	3
146	149	3
13	72	2
75	75	3
239	239	2
65	88	1
62	62	4
236	237	1
32	33	2
162	162	2
170	170	3
97	233	1
168	179	1
83	92	2
158	179	2
207	215	1
24	24	1
141	141	3
48	58	1
156	186	1
192	207	1
209	209	6
152	153	2
145	154	1
171	175	1
7	7	4
137	147	1
45	75	1
142	147	1
102	102	3
229	230	1
220	234	2
140	140	2
190	190	1
72	95	1
9	9	3
19	37	1
37	50	1
198	198	5
25	25	4
58	58	2
199	199	3
26	171	1
180	208	1
120	173	2
49	49	4
213	213	3
214	216	1
62	63	2
50	52	1
180	182	3
24	74	1
202	202	2
236	236	2
100	102	1
218	218	1
100	106	1
163	164	1
232	233	1
20	21	2
37	54	1
206	206	2
181	182	1
27	72	1
240	240	3
119	119	2
68	70	1
127	149	1
146	147	1
24	25	2
66	72	1
162	165	1
160	161	2
58	59	1
117	118	1
68	219	1
158	178	1
24	26	1
46	46	6
45	46	1
139	139	3
30	31	1
64	64	2
169	184	1
81	83	2
10	16	1
210	213	1
126	126	3
105	105	3
134	135	1
69	70	1
56	60	1
88	88	1
162	169	1
239	240	1
160	178	1
225	225	2
173	203	1
203	219	1
30	64	1
44	75	1
53	53	2
161	162	2
78	79	1
146	146	2
151	186	1
145	149	1
167	231	1
53	59	1
15	16	1
116	116	1
136	171	2
83	83	1
73	85	1
83	84	1
98	98	2
118	120	1
230	231	2
116	157	1
167	167	2
160	162	2
211	213	2
103	123	1
206	208	1
9	10	2
64	65	1
17	18	1
31	32	1
132	179	1
109	119	1
221	222	1
36	38	1
63	64	1
27	27	1
55	62	1
212	213	1
129	134	1
193	193	2
234	236	1
120	128	1
180	181	2
165	167	1
151	155	1
150	171	1
171	178	1
5	7	1
154	154	2
129	130	3
102	103	1
161	165	1
34	34	2
106	109	1
5	17	1
223	223	1
39	39	1
10	10	1
43	45	1
78	200	1
157	209	1
33	36	1
14	15	1
214	219	1
155	156	1
48	49	1
204	205	1
33	46	1
122	122	2
171	174	1
227	227	1
128	128	2
52	52	1
13	13	2
148	163	1
220	221	1
106	106	3
156	158	2
219	219	1
50	51	1
190	198	1
31	46	1
141	143	1
194	194	2
39	40	2
76	82	1
2	8	1
126	127	1
7	8	1
96	96	3
164	169	1
197	198	2
119	123	2
205	232	1
188	188	1
138	138	2
197	197	1
21	21	1
68	75	1
189	190	1
184	187	1
23	24	1
50	152	1
116	137	1
42	42	3
24	157	2
12	16	1
66	108	1
160	177	1
44	44	2
205	217	1
145	146	1
135	136	4
163	163	1
2	21	2
102	122	1
190	200	1
169	197	1
189	204	1
31	37	1
65	191	1
158	159	1
7	169	1
159	160	1
6	6	1
119	159	1
12	13	1
217	218	2
16	16	4
67	68	1
166	166	2
156	157	1
33	84	1
155	158	1
166	169	1
76	76	3
3	21	1
171	177	1
216	217	1
194	195	2
120	148	1
124	140	1
71	72	1
148	151	1
34	35	1
232	232	1
7	180	1
27	43	1
56	56	2
7	18	1
66	67	1
201	203	1
158	158	2
241	242	1
7	15	1
4	7	1
85	85	1
124	125	1
76	135	1
133	134	1
150	232	1
1	55	1
148	149	1
3	8	1
31	33	1
111	111	2
45	127	1
70	74	1
48	173	1
187	193	1
26	28	1
213	228	1
166	168	1
228	230	1
37	76	1
15	54	1
208	224	1
74	75	2
2	3	1
211	211	1
158	160	1
28	28	1
226	227	1
201	201	1
56	59	1
14	23	1
113	208	1
131	132	1
79	80	1
57	58	1
2	4	1
159	179	1
207	224	1
41	42	1
169	170	1
80	84	1
78	80	1
19	167	1
54	75	1
102	109	1
10	43	1
156	183	1
53	68	2
150	158	1
3	5	1
11	13	1
11	28	1
161	179	1
203	204	1
21	107	1
53	138	1
18	53	1
23	25	1
27	55	1
68	146	1
48	55	1
191	191	1
13	15	1
109	111	1
162	182	1
