99	174	1
166	166	1
71	71	1
37	37	1
8	61	1
11	11	2
129	129	4
47	47	3
15	64	2
85	116	1
167	172	1
28	28	2
4	78	1
185	186	1
95	96	2
154	155	1
13	14	3
95	95	1
82	82	3
115	140	2
145	145	2
3	3	2
165	165	4
121	121	1
143	148	1
43	63	1
56	75	2
168	168	3
180	181	1
13	13	2
157	157	3
40	40	2
107	107	2
167	167	2
110	110	2
170	187	2
100	100	2
122	123	1
177	177	4
150	151	2
154	154	2
84	85	1
141	142	1
104	107	1
82	90	1
143	143	1
97	97	2
39	40	1
129	132	1
138	138	2
148	148	2
159	167	2
128	128	3
139	139	1
123	127	1
105	108	1
85	85	2
30	30	1
80	80	2
89	89	2
1	2	3
150	150	1
170	170	6
149	188	1
114	114	1
91	103	1
55	124	1
54	54	3
38	38	1
26	129	1
46	47	1
0	0	2
136	136	1
181	181	4
120	120	2
171	186	1
125	127	2
59	59	3
82	83	2
133	133	1
77	83	1
53	53	1
85	86	3
184	184	2
90	90	2
92	105	1
39	39	7
178	179	1
3	5	1
119	120	1
63	63	1
54	123	2
48	48	5
24	41	1
83	85	2
14	14	2
166	169	1
176	176	1
137	137	2
74	74	2
78	79	1
42	42	2
110	111	2
7	7	4
58	62	2
160	168	1
122	122	1
183	184	2
149	149	2
132	133	1
18	18	1
42	45	1
83	84	1
149	150	1
19	21	1
172	179	1
12	12	1
163	164	2
121	152	1
117	141	1
25	37	1
32	38	1
43	43	1
86	86	2
2	2	1
151	153	1
57	60	1
68	68	2
182	183	1
79	79	1
22	43	1
66	66	2
134	134	1
110	123	1
186	186	2
124	155	1
132	132	1
62	62	1
176	177	1
170	186	1
58	68	1
108	108	2
77	87	2
74	75	1
169	170	1
183	183	3
189	189	1
32	33	1
146	149	1
144	170	1
94	94	2
152	152	3
168	171	1
99	100	1
31	48	1
77	77	2
15	15	1
10	10	1
153	154	1
61	61	3
1	1	1
61	62	2
118	133	1
27	28	1
179	179	2
171	171	1
62	65	1
117	118	1
78	80	1
72	72	1
164	164	2
123	123	1
18	71	1
155	155	1
128	185	2
98	98	1
48	49	1
84	84	1
81	81	3
101	101	1
111	112	2
91	91	1
61	63	1
16	16	1
151	151	1
186	187	1
102	102	1
26	48	1
58	58	3
0	1	1
95	97	1
44	44	1
2	48	1
173	183	1
59	61	1
22	22	1
35	35	1
169	169	1
109	109	1
118	118	1
132	136	1
90	95	3
33	34	1
34	43	1
16	17	1
75	75	1
60	60	1
126	138	1
135	137	1
56	57	1
39	56	1
89	96	1
185	187	1
24	24	1
158	158	2
138	139	1
144	144	1
106	106	1
153	153	1
25	25	1
73	73	1
33	35	1
104	118	1
80	83	1
68	76	1
19	19	2
34	35	1
188	188	1
119	128	1
10	46	1
162	162	1
135	163	1
172	173	1
115	115	1
9	151	1
57	57	1
30	35	1
87	115	1
136	154	1
3	48	1
159	165	1
112	112	1
129	159	1
33	33	1
5	5	1
56	56	1
173	173	1
163	165	1
88	88	1
17	21	1
126	127	1
91	107	1
93	94	1
