33	33	7
96	97	1
21	21	1
20	39	1
129	132	2
32	33	3
99	99	7
81	81	1
118	118	3
74	74	4
50	50	2
44	44	5
130	130	4
134	134	3
69	116	2
73	75	1
7	7	3
46	71	2
58	58	3
38	38	1
39	39	3
47	47	5
132	132	3
126	126	2
125	126	3
108	120	1
34	34	4
112	116	1
46	46	1
11	17	2
14	14	3
112	112	5
0	0	1
120	120	4
76	76	6
123	123	1
6	6	4
68	68	1
20	20	1
117	120	2
65	65	1
121	122	1
24	24	1
47	60	1
59	94	1
40	40	2
6	115	1
116	116	4
63	63	8
66	66	6
62	62	4
108	108	4
37	39	1
15	15	2
111	111	5
115	116	2
9	9	4
3	3	1
75	75	2
29	29	3
117	125	1
90	90	2
87	87	2
119	119	5
73	73	4
85	85	3
109	109	3
79	79	1
5	5	1
77	77	4
124	130	1
119	124	1
114	132	1
128	133	3
45	45	4
94	108	1
16	17	2
10	10	5
117	117	2
65	67	1
18	18	3
91	91	1
61	61	3
64	64	3
97	115	1
27	27	2
16	16	2
25	25	1
78	101	1
128	128	2
93	93	2
27	47	1
13	14	2
107	107	1
69	69	1
12	12	2
43	43	3
121	121	2
21	22	2
1	1	2
67	67	1
103	104	2
91	102	1
100	100	1
80	80	1
89	89	1
17	60	1
126	128	1
56	56	1
28	32	1
68	117	1
94	94	1
83	83	3
60	60	1
82	82	5
114	114	1
110	133	2
37	37	3
96	96	2
11	11	1
105	115	1
124	124	1
74	75	1
108	114	1
4	65	2
40	41	1
107	109	1
111	116	2
107	108	1
62	63	1
75	77	1
101	101	3
79	82	1
78	86	1
30	30	2
35	35	1
27	28	1
120	125	1
23	23	1
59	59	2
71	72	1
31	31	2
115	115	1
16	45	1
88	88	2
36	43	1
5	11	1
20	30	1
59	60	1
86	86	4
104	105	1
28	29	2
25	26	1
125	125	1
86	94	2
113	114	2
48	91	1
9	10	1
64	65	3
74	125	2
15	18	1
100	101	1
97	97	1
80	81	2
102	131	1
37	38	1
110	110	1
1	2	1
105	105	2
45	59	1
76	77	1
114	115	2
125	129	2
121	124	1
11	12	1
70	70	1
22	22	2
119	120	1
23	24	1
1	16	1
110	111	2
44	45	1
113	113	2
14	15	1
17	17	2
5	6	1
73	74	1
127	128	1
78	78	1
104	104	1
32	32	1
35	36	1
122	123	1
72	73	1
102	129	1
19	31	1
24	26	1
95	95	1
95	100	1
123	124	1
98	98	1
71	71	1
93	94	1
33	44	1
3	61	1
2	2	4
27	31	1
19	55	1
42	42	1
41	41	1
58	80	1
8	8	1
36	38	1
8	113	1
102	102	1
31	32	1
124	129	1
94	102	1
57	57	1
108	118	1
44	57	1
82	83	1
