155	155	4
27	27	3
12	12	5
137	149	1
116	116	10
76	77	1
40	40	6
89	90	5
32	32	7
30	30	5
129	129	5
114	114	6
16	27	1
43	43	6
8	9	2
144	145	1
90	90	6
107	107	5
56	57	3
142	142	4
25	28	1
146	146	4
84	85	3
81	93	1
137	137	7
2	2	3
83	87	1
53	53	4
6	6	5
135	135	2
28	53	1
17	17	4
10	11	2
58	87	1
45	45	6
124	124	5
61	62	4
129	130	4
87	87	5
16	17	1
16	16	2
25	25	3
132	132	8
156	158	3
60	60	5
111	111	3
37	37	4
14	14	3
110	125	1
144	146	2
55	133	2
74	145	3
15	15	6
80	88	1
30	31	2
65	66	5
177	177	5
42	42	8
8	8	11
31	33	2
148	153	1
3	3	6
149	150	1
117	120	1
61	61	6
11	11	7
159	170	1
80	80	5
46	46	2
74	74	8
123	125	1
28	30	3
162	162	5
100	100	5
26	28	3
95	104	1
97	101	1
128	128	2
95	95	6
165	171	1
83	89	1
131	131	8
93	93	3
82	82	4
120	121	2
29	29	2
180	180	5
154	156	3
170	170	8
23	23	1
102	105	1
72	72	9
10	10	5
20	21	2
11	12	2
169	169	3
82	85	1
110	112	2
135	136	2
42	43	3
71	71	1
89	89	9
159	159	5
150	150	7
87	88	1
0	170	1
65	65	7
164	166	2
132	133	2
104	105	1
15	16	5
5	5	8
99	99	4
151	151	7
41	41	10
148	175	1
143	143	7
18	18	4
171	171	9
141	141	6
133	133	5
127	145	1
173	173	4
106	106	2
119	119	10
150	164	1
22	24	1
88	88	2
168	168	2
175	175	2
146	147	2
165	165	5
95	153	1
176	176	9
44	44	7
39	39	8
68	68	4
167	167	6
160	160	2
78	78	3
9	10	7
22	27	1
145	145	6
7	10	1
108	108	2
173	174	1
20	23	2
73	101	1
148	148	5
92	92	3
103	104	1
178	179	2
161	161	3
166	166	1
57	57	6
153	161	1
70	70	3
64	64	7
122	122	1
134	134	7
127	127	3
153	153	5
40	42	2
177	178	2
55	60	1
54	55	1
154	154	8
119	120	1
91	91	2
115	115	3
68	93	1
61	64	1
10	13	1
109	109	2
108	130	1
102	102	2
33	33	2
126	126	2
38	38	10
35	35	3
56	86	2
16	30	1
43	44	4
54	54	7
61	81	3
132	134	2
176	177	1
174	174	4
172	172	4
59	59	1
56	56	4
45	49	1
113	113	4
56	87	1
22	37	1
137	138	2
86	116	1
4	4	3
152	153	1
32	35	1
118	121	1
109	111	2
144	144	2
73	75	1
130	145	1
74	75	3
76	76	5
77	78	2
74	144	2
53	54	4
149	149	11
91	93	1
2	6	1
14	18	1
98	98	1
83	83	2
136	136	4
104	104	2
62	63	1
67	67	2
163	163	1
71	74	1
31	32	2
151	155	2
9	9	3
58	58	6
22	22	3
13	13	5
52	52	7
122	143	1
178	178	2
145	170	1
168	172	1
88	89	1
81	82	3
51	51	3
113	116	1
153	154	1
1	2	2
31	31	5
105	106	2
6	37	1
91	98	1
59	61	1
26	27	1
44	58	1
141	179	1
73	135	1
80	81	1
63	63	8
127	128	4
91	92	3
12	13	3
28	28	2
5	22	1
151	152	2
145	146	1
114	115	3
68	72	2
0	17	2
118	118	4
157	157	2
22	23	4
141	142	5
96	96	2
115	122	1
79	81	1
95	96	1
89	116	1
71	72	2
38	43	1
121	130	1
77	77	6
98	99	1
4	37	1
127	129	1
19	20	2
11	13	1
78	88	1
5	23	1
88	90	1
130	131	3
38	79	1
20	20	2
36	37	2
115	130	1
164	164	5
128	153	2
97	99	2
107	111	2
28	54	1
21	21	3
73	73	5
147	147	3
172	173	4
112	112	4
92	93	1
37	38	1
41	43	1
62	65	1
150	169	1
28	31	1
81	81	4
164	165	1
15	19	1
2	3	3
26	26	3
168	170	1
139	139	3
170	171	1
123	123	3
24	29	1
85	87	1
130	130	1
89	100	1
94	103	1
60	66	1
121	126	2
34	34	4
25	26	4
95	99	2
86	86	2
3	35	1
68	71	2
31	67	1
17	108	2
4	24	1
131	179	1
7	7	4
96	102	1
75	75	2
102	107	1
94	94	1
22	62	1
105	105	3
40	41	1
157	158	5
115	119	1
50	50	3
18	19	1
55	55	1
120	120	1
38	44	1
19	22	1
45	66	1
112	139	2
44	80	1
85	85	4
158	158	3
98	112	1
5	6	3
90	94	2
171	172	2
138	138	2
110	110	1
52	56	1
62	62	2
57	86	2
139	166	1
112	137	1
158	159	1
140	141	1
113	114	4
36	36	2
101	101	4
83	84	2
111	112	1
101	107	1
131	132	1
179	180	1
179	179	5
67	68	1
83	85	1
0	0	3
1	16	2
7	8	1
79	79	2
137	139	1
105	107	2
74	85	1
58	59	1
49	50	1
117	117	1
118	140	1
103	103	1
165	166	2
18	21	1
97	97	2
130	150	1
70	132	1
178	180	1
159	167	1
28	29	1
112	131	1
1	1	3
175	176	2
110	114	1
19	19	1
131	133	1
95	139	1
109	110	2
93	94	1
130	142	1
24	24	2
16	19	1
89	92	1
22	25	1
1	5	1
1	35	1
36	38	1
8	28	1
123	124	1
66	66	1
60	71	1
99	100	2
27	28	2
79	80	1
107	108	1
171	175	1
161	162	2
53	71	1
23	62	1
71	90	2
100	101	1
0	1	1
44	45	1
81	85	1
26	29	1
13	23	1
75	76	1
150	162	1
39	40	2
154	155	1
90	91	1
111	128	1
19	21	1
159	162	1
103	107	1
87	89	1
51	52	1
142	145	1
106	108	1
121	121	3
140	140	1
98	104	1
74	77	1
145	153	2
162	163	1
84	86	1
137	172	1
116	118	1
13	14	2
38	39	1
140	145	1
13	166	1
104	106	1
110	111	1
122	135	1
151	167	1
55	59	1
5	24	1
13	39	1
128	154	1
125	125	1
151	161	1
151	163	2
154	157	1
145	171	1
96	98	1
36	40	1
32	42	2
17	18	1
142	150	1
155	156	2
152	157	1
12	14	1
124	129	1
83	86	1
107	125	1
41	42	1
2	4	1
96	97	1
165	167	1
108	109	1
96	99	1
133	138	1
63	64	1
49	49	1
167	168	1
150	151	1
82	87	1
81	86	1
148	171	1
163	164	1
94	95	1
59	62	1
11	53	1
49	74	1
166	172	1
64	65	1
2	36	1
126	128	1
10	40	1
5	33	1
124	125	1
131	169	1
75	145	1
32	33	1
