4	4	4
100	118	1
170	170	4
11	11	4
181	181	1
37	37	3
34	34	1
82	83	1
189	189	5
35	36	1
62	62	1
132	133	2
97	97	1
108	109	2
95	95	3
70	70	1
8	8	2
159	159	5
159	193	1
159	160	1
68	78	1
156	179	1
17	17	6
8	20	1
158	158	3
108	108	3
119	119	1
40	41	1
42	42	3
175	175	3
134	134	3
39	39	2
10	10	3
147	147	3
183	183	6
45	45	2
64	65	1
22	23	2
32	32	1
79	88	1
59	60	1
173	180	2
76	78	1
48	48	3
24	25	1
85	86	1
72	72	2
6	6	2
83	86	2
5	6	1
143	145	1
21	22	2
185	186	2
20	20	4
154	154	1
104	107	1
12	13	2
21	40	1
180	180	3
98	98	1
23	30	1
150	150	2
50	194	1
169	169	3
93	117	1
51	51	1
55	55	2
140	140	2
177	177	4
108	122	2
87	87	2
65	183	1
56	59	2
121	121	1
157	182	1
183	185	2
47	47	2
33	36	2
11	12	2
18	18	5
3	29	1
46	46	4
188	188	2
105	105	1
3	4	2
170	195	1
0	2	1
162	162	2
182	182	3
104	106	1
99	134	1
27	27	1
15	16	1
186	186	6
135	135	3
26	26	3
57	61	1
5	45	1
99	99	2
174	174	1
192	192	2
172	173	1
58	58	3
152	152	1
64	64	2
15	194	1
170	171	2
79	80	1
100	152	1
116	118	1
69	72	1
73	112	1
93	115	2
7	8	1
119	146	2
159	173	1
162	163	1
196	196	5
103	109	1
18	19	1
129	129	1
104	104	3
33	33	4
66	67	1
28	28	3
40	45	1
151	151	3
53	53	5
13	13	4
50	51	1
6	24	1
123	126	1
43	55	2
98	118	1
5	5	4
86	86	2
8	23	1
30	31	2
68	68	5
71	71	1
164	194	1
17	20	1
2	2	3
50	50	2
156	156	2
148	187	1
1	2	1
85	114	1
128	128	5
140	143	1
61	106	1
15	32	1
44	44	1
125	125	1
0	0	2
122	122	2
23	150	1
173	181	1
9	9	3
93	142	1
42	57	1
40	40	3
70	81	1
154	183	1
6	7	1
13	37	1
130	130	1
178	182	1
179	179	3
63	127	1
55	56	1
22	22	3
171	171	4
154	167	1
138	138	2
0	5	1
126	127	1
137	137	2
144	145	2
30	30	2
174	177	1
49	49	4
85	85	1
28	31	1
98	117	1
194	195	1
184	184	1
130	136	3
57	57	1
118	118	2
158	164	1
19	19	2
36	36	1
77	77	1
62	63	1
21	21	3
68	74	1
186	191	1
131	131	2
101	101	1
194	194	2
110	173	2
155	170	1
69	71	1
168	173	1
43	170	1
172	172	1
23	23	2
140	148	1
142	186	1
7	7	2
61	63	1
182	186	1
183	194	1
16	52	1
43	43	1
139	139	2
146	146	1
82	85	1
89	95	1
43	44	3
11	40	2
101	138	1
38	39	1
158	159	1
16	16	1
189	193	1
1	75	1
168	181	1
132	132	1
161	161	2
19	20	1
169	187	1
64	88	1
75	75	1
54	54	1
100	100	2
22	27	1
167	167	1
49	197	1
95	120	1
84	84	1
157	157	1
45	46	2
52	52	1
94	94	1
144	144	1
181	193	1
179	193	2
16	20	1
130	155	1
192	193	1
109	109	1
100	112	1
38	38	1
10	40	1
110	111	1
78	78	1
24	24	1
28	29	1
16	17	1
29	30	1
25	25	2
156	186	1
113	113	1
106	106	1
15	15	1
61	113	1
31	31	2
87	88	1
74	74	1
155	156	1
25	54	1
187	187	1
76	76	1
103	103	1
70	178	1
15	170	1
2	3	1
12	42	1
138	139	1
159	172	1
163	163	1
35	35	1
154	171	1
29	29	1
41	55	1
98	100	1
