2	2	2
96	96	4
77	79	1
34	34	7
18	18	4
117	118	1
83	84	1
120	122	2
4	4	2
117	117	2
90	90	3
121	121	2
105	105	3
93	93	4
134	134	6
14	14	4
17	18	2
26	27	1
132	132	8
124	124	2
79	79	4
116	116	3
80	80	3
123	123	4
126	126	5
73	74	1
113	113	3
76	76	4
118	118	5
133	133	15
94	94	3
74	74	3
103	115	1
115	115	2
16	16	4
131	131	5
38	38	2
134	135	2
115	116	3
37	37	6
119	122	1
119	119	1
91	91	5
27	27	2
120	123	1
107	107	1
10	11	2
91	92	2
139	139	5
102	111	1
104	106	1
112	112	1
104	104	3
11	11	5
14	130	1
101	101	5
94	123	1
127	127	3
0	7	1
102	113	1
72	72	5
77	78	2
37	115	1
108	109	3
100	127	1
130	130	3
94	95	2
129	129	5
17	17	1
34	36	2
89	90	2
119	121	1
0	2	1
32	32	3
8	8	3
132	134	2
94	97	2
75	76	1
74	125	1
140	140	3
95	95	6
71	71	2
36	36	1
111	111	5
111	114	1
97	97	5
86	86	2
71	72	1
125	126	1
133	134	2
96	97	1
102	103	2
69	69	1
88	89	2
139	140	1
104	128	2
107	108	1
73	73	5
102	102	5
93	100	1
108	108	2
3	3	1
8	9	3
137	137	4
1	1	1
128	128	5
123	136	2
106	108	1
78	110	1
138	138	3
40	76	1
120	120	2
16	17	1
0	0	1
106	107	1
19	19	3
85	85	1
13	14	2
37	117	1
100	100	2
83	83	1
124	125	1
7	7	1
122	122	1
104	122	1
99	99	1
37	100	1
102	116	1
72	132	2
132	133	1
100	103	1
123	124	4
78	78	3
0	4	1
118	119	3
126	127	1
33	33	2
35	35	2
106	106	2
131	132	1
103	103	2
117	119	2
94	126	2
108	110	1
96	101	1
135	135	1
33	34	1
5	8	1
92	93	1
98	98	2
9	9	2
26	37	1
127	131	2
110	111	1
78	80	1
104	105	2
125	125	1
94	125	1
105	108	1
100	114	1
74	75	1
110	110	2
137	138	1
6	6	1
77	77	1
103	106	1
20	20	1
72	73	1
83	85	1
127	128	2
134	136	1
81	81	1
87	88	1
1	2	1
13	13	1
136	136	1
97	134	1
103	108	1
109	110	1
130	131	1
85	106	1
