19	26	2
104	104	3
56	56	3
51	52	4
140	140	2
158	172	2
148	148	2
0	3	1
221	221	3
164	164	2
85	85	4
139	140	2
122	127	1
88	88	1
7	9	1
84	85	2
119	119	2
225	225	1
170	171	2
159	159	3
11	11	1
170	200	1
18	41	1
222	222	1
154	157	1
210	210	2
145	146	1
19	57	1
12	15	1
160	160	4
178	178	1
105	109	1
186	186	2
66	66	1
144	146	1
145	145	4
17	22	1
168	168	1
178	179	1
67	67	1
121	121	3
29	135	2
168	201	1
142	185	1
137	138	1
70	70	1
181	181	3
149	151	1
180	182	1
29	109	2
86	86	1
229	229	3
73	73	2
154	154	2
0	0	1
169	170	1
185	186	3
226	226	2
5	5	3
169	169	3
122	123	1
111	111	3
144	144	2
130	131	1
6	128	1
59	59	1
141	142	2
232	232	2
161	162	2
146	146	1
156	156	1
61	62	1
103	104	4
75	75	2
71	72	1
112	176	1
135	135	2
126	126	2
136	136	1
107	107	2
131	131	1
152	154	1
116	116	2
216	228	1
105	105	3
55	55	2
233	233	3
158	158	6
12	12	1
134	135	1
134	134	1
227	228	3
25	25	5
204	204	1
199	199	3
71	71	3
203	208	1
76	76	1
201	202	1
155	156	3
185	187	1
62	62	3
85	86	2
121	158	2
133	133	1
25	186	1
188	200	1
152	172	1
18	21	1
61	61	1
35	57	1
78	78	2
219	219	1
168	169	1
114	119	1
238	241	1
206	206	1
218	218	1
204	208	1
115	117	1
105	134	2
45	45	1
151	151	2
7	8	3
150	151	5
29	29	1
203	204	2
167	167	2
205	205	3
100	159	1
78	91	1
113	157	1
183	183	2
159	160	2
184	188	2
99	174	1
155	155	2
109	109	2
12	14	1
165	166	3
49	50	2
68	69	1
179	182	1
163	164	1
97	101	1
175	175	2
28	101	1
184	185	2
183	184	1
118	122	1
7	7	1
138	139	1
2	125	1
37	121	2
13	13	3
162	183	1
20	20	3
26	27	2
179	179	4
18	19	3
150	158	1
195	195	2
120	158	2
12	80	2
149	160	3
65	65	1
102	103	4
229	230	1
191	191	2
161	166	1
5	6	1
161	163	1
103	103	2
69	70	1
170	170	1
6	6	2
43	43	3
241	241	1
193	196	2
127	127	3
190	196	1
74	86	1
172	172	1
26	85	1
175	183	1
31	109	1
25	27	1
187	187	3
176	176	2
124	124	1
203	203	5
63	63	1
215	221	1
123	123	1
81	82	1
234	234	1
231	231	2
4	36	1
173	173	1
8	8	1
87	95	1
113	153	1
32	33	1
39	39	3
180	181	1
185	185	1
148	149	1
31	73	1
189	194	1
55	56	2
81	84	1
21	22	2
47	48	1
176	180	1
153	154	1
120	146	1
214	215	1
65	66	1
125	125	1
113	113	2
239	239	3
64	65	1
58	58	2
150	180	1
115	115	3
212	212	1
143	143	1
230	230	1
49	57	1
39	40	1
33	33	1
49	49	2
58	59	1
190	191	1
57	57	1
137	137	1
53	53	3
198	198	1
158	159	2
122	122	1
169	171	1
221	222	1
162	163	1
196	196	1
64	74	1
88	89	1
98	99	2
205	231	1
157	157	1
127	128	1
11	13	2
108	108	3
138	138	4
6	35	1
213	214	1
120	128	1
100	100	1
125	128	1
150	150	1
28	29	1
73	74	2
227	227	1
97	241	1
5	34	1
214	214	1
154	156	1
52	52	2
207	207	1
15	45	1
231	232	1
149	153	1
113	115	2
42	43	1
41	41	1
118	119	1
76	79	1
216	216	1
115	116	1
108	126	1
6	8	1
209	231	1
191	228	1
62	204	1
33	37	1
62	64	1
81	81	1
17	17	1
162	180	1
34	35	1
64	64	2
12	16	1
153	153	1
46	46	1
24	24	1
135	137	1
10	10	1
190	193	1
177	178	1
19	151	1
125	126	2
14	14	2
18	22	1
164	182	1
99	101	1
118	118	1
16	17	1
174	174	2
178	186	2
181	182	2
152	152	2
86	219	1
196	200	1
240	240	1
213	213	2
67	142	2
182	182	1
163	163	1
105	106	1
55	106	1
74	74	1
209	213	1
171	171	1
141	141	1
29	30	1
1	3	1
188	188	2
114	114	3
210	216	1
150	154	1
216	220	1
21	23	1
160	203	1
60	60	2
47	54	1
165	165	1
2	4	1
238	238	1
101	101	3
188	212	1
7	16	1
80	80	1
149	149	1
164	187	1
129	130	1
139	139	1
226	229	1
212	214	1
173	175	1
51	56	1
193	194	1
17	24	1
68	68	1
166	166	1
59	61	1
151	242	1
50	50	1
235	235	1
102	105	1
166	186	1
130	130	1
169	200	1
150	205	1
142	142	1
184	184	1
67	68	1
