16	17	1
90	90	4
3	4	7
16	16	5
32	33	2
123	135	1
105	108	1
33	33	3
50	50	4
38	66	1
53	53	3
1	1	5
41	41	7
21	21	12
106	107	1
131	131	3
39	41	2
52	52	4
56	56	6
122	123	1
101	102	2
63	117	1
40	56	2
19	19	6
71	71	11
130	130	2
24	24	9
113	114	1
59	59	4
58	58	9
69	69	5
47	47	6
13	13	4
107	107	6
87	88	1
80	80	4
111	112	1
133	133	2
139	139	5
66	67	1
123	123	6
68	73	1
70	70	5
134	134	3
108	108	3
37	37	4
41	42	2
35	37	1
15	15	2
63	63	3
111	111	3
86	86	4
88	90	1
13	15	2
92	92	3
119	119	2
97	97	4
36	36	2
6	6	1
60	60	7
55	105	3
21	27	3
61	74	1
73	80	1
80	81	2
67	67	5
79	79	6
105	105	8
131	139	1
103	103	2
22	41	1
20	20	10
109	109	4
65	65	4
63	85	2
96	136	1
136	137	1
112	115	1
83	91	1
20	23	1
120	120	5
73	73	3
64	89	2
143	143	3
106	109	1
69	70	4
55	56	1
99	99	2
135	138	1
132	140	1
83	83	3
107	108	5
82	82	1
95	95	3
115	115	3
10	10	4
102	104	1
116	136	1
59	64	1
9	9	5
81	81	3
88	89	2
101	101	4
50	51	3
92	132	1
50	89	1
113	131	2
115	116	4
117	134	1
64	64	7
22	133	1
35	63	1
141	142	2
109	111	2
17	17	7
7	14	1
35	36	1
19	125	1
94	94	5
59	63	1
125	132	1
130	131	1
56	66	2
50	52	1
104	104	3
135	135	5
8	8	3
35	35	6
140	140	6
110	112	2
61	61	2
56	71	1
33	34	1
23	23	5
24	112	2
4	4	4
136	136	8
59	66	1
116	120	1
140	142	2
80	107	1
131	132	3
60	62	2
129	129	7
89	89	4
98	142	1
74	74	3
117	117	9
75	105	2
68	68	5
76	76	8
66	66	5
34	34	4
58	59	1
85	85	2
104	105	2
126	126	3
119	122	1
128	128	5
68	69	4
142	143	4
31	33	1
142	142	2
21	22	1
118	119	3
74	106	1
137	138	3
2	2	1
118	118	2
138	138	3
43	57	1
49	63	1
62	63	2
73	75	2
27	27	3
48	48	3
53	54	2
102	102	2
110	110	6
3	17	1
117	122	2
48	49	3
127	139	1
48	56	1
43	47	1
33	40	1
103	104	2
54	54	2
93	93	3
89	90	1
34	35	1
145	145	3
8	28	2
8	9	1
53	56	1
31	31	1
31	32	2
112	114	2
137	137	1
36	38	1
29	30	1
127	127	2
4	5	2
106	106	3
78	78	4
132	132	4
0	0	2
22	22	2
122	122	3
119	123	1
77	88	1
92	94	1
30	30	4
118	122	1
3	3	4
24	34	1
117	133	1
61	71	1
18	18	5
43	43	5
36	37	1
71	72	2
144	144	2
48	51	1
145	146	3
141	141	3
124	125	2
21	124	2
31	40	2
81	85	1
5	62	1
128	134	1
12	12	1
47	113	1
35	39	2
5	5	4
74	105	1
121	121	1
49	49	4
129	131	3
66	93	1
117	124	1
138	139	1
24	135	1
78	79	3
118	123	1
83	121	1
108	109	2
113	113	3
32	32	1
33	36	1
99	100	1
72	89	1
75	75	3
119	139	2
42	42	3
83	85	1
97	141	1
96	96	1
120	127	1
115	118	1
123	132	1
25	130	1
76	77	1
38	38	6
14	16	1
124	124	4
23	26	1
84	85	2
14	14	3
29	29	4
55	71	2
143	144	1
18	19	1
62	62	1
108	139	1
40	40	4
65	66	1
25	25	5
48	54	3
123	131	1
22	27	3
24	43	1
34	37	1
79	80	1
72	72	4
52	84	1
68	80	1
43	63	1
26	27	3
91	96	1
4	6	2
97	98	2
26	130	1
57	84	1
38	39	1
117	118	1
28	29	2
81	104	1
114	119	1
12	17	2
75	76	2
125	125	1
72	73	2
92	93	1
49	53	1
77	80	1
40	43	1
47	48	1
51	52	1
40	41	1
82	104	1
129	130	1
11	11	2
63	64	2
5	127	2
62	64	2
133	134	3
116	116	1
17	18	1
98	98	1
39	83	1
90	92	3
26	26	2
121	122	1
67	101	1
2	3	1
63	77	2
63	65	1
19	32	1
23	39	1
2	6	2
132	133	1
14	15	1
54	55	1
88	88	5
56	94	1
112	112	1
21	130	1
109	116	1
105	110	1
126	141	2
114	114	2
114	116	1
80	84	1
48	69	2
24	109	1
34	36	1
12	18	1
124	136	1
105	139	1
127	128	1
33	38	1
30	95	1
57	57	1
89	91	1
0	8	1
30	74	1
21	28	1
93	116	1
30	33	1
77	77	1
125	126	1
73	74	1
0	97	1
107	109	1
46	47	2
13	14	1
93	94	1
51	51	1
28	28	1
17	26	1
88	93	1
128	136	1
113	115	1
85	86	1
56	57	1
102	103	1
97	142	1
24	79	1
49	50	1
116	126	1
