15	15	5
62	63	3
221	228	1
185	186	3
182	183	2
58	65	1
183	183	1
11	11	6
68	77	1
17	21	1
27	38	3
140	142	1
133	134	1
102	139	1
108	149	1
116	117	3
125	134	1
128	128	1
117	118	2
127	127	1
219	219	1
227	227	6
95	95	2
195	195	2
33	54	2
40	53	2
105	105	3
69	69	1
28	28	9
221	221	2
119	119	7
164	164	2
104	154	1
61	61	4
122	146	1
194	194	3
14	15	4
17	17	3
172	174	2
104	104	7
101	101	4
140	140	3
31	31	4
113	114	2
171	171	4
133	138	1
135	135	2
81	81	3
158	158	5
207	207	1
1	2	1
148	149	3
204	204	1
41	41	1
148	148	3
171	175	2
39	43	1
121	121	1
45	45	7
82	82	4
169	170	2
157	157	5
47	47	2
19	19	3
95	135	1
80	80	4
29	29	2
98	99	2
60	60	4
184	184	3
8	19	1
183	184	3
32	33	2
120	121	1
178	179	2
71	71	4
7	7	3
148	187	1
81	84	1
181	181	3
8	8	4
179	179	3
202	202	5
149	149	5
193	195	1
35	35	2
130	180	2
177	177	3
109	109	2
172	172	3
125	125	3
57	59	1
217	218	1
160	161	2
123	123	1
136	136	4
207	208	1
145	146	2
226	227	5
55	68	1
58	58	7
113	113	3
29	30	1
180	181	2
9	9	3
136	139	1
49	50	3
210	221	1
187	187	3
152	152	7
239	239	3
24	44	1
144	144	3
219	231	4
225	225	2
14	62	1
156	156	4
153	160	1
224	224	5
34	36	3
151	151	5
16	16	3
5	5	2
170	171	1
75	80	1
18	19	1
169	169	2
192	193	2
165	165	4
116	151	1
144	145	1
130	134	2
106	106	3
88	88	1
62	136	1
66	66	4
152	155	2
47	232	1
237	237	5
150	163	1
78	80	2
103	106	2
9	12	1
119	155	1
153	153	1
122	122	4
66	68	1
56	57	1
233	233	3
44	45	4
32	32	2
165	166	2
3	3	1
150	150	8
107	107	4
37	38	1
80	127	1
28	29	2
170	174	1
26	26	1
99	99	5
242	242	3
24	25	1
34	34	2
164	169	1
206	206	4
71	72	1
176	176	2
180	180	2
44	44	2
30	30	3
12	16	2
240	240	4
129	175	1
135	176	2
191	191	3
84	101	1
129	133	1
167	167	1
48	49	4
15	39	1
216	217	1
20	20	5
23	23	3
16	17	3
39	44	1
6	6	4
69	70	1
49	49	4
199	218	1
65	65	3
47	61	1
73	204	1
107	109	1
201	203	1
141	141	4
164	181	1
42	42	1
168	169	3
54	54	3
213	214	2
189	189	2
48	48	2
155	155	3
223	223	3
146	148	1
64	170	1
130	237	1
27	27	3
33	34	2
222	222	3
161	161	2
147	187	1
131	131	2
15	20	2
46	47	2
115	148	2
158	159	6
221	223	4
84	84	7
34	40	1
50	52	1
136	175	1
96	96	1
228	228	3
104	138	1
103	103	3
33	37	1
196	197	2
18	18	1
213	213	2
64	65	3
192	212	1
142	142	2
115	119	2
230	230	4
121	135	1
117	117	4
173	173	4
182	182	3
142	143	2
67	81	1
220	220	2
81	89	1
232	232	1
22	22	3
21	21	3
38	38	2
13	14	1
31	75	1
158	228	1
192	211	2
10	10	3
45	46	2
113	153	1
162	162	3
72	72	4
63	65	1
39	42	1
48	62	1
201	202	1
168	168	3
112	112	1
159	174	1
139	139	3
215	216	1
179	180	1
111	112	1
102	102	3
67	67	1
54	56	1
31	33	1
73	73	2
163	163	4
114	114	1
70	70	3
75	75	3
71	73	1
11	38	1
121	122	2
38	42	2
175	176	2
75	78	1
178	178	2
135	174	1
78	78	1
130	148	1
62	62	1
233	234	1
166	166	3
30	31	1
103	108	1
67	76	1
73	203	1
227	228	1
232	233	1
103	104	2
177	178	1
4	60	1
200	204	1
238	239	1
77	79	2
137	140	1
11	158	1
130	167	1
137	154	1
7	16	1
162	163	1
74	74	2
130	130	1
138	138	3
118	121	1
200	201	2
46	46	1
109	110	1
0	0	2
188	188	1
2	22	1
5	6	1
98	98	1
113	202	2
83	83	3
115	115	4
7	8	1
25	25	5
131	175	1
59	59	2
184	185	2
222	223	1
163	179	1
20	23	1
50	51	2
129	129	1
124	125	3
43	44	1
78	79	1
228	229	1
47	135	1
161	204	2
64	64	3
180	182	1
173	176	1
150	152	1
170	170	2
14	14	2
155	164	1
240	241	1
209	209	3
140	141	2
36	36	1
103	131	1
215	215	1
89	95	2
155	158	2
77	77	1
40	78	1
160	160	2
152	153	1
6	7	2
174	174	5
185	185	1
7	30	1
53	53	2
3	4	1
134	135	1
76	76	3
83	91	1
29	64	1
3	5	1
161	169	1
147	148	1
36	39	1
117	169	1
203	203	1
105	106	1
129	130	1
198	200	2
31	86	1
221	222	1
169	201	1
152	161	1
118	118	2
106	108	1
36	64	1
212	213	2
124	124	4
100	100	2
161	162	2
7	39	1
41	228	1
153	154	2
206	207	1
157	209	1
148	159	1
111	111	2
128	129	1
182	188	1
171	173	1
122	127	1
37	37	3
98	100	1
91	91	1
78	117	1
51	76	1
59	71	1
39	39	1
138	145	1
31	68	1
112	113	1
57	57	1
10	30	1
176	184	1
133	144	2
237	239	1
167	168	1
9	30	1
6	41	1
149	152	1
73	88	1
151	158	1
213	216	1
117	144	1
81	83	1
25	55	1
53	83	1
154	154	2
55	57	1
126	126	1
216	216	2
139	144	1
115	117	1
85	85	2
44	105	1
139	140	1
218	218	1
4	6	1
157	190	1
235	235	2
54	55	1
31	78	1
229	229	2
155	157	1
39	48	1
131	206	1
135	152	1
52	56	1
153	164	2
59	67	1
203	217	2
170	172	1
192	196	1
8	9	2
186	186	2
75	84	1
142	146	1
40	40	1
57	76	1
8	20	1
24	26	1
68	68	2
160	169	1
108	108	2
4	4	1
214	214	1
76	78	1
45	64	2
238	238	2
173	174	2
43	43	2
31	143	1
160	162	1
149	150	1
137	138	1
43	234	1
22	41	1
56	56	2
169	171	1
73	219	2
7	153	1
35	41	1
53	54	1
11	30	1
231	231	1
146	147	1
153	183	1
112	122	1
192	192	1
226	226	1
2	54	1
169	178	1
116	116	2
47	98	1
114	153	1
156	161	1
43	69	1
201	220	1
143	143	2
4	5	1
187	197	1
31	54	1
25	69	1
24	24	1
49	52	1
193	193	1
61	62	1
9	43	1
53	60	1
48	200	1
137	137	1
51	51	1
172	173	1
190	190	2
113	159	1
25	54	1
33	33	1
145	145	2
66	75	1
3	7	1
30	65	1
79	116	1
44	101	1
15	59	1
70	71	1
173	175	1
80	81	1
120	167	1
21	22	1
