148	148	2
42	42	2
123	123	2
77	104	1
20	21	3
29	29	2
158	159	1
16	17	1
78	78	1
11	12	1
82	82	3
139	139	4
31	31	2
83	84	2
1	1	1
30	30	3
128	130	2
141	148	1
111	111	5
41	41	2
105	105	3
64	64	2
88	88	1
51	78	1
22	22	2
124	125	4
38	38	3
150	150	6
27	106	1
138	138	1
119	119	3
77	77	4
13	14	1
63	122	1
17	17	2
54	54	2
23	24	1
62	63	1
5	5	2
132	134	1
123	127	1
89	89	2
79	79	4
108	111	2
107	125	1
107	122	1
120	120	3
11	15	1
70	70	3
24	27	1
123	124	1
51	53	1
108	126	1
95	95	2
32	32	1
137	140	1
124	146	1
10	36	1
14	14	1
153	153	4
46	49	1
18	18	1
12	12	1
113	113	2
94	113	1
117	117	3
144	145	1
115	115	1
117	120	2
116	116	2
28	36	1
7	7	3
121	123	3
97	97	2
22	23	1
83	83	5
80	84	1
43	43	1
15	15	1
15	16	1
49	49	1
3	3	1
135	135	2
112	112	2
107	111	2
55	55	3
128	128	3
80	80	2
21	21	2
56	56	4
118	118	3
19	20	1
143	143	1
17	18	1
125	125	5
106	107	1
71	71	2
136	136	1
68	68	3
144	144	1
114	115	2
43	45	1
150	151	1
8	8	1
7	48	1
127	127	3
104	104	2
99	99	2
36	37	2
20	43	1
80	141	1
154	154	1
110	152	1
118	126	1
114	114	3
111	112	1
28	93	2
34	35	1
144	147	1
130	131	1
138	139	3
122	122	1
138	140	1
85	85	3
90	90	1
115	116	1
136	147	1
53	62	1
84	90	1
49	61	1
53	53	1
24	24	3
92	92	2
130	130	1
152	152	2
76	76	1
52	54	1
51	52	3
129	129	2
9	9	2
122	123	1
19	19	3
38	39	1
140	157	1
87	87	3
78	89	1
109	109	1
11	47	1
125	126	2
105	140	1
79	80	2
86	126	1
84	85	2
47	47	2
158	158	6
105	106	1
110	112	1
147	147	4
73	73	2
127	155	1
36	36	1
81	82	1
33	33	1
132	132	2
46	46	1
9	14	1
134	134	1
124	127	2
20	20	1
67	67	1
81	81	2
25	25	1
106	112	1
44	44	1
54	61	1
121	121	3
67	133	1
97	139	1
156	156	2
121	122	1
131	131	2
137	137	1
132	133	1
113	114	2
92	96	1
140	140	2
51	54	1
79	83	1
97	98	1
146	146	3
130	154	1
23	25	1
153	156	2
21	35	2
110	110	2
89	90	1
93	93	1
142	142	1
108	109	1
107	110	1
82	83	1
26	30	1
4	4	2
39	40	1
108	108	1
16	16	1
3	4	1
102	138	1
5	99	1
124	124	1
38	75	1
121	134	1
50	50	1
38	68	1
47	48	1
123	125	1
44	73	1
113	115	1
27	27	1
141	142	1
14	15	1
151	151	1
