41	41	3
42	43	1
92	124	2
23	23	2
18	18	7
77	80	1
121	122	1
112	112	1
35	36	2
16	16	1
63	63	1
103	103	3
96	101	1
95	95	3
1	2	1
45	45	4
42	42	1
101	101	2
127	127	3
1	66	1
82	86	2
87	87	1
103	104	2
60	61	1
0	0	3
72	72	5
100	100	1
77	77	1
104	107	1
85	100	1
90	94	2
78	79	1
88	99	1
106	107	1
71	72	3
126	126	4
69	71	1
83	95	1
15	15	3
7	8	1
69	69	1
44	44	5
107	107	1
95	98	2
86	86	1
57	57	5
85	92	2
105	105	3
30	30	2
75	75	2
105	106	1
20	43	4
124	126	1
70	70	2
103	106	2
24	122	1
125	125	1
116	117	1
33	33	3
79	79	1
118	118	1
78	80	3
25	28	1
21	29	1
96	96	2
110	111	1
35	44	1
88	88	1
46	46	2
84	84	1
84	85	1
14	14	3
31	31	3
89	93	1
26	27	1
10	46	1
123	126	1
85	85	1
10	10	4
83	86	1
6	63	1
31	34	1
60	60	3
35	35	3
9	67	1
116	116	2
13	13	2
80	110	1
44	45	1
107	108	1
102	102	2
97	100	1
72	74	1
77	79	1
83	84	1
61	72	1
8	8	2
99	103	1
36	36	3
122	123	1
57	58	1
34	36	2
115	115	2
54	86	2
29	31	1
123	124	1
79	80	2
22	23	2
27	28	2
6	6	3
119	121	1
81	81	1
120	121	1
39	39	3
14	15	1
0	4	1
66	66	1
134	134	1
93	94	2
91	91	3
128	128	2
6	8	1
39	42	1
13	14	1
74	77	1
73	73	2
80	81	1
12	12	2
36	57	1
121	121	2
81	96	2
64	65	2
114	115	3
55	55	1
65	66	1
114	114	3
31	33	1
125	126	1
112	115	1
117	117	1
113	113	1
74	74	2
90	92	1
131	131	2
39	41	1
7	7	2
37	40	1
93	122	1
97	98	1
112	120	1
30	31	1
93	95	1
32	33	1
3	3	1
16	17	1
48	49	2
119	120	1
39	43	1
4	4	2
91	92	1
80	82	1
124	125	1
51	57	2
34	35	2
37	38	1
127	131	1
48	102	1
94	94	2
5	10	1
90	91	2
108	109	1
133	133	2
110	110	1
85	86	1
66	67	2
109	109	1
21	30	1
28	32	1
83	83	1
17	17	1
93	124	1
123	123	1
16	27	1
98	98	1
81	131	1
41	43	1
99	99	2
10	115	1
114	116	1
108	108	1
61	61	1
48	48	1
126	134	1
123	128	1
82	94	1
64	64	1
15	17	1
24	26	1
10	34	2
41	42	1
90	90	1
65	65	1
12	16	1
62	62	1
97	99	1
55	58	1
119	119	2
68	70	1
42	50	1
43	43	1
89	90	1
26	26	2
93	93	2
32	32	2
113	115	1
59	60	1
106	132	1
58	58	1
24	24	1
120	120	1
24	27	1
126	133	1
10	64	1
68	68	1
126	128	1
102	105	1
38	39	1
83	85	1
