8	8	4
112	112	5
62	62	2
40	40	1
8	46	1
17	17	2
89	89	2
60	86	1
48	48	3
49	49	3
126	126	6
30	30	5
64	64	2
133	133	4
1	39	1
119	119	6
19	22	1
79	79	9
10	10	3
29	30	1
123	123	3
113	113	4
101	102	1
31	32	3
96	99	2
50	50	2
128	128	4
54	54	4
91	91	1
74	74	1
81	81	2
51	51	3
39	39	2
124	124	1
85	87	2
111	111	2
117	117	2
72	74	1
7	8	1
27	43	1
44	47	1
99	100	1
22	22	3
100	100	1
109	109	3
99	101	1
13	21	1
75	76	4
96	96	1
94	95	1
73	82	1
91	97	1
114	114	2
85	101	1
131	131	5
110	113	1
44	44	2
67	74	1
43	44	1
53	53	6
34	34	3
42	43	2
115	115	2
97	97	1
130	130	3
80	98	1
94	94	1
77	82	1
108	116	1
106	107	2
29	42	1
89	90	5
108	108	4
9	9	3
91	93	1
107	113	1
69	69	2
99	99	2
77	133	1
72	72	2
121	121	4
116	116	3
87	89	1
12	12	4
26	26	2
95	96	2
46	47	1
66	67	2
62	94	1
120	121	1
73	73	2
0	2	1
63	64	2
48	49	1
60	60	2
116	117	1
93	93	1
126	127	1
32	32	2
106	106	2
60	63	1
92	92	2
85	85	1
74	76	1
11	11	1
64	68	1
93	120	1
100	102	1
46	46	2
21	22	1
14	14	1
24	24	2
68	69	3
115	116	1
52	52	1
33	34	3
120	120	6
82	82	1
124	125	1
14	16	1
90	90	3
77	77	1
70	70	2
59	59	1
25	25	1
57	57	4
33	33	3
61	61	1
105	105	1
97	99	2
118	119	1
0	120	3
130	131	1
103	103	3
84	85	1
97	98	1
42	42	1
78	80	2
88	89	1
67	91	1
6	6	3
54	67	1
72	101	1
114	115	1
88	88	3
131	132	1
68	68	2
50	93	1
58	58	2
23	23	2
114	125	1
56	56	1
29	29	1
111	125	1
121	123	1
51	52	1
66	66	1
7	7	1
58	60	1
4	4	2
122	122	1
42	74	1
65	86	1
76	76	2
20	20	4
132	132	1
93	99	1
63	67	1
57	110	1
18	30	1
23	27	1
90	95	1
129	129	1
27	27	1
72	83	1
110	110	1
129	130	2
3	5	1
81	82	1
24	25	1
38	38	1
21	21	1
20	21	1
102	102	2
109	111	1
16	16	1
84	84	1
61	62	1
94	115	1
65	65	2
95	95	1
77	106	1
47	47	1
79	82	1
83	84	1
98	99	1
74	103	1
125	125	1
56	57	1
19	19	1
86	86	1
104	104	1
80	80	2
43	66	1
112	113	1
100	103	1
50	51	1
119	120	1
27	29	1
