65	80	1
44	44	2
99	99	5
38	39	1
50	50	5
48	48	5
98	98	2
51	90	1
81	81	6
77	102	1
100	100	5
69	69	3
56	57	1
57	57	7
39	39	7
40	40	3
42	42	2
95	95	3
41	41	6
26	26	9
71	77	1
50	53	1
102	102	3
83	90	1
76	78	1
34	34	5
96	96	5
72	72	4
69	70	5
94	95	5
83	84	3
24	24	4
52	52	2
22	24	1
26	29	1
34	37	1
87	88	3
60	62	2
101	101	4
95	96	4
99	100	2
36	38	1
94	94	5
33	33	2
92	92	5
74	74	7
98	100	1
66	70	2
58	58	2
36	36	3
61	79	1
58	60	2
92	101	3
85	88	2
62	65	1
66	66	4
49	51	2
56	56	1
69	72	1
22	23	2
45	45	5
59	59	3
90	90	4
70	70	5
60	60	6
25	26	2
55	56	1
29	29	7
25	25	5
51	89	1
68	89	2
43	57	2
76	76	2
55	55	8
61	61	8
22	22	4
71	73	1
37	37	2
87	87	6
72	73	2
63	63	3
51	51	3
24	46	1
32	60	1
47	48	4
83	83	8
71	71	2
37	38	1
80	80	3
86	87	3
82	85	1
49	49	4
52	96	1
34	40	1
79	79	1
97	97	3
80	81	2
77	77	2
87	89	1
57	78	1
64	64	4
75	75	3
65	67	1
31	31	2
67	67	4
20	30	1
78	78	5
44	48	1
85	85	3
27	29	2
44	51	1
84	84	1
41	43	1
51	79	1
65	66	2
43	43	3
37	39	1
46	46	1
49	66	1
54	55	2
59	92	1
24	60	1
20	24	1
70	72	2
51	88	1
88	88	5
53	53	2
81	82	1
52	54	1
27	41	1
75	76	1
97	98	1
43	49	1
65	65	3
85	90	1
86	86	4
68	98	1
89	89	2
46	47	3
70	96	1
38	48	1
27	28	1
56	78	1
91	91	5
24	63	1
50	102	1
60	89	1
85	93	1
84	97	1
90	92	3
32	41	1
54	54	2
39	92	1
91	92	3
93	94	1
66	67	2
73	73	3
57	64	1
95	98	1
78	89	1
39	40	1
52	53	2
46	57	2
101	102	3
41	74	1
100	101	1
60	67	1
68	85	1
38	38	2
35	36	1
53	54	1
99	102	1
48	49	1
93	93	2
40	41	2
51	68	1
96	98	2
84	92	1
25	27	1
32	90	1
55	66	1
20	22	1
62	63	1
62	62	1
35	35	1
23	28	1
32	32	1
43	45	1
72	74	1
80	91	1
55	57	1
89	90	1
74	76	1
67	70	1
52	91	1
23	26	1
57	85	1
89	100	1
60	63	1
51	57	1
20	29	1
