13	13	3
55	117	1
5	7	1
54	54	6
114	131	1
54	68	1
6	12	2
112	114	1
50	50	2
85	85	6
109	109	2
74	75	1
76	76	6
35	35	1
76	79	2
60	61	1
131	131	2
87	87	5
113	114	1
73	74	3
117	117	4
8	9	1
83	84	3
57	60	1
106	106	3
12	12	2
71	71	6
114	114	1
124	124	1
88	88	1
84	89	2
120	120	4
4	45	1
60	60	3
70	70	2
124	126	1
80	80	4
57	57	2
101	102	1
115	126	1
15	17	1
43	45	1
1	1	4
68	68	2
34	34	3
52	52	2
30	30	1
19	21	1
36	36	3
108	108	4
0	0	3
63	95	1
32	33	1
84	84	4
68	69	2
119	119	3
6	134	2
78	79	4
67	69	1
122	122	1
104	105	2
102	103	2
67	67	5
79	79	8
70	81	1
64	64	1
94	103	1
126	126	2
68	90	1
24	24	3
62	62	2
70	71	3
15	15	1
75	94	1
55	61	1
18	18	2
63	63	8
24	26	1
82	82	3
45	45	4
121	121	1
69	69	2
112	112	4
98	98	1
56	57	3
9	9	1
22	52	1
58	59	1
49	49	6
52	59	1
12	13	2
0	33	1
119	120	1
16	16	1
23	24	2
63	64	4
11	25	1
59	59	7
26	26	3
58	90	1
101	101	2
96	96	2
4	4	3
6	6	3
77	78	2
3	4	2
128	129	1
111	112	1
75	76	2
26	43	1
51	51	1
132	133	2
11	11	2
115	121	1
29	29	1
86	86	2
31	31	2
66	67	1
43	44	1
0	5	1
55	59	1
98	99	2
134	134	1
5	13	1
73	120	2
92	92	1
7	11	1
36	43	1
54	55	2
22	22	2
99	99	3
7	7	3
82	83	2
80	130	1
75	75	3
65	66	2
52	53	1
44	44	3
83	83	3
83	85	1
11	36	1
44	77	1
94	94	1
62	86	1
78	78	1
128	128	1
116	117	1
52	58	1
72	72	2
33	33	1
127	127	2
64	81	2
28	28	1
102	102	1
130	130	2
35	52	2
95	95	1
89	89	1
65	69	2
53	53	1
112	113	1
117	118	2
7	18	1
47	47	2
3	3	3
55	60	1
97	101	2
76	88	1
7	35	1
65	65	2
84	110	2
66	66	1
4	32	1
61	61	1
58	60	1
23	23	1
122	123	1
55	56	1
4	5	3
73	73	2
105	105	1
48	48	1
34	37	1
37	37	1
63	65	1
5	12	1
98	133	1
133	133	1
84	85	1
19	19	2
34	49	1
12	29	1
77	77	2
0	34	1
52	68	1
57	66	1
121	122	1
100	101	2
2	2	1
107	108	1
103	103	1
44	45	1
38	44	1
58	58	1
72	90	1
5	6	1
61	63	1
91	104	1
16	19	1
99	100	1
23	31	1
20	20	1
108	109	1
116	116	1
90	113	1
97	97	1
113	113	1
