159	159	3
201	201	4
10	10	3
35	39	1
155	155	5
184	224	1
55	55	3
228	228	3
107	107	1
188	190	1
95	96	1
219	219	4
214	214	4
117	174	1
3	12	2
217	222	1
176	176	2
170	186	1
37	37	6
71	71	4
195	196	1
200	200	2
203	227	2
165	165	2
5	5	2
87	87	1
32	33	2
41	43	1
93	93	1
45	45	4
24	33	2
248	248	1
145	145	3
92	92	1
191	207	2
27	27	4
218	218	3
63	63	1
101	101	2
160	160	3
168	168	3
163	163	2
209	213	1
100	100	4
236	237	2
84	84	1
27	28	1
21	21	3
170	170	9
229	229	1
238	238	1
85	92	1
191	191	4
233	234	1
42	42	3
203	203	5
48	48	3
77	80	1
116	116	3
197	200	2
201	202	1
154	154	2
237	237	2
203	207	1
2	3	2
53	53	5
162	196	1
242	242	4
45	48	2
195	195	2
204	204	3
233	233	3
186	186	2
72	72	1
216	218	1
43	45	1
16	17	1
53	55	2
52	52	3
49	50	2
166	182	2
110	110	2
231	246	1
185	202	1
196	214	2
234	235	1
153	153	2
111	111	6
207	226	1
6	9	1
71	72	1
69	70	1
173	173	1
35	156	1
6	7	1
67	67	5
189	189	1
101	103	1
85	85	1
20	29	1
244	244	4
31	43	1
147	147	1
106	106	4
212	227	2
6	8	1
98	98	2
88	88	3
227	227	3
71	73	1
161	161	2
181	181	4
61	78	1
101	104	1
4	4	2
48	49	1
57	57	1
151	164	1
89	115	1
11	11	4
18	18	3
106	117	1
59	59	4
243	243	1
185	185	2
210	210	4
182	182	4
54	54	1
112	112	3
11	12	1
239	239	1
146	163	1
99	99	2
56	56	2
41	41	2
20	20	3
6	17	1
23	23	5
67	235	1
14	14	2
0	24	2
161	182	2
113	114	1
44	44	2
116	117	2
48	178	1
105	105	2
94	98	2
89	90	3
217	218	4
150	150	1
236	236	2
38	38	3
70	231	3
226	226	1
61	61	3
216	217	2
55	57	1
0	1	1
177	177	1
200	201	2
223	223	3
12	12	2
29	30	3
193	198	2
70	70	1
245	245	2
154	228	1
157	157	1
240	244	1
154	155	1
68	68	4
11	21	1
224	224	6
73	73	1
236	239	1
169	169	1
231	231	2
216	216	1
28	167	1
34	34	2
28	28	3
158	160	1
186	187	2
3	10	1
105	106	1
17	17	2
172	172	2
80	80	1
179	197	1
43	43	4
117	119	2
229	230	2
44	46	1
41	42	1
188	191	1
35	38	1
215	215	1
10	52	1
37	54	1
96	96	3
22	40	1
170	195	1
46	52	1
162	164	1
60	60	2
42	55	1
195	208	1
19	32	1
28	39	1
29	190	1
38	39	1
76	76	1
197	198	1
232	233	1
117	120	1
53	54	1
244	245	1
35	35	1
39	39	1
33	33	4
232	248	1
83	84	3
15	15	2
165	168	1
201	207	2
23	24	2
66	71	1
175	178	1
224	225	2
102	103	1
36	36	1
157	161	1
54	55	1
24	160	1
95	106	1
65	65	2
230	230	1
208	208	2
107	108	1
109	109	1
232	236	1
236	241	1
191	245	3
73	76	1
32	39	1
22	22	1
17	19	1
19	20	2
7	7	1
184	184	4
186	197	1
2	2	4
3	4	1
49	69	1
231	245	1
94	94	1
59	60	1
46	47	1
49	61	1
182	183	2
114	114	1
157	163	1
24	24	2
18	20	1
54	207	1
167	167	2
190	191	1
183	183	2
13	14	1
194	194	2
184	185	1
197	197	4
234	234	1
187	196	1
157	185	1
144	144	1
70	71	1
32	32	4
166	166	1
49	242	1
218	221	1
232	232	1
17	109	1
221	221	1
8	8	2
25	26	1
62	62	1
198	232	1
235	245	1
49	49	1
174	225	1
113	113	2
181	182	1
35	152	1
69	81	1
20	21	2
3	3	2
225	225	3
3	15	1
164	164	1
50	50	1
222	222	1
175	198	1
119	119	1
44	45	1
237	238	1
171	171	2
217	217	1
114	115	2
198	200	1
45	46	1
156	156	2
202	202	1
245	246	1
158	158	1
54	56	1
171	172	1
42	56	1
17	18	1
84	86	1
225	226	1
221	222	1
174	174	1
60	74	1
242	246	1
214	216	1
184	207	1
115	115	1
70	76	1
77	77	1
3	6	1
105	110	1
89	93	1
241	241	1
155	156	1
21	150	1
72	73	1
16	16	2
198	199	1
154	227	1
60	164	1
4	238	1
177	178	1
59	184	1
30	30	1
188	188	1
10	30	1
117	117	2
79	86	1
77	78	1
193	193	1
152	152	1
47	47	1
241	244	1
183	197	1
189	191	1
236	244	1
175	175	2
246	246	1
49	53	1
190	219	1
27	113	1
