20	23	1
109	110	2
72	73	2
131	131	2
166	180	1
122	150	1
12	12	1
27	28	1
179	179	1
63	66	1
160	162	1
14	14	1
156	158	1
109	109	2
125	144	1
96	96	1
121	121	2
135	135	1
1	1	1
32	32	1
89	99	1
167	167	2
70	70	2
98	112	1
54	54	1
35	35	1
21	21	2
96	98	1
145	145	2
117	117	3
139	139	2
101	101	3
148	148	3
158	189	1
31	31	1
74	74	1
44	47	1
122	122	7
97	104	1
120	122	1
120	121	2
13	13	1
38	39	1
39	39	1
29	58	2
117	137	1
78	78	2
44	59	1
65	66	1
172	172	2
55	55	1
95	129	1
114	119	1
115	115	2
94	95	1
110	110	3
136	137	2
186	186	1
154	154	1
178	181	2
116	119	1
30	30	2
134	135	2
55	56	3
38	41	1
140	170	1
17	18	1
133	134	1
117	120	1
176	177	2
38	38	2
153	153	1
18	43	1
34	89	1
79	79	1
159	159	1
119	119	1
42	45	1
155	155	2
77	77	4
83	83	3
10	11	1
171	172	1
167	169	1
4	4	2
125	188	1
13	15	1
163	163	1
108	108	2
149	149	1
177	179	2
122	172	1
91	92	1
72	72	1
112	148	1
107	108	1
75	76	1
17	17	1
127	150	1
106	106	2
17	24	2
113	160	1
41	42	1
126	128	1
29	36	1
171	171	1
84	84	2
94	94	1
128	129	1
174	175	1
26	26	2
12	13	1
161	161	2
103	104	1
60	64	1
138	138	1
61	61	1
9	13	1
142	142	2
3	3	3
57	57	1
15	15	1
113	113	1
87	87	2
150	151	1
100	102	1
48	49	1
29	35	1
74	76	1
89	92	2
81	81	2
53	79	1
22	23	1
125	147	1
132	176	1
129	135	1
130	130	1
73	75	1
135	136	2
58	59	1
141	141	1
15	166	1
103	103	1
134	138	1
120	120	1
19	90	1
7	7	2
130	132	1
69	71	1
164	164	1
56	64	1
19	20	1
9	9	1
151	151	1
88	88	1
77	78	1
103	129	1
44	44	1
63	155	1
99	99	2
184	184	1
173	173	1
169	186	1
190	190	1
130	178	1
61	63	1
42	42	4
153	159	1
176	180	1
148	149	2
127	127	1
156	157	1
150	150	1
71	71	1
29	30	1
187	187	1
62	63	1
148	159	1
7	12	1
56	58	1
47	47	1
115	116	1
90	105	1
19	19	2
63	64	1
151	152	1
175	175	2
186	187	1
46	46	1
181	181	1
100	101	1
127	152	1
45	45	1
34	138	1
33	33	1
108	134	1
153	155	1
140	155	1
29	29	2
17	20	1
21	36	1
158	158	1
128	128	2
89	89	1
100	100	1
114	116	1
56	56	1
58	58	1
88	109	1
90	116	1
40	87	1
140	141	1
126	132	1
177	177	1
129	134	1
131	132	1
40	40	1
146	146	1
143	143	1
10	10	1
114	114	1
60	60	1
