107	107	4
36	36	2
14	16	1
135	135	2
43	44	1
149	150	1
17	17	1
110	134	2
111	111	2
94	106	1
147	152	1
4	4	2
57	57	1
172	172	5
98	101	3
112	112	2
79	94	1
90	90	4
85	110	1
117	117	2
96	100	1
176	176	8
99	109	1
162	162	1
44	44	4
6	6	2
60	61	1
148	149	2
30	30	1
133	134	2
3	4	1
7	7	2
1	1	2
58	58	2
22	22	1
173	174	1
174	174	4
86	86	2
95	95	1
164	164	2
98	98	3
116	148	1
50	51	2
83	83	1
36	128	1
100	100	1
20	30	1
116	116	1
160	160	2
133	133	4
34	34	6
51	51	1
31	32	1
55	55	2
71	71	1
80	80	1
24	24	3
138	138	2
89	89	2
139	139	1
167	169	1
78	79	1
124	124	1
45	45	2
53	54	1
150	150	8
64	64	2
123	124	2
179	179	3
119	119	3
53	53	2
83	86	1
136	136	2
145	145	2
140	140	3
103	105	1
43	43	1
157	158	2
143	143	1
5	5	1
140	168	1
9	9	2
115	115	3
3	3	2
62	62	1
88	142	2
132	139	1
149	149	3
66	67	1
2	2	3
170	170	2
178	178	1
40	40	2
142	145	2
132	133	3
32	33	3
38	38	2
8	8	2
137	137	1
90	112	1
144	166	1
104	106	1
63	63	1
92	93	1
160	161	3
144	167	1
13	14	3
20	45	1
150	151	2
146	151	1
29	29	1
148	150	1
137	139	1
92	94	1
39	39	2
41	42	1
141	141	3
17	18	1
153	153	4
79	79	2
67	95	2
13	41	1
125	125	2
29	135	1
54	68	2
168	168	1
24	37	1
23	25	1
177	180	1
102	102	1
169	169	3
73	74	1
39	43	1
180	180	1
55	61	1
59	59	1
113	113	1
93	95	1
103	103	2
34	35	1
123	167	1
168	172	1
168	178	1
128	130	1
144	165	1
8	24	1
147	147	2
19	22	1
104	104	2
61	62	1
105	105	1
13	17	1
164	166	1
109	140	1
171	171	2
128	128	1
20	62	1
74	75	1
65	66	2
131	131	2
36	58	1
99	101	1
72	72	2
126	126	1
25	25	1
165	165	3
10	10	1
132	132	1
134	134	2
152	152	1
121	145	1
40	57	1
42	44	1
77	77	1
66	66	1
67	68	1
53	74	1
60	60	2
129	155	1
123	123	2
101	140	1
57	176	1
43	45	1
23	27	1
173	173	2
20	21	1
118	148	1
71	76	1
65	65	1
37	37	4
56	60	1
67	148	1
159	159	2
120	120	1
27	27	1
28	28	2
33	33	2
132	136	1
114	114	1
21	22	1
155	155	1
13	13	1
169	170	2
148	179	1
21	23	2
146	146	1
119	120	1
83	85	1
177	179	1
141	166	1
34	36	1
68	112	1
143	144	3
158	158	1
168	169	3
70	70	1
13	64	1
16	38	1
136	137	1
86	89	1
157	157	1
107	133	1
42	51	1
167	168	1
56	56	1
67	67	1
15	57	1
112	114	1
122	122	1
26	27	1
68	93	1
32	32	2
166	167	1
97	97	1
5	52	1
163	166	1
40	71	1
164	165	1
19	19	1
156	157	1
150	153	1
42	42	1
95	97	1
143	163	1
91	91	1
8	10	1
