155	156	4
130	134	1
98	119	1
95	95	2
113	113	3
88	89	2
52	52	2
44	44	2
91	92	2
108	108	1
112	112	7
105	105	1
40	41	1
17	18	3
32	48	1
81	81	5
109	110	3
116	120	1
140	140	4
5	5	2
56	56	1
93	93	1
95	96	4
3	27	2
136	136	2
127	127	6
51	53	1
6	6	1
113	119	2
41	41	2
99	99	2
132	133	3
122	143	1
90	91	6
124	125	2
26	32	1
32	33	1
7	87	1
23	24	2
111	111	1
57	62	1
69	69	1
117	117	4
12	26	1
134	134	5
117	118	3
86	91	1
93	119	4
108	109	1
141	152	2
88	88	3
101	101	1
49	49	2
53	53	1
151	151	5
46	46	1
13	13	3
121	121	2
64	64	3
5	36	1
98	98	1
40	42	1
109	109	2
79	79	5
35	82	1
16	16	2
67	67	1
137	144	1
39	39	2
63	64	1
119	121	1
0	1	2
48	48	3
33	33	5
18	18	3
148	148	1
132	135	1
128	128	4
100	152	1
87	87	1
33	34	2
130	131	1
0	22	1
115	121	1
19	19	1
82	83	1
139	139	1
83	83	2
91	109	1
105	106	3
17	36	1
149	149	2
73	92	1
8	8	2
67	69	2
24	24	1
107	112	1
145	146	2
141	141	3
149	150	1
57	57	3
147	148	4
118	118	2
36	40	1
124	135	1
96	97	1
39	155	1
116	116	3
111	112	1
38	38	4
85	85	1
129	150	2
113	114	2
135	140	1
52	53	1
13	14	1
92	112	1
76	87	1
147	147	1
135	135	1
50	53	1
31	31	1
1	74	1
105	130	1
12	12	2
25	26	1
92	92	1
123	123	1
104	139	1
97	97	2
103	103	1
80	80	1
90	110	1
89	89	3
81	83	2
122	122	2
127	142	1
100	100	2
43	43	2
143	143	1
158	158	4
30	30	4
77	77	3
9	10	2
144	145	1
153	153	1
63	65	2
115	115	2
114	114	1
114	115	1
3	3	2
104	105	1
107	107	2
0	0	2
139	140	2
73	73	1
66	72	1
130	130	1
125	125	1
54	54	1
157	157	1
79	80	1
11	11	3
149	152	1
69	71	2
0	100	1
73	76	1
65	65	1
154	155	1
113	147	1
52	55	1
89	115	1
17	17	1
71	105	1
99	101	1
90	90	1
146	147	1
82	82	2
21	22	2
25	99	2
113	115	1
45	45	2
26	26	2
86	95	1
26	27	1
73	74	1
126	127	1
51	52	1
40	40	3
127	131	1
129	130	1
29	29	2
51	124	1
106	107	1
121	122	1
131	131	2
6	32	1
19	20	1
137	137	1
114	122	1
32	32	1
50	50	1
16	116	1
142	142	1
78	80	1
63	63	2
120	132	1
107	134	1
34	34	1
110	113	1
70	70	1
110	110	1
124	124	1
24	86	1
41	42	1
71	71	1
79	87	1
103	104	1
80	82	1
124	136	1
131	135	1
112	136	1
101	149	2
133	133	2
20	20	1
22	22	1
154	154	2
151	152	1
7	76	1
93	94	2
55	64	1
18	19	1
78	78	1
12	16	1
145	145	1
110	111	1
121	144	1
4	36	1
37	37	1
44	45	1
126	134	1
101	102	1
47	47	1
94	94	1
157	158	1
144	144	1
106	106	1
123	124	1
75	91	1
28	28	1
