103	103	2
55	55	1
59	59	6
87	87	1
152	152	2
103	129	1
15	15	1
101	101	1
152	153	3
38	38	2
58	62	2
99	99	2
175	181	1
19	26	1
19	19	1
166	167	1
88	89	1
89	95	1
2	3	1
27	27	1
160	160	2
143	143	3
57	57	3
124	124	2
122	125	1
33	36	2
26	26	2
185	186	1
183	183	3
107	107	2
83	83	2
96	96	2
28	45	1
123	123	1
21	21	2
84	84	1
136	136	5
1	1	1
133	136	1
44	44	2
101	102	2
139	151	1
90	90	1
122	185	1
68	68	6
187	187	3
118	133	1
114	114	2
137	137	2
72	72	3
6	6	2
140	140	4
110	110	3
133	133	1
41	41	3
21	41	1
47	47	1
112	125	1
114	138	2
171	173	1
11	11	1
43	46	1
129	135	1
25	25	3
102	115	2
85	89	1
104	104	2
77	95	1
122	122	1
25	27	1
64	64	3
165	165	1
54	71	1
170	174	1
71	72	1
73	73	2
39	55	1
159	159	1
82	127	1
39	41	1
29	29	2
178	188	1
151	151	1
76	77	1
72	91	1
48	48	4
173	179	1
70	70	2
58	58	2
103	113	1
9	9	1
106	106	1
97	97	1
62	169	1
145	146	1
155	155	1
175	175	1
96	97	2
66	66	1
116	116	1
75	76	2
38	56	1
133	182	1
54	54	3
56	56	1
4	4	2
30	30	1
121	121	3
61	61	4
37	37	2
136	137	1
108	128	1
136	138	1
102	118	1
141	146	1
45	46	2
38	39	2
72	122	1
5	5	1
16	36	1
177	177	1
89	90	1
65	65	1
129	129	2
24	24	1
139	164	1
23	36	2
177	178	1
183	186	1
8	8	4
154	154	2
79	80	1
75	75	2
98	98	2
181	181	1
131	134	1
105	106	1
39	39	1
188	190	1
184	184	2
141	141	1
55	56	1
176	176	2
149	149	2
14	14	1
91	92	3
131	132	1
115	122	1
114	116	1
28	82	1
40	40	1
127	127	2
73	75	1
12	12	1
151	154	1
105	115	1
33	33	1
118	127	1
185	185	1
9	12	1
189	190	1
139	174	1
62	62	1
130	132	1
177	183	2
166	166	1
186	186	1
129	184	1
167	167	1
120	125	1
174	175	1
12	31	1
77	77	1
113	113	1
128	128	1
180	180	1
172	172	2
144	144	1
141	145	1
29	31	1
156	156	2
34	36	1
44	45	1
70	71	1
158	190	1
43	45	1
119	120	1
89	89	1
96	155	1
176	177	1
79	174	1
78	78	1
94	94	1
117	117	1
82	83	1
82	82	1
77	78	1
24	26	1
179	179	1
16	23	1
5	6	1
18	20	1
69	69	1
39	76	1
14	15	2
155	158	1
175	183	1
139	139	1
2	24	1
110	122	1
3	5	1
42	42	1
88	100	1
164	164	1
154	155	1
76	76	1
86	86	1
15	27	1
57	77	1
134	134	1
125	125	1
