11	11	4
156	156	1
142	142	1
99	99	5
39	74	1
76	76	1
4	49	1
216	216	1
63	63	2
213	213	1
65	67	2
27	27	5
121	128	2
40	41	2
128	129	2
119	119	1
117	118	1
12	12	2
64	69	1
215	216	1
218	218	1
162	162	3
35	36	1
120	120	2
115	116	3
153	154	1
153	191	1
104	105	1
100	100	1
104	104	2
197	197	1
233	233	2
39	39	4
30	30	4
61	61	1
223	224	1
241	241	1
105	105	2
45	45	3
190	190	1
9	177	1
28	219	1
120	121	1
55	55	1
39	160	1
129	129	3
37	37	4
44	44	4
229	230	2
186	186	2
24	24	1
136	136	3
115	115	4
12	24	2
139	142	1
57	57	2
102	105	1
173	173	3
136	172	1
219	224	1
155	155	2
180	181	2
224	228	1
25	25	1
179	179	2
52	52	2
169	169	2
42	42	2
109	109	1
180	180	3
57	58	1
4	6	2
28	28	2
29	29	3
184	184	2
95	95	2
66	66	2
194	194	1
22	22	1
17	17	2
158	196	1
3	6	2
109	126	1
157	157	1
85	85	5
151	151	3
128	128	2
98	103	1
46	46	2
130	130	3
15	15	4
213	214	2
31	31	2
47	47	2
121	121	5
108	146	1
26	26	3
26	46	1
10	10	1
145	159	1
59	59	3
36	49	1
68	84	1
154	180	1
227	232	1
205	208	1
69	113	2
187	187	2
217	217	4
7	230	1
134	235	1
171	171	2
1	21	1
105	123	1
126	126	1
80	85	1
36	36	4
179	180	1
230	230	1
140	142	2
122	122	2
124	124	1
219	219	1
29	209	1
102	102	2
88	88	1
223	223	1
30	32	1
198	198	1
123	123	2
191	223	1
45	64	1
113	113	2
65	129	1
67	67	1
160	160	1
86	86	1
235	235	1
62	151	1
18	19	1
210	210	1
199	199	1
148	149	1
197	200	1
168	168	3
70	70	1
227	227	1
40	40	2
14	14	1
123	162	1
134	135	1
91	137	1
152	152	2
202	202	2
41	218	1
23	23	1
188	188	1
24	47	1
175	175	2
131	131	1
215	215	1
178	178	1
67	179	1
162	164	1
207	207	1
60	60	1
76	80	1
169	170	2
83	84	2
52	53	2
189	189	1
65	68	2
234	237	1
13	14	1
154	154	1
16	16	3
9	9	1
29	85	1
111	111	1
73	73	1
152	234	1
206	206	1
114	114	3
50	50	1
65	65	1
38	38	1
11	196	1
209	209	1
153	153	2
172	172	1
46	55	1
75	75	1
125	125	1
195	195	2
228	228	2
134	175	2
133	133	1
191	191	1
7	51	1
28	29	1
1	1	2
237	237	1
89	115	1
4	60	1
2	5	1
232	232	3
171	178	1
182	182	2
97	97	3
30	90	1
239	240	1
108	108	2
164	164	1
193	193	1
59	60	1
123	126	1
239	239	1
181	181	1
4	4	2
106	106	2
8	8	3
6	6	2
101	101	1
233	237	1
16	57	1
136	225	1
228	230	1
79	79	1
73	75	1
222	222	1
0	0	1
32	32	1
29	31	1
238	238	2
158	189	1
2	6	1
142	143	1
236	236	2
107	107	1
6	22	1
71	71	1
33	60	1
59	83	1
22	23	1
7	8	1
43	43	1
207	209	1
146	152	1
9	10	1
204	204	1
203	203	1
0	9	1
123	124	1
101	170	1
162	184	1
62	62	1
74	74	2
242	242	2
21	21	1
127	135	1
105	107	1
78	78	1
208	208	1
159	159	1
61	85	1
34	35	1
213	225	1
130	131	1
16	17	1
161	161	1
2	2	1
86	90	1
72	112	1
135	135	1
163	182	1
