35	104	2
135	136	4
65	73	2
41	41	5
29	29	4
115	131	1
132	153	1
139	139	8
88	88	7
37	38	2
114	114	4
95	95	5
115	115	3
121	123	1
48	48	4
140	140	8
129	137	2
26	26	4
145	145	6
18	21	3
5	5	4
108	108	5
158	158	11
103	103	3
35	35	5
31	136	3
108	111	2
68	68	5
18	24	2
14	14	5
7	10	2
33	33	6
155	156	1
50	50	3
35	36	2
100	101	1
83	83	4
87	89	1
147	147	5
136	136	5
89	90	2
2	2	8
67	67	5
27	27	2
42	42	9
47	52	1
38	38	5
28	28	5
129	150	2
15	15	1
150	152	2
109	116	1
37	37	5
92	112	2
97	97	4
4	4	3
93	95	1
156	156	5
135	135	7
22	22	3
34	34	5
110	152	1
120	127	1
16	23	1
116	117	3
30	30	8
153	153	7
143	143	3
80	80	4
84	85	3
82	82	4
151	157	2
70	70	8
45	46	2
46	46	3
66	66	4
102	103	2
90	137	1
86	86	6
87	147	1
67	68	2
101	101	5
111	111	8
153	154	1
0	0	5
138	138	5
1	6	1
11	22	1
71	71	6
130	130	6
21	40	2
21	22	1
108	119	1
92	92	6
124	124	4
118	119	4
140	145	1
90	90	3
28	30	1
121	121	4
123	124	2
46	47	3
25	26	3
150	150	8
51	65	1
152	152	2
72	72	4
28	32	2
137	137	1
122	122	5
96	148	1
99	101	1
85	90	1
13	24	1
129	129	8
117	144	2
142	142	3
106	106	6
149	149	8
32	32	1
23	26	1
20	21	2
126	126	7
151	151	9
79	89	1
152	154	2
108	109	1
94	119	2
73	73	5
75	75	5
75	76	1
104	105	2
82	83	2
53	54	2
17	17	6
132	132	7
105	107	5
131	132	3
110	110	3
28	29	1
92	93	3
11	12	1
105	106	2
19	20	1
128	150	2
106	115	1
75	156	1
27	28	2
120	120	6
134	135	3
9	11	1
102	102	5
83	93	1
6	23	2
126	132	1
17	19	3
138	146	1
41	42	1
132	133	3
26	28	1
57	57	3
124	125	1
99	150	2
16	21	1
13	46	1
44	44	3
9	9	6
83	84	2
92	96	1
56	56	4
2	3	2
94	94	9
124	134	1
107	107	5
16	16	3
148	150	1
43	43	5
81	82	2
131	131	6
6	6	6
24	24	4
110	111	3
30	34	1
15	16	2
109	109	9
154	154	5
133	133	6
84	87	1
84	84	2
91	91	4
4	11	1
13	18	1
53	53	5
49	50	1
78	78	2
120	137	1
19	19	1
14	17	1
52	52	6
80	81	2
38	39	1
96	120	1
101	103	1
87	123	1
25	25	3
28	31	1
142	149	1
85	85	8
7	7	5
122	130	1
146	146	1
8	8	3
66	92	2
62	62	1
104	104	2
88	96	1
15	24	1
125	126	4
24	25	4
83	94	1
128	129	3
42	80	1
157	158	2
6	12	3
3	69	1
103	104	2
127	140	1
31	31	4
108	122	1
20	44	1
116	116	2
66	67	2
86	138	1
127	130	1
157	157	6
68	72	1
108	115	1
139	158	1
37	43	1
148	148	7
78	107	1
109	110	3
119	141	1
105	105	4
95	97	1
5	7	1
20	27	1
23	23	3
123	123	2
3	3	3
127	127	6
47	47	5
68	73	1
113	121	1
136	145	2
112	113	2
136	137	2
86	87	3
87	87	1
98	148	2
13	14	1
129	131	1
21	21	1
117	117	6
39	39	2
156	157	2
117	118	3
111	112	2
127	155	2
104	106	4
120	134	2
80	82	1
86	92	3
79	79	3
119	119	3
96	105	4
88	104	2
87	97	2
103	139	2
44	64	1
64	70	1
4	5	1
96	96	7
118	118	1
98	98	3
39	50	1
36	36	2
92	113	1
118	145	3
51	54	2
42	57	2
141	150	1
85	108	1
21	33	1
64	64	1
17	31	2
50	54	2
29	30	2
110	118	1
72	99	1
85	87	2
22	24	1
72	107	1
133	142	1
132	134	1
69	76	1
98	99	1
115	119	1
107	111	1
129	130	1
115	116	1
128	148	1
141	157	1
45	45	1
81	81	4
97	109	1
40	40	4
101	105	2
128	134	1
62	148	1
37	53	5
12	13	2
63	64	1
136	143	1
40	47	2
41	52	1
65	67	1
78	79	1
63	63	1
110	120	1
33	37	1
112	112	3
65	68	1
48	49	1
11	30	1
54	54	3
87	88	1
86	90	1
75	111	1
36	42	1
80	87	3
123	140	1
45	51	1
93	94	1
114	116	1
89	89	2
105	118	3
136	147	1
131	143	1
98	105	1
69	69	2
64	65	2
49	49	1
87	117	1
109	118	1
97	139	1
134	134	3
46	50	2
34	49	1
43	44	2
90	91	1
128	128	2
12	12	2
4	36	1
110	112	2
3	4	3
147	150	2
143	148	1
112	138	1
36	55	2
41	45	1
119	120	1
120	155	2
34	116	2
63	79	1
96	110	1
18	18	4
145	146	1
100	103	3
93	97	1
104	123	1
28	122	1
95	105	2
125	125	2
139	151	1
100	100	1
50	52	2
13	13	1
130	131	2
1	1	1
80	88	1
93	105	1
109	111	1
85	110	1
18	34	1
40	41	1
123	125	1
144	144	2
110	113	1
44	47	2
95	99	1
113	113	2
99	100	1
106	107	1
33	38	1
1	2	1
91	95	1
18	29	1
120	140	1
116	118	1
9	16	1
30	137	1
40	53	1
93	155	1
20	22	1
133	134	1
50	57	1
77	85	1
117	156	1
97	114	1
82	84	3
69	77	1
142	144	1
123	131	1
3	139	1
75	107	1
151	152	2
108	110	1
34	133	1
142	145	2
62	64	1
155	155	2
117	124	1
115	141	1
32	40	1
51	52	3
67	132	1
33	35	1
65	65	1
10	10	2
139	140	2
144	147	1
96	99	1
66	77	1
43	151	1
62	63	1
91	107	1
116	141	1
72	79	1
127	133	1
141	156	1
41	49	1
17	24	1
5	6	1
114	118	1
153	155	2
142	157	1
93	113	1
42	43	1
141	142	1
137	155	1
40	42	1
98	131	1
1	38	1
73	90	1
10	30	1
113	115	1
22	131	1
0	6	1
119	142	1
14	16	1
2	44	1
18	40	1
22	25	1
154	157	1
11	11	1
25	43	1
15	25	1
148	156	2
82	86	1
114	115	1
51	51	1
116	131	1
30	31	1
88	127	1
24	29	1
119	121	1
49	68	2
93	93	1
121	122	1
87	92	1
120	126	1
100	154	1
98	128	1
45	47	1
9	20	1
68	133	1
8	14	1
37	129	1
78	80	1
77	77	3
97	149	1
67	86	1
18	120	1
54	55	1
139	156	1
70	75	1
124	133	1
23	24	1
62	147	1
6	14	1
107	112	1
91	96	1
139	147	1
16	31	1
78	108	1
49	63	1
105	115	1
111	116	1
141	141	1
131	139	1
54	88	1
125	131	1
80	122	1
