94	94	8
89	89	5
152	184	2
63	63	5
145	145	8
19	19	4
174	174	4
13	44	1
124	124	7
151	151	2
154	154	9
68	74	1
33	34	2
133	135	1
66	67	4
1	1	11
71	71	3
35	43	1
103	103	3
24	24	9
188	190	1
96	96	4
161	161	3
106	147	1
141	142	2
139	139	6
56	56	9
105	105	8
140	140	3
23	24	1
7	7	6
96	97	3
187	189	2
2	2	11
96	130	1
107	109	1
5	5	8
105	106	4
40	40	7
87	142	1
53	55	4
153	153	5
26	26	4
18	21	1
181	181	5
141	141	4
129	149	1
80	81	3
6	6	7
48	48	11
13	13	4
93	134	2
99	99	8
185	185	8
88	88	3
121	121	4
13	17	1
180	180	2
67	67	3
59	59	1
169	171	1
172	175	1
54	55	2
27	58	1
129	167	1
54	58	1
138	143	1
86	86	4
134	136	3
59	68	1
172	172	5
38	38	4
19	33	1
173	174	1
129	154	1
148	148	5
4	4	11
155	156	1
148	149	3
39	39	7
58	59	1
84	84	6
186	186	9
67	102	1
108	108	6
29	33	1
140	141	4
125	138	1
47	57	1
72	72	3
3	3	4
173	180	2
103	121	1
173	183	2
187	187	4
118	118	6
62	62	2
146	169	2
91	92	2
17	20	3
131	131	4
73	74	3
27	27	4
166	167	2
122	123	2
137	182	1
159	159	5
168	170	2
149	151	2
0	1	2
123	128	1
184	184	5
30	54	2
75	75	4
102	116	1
57	57	6
10	10	9
130	130	5
109	110	1
71	91	1
131	167	2
76	78	1
102	111	1
104	105	1
91	91	8
67	94	3
21	24	1
134	134	5
186	187	2
37	41	1
44	44	2
187	188	2
1	153	1
188	188	3
104	104	4
68	68	5
86	138	1
41	41	7
130	133	1
155	155	5
132	179	2
77	77	5
173	173	1
178	182	2
95	95	3
53	53	3
101	101	2
160	160	2
23	23	2
88	95	2
157	157	2
70	70	2
123	123	13
158	158	5
56	57	1
163	163	5
156	156	5
179	183	1
136	136	1
97	97	2
147	148	2
93	94	4
119	119	4
176	176	3
146	146	6
152	154	2
33	35	2
32	57	1
4	5	4
117	155	3
76	92	2
135	137	2
160	163	1
61	62	1
108	135	1
167	168	2
12	12	3
81	81	6
142	172	2
159	164	2
114	183	1
65	65	4
85	85	8
74	109	1
153	154	3
182	182	5
18	18	1
141	150	1
11	135	1
114	117	1
73	73	1
159	163	1
93	93	1
19	20	2
1	2	5
116	116	2
111	144	1
125	125	7
152	160	1
54	54	1
183	183	7
152	152	5
124	126	2
131	133	5
55	55	8
82	82	6
29	30	2
168	168	2
155	160	1
17	26	1
64	64	2
107	125	1
127	127	2
22	87	1
86	108	1
36	38	1
127	128	2
126	126	2
178	180	1
0	0	3
171	171	5
36	36	4
15	15	6
72	78	1
56	63	1
65	98	2
147	190	1
114	114	4
130	135	1
25	42	2
33	37	1
31	31	1
107	108	1
122	122	3
34	34	2
87	88	2
28	32	1
44	100	1
39	42	2
8	8	3
124	125	1
18	22	1
45	59	1
25	25	6
84	85	1
120	149	1
58	62	1
134	135	2
156	158	2
63	127	1
89	107	1
162	163	1
17	38	1
135	168	1
107	107	7
37	84	1
177	177	2
42	42	5
13	14	2
147	156	1
10	11	1
125	145	1
64	107	1
113	115	1
89	95	3
93	95	1
55	59	1
129	129	3
17	17	7
29	35	1
124	148	1
98	98	2
133	133	2
114	115	3
45	60	2
86	89	2
80	80	9
53	54	1
34	43	1
27	30	3
141	144	3
171	173	2
107	128	1
143	143	3
34	35	2
109	109	8
21	30	1
115	115	3
47	48	1
98	124	2
112	112	4
147	160	1
74	74	5
117	117	4
93	138	1
87	121	1
117	119	3
120	121	1
78	78	5
178	190	1
32	34	1
167	180	1
105	117	1
25	26	4
129	130	1
147	147	6
144	144	3
184	186	1
144	145	1
176	177	3
137	137	3
69	71	1
92	92	1
143	171	1
41	44	1
146	170	2
35	35	2
55	80	1
40	47	1
183	184	1
47	47	1
175	175	2
129	140	1
26	37	2
29	29	5
165	166	2
165	168	1
154	170	1
124	139	1
72	73	2
100	103	1
68	109	1
90	90	9
137	138	2
32	48	1
128	174	1
31	32	1
1	5	1
188	189	1
111	111	5
83	83	6
11	12	2
11	13	1
43	47	1
112	142	1
100	100	2
177	180	1
150	150	4
13	42	1
179	182	2
106	106	8
30	30	4
133	145	1
60	62	1
170	170	5
86	121	1
35	36	2
75	76	2
81	100	1
100	104	1
130	149	2
138	162	1
129	134	1
79	79	2
129	156	1
152	165	1
90	91	2
148	182	1
12	13	1
171	172	1
59	60	1
14	14	2
44	46	1
179	179	1
132	132	2
56	65	1
110	110	5
16	17	5
140	142	1
178	178	2
91	122	1
64	67	1
74	103	1
58	58	2
20	20	2
28	28	4
174	175	2
24	25	1
135	135	4
169	169	2
164	164	3
142	142	3
118	121	1
16	48	1
155	159	1
15	30	1
32	32	1
40	41	1
42	48	3
141	167	1
64	65	3
175	176	1
174	178	1
79	81	3
48	57	1
128	149	1
176	178	1
139	152	1
117	118	1
166	170	2
166	168	1
113	114	2
74	90	1
58	60	2
159	160	3
142	143	1
152	180	2
119	126	1
131	132	1
127	145	1
26	34	1
131	137	1
60	60	1
80	146	1
143	189	1
125	180	1
109	124	1
66	68	1
61	64	1
77	78	1
41	43	1
46	47	1
16	16	4
2	76	1
182	189	1
39	40	2
86	126	1
143	167	1
108	116	1
66	66	2
26	54	1
190	190	3
111	159	1
2	3	1
120	123	1
11	11	2
105	169	1
33	36	1
21	21	3
133	136	2
43	43	4
97	99	1
126	127	2
133	180	1
158	180	1
101	105	1
120	120	3
70	71	1
97	98	3
87	87	4
5	6	1
153	188	1
96	160	1
120	122	1
137	151	1
97	111	1
69	115	1
60	61	2
37	37	2
43	63	1
150	189	1
165	175	1
67	120	1
165	165	1
130	131	1
81	83	1
131	134	1
164	179	1
122	148	1
142	168	1
94	95	1
60	68	1
147	183	1
116	117	1
108	182	1
11	28	1
144	182	1
6	61	1
35	81	1
6	7	1
148	150	2
138	144	1
13	33	1
21	22	2
133	134	1
11	22	1
174	179	2
176	183	1
98	100	1
69	69	1
150	158	1
123	124	1
82	83	2
138	138	3
169	189	1
113	113	1
71	73	1
115	116	1
66	98	1
52	53	1
123	125	1
186	188	1
132	138	1
14	15	1
107	111	1
81	82	1
146	147	1
28	29	2
102	102	3
59	63	2
66	77	1
59	118	1
111	151	1
60	63	1
166	166	2
37	38	1
189	189	1
139	165	2
139	141	1
42	43	1
116	130	1
108	153	1
45	45	3
101	115	1
160	161	2
143	145	1
12	18	1
108	142	2
149	152	1
69	70	1
128	128	4
109	122	1
83	84	1
22	23	1
96	110	1
45	46	1
125	126	1
31	33	1
20	22	1
123	126	1
58	65	1
174	177	1
101	138	1
151	154	1
157	158	1
45	86	1
63	65	1
137	170	1
61	61	1
172	180	1
15	16	2
46	46	1
22	40	1
154	155	1
18	20	1
122	153	1
118	159	2
63	68	1
138	165	1
43	46	1
100	101	1
139	169	1
27	32	1
0	7	1
19	31	2
125	129	1
43	44	1
28	35	1
129	155	1
103	140	1
75	101	1
118	119	1
0	76	1
77	80	1
93	98	1
121	146	1
166	181	1
85	88	1
9	9	1
130	138	1
20	21	1
55	76	1
124	141	1
44	45	1
126	148	1
53	93	1
94	109	1
10	25	1
132	134	1
44	47	1
