75	83	1
202	202	7
159	171	3
207	207	6
208	208	4
168	168	1
80	81	2
24	24	1
17	18	1
100	100	3
21	21	3
34	35	5
214	214	8
220	220	6
165	171	1
150	182	1
244	247	1
110	110	3
160	200	1
177	177	6
32	32	3
216	217	1
89	164	1
154	154	5
168	171	1
55	58	2
70	70	4
31	31	1
97	97	2
232	237	1
180	181	2
158	160	1
105	108	1
99	99	5
37	38	3
190	192	1
40	40	3
209	209	4
149	149	2
215	215	4
233	233	7
186	186	4
57	95	1
187	189	2
12	45	1
102	102	3
199	199	2
16	16	3
165	183	3
26	153	1
247	247	3
57	57	3
79	79	5
205	205	4
81	81	6
0	0	1
42	47	1
7	7	9
96	96	2
105	106	3
62	62	3
20	20	5
102	103	2
23	23	3
180	180	4
232	235	1
192	237	1
165	165	5
72	75	1
224	224	2
88	88	4
1	53	2
183	184	2
30	30	6
59	59	2
40	41	2
4	4	5
188	216	2
66	66	2
227	228	3
221	223	2
173	175	1
162	162	6
204	204	5
193	194	2
82	82	3
4	5	6
116	116	2
210	211	1
2	3	2
145	145	2
169	169	7
35	44	1
195	196	2
215	220	1
18	43	3
157	178	1
225	227	1
159	159	1
169	175	2
109	110	2
223	223	6
75	82	1
108	108	4
104	104	5
166	166	1
74	83	2
51	52	3
230	230	6
160	160	1
6	7	1
153	153	1
215	216	1
49	49	6
153	154	1
237	237	2
7	8	2
231	231	5
198	232	2
151	152	1
90	95	1
39	40	1
1	54	1
10	10	5
44	44	3
29	29	5
162	163	2
154	155	2
8	15	1
55	169	3
52	52	4
241	241	2
111	114	1
48	48	7
221	222	4
76	76	3
200	220	1
1	235	2
77	77	2
93	194	1
83	83	3
11	11	4
194	194	3
105	107	2
37	37	4
33	33	3
2	46	1
73	73	5
17	17	6
44	45	1
45	46	1
244	244	4
245	245	2
220	246	1
38	38	3
69	73	1
214	215	2
111	111	3
91	93	1
198	199	1
212	212	1
163	163	1
67	70	1
232	233	2
8	8	7
224	225	1
25	25	5
89	89	3
63	63	5
92	92	4
41	67	1
109	109	5
57	172	1
47	47	6
4	76	1
49	50	1
222	222	2
15	15	1
72	72	2
221	221	3
223	224	2
58	58	3
246	246	4
39	41	2
219	219	6
243	243	3
111	117	3
184	184	7
174	194	1
200	201	1
107	119	1
76	95	1
84	99	1
72	78	2
64	78	1
87	87	3
98	99	1
188	188	1
182	182	3
206	206	2
41	41	5
49	51	3
247	248	3
78	100	1
43	43	3
172	183	1
64	64	1
146	159	1
86	86	5
147	147	3
57	180	1
101	195	2
51	159	1
159	160	1
198	204	2
15	16	1
172	172	5
211	212	1
171	171	7
210	210	3
177	189	1
96	97	1
19	20	1
98	98	2
95	95	2
169	171	1
61	61	2
11	32	2
51	158	1
9	9	3
232	232	3
189	189	1
117	117	1
56	169	2
183	183	2
203	203	2
35	39	1
229	229	2
85	85	4
236	236	2
50	50	3
65	116	1
10	12	1
216	216	1
248	248	5
188	191	2
173	173	4
229	235	1
65	65	3
184	185	2
38	39	4
57	94	2
197	197	2
182	183	3
88	101	1
68	71	1
191	191	3
73	74	1
114	115	1
107	108	2
58	60	1
164	164	7
26	26	2
18	18	3
39	39	1
27	31	2
193	193	2
224	231	1
175	183	1
217	217	2
214	236	1
239	239	3
200	200	2
154	162	1
113	113	2
101	101	3
165	166	4
91	91	5
176	176	4
239	243	1
149	150	1
182	184	2
1	32	1
71	71	3
68	68	2
185	185	2
87	88	1
60	61	3
43	45	1
42	42	1
242	244	4
29	30	1
68	106	2
219	231	1
219	246	2
1	1	4
42	43	2
27	27	5
43	44	3
229	231	1
243	246	1
189	190	2
228	228	1
151	151	3
115	116	1
107	112	2
98	115	1
67	67	2
7	161	1
55	55	1
242	242	2
93	111	1
181	181	4
169	213	1
8	227	1
58	90	1
211	211	3
69	69	2
45	45	5
202	203	1
19	26	2
236	243	1
65	66	2
22	22	1
175	175	5
119	119	2
29	40	1
61	62	1
150	150	3
105	105	3
198	198	1
156	156	2
230	231	2
65	67	1
184	199	1
118	118	2
213	215	1
167	167	2
92	94	1
8	225	1
59	60	1
110	111	1
225	225	1
172	173	1
152	152	2
71	82	1
26	28	1
64	67	1
168	189	2
218	240	2
103	103	2
7	65	1
6	6	2
25	26	1
14	15	2
51	51	1
85	86	1
212	213	1
221	240	1
52	207	1
91	94	1
53	59	1
223	243	1
188	223	1
113	114	1
191	192	1
228	238	1
108	119	1
68	108	1
213	213	1
60	90	1
195	234	1
114	114	2
225	242	1
74	75	1
93	93	1
73	76	1
68	109	1
197	233	1
45	99	1
204	227	1
12	16	1
187	187	2
193	196	2
179	179	3
41	157	1
2	10	1
5	5	1
34	34	3
204	226	1
227	236	1
197	239	1
32	46	1
29	229	1
235	235	1
117	118	1
52	91	1
230	237	1
94	94	3
157	160	1
210	214	1
241	243	1
238	240	2
28	28	1
208	210	1
12	12	1
240	242	2
181	182	1
3	50	1
75	75	2
70	87	1
63	166	1
52	53	1
60	60	2
11	12	2
53	53	4
234	234	2
60	168	1
224	248	1
81	86	1
170	171	2
112	112	3
216	218	1
226	227	1
222	233	1
190	219	1
184	204	1
120	120	2
5	78	1
44	92	1
56	96	1
192	192	3
79	82	1
227	227	3
70	85	1
100	119	1
215	223	1
161	161	1
168	169	2
240	240	2
226	226	1
101	102	1
19	19	4
119	147	1
36	148	1
150	151	1
220	221	1
3	78	1
177	178	1
87	97	1
50	51	1
9	19	1
187	239	1
43	51	1
100	117	1
186	192	2
113	115	1
60	68	1
247	249	1
56	56	3
81	82	1
186	188	1
18	26	1
209	222	1
81	88	1
41	44	1
201	201	2
144	146	1
112	113	1
185	218	1
176	183	1
71	106	1
47	48	1
84	118	1
98	107	1
176	182	1
36	36	1
236	239	1
2	2	1
58	67	1
178	178	1
62	96	1
118	119	1
78	82	1
54	93	1
