154	155	5
26	43	1
121	121	4
118	118	1
77	77	7
79	79	4
136	136	9
39	39	5
125	125	10
87	87	8
127	127	8
16	29	1
102	130	1
29	29	4
57	57	2
41	42	1
124	125	2
117	120	2
67	67	4
22	22	3
139	139	7
121	123	1
119	119	3
124	124	1
26	27	2
95	95	11
66	73	1
141	141	10
91	91	3
34	34	4
92	92	9
14	14	4
116	116	10
40	47	1
140	140	2
137	137	2
20	42	1
151	151	6
26	26	7
139	140	4
50	50	3
64	64	3
140	146	1
106	106	7
55	55	7
113	113	5
40	152	1
120	141	1
69	69	5
37	38	1
29	40	1
38	38	6
96	96	6
157	157	5
82	82	4
131	133	1
107	107	2
153	153	5
120	120	4
15	16	1
130	131	1
40	138	1
5	75	1
110	121	1
109	109	3
65	71	1
156	156	15
78	78	3
22	23	3
154	156	2
114	136	1
114	115	5
32	32	2
52	52	3
6	6	4
115	115	5
103	103	4
111	111	5
106	151	1
33	33	7
9	9	2
144	145	5
135	135	8
10	37	4
132	132	8
8	11	2
150	150	5
122	122	1
22	56	1
143	145	1
108	108	8
48	54	2
26	30	1
119	120	1
126	126	5
32	35	1
3	3	4
20	20	3
53	53	2
83	109	1
44	45	1
36	155	2
130	130	8
101	101	6
34	144	1
0	0	4
149	149	2
53	54	2
127	128	1
152	152	6
138	139	4
1	27	2
6	129	1
51	52	1
71	71	6
8	9	2
103	104	1
42	42	9
112	115	2
134	134	1
135	136	2
96	97	4
106	107	2
100	100	7
148	157	1
47	47	1
143	143	5
21	46	1
146	148	2
98	98	9
90	90	3
7	7	3
118	119	1
94	94	3
135	147	1
105	105	4
66	95	2
13	15	3
16	16	2
21	22	1
77	138	2
142	142	3
17	17	1
128	138	1
12	13	3
54	54	4
107	110	1
120	152	1
129	130	4
61	61	2
146	146	2
141	142	2
111	113	1
4	102	1
121	122	4
111	138	2
117	118	1
44	44	4
28	36	1
71	72	1
46	46	1
114	114	5
49	49	3
80	83	1
30	94	1
155	155	7
8	32	1
99	129	1
125	126	3
65	65	1
100	101	3
113	115	2
86	86	3
43	43	1
41	49	1
66	107	1
91	92	2
22	39	1
137	138	1
130	143	1
95	121	1
67	71	1
99	99	2
75	75	6
37	37	3
110	153	2
13	14	2
68	69	2
124	126	2
21	21	4
5	5	4
133	141	1
142	143	3
68	80	1
81	83	1
149	155	1
82	85	1
81	86	1
110	111	2
93	93	4
10	10	1
132	133	2
70	70	4
65	66	1
112	113	1
13	17	1
145	154	1
97	97	4
73	158	1
94	141	1
12	12	4
65	75	1
28	28	2
90	106	1
7	108	1
55	84	1
129	129	4
88	89	2
36	36	3
127	134	2
16	127	1
117	117	7
48	53	1
51	64	1
132	141	1
129	132	1
105	139	1
130	139	1
28	38	1
92	113	1
4	4	3
118	120	1
139	142	1
8	8	1
123	124	1
62	62	1
11	12	1
29	129	2
152	154	1
109	114	1
90	91	1
39	96	2
113	114	1
119	154	1
77	105	1
91	122	1
25	25	6
30	30	3
143	147	1
66	66	2
8	36	1
25	26	1
95	96	3
89	89	1
87	88	1
136	137	1
139	148	1
44	47	1
7	131	1
76	92	1
23	23	4
148	149	3
109	110	2
15	15	3
117	124	1
107	156	1
98	99	2
29	30	1
104	104	2
135	140	1
37	47	1
3	136	1
79	80	1
13	16	2
36	37	2
154	154	4
77	79	1
3	23	1
55	56	1
25	36	1
2	2	4
51	51	2
120	144	1
119	141	1
121	147	1
27	28	1
42	119	2
127	141	1
112	112	2
116	119	1
11	11	2
26	29	1
41	41	4
108	110	1
50	65	1
145	146	1
107	111	1
52	137	1
132	145	2
129	139	1
110	139	1
4	64	1
131	131	7
145	147	1
22	41	1
37	42	1
21	39	1
77	78	1
134	137	1
29	91	1
19	19	3
83	84	1
128	128	2
124	127	3
108	109	2
155	157	1
100	129	1
50	51	1
133	139	1
119	121	1
12	21	1
1	1	3
94	95	1
98	100	1
16	17	1
28	121	1
50	56	1
144	146	2
16	41	1
73	73	3
111	137	1
158	158	4
50	61	1
134	135	3
105	107	1
43	44	1
79	93	1
80	80	1
133	133	6
105	128	2
148	156	1
87	89	1
114	117	3
6	35	1
78	80	2
75	111	1
4	22	1
71	129	1
99	100	1
112	148	1
110	123	1
131	145	1
148	151	1
120	133	1
139	155	1
105	106	1
129	131	1
68	120	1
83	83	1
79	81	1
7	23	1
92	93	1
102	103	1
135	137	1
10	36	1
24	24	2
40	121	1
81	81	2
13	20	1
127	129	1
67	90	1
68	68	2
22	24	1
86	102	1
90	108	1
142	147	1
71	111	1
38	39	2
6	7	1
67	68	1
112	126	1
39	47	1
108	141	2
123	127	1
69	102	1
153	157	1
84	107	1
120	137	1
108	114	1
112	121	1
22	36	1
32	33	1
88	90	1
145	145	1
32	45	2
87	93	1
92	132	1
47	49	1
45	45	1
80	82	1
125	138	1
50	105	1
123	135	1
81	84	1
121	127	1
150	151	1
40	40	2
1	2	1
137	145	1
157	159	1
158	159	1
132	140	1
40	41	1
138	138	1
35	35	1
7	8	3
48	143	1
85	93	1
113	125	1
63	63	1
115	117	1
109	121	1
148	148	1
72	73	1
86	104	1
85	86	1
111	119	1
110	110	1
155	156	2
48	49	1
98	117	1
71	76	1
68	119	1
36	142	1
52	54	1
38	119	1
69	71	1
18	18	2
127	145	1
70	131	1
133	134	1
128	129	1
123	123	1
10	15	1
70	71	1
19	20	1
111	112	1
