1	4	1
20	20	5
63	63	2
7	7	4
30	31	6
38	38	5
25	36	2
33	59	1
47	47	3
22	22	11
57	57	7
23	23	4
3	3	5
5	6	2
28	28	4
12	12	4
44	44	6
39	54	2
41	50	1
1	1	8
49	49	4
39	39	4
14	14	1
13	13	5
8	8	5
33	33	8
0	21	1
53	53	2
57	62	1
45	45	4
41	41	2
42	42	4
4	4	2
73	73	2
22	33	1
29	29	4
26	27	4
52	53	2
67	68	1
24	24	11
4	73	2
9	9	5
63	67	1
21	22	1
51	51	5
24	25	3
2	2	6
35	35	4
26	26	3
7	8	2
25	25	3
52	74	1
56	56	5
72	73	2
35	56	1
23	27	1
50	50	4
11	11	1
65	66	1
53	57	1
27	27	5
31	31	3
6	6	5
64	64	3
68	71	1
58	74	1
42	44	2
36	36	3
0	1	2
37	38	4
19	19	5
36	38	1
38	39	4
48	49	1
54	59	1
2	9	1
21	21	6
68	68	3
24	27	1
21	39	1
12	13	1
18	18	1
61	66	1
55	55	5
33	34	3
50	70	1
72	72	1
0	0	3
71	72	2
6	9	1
34	34	2
23	28	1
54	55	1
74	74	3
66	66	2
58	58	2
51	53	1
57	58	3
71	71	2
40	55	1
61	62	1
46	60	2
0	2	3
25	67	1
30	30	1
43	43	2
0	19	1
61	61	4
31	32	4
70	73	1
42	49	1
28	63	1
46	76	1
70	71	2
3	6	1
32	34	1
5	10	1
27	28	1
25	26	1
77	77	2
46	46	2
42	54	1
30	66	1
75	75	1
70	75	1
24	35	1
20	21	1
32	32	5
6	8	2
51	56	1
19	20	1
43	46	1
68	75	1
35	36	6
40	40	2
69	69	1
20	29	1
2	3	2
33	54	1
39	42	1
10	10	3
0	10	1
58	59	2
75	76	3
52	52	2
35	39	1
51	52	1
35	38	1
49	58	2
8	10	1
55	56	1
37	37	4
47	50	1
34	64	1
28	32	1
30	32	1
48	48	2
70	70	3
23	26	1
64	73	1
76	77	1
21	38	2
60	60	3
45	56	1
40	41	1
13	21	1
64	69	1
38	49	1
63	64	1
49	71	1
29	32	1
54	54	1
22	23	1
28	31	1
62	62	1
37	40	1
20	22	1
14	22	1
12	23	1
44	45	1
19	29	1
26	54	1
7	23	2
65	65	1
61	64	1
36	42	1
5	5	1
49	51	1
69	71	1
4	7	1
1	3	1
76	76	1
35	52	1
37	60	1
29	30	2
25	38	1
4	6	1
25	28	1
72	74	1
41	42	1
33	43	1
18	19	1
57	73	1
