10	10	1
44	44	2
54	54	2
76	76	2
175	176	1
96	96	5
109	112	2
40	40	3
62	62	3
43	43	5
70	70	1
79	80	4
159	159	5
75	76	1
12	13	4
80	94	1
153	153	2
145	146	1
3	3	4
155	155	2
139	139	6
86	86	6
155	156	2
40	42	3
118	130	1
98	101	2
131	131	2
148	148	4
113	113	4
68	80	1
103	104	2
93	93	4
135	135	4
73	74	2
112	149	2
111	111	3
82	83	1
16	18	1
74	74	1
53	66	1
151	152	3
9	9	3
173	173	7
25	25	1
136	136	1
21	21	2
22	24	2
45	45	3
161	166	2
63	64	2
1	1	9
146	161	1
67	68	3
13	13	4
141	141	4
123	128	1
179	179	4
99	99	5
10	13	1
171	171	1
26	26	1
76	122	2
95	102	1
49	50	2
142	149	1
35	44	1
103	143	1
32	32	7
85	86	1
111	144	1
64	64	5
97	97	3
71	71	6
145	145	3
16	34	1
167	167	3
174	175	1
137	138	1
94	95	2
179	180	1
144	144	4
101	101	2
157	157	3
41	41	8
9	22	1
129	129	3
106	106	1
176	176	3
61	68	1
6	8	3
171	172	2
151	151	3
146	146	3
89	89	4
103	103	4
7	7	4
30	35	1
36	36	3
161	162	3
132	132	7
73	73	5
110	111	1
115	116	1
53	53	2
133	133	2
174	176	2
0	1	3
144	145	3
80	81	3
145	147	1
7	10	2
87	87	7
172	172	4
121	121	1
124	124	2
148	180	1
96	118	1
106	107	3
33	44	1
178	178	3
139	150	1
14	14	5
14	36	2
77	77	3
111	122	1
8	9	2
130	130	1
15	15	2
142	142	3
152	155	2
170	171	2
84	84	1
108	108	1
116	116	2
12	16	1
128	128	1
172	173	2
6	7	1
121	122	1
82	90	1
114	114	3
94	150	1
122	122	4
79	81	1
31	33	1
15	16	3
157	162	1
104	136	1
3	28	2
13	15	1
139	171	1
107	108	1
26	28	2
168	168	3
9	18	1
19	30	1
79	79	2
51	52	1
165	170	1
146	148	1
119	119	5
96	102	1
18	19	1
125	133	1
11	13	1
33	33	1
134	134	5
5	5	3
118	118	3
6	6	3
16	16	4
44	46	1
33	34	1
0	0	5
95	96	1
129	131	1
53	54	1
119	121	1
61	61	3
152	152	3
61	81	2
104	104	1
60	82	1
148	149	1
109	109	1
55	55	6
144	152	1
112	129	2
160	161	1
126	127	2
127	154	2
31	31	4
10	11	2
59	61	1
17	18	4
138	139	1
99	116	1
54	80	1
98	98	4
71	73	1
154	154	4
2	2	4
35	35	3
149	149	3
135	136	2
115	115	5
150	150	4
146	165	1
131	132	3
24	24	2
37	37	5
62	63	1
158	158	2
114	123	1
60	60	3
83	86	2
8	8	2
127	127	2
134	135	1
78	78	3
137	137	5
125	125	3
100	101	1
4	4	4
52	52	4
45	46	1
89	90	3
22	22	4
83	84	1
140	140	3
165	166	2
55	56	1
38	38	5
100	100	3
51	51	2
150	151	1
143	143	3
59	59	4
112	112	3
76	118	1
2	5	1
170	170	2
160	160	2
43	44	1
143	145	1
22	25	2
111	116	1
68	68	2
63	63	2
127	157	1
122	131	1
62	66	2
95	95	1
18	20	2
16	19	2
117	117	2
19	39	1
83	83	2
81	81	1
167	169	3
39	40	1
115	142	1
11	11	1
102	102	3
58	58	1
40	52	1
98	115	1
169	169	2
107	122	1
130	156	1
156	156	1
99	113	1
163	163	1
162	162	1
88	88	2
70	74	1
4	5	1
127	128	1
20	23	1
137	139	1
41	42	3
103	107	1
91	91	1
146	152	1
61	66	1
60	61	2
39	39	4
34	34	1
80	80	1
41	43	2
158	163	1
76	131	1
126	126	1
147	148	1
124	131	1
42	42	3
20	21	1
139	140	1
115	164	1
23	23	1
123	123	1
143	161	2
3	4	1
57	57	1
165	165	1
110	114	1
132	133	3
163	164	1
116	117	1
71	78	1
124	162	1
7	31	1
50	50	1
82	82	3
85	87	1
1	2	1
38	39	1
66	66	1
56	56	1
99	102	1
8	12	1
85	85	2
80	89	1
177	177	1
107	109	1
103	119	1
19	19	3
11	12	1
141	142	1
75	75	1
24	25	1
122	123	1
124	128	1
81	90	1
123	124	1
97	98	1
40	43	1
2	3	1
94	94	1
138	138	3
14	19	1
18	21	1
31	32	2
159	160	1
103	121	1
70	71	1
175	175	2
163	167	1
65	110	1
90	94	1
113	147	1
99	100	1
28	28	1
17	41	1
107	107	2
111	148	1
129	146	1
119	120	2
28	29	1
113	114	2
166	167	1
153	155	1
115	132	1
77	78	1
82	88	2
92	93	1
74	75	1
67	67	1
61	63	1
141	158	1
121	157	1
146	147	1
9	10	1
101	123	1
21	25	1
110	110	3
17	17	2
174	174	2
23	26	1
72	134	1
92	92	1
13	14	1
134	138	1
5	10	1
7	8	1
4	13	1
37	38	1
84	85	1
108	109	1
135	137	1
27	27	1
105	105	1
176	177	1
64	65	1
7	11	1
154	155	1
40	125	1
162	163	1
81	89	1
163	171	1
165	167	1
123	129	1
24	27	1
30	30	2
140	141	1
131	180	1
