30	30	1
95	121	1
150	151	2
64	75	2
110	111	1
45	45	1
28	29	2
18	18	2
8	10	1
139	139	2
85	129	1
8	117	1
5	6	1
25	25	3
6	8	1
100	100	4
12	12	4
35	43	1
108	115	2
6	6	2
44	44	4
131	133	1
63	63	5
128	145	3
34	34	2
116	116	2
14	14	6
64	64	2
5	27	3
145	145	2
20	20	6
113	113	2
47	47	2
46	152	1
54	79	2
32	35	1
121	132	3
78	78	1
79	79	1
129	129	2
134	154	5
29	35	1
16	19	1
132	132	3
98	98	3
17	17	5
51	51	2
62	62	1
49	49	4
107	151	1
4	6	2
31	32	2
112	113	2
50	51	1
36	36	3
110	110	3
120	120	2
16	16	2
86	87	3
134	135	2
5	5	3
35	58	2
68	69	1
73	73	2
67	67	1
111	115	3
50	50	1
26	26	3
8	8	5
32	33	3
40	40	3
43	52	1
77	84	2
103	108	1
117	148	2
105	105	4
65	65	3
109	109	2
5	21	2
127	128	1
118	129	2
47	57	1
22	24	3
23	23	4
3	5	2
148	148	5
48	48	2
30	35	1
116	127	1
121	121	7
25	27	1
66	66	3
5	8	1
9	9	3
24	24	6
33	33	3
97	98	5
152	152	3
7	7	2
116	117	1
119	140	1
123	126	1
136	141	1
31	31	3
108	108	2
146	146	3
31	45	1
147	148	1
141	142	1
73	76	1
21	21	3
110	114	1
75	81	1
136	136	1
76	78	2
117	117	1
19	19	5
12	22	1
13	16	1
142	142	3
7	22	1
83	83	3
13	15	2
93	94	2
5	14	1
65	68	1
24	28	1
84	85	3
132	134	1
27	29	3
153	153	1
68	68	3
57	66	1
101	101	2
107	143	1
96	96	2
35	41	1
42	45	2
134	134	4
111	118	1
53	54	1
130	130	5
57	62	1
125	125	1
42	42	2
109	118	1
79	84	1
48	53	1
31	61	1
84	86	1
38	39	2
95	111	1
146	147	1
2	3	1
27	62	1
75	78	2
10	10	1
101	106	1
143	143	1
64	90	1
95	95	2
103	104	2
140	145	1
79	100	1
61	81	1
109	139	1
57	57	3
62	87	2
6	7	3
90	92	1
11	12	3
120	122	1
134	146	1
117	128	1
54	118	1
37	63	1
125	126	2
77	77	4
7	10	2
141	143	1
138	138	3
41	41	2
140	141	1
87	87	3
22	33	1
14	23	1
27	27	1
75	108	1
126	126	2
26	88	1
142	144	2
72	110	1
56	56	2
86	86	2
129	135	2
74	75	1
71	71	3
133	136	1
81	91	1
146	148	1
44	99	1
140	140	2
72	100	1
29	29	2
40	148	1
65	67	1
107	120	1
144	144	1
147	147	1
112	112	3
7	11	1
141	141	1
14	15	1
96	97	1
62	97	1
42	43	1
5	33	1
55	57	1
94	95	2
106	107	2
45	46	2
117	118	1
19	20	1
115	115	3
56	57	1
79	82	1
114	114	1
124	125	1
115	116	4
76	80	1
65	66	1
15	15	1
11	85	1
38	40	1
74	102	2
84	103	2
132	133	1
108	110	1
79	102	1
87	93	1
129	136	1
135	149	1
119	128	1
126	145	1
4	4	3
140	142	2
148	150	1
39	39	1
55	55	2
11	96	1
13	13	1
115	117	1
45	51	1
22	22	1
125	146	1
81	81	1
85	85	1
54	54	1
112	131	1
14	57	1
154	154	2
126	127	3
92	92	1
79	92	1
102	102	1
111	116	1
53	104	1
105	106	1
34	35	1
130	144	1
75	75	1
93	100	1
128	128	1
149	151	1
99	99	1
122	132	1
118	118	3
97	99	1
125	127	1
70	70	1
89	93	1
77	78	1
62	81	2
81	88	1
10	11	1
106	123	1
124	124	1
69	69	2
47	52	1
98	102	1
102	103	1
142	146	1
7	9	1
137	138	1
35	35	3
133	133	1
103	106	1
80	80	2
137	140	1
57	80	2
95	97	1
73	86	1
107	114	1
114	115	2
95	101	1
65	71	1
58	63	1
33	34	1
90	93	1
42	67	1
105	112	1
119	119	1
31	48	1
39	40	2
63	64	1
40	49	1
40	48	1
7	21	1
151	151	1
92	144	1
5	7	1
23	24	1
84	100	1
75	77	1
82	88	1
38	38	1
57	77	1
23	66	1
8	27	1
43	43	1
87	120	1
73	74	1
70	73	1
78	80	1
3	3	1
25	33	1
153	154	1
29	32	1
82	82	1
53	152	1
149	150	1
17	19	1
18	20	1
99	114	1
43	50	1
77	79	1
136	140	1
93	93	1
129	138	1
41	48	1
144	145	1
137	139	1
111	111	1
130	131	1
135	135	1
