146	169	1
187	187	1
222	222	2
158	179	1
199	199	2
22	22	2
71	71	2
52	52	1
239	239	2
175	176	1
20	20	2
232	232	1
130	130	1
15	223	1
4	5	1
122	122	3
9	10	2
126	186	2
161	161	2
58	59	2
185	185	1
192	196	1
35	35	3
191	191	1
48	172	1
150	151	1
223	223	2
41	41	3
29	29	4
157	160	1
20	48	1
163	163	2
170	171	1
135	135	1
150	154	1
62	96	2
14	14	2
59	59	3
173	173	3
57	57	3
142	142	1
119	119	3
198	209	1
53	53	3
82	82	1
179	190	1
43	43	2
160	160	3
41	60	1
148	151	1
15	15	2
152	170	1
5	23	1
138	140	1
112	112	2
216	216	1
201	201	2
174	174	2
159	159	3
134	135	1
176	176	3
225	225	3
29	218	3
181	181	3
50	52	1
231	232	1
99	99	2
102	102	1
109	109	1
140	140	1
79	115	1
10	10	1
45	121	1
12	12	4
64	64	1
0	0	1
8	8	3
159	166	1
133	143	2
118	125	1
224	224	1
171	173	1
154	161	2
38	42	1
21	21	3
81	82	1
120	152	1
73	74	1
116	143	2
9	9	1
166	185	1
133	134	3
158	158	3
206	213	4
177	177	3
8	39	1
212	212	2
33	33	5
70	70	3
60	60	2
189	210	1
214	215	1
56	57	3
60	64	1
76	76	2
79	79	3
105	105	1
168	168	2
116	116	1
127	127	2
126	126	1
56	56	4
5	5	3
175	175	2
63	63	3
106	106	1
149	152	1
177	179	1
241	241	4
124	140	1
49	173	2
137	148	1
6	13	2
194	194	2
52	53	1
67	67	2
2	2	4
211	213	1
170	175	1
125	137	1
36	36	1
84	84	1
165	166	2
182	182	2
107	107	1
49	54	1
176	177	1
186	187	2
188	188	2
207	207	1
37	37	2
28	88	1
36	40	1
169	169	2
145	219	1
54	55	1
180	180	3
35	36	1
171	171	4
25	25	1
16	16	1
63	82	1
18	18	4
128	128	1
32	32	3
46	46	2
48	48	1
100	149	1
183	183	1
17	41	2
68	107	2
144	158	1
178	180	1
77	77	7
181	182	1
145	145	1
49	49	3
98	98	2
219	219	1
118	160	1
78	78	1
139	139	1
150	150	1
86	87	1
192	192	1
34	34	1
86	86	1
129	129	1
143	143	2
190	190	2
42	206	1
96	97	1
144	145	1
69	69	1
144	159	1
146	146	2
166	166	1
217	232	1
167	167	3
34	35	1
2	3	3
238	238	1
61	61	1
65	65	2
147	147	2
115	115	1
53	57	2
40	40	1
76	77	1
51	51	2
12	20	1
38	38	3
165	165	1
16	223	1
227	228	1
207	208	1
164	164	4
75	174	1
183	196	1
195	195	1
50	50	2
161	180	1
181	192	1
171	175	1
15	16	1
203	203	1
202	202	2
183	195	1
88	88	1
47	47	1
101	101	3
179	179	1
14	22	1
186	186	1
54	54	3
26	31	1
13	13	2
74	85	2
4	6	1
170	170	2
11	24	2
6	18	1
55	55	3
226	226	1
3	3	1
106	107	2
230	230	2
6	39	1
128	129	1
229	230	2
154	154	3
40	41	1
150	156	1
150	167	1
73	73	1
74	74	1
126	137	1
58	58	1
139	140	4
153	153	1
184	184	1
100	100	1
7	7	1
107	135	1
5	185	1
149	149	1
0	200	1
172	208	1
152	152	1
110	110	1
153	154	1
205	205	2
81	81	1
98	99	1
8	9	1
164	185	1
83	84	1
27	27	1
231	231	1
213	213	1
188	199	1
71	72	1
206	216	1
81	83	1
209	212	1
127	137	1
60	80	1
8	15	1
26	45	1
160	167	1
59	60	1
66	67	1
52	59	1
31	32	1
229	229	1
125	126	1
152	173	1
48	60	1
62	62	1
19	21	1
235	237	1
164	166	1
1	17	1
137	137	1
50	58	1
194	195	1
30	37	1
26	26	1
83	83	1
97	97	1
165	185	1
174	203	1
85	85	1
128	150	1
45	45	1
0	215	1
215	216	1
80	84	1
47	63	1
11	15	1
184	200	1
114	114	1
30	30	1
141	148	1
196	196	1
6	6	1
121	121	1
157	163	1
82	115	1
39	208	1
