83	87	1
77	95	1
141	172	1
135	135	1
99	101	1
158	159	2
114	145	1
40	43	1
149	149	4
131	133	1
66	67	2
32	32	3
3	4	1
81	81	2
52	52	3
121	125	1
166	167	3
19	19	3
123	123	3
56	57	1
65	65	8
60	60	5
58	58	2
145	145	2
44	44	3
61	61	4
129	129	3
27	28	1
167	167	2
21	23	1
38	38	3
118	118	2
103	104	1
130	130	1
174	174	2
102	102	1
12	14	2
161	162	1
140	140	5
21	21	1
150	168	1
14	38	1
178	178	2
78	79	3
154	154	3
169	169	3
157	157	4
17	17	3
180	180	4
54	56	1
175	175	2
92	92	2
170	170	3
51	51	3
176	176	2
9	42	1
4	4	1
120	124	2
7	22	1
61	62	1
8	33	1
125	125	4
154	160	1
139	139	6
67	67	3
60	87	2
78	78	2
144	157	1
6	7	3
20	20	1
89	94	1
86	92	1
143	143	1
104	105	1
60	81	2
56	56	2
55	55	3
96	96	1
37	37	2
41	41	4
18	26	1
148	149	1
169	172	1
137	137	7
5	36	1
170	171	1
14	14	3
96	117	1
5	100	1
172	173	2
13	35	1
82	82	1
22	44	1
119	119	5
103	103	1
150	150	3
112	140	1
40	40	2
45	50	1
133	158	1
147	148	2
35	39	1
21	22	3
155	155	2
67	68	1
96	103	1
148	148	3
0	3	1
94	108	1
2	3	2
77	78	1
64	96	1
66	68	1
140	141	1
29	30	2
18	18	3
161	166	1
126	156	1
41	45	2
34	36	1
112	129	1
64	64	1
133	134	1
164	164	3
33	33	2
149	150	2
32	33	1
144	155	1
52	67	1
88	95	2
134	134	6
83	83	3
86	86	1
27	27	2
1	2	2
112	114	1
108	108	2
14	15	1
87	91	1
132	132	1
0	13	1
55	79	1
91	127	1
138	139	1
68	78	1
13	38	1
22	46	1
50	50	1
125	131	1
153	153	4
161	161	1
1	1	3
154	170	1
84	85	1
62	62	2
15	15	3
12	13	2
66	72	1
89	90	2
142	143	1
177	177	2
58	89	1
131	142	1
43	44	2
3	29	2
89	89	2
10	10	1
85	85	1
50	51	1
29	97	1
75	75	4
54	54	1
121	121	2
144	144	2
2	2	2
168	168	1
130	131	1
130	132	1
66	82	1
29	32	1
139	140	1
84	86	1
122	176	1
107	107	2
109	110	1
52	61	2
79	79	1
115	133	1
139	170	1
74	74	1
11	12	1
9	17	1
59	60	1
148	153	1
0	0	2
63	92	1
12	15	1
74	75	3
71	71	1
80	80	1
2	43	1
124	145	1
126	126	2
146	146	1
43	43	2
95	96	1
41	42	1
156	156	1
162	162	4
125	169	1
141	141	2
159	169	1
66	66	1
22	22	1
171	172	1
29	81	1
92	113	1
102	150	1
157	162	1
60	86	1
112	112	2
119	122	1
26	26	3
6	6	1
24	38	1
59	111	1
152	152	1
34	43	1
97	98	1
10	14	1
39	69	1
142	142	1
121	145	1
26	28	1
22	26	1
57	57	4
113	113	2
136	137	1
52	151	1
105	105	2
61	63	1
60	63	1
123	124	1
123	133	1
100	100	1
9	13	1
160	160	1
53	54	1
10	24	1
150	153	1
90	95	1
24	28	1
57	66	2
143	158	1
127	130	1
103	106	1
90	90	2
44	45	1
115	116	2
11	13	1
11	35	1
127	127	1
163	165	1
5	5	1
110	111	1
25	25	1
10	33	1
122	125	1
35	35	1
71	72	1
131	131	1
139	141	1
109	122	1
35	38	1
97	117	1
9	10	1
24	24	1
77	77	1
122	126	1
116	116	1
155	156	2
159	161	1
17	18	1
104	104	1
127	128	1
133	133	1
8	8	1
115	115	1
31	43	1
1	37	1
16	16	1
82	86	1
25	51	1
24	45	1
143	144	1
18	19	1
36	36	1
84	84	1
108	109	1
2	6	1
116	122	1
136	136	1
132	133	1
124	125	1
179	179	1
78	96	1
