35	35	6
155	155	7
152	185	1
79	79	1
53	53	7
96	96	3
126	150	1
68	68	5
16	16	4
151	151	5
51	52	3
193	194	2
117	117	3
28	30	1
183	183	8
64	66	1
184	185	1
136	136	3
125	125	4
143	143	9
172	172	4
178	179	2
66	66	5
29	29	2
133	177	1
29	30	4
101	101	6
154	154	9
56	57	1
153	155	3
14	14	7
11	11	7
44	45	3
106	106	4
13	13	7
52	52	4
100	100	2
4	4	6
110	110	5
10	19	1
141	141	9
177	178	1
76	76	2
99	99	5
134	134	6
24	24	9
180	194	1
186	187	4
179	179	5
128	128	5
27	29	1
7	17	2
173	173	5
45	45	10
152	152	8
166	166	7
119	120	1
153	156	1
46	46	14
67	67	2
124	125	2
132	132	6
89	89	3
26	26	6
105	105	5
145	146	2
17	17	7
186	186	5
112	127	2
119	119	5
36	36	9
34	34	4
160	163	1
114	114	1
70	71	1
180	180	7
15	15	8
146	147	3
47	47	7
61	70	1
40	40	10
108	152	1
156	171	1
23	23	8
173	176	2
112	112	3
159	160	2
118	118	5
103	109	1
127	127	7
149	149	3
72	72	4
74	74	6
157	157	3
65	65	8
104	117	1
69	70	2
108	136	1
72	98	1
19	19	7
148	149	1
12	53	2
17	32	1
0	8	1
9	9	6
18	18	4
102	102	2
176	176	2
100	108	1
148	148	4
42	44	2
32	32	11
3	8	3
71	151	1
40	46	1
161	161	5
54	177	1
137	137	3
103	103	5
100	138	1
159	159	7
188	188	2
181	181	7
85	85	4
97	97	1
168	187	3
2	3	5
160	172	2
168	191	1
64	65	3
142	142	4
68	95	1
55	55	5
99	167	1
57	57	7
44	44	8
21	21	10
164	188	1
116	116	3
153	168	1
109	111	1
83	84	1
132	153	1
191	191	4
131	132	1
85	86	1
163	164	1
166	168	1
190	190	3
171	195	1
156	156	5
139	172	1
8	10	1
164	164	2
37	37	12
81	81	4
102	103	1
192	192	5
153	179	1
107	107	3
78	78	3
3	20	1
48	48	5
36	73	2
86	106	1
150	150	3
116	117	2
43	43	5
158	160	1
7	7	9
38	38	7
141	143	3
70	70	2
70	83	1
184	184	11
187	188	2
13	47	1
97	100	1
8	8	1
4	35	1
133	133	1
28	28	9
168	168	8
17	44	1
31	31	6
107	141	1
6	33	2
0	34	1
196	197	1
174	174	1
2	2	7
0	22	2
109	109	3
60	60	3
151	153	1
195	195	2
194	194	4
197	197	6
4	18	1
144	144	5
183	185	1
185	185	3
161	186	1
86	86	3
42	42	10
193	193	7
59	59	2
40	130	3
148	164	2
147	147	2
146	160	2
142	185	1
94	94	3
41	41	5
171	172	7
62	62	5
191	193	1
127	128	1
157	158	2
120	120	4
31	32	4
9	14	2
0	61	1
152	182	1
139	140	1
74	102	2
6	6	3
32	33	1
139	139	5
189	189	2
8	34	2
165	165	5
65	145	1
156	157	1
196	196	5
126	126	2
3	3	8
13	14	4
87	88	1
95	104	1
43	102	1
158	158	7
6	27	4
20	21	3
43	44	5
124	124	4
134	136	1
87	89	1
84	84	6
121	121	4
62	63	1
59	124	1
59	60	1
144	180	1
167	168	2
9	10	1
35	36	2
75	75	3
138	138	2
1	1	5
112	113	2
130	130	2
170	170	7
56	58	1
86	87	1
20	23	1
108	108	3
81	83	1
33	33	4
158	171	1
58	61	1
170	171	3
137	173	1
71	72	2
143	147	1
40	43	1
155	159	1
57	100	1
62	64	2
45	46	2
41	70	1
113	113	5
106	107	2
5	5	3
12	12	9
30	31	3
143	165	1
170	186	2
163	172	1
61	61	5
1	36	1
1	2	3
3	25	2
39	128	1
49	49	4
98	98	3
55	134	1
33	37	1
59	62	2
54	55	1
11	19	1
53	54	1
169	169	3
58	58	5
142	178	1
4	7	3
161	164	1
88	88	1
159	189	1
103	104	1
175	176	1
27	27	5
137	174	1
115	118	1
38	143	1
120	129	1
38	69	1
136	137	1
143	146	1
30	32	2
10	10	8
7	23	2
41	43	1
144	155	1
15	56	1
175	178	2
163	179	1
146	146	1
162	189	1
19	24	1
16	18	1
150	151	2
132	134	2
56	134	1
143	145	1
19	20	3
4	25	1
39	127	1
110	157	1
82	88	1
171	177	1
14	37	1
93	96	1
138	139	2
178	178	3
158	159	1
187	197	1
87	87	5
4	5	3
0	1	2
18	19	2
111	152	1
181	182	1
42	153	1
140	140	6
162	162	2
16	17	4
41	42	3
182	183	1
32	45	1
7	8	3
95	97	1
45	192	1
52	53	4
22	23	4
0	7	2
166	169	1
120	121	3
11	12	1
12	26	1
7	33	1
39	39	4
171	171	1
49	50	1
10	14	1
113	114	1
47	49	2
131	131	5
129	129	3
75	76	1
40	41	2
160	165	1
165	170	1
20	20	3
71	71	2
163	167	1
36	39	1
0	0	3
111	111	2
139	141	2
15	37	1
68	84	2
73	73	3
103	105	1
3	4	2
19	165	1
5	6	4
24	25	3
144	145	3
40	42	3
51	51	2
34	74	1
80	81	1
182	182	4
25	25	4
38	93	1
117	118	2
130	141	2
6	38	1
178	181	1
24	26	1
33	34	3
67	74	2
44	46	2
0	60	1
96	97	1
10	11	2
165	175	2
143	144	3
98	101	2
73	77	1
160	162	1
161	162	2
100	118	1
37	171	1
153	153	3
134	138	1
72	81	1
12	13	2
104	104	1
76	78	1
30	30	2
149	150	1
22	22	2
19	22	1
9	150	1
77	77	2
116	118	1
0	23	1
68	89	2
28	29	1
73	101	1
111	112	2
144	168	1
104	147	1
158	185	1
68	104	1
158	184	1
69	69	1
161	168	1
132	150	1
26	27	1
80	80	2
163	163	2
187	187	2
22	35	1
83	83	5
22	26	2
135	136	2
115	115	7
7	9	1
147	148	1
122	122	3
41	54	1
65	139	2
2	27	1
12	122	1
168	169	1
29	34	1
167	167	4
134	135	1
21	37	2
158	187	1
115	132	1
170	187	1
27	28	2
38	39	4
160	160	1
173	175	2
15	16	3
39	40	1
30	59	1
47	50	1
157	160	1
169	185	1
6	8	1
155	156	1
36	37	3
52	130	1
147	166	1
96	98	1
171	187	1
84	103	1
150	152	1
51	69	1
189	191	2
133	141	1
157	159	1
107	108	1
142	147	1
4	12	1
158	182	1
80	85	1
141	185	1
111	148	1
66	67	2
175	175	1
58	59	1
54	54	2
171	186	1
153	154	2
142	151	1
39	110	1
146	171	1
46	150	1
117	120	1
140	148	1
132	157	1
123	134	1
177	180	1
97	98	1
186	196	1
107	119	1
32	37	1
66	72	1
17	18	1
101	103	1
47	192	1
25	27	1
27	48	1
8	15	1
45	47	1
159	163	1
82	82	1
88	97	1
143	154	1
72	93	1
191	192	1
180	181	1
169	194	1
192	193	2
41	46	1
58	72	1
122	123	1
0	17	1
138	154	1
77	143	1
36	81	1
152	196	1
10	29	1
177	194	1
10	44	1
81	82	1
169	170	2
9	37	2
0	26	1
88	89	1
188	189	1
95	103	1
5	9	1
15	40	1
159	185	1
31	34	1
58	63	2
189	190	1
110	111	1
174	175	1
128	129	1
65	66	1
140	141	1
13	155	1
93	93	1
176	178	3
17	163	1
79	83	1
21	26	1
123	123	1
5	8	2
42	45	1
163	165	1
141	153	1
48	195	1
84	100	1
182	187	1
40	56	1
47	48	2
152	170	1
90	90	1
141	142	1
145	145	1
20	22	1
74	75	1
59	130	1
13	44	1
50	50	1
122	143	1
40	66	1
152	155	1
174	176	1
161	192	1
161	163	1
80	83	1
