114	114	4
95	96	1
9	9	2
55	95	1
155	155	3
13	13	3
142	168	1
154	156	1
158	159	4
36	36	3
135	136	3
42	42	5
151	155	1
123	124	1
84	86	1
145	145	2
20	20	5
12	13	1
52	52	3
131	131	3
170	170	1
115	142	3
53	95	1
163	163	5
133	133	2
38	157	1
8	9	1
115	115	1
112	117	1
26	26	3
61	61	2
19	22	1
8	21	2
153	153	2
117	118	1
166	166	4
75	75	1
86	87	2
111	111	3
55	56	1
31	32	1
58	58	1
18	18	1
128	129	2
119	119	4
140	143	1
15	15	3
85	85	1
154	154	3
113	113	1
71	71	1
54	74	1
92	93	3
93	118	1
3	11	1
65	65	3
7	7	2
10	10	1
147	147	4
65	135	2
156	158	2
67	68	2
159	159	2
30	39	1
130	130	3
44	52	1
99	100	2
121	121	1
165	165	2
76	77	1
96	98	1
176	176	2
16	16	2
104	119	2
167	167	2
32	33	1
9	10	1
151	165	1
33	33	2
157	157	1
132	154	1
4	115	2
143	156	1
95	106	1
91	120	1
106	120	1
152	154	1
1	2	1
134	134	4
76	76	1
4	50	2
169	169	3
105	105	2
102	102	2
104	120	1
67	67	2
87	87	2
127	128	2
23	35	1
140	140	1
167	170	1
59	75	1
86	86	3
172	172	4
141	141	1
12	17	2
118	170	1
128	130	2
27	27	1
64	64	1
151	157	1
31	34	1
25	26	1
28	30	1
31	31	2
19	19	1
149	149	2
103	103	1
57	58	1
154	161	1
79	79	1
112	112	1
152	153	1
143	154	1
41	41	2
82	98	1
57	136	1
77	77	1
80	95	1
100	100	1
107	123	1
62	62	2
57	57	1
32	44	1
11	11	1
34	34	1
39	52	1
150	151	1
14	16	1
83	90	1
106	119	1
180	180	2
4	4	3
23	23	2
90	91	1
28	28	2
142	142	1
24	25	1
158	158	1
115	125	1
41	42	2
23	26	1
91	92	1
118	118	1
58	59	1
95	95	1
13	35	1
98	98	1
57	113	1
90	111	2
104	140	1
25	25	3
145	153	2
6	9	1
92	92	1
109	109	1
94	94	1
93	170	1
24	24	3
151	151	1
38	38	3
132	132	1
3	14	1
98	101	1
113	117	2
62	63	2
131	132	1
177	177	2
60	60	1
146	146	1
2	2	1
3	28	1
98	112	1
61	62	1
68	68	1
79	90	1
148	148	3
169	170	1
81	82	1
44	44	2
5	73	1
52	96	1
117	119	1
114	116	1
96	97	1
61	64	1
153	154	1
3	3	1
6	6	1
12	12	1
73	73	1
126	126	2
103	115	1
11	161	1
87	95	1
11	13	1
112	154	1
56	57	1
45	45	2
132	133	1
127	127	1
78	78	2
105	106	1
13	30	1
65	66	1
17	18	1
107	140	1
162	162	1
72	73	2
50	50	1
124	125	1
161	161	1
52	53	1
36	72	1
101	101	1
1	1	1
90	94	1
14	14	1
63	63	1
39	40	2
9	15	1
175	176	1
168	168	1
50	52	1
161	162	1
66	66	1
11	25	1
146	147	1
171	171	1
142	158	1
127	129	1
0	9	1
35	35	1
152	152	1
131	135	1
122	122	1
0	0	1
3	4	1
97	97	1
146	152	1
124	124	1
141	159	1
160	160	1
136	136	1
137	137	1
