108	108	2
152	152	2
13	13	3
78	78	5
61	61	1
41	82	2
107	108	1
32	32	3
111	111	2
144	144	2
27	33	1
134	134	1
175	175	2
72	72	2
46	66	1
29	30	2
37	37	2
114	117	1
39	39	2
41	41	5
140	141	1
5	5	3
71	71	3
11	11	3
123	154	1
81	94	1
170	170	1
73	73	3
33	33	1
25	27	1
5	6	1
176	177	1
5	7	2
168	188	1
71	107	1
6	6	5
138	139	1
92	133	1
190	190	1
121	121	2
1	1	3
156	156	1
85	86	3
180	184	1
171	172	1
28	29	1
122	123	1
7	25	1
52	52	1
134	140	1
154	154	4
8	8	1
88	154	1
62	88	1
91	91	1
133	133	3
166	166	1
189	189	1
98	102	2
124	125	1
35	36	2
159	169	1
68	68	1
101	138	1
133	137	1
127	186	1
116	117	1
57	57	1
4	4	2
124	124	1
96	97	3
83	83	1
118	118	1
65	65	1
34	64	1
128	139	1
26	26	1
80	80	1
23	23	2
180	180	2
54	54	1
74	76	1
147	147	1
97	97	1
38	38	1
26	32	1
16	39	1
173	173	2
90	93	1
90	90	2
40	40	1
142	142	1
149	149	1
103	103	3
187	187	3
143	143	3
22	22	2
30	44	1
120	120	1
16	17	1
189	190	1
16	16	1
158	161	1
167	189	1
47	47	1
97	100	1
10	16	2
157	158	1
110	110	3
83	86	1
87	88	1
129	129	1
182	182	1
100	128	1
45	46	1
135	151	1
151	151	1
96	96	1
14	14	1
140	140	2
74	74	2
112	112	1
21	45	1
90	92	1
171	173	1
150	151	1
55	56	1
147	148	1
160	160	1
94	94	1
159	159	1
146	146	1
174	174	2
72	86	1
157	157	2
133	136	2
42	44	1
166	188	1
31	31	1
145	146	1
61	101	1
138	138	1
113	113	1
111	113	1
34	35	1
33	36	1
17	17	1
13	16	1
115	115	1
0	0	1
55	55	1
27	27	1
153	155	1
139	139	2
137	137	1
3	3	1
24	24	2
67	67	2
81	81	1
48	48	1
107	107	1
109	128	1
58	58	1
2	2	1
163	163	1
146	154	1
98	98	1
39	55	1
176	176	1
46	46	2
41	146	1
105	105	1
130	132	1
1	10	1
45	45	1
36	37	1
77	78	1
116	119	1
10	10	1
83	106	1
129	139	1
