71	71	5
121	122	2
204	205	1
136	136	1
210	226	1
74	74	3
30	30	1
180	229	1
28	28	1
42	42	1
29	78	2
25	26	1
174	175	1
5	5	1
125	126	2
120	120	3
168	168	4
16	17	1
126	126	1
122	127	1
210	210	4
18	18	3
127	127	3
218	224	4
222	225	1
138	138	1
47	47	1
110	110	1
163	166	1
39	55	1
9	9	2
8	8	2
119	129	1
234	234	4
149	149	1
82	83	1
86	86	2
63	63	3
222	222	1
167	167	1
119	119	2
22	52	1
35	37	2
140	141	1
17	54	3
132	157	1
192	192	4
129	148	1
31	31	4
118	153	1
103	179	1
156	156	2
140	140	2
74	145	2
214	215	1
102	103	1
164	164	1
64	65	1
201	201	1
163	165	1
108	110	1
1	1	2
180	182	1
158	170	1
154	155	1
162	162	1
85	85	2
118	118	2
179	179	3
139	139	2
162	165	1
143	143	1
107	107	2
171	171	2
214	216	1
59	59	1
131	131	1
106	106	1
150	150	2
36	36	2
144	144	1
134	154	1
195	231	1
211	211	2
128	128	2
173	173	2
233	233	2
68	68	2
172	185	1
62	62	2
41	42	1
72	72	2
237	238	1
95	95	1
185	193	1
136	150	1
168	169	1
217	217	3
146	146	4
167	168	1
37	55	2
15	66	1
17	41	1
115	116	1
0	0	1
19	19	1
166	167	1
151	151	5
154	154	2
33	33	1
231	231	1
3	183	1
99	99	1
161	161	3
116	116	1
7	8	1
208	231	1
226	227	1
68	206	1
146	148	1
23	24	1
27	70	1
190	191	1
173	174	3
194	230	1
18	19	2
98	109	1
221	223	1
152	152	2
198	212	1
141	141	1
65	65	1
32	32	1
126	133	1
39	39	1
17	17	3
185	192	1
26	26	3
67	68	1
158	159	1
189	190	1
148	148	1
70	70	2
162	163	1
194	194	1
16	16	4
167	218	1
48	48	1
102	102	1
104	104	1
180	183	1
159	159	1
34	34	1
28	29	1
163	163	2
241	241	1
169	169	1
230	230	2
46	47	2
23	72	1
142	143	2
20	32	1
210	212	1
13	13	3
181	181	3
2	7	1
20	20	1
29	31	1
98	98	1
58	231	1
144	145	1
60	60	2
227	227	2
69	69	2
242	242	1
153	153	1
2	2	3
38	38	2
153	166	1
2	4	1
82	82	1
238	239	2
158	171	1
229	230	1
21	21	2
174	174	2
84	88	1
145	157	1
50	50	1
158	160	1
185	185	1
75	75	1
14	14	1
151	168	1
220	220	1
118	119	1
137	138	1
21	50	1
64	69	1
51	51	1
183	184	1
30	56	1
100	160	2
187	187	1
20	47	1
142	142	1
172	198	1
161	162	1
240	241	1
178	178	2
44	46	1
170	171	1
199	200	1
175	178	1
55	57	1
2	5	1
186	193	1
58	58	1
172	172	1
9	55	1
100	100	3
209	209	1
212	221	2
116	167	1
107	131	1
101	101	1
51	52	1
11	11	1
22	23	1
19	35	2
188	189	1
83	156	1
53	54	1
106	107	1
58	59	1
184	197	2
7	13	1
207	208	1
182	183	1
158	158	1
118	176	1
229	229	1
2	182	1
220	221	1
204	204	1
133	133	2
57	57	1
32	37	1
177	200	1
44	44	2
153	154	1
155	155	1
46	54	1
114	183	1
223	223	1
165	165	1
76	77	1
177	177	1
115	115	3
19	34	1
51	54	1
114	146	2
48	49	1
156	161	1
219	219	1
43	43	1
11	127	1
42	48	1
182	184	1
170	170	1
9	10	1
214	214	1
83	150	1
129	130	1
79	80	1
15	15	1
129	129	1
113	113	1
210	222	1
165	185	1
61	61	2
62	122	1
122	122	1
235	236	1
196	196	1
97	97	1
116	140	1
150	156	1
149	154	1
28	80	1
105	105	1
177	178	1
