37	37	9
69	74	1
51	51	5
36	37	1
89	99	2
87	87	6
8	9	5
84	84	4
157	157	5
14	14	8
74	78	2
167	167	4
44	44	11
126	149	3
119	119	3
112	119	1
25	25	4
149	149	9
52	52	6
84	85	2
15	26	1
36	36	7
100	100	1
132	132	3
80	102	2
69	69	3
7	7	3
47	47	4
170	170	11
13	14	3
162	162	5
119	120	2
39	40	4
160	160	6
2	135	1
93	94	1
71	71	7
151	151	2
76	76	3
146	149	1
52	53	1
134	147	2
142	143	2
23	23	2
48	49	3
18	18	1
95	153	1
110	110	2
105	105	4
45	45	10
90	91	3
37	43	1
113	114	4
161	161	5
130	131	7
75	75	5
27	27	8
34	34	12
37	38	2
41	42	3
38	38	6
63	64	1
20	20	3
88	107	1
42	164	1
33	34	2
158	158	5
57	57	3
77	100	1
94	94	4
70	70	7
50	51	5
102	102	3
115	139	1
145	145	6
35	35	7
78	79	5
148	148	4
1	118	1
134	137	2
66	66	3
140	140	2
72	72	2
146	146	3
39	39	5
11	11	3
9	9	7
117	147	2
82	86	1
150	151	2
56	57	2
168	168	3
4	4	5
139	141	1
156	158	1
46	46	5
28	28	3
66	67	6
147	159	1
13	13	3
41	43	2
162	164	2
144	145	3
3	3	6
34	35	7
133	133	5
62	64	2
73	73	4
97	97	4
87	88	1
131	131	2
159	159	3
155	155	2
98	99	3
158	159	3
109	109	3
155	166	1
37	168	1
22	22	2
39	57	1
155	157	2
75	77	2
114	115	2
22	133	1
47	51	1
56	74	1
121	141	1
89	110	1
163	163	6
111	112	2
5	5	2
112	112	2
39	84	1
121	122	5
124	124	6
15	15	4
80	81	2
7	11	2
113	113	3
128	128	1
38	155	1
17	17	7
63	63	4
97	108	1
20	21	6
129	130	2
130	130	7
106	106	4
43	43	6
93	93	2
111	111	5
71	91	1
153	153	4
70	75	1
103	103	5
11	13	1
108	108	4
90	90	11
10	11	4
107	107	3
135	135	5
91	91	1
40	40	7
133	135	1
124	132	1
154	154	5
141	142	2
0	0	3
48	50	2
76	79	3
44	158	1
6	7	2
92	156	1
42	42	4
141	141	1
143	143	8
102	103	3
80	83	2
5	8	2
67	67	6
3	4	5
136	136	5
47	49	1
2	3	2
33	33	3
164	164	4
10	49	1
108	125	1
121	121	2
53	53	7
142	142	2
15	16	2
89	90	2
6	6	3
127	131	1
78	78	4
38	41	3
26	147	1
139	139	6
69	70	1
17	18	4
63	85	1
49	50	2
80	108	2
159	162	1
126	126	5
11	12	5
96	96	3
123	128	1
18	57	1
52	73	1
1	1	6
134	134	3
47	48	1
53	54	1
89	106	1
118	129	1
99	100	4
41	41	6
116	116	4
27	37	1
125	125	1
150	167	2
38	39	2
152	153	4
116	117	3
88	89	1
48	55	1
74	74	7
147	169	3
1	110	1
84	105	1
165	165	4
162	163	1
68	90	1
112	121	2
36	106	1
101	105	1
106	109	1
141	145	1
169	169	2
81	83	1
72	103	1
101	101	4
64	64	2
45	54	1
126	127	2
138	146	1
132	136	1
158	160	1
150	150	4
73	105	2
74	96	1
163	165	3
93	95	1
19	20	1
88	166	1
110	112	2
82	82	4
117	117	2
9	22	1
86	87	4
166	166	4
77	101	1
62	62	1
82	97	1
99	99	3
104	104	5
42	43	4
137	137	7
122	123	1
98	98	7
18	19	2
112	114	2
150	161	1
85	85	3
43	44	3
21	23	3
2	2	10
127	127	2
141	143	1
85	87	2
19	24	1
163	164	5
46	48	4
109	160	1
81	82	3
38	44	1
49	49	3
146	148	2
73	100	1
22	24	2
23	24	5
122	122	3
93	109	1
90	106	1
144	144	4
88	88	8
55	55	4
130	143	1
74	75	2
11	14	1
40	56	1
76	97	2
133	140	1
24	46	1
92	92	3
8	10	1
20	22	4
4	37	1
147	158	1
4	5	3
10	18	1
21	21	3
3	168	1
71	84	1
45	51	1
9	134	1
19	19	3
71	72	1
120	120	3
123	123	1
71	73	2
167	169	1
8	8	3
86	86	1
129	129	2
76	78	2
77	78	1
147	161	2
43	99	1
56	58	1
153	154	5
73	135	1
37	170	1
108	109	1
48	48	2
92	93	1
64	66	1
147	147	2
143	164	1
67	68	1
100	102	1
47	99	1
131	151	1
4	43	2
147	148	2
127	129	1
3	150	1
124	127	1
161	162	2
46	88	1
103	122	1
107	108	2
56	56	3
137	138	1
83	83	1
91	92	1
106	129	1
143	144	2
156	156	2
144	147	2
36	43	1
9	10	1
10	10	3
118	120	2
123	124	1
107	131	1
94	104	1
26	27	2
166	167	1
82	83	2
167	168	1
81	94	2
143	169	1
95	95	2
65	67	1
118	122	1
69	89	1
118	146	1
7	41	1
0	47	1
53	64	1
7	10	1
24	27	1
85	112	1
7	34	1
92	115	1
118	118	3
161	163	1
12	13	2
65	65	1
80	121	1
117	122	1
19	21	2
136	160	1
73	106	1
16	16	1
149	150	1
64	65	1
97	99	1
146	164	1
101	104	1
68	68	2
70	73	1
139	140	1
35	36	1
72	74	1
168	169	2
138	144	1
37	41	1
40	41	1
136	137	1
155	156	1
44	46	1
72	75	1
50	50	2
57	58	1
5	6	1
15	52	1
157	159	1
105	119	1
65	92	1
79	79	2
44	52	1
76	105	1
169	170	1
150	158	1
74	91	2
47	76	1
18	20	1
121	132	1
138	140	1
73	93	1
133	134	1
134	139	1
100	103	1
27	28	1
26	26	1
131	132	2
101	103	4
129	150	1
72	73	1
35	123	1
79	80	2
22	23	1
2	147	1
65	66	3
77	79	1
39	49	1
12	12	2
7	8	1
15	44	1
40	157	1
72	100	1
68	80	1
64	92	2
118	119	1
44	71	1
69	110	1
96	102	1
2	4	1
25	26	1
49	144	1
91	93	1
71	90	2
150	164	1
68	85	1
106	107	1
126	136	1
164	166	1
24	25	1
76	77	1
109	110	1
36	157	1
36	41	1
55	56	1
77	77	1
46	77	1
78	80	1
146	147	1
160	161	2
45	70	1
135	149	1
6	13	1
2	26	1
119	122	1
119	121	1
94	95	1
