9	9	2
78	107	1
26	27	1
127	128	2
48	48	4
17	17	3
94	106	1
65	70	2
53	53	1
38	38	4
143	143	3
95	95	2
13	13	5
34	34	3
65	68	1
37	37	3
62	62	1
53	54	3
91	97	1
116	117	1
84	84	1
19	20	1
95	100	1
30	30	8
59	68	1
15	28	1
58	69	1
137	137	4
8	8	3
136	136	2
49	51	2
41	41	3
142	142	5
85	85	1
29	29	1
110	111	1
111	111	3
79	109	1
31	31	2
9	28	1
137	138	2
97	97	2
104	104	4
82	82	2
72	72	2
128	128	2
105	105	2
128	129	1
18	18	1
144	144	1
56	132	2
21	22	3
89	90	1
136	137	1
58	75	2
29	37	1
104	105	2
68	68	1
133	134	2
142	144	2
96	96	3
41	42	2
52	62	1
56	136	1
20	41	1
81	83	1
62	64	1
61	61	1
17	18	1
19	19	1
66	68	1
109	109	2
133	133	2
68	70	2
23	25	1
60	60	1
6	6	2
21	63	1
118	119	1
131	131	1
118	120	2
139	139	3
58	58	1
50	51	2
87	87	1
135	135	3
35	35	1
115	115	3
86	86	1
5	6	1
98	119	1
54	54	1
9	10	1
67	135	1
50	50	2
6	27	1
108	110	1
130	130	1
57	74	3
77	77	2
100	101	1
116	116	1
10	10	1
85	93	1
100	100	2
27	27	2
22	22	2
60	61	2
98	98	2
66	66	2
91	91	1
48	95	1
128	141	1
128	130	1
112	112	1
104	111	1
14	16	1
80	109	1
134	140	1
21	21	1
99	99	1
23	23	2
2	2	1
117	118	1
71	72	3
102	126	1
110	112	1
64	66	1
4	4	1
56	56	2
140	140	2
100	110	1
112	118	1
93	93	2
22	27	2
118	118	2
130	141	1
18	19	2
11	28	1
32	32	1
122	123	1
102	102	1
62	74	1
36	36	1
114	114	1
131	135	1
12	12	1
106	106	1
134	134	1
59	60	1
94	94	1
64	71	1
101	101	1
55	55	2
74	104	1
57	57	1
80	95	1
11	11	1
2	30	1
97	99	1
74	74	1
40	40	1
16	16	1
20	20	1
123	123	1
108	109	1
0	1	1
0	0	1
27	28	2
79	90	1
79	107	1
114	115	1
124	124	1
90	90	1
15	18	1
