167	168	1
197	198	2
152	153	1
230	230	5
175	200	2
204	204	7
184	185	3
190	192	1
52	52	4
196	196	5
29	31	1
171	171	4
207	207	1
232	232	5
248	248	1
29	29	3
119	119	6
32	32	2
217	217	3
185	224	2
25	25	5
155	155	5
11	11	6
78	79	1
196	215	1
61	61	5
5	5	5
149	150	2
193	235	1
246	246	4
70	71	1
181	210	1
193	193	5
94	96	1
173	174	2
211	211	2
2	3	3
226	226	4
78	154	1
206	206	3
202	207	1
50	50	5
216	217	1
203	205	1
19	19	5
82	82	1
162	165	1
174	174	1
174	185	1
48	51	1
119	120	1
162	162	6
96	97	1
114	114	4
31	31	10
111	111	5
231	231	6
14	14	4
86	87	4
18	18	3
203	203	4
118	118	1
101	101	3
49	49	5
175	175	3
18	19	1
87	90	1
7	7	5
120	162	1
209	210	1
174	177	2
3	207	1
38	39	1
84	89	1
185	185	4
15	15	5
7	16	1
225	248	1
201	201	6
183	183	2
157	173	1
110	111	1
168	168	5
67	67	2
172	172	2
200	200	7
48	68	1
179	211	2
145	156	3
178	182	1
88	88	2
197	197	4
26	26	4
160	160	5
115	115	6
20	22	3
31	53	2
227	234	1
82	85	1
44	203	1
222	242	1
216	216	4
45	46	6
233	233	5
116	116	3
188	189	1
151	151	2
1	1	5
148	210	1
184	184	2
245	245	5
12	12	3
227	228	1
17	17	6
76	76	1
43	43	2
51	51	2
40	112	1
46	46	6
147	147	4
225	225	3
183	231	1
236	236	2
167	190	3
118	119	1
78	78	1
93	93	3
110	110	3
91	93	1
71	90	1
233	234	2
66	69	1
179	179	2
192	192	1
113	113	3
83	84	1
169	169	2
207	209	1
178	179	4
188	192	1
8	8	2
177	177	2
103	104	1
112	112	3
20	20	3
61	85	1
4	5	1
213	213	3
152	152	3
214	214	4
55	55	3
232	241	1
204	205	1
81	81	2
181	181	4
19	33	2
173	176	2
206	212	1
87	161	1
101	102	1
169	170	3
100	100	2
178	178	1
40	43	1
172	173	3
92	94	1
185	212	1
11	40	1
71	120	1
229	229	5
22	22	4
84	84	1
1	2	1
150	151	2
90	90	1
228	228	5
99	99	2
215	218	1
94	94	4
17	19	2
185	190	1
206	207	2
235	235	1
163	164	1
21	21	4
244	244	2
206	208	1
159	159	4
42	42	4
67	73	1
52	53	2
3	3	1
4	4	4
219	219	1
209	209	1
167	197	1
228	229	2
176	176	1
198	199	2
35	35	1
169	176	1
65	66	1
33	33	6
11	12	5
145	145	2
158	174	1
51	68	1
212	234	1
166	166	2
167	174	1
247	248	2
225	235	1
205	205	2
220	220	2
189	190	2
91	91	1
24	100	1
66	66	2
189	192	1
106	107	1
59	60	1
153	161	1
90	115	1
86	86	2
79	79	2
151	156	1
34	34	2
80	83	1
10	10	3
2	2	2
93	94	1
80	85	2
105	105	4
16	17	2
145	159	1
241	242	1
222	222	5
19	29	1
195	195	2
48	48	4
66	111	1
238	238	1
170	170	1
92	92	1
92	113	1
23	23	2
155	156	1
159	193	1
21	22	2
16	16	6
95	95	3
63	67	1
43	44	2
223	223	5
67	197	1
47	47	5
32	33	1
183	184	1
164	164	3
40	40	1
203	204	2
219	220	1
180	210	1
234	236	1
51	52	2
221	221	1
238	239	2
173	200	2
72	72	3
163	163	3
173	184	1
158	158	4
223	233	1
197	237	2
0	0	1
234	234	2
69	69	1
54	54	2
5	30	1
8	11	1
29	110	1
53	91	1
6	6	4
68	68	1
178	219	1
41	43	1
36	36	5
211	231	1
13	13	1
186	200	1
30	30	2
38	52	1
212	213	1
218	218	1
90	106	1
17	18	1
44	44	3
222	243	1
1	9	1
162	181	1
119	222	1
202	202	1
208	208	4
191	238	1
36	37	1
37	37	6
95	98	1
2	229	1
109	109	2
19	40	1
27	27	3
95	96	1
154	154	2
108	109	2
77	95	1
65	71	1
173	192	1
229	230	1
65	65	2
116	117	1
204	206	1
69	70	1
188	190	1
94	197	1
91	118	1
176	186	3
197	200	1
145	147	1
117	117	2
71	71	1
70	70	2
227	227	4
102	102	1
9	9	1
224	224	2
29	37	1
73	74	1
53	53	4
44	230	2
76	77	1
103	103	1
15	16	1
107	107	2
35	40	1
220	245	1
115	116	1
214	225	1
87	92	1
240	241	1
194	195	2
234	235	1
213	244	1
98	98	1
65	67	2
120	120	1
68	145	1
25	26	2
153	153	1
208	211	1
146	150	2
8	155	1
111	117	1
239	239	1
82	83	1
193	194	1
114	115	1
83	83	1
213	230	1
56	57	1
168	179	1
96	98	1
19	20	2
161	161	1
80	86	1
20	21	1
57	57	1
193	196	1
64	174	1
8	37	1
198	198	1
154	155	1
192	193	1
223	224	1
12	16	1
29	181	1
191	191	2
85	85	1
58	58	1
85	86	1
212	212	1
42	203	1
104	104	2
26	27	1
48	49	1
182	182	2
236	237	1
46	111	2
169	179	1
114	116	1
190	191	1
224	240	1
24	24	1
3	10	1
61	65	1
56	63	1
178	183	1
64	64	1
242	242	1
169	174	1
33	41	1
55	57	1
96	96	1
247	247	1
47	52	1
14	15	1
187	187	1
177	218	1
246	248	1
61	62	1
167	233	1
87	87	1
33	35	1
32	37	1
240	240	1
208	223	1
47	48	1
