9	29	1
9	10	2
50	50	2
59	65	1
52	65	1
87	124	2
113	115	1
127	127	4
71	75	1
98	98	1
137	138	1
34	34	3
5	5	6
22	28	1
41	144	1
13	14	1
51	60	1
120	121	1
79	82	1
68	68	4
1	2	1
103	103	2
90	90	3
56	68	1
105	106	1
85	86	1
71	71	1
63	71	1
102	102	4
36	37	2
120	122	1
87	104	1
36	38	3
73	88	1
43	43	2
14	15	3
24	25	2
124	133	1
26	26	4
122	123	1
94	131	1
16	23	2
110	134	1
31	31	3
76	77	2
79	79	2
78	78	3
25	25	4
20	20	3
8	8	2
10	10	2
18	18	2
50	51	2
78	81	1
133	133	4
104	105	1
67	74	1
3	3	2
48	51	1
111	111	3
4	5	2
140	140	3
88	93	1
70	70	2
60	60	1
74	74	3
99	99	2
26	27	1
49	49	3
58	58	3
62	63	2
67	67	1
40	40	1
38	38	2
9	21	1
33	33	1
81	90	1
34	39	1
119	120	2
84	123	1
111	119	1
32	32	3
130	130	2
134	135	1
12	13	1
20	52	2
9	28	1
66	66	4
24	24	3
11	11	2
126	126	1
0	38	1
93	93	1
35	35	2
71	72	2
134	134	1
33	40	1
115	139	1
80	80	1
136	136	2
97	97	1
28	28	4
77	109	1
38	39	1
41	41	3
49	74	1
59	59	2
128	129	1
53	59	1
139	139	1
39	40	1
37	41	1
0	6	1
122	141	1
64	64	1
67	72	1
101	101	3
53	53	3
22	22	6
16	16	1
24	47	1
21	21	2
118	118	2
35	47	1
91	91	1
52	52	2
129	129	2
126	127	1
17	17	2
98	124	1
47	48	1
14	14	1
58	65	1
81	81	1
65	65	2
82	84	1
107	107	2
84	84	1
131	132	1
108	108	2
83	83	1
138	138	4
21	26	1
52	53	2
123	123	2
28	33	1
47	53	1
100	100	2
9	9	3
53	100	1
135	135	3
6	23	1
110	110	4
94	94	3
95	95	1
75	75	2
119	119	1
54	54	1
16	39	1
77	126	1
53	70	1
21	37	1
143	143	2
101	103	1
19	58	1
88	100	1
2	19	1
108	123	1
87	87	1
15	15	2
69	71	1
109	110	2
56	62	1
42	43	1
23	23	1
54	95	1
19	23	1
37	38	1
103	106	1
111	120	1
121	121	1
51	53	1
82	97	1
115	115	1
51	51	3
6	62	1
49	64	1
120	136	1
116	116	1
42	42	3
11	70	1
80	116	1
13	15	1
34	89	2
103	104	1
93	94	1
122	122	3
125	125	1
8	10	1
10	11	2
104	104	1
131	131	1
30	30	2
5	32	1
62	86	1
85	85	2
12	12	2
72	75	1
68	69	1
78	80	1
113	113	2
8	56	1
101	102	1
11	22	1
37	37	2
100	138	1
85	92	1
97	98	2
28	52	1
89	99	1
6	6	1
133	139	1
100	103	1
67	71	1
61	66	1
63	63	1
109	109	1
76	79	1
145	145	1
105	105	1
61	61	1
109	118	2
125	145	1
93	102	1
136	138	1
89	122	2
71	76	1
128	145	1
119	132	1
50	69	1
82	82	1
128	128	2
144	144	1
59	68	1
16	32	1
92	93	1
1	1	2
92	97	1
92	111	1
116	118	1
51	52	1
118	122	1
20	23	1
124	141	1
118	120	2
142	142	1
92	92	1
66	67	1
48	54	1
133	134	1
72	72	1
96	96	1
119	139	1
133	135	1
52	68	1
56	56	1
27	27	1
125	128	1
62	62	1
4	4	1
111	112	1
15	26	1
17	18	1
56	59	1
6	8	1
120	137	1
33	35	1
19	29	1
10	94	1
103	110	1
104	109	1
102	103	1
47	47	1
35	37	1
146	146	1
19	19	1
6	26	1
67	90	1
2	2	1
118	140	1
