26	44	2
17	17	1
40	40	5
100	100	2
43	43	3
10	13	2
131	131	1
80	100	2
42	42	2
144	145	2
65	65	2
84	84	5
37	37	6
34	34	3
133	134	2
106	111	1
54	54	2
33	33	2
6	6	2
38	71	4
38	38	4
1	1	2
145	164	3
9	9	1
156	156	1
137	137	3
14	14	2
74	74	2
14	150	1
141	141	1
83	107	2
149	149	3
67	67	2
133	133	1
55	101	2
124	126	1
139	139	1
7	157	1
115	117	3
79	104	1
115	122	1
62	65	1
117	117	2
17	56	1
13	13	3
81	95	2
159	160	1
127	127	1
150	150	3
97	98	1
154	162	1
2	2	3
111	111	3
126	126	2
137	144	1
91	92	1
87	87	1
8	151	1
22	23	3
128	128	1
13	14	1
35	35	3
155	155	2
18	19	3
84	86	1
88	88	3
33	34	1
108	108	2
9	48	1
143	143	1
162	166	2
145	146	2
9	154	1
73	73	1
135	137	1
108	109	1
109	109	1
1	3	1
8	21	1
78	78	1
51	51	1
72	74	2
48	49	2
103	103	1
152	152	4
153	153	2
10	19	2
8	8	1
92	95	1
6	7	2
111	112	1
101	102	1
105	105	3
25	25	1
4	4	2
36	36	1
16	16	1
41	41	3
3	3	3
87	88	2
83	83	1
40	41	1
44	45	1
10	10	1
71	112	1
76	76	3
69	69	2
168	170	1
48	48	1
27	43	1
11	26	1
41	42	1
91	97	1
168	168	1
58	96	2
153	154	1
20	20	2
164	164	4
64	67	1
139	140	1
41	71	2
126	127	1
41	91	2
154	166	1
160	160	2
92	92	1
38	39	1
20	53	1
161	161	1
3	26	1
109	134	1
141	142	1
39	39	1
27	27	2
69	70	1
145	163	1
10	154	1
7	7	2
153	156	1
28	28	1
88	89	1
16	17	1
2	21	1
98	98	1
26	26	2
100	106	1
43	44	1
99	99	1
144	165	1
112	112	4
85	85	2
137	138	1
150	151	1
96	99	1
62	62	2
159	159	1
162	162	1
18	18	1
97	97	1
129	130	1
160	163	1
57	95	1
46	48	1
79	80	2
65	67	2
78	79	1
87	93	1
79	79	2
83	106	1
95	95	2
157	158	2
21	156	1
15	68	1
5	5	1
158	158	2
55	55	1
93	94	1
116	117	1
106	107	1
135	135	1
121	121	1
62	64	1
167	167	1
63	63	1
20	21	1
45	45	1
72	72	1
169	169	1
96	96	1
130	145	1
77	78	1
21	23	1
70	112	1
162	169	2
101	103	1
22	22	1
68	69	1
50	50	2
5	169	1
104	104	1
140	140	1
61	74	1
82	82	1
82	83	1
163	167	1
154	154	1
142	142	1
146	146	1
80	81	1
92	94	1
89	89	2
152	165	1
46	47	1
64	78	1
48	50	1
120	120	1
1	48	1
126	129	1
116	116	1
