67	67	5
13	13	2
144	144	3
26	26	3
100	101	1
35	35	3
70	72	1
85	85	3
21	21	3
94	94	1
70	70	5
28	29	1
106	106	3
149	149	1
102	102	1
89	89	2
29	35	1
123	123	3
31	37	2
80	81	1
102	105	1
3	3	2
17	17	2
113	115	2
36	36	3
20	20	1
53	110	1
140	140	4
92	111	4
120	140	1
152	152	3
135	138	1
38	39	2
51	53	2
79	79	6
115	146	2
64	75	1
82	82	1
130	130	4
1	1	2
61	70	1
108	108	3
62	62	1
135	137	1
110	110	2
68	68	4
120	120	2
37	37	2
87	88	2
147	147	2
95	96	1
108	116	2
73	73	3
55	55	3
43	43	2
70	71	1
22	28	1
40	51	1
7	40	1
126	142	1
70	79	2
25	25	3
51	51	3
29	29	3
117	137	2
119	119	4
103	104	1
128	128	2
127	128	3
108	122	1
77	78	2
133	133	7
127	127	2
139	151	2
100	100	2
134	134	2
138	141	1
15	15	4
25	29	1
24	25	1
92	113	1
96	96	3
39	40	1
85	86	1
139	140	1
99	99	1
49	49	4
75	75	4
38	38	2
82	84	1
126	126	5
30	98	1
66	112	1
87	87	2
148	148	3
13	21	1
5	5	6
116	116	5
7	7	1
87	120	1
131	131	1
19	41	1
111	145	1
131	155	1
141	141	1
6	129	1
156	156	2
105	105	3
72	73	3
95	95	2
69	69	4
121	122	2
71	71	2
120	141	2
41	41	1
91	91	2
35	36	1
119	121	1
131	132	1
66	106	1
93	93	4
133	135	2
154	154	2
78	82	1
50	52	1
23	23	1
94	121	1
90	91	2
112	112	3
137	137	4
79	82	1
151	151	4
103	103	2
14	16	1
140	141	1
104	104	5
83	85	1
90	90	2
87	90	1
81	81	1
98	98	4
20	93	1
63	63	2
39	39	1
92	92	1
141	145	1
122	122	1
8	137	1
44	44	3
8	9	2
97	98	1
145	146	1
108	109	3
118	120	1
68	69	1
150	150	5
54	55	1
18	18	6
124	124	2
71	134	1
136	136	3
142	142	4
139	139	4
121	121	3
72	72	1
131	156	1
137	141	1
45	77	1
115	120	1
3	4	2
67	70	2
117	117	5
118	119	3
120	125	1
97	106	1
147	148	1
134	135	1
114	114	4
16	16	1
75	77	1
113	116	1
40	40	3
85	94	1
46	46	1
123	126	1
145	145	1
8	8	1
121	123	1
105	131	1
157	157	1
136	137	1
15	17	1
132	133	2
148	149	1
8	135	1
114	137	1
154	156	2
65	65	1
158	158	2
132	132	6
76	132	1
0	1	2
61	61	2
15	40	1
129	129	4
153	154	1
19	93	1
65	150	1
135	136	1
104	105	1
80	93	1
68	132	1
36	96	1
47	47	1
1	100	1
121	137	1
145	149	1
2	2	2
21	22	1
48	50	1
84	85	1
70	102	1
9	9	1
88	88	2
14	14	1
125	127	1
77	92	1
31	126	1
101	101	2
37	38	1
155	155	1
77	97	1
10	13	1
116	119	1
97	97	1
67	110	1
90	95	1
46	48	1
111	116	1
113	113	1
128	129	2
92	124	1
105	106	1
124	138	1
152	153	1
29	89	1
28	28	1
27	42	1
144	146	1
34	34	2
66	66	2
0	0	1
153	153	1
40	46	1
77	77	1
25	27	2
115	115	2
116	141	1
33	33	1
22	51	1
110	137	1
50	50	1
8	40	1
6	6	1
77	96	1
98	128	1
54	54	1
119	120	1
110	111	1
104	111	2
27	29	1
21	31	1
92	116	1
135	135	2
31	35	1
46	47	1
11	15	1
90	92	1
116	118	1
52	53	1
23	25	1
125	125	1
79	80	1
64	148	1
33	34	1
133	149	1
86	86	1
120	133	1
