40	41	3
109	109	1
130	130	4
90	91	2
158	158	2
127	127	5
10	11	1
15	17	4
69	69	4
121	136	2
26	26	2
114	126	2
134	134	7
137	137	6
21	22	1
116	127	2
128	128	5
72	72	4
41	42	2
127	138	1
26	43	1
144	144	4
105	105	3
80	80	1
125	127	3
117	118	1
153	153	7
43	43	3
71	71	4
37	37	2
154	154	9
89	110	1
34	34	2
87	108	1
138	138	7
77	77	8
64	69	1
46	47	2
116	120	3
138	156	3
152	152	7
15	15	3
17	31	2
96	152	2
1	2	3
156	156	1
116	116	2
25	25	2
110	111	3
120	121	1
29	29	3
86	86	6
121	122	1
45	45	1
155	156	1
85	91	1
91	91	2
135	137	2
122	122	7
32	35	1
84	84	3
104	104	3
13	13	1
22	92	1
140	140	5
107	109	1
92	137	1
108	109	2
108	110	1
92	134	1
4	5	1
89	89	1
7	7	2
112	158	3
48	49	1
123	124	1
56	68	2
85	86	3
14	15	1
123	123	3
129	142	1
114	114	2
136	136	4
80	106	1
6	6	2
148	155	2
68	68	8
0	1	1
124	128	1
125	125	6
139	139	1
36	42	1
87	88	2
40	40	3
5	6	2
106	107	2
94	137	1
120	140	1
83	83	1
117	134	3
131	132	2
132	139	1
140	143	1
148	149	1
8	9	3
73	73	8
151	151	2
85	85	1
132	132	7
51	51	4
146	146	8
109	110	5
81	81	6
137	143	1
62	64	3
92	92	1
136	142	2
108	119	1
117	117	2
38	38	4
86	87	1
133	133	3
144	145	1
67	69	1
145	145	3
20	31	1
53	54	3
96	96	3
22	22	1
24	93	1
65	84	2
155	155	2
81	82	4
67	71	1
87	87	1
90	121	2
39	39	3
108	108	4
9	11	1
91	118	1
93	95	1
141	141	9
110	110	5
126	126	3
55	55	3
157	157	2
43	72	1
118	120	2
142	142	1
2	2	2
95	95	1
135	136	1
148	148	5
131	131	6
99	99	4
5	29	3
42	42	3
19	19	5
11	18	1
115	115	8
92	93	2
26	128	1
24	97	1
103	103	3
111	111	2
115	128	1
49	49	1
20	20	1
82	118	1
88	88	2
65	69	1
69	73	1
122	135	1
66	69	1
111	142	1
147	147	2
144	147	3
78	78	2
54	55	1
111	117	1
24	24	2
100	150	1
152	153	1
36	37	2
138	143	1
46	52	2
1	29	1
106	106	3
90	90	1
11	11	1
54	78	1
70	102	1
15	16	1
150	151	2
110	118	1
0	0	1
8	8	3
76	76	1
63	81	2
46	46	1
66	71	3
19	33	1
9	9	1
7	8	1
118	144	1
26	28	1
140	141	2
116	123	1
122	143	1
138	139	3
3	3	1
53	53	3
71	72	1
36	38	1
62	63	4
98	98	2
75	75	4
111	137	1
149	151	1
35	41	1
1	1	1
78	79	4
65	65	1
82	82	2
66	66	1
97	97	2
132	133	4
14	41	1
30	30	1
112	112	2
11	19	1
72	107	1
20	30	1
31	31	3
19	20	1
67	67	3
67	68	1
150	150	3
138	152	1
143	143	2
14	51	2
114	115	1
130	131	2
125	126	2
93	93	2
121	144	1
64	65	1
106	112	1
20	46	1
34	68	1
70	70	2
102	103	1
82	85	1
88	89	2
65	86	1
127	128	1
120	120	2
114	118	1
126	135	1
50	52	1
84	92	1
108	111	1
124	125	2
122	136	1
52	52	2
115	116	1
28	29	2
67	89	1
0	3	2
144	153	1
87	89	1
134	156	1
79	79	2
112	113	1
159	159	1
43	44	2
104	105	2
106	138	1
126	138	1
138	151	1
112	137	1
48	48	1
48	64	1
109	120	2
26	27	1
94	94	1
105	130	1
70	104	1
107	107	3
15	41	1
146	147	1
57	57	1
135	135	2
21	27	1
20	29	1
111	112	1
124	124	2
72	101	1
105	107	1
4	4	1
62	62	1
17	34	1
128	129	1
38	40	2
152	158	1
21	21	2
117	146	1
68	70	1
35	76	2
118	118	1
2	30	1
3	28	1
9	18	2
111	158	1
120	154	1
133	134	1
119	119	3
50	50	1
14	14	1
135	159	1
25	26	2
144	146	1
66	106	1
36	36	1
117	120	1
100	121	1
92	129	1
86	88	1
100	101	1
33	54	1
115	119	1
62	112	1
100	100	2
108	118	1
63	63	2
117	119	1
33	34	1
14	89	1
93	94	1
67	70	1
27	27	1
82	83	1
47	47	1
61	113	1
28	32	1
140	149	1
126	127	1
98	121	1
7	24	1
138	146	1
13	25	1
30	65	1
79	81	1
122	137	1
36	77	1
98	99	1
23	23	1
129	129	1
117	143	1
10	13	1
112	122	1
11	16	1
99	150	1
149	150	1
131	134	1
53	56	1
93	114	1
105	139	1
110	154	1
3	4	1
82	88	1
12	12	1
35	36	1
25	80	1
3	21	1
145	146	1
