85	85	4
44	44	3
123	128	2
31	31	2
37	37	4
6	6	6
75	75	3
158	159	1
88	94	1
24	24	1
141	141	2
35	35	6
43	43	4
80	80	4
82	82	3
141	171	1
80	81	1
138	138	2
109	120	2
10	11	4
157	157	2
66	66	4
117	117	4
137	137	4
76	77	4
107	107	3
13	13	1
5	5	3
108	139	1
126	141	2
153	155	1
59	63	1
4	4	3
112	112	3
162	164	1
29	30	1
25	26	2
26	26	2
53	60	1
107	108	4
72	72	2
2	2	3
15	15	6
27	34	1
57	58	1
146	159	1
170	170	4
147	147	3
103	136	1
164	168	1
40	40	7
118	140	1
165	165	3
131	149	1
67	67	5
146	146	3
174	174	3
153	153	2
74	75	1
84	84	4
125	125	3
115	117	1
96	96	3
139	139	3
65	66	1
29	29	2
5	6	2
90	91	1
56	56	3
31	135	1
71	78	1
12	12	3
40	42	1
1	1	2
105	140	1
71	71	3
77	77	3
142	143	2
91	130	1
129	130	3
56	61	1
87	87	2
42	42	3
94	94	3
100	152	1
97	97	2
166	166	6
88	90	1
92	92	1
131	131	4
64	64	5
149	149	2
33	33	4
81	141	1
103	103	2
124	142	1
171	171	5
101	101	1
161	161	3
148	148	1
43	64	2
41	41	2
160	160	2
14	16	1
150	150	1
8	14	2
142	144	1
166	167	3
9	168	1
176	177	1
39	39	5
24	30	1
93	93	1
176	176	2
64	126	1
116	120	1
64	65	2
14	14	2
17	38	2
151	157	1
158	158	6
73	73	1
8	8	4
136	136	4
119	119	1
18	21	2
118	118	1
74	74	5
149	150	1
81	85	1
180	180	4
7	7	2
88	122	1
152	156	1
172	172	2
111	111	4
26	41	1
67	85	1
57	57	3
99	99	1
124	124	1
79	79	2
168	168	6
21	25	1
91	91	1
9	9	3
123	124	1
34	35	2
134	134	2
89	89	4
122	159	1
59	61	4
164	167	1
0	0	3
78	78	1
164	164	2
62	62	2
43	44	2
122	167	1
49	99	1
98	98	4
137	138	1
36	38	2
1	137	1
115	115	3
12	35	2
103	119	1
3	4	1
7	8	1
119	140	1
144	163	1
21	49	1
145	145	5
121	121	3
28	35	2
42	43	1
113	113	6
74	135	1
129	129	2
45	46	2
118	147	1
58	58	5
38	38	4
105	106	1
130	151	2
144	144	3
21	22	1
120	125	2
123	125	2
83	84	1
122	122	1
135	135	2
96	102	1
64	131	1
127	128	1
31	32	2
17	17	4
130	130	3
104	104	2
27	27	3
72	73	1
132	138	1
36	36	5
62	63	1
78	94	1
157	160	1
109	109	1
22	22	3
55	55	1
88	88	1
163	165	1
6	38	1
151	152	1
61	61	2
152	159	1
18	18	2
111	114	2
21	151	1
110	112	1
114	118	1
157	158	2
132	132	3
123	123	5
53	53	2
126	126	2
116	117	1
91	99	1
100	101	1
28	29	3
155	160	1
163	164	2
107	113	1
163	163	1
23	27	1
81	101	1
97	106	1
143	145	1
178	178	3
76	76	3
178	179	1
171	172	1
2	54	1
1	22	1
8	71	1
16	17	2
62	87	1
15	22	1
86	95	1
63	63	2
86	88	1
104	157	1
90	93	1
162	165	1
19	22	1
159	159	1
54	54	1
116	116	2
20	20	1
14	168	1
34	34	1
68	68	3
133	137	2
18	19	2
19	19	2
135	178	1
95	95	1
137	145	1
10	10	1
40	41	2
112	150	1
147	148	1
117	119	1
4	52	1
8	114	1
131	132	1
50	50	1
177	177	1
84	104	1
81	81	1
16	16	1
130	131	1
31	150	1
9	31	1
142	142	2
113	114	1
143	144	1
86	86	3
17	18	1
82	142	1
32	32	1
121	166	1
169	169	3
93	103	1
52	52	1
103	121	1
25	25	1
107	119	1
18	24	1
106	106	2
15	16	1
140	141	2
146	148	1
102	102	1
167	167	1
19	20	1
9	15	2
30	30	1
5	38	1
134	175	1
62	88	1
2	3	2
20	23	1
58	126	1
164	166	1
164	165	1
78	86	1
124	127	1
145	146	1
119	121	1
109	117	1
162	162	1
107	112	1
133	133	1
50	146	1
19	50	1
59	126	1
177	178	1
19	21	1
118	120	1
44	45	1
151	151	1
99	100	1
42	169	1
81	82	1
52	53	1
151	154	1
0	1	1
155	156	1
8	22	1
143	143	1
60	60	1
63	64	2
100	100	1
4	59	1
112	118	1
8	169	1
156	156	2
122	125	1
58	73	1
54	55	1
149	176	1
73	77	1
92	93	1
15	25	1
17	44	1
114	115	1
40	43	1
170	171	1
