135	135	3
145	146	2
105	125	2
99	99	5
123	123	2
154	155	1
161	161	2
6	6	1
126	126	1
49	49	3
44	45	2
24	24	1
152	157	2
3	3	3
148	148	3
27	28	2
21	22	1
153	154	1
50	50	5
16	16	3
36	36	5
137	137	5
4	7	1
85	85	1
39	39	4
19	19	4
145	145	4
52	52	4
139	141	1
2	2	8
95	96	3
42	42	4
152	152	1
101	104	1
165	166	2
133	133	4
37	37	2
73	73	6
44	44	5
34	35	1
26	26	4
138	138	1
3	20	2
6	25	1
170	170	4
124	124	4
26	27	2
158	158	2
3	4	1
83	83	4
43	43	3
33	35	1
135	136	1
45	52	1
124	125	2
108	108	3
164	166	2
65	67	1
148	149	3
44	82	3
74	74	4
105	105	3
164	164	3
21	21	3
90	91	2
151	151	3
109	110	2
44	160	3
146	146	3
20	20	2
118	118	5
62	63	1
88	93	1
92	95	2
169	169	2
12	12	2
112	112	2
53	53	2
151	155	1
34	34	6
80	80	1
48	49	1
113	114	1
159	159	2
135	138	1
5	14	1
18	18	1
99	105	1
131	131	2
111	111	4
86	88	1
56	56	3
86	86	4
157	158	1
113	113	2
45	45	2
162	162	5
106	109	1
160	160	2
95	99	1
14	14	5
120	120	1
22	22	2
2	3	1
125	125	5
85	88	1
134	134	2
13	13	5
35	36	5
74	147	1
132	152	3
163	163	3
14	15	3
147	147	6
110	110	1
144	144	4
41	41	3
68	68	1
12	47	2
1	1	3
35	35	6
27	27	1
150	150	3
74	75	1
149	150	1
108	137	1
130	130	1
17	17	4
133	156	1
71	119	1
10	10	3
156	156	2
91	91	2
66	113	2
62	62	1
103	103	1
167	167	1
66	67	1
42	43	3
7	7	1
69	69	4
48	48	3
90	90	1
142	143	1
121	121	3
64	67	2
55	56	1
129	157	2
38	38	5
134	160	1
77	77	1
54	72	1
139	140	2
119	139	1
101	103	1
80	90	1
107	107	1
4	4	5
18	156	1
8	12	1
143	143	4
34	36	1
6	7	1
153	153	2
0	148	1
137	138	1
53	71	1
2	25	2
18	19	2
105	107	2
9	9	1
5	5	1
95	95	1
50	51	1
25	25	2
100	102	3
146	147	1
97	98	1
164	165	1
114	114	3
132	133	1
53	54	1
86	135	1
94	94	1
75	75	2
89	89	2
41	42	2
101	132	1
58	62	1
20	49	1
159	164	1
80	81	1
154	154	1
84	90	1
15	42	1
157	157	3
70	71	1
0	20	1
108	164	1
8	8	1
22	23	2
43	44	1
80	101	1
140	140	2
77	110	1
10	13	1
162	163	2
65	66	1
91	93	1
155	155	1
151	152	1
76	76	2
37	39	1
128	128	3
46	46	1
136	136	2
122	122	1
3	170	1
47	47	2
18	47	2
70	70	2
91	92	1
100	100	3
97	97	1
108	112	2
107	108	1
109	109	1
63	64	1
80	84	2
64	64	1
112	114	1
129	129	1
89	163	1
11	11	1
102	117	1
56	105	1
55	55	1
14	155	1
13	45	1
101	102	1
151	153	1
145	149	1
159	168	1
117	143	1
98	99	2
4	24	1
132	134	1
137	162	1
92	92	2
104	104	1
98	133	1
56	80	1
129	131	1
14	37	1
134	138	2
47	49	1
56	57	2
56	85	1
139	139	1
35	37	1
40	40	3
100	106	1
23	23	1
15	15	2
88	88	1
151	154	1
163	164	1
144	150	1
84	84	1
130	132	1
0	2	1
68	69	1
91	115	1
166	166	1
132	132	1
0	0	3
13	14	3
155	166	1
61	62	1
79	79	2
51	51	1
33	33	1
110	111	1
44	53	1
65	65	1
119	122	1
20	28	1
37	38	1
146	169	1
14	16	1
153	164	1
82	82	1
16	17	2
1	2	1
38	160	1
46	47	1
21	40	1
20	58	1
117	117	1
45	53	1
89	90	1
15	49	1
0	5	1
6	167	1
12	13	1
45	46	1
6	17	1
149	149	2
82	112	1
38	149	1
63	63	1
108	170	1
116	147	1
119	129	1
98	98	1
130	162	1
40	41	1
125	126	1
69	87	1
96	96	1
138	139	1
165	165	1
27	51	1
20	25	1
11	155	1
8	9	1
164	167	1
155	157	1
23	24	1
1	11	1
12	22	1
87	87	1
7	45	1
127	127	1
