42	56	2
49	49	2
103	104	1
50	50	4
81	87	2
82	82	4
63	63	2
72	72	6
56	84	1
98	98	2
77	77	9
2	2	5
55	56	3
53	55	1
107	107	2
55	63	1
84	86	1
47	47	2
16	27	1
4	5	1
99	99	7
90	92	1
78	86	1
126	126	4
94	94	1
47	52	1
22	22	7
4	4	2
100	100	5
70	70	3
44	44	6
106	106	6
1	10	1
77	89	1
59	106	1
68	69	1
9	10	1
123	131	1
87	87	7
25	25	2
101	105	1
104	104	6
18	18	1
121	121	4
4	26	1
70	81	1
79	134	1
79	79	4
114	120	2
131	132	2
9	20	1
54	54	8
83	86	1
31	32	2
80	80	6
8	8	3
99	100	1
19	19	4
12	12	2
105	110	1
73	74	2
84	88	1
23	23	6
71	71	3
116	118	3
97	97	7
33	33	2
104	110	1
62	63	2
130	130	5
34	34	3
60	60	2
38	38	1
57	57	6
99	103	1
101	102	3
59	60	2
119	119	4
57	84	1
34	35	1
71	74	2
24	33	1
91	91	6
103	103	2
8	9	2
5	12	1
53	53	5
60	62	1
75	75	6
48	58	2
50	62	1
50	52	1
60	61	2
128	128	3
89	90	1
15	29	1
12	24	1
110	113	1
37	37	2
120	120	1
94	119	1
92	92	1
14	20	1
68	68	6
90	90	6
127	128	1
42	67	1
59	59	2
56	56	2
23	47	1
65	65	2
33	34	3
69	69	5
0	3	1
42	60	1
0	1	1
127	127	4
53	66	2
24	25	3
132	132	1
6	6	5
32	32	4
95	97	1
13	21	2
21	21	2
57	59	1
35	36	2
5	5	2
36	37	1
35	48	1
88	88	1
135	135	1
101	101	8
80	81	1
114	114	4
19	20	1
110	110	1
15	32	1
74	74	3
31	33	1
0	2	1
43	45	2
2	3	1
113	113	3
52	53	1
72	73	2
79	80	1
9	9	5
16	16	1
48	48	3
36	36	3
0	45	1
125	135	1
54	60	1
70	88	1
84	84	3
75	76	2
85	91	1
99	135	1
78	78	2
74	75	1
93	95	2
18	24	1
84	87	1
108	109	1
58	60	1
47	49	1
45	45	7
112	118	1
46	49	1
85	85	4
27	28	1
92	93	1
108	110	3
72	74	1
26	27	1
86	87	3
77	78	4
18	21	1
58	69	1
3	3	4
66	70	1
11	13	1
66	67	1
8	38	3
55	57	1
43	50	1
52	52	2
73	73	1
65	90	1
65	73	1
9	28	2
70	73	1
65	70	1
27	32	1
112	112	4
119	128	2
1	1	1
58	59	2
20	21	1
6	22	1
121	123	1
13	14	1
125	125	2
70	71	2
73	78	1
62	62	6
3	6	2
55	96	1
65	71	1
53	54	1
30	45	1
83	85	1
90	91	2
43	43	2
66	66	1
61	61	1
130	135	1
33	98	1
73	95	1
8	10	1
97	99	1
129	129	3
93	94	2
10	11	1
56	57	2
104	106	2
31	44	1
133	133	1
77	81	1
131	131	4
15	16	1
64	64	2
105	105	1
15	15	2
118	119	1
26	30	2
109	127	1
120	121	1
99	126	1
95	95	1
124	124	1
42	45	1
134	134	1
10	10	3
79	82	1
107	108	2
8	31	1
77	82	1
29	30	1
55	55	2
0	0	4
54	55	1
61	72	1
100	102	1
86	86	2
16	19	1
76	76	4
102	102	3
35	35	1
9	11	1
115	115	1
95	96	1
123	130	1
46	47	1
26	26	1
109	109	1
117	117	1
84	85	4
96	96	2
67	67	1
7	62	1
132	133	1
20	20	2
63	65	1
123	123	1
10	60	1
116	119	1
28	28	1
130	134	1
93	116	1
115	119	1
68	73	1
97	100	1
19	21	1
92	100	1
111	115	1
5	18	2
54	58	1
82	83	1
118	118	1
12	16	1
23	24	1
21	22	1
100	101	1
27	27	1
43	44	2
12	73	1
13	13	1
108	108	1
17	17	1
91	92	1
19	22	1
122	122	1
58	64	1
16	22	1
53	60	1
85	86	1
119	125	1
63	96	1
120	132	1
93	93	1
76	80	1
6	12	1
111	111	1
27	35	1
61	87	1
114	116	1
19	26	1
14	17	1
105	114	1
78	82	1
4	9	1
48	60	1
24	24	1
65	68	1
64	69	1
57	61	1
