198	200	1
42	42	3
103	103	1
219	219	4
185	229	1
164	164	3
197	239	1
162	162	3
150	150	4
56	56	3
60	60	1
58	58	3
116	117	1
112	113	4
26	26	4
32	33	1
7	233	1
46	59	4
155	155	2
71	71	1
37	37	3
52	52	4
218	219	1
44	44	3
184	206	1
232	232	2
92	92	1
35	36	2
235	235	5
53	53	4
40	40	4
212	234	2
157	157	2
110	110	2
234	235	1
202	202	2
193	193	3
215	215	4
87	87	2
182	182	1
218	218	2
23	23	2
248	248	2
185	201	2
31	31	5
66	92	1
38	38	3
32	32	5
160	160	3
54	55	2
6	234	1
41	42	1
74	81	1
187	187	3
101	101	1
43	43	5
213	234	1
72	73	2
45	45	7
24	100	1
114	114	6
205	205	2
14	15	1
116	116	1
236	240	1
51	51	2
45	147	1
163	188	1
196	197	2
6	7	2
33	33	7
194	194	1
54	54	3
220	220	1
113	113	7
55	56	1
213	224	2
73	74	2
82	83	1
64	64	2
67	71	1
204	204	2
67	67	3
163	163	3
182	202	1
216	218	3
226	226	3
154	154	1
107	107	3
47	47	5
20	20	4
233	233	3
168	169	1
109	109	2
6	8	1
158	158	1
165	165	3
68	68	4
223	223	4
36	37	1
238	239	2
238	240	3
178	178	1
189	189	1
26	27	3
11	11	4
22	22	3
174	174	1
182	184	2
191	191	2
166	202	2
236	237	1
57	57	2
198	198	4
207	207	1
48	48	3
201	201	1
34	34	3
77	77	1
6	6	3
50	60	3
245	245	2
111	111	3
2	2	2
159	159	3
114	120	1
195	195	5
4	4	5
112	112	2
78	82	1
18	18	2
190	191	1
160	184	1
208	212	1
211	222	1
4	5	1
213	219	1
36	36	1
95	95	2
36	38	1
93	94	1
89	89	2
211	211	6
61	61	1
203	204	1
52	78	1
88	88	3
28	28	3
1	35	1
55	55	2
180	180	7
198	199	2
10	10	5
212	246	1
45	63	1
19	19	2
194	195	2
36	41	1
49	49	2
174	175	2
224	224	2
180	182	1
57	58	1
12	12	4
245	246	1
236	238	1
210	211	2
80	80	1
213	213	2
24	24	3
18	23	1
173	173	1
161	183	2
158	159	1
156	156	6
185	185	1
232	242	1
17	18	1
216	216	2
96	96	1
17	17	5
8	8	1
8	225	1
46	46	3
203	203	5
237	247	1
145	206	1
174	246	1
29	31	1
97	103	1
208	208	1
152	152	1
25	25	2
118	118	1
181	181	3
99	99	1
47	48	1
215	237	1
151	151	2
48	57	1
242	242	3
100	100	3
169	169	3
29	29	2
106	106	3
16	222	1
15	15	4
46	47	1
150	151	2
236	246	1
166	167	1
39	117	2
47	51	1
90	90	1
34	94	1
161	161	1
39	39	8
171	171	3
117	118	1
172	172	2
212	212	1
45	46	1
118	119	1
16	16	1
1	47	1
199	199	3
177	177	2
91	101	1
9	9	1
109	110	1
208	209	1
231	231	1
179	179	3
152	162	1
183	184	1
226	227	1
0	0	1
168	180	1
70	87	1
24	87	1
246	246	1
221	222	1
3	3	1
76	76	2
170	170	1
102	102	1
24	25	1
20	25	1
14	14	1
75	75	1
236	236	3
56	58	1
186	186	1
74	74	1
172	207	1
209	209	1
171	176	1
28	33	1
63	64	1
58	60	1
52	54	1
25	93	1
41	41	2
165	184	1
215	216	1
49	50	2
104	104	1
153	153	1
237	237	3
72	74	1
27	27	3
86	86	2
91	91	1
30	30	3
162	184	1
77	78	1
187	188	1
233	235	1
155	156	1
188	237	1
17	42	1
80	81	1
5	6	1
227	227	1
21	21	2
62	62	1
167	167	1
66	66	1
47	50	1
37	64	1
229	229	2
21	22	1
7	7	1
176	176	1
11	16	1
231	244	1
1	1	1
178	192	1
186	188	1
241	241	1
43	44	1
27	31	1
206	206	1
35	35	1
68	79	1
21	24	1
68	97	1
65	65	3
5	5	1
228	228	1
240	241	1
113	114	1
225	225	1
217	217	1
0	1	1
52	68	1
17	23	1
73	73	1
38	41	1
5	51	2
40	93	1
19	38	1
65	66	1
19	40	1
240	240	1
223	224	1
200	200	2
195	196	1
