127	127	8
138	141	2
100	100	14
145	147	4
11	11	6
123	127	1
68	68	12
17	18	3
152	152	10
131	131	16
124	126	1
4	4	2
121	121	12
33	34	2
13	142	1
45	45	3
142	142	12
13	17	3
84	85	4
118	119	6
148	148	10
3	13	1
88	92	3
79	79	7
64	94	1
127	155	1
9	9	6
133	133	15
126	128	1
77	77	4
99	100	2
136	137	4
146	147	2
128	128	10
6	29	2
69	97	1
69	69	11
117	118	4
142	143	4
23	65	1
128	137	1
46	46	9
38	66	1
143	143	7
25	25	9
50	50	3
38	41	3
13	16	1
113	113	5
122	126	1
138	149	1
36	36	14
5	5	4
72	152	1
41	41	5
134	134	13
7	7	7
136	136	13
41	47	1
128	146	4
6	6	9
108	145	1
49	81	2
71	71	11
151	153	1
54	56	1
125	126	6
31	31	7
2	3	3
130	151	1
43	43	15
26	26	7
3	38	1
39	40	7
111	111	8
115	115	11
6	30	3
146	146	2
96	97	4
27	27	9
70	70	5
88	91	1
85	85	4
18	18	5
130	131	6
84	87	3
89	89	4
81	82	3
39	39	6
119	119	8
116	120	4
151	151	5
18	54	1
97	110	1
158	158	13
70	133	1
138	138	10
78	78	3
68	69	2
19	19	7
121	135	1
48	48	2
124	124	6
97	97	6
77	78	3
107	107	8
65	65	7
81	83	3
152	154	4
126	126	5
98	98	7
24	24	4
153	153	5
1	1	3
26	39	1
140	141	4
149	149	4
131	140	1
66	131	4
75	75	10
88	89	2
155	155	10
16	16	6
67	67	8
106	106	12
129	151	1
144	144	7
128	155	2
66	67	2
62	63	1
125	125	4
22	66	1
132	132	14
20	20	5
96	96	5
102	102	3
20	21	2
92	129	1
72	72	3
39	44	1
135	135	9
90	90	3
92	93	3
92	92	6
77	107	1
104	105	5
150	150	8
100	105	2
69	104	1
87	87	3
48	49	3
116	117	3
129	156	1
42	42	5
68	137	1
70	88	1
15	15	3
35	35	1
0	0	3
120	120	6
34	34	9
93	93	9
38	39	2
81	131	1
144	145	2
43	54	1
137	137	9
106	153	1
157	158	4
127	128	1
25	30	3
33	57	1
69	86	1
84	84	7
44	44	9
139	139	9
112	113	4
30	73	2
139	140	5
92	95	1
146	148	2
83	83	4
92	152	2
65	66	2
87	121	2
102	105	1
131	132	3
71	72	4
63	64	1
8	8	3
17	54	1
96	120	1
29	32	1
31	149	1
70	157	1
95	96	4
107	130	3
64	64	3
156	156	3
112	112	6
129	129	5
70	71	2
89	127	2
104	104	4
28	29	1
22	22	5
113	138	2
99	99	11
34	42	1
14	14	4
111	112	5
106	132	1
53	53	2
8	9	2
76	76	6
138	142	1
80	94	1
11	15	2
66	66	3
107	127	1
88	94	1
122	123	1
112	115	3
31	32	2
99	150	2
147	148	7
95	116	1
21	22	2
68	86	2
154	157	1
30	72	1
49	53	1
10	10	5
67	88	1
86	86	5
130	133	1
63	78	2
21	81	1
130	139	1
123	123	5
107	120	1
17	17	6
113	142	1
140	140	8
25	77	1
32	32	4
40	40	4
121	123	1
3	4	4
140	152	1
110	110	9
73	74	1
88	88	8
24	106	1
157	157	9
54	54	3
94	94	5
73	73	4
141	141	12
106	107	3
136	145	1
67	117	1
135	137	1
151	152	6
18	19	2
115	140	2
113	115	4
2	4	1
96	105	1
121	122	2
55	55	6
108	109	3
27	66	1
130	130	11
52	52	6
14	15	1
23	55	1
117	119	1
12	13	2
49	49	6
29	29	3
94	96	2
7	55	2
22	44	1
145	145	4
28	37	2
43	55	1
123	141	3
63	63	3
2	2	5
98	128	1
154	154	6
117	117	14
139	144	1
7	45	1
129	130	6
73	124	1
81	81	3
109	142	1
66	76	1
22	30	1
35	118	1
156	158	3
147	147	3
18	21	3
2	23	1
38	38	6
93	112	1
69	120	2
19	20	2
132	134	2
91	91	3
99	127	2
106	129	2
94	95	1
82	82	5
1	2	1
103	139	1
21	43	2
67	107	1
135	140	1
106	134	1
10	43	1
120	124	2
90	91	1
63	65	1
123	145	1
57	57	2
95	141	2
113	114	2
105	140	1
75	107	2
87	154	1
117	121	1
122	122	6
12	12	5
93	94	1
108	134	1
144	147	5
77	80	2
32	33	2
118	118	4
66	156	1
155	156	3
29	30	4
138	140	3
108	111	1
26	99	1
11	12	2
26	29	1
70	72	1
78	82	2
109	110	4
105	123	1
151	155	1
26	27	4
43	135	1
66	70	1
105	105	10
123	135	1
64	91	2
92	94	2
98	103	1
83	88	1
111	129	1
69	135	1
22	71	1
21	65	1
123	126	1
33	39	1
53	54	1
121	146	2
112	138	4
104	106	1
128	129	1
54	55	2
140	149	3
121	147	1
138	139	4
124	125	2
110	112	2
0	128	1
55	57	1
21	23	1
28	28	4
118	121	2
64	67	1
80	85	2
147	153	1
0	107	1
51	52	3
137	138	2
105	116	1
90	111	1
66	99	2
11	35	1
110	111	2
6	7	2
50	51	2
41	49	1
132	133	3
23	23	5
145	146	1
40	46	3
141	142	3
103	150	1
137	142	2
25	26	3
10	35	1
37	37	5
79	82	1
108	108	4
7	8	4
107	134	1
82	84	1
42	43	1
40	50	1
46	47	1
106	124	1
40	41	3
66	68	2
55	113	1
101	102	1
40	43	1
114	115	3
127	157	1
121	143	3
4	5	1
113	137	1
127	134	1
66	97	1
19	125	1
1	3	4
16	17	3
134	135	2
56	56	1
132	138	1
43	45	1
105	107	1
92	141	1
38	127	2
8	16	1
136	154	1
11	14	1
52	53	2
121	128	2
118	120	1
4	151	1
51	51	4
135	136	3
139	143	1
101	101	4
44	50	1
129	133	1
7	12	1
52	57	1
44	51	1
64	130	2
4	8	2
130	155	2
71	78	1
93	113	1
42	52	2
126	127	4
143	144	1
56	57	1
20	51	1
21	48	1
82	90	1
15	16	3
69	70	2
115	116	1
31	68	1
107	131	1
100	150	1
45	67	1
78	79	3
98	129	1
151	156	1
32	44	2
28	30	1
46	49	1
84	86	1
0	2	1
91	136	1
27	38	1
1	129	1
51	53	1
108	110	1
47	48	1
79	111	1
6	17	1
17	43	2
107	111	3
55	56	1
35	52	1
108	142	1
97	98	2
84	154	1
144	146	2
1	5	1
25	71	2
108	130	1
96	108	1
123	124	2
67	69	1
139	141	1
24	38	1
25	28	1
3	6	1
79	80	1
79	81	1
86	90	2
91	106	1
32	34	2
86	88	1
103	104	1
110	115	3
97	138	1
131	133	2
3	3	1
62	62	2
86	87	2
119	144	2
90	95	1
109	109	2
9	10	2
13	41	1
91	119	1
143	147	2
88	90	3
85	86	1
105	106	2
143	145	1
1	26	1
95	95	2
105	129	1
93	133	1
18	20	1
20	22	1
44	73	1
52	85	1
63	95	1
120	121	1
3	5	1
7	92	1
92	96	1
94	110	1
35	38	1
30	31	2
78	80	1
94	119	1
47	47	2
100	101	1
32	129	1
115	141	1
154	155	2
12	25	1
24	128	1
127	140	1
39	75	1
120	127	2
135	144	1
22	50	1
80	80	2
40	45	2
116	147	1
17	20	2
70	158	1
17	39	2
68	89	2
116	116	1
23	24	1
117	132	1
108	124	1
22	23	3
77	87	1
40	42	1
108	148	1
111	135	1
153	154	1
121	145	3
103	140	1
33	33	1
89	91	1
87	88	3
39	42	1
87	91	1
12	29	1
139	152	1
52	54	1
82	83	1
49	68	1
19	33	1
35	37	1
75	99	1
31	44	1
21	21	1
92	97	1
76	108	1
120	151	2
1	100	1
10	11	1
73	75	1
134	137	1
91	92	1
44	45	1
104	120	1
28	100	1
118	122	1
5	121	1
38	46	1
10	18	1
7	40	2
42	109	2
67	70	1
32	35	1
106	131	2
149	150	1
124	142	1
41	51	1
41	42	1
28	36	1
123	134	1
132	148	1
124	127	1
70	155	1
89	110	1
15	36	1
98	138	1
98	150	1
133	134	2
116	119	1
84	110	1
61	61	1
50	66	1
139	151	1
148	149	1
114	114	3
107	112	1
26	89	1
42	70	1
24	30	1
112	127	1
49	50	1
90	135	1
30	30	1
72	73	1
0	1	1
53	55	1
108	116	1
106	112	1
38	44	1
9	15	2
130	157	1
43	44	1
24	44	1
69	139	1
79	136	1
92	131	1
