53	55	1
14	113	1
157	181	1
163	163	4
109	109	7
65	66	4
157	157	2
37	37	14
232	232	6
17	17	8
204	204	3
110	110	5
44	44	9
210	210	2
53	53	5
25	25	7
238	244	1
248	248	1
247	247	11
97	97	3
6	6	13
113	114	1
26	26	12
90	90	3
32	32	13
3	3	11
152	152	3
162	163	4
213	219	1
151	151	7
112	112	4
158	158	3
30	30	9
34	34	9
38	38	3
9	41	2
169	184	1
153	206	1
212	212	8
11	11	14
76	76	3
155	155	13
56	60	2
246	246	5
116	117	1
48	56	1
214	214	5
28	36	2
7	8	1
86	86	2
41	41	2
205	205	8
231	236	1
51	117	1
186	186	5
202	202	6
167	167	4
245	245	7
24	24	7
203	203	5
65	93	1
7	7	10
4	4	7
226	226	8
39	40	4
236	240	1
82	84	1
74	74	6
171	174	3
160	160	5
65	156	1
28	28	12
170	170	4
76	77	2
81	83	1
49	159	1
75	75	6
33	33	9
2	3	3
10	11	1
67	76	1
178	181	1
20	20	9
52	52	8
68	68	6
213	236	1
41	73	1
240	241	3
14	16	2
190	190	2
10	10	7
245	246	4
241	241	4
208	208	11
48	48	11
27	27	5
31	31	6
59	59	1
22	23	1
111	111	5
180	192	1
182	182	5
234	234	5
57	58	1
213	213	6
157	178	1
194	195	2
191	216	2
40	40	7
117	118	2
32	45	1
228	228	5
192	192	1
54	54	6
164	164	2
183	184	1
63	220	2
173	173	1
237	246	1
58	60	1
179	180	2
85	85	3
177	184	1
237	238	2
60	60	1
194	194	2
71	73	1
28	93	1
114	114	4
106	107	5
241	242	2
172	195	1
185	185	3
179	179	4
240	240	4
100	144	2
238	247	1
63	63	3
70	73	1
9	230	1
15	15	5
184	204	1
214	242	1
230	231	2
166	166	5
91	91	3
56	56	6
182	201	1
239	239	2
215	217	3
43	87	1
157	160	1
173	210	1
43	43	9
12	203	1
221	221	5
21	22	5
21	21	8
112	115	1
199	248	1
1	1	6
165	166	4
153	153	6
45	45	11
34	43	2
28	116	1
19	44	1
51	51	2
46	46	9
17	29	1
174	176	2
73	73	3
50	50	5
44	45	1
246	247	3
168	169	4
202	203	2
244	249	1
4	75	1
27	162	1
211	211	4
98	98	2
244	244	5
169	235	1
195	233	2
236	237	2
88	88	1
211	224	1
150	150	1
176	178	1
166	174	1
19	19	9
161	161	1
206	206	3
197	197	3
101	101	3
152	165	1
156	156	4
46	47	1
154	160	1
224	226	2
171	171	3
227	227	6
172	172	3
20	21	3
38	39	7
5	8	1
76	80	2
11	109	1
36	44	1
61	65	1
7	245	1
224	224	5
113	113	6
59	62	1
63	64	1
235	235	5
116	116	9
119	152	1
231	245	1
33	63	1
99	99	2
65	65	3
162	162	3
51	54	1
79	79	1
61	62	1
207	207	3
117	117	4
3	7	2
187	187	4
176	176	5
144	145	1
180	230	1
22	31	1
14	14	5
185	186	3
15	16	2
14	15	3
154	154	6
222	223	3
189	248	1
188	192	1
155	156	1
71	244	1
64	64	3
32	33	1
80	80	3
201	204	2
29	29	9
156	157	2
165	165	4
223	223	3
247	249	1
150	155	2
29	30	1
234	235	3
22	22	8
54	55	2
159	159	4
170	175	1
9	9	5
231	233	1
188	199	1
188	189	4
35	49	1
87	87	5
151	175	1
90	91	3
196	196	1
43	44	5
108	108	4
199	199	3
26	46	2
228	230	2
114	115	4
209	210	1
84	85	1
169	169	6
228	229	2
23	23	6
5	6	2
50	64	1
92	92	5
36	64	1
243	243	5
98	99	2
115	115	6
55	55	4
2	2	3
180	184	1
241	243	1
196	198	1
17	22	2
49	49	3
242	243	2
215	218	1
223	224	5
225	225	3
42	42	4
163	164	1
18	51	1
8	8	2
64	65	1
61	61	3
163	199	1
183	183	2
175	175	6
177	177	2
77	77	3
221	222	2
67	68	1
226	227	2
243	244	1
213	220	1
14	46	3
94	94	1
184	184	3
72	73	1
118	119	3
62	62	1
212	226	1
89	89	5
153	155	1
180	180	3
95	95	1
229	235	1
16	16	6
119	119	3
181	182	1
12	12	1
243	248	1
110	112	1
115	118	1
201	201	7
208	211	1
230	232	1
210	211	3
70	70	1
29	110	1
180	196	1
195	195	2
113	117	1
29	41	1
47	51	2
209	211	1
213	214	1
30	152	1
199	217	1
191	235	1
6	142	1
108	234	1
20	54	1
81	82	1
229	229	2
14	17	1
232	234	1
193	193	2
35	35	4
214	217	2
107	108	2
41	42	1
34	65	1
175	180	1
55	56	2
199	216	1
239	241	2
95	121	1
53	54	2
222	222	5
19	158	1
47	47	3
220	220	2
209	221	1
200	201	2
89	226	1
181	181	5
224	225	3
231	231	2
236	236	2
41	44	1
208	209	2
174	174	3
76	78	2
189	189	3
34	44	1
194	199	1
39	39	4
187	188	4
54	57	1
6	42	1
160	184	1
197	208	1
179	207	1
60	61	2
94	95	1
78	78	4
18	18	4
50	83	2
198	222	1
220	231	1
203	227	1
81	81	3
29	31	1
78	83	1
145	145	4
115	117	1
66	66	5
5	237	1
47	48	1
64	66	1
236	238	1
93	110	1
63	116	1
13	13	1
104	105	1
57	57	3
227	229	1
108	235	1
59	231	1
36	36	3
100	100	2
37	38	3
67	70	4
59	66	1
230	230	1
208	210	1
34	47	1
191	208	2
62	156	1
86	90	1
188	188	1
2	5	1
207	230	1
62	199	1
168	168	5
5	5	3
94	100	1
12	146	1
67	67	1
40	150	1
4	5	3
31	153	1
244	245	2
35	41	1
206	246	1
174	244	1
182	183	2
62	64	1
97	98	1
35	38	1
168	210	1
162	200	2
32	113	1
20	23	1
107	107	3
163	178	1
200	200	3
27	38	1
79	81	1
237	237	3
199	244	1
7	18	1
214	236	1
63	93	1
26	40	1
16	38	1
229	245	1
120	120	2
26	84	1
56	57	1
157	158	2
157	198	1
5	7	1
221	223	1
82	90	1
87	89	1
17	19	2
58	58	4
198	198	1
170	195	1
60	62	1
116	120	1
37	234	1
149	149	1
209	209	4
109	223	1
234	236	1
175	184	1
6	18	1
39	70	1
48	49	2
230	239	1
247	248	2
146	146	3
55	89	1
111	112	1
107	118	1
201	226	1
38	42	1
161	164	1
177	190	1
172	176	1
159	177	1
34	61	1
73	74	1
225	235	1
214	215	2
223	246	1
184	185	1
31	34	1
241	248	1
82	86	1
171	172	2
177	225	1
27	28	1
6	7	2
233	233	5
151	161	1
32	36	1
178	179	3
149	150	1
60	88	1
118	118	1
96	96	3
238	240	1
25	26	1
19	21	1
19	20	1
175	181	1
75	223	1
31	151	1
37	41	1
175	229	1
215	232	1
49	50	2
15	40	1
62	116	1
6	38	1
83	83	1
223	244	1
61	112	1
13	14	2
23	24	3
171	231	1
1	116	1
55	57	1
222	225	1
163	193	2
150	227	1
110	111	1
16	31	1
103	118	1
219	219	1
48	244	1
180	204	2
110	117	1
28	29	1
212	241	1
5	103	1
223	242	1
27	31	1
14	42	1
180	207	1
186	187	1
78	79	1
20	33	1
217	217	2
36	37	2
8	47	1
151	152	1
189	191	1
151	153	1
186	189	1
112	119	2
43	220	1
162	165	1
169	211	1
56	77	1
100	103	1
202	228	1
197	234	1
12	17	1
78	96	1
57	64	2
79	83	1
57	228	1
180	182	1
197	213	1
186	192	1
84	108	1
201	212	1
17	20	1
82	82	1
205	206	1
24	25	2
1	2	1
21	31	1
53	89	1
226	244	1
18	111	1
59	203	1
238	239	1
21	23	1
234	241	1
164	166	1
59	60	1
155	182	1
66	73	1
29	44	1
43	45	1
2	4	1
30	31	1
104	104	1
58	69	1
95	96	1
172	203	1
215	215	1
164	195	1
227	228	1
75	90	1
191	197	1
9	29	1
105	105	1
8	9	1
231	234	1
19	30	1
71	71	1
93	93	1
