16	16	2
52	53	2
6	6	2
144	144	8
2	2	1
167	167	1
2	138	1
133	152	1
11	12	3
14	15	3
170	170	3
74	76	2
24	25	1
10	53	2
63	65	1
136	151	1
124	124	3
74	79	2
36	36	3
50	51	2
159	159	4
142	142	4
70	70	2
120	120	2
18	18	3
37	37	3
63	64	1
51	51	1
38	40	1
166	166	1
112	113	1
143	148	1
98	99	1
102	102	2
9	11	2
116	116	2
43	43	4
35	35	4
47	47	2
67	67	3
17	17	1
7	7	1
111	111	3
43	44	1
138	139	2
53	53	2
9	48	1
129	129	4
4	4	3
155	156	2
96	96	4
106	139	1
93	97	1
11	11	4
104	104	2
150	150	3
131	131	3
136	137	2
40	40	4
87	89	1
47	49	4
143	144	1
7	11	1
154	164	1
40	41	1
83	104	1
91	91	2
74	75	1
119	125	2
107	108	2
156	156	2
103	126	1
105	105	1
117	117	1
122	122	2
28	28	5
25	26	1
154	154	2
38	39	1
85	85	1
64	65	1
164	164	2
57	57	1
145	145	1
0	0	1
114	114	5
26	26	1
68	68	2
50	50	1
122	129	2
22	23	1
160	161	1
15	43	1
34	35	1
138	138	2
103	103	1
95	96	1
18	19	2
138	148	1
2	28	1
1	34	2
157	157	1
73	74	1
37	43	1
24	65	1
9	9	2
109	110	1
46	46	2
139	140	1
16	35	2
86	86	1
109	130	2
161	161	3
5	157	1
92	114	3
132	132	1
42	42	2
98	98	1
95	95	1
157	158	2
119	119	1
91	94	1
158	158	3
71	71	2
6	7	4
140	140	1
45	45	3
131	137	1
68	70	1
143	143	3
148	148	3
63	71	2
169	169	1
1	1	1
115	125	1
7	56	1
139	141	1
3	3	1
154	156	1
5	5	4
126	126	3
110	110	1
10	11	1
7	10	1
123	125	1
19	19	2
123	123	2
162	162	1
122	123	1
14	14	2
93	94	1
69	69	2
83	83	2
62	62	1
76	77	1
134	156	1
64	69	1
88	113	1
158	159	1
136	156	1
84	91	1
2	21	1
105	117	1
38	38	3
125	153	1
81	112	1
2	6	1
108	109	1
87	87	2
13	13	3
160	160	2
88	88	1
163	163	1
128	129	1
82	101	1
137	137	2
153	153	1
12	25	1
152	152	2
15	17	1
168	168	3
136	159	1
94	102	1
144	151	1
109	109	1
134	134	1
130	131	1
151	152	1
138	157	1
152	154	2
159	170	1
63	74	1
146	146	1
125	127	1
82	82	1
14	25	1
127	127	1
81	82	1
74	74	1
23	23	2
81	81	1
56	57	1
125	125	1
112	112	1
91	115	1
53	54	1
58	58	1
58	69	2
41	42	1
97	97	1
94	115	1
48	48	2
144	157	1
150	151	1
90	130	1
109	112	1
18	162	1
9	10	1
64	66	1
48	49	1
137	143	1
17	27	1
152	153	1
16	17	1
80	81	1
135	158	1
15	15	1
169	170	1
84	85	1
155	155	1
110	111	1
3	6	1
27	28	1
