0	13	2
11	11	5
69	69	4
55	55	3
62	64	3
125	125	1
105	134	1
24	24	1
95	95	2
14	50	3
63	65	2
52	62	2
131	131	1
64	65	3
87	87	6
6	7	1
62	62	2
125	132	2
72	77	5
70	70	1
8	9	2
127	128	1
68	68	1
33	95	1
66	66	1
10	19	1
2	2	2
44	44	3
60	61	2
129	129	3
50	69	1
30	60	1
118	118	1
53	53	3
18	34	1
31	31	1
58	69	2
82	82	1
75	75	4
80	80	4
60	69	1
95	96	4
82	83	1
22	22	2
10	18	1
50	61	2
45	45	3
37	37	3
79	79	2
61	90	2
15	19	1
112	112	2
70	93	1
133	134	2
114	114	1
4	4	2
7	7	1
94	95	1
43	43	5
106	107	2
52	52	3
110	111	1
13	34	1
119	119	1
54	55	1
37	52	2
100	125	1
78	78	2
30	30	2
97	97	2
36	87	1
122	122	2
108	111	2
71	71	1
81	81	1
128	132	1
104	105	1
5	74	1
78	90	2
130	130	1
29	29	2
14	34	1
28	29	1
3	3	1
130	131	2
104	104	4
58	58	2
73	73	5
121	121	1
1	31	1
36	60	1
111	112	1
26	26	2
70	71	2
21	22	2
107	109	1
61	62	1
35	35	2
86	87	1
8	17	1
47	50	1
16	17	1
15	22	1
61	61	1
7	48	1
77	77	3
35	36	1
14	35	1
0	52	1
126	131	1
93	93	3
9	9	2
124	126	1
59	61	2
23	29	1
8	10	1
54	57	1
109	109	3
95	115	2
19	19	1
1	1	1
0	30	1
119	125	1
102	114	2
108	109	1
36	36	3
77	79	1
45	88	1
82	85	1
36	57	1
10	10	1
115	118	2
43	45	1
75	76	1
23	38	1
124	127	1
26	47	1
67	68	1
50	50	2
13	13	3
35	89	1
49	49	1
5	27	2
74	74	2
64	64	2
107	108	3
76	76	1
83	83	2
22	27	1
17	33	1
106	131	1
18	18	1
12	12	1
128	128	2
67	67	1
63	63	2
48	48	3
105	105	1
22	28	1
119	124	1
14	16	1
72	72	5
44	45	1
63	64	1
2	4	1
109	111	1
119	121	1
94	94	1
133	133	2
34	66	2
53	55	1
50	134	1
21	44	1
54	58	1
21	23	1
65	69	1
8	16	1
15	24	1
84	84	1
2	3	2
0	2	1
1	32	1
45	46	1
82	90	1
51	93	1
106	126	1
113	113	1
121	134	1
127	129	1
79	81	1
82	88	1
52	54	2
14	14	1
120	131	1
25	25	1
17	17	1
53	59	1
103	103	1
16	16	1
85	85	1
65	65	1
59	68	1
134	134	1
33	33	1
43	61	1
37	61	1
98	98	1
54	54	1
24	26	1
26	91	1
