30	30	1
56	56	3
119	120	2
127	129	2
98	99	2
63	64	1
16	16	5
6	6	4
84	86	1
61	62	1
77	77	2
60	63	2
92	92	5
122	122	4
118	118	2
107	111	1
29	31	1
50	52	1
2	2	2
41	41	2
0	0	1
105	105	1
28	29	1
45	45	1
133	133	4
70	76	1
54	93	1
67	67	2
40	40	3
130	130	3
119	121	1
114	114	4
96	107	2
114	117	1
120	120	4
70	82	2
71	71	7
72	90	1
4	15	1
46	46	2
94	94	4
71	72	2
87	87	1
111	112	1
53	53	2
23	24	1
13	13	2
109	110	1
26	26	1
89	89	2
58	61	1
66	118	1
2	4	1
53	54	2
80	80	1
119	119	2
92	116	3
78	78	4
76	77	3
22	22	1
48	48	2
24	25	1
129	129	2
62	62	1
113	125	1
8	8	2
113	131	1
108	108	2
95	95	5
34	34	1
96	103	1
49	49	3
8	9	1
12	12	1
79	79	1
112	112	3
75	75	1
52	52	3
68	71	1
107	107	2
98	98	2
101	102	2
31	31	1
116	116	2
45	118	1
47	48	1
124	124	1
101	106	1
58	58	4
124	125	2
100	130	2
47	47	4
80	108	1
125	125	1
75	80	1
61	66	1
43	43	2
41	43	2
109	109	2
24	24	2
59	59	1
103	103	2
27	27	1
113	113	3
125	126	1
101	101	1
97	98	1
65	70	1
90	91	1
12	62	1
127	130	1
32	67	2
25	25	2
31	32	1
69	92	2
126	130	2
57	57	2
45	46	2
66	67	1
102	102	3
76	83	2
86	107	1
121	122	3
95	96	1
115	115	1
74	76	1
10	12	2
92	105	1
3	5	1
91	93	1
40	72	1
79	81	2
79	80	1
85	85	2
62	75	1
115	116	1
126	127	1
58	63	1
23	32	1
14	14	2
104	104	3
92	107	1
49	113	1
76	76	1
41	62	1
121	121	2
49	124	1
10	10	1
15	15	1
92	114	1
73	86	1
46	47	1
126	126	1
70	70	1
63	63	1
114	115	1
114	118	1
92	94	1
15	19	1
33	33	1
117	117	1
94	116	1
117	124	1
102	105	2
0	1	1
31	33	1
78	81	1
89	92	2
65	65	1
23	23	1
100	101	1
19	19	1
25	26	1
117	118	1
99	99	1
27	28	1
39	39	1
106	106	1
40	41	1
7	7	2
44	44	1
82	82	1
69	71	1
83	102	1
98	131	1
39	40	1
15	32	1
125	127	1
6	58	1
16	22	1
57	58	1
113	114	1
88	88	1
50	50	1
59	60	1
1	1	2
29	29	1
50	51	1
125	131	1
46	100	1
