59	59	5
7	7	4
91	93	2
36	36	6
55	55	4
37	38	2
131	131	2
45	45	8
63	64	2
6	6	2
108	109	3
39	41	1
2	2	8
8	8	8
23	27	1
43	43	5
8	20	1
6	7	2
38	38	4
15	15	4
111	111	5
37	37	4
120	120	5
108	108	1
19	19	2
12	12	7
87	87	2
33	75	2
82	82	4
61	61	6
59	85	3
100	102	2
9	9	5
57	57	2
125	125	6
23	24	4
34	34	2
80	80	4
57	58	4
104	104	7
83	108	1
79	80	1
114	115	5
12	14	1
128	129	1
89	91	1
113	113	9
21	21	2
81	81	6
58	58	5
75	75	4
4	4	1
73	73	6
122	122	4
93	94	1
91	91	5
74	74	6
32	48	1
69	69	2
99	127	1
133	133	3
63	63	3
103	103	2
122	127	1
20	20	4
118	118	5
121	131	1
117	117	4
44	44	6
119	119	3
16	16	3
66	66	5
1	1	3
11	11	5
129	129	2
28	29	3
32	32	2
102	105	3
33	47	1
90	92	3
124	124	1
65	65	5
102	102	4
77	77	9
112	116	1
62	62	4
94	94	5
4	45	2
129	130	4
130	131	4
22	25	2
12	15	2
20	45	1
65	66	3
25	26	4
21	22	1
78	78	4
69	70	2
93	93	4
65	70	1
124	125	1
81	83	1
61	119	1
116	116	3
9	102	1
103	106	3
94	102	1
115	115	3
23	23	3
47	47	5
109	109	7
30	55	2
84	84	1
46	47	1
17	23	3
38	43	1
102	104	1
58	80	1
90	91	1
118	120	1
101	101	2
98	98	2
104	106	2
20	22	2
126	128	2
29	29	4
92	93	2
11	115	1
122	123	1
127	127	3
88	88	4
41	122	1
32	46	1
83	106	1
72	73	1
128	128	1
38	40	3
95	102	2
60	60	3
37	39	2
134	134	3
80	81	5
79	79	6
3	4	2
64	64	5
83	85	1
114	128	3
17	18	1
19	20	1
95	95	5
24	24	1
49	58	1
95	96	1
16	31	1
19	36	2
82	84	2
30	42	1
39	40	1
106	106	1
126	126	6
111	120	1
5	5	1
68	68	4
27	30	1
78	85	1
58	60	2
37	40	1
26	26	3
14	14	5
80	106	1
85	86	1
89	89	1
110	110	4
121	121	7
18	18	3
35	35	4
22	22	1
104	110	1
100	100	4
94	116	1
107	107	1
108	113	1
48	50	1
62	64	2
86	87	2
31	32	3
72	72	3
91	125	1
30	43	1
114	114	3
17	17	3
128	131	2
31	31	1
77	78	3
105	110	1
6	17	1
76	76	2
94	96	2
98	126	1
17	33	1
112	113	1
28	31	1
110	111	1
64	65	2
90	90	1
104	105	1
101	102	1
38	39	1
10	35	1
42	42	2
27	27	1
41	43	1
56	56	3
9	34	2
45	46	1
10	10	2
18	19	1
17	34	2
92	128	1
14	15	1
5	11	2
133	134	1
16	17	2
39	39	3
85	85	4
131	132	1
28	28	2
73	74	1
132	132	3
40	41	1
14	77	1
37	42	1
48	48	1
35	61	1
132	133	1
91	92	1
62	65	1
112	112	4
111	118	1
97	98	1
99	99	1
68	69	2
10	11	1
50	50	1
96	96	2
32	57	1
92	92	1
13	13	2
76	77	1
89	102	1
11	45	1
12	44	1
130	130	2
40	42	1
126	127	1
61	73	1
67	67	1
109	110	1
12	16	1
7	26	1
66	119	1
97	99	3
87	88	1
105	105	1
7	12	1
107	127	1
86	86	1
8	10	1
71	72	2
65	72	1
27	28	1
15	113	1
4	7	1
8	27	1
30	30	1
116	125	1
34	36	1
94	114	1
89	90	1
114	131	1
83	107	1
78	81	1
30	49	1
118	119	1
123	123	1
45	61	1
6	10	1
36	40	1
106	107	1
70	70	1
15	16	1
78	100	1
86	105	1
3	3	1
96	122	1
117	118	1
79	81	1
38	74	1
41	41	1
23	97	1
21	36	1
46	46	1
