189	191	1
5	5	6
168	180	2
36	36	3
195	195	3
120	121	1
40	40	4
184	186	2
7	7	5
108	109	1
187	187	3
126	126	3
82	84	1
35	35	5
13	13	9
196	196	2
8	8	5
15	15	4
0	23	1
156	156	5
28	29	3
3	8	2
155	159	1
181	188	1
5	33	1
37	193	1
52	52	3
46	46	6
69	69	2
186	186	3
12	15	1
33	36	3
128	128	5
27	192	1
26	34	2
189	189	3
43	44	1
197	197	3
40	41	3
56	56	1
34	34	3
64	64	4
14	14	6
183	183	2
114	115	2
0	6	1
7	8	3
97	97	2
10	11	1
130	130	1
172	173	1
134	135	2
11	12	2
85	86	2
13	33	1
10	10	9
103	108	1
135	135	3
18	20	1
30	32	2
49	49	3
158	159	2
13	32	1
153	158	2
11	11	5
30	30	2
169	173	1
110	111	2
57	57	4
165	165	2
98	112	1
41	41	6
17	17	4
87	87	2
6	6	12
95	97	1
54	54	1
157	157	2
22	22	3
76	76	1
48	48	4
98	119	1
37	37	2
182	182	4
17	20	2
4	4	6
42	46	1
148	150	1
38	38	6
11	23	1
6	7	2
56	58	1
39	39	4
105	105	2
133	133	3
167	167	1
194	195	1
55	114	2
28	28	2
151	151	5
16	16	5
72	72	3
169	169	6
29	29	3
192	192	4
168	168	2
102	106	1
170	171	1
173	174	3
7	176	1
3	23	1
124	124	5
113	117	1
20	20	5
95	96	1
162	163	1
187	192	1
149	160	2
26	26	5
137	152	1
21	21	5
43	195	1
194	194	6
17	36	1
47	47	5
174	174	1
41	68	1
149	149	5
178	180	1
15	37	1
18	25	1
33	34	2
141	169	1
121	122	1
26	35	1
35	37	1
27	28	2
32	32	5
193	193	3
15	22	1
67	103	1
159	161	2
112	113	2
2	2	4
68	69	1
18	35	1
158	158	1
188	189	1
182	183	2
3	4	4
191	192	1
186	187	1
148	148	2
33	37	3
178	179	4
108	108	1
147	147	7
15	16	2
116	116	2
47	48	2
27	30	1
154	159	1
177	177	2
60	60	1
110	113	1
30	31	2
18	18	5
184	185	1
24	42	1
120	136	1
120	151	2
17	24	1
0	4	1
163	164	2
0	0	5
170	170	2
11	43	1
97	111	1
65	66	1
50	50	3
31	31	4
9	14	2
88	88	1
190	190	2
26	27	1
117	117	1
2	3	1
27	29	2
159	160	3
98	99	1
164	166	1
33	33	8
160	160	3
134	134	3
69	70	2
166	177	1
19	26	2
16	39	2
175	175	3
68	68	3
171	171	4
151	155	2
24	24	2
44	44	3
116	118	1
172	172	3
46	196	1
191	191	3
2	162	1
43	43	4
150	150	2
16	26	1
90	90	2
118	118	2
1	2	2
19	19	5
3	34	1
180	180	3
144	145	1
45	45	6
117	118	1
26	29	2
140	140	2
133	156	1
179	180	1
89	116	1
145	145	4
100	101	1
3	3	3
12	12	3
59	59	2
120	139	2
41	42	2
50	51	1
65	96	1
53	53	4
99	100	1
33	178	1
82	82	1
176	177	3
172	177	2
182	184	2
141	141	3
131	131	2
4	6	1
145	146	2
89	89	7
17	18	1
158	169	1
111	111	1
81	84	1
11	31	1
10	25	1
176	178	1
0	1	6
53	55	1
122	123	1
127	127	2
34	36	1
125	127	2
58	58	1
121	121	2
30	35	2
62	63	1
119	160	1
70	70	2
178	178	2
163	163	2
143	144	1
100	182	2
164	164	2
31	61	1
21	25	1
179	179	1
97	98	1
8	11	1
9	9	4
181	189	2
13	14	1
192	193	3
18	22	1
105	110	2
161	162	1
28	30	1
14	185	1
154	154	1
167	193	1
176	176	2
119	122	1
23	23	5
157	191	2
138	138	2
106	107	1
102	102	2
154	176	1
65	86	1
29	85	1
81	85	1
71	72	1
161	166	1
146	146	1
7	68	1
185	186	2
166	166	2
14	171	1
24	184	1
44	51	1
162	172	2
25	26	4
64	65	2
16	32	1
60	74	1
53	57	1
186	193	1
13	42	1
15	17	2
20	21	3
14	186	1
101	102	1
162	162	2
169	194	1
42	42	4
96	113	1
61	151	1
107	107	4
24	26	2
83	83	1
4	5	1
71	73	1
0	2	2
84	84	1
98	98	1
105	106	1
85	85	1
126	127	2
119	119	1
44	45	1
59	61	1
73	79	1
188	188	4
139	140	2
17	191	1
180	182	1
51	54	1
11	32	1
1	6	1
113	113	1
2	18	2
117	119	1
78	78	1
70	71	2
142	142	4
96	96	1
183	184	2
143	143	2
166	167	3
173	173	1
51	81	1
22	34	1
139	141	1
195	197	1
136	136	3
152	191	1
1	1	3
185	185	2
107	114	1
98	106	2
13	15	1
190	191	1
48	50	1
152	193	1
136	142	1
20	22	1
109	110	1
157	158	1
99	99	1
114	114	1
101	115	1
76	77	1
74	74	1
172	175	1
173	178	1
137	140	1
150	152	1
33	98	1
12	13	1
22	29	1
146	148	1
84	93	1
38	39	1
160	164	1
152	152	1
39	40	1
8	20	1
116	117	1
108	111	1
9	142	1
104	106	1
55	55	1
109	109	1
11	40	1
181	181	1
39	41	1
67	68	1
101	101	1
77	78	1
40	177	1
181	182	1
132	135	1
101	105	1
80	81	1
25	25	1
18	19	1
55	57	1
53	54	1
2	26	1
193	194	1
125	154	1
19	22	1
123	123	1
155	156	1
87	135	1
78	98	1
14	16	1
137	138	1
11	41	1
32	33	1
195	196	1
27	31	1
42	43	1
171	187	1
104	104	1
1	28	1
46	47	1
138	139	1
16	153	1
88	89	1
