57	57	2
81	83	1
120	122	1
74	75	2
37	39	2
20	22	4
21	33	1
101	101	1
28	32	1
129	129	3
72	75	1
41	42	1
127	131	1
119	126	1
14	14	1
66	90	2
29	29	2
79	88	1
124	130	1
70	110	1
106	108	1
56	59	2
114	122	1
57	62	1
45	50	1
84	86	1
127	129	1
16	16	3
74	106	1
112	112	2
7	16	1
12	12	6
33	36	2
127	127	1
98	107	2
86	86	1
104	116	2
117	123	1
112	126	1
10	14	1
86	102	1
79	80	1
13	18	1
40	45	2
59	72	1
64	65	2
119	121	1
119	125	1
30	36	1
111	111	2
76	79	2
93	100	2
118	118	1
92	99	1
59	64	1
67	76	3
26	30	1
74	85	1
104	124	1
87	93	1
27	28	2
64	82	1
124	124	3
11	15	1
32	32	2
113	114	1
92	92	1
68	70	1
56	56	1
131	134	1
78	78	3
72	77	1
21	23	1
33	38	1
119	123	2
80	90	1
19	19	1
132	132	1
14	17	1
91	95	1
130	134	1
43	43	1
13	21	1
71	72	1
90	91	1
31	31	1
58	58	1
78	82	2
6	7	1
122	123	1
66	70	1
123	123	4
31	42	1
18	47	1
35	38	1
111	114	1
42	48	1
113	113	1
11	11	1
11	25	2
94	94	1
103	123	1
24	26	1
68	69	1
85	88	1
12	42	1
103	114	1
64	64	1
27	27	1
72	76	1
36	47	1
33	39	1
57	70	1
68	74	1
18	19	2
95	95	1
6	8	1
83	88	1
7	7	1
36	42	1
2	37	1
133	134	2
97	105	1
34	65	1
117	117	1
105	107	2
7	34	1
93	95	2
9	19	2
10	12	1
23	29	1
66	92	1
10	17	1
66	74	2
69	73	1
96	100	1
42	42	2
2	7	1
121	125	2
7	30	1
116	116	1
86	90	1
130	130	1
2	5	1
75	85	1
13	13	1
101	124	1
72	78	1
129	133	1
132	133	1
68	68	1
44	46	1
123	124	1
26	26	1
8	10	1
110	110	1
30	32	1
78	80	1
75	76	1
112	119	1
128	128	1
2	3	1
33	33	1
100	110	1
46	48	1
27	29	1
81	99	1
126	126	1
21	27	1
4	21	1
17	17	1
111	113	1
129	132	1
70	71	1
106	111	1
69	90	2
37	43	1
2	8	1
19	49	1
113	118	1
100	100	1
40	40	1
113	115	1
117	119	1
33	34	1
98	101	1
60	84	1
79	119	1
76	81	1
56	61	1
93	128	1
122	124	1
