146	147	1
91	91	4
138	138	2
16	42	1
26	48	1
144	144	3
128	155	1
33	35	2
16	17	2
116	164	1
127	127	2
78	78	2
82	82	1
93	93	1
106	106	2
32	52	1
171	173	1
137	156	3
46	47	1
130	130	6
73	90	2
36	37	2
115	115	3
166	166	2
65	66	1
27	31	2
159	166	1
77	82	1
143	165	2
93	94	3
73	113	1
184	184	1
18	18	2
77	77	3
76	76	1
122	125	1
41	41	1
64	64	3
140	140	2
180	181	2
134	162	1
119	119	1
182	182	1
15	16	1
15	26	1
25	25	5
36	63	2
83	83	1
102	102	2
134	134	2
22	23	2
173	173	3
101	101	3
111	111	4
89	120	1
118	118	3
109	109	2
33	33	4
63	63	1
121	122	1
72	73	1
8	8	2
96	97	2
88	88	2
159	159	2
84	84	5
62	63	1
180	180	1
107	107	1
9	58	1
104	104	2
100	100	4
32	32	2
57	57	2
153	153	1
108	108	2
52	52	4
129	129	5
68	68	3
59	59	2
145	174	2
4	5	1
146	146	2
13	14	1
81	123	1
148	148	1
42	57	1
26	37	1
83	84	2
45	45	1
5	6	1
40	40	2
56	56	2
35	35	1
79	104	1
5	5	3
92	92	1
79	147	1
68	93	1
112	112	1
111	141	1
113	113	2
20	20	1
152	170	1
10	12	1
21	42	2
23	23	2
85	86	2
76	77	1
44	59	1
160	161	1
10	13	1
62	64	1
93	104	3
167	167	1
150	156	1
130	139	1
47	47	1
141	142	1
78	80	1
110	110	2
53	84	1
107	154	2
188	189	1
147	147	1
126	127	1
73	131	2
154	154	1
13	15	1
0	0	2
38	38	1
15	15	2
37	38	1
177	177	3
109	110	1
171	171	1
28	30	1
117	117	1
70	70	2
39	40	1
157	157	1
155	164	1
2	2	2
156	156	1
87	188	1
142	142	1
160	160	1
25	145	1
11	12	1
152	152	1
106	107	2
129	132	1
176	176	1
145	145	1
1	1	1
53	54	1
163	163	1
84	85	1
139	139	1
1	2	1
13	13	2
107	149	1
183	184	1
138	139	1
118	128	1
185	186	1
94	114	1
81	81	1
6	6	1
155	155	1
26	89	1
122	122	1
80	82	3
57	58	1
92	93	1
15	53	1
90	90	1
65	65	3
58	59	1
19	19	1
117	118	2
14	14	2
48	48	1
183	183	1
131	131	1
55	55	1
174	183	1
114	126	1
158	158	3
156	190	1
108	135	1
166	167	1
113	130	1
185	185	1
70	71	1
174	175	2
137	137	2
158	159	1
63	66	1
179	179	1
66	66	1
128	128	1
90	101	1
123	123	2
49	87	1
178	180	1
16	16	1
57	84	1
74	74	1
19	69	1
70	72	1
145	168	1
189	189	1
97	98	1
