68	69	1
34	34	6
3	3	6
145	147	2
111	111	4
139	139	2
148	149	2
2	2	5
103	104	1
5	5	5
19	19	2
14	14	1
72	73	1
27	106	1
47	47	4
39	71	1
9	9	5
143	143	2
11	11	6
64	64	2
109	110	1
71	82	1
144	145	2
1	1	4
35	35	3
130	130	4
160	161	1
53	57	1
148	148	10
84	84	7
168	170	2
51	51	3
133	133	3
90	90	1
113	113	2
81	81	1
10	91	1
164	164	3
106	106	4
155	155	4
76	79	2
137	143	1
139	140	3
131	131	5
18	18	4
12	13	1
117	117	1
46	48	1
28	28	1
42	42	4
63	63	2
140	164	1
119	130	1
18	49	2
63	65	1
107	108	4
100	100	4
41	42	1
168	168	4
158	158	2
158	161	1
169	169	2
102	123	2
46	46	2
73	125	1
145	145	2
7	11	1
100	107	2
113	156	1
167	167	1
135	135	4
39	40	4
149	149	3
82	84	1
77	77	3
56	56	3
16	16	4
5	16	1
4	6	1
120	121	1
55	55	2
110	110	8
159	161	1
14	27	1
159	160	3
27	27	4
39	39	6
161	161	2
42	44	1
49	100	2
151	157	2
126	127	3
99	100	2
147	147	3
145	146	1
103	103	1
64	67	1
17	18	1
146	146	3
141	141	1
159	159	2
140	141	1
109	109	1
98	98	4
91	91	2
105	105	3
134	134	2
20	21	2
0	0	5
63	64	2
160	160	6
73	73	1
9	67	2
118	118	2
23	23	1
22	22	3
128	129	1
14	16	1
127	127	2
80	80	2
38	89	1
44	44	3
49	49	2
4	16	1
114	114	2
34	35	1
28	38	1
76	76	2
166	166	4
144	144	8
40	40	3
115	115	3
99	99	3
43	53	1
17	17	4
157	157	1
132	132	2
153	153	4
42	43	2
83	88	1
79	79	2
24	46	1
149	163	1
15	16	1
110	111	1
89	106	1
131	145	1
41	43	2
164	165	1
42	111	1
76	80	1
21	22	1
168	169	1
143	146	1
151	163	1
68	68	1
40	41	2
106	108	1
78	95	1
100	101	1
101	102	1
96	96	2
39	42	1
105	106	1
108	108	3
163	164	2
0	56	1
87	87	1
156	156	2
134	135	1
55	66	1
151	151	3
45	45	4
143	144	3
1	25	1
78	78	1
88	102	1
52	52	3
132	153	1
4	4	4
7	8	2
91	92	1
136	149	2
43	43	7
24	24	3
97	97	1
139	141	1
140	147	1
71	126	1
136	136	3
149	153	1
22	23	1
170	170	1
124	124	2
13	14	2
133	148	1
102	103	2
106	107	2
48	48	2
0	21	1
85	85	1
15	15	1
74	112	2
18	19	1
33	33	3
86	86	1
19	23	2
118	119	2
88	89	2
26	28	1
125	159	1
55	56	1
64	68	1
88	136	1
151	153	1
44	45	1
131	152	1
69	69	3
135	139	1
34	36	1
77	79	1
13	15	1
37	37	1
50	50	3
154	156	1
145	155	1
142	142	1
140	140	1
95	95	3
162	162	4
165	165	2
48	50	2
129	130	3
40	43	1
2	3	1
71	80	1
163	163	2
152	152	1
36	36	5
36	89	1
38	38	1
83	83	2
149	150	1
130	131	1
122	123	2
105	112	1
101	101	2
129	129	1
50	163	1
162	166	2
20	47	1
13	13	3
88	88	2
47	48	1
62	62	2
157	158	1
70	71	1
107	107	1
120	120	4
117	131	1
145	156	1
89	89	2
123	125	1
6	6	1
26	26	3
38	43	1
11	12	3
25	25	2
16	74	1
12	12	1
10	10	1
82	83	1
63	66	1
4	7	1
17	21	1
19	20	1
21	23	1
8	8	2
89	90	1
75	75	4
158	159	3
27	44	1
6	24	1
51	74	1
166	167	1
127	129	1
140	142	2
82	82	1
70	77	1
161	164	1
131	133	1
54	54	1
2	52	1
131	159	1
47	49	1
153	154	1
123	140	1
47	50	1
45	52	1
91	99	1
118	127	1
116	116	1
38	39	1
132	140	1
0	7	1
14	15	1
2	5	1
101	104	1
5	6	1
155	156	1
92	100	1
62	64	2
41	41	1
45	71	1
47	64	1
126	128	1
7	10	1
160	170	1
37	38	1
66	66	1
94	96	1
129	156	1
72	72	1
1	38	1
92	92	1
150	169	1
84	85	1
126	126	1
137	137	1
75	77	1
142	153	1
165	166	1
42	64	1
152	155	1
65	65	1
64	69	1
7	7	1
