112	112	2
75	77	1
68	70	1
126	126	3
11	33	1
9	9	1
119	124	1
139	140	3
116	119	1
66	66	4
95	98	2
60	65	1
121	131	1
123	125	2
138	138	2
29	29	3
86	86	1
52	54	1
10	14	2
114	139	2
121	125	1
48	49	1
21	23	2
73	80	1
60	63	1
87	123	1
77	77	1
72	124	1
114	131	1
97	120	1
38	39	1
24	24	1
92	102	4
83	86	1
109	113	3
106	107	1
63	63	2
32	35	1
80	84	1
83	85	1
95	97	2
100	101	1
50	58	1
106	108	2
20	22	1
110	119	1
81	112	1
71	73	1
125	126	2
83	122	2
55	55	1
58	58	1
74	83	1
35	35	1
107	129	1
1	1	1
47	50	1
100	108	1
22	26	1
122	122	1
109	118	1
23	23	2
129	130	1
114	122	1
22	25	1
63	64	1
82	88	1
64	64	2
65	68	1
106	106	1
22	22	3
81	81	1
4	8	1
17	17	2
85	85	1
87	92	2
14	16	1
57	85	2
60	94	1
69	71	1
20	20	1
108	146	1
128	130	1
76	76	3
142	143	2
127	127	2
116	116	2
93	95	1
74	77	2
107	108	2
22	28	1
23	25	2
31	33	1
65	93	1
68	68	1
25	26	2
111	112	1
32	33	1
24	27	1
21	36	1
64	71	1
129	142	1
131	131	3
83	83	3
87	87	2
80	83	2
19	19	1
139	142	1
95	114	1
59	60	1
48	48	2
67	68	2
117	118	1
100	103	1
36	36	2
9	10	2
27	38	1
10	10	1
1	2	1
119	121	2
127	130	1
136	137	1
115	116	1
139	145	1
0	0	2
18	19	2
135	139	1
84	86	2
35	37	1
69	69	3
133	133	1
30	33	1
25	30	1
105	105	1
105	138	1
97	101	1
94	100	1
130	130	2
86	87	1
53	53	1
35	39	1
67	74	1
8	9	1
113	116	1
48	59	2
54	55	1
33	43	1
2	5	2
50	62	1
99	102	1
8	8	1
15	16	1
125	133	1
71	104	1
39	40	2
39	39	1
71	75	2
58	60	1
18	21	2
85	102	1
137	139	1
50	50	2
102	103	2
64	72	1
76	78	1
87	117	1
68	69	1
86	89	1
113	114	1
123	123	2
134	134	1
51	55	1
34	37	1
57	57	2
12	12	1
85	98	1
29	37	1
111	113	1
47	58	1
96	98	1
60	60	1
1	19	1
54	71	1
111	111	1
113	113	1
133	134	2
123	134	1
3	6	1
70	75	1
40	40	1
109	111	1
69	70	1
89	90	1
28	32	1
132	135	1
117	117	1
29	31	1
108	108	1
89	98	1
94	94	1
134	135	1
109	109	1
16	22	1
56	63	1
39	55	1
81	85	1
126	127	1
30	30	1
141	141	1
140	144	2
1	3	1
37	42	1
21	21	1
85	104	1
125	125	1
123	139	1
81	82	1
96	96	1
64	66	1
31	36	1
25	27	1
102	102	1
133	136	1
110	142	1
28	31	1
111	115	1
88	88	1
113	115	1
128	129	1
140	143	1
84	91	1
99	144	1
133	135	1
38	38	1
13	16	1
6	6	1
57	71	1
93	112	1
125	129	1
