107	107	5
57	58	9
71	71	17
79	79	14
84	85	8
122	122	14
29	29	10
127	127	10
72	72	24
64	64	15
61	79	1
87	93	1
57	57	7
74	104	2
43	44	6
16	16	13
14	14	7
30	30	14
0	1	5
111	111	9
91	91	8
70	71	2
92	92	8
75	75	18
11	11	9
35	116	3
31	34	2
83	83	10
59	59	12
33	34	5
70	70	17
5	5	8
46	46	1
81	81	9
2	2	11
93	102	2
24	24	7
3	7	3
90	92	2
5	6	1
125	125	9
21	22	5
69	82	1
73	73	16
86	87	4
50	60	1
59	60	3
71	86	1
1	1	21
12	12	12
56	58	2
95	96	2
60	61	8
2	12	1
23	25	2
116	116	5
15	34	1
68	91	1
62	64	1
68	68	16
23	23	7
54	54	4
82	82	11
55	91	2
69	70	2
65	70	3
47	51	1
95	98	1
13	14	4
74	74	12
122	124	2
64	96	1
119	119	4
3	3	10
15	18	2
54	55	4
105	105	5
84	84	13
78	78	17
77	86	1
19	28	2
113	113	7
77	77	15
22	22	8
128	128	2
90	90	8
28	28	7
80	114	1
61	61	10
110	110	4
116	121	1
43	43	10
15	21	1
130	130	7
69	69	16
15	15	8
6	9	2
7	34	1
13	13	11
124	133	1
49	49	8
45	45	12
69	71	1
36	36	7
126	126	9
103	103	8
133	133	7
61	65	3
116	119	3
7	7	7
27	28	2
50	50	18
63	78	2
32	70	2
79	80	6
60	62	2
88	119	1
32	33	3
108	109	5
86	86	13
111	112	4
108	108	6
0	0	8
77	78	6
44	44	19
103	104	1
121	123	1
112	112	6
4	4	17
34	35	3
30	31	2
34	34	10
98	101	1
95	105	1
58	58	11
19	19	11
20	20	11
44	81	3
102	102	10
21	26	1
124	125	4
100	100	5
8	9	1
65	93	2
48	48	9
106	108	4
16	44	2
71	94	1
11	12	2
28	29	3
95	95	7
135	135	2
119	121	1
77	84	1
98	98	10
124	124	10
125	133	2
114	114	6
53	53	17
63	68	3
24	26	2
96	126	1
62	62	11
59	77	1
97	111	1
8	8	7
31	31	6
126	127	1
85	85	14
129	129	4
106	114	1
18	18	4
37	38	2
33	33	10
94	94	10
45	74	1
78	83	2
80	81	6
89	89	3
24	25	4
124	126	1
2	3	2
111	113	1
60	60	8
121	121	13
27	27	8
45	51	2
82	83	6
120	120	8
12	13	1
87	87	15
52	52	8
80	80	15
32	32	4
66	66	4
109	109	8
26	27	3
91	92	3
131	131	6
27	75	2
10	10	8
82	94	5
48	52	2
76	96	1
65	65	7
55	55	4
110	111	1
96	96	8
115	115	4
134	134	4
132	133	3
7	35	2
22	23	6
71	95	1
70	87	1
71	80	4
36	56	1
22	52	1
132	132	3
37	37	8
23	24	2
55	62	1
74	100	1
28	81	2
104	104	5
16	30	4
67	69	2
63	64	2
112	114	1
117	117	4
101	101	10
35	35	11
130	131	1
63	63	8
55	58	2
89	90	2
102	104	1
80	96	1
54	116	1
55	56	4
66	70	1
4	5	3
56	56	5
115	116	3
25	25	7
58	61	1
50	52	1
114	115	6
88	113	1
10	17	1
60	65	1
52	62	2
35	38	2
15	22	3
9	91	1
36	37	2
131	132	2
47	126	1
17	18	3
95	100	1
67	67	9
29	49	1
133	134	1
25	53	1
65	66	1
127	128	5
12	95	1
89	94	2
88	88	2
44	49	1
97	97	2
38	77	1
63	65	1
68	69	1
123	123	6
29	74	2
3	5	2
18	21	2
16	36	1
69	85	1
6	38	1
72	73	2
21	21	9
76	76	9
69	76	1
17	17	3
57	78	1
66	68	4
42	59	1
62	63	2
30	98	1
38	38	3
50	62	1
116	117	1
104	105	1
7	8	2
56	83	1
4	6	1
3	4	5
60	64	1
26	90	1
16	17	2
93	93	10
109	110	2
52	60	2
11	14	1
30	32	3
13	98	1
42	50	1
62	65	1
81	102	1
82	84	1
106	106	2
93	95	1
22	24	2
64	65	5
117	118	1
122	123	4
9	9	6
99	99	8
76	111	1
43	62	2
15	63	2
55	57	1
48	102	1
15	24	1
118	118	3
4	15	1
47	74	1
90	111	1
31	45	1
7	62	2
6	6	1
50	59	1
28	92	1
43	75	1
62	111	1
112	113	3
74	81	1
15	16	3
58	70	1
85	86	2
77	79	2
61	128	1
19	20	3
71	76	1
9	10	3
26	26	9
61	62	4
12	34	2
44	71	1
24	38	1
118	129	1
83	84	5
14	15	1
23	64	1
47	47	4
107	109	1
52	53	3
109	113	2
56	57	4
44	47	1
94	111	1
76	77	2
6	7	2
44	45	2
31	32	2
14	31	1
114	130	1
113	114	3
74	75	2
76	80	1
33	35	2
78	79	3
101	105	1
88	89	1
79	108	1
61	63	2
33	44	2
96	97	1
102	134	1
16	29	1
75	121	1
127	129	2
91	93	2
64	85	1
14	27	1
119	120	4
105	106	2
42	52	1
108	114	3
3	13	1
53	54	1
84	90	1
97	130	2
113	119	1
119	123	1
60	88	1
43	71	1
0	7	1
1	30	1
16	31	1
57	65	1
107	111	1
115	119	3
47	49	1
8	11	1
25	26	2
53	77	1
109	111	1
75	76	1
50	64	1
57	62	1
7	11	1
29	30	1
93	94	1
15	70	1
9	11	2
70	72	1
62	91	1
65	85	1
65	71	1
70	93	1
35	44	2
90	91	1
100	101	1
42	43	1
92	126	1
21	86	1
94	95	2
68	85	1
1	14	1
75	129	1
36	38	1
61	97	1
76	79	1
101	119	1
104	106	1
77	92	1
60	111	1
25	30	1
83	108	1
113	122	1
65	79	1
13	32	1
31	33	1
92	96	1
66	69	1
128	130	1
18	22	2
115	118	1
76	97	1
38	44	2
120	121	1
20	24	1
76	103	1
54	57	1
17	30	1
106	119	1
58	60	1
79	81	2
28	34	1
11	16	1
0	13	1
74	80	1
59	61	1
123	125	1
106	112	1
52	58	1
30	47	1
62	69	2
30	61	1
0	3	1
47	48	2
92	93	1
125	126	1
87	88	2
62	75	1
65	68	1
95	128	1
12	14	1
17	22	1
56	59	2
43	47	1
66	67	1
72	88	1
27	78	1
131	133	1
79	119	1
15	121	1
21	29	1
80	121	1
1	3	1
29	67	1
106	107	1
97	112	1
60	66	1
121	127	1
67	78	1
107	108	1
45	46	1
10	19	1
78	86	1
52	87	1
123	124	1
94	101	1
43	65	1
5	17	1
14	78	1
102	103	1
54	56	1
8	20	1
80	108	1
47	104	1
80	87	1
4	31	1
83	87	1
21	24	1
18	19	1
63	86	1
27	32	1
64	68	1
34	105	1
18	27	1
55	69	1
79	92	1
20	21	1
1	101	1
75	79	1
114	129	1
21	44	1
37	39	1
43	50	1
70	88	1
72	102	1
45	50	1
32	51	1
116	118	1
49	50	1
53	68	1
49	82	1
67	85	1
69	106	1
70	73	1
13	15	1
81	82	1
119	124	1
