59	60	1
1	6	2
175	176	3
205	210	4
34	35	5
68	71	1
180	180	5
215	215	10
243	243	5
107	107	3
110	228	1
49	49	8
244	244	5
146	153	1
220	227	1
223	231	1
239	239	5
71	71	5
174	174	4
47	48	2
181	220	1
23	23	15
213	213	4
201	201	6
42	232	1
17	17	8
170	170	6
246	246	6
14	15	5
214	214	10
171	171	7
118	120	3
145	149	1
43	52	1
172	172	5
115	115	4
99	99	6
97	97	9
65	65	5
31	31	4
32	32	6
222	222	12
101	104	2
238	240	3
211	221	2
159	159	8
197	199	1
233	233	5
206	206	6
202	203	3
15	38	2
29	226	1
221	221	9
188	220	1
93	93	5
175	175	10
161	169	1
1	1	7
162	162	8
177	198	1
176	182	1
189	189	4
66	66	7
216	217	2
9	9	17
18	24	1
53	54	3
114	114	5
191	191	6
186	186	8
153	153	2
209	209	16
6	6	7
14	17	1
75	75	1
173	173	9
28	31	1
19	19	6
183	184	3
207	208	3
12	21	1
199	199	10
93	98	1
87	87	2
184	184	9
62	63	3
38	41	2
24	203	1
50	50	6
223	223	12
200	201	1
8	9	4
163	163	5
229	244	1
89	89	8
43	43	6
33	34	2
90	90	8
222	223	2
12	12	10
164	165	2
225	225	9
56	73	1
56	83	2
36	37	5
27	28	4
202	202	7
196	197	2
56	56	4
108	108	6
62	62	5
115	116	3
11	38	1
152	152	8
197	197	12
167	231	1
71	73	2
38	204	1
72	76	1
224	224	4
177	182	1
189	201	1
21	21	4
15	15	7
82	84	2
212	212	9
63	63	4
58	58	2
48	56	1
39	39	5
95	115	1
198	198	4
228	231	1
197	200	2
52	64	1
38	62	2
226	227	1
195	220	1
3	4	4
48	55	3
18	18	9
82	82	5
216	239	1
47	47	7
42	42	10
54	59	1
160	160	5
7	7	9
168	168	6
96	98	1
34	37	2
243	244	4
221	223	3
203	210	1
57	58	1
47	58	2
212	233	1
242	242	8
232	232	6
55	55	5
191	192	3
177	177	7
79	80	3
49	50	2
181	181	15
49	55	1
118	118	7
150	150	8
212	221	2
38	44	1
20	33	1
29	29	4
104	107	4
149	158	1
183	183	11
211	211	2
216	216	5
234	236	1
190	190	6
165	167	1
106	106	3
29	35	1
186	193	1
38	38	10
88	88	5
65	69	1
169	169	9
106	107	3
51	51	4
230	233	1
162	165	2
84	84	3
68	97	1
15	21	1
165	165	3
34	34	7
27	27	5
237	240	1
85	207	1
4	6	1
40	40	2
192	199	1
210	210	3
187	197	2
38	77	2
72	73	4
193	193	7
76	77	3
36	36	4
224	235	1
47	147	1
33	40	1
86	159	1
98	98	4
51	59	1
182	182	5
4	4	2
90	91	2
24	24	8
220	220	7
202	209	1
175	181	1
56	57	1
228	228	5
201	225	1
235	235	3
81	83	1
102	102	5
90	98	2
160	167	2
182	183	2
10	21	1
182	185	1
240	240	6
8	8	6
19	26	1
37	37	5
53	207	1
60	60	3
215	217	2
25	25	5
168	173	1
217	217	5
111	111	5
57	57	3
67	67	3
181	182	2
203	203	7
145	155	1
234	235	1
167	213	1
201	211	1
0	5	1
77	78	2
234	234	8
184	217	1
204	204	11
176	178	5
168	171	1
215	233	1
218	218	4
68	68	6
230	231	2
172	181	2
55	61	1
0	0	2
177	199	1
35	35	2
18	20	2
244	245	3
9	11	2
207	207	4
179	180	4
112	113	3
23	33	2
55	187	2
74	74	7
170	186	2
54	57	2
212	213	4
99	100	3
50	56	1
100	102	1
165	166	6
181	189	3
187	188	3
176	179	1
31	90	2
200	200	4
185	201	1
3	3	5
31	32	1
93	96	2
175	211	1
237	242	2
116	116	5
61	65	1
167	174	1
208	208	9
245	245	5
219	220	2
106	109	1
56	178	1
237	237	8
178	190	2
214	221	1
209	210	3
11	12	4
224	226	2
188	190	1
40	156	1
91	91	4
239	243	1
187	189	1
248	248	6
175	177	2
5	6	1
22	23	4
174	177	2
4	5	1
185	186	6
30	30	9
187	187	3
8	26	1
23	40	1
211	233	1
186	188	1
157	158	2
20	20	11
78	81	1
99	105	1
113	113	5
78	78	4
169	197	1
109	109	5
230	236	2
205	205	5
233	234	3
28	28	7
52	56	1
91	111	1
231	236	2
119	120	1
155	155	6
230	238	1
33	62	1
183	186	1
236	236	6
2	6	2
215	216	2
73	76	1
173	213	1
207	223	1
166	166	4
38	39	6
91	95	2
109	114	1
110	110	5
186	197	2
28	226	1
31	205	1
185	185	3
240	241	1
220	221	1
102	104	1
228	230	1
145	145	2
16	39	1
235	244	1
195	195	3
168	174	2
77	77	3
92	92	4
228	229	3
117	118	3
69	107	1
84	114	1
180	184	2
18	27	1
192	193	5
69	70	4
176	201	1
153	157	2
157	159	1
93	100	1
83	100	1
73	74	3
192	192	5
213	215	2
119	119	2
174	197	1
4	227	2
229	236	2
164	164	5
238	238	9
84	86	1
230	230	5
18	19	3
33	33	3
24	25	1
96	106	2
44	44	11
64	66	1
150	162	1
1	2	3
217	237	1
214	231	1
239	241	2
109	112	2
224	228	1
66	208	2
116	120	2
185	221	1
5	236	1
112	117	1
46	54	1
54	54	7
94	95	3
241	242	3
19	21	4
197	203	1
224	225	2
82	83	6
237	238	1
30	42	2
86	93	1
63	249	1
43	93	1
241	241	14
229	237	1
48	49	1
216	243	1
76	76	5
54	55	4
209	213	2
104	106	1
214	218	1
14	14	6
59	59	8
90	146	1
44	202	1
191	193	2
50	57	1
37	42	1
101	117	1
22	22	4
168	170	1
80	229	1
118	119	3
66	67	1
80	80	5
218	221	1
99	117	1
206	209	1
68	69	4
71	72	1
89	98	1
61	61	2
74	82	1
196	200	1
204	205	2
156	156	5
179	179	3
225	232	5
2	3	2
54	58	1
39	64	1
41	42	3
227	227	4
188	189	2
247	247	8
196	196	3
117	117	3
212	217	1
89	90	2
43	44	2
173	174	1
36	45	1
85	86	2
219	219	8
230	234	1
178	178	7
168	176	1
41	41	7
198	204	1
188	188	3
226	231	1
81	84	1
232	233	1
118	145	2
169	171	2
95	95	4
67	68	2
41	231	1
10	10	3
2	7	2
46	47	2
69	69	4
170	185	1
112	112	10
29	30	2
45	45	10
206	207	2
239	240	1
208	209	2
73	104	1
16	53	1
170	171	3
63	67	1
163	166	1
167	167	4
12	15	1
156	158	2
222	224	1
62	71	1
190	196	1
155	156	1
168	187	2
151	151	3
41	232	1
75	76	1
11	26	1
83	87	2
91	92	5
243	246	1
5	218	1
6	45	1
215	221	1
93	94	3
103	103	1
81	81	2
97	99	1
202	227	1
89	95	1
145	147	1
197	198	3
171	173	1
246	249	1
53	53	6
178	191	1
192	218	1
217	218	1
223	228	1
231	233	1
192	200	1
146	147	1
219	223	2
241	243	1
181	193	1
57	71	1
146	146	2
15	16	1
231	231	4
205	206	1
213	216	2
108	109	1
154	154	4
105	106	2
83	85	1
73	73	3
166	184	1
184	186	3
110	111	6
96	96	4
114	115	6
53	58	1
226	226	8
235	239	1
92	94	1
55	65	1
56	82	2
101	101	3
63	64	1
61	66	1
182	184	2
236	243	1
94	94	4
9	10	1
86	86	3
69	78	2
34	54	1
231	234	2
32	235	1
49	61	1
219	237	2
225	226	2
68	78	2
103	107	1
202	243	1
52	54	1
54	85	1
180	190	1
38	48	2
161	166	1
15	18	1
229	229	13
201	204	1
52	52	5
166	167	1
97	178	1
38	213	1
80	100	4
16	16	4
72	75	1
202	204	3
92	95	1
49	75	1
168	172	2
44	45	1
218	219	2
15	19	2
34	202	2
186	187	1
226	234	1
61	62	1
5	5	3
100	100	4
22	24	1
177	181	1
33	58	1
163	164	1
212	220	1
24	26	2
31	161	1
167	212	1
161	161	3
35	245	1
40	212	2
95	106	1
100	101	1
14	16	1
166	191	1
90	108	1
70	70	3
116	162	2
87	89	2
65	66	2
39	41	1
182	189	1
60	61	1
237	239	1
80	88	2
77	87	2
234	247	1
187	191	1
9	15	1
211	236	1
185	212	1
166	168	3
24	48	1
195	219	1
48	88	1
71	74	1
8	15	1
144	144	1
16	165	1
96	107	1
151	155	1
151	158	1
219	233	1
10	16	1
92	93	3
183	187	2
46	46	4
61	64	1
71	87	2
220	225	1
177	184	1
160	161	2
57	70	1
238	239	4
21	43	1
156	212	1
222	236	1
113	115	1
27	32	1
117	120	1
181	183	3
200	212	1
207	209	1
90	97	1
44	63	1
22	110	1
63	82	2
175	208	2
215	219	1
199	207	1
213	217	2
95	96	4
26	27	2
60	65	1
116	117	2
32	33	1
184	207	1
239	248	1
56	88	1
223	233	1
104	104	2
75	87	1
19	20	1
198	200	1
211	214	2
71	115	1
58	66	1
151	172	1
196	208	1
195	196	1
242	243	1
47	51	1
228	240	1
221	243	1
206	235	1
84	85	2
111	112	1
80	84	1
2	2	4
193	223	1
217	220	1
233	236	1
98	104	1
221	238	1
162	174	1
168	169	1
55	67	1
85	85	6
166	206	1
238	242	2
235	236	1
203	209	1
11	11	3
65	68	1
160	166	1
64	64	3
117	119	1
102	103	2
97	98	2
209	232	1
49	53	1
172	179	1
191	200	1
67	114	1
44	52	1
5	12	2
236	244	1
169	173	1
106	111	1
181	185	2
158	158	3
113	116	1
213	214	2
215	235	1
218	224	1
27	34	1
193	194	2
6	11	1
63	85	1
86	97	1
231	232	1
3	8	3
70	86	1
22	29	1
45	111	1
217	221	1
58	62	1
41	53	1
106	108	1
244	246	1
236	241	2
43	46	1
214	241	2
241	247	1
68	161	1
74	75	2
64	65	1
194	241	1
214	240	1
180	181	1
86	98	1
235	237	1
199	242	1
51	52	2
201	212	1
210	220	1
15	20	1
220	231	1
63	65	1
212	218	1
177	178	2
188	194	2
199	209	1
235	245	1
192	195	1
80	82	2
176	176	5
187	217	1
224	234	1
16	17	1
88	91	1
159	160	2
204	212	1
162	164	2
210	215	1
88	98	1
51	54	1
76	78	2
29	32	2
211	213	1
9	14	1
92	97	2
103	110	1
194	195	1
48	48	3
229	231	1
230	232	1
0	3	1
80	81	3
170	182	1
110	116	1
66	215	1
205	230	1
11	15	1
78	82	1
198	201	1
56	61	1
36	40	1
34	52	1
25	117	1
118	182	1
79	79	2
203	223	1
65	181	1
79	81	2
18	111	1
33	59	1
159	164	1
243	245	1
72	72	1
213	218	1
32	35	1
69	77	1
27	38	1
241	244	1
162	163	1
189	192	1
65	208	1
6	10	1
154	167	1
33	241	1
60	64	1
30	32	1
6	7	1
109	111	1
152	153	2
42	47	1
3	5	1
221	222	1
69	103	1
37	39	1
57	62	1
92	98	1
3	231	1
40	51	1
191	195	1
188	195	1
178	242	1
83	83	1
90	93	1
107	108	1
180	182	1
182	202	1
20	37	1
171	219	1
169	172	1
159	191	1
190	192	1
12	13	1
120	120	2
47	63	1
63	100	1
214	215	1
214	220	1
85	94	1
207	234	1
6	19	1
7	8	1
95	99	2
26	26	3
61	70	1
62	64	1
218	238	1
220	222	1
214	219	1
87	88	1
105	107	1
236	248	1
194	200	1
153	158	1
40	41	1
65	74	1
223	224	1
174	187	1
152	156	1
229	230	1
170	173	1
54	63	1
224	244	1
153	154	1
223	226	1
165	213	1
175	203	1
102	170	1
178	179	1
35	51	1
55	58	1
201	205	1
175	193	1
37	206	1
26	35	1
229	232	1
76	79	1
159	163	1
113	114	1
59	70	1
227	228	1
158	159	1
5	18	1
183	185	1
196	202	1
15	37	1
190	197	1
79	88	1
234	238	1
153	155	1
150	172	1
172	173	1
247	248	1
147	151	1
231	245	1
20	27	1
51	65	1
169	170	1
185	197	1
6	41	1
49	176	1
209	215	1
29	203	1
245	246	1
42	50	1
1	32	1
75	80	1
93	176	1
85	90	1
151	152	1
