20	20	11
2	6	1
22	23	3
42	42	5
39	41	5
12	12	8
34	34	7
72	72	3
1	2	3
5	6	9
58	58	5
50	50	4
43	53	1
31	32	2
30	30	10
32	32	5
24	24	12
42	43	3
44	44	7
57	58	1
0	0	8
73	73	3
56	56	3
21	21	13
57	57	3
24	65	1
37	38	2
39	39	4
43	52	1
46	46	3
9	9	8
34	57	1
37	37	4
52	63	1
13	14	1
4	5	5
3	3	6
25	26	3
28	30	3
25	25	12
2	12	1
53	53	14
10	10	6
26	32	1
70	70	1
54	54	3
8	8	6
9	10	3
13	13	10
8	12	1
0	3	2
29	29	9
34	53	2
61	61	1
48	50	1
23	23	8
24	25	1
19	19	9
66	66	2
32	34	1
61	71	1
57	59	2
1	1	8
26	26	8
35	37	3
23	53	2
59	59	6
35	35	5
22	22	9
33	33	7
20	21	5
59	61	1
75	75	1
29	32	3
23	24	7
32	33	2
3	6	1
43	43	5
68	68	2
27	27	7
33	34	3
31	38	1
62	75	2
48	64	1
37	49	1
57	62	2
38	39	4
11	11	2
26	35	3
35	40	1
60	60	6
51	52	2
28	42	1
45	45	7
34	51	2
2	3	2
20	22	2
2	14	1
65	67	2
7	11	1
43	55	1
40	41	1
6	6	5
66	68	2
30	39	1
36	36	5
53	56	1
60	61	1
76	76	4
54	55	2
22	35	2
19	20	2
3	44	1
76	77	1
7	7	6
74	75	1
62	62	2
18	18	1
4	11	1
33	36	1
6	12	1
35	38	2
11	12	1
43	44	1
27	32	1
30	32	1
3	19	1
20	25	1
71	71	3
74	74	2
22	28	1
34	35	3
54	59	3
32	36	1
14	14	1
55	56	3
24	58	1
5	5	4
67	67	1
59	72	1
23	26	1
56	59	1
58	67	1
48	48	3
67	74	1
27	39	1
31	35	1
65	65	5
73	74	1
38	38	6
51	51	3
54	57	1
66	67	2
21	22	1
50	72	1
27	29	1
56	70	1
12	32	1
49	54	1
27	31	1
4	4	6
11	19	1
23	30	2
28	40	1
58	63	1
45	68	1
55	55	1
2	2	6
28	28	3
62	64	1
37	58	1
39	45	1
49	49	3
6	7	1
62	63	1
27	34	1
55	60	1
55	61	1
61	70	1
21	23	1
50	70	1
75	77	1
39	62	1
35	36	1
60	63	1
19	21	1
33	67	1
5	7	1
36	38	1
31	31	2
66	75	1
7	8	1
27	28	1
30	31	2
3	9	1
64	64	1
30	38	2
61	67	1
0	1	1
18	36	1
32	38	1
19	29	1
18	19	1
45	46	1
72	73	4
2	5	1
61	73	2
69	70	1
74	76	1
24	31	1
26	27	1
50	51	1
63	63	1
77	77	2
18	20	1
8	14	1
52	52	1
28	34	1
69	69	2
29	59	1
8	9	2
22	29	1
20	41	1
46	52	1
49	50	2
52	61	1
20	23	1
5	10	1
33	51	1
67	71	1
13	30	1
39	63	1
34	36	1
44	45	1
22	30	1
57	67	1
70	75	1
3	4	1
48	49	1
61	63	1
22	31	1
41	42	1
3	11	1
64	65	1
5	13	1
4	9	1
55	67	1
38	56	1
21	29	1
10	11	1
