119	119	1
105	105	1
137	137	1
19	23	1
13	142	1
55	55	4
17	17	1
150	150	5
107	109	1
64	64	1
160	160	3
131	131	1
35	35	4
7	7	1
165	166	1
45	56	1
164	165	1
78	81	2
5	5	1
74	105	2
73	73	1
93	103	1
100	100	3
165	165	4
149	149	4
57	63	2
153	153	4
76	80	2
41	41	2
168	168	3
68	68	3
127	128	1
79	100	2
141	148	2
159	159	2
137	148	1
92	92	1
151	154	1
106	107	1
74	74	1
33	33	2
102	102	3
0	0	1
161	161	5
166	166	3
151	151	4
78	78	2
18	18	2
81	82	1
26	26	1
89	89	1
140	140	3
145	145	2
106	106	3
42	45	1
43	43	5
27	27	6
158	158	2
126	126	2
123	123	1
11	26	1
46	46	1
143	143	3
163	163	2
48	48	3
0	4	1
126	129	1
76	77	1
40	40	3
140	142	1
25	25	3
28	28	2
12	12	2
81	92	1
6	7	2
34	34	3
154	154	1
101	101	2
130	130	1
147	147	4
3	3	2
24	24	4
164	164	3
57	139	1
21	22	1
124	124	2
45	45	2
121	121	2
146	146	1
142	142	1
120	126	1
36	36	2
2	2	1
13	14	1
96	97	1
138	138	2
42	42	3
61	62	2
84	85	1
109	158	1
159	160	1
69	69	2
113	113	2
71	71	4
126	139	1
170	170	2
131	149	1
112	151	1
53	53	1
2	40	1
26	43	1
9	9	2
102	103	1
98	98	2
66	70	1
47	47	2
11	25	1
162	162	1
14	15	1
116	125	1
79	79	1
97	97	1
117	117	2
11	11	1
167	167	1
27	106	1
10	10	1
110	110	1
93	127	1
127	129	1
2	25	2
14	14	1
129	134	1
39	39	1
13	13	2
42	43	1
76	76	1
14	16	1
152	152	1
38	38	1
148	148	1
16	16	1
6	6	1
45	50	1
57	57	2
141	145	1
54	54	1
37	37	1
154	165	1
85	86	2
93	96	2
112	112	1
62	63	1
128	130	1
56	74	1
131	139	1
96	96	1
104	104	1
44	97	1
144	144	1
129	129	1
61	97	1
114	116	1
36	37	1
143	145	1
138	147	1
127	132	1
114	114	2
72	72	1
116	120	1
93	93	1
84	84	1
20	20	1
169	169	2
134	144	1
118	118	1
74	75	1
41	161	1
36	107	1
92	95	1
