12	12	2
82	82	2
19	19	9
114	115	3
225	225	2
153	153	4
0	0	5
84	85	2
7	7	4
100	122	2
83	83	3
37	37	8
136	138	1
62	62	6
2	6	1
36	36	2
82	83	5
78	79	1
174	234	1
33	60	1
170	170	2
165	166	2
173	173	4
31	31	6
112	113	2
28	46	1
121	121	5
132	134	4
4	6	2
61	61	3
241	241	5
43	74	1
74	128	1
2	2	2
35	36	1
156	157	3
181	181	6
90	90	1
53	53	11
167	167	4
57	57	8
119	119	4
152	152	6
21	22	6
183	183	3
80	80	4
18	18	1
162	174	1
8	8	4
40	40	1
171	171	8
176	176	2
240	240	3
132	132	1
89	89	2
60	61	1
206	231	1
218	219	2
38	41	1
84	84	5
65	65	3
72	72	4
14	41	1
160	188	1
23	23	1
8	11	1
3	8	1
47	240	1
235	235	2
131	131	3
16	16	3
201	219	1
190	231	2
25	26	2
232	232	4
234	234	6
205	205	3
29	29	4
206	221	1
76	79	1
67	68	2
46	47	1
218	237	1
23	60	1
78	78	4
130	131	1
22	209	1
125	125	4
5	6	2
21	21	3
185	186	4
172	172	10
10	10	4
152	170	1
11	12	1
182	182	4
67	67	3
169	169	5
124	155	1
20	20	9
143	143	1
163	163	3
6	7	1
191	191	1
76	76	3
133	133	4
241	242	2
101	101	6
144	156	1
141	142	5
137	137	3
70	70	4
177	204	1
200	200	4
46	46	2
111	111	4
48	48	3
50	50	3
210	211	1
112	112	6
198	198	3
184	184	3
63	64	1
48	179	1
233	233	1
230	231	2
8	16	1
88	88	3
24	24	2
13	15	3
130	130	3
230	230	6
102	102	7
123	124	2
220	220	1
138	138	9
115	147	1
32	32	2
3	14	2
128	128	5
219	219	5
199	200	1
58	58	1
159	159	3
36	40	1
68	68	4
55	55	4
116	117	1
133	134	3
11	11	4
154	154	3
33	33	2
129	130	2
56	56	2
82	116	1
184	186	1
155	156	1
1	16	1
3	3	2
177	177	8
48	49	1
231	231	1
35	212	1
120	120	3
120	121	2
156	156	2
204	204	5
32	74	1
32	62	2
56	75	1
63	63	4
28	28	6
108	123	1
211	211	5
16	20	3
20	170	1
125	126	2
186	187	2
177	178	2
105	105	2
59	59	4
184	211	2
187	187	4
14	14	5
144	152	2
42	43	2
69	69	5
42	42	2
64	64	1
45	46	1
145	145	5
221	222	2
4	16	1
131	132	2
4	4	2
115	118	1
165	165	2
13	14	4
58	67	1
77	79	2
151	151	6
117	117	2
9	10	1
51	53	3
150	150	1
57	58	1
173	174	1
101	102	1
57	76	1
78	106	1
187	213	1
64	78	2
161	184	1
174	176	1
158	158	5
10	15	1
217	223	1
35	35	3
42	54	2
116	116	4
188	188	3
28	30	1
229	230	1
139	139	4
224	224	1
212	212	1
141	141	3
24	44	1
19	150	1
237	237	3
200	201	2
33	35	1
41	41	3
144	160	1
152	176	1
185	185	5
234	235	1
86	96	1
85	85	4
37	66	1
163	183	1
200	206	1
108	109	1
13	13	2
214	214	2
9	9	2
71	72	2
123	123	4
189	189	1
25	31	1
130	132	1
71	71	1
219	223	1
113	113	6
16	17	1
10	20	1
47	47	2
46	85	1
123	125	2
115	123	1
6	6	2
77	77	5
203	204	1
1	1	2
102	103	2
22	22	1
35	55	1
166	166	2
217	217	2
184	185	1
52	52	3
39	144	2
25	121	2
97	233	1
35	52	1
2	17	1
27	27	4
49	49	2
198	200	1
52	53	1
13	18	1
33	37	2
25	25	5
199	199	1
81	188	1
185	187	1
178	178	3
18	23	1
196	197	1
227	227	1
108	124	1
140	143	1
238	238	6
86	86	5
15	16	1
192	208	1
17	18	3
34	34	3
104	104	2
29	121	1
76	125	1
223	223	3
152	175	1
15	15	2
34	57	1
106	109	1
197	197	2
195	196	1
75	75	5
180	180	1
136	136	3
184	187	1
204	206	1
213	213	3
115	117	1
121	135	1
142	142	2
216	216	3
212	213	1
86	88	1
106	106	3
135	135	1
192	192	3
60	60	2
222	222	2
22	23	1
148	148	3
4	192	1
236	236	5
239	239	4
68	69	1
114	114	4
73	73	6
31	58	1
127	138	1
191	209	1
204	208	1
211	212	4
115	116	5
2	3	2
170	171	1
98	100	1
164	180	2
115	115	6
164	166	2
162	162	3
118	118	3
1	2	2
128	170	1
131	160	1
75	77	1
195	195	1
50	70	1
117	118	2
144	144	1
8	12	1
210	210	3
66	66	3
156	161	2
148	150	1
217	228	1
141	143	1
100	103	2
54	55	2
11	15	1
4	14	1
7	37	1
39	39	5
99	136	1
21	23	1
167	180	1
38	47	1
99	99	5
73	97	1
107	107	1
194	195	1
205	232	1
126	127	3
80	84	1
81	82	1
183	185	1
204	205	1
174	174	2
3	5	1
174	175	2
10	11	1
64	86	1
26	26	3
55	58	1
66	67	1
48	65	1
11	24	1
157	158	1
194	194	5
168	168	2
79	79	1
3	186	2
129	161	1
49	50	1
188	189	4
145	152	1
181	220	1
171	172	1
59	125	1
181	187	1
51	81	1
218	218	7
32	54	1
178	230	1
175	175	2
155	155	3
214	226	1
96	96	1
187	188	2
81	83	1
0	37	1
124	125	1
97	108	1
2	15	1
74	213	1
157	157	1
44	44	1
62	74	1
8	15	1
96	97	1
237	238	1
118	123	1
7	8	1
30	30	2
152	164	1
205	206	1
162	163	1
173	175	1
130	138	1
208	208	2
171	204	1
21	41	1
43	233	2
242	242	2
183	184	1
11	25	1
16	18	1
45	45	3
134	169	1
138	141	1
206	224	1
2	118	1
190	190	2
206	219	1
71	129	2
129	129	2
120	152	2
44	45	2
12	30	1
190	191	1
50	51	1
181	186	1
140	141	1
58	59	2
5	5	3
51	51	2
214	215	1
74	85	1
164	164	3
89	235	1
40	41	1
167	168	3
97	97	3
169	170	3
102	108	1
160	160	2
29	88	1
196	200	1
164	165	2
179	180	2
28	210	1
134	167	1
3	19	1
108	108	1
2	182	1
189	224	1
43	43	2
37	211	1
19	51	1
127	127	1
79	80	1
154	157	1
36	49	1
176	177	1
154	155	1
102	105	1
210	232	1
126	133	1
114	122	2
175	176	2
124	124	2
121	128	1
140	140	1
100	100	1
97	98	1
147	147	2
212	215	1
74	74	2
66	74	1
171	175	1
122	122	1
120	158	1
11	61	1
173	177	1
60	83	1
158	192	1
160	167	1
161	161	1
24	25	1
171	179	1
149	149	1
228	231	2
209	212	1
103	143	1
11	39	1
178	184	1
17	17	1
1	38	1
225	228	1
28	29	2
127	130	1
200	208	1
193	194	4
216	238	1
62	63	1
202	202	2
98	98	2
99	113	1
72	73	1
81	81	2
38	196	1
153	178	1
124	167	1
150	151	1
203	203	1
2	5	1
79	83	1
185	210	1
151	166	1
125	127	1
139	143	1
214	230	1
160	179	1
34	36	1
73	74	1
199	224	1
45	175	1
30	31	1
55	60	1
121	166	1
163	168	1
163	180	1
29	31	1
179	200	1
133	141	1
54	54	1
38	38	1
208	217	2
167	169	1
171	174	1
147	150	1
60	73	1
109	144	1
31	32	1
109	110	1
194	196	1
110	113	1
26	27	1
215	215	1
143	147	1
153	154	1
68	169	1
95	118	1
113	128	1
235	236	1
58	60	1
