64	74	2
133	133	4
4	4	3
40	40	3
106	106	2
144	148	2
109	109	2
94	94	4
152	152	3
124	124	1
128	130	1
83	84	1
134	134	1
106	107	2
127	169	1
144	145	1
37	41	2
151	151	6
33	33	1
9	9	3
6	167	1
15	15	4
38	38	2
93	104	2
64	64	2
74	74	2
42	42	4
54	55	2
20	20	8
62	87	2
104	104	4
82	82	4
119	120	1
28	28	2
102	103	4
167	167	2
97	127	1
48	49	3
44	44	4
43	89	2
153	154	1
0	166	1
148	148	5
102	104	1
102	102	1
39	39	2
91	94	1
96	124	1
97	101	1
111	112	1
126	127	2
7	10	1
120	129	1
169	169	3
170	170	3
142	142	2
65	66	1
140	144	1
22	23	2
121	128	1
14	14	2
135	135	1
105	105	1
87	87	2
138	138	2
1	2	3
57	75	1
19	65	2
105	118	1
52	100	2
18	18	5
156	156	3
107	108	1
135	136	6
4	157	1
120	140	1
81	81	1
8	8	3
145	145	2
142	146	1
6	39	1
22	22	7
34	41	1
153	156	1
130	130	1
147	147	2
90	115	3
110	110	2
54	54	2
86	86	4
72	72	4
20	24	1
107	107	1
139	139	3
34	34	3
125	126	1
121	122	2
14	15	1
166	166	4
141	141	2
76	77	1
146	149	1
119	119	1
21	21	3
33	34	1
58	62	1
89	89	3
123	131	1
166	167	1
161	161	4
10	11	2
1	3	2
138	158	1
139	169	2
98	122	1
120	158	1
162	163	1
114	114	3
140	140	1
136	136	4
150	150	5
57	62	1
118	118	1
97	117	1
73	74	1
83	83	1
127	127	3
2	24	2
93	94	3
127	167	1
100	100	2
49	49	1
146	146	2
4	15	1
80	80	3
138	141	1
3	3	3
92	141	1
143	146	2
85	85	1
101	102	1
50	52	1
165	165	3
168	168	2
17	18	1
137	137	5
55	55	3
27	27	1
147	148	3
5	147	1
163	164	1
163	163	2
142	145	1
157	157	5
127	129	1
138	147	1
159	159	1
66	71	1
154	154	3
7	7	2
62	92	1
123	125	1
121	121	1
38	39	2
39	170	1
51	51	3
90	90	2
84	84	1
19	19	3
41	41	4
16	17	1
96	97	1
75	75	2
114	156	1
70	70	2
124	134	1
7	52	1
152	156	1
65	65	1
13	43	1
165	166	1
25	25	4
153	153	4
140	141	1
50	50	2
20	56	1
2	161	1
111	149	1
58	78	1
46	46	1
148	149	2
37	37	1
128	129	1
136	142	1
48	51	1
5	5	1
126	146	1
11	11	1
45	45	2
79	81	1
117	118	2
124	125	2
115	123	1
17	17	1
10	10	3
23	146	1
87	88	1
8	18	1
112	112	1
40	41	1
163	165	1
1	1	1
102	126	1
96	116	1
144	144	2
108	108	1
138	139	1
33	36	1
51	65	2
66	66	1
54	56	1
101	154	1
156	157	1
108	110	2
101	118	1
2	2	5
125	129	1
158	159	1
116	116	2
35	35	2
1	143	1
9	10	1
24	24	3
4	7	1
158	158	2
9	82	1
47	53	3
162	168	1
138	142	1
162	162	2
67	67	1
134	135	1
56	56	1
52	53	1
120	120	1
128	153	1
94	96	1
18	21	1
22	46	1
18	19	1
89	90	1
107	149	1
132	132	1
12	108	1
139	141	1
164	164	1
47	49	1
120	121	1
123	155	1
155	155	2
54	74	1
102	115	1
0	0	2
15	104	1
143	143	2
81	94	1
126	142	1
6	43	1
68	68	1
22	56	1
84	119	1
157	163	1
77	96	1
149	149	2
13	20	1
122	122	1
54	58	2
169	170	1
0	7	1
46	47	1
50	133	1
36	36	1
27	28	1
116	117	1
128	128	1
140	154	1
121	154	1
148	162	1
26	26	1
103	103	1
4	5	1
49	50	1
54	67	1
117	117	1
12	12	1
160	160	1
155	165	1
7	8	2
76	76	1
117	151	1
74	75	1
52	52	1
129	164	1
3	11	1
75	80	1
15	135	1
