86	86	2
38	38	1
21	21	5
101	102	3
79	82	3
104	104	2
70	70	5
62	62	5
51	52	2
65	66	1
93	94	1
65	65	5
102	102	8
46	67	1
58	58	5
46	46	3
77	77	3
62	63	1
94	94	4
49	49	3
40	42	3
47	59	2
78	78	3
29	29	3
78	98	1
32	32	5
41	41	1
39	39	1
51	58	1
96	96	7
54	106	1
37	38	1
50	77	1
60	60	2
99	99	6
39	42	2
57	101	1
25	25	3
45	57	1
47	47	1
32	55	1
31	50	1
28	28	1
87	87	2
68	68	2
71	73	1
78	102	1
80	80	6
39	45	1
73	73	4
57	57	3
100	100	5
33	33	1
27	27	2
67	81	1
81	107	1
90	91	1
31	32	3
86	88	1
22	22	2
105	105	4
34	34	2
45	45	6
72	72	4
91	91	1
88	89	2
104	105	1
85	85	4
52	81	1
23	24	1
61	61	4
49	50	2
71	71	1
54	54	3
53	53	4
50	50	5
52	99	1
26	29	1
79	79	3
74	74	3
95	95	5
107	107	1
97	99	1
94	100	1
20	21	1
66	67	3
106	106	1
53	79	1
76	76	5
50	53	2
37	37	6
92	92	3
64	65	2
43	43	1
64	64	3
66	87	1
52	53	2
37	54	1
41	58	1
31	31	2
92	93	4
82	82	2
75	75	3
23	23	1
52	52	4
88	88	2
55	55	7
28	60	1
46	80	1
30	30	2
33	65	1
66	66	2
101	101	3
98	98	3
59	63	1
36	36	3
37	66	3
70	72	1
40	41	1
78	79	2
60	76	1
56	56	3
85	91	1
32	35	1
94	96	1
51	97	3
40	40	4
89	89	2
90	104	1
73	81	1
93	93	1
32	34	1
65	100	1
65	69	1
34	39	2
59	59	4
72	94	1
82	88	1
48	53	1
85	98	1
24	24	2
60	61	3
63	64	2
81	106	1
71	72	1
50	69	1
38	40	1
84	100	1
37	70	1
63	63	2
54	72	1
72	104	1
43	46	1
68	69	2
55	80	1
51	51	3
89	90	2
25	28	1
54	55	2
65	72	1
50	81	1
83	83	1
56	101	1
72	73	2
69	87	2
21	36	1
24	58	1
59	88	1
25	33	1
38	49	1
55	99	1
81	81	4
75	76	1
35	35	2
59	60	2
21	68	1
41	44	1
62	79	1
83	84	1
39	44	1
63	92	1
41	52	1
57	94	1
82	83	1
24	35	1
90	90	2
48	49	1
66	84	1
72	81	1
32	33	2
45	61	1
59	101	1
61	64	1
79	80	1
51	53	1
56	57	1
44	57	1
58	60	1
29	31	1
60	66	1
95	97	1
32	57	1
61	65	1
97	97	1
45	46	1
81	91	1
52	58	1
44	44	1
76	77	1
58	59	1
61	75	1
82	84	1
62	86	1
30	32	1
69	75	1
45	63	1
84	84	1
31	68	1
102	105	1
33	34	1
40	44	1
91	100	1
45	55	1
60	62	1
69	71	1
