117	145	2
147	147	4
43	43	3
25	25	2
67	151	1
69	69	5
127	127	2
139	140	1
70	70	1
78	96	1
128	156	1
153	153	1
81	83	1
34	34	4
133	133	2
117	119	1
120	121	2
51	51	1
5	5	6
99	99	2
126	126	2
99	101	1
90	91	4
144	146	1
98	133	2
68	68	4
49	49	1
104	104	3
51	54	1
115	121	1
6	11	1
67	68	1
33	33	1
2	2	2
134	134	1
46	46	4
15	16	1
106	106	6
102	150	1
23	156	1
137	137	2
70	71	1
141	142	1
145	148	2
112	112	3
28	28	3
67	67	3
123	123	1
138	138	3
141	141	3
114	114	2
98	101	2
66	67	1
139	139	1
7	10	1
98	98	4
40	40	1
92	92	2
31	35	1
10	10	2
36	37	1
3	4	2
123	143	1
107	107	2
109	109	2
114	143	2
73	75	1
86	86	2
100	100	8
63	64	1
97	97	2
17	17	2
31	43	1
158	158	3
137	138	5
19	39	1
116	116	3
103	103	3
13	16	1
50	53	1
87	109	1
145	145	1
114	136	1
123	146	1
115	119	1
82	82	1
27	27	3
119	119	2
103	104	3
131	131	4
9	9	2
87	87	1
108	112	1
155	155	3
7	7	2
91	91	1
93	117	1
107	108	1
95	95	1
31	31	3
109	111	1
131	134	1
152	152	4
118	120	1
96	96	1
50	50	4
117	117	2
80	82	1
105	105	5
86	87	2
151	151	3
66	71	1
79	79	3
76	77	1
145	146	3
123	124	2
22	23	2
23	23	1
21	22	1
50	51	2
39	39	2
12	13	1
55	75	1
146	146	3
121	122	2
88	88	3
75	106	1
36	36	9
81	81	1
119	141	1
120	120	2
10	21	1
108	109	1
6	6	2
128	142	1
135	135	5
115	115	2
45	46	1
22	22	1
85	85	1
78	78	2
54	54	3
68	70	1
65	65	2
92	97	1
144	144	2
80	81	1
149	149	3
110	110	1
117	120	1
130	131	1
38	38	2
11	11	2
9	18	1
118	119	2
124	126	2
129	129	2
26	27	1
40	41	3
74	75	1
35	36	1
16	17	1
36	39	1
130	130	2
134	138	2
117	118	2
79	81	1
23	25	2
99	107	1
69	71	1
152	155	1
136	136	1
91	94	1
78	82	1
35	53	1
65	105	1
101	101	1
0	0	1
138	139	1
122	123	1
23	24	1
124	124	3
44	44	1
76	103	1
155	157	1
112	115	1
67	133	2
92	93	1
80	80	3
83	85	1
85	87	1
85	113	1
128	133	1
30	30	2
30	128	2
12	12	1
62	92	1
93	93	1
41	42	1
142	142	1
144	145	2
156	157	1
90	90	1
116	150	1
122	122	1
11	16	1
52	52	1
75	75	1
85	121	1
48	50	1
7	24	1
78	81	1
41	57	2
111	111	1
18	49	1
42	42	1
135	137	1
69	70	2
150	150	1
125	125	1
21	21	1
75	159	1
1	1	1
14	14	2
29	29	1
143	143	2
154	154	1
29	43	1
91	140	1
104	106	1
140	140	1
62	78	1
66	66	1
101	102	1
157	157	1
81	85	1
37	37	1
96	128	1
83	113	1
15	15	1
113	113	1
85	86	1
17	55	1
157	158	1
121	143	1
118	147	1
125	126	1
81	94	1
104	105	1
121	123	1
120	129	1
132	133	1
24	25	1
92	104	1
9	17	1
42	53	1
44	45	1
121	121	1
