101	101	1
6	7	3
19	22	1
173	174	1
158	158	4
63	64	1
187	188	2
188	189	3
58	59	2
14	14	6
90	99	3
22	55	1
106	117	1
102	102	2
164	164	1
32	32	3
78	82	1
43	43	1
63	63	1
174	174	2
190	190	1
20	20	4
68	82	1
102	134	1
18	22	3
138	138	4
72	73	1
89	89	2
185	185	1
170	170	2
98	98	5
129	163	2
124	124	3
123	123	2
4	5	2
105	105	2
42	45	1
47	48	1
143	143	4
130	130	2
17	17	4
82	82	2
185	186	1
166	166	4
53	53	4
60	62	1
24	25	3
84	111	2
109	109	4
175	175	5
108	109	1
155	156	2
136	136	1
131	131	2
23	42	1
2	2	2
72	72	1
99	110	1
169	169	1
21	21	4
12	60	2
6	6	4
159	184	2
110	111	3
147	147	1
163	163	1
187	187	5
180	188	1
130	168	1
130	133	4
93	93	1
146	146	1
5	5	2
151	151	2
47	47	3
124	125	2
94	108	2
119	122	2
180	181	1
75	75	5
103	122	1
102	103	1
163	164	2
117	143	2
83	83	3
55	56	1
159	164	3
144	170	1
64	64	2
163	165	1
100	100	2
115	171	2
27	28	1
137	137	3
179	180	3
100	106	1
183	183	1
144	144	3
116	116	1
10	12	1
173	173	1
15	15	6
134	159	1
114	114	2
18	21	2
13	26	1
40	41	1
150	163	3
52	52	1
92	92	2
0	0	1
165	165	1
100	127	3
122	122	3
182	182	3
132	148	1
159	159	2
157	157	2
3	3	1
61	61	3
34	35	1
132	150	2
112	112	6
10	10	2
112	133	1
81	81	3
70	71	1
60	60	3
9	10	2
126	126	1
89	123	1
30	46	1
40	40	3
165	166	1
144	145	1
115	115	2
175	176	1
150	150	1
29	31	1
139	155	1
120	120	1
37	38	1
29	33	1
84	88	1
14	15	1
133	150	2
11	13	1
110	110	3
11	12	3
79	102	1
99	100	2
37	37	2
30	33	1
1	1	2
80	86	1
177	179	2
80	82	2
106	124	1
36	38	1
12	12	1
158	160	2
150	167	1
110	113	1
83	94	1
0	31	1
152	152	2
12	23	1
38	38	1
58	58	1
87	105	1
66	72	2
127	127	3
108	108	2
113	113	2
95	95	3
54	56	1
55	55	1
4	4	1
140	140	2
13	13	4
20	21	1
39	39	2
96	97	2
67	124	1
155	155	4
137	158	1
157	172	1
172	173	1
188	190	1
91	94	1
29	32	1
189	189	1
24	38	1
40	56	1
76	79	1
175	177	1
44	47	1
27	27	1
56	57	1
89	142	1
125	125	5
172	172	2
70	158	1
46	46	1
135	137	1
55	128	1
118	120	1
20	22	1
113	141	1
129	129	2
28	28	1
134	134	2
79	79	1
123	125	2
164	168	1
154	154	4
107	108	1
156	156	2
4	9	1
27	30	1
12	14	2
23	23	1
44	68	1
35	35	2
157	158	2
100	113	1
88	89	1
84	89	2
39	78	1
73	73	1
114	133	1
135	135	1
7	7	1
149	149	1
57	58	1
24	153	1
16	16	2
70	123	1
57	57	2
30	34	1
167	167	2
181	181	1
39	100	1
44	46	1
14	18	2
48	48	2
145	145	3
36	36	1
159	185	1
82	83	1
25	25	1
61	63	1
109	145	1
61	67	1
99	99	1
15	17	1
32	34	1
170	189	2
78	78	2
182	190	1
118	118	2
56	56	4
114	126	1
170	172	2
74	74	1
176	176	1
121	162	1
128	128	3
64	65	1
88	110	1
66	66	1
186	186	2
19	20	1
86	86	3
180	180	2
21	24	1
114	118	1
11	23	1
108	170	1
58	64	1
14	17	1
87	95	1
59	63	1
177	177	1
19	19	1
133	164	1
154	170	1
80	80	1
11	11	1
87	93	1
114	188	1
92	143	1
132	132	1
168	189	1
16	36	1
119	120	1
85	85	2
46	47	2
177	182	1
129	132	1
142	142	1
54	135	1
161	162	2
46	88	1
188	188	1
139	173	1
105	122	1
1	2	1
139	139	1
29	30	1
68	68	1
30	30	1
153	174	1
89	96	1
62	62	1
10	13	1
0	7	1
184	184	1
109	153	1
159	160	1
140	141	1
142	143	1
90	91	1
166	168	1
86	87	1
111	126	1
105	116	1
85	97	1
174	175	1
88	88	1
65	66	1
29	35	1
177	180	1
34	36	1
