77	77	1
46	46	6
38	39	1
43	43	5
94	95	2
143	143	5
50	51	1
113	113	2
32	32	2
19	30	1
63	66	1
138	138	2
157	158	2
172	172	4
13	13	2
20	20	2
185	185	5
16	16	4
140	140	6
8	8	6
25	25	4
187	187	1
34	37	1
172	175	1
190	190	1
37	38	4
191	191	1
17	25	1
179	194	1
158	158	1
30	30	5
64	65	1
144	144	4
35	35	3
132	133	1
139	139	6
55	55	3
17	17	3
149	149	3
150	150	2
193	194	5
182	182	2
12	12	2
67	67	1
14	14	3
130	130	1
173	173	1
196	197	2
41	60	1
183	183	3
80	82	1
141	142	3
39	39	8
156	156	1
0	1	3
141	141	1
100	100	3
52	54	1
94	94	3
169	169	6
23	24	1
4	4	7
36	84	2
20	21	2
49	49	2
104	130	1
40	40	7
47	47	4
169	187	1
50	54	1
7	7	2
177	177	2
168	168	1
88	88	1
151	170	1
78	80	2
186	193	1
132	132	2
24	24	5
18	18	6
25	28	2
169	170	1
38	38	5
162	177	1
97	101	1
45	45	3
33	33	3
181	182	2
35	37	1
59	61	1
10	10	5
28	28	1
28	30	1
36	37	2
13	56	1
161	163	2
157	157	2
21	21	2
64	64	1
129	130	1
166	166	1
15	15	3
128	128	1
112	113	1
171	186	1
171	177	1
1	2	1
66	66	1
111	111	2
153	155	1
137	137	3
141	171	1
151	152	2
42	42	2
4	5	1
22	22	3
19	19	4
145	145	3
3	25	1
57	57	2
179	179	4
52	52	3
9	10	2
40	42	1
75	75	1
120	120	2
8	9	2
72	72	4
181	181	4
39	40	1
51	52	1
53	53	2
89	89	2
192	193	3
6	6	2
111	112	1
115	116	1
179	180	1
172	173	1
116	116	3
173	174	1
134	134	2
14	15	2
79	80	1
152	152	1
110	112	2
63	63	1
129	129	1
151	151	2
184	184	3
125	125	1
187	192	1
98	98	2
195	195	2
7	19	1
4	8	1
101	102	1
177	178	2
121	121	1
165	165	3
193	193	4
164	164	2
165	166	2
162	164	1
49	50	1
160	161	2
146	147	2
140	141	1
159	167	1
58	58	1
90	94	1
23	23	1
189	190	2
68	68	3
89	90	1
9	31	1
188	188	3
175	176	1
15	65	1
6	8	2
95	96	1
48	48	1
98	114	1
122	122	1
46	47	2
35	36	2
153	153	4
109	149	1
160	160	2
127	127	3
161	161	1
2	2	1
151	156	1
171	171	3
6	98	1
106	146	1
124	124	2
126	126	1
71	71	2
110	110	1
0	0	1
141	143	1
155	155	1
14	23	1
45	46	1
5	5	2
12	24	1
146	146	1
118	118	2
139	141	1
148	149	1
176	176	3
93	94	2
163	164	1
159	159	1
183	193	1
11	14	1
18	20	1
99	99	1
114	114	2
3	16	1
186	186	1
86	86	1
151	158	1
123	123	1
60	60	2
26	193	1
47	48	1
197	197	1
7	8	1
27	27	1
179	181	1
93	99	1
15	16	1
30	31	1
26	26	1
178	178	2
115	115	1
56	57	2
113	114	1
107	108	1
79	79	1
63	64	1
56	56	1
138	139	2
58	123	1
83	83	1
27	28	2
31	31	1
142	142	1
135	135	2
37	37	1
62	62	1
176	177	1
159	160	1
61	61	1
154	154	1
69	69	1
57	58	1
180	180	1
9	97	1
54	193	1
58	64	1
178	179	1
97	97	1
116	117	1
5	6	1
182	183	1
184	195	1
171	172	1
148	148	1
15	125	1
180	182	1
17	32	1
113	115	1
163	163	1
9	9	1
5	12	1
25	26	1
71	73	1
98	99	1
108	108	1
36	36	1
112	112	1
170	170	1
162	172	1
42	43	1
