10	82	2
44	44	7
42	70	1
145	145	5
43	44	3
3	5	1
5	5	4
163	163	3
133	133	6
140	140	3
25	45	3
128	129	3
153	156	2
28	28	4
162	162	2
14	14	2
24	25	1
2	5	1
18	20	1
34	34	3
124	124	1
112	133	2
158	159	1
119	131	1
167	167	1
122	139	1
6	6	3
16	16	2
24	24	2
48	48	7
100	134	1
0	0	4
143	143	5
50	51	1
120	120	2
51	55	3
119	120	1
93	95	2
91	91	3
93	110	1
26	26	1
80	104	1
1	17	1
143	145	1
20	20	8
86	89	1
51	51	2
160	160	8
131	154	2
126	126	3
16	39	1
34	46	1
146	147	1
161	166	1
37	39	1
71	71	2
52	52	4
130	130	7
156	156	3
123	124	4
41	42	1
168	168	4
11	53	1
92	94	1
19	19	6
77	77	1
119	119	1
89	89	1
75	75	1
9	9	1
54	56	1
3	3	1
79	100	1
101	101	3
76	87	1
95	96	1
133	134	2
94	94	1
4	5	3
72	72	2
50	50	2
121	166	1
137	137	2
154	154	2
37	38	1
69	69	1
105	105	2
1	25	1
2	2	3
0	1	4
141	141	6
74	85	1
69	70	2
149	149	2
123	128	2
122	130	1
80	80	2
155	156	1
12	12	3
150	150	4
47	48	2
155	155	3
107	107	1
121	145	2
136	136	3
112	125	1
73	73	1
112	112	3
13	14	1
11	11	1
134	134	1
111	111	1
74	100	1
70	70	3
76	76	1
42	47	1
53	53	3
157	157	1
169	169	6
135	137	3
144	144	3
87	87	2
42	42	1
158	158	1
1	1	1
77	79	1
58	58	1
47	47	1
135	135	1
12	13	1
16	26	1
83	83	2
129	131	1
90	90	1
97	97	2
58	62	1
123	123	2
161	162	1
80	83	1
78	100	2
45	62	1
15	17	1
163	165	1
121	121	2
160	161	1
81	81	1
56	56	1
7	7	1
37	37	4
46	49	1
6	7	1
4	37	2
89	106	1
152	152	4
166	166	2
64	64	1
68	68	1
35	35	2
105	107	1
23	23	2
91	121	1
22	22	3
53	68	2
63	64	1
147	147	1
146	146	1
129	129	1
54	55	2
142	143	1
7	8	1
87	90	1
131	156	1
104	128	2
153	154	2
74	75	3
99	170	1
69	71	1
77	128	3
86	102	1
40	40	3
66	69	1
142	155	1
110	110	1
85	85	3
146	164	1
144	154	1
88	88	1
132	133	1
99	100	1
77	90	1
62	62	1
100	100	1
22	23	1
10	15	1
17	17	2
13	13	3
113	151	1
102	104	1
132	141	1
57	57	2
157	158	1
20	21	1
36	36	2
111	136	1
21	21	2
55	55	1
38	38	2
145	147	2
4	10	1
143	144	2
159	160	1
18	18	2
167	168	1
127	127	2
114	114	2
104	104	1
101	102	2
153	153	1
150	151	2
49	49	4
130	157	1
41	41	1
151	151	3
106	106	1
74	84	1
86	86	1
84	84	1
11	13	2
4	4	1
155	157	1
24	57	1
90	106	1
118	119	1
115	115	1
9	80	1
66	67	1
16	42	1
164	164	1
42	135	1
139	139	1
99	99	1
136	137	2
138	147	2
140	161	1
46	46	2
8	9	1
54	54	3
15	15	3
10	10	2
63	63	1
109	109	1
82	83	1
83	101	1
8	8	1
43	43	2
148	148	1
48	49	1
83	84	1
45	45	1
65	65	2
143	159	1
92	93	1
108	109	1
50	55	1
33	35	1
100	116	1
143	160	1
44	45	2
131	150	1
99	119	1
73	74	1
152	153	1
122	122	1
67	67	1
149	150	1
40	42	1
33	33	1
40	41	1
1	2	1
135	151	1
145	152	1
92	136	1
72	73	1
154	155	1
125	125	1
161	161	1
170	170	1
138	144	1
97	119	1
164	165	1
109	110	1
103	104	1
131	151	2
116	116	1
142	144	1
73	101	1
138	143	1
