157	157	6
132	132	4
68	84	1
120	122	2
21	21	2
12	29	1
37	55	1
113	113	3
65	127	1
128	129	2
129	132	1
26	26	2
156	156	3
108	119	1
139	139	2
73	75	1
7	7	2
134	138	1
133	133	4
74	74	1
106	106	1
18	35	1
41	148	1
98	98	4
70	70	4
131	138	1
92	93	1
86	86	3
124	125	1
79	79	3
137	137	2
100	100	5
95	105	1
145	145	3
80	126	1
9	9	3
79	80	1
108	108	2
77	77	2
121	122	3
146	153	2
135	138	1
31	31	2
132	133	3
99	99	4
22	22	3
54	54	2
17	17	2
158	158	3
80	113	1
109	110	1
1	2	1
0	54	1
55	55	6
21	27	1
143	143	3
122	122	2
73	73	1
95	127	1
69	69	1
25	25	1
133	134	2
118	118	1
70	91	1
141	147	1
142	142	4
125	127	1
131	131	2
109	109	1
153	154	1
86	87	1
41	57	1
21	40	2
94	118	2
71	71	1
144	144	4
115	123	1
83	83	1
46	46	1
44	44	2
29	29	2
111	134	1
134	136	1
21	49	1
110	110	2
92	92	3
72	102	1
116	116	2
118	119	1
86	114	2
29	55	1
120	120	3
8	8	3
87	117	1
105	117	2
6	6	3
68	70	1
117	117	3
142	148	1
13	13	3
115	116	1
112	112	1
127	127	2
31	70	1
131	142	1
127	132	2
78	78	3
99	100	3
91	142	1
39	43	1
88	89	3
66	142	1
0	0	4
97	97	1
65	68	1
3	3	2
111	137	1
17	89	1
151	151	1
93	93	3
94	121	2
56	56	1
4	4	2
68	69	1
150	150	1
125	125	2
81	134	1
23	51	2
72	72	1
82	146	2
79	121	1
115	115	1
68	68	4
154	154	2
63	81	1
5	5	4
45	45	2
84	84	3
14	15	1
38	38	1
80	80	2
18	18	1
158	159	1
67	132	1
69	90	1
78	84	1
105	105	2
30	30	2
138	138	2
152	152	2
116	135	1
13	15	2
148	148	1
65	90	1
126	126	3
41	42	1
71	73	1
45	51	1
112	116	1
51	51	2
13	16	1
134	134	2
146	146	1
89	122	1
113	145	1
148	149	1
140	145	1
155	155	1
102	129	1
42	43	1
123	124	2
12	16	1
19	19	3
96	125	1
14	14	1
78	85	1
125	126	2
15	48	2
42	42	2
61	81	1
75	75	1
50	52	2
38	111	1
70	131	1
32	110	1
131	132	3
123	123	1
79	94	1
73	92	1
121	123	1
52	53	1
66	69	2
108	109	2
67	67	2
126	127	1
115	124	1
45	55	1
106	107	1
83	85	1
69	72	1
141	141	1
13	137	1
104	105	2
3	4	1
21	41	1
143	145	1
138	141	1
121	121	1
129	129	1
23	30	1
113	114	1
44	68	1
41	41	1
87	87	2
67	105	1
130	130	1
112	115	1
90	90	1
19	20	1
141	148	1
2	12	1
63	63	1
88	90	1
2	3	1
144	147	1
93	94	1
91	92	1
31	32	1
52	67	1
4	5	1
12	12	1
87	90	1
35	44	1
65	66	1
43	103	1
107	108	1
132	134	1
