25	25	5
83	86	1
124	127	1
104	104	3
82	82	7
32	32	4
10	11	2
62	87	1
99	99	2
72	72	5
12	12	4
8	26	1
102	102	3
16	16	3
78	78	3
33	33	6
127	127	6
106	106	6
95	95	5
97	97	4
75	75	3
90	90	1
61	61	2
63	63	6
13	17	1
89	89	4
0	0	2
50	50	4
4	4	6
93	118	1
55	56	1
108	109	2
5	5	3
85	85	7
35	35	3
115	128	1
21	22	2
27	27	6
121	124	2
127	128	1
80	80	4
7	43	2
75	76	3
81	81	3
28	28	5
59	59	4
50	59	1
19	20	1
71	71	5
74	74	4
61	62	1
14	14	8
3	4	1
11	11	6
93	108	1
71	72	1
53	53	8
64	68	1
21	21	5
1	1	3
66	68	1
56	57	3
114	115	1
60	60	1
126	127	1
22	32	1
69	69	5
11	33	1
84	85	3
125	125	4
56	56	3
22	22	4
116	116	1
19	19	1
53	66	1
44	44	4
76	77	1
36	36	5
51	51	2
54	55	1
77	77	6
32	33	1
34	34	8
23	24	3
112	114	2
24	24	4
49	85	1
49	49	3
6	7	1
91	92	2
122	122	2
52	52	5
26	26	2
134	134	1
55	55	4
64	65	3
115	116	1
18	77	1
1	3	1
103	103	1
65	75	1
99	101	1
64	115	1
127	130	1
11	12	1
86	87	1
77	78	2
45	45	2
24	63	2
13	13	4
88	88	2
36	37	1
31	31	2
52	53	1
69	72	1
2	2	2
122	123	2
9	9	3
80	81	1
132	133	2
7	11	1
20	20	4
71	79	2
65	66	2
67	68	3
135	135	2
114	114	2
27	29	2
92	92	2
8	8	2
120	120	3
119	119	2
87	110	2
64	64	2
54	54	2
7	7	4
82	108	2
62	62	2
48	73	1
93	130	1
103	104	2
112	113	2
43	43	4
29	29	2
27	35	1
133	133	3
111	111	3
42	53	1
35	36	1
91	91	1
30	32	2
67	67	3
13	14	3
100	100	2
3	29	1
122	135	1
118	118	1
71	76	1
22	23	3
18	20	2
1	7	1
16	58	1
2	3	1
18	18	3
129	131	1
6	6	2
7	8	2
23	23	2
73	76	1
59	61	1
112	112	3
16	17	4
108	108	1
31	32	2
113	113	3
82	83	1
94	94	2
73	73	2
66	66	4
10	10	2
84	84	1
80	115	1
115	115	1
37	37	1
30	30	3
74	80	1
122	126	1
1	2	1
101	101	2
68	68	1
65	67	1
53	54	1
52	54	1
62	63	1
117	117	2
73	101	1
59	60	2
55	57	1
110	111	2
83	83	3
76	76	2
10	12	1
66	67	1
113	117	1
14	53	1
52	85	1
80	82	1
79	79	5
50	51	1
54	107	1
124	125	1
46	47	1
30	65	1
54	86	1
114	128	1
58	60	1
57	57	1
113	114	1
47	66	1
13	15	1
48	49	2
48	48	1
123	123	1
121	121	2
24	49	1
13	50	1
96	97	1
79	80	3
71	126	1
112	119	2
87	87	2
96	114	2
67	82	1
104	115	1
63	65	1
75	94	1
89	91	1
129	130	1
16	21	1
42	69	1
37	65	1
18	61	1
65	65	1
112	116	1
52	81	1
98	98	1
104	105	1
105	106	1
47	47	2
132	132	1
76	92	1
49	52	1
5	73	1
53	60	1
56	59	1
85	86	1
64	66	1
10	26	1
82	85	1
58	66	1
58	58	1
31	55	1
69	76	1
53	58	1
6	13	1
125	126	1
77	95	1
63	79	1
8	16	1
94	95	1
0	105	1
27	28	1
69	70	2
22	80	1
78	100	1
42	42	1
62	108	1
46	94	1
92	112	1
7	35	1
129	129	1
68	85	1
18	24	1
73	74	1
8	9	1
34	35	1
33	35	1
70	70	1
