100	100	3
76	76	1
64	64	1
130	130	4
55	62	1
137	142	2
39	39	5
128	128	2
113	113	3
67	67	3
26	26	4
106	114	2
38	38	2
101	101	2
44	44	1
109	109	4
105	105	1
57	57	5
22	28	1
64	65	4
102	122	1
63	63	3
115	115	4
77	77	3
148	148	5
130	138	2
109	137	2
137	137	2
91	114	1
126	127	1
42	42	3
34	35	2
125	125	2
80	82	2
110	110	3
9	9	7
25	26	1
23	24	2
8	8	1
52	114	1
136	137	1
134	134	4
120	120	4
38	40	1
35	36	2
25	25	1
28	28	1
124	124	6
46	46	3
95	120	2
139	139	1
92	92	1
43	43	1
138	151	1
78	78	3
114	114	3
74	74	2
102	102	5
120	121	4
58	81	1
69	69	7
120	122	1
106	106	3
76	77	6
25	77	1
41	41	1
68	68	1
107	107	2
13	13	2
45	46	1
24	24	1
9	11	2
55	85	1
27	28	2
152	153	1
102	149	2
19	19	6
51	51	3
108	108	3
81	81	2
34	34	2
118	118	6
52	65	1
67	68	3
126	126	2
72	72	3
141	141	1
106	107	1
80	80	1
149	149	3
18	46	2
119	123	1
125	126	1
85	87	1
70	128	1
111	111	1
129	129	4
7	7	1
98	98	1
62	82	1
40	40	2
10	10	3
113	138	1
47	48	2
70	70	2
56	56	2
16	117	1
4	8	1
69	70	1
12	12	3
33	34	1
136	138	1
27	29	1
95	95	1
142	142	2
137	139	1
30	99	2
147	147	1
53	54	1
15	15	1
36	37	1
55	73	2
110	123	1
44	46	1
2	2	1
117	118	1
141	142	1
27	27	1
69	81	1
55	55	3
111	140	1
43	96	1
16	38	2
131	131	3
144	145	1
36	36	1
8	10	1
22	22	3
133	133	1
145	145	1
104	104	2
47	47	3
49	49	5
14	15	1
4	10	1
117	117	1
119	119	1
97	97	1
123	123	3
5	5	2
65	72	1
20	20	1
94	94	1
93	98	1
144	144	3
32	32	3
79	79	2
45	45	1
99	112	1
100	101	2
16	16	1
85	85	1
146	146	2
71	71	1
107	108	1
111	112	1
27	30	1
16	32	1
35	35	1
17	19	1
19	23	1
138	139	2
102	103	2
74	77	1
46	48	1
96	96	2
95	96	1
37	37	1
34	36	1
150	151	2
64	84	1
91	110	1
121	142	1
68	69	1
103	104	1
50	50	1
39	40	1
112	122	1
23	41	2
23	23	1
103	137	1
116	116	1
70	71	1
89	90	1
43	100	1
75	75	1
33	35	1
91	103	1
108	109	1
8	9	1
124	145	1
23	25	1
28	45	1
72	73	1
83	83	1
124	127	2
73	73	1
102	118	2
6	7	1
6	6	1
67	74	1
24	30	1
4	7	1
99	104	1
121	121	1
48	48	1
41	44	1
136	136	1
94	97	1
21	21	1
75	76	1
14	14	1
96	98	1
153	153	1
