181	181	4
33	33	7
141	161	2
171	175	2
135	135	6
212	213	4
30	33	3
231	231	3
11	72	1
114	114	3
121	121	13
61	62	3
159	166	1
1	32	1
48	64	1
124	125	4
141	179	1
76	79	4
85	98	1
71	71	2
1	6	1
63	64	2
152	152	6
31	33	1
95	95	1
2	2	3
151	151	7
113	113	14
170	170	13
175	176	1
145	202	2
175	230	2
206	207	1
174	174	12
164	165	3
96	97	1
218	218	5
19	19	8
49	50	1
213	225	3
130	159	1
160	160	6
100	100	5
77	79	2
24	25	1
187	187	6
184	185	4
231	232	1
226	229	2
37	37	7
236	236	5
7	8	3
170	171	2
153	154	6
7	7	4
56	57	5
19	115	1
188	188	6
38	47	1
53	53	6
178	178	13
49	55	1
163	165	1
47	47	8
186	186	4
169	169	6
209	211	1
70	70	9
172	173	3
5	6	4
205	206	3
4	4	3
242	242	7
154	155	5
221	222	1
234	235	5
37	106	1
63	75	1
151	171	1
55	69	1
0	32	1
15	17	2
171	172	9
168	170	1
12	12	5
52	53	4
224	225	6
163	163	2
78	78	4
64	65	2
139	139	8
74	74	5
28	28	8
178	187	4
116	116	1
141	163	1
179	180	1
238	238	3
38	38	6
201	201	6
10	10	13
169	170	1
59	60	1
175	175	5
168	168	9
54	54	7
134	174	1
32	32	5
133	135	5
85	85	10
27	27	9
86	86	4
107	227	1
68	68	8
172	218	1
106	106	8
34	34	4
68	183	1
135	138	1
21	21	4
81	81	6
199	199	5
15	19	2
122	126	1
9	9	7
13	13	5
226	231	1
214	214	3
35	108	3
69	70	1
239	239	8
158	176	2
72	72	5
39	39	10
149	150	2
23	23	8
59	59	3
192	200	1
37	54	1
49	58	1
143	143	2
69	69	6
43	46	2
114	115	1
31	31	7
158	186	1
224	224	2
81	82	2
127	127	2
134	134	5
98	98	6
138	164	1
154	157	2
45	45	6
2	6	1
220	220	3
140	224	2
123	124	1
138	138	6
240	240	3
51	64	1
74	75	2
9	39	1
43	43	4
40	40	8
96	112	1
120	120	10
150	150	5
124	124	5
105	105	5
44	45	3
60	73	2
182	182	3
36	37	1
184	184	5
183	184	2
157	175	1
213	213	4
144	146	3
119	152	1
163	178	1
148	149	2
153	153	4
147	148	2
199	228	1
146	146	7
186	187	4
183	186	1
75	78	2
39	42	1
232	233	2
153	156	3
156	156	3
74	80	1
159	159	2
219	219	5
243	243	1
37	39	1
62	63	2
87	87	1
26	26	6
107	107	4
64	64	6
36	154	2
24	191	1
84	88	2
82	82	4
141	142	1
119	127	2
133	147	1
220	221	1
7	150	1
208	231	2
8	8	5
220	239	2
165	166	1
112	112	3
39	160	1
232	232	8
46	46	6
57	57	2
50	50	1
70	146	2
151	154	2
77	91	2
108	109	1
236	237	1
21	219	3
18	18	9
128	128	3
171	177	1
56	56	7
30	31	1
202	203	2
137	137	2
185	185	5
140	140	4
101	102	2
4	6	3
161	161	7
122	122	6
9	20	1
117	117	1
25	25	7
158	158	3
191	202	1
172	172	7
135	137	2
138	139	1
11	11	4
88	88	2
65	68	4
222	222	4
180	180	3
15	18	2
212	212	2
197	197	1
0	0	2
2	127	1
109	135	1
31	32	3
208	208	7
138	143	1
28	30	1
86	87	1
193	194	5
187	188	3
121	175	1
171	171	10
190	202	1
190	191	1
33	54	2
223	223	2
182	186	1
46	163	1
101	101	5
154	180	1
190	231	2
170	172	2
8	151	1
59	108	1
159	162	1
136	172	1
82	124	1
65	65	8
42	42	5
150	151	6
30	30	4
99	144	1
202	202	5
46	48	1
163	164	1
203	203	2
29	29	4
33	37	2
129	129	5
137	138	2
145	146	1
16	17	2
173	173	8
104	104	2
6	7	1
226	227	2
101	103	3
139	150	1
82	83	1
53	54	1
36	36	6
176	176	4
191	192	1
209	209	4
55	60	2
27	202	2
55	55	6
218	232	1
67	67	5
99	138	1
46	47	2
206	206	2
16	19	1
74	201	1
165	165	3
199	200	2
104	105	1
44	44	9
67	68	2
149	149	3
49	49	4
122	201	1
84	86	2
198	200	3
132	151	2
40	42	1
134	135	1
73	74	2
116	119	1
20	20	6
116	117	5
116	118	2
197	198	1
146	156	1
62	62	7
31	225	1
108	108	2
64	68	2
43	44	2
211	217	1
15	15	6
175	177	2
234	234	2
201	239	1
48	48	4
21	123	1
233	233	2
114	122	1
48	49	3
26	164	1
191	191	5
112	234	1
70	97	1
145	147	2
80	81	1
144	144	2
130	131	1
58	58	3
32	64	1
118	118	4
35	36	1
109	109	4
41	42	3
75	77	1
123	123	2
121	127	1
103	103	3
211	213	2
144	156	1
241	241	5
107	108	1
1	2	2
77	134	1
122	127	1
216	221	1
0	1	1
14	16	1
229	229	4
142	143	2
161	162	1
25	26	1
30	192	1
200	205	1
5	5	2
131	131	2
12	31	1
98	99	2
76	76	1
185	186	5
213	214	1
129	135	1
217	217	5
50	53	1
148	150	1
66	67	3
81	91	1
167	168	1
197	217	1
24	24	4
225	225	1
62	135	1
155	156	1
191	200	1
12	20	1
164	164	4
203	204	4
83	85	1
128	170	1
190	242	1
101	152	1
235	235	1
14	14	2
167	167	2
152	158	1
3	3	10
167	180	1
144	145	3
13	55	1
209	216	1
137	166	1
215	216	2
11	232	1
97	98	1
141	143	2
78	81	1
45	46	1
190	190	2
181	182	1
119	128	1
192	192	3
167	205	1
115	118	1
181	183	2
27	28	2
2	40	1
146	162	1
3	152	2
66	86	1
17	17	4
179	179	7
203	205	1
177	177	5
14	15	1
180	186	1
83	92	1
43	62	1
204	204	1
158	203	2
130	160	1
61	61	2
31	164	1
174	175	1
166	166	9
75	79	1
153	158	1
180	181	2
75	101	1
195	195	2
6	6	1
38	39	1
77	78	2
80	105	1
73	73	7
228	228	1
129	159	1
147	147	2
15	32	1
140	141	1
182	210	1
34	35	1
223	226	1
241	242	2
60	60	4
15	16	3
157	161	1
229	230	1
102	102	3
65	186	1
188	190	1
97	97	3
66	66	2
51	51	5
118	130	1
3	36	1
106	158	1
124	126	1
141	141	1
64	105	1
14	17	1
111	112	1
138	169	1
96	96	2
210	210	1
148	148	2
206	216	3
71	74	2
0	108	1
10	11	3
221	221	2
29	30	2
3	6	1
42	43	1
177	178	3
135	136	2
198	198	3
162	162	3
54	55	3
6	22	1
16	16	2
157	162	1
109	110	2
234	236	1
180	195	3
198	199	1
225	227	2
157	157	3
119	119	3
101	105	3
233	236	1
138	166	1
126	126	4
205	205	3
138	141	1
226	226	3
182	183	1
187	189	1
145	152	1
20	23	1
1	1	4
62	65	1
110	110	2
119	204	1
154	154	3
196	196	3
145	145	1
228	229	1
63	68	1
18	20	1
173	174	3
153	207	1
128	130	2
228	230	1
192	198	1
141	151	1
169	183	1
22	23	2
156	157	2
126	147	1
2	11	1
3	7	1
40	41	1
195	224	1
153	155	1
37	38	2
170	179	1
117	118	1
63	63	2
0	12	1
176	184	1
61	86	1
119	122	1
149	151	1
13	16	2
72	74	1
80	133	1
178	216	1
154	156	1
125	126	1
50	51	1
85	86	1
124	127	1
165	173	1
123	177	1
178	189	1
89	91	1
120	128	1
167	179	2
130	136	1
132	158	1
146	147	1
176	188	1
170	178	1
74	121	1
66	209	1
29	47	1
170	232	1
12	32	2
80	80	1
58	59	1
106	146	1
50	54	1
25	32	1
80	83	1
20	42	1
80	84	1
20	21	1
24	242	1
111	111	1
137	159	1
198	211	1
9	24	1
37	42	1
155	163	1
166	169	1
39	69	1
207	213	1
216	216	1
1	19	2
191	196	1
81	83	1
155	158	1
131	172	1
23	24	2
151	153	1
225	230	1
35	35	3
4	18	1
171	190	2
44	46	1
72	76	1
233	234	1
144	190	1
6	49	1
207	207	1
38	42	1
178	183	1
183	183	2
154	173	1
240	241	1
43	201	1
215	215	1
209	210	1
170	206	1
117	125	1
44	48	1
71	73	1
32	48	1
200	200	2
29	54	1
150	165	1
162	167	1
205	207	1
149	152	1
153	174	1
184	193	1
202	204	1
222	236	1
139	140	1
119	120	1
193	193	1
168	169	1
136	175	1
13	160	1
136	152	1
7	22	1
209	236	1
75	75	1
18	19	1
74	77	1
21	40	1
145	176	1
0	2	1
10	25	1
142	161	1
120	200	1
137	140	1
54	64	1
98	100	1
105	106	1
183	196	1
133	133	2
168	182	1
115	115	1
233	238	1
71	233	1
30	224	1
99	99	1
62	68	1
139	141	1
99	125	1
160	176	1
197	200	1
116	140	1
170	202	1
166	167	1
207	208	1
27	84	1
127	128	1
136	137	2
62	72	1
33	201	1
32	58	1
21	29	1
15	127	1
87	98	1
50	62	2
20	37	1
73	78	1
218	219	1
136	138	1
158	172	1
12	61	1
32	33	1
12	15	1
198	217	1
83	83	1
143	144	1
66	186	1
4	5	1
237	237	1
131	153	1
112	113	1
152	153	1
230	230	1
83	84	1
178	179	1
30	32	1
138	142	1
204	205	1
