147	148	5
141	141	2
149	150	1
4	26	1
153	153	3
121	121	4
51	51	1
106	106	6
46	69	1
129	130	1
119	137	1
11	11	5
10	25	2
25	25	5
76	84	1
69	71	2
104	104	2
44	67	1
112	112	2
89	89	1
18	19	1
129	129	5
120	120	2
87	87	3
38	43	1
42	52	1
146	147	2
13	13	2
19	44	1
98	98	3
42	45	1
21	23	1
12	12	1
113	113	2
6	6	1
25	36	1
47	47	3
42	42	1
97	97	1
43	43	5
44	44	7
108	108	5
49	153	2
86	86	1
150	153	2
138	138	4
29	29	4
41	41	3
140	140	1
41	69	1
26	27	1
41	45	1
32	32	3
19	19	6
2	3	2
10	10	3
36	95	1
136	136	2
15	15	8
147	147	2
7	7	5
22	27	1
132	132	1
48	48	5
98	104	1
76	76	4
145	145	3
138	139	1
144	144	2
35	35	1
2	7	2
114	117	1
81	82	1
14	30	1
115	137	1
111	114	2
19	23	1
37	37	1
139	139	2
151	151	2
63	63	2
9	17	2
17	18	1
99	99	5
130	130	2
118	123	1
137	138	2
29	33	1
77	78	3
13	15	1
5	77	1
106	111	1
53	54	1
109	109	2
53	55	2
45	45	2
9	45	1
111	111	1
66	66	2
150	150	5
64	68	2
121	139	2
24	24	2
8	8	1
128	129	2
11	38	1
79	109	1
83	83	1
114	114	2
21	21	1
70	70	2
53	53	1
130	132	1
113	149	1
107	108	1
5	5	1
81	87	1
123	142	1
131	131	1
40	46	1
79	79	1
69	69	1
116	119	1
133	151	1
148	148	4
2	2	1
113	119	2
16	40	1
78	78	2
4	4	1
143	143	1
134	135	3
64	64	1
19	68	2
98	105	1
14	14	1
123	124	1
133	150	1
67	67	3
152	153	1
92	92	1
126	126	2
149	149	2
139	140	1
125	143	1
150	151	2
133	139	1
152	152	2
123	123	1
33	33	1
118	118	2
38	39	1
62	62	1
102	102	1
84	84	1
94	144	1
9	10	2
17	17	2
131	132	1
71	100	1
116	116	2
30	109	1
23	32	2
66	104	2
72	72	1
40	40	2
39	42	1
46	46	2
54	54	1
20	20	2
49	49	2
17	21	1
68	68	2
117	117	2
55	123	1
30	31	1
38	38	2
54	56	1
68	69	1
71	71	1
122	123	2
114	147	1
41	44	1
142	144	1
46	47	1
17	69	1
18	20	1
134	134	1
67	68	1
23	23	1
24	53	1
104	105	1
57	61	1
39	105	1
153	154	1
17	100	1
65	66	1
119	129	1
106	113	1
92	93	1
110	110	1
101	105	1
88	88	1
140	141	1
106	130	1
34	34	1
121	122	1
118	153	1
93	121	1
22	23	1
72	95	1
124	124	1
30	42	1
28	30	1
96	96	1
35	36	1
100	100	2
27	28	1
127	127	2
101	101	1
57	57	2
41	109	1
46	133	1
19	21	1
128	128	1
61	63	2
107	107	1
139	143	1
87	88	1
37	138	1
18	22	1
15	20	1
137	137	1
100	103	1
76	77	1
154	154	1
105	105	1
115	116	1
11	17	1
143	147	1
102	107	1
90	90	1
142	145	1
9	9	1
135	135	1
21	24	1
16	16	1
102	115	1
13	16	1
33	34	1
