11	13	2
111	121	2
185	187	2
17	17	2
7	21	1
1	2	1
4	9	1
53	55	1
128	141	2
149	166	1
47	72	1
106	107	1
152	158	3
187	187	4
48	54	2
32	48	1
179	179	2
51	61	1
66	66	6
107	107	2
52	52	2
47	47	5
30	31	1
120	121	1
176	178	3
70	70	1
44	47	1
45	45	1
43	44	1
31	43	1
69	80	1
136	137	1
68	68	2
21	22	1
1	17	1
4	6	1
145	145	1
187	190	1
85	104	1
172	172	1
40	47	3
0	0	3
95	95	3
33	33	2
31	31	4
147	147	1
5	21	2
31	49	2
97	97	2
61	61	5
5	6	1
4	7	2
183	183	1
158	158	4
151	153	1
65	76	1
32	32	1
104	104	2
132	173	1
170	173	1
55	75	2
20	20	2
25	42	1
39	40	4
180	181	3
98	108	2
195	196	1
107	121	2
174	185	1
11	32	2
168	169	1
89	144	1
23	23	2
47	48	2
140	152	1
177	177	2
123	123	1
70	80	1
48	48	3
44	44	1
10	10	4
165	165	1
1	1	4
161	169	2
191	191	2
109	110	2
169	172	2
185	186	1
115	115	1
183	193	1
98	98	2
122	125	1
154	154	3
18	32	1
141	141	1
188	188	1
23	35	1
190	190	1
69	69	1
119	127	1
75	75	2
31	44	2
83	83	3
10	30	3
35	44	1
60	76	1
96	97	3
110	123	1
98	109	1
24	24	1
144	144	1
38	47	1
134	134	5
143	144	1
165	166	3
155	160	1
142	153	1
163	165	1
2	6	1
16	16	3
149	162	4
129	129	1
102	102	2
157	157	4
4	5	2
185	185	2
9	15	1
169	170	1
30	30	2
14	18	1
154	169	1
5	25	1
182	188	2
150	151	2
31	32	1
186	186	5
22	23	1
81	83	1
17	37	1
33	44	1
7	12	1
179	194	1
21	23	1
128	149	1
2	2	1
7	8	2
135	135	1
39	39	2
152	152	1
158	176	1
157	166	1
80	80	2
140	140	6
190	196	1
151	151	1
134	135	2
111	123	4
119	119	1
127	133	1
0	1	2
125	185	1
6	6	2
139	139	1
96	96	1
118	118	1
111	116	1
12	18	1
147	153	1
8	25	1
136	136	2
51	51	1
125	127	1
14	19	2
65	65	2
113	116	1
14	15	1
151	158	1
17	24	1
143	147	1
11	11	2
184	184	2
56	56	1
111	113	2
160	160	2
74	79	1
45	61	1
18	19	2
188	194	1
164	170	2
174	174	1
186	187	3
177	191	1
117	117	1
169	179	2
20	22	1
108	111	1
38	38	2
154	155	1
42	43	3
131	134	1
118	135	1
67	72	2
166	166	2
122	124	2
13	14	2
100	100	1
122	123	2
146	147	1
9	10	1
36	49	1
50	50	1
19	35	1
153	153	2
9	182	2
136	148	1
127	128	1
49	50	1
7	11	2
138	138	1
152	154	1
196	197	1
111	111	1
43	43	1
167	176	1
164	164	4
147	157	1
142	150	1
119	131	1
25	25	1
55	55	1
15	15	2
13	28	1
87	99	1
176	194	1
28	35	1
168	168	2
19	41	1
68	70	1
124	126	1
21	21	1
171	171	2
1	3	3
87	87	2
149	151	1
56	57	1
178	182	1
139	158	1
74	74	2
118	134	1
167	192	1
43	161	1
138	139	1
12	13	1
181	181	1
133	133	1
72	80	1
178	194	1
39	49	1
179	183	1
34	36	1
72	72	1
141	142	1
55	57	1
183	196	1
27	27	1
160	170	1
29	44	1
145	154	1
155	158	1
196	196	2
84	84	1
148	160	1
39	44	1
8	15	1
125	135	1
2	18	1
163	174	1
7	26	1
22	34	1
179	181	1
142	142	1
68	79	1
42	42	1
148	173	1
143	154	1
194	195	1
9	21	1
43	52	1
12	12	1
143	143	1
153	159	2
93	94	2
135	136	1
0	5	1
57	71	1
78	78	1
110	110	1
121	126	1
34	37	1
31	34	1
96	106	1
174	184	1
177	188	1
66	82	1
130	141	1
59	71	1
184	189	1
46	62	1
14	16	1
125	125	1
167	177	1
71	80	1
138	150	1
40	40	1
103	103	1
5	8	1
13	13	1
6	7	1
28	43	1
189	189	1
54	70	1
121	124	1
180	183	1
7	13	1
24	40	1
85	85	1
7	7	1
144	147	1
166	174	1
105	106	1
101	103	1
3	17	1
