43	44	2
183	183	9
25	25	7
59	60	1
176	185	1
157	158	3
23	23	4
113	171	1
23	24	1
28	29	4
15	16	4
69	69	4
152	152	1
173	173	4
152	156	1
7	7	8
71	87	1
113	160	2
21	21	1
62	62	2
119	119	6
154	154	7
59	61	1
46	46	6
43	100	1
124	124	3
132	132	2
146	147	3
57	57	1
196	197	4
14	14	5
75	75	4
144	174	1
192	192	3
11	13	2
38	38	10
56	56	2
49	49	5
177	177	2
10	10	12
23	34	1
39	39	5
18	19	2
3	23	3
110	110	1
98	98	5
15	15	5
160	160	3
9	9	8
6	7	3
112	112	2
179	179	3
43	43	6
55	55	5
68	68	3
9	10	1
47	156	1
52	52	5
139	140	1
169	184	1
27	30	1
72	72	12
6	6	5
17	17	1
16	16	7
33	135	1
17	22	2
105	106	2
127	127	3
13	13	9
33	33	5
160	161	1
11	11	7
5	5	6
45	46	1
139	139	4
122	122	2
33	40	2
19	19	7
147	147	2
48	48	10
96	137	1
70	70	2
156	157	4
144	144	2
1	1	4
107	108	2
27	27	6
140	141	2
39	40	1
31	31	4
146	163	1
119	196	1
184	184	2
36	182	1
63	65	1
66	66	1
100	100	4
54	54	5
79	79	2
81	82	1
50	171	1
45	45	7
115	115	1
10	14	1
12	12	7
118	118	2
164	164	2
55	56	2
142	142	3
105	105	2
4	4	2
155	155	2
135	168	1
196	196	6
32	32	3
58	58	4
126	127	4
132	133	2
159	159	1
14	16	1
161	162	1
162	162	1
5	6	1
110	115	1
44	45	1
30	31	2
186	186	6
156	156	2
38	40	1
168	168	1
128	128	4
8	8	6
13	47	1
38	39	4
123	125	1
7	8	3
158	159	1
120	120	5
1	143	1
59	59	2
16	107	1
182	189	1
148	148	4
47	52	1
140	140	7
107	107	3
168	175	1
47	47	5
41	41	4
176	176	2
162	164	2
157	157	2
8	52	1
138	141	1
146	146	2
42	151	1
47	138	1
171	176	2
36	37	2
41	191	1
169	171	1
26	27	2
121	121	1
178	180	1
84	84	1
134	134	2
126	126	10
137	137	4
3	4	1
2	2	4
8	9	2
133	134	2
112	136	1
130	130	2
26	29	1
50	50	3
169	170	2
123	124	1
27	29	3
14	15	3
149	155	1
182	182	2
49	52	1
65	125	1
195	195	3
65	71	2
94	94	3
42	42	8
188	188	3
40	41	1
167	167	3
67	67	2
138	138	3
1	12	1
99	144	1
5	7	3
51	51	7
43	154	1
12	139	1
149	149	3
109	110	1
181	182	1
111	191	1
158	169	1
175	175	4
70	71	2
129	129	3
102	158	3
187	191	1
143	146	1
47	48	2
32	112	1
9	115	1
44	44	4
150	150	3
82	83	2
40	40	5
109	147	1
182	184	1
20	20	5
161	161	3
71	71	3
122	125	1
188	190	1
116	117	3
2	18	1
187	187	6
72	98	1
31	134	1
38	170	1
123	123	1
1	2	1
110	171	1
34	34	3
0	0	3
113	114	1
97	97	1
4	5	1
181	181	3
63	63	1
15	40	1
2	3	2
108	150	1
131	133	1
88	88	1
145	163	1
103	105	1
171	171	1
74	118	1
21	22	1
17	25	3
18	18	3
179	180	1
170	180	2
136	136	3
15	32	3
83	83	2
138	140	1
145	146	1
172	176	1
142	143	2
35	68	1
69	73	1
187	192	1
42	43	2
17	31	1
165	177	1
190	190	4
131	131	1
79	83	1
165	167	1
55	131	1
168	169	1
37	37	3
145	149	1
11	14	1
10	186	1
8	27	1
64	64	2
21	23	2
183	184	3
129	130	1
129	141	1
24	25	1
0	2	1
13	126	1
51	52	2
194	194	4
108	108	2
56	64	1
40	42	1
10	39	1
3	7	1
68	69	1
169	179	1
141	141	3
8	21	1
78	78	1
27	28	2
184	185	1
41	119	1
131	132	1
154	156	1
3	3	3
152	155	1
184	186	1
94	150	1
77	77	2
127	135	1
22	22	2
30	30	2
53	53	2
145	145	2
26	30	1
103	106	1
113	113	3
161	164	2
117	117	2
24	44	1
189	190	1
166	166	1
1	24	1
165	165	2
41	42	3
38	46	1
175	178	1
111	149	1
87	88	1
3	20	1
134	135	1
46	47	1
7	36	1
168	172	1
122	123	1
80	80	1
151	151	2
197	197	1
182	183	2
33	183	1
152	167	1
62	68	1
52	53	1
41	52	1
127	128	2
74	87	1
185	185	1
135	142	2
141	184	1
161	179	1
149	150	2
174	174	1
93	97	1
104	108	1
42	52	1
173	175	1
93	98	1
78	79	1
63	64	1
15	17	1
36	36	1
136	150	1
34	36	1
179	192	1
140	143	1
103	103	2
29	165	1
78	83	2
65	70	2
26	26	3
170	170	3
63	107	1
166	168	1
10	185	1
26	28	1
99	103	1
101	101	1
130	132	1
113	190	1
48	51	1
170	171	1
110	111	1
39	43	1
16	17	1
114	114	1
9	33	1
69	72	1
98	99	1
189	189	1
147	159	1
108	185	1
172	172	1
13	38	2
186	189	1
25	26	1
3	40	1
179	183	1
47	59	1
135	135	1
137	184	1
53	54	1
143	143	2
68	78	1
19	39	1
56	68	1
17	42	1
96	187	1
67	69	1
27	31	1
89	89	1
135	136	2
36	101	1
33	43	1
64	73	1
44	88	2
13	14	1
27	44	1
158	158	1
162	163	1
146	154	1
89	90	1
86	161	1
9	16	1
160	180	1
170	172	1
158	167	1
178	178	1
35	35	1
141	142	1
187	188	1
76	78	1
105	115	1
0	3	1
195	196	1
133	133	1
34	101	1
104	104	1
177	178	1
4	10	1
8	16	1
