138	138	3
52	53	1
10	11	1
42	42	3
93	93	2
128	128	1
51	51	5
70	116	1
156	156	4
107	134	3
2	158	1
115	115	2
81	82	3
73	103	1
112	112	2
140	140	3
46	64	1
48	50	2
136	136	3
19	19	2
73	158	1
31	120	1
79	95	1
105	152	1
152	152	5
125	127	1
40	56	1
108	108	3
95	95	2
83	86	2
16	16	4
154	154	4
9	10	2
6	154	1
43	43	4
153	153	5
87	89	4
157	157	1
8	10	1
7	7	2
121	121	1
97	97	1
79	80	3
133	133	3
43	110	1
48	49	1
155	156	1
14	28	1
85	85	1
146	146	4
150	150	2
44	45	3
31	31	1
22	22	3
83	83	3
65	65	1
132	132	3
8	21	1
99	99	2
118	118	4
144	144	1
86	86	3
47	47	2
130	130	1
105	107	1
55	65	1
117	118	3
141	142	2
57	57	4
44	44	5
66	98	1
38	38	4
37	38	1
73	73	1
108	109	3
20	40	1
106	155	2
134	134	3
11	11	2
24	24	3
114	114	2
68	69	2
127	127	2
13	15	3
0	0	1
24	25	2
25	25	2
90	90	1
31	35	1
158	158	3
118	119	1
89	90	2
106	107	1
91	114	2
57	67	2
89	89	2
41	41	3
71	105	1
68	79	1
116	116	2
52	52	1
22	24	2
95	96	2
141	141	4
63	85	1
116	149	3
109	109	1
11	29	1
149	149	2
33	33	1
78	78	1
113	113	1
25	26	1
123	123	1
147	147	2
104	105	4
53	68	1
10	10	4
97	98	1
92	92	1
28	28	1
67	69	1
131	131	2
101	101	2
36	138	1
39	42	1
126	126	1
145	145	1
14	15	1
90	98	1
46	47	1
132	133	1
94	94	2
122	122	4
65	90	1
156	158	1
48	48	3
144	145	1
84	96	1
66	66	2
17	17	1
75	76	1
155	155	4
70	70	1
84	84	2
46	52	1
3	3	2
130	131	1
43	65	2
32	33	1
9	9	2
130	133	1
27	27	1
82	82	1
8	8	1
50	50	3
136	137	2
159	159	1
22	39	1
38	39	1
68	84	1
67	79	1
29	29	1
129	129	1
117	141	1
7	113	1
45	45	1
119	119	1
37	84	1
84	93	1
86	89	1
8	111	1
133	140	1
143	143	1
14	14	1
7	8	1
6	17	1
90	91	1
137	138	1
54	54	1
134	139	1
5	5	1
104	104	1
114	116	1
85	86	1
123	146	1
81	88	1
113	125	1
32	32	1
40	41	1
118	122	1
49	49	1
105	105	2
75	75	1
50	55	1
71	71	1
33	52	1
111	129	1
2	2	2
123	132	1
26	39	1
48	51	1
131	132	1
16	18	1
46	46	1
134	151	1
35	84	1
107	112	1
80	80	1
91	91	1
130	139	1
88	88	1
79	81	1
39	39	1
67	77	1
67	68	1
7	154	1
92	94	1
109	110	2
50	128	1
106	133	1
111	156	1
102	103	1
26	26	1
81	81	1
151	151	1
105	111	1
31	154	1
