34	34	9
119	125	1
46	76	1
24	25	3
150	151	2
153	153	2
99	99	8
10	11	5
114	114	8
9	10	1
16	16	6
35	35	11
83	83	7
46	46	10
118	119	1
2	2	6
134	134	4
145	150	1
65	65	5
163	164	3
82	82	5
27	27	11
137	140	1
160	160	5
7	7	10
79	133	1
78	78	1
33	33	4
135	135	11
166	166	5
162	163	2
3	109	2
6	11	2
126	146	2
46	48	1
162	162	9
44	107	2
12	12	6
144	144	8
136	137	3
90	91	3
148	148	8
122	130	2
159	160	2
17	17	10
141	152	1
154	155	3
90	127	1
23	23	4
13	15	2
38	38	6
14	14	10
72	74	2
145	145	10
73	73	3
159	159	12
41	42	5
101	101	8
155	166	1
19	21	1
158	159	3
156	162	1
112	114	1
40	41	2
164	165	3
119	126	1
124	124	2
155	155	7
131	132	5
142	143	1
118	118	5
75	83	1
20	108	1
45	46	2
46	49	7
39	40	5
2	17	1
1	1	11
11	11	7
128	128	3
20	21	3
156	157	1
62	63	6
100	102	2
0	0	9
21	24	3
119	119	4
163	163	10
144	148	6
125	129	1
62	62	1
39	39	10
96	121	1
13	13	10
21	21	6
94	95	1
93	94	1
103	109	1
57	68	1
51	51	7
141	141	8
22	22	2
86	87	2
37	41	2
96	97	3
53	53	3
3	3	4
11	12	6
15	15	9
137	137	8
26	26	11
87	89	1
43	44	4
104	104	1
108	108	6
117	140	2
132	133	2
100	100	8
83	124	1
6	6	8
149	150	6
54	55	3
3	4	2
139	139	7
20	20	4
110	110	7
111	112	2
127	127	3
138	138	9
6	8	2
76	76	3
57	76	3
99	157	1
150	150	6
21	26	2
161	166	4
91	91	7
22	23	1
19	19	4
23	71	1
57	57	7
123	123	8
157	157	8
124	138	2
142	142	3
154	154	6
0	1	11
105	105	4
161	161	7
18	18	5
124	129	2
170	170	7
151	164	1
64	64	5
107	107	2
116	116	4
14	15	9
84	84	8
70	72	1
161	162	2
5	5	12
140	140	5
134	135	2
129	129	9
149	149	6
147	163	1
90	95	2
4	4	7
18	54	1
3	5	1
42	43	3
86	86	5
95	121	1
152	164	1
52	76	1
1	3	1
72	72	8
99	100	2
168	169	1
152	152	6
144	160	1
41	41	8
169	170	3
97	97	3
8	8	7
47	47	10
169	169	10
16	17	2
122	146	1
81	81	2
89	89	7
114	120	2
125	125	6
52	69	1
4	5	5
40	40	6
55	80	2
51	87	2
167	168	2
63	64	1
74	93	1
77	78	2
10	10	13
76	80	1
41	125	1
44	44	8
135	137	1
73	106	2
103	120	2
26	43	1
73	151	1
28	28	6
15	50	1
89	110	1
130	130	10
44	45	2
19	20	2
158	158	4
1	36	2
147	147	8
43	43	11
131	131	8
24	24	9
119	120	2
37	38	2
42	42	7
133	133	6
144	145	1
69	69	8
38	39	5
35	36	4
105	108	1
136	136	9
90	90	8
114	122	2
101	102	1
150	170	2
157	158	4
6	7	1
48	48	4
25	25	8
36	36	8
147	166	1
126	126	5
45	86	1
77	81	1
126	156	1
7	8	1
11	14	1
49	49	9
84	85	2
37	37	9
91	94	2
41	70	1
5	6	4
50	51	2
54	54	3
36	37	2
146	146	5
14	16	1
68	69	3
23	47	2
88	88	2
168	168	6
65	66	5
71	71	3
138	168	1
80	80	6
103	103	2
110	116	2
111	111	6
50	56	2
164	164	4
132	132	5
120	120	5
68	68	7
93	93	4
2	3	2
106	106	5
85	85	6
130	133	2
125	145	1
27	36	1
129	130	2
74	75	3
106	107	2
136	160	1
26	27	1
49	50	1
71	75	1
51	52	1
64	65	1
1	4	3
165	165	5
137	149	1
131	147	1
70	70	3
18	21	3
16	44	1
155	156	4
45	45	7
3	126	1
19	37	1
108	168	1
162	164	2
120	121	2
77	77	7
137	138	3
73	74	3
21	23	1
152	166	2
98	98	6
9	11	1
118	134	1
21	91	1
133	153	1
123	124	4
58	72	1
134	139	1
15	16	5
95	122	1
131	135	1
16	28	1
115	147	1
75	75	2
18	20	1
141	163	1
118	133	1
151	151	7
124	125	2
17	20	1
136	154	1
133	134	1
141	142	3
18	22	1
117	156	1
23	48	1
155	161	2
52	52	9
40	107	1
139	144	2
78	80	1
82	83	2
80	85	1
150	158	1
81	111	1
115	115	5
156	156	1
88	89	2
8	9	1
56	56	3
1	159	1
110	130	1
107	113	1
18	19	5
121	122	1
125	127	1
19	54	1
96	112	1
140	142	1
136	167	1
102	102	2
109	109	3
106	108	1
103	104	1
129	152	1
143	144	2
142	144	1
108	109	1
57	81	1
7	11	1
167	167	5
20	144	1
9	9	2
120	129	1
123	125	1
49	51	2
81	130	1
151	152	1
81	82	2
7	10	1
143	143	4
75	77	1
41	159	1
126	133	1
73	100	1
112	112	2
9	49	1
85	88	1
74	114	1
11	34	1
143	147	1
42	138	1
117	117	1
115	154	2
53	54	1
110	138	1
3	107	1
8	161	1
7	44	1
94	96	1
131	146	1
71	72	1
126	155	1
148	149	3
145	146	1
97	99	2
1	138	1
3	40	1
99	106	1
146	147	1
126	127	1
76	106	1
111	114	1
112	113	2
109	110	1
110	118	1
50	91	1
122	139	1
52	53	4
111	117	1
77	97	1
127	147	1
66	66	1
109	126	1
0	4	1
24	162	1
97	162	1
13	27	1
58	58	2
12	140	1
141	160	1
87	87	4
165	166	1
95	95	6
8	142	1
113	113	2
116	117	1
50	50	3
85	86	1
2	14	1
142	150	1
66	77	1
143	168	1
107	108	1
121	121	1
55	55	3
19	23	1
23	156	1
34	162	1
84	97	1
153	165	1
97	127	1
117	131	1
1	2	1
56	75	1
120	128	1
166	170	1
150	160	1
33	34	1
122	123	1
53	56	1
99	134	1
111	133	1
151	161	1
105	135	1
111	137	1
166	169	1
139	158	1
138	153	1
17	18	1
147	148	1
15	47	1
80	82	2
125	161	1
18	56	1
105	106	2
67	72	1
8	24	1
72	114	1
63	63	2
56	57	2
79	80	2
68	71	2
152	153	1
74	74	3
117	118	2
25	51	1
131	163	1
40	53	2
33	37	1
116	129	1
20	90	1
15	28	1
100	114	1
139	142	1
160	166	1
70	71	1
82	135	1
122	124	1
43	45	1
107	135	1
136	143	1
17	36	1
71	83	1
115	117	1
56	71	1
90	97	1
20	47	1
91	127	1
91	125	1
128	129	1
118	140	1
151	153	1
27	52	1
47	100	1
21	46	1
91	93	1
92	120	1
34	35	1
134	166	1
141	144	1
24	88	1
116	130	1
128	156	2
58	156	1
75	104	1
130	131	1
26	51	1
48	49	1
146	153	1
39	169	1
147	159	1
5	166	1
89	106	1
111	136	1
139	140	1
22	96	1
55	56	1
154	160	1
126	132	1
119	121	1
79	79	1
140	166	1
92	93	1
85	154	1
