154	157	1
25	31	1
61	61	2
64	64	4
62	62	4
54	58	3
127	127	1
71	118	1
55	55	4
124	158	2
5	5	3
36	36	4
64	65	1
169	169	2
39	39	4
133	133	7
172	172	4
18	18	3
93	93	6
93	94	1
82	86	1
27	27	2
37	37	4
103	112	1
124	125	2
100	100	3
4	4	2
80	139	1
104	106	1
145	145	4
79	79	1
86	86	3
131	173	1
148	148	3
121	121	4
167	171	2
63	66	1
157	157	3
128	128	1
150	153	1
23	23	3
108	109	1
43	45	1
10	10	3
22	45	1
2	2	3
13	13	2
101	101	1
54	54	2
2	3	3
104	113	1
122	122	1
154	154	4
52	65	1
146	159	1
160	178	1
43	43	3
29	29	2
60	60	2
161	162	3
67	67	4
40	43	2
84	85	1
95	126	1
23	54	1
136	136	2
147	147	3
64	67	1
97	117	1
92	92	3
116	116	3
45	45	2
14	33	1
75	75	3
41	43	1
171	171	4
64	66	2
168	168	2
27	28	1
86	111	1
26	26	2
71	71	3
88	89	1
58	61	1
6	6	1
32	32	3
62	63	2
90	92	1
87	89	1
120	144	1
15	15	3
9	10	3
146	157	1
74	74	4
134	134	3
28	31	1
118	118	2
165	167	1
83	116	1
165	165	2
101	106	2
151	155	1
86	88	1
36	53	2
86	91	1
19	21	3
82	82	3
162	162	1
119	119	2
28	162	1
145	146	3
28	30	1
167	167	6
137	137	3
22	22	2
83	84	3
17	17	2
81	81	2
65	65	4
132	132	4
112	126	2
8	9	2
3	3	3
82	115	2
100	141	1
135	135	1
126	126	1
145	157	2
58	58	1
141	141	10
0	0	3
24	24	3
157	158	1
112	112	5
85	85	3
52	53	1
13	15	1
120	121	1
11	13	1
102	111	1
164	164	1
78	79	1
144	145	1
123	125	3
30	30	4
131	172	1
32	33	2
140	140	1
123	124	1
73	73	1
116	117	2
41	41	2
56	56	2
60	61	1
11	11	4
140	163	2
138	138	3
170	170	3
158	159	1
175	176	1
168	169	1
155	155	3
107	107	1
116	124	3
120	120	3
87	113	1
178	178	3
141	142	1
109	109	3
161	161	3
3	5	1
142	142	5
37	38	3
149	171	1
5	20	1
7	25	1
54	56	1
82	142	1
139	139	1
152	152	3
95	141	2
1	2	1
113	113	4
60	78	1
94	94	2
93	133	1
16	17	2
152	154	1
21	35	1
0	61	1
76	77	1
72	72	3
142	143	1
163	165	1
10	11	1
149	167	1
66	66	4
46	46	1
152	160	1
14	16	1
31	34	1
125	167	1
91	91	1
23	58	2
16	16	2
90	94	1
166	167	1
8	8	1
98	98	1
117	117	3
163	166	1
96	100	1
51	51	2
61	79	2
79	177	1
7	10	1
137	138	1
174	174	1
87	87	2
76	76	2
24	28	2
7	11	1
44	44	1
24	26	1
106	106	2
166	166	3
117	124	1
104	105	1
68	68	2
140	141	1
84	172	1
104	104	2
50	59	1
34	34	1
11	12	1
135	137	1
40	40	2
179	179	2
7	7	2
144	146	1
33	33	2
78	78	2
54	81	1
160	160	1
127	128	1
19	41	2
70	71	1
131	141	1
133	137	1
156	156	2
19	20	1
139	140	1
41	42	2
28	45	1
31	31	1
90	93	1
63	63	1
151	164	1
96	117	1
162	167	1
21	21	2
96	131	1
125	125	2
19	19	1
28	29	1
23	26	1
86	87	1
11	29	1
119	122	1
91	92	1
18	19	1
115	115	1
57	60	1
77	77	2
163	168	1
107	170	1
68	77	1
105	105	1
114	114	1
89	89	1
136	137	1
56	57	1
81	86	1
102	104	1
65	93	1
93	101	1
122	126	1
14	14	1
131	131	2
129	169	1
22	34	1
14	23	1
163	164	1
80	81	1
60	62	1
26	27	1
57	57	2
165	166	1
50	50	1
54	73	1
180	180	2
128	129	1
32	158	1
159	159	1
149	153	1
91	93	1
164	166	1
140	166	1
129	151	1
107	137	1
83	115	1
102	106	1
41	46	1
143	146	1
118	119	1
96	97	1
59	59	1
98	102	1
56	58	1
154	179	1
89	94	1
107	171	1
164	165	1
103	105	1
149	149	1
34	169	1
131	132	1
115	152	1
15	16	1
66	67	1
143	166	1
172	173	1
40	41	2
159	168	1
155	156	1
53	53	1
150	150	1
153	153	1
111	140	1
