171	171	3
155	155	5
134	134	4
69	112	1
62	62	1
40	40	5
195	195	6
46	46	6
11	11	6
11	12	5
138	139	1
173	174	1
143	143	5
17	17	8
10	10	10
70	70	3
102	102	2
164	166	2
20	20	3
176	176	4
12	12	5
47	47	7
177	177	2
148	149	2
15	16	2
68	81	1
30	31	2
193	193	9
144	146	1
127	127	5
85	85	3
83	84	1
152	152	3
135	152	1
64	64	3
61	61	2
13	13	10
178	178	4
36	36	5
43	43	7
196	196	6
26	29	1
187	188	4
128	128	9
183	195	1
63	63	2
141	141	4
80	80	1
140	140	4
25	25	4
96	96	1
8	22	2
45	45	4
85	86	3
61	63	1
62	64	2
186	186	5
185	185	5
18	19	2
33	33	6
151	169	2
43	44	2
20	23	2
124	124	2
144	144	1
188	188	2
14	15	2
164	164	2
154	154	1
106	108	1
66	120	1
172	172	6
158	189	1
156	156	5
72	72	3
48	48	5
26	26	1
169	178	1
140	150	1
22	22	3
116	117	1
78	78	3
101	134	1
0	4	1
141	171	1
53	140	1
150	176	1
84	132	1
57	57	3
113	113	4
114	142	2
122	122	3
4	4	6
25	28	1
34	34	6
130	131	2
147	147	1
163	174	2
152	153	3
168	169	6
163	164	1
160	163	1
82	83	1
94	94	2
34	136	1
136	136	1
24	25	1
37	37	3
115	115	5
38	38	6
32	33	5
130	139	1
94	95	2
115	142	1
170	171	3
39	40	5
146	188	1
169	169	2
19	20	1
183	185	1
39	39	3
56	61	1
168	171	1
71	72	1
98	100	1
102	103	1
3	5	2
162	162	3
108	108	2
52	52	2
119	119	1
147	148	1
44	44	6
10	11	4
35	36	2
33	60	1
6	6	3
25	34	1
59	60	1
149	166	1
151	151	5
161	168	1
176	179	1
79	81	1
5	7	1
9	37	1
142	142	5
106	158	1
151	171	1
19	23	1
12	13	1
14	14	6
35	35	5
118	118	1
170	170	3
55	55	1
24	33	2
189	189	1
183	183	4
56	56	1
156	165	1
74	74	3
193	194	1
4	28	1
154	155	2
20	21	4
190	191	1
169	193	1
130	130	2
62	63	2
120	120	2
34	35	3
54	54	2
9	46	1
139	140	1
184	184	4
150	150	2
189	191	1
5	9	1
55	131	1
18	18	4
31	31	8
32	42	1
25	26	1
41	41	4
79	79	2
50	50	6
10	170	2
136	149	3
174	175	1
139	154	1
27	29	2
148	151	1
74	143	1
13	24	1
19	35	2
179	181	2
167	168	3
21	22	1
54	126	1
27	28	1
181	181	2
191	191	1
123	124	1
186	193	1
146	148	2
196	197	1
77	78	1
87	87	2
173	177	1
45	53	1
122	178	1
155	156	1
148	148	2
134	135	2
68	68	2
13	39	1
23	25	1
158	158	2
29	31	1
176	178	1
70	99	1
9	9	3
104	105	2
82	85	2
69	69	2
27	27	3
138	140	2
189	193	1
14	44	1
195	196	1
137	138	1
19	41	1
163	163	2
12	181	1
33	53	2
194	194	5
161	166	1
17	18	1
6	7	4
67	67	1
174	174	1
187	187	1
12	15	1
106	106	3
24	28	1
42	65	1
22	77	1
172	191	1
171	172	1
1	1	2
2	2	4
12	32	1
6	8	1
109	110	1
192	193	1
161	161	1
56	62	1
19	19	3
15	15	2
121	121	1
75	89	1
29	29	2
59	64	1
69	183	1
142	143	2
59	112	1
3	3	2
180	180	3
5	8	1
161	163	2
30	102	1
26	27	2
1	36	2
0	21	1
197	197	2
154	180	1
182	182	5
71	71	2
157	188	1
21	147	1
139	151	1
118	119	1
5	6	2
13	14	3
66	66	1
157	157	2
106	109	2
5	5	1
9	10	1
23	23	2
24	24	5
0	3	1
31	32	1
116	147	1
123	123	1
87	144	1
100	101	1
191	192	1
161	164	2
53	53	3
165	169	1
146	147	2
149	149	5
22	25	1
67	100	1
139	139	3
7	7	2
112	113	1
65	88	1
103	105	1
2	24	1
179	179	3
17	29	1
42	43	2
33	42	1
115	119	1
104	104	2
5	31	1
125	125	3
42	54	1
181	182	1
90	90	1
135	135	1
189	192	1
24	36	1
78	87	1
4	32	2
58	69	1
131	131	2
179	192	1
174	186	1
7	21	1
180	181	2
60	60	1
105	105	1
89	111	2
50	52	1
192	192	1
137	137	3
126	127	1
161	162	1
8	8	4
77	77	1
101	114	1
34	46	1
0	2	1
129	130	1
102	104	1
121	122	1
29	30	1
135	136	1
178	179	2
19	31	1
126	126	2
61	62	2
41	42	4
153	153	1
129	129	1
146	146	2
191	195	1
159	159	1
78	79	1
168	168	2
59	61	1
0	0	1
19	34	1
117	122	1
76	77	1
76	76	1
17	69	1
0	1	1
97	97	1
58	151	1
163	167	1
142	161	1
68	108	1
19	29	1
173	179	1
160	160	2
42	42	2
134	136	1
116	116	1
44	132	1
45	46	1
116	118	1
113	143	1
160	191	1
29	59	1
142	149	1
15	33	1
16	16	3
159	160	1
112	112	1
30	30	2
151	152	1
24	87	1
40	42	1
133	133	1
28	28	1
151	173	1
3	6	1
150	151	1
100	100	1
10	46	1
31	33	1
6	25	1
1	21	1
83	83	1
1	2	1
171	193	1
99	99	1
66	69	1
28	29	1
1	191	1
117	117	1
7	8	1
66	67	1
93	152	1
157	158	1
29	41	1
74	95	1
132	156	1
119	121	1
114	114	1
35	146	1
26	39	1
101	155	1
22	153	1
167	167	1
57	58	1
98	99	1
164	167	1
60	78	1
110	110	1
49	49	1
59	87	1
150	154	1
42	71	1
142	160	1
115	121	1
165	167	1
166	168	1
157	162	1
179	191	1
87	89	1
103	103	1
53	54	1
146	156	1
9	45	1
160	176	1
61	183	1
11	32	1
