80	80	1
163	164	2
122	124	1
157	157	2
77	77	2
58	63	1
8	10	1
143	145	1
1	2	2
7	25	1
160	160	7
97	99	1
82	84	1
79	81	1
109	145	3
132	132	3
16	16	6
54	55	1
5	49	1
67	69	1
120	120	2
144	153	2
135	161	1
69	71	1
68	68	6
2	3	1
103	128	1
133	133	3
65	65	3
51	51	1
101	105	1
53	53	1
159	159	3
166	166	1
71	75	1
26	26	1
119	121	1
147	147	5
112	112	1
27	27	2
5	6	3
142	142	3
80	82	2
135	135	2
11	11	3
10	11	1
149	149	3
24	24	1
153	153	3
13	13	2
130	131	1
14	14	5
8	146	1
152	152	2
118	122	1
114	115	1
85	85	2
161	161	3
96	132	1
48	48	2
156	162	1
3	168	1
154	154	6
151	151	4
6	6	4
121	121	1
55	56	1
114	146	1
140	142	1
166	167	1
90	90	2
6	7	1
89	89	1
109	114	1
104	104	1
141	141	2
110	110	2
156	161	1
124	124	5
62	63	2
20	21	1
17	17	2
37	37	2
15	16	2
26	27	2
4	138	1
106	107	1
97	103	1
152	154	2
129	129	1
75	75	1
162	162	2
3	3	1
33	33	2
134	135	2
45	45	1
155	157	1
86	86	3
115	116	1
81	81	1
92	92	1
129	130	1
87	88	1
130	155	1
133	136	1
38	38	1
136	137	1
96	97	2
156	157	1
109	109	1
126	126	2
165	165	3
8	8	2
84	85	3
118	118	3
70	71	1
44	45	3
143	143	2
124	125	1
147	148	3
68	71	1
43	43	1
137	138	3
122	122	4
36	36	2
157	159	1
54	54	1
116	116	1
167	167	3
134	134	1
149	150	1
137	137	3
67	67	1
20	119	1
162	165	1
40	40	3
139	144	1
148	166	1
138	146	1
115	115	2
42	43	1
163	163	2
39	39	3
170	170	4
100	117	1
72	72	1
47	47	2
117	118	2
26	28	1
154	155	1
137	155	1
150	150	2
81	82	1
99	112	2
4	4	2
132	136	1
11	12	1
87	89	1
100	100	1
108	108	2
0	1	2
110	136	2
139	168	1
70	70	2
27	28	1
87	87	1
114	114	1
82	82	2
121	122	1
74	75	3
1	1	2
155	155	2
107	158	1
44	44	2
90	91	1
122	123	1
144	144	3
17	25	1
12	16	1
159	160	2
7	18	1
10	10	1
56	56	1
116	117	1
119	120	1
48	75	1
91	117	1
94	126	1
5	5	1
142	143	1
47	48	1
79	79	2
94	95	1
76	76	1
146	146	2
7	7	1
4	6	1
65	66	1
145	145	1
21	21	1
89	95	1
50	50	2
37	39	1
138	138	1
45	160	1
97	143	1
101	141	1
14	15	1
77	78	1
71	72	1
18	18	2
81	103	1
123	123	1
79	80	1
131	132	1
137	147	1
2	2	1
84	84	1
136	136	1
168	169	1
48	82	1
88	88	1
91	91	1
23	23	1
78	78	1
133	134	1
137	149	1
42	42	1
103	104	1
162	166	1
144	145	1
19	19	1
81	132	1
35	56	1
