45	46	1
12	13	1
12	12	5
35	35	7
49	49	2
177	178	4
180	182	3
28	29	2
133	133	2
10	10	2
153	153	1
89	89	2
69	69	2
30	31	2
165	165	1
42	42	5
24	24	1
11	11	2
113	142	1
3	4	2
13	13	2
99	149	1
43	44	3
192	192	2
72	73	1
83	83	1
28	28	3
46	46	3
143	145	1
128	128	2
166	166	2
16	36	2
182	186	1
2	3	1
72	72	1
6	11	2
184	185	1
163	164	1
19	19	3
169	169	1
167	167	1
40	40	2
25	33	3
62	81	1
151	151	2
61	61	1
139	146	1
47	49	1
19	34	1
105	108	1
16	16	1
149	149	1
31	31	2
64	64	5
159	160	1
152	153	1
5	179	1
37	37	1
114	114	1
128	169	1
100	101	2
164	164	1
39	39	2
17	18	4
172	172	1
170	171	2
187	191	2
110	110	1
177	180	1
130	183	1
11	12	1
44	44	5
29	29	3
84	84	1
158	162	1
33	33	1
148	148	1
20	20	1
20	47	1
130	172	1
54	70	1
58	61	1
6	6	1
9	28	1
148	149	1
17	19	1
154	175	1
38	38	3
135	135	1
119	122	1
117	118	2
161	168	1
7	25	1
179	190	1
67	146	1
58	59	2
57	58	1
25	25	5
97	115	1
9	31	1
110	113	1
163	167	2
195	196	2
179	179	3
170	170	1
62	62	2
83	86	1
53	53	4
159	159	3
5	5	1
88	89	2
70	71	1
196	196	3
30	30	1
101	101	1
119	120	2
184	184	1
59	79	1
45	45	2
71	126	1
29	30	1
62	67	2
131	132	1
53	56	3
8	8	1
59	60	1
34	34	1
80	187	1
118	118	1
174	174	4
154	154	1
185	186	1
15	46	1
129	130	1
24	26	1
102	104	1
159	168	1
100	107	1
151	171	1
180	180	1
142	168	2
67	67	1
9	10	1
104	104	2
194	194	2
73	73	1
26	26	1
172	191	1
64	72	1
158	158	1
103	107	1
158	159	1
176	176	1
186	186	2
3	7	2
27	27	2
76	76	1
0	0	1
4	4	3
106	124	1
98	98	1
179	181	1
9	9	2
136	136	2
3	3	2
126	127	1
48	48	1
187	187	2
163	163	1
191	191	1
87	87	1
100	100	1
182	182	1
157	157	1
184	195	1
58	58	1
105	106	3
161	162	1
98	100	1
144	144	2
41	42	1
186	187	2
50	50	1
65	168	1
23	23	2
11	53	1
12	123	1
8	11	1
7	7	1
101	102	1
68	69	1
0	42	1
95	96	1
85	85	1
189	189	2
150	150	3
130	143	1
62	64	1
25	27	1
150	151	1
138	138	1
40	42	1
156	156	1
110	111	2
113	114	1
88	90	1
78	78	2
109	109	1
32	32	1
185	185	1
37	41	1
150	155	1
83	84	2
14	14	2
60	60	1
55	72	1
188	189	2
171	171	1
99	104	1
109	110	1
21	21	1
19	20	1
195	195	1
67	77	1
106	107	1
86	98	1
59	61	2
116	116	2
47	47	1
175	175	1
139	139	1
21	22	1
57	69	1
155	155	1
87	105	1
27	28	2
152	156	1
139	172	1
16	17	1
98	99	1
160	160	1
142	142	1
143	143	1
7	23	1
161	163	1
197	197	2
33	38	1
165	170	1
122	122	2
108	110	1
152	152	1
149	162	1
14	15	1
124	124	1
140	160	1
120	136	1
4	5	1
63	63	1
106	106	1
82	83	1
141	141	1
168	168	1
4	11	1
196	197	1
55	56	1
188	188	1
115	115	1
123	123	1
86	89	1
117	117	1
