27	27	4
130	130	4
48	48	1
81	81	1
111	111	2
24	25	2
80	80	1
64	64	9
118	118	6
131	131	3
125	125	4
104	104	2
132	132	2
5	5	4
19	20	3
62	62	4
107	107	3
10	10	2
35	63	1
69	70	3
127	127	2
45	45	3
31	32	2
92	92	1
57	57	6
108	118	1
55	57	1
33	33	4
110	110	5
66	67	2
113	113	6
63	63	7
58	60	2
1	62	1
96	97	2
130	131	2
116	116	3
114	114	5
18	18	2
25	25	2
0	0	7
72	72	7
78	86	2
88	92	1
75	75	4
88	128	1
65	65	9
28	28	3
113	116	1
104	105	1
59	59	4
63	64	2
91	91	1
45	102	1
88	88	4
44	44	8
28	31	1
24	24	1
14	14	2
70	70	4
8	8	4
34	72	1
134	134	4
112	112	5
94	94	1
66	66	7
92	95	2
36	60	1
19	121	1
61	61	7
16	16	5
6	10	1
22	32	1
23	25	1
32	32	5
7	55	1
28	32	1
107	121	1
78	78	5
33	48	2
109	109	2
127	128	2
28	123	1
126	126	3
40	40	1
43	43	3
40	41	1
29	29	3
77	78	2
96	96	1
18	47	1
102	104	1
89	89	1
49	49	1
101	102	2
87	87	1
101	101	1
123	123	5
41	41	1
45	46	1
4	4	3
73	92	1
35	35	2
102	102	2
104	106	1
9	9	3
113	114	2
30	39	1
94	95	1
2	69	1
19	34	1
79	82	1
101	110	1
105	105	2
68	68	1
16	17	1
2	2	3
124	124	2
46	46	3
84	84	2
95	96	1
69	69	4
74	78	1
36	36	4
70	113	1
71	71	3
93	97	1
11	12	2
20	20	3
15	15	6
73	73	3
7	7	1
29	31	1
21	21	2
81	82	2
76	77	2
117	117	3
76	76	3
98	98	1
83	83	1
97	98	1
6	7	1
21	22	1
11	11	4
124	125	2
46	62	1
17	18	2
66	68	1
56	56	4
60	60	2
106	107	1
26	48	1
14	48	1
120	120	2
90	90	1
41	42	1
74	75	2
42	42	2
14	15	2
38	38	2
132	133	2
97	97	1
79	90	1
49	75	1
9	25	1
119	119	3
44	45	1
3	5	1
89	98	1
129	129	2
128	129	1
120	128	1
20	129	1
28	29	1
30	30	1
90	91	2
36	41	1
55	99	1
12	12	5
2	3	1
103	104	1
9	43	1
79	79	3
22	31	1
27	28	1
3	3	2
59	60	1
36	62	1
99	99	2
23	26	1
82	82	2
71	72	1
68	69	1
77	77	3
8	9	1
9	96	1
100	128	1
20	21	1
85	85	1
74	74	1
27	30	1
67	67	1
86	86	1
94	102	1
27	31	1
8	27	1
81	100	1
54	55	1
96	120	1
9	11	1
115	116	1
29	30	1
86	93	1
106	106	1
133	133	1
19	19	1
122	122	1
82	113	1
0	35	1
108	108	1
121	121	1
19	31	1
131	133	1
12	36	1
30	36	1
25	26	1
128	128	1
116	117	1
51	55	1
0	1	1
100	101	1
97	131	1
100	100	1
5	8	1
39	39	1
115	115	1
126	128	1
67	69	1
