30	33	1
2	3	1
6	12	1
184	185	1
122	158	1
170	177	1
157	161	1
135	143	1
43	43	1
70	74	1
54	54	1
127	132	2
189	189	2
83	83	2
116	125	1
47	49	2
59	75	1
157	157	3
44	45	2
171	171	2
34	63	1
73	78	2
183	184	3
96	97	2
66	88	1
144	156	1
12	13	2
21	27	1
39	41	2
143	143	1
93	99	1
108	109	1
132	133	1
85	87	1
187	187	2
150	151	1
63	98	1
47	47	3
20	25	1
65	71	1
26	26	2
165	165	1
34	34	4
5	10	1
180	182	1
114	121	1
140	140	1
78	113	1
153	153	2
8	14	1
96	98	2
187	188	1
91	126	1
67	67	1
98	131	2
186	190	3
41	41	1
169	169	1
167	179	1
120	128	1
91	127	1
3	3	3
103	103	1
143	145	1
153	154	1
125	165	1
99	105	1
114	127	1
66	75	1
121	142	1
133	134	1
72	73	1
169	178	1
153	167	1
183	183	2
151	165	1
76	103	1
164	182	2
109	114	1
14	14	1
66	95	1
176	181	2
79	84	2
105	105	1
0	0	1
2	2	1
79	115	1
35	38	1
140	141	1
145	145	2
72	108	1
110	110	1
79	80	1
139	166	1
53	57	1
6	10	1
174	178	1
90	134	1
87	89	1
45	45	1
98	99	1
118	118	1
111	111	1
92	135	1
28	35	1
185	187	1
21	22	1
142	146	1
121	158	1
181	181	3
78	81	1
15	15	1
16	17	1
39	44	2
185	185	2
95	95	1
100	118	1
58	60	1
154	155	3
151	153	1
4	5	1
120	120	1
29	38	1
5	7	1
87	99	2
118	119	1
39	39	1
105	106	3
66	73	1
81	81	1
108	129	1
184	184	1
145	147	1
93	122	1
114	148	1
173	174	1
70	100	1
139	139	2
66	67	1
175	175	2
18	80	1
179	188	1
22	36	1
175	177	1
86	136	1
88	88	1
48	49	1
6	6	2
104	119	1
178	181	1
37	43	1
173	173	1
71	77	1
136	147	2
37	42	1
139	147	2
85	85	1
23	24	1
106	106	1
91	94	1
107	109	1
109	110	2
186	187	2
126	128	1
108	141	1
63	72	1
13	13	1
42	43	1
16	20	1
88	91	1
121	132	2
53	62	1
103	105	1
53	59	1
21	23	1
165	166	1
137	139	1
19	27	1
36	36	1
18	21	1
91	95	1
98	98	1
164	165	1
24	34	1
58	58	1
188	189	1
116	120	1
125	127	1
86	88	2
133	133	1
133	163	1
10	11	2
116	118	2
88	93	1
32	38	1
149	169	1
130	130	1
31	31	1
22	24	1
17	17	1
125	129	2
48	48	2
114	118	1
72	77	1
20	20	1
75	75	2
140	149	1
92	95	1
152	155	1
82	84	1
181	183	1
16	18	1
22	22	1
124	124	1
108	116	1
12	16	1
73	111	2
71	71	1
24	24	1
52	53	1
122	154	1
167	174	1
148	158	1
88	94	1
60	68	1
127	150	1
146	146	1
7	38	1
124	133	1
81	86	1
21	24	1
46	48	1
153	164	1
68	93	1
70	89	1
74	74	1
52	54	1
79	79	1
3	6	2
105	141	1
158	161	1
0	3	1
82	82	1
166	167	1
63	75	1
27	33	1
7	37	1
7	12	1
102	125	1
17	22	1
55	66	1
121	149	1
164	167	1
62	75	1
32	61	1
157	159	1
108	142	1
83	90	1
180	184	1
78	82	1
81	82	1
179	179	1
150	159	1
81	84	1
121	125	1
113	115	1
152	153	1
138	154	1
140	142	1
142	144	1
114	116	1
55	56	1
