140	144	1
104	105	2
121	121	2
98	99	1
51	53	1
13	13	6
96	97	1
77	77	2
135	136	1
116	117	2
100	109	1
126	126	3
99	99	4
14	19	2
119	119	1
141	149	2
9	11	1
64	64	4
40	40	5
128	128	5
151	151	1
68	68	8
20	21	2
113	113	3
115	123	1
129	130	3
88	88	1
127	127	2
17	17	4
139	139	4
18	18	2
43	43	4
31	32	1
53	71	1
138	138	2
92	93	1
75	77	2
96	116	2
145	145	3
73	79	1
139	142	1
140	142	1
5	5	4
37	37	3
20	20	3
122	122	3
95	96	3
122	123	2
85	85	2
31	31	2
125	128	2
96	98	1
38	39	1
75	79	1
72	72	3
114	114	4
49	49	4
93	93	4
106	107	1
48	48	3
71	79	1
10	10	3
57	57	1
131	132	1
44	44	3
123	123	5
66	66	4
80	80	2
108	108	3
63	63	3
154	154	1
33	33	2
96	96	3
105	106	1
53	110	1
100	100	2
49	50	4
50	138	1
9	9	4
81	81	1
112	112	3
98	98	2
83	113	1
39	40	2
63	64	1
53	53	2
75	80	1
86	90	1
137	137	3
47	47	2
8	8	2
119	130	1
54	129	1
78	78	2
36	37	1
54	55	2
131	131	5
128	133	1
75	75	2
94	96	1
125	125	2
115	115	1
39	39	2
23	23	1
4	4	1
82	83	1
106	133	1
70	70	3
105	111	1
108	120	1
25	25	2
32	56	1
3	3	2
6	10	1
50	50	2
102	102	1
79	79	2
135	135	3
53	123	1
84	85	1
56	56	3
82	82	2
144	145	1
114	115	1
101	101	1
117	117	2
149	150	2
93	94	1
73	73	1
15	28	2
54	65	2
120	120	1
108	113	1
103	110	1
86	87	2
106	119	1
61	61	1
16	17	2
55	74	1
149	151	1
66	102	1
67	68	2
15	15	1
87	87	3
51	51	1
11	11	1
24	24	1
36	36	3
37	38	1
109	113	1
34	34	1
62	62	1
7	8	2
116	128	1
97	97	2
30	30	4
82	84	1
6	6	1
51	63	1
27	28	1
16	16	2
28	29	1
67	67	2
94	94	1
18	73	1
102	108	1
5	27	1
106	130	1
17	18	1
83	83	1
129	129	5
96	115	1
32	32	1
115	118	1
12	13	1
55	56	1
99	102	1
142	145	4
130	130	1
27	27	2
111	114	1
130	131	2
42	43	2
116	116	2
106	111	1
99	100	1
103	150	1
76	76	1
44	47	1
68	73	1
133	133	1
134	134	4
9	15	1
29	29	1
144	144	2
95	115	1
126	127	1
8	10	1
117	118	2
43	44	2
150	150	1
102	151	1
139	141	1
8	9	1
118	118	1
118	119	1
153	154	1
82	87	1
63	135	1
48	49	1
69	69	1
112	127	1
103	103	1
113	114	1
65	65	1
19	20	1
112	115	1
117	123	1
4	6	1
38	38	1
121	122	1
62	111	2
19	19	1
62	63	1
132	132	1
143	143	1
104	104	1
54	54	1
136	136	1
109	111	1
87	88	1
73	100	1
15	16	1
109	110	1
73	135	1
125	126	1
112	114	1
13	15	1
110	110	1
107	107	1
15	20	1
26	26	1
18	37	1
147	148	1
27	30	1
