47	47	2
74	75	2
231	231	1
79	80	2
14	14	9
109	110	3
60	61	1
246	246	1
184	184	1
85	86	1
37	37	2
75	75	1
95	101	1
116	118	1
237	237	7
114	115	2
102	102	5
202	202	2
60	60	2
41	41	2
164	164	2
21	25	1
172	172	3
71	78	1
43	43	3
181	185	1
67	67	2
63	63	2
108	109	1
11	12	1
169	170	1
239	242	1
197	197	1
33	33	3
109	109	1
117	117	4
177	177	2
113	114	1
66	66	3
78	79	2
153	153	1
200	200	3
176	176	2
39	39	4
85	85	1
56	56	2
176	197	1
204	205	1
205	205	3
210	210	3
164	165	1
228	228	1
168	168	2
15	16	1
30	30	1
208	210	2
16	144	1
69	69	3
111	111	2
3	4	1
61	62	3
17	17	1
34	235	1
31	31	3
161	161	2
12	14	1
155	156	2
87	88	1
61	61	1
80	82	1
167	167	1
192	192	2
55	55	4
23	23	3
192	193	3
209	211	1
85	114	1
170	170	1
191	192	1
88	88	1
215	215	2
89	91	1
5	5	1
48	77	1
216	217	1
4	4	1
75	81	1
31	173	1
49	49	2
113	113	2
15	19	1
33	45	1
157	157	4
56	57	2
114	114	2
214	216	1
217	221	1
55	56	2
7	7	2
196	196	2
208	208	2
243	243	1
179	249	1
9	70	1
22	23	1
22	22	2
67	75	1
59	60	1
18	18	1
84	85	2
21	174	1
46	47	1
52	53	2
68	90	1
72	79	1
112	112	7
186	193	1
119	119	2
65	65	3
115	117	2
219	219	4
92	92	1
6	6	3
74	76	1
78	113	1
76	76	5
55	244	1
19	19	1
65	66	2
236	236	1
28	29	1
44	44	2
10	10	2
229	229	1
110	111	2
245	246	1
8	8	3
94	94	2
72	72	3
183	183	2
240	240	2
158	159	1
180	180	2
248	248	2
82	83	1
20	55	1
77	77	3
200	201	1
244	246	1
53	55	1
42	42	2
95	95	2
237	239	1
152	152	1
115	115	4
149	150	1
216	219	1
216	216	1
14	15	1
26	27	1
117	118	1
95	96	1
214	214	3
68	100	2
52	52	2
68	68	2
158	162	1
97	97	2
238	239	3
90	90	2
80	84	1
83	83	3
58	59	1
240	241	1
110	110	3
89	89	1
232	232	1
13	13	2
57	57	1
33	204	2
40	40	1
11	11	1
45	45	2
13	52	1
59	59	3
193	193	2
222	223	1
86	86	1
213	213	3
24	24	2
190	191	1
78	81	1
67	70	1
12	12	1
181	187	1
159	159	2
245	245	1
108	108	1
166	201	1
106	106	2
96	96	1
190	190	1
11	19	1
206	225	1
3	9	1
20	20	1
32	32	2
107	108	1
91	91	1
15	45	1
70	70	3
150	150	1
33	34	1
10	11	1
36	36	1
40	228	1
7	20	1
210	233	1
101	102	1
25	28	1
27	27	2
225	225	1
3	3	1
176	182	1
95	99	1
28	28	1
64	66	1
154	155	1
145	145	1
185	185	1
44	45	1
21	31	1
154	154	1
53	54	3
182	196	1
173	173	2
116	116	2
87	87	2
215	217	1
82	84	1
93	93	1
103	103	1
67	76	2
98	98	1
42	43	1
3	12	1
53	53	1
118	118	1
114	120	1
110	117	1
113	118	1
81	82	1
187	187	1
58	58	2
6	7	1
17	245	1
186	192	1
223	223	1
57	60	1
29	29	2
218	219	1
41	63	1
35	35	1
162	162	1
83	101	1
197	199	1
19	113	1
182	183	1
79	82	1
220	220	1
86	99	1
115	116	1
48	48	1
38	38	1
209	221	1
194	194	1
72	74	1
24	153	1
181	181	1
166	166	1
47	67	1
46	75	1
9	10	1
77	116	1
21	62	1
7	8	1
25	25	1
120	149	1
84	84	1
99	99	1
