37	58	1
83	83	6
30	30	3
10	11	2
33	33	5
81	86	1
62	62	3
29	77	1
13	14	1
11	11	2
23	29	1
44	44	4
96	128	1
74	74	7
127	128	1
56	56	4
7	8	1
21	32	1
0	0	1
21	21	1
75	75	3
118	118	2
79	80	2
110	111	3
76	76	2
78	80	1
1	2	3
2	3	1
81	81	3
82	84	1
2	2	1
14	14	2
88	88	2
49	49	1
88	97	1
105	112	1
68	68	1
81	82	2
5	5	2
100	101	1
15	44	1
77	78	1
79	79	5
60	60	2
133	133	1
93	93	1
17	17	1
53	53	1
121	121	4
71	71	3
75	77	1
61	61	5
112	112	2
73	74	1
117	117	2
27	28	1
127	127	2
10	10	1
77	77	6
54	55	3
3	4	1
98	98	2
3	3	1
80	80	4
89	89	1
4	4	3
82	82	2
134	134	2
84	84	1
27	32	3
98	104	1
43	43	3
104	104	2
72	74	1
122	122	1
56	64	1
6	21	1
64	64	2
21	23	2
76	79	2
35	36	1
30	52	2
116	116	1
94	94	3
26	27	1
124	124	2
43	45	1
52	52	1
128	129	2
102	102	3
98	124	1
104	105	1
56	57	1
87	118	1
57	57	1
17	74	1
59	59	1
91	106	1
107	109	1
125	125	1
13	13	3
44	72	1
44	45	1
26	26	2
78	85	1
45	45	1
131	131	2
80	81	2
52	53	2
70	70	1
111	111	1
113	115	1
0	33	1
76	77	1
16	16	2
116	128	1
126	126	3
91	91	2
20	20	1
55	55	1
27	27	1
78	86	1
36	36	1
28	56	1
100	100	1
119	120	1
69	69	2
27	64	1
8	8	1
15	15	1
7	7	1
25	30	1
106	106	1
122	123	2
86	86	1
51	52	1
97	115	1
107	107	1
105	134	1
85	86	1
73	73	2
18	18	3
37	38	1
56	83	1
104	135	1
67	67	1
87	87	1
109	109	1
29	29	1
119	119	1
0	1	1
10	38	1
15	26	1
84	85	1
58	68	1
127	130	1
22	34	1
65	65	3
50	50	2
67	68	1
45	47	1
43	61	1
82	96	1
120	120	1
129	129	1
59	60	1
60	62	1
63	63	3
24	24	1
110	110	1
30	93	1
95	95	2
22	22	2
82	83	2
81	93	1
19	23	1
105	105	1
59	79	1
54	54	1
128	128	1
99	99	1
15	17	1
92	96	1
90	90	1
72	72	1
32	32	1
103	103	2
105	106	1
69	79	1
100	119	1
114	126	1
