36	36	4
16	16	6
27	27	6
82	82	6
17	21	1
18	19	2
24	29	1
74	74	6
5	29	2
71	71	11
103	104	2
30	30	4
0	0	1
64	65	3
67	69	1
6	6	5
23	24	2
53	53	6
27	29	2
121	121	4
86	87	3
116	118	1
62	63	1
66	66	6
57	58	2
44	45	1
73	73	10
65	65	5
75	75	4
80	81	5
6	62	2
78	86	2
21	22	6
61	61	6
2	18	3
109	109	1
133	133	5
17	52	2
30	37	2
103	103	1
55	56	1
3	15	1
12	12	8
12	124	2
64	64	1
10	10	4
125	125	3
78	79	1
14	15	1
81	82	1
81	81	3
79	79	4
15	15	2
34	34	4
112	113	1
96	112	1
44	44	5
54	54	3
19	27	1
115	115	1
66	67	2
62	62	4
79	81	2
117	117	3
7	7	4
88	93	2
83	83	2
22	22	9
116	119	2
72	73	1
47	47	5
43	44	2
33	33	3
104	104	10
52	53	2
124	125	2
106	122	2
84	84	2
95	96	2
34	37	1
31	31	4
2	2	6
53	77	2
70	97	1
11	11	8
35	35	6
112	114	1
102	102	5
1	1	6
76	76	6
93	93	2
105	112	1
70	70	9
5	5	6
64	66	2
63	63	3
35	37	2
77	77	11
33	37	1
31	63	1
6	7	3
49	49	6
97	97	3
28	32	1
46	52	1
105	105	4
49	133	2
6	8	1
63	67	1
53	87	1
52	52	5
19	20	1
37	37	3
48	48	2
127	127	7
50	50	8
49	132	1
46	46	2
19	19	5
29	29	5
23	23	2
94	94	6
9	9	4
59	59	5
69	70	2
74	120	1
68	68	3
50	60	1
0	36	1
104	105	4
29	30	2
16	17	1
24	25	3
32	32	2
45	45	2
58	58	5
20	21	1
91	112	1
80	80	3
83	84	4
65	81	1
78	78	4
73	88	2
130	130	4
24	24	4
27	43	1
126	134	1
25	25	4
31	58	1
100	100	5
107	110	2
3	3	3
122	123	2
82	84	1
30	31	1
120	120	1
32	118	1
34	36	2
79	80	1
67	68	4
128	128	5
118	120	1
70	71	2
65	88	3
119	119	2
38	78	1
82	83	3
29	71	1
60	87	1
47	48	2
68	69	1
52	65	1
43	76	1
84	85	4
121	123	1
52	61	1
113	113	1
43	43	3
11	12	1
18	18	4
36	37	1
69	69	5
56	57	2
33	34	2
23	25	1
98	98	6
4	4	2
111	111	4
97	98	1
9	10	2
18	21	2
107	107	2
108	108	2
47	58	1
30	58	1
134	134	2
78	87	1
89	89	2
91	91	3
72	72	7
54	55	3
57	57	3
53	55	1
16	19	1
8	16	1
92	92	3
88	88	3
50	80	1
3	4	3
124	124	3
104	126	1
9	12	1
50	71	1
107	108	1
99	99	4
57	61	2
82	86	1
90	92	1
106	106	2
74	102	1
14	14	9
72	102	1
13	35	1
126	126	3
89	90	1
64	83	2
67	67	2
7	10	1
54	58	1
122	122	2
6	11	1
49	50	2
17	17	3
13	13	3
63	64	2
19	24	1
54	84	1
56	56	2
15	16	1
16	46	1
108	115	1
4	33	1
112	112	5
94	95	1
71	72	1
26	26	5
123	135	2
124	126	1
2	62	1
13	58	1
77	78	2
95	95	2
21	21	2
8	31	1
118	118	3
26	28	1
22	62	1
66	68	2
29	75	1
46	47	1
28	29	1
86	86	1
25	27	1
21	26	1
117	118	2
18	59	1
43	63	1
53	54	1
23	79	1
52	62	1
54	56	2
44	55	1
21	99	1
59	63	1
115	119	1
90	90	2
66	70	1
123	123	2
21	30	1
51	59	1
126	127	1
54	60	1
8	8	1
55	55	4
131	131	1
27	63	1
14	44	1
131	132	1
64	78	1
101	101	5
59	60	1
20	29	1
43	65	1
7	11	1
26	27	1
77	79	1
45	46	2
0	1	3
53	66	1
23	54	1
110	116	1
65	66	2
98	99	2
91	93	1
28	28	2
4	5	1
36	61	1
24	52	1
132	132	2
53	68	1
115	117	1
57	59	1
109	110	1
21	25	1
47	49	1
50	75	1
96	96	1
114	114	1
30	35	1
13	14	1
38	61	1
9	106	2
117	119	2
61	62	1
7	9	1
94	125	1
15	127	1
8	9	1
21	23	1
35	127	1
58	59	1
11	25	1
27	33	1
82	95	1
60	61	2
38	38	1
55	57	1
128	129	1
109	133	1
4	15	1
17	23	1
5	6	1
51	54	1
100	101	1
27	56	1
22	23	1
102	103	1
79	98	1
85	85	1
45	82	1
13	72	1
35	133	1
85	87	1
87	87	1
