169	169	4
194	194	6
105	106	1
185	185	2
134	134	6
10	10	3
80	87	2
159	167	1
184	184	12
175	175	4
59	59	3
56	64	1
69	142	2
41	87	1
78	78	1
107	140	1
88	89	2
44	44	8
172	172	6
64	64	7
13	13	5
1	2	2
150	159	1
100	124	1
104	104	2
34	35	2
22	26	1
49	49	1
115	115	6
61	62	2
138	138	5
150	150	6
15	15	3
47	47	5
40	40	8
29	29	2
179	180	1
43	43	4
103	104	2
87	87	4
62	63	1
192	197	1
124	125	2
70	71	1
166	166	1
33	33	1
30	30	6
9	44	1
38	38	9
22	24	2
182	182	3
21	26	1
114	114	3
36	124	2
151	182	1
75	75	1
190	191	1
139	140	2
110	111	1
161	164	1
168	168	4
80	82	1
39	39	5
167	167	2
101	107	1
31	165	1
183	183	3
158	187	1
163	164	2
6	8	2
152	152	6
33	34	1
56	57	1
42	42	7
53	53	4
115	116	1
108	108	5
171	171	7
173	173	4
43	46	1
7	7	3
38	39	1
11	38	1
105	107	1
97	97	1
10	11	2
127	127	2
168	187	1
188	192	1
17	20	2
12	12	3
178	179	3
143	144	1
69	69	1
137	137	1
37	38	2
5	5	4
106	151	2
110	110	1
185	186	3
122	122	3
71	72	1
43	44	1
157	157	3
168	169	2
4	23	3
28	29	2
56	56	3
10	182	1
20	21	2
181	182	1
146	146	1
186	186	6
138	139	1
36	36	5
23	23	2
195	195	2
5	8	1
3	3	3
4	4	2
69	143	1
111	111	2
55	55	3
50	50	1
133	133	2
0	41	2
39	41	1
120	120	4
128	128	4
46	47	2
130	131	2
17	177	1
13	39	1
170	171	3
105	105	1
27	27	2
131	177	1
137	138	1
28	28	1
37	41	1
24	25	1
51	51	2
40	41	1
67	67	3
65	119	1
149	149	3
86	86	1
85	85	1
17	17	2
45	45	1
32	32	8
159	159	8
25	25	3
27	28	2
78	79	1
73	76	1
103	103	2
77	78	2
70	70	2
139	139	3
88	88	2
61	87	1
7	18	1
126	138	1
193	194	1
14	14	8
128	129	3
148	148	1
52	52	4
37	37	3
20	134	2
174	174	3
15	69	1
153	153	3
179	190	1
151	151	5
17	18	2
133	134	1
147	147	3
43	87	1
135	136	1
58	123	1
137	190	1
52	53	3
176	176	1
101	115	1
38	43	1
131	132	1
14	15	3
83	83	2
94	96	1
80	80	2
145	145	2
164	164	2
123	123	3
9	9	4
179	179	3
48	48	2
180	180	2
160	187	1
172	180	2
95	148	1
21	21	4
142	184	1
122	123	1
26	29	1
12	13	2
107	110	2
79	79	1
151	152	1
0	1	3
121	124	1
168	188	1
18	18	3
130	133	1
158	158	2
119	160	1
146	155	2
143	150	1
71	71	1
65	65	1
1	1	2
116	118	1
11	11	1
8	21	1
144	146	1
3	6	1
162	163	2
161	165	1
122	132	1
143	146	1
1	21	1
9	39	1
31	31	3
142	150	1
141	141	4
97	98	1
159	160	2
16	16	5
51	52	1
182	186	1
144	144	5
32	33	1
170	170	3
105	160	1
156	156	1
149	165	1
54	54	1
43	55	2
140	160	1
61	61	3
132	132	2
189	189	2
121	121	2
187	189	2
136	136	2
142	143	1
6	6	1
34	34	1
4	39	1
169	179	2
4	24	1
100	100	1
13	158	1
140	140	4
191	192	1
66	121	1
20	25	1
5	31	1
179	186	2
114	145	1
169	170	2
111	112	2
50	52	1
74	74	2
174	175	1
143	178	2
143	143	1
24	24	2
39	42	1
26	26	3
76	76	1
146	180	1
192	192	6
197	197	2
109	179	1
132	136	1
2	3	1
132	135	1
126	126	2
93	93	2
177	190	1
124	124	1
193	193	3
63	63	1
196	196	3
4	8	1
8	39	1
191	191	1
107	155	1
35	35	1
36	151	1
8	63	1
15	33	1
148	178	1
12	180	1
188	189	2
46	46	2
8	17	1
119	119	3
10	14	1
177	177	4
142	142	2
25	26	1
179	191	2
35	37	1
134	137	2
98	98	3
19	20	2
72	72	2
3	22	1
176	177	1
95	97	2
83	84	1
29	30	1
8	23	1
40	42	2
68	83	1
146	147	1
20	23	1
145	146	1
87	89	2
162	164	2
18	19	1
110	112	1
108	177	1
74	76	1
171	185	1
27	32	1
168	173	1
78	85	1
19	19	3
155	155	3
42	43	1
128	150	1
130	130	2
101	101	1
178	178	1
94	94	1
154	154	3
0	34	1
3	192	1
10	179	1
165	165	1
181	181	2
0	18	1
131	131	1
24	30	1
150	160	1
28	36	1
163	163	1
62	62	1
112	112	2
79	86	1
36	37	1
20	24	1
69	70	1
194	195	1
0	3	1
41	42	1
22	22	1
117	117	1
1	4	1
8	26	1
109	109	1
8	35	1
9	32	1
131	136	1
75	94	2
81	82	1
117	158	1
60	60	1
157	158	1
68	68	2
123	140	1
155	156	1
39	54	1
60	61	1
160	160	1
169	177	1
113	113	1
44	101	1
21	22	1
38	139	1
65	69	1
32	158	1
139	170	1
163	167	1
121	143	1
1	87	1
26	27	1
106	106	1
72	156	1
54	88	1
161	161	1
184	185	1
177	178	1
32	59	1
104	181	1
84	84	1
