75	75	2
106	107	3
86	86	2
41	41	3
86	87	2
133	133	4
128	128	1
12	12	7
10	11	1
90	91	3
48	48	2
13	14	1
126	126	5
115	115	1
66	66	7
88	88	2
26	26	4
20	31	1
114	114	3
87	87	2
63	63	2
29	56	1
109	111	4
62	119	1
61	94	2
128	132	1
69	69	2
130	132	1
24	24	2
111	134	1
77	79	1
27	54	1
127	129	2
85	85	1
112	113	1
68	68	1
28	28	2
95	95	1
83	88	2
16	111	1
21	36	2
96	96	1
49	49	1
13	13	2
109	109	1
18	18	3
100	100	3
111	124	1
48	104	1
64	64	2
10	12	2
11	11	1
32	33	1
39	40	1
134	134	2
37	37	2
62	62	1
16	16	3
32	130	1
112	112	1
102	103	2
32	32	2
123	123	1
105	121	1
98	98	4
23	24	1
111	111	1
10	34	2
105	105	3
51	56	1
38	38	1
101	105	2
6	6	2
113	114	1
75	76	2
2	8	1
79	79	2
107	107	2
117	117	2
21	56	1
80	82	1
76	94	1
66	67	2
57	58	1
115	116	1
24	25	2
131	133	1
127	132	1
130	130	2
94	94	2
7	7	2
45	45	4
8	8	2
75	129	1
76	76	1
97	97	1
89	90	1
9	23	1
27	28	2
10	10	2
102	104	1
109	110	2
36	38	1
4	11	2
129	129	2
92	96	2
44	48	1
20	21	1
132	132	1
32	94	1
4	4	3
120	120	1
107	112	2
29	29	1
46	46	1
64	65	1
25	25	1
13	35	1
132	133	1
44	47	1
43	43	2
131	131	4
27	50	1
101	101	2
44	44	2
74	74	3
60	60	1
29	51	1
59	59	2
83	84	1
121	121	1
22	36	1
3	3	1
31	107	1
48	49	1
83	86	1
113	113	1
124	125	1
84	84	1
97	98	1
1	1	1
81	81	1
73	73	1
15	15	1
85	107	1
55	55	2
31	32	1
65	65	1
78	78	1
77	77	3
34	34	1
43	44	2
46	73	1
23	23	2
25	27	1
35	35	1
101	102	1
126	131	1
103	133	1
80	81	1
111	116	1
100	101	1
70	70	1
4	57	1
97	100	1
58	58	1
31	44	1
60	61	2
0	0	1
83	111	1
108	108	2
2	2	1
36	36	1
41	42	1
90	90	1
120	131	1
118	118	1
123	124	1
19	19	1
116	116	1
95	102	1
57	61	1
93	93	1
114	115	1
112	122	1
19	42	1
119	120	1
5	13	1
42	42	1
30	42	1
25	41	1
93	94	1
