78	78	5
70	71	2
226	227	1
234	234	8
182	182	3
228	229	1
180	180	2
110	110	8
118	118	7
223	224	5
236	236	8
106	107	3
151	151	7
77	78	2
66	66	7
21	21	3
191	191	2
58	59	3
67	167	1
190	191	3
5	5	4
58	58	4
95	216	1
19	19	12
29	29	6
202	202	3
191	192	3
42	42	11
152	153	1
68	101	1
82	83	2
171	177	3
174	244	2
114	114	6
53	53	7
165	165	2
222	231	1
7	8	2
80	80	4
179	180	1
152	152	5
162	162	6
166	166	7
233	241	1
241	241	6
212	212	2
177	177	4
184	185	1
40	40	6
68	70	1
231	231	9
166	196	1
164	164	3
243	243	5
170	170	3
199	199	3
201	201	5
81	81	3
167	235	2
55	55	4
166	233	1
146	146	2
38	38	8
64	64	3
109	109	3
44	44	6
73	74	2
182	224	1
145	145	2
110	113	4
62	62	4
14	14	3
171	173	2
92	92	3
86	101	1
11	11	4
160	160	8
173	174	1
176	176	5
242	243	1
65	66	1
156	156	8
40	41	3
112	113	1
101	101	2
221	221	2
15	15	4
117	117	5
175	175	7
112	112	4
34	37	1
196	196	2
61	61	5
85	86	4
154	154	5
71	72	2
241	242	1
83	83	1
69	69	3
205	205	4
75	75	4
181	181	4
165	166	2
157	157	7
22	22	6
224	224	4
84	85	1
185	185	3
89	89	3
188	189	2
51	51	3
198	198	4
237	237	5
161	161	5
187	188	3
105	105	1
149	176	1
221	222	3
242	242	3
223	223	4
244	244	2
56	186	2
1	1	2
155	156	1
200	200	6
207	208	2
238	239	2
179	179	3
65	65	3
208	208	6
153	153	4
9	9	8
12	12	3
46	46	11
235	235	3
240	241	4
119	119	4
86	114	2
24	24	7
76	77	4
207	207	4
70	70	1
234	235	2
114	115	1
168	168	5
215	245	2
185	207	1
214	218	1
32	33	2
91	207	1
229	230	1
8	224	1
236	238	2
189	189	4
23	24	1
146	147	3
233	233	4
193	193	4
214	216	1
45	46	1
32	32	5
36	36	2
77	77	4
195	197	1
27	27	3
240	240	5
37	37	6
227	227	4
116	116	2
188	188	3
43	43	4
169	169	1
94	100	2
164	196	1
86	86	3
54	54	5
7	7	8
99	100	2
69	70	2
60	61	2
39	39	1
97	98	2
98	99	1
174	183	1
57	57	1
59	59	4
5	6	4
25	26	1
180	205	1
213	213	3
106	106	2
182	226	2
48	50	4
15	16	1
210	210	3
173	173	6
11	12	1
170	214	1
87	95	4
170	191	1
74	74	2
245	245	3
18	18	10
120	120	1
20	20	3
225	225	8
159	160	3
87	201	1
167	167	4
79	81	1
75	76	1
155	207	1
111	111	5
67	67	3
186	186	1
195	195	3
71	71	2
52	52	2
54	111	1
193	194	1
211	211	2
43	44	2
21	28	1
114	153	1
25	25	4
232	232	8
54	234	1
159	159	2
151	152	1
109	111	1
93	181	1
52	161	1
206	206	2
216	216	2
193	195	1
6	6	5
183	183	1
5	7	1
67	204	1
204	204	6
54	152	1
193	215	1
78	79	1
65	91	2
63	63	3
163	163	3
217	222	1
64	66	1
113	113	5
205	232	1
110	118	2
107	107	1
69	163	1
56	57	1
166	200	1
61	62	2
21	45	1
82	82	2
103	103	1
222	222	6
208	210	1
209	209	5
3	4	1
202	205	2
104	105	2
226	226	1
72	72	2
114	116	1
215	216	1
28	28	3
23	23	3
41	41	4
168	169	1
115	115	7
246	247	3
214	214	3
165	176	1
149	149	3
237	239	2
202	203	2
113	114	1
227	230	1
218	218	2
228	228	4
49	50	4
163	165	1
172	172	5
105	209	1
73	76	3
4	4	5
4	21	1
245	246	1
214	215	3
102	103	2
192	194	1
45	45	2
229	235	1
247	247	2
33	33	2
234	236	2
198	200	2
27	28	1
168	175	1
110	111	4
220	220	7
98	98	6
155	155	2
174	175	2
48	48	4
24	25	1
33	35	2
190	241	1
68	68	1
118	150	1
45	159	1
197	197	4
22	151	1
189	190	1
185	187	1
111	113	1
90	90	2
197	201	2
11	15	1
203	203	3
51	53	1
230	230	2
102	105	1
35	35	3
53	59	1
100	100	3
10	11	1
52	111	1
219	219	1
21	26	1
231	232	1
210	211	2
26	26	5
27	29	1
88	88	3
220	245	1
34	34	3
211	214	1
72	77	1
76	85	1
180	181	2
224	241	2
208	209	2
37	38	2
93	93	1
186	191	1
204	205	1
73	73	1
108	108	1
73	99	1
24	207	1
150	150	1
222	223	2
17	17	1
195	196	1
55	56	2
76	80	1
166	167	1
180	206	1
75	78	1
200	224	1
212	213	1
85	85	1
193	238	1
180	191	2
87	87	4
165	193	1
116	162	1
183	184	3
203	233	1
174	174	2
4	5	1
96	97	1
81	82	1
30	31	2
95	96	1
221	223	1
246	246	4
94	94	3
49	49	2
229	229	3
50	50	1
220	221	1
18	19	1
211	220	1
178	179	1
158	158	2
65	245	1
177	187	1
30	32	1
60	164	1
167	203	1
102	102	1
94	182	1
17	18	1
2	2	1
60	62	1
47	47	1
171	171	2
108	109	1
116	117	1
217	217	2
49	70	1
111	112	1
85	90	1
8	8	1
211	223	1
221	224	1
31	31	2
64	71	1
187	187	1
95	243	1
95	95	1
239	240	1
43	92	1
52	55	1
9	10	1
33	38	1
232	237	1
96	96	2
6	7	1
87	92	1
197	200	1
189	192	1
198	225	1
229	232	1
104	106	1
215	215	2
78	82	1
224	240	2
12	52	1
9	28	1
205	206	1
56	56	1
225	226	1
82	84	1
215	218	2
201	207	1
86	87	1
23	28	1
154	205	1
100	162	1
179	201	1
51	55	1
154	155	1
237	240	1
161	162	1
39	41	1
192	193	1
184	184	1
30	30	2
194	194	1
91	91	2
88	90	1
10	10	1
176	193	1
3	3	1
