38	38	2
21	28	1
42	42	2
135	136	2
170	170	3
166	166	2
139	139	8
126	139	1
101	107	1
116	170	1
111	112	3
130	130	2
160	162	3
154	154	1
43	43	3
129	129	2
155	155	3
81	81	3
158	158	2
36	36	1
135	135	1
37	38	2
171	171	1
108	108	4
67	178	1
118	120	2
138	138	3
56	56	1
124	124	3
3	3	4
8	8	2
94	94	1
102	103	1
61	61	2
137	137	5
173	173	9
176	176	5
17	17	3
24	45	2
74	78	2
43	53	2
24	27	1
97	97	1
100	100	1
20	23	1
152	152	1
120	120	1
9	10	1
37	37	3
92	92	1
67	67	3
27	27	1
141	141	1
71	71	1
31	42	1
73	73	1
84	84	1
112	121	1
93	106	1
21	21	1
50	50	2
8	12	1
90	91	1
34	34	1
10	10	4
172	172	3
52	53	1
78	78	3
103	104	1
29	30	2
15	40	1
116	117	1
79	153	1
54	82	1
156	156	5
157	157	2
5	5	4
150	153	2
93	120	3
97	98	1
71	127	1
127	127	5
165	165	2
22	41	1
2	2	1
64	64	2
31	52	1
118	118	1
53	54	1
24	24	1
125	125	2
53	73	1
56	63	1
106	106	2
41	41	2
60	66	1
112	114	1
180	180	1
53	67	1
43	102	1
88	88	1
11	12	1
112	150	2
31	31	1
113	113	1
25	25	2
149	149	3
52	52	1
2	3	1
65	65	1
134	134	1
70	70	3
21	43	1
90	128	1
144	144	1
68	68	2
54	54	1
95	95	1
131	131	3
150	150	3
75	76	1
75	75	2
151	151	3
169	169	2
123	124	1
126	150	1
1	1	2
154	163	1
15	20	1
179	179	1
18	41	1
178	179	1
99	99	2
13	13	2
158	161	1
29	29	1
16	16	1
90	90	2
41	56	1
147	147	3
9	41	1
5	14	1
166	167	1
11	34	1
104	105	2
9	9	1
44	44	2
168	168	1
132	132	3
79	79	1
15	15	1
175	175	1
101	101	3
61	108	1
148	176	1
19	19	1
112	113	1
44	45	1
31	32	1
133	133	1
84	85	1
80	80	1
74	74	1
76	76	2
174	174	2
115	118	1
93	93	1
40	40	1
10	11	1
26	26	1
160	160	1
115	116	1
158	169	1
128	128	1
26	28	1
148	148	1
142	142	1
119	120	1
140	140	1
113	117	1
75	84	1
56	57	1
22	22	1
178	178	2
133	134	1
13	25	1
154	155	1
163	164	1
140	145	1
109	110	1
121	121	1
16	38	1
126	126	1
8	42	1
142	143	1
68	89	1
113	115	1
16	17	1
96	96	1
57	58	1
151	174	1
12	40	1
169	170	1
159	159	1
145	145	1
102	102	1
