117	125	1
114	114	2
162	162	3
171	171	3
239	239	3
24	24	2
70	70	4
147	147	3
15	16	1
33	33	1
152	153	1
186	186	4
178	231	2
168	168	3
144	144	2
203	204	2
183	183	2
134	170	1
149	169	1
5	5	1
113	113	2
167	167	3
50	51	2
199	199	2
116	117	1
32	32	2
80	81	1
5	6	2
151	153	1
169	169	1
116	116	5
65	65	2
173	174	2
201	201	3
61	118	1
174	174	5
47	47	2
104	104	2
235	236	1
45	47	1
117	140	1
13	50	2
47	48	1
179	180	1
0	0	2
207	215	1
171	174	2
182	182	6
235	235	1
177	231	1
164	166	1
19	22	1
228	228	2
237	237	5
88	88	2
115	115	4
13	13	4
169	198	1
169	203	1
67	67	7
123	123	3
185	185	1
214	214	1
202	203	1
135	135	2
124	124	2
149	151	1
159	159	5
150	150	3
151	151	4
28	157	1
50	50	4
126	144	1
109	111	1
150	188	1
3	8	1
36	68	1
39	39	2
100	100	2
128	128	3
224	225	1
79	79	4
25	25	6
63	65	1
42	42	1
31	48	1
229	229	3
188	188	2
121	121	2
72	72	4
21	157	1
163	163	2
128	129	1
222	222	4
137	137	2
52	54	1
177	177	3
180	182	1
154	154	4
45	45	2
149	152	1
233	233	2
54	54	1
15	15	2
16	52	1
103	103	2
179	179	3
74	74	2
29	39	1
29	29	2
190	190	1
96	96	1
4	4	3
191	191	2
17	221	1
172	172	2
158	158	2
154	182	1
156	157	2
23	52	1
176	177	2
55	55	2
18	18	2
18	19	3
11	11	3
159	185	2
122	122	3
34	34	3
164	165	2
125	126	2
145	146	1
183	184	1
207	207	3
182	200	1
242	242	3
117	151	1
120	121	2
148	148	1
225	226	1
65	76	1
11	35	2
37	37	4
129	130	4
69	69	3
179	181	1
155	155	6
126	127	2
212	212	2
59	138	1
8	8	4
205	205	1
56	56	3
148	149	1
43	43	1
65	66	2
9	48	1
143	143	2
69	70	1
124	188	1
46	47	1
210	210	2
30	30	3
119	119	1
180	180	2
165	165	2
133	183	1
19	36	1
155	184	1
105	109	1
82	83	2
48	160	1
64	64	1
118	139	2
143	155	1
39	40	1
219	219	1
213	224	1
175	177	1
81	82	1
197	207	1
181	181	2
240	240	1
133	133	3
184	184	1
20	84	1
125	125	1
189	189	1
109	109	1
157	157	2
21	23	1
68	68	3
38	55	1
2	2	2
134	134	2
40	40	2
142	168	1
225	225	1
173	173	2
127	127	1
221	221	2
152	152	3
236	236	1
223	223	1
150	229	1
84	84	2
49	50	1
78	78	1
176	176	2
74	75	2
157	162	1
37	38	2
2	4	1
137	141	1
1	1	3
4	5	1
149	150	4
60	60	2
145	157	1
130	191	1
182	183	1
217	231	1
20	20	1
136	137	1
215	215	2
140	140	1
137	142	1
138	138	2
27	27	1
32	33	2
134	164	1
54	55	1
2	13	1
154	155	1
180	210	1
22	22	3
61	61	1
224	224	1
187	187	2
24	25	1
109	158	1
36	36	3
66	66	2
153	153	1
100	101	2
213	213	2
81	107	3
200	200	2
117	118	2
188	190	1
58	58	1
60	61	2
146	146	2
238	238	3
99	99	1
44	44	2
101	101	3
160	160	2
165	166	1
170	183	2
14	14	1
59	59	1
155	189	1
158	160	1
133	140	1
181	182	2
26	26	2
32	39	1
27	38	3
26	175	1
161	168	1
137	143	1
140	167	1
206	207	1
209	209	1
145	145	1
34	35	2
135	152	1
178	178	1
236	237	1
17	18	3
9	10	1
9	192	1
46	46	1
132	133	1
218	218	1
170	170	1
153	154	1
110	110	1
138	139	2
128	152	1
69	73	1
23	23	1
120	120	1
206	206	2
184	185	1
198	198	1
2	7	1
216	233	1
233	234	1
162	163	2
9	9	1
152	160	1
109	144	1
26	147	1
31	31	3
119	127	1
57	168	1
76	76	2
3	3	3
52	63	1
68	69	1
34	51	1
221	224	1
28	28	2
17	17	1
28	103	1
160	162	1
23	25	1
121	122	1
21	41	1
103	104	1
142	146	1
45	46	1
150	151	1
57	167	1
210	226	1
70	71	1
56	77	1
61	160	1
175	175	1
66	161	1
58	65	1
10	10	1
53	53	1
3	12	1
241	241	1
149	228	1
163	164	1
86	86	1
198	199	1
41	41	1
161	162	1
208	208	2
138	141	2
62	63	1
20	225	1
41	59	1
51	106	1
141	141	2
211	215	1
140	141	1
220	220	2
167	168	1
197	212	1
38	38	2
14	53	2
175	178	1
107	107	1
169	170	1
158	169	1
51	52	2
106	106	2
129	132	1
16	17	1
80	84	2
40	41	1
187	210	1
31	191	1
81	81	2
158	183	1
77	77	1
71	71	3
198	217	2
214	215	2
16	16	1
75	75	1
139	141	1
161	184	1
64	88	1
31	32	1
97	97	2
49	56	1
85	85	1
59	60	1
17	166	1
234	235	1
63	113	1
142	151	1
30	31	1
163	167	1
51	159	1
146	147	1
120	122	1
198	202	1
119	120	1
29	172	1
41	57	1
216	216	1
178	179	1
196	216	1
18	206	1
98	99	1
139	139	1
4	14	1
35	36	1
97	100	1
227	227	1
182	184	1
144	150	1
7	7	1
89	89	1
174	175	1
152	154	1
67	68	1
19	21	1
53	54	1
