124	124	3
14	34	1
128	128	5
88	113	2
93	94	1
116	116	4
96	96	4
136	136	4
112	112	2
56	56	6
75	78	1
113	114	3
68	68	7
2	2	3
53	54	2
121	122	1
106	117	1
40	40	2
100	100	3
119	138	1
22	22	6
112	113	1
36	36	2
114	114	2
116	117	3
3	33	1
25	123	1
97	97	3
74	74	6
120	120	5
105	111	1
126	143	1
93	93	3
63	63	4
92	92	1
89	89	5
134	134	6
71	71	2
141	141	6
86	86	3
101	101	3
98	98	4
38	43	1
5	5	2
140	140	4
105	105	3
77	78	2
80	80	3
104	104	8
26	27	2
75	75	3
4	4	3
29	29	3
64	64	3
135	135	5
34	34	4
111	113	2
75	83	1
125	125	4
39	41	2
51	52	2
145	146	1
42	42	7
73	73	2
10	11	2
118	118	1
131	131	6
49	49	8
137	137	2
142	142	4
78	79	1
106	106	3
99	144	1
59	61	3
1	2	2
117	117	3
67	67	5
15	15	5
77	77	2
127	127	4
129	130	3
94	104	1
120	122	2
1	1	11
133	133	2
139	140	1
109	109	3
102	103	4
59	73	1
11	11	3
122	122	1
14	14	2
69	70	1
117	121	2
84	84	4
85	85	3
134	135	3
18	18	2
61	61	5
27	27	5
18	21	1
99	100	4
87	108	3
20	21	2
52	87	1
17	17	3
93	98	1
123	123	4
6	17	1
91	92	6
30	35	1
35	36	5
133	134	1
125	126	3
129	129	2
111	115	1
4	5	1
79	80	1
47	65	2
69	69	1
65	135	1
57	134	1
66	66	2
123	124	1
118	119	3
132	132	3
17	18	2
51	51	5
56	87	1
125	144	1
23	24	1
95	96	5
102	102	4
118	120	1
120	133	1
145	145	3
137	138	2
48	75	1
1	29	1
12	13	2
97	108	1
32	33	1
75	76	2
129	135	1
70	71	3
103	103	4
76	76	3
53	120	2
64	75	1
1	41	1
20	20	6
30	31	1
70	111	1
25	26	1
110	110	6
9	9	9
66	134	2
126	126	5
84	85	2
3	3	5
91	102	1
24	24	4
108	108	1
121	121	2
0	1	2
107	107	2
6	37	1
73	91	1
103	125	2
72	72	1
91	129	1
41	56	1
37	37	4
94	118	1
58	59	1
140	141	4
48	48	4
118	123	1
111	111	2
30	30	2
53	53	3
48	53	1
90	105	1
50	50	3
31	31	3
112	115	2
16	16	3
21	21	3
72	92	1
129	134	2
33	33	3
19	90	1
97	98	2
143	143	3
31	83	1
92	93	2
136	137	1
83	85	1
82	82	2
50	73	1
2	27	1
94	94	2
101	102	1
82	113	1
87	87	5
39	40	1
84	86	1
60	60	4
130	134	1
50	63	1
38	39	1
27	28	1
41	41	3
37	55	1
99	99	5
116	118	3
144	144	2
104	105	5
100	103	1
63	64	1
91	91	4
89	91	2
56	91	2
24	29	1
139	139	2
25	25	2
58	58	5
138	138	3
32	32	3
6	6	1
12	17	1
92	105	1
21	25	1
109	134	1
108	120	1
43	43	4
32	34	1
138	139	1
32	35	1
97	141	1
74	130	1
89	90	1
72	135	1
68	69	1
56	83	1
83	83	2
14	17	2
13	16	1
13	106	2
12	12	2
74	76	1
144	145	1
77	113	1
54	123	1
130	130	1
16	19	1
71	72	2
90	90	3
97	129	1
39	114	1
19	19	5
65	104	1
60	93	1
64	78	1
81	107	1
71	90	1
64	132	1
70	70	1
89	93	1
10	10	3
12	25	1
86	100	1
87	89	1
47	57	1
142	143	3
29	30	1
34	35	1
59	59	4
25	116	1
23	124	1
50	55	1
21	22	1
146	146	1
62	63	1
102	140	1
119	122	1
41	42	2
36	39	1
95	95	2
119	120	3
93	97	1
107	118	1
117	118	1
141	142	1
31	32	1
55	56	1
1	5	1
114	118	1
97	125	1
120	136	1
105	106	1
46	70	1
125	128	1
52	62	1
28	29	1
76	77	1
17	29	1
92	94	1
55	55	5
90	91	1
61	71	1
83	84	1
62	62	2
34	84	1
48	52	1
95	129	1
33	34	1
54	91	1
13	24	1
98	142	1
119	119	3
65	65	1
84	92	1
131	132	2
19	20	2
76	80	1
39	39	2
72	73	1
86	93	1
110	111	1
56	57	1
70	139	1
81	81	2
109	112	1
110	113	1
129	140	1
35	35	2
57	57	1
33	35	1
71	74	1
60	61	1
93	101	1
38	38	1
23	23	2
3	4	1
126	144	1
61	62	1
109	110	1
77	80	1
118	133	1
17	20	2
104	126	1
61	108	1
115	115	2
4	35	1
123	131	1
25	36	1
68	73	1
35	43	1
4	36	1
42	48	1
135	137	1
47	47	1
113	113	1
117	124	1
67	86	1
128	129	1
49	51	1
87	90	1
17	31	1
49	56	1
61	64	1
13	14	1
106	125	1
87	88	1
61	73	1
49	62	2
37	50	1
124	144	1
88	90	1
28	28	1
26	26	1
98	99	1
37	42	1
124	134	1
26	50	1
29	40	1
78	78	1
