68	68	5
75	75	7
85	85	7
127	127	7
111	111	9
17	17	9
28	29	2
96	96	4
12	12	9
81	82	2
61	67	2
31	93	1
124	128	1
112	113	3
59	59	11
2	2	10
25	26	2
35	36	2
75	76	3
35	35	5
21	21	4
11	11	10
8	10	2
86	86	3
129	130	2
23	23	3
130	132	1
77	92	1
10	46	2
71	71	5
61	61	5
90	90	6
59	78	1
111	128	1
94	95	4
116	116	8
22	24	1
61	62	2
19	20	3
76	76	4
37	40	1
80	80	10
108	108	10
81	81	4
65	66	3
109	110	1
25	42	3
40	40	4
132	133	1
94	94	3
120	129	2
109	109	5
103	106	2
85	100	1
74	74	7
12	97	1
15	15	7
1	1	5
79	79	5
120	120	2
91	91	3
21	22	3
73	73	2
80	124	1
106	106	8
23	48	1
115	115	5
2	3	4
64	65	2
73	78	1
0	0	9
131	131	6
94	98	1
68	125	2
93	93	13
131	133	3
112	112	7
21	49	2
134	134	4
48	48	1
4	5	2
44	44	7
66	66	10
98	100	3
96	126	1
13	13	5
9	44	1
47	57	1
97	97	6
81	126	2
27	28	2
4	17	2
45	45	5
49	49	3
126	131	1
85	112	3
70	70	6
29	30	6
113	114	1
25	25	4
23	50	1
10	13	2
104	104	6
18	18	11
62	85	1
114	114	3
72	72	6
24	25	2
128	128	5
32	32	4
73	74	4
8	17	1
97	99	1
117	117	6
20	21	3
121	121	4
69	69	3
42	42	3
46	46	6
68	69	4
113	113	3
77	94	2
92	120	1
7	43	2
128	129	2
62	62	13
119	119	7
72	114	1
16	28	2
101	110	1
84	122	1
132	132	5
83	83	3
122	131	1
17	43	2
34	56	1
67	69	1
78	94	1
130	130	6
30	41	1
4	12	1
66	67	3
36	36	6
67	68	1
64	130	1
46	47	2
8	105	1
110	110	7
30	32	1
20	20	4
98	101	1
80	81	1
84	84	4
7	8	1
63	63	6
129	132	1
40	41	3
15	36	1
123	124	1
58	59	1
112	118	2
104	108	1
15	58	1
121	131	1
50	50	3
28	34	2
87	87	4
78	80	2
95	95	10
7	7	7
42	56	2
103	104	1
6	6	6
77	77	3
37	39	1
97	98	4
3	3	5
61	63	1
75	118	1
124	124	4
99	100	1
87	89	1
33	34	4
58	58	5
69	70	1
97	126	1
63	64	1
30	31	2
21	25	2
8	49	1
37	37	4
9	9	8
110	111	3
129	129	5
65	65	6
71	73	1
125	125	4
107	107	5
102	105	2
95	96	1
123	123	3
125	134	1
28	28	3
56	56	2
76	97	1
33	43	2
93	96	2
101	101	4
34	35	1
8	8	10
93	94	4
106	107	1
122	122	4
14	18	1
83	85	1
78	79	2
99	121	2
13	35	1
27	32	1
30	30	2
62	70	2
22	22	5
3	4	2
14	14	3
23	27	2
10	10	2
68	116	1
70	72	1
39	42	1
26	26	2
33	33	2
50	57	4
62	63	2
103	103	2
78	78	7
18	80	1
32	35	1
82	125	1
80	126	1
67	67	2
57	99	1
4	4	2
77	129	1
43	43	2
57	57	7
11	12	2
56	86	1
16	16	2
100	101	1
32	40	1
130	133	1
118	124	2
26	29	1
90	91	1
103	133	1
39	43	1
5	5	4
47	47	6
91	112	2
83	86	1
114	116	2
57	58	3
6	7	1
0	1	1
118	118	5
14	15	2
59	60	2
14	29	1
29	29	4
109	111	1
16	31	1
111	112	1
64	64	4
111	122	1
117	118	1
83	90	1
72	73	3
91	101	1
44	45	3
82	82	4
63	122	1
5	8	2
79	124	1
133	134	3
61	75	1
19	19	4
36	37	1
1	63	1
69	74	2
1	3	1
77	78	2
32	60	2
116	119	1
78	86	1
20	45	1
38	38	3
100	100	2
86	124	1
29	31	4
10	11	1
0	29	1
85	97	1
94	111	1
96	99	1
93	95	1
6	15	1
133	133	2
70	114	1
55	55	1
48	57	1
36	38	2
113	116	1
79	108	1
89	92	1
84	105	1
9	17	1
31	48	1
43	44	1
30	42	1
89	121	1
50	56	1
24	24	2
80	84	1
92	92	1
39	40	1
26	27	1
70	71	2
79	80	1
44	46	2
84	87	1
14	27	1
45	46	1
109	133	1
91	123	2
27	27	3
9	10	1
12	13	1
85	86	4
5	13	1
102	103	1
6	57	1
69	93	1
107	108	1
74	82	1
102	102	1
122	123	1
111	129	1
115	116	1
56	57	1
28	39	1
78	121	1
61	68	1
45	78	1
63	134	1
57	75	1
31	33	1
86	87	1
92	93	1
1	62	1
91	92	1
31	55	1
23	24	1
20	24	1
39	39	1
21	24	1
26	31	1
76	117	1
40	42	1
22	25	1
126	133	1
121	122	1
78	92	1
60	134	1
3	18	1
60	95	1
126	126	3
109	131	1
32	36	1
96	113	1
39	41	1
22	32	1
90	101	1
101	105	1
34	34	1
97	128	1
105	105	1
16	59	1
82	83	2
34	63	1
47	60	1
49	50	1
65	77	1
36	39	1
5	32	1
8	57	1
87	92	1
68	70	1
117	134	1
60	60	1
109	129	1
5	11	1
130	131	1
99	99	1
