195	196	1
224	225	1
203	203	2
133	133	2
164	181	2
127	131	2
175	181	3
54	54	7
216	217	1
220	220	2
62	62	2
199	200	1
147	147	3
205	205	3
65	65	3
81	81	2
102	145	2
64	65	1
139	140	2
166	167	1
157	157	3
143	143	4
110	110	3
15	15	1
105	105	4
150	150	5
204	205	1
145	145	1
140	141	3
58	60	1
192	198	1
177	177	8
79	80	2
23	23	1
141	141	3
123	123	4
3	3	1
9	9	1
188	188	1
119	119	6
224	234	1
123	125	1
30	45	1
208	208	2
67	68	1
116	121	1
128	128	3
124	124	3
173	173	3
26	28	1
163	163	2
73	73	1
133	155	1
36	40	1
4	5	7
151	151	4
15	17	1
182	184	1
127	146	2
11	61	1
215	229	1
156	156	3
77	77	3
40	40	2
99	99	7
171	171	4
120	120	1
23	228	2
0	0	5
63	63	5
4	4	8
2	2	5
153	153	5
99	100	2
164	164	3
168	168	7
170	171	2
144	146	3
207	207	2
129	130	1
107	107	3
155	167	1
228	229	1
47	47	6
207	209	2
131	131	2
162	162	1
2	6	3
86	89	1
113	119	1
241	241	4
116	118	1
242	242	4
162	184	1
27	27	3
31	39	1
144	147	1
167	167	5
137	137	9
181	181	2
84	84	6
204	204	1
221	222	1
167	169	1
24	24	2
76	76	5
144	145	2
161	161	3
222	222	3
57	59	1
184	184	3
157	159	1
191	191	2
29	29	1
239	239	3
1	1	1
165	165	1
7	7	1
125	126	1
71	71	1
82	83	1
25	232	1
39	39	2
188	189	1
148	149	1
60	60	2
154	154	3
236	236	1
135	136	2
97	102	1
71	72	1
212	216	1
112	134	1
10	10	1
130	130	4
61	61	6
14	133	1
53	55	1
165	166	4
116	116	3
192	192	3
237	237	3
121	132	1
138	140	1
210	210	1
188	212	2
179	180	1
155	156	2
108	108	1
158	171	1
158	159	2
127	127	4
30	30	2
58	58	1
22	22	1
137	138	4
41	42	1
217	217	1
226	226	1
62	63	1
113	113	6
32	169	1
110	184	2
46	47	2
227	228	1
146	146	3
106	106	2
44	44	2
229	229	2
200	200	1
107	135	1
114	114	1
230	231	1
102	102	3
7	8	1
20	21	2
149	150	1
77	79	1
166	166	2
179	182	2
135	137	1
109	110	1
125	125	4
28	28	2
174	174	2
175	175	1
152	152	3
50	50	3
82	82	1
169	170	1
158	158	1
80	80	4
156	157	2
75	75	3
104	104	3
126	126	3
186	186	7
24	145	1
6	6	4
183	183	2
11	11	3
26	26	3
59	59	4
233	233	2
160	161	3
118	119	2
79	81	2
56	56	2
234	234	2
74	74	4
122	129	1
36	36	6
162	163	1
111	111	3
10	19	1
8	8	3
175	177	1
204	231	1
161	200	2
180	180	2
176	176	4
141	143	2
120	127	1
97	97	4
14	14	4
43	44	2
6	15	1
85	85	2
30	68	2
48	49	1
96	96	2
230	230	2
235	237	1
21	21	2
231	231	1
25	25	2
18	18	2
169	169	1
24	204	1
121	121	3
115	116	2
171	200	2
115	115	3
154	172	1
194	195	1
38	38	2
139	139	1
46	46	1
49	50	1
124	125	1
78	79	1
214	214	2
73	85	1
160	160	2
30	32	1
182	185	1
13	13	2
21	188	1
215	216	1
108	149	1
48	48	1
12	17	1
68	68	2
17	17	1
107	108	2
169	179	2
23	187	2
50	52	1
12	12	1
185	186	1
101	102	2
20	20	2
213	213	1
15	60	1
198	198	2
109	118	1
178	178	3
34	34	4
49	49	3
70	70	1
98	100	1
206	206	1
7	9	1
240	240	3
42	42	3
177	181	1
177	178	1
182	182	2
39	42	1
26	27	2
5	5	2
194	210	1
51	52	1
64	64	3
27	70	1
197	197	1
95	96	1
27	28	1
2	4	1
223	224	1
191	193	1
67	67	5
128	131	1
159	159	4
234	236	2
161	162	1
95	95	1
179	188	1
118	118	3
1	5	1
142	163	1
106	111	1
181	182	1
104	105	2
229	230	2
69	69	2
189	190	1
214	215	1
171	172	1
108	167	1
187	187	3
0	2	1
37	38	1
180	181	1
202	219	1
142	143	1
195	195	2
152	156	1
102	103	1
182	183	2
35	35	1
154	155	1
1	7	1
29	32	1
136	154	1
21	23	1
53	53	1
48	68	1
179	179	1
129	131	1
224	224	1
16	16	5
146	147	1
40	41	1
209	209	1
101	101	1
38	168	1
194	209	1
68	69	2
134	134	1
86	86	2
190	216	1
0	8	1
45	62	1
13	17	1
146	148	1
96	97	1
39	40	2
141	142	1
212	212	1
21	56	1
111	127	1
56	57	3
215	215	1
13	14	1
172	173	1
72	72	1
169	171	1
125	146	1
149	149	1
216	216	1
211	213	1
193	196	1
132	144	1
141	144	1
120	121	1
117	118	1
52	53	2
76	79	1
39	43	1
181	198	1
103	104	1
78	80	1
223	223	1
114	140	1
173	174	2
45	45	1
98	99	1
220	221	1
133	135	1
113	114	1
57	57	2
213	215	1
0	1	1
111	135	1
85	86	1
191	209	1
55	55	1
62	66	2
150	151	1
238	239	1
140	140	1
20	166	1
89	91	1
162	182	1
3	16	1
232	232	1
191	192	1
100	100	1
98	98	1
30	46	1
33	36	1
6	157	1
26	68	1
105	145	1
184	185	1
