118	120	2
128	128	1
142	142	1
67	67	1
191	192	1
139	139	4
140	140	3
33	33	1
157	157	5
50	51	2
86	86	4
103	118	1
166	193	1
32	32	5
177	177	2
13	14	2
1	3	1
149	149	2
9	182	1
68	68	2
113	140	2
151	152	3
54	66	2
148	148	4
142	155	1
181	181	1
168	169	1
79	79	5
192	192	4
193	194	1
45	45	4
70	70	1
23	23	2
27	27	2
41	41	4
130	131	2
184	184	5
59	59	3
101	104	3
79	89	2
88	88	1
89	89	2
162	162	2
5	5	4
26	26	5
35	35	2
77	77	1
0	4	1
164	164	1
6	6	2
151	151	2
32	33	1
46	46	3
129	129	1
189	190	1
67	112	1
153	153	1
197	197	2
3	3	2
105	106	2
131	131	1
124	130	1
47	47	2
137	147	1
158	158	1
4	4	3
14	14	2
54	54	3
39	39	2
78	78	2
156	156	5
194	194	1
28	28	2
16	16	3
34	34	3
64	81	2
63	63	2
73	95	1
17	17	1
80	80	2
137	137	3
183	187	1
160	161	1
127	127	4
33	39	1
145	153	1
65	182	1
39	44	1
177	178	2
71	71	1
73	73	6
187	187	3
25	193	2
185	185	2
55	55	1
18	19	2
2	2	1
38	38	2
88	89	2
46	196	1
134	134	3
157	158	1
170	170	1
143	143	3
186	186	2
142	146	1
20	20	1
19	19	3
61	66	1
31	31	2
154	154	1
139	140	1
188	191	1
135	135	1
37	194	2
96	97	1
188	192	1
60	60	3
35	188	2
173	178	1
104	106	1
113	153	1
147	154	1
135	143	1
110	118	1
71	73	2
11	11	1
187	192	1
62	88	1
193	193	6
145	167	1
18	29	1
43	184	1
50	50	2
167	167	3
37	38	3
34	35	1
42	42	2
169	170	2
77	90	1
132	133	1
10	10	5
144	144	5
13	13	2
24	33	1
37	137	1
20	24	1
180	180	2
85	109	2
79	109	2
143	145	1
9	9	3
108	114	1
37	176	1
49	62	1
8	35	2
4	29	1
24	26	1
27	28	1
124	124	3
48	48	2
26	36	2
5	6	1
134	150	1
133	134	1
161	164	1
10	44	1
36	37	1
162	165	1
18	38	1
28	75	1
172	178	1
160	160	1
15	15	2
105	119	1
115	118	1
118	118	2
81	88	1
142	143	2
40	40	4
30	30	1
40	125	1
29	102	1
25	25	3
165	167	1
127	133	1
189	191	1
30	167	1
133	133	2
53	53	1
152	152	1
36	36	1
39	84	2
21	46	1
168	181	2
80	84	1
121	121	1
136	138	1
161	161	1
58	58	1
81	81	3
124	139	1
14	156	1
47	48	1
171	195	1
45	46	1
94	96	1
75	94	1
24	25	1
173	188	1
154	155	1
1	1	2
4	7	1
16	17	2
38	42	3
41	72	1
183	183	5
155	186	1
176	180	1
24	36	1
123	123	3
176	184	1
152	153	2
110	110	1
52	52	2
30	105	1
165	165	1
80	81	1
17	46	1
113	183	1
176	177	1
76	76	2
133	135	1
109	110	1
37	40	1
1	2	1
102	105	1
58	100	1
146	148	1
21	21	1
8	39	1
48	51	1
34	37	1
3	26	2
196	196	1
74	75	1
75	98	1
89	128	1
176	178	1
191	191	1
7	8	1
30	32	1
182	193	1
7	7	1
121	141	1
172	172	1
142	144	1
22	22	1
12	13	1
125	125	1
18	18	1
22	24	1
43	44	1
144	145	1
107	107	1
13	43	1
44	44	1
169	182	1
49	49	1
4	24	1
186	187	1
123	195	1
3	8	1
32	39	1
158	165	1
123	124	1
83	83	1
110	155	1
8	8	1
110	111	1
