77	77	1
90	90	6
40	41	3
48	48	3
91	91	13
45	45	6
104	104	2
21	22	1
73	73	2
82	106	1
92	92	12
47	49	2
51	51	4
56	57	2
54	97	1
91	93	6
23	109	1
74	74	3
81	81	5
79	79	3
74	93	1
25	27	3
91	92	3
45	110	1
89	89	2
50	50	3
100	100	2
95	96	2
88	88	3
93	93	4
27	41	1
65	93	1
53	53	2
76	80	1
96	96	3
20	20	6
42	42	6
45	46	1
102	102	5
97	97	3
72	74	1
75	75	3
109	110	5
29	29	6
68	94	1
90	91	4
22	83	1
84	88	3
22	23	1
80	80	2
112	112	1
70	98	2
99	99	8
38	39	1
61	61	1
44	44	4
96	97	1
38	38	5
46	46	2
110	110	8
65	66	2
51	52	3
76	77	2
108	108	3
80	84	1
93	108	3
26	26	4
103	103	1
60	60	4
58	58	5
64	64	4
32	32	3
20	21	1
88	90	1
89	92	2
95	95	6
56	59	1
78	78	3
40	40	5
111	111	2
93	94	2
113	113	5
76	76	1
55	57	1
68	68	3
34	34	1
50	51	1
27	28	1
79	100	1
106	107	1
23	53	1
83	83	2
73	75	2
98	100	1
43	44	1
28	29	1
42	43	2
57	57	3
27	40	2
81	91	4
44	45	3
43	43	2
25	45	1
59	108	1
63	63	1
87	90	1
53	67	1
22	24	2
36	37	1
81	82	2
114	114	1
86	86	3
41	42	1
81	90	3
105	105	3
24	24	4
103	104	2
66	66	2
24	27	2
110	111	1
23	28	2
90	92	1
86	87	1
60	67	2
60	107	1
85	86	3
100	101	2
92	94	1
70	71	1
22	37	1
98	98	4
47	47	3
52	52	1
21	21	3
26	29	1
37	37	1
71	71	1
30	31	1
35	36	2
107	107	2
21	33	1
81	107	1
113	114	1
37	45	1
47	51	1
59	78	1
49	50	2
84	84	1
84	97	1
94	94	1
107	109	1
54	78	1
64	66	1
61	69	1
26	27	1
37	52	1
45	50	1
22	22	2
55	55	1
39	39	1
72	73	2
87	88	1
21	23	1
73	95	1
72	72	1
35	35	3
62	62	1
78	79	4
101	101	1
78	84	1
81	93	1
22	53	1
99	100	1
24	25	3
69	69	1
49	49	2
67	67	2
103	106	1
85	85	1
33	33	1
65	65	1
76	103	1
69	70	1
76	78	1
100	113	1
70	83	1
79	95	1
101	103	1
79	84	1
61	67	1
30	30	2
39	41	1
59	60	1
46	47	1
56	56	2
74	96	1
69	71	1
20	50	1
28	28	1
102	110	1
54	54	1
46	49	1
75	92	1
27	91	1
25	26	1
77	103	1
111	112	1
20	52	1
71	72	1
