46	46	2
183	183	2
124	125	1
69	101	1
154	182	1
0	0	2
226	226	2
25	39	1
136	136	4
196	196	1
238	238	1
31	31	3
220	220	3
133	134	3
78	107	1
105	109	1
165	166	4
66	67	2
215	215	5
73	74	1
168	168	2
2	21	1
127	127	5
24	24	1
114	138	1
164	164	2
151	161	1
33	37	2
106	106	2
171	171	2
162	162	4
44	79	1
166	167	2
156	157	2
169	169	6
3	12	1
34	49	1
145	145	3
222	222	3
79	81	1
205	206	1
9	10	4
170	170	6
160	160	5
149	149	5
228	228	2
107	108	1
151	151	4
167	167	3
58	59	2
12	15	2
154	155	1
158	185	1
124	124	2
201	223	1
3	41	1
97	97	1
99	99	2
206	207	2
160	163	1
42	42	3
157	183	1
116	116	4
102	102	3
2	2	1
140	142	2
113	206	1
59	60	1
11	192	2
130	130	2
171	240	1
75	75	2
177	202	2
70	70	4
160	167	1
190	198	1
117	138	3
182	182	6
105	106	1
115	117	1
74	74	3
185	185	2
71	71	5
125	127	2
231	231	2
53	53	4
171	177	2
224	225	3
160	168	1
39	227	3
65	171	1
126	126	1
16	16	5
217	218	2
30	30	3
99	101	1
155	165	1
50	50	1
130	143	1
119	119	2
0	8	1
32	32	4
63	85	1
14	16	2
197	197	2
105	105	5
163	164	1
77	77	3
44	44	1
64	65	2
43	47	1
12	12	1
47	47	1
14	14	7
85	85	3
148	151	1
181	181	4
150	150	1
128	128	3
122	139	1
188	190	1
166	185	1
65	65	2
182	184	2
61	61	4
38	38	8
191	191	3
208	208	2
109	109	2
33	44	1
179	180	2
35	35	1
10	10	1
73	73	7
133	133	2
134	135	2
161	182	1
190	190	2
2	14	1
63	63	1
201	202	1
11	229	1
233	233	2
164	167	1
5	15	1
15	15	4
154	165	4
51	52	1
153	159	2
0	1	3
98	99	3
20	20	3
30	176	1
28	44	1
121	121	3
75	91	2
83	84	2
89	92	3
52	53	3
115	115	2
101	101	3
192	192	2
182	193	1
86	113	1
18	148	1
108	110	1
194	194	2
34	35	2
235	235	3
228	231	1
161	163	1
66	66	1
79	82	1
223	228	1
181	203	1
157	157	2
4	22	1
64	64	2
19	19	3
158	199	2
66	73	1
72	73	1
33	45	2
199	199	4
170	172	1
59	59	1
225	227	2
172	172	1
50	53	4
219	231	1
21	23	2
107	229	1
5	5	3
8	8	5
149	150	2
184	186	1
126	139	1
74	85	2
203	230	1
33	34	2
6	168	1
119	209	2
45	45	4
214	216	1
169	187	1
69	69	2
164	184	1
82	82	4
6	18	1
161	161	2
66	167	1
41	41	4
238	239	2
141	162	2
188	221	1
224	224	1
150	151	2
204	235	1
27	27	3
156	156	2
152	152	1
227	227	3
11	11	3
191	194	1
154	156	2
13	14	3
19	20	1
71	72	1
163	182	1
176	177	1
13	13	2
158	158	3
56	56	2
21	21	3
120	172	1
63	74	1
3	3	3
128	151	2
191	208	1
221	221	2
3	37	1
15	17	1
68	69	1
155	156	1
206	206	2
195	239	1
182	225	1
129	145	2
11	230	2
167	168	2
69	70	1
202	220	1
200	200	2
20	32	2
74	106	1
3	24	1
212	212	1
26	26	3
142	143	2
32	33	3
117	117	5
25	26	2
180	187	1
23	23	2
143	183	1
188	188	1
86	86	2
112	112	1
153	158	1
174	174	4
55	75	1
114	114	1
176	176	2
75	76	1
125	125	1
232	233	2
4	23	2
27	45	1
242	242	1
186	187	2
57	57	1
7	20	1
49	49	2
80	84	2
54	54	3
132	132	1
100	100	4
39	39	1
180	180	1
213	213	1
165	168	1
120	169	1
76	78	1
234	234	1
55	106	1
240	240	1
138	141	1
175	176	1
28	28	1
9	39	1
218	218	2
85	86	2
220	228	1
125	139	1
146	147	1
140	140	2
175	178	3
46	65	1
149	156	1
223	223	1
114	136	1
115	116	1
153	185	1
230	231	1
139	142	1
96	96	3
113	113	2
40	107	1
210	210	2
7	18	1
40	40	3
178	178	1
154	154	1
17	33	1
193	194	2
67	67	3
121	149	1
204	204	1
201	235	1
51	51	1
8	230	1
33	114	1
141	142	1
39	88	1
212	214	1
116	138	2
80	81	1
179	187	1
177	177	2
111	112	1
78	78	1
120	162	1
219	219	2
0	7	1
104	104	4
17	17	1
239	240	1
189	189	2
25	25	2
36	36	1
112	113	1
180	225	1
138	140	1
62	103	1
7	8	2
43	43	3
32	64	1
138	142	1
175	175	2
166	166	1
76	77	1
31	32	2
158	238	1
179	204	1
171	174	1
10	201	2
118	146	1
148	148	2
107	107	1
109	114	1
18	18	1
153	153	1
118	119	1
139	139	2
18	19	1
37	37	1
7	167	2
52	52	1
155	155	1
148	149	1
83	83	2
22	22	3
73	90	1
179	182	1
13	80	1
3	7	1
81	82	1
107	123	1
87	87	1
144	204	1
171	201	1
19	229	1
204	207	2
4	4	1
39	62	1
7	38	1
159	165	1
103	115	1
225	225	1
50	82	1
141	141	1
143	143	2
118	118	1
40	41	1
202	202	1
239	241	1
52	54	1
137	137	1
60	63	1
27	71	1
7	11	1
46	47	1
11	12	1
206	209	1
62	62	2
241	241	2
118	205	1
137	138	1
12	38	1
9	24	1
214	215	1
158	159	1
182	227	1
47	61	1
27	64	1
9	9	1
5	6	2
184	184	1
157	166	1
211	211	1
18	229	1
66	86	1
50	54	1
146	146	1
39	43	2
139	141	1
179	203	1
193	193	1
111	111	1
32	146	1
140	143	1
237	237	1
74	78	1
171	172	1
76	133	1
134	144	1
131	131	1
46	85	1
46	72	1
18	150	1
25	73	1
88	88	1
66	89	2
15	36	1
84	84	1
184	185	1
23	84	1
37	43	1
172	173	1
202	218	1
202	203	1
72	75	1
76	76	1
70	98	1
12	13	1
168	170	1
187	187	1
230	230	1
65	177	1
50	55	1
159	160	1
186	223	1
106	111	1
23	85	2
55	56	1
48	49	1
158	184	1
135	136	1
172	178	1
10	11	1
1	1	1
106	109	1
98	98	1
214	222	1
51	57	1
155	158	1
155	163	1
