87	87	1
30	45	2
67	67	1
81	81	2
133	133	5
41	41	3
144	144	4
135	135	7
65	68	1
156	158	1
174	174	2
159	162	1
139	140	2
118	118	3
131	131	6
164	166	2
57	57	2
79	79	5
106	106	3
9	41	1
122	122	5
95	95	3
33	33	5
152	152	2
169	170	3
37	37	1
136	140	1
34	34	2
56	56	3
5	5	5
117	117	3
42	42	1
141	141	1
147	152	1
114	114	1
45	51	2
53	53	2
9	9	5
150	150	1
123	123	2
152	153	3
38	38	5
72	72	3
90	90	4
154	154	3
80	80	1
151	153	3
43	43	1
168	169	1
100	100	3
90	96	1
170	171	4
72	74	1
151	151	3
7	7	2
2	5	1
26	26	2
18	18	1
176	176	2
78	78	2
10	10	3
17	18	1
127	127	5
17	65	1
96	96	3
25	26	2
140	140	3
92	92	3
86	86	5
71	71	2
109	109	6
174	177	1
62	100	1
177	177	2
1	2	3
77	134	1
71	77	1
120	120	1
105	110	1
121	121	5
142	170	1
120	124	1
109	110	1
89	91	1
43	62	1
140	168	2
99	99	2
64	106	1
7	8	1
134	134	3
102	102	2
12	30	1
40	63	2
6	6	3
85	85	2
9	52	1
8	8	3
108	108	3
28	29	3
97	124	3
107	109	1
122	126	2
104	104	4
112	112	4
39	39	2
31	41	1
61	61	2
15	15	5
23	23	2
170	170	2
119	119	4
138	139	2
172	172	4
158	158	4
130	131	2
88	127	3
88	88	2
140	149	1
139	139	2
65	66	4
16	35	1
16	67	1
13	13	1
67	124	1
136	136	2
55	55	4
159	159	4
97	125	1
171	171	4
157	157	2
96	99	1
130	130	1
126	126	3
116	117	1
95	98	1
14	14	2
22	22	1
84	85	1
3	3	1
17	17	1
173	173	3
148	149	3
111	112	1
94	95	1
143	143	1
67	108	1
71	72	1
6	7	1
158	161	1
140	141	2
58	59	1
173	175	1
16	16	1
128	164	1
22	27	2
175	175	3
97	98	1
163	167	1
81	90	1
148	148	3
152	154	1
12	13	2
120	121	1
16	45	1
179	179	3
81	86	1
145	145	1
81	82	1
147	148	1
37	38	2
14	15	2
127	128	1
132	133	2
40	40	1
136	137	1
138	138	1
49	51	1
38	137	1
92	93	1
59	59	1
149	149	6
78	88	1
174	176	1
2	2	5
159	160	1
76	76	2
34	35	1
10	17	1
160	160	2
137	138	1
96	126	1
64	105	1
67	68	5
103	103	1
98	99	1
153	168	1
77	78	3
122	123	1
73	74	1
125	125	1
35	35	1
111	131	1
154	157	1
12	44	1
66	66	1
18	63	1
85	90	1
128	128	2
0	0	2
26	30	2
145	146	1
14	41	1
4	4	1
94	94	1
105	105	1
113	115	1
91	99	1
52	52	2
44	44	2
157	159	1
31	32	1
98	98	1
32	32	1
11	27	1
43	44	1
42	49	1
45	50	1
144	145	1
171	172	1
25	30	1
163	163	3
154	161	1
31	31	1
16	17	1
89	89	1
21	21	1
4	5	1
164	165	2
140	169	1
62	62	1
63	86	1
68	68	1
155	164	1
74	78	1
155	155	1
96	97	1
38	118	1
115	148	1
147	147	1
165	167	1
169	169	1
18	23	1
126	142	1
16	26	1
34	36	1
111	111	2
112	114	1
82	82	3
66	67	1
156	157	1
63	65	1
155	166	1
67	71	1
11	13	1
166	166	1
152	162	1
119	121	1
19	26	1
180	180	2
45	45	2
141	142	1
27	27	1
24	24	1
168	168	1
61	62	1
84	84	1
19	19	1
64	66	1
178	178	1
87	90	1
125	143	1
83	84	1
142	142	1
143	145	1
