76	77	3
193	194	4
27	27	2
234	234	3
212	213	3
89	106	3
238	239	5
84	84	2
20	20	3
198	240	1
242	242	7
109	109	4
208	208	7
176	176	4
226	227	3
230	230	4
233	233	4
86	101	2
115	115	2
240	241	3
79	79	3
90	91	2
168	168	2
239	239	5
67	67	3
212	215	1
207	207	7
55	55	7
11	11	1
6	7	2
31	204	1
244	244	3
149	150	2
91	91	4
55	57	1
166	166	2
207	210	1
154	154	3
98	99	1
226	231	1
218	218	11
194	194	4
202	202	8
35	37	1
165	165	4
210	210	5
210	213	1
192	192	3
44	44	3
95	95	3
97	97	1
186	186	2
73	73	1
94	94	3
96	96	1
27	28	3
164	164	6
48	52	1
19	19	5
181	211	2
21	21	1
30	30	5
224	224	6
94	95	3
246	246	2
52	90	2
34	35	2
223	223	1
171	171	8
245	245	3
161	161	4
88	88	2
226	226	3
57	59	1
205	206	4
231	231	5
37	37	5
167	167	4
169	170	3
163	163	3
194	221	1
205	205	5
68	71	1
185	219	1
105	106	1
240	240	7
161	174	1
42	42	3
228	228	3
178	178	7
102	102	2
225	226	2
173	173	3
188	189	3
34	34	1
181	181	5
75	75	3
214	215	1
116	116	4
179	179	3
98	98	6
71	71	5
215	218	2
182	183	1
245	246	1
107	107	3
120	120	1
193	210	1
193	196	2
236	236	6
108	108	3
216	216	7
248	248	4
1	43	1
209	209	5
192	197	1
78	78	2
177	178	2
2	2	4
187	187	5
193	195	2
164	165	2
233	235	1
172	172	3
57	57	3
180	180	7
223	246	3
3	3	1
119	119	4
163	176	2
92	93	1
220	221	2
18	19	1
146	150	1
56	57	3
155	155	7
69	69	2
7	7	1
191	201	2
195	195	3
169	169	4
106	106	3
101	101	3
53	53	4
222	239	1
201	202	3
158	179	1
51	90	1
114	115	2
204	204	2
179	180	3
61	61	2
175	175	4
219	219	4
51	51	1
203	245	1
202	203	3
38	38	5
197	197	4
0	1	1
213	213	4
218	219	1
197	200	2
202	234	1
64	65	2
183	183	7
150	151	2
238	241	1
227	228	4
189	190	1
159	159	3
39	40	2
6	6	3
220	220	4
88	89	2
208	209	1
222	222	5
97	98	2
59	59	2
189	220	1
215	216	3
229	229	2
228	236	1
236	238	1
69	73	1
216	217	4
203	203	3
170	171	4
33	33	2
91	92	2
58	58	3
8	38	1
81	81	3
168	184	2
2	4	1
41	41	2
227	229	3
51	57	1
101	102	1
82	82	2
191	192	3
30	31	1
177	177	4
60	60	3
197	244	1
211	211	2
29	29	2
171	194	1
25	25	3
63	63	2
69	70	2
201	217	1
59	60	2
202	229	1
190	191	2
226	234	2
147	147	1
47	47	1
232	236	1
201	201	4
217	217	4
156	156	3
209	210	2
217	239	2
206	207	2
31	31	3
66	66	3
62	232	1
32	32	3
48	48	6
176	209	1
23	23	3
247	247	1
190	190	2
54	54	3
185	189	2
22	22	2
160	160	2
111	111	4
8	8	1
210	211	3
17	17	1
71	72	3
238	238	3
58	87	1
220	231	1
64	64	2
5	5	3
11	152	2
68	92	1
223	225	2
110	111	1
113	113	4
193	193	1
146	146	1
243	244	1
25	26	2
42	43	2
62	64	1
86	86	2
214	214	2
184	206	1
41	42	2
70	71	2
74	74	3
28	28	6
150	150	2
104	109	1
170	170	6
221	221	8
151	151	2
224	225	1
33	34	1
118	161	1
187	211	1
162	167	1
198	198	2
48	50	1
209	223	1
228	229	1
77	77	2
175	205	1
222	247	1
166	170	1
17	18	1
64	151	1
57	58	1
118	118	2
62	62	2
51	64	1
199	200	3
49	49	3
155	156	1
85	86	1
182	182	2
39	39	1
112	112	2
157	157	1
55	207	1
162	192	3
36	36	2
184	184	4
86	186	1
203	204	1
82	83	4
81	89	1
83	83	1
219	220	1
172	173	2
162	164	1
109	111	1
200	218	1
0	9	1
232	232	1
99	99	1
79	83	3
56	61	2
65	65	2
7	38	1
95	104	1
224	226	1
45	214	1
102	103	2
56	56	1
3	68	2
73	74	1
89	99	1
15	15	4
244	246	1
4	5	1
212	212	2
18	18	3
188	188	1
55	56	2
152	152	3
114	114	1
14	14	3
189	189	1
108	109	1
184	185	1
201	245	1
178	179	2
153	155	1
24	24	1
104	105	2
1	1	1
169	219	2
57	242	1
19	20	1
89	109	1
200	200	1
77	91	1
153	153	1
110	110	2
199	199	1
185	185	3
234	235	1
116	117	3
230	231	3
17	20	1
46	46	1
5	6	2
162	165	1
216	219	1
117	119	2
235	235	1
72	72	1
163	165	1
198	211	1
107	108	1
243	243	4
31	33	1
93	94	1
162	162	3
99	102	2
117	117	1
67	92	1
54	207	1
241	241	1
175	180	1
237	237	1
112	116	2
217	218	2
158	186	1
89	89	2
82	88	1
180	181	2
16	17	1
24	25	1
198	199	1
164	181	2
80	83	1
220	246	1
77	78	1
63	64	1
52	52	1
12	12	2
152	162	1
179	181	1
185	186	1
9	9	2
192	196	1
113	114	1
194	196	1
36	37	1
117	118	4
13	13	1
171	172	1
4	4	1
165	166	1
47	48	1
204	205	1
211	212	1
48	76	1
174	208	1
55	209	1
195	196	1
191	191	2
70	76	1
225	225	1
86	87	1
69	176	1
93	93	1
38	39	2
196	196	2
48	68	1
186	187	1
220	232	1
197	207	1
232	247	1
105	105	2
58	59	1
26	26	1
171	173	1
181	182	1
43	43	1
196	199	1
69	178	1
96	99	1
149	149	1
48	49	1
207	209	1
60	61	1
227	227	1
45	45	1
56	90	1
198	201	1
77	80	1
49	232	1
72	73	1
