146	146	3
163	164	2
64	80	1
126	127	1
49	50	1
51	53	1
6	6	3
72	73	2
37	37	5
93	93	1
84	107	1
150	150	4
47	57	1
143	143	8
18	18	2
155	155	3
157	157	4
44	46	2
136	137	1
7	7	5
5	116	1
52	52	5
103	103	1
75	75	1
51	85	1
142	142	2
104	104	1
66	76	1
151	151	7
112	112	1
13	13	2
47	47	5
158	158	2
78	78	2
120	120	1
39	39	2
42	42	6
15	18	1
14	109	1
161	161	4
46	62	1
85	85	1
12	48	1
66	66	1
15	15	4
138	138	4
43	43	6
117	120	1
16	16	2
110	111	3
65	66	2
106	106	6
166	166	1
74	74	3
36	36	2
134	136	1
68	73	1
21	21	4
8	8	2
67	67	3
109	110	1
49	49	3
140	142	1
111	111	4
139	139	2
11	12	2
28	108	1
46	46	1
154	154	1
156	157	1
73	73	2
38	39	3
56	57	1
147	147	3
74	76	1
120	136	1
65	69	2
36	37	3
8	95	2
146	147	2
149	149	5
147	154	1
147	166	1
114	114	2
137	137	1
136	136	3
69	69	1
37	38	1
28	28	1
0	0	3
122	123	1
24	24	4
12	40	1
0	41	1
148	148	1
46	61	2
3	108	1
107	107	4
114	116	1
38	38	2
153	153	1
80	80	3
154	155	1
159	160	1
127	128	2
75	76	2
162	164	1
152	157	1
70	71	1
127	129	1
20	20	8
120	121	1
126	149	2
25	139	2
163	166	1
25	25	5
165	165	1
153	162	1
90	91	2
70	72	1
62	62	1
152	166	1
129	129	2
77	77	2
111	125	1
46	47	1
146	148	1
151	152	1
2	89	1
147	149	1
153	164	1
160	160	3
115	115	1
127	127	2
128	128	1
124	124	1
12	20	2
83	83	1
81	81	1
80	91	1
7	15	1
157	158	1
40	40	2
112	122	1
24	25	1
108	108	1
34	35	2
25	88	1
118	118	1
79	79	3
144	144	2
105	105	1
119	119	3
0	1	2
55	87	2
58	98	1
27	27	2
47	49	1
107	108	1
168	170	1
128	141	1
85	87	1
17	17	2
44	44	3
4	4	2
148	151	1
41	41	1
132	132	1
63	64	1
167	167	1
110	110	1
121	121	1
98	123	1
155	159	2
4	5	2
99	99	2
24	89	1
2	40	1
89	89	3
159	159	2
27	28	2
88	88	1
65	68	1
117	117	1
45	52	1
50	50	2
166	167	1
49	84	1
44	49	1
63	106	1
10	20	1
139	143	1
64	69	1
96	96	1
92	92	1
122	124	1
33	33	1
64	65	1
45	71	1
169	169	1
130	135	1
94	94	1
145	145	1
170	170	1
63	65	1
13	14	1
83	84	1
68	68	1
21	97	1
138	139	1
131	138	1
143	146	1
140	141	1
51	52	1
66	69	1
87	87	1
9	45	1
