50	50	9
149	149	7
13	15	2
126	126	2
24	84	1
123	123	2
161	161	8
125	125	3
40	40	10
38	38	10
150	151	2
2	4	1
146	146	8
102	104	1
56	161	1
126	127	2
0	0	2
108	109	2
111	111	4
130	130	2
64	71	1
86	86	8
125	128	1
14	14	4
46	46	5
145	146	3
153	153	2
26	26	3
131	132	1
1	2	1
85	85	6
169	169	11
148	148	3
14	15	2
141	162	1
76	76	5
15	15	4
99	99	5
137	137	7
69	69	6
70	88	1
10	10	9
91	108	1
165	165	5
8	8	3
35	35	2
8	12	3
84	85	2
11	12	4
98	98	2
6	7	2
1	106	1
44	44	3
37	37	3
81	85	1
140	140	4
25	25	5
47	48	3
88	89	2
47	47	5
73	73	1
79	79	2
135	136	1
3	3	9
130	131	1
15	26	2
154	154	4
41	41	5
39	40	1
18	18	8
131	140	1
105	105	3
56	57	1
6	6	1
50	161	1
9	10	2
55	163	1
167	167	4
155	155	6
133	133	5
122	123	1
147	166	1
142	142	5
18	19	4
43	43	3
107	107	1
94	95	2
81	81	1
136	137	5
73	76	1
147	147	4
69	70	4
77	77	3
101	101	2
74	74	3
28	28	2
135	135	2
112	114	2
145	164	1
24	24	1
55	55	3
22	22	8
71	117	1
149	150	3
162	162	4
80	80	3
145	145	4
49	49	3
81	82	3
45	52	2
50	51	2
170	170	2
20	20	8
131	131	2
2	2	4
17	17	2
159	159	4
17	18	2
28	82	1
16	16	4
64	64	1
100	100	2
66	67	2
34	34	4
52	52	4
36	36	6
115	115	1
141	141	6
78	119	1
144	144	5
151	151	9
168	168	3
90	91	3
134	134	5
116	116	1
20	22	1
90	117	1
51	51	4
42	42	5
126	134	1
94	97	2
163	163	5
21	21	3
52	53	2
82	85	1
84	84	2
80	81	2
164	167	1
88	88	6
78	78	3
48	48	6
71	116	1
9	9	7
17	24	1
72	72	2
138	140	1
120	120	3
45	45	6
34	35	1
169	170	3
70	89	1
99	117	1
33	33	3
64	65	2
71	71	5
160	160	1
70	70	4
23	23	1
54	163	2
68	68	2
106	137	1
156	156	2
19	19	7
86	89	2
99	105	1
49	162	1
47	55	1
141	153	1
101	102	1
110	111	1
5	5	2
13	13	5
1	4	1
144	163	3
142	143	1
104	113	1
143	144	1
133	134	1
138	139	3
135	137	1
8	10	2
54	56	2
152	152	4
106	135	1
43	46	2
22	23	2
15	152	1
11	169	1
139	139	4
26	80	1
124	131	1
111	148	1
4	13	1
72	118	1
67	67	2
113	149	2
11	11	4
53	54	1
7	28	1
132	132	2
140	144	1
122	124	1
23	57	1
146	164	1
4	4	5
164	166	2
127	142	1
75	75	1
166	166	3
147	148	3
65	65	2
127	130	1
1	1	2
91	91	1
127	127	2
24	25	1
10	163	1
160	161	1
78	79	1
113	114	2
106	116	1
7	15	1
16	17	1
7	7	3
18	166	1
79	80	3
82	82	4
99	101	1
27	129	2
112	112	1
54	54	1
62	62	1
0	149	1
110	110	2
143	151	1
146	147	1
39	39	2
166	167	2
33	34	1
85	101	1
163	164	3
117	117	3
106	139	1
12	12	2
121	122	2
129	129	1
105	107	1
138	138	5
155	166	1
95	96	2
158	160	1
154	155	1
92	93	1
157	161	1
96	96	1
15	49	1
135	140	2
2	3	1
164	164	1
121	121	1
114	149	1
86	121	1
93	93	2
93	94	1
27	27	2
87	103	1
157	157	2
118	119	1
92	92	1
76	91	1
107	108	1
70	77	1
140	141	1
146	162	1
143	143	2
114	114	2
63	63	1
86	87	2
23	24	1
22	24	1
109	109	1
90	116	1
20	118	1
124	141	2
99	103	1
89	89	2
98	123	1
97	123	1
102	103	1
122	122	3
127	128	1
125	130	1
153	164	1
13	16	1
44	46	1
140	151	1
24	57	2
162	163	1
136	136	2
128	128	3
119	147	1
106	110	1
12	169	1
125	126	2
13	14	1
18	20	1
152	164	1
70	87	1
140	154	1
57	57	2
129	130	1
19	22	1
87	88	1
25	53	1
55	56	1
111	114	1
38	40	1
90	90	3
106	107	1
26	28	1
3	4	1
19	20	1
87	87	1
139	140	1
119	119	1
87	104	1
125	127	1
115	116	1
150	150	1
63	64	1
10	170	1
124	124	1
110	112	1
97	106	1
38	39	1
95	113	1
50	160	1
107	110	1
119	120	1
106	109	1
141	142	1
12	13	1
14	16	1
63	66	1
89	90	1
120	124	1
37	39	1
22	157	1
112	113	1
111	139	1
