149	150	1
4	4	2
10	11	2
15	15	5
32	32	5
19	19	4
154	155	5
169	169	6
82	86	1
37	38	2
8	8	4
40	41	1
58	58	3
38	38	3
140	140	3
132	133	1
122	122	4
116	116	5
85	85	2
13	13	8
43	45	1
105	105	3
91	91	3
129	129	3
39	39	2
155	155	6
107	107	7
88	88	2
52	52	4
78	78	1
52	56	1
57	57	6
159	159	4
162	163	1
0	0	3
43	43	2
131	131	7
89	138	1
125	125	6
124	124	5
21	22	2
168	168	5
42	44	1
92	106	1
146	146	3
11	11	6
143	143	7
36	63	1
132	132	3
141	141	5
76	76	2
14	17	3
38	39	2
6	6	8
168	169	4
111	111	2
44	44	5
81	81	7
110	111	2
50	50	4
124	125	2
74	75	1
165	167	1
125	126	1
140	141	3
161	161	7
8	9	2
60	78	1
26	26	5
52	53	1
4	6	2
66	66	5
117	119	2
59	60	1
21	24	1
55	55	2
36	36	7
153	153	5
109	127	1
122	144	2
3	4	6
2	3	3
98	98	1
135	136	3
171	171	2
65	81	1
22	22	1
17	17	3
86	86	2
149	149	6
86	153	1
143	144	3
35	63	1
82	82	3
158	158	4
108	147	1
75	78	2
108	108	4
72	72	3
15	22	1
15	21	3
56	56	3
54	55	4
106	106	5
56	60	2
41	42	1
2	6	3
142	142	7
87	89	1
111	118	1
132	149	1
21	23	1
147	162	1
167	168	3
53	61	1
164	165	2
10	10	3
11	13	2
100	100	6
95	102	1
12	15	1
61	61	4
24	25	1
138	174	1
95	156	2
96	96	7
112	112	2
172	172	3
59	59	6
32	95	1
44	45	4
108	135	1
14	14	5
86	87	2
114	115	4
101	107	1
23	23	6
32	33	3
174	174	4
73	73	6
60	61	4
18	19	4
16	21	1
161	162	2
79	79	4
64	86	2
77	77	4
79	80	2
176	177	1
1	2	2
139	139	3
103	103	3
94	162	2
33	33	5
176	176	7
56	67	1
1	1	3
178	178	4
51	63	1
35	35	5
127	127	2
39	40	2
31	31	7
21	21	3
2	2	8
73	77	2
151	151	5
71	72	1
28	41	1
80	80	3
75	75	4
55	56	3
64	65	1
89	89	3
123	124	4
145	145	5
59	63	1
83	83	3
150	150	6
29	29	3
177	177	6
49	59	1
28	57	1
94	94	1
103	142	1
9	9	5
165	166	2
28	30	1
37	37	5
134	134	5
107	109	1
143	159	1
88	94	3
27	27	3
45	45	5
27	28	2
51	52	2
90	91	2
3	3	2
74	74	3
108	145	1
78	79	2
36	37	2
63	63	5
66	67	2
126	126	6
25	25	3
17	49	1
107	110	1
20	24	2
16	16	5
136	171	2
17	18	1
64	64	3
92	92	4
54	61	2
121	121	2
94	96	3
85	92	1
40	42	1
93	93	1
133	133	7
18	18	3
14	16	1
83	84	4
24	24	4
170	170	3
123	129	1
147	148	1
7	7	4
167	167	3
101	105	1
57	68	1
101	101	4
153	169	1
60	60	5
115	116	2
124	148	1
71	71	3
12	13	3
36	78	1
150	152	1
143	145	1
148	148	5
179	179	1
19	20	3
36	74	1
30	35	1
71	78	1
121	126	2
113	114	2
90	153	1
28	28	5
11	17	1
51	51	3
118	130	1
109	120	1
175	175	4
39	41	2
84	85	3
10	70	1
119	119	3
0	54	1
40	40	3
96	97	1
65	65	3
70	70	1
119	123	1
25	42	1
136	136	2
112	113	1
162	162	1
67	68	2
167	169	2
126	132	1
22	45	1
112	115	1
41	41	2
154	154	2
142	149	1
148	167	1
104	105	1
152	154	1
68	163	1
57	58	1
77	78	2
5	6	3
43	44	1
59	143	1
157	157	3
49	49	1
92	93	1
137	138	2
33	34	3
56	57	3
2	5	1
135	169	1
5	5	5
35	40	2
72	73	1
127	130	1
12	14	1
17	19	1
119	120	1
99	99	4
96	172	1
33	64	1
52	60	1
147	147	2
85	94	1
97	97	3
43	86	1
113	113	3
153	154	1
158	159	1
10	39	1
130	130	2
81	82	1
123	123	1
172	173	1
160	160	3
168	170	1
41	85	1
88	108	1
150	169	3
62	63	1
120	124	1
137	137	6
12	12	5
124	168	1
126	147	1
114	114	5
61	64	1
51	62	1
80	81	1
118	119	2
113	134	1
93	166	1
63	64	2
84	84	3
117	120	1
62	62	4
128	128	3
9	10	1
162	166	1
152	152	3
87	88	1
61	62	1
164	166	1
55	111	1
95	142	1
23	24	2
14	75	1
114	134	1
113	115	1
134	135	3
165	165	3
109	119	2
135	135	2
45	46	1
178	179	1
50	51	1
122	148	1
18	27	1
8	17	1
156	156	1
34	34	3
82	142	1
129	130	1
95	95	1
7	11	1
61	87	1
31	33	1
117	117	2
98	100	1
68	68	3
4	27	1
32	42	2
42	42	4
102	102	1
84	87	1
22	25	1
154	157	2
124	146	1
33	35	1
76	77	1
35	36	1
136	137	1
163	163	1
85	91	3
156	169	1
133	134	1
37	77	1
180	180	2
110	119	1
16	33	1
138	138	1
142	145	1
31	42	2
120	122	1
108	118	2
54	54	2
18	23	2
54	56	1
139	140	1
145	148	1
107	108	1
152	160	1
140	169	2
23	25	1
53	53	3
170	171	1
154	156	1
118	118	3
2	136	1
153	156	1
65	110	1
152	153	1
166	166	3
174	176	2
115	115	2
8	16	1
102	131	1
83	86	1
13	14	2
140	142	1
88	139	1
151	159	1
0	75	1
97	98	1
30	30	2
128	129	3
50	52	1
159	160	1
79	148	1
94	110	1
87	87	2
111	114	1
77	79	1
164	164	1
146	147	1
110	110	1
22	23	1
81	131	1
94	153	1
64	95	1
104	104	1
7	8	1
35	45	1
144	144	1
8	11	1
17	27	2
100	145	1
73	76	2
150	154	1
123	125	1
82	83	1
36	61	1
84	91	1
88	169	1
118	122	1
111	112	1
20	20	1
126	146	1
112	116	1
32	37	1
75	76	1
85	87	1
159	165	1
96	116	1
131	133	1
135	137	1
103	104	1
66	136	1
