89	89	1
104	104	1
42	168	2
171	171	2
27	29	1
35	47	1
27	28	1
34	36	1
176	176	5
182	182	4
182	183	2
11	11	4
65	92	1
145	178	1
7	7	2
12	12	2
27	27	2
63	63	1
166	168	1
60	60	2
99	126	1
108	108	1
175	176	1
119	119	1
57	57	1
131	133	1
18	19	1
181	181	1
179	179	3
60	63	1
146	166	1
178	178	2
136	137	1
155	157	1
136	136	1
18	22	2
1	1	3
106	106	1
108	109	1
7	79	1
140	140	2
45	164	1
174	174	1
121	121	1
78	83	1
168	176	1
168	168	3
10	17	1
144	144	2
103	103	2
187	190	1
24	86	1
180	180	2
179	181	2
23	23	1
2	2	2
41	41	1
22	33	1
147	154	1
53	54	1
141	141	3
187	187	2
38	38	2
177	178	1
54	54	1
29	29	1
31	31	2
32	32	2
149	165	1
81	81	1
120	121	1
78	78	1
150	150	3
166	184	1
149	149	2
20	24	2
16	17	1
156	156	3
0	0	1
149	156	3
77	78	1
177	177	2
67	68	1
32	33	1
115	116	1
176	183	1
77	77	2
60	77	1
130	133	5
154	171	1
88	120	2
20	20	1
181	182	1
74	74	1
137	137	1
67	70	1
41	42	1
171	189	1
71	71	1
79	81	1
2	39	1
45	45	1
96	121	1
159	159	2
130	131	1
65	66	1
76	77	1
111	111	1
169	169	2
44	44	2
73	75	1
81	94	1
90	90	1
137	138	1
166	169	1
84	84	2
145	145	1
90	125	1
35	60	1
102	103	1
183	183	2
147	160	1
161	177	1
34	34	1
167	167	1
131	131	4
39	160	1
129	129	1
61	62	1
96	97	1
126	126	1
174	177	1
22	22	4
56	58	1
61	61	1
62	62	1
8	8	1
113	121	1
33	35	1
166	167	1
157	157	2
47	47	2
158	159	1
110	128	1
142	142	2
0	7	1
42	42	1
6	6	1
40	40	1
118	118	1
117	120	1
83	88	1
160	161	1
96	96	1
119	120	1
58	62	2
88	88	1
151	151	1
32	36	2
33	33	1
53	53	1
16	37	1
39	39	1
180	181	1
75	77	1
100	124	1
17	17	1
116	117	1
177	182	1
79	79	1
160	183	1
124	124	1
29	31	1
188	188	1
172	172	1
