153	153	5
114	114	5
78	78	4
53	53	4
10	10	13
43	43	6
34	35	1
37	37	8
129	133	2
130	130	5
11	13	1
20	20	3
34	34	3
22	23	3
41	41	3
48	48	3
155	155	3
148	148	1
73	73	3
93	94	4
126	127	2
3	5	1
164	164	4
24	82	1
163	163	6
156	156	6
35	35	5
21	21	3
91	92	1
111	112	1
45	45	2
62	62	7
2	2	5
20	24	1
36	36	6
33	49	3
107	107	4
159	159	7
160	161	1
16	17	3
119	151	1
72	72	3
77	77	3
141	141	7
119	119	3
46	52	3
4	4	5
44	44	6
67	67	5
95	96	2
52	52	5
0	156	1
94	94	2
20	21	1
2	3	2
25	26	1
101	101	4
40	41	2
13	21	1
163	164	4
84	126	1
75	75	2
120	120	4
127	127	4
169	169	5
47	47	3
96	121	1
149	149	3
160	160	9
138	138	10
47	51	1
140	142	2
48	52	2
124	125	2
53	55	1
1	1	3
117	117	6
38	41	2
130	133	1
152	152	5
131	131	3
1	2	3
43	44	1
65	67	1
87	87	5
18	18	2
111	111	3
34	36	2
1	161	1
70	72	1
15	15	6
46	48	1
71	72	1
129	154	2
16	49	1
161	161	4
44	45	1
126	126	7
14	14	3
123	125	2
38	44	1
41	44	1
17	17	4
55	55	5
8	8	6
98	98	3
4	37	1
157	158	5
7	43	2
23	23	5
21	164	2
125	168	1
100	129	1
134	134	6
112	112	6
125	126	1
143	143	4
11	11	4
108	108	5
18	24	2
106	106	2
85	87	2
80	82	1
166	167	3
147	150	2
22	22	3
49	140	1
21	24	1
100	104	2
90	90	6
151	151	4
109	135	1
81	81	2
154	154	9
107	108	2
101	143	1
111	138	1
71	71	5
24	25	1
76	84	1
166	166	6
149	162	1
167	167	4
14	25	2
40	40	5
56	106	1
145	156	1
17	42	2
89	89	4
2	49	1
92	93	2
127	131	1
66	66	1
102	102	3
56	56	3
4	6	3
68	68	4
64	74	1
144	144	5
19	23	1
27	27	5
97	122	1
107	109	1
147	147	5
76	76	2
100	116	1
41	42	2
129	130	1
9	9	8
150	167	1
71	74	1
151	170	1
167	168	2
77	78	1
51	51	3
143	145	1
113	121	1
90	93	2
46	46	5
104	104	1
5	6	2
123	123	4
133	134	2
25	69	1
146	146	3
147	149	1
138	139	1
7	7	5
103	103	3
101	102	3
102	115	1
3	3	8
93	93	2
96	97	1
111	137	1
42	42	3
5	5	4
90	106	1
70	73	2
65	94	1
26	26	3
13	17	2
155	157	3
146	147	1
105	105	5
118	124	1
145	162	1
62	64	1
20	126	1
146	165	1
107	126	1
145	145	4
65	98	2
84	85	2
15	16	1
147	151	1
76	77	2
131	132	2
65	66	1
123	124	1
72	78	1
105	113	2
0	2	1
110	110	5
3	6	2
127	152	3
94	96	2
56	57	1
26	28	1
137	140	1
125	125	4
84	84	1
0	6	1
139	140	2
86	87	1
144	169	1
93	116	1
145	146	2
64	64	2
63	63	5
41	52	1
119	120	1
97	97	1
163	165	3
88	88	2
152	165	1
54	55	1
161	167	1
158	158	5
136	136	1
121	121	1
36	38	1
123	128	1
139	139	2
54	54	2
50	50	2
61	65	1
150	161	1
139	142	1
85	85	1
114	116	1
5	168	1
128	129	2
127	128	1
90	91	1
35	134	1
119	165	1
162	162	3
142	143	3
135	135	6
10	11	3
93	96	1
13	13	3
148	149	2
134	166	2
83	83	2
145	154	1
86	86	2
91	91	1
57	62	1
144	145	1
52	54	2
9	10	1
155	164	3
113	113	2
91	95	1
88	89	2
112	125	2
39	39	2
16	16	3
101	124	2
25	25	3
108	109	1
52	53	1
118	140	1
63	72	1
122	122	3
99	99	3
0	1	2
57	57	5
165	165	2
74	74	2
72	75	1
11	143	1
81	82	1
35	42	1
49	49	3
83	84	1
39	40	3
70	70	1
71	84	1
150	150	3
111	126	1
74	146	1
146	164	1
69	69	2
125	135	1
128	128	3
85	94	1
139	153	1
69	98	1
33	33	1
109	109	2
103	104	1
94	95	2
126	145	1
141	142	2
82	82	1
137	148	1
151	152	1
18	79	1
72	73	2
162	165	1
97	99	1
13	138	1
96	96	1
14	43	1
67	69	1
47	48	1
168	168	2
144	170	1
47	49	1
153	154	2
45	57	2
6	8	2
108	110	1
157	157	3
160	164	1
78	79	1
93	120	1
38	38	1
120	146	1
115	124	1
52	140	1
35	43	1
88	94	1
115	123	1
38	40	1
150	154	1
129	129	2
67	68	2
122	123	2
108	111	1
11	12	1
146	152	1
13	49	1
118	118	2
152	153	1
70	80	1
80	80	1
15	84	1
70	71	1
116	116	2
6	47	1
147	169	1
137	137	3
1	3	1
68	73	1
57	73	1
133	133	2
170	170	1
34	39	1
117	118	1
135	137	1
156	163	1
134	157	1
50	51	1
19	19	2
149	150	1
91	93	2
165	166	1
89	150	2
140	140	2
112	120	1
80	113	1
149	160	1
36	89	1
48	49	1
91	100	1
57	92	1
58	66	1
142	155	1
100	103	1
148	159	1
79	79	1
168	169	1
23	24	1
0	0	3
80	84	1
14	80	1
111	114	1
45	49	1
117	127	1
142	142	1
20	47	1
56	82	1
85	101	1
28	28	1
100	100	1
66	67	1
92	94	1
44	134	1
2	135	1
149	164	1
10	21	1
107	136	1
0	158	1
120	121	1
139	143	1
58	70	1
137	139	1
78	82	1
