15	15	1
31	32	2
123	123	2
79	79	1
140	140	3
169	169	7
131	133	1
184	184	6
7	7	1
158	158	2
163	163	1
4	5	2
43	43	1
85	85	1
130	130	2
50	50	3
26	26	3
170	170	2
45	65	1
61	61	1
5	6	3
157	179	1
189	189	1
49	156	1
42	42	2
174	178	1
156	156	1
14	14	2
10	11	3
20	20	1
175	177	1
18	18	1
113	113	3
173	180	1
155	156	2
136	136	1
38	38	4
33	33	3
44	150	2
21	23	3
41	41	3
43	123	3
73	73	1
37	37	2
131	131	2
51	61	1
66	66	2
129	129	2
40	41	1
78	78	1
28	28	1
47	47	1
3	3	3
94	95	1
98	98	1
20	21	1
46	47	1
4	4	2
126	126	1
67	67	1
183	183	1
111	111	1
153	192	1
46	46	3
5	5	3
72	72	2
94	94	1
139	139	3
9	10	2
71	71	2
25	25	2
138	141	2
195	195	2
172	172	5
32	32	2
73	74	1
181	182	2
180	180	1
120	120	1
8	8	3
169	170	1
142	142	3
2	3	1
45	45	2
11	46	1
38	40	1
155	155	1
10	10	4
167	170	1
124	124	1
67	70	1
82	82	1
26	28	1
76	76	1
12	13	1
146	161	1
15	16	1
63	63	3
178	178	1
31	31	4
156	157	1
77	77	2
97	97	2
146	146	2
138	138	1
187	187	1
122	122	2
153	153	3
177	177	1
149	149	1
188	188	1
37	38	1
193	194	1
186	186	4
173	174	1
25	87	1
134	134	1
25	33	2
87	87	2
8	24	1
179	180	1
40	40	2
64	64	3
159	159	3
6	7	1
99	101	1
9	187	2
60	61	1
11	11	1
24	39	1
29	30	1
140	169	1
97	98	1
33	36	1
9	9	3
24	24	1
80	80	2
147	147	3
17	90	1
141	141	2
185	185	3
192	193	2
142	145	2
180	181	2
12	12	4
101	119	1
164	164	1
49	49	2
147	148	1
115	116	1
148	148	1
182	182	2
96	116	3
39	39	2
190	191	1
30	30	1
9	15	1
54	55	2
135	135	1
15	24	1
106	108	1
146	147	1
121	121	1
105	105	1
107	107	1
0	2	2
194	194	1
25	26	2
53	53	1
48	49	1
2	2	2
88	88	1
157	160	1
22	23	1
197	197	1
127	127	1
190	190	1
176	177	1
143	143	2
58	58	1
175	178	1
8	9	1
11	12	1
79	80	1
36	41	1
132	133	1
56	57	1
21	22	1
19	20	1
23	23	2
114	118	1
14	48	1
98	99	1
196	196	2
154	173	1
69	69	2
161	161	1
135	138	1
0	8	1
166	166	1
36	36	2
86	86	1
14	44	1
57	57	1
11	69	1
30	40	1
135	157	1
43	152	1
9	72	1
55	55	1
28	29	1
22	24	1
81	81	1
21	21	1
150	150	1
107	108	1
