112	112	4
2	2	5
65	65	6
134	134	6
61	61	3
89	89	1
156	157	3
142	148	1
12	13	1
56	56	3
130	131	1
132	132	3
79	80	2
85	86	2
135	135	5
124	124	3
6	9	1
160	162	3
113	117	2
146	146	3
84	84	5
38	38	1
118	143	1
71	121	1
113	114	2
149	150	2
150	154	3
160	160	4
101	108	3
70	72	2
71	71	8
35	45	1
30	30	3
172	173	1
91	93	2
44	46	1
168	173	4
78	79	1
171	171	6
75	75	6
74	74	1
22	23	1
1	2	4
113	116	3
95	133	1
176	176	9
95	95	1
149	149	9
79	107	2
44	44	2
16	16	6
17	42	1
11	11	4
68	68	6
37	180	2
83	97	2
102	102	3
168	168	9
93	98	1
80	176	1
35	66	1
62	63	2
115	115	3
38	39	1
152	152	3
7	22	1
155	155	1
92	93	2
55	56	1
28	31	2
64	64	3
93	93	1
35	36	2
57	58	2
137	137	9
83	83	2
179	179	4
129	129	1
135	140	1
8	9	3
35	40	2
67	84	1
86	86	1
167	167	4
52	53	1
172	172	5
165	167	4
66	134	1
15	15	4
171	172	2
37	80	1
147	148	1
75	76	2
156	156	4
60	60	4
175	175	3
9	9	3
103	103	1
136	143	1
136	173	1
158	167	1
5	25	1
31	31	3
144	144	8
128	128	3
169	169	7
162	162	5
153	154	4
132	139	1
145	145	7
52	52	2
62	62	4
140	149	1
159	159	5
133	133	3
140	140	6
10	10	6
60	73	1
90	94	1
1	1	3
24	31	1
177	177	2
115	117	1
155	161	1
86	87	1
31	32	2
29	30	1
33	33	4
166	166	2
154	154	5
14	14	7
100	101	2
88	88	1
104	104	2
82	82	5
142	143	2
13	13	3
53	53	2
54	54	6
178	178	3
143	143	1
90	91	1
21	21	3
94	95	2
21	135	1
60	61	3
80	80	8
151	153	2
166	167	2
97	98	2
151	152	2
116	119	1
99	99	3
141	141	3
166	169	1
163	163	2
13	15	1
65	90	1
23	23	4
174	174	5
29	43	1
18	18	1
25	25	2
65	66	2
121	122	1
148	148	2
131	131	3
177	178	2
40	40	2
0	2	1
19	21	1
122	122	1
3	4	3
113	113	2
49	49	2
170	172	1
76	79	2
130	130	4
26	27	1
85	85	3
96	96	2
127	135	2
3	12	1
100	102	1
114	121	1
56	58	1
110	110	3
9	14	1
170	170	5
175	176	1
28	39	1
26	26	4
66	66	2
73	75	1
72	72	3
52	59	1
8	14	1
6	7	2
0	0	2
11	13	1
148	149	2
125	139	1
3	3	4
163	164	1
139	139	4
9	33	2
136	136	4
67	67	5
70	70	3
76	76	5
168	174	3
173	173	4
118	118	3
81	81	2
99	115	1
123	124	1
124	126	1
77	77	4
32	40	2
119	119	3
113	123	1
131	132	1
118	119	1
143	144	1
31	34	2
17	19	2
109	131	1
111	111	2
131	137	1
105	127	3
8	15	2
17	35	1
43	44	2
136	137	2
4	8	1
137	175	1
127	143	1
115	116	4
114	115	1
126	126	4
50	51	1
137	138	1
139	150	1
73	73	5
34	34	5
58	61	1
58	58	2
55	55	2
7	7	3
103	105	4
36	36	3
116	117	1
104	112	2
128	148	2
98	98	1
107	107	5
154	158	2
39	39	4
5	84	1
42	42	3
64	65	1
151	151	2
99	104	1
114	114	3
94	94	1
28	29	1
176	177	1
39	40	1
138	138	7
147	155	1
87	87	3
8	8	3
134	139	1
23	166	1
96	108	2
98	106	1
142	155	1
180	180	2
12	12	3
111	115	1
168	176	1
4	16	1
27	27	2
137	141	1
130	148	1
6	73	1
18	19	2
18	29	3
163	169	1
32	41	1
36	38	1
161	161	1
64	107	1
78	96	2
125	126	1
120	120	3
162	168	2
179	180	1
22	22	1
105	105	2
66	79	1
7	10	1
106	106	1
74	87	1
178	180	2
79	79	2
131	148	1
36	75	1
54	55	3
35	35	4
108	108	2
120	121	2
32	32	2
116	151	1
130	136	1
153	167	1
61	62	1
64	180	1
157	158	1
50	50	2
3	6	1
50	59	1
112	166	1
72	77	1
21	22	1
107	130	1
141	142	1
7	9	1
18	36	1
42	43	1
142	145	1
150	150	1
53	54	1
148	169	1
89	174	1
94	116	1
152	153	1
41	41	2
150	158	1
57	57	2
12	23	1
104	128	1
85	87	1
15	23	1
137	139	1
21	42	1
31	61	1
56	77	1
130	143	1
86	90	1
61	107	1
56	102	1
165	165	2
30	31	1
59	60	1
134	142	1
127	130	1
169	170	1
135	136	1
102	103	1
165	170	1
60	85	1
0	60	1
109	110	1
117	120	1
99	100	1
16	17	2
17	18	1
116	116	1
27	28	2
14	15	1
9	30	1
117	117	1
49	101	1
59	59	2
17	17	1
11	17	1
146	170	1
125	127	1
15	19	1
14	63	1
31	33	1
6	6	4
51	51	1
14	71	1
150	151	1
102	112	1
109	115	1
83	96	2
44	45	1
122	168	1
35	84	1
154	160	1
91	91	1
147	147	1
142	142	1
173	174	1
2	3	1
169	177	2
129	130	1
37	37	1
121	125	1
146	147	1
56	59	1
131	153	1
106	107	1
145	146	1
63	63	1
125	128	1
23	24	1
154	156	1
93	95	1
157	157	1
87	89	1
165	169	1
26	100	1
157	159	1
118	121	1
127	127	1
97	97	1
107	126	1
52	134	1
15	21	1
125	125	1
140	157	1
131	180	1
158	159	1
86	92	1
173	179	1
78	78	1
37	54	1
23	43	1
102	138	1
4	9	1
127	128	1
84	126	1
11	24	1
118	135	1
8	25	1
132	154	1
