21	22	2
89	89	3
78	78	4
48	53	1
56	56	6
64	64	3
77	78	2
35	52	1
31	31	4
79	79	2
27	27	9
92	94	1
60	63	2
23	51	1
50	50	3
47	47	5
94	94	3
87	87	1
25	25	8
36	36	5
69	74	1
97	98	4
46	47	1
48	48	2
65	65	4
44	44	6
29	29	4
72	73	1
67	67	6
85	89	1
24	24	4
59	61	2
42	42	4
23	23	4
26	26	5
49	49	2
51	51	8
45	49	1
77	77	11
45	45	7
72	72	5
73	73	4
88	88	7
69	72	1
37	39	1
76	76	6
52	52	7
59	59	5
25	71	3
100	101	2
38	45	1
64	76	1
41	91	1
58	58	5
22	22	4
57	57	2
75	75	4
67	68	3
30	32	1
25	27	1
63	63	12
40	83	1
35	35	6
60	60	7
24	25	5
37	38	2
56	57	3
95	98	5
43	43	1
26	54	1
90	90	6
50	51	3
88	96	2
86	88	1
38	38	7
53	53	2
59	60	3
44	49	2
62	89	1
54	55	1
55	62	1
101	101	3
69	69	7
95	96	2
27	28	3
66	79	1
74	96	1
80	80	3
36	76	1
69	70	1
52	64	1
94	100	1
78	79	1
83	83	5
40	40	1
63	64	4
92	92	6
92	100	1
33	33	5
66	66	5
68	68	3
41	42	2
44	45	1
33	34	1
54	54	3
75	91	1
47	48	2
65	76	1
84	84	3
86	87	2
44	47	2
96	97	4
90	93	1
51	52	2
60	62	1
61	61	5
49	53	1
39	40	1
57	63	2
99	99	3
65	67	1
31	82	1
28	38	1
91	92	3
70	70	6
93	93	5
34	34	2
98	99	1
76	81	1
60	66	1
38	49	1
28	28	2
74	74	6
96	96	1
20	46	2
32	32	3
35	36	2
49	50	2
75	76	1
42	43	2
64	65	1
37	54	1
81	81	4
66	83	1
24	47	1
66	80	1
80	81	5
35	37	1
98	98	3
90	91	1
79	96	1
71	71	2
33	39	1
30	30	1
99	100	2
86	86	3
94	98	1
47	50	3
41	41	1
76	77	2
48	51	1
52	57	1
85	85	4
55	55	2
33	71	1
97	97	3
95	97	1
31	32	1
39	88	1
23	44	1
96	98	1
53	54	1
65	77	1
30	45	1
93	94	1
39	39	2
33	49	1
62	62	4
73	74	2
84	85	1
100	100	1
51	67	1
59	65	1
64	66	1
94	95	2
48	55	1
25	39	1
65	66	2
62	63	1
76	97	1
22	61	1
56	83	1
91	91	2
46	46	1
98	100	1
70	71	1
45	52	1
47	84	1
28	53	1
75	101	1
79	80	1
52	53	1
36	37	2
20	22	1
29	77	1
45	64	1
88	100	1
68	73	1
95	95	2
46	48	1
