163	164	2
18	18	1
180	180	4
236	236	4
12	229	2
239	241	2
133	134	2
14	14	4
155	156	1
96	97	3
84	84	3
175	198	1
46	46	3
52	52	2
170	170	9
201	201	4
74	75	1
105	137	1
140	140	3
124	125	3
24	158	2
88	88	3
37	37	4
186	186	2
169	169	5
113	113	6
42	42	6
131	134	1
43	43	5
129	216	1
181	187	1
160	160	5
168	183	1
175	175	9
18	41	2
208	208	4
55	55	7
107	107	3
61	62	3
38	39	1
173	173	6
111	111	1
12	12	7
181	182	1
157	157	3
170	178	1
235	236	5
33	33	6
212	214	2
233	233	5
220	220	4
171	171	3
150	162	1
202	203	2
218	218	3
96	96	5
163	165	1
228	228	5
150	150	6
28	28	7
111	113	2
40	40	3
159	160	3
99	110	1
206	206	2
134	134	2
139	145	1
166	166	9
241	241	4
81	82	2
49	49	4
79	79	1
187	187	2
48	48	4
16	36	1
68	68	4
193	193	1
229	229	2
99	99	6
184	184	5
58	58	4
174	174	6
106	106	4
29	62	1
21	52	1
184	186	1
191	191	4
22	23	4
239	239	6
27	38	1
6	7	2
136	205	1
197	197	2
136	136	2
155	155	5
8	11	1
65	65	2
9	9	4
167	181	3
20	24	5
157	158	4
228	229	1
170	173	4
154	154	3
16	17	4
109	110	2
146	146	2
119	119	5
105	105	6
76	76	1
20	20	7
156	156	5
171	172	5
167	167	4
172	172	9
159	171	3
176	177	6
85	85	6
47	47	4
121	121	8
192	193	1
76	77	2
26	27	2
58	64	1
130	151	1
106	121	1
242	242	6
121	127	2
123	123	7
103	105	1
85	86	2
138	138	4
188	188	2
59	79	1
77	78	1
18	19	2
21	21	4
175	200	1
129	129	3
110	110	2
1	22	1
67	67	2
153	154	2
56	56	1
124	124	1
59	60	3
168	168	3
200	218	2
161	161	4
212	212	3
222	222	3
237	238	1
183	183	1
135	136	2
31	31	4
141	148	2
31	72	1
73	83	1
154	155	2
219	233	2
139	139	3
219	219	4
178	241	1
32	32	1
66	66	3
61	61	3
215	216	1
51	51	2
173	178	1
4	5	4
134	159	1
167	168	4
27	27	4
0	1	2
22	22	2
100	100	3
58	66	2
88	99	2
34	37	1
34	35	2
46	61	1
151	163	1
159	168	1
234	234	2
30	30	5
125	125	4
165	169	1
54	54	5
17	230	1
15	16	1
231	231	4
8	8	3
51	53	1
30	114	1
162	162	5
192	192	4
152	158	1
146	148	2
175	176	1
215	215	2
122	122	6
36	40	1
34	34	2
142	167	1
229	230	1
63	111	1
29	29	3
135	135	3
171	178	1
15	15	2
39	39	4
133	133	2
217	217	7
143	143	5
0	0	2
169	170	1
21	23	1
89	89	1
51	106	1
49	50	6
189	189	2
143	200	1
145	203	1
186	187	2
73	73	6
149	149	4
44	74	1
10	10	6
13	14	1
3	42	1
8	225	1
151	152	3
137	137	1
203	203	2
28	29	1
60	60	2
219	232	1
240	241	2
146	147	1
240	240	2
178	178	5
180	207	1
152	153	2
224	228	1
189	223	2
176	176	3
144	144	2
185	185	2
86	86	2
230	230	2
130	130	2
62	62	5
108	108	4
104	104	3
214	215	1
53	53	1
56	83	1
186	188	1
145	149	2
107	108	2
11	12	3
4	6	3
119	127	1
141	176	1
65	66	2
17	17	2
11	11	2
219	220	1
80	80	1
128	128	2
24	25	1
179	179	3
190	190	2
82	107	1
199	200	2
40	41	3
69	69	4
7	7	3
210	210	1
117	117	4
78	79	1
48	145	1
172	173	1
86	120	1
55	56	1
24	233	1
1	1	3
151	151	3
113	131	1
6	150	1
156	157	2
155	157	1
1	7	1
182	184	1
76	79	1
38	38	2
97	97	3
123	125	2
53	139	1
195	195	1
74	167	1
19	19	1
158	158	2
112	112	3
102	102	2
14	41	1
83	83	1
177	178	1
122	128	1
152	152	2
225	225	6
153	177	1
198	201	1
101	101	1
207	207	1
41	41	1
204	204	2
8	227	1
235	235	1
237	239	1
205	205	2
148	148	4
102	103	1
116	116	2
123	124	1
227	238	1
211	212	1
2	2	1
25	73	1
226	227	1
100	101	1
156	179	2
200	200	2
24	24	1
192	199	1
41	42	1
163	163	2
51	115	1
83	84	1
12	15	1
60	90	1
1	229	1
45	45	2
81	81	1
63	63	2
211	211	3
23	23	3
42	43	1
124	126	1
220	223	1
6	45	1
50	52	1
53	143	2
183	184	3
179	181	2
174	175	1
25	25	2
26	26	2
33	36	1
1	23	1
44	55	1
47	54	1
72	73	1
163	176	1
221	221	1
13	29	1
44	44	1
5	57	1
62	68	1
222	223	2
13	36	1
52	127	1
122	125	1
193	195	1
103	103	1
39	152	1
32	56	1
62	65	1
168	169	1
5	6	1
44	85	2
75	84	1
238	239	1
109	109	3
221	222	2
11	15	1
182	188	1
199	199	1
71	71	5
33	55	1
56	73	1
70	70	2
57	59	1
208	231	1
216	216	2
72	72	1
162	163	1
32	38	1
147	147	2
202	202	2
160	162	1
145	146	1
75	75	1
47	48	1
209	209	1
57	57	1
21	161	2
237	237	1
212	222	1
120	178	1
167	169	2
26	37	1
184	187	1
25	152	1
9	152	1
103	104	2
141	141	1
159	159	1
98	98	3
127	127	2
32	33	1
25	26	1
207	228	1
170	177	1
206	207	1
200	201	1
16	16	1
76	78	1
28	30	2
163	169	1
79	80	1
6	6	1
116	118	1
142	142	1
51	52	1
47	63	1
5	5	1
137	153	1
4	4	2
56	107	1
150	151	1
130	131	1
56	64	1
129	130	1
138	146	1
145	147	1
208	209	1
147	148	1
32	47	1
14	15	2
46	47	2
116	162	1
105	106	1
213	214	1
1	52	1
124	127	1
166	187	1
182	182	1
171	196	2
19	151	1
2	7	1
59	76	1
98	108	1
24	201	1
114	114	1
158	166	1
154	164	2
158	159	2
80	81	1
110	111	1
139	142	1
232	232	1
150	155	1
150	166	1
154	157	1
194	195	1
43	69	1
184	185	1
180	182	1
178	179	1
90	91	1
77	77	1
66	89	1
140	142	1
42	80	1
104	123	1
211	223	1
177	177	2
69	98	1
200	230	1
223	223	1
156	158	1
57	82	1
159	172	1
238	238	1
227	231	1
150	152	1
101	102	1
84	85	1
48	50	1
37	38	1
86	101	1
211	213	1
57	117	1
0	10	1
209	232	1
16	23	1
227	227	1
169	218	1
34	36	1
59	59	1
66	80	1
210	213	1
145	145	1
26	38	1
188	189	1
221	223	1
64	74	1
120	120	1
111	112	1
27	61	1
118	119	1
36	36	1
161	162	1
1	21	1
225	228	1
188	190	1
152	154	1
183	191	1
82	82	2
103	153	1
205	211	1
142	165	1
147	149	1
7	8	1
2	3	1
74	74	1
