102	117	2
83	84	1
61	61	2
104	104	2
122	132	2
94	94	2
87	87	2
95	95	1
72	116	1
17	17	3
108	108	4
22	22	4
119	119	4
9	9	3
0	67	1
29	29	1
36	36	3
56	56	3
72	72	4
100	101	2
31	49	1
47	47	3
75	75	2
62	63	1
70	70	1
45	45	6
103	103	3
43	43	2
4	4	1
113	113	6
18	18	4
30	30	1
26	27	3
8	8	4
74	74	1
86	86	4
59	77	1
68	68	5
5	5	2
35	77	1
21	22	2
2	3	1
130	131	3
131	134	1
124	130	1
26	26	2
6	34	1
59	59	4
85	95	2
131	131	3
108	124	1
127	128	1
66	66	5
19	19	2
118	118	2
6	6	5
93	94	1
49	49	1
40	42	2
82	82	1
116	116	1
13	14	1
98	98	3
107	107	1
108	119	1
119	120	1
57	57	2
56	57	1
33	33	3
37	37	1
44	44	1
82	83	1
120	120	1
3	3	2
99	99	1
129	129	3
58	59	1
58	81	1
76	76	1
87	88	1
84	84	4
76	86	1
47	82	1
77	103	2
77	77	4
110	110	5
109	109	3
97	97	3
94	108	1
48	49	2
34	34	4
87	91	1
2	2	1
124	124	5
14	46	1
127	127	1
98	99	1
28	28	1
11	11	3
128	128	2
11	18	2
102	126	1
115	115	2
88	88	1
22	39	2
93	111	1
101	101	2
60	60	6
102	102	1
96	98	1
15	16	2
32	39	2
65	65	2
35	38	1
66	72	1
74	87	1
24	24	1
113	134	1
73	73	2
10	12	1
81	81	2
63	63	3
66	71	1
42	42	4
32	33	1
116	117	1
39	40	1
85	100	1
12	12	2
84	85	1
71	71	1
92	92	3
23	23	1
83	87	2
114	116	1
126	126	1
122	123	1
121	122	1
117	117	5
114	114	1
35	36	1
130	133	1
55	55	2
78	82	1
31	31	4
100	130	2
106	106	1
123	123	1
7	7	1
91	91	2
35	35	1
79	79	1
46	47	1
1	1	2
13	13	3
106	107	1
101	132	2
36	39	1
67	67	1
104	106	1
23	25	3
16	16	1
125	125	2
114	115	1
114	129	2
0	57	1
121	121	1
36	38	1
102	121	1
57	76	1
98	125	1
103	104	1
67	68	1
134	134	3
39	39	1
91	92	1
102	106	1
83	83	1
57	59	2
54	54	1
111	124	1
105	105	1
69	70	1
58	58	1
46	46	2
19	36	1
105	134	1
45	46	1
20	22	1
100	109	1
28	34	1
86	88	1
18	44	2
70	71	1
103	120	1
85	85	3
94	100	1
92	111	1
111	111	2
33	63	1
77	79	1
40	40	3
10	10	2
90	94	1
15	15	1
12	14	1
86	94	1
79	80	1
6	66	1
0	0	1
14	14	1
123	127	1
34	44	1
48	48	1
68	69	1
86	87	1
21	21	1
118	119	1
105	131	1
27	27	2
72	74	1
32	32	1
77	130	1
18	45	1
21	39	1
99	111	1
78	79	1
7	93	1
41	41	1
7	33	1
28	60	1
94	111	1
78	78	1
112	112	1
124	125	1
64	64	1
57	60	1
