160	160	5
117	117	6
142	142	7
74	74	2
139	166	1
80	80	6
149	149	6
139	144	1
5	5	3
22	22	6
128	128	4
56	73	1
107	108	1
170	170	5
127	127	6
75	75	2
47	47	4
36	36	4
48	130	1
18	18	3
113	113	2
124	124	4
21	22	3
70	70	3
83	83	3
41	41	4
129	129	3
132	133	3
40	40	2
91	97	1
139	161	2
147	148	5
38	39	3
91	91	4
45	45	1
66	66	3
74	75	2
167	169	1
57	57	2
130	150	1
142	143	1
111	111	2
108	108	8
83	111	1
150	150	3
14	14	7
157	157	6
97	99	1
105	105	2
166	166	2
167	167	3
15	15	5
106	106	3
136	137	2
101	101	2
125	125	2
126	147	1
101	104	1
151	151	3
160	161	4
156	156	5
44	44	7
38	38	5
13	13	7
162	164	1
161	161	2
9	19	1
149	159	1
93	94	2
35	35	4
145	145	5
164	164	4
76	78	2
114	143	2
20	20	1
155	155	4
153	153	4
157	158	3
35	36	3
2	3	2
21	21	2
43	43	5
103	117	1
137	137	5
47	69	1
136	136	5
116	116	2
57	157	1
3	3	6
138	139	3
146	147	4
158	158	3
138	138	6
133	133	1
81	81	1
10	10	4
163	163	3
43	45	2
37	37	5
39	39	6
160	167	1
101	117	2
2	13	1
65	66	1
123	123	6
21	127	1
120	120	1
139	139	5
134	134	2
148	164	1
51	51	3
169	169	7
77	77	1
20	22	1
17	71	2
86	86	1
117	118	1
6	41	1
155	156	3
53	53	1
107	107	4
19	19	8
109	109	1
154	155	3
11	11	3
54	54	3
36	37	3
122	122	3
101	103	1
63	63	1
135	135	2
83	157	1
28	150	2
4	4	2
44	45	1
92	93	2
56	74	1
74	76	1
112	113	1
74	77	1
19	24	3
42	43	5
56	56	2
64	64	2
80	87	2
56	157	1
48	49	2
14	108	1
50	50	1
96	96	1
159	159	4
23	24	1
84	90	1
94	94	2
84	85	1
164	166	1
154	154	1
98	98	1
25	26	3
139	141	1
54	73	1
26	26	2
112	112	4
92	92	2
1	84	1
162	163	1
51	84	1
109	110	3
168	169	1
40	41	2
7	13	2
119	161	1
141	142	2
82	82	2
54	87	1
28	28	1
41	42	1
69	71	1
108	110	1
13	14	1
127	128	1
85	89	1
27	27	6
34	34	3
51	52	1
72	72	4
73	73	4
132	132	1
87	87	2
65	65	1
78	87	1
9	9	4
165	165	4
107	109	1
17	17	2
82	91	1
16	16	1
8	8	4
111	155	3
18	19	1
142	144	1
76	76	1
132	147	1
6	6	2
121	121	3
49	49	4
101	102	1
143	146	1
143	143	5
126	126	2
7	7	4
91	92	2
68	68	1
149	150	2
100	101	1
168	168	6
151	166	1
57	61	1
55	115	1
25	25	1
71	80	1
140	140	1
1	136	1
100	100	1
72	102	1
42	42	2
64	82	1
118	118	2
11	12	1
113	115	1
53	57	2
55	55	4
56	57	2
43	44	3
162	162	2
104	104	2
49	50	1
50	51	2
24	25	1
26	152	1
153	155	2
0	1	1
169	170	1
46	53	1
71	71	3
110	110	1
102	102	2
113	114	1
165	166	2
15	16	1
163	164	2
110	149	1
161	169	1
88	148	1
88	88	2
133	139	1
146	146	2
114	114	3
48	48	1
0	5	1
99	99	2
97	97	1
148	148	3
152	152	3
19	20	1
150	151	1
125	127	1
9	22	1
5	7	4
62	62	1
9	23	1
151	156	1
2	2	2
99	132	1
79	80	1
138	143	1
64	67	1
116	117	2
49	52	1
6	7	1
140	143	1
4	5	1
16	18	1
24	24	1
147	147	3
86	87	1
13	16	1
46	46	2
100	105	1
25	80	1
130	131	1
115	117	1
151	162	1
111	112	1
76	77	2
113	117	1
7	8	1
89	90	1
90	90	1
22	23	1
64	65	1
72	75	1
126	157	1
106	159	1
1	1	1
119	119	1
41	45	1
148	149	1
144	148	1
161	164	1
122	125	1
100	107	1
12	12	1
75	76	1
69	70	1
10	26	1
34	167	1
102	104	1
4	14	1
62	72	1
85	87	1
104	106	1
63	76	1
45	46	1
46	109	1
