43	43	5
70	71	1
14	14	7
106	109	1
30	30	9
118	118	4
78	87	2
44	71	2
28	31	2
103	109	1
50	52	1
49	53	1
2	2	9
121	122	2
75	104	1
14	18	1
26	26	6
12	12	3
117	122	1
117	118	3
110	118	1
115	118	1
71	71	5
97	97	4
47	47	2
7	7	6
69	69	6
47	95	1
104	104	7
79	79	10
122	122	4
59	59	7
94	94	5
91	91	4
65	66	6
17	22	1
22	22	8
8	14	1
62	62	2
133	133	7
53	60	1
73	73	8
129	129	3
30	32	1
53	61	1
49	49	3
114	114	2
60	60	7
6	6	8
44	44	9
121	127	3
4	5	1
99	99	3
37	38	3
75	119	1
36	36	3
35	35	5
108	108	9
72	72	8
28	28	3
55	55	5
127	128	1
10	22	1
87	87	3
120	120	1
127	129	1
112	119	2
63	87	1
93	93	3
123	123	5
128	128	1
12	68	1
88	92	1
59	60	1
125	126	1
78	80	3
1	5	3
52	53	3
54	54	4
10	10	3
62	69	3
70	70	4
62	81	1
21	21	5
3	5	1
33	33	5
85	85	2
82	83	1
24	25	1
122	123	2
78	79	2
24	24	5
110	111	3
16	31	1
77	79	1
3	44	1
93	94	1
88	97	1
115	130	2
9	10	3
11	12	3
61	67	1
31	32	2
26	29	1
22	23	2
100	101	2
108	116	2
64	64	2
47	55	1
84	84	4
113	115	1
119	119	3
52	59	1
53	84	1
52	52	3
114	115	1
81	81	3
15	16	3
85	88	1
118	121	3
76	83	1
73	76	2
95	95	4
123	125	1
102	103	1
72	74	1
27	27	1
26	27	2
12	13	2
45	65	1
88	89	1
77	77	4
115	115	5
102	102	9
131	132	1
100	100	3
107	107	5
58	58	3
63	74	2
14	17	1
14	65	1
46	46	2
29	29	7
54	60	2
56	58	1
1	1	3
3	4	7
106	106	3
57	57	2
7	24	1
68	72	2
14	72	1
82	82	10
113	113	4
19	38	1
56	65	1
120	129	2
50	62	1
74	77	1
100	135	1
102	109	1
45	70	1
124	124	1
58	59	1
48	48	3
20	25	1
36	45	1
6	7	2
128	129	3
101	111	1
99	101	2
83	84	3
62	64	1
7	9	1
86	86	6
110	110	3
70	115	1
119	126	2
44	49	1
132	132	4
13	32	1
43	44	1
9	9	5
123	124	1
57	61	1
76	76	9
18	18	3
11	11	3
16	16	7
111	111	2
76	87	2
11	70	1
92	93	1
57	58	2
23	23	4
37	37	2
88	93	1
73	77	1
91	107	1
129	135	1
63	64	3
74	75	1
101	101	2
59	85	2
112	112	3
96	96	4
52	54	2
77	78	1
54	77	1
37	58	2
115	116	1
19	19	4
35	36	1
78	78	4
8	8	5
15	15	4
25	27	1
62	63	4
26	28	1
86	91	1
117	130	1
19	21	1
92	92	2
1	4	1
79	84	1
85	86	2
33	38	1
90	116	1
17	19	2
66	77	2
88	88	3
75	75	4
9	11	2
61	61	7
58	63	1
78	89	1
54	59	1
43	45	2
89	105	1
20	24	1
4	17	1
68	68	2
81	82	3
105	115	1
55	83	1
59	66	2
0	3	1
18	19	1
108	109	2
45	46	1
127	135	1
53	62	1
125	125	6
53	58	1
131	131	2
58	85	1
13	13	4
101	130	1
105	105	2
83	88	1
110	113	1
74	74	4
12	14	2
66	66	4
50	50	5
86	87	1
56	57	2
49	54	1
122	126	1
31	31	3
98	98	4
22	28	1
65	65	3
14	15	1
83	83	6
62	74	1
32	32	2
3	9	2
3	3	4
123	134	1
5	46	1
80	87	1
67	67	4
53	59	1
45	54	2
24	39	1
82	84	1
81	104	1
2	4	1
8	9	3
0	0	2
15	45	1
46	60	1
20	20	2
80	80	3
76	77	2
3	29	1
24	29	1
1	3	2
65	69	1
28	29	4
27	74	1
121	134	1
43	77	1
7	8	1
6	13	1
117	117	4
44	50	1
63	67	1
73	75	2
0	2	3
35	77	2
116	116	2
114	116	1
48	87	1
35	38	1
23	31	2
56	60	1
71	95	1
134	134	2
63	63	5
86	89	1
60	84	1
53	53	1
65	68	2
87	97	1
70	77	1
89	89	1
64	67	1
116	117	1
109	109	1
68	75	1
54	55	1
23	42	1
110	112	1
54	56	1
112	124	1
119	123	1
38	54	1
99	108	1
11	14	1
5	34	1
58	66	1
127	132	1
36	37	1
71	72	1
66	69	1
133	134	1
30	31	1
38	38	2
19	77	1
37	39	1
3	7	1
116	119	1
77	83	1
4	12	1
17	24	1
19	20	2
34	35	2
32	33	1
117	121	1
22	25	1
75	76	1
35	44	1
84	85	1
118	130	1
124	125	3
27	78	1
60	64	1
2	6	1
81	88	1
54	79	1
21	30	1
45	47	1
111	113	1
79	81	1
126	127	1
127	134	1
10	19	1
22	24	1
89	90	1
111	117	1
112	114	1
17	17	1
14	52	1
31	33	1
99	102	1
72	73	1
67	68	1
4	56	1
127	131	1
13	16	1
99	106	1
105	114	1
97	123	1
43	58	2
107	113	1
135	135	1
101	105	1
21	22	1
50	51	1
30	34	1
71	97	1
30	37	1
69	71	1
80	119	1
64	69	1
2	3	1
91	92	1
3	74	1
18	36	1
1	17	1
24	26	1
21	23	1
61	65	1
65	81	1
56	56	2
130	131	2
10	32	1
116	123	1
121	121	2
73	82	1
81	123	1
5	6	1
90	117	1
113	114	1
22	26	1
89	103	1
29	31	1
130	130	1
68	78	1
96	103	1
19	89	1
6	32	1
87	88	1
1	31	1
