153	154	1
135	135	1
101	102	3
36	54	1
158	158	2
84	85	2
3	5	1
155	155	3
86	90	1
174	174	2
97	97	4
40	40	1
28	30	1
155	156	1
133	134	1
148	149	1
84	84	1
151	151	2
60	99	1
77	77	1
71	72	1
11	14	1
42	42	2
73	74	2
127	127	1
89	89	1
41	41	4
63	64	1
108	108	2
120	120	3
124	130	2
6	6	3
66	66	2
118	119	1
52	52	4
173	173	3
172	172	1
141	141	2
27	27	2
8	8	2
61	61	1
119	119	1
143	165	1
143	144	2
41	42	3
159	159	3
91	175	1
150	150	2
60	61	2
112	112	2
170	170	3
55	61	2
13	13	1
142	157	1
80	80	1
114	114	2
124	124	1
179	180	1
147	147	3
98	101	1
18	20	1
157	157	3
176	176	1
156	156	7
36	36	1
104	106	3
140	153	1
26	33	1
163	163	1
136	137	1
105	105	1
102	103	1
123	123	3
39	39	2
90	90	3
148	148	1
92	93	2
164	166	1
139	139	2
114	116	1
97	98	2
116	117	1
9	9	2
102	102	1
168	168	3
121	122	1
128	129	1
89	90	4
44	44	1
12	13	2
86	86	6
78	78	1
130	130	1
45	45	3
88	88	2
154	154	3
125	125	4
92	92	2
59	60	1
178	178	1
177	178	2
62	62	3
97	101	1
113	113	2
124	125	1
122	124	1
171	172	1
19	25	1
113	116	1
83	84	3
132	132	3
121	121	1
3	3	2
94	94	3
104	104	1
42	61	1
161	161	3
169	171	1
160	161	1
72	73	1
54	56	1
149	151	1
146	146	4
145	166	1
145	145	1
23	35	1
15	16	1
87	88	1
171	171	1
165	165	3
87	87	1
124	126	1
52	53	1
99	99	1
129	129	4
91	91	2
128	128	2
53	53	1
35	35	1
144	144	1
110	110	2
26	26	1
50	50	3
136	176	1
15	15	2
77	78	1
67	67	1
37	37	1
65	65	1
179	179	1
169	169	2
153	162	1
49	57	2
5	6	1
142	145	1
98	98	1
75	75	1
101	101	1
111	111	1
11	13	1
50	51	1
57	59	1
117	117	1
120	126	1
146	165	1
111	112	1
23	23	1
167	170	1
79	79	1
58	59	1
56	60	1
85	96	1
105	111	1
73	84	1
68	68	1
118	118	1
41	43	1
102	104	1
96	97	1
152	153	1
112	115	1
126	126	1
115	116	1
14	14	1
93	94	1
50	83	1
56	56	1
93	93	1
103	106	1
116	116	1
10	10	1
133	133	1
79	81	1
64	66	1
11	11	1
2	2	1
157	168	1
