154	155	3
221	221	4
208	224	1
218	218	1
150	151	3
18	18	2
151	151	3
76	80	1
168	169	2
65	65	1
158	158	1
10	10	3
133	133	5
30	30	1
168	168	2
181	181	6
97	172	1
135	173	1
32	217	1
162	168	1
156	174	1
99	109	2
37	37	1
140	140	1
147	147	3
48	48	2
97	106	1
13	13	2
219	220	2
226	226	1
145	146	1
68	68	2
122	122	4
44	45	1
81	83	2
216	216	3
4	4	4
57	57	1
54	85	1
3	7	1
236	236	2
181	186	1
225	225	1
7	7	4
142	142	3
34	59	1
81	82	3
61	61	2
5	21	4
232	232	1
132	133	1
150	150	2
166	166	2
27	27	1
103	103	2
128	128	1
53	53	2
174	174	1
5	5	2
163	163	1
209	209	1
149	149	5
40	40	1
195	196	1
123	123	2
215	215	1
19	21	1
98	98	1
36	81	1
160	160	1
158	168	1
49	50	2
41	41	3
47	48	1
127	127	1
8	8	2
25	58	1
73	73	1
21	22	1
4	5	2
188	222	1
152	172	1
9	9	1
19	19	2
126	126	2
74	74	1
81	84	1
69	69	3
88	88	3
143	151	1
0	0	2
77	79	1
96	96	1
46	46	4
118	118	5
199	199	1
17	42	2
234	234	1
7	8	2
211	212	1
165	167	1
14	16	1
67	67	2
145	147	1
155	183	2
162	165	1
77	77	1
36	40	1
38	38	3
17	18	1
173	175	2
64	66	1
116	116	2
184	187	1
221	225	1
6	6	1
24	24	3
74	110	1
3	138	1
16	23	2
211	211	2
102	104	1
170	170	3
162	162	1
12	12	2
178	178	2
62	62	3
105	105	1
206	206	1
30	234	1
113	113	1
51	51	1
98	99	2
174	198	1
108	110	1
169	169	1
164	165	1
12	14	2
11	216	1
106	106	1
17	20	1
156	187	1
176	176	1
35	35	1
220	220	1
143	150	1
99	99	2
192	192	1
42	58	1
114	116	1
138	142	1
141	141	1
25	86	1
16	36	2
158	178	1
199	219	1
1	6	1
229	229	1
109	110	1
74	75	1
45	45	1
210	211	1
104	140	2
162	163	1
150	165	1
25	25	4
24	46	1
226	227	1
229	230	1
177	179	1
238	238	1
211	213	1
0	1	1
161	180	1
64	64	1
118	157	1
223	223	1
186	188	1
108	148	2
118	119	1
32	32	1
165	165	1
72	89	1
42	42	1
47	47	1
123	124	3
22	22	1
125	125	2
186	186	2
202	202	2
202	204	1
235	235	2
172	173	1
50	53	1
7	18	1
54	54	1
157	157	1
134	135	1
237	237	2
171	175	1
182	183	1
180	182	1
124	155	1
1	20	1
3	3	2
111	113	2
83	83	1
7	13	1
51	52	2
234	238	2
205	206	1
174	184	1
171	171	1
157	164	1
23	23	2
60	87	1
183	183	2
139	139	2
129	147	1
31	31	1
182	182	2
75	75	2
21	21	2
193	194	1
48	79	2
100	150	1
178	197	1
217	217	1
57	83	2
148	148	2
136	157	1
143	143	2
129	130	2
57	76	1
107	107	1
2	3	1
167	185	1
59	59	1
82	82	1
240	241	1
161	161	2
121	121	1
124	124	1
195	195	2
138	139	1
11	11	1
2	17	1
55	55	1
139	143	1
231	231	2
80	80	3
68	86	1
104	104	2
184	184	1
154	154	1
130	130	1
185	192	1
119	119	1
97	98	1
224	231	1
203	203	1
38	42	1
233	233	2
228	230	1
188	190	1
100	100	2
233	236	1
193	195	1
163	179	1
215	216	1
52	53	1
101	101	1
99	241	1
139	141	1
172	172	1
102	102	1
50	50	1
119	120	1
39	39	1
106	108	1
61	64	2
158	170	1
11	21	1
167	187	1
210	210	2
83	84	1
117	118	1
34	34	1
222	228	1
137	138	1
136	184	1
78	78	1
207	207	1
143	144	1
161	166	1
85	85	1
11	33	1
164	164	1
109	109	1
196	196	1
119	136	1
75	80	1
100	130	1
36	36	1
98	109	1
187	187	1
115	115	1
159	159	1
