108	108	3
57	91	1
67	74	2
128	128	4
32	35	1
104	106	1
35	35	2
130	130	2
68	68	7
105	106	5
81	81	2
65	65	3
48	48	3
28	28	4
32	32	3
10	10	5
38	40	2
95	95	3
58	64	1
57	58	1
31	53	1
90	134	1
97	97	4
90	109	1
139	140	3
18	18	2
57	57	2
123	123	2
39	135	2
16	16	1
59	67	2
30	31	1
75	125	1
101	133	1
143	143	3
47	48	2
111	112	1
80	80	7
32	33	1
73	73	3
110	110	2
95	96	2
100	101	2
57	111	1
124	130	1
125	125	3
56	57	1
55	104	1
37	37	3
126	126	1
33	33	6
61	74	1
16	31	2
33	34	1
40	41	2
70	70	4
102	102	4
23	89	1
27	27	7
15	18	1
79	79	1
136	136	2
108	124	1
74	74	2
41	41	5
127	127	3
34	34	1
40	40	1
82	82	1
139	139	2
93	94	3
19	19	3
132	132	4
4	4	3
47	50	1
24	24	2
85	125	1
61	61	5
121	121	2
15	17	1
18	93	1
4	15	1
132	133	1
43	43	2
4	5	1
21	21	6
22	22	2
55	59	2
29	29	2
75	75	1
58	58	5
88	89	1
98	99	4
8	9	2
107	107	3
141	141	2
98	98	2
23	23	3
11	11	4
14	14	3
27	62	1
128	129	2
51	52	1
114	116	1
124	124	2
53	53	2
62	78	1
116	124	2
133	134	1
78	79	2
84	85	2
67	67	3
14	16	1
96	96	3
93	98	1
15	16	1
104	105	1
41	42	1
15	76	1
20	21	1
131	131	3
60	113	1
90	90	2
117	117	1
105	105	2
115	115	4
82	83	3
65	75	1
104	109	1
14	15	2
62	109	1
103	103	3
109	111	1
83	113	1
94	109	1
107	141	1
89	90	1
66	67	1
55	58	1
25	25	3
137	139	1
43	55	1
118	119	2
17	17	4
142	142	1
38	130	1
2	3	3
47	47	1
38	86	1
96	127	1
13	14	1
51	51	1
53	62	1
5	5	1
66	66	2
13	13	1
3	3	1
55	55	3
118	118	2
111	113	1
79	114	1
114	118	1
81	83	1
146	146	1
122	122	1
65	66	1
99	102	1
0	0	2
52	52	1
28	129	1
144	144	2
135	135	1
31	32	2
127	133	1
64	66	1
60	61	1
129	129	2
80	81	1
73	74	1
108	110	1
9	9	1
111	111	2
20	20	1
127	130	1
64	64	2
37	107	1
121	123	1
38	129	1
36	36	2
8	128	1
2	2	2
69	69	1
108	109	1
48	68	1
76	78	1
104	104	1
66	68	1
50	51	1
128	130	1
3	33	1
56	56	3
73	101	1
113	113	2
115	134	1
9	108	1
52	78	1
115	120	1
18	19	1
1	19	1
59	59	1
23	24	1
17	18	1
100	100	2
54	54	2
87	87	2
31	31	2
93	93	1
42	42	3
48	73	1
133	133	1
47	49	1
105	137	1
134	136	1
49	49	1
56	86	1
140	141	2
121	131	1
132	139	2
57	88	1
138	138	1
91	136	1
131	135	1
59	61	1
109	109	2
89	93	1
27	28	1
16	17	1
19	39	1
8	8	2
94	95	1
94	94	1
107	109	1
18	25	1
76	76	1
77	118	1
110	120	1
79	80	1
65	74	1
104	110	1
70	108	1
39	39	1
140	140	1
137	137	1
85	85	1
26	30	1
1	1	1
8	22	1
19	20	1
117	131	1
86	112	1
113	139	1
61	66	1
95	98	1
106	106	1
101	102	1
76	91	1
31	38	1
99	101	1
125	126	1
91	91	1
12	12	1
30	30	1
4	32	1
76	77	1
54	55	1
4	135	1
10	20	1
61	62	1
137	138	1
120	120	1
87	89	1
29	102	1
60	60	1
71	85	1
99	100	1
101	101	1
