123	123	3
65	65	2
102	102	2
108	111	3
0	1	2
119	119	5
94	123	1
47	102	1
93	93	2
94	96	1
60	60	2
101	101	4
124	125	2
115	133	3
78	78	5
108	129	1
132	132	8
7	7	5
38	39	4
65	66	1
121	121	7
95	96	2
115	115	1
38	38	3
79	79	1
96	100	1
76	76	2
80	81	1
131	131	9
79	85	1
61	61	6
59	59	3
57	57	5
101	130	1
129	129	7
110	110	4
46	61	1
126	126	4
82	101	1
78	95	2
122	122	3
106	106	6
68	68	1
43	43	4
4	119	1
42	42	3
113	113	7
4	4	2
69	69	2
43	47	1
98	98	1
97	98	3
55	55	2
61	71	1
92	92	6
91	91	4
22	23	2
76	78	1
124	124	4
96	96	2
26	30	1
39	39	5
77	77	2
12	12	3
110	129	2
36	38	1
16	16	4
133	133	4
99	99	2
94	94	2
83	83	4
110	121	2
116	123	1
20	20	4
113	126	2
81	89	1
26	26	2
13	14	1
64	64	4
32	39	1
68	117	1
102	115	1
86	86	4
105	123	1
22	27	1
125	126	2
35	36	3
2	4	1
59	60	1
4	6	1
11	17	1
78	130	1
58	58	3
79	80	3
29	29	3
83	84	1
87	87	7
132	134	1
89	99	1
100	100	4
10	10	2
20	58	1
116	116	4
35	35	4
95	121	1
111	134	1
62	62	4
7	17	1
130	130	1
59	125	1
15	15	3
132	133	3
19	43	2
70	70	2
27	27	4
111	111	4
1	2	1
11	14	2
2	61	1
118	118	1
50	50	3
25	25	3
22	22	4
45	113	2
71	71	1
44	45	3
29	30	1
33	61	1
36	36	4
49	49	1
31	31	2
40	40	3
63	63	2
9	10	2
89	89	1
17	17	5
64	65	1
87	92	1
83	121	1
55	56	1
67	67	2
120	120	4
72	72	2
3	133	1
19	20	3
119	120	2
2	2	2
23	26	1
104	104	4
106	107	2
22	94	2
103	107	1
66	66	4
74	74	3
19	19	2
18	18	2
100	124	1
44	44	3
23	23	2
99	100	1
85	85	3
24	38	1
34	35	2
56	56	4
46	46	1
115	119	1
47	59	1
8	8	2
125	125	3
32	32	2
102	106	1
21	23	1
84	84	1
85	86	1
115	129	2
56	57	1
60	95	1
111	124	1
7	127	2
46	47	3
61	68	2
108	108	1
96	98	4
133	134	4
86	97	1
34	75	2
117	118	2
80	101	1
27	28	2
33	34	2
38	40	1
11	11	3
15	130	1
93	96	1
6	7	1
120	131	1
91	92	2
44	129	1
0	0	3
118	125	1
114	114	3
84	98	1
47	62	1
10	125	1
128	128	1
8	57	1
40	127	1
109	109	1
57	58	2
117	117	2
9	33	1
105	105	3
95	95	1
87	88	1
5	5	2
114	115	1
81	81	4
112	112	3
42	43	2
9	9	1
79	82	1
25	27	2
109	111	1
6	26	1
101	102	1
20	22	1
46	67	1
24	24	2
81	86	1
102	105	1
100	101	1
47	47	3
54	54	1
97	97	1
102	112	1
79	81	1
21	21	1
38	42	1
134	134	1
105	131	1
27	47	1
120	128	1
123	124	1
1	1	3
16	31	2
72	73	1
8	17	1
105	121	1
109	110	1
107	107	2
15	16	1
98	99	1
33	33	1
34	34	1
111	112	1
114	116	1
114	132	1
48	48	3
90	100	1
103	103	1
72	77	1
18	38	1
71	72	1
