75	75	4
23	23	3
97	97	4
68	69	5
83	83	3
119	119	5
18	18	2
69	86	2
118	118	5
32	63	1
87	87	3
67	67	1
8	10	1
89	89	3
41	42	1
106	107	1
122	122	3
92	92	2
78	78	2
3	6	2
48	48	4
133	133	2
32	32	2
104	104	7
92	114	3
125	129	1
10	10	1
85	85	3
81	85	1
64	64	5
20	21	1
123	124	1
99	124	1
17	17	1
9	9	1
76	76	7
54	102	1
48	103	1
53	53	5
76	102	1
118	119	1
4	5	1
11	11	5
44	44	2
88	90	2
52	52	3
116	116	4
107	107	5
79	79	4
27	27	5
26	26	4
61	62	3
70	70	2
38	133	1
113	114	2
109	112	1
51	51	3
31	31	4
53	62	1
71	77	1
81	86	1
63	63	2
59	59	2
67	68	1
46	64	1
126	126	3
49	49	1
125	128	1
39	39	1
91	91	1
6	6	2
114	114	5
103	103	5
55	55	4
112	112	2
120	120	3
75	85	1
109	109	7
10	11	1
104	125	1
105	105	4
18	33	2
25	25	3
1	2	3
123	123	3
85	86	2
50	50	2
62	62	2
13	14	2
9	16	1
90	91	2
78	87	1
72	73	1
109	119	1
12	12	1
94	95	4
93	99	1
113	113	4
57	57	6
51	52	1
91	93	3
115	115	4
58	78	1
93	94	1
90	90	5
61	61	3
65	65	1
100	100	4
128	128	3
39	126	1
117	117	1
17	63	2
64	65	1
33	33	2
98	98	1
111	111	4
124	124	3
17	33	1
45	45	4
54	54	5
68	103	2
82	83	1
81	81	1
108	108	2
18	20	1
79	81	3
45	46	1
27	32	2
68	68	5
102	103	1
34	34	2
106	106	2
110	111	2
71	71	3
117	118	2
110	110	7
129	132	1
24	24	2
22	26	1
66	66	3
28	32	1
77	77	2
103	105	2
100	101	1
110	119	3
28	28	5
18	21	1
95	95	3
69	69	3
38	40	1
57	58	2
27	28	2
61	99	2
73	75	1
129	129	2
21	21	4
24	25	1
20	20	1
102	102	3
83	85	1
28	40	1
28	38	1
19	100	1
40	40	1
80	80	1
58	60	1
39	71	1
59	67	1
56	56	4
7	7	1
74	74	3
115	120	1
131	132	1
93	93	5
132	132	5
23	24	2
38	39	1
101	101	2
127	127	5
79	80	1
76	129	1
111	118	1
121	121	1
106	118	1
14	14	2
82	82	1
25	122	1
58	62	1
40	89	1
76	89	1
38	38	1
42	42	3
86	86	1
2	2	3
8	8	2
5	5	1
109	110	1
4	4	2
70	111	1
25	26	1
15	17	1
10	16	1
131	131	2
46	46	1
72	95	1
125	125	1
3	3	1
32	33	2
19	20	1
63	64	1
74	128	1
94	106	1
30	30	2
16	17	1
16	101	1
50	51	1
59	62	1
43	43	2
47	48	3
78	96	2
30	60	1
37	40	1
22	23	1
119	120	1
60	98	1
80	97	1
87	88	1
72	90	1
77	96	1
19	19	2
46	47	1
10	17	1
126	127	1
72	72	1
51	122	1
57	66	1
80	94	1
47	47	1
96	96	1
1	1	1
128	129	1
69	110	1
71	76	1
92	115	1
132	133	1
66	98	1
122	123	1
94	105	1
113	118	1
18	19	1
73	73	1
46	62	1
130	130	2
24	42	1
15	16	1
95	98	1
84	85	1
110	113	1
75	76	1
58	58	1
43	44	1
41	41	1
115	116	1
