204	204	4
240	240	4
98	99	3
28	29	2
223	223	5
20	20	2
177	177	2
91	91	2
163	163	5
91	93	1
184	185	2
38	58	1
237	238	2
176	176	2
111	111	5
33	33	2
186	190	1
199	199	3
201	201	2
145	145	2
215	215	2
37	37	7
158	160	1
16	246	2
85	85	6
47	47	4
226	227	2
95	96	1
205	205	4
242	245	1
172	210	1
196	215	1
52	65	1
235	235	2
74	74	4
75	76	1
245	246	3
71	97	1
63	90	1
12	232	1
170	188	1
111	114	1
100	100	2
26	27	2
173	176	1
181	181	6
214	214	3
220	222	1
161	161	5
114	114	7
96	97	2
32	33	1
166	166	5
171	171	2
212	212	1
219	219	3
225	226	2
61	61	3
87	89	2
67	90	1
82	84	2
208	210	1
72	73	2
1	1	2
50	50	3
207	207	5
236	237	1
7	7	3
242	242	1
195	195	3
36	36	3
58	245	1
217	241	2
22	23	1
65	65	5
87	90	1
197	198	3
191	191	5
202	203	1
8	8	1
68	222	2
44	44	2
226	228	1
167	167	3
174	198	1
189	189	2
28	31	1
156	202	1
59	60	3
211	211	4
68	68	4
227	227	3
21	22	2
95	95	3
210	210	7
56	57	2
54	182	1
109	109	4
220	220	6
218	218	2
92	92	1
169	171	1
238	239	1
227	244	1
117	117	6
112	113	2
4	5	1
62	63	1
150	151	1
228	228	3
1	181	2
112	112	6
28	28	3
182	183	1
42	42	7
24	24	2
150	155	2
188	190	1
56	58	1
184	184	3
77	244	1
228	229	1
104	104	3
23	23	2
245	245	2
12	12	6
59	180	1
172	200	1
4	4	4
159	159	1
206	206	5
227	228	3
7	8	2
172	247	1
108	117	1
93	93	3
75	108	1
172	172	3
56	56	4
98	98	2
156	156	4
22	22	4
6	6	2
8	160	1
54	62	1
164	165	1
63	63	3
40	40	2
247	248	1
211	212	1
69	69	1
40	182	1
37	55	1
111	143	1
241	241	5
66	67	4
216	216	3
53	53	4
49	49	3
244	244	2
160	161	1
115	115	3
166	187	1
202	202	4
51	53	1
198	198	2
170	176	1
164	164	2
247	247	4
18	18	3
197	197	5
76	76	3
33	34	1
37	38	2
17	17	1
46	47	1
209	209	4
16	16	3
185	192	1
194	194	4
222	224	1
11	11	2
76	77	1
2	2	1
116	116	1
5	5	5
226	226	7
38	38	2
183	184	2
221	222	2
102	102	2
27	27	2
233	233	2
65	66	2
30	30	3
236	245	2
87	88	1
44	45	1
48	48	4
86	88	2
198	223	1
60	61	1
170	170	1
203	204	1
69	86	1
156	158	1
152	152	3
119	119	3
109	110	1
183	208	1
231	231	4
181	182	1
26	26	4
80	82	1
77	85	1
243	243	2
167	191	1
166	169	2
88	88	2
31	41	1
73	73	1
63	247	1
27	28	2
100	118	1
54	184	1
67	67	2
165	166	2
78	78	1
174	174	4
192	192	2
202	231	1
248	248	2
46	156	1
43	44	3
183	183	7
101	101	1
9	9	1
194	195	4
45	45	5
237	237	5
112	181	1
34	34	2
100	145	1
173	191	1
120	120	1
46	46	1
188	188	3
144	231	1
184	236	1
31	31	4
150	150	3
90	90	1
41	41	2
17	18	1
59	59	2
83	87	1
57	58	2
118	119	3
173	213	1
246	246	4
65	182	1
185	185	4
236	236	4
246	247	1
40	41	1
222	223	1
47	62	1
80	224	1
171	189	1
62	62	1
199	225	1
190	191	1
55	56	2
14	14	5
96	99	1
182	182	1
162	162	1
29	53	1
242	243	2
25	25	1
117	118	1
147	147	1
190	190	1
243	246	1
217	217	1
233	234	1
84	84	3
219	237	1
21	21	2
29	31	1
77	77	1
165	165	2
68	118	1
212	213	2
30	31	1
64	79	1
177	181	1
97	98	1
107	107	1
168	168	1
48	116	1
151	151	1
175	176	1
55	55	3
85	224	1
46	114	1
200	200	2
232	232	1
105	105	2
229	229	1
238	242	1
146	158	1
189	190	1
224	224	2
197	200	1
58	58	4
177	236	1
187	189	3
214	215	3
110	110	3
213	213	2
208	209	1
170	189	1
21	74	1
97	97	1
86	86	1
197	199	1
176	179	1
50	88	1
173	173	2
113	113	1
193	194	2
66	66	1
160	160	3
102	103	1
0	155	1
54	54	2
199	200	2
28	68	1
51	51	3
39	53	1
178	178	1
208	208	3
185	186	1
208	211	2
229	230	1
75	75	2
82	83	2
232	243	1
15	15	1
65	67	1
163	218	1
188	189	1
187	187	1
158	181	2
89	89	2
155	155	4
70	71	1
189	192	1
203	203	1
185	227	1
32	32	1
175	175	2
41	43	1
28	212	1
11	22	1
198	199	2
36	37	1
232	242	1
43	43	2
238	238	2
102	164	1
187	188	1
18	19	1
213	217	1
3	4	1
173	186	1
172	173	1
35	42	1
154	154	1
186	186	3
29	29	1
101	208	1
119	120	1
178	179	1
6	7	1
234	234	3
179	182	1
173	208	1
51	63	1
50	59	1
193	196	1
193	193	1
99	99	1
40	65	1
42	44	1
220	224	1
195	221	1
101	102	1
169	170	1
32	54	1
180	181	2
225	225	1
169	169	1
42	43	1
42	52	1
177	178	2
24	28	1
227	234	1
99	100	1
230	230	1
243	247	1
85	86	1
57	61	1
224	225	1
39	39	1
11	15	1
54	225	1
93	225	1
35	35	2
87	87	1
35	36	1
243	244	1
237	239	1
172	192	1
197	217	1
55	209	1
163	217	1
103	103	1
16	17	1
187	190	1
77	78	1
68	246	1
110	111	1
179	179	1
215	218	1
175	177	1
162	163	1
104	107	1
45	46	1
49	50	1
178	181	1
95	157	1
184	186	1
63	85	1
80	81	1
230	231	1
68	69	1
174	175	1
19	19	1
212	230	1
163	208	1
105	192	1
211	214	1
