0	0	2
120	120	7
120	122	2
100	100	4
75	75	6
3	3	7
104	104	3
65	81	1
113	113	5
17	17	3
50	50	6
111	111	2
45	46	2
2	2	1
127	127	5
105	119	1
28	28	5
34	34	3
44	57	1
115	115	2
96	96	2
6	6	5
98	98	6
78	84	1
5	13	1
105	105	3
84	84	5
35	35	3
52	52	2
118	118	4
72	73	3
19	24	1
21	22	1
79	80	1
26	26	10
125	125	4
72	72	7
20	34	1
112	113	1
37	118	1
106	106	8
61	62	2
132	133	1
13	14	2
56	56	1
58	60	3
10	10	5
47	80	1
86	87	1
116	119	1
94	104	1
43	44	2
112	112	1
130	130	5
95	95	2
74	74	8
57	57	2
121	121	4
94	94	2
122	124	1
7	7	3
99	99	3
28	31	1
91	91	5
11	11	11
93	93	1
47	47	1
15	15	1
8	8	3
79	79	8
75	89	1
19	19	7
81	81	4
8	9	2
11	12	1
129	129	1
38	38	3
60	64	1
20	21	1
66	68	1
27	28	4
54	55	1
121	122	1
22	95	2
82	82	5
134	134	5
2	45	1
5	5	4
77	78	3
1	1	2
114	126	1
14	14	2
52	88	1
77	77	2
61	77	1
63	63	2
69	106	2
76	81	1
53	54	1
122	122	1
18	18	1
0	33	1
68	68	3
19	20	4
9	69	1
112	115	1
114	116	2
78	78	4
25	25	3
65	69	4
20	82	1
31	31	4
59	59	3
107	107	1
135	135	2
37	37	2
87	87	4
73	74	3
24	32	2
35	38	1
116	116	3
20	62	1
64	64	1
36	37	1
29	29	1
70	71	1
70	70	6
48	48	3
36	36	2
65	67	1
53	53	5
12	26	2
119	119	5
9	24	1
67	69	1
88	105	2
24	27	1
117	117	4
132	132	3
102	103	2
65	65	4
43	43	5
60	61	1
10	11	1
89	104	1
104	105	1
95	96	1
25	26	2
6	44	2
83	83	4
32	44	1
116	118	1
18	19	1
32	32	1
116	122	1
8	32	1
11	38	1
89	91	2
26	28	1
114	115	2
13	13	3
102	102	4
56	108	1
91	109	1
110	132	2
62	62	5
123	123	2
17	73	1
13	26	1
16	16	2
44	44	1
80	80	7
60	60	3
117	118	1
88	106	2
120	121	4
24	25	2
23	64	1
97	126	1
52	54	1
97	97	3
114	114	2
80	85	1
101	101	3
71	72	2
45	61	1
86	86	1
73	73	8
88	88	1
125	126	1
108	109	1
71	71	8
23	24	1
61	79	1
25	85	1
9	10	1
110	110	3
92	124	1
20	20	2
71	82	1
46	46	2
16	17	3
87	108	1
63	64	1
11	33	1
30	30	3
42	84	2
59	92	1
126	127	1
54	59	1
96	97	2
74	75	1
75	104	1
55	65	1
109	109	2
48	86	1
5	64	1
110	111	1
58	59	1
86	113	1
26	27	1
0	1	1
107	108	1
133	134	1
50	74	1
75	80	1
45	45	4
66	77	1
67	112	2
43	47	1
124	134	1
100	133	1
7	8	1
61	67	1
65	112	1
48	54	1
9	9	1
69	69	3
88	89	1
67	68	1
97	99	1
126	126	5
56	113	1
90	90	2
28	30	1
85	86	1
76	76	1
68	83	1
6	7	1
53	67	1
133	133	1
105	106	1
124	124	2
3	112	1
58	58	3
3	4	1
80	81	1
122	135	1
52	53	1
83	84	1
127	129	1
54	54	1
12	12	3
92	93	1
84	105	1
49	71	1
44	62	1
75	81	1
42	53	1
22	22	1
106	130	1
4	4	1
89	89	1
8	38	1
94	102	1
49	50	1
77	95	1
23	43	1
78	79	1
12	13	1
3	17	1
4	77	1
67	67	1
59	60	1
62	65	1
23	23	1
49	51	1
3	23	1
121	126	1
109	110	1
43	50	1
71	73	1
92	108	1
127	128	1
46	81	1
82	88	1
130	133	1
64	96	1
123	127	1
32	33	1
85	110	1
82	85	1
0	7	1
74	79	1
113	121	1
103	104	1
54	62	1
0	12	1
128	128	1
98	99	1
27	33	1
