32	58	1
4	20	2
123	124	1
29	29	2
113	113	3
70	70	1
119	139	1
84	84	1
10	16	1
145	145	2
130	133	3
42	42	2
38	39	1
117	118	2
95	113	1
30	30	1
11	11	1
54	54	3
140	141	2
25	25	3
55	55	2
50	50	6
23	23	2
118	133	1
13	13	2
80	80	2
107	108	2
130	138	1
34	34	3
67	68	1
62	71	1
63	63	1
66	66	4
71	87	1
141	146	1
48	50	2
35	35	2
47	47	2
71	73	2
38	71	1
70	90	1
131	131	2
137	137	7
143	143	1
15	17	1
130	134	1
101	101	1
41	42	3
119	123	1
6	6	1
60	68	1
33	33	3
57	70	1
6	20	1
89	89	1
99	100	1
106	106	3
31	33	3
83	89	2
74	76	1
48	63	1
104	104	2
14	28	1
122	122	1
101	102	2
93	106	1
119	119	1
76	89	1
60	63	1
81	93	1
98	110	1
92	92	2
60	60	6
88	89	4
124	124	3
75	75	2
136	136	1
112	115	2
127	129	1
98	106	2
117	119	1
98	99	2
37	38	2
63	85	4
94	94	2
5	5	1
87	93	2
118	118	2
132	132	2
32	35	1
126	126	2
19	21	1
40	41	1
111	121	2
78	78	2
122	123	1
119	126	1
129	129	3
68	68	3
89	100	1
108	108	2
128	128	3
59	65	1
61	61	1
1	22	1
61	70	1
86	100	1
1	1	3
65	65	2
37	51	2
113	114	1
63	70	2
66	68	1
32	33	1
2	20	1
90	90	1
109	111	1
82	82	1
28	33	1
104	105	1
142	142	1
101	103	2
69	69	1
106	108	2
9	29	1
56	56	1
4	4	2
9	12	2
76	97	1
51	52	1
103	107	2
33	42	1
21	37	1
14	14	2
131	135	2
20	20	1
41	41	2
4	8	1
139	140	1
117	117	3
95	96	1
17	17	1
22	23	1
113	117	1
105	119	1
22	36	1
72	82	2
127	127	1
23	42	1
59	63	1
131	132	2
24	27	1
27	27	2
102	120	1
126	139	1
103	104	1
109	132	2
125	125	1
40	40	3
11	12	1
93	93	2
26	117	1
6	14	1
67	72	1
114	135	1
53	53	2
97	98	1
104	129	1
30	41	1
79	80	1
120	120	2
55	57	1
98	107	1
15	15	1
114	115	1
129	132	1
136	137	1
130	130	1
6	32	1
94	101	1
59	60	1
119	136	1
22	22	1
56	70	1
54	55	2
41	58	1
16	31	1
54	63	1
77	77	1
1	18	1
9	13	1
9	18	1
87	88	1
38	41	1
71	106	1
10	10	1
72	72	2
25	42	2
4	6	1
144	144	2
65	69	1
86	86	2
73	73	1
27	37	1
131	133	1
64	82	2
52	68	1
15	22	1
91	92	1
13	14	1
115	117	1
108	109	1
30	34	1
139	139	1
107	107	1
13	30	1
83	99	1
126	145	1
1	10	1
103	103	1
67	104	1
38	38	1
47	57	1
83	85	1
64	64	1
127	131	1
109	110	1
129	130	1
96	108	1
119	140	1
36	36	1
26	26	1
138	139	1
29	37	1
138	138	1
