68	69	2
21	35	1
7	7	6
31	31	4
69	69	3
127	127	1
35	35	4
36	37	3
80	80	6
61	66	1
43	43	6
48	48	4
113	113	2
31	35	1
80	81	3
86	86	3
78	81	1
104	104	6
97	97	5
65	67	1
81	96	1
23	23	6
28	29	1
24	24	8
24	25	2
91	92	2
25	28	1
77	77	4
116	116	2
65	65	6
86	87	2
52	84	1
54	56	2
60	60	3
27	27	6
75	103	1
21	25	2
121	125	1
43	62	1
109	110	3
123	123	4
87	87	5
85	85	5
5	5	8
14	14	7
73	73	6
44	44	8
83	84	4
130	130	4
47	48	2
64	88	2
4	4	2
79	79	2
0	1	1
115	116	1
108	111	1
31	33	1
81	82	1
69	70	2
81	81	4
11	11	3
25	25	5
19	19	3
108	115	1
71	71	2
119	131	1
70	76	2
133	133	2
57	106	1
50	50	3
58	69	1
90	90	4
76	80	1
98	98	2
9	10	1
124	124	4
16	16	2
22	25	1
10	10	1
91	91	3
6	6	4
125	132	2
125	131	2
66	66	5
47	47	8
43	44	3
76	76	10
49	49	2
90	91	3
56	58	3
78	79	3
100	100	1
122	122	3
20	20	3
118	118	4
94	94	3
95	97	1
126	126	3
63	64	1
88	88	2
34	34	7
12	12	4
44	45	5
114	114	1
82	82	7
78	120	1
132	133	3
21	22	2
109	109	1
122	134	1
61	62	2
21	21	1
66	67	2
16	29	2
100	101	1
53	53	3
75	75	3
3	14	1
118	119	1
124	127	1
34	35	1
37	37	2
60	61	1
104	128	2
89	89	3
101	101	4
109	111	1
58	59	2
62	62	3
52	114	1
15	16	2
18	19	1
1	4	1
102	103	2
72	72	5
103	121	1
70	70	4
111	111	1
3	3	5
10	19	1
2	72	1
92	110	1
9	9	3
26	26	3
104	121	1
73	103	1
58	58	2
131	131	4
59	59	2
57	59	1
98	99	1
122	123	3
85	86	2
18	18	4
92	93	3
105	105	6
32	32	3
115	115	6
1	1	4
114	115	4
69	77	1
116	117	1
38	57	1
119	119	3
104	127	1
128	128	3
8	9	1
7	25	1
93	94	1
59	68	1
74	74	4
23	24	1
83	112	2
54	54	2
78	78	1
22	22	1
15	15	3
34	36	2
130	131	1
84	85	1
29	29	2
123	124	1
1	3	1
132	132	1
8	8	1
70	71	2
50	80	1
107	108	1
121	121	3
11	13	1
21	24	1
106	106	1
102	102	3
27	43	1
76	79	2
133	135	1
82	89	1
79	91	1
8	10	1
67	69	1
5	8	1
128	129	2
33	36	1
63	63	3
55	55	3
59	64	1
64	64	2
6	7	3
68	77	1
99	99	1
123	127	1
28	28	2
70	75	1
43	46	1
2	12	1
11	14	1
108	108	2
30	43	1
62	63	1
129	129	3
103	103	1
71	115	1
107	107	1
82	112	1
25	26	1
18	35	1
115	117	1
14	15	1
8	24	1
56	56	2
56	57	1
134	134	2
3	4	1
30	30	3
25	27	2
72	73	1
126	130	1
24	42	1
52	52	1
124	131	1
33	33	1
62	98	1
2	2	2
60	62	1
57	57	2
29	30	1
119	120	1
75	77	1
50	94	1
13	13	1
74	104	1
53	65	1
42	77	1
84	84	1
96	100	1
120	120	2
111	112	1
95	95	1
19	20	1
35	37	1
63	82	1
61	61	1
7	8	1
74	75	1
110	111	1
83	85	1
