138	138	10
133	133	4
76	76	4
175	175	4
30	30	4
153	153	4
17	31	1
122	122	5
28	28	4
117	117	4
16	16	6
162	162	6
38	38	4
39	40	2
132	145	1
139	151	1
108	118	1
106	107	2
7	7	4
126	126	4
73	73	10
91	91	3
98	100	1
52	52	2
87	87	3
104	104	2
17	56	2
146	160	1
178	178	5
63	63	5
11	15	1
176	176	2
31	31	7
128	130	2
143	143	3
112	136	1
11	11	7
83	83	4
23	24	2
85	86	1
100	104	1
125	125	3
148	148	4
67	67	5
0	0	4
113	115	1
107	107	6
177	177	1
116	120	2
23	23	3
22	22	3
127	127	4
161	161	2
31	32	2
18	18	3
65	65	6
152	152	3
94	94	2
141	141	10
10	10	7
26	28	2
110	110	3
119	150	1
169	169	3
13	13	3
120	120	3
18	22	1
68	80	1
87	106	1
130	163	1
112	112	3
166	166	1
115	145	1
55	55	4
95	95	5
3	3	3
81	81	3
29	29	3
104	105	1
82	82	4
98	98	2
52	56	1
106	106	2
140	140	2
41	42	1
142	148	1
57	67	1
157	157	4
156	157	3
39	39	4
137	153	1
4	4	2
6	6	4
25	29	2
136	136	4
159	160	2
102	102	5
89	110	2
109	109	5
151	159	1
20	21	3
131	132	2
151	158	2
128	128	2
27	27	3
168	169	3
108	123	1
66	66	4
145	145	2
37	38	1
111	115	1
22	42	1
172	172	2
77	78	1
142	142	1
76	78	1
17	17	3
14	14	2
65	66	5
70	71	1
123	124	2
32	32	6
131	131	5
78	78	4
147	147	6
26	26	2
0	1	1
53	53	3
15	15	3
119	119	3
101	102	1
9	9	5
20	20	3
98	140	1
74	76	1
111	111	3
132	132	4
108	108	2
51	51	5
8	8	3
94	95	2
171	171	2
60	60	3
135	153	1
5	6	2
117	118	2
115	115	3
42	42	3
7	8	2
151	151	3
43	43	5
38	39	1
5	5	7
41	41	2
21	33	1
2	2	5
170	170	1
147	167	1
115	116	2
114	139	1
81	82	2
64	64	4
144	145	2
159	159	4
168	168	4
77	77	3
146	146	1
169	171	1
81	114	1
79	79	1
16	17	1
54	60	1
44	44	3
30	38	1
139	159	1
132	136	2
15	29	2
50	50	1
63	118	1
163	165	1
108	110	2
62	118	1
112	114	1
119	120	2
71	71	5
19	19	2
56	56	1
135	135	1
86	140	1
28	30	2
33	33	1
74	74	2
30	31	1
167	167	2
34	34	3
71	72	1
58	61	1
89	89	3
173	174	2
96	96	2
36	37	1
100	100	3
137	138	1
49	50	1
62	62	3
99	99	2
51	91	1
56	59	1
130	145	1
77	79	2
143	144	1
140	142	3
126	169	1
151	153	2
134	134	3
114	114	3
141	145	2
3	4	1
18	19	1
12	12	5
43	45	2
59	59	4
23	25	1
98	99	1
121	126	1
86	86	3
140	144	1
131	169	1
20	25	1
113	114	2
130	130	2
6	7	1
150	150	3
145	146	1
180	180	1
86	87	2
149	153	1
135	136	2
56	60	1
124	124	1
127	129	1
65	77	1
144	144	1
61	61	1
118	153	1
118	120	2
152	163	1
56	71	1
70	70	1
88	88	2
151	152	1
40	44	1
86	88	1
57	60	1
105	106	1
54	61	2
152	166	1
152	154	1
80	80	2
141	173	1
153	154	1
78	79	1
79	80	1
56	57	1
9	10	2
155	155	1
44	45	1
104	119	2
150	151	1
151	166	1
118	118	3
121	121	1
45	45	2
87	91	1
72	108	1
154	165	1
74	79	1
142	143	1
30	33	1
82	107	1
83	84	1
36	36	4
28	29	1
159	165	1
93	93	1
163	170	1
36	38	2
67	118	1
52	53	2
119	121	1
134	135	1
164	164	1
24	25	2
23	42	2
137	149	2
99	100	1
35	35	1
97	97	3
123	123	5
126	133	1
75	76	2
161	162	2
25	28	1
159	162	2
32	44	1
72	138	1
116	116	1
132	171	1
59	60	1
165	166	1
84	84	1
64	66	1
2	36	1
127	128	1
91	93	1
10	11	1
92	92	1
2	3	1
61	64	1
22	25	1
3	20	1
148	154	1
121	131	1
157	168	1
4	24	1
108	126	2
21	21	1
148	158	1
143	145	2
122	123	1
23	44	1
18	20	1
108	124	1
167	171	1
82	114	1
35	36	1
150	153	1
171	172	1
95	111	1
62	65	1
125	126	1
40	40	1
53	54	3
68	68	1
24	33	1
76	77	1
179	179	1
92	122	1
160	162	1
88	131	1
26	33	1
40	41	2
158	158	1
27	28	2
120	123	1
84	118	1
136	137	1
139	140	1
1	1	1
109	117	1
15	26	1
90	94	1
21	22	1
36	72	1
54	54	1
92	94	1
122	130	1
52	54	1
25	25	2
115	130	1
14	16	1
84	85	1
139	139	1
88	89	1
85	99	1
160	167	1
35	39	2
179	180	1
75	75	1
107	108	1
89	90	1
2	5	1
73	74	1
67	68	1
126	158	1
6	29	1
96	108	1
154	154	2
80	81	1
80	82	1
37	37	1
82	112	1
61	118	1
10	39	1
103	103	1
25	49	1
63	64	2
92	117	1
89	111	1
5	7	1
108	125	1
90	90	1
105	105	1
163	163	1
173	173	1
