107	107	5
74	76	2
31	31	2
125	125	9
82	83	1
49	49	6
103	103	4
78	78	3
27	27	2
28	29	1
60	116	1
13	13	2
129	131	1
19	19	1
51	51	4
1	2	1
41	41	3
11	11	4
103	104	3
126	126	3
119	119	1
42	42	3
87	89	3
101	101	4
58	62	2
71	71	5
54	54	4
58	58	5
82	85	1
93	94	2
81	81	4
53	53	14
19	20	3
28	105	1
82	82	5
61	61	2
99	100	3
110	111	1
104	105	1
14	15	1
55	55	1
38	38	3
123	123	10
59	71	1
85	85	5
44	46	1
86	87	2
109	109	6
45	45	1
115	119	1
86	102	1
7	7	2
59	60	4
44	44	4
67	68	2
132	132	10
34	65	1
5	5	4
60	68	2
118	119	2
38	40	4
122	122	8
18	18	3
22	102	1
31	107	1
98	98	6
94	94	2
104	104	5
117	119	2
90	96	1
114	114	9
94	95	3
113	114	1
1	24	1
77	77	2
24	107	1
97	98	1
92	92	3
40	40	6
106	106	4
57	57	4
95	95	5
30	30	2
108	108	6
90	91	1
70	71	5
20	20	1
44	96	1
33	34	2
80	81	1
86	99	1
65	65	2
59	59	2
48	48	7
117	117	6
16	16	2
111	111	5
43	43	2
102	102	5
72	73	2
6	23	1
115	115	3
12	12	2
112	113	2
113	113	6
78	79	1
22	30	1
39	39	2
120	120	3
89	90	1
25	25	2
18	21	2
1	1	5
110	110	1
67	67	2
47	47	4
118	120	1
33	33	2
130	130	1
131	131	2
106	131	1
24	30	1
131	132	1
29	29	3
102	103	3
127	127	2
93	93	5
77	100	1
49	51	1
4	4	3
81	85	1
31	32	1
85	86	2
63	63	1
74	95	1
112	112	3
75	86	2
129	129	2
88	88	2
62	64	1
129	130	1
24	24	1
64	65	1
46	46	4
121	121	3
40	60	1
26	26	3
123	124	2
27	30	1
89	89	2
118	118	3
68	68	2
17	17	1
52	52	4
53	117	1
91	91	2
44	57	2
13	26	2
88	90	1
80	94	1
97	97	1
114	116	1
62	71	1
105	105	3
68	109	1
101	103	2
6	6	1
46	89	1
96	98	1
0	0	3
72	72	2
48	49	2
101	102	1
58	59	1
57	93	1
60	100	1
23	23	1
32	32	1
75	76	2
120	121	1
64	76	1
55	92	1
80	80	2
6	14	1
14	14	2
8	9	1
109	110	1
7	8	1
90	90	4
82	99	1
68	107	1
99	99	1
23	24	3
56	56	7
92	125	1
79	79	2
126	130	1
69	69	3
28	28	2
34	47	1
44	45	2
88	89	1
0	50	1
80	101	1
34	34	1
92	107	1
54	120	1
83	83	4
98	100	1
121	122	1
73	74	1
96	96	1
75	77	1
26	44	1
95	96	2
2	2	1
128	128	3
46	47	2
99	105	1
8	8	3
57	58	1
39	40	1
116	116	2
24	27	1
57	121	2
57	70	1
69	70	1
106	107	1
85	94	1
121	123	1
17	18	1
21	21	1
116	117	1
3	3	2
0	1	1
89	103	1
60	60	1
54	55	1
38	39	2
87	122	1
128	130	1
68	106	1
116	131	1
56	71	1
25	105	1
62	62	1
90	100	1
109	119	1
76	76	2
124	124	2
39	63	1
98	101	1
56	129	1
95	100	1
14	21	1
93	110	1
79	86	1
33	47	1
43	65	1
13	14	1
50	50	1
60	62	1
96	126	1
38	41	1
2	3	1
90	112	1
4	5	1
98	103	1
