10	10	3
163	178	2
177	179	1
182	184	1
113	126	1
149	158	2
99	99	4
94	184	2
117	120	2
98	98	3
121	130	1
28	30	1
70	70	1
122	122	1
106	106	1
56	56	2
99	100	1
98	114	1
72	72	2
181	181	2
134	176	1
86	115	2
61	65	1
171	176	2
139	139	2
85	104	1
33	34	1
125	175	1
30	47	2
90	90	3
67	67	3
54	55	1
4	5	1
13	13	3
1	1	2
91	93	1
13	25	1
58	165	1
82	84	1
95	95	2
107	111	1
124	124	1
154	154	2
130	147	5
131	131	2
142	144	1
19	21	1
32	39	2
82	83	2
63	70	1
65	65	2
52	52	1
23	23	1
6	7	2
172	174	1
156	156	2
88	90	1
105	105	2
112	143	2
187	187	3
28	28	3
53	53	2
170	184	1
95	96	1
7	7	2
7	73	2
74	90	1
121	122	1
44	45	1
82	82	1
125	126	2
85	86	1
132	145	1
52	53	1
55	67	1
75	75	1
4	6	1
106	107	1
47	48	1
42	42	1
64	67	1
129	130	1
118	133	1
119	119	1
130	132	1
59	59	1
115	123	1
80	81	3
103	103	1
104	109	1
115	164	1
109	109	2
25	25	2
83	92	1
22	32	1
128	128	1
36	185	2
137	137	1
177	177	2
53	55	1
140	140	3
0	48	1
74	74	1
186	187	2
173	173	2
22	24	2
86	102	2
77	106	1
106	109	1
65	80	1
60	158	1
21	23	1
163	183	1
1	31	1
186	188	1
39	39	1
30	30	1
80	84	1
172	172	1
130	130	1
3	3	1
139	179	2
121	177	1
133	133	1
140	147	2
24	25	2
52	82	1
145	145	5
156	158	1
3	53	1
5	57	1
5	22	1
152	152	1
101	111	1
77	90	1
179	179	2
152	170	1
106	110	1
1	10	1
71	77	1
126	126	3
121	121	2
59	60	1
58	64	1
64	68	1
20	139	1
117	117	1
79	115	1
99	113	3
111	111	1
170	172	2
102	102	2
120	120	2
68	74	1
115	116	3
37	48	1
132	136	1
21	21	2
23	24	1
59	96	1
77	77	2
169	169	1
141	141	2
92	104	1
96	97	1
185	185	1
126	128	1
55	57	1
112	127	2
140	163	1
70	73	1
127	128	1
37	43	1
66	66	3
2	10	1
182	182	1
96	110	1
151	151	1
2	2	2
83	83	4
160	164	1
54	64	1
15	22	1
162	167	1
89	89	2
158	164	1
9	11	2
116	120	1
6	41	1
108	108	1
157	160	2
74	88	1
78	78	1
21	37	2
64	82	1
95	114	1
150	150	1
56	57	2
112	126	1
154	159	2
183	184	1
62	67	1
4	15	2
47	59	1
5	5	1
84	105	1
118	118	1
184	184	2
5	6	1
178	181	2
48	75	1
166	167	1
162	183	1
81	96	1
105	106	1
109	112	2
89	91	1
77	85	1
38	45	1
149	171	1
69	70	1
104	110	2
31	33	1
120	134	1
5	18	1
153	153	3
100	122	2
56	70	1
188	189	3
112	118	1
125	125	2
11	16	1
140	159	1
170	170	1
44	44	2
190	190	1
114	115	1
70	77	1
126	127	1
2	85	1
154	155	2
72	74	2
57	58	1
103	104	3
119	132	1
132	165	1
169	186	1
125	127	1
141	145	1
135	151	2
96	96	1
103	108	1
97	99	1
94	95	1
4	22	1
62	62	1
55	55	1
100	107	3
86	92	1
184	188	1
60	63	1
36	47	1
131	147	1
127	129	1
92	94	1
109	124	1
78	86	1
42	48	1
112	112	1
144	158	1
77	79	1
155	155	1
107	107	1
99	101	1
92	92	1
31	32	1
125	164	1
157	159	1
8	23	1
62	76	1
20	24	1
62	79	1
80	97	1
122	124	1
105	115	1
165	189	2
136	143	1
138	139	1
91	91	1
10	21	1
183	183	4
161	161	1
166	171	1
131	148	1
165	166	1
17	17	2
102	108	1
59	61	1
121	123	1
45	46	1
173	186	1
145	152	1
168	168	1
151	152	1
162	166	1
169	173	1
118	134	1
60	70	1
69	72	1
85	85	2
159	159	2
122	123	1
87	87	1
127	127	1
94	94	1
54	54	1
145	159	1
45	45	1
119	131	1
164	178	1
58	58	2
142	145	1
16	16	1
6	6	1
68	73	1
48	48	1
100	101	1
102	115	1
168	172	1
35	37	1
19	20	1
159	180	1
86	86	1
61	62	1
19	19	1
165	165	1
27	33	1
164	175	1
40	40	1
36	48	1
11	169	1
188	188	1
165	185	1
26	26	1
81	92	1
124	125	1
