139	139	3
88	88	3
126	126	6
16	16	3
106	106	1
178	178	7
94	101	1
92	96	1
108	108	2
16	60	1
10	10	9
3	3	6
3	4	6
9	31	1
102	102	7
39	42	1
164	164	1
58	107	1
74	74	6
140	153	2
24	24	5
19	23	2
138	138	2
53	67	1
5	14	1
72	136	1
150	172	1
154	155	4
67	67	3
94	94	3
94	104	2
10	11	2
15	15	3
105	125	3
178	179	2
70	71	1
143	144	1
7	8	2
145	145	6
157	157	3
92	93	2
147	151	1
107	108	1
9	9	6
45	45	2
5	5	3
49	49	3
20	31	3
75	79	1
108	111	3
84	84	3
120	120	4
53	60	1
50	50	3
75	75	5
172	172	3
49	62	1
127	127	6
86	89	1
42	43	1
81	82	4
165	165	2
1	3	2
148	148	6
179	179	4
115	115	4
50	51	3
91	91	3
147	148	1
173	173	4
156	156	5
166	167	2
97	98	1
104	104	6
65	68	1
28	28	2
117	117	2
94	95	1
174	174	6
19	19	2
149	149	4
101	101	1
172	174	1
51	51	2
147	147	5
113	113	1
28	29	2
158	159	1
171	171	2
12	12	9
173	174	1
13	14	1
27	29	1
43	43	7
95	95	3
141	141	4
101	106	3
6	6	9
98	102	2
21	21	1
121	121	4
72	72	5
82	82	2
154	154	2
126	139	1
155	158	1
96	96	1
133	133	4
38	38	5
83	83	6
165	166	1
138	145	1
5	6	1
1	1	3
118	119	1
155	167	2
76	76	5
33	34	1
175	176	1
134	134	2
4	4	4
126	127	4
125	125	3
12	35	1
156	159	1
122	164	2
14	14	5
108	135	1
104	110	2
136	137	1
11	13	2
135	135	5
65	65	4
92	92	4
33	33	2
124	124	2
44	44	2
123	123	7
161	161	2
30	30	2
153	153	7
34	34	3
55	55	5
78	78	2
162	162	4
36	36	2
128	129	2
120	124	2
14	32	1
77	77	4
37	169	1
8	9	1
83	85	2
50	63	1
137	137	7
150	166	2
176	176	5
2	2	5
73	77	1
89	89	3
136	136	4
175	175	3
131	131	4
103	103	5
133	149	1
22	37	1
85	85	1
169	169	4
53	71	2
59	59	1
134	135	3
54	54	1
123	124	2
128	160	2
110	110	5
64	64	3
137	179	3
37	37	5
18	18	2
32	32	4
25	28	1
131	132	1
36	78	2
153	158	3
66	67	2
21	22	1
38	39	2
167	167	2
73	73	4
52	54	1
151	151	3
8	10	2
26	26	1
11	30	3
101	103	2
29	31	1
105	105	3
88	98	1
158	158	3
36	44	1
23	23	2
68	68	2
39	39	5
26	27	1
112	112	2
139	140	3
118	126	1
90	92	1
64	75	1
5	43	1
106	107	2
105	106	2
138	139	1
163	163	2
27	28	3
30	39	1
51	58	2
11	11	3
130	131	3
140	140	5
52	66	1
177	177	2
40	41	1
80	80	2
80	81	2
61	137	2
12	14	2
116	116	2
159	160	1
108	110	1
97	97	4
1	14	2
42	42	2
108	137	1
135	136	2
97	109	1
63	86	1
17	20	1
10	149	2
60	81	1
42	123	1
122	137	1
144	145	2
0	0	2
15	16	1
77	94	1
98	98	2
106	114	1
133	134	1
109	109	1
65	66	1
57	122	1
23	24	2
116	119	2
20	20	1
43	44	1
146	166	1
145	163	1
180	180	3
126	131	1
4	14	3
33	155	2
64	66	3
112	114	1
101	102	3
161	162	2
57	58	1
88	89	3
114	118	1
10	68	1
28	30	1
57	99	1
52	52	1
7	7	1
76	172	1
66	66	3
87	87	2
31	31	5
124	125	2
20	21	1
173	177	1
132	132	3
1	31	1
81	81	1
54	90	1
71	71	1
13	13	2
86	98	1
139	174	1
11	12	1
27	27	5
152	152	3
8	12	1
39	40	2
142	143	1
10	14	1
150	153	2
24	28	1
75	130	3
127	128	1
116	117	1
162	163	1
159	159	5
18	40	1
57	57	1
143	143	1
106	125	1
151	160	1
30	164	1
12	106	1
15	17	2
167	168	3
1	33	1
90	90	3
153	154	1
176	178	2
113	117	1
129	129	2
9	27	1
102	103	1
168	169	2
96	121	1
18	33	1
63	63	1
75	108	1
107	107	1
72	120	1
161	170	2
60	60	2
87	119	1
156	157	1
56	56	1
17	19	1
62	62	3
86	103	1
13	28	1
56	57	1
52	71	2
137	138	2
83	84	2
91	92	1
122	124	1
125	130	1
120	121	1
12	13	1
165	167	1
13	33	1
35	146	1
103	104	1
122	168	1
79	79	4
58	58	1
97	120	2
114	158	1
115	116	1
25	31	1
141	142	1
86	90	1
131	133	1
167	169	1
16	170	1
57	61	1
171	172	1
29	29	2
17	17	3
108	131	1
40	40	2
54	55	2
62	84	1
127	130	1
32	33	2
119	161	1
90	118	1
65	124	1
41	42	1
111	111	1
86	87	1
168	168	3
170	170	1
114	122	1
151	153	1
84	85	1
61	61	2
111	118	2
70	70	1
33	42	1
115	132	1
53	64	1
43	45	1
41	41	1
111	120	1
39	41	1
77	78	2
17	18	1
114	114	1
93	169	1
20	104	1
10	12	1
86	99	1
36	38	1
118	118	1
16	178	1
73	75	1
90	93	1
16	17	1
77	112	1
59	85	1
144	165	1
109	111	1
98	127	1
52	61	1
22	22	1
71	72	2
14	133	1
107	110	1
163	168	1
42	44	1
155	157	1
89	96	1
133	138	1
149	153	1
57	77	1
108	109	1
24	25	1
74	133	1
45	46	1
93	94	1
17	171	1
7	54	1
155	156	1
66	75	1
