164	164	4
62	62	2
111	111	1
77	77	1
16	16	3
36	36	1
76	77	1
60	62	1
147	147	1
98	98	1
68	85	1
57	57	1
122	124	1
77	95	1
155	155	3
128	182	1
146	147	4
26	27	1
8	8	3
183	184	1
78	99	1
178	178	1
167	169	1
82	122	1
156	157	1
123	123	1
38	39	2
181	182	3
14	35	1
150	150	3
33	34	1
115	117	1
38	38	1
189	190	1
173	173	3
7	7	2
1	1	3
173	174	3
153	153	4
42	42	1
172	172	3
26	40	1
17	17	4
122	122	3
176	176	2
89	89	2
4	15	1
88	88	2
116	117	2
141	157	2
28	29	1
48	53	1
75	75	1
110	110	4
22	24	1
89	109	1
67	67	4
63	66	1
127	129	1
130	174	1
182	182	3
57	79	1
84	84	4
95	99	1
63	65	1
186	187	2
2	2	3
137	138	1
100	152	1
11	11	1
90	90	2
74	74	2
153	154	2
58	62	1
18	18	1
47	47	1
90	93	2
97	97	2
22	41	1
24	25	2
156	156	1
127	127	1
95	104	1
185	185	1
102	102	3
63	73	1
26	26	2
178	183	1
6	6	2
35	35	5
57	67	1
181	181	2
63	64	3
68	69	1
77	82	1
108	108	3
31	32	1
114	114	1
107	108	2
161	161	2
0	25	1
73	74	3
96	96	3
12	35	1
175	176	1
75	79	1
160	160	1
66	66	2
20	20	2
103	120	1
78	139	2
114	119	1
18	30	1
180	187	1
5	5	2
163	163	2
82	82	2
79	79	4
154	154	4
159	159	1
43	44	1
184	184	1
171	172	1
189	189	1
180	180	2
100	100	1
58	63	1
130	130	1
25	25	3
81	81	1
76	132	1
131	131	3
145	145	2
164	165	1
61	62	2
172	174	2
124	124	3
13	16	1
157	169	1
71	85	1
99	110	1
8	38	1
133	133	1
128	128	5
116	116	1
10	10	1
11	14	1
72	113	1
129	129	2
83	83	2
25	40	1
95	96	1
135	135	1
141	144	1
150	158	2
19	21	1
183	183	2
27	33	1
53	53	1
39	40	1
32	32	1
76	76	3
99	99	2
62	67	1
130	139	1
72	72	1
28	31	1
48	48	3
90	91	1
140	141	2
162	163	1
73	73	1
101	101	2
144	144	2
179	179	2
91	97	1
172	173	1
78	79	1
186	186	2
187	187	1
24	24	1
22	31	1
130	132	1
139	139	3
180	190	1
64	66	1
55	55	1
54	54	2
104	104	1
15	15	2
92	137	1
64	65	1
180	182	2
19	41	1
91	93	1
13	13	2
85	85	1
94	94	1
82	123	1
67	75	1
95	95	1
67	86	1
63	84	1
96	113	1
107	107	3
115	115	1
109	109	2
66	84	1
124	126	1
169	170	1
61	61	1
52	54	1
57	78	1
80	81	1
133	134	1
128	178	1
130	152	1
135	136	1
84	85	1
90	105	1
6	178	1
46	47	1
91	91	1
174	174	1
91	118	1
106	107	3
136	136	1
30	44	1
40	40	1
90	108	1
5	35	1
125	125	1
22	22	1
182	183	1
46	48	1
113	113	1
105	106	1
92	93	1
143	145	1
14	14	1
151	151	1
145	146	1
28	44	1
0	0	1
17	18	1
3	5	1
97	98	1
117	117	1
93	93	1
113	118	1
177	178	1
39	39	1
120	122	2
140	140	1
58	58	1
138	138	1
34	35	1
29	29	1
