242	242	2
117	117	5
30	30	4
153	153	1
194	196	1
215	215	1
166	167	1
113	113	2
50	56	1
166	166	2
211	211	1
51	229	1
110	110	6
31	32	1
8	8	3
216	216	1
20	40	1
57	68	1
184	184	2
202	202	3
171	212	1
207	207	4
157	157	3
220	244	1
66	66	2
41	110	1
61	61	1
217	218	1
55	60	1
181	210	1
177	177	4
214	214	1
213	214	3
108	108	3
55	56	1
218	218	3
22	22	2
163	208	1
183	195	2
11	11	4
231	231	3
220	220	4
23	23	1
109	109	3
54	54	5
86	88	1
186	187	1
63	63	2
51	57	1
2	5	2
162	162	3
33	33	4
67	67	5
50	51	1
48	55	3
223	223	2
43	44	1
172	172	1
43	43	4
93	93	1
176	176	4
71	101	1
33	115	1
225	230	1
219	220	1
197	197	4
71	72	1
9	20	1
235	235	4
26	26	8
81	241	2
202	228	1
206	206	1
151	151	4
220	221	1
219	219	6
118	118	2
179	179	2
178	179	1
201	201	3
47	48	1
195	195	2
193	194	1
167	167	3
159	159	3
19	40	1
11	206	2
14	44	4
168	168	6
94	95	1
95	118	1
64	64	3
63	66	1
225	225	6
31	31	3
84	84	2
70	90	1
97	97	1
34	35	2
80	81	1
175	175	6
32	32	4
47	47	4
89	89	2
175	179	1
60	60	1
171	177	2
12	42	1
238	249	1
237	237	2
107	107	2
49	243	1
5	5	2
52	52	1
226	226	1
95	95	1
169	169	1
116	116	5
221	222	2
163	164	1
205	205	2
51	51	1
7	33	1
18	18	1
119	231	1
238	238	4
100	100	3
196	196	5
41	41	3
190	190	1
15	15	2
221	221	3
76	76	3
9	10	1
42	42	1
239	239	1
165	165	1
86	86	1
204	204	2
3	5	1
38	39	1
52	65	1
8	9	1
74	74	3
54	55	2
166	185	2
212	212	1
7	7	3
224	224	2
12	16	1
153	154	1
174	174	3
6	8	1
27	27	5
216	217	2
70	74	1
200	200	4
183	183	2
12	12	2
6	7	1
68	71	1
230	230	1
57	58	1
77	88	1
46	46	3
111	111	2
28	28	1
150	150	3
85	85	1
32	34	1
10	10	2
217	241	1
199	199	2
210	210	1
246	246	1
241	241	4
182	182	3
49	49	2
49	51	2
114	115	1
81	82	2
240	240	2
40	40	2
3	3	2
36	37	1
223	224	1
35	35	1
111	112	1
84	85	2
81	81	1
39	39	2
36	36	4
245	246	4
6	6	1
203	203	7
180	180	3
2	2	1
171	172	1
49	50	1
101	101	2
247	247	1
208	208	3
185	185	3
186	186	4
187	187	1
229	229	2
233	233	1
106	106	1
158	158	2
212	229	1
192	192	2
198	200	1
228	228	1
7	245	1
185	191	1
213	213	1
59	59	1
200	201	1
207	212	1
92	111	1
116	119	1
169	172	1
188	190	1
206	227	1
236	246	1
163	170	1
230	231	1
117	118	1
34	228	1
211	230	1
227	227	2
64	65	1
20	20	3
39	212	1
60	69	1
65	66	1
227	228	1
195	196	1
4	4	1
112	112	1
209	210	1
244	245	1
94	94	3
245	245	2
160	161	1
157	176	1
48	54	1
177	178	1
154	154	1
83	98	1
43	46	1
193	193	1
89	90	1
57	59	2
181	192	1
236	236	1
23	149	1
61	109	1
33	36	1
215	220	1
144	145	1
167	168	1
17	17	1
47	54	1
88	88	1
119	119	3
68	68	2
102	102	1
53	53	1
234	234	1
186	196	1
48	49	1
26	150	2
55	55	2
41	43	1
109	203	1
18	20	2
145	146	1
99	106	1
181	209	1
186	188	1
214	220	2
12	18	1
29	169	1
54	63	1
91	113	1
26	173	1
189	189	2
104	104	1
184	185	1
80	98	2
44	44	3
156	156	1
232	234	1
177	191	1
219	236	1
198	198	1
29	31	1
162	179	1
51	61	1
28	31	1
85	86	1
50	50	1
197	198	1
180	183	1
201	234	1
191	193	1
29	167	1
157	166	1
38	38	1
166	174	1
40	144	1
164	165	1
168	184	1
173	173	1
56	56	1
215	234	1
165	166	1
170	170	1
58	58	1
37	37	1
96	99	1
80	80	1
93	100	1
163	163	1
65	65	1
