104	106	2
100	101	1
77	123	1
75	119	3
0	63	1
6	6	3
122	122	4
49	86	1
20	20	4
45	45	3
38	38	2
5	5	4
88	88	2
104	104	1
63	63	7
134	134	4
105	105	1
41	57	2
10	10	4
63	64	1
1	1	2
34	61	1
110	110	1
61	73	1
60	60	3
0	0	3
108	132	1
11	11	5
9	9	1
58	58	2
85	85	1
131	132	2
10	38	1
125	126	1
132	133	2
81	85	1
69	71	1
29	30	1
95	95	5
39	39	5
29	29	1
21	50	3
130	130	2
36	43	1
90	90	2
77	93	1
46	46	2
105	106	1
103	104	1
23	23	1
77	77	1
31	31	1
93	93	3
96	96	2
35	37	1
15	59	1
83	83	4
4	4	1
117	118	2
86	87	1
71	71	2
71	72	2
27	27	3
34	34	2
47	47	2
91	93	1
116	116	2
7	7	1
83	84	2
21	21	3
5	34	1
113	123	2
47	68	1
112	113	1
97	97	2
3	10	1
120	120	2
128	131	2
65	65	2
57	57	2
87	87	3
62	62	7
68	68	2
30	130	2
119	119	3
71	93	1
55	55	2
36	36	1
120	123	1
101	101	4
19	36	1
103	111	2
91	107	1
79	79	1
28	30	1
83	130	1
30	30	1
0	3	1
32	32	3
78	79	2
118	118	3
26	26	2
126	126	3
25	26	1
18	18	2
94	94	3
92	93	1
108	108	2
13	14	3
58	85	1
20	23	1
37	37	1
109	109	1
10	117	1
106	106	1
13	13	1
117	117	1
1	5	1
99	101	1
91	92	1
40	40	1
114	116	1
75	76	1
28	28	2
36	41	1
66	66	2
55	56	1
102	102	1
123	124	1
123	123	2
17	17	1
44	44	3
33	33	1
80	81	1
26	30	1
62	74	1
32	33	2
78	78	1
131	131	1
6	7	1
67	67	3
64	65	2
112	119	1
43	43	1
8	9	1
14	15	2
111	113	1
120	121	1
73	73	1
99	106	2
90	92	1
113	120	1
76	76	1
112	112	1
17	18	1
48	48	1
101	131	1
79	80	1
133	134	1
18	45	1
14	14	1
99	122	1
69	69	1
95	96	1
82	82	1
78	112	1
79	92	1
130	131	2
33	34	1
81	87	1
59	59	1
61	61	1
96	97	1
77	78	1
86	86	1
20	22	1
15	15	1
58	96	1
67	68	1
12	12	1
19	20	1
90	100	1
56	56	2
109	111	1
124	124	1
20	25	1
131	133	1
35	35	1
65	66	1
