66	67	1
8	11	2
67	105	1
119	122	2
136	139	2
31	32	2
29	97	1
32	32	1
50	52	1
72	72	3
122	122	2
115	116	1
132	132	1
137	137	4
74	126	1
23	23	4
128	128	1
79	79	2
94	94	6
87	91	1
120	121	3
63	63	4
84	84	2
81	81	3
90	91	1
40	40	4
130	130	5
89	90	2
37	38	2
60	60	1
128	131	1
111	111	1
31	34	2
110	111	1
54	54	3
39	43	1
122	123	2
122	124	1
50	54	1
93	93	3
49	51	1
30	30	4
129	129	2
15	15	4
125	129	1
48	48	2
92	92	1
142	143	1
68	69	1
107	107	1
26	26	5
86	96	1
131	131	1
79	122	2
144	144	2
103	103	1
30	34	1
92	93	1
90	90	2
114	115	2
29	29	4
141	141	2
12	12	1
110	110	1
101	101	1
102	102	1
73	73	4
98	98	3
120	133	1
114	114	2
16	16	2
70	70	1
118	118	2
136	138	1
114	131	1
47	65	2
112	112	1
118	119	3
77	127	1
91	91	6
9	9	2
129	140	1
106	106	1
21	21	1
75	75	2
28	29	2
145	145	2
18	18	2
65	65	1
119	119	1
78	78	2
25	25	2
82	82	1
10	10	3
116	117	1
55	56	1
123	123	2
12	96	1
102	104	1
52	71	3
85	85	1
64	64	1
50	78	1
58	58	1
66	66	3
74	74	2
6	6	1
68	68	1
27	27	2
74	99	1
57	57	2
59	61	1
33	35	1
81	82	1
1	20	1
99	100	1
81	91	1
19	19	1
96	96	1
123	124	1
51	51	1
1	6	1
12	15	2
14	14	2
80	94	1
52	68	1
77	119	1
140	140	2
99	99	3
19	20	1
128	129	1
59	66	1
0	0	1
65	66	1
128	130	1
58	59	1
4	5	2
11	11	2
133	134	2
104	105	1
117	117	2
105	105	1
95	95	1
56	56	1
38	38	1
135	135	1
56	66	1
114	120	1
113	114	1
56	57	1
135	139	1
55	55	1
15	16	1
59	70	1
59	59	1
22	23	1
126	134	1
27	29	1
3	3	1
66	71	1
30	41	1
13	16	1
127	127	1
104	104	1
27	28	1
8	8	1
109	121	1
49	56	1
67	67	1
67	77	1
71	73	1
33	33	2
124	124	1
91	92	1
146	146	1
61	61	1
17	30	1
31	31	1
5	5	1
14	15	1
43	43	1
