153	153	2
37	110	1
118	118	1
182	197	1
15	15	2
198	198	2
70	85	1
170	170	6
6	8	1
8	26	1
96	108	2
90	92	1
53	53	5
30	33	1
91	92	2
164	164	4
241	242	1
65	115	1
14	87	1
11	171	1
9	227	2
161	167	1
221	221	4
184	184	4
219	219	6
14	14	3
95	100	1
110	110	7
156	157	1
44	45	3
210	210	2
181	181	7
64	64	3
176	176	4
185	185	6
162	163	2
237	238	5
85	89	1
232	232	5
86	86	2
111	111	4
178	194	1
2	4	1
39	39	6
45	45	7
173	173	6
155	155	2
171	171	2
27	35	1
18	18	7
8	8	4
42	93	1
169	169	1
23	23	5
217	217	1
229	231	1
34	35	1
9	9	3
34	34	5
244	244	2
86	87	1
14	35	1
96	97	3
142	142	1
208	208	5
37	38	1
4	18	1
192	217	1
59	246	1
182	182	2
167	167	3
10	10	2
161	161	4
56	58	1
100	100	1
120	120	3
216	216	3
57	77	1
173	174	1
166	166	3
1	1	4
14	15	1
43	151	1
61	186	1
207	207	3
168	168	1
239	240	1
175	176	1
117	117	3
19	19	4
222	222	3
208	210	1
197	197	1
27	28	2
186	187	1
216	241	1
68	68	2
19	20	4
2	2	4
118	119	1
35	35	2
39	56	1
16	19	1
80	81	2
9	10	1
244	245	1
196	197	1
171	172	1
211	211	2
40	40	5
59	59	6
43	43	5
208	209	1
75	76	1
224	226	1
56	56	5
234	234	2
84	95	1
37	37	6
187	188	2
46	46	3
151	225	2
47	157	1
36	36	5
66	66	2
67	67	3
190	191	2
47	48	1
209	209	3
214	214	4
157	157	5
216	217	1
203	203	3
200	213	1
99	241	1
228	234	1
182	191	1
109	109	1
183	184	1
26	41	1
58	59	1
38	43	2
50	50	4
25	25	1
93	94	2
41	42	3
212	214	2
183	197	2
221	222	1
90	90	3
99	99	3
106	107	2
157	158	1
82	101	1
48	48	3
242	242	3
175	185	1
29	29	6
107	107	1
217	222	1
31	67	1
22	23	2
159	159	5
204	204	1
183	183	1
73	73	1
82	82	1
6	6	3
65	93	1
201	201	7
36	47	1
224	224	2
22	22	3
235	235	4
160	160	3
36	37	1
98	98	2
187	187	3
87	87	3
71	72	1
33	33	4
38	39	1
163	164	1
88	89	1
152	228	1
203	204	1
111	180	1
226	226	3
36	163	1
61	61	1
21	21	5
31	31	3
224	225	2
51	52	1
112	156	2
34	204	1
162	182	1
60	60	1
163	163	2
32	32	2
151	151	3
218	233	1
96	96	2
101	101	2
195	196	2
237	237	5
88	88	1
4	5	2
113	114	3
116	116	4
238	238	5
179	179	3
230	230	2
95	95	2
58	58	3
233	233	5
116	144	1
11	43	1
215	236	1
71	71	4
146	146	3
206	206	3
26	26	4
195	212	1
193	212	1
116	117	2
93	93	1
94	94	5
3	3	2
195	195	1
68	86	2
219	231	1
219	245	1
150	150	1
172	172	4
25	26	3
245	245	2
12	12	1
42	42	2
38	38	1
154	172	1
213	214	1
168	237	1
182	185	1
215	215	1
165	167	1
47	67	1
5	5	3
47	47	2
44	44	3
243	243	2
196	208	1
65	66	1
76	78	1
56	60	1
95	96	2
111	146	1
223	225	1
28	39	1
149	156	1
18	26	1
220	223	1
84	84	2
240	240	4
41	41	1
18	20	1
1	3	2
16	16	2
85	85	2
211	244	1
7	7	4
21	25	1
17	17	1
165	165	4
4	35	1
225	225	1
210	211	1
196	196	2
213	213	3
31	64	2
210	214	1
41	59	1
46	209	1
152	152	1
45	47	1
197	198	1
165	171	2
161	162	2
47	160	2
112	112	1
162	162	2
145	145	1
171	190	2
193	193	2
246	246	3
178	178	1
231	232	1
81	119	1
37	177	1
193	227	2
172	186	1
144	144	1
47	53	1
4	4	3
106	108	1
199	199	2
46	52	1
19	40	1
204	207	1
152	153	1
198	212	1
47	50	1
241	241	1
92	92	2
216	237	1
22	155	1
24	24	1
88	93	1
26	34	1
61	84	1
72	72	1
54	54	4
172	200	1
174	175	1
69	69	2
186	198	1
198	201	1
51	54	1
24	25	1
90	91	2
30	30	1
84	93	1
2	3	1
26	117	1
194	195	2
6	7	2
200	201	2
186	211	1
202	202	2
49	49	3
12	198	1
3	12	1
102	102	2
212	213	1
0	19	1
225	232	1
192	192	1
69	70	1
59	62	1
65	67	1
62	66	2
54	70	1
11	11	1
65	166	1
89	90	1
215	221	1
82	100	1
211	212	1
41	45	1
26	28	1
180	180	1
0	45	1
233	235	1
218	218	3
83	178	1
171	207	1
73	79	1
214	215	1
166	169	1
170	186	1
98	99	1
188	188	2
230	232	1
9	19	1
38	40	1
194	194	1
178	186	1
50	95	1
7	8	1
205	205	1
119	119	2
114	114	3
236	236	1
189	190	1
95	109	1
222	240	1
228	228	1
20	20	2
27	27	3
42	44	1
186	186	1
56	57	1
215	219	1
81	92	1
225	226	1
91	91	3
185	186	1
211	213	1
99	100	1
177	177	1
209	243	1
33	46	1
189	215	1
59	60	1
218	219	1
190	190	1
147	149	1
32	54	1
191	191	1
30	31	1
90	94	1
59	70	1
115	119	1
220	220	1
33	34	1
51	51	1
227	227	1
62	236	1
231	234	1
85	100	1
113	113	2
168	169	2
26	39	2
52	52	1
75	75	1
214	241	1
191	220	1
217	218	1
222	223	2
48	102	1
73	75	1
156	156	1
223	224	1
229	232	1
211	224	1
147	147	1
10	12	1
195	199	1
206	207	1
29	31	1
108	108	1
57	57	1
66	67	1
214	219	1
118	121	1
76	77	1
112	114	1
9	25	1
197	200	1
26	27	1
13	15	1
