182	235	2
43	43	6
116	116	4
33	33	13
120	120	7
216	217	1
182	185	1
179	181	1
202	202	4
243	243	4
91	183	1
243	244	2
190	192	1
248	248	1
50	50	2
75	89	1
54	54	4
67	201	1
172	172	1
36	113	1
4	5	2
232	232	7
52	53	2
225	226	2
204	227	1
44	44	5
204	204	3
159	159	2
9	10	2
37	65	1
86	87	2
182	183	1
178	179	1
200	215	1
68	74	1
228	229	1
23	23	4
235	235	6
233	233	2
15	31	1
246	246	1
40	40	3
51	52	3
151	151	3
165	166	2
203	203	3
209	209	2
245	246	1
27	28	3
74	74	1
58	59	1
154	155	1
53	53	2
78	78	3
2	2	3
78	92	2
110	110	4
81	85	1
167	167	6
51	57	1
32	34	1
2	8	1
166	167	1
191	192	2
113	114	3
240	240	5
22	22	3
169	179	2
12	12	5
157	230	1
93	93	1
98	98	1
221	221	2
63	64	2
225	237	1
162	162	4
45	45	4
157	157	2
224	233	1
150	150	3
181	181	4
37	37	11
14	37	2
165	168	1
172	173	3
96	97	2
244	244	4
6	16	1
5	5	8
234	234	3
178	178	3
165	165	5
10	10	1
31	32	3
211	211	4
169	169	3
157	185	1
25	25	5
5	7	1
154	154	3
233	234	3
77	77	3
222	222	3
90	91	1
220	220	7
226	226	5
27	27	5
236	236	5
215	229	1
114	114	5
224	224	2
163	165	2
15	46	1
213	213	3
111	112	2
61	61	4
184	184	2
11	11	3
45	46	1
187	187	3
157	162	2
218	218	4
163	163	2
42	58	1
26	26	4
168	168	1
33	176	1
15	16	1
108	108	3
228	231	2
217	217	2
24	155	1
61	68	1
68	68	4
87	101	2
92	92	2
44	45	1
113	113	3
173	173	5
60	60	2
242	243	2
79	79	4
18	18	4
193	196	1
35	35	3
104	105	1
166	166	4
171	198	1
67	67	4
214	214	2
156	157	1
192	192	5
53	54	1
158	159	1
51	51	5
9	43	1
4	4	4
181	182	2
238	238	1
194	196	1
163	164	1
183	184	2
54	170	1
239	239	3
167	201	1
102	102	4
16	16	3
30	31	2
90	92	1
29	30	1
115	115	2
179	179	3
217	220	3
72	72	1
208	209	1
94	118	1
10	11	2
74	77	1
230	230	4
174	174	4
31	31	1
19	19	2
216	216	2
187	191	2
152	155	1
64	64	3
69	70	3
239	240	2
153	153	3
153	186	1
215	217	1
24	24	6
20	20	4
30	30	3
190	190	2
164	164	2
65	68	1
177	177	2
158	213	1
206	206	3
182	182	4
15	15	3
7	7	4
228	228	2
237	238	3
91	91	1
172	198	1
47	47	4
180	181	2
32	32	4
86	86	5
96	96	2
65	65	1
223	223	5
179	180	2
73	75	1
207	208	1
223	231	1
193	193	1
8	155	1
73	73	1
223	229	1
42	42	1
47	84	1
46	46	3
87	87	2
38	38	1
21	21	1
9	227	1
152	152	3
214	243	2
14	14	3
25	26	1
176	180	2
76	172	1
37	38	1
160	160	3
52	52	4
193	195	2
34	35	3
3	3	2
75	75	2
158	158	2
198	200	3
214	215	1
207	207	3
93	94	1
41	44	1
230	233	1
83	84	1
52	154	1
175	234	2
76	78	1
61	62	1
146	167	1
71	71	3
156	156	5
194	197	1
66	66	1
59	61	1
247	247	2
205	205	2
18	37	1
116	117	1
1	1	3
22	115	1
78	84	1
232	233	1
185	185	2
201	201	4
175	175	3
10	205	1
167	244	1
43	44	3
110	173	1
177	178	1
60	62	1
47	90	1
78	94	2
237	237	2
210	210	3
210	211	1
219	220	1
76	77	3
57	57	3
198	198	1
204	205	2
229	229	4
187	196	1
99	105	1
75	76	1
99	99	1
48	51	1
33	35	2
174	177	2
41	41	2
206	229	2
232	238	1
246	247	2
82	82	1
9	28	1
223	224	2
118	119	4
224	241	1
196	196	2
238	239	1
161	161	3
196	200	1
147	147	2
119	119	2
240	241	2
208	208	1
89	90	1
241	242	1
176	177	2
154	228	1
234	235	2
8	8	1
95	95	2
172	201	1
75	86	1
3	4	1
76	97	1
229	230	1
8	9	1
197	197	2
83	85	1
188	188	1
47	246	1
97	97	1
244	245	1
111	111	2
105	106	1
36	36	2
203	204	1
223	244	1
212	212	3
39	39	2
28	28	1
99	101	1
150	151	1
34	37	1
226	244	1
90	90	1
89	93	1
50	171	2
48	48	3
33	41	1
109	109	2
194	194	2
112	113	1
88	88	2
215	215	1
217	218	1
97	118	1
44	93	1
28	190	2
80	81	1
199	199	2
231	244	1
85	87	1
230	231	1
149	150	1
68	82	1
189	189	1
204	220	1
170	170	1
22	54	2
218	220	1
110	114	1
166	190	1
118	118	3
245	245	3
80	82	2
117	117	1
213	244	1
44	201	1
167	168	2
183	183	1
200	207	1
249	249	1
145	153	1
242	244	1
6	6	1
52	70	1
80	80	2
186	186	2
6	7	2
78	81	2
19	33	1
17	17	1
120	215	1
59	59	2
20	21	1
220	230	1
183	214	1
231	233	1
168	172	2
6	41	1
85	85	1
225	225	1
145	145	1
226	227	1
50	71	1
218	219	1
29	29	1
21	40	1
71	72	2
185	186	1
157	158	1
67	68	1
208	224	2
164	198	3
155	160	1
62	62	1
58	58	1
41	43	1
3	6	1
65	66	1
100	100	1
172	178	1
169	170	1
193	200	1
231	231	3
213	218	1
165	176	1
149	149	1
176	176	2
197	200	1
226	230	1
172	177	1
55	55	2
171	191	1
221	238	1
180	230	1
23	32	1
1	2	1
189	190	1
18	19	1
94	94	2
59	62	1
75	107	1
208	211	1
68	101	1
49	248	1
231	245	1
190	224	1
1	14	1
13	13	2
197	198	1
112	112	1
208	215	1
164	165	1
191	191	1
184	225	1
199	200	1
62	68	1
220	222	1
31	33	1
26	150	1
204	210	1
34	34	1
121	121	1
160	225	1
146	146	1
33	150	1
238	241	1
180	180	1
158	198	1
6	9	1
9	11	1
81	81	1
94	95	1
38	178	1
225	244	1
11	12	1
114	185	1
91	92	1
72	75	1
20	23	1
100	110	1
171	171	1
