49	50	1
16	16	4
76	104	1
78	85	1
132	132	2
14	14	3
91	92	1
92	92	2
84	85	2
120	120	3
80	80	5
81	81	5
73	73	7
11	12	2
23	24	3
74	74	7
16	17	1
112	112	3
1	22	1
20	92	1
1	1	4
75	75	6
66	67	1
7	7	6
72	72	10
55	59	1
84	84	6
68	69	4
4	4	2
101	101	4
118	118	2
69	69	5
72	73	2
27	27	8
85	85	5
122	123	2
33	33	3
126	127	1
117	117	2
122	122	4
58	58	1
79	79	3
82	116	1
121	121	3
59	59	4
65	65	5
20	21	1
114	114	3
55	55	4
108	108	2
44	44	3
94	95	2
25	25	4
57	58	1
124	124	3
77	82	1
118	120	1
4	6	1
98	98	1
75	76	1
6	14	1
11	11	3
129	129	4
85	87	1
84	87	1
14	25	1
42	42	2
50	50	5
10	10	2
8	10	1
115	115	3
32	32	4
43	52	2
5	29	1
82	82	7
66	66	3
34	34	3
58	59	1
134	134	3
30	30	4
22	22	1
50	80	1
60	61	1
44	51	1
119	119	3
12	12	6
24	24	4
122	124	2
82	111	2
5	5	3
3	52	1
100	100	1
111	112	1
89	89	1
26	28	1
71	71	7
86	87	1
52	52	2
116	116	2
19	19	1
97	97	6
29	29	3
102	103	1
88	88	2
128	128	2
22	24	1
110	110	2
64	64	4
133	133	1
104	104	3
0	1	1
78	78	3
69	70	1
94	94	4
86	86	2
87	87	4
88	92	1
35	35	3
47	47	6
28	28	4
120	121	1
79	80	3
76	76	2
113	128	1
63	63	4
131	131	2
65	67	1
20	24	1
106	106	2
52	74	1
36	55	1
57	59	2
53	53	2
106	107	1
73	74	1
56	63	1
103	104	1
99	99	2
8	35	1
70	70	2
57	57	2
95	95	2
36	36	3
123	124	1
16	59	2
56	56	2
78	82	2
21	21	1
31	31	3
24	53	1
1	4	1
19	20	2
134	135	1
4	5	1
77	77	3
32	34	1
23	23	3
19	37	1
8	8	2
109	110	1
2	2	1
130	131	1
26	26	1
43	43	5
45	45	2
105	105	2
54	54	1
62	63	1
32	33	2
21	26	1
61	65	1
37	38	1
75	93	1
80	124	1
14	15	1
67	68	1
6	6	3
82	85	2
93	93	4
83	83	2
62	62	3
3	3	1
63	98	1
13	13	3
102	102	3
77	119	1
45	49	2
52	90	1
60	60	2
76	94	1
80	82	1
22	23	1
0	0	4
50	98	1
1	14	1
55	56	2
126	126	1
103	103	1
110	111	2
35	36	1
15	16	1
91	91	1
90	90	1
83	85	2
13	15	1
79	123	1
98	99	2
52	54	1
125	125	2
70	93	1
75	124	1
60	80	1
110	113	1
108	110	1
63	68	1
80	81	1
9	11	1
135	135	1
68	68	1
49	49	1
21	32	1
97	100	1
60	65	1
107	108	1
3	4	4
52	53	1
48	65	1
6	23	1
65	85	1
73	75	1
124	125	1
96	96	1
23	36	1
21	22	1
26	27	1
28	29	1
113	113	1
35	92	1
5	13	1
65	66	1
14	16	1
123	123	1
64	79	1
10	13	1
121	122	1
54	68	1
42	43	1
22	30	1
60	68	1
25	43	1
45	51	1
58	60	1
35	44	1
108	113	1
37	37	1
74	75	1
91	117	1
