3	3	1
146	146	2
32	32	12
1	3	1
32	35	1
106	106	4
4	4	4
41	41	9
22	22	4
17	17	6
32	34	2
131	132	2
107	108	1
61	61	10
91	91	13
43	43	5
27	37	2
74	74	10
88	88	5
73	73	9
8	8	9
125	129	2
50	51	3
101	101	8
82	82	7
46	47	3
1	1	6
33	37	3
5	5	6
124	125	1
50	50	4
10	10	7
110	110	5
98	98	6
51	51	4
127	137	2
66	66	10
52	53	2
47	47	3
18	18	2
33	34	1
83	118	1
75	76	2
1	2	2
101	102	1
103	129	2
17	53	1
124	124	9
56	56	3
142	143	3
126	129	1
33	51	1
60	61	1
92	93	2
71	100	1
144	144	5
60	60	3
95	96	3
141	141	8
19	19	11
89	89	3
105	105	6
111	131	1
106	107	3
58	58	9
38	39	2
14	15	2
116	116	5
32	33	1
140	140	5
127	136	1
123	124	2
128	128	6
125	125	7
143	143	3
102	104	2
115	115	3
94	94	7
91	94	1
40	40	7
38	38	9
107	107	5
93	93	2
23	41	1
67	67	8
63	63	3
62	101	1
29	30	4
83	83	2
69	69	4
77	78	2
37	40	1
12	72	1
38	40	1
109	109	3
63	65	3
10	38	1
115	116	1
9	11	1
25	26	2
12	16	1
68	74	4
139	139	9
89	107	1
6	6	9
134	140	2
101	103	2
37	48	1
51	52	1
132	134	2
59	59	7
97	97	8
145	146	2
0	0	3
0	23	2
26	26	11
127	128	1
117	117	4
4	5	1
130	130	3
133	134	5
25	25	6
19	101	1
29	33	2
122	122	3
99	99	5
71	109	1
13	15	1
111	112	1
34	34	4
103	103	5
51	87	1
120	124	1
57	57	9
105	106	1
24	24	11
119	120	3
50	63	1
136	137	3
9	18	1
90	91	3
65	77	1
142	142	9
49	49	7
31	33	3
110	120	1
95	95	2
80	80	5
33	35	1
110	111	4
43	51	2
57	58	2
91	136	1
58	95	1
136	136	13
108	108	7
55	57	2
37	38	2
114	117	1
144	145	1
25	37	2
6	12	1
111	114	2
54	56	1
134	136	1
111	120	2
27	27	4
68	68	4
119	119	5
137	138	1
80	87	1
72	92	1
113	114	2
84	85	2
9	9	3
123	123	4
2	10	1
17	23	1
133	133	3
85	116	1
33	33	5
50	65	1
35	36	1
130	131	2
71	72	4
118	119	1
111	111	3
10	22	1
64	64	3
116	117	2
37	37	11
92	140	2
106	132	1
20	20	11
11	42	1
94	104	1
43	54	1
11	11	3
55	62	1
110	123	1
134	134	6
13	13	4
75	81	1
28	28	4
14	70	1
25	38	1
37	86	1
18	19	2
31	32	3
67	68	3
100	100	3
129	130	7
135	136	6
65	65	3
59	61	2
97	98	4
129	129	6
54	54	4
62	62	6
121	121	6
27	54	1
25	32	1
53	53	5
54	55	4
137	139	1
9	10	2
114	120	1
15	17	1
99	144	1
137	137	3
62	63	1
63	97	1
2	2	8
47	49	4
123	135	1
27	29	1
96	96	9
138	138	4
95	98	1
125	126	4
24	39	1
99	143	1
5	139	2
32	47	1
42	42	2
75	75	3
71	71	2
84	84	4
132	135	2
118	118	5
21	21	4
17	18	3
23	24	2
30	30	5
102	102	5
79	81	1
78	78	1
31	31	2
91	92	4
145	145	5
26	38	1
47	50	3
39	39	4
55	55	4
22	23	3
77	77	1
8	26	2
112	113	1
63	64	1
23	23	4
114	138	2
9	54	1
127	127	5
12	12	6
87	92	1
62	64	1
73	81	1
27	28	2
41	42	1
36	36	7
10	11	3
33	36	1
83	85	2
48	48	6
75	77	2
90	90	5
12	13	3
87	136	1
121	123	1
5	18	1
121	125	1
126	126	4
135	135	4
131	133	2
97	125	1
114	116	1
81	81	8
82	97	2
82	83	2
70	71	1
112	112	1
30	37	1
135	137	1
72	72	3
100	101	2
113	113	3
118	120	1
80	99	1
56	57	2
77	80	1
76	76	1
93	135	1
78	79	2
42	55	2
68	69	4
120	120	4
132	132	6
34	36	1
56	73	1
69	70	1
96	98	2
128	129	4
106	131	1
95	129	1
108	118	1
35	35	3
53	105	1
5	6	1
99	100	1
121	122	1
98	141	1
42	43	3
40	53	1
104	104	4
85	88	1
30	57	2
43	53	1
72	73	1
14	14	3
110	126	1
2	6	1
58	71	1
103	130	1
58	59	3
71	97	1
77	79	2
90	92	2
58	87	1
123	134	1
108	110	1
117	125	2
24	31	1
93	116	1
70	70	2
36	37	1
112	118	1
140	141	2
71	73	2
79	79	1
10	20	2
29	29	4
26	27	1
38	55	1
50	61	1
86	86	3
59	65	1
56	58	1
77	99	1
20	21	1
124	126	1
115	118	1
2	27	1
87	89	1
106	134	1
27	35	1
114	114	2
60	62	1
3	4	1
134	135	2
82	87	1
54	62	1
66	67	1
94	95	2
33	49	1
0	1	2
24	25	1
9	21	2
82	99	1
55	56	3
120	121	1
48	81	1
97	140	1
10	53	1
89	92	1
87	87	1
65	69	1
24	37	1
2	3	1
106	109	1
76	77	1
125	127	1
139	140	1
15	15	3
125	140	1
92	92	4
67	87	1
109	132	1
88	90	1
102	141	1
30	33	2
47	51	1
133	139	1
81	126	1
57	60	1
28	29	2
113	118	1
81	82	1
38	57	1
9	98	1
103	124	1
5	24	1
70	73	1
65	66	1
47	89	1
99	142	1
23	25	1
10	23	1
74	141	1
80	82	1
77	81	1
104	105	1
120	128	1
73	74	1
38	135	1
72	81	1
110	114	1
53	54	1
110	121	1
49	64	1
102	125	1
93	95	1
117	118	1
88	105	1
79	80	1
75	91	1
82	85	1
46	46	1
16	16	1
56	62	1
99	104	1
