34	36	1
87	87	1
126	126	1
55	56	3
114	114	2
116	116	3
46	46	2
18	19	2
44	44	1
14	36	1
22	23	2
83	85	1
99	99	4
72	72	2
29	29	5
128	128	4
125	125	3
36	36	4
59	60	1
58	58	6
17	32	1
109	110	1
48	48	5
131	132	1
120	120	3
1	1	4
12	12	4
103	104	2
31	31	2
96	97	1
65	65	3
75	76	1
78	78	1
73	73	6
2	2	5
8	8	1
102	102	5
67	67	4
17	19	2
92	133	1
102	104	1
80	91	1
27	32	1
129	129	1
19	19	3
45	45	2
35	35	1
104	104	3
46	47	1
64	73	1
72	118	1
62	62	3
93	114	1
69	69	3
24	29	2
110	133	1
95	95	3
77	77	2
91	92	1
26	26	6
10	10	2
32	32	1
88	88	3
121	122	1
33	45	1
134	134	2
77	78	1
83	83	2
70	70	2
57	57	2
59	95	2
22	22	1
79	79	2
34	34	2
66	66	3
41	42	1
39	41	1
40	40	1
11	11	2
27	27	1
112	117	1
68	68	4
14	14	3
13	27	1
111	111	2
30	39	2
9	9	1
127	128	1
42	42	1
111	123	2
23	23	1
13	19	1
94	123	2
76	76	5
99	100	1
6	13	2
74	75	2
20	28	1
108	108	2
101	101	3
84	84	3
123	123	3
34	35	2
6	6	1
121	121	1
96	96	1
13	20	1
7	7	1
104	105	1
79	111	1
9	10	1
70	85	2
37	37	1
108	130	1
15	41	1
45	63	1
59	59	2
64	65	1
109	109	1
0	95	1
4	4	1
16	16	2
97	100	1
117	117	1
75	119	1
82	83	1
89	92	1
18	18	1
3	45	1
116	123	1
13	13	2
74	118	1
71	71	1
64	64	4
109	122	1
106	131	1
92	130	4
113	113	3
122	122	2
94	94	1
111	134	1
127	127	1
98	98	1
24	24	1
108	123	1
110	111	1
79	80	2
17	17	1
74	74	1
93	93	1
99	106	1
41	51	1
129	134	2
20	20	1
107	107	1
100	107	1
94	117	1
80	80	3
24	30	1
118	118	2
75	75	2
33	34	1
58	107	1
31	58	1
98	105	1
62	66	1
77	115	1
42	55	1
38	38	1
6	46	1
56	56	1
81	81	3
15	15	1
97	97	2
81	83	1
86	99	1
106	106	1
37	50	1
0	0	1
8	9	2
89	89	2
91	132	1
81	86	1
47	47	1
15	16	1
48	50	1
92	112	1
56	57	1
42	43	1
116	131	1
12	14	1
44	108	1
102	125	1
13	32	1
115	116	1
7	11	1
110	116	1
112	112	1
72	73	1
103	103	1
77	85	1
58	94	1
26	28	1
23	29	1
68	69	1
36	44	2
110	110	1
57	67	1
83	84	1
60	60	1
98	108	1
119	119	1
111	133	1
85	100	1
21	28	1
85	85	1
55	82	1
27	30	1
43	44	1
2	68	1
43	132	1
39	40	1
11	32	1
133	133	1
45	46	1
102	106	1
40	83	1
