32	32	1
191	191	3
130	130	1
193	194	3
64	136	2
201	233	1
58	60	1
184	222	1
146	229	2
131	131	4
212	214	1
169	216	1
179	179	2
183	188	1
161	161	1
136	169	1
58	58	1
121	121	1
130	159	1
70	70	3
31	218	1
168	168	1
69	71	2
47	47	2
225	225	1
62	62	3
103	103	1
128	128	2
236	236	1
174	174	3
53	76	2
145	145	3
107	108	3
155	157	2
148	148	4
137	142	2
133	146	1
31	31	1
41	41	4
65	69	3
134	158	1
219	219	2
63	64	2
104	104	3
140	141	3
164	164	7
7	7	2
144	145	1
64	169	1
146	146	3
23	23	1
120	171	1
122	139	2
108	109	2
167	168	3
84	84	2
83	84	2
12	12	1
151	151	1
13	14	1
57	79	1
82	83	2
240	240	2
239	239	1
27	28	2
14	14	3
224	225	1
44	44	3
72	72	2
71	71	2
199	229	2
156	167	1
78	78	2
79	79	2
184	207	1
54	78	1
7	36	1
48	48	3
150	151	2
220	220	2
184	184	4
150	150	4
116	124	1
231	231	1
201	217	1
116	116	1
139	139	6
147	147	3
134	134	3
166	166	2
181	187	2
232	239	1
64	65	2
163	164	1
81	83	1
224	224	1
139	140	1
18	22	1
228	229	1
42	42	2
103	107	1
26	26	1
187	187	2
122	170	2
237	237	1
134	191	1
6	6	3
181	182	2
127	127	2
136	137	1
58	61	1
29	29	4
157	157	1
85	86	2
122	122	1
78	136	1
233	234	1
22	41	1
146	148	1
49	52	1
160	160	2
97	97	3
180	185	1
115	115	4
21	21	3
188	188	1
71	73	1
13	13	1
195	225	1
108	108	3
38	38	1
196	196	1
165	168	1
98	98	1
45	45	2
50	50	1
196	197	1
175	175	2
138	157	2
110	110	2
176	176	5
80	80	3
129	129	2
77	77	1
17	40	1
7	8	2
104	115	1
163	163	2
228	228	1
37	37	2
24	242	1
101	101	3
213	224	1
17	39	1
152	152	2
157	169	1
152	233	2
18	19	1
77	81	1
135	135	2
203	203	4
152	154	1
197	197	1
121	122	1
26	30	1
88	89	1
177	182	1
17	17	3
34	34	1
154	155	1
138	138	1
88	88	2
233	238	1
238	238	1
133	133	1
43	44	1
65	68	1
166	182	1
186	187	1
172	172	5
173	173	2
80	81	1
102	102	3
44	171	2
183	184	2
27	98	1
215	217	1
120	120	2
198	227	1
145	146	1
74	74	2
218	218	3
165	165	1
168	184	1
65	65	1
212	212	1
52	52	3
59	59	2
209	210	2
25	201	2
21	58	1
85	85	2
178	206	1
170	171	1
53	67	1
171	172	1
103	104	1
50	52	1
102	105	2
32	38	1
40	40	3
153	153	1
208	209	1
54	55	1
30	30	4
82	82	2
204	205	1
221	221	1
208	208	2
124	162	1
225	229	1
169	169	1
44	102	1
208	240	2
193	195	1
155	155	2
57	57	1
19	146	1
25	44	1
205	205	3
16	37	1
230	230	1
22	22	1
118	119	1
33	33	2
17	200	1
38	103	1
81	81	1
111	111	1
75	75	2
96	97	1
221	222	1
46	46	2
5	18	1
153	155	2
18	18	2
227	227	1
172	174	1
170	170	2
24	186	1
20	20	1
122	179	1
178	179	2
60	60	1
150	152	1
0	11	1
164	168	2
156	156	1
209	209	1
81	82	1
45	99	1
65	66	2
172	173	1
8	8	1
38	45	1
69	69	1
135	240	1
126	126	2
41	60	1
206	218	1
96	102	1
65	71	1
198	198	1
43	43	3
133	143	1
122	136	1
11	11	1
9	9	3
39	39	1
30	84	1
36	36	3
16	16	1
124	126	1
117	126	2
67	67	1
64	64	2
167	167	1
119	121	2
78	199	1
135	136	1
44	62	1
165	166	1
153	157	1
183	183	1
130	175	1
217	217	1
29	55	1
118	118	1
154	154	1
207	207	1
225	227	1
47	98	1
99	99	1
40	57	1
106	106	1
208	220	1
239	242	1
133	162	1
74	75	1
44	61	1
136	136	1
227	228	1
53	53	1
103	105	1
28	120	1
149	149	1
216	216	1
119	119	1
180	181	1
161	162	1
55	55	2
206	206	1
75	92	1
187	216	1
125	126	1
47	48	1
240	242	1
42	43	1
5	5	1
0	183	1
49	57	1
105	105	2
130	167	1
158	169	1
226	227	1
56	56	1
137	137	1
164	165	1
76	167	1
181	181	1
178	178	1
177	234	1
197	220	1
91	91	1
193	193	1
2	17	1
100	129	1
86	86	1
134	146	1
150	157	1
28	70	1
205	220	1
126	163	1
22	188	1
158	168	1
153	160	1
159	177	1
