46	46	7
22	22	10
15	15	12
73	73	9
33	34	1
109	109	5
119	119	10
104	104	6
97	97	2
88	88	3
83	83	7
80	80	3
33	33	16
63	63	16
3	3	8
131	132	8
112	112	10
6	6	3
15	16	5
117	117	6
11	11	10
128	128	9
42	42	7
95	95	8
59	59	7
5	5	4
122	122	6
84	84	3
55	55	4
69	69	6
93	93	5
116	116	11
130	130	8
99	100	1
80	81	2
107	107	5
60	60	4
85	85	7
66	66	7
31	79	1
7	18	4
35	36	2
12	12	11
76	76	12
73	119	1
129	129	4
113	114	1
13	13	8
88	89	2
32	32	6
61	61	18
79	79	6
124	125	4
61	68	2
133	133	7
130	131	3
124	124	5
30	31	1
107	121	2
59	61	1
82	84	3
48	48	4
36	36	9
100	103	3
81	81	5
9	10	3
82	83	3
113	113	12
127	127	7
104	106	4
15	63	1
91	91	7
132	132	7
18	18	11
92	92	10
33	78	1
72	72	8
120	120	4
62	62	14
114	114	2
21	21	7
103	133	1
111	126	1
95	103	1
106	109	1
51	55	2
121	121	7
123	123	8
34	34	7
55	56	5
19	19	19
97	98	4
47	131	1
101	102	1
64	64	13
38	40	1
44	44	10
100	134	1
125	125	10
24	24	7
10	10	7
112	113	3
99	99	6
25	25	7
17	17	10
96	96	4
128	132	1
70	70	10
6	12	1
126	134	1
14	14	4
90	92	3
87	88	1
134	134	6
47	47	6
7	7	7
4	4	4
57	58	3
28	28	6
133	134	3
110	110	3
131	131	6
43	43	4
29	29	9
75	76	7
58	58	7
128	130	1
25	27	1
126	126	7
35	38	1
103	103	11
20	20	8
46	47	3
34	76	1
98	100	1
101	101	4
70	72	1
19	20	5
31	31	11
87	87	7
87	89	1
102	102	7
59	60	1
5	7	1
31	36	2
110	111	4
44	45	3
118	118	9
12	13	1
71	72	1
29	30	3
27	27	4
115	115	10
34	35	3
127	128	4
101	131	1
24	26	2
99	101	1
13	28	1
94	94	9
3	46	1
114	115	3
1	1	7
8	8	8
60	61	4
18	44	1
35	35	5
111	111	5
115	116	1
109	128	1
75	75	7
45	45	13
0	0	6
7	80	1
120	122	2
82	82	7
4	94	1
23	23	4
113	115	3
86	86	5
3	10	1
56	57	2
32	33	2
17	27	1
9	9	8
48	49	2
106	106	6
83	86	1
68	68	3
28	78	2
50	50	2
88	92	1
23	25	5
111	132	1
37	39	2
27	29	2
2	2	2
41	56	2
38	38	2
36	37	2
11	33	1
51	51	2
88	90	1
90	91	2
108	108	4
119	120	3
74	75	4
41	41	1
65	65	5
7	104	1
77	77	11
2	14	1
20	21	4
26	27	1
78	78	6
109	110	4
56	56	4
57	57	5
95	96	3
14	17	1
93	96	2
30	104	1
73	111	1
21	23	1
71	71	4
111	112	3
16	16	4
121	130	1
129	130	2
96	97	4
85	119	1
74	74	6
28	30	1
124	130	1
31	32	2
104	128	2
98	98	1
96	103	1
103	106	2
101	133	2
83	93	1
34	87	1
42	43	2
37	43	1
26	26	4
93	94	3
79	80	2
100	126	1
79	81	2
99	133	1
73	74	2
75	112	1
26	39	1
0	1	1
111	113	1
2	3	1
12	32	1
121	122	2
85	92	1
39	40	2
88	94	1
21	24	1
31	42	1
100	100	4
90	90	2
5	6	1
79	82	1
105	105	3
14	33	2
27	28	3
26	30	1
37	38	2
121	125	1
45	46	5
51	56	1
56	60	1
37	37	4
67	67	5
107	108	1
40	40	1
61	71	1
93	106	1
23	27	1
10	11	3
81	85	1
2	75	1
78	79	1
37	48	1
6	62	1
33	110	1
33	102	1
108	109	1
1	3	1
89	95	1
81	127	1
100	108	1
83	84	2
125	128	1
66	71	1
104	105	1
92	95	1
76	77	1
31	49	1
51	54	1
72	73	3
97	108	1
25	26	1
41	43	2
19	34	1
97	128	1
40	103	1
93	108	1
39	41	2
114	124	1
30	30	4
13	18	1
80	84	1
71	118	1
94	97	1
66	67	2
31	40	1
77	78	1
27	79	1
55	58	1
91	92	4
81	100	1
102	128	1
38	43	1
11	12	1
11	14	1
36	42	1
0	2	1
127	130	1
94	126	1
20	47	1
78	86	1
125	134	1
93	127	1
83	105	1
35	39	1
61	65	1
20	26	1
5	74	1
72	74	1
79	85	1
39	39	2
75	124	1
104	131	1
31	37	1
89	90	1
78	85	1
40	60	1
5	95	1
57	92	1
70	71	1
102	103	2
33	43	1
4	35	1
58	60	1
62	65	1
89	96	1
84	103	1
28	29	2
88	102	1
13	73	1
125	126	1
108	120	1
62	64	1
0	10	1
37	40	1
32	56	1
128	129	1
98	99	2
117	118	1
86	96	1
60	73	1
104	111	1
126	127	1
77	79	1
82	121	1
56	63	1
8	15	2
2	4	1
8	81	2
112	117	1
36	39	1
115	130	1
7	8	1
68	69	1
10	14	1
32	36	1
86	102	1
58	59	1
124	129	1
21	22	1
