75	75	6
52	57	2
2	3	1
114	116	2
127	127	3
71	71	2
108	108	2
90	103	1
76	76	2
82	83	1
48	48	2
73	73	2
12	13	1
11	11	1
133	133	2
125	125	1
128	128	2
111	111	3
85	86	1
30	31	1
99	101	2
124	124	1
16	17	1
27	27	3
46	47	1
30	30	1
47	48	2
29	29	1
28	29	1
126	127	1
6	6	1
126	126	3
25	32	1
93	93	2
68	68	1
110	110	3
66	76	1
64	83	1
82	82	3
1	1	2
49	49	1
2	27	2
74	74	2
106	115	2
131	131	3
53	53	2
120	120	6
21	22	3
129	129	6
15	15	2
102	107	1
101	128	1
101	101	1
64	64	1
114	114	2
113	113	1
80	81	2
84	85	2
107	108	1
21	21	3
81	82	2
95	95	1
79	80	3
121	121	2
68	105	1
64	77	1
108	109	1
43	43	1
24	24	2
5	5	4
75	76	1
123	124	1
66	66	1
116	116	2
102	102	1
97	98	2
122	122	3
43	47	1
53	54	2
95	96	2
106	106	5
70	70	2
58	59	1
65	65	2
93	94	2
9	10	1
73	74	1
89	90	1
107	107	1
90	90	1
61	61	1
77	77	2
68	69	2
91	91	1
87	94	1
42	42	2
85	87	1
20	20	1
4	26	1
60	61	1
28	28	1
11	14	1
93	132	1
23	23	1
119	119	1
94	94	1
44	47	1
117	117	4
118	119	1
31	31	1
100	100	1
105	128	1
27	29	1
107	115	1
23	25	1
50	50	1
39	39	1
10	11	1
61	62	1
86	86	1
96	96	1
84	86	1
31	60	1
105	115	1
25	27	1
44	45	2
33	58	1
57	57	1
58	63	1
2	2	1
80	80	1
66	68	1
67	67	3
66	72	1
0	0	3
62	82	1
63	63	1
48	50	1
104	104	2
76	95	1
109	109	2
42	45	1
52	52	3
104	118	2
115	115	1
86	88	2
46	46	1
56	56	2
67	68	1
84	84	1
112	112	2
126	128	1
32	32	1
60	60	1
99	99	1
1	5	1
54	54	2
47	47	1
68	93	1
96	124	1
55	55	1
70	71	2
72	76	1
14	15	1
42	43	1
118	120	1
87	120	1
25	25	1
103	103	1
81	81	1
98	98	1
24	26	1
94	95	1
132	132	1
75	77	1
9	9	1
105	118	1
7	8	1
65	94	1
51	51	2
12	12	1
13	14	1
26	26	1
62	62	1
49	50	1
