58	108	1
29	29	1
112	112	3
110	111	2
33	33	4
180	180	1
148	187	2
15	24	1
74	74	2
27	27	4
98	98	3
109	183	1
44	44	1
187	187	1
94	95	1
167	167	2
120	120	3
189	189	1
70	71	2
146	146	3
114	122	1
53	53	4
28	28	3
42	43	1
128	128	1
15	16	2
26	26	1
133	133	1
24	24	2
90	91	2
41	75	2
52	52	1
128	146	1
129	130	1
11	11	2
2	2	1
127	127	2
105	105	1
182	182	2
170	174	1
86	86	1
48	49	1
106	113	2
91	94	2
72	72	3
10	10	3
18	18	1
175	190	1
154	155	3
7	8	1
140	140	1
108	108	1
83	83	3
4	4	3
72	83	1
173	180	2
121	138	1
64	82	1
53	77	1
172	172	1
152	153	1
82	84	1
125	155	1
3	3	1
135	137	1
104	129	1
123	123	3
117	153	2
99	100	2
22	23	3
113	113	4
103	115	1
54	55	1
110	110	4
88	89	2
54	54	1
100	103	2
166	166	3
175	175	3
88	91	2
101	101	2
37	37	1
147	147	1
155	155	2
68	129	1
116	161	2
38	38	1
164	164	2
111	111	1
189	190	1
185	185	2
130	132	1
12	12	2
96	126	1
141	186	1
76	108	2
104	104	1
120	163	1
40	40	1
102	102	3
0	173	1
121	121	3
150	150	1
154	154	2
45	46	1
77	78	1
21	21	2
4	5	1
109	113	2
159	174	1
73	73	2
177	177	1
58	58	1
46	46	1
38	39	1
19	19	3
122	127	2
93	95	1
78	78	1
156	157	1
101	104	1
129	129	2
115	115	3
61	62	1
74	75	1
86	90	1
163	163	1
21	22	1
78	95	1
122	122	2
18	24	1
5	5	4
6	7	1
1	1	3
105	132	1
165	165	1
125	125	2
108	109	1
185	189	1
91	101	1
150	152	1
56	57	1
22	22	2
97	97	1
116	116	1
124	139	1
23	24	1
95	100	1
75	75	1
158	165	2
63	66	1
121	126	1
41	41	1
99	99	3
101	102	1
89	89	2
114	118	1
24	26	1
168	178	1
135	135	3
117	117	1
70	70	1
103	103	1
151	151	1
28	29	2
16	16	1
153	169	1
23	23	1
11	12	1
57	57	1
88	88	1
130	130	1
86	87	1
6	6	1
30	30	1
47	47	1
110	140	1
121	136	1
65	68	1
90	113	1
99	111	1
18	28	1
96	99	1
42	42	1
114	114	1
157	182	2
98	100	1
7	7	1
36	37	1
19	21	1
95	95	1
102	103	1
159	159	1
95	113	1
57	62	2
114	115	1
64	64	1
184	184	1
8	8	1
154	156	1
168	168	2
157	158	1
15	15	1
186	186	1
132	134	2
159	164	1
124	124	1
133	134	2
22	28	1
62	63	1
0	0	2
56	119	1
162	162	1
66	66	1
82	82	1
20	20	1
152	152	1
42	46	1
134	134	2
169	169	1
87	119	1
55	100	1
10	15	2
25	25	1
91	92	1
4	6	1
77	77	1
99	123	1
176	176	1
48	55	1
128	159	1
27	28	1
13	23	1
134	137	1
188	188	1
6	184	1
144	145	1
109	110	1
180	181	1
173	173	1
94	94	2
91	91	1
123	130	1
76	77	1
153	153	1
59	60	1
40	41	1
187	188	1
32	32	1
102	108	1
172	173	1
125	127	1
170	170	1
128	129	1
119	119	1
183	183	1
