43	46	1
91	92	7
101	103	2
67	69	1
63	83	1
77	77	1
61	61	4
33	34	1
55	68	1
33	33	5
41	41	2
55	55	2
66	66	3
84	85	1
91	91	12
57	68	3
109	109	3
22	22	1
24	25	2
97	99	1
92	92	15
110	110	3
44	44	3
33	52	1
62	64	3
93	93	6
48	48	3
59	59	1
111	112	1
75	96	1
90	90	6
88	88	4
30	30	2
114	114	4
56	57	1
96	97	1
56	56	2
112	112	2
94	94	1
46	47	1
90	92	1
97	97	2
98	98	2
80	80	2
78	78	3
25	28	1
72	72	3
54	54	3
80	86	1
28	28	4
82	84	2
45	45	4
36	37	5
89	94	1
36	36	3
29	31	1
50	77	1
95	95	2
80	109	1
19	19	2
73	75	1
62	62	5
81	81	4
68	69	1
22	27	1
108	108	3
84	87	1
81	90	6
61	74	1
99	99	1
55	56	4
100	100	4
79	82	1
67	70	2
55	59	1
45	53	1
20	41	1
28	29	1
81	91	4
81	84	2
42	42	1
88	89	2
92	94	1
109	110	2
90	93	2
32	32	1
43	43	2
70	71	1
82	82	1
103	110	2
52	52	3
106	106	1
49	50	1
30	49	1
80	110	1
103	104	1
46	46	1
85	87	1
34	35	1
60	60	1
74	74	2
73	73	4
90	91	4
49	49	4
55	57	1
63	64	1
84	84	1
32	33	1
70	70	1
86	86	1
35	35	2
101	101	2
69	69	3
39	42	1
74	75	2
104	104	2
24	26	1
102	102	4
21	23	1
97	108	1
79	104	2
51	51	1
113	113	4
53	53	3
38	38	2
29	29	2
87	87	1
24	114	1
61	66	1
104	108	2
45	51	1
57	57	1
81	92	1
40	41	1
98	100	1
64	66	1
87	96	1
93	108	1
46	99	1
71	76	1
83	83	3
52	60	1
19	111	1
22	111	1
47	47	1
37	37	1
92	93	1
53	54	2
61	62	1
91	93	1
34	106	1
30	45	1
21	21	1
56	69	1
95	96	1
77	78	1
95	109	1
37	38	1
81	86	1
47	67	1
79	79	1
107	107	2
26	41	1
56	78	1
72	73	1
56	58	1
34	34	2
66	67	1
89	89	1
31	31	1
26	26	1
30	31	1
79	101	1
64	64	1
94	101	1
60	77	1
41	43	1
107	108	1
85	85	1
71	71	1
20	21	1
25	25	1
60	73	1
