12	12	5
105	105	1
6	63	1
14	14	3
1	2	1
79	79	5
124	124	4
93	93	4
78	79	3
58	84	2
60	60	3
23	30	1
92	92	2
26	27	1
47	47	6
119	124	1
85	85	5
21	21	2
24	24	2
92	106	1
60	61	4
83	85	1
7	8	2
111	111	2
96	97	1
59	59	5
56	56	3
105	125	1
75	75	3
115	115	10
11	45	1
9	44	1
29	29	1
62	62	3
42	55	1
10	10	5
99	99	2
125	125	4
74	74	4
1	60	1
82	82	6
76	76	2
125	126	3
72	72	10
25	25	3
23	29	2
80	80	1
7	87	1
96	96	6
128	128	2
100	100	4
29	41	2
102	104	1
82	83	1
47	66	1
36	47	2
32	32	3
117	117	6
130	130	6
112	112	4
95	118	2
83	83	3
68	114	1
28	28	5
119	119	3
80	81	1
97	97	5
118	118	4
90	90	3
33	35	2
97	98	4
121	126	1
57	57	5
60	62	2
121	123	1
87	88	2
47	48	3
1	1	1
132	133	2
12	13	5
59	60	3
44	45	4
24	59	1
87	100	1
134	134	4
18	18	3
15	15	4
3	3	2
27	42	1
6	7	2
92	105	1
108	108	2
25	26	2
99	110	1
17	17	4
48	48	2
111	112	3
3	4	1
29	79	1
46	66	1
126	128	4
67	67	2
127	127	5
61	62	1
34	35	2
94	94	6
69	69	2
35	35	6
92	126	1
65	65	4
114	126	3
74	77	1
101	101	4
86	117	1
27	27	3
35	36	2
88	97	1
64	64	6
55	133	3
68	69	3
106	106	5
40	40	2
109	109	5
103	103	3
92	103	1
62	63	1
86	93	1
66	110	1
94	95	1
104	104	2
36	38	3
31	31	5
104	106	1
51	56	1
61	61	2
95	111	1
73	73	4
33	33	4
2	2	2
90	117	1
78	114	1
44	56	1
95	121	1
26	26	1
81	96	1
23	41	1
1	9	1
81	101	1
7	20	1
27	37	1
121	122	3
12	124	2
7	59	1
88	89	1
36	36	5
44	44	3
11	11	7
122	122	1
71	71	3
39	39	1
120	120	3
13	13	2
112	113	3
47	57	1
78	117	1
9	9	3
3	108	1
14	16	2
70	70	3
133	133	4
9	13	1
126	126	2
1	11	1
70	71	4
20	20	2
75	76	3
23	26	1
22	22	2
9	19	1
131	131	2
68	68	4
61	94	1
16	18	1
65	95	1
129	129	2
7	7	3
98	98	5
34	34	2
128	129	3
93	105	1
82	86	1
95	97	2
96	120	1
66	66	3
23	24	2
20	60	1
55	55	2
94	101	1
13	77	1
80	82	1
4	5	2
68	70	1
42	43	1
37	45	1
32	44	1
77	77	2
74	76	1
20	21	1
9	10	3
40	42	1
67	68	1
45	45	2
57	61	1
87	87	2
43	43	2
47	108	1
128	130	2
30	30	2
86	108	1
78	133	1
87	115	1
8	8	2
89	101	1
108	134	1
40	43	1
92	93	2
1	61	1
5	5	2
126	134	1
10	11	1
81	102	1
109	111	1
88	88	2
117	118	1
67	118	1
22	23	1
30	31	1
94	129	1
73	74	2
73	76	1
42	48	1
105	108	1
63	69	1
32	40	1
107	107	1
39	50	1
23	23	3
78	78	3
65	66	1
37	37	2
27	32	1
41	41	1
29	31	1
5	28	1
30	47	1
64	70	1
91	92	1
93	94	1
16	16	1
123	129	1
110	114	1
93	96	1
116	116	1
113	113	3
71	72	1
16	17	1
110	131	1
76	78	1
33	34	1
46	46	1
86	86	1
14	15	1
58	61	1
103	104	1
112	120	1
19	21	1
19	19	3
84	132	1
33	72	1
119	130	1
69	70	2
61	93	1
107	129	1
34	36	1
45	46	1
115	116	1
10	35	1
121	121	1
121	127	1
72	113	1
79	80	1
102	102	1
4	4	1
6	6	1
71	117	1
42	42	1
84	84	1
84	127	1
109	110	1
112	130	1
41	42	1
