169	183	2
220	223	1
126	126	2
202	202	3
39	48	1
113	113	7
173	177	1
122	122	5
139	141	3
238	238	2
15	179	1
137	137	5
174	175	2
29	29	5
184	184	3
227	227	6
166	169	1
189	204	1
9	33	1
6	6	6
20	31	1
83	105	1
175	175	5
240	240	1
193	195	1
171	171	3
101	240	1
191	191	4
79	79	1
128	128	5
126	127	1
212	213	4
138	138	2
11	11	4
114	119	1
59	59	3
144	146	1
173	173	4
208	217	1
0	0	2
40	42	2
21	22	3
97	112	2
183	183	2
175	219	1
64	64	4
210	210	2
71	71	3
141	141	2
149	149	6
7	13	1
205	205	3
72	72	7
36	36	10
149	184	2
169	170	3
229	230	2
0	221	1
74	76	1
38	39	2
108	108	2
38	38	4
182	222	1
113	120	1
35	226	1
66	66	2
42	42	3
20	25	2
96	96	6
28	28	7
25	25	5
162	162	4
147	148	1
220	220	5
69	69	6
180	180	5
188	189	1
76	77	3
108	133	1
57	83	1
170	170	8
83	83	2
86	86	4
124	124	1
81	81	2
100	100	7
107	107	5
9	9	5
237	237	6
159	160	1
13	13	7
159	159	2
218	218	2
58	60	1
24	24	6
227	228	1
187	187	5
164	165	3
154	156	3
85	85	4
176	176	6
102	159	1
9	37	1
33	33	4
55	63	1
89	89	3
235	235	2
105	139	1
10	10	6
166	167	1
239	240	2
130	130	3
108	109	1
200	200	3
152	152	5
103	106	1
50	51	1
143	188	2
179	180	1
136	136	2
148	158	1
27	27	9
192	192	3
22	22	4
35	36	1
140	141	1
121	121	6
153	153	5
2	5	1
45	45	9
242	242	4
18	68	1
154	160	1
12	209	1
139	139	2
103	105	2
123	123	2
233	234	3
175	178	1
17	43	1
134	134	4
121	122	1
226	226	2
180	184	1
129	129	3
70	70	10
176	202	2
183	188	4
194	195	1
161	162	1
109	136	1
35	108	1
156	156	5
103	103	5
142	143	1
144	177	2
98	100	1
43	61	1
173	174	1
119	123	1
204	204	6
98	98	2
197	197	3
184	186	3
106	121	1
124	144	1
22	24	2
160	160	5
150	150	5
216	216	4
169	169	2
74	79	2
168	168	3
158	158	3
76	79	2
88	88	4
188	188	2
234	236	1
40	40	3
145	146	1
61	70	1
42	48	1
50	50	2
157	171	1
152	153	1
131	131	1
126	185	1
3	3	3
107	141	1
16	17	2
232	242	2
190	190	3
214	214	3
111	111	2
96	105	1
109	110	2
60	61	2
2	3	1
112	112	2
143	144	1
130	132	1
153	160	2
32	39	1
63	219	2
78	183	1
174	174	5
167	167	1
127	162	2
99	109	1
95	95	2
125	126	1
44	46	1
120	121	1
27	28	1
76	76	2
59	60	4
56	56	1
205	206	4
1	1	2
17	70	1
37	37	1
211	211	3
234	234	1
18	20	1
60	60	1
127	127	2
125	125	4
175	177	3
16	16	3
61	61	3
78	161	2
106	126	1
237	238	1
67	74	1
157	158	2
140	140	1
37	38	2
3	6	1
20	20	11
118	118	1
20	190	3
54	152	1
148	148	3
97	97	2
208	216	1
181	181	1
197	198	2
221	222	1
47	47	9
23	23	4
23	35	2
135	154	1
123	124	2
73	121	1
153	161	4
105	188	1
7	7	3
12	19	2
66	67	2
185	192	3
8	8	2
241	241	2
232	232	6
11	201	1
154	154	3
71	72	2
106	187	1
208	208	5
2	2	7
223	223	1
110	114	1
80	84	2
173	175	1
67	67	1
80	81	1
162	163	1
186	190	1
78	78	3
138	139	1
137	148	1
58	58	4
57	57	1
134	135	1
145	145	1
147	164	1
217	242	1
53	53	5
201	201	4
24	106	1
18	18	4
129	132	1
38	42	1
109	109	3
193	193	1
110	128	1
27	32	1
32	47	1
213	213	2
4	4	2
48	58	1
22	40	2
199	215	2
12	33	3
96	97	1
40	41	2
99	100	2
166	166	3
199	199	4
161	161	3
43	43	4
239	239	3
17	17	3
138	143	2
62	62	1
34	36	1
13	14	1
20	24	1
209	216	2
32	32	4
216	222	1
209	217	1
165	165	3
60	95	1
225	225	3
198	215	1
48	48	4
21	21	2
151	154	1
146	170	1
220	221	1
233	241	1
73	73	6
215	230	1
49	49	1
53	90	1
136	152	1
117	140	1
182	182	4
212	219	2
201	216	1
14	14	2
28	74	1
166	178	1
164	164	4
49	51	1
100	101	1
95	121	1
149	151	1
4	5	1
26	27	1
82	82	1
8	24	1
147	147	4
102	102	5
101	121	1
99	171	2
105	106	1
68	69	1
131	132	1
167	168	1
111	112	1
12	47	1
51	51	3
230	230	3
114	114	2
101	159	1
151	151	4
91	168	1
161	171	1
20	21	1
172	173	1
95	129	1
162	166	1
231	231	1
146	184	1
157	157	2
179	179	2
134	155	1
117	117	1
85	86	1
119	119	2
28	29	5
26	26	6
133	145	1
228	229	1
191	202	1
34	34	2
8	33	1
209	209	1
219	219	4
46	46	5
135	135	4
178	183	1
236	236	1
181	182	2
165	166	1
196	196	2
238	239	2
203	204	1
10	31	1
41	42	1
120	120	4
57	58	1
65	89	1
130	159	1
227	229	1
150	167	1
144	144	2
15	15	2
106	135	1
54	54	2
170	187	1
137	138	1
215	215	1
115	117	1
189	208	1
128	129	2
214	229	1
150	158	1
53	95	1
29	37	1
37	200	1
195	195	1
36	77	1
64	78	1
32	37	1
109	149	1
43	44	1
102	235	1
10	231	1
240	241	1
25	54	1
106	106	3
151	166	1
184	193	1
123	181	1
39	42	1
19	36	1
158	162	1
84	84	1
119	121	1
185	186	1
186	186	1
99	99	2
233	233	2
80	106	1
7	161	1
155	158	1
19	19	2
1	3	1
184	187	1
133	137	1
101	111	1
151	163	1
56	66	1
194	194	1
134	162	1
59	61	1
173	200	1
140	149	1
172	172	1
152	180	1
133	134	1
151	162	1
198	200	1
198	199	1
23	34	1
206	206	1
133	173	1
214	215	1
20	197	1
65	65	3
68	68	2
149	150	1
192	197	1
51	59	1
141	142	2
220	238	2
48	71	1
127	131	1
78	79	1
12	12	1
171	174	1
32	49	1
74	74	1
20	22	1
104	105	2
162	164	2
135	240	1
229	229	3
143	150	1
8	55	1
155	155	3
116	116	2
51	52	2
51	56	1
105	118	1
17	18	1
81	147	1
102	103	1
47	145	1
219	220	1
12	16	1
60	84	1
149	152	1
146	146	1
44	44	1
228	228	2
106	108	1
33	37	1
175	176	1
133	133	1
111	128	1
217	217	3
8	9	1
178	178	3
162	186	1
5	5	1
29	31	1
3	4	1
241	242	1
39	46	1
161	180	1
119	120	1
180	182	1
42	43	1
142	146	1
123	126	1
114	116	1
138	144	1
23	26	1
163	163	1
132	160	1
145	176	1
136	138	1
168	169	1
201	204	1
210	212	1
97	98	1
138	148	1
101	101	2
169	180	1
30	31	1
0	39	1
15	44	1
105	105	2
35	63	1
83	84	1
75	120	1
24	44	1
0	208	1
73	74	1
186	187	2
49	53	1
151	152	1
15	23	1
41	41	1
148	169	1
122	124	1
41	79	1
38	69	1
88	89	1
158	178	1
22	23	1
81	82	1
45	75	1
28	32	1
37	197	1
136	159	1
150	153	1
160	162	1
39	189	1
72	73	1
222	222	1
65	177	1
76	80	1
167	180	1
15	16	1
35	84	1
19	39	1
221	224	1
44	45	1
215	216	1
55	55	1
152	160	1
105	111	1
107	108	1
215	229	1
18	35	1
129	130	1
