66	68	1
22	23	1
34	34	3
95	97	3
73	74	2
96	111	1
95	96	2
26	26	10
81	91	3
29	41	1
22	22	4
95	99	3
45	45	2
101	101	2
26	48	1
110	111	2
59	63	1
54	56	2
96	96	2
97	98	3
50	52	1
90	90	3
32	34	1
80	107	2
67	107	1
109	109	1
47	48	1
50	51	1
68	68	5
39	39	5
49	49	3
83	83	2
91	91	8
95	95	2
94	94	5
32	32	4
114	114	3
91	92	4
44	44	3
86	89	1
27	29	2
33	33	1
102	103	2
68	69	3
57	59	2
114	115	1
79	79	4
35	36	2
86	86	1
59	59	3
34	93	1
42	42	1
22	24	3
38	38	5
88	90	1
51	51	3
74	74	3
25	26	2
40	40	1
81	81	6
79	105	1
31	51	2
74	75	1
27	28	3
22	80	1
34	36	1
36	38	1
93	95	1
56	63	1
55	57	1
53	104	2
88	91	1
21	21	3
86	98	1
56	58	1
72	72	2
85	85	3
88	88	1
24	24	2
57	57	2
62	63	1
82	82	1
34	90	1
59	60	2
60	73	1
90	108	1
37	37	4
20	20	2
70	70	4
48	49	2
66	66	5
43	43	2
77	78	3
55	60	2
111	111	7
76	77	1
89	91	1
98	107	1
111	112	1
50	53	1
19	20	1
100	100	1
46	46	4
93	93	5
63	72	1
107	107	3
28	28	2
80	82	1
111	113	2
97	107	1
77	85	1
88	107	1
63	63	4
46	67	2
41	53	1
110	110	3
32	33	2
96	97	2
76	76	1
48	48	1
113	114	1
31	40	2
25	25	4
92	92	4
93	94	1
60	60	1
45	47	1
95	104	1
99	99	1
47	47	2
92	108	2
98	99	1
37	38	1
70	72	2
81	82	1
71	72	2
26	37	1
73	73	4
105	106	1
102	102	5
50	50	1
49	58	1
64	74	2
103	103	3
113	113	2
61	61	3
61	64	1
71	71	1
27	27	3
69	77	1
81	90	2
29	29	3
90	91	5
77	77	1
54	54	3
78	78	2
40	46	2
65	67	1
97	108	1
65	65	1
32	113	1
58	58	2
40	41	3
66	67	3
56	56	2
73	76	1
89	90	2
112	112	1
48	70	1
63	65	1
82	83	1
43	44	2
97	97	2
75	75	4
60	77	1
80	80	4
69	69	2
62	62	2
38	41	1
68	76	1
94	97	1
64	72	1
72	89	1
44	45	2
49	52	1
33	34	1
25	41	1
41	43	1
39	43	1
42	52	1
67	68	1
31	31	3
30	38	1
72	73	1
51	54	1
102	106	1
92	94	1
61	71	1
87	106	1
41	60	1
34	56	1
56	57	2
108	108	1
86	87	1
30	30	1
41	41	1
107	108	1
41	42	1
98	98	2
93	108	1
38	39	1
87	87	1
70	73	1
77	81	1
58	104	1
36	37	2
83	93	1
75	76	1
92	93	1
112	114	1
78	79	2
101	110	1
106	107	1
37	48	1
77	101	1
34	41	1
46	99	1
94	95	1
