3	3	1
83	83	2
88	88	2
21	21	2
97	97	2
9	10	2
143	143	2
63	63	5
42	42	1
37	37	1
40	40	6
113	114	2
104	104	1
69	93	1
123	123	4
79	79	2
125	126	1
34	34	1
70	70	3
134	134	2
145	145	3
49	49	2
0	0	1
95	129	1
43	128	1
69	69	8
68	69	1
17	17	2
31	31	2
130	130	3
89	89	1
98	98	1
129	130	1
95	112	1
47	47	1
124	124	6
74	113	1
116	118	1
97	140	1
77	77	1
121	121	1
39	39	2
131	131	2
98	106	1
61	61	4
32	48	1
37	69	1
4	4	2
88	109	2
107	120	1
111	111	1
22	22	4
140	140	1
22	125	1
129	129	5
90	135	1
95	95	1
37	70	2
101	101	1
131	134	1
103	103	2
139	139	1
108	108	2
107	107	2
128	132	1
80	80	5
86	98	1
12	32	1
96	96	2
69	73	1
120	127	2
99	100	1
87	88	3
142	142	2
29	29	3
31	34	1
127	127	1
72	72	4
119	119	2
78	104	1
93	123	1
106	106	2
120	121	1
10	95	2
115	115	3
126	126	6
119	120	2
50	52	2
17	31	1
131	132	1
9	9	2
122	122	5
8	29	1
109	118	1
116	132	1
19	30	1
132	132	1
13	16	1
92	92	1
82	87	1
2	2	2
32	52	1
136	136	1
123	124	1
116	116	2
74	74	1
53	53	1
30	56	1
71	72	1
116	117	1
18	26	1
48	49	1
88	91	1
19	19	1
71	71	1
96	100	1
100	100	2
122	130	1
80	81	1
126	141	1
33	33	2
23	68	1
34	59	1
68	91	1
56	57	1
122	123	2
74	100	1
138	138	1
129	131	1
72	73	1
93	93	2
20	20	4
41	41	2
83	85	1
112	112	1
71	88	1
117	117	1
91	91	4
42	62	1
110	110	2
26	68	2
110	111	1
35	35	2
56	71	1
66	66	1
105	105	2
64	64	1
18	18	1
22	28	3
60	60	1
62	64	1
48	48	1
8	9	1
65	80	1
141	143	1
56	56	1
102	102	1
62	62	1
38	74	1
66	81	1
59	135	1
20	43	1
93	134	1
103	106	1
10	10	1
81	91	1
65	66	1
125	125	1
16	16	2
25	25	2
94	95	2
62	65	1
75	89	1
144	144	2
42	98	1
140	141	1
81	81	1
67	67	1
6	17	1
135	135	1
47	94	1
75	75	1
27	27	1
97	102	1
110	112	1
6	6	1
118	118	1
92	134	1
11	38	1
98	100	1
55	56	1
128	129	1
115	116	1
16	79	1
112	117	1
112	116	1
26	27	1
86	89	1
97	98	1
66	94	1
71	75	1
47	58	1
84	85	1
136	137	1
62	63	1
102	103	1
93	106	1
73	73	1
33	47	1
54	54	1
119	131	1
