26	28	1
89	90	4
46	46	1
20	21	1
72	72	4
88	89	4
74	100	1
77	77	3
47	47	3
48	48	8
54	54	4
22	23	1
68	68	7
79	79	4
95	101	2
85	85	5
24	24	3
78	78	7
63	63	6
96	96	12
39	39	7
25	25	2
20	25	1
38	39	3
51	96	1
51	51	4
49	50	2
43	55	1
75	75	5
37	38	2
84	88	1
70	74	1
45	45	6
84	84	4
57	57	5
74	75	1
74	74	1
31	31	2
70	70	3
96	97	1
95	96	2
49	58	1
27	28	1
76	76	5
61	62	4
65	67	3
40	45	3
33	34	4
102	102	4
41	41	3
42	42	6
53	60	1
69	70	1
88	88	2
104	104	3
99	106	1
28	28	2
106	106	3
55	55	3
62	62	7
95	95	4
64	64	3
38	45	1
70	71	2
65	65	3
60	63	1
68	69	1
94	94	1
61	65	1
86	89	1
43	54	2
21	21	2
81	88	1
33	37	1
26	42	1
29	61	2
79	99	1
27	27	2
101	101	4
100	100	3
90	90	1
36	36	3
82	82	3
93	100	1
83	83	1
67	95	1
26	26	1
63	67	1
40	40	3
27	31	1
87	87	2
52	54	1
77	90	2
66	66	2
48	51	1
58	60	1
59	69	1
103	106	3
30	30	1
48	57	1
83	84	1
97	99	3
46	47	2
92	105	1
41	43	1
61	61	2
79	85	2
60	79	3
45	46	1
96	98	3
38	38	1
68	102	1
82	98	2
82	93	1
82	83	1
69	69	4
50	53	1
59	59	3
93	93	1
92	93	2
77	80	1
60	65	1
33	33	2
20	23	1
43	50	1
82	84	1
44	45	2
36	37	1
65	77	1
49	49	4
78	81	2
96	99	1
84	86	2
58	59	1
37	37	2
76	97	1
61	72	1
29	81	1
83	94	1
91	101	1
46	53	1
103	103	2
89	96	1
97	105	1
73	73	7
57	58	2
79	89	2
22	22	1
98	98	2
63	82	1
53	78	1
24	25	1
97	97	2
25	61	1
23	25	1
23	23	2
54	55	1
98	99	1
80	83	1
72	75	1
90	91	1
64	77	1
44	44	2
55	58	2
85	86	1
66	70	1
79	80	1
59	60	2
32	34	1
64	70	1
67	68	2
53	72	1
53	54	3
32	33	1
28	42	1
43	43	2
50	62	1
35	35	3
67	67	1
64	67	1
86	90	1
83	85	1
50	50	1
67	70	2
105	105	1
56	56	1
66	68	2
105	106	1
43	44	1
56	65	1
52	52	2
84	85	1
103	105	1
26	30	1
88	91	1
92	92	3
58	58	3
89	89	1
23	24	2
61	67	2
65	74	1
55	60	1
20	20	1
54	72	2
69	72	1
42	49	1
95	97	1
91	92	1
68	77	1
78	84	1
76	87	1
83	86	1
100	101	1
63	92	2
86	99	1
91	91	1
71	71	1
21	105	1
73	75	1
76	90	1
70	73	1
34	35	1
56	58	1
50	77	1
83	91	1
50	78	1
53	53	2
25	33	1
83	87	1
29	29	2
39	41	1
32	35	1
32	43	1
26	27	1
31	32	1
65	73	1
36	47	1
64	65	1
48	49	2
81	81	1
40	41	1
82	90	1
81	84	1
56	59	1
47	48	1
52	106	1
49	53	1
40	42	1
52	77	1
77	78	1
104	105	1
102	103	1
28	47	1
97	100	1
76	77	1
99	99	1
