100	103	1
15	15	13
8	8	6
80	80	6
56	56	10
19	27	1
118	118	4
42	42	3
125	126	1
101	101	4
6	6	3
65	65	8
74	74	8
124	132	1
93	93	2
82	82	4
11	11	4
44	57	1
15	16	5
99	101	2
116	116	5
3	3	8
19	44	1
5	5	1
89	90	3
83	97	1
98	100	3
68	68	5
97	97	5
60	60	20
111	111	2
132	132	6
67	67	3
95	122	2
40	49	1
71	71	7
112	112	6
96	96	5
47	47	8
17	17	8
103	108	1
62	62	8
103	103	3
98	99	3
117	118	2
2	3	2
94	94	5
130	131	2
16	17	3
66	66	11
78	78	5
104	107	1
16	16	5
43	43	4
19	82	1
119	119	4
123	123	4
0	0	2
99	99	6
33	33	8
71	72	3
106	107	2
94	119	1
36	36	3
110	111	7
85	85	3
31	36	1
72	72	3
60	76	1
51	55	2
88	88	1
89	89	2
115	115	4
29	29	1
113	113	4
105	120	2
87	88	1
73	105	1
78	80	2
107	107	5
72	118	1
110	110	3
5	32	1
107	108	3
113	114	1
100	100	2
34	34	6
61	61	7
46	46	4
128	128	4
102	105	1
92	92	4
45	45	5
79	79	8
31	31	5
108	108	3
5	37	1
12	13	1
0	47	1
83	88	1
114	122	1
125	125	2
123	124	5
61	95	1
122	122	1
116	117	3
39	39	1
124	125	4
71	74	1
75	75	3
63	63	7
102	103	1
12	12	4
131	131	4
77	78	2
18	18	2
97	98	3
126	127	1
95	96	2
33	35	1
55	55	4
72	102	2
32	33	1
30	61	1
129	129	4
32	32	4
9	9	4
91	91	6
8	57	1
36	37	2
104	104	2
90	91	1
36	39	1
124	124	3
20	21	2
86	86	5
134	134	6
130	130	5
57	58	5
126	126	9
120	120	5
22	22	3
113	115	2
57	57	6
95	134	1
5	23	1
66	73	1
85	123	1
7	7	6
77	77	6
84	93	1
69	69	2
130	134	1
34	59	1
73	75	1
26	26	7
64	64	7
12	111	1
18	20	1
110	126	1
23	24	1
25	25	2
104	108	1
86	108	2
129	130	1
16	20	2
8	10	4
74	113	1
101	102	3
98	107	2
58	69	1
48	48	4
75	119	1
14	20	1
86	106	1
121	121	5
59	59	7
133	133	3
77	107	1
13	14	1
113	117	1
62	72	1
99	100	2
127	128	4
115	116	2
94	97	1
117	117	5
84	84	2
40	41	2
1	1	2
92	108	1
62	67	1
65	66	2
76	86	1
66	74	1
104	129	2
70	70	5
73	73	8
79	80	1
90	90	4
86	87	3
88	94	2
123	130	1
17	23	1
2	2	4
13	13	6
111	123	1
6	22	1
98	98	5
20	20	3
50	50	1
105	105	4
14	14	3
14	22	2
35	35	3
21	33	1
90	124	2
6	11	2
109	109	3
76	76	4
72	73	1
94	102	1
11	13	1
64	68	1
56	58	3
80	84	1
29	34	1
73	83	1
19	19	4
75	76	2
80	85	1
10	10	3
108	113	1
131	132	1
106	106	1
91	92	1
82	96	2
95	118	1
87	94	1
42	43	1
4	28	1
36	48	2
58	85	1
38	38	5
93	97	1
24	33	1
33	34	1
83	84	2
96	102	2
6	16	3
83	83	3
82	87	2
97	99	1
58	58	3
13	42	2
64	84	1
4	4	4
66	67	1
82	85	1
12	17	1
94	98	1
87	87	3
28	32	2
37	37	2
15	35	1
112	113	1
19	22	1
70	71	1
8	16	2
9	10	2
27	27	2
93	107	1
76	93	1
61	63	1
11	75	1
74	75	1
65	69	1
103	105	2
111	112	1
116	128	1
102	120	1
85	86	2
55	57	2
81	90	1
38	60	1
76	77	1
107	121	1
94	95	1
24	25	2
45	46	2
69	70	2
80	81	1
100	101	2
68	79	1
2	39	1
109	116	1
63	91	1
111	115	1
62	64	1
81	81	1
118	119	1
56	78	1
115	121	1
66	77	1
10	116	1
5	124	1
57	82	1
115	123	1
17	70	1
68	93	1
113	128	1
77	91	1
117	130	1
103	128	1
15	17	1
19	21	1
34	63	1
77	82	1
116	118	1
121	122	1
85	107	1
94	120	1
60	118	1
122	123	1
67	71	2
62	65	1
74	94	1
114	116	1
100	133	1
127	127	3
20	36	1
80	82	1
9	19	1
34	117	1
85	126	1
82	83	1
11	78	1
118	123	1
32	45	1
18	19	2
106	126	1
63	65	1
79	129	1
7	8	1
40	43	1
84	85	1
75	120	1
36	82	1
43	48	1
97	104	1
61	68	1
77	100	1
129	132	1
117	119	1
57	76	1
88	89	2
41	42	1
108	110	1
8	11	1
87	90	1
118	120	1
32	40	1
41	41	1
95	102	1
19	20	1
90	110	1
56	59	1
114	115	1
94	130	1
26	27	1
7	34	1
60	61	1
24	26	1
60	85	1
11	17	1
12	121	1
28	28	1
3	72	1
19	23	1
58	60	1
19	56	1
31	32	1
11	34	1
116	126	1
114	114	1
2	45	1
5	36	1
34	82	1
82	88	1
90	111	1
100	104	1
75	95	1
58	62	1
17	26	1
