176	176	5
9	17	1
189	196	1
187	201	1
96	120	1
170	170	7
151	156	1
114	118	1
10	204	3
14	56	1
37	37	8
86	96	1
101	101	11
146	146	9
221	222	1
72	72	7
105	106	2
64	66	3
73	73	6
208	209	2
21	21	3
4	4	6
0	0	5
8	8	7
74	75	3
155	156	3
149	149	6
29	29	10
227	227	9
21	47	2
16	16	2
58	106	1
191	209	2
57	57	4
172	172	9
41	82	1
25	47	2
218	219	2
142	144	1
208	208	4
61	97	1
171	173	2
171	172	2
200	200	2
180	180	3
208	219	2
71	72	2
182	182	6
114	114	4
127	128	2
107	109	3
9	9	6
39	39	7
74	74	9
27	27	4
124	125	2
30	30	8
227	228	2
216	216	3
178	179	5
85	85	3
51	59	1
197	197	5
55	62	1
16	17	4
76	76	2
113	113	3
125	125	5
223	223	7
143	179	1
165	165	1
138	144	1
32	70	1
117	117	3
182	183	3
62	63	1
221	221	2
159	170	1
48	55	3
83	84	2
43	44	3
201	208	1
128	136	1
192	192	3
58	59	1
9	33	1
14	15	1
134	134	4
2	5	1
16	24	2
84	84	4
1	204	1
152	161	1
17	18	2
207	207	4
77	79	1
43	43	7
54	54	2
97	97	2
124	124	3
118	144	1
49	50	2
116	120	1
121	121	6
142	142	2
13	50	1
158	158	9
79	80	1
49	49	2
136	136	2
75	75	6
198	230	1
45	45	3
181	181	4
62	64	1
238	238	4
10	10	8
53	71	1
10	25	1
52	53	2
191	191	3
237	237	2
214	214	4
106	106	3
167	167	3
76	80	1
12	58	1
185	185	3
143	168	1
24	191	1
163	163	5
209	209	1
114	116	2
141	141	6
214	224	1
115	116	2
119	135	1
161	176	1
10	27	1
42	42	3
7	8	2
184	186	2
85	86	2
218	218	4
58	58	4
50	51	1
21	23	2
48	48	5
60	62	4
174	174	7
154	154	4
47	47	6
188	188	3
12	21	1
66	78	1
129	129	8
65	68	2
186	186	7
133	133	3
126	131	1
68	78	2
205	220	1
199	200	3
2	6	1
66	66	6
18	51	1
219	219	5
194	195	1
49	56	1
38	38	7
70	71	2
160	160	5
123	166	1
187	188	6
70	85	1
53	58	2
95	98	1
38	55	1
2	2	3
225	227	2
171	171	6
7	7	4
103	111	1
119	142	2
183	185	1
203	203	1
100	100	4
115	115	1
112	112	1
52	58	1
177	177	4
175	175	4
82	82	1
38	40	1
53	53	4
179	179	3
140	141	2
234	236	2
17	17	4
130	130	2
153	159	1
161	162	2
126	140	1
12	19	1
120	136	1
17	35	1
65	100	1
164	165	1
125	127	1
1	2	2
20	21	3
239	239	4
95	95	3
13	13	3
123	124	1
150	151	3
226	229	1
179	217	2
2	3	2
225	239	1
199	199	3
6	6	3
204	204	2
229	229	2
108	108	6
20	20	5
98	98	4
151	151	8
16	23	2
152	152	7
152	177	1
198	198	2
3	223	1
97	220	1
57	60	1
199	209	1
150	150	6
2	57	1
187	187	3
138	138	2
113	119	1
122	122	5
145	146	1
11	11	6
4	9	2
38	39	5
95	97	1
195	195	5
206	206	2
99	99	3
100	101	2
158	159	2
128	130	1
152	153	1
60	60	5
71	176	2
1	1	2
168	168	8
121	145	1
171	178	1
135	137	1
157	158	1
80	85	1
63	81	2
69	69	3
147	147	5
81	82	1
46	46	7
42	44	1
160	161	1
144	144	6
153	184	1
197	200	1
25	25	7
40	41	2
26	28	3
201	201	10
158	166	1
26	27	3
226	227	1
200	201	2
68	68	3
113	120	1
197	199	1
193	193	2
152	159	2
71	71	5
15	15	4
179	180	2
111	112	2
27	28	2
148	152	2
153	153	5
109	109	5
162	162	4
31	31	1
145	176	1
155	155	3
161	186	1
23	24	1
161	161	2
147	148	1
3	3	1
22	22	2
109	110	1
199	204	1
163	165	1
89	89	1
36	48	1
139	140	1
45	47	2
21	55	1
148	148	4
64	79	1
69	88	1
1	3	1
28	28	2
234	234	2
45	46	2
228	236	1
33	233	1
129	173	1
196	209	1
128	129	1
35	35	3
28	30	1
157	198	1
217	217	3
30	86	1
160	178	1
176	188	1
67	67	7
123	125	1
102	102	2
33	73	1
17	22	1
18	20	1
235	235	1
156	157	2
163	164	1
141	142	1
166	174	2
86	88	1
202	202	2
83	83	8
135	139	1
86	86	3
12	12	3
3	6	1
114	122	1
157	186	1
205	205	2
70	70	2
3	4	1
24	24	4
9	10	3
127	127	2
119	127	1
88	88	4
68	69	2
162	184	2
190	191	1
26	26	3
8	16	1
41	41	1
213	214	1
185	186	1
143	143	2
139	139	1
80	80	1
204	206	1
219	224	1
55	60	1
135	140	1
3	24	1
46	178	1
71	88	1
122	129	1
114	115	1
137	145	1
188	190	1
114	117	1
67	68	1
63	64	1
81	81	2
20	38	2
160	170	1
151	157	1
5	5	2
61	61	2
141	165	1
123	127	1
76	77	1
85	109	1
234	235	3
174	175	1
144	149	1
34	35	2
140	140	1
88	97	1
173	236	2
23	23	5
35	36	1
13	14	3
29	30	3
56	60	2
88	89	1
138	233	1
150	162	1
14	14	3
220	231	1
186	187	3
11	23	1
8	10	1
184	184	5
140	142	1
145	145	3
173	174	2
159	166	1
59	60	2
228	228	1
69	70	1
17	36	1
104	104	4
214	215	2
43	53	1
121	122	4
187	229	2
15	231	1
51	51	3
113	118	1
122	190	1
148	193	1
128	128	3
3	15	1
78	78	2
173	173	1
109	145	1
25	61	2
184	199	1
40	40	2
198	201	1
101	102	2
124	138	1
202	203	1
231	231	2
35	64	2
63	72	1
6	31	1
178	178	4
211	212	2
10	11	1
143	144	1
111	237	1
150	191	1
105	105	1
23	38	1
15	16	2
119	119	3
44	44	2
32	32	2
236	236	2
170	171	2
166	184	1
196	207	1
210	210	1
134	170	1
103	103	3
142	145	1
159	159	1
232	232	3
56	57	3
130	175	1
126	126	1
241	241	2
201	231	1
96	97	1
79	79	2
228	230	3
31	63	1
230	230	3
5	6	1
46	52	1
73	203	1
125	165	1
148	157	3
170	218	2
113	114	1
135	135	1
204	205	1
67	84	1
23	62	1
27	65	1
150	161	1
53	55	1
35	84	1
32	217	1
71	149	1
20	24	1
212	223	1
196	196	1
113	135	1
42	63	1
130	173	1
84	205	1
224	224	1
126	127	3
157	157	4
156	164	1
177	179	1
141	144	1
3	8	1
164	171	1
72	149	1
177	178	1
152	173	1
220	220	1
194	194	3
114	137	1
185	188	1
105	129	1
50	50	2
137	137	1
75	236	1
236	237	1
47	113	1
131	131	1
150	152	1
57	76	1
17	39	1
29	32	1
210	211	1
18	18	1
152	155	1
107	123	1
151	162	1
2	9	1
164	164	1
28	29	1
149	150	2
158	191	2
204	217	1
37	54	1
4	56	1
242	242	2
58	73	1
102	104	2
108	109	1
97	135	1
173	204	1
74	132	1
215	215	1
0	1	1
229	230	1
67	69	1
110	110	2
15	23	1
32	33	1
203	204	1
116	119	2
118	183	1
156	156	1
64	64	2
18	19	1
8	49	1
131	154	1
233	233	1
51	52	1
36	36	2
9	36	1
111	111	1
149	175	1
32	175	1
91	91	1
116	116	1
19	180	1
225	230	1
55	55	1
102	109	1
171	207	1
84	85	1
231	232	1
115	144	1
231	236	1
175	176	1
236	239	1
60	78	1
198	225	1
207	208	1
123	190	1
173	176	2
10	31	1
133	134	1
225	234	1
12	13	1
222	223	1
59	59	1
151	153	1
34	34	1
119	130	1
64	95	1
105	117	1
56	56	2
144	145	1
219	232	1
131	134	1
107	107	2
164	166	1
240	240	1
60	103	1
223	239	1
190	190	3
19	19	1
19	22	1
214	220	1
6	8	1
232	233	1
20	32	1
19	58	1
41	42	1
78	79	1
125	126	1
166	167	1
27	96	1
69	100	1
59	65	1
37	38	1
96	96	1
34	41	1
112	113	1
52	57	1
132	133	1
16	31	1
142	143	1
166	166	1
143	146	1
19	27	1
154	155	1
170	172	1
6	40	1
76	229	1
100	236	1
122	136	1
143	175	1
37	126	1
154	157	1
142	155	1
153	158	1
184	185	1
28	102	1
100	130	1
20	56	1
122	127	1
183	183	1
112	174	1
62	62	3
99	100	1
20	23	1
179	183	1
201	206	1
118	118	1
21	48	1
123	123	1
36	37	1
63	233	1
169	173	1
114	123	1
120	120	1
13	21	1
41	43	1
151	164	1
