55	59	3
69	69	4
72	72	4
62	63	2
109	109	1
58	58	1
17	22	1
117	117	2
62	62	4
8	8	1
96	96	3
121	121	6
22	22	9
91	91	2
22	33	1
48	48	1
53	60	1
53	54	1
95	95	1
81	82	1
32	32	4
88	88	3
88	93	2
15	17	1
131	131	2
85	107	1
15	15	2
43	43	5
52	52	6
91	93	1
126	126	3
36	37	2
52	53	1
1	1	4
34	34	6
25	26	1
20	20	5
92	93	1
112	112	5
101	101	2
132	133	2
97	98	1
64	65	1
62	78	1
21	36	2
36	36	1
33	50	1
3	4	1
28	28	2
56	59	1
3	3	5
16	16	2
13	13	6
45	45	2
14	14	2
82	82	4
79	79	3
61	62	1
45	47	1
52	56	2
114	114	1
9	9	2
83	83	1
75	75	3
61	72	1
86	87	3
18	18	2
26	26	2
90	90	3
0	1	2
80	95	1
109	110	1
32	33	1
2	2	3
56	83	1
53	57	1
63	63	2
125	126	1
71	71	3
6	6	4
18	20	2
12	12	3
46	125	1
106	107	1
4	4	2
133	133	3
118	118	2
23	23	5
26	27	1
104	104	6
11	11	2
66	69	1
106	106	3
21	21	2
93	96	1
108	111	1
94	94	1
113	113	1
98	98	1
43	44	2
25	25	4
29	29	2
68	68	2
108	112	1
19	36	2
17	18	2
105	105	1
108	108	1
43	93	1
87	87	2
81	112	1
127	128	1
66	66	1
119	119	1
30	31	1
135	135	2
77	79	1
134	134	2
116	116	2
10	11	1
11	23	1
1	3	1
77	77	7
69	70	1
70	71	1
77	106	1
45	50	1
92	92	3
64	64	2
116	117	1
80	80	1
27	34	1
82	84	1
89	90	1
28	29	1
115	116	1
89	92	1
5	32	1
23	24	2
100	100	2
50	50	2
26	35	1
112	118	1
16	50	1
63	76	1
17	17	1
77	78	1
11	22	1
97	135	1
7	7	2
19	19	1
5	6	1
42	43	1
76	76	2
47	47	2
93	94	1
24	24	1
10	10	2
62	85	1
60	60	1
58	60	1
56	56	1
78	78	2
132	132	2
96	97	1
99	99	1
33	33	2
27	27	1
1	2	1
89	89	1
46	46	1
65	65	1
129	130	1
35	127	1
11	16	1
65	68	1
102	102	1
128	128	2
97	97	2
55	60	1
49	49	1
3	102	1
44	44	1
115	115	1
35	45	1
30	30	1
74	74	1
35	38	1
13	15	1
35	35	1
131	133	1
102	103	1
85	85	1
129	129	1
23	35	1
38	69	1
66	68	1
