57	58	1
25	25	3
55	55	2
63	64	2
148	148	3
39	39	5
130	130	3
65	65	2
27	188	1
132	132	1
123	123	2
13	44	1
90	90	8
23	25	1
58	59	4
120	121	1
23	35	1
158	158	2
20	20	1
160	184	1
71	72	1
36	36	2
167	168	1
126	141	2
59	59	1
47	47	2
16	18	1
61	64	1
42	47	1
14	14	2
152	153	2
177	190	2
147	154	1
75	75	1
8	8	4
169	177	1
57	57	2
37	37	4
82	82	4
79	82	1
167	189	1
139	140	4
137	137	2
119	119	3
112	112	1
134	137	1
147	147	6
170	170	4
91	93	1
78	78	8
22	22	2
5	5	5
73	73	5
109	110	1
29	31	2
153	153	5
107	107	1
87	87	3
89	100	1
47	48	4
76	77	5
144	145	2
159	159	3
126	127	3
187	187	3
18	18	5
41	42	1
110	110	5
13	13	1
4	74	1
177	177	2
96	98	3
43	43	1
108	159	1
137	138	1
171	172	3
142	147	1
95	95	4
139	139	4
163	163	2
120	132	1
61	61	3
43	44	1
95	96	3
104	104	4
166	166	2
99	99	4
2	79	1
0	19	1
168	168	5
130	137	1
14	15	1
92	92	1
106	106	4
80	80	4
106	154	1
68	73	1
94	109	1
80	81	4
127	127	2
12	12	7
83	88	1
172	172	2
174	186	2
68	89	1
19	20	3
143	145	3
153	184	1
90	94	1
150	150	3
62	62	3
81	81	2
136	138	2
46	46	4
17	17	6
117	118	3
123	164	1
173	189	1
139	141	1
186	186	2
108	108	1
169	169	4
88	103	1
48	48	4
157	157	3
129	129	3
189	189	2
38	38	4
135	135	5
133	133	1
180	181	2
149	151	1
10	10	3
23	23	4
156	159	1
109	109	5
152	152	4
58	58	2
124	124	4
36	37	1
104	148	1
2	2	7
134	134	2
102	103	1
126	126	3
130	131	2
173	173	3
127	128	2
184	184	4
174	175	2
95	175	2
179	179	3
136	141	1
71	89	1
52	53	1
159	165	1
122	123	1
86	86	2
113	113	2
155	170	1
122	122	1
166	178	1
183	184	1
110	120	1
114	124	2
90	151	1
127	155	1
119	120	2
114	114	3
155	155	4
143	143	5
49	49	3
56	87	1
72	104	1
112	155	1
4	4	3
169	170	1
190	190	3
74	77	1
76	76	5
105	105	2
65	66	1
84	85	2
117	117	2
22	23	2
20	33	1
111	112	1
185	185	2
144	144	6
41	41	2
85	86	1
134	135	1
53	53	1
62	65	1
6	6	7
71	71	4
157	158	2
68	84	1
85	85	4
125	125	1
116	125	1
100	100	4
96	96	2
145	146	1
172	189	1
156	158	1
1	1	2
91	94	2
68	68	1
17	18	1
40	40	4
83	83	2
76	78	1
85	89	1
109	125	1
2	6	1
178	180	1
3	3	2
72	72	2
33	33	1
95	100	1
98	98	3
174	174	4
154	154	2
15	15	5
134	141	1
161	161	1
56	56	1
137	156	1
78	80	1
151	152	1
175	186	1
159	178	1
63	63	2
20	40	2
88	89	2
15	155	1
183	183	3
172	173	2
127	158	1
181	183	1
65	97	1
127	139	1
177	183	1
138	164	1
7	8	1
182	182	1
94	94	2
104	110	1
136	149	1
62	67	1
72	73	1
45	46	3
177	181	1
154	155	2
13	14	1
146	148	1
159	160	1
104	112	1
54	54	1
180	180	1
160	160	2
188	188	1
148	151	1
16	53	1
149	150	4
102	102	1
2	76	1
138	148	1
83	84	1
27	31	1
144	175	1
154	167	1
102	106	2
141	143	1
122	126	1
68	69	1
178	178	1
122	128	1
138	138	1
153	154	1
128	128	1
187	188	1
10	11	1
97	116	2
106	111	1
103	103	2
52	52	1
7	75	1
171	173	2
60	60	2
97	97	2
11	11	4
93	94	1
145	147	1
16	16	3
10	16	1
145	145	1
11	12	3
89	90	1
109	126	1
174	187	1
23	39	1
129	130	2
70	71	1
162	163	1
0	2	1
108	109	1
139	154	1
124	125	1
64	64	1
114	117	1
120	145	1
185	186	1
149	167	1
104	111	1
181	181	2
59	60	1
85	88	1
74	74	2
115	118	1
70	70	1
48	54	1
175	175	2
0	0	3
90	91	1
61	62	1
135	136	1
54	70	1
58	68	1
55	56	1
93	93	2
24	25	2
185	187	1
181	182	4
106	142	1
94	95	1
142	142	3
37	38	1
18	20	1
4	5	2
26	26	1
84	84	3
88	88	2
19	19	1
79	79	1
120	120	1
176	176	1
53	54	1
156	156	4
84	95	1
136	136	2
114	129	1
164	166	1
89	89	2
164	167	1
40	41	1
149	149	1
60	61	1
183	185	1
141	142	1
143	144	1
136	177	1
182	184	1
75	76	1
14	16	1
99	100	1
164	164	2
115	115	1
118	118	1
189	190	1
135	138	1
173	175	1
40	80	1
28	29	1
140	166	1
169	183	1
81	82	1
140	140	1
16	47	1
91	91	1
21	21	1
128	129	1
113	127	1
187	189	1
154	187	1
177	187	1
164	165	1
17	39	1
18	45	1
160	164	1
114	163	1
140	141	1
39	123	1
140	146	1
93	95	1
130	132	1
78	128	1
99	125	1
12	19	1
