33	33	5
108	108	2
76	79	2
42	42	3
135	153	2
103	103	5
104	105	2
124	124	7
96	96	5
72	72	4
95	95	3
81	83	1
82	83	2
108	109	2
87	87	3
139	139	7
128	139	1
116	116	7
4	4	5
28	28	3
118	120	2
128	128	8
92	92	5
82	82	3
64	66	3
131	133	4
157	158	1
88	89	3
90	91	6
27	27	2
85	86	3
87	90	1
92	111	1
151	151	9
156	158	2
7	7	3
48	48	1
6	6	4
148	148	2
136	136	6
116	146	1
113	114	1
155	157	2
100	100	8
101	101	7
49	52	1
127	134	1
12	14	1
1	1	5
5	5	7
106	107	1
8	9	3
83	85	1
47	51	1
106	106	7
33	34	1
131	131	2
97	97	3
16	16	3
135	136	4
101	106	1
81	86	2
3	3	7
30	30	5
90	90	4
37	37	5
68	68	3
102	102	2
70	154	1
105	105	6
25	106	3
124	125	6
107	107	4
51	55	1
111	111	6
89	89	3
19	19	4
126	127	2
54	56	2
52	53	2
127	127	13
89	144	2
111	112	3
138	138	5
117	117	6
135	139	1
155	155	6
88	88	2
94	94	4
121	137	2
107	110	2
18	18	1
114	115	4
51	51	2
112	112	5
77	86	1
40	40	6
152	153	1
141	141	8
66	66	5
126	126	4
26	26	4
57	57	3
64	64	2
70	70	4
78	78	2
81	81	8
107	129	1
115	115	4
9	9	2
147	147	3
120	120	3
83	83	2
67	68	2
41	95	1
103	104	1
12	13	2
8	8	2
30	31	1
25	25	7
112	113	5
119	120	2
29	91	1
73	73	6
21	46	2
65	129	1
104	104	2
98	99	2
53	53	1
17	22	1
129	129	2
146	147	1
13	13	3
36	38	1
36	36	7
137	137	8
80	85	1
102	148	1
2	2	9
133	133	4
44	44	4
143	143	3
107	108	2
77	77	5
98	124	1
142	142	3
89	90	1
91	91	3
114	114	4
131	134	1
67	67	2
144	144	5
144	145	2
120	131	2
146	146	4
79	79	1
21	95	1
140	140	5
55	55	3
4	108	2
125	126	2
7	10	1
39	39	1
158	158	8
18	20	1
93	93	2
73	74	3
147	148	2
78	79	1
13	14	1
67	130	1
38	38	4
18	19	1
77	78	1
21	21	4
156	156	6
144	147	1
99	99	1
30	37	1
141	142	3
26	27	3
98	98	3
112	117	2
121	121	3
56	56	3
9	11	1
71	71	4
117	119	1
150	150	4
132	132	5
150	159	2
155	156	1
125	125	4
115	147	1
34	35	1
62	62	5
45	50	1
149	150	2
113	113	3
75	75	3
63	116	2
42	45	1
11	17	1
131	154	2
29	50	3
127	128	1
25	142	1
83	84	2
15	15	3
65	65	1
112	116	1
145	145	1
97	98	3
117	122	1
154	154	2
11	11	2
70	92	1
78	80	2
99	150	2
124	126	1
117	120	1
148	150	1
113	115	2
123	123	3
153	153	2
43	43	4
44	64	1
116	123	2
14	15	2
31	36	1
3	23	1
120	132	2
71	103	1
24	24	6
50	101	2
130	130	1
53	54	2
47	47	1
62	63	1
112	115	1
54	54	1
133	134	2
130	131	2
121	145	3
46	46	1
9	115	2
0	0	2
92	93	3
45	45	3
20	20	3
34	34	2
157	157	3
80	80	1
29	30	1
133	138	1
24	25	3
108	111	2
154	156	1
150	151	1
29	29	1
135	135	1
93	105	1
137	143	1
28	29	1
72	73	1
2	3	3
109	110	1
12	12	4
124	147	1
131	155	1
78	89	1
21	91	1
71	72	1
10	148	2
3	155	2
37	119	1
92	105	1
79	80	1
33	37	1
136	138	1
122	122	2
84	84	2
132	154	1
77	84	1
38	39	1
76	76	2
48	49	1
109	109	1
85	133	2
7	8	2
110	110	3
68	70	2
105	106	3
93	94	1
76	105	1
68	71	2
21	22	1
158	159	1
66	71	1
9	10	1
28	132	1
67	69	2
25	29	2
82	84	1
52	54	2
32	32	2
31	31	1
37	48	1
144	146	1
24	28	1
86	90	1
152	152	1
37	40	1
39	40	1
140	141	1
75	76	1
122	123	1
16	25	1
119	119	1
101	102	1
148	149	2
138	139	1
77	135	2
40	41	2
156	157	1
51	54	1
5	7	2
115	117	1
88	90	1
134	134	1
105	116	1
131	132	1
100	101	3
40	42	1
86	87	1
63	63	2
95	96	1
41	41	1
66	98	1
126	155	1
129	156	1
10	10	1
105	148	1
121	122	1
131	146	1
35	36	1
121	123	1
98	107	1
49	49	2
61	113	1
82	86	1
92	124	1
124	127	1
105	111	1
22	22	1
113	119	2
1	2	1
118	118	1
132	142	1
32	33	1
139	140	1
32	128	1
98	129	1
134	146	2
86	88	1
108	110	1
109	122	1
71	120	1
