78	94	2
46	46	1
105	111	1
16	17	1
119	119	6
90	90	5
86	86	8
78	78	2
23	26	1
65	65	5
100	100	5
113	113	5
134	134	2
102	102	1
61	62	4
2	12	1
11	11	4
9	36	1
126	126	2
111	112	1
21	21	5
12	47	1
89	102	1
19	19	4
129	129	2
73	73	3
11	12	2
80	107	1
25	25	1
109	109	2
37	37	2
5	6	2
59	59	4
36	42	2
40	50	1
15	15	2
116	126	3
99	99	2
125	125	4
118	118	5
19	94	1
85	85	3
2	2	2
32	32	2
27	28	2
122	128	1
21	24	1
103	103	1
68	69	1
63	63	4
72	72	3
127	127	1
76	76	4
7	10	2
8	8	2
6	97	1
42	43	2
107	107	2
109	122	1
106	106	3
133	133	5
10	11	1
66	66	6
45	47	2
82	82	1
43	44	1
4	11	1
60	60	2
3	3	2
4	46	1
40	40	2
22	22	2
14	48	2
68	68	7
64	64	6
112	112	2
102	108	1
12	12	2
56	103	1
58	58	1
22	25	2
97	99	1
96	100	1
49	49	1
33	33	4
4	4	1
44	44	8
115	115	2
6	6	3
88	92	1
120	120	3
77	77	3
108	123	1
44	45	2
97	98	1
122	124	1
34	34	2
10	10	3
130	131	1
128	128	2
116	129	1
70	70	3
31	32	1
9	9	2
122	122	2
85	100	2
18	18	1
111	111	5
98	98	4
108	108	1
61	61	6
94	96	1
45	45	4
4	5	2
56	60	1
130	130	1
4	90	1
13	13	3
93	93	4
46	47	1
121	121	2
97	128	1
102	132	1
91	91	2
123	124	2
115	116	1
27	35	1
41	42	1
65	66	1
26	31	1
2	3	1
117	117	4
102	105	2
92	92	2
71	71	2
9	10	1
69	69	4
30	30	2
35	38	1
56	58	1
78	95	2
27	27	2
5	11	1
0	0	2
25	26	1
24	24	1
101	133	1
47	59	1
125	126	1
84	87	1
112	134	1
72	76	1
114	115	1
18	24	1
89	91	2
71	72	1
119	132	2
83	131	1
36	36	1
56	57	1
16	74	1
122	125	1
75	75	3
12	14	2
68	73	1
57	107	1
122	123	1
110	110	2
62	63	2
121	122	1
97	97	1
128	129	1
15	16	1
74	75	1
82	110	1
59	95	1
84	84	1
87	88	1
123	134	2
116	116	4
123	123	1
113	116	1
88	88	1
38	38	1
20	20	1
20	31	1
80	80	1
87	87	1
59	60	1
9	34	2
26	30	1
69	70	1
119	125	1
37	38	1
132	132	2
4	10	1
34	133	1
124	125	2
38	39	2
124	124	1
3	124	1
6	18	2
83	93	1
110	111	2
97	100	1
57	57	1
13	16	1
68	117	1
102	103	1
26	26	2
86	87	1
75	112	1
5	5	3
96	96	2
24	31	1
62	62	1
2	47	1
9	17	2
73	74	1
26	27	2
1	1	1
94	95	1
14	14	1
56	56	1
93	105	1
37	39	1
30	31	1
84	85	2
47	48	1
114	116	1
21	36	1
91	92	1
17	17	1
93	107	1
35	35	1
66	67	1
64	65	1
34	46	1
12	18	1
