98	98	5
225	225	6
209	209	5
28	29	2
178	208	1
185	185	3
206	207	2
240	242	1
76	77	5
114	115	2
242	242	4
232	232	4
115	115	5
214	222	1
49	49	8
4	4	5
217	217	4
183	183	8
55	55	4
165	165	6
110	111	3
38	38	7
118	118	4
74	75	1
224	224	5
86	86	3
243	243	3
212	212	3
109	109	9
150	161	2
222	222	5
16	17	1
43	43	2
247	247	5
59	59	3
45	110	1
97	99	2
92	93	1
104	104	1
93	93	2
181	186	1
77	78	1
12	12	3
218	220	1
217	224	1
219	219	5
20	20	4
216	216	6
116	117	1
90	90	9
186	186	4
52	52	9
210	210	5
43	44	2
205	205	3
189	189	4
58	58	5
35	35	4
158	158	5
199	199	6
182	184	1
146	146	3
222	224	1
170	171	2
186	191	1
194	194	1
49	50	1
32	32	4
100	100	3
47	47	5
46	68	1
173	214	1
47	48	2
187	190	1
234	234	2
239	239	6
221	222	2
71	76	1
84	84	2
56	56	3
57	57	3
78	80	1
15	15	3
89	89	5
26	26	7
40	40	5
27	27	3
60	222	1
149	150	1
53	53	7
80	82	1
14	14	7
0	1	1
97	97	2
68	68	3
108	108	7
39	39	6
21	21	3
218	219	2
80	216	1
109	222	1
193	193	5
155	155	5
8	201	1
194	195	3
191	191	1
42	42	7
114	114	5
216	217	5
167	168	2
61	108	1
159	159	7
196	197	2
82	83	2
235	236	2
34	34	4
26	160	1
18	18	4
105	105	2
194	196	1
80	86	1
111	111	4
79	80	1
86	87	4
11	11	7
118	119	6
5	10	1
220	220	7
172	172	4
83	83	2
214	214	7
162	167	1
197	216	1
51	51	5
4	5	4
181	181	3
53	54	2
22	40	1
177	179	1
114	116	2
156	156	6
203	203	5
105	107	1
31	35	1
92	92	2
163	164	3
230	245	1
197	204	1
163	163	8
22	22	3
89	90	1
192	192	3
31	31	2
174	174	1
240	240	7
10	10	5
91	91	1
33	33	1
177	177	6
79	79	1
45	45	5
6	25	1
221	221	1
50	58	1
78	79	2
195	196	2
89	97	1
198	236	2
226	230	1
78	78	3
166	169	1
98	105	1
19	19	5
168	168	1
170	178	1
165	168	1
2	2	3
81	81	2
49	51	1
34	40	1
215	215	4
41	41	10
98	99	3
211	211	5
235	235	5
21	24	1
6	6	3
180	181	1
30	30	6
218	218	4
46	46	4
233	233	4
77	225	1
176	224	1
117	117	3
240	247	1
82	82	4
115	116	1
161	167	1
76	76	2
72	73	1
111	113	1
37	43	2
192	193	3
196	196	3
178	178	2
248	248	3
117	118	4
69	69	6
208	209	2
228	228	1
28	28	5
230	233	1
169	169	1
214	233	1
204	204	3
5	5	2
245	245	2
72	173	1
164	172	1
200	200	3
55	61	2
62	84	1
176	195	2
19	24	1
167	167	4
171	171	2
186	188	1
48	61	1
67	67	3
25	26	1
25	46	3
199	220	1
186	190	1
20	21	2
207	207	4
197	197	8
238	238	7
152	152	1
187	187	2
103	103	2
36	36	7
154	154	4
199	215	3
190	190	4
238	239	1
187	189	3
176	176	1
18	19	4
106	106	3
16	16	7
65	65	5
23	23	6
184	184	6
173	174	1
81	82	1
14	17	1
48	48	3
174	183	1
236	236	1
202	203	3
119	119	3
96	96	1
187	194	1
42	44	1
160	160	4
219	236	1
196	198	2
221	223	2
150	150	8
71	71	1
37	37	4
203	207	1
160	166	1
7	7	4
179	197	1
153	154	2
165	178	1
218	224	1
84	101	1
219	220	2
70	93	1
30	31	1
189	190	1
208	208	6
173	201	2
108	109	2
164	164	4
224	225	1
223	229	1
202	231	1
240	243	1
87	87	2
244	245	2
57	98	1
110	110	4
114	117	1
65	71	1
13	15	1
50	50	4
26	29	1
226	227	2
45	113	1
145	145	1
101	101	1
171	197	2
151	151	3
198	199	2
36	157	1
239	240	1
8	53	1
103	107	1
48	74	1
185	192	1
52	53	1
51	52	4
37	38	1
163	165	1
31	36	1
62	66	1
204	205	2
3	3	2
195	198	2
231	233	2
15	16	1
209	210	1
65	205	1
36	44	1
61	75	1
241	242	3
43	45	1
112	112	3
165	176	2
202	202	2
47	51	1
75	76	5
61	69	1
171	172	1
54	55	1
170	170	5
63	63	2
185	187	2
188	190	1
6	10	2
180	200	1
174	175	2
61	190	2
26	96	1
162	162	1
14	15	1
65	109	2
12	17	1
59	60	1
231	231	3
32	33	1
85	86	1
74	225	1
34	219	1
26	28	2
66	71	1
174	197	2
66	66	2
1	1	2
62	81	3
9	9	1
232	241	1
24	24	1
202	204	1
178	179	1
230	246	1
94	94	1
230	230	9
150	151	1
232	233	4
113	113	7
8	8	3
104	105	1
47	57	1
16	27	1
171	178	1
209	211	1
243	244	2
151	160	1
56	72	1
205	212	1
100	102	1
173	207	1
34	35	2
25	33	1
200	210	1
159	164	1
107	120	1
62	64	1
193	194	3
9	10	1
227	227	4
215	216	1
17	17	2
13	14	1
64	65	1
180	180	2
195	208	1
25	25	4
50	51	2
240	241	3
112	114	3
27	31	1
212	233	1
29	64	1
38	205	1
104	113	2
109	118	1
220	240	1
186	193	1
77	88	1
172	178	1
95	97	1
100	101	1
201	202	1
246	247	1
206	210	1
26	32	1
190	221	1
23	203	1
75	75	1
200	201	1
61	62	1
45	149	1
165	166	1
85	88	1
62	63	2
66	67	2
189	194	1
195	195	2
155	160	2
96	97	1
201	201	5
159	160	1
44	110	1
28	48	1
57	59	1
10	53	1
239	241	1
70	70	2
116	116	2
48	50	1
189	192	1
172	179	1
155	156	1
200	214	1
95	98	2
237	237	1
241	243	1
60	60	1
223	224	2
40	202	1
220	222	1
62	62	1
91	92	1
236	237	3
214	215	1
47	203	1
110	112	1
246	246	3
157	157	2
186	208	1
74	76	1
60	61	1
73	73	1
207	208	1
29	29	2
59	181	1
78	81	1
107	107	3
60	74	1
61	68	2
151	156	1
215	239	1
171	201	2
36	38	1
72	74	2
199	247	1
192	194	1
152	153	1
199	209	1
198	198	2
42	147	1
26	46	1
212	234	1
249	249	1
179	186	1
46	223	1
198	213	1
76	225	1
77	77	1
72	72	1
181	185	1
52	246	1
176	178	1
68	78	1
87	94	1
3	4	1
38	39	1
226	226	2
13	22	1
31	42	1
188	188	2
88	88	2
26	27	1
144	206	1
160	180	1
77	81	1
182	182	1
47	58	1
154	155	1
190	191	3
120	120	1
112	113	1
76	78	1
71	72	1
244	244	1
155	161	1
179	179	2
168	169	1
91	111	1
145	180	1
211	222	1
170	172	2
7	53	1
78	177	1
15	17	1
14	37	1
56	85	1
85	89	1
12	205	1
106	107	2
114	228	1
204	212	1
99	99	1
55	207	1
150	158	1
75	89	1
163	232	1
228	229	1
146	211	1
67	184	1
166	168	1
56	65	1
180	214	1
58	65	1
93	100	1
169	173	1
222	223	1
74	74	1
1	88	1
8	36	1
10	12	1
162	163	1
69	71	1
110	117	1
229	229	1
46	54	1
82	89	1
60	62	1
2	3	1
11	18	1
211	233	2
156	160	1
200	215	1
15	54	1
95	95	1
166	184	1
71	73	1
173	173	1
87	88	1
203	231	1
105	106	1
144	144	1
8	9	1
84	86	1
85	98	1
153	156	1
181	199	1
54	54	1
89	93	1
197	207	1
9	154	1
70	84	1
213	213	1
219	238	1
228	231	1
109	116	1
30	91	1
190	192	1
149	149	1
164	165	1
90	92	1
52	113	1
