78	79	4
83	83	3
76	82	1
31	31	1
115	115	3
2	3	1
8	8	1
22	23	1
46	46	1
39	56	1
113	114	4
1	1	3
0	0	1
126	126	5
13	22	1
26	26	5
125	125	3
81	81	2
67	83	1
5	5	2
0	2	1
91	115	1
49	49	2
132	132	4
100	100	2
57	57	4
130	130	3
72	73	1
107	108	2
2	2	4
104	104	5
29	29	4
12	18	2
96	98	2
28	96	1
97	98	1
77	78	2
55	55	1
71	71	2
129	129	5
19	19	3
68	71	1
16	16	3
15	15	3
38	39	1
43	44	1
28	29	3
50	50	1
87	87	3
72	72	4
48	48	3
25	27	2
67	68	2
52	52	7
0	1	2
99	99	3
30	30	4
113	113	1
45	45	1
108	108	3
104	113	1
131	131	2
9	9	2
90	101	1
108	109	1
96	96	3
68	68	5
116	116	1
89	89	2
51	51	3
17	18	1
66	67	2
112	112	4
123	123	3
25	25	3
67	69	1
101	101	1
19	44	1
28	28	2
84	84	1
81	82	2
93	121	1
66	66	2
127	127	3
10	13	1
107	107	2
33	33	1
120	122	1
69	69	1
104	105	1
48	49	3
93	93	3
6	6	2
59	99	1
105	105	5
101	124	1
45	46	2
65	65	1
51	62	1
94	100	1
120	120	5
119	119	4
75	75	2
3	3	4
59	59	2
58	59	2
7	7	1
10	11	1
73	73	2
12	32	1
60	62	1
73	74	1
89	96	1
23	25	1
79	80	1
11	116	1
21	21	1
90	103	1
58	74	2
81	88	1
88	88	2
91	91	2
78	78	2
22	22	1
84	85	2
77	90	1
53	54	1
124	124	4
13	47	2
88	91	1
15	16	1
121	121	2
26	27	1
117	117	2
90	90	1
45	66	1
106	107	2
80	81	1
86	93	1
86	86	2
63	63	2
64	64	1
50	96	1
92	95	1
24	24	1
25	26	2
53	53	3
42	71	1
27	27	2
113	120	1
120	132	1
72	90	1
1	3	1
47	47	2
17	73	1
76	125	1
114	114	3
132	133	1
70	70	2
97	97	1
58	78	1
95	95	2
14	19	1
38	44	2
81	89	1
39	39	1
110	110	1
75	76	2
56	56	1
25	104	1
122	122	1
118	118	3
94	99	1
117	118	2
30	34	1
40	84	1
45	47	1
38	38	1
19	88	1
46	81	1
85	87	1
124	125	1
61	62	1
133	133	1
58	64	1
89	91	1
102	102	1
43	74	1
98	98	2
71	72	1
48	68	1
27	28	2
116	117	1
2	19	2
106	113	1
93	112	1
106	106	1
76	76	1
94	94	2
89	92	1
61	61	2
57	58	1
126	133	1
17	17	1
96	97	1
62	63	1
119	120	1
80	80	2
105	106	1
90	102	1
24	25	1
73	86	1
53	92	1
13	13	1
59	74	1
10	15	1
64	74	1
92	92	1
85	85	1
22	112	1
77	77	1
60	60	1
116	119	1
78	84	1
8	9	1
