3	3	4
27	27	5
150	150	3
147	147	6
116	125	2
107	107	2
152	152	2
112	112	2
95	95	1
11	11	1
69	71	1
51	51	4
84	85	1
0	5	1
49	49	2
72	72	1
124	124	2
70	70	1
36	36	5
165	165	2
139	148	1
143	147	1
134	134	2
17	17	3
44	45	1
34	35	2
159	159	3
108	109	2
68	69	1
5	90	2
84	84	3
110	110	3
154	154	4
135	138	3
76	76	2
5	5	1
120	136	1
142	164	1
161	162	1
114	116	1
118	120	1
20	21	2
160	160	4
71	71	5
16	16	3
137	137	3
151	152	1
129	129	1
39	39	6
113	113	1
105	105	1
165	166	1
46	141	1
129	149	1
96	96	1
111	111	2
62	70	1
2	2	2
158	158	5
153	169	1
75	125	1
143	143	2
27	28	1
42	42	3
10	10	1
142	143	2
107	118	2
34	44	1
138	139	1
152	156	2
115	116	1
129	136	1
45	45	2
33	33	1
101	103	1
126	126	3
129	166	1
140	151	2
11	119	1
89	89	1
140	140	2
47	47	1
98	99	1
26	137	1
123	123	1
19	19	4
14	161	1
109	111	1
169	169	1
149	150	1
80	80	1
170	170	1
37	37	4
162	162	1
92	92	3
46	46	1
105	107	1
5	6	1
128	129	1
73	92	1
77	92	1
164	164	2
163	163	2
144	144	4
62	62	1
52	56	1
143	166	1
99	99	1
49	50	1
52	53	1
158	159	4
128	128	1
1	2	1
118	118	2
97	99	1
86	89	2
49	53	1
65	65	1
18	18	1
132	164	1
14	14	3
116	116	3
53	53	1
38	38	3
48	49	2
159	160	1
139	151	1
79	85	1
28	28	2
139	140	1
146	162	1
63	64	1
28	105	1
43	43	4
39	41	1
109	109	2
139	166	1
13	91	2
26	26	3
6	6	3
76	81	1
11	38	1
119	119	1
64	69	1
15	15	3
3	4	1
22	23	2
157	158	3
153	154	1
50	50	1
155	155	1
7	7	2
77	77	1
121	121	1
44	44	2
25	137	1
135	135	2
14	15	2
69	70	1
83	83	2
167	167	1
138	138	2
91	92	1
98	98	1
130	130	1
100	103	1
40	40	1
26	27	1
108	108	2
41	42	1
148	148	2
6	8	1
149	149	1
35	36	2
118	119	2
117	119	1
117	144	1
71	154	1
114	122	1
144	145	2
159	161	2
12	12	1
132	132	3
48	71	1
39	42	1
26	106	1
86	101	1
87	88	2
157	169	1
157	157	2
13	15	1
167	170	1
6	7	1
22	22	2
161	161	3
56	57	1
88	106	1
52	52	2
8	10	1
132	143	1
106	106	3
94	94	1
81	81	2
133	133	1
36	37	1
76	80	1
145	146	1
125	125	1
143	144	1
159	169	1
13	13	1
46	57	1
146	146	1
141	152	1
88	88	1
150	151	1
8	9	1
101	101	1
139	139	1
24	151	1
117	117	1
167	168	1
66	70	1
105	106	1
22	137	1
156	156	1
0	130	2
104	104	1
108	112	1
87	87	1
15	36	1
127	130	1
139	150	1
20	24	1
