164	164	2
79	79	5
159	159	7
186	186	9
79	80	2
142	142	5
71	71	3
23	24	2
169	171	1
36	36	3
69	69	1
141	141	3
68	71	1
180	181	2
153	155	2
37	37	7
2	4	1
15	15	8
21	29	1
166	168	1
122	128	1
170	170	5
92	93	3
144	144	3
148	154	1
70	70	5
57	58	2
141	154	1
140	140	8
173	174	2
7	7	4
48	48	2
59	59	2
122	122	5
158	170	2
160	160	3
78	81	1
46	47	3
38	40	2
11	26	1
168	169	3
99	100	1
156	156	4
168	168	12
96	97	4
17	17	2
171	181	1
114	117	1
76	82	1
174	181	1
3	3	4
152	156	1
55	55	4
73	73	2
47	47	3
79	103	1
109	126	1
55	56	2
84	88	1
25	26	3
24	26	1
136	136	4
39	39	4
46	46	7
123	124	3
178	178	10
150	150	2
65	65	3
64	64	3
183	183	2
11	12	3
151	169	2
20	20	3
10	15	1
124	125	2
96	121	1
38	38	2
162	163	1
151	151	6
11	11	4
120	120	3
1	1	4
67	68	4
78	79	1
189	189	3
122	123	3
26	37	2
134	134	5
97	101	1
82	82	4
150	168	1
100	128	2
131	131	3
115	116	2
188	188	8
127	127	1
171	172	3
7	12	1
60	60	2
12	37	1
173	188	1
99	99	3
136	137	1
179	188	1
171	171	1
155	155	5
62	62	2
24	30	2
57	80	1
14	14	6
101	101	3
128	154	1
143	143	3
130	130	3
138	138	4
17	24	1
158	160	2
114	115	2
110	112	4
19	36	1
187	187	2
101	106	1
91	92	1
166	166	2
34	34	4
147	147	2
52	53	3
139	142	1
8	8	2
15	31	2
63	68	1
91	91	3
119	119	2
161	163	1
158	158	6
96	104	1
94	97	3
40	41	1
45	45	8
119	125	1
154	154	8
58	58	3
18	18	3
30	31	1
126	126	5
73	74	1
120	125	2
57	57	2
67	67	6
3	4	3
98	120	1
6	15	1
104	104	2
115	115	2
44	44	7
152	152	7
6	21	1
148	148	5
91	96	2
73	76	1
57	79	1
98	109	2
137	137	4
118	122	1
94	95	3
114	114	2
133	164	2
5	16	4
87	87	4
72	72	9
86	87	1
105	110	2
128	128	4
128	164	4
0	79	1
176	187	1
22	22	4
182	182	4
133	133	1
90	95	1
7	9	1
90	93	1
185	185	6
143	145	2
167	188	1
2	80	1
98	98	2
152	181	2
92	95	1
98	101	1
88	88	8
77	77	5
188	190	2
89	133	1
159	160	4
27	37	1
128	134	1
24	25	3
17	18	3
129	129	6
73	108	1
61	65	1
71	80	2
92	92	4
93	94	3
90	92	3
127	129	1
94	94	6
27	27	4
28	130	2
19	27	1
56	56	2
112	135	2
2	2	7
41	41	1
4	10	1
90	90	2
121	121	6
30	32	1
96	96	7
182	183	4
57	89	1
54	55	2
13	23	1
174	174	2
39	58	1
89	89	1
167	168	2
135	135	3
154	164	1
169	169	4
3	15	1
155	159	2
89	90	1
165	165	4
102	113	1
78	78	4
125	128	2
161	171	1
174	176	1
97	97	3
22	30	1
4	4	4
10	11	1
179	180	1
117	122	1
81	81	3
96	103	3
19	28	2
129	153	2
135	147	1
173	173	2
80	80	5
141	142	1
114	123	1
29	30	2
106	107	1
117	118	3
32	37	1
136	143	1
10	106	2
95	95	7
75	95	1
42	42	2
101	102	1
43	43	3
160	164	3
24	24	1
157	160	2
180	180	2
176	177	2
61	66	4
117	117	3
109	129	4
158	165	1
141	163	1
150	152	1
116	118	1
157	157	2
125	125	5
139	139	2
13	13	4
151	152	3
190	190	5
120	158	1
140	141	1
112	119	1
102	104	1
111	139	1
76	76	3
86	91	1
147	152	1
141	144	1
137	138	1
184	185	5
126	127	1
85	87	3
130	135	1
15	17	1
19	21	1
0	15	1
132	134	1
85	88	1
155	160	1
124	124	2
83	83	3
6	11	1
158	167	1
59	61	1
156	177	1
5	103	1
90	91	2
7	14	1
153	153	2
81	92	1
89	107	1
102	103	1
118	118	1
119	120	2
128	140	2
25	48	2
128	136	1
10	24	1
1	8	1
27	29	3
177	177	3
185	186	2
113	118	1
105	123	2
33	41	1
107	107	2
27	44	1
138	144	1
107	108	2
31	31	4
28	29	1
71	91	1
96	98	3
45	46	2
155	184	1
84	85	2
145	147	1
104	105	2
10	10	5
108	124	1
171	173	2
95	109	1
93	93	5
184	184	1
93	101	1
106	106	7
54	58	1
135	143	2
91	115	1
71	72	1
82	87	1
41	44	1
40	40	3
164	189	1
110	111	4
111	148	1
142	147	1
6	6	5
52	52	1
65	74	1
142	157	3
145	153	1
74	83	1
23	25	2
40	48	1
40	44	1
135	136	1
0	0	6
134	150	1
176	176	5
5	5	3
143	151	2
127	154	1
126	167	1
119	122	1
171	188	1
74	74	3
100	109	1
53	53	2
25	25	3
19	23	1
154	185	1
105	106	2
112	117	1
151	173	3
66	66	2
172	173	2
2	26	1
135	167	1
133	134	2
14	27	1
56	57	2
167	167	1
104	106	1
120	121	1
105	105	2
100	104	1
16	17	3
25	30	1
108	108	2
104	116	1
123	170	3
155	179	1
53	55	1
68	68	3
36	43	1
154	186	1
71	98	1
112	114	1
5	13	1
99	111	1
9	57	1
103	103	4
72	74	2
21	21	3
17	22	1
26	26	1
103	107	1
13	17	1
179	179	3
148	185	1
149	149	6
33	33	3
59	100	1
134	136	1
127	128	1
125	149	1
105	109	1
38	54	1
90	94	1
158	181	1
102	102	1
156	165	2
132	138	1
142	145	2
89	94	1
110	126	1
128	153	2
146	146	2
29	29	5
70	72	1
134	138	1
141	149	1
131	135	2
174	175	2
110	114	1
153	154	2
125	126	1
26	36	2
84	98	1
32	32	1
188	189	1
66	79	1
54	54	1
170	174	1
150	164	1
55	59	1
111	111	2
30	33	1
155	157	1
12	80	1
65	66	1
16	16	2
175	180	1
86	93	1
148	152	1
144	145	3
7	10	1
75	80	1
72	83	1
80	82	1
165	169	1
39	45	1
70	71	1
6	10	1
118	133	1
8	9	2
99	129	1
147	186	1
10	13	1
37	44	1
28	28	3
6	38	1
159	187	1
147	154	2
174	178	1
100	100	3
151	161	1
12	12	3
142	160	1
37	38	1
166	167	1
17	37	1
176	178	2
90	105	1
138	139	1
159	168	1
182	190	2
95	96	1
58	102	1
189	190	2
145	145	1
29	41	1
55	61	1
174	183	1
25	27	1
165	179	1
41	42	1
65	72	1
148	150	1
136	149	1
11	35	1
62	64	2
181	182	1
174	186	1
142	143	1
87	88	1
27	28	1
61	61	2
149	170	1
56	62	1
147	148	1
63	63	1
111	114	1
58	60	1
75	76	2
153	161	1
121	157	2
38	39	2
24	27	2
98	111	1
109	110	3
178	179	1
149	151	1
77	83	1
18	34	1
18	20	1
85	85	1
171	180	1
116	121	1
103	122	1
90	114	1
94	96	2
95	123	1
15	40	1
74	76	1
41	43	1
12	14	1
107	134	2
156	157	1
185	187	1
67	85	1
171	175	3
58	61	1
157	170	1
35	35	1
113	122	1
113	117	1
129	130	2
141	171	1
81	93	1
132	137	1
26	71	1
79	86	1
116	117	1
86	88	1
175	187	1
19	19	2
38	42	1
164	167	1
149	150	1
113	115	1
159	173	1
26	28	1
101	105	1
138	148	1
154	168	1
83	84	1
123	128	1
46	62	1
61	67	1
21	22	1
143	169	1
85	95	1
121	122	2
175	175	1
124	171	1
141	145	1
155	156	1
30	30	1
100	139	1
103	104	1
146	159	1
123	123	2
181	187	1
29	35	1
149	153	1
162	162	1
76	81	1
3	6	1
169	175	1
61	62	2
18	45	1
17	26	1
89	93	1
140	143	1
77	89	1
154	156	1
8	42	1
41	48	1
146	153	1
74	75	1
33	37	1
164	165	1
74	86	1
69	74	1
42	44	1
104	108	1
73	95	1
2	3	1
110	110	1
57	65	1
173	187	1
136	145	1
108	160	1
179	181	1
55	58	1
130	159	1
111	123	1
181	181	2
82	91	1
152	157	1
128	149	1
83	92	1
109	109	1
20	21	1
124	150	1
147	155	1
37	39	1
79	89	1
114	116	1
152	159	1
174	177	1
1	2	2
32	45	1
47	48	1
43	46	1
156	159	1
19	20	1
113	113	1
56	110	1
85	86	1
8	15	1
119	139	1
52	54	1
35	36	1
181	186	1
134	135	1
59	60	1
175	176	1
111	120	1
175	177	1
