33	36	1
57	63	1
108	129	2
84	148	1
171	172	3
96	96	4
110	110	5
33	33	2
37	37	1
21	21	3
9	9	2
7	7	5
32	36	2
12	12	2
76	77	1
107	109	1
151	151	5
68	96	1
123	135	1
45	45	2
119	127	2
184	184	1
152	152	3
144	183	2
13	13	1
32	32	1
159	159	1
103	105	1
140	140	2
139	139	3
171	171	2
177	177	3
65	86	1
92	92	2
13	40	1
170	183	1
131	132	1
122	122	1
109	141	2
109	111	1
117	117	4
53	73	1
116	116	1
15	15	1
153	154	2
3	3	3
151	170	1
114	114	2
141	141	2
185	185	4
116	117	1
121	169	2
86	86	1
150	150	1
18	20	1
71	72	1
79	154	2
89	90	3
74	75	2
105	106	1
29	32	1
28	31	1
108	109	2
20	36	1
6	7	1
181	182	2
57	57	3
169	169	1
154	154	5
13	14	1
92	93	1
27	27	2
74	74	2
81	81	1
78	82	2
182	182	3
76	103	1
119	119	4
146	146	1
27	28	1
76	76	2
155	156	2
78	79	1
64	83	1
102	102	1
149	149	1
47	47	1
66	66	3
41	41	1
48	48	1
123	124	1
145	145	1
19	36	1
66	95	1
187	187	3
89	92	1
55	57	2
166	169	3
156	165	1
87	87	3
103	103	2
53	66	2
131	136	1
116	118	1
136	137	2
183	184	1
128	144	3
188	190	2
86	87	4
111	111	1
18	18	3
128	129	2
14	14	1
77	77	1
19	19	2
126	126	3
95	104	2
87	92	1
123	123	3
64	65	1
155	158	1
143	143	2
138	138	1
84	85	3
12	13	1
31	32	2
121	121	3
95	111	1
2	3	1
54	85	1
174	174	1
93	93	1
79	79	3
89	141	2
67	67	1
126	131	1
96	121	1
3	49	1
187	188	1
169	170	1
179	182	1
124	124	2
33	34	1
70	72	2
145	171	1
96	103	1
81	82	1
103	127	1
1	57	1
40	40	2
113	137	2
53	54	1
28	34	1
125	125	1
32	35	1
113	113	1
178	178	2
38	39	1
72	72	1
19	22	2
136	138	1
23	35	1
63	65	1
0	34	1
130	130	1
54	55	1
89	119	1
95	141	1
78	78	1
99	99	1
108	115	1
70	70	1
135	155	1
84	118	1
89	89	1
170	170	1
2	2	1
80	82	1
135	137	1
17	17	1
12	15	1
147	183	1
26	26	1
86	134	1
190	190	1
26	32	1
19	23	1
175	175	1
25	25	1
5	6	1
56	56	1
185	186	1
187	190	1
134	136	1
8	8	1
76	91	1
70	104	1
35	36	1
130	135	2
134	134	2
176	176	1
0	0	1
127	128	2
88	90	1
109	109	1
57	154	1
81	114	1
55	55	1
98	98	1
170	174	1
24	47	1
155	159	1
74	122	1
30	32	1
17	34	1
26	27	1
119	159	1
162	162	1
112	112	1
58	63	1
88	88	2
189	189	1
131	131	1
61	65	1
167	167	1
95	147	1
183	183	1
77	78	1
131	137	1
90	90	1
155	155	1
188	188	1
156	157	1
