139	139	1
97	97	3
34	34	5
84	84	2
46	46	4
112	112	2
112	114	1
97	105	1
118	118	2
46	47	1
52	52	4
0	2	2
133	133	2
159	159	2
85	94	2
111	111	3
161	161	6
151	151	2
88	89	2
50	98	1
26	27	1
4	5	2
17	19	1
119	135	1
96	97	2
145	145	5
125	125	3
107	107	4
7	20	1
147	147	1
73	110	1
156	156	4
39	39	5
92	93	1
91	93	2
146	146	5
101	102	1
38	39	1
50	50	2
158	160	2
137	137	5
69	69	2
13	16	2
0	0	3
157	157	1
138	139	2
56	77	1
157	158	1
158	158	3
91	100	1
79	81	2
93	94	1
2	38	1
136	136	5
144	144	1
146	147	2
90	90	2
153	156	1
40	40	7
21	21	3
1	2	1
105	107	1
52	57	1
134	134	4
101	101	7
5	6	1
153	153	2
28	28	2
157	160	2
13	69	1
21	63	3
54	55	1
5	5	1
1	1	2
121	141	1
100	130	1
7	7	1
128	128	1
8	8	2
170	170	3
113	113	4
108	108	1
142	142	2
165	165	5
4	4	1
36	36	4
149	149	1
163	163	3
35	35	3
21	24	1
155	156	2
168	169	2
0	136	1
82	82	3
4	15	1
23	23	2
152	152	1
136	164	1
95	100	1
81	81	2
99	138	1
114	114	1
142	143	1
153	154	2
135	135	1
18	19	1
142	144	1
15	109	1
73	74	1
90	100	1
6	168	1
86	86	1
102	102	2
144	152	1
138	138	6
156	157	1
154	154	3
157	161	1
10	11	1
78	78	4
41	41	2
164	164	1
50	51	2
160	160	2
106	107	1
143	146	1
130	130	1
111	112	1
131	131	2
42	43	1
158	159	1
68	68	2
151	152	1
1	4	1
89	137	1
52	53	2
78	104	1
89	89	2
45	45	1
37	37	3
47	47	2
155	155	4
100	104	1
43	44	1
43	43	2
150	150	3
140	141	1
74	87	1
157	163	1
67	67	1
131	133	1
136	146	1
39	40	3
169	169	2
44	44	3
65	65	1
72	72	2
126	126	1
106	110	1
148	149	1
169	170	1
46	161	1
42	42	1
164	165	1
80	91	1
56	56	1
76	77	2
7	8	1
33	34	1
22	22	2
11	12	1
86	97	1
23	24	1
140	140	2
86	89	1
115	124	1
103	103	1
15	15	2
77	77	1
96	96	2
3	3	4
51	51	2
150	162	1
16	16	2
33	33	2
71	97	1
51	53	1
53	53	3
48	48	2
68	69	1
47	52	1
105	106	1
127	127	1
156	162	1
25	26	1
2	3	1
98	100	1
120	120	1
18	18	4
75	75	1
66	66	2
116	117	2
10	46	1
62	65	1
90	91	2
47	48	2
9	25	1
92	96	1
57	83	1
130	148	1
76	80	1
127	129	1
63	65	1
25	167	1
143	143	2
47	105	1
20	20	1
25	169	1
35	155	1
93	97	1
79	80	1
101	105	1
17	17	1
86	106	1
80	80	1
132	133	1
115	116	1
72	73	1
12	12	1
139	140	1
122	122	1
87	87	1
150	151	1
73	82	1
88	88	1
77	78	1
84	91	1
6	6	1
79	79	1
154	155	1
79	97	1
152	153	1
126	127	1
99	99	1
0	137	1
141	141	1
24	43	1
99	111	1
141	142	1
8	9	1
109	110	1
138	148	1
78	80	1
19	22	1
38	38	1
83	90	1
