26	26	1
10	10	5
134	136	1
77	77	2
126	126	1
53	54	1
120	121	1
11	12	3
6	6	3
164	164	6
117	117	1
87	87	5
100	109	1
25	25	1
129	129	2
68	68	1
130	131	4
184	184	1
90	100	1
13	13	4
80	80	2
48	48	3
147	147	2
82	83	1
136	137	1
124	124	2
190	190	5
89	89	4
187	187	1
27	29	2
57	89	2
183	184	2
174	174	4
170	177	1
176	176	2
182	182	4
79	80	1
47	47	1
55	56	1
82	82	3
22	23	2
158	158	1
67	67	1
171	171	1
56	57	1
0	0	3
155	155	5
169	169	4
175	175	2
79	79	2
0	1	1
84	84	6
144	144	2
76	76	3
186	187	2
12	12	2
178	181	1
5	5	3
18	18	2
113	113	3
131	131	1
139	187	1
90	99	1
43	43	1
132	132	2
73	73	2
120	120	3
155	156	1
62	62	3
81	82	1
122	124	1
109	109	3
28	32	1
6	7	1
159	159	1
170	174	1
83	83	1
145	145	1
113	139	1
60	60	1
78	79	1
140	141	1
186	186	3
179	179	1
163	163	1
131	145	1
79	124	1
188	189	1
57	75	1
59	59	1
97	97	1
98	100	2
42	57	1
148	168	2
45	46	4
118	137	1
91	91	1
38	38	2
111	111	1
110	110	1
85	86	4
37	37	1
31	33	1
52	53	1
3	3	1
7	7	3
86	87	2
27	27	2
147	167	1
94	94	1
177	177	1
102	102	2
100	100	1
167	167	1
134	134	1
76	77	1
90	90	1
154	154	1
41	41	2
15	15	1
56	56	1
74	75	2
142	143	1
90	151	1
96	97	2
4	4	1
63	64	2
7	16	1
138	138	1
58	86	1
41	42	1
16	17	2
103	107	1
171	178	1
125	127	1
52	52	1
47	72	1
160	188	1
122	122	1
36	46	1
59	60	1
112	112	2
126	127	1
164	165	2
24	24	2
11	11	1
184	186	2
26	27	1
1	1	1
33	34	1
104	104	1
169	170	1
38	39	2
164	182	1
68	106	1
129	130	1
153	154	1
122	146	1
148	150	1
152	152	3
64	68	1
76	123	1
185	186	1
173	174	1
86	184	2
47	91	1
128	128	1
55	166	1
47	48	1
53	53	1
40	40	3
95	95	1
127	127	2
85	142	1
100	123	1
178	179	2
172	172	1
108	131	1
103	103	3
107	108	2
78	78	1
87	119	1
18	19	1
130	130	1
112	122	1
38	64	1
8	8	1
97	118	1
153	184	1
30	81	1
86	86	1
39	39	1
86	100	1
140	155	1
124	125	1
147	170	1
66	66	1
110	111	1
127	139	1
6	39	1
116	117	1
108	132	1
75	75	1
10	23	1
139	139	1
101	102	1
168	168	1
55	55	1
122	123	1
44	44	1
166	166	1
114	114	1
74	74	1
40	54	1
108	124	1
107	107	1
91	92	1
99	99	1
137	137	1
