90	90	2
120	120	1
125	126	1
135	140	2
130	130	6
136	137	3
77	105	2
127	127	3
11	22	1
133	133	4
137	137	1
38	38	4
20	20	3
27	56	2
17	31	2
34	34	2
40	40	1
17	17	1
96	96	4
40	64	1
129	129	2
1	2	1
23	23	4
124	125	2
32	35	1
102	106	1
126	127	1
120	138	1
53	53	2
84	84	2
13	14	1
97	97	5
112	113	3
62	63	3
57	59	2
111	111	4
139	139	4
62	62	2
9	9	1
118	119	2
11	11	5
41	41	1
55	55	4
2	2	1
21	36	1
48	48	3
118	118	3
32	32	1
68	105	2
12	12	2
37	99	1
120	141	1
92	92	3
78	78	2
19	21	1
66	66	2
10	10	5
15	15	2
144	144	3
113	114	1
57	67	3
39	39	2
91	91	5
59	59	1
87	87	1
126	126	1
116	116	1
119	120	2
40	56	1
142	144	3
96	97	2
74	100	1
91	128	1
141	141	3
1	130	1
22	42	1
52	53	1
49	49	3
31	66	1
92	94	2
70	70	2
104	105	1
9	95	1
94	94	3
57	105	1
133	135	1
1	40	1
16	17	1
134	134	2
95	96	1
126	128	2
28	28	1
79	79	2
99	99	1
37	37	2
75	75	2
142	142	4
69	69	1
105	108	1
38	42	1
105	105	1
86	86	2
71	71	1
109	109	4
58	106	1
143	143	1
54	54	2
67	99	1
5	63	1
110	111	1
125	125	1
74	74	1
25	26	1
60	60	1
10	99	2
49	95	1
116	141	1
126	129	1
102	102	1
64	64	1
135	135	2
27	27	3
23	30	3
75	79	1
47	47	1
58	69	1
4	5	1
55	73	1
49	53	1
116	117	1
29	29	1
53	54	1
107	107	1
26	26	1
91	92	1
77	77	1
75	76	1
92	109	1
49	50	1
51	72	1
63	63	1
95	95	3
13	13	2
51	51	1
22	22	1
135	138	1
21	42	1
68	68	1
57	57	1
64	84	1
25	25	1
140	140	2
101	101	2
1	1	2
41	48	1
122	122	1
91	94	1
81	107	1
26	55	1
111	114	1
21	22	1
58	59	1
124	124	2
56	68	1
61	61	1
102	103	1
4	4	1
123	123	1
63	64	1
90	91	1
89	90	1
67	67	1
100	100	1
40	48	1
11	99	1
24	32	2
48	73	1
58	58	2
9	11	1
96	98	1
34	36	1
42	42	1
110	110	1
0	41	1
5	5	1
24	24	1
64	65	1
