79	79	2
25	25	3
103	103	2
112	112	1
2	2	1
124	124	4
127	127	2
114	114	1
48	48	4
153	153	1
57	103	1
138	138	2
38	39	2
27	29	1
148	155	2
101	101	1
56	56	4
129	129	2
178	178	1
105	105	5
6	6	2
21	21	1
119	119	1
53	53	2
43	43	3
30	32	1
146	146	1
80	82	1
86	86	1
79	80	1
159	160	1
154	156	2
118	134	2
70	70	2
15	15	1
108	108	2
110	114	1
3	3	6
39	56	1
57	57	4
87	87	1
79	84	1
114	118	3
1	1	4
104	104	2
167	168	1
107	107	2
38	38	2
19	21	1
93	93	1
114	116	2
17	17	1
163	163	3
111	111	1
155	155	2
83	83	3
40	42	1
78	79	1
90	94	1
88	88	1
54	56	2
159	159	2
143	145	1
60	103	1
89	89	3
123	123	4
129	136	1
24	24	1
175	175	1
174	174	3
44	44	3
37	37	2
91	92	1
46	46	1
96	96	1
122	134	1
39	129	1
110	128	1
164	190	1
119	122	1
134	135	2
65	65	3
174	175	2
186	186	2
23	23	2
78	78	1
139	139	1
170	170	3
30	30	1
22	24	2
153	154	1
121	122	2
154	163	3
95	103	1
175	183	1
142	144	1
133	142	1
53	54	1
99	99	2
54	54	1
75	75	2
169	187	1
31	34	1
178	184	1
55	159	1
67	67	1
110	111	2
0	78	1
71	71	1
0	0	2
28	31	1
48	49	1
55	55	1
134	190	1
125	125	1
5	5	1
65	67	1
122	123	1
157	158	1
26	26	1
16	24	1
71	72	1
144	144	1
38	145	1
152	152	1
96	99	1
81	81	1
42	61	2
39	39	1
66	67	1
140	154	1
142	143	1
175	176	2
154	154	4
74	74	1
84	84	3
40	57	1
156	156	2
122	122	1
7	7	3
136	136	1
180	182	1
83	87	1
176	177	1
181	181	1
110	110	1
187	187	1
31	37	1
176	176	1
109	109	1
18	19	1
95	95	1
100	102	1
71	89	1
10	10	2
148	148	1
63	63	1
100	104	1
139	187	1
58	72	1
111	113	1
92	93	1
2	82	1
40	73	2
27	27	1
20	21	1
80	80	1
107	111	1
150	150	1
68	68	1
135	135	1
77	104	1
45	67	1
32	32	1
142	142	1
111	144	1
86	87	1
79	82	1
131	131	1
140	160	1
48	52	1
36	36	1
20	20	1
73	73	1
87	88	1
78	89	1
25	153	1
76	100	1
67	68	1
92	92	1
154	155	1
166	172	1
41	67	1
21	23	1
151	152	1
127	189	1
126	127	1
23	36	1
184	184	1
46	47	1
63	64	1
