95	98	1
59	59	3
100	100	4
16	16	4
30	30	6
17	17	2
113	113	2
215	215	4
71	71	4
183	183	6
202	219	1
9	10	2
195	196	1
56	56	2
159	159	3
166	166	7
26	26	5
29	29	4
48	49	1
154	154	5
78	78	2
200	200	2
204	204	2
156	156	4
88	88	3
164	164	3
175	175	5
221	233	1
49	50	2
231	231	4
9	9	9
0	228	2
154	155	1
167	167	3
10	10	4
180	180	3
223	223	2
179	193	1
191	192	1
240	240	7
182	182	4
18	18	4
23	23	5
32	32	3
164	165	2
228	228	3
14	29	2
218	219	1
157	168	2
26	28	2
36	37	2
43	53	1
17	18	1
149	150	1
92	92	1
160	160	5
44	44	1
170	190	1
243	244	1
170	170	1
20	20	2
43	43	5
227	227	2
237	238	2
205	205	3
58	58	2
39	39	3
80	85	1
160	178	1
208	208	4
158	158	2
53	53	1
109	109	2
15	15	1
151	152	2
40	40	1
204	205	1
59	60	1
6	44	1
50	50	1
25	25	1
19	19	2
116	116	1
238	238	1
93	93	2
11	11	2
52	53	2
230	231	1
117	117	1
118	175	1
202	202	4
224	225	1
209	209	3
225	225	2
179	179	4
27	27	3
6	26	1
69	69	1
147	147	3
13	30	1
209	210	1
10	29	2
213	213	6
233	233	5
54	54	2
212	213	1
4	7	1
201	201	3
197	197	1
163	165	4
206	206	2
193	194	1
230	230	3
195	195	2
165	165	1
178	207	1
41	42	1
99	99	1
36	36	3
101	101	3
170	171	1
193	196	1
173	174	2
169	170	2
223	242	1
11	36	1
24	24	1
212	212	3
66	85	1
112	114	1
185	185	1
90	90	2
159	168	1
156	160	1
178	178	2
196	196	1
191	191	3
83	83	4
162	162	3
70	92	1
161	228	3
42	175	1
94	94	2
198	198	1
144	171	1
203	203	4
236	236	1
42	42	5
105	107	1
108	108	4
31	31	1
55	55	1
22	47	1
225	226	2
3	4	2
89	89	1
7	31	1
181	181	2
197	198	3
63	211	1
66	66	2
153	153	2
21	22	1
190	190	1
232	232	5
203	205	2
65	66	1
57	58	3
22	155	1
159	197	1
87	110	1
208	209	2
60	60	3
85	99	1
244	245	1
187	187	1
220	220	1
67	84	2
21	32	1
76	77	1
91	91	5
14	14	2
159	196	1
68	197	1
15	16	1
229	229	3
118	118	3
177	177	2
37	37	7
168	168	2
8	8	2
213	217	1
35	37	1
91	100	1
152	152	5
115	115	2
21	21	3
7	7	2
107	107	1
161	161	1
5	6	1
51	51	1
67	67	2
161	175	2
239	239	1
3	6	2
31	32	1
207	207	2
155	155	2
47	47	4
205	206	1
60	62	2
185	186	2
41	115	1
172	173	1
81	82	2
157	157	1
42	52	1
169	169	2
217	218	1
237	242	1
114	114	2
34	34	2
232	236	2
190	192	1
113	114	1
161	167	1
57	62	1
53	150	1
26	55	2
184	184	1
7	8	1
235	235	2
176	207	2
9	30	1
200	209	1
29	30	3
31	39	1
222	222	3
95	95	1
187	189	1
84	158	1
80	80	4
119	119	1
65	85	1
44	54	1
201	226	2
43	113	1
186	188	1
5	5	1
1	1	1
6	117	1
8	10	1
34	90	1
211	211	1
48	77	1
201	202	1
112	113	1
13	13	1
120	120	3
216	216	1
61	232	1
172	193	2
162	165	1
46	46	2
117	173	1
105	106	2
213	224	1
174	175	2
74	88	2
163	163	1
70	70	1
35	35	3
39	40	1
22	22	2
221	221	2
168	169	1
87	175	1
48	48	2
145	145	1
103	103	1
245	245	2
63	63	1
8	9	1
171	172	1
33	33	1
176	182	1
57	59	1
157	200	1
192	192	1
6	7	1
77	77	1
243	243	2
89	90	1
69	78	1
211	225	1
4	157	1
53	54	1
226	226	1
216	219	1
186	186	2
110	110	1
96	96	1
244	244	1
57	57	1
51	52	1
74	86	1
87	88	1
71	78	1
199	199	1
38	180	1
184	207	1
230	236	1
41	41	1
168	171	1
223	224	1
