115	118	2
57	57	2
137	137	6
120	120	1
56	57	2
83	83	5
4	4	5
46	46	3
11	12	3
39	39	2
78	78	4
93	95	1
176	179	1
122	125	1
27	30	1
10	12	1
144	178	1
107	107	6
27	34	1
42	44	6
186	187	2
111	112	7
141	141	4
110	111	1
84	84	6
20	20	2
91	94	5
29	34	2
106	107	3
140	144	1
7	9	1
93	93	9
106	115	1
22	23	4
155	155	6
118	118	2
138	169	1
36	37	1
44	44	9
57	78	2
146	165	1
176	178	1
11	14	3
10	10	4
150	150	4
58	58	6
88	88	12
129	130	1
123	126	2
1	1	2
169	174	1
112	112	5
147	147	3
151	151	8
93	99	1
159	159	3
112	117	2
84	102	1
30	31	4
101	101	5
13	28	2
121	123	1
121	121	4
140	164	1
163	163	1
133	134	2
102	103	2
143	143	6
109	111	1
187	189	2
165	167	3
68	70	1
166	166	5
142	142	3
145	145	10
166	170	1
53	53	8
149	172	2
68	68	1
29	32	1
146	146	4
129	129	3
71	78	1
108	125	1
14	14	6
130	131	5
104	105	2
89	94	1
75	75	4
25	54	1
0	37	1
129	153	1
110	113	3
116	118	1
131	131	7
129	132	3
82	82	4
26	41	1
15	15	4
18	53	1
188	189	3
55	56	2
3	4	3
61	64	2
109	109	5
41	41	6
77	77	5
96	99	1
136	137	6
40	48	1
182	182	4
59	61	2
26	26	7
79	79	5
43	43	3
145	148	4
7	7	7
83	84	1
7	95	3
105	107	2
105	105	4
108	108	5
88	182	1
102	102	6
160	175	1
101	104	1
10	11	4
107	108	2
17	17	1
66	66	4
173	173	5
188	188	5
6	6	8
1	79	1
64	65	3
121	128	1
153	153	3
185	185	9
27	27	3
115	115	1
168	168	4
15	16	1
101	102	4
95	123	2
117	119	1
8	8	10
138	139	3
130	190	1
148	170	3
57	109	2
86	86	5
39	40	4
2	3	2
189	189	1
83	85	1
3	3	6
124	124	5
108	109	5
138	154	2
40	77	1
81	81	5
176	181	2
57	150	1
133	133	1
18	18	4
186	186	4
90	92	2
9	15	2
137	143	1
25	25	8
79	90	2
25	41	1
71	71	3
35	36	1
110	110	7
113	113	1
56	56	2
76	78	2
135	135	5
56	88	2
10	16	1
4	5	3
19	20	4
28	36	1
105	106	1
174	174	6
42	42	5
95	103	2
13	13	3
90	93	3
67	106	2
99	99	7
85	85	5
177	182	1
121	122	2
153	154	3
91	91	6
37	82	3
171	172	3
176	176	1
111	111	3
149	149	10
49	49	1
37	38	2
55	57	1
155	156	3
112	119	1
19	21	2
142	143	3
60	65	1
4	8	1
124	125	2
22	24	1
156	157	2
152	152	3
129	133	2
45	45	3
130	151	1
18	19	1
72	86	2
69	70	2
183	183	5
89	127	2
95	95	2
143	163	1
183	186	1
167	167	3
161	163	3
120	121	3
48	48	4
134	138	2
149	150	3
126	126	4
113	128	1
136	138	2
55	55	7
87	87	4
29	31	3
29	29	7
17	45	3
96	96	5
34	46	1
162	164	1
89	89	1
87	88	4
33	37	1
70	70	2
15	17	1
80	80	1
76	76	7
106	109	1
147	167	2
25	26	4
164	164	5
34	109	1
5	74	2
84	110	1
26	35	2
172	173	5
73	73	6
112	113	1
114	116	2
2	2	2
68	71	2
74	76	1
72	72	6
145	167	1
122	122	4
84	85	3
17	37	1
140	140	6
156	164	2
11	11	2
27	29	2
126	127	1
175	175	2
99	108	3
104	104	3
4	25	1
120	123	2
13	29	1
24	85	1
95	126	2
140	141	2
23	42	1
12	44	1
59	59	1
53	93	1
84	92	1
85	188	1
148	148	4
6	75	1
54	57	1
24	24	2
116	117	1
53	54	2
108	141	1
61	63	3
156	156	8
127	150	2
20	21	4
166	169	4
65	65	2
123	123	11
154	154	2
87	138	2
0	2	1
73	74	1
135	146	1
63	63	1
38	39	2
151	152	2
177	177	4
159	164	1
61	61	5
165	188	1
44	47	2
94	94	5
36	36	5
8	39	2
32	37	3
100	104	1
146	147	1
120	141	1
1	2	2
76	77	1
92	93	1
90	90	3
123	127	1
84	88	1
140	187	1
120	176	1
77	78	2
129	151	1
69	69	1
109	155	1
150	151	1
94	99	1
100	111	1
74	74	2
106	106	4
172	179	1
92	135	1
138	138	3
178	178	3
97	98	2
159	177	1
171	171	6
58	62	1
54	68	1
110	124	1
180	180	5
36	155	1
148	149	4
53	58	1
29	47	1
179	190	1
38	38	2
114	114	2
16	24	2
30	30	5
16	16	1
26	54	1
119	159	2
160	160	7
63	65	2
117	118	1
159	160	2
103	103	6
35	35	7
28	28	5
187	187	3
142	183	2
145	153	1
151	179	1
82	86	1
99	100	1
127	127	3
32	35	1
81	123	2
100	126	2
48	49	2
29	30	5
88	90	1
167	168	1
150	187	1
170	170	3
58	61	1
40	40	9
107	109	1
148	153	1
70	72	1
80	81	4
23	23	4
158	188	1
184	185	1
125	125	2
15	56	1
88	95	1
172	174	1
26	27	1
132	140	1
46	47	3
125	156	1
109	113	1
37	37	2
79	80	1
182	183	4
173	174	1
188	190	1
100	100	2
156	183	2
101	105	1
64	64	4
118	135	1
153	184	1
5	25	1
87	89	1
87	95	1
34	37	1
72	101	1
118	179	2
105	152	1
91	96	2
184	187	1
147	150	1
67	68	2
113	122	1
44	53	1
45	46	1
65	94	2
19	19	1
172	172	2
34	34	2
31	31	1
13	24	1
109	127	1
27	28	2
111	116	1
135	136	1
102	129	1
117	133	1
143	156	1
42	43	2
114	118	3
175	180	3
31	32	1
10	25	3
94	107	1
145	155	1
23	85	1
78	80	1
178	180	1
160	161	1
38	41	1
139	185	1
89	95	1
81	88	1
65	87	2
130	130	3
92	92	2
18	20	1
148	164	1
12	13	1
148	162	1
43	44	3
0	1	3
139	139	2
58	59	1
66	67	1
128	128	5
40	120	1
12	12	2
167	178	1
85	86	2
144	144	4
22	41	1
61	62	1
69	78	1
18	34	1
174	175	2
189	190	3
6	7	2
92	94	2
19	23	1
155	177	2
143	190	1
117	117	1
21	34	2
111	123	1
173	175	1
33	33	2
151	154	2
102	104	1
111	120	1
11	13	2
187	188	2
118	122	2
24	25	2
91	99	1
154	173	1
158	158	6
123	124	2
106	108	1
54	54	3
164	165	2
5	5	6
47	48	1
184	186	1
39	86	1
153	159	1
132	134	1
124	127	1
185	188	1
95	127	1
11	64	2
0	3	1
180	181	1
71	82	2
70	71	2
44	45	1
134	135	1
88	89	2
182	188	1
128	129	1
31	34	1
165	166	1
5	6	1
26	79	1
14	36	1
130	138	1
58	63	1
181	181	3
57	87	2
133	155	1
155	158	1
53	85	1
56	60	2
134	136	3
179	180	1
141	163	1
181	182	1
48	56	1
70	100	1
156	174	1
98	108	1
126	129	1
168	169	2
104	106	1
85	128	1
45	68	1
100	139	2
171	173	3
88	100	1
134	134	1
130	135	2
190	190	1
127	128	2
26	39	2
168	190	2
71	73	2
41	49	1
142	165	1
130	183	1
141	180	1
116	116	2
79	88	1
65	90	1
60	61	1
6	38	1
163	164	1
76	82	2
177	178	3
157	158	1
96	98	1
17	30	2
52	61	1
83	87	1
10	39	3
108	128	1
65	68	1
37	77	1
108	126	1
89	106	1
3	25	1
6	25	1
160	181	1
77	87	1
119	119	1
95	110	1
145	146	1
122	124	1
24	39	1
186	188	1
65	71	2
110	112	2
95	128	1
96	109	1
54	55	1
48	85	1
111	151	1
86	87	1
83	166	1
34	35	1
9	12	1
66	68	1
118	120	1
133	137	1
169	171	2
147	155	1
136	143	1
162	163	1
118	119	1
65	75	1
95	113	1
124	153	1
184	184	2
23	56	1
155	159	1
18	46	1
113	124	2
94	97	1
9	10	1
174	184	1
81	89	1
144	146	2
107	115	1
109	151	1
84	124	1
37	81	1
110	129	1
165	165	1
10	13	1
72	78	1
148	175	1
17	19	1
4	7	1
140	146	1
166	175	1
78	79	4
115	125	1
106	158	1
174	177	1
79	96	1
74	77	1
87	139	1
11	19	1
151	166	1
159	175	2
86	96	1
0	0	2
111	113	1
136	136	1
105	116	1
53	55	1
102	122	1
111	148	1
147	189	1
9	9	1
54	75	1
60	60	1
131	166	1
2	109	1
137	150	1
147	151	1
123	125	1
10	43	1
169	190	1
88	110	2
108	110	1
109	123	1
77	90	1
100	106	1
154	156	1
79	159	1
52	60	1
25	38	1
5	73	1
90	94	1
67	67	1
39	85	1
114	131	1
48	76	1
157	157	1
71	72	1
140	155	1
70	101	1
100	103	1
183	184	1
55	61	1
185	186	1
40	139	1
175	176	1
44	46	1
