51	51	9
72	72	7
89	89	3
0	111	2
64	64	6
111	131	2
89	94	2
91	91	10
75	76	3
43	43	5
99	101	1
90	90	7
42	42	5
57	57	3
124	124	12
11	12	5
123	123	5
133	133	2
113	114	2
23	23	4
48	65	1
26	26	8
104	104	14
76	76	5
42	43	2
38	40	2
49	49	11
87	88	4
5	5	4
92	107	1
69	69	12
39	40	3
106	106	7
55	56	2
60	61	1
52	52	10
118	118	5
84	102	1
107	107	7
69	101	1
21	22	3
29	29	8
14	14	3
96	96	7
44	44	5
51	52	1
58	58	3
70	70	8
27	28	3
45	45	8
84	84	3
112	112	7
21	32	1
27	27	6
65	65	5
87	87	4
118	131	1
99	99	5
60	60	7
117	117	16
54	54	11
101	101	12
11	13	1
114	114	10
65	66	3
67	67	5
104	105	5
90	94	1
66	66	4
82	82	8
110	110	13
73	74	2
5	93	1
22	22	2
92	92	7
46	66	1
33	77	1
13	13	3
109	109	6
56	56	14
108	132	2
50	50	4
116	116	7
122	122	7
47	53	1
93	105	2
31	32	4
40	40	6
98	98	10
37	37	1
73	73	5
39	39	9
90	91	2
108	109	1
11	11	4
64	92	2
88	88	5
101	103	1
62	63	4
127	127	9
2	2	4
68	68	4
132	132	9
75	75	2
97	97	3
115	115	9
16	16	7
6	6	6
96	124	2
46	131	2
88	103	2
95	95	7
8	10	1
126	126	11
63	63	7
54	55	1
84	88	3
74	74	3
3	3	3
82	83	1
78	78	3
70	71	5
18	30	1
81	81	11
93	93	13
12	119	1
55	55	5
111	112	4
121	121	6
47	64	2
67	94	1
116	117	3
58	59	5
47	47	9
108	108	6
71	71	9
47	108	1
125	125	7
19	19	3
20	21	2
131	131	12
29	76	2
89	92	1
81	84	1
24	24	7
37	38	1
111	111	7
87	89	1
100	100	2
7	7	5
46	46	8
53	53	4
53	54	1
124	131	1
72	83	1
61	61	8
112	116	1
23	24	1
113	113	5
12	56	1
23	25	3
40	41	1
102	102	5
66	77	1
42	45	1
0	1	1
66	67	1
21	21	2
47	48	2
1	1	3
117	118	4
98	99	2
83	83	5
30	39	1
77	82	2
109	110	3
34	34	5
125	127	3
95	96	1
12	12	3
18	19	1
33	58	3
90	99	1
69	125	1
38	39	2
86	86	3
4	5	3
101	102	1
12	19	1
4	26	1
71	110	1
62	62	2
78	80	1
29	30	1
83	88	2
50	51	3
32	32	3
25	25	2
3	6	1
124	125	4
119	119	5
25	26	1
13	14	2
9	9	2
79	80	3
32	33	2
20	20	3
59	61	2
105	105	6
59	63	1
19	22	1
28	28	8
7	53	1
41	42	2
103	103	3
65	68	2
0	0	2
120	120	8
75	99	1
115	116	5
10	10	2
128	128	3
127	129	1
76	77	1
123	125	1
112	113	1
59	59	2
103	128	1
54	64	1
50	57	1
30	30	4
113	119	2
19	27	1
96	105	1
17	20	1
114	115	1
80	81	1
60	66	1
18	58	2
88	96	1
89	90	2
2	3	3
44	60	1
58	66	1
94	94	3
93	94	4
48	54	1
130	130	6
8	8	1
16	17	2
46	67	1
31	34	1
82	85	1
96	125	2
22	26	2
58	73	1
16	20	2
41	41	1
86	89	1
26	31	1
31	31	7
4	93	3
85	85	1
49	54	1
85	92	1
112	131	2
96	104	2
107	108	1
105	106	2
71	72	1
48	48	3
72	84	1
31	46	1
106	109	2
79	79	4
28	29	2
46	58	1
90	93	2
105	124	2
4	4	2
58	63	2
12	13	1
5	6	2
106	113	1
113	116	1
77	77	2
89	91	1
92	95	1
48	49	4
83	94	1
125	128	1
100	101	2
22	23	1
114	130	1
96	101	1
120	121	2
33	33	1
98	100	1
99	100	2
77	79	1
26	27	2
63	68	1
127	133	1
29	45	1
56	57	2
58	71	3
57	58	1
94	95	1
47	62	1
41	44	1
51	121	2
65	120	1
59	60	3
91	92	1
15	16	2
68	70	1
97	98	3
31	45	2
21	31	1
84	85	1
62	82	1
80	83	1
49	52	2
19	68	1
41	66	1
83	85	1
131	132	2
114	127	1
13	22	1
53	56	1
27	29	1
74	75	1
121	122	2
95	124	1
82	84	1
119	132	1
40	63	1
28	54	1
107	131	1
118	119	2
46	47	1
46	48	1
113	130	1
91	93	1
64	120	1
129	129	1
52	53	1
39	41	1
24	107	1
128	129	2
86	130	1
41	59	1
39	45	2
86	88	1
17	17	1
57	62	1
52	55	1
104	131	1
15	15	1
13	21	1
38	41	1
42	46	1
94	105	1
118	120	1
63	66	1
6	69	1
61	62	1
79	112	1
114	116	1
69	102	1
24	25	1
94	132	1
