115	115	4
135	151	1
11	13	1
47	47	3
141	141	3
128	128	3
49	49	3
125	149	1
84	84	4
145	145	6
26	26	3
13	13	2
155	155	1
14	15	1
52	53	1
0	46	1
163	163	2
127	127	1
164	164	3
15	15	2
6	6	5
149	149	2
164	166	2
115	116	3
161	161	3
16	16	4
132	132	3
145	146	1
93	93	3
57	106	2
151	151	2
134	134	3
1	5	1
0	0	1
42	42	4
78	78	1
40	40	5
99	99	2
13	117	2
152	153	3
53	56	1
139	139	1
49	81	1
167	167	5
125	127	2
109	150	1
108	108	7
150	169	1
102	103	1
3	3	4
19	21	1
110	110	1
56	56	3
75	75	2
142	142	7
45	45	2
15	24	1
13	49	2
74	74	2
9	9	8
48	55	2
134	136	1
46	47	1
71	72	1
25	25	3
24	155	1
144	147	1
11	100	1
41	42	1
125	125	2
152	152	3
22	23	1
115	117	1
103	104	2
88	159	1
143	147	3
43	43	6
79	82	1
131	131	2
64	65	2
151	163	1
11	107	1
50	56	1
24	24	3
2	2	2
143	146	1
104	105	1
144	145	2
44	115	1
4	4	2
136	136	3
148	148	3
109	109	1
148	168	1
6	7	2
135	136	2
100	100	2
109	111	1
72	72	2
35	35	2
82	96	1
10	10	2
49	80	1
51	51	2
144	146	3
129	129	2
126	126	2
69	69	5
86	86	1
50	58	1
62	66	1
150	151	1
5	5	4
158	159	1
48	48	1
76	76	5
80	80	2
118	155	1
143	143	4
52	54	1
70	70	2
153	153	2
69	70	1
137	143	1
38	170	1
150	150	3
7	7	5
47	48	1
83	83	4
8	9	2
19	19	3
18	18	1
110	116	1
162	164	2
144	144	1
165	165	4
132	133	1
39	39	3
91	91	2
105	105	1
7	11	1
97	97	1
127	154	1
38	38	1
167	168	1
82	82	2
56	64	1
156	156	1
8	8	1
112	113	2
150	158	2
87	87	3
158	160	1
92	94	1
130	130	1
136	139	1
79	79	1
79	80	1
8	47	1
10	11	2
6	11	1
67	67	1
138	138	2
100	108	1
10	26	1
162	162	1
111	138	1
154	155	2
123	124	2
160	160	3
88	88	1
72	73	1
36	36	3
33	34	1
81	82	1
163	164	2
162	163	1
110	137	1
63	63	1
107	107	2
62	63	1
44	96	1
127	129	1
3	4	1
166	166	1
8	25	1
89	90	1
110	112	1
90	100	2
23	23	2
19	20	1
152	154	1
1	1	7
124	124	1
147	167	1
7	8	1
114	116	3
65	65	1
12	126	1
138	147	1
35	52	1
20	21	1
63	65	1
34	35	1
24	25	1
62	102	1
52	52	1
86	87	1
40	41	1
83	84	1
11	11	1
4	5	1
27	27	1
77	80	1
116	116	1
21	22	1
17	18	3
141	142	1
44	44	2
54	55	2
140	141	1
147	147	1
118	140	1
129	130	1
8	48	1
94	95	1
139	148	1
20	20	1
116	117	1
68	70	1
55	55	2
41	41	1
149	158	1
68	68	1
96	96	1
46	46	1
93	95	1
12	163	2
130	131	1
82	167	1
48	49	1
170	170	2
22	22	1
149	153	1
17	19	1
120	120	3
121	123	1
75	97	1
127	152	1
14	14	1
23	24	1
119	120	2
66	66	2
79	84	1
90	93	1
116	168	1
120	151	1
16	157	1
85	86	1
153	165	1
47	49	1
133	133	1
103	103	1
78	79	1
108	168	1
78	101	2
122	122	1
62	89	1
105	106	1
161	162	1
75	77	1
125	126	1
157	157	1
151	155	1
