215	231	1
98	98	3
36	37	1
16	16	4
16	206	2
74	74	4
73	73	4
38	38	4
139	139	5
34	35	2
27	27	4
28	110	1
122	122	4
59	60	1
143	143	3
134	134	3
11	11	5
15	116	1
227	227	2
86	86	3
126	160	1
47	47	3
38	39	3
147	164	1
217	241	1
4	4	1
128	128	1
109	109	5
9	10	4
169	169	3
9	9	6
199	207	1
13	153	2
39	39	4
23	23	4
75	75	2
10	10	4
3	15	1
228	228	1
85	85	5
25	25	3
139	149	1
35	193	1
215	215	2
240	240	7
241	241	3
3	3	1
152	152	3
75	77	1
161	161	2
223	224	1
178	188	1
44	49	1
147	148	2
117	117	2
108	109	1
31	31	3
146	148	1
187	187	5
213	228	1
240	242	1
230	230	2
218	218	5
113	113	4
179	187	1
225	226	2
37	42	1
193	193	2
215	216	2
44	44	1
102	102	2
96	96	1
125	138	1
125	133	2
199	200	1
108	108	4
167	168	3
150	150	3
101	129	1
13	14	2
140	140	1
1	20	2
242	242	1
149	167	1
60	60	2
32	33	1
129	129	4
20	20	3
221	221	5
0	37	1
204	204	1
47	48	1
180	180	1
67	67	3
157	157	2
183	183	3
60	79	1
152	161	2
42	42	1
123	124	2
198	211	1
170	171	1
162	162	1
72	72	4
59	105	1
0	20	1
238	241	1
88	107	1
224	224	1
61	69	1
128	144	1
153	154	3
181	181	7
21	23	1
43	43	3
68	68	2
236	238	1
103	133	1
24	25	2
199	199	4
212	223	1
46	46	1
173	173	1
183	191	4
195	195	1
101	101	5
177	177	2
45	45	4
71	71	1
202	232	1
152	191	1
208	225	1
13	13	1
158	178	1
148	148	1
88	88	2
7	37	2
212	212	2
2	4	2
28	29	1
21	22	2
115	115	1
185	186	1
220	223	1
0	1	3
200	200	4
58	60	1
23	42	1
151	151	3
196	196	1
51	57	1
21	218	1
110	111	1
145	146	2
226	228	1
43	44	1
29	30	2
14	14	4
53	53	5
63	63	3
97	97	3
224	225	3
15	15	4
110	110	1
190	190	3
1	1	1
229	229	1
19	36	1
128	153	1
220	220	4
41	41	1
128	136	1
121	121	1
28	28	5
149	165	1
17	18	2
111	112	1
11	85	1
65	128	1
64	69	1
21	21	3
26	28	1
34	34	2
15	16	2
114	114	1
163	163	3
89	89	1
3	6	1
71	72	1
182	182	2
154	155	1
236	237	1
55	55	2
14	22	1
144	144	1
202	202	2
52	58	2
138	138	1
213	214	1
35	35	1
188	188	1
141	143	1
8	8	2
54	54	3
151	187	1
236	236	5
49	49	1
218	220	1
81	81	1
174	174	1
103	103	3
165	165	2
169	170	2
108	119	1
66	66	4
154	154	1
81	83	2
101	102	2
12	12	3
46	47	1
100	100	2
40	41	2
117	118	1
214	214	2
37	37	2
65	66	1
200	208	1
60	159	1
160	191	2
207	207	1
42	129	1
116	123	1
124	124	1
123	123	5
122	130	1
54	69	1
30	30	2
175	175	5
33	48	1
20	21	2
64	64	5
124	125	2
206	221	1
71	73	2
62	62	4
137	141	1
168	168	1
174	175	1
32	32	1
83	83	2
122	124	1
18	178	1
217	217	1
179	179	2
158	158	1
21	72	1
0	7	1
210	210	3
98	99	1
50	50	1
36	36	2
134	195	1
60	61	1
26	26	2
45	46	2
57	57	1
106	142	1
99	99	2
141	142	1
184	192	1
157	161	1
32	46	1
200	203	1
204	206	1
71	99	1
158	160	2
105	105	1
139	140	1
16	18	1
179	204	1
192	192	1
103	105	1
16	188	2
19	21	1
170	170	1
65	65	1
33	36	1
177	220	1
179	180	1
51	53	2
50	53	1
67	106	1
76	76	2
223	223	1
78	78	2
108	139	1
232	232	2
131	131	1
235	235	1
29	29	3
85	86	2
219	219	1
72	73	1
192	193	1
1	14	1
20	54	1
222	222	3
95	95	2
144	173	2
46	61	1
127	127	1
104	139	1
214	215	1
81	82	1
166	166	1
197	197	1
185	185	3
238	239	1
181	185	1
104	105	1
79	79	1
188	209	1
171	171	2
198	198	1
58	58	1
61	62	1
170	174	1
176	178	2
33	33	2
26	27	1
201	201	2
104	104	1
177	178	3
234	234	2
112	112	1
108	126	1
142	167	1
105	106	1
8	181	1
125	125	2
5	125	1
215	223	2
142	142	1
151	153	1
18	18	3
155	161	1
172	172	2
66	79	1
153	157	1
156	157	2
12	23	1
160	160	3
30	31	1
5	5	2
103	104	1
16	51	1
145	145	2
216	223	1
226	226	2
126	126	1
79	87	1
200	207	1
8	9	1
206	207	1
152	153	1
101	219	1
62	75	1
67	68	1
69	69	2
46	232	1
120	121	1
44	60	1
82	82	2
22	22	1
189	202	1
1	61	1
160	165	1
164	186	1
158	159	1
124	137	1
6	14	1
12	107	1
108	141	1
174	179	1
235	237	1
164	168	1
233	233	1
191	209	1
183	184	1
9	32	1
178	178	1
189	190	1
205	228	1
16	17	1
185	187	1
213	213	1
156	156	1
169	231	1
74	85	1
57	60	1
213	225	1
43	70	2
75	105	1
24	24	2
191	192	1
133	135	1
159	167	1
24	61	1
118	122	1
129	130	1
57	82	1
174	177	1
83	85	1
71	78	1
48	48	1
49	58	1
207	226	1
153	155	1
43	62	1
56	57	1
23	24	1
134	139	1
99	100	1
173	174	1
194	195	1
217	232	1
147	147	1
220	224	1
120	120	1
56	159	1
175	192	1
40	40	1
149	149	1
26	128	1
79	84	1
140	160	1
102	106	1
65	68	1
178	179	1
67	115	1
116	166	1
61	61	1
33	90	1
67	116	1
144	145	1
119	119	1
8	136	1
137	137	1
240	241	1
80	81	1
11	25	1
