169	169	2
81	82	1
38	39	2
98	98	4
21	21	3
18	18	5
192	192	2
4	4	7
247	248	1
15	15	3
118	118	5
207	208	2
172	172	2
47	202	1
200	200	4
2	2	1
218	218	4
240	240	6
49	50	2
10	10	1
110	110	2
95	95	1
6	6	1
244	244	2
236	241	1
227	227	2
87	87	3
34	65	1
180	180	4
235	235	2
23	29	1
176	194	1
26	204	1
58	58	4
24	41	1
152	153	1
194	196	1
170	170	2
59	59	3
18	36	1
237	237	2
174	220	1
173	173	7
166	166	3
224	224	2
82	82	2
67	67	4
195	195	1
56	56	3
231	231	2
86	86	3
78	91	1
217	225	1
2	202	1
200	201	2
9	11	1
233	233	4
19	19	7
34	34	8
93	94	3
146	154	3
243	244	2
64	64	3
248	248	1
159	159	3
75	75	2
26	42	1
60	84	1
85	85	5
199	199	1
204	204	4
65	65	3
11	11	4
221	221	1
116	116	3
195	197	1
26	26	7
202	202	6
116	147	2
31	31	2
32	32	2
7	7	6
27	27	3
247	247	1
232	232	6
61	62	1
191	196	1
43	44	1
117	117	3
6	31	1
25	26	1
226	226	2
230	231	2
48	48	3
197	197	1
208	208	4
35	35	7
197	198	1
9	9	3
154	154	2
206	244	2
54	54	4
157	158	2
177	182	1
114	117	1
201	201	5
53	54	2
73	80	1
206	206	2
168	169	1
5	20	1
60	60	2
191	215	4
9	16	1
28	28	4
37	37	4
78	78	4
225	225	3
16	228	1
100	156	1
178	178	2
158	159	2
76	93	1
234	236	2
237	246	1
49	60	2
150	150	1
111	111	3
94	95	2
23	28	2
26	32	1
225	230	1
23	24	1
71	72	1
153	231	1
55	55	2
23	23	4
5	7	1
48	49	1
107	107	3
115	115	2
36	36	6
214	214	4
212	245	1
221	225	1
45	45	1
165	165	2
78	94	2
181	181	3
30	31	1
150	161	1
63	63	3
175	184	1
26	37	1
75	76	2
183	183	1
179	191	1
29	29	2
22	22	2
63	65	1
198	198	4
49	49	2
105	107	1
38	38	2
190	236	1
41	41	1
44	150	1
147	147	2
66	66	3
157	165	1
14	14	4
177	177	4
197	199	1
20	20	3
234	234	2
93	120	1
165	166	1
164	164	3
240	241	3
30	30	2
68	158	1
101	101	1
21	183	1
17	32	1
221	222	1
54	85	1
72	73	2
223	223	3
53	53	3
15	16	2
184	184	2
20	21	1
72	72	3
242	242	1
1	1	2
246	246	4
70	70	2
19	20	1
229	232	1
26	28	1
84	85	1
43	43	3
197	222	1
158	158	2
239	239	2
163	163	3
245	245	2
182	182	5
46	91	1
160	160	2
103	108	2
47	234	1
228	228	1
77	182	1
194	194	2
25	25	2
185	185	2
44	44	3
163	164	2
229	229	3
79	79	4
212	224	1
6	8	1
198	199	2
213	230	1
162	162	2
12	12	2
50	51	1
167	167	1
61	237	2
106	106	1
93	93	3
39	39	2
167	168	1
155	155	2
212	212	2
4	205	1
162	163	1
107	108	2
176	195	1
5	5	6
37	89	1
28	32	1
182	205	1
112	112	1
17	18	2
78	80	1
176	176	5
151	152	1
106	108	2
205	205	3
196	218	2
230	245	1
110	111	1
116	117	1
220	220	4
39	40	1
42	42	3
85	116	1
213	213	1
194	195	1
21	22	2
203	203	1
210	210	2
4	6	1
215	217	1
214	220	1
47	50	1
242	243	1
243	243	1
16	16	1
7	8	1
86	95	1
119	119	3
236	237	2
3	3	2
34	49	1
157	157	2
40	40	2
85	86	1
215	219	1
216	216	1
8	8	4
181	185	1
113	113	2
190	191	2
182	224	1
190	190	1
91	97	1
106	107	1
45	46	1
209	209	2
24	24	1
59	60	1
6	15	1
96	96	4
207	207	1
62	171	1
230	230	1
99	100	1
61	61	2
220	222	1
212	229	1
11	14	1
50	50	1
216	222	1
58	60	1
194	210	1
93	99	1
89	93	1
33	34	2
222	222	1
174	185	1
38	43	1
214	247	1
55	56	1
100	109	1
185	187	1
18	19	1
33	33	2
114	114	1
210	211	1
46	202	1
52	52	2
168	168	1
169	190	1
190	192	1
166	169	1
14	205	1
200	211	1
58	59	1
211	211	2
51	247	1
196	197	1
77	77	1
175	175	1
185	186	1
184	185	2
188	188	1
53	59	1
47	53	2
165	170	1
95	98	1
8	9	2
162	178	1
102	102	1
218	219	2
153	154	1
14	18	1
176	183	1
59	90	2
51	51	1
4	5	1
240	248	1
111	201	1
223	224	1
57	57	1
69	70	1
29	30	1
236	236	1
18	156	1
234	235	1
34	35	1
94	94	1
208	209	1
43	45	1
56	57	1
203	230	1
105	106	1
40	41	1
161	205	1
73	75	1
66	84	1
144	145	1
204	206	1
79	96	1
216	217	1
52	54	2
80	86	1
202	203	1
46	203	1
201	226	1
151	151	1
169	173	1
202	204	1
114	153	1
51	52	1
10	11	1
240	244	1
80	82	1
156	156	2
17	41	1
248	249	1
204	207	1
54	201	1
52	53	1
91	91	1
