33	33	7
58	58	2
48	48	6
25	27	1
30	30	5
44	44	3
64	64	2
3	3	5
6	58	1
7	7	3
40	40	2
59	59	2
31	31	6
4	26	1
49	50	3
50	50	4
0	0	4
21	23	4
10	11	3
36	37	5
13	13	2
4	32	2
42	44	1
75	75	3
21	21	5
27	27	7
43	45	1
9	9	6
26	26	5
65	66	2
35	36	2
39	40	4
29	32	1
22	37	1
2	20	1
21	26	1
4	6	2
8	9	6
54	54	2
9	12	1
71	71	3
41	41	4
62	63	3
23	23	7
6	6	6
40	41	3
66	66	4
57	58	1
34	34	7
66	67	1
37	37	4
25	28	1
22	31	2
57	57	3
8	10	3
47	65	1
8	8	10
61	61	2
22	23	1
49	49	3
2	9	1
36	49	1
59	60	3
52	52	4
33	71	1
1	4	1
50	55	1
76	76	4
28	28	8
61	63	1
30	32	3
35	35	7
29	30	2
20	20	4
35	38	1
62	65	1
2	3	1
22	22	3
47	47	3
38	38	9
73	74	1
0	2	1
3	10	1
25	26	1
19	20	1
74	75	1
5	5	3
51	51	1
11	11	1
3	24	1
10	10	5
12	12	2
28	34	1
29	29	2
2	2	4
28	30	1
32	32	3
4	5	1
55	56	1
19	55	1
4	4	5
44	45	2
23	67	1
24	24	6
60	60	5
41	42	1
56	56	2
75	76	2
4	8	1
28	39	1
36	36	4
34	36	1
34	39	3
26	27	3
37	38	2
19	23	1
39	39	4
55	71	1
24	26	2
30	39	2
47	48	1
73	73	2
68	68	2
25	38	2
53	53	1
26	31	1
27	28	2
9	35	1
34	53	1
10	14	1
45	45	3
30	31	1
28	49	1
27	33	1
69	69	3
66	68	1
43	43	2
42	42	2
12	33	1
49	52	1
19	19	2
0	3	1
14	24	1
46	46	2
25	25	2
30	42	1
20	35	1
37	59	1
70	71	1
2	10	1
7	8	1
5	60	1
38	39	1
62	64	1
1	1	2
47	53	1
77	77	1
44	48	1
3	21	2
62	62	2
6	37	1
1	6	1
20	48	1
2	35	1
18	18	2
35	39	1
34	48	1
74	74	3
24	25	1
63	65	2
45	46	1
63	63	1
23	38	1
64	66	2
12	19	1
11	12	1
31	32	2
6	7	1
22	34	1
3	6	1
27	70	1
1	8	1
38	70	1
20	21	1
32	39	1
19	21	1
75	77	2
65	65	1
9	10	1
0	1	1
22	24	1
67	72	1
22	47	1
14	65	1
32	33	1
30	51	1
33	34	2
20	28	1
68	69	1
63	69	1
52	71	1
34	51	1
12	72	1
23	43	1
21	52	1
7	22	1
32	35	1
