164	187	1
186	187	3
108	110	1
48	48	3
25	25	2
38	41	1
1	1	4
77	78	2
0	0	2
77	77	2
85	85	2
101	101	2
97	120	1
127	127	2
19	19	1
65	77	1
62	66	1
159	159	2
151	151	1
120	120	1
187	190	1
79	99	3
185	185	3
83	83	1
45	45	1
140	140	2
86	86	3
10	10	1
17	17	1
60	60	3
26	26	4
55	55	2
83	89	1
53	53	1
179	179	3
15	21	2
89	90	1
12	12	1
177	177	1
96	96	2
39	39	3
105	105	1
62	62	2
70	70	2
106	106	1
5	28	1
150	151	2
74	74	3
154	155	3
152	154	1
76	95	1
128	128	3
95	95	3
123	123	5
110	112	1
76	109	2
78	78	1
156	156	3
112	112	2
4	6	1
76	89	2
173	173	1
32	32	1
26	41	1
47	48	1
5	5	2
133	143	2
20	20	1
132	132	1
18	18	1
6	83	1
112	151	2
115	121	1
87	88	1
75	75	1
16	16	2
105	108	1
140	144	2
175	175	1
189	189	1
117	118	1
53	57	1
93	93	1
6	26	1
8	8	1
111	111	3
89	113	1
6	77	2
34	37	1
128	149	1
155	155	1
91	91	2
147	164	1
64	76	1
87	87	1
80	149	1
174	174	2
58	58	2
156	168	1
2	2	2
25	26	1
136	136	2
135	137	1
139	139	1
160	161	2
6	7	1
100	102	1
146	146	2
135	138	1
151	152	1
56	56	2
153	178	1
22	23	1
79	97	1
118	119	2
158	163	1
183	185	1
122	124	1
30	31	1
35	35	1
120	121	1
40	40	2
9	10	1
39	48	2
104	104	1
117	119	2
93	94	1
147	163	1
20	21	2
114	115	1
88	88	2
133	139	1
155	176	1
188	188	2
11	11	2
114	114	3
82	82	2
126	127	3
19	28	1
161	186	1
84	84	2
142	142	1
151	154	1
145	146	2
99	99	1
14	15	2
32	41	1
108	108	3
88	95	1
154	184	1
183	183	1
97	97	2
54	54	1
158	158	1
184	184	1
23	25	1
85	93	1
99	110	1
13	15	1
16	30	1
117	117	1
168	168	1
137	139	1
154	169	2
154	154	1
5	26	1
59	59	1
68	101	1
175	176	1
152	153	1
84	86	1
124	124	1
86	87	1
147	171	1
111	112	2
184	186	2
107	107	1
188	189	1
131	132	1
111	113	1
44	46	2
130	130	1
28	33	1
32	42	1
144	144	1
100	101	1
27	29	1
128	140	1
7	10	1
166	167	1
182	183	1
78	110	1
163	166	1
87	93	1
109	109	1
121	122	1
92	93	1
74	103	1
173	174	1
169	169	1
119	119	1
80	106	1
110	123	1
164	165	1
36	37	1
171	171	1
115	122	1
102	104	1
121	121	1
57	57	1
143	143	1
174	183	2
79	80	1
66	67	1
22	53	1
56	76	1
64	64	1
142	144	1
171	172	1
138	138	1
136	137	1
79	79	1
6	6	1
