89	93	1
63	63	5
92	92	2
103	103	1
40	45	1
77	86	1
100	100	5
27	27	1
128	128	1
64	64	5
5	45	1
87	96	2
107	110	1
60	61	1
5	11	1
78	83	2
72	73	1
18	18	4
74	74	3
28	28	3
98	105	1
44	48	1
75	75	5
125	125	2
116	116	7
76	76	2
59	59	2
83	97	1
86	117	1
123	123	2
129	129	4
3	3	2
77	77	3
93	109	1
65	66	1
102	110	1
11	11	2
121	121	4
48	49	1
92	101	1
120	129	1
46	61	1
62	62	9
86	118	1
36	36	5
83	83	5
5	17	2
91	98	1
8	9	1
31	34	1
93	93	1
107	107	2
18	19	1
132	133	1
17	17	5
64	65	1
4	4	3
46	46	2
84	86	2
105	115	1
21	22	1
70	70	7
3	9	1
14	28	1
125	127	1
15	17	1
66	66	2
30	40	1
39	39	1
22	31	2
102	108	1
130	130	1
61	61	2
64	76	1
131	131	7
34	34	5
108	110	3
84	88	1
132	132	1
109	109	4
111	111	1
112	112	3
105	113	1
11	17	2
82	82	3
22	23	2
13	18	2
57	57	6
14	16	1
118	118	2
17	33	1
4	13	2
45	45	2
21	21	2
128	129	1
79	79	2
58	58	1
100	118	1
72	72	6
97	103	1
113	125	2
31	32	1
103	105	2
10	10	4
20	21	3
78	78	3
13	16	1
37	39	1
67	75	1
114	130	1
22	22	4
46	47	3
7	7	2
115	115	4
81	93	1
32	32	4
72	74	2
127	127	3
19	19	2
44	44	3
47	47	4
100	117	1
17	18	1
12	12	6
30	30	1
4	5	3
1	1	1
90	91	1
119	120	3
79	90	1
108	122	1
20	59	1
33	40	2
15	15	1
108	108	4
77	78	1
58	82	1
80	80	2
27	40	2
126	126	3
28	36	2
123	126	2
96	126	2
81	81	1
62	70	2
33	44	2
18	73	1
84	84	2
23	24	1
94	94	3
33	34	2
12	13	1
125	131	1
88	90	1
8	8	3
57	60	1
47	48	1
122	130	1
34	36	2
133	133	4
46	49	1
5	10	1
117	126	1
111	116	2
90	90	2
86	86	2
106	106	2
91	94	1
9	9	4
41	44	1
87	100	2
2	2	1
68	68	2
98	127	1
20	44	1
23	25	1
95	95	3
118	119	2
115	126	1
5	5	4
2	3	3
101	101	3
14	14	1
40	41	1
130	132	2
72	79	1
98	98	1
6	36	1
25	26	1
97	105	1
69	69	2
117	117	3
73	73	4
122	122	4
89	97	1
110	110	2
102	102	2
60	60	2
113	113	2
91	91	1
48	48	3
124	124	4
115	116	1
35	36	1
28	34	1
47	73	1
99	99	1
16	16	4
6	7	4
82	87	1
29	29	1
73	74	2
98	99	1
116	117	1
37	38	1
66	67	1
57	58	3
6	6	2
8	34	1
14	26	1
93	98	1
46	57	1
97	97	3
45	47	1
129	131	1
21	30	1
63	74	1
71	72	1
134	134	3
111	113	1
120	125	1
3	8	2
36	42	1
94	95	1
71	73	1
106	107	1
96	104	1
0	3	2
127	130	1
33	45	1
83	99	1
129	134	1
126	132	1
42	43	1
97	98	1
97	102	2
49	50	2
87	89	1
99	101	1
114	114	4
123	129	1
19	29	1
41	43	1
61	63	1
33	33	1
40	40	1
16	22	1
110	120	1
41	42	2
23	23	2
49	49	1
75	85	2
91	92	1
89	89	2
64	66	1
116	130	1
25	28	1
122	134	1
33	74	1
93	95	1
13	13	2
75	76	1
101	106	1
3	4	2
24	27	2
28	29	1
108	116	1
74	79	1
124	126	1
31	49	1
117	118	1
102	106	1
112	113	1
120	124	1
114	128	1
25	25	1
68	69	1
101	119	1
84	85	1
82	104	1
35	35	2
76	81	1
131	132	2
41	41	1
59	60	1
22	26	1
56	63	1
88	88	2
35	43	1
112	121	1
128	133	1
47	49	1
27	30	1
83	85	1
33	46	1
31	31	1
103	104	2
116	125	1
120	120	1
23	30	1
8	21	1
109	110	1
56	62	1
42	42	2
121	124	1
71	71	1
69	74	1
62	63	1
129	130	1
90	101	1
91	96	1
113	120	1
44	45	1
2	6	1
117	123	1
96	96	1
126	127	1
85	93	1
85	96	1
79	114	1
89	91	1
14	20	1
19	33	1
7	35	1
0	1	1
11	15	1
125	126	1
79	115	1
111	117	1
85	85	1
7	8	1
115	128	1
76	77	1
38	38	1
0	0	1
102	129	1
4	9	1
85	86	1
1	2	1
