184	220	2
190	190	2
218	218	4
94	94	5
21	21	6
64	66	1
99	99	7
85	85	2
102	102	4
84	85	1
14	14	7
187	187	5
241	242	2
69	224	2
28	28	4
5	160	1
114	114	10
70	70	4
240	240	3
23	24	2
109	111	2
60	60	4
43	90	1
2	3	3
4	7	1
230	230	7
193	194	2
92	92	3
234	234	4
195	195	5
180	181	1
210	211	2
36	36	3
214	214	6
199	245	1
168	223	1
24	24	5
204	204	13
96	96	6
79	81	4
33	34	1
112	112	3
5	5	4
46	46	10
8	8	4
192	194	1
205	225	1
48	55	1
115	115	4
199	199	7
174	178	1
10	224	1
56	56	10
200	215	1
162	180	1
186	192	1
21	22	5
53	53	8
117	117	7
177	188	2
70	75	1
113	116	1
175	175	9
208	216	1
215	215	7
169	170	1
1	1	7
217	219	1
162	165	6
243	244	6
145	168	5
3	3	11
36	153	1
218	222	1
68	95	1
38	38	8
195	198	1
166	166	4
206	233	2
163	163	2
197	198	1
217	217	6
209	214	2
219	219	7
229	229	11
202	202	6
87	87	3
72	72	2
223	224	2
227	227	7
68	68	3
227	228	4
33	37	1
203	203	6
225	225	5
78	79	2
100	101	1
78	80	1
167	167	6
86	97	2
82	82	6
184	184	9
195	200	1
240	241	3
224	245	2
22	22	10
183	183	9
172	174	3
201	201	7
155	155	3
174	211	1
234	235	3
110	119	3
109	109	7
19	19	6
185	185	4
177	177	6
33	36	1
25	25	10
36	38	1
57	58	2
73	74	3
11	37	1
158	158	7
26	26	7
173	174	1
18	18	12
95	96	2
211	211	5
174	180	1
42	44	2
55	57	4
152	152	7
98	102	1
144	144	2
216	217	2
102	103	1
12	32	1
181	181	4
70	117	1
51	51	4
18	224	1
209	209	5
18	20	1
7	7	8
237	239	1
119	162	3
95	95	4
66	70	1
222	222	2
58	58	9
193	198	1
158	167	1
169	169	5
164	164	4
101	101	12
98	98	4
27	27	5
67	67	3
79	85	1
59	90	2
45	45	7
13	42	1
215	216	4
30	33	1
64	64	1
210	210	5
75	77	1
73	73	1
239	247	1
115	116	2
211	212	3
109	110	1
146	149	1
167	168	1
232	233	2
43	229	1
238	239	1
49	50	7
205	205	8
66	66	4
226	226	4
17	18	1
151	151	3
193	226	2
88	88	1
115	119	2
99	100	1
186	186	7
100	162	1
67	92	3
179	180	1
208	208	4
39	39	3
54	54	6
18	115	1
213	213	4
36	111	1
231	231	4
248	248	4
244	244	5
79	79	4
78	78	2
198	199	5
236	236	5
159	159	5
3	16	1
145	179	1
193	195	1
74	75	3
77	77	4
202	212	1
47	47	5
38	156	1
85	159	1
174	229	1
77	78	1
55	56	2
9	9	7
172	173	3
188	188	2
52	52	6
179	179	4
246	246	6
23	23	11
245	246	4
17	17	7
110	110	7
177	221	1
20	20	4
172	246	1
209	210	1
162	208	1
108	111	1
107	107	9
3	4	1
235	243	1
4	4	5
193	197	1
69	220	1
207	207	6
111	111	3
180	205	1
153	153	3
8	9	3
191	192	3
47	58	1
99	103	1
40	41	3
11	11	12
48	48	7
241	241	9
66	206	1
173	176	1
154	154	5
224	224	1
219	222	1
157	157	6
61	77	1
238	238	7
40	40	6
244	246	1
225	229	1
233	236	1
23	30	1
163	164	2
49	51	3
213	234	1
189	190	1
36	39	2
31	33	1
46	48	1
106	115	3
206	206	5
32	33	3
35	35	5
168	234	1
203	205	2
212	219	1
173	241	1
47	49	1
220	245	2
233	233	7
104	104	1
188	191	2
237	237	4
37	38	4
34	34	4
2	2	2
167	173	1
44	44	3
161	161	2
62	63	1
58	62	1
53	230	1
87	245	1
20	21	2
25	116	1
213	224	1
32	32	7
221	240	1
41	42	1
114	117	1
23	26	1
100	100	2
18	19	2
162	162	8
4	6	1
159	164	3
74	74	3
177	219	1
221	221	9
51	56	1
245	245	2
110	111	5
80	81	4
227	247	1
70	78	1
191	194	1
192	192	3
160	202	2
59	60	2
30	31	2
237	244	1
194	197	2
225	226	1
223	223	4
222	229	2
17	110	2
48	51	2
183	191	1
205	213	1
19	20	3
217	237	1
186	221	1
160	160	7
205	206	2
79	80	3
50	241	1
10	27	1
91	110	1
214	223	1
177	178	1
168	225	3
241	243	1
163	165	1
15	15	7
104	113	1
145	145	3
220	242	3
236	237	3
66	204	1
184	191	1
182	182	6
105	107	3
187	188	5
202	206	1
154	155	1
224	231	2
101	103	2
75	80	2
194	194	2
172	172	6
2	5	1
88	104	2
60	62	2
188	220	1
62	62	3
113	113	3
247	247	5
30	30	8
84	84	1
101	102	2
110	145	3
168	168	2
52	71	2
184	222	1
37	42	2
45	109	1
29	120	1
157	167	1
190	191	2
150	150	5
238	244	1
43	43	3
86	101	1
191	191	3
47	59	1
29	30	1
31	91	1
170	214	1
76	76	4
93	101	1
52	53	4
213	214	2
87	100	1
86	86	5
182	197	1
230	231	4
91	222	1
242	242	5
96	98	1
168	170	2
184	232	2
118	119	2
65	65	3
41	41	10
199	200	2
72	76	1
156	156	8
232	232	3
207	220	1
63	66	3
4	60	1
221	222	4
87	94	1
37	37	1
170	171	1
164	188	1
47	48	5
161	162	1
69	69	3
43	44	2
185	201	1
3	34	1
176	232	1
71	71	1
239	239	4
212	213	1
44	45	2
58	59	1
222	223	2
33	33	3
50	50	4
222	225	1
146	146	3
12	204	1
208	213	1
10	11	1
170	170	3
55	55	6
178	178	4
51	52	2
76	88	1
235	237	2
171	193	1
228	228	8
198	198	6
6	6	3
42	109	1
166	213	1
212	212	2
91	91	2
170	216	1
157	166	1
94	158	1
16	16	4
39	41	1
116	116	8
216	216	2
216	244	1
10	10	4
31	32	2
83	84	1
182	183	2
192	196	1
220	221	1
189	221	1
246	247	2
29	29	3
216	242	2
202	203	3
181	198	1
58	63	2
171	171	9
64	65	3
1	44	2
235	235	3
173	180	1
48	57	1
204	223	1
150	153	1
6	8	1
112	148	1
97	98	1
192	247	1
224	237	1
182	201	1
213	215	1
241	247	1
12	14	1
42	42	11
186	233	1
24	155	1
193	223	2
97	97	2
183	202	1
236	245	1
76	78	1
71	72	2
50	79	1
163	179	1
188	196	1
12	12	5
111	120	1
116	117	1
4	5	2
70	108	1
174	174	2
168	169	1
169	192	1
49	49	4
210	216	1
76	99	1
5	6	2
183	184	3
232	234	1
198	219	1
90	90	3
184	192	2
180	180	3
203	204	2
197	201	1
44	47	1
178	179	2
42	43	3
68	70	2
154	156	1
214	221	1
158	177	1
234	242	1
53	67	1
160	172	1
243	243	2
92	114	1
57	57	3
162	163	3
56	221	1
28	29	2
89	89	1
27	28	2
223	227	1
204	207	2
216	237	2
214	216	1
59	59	2
193	193	2
200	200	5
87	88	1
176	178	1
53	54	1
36	63	1
103	103	2
100	118	1
21	31	1
38	40	1
15	17	2
31	31	3
197	214	1
172	177	1
17	44	1
26	41	1
18	21	1
52	58	1
203	240	1
14	23	1
3	19	1
86	108	1
197	197	2
112	197	1
37	39	1
6	10	1
63	71	1
229	234	1
194	195	2
180	182	1
235	241	1
57	59	1
225	227	1
3	5	1
40	42	2
73	76	1
53	152	1
0	1	1
85	86	1
214	215	1
44	229	1
179	236	1
190	195	1
207	208	1
60	77	1
208	209	3
89	90	1
155	156	2
211	240	1
164	172	1
219	238	1
206	207	1
61	61	1
92	211	2
80	84	1
16	222	1
152	153	1
220	223	1
111	113	1
110	180	1
91	92	1
232	244	1
29	151	1
101	108	1
192	199	1
242	249	2
249	249	1
109	180	1
190	192	2
11	18	1
40	47	1
58	60	1
11	14	1
187	190	1
20	39	1
24	25	1
173	173	2
119	119	2
112	114	1
160	164	1
145	181	1
200	220	1
90	96	1
112	113	1
170	246	1
228	231	1
241	245	1
17	20	1
182	228	1
191	200	1
218	219	3
35	36	1
56	57	1
235	236	2
146	147	1
93	93	1
93	94	3
80	80	2
118	118	2
231	232	1
65	66	1
239	240	2
118	120	1
45	47	1
180	186	1
192	195	1
63	63	1
187	192	1
115	118	1
59	62	1
113	115	1
86	90	1
196	200	1
165	167	1
20	205	1
73	75	1
165	192	1
6	12	1
20	23	1
107	108	1
14	15	2
17	29	1
92	93	1
177	193	1
179	201	1
149	168	1
237	238	1
96	97	1
83	83	1
22	23	1
65	72	1
105	105	1
186	241	1
168	180	1
36	37	2
35	39	1
21	32	1
175	195	1
204	206	1
217	240	1
76	107	2
218	244	1
175	176	1
172	203	1
65	209	1
108	108	1
170	247	1
164	210	1
187	232	1
169	171	1
185	208	1
209	218	2
197	220	1
2	9	1
116	118	1
181	182	1
36	42	1
156	157	1
204	205	1
35	38	1
74	88	1
99	106	1
223	240	1
112	231	1
51	112	1
65	91	1
77	81	1
43	91	1
6	7	1
103	104	1
108	112	1
101	120	1
213	230	1
61	62	2
195	208	1
41	109	1
61	65	1
43	45	1
243	248	1
221	248	1
12	13	1
207	242	1
8	10	1
114	162	1
185	235	1
58	70	1
171	182	1
115	117	1
165	210	1
