61	61	3
81	92	2
95	96	2
47	48	3
43	44	1
93	108	1
60	100	1
79	79	2
94	94	4
91	91	14
37	80	1
87	91	1
90	92	2
46	46	2
47	47	2
79	81	1
83	87	1
81	81	9
89	90	1
90	90	10
87	87	4
106	106	3
75	75	1
39	39	2
23	43	1
62	62	2
65	65	6
91	92	7
66	98	2
29	45	1
108	108	5
44	45	1
93	96	1
59	62	2
25	26	3
64	65	3
76	76	3
93	93	7
23	26	1
21	21	2
43	43	3
83	84	2
75	83	1
55	68	1
97	102	1
57	57	2
63	63	3
102	103	1
97	99	1
27	28	2
114	114	4
40	41	2
35	35	2
36	57	2
66	66	1
30	32	1
80	80	2
101	109	1
78	80	1
76	80	1
106	107	1
65	90	1
96	97	2
81	95	1
110	110	3
55	56	2
90	91	3
64	64	1
58	58	4
42	42	2
80	81	1
97	109	1
21	23	1
60	73	1
78	79	2
84	84	2
78	78	2
67	86	3
24	24	2
71	71	1
77	77	1
54	54	3
63	82	1
41	42	1
66	70	1
86	96	1
92	92	13
67	67	2
73	87	1
53	53	1
89	89	2
85	85	3
51	113	1
36	36	4
33	74	1
84	88	1
60	66	1
54	55	2
32	32	2
111	112	2
25	25	1
51	51	1
38	38	1
98	98	2
108	109	4
70	72	1
69	70	2
36	81	1
27	29	1
32	33	1
110	111	1
28	28	3
67	98	1
28	33	1
56	58	1
36	37	1
78	101	1
72	72	2
86	86	5
69	69	4
97	97	4
75	108	1
88	88	1
68	68	2
98	99	1
96	96	2
102	102	2
113	113	4
52	52	2
68	69	1
50	51	4
90	93	1
70	71	1
43	63	1
48	79	1
63	64	2
48	48	2
111	111	4
58	59	2
113	114	1
65	92	1
105	105	1
89	94	1
47	67	1
66	90	2
50	50	2
93	95	1
56	56	1
74	80	1
38	55	1
82	82	2
67	71	1
53	60	2
76	77	1
37	55	1
34	43	1
60	60	2
45	45	1
41	111	1
60	62	1
40	40	1
60	80	1
36	56	1
64	90	2
80	114	1
99	99	2
74	74	2
27	27	2
106	109	1
29	29	2
59	59	1
80	89	1
103	103	3
46	97	1
91	93	1
31	31	2
61	62	1
91	108	1
34	35	1
81	82	1
36	42	1
68	70	1
75	80	1
28	29	2
29	30	2
24	25	1
26	27	1
30	30	1
45	52	1
83	83	2
34	34	2
93	94	1
34	36	1
33	33	2
44	44	1
37	88	1
22	23	1
45	46	1
63	65	1
89	95	1
37	39	1
76	78	1
81	90	1
48	49	1
26	26	1
89	92	1
53	75	1
92	93	2
52	53	1
95	95	3
71	72	1
100	100	1
62	64	1
22	22	1
61	63	1
80	83	1
44	53	1
78	102	1
92	110	1
66	67	1
51	52	1
25	27	1
77	78	1
107	107	1
50	66	1
