82	85	1
144	145	1
115	115	2
7	25	1
2	3	2
39	39	3
34	35	4
48	48	5
146	146	3
81	81	5
19	19	5
109	110	4
139	139	4
51	51	5
61	83	1
123	123	9
23	23	8
39	66	1
34	63	3
11	11	5
127	128	2
131	134	2
34	37	1
28	28	7
104	104	1
73	73	2
94	94	7
102	103	6
1	1	4
119	119	7
21	21	7
108	135	3
103	104	4
25	25	7
97	97	5
37	38	4
109	109	6
141	141	4
29	29	5
99	100	1
40	41	1
129	130	2
77	78	1
11	42	1
90	90	4
98	98	6
37	37	12
55	56	6
51	90	2
36	38	2
52	58	1
8	8	4
140	140	6
108	108	5
74	74	2
132	132	5
60	60	2
49	49	4
49	52	3
143	144	2
87	87	2
30	30	4
13	42	1
80	134	1
67	91	1
49	94	2
10	11	5
34	34	3
77	77	3
83	85	1
105	105	9
54	54	6
102	102	5
43	66	1
15	15	4
50	50	2
17	18	3
123	124	1
18	19	1
52	54	1
140	141	1
120	120	6
117	117	2
35	35	5
87	89	2
76	76	1
93	123	2
60	79	2
23	24	3
49	93	1
144	144	7
27	27	3
95	95	5
113	113	3
116	117	3
4	4	5
71	89	1
47	47	3
92	92	8
124	124	6
53	103	1
83	84	4
71	121	1
145	145	9
121	133	2
67	67	4
71	71	2
121	122	2
26	26	4
131	132	2
35	43	2
35	36	1
103	103	5
64	65	6
117	118	1
64	64	4
143	143	3
58	58	5
93	134	1
83	83	7
91	91	7
104	105	1
110	119	1
112	112	2
27	28	1
16	16	2
0	0	1
28	29	2
59	59	6
116	119	1
110	117	2
56	77	1
129	134	1
66	66	10
69	70	1
62	62	6
72	74	1
91	124	1
96	97	3
68	68	6
31	32	4
89	111	1
68	69	2
40	40	4
63	64	2
75	85	1
82	82	2
130	130	3
36	37	4
4	6	1
91	98	1
65	65	9
14	16	1
85	86	1
10	10	4
135	135	4
116	116	7
0	19	1
56	57	1
64	84	1
80	80	3
9	9	2
11	17	1
24	24	5
101	101	3
3	32	2
137	139	2
126	126	6
71	72	2
105	109	2
38	38	6
5	5	3
87	117	1
110	110	4
118	118	6
53	53	2
56	56	3
49	68	1
43	43	3
109	111	1
129	129	6
99	104	1
99	99	6
94	105	2
112	137	1
136	137	4
42	42	6
11	128	2
28	133	1
73	75	1
79	79	2
92	119	1
88	93	1
8	9	5
114	114	3
52	52	4
53	54	2
142	142	2
138	138	2
36	50	1
81	82	4
57	57	2
79	80	1
2	2	2
121	121	3
31	31	5
97	98	1
136	138	1
127	127	4
72	72	5
130	143	1
100	101	1
107	109	2
110	133	1
61	61	3
6	6	2
55	55	1
86	104	1
34	36	1
3	31	1
90	91	5
62	91	1
1	38	1
128	129	1
118	120	1
52	90	1
22	22	5
13	13	5
51	53	1
107	107	4
39	41	1
1	28	1
65	66	1
63	63	3
52	71	1
22	23	1
4	5	2
74	75	1
89	89	2
41	41	3
58	74	1
122	122	3
131	131	3
68	77	2
50	52	1
37	57	1
33	33	3
21	22	1
53	90	1
74	80	1
125	125	2
75	79	1
25	64	1
33	38	1
105	106	3
48	108	1
94	126	1
33	87	1
135	140	1
93	95	2
108	109	2
18	18	1
18	100	1
24	25	1
133	133	2
128	128	5
115	119	1
111	111	3
59	60	1
86	86	1
8	12	1
118	122	2
124	141	1
64	91	1
25	42	1
70	70	2
72	73	1
5	13	1
41	42	2
98	117	2
84	84	1
69	82	1
27	29	1
95	100	1
73	74	1
111	134	1
14	14	3
8	22	1
91	134	1
9	144	1
26	54	1
54	56	1
87	116	2
61	120	1
12	12	1
112	114	1
15	17	1
78	80	1
63	87	1
76	89	1
82	91	1
36	36	1
61	67	1
95	111	1
17	17	1
32	32	1
85	85	1
128	135	1
92	93	1
126	130	1
2	8	1
107	108	1
38	110	1
112	113	2
14	52	1
77	93	3
62	66	1
90	95	1
20	20	2
119	121	3
49	50	1
75	77	1
118	134	1
126	127	1
71	126	1
54	55	4
9	98	1
91	92	1
61	62	1
135	137	2
84	85	1
124	125	4
128	130	1
19	29	1
26	27	1
25	31	1
40	127	1
40	53	1
98	124	1
23	52	1
121	124	1
136	139	1
61	86	1
137	137	2
111	112	1
108	131	1
134	134	2
29	30	1
108	116	1
38	95	1
20	21	1
32	43	1
136	136	2
65	88	1
75	75	2
87	108	1
13	15	1
56	110	1
23	25	1
60	62	1
111	138	1
38	74	1
75	80	1
0	1	2
67	68	2
53	70	1
77	84	1
14	15	1
101	102	1
66	67	1
3	4	1
56	92	1
120	121	2
33	52	1
122	123	1
83	94	1
60	93	1
69	79	1
113	121	1
114	116	1
82	83	1
33	34	2
118	119	1
13	17	1
21	27	1
35	48	1
37	52	1
95	96	1
130	133	1
90	94	1
39	40	1
15	22	1
58	59	1
5	24	1
125	133	1
69	69	1
13	14	1
88	88	1
20	40	2
88	90	1
17	23	1
132	133	1
100	100	1
68	73	1
135	138	1
98	101	1
66	68	1
93	93	1
59	63	1
33	36	1
85	111	1
