23	191	1
131	131	1
141	141	4
193	193	1
24	26	1
53	53	1
47	48	1
173	173	1
181	181	2
140	140	1
21	21	1
178	178	2
10	37	1
53	57	1
37	37	5
27	34	1
35	35	2
52	52	3
24	24	3
16	17	2
170	170	3
137	186	1
177	178	3
183	184	4
161	161	3
179	179	3
196	196	5
186	186	2
77	77	1
19	60	2
189	189	1
12	12	2
138	141	1
194	194	7
155	155	2
69	88	1
16	16	1
87	87	5
66	135	1
20	21	3
32	33	2
135	135	3
42	42	1
64	65	2
34	36	2
190	190	1
146	147	1
58	59	2
47	47	1
39	40	1
166	166	1
41	41	1
23	47	1
175	176	1
13	17	2
8	17	1
36	36	5
13	13	7
21	23	1
145	145	1
49	49	1
143	148	1
19	26	2
14	14	3
64	64	1
180	181	1
145	146	1
71	71	1
65	65	5
3	3	2
124	124	2
100	101	1
190	191	2
61	74	1
133	133	2
72	72	1
23	33	1
187	187	1
38	50	1
110	110	2
7	7	3
144	145	1
180	180	2
104	104	2
27	27	1
69	69	1
76	76	1
29	30	3
8	8	3
15	15	3
94	95	3
68	68	1
17	17	3
22	25	3
142	183	1
100	100	4
79	81	1
178	191	1
156	160	1
176	180	1
167	167	2
110	154	2
140	141	1
151	151	2
124	128	1
36	37	1
135	164	1
160	160	1
95	107	1
185	185	2
162	163	1
29	29	1
183	186	1
50	51	1
37	194	1
151	152	3
1	1	3
6	9	1
129	129	2
4	9	1
192	192	2
168	168	2
177	177	4
98	98	4
158	158	1
62	68	1
107	107	1
10	60	1
63	63	2
21	46	1
50	50	1
56	90	1
38	38	1
160	172	1
44	51	2
9	9	7
26	26	2
19	19	1
96	136	1
37	61	1
156	156	3
103	104	1
141	150	1
96	97	1
12	23	1
11	11	2
175	177	1
165	166	1
46	46	2
43	43	2
153	153	2
182	182	1
69	70	1
8	24	1
134	135	1
130	140	2
185	186	1
152	152	1
55	87	1
111	159	2
136	136	1
38	49	3
157	159	1
101	101	2
188	189	1
54	56	1
13	14	1
17	20	2
45	45	6
154	155	2
48	48	2
62	78	1
44	44	2
90	90	1
155	156	1
118	118	1
17	112	1
61	62	1
20	20	2
28	29	2
10	10	2
19	20	1
9	24	1
150	151	1
40	41	1
21	140	1
11	14	1
125	125	1
172	172	1
121	121	1
18	18	2
128	128	1
82	82	1
132	137	1
195	196	3
142	142	1
152	187	1
24	40	1
22	23	1
34	34	1
131	140	1
67	69	1
134	134	1
169	169	1
78	78	1
28	64	1
6	8	1
21	70	1
67	68	1
58	58	1
5	9	2
183	193	1
75	75	3
6	7	1
67	67	1
159	162	1
103	105	1
159	159	2
194	196	1
60	60	1
146	146	1
176	189	1
111	155	1
45	46	2
38	151	1
25	25	2
10	13	1
147	147	1
126	127	1
33	33	2
39	39	2
10	16	1
153	168	1
9	13	1
65	69	1
5	5	3
104	105	2
33	34	1
43	44	2
33	197	1
182	192	1
143	143	2
40	40	1
116	116	1
136	138	1
13	47	1
83	86	1
130	130	1
74	74	1
66	66	1
55	60	1
132	132	1
181	182	1
122	122	1
156	170	1
37	40	1
157	157	3
29	68	2
1	2	2
95	139	1
155	185	1
43	105	1
90	98	1
175	175	1
44	47	1
39	66	1
16	18	1
115	121	1
154	154	1
139	140	1
