67	68	2
50	50	1
17	17	4
124	125	3
113	114	3
94	117	1
73	73	6
109	134	1
107	107	3
56	56	4
29	29	8
111	111	11
51	55	1
26	38	1
27	27	11
94	94	2
117	117	6
91	114	1
109	122	2
76	76	9
6	6	4
14	43	1
74	74	6
34	34	6
32	32	6
126	126	5
15	16	5
90	90	7
9	9	9
38	38	6
60	61	1
81	82	2
91	117	1
66	66	3
47	57	2
2	8	1
112	114	2
70	70	5
118	118	3
115	115	11
2	2	6
24	24	1
116	129	1
22	27	1
22	26	1
61	61	3
84	84	5
77	78	3
83	108	1
24	28	1
72	72	3
119	119	4
120	120	7
78	80	1
40	49	2
63	63	1
42	42	9
31	31	3
108	109	2
114	115	3
99	101	3
110	110	3
87	88	3
20	62	1
20	22	1
79	80	4
85	120	2
68	68	5
86	86	4
3	3	4
6	126	1
80	86	2
78	85	2
40	40	4
54	54	1
125	125	9
103	133	1
29	43	2
44	44	8
103	105	1
130	131	4
18	18	5
0	33	2
26	26	2
19	19	7
67	67	3
45	45	6
12	60	1
46	46	2
65	65	8
12	12	8
57	59	1
14	15	1
78	127	1
58	59	1
130	132	1
102	121	4
57	57	3
95	96	5
5	27	1
79	88	1
11	12	2
91	92	3
10	44	1
113	113	4
83	84	2
59	59	7
8	9	1
12	33	1
31	32	1
78	102	1
111	114	1
104	106	1
133	133	6
34	38	1
39	39	1
89	91	1
89	89	2
88	88	3
21	21	5
21	22	3
106	127	3
99	99	4
41	41	6
122	123	3
28	29	1
102	104	1
115	119	2
62	65	1
33	33	4
79	84	2
130	130	5
109	110	3
26	31	2
20	59	1
102	109	1
13	13	7
28	28	6
106	106	5
106	120	2
128	128	4
118	131	1
10	13	2
134	134	7
82	84	1
23	29	1
74	75	2
120	124	2
36	36	4
20	21	1
94	95	2
109	109	6
87	106	1
92	116	3
98	132	1
91	93	1
114	116	1
128	133	2
39	41	1
55	55	3
46	48	1
22	22	2
7	7	4
23	23	3
79	79	4
86	87	4
114	114	2
97	97	5
37	38	3
70	72	1
77	123	2
97	133	1
46	47	1
10	11	2
57	85	1
123	123	6
92	92	5
94	118	1
37	37	8
99	120	3
111	126	1
113	123	1
131	131	4
16	17	1
13	14	2
81	99	3
35	35	6
101	101	4
1	2	3
47	110	2
57	93	1
24	25	1
80	80	1
36	38	1
133	134	2
30	30	5
32	34	1
28	38	1
59	60	2
86	90	1
43	68	1
43	43	4
16	16	5
21	24	1
12	14	2
17	75	1
103	103	4
10	10	6
106	107	1
119	125	1
62	63	2
1	1	1
62	62	1
127	127	7
70	71	2
12	115	1
24	26	3
124	124	2
132	132	2
17	18	2
44	45	2
55	85	1
103	110	1
45	46	1
20	23	1
66	68	1
14	65	1
127	128	1
82	102	1
85	85	9
87	87	4
71	71	2
26	29	1
95	95	1
16	73	1
83	83	6
93	93	3
32	33	2
4	97	1
15	43	1
56	59	1
69	108	1
96	96	4
121	121	1
115	125	1
100	100	1
77	77	1
105	115	1
82	97	1
73	96	1
5	5	3
14	14	3
61	70	1
11	11	6
68	70	1
108	115	1
44	128	1
105	105	5
58	58	3
5	6	1
6	9	2
56	58	2
86	93	1
20	39	1
108	116	3
122	122	5
79	93	1
21	31	1
114	129	1
93	94	1
9	96	3
0	1	1
83	100	1
64	64	3
70	77	1
8	8	4
112	125	1
79	108	1
124	126	1
27	42	1
106	115	1
9	10	1
3	119	1
82	116	1
23	24	2
31	35	1
63	67	2
32	41	1
48	48	2
20	20	2
125	134	1
119	120	1
68	75	2
32	44	2
25	25	3
33	38	1
26	27	1
4	4	3
126	129	1
96	97	2
73	118	2
78	79	1
26	36	1
94	124	1
107	110	1
57	78	1
90	91	2
82	83	2
32	43	1
1	13	1
85	86	2
12	20	2
75	76	2
18	21	1
17	72	1
91	91	1
42	49	1
69	72	1
116	116	4
118	119	2
46	119	1
84	88	1
128	129	2
27	34	1
3	61	2
13	24	1
51	66	1
6	16	1
14	32	2
23	31	1
104	121	1
98	99	1
33	35	2
78	108	1
20	24	1
79	95	1
112	113	1
55	56	1
14	123	2
57	67	1
25	27	1
105	114	1
113	129	2
60	60	2
28	30	1
130	133	1
35	41	1
94	109	1
132	133	1
111	121	1
117	124	2
92	118	2
95	116	2
80	84	2
56	83	2
70	73	1
98	98	1
106	130	1
14	38	1
63	64	2
43	46	1
69	69	2
36	88	2
71	72	1
96	99	1
96	109	1
47	47	3
82	82	3
2	118	1
83	94	2
7	9	2
19	20	2
30	58	1
61	62	2
57	70	1
57	58	1
60	89	1
11	18	1
17	64	1
69	74	1
72	74	1
25	81	1
104	104	2
18	19	1
79	92	1
78	78	1
76	77	1
90	92	2
44	46	1
5	8	1
87	90	1
15	19	1
113	115	1
64	65	1
39	40	2
104	130	1
72	73	2
94	114	1
97	100	1
35	42	1
81	84	1
105	111	1
107	108	1
15	113	1
57	60	1
81	83	1
14	58	1
78	113	1
91	109	1
80	81	1
119	132	1
12	13	1
36	44	1
112	129	3
112	112	1
47	83	1
41	49	1
110	132	1
35	36	2
105	125	1
120	121	2
49	49	1
86	104	1
27	28	1
115	116	1
55	65	1
43	44	1
37	40	1
115	134	1
9	77	1
21	26	1
37	39	1
8	93	1
21	28	1
42	62	1
111	119	1
14	18	1
110	111	1
97	99	1
88	113	1
104	128	1
123	124	2
38	46	1
2	3	1
14	78	1
5	7	1
102	105	1
60	73	1
75	75	1
84	90	1
89	90	1
