120	120	3
43	43	3
24	25	1
50	50	6
139	139	3
17	17	4
149	149	4
23	23	3
195	195	3
142	142	2
130	130	2
148	148	3
179	179	2
11	11	1
155	155	3
103	105	3
19	19	3
122	122	2
123	123	5
180	182	1
80	85	1
153	184	1
28	28	2
24	24	5
129	129	2
12	12	3
189	189	2
105	105	2
53	54	1
89	89	1
127	127	2
15	15	1
157	157	2
107	107	1
31	31	1
45	64	1
155	182	1
36	37	2
40	40	3
86	95	1
41	41	1
58	58	3
172	172	5
65	65	1
159	159	1
189	190	1
51	51	2
196	196	1
2	35	1
190	191	1
164	164	1
70	71	1
77	78	1
60	60	1
26	27	2
46	46	3
69	69	4
172	178	1
45	45	2
184	184	2
193	193	4
21	21	2
169	169	1
32	32	1
135	176	1
112	112	2
10	10	2
187	193	1
14	14	1
25	25	1
194	194	1
47	47	2
13	13	3
74	74	3
19	26	1
87	87	1
38	38	1
9	10	1
164	172	1
127	128	2
163	163	1
54	54	2
33	34	2
166	166	2
183	183	1
168	168	2
153	153	2
22	22	3
56	58	1
4	159	1
151	152	2
146	148	2
14	15	1
103	103	1
15	21	1
150	150	1
98	98	1
46	49	1
8	8	2
20	26	1
171	171	1
23	24	1
32	94	1
191	191	1
171	177	1
51	52	2
192	192	1
16	16	3
136	136	1
67	68	1
150	151	2
62	62	2
48	49	1
20	20	1
114	114	1
33	33	3
15	79	2
167	167	1
6	6	1
1	8	1
34	35	1
104	104	1
140	140	1
73	74	1
186	186	3
161	161	2
116	117	1
86	87	1
82	82	2
135	135	1
163	174	1
3	3	1
130	170	1
16	33	1
76	76	1
16	17	1
13	14	1
39	81	1
55	55	2
155	164	1
33	45	1
115	115	1
34	54	1
43	72	1
100	101	1
9	9	3
72	72	1
10	12	1
197	197	2
26	30	1
187	187	1
39	41	2
7	18	1
101	108	1
160	160	1
106	106	2
85	85	1
7	7	2
170	171	1
42	43	1
18	18	1
94	94	1
15	17	1
151	151	1
144	144	2
56	56	1
100	124	1
154	155	1
98	99	1
61	62	1
96	96	1
137	152	1
164	165	1
64	66	1
2	27	1
65	72	1
49	49	1
88	155	1
3	178	1
12	37	1
30	31	1
158	165	1
54	55	1
170	170	1
42	42	1
182	182	1
59	61	2
156	156	1
36	86	1
29	31	1
126	126	1
52	52	1
29	30	1
123	187	1
125	125	1
12	13	1
32	42	1
27	27	1
