225	225	7
234	235	4
118	119	5
243	245	2
11	11	12
231	231	3
180	204	1
4	4	5
221	229	1
117	117	2
230	244	1
236	236	5
36	36	3
19	19	6
186	241	1
78	85	1
209	209	10
35	36	2
69	70	2
90	110	1
62	62	5
55	247	1
1	1	4
90	90	4
106	106	1
175	175	8
175	203	1
196	221	1
183	188	1
190	196	1
111	111	9
193	195	5
181	201	1
248	248	2
27	27	4
232	232	6
234	234	5
50	80	1
114	114	10
173	174	3
238	238	9
172	201	1
85	86	2
97	98	3
87	87	4
48	49	2
223	224	1
171	171	4
68	90	1
73	209	1
52	52	3
210	210	4
241	241	7
204	204	7
72	72	4
172	174	2
158	160	1
1	20	1
110	118	1
211	211	4
42	42	6
99	99	7
103	103	2
24	27	1
182	182	7
96	99	1
100	101	2
14	14	5
5	5	10
173	209	1
181	181	8
35	35	6
166	166	3
216	217	3
38	38	7
18	18	9
217	219	4
189	199	1
211	212	1
10	10	5
6	163	2
151	151	10
210	211	1
47	59	2
173	226	1
17	18	1
181	182	1
43	44	1
185	186	2
116	116	4
109	109	7
166	208	2
208	208	9
177	177	12
193	193	5
245	246	3
50	51	1
32	40	1
202	202	4
199	199	5
119	119	6
189	189	2
108	108	5
82	82	2
194	194	5
78	80	1
201	201	10
198	209	1
43	43	6
65	66	1
23	245	1
217	217	7
7	7	8
32	32	6
88	88	1
193	219	2
23	27	1
175	211	1
230	231	3
9	9	4
68	69	1
237	237	5
85	85	7
157	157	5
31	32	1
169	169	5
221	225	1
39	39	6
219	219	3
59	62	2
66	66	6
192	195	2
246	246	4
215	215	3
167	167	7
223	223	5
235	235	4
180	197	1
204	205	3
26	26	3
32	33	4
179	179	4
245	245	6
163	163	6
201	202	2
115	115	6
192	217	1
55	56	2
156	156	3
27	75	1
184	184	5
180	180	4
212	213	1
230	230	7
226	227	1
8	8	6
226	226	9
190	191	2
78	78	3
85	103	1
189	190	5
102	102	5
152	152	6
168	168	9
27	28	1
208	211	1
53	53	5
97	97	3
162	162	2
7	44	1
6	8	1
30	30	6
158	158	2
234	236	3
48	67	1
46	46	4
156	165	1
200	200	6
86	86	2
181	183	2
104	106	1
183	207	3
242	243	1
84	85	1
43	202	1
84	84	6
50	162	2
233	233	7
209	247	1
159	159	3
31	31	3
180	181	5
47	249	1
86	99	1
164	221	2
22	22	4
72	74	3
73	73	3
60	60	2
155	155	2
12	12	4
117	118	3
50	95	1
80	80	4
64	242	1
20	21	2
37	42	1
153	153	5
62	65	1
105	105	2
25	25	6
28	28	6
231	232	4
2	2	8
176	179	1
49	52	1
171	185	1
173	208	1
184	189	1
118	182	1
116	118	3
25	26	3
212	235	2
196	196	5
53	54	1
112	112	5
26	31	1
4	30	1
61	61	2
94	94	5
164	164	9
38	39	2
47	48	3
4	97	1
70	70	4
165	165	5
218	218	4
30	174	3
159	163	1
168	169	4
228	231	1
203	203	5
96	97	2
220	220	4
183	183	1
9	205	1
15	15	4
194	195	2
197	199	1
178	178	9
114	117	2
50	60	2
110	110	5
242	244	1
69	69	6
228	228	4
237	244	1
95	95	5
197	214	1
166	218	2
173	173	4
231	233	1
89	89	3
240	245	1
98	98	4
80	164	1
150	150	4
146	147	1
69	78	1
243	244	3
186	187	2
55	121	1
28	33	1
100	100	5
96	105	1
187	187	6
88	89	2
183	184	2
109	113	1
21	21	1
71	72	1
14	17	1
241	242	1
51	51	2
63	67	1
224	224	3
30	31	3
160	174	1
67	67	6
174	175	2
107	107	5
77	77	4
167	185	1
229	229	5
197	198	1
83	83	2
17	17	3
228	233	1
72	79	1
48	48	6
23	149	1
199	221	1
18	19	1
115	162	1
113	115	1
237	238	2
219	233	2
55	55	6
243	243	4
54	54	7
246	247	1
176	190	1
242	242	1
191	193	1
23	24	3
216	216	5
179	192	1
207	244	1
212	214	1
83	84	1
163	164	2
227	236	1
113	117	2
170	170	8
59	69	1
186	186	6
240	242	1
29	39	1
20	20	5
199	237	1
188	191	1
92	92	5
88	107	1
147	147	2
199	218	1
170	171	1
112	113	4
50	58	2
50	57	1
160	160	6
188	190	1
159	160	1
206	206	2
233	244	1
58	62	2
73	75	1
222	222	2
183	187	1
68	68	5
29	29	5
6	6	4
37	37	2
176	177	4
19	20	1
168	173	1
34	34	6
78	79	1
213	214	2
29	31	2
195	196	3
3	3	6
240	240	4
93	93	1
168	182	1
211	217	1
41	41	8
200	241	1
207	208	1
74	74	4
118	118	7
84	103	1
215	217	1
198	198	2
154	154	3
225	226	2
40	40	6
3	16	1
244	244	4
156	204	2
160	205	1
47	112	1
198	214	1
51	59	1
71	71	2
201	224	2
47	51	1
182	202	1
187	209	2
41	110	1
100	111	1
86	158	1
201	230	1
224	225	1
210	220	1
104	104	1
23	95	1
238	239	3
169	170	1
146	146	1
234	246	1
161	161	6
48	210	1
58	58	3
43	155	1
244	246	1
165	208	1
120	120	5
226	235	1
39	41	2
33	34	1
196	198	2
113	113	9
200	201	3
186	246	1
108	210	1
188	188	3
179	181	2
227	228	1
152	165	1
60	213	1
14	38	1
17	26	1
179	180	4
207	212	2
203	204	1
23	23	6
45	45	4
46	47	1
117	120	1
0	1	1
191	197	1
17	19	1
6	46	1
31	111	1
62	63	1
11	30	1
79	79	3
48	59	1
215	216	1
221	221	2
10	11	2
198	199	3
198	200	1
247	247	4
116	172	1
113	116	1
34	35	2
114	115	1
150	155	2
214	214	4
57	58	2
207	207	2
49	49	4
158	159	3
37	46	1
11	41	2
212	212	2
169	171	1
22	246	1
30	51	1
99	211	1
234	240	1
53	180	1
66	73	1
160	182	1
167	168	2
110	111	3
78	86	1
44	44	6
190	193	1
193	194	4
35	111	1
190	190	3
195	195	5
86	91	1
185	185	2
105	106	1
192	208	1
85	87	1
14	175	1
205	205	4
192	209	2
50	175	1
213	215	1
94	95	1
1	172	1
93	169	1
82	83	1
87	100	1
220	221	3
149	150	1
87	102	2
100	107	2
28	30	1
173	182	1
225	241	1
176	176	2
226	236	2
237	239	1
107	108	2
37	203	1
50	50	1
100	208	1
52	59	1
218	219	1
76	77	1
182	223	2
156	157	2
65	65	3
59	59	2
194	208	1
161	163	1
167	172	2
57	57	1
186	188	1
213	213	2
96	96	2
95	97	3
170	234	1
214	215	2
171	180	1
106	107	2
75	75	4
24	26	1
232	237	1
227	227	3
203	207	1
104	108	2
49	75	2
60	62	1
24	25	1
33	152	1
97	99	1
59	61	1
7	8	2
116	117	2
44	45	2
239	239	2
52	53	1
217	218	1
7	30	1
81	81	1
193	215	1
79	81	1
19	44	1
175	178	1
57	68	1
43	77	1
185	200	1
79	163	1
56	87	1
102	103	2
61	197	1
70	182	1
54	55	1
166	167	3
30	150	1
105	107	2
4	32	1
112	207	1
161	179	1
64	64	1
92	93	1
80	81	1
164	205	1
161	174	1
191	191	1
48	91	2
95	96	1
202	203	1
233	234	1
153	160	2
175	179	1
158	176	1
222	235	1
42	43	1
195	197	2
229	230	1
57	67	1
199	209	1
166	193	1
46	100	1
56	57	1
238	241	1
214	245	1
11	26	1
66	210	1
145	145	1
240	241	2
58	71	1
172	172	1
4	5	1
154	155	1
91	92	1
73	74	1
196	210	1
228	229	1
174	174	1
206	207	2
64	66	1
169	180	1
81	82	3
193	198	1
220	223	1
155	160	1
221	222	2
198	238	1
192	192	1
27	245	1
61	209	1
56	56	2
208	209	2
227	235	1
184	185	1
4	6	1
214	220	1
83	97	1
49	60	1
236	240	1
87	99	1
202	229	1
203	227	1
234	242	1
5	56	1
232	235	1
109	110	2
109	145	1
111	112	1
100	209	1
232	243	1
224	234	1
67	68	1
101	101	1
16	16	2
152	153	1
35	41	1
67	79	1
209	210	1
220	240	1
214	217	1
231	238	1
41	43	1
39	40	1
68	70	1
193	196	1
5	44	1
65	76	1
