85	86	2
195	195	2
104	104	3
199	200	6
76	76	2
11	54	2
178	178	3
213	213	1
195	206	1
238	244	1
168	168	2
193	194	2
33	33	7
113	114	2
187	187	4
17	227	1
9	100	1
181	201	1
182	192	1
16	16	4
4	5	4
38	38	4
10	10	4
213	214	4
37	37	4
176	200	1
240	240	4
6	7	3
96	96	3
246	246	7
16	17	1
226	226	10
223	223	3
21	21	4
179	179	2
147	147	1
62	62	3
180	183	1
238	238	5
197	229	2
82	82	1
237	248	1
48	50	1
172	177	1
218	219	1
24	24	2
18	18	4
60	72	1
103	103	3
116	116	5
73	74	2
174	179	2
177	178	3
189	199	2
56	70	1
110	110	5
203	203	2
188	195	1
95	109	2
71	75	1
231	233	1
177	177	8
49	50	3
242	242	4
111	116	1
2	28	1
152	152	2
49	60	1
166	167	2
63	64	1
118	120	2
71	72	2
201	201	4
22	37	1
51	51	2
30	30	3
203	204	2
211	211	6
43	43	5
62	92	1
224	225	1
155	155	2
186	187	2
237	238	1
189	195	1
113	113	4
101	101	2
95	95	2
167	167	6
1	19	1
214	215	1
106	106	1
48	62	1
49	49	3
158	158	2
191	205	1
227	249	1
156	226	1
172	173	3
25	25	5
5	5	4
29	29	1
176	177	2
211	243	1
212	213	2
165	165	5
102	102	4
237	237	2
176	176	5
197	210	1
72	74	1
228	228	2
219	219	3
175	176	1
171	171	4
116	117	2
154	235	1
2	32	2
30	42	1
44	224	1
67	109	1
233	233	1
151	151	7
196	197	3
235	235	7
236	237	2
100	100	2
194	221	1
99	99	1
159	159	2
120	120	3
27	223	1
167	168	1
227	228	2
185	198	1
73	75	3
181	207	2
55	67	1
229	229	3
54	54	2
118	118	1
93	100	2
230	230	4
184	210	2
61	238	1
77	77	4
39	39	2
97	98	1
89	183	2
67	67	1
78	79	2
30	31	1
52	52	4
83	83	2
203	235	1
170	170	1
108	108	1
197	197	2
44	44	5
36	37	1
46	46	5
105	106	1
56	57	2
224	224	5
79	82	2
243	244	2
91	207	1
34	34	3
188	188	4
19	20	3
42	42	1
161	182	1
90	90	1
70	70	3
216	216	2
92	92	4
189	189	3
181	213	1
40	40	4
68	85	1
64	114	1
174	214	1
88	88	4
66	78	1
99	240	1
191	197	1
193	193	1
7	7	2
4	4	5
179	209	1
38	43	1
234	237	1
65	65	1
197	198	1
166	201	1
202	203	1
27	28	1
107	108	1
12	12	2
217	219	1
33	34	1
245	245	2
165	178	1
48	57	1
239	239	5
180	180	2
48	48	8
225	225	11
41	41	7
14	14	2
22	22	1
241	241	3
241	242	2
179	181	1
15	15	6
33	35	1
186	186	5
184	211	1
71	74	1
40	41	2
72	75	1
98	98	2
34	35	2
232	232	2
173	173	2
34	37	1
150	150	2
19	19	2
78	109	1
72	72	2
84	84	2
85	85	3
223	246	1
78	78	4
35	35	6
185	186	2
47	47	4
191	191	1
45	91	2
162	164	1
207	207	3
229	230	1
30	113	1
68	71	3
170	198	1
188	189	1
242	243	1
54	100	2
220	220	1
231	231	2
21	30	1
11	11	3
28	28	5
192	193	4
200	200	7
57	242	1
194	194	2
204	204	2
66	73	1
160	161	1
245	246	2
204	212	1
194	195	1
210	210	1
182	182	3
160	160	2
40	180	1
70	72	1
58	58	2
199	199	4
217	218	3
61	237	1
66	101	1
221	223	1
240	242	1
173	212	2
151	154	2
9	9	4
221	244	1
158	196	1
247	248	2
96	97	2
191	196	1
3	4	3
226	236	1
44	45	1
93	93	2
48	75	1
111	111	5
166	166	1
6	6	5
22	31	1
156	156	4
5	41	1
26	26	4
22	23	1
111	112	1
203	234	1
231	232	1
117	117	4
69	69	2
16	32	1
164	216	2
185	210	1
195	196	1
206	207	1
1	4	2
173	174	1
83	95	1
175	194	2
84	90	2
38	75	2
157	157	3
56	76	2
8	8	2
76	85	1
13	13	1
181	210	1
163	170	1
20	20	2
208	243	1
142	142	2
183	184	2
164	165	2
67	69	1
174	212	1
219	232	1
15	29	1
55	55	3
120	145	1
3	100	1
27	27	4
56	222	1
201	223	1
183	183	1
154	154	1
45	45	4
115	120	1
219	241	1
82	99	1
161	162	1
64	64	1
220	225	1
167	201	1
198	199	2
174	183	1
205	205	2
162	162	1
53	59	1
107	107	3
32	33	1
63	63	2
153	153	2
109	109	1
50	51	2
167	169	1
53	53	4
43	44	1
57	100	1
61	62	1
222	222	3
1	1	3
226	228	1
175	175	2
15	16	2
82	83	1
165	186	1
71	71	1
212	212	2
208	208	1
94	94	2
32	32	1
25	26	1
53	65	1
168	169	1
227	227	1
55	56	1
102	103	2
247	247	2
156	207	1
23	158	1
214	214	2
181	182	1
25	144	1
244	244	1
112	112	4
67	70	2
146	146	1
243	243	3
51	52	2
60	60	1
178	213	1
33	40	1
9	17	1
236	236	3
23	24	1
169	199	2
112	113	1
36	36	2
66	66	1
29	31	1
8	28	1
115	115	1
168	174	1
57	57	2
223	225	1
184	185	2
218	218	1
54	56	1
32	35	1
19	205	1
196	196	1
187	189	1
234	244	1
225	242	1
238	239	1
180	206	1
214	216	1
59	61	1
165	167	1
224	237	1
74	74	1
176	179	1
61	61	1
2	2	1
167	204	1
12	13	1
47	50	1
80	99	2
81	81	1
49	216	1
31	31	1
61	169	2
85	101	1
93	103	1
164	209	1
173	189	1
97	99	1
73	73	1
201	224	1
175	180	1
55	57	1
79	79	1
248	248	1
161	175	1
9	10	2
91	91	1
36	38	1
58	59	1
172	172	1
56	56	3
48	231	1
209	209	1
202	202	1
174	227	1
151	157	1
240	241	2
87	87	1
170	212	1
92	100	1
228	246	1
86	86	1
72	92	1
186	189	1
11	161	1
87	110	1
44	47	1
75	75	1
19	23	1
165	169	2
20	53	1
119	119	1
3	18	1
46	47	1
24	25	1
171	193	1
11	12	1
77	81	1
25	212	1
85	100	1
0	0	1
174	174	1
209	214	1
163	163	1
6	60	1
