22	22	4
5	5	2
64	86	2
49	49	4
24	26	1
144	144	4
47	47	3
116	116	2
107	107	1
136	136	3
18	18	2
27	27	3
133	133	2
21	21	1
123	123	1
16	16	2
34	34	1
6	6	2
30	91	1
103	103	5
142	142	2
28	28	1
70	79	1
9	9	2
98	98	5
58	58	2
73	73	1
49	56	1
51	51	3
129	129	3
143	143	7
124	124	2
130	132	1
12	12	1
112	116	1
83	84	2
28	39	1
125	126	1
134	134	3
129	130	1
77	77	3
17	17	3
23	23	3
132	132	3
33	33	5
119	119	3
96	96	3
66	99	1
145	145	1
3	16	1
90	91	2
25	40	1
23	24	1
55	55	3
113	118	1
24	24	3
60	66	1
67	67	3
61	67	1
102	102	5
73	82	1
76	76	2
31	31	1
48	48	1
10	10	4
8	8	1
26	26	2
66	66	3
29	37	1
94	95	1
85	86	1
126	127	2
104	104	2
91	91	4
135	135	1
31	33	2
0	0	3
38	38	4
105	105	3
4	71	2
68	68	3
113	117	1
28	29	1
122	123	1
1	1	2
54	54	3
6	26	1
29	29	2
3	3	1
116	117	1
53	53	1
26	27	1
41	41	1
29	62	1
33	34	1
93	94	2
22	74	1
61	61	1
118	118	3
131	133	1
125	141	1
128	130	1
18	19	1
128	128	2
97	97	3
99	99	3
87	89	1
70	70	1
41	66	1
140	140	3
125	125	3
79	79	1
80	80	4
105	106	2
135	136	2
30	31	1
110	110	1
137	137	3
94	94	2
130	140	1
114	137	2
56	56	1
52	52	2
103	130	2
11	11	1
109	109	1
61	68	2
93	95	1
33	47	2
49	63	1
108	108	2
19	19	2
89	105	1
130	130	1
105	107	1
84	84	2
102	103	1
4	31	1
126	126	1
65	70	1
101	102	2
115	115	1
52	84	1
59	59	1
81	81	1
106	106	2
139	139	1
109	110	1
40	40	2
83	83	2
49	53	1
87	91	1
51	73	1
82	86	1
141	141	4
41	42	1
82	82	1
107	110	1
50	51	1
35	35	1
122	122	1
71	71	1
127	127	1
79	80	1
138	138	1
25	39	2
55	73	3
15	16	1
42	42	3
63	86	2
117	143	1
4	4	1
100	100	1
53	54	2
101	101	1
107	108	2
145	146	2
1	92	1
6	20	2
18	29	1
138	139	1
39	39	1
30	30	1
30	72	1
102	117	1
117	117	1
62	62	1
50	50	2
30	38	1
19	20	1
14	14	1
19	33	1
81	84	1
82	84	1
36	56	1
95	140	1
143	144	1
90	90	1
27	80	1
92	92	1
124	127	1
108	134	1
131	131	1
