238	238	2
201	202	2
46	46	5
55	73	1
43	43	4
6	6	3
183	183	11
40	151	1
145	145	2
13	13	3
182	182	5
47	144	1
109	110	4
80	94	1
205	205	3
75	234	1
58	58	6
238	242	1
97	193	1
90	90	1
110	117	1
241	241	6
92	99	1
225	225	3
199	199	3
25	42	3
91	92	3
82	82	4
226	226	7
178	178	1
38	38	7
61	63	2
2	2	3
64	64	2
27	27	2
92	92	4
64	77	1
1	1	3
55	55	3
18	18	4
199	214	1
193	198	3
93	93	5
87	87	4
237	237	2
8	8	8
4	116	1
41	41	5
120	120	1
192	192	3
42	42	4
103	105	2
234	234	5
161	161	3
83	85	1
37	37	5
229	229	5
26	202	2
112	112	3
155	156	2
59	59	1
218	218	5
184	184	3
113	113	7
73	73	2
71	71	3
118	118	6
169	169	3
244	244	3
62	62	2
234	235	2
214	232	3
79	82	2
236	238	2
233	233	3
205	206	2
79	84	2
247	247	5
15	29	1
61	61	1
167	176	2
224	225	4
111	111	9
28	28	5
7	198	1
206	206	4
169	177	2
166	167	1
203	203	4
178	179	1
172	172	2
10	10	1
17	17	2
9	9	2
231	231	5
180	180	9
162	162	4
164	164	2
87	88	3
153	155	1
41	43	1
240	240	5
243	244	3
49	49	1
248	248	2
169	170	1
231	233	2
203	204	2
159	159	2
107	107	1
39	39	5
95	98	2
64	66	1
99	99	2
186	186	7
234	237	1
162	191	1
17	21	1
149	149	1
100	119	1
106	106	1
230	230	5
63	63	4
15	16	2
47	48	4
3	3	2
31	31	5
34	35	2
208	208	2
187	187	3
52	53	1
212	213	4
162	171	1
164	165	2
168	168	5
169	175	1
5	157	1
6	7	1
76	76	5
175	175	5
9	10	1
109	113	1
27	39	1
208	210	2
35	36	2
178	232	1
232	232	2
156	156	5
151	156	1
188	189	1
173	173	5
246	246	6
106	108	1
187	189	1
174	174	1
33	33	4
185	186	1
46	47	5
63	65	1
211	212	3
19	25	1
183	184	2
10	11	2
204	204	3
200	200	6
202	229	1
101	101	2
241	242	2
163	163	3
69	69	3
6	8	1
220	220	5
26	26	1
113	114	3
56	57	1
65	65	4
70	76	1
192	197	1
69	70	3
85	86	2
215	215	5
42	43	2
95	95	1
154	155	1
151	151	1
171	172	1
89	89	4
43	44	2
17	20	2
182	198	1
171	171	7
114	114	5
245	245	3
155	155	5
152	152	1
203	205	3
42	204	2
79	80	2
24	24	3
14	14	2
22	22	5
109	109	6
54	55	2
165	165	9
65	66	1
160	160	2
23	23	2
52	52	4
163	164	2
60	62	1
14	15	2
35	35	1
194	194	3
22	23	2
214	248	1
191	196	1
195	195	1
90	115	1
236	236	3
223	223	7
167	167	4
41	42	2
86	87	2
193	209	1
83	83	1
235	236	2
154	154	3
153	154	2
228	228	3
68	69	1
242	245	2
117	117	3
91	91	2
179	202	2
68	68	7
177	177	2
105	106	2
190	192	1
153	175	1
4	4	3
183	207	1
182	207	1
189	190	1
51	51	4
23	92	1
146	146	2
77	78	2
12	12	3
119	119	4
20	20	8
195	197	1
192	210	1
95	97	1
11	11	7
187	188	1
59	61	1
40	40	2
204	205	1
202	202	4
5	6	3
25	25	2
19	20	1
84	84	1
97	98	2
213	213	3
78	78	2
62	63	1
19	19	5
70	70	2
110	110	4
150	167	1
208	211	2
145	155	1
78	80	1
158	158	1
9	12	1
53	53	4
183	196	1
28	29	2
72	73	3
85	85	6
207	207	4
28	30	1
8	31	1
150	154	1
181	181	1
217	218	1
212	212	6
166	166	4
117	118	2
108	108	2
116	116	4
249	249	1
178	197	1
44	44	4
90	113	1
170	170	5
223	243	1
221	221	2
102	108	1
97	97	1
236	237	2
239	240	1
86	90	1
173	174	2
63	157	1
19	111	1
64	65	1
197	198	1
224	224	3
219	219	7
89	208	1
189	189	2
179	179	2
16	16	2
94	94	2
201	212	1
164	199	1
27	46	1
157	157	4
169	198	1
202	206	1
237	246	1
48	49	3
244	247	2
231	236	1
214	214	3
198	199	1
186	227	1
36	36	2
193	210	2
96	97	1
46	206	1
75	75	2
88	88	2
245	246	2
233	238	1
81	81	4
193	193	1
62	65	1
30	30	2
192	226	1
211	211	3
209	210	1
172	179	2
214	217	1
184	186	1
100	100	3
234	236	2
196	200	1
174	201	1
32	33	2
228	230	1
184	185	1
44	45	1
220	248	1
10	228	1
229	230	1
188	188	1
99	102	1
169	171	2
203	207	1
153	153	2
54	116	1
212	219	1
156	160	1
86	86	3
47	47	3
23	24	1
230	244	1
150	150	4
67	74	1
242	247	1
235	235	3
204	246	1
77	77	1
48	61	2
151	154	1
55	58	1
96	96	1
56	56	3
201	228	1
55	57	1
4	5	1
190	190	2
42	246	1
21	21	1
98	99	1
95	96	1
209	209	3
197	219	1
183	193	1
67	67	1
179	183	1
31	63	1
34	34	2
7	7	3
78	81	1
7	31	1
165	166	2
32	32	1
7	30	1
230	231	2
210	210	1
72	74	1
47	64	1
45	65	1
197	197	2
157	172	1
42	152	1
227	227	2
115	115	1
17	181	2
40	41	1
231	232	1
194	195	2
90	101	1
216	216	2
75	85	1
185	185	1
222	223	1
166	183	1
162	227	1
177	233	1
73	74	2
147	167	1
37	38	1
16	36	1
232	233	1
239	239	1
28	39	1
50	50	1
203	229	1
1	5	1
49	50	1
38	39	1
110	111	1
45	155	1
182	183	1
91	118	1
233	234	2
53	69	1
94	207	1
109	112	1
237	238	1
193	196	1
50	69	1
15	15	1
206	227	1
104	104	1
68	70	1
79	81	1
107	108	1
82	84	1
54	54	1
37	68	1
185	209	1
242	242	1
201	201	2
241	243	1
174	192	1
178	233	1
180	229	1
200	246	1
104	105	1
38	54	1
111	113	1
163	176	1
219	222	1
177	232	1
57	58	1
69	73	1
84	85	1
78	84	1
161	230	1
169	197	1
60	60	1
51	52	1
175	177	1
52	229	1
186	202	1
