101	116	2
61	61	1
23	23	4
167	167	3
78	102	1
32	37	1
110	110	3
187	188	1
6	8	1
3	82	1
142	142	3
146	146	3
154	187	1
105	105	1
93	93	4
95	119	2
176	183	1
148	148	2
41	82	1
40	40	3
107	117	1
138	173	1
186	186	3
159	188	1
116	116	4
85	86	2
180	180	2
59	59	3
117	118	1
172	172	1
128	128	2
0	0	3
21	21	3
150	152	3
120	120	2
38	38	1
124	124	2
0	1	1
157	158	1
122	124	1
165	166	1
28	30	1
105	106	1
36	36	1
177	180	1
171	183	3
43	43	2
127	139	1
104	104	5
97	97	3
29	29	2
62	65	1
4	5	1
186	187	4
171	172	1
156	156	3
142	172	1
6	6	9
4	4	2
189	190	2
146	148	1
65	66	1
26	26	5
141	141	1
164	187	1
130	130	1
100	100	2
13	13	4
8	55	1
78	103	2
37	37	4
16	16	2
27	27	1
57	57	4
95	95	2
36	37	1
38	61	2
109	109	1
120	121	1
131	152	1
147	148	1
88	113	1
64	93	1
82	85	2
154	155	1
144	154	1
10	10	4
72	75	1
136	136	2
149	157	2
144	164	1
149	161	1
6	54	1
7	7	1
133	139	2
103	103	1
130	180	1
160	163	1
121	121	5
31	42	3
84	84	5
34	34	1
10	38	1
36	58	1
56	109	1
53	54	2
48	48	2
47	47	2
154	186	1
75	75	1
102	102	1
2	2	2
139	139	2
79	79	2
60	105	1
114	131	1
75	86	1
55	55	2
174	175	1
58	58	3
111	111	2
24	24	4
82	82	3
1	1	5
175	177	1
54	59	1
190	190	2
65	93	1
42	42	3
91	92	1
90	148	1
21	48	1
177	177	2
155	179	1
100	104	1
122	137	2
65	73	1
174	174	1
76	76	1
89	89	2
189	189	1
113	113	1
62	62	1
74	74	2
127	168	1
25	25	2
39	39	2
43	45	1
164	165	2
27	28	2
8	8	1
23	181	1
118	118	2
24	25	2
160	160	4
65	65	1
11	11	2
33	33	1
70	71	1
17	52	1
19	22	1
93	97	3
113	139	2
109	173	1
69	70	1
15	26	1
98	122	1
177	181	2
58	59	1
70	70	2
89	129	1
122	173	1
165	165	2
78	78	1
170	170	1
81	81	1
11	12	1
178	180	1
100	103	1
98	98	2
15	20	1
19	20	1
61	63	1
147	147	1
95	97	1
173	173	1
159	159	1
125	150	1
123	123	2
149	149	1
67	100	1
44	44	2
86	86	3
174	188	1
98	99	1
106	107	1
3	56	1
41	41	1
17	17	1
150	180	1
45	47	1
99	99	1
85	102	1
1	2	1
138	150	1
127	163	1
21	59	1
84	139	1
127	127	3
72	72	2
5	5	1
30	35	1
137	137	1
116	117	2
80	80	1
61	62	1
85	85	3
56	56	1
153	154	1
148	185	1
185	185	2
85	87	1
66	74	1
145	145	1
10	17	2
73	73	1
102	137	1
32	33	3
9	11	1
134	137	1
96	113	1
59	83	1
46	46	3
123	124	1
183	183	1
150	164	1
110	146	1
89	99	1
184	185	1
181	183	1
26	32	1
38	68	1
143	143	2
178	179	1
137	138	1
130	138	1
7	83	1
3	3	2
19	47	1
140	140	1
103	127	1
98	119	1
155	183	1
18	18	1
38	48	1
125	125	1
71	73	1
175	175	1
188	188	1
165	169	1
7	39	1
119	119	1
122	154	1
102	125	1
66	71	1
140	144	1
16	27	1
154	154	3
112	112	2
26	27	1
188	189	2
187	187	1
15	40	1
122	123	1
69	69	1
131	131	1
127	128	1
87	88	1
153	153	1
182	182	1
96	96	1
126	138	1
181	181	1
94	97	2
33	94	1
171	173	1
149	170	1
161	161	2
101	101	2
34	35	1
40	41	1
145	169	1
176	177	1
160	161	1
170	185	1
85	95	1
54	54	2
16	17	1
0	96	1
145	170	1
94	112	1
171	177	1
71	74	1
31	33	2
76	77	1
106	106	1
125	126	1
98	101	1
176	176	1
