26	41	1
37	37	4
93	111	2
63	63	3
27	27	6
120	120	4
133	134	2
41	41	5
86	108	1
78	120	1
83	83	2
98	98	4
64	64	2
134	134	8
55	56	2
129	129	5
106	108	1
70	70	3
18	18	3
30	30	2
80	80	2
92	92	2
50	52	1
102	103	2
20	20	5
97	98	4
131	133	1
72	74	2
41	79	1
13	14	2
20	21	7
38	38	3
132	132	2
19	30	1
99	100	1
35	50	2
5	25	1
24	25	3
23	23	4
32	32	2
52	52	2
126	126	2
75	75	3
62	124	1
67	67	3
4	4	4
55	96	1
93	94	1
92	93	2
56	56	2
19	19	6
85	88	1
104	121	1
135	135	3
102	102	5
5	5	3
16	17	2
1	1	2
132	133	2
110	110	1
119	121	1
55	55	2
125	125	2
82	82	1
80	87	1
12	12	1
134	140	1
95	95	2
3	5	1
65	65	1
115	115	2
103	103	4
131	132	3
9	9	3
21	21	2
59	60	4
77	77	3
24	108	1
144	144	5
117	117	2
80	81	1
62	62	6
130	130	3
104	104	3
57	57	1
93	93	4
61	70	1
19	20	2
29	130	2
36	37	1
81	82	2
140	141	2
79	79	3
112	112	2
84	85	3
50	133	1
91	95	1
73	78	1
14	17	1
16	16	7
91	91	8
22	22	4
106	107	2
137	137	3
51	52	4
36	36	3
56	68	2
101	101	2
11	11	3
141	141	3
119	119	1
22	58	1
15	15	2
27	49	1
66	73	3
86	86	6
58	58	5
34	35	1
49	49	3
124	124	10
15	16	4
122	122	4
113	113	2
116	118	1
28	28	1
42	68	1
104	105	1
48	53	1
35	35	1
14	14	1
107	133	1
68	68	3
53	62	1
135	139	2
109	110	1
48	48	2
80	110	1
67	70	1
128	130	2
35	36	3
73	73	2
34	37	1
100	100	2
81	95	1
85	86	2
92	113	1
90	90	3
60	60	2
53	63	1
111	111	2
140	140	4
54	67	1
134	137	1
50	53	2
109	109	1
37	40	1
8	8	3
30	125	2
97	97	2
30	42	1
130	131	3
25	66	1
1	61	1
97	100	1
65	66	1
34	52	1
13	13	3
10	10	5
145	145	3
34	36	1
40	41	2
119	132	1
24	24	1
40	40	2
2	4	1
31	31	1
103	106	1
133	133	3
87	92	2
95	96	2
96	97	1
76	76	4
116	116	4
29	29	3
126	127	1
123	123	3
73	74	1
66	67	1
96	96	3
27	32	1
59	59	3
71	71	2
69	69	3
108	108	2
76	78	2
123	135	1
27	28	1
114	115	1
38	39	1
139	139	2
38	48	1
118	118	2
1	2	1
50	51	2
42	42	2
74	74	3
52	66	1
61	66	1
3	4	3
72	73	1
17	17	2
98	100	1
72	75	1
81	81	2
82	103	1
137	138	3
94	94	4
34	38	1
17	18	1
114	117	3
27	89	1
111	113	1
8	9	3
4	16	1
83	84	1
131	140	1
25	25	1
3	3	2
8	30	1
94	95	2
88	89	1
39	39	2
104	140	1
51	54	1
53	53	1
129	130	1
0	6	1
103	108	1
5	6	1
59	116	2
118	120	1
136	136	5
27	38	1
54	55	2
35	69	1
2	6	1
129	142	1
131	131	1
118	136	1
25	26	1
33	33	4
72	72	3
71	90	2
42	74	1
123	124	1
37	39	1
87	91	1
6	31	1
38	95	1
2	61	1
80	82	1
34	34	2
145	146	2
69	85	1
71	74	1
80	88	1
118	119	1
105	108	1
37	38	1
1	10	1
104	106	1
66	66	1
97	128	1
106	110	1
142	142	1
10	96	1
114	114	1
106	124	1
143	143	2
35	71	1
116	117	1
77	90	1
136	137	1
111	114	1
31	71	1
128	128	1
0	1	1
2	2	1
135	136	1
87	88	1
74	90	1
92	94	1
19	25	1
118	121	1
108	109	1
110	117	1
10	11	1
31	32	1
70	71	1
85	85	1
90	91	1
31	33	1
0	0	1
105	105	1
110	120	1
6	6	2
122	123	1
36	39	1
38	42	1
48	49	1
128	129	1
101	102	1
142	143	1
135	140	1
79	80	1
19	95	1
81	103	1
51	51	1
