78	78	2
128	128	3
66	71	1
107	107	3
75	75	5
10	13	1
83	93	1
77	78	1
111	111	2
59	59	3
11	19	1
6	6	5
45	60	1
44	44	5
38	38	1
12	13	1
74	74	7
31	32	1
8	8	2
36	77	1
45	45	3
70	70	2
64	64	1
15	15	3
10	10	3
57	57	5
82	83	3
19	28	1
20	22	1
32	32	4
43	43	2
17	17	4
119	119	4
66	73	1
100	101	2
130	130	2
7	8	1
14	14	3
72	72	4
11	11	1
81	87	1
118	118	5
118	119	1
83	83	1
115	115	2
4	4	2
5	6	1
93	93	4
28	29	2
116	116	6
84	84	2
132	132	3
12	12	3
109	109	2
57	58	2
84	85	1
13	13	1
127	127	1
99	99	1
133	133	3
18	47	1
68	68	2
60	60	3
36	36	1
96	96	1
86	86	3
62	62	2
56	56	4
66	66	7
42	42	2
69	69	3
92	92	2
18	18	2
123	123	3
16	16	2
27	28	3
76	77	1
80	81	1
100	100	4
4	5	1
65	65	5
40	43	1
131	131	2
9	9	3
111	112	1
65	66	1
72	73	1
109	110	2
126	126	3
41	41	2
114	114	1
58	58	1
35	35	5
82	82	4
2	2	3
108	108	3
115	132	1
117	120	1
94	94	2
77	86	1
119	120	1
47	47	1
125	125	1
5	5	1
82	84	1
113	126	1
19	19	3
129	129	2
29	29	1
31	31	2
86	105	1
38	39	2
94	110	1
26	27	1
71	71	3
118	120	1
60	61	1
134	134	2
102	104	1
85	86	1
59	112	1
130	133	2
0	1	3
0	0	3
77	77	1
18	33	1
31	79	1
80	80	1
44	45	2
28	43	1
122	122	1
4	6	2
55	55	1
83	86	1
73	73	2
28	35	1
85	85	1
37	37	2
125	126	1
61	64	1
63	63	1
87	90	1
69	71	1
33	48	1
69	73	1
36	37	1
120	120	2
38	40	1
121	121	2
4	16	1
40	79	1
76	76	1
86	87	1
27	29	1
16	45	1
45	121	1
83	84	1
35	36	1
102	102	1
112	112	1
14	17	1
6	16	1
107	112	1
46	46	2
106	107	1
103	103	1
85	107	1
43	44	1
60	77	1
88	101	1
27	32	1
133	134	1
45	46	1
97	108	1
81	81	1
34	34	2
78	81	1
116	117	1
1	61	1
88	107	1
