63	63	4
60	60	3
95	110	1
113	113	3
48	48	2
103	104	2
91	91	8
76	90	1
93	108	3
27	28	1
53	53	1
92	92	10
67	73	1
27	68	1
78	78	1
32	32	4
75	75	2
101	110	1
91	93	4
90	91	1
26	26	3
43	43	1
84	84	2
61	61	3
75	79	1
42	95	2
26	30	1
52	52	3
24	24	1
100	100	3
37	38	2
97	97	3
107	107	2
81	93	1
76	78	1
21	21	4
85	85	4
66	66	3
48	49	1
96	96	2
28	28	2
36	36	2
108	108	6
99	100	1
105	105	3
88	89	3
25	25	4
67	67	3
38	58	2
81	81	5
31	31	4
20	28	2
79	85	1
90	92	1
28	29	4
106	106	2
110	110	3
94	94	3
53	54	3
24	28	1
76	91	1
95	95	2
61	63	1
110	112	1
59	103	2
112	112	2
86	86	1
111	111	2
81	84	1
65	65	4
40	40	4
45	47	1
49	49	4
89	91	1
91	92	3
79	79	2
65	67	1
71	72	1
71	71	1
33	33	3
69	72	1
19	19	1
72	72	2
44	44	4
52	53	1
38	40	1
37	55	2
99	99	3
38	38	1
84	89	1
90	90	3
73	73	2
46	46	1
109	110	2
87	87	1
50	51	3
96	97	1
90	93	2
81	85	1
94	97	1
62	62	2
23	23	3
69	70	1
98	98	3
34	34	1
77	78	1
51	51	3
66	67	1
35	35	2
28	42	1
41	41	1
95	99	1
64	64	2
22	22	3
101	101	2
107	108	1
34	35	1
65	66	1
20	70	1
45	46	1
77	77	1
42	42	1
85	96	1
36	54	1
64	73	1
77	79	2
89	90	1
81	92	1
77	106	3
45	45	3
57	90	1
84	85	1
72	73	1
104	106	1
50	50	1
55	55	1
70	70	1
50	113	1
39	39	1
26	27	1
19	75	1
93	93	3
64	72	1
83	85	1
55	63	2
107	110	1
86	88	1
81	91	1
22	23	1
20	20	2
37	39	1
45	60	1
101	102	2
58	59	1
77	110	1
30	30	2
52	69	1
69	91	1
22	75	1
23	96	1
80	81	1
82	88	1
33	44	1
30	98	1
54	55	1
20	21	1
69	69	1
21	30	1
20	25	1
23	24	1
77	103	1
61	62	1
63	64	1
64	65	1
49	111	1
27	29	1
92	106	1
83	83	1
25	26	1
104	105	1
105	106	1
74	75	1
83	84	1
88	88	1
