21	21	2
113	113	3
91	91	5
111	114	2
132	132	2
133	133	3
4	14	2
82	86	1
78	78	4
134	134	5
65	65	10
128	133	1
45	45	7
100	100	7
38	41	1
65	66	1
45	46	3
59	59	4
130	130	6
7	7	1
36	94	1
14	15	2
61	61	5
37	37	3
23	25	3
128	128	5
102	102	10
108	116	1
107	108	2
46	46	1
94	118	1
19	29	1
60	61	2
36	36	4
95	98	1
60	72	2
40	42	1
115	115	5
125	125	8
20	100	1
27	41	1
127	127	5
31	31	5
87	87	4
16	97	1
70	71	1
79	79	8
13	13	4
27	30	1
26	26	4
114	133	2
106	107	1
8	8	6
127	128	4
83	85	4
24	24	2
33	33	4
34	34	2
93	93	4
124	125	3
109	109	5
88	88	2
8	14	1
97	97	4
115	116	1
93	94	2
6	6	3
121	121	4
76	76	1
83	84	2
34	35	2
113	123	1
30	42	1
71	72	1
35	35	8
33	96	1
92	93	1
120	120	4
24	32	1
105	105	2
120	131	1
72	72	2
129	129	2
80	81	3
14	123	1
64	64	6
20	36	1
107	107	3
114	116	1
45	47	1
99	99	4
101	101	6
110	110	6
123	123	2
96	96	6
17	17	3
111	111	5
63	65	1
114	115	3
85	86	4
84	90	3
119	119	2
33	43	1
5	5	4
105	130	1
16	16	7
92	126	1
94	96	1
66	66	3
78	94	1
30	30	5
68	69	1
106	106	3
129	130	2
104	105	1
29	29	2
95	95	5
28	28	3
110	111	1
87	88	1
60	60	5
104	104	2
23	23	3
126	128	1
121	122	2
40	41	3
86	86	1
14	14	1
85	85	11
58	58	3
12	13	3
131	131	3
68	68	1
10	11	3
62	62	5
112	125	1
96	106	2
73	73	2
69	69	1
22	24	2
79	81	2
15	15	4
61	70	1
94	95	2
9	9	1
106	131	1
81	81	1
73	74	1
39	43	1
26	31	1
18	63	2
40	40	1
90	115	2
27	27	8
93	113	1
113	114	2
122	122	3
18	32	1
7	41	1
56	56	7
97	109	2
112	113	1
100	101	1
12	14	1
63	63	3
130	132	1
77	77	2
20	21	1
96	103	1
11	14	1
70	70	9
126	126	7
20	32	2
105	106	1
80	101	1
86	87	4
12	12	8
45	61	1
56	76	1
75	75	5
11	11	5
1	1	1
40	43	2
103	103	2
36	78	2
116	116	5
118	118	8
19	19	5
10	12	1
117	117	4
15	26	1
109	110	1
120	125	1
118	119	2
14	63	1
126	134	1
124	124	4
33	34	2
71	71	2
119	129	2
116	125	1
2	2	2
74	116	1
80	80	4
23	26	1
74	74	3
44	44	4
97	124	1
94	117	1
36	59	1
54	55	1
13	16	2
0	2	3
6	98	2
32	59	1
108	112	1
7	58	1
61	65	1
18	19	1
108	109	1
4	12	1
23	31	1
82	82	4
15	122	1
19	107	1
107	125	1
102	103	3
13	14	2
94	94	3
48	48	1
16	44	1
8	122	1
50	50	1
86	110	1
101	106	1
107	130	1
14	27	1
119	120	1
42	42	2
123	124	5
12	125	1
128	132	1
115	123	2
7	32	1
24	102	1
17	43	1
130	133	2
122	123	1
120	122	1
42	50	1
86	94	1
47	61	1
103	109	1
100	131	1
16	85	2
12	28	1
55	55	2
4	4	4
26	27	2
84	84	3
32	35	1
86	125	1
87	95	3
95	114	1
78	79	2
8	16	1
111	112	1
10	10	2
78	122	1
4	112	1
112	112	2
132	133	2
128	129	2
48	57	1
6	93	1
114	114	4
37	49	1
81	83	1
59	71	1
78	97	1
90	91	2
35	43	1
116	120	1
25	25	3
57	57	2
33	44	2
47	47	2
93	129	1
131	133	1
112	119	2
42	43	1
76	77	2
16	47	1
46	77	1
46	47	1
41	41	1
18	23	1
23	27	1
77	93	1
77	78	1
91	92	2
9	59	1
22	22	2
83	83	1
91	114	2
38	119	1
29	30	3
15	16	2
5	72	1
76	117	1
16	17	1
4	68	1
39	39	4
35	36	2
69	108	1
43	93	1
6	31	1
15	31	1
99	125	1
23	24	1
43	44	1
91	129	1
36	93	1
41	98	1
92	92	1
87	102	1
95	97	1
108	111	1
109	111	1
133	134	1
125	129	1
34	41	1
47	62	1
107	126	1
76	113	1
18	46	1
31	44	1
107	111	1
83	87	1
97	107	1
36	38	1
19	45	1
97	98	1
75	76	1
44	94	1
95	96	1
2	3	1
45	77	1
101	102	1
111	124	1
19	21	1
31	59	1
20	82	1
38	38	1
18	18	2
58	59	1
14	19	1
15	30	1
115	130	1
104	116	1
30	31	1
0	1	1
125	126	1
