22	80	1
25	25	4
22	38	1
50	50	5
24	24	2
76	76	2
103	103	5
62	63	2
29	31	2
96	98	1
124	124	4
75	75	2
89	101	2
92	127	1
81	81	2
112	122	1
63	63	4
127	127	1
57	64	1
45	65	1
131	131	3
96	96	7
8	8	1
85	85	2
104	104	7
1	1	4
67	68	1
70	70	3
100	100	6
55	91	1
109	124	1
83	83	2
54	55	1
105	107	3
93	93	5
115	116	4
60	62	1
68	69	2
9	9	4
46	49	1
49	50	2
69	70	1
125	125	3
53	53	5
86	120	1
38	39	1
3	6	1
72	72	2
73	73	2
78	79	2
121	122	2
20	20	2
71	71	2
57	102	1
99	99	1
114	114	2
92	95	1
18	18	1
80	80	2
78	78	3
56	56	5
29	30	4
52	52	5
22	23	1
10	50	1
16	16	3
102	102	5
73	76	2
31	31	2
44	44	4
9	11	1
120	120	4
84	87	1
57	57	3
71	81	1
65	78	1
31	32	1
48	48	5
40	41	3
117	125	3
0	1	1
109	109	2
15	15	3
98	126	1
5	5	1
41	42	3
93	107	1
112	123	1
29	29	3
33	33	1
45	46	1
47	47	5
1	51	2
45	47	2
92	98	1
85	100	1
51	52	1
100	102	1
130	131	2
40	47	1
55	71	2
105	109	1
117	121	1
56	57	1
118	118	4
18	19	1
98	98	1
95	116	1
66	66	2
25	28	1
77	81	1
47	48	1
86	91	2
105	105	8
13	13	1
69	69	2
50	94	1
90	126	1
121	121	4
117	117	2
126	127	2
68	68	3
42	42	4
33	39	2
24	62	2
4	4	2
62	62	5
0	121	1
87	88	1
119	119	3
2	2	4
77	77	1
14	14	3
111	114	1
55	56	1
64	118	1
55	55	3
94	94	4
21	21	1
101	102	1
113	113	2
123	123	2
74	83	1
10	112	1
59	59	5
70	71	3
55	119	2
44	46	2
28	28	1
12	12	3
91	92	1
26	26	4
122	122	3
0	0	4
73	74	2
116	116	2
31	33	1
126	128	2
58	59	1
54	54	2
8	9	1
78	80	2
13	14	1
106	106	4
17	18	2
6	6	1
112	112	1
102	103	2
45	45	2
24	28	1
21	22	1
91	91	1
99	126	1
77	86	1
88	93	1
58	63	1
89	90	1
125	131	2
59	63	1
129	130	1
23	23	1
16	20	1
51	54	1
34	34	2
42	46	1
69	94	1
32	32	2
19	19	2
113	122	2
13	15	1
2	3	1
58	62	1
95	102	1
95	96	1
67	67	3
31	52	1
126	126	2
10	11	1
22	22	1
15	17	1
30	30	2
82	82	1
45	95	1
108	108	2
125	126	1
124	125	3
44	45	3
47	131	1
39	39	1
59	77	1
65	65	2
94	95	1
48	49	2
46	46	1
49	49	2
43	43	2
60	60	1
58	58	3
97	97	1
85	93	1
10	66	2
92	96	1
92	92	1
32	92	1
131	132	1
51	110	1
51	51	1
44	76	1
41	41	1
99	101	1
92	93	1
110	111	1
93	95	2
73	75	1
95	98	1
92	104	1
77	78	1
59	60	1
91	96	1
50	53	1
107	116	1
50	123	1
89	89	2
23	31	1
42	45	1
10	10	1
107	107	1
79	79	2
86	86	1
1	2	1
89	91	1
40	40	1
19	27	1
57	58	1
121	132	1
72	88	1
45	62	1
118	119	1
16	17	1
28	51	1
40	75	1
64	65	1
46	47	1
85	86	1
44	60	1
81	86	1
