38	38	2
29	32	1
156	156	5
110	110	3
85	85	4
6	6	5
236	243	2
33	33	3
175	177	1
4	6	1
71	71	4
18	18	1
112	113	1
88	88	3
175	176	2
18	42	1
167	167	3
52	52	6
238	238	2
186	186	6
70	70	1
26	26	1
25	25	3
160	161	3
180	181	3
240	240	5
221	221	2
35	36	1
116	116	6
68	70	3
59	60	1
117	117	3
71	75	1
180	184	1
59	59	2
103	103	1
177	177	3
175	175	5
64	65	3
161	161	3
105	105	2
109	109	4
180	180	2
160	160	4
81	84	1
152	152	2
35	35	8
203	203	5
157	164	1
6	7	2
211	225	1
92	92	2
10	36	1
69	171	1
164	164	2
113	113	4
209	209	5
8	8	2
53	53	1
107	107	1
158	159	2
191	192	1
37	37	3
28	28	5
43	43	7
201	201	8
114	114	3
16	16	1
165	165	2
114	119	1
4	235	1
7	7	2
10	43	3
98	98	1
240	241	2
118	118	5
8	18	1
154	154	1
51	51	5
212	213	2
32	33	1
168	168	2
89	89	2
210	233	1
228	229	1
218	218	1
2	2	2
204	212	1
227	227	4
12	12	6
65	66	2
193	194	1
233	233	1
50	69	2
185	185	2
111	111	1
199	199	3
119	119	1
11	11	5
241	241	1
100	101	1
5	5	7
70	75	1
36	37	3
179	179	2
13	13	1
54	54	3
164	180	1
41	41	3
15	15	3
172	172	1
108	108	1
211	212	1
119	170	1
234	235	1
174	174	1
84	84	1
222	222	1
9	9	4
28	45	2
49	50	1
184	186	1
101	101	2
17	17	2
222	223	2
159	160	1
178	180	2
209	210	1
47	47	6
171	171	3
42	66	2
64	182	1
193	222	1
63	63	3
68	69	2
62	70	1
200	213	1
160	202	1
195	217	1
181	181	1
213	215	1
173	173	1
1	1	1
112	116	2
156	161	1
56	58	1
77	77	5
21	22	4
56	60	1
228	228	2
23	23	3
91	94	1
236	236	1
67	76	1
97	97	2
76	77	2
2	3	2
205	205	1
183	184	1
24	43	1
188	189	1
225	225	2
26	113	1
202	202	1
151	151	1
1	42	1
109	110	1
172	173	1
231	233	1
243	243	1
49	49	4
55	55	1
183	183	3
245	246	1
110	112	1
179	180	1
40	41	1
237	237	3
165	167	1
19	24	1
159	186	1
219	219	1
230	230	1
229	229	4
73	73	2
77	78	2
88	107	2
231	231	1
36	36	1
208	208	2
39	39	1
245	245	2
187	187	2
61	61	2
176	177	2
184	185	1
181	182	2
30	30	1
224	225	1
52	55	1
226	226	4
47	48	1
153	153	1
31	31	2
205	206	1
91	93	1
79	79	1
50	50	3
53	54	1
39	204	1
19	19	1
108	109	1
83	84	2
162	162	1
209	235	1
176	176	2
180	183	1
172	184	1
24	24	5
7	8	1
24	36	1
169	169	2
170	170	1
166	166	3
32	32	1
115	115	1
163	164	1
80	80	1
1	2	1
78	78	3
79	81	3
224	224	1
110	111	2
196	196	2
155	155	1
170	171	1
212	212	2
27	27	2
184	184	2
246	246	2
70	119	1
213	213	1
29	29	1
66	66	1
58	58	1
121	121	1
197	197	1
69	77	1
17	203	2
19	20	1
163	163	1
72	72	2
234	236	1
22	23	1
90	91	1
46	46	3
4	4	3
242	242	2
62	76	1
100	100	1
83	83	1
178	178	1
200	200	1
69	69	3
11	53	1
10	10	2
81	81	1
96	96	1
45	45	1
102	102	1
63	67	1
226	234	1
220	223	1
56	56	2
67	67	1
217	217	2
145	145	2
65	65	1
211	211	1
153	155	1
48	50	1
22	22	1
44	44	1
244	244	1
244	245	1
182	182	1
33	109	1
44	45	1
211	221	1
64	181	1
40	40	3
230	231	1
57	58	1
58	60	1
148	148	1
171	205	1
78	79	1
235	235	1
225	226	1
196	201	1
87	87	1
91	100	1
4	5	1
204	204	1
208	234	1
46	147	1
172	178	1
161	162	1
99	107	1
155	156	1
85	168	1
208	233	1
29	49	1
