34	41	2
74	74	3
44	44	7
149	150	1
67	67	3
31	32	2
168	170	1
156	159	1
163	166	2
22	23	1
72	72	3
4	4	4
118	118	8
42	42	6
6	8	1
169	169	10
85	97	1
116	116	3
6	7	2
113	114	1
165	166	2
168	168	3
141	141	4
61	62	2
100	101	1
95	95	13
38	39	2
49	50	1
84	84	1
67	71	1
61	61	1
144	174	1
84	96	1
118	130	2
60	60	2
78	78	5
127	159	1
90	92	1
82	82	2
133	133	8
36	36	4
68	68	4
151	152	1
117	117	5
140	140	3
0	1	2
158	158	5
149	149	6
83	94	1
135	136	3
136	167	1
175	175	5
32	32	3
145	145	3
34	34	2
33	34	4
109	110	2
137	137	8
78	79	1
150	150	5
163	167	2
160	160	1
139	139	9
106	106	2
151	151	4
54	54	8
102	107	1
96	96	4
145	172	1
87	93	1
90	102	2
159	159	6
177	178	1
100	100	5
28	28	1
139	141	1
52	52	2
108	109	2
63	82	1
99	99	1
26	26	4
154	154	4
165	165	2
40	40	7
81	125	1
126	130	1
158	159	2
170	171	4
56	56	4
2	2	4
1	1	2
43	43	5
127	127	5
154	155	1
130	130	3
177	179	1
37	37	13
170	170	5
57	57	1
79	79	7
171	171	4
121	121	7
90	90	3
173	173	3
51	51	2
126	134	1
87	87	3
6	6	3
27	29	1
25	25	3
132	132	6
2	3	1
12	12	3
39	39	4
73	73	5
3	3	5
175	176	2
152	152	2
71	72	2
177	177	4
150	153	1
148	148	8
62	62	2
164	165	1
55	55	1
12	13	1
99	100	1
120	120	4
129	129	3
20	21	4
6	9	1
75	115	1
162	163	1
87	136	1
29	31	2
90	91	3
30	30	3
82	83	1
167	167	2
134	134	9
122	123	4
90	94	1
8	8	3
39	41	1
137	149	1
15	15	3
18	19	1
59	127	2
41	41	3
24	25	1
146	146	2
91	91	2
94	94	1
150	154	1
142	142	6
94	95	2
14	14	4
81	86	1
125	126	3
174	174	2
2	5	1
33	97	1
151	163	3
13	13	4
75	75	6
29	29	2
121	123	1
89	102	1
112	112	2
64	64	1
91	92	3
12	32	1
114	114	4
35	35	6
27	27	1
5	5	1
81	82	2
137	138	1
98	114	1
60	94	1
115	115	1
123	123	2
146	162	1
34	43	1
83	84	2
142	145	3
81	81	2
23	23	3
44	45	2
37	54	2
108	108	4
9	9	2
178	178	2
19	21	2
173	174	1
180	180	1
116	121	2
16	17	2
136	137	2
9	10	1
130	131	1
135	135	1
7	7	2
172	175	1
71	71	5
35	74	1
33	39	1
160	163	1
22	35	1
17	17	3
63	63	2
0	0	3
33	40	2
95	96	1
51	58	2
157	157	2
65	128	1
11	11	6
105	107	2
85	95	2
131	131	2
147	149	1
58	59	1
77	77	2
77	78	1
106	107	1
104	104	1
143	143	2
169	170	1
163	163	1
167	169	2
83	96	1
120	121	1
161	161	1
71	77	2
146	169	1
15	19	2
102	123	1
132	169	1
38	38	4
166	166	1
128	129	1
66	66	2
111	111	4
97	97	1
136	136	1
98	98	3
176	176	2
133	149	1
138	138	1
67	88	1
165	167	1
52	86	2
39	40	1
21	21	1
70	122	1
148	149	1
126	126	7
16	18	1
33	33	3
81	127	1
156	156	4
60	145	1
67	143	2
144	144	2
65	65	2
140	141	2
162	168	1
96	112	1
24	29	1
52	63	1
127	153	1
179	179	4
20	51	3
82	122	1
64	65	2
132	133	2
171	172	1
0	32	1
123	150	1
147	148	1
110	110	1
121	122	2
3	17	1
30	31	2
119	128	1
67	68	2
147	157	1
86	86	1
30	63	1
32	56	1
18	18	2
76	76	1
124	124	2
134	135	1
150	151	1
172	172	1
3	5	3
80	80	3
141	145	1
102	115	1
3	7	1
133	139	1
75	98	1
128	128	1
149	168	1
160	161	2
96	98	1
112	114	1
129	130	2
107	107	2
60	61	2
160	162	1
32	33	1
57	60	1
15	16	1
159	162	1
19	20	2
45	45	2
65	148	1
75	76	1
24	24	1
155	155	2
113	113	1
13	22	1
34	42	1
50	50	1
85	85	1
91	93	1
74	100	1
122	122	3
148	150	1
173	176	1
37	39	2
66	67	1
79	81	1
84	122	1
122	125	1
56	57	1
133	137	1
53	53	1
102	103	1
25	26	1
148	162	1
151	153	1
144	163	1
105	105	1
154	156	1
122	127	1
16	39	1
89	89	1
24	26	1
134	150	1
16	16	1
138	139	1
34	37	1
137	172	1
83	83	1
40	41	1
172	173	1
55	102	1
89	90	1
101	101	1
114	115	1
65	145	1
68	173	1
147	147	1
116	117	1
145	146	1
65	66	1
22	22	1
58	58	1
41	42	1
130	143	1
141	170	1
14	15	1
49	61	1
145	150	1
107	108	1
83	85	1
31	64	2
53	96	2
4	36	1
106	159	1
93	96	1
16	27	1
102	102	1
50	51	1
141	176	1
6	10	1
74	134	1
