150	151	1
32	33	1
151	151	6
93	93	2
107	109	1
60	93	1
113	113	2
104	104	1
146	146	5
17	19	3
106	123	2
124	127	2
13	15	1
83	83	3
105	106	3
25	26	1
58	58	3
80	142	2
171	176	1
12	12	3
136	137	1
123	123	4
135	136	1
41	41	3
82	82	2
127	129	2
164	164	4
13	13	8
110	110	3
7	7	5
3	3	5
157	158	2
14	16	1
25	25	3
97	97	4
44	44	3
161	161	7
32	32	5
19	20	2
154	157	1
15	15	4
7	29	1
149	149	2
9	15	3
176	176	3
170	171	2
142	143	2
82	148	2
59	61	1
112	153	1
85	85	1
124	124	5
5	5	4
12	13	2
110	122	1
22	22	3
26	26	5
147	151	1
42	42	5
65	65	1
78	78	5
107	107	4
79	81	2
130	130	1
158	158	2
18	35	2
119	119	6
155	156	1
103	124	1
107	108	1
12	14	1
151	153	1
95	95	2
141	141	6
169	169	3
172	173	1
106	146	1
146	165	1
117	117	2
135	135	5
88	89	1
154	155	1
9	9	6
144	144	3
39	45	1
147	147	3
72	72	3
158	171	1
8	8	4
112	112	2
57	93	2
56	60	1
90	98	2
8	17	3
28	29	1
3	11	1
110	120	1
26	27	3
163	163	1
2	2	1
127	149	1
94	94	1
84	85	1
8	30	1
120	120	3
14	14	8
177	177	1
139	139	4
73	73	1
166	166	2
90	90	3
33	33	2
168	169	2
171	171	3
24	24	1
73	77	1
35	62	2
157	157	5
64	64	3
56	56	1
21	21	3
45	45	1
74	74	1
144	146	1
165	165	6
137	138	1
143	144	1
58	93	1
170	170	3
10	10	3
131	132	1
53	53	3
144	159	1
30	31	5
23	23	2
106	106	5
167	167	4
83	84	2
89	98	1
51	51	3
63	63	2
40	40	1
111	112	2
40	44	1
179	179	4
134	134	6
103	103	3
127	131	2
98	98	1
143	143	2
76	77	1
16	16	4
32	37	1
31	32	4
136	172	1
155	155	5
104	105	2
138	138	3
38	38	2
11	11	2
128	129	3
51	52	1
108	147	2
18	18	4
50	51	1
36	36	1
6	6	3
96	96	1
156	156	1
102	102	2
164	165	2
101	101	2
71	71	3
129	129	5
147	155	3
126	127	3
143	152	1
92	92	3
126	149	2
148	149	1
57	58	1
72	98	1
67	68	2
135	138	2
55	70	1
105	151	2
57	57	2
44	45	5
150	150	3
76	76	2
161	170	1
52	53	4
158	173	1
84	117	1
163	166	1
132	132	3
173	173	3
11	14	2
127	127	2
101	103	1
100	100	2
41	44	1
19	22	2
137	172	2
66	67	2
162	162	1
20	20	4
4	11	1
71	100	1
144	145	2
66	66	1
28	28	3
174	174	3
16	18	1
137	137	2
88	101	1
159	159	3
81	86	1
98	100	2
35	36	2
22	23	2
145	145	2
27	27	2
17	17	2
125	125	3
157	166	1
17	25	1
88	88	1
11	12	1
6	171	1
77	77	3
136	169	3
115	117	1
123	126	1
180	180	1
132	149	1
127	144	1
12	42	1
9	29	2
49	49	2
86	86	1
37	37	2
168	168	2
87	87	3
51	91	2
74	75	1
92	93	1
39	41	1
41	42	1
11	13	1
39	92	1
4	4	2
127	128	1
134	158	1
126	147	1
54	56	1
140	140	3
68	68	3
19	19	2
156	158	2
42	167	1
117	119	1
175	176	3
56	57	2
136	136	1
130	132	1
49	50	1
146	155	1
153	153	3
28	32	1
25	27	1
2	3	1
142	148	1
42	53	2
73	74	1
60	60	1
122	122	1
35	35	1
116	116	1
17	18	1
12	15	2
103	108	1
119	122	1
125	151	3
116	117	2
133	133	2
60	61	2
160	160	2
39	93	1
75	76	1
64	119	1
3	32	1
59	59	3
21	22	1
61	62	1
133	142	1
90	91	1
72	73	1
108	149	1
39	40	1
37	38	2
86	110	1
138	139	2
40	41	1
96	98	2
93	94	1
29	29	2
8	31	1
170	172	1
3	4	1
55	57	1
88	97	1
122	137	1
62	62	1
135	168	1
78	79	2
67	67	1
110	146	1
110	114	2
143	145	1
128	128	1
153	154	1
125	149	1
107	147	2
154	156	1
55	55	1
158	159	1
59	72	1
104	106	1
54	54	1
115	119	1
99	99	1
32	35	1
167	168	1
30	30	1
34	34	1
