49	49	5
204	204	6
15	15	3
40	65	1
50	50	3
173	228	1
41	41	7
23	25	1
31	31	9
205	205	6
42	42	3
54	54	8
43	43	11
213	225	1
19	19	6
170	170	2
244	245	1
171	182	1
21	21	6
28	28	5
117	117	4
196	196	3
206	206	2
181	181	6
155	156	2
49	50	2
27	27	12
93	145	1
74	74	1
107	107	2
11	11	12
186	187	1
17	17	6
48	76	1
207	236	1
196	199	1
44	44	7
168	176	1
109	109	4
107	108	2
118	118	5
70	70	6
20	21	1
26	26	5
229	230	1
236	236	2
244	244	3
5	220	1
91	91	3
242	243	1
1	1	7
173	173	9
233	233	8
9	9	4
80	83	1
32	32	5
44	202	1
190	190	3
151	151	4
21	32	1
194	194	1
106	147	1
191	191	2
45	45	6
30	31	1
245	245	6
81	81	4
112	112	5
159	159	3
83	84	1
90	90	3
41	43	1
89	89	2
212	224	1
36	36	5
34	43	2
16	16	5
243	243	2
160	174	1
155	155	4
34	34	6
154	155	5
16	32	1
47	47	3
88	88	2
12	13	1
218	218	3
221	232	2
16	204	1
52	53	2
182	182	5
168	186	2
231	231	7
219	219	4
29	29	3
184	184	3
51	53	2
87	87	1
75	75	3
31	33	1
164	177	2
4	4	5
40	40	4
108	108	2
20	20	9
212	212	6
175	175	3
65	66	1
61	61	5
5	5	7
3	3	4
161	161	4
93	93	1
18	46	1
39	39	2
46	46	5
37	37	6
185	197	1
17	18	2
13	13	2
182	184	1
208	208	3
59	60	2
38	39	1
23	23	3
65	65	5
184	230	1
223	223	1
3	110	1
54	65	1
200	200	6
79	80	1
210	211	1
235	235	3
33	41	2
246	246	3
167	167	4
69	69	6
8	8	5
11	12	1
58	59	2
92	92	5
219	220	2
241	242	1
226	226	3
94	113	1
30	46	1
62	87	2
216	216	1
34	35	1
27	28	2
48	48	2
223	244	1
22	22	4
159	164	2
6	7	1
110	110	2
224	224	8
185	186	1
209	209	5
10	10	3
162	162	3
235	245	2
164	164	2
6	6	9
55	55	3
214	230	1
52	52	2
12	12	6
17	19	1
8	147	1
30	30	9
10	196	1
117	119	1
102	102	1
238	247	1
214	214	4
21	155	1
150	150	1
2	2	5
95	96	2
119	119	5
20	23	1
192	193	1
53	53	9
79	98	1
247	247	2
179	179	2
227	227	2
226	227	2
76	78	1
207	207	3
17	231	1
85	90	1
70	71	1
28	29	2
153	153	3
169	169	3
196	197	2
57	57	2
231	245	1
160	173	1
0	1	2
234	234	3
225	226	2
213	213	4
6	8	1
88	91	1
201	202	2
100	100	4
211	212	2
19	35	1
160	166	1
193	194	2
82	108	2
3	4	1
211	211	2
174	174	4
163	166	1
215	219	2
35	36	1
167	184	1
228	229	1
183	183	1
40	41	1
202	202	4
197	197	3
225	225	2
192	192	1
35	35	5
156	156	6
29	46	1
205	214	1
163	163	4
71	71	1
105	105	1
222	235	1
168	168	3
4	5	1
198	200	1
238	238	1
193	193	2
237	240	2
193	222	1
48	49	2
38	38	2
178	179	1
16	182	1
54	55	1
36	109	1
168	185	1
188	188	3
183	207	1
36	37	1
171	171	5
94	94	3
77	77	5
33	33	1
100	151	2
228	228	4
147	147	1
163	164	2
105	106	1
242	242	1
59	59	4
172	172	3
165	165	3
64	64	1
53	54	1
97	97	1
161	162	1
146	146	1
18	18	6
169	175	1
240	240	1
224	225	1
237	237	3
203	203	4
92	109	1
180	180	4
113	114	2
221	223	2
187	188	2
115	116	1
203	211	1
7	7	2
95	121	1
76	77	1
84	84	2
3	6	1
31	48	1
170	193	1
222	222	2
32	33	1
209	214	1
172	173	1
159	160	1
199	199	3
162	239	2
179	202	1
249	249	1
65	68	1
221	221	2
113	115	1
178	178	4
90	91	1
154	154	4
213	214	2
215	242	1
166	166	2
5	14	1
47	58	1
9	10	1
38	53	1
203	213	1
241	241	2
187	187	1
2	230	1
56	56	1
68	68	4
58	58	2
116	117	3
160	161	1
176	176	1
207	231	1
180	224	1
236	238	1
63	63	1
44	47	2
194	217	1
220	221	1
247	248	1
33	38	1
210	210	3
168	214	1
222	244	1
236	237	1
215	216	1
230	230	5
112	113	1
85	85	1
87	88	1
23	24	2
160	160	4
229	229	1
208	216	1
48	232	1
32	59	1
113	113	2
164	185	1
9	32	1
35	150	1
51	51	2
194	199	1
8	11	1
169	179	1
223	242	1
27	46	2
176	179	1
80	80	1
51	52	1
114	117	1
238	240	1
168	169	1
100	101	1
185	185	1
62	64	1
186	220	1
114	114	2
46	101	1
60	60	1
75	76	1
233	234	1
175	182	1
145	156	1
1	2	2
108	120	1
2	3	1
33	40	1
96	96	2
231	233	3
60	78	1
10	11	2
38	54	1
19	22	1
24	24	2
25	25	1
7	149	1
186	186	1
217	217	2
188	189	1
215	215	1
17	234	1
17	54	1
8	10	2
199	200	1
214	240	1
152	152	3
26	27	1
56	68	1
37	111	1
158	158	1
111	180	1
195	196	1
203	230	1
150	151	1
18	48	1
92	93	1
236	241	1
1	20	1
181	195	1
100	108	1
171	172	1
14	31	1
32	43	1
82	82	1
59	61	1
104	105	1
190	191	1
233	240	2
194	195	1
185	210	1
47	227	1
153	154	1
84	85	1
202	203	1
81	84	1
157	157	1
7	8	3
28	46	1
201	201	2
25	26	1
211	219	1
3	15	1
219	235	1
201	212	1
198	198	1
78	78	1
76	76	1
119	120	1
62	62	1
37	38	1
101	101	1
80	81	1
172	179	1
99	100	1
182	188	1
163	165	1
68	77	1
79	87	1
161	180	1
184	198	1
63	72	1
227	228	1
103	103	1
46	52	1
226	235	1
89	100	1
206	207	1
1	38	1
178	190	1
17	25	1
18	20	1
54	100	1
188	220	1
195	239	1
46	63	1
175	192	1
4	248	1
229	231	1
213	218	1
179	180	1
165	185	1
220	220	1
192	215	1
