45	46	2
66	66	6
74	74	3
44	68	1
30	30	3
47	47	5
126	127	4
94	94	2
67	68	1
7	8	1
109	110	2
78	79	2
87	98	1
72	73	3
72	72	3
121	121	6
25	50	2
99	100	4
132	132	7
96	96	3
124	124	8
54	54	8
82	82	2
40	40	3
112	112	4
34	34	5
77	77	5
126	126	8
52	52	9
78	78	7
86	87	2
1	1	3
53	53	4
85	85	4
65	65	7
25	31	1
102	102	3
7	7	3
25	26	1
17	17	1
86	86	4
32	40	1
88	88	6
86	89	2
13	14	1
67	67	7
15	15	4
105	105	3
39	39	5
115	117	2
130	131	3
46	46	1
93	94	2
129	130	1
31	31	5
128	128	9
3	3	3
125	125	6
12	48	1
24	24	5
76	76	5
68	68	5
130	130	1
87	88	4
38	73	1
70	123	3
131	131	3
101	101	3
99	99	2
48	48	4
5	5	4
65	66	2
60	91	1
23	23	2
127	127	5
75	75	4
110	110	7
86	88	3
18	18	1
104	105	3
76	77	1
58	58	2
98	98	3
40	70	1
91	91	2
49	50	3
21	21	1
41	41	3
59	59	4
3	4	1
83	83	5
79	79	2
93	93	3
2	3	1
97	101	1
13	13	7
76	84	1
0	0	3
57	57	5
82	99	3
117	117	4
97	128	1
108	109	2
94	132	1
29	29	7
110	111	2
40	73	1
98	102	1
6	6	3
62	63	1
73	103	1
92	92	5
48	57	1
53	54	3
64	94	2
77	78	2
118	118	6
119	119	4
3	5	1
88	112	1
50	50	7
70	70	2
96	107	2
25	25	1
29	30	1
89	89	4
49	49	3
101	105	1
83	99	1
66	99	2
101	102	1
43	43	4
87	91	1
17	91	1
113	113	10
65	79	1
77	82	1
69	69	7
108	108	4
76	78	1
32	32	1
4	4	2
115	116	2
73	73	4
69	102	1
104	104	3
16	16	1
71	72	1
64	69	1
20	34	1
10	11	1
59	60	1
71	71	2
71	83	1
80	81	4
116	116	7
107	107	6
24	105	1
33	33	4
95	96	1
96	98	2
60	60	6
109	115	2
54	55	2
7	122	1
90	90	4
68	69	5
81	81	4
8	9	1
69	89	1
63	63	1
97	98	3
119	120	1
127	128	2
27	27	3
111	112	3
64	64	5
55	55	4
44	44	5
62	62	2
11	11	3
133	133	2
9	10	3
93	105	2
90	102	1
51	51	4
28	28	1
108	131	1
81	82	3
106	120	1
0	1	2
10	10	1
0	105	1
85	86	1
80	82	3
40	58	1
23	109	1
95	95	4
83	84	2
61	61	3
5	6	1
125	126	1
55	56	1
14	14	2
80	83	1
42	42	3
97	97	3
8	8	3
82	83	4
129	129	4
47	48	1
109	117	1
111	111	7
22	22	1
44	45	1
73	94	1
122	123	1
55	111	1
117	118	1
15	16	3
11	12	1
111	113	1
75	76	1
60	67	1
58	60	3
87	90	1
114	118	1
12	24	1
61	80	1
118	124	1
62	92	1
102	132	1
53	55	2
132	133	1
52	53	1
20	20	2
90	93	1
96	99	1
114	114	1
56	57	2
63	64	1
33	34	1
40	41	1
68	80	2
71	103	1
43	100	1
112	122	1
123	131	1
109	109	5
90	94	2
106	106	3
31	32	2
21	22	1
122	122	2
84	86	2
84	100	1
70	86	1
26	27	1
38	68	2
11	13	1
7	9	1
92	119	1
41	44	1
114	115	1
112	119	1
39	83	1
94	95	1
24	27	1
45	45	1
93	102	1
125	127	1
14	28	1
79	80	1
79	82	1
61	62	1
62	65	1
39	71	1
126	128	1
115	115	2
118	119	1
59	62	1
31	132	1
39	42	1
103	103	1
45	73	1
100	100	2
38	40	1
73	75	1
3	108	1
69	70	1
2	2	1
1	2	1
82	101	1
42	68	1
83	85	1
77	83	1
94	131	1
23	32	1
80	101	1
87	87	1
87	99	1
64	76	1
28	32	1
123	123	1
95	97	1
