37	37	4
10	11	1
148	148	2
103	106	1
87	87	2
109	134	1
71	71	2
142	143	3
49	49	2
130	130	2
109	109	3
111	147	1
133	133	1
120	121	2
4	104	1
73	73	2
144	144	2
57	57	1
102	102	2
12	12	1
6	8	1
24	44	2
124	124	1
104	106	1
56	82	2
80	80	3
72	75	1
115	115	1
37	38	1
87	112	1
63	74	1
56	57	2
3	3	1
150	150	2
8	8	1
82	82	3
38	38	4
19	19	3
79	79	4
95	95	1
64	64	2
39	40	1
105	147	1
135	135	5
132	133	2
50	50	1
125	147	1
6	7	1
123	128	1
12	23	1
7	7	1
46	46	2
115	143	1
103	113	1
47	47	1
32	32	1
145	145	3
139	139	5
66	66	1
142	142	3
106	111	1
6	6	4
85	100	1
126	126	1
134	134	3
42	42	1
48	48	1
119	121	1
29	29	1
153	154	1
70	70	1
132	132	3
147	148	2
147	147	1
127	127	1
90	90	2
56	56	1
107	108	1
99	99	2
11	20	1
32	46	1
137	139	1
11	11	4
36	80	1
12	17	1
113	115	1
94	94	3
105	105	2
18	18	1
85	85	1
141	147	1
73	76	1
78	78	1
57	67	1
66	67	1
113	149	1
140	142	1
45	46	2
98	98	1
22	25	2
67	67	1
123	134	1
104	104	4
140	140	1
35	35	1
74	74	1
5	10	1
40	47	1
80	83	1
138	138	2
111	115	1
103	104	1
23	23	1
38	51	1
141	141	2
83	84	1
50	55	1
51	52	3
128	129	1
122	148	1
23	25	1
81	81	2
68	102	1
9	9	3
122	122	1
61	64	1
119	135	1
138	142	1
80	96	1
123	124	1
51	51	1
96	96	1
47	49	1
87	111	1
71	73	1
116	116	1
24	24	1
73	74	1
81	93	1
65	66	1
42	57	1
81	83	1
50	52	1
31	54	1
30	32	1
141	143	1
92	97	1
55	55	1
105	145	1
110	141	1
139	141	1
69	69	1
51	55	1
146	146	1
125	145	1
78	79	1
20	39	1
12	38	1
17	17	1
129	129	1
113	113	1
99	116	1
84	84	1
140	147	1
107	124	1
106	107	1
54	54	1
63	63	1
107	107	1
44	47	1
28	53	1
36	36	1
98	138	1
22	22	1
