169	169	3
46	46	2
173	175	1
178	178	3
74	74	4
19	19	3
51	51	4
80	81	1
35	35	2
81	81	4
57	58	1
6	43	1
143	143	2
141	141	5
23	25	1
90	153	1
114	115	1
72	72	4
116	166	3
27	30	2
87	87	3
84	85	2
38	53	1
133	133	3
44	45	1
87	89	2
145	145	4
116	116	2
147	148	1
165	165	2
66	66	4
37	38	5
79	79	4
139	139	3
75	76	3
94	94	4
175	175	2
73	73	2
10	11	2
141	145	1
8	8	1
159	159	1
104	105	1
124	124	1
103	104	1
85	85	2
132	132	4
6	6	5
61	61	1
121	121	2
115	115	1
150	150	2
24	24	3
147	158	1
144	144	1
131	133	1
157	157	1
111	111	2
146	146	1
56	56	5
1	1	4
76	77	3
72	74	2
27	27	3
67	68	3
50	50	4
128	152	2
142	142	3
12	12	1
102	102	2
88	108	1
55	74	1
93	94	1
52	73	1
0	1	1
107	108	1
52	52	4
60	60	4
5	5	8
154	154	4
41	41	1
143	144	2
54	60	1
65	66	2
110	113	1
171	171	3
20	40	1
31	31	2
85	103	1
172	172	2
174	174	2
103	105	1
164	168	1
68	68	5
138	138	1
10	32	1
170	170	2
160	163	1
107	107	2
164	164	2
112	126	1
3	4	1
109	145	1
86	86	3
123	123	1
10	10	4
53	53	2
131	131	2
14	14	1
95	95	1
135	135	1
23	23	1
158	159	3
54	95	1
153	153	2
77	78	1
75	75	3
129	143	1
58	89	2
52	54	1
148	148	3
39	43	1
98	98	3
32	58	1
108	108	1
39	39	1
3	167	1
54	54	2
122	130	1
130	130	3
131	132	1
75	94	1
180	180	3
146	147	1
176	176	2
2	2	1
3	3	3
168	168	2
175	176	1
179	180	1
49	50	1
81	83	1
21	22	3
6	42	1
24	25	2
4	4	1
71	72	1
137	137	2
2	75	1
126	126	1
151	170	3
116	127	1
23	28	1
71	71	2
73	77	2
121	123	1
142	145	1
64	64	3
85	95	1
125	126	1
82	121	1
94	95	2
2	74	2
77	77	5
32	32	1
28	28	1
151	154	1
15	25	1
82	86	1
16	16	6
168	170	1
167	168	1
88	88	3
50	51	1
4	30	1
108	170	1
162	162	1
156	156	2
83	84	1
110	110	2
7	8	1
84	84	1
62	62	2
22	22	1
9	9	2
118	118	2
53	77	1
112	112	1
120	121	1
43	54	1
0	0	1
173	173	3
13	13	3
23	30	1
55	55	2
114	114	2
31	33	1
70	70	1
95	122	1
81	82	1
64	89	2
18	24	1
54	79	1
153	154	1
129	135	1
82	87	1
15	16	2
148	149	1
33	44	1
99	99	1
134	149	1
59	59	2
63	63	1
30	30	1
136	150	1
36	36	1
146	154	1
43	43	1
149	149	1
34	44	1
177	178	2
89	90	1
82	84	1
144	152	1
133	145	1
152	152	2
176	177	1
150	151	1
127	130	1
140	140	1
91	103	1
160	160	1
167	167	1
62	63	1
134	134	2
152	153	1
117	151	1
32	56	1
161	161	1
165	166	1
131	169	1
163	166	1
72	73	1
11	11	1
58	58	1
20	20	1
33	33	1
147	147	1
6	7	1
154	161	1
37	37	1
17	23	1
100	100	1
120	120	1
136	137	1
177	177	1
80	80	1
23	26	1
76	80	1
99	105	1
171	172	1
25	30	1
128	128	1
67	67	1
21	21	1
10	177	1
34	39	1
110	111	1
