115	115	3
130	146	1
114	114	2
9	45	1
111	111	2
25	30	1
149	150	1
43	44	1
102	110	1
28	30	1
4	5	2
80	80	2
102	102	2
71	71	3
145	145	1
79	96	1
35	35	2
46	46	2
70	109	1
29	29	2
40	52	1
103	103	2
26	26	2
109	109	1
50	50	2
97	97	2
65	65	2
126	128	1
14	20	1
120	122	1
86	86	2
64	64	1
12	17	1
27	29	1
44	44	3
125	125	1
98	115	1
24	41	1
53	56	1
137	137	3
145	151	2
45	45	1
33	34	1
85	88	1
122	122	1
81	93	1
69	72	1
31	31	3
147	147	1
41	62	1
124	126	1
113	113	2
17	17	1
134	134	2
28	42	1
108	108	1
10	10	1
110	132	1
93	93	1
85	105	2
40	40	1
47	47	1
76	110	2
13	13	1
119	119	2
20	20	2
6	6	1
11	11	3
148	148	1
84	116	1
96	99	2
126	141	1
141	146	1
19	19	1
143	143	1
123	123	2
135	136	1
12	12	2
111	129	1
46	70	1
31	32	1
22	22	2
56	57	1
135	135	2
15	15	2
32	34	1
44	46	1
108	113	1
79	83	1
120	120	1
10	36	1
68	68	2
38	38	1
130	136	1
122	124	1
81	82	1
132	133	1
126	127	1
10	11	1
18	19	1
110	110	1
18	23	2
76	78	1
24	24	1
25	25	1
31	40	1
116	116	1
72	72	1
131	131	1
137	138	1
5	21	1
89	90	1
23	24	1
78	78	1
34	43	1
24	30	2
117	117	1
22	41	1
114	115	1
37	49	1
100	102	1
31	50	1
43	53	1
31	51	1
18	55	1
13	38	1
87	87	1
22	27	1
152	152	1
64	75	1
25	58	1
118	118	1
42	43	1
102	120	1
115	121	1
31	35	1
11	16	1
111	125	1
93	136	1
39	55	1
96	148	1
121	121	1
141	141	1
21	21	1
118	128	1
97	98	2
73	75	1
34	35	1
42	42	1
154	154	1
4	21	1
130	130	1
94	129	1
126	137	1
139	147	1
48	48	1
78	84	1
133	136	1
82	82	1
39	39	1
69	69	1
106	149	1
38	39	1
81	81	1
36	56	1
41	41	1
95	98	1
33	33	1
74	75	1
112	112	1
34	36	1
8	8	1
107	123	1
