18	29	1
67	68	3
156	156	5
165	165	1
58	58	3
26	28	1
174	174	5
79	80	2
25	26	2
50	50	2
50	51	4
18	18	2
10	10	3
79	79	1
125	125	3
8	9	1
2	3	3
64	64	3
88	89	2
142	145	2
169	169	4
31	31	4
92	92	3
44	44	3
161	169	1
33	34	1
56	56	3
137	140	2
130	130	6
16	37	2
3	3	4
158	158	3
66	67	1
33	35	3
85	85	1
118	119	1
107	107	5
23	24	2
17	18	2
33	33	4
20	20	3
57	59	1
30	30	4
112	113	1
146	146	2
85	99	1
13	13	5
115	115	5
95	95	3
157	157	2
37	38	1
14	32	1
79	132	1
96	97	3
133	133	6
0	0	4
141	141	2
105	105	4
99	103	1
68	68	3
75	103	1
179	179	5
42	42	1
41	42	3
5	5	3
37	37	4
106	128	2
11	11	1
4	4	2
38	43	1
38	38	4
18	19	3
172	172	4
82	82	2
150	150	4
125	156	2
116	117	3
119	119	2
106	110	1
9	12	2
100	100	1
176	176	4
127	127	3
66	66	3
139	139	4
118	120	1
73	134	2
12	128	1
106	106	1
141	159	1
20	21	1
154	154	2
41	41	1
7	7	4
61	62	2
45	45	2
50	64	2
128	145	2
149	149	5
135	135	2
84	99	1
15	15	3
34	34	4
82	83	1
106	107	1
73	73	1
131	131	4
132	133	3
155	155	2
62	62	1
162	162	3
98	99	3
56	60	1
80	80	5
146	147	1
72	72	7
91	113	1
140	170	1
25	25	1
16	16	1
94	98	1
15	19	1
151	151	3
96	96	1
105	107	2
122	126	1
140	140	4
160	163	2
52	52	1
170	171	3
32	33	1
22	22	2
138	138	3
108	109	2
54	55	2
84	110	1
132	132	2
65	65	2
103	103	1
128	152	1
55	56	1
118	118	2
153	153	3
89	89	1
60	60	4
12	12	1
24	26	1
31	39	1
102	102	3
163	163	2
24	29	1
9	9	2
128	130	2
107	109	3
167	167	5
151	152	3
17	17	1
171	171	3
35	35	3
165	167	1
0	1	1
93	93	3
126	132	1
71	71	4
40	43	2
126	126	5
90	91	1
84	85	1
23	23	1
10	11	1
180	180	2
172	178	1
4	18	2
26	26	4
122	124	1
137	138	1
88	88	2
97	113	1
62	93	1
24	24	3
63	63	1
21	21	1
57	57	2
161	161	1
74	75	1
168	169	1
83	86	1
13	17	1
108	108	3
14	14	3
148	148	5
110	110	2
117	118	1
159	162	1
61	64	1
172	173	1
30	40	1
119	120	2
102	114	1
6	6	2
1	1	2
29	30	1
44	45	2
52	53	1
39	43	1
97	97	2
167	168	1
123	124	2
13	35	1
93	96	1
118	121	1
136	136	1
125	159	1
64	65	2
168	168	3
160	160	2
61	61	1
5	6	1
72	112	1
8	8	2
20	31	1
142	142	2
49	50	2
16	17	2
90	90	1
111	111	2
76	79	1
145	159	1
86	86	2
84	84	3
6	7	3
123	156	1
140	141	1
9	26	1
76	76	3
27	28	1
58	59	1
157	158	1
2	4	1
108	121	1
110	125	1
163	167	1
74	74	3
39	39	1
32	32	1
9	15	1
81	81	4
81	110	2
17	20	1
54	54	1
98	110	1
74	77	1
113	115	1
137	141	1
55	55	2
159	159	4
177	178	1
143	143	1
99	99	1
121	121	2
9	152	1
107	108	1
42	96	1
83	85	1
81	122	1
129	129	4
134	135	3
29	29	1
122	122	1
149	173	1
164	165	1
127	129	1
75	75	3
4	5	1
98	100	1
97	98	2
102	133	1
147	147	1
96	98	1
122	148	1
64	97	2
137	137	4
35	36	1
19	19	1
1	2	1
91	92	2
117	117	1
78	78	2
77	78	1
65	95	1
13	15	1
4	7	1
62	63	1
79	90	1
135	168	2
59	59	1
112	112	1
129	130	1
27	27	1
123	123	1
160	161	1
20	39	1
72	80	1
51	52	1
81	82	1
178	178	1
117	120	1
120	142	1
173	174	1
175	175	2
6	33	1
85	86	1
49	49	1
40	40	2
2	5	1
108	114	1
101	101	1
114	144	1
95	110	1
106	116	1
36	36	1
108	126	1
10	31	1
84	86	1
114	114	1
12	13	1
1	16	1
