87	87	2
156	156	2
100	100	4
78	79	1
102	102	2
13	29	2
54	54	2
134	134	3
13	39	1
13	76	1
81	82	2
98	99	1
98	98	4
156	157	1
124	124	5
80	80	5
144	144	3
71	72	1
41	110	1
86	141	1
83	83	3
95	95	2
90	96	2
108	110	2
99	99	3
21	22	1
77	77	1
26	26	1
135	136	2
6	105	1
137	138	1
110	116	1
46	46	2
67	68	2
91	139	1
139	139	1
154	154	2
100	104	2
151	158	1
16	18	1
111	111	1
45	45	4
136	136	3
135	150	3
88	88	2
103	103	1
50	50	1
140	142	3
132	132	4
52	52	3
118	118	1
137	137	1
1	1	4
0	0	3
51	52	1
158	158	3
30	30	1
91	91	1
120	120	3
113	113	1
68	68	3
41	41	2
36	54	1
145	147	2
105	105	2
11	11	3
109	109	1
8	8	1
7	8	2
136	137	1
104	104	3
81	112	1
143	143	1
119	156	1
90	90	6
125	125	1
142	154	1
128	128	3
11	20	1
147	147	4
150	150	4
122	142	1
75	102	2
4	4	1
126	126	1
10	10	3
106	106	1
40	41	2
139	144	3
61	61	1
38	46	1
73	158	1
148	156	1
64	65	1
131	131	2
97	97	1
75	86	1
52	54	2
139	140	2
40	40	1
114	114	3
87	106	2
67	91	1
111	132	1
69	71	1
27	28	2
113	115	1
134	135	3
143	148	1
24	24	2
32	33	1
1	2	1
49	49	2
66	66	3
92	105	1
86	87	1
149	151	1
125	126	2
76	76	1
1	4	1
102	139	1
34	34	1
115	116	3
79	80	2
84	85	1
25	26	2
101	101	2
148	148	2
16	32	1
107	108	1
120	127	1
96	97	1
129	129	1
142	146	1
7	96	1
132	133	1
73	73	2
140	141	1
94	94	1
29	29	1
67	67	1
124	126	1
140	147	1
80	81	1
141	141	4
25	91	1
42	42	1
22	22	1
153	153	1
19	88	1
18	18	2
3	3	1
95	97	1
111	112	1
64	64	2
130	140	1
10	29	1
20	20	2
54	88	1
157	157	3
110	113	1
119	120	1
81	81	2
75	75	3
129	133	1
83	137	2
145	146	1
105	106	1
155	155	2
12	12	1
124	125	3
149	155	1
108	109	1
65	65	1
30	69	1
129	150	1
31	31	1
153	154	1
6	6	2
8	119	1
75	78	1
107	128	1
115	123	1
82	82	1
51	51	1
67	81	1
16	16	1
104	105	1
106	107	1
106	128	1
134	138	1
26	36	1
125	144	1
115	115	2
73	105	1
12	88	1
15	15	1
5	6	1
35	38	1
119	126	1
106	112	1
93	131	1
5	5	1
17	17	1
146	148	1
123	157	1
107	107	1
92	93	1
129	130	1
123	125	1
92	92	1
154	158	1
78	78	1
48	48	1
43	43	1
