11	11	1
163	165	1
108	108	1
106	106	1
81	81	2
66	66	2
19	19	4
97	97	1
6	11	1
23	23	1
139	140	2
34	34	4
101	103	2
131	131	3
91	91	2
161	164	1
151	151	5
127	127	1
20	22	1
71	73	2
1	1	4
109	109	1
5	5	1
125	127	1
123	123	2
27	27	2
25	26	1
162	162	2
7	10	1
124	130	4
14	14	2
73	112	1
44	44	3
47	47	1
35	36	1
36	36	2
77	77	1
53	53	5
43	43	6
50	51	1
158	158	2
79	79	2
120	121	1
18	18	3
57	57	1
39	39	3
77	98	1
82	87	1
147	148	2
105	105	2
126	138	1
15	16	2
99	118	2
7	43	1
110	110	3
170	170	3
164	166	2
6	6	2
67	68	1
169	169	1
150	151	1
56	56	1
26	26	5
16	16	3
146	155	1
142	142	4
22	22	1
25	25	2
48	49	1
12	12	3
112	112	2
22	23	1
41	42	1
7	24	2
143	144	1
126	126	3
86	86	2
70	70	2
17	17	3
10	10	1
35	35	2
27	39	1
101	102	1
84	84	1
48	48	1
90	90	1
133	133	1
89	91	1
155	161	1
148	148	1
20	20	2
145	158	1
12	21	1
21	21	2
154	155	1
1	24	1
62	62	2
4	14	1
134	134	1
157	157	1
111	111	1
37	38	2
3	7	1
47	50	1
162	164	1
90	97	2
7	11	1
124	142	1
24	24	4
96	97	1
161	161	2
132	132	1
149	165	1
63	63	1
73	73	3
118	136	1
66	92	1
90	91	1
23	24	1
152	152	1
122	122	3
123	124	1
42	42	4
33	33	1
153	153	3
128	128	3
154	154	2
168	169	1
22	24	1
156	157	1
144	144	1
139	139	2
50	50	1
167	167	1
20	53	1
140	141	1
19	22	1
49	62	1
143	143	2
8	8	2
52	52	1
8	12	1
39	40	1
128	129	1
71	71	2
43	74	1
150	150	2
147	151	1
54	55	1
136	143	1
143	150	1
0	2	1
14	15	1
10	87	1
69	69	2
126	141	1
44	151	1
21	22	1
13	13	2
136	136	1
0	0	2
8	10	1
11	14	1
18	20	1
40	40	1
3	3	1
74	99	1
117	117	2
110	136	1
7	8	2
101	101	1
136	145	1
41	41	1
164	164	2
112	126	1
166	167	1
156	156	1
135	135	1
85	85	1
145	170	1
104	104	1
145	146	1
97	99	1
101	126	1
92	92	1
88	90	1
76	78	1
124	146	1
15	15	1
74	77	1
116	116	1
51	51	1
10	11	1
107	107	1
51	77	1
120	120	1
165	170	1
119	151	1
133	156	1
94	94	1
134	135	1
45	45	1
165	165	1
139	144	1
157	160	1
