84	84	4
194	194	4
10	10	4
41	41	3
135	141	3
58	71	1
31	31	4
140	140	5
84	85	1
179	180	2
173	173	3
142	148	1
34	34	6
143	148	1
7	7	4
192	193	1
4	5	1
66	66	3
147	148	3
29	29	5
180	180	4
162	162	2
141	141	4
30	30	4
179	179	2
24	180	2
23	23	2
149	150	2
189	189	1
168	168	3
39	47	1
3	4	4
5	35	1
38	50	1
22	22	3
21	29	1
151	151	2
195	195	3
172	175	2
25	26	3
83	100	1
124	124	3
26	26	5
170	171	1
149	149	3
47	47	2
0	12	2
185	185	3
187	187	2
46	47	2
102	102	2
57	63	1
46	46	6
181	181	2
162	165	1
70	70	3
109	109	3
18	19	2
13	15	2
38	38	4
135	137	2
33	35	1
129	130	1
21	21	3
32	123	1
64	80	1
144	144	1
38	40	1
183	196	1
96	96	2
33	33	8
7	9	1
159	159	3
193	194	3
126	126	9
130	131	1
51	51	1
116	116	1
157	157	1
183	184	5
9	15	1
28	34	1
21	25	1
58	66	2
37	37	8
87	93	1
39	39	4
100	103	1
163	167	1
98	108	1
160	166	1
6	6	3
53	69	1
140	167	1
108	108	4
19	20	1
28	28	2
12	12	3
103	103	3
0	0	3
161	162	3
167	168	1
174	174	2
131	149	1
145	156	1
145	145	5
35	39	1
58	58	4
160	176	1
14	14	5
10	11	1
71	72	2
151	154	1
105	105	1
46	51	2
32	38	1
66	82	1
160	163	2
169	169	3
165	166	1
131	131	1
175	175	2
24	25	3
142	143	1
161	161	3
185	187	1
191	192	2
129	194	1
0	1	1
32	33	2
166	166	3
150	150	4
184	187	1
80	80	3
82	83	1
106	110	1
95	102	2
62	62	2
139	167	1
47	48	1
99	100	3
8	34	2
31	32	1
160	162	1
17	24	1
20	23	1
16	38	1
77	82	2
188	188	2
147	153	2
123	123	1
120	120	3
112	112	4
35	35	2
163	163	3
156	157	1
45	45	4
23	24	2
17	20	1
127	127	3
8	33	1
32	32	8
35	78	2
171	171	3
6	20	2
110	111	1
176	177	1
139	160	1
138	196	1
7	19	1
30	46	1
138	138	2
75	83	2
155	160	1
133	140	2
72	72	4
34	36	2
79	79	2
55	55	3
4	7	1
11	66	1
182	184	1
141	144	1
113	118	1
54	62	2
190	195	1
31	36	1
48	48	2
164	173	1
61	63	1
115	127	2
98	98	2
110	110	5
143	166	1
186	197	1
65	66	5
85	90	2
81	84	2
73	73	1
192	192	2
23	32	1
164	164	2
122	122	2
182	183	1
8	8	3
54	56	1
116	155	1
17	25	1
173	175	4
99	99	2
45	46	1
113	116	1
13	13	5
166	169	1
13	14	1
106	106	2
24	33	1
193	193	6
117	117	2
9	14	1
177	177	1
97	98	1
183	190	1
74	75	2
158	158	6
29	39	1
40	49	1
16	16	6
81	81	1
21	42	1
61	66	1
4	32	1
182	182	2
121	169	1
78	78	2
25	28	2
20	21	2
68	71	1
53	56	1
41	59	1
148	148	2
27	29	1
179	193	1
7	8	1
134	134	3
170	170	5
72	73	2
68	68	1
5	16	1
153	162	1
42	42	2
25	25	1
121	125	1
42	43	2
5	6	2
173	174	1
132	133	2
142	142	3
56	56	1
161	170	1
30	36	1
139	147	1
34	46	2
20	27	1
37	39	1
196	196	1
118	123	1
156	160	1
141	142	1
8	10	1
119	119	2
74	78	1
152	152	4
25	27	1
183	183	2
3	7	1
67	68	2
2	4	3
11	11	3
45	162	2
63	63	2
10	42	1
139	139	1
3	10	1
1	1	3
154	155	1
171	185	1
133	144	1
179	182	1
184	184	4
154	154	1
38	57	2
74	74	1
141	154	1
167	167	1
75	75	2
151	152	1
97	196	1
36	36	3
176	176	2
18	18	3
27	27	2
44	45	2
17	32	1
185	186	1
164	172	1
3	3	3
0	18	1
39	46	1
95	96	1
140	142	1
142	146	1
2	2	1
5	8	2
163	172	1
45	50	1
153	153	2
104	137	1
76	76	1
14	24	1
51	53	1
178	178	2
132	142	1
143	143	2
20	29	2
103	104	1
108	109	1
186	193	1
43	43	4
104	106	1
147	149	1
14	25	1
6	7	1
33	37	1
32	37	1
19	21	1
40	41	1
120	121	1
156	156	1
187	191	1
155	156	2
7	18	1
2	11	1
85	88	1
38	39	1
163	168	2
138	141	1
44	44	1
118	118	1
188	190	1
0	26	1
119	160	1
20	20	1
61	61	2
197	197	1
42	197	1
144	161	1
147	159	1
79	100	1
15	15	1
183	185	1
171	173	2
56	60	1
166	167	1
112	119	1
40	143	2
122	123	1
16	29	1
96	97	1
24	24	1
6	27	2
128	128	1
141	143	1
135	143	1
94	152	1
48	193	1
16	27	1
69	69	3
13	180	1
181	183	1
135	135	1
9	9	2
66	79	1
16	17	1
33	34	1
135	150	1
188	193	1
53	54	1
78	79	1
139	148	1
168	169	1
125	141	1
167	172	1
166	170	1
17	18	1
65	65	1
133	134	1
52	53	1
168	172	1
42	44	1
145	162	1
127	128	1
50	51	1
188	197	1
156	171	1
17	17	1
93	93	1
2	6	1
2	14	1
179	184	1
55	64	1
111	111	1
121	122	1
191	191	1
25	34	1
41	44	1
54	126	1
5	5	1
19	19	2
54	54	1
33	36	1
104	104	1
180	194	1
142	152	1
24	39	1
7	190	1
64	64	1
187	190	1
26	27	1
172	173	1
62	83	1
51	63	1
146	146	1
71	73	1
143	157	1
3	22	1
12	13	1
184	197	1
32	35	1
