8	49	2
3	19	1
62	62	2
76	76	1
143	152	1
6	7	1
16	16	2
75	75	2
170	170	2
70	71	1
9	10	1
150	150	1
80	80	1
83	83	1
2	2	6
126	126	9
162	162	1
41	41	4
126	127	1
159	170	1
44	44	2
7	7	4
11	14	1
160	164	1
127	130	1
43	44	2
3	44	1
36	36	1
37	37	3
48	49	1
135	136	2
141	144	1
109	120	1
22	22	3
10	10	5
85	107	1
159	159	3
43	43	2
144	144	3
121	133	1
53	71	1
152	156	1
65	67	1
120	146	1
166	166	3
119	121	1
14	14	2
66	72	1
165	165	3
52	52	5
111	111	2
135	146	1
159	160	1
154	162	1
27	27	4
128	128	3
118	139	1
15	17	2
109	111	1
144	147	1
149	149	3
163	167	1
136	144	1
148	151	1
157	157	2
88	88	2
148	148	3
112	112	3
97	119	2
116	116	2
8	9	4
107	107	1
152	152	3
98	98	3
49	49	5
120	120	2
46	88	2
5	6	2
97	99	1
49	69	1
33	33	1
167	167	1
101	125	1
103	103	1
67	67	3
100	123	1
142	142	6
17	17	1
102	102	5
144	157	1
41	46	1
158	159	1
84	88	1
89	101	1
108	111	1
80	82	2
54	54	1
110	130	2
137	163	1
86	86	1
160	160	1
84	84	2
99	111	2
108	109	2
35	35	3
74	81	2
38	38	4
169	169	2
156	156	2
7	160	1
28	28	2
15	15	4
26	26	2
140	142	1
88	89	1
12	12	1
101	101	2
105	106	1
6	6	1
25	25	3
35	36	1
161	161	2
4	4	1
161	167	2
73	73	2
99	115	1
132	135	1
49	52	1
134	134	3
163	166	1
39	39	2
130	131	1
72	72	1
137	147	1
155	155	2
48	154	1
102	108	1
148	149	1
86	95	1
51	70	1
130	154	1
84	126	1
48	152	1
3	5	2
137	137	2
11	20	1
119	119	1
121	125	1
47	47	2
38	40	1
100	102	2
132	132	1
86	108	1
3	4	1
54	57	1
10	49	2
118	135	1
142	145	1
69	70	1
6	24	1
92	113	2
17	84	1
101	105	1
37	87	1
139	140	1
9	9	3
19	19	3
92	93	1
7	15	1
81	81	2
146	146	1
2	10	1
142	144	2
20	24	1
15	16	1
42	42	2
97	97	2
8	8	2
85	93	1
106	106	2
99	117	1
105	105	1
139	159	1
1	144	1
127	127	2
23	23	1
113	113	3
17	42	1
146	148	1
91	99	1
15	44	1
92	101	1
141	158	1
28	71	1
13	13	1
104	104	1
34	86	1
125	130	1
7	10	2
18	20	1
88	149	1
2	3	1
73	83	1
62	83	1
21	21	2
9	15	1
141	142	1
157	170	1
9	11	1
51	51	1
90	90	1
141	141	1
68	68	1
138	147	1
143	143	1
148	154	1
143	161	1
53	53	2
161	162	1
74	74	1
18	50	1
70	70	1
71	71	2
168	168	2
96	112	2
19	21	1
123	124	2
73	74	1
55	55	1
166	167	1
4	6	1
144	150	1
43	53	1
50	51	1
92	96	1
125	138	1
6	71	1
142	157	1
90	91	1
56	56	1
90	125	1
107	108	1
23	117	1
131	139	1
39	49	1
5	5	1
37	56	1
6	157	1
57	63	1
42	168	1
150	152	1
27	130	1
142	150	1
66	66	1
125	155	1
77	77	1
90	97	1
153	153	1
151	151	1
23	24	1
79	80	1
57	57	1
147	147	1
63	63	1
55	56	1
151	161	1
100	100	1
135	135	1
34	34	1
125	135	1
117	117	1
138	148	1
145	146	1
92	92	1
