143	143	8
154	154	4
10	159	2
4	4	5
6	7	1
8	9	4
83	98	1
75	75	4
150	150	5
155	156	2
3	3	4
152	152	4
45	45	7
147	147	6
157	157	7
105	105	6
15	34	1
168	168	8
15	36	2
1	1	4
23	23	4
26	26	8
8	8	4
15	45	1
124	124	3
71	71	4
100	119	1
20	21	3
71	72	1
164	164	5
47	133	2
136	138	1
98	98	3
56	56	4
46	46	3
128	128	2
132	132	4
42	42	10
53	53	2
14	20	1
101	102	1
11	13	2
6	135	1
119	130	2
111	111	6
10	10	8
73	73	5
86	87	2
146	158	2
90	91	2
22	37	1
149	149	4
169	169	3
65	65	2
139	139	4
143	150	2
156	156	7
38	39	1
91	143	1
161	166	2
119	119	3
126	135	2
19	47	1
90	147	2
49	50	1
70	170	1
7	10	2
86	86	4
138	138	4
34	34	5
43	43	8
2	5	1
108	108	2
86	88	1
154	155	1
57	57	2
102	115	3
138	139	2
137	137	5
152	153	2
137	170	1
144	144	4
102	102	1
150	157	1
9	21	1
142	147	2
92	93	2
41	41	5
53	105	1
38	38	5
76	93	1
130	130	3
45	47	1
103	103	1
93	95	4
19	19	2
20	20	2
143	146	2
12	12	2
70	70	1
17	17	4
6	6	2
14	14	5
58	58	2
14	108	1
166	166	6
160	160	7
161	161	6
147	148	2
36	36	7
140	140	4
118	118	2
87	87	4
137	138	2
42	43	4
109	109	4
0	2	2
84	84	1
93	93	5
64	66	2
162	163	2
80	88	1
40	48	1
151	151	3
7	11	1
86	166	1
167	167	5
126	126	3
35	144	1
170	170	5
100	101	2
61	62	2
24	24	5
5	6	3
89	89	4
44	44	6
82	82	1
63	64	3
64	69	1
119	121	1
72	73	1
36	37	4
46	68	1
37	37	6
146	165	1
158	159	1
149	157	1
97	99	2
49	49	3
76	76	2
116	129	1
153	153	2
1	5	1
19	22	4
141	142	3
49	54	1
25	25	2
37	83	1
131	131	4
92	92	3
21	21	4
52	52	3
131	141	1
159	159	5
47	47	4
133	133	3
96	96	3
2	154	1
130	144	1
50	50	2
155	155	8
56	57	2
14	15	4
78	78	2
94	94	3
40	40	7
18	19	2
129	141	1
148	148	2
122	126	1
111	116	1
27	27	4
7	7	4
99	99	2
22	23	3
110	111	2
81	81	3
110	110	2
54	98	2
74	74	1
149	166	3
134	134	2
146	153	1
49	57	1
77	77	2
38	40	1
12	13	1
116	119	1
145	145	2
158	158	9
108	109	2
68	68	2
116	116	5
141	143	1
84	85	2
15	16	2
99	146	1
35	35	8
54	161	2
99	110	1
118	123	1
145	162	1
15	15	4
8	138	1
79	79	2
130	143	1
120	126	1
91	106	1
2	2	3
74	90	3
13	17	1
39	65	2
110	159	1
143	144	1
34	37	1
41	42	3
33	33	4
134	135	2
15	49	1
133	158	1
39	39	3
3	5	2
63	63	3
50	51	2
44	45	1
48	48	1
120	120	4
163	164	2
14	34	1
158	160	3
0	0	5
82	83	1
2	13	2
44	84	1
90	139	1
157	160	1
62	79	2
24	26	1
117	117	2
24	45	1
102	103	1
67	75	2
128	133	2
129	130	1
123	125	1
17	44	1
78	79	1
121	122	1
87	89	1
25	28	1
109	147	1
126	129	1
142	142	4
132	135	1
20	54	1
121	121	1
113	113	1
52	147	1
133	137	1
130	155	1
24	25	1
72	72	3
25	37	1
145	169	1
125	125	3
45	46	1
126	160	1
135	135	3
119	138	1
145	157	1
136	136	6
14	44	1
16	16	4
5	144	1
164	165	1
126	127	1
4	43	1
72	78	1
165	165	5
17	18	4
102	132	1
18	58	1
139	148	1
88	88	2
153	156	2
1	21	1
35	36	1
80	80	2
48	50	1
114	115	3
88	89	2
85	129	2
162	162	3
118	143	1
166	168	1
127	128	1
150	151	2
52	53	1
8	12	2
92	97	1
79	102	1
3	150	1
34	35	2
69	90	1
11	11	2
136	137	3
33	35	2
13	15	2
10	37	2
41	43	2
103	105	1
91	91	3
69	92	1
131	132	2
65	67	1
83	83	2
97	97	1
142	146	1
142	167	1
113	131	2
104	104	1
74	75	3
27	41	1
102	104	1
90	90	2
19	165	1
39	40	2
9	9	3
77	78	2
140	141	2
79	80	1
63	76	2
37	106	1
46	54	1
13	158	1
149	159	1
46	57	1
83	84	1
143	145	1
43	44	1
133	134	1
125	163	1
54	54	2
106	107	5
2	47	1
27	28	1
161	170	1
3	4	1
114	116	1
121	153	1
145	148	1
69	69	1
8	143	1
33	34	3
5	7	1
144	146	1
13	16	1
124	141	1
2	14	1
109	136	1
39	83	1
53	71	1
96	139	1
7	43	1
13	40	1
140	150	1
128	136	1
89	90	1
168	170	1
112	112	1
86	114	1
5	5	1
84	109	1
96	98	1
10	15	1
168	169	1
114	131	1
82	98	1
18	18	1
108	110	1
116	117	1
51	51	1
111	112	1
112	131	1
69	76	1
16	25	1
159	160	1
152	154	1
142	143	2
53	109	1
2	3	1
133	135	1
89	97	1
128	152	1
49	51	1
119	149	1
8	10	1
7	14	1
117	119	1
123	146	1
64	65	1
120	129	2
107	107	1
87	88	1
145	146	1
11	19	1
84	105	1
65	79	1
8	39	1
117	126	1
157	161	1
156	157	1
130	153	1
28	28	1
45	73	1
7	13	1
43	108	1
10	11	1
93	101	1
15	37	1
105	120	1
48	49	1
129	129	1
94	99	1
80	129	1
160	161	1
71	73	1
162	164	1
40	112	1
162	166	1
48	81	1
13	13	1
114	114	1
141	141	1
133	155	1
157	158	1
162	165	1
124	125	1
117	123	1
90	135	2
74	93	1
75	76	1
13	144	1
55	55	1
154	157	1
