15	15	5
187	187	4
170	170	4
178	178	4
134	135	2
156	156	3
86	86	4
175	176	3
76	81	2
222	222	5
160	160	4
103	103	4
188	188	5
171	171	8
31	31	7
55	55	3
223	224	1
136	136	3
8	90	1
3	3	3
80	197	1
8	64	1
88	88	4
20	53	1
174	174	5
235	236	2
119	119	6
23	23	8
14	14	4
148	149	1
163	163	5
35	36	2
15	20	1
108	108	6
156	157	3
152	153	1
0	172	1
140	140	5
123	123	3
37	48	1
211	211	2
124	125	1
44	44	1
179	179	4
148	148	1
192	216	1
136	171	1
157	157	9
121	122	2
45	45	5
158	162	1
139	139	1
240	240	4
122	122	3
60	120	1
51	57	1
168	179	1
154	154	4
146	146	2
176	176	4
216	217	1
138	139	2
69	69	5
202	202	1
65	65	5
100	101	1
137	137	3
137	138	2
57	57	7
158	159	1
138	138	4
190	190	5
239	240	1
17	17	5
220	223	1
114	114	2
165	165	3
102	121	1
32	32	4
167	168	4
127	127	4
106	107	2
8	8	3
79	79	5
24	24	2
2	2	3
32	33	2
72	79	1
71	71	4
80	84	1
47	47	3
139	141	2
154	157	1
121	121	3
195	195	3
166	167	1
193	195	2
60	60	4
175	175	6
2	3	1
105	105	6
74	74	6
135	135	4
64	64	1
147	149	1
4	15	1
54	54	4
48	49	2
160	161	1
150	150	8
197	198	1
73	202	1
49	49	2
111	111	4
42	42	3
86	88	1
21	23	1
218	218	2
114	119	1
56	56	4
125	125	4
103	104	1
149	152	1
43	169	1
26	26	3
8	45	1
84	84	2
10	10	4
151	151	3
50	50	2
36	36	4
29	29	4
81	81	2
70	70	1
121	124	2
32	234	2
220	220	3
7	12	1
9	206	1
225	225	4
239	241	1
105	159	2
83	83	3
30	30	4
19	19	2
41	41	2
109	109	2
36	48	1
200	200	3
43	43	4
129	130	3
76	82	1
50	51	2
20	20	3
98	111	2
66	66	1
217	217	3
185	185	4
176	177	2
199	199	2
154	186	2
235	235	4
185	186	3
225	230	1
58	58	5
192	197	1
149	149	5
173	173	6
18	19	3
150	178	1
104	104	2
194	196	3
227	227	2
4	5	2
153	153	3
178	218	1
28	28	3
19	53	1
231	232	1
15	17	1
89	89	2
77	78	1
64	187	1
21	22	5
206	209	1
187	189	1
178	181	1
51	51	3
213	213	2
170	171	1
12	12	5
100	100	4
59	60	1
29	30	1
112	112	1
135	171	1
192	192	2
106	106	3
89	96	1
61	61	2
22	22	3
22	34	1
238	238	3
169	169	5
128	128	2
165	180	3
50	52	1
118	144	1
204	204	4
184	184	8
174	175	2
218	219	1
53	154	2
6	7	1
73	73	3
150	151	1
8	9	2
192	195	1
65	67	1
59	59	1
12	16	1
67	67	2
62	62	2
168	168	3
134	134	3
140	154	1
208	208	2
146	147	1
107	108	2
190	191	1
106	108	1
210	222	1
106	150	1
37	37	3
98	98	2
39	42	2
15	220	1
228	228	3
124	124	3
162	163	2
137	227	1
113	114	1
21	200	1
172	172	2
182	182	2
230	231	2
9	10	1
18	18	1
191	191	4
113	113	4
51	52	1
40	40	2
53	53	4
41	58	1
54	60	2
173	174	1
112	201	1
21	21	2
161	169	1
212	212	4
159	160	1
17	19	1
169	170	4
160	169	1
199	200	2
128	146	1
67	84	1
126	126	1
187	188	1
21	46	1
205	207	1
62	85	1
34	41	1
189	189	1
150	153	1
101	102	2
169	178	1
36	42	1
115	116	1
3	33	1
141	141	1
26	27	1
131	131	2
9	9	4
79	211	1
195	196	1
27	27	2
99	99	4
83	104	1
25	26	1
133	133	2
85	86	1
227	228	1
133	183	1
82	84	2
10	24	3
146	148	1
100	174	1
14	23	1
188	189	3
26	71	1
63	63	1
145	145	2
158	169	1
32	34	2
54	55	1
150	161	1
37	234	2
14	15	1
115	191	1
96	96	1
166	166	2
115	118	1
19	33	1
11	11	3
122	124	3
106	109	1
152	152	2
82	83	1
198	220	3
231	231	2
160	162	1
27	174	1
5	5	2
144	144	4
9	68	1
143	143	1
236	236	2
37	135	1
116	116	1
175	179	1
44	47	1
7	34	1
7	7	1
143	154	1
123	144	1
19	20	1
139	140	2
177	177	1
24	71	1
206	206	1
120	122	1
173	175	1
106	114	1
191	217	1
20	21	2
7	91	1
12	214	1
0	1	1
120	144	1
147	151	1
131	146	1
150	162	1
129	131	1
242	242	2
142	142	1
73	86	2
144	157	1
149	150	1
132	139	1
34	34	2
72	75	1
117	117	1
140	147	1
228	230	1
210	211	1
213	215	1
205	206	1
123	124	1
120	120	1
55	122	1
161	161	2
201	201	1
37	43	1
130	130	1
171	172	1
66	67	1
107	110	1
181	181	1
186	186	1
16	16	2
183	183	1
214	214	1
6	6	1
1	2	1
1	1	3
230	230	1
41	42	1
0	0	3
145	146	1
12	14	2
213	221	1
12	24	1
155	155	1
239	243	1
224	224	1
34	50	1
83	110	1
4	4	1
203	203	1
228	229	1
125	126	1
163	164	1
11	15	1
58	59	1
13	13	1
80	80	3
25	28	1
105	106	1
50	75	2
78	78	1
136	138	1
144	145	1
58	60	1
96	97	1
151	221	1
186	187	1
12	15	1
37	39	1
36	49	1
84	85	1
76	76	2
3	4	1
162	162	1
76	91	1
31	53	1
1	220	1
109	111	1
30	98	1
61	106	1
36	52	1
177	217	1
232	232	2
135	137	1
239	239	1
36	40	3
105	121	1
220	227	1
150	152	1
45	46	1
9	15	2
96	111	1
33	37	1
169	200	1
85	102	1
115	117	1
183	185	1
82	82	1
48	61	2
48	58	1
206	207	1
26	47	1
152	219	1
219	219	2
223	223	1
75	75	1
173	206	1
183	187	1
43	44	1
49	50	1
153	158	1
63	145	1
95	95	1
24	64	1
77	143	1
159	159	1
24	33	1
165	168	1
73	74	1
180	183	2
192	201	1
51	53	1
43	220	1
27	28	1
144	152	1
43	61	1
60	76	1
74	75	1
102	102	1
207	207	1
91	91	1
29	31	1
144	146	1
178	179	1
233	233	1
183	184	1
105	240	1
164	167	1
32	56	1
190	220	1
151	160	1
158	158	1
45	232	1
193	193	1
114	131	1
56	57	1
59	157	1
165	166	1
19	22	1
47	127	1
238	239	1
129	129	1
211	213	1
108	109	1
1	29	1
