106	106	2
122	122	1
119	119	5
130	130	2
128	128	5
140	141	3
108	108	2
149	149	4
103	103	1
126	126	2
146	146	4
47	50	2
8	85	1
68	68	6
16	16	2
49	49	3
124	128	2
97	97	1
15	15	5
21	22	1
55	55	1
57	57	3
105	105	4
104	105	3
36	36	5
79	81	3
18	45	1
24	24	2
71	108	1
10	13	1
54	54	3
95	95	3
26	26	3
107	107	4
78	79	2
154	154	1
36	95	1
73	74	1
23	23	2
152	152	1
143	144	2
40	73	1
85	109	1
36	37	2
14	15	1
100	100	3
121	121	2
118	118	5
21	21	2
113	113	3
109	150	1
142	144	1
74	74	3
151	151	3
152	153	1
113	115	2
106	109	2
33	37	1
93	124	1
11	17	3
20	38	1
48	48	1
76	76	2
10	10	5
53	128	1
40	40	2
13	13	3
9	9	1
29	29	2
111	112	1
109	153	1
22	22	7
147	147	1
148	148	1
75	83	3
100	103	1
93	96	1
85	86	1
141	145	1
69	69	1
23	27	2
113	114	1
98	98	1
13	16	1
115	115	4
80	83	1
50	50	4
95	97	1
100	125	1
138	141	1
92	92	2
38	38	3
101	102	1
39	39	4
66	66	2
99	99	2
62	63	1
127	128	1
64	90	1
32	32	3
27	28	1
33	33	3
71	123	1
104	104	3
8	10	1
85	85	3
8	12	1
82	87	1
18	18	2
7	7	4
109	109	5
9	24	1
112	128	1
87	87	3
137	137	3
27	27	2
12	15	1
23	40	1
74	81	1
132	132	2
47	47	1
143	143	1
117	117	2
136	136	4
135	135	3
144	144	2
41	42	1
74	75	1
86	86	1
70	70	3
141	141	2
47	70	1
17	17	2
43	44	1
150	151	1
4	7	1
35	37	1
140	140	2
106	130	1
50	55	1
111	111	4
93	128	3
124	126	2
37	42	3
8	11	1
83	84	1
20	20	2
13	14	1
11	11	1
5	108	1
139	144	1
56	56	1
37	37	1
36	65	1
26	35	1
79	79	1
97	116	1
77	77	2
106	121	1
79	83	1
102	102	2
69	71	1
123	124	2
74	102	1
105	106	1
12	12	1
63	63	2
150	150	1
41	50	1
21	23	2
31	32	1
143	147	1
4	6	2
11	12	2
19	19	1
112	112	1
117	118	1
129	129	2
108	113	1
89	152	1
10	15	1
71	71	1
106	107	1
42	45	2
84	84	1
142	142	1
3	3	1
56	57	1
65	65	2
110	112	1
9	14	1
141	147	1
72	76	1
44	44	1
107	108	1
46	46	1
72	85	1
41	41	1
24	25	1
147	148	2
64	64	1
83	85	1
112	115	1
111	124	1
138	138	1
94	95	1
26	81	1
35	45	1
126	127	1
8	8	1
27	30	1
101	101	1
