209	219	1
143	163	2
99	110	2
0	1	1
34	34	2
180	181	1
150	156	1
9	10	2
217	217	5
189	189	2
115	129	1
31	31	3
137	138	1
192	192	2
49	49	2
26	26	3
222	222	2
11	62	1
105	106	1
188	220	1
22	66	1
12	12	9
40	40	1
10	70	2
27	138	1
138	140	1
178	178	2
162	162	3
24	178	2
149	149	1
161	165	1
18	18	3
196	197	1
190	190	1
192	193	2
29	29	3
206	206	1
161	182	1
65	68	1
121	121	1
119	144	1
82	82	3
70	70	1
159	170	3
86	86	4
141	141	1
198	198	1
58	59	2
64	64	2
161	162	2
42	42	1
128	131	1
211	213	3
144	144	1
146	174	1
126	127	1
3	3	3
65	65	2
102	111	1
31	129	1
50	50	1
14	37	1
150	151	2
184	184	2
123	124	1
17	24	1
5	5	1
110	111	1
74	74	5
223	224	1
17	221	1
179	179	2
204	222	1
161	161	1
180	180	2
10	10	2
85	86	3
128	128	1
239	240	1
188	189	1
1	1	1
172	172	6
152	152	2
7	7	3
167	167	2
20	20	4
86	87	1
210	210	1
12	16	1
10	39	1
141	149	1
77	77	3
129	129	2
126	126	2
15	16	1
111	173	1
223	228	1
122	122	2
47	70	1
92	105	1
23	23	1
25	25	2
233	233	3
183	183	1
63	63	2
143	149	1
156	156	2
138	183	1
72	72	3
70	71	1
235	237	1
171	171	1
11	11	1
14	14	1
10	26	1
66	66	1
74	87	2
135	135	2
202	202	1
130	134	1
104	104	2
7	34	1
3	6	1
148	148	1
128	163	1
99	100	2
229	229	2
125	125	1
51	52	1
194	194	1
17	19	1
55	55	5
164	164	3
28	29	2
98	109	1
60	60	1
78	102	3
205	207	2
217	231	1
177	177	1
39	39	2
79	79	1
235	235	1
170	170	1
9	9	3
2	12	1
220	220	3
172	173	1
205	206	2
34	36	1
84	84	2
0	7	2
100	100	1
73	73	3
225	226	2
9	16	2
16	185	1
20	28	1
23	206	1
32	39	1
21	24	2
216	216	2
115	115	1
135	141	3
58	69	1
63	64	1
38	38	3
81	82	1
165	165	2
231	231	1
54	54	1
186	201	3
101	101	1
0	0	1
56	57	1
213	213	1
22	23	1
7	9	1
229	230	1
124	126	1
6	6	1
131	131	2
175	176	1
127	128	1
13	13	3
207	208	1
48	68	1
77	80	1
7	8	1
11	68	1
32	32	1
8	8	1
218	218	2
150	159	2
116	118	1
173	175	1
124	137	1
239	239	2
137	140	1
117	117	2
36	48	1
242	242	1
2	3	1
139	143	1
102	102	2
133	133	2
153	154	1
52	54	1
207	229	2
66	70	1
221	221	1
146	146	1
123	125	1
174	198	1
230	231	1
191	197	1
7	37	1
192	195	1
168	197	1
69	69	1
72	80	1
22	35	1
75	75	1
85	85	1
62	69	1
166	166	1
8	9	2
173	203	2
13	17	1
175	177	1
165	166	1
13	15	1
212	212	1
126	143	1
4	5	2
20	185	1
182	182	1
76	77	1
113	113	1
207	207	1
227	227	1
68	68	1
199	199	1
43	43	1
217	223	1
20	24	1
109	110	1
41	41	1
180	219	1
166	177	1
19	19	1
136	162	1
53	66	2
183	184	1
18	19	2
97	101	1
23	27	1
214	214	1
209	209	2
154	154	1
127	176	1
44	45	1
107	192	1
126	161	1
175	175	1
237	237	1
71	71	1
64	65	1
34	35	1
97	97	1
123	126	1
185	185	1
10	205	1
51	54	1
164	166	1
171	172	1
