241	241	14
17	18	2
79	79	7
85	85	19
98	99	2
13	14	3
40	44	1
147	147	6
92	92	7
118	118	12
165	165	13
12	12	22
220	220	17
218	218	16
236	236	13
10	10	12
102	102	13
169	195	1
24	24	9
193	193	10
32	32	26
178	179	3
113	114	4
30	30	11
44	44	18
3	7	1
4	5	6
192	218	1
113	113	11
175	175	28
59	60	4
168	168	13
47	48	2
173	173	16
170	172	1
14	15	4
208	208	22
209	210	5
40	41	3
215	215	18
163	164	6
42	42	23
20	21	4
25	25	12
166	166	9
27	27	11
17	17	8
239	243	1
203	203	16
235	235	8
49	106	2
173	194	1
61	63	2
81	81	6
28	29	3
169	169	15
54	55	7
105	105	3
246	246	19
96	99	1
75	88	1
239	239	11
155	155	12
204	204	22
158	158	10
170	176	1
200	200	19
187	190	3
183	183	8
9	10	4
93	93	9
185	185	14
38	38	22
114	115	5
61	221	1
231	245	2
160	179	1
55	55	15
6	8	1
242	242	9
84	84	16
177	177	16
15	24	1
57	67	1
66	66	13
78	79	3
86	86	14
74	74	9
109	109	10
18	18	13
217	220	1
36	36	14
26	26	21
166	167	4
8	8	13
173	181	1
181	181	19
159	159	11
209	209	16
234	234	18
198	217	3
225	225	14
48	48	15
207	207	13
72	72	13
157	175	1
230	230	17
196	196	11
112	114	3
67	68	4
58	58	14
235	245	2
169	181	1
110	110	19
112	112	16
190	191	7
6	6	12
97	101	1
50	50	11
162	181	3
169	245	1
206	207	4
37	37	20
229	229	23
11	112	1
151	151	12
168	169	5
57	58	6
73	74	2
194	195	6
2	3	6
43	43	11
0	1	6
238	240	5
243	243	13
98	98	7
100	100	11
65	66	2
182	188	2
233	233	15
205	206	1
16	32	1
226	227	3
178	178	11
114	114	7
107	107	10
94	95	2
167	167	11
189	232	1
9	234	1
225	247	1
192	224	2
176	176	11
16	16	18
186	186	22
218	219	5
68	69	7
51	51	13
248	248	6
170	170	13
57	70	3
89	90	3
21	21	8
162	162	27
245	245	21
101	109	1
174	177	1
221	222	9
196	205	1
44	45	4
222	223	3
224	224	11
68	70	3
145	145	4
69	69	5
202	202	11
175	202	1
19	19	15
196	213	2
221	221	10
59	59	14
49	49	16
174	174	10
41	41	11
27	89	1
197	197	10
75	75	8
168	215	1
52	53	6
157	160	2
57	57	8
68	68	12
233	234	6
22	22	13
88	88	16
197	247	1
154	155	2
247	247	10
11	11	23
190	190	18
227	227	13
87	106	1
5	5	20
9	9	14
98	102	1
209	213	2
157	157	12
53	54	4
115	155	1
91	92	4
12	53	1
199	199	21
225	233	1
15	16	7
155	161	1
172	178	1
222	222	14
160	160	18
24	25	3
48	49	4
180	180	10
40	40	20
169	170	2
184	184	12
161	162	1
244	244	11
216	216	15
229	231	2
195	195	8
205	207	3
226	226	21
243	244	4
164	164	20
205	205	18
115	115	10
85	101	2
246	248	3
193	198	1
65	65	12
190	198	1
185	186	8
152	153	2
111	111	20
52	120	1
223	223	6
194	194	15
196	197	4
205	224	1
4	230	1
166	170	1
87	87	9
212	212	20
167	180	1
56	57	5
213	214	7
89	89	11
219	220	3
105	106	3
49	50	10
116	225	1
33	40	1
28	31	2
108	108	10
67	67	9
31	32	6
15	15	18
82	101	2
240	240	16
83	83	7
159	173	1
167	168	1
238	238	14
47	47	16
212	213	3
217	217	16
212	220	1
211	211	12
78	78	6
57	240	1
48	78	1
224	233	1
60	62	1
192	213	2
214	214	14
40	94	1
172	172	9
189	190	6
84	86	1
28	28	21
201	201	23
8	167	1
219	221	1
233	244	2
36	38	3
29	29	11
79	80	4
187	196	1
234	235	3
46	46	13
34	102	2
193	196	1
187	188	4
231	247	1
4	227	2
214	215	1
246	247	3
2	2	10
48	58	1
11	46	2
7	19	1
231	231	16
58	60	1
46	204	1
21	22	3
71	84	1
240	241	2
193	220	1
64	64	13
56	66	2
82	82	7
38	39	4
163	186	1
20	30	1
85	86	1
232	232	11
5	7	3
161	161	11
48	151	1
9	174	1
14	14	10
150	151	1
174	211	1
156	156	11
76	85	1
214	243	1
85	89	3
35	35	16
189	192	2
158	165	1
4	4	12
79	84	1
34	34	10
213	213	21
116	116	14
19	20	3
117	117	13
118	119	3
101	113	1
170	171	5
248	249	1
7	8	5
184	185	5
206	206	11
237	237	10
217	219	1
53	53	15
45	45	18
34	37	1
109	110	4
169	171	2
190	192	2
115	116	8
106	106	5
171	172	3
73	73	10
77	108	1
235	236	6
58	62	1
172	183	2
164	165	4
39	39	18
70	70	8
232	233	3
185	221	1
189	205	1
31	33	5
47	52	2
90	116	1
218	236	1
53	229	2
62	62	8
1	1	7
34	35	3
2	155	2
95	95	11
233	235	3
187	187	9
40	52	2
198	199	6
109	113	2
102	103	3
204	205	3
201	234	1
150	150	9
43	46	1
8	54	1
91	102	1
71	71	6
21	23	2
57	61	1
164	172	2
26	27	5
229	230	11
188	188	5
99	99	12
37	39	1
56	56	11
30	31	4
52	52	9
197	198	6
146	147	2
223	224	4
75	80	1
3	3	8
40	113	1
12	40	1
228	228	12
163	163	17
106	107	2
80	80	6
33	33	18
116	117	2
33	34	2
181	228	1
97	97	7
181	183	2
167	185	1
198	198	20
191	191	6
34	225	1
157	167	1
201	202	2
202	203	3
112	113	4
154	154	17
68	85	1
177	186	1
44	51	1
47	180	1
6	7	5
11	32	2
208	236	2
192	195	1
223	235	3
87	89	1
120	120	4
51	245	1
215	222	2
99	108	1
118	120	2
101	101	9
49	164	1
178	199	1
90	90	9
41	59	1
94	94	10
247	248	4
215	216	3
62	64	1
18	20	3
71	186	1
20	20	15
6	53	1
23	23	9
237	241	1
97	100	2
153	153	6
43	44	5
240	243	1
31	52	1
11	62	1
4	65	2
96	96	4
94	100	1
10	11	1
54	57	1
59	61	2
154	230	1
176	177	5
188	191	5
31	31	8
61	61	11
242	243	2
107	108	2
77	77	7
162	163	2
109	114	1
87	88	2
43	53	1
59	174	1
171	171	8
41	65	1
152	152	6
179	179	9
183	184	7
179	207	1
208	231	1
100	108	1
201	204	2
228	229	3
66	91	1
38	43	2
192	192	9
96	97	6
191	198	1
42	112	2
186	220	2
182	182	10
64	66	2
18	19	6
157	168	1
149	150	1
28	39	1
222	233	1
176	183	1
99	100	5
1	183	1
46	180	1
100	207	1
33	35	3
177	178	1
76	76	7
55	66	1
186	187	1
210	210	6
77	99	1
104	104	5
207	208	2
118	145	1
173	235	1
41	223	1
240	242	1
98	100	1
216	221	1
86	87	2
19	41	1
231	234	4
200	241	1
242	246	2
245	246	5
173	236	1
219	219	17
25	27	3
7	112	1
94	106	2
91	91	10
208	209	10
32	33	5
24	33	3
61	249	1
58	246	2
28	30	2
205	245	1
27	28	5
238	248	1
179	234	1
241	242	2
172	208	1
203	204	5
67	100	1
48	249	2
33	115	1
181	182	5
176	178	3
224	225	4
203	212	2
234	245	1
23	25	3
104	106	1
213	246	1
56	87	1
110	111	4
214	216	1
100	117	2
162	165	1
144	155	2
195	196	4
62	63	1
49	66	2
78	85	1
10	173	1
146	146	3
84	85	3
209	224	4
79	89	2
119	119	12
213	236	1
178	197	1
174	207	1
249	249	1
211	212	3
96	103	1
227	229	1
209	214	1
58	59	2
116	244	1
201	225	2
208	210	3
194	196	1
225	226	3
43	112	1
63	76	1
104	108	1
93	166	1
217	218	6
221	239	1
157	158	2
212	242	1
47	93	1
50	83	1
111	147	2
61	170	2
156	157	7
85	240	1
54	54	8
86	88	3
166	226	1
194	240	1
7	7	14
231	238	1
212	214	1
55	59	2
72	231	1
111	121	1
81	85	1
111	114	1
62	68	1
210	222	1
100	101	2
172	186	1
214	220	1
46	155	3
60	60	7
163	200	1
234	246	1
168	184	2
104	215	1
12	15	4
47	235	1
3	43	1
72	73	2
230	234	1
182	205	1
41	43	1
162	182	2
11	31	1
46	47	2
181	188	1
39	40	4
117	118	3
24	234	1
64	65	3
231	236	1
214	219	1
237	239	3
62	92	1
224	230	1
41	46	1
208	223	1
111	113	2
38	44	1
230	231	4
4	51	1
61	66	1
45	180	3
96	118	1
81	118	2
53	166	1
182	219	1
59	109	1
46	227	1
111	112	4
236	247	1
29	32	1
214	225	1
92	93	2
77	210	1
193	195	3
204	212	2
174	181	1
32	172	1
239	240	4
170	177	1
30	47	1
235	244	1
55	226	1
186	192	1
235	246	2
189	189	5
97	98	2
29	156	1
174	176	1
220	246	1
209	246	1
113	162	2
73	97	2
60	61	7
62	84	2
213	220	1
57	60	1
52	67	1
53	62	1
48	51	1
203	231	1
101	145	1
164	176	1
48	153	1
152	203	1
13	13	4
227	236	2
173	175	3
90	158	1
5	66	1
48	67	2
4	30	1
179	181	1
95	96	1
182	226	1
67	213	1
91	110	1
160	165	1
179	187	1
24	28	3
217	225	3
63	63	6
183	201	1
177	190	1
86	92	2
87	91	2
81	88	1
236	245	2
104	105	2
45	46	2
58	90	2
178	195	1
165	166	4
213	219	1
76	118	2
119	120	4
78	231	1
169	186	1
194	216	1
216	237	1
40	43	1
37	38	2
145	161	1
152	181	1
184	187	1
186	188	2
183	185	1
95	153	1
194	220	1
3	5	1
82	83	4
0	150	2
197	207	1
49	69	1
63	64	2
14	17	1
66	89	2
191	199	1
25	33	1
216	217	5
196	211	1
70	185	1
39	41	2
48	50	2
22	23	4
42	113	2
38	53	1
163	172	1
3	30	1
61	62	1
239	241	2
89	162	2
78	109	1
27	46	2
54	110	1
193	194	4
84	89	2
50	220	1
54	245	1
81	82	3
11	38	2
32	37	1
175	176	2
121	121	4
56	78	2
184	202	1
171	186	2
67	73	1
237	238	5
215	217	1
236	243	2
67	89	1
66	67	4
159	185	1
8	9	3
150	168	1
158	159	2
184	245	1
88	89	2
89	93	1
223	247	1
108	113	1
205	230	1
39	145	1
174	183	1
31	203	1
62	76	1
55	230	1
10	14	2
69	70	3
71	75	1
209	242	1
97	99	2
192	197	1
39	161	1
67	78	1
169	173	1
72	74	1
58	229	1
80	81	2
95	158	1
24	29	1
11	17	1
209	248	1
45	155	1
236	249	1
51	54	1
7	160	1
195	211	1
236	237	3
59	62	1
191	200	1
210	211	2
104	107	1
51	52	2
6	12	1
226	228	2
34	39	1
182	204	1
223	229	1
48	64	1
171	178	3
8	226	1
45	93	1
112	146	1
31	44	1
213	231	1
198	248	1
245	247	2
191	195	1
182	196	1
93	112	1
226	236	1
29	38	1
212	247	1
27	156	1
99	101	1
208	234	1
36	53	1
7	9	2
81	84	1
166	169	2
217	245	1
202	220	1
199	200	2
25	26	1
209	236	1
110	146	1
56	58	2
172	173	3
90	94	1
71	74	1
79	88	1
36	113	1
216	219	1
84	95	2
188	189	3
44	52	1
174	175	4
86	104	1
115	201	1
47	154	1
157	171	1
144	213	2
1	39	1
233	241	2
4	6	1
45	160	1
179	180	4
93	94	1
112	157	2
14	158	1
171	173	1
31	182	1
78	94	1
46	51	1
38	42	1
47	200	3
43	45	1
48	211	1
179	182	1
68	173	1
94	116	2
23	46	1
19	21	1
167	172	3
202	205	2
243	248	1
72	87	1
170	208	1
178	219	1
182	183	3
20	22	1
218	224	1
42	44	1
16	17	2
48	104	1
157	161	1
14	16	1
51	86	1
53	204	1
201	212	1
36	44	1
142	142	1
51	176	1
165	200	1
172	184	1
3	21	1
202	226	1
198	214	1
55	56	3
45	228	1
60	69	1
194	222	1
79	96	1
113	117	1
48	62	2
49	220	1
159	160	1
209	223	2
87	177	1
144	144	2
82	88	1
223	226	1
51	179	1
220	222	1
1	2	1
49	78	1
229	245	1
42	156	1
16	234	1
183	193	1
193	209	1
203	205	1
95	120	1
108	118	1
34	40	1
75	76	2
168	173	1
11	213	1
33	36	1
160	184	1
13	52	1
171	190	1
70	71	2
187	209	1
23	27	1
49	77	1
218	223	1
108	114	1
185	196	1
241	246	1
2	6	1
206	218	1
50	178	1
38	40	1
42	111	1
168	245	2
222	234	1
12	46	1
31	38	1
220	234	1
167	205	1
18	26	1
80	85	1
14	25	1
160	161	2
14	113	1
2	7	1
210	214	2
168	170	1
54	66	1
75	77	2
180	181	2
5	179	1
216	225	1
77	78	3
145	151	1
4	18	2
91	160	1
247	249	1
110	153	1
44	202	1
58	67	3
93	151	1
225	241	1
218	238	1
11	155	1
162	167	2
210	216	1
93	95	1
23	24	1
225	227	1
238	239	1
6	11	2
57	77	1
85	87	2
164	180	1
184	192	1
24	40	1
38	146	1
10	17	1
50	89	1
221	223	1
15	47	1
74	94	1
40	100	1
195	214	1
72	75	1
74	98	1
56	70	1
173	209	1
244	245	1
23	113	1
50	76	1
158	161	1
30	32	1
109	112	1
244	246	1
67	84	2
215	238	1
45	53	1
220	237	1
208	226	1
47	54	1
48	59	1
100	172	1
188	190	1
24	26	1
49	236	1
41	45	1
196	200	1
211	235	1
29	31	1
220	241	1
15	52	1
150	156	1
231	232	1
10	12	1
163	244	1
42	43	1
106	176	1
158	183	1
32	34	1
236	238	1
99	103	1
28	32	1
216	248	1
75	94	1
55	65	2
15	22	1
54	56	1
109	111	1
12	14	1
201	245	1
160	207	1
65	88	1
180	182	1
62	65	1
198	236	1
185	191	1
117	120	1
51	89	1
77	83	1
163	209	1
22	33	1
29	30	1
90	100	1
53	97	1
67	120	1
3	222	1
70	105	1
241	244	1
26	119	1
201	220	1
35	151	1
106	108	1
26	116	1
101	118	1
227	228	3
159	247	1
208	237	1
105	108	2
237	245	1
76	77	1
108	109	1
78	82	1
85	118	1
167	169	1
66	86	1
8	10	1
165	182	1
37	53	1
199	239	1
213	224	1
220	247	1
60	74	1
191	214	1
56	59	1
59	85	1
95	98	1
101	105	1
196	248	1
159	181	1
49	58	1
71	76	1
217	238	2
70	92	1
35	36	1
100	105	1
158	188	1
89	104	1
55	63	1
194	244	1
76	84	1
145	160	1
43	229	1
155	156	2
43	188	1
32	41	1
63	65	2
87	96	1
238	247	1
190	199	2
228	230	1
11	12	1
150	229	1
115	153	1
66	205	1
166	171	1
12	18	2
209	241	1
11	27	1
82	87	1
46	212	1
56	198	1
23	150	1
230	245	1
222	232	1
219	243	1
74	75	1
221	225	1
166	168	1
71	208	1
165	203	1
190	197	1
89	184	1
194	241	1
95	100	1
79	81	1
86	101	1
41	42	2
55	61	1
109	120	1
173	174	1
152	214	1
165	178	1
164	214	1
55	57	1
53	221	1
8	33	1
72	178	1
47	90	1
70	79	1
180	184	1
109	173	1
184	186	1
103	105	1
218	221	1
8	17	1
116	118	1
212	244	1
210	237	1
51	208	1
69	79	1
72	182	1
50	57	1
152	159	1
14	23	1
165	167	1
167	230	1
60	92	1
27	30	1
202	206	1
56	71	1
76	78	1
238	241	1
163	187	1
59	70	1
233	236	1
214	246	1
65	70	1
95	109	1
224	241	1
77	197	1
87	108	1
227	230	1
224	235	1
224	236	1
222	224	1
