44	44	5
97	97	2
118	118	5
68	68	4
115	115	5
25	25	8
31	31	2
86	88	1
56	110	1
128	128	3
109	109	3
63	63	6
76	78	1
103	103	2
132	132	1
129	129	4
116	120	1
93	94	4
7	7	5
121	121	4
127	127	4
50	117	1
6	6	1
73	73	1
11	109	1
86	86	1
53	107	1
74	74	2
2	39	1
122	123	1
91	92	2
14	14	2
112	113	4
52	52	5
15	15	2
27	27	6
26	47	1
62	62	3
110	110	7
90	91	3
66	66	8
117	117	10
42	42	7
53	53	6
26	26	3
70	70	2
43	61	1
14	49	1
9	10	3
14	15	1
76	76	5
24	24	4
34	34	2
64	64	2
119	119	5
131	131	3
113	113	6
72	73	2
89	89	7
116	116	3
61	61	5
99	101	2
56	57	1
44	66	1
32	32	9
24	60	1
17	17	3
83	83	2
47	47	5
49	50	1
94	94	2
118	129	1
91	107	2
58	67	1
16	16	1
19	22	1
39	39	5
56	56	9
125	128	1
114	114	5
77	77	3
124	124	7
96	96	1
122	122	3
95	95	2
80	80	5
112	112	4
87	87	2
57	57	3
67	67	1
41	41	3
111	111	10
111	122	1
68	70	2
111	118	1
81	81	1
59	61	1
68	76	1
53	56	2
13	19	1
108	108	3
44	45	3
106	107	2
94	95	2
88	88	1
98	98	4
87	128	2
56	98	3
21	21	3
94	130	2
1	1	4
130	130	6
48	48	6
42	49	1
50	50	5
95	125	1
24	26	1
105	106	3
125	125	2
108	109	1
71	72	2
10	10	1
92	92	2
9	9	4
112	122	1
2	3	3
27	30	2
102	133	1
18	18	3
84	85	1
82	82	4
18	19	1
11	11	3
86	126	1
79	79	3
126	126	4
19	39	1
77	78	1
58	75	1
96	105	1
58	62	1
5	5	3
18	20	2
88	100	1
87	88	1
63	93	1
52	107	1
52	55	1
62	74	2
85	86	2
85	92	1
101	101	2
41	42	1
90	90	4
113	115	2
40	40	5
23	23	4
66	67	1
80	100	1
131	132	1
90	116	1
43	43	2
52	76	1
127	128	3
106	106	6
49	49	5
123	123	3
89	102	1
100	100	3
10	117	1
22	23	1
80	81	3
45	92	1
65	78	1
14	23	1
133	133	2
78	83	2
81	83	3
12	108	1
6	7	1
72	101	1
93	93	1
54	54	7
104	104	3
84	129	1
45	46	2
105	105	1
50	51	1
28	28	2
95	107	1
84	92	1
78	81	1
97	98	1
4	5	1
45	45	1
101	119	1
104	105	3
99	99	1
49	53	1
82	85	1
45	96	1
78	79	1
22	45	1
124	125	1
129	130	2
97	128	1
39	42	2
92	94	1
40	41	2
58	58	1
67	73	1
111	112	1
22	24	1
88	101	1
68	74	1
83	126	1
51	51	2
67	68	2
23	32	1
112	131	2
59	60	1
61	79	1
91	91	1
3	3	3
29	30	1
79	81	1
60	60	2
4	4	1
1	13	1
47	97	2
113	118	1
64	65	1
13	13	1
79	80	1
2	2	1
78	78	1
62	63	1
51	62	2
98	100	1
83	85	1
72	72	2
83	98	2
55	55	1
59	59	1
30	30	1
115	117	1
38	40	1
105	128	1
107	107	2
12	12	1
15	17	1
104	106	1
108	124	1
25	26	1
64	118	1
60	61	1
29	29	2
82	97	1
100	101	1
54	123	1
75	75	3
93	95	1
19	92	1
93	129	1
62	100	1
85	85	2
69	69	1
71	71	2
91	94	1
65	65	1
86	89	1
15	20	1
120	120	1
61	62	2
64	66	1
72	75	1
0	21	1
51	52	1
20	20	2
52	106	1
115	116	1
82	91	1
51	67	1
117	119	1
8	8	1
83	88	1
75	96	1
76	82	1
16	17	1
64	76	1
100	125	1
