128	128	1
131	131	3
60	61	2
105	105	1
108	108	3
130	132	2
61	62	3
9	9	3
16	16	4
23	61	1
50	71	1
5	14	1
54	54	5
86	122	1
64	65	2
72	72	4
29	30	2
67	67	2
56	56	4
34	34	3
54	86	1
61	91	1
76	76	5
5	5	4
85	85	3
11	11	2
20	20	7
18	20	1
30	33	1
132	132	2
59	59	6
50	50	8
13	13	5
4	18	1
68	68	6
53	87	1
60	60	2
47	96	1
116	116	1
117	117	2
26	26	2
59	84	1
7	7	5
91	91	1
125	132	1
52	86	2
23	25	1
9	11	2
133	133	4
73	73	8
21	22	1
62	77	4
78	78	3
36	45	2
31	31	4
101	101	3
62	62	1
66	66	2
37	59	1
3	3	6
90	90	3
102	103	1
110	110	1
120	120	3
84	86	3
82	82	3
106	106	3
114	132	1
115	115	4
45	45	7
43	45	2
35	35	1
94	94	2
104	104	5
93	95	1
135	135	1
29	73	1
49	50	2
6	6	3
30	30	3
113	114	2
125	125	2
54	57	1
94	95	1
88	124	1
87	87	2
17	18	1
79	79	7
114	114	1
2	2	3
99	99	1
61	61	3
83	83	5
1	1	2
21	21	3
43	43	2
44	44	5
10	10	1
1	2	2
84	85	3
70	70	3
80	80	3
93	93	1
36	36	6
7	8	1
29	48	2
28	28	4
24	24	3
25	25	3
123	130	1
72	73	1
8	10	1
48	49	1
64	64	3
19	19	1
57	57	2
124	124	3
70	71	1
46	46	1
61	76	2
9	10	1
16	24	1
127	128	1
55	56	1
65	69	1
71	71	2
0	0	1
107	107	3
86	87	1
103	103	2
12	99	1
122	131	1
75	75	3
14	14	4
21	25	1
53	85	1
82	84	2
64	66	1
12	13	2
50	82	1
44	45	1
75	76	2
92	92	3
85	86	2
127	127	7
91	92	1
0	1	1
111	111	4
97	97	1
95	95	1
98	98	4
134	134	3
81	81	2
56	57	1
77	78	1
119	119	2
3	4	2
118	121	1
120	135	1
22	23	1
113	113	1
8	9	1
89	90	1
77	77	2
66	67	2
33	33	2
49	113	1
86	86	5
8	8	2
59	78	1
7	10	1
74	75	1
52	52	3
18	18	1
84	84	1
114	115	1
33	34	1
96	96	1
59	60	1
110	111	1
30	32	1
23	24	2
12	12	1
47	47	2
15	36	1
13	14	1
16	44	1
100	101	2
109	109	2
48	60	1
65	65	1
127	129	1
7	11	1
120	121	1
69	69	3
111	129	1
106	123	1
123	125	1
45	71	1
44	50	1
18	22	1
108	109	1
63	65	1
132	133	1
49	49	1
53	53	1
80	81	1
17	17	1
51	51	1
27	28	1
111	113	1
74	74	1
53	57	1
19	65	1
29	29	1
23	23	1
29	45	1
18	37	1
15	28	1
32	32	1
9	17	1
6	15	1
