35	69	1
63	63	5
97	97	3
53	53	5
71	73	1
37	38	2
105	105	4
51	66	1
45	45	2
55	55	4
66	66	2
82	82	8
36	36	6
98	98	5
89	89	4
106	106	2
90	90	3
48	48	2
63	65	2
50	74	1
76	76	6
61	61	7
61	79	2
75	75	5
38	38	4
50	50	7
68	105	1
52	52	6
47	49	1
55	72	1
80	80	4
36	37	1
78	78	5
55	77	1
68	69	1
69	91	2
52	72	2
56	56	5
86	87	2
71	71	8
72	72	3
74	74	4
78	81	1
84	87	1
25	32	2
57	57	5
24	24	9
67	67	4
77	91	1
22	22	4
29	38	1
70	70	8
69	69	1
43	43	3
66	67	2
101	101	3
41	48	2
92	96	1
23	23	15
51	55	2
96	98	3
83	83	2
88	94	1
103	103	2
34	35	2
34	36	2
86	88	1
29	29	5
63	72	2
35	35	6
79	79	2
96	96	6
86	89	1
20	22	1
39	39	3
34	34	4
27	27	2
47	47	3
104	105	2
94	94	10
77	77	3
60	65	1
23	24	2
40	41	2
20	20	1
24	25	3
69	70	1
69	90	1
84	84	2
81	81	3
100	100	3
59	59	8
21	21	12
95	95	4
92	92	5
60	60	6
65	66	2
99	99	4
36	93	1
60	61	1
104	104	2
54	55	2
52	77	1
64	65	2
25	25	5
88	89	1
42	42	3
51	51	4
101	102	2
75	77	1
62	62	4
33	33	4
67	70	1
28	28	1
29	49	1
94	97	1
98	99	3
30	30	2
74	90	1
97	102	1
78	80	1
68	68	5
51	79	1
85	85	4
27	29	1
62	106	2
28	49	1
71	99	1
64	64	3
40	40	3
91	91	4
65	65	2
58	58	3
107	107	1
52	58	1
49	49	4
73	74	1
32	32	1
48	49	1
86	86	2
70	73	1
73	73	7
75	76	3
41	42	1
31	31	4
54	54	1
102	102	4
72	78	1
54	78	1
94	101	1
57	58	1
51	52	2
36	75	1
71	74	1
38	41	1
64	72	1
37	37	4
81	91	1
51	62	1
32	37	1
27	46	1
97	98	1
55	65	1
73	91	1
57	83	1
25	28	1
88	90	1
27	28	1
65	89	1
81	85	1
19	19	1
91	92	1
42	45	1
88	88	3
50	75	1
25	50	1
26	29	2
77	78	3
65	90	1
26	26	1
30	47	1
93	94	1
37	39	1
33	34	1
85	88	1
62	64	2
53	76	1
82	88	2
59	73	1
39	51	1
85	86	1
70	71	1
98	106	1
67	68	1
49	51	1
79	80	2
34	60	1
83	84	1
93	93	2
78	79	1
39	47	1
64	78	1
55	78	1
94	100	1
74	75	1
61	62	1
55	56	2
89	90	2
94	95	1
67	88	1
80	82	1
21	81	1
25	30	1
45	60	1
22	23	2
25	26	1
75	97	2
57	82	1
62	63	1
44	44	1
36	50	1
96	97	1
