103	103	5
118	118	3
141	141	8
36	51	1
89	110	2
129	129	4
122	123	4
26	26	7
42	96	2
129	130	2
91	91	8
30	32	1
67	67	3
1	1	3
22	22	10
113	116	2
12	12	1
139	139	4
41	41	4
82	128	1
56	56	3
1	10	2
82	82	1
133	134	1
93	94	3
71	71	7
92	92	2
82	99	1
73	73	4
66	66	3
106	106	3
131	131	4
130	130	3
6	17	2
65	66	1
75	84	1
137	138	1
20	20	4
42	74	1
42	42	6
76	76	2
102	102	9
72	72	3
61	61	3
83	83	2
96	97	1
8	41	1
89	90	1
104	122	1
29	41	1
85	85	5
93	110	1
62	81	1
27	27	3
37	38	1
54	54	2
48	48	7
126	126	3
61	103	1
16	16	2
109	109	1
58	58	4
6	26	1
75	75	4
70	70	2
102	103	1
104	104	2
128	128	1
100	128	1
6	6	2
94	94	2
10	10	5
120	120	3
66	103	1
124	130	1
128	130	3
31	133	1
125	125	1
145	146	1
74	74	2
83	84	2
71	72	2
93	134	3
17	18	2
25	25	3
101	101	4
31	31	2
9	10	2
112	112	3
8	125	1
107	107	1
95	95	4
112	113	1
77	77	1
9	9	7
34	34	1
47	47	2
118	120	1
21	21	4
48	103	1
59	60	1
31	33	2
15	15	2
137	137	4
47	48	1
3	3	3
18	22	1
96	106	1
111	111	2
5	43	2
30	30	5
130	131	1
68	68	4
93	109	1
72	73	2
95	96	4
18	125	2
126	127	1
18	18	1
98	99	1
97	97	3
117	117	4
55	55	2
80	80	1
6	9	1
1	6	1
103	131	1
81	81	1
30	33	1
122	122	1
12	23	1
134	135	1
79	79	1
89	89	1
41	72	1
132	132	3
77	78	2
124	124	2
136	136	1
93	93	2
39	39	1
127	127	4
56	57	2
84	84	1
55	57	1
102	113	1
112	134	1
29	30	1
95	130	1
84	85	2
140	140	2
120	121	1
92	94	2
38	74	1
110	110	3
8	9	1
100	100	2
64	64	2
98	106	1
96	96	4
60	84	1
43	43	1
24	24	3
42	43	1
85	136	1
17	17	2
84	136	1
33	37	1
90	92	1
40	73	1
53	54	2
55	56	1
38	38	2
14	14	2
123	123	2
69	69	2
60	60	1
65	96	1
121	134	1
115	115	2
2	2	2
28	28	2
0	0	3
25	26	1
10	19	1
47	50	1
15	17	1
69	89	1
23	24	1
77	109	1
95	134	1
59	59	2
98	98	1
105	141	2
14	121	2
86	95	1
19	19	1
112	119	1
50	52	1
35	35	1
87	87	1
23	23	2
90	111	1
2	3	1
101	102	1
94	96	2
2	6	2
47	71	1
5	5	1
106	107	2
128	129	1
11	11	1
78	79	1
75	77	2
34	35	1
29	33	1
2	17	1
8	8	3
48	59	1
50	50	1
102	130	1
53	64	1
31	34	1
97	98	2
83	107	1
20	21	1
81	135	1
90	90	1
13	13	1
124	142	1
135	135	4
116	116	2
85	86	1
107	108	1
131	133	1
135	136	1
52	52	1
5	6	1
92	138	1
56	62	1
27	28	1
114	115	1
19	20	1
66	67	1
86	86	1
6	59	1
109	110	1
67	68	3
40	42	1
56	58	1
134	134	1
36	36	2
94	124	1
57	63	1
53	53	1
71	73	1
36	37	1
110	131	1
52	54	1
64	65	1
50	51	1
99	99	1
41	42	1
37	37	1
142	142	2
39	40	1
33	33	1
114	114	1
79	109	1
105	105	1
120	134	1
104	105	1
54	55	1
34	36	1
0	10	1
139	140	1
39	51	1
40	40	1
50	64	1
119	119	1
118	119	1
