6	6	4
148	149	2
155	156	2
130	131	3
67	67	3
51	52	2
110	111	1
136	136	4
55	105	1
70	71	1
155	155	5
110	110	2
9	9	2
114	114	4
133	145	1
113	120	1
43	55	1
156	156	4
19	19	1
157	157	2
12	15	1
122	122	6
137	137	5
46	49	1
24	27	1
129	129	4
83	83	2
40	40	1
33	41	1
140	140	2
4	4	1
136	137	1
93	93	1
107	111	1
70	70	1
91	91	5
115	115	3
139	140	1
118	118	1
103	103	3
1	40	1
131	131	1
69	69	3
105	106	2
98	98	4
77	77	2
140	141	2
154	154	2
117	117	3
92	92	7
114	115	1
84	86	1
151	152	3
39	39	2
147	147	6
31	55	1
134	134	3
110	131	1
51	64	1
133	134	4
143	143	3
132	133	1
112	112	1
130	130	4
55	55	2
94	94	7
120	120	2
52	54	1
19	20	2
42	43	1
61	61	1
108	110	1
132	132	2
99	99	3
21	35	1
81	93	1
79	79	3
127	128	3
152	154	3
38	38	1
98	116	1
5	5	1
26	26	4
78	79	2
130	137	2
72	106	1
101	101	2
141	141	3
46	46	1
68	84	1
46	50	1
87	88	3
34	56	1
2	2	2
11	14	1
67	91	1
129	130	3
64	64	1
147	148	1
149	149	3
105	105	4
119	121	1
129	135	1
87	95	1
144	144	5
105	107	1
111	111	2
96	96	2
38	113	2
115	136	1
88	88	1
9	11	1
43	43	1
79	84	2
53	53	1
11	12	1
33	33	2
85	85	2
10	31	1
17	19	1
12	12	1
44	44	2
48	64	1
52	52	2
65	65	3
128	128	1
118	125	1
92	93	2
124	124	1
134	138	1
106	106	2
121	121	3
1	1	2
124	142	2
87	87	1
126	126	3
24	24	1
107	110	1
14	14	1
114	136	2
73	73	1
64	84	1
68	68	1
0	0	1
150	150	7
98	114	1
25	45	2
99	129	1
126	137	1
152	153	1
85	117	1
70	119	1
111	138	1
47	56	1
36	36	2
79	81	1
71	71	2
76	77	3
25	25	4
48	49	1
97	97	3
112	139	1
16	18	1
154	158	1
89	120	1
134	135	2
100	155	1
17	17	4
12	20	1
135	140	1
33	34	1
148	148	2
25	93	1
83	84	1
25	26	1
119	120	1
115	126	1
93	104	1
34	48	1
142	142	2
92	96	1
89	90	1
158	158	5
22	23	1
91	100	1
95	139	1
125	145	1
156	158	1
81	94	1
109	114	1
41	41	4
151	154	1
21	22	1
10	10	3
78	85	1
24	32	1
16	17	1
143	147	1
157	158	1
113	141	1
151	151	4
141	147	1
35	35	1
103	104	2
96	139	1
153	154	1
53	54	1
100	100	1
139	148	1
98	99	1
3	86	1
106	107	1
94	112	1
63	63	1
124	125	1
52	53	1
30	30	2
90	90	2
124	136	3
46	63	1
153	153	1
109	109	1
116	116	1
96	98	1
104	104	1
136	153	1
69	70	1
23	24	1
118	119	2
95	95	3
105	123	1
139	149	1
22	33	1
104	138	1
144	145	1
125	125	2
115	117	1
89	89	1
8	21	1
104	110	1
14	15	1
67	68	1
138	147	1
27	27	1
141	143	1
151	155	1
123	123	3
50	50	1
84	85	1
42	42	1
115	118	1
70	77	1
154	155	2
111	132	1
125	126	1
57	57	1
47	47	2
121	123	1
113	113	1
79	82	1
17	37	1
72	73	1
82	82	2
85	87	1
66	66	2
99	131	2
120	122	1
36	38	1
39	103	1
73	86	1
80	81	1
13	41	1
20	51	1
137	138	1
11	18	1
124	126	1
137	145	1
7	9	1
104	105	1
67	70	1
116	134	1
108	111	1
