78	82	1
97	105	2
17	22	1
88	89	3
130	130	7
131	136	2
45	54	1
142	145	1
68	72	2
81	83	1
124	124	3
45	46	2
143	143	2
84	86	2
129	129	6
6	6	1
111	112	4
151	152	3
134	135	3
12	12	2
115	115	3
22	22	4
39	43	2
9	9	1
109	120	3
30	45	1
8	8	3
23	38	1
144	146	2
89	89	3
62	62	3
109	109	2
132	133	2
129	130	4
70	70	2
10	29	4
98	98	11
16	37	1
108	111	2
70	72	1
49	49	5
150	151	6
28	147	2
156	157	2
0	0	6
78	79	1
65	65	7
118	118	4
30	30	6
110	110	2
92	142	1
158	158	3
110	113	1
44	45	2
90	90	3
46	47	1
23	23	3
24	24	5
40	41	2
123	125	1
52	55	1
101	102	1
87	87	2
117	117	5
16	16	2
47	47	2
82	82	3
151	151	4
105	105	6
21	21	2
155	155	6
77	77	2
117	118	2
26	26	3
69	69	2
125	125	3
1	1	2
95	95	4
100	100	5
70	88	1
22	47	2
37	53	1
103	103	7
106	106	8
96	96	3
12	29	1
146	146	3
142	142	10
48	49	2
63	63	5
148	148	3
90	92	2
156	156	4
50	50	2
71	104	1
68	70	2
11	119	1
37	38	2
7	7	4
97	97	4
124	141	1
119	119	5
35	153	1
150	150	8
72	72	2
48	48	3
22	30	1
23	26	2
92	92	3
14	39	1
154	154	2
17	18	2
3	3	5
123	124	2
21	22	1
114	114	1
83	97	4
111	111	3
28	28	1
40	100	2
38	104	1
66	77	1
80	82	1
79	80	1
120	153	1
122	122	4
39	39	2
132	132	4
28	29	2
155	156	1
4	46	1
63	64	1
134	134	4
105	123	1
10	11	1
141	141	3
42	125	1
73	73	6
7	8	1
31	31	4
15	15	1
49	51	1
100	157	1
8	28	2
67	67	1
139	139	3
120	120	2
106	111	1
94	114	1
71	84	1
96	104	2
88	88	2
38	38	2
99	99	6
2	2	2
93	93	1
116	134	1
115	116	1
42	47	1
7	10	1
108	109	1
81	81	2
136	137	1
131	131	2
36	36	6
43	47	2
108	110	1
89	90	1
32	50	1
64	64	3
30	39	1
136	136	1
89	121	1
75	75	1
20	20	4
10	13	1
134	148	1
101	101	1
127	127	2
116	123	1
123	123	3
80	80	1
121	121	6
134	141	1
10	10	2
10	42	1
139	142	1
14	113	1
98	103	1
91	92	2
46	46	3
79	94	1
83	84	1
43	138	1
51	71	2
113	113	1
98	132	2
11	11	2
0	1	2
55	56	1
137	137	1
86	86	2
47	48	2
104	104	1
13	13	1
5	5	1
43	43	2
46	48	1
114	115	1
29	29	2
95	96	2
81	85	1
67	69	2
153	153	1
17	32	1
66	67	1
125	126	4
68	69	3
17	41	1
71	71	2
18	37	1
140	140	5
102	102	1
94	95	1
5	6	2
15	37	1
107	107	2
17	17	4
145	145	3
138	139	4
137	138	1
140	144	1
132	141	3
84	84	1
154	155	2
25	30	1
124	125	2
149	150	2
154	157	1
144	144	3
97	101	1
44	44	3
126	126	1
152	152	2
147	147	3
128	128	2
19	19	3
127	128	1
45	47	1
157	157	2
38	39	2
66	66	1
56	56	1
109	112	2
55	64	1
55	127	1
68	71	1
95	97	1
8	26	2
147	150	2
48	54	1
107	112	1
82	83	2
28	45	1
36	56	1
105	106	1
107	109	1
12	16	2
144	145	1
115	119	1
40	40	1
140	141	1
21	26	1
56	57	1
25	25	3
133	133	2
4	4	1
79	82	1
90	93	1
18	38	1
116	116	2
95	104	1
134	138	1
138	138	1
113	116	1
128	150	1
25	26	1
4	158	1
95	120	1
130	152	1
34	34	1
5	158	1
37	37	1
57	57	1
104	106	1
74	74	1
127	140	1
68	68	3
95	99	1
143	147	1
142	148	1
120	142	1
96	97	1
6	74	1
112	112	2
69	148	1
118	119	1
123	139	1
27	27	1
45	45	1
80	87	1
76	77	1
134	139	1
129	140	1
54	131	1
43	156	1
8	12	1
6	18	1
56	61	1
98	99	1
58	63	1
90	138	1
104	150	1
88	91	1
18	18	1
86	95	1
79	79	1
133	135	1
22	23	1
138	140	1
52	54	1
107	117	1
113	118	1
149	149	1
11	12	1
55	55	1
93	104	1
41	51	1
88	116	1
14	14	1
105	112	1
140	143	1
49	104	1
131	134	1
126	127	1
145	147	1
139	140	1
85	85	2
77	78	1
125	147	1
100	129	1
8	43	1
108	123	1
119	120	1
32	47	1
