164	164	7
111	111	8
71	72	3
7	7	12
20	20	9
26	57	1
122	122	10
128	128	2
117	118	1
45	45	8
24	24	6
86	87	1
73	73	9
120	120	9
106	107	2
5	5	7
28	38	1
137	148	1
2	2	5
105	105	8
157	157	7
1	1	8
75	76	1
168	168	11
146	146	4
138	138	13
147	147	5
155	156	3
17	91	1
107	107	1
33	33	12
135	136	3
92	92	2
10	16	1
133	133	11
85	86	2
116	116	2
56	56	6
120	121	2
99	130	1
167	167	5
37	37	11
49	49	10
41	83	1
6	6	13
79	125	2
74	74	8
117	117	8
99	138	1
34	88	1
41	110	1
71	71	8
85	85	6
158	159	2
81	81	5
47	47	6
100	100	5
82	82	5
36	36	7
14	15	5
93	95	2
11	11	15
159	159	11
132	132	6
150	150	8
80	80	5
50	51	4
42	42	12
21	140	1
2	40	1
162	162	6
109	109	10
136	137	5
113	156	2
17	25	1
136	147	1
165	166	2
18	18	4
25	25	8
101	102	1
160	167	1
108	108	8
137	144	1
114	114	4
12	12	16
82	83	2
26	26	7
130	130	8
137	145	1
144	145	2
125	125	1
121	121	1
48	49	2
83	83	4
77	77	5
110	110	8
118	118	15
160	160	9
146	147	5
68	68	5
100	101	1
86	86	11
156	156	6
64	71	1
143	143	6
10	140	1
84	84	6
3	3	11
165	165	11
75	75	3
62	91	3
8	8	7
0	0	11
116	130	1
16	16	8
53	54	1
117	146	1
35	35	7
40	40	8
44	44	4
138	139	2
136	168	1
8	10	2
90	105	1
124	126	1
94	94	1
167	168	2
9	10	3
153	153	5
90	106	4
129	145	1
46	46	8
135	166	1
41	134	1
99	107	1
18	19	3
1	5	2
144	166	2
15	15	6
108	149	1
166	166	6
154	154	8
41	41	17
39	39	6
130	136	1
76	77	2
141	141	4
149	150	3
118	133	1
68	109	1
145	146	3
144	144	6
84	122	1
14	14	11
133	146	1
130	131	3
0	134	1
17	17	9
131	143	1
63	63	7
100	106	1
124	125	1
90	111	2
3	7	1
137	137	11
66	95	1
170	170	14
102	102	3
28	44	2
112	154	1
22	23	3
4	4	5
51	87	1
33	34	3
10	106	1
98	98	2
38	38	6
13	139	1
88	88	6
66	66	5
20	21	5
124	143	2
137	163	1
34	43	1
46	90	1
118	149	2
23	50	1
5	25	1
75	91	2
147	161	2
142	145	1
62	62	4
131	131	3
54	54	4
152	152	5
64	64	5
83	99	1
112	113	1
1	2	2
118	152	1
161	162	4
105	106	1
40	41	1
80	83	1
104	104	4
21	21	6
79	88	1
158	168	1
27	27	12
43	43	8
152	160	1
169	170	2
97	121	1
126	131	2
99	99	6
108	136	1
66	67	4
64	66	1
134	136	1
107	136	1
95	95	6
69	74	1
78	78	4
52	52	14
70	70	1
53	55	1
48	48	3
23	23	2
98	99	4
158	158	6
90	90	9
152	154	1
47	89	1
139	139	5
133	134	2
88	126	1
142	142	12
73	99	2
134	134	7
46	47	3
99	100	1
51	51	4
123	123	4
6	7	4
145	155	1
125	126	2
22	22	4
95	96	2
144	168	1
127	127	2
72	72	4
163	163	4
46	52	1
96	97	2
161	161	10
0	1	6
134	167	1
128	143	1
136	136	7
169	169	5
10	138	1
72	75	1
0	92	1
109	110	2
17	146	1
106	106	5
145	145	12
90	91	1
67	69	1
130	164	1
114	154	2
28	28	3
153	154	1
108	150	1
92	95	2
140	140	5
129	129	2
147	151	1
89	89	4
101	101	4
149	149	9
94	95	1
21	157	1
0	3	3
122	127	1
40	154	1
142	143	4
121	122	2
139	140	1
115	115	3
52	53	4
13	13	6
79	84	1
123	125	1
94	99	1
2	39	2
11	12	3
50	50	3
68	74	1
85	126	1
63	73	1
126	127	4
17	140	2
57	111	1
6	11	1
4	5	2
54	55	3
135	137	1
117	130	1
97	97	2
26	27	3
106	138	1
96	96	5
43	44	2
166	167	2
112	112	11
20	22	1
56	106	1
151	161	1
122	124	1
123	126	2
12	137	1
164	165	5
7	25	1
151	151	5
45	164	1
168	169	1
159	160	3
72	110	1
39	40	4
119	127	1
132	133	1
68	69	1
93	93	1
8	9	4
126	145	1
18	20	2
27	28	2
83	84	2
55	55	3
69	70	2
123	145	1
163	164	1
148	160	1
150	151	1
155	161	1
142	156	1
5	6	2
56	145	1
147	148	2
154	155	2
42	43	3
72	73	2
34	36	1
126	126	7
12	45	1
69	69	4
49	98	1
12	13	2
13	158	1
136	151	2
118	137	1
110	111	1
91	91	3
153	155	1
160	161	1
2	5	1
160	168	1
87	87	5
37	45	1
22	24	1
63	137	2
147	150	1
116	154	1
114	132	1
67	67	1
86	88	2
92	121	1
136	142	1
135	135	2
13	69	1
76	76	2
65	65	3
41	42	3
71	74	1
25	161	1
137	138	1
26	69	1
148	149	1
74	75	1
3	14	1
15	20	1
53	53	3
116	157	1
10	10	7
152	162	1
37	38	3
91	156	1
104	105	1
112	155	1
47	49	2
19	102	1
56	72	1
38	40	1
128	129	4
77	80	1
117	127	1
79	79	1
155	155	3
105	139	1
27	82	1
13	14	1
16	18	1
141	146	1
74	104	1
80	137	1
148	148	2
127	128	2
25	169	1
2	43	1
81	82	3
124	153	1
47	57	1
36	38	1
107	157	1
156	157	1
55	56	2
9	17	2
76	80	1
107	110	1
21	22	3
134	135	1
144	149	1
24	25	2
135	144	1
88	89	2
9	9	1
7	134	1
56	76	1
119	139	1
81	128	1
17	18	3
15	16	1
34	101	1
111	132	1
143	154	1
140	143	1
19	19	1
39	88	1
76	78	2
139	143	1
113	114	1
42	44	1
89	129	1
70	79	1
117	131	1
134	147	2
7	8	1
28	170	1
144	146	3
147	149	1
34	34	6
161	166	1
62	64	1
22	83	1
20	100	1
135	138	1
18	49	1
73	80	1
8	122	1
4	36	1
68	76	1
23	24	1
7	112	2
103	103	1
145	163	1
106	151	1
123	124	1
49	85	1
44	45	1
16	21	1
7	10	1
113	113	1
83	106	1
114	142	2
10	25	1
11	13	1
88	139	1
80	81	1
79	80	1
36	41	1
119	120	1
53	56	1
2	107	1
47	50	1
66	69	1
85	145	1
91	93	1
101	126	1
76	97	1
119	136	1
3	4	1
65	67	2
143	145	1
119	119	4
109	136	1
65	75	1
124	124	2
84	85	1
148	167	1
42	45	2
120	122	1
51	56	1
94	112	1
142	144	1
108	109	1
1	3	1
97	98	1
145	151	1
125	148	1
38	42	1
23	164	1
28	34	1
152	153	1
14	16	1
38	39	2
138	155	1
140	152	1
131	132	1
109	135	1
163	165	2
9	22	1
135	158	1
45	46	1
118	131	1
65	66	1
36	37	1
132	153	1
149	159	1
119	121	1
65	73	1
78	81	1
129	130	1
118	153	1
110	126	1
127	151	1
38	107	1
99	127	1
12	49	1
24	147	1
143	166	1
70	71	1
55	58	1
130	134	1
162	163	1
36	42	1
2	25	1
47	48	1
96	98	1
101	103	1
138	144	1
147	166	1
58	58	1
108	135	1
118	120	1
103	141	1
104	127	1
