116	119	1
3	3	4
59	59	2
114	119	1
70	118	1
98	130	2
125	125	2
33	65	2
91	91	2
120	120	1
88	89	1
75	78	2
141	141	4
119	119	4
76	77	1
102	103	2
112	112	2
74	80	1
73	75	1
54	56	1
113	114	2
35	35	1
99	99	1
103	103	2
22	22	3
18	18	1
68	69	1
103	126	1
29	29	4
73	76	2
59	75	1
80	80	2
118	119	3
27	29	1
141	142	2
22	30	2
21	30	2
51	68	1
64	64	3
19	19	1
21	22	1
13	14	2
126	126	4
78	78	2
50	50	1
41	41	2
110	110	1
65	84	1
67	68	1
79	79	4
88	90	1
132	132	3
16	43	2
62	62	1
27	27	3
4	5	1
68	68	1
109	109	2
102	102	2
126	128	1
29	37	1
136	136	2
41	60	2
118	118	1
139	139	4
135	138	1
61	140	1
96	96	1
143	143	3
1	2	1
51	104	1
89	89	1
104	104	2
31	31	3
16	16	3
123	123	4
33	84	2
17	17	2
57	69	1
18	47	2
64	65	3
72	79	1
63	63	1
38	38	2
52	53	2
15	15	1
57	57	2
109	111	1
26	29	1
127	127	3
66	66	2
35	60	1
108	108	2
132	133	1
1	1	1
123	131	1
5	5	3
93	93	2
22	99	2
49	49	1
37	37	2
122	139	1
146	146	1
135	139	1
8	8	1
10	10	3
48	107	1
41	64	1
115	116	1
94	94	2
136	137	1
84	84	1
67	120	1
14	35	1
65	65	1
19	20	1
34	34	2
83	83	5
6	6	1
104	107	1
26	64	1
3	5	1
70	111	1
114	114	2
128	128	1
134	138	1
39	39	2
65	66	2
108	109	1
25	69	1
61	66	1
127	130	1
14	16	1
103	104	1
85	85	1
109	112	1
111	126	1
28	28	2
134	135	1
95	102	1
10	18	1
52	80	1
89	90	1
12	12	2
25	26	2
116	123	1
8	9	1
94	100	1
115	119	1
30	31	1
78	96	1
73	73	2
95	97	1
24	24	1
37	38	1
43	43	3
129	129	1
77	79	2
54	54	2
22	26	1
53	56	1
73	141	1
104	110	1
96	102	2
53	53	1
115	115	1
105	109	1
90	92	1
107	107	1
46	46	1
72	92	1
106	106	1
133	133	3
24	25	2
139	140	1
33	34	2
58	58	1
20	20	3
137	138	1
125	141	1
2	2	1
36	36	2
91	107	1
14	15	1
95	95	1
88	135	1
51	79	1
56	71	1
6	9	2
65	72	1
70	108	1
1	19	1
36	43	1
14	14	1
28	29	2
55	55	1
34	39	1
20	21	1
138	138	1
71	90	1
64	71	1
78	98	1
51	51	1
74	74	1
34	36	1
21	21	1
78	79	1
124	124	1
96	99	1
94	111	1
27	28	1
68	92	1
25	25	1
104	118	1
69	69	1
15	16	1
119	141	1
60	61	1
10	67	1
48	48	1
61	75	1
87	117	1
87	87	1
118	132	1
94	95	1
81	90	1
86	86	2
17	29	1
9	15	1
121	131	1
