14	15	3
54	54	3
10	23	2
25	43	1
143	145	2
119	119	7
104	104	3
156	156	4
21	21	2
98	112	2
142	142	6
83	83	6
147	147	4
43	43	3
50	66	1
152	152	4
87	94	1
134	134	3
147	148	1
52	79	1
6	7	1
114	114	1
79	79	3
153	153	5
104	111	1
85	85	5
41	41	3
6	6	4
5	36	1
92	106	1
149	150	1
85	86	6
121	121	3
52	53	3
133	142	1
20	20	1
25	25	2
113	117	1
13	13	2
150	150	3
16	18	1
17	17	2
112	114	1
68	68	2
113	113	1
106	106	2
96	96	2
120	122	1
129	129	4
111	112	4
97	149	2
4	4	2
129	130	1
132	132	3
24	30	1
37	50	1
89	91	2
103	104	2
107	108	2
155	155	4
141	141	6
69	120	2
26	26	3
158	158	6
87	108	2
108	108	3
91	91	5
36	37	2
105	105	2
93	95	1
50	51	1
86	93	2
122	122	3
75	75	3
146	146	4
131	131	5
32	32	4
73	73	3
115	116	1
88	91	2
42	42	1
84	84	3
39	39	3
50	50	1
130	130	3
88	89	2
138	139	3
105	134	1
120	146	1
117	138	1
80	107	1
97	97	3
107	107	2
135	135	2
67	68	2
138	138	3
148	148	7
14	14	1
63	63	1
69	69	2
64	140	1
117	117	2
15	15	3
70	70	1
78	84	1
2	2	2
23	25	2
141	149	1
75	148	1
22	22	2
139	139	6
8	10	1
78	79	1
127	127	3
128	128	6
51	65	1
121	122	1
77	77	3
3	24	1
114	115	1
34	34	1
1	1	2
18	19	1
127	148	1
28	28	1
23	152	1
109	109	2
88	88	2
102	102	2
110	112	1
81	88	1
45	47	1
80	80	2
29	29	1
92	92	4
48	48	3
137	137	2
101	101	1
111	111	2
45	45	2
144	146	3
125	125	2
112	112	1
100	129	2
127	135	1
123	123	2
87	91	1
120	120	5
76	76	4
39	53	2
29	30	1
122	144	2
140	140	4
47	50	1
41	42	1
64	64	2
71	112	1
149	149	2
44	44	1
7	8	1
82	82	1
89	89	2
118	118	2
111	131	1
107	130	1
145	145	2
62	62	1
126	127	1
77	156	1
136	136	2
136	137	1
84	89	1
19	19	1
93	93	1
117	119	1
124	124	2
90	109	1
71	76	1
98	101	1
86	87	1
116	116	2
112	118	1
72	73	2
49	49	1
10	10	1
103	103	1
0	0	1
151	154	1
115	122	1
30	30	1
31	68	1
7	7	2
52	52	1
112	147	1
152	153	1
18	18	2
40	40	1
146	148	1
38	38	1
66	66	1
106	127	1
51	53	1
46	51	2
138	145	1
16	50	1
117	120	1
40	42	1
87	87	3
3	3	1
140	141	2
99	101	2
143	147	1
110	131	3
32	33	1
144	144	3
8	91	1
112	142	1
55	56	1
127	130	1
150	151	1
124	128	1
33	33	1
37	37	1
36	36	1
74	74	1
4	24	2
73	130	1
0	45	1
3	4	1
46	49	1
99	99	4
12	15	1
66	68	1
95	97	1
109	111	2
141	147	2
126	126	3
8	9	1
30	128	1
24	25	1
125	134	1
114	137	1
145	147	1
81	82	1
33	35	1
104	140	1
80	82	1
107	127	1
92	158	1
139	140	2
100	100	1
3	7	1
2	129	1
135	136	1
43	71	1
42	145	2
98	110	2
106	107	1
65	65	3
144	145	1
51	52	1
104	129	2
157	157	1
23	23	1
116	117	1
123	124	1
134	143	1
55	55	1
11	12	1
35	46	1
104	105	1
92	120	1
62	64	1
31	31	1
71	71	1
99	100	1
37	46	1
68	70	1
106	150	1
146	147	1
133	133	1
45	50	1
107	113	1
115	115	1
86	86	1
91	110	1
75	99	1
103	156	1
38	53	1
34	62	1
12	12	1
32	36	1
35	35	1
7	16	1
98	98	1
9	9	1
138	140	1
81	81	1
108	139	1
