173	173	12
11	13	5
160	160	11
118	118	10
129	129	6
3	5	2
120	120	9
36	36	15
42	42	15
169	173	1
131	131	5
52	53	6
0	132	1
169	169	17
27	41	1
142	142	12
2	2	8
16	19	1
73	73	16
12	13	6
13	13	9
16	17	1
33	33	13
149	149	15
134	135	1
107	107	9
68	68	10
86	88	4
144	165	1
98	112	1
174	174	18
0	0	8
13	14	3
121	121	10
166	167	3
25	25	8
28	28	7
171	171	13
136	136	8
51	51	9
14	14	14
18	19	6
91	91	9
1	1	15
163	163	9
175	175	4
114	114	17
65	65	14
61	61	8
145	145	15
97	97	12
23	31	2
19	19	14
62	75	1
89	89	9
123	123	9
95	95	13
144	144	13
35	35	16
134	134	12
64	64	7
18	80	2
146	159	1
123	124	7
17	18	4
114	125	1
100	102	2
45	45	11
14	15	2
37	37	13
106	116	1
140	140	11
88	88	11
73	101	2
148	148	10
81	81	5
153	153	25
99	99	10
109	110	3
112	114	5
58	94	1
120	121	3
16	22	1
39	44	2
83	84	4
161	161	10
10	10	15
165	165	5
10	25	1
151	151	16
67	67	8
26	26	3
161	165	1
93	93	13
27	27	15
179	179	17
12	41	1
90	91	3
5	28	1
83	83	10
170	170	9
152	152	10
52	52	9
94	94	14
167	169	1
150	150	21
66	109	1
147	147	13
79	79	10
102	123	1
29	31	3
128	128	10
125	125	6
62	62	8
59	59	9
58	62	1
36	37	5
116	117	10
8	8	14
151	169	1
127	129	2
70	71	1
52	89	1
172	173	4
10	36	1
105	105	10
119	119	7
126	157	1
2	3	4
163	168	2
67	68	3
176	176	13
66	66	6
107	109	1
90	90	10
14	32	1
11	11	17
16	16	12
23	23	13
107	121	1
90	94	2
65	66	8
155	155	6
153	154	3
106	106	8
9	32	2
71	71	12
24	24	5
23	30	1
0	1	3
148	150	4
19	44	1
178	178	12
58	65	2
13	35	1
96	158	1
131	172	2
37	39	1
50	50	9
132	132	14
63	63	6
167	167	8
23	24	5
113	113	11
57	57	9
100	104	2
37	38	3
126	145	1
84	97	1
53	172	1
151	152	2
98	98	10
39	62	1
95	96	6
34	34	11
7	7	13
141	172	3
76	90	1
87	87	14
114	149	1
29	29	8
43	43	11
111	111	13
99	101	3
82	82	4
159	159	6
15	15	10
141	157	1
29	30	6
84	94	1
150	157	1
162	162	9
80	84	1
173	174	3
157	157	13
53	174	1
168	169	8
41	42	6
1	16	1
56	123	1
61	122	1
141	141	12
11	12	5
154	154	8
139	139	12
78	79	6
115	121	2
39	40	7
4	6	2
74	74	6
146	156	1
89	94	2
41	41	10
121	122	5
104	104	4
138	139	2
143	143	9
54	54	8
131	133	1
157	161	2
12	14	1
87	88	1
20	21	1
84	84	9
59	178	2
115	118	1
68	80	1
91	93	1
14	133	1
17	17	13
170	171	2
92	92	12
129	130	4
109	109	7
141	144	1
116	116	6
158	158	10
135	135	5
99	128	1
135	136	4
126	126	7
51	111	2
108	114	1
78	148	1
9	9	8
103	123	1
53	53	6
25	26	7
61	130	2
168	168	10
36	39	2
61	62	4
100	100	7
142	153	1
124	124	9
146	148	1
41	43	3
163	164	2
12	12	8
33	34	1
156	156	13
22	26	3
82	91	2
137	137	20
32	32	21
125	126	5
100	103	2
148	149	4
164	166	1
117	117	5
56	56	8
8	11	3
60	81	1
38	78	2
158	159	8
6	7	3
115	115	9
66	67	4
124	125	2
0	29	2
81	82	3
150	156	1
99	100	5
177	178	6
50	51	5
38	38	18
108	109	8
1	4	1
171	172	2
7	109	1
64	65	1
22	22	6
16	31	1
12	22	1
98	99	1
147	166	1
33	50	1
57	58	3
78	78	10
54	96	1
44	44	12
12	36	1
81	83	1
104	105	5
117	119	2
49	50	3
131	148	1
2	38	1
84	86	1
87	103	1
80	80	5
21	21	4
122	122	11
66	68	1
11	41	1
173	180	1
56	137	1
68	104	1
10	13	2
104	106	1
3	3	10
40	41	5
125	127	1
152	164	2
145	173	1
60	60	12
33	35	3
126	127	4
92	93	5
122	123	2
77	77	3
165	166	3
178	179	4
86	86	10
39	43	1
115	116	1
74	75	6
106	114	1
13	15	1
4	4	11
88	92	2
20	22	1
133	133	11
34	171	2
1	43	1
164	165	4
177	179	2
73	81	2
125	146	1
37	137	1
94	95	5
113	114	1
32	33	3
150	163	1
6	6	6
127	127	4
91	92	8
56	58	1
133	139	2
112	112	7
158	179	1
148	153	1
118	125	1
39	41	3
140	180	1
65	75	1
96	96	7
118	122	1
110	136	2
106	115	3
114	150	3
145	150	1
122	139	1
41	44	1
15	16	3
73	98	1
75	78	1
5	6	5
96	97	4
129	145	1
73	74	3
40	40	5
45	171	1
87	104	2
85	85	6
83	85	1
154	156	2
27	34	1
102	132	1
127	130	1
159	160	6
51	63	1
6	10	1
108	108	8
87	125	1
131	132	1
120	122	1
67	93	1
53	54	5
1	31	4
76	76	7
34	39	1
72	73	2
160	163	1
166	166	6
125	165	1
111	115	1
100	101	4
130	130	8
151	153	2
71	73	1
116	165	1
89	90	2
4	109	1
146	146	10
104	107	1
95	162	1
138	138	8
76	77	4
164	164	6
102	108	3
150	167	2
144	145	2
54	74	1
63	65	1
3	4	2
72	72	8
116	119	5
119	120	3
127	152	2
157	158	6
81	90	1
18	23	3
32	82	1
21	39	2
174	175	3
39	39	12
12	16	2
156	171	1
81	84	1
71	76	2
31	31	7
110	111	3
22	44	1
78	81	1
126	142	1
101	104	1
10	11	3
126	158	1
141	154	1
19	20	3
128	129	1
70	70	2
111	125	1
112	150	1
52	61	4
130	148	1
101	101	10
94	121	1
31	32	3
102	112	1
149	150	3
105	106	3
137	138	1
133	172	1
119	121	3
93	94	1
141	142	4
55	55	9
110	112	2
4	5	2
96	124	1
18	20	2
23	26	1
133	171	2
77	80	1
169	170	1
80	150	2
81	101	1
38	54	1
75	75	8
3	7	1
168	170	1
87	159	1
160	161	3
9	43	4
121	123	1
20	41	1
142	143	4
53	163	1
102	102	12
176	177	2
153	158	1
135	158	1
9	11	2
156	169	2
96	128	2
112	120	2
159	162	1
147	148	4
123	146	2
135	151	1
5	5	8
140	157	1
31	45	1
60	61	1
5	7	3
80	81	2
126	130	2
96	101	2
75	77	2
27	28	2
54	112	1
11	24	1
143	145	2
163	165	1
127	128	6
142	157	1
62	63	7
4	24	1
16	29	1
143	144	7
107	110	1
162	163	6
87	89	1
28	33	2
102	103	4
103	113	3
79	80	3
96	130	1
172	174	1
41	51	2
161	162	2
30	30	4
52	130	1
77	78	4
66	71	2
107	114	1
17	130	1
11	14	2
25	29	1
56	57	3
139	140	4
95	98	1
21	23	1
152	153	4
51	58	1
154	155	3
88	89	3
7	8	2
110	110	8
117	118	2
72	76	1
18	28	1
13	170	1
105	111	1
25	30	1
101	102	1
29	34	2
50	90	1
151	154	2
15	30	1
107	108	2
20	20	4
12	23	1
171	173	1
77	137	1
86	143	1
2	6	1
136	137	2
11	37	1
79	131	1
96	114	2
96	98	2
126	135	1
56	81	2
150	160	2
126	143	1
59	62	1
52	56	1
24	44	2
22	24	2
90	104	1
78	131	2
112	115	1
66	79	1
130	139	1
32	145	1
111	112	2
54	77	1
92	97	1
62	82	1
149	154	1
9	10	1
73	75	1
18	30	1
49	51	1
10	31	1
143	151	1
116	123	1
126	152	1
1	6	2
82	98	1
66	105	1
26	28	1
83	89	1
154	178	1
44	46	3
113	152	1
4	15	1
58	59	3
34	35	1
151	161	1
41	45	2
26	27	4
55	56	2
112	122	2
56	60	1
82	89	1
80	82	1
127	131	2
35	40	1
118	119	2
112	121	1
43	44	3
10	33	1
54	64	1
36	42	1
18	18	6
30	31	2
14	16	1
92	94	1
99	107	1
158	161	1
19	37	1
8	9	3
148	168	1
111	120	1
96	104	1
154	163	1
93	112	1
164	167	1
4	103	1
62	121	1
102	107	2
112	119	1
75	76	1
58	58	6
5	154	1
101	106	1
84	87	1
60	74	1
0	176	1
26	44	1
123	125	1
4	29	1
51	55	1
54	72	1
1	2	1
2	4	2
66	80	1
167	168	3
103	103	2
39	42	1
93	95	1
122	149	1
22	23	3
151	168	1
5	11	1
77	93	1
101	103	2
60	90	1
89	96	1
33	37	2
126	128	3
6	38	1
110	114	1
172	172	2
9	37	1
79	89	1
6	18	1
46	156	1
151	164	1
22	32	2
11	22	1
116	143	1
12	18	1
2	21	1
42	97	1
169	172	1
38	39	2
166	169	1
15	45	1
143	167	1
13	18	1
140	141	1
95	130	1
45	46	2
57	59	2
24	25	1
90	93	1
160	162	1
29	76	1
61	67	2
118	148	1
15	33	1
2	31	1
10	75	1
76	139	1
102	104	1
35	36	1
76	79	1
17	35	1
7	10	1
56	74	1
3	14	1
180	180	1
54	61	1
114	118	1
84	143	1
122	125	1
95	105	2
177	177	3
42	44	1
60	150	1
42	56	1
27	29	1
175	176	1
95	104	2
11	147	2
82	107	1
16	26	1
49	132	1
38	80	1
82	117	1
149	177	1
21	22	1
81	133	1
99	114	1
33	64	1
83	100	1
66	72	2
97	98	1
79	121	1
54	55	1
59	60	2
96	99	2
131	137	1
116	146	1
70	75	1
97	100	1
84	93	1
5	82	1
59	81	1
22	28	1
161	167	1
67	78	1
123	165	1
87	90	1
32	156	1
51	52	1
110	149	1
28	44	1
0	37	1
133	134	3
64	171	1
19	53	1
37	141	1
151	171	1
104	109	1
17	55	1
80	90	1
8	22	1
97	102	1
114	117	1
139	169	1
68	138	1
142	175	1
73	131	1
111	148	1
60	80	1
109	126	1
42	43	1
61	63	1
15	31	1
156	168	1
97	127	1
134	136	1
22	25	1
34	145	1
19	22	1
64	82	1
103	117	1
85	89	1
2	45	1
76	81	2
162	167	1
71	174	1
18	41	1
153	157	1
139	141	1
125	147	1
127	132	1
83	109	1
65	74	1
26	51	1
80	89	1
15	42	1
9	41	1
2	41	1
103	121	1
154	167	1
36	38	1
131	170	1
39	53	1
104	129	1
95	112	1
92	114	1
2	13	1
11	45	1
125	131	1
55	80	1
95	97	1
94	141	1
82	84	1
54	68	1
179	180	1
76	78	1
103	129	1
112	176	1
59	83	1
13	76	2
149	173	1
27	40	1
155	156	2
117	124	1
20	35	1
104	116	1
100	160	1
61	81	1
90	125	1
153	170	1
114	115	1
61	65	1
32	36	2
115	125	1
71	72	1
26	30	1
97	109	1
23	28	1
150	153	1
8	10	1
112	124	1
101	105	1
93	102	1
8	23	1
138	180	1
144	150	1
98	100	1
