81	82	2
55	55	6
72	78	2
111	170	2
55	80	2
64	64	2
155	157	1
107	107	2
65	68	1
146	146	4
63	65	1
99	100	3
75	75	2
12	12	4
68	68	3
28	52	2
112	172	1
17	36	1
164	166	2
44	45	3
159	159	6
22	23	2
158	158	3
4	4	3
1	2	1
72	72	8
139	139	5
116	116	5
153	153	5
93	93	2
148	148	4
176	176	11
87	87	2
149	149	7
13	13	6
83	84	3
96	131	3
118	126	1
21	25	1
179	179	5
67	67	3
112	170	1
152	152	8
72	81	1
52	52	2
161	161	1
35	36	1
175	175	5
25	26	2
144	144	3
116	117	1
150	150	9
137	137	5
6	177	1
151	153	1
170	170	3
120	120	1
156	158	1
86	87	1
36	43	1
111	111	4
3	5	2
128	128	4
146	147	1
122	168	1
41	41	8
76	76	2
168	168	3
62	63	2
62	62	3
122	122	4
20	20	2
91	91	3
149	150	4
146	152	1
127	128	4
178	178	3
88	132	1
54	54	3
10	36	1
70	70	2
85	85	3
25	28	1
11	12	2
26	26	1
82	82	1
0	0	7
26	27	2
117	117	2
29	29	8
29	30	2
105	105	3
174	174	4
129	130	1
42	42	4
136	136	6
19	19	2
65	118	1
89	89	2
56	56	2
6	32	1
38	38	8
141	141	3
108	109	1
1	29	1
7	31	1
5	6	3
43	43	5
147	151	2
145	145	2
95	95	6
51	61	1
22	22	3
103	121	1
81	89	1
43	44	2
108	118	2
140	155	2
164	164	4
61	88	1
139	141	1
120	146	1
100	102	2
74	74	9
87	88	2
29	156	1
3	4	1
132	133	2
3	26	1
24	24	3
97	97	4
2	12	1
144	156	3
18	18	4
23	23	3
162	163	1
77	112	1
10	10	5
3	3	4
115	115	2
10	14	2
61	61	6
147	152	2
109	120	1
119	170	2
90	90	3
128	148	1
162	162	2
83	83	2
112	139	1
108	108	3
130	130	2
6	6	5
7	67	2
172	173	1
120	121	1
35	35	3
134	134	2
62	100	1
113	163	1
37	37	7
15	15	8
104	111	1
1	1	4
33	33	2
73	74	1
131	131	3
65	114	1
137	145	1
112	112	3
36	138	1
9	32	1
173	173	2
110	111	3
180	180	2
160	161	2
64	66	3
124	125	4
59	59	2
15	33	1
99	110	1
11	23	1
113	113	6
110	110	2
27	27	5
68	94	1
133	150	1
39	39	2
28	30	1
101	101	2
167	167	3
17	31	1
15	18	1
124	153	1
169	172	2
128	140	2
82	85	1
2	3	3
40	40	1
146	151	1
5	7	3
34	34	1
21	21	2
75	76	2
46	46	1
112	130	1
8	9	5
109	114	1
23	31	1
166	166	7
19	21	2
151	151	3
133	134	3
127	156	1
111	112	1
7	7	4
16	17	2
14	42	1
109	109	2
164	165	3
110	118	1
10	73	1
102	102	3
104	104	1
98	162	1
50	51	1
86	86	1
17	40	1
54	114	1
102	137	1
32	160	1
8	8	4
58	58	1
9	9	4
56	80	1
106	106	5
93	94	2
28	29	1
66	68	2
119	119	1
12	13	1
151	155	1
163	167	1
125	125	3
175	176	2
10	31	2
16	20	1
11	160	1
57	57	1
98	100	2
109	113	2
16	16	2
115	116	1
31	31	4
24	25	1
30	30	1
135	136	3
59	60	2
83	86	1
20	45	1
38	39	4
10	40	1
96	96	2
5	5	3
24	171	1
98	98	1
56	74	1
124	124	1
60	60	2
92	93	1
37	175	1
52	53	1
107	141	2
95	96	2
133	133	7
40	41	1
36	36	1
96	101	2
172	172	1
112	147	1
35	50	1
169	170	2
53	53	2
152	153	1
77	77	2
140	158	1
146	163	2
144	145	1
11	11	2
97	98	1
96	97	1
84	84	1
58	87	1
16	38	1
127	131	1
85	87	1
39	40	1
13	14	1
100	100	2
105	106	1
122	124	1
9	10	1
110	159	1
34	89	1
68	146	1
41	154	1
94	95	3
44	44	2
26	28	2
81	81	3
147	147	1
61	136	1
33	35	1
118	150	1
65	65	2
87	131	1
78	78	5
118	118	1
9	11	1
37	38	2
10	37	1
40	149	1
142	142	2
79	80	1
140	141	1
114	118	1
171	172	2
9	36	1
22	38	1
152	165	1
12	27	1
4	9	1
71	71	1
79	89	1
87	89	1
12	14	1
171	171	3
123	123	2
143	145	1
87	93	1
92	92	2
87	111	1
35	39	1
121	121	2
99	99	2
43	45	1
3	21	1
141	171	1
122	131	1
147	148	1
135	135	1
160	162	1
63	83	2
77	78	1
53	56	1
45	45	2
50	50	1
17	19	2
63	120	1
157	157	2
116	121	1
84	88	1
31	32	1
140	149	1
71	76	1
161	162	2
100	101	1
99	143	1
124	156	1
140	140	1
156	156	4
159	168	1
2	25	1
0	1	1
88	88	1
40	166	1
118	153	1
27	30	1
5	32	1
88	89	3
145	165	1
139	140	1
106	125	1
0	33	1
51	54	1
130	150	1
155	155	2
89	90	1
73	73	2
45	46	1
94	94	2
2	6	1
82	114	2
129	129	1
63	129	1
126	126	2
14	14	2
159	169	1
26	39	1
24	27	1
150	163	1
102	106	1
102	105	1
62	136	1
61	154	1
145	147	1
41	42	1
33	135	1
36	38	1
99	101	1
20	23	1
146	162	1
104	146	1
90	172	1
33	42	2
55	56	1
50	95	1
13	27	1
78	89	1
25	25	1
98	99	1
166	167	1
154	154	2
21	60	1
31	40	1
13	22	1
38	66	2
160	160	1
29	31	1
34	35	1
59	83	1
142	156	1
79	79	2
24	30	1
179	180	1
37	54	1
26	130	1
49	52	1
53	54	1
132	132	1
81	159	1
17	33	1
32	35	1
34	131	1
133	141	1
77	90	1
112	131	1
103	131	1
54	55	1
6	7	1
73	174	1
112	114	1
32	32	1
93	125	1
107	109	1
126	143	1
142	148	1
14	16	1
24	31	1
62	65	1
56	106	1
6	8	1
1	3	1
178	179	1
