148	148	8
21	22	3
57	57	7
17	17	12
190	191	1
150	150	8
162	163	2
5	5	18
11	23	1
31	31	10
122	122	7
184	184	7
36	36	11
46	46	8
60	60	7
4	10	1
139	140	5
7	7	4
139	139	7
128	197	1
61	186	1
35	36	2
52	52	11
195	195	9
47	47	12
160	160	4
100	101	1
100	100	9
69	69	8
98	108	2
55	56	3
128	128	10
55	55	7
19	19	11
23	23	10
10	11	2
76	80	2
87	87	6
42	42	9
187	188	4
157	157	8
76	76	4
175	175	3
128	129	2
191	191	4
168	168	8
172	172	3
192	193	3
173	173	5
38	38	14
108	111	1
9	9	14
124	124	6
188	188	3
154	154	5
93	93	5
16	17	6
166	166	5
50	50	5
186	186	7
49	50	3
78	78	7
167	168	4
149	150	2
109	109	4
4	29	2
32	32	12
24	24	16
1	1	8
53	54	4
18	18	5
53	53	13
176	176	5
181	181	3
178	178	3
12	16	2
156	157	2
70	70	8
186	196	3
180	180	4
49	49	11
61	61	5
54	54	3
135	136	1
80	81	1
29	31	1
192	192	2
97	165	1
149	149	8
67	67	6
50	56	1
129	130	2
131	131	3
37	37	7
1	26	1
114	115	4
19	23	1
34	34	9
110	113	1
144	144	8
24	25	8
155	155	3
102	103	1
148	160	2
115	115	1
33	33	14
35	35	3
159	159	7
40	40	11
141	141	9
162	162	2
194	194	12
182	182	6
167	169	1
148	149	3
12	13	3
174	176	2
54	56	1
175	176	2
114	148	2
6	6	3
48	48	10
156	156	7
34	36	2
25	25	11
12	138	1
2	3	2
197	197	7
120	120	6
110	139	1
10	10	8
120	181	1
24	32	1
138	138	8
41	41	7
33	37	3
185	186	4
185	185	9
39	40	2
43	44	3
163	164	4
157	158	3
30	125	2
84	84	4
50	51	1
171	171	4
79	79	2
44	45	1
155	157	1
110	110	4
129	129	6
39	39	11
140	140	2
4	5	4
184	195	1
71	71	6
123	124	1
44	44	14
51	51	8
146	166	1
21	23	2
123	123	5
96	96	4
3	3	11
31	65	1
52	59	1
169	194	1
137	190	1
73	73	8
146	146	1
158	158	3
179	179	5
77	77	6
3	4	2
167	181	1
114	114	4
22	22	3
45	141	1
183	183	6
58	62	1
106	107	2
81	81	3
108	108	4
161	164	2
66	66	4
40	67	2
62	62	7
143	154	1
0	0	6
9	10	4
40	41	4
170	171	4
99	114	1
58	58	3
193	194	1
20	23	2
65	65	4
125	125	1
107	107	3
193	193	4
144	155	1
152	152	4
0	8	2
15	15	8
63	63	5
38	185	1
97	97	5
27	27	6
143	143	5
170	170	5
135	135	3
165	167	1
164	164	4
82	83	1
34	35	2
187	187	3
14	14	4
126	126	9
5	6	2
190	190	2
133	133	5
103	103	1
189	189	4
141	142	2
20	65	1
27	30	1
25	27	2
105	105	5
151	151	8
177	193	2
155	156	6
45	45	9
43	43	7
2	2	9
119	185	1
189	190	2
111	112	3
21	21	3
112	112	2
55	80	1
33	35	2
127	128	1
74	110	1
153	153	9
106	106	2
28	29	3
134	135	2
5	10	2
75	75	3
4	4	6
28	31	1
27	28	4
63	136	1
28	28	1
186	187	2
112	114	1
99	118	1
118	118	1
147	147	4
148	156	1
118	143	1
27	29	4
158	160	1
84	85	1
135	138	1
59	59	3
196	196	11
74	179	1
158	159	4
142	142	6
36	37	4
45	46	2
165	181	1
120	121	3
88	88	2
22	23	1
194	195	2
113	113	8
157	160	2
148	152	1
100	150	1
18	19	2
114	119	1
85	85	3
161	191	1
102	102	2
177	179	1
32	71	2
137	137	1
67	75	2
62	64	1
12	12	8
75	76	1
107	120	3
139	193	1
74	74	3
174	175	1
25	26	2
59	61	2
8	8	7
160	164	1
15	16	1
139	165	1
82	85	1
191	192	1
32	69	1
52	53	1
151	152	4
161	162	2
55	64	1
116	118	1
65	66	1
171	172	2
141	143	1
142	158	1
4	37	1
11	11	5
36	65	1
3	23	1
56	56	6
64	64	5
68	68	5
173	174	2
124	128	1
13	13	4
46	47	4
168	193	2
29	30	2
146	147	1
161	180	1
173	189	1
83	87	2
69	71	1
121	121	2
171	176	1
165	166	3
183	184	2
163	166	1
88	121	1
126	171	2
179	181	3
45	57	1
13	15	1
93	101	1
104	106	1
137	138	3
110	111	2
152	183	1
58	150	1
145	148	2
115	156	2
166	168	1
20	22	2
98	98	2
138	139	2
33	34	1
83	83	3
176	182	1
40	188	1
59	71	1
53	101	1
13	14	1
184	185	1
121	167	3
63	66	2
112	115	1
120	179	1
16	135	1
89	90	1
8	9	1
169	169	3
146	152	1
30	31	2
167	167	3
115	125	1
161	161	2
8	39	1
108	136	1
23	24	1
111	111	3
64	67	2
132	132	2
20	20	3
143	172	1
16	16	7
1	2	1
176	177	1
131	132	2
153	154	1
112	116	1
169	175	1
116	116	2
28	35	1
123	142	2
17	40	1
77	149	1
177	180	1
161	173	2
63	71	1
26	32	1
119	119	4
113	163	1
130	130	1
72	72	6
5	25	1
151	168	1
6	7	3
119	184	1
86	87	1
120	196	1
169	170	1
57	58	3
108	112	1
19	27	1
42	43	1
64	66	1
170	183	1
38	42	1
88	89	1
78	85	1
179	180	1
188	189	1
7	8	2
73	88	1
8	17	1
30	30	2
8	26	1
37	184	1
169	176	1
142	176	1
166	191	1
136	136	2
14	15	1
86	86	1
23	134	1
33	72	1
145	147	1
157	159	1
180	181	2
70	71	1
127	127	2
4	120	1
132	177	1
148	162	1
13	32	3
160	163	1
23	60	1
174	174	1
17	18	1
107	108	1
37	59	1
110	142	1
158	169	1
48	52	1
43	185	1
144	151	1
40	103	1
87	193	1
121	122	1
26	26	2
9	47	1
143	150	1
8	34	1
69	70	2
143	192	2
75	77	1
149	168	1
88	90	2
117	120	2
28	30	1
26	27	1
32	33	3
71	125	1
52	171	1
145	145	1
33	39	1
163	163	3
141	164	1
177	177	2
109	112	1
142	156	1
33	46	1
155	158	1
151	170	2
108	109	1
140	142	1
115	136	2
24	110	1
166	167	1
32	47	1
149	167	1
41	141	1
19	20	1
191	193	1
160	175	1
132	133	2
29	42	1
148	159	1
105	107	1
71	72	1
134	134	2
30	67	1
123	127	1
187	189	1
10	25	1
38	39	2
149	152	1
155	160	1
41	158	1
99	99	1
43	178	1
8	31	1
13	172	1
131	138	1
14	30	1
47	115	1
5	36	1
95	95	2
123	170	1
62	63	2
152	154	1
104	104	2
7	169	1
47	194	1
170	178	1
33	123	1
98	115	2
4	138	1
146	155	1
48	49	1
4	31	1
94	94	1
101	101	1
2	5	1
158	182	1
34	197	1
174	177	1
84	86	1
133	185	1
130	131	1
170	194	1
14	124	1
14	31	1
156	167	1
71	184	1
182	183	1
0	1	1
19	72	1
154	186	1
181	192	1
110	148	1
37	38	1
13	183	1
94	105	1
176	183	1
9	33	1
9	31	1
167	171	1
118	120	1
143	148	1
102	104	1
149	160	1
1	7	1
107	113	1
41	42	1
81	82	1
140	172	1
39	151	1
60	61	1
96	97	1
160	161	1
15	17	1
150	151	1
3	7	1
155	169	2
179	193	1
94	96	1
41	43	1
79	80	1
31	43	1
