57	57	1
112	112	3
63	63	2
92	94	2
79	85	1
187	187	4
134	136	1
34	37	3
145	146	2
77	92	1
116	118	1
148	174	1
132	190	1
108	108	1
97	139	1
48	48	3
103	104	1
60	63	1
165	165	4
91	92	1
75	75	3
144	145	3
150	152	1
37	38	1
26	70	1
8	8	2
185	187	1
13	13	3
25	25	1
104	104	2
6	7	2
28	29	2
15	42	2
117	119	1
86	105	2
106	106	3
100	100	7
81	84	2
115	116	1
119	120	1
164	164	1
63	66	1
19	66	2
44	44	1
110	110	3
183	183	2
17	53	1
12	12	1
138	165	3
53	54	1
36	36	2
127	127	1
97	98	1
174	174	3
185	185	4
134	138	1
0	0	2
152	152	4
56	56	1
4	4	2
35	36	1
5	146	2
175	175	1
37	37	3
103	103	3
81	81	3
47	74	1
111	111	1
115	119	1
172	172	2
104	108	1
170	170	1
7	7	4
167	167	1
189	189	2
74	74	1
16	16	4
83	83	1
156	157	1
42	57	2
26	26	8
154	155	1
114	114	1
136	138	2
110	111	1
38	39	1
134	134	2
105	108	1
63	64	1
79	79	4
83	109	2
11	87	1
166	173	1
80	80	2
39	39	1
129	129	1
156	156	3
40	40	2
123	123	3
108	139	1
102	102	2
41	44	1
93	93	1
28	28	2
166	166	2
104	107	1
68	70	1
8	48	1
180	181	1
46	46	3
29	31	2
41	42	5
158	158	2
142	142	2
77	77	2
139	140	1
134	135	2
181	182	1
53	53	2
59	59	3
95	95	2
137	137	2
151	151	2
21	21	4
93	100	2
6	6	2
137	139	1
4	9	1
120	120	2
145	145	3
72	73	2
38	81	1
166	184	1
167	173	1
121	121	2
22	22	3
141	142	1
58	100	2
15	15	1
110	129	1
38	38	1
12	13	1
124	124	4
28	34	1
62	64	1
146	146	1
146	148	1
124	147	1
153	153	4
87	87	1
71	71	1
85	126	2
61	68	1
14	15	1
28	43	1
90	90	1
96	97	1
13	14	1
63	94	1
110	144	1
96	99	1
133	134	2
149	149	1
33	34	1
140	140	2
18	19	1
130	130	2
11	11	2
27	27	1
47	73	2
56	57	2
4	5	1
2	2	1
185	186	1
157	157	1
74	89	1
157	159	2
14	14	3
129	135	1
46	48	1
11	12	1
154	154	2
147	147	4
96	96	3
89	95	1
2	3	1
79	81	1
61	67	1
188	188	1
155	155	1
4	7	1
40	41	1
122	123	1
72	72	1
176	176	1
83	84	2
94	94	1
58	72	1
149	176	1
105	105	1
35	35	1
24	48	1
115	115	1
87	123	1
95	96	1
97	97	1
179	189	1
56	73	1
147	164	1
180	182	1
132	150	1
109	160	1
24	24	1
74	99	1
163	163	1
61	61	1
86	87	1
82	82	1
55	55	1
58	59	1
166	170	1
70	70	1
17	18	1
122	122	2
128	143	1
123	124	1
151	159	1
178	186	1
116	116	1
107	107	1
173	173	1
171	171	1
190	190	1
55	57	1
84	84	1
47	48	1
71	73	1
16	44	1
34	34	1
68	106	1
18	18	2
146	173	1
0	2	1
148	150	1
108	111	1
46	47	1
150	150	1
33	35	1
58	58	1
128	129	1
160	161	1
85	86	1
126	127	1
87	88	1
88	88	1
