21	21	14
186	196	1
98	107	1
28	46	2
151	151	2
195	196	3
7	7	10
103	208	1
173	234	1
38	39	7
46	46	13
204	204	10
93	93	7
112	113	6
30	40	2
217	218	5
200	201	4
187	187	5
24	24	9
29	29	8
169	169	11
190	190	7
50	50	4
52	52	2
216	245	1
235	236	4
200	200	8
30	30	15
194	194	8
117	118	3
220	221	4
32	32	10
167	168	3
175	175	4
188	191	2
92	92	4
17	18	5
68	68	6
201	220	1
161	180	1
45	45	6
51	51	9
238	239	2
33	33	12
242	248	2
153	154	1
186	186	5
52	53	5
1	3	2
61	62	3
226	226	13
63	71	1
100	100	6
94	102	1
62	68	4
47	61	2
234	244	1
15	15	8
175	184	1
186	200	1
234	236	5
48	48	13
109	110	2
208	208	7
67	68	3
209	211	1
25	25	6
16	20	1
220	220	6
20	20	15
219	219	13
197	197	7
223	223	6
13	14	4
209	209	8
6	6	10
228	229	2
227	229	2
47	47	10
186	190	1
31	31	4
66	119	1
59	225	1
118	119	3
214	214	6
66	66	8
37	37	10
226	233	2
1	1	12
34	34	6
119	119	9
1	180	1
228	230	1
56	58	3
111	111	6
165	183	1
213	214	2
244	244	7
225	226	2
117	117	5
218	218	6
35	35	10
222	222	5
39	116	2
44	64	1
228	228	5
76	77	3
63	63	3
203	203	6
187	188	1
186	187	2
216	218	2
234	235	4
45	155	3
66	93	1
195	222	1
55	57	1
160	234	1
39	39	10
225	225	11
42	42	12
114	115	3
207	207	9
40	41	3
10	11	4
165	165	9
70	73	1
206	206	8
146	146	1
108	109	4
241	241	8
182	189	1
199	200	4
220	235	1
88	88	6
180	207	1
208	216	2
150	150	1
160	160	7
70	74	1
197	198	3
163	163	7
66	67	2
16	16	9
96	97	2
198	198	2
78	83	2
3	3	5
86	180	1
57	212	1
155	155	4
173	173	12
190	234	1
177	177	12
213	221	1
146	147	3
209	210	1
116	117	4
109	109	9
33	34	3
12	45	1
233	234	4
221	225	2
2	228	2
15	16	5
7	213	2
6	7	6
54	54	16
164	165	8
85	85	11
60	60	7
93	94	1
230	231	6
17	17	10
48	220	1
25	26	3
56	184	1
162	162	9
47	78	2
84	84	4
27	27	9
82	83	2
75	76	2
112	112	11
11	28	2
2	2	6
36	36	11
74	74	4
110	110	8
184	241	1
91	92	3
231	231	8
59	59	9
166	166	9
94	107	2
172	173	8
167	167	13
233	233	9
241	242	4
245	246	5
12	12	5
12	23	1
192	214	1
175	177	2
182	182	5
200	220	3
173	174	4
188	188	2
105	108	3
170	170	6
207	208	2
162	205	1
166	167	4
213	213	7
78	78	3
201	201	16
174	174	7
162	173	2
79	106	1
90	91	1
156	156	7
79	81	4
36	111	2
176	178	3
163	199	1
54	55	6
56	76	2
208	209	6
234	237	2
116	121	1
154	154	5
4	4	6
243	244	4
99	99	2
192	192	4
90	90	7
46	47	2
28	30	1
5	5	13
168	176	3
181	181	10
71	71	5
49	49	8
19	19	11
145	145	4
192	239	1
101	101	6
153	157	1
152	152	3
12	160	1
17	205	1
69	70	1
90	99	3
8	9	2
199	218	1
196	197	2
30	31	4
107	108	1
212	212	5
14	14	5
212	245	1
18	20	1
80	80	4
196	196	8
104	104	8
101	196	1
206	218	2
213	244	1
181	201	1
236	236	7
6	42	3
43	44	4
37	100	2
210	210	3
179	181	2
242	242	5
44	65	1
160	166	1
47	64	2
219	243	4
89	89	3
16	27	1
203	225	1
201	228	3
158	158	6
23	23	10
229	229	9
174	182	1
158	161	1
69	69	7
215	216	7
203	204	4
82	82	4
105	107	1
32	34	1
113	113	4
70	70	6
51	59	1
203	205	2
45	65	1
160	220	1
53	53	7
116	116	5
172	172	6
240	244	1
172	199	1
176	176	9
41	41	3
64	92	2
230	230	9
169	185	2
83	175	1
12	18	2
9	40	1
14	15	2
20	22	1
91	91	3
56	56	8
179	179	5
203	246	1
161	161	5
217	220	2
20	21	1
176	185	1
8	8	8
168	168	8
57	58	2
193	193	3
185	186	3
184	184	3
18	18	12
181	182	4
112	230	1
154	155	2
156	157	1
89	101	1
159	191	1
88	90	1
202	203	4
248	248	3
157	158	3
147	147	3
44	44	8
85	179	2
14	145	1
35	42	2
61	87	1
88	89	1
114	116	1
39	40	4
202	202	3
47	48	3
61	172	2
227	235	1
159	159	7
40	42	1
165	166	4
51	55	2
182	183	3
144	144	2
161	174	1
194	195	2
73	73	3
83	87	1
247	248	1
221	221	9
85	97	1
16	17	1
213	219	1
114	114	8
227	228	4
247	247	6
212	233	1
148	149	1
240	240	8
230	234	2
246	246	8
21	35	2
73	240	1
51	63	1
59	228	1
26	27	4
113	115	3
181	229	1
196	247	1
178	242	3
40	40	9
43	43	7
193	211	3
80	115	1
214	216	2
168	169	1
164	164	7
111	167	2
90	92	1
208	211	1
170	206	1
222	244	1
171	171	8
177	241	1
169	176	1
193	195	2
31	33	1
158	244	1
215	215	10
61	61	7
75	75	9
86	88	2
4	5	3
44	45	4
207	248	1
83	85	1
50	67	2
225	245	1
58	58	4
28	29	2
239	239	3
175	176	4
49	50	4
32	36	1
107	107	7
50	94	1
78	79	4
210	217	1
12	43	1
238	240	2
73	216	2
174	175	4
38	38	9
102	102	4
60	215	1
84	94	2
86	104	1
222	223	2
113	212	1
62	62	9
64	65	2
183	183	9
95	95	6
25	229	1
120	145	2
198	209	2
184	212	2
182	198	1
59	62	1
11	11	10
158	235	1
92	93	1
113	114	3
22	23	1
53	236	1
180	180	7
4	7	1
145	183	1
199	199	8
200	244	1
100	147	1
35	152	1
72	72	4
19	51	1
11	31	1
237	238	3
8	41	1
174	178	1
159	181	1
189	189	2
9	29	1
53	54	2
13	15	1
220	223	1
155	157	1
231	236	1
182	226	1
232	233	5
87	87	4
79	84	4
41	118	1
31	32	1
58	59	1
203	227	1
57	78	1
237	239	1
153	153	1
76	76	4
212	228	1
180	205	1
96	96	2
217	247	1
185	185	7
197	224	2
183	185	1
108	108	7
38	224	3
12	14	2
48	199	1
29	31	1
171	172	4
94	94	4
235	235	7
241	243	1
227	227	1
115	116	2
175	187	1
176	189	3
115	115	6
87	88	4
79	83	1
173	180	2
48	210	1
5	6	2
91	100	1
24	43	2
52	54	2
50	77	4
118	118	6
35	112	1
73	207	1
169	170	2
212	247	2
71	103	1
224	225	2
117	173	1
86	86	3
224	224	5
219	232	2
188	189	2
238	238	4
237	240	2
221	223	1
36	38	2
23	33	1
6	35	1
12	16	2
153	227	1
9	9	8
57	57	3
169	187	1
155	181	1
164	180	1
26	26	7
153	155	2
80	103	1
217	221	1
37	114	1
172	181	1
103	106	1
43	213	1
197	200	1
75	77	1
209	215	1
152	170	1
234	234	1
52	230	1
10	10	5
144	234	1
55	55	7
55	56	2
68	74	1
236	248	1
204	245	1
173	211	1
105	105	3
213	215	2
85	246	1
175	179	3
33	154	1
19	20	3
168	173	1
217	217	7
192	193	5
119	120	3
26	39	1
174	187	1
165	207	2
27	45	2
21	203	1
240	243	1
81	81	3
59	152	1
210	213	1
70	71	1
98	101	1
48	60	1
33	35	3
43	78	1
48	182	1
47	53	1
96	99	3
211	211	3
0	1	1
184	193	1
100	235	1
205	212	1
15	153	2
210	211	1
174	184	1
157	157	5
177	191	1
34	35	3
68	70	3
94	100	1
221	248	2
120	120	4
32	39	2
18	29	1
33	43	2
18	19	3
85	95	1
197	199	1
98	170	2
162	163	2
221	222	2
20	31	2
99	113	1
237	247	1
6	245	1
176	240	1
96	166	2
166	197	1
48	63	1
194	199	1
40	112	2
5	45	2
86	100	1
95	100	2
21	46	1
73	74	1
155	172	1
42	43	4
182	184	1
196	209	1
119	152	2
223	224	2
177	187	4
102	209	1
51	53	1
177	242	1
214	244	1
77	89	1
24	29	1
60	213	1
231	235	1
46	53	1
60	61	2
190	199	1
168	201	1
72	74	1
170	171	1
47	200	1
197	220	2
80	82	2
83	83	3
212	214	1
72	73	2
2	4	2
17	181	1
170	186	1
21	28	3
242	244	2
207	211	1
205	205	3
9	11	1
190	191	3
176	177	3
189	190	1
85	181	1
89	91	1
28	28	1
156	206	2
31	51	1
65	71	1
38	42	1
180	221	1
110	113	1
244	246	1
20	28	1
26	29	1
236	241	1
87	90	1
48	50	1
106	106	4
85	101	1
149	150	1
195	214	2
97	98	3
101	102	1
37	39	1
35	36	2
87	172	1
1	72	1
160	161	1
62	63	1
178	178	2
58	102	1
162	176	1
178	188	2
9	31	1
81	108	1
199	215	1
5	152	1
195	195	5
152	153	2
9	183	1
60	65	1
216	216	8
1	158	1
163	191	1
65	67	2
22	22	9
45	229	1
243	243	2
38	43	1
231	234	2
56	79	1
23	27	1
21	22	1
211	212	1
31	34	1
192	195	1
219	241	1
38	41	1
245	245	4
237	237	4
85	86	1
64	64	3
84	115	1
190	192	1
92	182	1
163	168	1
79	82	1
175	220	1
68	75	1
1	46	1
197	218	1
102	103	1
32	33	2
151	154	1
153	182	1
177	178	2
112	114	1
6	47	2
184	185	3
84	104	1
1	2	1
6	8	1
160	162	1
155	156	2
50	51	2
10	23	1
99	102	1
46	246	1
111	112	3
45	61	1
212	226	1
177	240	1
162	208	1
78	85	1
11	45	1
63	76	1
23	24	1
242	243	1
16	44	1
49	66	1
45	46	2
235	237	1
27	120	1
17	22	1
171	174	1
47	52	1
7	9	1
86	118	1
206	235	1
94	108	1
10	28	1
209	219	1
77	77	1
91	109	1
2	3	2
228	234	1
8	10	1
29	30	1
12	219	1
209	247	1
154	227	1
37	45	1
240	248	1
84	85	2
163	164	1
165	168	1
172	244	1
222	224	1
63	70	1
64	66	1
154	156	1
33	55	1
231	233	2
158	159	1
207	210	2
162	165	1
219	220	1
200	211	1
33	36	1
84	119	1
53	63	1
26	35	1
216	217	3
7	41	1
43	246	1
37	230	1
161	163	1
2	152	1
49	57	1
193	194	2
204	205	2
183	187	1
80	191	1
215	237	1
209	214	1
63	91	1
173	223	1
11	12	2
161	162	1
181	211	1
216	223	1
106	117	1
17	19	1
76	110	1
13	13	1
189	192	1
95	99	2
220	230	2
47	147	1
49	225	1
55	147	1
80	81	1
19	186	1
212	219	1
93	100	1
89	100	1
109	227	1
28	52	1
11	185	1
39	173	1
86	87	3
98	98	1
93	110	1
245	247	1
27	146	1
43	234	1
22	42	1
159	169	1
56	189	1
194	212	1
213	226	1
180	181	2
185	194	1
49	240	2
22	158	1
203	235	1
199	216	1
56	57	1
176	187	2
101	107	1
74	85	1
110	153	1
220	222	2
73	206	1
72	75	1
175	204	1
224	227	1
178	179	3
205	207	1
65	65	1
69	76	1
76	79	1
229	230	1
73	172	1
208	214	1
201	204	1
191	192	2
162	179	1
48	49	2
41	63	1
10	231	1
150	151	1
235	240	1
242	245	1
25	27	1
182	224	1
15	32	1
218	219	1
34	36	1
67	67	2
93	117	1
174	204	1
162	198	1
197	223	1
100	109	1
41	91	1
66	110	1
104	105	1
77	182	1
154	172	1
194	217	2
60	73	1
210	212	1
60	66	2
79	245	1
0	156	1
198	236	1
183	184	2
24	25	2
187	189	1
37	41	1
113	210	1
160	231	2
23	65	1
167	229	1
55	62	1
189	240	1
34	182	1
144	166	2
50	58	1
6	212	1
25	62	1
38	169	2
51	228	1
7	12	1
211	231	1
87	89	2
23	204	1
171	178	1
68	87	1
46	146	1
78	84	1
208	212	1
3	6	1
27	185	1
27	40	1
32	230	1
164	189	1
166	213	1
202	205	1
27	33	1
77	80	2
33	173	1
226	227	1
63	65	1
84	238	1
5	50	1
75	119	1
66	74	1
70	76	1
47	55	1
90	94	1
59	178	1
232	238	2
77	84	2
15	17	1
27	34	2
232	245	1
100	101	2
35	41	1
212	213	1
8	21	1
68	76	1
249	249	2
66	109	1
233	235	1
46	51	1
70	90	1
168	172	1
3	5	1
213	237	1
3	4	1
221	231	1
240	241	1
57	59	1
36	153	1
51	65	1
47	62	1
99	160	1
78	231	2
201	212	1
223	225	1
226	229	1
47	67	1
166	185	1
106	108	1
97	100	1
89	115	1
219	234	1
40	174	1
214	219	1
85	87	2
226	235	1
42	48	1
36	228	1
198	222	2
179	180	2
80	86	1
162	228	1
187	193	2
11	29	1
227	230	1
87	185	1
172	184	1
27	228	1
223	226	1
29	34	1
117	202	1
50	62	1
68	180	1
188	209	1
116	118	1
195	198	1
17	26	1
63	64	1
234	246	1
20	32	1
68	73	1
206	207	1
93	146	1
37	46	1
102	170	1
7	245	1
42	56	1
201	202	1
181	226	1
89	90	1
180	198	1
115	181	1
185	191	1
6	152	1
165	185	1
12	21	1
39	43	1
