193	193	9
149	149	4
68	68	4
176	178	3
81	82	1
2	2	9
78	78	2
185	185	3
26	26	11
193	194	10
63	63	5
52	52	12
164	164	6
18	18	12
65	66	4
108	137	1
45	45	9
112	151	1
133	141	1
64	64	8
38	39	2
160	175	1
189	189	5
4	4	6
40	40	12
9	9	10
186	186	2
167	167	5
48	48	11
23	86	1
44	44	9
165	165	7
8	31	1
13	13	8
159	160	3
47	47	12
30	30	8
39	40	2
170	177	2
176	176	8
88	88	1
158	194	1
21	21	1
38	38	14
77	88	1
9	10	8
25	25	6
171	171	9
167	174	1
135	135	7
20	22	2
152	168	1
190	190	5
82	82	3
155	155	6
96	102	3
138	138	11
55	67	3
153	154	5
70	70	5
18	23	1
162	176	1
22	35	2
175	175	5
140	147	1
67	68	1
12	37	1
140	140	9
54	55	2
128	128	4
144	144	7
152	155	1
166	166	5
41	41	10
196	196	8
16	39	1
146	172	1
5	5	6
78	86	2
181	181	8
168	168	10
12	38	1
73	73	8
70	71	3
72	73	2
37	38	7
160	166	2
71	71	3
139	139	3
8	9	4
188	188	8
35	83	1
168	172	1
72	72	8
146	146	6
56	73	2
158	158	6
182	182	7
48	49	1
100	102	2
188	189	1
180	180	4
185	186	5
37	155	2
49	49	7
84	84	3
53	55	1
57	57	9
184	184	9
157	157	12
124	127	1
3	23	1
175	176	6
15	15	8
25	40	1
106	106	4
160	160	4
172	177	2
101	101	5
66	66	6
158	159	3
14	141	1
7	8	7
46	46	15
33	35	2
141	141	10
134	135	3
128	171	1
97	98	2
95	95	2
54	73	1
87	87	2
126	126	2
161	161	11
55	55	3
37	37	12
23	23	6
100	101	2
111	112	1
179	182	1
47	48	1
98	98	3
112	114	1
194	194	8
33	44	1
6	6	2
107	132	1
61	71	1
156	172	1
58	58	4
3	4	1
110	114	1
151	152	1
22	23	4
169	169	4
36	36	9
5	6	3
53	99	1
42	44	1
79	81	1
27	68	1
161	191	1
195	195	4
11	12	2
105	109	1
20	21	1
136	136	3
31	31	8
12	12	11
132	132	4
177	177	2
142	148	2
19	19	9
14	14	9
10	10	13
89	89	3
180	181	1
43	43	9
156	157	1
120	120	2
124	124	13
187	192	1
137	138	3
115	118	1
120	128	1
72	129	1
54	56	1
118	119	2
159	180	1
27	28	2
55	85	1
139	140	4
24	24	5
35	35	8
85	85	3
0	137	2
27	27	6
10	43	1
22	25	1
162	165	1
14	18	1
115	120	3
97	97	2
112	112	7
67	67	8
22	22	7
46	47	2
173	173	5
121	121	3
52	155	1
28	31	1
16	16	10
19	39	1
23	25	6
178	178	2
122	122	2
153	169	1
8	8	12
60	60	1
3	8	1
0	2	2
146	148	3
115	115	2
6	8	2
26	28	1
14	15	4
186	194	1
114	114	4
88	134	1
129	129	6
150	169	1
89	90	1
89	107	1
172	172	5
170	176	1
53	62	1
146	186	1
172	176	1
0	7	2
29	33	1
135	142	1
0	0	6
108	108	3
139	151	2
189	190	2
25	45	1
120	124	1
135	137	2
110	110	4
179	179	5
13	19	1
72	85	1
151	151	4
128	131	1
194	195	2
156	156	6
170	170	2
59	59	2
96	110	2
16	187	2
140	141	1
80	83	1
2	4	2
116	119	1
34	36	5
179	192	1
142	142	7
118	118	3
154	154	3
7	7	6
33	197	1
49	125	1
27	36	2
69	69	3
191	195	1
145	168	1
168	170	1
161	182	1
187	188	4
104	110	1
102	103	1
197	197	7
173	175	2
24	25	4
135	167	1
107	107	3
137	137	4
32	43	2
54	54	6
2	16	1
5	7	1
62	67	1
73	88	2
81	81	4
34	35	3
34	34	3
113	115	1
68	78	1
64	135	2
12	14	1
125	138	1
64	67	2
123	126	1
51	51	9
138	141	2
94	94	3
14	21	1
12	13	4
40	41	6
191	191	5
28	37	1
17	27	1
144	146	1
8	18	1
102	105	1
4	5	2
117	137	1
144	145	3
187	191	1
148	148	6
72	125	1
69	72	3
32	32	5
42	42	7
123	123	6
192	192	5
17	17	11
32	63	1
162	167	1
122	123	1
29	29	5
28	28	7
18	185	1
171	172	2
42	43	2
71	73	1
164	181	1
16	17	4
138	196	1
74	76	1
145	148	1
117	117	3
167	170	1
39	39	3
147	147	3
123	124	2
153	176	1
175	185	1
176	179	2
58	59	1
98	107	1
110	118	2
48	52	1
47	53	1
150	156	1
60	61	1
29	30	1
31	159	1
75	76	1
35	36	3
93	94	1
149	150	1
88	89	2
21	30	1
20	20	7
117	120	1
7	10	2
2	10	1
15	31	1
54	62	1
39	42	3
128	151	1
177	178	2
17	19	2
5	24	2
20	26	1
43	44	1
163	163	2
51	151	2
10	12	1
133	133	4
153	164	1
26	30	1
88	97	1
119	157	1
13	14	2
74	136	2
30	31	4
13	22	1
168	189	1
127	156	2
191	192	3
183	183	10
86	86	1
141	146	1
3	3	4
164	165	3
98	112	1
56	56	8
146	147	1
190	191	1
128	129	3
178	179	1
187	187	10
67	101	1
136	169	1
127	127	3
15	17	1
116	116	3
37	107	1
33	38	2
65	69	1
111	111	4
119	169	1
43	45	2
161	164	3
10	30	1
2	3	3
165	166	4
131	158	1
41	44	1
48	53	1
165	167	1
44	45	1
62	62	3
189	196	1
174	176	1
109	109	3
139	141	2
33	37	1
150	150	6
159	169	1
165	171	1
183	184	1
109	110	5
179	184	1
138	193	1
113	117	1
32	33	7
5	9	3
138	140	2
106	171	1
25	28	1
42	141	1
4	16	1
121	122	1
76	76	2
86	87	2
3	6	1
77	77	4
105	105	1
12	39	1
134	134	4
162	162	2
39	47	1
143	143	2
111	119	2
104	143	1
105	113	2
17	64	1
4	36	1
37	55	1
50	51	1
8	24	1
157	179	1
189	193	1
139	152	1
117	145	1
12	22	2
34	38	2
36	41	1
79	79	3
154	156	2
67	73	1
71	141	1
137	163	1
78	79	2
41	46	1
117	126	1
36	40	1
20	25	1
119	122	1
40	42	1
67	76	1
192	193	1
50	50	2
28	45	1
156	165	1
45	46	4
169	170	2
99	137	1
181	182	3
125	125	4
35	45	1
11	11	2
55	56	1
49	64	1
169	177	1
130	139	1
45	59	2
186	187	1
99	99	2
1	1	2
13	21	2
166	167	2
113	113	3
143	166	2
44	54	1
27	108	1
58	66	1
131	131	2
93	93	2
154	155	1
98	115	1
105	119	1
163	164	1
121	155	1
55	57	1
116	125	1
90	114	1
187	193	1
43	46	1
187	189	1
21	39	1
157	159	2
147	160	1
119	123	1
37	43	2
17	20	1
22	82	2
62	63	1
193	195	1
109	114	1
133	138	1
51	65	1
55	134	1
31	39	1
148	149	1
19	21	3
172	174	1
9	62	2
95	96	2
180	184	1
21	23	1
110	126	1
36	46	1
55	135	1
41	42	1
83	109	1
9	12	1
28	44	1
69	85	1
22	32	1
24	27	1
36	44	1
45	57	2
108	109	1
94	105	1
174	179	2
59	62	1
142	149	1
185	195	1
65	77	1
183	185	2
30	37	1
131	134	1
184	197	1
56	61	1
170	171	1
161	180	1
158	160	2
106	107	1
194	196	1
53	53	1
33	33	4
79	80	1
130	134	1
146	190	1
173	174	1
101	107	1
47	52	1
61	63	1
118	135	1
188	197	2
190	192	2
169	179	1
153	159	3
123	131	1
12	182	1
148	153	1
106	110	1
157	192	1
150	152	1
4	7	1
72	100	1
93	130	2
15	138	1
183	193	1
10	11	4
179	180	1
145	159	1
159	159	3
158	172	1
106	158	1
98	119	1
179	188	1
49	195	1
2	11	1
150	154	1
0	188	1
62	64	1
123	139	1
77	78	1
152	159	1
69	98	1
14	164	1
100	100	1
160	193	1
160	187	1
27	38	1
55	87	1
162	164	2
173	176	2
113	123	2
121	139	1
44	47	1
155	156	2
159	165	1
157	158	2
189	191	1
114	115	1
99	136	1
93	96	1
9	55	1
4	9	1
107	140	1
2	36	1
110	111	1
73	79	1
106	115	2
140	148	1
116	117	1
123	169	1
69	73	1
68	73	1
6	11	1
170	182	1
157	160	2
41	73	1
17	18	1
116	118	1
6	14	1
196	197	1
74	74	3
9	65	1
157	180	1
32	48	1
142	186	1
143	146	2
139	153	2
25	29	1
0	8	2
167	168	3
9	11	1
172	180	1
66	125	2
126	127	2
109	152	1
1	2	1
113	122	1
115	117	1
20	194	1
64	66	1
47	179	1
18	24	1
34	37	1
41	50	1
101	149	1
146	150	1
124	130	1
140	143	1
68	84	1
18	19	1
55	88	2
152	152	2
69	99	1
6	7	1
171	178	1
1	3	1
186	197	1
0	5	1
20	23	1
0	1	2
20	100	1
25	26	1
15	25	1
33	34	1
81	87	1
5	34	1
103	152	1
107	110	1
63	64	3
30	34	1
160	174	1
103	103	2
186	189	1
120	123	1
102	107	1
40	46	1
103	104	1
19	22	1
109	116	1
128	133	1
14	45	1
138	143	1
143	144	1
141	142	1
15	16	1
105	106	1
25	36	1
181	188	1
23	24	1
133	134	2
19	32	1
171	193	1
3	11	1
66	81	1
183	188	1
35	37	1
59	61	1
142	187	1
125	126	1
54	58	1
28	30	1
83	85	1
150	153	1
84	86	1
114	123	1
44	49	1
40	72	1
153	153	3
189	192	1
177	182	1
182	183	1
65	72	1
162	187	1
45	47	2
130	130	2
49	196	1
59	60	1
100	113	1
115	133	1
21	38	1
47	71	1
150	182	1
43	106	1
138	139	1
58	72	1
72	119	1
43	66	1
166	169	1
51	52	1
112	113	1
152	153	1
39	44	1
27	37	1
168	169	1
162	163	1
47	128	1
176	183	1
124	134	1
107	123	1
128	149	1
35	53	1
26	35	1
