128	150	1
22	22	3
25	36	1
29	29	3
11	12	3
182	187	1
193	197	1
111	120	2
157	158	1
135	155	1
173	177	2
18	22	1
10	14	2
22	23	1
31	31	2
151	153	1
124	124	1
57	86	1
169	170	1
143	145	1
104	104	1
21	23	1
49	51	1
156	156	1
54	56	1
136	147	1
43	116	1
80	83	3
93	95	2
176	176	3
2	2	1
7	12	1
126	127	2
164	169	1
41	43	2
98	116	3
64	65	1
178	178	3
32	38	1
118	122	1
3	36	1
12	12	2
98	98	1
186	189	1
98	100	1
12	14	1
9	10	2
35	35	4
14	15	1
14	17	1
66	86	1
3	6	1
58	80	1
157	167	1
160	166	2
45	64	1
58	68	1
119	162	1
126	130	1
10	10	1
7	8	1
12	16	1
21	26	1
165	192	1
193	193	2
54	60	1
67	69	1
41	42	1
36	36	1
97	98	1
13	26	1
105	108	2
5	46	2
116	119	1
44	44	3
19	20	2
4	5	1
151	165	1
190	194	1
187	187	2
184	184	3
106	117	2
172	174	1
194	194	1
183	191	2
11	11	1
21	22	2
185	191	1
163	163	2
5	10	1
15	26	1
48	53	1
50	58	1
18	18	1
36	37	1
10	33	1
139	141	1
33	37	1
84	84	2
22	26	1
68	70	2
153	154	1
175	175	1
159	167	2
146	147	1
5	8	1
106	134	1
178	180	1
20	23	1
135	135	1
46	47	2
158	190	1
12	13	2
30	33	1
35	36	1
24	24	1
10	12	1
26	30	1
154	189	1
160	197	1
179	191	1
66	85	1
116	120	1
165	165	2
104	105	1
173	175	1
177	188	1
14	45	1
77	82	2
34	38	1
80	106	1
27	28	1
139	147	1
185	185	2
108	112	1
83	83	2
18	32	1
13	17	1
47	52	1
168	189	1
117	127	1
26	29	1
23	64	1
39	40	1
34	41	1
183	185	2
61	61	1
45	49	1
86	87	1
19	19	1
32	32	2
49	81	1
193	194	3
197	197	1
167	167	1
102	107	1
13	13	1
138	141	2
107	136	1
142	142	1
44	83	1
78	88	1
4	4	1
42	71	1
0	1	1
58	65	2
71	71	2
99	100	1
0	0	1
133	136	1
161	165	1
0	37	1
79	82	1
15	20	1
99	109	1
128	173	1
152	152	1
174	179	1
3	5	2
27	29	1
137	137	1
196	197	1
143	163	1
130	133	1
17	27	1
122	152	1
132	139	1
63	63	1
88	88	1
107	108	2
128	128	1
154	195	1
130	137	1
63	67	1
79	81	1
61	65	2
125	166	1
8	8	2
134	135	1
114	119	1
16	18	1
159	162	1
9	9	1
33	34	1
115	115	1
176	181	1
25	29	1
154	176	1
65	65	1
35	60	2
81	82	1
169	172	1
37	37	2
166	170	1
1	3	1
182	188	2
28	40	1
105	136	1
18	25	1
142	187	1
75	78	1
26	37	1
38	61	1
144	148	1
154	160	1
192	196	1
140	140	1
67	71	1
24	25	1
87	99	1
7	7	1
26	64	1
84	89	1
136	180	1
40	41	1
74	75	1
152	156	1
34	45	1
171	173	1
3	9	1
133	134	1
150	150	1
166	172	1
72	72	1
162	169	1
15	21	1
121	124	1
3	4	1
101	106	1
53	72	1
154	154	1
44	57	1
30	32	1
179	180	1
156	157	1
34	39	1
102	103	1
36	76	1
176	178	1
10	15	2
109	155	1
177	178	1
57	61	1
3	8	1
43	44	1
150	183	2
54	86	1
23	41	1
98	99	1
166	174	1
51	57	1
10	39	1
176	195	1
95	97	1
162	168	1
36	43	1
66	67	1
185	194	1
114	114	1
16	16	1
54	66	1
111	112	1
53	57	1
15	16	1
117	159	1
28	70	1
159	163	1
164	164	1
102	134	1
168	174	1
150	154	1
162	196	1
