122	122	4
23	26	3
50	50	2
31	31	4
16	16	3
75	75	8
118	120	2
77	77	2
131	131	3
41	41	8
106	109	1
98	101	2
147	170	1
138	138	7
24	28	1
13	13	4
177	177	4
71	73	2
74	74	6
99	101	3
138	141	1
118	118	9
92	92	5
136	136	4
38	39	1
55	55	8
86	87	8
56	56	5
127	130	2
0	35	1
106	106	3
120	125	2
60	106	2
176	176	3
108	110	1
102	102	2
152	152	5
51	52	2
44	44	6
178	179	1
52	54	1
91	92	1
30	30	3
90	104	1
5	7	1
132	132	6
88	88	2
33	33	3
151	151	1
121	121	3
36	36	8
142	143	2
20	41	1
116	116	2
7	9	1
42	43	3
112	112	3
157	157	4
74	135	2
90	90	5
164	166	1
146	162	1
19	32	1
87	87	6
143	145	4
93	95	1
2	7	1
123	123	4
107	107	4
114	114	5
72	73	2
68	71	1
80	92	1
50	59	1
10	10	11
60	133	1
20	20	7
137	137	5
30	40	3
5	6	1
18	19	5
58	58	2
109	110	2
56	61	2
95	100	2
94	94	3
82	82	6
61	63	1
90	126	2
85	85	2
87	94	1
53	61	2
11	14	1
60	66	1
165	165	5
62	63	1
83	83	2
80	131	1
134	149	2
160	160	4
25	25	4
134	134	7
117	117	5
141	141	5
148	148	8
142	145	1
22	24	5
174	174	4
129	129	4
24	26	2
24	25	1
112	141	1
152	153	3
13	29	2
120	120	4
93	93	2
95	95	5
3	3	1
175	175	5
5	14	1
36	38	2
1	1	2
175	176	1
123	125	1
9	9	7
154	154	5
146	155	1
124	124	4
39	39	2
178	178	3
43	43	7
79	79	3
112	114	1
128	128	4
86	86	3
125	125	8
14	52	1
37	37	2
28	28	7
133	135	1
31	38	1
109	109	4
94	95	1
104	104	2
8	8	6
135	135	5
3	42	1
72	72	7
142	142	4
159	160	1
30	127	1
9	13	1
180	180	2
39	129	1
40	40	12
72	77	1
84	85	2
145	148	2
16	29	2
157	160	1
34	34	5
144	146	1
57	82	2
113	113	2
60	60	2
65	65	2
53	72	1
18	18	5
64	64	3
106	107	3
154	156	5
100	112	1
153	153	1
103	103	5
168	168	4
104	105	2
164	164	2
153	156	1
176	177	3
158	171	1
146	147	1
61	61	5
173	173	4
169	172	1
38	38	4
56	77	1
140	140	9
14	14	4
111	155	1
25	26	3
59	59	4
52	67	1
172	172	2
38	118	1
139	139	4
91	91	4
70	71	2
115	115	2
98	117	1
150	150	6
158	159	1
2	3	2
89	90	2
97	97	6
17	17	2
29	74	3
163	163	3
111	172	1
89	89	4
127	144	1
97	98	1
157	158	2
62	62	2
17	18	2
128	129	1
16	17	1
26	27	1
151	160	2
125	127	1
21	22	2
33	44	2
111	111	3
154	157	2
121	123	2
40	41	3
98	98	1
153	168	1
67	67	2
144	145	3
98	100	1
122	140	1
54	54	4
171	171	8
23	23	6
105	110	1
120	121	1
36	61	1
2	2	6
2	5	2
104	130	1
61	94	1
80	80	2
0	179	1
133	133	2
155	155	7
68	68	5
54	138	1
156	156	5
150	151	3
137	138	1
131	141	2
43	106	1
119	119	5
158	158	9
167	169	3
161	161	7
25	29	1
92	93	3
5	35	1
76	76	3
6	6	7
6	61	2
96	99	1
11	16	1
15	15	6
64	109	1
117	118	2
9	41	2
51	51	3
2	4	1
76	96	1
54	80	1
53	134	1
51	58	1
25	28	1
50	54	1
0	2	1
10	37	1
97	99	1
18	22	1
7	36	1
138	139	1
42	42	8
111	112	4
14	17	1
143	143	2
53	53	3
101	103	2
81	81	2
58	85	1
169	171	2
82	85	2
101	101	3
3	4	4
4	4	1
167	167	4
61	62	3
117	119	1
71	72	1
36	60	1
7	7	1
14	31	1
29	29	1
28	29	2
35	35	4
140	167	1
103	105	3
96	112	1
105	107	1
24	37	1
31	34	2
148	164	1
149	151	1
53	54	3
145	145	6
50	91	2
149	149	6
24	44	1
137	139	1
126	126	3
6	10	1
149	163	1
172	173	1
170	170	3
36	37	2
44	52	1
72	133	2
11	12	1
115	123	2
4	7	1
8	9	3
51	62	2
177	178	1
127	127	1
132	133	2
59	84	1
110	112	1
75	77	1
88	89	2
26	30	1
71	71	1
17	35	1
173	178	1
49	52	1
27	27	1
66	66	4
7	28	1
65	73	1
63	63	2
37	44	2
108	108	4
159	162	1
57	60	1
84	84	1
154	155	1
50	51	1
152	164	1
1	10	1
26	26	1
144	144	2
122	134	2
104	136	1
10	11	1
12	12	2
130	130	1
147	147	2
96	96	2
61	108	1
19	19	1
146	146	3
55	64	2
102	108	1
56	140	1
113	117	1
38	50	1
29	41	1
81	82	1
164	165	2
99	99	3
34	38	1
110	111	1
118	128	2
89	93	1
115	128	1
35	37	1
60	90	1
87	88	1
24	24	2
165	166	1
159	159	1
115	173	1
167	168	1
95	96	1
90	93	1
84	86	2
114	115	1
65	66	2
96	105	1
166	167	2
13	62	1
67	83	1
32	32	1
119	120	2
22	33	1
130	131	2
22	23	1
102	105	1
5	5	2
14	15	1
57	57	3
156	157	1
27	44	1
82	104	1
162	164	1
8	27	1
153	154	1
20	31	1
162	162	1
139	142	1
102	107	1
169	169	3
169	170	1
140	168	1
162	163	1
91	93	1
145	153	1
27	40	1
74	174	1
11	11	1
22	22	2
122	123	1
117	121	1
156	163	1
62	106	1
126	138	1
76	77	1
45	45	1
168	169	2
61	77	1
73	87	1
27	35	1
150	153	1
171	174	2
16	44	1
100	100	1
140	141	1
6	7	2
79	122	1
126	130	1
129	131	1
56	60	1
132	177	1
63	64	1
97	129	1
45	58	1
24	36	1
73	73	3
7	8	1
54	77	1
80	81	1
12	34	1
105	113	1
118	140	1
25	27	1
166	166	2
143	144	2
151	153	1
165	178	1
21	23	1
146	148	1
63	100	1
124	125	1
119	122	1
0	0	2
153	162	1
18	40	1
96	97	1
126	128	1
105	105	1
126	143	1
62	103	1
155	156	1
64	90	1
163	167	1
96	108	1
110	110	1
43	45	1
175	180	1
110	113	1
58	59	1
96	98	1
13	15	1
148	172	1
137	175	1
39	40	1
20	21	1
85	86	1
179	179	1
15	17	1
9	43	1
117	161	1
116	129	1
