139	139	2
90	91	1
107	107	5
71	99	1
48	52	1
105	132	4
95	96	3
132	132	7
147	149	1
83	83	4
4	4	6
89	89	5
36	36	5
153	153	3
128	128	6
57	57	2
2	27	1
126	126	9
125	126	2
64	65	1
85	85	2
130	130	6
83	84	1
29	105	2
98	98	4
90	90	3
108	111	1
159	159	1
142	149	1
117	136	2
24	25	2
116	120	1
154	154	2
0	0	5
76	76	3
101	101	5
73	73	3
95	95	2
105	105	7
36	156	3
66	66	2
111	112	1
82	82	4
78	78	3
13	13	2
152	152	1
109	109	6
32	35	1
64	64	3
52	52	3
63	65	1
135	135	5
94	94	6
31	31	1
118	118	3
6	6	7
133	133	7
6	12	2
131	131	7
2	3	3
151	151	10
49	49	7
144	144	3
5	138	1
146	146	3
18	21	2
129	129	4
35	35	4
24	24	2
107	108	1
7	8	1
142	145	1
147	148	2
12	30	1
117	117	2
88	88	6
26	26	13
51	51	4
48	49	1
88	89	3
124	124	6
121	122	2
140	140	4
50	50	2
40	41	2
42	42	9
110	110	3
20	20	4
0	2	1
108	113	1
114	115	2
56	57	2
20	21	2
69	69	1
122	123	1
141	141	8
46	83	1
80	81	1
37	37	3
96	97	1
11	13	2
147	147	4
155	155	5
157	158	3
70	70	4
106	106	3
143	148	3
66	72	1
11	11	1
112	112	4
46	122	1
6	129	1
104	150	1
154	155	1
150	150	9
96	104	1
103	103	2
113	114	2
27	30	1
84	85	1
18	19	2
141	142	1
110	111	1
143	143	1
40	77	1
157	157	5
79	79	6
32	32	3
47	47	5
97	97	2
116	116	2
120	120	2
129	131	1
123	123	3
45	45	1
72	72	3
27	27	3
44	44	2
98	99	1
115	116	3
138	138	5
17	19	1
112	113	1
118	122	1
125	148	1
153	154	1
100	102	1
115	115	5
111	111	3
117	119	4
107	129	1
86	86	3
5	5	2
25	25	4
15	15	2
109	110	3
66	127	1
108	109	2
99	99	7
53	53	1
84	84	2
152	154	4
89	90	1
91	117	1
43	43	4
116	133	1
38	38	3
132	149	1
102	102	1
29	29	4
1	1	2
127	127	5
120	121	2
38	39	2
8	8	3
21	44	1
131	133	1
136	136	3
134	138	1
39	39	3
107	133	2
158	158	3
99	100	1
150	152	1
128	143	1
130	131	1
133	134	3
75	91	1
53	54	2
137	137	3
62	63	2
66	99	1
2	151	1
7	7	1
37	38	2
14	14	3
79	80	2
135	136	1
96	115	2
138	139	2
17	17	1
132	133	2
10	10	2
10	13	1
29	30	1
11	12	1
75	75	5
57	79	1
68	68	4
122	125	1
40	40	2
27	72	1
141	145	1
131	132	3
68	69	1
62	62	2
31	32	2
12	29	1
100	100	5
65	132	1
30	30	2
156	156	5
128	129	1
93	94	1
133	138	2
127	128	2
124	125	1
91	92	2
21	21	1
67	67	2
155	158	1
119	137	2
117	118	1
113	135	1
12	17	1
74	74	2
142	142	2
79	83	1
102	103	1
109	111	2
21	22	1
96	96	3
108	108	6
10	11	3
38	54	1
54	89	1
131	152	1
46	46	3
84	138	1
23	23	1
14	48	1
18	18	2
23	24	1
100	129	1
119	119	2
94	95	1
6	36	1
13	144	2
12	12	3
54	55	1
2	2	2
22	22	2
36	37	2
85	86	1
75	77	1
34	34	2
112	115	2
130	133	1
113	113	2
84	86	1
28	32	1
132	134	1
104	104	1
87	107	1
56	56	2
118	121	1
48	102	1
140	148	1
64	66	1
69	70	1
125	125	1
114	114	3
105	140	2
139	149	1
48	48	1
100	138	1
8	10	1
153	157	1
32	33	1
83	85	1
123	137	1
105	131	1
55	55	1
122	122	1
152	155	2
139	140	1
121	121	1
3	3	1
112	116	1
92	92	1
81	82	1
123	124	1
6	22	1
110	114	1
129	130	1
134	135	1
68	70	1
105	106	1
87	87	1
27	97	1
110	128	1
41	41	1
51	54	1
22	23	1
137	138	1
16	26	1
61	61	1
28	28	1
119	133	1
30	31	1
145	145	1
63	64	1
