118	135	1
12	30	1
116	116	3
57	57	2
96	96	3
49	53	1
151	151	3
90	90	1
136	137	1
24	24	2
95	95	2
98	98	2
139	139	2
156	156	2
153	158	2
123	123	3
153	153	3
22	22	2
105	105	4
116	120	2
154	157	1
11	48	1
137	137	4
129	129	3
113	113	4
46	46	2
85	86	1
79	79	6
64	78	1
148	151	1
8	8	2
128	140	1
103	104	4
88	88	1
49	52	1
30	37	1
87	87	1
47	47	2
78	78	1
89	90	1
55	56	1
101	101	3
52	54	1
12	17	1
111	111	3
1	1	1
83	83	3
113	115	1
51	143	1
144	145	1
50	54	1
104	153	2
78	82	1
73	73	3
154	154	2
82	82	3
34	34	1
55	55	2
84	85	2
133	134	1
31	111	1
149	150	1
110	110	2
132	133	2
131	131	4
126	126	4
108	111	2
148	148	2
134	134	1
21	25	1
10	11	2
42	42	1
115	115	1
90	91	1
44	44	2
20	95	1
137	138	1
20	39	1
33	33	4
41	44	1
72	72	1
142	157	1
92	94	1
157	157	1
124	124	1
67	67	3
93	93	2
33	105	1
63	63	2
119	120	2
34	111	2
111	112	3
62	68	1
112	144	1
109	109	4
146	146	1
16	56	1
16	18	1
33	35	1
72	85	1
86	87	1
97	97	2
84	84	1
93	94	1
112	116	1
103	103	1
107	108	1
68	69	1
81	81	1
147	148	4
75	75	4
32	32	1
147	147	1
43	43	3
146	147	1
30	49	1
151	156	2
27	27	3
114	115	1
155	156	1
29	104	1
69	119	1
0	0	4
140	140	3
18	19	1
119	119	1
76	154	2
40	40	1
47	50	1
67	68	1
138	158	1
104	104	1
66	66	1
110	148	1
127	135	1
33	37	1
89	89	1
27	43	1
101	105	1
85	92	1
45	45	2
140	141	1
29	29	2
94	118	1
145	145	1
90	109	1
154	155	1
123	137	1
50	50	1
149	149	1
88	89	1
130	131	1
13	13	4
26	38	1
36	37	1
24	25	2
26	26	1
95	96	1
155	157	1
125	126	1
77	77	1
16	16	2
36	36	4
133	140	1
68	70	2
41	48	1
145	146	1
73	74	2
52	53	1
66	71	1
128	128	2
29	35	1
68	79	1
99	99	1
130	130	2
108	109	2
61	61	1
11	21	1
23	23	4
75	87	1
155	155	1
31	36	1
37	154	1
138	157	1
38	38	1
149	155	1
38	39	1
112	128	1
114	114	1
128	131	1
9	10	2
86	86	1
49	50	1
135	137	1
106	110	1
158	158	3
119	124	1
125	140	2
85	101	1
127	127	1
4	4	2
132	137	2
77	117	1
70	70	1
132	132	1
100	100	1
18	18	1
129	130	1
122	122	1
123	148	1
7	11	1
28	37	1
143	144	1
99	102	1
145	152	1
83	85	1
73	82	1
49	49	1
28	38	1
7	7	1
140	147	1
71	71	2
54	55	1
21	21	1
134	140	1
106	151	1
69	70	1
130	134	1
28	51	1
4	5	1
135	135	1
112	112	1
11	12	1
61	70	1
45	50	1
25	26	1
15	15	1
120	120	1
92	93	1
6	6	1
156	157	1
133	133	1
80	80	1
152	152	1
125	125	1
141	158	1
