94	94	2
59	59	2
102	104	1
130	130	3
139	139	3
87	87	4
130	134	1
6	6	8
32	33	2
122	122	2
45	46	8
149	149	5
106	106	4
79	79	12
110	110	3
104	189	1
68	75	2
53	53	3
175	175	2
89	89	4
129	129	6
33	35	1
171	171	4
44	44	5
25	25	3
155	174	1
52	52	5
163	164	1
161	161	3
15	26	1
27	27	5
188	188	2
28	30	2
92	92	5
151	169	1
16	16	4
81	118	1
86	88	2
123	149	1
101	102	1
104	115	2
22	22	3
144	144	2
106	107	5
142	144	2
66	95	1
118	119	2
19	21	3
20	20	3
182	182	1
78	78	3
24	24	7
105	105	3
55	56	1
177	177	4
21	21	4
168	168	3
68	70	1
152	152	10
10	47	1
57	57	4
15	48	1
79	87	2
26	34	1
17	17	2
7	25	1
128	144	1
40	40	4
11	31	1
146	147	4
9	100	1
12	16	1
166	178	2
155	185	2
104	104	6
11	11	9
155	160	1
105	108	1
22	27	1
129	139	3
169	169	4
2	2	4
114	183	2
157	161	3
43	43	5
135	135	3
113	114	1
98	98	4
108	108	3
56	56	8
156	165	1
37	38	2
185	185	4
62	62	2
126	128	1
140	141	3
26	26	4
120	122	2
41	42	1
136	137	2
36	36	4
145	145	7
103	103	2
16	37	1
132	137	1
10	10	7
187	187	5
175	176	1
159	174	1
143	143	4
180	181	2
76	83	2
146	170	1
117	117	4
67	67	2
186	187	6
153	153	5
158	158	3
21	23	3
184	184	5
157	164	2
156	177	2
55	57	2
72	72	2
32	32	4
65	66	1
3	3	4
80	80	6
147	147	1
119	139	1
46	47	2
87	90	1
84	84	4
79	80	2
31	32	1
0	1	3
101	101	2
95	96	3
39	68	1
29	32	1
12	28	1
148	172	3
111	111	4
109	109	3
88	89	1
60	65	1
86	86	1
22	23	2
82	82	4
158	175	2
73	74	1
53	54	2
90	90	4
188	190	1
96	99	1
113	139	2
16	18	1
92	94	3
37	46	1
37	86	1
112	112	4
173	173	2
114	116	2
28	28	5
154	155	2
185	186	1
103	106	2
4	4	5
155	177	1
87	88	3
45	45	3
13	14	3
114	114	1
71	71	4
100	100	5
164	164	6
120	120	3
48	48	9
102	102	1
189	190	1
178	178	5
97	124	1
151	151	6
156	156	4
39	39	3
152	157	1
23	45	1
162	163	3
96	96	3
170	170	4
76	76	6
137	137	3
33	36	2
118	118	2
178	181	1
9	10	1
120	140	1
128	159	1
86	89	3
125	158	1
7	16	1
23	23	5
13	16	1
137	138	3
121	130	1
27	33	1
0	0	5
95	111	1
19	23	1
18	18	3
7	7	3
77	77	2
33	43	1
172	180	1
147	150	1
63	87	1
38	38	3
140	140	2
109	127	1
79	110	1
30	30	1
64	65	1
55	127	2
154	154	2
141	141	3
8	8	2
83	83	2
39	40	1
30	34	1
89	120	1
31	44	1
56	57	1
112	113	2
118	125	1
3	152	1
123	164	1
174	175	1
41	41	2
71	113	2
19	19	3
134	137	1
35	35	1
133	133	2
5	5	4
33	34	4
151	152	4
159	159	1
69	69	1
171	173	2
48	87	1
125	125	3
176	182	1
2	39	1
122	154	1
46	46	5
13	13	2
134	136	1
68	68	1
70	110	1
14	14	4
74	74	5
91	93	1
106	144	1
79	84	2
97	97	4
75	76	3
181	181	6
133	137	1
124	124	1
180	180	4
164	175	1
97	98	3
99	128	1
24	102	1
19	28	1
15	15	8
43	44	1
166	166	3
41	48	1
179	179	4
1	1	3
134	147	1
174	174	6
38	48	2
97	112	1
93	100	1
113	113	2
138	138	4
12	13	1
99	99	2
111	140	1
183	185	1
67	73	1
183	183	3
30	31	1
40	42	1
17	124	1
31	37	1
28	29	2
115	116	1
58	59	2
55	55	3
167	167	2
186	186	6
159	177	1
190	190	2
19	35	1
74	93	1
121	122	1
40	41	1
130	135	1
29	29	2
6	39	2
170	172	2
84	85	1
152	164	1
88	94	1
63	63	3
172	179	1
3	82	1
136	136	4
85	85	5
131	131	3
134	134	1
167	179	1
13	70	2
76	122	1
73	73	3
171	172	3
96	98	1
148	148	1
36	47	1
33	33	2
7	9	1
27	30	1
54	54	2
27	32	1
61	63	1
81	82	1
1	2	1
56	83	1
61	66	2
119	122	1
133	139	2
22	28	1
169	173	1
28	34	1
19	22	1
130	131	1
8	145	2
91	94	2
109	153	1
20	43	1
101	113	1
107	107	2
127	130	1
129	152	1
147	149	1
151	165	1
88	88	2
141	164	1
148	151	1
166	167	1
165	165	1
41	78	1
89	103	1
64	139	1
29	44	1
62	63	1
26	48	1
10	27	1
160	160	2
23	27	1
167	168	1
79	82	1
12	14	1
14	42	1
46	54	1
179	180	1
81	81	2
57	75	1
14	37	1
1	75	1
85	86	2
58	58	2
128	129	1
53	57	1
81	142	1
146	146	2
132	134	1
149	150	3
31	31	1
179	183	1
28	45	1
24	25	1
78	79	1
32	35	1
166	168	1
65	65	4
152	153	1
99	111	1
157	159	1
57	58	1
176	177	1
171	178	1
12	22	1
95	95	1
146	178	1
144	145	1
61	61	3
139	141	1
131	140	1
150	173	1
75	80	1
123	123	2
117	118	2
143	175	1
55	103	2
150	150	1
12	27	1
2	151	1
38	39	1
121	128	1
63	64	1
2	85	1
44	46	1
153	160	1
156	157	1
128	128	1
150	151	1
42	42	2
2	78	1
170	171	1
76	82	1
91	91	1
151	173	1
127	127	2
121	121	2
115	115	1
118	164	1
172	173	1
18	40	1
142	142	1
65	112	1
117	138	1
23	24	1
169	170	1
14	15	1
40	86	1
148	187	2
116	118	1
189	189	1
64	64	1
119	119	1
40	54	1
20	22	1
33	54	1
173	189	1
131	132	1
24	26	1
78	81	2
151	174	1
47	123	1
1	140	1
124	125	1
171	188	1
110	111	1
20	21	1
66	66	1
19	93	1
20	35	1
162	182	1
18	60	1
86	116	1
91	107	1
114	117	1
89	111	1
165	169	1
12	12	1
158	182	1
120	121	1
54	57	1
138	139	1
182	183	1
3	71	1
10	15	1
110	112	1
67	74	1
120	174	1
158	163	1
60	66	1
104	106	1
62	65	1
30	33	1
135	139	1
19	20	1
70	87	1
80	146	1
81	123	1
29	30	1
160	180	1
20	178	1
37	37	1
