31	31	4
13	13	4
70	70	2
82	82	4
69	69	3
73	73	4
115	115	3
59	59	4
43	43	4
72	72	2
55	60	1
20	20	3
9	9	4
71	71	4
97	97	1
93	93	3
49	49	2
125	125	3
79	79	3
98	98	3
74	80	2
52	53	3
11	11	4
0	1	2
123	123	3
80	80	3
17	17	2
5	22	1
2	2	2
114	115	1
27	27	4
16	16	5
23	24	1
54	87	1
126	126	1
98	102	1
118	118	1
92	93	1
28	35	1
120	120	1
58	59	1
91	106	1
50	50	2
11	12	1
10	10	1
48	48	1
110	115	2
71	72	1
34	34	2
66	66	3
54	62	1
78	80	1
63	82	1
1	2	1
72	73	3
36	36	2
50	76	1
32	35	2
44	44	2
60	61	1
91	91	2
86	86	1
115	127	1
108	108	4
33	34	2
4	4	4
82	83	1
131	131	2
105	106	1
1	3	1
77	77	3
61	61	3
0	0	1
135	135	1
111	111	2
104	104	1
8	9	1
95	95	1
125	127	2
53	53	3
127	129	1
60	60	2
94	96	1
20	21	2
2	3	1
85	85	1
81	87	1
30	30	2
44	45	1
14	14	1
33	33	4
12	12	3
22	23	1
30	101	1
71	91	1
14	15	1
55	63	1
7	7	1
90	91	1
8	8	2
63	63	3
68	69	2
11	35	1
51	51	1
5	24	1
79	88	1
67	67	2
35	35	3
132	132	1
75	79	1
76	76	1
74	75	1
74	74	1
19	63	1
88	88	1
101	101	1
10	16	1
118	125	1
16	23	1
29	29	1
6	8	1
106	112	1
43	45	1
28	29	1
120	121	1
118	130	1
82	88	1
121	121	2
7	11	1
70	88	1
66	67	1
114	114	1
18	20	1
22	22	1
56	63	1
32	32	1
84	85	1
105	105	2
70	80	1
3	79	1
80	114	1
58	58	3
38	38	1
73	126	1
21	22	1
68	85	1
55	55	1
17	46	1
6	105	1
5	5	1
134	134	1
68	68	1
112	113	2
15	15	1
103	135	1
119	121	1
3	99	1
65	65	3
4	5	1
111	112	2
50	55	1
54	54	1
52	52	2
87	87	1
133	134	1
61	62	2
1	1	1
24	25	3
86	88	1
127	128	1
1	4	1
13	100	1
30	33	1
99	99	1
128	129	1
6	6	3
122	122	1
9	16	1
53	84	1
37	37	1
126	130	1
119	119	1
26	26	2
72	80	1
35	43	1
98	108	1
55	84	1
83	83	1
73	80	1
0	3	1
78	78	1
64	69	1
45	45	1
73	74	1
70	71	1
124	124	1
