100	128	2
41	41	6
96	96	3
91	91	7
47	47	4
86	103	1
38	38	2
64	64	2
87	94	2
105	105	2
111	112	3
135	135	3
40	57	1
122	122	2
110	110	4
58	58	3
65	65	4
33	33	3
102	102	3
82	82	3
136	137	2
128	129	2
4	4	2
117	139	2
5	5	5
136	138	2
119	123	1
144	144	3
25	42	1
34	35	2
99	129	1
117	117	1
42	43	2
110	111	3
17	25	1
39	39	3
71	71	2
38	40	1
27	27	3
74	94	1
3	46	1
49	50	2
51	51	2
116	116	6
131	131	1
99	144	1
36	36	2
13	13	2
89	89	1
30	30	4
26	26	1
126	126	4
90	95	1
137	138	1
77	77	1
28	72	1
103	103	3
73	73	1
69	100	1
67	67	2
15	23	1
23	26	1
63	63	3
19	19	5
20	20	1
6	17	1
87	87	3
57	57	1
3	38	1
108	109	2
97	129	1
0	13	1
37	50	1
68	69	1
41	117	1
54	56	1
14	16	2
91	93	1
142	143	2
134	142	1
99	101	1
25	25	1
72	72	1
8	28	1
129	130	1
104	139	1
24	24	2
70	70	1
123	123	1
125	125	4
143	143	2
94	94	3
92	93	1
134	134	4
0	0	1
29	29	5
138	139	2
42	42	1
50	52	2
53	53	1
13	56	1
28	28	2
60	62	2
104	105	1
50	55	1
99	99	2
85	87	1
14	14	2
111	111	3
49	49	2
37	40	1
109	109	3
62	62	2
61	61	1
113	113	1
115	115	1
53	55	1
63	64	4
111	117	1
96	128	1
116	117	3
91	92	2
107	110	1
75	75	1
17	26	1
37	37	3
119	124	1
0	21	1
2	6	2
124	124	2
109	110	1
84	117	1
74	75	1
117	118	2
108	108	2
21	21	2
60	60	1
78	78	2
25	26	2
23	25	1
88	88	2
35	35	1
75	76	1
16	52	1
31	31	1
136	139	2
6	6	2
142	142	4
0	2	1
146	146	1
96	98	1
72	84	2
50	56	1
136	136	2
133	133	1
93	96	1
142	144	2
130	141	1
69	84	2
139	140	1
22	22	2
132	134	4
58	122	1
73	88	1
69	69	1
58	121	1
71	72	2
121	121	1
6	20	1
133	135	1
43	43	2
52	57	2
82	105	1
112	112	1
133	134	1
74	74	2
96	110	1
32	32	1
134	141	2
91	94	2
2	2	3
61	62	2
128	128	2
8	25	1
11	11	1
18	18	1
15	15	1
137	137	2
30	38	1
17	17	1
8	8	1
76	88	1
95	114	1
3	4	1
88	135	2
141	143	1
27	30	1
54	69	1
47	48	1
20	21	1
145	145	2
60	63	1
83	83	2
98	99	1
103	120	1
21	41	1
117	130	1
101	101	2
62	98	1
107	140	1
123	124	1
55	55	2
32	124	1
129	129	1
90	90	1
105	117	1
92	92	1
128	141	1
93	93	1
145	146	1
29	73	1
48	72	1
42	99	1
141	141	1
47	64	1
48	67	1
66	66	1
23	23	1
64	65	1
62	63	1
90	91	1
114	114	1
120	120	1
80	80	1
13	14	1
84	86	1
112	132	1
34	36	1
52	58	1
