27	27	11
29	29	7
142	142	3
25	25	7
130	142	1
73	116	1
83	83	5
34	65	3
69	69	5
0	91	1
68	68	5
5	5	6
110	113	1
123	141	1
75	75	7
77	77	2
135	135	2
52	88	2
42	42	2
107	108	1
115	116	1
94	94	5
72	75	1
19	19	5
95	95	4
38	49	2
83	108	1
84	84	4
66	66	3
128	128	2
76	76	5
42	67	1
60	60	4
56	56	1
125	126	2
59	63	1
106	107	2
135	136	4
34	34	4
78	79	6
27	81	1
53	55	5
139	139	5
22	22	4
51	51	2
52	86	2
48	48	4
34	35	2
67	102	1
78	78	3
102	102	5
120	121	1
70	72	1
136	136	4
30	42	1
133	133	6
108	108	4
35	35	3
134	139	2
17	17	5
91	92	1
52	52	4
96	96	4
97	97	3
74	92	1
32	32	5
81	93	1
123	123	3
49	68	2
14	14	5
35	43	1
82	85	1
38	62	1
68	69	2
145	145	2
68	85	1
79	81	2
99	99	4
39	41	2
87	88	3
105	140	1
97	98	1
38	38	2
58	58	5
6	6	3
3	4	4
38	42	2
31	31	2
126	127	2
59	60	7
96	100	1
74	80	2
122	122	6
83	127	1
90	90	4
49	52	1
36	36	10
113	113	3
74	74	5
8	8	5
18	18	4
77	78	2
50	50	4
30	30	1
1	1	2
16	17	1
100	100	4
112	134	1
11	11	9
101	101	2
146	146	3
71	110	2
55	88	1
70	70	7
22	23	2
141	142	1
120	120	5
139	140	1
140	140	7
112	138	4
37	38	1
9	9	1
49	50	1
108	110	2
99	101	2
102	103	1
30	38	2
124	124	5
62	62	6
88	89	1
92	92	3
47	47	3
3	12	1
137	137	1
110	135	1
28	28	4
58	59	3
89	90	2
110	117	1
81	81	3
62	71	1
84	85	1
31	32	2
119	119	3
103	124	2
28	103	2
72	72	3
112	112	3
82	82	3
38	61	2
22	40	2
65	65	4
23	39	1
110	110	3
49	49	3
138	138	5
68	93	1
108	109	1
26	26	7
115	115	3
32	47	2
81	107	1
69	91	1
100	101	1
108	133	1
114	114	3
98	130	2
2	2	3
86	86	3
13	15	1
139	141	2
16	18	1
29	58	1
123	126	1
1	9	1
144	144	2
128	129	3
131	139	1
6	8	1
40	40	1
41	41	2
96	108	2
21	22	1
67	110	1
37	43	3
13	14	2
12	13	3
81	95	2
32	33	2
76	79	1
59	59	1
131	131	2
121	123	1
116	117	1
105	106	1
94	140	2
107	107	4
75	83	1
121	121	2
126	141	1
97	129	1
97	123	1
87	87	3
59	61	1
98	129	1
85	133	1
93	94	2
15	15	2
23	23	2
48	101	1
75	80	1
69	70	1
0	39	1
141	141	4
72	73	1
132	132	2
53	106	1
26	27	3
79	80	1
109	110	3
56	88	1
26	28	1
16	16	3
117	118	1
129	134	1
12	12	1
137	139	1
111	132	1
117	132	1
99	100	1
96	97	2
54	55	1
125	145	1
57	58	2
129	129	3
107	145	1
52	62	1
111	111	3
3	5	3
17	18	1
113	115	1
67	68	1
6	88	1
3	105	1
74	103	1
34	36	1
68	103	1
34	47	2
72	82	1
105	105	3
83	85	2
57	57	6
28	75	1
2	3	1
127	127	3
130	130	2
20	20	3
88	88	3
106	106	1
76	77	2
113	118	1
93	103	1
12	14	1
67	99	2
93	93	1
126	129	3
50	105	1
52	64	1
98	99	1
0	95	1
54	54	5
37	37	3
79	79	2
65	66	2
38	43	1
118	119	3
14	16	2
134	134	1
23	25	1
103	103	2
33	33	1
35	36	1
67	67	3
64	64	3
1	6	1
61	61	1
34	130	2
129	130	2
13	13	1
132	133	1
57	68	1
116	116	2
37	42	1
71	72	3
59	62	1
56	140	2
37	58	1
85	85	3
109	112	1
58	97	1
6	17	1
5	105	2
38	41	1
5	6	3
127	128	1
32	48	1
84	89	1
8	9	1
97	122	1
66	71	1
103	105	1
124	125	1
93	131	1
34	50	1
125	125	1
118	136	1
73	141	1
132	134	2
76	85	1
121	124	1
119	135	1
9	10	1
73	73	2
89	89	3
68	100	2
74	86	1
18	31	1
65	121	1
89	136	1
98	101	1
110	114	1
24	24	4
95	102	1
33	38	1
120	133	1
80	80	1
114	115	2
21	57	1
68	87	1
55	56	2
10	10	1
42	58	1
114	116	1
134	135	2
29	30	1
134	138	1
73	75	2
11	19	1
17	30	1
50	52	1
0	0	3
96	98	1
4	4	1
135	139	1
112	113	1
80	90	1
104	104	1
8	61	1
94	124	1
53	53	1
95	97	1
107	139	1
71	71	2
133	135	1
82	86	1
30	31	1
36	39	1
104	107	1
29	31	1
23	24	1
98	98	1
86	87	1
110	133	1
2	6	1
117	128	1
123	124	1
108	125	1
137	138	1
70	88	1
104	105	1
43	47	1
51	89	1
14	15	1
80	94	1
108	134	1
3	6	1
30	37	1
53	54	1
60	89	1
76	80	1
16	34	1
54	66	2
42	43	1
38	47	1
70	90	1
127	137	1
91	93	1
81	102	1
144	145	1
31	47	1
69	83	1
105	112	1
93	135	1
73	83	1
107	133	1
