19	20	3
106	124	1
15	16	2
116	116	2
2	26	1
56	56	8
113	113	4
2	2	3
25	96	1
80	80	7
118	118	2
119	119	4
98	100	1
8	8	2
26	26	3
8	9	1
95	95	3
41	41	4
107	107	5
43	43	2
82	82	1
88	89	2
57	57	7
65	65	3
122	122	6
108	108	7
114	114	5
23	23	1
33	96	1
46	47	3
97	98	1
47	47	5
95	96	2
105	116	1
105	106	3
93	93	4
14	15	3
51	51	4
110	110	5
112	112	4
25	26	3
67	67	5
84	86	2
63	63	2
3	3	3
4	4	1
92	92	10
56	57	2
66	66	3
111	111	5
25	25	5
103	103	1
14	14	2
29	29	3
76	76	7
39	39	2
65	66	3
102	103	8
49	49	9
30	30	2
110	111	1
132	132	2
68	68	6
11	11	3
51	54	1
56	95	1
32	33	2
42	44	1
50	51	4
130	132	1
95	98	1
129	130	2
118	132	1
87	87	2
58	63	1
96	96	7
121	121	9
32	52	1
115	115	3
62	62	2
104	104	3
99	100	1
115	116	6
28	28	4
133	133	4
71	71	2
99	125	1
75	83	1
117	130	1
97	97	9
102	102	6
48	48	3
19	22	1
126	126	4
30	32	1
84	84	3
125	125	10
124	127	1
76	77	2
91	114	1
44	45	1
61	62	1
52	52	9
23	53	1
81	81	2
120	120	4
117	117	4
90	91	2
123	123	2
99	99	1
113	115	2
47	48	2
75	77	1
49	72	1
49	54	1
53	54	3
45	92	1
109	110	2
113	131	1
117	119	1
67	68	1
94	98	1
38	105	1
55	55	1
12	14	1
31	31	3
76	101	1
4	5	1
1	1	2
17	20	1
57	58	1
5	5	2
86	104	2
77	77	1
58	64	1
22	22	3
88	88	2
80	104	2
83	83	2
126	128	4
116	117	1
80	81	2
128	129	1
53	53	3
28	33	1
126	127	1
41	42	1
46	46	2
131	131	3
44	44	3
98	128	1
6	6	2
97	99	1
3	24	1
42	42	4
53	123	1
48	111	1
60	60	3
113	133	2
40	40	2
80	118	1
64	82	1
3	110	1
7	7	3
59	59	1
60	61	2
76	79	2
73	74	1
34	34	1
105	105	6
101	101	2
18	18	1
16	18	1
41	45	1
81	84	3
81	83	1
91	92	1
78	78	2
2	3	1
82	85	2
95	99	1
0	0	4
54	71	2
89	89	3
104	105	2
109	109	4
75	75	1
33	34	1
113	114	2
46	70	1
22	23	2
100	100	5
70	70	4
19	19	2
72	72	1
79	81	2
73	73	2
21	22	1
71	92	2
78	99	1
47	64	2
17	46	1
17	17	1
3	51	1
13	13	2
125	128	1
45	45	4
85	86	1
95	97	1
127	127	2
125	127	1
54	118	1
102	129	1
73	75	1
45	69	1
58	58	4
32	88	1
98	98	2
25	27	1
86	103	1
48	69	1
22	40	1
54	55	1
39	40	2
91	91	2
50	50	3
92	93	1
31	70	1
86	86	1
72	74	1
93	94	1
48	49	1
12	12	3
32	34	1
27	27	2
26	41	1
55	56	1
61	61	1
45	73	1
6	130	1
47	119	1
11	104	1
74	74	1
13	28	1
23	24	2
26	29	1
101	103	1
9	9	1
72	76	1
80	82	3
30	127	1
29	77	1
108	112	1
51	55	2
87	88	1
62	63	1
32	32	1
77	78	1
105	113	1
92	132	1
62	75	1
59	62	1
54	54	2
12	13	1
10	10	1
50	111	1
1	110	1
85	85	1
107	110	1
98	101	1
0	1	1
84	101	1
85	88	1
49	56	1
18	20	1
40	41	1
71	72	1
117	118	1
24	24	1
94	117	1
64	64	1
93	105	1
47	110	1
123	124	1
127	128	1
17	18	1
122	123	1
11	51	1
