25	25	8
29	29	5
18	19	2
13	13	10
41	41	3
11	11	9
34	34	5
3	3	15
22	22	12
43	43	5
32	32	8
25	26	3
23	24	2
65	65	6
10	10	9
28	28	8
0	4	1
12	12	5
74	74	4
31	32	1
24	24	12
8	13	1
18	18	2
20	32	1
0	1	1
41	42	3
50	50	6
68	68	6
20	20	5
33	33	11
57	57	5
73	73	9
4	6	1
2	2	9
30	30	6
30	35	3
37	38	1
26	26	6
0	2	1
38	38	2
65	66	2
69	70	2
46	46	8
6	6	8
77	77	5
48	48	5
10	11	6
1	63	1
13	22	1
39	39	6
22	23	7
35	39	2
69	69	4
36	36	9
35	35	12
4	5	7
5	5	11
66	67	2
59	59	4
45	45	8
23	23	7
60	60	1
63	64	1
19	19	6
49	49	1
44	44	5
12	20	1
42	43	2
31	37	1
3	4	4
48	49	1
7	7	9
1	47	1
12	13	2
72	72	3
76	76	6
0	6	1
56	56	3
24	25	5
9	9	7
47	54	2
44	74	1
1	1	9
27	27	6
68	72	1
57	59	1
4	4	9
37	37	6
27	28	2
19	24	1
71	71	6
67	67	4
15	15	1
44	45	1
56	57	3
0	0	12
45	46	1
8	8	8
49	58	1
5	7	1
34	36	2
30	31	6
53	53	4
75	75	3
39	58	1
62	64	2
54	60	1
52	52	6
6	62	1
34	35	4
49	50	2
64	64	2
10	12	1
31	31	7
35	36	1
41	50	1
38	41	1
60	64	1
48	52	1
51	51	5
40	40	4
61	61	4
21	21	7
76	77	1
70	71	2
63	63	3
39	43	1
23	30	1
5	6	3
1	34	1
75	76	4
26	27	3
70	72	1
74	75	3
24	40	1
25	31	1
10	75	1
48	51	1
5	67	1
71	72	2
38	39	1
41	61	1
30	32	1
14	14	2
34	73	1
70	70	1
3	10	1
11	12	1
12	29	1
53	54	1
55	55	4
8	10	2
30	67	2
3	63	2
21	46	1
24	26	1
1	9	1
67	68	2
6	24	1
4	24	1
13	35	2
62	62	1
66	66	1
61	63	1
42	42	2
1	71	1
50	51	1
53	56	1
52	54	2
9	10	1
35	38	1
3	8	1
39	40	3
58	58	3
47	47	2
36	37	4
25	29	2
23	73	1
21	22	3
54	54	1
58	68	1
33	34	1
19	23	1
52	57	1
7	8	3
39	75	1
38	61	2
24	27	1
1	2	2
44	46	1
11	27	1
8	9	2
12	54	1
51	52	1
72	73	1
32	34	1
46	52	1
33	49	1
40	42	1
35	37	1
9	12	1
2	23	1
36	38	1
1	42	1
45	73	1
9	24	1
