15	15	2
109	110	3
127	130	2
10	10	7
112	112	1
47	67	1
41	41	6
106	107	2
35	35	3
52	52	5
118	119	1
156	156	1
73	97	2
2	22	1
113	113	1
33	33	4
164	165	2
0	12	3
21	21	2
25	25	5
26	27	1
0	0	8
103	104	3
158	158	4
63	76	1
157	157	4
6	16	1
122	123	1
91	91	2
149	150	2
25	26	1
138	138	4
6	6	3
94	95	1
133	133	2
24	24	4
20	21	2
159	159	4
160	160	3
165	165	2
2	3	1
123	124	2
168	168	5
14	15	1
47	49	2
46	46	3
126	126	2
125	125	3
7	7	1
109	109	7
14	14	4
86	112	1
167	167	3
42	42	8
39	39	4
151	170	1
42	43	1
161	161	3
73	119	2
140	144	1
49	49	4
63	63	3
43	119	1
34	34	3
44	44	4
43	43	3
36	36	5
71	89	1
25	167	1
50	66	2
17	161	1
136	136	4
123	126	1
140	140	2
22	53	2
136	137	1
74	74	1
114	116	1
20	23	1
118	118	3
0	3	2
159	160	1
5	5	3
51	52	2
57	67	1
83	83	3
89	89	4
54	54	2
8	8	3
10	12	1
27	28	1
76	142	1
40	40	3
135	136	1
45	45	3
53	53	3
7	9	1
62	74	1
18	18	3
139	140	1
151	151	3
150	150	6
11	11	2
6	17	2
11	12	1
1	1	2
144	145	2
149	149	4
65	74	1
20	20	2
7	69	1
86	86	1
118	134	1
141	141	1
44	45	1
147	147	3
28	28	3
79	79	1
69	69	2
138	140	1
150	151	1
149	158	2
66	72	1
151	152	1
97	97	2
38	148	2
170	170	3
23	23	3
107	107	1
11	17	1
39	40	3
143	143	1
77	77	3
13	14	2
80	83	1
65	103	1
168	169	2
89	135	1
23	25	1
131	131	2
3	3	3
2	2	1
91	99	1
157	167	1
154	154	3
10	11	1
102	102	1
93	94	4
4	7	1
115	115	3
38	38	5
45	73	1
155	156	1
50	51	2
147	148	2
146	146	3
100	103	1
73	73	3
129	143	1
162	163	1
152	154	1
82	82	1
134	134	2
137	137	8
39	105	1
47	48	1
22	22	3
38	39	1
111	111	2
122	125	1
148	166	1
33	37	1
121	121	1
17	149	1
110	112	1
163	163	1
19	153	1
127	127	4
25	42	1
12	12	2
97	99	3
104	105	1
69	75	2
131	152	1
147	150	1
121	128	1
163	164	1
136	166	1
90	90	3
89	90	2
5	49	1
139	166	1
49	50	1
161	164	2
162	162	1
145	145	1
87	87	4
80	80	1
93	93	1
152	152	3
66	67	1
141	143	1
27	27	3
101	104	1
106	106	1
67	67	1
126	170	1
108	109	1
55	83	1
76	79	1
100	100	1
112	127	1
146	147	1
79	80	1
169	170	2
115	133	1
13	15	1
163	165	1
156	157	1
13	13	3
64	64	1
5	6	2
37	37	3
167	168	2
105	105	1
124	125	1
56	57	1
108	108	1
116	125	1
116	116	1
66	66	1
88	98	1
142	143	1
75	115	1
47	47	3
57	79	1
7	13	1
4	4	1
158	161	1
68	68	1
56	56	1
148	148	2
81	102	2
55	55	1
145	147	1
93	132	1
120	121	1
20	46	1
113	130	1
26	26	3
112	113	1
76	76	1
36	42	1
166	166	1
134	168	1
9	9	1
8	157	1
138	159	1
144	144	1
129	129	2
153	167	1
90	91	1
3	170	1
132	147	1
38	45	1
169	169	1
84	85	1
35	37	1
132	132	2
18	53	1
73	116	1
96	96	1
94	112	1
19	20	1
95	95	1
128	128	1
36	37	1
87	91	1
51	55	1
119	120	1
8	47	1
117	118	1
92	92	1
138	139	1
119	119	1
52	53	1
147	149	1
76	77	1
85	85	1
144	166	1
54	75	1
86	115	1
135	135	1
