31	36	2
71	71	8
66	66	3
123	123	3
167	175	3
161	161	1
74	74	1
75	86	1
2	2	5
165	168	1
194	195	1
149	149	4
164	181	1
155	155	1
183	183	1
43	43	5
179	179	2
138	138	2
8	12	1
58	139	1
184	184	5
31	54	1
165	188	1
189	191	2
176	176	2
76	76	3
145	145	3
27	27	2
140	140	2
39	39	2
50	52	1
40	40	3
96	104	1
42	42	4
122	122	3
33	33	1
42	78	1
4	20	1
67	67	2
82	83	1
186	186	1
18	35	1
53	58	2
13	17	1
114	116	2
172	172	4
112	112	1
178	178	1
130	130	1
144	144	4
13	13	5
162	162	3
165	187	1
38	38	3
8	8	1
12	13	1
19	20	2
45	45	4
180	188	1
11	50	2
10	10	2
178	179	1
129	196	2
197	197	1
78	79	2
59	59	1
35	35	4
130	143	2
53	57	1
72	72	1
130	131	1
173	173	4
34	34	4
98	99	1
101	118	1
25	26	2
96	143	1
9	10	1
14	25	1
79	79	3
116	118	1
52	52	2
119	119	4
166	166	3
45	46	3
130	134	1
153	153	1
108	149	1
82	86	1
167	167	3
125	127	1
163	177	1
53	53	3
169	169	3
187	187	2
32	33	1
20	20	3
44	44	3
182	182	1
1	1	4
21	27	2
94	95	1
151	152	3
25	32	2
154	154	2
65	112	2
46	46	2
168	168	5
124	124	3
149	170	2
118	118	3
11	46	1
141	141	2
159	159	2
83	86	1
73	73	2
67	87	2
193	194	1
50	50	2
26	55	1
69	86	1
23	23	1
63	63	1
36	36	4
5	6	2
98	98	3
185	185	5
128	196	3
23	27	1
181	181	2
174	181	2
26	26	2
66	81	1
187	188	1
191	192	1
171	171	4
116	116	3
44	73	1
170	184	1
190	192	1
21	22	1
111	111	5
15	15	1
176	177	1
155	169	1
139	139	4
60	134	1
144	159	1
16	16	4
81	81	2
137	147	1
137	137	1
22	27	2
105	113	1
190	190	2
155	158	1
176	188	1
110	110	5
22	22	2
54	54	3
136	136	1
135	136	2
31	57	1
126	167	1
18	18	1
47	47	5
0	4	1
129	129	1
2	79	1
174	175	2
13	47	1
24	35	1
34	37	1
114	114	1
141	172	1
31	31	4
8	37	1
124	132	1
143	144	1
55	66	1
65	65	1
147	147	1
64	65	1
24	27	1
104	104	4
30	30	2
106	106	1
72	73	3
71	77	1
126	126	3
143	146	1
162	163	1
44	45	1
155	156	2
150	150	1
80	85	2
48	48	5
157	157	2
188	189	1
30	31	1
178	182	1
101	104	1
142	178	1
53	138	1
189	192	2
142	142	2
126	160	1
94	111	1
127	132	1
157	168	1
29	29	1
48	51	1
154	190	1
28	28	3
125	126	1
177	177	2
101	101	2
9	16	1
113	113	1
103	109	1
149	178	1
161	164	1
28	29	1
166	167	1
26	35	2
103	103	1
95	98	1
128	128	1
18	21	1
27	28	1
41	41	1
102	102	1
108	109	1
144	145	1
36	75	1
74	79	1
102	103	1
60	156	1
19	19	1
182	189	1
63	66	1
74	81	1
186	187	1
59	60	2
56	56	2
49	49	2
30	35	1
23	32	1
148	148	4
127	127	2
175	176	1
3	3	1
86	90	1
37	37	2
108	144	1
60	62	1
109	109	2
0	29	1
194	194	1
25	25	1
84	84	1
99	100	1
19	30	1
121	123	1
170	170	2
37	62	1
69	75	1
137	194	1
145	175	1
31	34	1
145	146	1
12	17	1
42	71	1
24	24	2
107	107	1
113	114	1
0	2	1
147	159	1
105	105	1
95	102	1
180	180	1
39	41	1
106	145	1
74	144	1
14	14	2
145	162	1
99	99	1
89	89	1
191	191	1
13	69	1
21	190	1
56	59	1
77	77	1
133	149	1
185	186	1
58	58	2
40	73	1
154	174	1
39	79	1
152	152	1
7	7	1
96	96	2
78	78	2
192	192	1
143	186	1
69	69	1
153	154	1
161	176	1
4	4	2
12	12	1
172	193	1
51	51	1
114	115	1
120	120	1
134	134	1
10	12	1
165	173	1
85	85	1
39	43	1
155	184	1
79	80	1
34	36	1
149	193	1
158	158	1
2	3	1
131	135	1
45	65	1
41	130	1
140	151	1
189	189	1
156	157	1
134	135	1
134	149	1
8	15	1
140	157	1
82	82	1
18	19	1
13	38	1
134	150	1
93	99	1
56	66	1
3	21	1
146	146	1
175	175	1
