174	174	6
124	125	3
2	3	2
158	158	5
28	39	1
0	0	5
117	117	3
23	26	1
51	60	2
65	65	3
9	104	1
36	36	4
40	41	1
107	107	4
1	1	2
94	94	7
38	38	6
150	150	2
95	95	4
172	172	5
95	97	1
104	104	1
131	131	6
8	44	1
135	172	1
14	158	1
15	32	1
43	55	1
27	30	1
8	8	2
5	5	4
23	24	1
99	99	2
26	26	3
121	121	5
53	57	1
115	122	1
12	12	4
88	88	5
58	82	2
123	124	5
10	29	1
3	3	3
42	42	5
102	124	1
108	123	1
85	86	2
40	40	2
49	49	1
40	43	1
126	126	1
115	117	1
32	32	4
103	106	1
41	41	3
100	100	4
116	118	1
151	151	5
81	82	2
149	149	5
17	17	6
147	148	2
117	124	2
92	92	2
165	166	2
167	167	3
148	148	4
85	85	2
2	2	1
50	50	2
129	129	5
16	43	1
77	78	1
138	138	6
35	35	5
141	169	1
44	45	1
78	79	2
63	64	1
75	75	4
52	53	2
25	25	3
163	165	2
136	158	2
169	169	7
173	173	4
97	98	1
15	15	1
130	168	1
112	179	2
27	27	4
108	109	2
143	144	1
77	77	2
23	23	3
4	4	3
106	107	2
164	164	1
97	106	1
87	88	1
144	145	1
93	117	1
90	90	3
171	172	2
130	156	1
115	115	3
120	120	3
25	34	1
134	134	6
67	67	3
74	74	3
130	130	3
108	112	1
43	43	2
11	13	1
32	53	1
43	44	1
88	103	1
73	73	5
5	71	1
63	63	3
85	89	1
28	29	3
3	4	1
95	96	1
118	119	3
107	108	2
127	127	5
126	127	3
19	22	1
79	79	6
62	66	1
7	93	1
37	37	3
44	44	6
155	155	3
123	123	3
58	83	1
41	42	3
34	34	5
137	137	1
158	173	1
21	21	1
150	151	2
38	40	1
89	89	2
102	130	1
88	137	1
89	147	1
5	14	1
18	62	2
36	37	2
103	103	2
111	111	3
109	128	1
10	13	1
168	168	5
169	173	2
96	97	4
109	143	1
155	156	1
55	59	1
94	95	1
109	110	3
93	93	5
161	161	5
174	175	3
21	160	1
39	41	2
58	58	3
17	33	1
149	150	4
120	121	3
117	119	1
28	28	3
122	122	2
15	25	1
80	81	4
169	170	1
145	167	1
152	153	2
84	85	2
54	54	3
98	99	3
84	87	1
157	157	4
146	146	5
103	115	1
38	39	2
80	95	1
70	70	1
82	82	3
36	39	1
119	120	2
153	153	5
159	160	1
154	155	2
150	152	1
154	173	1
7	7	3
164	168	1
151	152	1
73	74	1
160	163	2
101	101	4
145	145	4
88	105	1
170	171	1
35	44	1
143	145	3
112	112	2
62	62	2
65	66	1
130	160	1
55	56	1
30	30	2
87	87	4
81	87	1
83	109	1
141	154	1
59	60	1
111	112	2
66	66	7
25	27	1
156	156	3
55	55	2
171	173	2
72	72	4
165	165	5
140	140	2
45	45	1
156	161	1
71	75	1
80	80	3
91	91	3
75	76	1
121	122	2
43	99	1
18	19	3
11	11	4
13	22	2
54	55	1
68	68	1
76	77	2
52	56	1
152	160	1
57	57	3
134	179	1
162	162	2
113	113	5
148	173	1
9	9	2
14	14	2
129	156	1
84	93	1
33	33	3
128	129	1
108	126	1
81	98	1
160	160	3
0	6	2
109	109	3
18	18	3
101	102	2
118	118	3
119	121	1
166	168	1
115	127	1
52	52	3
60	60	2
96	96	2
95	102	1
171	171	3
110	159	1
163	164	2
101	103	1
35	57	1
62	63	1
104	107	2
8	9	3
96	117	1
148	165	1
50	51	1
89	90	2
51	51	1
86	88	1
110	111	1
63	123	2
179	179	3
21	23	3
136	136	1
34	36	1
146	147	2
150	153	1
89	131	1
31	31	4
125	128	1
144	144	2
133	133	2
172	174	1
13	37	1
127	130	3
13	13	2
175	175	2
21	25	1
79	80	2
71	72	1
15	40	1
82	96	2
56	107	1
100	114	1
100	101	2
6	8	1
86	86	1
157	168	1
22	22	2
61	61	1
128	128	5
99	101	1
22	23	1
120	129	1
104	105	2
132	132	2
15	38	1
176	176	2
83	83	2
143	143	3
5	19	1
148	149	1
113	115	1
21	30	1
112	131	1
0	5	1
124	163	1
149	153	1
78	78	3
19	19	4
74	75	1
106	106	3
172	173	1
63	92	1
121	161	1
64	64	2
108	108	3
16	17	1
105	105	2
125	125	2
146	148	1
139	139	2
116	116	1
29	29	2
31	32	3
24	24	1
27	101	1
142	142	2
113	114	1
124	124	2
166	166	1
146	154	1
10	10	2
6	7	1
24	30	1
21	22	2
170	170	3
40	71	1
146	152	1
81	81	3
117	118	1
29	30	1
33	34	1
138	171	1
64	65	1
102	102	1
108	110	2
18	37	1
91	92	3
102	110	1
110	110	1
71	71	2
10	40	1
26	28	2
94	120	1
159	159	2
98	98	2
141	141	1
36	41	1
6	6	2
168	169	3
1	6	2
97	97	1
152	152	1
162	168	1
102	127	1
11	20	1
56	56	1
109	111	2
167	170	1
5	6	1
53	54	1
82	84	1
142	143	1
50	59	1
59	180	1
112	114	2
15	124	1
49	62	1
140	169	1
156	157	1
157	158	1
87	94	1
49	50	2
121	145	1
99	158	1
133	154	1
3	6	1
141	143	1
154	154	1
110	118	1
60	61	1
84	91	1
22	38	1
134	136	1
160	162	1
56	104	1
134	135	1
13	45	1
114	114	1
79	150	1
153	154	1
72	73	1
1	2	2
163	163	1
143	160	1
75	77	1
131	154	1
13	44	1
39	39	1
132	144	1
119	119	1
147	147	1
99	116	1
175	176	1
44	52	1
8	16	1
118	121	1
165	170	1
2	4	1
