149	149	5
233	233	5
121	121	5
185	186	2
80	80	4
149	162	1
126	127	1
182	215	1
84	84	4
210	214	1
46	46	4
164	164	7
97	97	2
22	22	1
200	200	1
14	198	1
59	59	3
224	224	1
226	227	2
99	99	9
136	136	3
137	139	1
103	116	1
116	117	2
166	166	4
143	144	1
187	187	4
213	213	2
115	124	1
64	64	5
52	53	2
18	40	1
15	16	3
180	180	5
139	139	3
96	96	3
8	8	6
182	182	4
144	144	3
63	63	3
145	145	5
16	211	2
195	225	1
237	241	1
231	232	2
168	168	6
204	204	2
184	203	1
201	218	2
117	117	2
223	223	7
134	134	2
85	85	2
117	118	3
91	105	2
39	39	5
36	60	1
214	214	1
163	188	1
129	129	3
198	201	2
156	156	1
60	60	2
202	202	4
16	16	3
59	60	1
130	175	1
45	46	1
147	148	1
159	159	5
42	42	3
207	207	6
85	169	1
123	123	3
23	23	4
208	225	1
12	32	1
186	186	2
132	135	1
127	127	3
156	157	1
218	218	6
168	169	1
162	162	1
178	178	2
160	160	3
125	133	1
25	37	1
158	162	2
58	58	8
28	28	2
56	60	1
20	23	2
148	155	2
174	174	5
137	138	2
83	83	4
115	116	2
128	128	3
0	0	2
211	211	4
119	119	3
18	18	6
62	62	3
47	48	1
165	166	1
125	126	2
32	32	5
122	128	1
158	158	11
110	110	1
221	226	2
78	79	3
27	28	1
148	148	7
105	105	4
163	163	6
74	74	5
189	189	2
234	234	4
17	17	1
167	167	7
151	151	3
129	241	1
0	12	2
35	36	1
172	172	2
33	33	5
64	65	2
24	24	10
3	3	3
43	43	4
53	58	2
45	45	4
82	83	2
56	56	2
68	68	4
72	72	4
123	139	1
146	147	1
10	10	3
106	106	4
7	7	3
2	30	2
184	185	1
11	20	1
227	227	2
167	168	2
228	228	6
154	155	1
147	147	3
242	242	5
25	25	4
232	232	4
118	134	1
65	65	4
143	175	1
170	192	4
203	203	2
124	124	2
106	107	1
120	130	1
80	83	2
166	167	3
143	143	1
161	161	4
109	109	2
15	15	6
220	220	4
55	55	2
139	142	1
195	195	3
171	171	5
140	140	3
15	65	1
152	177	1
241	241	3
201	201	4
219	219	5
1	11	1
238	238	4
182	184	1
79	79	5
188	189	1
179	180	2
129	177	1
58	59	3
231	231	4
180	181	3
46	47	2
47	47	2
191	191	3
152	153	2
221	221	2
41	41	4
5	21	1
141	142	2
73	171	1
11	11	3
124	125	1
180	182	1
61	61	4
179	179	5
75	76	2
102	102	5
170	186	1
42	89	1
64	85	2
123	125	1
160	168	1
126	144	1
3	8	2
215	215	5
75	183	1
225	225	4
74	75	3
167	181	2
108	108	4
172	173	3
26	28	1
165	165	2
63	78	1
123	124	1
17	37	1
86	86	6
144	147	2
173	173	5
62	74	1
194	195	2
235	235	2
185	187	2
186	200	1
185	185	6
183	183	4
188	188	1
97	100	1
116	116	4
163	164	3
175	176	2
207	208	2
138	142	1
120	122	2
97	112	1
62	66	1
200	220	1
71	72	1
63	80	3
239	241	1
192	192	1
124	140	2
151	152	1
4	5	3
27	27	1
53	53	1
184	184	6
61	64	1
141	141	7
220	222	1
26	27	3
2	39	1
115	115	2
110	122	1
30	30	2
146	159	2
137	137	4
176	176	4
13	14	2
170	171	3
170	175	1
7	10	1
170	177	1
67	67	5
36	38	1
101	101	3
146	160	1
16	17	2
96	97	1
189	215	1
103	103	3
133	134	2
212	229	2
108	110	1
74	86	1
150	151	1
107	107	4
152	152	2
113	113	2
145	150	1
150	150	5
75	75	3
159	187	1
236	237	1
25	233	1
177	177	3
76	76	2
82	82	2
182	205	1
40	40	3
7	156	1
160	169	1
209	229	1
52	52	2
211	222	1
139	179	1
180	211	1
67	77	2
1	1	7
200	208	1
211	216	1
175	177	1
73	73	4
13	13	4
100	100	2
160	174	1
126	126	3
63	77	1
32	62	1
171	172	2
209	213	1
0	1	2
155	156	1
35	35	1
119	120	1
153	153	6
155	158	2
11	25	1
205	205	1
70	70	2
216	216	2
12	12	1
2	6	1
199	199	2
222	222	1
141	163	1
212	212	1
190	190	2
175	188	1
104	104	3
122	123	3
103	157	2
19	19	1
89	124	2
29	30	2
224	231	1
130	131	1
125	154	1
102	105	2
238	239	1
2	2	5
30	42	1
169	169	3
240	241	2
48	53	1
69	69	1
9	9	2
206	206	2
164	168	2
197	197	2
142	142	2
146	146	2
174	187	1
217	217	2
105	149	1
170	170	3
19	20	1
31	60	1
71	202	1
65	66	5
34	34	3
192	196	1
71	71	2
5	5	3
35	82	1
48	48	1
103	104	1
20	20	3
217	218	2
191	238	1
18	20	2
9	48	4
14	14	2
24	48	1
230	235	1
97	116	3
24	54	1
157	157	2
211	212	2
121	127	1
54	76	2
149	151	1
129	130	2
168	174	1
62	63	2
89	89	1
101	102	2
13	211	1
216	224	1
33	38	1
123	151	1
193	193	1
188	216	1
208	210	1
138	138	2
177	178	1
145	146	1
138	146	1
196	196	2
139	153	1
145	179	1
76	106	2
48	50	1
159	160	1
158	170	1
210	210	1
128	170	1
65	73	2
225	228	1
79	80	1
172	175	1
107	108	2
77	77	2
114	119	1
184	186	1
155	155	2
150	154	1
122	125	1
51	80	1
234	238	1
81	81	3
140	156	1
208	209	3
161	162	1
38	38	4
160	177	1
197	203	1
166	181	1
125	125	4
167	169	1
205	234	1
142	155	1
169	177	1
71	174	2
1	78	1
180	185	1
71	232	1
55	84	1
181	183	2
183	185	1
100	163	1
54	54	5
33	39	1
120	120	2
51	56	1
219	232	1
154	154	2
190	191	1
36	42	1
118	118	1
61	63	2
5	6	1
57	57	1
181	184	1
184	230	1
36	36	2
167	185	2
16	33	1
31	31	2
105	161	1
29	29	2
26	122	1
53	56	2
148	156	1
67	69	1
38	55	1
44	44	2
208	208	3
8	9	1
221	222	1
6	7	1
88	88	2
18	21	1
171	190	1
50	51	1
173	174	1
153	157	1
26	63	1
67	68	3
169	196	1
42	48	1
38	39	1
22	35	1
165	167	1
139	156	1
26	26	4
1	9	1
17	39	1
142	143	2
122	122	2
3	197	1
135	146	1
53	64	1
164	185	1
51	51	1
70	71	1
148	149	1
144	179	1
114	121	1
53	60	1
111	111	1
15	48	1
179	187	3
31	43	1
50	53	1
11	128	1
57	58	1
40	80	1
29	241	1
160	179	1
111	136	1
30	31	1
6	6	2
22	34	1
103	118	1
25	42	1
154	157	1
3	4	1
149	150	1
77	79	1
14	53	1
24	30	1
55	56	1
148	171	1
28	29	1
7	8	1
112	112	1
54	55	1
175	179	1
69	78	1
149	155	1
180	186	1
51	52	1
147	149	1
226	229	1
127	128	1
45	54	1
98	98	1
59	79	1
129	153	1
50	50	1
172	174	1
209	209	1
135	135	1
9	10	2
153	154	1
209	210	1
229	229	1
191	213	1
53	54	2
49	50	1
175	175	1
138	163	1
10	65	1
221	223	1
174	175	1
230	230	1
237	237	2
190	217	1
172	179	1
2	12	1
199	228	1
75	95	1
13	15	1
19	113	1
131	131	1
217	230	1
6	13	1
155	180	1
16	60	1
43	62	1
19	41	1
220	221	1
112	169	1
159	202	1
136	137	1
140	143	1
181	182	1
147	150	1
