135	135	5
126	126	9
110	110	13
36	36	10
16	17	2
72	72	4
95	96	4
4	4	10
113	113	10
85	85	7
101	101	8
82	85	2
97	97	6
18	18	5
100	116	1
34	34	7
103	104	2
100	102	1
137	137	6
74	74	8
121	121	14
126	127	1
2	2	5
127	127	4
17	17	6
134	134	13
140	140	6
100	100	8
103	106	1
76	78	1
114	115	2
71	71	7
102	103	5
123	123	4
78	78	6
119	120	8
112	112	11
13	13	5
118	118	9
133	133	26
3	3	4
37	37	8
16	16	2
72	73	1
28	28	1
107	114	1
10	10	3
96	96	7
32	32	5
38	38	5
104	104	2
107	107	5
79	79	4
102	102	2
106	106	2
5	8	1
122	122	7
104	105	2
8	10	1
35	35	9
111	112	3
107	110	2
116	116	8
19	19	5
77	77	5
0	0	4
91	91	2
111	111	9
81	81	10
132	134	1
133	134	5
105	105	5
8	8	4
71	90	1
97	128	1
95	95	8
27	27	4
20	20	2
5	5	2
33	34	2
112	113	3
118	119	2
103	103	3
129	129	9
4	5	2
115	115	5
35	36	2
132	133	2
80	80	5
130	130	9
86	103	1
33	33	3
125	126	1
107	108	3
1	1	4
9	9	7
75	75	5
71	73	1
76	76	3
106	107	2
81	82	3
117	117	7
86	86	4
87	87	5
98	127	1
139	139	5
75	76	2
116	117	2
8	9	1
113	114	2
101	107	2
136	136	8
101	102	4
8	18	1
89	89	2
132	135	1
92	92	3
131	131	4
82	82	2
93	93	6
7	7	7
94	94	6
131	133	2
89	90	1
107	109	3
12	12	5
37	96	1
73	73	6
120	121	4
0	1	1
79	81	1
120	120	4
71	93	1
27	32	1
117	119	2
15	15	2
124	124	9
119	119	2
0	7	1
109	110	2
6	6	3
85	86	2
81	85	1
127	130	3
109	109	7
77	78	3
36	37	1
88	89	1
118	120	2
114	114	3
108	108	4
74	82	1
88	88	4
83	83	5
93	132	1
94	95	2
138	138	5
14	14	4
1	2	3
95	99	1
87	88	1
99	100	2
121	122	1
103	123	1
117	118	2
128	128	4
111	123	1
120	122	2
9	12	1
99	99	5
81	103	1
26	26	1
132	132	6
97	98	1
80	84	1
98	98	1
19	20	1
37	38	2
38	97	1
115	116	3
110	115	1
9	18	1
73	74	1
76	77	1
14	15	1
102	116	1
134	135	2
89	126	1
84	85	1
102	117	2
86	111	1
125	125	2
2	3	1
7	8	1
130	131	2
129	130	1
100	101	1
123	132	1
109	120	1
10	11	1
128	130	1
105	106	1
83	84	1
90	90	1
5	7	1
11	11	2
11	12	2
131	132	2
128	129	2
104	106	1
110	111	1
72	89	1
84	121	1
16	20	1
91	94	1
12	16	1
137	138	2
136	138	1
131	134	1
115	126	1
16	18	1
70	71	1
94	98	1
131	135	1
9	110	1
112	122	1
136	137	1
110	112	1
127	137	1
