32	34	4
135	138	1
10	10	4
107	107	3
27	27	4
50	50	2
79	80	1
99	99	2
143	143	5
15	42	1
142	143	2
104	104	1
21	21	6
8	9	2
39	40	1
95	95	4
119	138	1
59	60	1
73	73	3
41	66	1
5	39	1
135	135	3
53	53	3
48	48	1
145	145	1
113	114	2
9	9	3
83	92	2
20	20	2
105	112	1
78	81	1
102	102	2
16	16	1
41	41	2
22	22	5
123	124	1
105	115	1
49	57	1
31	31	1
89	90	1
75	75	1
141	141	2
118	118	1
64	64	2
8	8	3
51	52	1
36	38	1
87	87	1
67	75	1
67	67	1
74	102	1
16	52	1
41	42	2
111	120	1
76	84	2
125	125	2
110	111	1
103	103	3
81	84	1
1	17	1
109	110	1
105	105	2
90	91	2
51	53	2
28	28	1
77	77	1
128	128	1
29	30	1
79	79	1
136	136	1
2	2	1
96	96	2
34	34	1
37	37	6
137	137	1
61	62	3
15	39	1
6	29	1
50	59	1
122	137	1
12	41	1
48	49	1
43	43	1
100	100	2
59	59	1
66	88	1
33	37	2
95	96	1
77	110	1
146	146	1
91	91	1
134	136	1
93	126	1
35	37	2
61	67	1
19	19	3
28	30	1
109	109	1
3	3	1
42	42	1
66	66	2
88	88	1
142	142	2
101	101	4
122	136	1
79	84	2
1	1	3
138	139	1
105	109	1
112	112	1
129	129	2
81	81	2
137	138	1
25	25	1
135	136	1
118	119	1
39	39	1
126	126	3
112	138	2
114	114	1
106	114	1
127	127	1
6	6	1
133	134	2
119	119	2
20	21	1
98	99	1
63	63	4
123	135	1
18	18	1
110	110	1
32	32	2
30	37	1
131	131	2
69	70	2
12	106	1
78	78	2
89	91	1
34	36	1
56	80	1
38	38	1
111	111	2
56	63	1
28	32	1
122	123	1
121	121	1
70	70	1
83	83	1
117	118	1
82	82	1
135	139	1
2	3	1
47	47	2
56	56	2
134	134	1
96	97	1
23	41	2
117	117	1
24	24	1
79	86	1
83	85	1
17	17	1
12	38	1
65	65	1
61	61	1
18	20	1
128	129	1
132	139	1
23	23	1
140	140	1
33	35	1
65	66	1
87	91	1
92	118	1
75	104	1
34	35	1
57	79	1
94	94	2
68	71	1
139	139	1
54	54	1
123	123	1
67	73	1
86	86	2
0	1	1
67	68	1
5	5	1
11	42	1
74	90	1
80	81	1
16	39	1
108	108	1
61	94	1
133	133	1
105	110	1
13	13	1
68	68	1
49	49	1
26	26	1
52	90	1
66	87	1
58	59	1
