39	40	3
33	33	4
16	18	1
79	80	2
140	140	5
141	141	9
7	22	1
132	151	1
65	65	4
139	139	10
168	168	7
142	146	2
129	129	10
40	42	1
148	149	3
15	15	7
12	88	1
145	146	5
165	165	7
34	34	8
28	28	3
26	26	9
16	17	4
6	118	1
6	6	4
90	90	6
107	107	3
124	127	1
141	145	1
50	51	7
38	99	1
78	78	2
166	167	1
153	153	6
150	152	1
119	149	1
27	27	5
119	119	5
28	34	2
120	120	6
96	102	1
48	48	7
105	119	3
51	51	7
106	106	7
101	101	5
46	121	1
137	139	1
120	121	4
42	42	7
162	162	3
165	166	2
85	96	1
125	125	1
137	163	1
95	95	2
36	36	5
157	160	2
21	42	1
41	100	1
106	140	1
55	56	3
142	142	9
19	19	4
71	72	1
37	57	1
107	108	2
113	113	4
10	158	3
127	129	1
20	24	1
137	141	1
129	138	2
140	155	1
135	135	7
105	105	3
125	130	3
49	51	1
157	158	2
36	38	1
81	81	5
52	52	7
112	112	7
136	136	7
137	146	1
93	93	2
50	139	1
143	143	5
133	133	6
71	73	1
109	110	5
147	148	4
13	16	1
94	127	1
13	13	6
41	41	5
10	10	11
2	2	7
6	39	1
123	123	9
111	136	1
100	100	7
46	48	3
70	70	4
6	43	1
114	165	1
149	150	4
12	143	1
5	5	3
79	97	1
40	40	11
49	49	8
91	109	1
82	88	1
117	118	4
81	82	4
144	167	2
158	158	6
151	153	1
8	8	8
38	38	7
4	4	9
144	147	3
67	69	1
116	116	7
25	25	7
101	122	1
66	66	3
86	86	9
126	126	6
127	128	1
100	116	1
67	67	2
158	159	6
35	36	1
80	89	1
12	13	3
47	47	4
39	39	5
126	127	2
77	77	2
143	144	3
12	12	2
37	37	6
34	36	1
96	127	1
4	5	3
74	75	3
72	72	6
43	43	7
145	149	1
13	20	1
0	0	3
85	85	9
150	151	3
63	63	3
11	150	1
139	152	1
15	81	1
161	163	2
131	131	5
20	21	4
155	161	1
54	57	1
127	135	2
91	91	5
86	106	2
15	16	1
22	67	1
115	156	1
150	150	9
159	159	6
7	7	6
129	130	1
146	146	4
66	68	1
110	136	1
38	39	1
62	62	3
122	129	1
54	54	7
123	124	1
160	160	12
117	117	10
42	73	1
53	53	7
39	48	1
121	121	3
52	53	4
164	164	6
42	53	1
145	145	9
65	68	2
12	19	1
2	4	1
151	151	6
92	97	1
114	162	1
118	118	3
102	103	2
124	124	5
47	67	1
78	81	3
80	80	7
100	161	1
68	80	1
133	153	1
44	45	6
85	86	1
155	156	2
5	6	2
111	112	2
119	144	1
88	98	1
82	83	1
118	120	1
132	153	1
132	132	2
134	134	6
135	136	4
20	43	1
23	24	2
147	147	4
136	160	1
154	154	7
39	119	1
151	152	1
137	137	4
87	124	1
68	68	6
20	20	5
95	96	2
19	20	1
138	138	5
130	130	6
91	92	3
159	164	1
121	123	2
151	158	1
55	83	1
110	169	1
19	24	1
111	111	2
38	41	1
127	132	1
114	115	1
53	55	1
87	120	1
76	76	3
133	134	3
47	105	1
138	150	2
169	169	6
146	151	1
34	35	2
132	152	1
17	17	5
42	43	2
64	69	1
144	146	1
22	22	6
56	83	1
113	114	2
137	140	1
163	164	1
14	14	3
108	108	3
116	122	1
62	102	2
74	74	5
20	56	1
24	24	10
45	52	1
163	169	1
170	170	3
142	144	1
53	89	1
39	73	1
93	95	1
43	44	3
102	137	1
74	82	1
50	50	4
75	75	3
35	35	8
116	117	1
44	44	9
24	25	5
46	53	1
89	89	2
127	145	1
79	81	3
149	149	7
142	143	5
101	121	1
155	160	1
23	23	7
166	166	4
13	18	1
161	161	10
92	93	2
162	163	5
111	157	1
54	55	1
36	41	1
116	131	2
63	68	1
9	9	9
75	78	2
106	107	1
127	127	4
147	167	1
0	21	1
88	88	7
113	132	1
128	128	3
128	162	1
18	26	1
18	18	5
98	100	1
104	104	1
69	70	1
14	119	1
125	126	2
7	44	1
158	167	1
83	83	4
87	156	1
90	91	1
103	103	4
159	160	1
111	115	1
37	38	1
73	74	2
58	58	1
16	51	1
122	122	3
110	112	1
140	142	1
117	125	1
6	49	2
90	94	1
164	166	2
37	43	1
143	149	1
88	89	3
73	73	2
87	93	1
89	90	1
5	7	2
143	170	3
112	157	1
91	93	2
97	114	1
155	155	9
72	82	2
105	106	2
130	131	1
135	137	1
115	120	1
7	9	1
99	99	1
143	157	2
92	94	1
7	10	1
97	98	2
131	151	1
122	128	1
45	45	4
14	15	5
77	79	1
89	115	1
115	115	4
76	99	2
84	86	1
102	104	1
86	93	1
15	150	2
36	37	1
84	88	1
21	24	1
97	97	3
143	154	1
92	96	2
138	139	1
90	107	1
41	84	1
114	114	10
64	93	1
149	169	1
98	136	1
139	143	1
77	128	2
47	49	1
46	46	5
152	152	2
39	57	1
11	11	4
99	112	1
109	109	2
57	57	1
101	103	3
154	169	1
128	130	2
35	39	1
100	123	1
96	101	1
153	154	2
90	93	1
16	16	2
98	98	5
154	155	2
148	161	1
151	166	1
142	163	3
155	158	1
121	122	1
119	125	1
161	166	3
19	21	1
152	153	2
69	69	1
48	49	3
139	140	3
7	24	1
19	23	2
68	70	1
122	123	3
156	165	1
0	56	1
7	8	4
78	79	3
25	83	1
44	58	1
3	3	8
108	138	1
112	116	1
80	91	1
116	119	1
27	83	1
91	95	1
110	123	1
126	136	1
148	166	1
2	3	1
91	103	1
103	128	1
11	143	1
18	19	3
64	65	1
74	76	2
79	146	1
66	67	1
149	167	1
20	23	1
13	148	1
142	145	1
157	157	6
39	46	1
133	168	1
115	142	1
123	134	2
45	51	1
4	157	1
136	137	1
143	147	1
160	163	1
52	119	1
104	105	1
3	7	1
7	49	2
87	96	1
135	158	1
140	141	3
49	50	4
76	91	1
9	162	2
148	155	1
3	25	2
40	69	1
48	56	1
18	46	1
105	114	2
86	91	1
108	109	1
9	20	1
13	54	1
12	15	1
126	147	1
146	148	1
125	128	1
141	156	2
135	147	1
62	63	1
115	116	5
47	53	1
114	118	1
80	81	1
48	98	1
119	121	1
138	140	1
164	167	1
141	166	1
110	110	4
17	43	1
16	19	1
21	21	1
144	156	1
81	83	1
108	131	1
12	16	1
70	87	1
136	139	1
5	11	1
89	101	1
22	23	1
154	165	1
128	129	1
99	100	2
3	27	1
91	115	1
0	44	1
6	7	2
137	138	2
141	142	1
105	117	1
115	117	1
44	46	1
48	50	2
82	82	3
17	18	4
75	92	1
132	133	1
25	26	1
87	87	2
159	165	1
154	166	1
108	116	1
4	42	1
26	52	1
8	9	2
90	135	1
7	119	1
1	1	2
84	84	1
88	125	1
64	64	5
95	112	1
133	149	1
20	22	1
77	78	1
66	70	1
110	117	1
105	107	1
28	35	1
17	20	1
112	120	1
76	77	2
97	130	1
4	43	1
63	88	1
90	96	1
74	77	1
1	46	1
92	123	1
45	46	1
10	14	1
162	165	1
119	120	1
11	19	1
133	157	1
70	84	1
142	148	1
146	147	1
112	113	1
53	54	1
15	26	1
56	56	2
101	102	1
98	101	1
113	147	1
149	170	1
38	108	1
76	78	1
91	102	1
5	41	1
168	170	1
97	122	1
86	87	2
156	156	1
13	26	1
40	84	1
162	164	1
163	163	1
133	142	1
0	1	1
144	144	2
144	148	1
47	48	1
16	50	1
44	161	1
79	82	1
105	143	1
123	129	1
155	157	1
107	143	1
21	22	1
93	94	2
12	104	1
70	91	1
58	67	1
134	135	1
106	139	1
72	81	1
10	13	1
10	21	1
152	154	1
147	164	1
77	80	1
121	146	1
160	161	1
9	41	1
11	15	1
3	151	1
3	43	1
3	15	1
64	67	1
123	138	1
2	46	1
127	137	1
97	100	1
