136	136	4
128	128	3
94	94	6
1	1	2
117	117	4
89	89	1
35	35	4
114	116	3
102	111	1
122	122	1
119	119	3
73	77	1
9	9	3
132	132	3
101	111	1
71	71	4
130	131	2
87	87	3
123	123	3
133	133	16
107	110	1
37	138	2
140	140	3
137	138	3
104	104	6
111	111	3
96	96	7
108	108	1
19	19	4
126	126	8
100	101	3
114	114	5
7	9	1
113	115	1
129	129	4
127	127	3
20	20	2
135	135	5
86	86	3
115	115	1
73	73	2
124	126	1
114	115	4
125	125	1
0	3	2
95	95	4
106	106	2
38	38	5
37	37	6
80	80	2
98	98	5
131	132	1
74	75	1
138	138	2
131	131	5
137	137	2
33	36	1
97	98	1
87	88	2
124	124	4
115	120	2
77	77	2
81	102	2
135	138	1
121	122	1
108	109	1
93	94	1
7	7	8
12	12	2
135	136	2
124	125	4
73	127	1
123	130	1
11	12	1
82	82	2
120	122	1
116	117	1
11	11	1
90	90	3
78	78	1
76	76	1
34	35	1
119	120	1
118	118	3
130	130	2
34	34	2
71	72	1
16	16	2
133	134	2
118	120	1
127	139	1
127	128	1
115	116	2
85	85	2
110	110	3
108	110	1
99	116	2
12	13	1
128	129	2
139	139	5
112	113	1
109	109	3
102	102	1
33	34	1
33	33	3
75	79	1
91	96	1
121	121	6
116	116	2
72	72	8
100	100	4
79	80	1
2	20	1
10	13	1
0	0	1
79	79	5
4	4	1
134	134	2
13	15	1
72	76	1
127	129	1
123	124	2
117	119	2
95	98	3
3	3	1
110	111	1
91	93	2
90	91	1
112	112	4
108	114	1
15	15	1
17	17	1
104	125	1
80	89	1
120	120	1
128	140	1
136	139	1
6	6	2
75	75	1
78	86	3
105	105	3
93	93	2
78	79	1
80	81	1
103	103	2
82	83	1
37	38	1
74	74	3
124	127	1
134	138	2
101	101	1
76	77	1
2	3	1
102	103	1
129	130	1
123	131	1
16	18	1
13	13	1
90	96	1
112	126	1
119	122	1
104	108	1
8	8	2
2	19	1
113	113	3
71	128	1
4	5	1
18	18	1
38	136	1
102	123	1
36	36	1
78	93	1
99	133	1
81	81	1
87	117	1
103	117	1
80	86	1
128	132	1
91	91	1
109	111	1
9	10	1
99	99	1
88	91	1
110	112	1
108	111	1
112	114	1
2	4	1
91	92	1
92	92	1
