116	116	8
106	107	1
8	8	5
123	123	3
36	37	1
120	120	8
128	128	10
127	127	4
96	96	8
71	72	6
100	100	5
114	116	1
138	138	8
109	110	4
87	88	1
137	137	6
117	118	2
95	96	3
86	88	1
38	38	4
117	117	7
133	133	17
82	82	2
140	140	6
34	35	1
122	122	5
104	105	2
7	9	1
90	92	1
102	102	8
109	117	2
125	125	6
33	131	2
37	37	8
104	104	5
120	122	2
134	134	8
34	34	8
130	130	15
86	122	2
15	15	2
14	15	1
115	115	5
18	19	2
108	110	1
136	136	5
12	14	1
135	136	2
98	98	8
73	73	2
118	118	6
126	126	7
72	128	1
108	108	6
36	36	4
14	14	5
110	110	10
96	116	1
5	5	2
93	128	1
79	79	6
87	87	4
71	71	3
130	131	3
77	77	5
80	81	3
15	20	1
1	1	2
102	139	1
72	72	2
139	139	4
93	93	4
16	16	3
71	74	3
101	116	2
81	83	1
75	76	1
82	83	1
101	101	6
120	121	2
6	10	1
132	133	4
132	132	7
111	111	3
107	140	2
130	136	1
84	84	1
3	3	2
123	124	1
110	111	3
74	74	7
101	124	1
81	82	3
104	111	1
80	86	1
105	106	1
88	103	1
113	113	6
95	95	10
134	135	4
89	102	1
18	18	2
4	4	3
125	126	7
118	119	1
5	7	1
91	91	2
86	87	1
92	93	1
114	115	1
20	20	2
5	13	1
121	121	3
105	107	1
129	129	5
131	132	1
91	115	1
133	134	3
117	119	1
85	85	4
37	38	3
10	20	2
124	124	4
119	119	4
7	8	3
114	114	4
79	106	1
16	17	4
81	84	1
92	92	5
131	131	8
80	80	4
119	120	1
136	139	1
131	136	1
99	99	1
74	75	4
4	19	1
12	12	1
101	126	1
94	94	5
79	80	1
115	116	2
111	116	1
78	84	1
100	138	1
101	114	1
139	140	1
121	122	4
111	112	3
119	140	2
71	132	1
35	77	2
27	27	5
76	76	1
79	102	1
108	109	1
109	109	3
126	133	1
38	73	1
77	80	1
86	86	1
103	105	1
33	33	3
103	107	3
19	19	2
75	75	1
2	3	1
27	33	1
126	127	1
103	103	3
135	135	3
106	106	6
89	89	2
73	74	4
17	17	3
119	125	1
32	32	1
93	95	1
112	112	4
83	83	1
90	90	1
92	95	1
6	6	1
18	20	1
11	12	2
5	11	1
118	122	1
85	87	1
77	79	1
0	0	1
127	128	2
2	2	1
35	36	1
98	101	1
83	92	1
124	125	1
72	89	2
80	91	1
37	116	1
123	131	2
107	107	4
32	35	2
111	117	1
105	118	1
116	125	1
73	99	1
136	137	1
76	135	1
92	115	1
0	2	1
77	78	1
138	139	2
73	96	1
34	38	1
99	115	1
107	121	1
129	130	1
101	102	2
27	28	1
137	138	1
108	112	1
12	13	1
94	96	1
35	35	1
112	115	1
12	16	1
88	117	1
71	101	1
113	114	1
119	121	1
90	91	1
104	107	1
117	123	1
76	78	1
10	10	1
37	114	1
5	6	1
86	91	1
116	119	1
8	9	1
