3	3	12
143	147	2
28	28	5
8	18	1
68	70	1
156	157	3
70	70	9
151	151	5
154	154	9
4	11	1
159	159	10
77	77	10
142	142	7
109	109	5
97	97	6
76	76	7
139	139	9
96	96	6
5	5	6
64	64	6
8	9	3
132	132	5
161	162	2
52	52	8
78	102	1
82	86	1
65	66	2
126	126	9
18	18	5
166	166	5
141	142	5
40	40	17
27	27	5
138	138	16
128	128	10
156	160	2
126	128	1
4	4	14
9	10	4
82	82	10
164	164	9
95	95	2
127	127	8
93	94	2
90	90	7
168	169	5
35	35	6
146	146	14
80	82	3
5	6	3
7	7	10
130	130	4
117	117	6
159	167	2
159	169	1
75	75	7
66	66	9
1	1	11
150	150	12
113	113	5
68	68	9
38	38	5
152	152	10
102	102	12
83	83	4
160	160	10
2	16	1
24	25	2
152	163	1
129	163	1
95	96	2
3	34	1
135	135	11
163	166	1
151	155	2
167	169	1
37	38	3
20	52	1
137	137	12
20	22	1
170	170	7
108	108	2
113	115	1
47	47	7
0	0	12
72	72	7
20	97	1
11	12	3
50	50	5
161	161	6
49	49	15
72	82	1
45	45	12
41	41	11
11	11	8
23	23	12
81	81	8
125	139	1
39	39	8
9	9	10
47	102	1
15	16	2
43	44	2
141	141	9
94	95	1
151	169	1
148	169	1
22	24	1
78	79	5
12	12	9
106	106	7
162	163	3
58	58	3
88	88	10
55	55	5
101	101	7
51	56	2
157	157	5
78	78	4
3	43	1
93	93	6
47	49	2
139	141	1
65	67	1
118	122	1
144	151	2
8	8	10
78	128	1
169	170	3
53	75	1
24	24	10
91	91	6
15	15	9
136	136	9
43	158	1
145	145	9
140	140	4
89	109	1
134	134	14
63	65	2
62	63	2
27	28	3
99	111	1
82	83	1
120	120	4
44	45	10
103	104	3
140	141	1
22	22	11
133	133	3
104	114	1
51	51	10
155	155	4
135	137	1
80	80	5
125	125	4
88	90	1
110	155	1
129	135	2
148	149	2
154	156	3
57	62	2
101	102	1
168	168	12
46	46	10
62	62	5
10	10	5
129	143	3
98	124	2
6	8	2
144	144	10
150	159	1
86	86	5
19	19	5
89	90	2
2	45	1
160	168	1
42	43	4
63	63	4
158	158	9
98	114	1
130	131	3
92	95	1
12	13	3
2	2	3
110	149	1
54	54	4
18	42	1
33	37	1
110	110	6
126	132	1
72	98	1
6	7	3
123	124	1
65	69	2
129	130	3
36	42	3
47	111	1
112	128	1
52	67	2
1	47	2
106	109	2
67	67	11
65	92	1
148	148	12
48	48	7
84	86	1
138	140	1
71	71	4
124	124	6
48	49	4
34	34	8
36	36	9
67	77	1
50	81	1
118	118	2
42	42	9
169	169	9
151	152	5
149	149	10
16	16	3
124	154	2
14	14	11
21	23	1
94	98	1
13	13	9
43	43	17
131	131	7
146	165	3
2	3	3
162	162	13
39	40	5
96	105	1
160	161	1
14	15	8
74	80	2
87	87	7
122	122	5
79	80	2
92	117	1
126	127	2
146	153	2
26	26	3
56	56	7
33	33	3
44	46	2
138	158	2
53	57	1
86	120	1
167	168	2
132	133	3
103	103	3
114	114	7
6	37	1
53	53	10
27	43	1
146	166	1
119	119	7
123	153	3
49	50	1
4	5	3
17	17	7
128	129	3
100	100	9
6	6	11
13	161	2
43	49	1
84	84	5
128	130	1
137	170	1
20	28	1
139	140	4
44	44	9
36	37	1
98	98	3
163	165	2
118	123	1
104	105	1
168	170	2
116	116	11
125	126	3
148	162	1
35	36	3
102	103	4
93	146	2
143	150	1
167	167	4
20	34	1
97	117	1
97	111	1
163	163	4
73	73	7
148	154	1
120	121	3
8	36	1
13	14	2
149	150	3
105	105	5
70	169	1
137	138	3
26	28	1
74	74	5
121	121	1
100	105	1
109	110	2
156	156	7
94	94	5
124	125	4
88	89	1
10	11	3
37	37	11
107	109	3
111	111	5
86	87	3
123	125	2
90	93	1
0	1	3
147	148	8
63	81	1
11	13	1
17	18	2
4	107	1
7	8	2
159	161	1
100	106	1
64	65	3
50	51	3
113	153	1
19	21	1
166	167	2
117	119	1
92	92	3
74	75	1
25	25	7
144	145	3
47	83	1
99	99	2
153	153	3
89	89	13
57	57	3
146	147	2
124	132	1
76	77	3
57	109	1
112	113	2
110	111	1
85	85	3
81	82	4
131	135	2
1	2	3
20	20	7
135	136	1
79	102	1
23	145	1
70	71	2
155	157	1
28	142	1
74	107	2
111	168	1
152	153	1
147	149	1
109	149	1
108	167	1
92	93	2
57	87	1
44	52	2
8	50	1
71	89	1
82	104	2
115	116	3
101	147	1
8	11	2
68	76	1
131	158	1
77	78	3
57	73	1
164	165	4
41	42	1
13	140	1
164	167	2
104	104	8
25	43	1
65	121	1
163	164	2
121	122	4
117	118	3
110	168	1
112	129	1
80	88	1
130	135	2
115	115	2
162	165	2
111	112	1
98	116	1
77	79	1
46	114	1
39	41	1
91	121	1
54	55	1
123	123	5
111	138	1
40	159	1
148	168	1
100	101	1
123	164	1
143	143	10
33	34	1
138	151	1
94	145	1
20	24	2
155	159	1
138	139	1
10	13	1
119	120	2
164	166	1
34	35	2
5	90	1
53	55	2
65	65	4
57	82	1
4	6	1
101	103	3
55	89	1
92	97	1
7	26	1
87	88	1
89	154	1
12	45	1
100	102	1
138	144	1
150	158	1
165	165	4
153	154	2
46	113	1
79	79	5
46	47	2
68	69	1
48	84	1
21	45	1
94	96	4
5	14	1
80	81	1
8	51	1
138	142	1
121	123	1
147	147	2
58	63	1
26	40	1
11	28	1
67	68	1
127	154	1
75	78	1
62	78	1
139	163	1
72	74	1
113	114	2
71	72	3
18	19	3
34	36	1
20	21	1
152	162	1
6	105	1
127	128	1
142	144	1
80	91	1
34	95	1
40	52	1
157	167	2
103	124	1
100	103	1
143	144	2
98	99	3
76	79	2
130	132	1
113	126	1
16	17	1
128	148	1
28	43	1
21	22	1
57	63	2
12	25	1
92	96	1
78	101	1
115	155	1
127	135	1
8	44	1
35	38	1
71	150	1
107	107	4
97	98	1
72	101	1
121	124	1
44	109	1
69	69	1
114	128	1
132	153	1
106	108	1
54	64	1
66	83	1
90	119	1
79	92	1
106	157	1
138	143	1
129	156	1
21	21	2
69	70	1
161	170	1
12	46	2
3	4	1
14	16	1
142	163	1
118	119	2
114	115	4
44	47	2
108	109	2
0	99	1
62	64	1
47	48	3
66	67	1
110	160	1
131	143	1
97	102	1
112	112	5
137	143	1
166	169	2
154	155	2
159	160	1
49	87	1
119	122	1
111	113	1
4	15	1
157	163	1
142	143	1
84	90	1
80	93	1
66	76	1
122	126	1
140	144	1
73	74	1
102	104	1
76	78	2
54	93	1
91	94	1
137	139	1
140	143	1
155	156	2
56	64	1
129	129	1
93	103	1
55	93	1
151	160	1
20	111	1
145	152	1
18	22	1
43	111	1
22	23	3
2	4	2
36	108	1
94	97	1
146	149	1
90	91	1
2	39	1
63	64	1
157	158	1
10	17	1
45	56	1
12	16	1
136	137	2
51	52	1
49	51	1
7	69	1
38	40	1
145	146	1
148	152	1
39	158	1
84	85	1
143	154	1
138	156	1
54	65	1
73	75	1
151	157	1
166	168	1
82	116	1
2	100	1
134	135	1
105	106	1
116	118	1
62	98	1
99	124	1
62	68	1
160	166	1
4	83	1
47	112	1
93	126	1
100	110	1
39	76	1
132	134	1
139	144	1
65	79	1
40	42	1
