91	91	19
62	66	1
81	93	1
107	107	3
57	57	2
93	93	7
81	81	11
92	92	7
50	50	1
35	62	1
52	52	1
81	91	3
76	77	4
38	38	5
51	51	4
115	115	1
87	88	3
47	47	5
70	70	2
83	83	4
37	39	1
24	24	2
22	22	6
84	87	2
54	54	5
81	90	2
41	42	3
83	84	1
72	72	2
109	110	4
101	101	4
100	101	1
61	63	1
74	76	2
66	66	1
65	67	1
82	82	1
85	85	6
98	99	2
24	25	3
37	38	5
96	96	1
22	24	1
112	112	3
83	86	1
28	28	2
21	22	1
68	69	3
69	69	2
108	108	5
103	110	1
75	75	3
77	77	1
20	20	1
21	21	1
61	62	1
71	82	2
27	27	3
90	92	2
43	59	2
72	73	1
103	103	2
40	53	2
94	94	1
104	106	3
42	42	1
78	79	3
52	53	1
49	49	1
91	92	4
49	53	1
94	96	1
109	109	3
25	25	2
105	105	5
50	51	4
102	103	1
111	111	3
74	74	2
45	45	2
95	95	4
66	110	1
90	90	5
73	73	3
90	102	1
77	78	2
25	114	1
40	51	1
26	45	1
71	75	1
43	43	2
80	80	3
40	60	1
32	32	2
102	102	1
26	68	1
110	110	2
19	32	1
89	89	2
98	98	3
32	35	1
23	23	5
46	46	4
33	35	2
101	107	1
92	93	3
47	66	1
71	71	1
54	110	1
47	77	1
75	110	1
64	65	1
22	34	1
19	20	1
113	113	1
79	79	4
76	76	1
65	65	2
70	73	1
92	108	1
41	41	2
106	107	1
46	47	2
72	75	1
29	40	1
90	91	5
97	97	1
67	67	3
48	48	1
45	61	1
101	103	1
58	59	1
31	31	2
61	61	1
84	102	1
75	76	2
29	29	4
37	37	2
78	78	2
105	108	1
60	60	1
26	26	1
63	64	2
47	48	1
19	19	1
58	58	1
85	94	2
30	30	2
78	85	1
98	113	1
59	59	1
57	60	1
36	62	1
101	102	1
62	63	1
47	51	1
66	69	1
99	99	1
64	111	1
84	84	2
67	68	1
103	106	1
100	100	1
104	105	2
60	67	2
90	93	1
31	32	1
34	34	1
87	87	2
91	93	1
89	91	1
79	98	1
49	51	1
88	89	1
36	39	1
48	56	1
69	73	1
29	114	1
93	94	1
33	33	1
42	45	1
86	86	1
70	81	1
71	72	1
101	109	1
63	75	1
