51	54	1
78	78	2
58	90	1
65	65	5
80	80	5
107	108	3
53	53	5
73	75	1
6	6	3
73	73	2
49	50	2
23	24	2
71	71	4
86	87	2
75	75	3
13	14	2
60	60	2
108	108	6
15	16	1
8	8	1
127	128	3
42	69	1
76	76	2
90	107	1
39	39	3
121	122	2
44	44	3
4	5	2
52	52	5
10	32	1
87	87	1
122	122	3
38	38	2
103	104	3
131	131	9
118	118	5
34	34	1
105	105	4
69	70	3
72	74	1
16	17	1
27	31	1
29	30	4
114	114	3
127	127	7
18	19	1
49	49	12
44	45	5
32	32	3
110	110	2
101	127	1
117	117	3
24	24	4
126	127	4
90	90	3
119	119	5
102	131	1
20	21	2
10	10	3
9	9	3
54	54	4
115	115	3
0	0	1
83	83	3
17	17	1
12	51	1
67	67	2
33	33	5
45	46	1
128	128	4
125	131	4
43	43	2
72	73	1
42	42	6
25	25	5
78	80	1
83	84	3
99	99	3
48	48	8
77	77	2
55	55	2
120	120	5
102	102	1
93	93	4
19	21	1
129	129	4
3	3	2
130	130	4
103	103	5
63	63	4
67	68	1
71	72	3
66	78	1
22	22	1
64	64	2
79	90	1
102	106	1
123	123	5
82	83	1
109	110	1
28	28	3
47	47	6
26	26	3
29	38	1
126	128	1
7	7	1
89	90	1
56	57	1
104	127	1
98	98	3
84	90	1
115	116	2
120	121	1
112	112	1
16	44	2
100	100	3
85	85	3
69	76	1
12	12	2
113	115	2
98	99	2
87	88	1
11	11	2
52	53	2
88	90	1
39	40	1
50	50	6
28	46	1
44	62	2
72	72	4
113	113	3
19	19	1
42	43	1
57	57	3
106	114	1
107	107	3
114	118	1
104	105	2
33	40	1
24	26	1
66	66	2
24	25	2
78	79	2
1	2	3
27	27	3
62	94	1
62	62	2
43	84	1
56	56	6
13	13	2
1	1	1
46	46	1
77	103	1
94	94	1
42	60	1
73	77	1
116	116	5
57	93	1
55	57	1
61	62	2
82	125	1
123	124	1
76	123	1
16	16	1
62	63	3
126	126	2
15	15	3
42	90	1
18	21	1
23	33	1
107	129	2
81	82	2
21	22	1
74	74	1
21	21	2
40	41	1
104	108	1
28	131	1
58	68	1
11	12	1
125	125	5
4	4	3
48	52	1
42	65	1
96	96	5
29	29	2
17	20	1
68	68	3
74	75	2
97	98	2
81	119	2
2	2	4
2	3	3
128	131	1
46	48	1
54	56	2
101	101	2
65	67	1
129	132	1
129	130	2
28	31	1
104	115	1
81	100	1
108	117	1
53	54	1
41	41	3
49	121	1
65	68	1
89	92	2
90	91	2
84	85	3
60	61	1
59	59	1
23	23	2
133	133	2
85	86	1
30	33	1
92	92	4
102	103	1
93	123	1
104	104	1
79	79	1
31	49	1
55	117	1
40	40	1
32	33	1
124	125	2
84	84	2
101	103	2
66	100	1
109	109	3
86	88	1
61	61	1
5	5	2
15	20	1
25	26	2
18	18	1
58	58	1
118	119	1
59	84	1
41	42	2
66	74	1
61	63	1
76	77	1
31	31	1
69	69	2
54	55	1
19	20	1
52	54	1
37	39	1
125	126	1
132	132	2
12	13	1
22	24	1
124	124	1
15	34	1
57	58	2
80	125	1
14	15	1
95	130	1
30	31	1
85	127	1
63	64	2
127	133	1
40	87	1
121	121	1
106	107	1
70	70	1
98	102	1
81	81	1
46	55	1
109	120	1
108	109	1
58	59	1
28	32	1
99	100	1
39	71	1
41	43	1
89	89	1
77	78	1
114	117	1
14	104	1
38	46	1
27	30	1
65	66	1
97	102	1
113	114	1
74	79	1
128	130	1
