69	69	3
103	103	1
113	113	1
110	118	1
17	17	2
112	112	1
140	141	2
115	115	4
130	130	1
110	117	1
119	120	2
41	41	1
32	32	1
8	8	2
14	14	1
15	15	2
74	74	2
52	53	1
133	133	3
71	74	1
35	35	5
117	117	4
26	27	3
134	134	2
133	134	1
94	106	1
52	52	2
28	28	3
20	20	1
124	124	2
18	47	2
98	100	1
118	118	2
25	37	2
122	122	1
19	19	1
56	56	1
90	90	1
35	36	2
48	49	1
55	62	1
73	73	2
141	141	1
71	71	2
35	39	1
1	2	1
64	79	1
89	89	2
77	77	2
21	22	1
136	136	1
54	66	1
88	88	2
0	20	1
88	114	1
15	46	1
37	37	2
51	52	1
94	141	1
81	81	2
59	93	1
144	145	1
122	123	2
39	39	2
70	71	3
50	52	2
61	62	1
99	125	1
83	84	1
114	114	1
76	77	1
60	60	1
6	6	2
14	15	1
71	73	1
62	62	1
127	140	1
10	27	1
0	1	1
2	2	2
106	106	1
29	29	2
127	127	2
5	5	2
87	88	2
85	85	1
80	80	1
23	24	1
2	5	1
126	126	1
111	133	1
70	70	2
68	68	1
99	100	1
15	17	1
76	109	1
142	142	1
110	110	1
59	59	1
120	123	1
48	81	1
33	33	1
50	51	1
71	72	2
46	47	1
110	112	1
30	30	1
4	4	1
75	75	1
134	140	1
43	66	1
64	64	1
135	138	1
135	136	1
13	13	2
80	81	1
71	93	1
52	57	1
11	11	1
96	96	1
109	110	1
53	54	1
22	22	2
34	34	1
125	126	1
145	145	2
101	101	1
24	43	1
128	128	2
107	107	1
104	104	1
51	60	1
88	89	1
140	140	1
109	109	1
87	108	1
33	34	1
70	128	2
57	116	1
98	125	1
27	27	1
92	92	1
38	38	1
82	82	1
24	25	1
47	48	1
57	117	1
86	86	1
30	33	1
27	28	1
31	31	1
97	98	1
98	98	2
18	18	1
78	80	1
119	136	1
3	6	1
16	16	2
17	144	1
30	64	1
61	61	1
99	143	1
73	77	1
57	57	1
40	41	1
5	23	1
53	91	2
55	55	1
15	78	1
90	109	1
111	111	2
125	125	1
102	102	1
66	66	2
58	58	1
93	94	1
84	85	1
34	36	1
12	14	1
144	144	1
94	137	1
126	127	1
103	106	1
58	62	1
32	34	1
112	117	1
83	83	1
