123	124	1
24	34	1
33	33	2
27	27	2
79	106	2
65	85	1
50	50	5
73	73	6
4	4	3
14	94	1
52	100	1
135	135	4
33	34	2
44	45	3
22	22	6
78	78	1
98	98	3
23	24	2
62	62	3
122	122	1
71	71	5
21	24	1
82	85	1
69	70	1
109	132	2
50	52	1
60	69	2
100	101	3
88	88	4
134	134	3
108	109	1
5	5	3
28	28	2
96	96	5
79	80	2
74	74	7
79	81	1
13	13	6
0	0	8
22	23	1
74	104	1
80	80	3
10	10	3
11	11	2
128	128	2
0	1	2
43	44	2
21	22	3
9	9	2
75	99	1
47	47	1
133	133	1
58	58	2
26	26	2
23	23	4
55	56	2
62	63	1
56	69	1
97	97	1
24	24	2
3	35	1
75	75	2
42	69	1
70	70	5
21	21	2
61	61	3
11	21	1
60	60	3
132	133	2
127	127	3
68	68	2
78	79	1
121	121	2
54	84	1
21	30	1
72	72	7
123	123	1
31	32	1
85	85	2
114	114	2
123	127	1
83	84	1
14	58	1
44	44	2
53	60	1
76	77	1
15	15	1
63	64	2
82	82	1
28	32	2
106	120	2
126	134	1
125	125	4
102	102	1
51	51	1
126	126	2
80	123	1
18	26	1
45	45	3
56	56	2
115	115	2
7	7	3
60	62	1
89	89	2
103	103	1
48	48	1
76	76	4
62	101	1
70	72	1
120	120	1
115	135	1
12	12	2
110	110	1
38	38	3
112	114	1
108	108	1
122	130	1
1	123	1
92	92	1
2	2	1
112	112	2
79	79	3
118	118	2
87	87	1
1	3	1
104	104	4
20	24	1
65	66	1
52	52	2
71	73	2
77	78	1
14	14	2
132	132	3
3	3	2
86	86	2
2	34	1
71	106	1
7	8	1
7	28	1
59	59	2
25	25	2
61	67	1
74	75	1
34	57	1
129	129	1
37	37	2
50	60	1
114	118	1
122	123	1
54	54	5
75	76	1
84	84	1
116	117	1
59	61	2
6	6	1
52	63	1
19	20	3
36	36	1
64	64	1
47	48	1
124	124	3
127	129	1
60	61	1
20	20	1
86	87	1
70	71	1
82	91	1
16	16	3
70	73	1
35	35	2
16	18	1
66	66	3
111	126	2
38	39	1
32	33	1
115	116	1
31	59	1
25	26	1
64	87	1
6	11	1
106	106	2
10	24	1
95	96	1
99	99	1
17	17	1
8	8	1
111	111	1
55	55	1
34	35	1
95	95	2
128	129	1
71	85	1
80	122	1
32	32	2
97	102	1
60	63	1
97	98	1
80	87	1
101	104	1
104	105	1
29	29	1
62	64	1
53	53	1
109	112	1
94	96	1
61	68	1
