52	70	2
109	109	4
25	25	2
169	169	5
237	238	1
44	44	6
51	52	5
26	26	3
173	176	1
87	89	1
7	7	3
178	178	3
184	184	8
175	176	1
31	31	1
48	48	2
96	96	2
12	12	2
175	175	3
207	207	1
8	20	2
192	192	2
17	18	2
24	24	5
68	68	1
236	236	5
227	227	4
247	247	2
209	209	5
99	99	2
38	38	2
223	223	6
230	231	1
108	108	7
4	5	1
213	213	5
11	11	7
56	57	3
232	232	4
165	165	3
13	13	2
219	241	1
231	231	4
180	180	7
63	78	1
184	185	2
84	84	2
248	249	1
204	224	1
185	185	5
201	201	6
23	23	5
214	218	1
21	21	5
47	47	2
212	212	2
113	119	1
56	83	2
46	46	3
99	100	2
37	37	4
57	57	3
30	31	2
6	6	4
117	117	3
71	71	3
198	198	3
239	239	3
93	94	1
58	58	4
229	229	2
171	171	3
106	106	1
56	56	4
234	234	2
154	154	2
29	31	1
230	230	2
113	113	3
159	160	1
183	183	3
35	35	5
94	94	3
119	119	2
53	92	1
237	240	3
32	32	3
67	70	1
101	101	3
2	6	1
36	36	4
111	111	4
184	223	1
146	146	1
16	16	2
14	14	5
150	150	2
3	3	1
173	173	5
179	179	1
161	161	3
65	65	5
76	76	3
28	28	2
15	15	2
206	206	3
33	33	2
244	245	1
172	172	1
54	54	3
193	211	2
45	47	1
3	8	1
104	105	1
162	162	5
200	201	1
2	45	2
186	186	5
45	45	2
241	241	3
233	234	1
34	34	1
221	222	1
27	27	3
110	110	2
167	167	5
40	202	1
236	237	1
246	246	1
176	176	2
20	22	2
54	55	1
152	152	2
233	233	2
78	78	4
181	181	5
19	19	3
111	112	1
91	92	1
9	9	5
162	167	1
153	153	3
116	116	5
200	200	2
225	225	9
158	158	4
39	39	4
238	238	2
171	178	1
43	43	2
212	235	2
114	114	6
217	218	1
63	63	3
85	85	3
189	189	1
226	226	3
59	59	1
53	54	1
19	20	2
18	18	4
160	160	4
25	27	1
214	214	2
197	197	3
220	222	4
191	191	3
99	104	1
98	98	1
41	41	3
42	42	6
30	30	2
219	220	1
14	15	1
55	55	4
76	77	1
164	165	3
29	29	2
40	40	1
29	41	1
14	33	2
211	211	2
215	215	2
197	200	2
203	204	2
26	27	1
194	194	2
86	89	1
98	104	1
44	162	2
112	112	8
113	114	2
176	228	1
38	39	2
196	196	3
98	99	1
118	118	3
156	156	4
77	85	1
33	34	1
240	241	2
195	195	2
163	163	1
151	151	2
202	202	4
203	224	1
224	224	3
39	40	1
10	10	3
87	88	1
228	228	3
172	192	1
201	206	1
50	50	1
242	242	2
17	17	1
6	7	2
110	111	1
5	5	2
71	78	1
234	235	1
95	108	1
67	67	5
21	22	1
107	107	1
82	82	1
179	180	1
167	193	1
164	164	1
82	83	1
142	142	1
37	39	1
86	101	2
210	210	1
181	204	1
190	190	2
115	115	2
200	215	1
168	168	1
62	62	1
95	99	1
85	155	1
236	239	1
173	180	1
202	203	3
188	198	1
204	204	3
245	245	3
220	220	2
23	156	1
80	80	1
235	235	1
186	221	3
76	81	1
2	2	1
100	100	1
238	239	2
96	108	1
176	177	2
23	160	1
89	89	1
142	165	1
92	154	1
12	150	1
87	87	2
73	73	2
168	193	1
51	235	1
49	49	1
235	245	1
203	235	1
110	112	1
174	174	3
183	184	2
73	74	1
236	246	1
196	199	1
65	66	1
22	22	4
102	103	1
112	155	1
174	175	1
79	79	1
216	216	1
187	187	1
48	50	1
3	4	1
68	69	1
216	217	1
93	93	1
60	61	1
47	203	1
69	216	1
68	70	1
66	247	1
1	1	1
170	170	2
90	90	2
112	114	1
59	60	1
162	183	1
75	82	1
217	217	1
90	100	1
180	205	1
181	201	1
98	100	1
203	203	3
223	237	1
205	205	1
225	226	1
171	172	1
8	8	1
69	69	1
51	51	1
228	229	1
173	174	1
155	155	2
219	243	1
18	19	2
206	211	1
79	83	1
211	223	1
4	4	2
166	166	1
64	67	1
91	91	1
149	149	1
20	20	1
207	208	1
187	194	1
220	246	1
191	192	1
11	19	1
6	8	1
