43	44	3
21	22	2
15	22	1
98	99	1
5	6	1
120	120	5
11	11	5
44	44	5
85	85	5
14	14	7
50	50	6
129	129	4
96	97	2
105	106	2
71	71	3
111	111	4
74	74	5
5	28	2
61	65	1
16	16	5
10	11	1
29	29	3
0	0	4
18	18	4
51	51	2
2	2	7
97	97	6
119	124	2
25	26	1
99	99	2
13	13	4
108	109	1
7	7	4
54	55	2
123	123	1
26	26	4
112	112	3
115	116	2
87	87	3
74	76	2
8	8	4
4	5	2
102	102	2
72	73	1
69	69	9
32	32	3
64	64	3
116	118	1
28	28	2
65	82	1
130	131	1
113	113	4
105	105	7
114	119	2
32	34	2
28	29	1
73	73	7
23	23	1
23	25	1
98	98	1
15	62	2
20	24	1
80	80	6
79	79	9
121	122	1
116	116	3
114	114	3
90	90	4
3	3	3
54	54	6
3	5	1
24	24	3
125	127	1
68	68	6
43	43	8
57	82	1
43	65	1
87	88	2
59	60	1
82	82	4
33	33	6
15	15	2
37	37	1
71	89	2
82	128	1
119	119	2
62	62	5
4	4	2
122	122	3
131	131	3
9	9	1
78	78	4
72	74	1
106	106	2
107	107	2
15	60	2
127	127	1
60	60	6
70	70	3
10	19	1
38	38	2
21	21	1
78	79	1
27	65	2
66	83	1
109	110	1
113	129	1
4	36	1
63	77	1
125	126	1
36	37	2
61	61	6
55	55	2
86	86	4
49	49	1
3	4	4
13	19	2
31	31	2
95	95	1
15	16	1
126	126	2
30	30	4
114	115	1
72	92	1
36	36	2
134	134	3
59	59	3
88	94	1
94	126	1
28	89	1
76	98	1
25	25	5
16	58	1
57	58	2
65	69	1
77	79	2
1	1	4
13	21	1
50	51	1
127	128	1
36	64	1
27	27	5
115	115	2
77	77	7
60	61	3
69	82	1
50	70	1
22	23	1
70	72	1
12	12	1
107	111	1
53	53	2
119	123	1
6	13	1
70	81	2
104	105	1
122	123	1
74	75	1
5	5	2
19	19	3
46	72	1
127	129	2
81	82	1
95	103	1
67	67	1
81	81	2
6	30	1
44	45	1
96	96	2
52	52	2
110	110	2
91	91	4
76	76	2
63	71	1
13	18	1
31	45	1
74	100	1
73	76	1
53	54	1
93	93	2
8	9	1
20	21	2
133	134	1
79	81	1
116	121	2
83	83	3
115	123	1
24	25	1
66	69	1
133	133	1
10	10	2
42	42	1
44	46	1
124	124	1
120	123	1
26	27	2
77	80	1
114	122	1
32	33	2
0	32	1
62	63	1
26	61	2
34	34	2
86	87	1
56	56	1
108	108	1
25	51	1
89	89	1
75	75	1
103	103	1
13	15	1
18	19	1
11	134	1
1	2	1
27	52	1
107	108	1
128	128	2
22	22	1
12	13	1
135	135	1
72	72	2
124	125	1
94	95	2
4	6	1
18	21	2
30	32	1
20	20	2
47	47	1
91	113	1
112	128	1
109	109	3
42	61	1
16	78	1
43	52	1
84	84	1
43	45	2
35	35	2
63	78	1
49	50	1
21	37	1
17	17	1
15	63	1
65	65	1
14	62	1
49	71	1
130	130	1
101	101	1
12	75	1
108	110	1
86	88	1
63	76	1
3	11	1
95	112	1
13	79	1
77	78	1
116	117	1
88	88	1
