122	125	1
83	83	3
33	33	1
13	15	2
98	98	6
60	62	2
118	118	2
42	42	1
147	147	3
126	126	2
20	43	1
111	111	2
102	125	1
101	101	5
144	145	1
65	66	1
101	104	1
53	53	4
88	106	1
106	108	1
45	46	5
41	41	4
96	99	2
159	160	1
157	167	3
167	168	1
34	38	1
78	79	1
42	44	2
106	111	1
153	153	3
146	146	3
19	19	2
17	25	1
146	175	1
54	54	6
53	72	2
168	170	1
148	174	1
30	33	2
10	11	1
97	98	4
100	104	2
157	157	2
146	165	1
23	23	2
10	29	1
188	188	2
143	167	1
44	44	1
73	74	4
59	59	1
0	0	6
136	136	5
176	176	8
151	175	1
112	121	2
184	184	2
74	74	2
6	8	2
29	31	3
178	178	3
82	83	2
6	21	1
102	102	3
189	189	1
80	81	4
145	145	2
160	163	1
181	188	3
31	35	1
58	62	1
0	81	1
48	48	1
138	138	2
38	39	2
173	173	2
100	100	1
108	108	3
34	37	1
11	12	1
150	154	2
55	56	1
172	172	2
132	165	2
0	144	1
60	60	1
138	139	1
30	30	2
80	80	4
93	93	1
3	3	2
169	169	6
141	141	2
134	134	3
81	81	3
167	167	2
17	17	1
91	91	3
95	139	1
47	47	2
4	4	3
88	88	1
105	105	5
107	108	2
29	29	1
178	179	2
86	86	2
186	186	3
137	167	1
39	39	1
14	14	1
74	75	4
88	100	1
101	102	1
45	45	3
127	127	1
120	120	3
62	62	3
129	144	1
181	181	2
131	180	1
179	179	6
7	7	3
138	170	2
152	152	3
83	85	3
10	10	2
135	135	2
75	75	3
111	112	2
164	187	1
39	76	1
5	5	3
138	156	1
41	42	1
190	190	3
139	170	1
86	101	1
43	52	1
92	92	7
84	84	1
32	33	2
112	115	1
27	28	1
130	177	1
121	121	2
176	181	1
98	100	2
41	68	3
87	87	3
142	144	1
170	170	1
139	148	3
183	183	2
169	178	1
166	166	2
95	95	1
82	88	2
28	28	5
130	130	1
55	55	1
11	11	4
46	46	4
96	97	1
17	41	1
137	156	1
77	77	6
27	27	2
146	159	1
86	87	2
132	138	1
174	174	2
142	143	1
56	56	1
2	2	3
76	76	3
143	143	3
28	29	1
137	139	2
147	158	1
11	61	1
43	43	2
90	95	1
34	34	3
115	116	2
63	63	1
89	100	1
5	7	2
164	164	2
165	165	4
54	57	1
96	98	1
138	142	1
153	186	2
147	155	1
134	137	1
187	187	5
123	123	1
32	35	1
16	16	3
134	136	2
156	156	6
18	18	3
42	47	2
163	163	1
42	43	1
130	146	1
177	178	2
185	186	2
67	67	3
101	121	1
59	61	1
158	158	3
48	52	1
96	96	2
161	161	1
146	174	1
182	183	3
26	30	1
154	167	2
141	144	1
79	80	2
8	8	1
124	134	1
131	157	1
21	29	1
117	117	1
96	104	1
144	164	1
2	25	1
77	78	1
42	69	1
107	107	1
140	141	1
97	114	1
133	135	3
166	167	1
46	47	1
103	103	1
75	76	1
31	46	2
126	127	1
110	110	2
54	55	1
151	151	1
154	179	1
127	128	2
171	173	1
92	101	1
40	40	2
100	119	1
119	135	1
89	106	1
66	66	1
99	99	3
42	52	1
94	132	1
115	122	1
27	29	1
90	90	1
10	63	1
150	157	1
24	24	2
15	15	2
102	103	1
97	97	1
36	36	1
160	160	1
171	171	1
141	146	1
133	134	1
63	64	2
159	165	1
129	129	1
151	154	1
163	164	1
0	79	1
164	165	1
53	54	2
64	64	1
15	82	1
71	72	1
168	168	2
180	190	4
56	95	2
92	93	3
56	57	3
184	185	1
22	41	1
115	115	4
146	147	1
10	12	1
104	105	2
141	142	1
91	92	1
176	177	1
90	91	1
35	35	3
124	124	2
66	67	1
61	61	2
135	136	2
1	1	3
148	148	1
97	100	1
132	133	1
32	32	1
108	112	1
37	37	2
65	70	2
5	6	1
148	183	1
34	35	1
70	70	3
7	8	1
104	104	1
22	22	1
93	94	1
139	139	1
31	31	1
153	159	1
71	71	1
94	95	1
32	38	1
169	173	1
109	145	1
117	123	1
142	142	1
63	65	1
114	114	1
47	74	1
8	9	1
155	156	1
62	65	1
148	189	1
149	149	1
90	120	2
131	131	2
44	45	1
26	26	1
108	111	1
17	32	1
31	38	1
117	125	1
6	6	1
92	99	2
137	137	1
47	67	1
172	173	1
68	68	1
23	29	1
26	27	1
124	130	1
18	42	1
181	182	1
155	155	1
5	9	1
65	65	1
