90	90	6
102	102	4
22	36	1
22	24	1
108	108	3
85	87	3
91	91	19
92	92	9
79	79	5
75	75	4
30	30	2
93	93	17
91	93	5
73	90	1
24	24	2
24	25	3
38	71	1
51	51	1
27	27	2
110	110	5
95	107	1
50	50	4
73	74	2
96	97	1
81	81	7
44	45	1
104	108	2
54	54	3
88	91	2
21	21	5
28	28	5
93	96	1
97	97	3
59	59	2
101	101	2
82	82	3
77	77	8
72	72	5
64	65	2
95	95	4
73	75	2
82	83	3
106	106	3
75	92	1
100	100	5
59	82	1
22	26	1
115	115	1
91	92	7
26	26	6
29	40	1
98	100	1
103	106	1
37	39	2
104	104	3
75	76	3
81	91	3
94	94	3
105	106	1
38	38	3
19	20	4
74	74	1
74	102	2
63	65	1
54	56	4
90	91	4
95	96	1
20	39	1
34	35	2
76	77	2
77	103	1
107	107	3
46	46	4
35	56	1
87	88	1
85	86	1
57	57	1
79	80	1
63	64	1
52	52	1
81	93	1
64	68	1
48	48	3
49	64	1
23	23	3
64	64	3
31	31	7
51	52	2
96	96	4
71	82	1
114	114	1
70	105	1
63	63	1
85	85	3
88	92	1
93	108	2
66	66	2
43	43	2
41	41	3
111	114	1
90	92	1
25	26	1
51	53	2
83	83	4
81	90	2
20	20	2
104	105	1
66	83	2
49	49	5
78	79	1
25	25	3
53	54	1
73	73	1
68	69	1
61	61	4
33	33	3
65	69	1
20	21	2
43	44	2
58	58	3
42	44	1
56	56	5
103	104	1
90	109	1
61	91	2
44	85	1
68	102	1
40	40	2
44	44	2
26	27	1
29	29	1
91	108	1
64	66	1
32	32	3
86	86	1
36	36	1
71	73	1
109	110	1
33	62	2
82	84	1
97	98	1
47	47	3
67	67	1
58	59	1
70	84	1
106	107	1
84	85	1
26	28	1
98	99	1
50	51	1
109	111	1
39	39	2
81	92	1
42	42	3
70	71	2
99	99	3
76	78	1
65	85	1
103	105	1
103	103	2
20	26	1
90	93	2
100	109	1
39	41	1
113	114	3
42	110	1
71	72	1
113	113	1
66	110	2
60	60	1
78	78	4
98	111	1
98	98	1
74	75	1
61	97	1
68	68	2
25	75	1
78	86	1
87	87	1
112	113	1
66	67	1
58	61	1
53	53	1
44	47	1
48	83	1
83	101	1
40	75	1
19	19	1
111	111	3
37	66	1
74	78	1
80	98	1
95	98	1
80	80	3
45	45	2
65	65	2
82	89	1
83	84	1
49	83	1
107	109	1
76	108	1
92	93	1
55	66	1
34	34	1
112	112	1
107	108	1
105	105	1
48	111	1
88	88	1
109	109	1
96	111	1
