5	7	1
231	234	1
28	28	6
17	17	3
2	2	2
100	101	2
215	215	5
43	43	9
240	241	1
173	173	1
200	200	7
185	237	1
69	69	2
108	108	2
49	49	3
49	50	1
197	211	1
193	193	7
231	231	6
239	247	1
41	41	8
111	111	9
34	35	4
22	23	1
204	204	7
188	188	3
196	196	5
98	213	1
74	74	3
55	55	5
46	46	5
239	240	1
210	211	1
51	51	5
118	118	2
223	223	8
11	11	8
18	18	6
241	241	5
115	115	5
93	111	1
209	209	7
68	70	2
218	219	2
8	8	6
44	44	7
156	156	7
238	238	5
20	20	3
47	48	3
245	245	6
47	65	1
107	107	6
174	174	6
216	218	2
99	118	2
170	170	10
178	179	4
199	199	6
215	216	1
163	164	1
35	36	5
23	23	6
45	45	4
227	227	1
101	118	1
162	176	3
232	233	1
224	225	1
159	236	1
154	155	1
116	116	8
109	116	1
71	71	2
246	246	3
62	85	1
236	236	3
98	98	3
57	57	6
22	36	1
213	214	4
116	117	3
203	206	1
198	198	4
33	33	7
234	235	1
85	86	2
31	31	4
76	76	3
242	242	6
244	245	2
232	232	11
202	202	5
47	47	5
78	88	1
102	103	2
65	65	3
245	246	4
68	68	5
234	234	11
109	110	1
214	239	2
214	214	11
31	32	2
234	236	1
191	191	6
89	162	1
29	29	4
10	15	1
229	230	1
61	62	6
166	166	6
24	25	2
169	169	7
78	99	1
77	86	2
13	15	1
228	229	2
168	168	5
1	1	4
73	82	1
231	233	2
171	171	11
240	240	2
179	179	4
56	56	8
59	59	6
38	38	7
212	212	2
104	106	1
205	205	1
216	216	3
203	212	1
144	144	3
111	112	4
152	152	3
103	103	2
63	63	5
15	15	8
204	205	1
155	155	5
180	184	1
6	6	8
208	209	1
166	167	2
118	119	1
230	230	4
197	214	1
153	153	6
86	89	1
213	213	8
40	40	7
207	226	1
53	53	7
176	176	13
30	30	4
160	161	1
54	54	4
79	82	1
150	150	7
154	154	4
184	184	1
99	105	1
179	180	2
168	171	1
206	206	5
27	28	2
4	5	2
195	195	3
146	160	1
32	32	11
101	101	2
208	214	2
218	218	4
193	194	1
178	178	7
185	185	5
55	61	1
52	175	1
75	75	5
10	11	2
174	183	1
145	145	3
58	58	4
12	12	3
66	66	1
14	198	1
96	96	2
95	95	5
52	53	1
168	169	2
159	212	1
58	169	1
25	32	1
174	231	1
112	112	4
87	94	1
175	175	3
183	183	1
228	228	5
186	186	9
167	173	1
171	219	2
233	233	2
79	79	1
212	213	1
190	192	1
60	61	1
50	51	2
113	113	5
182	182	5
183	184	3
92	92	6
244	244	5
39	43	1
28	29	2
0	28	1
35	35	5
151	151	3
189	200	2
205	210	1
10	10	5
207	207	4
226	226	2
16	16	4
221	221	3
161	161	4
167	168	1
39	39	5
50	50	3
110	111	1
119	119	3
115	154	1
225	247	1
70	70	2
62	62	3
211	211	3
217	217	8
219	219	1
106	118	2
171	218	1
67	90	1
172	172	5
11	15	1
17	155	1
120	120	4
164	164	4
51	68	2
77	77	4
12	41	1
109	109	1
64	64	1
192	192	4
152	153	1
60	62	2
15	26	1
163	163	2
59	185	2
21	21	4
90	91	2
79	80	2
200	214	1
37	37	9
50	69	1
154	227	1
78	78	3
113	114	1
14	168	1
206	207	3
34	34	4
116	121	1
178	194	2
63	64	2
169	171	1
14	15	1
174	185	1
94	94	3
115	116	4
88	88	3
238	240	1
235	244	1
26	54	2
102	102	2
163	186	1
243	243	2
161	174	2
190	191	6
21	26	1
84	89	1
159	249	1
212	234	1
9	10	2
51	56	1
33	37	1
203	203	3
97	97	2
225	225	5
85	85	5
90	90	5
85	164	2
7	7	9
71	72	1
81	83	2
188	189	3
186	188	2
24	24	4
160	160	2
23	32	1
157	157	4
236	239	1
214	215	1
103	105	1
52	52	4
181	213	2
82	83	1
193	199	1
177	177	2
114	161	1
74	187	2
229	244	1
114	116	1
0	1	1
220	220	5
36	37	2
41	45	1
64	66	1
238	243	1
237	238	2
91	93	1
85	151	1
21	23	1
36	38	1
117	117	4
238	239	5
43	44	2
87	101	1
213	225	1
99	99	4
211	220	1
73	73	1
19	19	2
161	222	1
237	237	3
169	170	3
180	180	5
192	198	1
198	199	3
5	17	1
49	89	1
36	36	4
68	74	1
178	182	1
101	108	1
202	235	1
225	234	2
198	209	1
38	39	4
9	11	1
50	95	1
60	60	3
37	53	2
18	19	1
94	95	3
76	77	2
159	164	1
90	110	1
1	20	1
109	161	1
5	44	1
112	113	1
242	243	2
121	121	3
22	22	3
167	167	3
111	115	1
26	26	4
56	57	1
192	194	2
96	97	1
159	248	1
238	247	1
213	222	1
189	189	3
235	236	1
78	86	1
89	90	3
201	201	3
94	174	1
67	87	1
40	42	2
107	108	1
95	184	1
215	244	1
104	108	1
52	151	1
207	214	1
216	219	1
76	85	1
175	179	1
110	110	2
83	83	1
74	75	2
10	12	1
59	60	2
162	162	5
5	5	2
173	174	2
94	185	1
42	42	4
187	188	2
48	50	1
159	159	1
20	192	1
208	208	1
21	22	1
221	222	1
84	85	1
48	48	3
162	186	1
31	33	1
170	181	1
191	224	1
4	4	1
219	248	1
203	210	1
152	181	3
186	190	1
8	9	2
165	165	3
7	8	1
167	184	1
5	16	3
5	10	1
105	105	2
174	197	1
162	163	3
165	193	1
197	199	2
95	96	1
91	92	1
229	229	4
195	196	2
172	176	1
159	226	2
192	216	1
112	116	1
243	245	1
210	210	1
247	247	7
223	236	1
223	232	1
192	193	2
197	236	2
202	203	1
51	52	1
67	71	1
9	9	3
80	83	1
169	194	1
14	14	3
220	233	1
224	224	1
114	114	4
211	241	1
55	59	1
158	248	1
222	233	1
72	74	1
10	25	1
3	3	3
117	119	1
201	204	1
13	13	2
189	201	1
213	220	1
68	201	2
116	247	1
226	230	2
235	235	1
247	248	2
59	162	1
212	219	1
82	84	1
11	27	1
26	29	1
3	6	1
86	86	1
72	72	2
32	33	1
212	222	1
189	191	2
7	201	1
225	236	1
78	210	1
158	158	2
170	171	1
168	176	2
153	155	1
54	63	1
90	144	1
241	243	1
4	76	1
59	86	1
232	237	1
16	35	1
181	181	3
108	109	1
243	244	1
34	39	1
174	225	1
194	199	1
193	221	1
25	25	3
187	187	1
94	107	1
52	152	1
27	27	4
19	23	1
156	160	1
38	91	1
175	183	1
67	89	1
173	180	1
77	88	1
30	31	1
210	214	1
150	160	2
207	208	2
224	235	1
114	115	1
79	101	1
78	82	1
171	172	1
191	216	1
223	237	1
210	235	1
155	156	1
82	82	2
1	10	1
100	100	2
81	81	2
66	90	1
231	235	1
248	248	1
9	27	1
40	162	1
167	182	1
92	93	2
67	68	1
182	226	1
61	61	1
204	227	1
89	104	1
27	34	2
190	215	1
60	65	1
58	192	1
76	78	1
12	14	1
150	151	1
199	200	1
17	32	1
54	55	1
190	190	2
197	197	4
62	221	1
198	207	1
117	118	1
32	40	1
233	234	1
51	53	1
53	54	1
209	234	1
110	160	1
222	223	2
220	236	1
151	152	1
177	183	1
93	93	1
116	152	1
72	77	1
180	181	1
165	179	1
105	106	1
165	166	1
215	243	1
188	200	1
201	235	1
239	239	1
72	73	1
3	5	1
222	222	2
67	67	1
201	205	1
3	39	1
158	203	1
210	220	1
200	236	1
206	225	1
45	46	1
84	84	1
176	232	1
202	228	1
93	118	1
56	79	1
51	109	1
191	208	1
165	208	1
199	217	1
186	191	1
26	27	1
11	12	1
101	174	1
178	187	1
185	186	1
