38	43	2
23	23	9
54	54	3
25	57	1
32	32	3
44	45	1
24	24	3
67	67	8
45	46	3
34	38	1
98	99	2
42	43	2
36	37	2
82	90	1
76	76	13
75	76	1
76	77	7
69	69	4
67	104	1
99	99	8
53	53	6
63	63	5
58	102	2
72	102	1
57	57	7
54	100	1
43	43	2
106	106	3
65	65	6
30	37	1
43	83	1
79	79	6
54	55	1
37	37	4
64	64	7
45	45	4
62	62	2
53	66	2
92	94	1
74	74	8
89	91	1
94	95	3
83	90	1
42	106	1
75	103	3
89	92	1
46	56	2
85	85	3
69	70	2
82	83	3
84	86	1
67	68	3
88	88	5
58	58	5
62	64	2
78	78	12
70	70	7
68	68	6
27	28	3
34	34	6
29	29	5
45	50	2
52	100	1
61	62	1
43	50	1
90	90	4
94	94	6
84	84	3
55	68	1
58	67	1
32	35	1
53	74	1
47	48	3
46	46	2
27	27	4
35	94	1
61	75	1
103	103	3
35	36	2
47	47	2
96	96	6
90	103	1
85	87	2
32	60	1
20	86	2
85	97	2
40	40	4
57	97	1
91	91	2
66	66	3
87	87	3
68	106	1
41	41	3
41	43	1
72	91	1
102	103	1
104	104	7
77	77	5
45	49	1
105	105	3
98	98	2
73	73	2
56	100	1
101	101	5
25	83	1
59	59	6
51	52	5
90	91	2
55	79	1
56	56	2
71	71	2
71	73	1
46	47	2
36	36	2
96	100	1
33	33	3
50	52	1
24	35	1
36	38	1
57	69	2
96	97	1
39	39	3
28	28	2
21	21	3
72	72	5
97	99	5
48	65	1
45	47	1
25	27	1
45	78	1
40	41	2
20	20	2
82	85	1
39	51	1
25	47	2
93	93	1
95	95	3
80	81	3
54	64	1
26	27	1
64	81	1
31	57	1
25	25	2
39	40	1
80	80	2
83	86	3
97	98	2
71	93	1
93	100	1
42	42	1
62	63	2
33	34	3
94	104	2
97	97	3
83	107	1
55	55	2
51	51	4
84	87	1
49	49	3
24	25	2
50	51	2
78	97	2
102	102	3
25	26	2
63	88	1
29	30	1
73	74	1
43	68	1
27	29	1
52	52	6
72	92	1
75	75	4
53	88	1
91	92	2
74	78	1
67	101	1
38	39	1
58	101	1
72	101	2
100	100	3
54	73	1
76	103	1
21	79	1
32	37	1
66	68	1
60	60	5
81	81	2
71	72	1
55	56	3
45	65	1
51	68	1
91	105	3
32	36	1
30	30	6
52	88	1
58	81	1
51	53	1
65	66	2
48	48	2
51	55	1
60	95	1
96	99	1
65	93	1
97	104	1
51	54	1
35	65	1
35	35	4
25	77	1
87	99	1
34	94	2
65	69	1
52	71	1
42	50	1
31	64	1
93	94	1
69	91	2
70	71	3
65	102	1
29	43	1
35	93	2
78	80	2
73	90	1
58	68	1
77	82	1
45	79	1
43	54	1
92	105	1
83	83	2
65	67	1
99	100	1
26	26	2
59	60	3
85	86	3
77	92	1
52	54	1
61	61	3
73	77	1
80	82	1
77	103	1
22	22	2
66	67	2
91	95	1
41	44	1
80	89	1
32	34	1
76	102	1
70	76	1
89	97	1
38	49	1
98	103	2
92	106	2
100	105	1
85	107	1
92	92	2
49	83	1
49	64	1
79	99	1
29	35	1
83	88	1
44	46	1
75	77	2
36	50	1
89	89	3
63	67	1
52	53	1
101	102	2
55	88	1
31	33	1
50	88	1
44	44	1
86	94	1
85	94	1
82	96	1
52	64	1
24	34	1
88	96	1
37	49	1
50	50	1
40	79	1
34	35	1
38	44	1
74	90	1
101	103	1
55	81	1
45	106	1
64	78	2
34	54	1
82	82	1
77	101	1
30	57	1
39	45	1
92	96	1
74	76	1
39	66	1
80	97	1
31	31	1
40	50	1
59	75	1
77	78	1
68	70	1
25	28	1
31	36	1
61	65	1
80	85	1
34	81	1
81	95	1
55	87	1
59	71	1
95	99	1
43	62	1
91	102	1
27	56	1
38	38	1
60	61	1
95	97	1
