0	1	1
118	118	3
49	51	1
13	13	2
8	8	1
16	16	5
110	110	2
117	117	2
90	90	1
96	121	2
73	73	8
103	103	2
64	64	1
69	69	1
37	37	1
91	92	2
27	27	4
15	15	4
17	17	3
133	133	2
68	69	2
6	6	5
13	31	2
127	127	4
105	105	2
85	85	4
123	123	5
35	35	3
45	45	5
25	28	1
10	10	3
102	102	2
134	134	3
76	76	1
27	30	1
89	89	1
36	36	1
63	64	2
37	38	1
113	115	1
26	26	1
67	67	4
77	77	4
28	30	1
33	33	2
71	71	1
86	86	4
111	112	1
25	132	1
82	82	1
61	61	4
80	105	1
5	5	3
78	80	2
64	65	2
82	85	1
94	125	3
13	14	1
86	95	2
84	85	2
65	65	6
122	122	2
124	124	3
72	72	5
74	74	1
34	34	4
19	19	2
68	68	4
126	126	2
56	56	2
11	11	1
111	111	2
34	36	2
121	121	1
44	45	3
104	106	1
115	115	1
61	107	1
40	41	2
57	100	1
111	120	2
120	120	2
87	88	2
88	88	1
114	116	1
0	0	3
2	2	2
96	98	1
32	33	1
34	62	1
60	60	2
47	47	1
18	19	1
22	22	2
72	73	1
0	2	1
61	74	1
119	120	1
60	61	1
12	12	2
106	107	2
40	89	1
17	34	1
133	134	1
125	125	4
46	46	2
14	44	1
63	63	5
57	57	3
38	38	2
25	25	1
9	9	4
14	15	1
69	71	1
43	43	1
20	22	2
20	21	3
44	44	1
95	95	1
130	130	5
70	70	3
102	131	1
27	28	1
116	116	2
84	84	1
112	112	2
84	127	3
18	44	1
48	48	1
93	133	1
73	76	1
119	119	1
100	100	2
39	42	1
123	130	1
31	35	2
62	62	1
27	35	1
108	110	1
4	4	1
25	26	2
18	18	1
86	126	1
114	115	1
16	43	1
23	23	1
29	30	1
113	114	1
75	75	3
96	96	1
109	111	3
109	126	1
1	1	2
31	31	1
114	114	1
1	71	1
14	16	1
69	74	1
46	47	2
113	117	1
48	50	1
15	16	2
107	108	1
103	105	1
30	30	2
56	57	1
79	79	1
26	29	1
33	34	1
94	95	1
2	75	1
45	46	1
66	66	1
57	78	1
19	126	1
31	32	1
83	83	1
6	7	1
10	11	1
21	21	1
119	124	1
107	120	1
20	20	1
