102	102	4
208	208	1
179	179	2
19	22	1
136	136	1
175	175	3
113	113	3
81	81	2
101	101	3
217	232	1
192	192	2
164	164	6
219	219	4
119	120	1
58	58	1
66	153	1
203	203	4
34	34	1
135	135	3
109	109	1
17	18	2
12	12	2
214	215	1
171	203	1
104	105	2
137	225	1
31	54	2
24	24	1
169	171	1
207	207	2
152	187	1
126	126	5
9	10	1
169	169	3
74	74	2
167	167	1
210	210	2
176	176	2
46	232	1
3	6	2
201	201	1
157	192	1
58	231	1
192	196	1
46	62	1
11	20	1
197	197	1
175	179	1
206	206	5
21	41	1
208	217	1
173	173	5
227	227	2
3	3	4
5	5	1
121	121	3
96	97	2
35	35	2
112	112	1
151	151	3
28	29	3
145	145	2
8	168	1
79	79	1
58	59	2
140	140	3
226	226	2
53	53	5
184	185	1
61	65	1
65	65	3
12	20	1
230	231	1
181	182	1
48	54	1
60	60	2
1	71	1
86	86	2
69	70	3
21	48	3
46	46	3
157	157	1
39	39	2
37	37	4
43	60	1
17	17	1
98	98	2
157	158	1
15	75	1
41	41	1
23	31	1
182	182	3
238	241	1
30	30	1
64	70	1
59	59	2
137	141	1
123	123	1
43	64	2
105	106	2
172	172	2
97	97	3
230	230	1
12	15	1
193	193	1
51	52	2
154	154	2
7	41	2
49	51	1
79	83	1
7	7	2
31	31	5
23	23	2
141	142	1
167	168	3
122	122	2
166	167	1
99	112	1
121	122	1
15	16	2
155	155	1
102	120	1
218	218	1
117	117	3
191	198	2
152	182	1
115	116	3
225	225	3
162	164	1
183	185	1
64	64	3
170	187	1
13	13	2
184	184	2
181	181	3
240	240	2
63	238	1
209	209	2
96	96	2
81	82	1
149	149	1
71	71	2
224	231	1
220	220	1
137	137	2
57	57	1
152	153	2
217	217	2
26	32	1
51	51	1
224	224	1
141	141	1
33	34	1
44	45	1
215	215	1
61	61	1
99	99	1
43	43	1
62	62	1
18	18	1
114	121	2
160	218	1
1	1	3
15	15	3
106	106	1
180	180	1
207	208	1
57	60	1
188	188	2
48	48	2
223	223	2
138	140	1
174	174	2
172	173	1
81	83	3
24	40	1
2	16	1
146	149	1
4	4	3
113	122	1
186	187	2
56	57	1
127	152	1
128	128	2
59	224	1
146	146	4
28	28	1
198	198	2
146	147	1
118	122	1
150	161	1
85	85	1
118	119	2
135	178	1
27	27	1
55	55	1
70	70	1
198	206	1
109	110	1
72	72	1
190	190	1
33	33	1
20	20	1
202	202	4
110	110	2
133	140	1
144	144	2
40	40	2
156	156	1
207	209	1
195	224	1
160	160	2
153	156	1
183	183	4
25	33	1
42	42	1
212	229	1
4	5	1
196	196	2
74	219	1
31	34	1
136	137	1
72	73	1
90	96	1
200	201	1
12	14	1
76	79	2
45	232	1
146	163	1
212	212	1
67	220	1
114	115	1
129	129	1
125	125	1
173	174	2
95	176	1
120	122	1
92	139	1
200	200	1
19	19	2
158	158	3
199	199	1
187	188	1
158	159	2
177	177	1
137	143	1
132	135	1
38	39	1
170	170	1
155	160	1
186	186	2
163	163	1
155	158	1
103	103	1
48	201	1
167	215	1
54	58	1
2	2	1
171	171	1
123	124	1
26	45	1
223	224	1
105	105	1
55	56	1
16	16	1
40	85	2
85	86	1
50	50	1
147	148	1
112	173	1
98	99	1
151	164	1
32	49	1
76	76	1
0	1	1
145	146	1
153	155	1
132	152	1
216	219	1
158	160	1
164	165	1
150	151	1
153	154	1
3	10	1
101	102	1
99	100	1
14	14	1
134	134	1
11	12	1
156	157	1
35	37	1
44	64	2
113	120	1
125	138	1
231	231	1
230	232	1
138	139	1
