143	143	4
198	198	2
32	33	1
236	236	1
40	40	2
33	33	1
150	150	2
128	128	3
209	217	1
121	123	1
179	179	3
184	184	2
171	173	1
157	167	1
55	56	1
6	6	2
185	185	4
6	7	1
67	116	1
14	15	1
227	227	1
144	148	1
220	220	1
180	181	1
49	77	1
27	27	6
73	73	3
65	85	1
120	120	4
171	171	2
21	21	2
166	168	1
62	62	3
28	28	2
56	56	2
15	15	4
133	133	2
167	167	3
217	217	2
151	189	1
152	157	1
130	130	3
19	19	1
76	76	2
2	2	4
158	158	5
47	47	1
61	61	6
48	48	2
179	180	2
3	3	2
113	113	2
218	218	2
17	18	1
230	230	1
63	63	1
5	5	2
9	9	4
32	32	2
166	166	2
22	22	2
220	221	1
86	86	2
4	4	3
215	215	1
107	107	2
241	241	2
65	68	1
11	11	1
37	37	2
175	175	2
237	240	1
103	105	1
162	162	1
163	164	1
136	136	1
65	103	1
72	72	4
149	149	3
214	214	2
112	233	1
99	100	1
178	178	1
198	199	2
39	39	2
71	72	1
65	65	2
123	127	1
179	190	1
31	31	1
180	183	2
136	139	1
36	36	2
101	101	2
122	122	2
240	241	1
118	118	2
30	30	3
179	213	1
105	153	2
38	38	1
66	66	1
39	40	1
54	54	1
202	202	4
41	41	2
196	196	2
165	167	1
0	0	2
129	129	1
152	173	1
19	41	1
25	25	2
97	97	3
228	229	3
1	3	1
161	161	1
28	29	1
20	21	1
151	151	1
141	141	3
235	235	2
173	173	3
187	187	1
180	182	1
51	164	1
119	119	2
59	217	2
25	47	1
55	55	1
43	43	5
12	14	1
105	106	1
238	238	1
232	241	2
168	168	2
239	239	1
222	224	1
76	78	1
217	220	1
152	204	1
129	133	1
101	102	1
204	205	1
193	193	1
26	26	2
98	99	2
116	117	2
176	176	1
152	160	1
177	202	1
233	233	1
17	17	1
16	16	2
40	41	1
82	83	1
106	108	1
131	131	1
12	71	2
200	200	2
146	146	2
201	201	1
174	176	1
68	68	2
218	219	1
68	111	1
201	202	1
172	172	3
167	168	1
30	31	1
121	127	1
18	18	1
166	167	1
124	126	1
154	154	2
157	157	1
138	138	1
191	196	1
29	29	1
231	231	3
69	69	1
176	191	1
88	88	1
21	39	1
137	137	2
204	204	1
77	79	1
26	27	1
114	118	1
177	177	3
226	229	1
178	180	2
66	67	1
226	227	1
152	153	1
153	153	3
159	159	1
172	173	1
241	242	1
2	5	1
10	10	1
69	70	1
183	208	1
242	242	1
127	128	1
37	38	1
55	73	1
80	80	1
111	145	1
13	13	1
83	83	1
180	226	1
4	6	1
102	102	3
158	160	1
82	82	1
47	49	1
52	55	1
126	126	1
181	182	1
10	11	1
117	117	1
197	197	1
5	6	1
1	23	1
174	174	1
3	4	1
200	215	1
42	45	1
139	149	1
203	203	1
165	165	1
85	85	1
195	195	1
64	64	2
150	151	2
46	47	1
71	71	1
8	8	1
170	171	2
121	121	1
224	224	1
141	143	1
130	172	1
203	204	1
206	208	1
182	182	1
86	203	1
124	125	1
142	142	1
222	223	1
139	139	1
184	188	1
7	14	1
161	165	1
219	219	1
31	32	1
125	126	1
208	208	1
229	229	1
134	134	1
190	190	1
74	74	1
4	5	1
108	109	1
170	170	1
236	237	1
18	33	1
72	170	1
169	185	1
114	116	1
157	158	1
171	172	1
98	98	2
1	1	1
