113	118	1
17	17	6
27	31	1
37	37	4
168	168	4
109	109	2
82	83	2
140	140	4
27	27	4
1	1	7
72	72	2
50	50	3
172	174	2
51	51	2
68	73	2
8	8	8
11	13	1
85	85	2
40	40	10
22	25	3
146	147	7
54	54	3
47	47	8
52	52	2
174	176	1
155	155	6
190	190	3
189	189	4
192	192	8
42	42	5
193	194	3
170	170	3
29	29	7
119	128	1
5	8	3
26	26	8
10	11	1
33	34	1
113	115	1
166	166	4
169	169	2
64	65	2
109	111	3
155	156	6
84	84	3
95	95	3
3	3	6
1	3	2
5	5	8
81	81	2
30	32	2
30	30	3
21	21	11
99	99	2
113	113	5
19	19	2
61	61	3
95	96	1
55	67	1
8	30	1
178	185	1
148	149	1
164	164	2
21	36	1
152	152	2
6	6	3
89	163	1
129	130	6
37	42	1
51	52	1
168	169	1
126	127	3
58	58	3
66	71	1
86	86	2
110	110	1
56	56	6
22	22	8
184	185	1
188	188	6
162	162	5
193	193	8
17	18	3
161	163	4
107	107	6
154	169	1
55	66	2
13	13	9
2	2	5
16	17	2
31	31	2
183	183	7
182	182	4
175	181	1
28	28	7
23	23	5
178	178	6
35	35	8
39	39	10
59	66	1
65	66	1
160	164	1
13	14	3
194	194	8
33	36	2
75	77	1
165	166	5
93	94	2
38	38	11
158	159	3
154	155	2
163	164	2
144	144	5
46	46	11
183	184	1
15	15	5
96	98	1
34	35	2
178	179	1
195	196	4
53	53	1
37	182	1
131	131	3
136	148	2
161	162	4
114	114	6
33	101	2
160	165	3
148	148	9
146	146	6
116	117	3
10	10	6
28	32	1
77	77	4
16	16	9
69	69	3
138	138	2
130	131	2
178	181	2
159	159	4
156	156	7
34	86	1
109	159	1
9	9	4
127	127	4
158	158	9
196	196	5
135	135	4
55	57	1
192	193	3
160	160	3
59	60	1
89	89	3
24	24	6
20	30	1
170	183	1
112	112	7
182	184	1
69	71	1
23	24	2
184	184	4
38	39	4
18	21	1
119	120	1
94	94	2
144	147	1
190	191	1
60	60	2
38	42	1
141	151	2
116	116	3
101	101	7
18	18	4
45	45	5
191	191	1
25	25	2
105	107	1
179	180	1
128	128	1
162	163	2
4	4	6
71	71	3
2	25	1
100	100	4
136	149	2
121	121	2
66	67	4
180	180	2
182	183	4
41	41	6
35	75	2
31	185	1
17	23	1
187	188	1
33	33	7
127	128	1
186	186	1
63	87	1
114	118	1
145	145	4
94	95	3
133	133	3
148	163	1
7	7	7
189	190	1
48	50	2
171	172	1
15	16	3
5	88	1
25	27	1
174	174	1
55	55	5
21	22	3
115	115	2
11	14	1
76	77	2
32	33	4
0	5	1
66	66	1
25	26	3
114	115	1
74	76	1
98	99	2
17	87	1
79	86	1
186	195	1
31	40	2
11	158	1
150	152	2
126	126	2
102	102	5
85	86	2
175	177	1
179	179	4
153	154	2
130	130	4
173	173	8
105	115	2
57	57	2
143	143	3
181	186	1
125	138	1
47	56	1
162	178	1
49	49	3
102	106	1
82	84	2
139	139	2
93	186	1
82	85	2
97	97	2
40	41	4
11	11	3
134	134	4
48	49	2
37	71	1
39	40	2
96	138	1
174	179	2
34	34	7
79	79	4
6	7	3
9	10	1
104	104	2
46	65	1
28	34	1
69	75	1
172	172	1
183	196	2
122	122	5
54	55	1
69	76	1
181	181	5
12	12	1
14	17	2
17	31	1
151	178	1
175	175	4
78	78	3
151	152	1
183	195	2
32	37	1
96	116	1
115	116	4
118	119	3
144	145	3
179	181	1
27	28	1
107	108	1
177	177	5
14	14	1
15	39	1
94	193	1
43	50	1
69	70	1
136	158	1
163	165	1
45	46	2
115	131	1
128	132	1
67	67	3
1	2	3
29	30	3
44	44	5
140	151	1
138	142	1
46	64	1
48	48	1
132	133	1
68	76	1
95	102	1
172	177	1
81	82	1
122	167	2
157	157	1
125	125	2
113	131	1
150	150	3
154	170	1
103	104	2
7	88	1
97	98	2
50	51	1
165	165	1
101	116	1
73	73	1
154	161	2
41	44	1
54	71	1
20	20	2
189	191	1
132	132	1
118	118	1
167	179	1
73	81	1
185	186	1
176	177	1
18	19	4
32	32	2
36	36	4
98	98	4
17	86	1
72	73	1
37	39	1
83	83	3
0	27	2
35	36	1
177	180	1
8	9	1
101	102	1
43	44	1
79	80	1
84	85	1
119	119	6
32	45	2
123	125	1
128	138	1
80	80	1
19	22	1
124	124	2
11	12	2
117	118	1
43	43	1
7	8	1
131	133	1
56	57	2
122	141	1
161	175	1
108	110	1
167	167	1
151	177	1
149	149	2
99	100	3
24	25	1
23	30	1
2	3	3
0	0	3
87	87	2
103	105	1
44	45	2
188	189	1
20	22	3
173	193	1
150	155	1
86	87	2
96	97	2
5	6	2
175	176	2
195	195	3
120	120	2
137	137	1
102	103	1
109	113	1
188	192	1
147	148	1
155	166	1
149	153	1
180	181	1
78	79	1
177	178	1
87	101	1
103	103	1
11	37	1
127	197	1
17	37	1
151	151	2
13	39	1
57	58	1
28	31	1
78	86	1
143	148	1
164	177	1
93	136	1
17	38	1
34	36	2
69	73	1
104	105	1
27	30	1
110	177	1
122	123	1
62	62	1
87	88	1
147	163	1
147	147	3
179	191	1
61	62	2
9	12	1
176	176	1
39	44	1
181	190	1
111	111	2
142	142	2
23	25	1
26	36	1
171	171	3
32	48	1
12	45	1
121	149	1
115	118	1
186	187	1
107	134	1
25	42	1
117	117	2
28	35	1
141	143	1
9	179	1
146	158	1
2	4	1
166	167	1
135	136	1
0	1	1
104	190	1
153	153	2
31	35	1
154	166	1
63	64	1
36	37	2
109	110	1
36	77	1
165	167	1
55	56	1
23	40	1
163	163	2
172	173	2
165	193	2
65	65	1
76	78	1
69	174	1
142	143	1
74	75	1
106	106	1
26	27	1
30	31	2
59	61	1
148	158	1
111	112	1
109	158	1
15	37	1
89	114	1
88	88	2
164	176	1
136	136	1
5	7	1
143	145	1
123	124	1
71	183	1
22	24	1
13	45	1
145	146	1
31	39	1
185	185	1
187	187	1
34	87	1
113	114	1
19	20	1
24	37	1
178	190	1
45	56	2
161	161	1
0	3	1
71	73	1
53	54	1
37	72	1
13	42	1
154	182	1
39	43	1
12	13	1
122	194	1
108	108	1
11	38	1
173	175	1
5	24	1
94	96	1
