87	87	2
85	85	2
41	41	3
147	147	2
167	167	1
55	55	2
6	6	5
133	133	4
47	47	4
76	76	2
170	170	3
112	142	1
123	123	8
95	95	3
66	172	1
149	157	2
133	137	2
149	150	1
137	137	6
22	22	3
141	141	2
100	100	3
7	8	3
38	39	3
66	67	1
13	13	2
4	5	1
125	125	2
106	111	1
37	37	8
25	54	1
19	19	1
130	130	5
82	82	7
152	152	5
57	57	4
61	61	3
158	158	3
82	85	1
177	188	1
31	41	1
58	61	1
83	84	2
182	188	2
172	172	1
113	113	3
71	71	4
33	54	1
171	172	1
85	143	1
9	9	2
171	173	1
127	128	1
157	158	3
37	53	1
126	126	3
129	129	3
73	73	4
35	35	2
177	184	1
153	153	4
182	182	2
10	124	1
70	104	1
139	140	1
58	59	2
44	44	3
145	145	4
154	154	5
43	53	2
53	53	2
178	178	3
20	20	1
14	29	1
2	2	9
187	187	3
10	10	3
148	148	7
5	5	4
25	80	1
33	33	2
19	20	1
146	147	4
109	109	5
96	96	3
108	108	3
93	107	2
58	58	5
79	79	3
187	190	1
102	102	3
63	63	2
127	144	1
190	190	2
122	147	1
114	114	5
21	60	1
179	179	4
59	60	1
13	61	1
91	91	4
89	110	1
128	132	1
135	135	3
124	126	1
119	120	4
45	47	1
84	86	1
43	45	1
57	62	2
148	154	1
56	56	4
0	164	1
122	122	1
87	88	2
38	38	4
58	60	3
59	85	1
151	151	3
17	18	3
48	49	1
84	84	2
74	103	1
106	106	1
66	68	2
121	121	1
171	171	2
112	118	1
86	86	6
143	143	3
28	28	1
15	15	4
4	4	1
177	177	2
114	124	1
155	155	2
40	40	3
21	21	3
56	57	2
167	169	2
54	54	5
19	46	1
176	176	3
161	161	1
98	121	1
27	27	3
56	141	1
84	143	2
96	97	1
142	144	1
72	72	3
105	106	2
30	32	2
26	26	2
74	74	7
80	80	5
151	153	2
115	115	1
134	135	1
40	57	1
30	33	1
60	62	1
11	11	5
60	60	1
33	73	2
105	105	1
120	120	3
81	124	2
27	29	1
28	47	2
62	65	1
16	148	2
37	41	1
176	177	2
94	95	1
23	23	6
132	134	3
185	186	2
175	176	3
117	118	2
112	114	1
150	152	2
12	31	1
127	164	1
155	159	1
16	17	1
16	16	3
67	68	1
64	64	1
131	131	3
148	156	1
59	59	1
164	164	1
1	1	4
0	1	1
174	174	2
116	177	1
23	28	1
93	94	1
188	190	1
18	18	4
4	38	2
38	41	1
3	3	3
142	142	3
68	106	2
12	13	2
97	98	3
13	14	3
183	184	3
155	157	1
15	31	1
144	151	1
167	177	1
18	34	1
186	186	5
144	145	2
150	150	1
157	157	1
146	146	4
116	116	2
152	182	1
169	170	1
21	31	1
185	185	1
80	111	2
0	153	1
93	93	1
27	28	1
86	90	1
0	69	1
48	48	1
89	89	4
67	121	1
11	12	2
18	19	1
52	53	1
6	7	1
18	25	1
124	124	3
107	107	3
40	79	1
110	159	1
36	36	1
7	7	3
35	36	1
84	85	1
66	66	2
153	155	1
68	68	3
20	24	1
46	46	1
156	156	1
90	129	2
78	78	3
140	144	1
91	92	1
86	95	1
122	152	1
138	138	2
17	17	2
181	181	3
0	0	1
83	83	1
12	12	1
73	74	2
39	39	1
90	90	1
117	117	2
20	21	2
71	74	2
17	24	1
110	111	1
160	160	1
178	179	2
31	32	1
92	92	1
99	99	3
141	174	1
183	183	1
102	103	1
10	11	2
68	69	1
91	93	1
124	127	1
180	180	2
145	158	1
88	114	1
86	87	1
131	132	1
121	150	2
43	46	1
168	168	1
151	169	1
97	137	1
119	119	1
188	188	1
16	18	1
46	47	1
78	138	1
122	141	1
68	103	1
101	104	1
92	107	1
97	99	1
56	83	1
15	33	1
111	111	2
78	80	1
81	184	1
140	141	1
8	8	3
42	42	2
30	30	1
140	140	1
78	79	1
189	189	2
147	152	1
103	129	1
130	131	1
59	65	1
151	152	1
125	126	1
112	116	1
3	5	1
43	44	2
108	109	1
101	106	1
75	75	1
69	78	1
36	37	1
55	57	1
134	134	2
88	89	1
21	22	1
159	160	3
172	179	1
171	179	1
138	139	1
149	182	1
81	82	1
100	101	1
13	71	1
116	119	1
119	130	1
43	43	2
98	98	1
4	6	1
87	140	1
103	103	3
186	187	1
71	104	2
77	79	1
29	33	1
63	91	1
62	62	1
148	149	1
118	121	1
139	139	1
149	151	1
81	81	1
36	43	1
59	66	1
149	183	1
118	118	1
74	76	1
67	67	1
32	33	1
111	113	1
106	116	1
104	105	1
145	186	1
63	138	1
116	117	1
142	147	1
123	127	1
104	106	1
152	186	1
25	25	2
87	113	1
86	150	1
141	145	1
125	129	1
66	118	1
128	128	1
101	105	1
188	189	1
12	44	1
65	65	1
10	12	1
165	188	1
113	115	1
97	97	1
88	88	1
