66	67	3
117	117	4
112	112	1
55	55	3
13	15	3
116	116	5
142	143	3
108	108	5
16	16	4
84	104	1
3	3	5
83	83	2
63	63	2
49	50	5
139	139	3
112	122	1
105	105	4
67	67	3
87	87	3
21	22	1
50	50	2
127	127	6
105	107	1
26	26	4
92	92	1
82	82	3
118	118	2
33	34	2
84	107	1
113	114	2
5	24	1
61	61	7
73	79	1
5	52	2
127	128	2
28	29	2
121	134	1
38	38	4
54	55	1
33	35	1
145	145	4
31	32	3
58	58	2
104	104	1
135	135	5
18	19	3
140	140	6
133	134	1
25	25	2
62	62	6
73	75	2
57	58	2
110	123	2
63	79	1
1	1	3
114	114	1
40	40	3
87	90	2
88	88	1
70	71	2
91	91	3
32	32	1
91	92	2
96	97	1
36	36	1
60	71	1
10	10	3
60	63	1
84	84	1
115	119	2
47	48	1
129	130	1
49	49	4
67	68	2
56	57	2
111	111	3
21	21	6
112	113	2
0	0	1
95	95	4
96	114	1
142	142	1
123	133	1
100	100	2
17	26	1
97	97	1
141	141	1
125	125	2
135	136	2
69	69	2
107	108	1
65	66	1
51	51	2
130	130	1
128	128	3
27	97	1
47	47	1
24	24	4
122	140	1
99	99	3
40	41	1
136	136	5
128	129	3
36	43	2
122	123	1
65	69	1
53	53	2
132	132	4
141	142	2
83	88	1
9	9	2
136	137	1
15	16	3
30	59	1
144	145	1
101	101	5
96	96	3
62	63	1
80	91	1
27	37	1
102	127	1
88	90	2
29	29	1
17	17	3
101	117	1
84	86	2
95	116	1
0	19	2
8	8	1
56	56	2
124	124	3
131	131	2
4	5	2
72	102	1
39	39	2
68	70	1
19	38	1
51	52	1
73	73	1
5	5	2
83	84	1
6	6	1
20	20	5
37	37	1
110	110	3
93	93	2
82	87	1
104	107	2
75	75	1
86	87	1
55	56	3
52	52	2
140	141	1
43	48	1
52	66	2
59	59	1
6	80	1
134	134	2
8	10	1
80	80	1
102	103	2
10	21	1
110	113	2
146	146	2
25	40	1
64	71	1
33	33	1
23	24	1
89	89	2
50	52	1
140	142	2
106	106	1
48	48	5
121	121	1
143	143	1
125	129	1
59	60	2
74	74	3
4	4	1
41	56	1
94	96	1
42	66	1
64	64	1
75	76	1
126	126	2
103	103	1
64	65	2
3	4	1
76	77	1
77	78	3
18	18	3
31	31	1
119	119	1
27	28	1
133	133	2
31	33	1
138	138	2
132	138	1
42	42	1
41	41	1
27	27	3
39	40	1
95	101	1
137	139	1
116	117	2
2	2	1
34	56	1
105	113	1
81	95	2
98	98	2
109	109	3
120	139	2
56	103	1
111	112	2
37	42	1
125	126	1
87	89	1
59	91	1
42	78	1
74	77	1
60	85	1
23	23	1
60	60	1
47	54	2
18	36	1
57	91	2
91	96	1
129	129	2
20	27	1
135	138	1
102	104	1
15	15	1
27	61	1
115	116	1
97	98	2
129	134	1
61	96	1
29	95	1
14	16	1
98	134	1
12	13	1
86	86	1
119	120	1
54	54	1
80	81	2
41	42	1
68	68	1
126	130	1
99	100	1
76	84	1
28	28	1
137	137	1
43	43	1
134	139	1
95	98	1
29	30	1
82	102	1
52	68	1
32	34	1
72	72	1
67	104	1
113	115	1
69	70	1
41	80	1
24	41	1
74	75	1
39	54	1
19	20	1
9	18	1
90	90	1
35	116	1
41	43	1
82	118	1
