77	77	4
51	52	2
80	85	1
66	66	2
127	127	6
108	108	4
44	55	1
97	97	3
21	21	4
30	30	5
136	136	10
117	135	1
46	46	5
79	79	3
90	90	3
141	153	1
48	48	2
10	10	5
1	2	2
75	75	3
44	44	2
42	68	1
122	153	2
67	111	1
151	151	5
138	138	7
33	137	1
145	145	4
20	20	2
125	125	7
127	143	2
20	21	1
15	15	5
73	73	7
47	47	1
28	28	3
132	132	9
70	111	1
155	155	3
94	94	3
123	143	1
77	80	1
124	124	7
50	50	2
113	114	3
78	78	4
5	5	1
150	153	1
27	28	2
9	9	1
101	101	1
81	84	2
62	62	2
85	90	2
75	99	1
11	80	1
118	118	6
134	156	2
114	115	4
129	129	4
124	136	2
125	126	2
143	148	1
110	111	2
89	90	1
3	37	1
26	27	2
91	91	3
143	143	3
88	88	5
39	39	3
63	63	5
80	81	2
117	117	4
140	140	8
152	153	1
146	152	1
4	5	1
31	56	1
103	103	1
135	157	1
138	148	1
106	106	2
140	141	2
36	46	1
78	80	1
25	25	1
39	40	1
12	13	1
107	107	5
139	139	6
104	104	9
22	92	1
9	20	2
98	98	3
155	156	4
18	20	1
130	131	2
14	19	1
68	68	5
126	126	4
116	118	1
120	120	6
16	16	6
14	14	1
112	112	3
99	99	3
158	158	3
82	87	1
157	157	7
16	28	2
71	71	4
84	117	1
92	94	2
147	157	1
105	128	1
111	111	2
121	124	1
98	127	1
143	150	1
92	103	2
25	30	1
41	43	2
122	122	6
92	92	3
83	85	1
113	113	1
152	152	1
149	149	2
33	41	1
92	93	3
75	98	1
13	14	3
70	71	3
123	123	5
88	95	1
67	67	5
86	92	2
32	38	1
73	74	3
27	27	1
131	131	4
110	110	3
19	20	1
108	109	2
40	41	1
22	22	3
7	7	4
41	41	3
114	114	6
119	119	5
71	140	1
129	142	1
82	110	2
124	125	2
20	35	1
142	142	3
96	96	3
33	33	6
18	108	1
135	135	4
156	156	4
18	21	1
102	103	1
129	132	1
13	17	1
151	152	1
72	73	1
49	49	2
115	123	1
2	2	1
65	65	2
120	121	4
128	128	3
130	130	6
38	39	2
32	33	2
13	110	1
95	95	1
4	4	5
148	148	4
97	128	1
45	63	1
139	140	1
116	116	2
17	18	2
137	140	2
85	85	1
45	45	1
83	83	6
61	119	1
134	134	5
71	72	1
109	109	2
116	132	1
33	36	2
137	137	5
14	21	1
141	141	4
128	129	2
22	43	1
121	121	3
154	154	3
32	35	1
115	115	3
56	56	1
52	53	1
75	92	1
150	150	5
118	119	1
106	149	1
37	43	1
104	117	2
6	6	1
81	81	2
132	133	1
87	87	2
108	110	1
36	36	1
45	47	2
78	79	4
93	93	2
119	153	2
144	144	3
84	94	1
122	123	3
111	112	1
114	155	1
0	4	3
17	17	2
146	146	5
105	105	1
38	38	1
117	136	1
84	84	5
82	82	2
64	64	2
85	92	1
70	110	1
2	157	1
138	139	3
19	48	1
86	134	1
29	29	2
135	137	1
145	147	1
124	154	1
106	107	1
117	118	1
117	120	1
31	32	1
133	133	1
120	123	1
48	49	2
114	144	1
43	43	1
70	94	2
12	12	1
125	147	2
131	150	1
134	141	1
34	34	1
31	31	2
84	86	1
109	111	1
52	85	1
144	147	1
116	119	1
124	141	1
23	23	4
143	147	2
126	136	1
118	120	2
140	154	1
50	51	1
154	155	1
84	85	2
129	130	1
101	102	1
107	140	1
88	100	1
37	38	3
93	111	1
127	140	1
19	19	1
97	125	1
121	144	1
71	153	1
11	11	2
14	15	2
140	142	1
13	13	1
16	20	1
2	3	1
89	89	1
108	112	1
100	100	2
127	133	1
79	120	1
96	118	1
90	93	1
67	68	1
17	37	1
137	154	1
109	110	1
91	127	1
36	132	1
5	6	1
17	19	1
18	18	1
65	133	1
119	120	1
147	147	1
114	138	1
153	154	1
142	148	1
8	9	1
137	149	1
96	107	1
23	24	1
24	24	1
34	35	1
27	29	1
11	23	1
52	52	1
63	64	1
35	36	1
26	26	1
86	137	1
86	86	2
116	117	1
79	81	1
139	157	1
17	38	1
108	111	1
40	94	1
55	55	1
20	22	1
112	142	1
3	4	1
133	134	1
7	8	1
18	144	1
95	96	1
7	151	1
