50	50	6
104	104	1
102	102	3
32	32	5
98	98	4
18	18	1
69	69	3
25	27	1
25	26	1
115	115	2
67	67	1
62	62	3
63	63	5
44	45	5
1	1	3
122	122	2
56	56	5
101	120	1
109	109	2
70	70	3
72	72	5
87	87	6
24	31	1
0	0	1
74	74	4
45	47	1
112	114	1
67	68	2
35	36	1
126	126	3
21	21	4
94	95	1
25	25	2
76	77	1
36	36	2
34	51	1
12	12	1
30	43	1
55	55	1
35	35	4
105	105	7
80	80	7
42	42	1
63	65	1
49	49	5
11	11	2
81	82	2
54	56	3
83	84	1
86	87	1
73	73	4
120	120	1
1	2	2
56	57	1
66	66	1
79	79	4
133	133	2
62	68	2
16	16	1
22	74	1
2	2	1
56	67	1
22	72	1
29	29	3
114	114	1
108	108	3
95	95	2
33	43	1
46	49	2
81	81	2
121	121	4
10	10	2
131	131	2
78	78	1
33	33	2
17	24	1
43	66	1
60	60	1
3	3	2
23	23	4
61	79	1
5	5	5
65	65	4
112	128	1
31	32	1
19	19	2
22	22	1
3	4	3
59	78	1
75	76	1
57	57	2
13	13	3
130	130	2
26	27	1
24	95	1
68	69	1
65	66	2
4	4	4
92	95	1
69	70	1
2	32	1
71	71	6
38	38	2
29	34	2
30	53	1
63	64	1
125	126	1
49	50	1
43	43	3
44	44	5
17	17	2
15	16	1
6	6	2
120	121	2
9	9	1
54	68	1
6	24	1
34	47	1
54	60	1
62	63	2
74	75	1
132	133	1
86	86	2
7	7	1
56	59	1
135	135	1
33	38	1
85	85	1
34	34	3
4	115	1
89	89	2
14	75	1
8	21	1
129	129	1
57	58	1
76	81	1
113	113	1
134	134	1
68	68	2
57	59	1
30	30	5
122	123	1
125	125	2
112	112	2
31	31	2
53	78	1
58	61	1
30	31	1
50	76	1
116	116	1
52	52	2
76	76	3
99	99	2
45	45	5
75	75	1
8	8	1
26	26	1
107	108	1
77	78	1
28	29	1
2	16	1
6	12	1
61	61	2
6	25	2
123	123	1
62	71	1
88	88	2
84	84	1
101	101	1
70	115	1
14	14	1
28	28	1
100	101	1
8	10	1
118	118	1
72	73	1
6	7	1
52	53	1
101	102	1
36	37	1
52	87	1
90	90	1
9	11	1
110	110	1
47	47	1
119	119	1
19	20	1
70	71	1
