59	85	1
14	15	3
54	55	1
140	141	1
39	40	6
97	97	5
58	58	6
40	40	6
18	18	6
67	67	6
37	37	11
16	16	13
87	87	6
81	81	5
73	73	4
32	33	2
15	15	11
101	141	3
101	101	5
77	77	5
88	89	2
56	56	5
93	93	4
34	34	2
99	99	5
140	140	9
19	19	5
18	20	1
124	125	1
60	60	2
22	27	1
6	6	5
52	52	7
92	94	1
49	49	4
64	67	1
28	28	7
121	121	5
91	91	7
96	96	5
85	121	1
116	122	1
0	0	8
119	119	6
143	143	3
12	12	5
31	31	10
90	90	5
115	115	6
37	42	1
73	74	2
132	132	4
14	37	1
66	66	2
84	85	1
105	105	8
17	17	4
98	98	9
41	50	1
124	126	1
129	129	3
38	38	4
59	59	7
27	37	1
33	34	3
84	84	4
110	110	5
92	93	2
86	87	1
65	66	2
80	93	2
68	68	5
83	83	3
127	133	3
109	120	2
25	25	4
100	100	7
13	13	6
26	26	3
27	28	3
23	28	1
94	94	6
6	38	1
62	69	1
17	18	2
8	8	6
78	80	1
142	142	4
27	27	12
126	126	8
76	76	4
134	134	3
111	112	1
0	3	1
128	128	7
113	113	8
107	107	7
123	123	8
89	89	5
79	135	1
26	27	2
128	140	1
57	57	4
82	82	5
10	10	3
29	29	4
21	21	10
120	121	4
30	33	1
77	105	1
118	119	2
125	125	7
67	141	1
64	64	2
104	104	8
27	30	3
96	97	3
144	144	1
143	144	3
53	61	2
133	133	6
106	106	5
55	110	1
41	41	10
75	76	2
20	21	3
107	117	1
112	113	1
82	83	1
136	136	6
0	1	2
28	99	1
17	36	1
56	80	1
70	70	7
115	118	1
77	79	2
116	116	4
63	63	4
122	122	3
118	118	12
59	63	1
62	62	4
78	85	2
108	116	3
119	128	1
31	55	1
124	124	6
111	111	6
108	108	2
4	5	1
135	135	5
104	135	2
82	98	1
76	77	1
74	102	1
69	69	4
33	33	5
74	74	2
121	136	1
29	37	2
9	10	3
15	17	2
9	97	1
18	19	2
141	142	4
37	76	1
61	61	3
71	71	3
29	54	1
95	96	3
87	89	1
61	62	3
101	102	1
50	113	1
97	98	2
123	125	1
4	4	6
109	109	1
6	13	1
41	95	1
68	93	1
43	43	6
121	132	2
137	137	3
95	95	4
32	32	5
99	100	1
123	124	2
139	139	5
5	5	3
11	11	7
2	2	2
60	78	1
20	24	2
58	59	2
135	139	2
99	101	2
36	36	4
120	132	1
49	50	3
130	136	1
23	23	8
40	41	2
145	145	3
104	140	1
10	98	1
25	26	1
132	134	1
130	131	2
47	47	3
9	11	1
78	79	5
59	79	2
2	19	1
131	131	7
113	114	1
89	90	2
70	71	3
23	27	1
114	136	1
54	54	7
40	61	1
48	48	4
127	127	3
107	109	1
104	105	1
75	75	3
15	23	1
92	92	4
49	62	1
39	39	3
80	80	4
42	42	1
131	134	2
22	22	11
30	30	2
50	98	1
128	130	5
53	54	2
24	52	1
91	103	1
110	111	2
110	141	1
136	138	1
104	111	1
128	139	2
96	145	1
122	123	1
114	124	1
20	20	5
72	72	4
66	78	2
24	34	1
129	141	1
66	68	2
74	75	1
38	57	1
87	88	2
72	82	1
39	41	1
91	92	2
62	63	3
72	88	1
120	120	2
9	9	6
129	130	2
121	123	1
13	27	1
75	77	2
85	85	1
13	32	2
138	139	2
83	84	2
110	131	1
36	66	1
1	1	2
68	69	1
105	131	1
102	102	8
130	130	1
71	87	1
25	29	1
14	16	1
91	131	1
55	55	3
69	72	1
109	114	1
16	18	1
115	119	1
134	136	1
101	106	1
90	117	1
8	10	2
35	35	3
8	28	1
141	141	7
112	112	2
6	40	1
119	121	1
3	3	2
80	82	1
83	137	1
6	68	2
73	83	1
113	115	2
32	34	4
37	38	3
71	72	3
87	91	1
128	129	1
78	78	4
22	23	1
68	111	1
144	145	2
130	140	1
114	115	1
114	114	1
18	42	2
5	47	1
79	79	4
126	127	2
110	112	2
85	87	2
88	88	1
118	121	1
2	59	1
28	29	1
8	61	1
33	35	1
5	43	1
111	113	1
73	102	1
127	132	2
61	63	1
36	37	2
146	146	3
145	146	1
38	105	1
63	64	1
1	6	2
69	70	1
27	29	1
21	41	1
118	135	1
142	143	1
43	57	1
15	18	1
17	38	1
11	29	1
124	134	1
109	111	3
11	33	1
31	32	1
32	58	1
82	105	1
50	52	2
3	4	1
24	25	1
116	117	2
14	14	2
93	94	1
53	56	1
19	20	1
125	130	1
117	121	1
65	70	2
109	110	1
135	136	1
41	96	1
89	121	1
62	105	1
138	138	2
21	37	1
20	61	1
80	105	2
139	140	1
94	123	1
100	131	1
50	50	2
61	103	1
127	131	1
125	143	1
131	135	2
101	103	1
31	33	1
78	112	1
38	39	1
112	116	1
86	90	1
43	70	1
89	93	1
12	13	1
73	90	1
131	132	2
41	128	1
41	42	1
117	120	1
108	115	1
63	73	2
50	51	2
112	115	1
40	48	2
80	91	2
14	55	1
53	79	1
1	31	1
103	103	4
110	117	1
90	91	1
5	42	1
53	53	1
72	83	1
37	60	1
59	61	2
10	29	1
104	109	1
63	84	1
58	87	1
136	139	1
5	14	1
78	86	1
66	108	1
130	142	1
106	114	1
66	92	1
16	138	1
63	102	1
2	4	1
136	137	2
24	24	1
97	99	1
127	129	1
42	97	1
10	25	1
92	113	1
48	49	1
96	115	1
54	66	1
126	141	1
119	135	1
89	104	1
40	47	1
110	140	1
53	67	1
26	38	1
14	17	1
13	38	1
50	78	1
62	133	1
33	58	1
107	121	1
10	41	1
107	133	1
88	92	1
129	131	1
130	134	1
3	64	1
27	56	1
107	110	1
121	139	1
84	123	1
5	24	1
42	96	1
59	60	1
8	9	1
121	141	1
126	143	1
