181	181	2
37	37	3
154	154	6
55	55	2
88	88	3
155	157	1
234	234	3
44	47	2
51	158	1
104	106	1
29	42	1
197	197	2
214	214	4
184	184	6
237	237	3
218	218	3
152	152	3
215	215	1
246	246	3
115	115	3
238	240	3
92	101	1
198	240	2
178	180	1
46	46	6
9	9	5
11	11	7
158	158	2
195	196	3
53	54	2
65	65	1
177	177	3
187	188	1
230	230	2
75	75	1
232	232	2
184	212	1
29	153	2
58	58	3
44	46	1
207	207	5
112	112	3
163	164	4
20	20	2
157	157	5
164	201	1
155	155	8
87	87	2
38	39	1
81	81	1
91	91	1
165	200	1
167	210	2
46	54	1
201	201	3
32	113	1
6	8	1
225	226	1
188	189	1
120	120	2
239	239	2
168	168	4
53	53	3
15	15	3
159	161	1
205	205	4
180	181	2
76	76	2
242	243	1
26	26	4
147	147	2
150	150	5
93	95	1
34	34	2
235	235	3
162	165	1
200	200	2
208	208	5
244	244	6
163	163	1
164	194	1
175	175	6
51	51	2
46	160	1
220	223	1
165	165	4
223	223	5
6	6	9
98	98	1
30	30	7
10	202	1
100	100	1
77	77	2
36	36	4
107	107	1
110	120	2
181	213	2
67	67	2
217	217	3
10	10	2
15	157	2
117	117	5
104	105	2
12	12	9
198	199	4
28	28	2
162	164	2
157	192	1
239	241	1
57	59	2
175	193	1
209	210	1
6	228	1
160	160	3
49	164	1
69	69	2
31	31	4
224	225	1
237	241	1
219	219	4
236	236	7
152	237	1
14	158	1
176	178	1
73	73	2
119	119	5
204	204	4
118	118	7
111	112	2
194	195	3
193	193	2
166	174	1
65	66	1
220	222	2
164	164	3
74	74	3
215	238	1
166	166	7
44	44	3
33	33	3
249	249	1
231	231	1
44	55	1
45	45	3
157	158	2
7	7	3
113	113	4
10	11	2
218	220	1
51	174	1
241	244	1
174	174	3
95	95	4
145	145	2
8	10	1
105	106	2
179	179	2
4	5	5
108	108	3
150	154	1
105	105	2
97	99	1
239	247	1
182	182	4
11	21	1
24	24	3
110	110	5
171	171	1
23	23	3
16	156	1
180	180	2
8	8	2
196	199	1
40	40	3
31	32	2
209	209	3
184	205	2
234	235	1
49	49	3
25	26	1
17	31	1
29	32	1
220	224	3
191	194	1
238	239	2
172	172	2
32	32	4
93	93	2
221	222	1
247	247	1
230	246	1
192	195	1
56	57	1
173	207	1
11	201	1
63	67	2
18	18	2
210	210	2
221	221	4
190	196	1
26	27	1
112	118	1
239	240	1
176	176	2
109	118	1
61	61	3
238	247	1
151	205	1
201	230	2
12	150	1
205	211	1
115	118	1
66	191	1
162	166	1
4	245	2
14	42	1
25	25	1
76	77	2
206	206	3
111	111	1
155	231	1
222	222	1
161	161	3
240	240	2
216	216	3
196	215	1
151	151	3
211	212	2
225	225	4
114	118	1
152	235	2
240	244	1
5	5	2
114	114	1
193	196	1
10	53	1
38	173	1
177	179	2
21	21	1
190	191	2
1	204	1
11	91	1
230	233	1
47	160	1
243	244	1
188	188	4
13	13	1
204	205	1
8	41	2
52	52	3
180	182	1
186	186	1
65	72	1
39	39	1
241	245	3
38	38	2
22	22	3
2	3	1
53	58	2
212	212	2
243	243	1
231	236	1
198	200	1
106	106	3
194	194	3
94	100	1
187	187	3
210	211	1
197	234	1
47	159	1
41	41	2
21	22	2
14	149	1
84	84	2
244	246	1
17	17	2
7	8	1
240	241	4
36	38	1
167	206	3
185	186	2
96	96	2
213	220	1
110	116	1
181	182	1
187	211	2
10	45	1
13	158	1
162	162	3
78	78	1
171	173	2
101	101	3
163	194	1
201	202	1
165	195	1
183	183	2
177	178	1
203	203	2
192	215	1
192	192	3
231	246	1
24	44	1
247	248	1
68	84	2
199	199	1
226	226	2
30	31	1
197	201	1
195	210	1
32	110	1
43	43	2
169	169	1
54	54	2
78	83	1
98	99	1
153	153	2
27	27	2
107	108	2
13	14	1
55	152	1
163	165	1
11	20	1
47	47	1
23	109	1
106	114	1
50	50	1
245	245	1
235	236	2
227	228	2
8	36	1
80	83	1
181	184	1
98	108	2
52	158	1
45	46	1
189	190	1
55	56	1
101	103	1
170	170	4
115	116	1
12	153	1
3	165	1
224	224	2
228	228	2
54	55	1
116	116	2
28	46	1
53	66	1
157	165	1
230	231	1
60	60	1
40	164	1
42	146	1
150	155	1
231	239	1
9	46	1
109	109	1
186	209	1
211	217	1
239	242	1
68	71	1
167	167	1
213	213	2
163	209	1
178	178	1
242	248	1
229	229	1
59	71	1
162	171	1
57	57	1
44	153	1
31	228	1
166	206	1
186	196	1
196	196	2
164	187	2
21	33	1
54	201	1
54	68	1
162	163	1
156	156	2
184	185	1
223	243	1
5	216	1
233	233	1
10	46	1
185	213	1
217	218	1
2	2	1
66	66	2
206	207	1
42	59	1
4	4	1
63	68	1
53	165	1
234	236	1
93	94	1
190	190	1
155	156	1
61	63	1
193	195	1
5	56	1
28	29	1
165	201	1
102	104	1
231	233	1
189	189	1
47	48	1
238	238	1
89	89	1
193	194	1
199	229	1
160	161	1
166	167	1
8	9	1
202	202	1
186	189	1
204	206	1
114	116	1
78	90	1
219	243	1
85	85	1
19	19	1
17	19	1
214	215	1
33	236	1
175	179	1
29	29	1
0	0	1
