130	131	2
145	153	1
183	183	2
46	46	4
173	173	5
41	41	2
76	76	4
97	104	1
40	40	1
140	185	1
168	168	4
110	110	10
82	82	3
58	63	3
115	115	3
156	156	2
157	158	3
129	129	4
130	133	1
94	94	4
176	186	1
93	93	1
94	98	1
142	142	4
3	3	6
185	185	2
34	45	2
89	89	4
123	123	3
41	46	1
17	17	3
143	143	4
166	167	2
100	103	1
171	175	1
139	139	4
8	8	7
27	28	1
122	122	3
120	122	1
35	35	4
77	77	6
63	64	1
47	47	2
53	53	4
30	30	3
80	80	3
159	159	5
188	188	3
12	23	1
79	79	6
36	74	1
10	10	4
74	74	3
173	175	1
37	37	4
117	117	3
126	126	7
166	166	4
97	97	2
92	94	2
95	95	3
30	38	2
29	29	2
25	25	10
176	176	3
7	8	2
90	90	4
111	112	2
81	83	1
1	1	8
187	190	2
181	181	2
127	154	1
149	149	6
178	180	1
155	156	3
183	184	1
175	176	1
159	169	1
125	125	5
18	22	2
123	124	2
164	183	3
41	42	1
6	6	4
10	29	1
26	36	1
57	134	1
179	179	3
113	113	5
72	72	4
160	160	1
14	14	3
23	43	1
180	181	1
155	172	1
69	82	1
41	89	1
4	4	5
128	128	3
148	150	1
56	56	7
22	28	1
48	48	4
66	66	1
103	105	1
41	47	1
10	141	1
26	26	7
8	174	1
124	124	2
24	26	1
12	21	1
100	109	1
172	173	1
167	167	2
7	7	8
9	9	2
164	170	1
152	175	2
6	8	2
93	94	3
63	63	4
91	92	1
117	118	1
158	158	4
153	153	4
170	170	4
5	5	4
46	47	2
53	86	1
59	59	2
104	104	3
0	14	1
45	45	4
65	89	1
20	71	2
45	46	3
97	99	2
25	26	1
113	114	1
84	86	1
11	12	2
181	182	2
122	134	1
134	135	3
13	42	1
180	180	3
91	94	1
110	111	3
165	182	1
75	75	1
133	149	1
107	108	1
138	138	1
110	122	2
100	100	2
34	37	1
31	35	2
53	54	4
137	138	2
103	103	4
142	152	1
84	183	1
0	76	1
103	107	1
83	83	3
79	81	3
65	65	2
9	15	3
27	29	1
28	28	5
109	109	2
148	148	1
71	71	3
18	19	1
23	24	2
65	79	1
155	155	2
43	43	4
31	32	2
14	35	2
55	56	1
53	71	1
102	103	2
89	108	2
141	141	2
7	10	1
18	18	2
158	176	1
12	12	1
28	29	2
68	70	1
78	81	1
155	185	2
132	133	1
111	111	3
144	144	2
2	2	5
133	136	1
24	24	2
76	95	1
35	36	2
174	175	1
132	132	1
174	174	2
87	87	1
135	137	3
181	183	1
5	6	1
89	90	2
140	140	2
142	149	1
74	75	1
20	20	4
104	105	1
135	175	1
184	184	4
67	68	1
129	151	2
170	185	1
154	154	4
162	163	1
134	139	1
16	42	1
55	55	4
75	77	1
88	88	2
140	153	1
90	91	2
98	98	4
15	15	3
131	134	1
15	16	1
66	75	1
136	136	2
28	46	3
137	139	2
87	88	2
152	152	3
151	151	2
103	104	1
44	44	4
67	67	1
143	148	1
60	64	2
147	147	2
175	175	1
134	134	1
30	46	2
85	85	2
133	133	1
130	132	2
118	165	1
16	17	1
179	182	2
133	152	1
57	57	3
126	127	3
100	111	1
78	78	1
68	72	1
62	64	2
97	98	1
29	31	1
54	54	1
114	116	1
21	21	3
126	174	1
173	177	1
135	135	3
190	190	2
42	42	3
143	163	1
38	38	1
171	172	4
6	17	1
59	61	1
73	73	2
168	175	1
173	174	1
127	127	3
46	111	1
13	29	1
146	151	1
131	131	3
61	63	1
64	64	3
16	16	1
62	63	2
164	164	1
76	78	1
31	34	1
66	89	1
187	187	1
108	108	2
29	30	2
92	92	2
78	79	2
81	81	2
125	126	2
36	36	2
34	38	1
106	109	1
39	40	1
123	127	1
105	105	1
99	106	1
143	182	1
108	111	1
138	139	1
165	165	1
27	30	1
117	179	1
116	116	1
115	165	1
54	55	1
101	101	2
121	121	2
187	188	2
33	36	1
152	163	1
76	77	1
26	40	2
135	136	1
155	159	1
4	54	1
155	158	2
106	128	3
68	132	1
146	153	2
118	119	1
172	172	2
125	138	2
70	71	1
32	111	1
188	189	1
22	22	1
1	2	1
0	0	3
114	115	2
137	186	1
104	107	1
96	100	1
185	186	1
56	77	1
81	82	1
128	138	1
171	171	1
21	22	1
120	126	1
115	119	1
90	153	1
125	135	1
137	137	1
11	11	2
20	33	1
56	57	1
11	13	1
13	13	2
166	177	1
62	62	1
26	41	1
119	119	2
169	169	1
99	100	3
23	25	1
17	108	2
131	139	1
77	110	2
110	112	1
96	96	3
126	128	1
184	185	1
86	87	1
72	117	1
109	128	1
80	81	1
87	109	1
33	33	1
17	126	1
101	102	1
85	86	1
24	35	1
89	99	1
189	189	3
157	157	2
106	107	1
47	48	1
186	186	1
115	116	1
40	96	1
14	21	1
24	71	1
149	150	2
25	54	1
86	86	3
91	91	1
142	143	1
34	35	1
150	150	2
26	154	1
107	107	1
18	32	1
104	174	1
142	146	1
125	127	1
145	146	1
157	176	1
130	139	1
55	57	1
52	52	1
140	146	1
168	189	1
151	154	1
23	41	1
179	180	1
76	88	1
159	164	1
113	140	1
93	95	1
182	182	2
184	186	1
145	145	1
28	53	1
43	44	2
164	165	1
64	65	1
160	162	1
177	177	1
119	168	1
113	121	1
61	62	1
154	155	1
152	153	1
10	13	1
85	120	1
114	126	1
43	76	1
