2	2	3
96	96	3
45	45	2
8	9	3
169	169	3
110	110	4
42	42	3
39	40	2
76	76	2
139	139	3
113	113	3
101	101	3
166	167	5
6	7	1
130	130	2
6	6	3
136	136	1
19	19	1
174	174	1
7	10	1
84	89	1
101	106	1
157	157	2
133	133	1
133	148	2
159	159	4
134	134	4
71	71	3
148	148	3
70	71	1
55	55	1
115	115	1
111	111	1
86	87	1
140	150	1
43	43	3
126	126	1
143	146	1
79	79	3
67	113	1
168	168	3
3	3	2
88	88	3
80	80	2
58	58	2
145	165	2
78	78	2
37	37	3
65	65	2
107	107	2
115	141	1
5	5	2
5	7	1
139	151	1
63	63	2
33	33	3
122	124	1
153	153	1
158	158	1
12	12	1
34	35	1
108	111	1
64	65	2
102	102	1
109	129	1
84	84	1
104	104	4
18	21	1
114	114	2
63	87	1
176	176	2
61	61	1
27	27	2
40	40	3
131	131	3
34	42	1
180	180	1
106	107	2
170	170	2
133	135	1
36	36	4
156	165	1
141	142	1
74	74	2
43	45	1
142	146	1
151	169	1
8	53	1
55	56	2
71	73	1
139	153	1
149	149	2
86	89	1
165	165	1
85	85	1
56	82	1
55	89	1
22	22	1
151	153	1
94	100	1
91	91	1
21	21	2
179	179	3
29	29	2
142	144	2
35	35	1
160	160	1
171	172	1
11	11	1
173	175	1
67	67	1
2	20	1
78	158	1
102	158	2
124	125	2
143	144	1
4	62	1
54	54	3
32	32	1
5	8	1
113	116	1
93	94	1
143	143	1
161	162	1
34	34	2
98	98	2
72	72	2
38	38	1
164	164	1
110	128	1
159	162	1
84	85	1
9	10	2
52	52	1
56	57	1
142	171	2
0	0	2
87	109	1
160	161	1
162	162	1
95	118	1
156	169	1
150	150	1
138	138	1
89	89	2
75	81	2
148	150	1
86	95	1
73	73	3
77	90	1
66	66	1
173	173	1
31	32	1
37	43	1
9	9	1
55	57	1
122	122	2
124	130	1
132	132	1
0	1	1
127	127	2
144	144	1
64	67	1
133	134	2
53	53	2
10	10	1
111	127	1
3	8	1
13	13	1
93	93	2
26	26	1
147	148	1
140	141	1
125	125	1
75	136	1
18	24	1
172	172	1
175	175	1
17	17	1
31	56	1
123	125	1
158	159	1
73	108	1
132	133	1
163	172	1
9	53	1
75	76	1
50	52	1
107	113	1
132	143	2
39	39	1
1	1	1
57	77	1
156	166	1
82	82	1
115	119	1
141	141	1
124	132	1
153	154	1
88	89	1
23	23	2
178	178	1
2	4	1
24	24	1
147	147	1
156	156	1
93	111	1
98	140	1
117	117	1
18	105	1
93	126	1
56	86	1
58	59	1
148	154	1
11	13	1
95	95	1
6	24	1
127	129	1
149	150	1
66	111	1
16	34	1
108	108	1
160	167	1
62	128	1
137	137	1
21	54	1
116	120	1
172	173	1
