115	115	1
152	152	1
90	90	2
57	57	1
7	7	1
132	132	3
134	135	1
117	117	2
44	44	1
102	102	3
76	77	4
99	99	1
76	76	3
95	142	1
35	35	2
15	15	4
10	10	1
111	111	2
98	98	4
123	124	1
68	69	2
123	123	2
68	68	3
154	154	2
101	101	3
91	93	1
116	135	2
139	140	1
127	127	4
111	136	1
22	23	4
86	86	2
138	138	3
103	103	2
142	148	1
89	89	3
142	142	4
129	129	3
131	131	2
75	75	2
80	86	1
27	27	3
13	14	1
137	137	3
147	147	3
66	66	1
139	139	3
9	11	1
13	13	1
83	83	5
126	126	2
17	27	1
2	2	2
32	47	1
149	149	1
117	124	1
92	93	4
112	116	2
32	32	2
117	118	1
116	116	1
107	108	1
157	157	3
64	73	1
1	1	2
34	34	3
26	26	3
31	31	3
96	142	1
105	106	3
52	53	1
148	148	4
105	105	1
116	140	1
36	36	4
15	33	1
107	107	4
100	100	4
73	73	3
122	122	1
12	12	3
0	1	1
84	85	2
54	64	1
140	140	2
15	16	1
41	41	5
158	159	2
146	146	1
156	156	4
136	136	5
70	71	1
137	138	1
65	65	2
1	75	1
104	104	3
45	45	1
55	55	2
47	48	3
130	130	2
33	35	1
121	121	1
9	10	2
103	104	2
32	34	1
130	131	1
68	141	1
38	39	1
88	89	1
12	14	1
134	137	1
88	118	1
25	25	1
113	113	2
136	137	2
132	133	2
138	142	1
128	128	3
3	4	1
154	155	1
82	146	1
30	33	1
128	138	2
133	134	2
9	14	1
151	151	2
114	116	1
96	107	1
90	117	1
43	43	1
22	43	1
158	158	2
108	116	2
138	139	1
147	148	1
63	126	1
112	121	1
143	145	1
30	91	1
51	63	1
102	148	1
150	150	4
145	145	2
112	113	1
11	42	1
92	92	1
85	85	1
124	124	1
41	42	1
26	28	1
139	141	1
3	3	1
62	62	1
0	0	1
120	120	1
134	134	1
84	87	1
20	21	2
23	29	2
71	71	1
46	47	2
82	82	1
22	50	1
19	19	1
137	144	1
80	80	1
35	43	1
91	91	1
110	110	1
4	4	2
87	87	1
109	109	1
94	94	1
14	14	1
87	112	1
114	114	1
9	9	1
145	146	1
75	140	1
32	35	1
110	117	1
146	147	1
124	127	1
155	155	2
112	112	1
50	50	1
90	91	1
117	119	1
143	143	1
155	156	1
70	70	1
16	16	1
39	40	2
18	41	1
29	29	1
79	147	1
35	50	1
142	145	1
30	65	1
129	130	1
11	11	1
77	77	1
28	28	1
37	42	1
7	8	1
118	118	2
84	94	1
134	136	1
95	95	1
106	107	1
125	125	1
30	30	1
108	108	1
69	69	1
