114	169	2
10	10	11
0	7	2
42	42	5
190	190	7
159	159	9
26	26	8
26	27	10
67	68	1
46	47	5
108	108	5
10	126	1
51	53	1
140	152	1
101	134	1
34	35	3
4	24	2
164	165	1
196	197	2
178	179	1
15	15	9
64	64	3
15	44	3
9	9	7
35	35	10
28	29	4
7	67	1
185	185	4
37	58	1
27	33	1
101	101	2
34	34	5
33	178	3
73	73	3
102	102	4
14	14	5
1	3	2
86	104	1
44	44	2
80	80	2
5	8	2
24	30	1
134	172	1
13	13	2
142	142	3
96	100	1
99	114	1
22	23	3
25	25	9
158	159	1
8	8	6
192	192	2
33	41	1
179	179	4
74	85	1
2	4	1
63	81	1
144	144	5
10	14	2
127	127	10
29	186	1
31	31	6
89	90	2
196	196	3
188	188	1
62	63	1
106	108	1
126	127	1
183	183	4
184	185	2
24	24	6
4	185	1
47	47	2
11	11	5
70	70	5
45	46	2
10	12	1
73	75	1
27	28	3
97	97	4
41	41	5
20	58	1
37	65	1
168	168	2
74	74	4
82	82	4
53	122	2
139	163	1
143	143	3
27	27	3
162	162	3
59	59	2
128	128	1
48	48	4
40	40	5
11	186	2
86	86	2
64	81	1
51	57	1
11	13	3
33	33	6
184	184	7
113	120	1
55	57	1
38	195	2
17	17	6
189	189	2
52	52	7
43	45	1
37	37	8
25	32	2
30	31	4
58	61	1
188	189	4
26	30	1
19	19	13
16	16	6
44	131	1
62	62	2
135	137	1
159	176	2
129	129	3
69	70	1
135	140	1
126	171	1
115	115	1
120	120	2
55	55	4
188	192	1
20	20	3
18	19	3
50	50	4
11	12	2
164	164	1
100	101	1
46	49	1
110	110	3
98	147	1
131	134	1
148	148	2
76	82	2
194	194	2
13	14	4
128	129	1
34	36	2
134	148	1
172	172	1
10	45	1
169	169	5
76	76	5
117	117	3
79	79	3
136	136	2
77	83	1
149	149	3
38	94	2
117	118	3
17	24	1
22	22	6
131	131	2
123	123	3
148	177	1
191	191	4
173	189	4
4	5	1
40	41	3
21	21	2
24	25	3
171	171	5
15	37	2
154	154	3
2	19	1
178	178	2
2	2	3
130	130	1
32	32	4
38	38	3
12	38	1
152	153	1
53	53	4
83	83	2
107	108	1
60	78	1
43	43	11
191	194	1
118	119	2
119	195	1
122	123	1
137	137	1
65	66	3
37	38	1
139	171	3
32	33	1
94	97	1
130	131	3
30	30	2
0	0	3
108	111	2
20	21	1
130	142	1
54	54	1
81	81	2
101	102	1
140	186	1
1	1	1
177	179	2
155	193	1
195	196	1
61	61	2
72	73	2
10	11	3
157	157	2
9	182	2
45	45	5
146	147	2
180	180	3
109	109	3
149	150	1
39	39	3
114	114	2
151	173	1
76	77	2
176	178	3
98	100	2
36	36	6
154	179	1
14	17	1
84	84	2
118	120	1
170	171	1
68	79	1
106	109	1
26	191	1
193	194	2
124	124	2
23	23	2
68	80	1
174	175	1
134	134	1
79	83	1
145	145	3
118	158	1
79	82	1
193	193	1
146	146	1
22	31	1
89	89	2
3	3	3
133	135	2
146	149	1
154	160	1
160	167	1
166	167	1
49	49	3
132	132	1
18	18	3
21	22	3
87	114	1
186	188	1
97	98	1
164	176	1
88	88	1
173	173	2
180	182	1
53	58	1
140	171	3
96	96	2
181	182	1
140	141	1
68	68	2
119	120	1
6	6	1
1	2	2
197	197	3
28	28	1
50	51	1
79	84	1
69	69	2
139	139	2
39	101	1
187	187	1
100	119	1
126	126	5
134	160	1
46	46	3
17	167	1
154	188	2
165	165	2
156	156	2
98	98	4
117	122	1
24	154	1
186	187	1
114	115	1
113	113	1
151	151	1
56	56	1
167	167	1
42	44	2
1	59	1
135	135	1
74	77	1
181	181	3
171	193	1
166	166	2
94	95	2
62	64	1
71	73	2
77	78	3
140	168	3
160	169	1
85	85	1
11	48	1
5	6	3
101	141	1
114	154	1
96	149	2
79	81	1
65	176	1
46	48	1
12	16	1
38	84	1
149	176	2
99	99	2
104	104	3
104	106	1
96	99	1
170	170	2
132	135	2
2	6	1
185	187	1
37	39	1
11	14	1
163	163	2
16	41	1
42	43	1
31	32	1
31	48	1
160	160	3
159	160	2
144	145	2
124	149	1
190	192	1
4	4	1
169	170	1
35	59	1
53	195	1
8	9	1
19	22	1
182	183	3
3	7	1
73	74	1
0	1	2
139	140	1
98	99	2
8	40	1
71	72	1
113	114	1
79	80	1
15	16	1
137	138	1
175	175	2
34	73	1
5	5	2
29	29	1
148	149	1
33	171	1
120	121	1
28	165	1
136	137	1
51	52	1
147	179	1
176	176	1
2	3	1
135	136	3
2	110	1
25	31	1
75	77	1
67	98	1
155	157	1
139	178	1
70	71	1
142	143	1
189	190	1
31	70	1
130	134	1
111	111	2
132	193	1
150	156	1
66	66	1
38	55	1
47	48	1
139	164	1
110	121	1
155	156	1
29	30	1
109	111	2
103	103	1
61	62	1
87	87	1
170	182	1
179	180	2
147	147	2
59	132	1
63	64	2
55	56	3
178	185	1
148	158	1
122	122	1
39	139	1
140	146	1
154	196	1
170	172	2
9	10	2
132	150	1
96	97	1
17	56	1
25	35	1
28	73	1
64	67	1
145	155	1
60	61	1
178	180	1
16	26	1
43	46	1
7	7	2
97	138	1
88	113	1
183	186	1
150	150	1
119	122	1
19	83	1
16	27	1
103	104	1
102	104	1
107	115	1
124	125	1
186	194	1
127	139	1
52	193	1
140	149	1
182	182	3
55	73	1
3	4	2
77	77	1
141	148	1
2	29	1
5	25	2
1	6	1
66	68	1
66	76	1
36	65	1
43	47	1
107	148	1
161	164	1
95	179	1
121	121	2
44	59	1
55	63	1
71	77	1
114	168	1
100	156	1
162	171	1
6	7	1
98	130	1
16	17	1
129	197	1
74	79	1
62	100	1
141	141	1
159	161	1
67	69	1
162	164	1
96	114	1
12	44	1
138	172	1
57	57	1
90	90	1
33	47	1
12	42	1
3	30	1
14	137	1
158	158	1
153	153	1
93	115	1
22	24	1
50	52	1
173	175	1
