143	143	4
81	81	4
25	25	4
40	40	2
3	3	2
92	116	1
141	141	6
33	33	1
72	72	6
90	90	4
120	120	2
36	36	1
92	92	6
110	126	1
79	80	1
61	61	2
21	21	1
140	143	1
48	48	6
36	46	1
27	27	3
38	38	5
35	37	2
39	39	3
115	135	1
125	125	1
91	91	9
64	64	1
106	106	5
126	126	7
116	116	3
126	131	1
101	101	4
26	37	1
90	92	1
57	82	1
138	138	4
23	23	6
83	85	2
100	100	6
115	115	2
2	3	1
144	144	7
140	140	5
112	113	4
83	107	2
98	98	6
88	104	1
84	84	2
110	111	1
76	76	4
71	73	1
32	33	2
59	62	1
79	79	3
29	29	7
145	145	4
132	132	3
109	109	4
59	92	1
66	66	2
121	136	1
14	15	2
116	117	1
83	84	1
68	68	4
64	65	2
14	14	5
41	41	6
30	30	7
130	130	1
121	123	1
123	123	2
31	31	4
94	94	6
12	12	3
111	139	2
58	58	4
129	133	1
10	10	4
113	115	1
85	85	1
133	133	3
131	131	3
139	140	1
113	138	1
28	29	1
92	113	1
112	112	5
16	16	2
105	105	3
89	89	1
55	55	3
72	73	1
56	56	3
74	74	2
127	127	4
111	111	1
86	86	3
9	10	4
53	53	3
107	107	2
88	88	2
3	6	2
60	105	1
53	54	1
73	73	5
47	51	1
108	108	4
128	129	1
19	19	1
140	141	1
117	117	2
18	18	6
95	96	2
78	79	2
95	95	5
28	28	3
55	88	1
21	42	2
121	122	1
118	118	2
0	1	2
129	129	3
2	5	1
28	33	1
70	70	2
11	11	5
110	110	1
103	103	1
47	49	1
124	124	5
96	96	3
117	134	2
49	88	1
126	134	1
51	51	1
23	37	1
9	12	1
33	34	1
92	93	2
67	67	3
63	71	5
71	75	1
49	49	2
67	104	1
98	101	1
4	4	1
37	37	2
58	59	4
0	0	5
122	123	1
87	91	3
91	92	2
64	72	2
55	56	1
50	55	1
49	52	2
134	134	4
47	48	2
119	144	1
104	104	2
6	6	5
14	39	1
10	39	1
5	5	3
40	65	1
122	122	1
28	30	1
37	38	1
111	120	2
22	22	5
55	63	1
43	43	1
115	119	1
27	37	1
63	63	4
23	49	1
2	2	1
25	108	2
80	80	5
87	112	2
99	99	6
54	55	2
16	36	1
52	52	1
102	102	1
114	115	3
137	138	1
53	81	2
15	16	1
113	113	1
6	21	1
91	102	2
60	60	2
83	83	2
11	130	1
99	100	1
42	42	5
75	78	1
119	119	1
51	54	3
14	16	2
8	8	2
50	50	2
22	42	1
142	143	1
75	76	1
111	133	1
124	125	2
48	78	1
118	119	1
92	94	1
3	15	1
30	36	1
74	75	1
62	63	1
142	142	3
116	118	1
69	69	2
135	135	2
96	140	1
74	133	1
15	36	1
104	124	1
47	47	2
42	43	1
139	139	1
67	98	1
130	141	1
69	75	1
110	120	1
77	77	1
62	64	1
128	128	2
136	139	1
84	86	1
13	15	2
32	43	1
20	20	4
2	11	1
123	124	1
121	138	1
61	62	1
50	51	1
66	98	1
105	107	1
124	134	1
69	70	1
18	34	1
1	1	1
30	48	1
91	117	1
19	20	1
75	79	1
55	70	1
40	41	1
126	128	1
121	121	1
96	143	1
130	131	1
136	137	1
93	93	1
75	75	1
145	146	1
13	13	1
101	102	1
65	65	1
78	78	1
135	136	1
132	133	1
54	54	1
31	33	1
28	37	1
134	136	1
17	124	1
89	90	1
93	94	1
59	59	1
62	62	1
120	122	1
34	36	1
96	141	1
79	111	1
26	26	1
3	109	1
32	32	1
13	36	1
82	83	1
57	94	1
