77	119	1
55	56	3
105	105	2
9	9	5
42	42	9
76	94	2
99	99	7
97	132	1
80	83	1
33	33	3
83	84	6
38	43	1
68	69	2
21	22	1
85	111	1
20	22	1
17	18	2
92	92	8
86	86	6
80	86	1
46	126	1
3	3	2
98	102	1
129	129	3
110	133	1
49	54	1
19	19	7
51	81	1
6	6	9
117	117	1
64	64	8
38	50	1
124	128	1
3	9	1
66	66	10
10	16	2
83	83	4
112	112	4
115	116	2
96	100	1
116	116	4
20	36	3
59	59	5
46	46	7
8	9	3
94	94	5
63	63	2
77	77	5
12	12	4
32	32	1
24	24	7
21	21	4
79	104	2
110	113	2
119	119	4
5	6	1
95	97	1
79	80	7
16	16	6
10	13	1
110	110	7
27	39	1
120	121	4
78	79	1
45	46	1
14	45	2
109	111	4
111	111	6
32	33	1
71	118	1
128	128	3
51	56	1
67	67	7
38	39	2
19	28	1
1	1	8
122	122	4
22	24	2
90	90	17
61	62	2
118	124	1
29	39	3
73	73	6
37	38	1
4	4	6
7	10	2
41	41	5
100	100	4
13	59	1
11	121	1
82	82	4
57	57	8
91	91	6
112	113	2
130	133	1
108	109	1
59	111	2
20	37	2
60	60	5
110	114	1
17	17	13
111	134	1
123	123	5
76	118	1
118	118	8
47	60	1
130	130	3
126	126	7
32	34	2
37	47	1
58	58	8
88	102	1
124	124	8
13	15	1
61	74	2
25	25	2
46	74	1
114	114	9
61	69	3
110	132	1
20	20	3
10	17	1
78	78	4
18	19	2
134	134	6
67	69	1
107	107	2
5	5	4
20	21	4
80	100	4
70	71	2
36	36	3
15	15	7
47	48	2
23	23	3
95	119	1
7	7	1
28	28	4
131	133	3
10	10	2
40	43	1
22	25	2
120	120	4
122	123	3
116	125	1
55	55	4
45	45	7
58	83	1
33	34	5
42	43	1
62	62	5
91	123	1
122	126	2
76	76	3
62	66	2
39	39	3
123	126	1
70	70	2
95	96	2
69	70	1
23	24	2
63	77	1
56	59	1
25	27	2
13	13	4
33	36	1
34	57	2
130	131	1
45	67	1
122	127	4
2	2	2
112	115	2
26	26	1
34	34	2
24	27	2
30	30	3
131	132	3
101	101	2
114	116	1
72	72	4
106	107	2
82	84	1
82	83	5
74	74	6
18	18	10
87	122	2
109	131	1
71	72	1
125	125	5
10	19	2
80	81	3
10	46	1
41	42	1
12	14	1
57	58	1
8	35	1
113	113	4
92	93	1
126	127	1
75	76	2
14	14	2
4	6	1
114	115	3
133	133	2
35	35	6
26	29	1
101	104	3
77	78	1
10	12	1
110	111	4
14	27	1
108	111	2
8	8	4
121	121	1
123	124	3
127	127	1
75	75	1
39	49	1
120	126	2
27	27	2
94	95	2
1	63	1
47	56	1
97	98	1
13	17	1
22	22	2
114	122	1
64	72	1
21	24	1
81	91	1
59	71	1
132	132	5
111	112	2
87	87	1
68	70	1
56	56	5
78	84	1
31	39	1
69	69	2
44	44	1
40	40	4
39	44	1
2	5	1
115	115	5
104	105	2
22	23	2
75	118	1
43	43	1
54	54	1
127	133	2
12	13	4
81	81	3
113	120	1
55	80	1
121	122	2
92	113	1
93	93	2
15	16	1
96	96	1
38	38	2
67	68	1
94	107	1
77	79	1
3	13	2
47	47	6
56	57	2
0	2	1
31	37	1
79	79	4
50	58	1
14	48	1
39	40	2
109	109	2
25	26	2
0	0	4
70	72	1
11	11	3
73	74	2
71	71	3
27	30	1
87	102	1
97	97	4
72	73	2
107	111	1
13	14	1
24	25	2
110	130	1
46	69	1
18	134	1
49	49	1
29	29	1
131	131	3
36	42	1
34	35	1
28	29	2
93	126	1
26	37	1
71	76	1
2	4	1
30	44	1
103	103	2
34	43	1
20	23	1
119	125	1
82	108	1
17	115	1
76	119	1
81	84	1
59	67	1
40	41	1
84	85	3
4	7	1
68	68	4
47	57	1
94	111	1
27	28	1
31	56	1
108	108	2
107	120	1
113	114	1
30	31	1
90	91	1
98	114	1
101	102	1
103	120	1
102	116	1
124	126	1
121	126	1
84	104	1
41	43	1
84	87	1
76	83	1
125	130	1
39	42	1
87	89	2
50	50	1
130	132	3
89	90	1
74	116	1
125	129	1
84	91	1
94	100	1
55	91	1
93	113	1
89	89	1
69	71	1
95	95	2
109	132	1
106	106	1
117	119	1
31	31	1
80	94	1
91	93	1
44	64	1
61	61	1
104	104	1
35	36	3
31	36	1
5	44	1
88	88	1
71	74	1
5	8	1
42	45	1
102	102	1
85	101	1
87	106	1
34	36	1
59	70	1
105	106	1
48	50	1
109	127	1
62	63	1
102	127	1
34	48	1
84	84	1
96	97	1
14	15	1
26	27	1
