33	37	4
209	209	4
36	40	1
135	135	4
3	3	6
88	88	3
118	119	1
178	178	7
28	37	1
49	49	4
54	54	2
169	169	7
13	13	2
152	152	3
133	133	3
63	63	3
115	116	1
6	6	3
239	239	5
228	229	2
52	54	1
83	117	1
172	172	5
131	131	4
191	196	2
191	191	4
50	51	1
189	189	3
36	36	7
102	102	7
43	43	4
163	163	3
89	89	3
44	44	3
64	144	2
157	157	7
56	56	2
119	119	4
184	184	5
77	78	3
84	85	3
135	136	2
9	9	4
37	37	3
159	159	8
173	173	1
47	75	1
184	185	2
130	130	1
169	170	3
59	60	1
158	166	1
150	151	1
208	208	5
83	84	2
177	177	7
171	172	2
223	223	2
199	199	1
136	136	4
85	85	8
110	111	1
220	220	5
106	139	1
70	74	1
183	183	3
160	160	4
195	195	3
233	233	1
200	201	1
120	120	4
198	223	2
106	106	4
115	115	3
179	179	6
54	80	1
185	206	2
186	187	1
107	108	1
233	236	1
20	20	9
122	122	7
71	71	5
198	198	3
121	122	1
47	47	2
109	109	4
26	26	3
37	38	1
97	106	1
150	158	1
40	40	6
128	128	1
104	104	1
161	162	1
83	83	2
65	65	4
125	125	3
18	32	1
128	129	1
218	224	2
116	123	1
64	64	4
155	155	3
16	16	4
225	226	1
170	170	3
168	191	1
174	174	9
229	230	1
240	240	5
139	140	4
60	60	5
216	220	1
108	108	5
80	80	5
146	146	3
33	66	1
166	186	1
55	55	2
164	165	1
187	190	1
188	206	1
214	215	1
225	225	4
69	69	4
117	137	1
62	63	4
158	158	3
67	67	5
203	203	5
11	67	1
124	154	2
8	8	5
104	105	1
30	85	2
196	196	6
141	141	3
54	55	2
113	163	1
118	118	4
206	206	4
76	76	6
13	14	1
68	68	4
139	139	3
15	15	4
158	178	3
46	69	1
59	63	1
114	120	1
127	185	1
21	22	1
227	227	4
234	235	1
117	117	5
42	42	6
117	118	2
144	144	2
180	213	1
79	80	1
105	105	2
188	204	1
74	74	4
192	194	1
176	176	5
211	211	2
175	175	6
152	169	1
67	68	1
222	223	1
22	22	3
62	64	3
187	187	4
61	62	2
213	225	1
187	188	4
70	73	1
56	75	1
150	150	5
4	5	4
98	127	2
73	73	2
165	167	1
241	241	3
116	117	2
38	38	3
194	195	1
180	180	2
201	201	4
52	53	4
103	113	1
127	127	6
134	134	1
39	39	5
60	103	1
14	14	3
159	160	2
97	97	3
20	201	1
22	35	1
162	165	1
17	17	4
58	58	5
217	218	4
100	100	4
204	204	2
153	156	1
52	52	3
123	124	2
206	209	2
46	46	2
183	184	1
188	188	5
72	72	4
19	19	2
148	148	3
105	115	2
168	169	1
87	171	1
84	84	4
1	1	5
153	157	2
145	146	1
156	158	1
12	12	4
41	41	6
25	25	4
24	24	2
86	88	2
180	214	1
12	15	1
113	113	2
184	207	1
20	21	1
182	182	3
153	153	2
24	25	2
181	215	2
13	15	2
70	85	1
73	74	1
186	186	3
55	56	1
208	209	1
57	59	4
28	28	5
55	161	1
45	46	1
242	242	1
158	159	2
49	52	1
60	61	1
95	95	4
23	23	4
201	202	1
81	81	4
156	156	2
151	152	1
40	156	1
168	168	2
166	166	6
173	174	1
26	70	1
27	27	5
155	156	1
205	206	1
31	32	1
157	158	5
21	21	3
36	151	1
62	62	6
18	18	4
7	7	1
64	68	1
228	228	1
48	124	2
3	46	1
50	50	3
37	53	1
181	181	4
10	10	1
232	232	2
101	101	3
142	142	2
59	59	3
30	30	3
141	142	1
0	16	1
234	234	2
164	164	1
20	43	1
161	182	1
61	64	1
69	70	1
2	2	4
232	233	1
219	219	4
170	234	1
170	171	2
217	233	2
128	131	1
239	240	1
28	31	2
229	229	2
73	75	1
217	236	1
80	158	2
144	147	1
11	11	4
121	143	1
165	165	2
103	104	1
154	155	1
40	41	2
122	127	1
75	80	3
99	99	4
226	227	1
223	226	1
161	180	1
51	51	3
70	71	2
147	147	7
96	96	3
114	114	2
23	66	1
6	7	1
154	156	2
116	116	1
172	173	2
107	107	1
13	20	1
33	40	1
179	180	1
222	225	1
204	206	1
162	162	3
163	167	2
77	79	1
196	231	1
157	159	1
226	226	1
128	136	1
29	29	2
238	238	3
142	143	1
224	225	1
58	59	1
121	121	8
28	29	2
221	221	2
112	171	1
156	157	2
16	20	1
123	139	1
130	135	1
200	200	2
137	154	1
154	154	2
39	46	1
190	190	4
151	151	1
41	42	1
185	188	1
1	225	1
65	99	2
198	201	2
227	228	2
86	86	5
152	153	1
1	8	2
178	179	1
56	60	1
26	197	1
3	7	2
31	31	4
232	242	1
202	202	4
34	35	2
10	231	1
48	48	1
138	138	4
170	201	1
51	53	1
75	75	4
169	178	1
221	222	1
66	238	1
209	210	2
35	35	3
32	33	2
56	59	1
193	221	1
61	68	1
231	231	1
71	100	1
32	65	1
216	216	1
115	150	1
196	203	1
176	177	2
31	58	2
72	73	3
185	192	1
161	161	3
222	222	2
117	126	1
119	120	2
105	119	1
47	127	1
5	6	2
205	205	3
56	64	1
149	149	4
129	130	1
15	60	1
194	194	1
202	232	2
171	171	7
66	68	1
197	232	1
45	45	1
165	166	1
137	144	1
126	127	2
191	192	1
60	197	1
124	124	2
237	237	3
32	32	3
163	164	1
57	63	1
188	189	1
112	112	4
138	194	1
213	214	1
111	111	1
52	57	1
98	128	1
61	61	3
147	148	1
106	112	1
169	171	1
150	152	4
38	97	2
57	57	3
224	224	1
231	232	2
105	106	1
149	150	3
23	29	1
22	180	1
198	199	1
140	140	1
55	73	1
20	53	1
181	185	1
212	212	1
14	16	1
177	178	1
2	15	1
51	54	1
136	138	1
109	135	1
29	111	1
71	72	1
50	53	2
121	126	1
132	132	1
104	107	1
77	77	2
216	225	1
27	70	1
166	167	1
97	130	1
11	13	1
33	33	2
103	103	2
210	210	1
188	190	1
99	106	1
150	155	1
192	196	1
149	152	1
194	199	1
56	57	2
144	150	1
153	155	1
137	159	1
169	174	1
238	239	1
16	18	1
167	167	1
213	221	1
129	178	1
133	134	1
147	162	1
124	126	1
240	241	1
69	71	1
101	102	1
38	39	1
192	192	3
139	144	1
170	175	1
126	126	1
235	235	2
49	176	1
5	5	2
163	166	1
197	197	1
233	234	3
43	75	1
138	140	1
59	62	1
65	66	1
63	64	1
170	172	2
182	184	1
76	77	1
143	143	1
39	240	1
46	236	1
34	34	2
54	113	1
56	58	1
70	70	1
8	24	1
74	85	1
100	101	1
178	190	1
206	207	1
173	175	1
210	221	1
167	168	1
207	208	1
90	90	1
21	23	1
4	41	1
123	165	1
92	92	1
11	202	1
17	21	1
134	135	1
197	213	1
1	22	1
191	208	1
38	82	1
175	176	1
17	36	1
207	207	1
188	199	1
69	74	1
220	225	1
95	96	1
137	137	2
16	23	1
215	226	1
154	162	1
125	135	1
123	123	1
137	139	1
136	137	1
