15	25	1
35	36	2
91	91	2
220	232	2
188	191	2
211	211	1
74	81	1
16	16	3
224	224	8
111	111	3
190	239	1
189	192	3
15	20	2
9	33	1
215	215	3
50	55	1
107	108	1
188	188	3
62	68	2
175	175	4
218	237	1
4	5	3
106	106	1
200	201	2
27	45	1
217	237	1
24	24	2
86	86	2
228	232	1
26	26	4
119	119	3
6	6	3
197	197	2
67	67	3
116	116	2
99	99	2
55	55	2
48	48	3
230	231	1
108	108	2
200	200	5
47	54	1
202	202	5
98	119	1
206	206	2
36	36	3
200	202	1
177	208	1
164	177	1
226	226	4
201	201	6
55	70	2
42	42	2
39	39	6
158	158	3
173	173	4
194	195	2
90	91	2
29	29	3
248	248	3
244	244	4
191	192	1
180	201	1
163	163	5
194	194	4
192	198	1
27	44	1
10	10	7
15	15	3
151	151	5
214	214	4
166	166	4
189	190	3
34	35	2
233	234	4
54	54	5
42	63	1
37	37	2
176	178	2
177	177	4
144	144	4
208	209	3
28	28	5
175	182	2
183	184	1
150	150	2
163	164	1
116	117	2
46	46	7
237	237	2
85	85	2
233	233	4
220	230	1
69	69	2
146	150	1
182	183	1
23	23	4
215	222	2
105	105	1
109	155	2
3	5	2
178	212	1
57	57	2
62	66	1
177	178	1
120	120	2
218	232	1
31	32	1
241	241	2
239	240	1
168	169	3
184	184	6
186	186	3
189	189	4
59	59	4
162	162	2
220	223	2
209	237	1
196	196	1
213	213	2
192	210	1
204	204	1
241	245	1
56	77	1
19	32	1
164	185	1
193	194	3
239	239	1
78	85	1
90	90	1
3	4	2
65	65	1
229	244	2
230	235	1
84	84	3
181	181	4
224	225	2
109	109	4
192	215	1
38	41	1
59	60	1
50	218	1
61	214	1
230	230	1
53	173	1
227	235	1
215	239	2
20	22	1
182	193	2
171	171	3
208	233	1
221	221	2
159	175	1
72	73	2
164	179	2
18	43	1
199	200	1
34	218	1
161	161	2
51	51	2
80	81	1
221	241	1
93	93	2
59	67	1
68	69	1
165	165	3
210	211	3
185	188	1
227	228	1
160	160	2
207	207	4
7	7	7
239	248	1
179	181	1
76	77	2
168	168	2
153	153	3
220	235	1
28	31	1
179	179	3
203	203	4
14	14	5
182	182	3
192	216	1
222	239	1
29	30	1
209	209	4
155	155	1
209	245	1
94	94	2
74	74	2
80	80	2
117	117	2
46	120	1
229	230	3
3	8	1
228	228	4
58	58	1
190	209	1
146	146	1
210	223	1
217	217	2
43	43	4
19	19	3
187	188	1
188	189	1
102	102	1
79	79	2
18	20	1
114	229	1
9	9	2
195	195	2
0	0	1
25	25	1
101	107	1
64	87	1
5	6	1
159	173	1
87	89	1
242	243	1
100	100	1
37	40	2
66	66	1
194	196	1
38	39	1
56	56	3
212	212	1
52	68	1
245	246	1
167	184	2
232	238	1
0	1	3
35	35	1
220	220	5
190	191	1
206	227	1
4	4	6
217	240	1
50	50	3
176	219	1
214	219	1
215	216	2
8	8	3
207	208	2
34	37	1
231	231	2
225	226	2
238	239	1
192	192	4
103	103	1
27	27	3
97	97	1
200	214	1
11	11	6
172	174	1
218	241	1
38	38	2
156	156	2
12	12	1
20	20	2
73	73	1
62	227	1
238	238	2
234	234	2
157	157	4
82	97	1
54	55	2
244	245	2
205	205	3
119	146	1
243	243	3
200	211	1
17	17	2
85	93	2
18	18	4
19	20	2
45	45	3
183	183	2
176	177	2
109	110	1
237	238	1
208	208	3
16	20	1
176	176	1
242	242	3
83	83	1
71	72	1
162	165	1
104	104	3
240	240	3
94	96	1
27	46	1
81	81	6
47	47	1
174	211	1
44	45	1
172	197	1
22	22	1
112	112	2
216	237	1
170	186	1
218	218	1
202	223	1
193	193	1
217	218	1
176	180	1
154	154	3
48	49	1
6	17	1
164	164	4
34	34	2
44	44	1
107	107	1
75	117	1
31	31	2
88	88	1
25	32	1
30	30	2
199	199	4
217	219	1
187	187	1
101	101	2
95	95	2
236	236	1
41	41	2
167	168	1
108	112	1
21	21	1
235	237	1
64	64	1
56	60	1
30	34	1
240	243	1
213	214	1
30	31	2
166	170	1
77	78	2
163	180	1
2	2	2
210	210	1
95	101	1
22	27	1
241	244	1
240	241	1
180	198	1
49	49	1
201	202	1
118	118	2
69	70	1
115	115	2
162	171	1
216	217	1
246	248	1
219	240	1
63	65	1
115	117	1
5	5	1
174	174	2
73	75	1
92	92	1
64	65	1
52	52	1
180	181	1
75	76	1
236	244	1
189	191	1
222	238	1
58	72	1
26	32	1
98	99	1
57	60	1
179	230	1
187	217	1
180	196	1
58	59	1
153	160	1
42	117	1
226	227	1
37	191	1
24	68	1
235	235	1
81	98	1
228	229	1
92	101	1
193	195	2
1	1	1
101	108	1
147	147	1
182	199	1
33	33	1
246	246	1
218	219	1
158	159	1
155	156	1
205	207	1
173	212	1
77	77	1
152	152	1
62	63	1
96	96	1
211	213	1
105	107	1
245	245	1
84	118	1
70	70	1
78	78	1
203	204	1
182	227	1
185	186	1
180	180	2
81	83	1
188	208	1
43	44	1
222	222	1
166	172	1
243	244	1
47	62	1
223	241	1
15	17	1
201	203	1
53	54	1
46	53	1
159	159	1
