35	36	1
124	124	4
72	72	4
38	100	2
9	9	1
118	118	5
118	120	1
109	109	5
37	37	5
121	121	5
6	6	2
127	129	1
123	123	4
101	124	2
3	6	1
95	95	5
1	1	2
137	137	4
28	28	1
110	110	6
19	20	1
79	79	1
107	112	1
38	38	4
119	119	4
96	96	3
94	140	2
16	16	6
10	10	1
132	134	1
93	93	2
15	19	2
133	133	11
36	36	5
94	95	1
98	100	2
32	32	1
104	106	2
98	98	3
128	128	4
94	94	6
130	130	3
102	105	1
0	0	4
106	106	3
7	7	3
102	104	1
104	108	1
101	126	2
132	132	5
136	136	3
114	114	6
95	98	1
92	92	6
103	103	2
33	33	2
100	100	7
11	12	3
112	113	2
134	134	5
120	122	1
71	79	1
87	88	1
99	99	3
138	138	2
78	78	1
112	115	1
136	137	1
80	80	4
125	125	3
121	122	2
89	90	1
81	85	3
139	139	1
2	2	3
109	125	1
126	126	5
71	72	1
104	105	1
126	129	1
6	14	1
13	13	1
131	131	5
136	138	1
116	116	3
105	107	1
88	90	1
74	74	4
131	132	4
127	127	3
119	122	1
35	35	2
27	27	1
14	14	2
130	132	1
71	71	3
120	120	8
117	117	4
34	34	3
101	101	4
113	114	2
129	129	1
91	91	1
102	102	3
108	109	1
115	115	2
107	107	2
17	17	2
89	89	2
11	11	3
83	83	1
105	118	1
110	117	1
79	95	1
122	123	1
26	26	1
3	3	2
128	129	3
133	134	2
100	101	1
112	112	3
135	135	3
95	139	1
115	123	1
102	117	1
77	77	4
104	104	5
117	119	1
82	82	1
90	90	2
72	131	1
131	135	1
102	134	1
34	35	1
85	85	2
124	125	2
105	105	2
111	111	4
86	87	2
108	111	2
119	121	2
108	108	3
94	125	1
86	86	1
15	15	3
139	140	1
75	77	1
135	136	1
126	127	1
118	136	1
114	141	1
13	15	1
84	85	1
136	139	1
4	4	2
113	113	4
118	119	1
16	18	1
120	121	2
118	121	1
123	135	1
1	7	1
19	19	2
18	18	1
83	84	1
98	131	1
96	97	1
72	73	1
71	74	1
114	123	1
8	8	2
89	108	1
90	107	1
13	14	1
81	104	1
126	128	1
122	122	1
107	121	1
91	114	1
100	132	1
130	134	1
97	97	1
99	108	1
73	73	1
86	118	1
111	116	2
115	116	2
68	84	1
77	78	1
87	87	1
108	116	1
74	75	1
97	98	1
12	12	1
9	13	1
107	110	1
