113	115	2
159	190	1
7	7	5
156	157	1
42	42	1
183	183	2
78	78	3
151	151	2
135	138	1
55	57	1
133	133	3
73	100	1
14	14	4
135	135	1
115	115	2
152	152	2
174	175	1
22	23	1
80	83	1
68	89	1
92	93	1
116	118	1
140	141	5
54	54	2
83	83	2
71	71	1
176	177	1
178	180	1
114	116	1
20	20	2
190	190	2
25	25	2
18	19	2
71	98	1
89	89	3
74	75	1
0	0	2
79	79	2
163	174	1
60	60	1
20	21	2
121	122	2
53	53	3
126	132	1
134	136	1
128	140	1
83	84	2
159	159	1
82	82	1
121	121	2
185	185	2
176	176	2
81	81	1
34	36	1
80	106	1
186	186	2
40	40	3
130	131	2
171	171	2
179	181	1
158	158	1
79	88	2
83	89	1
127	128	2
144	145	1
63	63	1
40	41	3
129	129	2
101	102	1
94	94	1
23	23	3
87	87	1
164	164	2
31	34	1
138	139	1
15	15	1
45	45	2
17	17	1
85	85	2
150	150	1
113	113	2
75	75	1
154	154	2
127	127	1
170	186	1
145	145	3
136	137	1
66	67	1
37	37	5
12	27	1
33	34	1
68	78	1
75	79	1
72	73	1
115	134	1
94	95	1
185	186	1
11	17	1
10	52	1
42	43	1
129	162	1
153	153	2
149	150	2
26	26	3
140	147	1
103	103	1
143	143	4
74	74	1
27	27	4
100	100	4
141	152	1
95	95	1
44	70	2
138	140	1
170	170	2
84	151	1
41	41	2
131	131	1
129	163	1
84	84	3
128	142	1
26	29	2
188	188	3
28	28	2
59	60	1
138	138	3
26	134	1
166	190	1
24	24	3
97	97	2
57	57	2
180	182	1
130	130	1
58	70	1
86	91	1
102	149	1
5	5	2
100	103	1
122	136	1
178	184	1
115	124	1
88	144	1
144	144	2
26	27	2
35	36	1
95	130	1
168	168	1
38	38	1
29	35	1
48	48	3
3	3	3
178	178	1
76	78	1
180	180	1
175	178	1
13	13	2
132	138	1
124	124	1
116	116	1
2	2	1
29	29	1
56	56	2
70	70	1
173	173	2
160	173	1
111	127	2
131	132	1
168	169	1
125	125	1
163	163	2
31	31	2
49	49	1
159	184	1
43	43	1
130	133	1
13	14	1
120	120	1
106	109	1
60	62	1
53	55	1
68	108	1
79	124	1
132	132	1
184	184	1
94	121	1
19	19	1
129	133	1
137	150	1
109	109	1
105	105	1
112	144	1
163	175	1
10	10	1
44	44	1
151	152	1
65	65	1
99	99	1
5	7	1
106	106	1
110	127	2
175	175	2
152	153	1
68	68	1
136	138	1
139	154	1
104	104	1
117	148	1
1	1	2
87	93	1
16	16	1
6	7	2
91	91	1
184	190	2
48	54	1
55	55	1
115	137	1
141	141	1
96	96	1
47	47	2
118	118	2
12	12	2
67	85	1
105	121	1
24	37	1
31	32	2
110	110	1
120	124	1
6	109	1
110	124	1
67	67	1
10	12	1
142	142	1
167	171	1
178	179	1
88	88	1
148	148	1
121	125	2
76	77	2
6	6	1
140	140	1
125	134	1
165	189	1
186	187	1
81	82	1
39	39	1
128	128	1
136	136	1
167	167	2
115	116	2
166	166	2
106	111	1
61	61	1
174	174	1
171	172	1
92	92	1
64	64	1
74	85	1
34	34	1
161	162	1
40	95	1
149	149	1
187	187	2
59	59	1
156	156	1
138	161	1
32	33	1
47	60	1
110	111	1
0	13	1
166	184	1
137	138	1
