151	151	1
167	167	1
128	128	3
44	44	1
148	148	1
165	165	1
174	174	5
164	179	1
144	144	2
185	185	1
116	116	1
35	35	2
79	103	1
19	20	2
114	114	2
144	149	2
6	6	2
87	89	1
170	174	1
125	125	2
47	47	2
45	47	1
13	19	1
61	61	1
189	189	3
14	15	2
178	178	2
135	141	1
134	137	1
159	165	2
91	92	1
105	105	1
45	45	2
159	159	2
54	55	1
47	52	1
69	70	2
135	139	1
83	83	1
131	131	1
155	158	1
65	72	1
26	30	1
181	182	1
161	163	1
105	106	3
64	64	3
8	11	3
38	38	1
95	100	1
123	124	1
167	169	2
121	121	1
177	177	3
118	118	2
146	147	2
142	142	5
166	170	1
122	125	1
82	82	1
132	133	4
12	12	3
56	56	1
171	183	1
29	30	1
111	111	2
79	80	2
147	148	2
75	76	1
29	32	1
156	156	1
21	22	1
130	130	2
152	153	1
41	41	1
154	154	3
10	13	1
182	182	2
77	100	1
25	31	1
55	56	1
186	187	2
115	117	1
171	171	1
32	36	1
134	134	1
68	68	1
150	150	2
68	69	1
5	5	1
133	133	1
99	100	1
11	11	2
97	97	2
13	27	1
87	88	3
112	112	1
122	130	1
120	125	1
36	36	3
57	58	2
181	183	1
37	37	2
109	109	3
137	161	2
101	101	1
29	45	1
103	122	2
107	107	2
89	89	3
42	43	3
39	48	1
25	37	1
10	11	1
26	38	2
13	14	1
78	78	2
181	181	1
7	7	1
59	59	2
89	103	1
86	86	2
127	153	1
95	106	1
80	151	1
102	105	1
105	107	1
130	137	1
126	128	1
141	141	1
179	180	2
33	33	1
115	118	1
6	7	1
85	85	1
62	64	2
69	69	1
177	180	1
92	92	2
23	28	1
24	47	1
2	3	2
181	184	1
119	120	1
166	167	1
66	66	2
177	178	1
96	97	1
155	165	1
28	28	2
158	164	1
10	10	4
4	4	2
140	140	2
168	169	1
76	82	1
57	57	1
27	29	1
170	170	2
104	122	1
146	146	1
132	136	1
158	158	1
122	123	1
13	13	2
146	150	1
69	71	1
101	150	1
163	163	1
23	23	2
30	30	1
108	108	1
55	55	1
97	121	1
60	61	1
123	123	1
33	34	1
182	183	1
188	190	1
169	169	1
16	18	1
73	73	1
62	65	1
16	16	1
95	97	1
134	135	1
124	131	1
108	109	1
179	182	1
145	148	1
91	94	1
61	62	1
14	17	1
87	87	1
142	143	1
42	42	1
8	8	1
15	15	1
149	149	1
1	174	1
137	137	1
12	27	1
40	40	1
18	20	1
154	164	1
60	60	1
98	156	1
33	42	1
136	136	1
95	95	1
42	44	1
28	31	1
98	141	1
65	68	1
28	35	1
17	21	1
39	39	1
176	176	1
156	158	1
93	94	1
84	84	1
135	135	1
117	118	1
31	33	1
24	41	1
110	110	1
90	93	1
38	48	2
139	139	1
101	105	1
157	157	1
33	35	1
2	10	1
140	141	1
175	176	1
188	188	1
27	28	1
25	26	1
67	67	1
81	81	1
9	24	1
31	46	1
56	74	1
79	81	1
131	137	1
77	78	1
124	129	1
