54	54	3
111	112	2
123	123	2
109	109	2
61	61	1
121	121	2
4	4	5
128	129	1
56	57	2
6	6	2
86	126	1
108	114	1
44	70	2
100	101	1
130	130	8
65	65	1
103	103	4
58	61	1
105	124	1
3	3	2
112	114	1
64	64	3
110	110	2
66	66	6
118	122	1
120	121	5
6	7	2
14	14	1
74	78	3
116	116	3
34	34	1
31	31	3
132	132	3
113	113	3
100	100	3
58	59	4
20	20	1
71	84	2
80	82	1
113	117	2
116	117	2
110	121	1
92	131	1
27	27	2
85	86	1
109	133	1
105	105	3
81	82	1
89	89	2
95	95	2
63	82	1
110	111	2
59	61	2
5	5	2
93	94	3
57	57	3
17	18	1
126	126	2
14	23	1
129	129	3
122	122	5
7	7	3
79	79	1
71	74	1
43	43	6
80	94	1
120	120	4
107	111	1
20	21	1
105	106	3
40	62	1
18	18	2
10	57	1
111	111	2
72	85	1
48	48	3
86	87	1
83	83	2
108	109	1
108	108	4
58	58	1
125	125	5
56	56	2
93	93	3
8	8	1
39	39	3
82	86	1
76	76	2
90	90	3
115	117	1
32	32	2
133	133	1
101	101	4
92	93	1
71	71	1
14	19	2
24	26	1
92	108	1
23	49	1
106	107	2
96	96	2
78	81	1
21	54	1
119	119	3
13	23	1
39	41	1
15	34	2
87	101	1
70	119	1
49	76	1
46	47	2
73	73	3
42	54	1
27	28	1
33	33	3
0	0	5
105	109	1
59	59	2
79	92	1
47	52	2
113	114	1
1	12	1
15	20	1
114	115	1
25	26	1
19	21	2
95	96	2
34	40	1
78	82	1
30	32	1
23	23	2
114	114	1
14	29	1
41	41	3
11	14	1
50	109	2
1	1	1
125	128	1
22	30	2
121	133	1
93	133	1
72	74	1
117	117	2
41	51	1
2	4	1
124	124	4
51	51	1
69	69	2
5	53	1
48	54	1
54	63	1
60	60	1
75	75	1
125	127	1
90	103	1
10	16	1
42	43	2
41	47	1
1	2	2
70	71	2
26	26	3
42	47	1
71	72	1
13	14	1
23	46	1
75	77	2
55	55	2
107	107	4
99	99	4
88	105	1
45	45	1
72	72	1
67	67	3
97	97	1
115	116	1
29	30	1
70	96	1
22	24	3
60	61	1
75	82	1
106	121	1
29	29	2
113	118	1
93	102	1
79	82	1
77	77	2
92	92	3
61	75	1
82	82	1
118	119	2
23	24	1
80	80	4
69	71	1
128	128	1
70	70	1
30	123	1
46	133	1
56	107	1
78	87	1
49	49	1
49	50	1
63	77	1
101	102	2
86	86	2
52	52	1
67	87	1
23	56	1
85	89	1
99	100	1
104	104	2
27	32	1
118	120	1
58	60	1
63	74	1
83	84	1
126	127	2
94	94	1
98	98	1
46	46	1
19	46	1
68	68	1
77	130	1
26	27	1
43	44	1
74	75	1
38	38	1
31	42	1
47	47	1
10	10	1
5	6	1
91	91	1
126	130	1
