40	40	5
186	186	5
135	135	2
18	19	2
98	98	1
167	169	3
32	35	1
80	80	3
42	42	2
23	23	4
127	128	1
157	157	6
58	58	1
95	99	1
175	181	2
184	184	4
166	166	3
155	160	1
31	31	1
179	185	1
95	95	1
62	65	1
34	34	2
102	102	1
39	39	2
138	141	1
19	19	1
72	72	3
146	167	1
129	129	1
122	134	1
0	46	1
130	130	2
2	2	8
148	148	1
97	97	1
172	172	2
100	100	3
130	131	2
0	0	1
110	111	1
153	153	6
179	179	2
123	123	4
15	16	1
54	54	1
168	169	1
28	41	1
125	138	1
37	37	1
105	105	2
68	68	2
71	80	1
168	176	1
96	128	1
7	7	2
89	89	3
131	131	1
75	76	2
124	124	1
38	38	2
158	158	1
75	75	5
17	17	2
83	84	2
148	173	1
177	177	1
27	27	1
149	149	1
40	41	4
139	145	1
180	180	2
149	188	1
28	29	1
139	141	1
105	155	1
174	174	1
118	118	1
77	79	1
18	18	1
33	33	1
25	25	3
139	183	1
52	55	1
93	94	2
82	82	1
108	119	1
30	31	1
15	15	1
73	74	2
59	60	1
21	23	2
133	135	1
20	23	1
48	48	2
99	116	1
13	13	2
154	155	1
11	11	4
120	120	2
107	107	2
145	166	1
140	140	3
66	67	1
130	132	1
135	170	1
154	178	2
46	46	3
121	121	3
63	63	2
4	4	1
101	102	1
164	164	1
126	126	1
111	112	1
168	168	2
92	92	2
116	116	1
38	75	1
106	106	2
137	137	1
154	154	1
142	144	1
129	134	1
45	46	1
78	78	1
152	180	2
42	43	1
6	73	1
28	28	1
185	186	1
181	181	1
110	110	2
6	7	1
6	6	2
26	30	1
10	10	3
16	16	1
53	54	1
88	90	1
176	177	1
122	135	2
41	41	2
60	63	1
119	119	2
136	136	1
130	135	1
125	125	1
185	185	2
146	146	1
95	118	1
17	37	2
84	85	2
136	138	1
157	164	1
151	152	1
182	182	1
71	71	3
0	24	1
173	173	2
62	63	1
18	20	1
123	135	1
4	5	1
115	124	2
188	188	2
73	73	2
88	88	2
3	3	1
112	112	1
66	90	1
10	12	1
32	32	1
143	185	1
77	78	1
165	165	1
82	83	1
35	35	1
101	101	1
143	143	1
8	8	2
65	65	2
73	81	1
45	45	1
118	120	1
24	25	1
30	30	1
119	120	1
74	74	1
65	76	1
163	181	1
8	11	1
106	107	1
14	15	1
76	76	1
27	34	1
167	167	1
25	32	1
58	66	1
133	136	1
133	138	1
166	167	1
143	144	1
44	46	1
17	18	1
169	169	2
179	180	1
123	139	1
140	141	1
174	177	1
36	36	1
170	170	2
29	29	1
77	141	1
114	114	1
140	159	1
