138	139	1
11	11	4
118	120	2
97	97	2
135	135	6
6	6	3
133	133	21
14	15	2
121	122	2
0	1	4
119	119	6
74	74	3
72	86	2
124	124	6
128	136	1
110	119	1
134	134	12
83	83	6
103	112	1
115	115	6
73	73	9
86	129	1
12	12	3
126	126	5
122	122	7
104	105	3
101	101	3
105	105	7
130	130	7
105	107	1
10	12	3
134	135	1
37	137	1
125	126	5
99	129	1
104	107	1
98	99	3
87	87	6
2	3	2
88	110	1
118	119	2
110	110	5
128	128	6
105	121	3
100	102	1
37	37	11
90	91	2
129	129	11
75	107	1
75	136	1
117	117	9
92	117	1
116	126	1
138	138	11
116	123	1
74	123	1
99	99	2
117	118	2
32	32	3
123	123	8
105	106	2
109	109	8
102	123	2
136	136	3
114	114	3
112	112	7
137	137	4
82	83	1
102	102	4
132	132	8
71	71	1
7	14	1
116	116	9
8	8	7
35	35	3
80	96	1
140	140	7
14	14	3
3	18	1
82	82	3
34	34	6
74	75	2
100	100	6
28	28	1
7	9	1
114	123	1
123	124	2
113	113	5
72	72	5
16	17	1
86	86	2
128	129	3
88	89	2
89	91	1
37	38	1
95	95	7
112	122	1
123	130	1
11	12	1
73	77	1
15	15	3
130	131	3
71	89	1
110	125	2
114	118	3
109	111	1
108	108	4
93	93	2
126	127	3
125	125	4
116	119	1
111	111	5
18	19	1
22	79	1
66	78	1
114	115	1
81	81	2
104	106	1
0	0	2
8	12	1
73	74	1
1	1	5
95	128	1
81	83	1
72	115	3
78	79	2
131	132	1
89	90	2
131	131	11
7	7	3
111	112	2
89	89	2
77	84	1
72	74	2
13	13	4
110	116	1
16	16	1
96	100	1
71	136	2
117	132	1
127	128	1
5	5	2
90	133	2
101	102	3
35	36	2
75	75	2
100	101	3
97	98	2
130	132	1
115	116	2
27	27	3
103	108	1
10	10	2
38	38	6
84	84	1
112	114	1
91	91	1
103	105	1
124	125	1
91	136	1
106	106	3
120	120	3
97	127	1
117	119	1
13	14	1
102	110	1
132	133	1
111	114	1
90	90	1
92	110	1
32	33	1
84	103	1
118	118	1
97	124	1
3	3	1
135	136	1
93	123	1
84	85	1
127	127	3
98	124	2
98	98	2
74	79	1
126	134	1
8	10	2
110	112	1
88	88	2
105	117	1
77	78	3
139	139	2
95	96	2
90	94	1
106	107	1
99	125	1
80	80	2
78	78	2
86	87	1
18	20	1
4	5	2
71	123	1
79	104	1
4	4	2
79	79	3
107	107	1
91	100	1
36	38	1
103	104	1
96	96	3
122	124	1
104	104	3
35	138	1
75	117	1
8	11	1
112	113	1
36	36	1
100	110	1
76	76	1
139	140	1
2	2	1
130	140	1
94	94	1
89	92	1
77	77	2
114	119	1
19	19	1
80	81	1
