109	111	1
113	116	1
131	131	2
132	132	2
63	63	2
124	124	1
38	39	1
75	77	1
17	17	1
31	31	2
5	5	2
90	90	4
26	27	1
54	54	8
103	112	1
109	109	2
10	11	1
65	98	1
121	121	2
72	76	1
94	131	1
7	7	2
105	105	2
111	114	1
96	108	1
11	15	1
77	77	5
47	89	1
118	118	2
87	87	1
62	80	1
78	78	4
95	95	2
82	96	1
118	125	2
91	91	1
89	92	1
85	86	2
86	108	1
15	17	1
61	62	1
62	78	1
62	62	3
82	82	1
2	2	3
33	41	1
67	93	1
30	30	3
50	58	1
123	123	3
73	75	1
104	105	2
125	125	4
57	69	1
42	44	1
97	98	2
110	110	1
56	56	6
117	117	2
127	127	1
107	108	1
6	12	1
96	97	1
122	123	1
72	74	1
122	122	1
65	81	1
68	104	1
21	21	1
92	104	1
113	113	4
4	4	1
29	29	1
15	20	2
96	99	1
12	12	1
106	106	1
76	76	2
69	74	1
54	56	1
69	69	2
70	71	1
91	108	1
52	52	4
60	60	2
52	132	1
7	10	1
92	102	1
11	11	2
95	110	1
111	111	3
120	123	1
68	68	2
27	27	1
67	67	2
53	53	1
104	104	1
106	119	1
48	48	2
45	75	1
72	102	2
101	129	1
21	30	1
114	114	5
58	60	1
43	43	3
73	87	1
70	70	1
24	25	3
55	55	2
26	49	2
113	130	1
44	44	2
100	100	1
50	50	1
45	72	1
48	53	1
61	61	1
65	65	1
45	45	1
66	71	1
79	133	1
45	57	1
60	62	1
94	102	1
119	119	3
57	58	1
105	109	1
93	93	1
48	51	1
52	53	1
103	104	2
46	47	1
114	116	1
62	81	1
52	69	1
39	39	2
42	50	1
57	62	1
31	32	1
66	108	2
22	22	1
80	81	1
13	14	1
49	49	1
15	15	1
96	114	1
40	40	1
1	1	1
76	78	1
41	126	1
73	73	1
63	67	1
97	97	1
126	128	1
15	53	1
64	64	1
127	133	1
101	127	1
19	19	1
88	88	1
33	101	1
10	10	1
55	58	1
107	107	1
126	126	1
99	126	1
12	14	1
84	88	1
14	14	2
1	2	1
100	101	1
118	119	1
117	125	1
22	29	1
6	6	1
27	39	1
96	98	1
78	80	2
39	40	1
77	78	1
117	119	1
106	108	1
75	75	2
56	60	1
120	120	2
89	89	1
41	103	1
99	99	1
96	102	1
50	51	1
76	109	2
121	128	1
83	86	1
78	103	1
9	13	1
103	111	1
38	40	2
72	72	1
74	74	2
120	129	1
92	92	1
17	27	1
57	57	1
42	117	1
79	79	1
41	43	1
102	102	1
42	42	1
29	30	1
128	128	1
24	29	1
27	28	1
21	23	1
