94	94	4
101	128	1
99	99	3
116	116	4
63	78	1
101	101	1
107	107	3
67	79	1
46	77	2
123	123	3
57	58	1
6	6	3
80	80	3
98	128	2
74	74	2
72	73	1
121	121	3
10	11	3
49	49	4
39	39	2
10	10	1
90	91	3
91	95	1
4	4	4
105	107	1
89	89	2
100	100	2
32	32	2
13	13	1
113	113	4
71	71	2
122	122	3
102	102	4
75	79	1
51	111	1
131	131	4
104	104	3
77	77	1
57	57	2
28	30	1
71	78	1
127	127	1
110	110	4
52	53	1
45	45	1
109	113	1
38	40	2
118	118	2
63	63	2
52	52	5
23	23	1
60	60	4
132	132	3
119	119	2
29	30	3
6	111	1
27	127	1
112	112	3
91	91	1
98	98	1
103	103	2
85	91	1
16	16	1
53	53	1
117	119	1
47	47	2
58	62	1
51	51	4
89	92	2
24	131	1
15	15	1
18	18	1
96	96	3
76	77	1
90	90	1
17	17	1
44	44	6
9	9	1
32	34	1
41	41	2
124	125	2
11	12	3
43	43	1
92	118	1
75	76	2
113	121	1
12	12	1
55	55	1
113	114	2
73	74	1
108	120	1
53	54	1
97	98	3
54	55	1
28	28	1
40	40	2
95	95	1
21	21	1
48	48	5
114	114	3
101	103	1
51	52	2
118	119	1
27	130	1
15	17	1
26	27	1
58	127	1
105	105	1
64	65	1
89	90	2
106	107	1
43	44	1
22	32	1
86	86	1
93	94	2
47	94	1
77	80	2
112	121	2
64	89	1
102	103	1
71	111	1
58	58	4
48	51	1
83	94	1
108	108	1
68	69	1
50	50	1
111	111	1
112	113	1
84	84	2
125	125	2
26	41	1
105	124	1
30	46	1
78	78	1
25	25	1
33	33	2
77	90	1
9	10	1
117	117	1
76	76	1
120	120	1
48	53	1
93	93	1
2	3	3
66	89	1
121	122	1
65	65	1
23	24	1
7	7	2
62	62	2
96	97	1
57	91	1
85	87	1
71	72	1
91	101	1
41	42	1
115	115	1
100	101	1
71	90	1
38	38	2
110	111	1
31	31	1
46	55	1
81	81	1
128	128	1
19	19	1
92	92	1
68	68	1
1	2	1
67	106	1
24	24	1
1	1	1
98	102	1
56	56	1
9	55	1
15	40	1
46	46	1
83	84	1
79	79	1
7	11	1
2	2	1
22	22	1
52	132	1
23	65	1
