87	87	1
18	18	1
71	71	8
114	115	2
7	7	6
131	131	6
79	79	1
133	133	11
123	123	6
36	36	3
119	120	2
34	34	3
81	81	2
135	135	6
106	107	1
124	124	8
107	107	4
26	27	1
118	120	1
4	5	3
127	127	5
129	129	3
74	79	1
123	140	1
91	91	1
37	37	5
84	85	1
112	113	2
90	90	3
3	6	2
106	106	5
95	127	1
116	116	5
113	113	4
125	125	3
12	17	1
140	140	3
111	111	4
74	74	4
92	92	2
13	14	4
19	19	5
95	123	1
101	101	4
34	35	3
138	139	3
124	126	2
109	109	4
14	14	2
77	78	1
93	95	1
38	38	4
104	104	2
130	130	6
77	77	1
117	117	3
88	88	1
83	83	4
33	34	1
110	111	2
89	91	1
102	102	5
97	97	4
134	134	2
12	12	2
35	35	3
136	136	2
32	32	2
73	74	2
86	88	1
96	98	1
33	33	4
82	90	2
131	132	1
128	128	3
73	73	2
13	13	1
100	100	2
96	96	2
132	132	4
128	129	3
86	86	1
11	11	1
119	119	2
1	2	1
80	115	1
114	124	1
75	76	1
32	33	1
129	130	1
98	99	1
115	115	2
118	118	1
116	117	1
116	128	1
78	78	1
2	5	1
90	91	2
120	120	3
78	79	1
12	20	1
73	109	1
100	101	1
37	38	2
80	80	2
122	123	3
113	114	2
0	2	1
71	84	1
97	98	1
1	1	4
75	77	1
88	107	1
133	134	1
7	9	2
121	122	2
94	94	2
78	82	1
124	125	2
15	15	1
94	130	2
137	138	1
74	81	1
97	99	1
3	3	2
112	112	4
104	107	1
114	131	1
81	102	1
114	114	1
118	122	1
35	36	1
101	102	2
8	9	3
108	109	2
4	4	2
108	108	2
72	72	1
121	121	3
126	126	2
139	139	1
102	107	1
117	118	1
105	105	2
122	122	1
84	86	1
28	32	1
95	95	1
132	133	1
33	35	1
16	16	1
130	131	2
8	8	3
16	17	1
2	2	2
96	97	2
87	88	1
89	89	2
106	109	1
3	19	1
73	110	1
6	6	1
128	132	1
99	99	1
102	104	1
108	119	1
11	12	1
129	140	1
28	28	1
108	111	1
10	11	1
82	83	1
