116	117	3
3	3	4
13	15	1
127	127	2
31	31	4
0	126	2
17	21	2
172	172	5
114	119	1
99	99	1
153	153	4
75	75	3
18	19	4
42	42	5
25	37	1
60	60	1
142	144	1
173	176	2
1	1	3
29	33	1
61	61	8
108	109	4
97	97	4
34	34	3
129	130	1
174	175	1
40	55	1
81	81	4
101	101	1
90	115	1
36	36	2
4	7	1
89	89	6
32	62	1
158	158	4
123	123	3
173	173	7
106	112	1
96	96	4
15	26	1
164	164	1
136	136	5
122	122	4
98	99	3
178	178	1
32	32	2
39	39	7
154	156	2
139	139	4
33	34	4
159	159	4
68	68	4
38	38	6
74	76	1
10	10	9
120	120	2
137	137	4
2	93	1
142	142	7
176	176	7
52	54	2
8	8	4
23	23	2
139	140	4
105	113	1
152	152	5
179	179	3
17	45	1
104	104	5
9	11	2
41	42	5
94	94	3
154	154	9
110	110	1
67	67	3
7	7	4
5	5	9
100	100	2
135	135	3
13	14	2
115	115	1
151	152	2
131	131	5
42	43	1
35	35	3
33	33	4
34	52	2
98	98	5
156	156	3
119	120	2
92	93	2
111	143	1
132	132	6
150	173	1
164	166	1
20	21	2
51	52	1
14	14	6
125	130	1
71	71	4
79	79	6
174	174	3
97	98	2
102	131	1
135	137	1
23	24	1
133	133	2
43	75	2
172	174	1
63	64	1
50	74	1
145	145	2
125	125	4
57	59	1
6	57	1
4	4	4
27	27	1
98	100	1
126	126	5
41	41	4
130	130	4
160	162	1
165	167	1
102	102	4
133	134	5
156	167	1
121	121	1
114	118	1
6	6	8
106	106	2
8	32	1
140	140	2
67	89	1
161	162	1
160	160	5
122	123	1
91	92	2
115	118	2
8	9	1
37	37	3
84	85	1
99	100	1
74	95	1
83	83	1
73	73	3
93	95	1
163	163	2
0	0	4
58	58	1
11	13	1
11	12	1
179	180	1
171	171	1
21	134	1
52	90	1
132	138	1
85	85	2
23	26	2
7	43	1
126	130	1
141	146	1
13	13	1
64	64	1
121	126	1
134	134	3
66	66	1
97	106	1
86	88	2
148	159	1
117	117	1
94	109	2
55	55	2
78	79	4
95	95	2
84	84	2
144	144	3
14	16	1
166	167	1
116	140	1
96	97	2
105	106	1
131	132	2
118	118	3
52	52	2
111	111	5
120	121	2
95	115	1
105	107	1
24	26	1
150	150	4
92	118	1
141	141	4
130	131	1
129	147	1
8	15	1
10	12	1
64	108	1
143	155	1
34	35	1
112	112	4
3	52	1
120	129	1
65	65	1
50	51	1
165	165	1
134	138	2
73	74	1
137	138	1
54	54	6
71	95	1
172	173	2
16	22	1
118	121	2
25	25	4
26	28	1
150	154	1
41	44	1
61	62	2
30	160	1
151	151	3
133	150	1
15	15	4
91	91	1
20	20	2
80	81	1
40	40	3
98	109	2
86	90	1
5	14	1
9	13	2
114	114	5
19	19	2
6	8	1
56	98	1
34	36	1
173	175	1
177	177	1
90	91	1
27	29	1
103	105	1
105	105	2
174	177	2
2	3	1
72	77	1
29	29	2
166	166	1
74	75	1
80	108	1
61	63	2
119	119	3
128	128	1
147	148	2
123	131	1
28	28	1
44	44	3
90	90	6
123	125	1
169	169	4
32	35	1
35	36	3
79	135	1
27	28	2
142	143	2
56	56	2
107	107	2
152	153	1
178	179	2
101	102	1
101	150	1
142	145	1
167	167	1
72	72	3
9	9	3
117	118	1
4	5	1
157	157	2
162	167	1
51	51	2
53	53	1
40	43	1
1	2	1
2	2	1
67	86	1
167	168	2
115	117	1
75	76	2
9	10	3
37	38	1
31	34	1
131	134	1
123	124	3
112	113	1
105	108	1
45	45	2
74	74	1
140	163	1
16	17	1
52	53	1
168	169	2
96	108	1
149	149	1
43	43	2
29	39	1
57	57	2
72	95	1
87	87	1
88	88	1
141	142	3
2	95	1
2	8	1
131	142	1
80	86	1
80	80	1
158	163	1
125	146	1
71	73	1
124	124	1
14	15	1
151	156	1
10	13	1
121	122	2
138	138	2
88	112	1
86	86	1
127	128	1
11	62	1
130	167	1
2	5	1
23	31	1
116	116	1
163	168	2
170	170	1
148	148	1
41	43	1
113	113	1
32	36	1
31	32	1
91	120	1
124	144	1
104	106	1
142	159	1
9	12	1
66	67	1
151	153	1
172	175	1
147	147	1
21	21	2
87	89	1
0	176	1
38	54	1
125	127	1
25	26	1
143	161	1
163	167	1
53	55	1
62	62	2
98	102	1
92	117	1
17	17	1
112	118	1
20	23	1
146	146	2
84	86	1
63	63	1
92	96	1
161	161	1
109	109	1
172	180	1
15	97	1
11	50	1
74	106	1
28	29	1
129	129	1
107	112	1
71	75	1
15	52	1
50	63	1
133	137	1
13	29	1
77	77	1
108	115	1
52	89	1
177	178	1
21	24	1
124	125	1
109	112	1
76	76	1
78	78	1
16	16	1
168	170	1
126	141	1
11	11	1
5	12	1
