80	81	1
0	5	1
54	54	2
47	50	2
39	39	4
161	161	3
161	168	1
96	117	1
135	135	2
148	148	5
113	114	1
156	157	1
167	167	10
88	88	8
55	55	3
36	36	1
47	47	6
48	50	1
82	82	2
45	46	1
74	74	2
47	49	1
37	37	6
91	92	1
130	130	1
23	23	6
40	40	3
7	7	3
42	42	7
57	85	1
89	89	1
43	43	4
42	43	3
160	160	13
2	2	5
86	88	1
161	163	3
53	57	1
22	23	2
79	79	1
98	100	1
168	169	4
80	80	2
87	87	3
64	64	2
5	43	1
134	135	2
6	23	1
21	22	2
138	143	1
39	40	4
91	121	1
131	133	1
34	36	1
81	81	2
93	94	1
145	146	2
48	48	3
159	159	4
99	153	1
151	162	1
100	155	1
117	118	1
154	154	6
126	130	1
118	118	1
12	12	6
8	8	3
101	102	5
46	47	2
24	24	2
142	145	1
150	150	3
11	11	2
51	51	4
8	9	4
64	91	2
163	165	3
13	13	3
40	56	1
63	63	4
10	11	2
108	108	4
142	143	2
148	149	2
2	4	1
6	7	3
144	144	2
132	154	1
74	113	1
120	121	2
157	157	2
157	158	2
35	35	3
58	58	5
126	129	1
140	140	3
0	0	4
63	64	1
145	145	9
20	24	2
166	166	3
152	152	1
77	77	4
112	134	1
18	19	1
90	90	4
41	41	6
127	127	2
163	164	2
23	24	1
53	55	1
141	141	2
83	84	1
67	67	1
21	21	3
17	17	3
4	6	1
83	83	1
34	35	1
26	26	2
3	3	2
10	10	2
76	104	1
5	5	2
87	148	1
18	18	2
147	148	1
69	73	2
109	109	2
48	49	1
12	19	1
68	68	2
102	104	1
73	85	2
50	51	1
147	147	3
165	166	1
90	91	3
72	72	1
66	66	2
35	36	1
146	146	2
14	28	1
162	162	4
134	134	2
49	49	2
136	136	4
26	136	1
15	41	1
91	91	4
159	170	1
18	157	1
14	15	1
57	57	1
75	75	2
152	154	3
155	156	2
98	98	1
69	70	1
27	27	4
97	97	2
105	119	1
118	120	2
169	169	1
111	111	3
4	4	2
92	92	3
100	100	3
127	129	1
44	45	1
71	71	3
72	73	1
86	126	1
86	87	1
55	58	1
15	42	1
162	163	3
132	132	2
149	149	2
138	138	2
74	76	1
112	112	3
164	167	1
151	152	2
92	95	1
132	133	3
4	5	2
152	153	1
141	142	1
116	166	1
56	58	1
140	148	1
6	14	1
6	6	2
18	73	1
116	116	2
73	73	1
13	15	1
6	9	1
20	20	1
5	6	4
106	106	1
168	168	4
63	82	1
136	147	1
93	93	1
22	22	3
122	126	1
139	140	3
107	107	3
50	50	2
129	129	3
18	22	1
8	10	1
41	42	1
56	56	4
126	127	1
102	102	2
110	110	3
164	164	4
27	28	1
15	135	1
13	14	1
103	103	3
118	154	1
84	133	1
99	100	1
34	34	1
1	1	2
122	122	1
93	95	1
168	170	1
54	55	2
126	126	1
111	112	2
4	35	1
46	82	1
142	152	1
119	119	1
155	155	1
156	158	2
159	161	1
25	25	3
136	137	3
170	170	2
74	75	2
143	144	1
136	148	2
146	147	2
125	125	1
16	16	1
148	150	1
53	78	1
119	140	1
14	14	1
46	46	2
63	67	1
133	157	1
133	133	1
39	89	1
65	65	2
38	38	1
81	82	1
131	131	3
84	84	1
156	156	2
44	44	1
78	81	1
3	24	1
7	13	1
12	16	1
165	165	1
22	53	2
138	139	1
19	19	2
113	113	1
16	17	1
95	112	1
20	21	1
127	131	1
153	153	1
98	99	1
151	151	2
105	105	2
98	101	1
142	142	2
0	1	2
115	115	1
137	138	1
101	101	1
76	78	1
142	153	1
135	136	2
72	99	1
130	131	2
22	26	1
13	147	1
117	117	1
19	20	3
115	117	1
26	52	1
1	2	2
53	54	1
120	122	1
114	122	1
118	121	1
101	114	1
164	166	1
105	107	1
15	15	1
77	93	1
39	73	1
112	144	1
161	164	1
68	73	1
144	151	1
105	126	1
105	163	1
82	83	1
62	63	1
11	12	1
57	63	1
139	143	2
97	116	1
78	78	1
47	80	1
15	36	1
149	150	1
90	99	1
15	17	1
153	154	1
152	164	1
123	123	1
146	149	1
96	96	1
125	145	1
77	78	1
85	85	1
15	16	1
