33	33	3
140	142	1
46	46	4
76	76	2
105	105	1
53	53	2
77	77	1
100	100	3
67	85	1
54	54	4
18	18	1
7	7	3
45	45	1
102	102	1
13	13	3
38	39	1
95	97	1
152	153	1
64	64	2
83	83	2
123	147	1
139	141	1
26	27	2
139	139	3
43	46	1
49	51	1
80	104	2
42	42	2
144	147	1
20	73	2
109	109	1
52	54	1
149	149	1
14	14	2
85	85	1
50	51	1
152	152	1
127	127	3
93	96	3
17	17	3
132	132	1
123	129	2
92	92	2
48	118	2
4	5	5
124	125	1
130	131	1
126	126	3
106	106	1
147	147	3
119	119	4
31	31	1
11	56	1
77	78	4
12	12	1
150	151	1
113	130	1
115	115	2
137	138	1
144	145	1
112	129	1
24	24	3
21	42	1
13	24	2
22	25	2
141	142	3
21	21	2
63	63	4
110	112	1
119	120	1
43	44	1
99	106	1
137	142	1
133	134	2
118	118	1
55	55	1
49	49	2
4	7	1
6	7	1
113	113	2
75	85	2
18	19	1
29	30	1
108	114	1
70	70	2
145	146	1
116	124	1
133	133	1
3	5	1
16	16	3
64	74	1
98	98	2
11	24	1
39	40	2
67	96	1
74	74	1
10	10	2
69	70	1
30	30	1
20	21	2
116	116	2
135	135	1
100	114	1
41	41	4
69	69	1
124	124	3
97	97	1
115	117	1
29	29	1
5	6	1
141	141	1
95	95	2
38	51	1
33	34	1
68	92	1
44	46	1
37	40	1
145	145	2
146	147	1
151	152	1
22	23	2
44	44	1
140	141	1
120	120	1
93	93	2
139	140	1
115	116	1
81	81	1
111	111	1
25	33	1
93	94	1
91	92	1
50	50	1
11	11	2
35	36	1
138	142	1
72	72	1
125	146	1
76	83	1
129	129	2
44	45	2
56	71	1
47	47	1
24	25	1
76	85	1
87	87	1
4	4	2
3	7	1
37	38	1
120	122	1
131	131	1
143	147	1
105	122	1
117	117	1
108	108	1
22	22	2
19	35	1
151	151	1
31	39	1
48	54	1
105	111	1
96	98	1
82	82	1
13	64	1
32	34	2
13	15	1
89	101	1
26	26	1
16	44	1
80	115	1
123	125	1
75	75	1
137	137	1
25	26	1
125	125	1
124	127	1
