129	135	1
174	176	1
135	135	1
82	82	2
24	42	1
108	109	2
91	93	2
147	147	1
52	53	2
148	148	1
72	72	1
9	68	1
47	47	3
56	56	6
24	26	1
180	181	1
55	56	2
123	124	2
150	150	4
142	142	1
60	64	1
118	118	1
4	4	2
58	58	3
78	78	2
73	73	2
178	178	2
96	96	1
145	150	1
39	39	5
9	9	2
156	157	1
48	48	4
2	2	6
24	38	2
119	120	2
30	32	1
33	35	2
122	173	1
22	22	4
23	37	1
3	3	2
140	152	1
148	151	1
181	182	3
55	55	3
88	88	1
130	130	2
3	76	1
60	61	1
122	122	5
160	190	3
105	105	1
117	117	1
44	44	2
103	103	2
162	165	1
123	127	1
142	190	1
33	80	2
137	139	3
31	31	1
168	168	3
37	37	2
99	99	2
151	152	1
149	149	2
157	157	1
111	111	3
156	158	1
133	139	2
163	181	1
53	53	2
25	25	2
97	98	1
121	121	1
25	48	1
143	143	1
67	68	2
54	54	5
28	43	1
108	108	3
163	164	1
62	62	2
10	10	2
90	93	1
40	40	1
87	87	4
25	38	1
177	177	4
96	119	1
110	111	1
159	162	1
112	112	3
38	56	1
88	90	1
33	33	2
187	187	3
13	14	2
35	37	3
64	144	2
42	42	3
5	7	1
4	6	1
14	113	2
139	139	3
159	159	2
84	122	1
36	48	1
23	23	2
167	167	1
44	47	1
83	83	2
24	25	1
65	68	1
142	187	1
166	169	1
179	181	1
75	76	1
7	7	2
105	159	1
59	59	2
107	107	1
0	0	2
140	141	1
39	40	3
160	163	2
71	72	2
134	134	2
187	189	3
158	158	1
47	59	1
186	187	1
157	162	1
26	26	2
19	19	2
41	42	1
75	77	1
155	165	1
38	38	1
84	87	1
104	139	1
75	75	2
122	123	1
100	102	1
116	116	2
108	110	1
143	188	1
14	14	1
15	15	1
53	54	1
95	96	1
139	140	1
129	130	1
34	34	1
66	66	1
100	152	1
185	185	1
169	169	3
91	91	1
26	37	1
79	80	1
113	113	1
27	27	1
18	20	1
46	47	2
159	160	2
142	145	1
127	128	1
140	140	1
19	20	1
6	73	1
53	107	1
96	97	1
139	160	1
145	146	1
143	144	1
26	27	1
97	97	1
70	70	1
173	173	1
106	106	1
12	12	1
13	13	1
175	175	1
30	31	1
152	153	2
164	164	1
147	151	2
61	61	1
65	66	1
174	174	2
1	1	2
107	127	1
66	121	1
132	137	1
8	8	1
164	169	1
145	145	1
182	183	3
151	153	2
24	24	1
104	154	1
104	104	1
36	36	1
183	185	1
59	61	1
81	81	1
131	133	1
23	24	1
65	67	1
166	166	1
178	179	1
137	137	1
32	32	1
65	127	1
32	34	1
5	5	1
77	77	1
129	129	1
111	112	1
114	114	2
109	110	1
179	180	1
175	176	1
142	143	1
112	116	1
78	95	1
68	68	1
188	190	1
23	26	1
22	24	1
134	137	1
103	106	1
92	143	1
125	126	1
79	79	1
155	164	1
107	108	1
124	125	1
91	92	1
153	153	2
21	21	1
16	16	1
189	189	1
141	141	1
41	41	1
123	123	1
101	102	1
