142	142	2
7	8	1
123	123	3
86	86	6
92	99	1
25	103	1
147	148	1
20	20	3
56	64	2
70	70	2
15	15	1
78	79	2
79	79	2
44	44	2
157	158	1
12	12	4
39	39	6
82	82	3
148	155	1
110	125	3
104	104	5
43	44	3
155	155	2
133	133	7
92	92	2
28	42	1
123	125	1
112	117	1
132	132	3
17	17	1
105	105	2
50	50	2
126	126	4
31	41	1
135	135	2
38	38	1
131	131	1
33	33	3
113	115	1
107	107	2
115	115	3
34	34	1
5	5	1
143	152	2
135	137	1
0	0	2
154	155	1
122	122	2
4	128	1
43	43	5
131	133	1
106	107	1
157	157	2
135	136	2
86	91	1
119	123	1
158	158	3
130	130	2
24	25	1
117	117	2
156	156	2
44	45	1
30	39	2
54	54	3
139	139	4
85	85	3
38	43	1
131	142	1
149	150	1
150	150	3
75	116	1
111	111	1
143	143	3
95	98	1
11	11	1
116	116	7
151	151	7
30	30	5
108	108	2
109	109	2
150	158	1
53	53	1
42	42	3
13	14	2
28	28	2
99	99	3
4	4	4
142	144	1
140	140	2
124	126	1
106	106	1
2	2	1
108	116	1
1	2	2
40	41	2
120	123	1
50	53	1
120	120	4
90	91	2
116	119	2
110	110	2
18	19	1
89	89	1
91	91	1
66	66	2
119	120	2
8	16	2
45	45	5
100	100	7
55	55	2
48	48	1
132	133	1
17	20	1
121	121	2
124	127	1
94	97	1
22	47	1
133	141	1
35	42	2
79	80	1
88	89	3
29	29	3
26	26	3
3	4	1
31	31	1
148	148	2
32	32	2
65	66	2
24	24	1
99	100	2
77	78	1
83	83	2
41	41	2
128	128	1
75	75	3
3	3	2
113	113	2
134	141	1
79	86	1
102	102	2
65	75	1
125	125	1
152	158	1
23	23	1
84	86	1
50	55	1
44	46	2
145	146	1
146	146	1
21	22	1
46	78	1
27	27	2
37	37	2
127	135	1
81	81	2
97	98	1
49	54	1
135	138	1
57	94	1
50	129	1
26	103	1
140	147	1
29	42	1
65	69	1
131	132	1
6	6	1
110	111	1
78	78	1
131	154	1
95	96	2
65	134	1
37	38	1
65	65	1
84	84	1
137	137	2
109	110	1
145	145	1
51	107	1
1	1	2
136	136	2
1	151	1
134	135	1
96	96	1
25	25	1
155	156	1
131	135	1
19	19	1
8	11	1
124	125	2
11	15	1
95	97	1
95	95	2
34	40	1
65	104	1
68	68	2
109	115	1
130	154	1
1	5	2
28	34	1
80	80	1
78	109	1
7	148	1
15	16	2
103	103	1
44	98	1
145	147	1
69	71	1
36	36	1
118	118	1
138	138	3
71	108	1
142	155	1
116	117	1
77	129	1
41	99	1
71	72	1
46	50	1
55	66	1
22	22	1
88	88	1
38	86	1
