30	31	2
118	118	3
76	76	1
102	102	1
141	141	2
45	45	4
14	15	1
15	17	1
41	41	1
120	120	1
158	158	4
37	37	4
112	113	2
169	176	1
89	89	1
82	82	2
108	110	1
0	1	3
177	178	1
60	60	1
22	22	2
143	143	2
25	25	4
56	57	2
105	105	1
49	49	1
172	174	1
27	30	2
17	36	1
146	149	1
155	155	4
138	171	1
6	6	1
69	125	1
19	31	1
178	178	1
64	112	1
193	193	1
22	23	3
145	145	1
149	149	3
34	34	2
94	94	2
2	4	2
111	112	1
58	126	1
103	104	1
15	16	2
147	148	3
103	103	1
171	171	5
112	112	2
63	65	1
181	191	1
156	179	1
10	10	4
39	40	2
191	192	1
189	189	3
177	177	2
32	32	3
63	80	1
6	8	1
144	144	1
53	57	1
146	154	1
38	38	1
176	176	1
145	158	1
139	139	2
119	120	1
49	51	1
55	56	1
15	15	1
183	184	1
17	17	1
0	35	2
23	23	4
58	61	1
28	37	1
73	75	1
68	68	1
58	59	1
98	99	1
121	121	1
174	174	2
27	27	4
104	104	1
108	109	1
153	153	2
173	175	1
19	19	2
164	180	1
0	181	1
14	33	1
88	88	1
40	40	2
18	22	1
18	18	3
100	118	1
0	0	6
157	157	1
158	175	1
1	1	2
197	197	1
164	164	2
74	74	1
117	117	3
14	85	1
79	104	1
191	191	1
2	34	1
112	137	1
72	72	1
21	21	3
57	71	1
17	26	1
173	174	1
33	34	1
189	191	1
67	67	1
51	179	1
45	46	1
21	31	1
13	14	2
108	108	1
85	85	1
179	179	2
105	112	1
116	151	1
39	116	1
184	184	2
138	138	2
70	70	4
99	99	2
25	80	1
185	185	1
123	123	1
24	33	1
33	33	2
12	14	2
130	130	1
30	30	2
12	127	2
42	43	1
6	17	1
15	38	1
63	79	1
45	69	2
21	27	1
181	187	1
0	24	1
169	179	1
9	12	1
102	103	1
172	184	1
8	9	4
151	151	1
179	180	2
48	48	1
101	101	1
167	179	1
2	2	1
40	41	2
6	7	1
168	168	2
182	182	2
24	24	1
161	161	2
17	18	1
183	183	2
8	8	2
158	163	2
143	170	1
172	173	1
12	12	1
153	154	1
136	136	2
192	192	1
140	147	1
189	190	1
101	115	1
116	116	2
156	156	1
4	17	1
36	61	1
163	187	1
18	26	2
181	182	1
20	20	1
29	34	1
105	108	1
160	163	1
137	137	1
39	39	1
143	148	1
78	79	1
80	80	1
5	5	1
130	185	1
26	26	1
5	19	1
20	21	1
16	16	1
64	65	1
114	114	1
157	158	1
53	54	1
131	131	1
195	195	1
111	136	1
163	163	2
138	156	1
181	181	1
2	3	1
87	87	2
136	138	1
131	155	1
46	47	1
84	84	1
33	37	1
4	4	1
66	66	1
100	100	1
150	186	1
168	174	1
13	13	1
0	4	1
104	106	1
