6	6	4
18	19	3
4	4	2
150	150	2
8	246	2
111	112	3
59	242	1
106	107	1
22	49	1
87	145	1
58	102	2
198	198	5
77	77	2
7	7	2
112	113	1
79	79	2
180	180	3
99	99	1
183	185	1
181	181	4
53	223	2
169	169	5
50	73	1
221	224	2
227	228	1
168	169	1
104	104	1
233	233	1
236	248	1
85	85	2
175	175	4
182	182	5
208	208	6
1	26	1
223	223	4
51	100	1
154	154	3
37	37	8
224	224	2
75	82	1
210	210	1
32	32	2
235	236	2
188	188	2
205	205	6
166	174	1
58	60	1
48	51	1
39	39	3
213	213	3
211	211	3
92	92	3
146	146	4
2	2	1
26	40	2
11	11	3
245	245	6
46	46	2
27	27	3
115	115	1
151	201	2
174	199	1
56	56	3
101	101	2
110	110	3
24	25	1
44	114	1
92	197	2
114	120	1
242	243	1
3	3	2
80	82	1
236	236	4
64	64	2
1	45	1
238	241	1
15	15	2
178	216	2
68	69	2
58	58	3
16	16	2
30	30	2
52	52	3
82	82	2
183	184	1
160	160	3
193	223	2
10	12	1
219	219	1
79	80	3
192	213	1
10	11	1
39	52	2
240	240	2
177	178	1
5	5	1
3	8	1
186	186	1
186	187	2
42	153	1
75	90	2
53	54	2
65	65	1
39	205	1
20	24	1
95	95	1
107	107	1
221	221	5
72	95	1
40	45	1
165	165	2
9	36	1
221	222	1
209	212	2
90	90	2
208	213	1
196	212	1
75	76	1
51	55	1
188	214	1
103	120	2
87	87	2
215	219	1
189	189	2
230	230	5
226	226	3
166	166	1
93	94	1
197	197	1
20	20	1
100	100	2
116	116	3
221	238	1
40	228	3
67	67	2
204	204	3
197	199	1
172	239	1
114	115	3
220	220	3
18	18	1
202	202	3
244	245	1
199	199	2
229	230	2
232	238	1
28	28	4
219	220	2
50	233	1
88	90	1
88	95	1
17	17	2
85	87	2
156	156	3
68	68	1
98	98	2
208	209	1
241	241	1
151	151	1
154	161	2
84	84	1
212	213	1
103	103	1
54	54	4
152	158	1
89	89	2
33	33	2
10	10	6
88	88	1
243	248	1
165	232	2
96	96	2
2	9	1
120	120	2
31	31	3
184	211	1
83	83	3
153	154	2
202	215	1
1	9	1
228	228	5
106	106	1
201	234	1
209	210	2
50	50	1
190	192	1
166	168	1
76	77	1
210	211	1
65	67	1
176	176	1
10	19	1
48	48	2
34	226	1
14	14	2
215	215	1
41	41	1
5	246	2
240	243	1
16	17	1
53	113	1
20	54	1
153	153	3
226	235	1
175	176	1
164	187	1
78	85	2
209	209	2
222	240	1
25	25	1
118	118	1
42	42	4
74	80	1
117	117	3
72	74	2
62	62	1
9	9	2
98	99	2
66	66	3
35	113	1
91	222	1
179	180	1
61	61	2
196	197	1
149	150	2
230	235	1
88	89	1
1	1	1
64	65	2
227	227	3
29	29	2
49	49	2
166	167	1
192	192	1
214	214	1
44	45	3
91	91	2
118	119	1
181	184	2
12	12	2
102	103	1
52	202	1
52	53	1
185	187	1
41	166	1
248	248	4
55	65	1
42	152	1
113	113	2
11	15	1
234	234	3
57	58	1
40	230	1
232	232	2
38	93	2
43	43	1
70	70	1
77	78	1
19	19	2
244	244	2
63	63	2
170	170	2
49	70	1
163	163	2
10	42	1
237	237	1
163	164	1
81	84	1
91	228	1
75	75	1
224	236	1
82	83	1
76	76	1
218	218	1
174	174	2
214	215	1
185	198	1
214	235	1
22	42	1
91	92	1
205	207	1
43	44	1
48	49	1
61	62	1
89	90	1
154	156	1
6	34	1
5	12	1
220	223	1
45	45	2
195	195	3
107	108	1
190	190	2
246	246	1
200	200	1
145	149	1
247	248	1
31	32	1
223	224	1
112	112	2
108	108	2
197	213	1
165	230	2
159	189	1
17	18	1
215	216	1
173	173	2
61	65	1
213	236	1
47	47	1
245	246	1
235	235	1
25	152	1
95	116	1
186	197	1
178	178	1
190	191	1
8	226	1
53	53	3
207	208	1
171	171	1
167	167	2
21	22	1
242	242	4
22	22	2
194	215	1
230	231	1
40	40	2
55	57	1
40	115	1
247	247	3
199	200	1
71	74	1
187	187	2
46	47	1
105	105	2
47	65	1
226	227	1
221	226	1
176	177	1
95	98	1
34	225	1
8	8	1
1	245	1
194	198	1
36	43	1
204	205	1
23	156	1
113	115	1
74	74	1
159	166	1
210	244	1
191	191	1
101	103	1
204	206	1
10	16	1
64	70	1
96	97	1
201	201	1
186	238	1
27	44	1
86	86	1
94	94	1
84	85	1
167	212	1
183	194	1
32	36	1
236	240	1
47	51	1
31	153	1
193	217	1
37	38	1
225	225	1
5	6	1
58	63	1
24	24	1
