187	193	1
155	164	2
67	79	1
99	158	1
199	200	1
12	213	1
177	177	4
228	230	2
24	24	1
105	105	3
156	158	1
80	81	1
180	185	1
163	210	1
39	42	2
63	64	1
12	12	3
67	67	2
111	129	1
5	22	2
23	23	1
231	231	1
167	167	2
32	32	5
74	74	3
53	80	1
191	191	2
174	174	2
55	55	1
114	115	1
184	185	1
176	182	1
209	231	1
143	143	3
102	102	1
154	154	3
132	132	1
147	169	1
4	5	1
152	179	1
69	69	3
18	18	2
229	229	2
181	181	3
182	182	3
203	204	1
39	39	2
8	19	1
221	221	3
22	40	3
15	42	1
163	163	1
152	153	2
122	122	1
182	183	2
151	151	6
22	22	2
233	233	2
237	237	3
16	16	2
13	231	2
142	149	1
190	191	1
68	71	1
176	176	2
165	165	4
11	225	1
168	174	1
232	232	5
75	78	1
16	52	1
4	4	2
215	215	1
239	239	1
199	199	2
232	239	1
150	150	2
197	220	1
81	81	3
138	138	1
145	152	2
42	43	1
8	8	1
222	222	1
242	242	2
10	10	1
3	4	3
73	73	2
45	45	1
161	186	1
203	203	3
59	59	2
27	242	1
192	193	1
174	178	1
100	100	1
113	113	2
152	152	2
198	209	1
31	39	1
75	77	1
125	126	1
70	74	2
22	34	1
50	50	3
37	43	2
34	34	1
226	227	1
149	151	1
205	237	1
107	110	1
98	98	2
129	129	2
116	159	1
153	159	1
194	194	3
85	85	2
101	102	1
6	12	1
219	219	4
34	36	1
53	67	1
120	120	1
124	124	1
121	202	1
61	61	2
128	128	3
179	179	5
129	130	1
61	62	2
38	38	2
145	145	2
63	63	1
119	138	1
121	121	1
184	222	1
45	218	2
91	91	1
222	238	2
57	63	1
65	65	1
170	177	2
99	99	3
89	102	1
110	110	1
150	164	1
240	240	1
119	149	1
15	19	1
203	216	2
230	230	3
17	78	1
149	152	1
211	237	1
98	133	1
96	96	4
153	154	2
186	186	2
153	153	3
27	27	4
53	68	1
148	148	1
166	170	1
138	142	1
168	168	3
40	41	1
184	209	1
98	129	1
178	179	2
202	219	2
123	127	1
101	109	1
62	65	1
91	105	1
117	117	2
239	240	1
225	226	1
173	189	1
16	188	1
128	152	1
37	37	2
137	137	1
43	43	1
16	17	1
170	170	2
88	88	1
122	214	1
211	212	2
158	170	2
144	144	1
40	50	1
3	6	1
192	192	2
149	149	3
125	125	1
77	77	1
168	169	1
205	205	2
161	178	2
183	183	1
9	10	1
175	175	1
89	104	1
14	57	1
119	119	2
110	111	2
221	235	1
49	49	3
10	11	1
75	88	2
174	175	1
58	65	1
159	159	3
23	28	1
215	225	1
115	115	1
124	125	2
158	166	2
31	40	2
35	40	1
104	125	1
63	69	1
220	242	1
7	20	1
46	46	3
65	190	1
164	164	1
96	97	1
178	178	1
193	194	1
20	20	2
220	220	1
204	204	2
41	60	1
195	195	1
82	84	1
181	182	1
215	216	2
22	23	1
224	225	1
201	201	1
127	127	1
21	22	1
119	120	1
130	130	1
158	158	2
11	72	1
148	155	1
57	57	2
121	124	1
209	218	1
86	86	2
23	55	1
23	31	1
58	146	1
34	84	1
97	97	2
30	31	1
162	162	3
153	157	1
143	148	1
101	101	2
222	224	1
180	184	1
134	135	1
136	136	1
79	79	1
171	171	1
31	31	4
220	224	1
104	104	1
144	205	1
52	56	2
234	234	1
38	218	1
30	30	2
91	141	1
163	164	1
70	70	1
67	76	1
64	64	1
157	165	1
82	104	1
76	77	1
205	206	2
133	135	1
213	214	1
53	53	1
5	5	2
152	171	1
131	153	1
228	228	1
127	159	1
157	162	1
52	52	1
198	198	1
207	223	1
188	189	2
44	44	1
185	221	1
169	169	3
6	7	1
135	137	1
99	236	1
14	14	1
161	166	1
25	36	1
213	213	1
162	164	1
226	226	2
3	9	1
37	191	1
26	26	3
210	222	1
39	40	1
3	3	2
109	109	2
210	210	1
77	78	1
204	228	1
142	142	1
174	188	1
159	169	1
148	154	1
205	232	1
105	177	1
238	238	1
65	66	1
71	71	1
183	184	1
103	105	1
135	135	1
154	162	1
61	99	1
151	152	1
116	116	1
146	147	1
204	212	1
222	223	2
89	89	1
90	149	1
23	237	1
177	204	1
21	36	1
202	202	1
0	0	1
45	46	1
123	137	1
29	30	2
185	185	1
66	66	1
223	224	1
49	50	1
142	155	1
153	165	1
211	211	1
95	95	1
169	170	3
103	103	1
172	173	1
62	62	1
107	116	1
180	180	1
176	177	1
8	18	1
126	141	1
21	23	1
208	208	1
84	84	1
107	107	1
156	156	1
229	234	1
157	157	1
165	184	1
188	188	1
238	242	1
37	44	1
29	29	1
154	155	1
172	172	1
217	217	1
216	216	1
125	140	1
9	9	1
62	174	1
106	106	1
141	141	1
