41	41	2
49	82	1
118	118	1
130	131	1
103	104	1
85	87	1
89	91	2
121	121	2
117	117	1
13	13	1
126	127	2
128	128	2
89	89	5
73	82	2
91	91	1
46	67	1
107	107	8
112	112	5
88	88	3
31	31	2
99	100	1
81	85	1
8	8	1
43	43	2
74	79	2
19	19	3
72	73	1
123	124	1
15	15	2
80	80	1
82	88	1
87	91	1
87	87	2
4	5	1
10	54	1
113	113	6
49	49	2
94	94	4
110	112	1
79	80	1
70	70	1
92	92	1
82	82	1
68	68	3
129	129	4
23	23	5
18	19	2
76	76	2
73	77	1
41	63	1
51	55	2
88	102	2
121	122	1
113	116	1
29	32	2
51	51	1
124	124	2
59	59	3
75	78	3
39	46	1
49	52	1
47	48	1
127	129	1
72	72	2
0	0	3
4	4	2
29	29	3
16	21	2
93	123	1
99	99	1
127	127	2
116	116	3
97	97	2
57	116	1
106	106	1
56	56	4
58	62	1
62	78	4
122	122	4
21	21	1
63	80	1
90	90	2
62	62	1
50	50	3
104	104	1
3	6	1
31	32	2
41	42	1
93	102	2
32	70	1
57	58	1
113	114	2
100	100	2
70	80	1
5	11	1
12	14	1
66	66	1
11	114	2
40	40	4
106	108	1
53	54	3
14	25	1
6	6	3
80	98	1
123	123	1
61	61	2
83	83	1
71	71	2
95	95	1
26	27	1
74	86	1
64	64	3
6	49	1
5	5	3
95	104	1
24	29	1
9	54	1
111	111	3
102	102	1
69	69	2
96	97	2
101	129	1
110	110	1
69	110	2
84	86	1
113	120	2
115	131	1
48	48	1
54	55	1
79	79	2
51	53	1
26	38	1
108	113	1
17	19	2
77	77	1
54	54	1
13	14	1
57	57	2
44	44	1
42	42	1
28	28	1
108	108	3
116	117	1
14	21	1
18	18	1
96	96	1
103	131	1
7	7	1
19	20	1
73	73	2
109	111	1
19	79	2
97	98	1
107	108	1
66	67	1
67	67	1
27	27	1
108	109	1
114	118	2
38	80	1
45	46	1
96	101	1
25	31	1
41	44	1
60	60	1
133	133	1
82	85	1
69	70	1
125	125	1
38	38	1
22	32	1
4	6	1
1	4	1
63	63	1
30	30	1
28	53	1
129	130	1
93	93	1
29	40	1
114	114	1
54	58	1
2	2	2
85	103	1
68	69	1
26	26	2
57	94	1
29	31	1
106	107	1
58	58	1
73	74	1
68	94	1
22	24	1
16	16	1
