101	101	4
105	105	3
126	127	1
10	42	1
40	41	1
114	114	1
151	159	1
5	5	1
26	26	1
177	178	2
8	8	1
56	87	1
98	98	3
124	128	1
10	12	1
76	76	2
121	122	4
22	23	2
123	149	1
174	175	3
12	12	2
48	48	3
102	102	3
119	119	1
92	93	1
29	29	1
97	98	2
45	45	2
132	133	2
83	83	2
186	190	1
39	39	4
137	139	1
90	90	1
42	43	1
62	64	1
16	26	1
80	80	2
53	53	5
144	153	1
142	150	1
72	72	2
99	99	2
155	155	3
41	64	2
78	78	4
36	36	1
157	157	5
14	14	4
106	106	1
0	0	1
5	15	2
29	42	1
184	187	1
29	43	1
18	18	1
96	99	4
180	181	1
81	82	1
139	139	1
161	163	2
41	42	1
112	123	1
42	42	1
61	64	1
145	145	3
70	107	1
128	130	1
177	187	1
79	83	1
172	178	1
187	187	1
125	125	2
108	147	1
96	97	1
20	20	1
28	28	2
110	110	2
54	55	5
122	148	1
171	171	1
46	46	1
70	71	1
24	24	2
166	166	1
38	38	1
122	174	1
119	134	2
62	62	1
4	4	2
6	7	1
113	113	2
182	184	1
15	21	1
17	17	1
87	152	1
75	76	2
186	186	2
152	152	4
65	66	1
75	75	1
55	55	1
133	133	1
180	180	3
134	134	1
25	25	2
155	158	1
109	109	2
94	94	2
27	29	1
158	159	1
110	148	1
117	117	1
176	176	1
179	179	1
144	151	1
131	172	2
16	17	1
20	24	1
122	122	1
87	88	1
70	70	1
141	141	2
184	184	1
61	61	2
167	168	1
155	177	1
142	142	1
130	136	1
139	140	1
111	112	1
168	168	1
126	130	1
19	20	2
77	77	1
22	22	1
34	46	1
77	78	2
84	84	1
147	147	2
92	92	2
118	119	2
2	189	1
67	68	1
59	62	1
128	128	2
92	104	1
173	175	1
175	176	1
146	146	1
148	148	2
115	126	1
127	128	1
62	63	1
137	137	1
128	129	2
138	138	1
132	154	1
121	121	2
123	123	1
31	31	2
166	170	1
27	27	2
129	130	1
104	104	2
147	182	1
133	154	1
83	96	1
19	19	1
133	137	1
136	136	1
38	39	1
103	103	1
65	136	1
164	164	2
15	24	1
183	184	2
56	57	1
148	157	1
54	54	1
122	130	1
95	109	1
107	108	1
153	153	1
171	174	1
21	21	1
33	33	1
134	135	1
167	167	1
78	80	1
47	47	1
111	116	1
72	107	1
55	139	1
143	144	1
184	185	1
67	67	1
66	66	1
102	109	1
85	85	1
11	12	1
143	143	3
176	177	1
17	18	1
125	130	1
13	14	1
159	189	1
163	163	2
178	181	1
13	13	1
185	186	1
136	137	1
7	7	1
43	130	1
98	116	1
44	44	2
155	159	1
57	58	1
24	29	1
183	183	1
127	170	1
10	11	1
149	149	1
118	118	1
13	36	1
86	86	1
132	150	1
162	162	1
143	147	1
165	166	1
189	190	1
108	109	1
92	103	1
9	24	1
171	172	1
13	20	1
27	43	1
23	35	1
159	170	1
173	173	1
10	10	1
