88	88	4
208	208	3
37	37	2
226	226	4
195	195	1
90	90	2
184	184	6
178	179	5
210	210	4
223	223	6
225	225	6
181	182	1
203	203	10
231	231	6
73	75	2
112	113	1
184	189	2
114	114	6
193	193	1
222	222	3
206	210	2
35	43	1
38	38	2
152	152	3
206	206	4
49	116	1
105	106	2
197	197	2
6	6	3
229	236	3
24	24	5
174	174	5
233	233	5
182	182	12
174	203	1
166	166	7
154	154	3
229	229	3
164	170	3
54	54	4
208	214	3
234	234	4
58	71	2
22	22	7
180	180	3
27	44	2
72	74	1
75	75	3
15	15	5
164	164	3
34	34	2
245	246	2
4	4	7
37	38	3
159	159	7
95	99	1
80	82	1
117	225	1
81	81	3
117	158	1
179	179	4
190	193	1
230	230	14
114	115	4
2	3	1
92	92	2
2	2	3
91	92	1
47	48	3
61	61	2
100	100	4
40	40	4
52	52	5
1	1	3
4	6	2
19	19	6
9	9	7
176	211	1
161	161	3
219	220	3
114	117	2
146	147	1
205	211	1
162	162	5
99	99	3
5	5	6
167	167	8
63	65	1
110	110	3
190	190	2
115	116	3
36	36	7
20	23	1
29	29	4
64	64	3
11	11	9
227	228	2
116	116	6
91	117	1
222	223	3
176	244	2
207	207	9
85	85	5
209	209	4
217	219	1
31	31	3
90	192	1
178	178	4
115	115	2
46	46	2
38	145	1
191	191	6
235	235	6
204	229	1
103	105	1
67	68	2
227	227	4
27	30	1
212	213	6
215	216	2
169	169	2
109	109	3
156	156	4
171	171	2
215	218	1
163	163	4
187	189	1
10	11	1
168	168	3
182	241	1
198	238	1
200	200	4
215	217	3
229	231	1
232	238	2
160	184	1
211	245	1
172	172	1
202	202	5
77	77	1
67	70	1
18	19	5
6	36	3
159	196	1
78	117	1
44	45	5
93	94	1
232	232	2
205	205	3
119	119	3
23	146	2
77	78	2
44	44	9
62	62	2
17	19	1
95	95	2
150	161	1
109	117	1
221	221	8
224	224	5
53	53	6
155	156	2
9	46	1
113	114	3
59	59	6
173	173	3
25	25	3
107	107	1
147	147	2
242	242	3
226	227	4
199	241	1
165	168	2
14	14	4
192	192	10
26	26	4
76	76	1
246	246	6
65	243	1
72	73	3
101	102	1
28	28	7
41	41	7
105	107	1
60	60	3
63	63	1
51	52	2
230	231	5
78	83	2
151	152	1
178	188	1
41	44	1
214	217	1
174	228	1
188	188	3
29	34	1
70	70	3
16	226	1
102	103	1
163	194	2
7	7	5
194	194	4
73	87	1
82	82	2
56	56	4
162	171	1
26	111	1
156	161	1
96	96	5
98	98	5
42	43	3
151	151	3
212	212	6
144	144	2
61	66	2
245	245	5
112	112	6
102	102	3
23	23	11
35	35	6
107	108	1
33	33	5
51	59	1
225	248	1
174	175	1
204	207	3
22	37	2
231	245	1
239	241	3
228	228	7
117	118	1
94	94	2
241	241	7
14	15	1
204	204	8
46	47	2
193	197	1
43	43	6
118	119	3
168	171	2
214	219	2
150	150	3
165	166	4
27	29	1
175	176	1
104	104	2
97	97	2
201	201	3
214	214	2
238	238	1
213	214	3
224	225	1
25	26	1
117	117	3
53	55	1
31	112	2
110	111	2
49	50	2
175	208	1
9	19	1
218	243	2
160	182	1
20	20	2
240	240	5
12	151	2
21	21	2
108	108	3
67	74	1
34	35	3
30	30	4
36	37	2
66	66	2
3	3	3
210	213	1
218	218	3
86	86	4
239	239	3
206	231	4
153	153	4
107	119	1
87	87	5
216	217	3
222	229	3
211	214	2
91	91	4
116	117	2
243	243	5
165	235	1
39	39	1
78	78	3
50	50	3
180	233	1
179	189	1
97	102	2
237	237	4
164	169	1
187	187	1
69	83	2
17	17	2
170	170	2
170	177	1
42	42	2
20	32	1
211	211	3
237	240	2
30	31	3
164	188	1
75	76	2
103	103	1
27	153	1
104	106	2
220	220	3
35	46	1
35	44	2
39	45	1
58	58	3
198	199	2
213	213	4
54	60	1
201	213	2
70	71	1
89	89	1
6	7	2
217	218	2
101	105	1
45	45	4
165	165	2
4	5	2
113	113	6
199	199	3
50	52	1
98	102	1
106	106	3
73	73	1
176	177	1
180	181	2
186	186	6
182	214	1
177	177	2
102	105	2
214	218	1
44	156	1
8	211	2
211	224	1
183	183	6
170	176	2
68	68	1
172	187	1
33	34	2
242	243	1
9	37	1
196	196	2
111	111	3
41	42	3
1	15	1
163	164	1
16	44	1
216	218	2
169	170	2
212	246	1
80	80	1
95	101	1
57	57	2
1	2	1
216	237	1
67	86	1
118	118	4
215	215	2
159	221	1
49	49	3
91	94	1
215	232	2
199	220	1
160	161	3
185	189	1
83	84	2
45	205	1
16	156	1
190	192	1
212	214	1
84	84	2
100	121	1
60	62	1
51	77	1
189	189	2
16	16	1
81	84	1
48	48	4
38	43	1
78	84	1
3	4	1
29	30	1
109	156	1
181	181	8
84	176	1
8	9	1
173	207	1
23	29	3
9	12	1
62	164	1
58	65	1
241	242	2
5	15	1
159	160	1
170	171	1
244	244	3
101	101	2
179	180	1
72	80	1
6	8	1
175	175	1
18	25	2
36	54	1
65	207	1
228	229	1
213	231	2
171	193	1
102	106	1
186	187	1
198	241	1
168	175	2
79	81	1
171	174	1
32	32	5
18	20	1
161	162	1
45	182	1
69	69	1
165	172	1
80	85	1
212	225	3
158	158	2
246	247	3
189	198	1
182	200	1
168	186	1
213	245	1
19	153	1
27	211	1
239	240	2
31	32	2
223	241	1
193	194	1
208	219	1
211	227	1
236	236	2
182	224	1
201	224	1
88	89	1
184	187	1
15	155	2
197	223	1
47	47	2
240	241	1
217	217	1
194	195	1
218	224	1
40	41	1
191	193	1
26	35	1
52	53	2
8	31	2
73	74	1
168	169	1
173	206	2
190	220	1
110	112	1
87	90	1
221	247	1
94	95	1
9	10	1
176	176	2
167	168	1
184	218	1
108	120	1
160	160	2
243	247	1
200	206	1
154	191	1
0	1	1
146	146	1
118	150	1
201	203	1
182	201	1
60	70	1
71	72	1
74	75	1
65	65	1
167	183	1
18	47	1
213	220	1
211	246	1
185	186	1
53	200	1
26	230	1
98	100	1
210	228	1
45	46	2
57	199	1
193	195	2
7	34	1
92	146	1
110	117	1
55	55	3
30	108	1
172	243	1
16	17	1
51	51	3
186	211	1
28	32	1
22	177	1
216	216	1
42	44	1
208	209	1
66	67	1
172	173	2
248	248	1
59	60	1
231	236	1
210	211	1
116	147	1
149	149	2
53	207	1
157	173	1
171	173	1
90	93	1
157	157	1
200	220	1
41	115	1
240	244	1
22	23	2
27	27	1
95	176	1
68	70	1
166	167	1
160	228	1
2	4	1
244	248	1
157	158	1
90	96	1
60	164	1
171	172	2
8	8	3
239	243	1
89	90	1
4	48	1
195	233	1
194	216	1
31	54	1
100	101	1
118	120	2
184	185	1
90	92	1
72	75	1
201	202	1
162	163	1
211	212	1
180	230	2
192	193	2
238	239	1
190	194	1
213	226	1
68	71	1
158	174	1
220	221	1
91	93	1
46	179	1
198	198	1
193	199	1
186	218	1
206	226	1
204	205	1
199	200	1
5	61	1
50	79	1
10	10	2
247	248	1
72	72	1
3	49	1
5	36	1
210	246	1
51	92	1
80	81	1
23	24	1
194	200	1
14	30	1
66	243	1
