36	36	2
20	20	2
42	43	1
33	80	1
77	77	2
51	51	3
82	83	3
67	67	7
26	26	3
41	87	1
68	68	1
23	23	4
78	78	9
103	103	3
45	45	3
83	83	6
24	53	3
98	99	2
28	29	3
95	95	2
37	37	3
87	87	6
59	60	1
69	69	2
40	41	4
70	70	7
35	35	4
49	50	1
62	62	2
66	67	1
64	66	1
66	66	5
79	80	1
54	54	5
65	65	3
85	85	3
50	50	3
25	25	1
61	61	1
64	64	5
99	99	2
39	39	5
52	52	6
44	45	4
89	89	2
93	94	1
27	27	4
46	46	3
59	59	4
49	49	7
43	43	2
44	57	1
28	28	2
53	53	2
76	90	1
30	42	1
35	55	1
97	99	2
65	66	2
68	69	1
80	80	8
52	53	3
26	27	3
41	41	3
94	97	1
56	56	2
38	44	2
23	24	1
51	52	1
30	30	3
86	86	2
97	102	1
98	98	1
44	44	1
103	104	1
47	47	2
64	65	2
46	47	2
70	71	3
34	34	2
62	63	1
79	88	1
45	89	1
57	57	6
39	78	1
46	49	3
48	49	2
88	97	1
58	58	2
81	81	1
42	42	1
32	32	1
38	38	3
105	105	4
73	73	3
55	56	2
72	73	1
97	100	1
92	92	4
33	33	2
92	104	1
63	63	4
74	76	1
55	91	1
104	104	1
39	41	1
21	21	2
96	96	5
60	60	1
83	85	1
74	74	2
19	20	1
82	86	1
71	71	3
33	42	1
68	71	1
29	29	3
80	82	1
58	60	1
27	38	1
24	24	3
22	22	2
84	85	1
81	87	2
88	88	1
91	91	6
47	52	1
90	90	2
47	58	1
48	48	2
101	101	3
22	25	1
38	41	1
85	86	2
106	106	2
25	27	1
54	65	1
31	34	1
82	82	2
79	79	3
35	45	1
96	97	1
55	55	1
36	37	2
94	94	3
71	72	2
91	94	1
29	30	1
39	45	1
67	69	1
25	34	1
41	45	2
49	58	1
47	48	1
76	77	2
101	102	1
107	107	1
84	84	1
45	51	1
26	41	1
21	22	1
69	70	1
51	55	2
47	51	1
100	100	1
80	85	1
59	66	1
81	88	1
31	39	2
39	40	1
78	80	1
49	61	2
37	94	1
77	93	1
33	34	1
35	36	1
89	90	2
61	62	1
81	82	1
55	59	1
102	103	1
45	52	1
27	37	1
88	89	2
96	99	1
89	91	1
48	50	1
65	67	1
89	92	1
56	65	1
47	49	1
69	100	1
75	75	1
34	35	1
78	79	1
48	51	1
50	64	1
84	86	1
35	77	1
