57	58	2
97	97	2
116	116	2
57	57	6
141	141	3
55	55	2
52	53	2
110	111	2
0	0	2
9	12	2
177	178	3
90	90	1
101	120	1
101	101	1
63	63	3
77	77	3
130	142	2
143	144	1
61	61	2
2	3	2
94	94	4
53	54	1
76	77	3
167	167	4
51	51	2
51	68	3
35	35	5
4	91	1
175	175	3
56	56	2
179	179	1
4	5	1
37	37	4
29	29	2
76	76	3
118	137	1
11	12	1
23	23	3
138	139	1
71	73	2
88	88	3
160	160	1
109	109	1
173	173	3
92	92	1
76	78	2
161	163	1
4	4	1
87	90	1
133	133	3
65	67	2
31	32	1
32	32	2
2	2	4
87	171	1
67	67	4
74	75	2
7	9	2
140	172	1
45	45	2
178	179	2
10	10	4
115	148	1
144	144	2
127	128	2
160	161	1
41	42	1
9	9	1
170	170	5
26	39	1
71	72	4
52	71	1
43	44	3
123	123	3
14	14	3
154	154	4
87	88	1
79	79	2
74	77	1
171	173	1
169	169	8
96	96	1
147	147	2
40	42	1
91	92	1
27	28	1
64	65	1
0	1	1
178	178	3
134	134	2
29	30	2
43	43	1
55	56	1
34	35	1
88	93	1
40	40	7
64	64	2
131	131	2
121	126	1
151	154	1
139	139	3
59	59	2
56	115	1
117	117	2
176	176	4
120	120	4
149	149	3
24	29	1
27	179	1
10	38	1
64	139	1
152	152	1
135	135	1
88	89	2
19	20	1
3	3	4
81	81	1
12	12	3
168	168	1
56	57	2
133	134	1
23	30	1
30	30	5
136	136	1
16	16	6
140	140	2
110	127	1
49	51	1
121	121	1
106	106	3
126	126	1
11	41	1
124	124	2
87	112	1
38	38	1
155	157	1
147	148	1
145	145	3
31	31	3
66	66	1
177	177	2
135	136	3
108	108	2
112	112	1
171	171	1
1	2	1
61	133	1
12	27	1
157	159	1
167	172	1
54	54	3
37	38	1
57	75	1
7	7	3
103	103	3
153	154	1
107	108	2
151	151	2
161	164	1
103	106	1
90	92	1
98	98	2
117	120	2
146	146	3
3	4	1
66	67	1
68	68	3
142	142	4
127	127	2
121	123	2
95	150	1
145	146	1
9	11	1
85	103	1
153	153	2
80	80	3
99	117	1
41	43	1
78	79	2
53	53	1
114	114	1
8	9	1
122	123	2
5	16	1
125	125	2
89	89	3
12	29	1
155	172	1
77	116	1
44	45	1
121	133	1
39	40	1
13	14	1
117	122	1
104	104	1
137	140	1
84	84	3
176	177	1
110	110	1
28	28	1
162	162	2
164	166	2
172	172	3
95	95	2
60	61	1
34	34	1
102	102	5
62	63	1
150	150	1
1	1	1
44	63	1
93	94	2
28	35	1
44	46	1
158	160	1
158	172	1
111	111	2
93	93	2
8	10	1
79	118	1
118	119	1
58	59	1
129	129	1
120	166	1
87	87	1
32	43	1
132	132	2
163	163	1
155	155	1
12	20	1
12	26	1
115	115	2
173	174	1
73	73	2
141	142	1
156	163	1
166	166	2
111	166	1
26	26	2
142	153	1
24	33	1
44	44	1
119	119	2
156	156	2
22	22	1
11	11	1
103	105	1
13	13	1
54	56	1
62	62	4
93	95	1
6	6	1
78	78	1
146	150	2
157	158	1
96	103	2
82	82	1
105	109	1
67	68	1
158	158	1
37	95	1
174	175	2
130	131	1
113	123	1
89	130	1
91	91	1
93	111	2
27	45	1
31	33	1
85	93	1
41	41	2
19	19	1
174	174	1
138	138	2
77	89	1
52	55	1
26	27	1
42	42	2
72	74	1
91	107	1
43	72	1
174	178	1
81	102	1
94	95	1
77	78	1
6	7	1
148	148	1
18	19	1
171	172	1
114	115	1
130	130	1
2	37	1
100	100	1
81	82	2
5	6	1
16	17	1
149	179	2
122	148	1
4	6	1
18	18	4
128	128	1
141	149	1
122	126	1
38	43	1
155	156	1
109	123	1
64	130	1
2	38	1
65	65	1
75	149	1
127	130	1
129	161	1
121	122	1
138	149	1
21	28	1
12	13	1
84	106	1
158	159	1
17	17	1
128	129	1
25	29	1
