108	179	1
230	230	2
110	110	4
231	231	6
54	54	6
84	84	4
7	7	3
198	198	7
169	169	4
93	93	4
182	182	4
87	87	3
49	76	1
76	76	2
44	150	1
17	17	2
78	82	1
241	241	2
28	228	1
46	156	1
38	38	4
167	180	1
46	46	4
238	239	3
233	234	3
19	19	4
198	199	1
156	156	3
212	226	2
29	29	5
45	45	8
240	240	4
234	234	1
89	89	3
52	52	3
163	163	3
175	179	1
91	91	1
201	201	4
187	187	1
44	44	1
213	235	1
244	249	1
51	51	1
42	42	1
157	157	1
153	154	1
175	175	2
221	221	5
174	174	1
201	202	2
171	171	4
220	221	2
155	155	3
8	8	3
29	31	1
159	177	1
244	245	1
58	58	2
69	69	4
68	69	1
113	113	6
47	47	1
188	188	2
54	66	2
192	192	1
105	105	2
227	227	1
76	77	1
12	12	1
96	96	5
193	194	1
43	43	5
170	170	5
165	165	3
212	244	1
48	48	3
179	222	1
41	41	2
65	65	4
26	73	1
44	45	1
104	104	1
38	39	2
213	236	1
115	115	4
60	60	3
58	59	2
188	189	1
16	16	2
153	153	1
73	73	1
26	27	3
40	40	2
247	247	4
114	114	5
22	22	4
72	236	1
4	4	2
97	98	1
94	94	2
220	233	1
68	86	1
186	186	4
109	109	4
224	225	2
23	23	6
151	152	2
45	46	2
156	157	1
50	50	2
31	205	2
21	23	1
187	191	1
61	62	1
95	95	6
86	86	2
59	60	2
160	160	1
167	167	4
73	74	2
85	86	1
117	117	5
224	224	3
219	219	2
168	169	3
198	210	1
150	150	2
57	61	1
67	67	2
152	158	1
246	246	4
100	100	1
190	190	1
90	90	2
213	226	2
47	48	2
185	222	1
216	218	1
180	235	1
206	206	3
184	218	1
154	154	2
80	81	1
78	85	2
221	222	1
151	151	2
182	184	1
79	81	1
80	80	4
228	228	6
203	205	1
209	209	2
6	244	2
28	28	4
168	168	3
198	216	1
153	228	1
183	183	3
146	154	1
204	204	2
159	160	3
5	5	4
116	119	2
58	61	1
111	112	1
203	203	2
55	55	2
232	232	5
33	33	5
228	245	2
37	37	2
81	81	1
90	110	1
6	6	1
85	99	1
68	77	1
25	39	1
192	193	1
102	103	2
145	156	1
53	53	4
9	10	1
217	218	1
163	164	1
225	225	3
54	246	1
33	41	1
214	235	1
104	106	1
179	179	1
243	245	1
12	43	1
64	64	2
82	83	1
229	229	1
208	209	2
11	11	5
46	53	1
9	26	1
215	215	4
64	65	1
175	195	2
18	51	1
63	63	1
202	202	2
34	34	1
208	213	1
191	191	3
32	33	2
173	179	1
216	216	2
72	79	1
233	233	1
21	21	3
217	217	2
216	217	2
172	172	2
165	166	1
164	164	2
177	177	2
185	185	1
28	182	1
30	30	1
26	26	4
31	31	3
39	246	2
62	62	2
214	214	1
193	196	2
162	164	1
42	67	1
39	39	2
78	87	2
193	193	1
163	165	2
109	112	1
236	245	1
25	25	2
3	145	1
120	120	2
77	77	2
226	226	2
222	222	2
219	238	1
118	118	2
18	18	3
71	210	1
78	78	3
245	245	2
210	210	2
197	198	2
176	176	1
87	98	1
214	224	1
108	108	1
180	180	3
220	238	1
94	97	1
101	101	3
48	51	1
186	218	1
89	90	1
63	64	1
223	224	1
248	248	2
224	226	1
118	119	1
75	76	1
196	212	1
239	239	2
169	171	2
15	15	2
43	44	2
14	14	2
180	181	1
1	1	2
146	146	1
56	57	1
111	111	3
75	75	1
27	27	3
162	186	2
92	92	2
109	120	1
52	63	1
106	106	1
213	213	1
220	237	1
221	243	1
116	116	2
106	107	1
249	249	1
183	226	1
22	23	1
200	200	2
78	81	2
170	171	1
213	220	1
223	223	2
242	242	3
19	20	1
181	184	1
161	161	2
70	76	1
186	188	1
72	107	1
215	223	1
238	238	2
236	246	1
79	79	1
21	22	1
181	181	1
79	103	1
223	243	1
31	203	1
187	190	1
237	237	1
194	194	2
189	189	1
107	108	1
211	211	2
48	62	1
155	156	1
107	107	1
69	98	1
10	11	1
0	1	1
175	200	1
87	88	1
98	99	1
68	68	1
199	199	1
31	156	1
234	235	1
147	147	2
208	208	2
237	239	1
56	56	1
59	59	1
232	233	1
213	214	1
45	204	1
145	145	1
159	164	1
74	106	1
112	112	3
47	66	1
48	52	1
65	66	1
24	24	1
159	175	1
9	185	1
238	240	1
170	188	1
66	66	1
20	20	2
188	196	1
101	114	1
244	244	1
205	205	1
54	69	1
46	76	1
10	44	1
153	156	1
226	228	1
10	29	1
207	231	1
168	189	1
191	196	1
207	207	1
162	162	1
119	119	2
83	84	1
43	67	1
218	218	1
49	49	1
245	246	2
197	197	1
53	110	1
73	76	1
72	72	1
168	173	1
45	235	1
20	74	1
168	194	1
