52	72	1
64	64	6
83	83	3
104	104	5
69	69	3
101	126	1
25	25	3
50	50	7
5	6	3
43	43	3
74	74	4
73	73	9
56	56	1
45	45	5
9	10	2
28	28	8
115	116	2
98	99	1
100	100	8
72	72	5
124	125	1
101	101	5
23	23	2
111	113	1
54	57	1
76	77	3
80	80	9
82	82	4
84	85	3
85	85	7
90	90	2
5	5	5
12	12	4
9	9	1
96	96	3
59	64	1
127	127	2
102	102	4
106	106	1
30	30	1
79	79	6
80	82	1
77	77	3
83	85	1
11	11	3
27	27	7
78	82	3
109	109	3
70	70	4
77	82	1
60	60	4
53	63	1
15	15	5
62	62	4
12	16	1
97	97	2
120	120	3
131	132	2
7	34	1
135	135	5
76	76	8
22	22	3
78	79	1
130	131	1
88	97	1
126	126	2
6	6	3
111	112	1
134	134	2
2	2	2
119	126	1
125	125	5
87	91	1
21	21	1
65	68	1
16	16	1
58	59	1
3	3	3
14	14	3
52	54	1
115	115	7
124	124	2
66	66	1
71	71	1
48	48	3
8	8	4
0	0	2
65	65	3
46	46	2
87	87	2
64	65	1
68	68	1
10	10	5
123	123	1
116	116	4
99	99	4
129	129	1
31	31	1
94	94	2
32	33	2
94	105	1
20	20	2
132	133	1
22	23	2
19	19	3
104	105	1
75	75	5
52	52	5
122	124	1
7	7	4
110	110	1
10	11	1
44	44	4
36	37	1
35	35	4
17	17	3
28	32	1
101	105	1
92	92	1
132	132	4
111	111	1
54	54	4
59	60	1
47	49	1
112	112	2
105	105	3
18	20	1
109	110	1
7	8	2
128	129	1
63	63	3
60	61	2
55	59	1
79	80	2
20	21	1
42	60	1
53	54	2
11	13	1
26	26	1
35	36	1
89	92	1
24	24	2
73	74	4
53	59	1
49	49	5
52	63	2
97	104	1
1	1	1
95	97	1
47	47	1
133	133	2
117	117	3
71	73	1
44	132	1
68	69	1
87	108	1
65	66	1
49	120	1
27	32	1
101	102	1
8	9	1
90	92	1
128	128	3
82	87	1
107	108	1
88	88	4
29	29	2
50	126	2
1	3	1
83	109	1
62	80	3
106	107	1
10	18	1
131	131	1
57	59	1
5	48	1
95	95	2
101	129	1
5	52	1
65	79	2
88	106	1
19	20	1
93	93	2
35	44	1
56	57	1
119	119	3
61	61	3
33	33	4
101	114	1
60	85	1
4	5	2
82	85	1
121	121	1
58	67	1
105	112	1
66	68	1
92	93	1
28	33	1
58	58	1
8	10	1
77	78	1
113	113	1
93	122	1
33	34	1
13	14	2
53	70	1
37	38	1
122	122	1
53	53	2
50	52	1
44	45	1
78	78	1
12	83	1
81	81	2
72	73	2
60	64	1
64	77	1
130	130	3
55	55	1
76	79	1
32	32	1
86	87	1
4	4	1
59	59	1
70	79	1
3	4	1
26	33	1
91	92	1
65	67	1
83	84	1
43	80	1
49	50	1
102	104	1
44	50	1
131	133	1
27	28	1
99	101	1
80	81	1
70	92	1
11	16	1
38	38	1
