122	122	3
154	155	3
180	180	1
0	1	2
53	53	1
112	112	4
100	100	2
11	25	1
164	164	1
91	91	4
34	34	2
152	167	2
123	123	1
177	177	4
55	56	1
107	137	1
10	10	5
101	101	3
109	111	2
38	38	1
159	160	1
12	12	3
16	16	5
141	149	1
176	176	6
113	113	4
53	79	1
88	88	1
173	173	5
51	51	4
105	105	1
75	75	2
147	147	1
40	40	3
103	103	3
167	167	4
171	171	1
62	62	3
2	18	1
72	72	4
35	35	4
54	54	3
159	159	3
39	40	2
52	54	1
82	82	2
143	143	6
55	60	1
33	35	2
76	78	1
124	124	2
6	6	3
28	28	2
64	64	1
39	39	1
113	117	2
93	123	2
25	26	3
129	129	4
87	87	1
31	32	2
60	63	1
145	145	4
24	24	2
11	29	1
159	168	1
55	65	1
145	148	3
66	66	3
157	157	3
58	58	4
32	34	1
160	161	1
169	170	3
131	131	1
41	41	4
7	7	1
121	122	2
23	23	3
59	60	1
120	122	1
43	43	4
135	135	4
50	52	1
121	121	2
44	45	3
94	94	2
125	126	1
43	44	2
174	174	1
134	134	3
3	3	3
31	31	2
63	65	1
133	134	2
4	4	3
132	133	2
33	33	4
78	78	1
63	63	5
36	36	3
94	119	1
26	26	3
39	41	3
17	18	5
42	42	3
76	76	6
104	104	2
118	122	1
53	86	1
137	137	5
53	74	1
7	29	1
125	150	1
80	80	3
44	44	4
128	128	2
2	4	1
115	118	1
148	149	3
141	148	1
148	148	1
156	157	1
21	24	1
72	73	1
128	151	1
158	158	2
58	59	2
162	162	3
163	163	6
168	168	2
2	6	2
22	57	1
64	124	1
55	55	1
29	29	4
167	170	1
28	31	1
153	154	1
19	19	5
27	27	3
96	96	2
152	152	2
1	1	1
81	82	1
136	136	2
123	125	1
11	11	2
54	74	1
51	87	1
79	134	1
32	33	1
4	5	1
84	89	1
151	152	2
67	67	2
2	2	4
65	85	2
165	165	8
13	13	4
95	112	1
161	161	3
17	17	10
2	17	1
87	137	3
3	16	1
16	20	1
154	154	3
146	146	3
106	106	4
84	87	1
127	127	1
66	67	1
55	66	1
153	153	2
147	154	1
116	117	2
98	102	1
83	83	2
5	6	1
169	169	3
37	37	4
161	162	2
98	99	1
118	118	4
130	143	1
92	92	1
15	15	4
2	3	2
2	5	2
95	95	2
49	51	1
121	123	1
17	37	1
30	77	1
31	67	1
81	81	5
152	156	1
89	90	2
102	103	1
56	56	2
115	115	1
35	40	1
50	87	2
114	114	4
90	150	1
173	174	1
95	126	1
68	68	2
71	71	4
45	45	3
140	140	3
85	85	4
9	9	4
21	21	7
142	142	3
30	83	1
109	109	2
151	151	1
126	126	1
6	21	1
116	116	2
172	173	1
74	75	1
111	136	1
18	21	1
20	20	2
120	120	1
150	150	1
7	8	1
52	52	2
8	8	2
25	25	4
23	167	1
127	150	1
41	42	2
40	41	2
30	31	1
124	125	4
5	5	2
32	76	1
125	125	1
104	105	1
14	14	5
113	116	1
81	135	1
137	138	1
73	73	1
35	41	1
77	77	2
178	178	2
97	97	2
123	129	1
30	30	2
121	140	1
14	31	1
64	66	2
24	25	1
178	180	1
133	133	2
84	109	2
67	68	1
126	127	2
164	168	1
8	9	1
59	61	1
117	121	1
160	160	2
53	54	1
61	61	3
149	149	2
13	27	1
114	115	2
29	33	1
141	141	2
49	49	1
130	131	1
71	72	1
5	7	1
117	117	3
132	154	1
87	94	1
32	32	2
1	2	1
36	56	1
30	40	1
29	31	1
111	171	1
179	179	1
26	27	1
80	89	1
18	18	1
156	156	1
24	28	1
74	74	3
114	119	1
108	108	2
114	116	1
56	62	2
159	162	1
165	166	2
43	57	1
7	15	1
91	92	1
175	175	1
99	105	1
24	57	1
102	102	1
11	12	1
97	103	1
13	42	1
110	146	1
50	50	1
96	97	1
139	139	1
79	121	2
154	169	1
97	106	1
79	87	1
77	99	1
144	144	1
161	163	1
32	86	1
127	152	1
27	43	1
11	32	1
28	29	2
133	136	1
98	98	1
128	164	1
127	130	1
107	107	1
111	135	2
107	108	1
160	162	1
137	139	1
172	172	1
128	131	1
130	130	1
102	158	1
147	148	1
87	136	1
154	158	1
106	107	1
52	80	1
164	165	1
19	20	1
3	4	1
65	66	1
55	74	1
168	169	1
22	22	1
103	104	1
