136	136	7
87	88	2
124	124	6
124	125	5
134	134	6
97	97	2
72	72	4
35	35	3
35	36	3
101	101	3
135	135	2
130	130	7
116	116	5
127	127	2
17	17	2
107	107	5
16	16	3
118	118	3
37	37	7
114	114	3
106	106	3
36	37	2
103	103	1
36	36	2
130	131	2
115	115	6
100	100	4
6	19	2
2	2	5
132	136	2
108	109	1
133	133	9
111	111	3
34	35	1
119	119	5
79	83	1
79	79	2
132	132	5
119	121	1
124	126	1
131	131	2
104	107	1
127	128	1
8	9	1
7	9	1
20	20	1
120	120	7
94	94	3
15	16	2
112	113	2
112	119	2
108	116	2
99	99	3
90	90	2
111	116	2
6	6	2
113	113	3
109	109	5
105	107	3
91	93	1
74	75	2
135	137	1
98	98	10
92	92	1
106	109	2
112	112	4
111	112	1
0	6	1
102	103	2
7	8	1
15	15	5
72	73	3
13	14	1
103	107	1
113	114	2
91	125	1
1	1	3
8	10	1
4	4	7
7	15	1
71	79	1
33	35	2
3	16	1
108	108	4
77	82	1
101	125	1
95	95	4
123	123	12
18	18	1
105	105	3
19	19	4
140	140	2
91	91	3
8	8	1
95	124	1
38	38	2
135	136	1
3	3	4
19	20	1
132	133	4
33	33	4
17	18	1
125	125	4
74	76	1
102	102	5
131	132	3
138	138	4
122	122	3
129	129	2
100	128	1
103	122	1
114	122	1
115	116	1
103	105	1
134	136	1
80	80	3
75	75	2
82	82	1
13	13	3
105	112	1
12	12	4
7	11	1
84	84	3
121	121	2
126	129	1
27	27	3
10	12	3
126	126	1
11	11	1
119	120	1
128	130	1
82	84	1
75	76	1
110	110	2
115	126	1
83	83	2
27	32	1
89	89	1
114	124	1
110	111	1
73	73	2
88	88	1
104	104	4
92	93	1
137	137	4
113	122	2
128	128	1
100	125	2
133	134	3
5	5	3
31	32	1
127	129	1
5	6	1
93	93	1
71	101	1
134	135	2
101	102	1
78	86	2
108	112	1
104	110	2
109	117	1
98	99	1
71	71	1
139	139	1
9	9	1
76	104	1
78	107	1
107	108	1
126	127	1
92	129	1
77	77	1
131	134	1
26	27	1
96	96	2
94	95	1
135	139	1
80	83	1
71	100	1
129	135	1
