15	31	1
117	123	3
158	158	9
9	15	1
172	172	10
153	153	11
109	118	1
217	217	5
4	4	2
76	79	2
195	212	1
101	101	11
7	169	1
43	44	1
150	151	4
85	96	1
50	57	1
61	61	4
121	121	9
167	168	2
169	169	11
104	104	4
160	160	5
242	242	4
155	156	8
126	154	1
18	224	1
71	73	1
179	179	6
58	58	3
224	224	2
175	175	7
158	161	1
56	56	7
216	216	6
27	28	4
177	177	13
152	155	1
146	147	3
84	84	4
236	236	5
216	219	1
95	95	4
164	183	1
40	41	1
189	189	2
12	12	5
190	211	1
33	33	5
59	67	2
157	157	8
240	240	7
123	123	7
193	194	1
12	13	1
102	102	8
0	7	1
110	110	3
116	119	2
215	218	1
26	70	2
120	120	5
43	43	7
203	203	3
134	135	5
135	161	1
218	218	4
20	38	3
9	9	6
13	13	3
34	81	2
185	186	3
206	206	9
35	35	3
168	168	9
156	156	1
139	140	1
226	226	4
162	163	7
239	240	3
162	182	1
178	179	2
25	25	9
127	127	9
111	121	3
171	171	10
103	104	3
112	113	2
170	170	10
8	169	1
208	208	8
14	20	2
85	85	11
74	74	12
164	166	3
175	176	6
145	145	7
157	158	4
61	62	4
100	100	7
170	175	2
161	163	1
237	237	6
130	130	5
207	207	9
134	134	7
215	216	3
80	83	1
169	170	3
44	44	4
123	126	2
39	53	1
28	28	8
2	2	3
183	184	2
138	166	1
179	183	2
70	70	8
59	59	7
79	84	3
138	139	2
107	107	1
20	20	3
115	119	1
183	183	1
239	239	7
16	20	2
21	33	1
241	241	3
23	26	1
229	229	6
187	187	7
48	48	5
65	65	6
4	5	3
125	126	2
31	31	3
174	174	10
220	220	4
74	75	2
138	141	1
11	11	6
189	191	1
210	211	1
53	53	8
15	16	6
117	118	3
32	32	7
154	155	6
214	214	2
183	185	1
137	137	5
146	146	2
65	66	2
73	74	3
7	8	5
205	205	4
109	109	8
17	20	2
162	167	2
138	138	8
230	230	4
47	47	3
99	99	4
67	67	2
42	42	8
26	130	1
58	59	3
106	107	3
79	79	2
215	215	4
153	154	2
128	128	4
18	18	9
68	74	2
143	143	2
111	111	6
128	176	1
68	80	2
132	133	1
82	156	1
178	178	4
65	136	1
60	60	6
109	111	1
220	222	1
66	85	1
228	229	3
159	177	1
159	160	1
126	126	2
179	200	1
107	125	1
55	55	5
17	17	5
160	174	1
142	189	1
23	23	7
8	204	2
136	136	3
113	113	3
185	187	5
80	86	1
40	40	8
147	148	1
166	166	9
198	225	1
103	103	7
96	96	3
160	170	1
128	129	3
151	151	6
112	112	2
22	23	1
163	164	1
6	6	2
131	131	4
177	188	1
206	220	1
154	154	5
158	180	1
39	39	5
21	21	6
83	83	6
144	147	2
122	136	3
42	74	1
37	37	8
234	237	1
135	135	7
24	158	1
91	127	2
57	163	1
159	170	3
117	117	3
184	191	1
46	47	2
124	124	7
151	180	2
212	212	3
204	214	1
4	58	1
210	212	1
1	220	3
150	210	2
71	71	4
225	226	2
234	234	4
26	44	2
59	106	1
121	191	1
141	142	4
74	101	1
217	218	3
186	187	1
153	158	1
162	180	1
129	130	1
50	50	4
225	225	4
102	104	1
14	17	1
219	219	5
76	77	2
232	233	3
155	155	4
180	180	6
40	83	1
74	113	3
200	201	1
212	213	1
43	61	2
150	150	2
207	216	1
100	156	2
202	208	1
179	231	1
177	178	1
9	10	2
33	37	2
134	181	1
78	78	3
25	46	3
57	57	5
49	53	1
61	101	2
73	73	3
179	180	1
29	29	6
151	165	3
158	159	1
231	232	4
65	101	1
203	204	4
192	210	1
232	232	5
88	88	3
27	27	6
23	24	2
20	121	1
164	165	1
175	177	1
21	23	2
192	207	1
15	15	3
144	144	3
170	172	1
224	237	2
135	136	5
181	182	4
8	8	6
167	167	5
122	122	6
180	183	1
59	80	1
226	228	1
177	219	2
227	228	2
184	184	7
161	161	6
122	123	1
209	209	3
75	75	7
114	114	4
146	150	1
16	18	1
151	152	1
151	156	1
62	62	4
41	41	6
0	44	1
64	64	7
81	83	1
191	192	2
118	120	1
160	161	4
113	120	1
173	211	1
56	57	1
235	235	5
86	86	6
154	157	1
39	197	1
153	155	2
1	42	1
64	88	2
144	173	1
138	148	1
186	186	7
123	128	1
53	58	1
222	222	3
36	36	3
68	68	5
91	91	1
2	3	3
64	65	1
192	192	7
241	242	1
108	134	1
105	105	8
118	118	4
95	136	1
31	33	2
194	194	1
65	106	1
119	119	6
67	113	1
122	175	2
106	106	3
139	139	5
38	38	8
30	30	3
101	102	1
74	112	1
133	177	1
51	60	1
140	140	3
228	228	3
129	129	3
190	198	2
173	173	4
176	176	3
66	66	3
85	86	3
54	54	4
46	46	6
37	38	2
148	148	4
14	34	1
187	188	2
159	159	6
114	116	1
124	140	1
56	58	1
185	185	2
43	71	1
63	64	3
0	31	1
26	26	5
22	22	7
8	33	1
204	204	4
81	84	1
164	164	3
107	108	1
238	238	4
150	157	2
9	105	2
5	5	3
125	125	1
62	63	1
233	233	5
84	122	1
21	22	5
121	122	2
177	179	4
89	89	5
159	178	1
26	45	1
152	152	1
65	67	2
97	97	3
3	3	3
202	202	3
13	15	2
66	68	2
67	146	1
10	178	1
147	147	4
151	155	1
158	195	1
7	7	7
44	70	1
106	135	1
145	146	1
15	30	2
213	225	1
184	185	2
58	60	1
52	59	1
196	196	2
207	210	1
109	119	1
66	67	2
8	12	1
76	76	1
137	138	2
81	81	4
69	70	1
21	24	1
135	137	1
51	51	3
77	79	1
197	197	4
36	56	1
45	45	4
156	186	1
39	40	1
111	112	1
165	165	2
77	77	2
201	201	2
149	169	1
38	86	1
173	174	4
206	223	1
163	163	4
69	79	2
80	117	1
180	187	2
34	34	3
158	176	3
82	82	4
6	18	1
48	55	1
31	32	1
141	143	1
26	28	1
120	149	1
150	172	1
149	160	1
84	214	1
217	219	1
19	19	3
96	97	1
124	126	1
23	43	1
108	108	2
189	205	1
119	173	1
180	213	1
118	119	1
58	61	1
226	227	2
13	14	1
26	198	1
137	143	1
29	96	1
79	80	3
211	211	3
193	193	2
138	184	2
149	149	6
70	86	1
63	75	1
116	117	2
115	133	1
72	72	2
221	222	2
166	200	1
142	143	2
76	145	1
61	179	1
132	132	2
30	38	1
120	129	1
120	175	2
152	171	1
184	190	2
128	130	1
230	231	2
77	80	1
38	42	1
103	116	2
11	241	1
4	6	1
213	213	3
155	157	1
49	49	4
32	33	2
63	63	1
116	116	2
19	20	1
8	20	1
218	220	1
38	46	1
54	55	1
29	30	2
102	103	1
9	231	1
122	127	1
190	190	1
204	216	1
0	11	1
195	195	2
197	200	1
109	121	1
174	175	2
226	229	1
186	188	1
62	98	1
62	64	1
83	84	1
151	166	1
52	53	1
70	71	2
10	171	2
100	101	2
191	196	2
43	60	1
55	174	1
18	19	3
51	78	1
12	14	1
69	69	8
136	137	2
49	50	1
119	120	1
188	189	2
183	186	1
100	129	1
158	160	1
140	149	1
82	83	2
32	198	1
172	173	1
157	179	1
219	220	3
198	200	1
163	165	1
197	199	1
54	58	1
73	96	1
3	4	1
42	60	1
204	207	1
5	6	2
106	131	1
151	157	1
53	54	1
13	56	1
106	114	1
10	201	1
161	162	1
6	7	2
98	128	1
199	199	2
23	67	1
70	72	2
156	182	1
18	56	1
98	100	1
5	19	1
231	231	1
24	24	1
16	16	4
7	12	2
37	122	1
48	62	1
182	183	2
95	96	1
53	60	1
207	211	1
208	216	3
197	198	2
234	236	1
11	181	1
140	142	1
170	231	2
227	231	1
33	34	1
202	203	2
210	210	2
127	143	1
10	10	5
48	58	1
67	68	2
232	234	2
180	182	1
172	198	1
119	152	1
22	41	1
153	157	1
198	198	4
6	13	1
51	52	1
59	60	2
166	167	1
173	175	1
64	159	1
133	137	1
168	169	1
60	76	1
33	53	1
191	191	2
11	20	1
3	16	1
33	39	1
99	159	1
142	154	1
14	14	1
114	161	1
217	220	1
169	176	1
19	35	1
65	68	1
171	172	1
197	204	1
151	187	1
179	182	1
136	174	1
45	46	1
169	177	1
138	142	1
176	204	1
23	171	1
2	22	1
125	142	1
193	213	1
113	136	1
53	57	1
62	111	1
167	179	1
31	46	1
144	145	2
47	48	1
13	200	1
106	124	1
128	233	1
26	34	1
123	136	1
179	188	1
0	0	1
128	132	1
130	131	1
14	16	2
49	68	1
209	210	1
20	114	1
223	223	1
160	192	1
139	141	2
48	49	3
71	72	1
2	7	1
199	230	1
12	161	1
24	44	1
8	178	1
159	179	1
168	185	1
128	163	1
2	4	2
115	116	1
58	79	1
20	113	1
142	142	1
114	128	1
221	221	1
120	174	1
189	206	1
120	182	1
59	76	1
63	71	1
49	54	1
17	18	1
126	137	1
72	73	1
162	165	1
198	199	1
151	161	1
20	23	1
8	14	1
134	140	1
181	199	1
3	60	1
115	115	2
178	198	1
205	209	1
133	133	1
7	49	1
124	125	1
59	83	1
77	213	1
237	238	1
75	80	1
192	196	1
130	169	1
102	106	1
1	3	1
181	183	1
172	174	1
182	192	2
154	162	1
181	181	1
38	57	1
204	218	1
156	162	1
190	191	1
98	98	1
46	55	1
129	175	1
172	175	1
200	200	1
153	161	1
137	150	2
7	196	1
138	144	1
0	118	1
157	159	1
162	162	1
146	148	1
98	172	1
130	173	1
183	187	1
76	78	2
55	56	1
96	171	1
141	141	1
224	225	1
10	219	1
182	184	1
2	190	1
106	109	1
124	209	1
133	135	1
111	173	1
7	16	1
32	86	1
107	126	1
145	148	1
158	164	1
188	188	1
5	57	1
156	159	1
19	21	1
14	21	1
84	100	1
58	80	1
133	134	1
184	186	1
