182	182	2
48	49	3
40	40	4
42	44	2
64	80	2
135	135	3
185	185	6
20	21	3
193	194	4
66	66	3
119	121	1
167	167	6
3	4	3
38	38	8
181	181	6
100	113	2
189	190	3
0	22	1
148	160	1
36	37	2
64	65	2
111	111	3
186	194	2
185	186	4
142	143	3
143	150	3
193	193	7
183	186	1
168	168	4
42	119	1
17	41	1
155	155	4
52	57	1
31	31	7
71	81	1
98	98	4
20	20	2
8	8	11
11	44	1
37	37	4
88	88	3
131	134	1
7	7	6
25	25	3
24	25	4
41	41	7
160	160	3
46	46	4
56	56	3
18	68	2
9	9	3
5	6	1
3	3	6
16	24	1
1	1	4
73	99	1
97	98	1
138	138	4
42	42	3
65	69	1
136	136	4
188	188	13
28	35	1
16	16	8
119	152	1
154	155	2
36	36	7
46	47	5
0	26	1
20	23	2
176	178	1
169	170	3
152	152	3
166	173	2
145	148	1
186	188	2
165	165	5
106	106	4
57	57	2
149	149	8
185	194	1
164	166	1
73	115	1
108	137	1
65	65	2
174	174	8
44	47	1
15	42	1
5	8	2
31	32	2
170	186	1
147	161	1
131	131	1
174	175	3
173	176	2
126	126	7
27	27	9
41	44	2
0	0	4
152	154	1
172	173	1
24	24	4
148	148	4
107	107	4
17	17	3
9	40	1
124	132	1
162	164	3
21	21	3
114	115	2
135	136	1
30	30	4
184	185	2
67	125	1
32	32	7
55	56	1
6	27	1
35	35	5
13	45	1
182	183	3
134	182	2
163	169	1
71	71	4
114	116	2
6	8	2
23	48	1
59	59	3
186	186	5
9	13	1
163	163	1
172	172	2
68	68	3
11	13	1
176	176	4
44	44	5
114	114	2
18	19	2
14	48	4
194	194	4
19	22	1
16	37	1
196	197	1
104	104	3
122	122	2
192	192	2
18	18	5
43	43	6
136	178	2
143	143	1
58	58	3
2	3	5
19	20	2
30	31	3
26	26	8
183	183	5
107	136	4
67	68	1
153	153	2
63	63	1
167	169	1
197	197	6
109	109	1
86	86	1
51	52	1
134	134	5
11	11	6
6	6	3
81	81	1
10	10	6
72	72	4
27	28	2
178	178	5
150	150	4
139	150	2
145	147	1
43	48	1
101	102	1
34	35	4
87	87	2
102	104	2
131	185	1
28	28	4
52	132	1
172	189	1
89	107	1
142	142	2
51	51	3
161	180	1
173	173	4
17	24	1
102	105	1
150	151	1
72	133	1
117	146	1
107	112	2
4	26	1
151	153	1
66	71	1
101	101	1
15	58	2
84	84	1
7	27	1
32	38	2
165	182	1
23	23	3
162	163	1
186	196	1
155	163	2
175	175	4
89	89	3
106	114	1
154	166	2
61	61	5
103	109	1
161	161	2
67	76	1
64	64	5
159	159	5
83	87	1
170	170	6
66	70	1
28	36	1
48	48	4
21	23	1
166	166	8
147	147	5
140	140	7
12	14	1
42	131	1
96	97	2
36	38	1
100	100	2
45	45	3
121	163	1
42	43	4
1	32	1
2	2	4
39	41	1
124	125	2
8	144	1
52	53	1
40	130	2
0	2	2
5	5	6
19	142	1
45	132	1
171	185	1
11	12	2
41	42	1
137	137	2
35	37	1
62	62	4
159	160	2
65	66	2
149	161	1
194	195	1
54	54	5
88	89	1
80	80	3
180	180	6
75	75	1
110	152	1
148	164	1
70	70	4
72	106	2
1	3	2
179	179	2
190	190	4
12	12	5
118	119	1
145	153	1
179	189	2
163	166	1
94	95	1
142	149	2
9	186	2
167	176	1
160	183	1
25	180	1
50	132	1
173	174	1
1	66	1
145	145	3
11	69	1
16	47	1
158	159	3
133	133	7
121	127	2
22	22	4
40	41	2
90	94	1
176	177	1
117	118	1
170	194	1
13	13	2
38	39	4
31	36	1
159	187	1
159	188	1
47	47	4
10	42	1
53	53	6
139	139	2
125	126	1
184	184	3
16	149	1
177	177	4
189	192	2
195	196	1
44	125	1
55	55	2
34	36	2
178	179	2
157	157	2
116	146	1
113	113	3
46	52	1
196	196	4
4	5	2
124	163	1
144	147	2
81	95	1
184	197	1
119	119	1
50	50	3
110	110	2
155	157	1
8	142	1
1	193	1
117	164	4
11	14	2
130	130	3
76	76	3
9	135	1
80	81	1
39	39	5
155	164	1
127	127	4
15	15	1
50	51	1
187	188	2
7	8	1
155	156	2
45	46	2
7	25	1
162	162	1
26	27	1
49	49	4
28	29	1
146	148	1
139	140	2
153	154	2
117	168	1
116	116	1
188	191	2
171	171	1
171	186	1
191	192	1
4	15	2
5	33	1
24	26	2
124	126	1
187	193	1
156	156	2
29	29	3
40	42	1
60	60	2
14	14	1
99	99	4
124	124	4
1	6	1
152	158	1
97	97	3
67	190	1
39	42	1
108	108	2
169	169	6
154	163	1
131	132	2
12	16	1
36	101	1
9	36	1
3	5	1
76	78	1
115	115	2
9	34	1
45	52	1
72	73	1
147	153	1
94	97	2
69	69	1
151	152	2
45	47	2
43	59	1
33	37	2
18	170	1
97	99	1
28	30	2
12	15	2
117	123	1
160	180	1
112	113	2
45	54	1
94	96	1
4	4	6
126	127	1
33	36	2
138	154	1
74	74	1
25	33	1
14	17	1
47	54	1
166	181	1
72	76	1
102	106	1
6	7	2
178	180	1
116	118	1
78	78	1
189	189	1
20	24	1
33	33	1
187	189	2
16	77	1
63	191	2
22	24	1
44	193	1
158	158	1
190	192	1
158	161	1
151	151	1
19	19	1
94	103	1
39	40	1
164	180	1
179	180	2
141	141	3
102	117	1
23	136	1
143	155	1
28	61	1
84	86	1
93	93	1
134	135	1
100	101	2
165	166	2
154	161	1
158	190	1
70	71	1
23	34	1
5	148	2
43	89	1
41	47	1
163	164	2
21	31	2
1	2	2
2	7	2
11	172	1
4	18	1
35	36	2
118	118	1
158	178	1
37	82	1
70	83	1
99	115	1
149	170	1
17	148	1
13	14	1
169	185	1
113	114	1
38	47	1
90	90	1
158	172	1
94	94	1
103	104	1
34	34	1
2	11	1
5	41	1
95	96	1
179	181	1
38	40	2
71	115	1
164	164	1
46	132	1
120	120	1
42	127	1
42	72	1
0	1	2
44	99	1
123	124	1
56	127	1
117	166	2
37	146	2
158	164	2
144	144	1
119	170	1
144	148	1
153	156	1
5	25	1
32	33	1
107	115	1
36	72	1
70	193	1
80	97	1
100	152	2
14	15	1
165	167	1
103	103	1
82	82	1
10	69	2
95	95	1
81	83	1
167	186	1
16	19	1
130	131	2
62	64	1
195	195	1
138	156	1
37	40	1
48	140	1
161	182	1
127	171	1
130	197	1
167	168	1
140	171	1
107	108	1
161	163	1
151	155	1
60	63	1
95	104	1
12	13	1
59	60	1
102	102	1
190	191	1
20	22	1
27	36	1
85	128	1
59	61	1
127	128	1
10	129	1
129	129	1
156	184	1
181	182	1
175	176	1
49	50	1
35	85	1
128	134	1
146	146	1
101	141	1
149	155	1
3	7	1
144	152	1
160	167	1
103	108	1
157	178	1
143	148	1
187	194	1
88	90	1
187	187	1
181	184	1
192	193	1
36	48	1
171	172	1
