74	75	3
103	104	1
60	60	5
10	10	6
99	99	1
150	150	4
101	113	1
165	165	4
70	70	2
35	35	4
77	77	1
41	41	5
111	111	3
11	11	3
166	166	3
138	138	6
141	141	4
99	101	1
86	86	3
36	36	5
173	173	3
23	25	1
89	90	2
133	133	5
66	66	9
167	171	1
42	42	2
73	73	2
127	127	2
29	30	2
76	76	9
147	147	3
140	140	4
145	145	2
141	142	2
53	72	1
67	68	2
147	148	2
78	78	3
139	173	1
39	39	2
124	128	1
143	143	6
180	180	2
163	163	4
95	95	2
95	96	1
18	20	1
134	134	5
162	163	2
157	157	4
131	131	5
162	165	1
116	124	2
11	13	1
167	167	2
134	137	1
82	90	2
23	24	1
175	175	4
40	40	4
99	102	3
129	129	1
162	162	3
154	155	1
165	167	2
27	27	2
178	178	3
7	7	2
89	89	9
34	35	1
2	3	1
88	88	2
87	87	3
102	103	1
73	74	3
67	67	1
148	148	3
159	159	4
169	169	7
71	71	5
112	112	1
62	63	2
79	79	3
31	36	1
82	91	1
144	144	2
44	44	3
30	37	2
126	126	2
156	158	1
125	125	1
90	90	3
123	140	2
118	118	2
119	120	1
83	83	4
49	49	3
15	15	3
154	154	1
169	170	2
18	23	2
2	2	1
92	94	1
138	139	3
94	95	1
136	137	2
168	171	1
124	125	1
80	80	3
6	6	7
137	137	4
121	121	4
158	158	4
110	110	1
119	122	1
79	80	3
136	172	1
104	105	1
146	146	2
32	33	3
3	4	5
81	81	3
94	94	2
33	33	5
52	53	1
16	16	2
38	39	2
116	116	2
98	99	2
127	139	2
45	45	2
123	125	1
43	81	1
144	145	1
156	156	1
152	158	2
64	64	2
25	25	1
120	120	2
35	84	1
9	9	3
82	83	2
23	45	1
15	40	2
64	138	1
149	149	2
39	40	3
60	110	1
161	161	1
96	98	1
55	87	1
82	94	1
82	89	2
74	76	1
28	30	1
170	170	3
174	174	4
18	18	2
105	105	2
54	56	1
90	92	2
56	56	1
124	124	1
3	3	2
160	160	2
26	26	2
155	156	1
19	19	1
76	77	1
122	122	1
35	82	2
28	28	1
60	61	2
117	117	1
93	93	1
91	91	1
139	141	1
147	160	1
134	173	1
172	172	2
65	65	3
7	8	4
34	75	1
91	92	1
51	54	1
127	128	2
172	173	1
5	6	1
11	17	1
161	162	2
23	23	1
140	141	1
136	173	1
23	26	1
159	161	1
61	65	1
64	66	1
130	135	1
63	63	1
142	142	2
130	130	1
55	56	1
153	153	2
32	32	1
132	133	1
75	76	2
13	158	1
85	86	1
104	104	1
29	29	2
53	53	2
37	77	2
90	95	1
33	36	2
58	58	1
177	177	2
37	37	2
139	167	1
108	108	3
147	168	1
75	75	2
113	113	2
29	37	2
65	66	1
68	72	1
124	126	1
119	119	2
1	1	3
89	94	1
87	120	1
43	43	2
95	122	1
28	29	3
134	139	2
55	55	1
135	135	2
151	152	1
125	142	1
91	93	1
8	8	5
79	178	1
12	12	2
132	132	1
155	155	3
113	115	2
106	106	1
139	149	1
142	145	2
152	153	1
18	90	1
57	57	1
109	110	2
17	21	1
139	139	2
56	110	1
86	88	1
135	136	1
121	122	1
148	179	1
34	34	1
33	35	1
171	180	1
10	39	1
167	169	1
118	119	2
112	114	1
35	36	2
71	72	1
109	109	1
55	138	1
61	66	1
7	16	1
39	102	1
8	9	1
44	46	1
41	42	1
118	121	1
152	152	2
77	80	1
54	54	1
53	54	1
65	68	1
41	68	1
1	119	2
106	107	1
128	128	1
125	126	1
99	100	1
37	52	2
52	52	1
68	70	1
17	25	2
115	115	1
0	0	3
36	55	1
52	54	1
145	146	1
18	19	1
163	164	1
34	78	1
6	7	1
30	30	1
116	121	1
16	17	1
73	81	1
79	176	1
102	102	1
4	4	1
136	138	1
169	171	1
104	128	1
61	63	1
160	170	1
126	171	1
83	84	1
12	13	1
130	131	1
131	132	1
117	118	1
1	27	1
170	171	1
56	61	1
27	30	1
36	53	1
86	87	1
36	37	1
114	114	1
57	58	1
122	123	1
79	81	1
96	96	2
5	5	2
58	62	1
98	100	1
13	13	1
31	31	1
26	30	1
92	92	2
117	135	1
81	90	1
11	49	1
155	157	1
4	5	1
62	62	1
157	161	1
61	64	1
164	164	1
103	103	1
116	117	1
102	135	1
85	85	1
80	81	1
20	23	1
