49	49	5
13	13	4
95	95	5
70	105	1
94	101	1
127	127	3
96	96	1
130	130	2
51	51	2
79	79	13
55	55	1
107	107	2
72	73	3
23	34	1
133	133	4
25	27	2
62	62	1
54	54	4
48	59	2
18	18	3
129	129	5
93	93	1
33	50	1
66	66	3
72	72	6
59	60	3
71	72	2
78	78	1
2	2	2
74	75	1
74	74	7
60	61	4
45	47	1
29	29	4
100	100	5
27	27	1
73	135	1
63	63	9
25	25	4
73	73	11
88	88	4
81	81	5
23	33	1
43	114	1
66	67	2
71	71	11
0	0	4
53	107	1
26	26	4
99	99	5
86	88	1
43	43	8
19	19	2
1	1	6
6	6	5
81	82	4
16	16	7
111	111	4
42	42	1
50	75	1
36	49	2
83	83	2
123	123	6
28	28	8
52	52	4
1	96	1
115	115	2
62	63	2
20	20	3
132	132	2
119	120	3
30	48	1
112	112	4
65	67	1
131	131	3
46	93	1
90	90	5
112	113	2
21	24	2
55	60	1
4	4	3
117	117	2
88	89	1
12	13	1
3	3	8
99	103	4
23	23	3
53	54	1
122	122	3
23	26	1
37	54	2
61	62	2
31	31	2
124	124	4
44	44	6
86	86	4
21	22	2
68	68	4
25	32	2
75	76	1
21	33	1
75	75	5
105	105	4
76	76	5
78	87	1
7	12	1
26	27	1
90	91	1
96	97	2
35	35	5
32	32	1
69	69	2
57	58	2
10	10	2
34	35	1
94	94	5
9	9	4
64	64	1
84	84	3
79	99	1
58	79	1
57	69	1
3	29	1
87	87	3
31	89	1
84	85	2
7	7	5
77	77	4
17	43	1
120	120	4
115	117	2
16	23	1
54	55	1
34	34	3
34	55	1
33	33	3
61	61	7
38	38	1
45	45	5
27	43	3
22	23	3
65	69	2
53	55	3
70	71	2
101	101	4
102	103	1
55	58	1
131	132	1
8	8	4
125	125	5
61	82	1
30	30	2
82	84	1
12	65	1
116	116	2
123	124	1
78	79	1
63	69	2
125	127	1
67	68	4
45	46	3
49	50	1
25	26	2
88	93	1
64	65	4
97	97	2
126	126	2
15	94	2
50	119	1
79	86	1
13	82	1
70	79	1
104	104	4
6	7	2
17	17	1
58	58	3
80	80	5
43	44	2
89	90	2
4	5	1
64	69	1
53	53	3
3	4	3
106	106	1
32	121	1
67	67	2
121	121	1
113	113	1
68	69	1
78	109	1
86	87	1
108	109	1
134	134	3
4	31	1
54	58	1
113	115	1
57	57	1
83	88	1
119	119	1
132	133	1
82	82	4
78	80	1
80	122	1
110	111	2
35	92	1
46	51	2
56	59	2
59	59	2
58	59	2
109	109	1
21	21	4
70	70	2
15	15	1
122	124	2
120	126	1
60	86	1
61	65	1
50	50	5
19	20	1
33	106	1
135	135	2
56	56	2
32	100	1
53	109	1
77	78	1
6	12	2
122	129	1
24	25	1
98	98	2
14	95	1
130	131	1
57	59	1
112	115	1
97	100	2
5	5	1
47	47	3
93	94	1
82	85	1
65	65	2
6	11	1
0	29	1
12	12	2
21	43	1
50	71	1
80	81	1
29	71	2
13	14	3
61	64	1
107	111	1
65	66	1
102	102	2
48	48	1
49	52	1
66	68	1
76	79	1
59	106	1
71	112	1
7	22	1
30	33	1
114	114	1
44	45	2
106	119	1
85	85	1
26	28	1
15	16	1
21	63	1
11	11	3
106	111	1
102	104	1
22	22	2
21	23	1
128	128	1
81	102	1
65	111	1
101	108	1
10	11	1
104	105	1
69	72	1
63	77	1
108	110	1
99	121	1
123	132	1
1	2	1
77	79	1
76	80	1
49	73	1
22	24	1
46	46	1
89	89	1
24	24	1
82	96	1
37	58	1
92	109	1
