38	39	2
198	199	1
165	165	4
173	173	4
63	64	1
170	170	3
53	53	2
179	179	4
182	182	2
19	20	1
18	18	4
206	206	3
223	223	7
214	215	1
37	38	3
57	57	3
236	236	4
27	168	1
99	99	4
208	209	3
168	168	3
38	38	6
154	154	1
168	216	1
102	107	1
164	165	1
200	201	1
59	59	3
182	184	1
33	36	1
30	30	5
175	185	1
70	70	5
192	194	1
111	111	3
237	237	3
7	7	9
81	86	2
198	198	4
199	219	1
84	84	1
166	221	1
192	192	4
220	220	2
93	93	1
77	81	1
81	81	1
195	195	3
73	73	2
185	185	2
161	161	5
0	0	1
86	94	2
162	175	1
241	241	4
152	153	1
234	234	2
216	217	1
164	164	3
224	224	7
29	29	1
48	62	1
105	105	2
120	120	2
227	227	6
52	52	3
68	99	2
2	4	1
216	216	2
61	85	2
20	20	6
203	203	5
97	97	5
229	229	2
42	42	5
119	119	6
152	152	5
46	46	3
153	153	2
87	87	2
68	68	4
12	12	3
8	8	6
187	188	2
15	15	2
58	87	3
88	88	6
36	36	5
63	63	3
14	15	2
100	100	2
55	55	2
45	52	1
59	60	2
9	9	4
5	5	6
34	65	1
158	158	4
245	246	2
35	35	3
212	212	4
244	247	1
61	62	1
94	95	2
49	49	5
28	29	2
98	102	1
100	101	2
151	151	3
43	45	1
204	204	4
112	112	4
26	150	1
221	221	3
11	11	4
85	85	2
113	113	6
169	173	2
183	183	1
10	10	5
200	207	1
186	186	1
167	167	4
60	60	2
230	231	1
45	58	1
48	48	5
51	51	1
64	64	4
194	196	1
22	22	3
157	157	2
232	234	1
46	204	2
16	16	3
84	85	2
5	232	1
48	54	1
80	80	1
197	198	1
118	120	1
78	83	1
39	39	1
109	109	3
114	145	2
79	89	1
217	218	2
233	237	2
76	76	4
43	43	3
240	241	2
177	177	9
91	93	1
33	33	2
31	174	1
220	230	1
221	232	1
106	106	2
146	152	1
27	27	2
174	174	3
195	196	2
55	57	2
181	181	2
56	56	2
91	92	1
24	24	2
193	216	1
236	237	2
3	3	5
25	25	3
116	116	1
10	40	1
81	82	1
201	201	3
235	236	1
237	238	3
75	75	3
172	172	1
175	175	5
160	161	1
114	114	2
45	45	7
117	117	4
50	50	2
53	54	2
82	82	6
64	66	1
184	184	4
178	178	3
186	187	1
207	207	3
180	180	2
4	4	1
70	71	1
157	181	1
202	202	1
96	96	2
163	163	4
45	46	1
67	68	2
185	191	1
41	42	1
170	187	1
244	244	1
95	95	3
167	168	1
217	217	2
32	36	1
31	31	2
162	162	3
243	243	1
109	110	1
187	190	1
166	168	1
205	205	2
108	108	2
237	239	1
247	247	2
174	175	2
8	10	1
41	41	2
48	63	1
242	242	1
188	188	3
34	34	5
213	222	2
225	225	2
66	69	1
1	1	2
118	118	1
86	89	1
164	177	1
232	233	3
77	77	1
201	212	1
86	86	1
193	194	2
89	90	2
226	226	5
147	147	1
176	186	1
5	6	1
83	83	1
161	165	1
228	229	2
26	26	3
246	248	2
52	53	1
155	155	1
216	218	2
209	209	3
84	86	1
66	66	3
162	178	1
177	178	1
26	31	1
220	223	1
162	163	1
213	213	1
172	173	1
47	47	2
23	23	3
35	37	2
240	240	3
4	6	1
2	2	1
39	205	1
110	112	1
166	166	1
21	21	3
193	195	2
69	69	3
78	78	1
91	91	3
193	193	2
173	200	1
51	52	1
87	98	2
62	62	1
194	194	2
226	227	1
180	185	1
56	87	1
170	178	2
36	37	2
221	239	1
27	28	1
115	116	2
160	228	1
51	67	1
176	176	1
6	6	3
183	184	2
37	37	6
64	212	1
239	240	3
11	19	1
210	211	2
209	220	1
238	238	3
110	110	1
39	43	1
207	223	1
200	200	2
187	187	1
215	240	1
3	5	1
79	79	1
184	206	1
208	208	3
28	33	1
173	174	1
191	191	1
16	207	1
74	75	1
16	109	1
223	244	1
190	194	1
171	171	4
153	154	1
214	235	1
103	103	1
30	31	1
16	93	1
76	77	1
183	203	1
175	178	2
3	4	1
78	95	1
87	92	1
71	71	2
231	231	1
93	110	1
214	223	1
26	27	1
171	186	1
8	28	1
197	197	5
117	118	1
235	235	1
88	98	1
222	222	1
240	247	1
204	207	1
32	32	2
219	219	1
170	171	1
164	166	1
28	28	2
13	102	1
40	40	2
47	48	1
71	72	1
233	238	1
188	189	1
44	45	1
62	63	1
17	17	1
229	230	2
115	117	1
181	182	1
217	219	1
184	200	1
73	74	1
166	181	1
199	199	1
215	218	1
72	72	1
218	218	3
67	67	1
191	192	1
182	185	1
169	169	1
75	76	1
98	98	1
66	96	1
87	94	1
76	166	1
184	228	1
215	215	1
179	180	1
165	166	1
82	106	1
213	223	1
190	190	1
163	177	1
105	107	1
230	238	1
11	27	1
214	214	1
6	7	1
156	156	3
22	202	1
49	238	1
54	55	1
32	33	1
104	104	2
79	97	1
102	102	1
61	61	1
40	76	1
168	169	1
228	228	2
55	58	1
66	105	1
211	211	2
189	190	1
78	169	1
27	30	1
221	222	1
194	225	1
51	241	1
222	243	1
171	172	1
172	177	1
57	117	1
27	31	1
150	150	1
85	89	1
170	186	1
176	178	1
25	150	1
14	14	1
82	86	1
55	56	1
191	195	1
218	219	1
89	89	1
156	200	1
44	44	1
58	58	1
239	239	1
63	71	1
194	208	1
49	66	1
230	230	1
109	236	1
5	83	1
