62	73	1
121	121	4
79	134	1
11	11	5
12	12	4
19	19	5
6	16	2
83	83	5
49	50	5
123	124	1
40	41	3
86	102	1
87	87	5
1	1	1
117	117	2
109	109	4
118	118	7
6	57	1
62	62	9
76	76	4
30	30	4
21	21	3
73	74	3
112	113	3
100	101	7
35	36	1
56	56	4
85	85	7
93	93	1
107	108	5
24	24	3
64	64	7
114	114	4
38	40	3
27	36	1
33	45	2
74	74	4
31	31	4
69	70	1
13	13	7
82	83	2
115	115	8
19	33	3
17	17	7
63	63	10
92	92	2
67	68	2
121	127	1
22	22	3
71	71	2
131	133	2
27	27	4
71	75	1
124	125	2
11	13	3
45	45	8
75	75	7
14	27	1
131	132	5
0	1	1
120	120	6
97	99	1
101	101	3
41	42	4
57	57	2
78	78	8
124	124	1
108	108	7
5	5	4
36	39	1
119	119	7
99	100	7
113	113	3
65	65	7
15	15	4
103	103	3
77	115	2
44	44	3
110	110	6
73	73	6
18	18	7
109	110	1
32	32	3
114	115	2
8	8	4
24	28	1
59	59	1
29	32	1
7	37	4
66	66	6
87	131	1
70	70	3
79	79	4
7	8	1
120	122	1
12	47	1
82	82	6
110	111	1
72	73	1
4	5	3
126	128	2
31	32	4
47	47	6
28	28	3
58	58	7
7	36	1
39	39	2
78	94	1
123	123	3
97	98	2
5	36	2
42	43	2
130	132	1
128	129	1
78	114	1
90	133	1
23	23	2
36	36	5
29	30	1
20	22	2
134	134	2
88	89	1
105	106	2
101	102	1
90	90	4
127	129	3
100	100	7
29	31	1
23	24	1
41	43	1
97	114	1
18	62	1
4	17	1
28	43	1
103	104	1
84	86	2
105	105	3
102	102	4
132	132	6
29	29	5
7	7	2
96	108	1
110	115	1
57	59	2
80	81	2
60	60	1
9	9	6
46	46	4
40	40	5
35	35	3
122	129	1
24	25	1
19	35	1
128	128	2
113	130	1
91	91	2
70	71	3
103	111	1
46	47	2
122	123	1
68	69	1
36	37	1
38	38	3
108	109	2
6	6	4
10	10	2
125	126	3
93	94	2
117	123	1
122	122	1
97	109	2
121	131	1
3	61	1
112	112	5
81	81	4
20	27	1
88	88	1
115	133	1
108	111	1
21	31	1
40	42	2
68	68	2
99	99	2
32	44	1
5	31	1
71	72	2
3	35	1
33	33	2
17	46	3
61	61	7
92	93	1
26	26	3
127	127	5
127	128	2
42	42	3
37	38	1
20	20	3
4	8	1
37	37	5
77	97	1
112	114	1
0	0	4
78	85	1
14	15	1
62	75	1
111	111	6
30	31	1
98	98	1
24	27	1
94	131	1
110	125	1
117	118	1
81	82	1
41	41	4
44	45	1
3	3	3
107	113	1
78	79	1
34	34	3
108	112	1
118	120	1
5	7	1
106	107	3
133	133	2
39	42	2
105	131	2
69	85	2
106	127	1
66	67	2
96	123	1
55	55	2
125	128	1
76	77	2
21	22	2
30	45	1
104	107	1
132	134	1
2	2	2
33	34	3
107	107	3
96	96	4
24	29	1
84	84	1
26	42	1
9	33	1
121	122	1
77	77	3
72	72	2
48	48	3
37	41	2
132	133	1
47	57	1
95	119	1
130	131	2
20	21	1
1	2	1
106	106	5
4	4	2
6	103	1
101	108	1
95	102	1
129	129	2
126	126	1
111	112	2
25	25	1
16	17	2
102	105	1
11	15	1
126	127	1
82	100	1
93	95	1
31	48	1
104	104	1
73	95	1
79	109	1
111	130	1
80	107	1
120	123	1
80	80	1
57	84	1
94	101	1
58	61	1
19	32	1
126	129	1
129	130	1
86	86	1
30	43	1
96	99	1
91	97	1
59	77	1
58	59	1
57	58	1
91	92	1
19	20	1
49	49	1
131	131	1
130	130	1
86	87	1
97	97	1
19	61	1
16	16	1
45	46	1
17	35	1
96	133	1
64	65	1
8	9	1
77	78	1
133	134	1
6	123	1
25	57	1
7	125	1
87	88	1
43	43	1
120	131	1
9	10	1
34	35	1
70	76	1
