136	164	1
176	176	2
7	19	1
44	44	10
15	17	2
19	19	9
180	181	1
4	17	1
47	47	5
113	113	1
5	5	8
169	169	2
111	111	1
15	15	2
39	186	1
172	172	4
151	151	4
194	194	8
9	37	1
113	121	1
186	186	6
160	196	1
155	158	3
10	24	1
51	51	2
21	21	5
183	185	1
41	186	2
58	58	4
42	42	6
129	196	1
137	138	3
13	13	7
141	151	1
16	16	2
4	13	2
138	138	5
125	125	1
4	38	1
103	103	2
182	182	4
161	163	2
43	43	2
46	46	7
143	143	3
33	33	4
19	20	3
8	39	1
45	45	4
65	66	1
134	135	1
71	71	4
82	82	3
124	124	2
150	150	2
183	183	6
68	68	1
155	155	2
175	177	1
12	12	2
69	69	2
39	39	4
65	65	4
5	39	1
112	112	1
106	106	1
160	178	1
98	99	1
93	93	5
173	173	5
11	54	2
23	23	5
138	186	2
165	165	1
175	175	1
99	99	2
4	5	3
118	118	3
141	160	1
10	120	1
164	164	2
54	54	5
135	135	1
23	25	1
112	114	2
157	157	2
162	162	1
131	131	2
159	160	4
152	153	2
8	8	4
149	160	1
22	22	2
5	9	2
38	44	1
53	53	5
4	4	5
128	128	3
10	10	6
121	121	1
120	120	1
179	180	1
27	28	2
168	168	7
38	38	5
185	185	1
119	120	3
119	119	3
103	104	2
17	19	1
156	156	6
31	31	4
36	36	2
26	26	5
195	195	4
30	30	4
177	192	1
19	179	1
63	93	1
189	189	4
144	144	2
169	187	1
48	48	2
6	6	3
149	149	5
107	107	4
6	8	1
148	148	3
67	67	2
70	71	2
72	72	3
110	116	1
71	145	1
153	153	2
156	170	1
50	50	2
17	17	2
32	32	9
40	40	4
86	86	3
170	171	1
169	185	1
108	109	2
193	193	4
12	13	1
34	34	2
192	192	2
176	177	2
12	53	1
150	151	1
160	160	5
147	147	2
60	89	1
130	130	2
9	9	8
126	127	1
73	73	2
21	24	1
121	134	1
13	14	2
149	151	1
63	64	1
69	70	1
21	22	1
56	57	3
129	129	1
23	24	4
0	39	1
171	172	1
28	29	3
4	15	1
142	142	4
63	63	6
16	42	1
184	186	1
11	11	4
89	89	1
34	118	1
43	46	2
110	146	1
4	33	1
6	7	1
97	106	1
30	31	1
37	38	2
188	190	1
16	17	1
48	107	1
24	24	2
3	4	3
134	134	3
165	166	2
97	98	2
51	52	2
139	140	1
136	136	5
182	183	1
59	59	1
98	98	2
115	115	2
25	27	1
170	170	4
134	140	2
54	55	1
115	121	2
44	45	1
33	34	1
0	4	2
171	171	1
182	194	2
146	146	3
18	36	1
123	123	1
16	194	1
115	116	1
105	106	1
120	121	1
160	170	1
174	174	1
22	23	1
35	35	3
28	30	1
153	160	1
118	133	1
34	35	1
181	184	1
15	16	2
83	84	2
62	62	2
4	180	1
141	141	1
189	190	1
126	126	4
190	191	1
65	93	1
187	190	1
84	85	1
3	3	2
156	185	1
26	27	1
38	39	1
151	152	1
150	160	1
156	189	1
130	131	1
161	161	2
14	14	7
35	155	1
82	83	1
60	61	1
117	117	4
34	36	1
144	145	1
64	66	1
79	79	1
191	192	2
7	8	1
87	107	1
133	133	1
112	113	1
77	77	2
118	150	1
196	196	1
33	110	1
59	87	1
0	0	3
37	37	3
139	139	1
64	64	2
55	55	1
32	33	3
122	122	2
125	127	1
167	167	1
179	179	1
140	140	2
123	136	1
61	61	3
81	83	2
0	25	1
196	197	1
143	144	1
35	106	1
84	84	1
41	41	1
99	100	1
46	47	1
84	86	1
166	166	1
47	48	1
145	145	1
184	184	3
7	7	1
87	87	1
42	44	1
143	159	2
197	197	2
9	20	1
67	68	1
0	2	1
181	182	1
116	116	1
108	108	1
142	143	1
110	110	1
119	140	1
124	125	1
189	192	1
192	193	2
66	66	1
178	179	1
71	142	1
1	1	1
155	156	1
100	104	1
81	86	1
14	15	1
58	81	1
132	132	1
10	119	1
158	158	1
30	110	1
29	30	1
24	37	1
184	194	1
177	177	1
56	56	1
40	42	1
149	150	1
164	171	1
187	187	1
154	154	1
66	145	1
114	146	1
17	32	1
25	25	1
4	119	1
5	7	1
159	159	1
154	192	1
152	152	2
112	115	1
20	157	1
123	128	1
33	40	1
