137	137	1
36	36	2
77	77	3
134	135	1
143	143	2
145	145	5
24	197	1
69	70	2
207	232	1
241	241	1
150	168	1
13	13	2
181	201	1
16	16	1
200	235	1
103	104	2
229	229	3
197	197	2
169	169	6
51	115	1
177	180	1
68	68	3
74	75	1
205	205	3
186	186	3
108	108	4
139	159	2
52	52	2
18	43	2
220	224	1
171	174	1
192	196	1
55	61	1
74	74	4
28	28	3
9	86	1
50	50	1
236	236	1
13	185	2
40	67	1
65	66	2
168	223	1
170	172	1
144	146	1
178	188	1
159	168	1
138	178	1
133	146	1
41	41	1
135	137	1
70	70	6
106	107	2
154	154	3
190	190	2
174	175	2
144	145	2
104	104	3
220	221	1
153	153	4
140	143	1
155	178	1
10	46	1
177	230	1
124	126	3
70	73	2
152	152	4
149	149	4
62	70	1
219	219	8
171	171	2
116	116	5
48	178	1
173	174	1
19	24	2
234	234	4
155	156	1
19	19	5
77	81	1
31	68	1
62	62	5
134	134	3
182	183	1
21	119	1
212	212	2
139	139	2
43	43	3
135	135	4
118	118	1
158	160	1
104	107	1
199	200	2
17	17	3
34	34	1
55	55	4
105	124	1
100	102	1
97	97	3
196	199	1
82	83	3
186	187	4
76	77	2
184	184	3
105	105	3
80	80	2
75	75	6
40	40	3
102	102	3
43	174	1
207	207	1
132	187	1
42	54	1
122	123	3
157	157	9
2	16	1
193	194	2
202	242	1
81	83	1
152	155	1
121	144	2
180	181	2
173	173	6
204	204	1
150	152	2
24	24	1
185	185	2
166	166	4
139	140	1
86	86	4
145	146	2
180	188	1
103	103	5
157	158	2
84	84	1
160	160	4
54	55	2
3	59	1
177	178	1
54	54	1
49	49	2
201	201	1
69	69	5
218	218	1
85	86	1
63	63	3
226	226	2
56	56	4
27	27	4
203	204	2
26	27	2
42	43	1
71	71	3
63	78	1
81	81	6
11	11	3
177	177	4
149	152	1
170	170	6
213	213	2
136	149	1
20	20	4
215	216	2
46	46	3
202	234	1
45	45	6
211	211	4
30	44	1
162	162	4
10	10	2
80	82	1
51	57	1
125	141	1
178	178	3
146	146	1
78	78	4
184	185	3
49	133	2
181	187	1
99	100	1
179	188	1
182	182	4
199	199	1
4	4	1
134	155	2
198	198	2
24	128	2
9	9	2
188	188	2
85	85	2
180	180	2
82	84	2
2	2	5
96	96	1
10	17	1
115	115	2
115	116	2
101	101	2
73	73	1
8	8	8
25	48	1
115	118	1
15	15	5
185	187	1
47	47	3
222	222	2
202	202	2
106	106	5
14	14	2
3	3	2
104	117	1
6	40	1
66	67	2
83	83	2
200	200	1
221	221	3
241	243	1
183	183	2
181	182	2
135	196	1
27	32	1
224	224	4
41	45	1
3	26	1
44	73	1
149	150	1
161	168	1
36	81	1
109	110	1
208	208	1
148	149	2
107	109	2
129	162	1
21	21	2
153	154	2
158	158	3
65	65	4
21	35	1
175	175	3
161	162	3
61	61	1
202	203	1
125	125	3
106	144	1
62	75	1
173	175	1
176	176	4
193	193	1
131	131	1
133	148	1
104	114	1
48	48	4
9	26	1
167	167	2
199	202	1
227	227	2
42	68	1
238	239	2
80	89	1
88	88	2
60	103	1
12	13	1
32	32	1
136	136	3
55	56	1
17	19	1
141	142	1
64	64	2
144	144	1
138	140	1
118	120	1
82	82	1
0	0	2
39	39	3
53	53	1
26	171	1
179	181	1
191	240	1
53	60	1
30	30	3
26	26	2
72	72	2
153	158	1
112	152	1
129	129	4
180	194	1
163	163	4
158	159	1
10	239	1
128	131	1
169	170	1
57	58	2
184	187	2
88	98	1
6	6	2
5	6	1
125	126	2
172	174	1
6	8	2
24	25	3
222	224	1
75	176	1
58	71	1
44	44	1
191	192	1
100	100	1
18	18	2
150	150	2
35	35	3
11	43	1
190	191	1
110	110	1
170	171	1
12	18	1
23	24	2
3	11	1
146	148	1
160	161	1
196	196	1
74	85	1
150	151	2
119	121	1
159	159	1
231	231	3
22	40	1
163	164	1
42	42	2
215	215	1
114	118	1
111	127	1
212	222	1
203	217	1
64	74	1
121	122	1
214	215	1
97	99	1
24	55	1
90	100	1
172	172	3
16	17	1
49	59	1
37	37	3
148	148	1
106	150	1
29	231	1
62	74	1
195	195	3
122	122	2
228	230	1
163	182	1
57	57	1
164	166	1
145	147	1
176	181	1
77	79	1
162	179	1
179	185	1
167	174	1
17	43	1
208	209	1
13	15	2
119	120	1
33	33	1
137	179	1
54	109	1
113	113	3
11	13	1
197	210	1
67	67	1
58	59	2
56	209	1
130	130	1
168	168	2
51	107	1
38	38	2
216	216	1
5	5	1
17	21	1
48	56	1
165	165	1
29	30	1
230	230	1
18	209	1
239	239	1
147	147	1
223	223	2
89	100	1
133	141	1
21	22	1
117	140	1
133	133	1
130	202	1
101	103	1
194	194	1
51	52	1
225	225	1
11	12	2
79	79	2
193	214	1
47	65	1
76	102	1
149	168	1
175	176	1
119	158	1
7	8	2
68	75	1
185	186	1
235	235	1
203	203	2
159	173	1
220	220	1
28	31	1
16	52	1
52	54	1
10	24	1
126	126	2
68	103	1
123	123	1
115	141	1
166	168	1
50	53	1
62	64	1
191	191	3
49	152	1
217	217	1
77	82	1
241	242	2
59	66	1
218	219	1
58	86	1
107	108	1
174	174	1
57	59	1
34	39	1
192	197	1
36	53	1
166	175	1
28	170	1
15	38	1
157	162	1
65	68	1
206	206	1
164	164	1
133	134	2
27	28	1
155	155	1
36	41	1
134	153	1
199	216	1
111	135	1
66	66	2
25	25	1
130	131	1
43	45	1
242	242	2
156	157	1
171	172	1
178	179	1
29	46	1
64	78	1
79	82	1
9	10	1
117	168	1
136	137	1
188	189	1
131	169	1
68	102	1
224	225	1
58	60	1
59	59	1
167	168	1
201	202	1
51	51	1
10	11	1
49	57	1
12	187	1
113	201	2
179	180	1
76	107	1
109	128	1
41	49	1
161	161	1
104	145	1
25	166	1
114	115	1
