167	167	8
169	169	2
116	127	3
36	36	1
109	109	1
18	22	3
150	155	1
82	83	1
162	163	1
140	140	2
46	46	2
1	110	1
131	157	2
90	90	1
0	10	2
23	24	1
91	91	2
23	163	1
95	95	1
144	160	1
105	106	1
20	20	2
72	72	1
0	0	2
127	144	2
9	18	1
68	68	1
13	47	2
8	45	1
161	161	1
25	25	3
106	106	1
143	143	5
130	130	1
133	136	2
121	121	1
93	93	3
156	156	1
52	52	3
143	144	1
94	129	1
130	147	1
33	35	1
22	22	3
89	107	2
43	44	2
141	142	1
71	71	2
129	129	2
138	138	3
159	169	1
17	18	2
161	164	1
139	139	2
53	53	3
165	165	2
78	104	1
44	44	2
164	164	2
123	123	1
162	164	2
136	136	1
2	5	1
158	158	4
77	79	2
26	27	1
114	114	3
10	10	1
138	153	1
58	58	1
126	126	1
12	19	1
39	49	1
19	19	1
144	144	2
39	39	3
44	46	1
37	37	1
102	102	1
23	23	1
90	91	1
142	142	1
77	78	1
168	168	2
97	98	2
86	87	1
115	115	1
2	18	2
81	92	1
135	136	1
10	19	1
166	166	1
90	112	2
139	169	1
40	40	5
161	162	1
149	149	1
50	50	2
93	94	2
96	96	3
63	129	1
36	37	1
112	112	1
124	130	1
111	111	2
100	123	1
24	24	3
17	17	2
80	80	2
84	84	2
111	114	2
149	152	1
38	38	3
113	114	2
165	166	1
134	134	1
117	118	2
87	106	1
44	45	1
18	19	2
112	113	4
131	159	1
92	92	1
0	34	1
86	86	1
13	13	3
65	65	2
136	166	1
83	84	1
124	159	1
1	1	2
27	36	1
114	116	1
73	85	1
12	12	1
82	95	2
2	39	1
49	50	1
108	108	2
132	132	1
148	148	2
8	8	3
88	88	3
35	36	2
119	120	1
72	82	2
115	118	2
135	135	2
17	21	1
118	130	1
131	151	1
115	116	1
18	18	2
72	85	1
116	168	1
37	38	1
139	142	1
146	147	1
152	152	1
42	42	2
42	43	1
163	169	1
144	145	1
15	15	1
137	138	1
76	125	1
65	122	1
141	141	2
128	156	2
110	133	2
114	160	1
39	40	1
76	76	1
155	156	1
80	108	1
62	62	1
34	34	2
11	11	1
92	103	1
14	14	1
54	65	1
2	3	2
52	58	1
120	120	1
27	27	2
102	104	1
20	21	1
137	137	1
6	39	1
141	143	1
9	11	1
26	26	1
54	62	2
115	122	1
94	98	1
6	6	1
49	49	2
5	5	2
155	155	1
64	64	1
20	22	1
77	77	1
7	13	1
136	155	1
101	111	1
9	9	1
87	88	1
118	118	1
74	96	1
160	161	1
126	146	1
70	115	1
37	142	1
100	100	1
139	158	1
150	150	1
9	10	1
4	4	1
3	5	1
163	163	1
16	25	1
122	122	1
91	107	1
5	6	1
25	51	1
156	157	1
129	132	1
53	54	1
8	104	1
110	110	1
37	42	2
160	160	1
49	63	1
81	81	1
91	103	1
159	159	1
