43	43	6
43	116	1
44	48	2
60	60	3
101	101	4
47	51	2
45	48	1
61	63	2
17	21	1
79	79	5
51	51	1
59	62	1
26	29	2
71	71	4
92	97	1
82	83	1
55	55	3
132	133	1
15	15	2
14	14	2
11	24	2
13	13	2
71	72	2
118	118	2
97	97	2
77	77	2
19	22	1
17	17	2
11	12	1
75	76	1
45	45	1
31	31	1
12	12	1
44	55	1
96	97	1
127	127	2
80	80	3
33	34	2
61	61	1
45	50	2
65	65	3
76	77	1
7	7	3
47	50	1
6	127	1
75	75	5
5	5	1
87	87	2
32	35	1
25	26	1
60	61	1
83	87	1
16	16	2
47	77	1
5	9	1
99	99	5
128	129	3
17	30	1
83	84	1
9	21	1
73	73	5
135	135	1
92	93	2
117	117	1
33	33	3
109	120	3
21	24	1
94	95	1
99	100	1
21	66	1
11	13	6
95	96	2
17	24	1
26	26	3
73	75	1
9	22	1
13	14	2
19	19	1
43	62	1
4	34	1
103	103	1
77	78	1
119	119	1
63	63	1
66	66	1
46	46	2
21	21	1
111	111	2
78	78	3
109	109	1
53	54	1
70	73	1
94	94	2
28	28	3
81	81	1
67	82	1
74	74	2
57	57	4
22	22	1
113	114	2
6	11	2
16	54	1
112	116	1
88	88	1
123	123	3
0	1	2
56	56	2
67	67	2
30	31	2
38	38	1
29	29	2
134	134	1
80	82	1
11	11	4
36	36	2
125	125	1
0	0	1
57	59	1
107	107	1
10	10	4
59	59	2
120	120	1
70	70	2
31	126	1
103	104	1
59	69	1
28	107	1
81	82	2
71	79	1
54	54	1
49	50	1
25	25	3
59	68	1
112	127	1
27	27	2
91	99	1
34	35	1
71	74	1
53	55	1
78	79	1
108	109	1
3	3	1
102	102	1
69	69	3
50	50	2
115	120	1
24	25	1
18	18	3
79	80	1
106	106	2
120	121	1
43	51	1
14	73	1
16	25	1
124	127	2
85	85	2
38	61	2
49	49	1
32	50	1
2	2	3
133	133	1
2	13	1
50	51	1
122	122	1
4	5	1
106	114	1
46	51	1
65	70	1
30	30	1
109	112	1
82	82	3
75	84	1
64	64	2
62	62	1
67	83	1
17	19	1
11	23	1
124	130	1
53	65	1
68	69	1
70	72	1
1	1	1
57	90	1
23	23	2
105	105	1
52	52	3
35	35	1
119	121	1
113	113	2
24	24	1
43	44	1
62	64	1
0	77	1
131	131	1
9	24	1
34	34	2
18	20	1
32	32	2
91	91	1
22	23	1
27	29	1
3	4	1
6	7	2
55	62	1
103	105	1
44	45	1
8	8	1
73	74	1
93	98	1
119	120	1
9	9	1
124	125	1
76	76	1
23	24	1
131	132	1
90	90	1
104	104	1
62	63	1
4	21	1
129	129	1
126	128	1
