154	154	7
155	156	4
16	16	4
62	63	4
149	150	3
185	186	3
220	220	2
109	109	2
144	146	1
188	188	9
129	167	1
20	20	2
141	165	1
128	128	4
178	178	3
162	163	1
103	103	10
104	117	4
173	173	3
147	147	3
233	233	1
223	226	1
150	150	7
1	1	4
173	174	1
121	121	9
62	62	4
168	169	1
2	5	1
159	160	5
145	145	1
72	72	9
153	160	1
135	136	3
64	231	1
155	181	1
6	6	3
194	194	2
22	22	5
139	140	1
179	180	2
26	26	3
67	67	5
11	11	7
131	131	2
0	0	2
123	125	1
56	56	4
215	215	2
2	3	2
152	153	1
39	39	5
138	138	3
17	17	5
190	190	1
70	70	4
231	231	2
161	166	1
172	172	5
207	207	3
143	143	1
124	125	1
11	26	1
62	65	1
44	45	4
195	195	2
28	149	1
129	129	4
60	60	3
140	143	2
27	27	5
71	71	3
104	104	9
176	176	1
220	221	1
180	181	1
61	61	5
223	223	2
31	34	3
23	211	1
139	141	1
32	32	6
119	120	2
210	210	1
34	37	1
103	134	1
96	96	1
128	158	1
21	21	6
183	183	6
65	66	1
36	36	2
123	123	2
12	12	2
173	175	1
130	131	1
24	42	1
229	229	2
115	118	1
161	161	1
210	211	1
214	228	2
71	72	3
105	105	1
179	179	4
156	156	5
38	39	1
61	62	3
58	59	2
180	224	2
181	182	1
221	221	1
122	137	1
50	78	1
79	79	2
120	121	2
241	241	2
66	66	5
183	185	1
82	82	3
223	228	1
134	134	5
154	155	5
45	45	6
73	73	2
117	119	2
202	202	4
37	178	1
65	145	1
14	14	6
81	124	2
228	228	3
2	2	4
8	8	1
51	51	3
159	179	1
133	142	1
66	67	3
168	168	4
232	232	2
9	53	1
171	173	1
172	173	3
177	237	1
119	119	1
43	43	4
170	198	1
25	25	3
185	185	1
159	242	1
148	172	2
204	205	1
224	225	1
169	169	4
85	91	1
164	164	2
10	17	1
49	49	2
186	186	2
30	30	2
198	198	1
30	103	3
55	55	4
170	219	1
74	74	7
230	231	2
140	141	2
22	183	1
50	50	5
84	84	6
170	171	3
47	47	5
134	233	1
80	80	3
10	10	2
184	187	1
64	159	1
23	183	1
240	240	2
57	57	3
113	113	5
107	107	3
182	182	4
186	187	5
77	77	4
102	102	5
63	64	1
216	217	2
31	47	1
18	18	2
221	222	1
133	134	2
155	155	4
157	169	1
114	114	2
12	161	1
166	167	1
203	203	2
133	133	2
177	177	6
64	88	1
181	181	6
151	151	3
59	59	3
31	31	4
159	159	2
19	19	3
157	185	1
214	216	1
64	64	2
13	14	2
171	171	3
88	132	1
128	129	6
140	140	3
130	130	2
208	208	4
213	213	1
117	153	1
37	37	5
115	115	2
70	72	1
206	228	1
120	120	3
193	195	1
127	128	2
34	34	2
156	162	1
108	108	5
165	183	1
15	169	1
35	40	1
214	214	3
41	41	4
59	125	1
6	7	1
3	3	3
83	106	1
32	33	2
106	112	1
48	48	1
165	165	5
43	44	3
187	187	3
99	99	1
228	229	3
58	58	4
163	163	6
130	173	1
64	66	1
97	97	2
190	197	1
64	158	1
71	73	1
201	208	1
81	81	4
180	180	5
242	242	4
135	135	3
120	143	1
209	213	1
160	171	1
5	22	1
6	21	1
38	38	3
106	106	3
129	134	1
66	174	1
192	192	4
129	238	1
158	158	3
15	37	1
113	218	2
37	128	1
201	201	2
9	9	4
212	213	1
158	183	1
8	31	1
141	141	1
10	54	1
79	80	2
43	46	1
205	206	1
57	59	2
157	161	1
10	15	3
227	227	3
26	31	2
21	22	4
103	105	1
35	103	1
209	209	3
59	74	1
42	43	2
29	29	3
7	21	1
160	160	7
63	63	4
174	209	1
211	211	2
52	53	2
225	226	1
170	170	3
134	144	2
196	196	2
64	190	1
15	15	4
226	226	2
7	7	2
27	29	1
122	122	4
146	146	3
238	239	2
238	238	3
14	97	1
101	236	2
33	152	1
15	51	1
137	137	1
165	166	1
70	100	2
42	42	5
218	233	1
190	192	1
172	175	1
125	126	2
7	9	1
122	128	1
54	54	3
68	69	1
65	65	4
136	137	1
197	216	1
161	165	2
89	89	7
167	167	2
206	206	1
40	41	2
31	202	1
124	124	2
204	220	1
184	184	6
172	176	1
140	231	1
95	141	1
157	157	3
116	182	1
74	95	1
0	8	1
117	118	1
105	106	2
204	204	1
120	128	1
202	204	1
80	81	2
100	100	4
68	68	2
71	86	1
89	92	1
174	175	2
188	189	1
71	109	1
107	108	2
114	117	1
174	174	2
118	118	3
138	143	2
5	19	1
198	200	1
74	110	1
33	35	2
175	175	1
28	29	1
235	235	2
174	176	1
170	205	1
47	68	1
7	42	1
80	108	1
111	112	2
183	184	2
97	112	1
166	166	2
37	40	1
179	183	1
77	79	2
5	5	1
13	13	2
147	157	1
44	44	2
35	35	2
18	19	1
46	47	2
4	4	2
24	196	1
76	77	1
150	151	2
160	161	1
38	40	1
184	185	4
112	113	2
134	154	1
57	126	1
232	239	1
86	122	1
239	239	4
9	12	1
219	220	2
115	116	2
78	103	1
58	60	2
173	218	2
191	191	1
234	235	1
185	188	1
86	86	2
209	210	1
152	152	4
61	242	1
101	101	4
8	9	2
217	218	2
171	172	1
98	98	4
136	136	2
173	190	1
224	228	1
153	153	3
178	179	1
202	236	1
222	222	3
154	158	1
205	216	1
3	12	2
33	36	1
32	38	1
88	88	3
190	206	1
167	169	1
6	16	1
139	154	1
161	170	1
53	53	1
199	199	1
29	152	1
202	237	1
5	17	1
25	30	1
129	236	1
74	86	1
152	187	1
73	115	2
160	189	1
10	26	1
73	99	1
7	37	1
51	52	1
162	167	1
99	153	1
36	196	2
59	182	1
235	237	1
83	83	3
8	48	1
158	159	2
76	76	4
28	28	2
106	109	2
214	224	1
206	207	1
187	216	1
95	95	3
65	239	1
198	201	1
27	70	1
195	197	1
149	149	2
23	23	2
5	31	1
218	218	2
169	178	1
183	199	1
11	160	1
26	27	1
161	236	1
1	2	1
177	179	1
236	237	2
231	238	1
53	54	1
78	78	1
236	239	2
30	87	2
56	57	2
46	46	1
55	72	1
196	197	2
155	161	1
144	147	1
179	203	1
116	118	3
20	21	2
187	189	1
81	83	1
33	33	2
104	124	1
9	101	1
151	221	1
117	117	1
162	164	1
163	187	1
37	39	1
7	8	1
135	150	1
150	187	1
44	46	1
203	204	1
131	134	1
110	152	1
126	126	1
133	172	1
193	199	1
29	236	1
54	78	1
184	189	1
25	227	1
211	212	1
163	168	1
139	139	1
156	157	1
69	69	1
164	165	1
82	130	1
161	162	1
123	124	1
217	217	2
52	52	1
121	122	1
67	82	1
105	123	1
111	111	1
236	236	1
2	8	1
56	60	1
190	216	1
153	156	1
8	37	2
119	121	1
166	184	1
50	115	1
148	148	1
17	18	1
185	205	1
30	62	1
149	157	1
85	85	1
144	144	1
141	142	1
102	144	1
145	146	1
157	159	1
