10	17	1
130	130	1
4	5	2
77	81	1
98	98	1
153	153	3
146	146	3
177	177	1
180	183	1
183	183	6
0	33	1
185	185	2
172	181	1
109	113	2
143	143	2
165	165	4
67	68	1
96	96	1
183	184	1
134	134	2
11	11	1
163	163	2
88	88	4
75	123	2
94	95	1
78	78	2
38	76	2
187	188	1
87	159	2
187	187	4
17	39	1
84	84	5
56	56	3
4	4	7
174	174	2
180	181	1
75	75	1
58	59	2
18	109	2
110	110	3
27	29	1
18	19	1
17	17	3
109	110	2
189	189	1
106	106	1
2	2	3
19	37	2
48	48	2
81	82	1
56	57	1
104	117	2
118	119	1
39	40	2
93	93	1
102	103	1
61	61	3
163	170	2
70	70	1
177	178	2
10	10	2
84	147	1
122	122	2
182	182	4
136	136	4
148	149	1
74	74	1
138	138	1
130	144	1
98	99	1
127	148	1
6	39	1
55	55	3
96	98	1
114	114	1
36	36	1
17	19	2
13	14	1
157	157	1
119	120	1
45	45	1
14	44	1
0	28	1
168	168	1
85	155	1
8	8	3
96	99	1
98	102	2
103	103	2
54	54	1
6	6	2
13	16	1
159	160	1
25	25	4
137	137	1
124	124	1
132	132	1
35	35	2
119	119	1
29	29	3
131	131	2
47	133	1
65	66	1
101	111	2
83	83	1
15	15	1
147	147	2
37	37	1
28	29	1
59	60	1
35	36	1
22	22	2
14	15	1
79	109	2
46	46	3
144	148	1
184	187	1
30	30	2
96	127	1
134	178	1
145	145	3
53	54	1
164	164	2
37	38	4
179	179	2
144	144	2
64	65	1
150	157	1
20	20	2
73	88	1
147	186	1
71	71	1
154	154	2
75	76	1
166	166	3
100	100	1
89	89	1
71	72	1
173	174	1
132	135	1
120	121	2
131	133	1
28	28	2
31	32	1
84	85	1
40	40	1
123	123	2
99	100	1
125	158	1
72	73	1
54	55	1
127	153	1
91	92	2
94	103	1
77	77	1
71	116	1
181	181	1
82	83	2
169	170	1
20	68	1
176	177	1
175	175	2
125	125	2
115	115	1
85	86	1
38	39	1
171	172	1
25	41	1
176	179	1
188	189	1
57	57	1
48	54	1
33	33	2
74	86	1
34	34	1
79	82	1
74	82	1
109	109	1
70	117	1
46	47	1
115	118	1
58	81	1
186	186	1
149	150	2
63	63	1
112	112	1
148	166	1
127	128	1
151	151	1
128	147	1
58	58	1
190	190	1
44	44	1
63	64	1
120	122	1
100	122	1
6	7	1
88	95	1
25	26	1
114	142	1
113	113	2
137	138	1
183	190	1
16	16	1
2	146	1
67	67	1
0	0	1
167	167	1
26	26	1
22	36	1
21	21	1
169	171	2
25	29	1
29	30	1
73	73	1
127	127	1
152	163	1
186	187	1
96	97	1
5	5	1
23	71	1
3	4	1
147	151	1
12	12	2
175	176	1
66	66	1
100	153	1
160	174	1
150	151	1
142	142	1
97	102	1
14	16	1
143	189	1
129	139	1
164	165	1
125	126	1
16	17	1
42	42	1
122	123	1
85	88	1
