175	183	1
130	130	5
167	167	1
37	37	4
86	90	1
78	79	2
78	78	1
105	106	1
96	96	2
153	153	3
155	155	3
11	11	4
72	72	2
165	166	2
106	106	2
59	59	5
165	165	2
58	59	1
109	124	1
38	99	2
68	139	2
39	52	1
55	55	1
28	28	3
17	17	4
53	53	3
52	52	2
46	47	2
64	64	1
96	111	1
16	25	2
154	155	1
4	5	4
76	77	1
101	101	2
92	92	3
86	86	3
74	74	2
6	7	1
185	185	3
174	176	1
16	16	1
30	30	1
57	65	1
63	63	1
60	61	3
127	127	3
58	58	2
39	39	2
46	49	2
8	39	1
158	171	1
129	142	1
57	57	2
184	184	1
129	130	1
29	29	1
128	128	1
164	164	3
3	3	2
160	160	2
139	169	1
174	174	3
25	26	3
1	1	2
124	125	2
123	123	1
143	183	1
7	7	4
6	46	1
103	103	4
157	158	1
38	87	1
99	99	1
15	16	1
91	93	2
166	166	1
104	114	1
110	119	1
122	123	1
152	183	1
101	106	1
21	28	2
145	147	1
6	56	1
31	32	2
65	66	2
144	144	1
85	85	1
40	40	3
146	154	1
41	41	5
111	111	1
75	76	2
83	83	3
154	154	3
173	173	1
156	156	1
7	8	1
155	158	1
95	95	3
80	80	4
124	124	1
141	141	4
13	15	1
124	187	1
189	189	4
71	71	1
35	36	2
148	172	1
0	1	1
43	43	3
118	118	2
77	77	1
72	74	1
120	120	3
130	172	1
25	78	2
182	182	2
185	186	1
94	94	1
168	168	2
76	76	1
57	61	1
18	32	1
108	129	1
38	39	1
150	150	1
111	112	1
26	26	2
83	85	3
127	128	1
83	88	1
83	154	1
121	121	1
87	87	2
112	136	1
115	129	1
124	126	1
166	168	1
139	139	3
53	58	1
39	40	1
152	152	2
186	186	3
160	184	1
171	173	1
75	75	2
178	179	1
37	39	1
140	141	1
2	2	2
183	183	1
12	39	1
138	138	3
20	44	1
28	30	1
131	136	1
45	47	1
147	149	1
107	112	1
14	15	1
66	66	2
91	91	2
151	151	5
114	129	1
98	98	2
14	14	2
150	171	1
145	145	1
89	89	1
147	147	3
18	21	1
91	94	2
113	124	1
17	81	1
169	169	2
119	119	1
77	78	3
146	146	2
187	187	1
123	151	1
82	82	1
10	10	3
186	189	1
5	7	1
136	140	1
125	125	1
182	183	1
68	68	1
171	182	1
19	19	2
180	183	1
108	108	3
23	23	4
9	16	1
18	18	1
22	22	2
25	25	2
141	142	2
54	56	1
90	98	2
104	105	1
85	102	1
77	83	1
63	64	2
23	24	1
29	48	1
54	54	1
83	99	2
89	99	1
181	181	1
21	21	1
63	86	1
171	174	1
134	137	1
62	63	1
100	101	1
24	36	1
69	71	1
101	112	1
45	46	1
134	134	3
105	171	1
100	100	1
85	152	1
8	8	1
32	32	1
13	13	6
61	61	2
135	135	3
10	30	1
44	44	1
126	126	1
156	172	1
168	177	3
15	15	2
148	149	1
38	38	1
149	179	1
82	88	1
89	92	1
47	47	3
117	118	2
36	36	1
71	72	1
12	15	2
84	84	3
79	79	1
19	20	1
113	113	1
184	185	1
53	55	1
144	169	1
143	143	1
169	170	1
1	2	1
119	120	1
20	20	3
60	66	1
73	73	1
157	181	1
159	160	1
99	132	1
180	181	1
136	136	1
27	41	1
58	61	1
64	92	1
12	12	1
20	53	1
52	53	1
109	132	1
114	115	1
154	184	1
80	81	1
9	95	1
57	74	1
175	175	2
24	24	1
86	95	1
70	70	1
30	31	1
141	144	1
4	21	1
21	32	1
138	139	1
178	178	2
81	81	1
57	58	1
176	176	1
97	97	2
137	138	1
130	132	1
62	79	1
115	115	1
59	111	1
163	179	1
90	90	1
166	188	1
152	153	1
17	20	1
103	104	1
35	35	1
133	135	1
142	142	1
31	31	1
137	137	1
157	157	1
155	156	1
39	48	1
102	102	2
110	110	1
53	81	1
142	189	1
25	27	1
