100	100	2
36	63	1
42	42	1
108	108	1
115	115	3
105	108	2
18	45	4
123	123	4
8	8	5
33	33	1
49	50	1
141	141	2
21	35	2
113	116	1
93	93	1
10	11	1
6	7	1
96	97	2
139	139	2
121	121	3
122	124	1
96	107	1
61	62	1
39	39	5
77	77	1
104	146	1
62	62	1
40	40	3
109	114	1
135	136	3
11	93	1
94	111	2
117	122	2
92	93	4
150	151	1
125	126	1
80	81	1
129	129	3
127	128	1
12	25	1
115	117	1
152	152	3
139	141	2
138	138	1
81	81	1
72	73	1
12	144	1
94	95	2
86	86	2
31	31	1
57	57	3
49	57	1
131	134	1
26	27	2
53	53	1
17	17	3
100	152	1
130	130	3
48	48	2
23	23	2
82	90	2
28	30	2
63	63	3
88	88	1
54	54	1
92	116	1
106	107	1
83	83	1
35	35	2
21	21	1
71	71	1
19	19	1
105	105	1
103	115	1
104	138	1
32	58	1
110	111	1
36	36	1
22	22	2
136	137	1
94	126	2
113	113	1
123	129	2
32	34	2
98	104	1
151	151	1
124	130	1
26	26	1
128	128	2
12	30	1
87	89	1
45	53	2
20	23	1
95	95	1
5	6	1
99	100	1
102	102	2
69	77	1
29	29	1
19	31	2
143	143	3
116	116	4
11	11	4
70	70	1
106	106	1
81	119	1
16	16	1
146	146	1
28	32	1
122	122	1
10	10	5
21	57	1
32	32	1
147	148	1
103	104	1
38	39	1
70	71	1
131	131	2
78	99	1
113	147	1
84	84	1
74	74	2
117	117	1
148	148	1
135	135	1
50	51	2
124	126	2
6	6	1
130	131	2
28	28	1
12	86	1
37	37	1
99	104	1
135	138	1
68	69	1
94	144	1
13	129	1
46	46	1
34	36	1
48	54	1
50	55	1
120	122	1
142	142	1
149	149	2
154	154	2
2	2	1
66	67	1
126	126	1
18	18	1
132	132	1
64	64	2
80	80	2
110	131	1
41	51	1
133	150	1
27	29	1
52	52	2
76	99	1
20	57	1
94	94	1
25	42	1
48	49	1
40	47	1
106	150	1
114	114	1
81	87	1
123	124	1
13	13	1
128	130	1
147	147	1
104	104	2
103	136	1
56	56	1
68	68	1
76	76	1
108	109	1
50	50	1
127	127	1
25	25	2
136	136	1
62	65	1
32	33	1
99	99	1
12	26	1
139	140	1
3	3	1
47	47	1
