81	81	4
0	0	7
3	4	2
49	50	1
147	148	3
108	110	4
66	66	1
140	140	11
6	6	4
130	130	5
24	24	4
124	125	4
124	124	3
47	47	4
52	52	5
117	117	3
135	138	3
83	83	1
154	155	2
115	117	1
154	154	5
95	142	1
124	137	1
74	74	1
45	45	1
126	126	5
69	69	7
92	93	2
65	65	4
130	131	2
156	156	3
138	138	13
106	106	4
112	113	2
88	88	2
131	132	3
125	126	2
149	149	5
101	101	4
7	26	1
9	11	2
31	31	6
56	56	4
120	123	1
139	139	6
38	38	3
153	153	5
122	122	3
34	34	4
141	149	1
147	147	3
2	2	2
136	136	5
18	18	4
128	128	2
120	132	1
100	149	1
76	132	1
87	87	5
8	11	1
46	47	6
122	123	1
44	44	2
91	154	2
131	134	1
19	20	3
129	129	2
73	73	2
94	94	3
123	123	4
111	112	2
155	155	5
95	97	1
152	153	3
37	37	3
84	84	2
16	16	4
137	137	3
78	78	3
50	50	3
108	108	5
38	53	2
142	142	5
35	35	2
13	36	1
144	145	1
134	137	1
98	98	4
150	153	1
107	107	3
68	71	1
152	152	1
41	41	4
16	50	1
81	82	3
115	115	5
73	75	1
72	72	3
15	15	3
158	158	3
68	68	3
79	80	2
142	145	1
42	47	2
151	152	3
13	18	1
19	19	2
105	105	4
134	134	3
90	91	1
126	127	2
144	144	4
91	91	7
127	127	6
55	55	2
49	49	4
95	107	1
95	95	1
144	148	2
99	157	1
131	131	6
5	5	1
123	133	1
31	32	1
75	77	1
43	44	1
141	141	3
64	120	1
112	112	4
25	35	1
89	90	2
96	98	1
54	54	3
93	93	3
80	80	4
132	132	2
32	33	1
18	19	1
85	85	4
125	125	3
17	84	1
41	55	1
47	48	1
116	116	5
117	121	1
28	30	1
38	39	1
19	21	1
155	156	2
104	104	3
43	43	5
121	121	5
125	141	1
42	42	5
64	64	3
105	107	1
93	95	1
0	1	1
90	93	1
44	52	1
157	157	3
117	119	1
23	55	1
3	3	5
13	13	2
26	26	1
33	43	1
23	105	1
18	56	1
151	151	3
143	143	2
157	158	1
4	4	3
119	119	1
124	126	1
113	114	2
32	32	2
108	113	2
155	158	1
30	30	1
69	70	1
41	42	2
113	115	1
21	22	1
120	120	2
144	147	1
5	6	1
36	77	1
113	121	1
71	71	4
152	154	2
114	114	5
121	139	2
109	109	3
80	82	1
8	8	2
105	116	1
25	130	1
98	105	3
125	127	1
91	112	1
88	90	1
65	66	1
28	28	4
121	123	1
99	100	2
33	34	1
114	115	4
21	21	3
51	52	2
67	67	4
105	130	1
94	122	2
51	51	4
53	53	1
83	84	1
37	69	1
90	90	1
7	7	2
100	100	5
137	138	2
96	97	1
96	137	1
45	46	2
99	99	5
39	62	1
41	84	1
23	23	3
92	92	1
118	118	1
25	25	4
37	81	1
4	5	2
9	9	2
143	148	1
14	14	4
128	129	2
23	24	1
127	129	1
1	1	1
106	116	1
20	20	2
63	63	1
106	133	1
6	8	1
26	27	2
12	16	2
150	150	1
132	134	1
42	43	2
26	68	1
39	40	1
93	94	1
37	38	1
75	155	3
72	73	1
95	96	1
70	70	2
123	125	2
2	3	1
153	154	1
129	132	1
123	134	1
20	22	1
84	85	1
140	141	2
136	137	1
27	27	2
43	107	1
108	111	1
106	107	1
134	135	2
126	139	1
118	120	1
62	62	1
1	2	2
27	28	2
89	89	1
36	36	2
15	19	1
15	17	1
77	94	1
39	41	1
84	86	1
77	77	1
21	68	1
97	97	1
103	105	1
90	112	1
135	135	1
22	22	1
96	96	1
11	11	1
117	122	1
111	111	2
67	71	1
101	130	1
50	53	1
79	79	1
133	133	1
123	136	1
117	118	1
150	151	1
148	148	1
109	110	1
7	120	1
65	71	1
142	144	1
85	93	1
53	54	1
111	131	1
11	18	1
29	32	1
87	114	1
44	45	1
46	54	1
6	7	1
40	40	1
142	143	1
28	29	1
12	13	1
90	120	1
29	29	1
52	55	1
139	152	1
129	146	1
75	75	1
67	120	1
118	119	1
33	35	1
