93	93	3
58	58	3
87	91	1
57	57	3
20	20	3
26	26	3
131	131	5
16	16	2
69	69	1
42	42	2
62	62	1
104	104	2
99	101	2
34	35	1
119	120	1
142	142	1
115	121	1
36	36	2
11	11	1
64	64	1
145	145	2
37	37	1
1	1	2
23	62	1
39	39	2
21	21	2
62	69	1
60	63	2
55	56	1
116	122	1
101	101	2
24	24	6
15	15	3
87	110	1
33	41	1
55	55	1
124	124	2
103	142	1
73	73	3
20	21	1
53	54	1
117	117	3
125	134	1
136	136	3
65	69	1
130	130	4
4	5	1
111	112	1
34	60	1
110	110	2
134	134	2
123	123	2
89	111	1
40	40	1
31	31	2
77	78	2
81	118	3
105	105	1
68	68	1
17	28	1
127	128	2
103	105	1
76	76	1
58	59	1
76	78	2
80	110	1
79	79	2
38	39	1
133	133	2
80	80	1
100	101	1
47	50	2
84	89	3
90	90	1
8	11	1
88	96	1
79	84	1
128	128	1
81	82	1
113	113	1
73	76	1
121	121	1
139	139	1
50	50	1
12	12	1
73	78	1
63	63	1
19	19	1
91	91	2
116	128	1
106	128	1
69	111	1
24	43	2
22	23	1
103	103	2
34	109	1
60	60	1
10	41	1
78	88	2
71	88	2
76	112	1
115	136	3
114	140	1
56	56	1
13	13	2
46	49	1
125	125	2
28	28	1
118	118	1
41	41	2
70	70	2
140	140	1
116	127	1
83	83	1
135	135	1
65	66	1
25	28	1
9	11	1
84	88	1
22	22	1
99	142	2
34	49	1
98	98	1
4	4	1
34	39	1
38	38	1
47	47	1
41	130	1
101	102	1
32	34	1
10	10	2
112	112	1
120	131	1
49	50	1
86	103	1
79	81	1
32	32	1
49	107	1
67	110	1
0	1	1
27	27	1
33	33	2
95	104	1
94	94	2
97	98	1
106	108	1
5	5	1
53	66	1
116	116	2
105	124	1
117	119	1
89	93	1
2	11	1
49	49	1
95	142	1
82	82	1
134	137	1
49	52	1
137	138	1
80	100	1
51	51	1
107	107	1
67	95	1
82	114	1
29	47	1
113	118	1
136	138	1
3	10	1
131	132	1
98	100	1
37	41	1
132	134	1
8	8	1
5	30	1
88	94	1
105	115	1
114	115	1
62	64	1
67	67	1
25	25	1
56	63	1
74	74	1
