84	84	6
105	105	2
78	78	2
127	128	1
63	63	7
85	92	3
56	56	6
15	15	6
62	62	6
96	96	4
67	67	3
35	35	3
88	95	1
23	23	5
118	118	2
82	82	4
28	28	3
95	95	6
11	11	4
80	80	2
58	59	3
6	6	1
74	74	5
13	13	3
86	88	1
87	87	6
101	101	4
22	22	3
97	116	3
30	34	1
28	29	1
15	35	2
43	43	4
129	129	4
3	4	2
85	86	3
6	7	5
112	112	2
90	90	3
17	43	1
49	80	3
82	83	2
49	50	2
16	18	1
60	60	3
7	7	5
84	85	3
48	49	1
89	89	3
43	59	1
115	115	4
77	80	1
61	61	5
122	123	1
113	113	3
33	33	3
66	66	5
7	56	1
90	114	1
31	31	5
134	134	2
69	69	4
19	55	1
15	16	4
116	116	3
89	91	2
72	72	7
77	77	2
88	88	3
45	45	4
99	99	4
27	27	3
79	79	10
9	9	2
29	29	6
75	75	4
25	28	2
87	90	1
68	69	2
122	122	6
89	95	1
71	71	3
133	133	4
55	55	4
109	109	2
9	34	1
124	124	4
16	16	1
58	58	1
1	1	3
48	48	1
4	4	4
81	81	3
37	38	4
98	98	3
19	19	3
55	83	2
2	2	5
34	43	1
21	22	3
120	121	1
52	64	2
44	80	2
85	129	1
109	110	2
22	25	1
92	92	2
83	91	2
63	90	1
123	123	1
7	61	1
71	101	1
128	128	3
16	17	2
102	102	1
14	14	3
126	126	1
45	96	1
4	5	2
18	18	4
47	47	2
3	5	2
86	87	3
132	132	3
73	73	2
33	76	1
20	21	2
79	81	2
21	21	2
44	49	2
30	30	3
34	52	1
55	58	1
18	19	3
80	94	1
64	64	5
1	2	1
103	103	2
89	124	1
31	47	2
5	13	1
73	74	4
104	126	1
69	70	2
59	59	2
107	107	1
106	108	2
44	45	2
101	120	2
106	106	5
27	48	1
93	99	1
67	68	1
24	24	2
59	60	1
106	107	1
100	100	4
21	61	1
132	133	1
34	38	2
53	53	4
71	72	2
117	117	1
106	111	1
54	54	1
10	10	4
45	74	1
34	35	2
48	101	1
108	109	1
112	113	1
120	120	3
50	50	9
80	81	1
85	85	4
38	38	2
114	130	1
5	5	2
3	3	3
36	38	1
32	32	3
43	60	1
96	98	1
71	74	1
82	84	1
8	8	3
65	69	1
36	36	1
20	20	3
86	86	1
45	121	1
26	27	2
62	79	1
114	114	3
110	113	1
26	28	1
66	67	1
59	95	1
128	129	2
106	130	1
16	25	1
84	87	1
34	34	2
76	76	3
53	90	1
91	92	1
93	93	1
18	25	1
3	29	1
59	65	1
70	71	3
11	13	1
12	12	1
70	70	1
94	94	1
30	31	1
83	86	1
121	121	1
10	11	1
54	55	3
8	9	1
125	126	1
119	119	2
18	73	1
56	68	1
9	11	1
28	44	2
127	134	1
67	107	1
21	25	1
21	44	1
33	35	1
25	25	2
56	60	1
45	46	1
65	68	1
17	18	1
121	123	1
18	22	1
50	65	1
56	57	1
26	26	1
36	37	1
125	125	1
10	60	1
97	98	1
97	97	1
18	21	1
101	102	1
7	8	1
130	134	1
103	121	1
70	95	1
89	90	1
0	1	1
83	84	1
50	51	1
72	73	1
3	11	1
97	119	1
44	44	1
