95	95	3
109	109	1
32	80	1
6	6	2
60	60	1
127	127	1
1	1	5
146	146	3
180	180	2
26	33	1
60	139	2
9	9	2
63	83	1
18	74	1
113	114	3
4	4	2
50	57	1
118	124	1
161	161	2
98	100	2
155	155	3
113	113	2
90	91	1
108	108	3
14	14	3
62	62	2
173	174	1
10	10	5
146	161	1
59	59	2
112	112	1
164	165	2
57	57	3
136	136	1
20	20	2
8	8	4
56	56	2
0	0	1
144	145	1
168	169	1
63	63	7
84	84	1
15	15	2
115	119	1
72	135	2
39	39	1
43	43	1
81	81	1
151	151	3
100	100	1
72	112	1
156	156	3
162	163	1
143	144	1
103	105	1
55	67	1
133	133	3
3	25	1
86	86	1
42	176	1
33	33	3
19	19	2
157	157	3
89	132	1
83	105	1
134	134	1
14	38	1
118	125	1
72	75	2
101	114	1
29	30	1
6	39	1
32	33	1
67	73	1
3	3	2
92	92	1
141	141	1
43	45	1
132	164	1
131	131	1
166	166	3
106	106	1
170	170	3
166	170	2
118	142	1
85	86	2
18	18	2
40	40	1
152	152	4
8	58	1
55	65	1
16	16	1
151	171	1
177	177	1
4	37	1
44	44	1
11	11	2
127	129	1
120	121	1
94	94	2
162	162	3
137	172	1
149	149	6
172	172	2
50	51	2
56	67	1
169	170	1
133	134	1
88	89	2
67	81	1
11	13	1
169	169	1
154	154	2
31	31	1
142	142	1
160	160	4
78	79	2
174	175	1
13	13	2
18	21	1
51	51	1
25	25	2
38	39	1
75	76	2
121	122	3
64	64	1
61	61	4
18	19	2
3	65	1
85	85	1
74	75	1
117	124	1
121	169	2
36	36	1
123	123	2
125	125	1
71	178	1
117	117	1
167	167	2
104	104	1
121	124	1
140	140	1
90	90	3
153	170	1
133	138	2
7	10	1
82	84	1
35	35	1
158	159	1
62	92	1
46	46	1
65	66	2
24	25	2
88	88	1
151	153	2
39	43	1
138	138	3
153	153	1
143	143	3
72	72	1
164	164	1
81	100	1
0	1	1
136	177	1
32	32	3
18	23	1
94	107	1
96	96	1
28	41	1
38	38	1
102	102	1
107	108	2
1	56	1
30	30	1
111	111	2
26	26	1
100	101	1
165	165	2
126	126	1
18	22	2
4	7	1
59	60	1
146	164	1
8	9	1
114	114	1
80	82	1
131	163	1
28	35	1
135	135	1
12	12	2
120	144	1
8	13	1
81	82	1
155	170	1
10	11	2
82	82	3
71	76	1
13	28	1
89	89	1
104	115	1
133	139	1
61	85	1
149	150	1
41	41	1
161	163	1
165	167	1
52	52	1
52	67	1
17	21	3
23	23	1
119	120	1
120	120	1
123	125	2
93	93	1
174	174	1
128	164	1
97	101	1
116	116	1
11	45	1
54	54	1
97	127	1
75	75	1
62	63	1
53	65	1
34	34	2
77	77	1
58	58	1
137	137	1
107	107	1
132	132	1
17	53	1
21	39	1
86	108	1
87	89	1
154	159	1
168	168	1
94	95	1
67	68	1
147	148	1
176	176	1
103	103	1
3	4	1
52	61	1
5	5	1
67	67	1
142	145	1
