11	11	5
177	180	1
78	78	5
116	125	2
81	86	1
19	109	1
131	139	1
138	138	5
33	33	3
14	33	1
34	37	1
37	37	2
177	178	2
123	125	2
155	155	2
113	113	7
171	171	4
163	165	3
11	22	1
55	55	6
118	118	4
82	102	1
55	141	1
146	161	2
126	172	1
13	15	1
122	123	1
127	127	1
35	35	4
20	20	4
90	111	1
100	100	4
92	92	2
150	167	1
90	90	5
71	71	4
140	140	4
84	84	4
79	85	1
24	26	1
75	75	3
40	40	2
96	97	1
9	10	1
158	173	2
152	153	2
67	81	3
89	89	2
25	26	2
98	98	2
29	29	4
1	2	2
75	77	2
52	58	1
111	120	1
73	90	1
29	30	2
25	25	4
135	135	6
24	25	1
86	86	4
180	180	4
80	80	2
81	82	2
63	73	1
73	73	2
148	156	1
172	176	2
61	61	4
38	38	5
157	157	5
10	137	2
90	101	1
28	28	3
141	141	3
148	149	2
176	176	1
8	8	2
52	52	3
169	170	2
122	153	1
101	116	4
19	21	1
105	111	1
3	6	3
54	55	1
19	45	1
67	68	3
27	28	2
142	142	2
67	67	4
149	151	2
127	128	1
79	79	4
67	73	1
2	17	1
93	94	2
164	166	1
59	60	1
132	132	1
67	148	1
144	148	1
87	89	1
5	5	4
15	27	1
60	60	3
83	83	4
168	171	1
147	154	1
19	20	1
2	2	7
117	118	1
26	26	3
158	161	1
15	15	3
158	158	4
86	94	2
157	159	1
80	81	1
42	43	1
95	95	5
41	45	1
129	129	5
140	179	2
59	59	2
19	19	4
92	101	1
79	133	1
101	101	5
165	169	1
97	98	1
161	170	2
125	125	4
23	24	1
98	99	1
30	30	2
77	79	1
41	42	1
151	151	6
21	21	2
13	14	1
119	125	4
146	146	2
17	17	1
4	46	1
162	170	1
36	36	2
72	72	5
103	106	1
16	27	1
16	33	1
21	22	3
63	63	4
14	14	5
3	3	6
164	165	4
134	134	3
74	74	1
130	130	1
85	101	2
24	30	1
87	94	1
108	111	1
128	128	6
8	19	2
5	16	1
62	66	1
7	7	1
120	121	1
40	41	1
79	80	2
137	137	5
121	121	4
133	133	2
163	163	3
94	94	3
39	39	3
7	12	1
126	126	4
148	152	1
102	103	2
9	9	2
66	66	1
174	175	3
45	45	6
62	63	1
154	154	2
14	24	1
16	16	3
144	144	7
141	143	1
143	145	2
7	8	1
160	162	1
145	145	5
2	31	1
140	171	1
112	112	6
0	0	2
167	167	2
82	82	3
64	64	1
168	168	6
110	110	2
10	10	1
175	175	2
152	155	1
163	164	1
79	101	1
116	116	2
118	125	1
139	176	1
143	144	1
153	153	5
19	23	2
44	44	3
133	134	1
120	120	3
65	75	1
96	100	1
148	154	1
76	76	3
58	58	2
106	106	4
9	11	2
37	38	1
88	89	1
34	34	3
46	46	1
165	174	1
17	23	2
98	118	1
90	91	2
42	42	2
65	65	2
24	24	4
10	12	1
2	4	2
58	59	3
143	143	2
147	148	1
86	87	1
75	139	1
111	111	3
17	18	1
156	156	2
149	149	2
1	3	2
32	33	1
6	7	3
152	152	1
49	51	2
128	138	1
24	79	1
159	159	2
173	173	1
4	38	1
110	111	1
96	96	2
55	61	1
2	7	1
18	18	4
102	116	1
16	30	1
23	45	1
71	80	1
75	78	1
136	136	2
104	104	1
107	107	2
132	133	1
136	174	1
101	102	1
169	175	1
84	85	1
139	142	2
4	8	1
178	179	1
139	139	5
103	103	3
76	85	1
64	68	1
169	169	2
91	91	6
1	1	1
90	99	1
102	102	1
9	19	1
0	69	1
2	3	1
53	53	1
153	159	1
160	160	5
172	172	4
151	152	3
174	176	1
93	109	1
144	145	2
116	117	2
99	105	2
8	11	1
96	98	1
27	30	1
123	130	1
159	170	1
56	57	1
124	131	1
103	110	1
65	88	1
170	170	2
68	102	1
44	45	2
168	176	1
81	81	2
119	120	2
54	54	1
0	1	2
33	34	2
54	139	1
156	157	1
83	93	1
134	135	1
148	148	2
166	175	1
84	86	1
165	165	1
22	22	1
0	3	1
19	22	1
36	37	1
8	9	1
133	135	1
109	110	1
109	109	1
29	34	1
14	34	1
102	112	1
108	108	1
97	113	1
63	85	1
55	65	1
98	100	1
6	6	3
106	137	1
29	40	1
100	101	1
102	130	1
27	27	2
154	169	1
171	172	1
36	43	1
73	80	1
168	174	1
76	78	1
129	146	1
87	87	1
95	96	1
65	66	1
150	153	1
58	65	1
57	57	2
23	60	1
71	72	1
177	177	1
40	42	2
151	153	1
81	88	1
29	39	1
119	128	1
12	12	1
86	95	1
9	45	1
84	110	1
82	84	1
103	123	1
23	28	1
56	56	2
162	162	1
51	64	1
10	16	1
157	173	1
65	104	1
97	97	3
133	137	1
122	129	1
150	150	6
155	156	1
31	58	1
4	4	1
110	124	1
81	134	1
115	118	1
140	149	1
170	171	2
75	87	1
56	90	1
30	31	2
117	117	4
106	123	1
92	93	1
13	13	1
73	136	1
26	27	1
5	34	1
43	43	1
127	134	1
178	178	2
35	57	1
158	159	1
93	117	1
139	141	2
54	88	1
8	45	1
79	87	1
51	51	1
113	116	1
127	143	1
20	21	1
147	147	1
159	175	1
7	11	1
10	138	1
74	75	3
65	132	1
139	140	1
133	136	1
1	5	1
64	77	1
16	35	1
128	132	1
20	23	1
165	166	1
64	130	1
112	113	1
100	103	1
55	60	1
12	31	2
0	9	1
115	142	1
140	141	1
38	42	1
99	103	1
34	36	1
174	174	1
50	52	1
53	56	1
125	143	1
12	13	1
159	160	1
10	11	1
159	172	1
92	103	2
63	71	1
15	17	1
27	104	1
60	61	1
50	50	1
14	26	1
83	89	1
60	72	1
70	70	1
136	144	1
127	160	1
13	27	1
175	177	1
59	61	1
9	12	1
26	104	1
63	84	1
39	42	1
123	123	1
6	34	1
124	125	1
5	8	1
41	41	1
18	19	1
116	118	1
134	149	1
