11	13	2
23	23	2
42	42	2
59	59	6
67	67	3
66	66	2
7	7	3
79	79	4
91	94	1
101	101	2
133	133	7
28	43	2
34	34	3
65	65	3
69	69	2
13	13	5
125	125	5
20	20	1
114	116	1
20	45	1
91	91	3
114	114	2
29	29	2
116	116	3
72	72	1
81	99	1
28	29	2
133	134	1
2	3	1
85	98	1
99	100	1
6	6	1
37	37	2
118	118	4
112	116	1
11	11	4
22	43	1
48	50	1
37	39	2
75	99	2
5	5	2
130	130	1
55	55	1
75	100	1
89	95	1
71	71	2
62	62	5
85	85	5
75	76	2
21	22	1
17	17	2
46	47	1
28	37	1
106	106	2
124	124	4
74	94	1
58	80	1
117	117	3
112	112	1
108	114	1
81	85	2
36	36	7
85	86	4
50	50	1
87	109	1
12	45	1
64	64	1
15	15	2
127	129	1
73	74	2
92	127	1
66	99	2
22	22	1
87	87	3
54	54	1
119	119	3
70	70	1
101	102	1
12	12	7
84	84	1
127	127	2
90	90	4
82	84	1
58	69	1
27	27	1
131	131	2
102	116	1
120	123	1
93	93	1
43	43	1
87	88	1
116	117	1
8	36	1
107	107	1
118	129	1
74	81	1
25	26	1
118	119	2
25	25	2
36	37	1
94	108	1
8	9	2
119	124	1
35	35	3
134	134	2
117	118	2
8	109	1
17	38	1
29	30	2
77	77	1
43	48	1
110	110	1
127	128	1
60	76	1
70	78	1
76	76	1
39	83	1
48	48	4
33	35	1
33	33	2
94	94	1
68	68	2
24	24	2
100	101	1
13	14	1
54	55	1
81	82	1
61	61	1
122	133	1
30	30	2
86	86	1
25	36	1
19	19	1
97	102	2
122	134	1
81	81	2
108	112	1
20	63	1
123	123	1
32	32	2
92	110	1
68	69	1
40	42	1
124	134	1
94	95	2
120	120	2
125	129	1
2	5	1
25	28	1
60	60	3
42	43	1
20	123	1
83	83	1
79	81	1
103	103	2
57	57	1
98	100	1
109	133	1
81	83	1
61	62	2
97	97	1
126	126	2
10	24	1
103	129	1
73	73	3
79	112	1
129	132	1
100	106	1
87	110	1
83	84	2
42	48	1
9	28	1
120	122	1
29	33	1
10	13	1
128	129	1
107	125	1
115	116	1
123	124	1
26	26	2
104	105	1
114	115	2
57	59	1
15	18	1
69	112	1
12	16	1
1	74	1
28	40	1
34	44	1
23	30	1
89	89	1
9	9	1
80	80	1
39	39	1
2	2	1
3	15	1
4	6	1
30	42	1
122	122	1
10	30	1
98	98	1
124	133	2
32	47	1
20	31	1
102	102	1
108	108	1
14	20	1
105	112	2
46	46	1
8	8	1
16	16	1
96	96	1
12	13	1
98	112	2
43	45	2
82	105	1
97	98	1
39	48	1
108	124	1
110	129	1
122	130	1
72	73	1
107	122	1
85	99	1
91	92	1
62	76	1
59	98	1
21	21	1
78	111	1
31	31	3
92	125	1
56	56	2
75	75	1
84	85	1
99	99	1
1	1	2
132	132	1
30	45	1
128	128	1
5	21	1
76	82	1
74	74	1
80	100	1
100	100	1
63	64	1
108	109	1
77	94	1
84	113	1
28	28	1
18	32	1
57	60	1
66	67	1
108	115	1
44	45	1
22	23	1
