159	160	3
147	147	10
3	3	5
109	109	6
38	38	3
157	162	4
67	67	8
41	41	8
152	152	4
44	44	6
119	119	3
101	101	5
76	76	9
110	113	1
3	41	1
20	21	1
32	89	1
85	85	7
18	18	6
73	73	11
115	118	1
98	98	2
110	110	5
111	111	8
61	61	6
159	171	1
169	169	4
137	137	10
165	165	4
172	172	9
110	111	3
9	19	2
171	172	2
63	63	4
115	115	8
9	13	1
87	88	3
75	75	2
140	140	12
7	7	5
119	120	2
146	167	2
62	64	1
92	93	2
95	95	7
153	153	6
71	95	1
131	131	6
168	168	8
167	167	4
127	127	7
145	178	1
111	138	1
55	55	6
110	151	2
151	151	10
180	180	3
106	106	4
66	66	4
94	95	1
16	24	1
60	60	4
86	87	1
173	173	9
118	129	1
43	43	4
16	16	3
49	49	1
108	114	1
156	156	8
7	11	1
121	121	3
56	74	2
1	6	1
70	80	2
163	163	5
64	65	1
84	84	5
130	130	1
145	160	1
150	150	9
145	145	4
126	126	11
158	158	5
3	4	1
40	40	9
10	10	4
116	119	1
82	82	2
73	98	1
16	17	2
94	94	8
87	87	2
174	174	4
113	114	2
123	124	3
41	162	1
125	148	1
53	53	4
52	52	3
111	112	1
65	65	6
147	161	1
151	152	7
72	75	1
54	54	4
146	146	6
13	13	4
154	157	2
143	143	3
108	109	3
88	88	3
144	144	14
100	100	3
12	13	1
122	123	1
8	8	9
5	5	7
74	74	3
117	117	5
54	94	1
148	149	2
6	6	4
95	96	2
59	102	1
134	150	1
130	131	2
125	131	1
143	144	3
170	170	11
62	62	3
56	56	4
34	43	1
122	140	1
30	30	5
14	14	3
58	58	5
89	89	4
24	24	4
131	159	1
165	166	2
120	120	4
107	109	1
40	43	1
178	178	3
73	74	2
129	130	1
92	92	4
179	179	6
137	141	1
93	94	1
133	137	1
177	178	1
133	133	8
135	137	1
141	175	1
112	112	4
143	154	1
120	127	1
77	77	4
33	33	8
113	113	5
5	32	1
150	175	2
53	54	1
70	70	1
125	126	2
78	89	1
160	160	10
28	28	6
77	78	2
79	79	7
155	155	4
30	39	1
14	15	1
43	45	2
78	78	7
114	114	4
87	131	1
135	145	1
137	140	1
79	80	1
54	56	1
139	139	4
164	164	4
162	162	1
141	141	4
17	18	2
55	56	1
2	39	1
163	168	1
10	70	1
90	90	3
142	161	1
15	15	5
55	109	1
72	72	4
151	153	1
50	50	7
104	104	3
146	148	1
115	116	1
140	156	1
41	59	1
178	179	1
149	171	1
100	101	2
103	103	3
176	176	5
110	130	2
102	102	5
33	34	2
17	17	3
84	101	2
127	128	3
123	123	3
85	86	1
64	64	6
119	123	1
144	151	1
108	108	2
12	12	3
19	19	3
93	100	1
168	169	3
23	28	1
2	2	6
58	102	1
21	26	1
127	130	1
107	108	1
171	171	5
32	32	3
76	77	1
15	25	1
148	148	6
39	39	7
24	30	2
157	157	4
29	40	1
30	38	1
90	94	3
122	122	5
71	71	5
91	124	1
128	128	5
170	171	2
135	135	3
139	141	2
2	29	1
110	114	2
97	100	1
124	124	1
126	137	1
26	26	2
79	81	1
85	95	1
38	39	1
37	37	5
88	90	1
103	130	1
142	145	1
85	97	1
6	7	5
36	40	1
170	172	1
3	36	2
39	139	2
0	38	1
142	142	5
145	147	1
172	173	3
159	162	1
3	27	1
103	106	2
21	21	2
147	163	1
128	129	2
148	158	1
23	49	2
37	38	1
36	36	3
85	105	1
36	37	5
31	45	1
149	149	9
61	130	1
110	153	1
118	118	5
35	35	2
15	44	1
139	144	3
161	161	3
84	85	4
4	4	6
94	110	1
15	16	3
134	134	6
31	31	5
86	86	3
132	133	2
36	80	1
154	154	5
38	40	3
159	161	1
9	9	4
1	1	5
34	86	1
53	148	1
61	62	1
80	80	4
42	42	1
39	40	1
168	171	3
18	19	1
167	169	1
1	61	1
155	159	1
132	132	6
129	129	4
24	25	2
96	96	1
72	95	2
89	90	2
156	162	1
149	159	1
137	138	1
109	113	3
136	137	2
161	162	3
0	0	5
93	98	1
11	13	1
95	102	1
57	57	3
114	123	2
134	174	1
101	102	1
56	60	1
131	132	2
63	65	1
124	125	1
66	67	1
60	62	1
44	52	1
21	25	2
36	81	1
167	168	3
54	55	1
67	68	2
23	23	1
138	139	1
112	148	1
31	75	1
103	110	1
165	168	1
93	93	4
24	32	1
25	26	1
125	125	1
136	138	1
75	122	1
22	30	1
81	81	3
97	97	4
132	149	1
5	41	1
139	140	1
173	174	3
154	155	2
57	58	1
44	45	1
40	42	2
161	165	1
34	35	1
9	10	2
106	112	1
11	45	1
114	115	1
124	127	1
157	158	1
113	115	2
55	77	1
10	11	2
70	138	1
175	175	3
159	159	3
102	122	1
143	146	2
99	99	2
153	160	1
14	31	1
117	119	1
133	136	1
169	170	2
132	138	1
155	156	1
0	1	3
159	170	1
177	177	3
150	154	1
88	114	1
144	146	2
22	23	1
89	124	1
72	74	1
96	122	1
13	14	2
11	36	1
82	98	1
81	88	1
71	72	1
163	169	1
126	131	2
56	109	1
3	7	1
159	167	1
6	38	1
27	28	2
141	142	2
82	95	1
52	53	3
32	55	1
34	34	3
146	171	1
148	157	2
166	168	1
29	39	1
67	102	1
89	130	1
40	41	1
106	107	1
42	43	2
163	165	1
27	27	1
96	106	1
127	129	1
138	138	4
10	14	2
37	72	1
120	123	2
60	63	1
80	81	2
16	40	1
132	137	1
21	46	1
146	147	1
2	121	1
7	10	1
99	101	1
115	129	2
53	71	1
134	135	1
41	141	1
112	139	1
38	135	1
52	73	1
11	11	3
128	130	1
55	126	1
43	44	1
171	179	1
101	111	1
15	26	2
135	138	1
33	148	1
81	93	1
63	64	1
101	108	1
88	118	1
67	80	1
29	29	1
179	180	1
159	180	1
59	85	1
7	39	1
80	82	1
23	68	1
8	9	1
165	170	1
9	14	1
97	116	1
11	12	1
145	146	1
131	138	2
61	86	1
114	118	2
113	140	1
20	35	1
125	134	1
134	159	1
127	150	1
83	114	1
103	108	1
117	123	1
152	156	1
33	35	1
100	102	1
148	156	1
105	130	1
68	78	1
158	161	1
136	136	2
16	44	1
3	17	1
134	149	1
147	152	1
84	88	1
5	31	1
25	25	1
82	94	2
14	17	1
78	80	1
107	107	3
156	161	1
20	20	1
153	161	1
102	106	1
88	94	1
105	105	1
91	91	1
122	125	1
131	145	1
59	59	2
126	146	1
118	119	1
148	153	1
162	163	1
85	88	1
105	119	1
172	179	1
45	45	1
126	144	2
119	121	1
154	156	1
101	131	1
95	134	1
73	150	1
102	104	1
158	167	2
73	87	1
175	176	1
100	104	1
75	76	1
139	142	1
165	167	1
116	116	1
135	136	1
118	143	1
54	78	1
30	36	1
126	130	1
4	7	1
35	41	1
83	83	1
157	163	1
125	140	1
96	115	1
