27	28	1
71	72	2
122	122	3
1	8	1
8	8	2
93	107	2
10	10	4
78	78	2
133	141	1
37	37	4
116	116	2
76	77	1
21	21	3
70	71	2
65	71	1
54	55	4
73	79	1
123	137	1
32	33	3
103	103	2
5	13	1
52	52	2
126	128	1
106	116	1
19	19	3
123	123	1
129	130	2
73	73	2
63	66	1
3	3	1
138	140	1
31	31	1
26	26	2
34	34	1
21	22	2
13	13	2
119	119	1
76	79	1
101	101	3
1	23	2
135	135	2
20	21	2
132	134	1
23	23	3
50	52	1
118	118	1
89	90	1
128	132	1
68	94	2
29	30	1
117	118	1
8	26	1
96	96	3
11	11	3
58	65	2
142	142	2
138	138	3
107	135	1
27	30	2
55	55	2
90	90	1
98	99	1
17	18	1
65	65	2
90	110	1
102	102	1
87	88	1
18	32	1
120	121	1
91	92	1
29	124	1
75	77	1
41	42	3
107	128	1
2	2	1
13	43	1
82	94	1
146	146	1
36	37	2
66	69	2
136	136	2
42	42	2
110	110	2
67	95	1
32	32	2
60	70	1
48	56	1
52	63	1
127	127	3
137	137	1
53	60	1
66	67	1
81	81	2
82	82	1
2	11	1
67	68	1
64	64	1
139	140	1
86	120	1
106	106	1
112	112	2
64	125	1
109	110	1
93	95	2
31	34	1
125	143	1
82	83	1
143	143	3
47	51	2
27	141	1
140	140	1
96	97	1
126	127	2
76	76	1
74	107	1
104	105	2
112	118	1
74	129	1
56	56	2
141	141	2
29	108	1
5	5	1
122	123	1
134	135	2
17	17	1
28	29	1
141	146	1
120	132	1
33	49	1
83	83	2
109	111	1
136	137	1
130	132	1
133	134	1
29	144	1
91	93	1
73	96	1
105	108	1
33	33	3
124	124	1
119	121	1
60	83	1
128	129	1
121	121	2
106	107	1
80	80	1
53	54	1
88	88	1
122	138	1
50	50	1
60	64	1
85	109	2
28	28	1
47	49	1
97	98	1
91	91	1
141	142	1
128	128	1
132	132	1
90	96	1
3	4	1
27	27	2
68	87	1
16	16	1
86	104	1
99	99	1
62	62	1
84	84	1
140	143	1
125	131	1
29	29	2
62	63	1
61	61	2
25	142	1
25	25	2
131	131	2
85	87	1
69	69	1
24	47	1
9	10	1
64	79	1
129	134	1
117	117	1
123	135	2
70	96	1
144	144	3
65	87	1
35	35	1
77	77	1
131	132	1
54	54	1
111	111	1
39	104	1
88	107	1
100	101	1
38	38	1
81	83	1
51	52	1
19	48	1
53	53	1
130	130	1
20	20	1
132	135	1
63	111	1
114	114	1
66	66	1
57	58	1
77	79	1
15	15	2
75	79	1
25	54	1
93	93	1
135	136	1
76	78	1
59	59	1
95	105	1
113	118	1
50	51	1
132	133	1
112	114	1
95	95	1
62	68	1
25	26	1
89	89	1
81	82	1
105	107	1
85	121	1
109	122	1
73	75	1
16	20	1
53	59	1
47	60	1
82	110	1
24	25	1
92	92	1
64	66	1
0	1	1
