104	104	2
10	10	3
4	6	1
144	144	4
122	123	1
67	103	1
51	52	3
85	85	4
87	89	1
72	72	3
1	107	2
18	133	2
136	136	1
143	143	1
12	38	1
141	141	1
13	15	1
6	6	3
30	30	4
97	126	1
46	47	2
102	125	1
60	65	1
26	26	1
31	31	1
5	5	1
91	92	2
18	21	1
3	4	1
145	145	1
70	70	2
36	36	3
139	139	4
49	49	2
100	101	1
115	115	3
13	13	1
87	87	4
89	90	2
120	120	3
71	74	1
20	20	6
126	126	1
109	109	4
69	69	2
82	82	4
47	59	1
112	114	1
102	102	5
23	23	2
11	67	1
134	134	3
121	134	1
119	137	1
89	89	2
107	107	2
66	71	1
119	132	1
41	41	1
63	63	2
0	0	1
40	41	1
22	22	2
81	81	1
131	135	1
84	85	1
39	39	1
27	28	1
61	61	1
132	132	5
68	68	3
114	114	2
3	24	1
121	121	3
9	10	2
96	96	2
47	79	1
73	75	1
31	40	1
79	80	1
51	64	1
17	17	2
85	87	3
37	40	1
66	67	1
108	108	1
117	132	1
110	111	1
87	88	1
116	116	3
11	11	1
106	106	2
65	69	1
111	111	5
24	24	2
3	5	1
75	75	1
14	15	1
47	73	1
120	126	1
14	14	1
100	100	1
28	57	1
6	106	1
137	138	3
64	65	1
32	33	1
111	115	1
110	115	1
91	91	1
4	4	2
48	49	1
81	122	1
3	3	3
133	133	1
127	129	1
47	48	1
65	65	3
35	35	2
13	17	1
31	33	1
99	100	2
1	1	2
50	50	2
142	142	1
21	37	1
24	25	1
38	48	2
88	139	1
112	116	1
142	144	2
59	59	2
135	135	1
133	134	1
97	124	1
85	89	1
109	110	2
8	8	3
105	117	1
42	48	1
73	73	1
66	68	1
34	34	1
79	79	1
86	90	1
104	106	1
68	69	1
0	1	1
81	82	1
15	15	1
51	72	1
102	104	1
15	34	1
119	119	1
120	121	1
83	83	1
88	113	1
2	18	1
138	138	1
82	85	1
94	96	1
124	125	1
76	89	1
33	33	1
56	56	1
48	87	1
97	101	1
36	47	1
37	37	1
123	123	1
113	113	1
27	42	1
24	47	1
8	9	1
47	49	1
58	59	1
25	39	1
102	143	1
104	105	1
110	110	1
16	17	1
83	94	1
60	61	1
49	53	1
60	60	1
43	43	2
106	126	1
108	109	1
98	102	1
121	135	1
81	103	1
21	21	1
30	31	1
18	19	1
43	80	1
40	62	1
32	32	1
16	18	1
130	131	1
136	138	2
118	118	1
81	105	1
51	51	1
10	29	1
38	38	1
