49	49	3
41	42	5
111	111	5
65	65	14
1	2	1
23	28	1
26	27	3
15	15	3
7	8	3
44	44	11
18	18	12
61	76	1
57	93	1
73	73	9
38	38	4
78	83	2
113	114	2
67	67	8
61	61	13
124	124	6
22	22	5
118	118	8
87	87	7
62	86	1
41	41	6
108	108	8
69	69	6
43	44	5
69	70	3
90	90	6
130	130	4
43	43	7
83	100	1
97	97	1
77	77	6
17	17	6
94	94	9
55	88	1
36	37	1
74	117	1
118	119	5
81	85	3
56	56	4
85	85	9
91	91	5
32	34	2
90	114	1
78	79	1
34	35	3
74	75	5
21	21	7
33	33	6
37	39	2
91	92	7
37	37	3
9	9	7
21	48	1
110	110	4
38	39	1
133	133	10
68	68	8
42	42	3
79	80	1
23	25	3
121	128	1
81	86	1
11	11	11
74	85	1
45	47	2
131	134	1
72	72	14
119	119	10
35	46	1
68	70	2
123	123	8
120	120	10
107	110	1
14	14	5
104	104	4
125	125	6
34	34	8
58	58	9
116	116	9
82	82	6
55	56	2
34	37	1
45	45	11
86	92	2
107	107	2
12	61	1
22	24	3
123	126	1
23	26	2
12	12	7
90	99	1
130	131	1
109	109	5
92	92	9
80	80	8
84	86	1
22	58	1
105	106	3
23	23	6
124	126	1
20	20	7
20	42	1
113	113	6
28	28	5
121	123	2
79	79	6
57	57	4
33	34	2
68	69	1
33	59	2
78	78	4
62	63	1
85	86	1
49	50	4
114	115	3
43	47	2
19	19	13
78	114	1
114	114	8
116	120	2
114	120	1
11	12	7
24	25	2
2	2	7
12	34	2
108	109	2
50	50	2
102	102	3
76	76	8
96	98	1
106	110	1
99	100	1
3	63	1
112	112	6
62	62	8
131	131	9
104	105	4
20	28	1
103	105	1
44	118	2
48	49	3
6	126	1
35	49	2
6	6	6
128	128	9
9	14	1
67	69	1
7	123	1
65	66	3
95	121	1
46	46	11
1	4	1
70	70	8
129	129	6
102	132	1
35	35	9
117	117	5
10	37	1
90	92	3
16	26	1
78	80	1
93	100	1
93	94	3
4	5	1
14	56	1
88	88	5
94	97	2
4	4	7
62	68	2
59	59	7
61	63	1
66	69	1
15	16	3
16	16	5
86	86	7
134	134	11
126	126	9
98	111	1
63	63	8
4	9	1
66	66	6
0	0	8
34	45	2
36	36	9
30	40	2
30	36	1
104	122	1
14	45	1
94	103	1
115	115	3
24	24	11
27	33	1
86	90	1
8	10	2
77	107	1
46	47	1
10	10	5
19	20	3
82	107	1
30	132	1
89	90	1
81	81	3
91	103	1
88	101	1
77	78	3
7	7	3
29	32	1
26	26	6
113	116	1
71	75	1
1	1	3
2	18	1
10	77	3
122	130	2
12	17	1
131	132	4
25	26	1
77	85	1
10	18	2
17	18	3
5	6	2
104	127	1
8	8	5
27	27	5
96	96	3
13	13	4
72	73	4
20	23	1
29	49	1
112	124	1
9	64	1
83	89	1
57	64	1
132	132	6
111	131	3
39	41	1
105	105	3
25	25	6
81	87	1
47	113	1
10	11	1
130	134	1
82	88	1
39	39	5
18	19	1
100	122	2
38	48	1
117	118	5
13	16	1
122	124	1
92	107	1
80	97	1
118	122	2
9	12	1
106	106	2
34	44	1
103	104	1
64	64	4
32	32	6
98	98	1
66	76	1
108	110	1
103	117	1
47	47	6
24	26	1
103	103	4
100	103	1
20	26	1
21	58	1
5	5	4
55	55	2
16	90	3
107	114	1
84	87	1
78	93	1
80	85	3
6	12	2
102	103	1
74	114	1
95	95	8
39	81	1
80	81	1
123	124	3
8	16	1
17	47	2
102	109	2
102	128	1
106	109	1
130	132	1
94	106	1
15	82	2
84	85	2
33	60	1
14	19	1
13	14	2
110	111	2
39	40	2
35	44	2
99	99	1
126	130	3
20	35	1
89	89	2
94	109	1
93	123	1
40	40	5
36	43	2
63	65	1
33	48	1
127	133	1
27	28	3
114	127	1
43	69	1
113	125	1
87	102	2
48	48	1
30	30	4
121	134	1
85	121	1
71	78	1
30	31	2
113	119	1
128	129	4
81	84	1
118	123	1
61	70	1
93	96	1
37	47	1
97	130	2
80	86	1
102	104	1
83	83	2
97	98	1
47	59	1
87	92	1
74	101	1
31	31	4
45	46	1
119	128	1
94	115	2
14	15	2
82	83	1
42	43	1
112	121	1
102	107	1
121	121	5
0	1	1
97	101	1
75	76	4
74	74	7
4	7	1
122	123	2
60	60	6
19	36	1
125	126	1
102	121	1
60	61	1
122	125	2
47	57	1
58	64	1
126	127	1
100	128	1
84	84	6
107	113	3
110	121	1
108	119	1
96	113	2
109	128	1
29	29	4
98	99	1
33	38	1
106	107	2
4	97	1
37	77	1
100	101	1
92	99	1
101	101	3
93	126	1
128	130	1
43	59	1
6	8	1
104	128	1
79	82	1
99	107	1
110	112	1
65	68	1
127	127	4
20	24	1
74	116	2
85	88	2
11	18	1
12	25	1
79	85	1
83	84	1
30	32	2
57	102	2
76	77	2
61	62	1
45	49	1
124	125	1
105	107	1
69	73	1
111	118	1
26	40	1
87	88	3
56	85	1
86	87	2
59	60	1
16	59	1
90	115	1
57	61	1
107	126	2
64	65	2
108	118	1
23	24	1
69	72	1
3	3	5
93	98	1
65	71	1
14	17	2
123	125	1
5	111	1
12	18	2
115	123	1
106	112	1
31	32	2
122	126	1
101	121	1
87	128	1
8	11	1
34	86	1
28	31	1
123	131	1
111	112	3
112	119	1
100	102	1
20	43	1
32	44	3
132	133	3
102	105	1
23	29	1
71	72	1
8	9	2
117	129	1
122	122	2
94	124	1
21	50	1
74	94	1
127	129	1
97	102	1
21	27	1
31	133	1
123	133	1
27	78	1
71	71	2
6	7	2
10	58	2
28	33	1
126	128	1
66	67	1
107	116	1
101	105	1
78	82	1
9	61	1
115	116	1
18	20	1
112	113	1
57	58	1
59	85	1
98	101	2
79	83	1
2	3	3
6	36	1
25	31	1
106	122	1
127	128	1
133	134	2
9	69	1
121	131	1
75	78	1
73	74	2
98	102	1
79	130	1
16	33	1
15	17	1
115	120	1
81	82	1
11	16	1
40	43	1
4	8	1
40	48	1
81	103	1
82	118	1
1	5	1
82	84	1
98	100	1
125	129	1
100	100	2
85	101	1
54	58	1
62	70	1
24	49	1
5	60	1
63	64	1
3	4	3
51	51	1
79	100	1
75	86	1
87	105	1
96	99	2
59	117	1
119	120	1
16	17	2
80	90	1
56	58	1
78	85	1
72	78	1
94	100	1
1	60	1
81	83	1
56	57	1
55	134	1
107	125	1
18	35	1
94	95	1
100	132	1
93	93	1
5	8	1
49	58	1
35	36	1
73	119	1
75	75	1
61	74	1
129	130	1
1	3	1
21	25	1
114	116	1
39	45	1
79	96	1
121	122	1
37	44	1
55	58	1
17	31	1
47	48	1
