117	117	1
242	243	2
188	188	2
243	244	7
29	29	3
87	87	1
227	227	6
212	212	5
238	238	3
22	22	3
116	116	2
244	245	3
213	214	1
198	243	2
36	37	2
186	196	1
63	63	1
180	180	1
48	48	1
217	217	1
35	241	1
209	209	2
9	9	1
164	164	1
76	76	4
40	40	2
43	43	6
20	21	1
18	18	2
110	116	1
157	157	2
208	209	4
161	165	1
230	231	1
235	235	3
111	111	6
20	39	2
58	58	2
222	222	2
10	10	5
150	150	2
246	246	2
212	220	1
75	75	2
232	232	6
233	233	2
169	169	1
74	75	1
4	4	2
162	162	2
95	95	1
194	194	5
166	181	2
210	211	1
107	107	1
236	237	3
208	208	2
79	79	4
203	203	4
206	221	1
243	245	1
160	160	3
50	59	2
166	182	1
70	118	1
190	190	1
49	49	3
6	55	1
108	108	1
23	23	4
218	220	1
226	226	3
35	36	1
109	109	2
118	118	2
245	246	4
191	192	1
67	67	3
44	44	1
172	199	1
93	93	4
7	7	6
104	104	2
76	78	1
185	185	1
65	78	2
203	226	1
65	65	4
220	221	3
229	229	2
248	249	3
88	96	1
188	190	1
236	236	2
9	15	1
221	221	5
201	211	1
90	90	1
193	193	2
20	20	4
178	178	4
211	233	1
115	115	3
158	158	1
199	199	3
151	151	2
102	120	1
239	239	1
72	72	2
34	34	4
216	216	3
187	187	1
231	246	1
213	215	1
230	230	5
105	105	1
213	213	2
28	28	1
191	191	3
95	100	1
146	147	1
113	113	3
25	25	2
240	241	1
220	220	2
71	73	1
172	172	1
11	11	1
197	237	1
50	50	2
60	60	1
35	35	1
163	163	2
83	84	1
173	173	2
94	115	1
174	193	1
244	244	2
45	45	1
37	37	3
223	223	2
195	196	1
166	179	1
26	26	3
173	185	2
8	8	2
156	156	1
33	33	2
51	51	3
186	186	1
68	68	1
153	153	2
187	188	3
57	57	1
112	112	2
234	240	1
72	81	1
48	49	3
218	218	3
98	103	1
181	181	1
84	85	2
170	170	1
59	116	1
16	16	2
81	81	1
179	196	1
97	97	2
47	47	2
205	220	2
201	219	1
14	57	2
245	245	2
215	215	1
46	46	4
204	204	1
168	168	2
27	27	4
175	175	2
106	106	1
241	245	1
73	73	2
161	167	1
19	19	1
68	184	2
10	17	1
93	94	1
152	152	3
224	247	1
24	24	2
77	103	1
189	198	2
43	52	1
30	30	1
21	28	1
57	58	1
240	243	1
36	36	1
83	88	1
225	225	1
176	176	3
59	59	2
195	195	1
167	169	1
224	225	1
88	88	1
164	191	1
40	44	1
193	195	1
84	84	1
174	174	1
193	194	1
105	106	1
87	89	2
1	1	1
237	237	3
28	31	1
215	217	1
237	240	1
178	179	1
110	110	1
154	155	1
200	200	2
94	94	2
175	210	1
205	212	1
147	147	1
42	42	1
33	37	1
194	218	1
216	217	1
224	228	1
69	86	1
78	109	1
119	119	3
81	83	1
170	171	2
224	224	1
92	92	5
206	229	1
2	2	1
168	171	1
217	219	1
210	240	1
73	81	1
214	214	2
82	101	1
14	14	2
53	53	2
183	184	1
4	5	3
233	234	5
161	168	1
210	210	1
226	227	1
214	217	1
247	248	1
243	243	1
38	38	2
181	182	1
56	57	1
31	32	1
49	50	1
77	79	1
78	78	1
120	120	1
59	62	1
21	21	1
5	5	2
31	31	2
234	235	1
50	56	1
204	227	1
113	114	2
205	226	1
225	226	1
11	38	1
177	177	1
88	99	1
17	18	1
19	20	1
82	82	1
197	226	1
42	43	1
153	154	1
16	152	1
173	210	1
184	209	1
47	50	2
3	3	2
171	171	1
5	115	1
103	105	1
21	27	1
55	55	1
50	51	1
54	62	1
229	230	1
26	27	1
32	32	1
197	197	1
154	154	1
97	98	2
184	206	1
14	15	1
109	118	1
170	174	1
96	96	1
102	103	1
158	199	1
