46	46	8
33	33	4
80	80	3
48	49	2
133	133	5
138	156	1
26	26	5
101	103	2
128	128	5
14	14	5
98	98	2
70	70	6
19	19	6
5	5	8
17	17	5
27	27	8
166	167	5
12	65	1
99	103	1
165	165	7
21	22	3
120	124	1
19	20	4
154	154	6
35	107	1
73	75	2
48	131	2
155	157	1
159	159	6
118	122	2
35	35	2
37	37	5
20	79	1
21	21	6
140	157	1
22	66	1
169	169	8
159	160	3
156	156	9
136	136	5
25	25	6
41	41	5
163	163	5
150	150	7
50	51	1
81	81	4
44	44	6
149	149	5
129	130	2
78	78	5
108	108	5
140	140	8
88	88	4
77	79	1
36	36	3
40	41	1
7	56	1
62	79	1
23	23	5
51	51	9
69	69	3
76	79	2
13	46	1
49	49	4
131	131	4
56	66	1
2	5	2
1	1	6
10	17	1
54	54	5
53	53	3
66	66	4
79	81	2
145	145	15
119	119	5
77	116	1
15	107	1
85	88	1
127	127	5
39	39	6
162	162	4
114	116	1
151	151	8
140	160	1
104	104	4
6	7	6
161	161	4
132	132	2
87	88	2
39	41	1
24	24	10
90	97	2
56	76	2
90	90	8
144	145	3
128	129	4
141	146	1
47	48	5
44	150	2
51	52	1
146	146	8
137	137	12
43	43	3
100	105	1
18	18	4
91	92	2
93	93	4
145	146	5
2	41	1
5	28	2
118	132	1
102	105	2
8	47	2
22	24	2
109	109	3
3	3	5
120	121	2
74	92	1
152	154	2
74	76	1
124	124	11
143	143	7
9	9	5
68	69	2
121	122	4
45	45	7
52	57	2
104	105	2
66	94	3
142	142	4
5	6	3
106	106	3
102	102	4
147	147	7
100	101	1
71	80	1
6	6	11
135	136	1
131	132	1
147	148	1
9	10	1
156	157	5
14	15	2
99	105	2
135	135	3
66	67	2
139	157	1
155	156	2
84	92	1
76	80	1
153	153	4
135	154	1
57	57	3
94	95	1
141	141	6
4	5	2
63	63	3
20	44	1
78	96	1
144	144	5
97	97	4
149	150	3
21	69	1
147	157	1
78	104	2
7	7	5
42	42	2
22	23	3
117	117	6
40	40	9
97	98	2
92	92	7
114	114	4
113	114	1
17	20	1
67	69	2
8	8	3
164	164	5
97	106	3
152	152	3
11	11	5
117	132	1
46	54	1
47	86	2
64	66	1
16	51	2
143	157	1
0	0	7
15	158	1
169	170	5
116	117	4
47	47	8
52	52	3
6	16	1
7	55	2
166	166	6
72	72	2
10	10	7
0	15	1
163	164	2
132	153	1
45	46	1
120	120	7
110	110	1
127	156	1
158	158	3
7	37	1
110	112	3
80	108	2
7	35	1
113	117	1
23	24	2
150	151	1
66	128	1
83	84	1
153	154	2
34	34	5
62	63	3
99	100	1
155	155	6
139	139	4
4	4	4
134	134	6
165	166	1
126	127	4
154	164	1
62	62	3
108	109	1
160	160	4
118	118	4
168	168	8
74	75	2
105	112	1
87	87	8
163	165	2
115	115	4
154	155	3
70	88	1
111	157	1
14	26	1
143	166	1
88	89	1
116	126	2
65	66	2
107	107	5
15	44	1
73	74	1
50	50	4
77	77	5
53	56	1
138	138	3
106	107	2
148	148	3
50	55	1
94	94	5
123	123	6
9	16	1
138	143	1
34	57	1
112	112	2
27	45	1
55	55	4
157	157	4
38	38	5
112	116	1
152	153	2
40	46	1
109	110	1
128	130	1
44	45	4
85	85	2
82	98	1
84	143	2
18	19	3
151	152	2
134	135	2
55	67	2
130	151	1
87	89	1
89	90	2
86	86	4
119	120	2
137	149	1
56	56	2
11	53	1
13	40	2
39	40	3
111	111	2
15	47	1
18	54	1
116	116	3
92	94	1
67	67	1
130	130	3
2	2	4
85	106	1
13	14	3
164	166	5
103	103	3
100	100	4
24	25	2
20	80	1
96	96	3
118	127	3
49	51	1
16	17	3
112	115	1
137	153	2
91	91	1
113	113	1
89	89	1
17	51	1
167	167	3
82	94	1
102	103	2
90	144	1
49	50	1
105	105	1
16	127	1
170	170	2
3	4	1
68	68	1
94	125	1
118	160	1
34	37	1
124	125	1
161	170	1
5	45	1
38	39	1
28	28	2
70	80	1
47	49	2
130	140	2
137	166	1
129	155	1
160	166	1
54	112	1
86	87	2
73	73	1
46	53	1
132	136	1
3	5	1
137	150	1
76	91	2
90	108	1
74	85	2
74	90	1
83	83	4
123	124	2
85	91	1
90	107	2
160	161	1
75	76	1
98	124	1
7	12	1
74	103	1
18	69	1
7	11	1
41	42	3
125	126	1
64	64	3
79	80	3
138	164	1
141	142	3
48	48	3
84	111	1
7	33	3
125	127	1
137	151	1
101	104	1
76	76	1
25	161	1
129	133	1
12	12	4
13	13	3
105	106	2
143	144	2
129	129	1
161	166	1
19	22	1
137	138	1
97	99	1
122	122	2
20	50	1
12	169	1
121	121	2
50	65	1
56	73	2
12	106	1
82	82	1
107	108	1
13	15	1
0	1	1
13	44	1
42	43	1
158	159	1
18	20	1
79	79	1
120	122	1
133	134	1
0	3	1
41	44	1
74	101	1
18	56	1
16	46	1
26	27	1
81	88	1
82	83	2
159	166	1
116	146	1
70	154	1
85	128	1
114	132	1
13	27	1
72	73	1
71	71	4
43	150	1
67	119	1
92	93	2
95	95	2
56	57	1
85	133	1
81	82	2
36	83	1
76	82	1
109	111	1
101	101	2
143	154	1
161	162	1
135	149	1
94	106	1
166	168	1
52	53	1
82	104	1
14	16	1
167	170	1
124	126	1
80	81	2
68	110	1
64	68	1
142	143	1
111	113	1
146	154	1
154	156	1
168	169	2
67	83	1
53	110	1
129	141	1
16	16	3
155	161	1
40	159	1
126	132	1
39	169	1
37	56	1
120	153	1
53	54	1
135	140	1
46	47	1
7	153	1
56	77	1
84	91	1
27	28	2
22	22	1
12	123	1
118	124	1
66	122	1
5	43	1
134	169	1
69	70	2
83	91	1
148	149	1
129	131	1
162	163	2
65	82	1
23	47	1
15	20	1
117	146	2
151	153	1
15	15	1
4	35	1
122	124	1
76	101	1
92	103	1
65	65	1
135	151	1
84	84	1
20	21	1
12	48	1
155	160	1
20	20	1
99	102	1
99	99	1
87	113	1
157	158	1
142	145	1
139	140	1
66	69	1
5	39	1
79	107	1
157	160	1
36	37	1
19	24	1
149	151	1
89	100	1
114	158	1
126	126	1
83	100	1
42	150	1
120	133	1
