77	142	1
162	162	3
58	58	2
124	125	1
30	30	5
91	92	2
130	150	1
124	124	6
90	90	3
174	174	3
54	68	2
130	130	4
77	77	6
129	129	6
82	84	2
140	140	4
139	142	1
168	168	4
84	84	4
5	6	2
80	80	2
1	6	1
3	5	1
119	119	9
159	159	4
26	27	1
165	166	2
144	144	7
145	145	4
153	153	1
112	112	8
112	113	2
148	149	1
84	87	1
118	118	3
96	96	4
104	104	1
126	126	1
143	143	1
122	123	3
163	163	7
23	23	2
63	63	2
37	51	1
163	165	1
131	132	2
0	1	3
40	40	5
144	145	2
11	13	2
7	119	1
94	94	6
84	85	2
123	123	2
80	81	1
22	41	1
65	84	2
37	38	3
75	75	3
31	36	1
149	149	8
141	141	1
155	155	6
127	127	4
8	9	3
43	43	6
55	55	10
152	155	1
138	139	1
60	62	3
160	162	2
118	127	1
10	41	1
109	109	4
100	101	4
114	114	2
155	164	1
88	95	2
78	78	6
4	4	5
74	76	1
159	160	1
147	148	5
178	178	3
89	89	4
133	133	9
172	172	5
37	73	1
36	36	4
140	143	1
113	113	8
95	95	2
56	58	3
39	39	4
83	87	2
118	119	3
101	104	1
0	0	6
96	110	1
14	16	1
122	122	5
50	50	5
136	173	1
138	138	5
150	150	6
145	148	1
26	26	3
111	111	1
54	54	6
13	17	1
91	91	2
113	115	1
2	2	6
139	139	4
173	178	2
81	81	6
64	64	3
17	17	3
55	56	1
25	25	7
62	63	1
5	5	3
12	141	1
30	31	1
74	74	2
154	154	2
155	156	1
24	24	5
0	131	1
144	160	1
93	93	2
3	4	1
29	41	1
73	73	5
146	146	5
133	134	1
153	154	2
148	148	5
19	19	4
157	157	4
169	171	1
83	83	3
60	85	1
156	156	4
19	20	1
80	111	1
38	39	1
113	114	1
61	94	1
111	112	3
27	28	1
5	11	2
1	1	1
143	152	1
116	116	4
60	60	5
67	67	3
17	18	1
73	78	1
98	110	1
132	132	8
15	15	7
21	33	2
4	5	1
125	125	3
72	72	8
104	115	1
160	160	8
155	160	1
51	51	3
179	179	3
71	71	5
77	79	2
171	171	7
53	53	2
31	66	1
97	97	4
125	126	2
31	31	4
86	99	1
57	57	4
13	13	3
102	136	1
153	157	1
91	102	1
133	149	1
40	41	4
173	173	2
24	25	2
92	92	2
139	151	1
176	176	3
129	154	1
120	120	6
87	87	2
145	147	1
37	37	4
128	128	3
95	96	2
79	79	7
51	83	1
90	91	4
65	88	1
143	144	2
41	42	2
113	165	1
39	40	1
18	26	1
159	161	1
151	151	5
165	168	1
152	153	1
95	123	1
140	142	1
99	100	1
137	137	7
44	44	4
131	145	2
32	37	1
100	100	1
115	173	1
54	65	1
72	130	1
110	114	1
167	167	5
165	165	2
57	58	1
172	180	1
82	86	2
74	75	2
106	107	1
16	18	1
20	20	3
82	99	1
112	135	1
115	116	2
43	44	3
56	56	2
92	93	1
9	9	3
166	166	3
132	135	1
7	10	1
76	76	2
117	117	3
4	126	1
4	9	1
16	32	1
106	106	3
158	159	1
66	85	1
22	24	2
31	38	1
86	86	2
15	18	1
33	55	1
33	33	1
61	65	1
122	125	1
134	141	1
142	142	3
3	3	2
114	115	2
128	144	1
130	132	3
27	27	1
40	43	1
52	61	1
101	102	3
136	149	1
78	79	1
61	62	1
111	115	2
110	115	1
147	147	2
136	136	4
58	63	1
32	33	1
131	131	2
63	64	1
45	45	1
49	50	1
2	3	1
21	24	1
103	105	1
130	131	1
0	10	1
29	30	1
157	158	1
65	66	1
108	127	1
142	143	1
98	125	2
173	174	1
168	169	1
57	62	1
164	164	2
35	35	3
152	152	1
6	6	2
28	28	2
123	158	2
151	169	2
65	65	3
170	171	2
66	67	2
145	169	1
51	52	1
161	161	1
39	44	1
172	173	1
164	165	2
3	118	1
123	124	1
130	139	1
83	85	2
108	108	2
177	177	2
127	146	1
11	33	1
127	129	1
101	101	1
64	65	1
154	155	1
83	102	1
42	42	2
38	38	5
29	38	1
14	15	2
98	98	2
131	133	1
137	138	1
29	59	1
152	170	1
154	167	1
116	117	1
59	59	4
103	103	1
5	33	1
26	29	1
121	122	1
60	61	2
157	168	1
56	89	1
66	66	1
96	135	1
157	160	2
97	98	3
32	32	1
2	15	1
21	23	2
170	170	4
147	155	1
180	180	2
105	105	1
101	115	1
139	140	2
138	153	1
61	61	1
55	135	2
139	158	1
15	21	1
21	41	1
175	176	1
31	32	2
7	7	2
127	155	1
58	113	1
90	94	2
141	149	1
89	134	1
3	16	1
109	110	1
85	85	1
135	136	1
111	113	1
105	107	1
171	175	1
23	24	1
10	10	1
34	34	1
120	122	1
102	102	1
92	114	1
174	176	1
27	31	1
156	157	1
127	132	1
90	108	1
99	99	1
140	180	1
163	166	1
179	180	1
21	21	1
135	135	1
52	52	1
33	34	1
146	153	1
62	62	1
96	102	1
29	31	1
143	145	1
1	3	1
136	137	1
128	129	1
29	29	3
110	140	1
61	131	1
35	36	1
68	179	1
108	109	1
17	23	2
132	133	1
12	12	2
1	25	1
14	37	1
13	15	1
169	169	1
16	27	1
129	131	1
8	8	1
158	171	1
134	134	1
6	122	1
110	176	1
40	104	1
115	115	1
121	123	1
115	127	1
150	153	1
137	149	1
9	10	1
31	97	1
121	121	2
154	156	2
68	140	1
23	27	1
131	137	1
107	107	1
6	119	1
79	80	1
88	89	1
14	40	1
126	128	1
150	152	1
98	118	1
77	78	1
102	103	1
67	89	1
96	97	1
28	29	1
1	32	1
108	122	1
62	65	1
52	73	1
42	43	1
10	14	1
110	110	1
