107	107	10
87	87	7
129	129	10
132	133	3
22	22	13
36	36	17
121	122	7
0	0	6
9	9	14
168	170	3
88	88	7
83	83	6
120	122	3
58	58	2
17	17	9
137	138	6
109	109	6
154	154	21
139	140	5
4	4	22
1	1	17
94	94	10
123	133	1
151	151	13
144	145	2
25	25	9
135	135	7
159	159	13
131	131	11
27	27	11
149	149	17
45	45	5
99	99	7
80	81	2
56	117	1
118	118	8
158	160	1
157	157	17
86	87	3
142	142	8
16	16	14
47	47	19
42	42	14
66	66	5
114	119	1
2	2	13
158	158	11
121	132	1
133	133	6
155	167	2
84	84	9
46	47	3
123	123	18
42	43	6
149	163	1
138	138	17
89	118	2
127	127	13
112	112	10
169	169	11
142	143	2
86	86	7
34	34	25
107	119	2
164	164	13
117	117	9
165	165	17
150	150	15
124	125	2
109	130	1
80	97	1
160	161	3
139	139	12
167	167	7
125	125	15
5	18	1
3	6	2
23	24	6
3	7	2
116	116	10
90	91	4
112	116	1
39	39	16
105	144	1
51	51	19
46	46	14
3	4	2
141	142	6
110	111	4
52	52	10
71	75	1
129	153	1
155	155	14
120	142	2
37	37	10
89	89	8
160	160	17
108	109	8
18	18	6
161	161	6
15	16	4
129	132	4
85	139	2
120	123	1
132	132	13
79	79	12
20	20	10
84	137	1
117	119	2
77	77	7
15	20	1
8	8	12
75	75	12
128	129	4
50	51	10
130	130	25
45	46	4
155	156	8
96	147	1
3	3	16
104	104	3
170	170	12
120	120	9
125	151	1
150	151	4
72	72	9
128	128	13
26	27	4
56	57	1
2	3	5
34	35	2
157	166	1
146	146	13
80	83	1
12	12	16
82	107	1
68	68	8
70	70	14
163	164	4
136	136	18
35	35	21
166	166	18
143	144	7
140	166	1
45	88	1
13	13	16
119	119	9
82	82	6
14	14	13
153	154	4
49	52	1
147	147	9
128	133	1
100	100	10
152	152	22
69	70	6
71	71	11
97	99	2
101	101	10
147	161	3
54	54	6
10	10	17
128	130	1
145	146	5
58	61	1
50	50	10
37	39	1
50	134	1
43	43	29
149	150	5
125	126	4
135	144	1
141	141	10
122	128	2
57	63	2
144	163	1
90	90	12
91	92	1
56	56	13
49	49	8
13	17	2
63	63	5
168	168	11
19	23	1
88	89	2
58	64	1
33	36	1
148	149	2
15	15	15
11	11	16
48	48	13
105	105	8
27	43	1
21	49	1
46	75	1
74	75	6
113	113	4
97	97	10
15	17	2
41	41	12
33	34	4
96	132	1
135	157	2
159	160	6
38	39	4
85	88	3
137	137	13
11	13	1
140	140	16
156	156	19
10	12	3
23	50	1
105	131	1
53	72	1
77	102	1
21	21	12
87	88	2
62	62	3
101	104	2
98	112	2
161	164	2
158	161	4
99	111	1
82	83	3
138	139	7
155	166	1
96	126	1
57	58	2
124	124	9
50	124	2
121	134	1
106	106	7
116	126	1
21	44	1
86	88	3
89	107	1
108	108	12
133	150	1
1	6	2
88	112	2
156	157	1
163	163	12
121	144	2
107	108	3
157	160	1
13	14	7
146	164	1
47	48	3
162	162	13
134	134	16
148	148	7
56	62	1
144	148	2
6	6	10
11	12	2
7	7	11
5	161	1
19	19	15
81	82	11
37	38	4
152	153	4
114	114	6
17	18	2
151	159	1
26	26	15
120	121	3
73	80	2
26	34	1
123	145	1
158	159	3
117	118	3
33	33	7
136	137	6
39	40	5
144	144	20
166	167	3
91	93	3
76	79	1
44	45	5
25	86	1
69	69	13
123	124	5
67	73	1
27	28	1
110	110	7
143	143	17
130	131	8
47	56	2
93	93	5
40	40	19
68	147	1
85	85	7
145	145	14
40	41	7
53	53	17
103	166	1
3	14	1
76	76	11
148	169	3
105	106	3
107	110	1
53	84	3
81	81	12
16	137	1
65	73	1
18	22	2
111	111	5
157	168	1
128	139	1
108	157	1
122	123	2
68	70	2
102	102	8
54	55	2
6	20	2
38	106	3
147	151	1
90	110	2
68	69	2
95	95	5
5	5	13
72	73	4
38	42	1
113	114	2
97	117	1
22	45	1
20	25	1
135	136	5
20	21	9
51	52	2
115	115	6
133	134	6
46	76	1
50	52	1
46	70	1
103	117	1
21	25	2
24	53	2
57	86	1
122	122	14
97	98	3
41	68	1
74	74	9
84	170	1
37	40	2
8	16	1
100	108	1
148	163	2
67	68	2
14	36	2
26	67	1
74	114	1
109	110	5
153	153	12
92	92	13
4	5	4
2	160	1
64	64	5
73	74	2
24	164	2
36	37	6
105	107	1
126	127	4
132	140	1
40	42	3
8	46	1
19	21	2
63	70	1
28	28	7
44	44	17
0	4	1
21	64	2
124	156	1
13	68	1
14	49	1
123	126	3
39	45	1
4	6	2
157	158	5
162	163	4
135	159	1
146	147	4
91	103	2
134	135	2
57	72	1
5	11	1
118	120	1
56	69	1
138	157	3
8	9	4
55	130	1
159	170	1
2	7	1
121	141	1
131	132	2
114	115	3
113	115	2
149	158	2
2	22	2
5	7	2
10	36	1
54	67	1
67	71	1
139	151	1
94	95	2
129	156	1
71	73	2
1	167	1
99	113	1
93	94	3
135	167	2
12	13	5
96	120	1
146	166	1
126	149	2
23	23	7
14	15	8
28	135	1
48	50	2
118	119	3
38	38	8
2	88	1
68	76	1
144	155	1
75	85	1
64	68	1
109	148	1
148	151	1
73	73	3
109	111	2
22	23	4
95	96	4
126	126	7
24	24	11
143	154	1
137	142	1
9	10	4
14	28	1
88	93	1
137	149	4
13	37	1
94	98	2
154	155	1
112	118	3
114	116	2
41	42	4
131	146	2
41	110	2
98	98	7
46	51	2
7	26	2
85	108	2
85	86	1
95	122	1
104	116	2
146	154	1
45	47	2
11	75	1
1	7	1
8	13	1
116	157	1
46	89	1
11	44	1
80	80	5
36	41	2
146	156	2
7	152	1
21	75	1
62	63	3
116	117	5
90	139	1
91	91	5
125	129	2
13	15	2
78	120	1
7	10	2
164	165	5
89	123	1
129	130	2
38	46	1
67	67	3
87	100	2
0	1	6
70	71	4
92	96	1
84	106	1
48	49	2
152	167	2
148	160	1
132	142	1
84	109	1
5	42	3
27	68	1
1	36	1
6	26	1
101	103	4
151	154	1
8	10	5
53	63	1
122	145	1
86	91	1
129	147	2
81	83	1
88	97	2
24	25	6
118	160	1
47	117	1
21	22	4
147	148	1
121	121	10
1	2	5
155	161	1
46	73	2
55	55	6
67	96	2
162	164	2
2	40	1
159	168	1
77	78	4
138	143	1
151	153	3
55	56	7
112	113	1
163	166	1
105	110	1
99	104	3
57	122	1
138	153	1
65	78	1
97	123	2
128	131	1
47	52	2
53	54	2
103	103	8
0	14	1
54	78	1
168	169	3
115	125	1
56	58	1
13	27	1
84	85	3
106	136	1
138	140	1
76	78	4
100	156	1
7	8	2
42	131	1
151	157	1
106	138	1
129	144	1
92	141	1
53	71	1
41	109	2
78	79	2
52	56	2
111	112	2
11	15	2
161	163	1
101	111	1
105	120	1
41	107	1
126	156	1
91	121	1
10	21	1
125	146	1
105	124	1
63	64	2
78	78	3
93	103	1
47	49	1
147	157	1
108	137	1
102	121	1
7	42	1
82	147	1
0	2	1
133	140	1
131	138	1
142	147	1
67	69	2
85	87	1
99	100	2
68	114	1
3	158	1
2	37	1
10	73	1
73	100	1
79	87	1
49	62	2
52	80	1
160	166	1
6	42	1
92	93	5
135	137	1
35	110	1
9	12	1
75	96	2
0	3	1
107	148	1
17	25	2
65	65	6
157	162	1
54	101	1
71	113	1
166	168	1
5	15	2
43	44	1
76	80	2
67	86	1
10	20	1
83	84	2
41	134	1
147	159	1
129	136	1
57	57	3
118	123	1
7	49	1
120	163	1
52	125	2
124	152	1
68	79	1
110	157	1
7	19	1
16	47	1
71	86	1
138	166	1
120	127	2
144	146	2
103	121	1
40	45	1
54	69	1
1	15	1
58	63	1
135	150	1
5	25	1
85	134	2
143	145	1
157	159	2
51	124	1
92	133	1
7	39	1
44	49	1
18	19	1
10	11	2
105	121	1
147	152	2
117	135	1
77	103	1
100	105	1
53	73	1
42	119	2
147	149	1
69	101	1
131	167	2
100	144	1
45	106	1
151	152	1
43	45	2
165	166	2
53	69	2
104	154	1
0	119	1
65	66	3
122	126	1
86	89	2
117	138	1
65	85	1
91	142	1
38	40	2
98	99	3
58	80	1
41	90	2
5	6	2
100	103	2
139	143	1
140	142	1
149	157	1
130	151	2
3	169	1
2	87	1
155	160	1
66	71	1
14	43	1
119	121	2
25	46	1
114	118	1
37	43	1
142	163	1
1	3	1
122	125	1
121	166	1
46	56	1
73	75	1
52	53	1
145	161	1
11	49	2
147	150	1
137	169	1
127	137	1
17	47	1
2	14	1
156	161	1
106	116	2
72	74	1
137	151	1
7	14	1
131	152	1
25	43	1
0	169	1
9	23	1
100	102	1
16	17	3
143	161	1
91	105	1
73	76	1
154	161	1
132	144	1
135	154	1
16	169	2
79	80	1
10	49	1
39	53	1
68	100	1
139	154	1
147	160	1
147	167	1
72	123	1
7	11	1
142	150	1
99	119	1
127	147	2
101	102	1
106	107	3
76	77	3
103	104	3
2	136	1
76	91	2
99	117	2
66	112	1
1	45	1
111	143	1
57	62	2
139	158	1
16	70	1
140	141	2
49	50	1
144	149	1
136	143	1
119	133	1
125	135	1
47	54	1
81	88	1
135	146	1
72	75	1
124	131	1
85	122	1
103	113	1
133	153	1
2	4	1
8	50	1
121	123	1
18	48	1
71	105	1
100	133	1
133	135	1
21	24	1
42	110	1
79	122	1
80	99	1
94	96	1
106	114	1
28	74	1
102	104	2
44	54	1
104	105	1
71	79	2
80	82	2
123	125	2
5	39	1
145	165	1
74	76	2
35	36	1
75	114	1
100	146	1
140	156	1
47	51	1
3	5	1
50	66	1
37	44	1
115	116	1
146	149	2
37	41	1
50	67	1
82	152	1
68	119	1
136	166	1
12	48	1
27	47	1
112	157	1
77	79	1
93	95	1
47	87	1
118	121	1
91	111	1
106	135	1
54	74	1
119	135	1
126	154	2
131	133	1
125	130	1
23	25	1
7	25	1
40	169	1
150	156	1
24	36	1
66	67	1
41	157	1
106	112	1
128	152	1
70	74	1
6	7	1
134	140	1
161	162	2
127	129	1
105	118	1
155	157	3
83	85	1
123	138	1
150	155	1
26	108	1
89	167	1
25	27	1
121	128	1
151	164	1
75	82	1
127	141	1
100	101	1
10	15	1
145	152	1
162	167	1
63	81	1
33	109	1
130	157	1
121	127	1
9	22	1
167	168	1
70	75	1
131	142	1
139	142	1
64	67	1
13	34	1
119	142	1
107	135	1
16	20	2
156	167	1
23	37	1
65	82	1
17	74	1
35	64	1
50	53	1
90	99	1
61	62	1
4	41	1
22	24	1
72	88	1
141	165	1
13	161	1
106	109	1
42	53	1
