95	95	6
7	7	2
143	143	4
111	121	1
0	0	8
7	20	1
153	158	1
75	75	8
123	141	2
116	116	4
146	146	6
32	32	3
80	80	9
155	155	2
130	130	12
28	47	1
40	41	2
129	129	9
157	157	13
155	156	4
147	147	12
108	109	3
99	99	11
122	122	3
95	96	3
135	138	1
139	139	7
107	115	1
149	149	7
132	158	1
77	77	6
70	70	8
17	18	3
124	126	3
112	131	1
107	107	12
110	110	3
130	138	2
48	50	2
108	112	2
53	54	1
1	1	6
52	52	3
130	132	2
105	105	7
120	146	1
44	45	2
28	28	5
21	96	2
92	93	4
9	10	1
131	131	5
91	124	1
47	48	2
49	49	4
48	49	3
39	39	9
137	138	5
10	12	1
93	107	1
121	122	3
150	152	1
135	135	9
50	50	5
134	134	6
158	158	6
68	68	5
119	119	4
115	115	2
88	89	5
54	54	4
119	120	3
138	138	9
111	111	14
150	150	11
24	24	7
78	82	1
68	111	1
92	92	3
25	25	7
101	102	2
103	103	5
23	23	5
127	142	1
156	156	9
115	117	1
36	36	6
135	137	3
123	126	3
82	82	3
3	4	1
128	148	1
17	19	1
55	55	3
98	98	9
153	154	2
73	73	7
51	53	1
107	108	3
132	133	2
14	17	1
87	90	1
29	30	4
141	141	4
2	4	1
48	51	1
11	11	3
144	145	3
145	147	3
93	110	2
93	93	8
35	35	7
122	123	1
103	106	1
114	115	5
148	148	4
142	142	7
83	84	2
136	136	10
22	22	7
111	115	1
1	2	5
77	78	2
49	53	1
128	128	6
153	153	5
115	121	2
105	106	1
67	68	3
75	100	1
20	35	1
121	144	1
151	152	3
125	126	4
34	34	4
85	85	5
19	21	2
104	104	8
71	97	2
31	32	1
136	144	1
148	149	2
91	92	3
102	102	2
2	2	9
46	46	7
23	36	1
32	37	1
108	111	1
30	44	1
51	55	1
121	121	6
118	118	4
13	23	1
74	74	1
30	30	4
41	41	4
144	147	1
106	110	1
37	37	2
80	107	1
16	17	2
152	152	4
108	108	6
44	44	3
137	137	9
106	106	7
101	101	7
153	155	1
90	91	6
127	127	4
35	36	1
66	66	6
84	84	8
110	126	1
29	156	1
93	96	1
110	111	1
114	114	4
10	11	3
124	124	6
90	90	2
151	151	8
29	31	1
31	31	8
111	131	1
78	78	5
131	132	1
112	112	5
145	146	6
64	87	1
39	55	1
89	89	7
134	135	2
91	127	1
24	39	1
86	86	6
117	117	4
20	20	12
31	40	1
18	18	2
48	48	6
30	43	2
33	33	1
120	133	2
111	112	2
21	21	8
96	97	1
42	47	1
128	130	1
97	97	5
123	124	3
149	152	1
120	134	2
113	114	4
96	96	2
100	100	5
144	144	3
157	158	5
40	40	3
87	87	6
128	138	1
11	21	1
126	126	3
106	107	2
120	139	1
39	76	1
131	152	1
68	120	1
128	132	3
119	154	1
96	120	2
42	53	1
83	111	1
39	77	1
91	104	1
39	79	1
94	118	1
106	139	1
23	43	1
142	143	4
2	3	1
116	120	1
133	133	5
29	29	2
38	38	9
0	1	1
16	16	4
63	63	1
129	130	3
42	42	2
69	71	1
142	148	2
62	62	1
64	114	1
103	104	2
18	48	3
133	134	2
69	83	1
32	33	2
132	151	2
123	125	3
64	64	3
32	98	1
82	83	2
109	111	1
38	41	1
12	30	1
24	25	1
93	142	1
123	123	4
140	140	9
80	81	2
80	87	1
88	88	2
103	133	1
26	26	3
43	43	7
4	4	6
36	37	6
95	97	1
132	132	6
45	49	1
28	30	1
13	16	1
73	74	1
42	123	2
93	95	2
10	24	1
71	71	2
65	65	2
46	47	1
95	105	1
30	103	2
132	134	1
24	28	2
26	27	1
5	5	2
130	131	1
117	137	1
7	8	2
33	34	1
94	94	3
69	69	3
67	67	6
141	142	4
122	144	1
87	148	1
81	81	3
38	53	1
98	107	1
154	154	6
13	14	2
145	145	3
98	112	1
84	110	1
51	51	1
40	77	2
87	93	1
8	8	1
102	104	2
20	51	2
53	53	2
19	20	2
125	125	2
38	39	2
45	45	2
118	119	4
85	86	3
113	135	2
98	140	1
84	86	1
38	55	1
90	93	1
20	32	1
0	152	1
86	116	1
68	132	1
78	80	1
68	71	2
64	65	1
8	50	1
8	23	1
93	136	1
120	121	1
79	79	3
105	149	1
78	88	1
94	115	1
138	139	1
90	96	1
130	150	1
109	109	3
112	149	1
77	79	1
118	136	3
127	130	1
26	44	1
111	159	1
19	143	1
120	120	1
116	147	1
99	100	1
85	122	1
15	15	1
27	27	1
56	56	2
100	130	1
108	110	1
17	17	3
25	27	1
75	76	1
114	122	1
19	19	1
112	113	2
52	54	1
50	55	2
98	157	1
55	64	1
22	23	1
81	107	1
118	123	1
8	30	1
97	128	1
28	29	2
71	120	1
111	122	1
124	125	2
92	102	1
52	97	1
64	127	1
3	3	2
113	143	1
136	137	1
101	129	1
30	31	2
85	90	1
87	88	2
30	36	2
115	118	1
105	133	1
120	123	1
37	38	1
67	70	1
36	128	1
16	19	1
46	49	1
35	37	1
23	24	1
40	141	1
8	10	1
6	6	3
5	6	1
48	56	1
37	40	1
141	145	1
87	106	1
105	139	1
137	145	1
91	91	1
12	127	1
140	141	1
65	130	1
156	157	1
147	148	1
98	105	1
106	157	1
86	90	1
93	94	1
86	87	1
13	13	1
129	156	1
113	113	2
116	126	1
50	51	1
57	57	1
104	107	1
61	61	1
47	47	1
65	75	1
130	139	1
48	63	1
6	8	1
14	15	1
39	41	1
122	143	1
81	89	1
8	17	1
3	55	1
41	57	1
