71	75	2
40	41	1
99	100	1
120	121	1
175	176	1
75	76	4
151	177	1
124	124	4
14	23	1
54	54	2
38	38	3
5	5	3
101	101	1
117	117	1
1	1	2
82	82	2
77	77	1
48	48	2
148	158	2
174	174	1
2	2	2
24	24	3
56	57	1
59	60	2
107	147	1
12	12	4
155	184	1
187	187	1
96	97	1
35	35	2
84	85	1
108	109	1
139	184	1
111	168	1
30	31	1
167	167	1
95	95	2
159	159	2
154	154	3
44	70	1
156	156	2
30	32	1
74	76	1
152	152	1
141	143	1
138	171	1
27	27	2
153	153	1
113	113	1
91	91	6
102	102	3
155	155	2
74	75	1
56	56	4
124	125	2
34	34	2
26	26	2
111	116	1
19	19	1
146	146	2
160	160	1
91	108	1
139	139	4
130	134	1
119	143	1
30	30	3
6	6	3
103	103	1
29	29	2
21	21	1
83	129	1
86	97	1
188	188	3
156	157	1
79	79	3
121	150	1
86	105	1
20	20	3
93	125	1
42	42	1
183	183	1
167	174	3
106	160	1
37	37	2
53	53	2
57	58	1
100	103	1
110	110	3
63	63	2
57	57	4
90	91	3
173	173	3
44	46	1
121	157	1
145	145	1
146	184	1
14	14	1
177	181	1
10	10	1
90	90	1
25	25	1
157	158	5
110	119	1
137	137	2
109	115	1
77	78	1
10	13	1
39	40	1
16	21	1
55	55	2
83	131	1
82	85	3
105	105	1
83	83	3
98	98	2
179	179	3
40	153	5
159	160	1
68	71	1
121	121	1
71	71	2
102	103	1
92	93	1
11	11	1
65	65	1
106	106	1
109	109	1
15	15	3
17	17	3
79	129	1
136	136	4
176	184	1
129	129	5
68	77	1
142	163	1
58	61	1
110	111	1
59	64	1
182	182	1
94	94	1
68	72	1
176	176	2
177	177	2
86	86	3
143	143	1
39	39	4
47	47	2
175	175	1
103	106	1
68	75	1
38	39	1
165	165	1
184	184	1
122	165	1
106	108	1
97	104	2
19	21	1
160	161	1
161	161	1
78	78	2
136	137	1
0	0	2
139	140	1
133	133	1
180	182	2
147	147	1
97	97	2
127	152	1
8	9	1
76	76	2
8	8	1
5	7	1
27	29	1
90	92	1
68	68	1
83	84	1
111	119	1
115	115	1
7	7	1
143	165	1
176	177	1
67	68	1
81	81	1
23	23	1
117	118	1
96	150	1
180	180	1
116	118	1
44	44	1
178	179	1
71	89	1
128	128	3
91	92	1
114	114	1
79	84	1
131	131	1
154	159	1
111	154	1
126	127	1
87	88	1
172	172	2
175	177	1
19	20	1
104	104	1
64	64	1
22	22	1
64	65	1
148	148	1
166	166	1
60	60	1
127	149	1
142	142	2
158	158	1
60	85	1
140	144	1
96	98	1
46	46	1
18	21	1
178	178	2
113	114	2
67	70	1
39	53	2
181	183	1
114	115	1
58	58	1
100	101	1
116	116	1
29	30	1
46	47	1
123	123	1
79	80	1
127	127	1
92	99	1
125	125	1
80	80	1
17	139	1
148	165	1
73	73	1
119	119	1
81	82	1
55	56	1
107	107	1
178	185	1
35	36	1
150	150	2
179	184	1
96	96	1
23	31	1
