45	45	6
18	18	4
224	224	5
226	226	2
3	3	3
100	145	1
15	15	2
22	22	9
14	14	3
156	156	4
111	111	3
204	204	1
38	38	4
5	5	5
91	91	3
81	83	1
32	32	3
27	27	5
90	144	2
241	241	4
67	67	3
235	235	5
197	198	1
221	222	1
193	193	7
112	115	2
61	61	2
162	162	4
87	87	4
65	65	7
78	78	1
54	54	3
191	192	1
187	188	2
167	167	6
106	108	1
203	212	1
178	179	1
173	173	3
28	44	1
179	200	1
93	93	8
167	168	1
197	197	6
92	92	3
33	33	2
229	229	5
6	6	2
206	206	2
59	59	2
4	4	1
233	233	5
17	18	1
169	170	1
220	220	6
24	25	1
245	246	3
222	223	2
108	108	3
43	43	2
176	178	1
213	213	3
77	77	1
201	201	10
226	227	2
61	62	1
240	243	1
154	154	7
151	151	3
186	186	2
160	160	1
229	237	1
112	112	3
1	1	4
153	153	3
247	247	1
20	20	5
158	158	4
210	214	2
225	226	1
230	230	4
9	9	4
41	202	1
34	34	9
117	118	2
209	209	1
70	72	1
44	44	10
222	222	3
117	117	2
28	28	6
184	193	1
118	118	1
30	30	4
78	80	1
206	246	1
73	84	1
242	242	3
237	238	2
221	221	3
114	114	2
35	35	4
184	184	3
168	168	1
7	15	1
25	25	2
224	231	1
183	185	1
165	165	1
203	203	6
225	225	4
205	205	1
159	161	1
17	17	3
51	51	2
161	162	1
177	177	1
49	51	1
207	207	4
150	150	3
179	179	4
31	36	2
185	185	4
32	33	4
31	31	2
40	40	1
202	203	3
68	69	1
192	192	3
23	155	1
211	211	3
19	19	4
171	171	6
183	183	6
181	181	2
194	195	3
79	80	1
66	67	1
189	189	3
23	23	6
8	8	4
219	219	4
110	112	1
42	42	5
11	11	6
21	24	1
164	164	1
44	202	1
96	96	3
169	169	7
195	195	1
86	87	1
111	118	1
62	168	1
162	163	1
214	225	1
21	21	3
22	179	1
26	27	2
220	236	1
187	190	1
145	145	3
203	207	1
65	66	1
37	37	5
155	155	1
227	227	2
180	196	1
212	228	1
54	55	2
53	91	1
102	102	1
82	82	2
223	224	3
214	215	1
223	223	5
118	119	2
190	190	1
30	31	1
70	70	1
172	192	1
173	211	1
1	206	1
56	61	2
244	244	1
60	60	3
29	29	4
165	184	1
27	32	1
72	72	1
230	231	2
180	201	1
90	165	1
189	194	1
183	184	2
214	216	1
210	210	2
119	119	1
116	117	1
50	224	1
239	239	1
58	58	1
12	12	1
200	220	1
23	24	1
63	73	1
24	24	3
199	199	1
38	52	1
113	113	3
212	212	1
120	205	1
202	202	2
53	54	2
47	47	3
223	243	1
220	221	2
48	184	3
219	222	1
246	247	2
152	152	1
235	246	1
183	233	1
39	39	1
66	66	1
47	48	1
57	57	1
217	220	1
105	105	3
108	114	1
67	169	1
215	218	1
211	212	2
85	85	1
76	76	1
200	200	3
51	247	2
176	176	4
157	157	1
95	96	2
42	43	1
240	241	1
93	94	1
54	70	1
105	109	1
101	101	3
163	163	3
116	119	1
179	180	2
49	49	3
146	146	1
188	190	1
233	246	1
214	214	1
16	245	1
114	116	1
243	246	1
110	110	3
7	7	2
46	46	1
161	161	1
220	245	1
106	107	1
68	68	1
236	236	3
71	87	2
7	8	2
166	166	1
171	172	1
108	109	1
240	240	4
2	2	1
25	184	1
55	56	1
84	84	1
210	219	1
36	36	1
114	115	1
89	89	2
45	46	2
199	200	1
243	244	1
107	108	1
173	174	3
116	116	1
164	167	1
110	115	1
200	201	1
62	63	1
174	212	1
109	109	1
53	53	1
64	64	2
10	10	3
238	240	3
198	198	1
191	191	1
238	238	1
71	72	1
65	147	1
227	235	1
198	199	1
106	106	1
208	209	1
29	42	1
9	10	1
172	172	2
61	90	1
64	66	1
203	245	1
26	26	1
169	171	1
239	241	1
2	150	1
208	236	1
204	244	1
205	235	1
79	86	1
90	91	1
10	11	1
94	94	1
80	80	4
22	23	1
69	69	1
212	213	1
63	63	1
19	41	1
59	60	1
4	5	1
110	111	1
176	190	1
41	41	2
237	239	2
62	62	3
203	204	1
236	237	1
19	20	1
191	208	1
182	182	1
218	219	1
52	52	1
48	87	1
100	109	1
39	235	1
0	1	1
215	219	1
163	164	1
211	227	1
190	192	1
182	197	1
178	178	1
90	90	1
235	237	1
35	36	1
220	246	1
235	236	1
34	175	1
76	77	1
228	228	1
48	169	1
62	118	1
196	196	1
50	50	1
65	93	1
156	167	1
18	19	1
170	170	1
234	234	1
182	183	1
63	64	1
