92	93	3
83	84	1
112	113	1
6	6	2
38	42	3
19	20	2
116	130	2
75	77	1
110	111	1
17	17	3
41	41	1
10	25	1
100	100	1
139	146	1
118	118	3
12	26	1
14	127	1
65	65	2
5	6	2
135	136	2
55	56	1
10	10	4
144	144	4
95	95	2
32	43	1
129	129	3
138	138	3
43	69	1
47	49	2
130	130	2
15	15	2
47	48	3
26	29	2
33	33	1
111	148	1
132	132	1
125	125	2
153	153	3
73	73	2
127	127	2
65	68	2
145	145	1
35	35	2
53	53	5
8	9	2
24	29	1
70	70	2
80	81	2
44	44	2
87	87	1
38	38	3
9	67	1
120	120	1
25	26	2
19	19	5
38	39	1
133	134	1
4	5	1
110	110	1
150	150	3
96	98	2
80	80	4
124	125	1
69	69	2
68	68	4
29	29	2
124	135	1
8	8	6
141	142	2
144	145	2
56	58	1
64	67	1
122	122	1
149	149	3
146	146	3
13	13	1
131	131	2
76	77	1
54	129	1
33	39	1
103	106	1
134	134	3
66	66	1
79	80	1
4	4	4
80	117	2
76	80	1
136	136	1
45	45	3
128	128	2
123	141	1
50	50	1
111	136	1
28	87	2
13	16	1
39	40	2
99	117	1
20	21	2
32	36	1
46	48	1
21	22	1
93	93	1
37	73	1
31	37	1
9	9	5
5	5	2
25	25	1
46	46	2
63	63	2
65	67	1
105	105	1
96	96	1
12	12	2
75	76	1
71	71	3
2	7	1
54	54	5
54	56	1
77	78	1
73	102	1
64	64	3
112	136	1
152	152	4
21	21	1
143	143	2
26	27	1
90	90	1
27	27	3
12	13	3
72	74	1
111	111	1
107	107	1
37	37	2
31	31	1
8	27	1
49	49	1
11	30	1
151	151	4
150	151	1
133	135	2
139	139	1
132	133	1
42	43	1
101	101	2
43	70	2
23	23	2
37	38	1
71	73	1
34	34	2
135	135	2
129	130	2
39	39	3
17	18	3
144	146	1
85	86	1
133	133	2
58	58	3
16	18	1
70	131	1
82	82	1
123	130	1
28	29	1
77	77	1
103	105	1
12	15	1
66	67	1
154	154	1
79	130	1
121	136	1
16	17	1
40	41	4
64	70	1
72	72	2
81	81	1
139	145	1
80	82	1
11	11	1
52	52	1
131	135	1
113	113	4
115	115	3
55	55	2
82	83	1
22	25	1
13	15	1
75	80	1
84	84	1
23	28	1
109	109	1
48	48	1
26	32	1
131	149	1
147	147	1
107	117	1
142	142	1
56	63	1
121	121	1
95	97	1
71	108	1
71	72	1
40	40	2
126	126	1
50	51	1
121	122	1
98	98	1
57	57	2
4	7	1
107	109	1
136	138	1
79	79	1
98	99	1
124	127	1
98	105	1
116	117	1
150	152	1
28	28	1
14	15	1
148	148	1
30	30	1
104	104	1
22	23	1
130	132	1
84	85	1
131	136	1
