138	138	4
47	47	4
12	12	4
35	35	3
15	15	6
118	118	4
139	139	5
121	128	3
62	62	1
14	14	4
112	150	2
13	13	4
102	104	3
98	98	3
149	167	1
146	146	3
122	122	2
122	126	3
153	153	3
14	15	5
106	107	3
106	106	2
20	21	1
55	55	1
88	89	2
99	99	3
17	17	4
11	11	5
107	107	2
105	105	2
51	51	4
53	54	3
144	146	1
75	75	1
130	130	4
36	36	4
56	56	1
50	51	2
37	37	2
19	19	2
84	84	3
37	105	1
119	119	5
92	93	1
23	24	1
7	19	1
39	39	6
16	16	2
22	22	3
53	53	1
43	43	3
6	6	4
147	153	1
13	20	2
137	137	3
16	50	1
27	27	7
39	137	1
151	151	1
153	154	2
3	3	2
21	21	2
96	96	2
88	119	1
51	52	1
22	23	3
10	137	1
112	112	2
97	98	1
147	147	3
101	104	2
80	80	1
42	42	6
94	95	1
20	20	3
38	39	2
34	34	1
121	121	2
134	134	2
143	143	5
23	23	3
139	140	1
39	40	1
86	86	2
84	97	1
5	7	1
136	136	1
90	90	6
78	93	1
152	152	1
25	25	3
74	105	1
2	40	1
116	116	2
68	100	1
45	45	2
82	83	1
97	97	6
69	70	1
65	65	2
68	68	4
24	24	2
89	150	1
3	111	1
18	18	2
8	8	3
33	33	1
163	163	4
135	136	1
112	123	1
113	113	2
92	92	2
148	148	2
94	96	1
40	41	2
132	132	2
41	41	1
161	166	1
164	166	1
11	144	1
68	70	1
162	162	2
135	135	3
110	110	1
79	79	1
73	73	1
141	142	1
164	164	2
25	26	1
3	12	1
136	139	1
149	149	4
11	16	1
155	155	1
86	91	1
136	165	1
159	159	2
123	124	2
131	131	2
55	56	1
109	109	1
7	8	4
104	105	1
161	161	3
57	83	2
18	19	2
0	0	2
140	140	3
168	168	2
50	50	1
144	144	4
26	26	3
152	153	3
147	148	1
69	115	1
150	150	4
3	147	1
112	113	1
28	28	1
133	133	2
113	114	2
170	170	1
20	43	1
87	87	2
49	49	1
111	112	2
47	62	2
26	88	1
7	27	1
154	154	3
2	2	2
100	104	1
21	25	1
82	82	2
121	122	1
45	74	1
145	145	2
74	74	5
5	5	2
72	72	2
140	141	1
52	52	2
52	53	1
11	143	1
10	11	1
138	140	1
160	160	2
83	100	1
56	64	1
141	141	1
125	125	1
65	71	1
15	90	1
4	4	1
158	158	2
124	124	2
96	98	1
5	6	2
128	129	2
147	152	1
38	38	2
43	168	1
90	108	1
95	95	1
1	2	1
147	149	1
100	100	1
21	24	1
113	115	1
156	156	3
3	5	3
64	64	1
107	108	1
0	4	1
153	156	1
44	44	2
63	63	1
167	167	1
157	158	1
7	7	1
117	122	1
38	41	1
143	144	1
120	120	1
76	79	1
76	76	1
164	165	1
3	11	1
4	5	1
83	83	1
69	69	1
103	103	2
21	22	1
33	34	1
15	16	2
169	169	1
115	117	1
6	51	1
136	140	1
10	10	1
13	123	1
84	138	1
148	150	2
1	149	1
156	169	1
70	71	1
105	106	1
111	111	1
54	54	1
117	117	1
47	49	1
34	36	1
102	102	1
9	10	1
85	86	1
143	167	1
78	78	1
