14	15	2
54	55	1
64	105	1
57	72	2
16	17	2
36	181	1
134	178	3
97	98	1
0	0	2
6	6	2
8	8	2
33	33	1
136	138	1
5	6	4
58	62	1
138	138	2
27	72	1
97	114	2
44	44	2
86	86	2
155	159	2
122	122	4
48	48	1
34	34	2
174	174	2
92	92	2
41	100	1
157	158	2
127	127	2
188	188	1
65	106	1
40	40	4
38	38	5
185	185	3
77	110	2
130	130	3
25	25	1
60	65	1
145	145	3
175	176	1
137	138	1
124	126	2
142	142	2
118	118	4
141	177	1
127	135	2
177	177	2
74	78	1
147	147	3
165	168	1
99	99	3
88	88	3
21	21	4
115	117	2
30	30	1
172	172	1
156	176	1
149	150	1
27	27	2
107	107	1
82	82	1
140	152	1
29	29	2
58	58	1
64	64	1
178	179	5
119	119	1
36	85	2
136	137	3
185	186	1
40	41	2
139	175	2
180	182	2
46	46	2
64	65	2
181	181	2
66	67	3
77	77	2
120	122	1
41	88	1
27	28	2
90	92	1
138	139	1
114	115	2
108	108	1
164	165	1
2	2	1
53	53	6
183	183	1
71	71	1
89	89	1
10	11	1
132	137	1
57	57	2
115	115	3
11	47	1
141	141	3
151	169	1
87	130	1
147	172	1
95	95	1
5	5	3
65	65	2
25	41	1
45	76	1
22	23	1
54	54	2
55	56	1
189	189	2
71	96	2
167	167	2
179	182	1
74	74	1
112	112	1
52	53	2
71	72	1
165	165	2
11	12	1
80	80	2
7	8	1
126	127	1
71	73	1
28	31	1
34	35	1
110	110	1
158	184	1
122	123	2
154	159	2
3	3	4
67	67	2
15	15	2
182	182	1
187	189	1
149	149	2
136	136	3
86	87	2
171	173	1
129	129	1
28	28	1
104	166	1
72	72	1
29	30	3
96	96	1
178	183	1
21	37	1
135	135	1
19	19	1
11	11	3
38	57	1
184	184	1
74	75	2
140	140	2
70	70	1
141	174	1
80	81	1
110	127	1
53	55	1
146	146	1
74	123	1
1	1	1
129	130	2
115	188	1
21	22	1
143	143	1
121	121	1
128	128	3
6	184	1
79	80	2
157	157	1
178	178	2
41	41	1
88	89	1
102	102	2
4	4	2
24	25	1
156	156	1
132	136	1
87	87	1
151	151	1
79	79	1
7	7	1
154	154	2
103	124	1
141	145	1
142	143	1
36	36	3
116	118	1
103	104	1
159	160	1
22	24	1
126	126	1
186	187	1
111	111	1
109	109	1
179	180	1
68	95	1
20	22	1
10	10	1
132	138	1
83	83	1
138	176	2
131	133	1
141	152	2
68	74	1
128	129	1
167	169	1
78	78	1
125	125	1
73	74	1
53	93	1
109	111	1
131	132	1
114	114	1
139	139	1
146	147	1
56	56	1
152	152	1
