6	18	2
108	109	4
11	11	19
31	32	1
133	133	4
55	55	4
134	134	14
63	63	7
75	75	17
28	31	1
90	90	5
33	33	5
128	128	2
124	124	11
126	126	19
44	45	2
73	73	8
3	3	4
31	31	3
32	32	8
71	71	7
18	18	9
97	101	1
84	84	5
115	123	3
93	93	13
131	132	3
78	78	3
90	91	2
89	100	1
27	27	9
6	112	1
31	44	1
21	29	1
113	113	9
114	114	5
36	36	6
121	121	3
77	82	1
9	10	5
117	117	6
68	68	8
66	66	13
56	56	3
83	104	1
82	82	6
64	64	10
74	74	9
65	65	11
44	44	9
20	20	11
86	116	1
22	51	1
0	0	3
20	21	1
111	111	16
94	114	2
120	120	8
105	106	4
62	62	10
4	4	3
39	42	1
19	19	9
42	43	4
77	77	11
3	5	1
119	119	9
40	41	2
72	72	10
47	47	11
99	100	3
38	39	1
9	9	7
59	60	2
58	58	9
82	108	3
5	5	4
123	128	1
43	43	2
46	47	2
109	130	1
12	12	8
109	110	4
22	25	1
106	127	2
17	17	8
55	56	1
72	73	1
119	124	1
102	102	3
124	125	5
34	34	5
32	33	1
69	69	5
21	21	7
20	31	2
129	129	5
39	39	3
71	72	3
118	118	9
76	76	7
81	91	2
96	100	1
106	106	7
30	30	1
41	42	1
2	2	7
10	10	9
112	112	8
13	15	1
81	82	3
57	57	6
115	115	7
45	45	12
81	81	6
13	13	2
87	87	6
123	126	1
7	8	3
95	95	3
76	77	2
26	26	2
94	95	3
79	80	1
51	55	2
17	34	1
91	91	2
14	14	6
120	126	1
61	61	10
116	116	3
118	119	1
78	124	1
126	128	1
119	120	1
69	70	2
107	107	2
75	76	3
2	45	1
6	6	9
70	71	2
77	80	1
8	8	5
68	69	5
92	92	3
79	81	1
125	125	7
126	129	4
105	105	4
123	123	3
100	100	6
125	126	6
34	35	1
42	42	3
119	123	2
24	24	2
12	13	2
1	1	3
80	131	1
32	58	1
15	15	14
67	67	4
87	88	2
101	101	6
66	67	2
126	134	1
11	32	1
37	37	4
15	73	1
85	92	1
22	23	1
46	46	12
85	85	6
41	41	6
23	26	2
91	92	3
29	30	3
31	38	1
89	89	2
37	38	4
97	97	4
35	35	4
7	7	6
4	5	2
130	130	5
97	98	3
131	133	2
80	96	1
32	36	1
74	75	1
74	125	1
86	86	4
19	20	4
38	38	2
8	9	1
46	93	1
5	43	1
10	63	2
75	95	1
87	116	1
96	96	7
2	3	1
4	33	1
25	55	1
93	134	1
16	16	6
1	2	1
79	79	4
45	46	1
62	63	2
94	103	1
112	116	1
71	118	2
94	94	12
109	109	2
132	132	4
34	36	1
22	22	5
77	94	1
16	20	2
114	115	3
34	117	1
117	120	1
31	110	1
49	58	1
89	90	1
77	78	1
94	97	1
122	122	3
20	29	1
51	54	1
104	105	3
102	103	2
99	99	3
4	6	1
14	15	2
109	111	1
59	59	10
23	24	1
29	31	1
121	122	3
96	128	2
83	127	2
102	123	1
11	12	1
9	22	1
80	80	2
57	94	1
130	133	1
13	14	2
117	123	1
43	44	2
120	134	1
103	103	3
133	134	1
98	98	2
48	59	1
96	97	2
126	132	2
100	101	2
41	58	1
19	47	1
28	28	1
108	108	6
76	111	1
89	91	1
0	68	1
114	116	1
0	1	1
13	77	1
24	39	1
51	51	1
14	16	1
25	26	1
83	84	2
70	70	6
60	60	4
87	91	1
15	16	4
83	83	5
102	130	2
104	109	1
123	124	1
33	34	2
65	66	1
55	79	1
96	98	1
7	110	2
40	43	1
79	96	1
101	128	1
36	39	1
54	121	1
127	129	1
108	134	1
107	134	2
63	64	1
18	47	2
54	54	1
8	18	1
98	99	1
46	94	1
113	114	1
42	58	1
27	28	1
95	96	1
80	81	2
110	134	1
21	23	1
84	85	1
25	25	2
96	120	1
27	92	1
56	57	1
3	4	2
30	31	2
78	79	1
114	117	1
36	37	1
19	35	1
43	57	1
129	132	1
86	87	1
95	111	1
28	29	1
96	102	1
14	17	1
46	69	1
90	102	1
127	127	2
85	101	1
75	77	1
61	62	1
113	129	1
5	6	1
27	29	2
104	104	2
85	86	2
74	76	1
112	115	1
9	12	1
32	45	2
40	40	1
118	124	1
126	131	1
131	131	2
101	112	1
1	70	1
10	117	1
126	127	1
14	18	1
41	43	1
66	71	1
10	12	1
111	129	1
90	92	1
78	82	1
20	57	1
73	74	1
125	129	1
106	132	1
64	65	1
12	14	1
19	33	1
17	45	1
30	82	1
110	110	1
8	130	1
0	61	1
76	120	1
7	22	1
95	124	1
73	77	1
