11	11	9
7	7	5
32	33	1
129	130	2
25	25	3
13	15	2
159	181	1
50	50	2
180	180	8
157	158	1
162	163	1
79	79	2
26	26	6
105	106	2
160	169	1
14	15	1
128	130	2
138	138	6
173	176	1
176	177	4
12	12	6
135	135	3
14	14	8
48	48	5
37	38	3
112	112	3
140	140	6
25	26	5
82	83	1
43	44	5
126	126	4
41	41	4
47	48	2
102	109	1
109	110	1
98	99	1
15	15	7
5	5	4
40	40	6
99	99	5
54	56	1
184	184	5
0	21	2
175	175	3
94	144	1
157	157	7
181	181	4
195	195	1
86	86	2
181	182	1
68	137	1
155	155	5
4	31	1
193	193	6
75	75	3
94	94	5
49	49	3
9	110	3
1	19	1
5	8	2
45	46	4
59	59	5
124	124	4
148	148	2
150	150	2
29	31	2
29	30	4
178	178	3
129	129	3
31	99	2
127	127	2
101	102	1
3	3	6
9	9	9
27	27	5
38	38	6
88	88	3
93	94	2
57	57	1
100	100	2
13	13	3
52	119	1
45	45	9
54	57	1
73	79	1
28	28	2
8	26	1
116	145	1
16	16	1
23	23	7
30	30	7
170	170	5
5	7	1
53	54	1
20	20	3
44	45	1
168	168	2
108	110	1
185	186	2
39	43	1
10	10	10
5	6	3
189	190	2
21	21	4
115	115	1
24	24	3
173	173	2
176	182	1
149	149	4
190	192	1
0	0	3
169	178	1
63	64	3
35	35	4
162	162	2
179	181	1
160	160	9
40	43	1
3	23	1
37	37	4
167	191	1
19	21	1
72	72	4
132	132	6
8	54	1
17	18	3
156	172	1
175	191	1
16	17	1
18	18	3
177	177	2
152	193	1
170	171	1
104	106	1
148	179	1
140	171	1
18	21	1
46	46	6
36	36	5
114	114	4
109	109	1
194	194	5
61	66	1
165	168	1
55	56	1
171	171	5
163	163	1
83	83	1
1	2	3
24	28	1
137	137	3
34	34	3
8	8	6
168	169	1
54	54	3
185	185	1
28	83	1
142	196	2
27	30	2
119	119	2
60	60	3
134	145	1
170	194	2
20	25	1
1	1	2
6	153	1
116	117	2
56	56	1
122	130	1
187	187	3
84	84	2
188	189	1
183	184	1
0	29	1
58	58	2
99	100	2
22	24	1
149	150	1
78	80	1
31	31	5
11	139	1
39	40	3
26	28	2
52	52	5
16	18	2
118	118	4
122	122	3
46	138	1
80	80	2
152	152	1
30	31	2
108	111	2
53	53	2
67	101	2
9	13	2
133	133	2
58	59	1
41	42	1
78	81	1
2	2	3
51	51	1
94	108	1
76	79	2
106	111	1
107	108	1
73	73	1
13	43	1
131	196	1
143	143	2
33	33	2
182	182	6
40	41	1
103	103	1
145	145	1
144	144	2
128	191	1
172	193	2
183	196	2
123	155	1
9	10	2
24	101	2
61	63	2
29	29	2
115	150	1
149	154	1
4	23	1
0	3	1
55	55	1
37	39	2
102	103	1
108	108	1
96	96	4
39	73	1
36	37	2
4	17	2
55	59	2
87	87	2
77	86	1
148	182	1
22	34	1
43	43	5
39	44	2
132	133	1
170	172	1
113	125	1
112	116	1
47	47	2
168	177	1
97	102	1
151	151	2
28	37	2
172	172	3
186	186	4
192	192	3
162	175	1
15	16	2
153	153	1
20	34	1
39	62	1
99	115	1
55	68	2
141	141	3
49	50	2
96	98	2
188	188	1
139	139	2
6	6	4
128	128	3
176	176	3
121	121	4
4	4	4
0	23	1
89	90	2
143	145	1
59	60	1
42	42	5
6	7	1
184	190	1
111	111	2
2	19	1
76	76	2
100	114	1
95	98	1
137	138	1
123	123	1
107	146	1
64	64	1
196	196	2
44	44	2
62	79	1
158	159	2
171	172	1
164	164	1
24	34	1
197	197	2
21	29	1
179	182	1
48	57	1
169	169	4
106	120	1
190	190	7
110	110	1
39	157	1
44	69	1
134	134	2
69	69	1
102	135	1
19	19	2
184	185	1
38	72	1
34	35	3
93	107	1
38	39	1
42	43	1
134	135	1
104	104	1
157	163	1
145	194	1
3	7	1
184	186	1
95	97	1
113	118	1
187	188	1
159	159	2
95	95	2
35	37	1
39	39	3
99	110	1
107	115	1
74	74	1
46	47	1
136	136	2
96	97	1
174	174	2
160	161	1
141	150	1
117	168	1
154	164	1
23	24	1
138	172	1
12	57	1
70	70	3
189	189	3
32	45	1
83	84	1
7	8	2
24	58	2
81	81	2
62	65	1
17	17	1
4	11	1
196	197	1
22	23	1
151	152	1
192	193	1
173	178	1
65	65	1
179	179	2
82	85	1
144	145	2
28	29	1
77	78	1
84	88	1
68	125	1
13	14	1
1	3	1
71	71	1
158	158	1
12	13	1
122	132	1
156	156	3
142	186	1
115	118	1
136	137	1
39	42	1
130	130	5
97	119	1
161	165	1
21	23	1
22	22	5
130	141	1
21	22	1
155	156	2
142	143	1
178	192	1
132	154	1
9	38	1
37	41	1
22	190	1
3	30	1
62	64	2
113	135	1
78	78	1
49	69	1
32	32	2
107	107	1
113	113	3
20	21	1
121	122	1
98	98	1
67	67	2
186	187	1
14	56	1
183	183	3
26	43	1
156	157	1
142	160	1
117	117	3
63	63	1
172	187	1
10	15	1
9	71	1
167	169	1
141	142	1
4	38	1
174	178	2
180	192	1
124	125	1
102	102	1
68	68	1
143	151	1
33	69	1
60	61	1
138	142	1
105	105	1
147	174	1
84	85	2
61	87	1
138	154	1
114	116	1
31	46	1
143	172	1
164	165	1
138	141	1
36	48	1
15	42	1
183	185	1
27	28	2
25	35	1
65	112	1
160	164	1
121	155	1
146	157	1
34	36	1
62	87	1
59	63	1
150	160	1
35	36	1
172	174	1
70	73	1
125	126	1
26	27	1
123	124	1
150	186	1
53	66	1
