144	154	1
26	190	3
139	139	1
134	134	1
153	154	1
75	75	2
223	225	1
77	77	2
242	242	3
1	4	1
120	120	1
123	123	1
103	105	1
189	189	1
149	150	1
232	232	3
171	171	2
224	225	3
233	233	1
61	61	2
0	0	3
238	238	1
235	235	2
70	70	2
16	23	1
136	179	3
4	4	1
45	139	3
150	150	4
29	30	3
219	220	1
169	170	1
12	54	2
173	220	1
170	170	3
62	62	3
9	9	3
71	114	1
40	40	4
186	186	2
152	153	2
17	24	1
229	229	2
110	119	1
10	15	2
113	113	4
179	179	4
104	104	1
12	12	3
106	148	1
121	135	1
105	148	1
42	42	1
124	156	2
21	21	4
99	111	1
25	25	1
155	155	2
54	54	3
143	156	1
194	194	3
8	16	1
91	91	2
146	146	3
39	60	1
21	22	1
209	211	1
34	34	2
149	149	3
10	10	4
24	31	1
8	8	1
184	211	2
223	227	1
1	15	2
185	186	3
26	26	2
52	52	4
124	124	1
207	208	1
210	211	3
106	164	1
83	83	3
32	32	2
183	183	1
61	70	1
211	211	4
51	52	1
228	229	3
165	168	1
80	80	3
166	168	1
172	172	2
173	173	2
64	64	4
98	98	1
111	112	2
38	41	2
95	95	2
95	119	1
184	184	1
143	143	3
69	69	1
164	165	1
236	236	1
153	153	2
18	19	1
239	241	1
50	51	1
199	199	1
86	86	3
122	122	2
43	43	1
222	222	5
110	110	1
66	66	1
144	146	1
26	27	1
31	31	2
28	28	2
177	178	1
147	147	3
98	101	2
141	141	2
167	186	1
36	36	3
145	147	1
146	147	1
3	171	1
120	121	1
48	53	1
158	223	1
180	181	1
173	177	2
200	202	1
121	130	1
198	201	1
66	68	1
15	15	2
114	120	1
212	221	1
152	157	1
76	82	1
158	158	1
24	231	1
149	162	1
225	226	1
33	33	2
19	229	1
18	165	1
48	64	1
35	35	1
170	171	2
50	50	1
221	222	1
122	123	1
154	154	2
85	86	1
125	126	1
10	11	1
22	227	1
221	221	1
132	132	2
192	192	1
137	137	2
105	105	2
152	152	2
58	59	1
166	166	2
102	102	1
101	102	2
120	130	1
113	171	1
11	20	1
48	74	2
193	195	2
72	72	2
27	202	1
67	76	1
29	121	1
5	5	1
27	173	1
108	108	2
24	25	2
41	41	1
109	121	1
124	128	1
174	174	1
182	199	1
11	11	1
59	59	1
117	117	3
114	115	1
213	214	1
223	226	1
241	241	1
232	233	2
171	174	1
139	143	1
16	16	1
46	46	3
155	163	1
142	146	1
136	155	1
168	168	1
200	200	1
49	50	2
97	97	1
16	19	1
157	157	2
34	35	1
215	215	1
113	118	1
111	111	1
27	61	1
58	58	2
165	166	1
140	140	1
19	19	2
65	68	1
163	166	1
24	24	2
1	238	1
71	71	1
1	1	1
2	2	1
182	182	2
186	187	1
148	148	1
20	31	1
210	213	3
84	84	1
13	13	1
47	47	1
3	3	2
81	81	1
188	189	1
67	68	1
234	234	1
206	224	1
206	207	1
100	177	1
96	96	1
183	189	1
127	135	1
89	127	1
164	166	1
113	131	1
179	180	1
112	122	1
162	164	1
157	159	1
199	210	1
55	55	1
85	85	1
2	3	1
175	175	1
142	142	1
99	101	1
154	155	2
176	235	1
71	99	1
42	44	1
181	182	1
203	203	2
135	135	1
161	162	1
15	36	1
105	166	1
30	100	1
150	153	1
20	20	1
33	106	1
0	187	1
42	55	1
107	107	1
28	74	1
17	20	1
106	108	1
157	158	1
103	103	1
109	109	1
13	19	1
47	48	1
42	70	1
4	5	2
69	85	1
80	84	1
96	97	1
159	159	1
83	85	1
177	177	2
144	144	1
17	18	1
108	115	1
166	167	1
35	36	1
122	134	1
22	22	1
214	215	1
221	225	1
126	126	1
123	124	1
67	67	1
