106	106	2
117	117	4
116	118	1
154	157	2
90	90	1
38	45	1
49	50	2
107	107	3
57	57	6
170	170	5
8	8	3
148	149	2
61	62	1
171	172	1
2	4	4
103	103	3
125	126	1
129	130	3
145	156	1
73	74	2
161	161	3
177	178	1
156	157	3
77	95	1
10	31	1
139	139	5
168	169	2
118	126	2
10	11	1
140	140	10
132	132	3
53	134	1
178	178	2
54	54	4
113	113	5
101	101	2
171	171	4
65	65	3
23	23	4
122	122	4
149	149	7
9	9	6
178	179	3
33	33	5
41	42	1
19	20	2
135	135	6
87	88	2
147	164	1
74	74	5
103	105	2
3	3	4
65	68	1
27	61	1
57	58	2
90	94	1
5	11	1
3	4	2
134	134	6
144	144	2
133	134	3
98	101	2
117	124	1
136	137	1
28	28	6
145	145	4
2	3	2
8	9	4
100	100	2
62	62	2
14	14	5
123	155	1
56	56	4
148	171	1
18	18	5
78	180	1
40	40	6
89	90	1
31	42	1
137	137	3
2	30	1
29	30	1
164	165	1
10	95	1
150	160	1
27	28	4
113	116	1
117	123	1
175	175	2
97	97	5
128	128	7
125	136	2
176	176	9
15	15	2
4	4	6
16	16	3
147	154	4
98	135	2
123	123	2
83	84	2
155	155	3
176	177	1
9	10	1
25	29	1
39	40	2
71	71	3
30	30	2
125	125	3
126	127	1
84	89	1
18	21	1
147	147	1
172	173	4
68	68	1
157	157	5
42	42	5
60	135	2
118	118	5
34	36	1
173	173	5
173	174	2
125	140	1
89	89	4
172	172	1
146	146	4
107	114	2
157	162	1
109	109	1
126	144	1
75	75	6
158	167	2
154	167	1
61	95	1
13	57	2
12	32	1
111	112	1
52	54	1
19	19	3
5	18	1
155	156	2
142	142	2
107	108	2
130	153	2
31	35	1
32	32	5
59	86	1
169	169	2
85	85	3
53	54	1
84	84	2
7	8	1
141	141	5
55	55	2
86	112	1
34	35	2
70	140	1
5	6	2
17	56	2
98	99	2
115	115	3
88	105	1
17	38	3
43	44	1
78	78	4
127	127	4
130	130	2
160	160	2
177	177	2
19	67	1
21	26	1
112	112	2
12	12	4
38	52	1
179	179	3
1	1	8
124	124	1
114	131	1
60	60	4
44	73	1
81	81	7
97	98	2
150	150	1
138	138	5
119	119	2
111	111	5
82	87	1
112	113	1
86	86	7
153	153	3
17	17	2
151	151	3
105	113	1
148	148	6
133	133	1
18	19	3
19	41	1
110	110	2
4	30	1
61	61	3
83	83	3
20	22	1
10	10	5
135	136	2
163	163	1
93	93	3
156	156	2
53	81	1
169	170	2
92	100	1
72	73	2
138	145	1
73	159	1
163	165	2
37	37	7
128	140	1
16	51	1
36	36	4
175	177	1
76	77	3
67	67	1
4	17	1
7	7	5
167	170	1
102	104	2
26	27	3
134	141	1
54	55	2
26	26	2
17	35	1
116	117	2
154	154	3
121	132	1
5	5	4
23	27	3
96	177	2
22	22	2
138	172	2
156	163	1
102	102	1
2	2	3
35	35	2
158	169	1
78	79	1
52	76	1
108	109	2
125	128	2
81	108	1
86	89	1
31	31	3
153	176	1
6	6	4
56	73	1
14	15	1
108	108	2
33	45	1
50	51	1
126	126	1
79	80	2
50	50	2
165	166	1
158	158	3
151	152	1
161	162	1
105	105	5
34	34	5
43	56	1
77	77	6
83	86	1
57	86	1
122	126	2
13	40	1
117	120	1
168	168	3
129	163	1
123	125	2
2	13	1
165	165	1
125	152	2
120	120	5
76	176	1
41	41	2
129	129	3
132	137	1
32	104	1
40	41	1
180	180	2
32	33	3
103	150	1
95	95	4
11	41	2
52	52	1
73	73	1
38	42	1
23	31	1
0	0	5
146	155	1
157	158	1
162	167	1
138	139	2
117	118	1
60	89	1
139	140	1
99	100	1
87	87	1
28	31	1
43	43	5
44	44	2
5	10	1
130	157	1
102	109	2
149	176	1
85	86	3
94	94	1
39	39	3
91	92	4
113	153	1
174	174	2
52	65	1
163	171	2
159	171	1
92	92	4
123	136	1
27	27	2
53	53	2
59	61	1
64	64	2
103	107	1
123	124	1
154	156	1
12	16	1
32	82	1
167	167	2
119	120	2
11	11	1
122	132	1
82	82	3
38	38	1
58	58	1
123	130	2
179	180	1
96	96	2
142	148	1
44	45	1
81	88	1
1	2	1
85	91	1
98	129	2
122	137	1
82	159	1
111	113	1
160	161	1
25	26	1
61	65	1
95	137	1
103	106	1
146	153	1
151	154	1
89	96	1
82	108	1
114	114	3
133	137	2
17	18	1
80	80	1
159	159	1
51	51	2
127	129	1
122	129	1
14	159	1
25	25	2
88	138	1
135	142	1
100	101	2
0	1	2
71	72	1
76	86	1
12	13	2
15	16	1
88	89	1
162	162	1
25	32	1
35	57	1
103	114	1
77	79	1
89	95	1
77	150	1
68	104	1
45	45	1
130	131	2
24	24	1
116	116	1
65	66	1
102	114	1
121	121	1
67	68	1
55	56	1
32	44	1
72	72	2
9	14	1
104	105	1
75	76	1
36	38	1
13	20	1
141	142	1
152	153	1
149	150	1
21	21	1
172	176	1
89	94	1
36	37	1
66	66	4
142	145	1
105	107	1
116	123	1
131	132	2
76	117	1
4	15	1
83	107	1
29	46	1
166	166	1
175	176	1
95	121	1
13	13	1
79	79	1
84	86	1
131	131	1
154	155	1
91	93	1
128	152	1
71	139	1
107	124	1
157	159	1
53	75	1
83	85	1
138	149	1
8	31	1
43	87	1
24	25	1
97	100	1
59	59	1
164	166	1
86	96	1
89	105	1
90	92	1
31	32	1
80	81	1
90	95	1
41	55	1
112	174	1
76	76	2
2	6	1
19	23	1
166	170	1
121	124	1
146	147	1
25	39	1
126	130	1
140	142	1
143	143	1
61	98	1
111	114	1
132	136	1
