19	19	3
62	62	7
75	75	3
34	60	1
82	82	6
23	24	3
87	87	10
60	60	3
74	75	3
22	22	7
63	63	4
77	77	12
66	67	4
67	68	4
68	68	4
84	84	9
21	24	3
20	20	6
49	49	7
24	24	6
78	80	5
59	59	10
84	85	3
58	58	3
85	85	3
13	13	7
58	86	1
8	9	1
8	8	6
23	23	11
3	16	1
31	31	3
34	35	2
26	27	3
50	56	1
69	70	2
5	9	2
54	54	4
14	16	2
59	61	2
69	84	1
79	79	6
29	29	3
77	78	2
66	83	2
17	17	7
13	25	1
72	74	2
2	2	3
54	61	2
14	19	2
87	88	2
61	61	3
56	56	3
4	4	4
59	64	2
15	15	4
12	12	3
57	57	11
64	64	5
52	52	4
74	74	1
83	83	3
7	7	3
17	21	1
48	48	4
52	55	1
46	46	4
3	28	1
26	26	7
5	6	2
55	55	4
62	63	1
67	67	7
53	63	1
23	25	1
78	78	6
64	65	2
5	12	2
71	71	4
28	29	1
14	14	5
74	77	1
89	89	2
46	48	2
11	12	2
75	76	1
75	86	2
47	50	1
46	80	1
55	56	1
10	11	1
88	90	1
6	11	1
60	61	2
9	9	5
5	5	4
78	79	3
58	62	1
81	81	4
56	57	2
54	55	3
22	24	1
28	28	3
88	88	9
81	85	1
69	71	1
25	27	2
80	80	9
22	26	2
27	27	2
82	83	5
53	56	3
11	11	8
73	78	2
16	16	2
53	54	2
54	84	2
86	87	5
6	26	1
3	5	2
63	64	4
81	84	2
47	52	1
70	71	2
8	86	1
14	25	1
47	47	2
51	51	5
10	10	5
59	60	1
24	26	2
3	4	1
0	1	1
8	17	2
4	33	1
23	87	1
55	68	2
50	54	2
25	26	2
85	86	2
6	6	2
30	30	5
3	3	1
69	69	5
20	21	3
86	86	3
35	65	1
73	73	8
20	68	1
33	33	1
68	72	1
50	51	3
6	8	1
79	80	3
65	66	3
76	76	3
58	66	1
26	57	1
33	49	1
72	79	1
34	47	2
15	16	3
9	13	1
31	71	1
22	23	2
12	14	3
53	53	2
34	34	4
33	48	1
10	12	1
88	89	4
48	81	1
83	84	1
7	18	1
51	52	2
71	72	1
61	80	1
51	62	2
48	55	1
22	90	1
71	74	1
14	15	1
58	88	1
13	19	1
52	65	1
0	0	2
9	10	1
62	65	2
72	72	5
61	65	1
69	72	1
63	67	1
13	22	1
1	1	1
21	23	2
13	47	1
32	51	1
66	66	4
61	62	1
65	65	3
9	80	1
50	50	5
24	49	2
54	67	1
62	76	1
54	56	1
22	68	1
68	69	3
57	85	1
75	78	1
48	49	2
18	24	1
32	32	1
29	30	2
68	71	1
80	82	1
46	47	2
60	73	1
46	84	1
46	67	1
70	70	1
24	25	1
13	14	1
31	69	1
32	74	1
16	17	1
80	83	1
26	48	1
32	57	1
4	15	1
58	63	1
49	50	1
72	73	2
22	85	1
57	66	1
63	66	1
18	18	1
23	68	1
75	77	1
65	68	1
0	2	1
1	4	1
5	25	1
53	81	1
30	31	1
24	27	1
84	87	1
73	74	1
60	63	1
27	28	1
