80	80	2
28	28	2
33	36	1
115	115	2
126	128	1
135	135	1
6	7	1
57	57	3
37	38	2
98	114	1
111	120	2
148	148	4
16	16	2
38	40	1
3	3	1
14	14	2
84	84	2
37	37	3
131	131	4
111	111	2
18	18	2
74	76	1
29	29	2
22	26	2
64	65	2
125	125	1
73	74	1
133	135	1
22	22	1
101	101	1
75	76	3
118	122	2
92	93	1
67	67	2
46	47	1
139	139	2
101	109	2
121	121	7
19	20	1
55	55	3
133	133	4
89	89	3
78	78	2
65	79	2
38	38	5
45	70	1
2	2	1
77	124	1
32	32	1
21	22	1
84	85	1
95	95	1
145	145	1
106	106	2
118	119	1
73	73	1
49	49	2
128	129	4
137	140	1
122	123	2
45	45	4
74	96	1
96	96	1
104	105	1
14	63	1
41	57	2
17	43	1
8	9	1
6	6	1
20	99	1
27	27	4
72	74	1
69	70	1
75	75	3
121	122	1
77	86	2
151	151	1
109	109	2
34	34	2
117	129	1
26	26	1
13	16	2
42	43	2
112	112	5
26	65	1
97	97	1
63	63	1
10	10	3
7	7	1
46	46	1
106	113	1
97	99	1
152	152	3
85	123	1
52	53	1
33	33	1
78	79	1
73	75	2
70	71	1
76	118	2
103	104	1
31	32	1
9	9	7
5	124	2
83	119	1
68	68	2
154	154	1
114	114	4
19	19	1
153	153	1
17	41	1
94	94	2
24	138	1
23	23	1
81	83	1
48	48	2
11	11	2
122	124	1
4	5	3
144	144	1
115	117	1
72	73	1
31	31	1
132	132	2
85	128	1
20	20	2
50	50	2
17	17	1
124	124	3
39	40	1
120	121	1
122	122	1
140	140	2
82	83	1
5	6	1
95	96	2
104	104	2
135	136	1
96	97	2
135	138	1
82	102	1
21	23	1
120	120	2
34	37	1
3	7	1
11	62	1
66	66	1
85	86	2
20	117	1
86	86	1
43	43	1
99	99	1
113	125	2
30	31	1
34	35	1
124	128	1
80	81	1
108	108	1
88	88	1
35	35	1
149	149	1
102	103	1
64	64	3
58	58	1
119	119	1
130	130	1
12	13	1
120	122	1
21	21	2
13	13	1
83	86	1
56	57	1
4	4	1
134	134	2
105	114	2
79	82	1
125	127	1
77	77	1
54	54	1
127	128	1
26	30	1
100	100	1
71	71	1
139	140	1
50	51	1
106	107	1
107	107	1
