21	21	3
108	108	3
122	122	3
112	113	1
14	15	1
19	19	1
75	76	1
76	77	1
98	101	1
11	12	2
134	134	1
21	22	1
1	1	2
119	119	1
14	30	1
79	79	3
8	11	1
135	135	3
65	71	1
48	48	1
27	28	3
7	16	1
30	30	2
0	0	4
121	122	1
67	69	1
54	92	2
87	87	1
81	81	5
67	67	2
101	102	1
101	101	3
57	57	9
22	23	1
97	97	2
44	48	2
44	44	3
54	54	2
6	6	6
2	2	3
91	91	1
71	71	12
75	75	2
86	86	2
125	126	1
28	28	5
62	62	4
127	129	1
74	74	4
73	74	7
123	123	2
26	28	2
99	99	2
14	14	3
43	43	4
73	81	2
57	59	2
85	87	1
62	63	2
4	44	3
64	76	1
73	73	9
20	20	2
106	106	1
52	52	3
130	130	1
117	117	2
58	68	1
66	83	2
12	18	1
85	85	4
116	116	2
77	78	1
27	27	2
93	94	1
63	63	1
13	32	1
45	48	2
50	50	5
56	56	3
65	66	1
103	103	2
55	56	3
60	69	1
60	60	4
82	83	1
90	90	3
109	111	1
32	32	2
102	102	5
114	114	2
124	124	3
12	27	1
5	6	2
84	85	4
20	24	1
36	36	3
67	83	1
113	113	1
100	100	1
104	104	2
93	93	5
82	82	4
9	9	5
56	60	3
49	49	7
18	18	2
42	43	1
70	71	1
56	58	1
69	70	2
67	68	1
115	115	2
63	64	1
49	52	1
116	127	1
79	80	2
5	5	1
132	133	2
10	10	7
121	124	1
8	8	5
73	88	3
53	53	5
56	59	1
48	72	2
76	76	1
31	31	3
4	5	2
45	94	1
61	62	1
125	125	2
69	69	2
96	96	1
35	35	5
2	33	1
80	80	3
66	66	1
131	131	6
9	10	1
49	50	2
10	11	1
83	84	1
34	34	2
95	95	2
58	59	2
30	34	1
111	120	1
25	25	3
120	123	1
23	30	2
110	110	1
14	16	1
108	109	3
64	64	2
83	83	1
31	32	2
53	91	1
76	79	2
88	102	1
42	42	1
130	131	2
43	44	1
45	45	8
76	122	1
61	61	2
7	12	1
32	68	1
68	68	2
94	94	2
42	66	1
16	16	3
30	74	1
132	132	1
49	54	1
105	105	1
24	24	1
13	64	1
22	25	2
107	128	1
82	85	1
56	57	2
81	82	1
50	71	1
119	131	1
23	97	1
51	60	1
109	109	2
8	9	1
23	24	2
65	65	1
126	129	1
59	59	4
17	18	1
22	22	1
52	53	1
117	119	1
3	77	1
26	26	3
13	34	2
92	92	1
28	44	1
56	61	2
126	126	1
121	121	1
111	114	1
15	15	1
128	128	1
117	118	2
59	62	1
6	12	1
21	23	1
7	36	1
72	104	1
54	55	2
107	108	1
126	127	1
70	70	2
38	38	1
53	55	1
94	127	1
3	5	1
37	37	1
34	36	1
53	65	1
52	62	1
112	112	1
17	111	1
34	74	1
89	92	1
60	61	1
42	65	1
102	105	1
122	123	1
59	61	1
5	60	1
80	84	1
58	58	1
42	49	1
77	77	1
16	28	1
33	33	1
83	85	1
13	13	1
23	35	1
92	94	1
47	47	1
43	52	1
83	92	1
107	113	1
82	107	1
