85	85	4
41	41	3
88	103	1
65	66	1
33	33	1
49	49	2
45	45	3
107	109	1
11	17	1
121	121	2
29	29	4
106	106	3
19	20	1
118	118	1
19	19	4
131	133	2
12	14	1
59	59	2
38	38	2
28	28	2
22	30	1
56	56	2
44	65	1
17	17	1
31	32	2
119	119	3
83	99	1
129	129	4
75	75	2
14	15	1
73	100	1
2	4	1
93	94	2
109	109	2
115	115	1
16	16	1
116	116	4
48	122	1
118	119	3
27	28	4
82	100	1
97	129	1
70	125	1
17	58	1
114	114	2
29	30	1
54	54	3
57	69	1
127	128	1
83	86	2
94	95	2
63	65	1
126	129	1
1	2	1
102	103	5
15	16	1
23	28	1
25	31	1
110	110	5
133	133	1
39	40	1
34	34	4
70	70	1
100	102	1
33	62	3
117	119	2
73	73	2
79	81	1
60	87	1
114	118	2
126	126	2
74	74	2
6	49	1
97	98	1
63	64	1
26	26	3
128	131	1
71	71	2
131	131	3
51	52	1
63	87	1
91	91	1
8	10	2
2	5	1
101	101	1
20	21	2
16	18	1
46	46	3
57	57	2
51	51	1
15	15	6
92	92	1
96	96	2
30	32	1
114	116	1
62	64	1
66	68	1
23	43	1
67	92	1
64	64	2
77	78	1
42	43	2
130	130	4
117	117	1
98	98	1
50	50	1
115	118	1
43	43	1
104	104	2
52	52	1
105	116	1
42	50	2
11	11	5
78	110	1
76	92	2
5	5	1
38	39	3
114	115	1
11	12	1
23	25	1
80	80	4
112	113	1
49	56	1
58	59	1
132	132	2
24	24	1
48	48	2
87	87	2
17	21	1
67	70	1
42	42	2
18	25	1
40	40	1
53	53	2
53	54	2
109	111	1
13	13	1
108	109	2
125	129	1
9	42	1
20	20	2
65	65	1
62	62	2
111	111	2
57	58	1
54	56	1
82	82	2
113	115	1
67	67	1
100	100	2
25	26	1
105	105	2
124	125	1
1	1	2
26	27	2
50	51	1
125	130	1
90	90	1
6	7	1
84	86	1
110	113	1
94	94	1
105	106	1
11	29	1
45	117	1
16	21	1
127	127	3
112	112	1
65	77	1
89	90	1
14	14	2
114	117	1
41	45	1
93	95	1
62	63	1
44	66	1
58	58	1
128	128	2
83	83	3
27	29	1
120	129	1
3	3	1
67	68	1
117	123	1
124	124	1
89	92	1
38	41	1
47	48	1
11	16	1
76	84	1
18	18	1
122	122	2
38	40	1
45	48	1
7	11	1
59	61	1
90	91	1
61	62	1
68	71	1
72	80	1
48	51	1
102	102	1
117	118	1
115	116	1
60	60	1
27	27	2
13	15	1
23	27	1
88	89	1
75	81	1
31	31	1
113	113	1
84	84	1
100	101	1
82	84	1
58	97	1
111	112	1
