128	131	1
69	70	1
66	66	1
16	23	1
81	82	1
28	39	1
2	2	2
118	119	1
31	31	3
32	32	2
71	72	1
61	76	1
72	79	1
92	94	1
65	67	1
88	88	2
100	100	1
84	101	1
14	14	2
89	89	1
123	123	4
109	120	1
70	74	1
96	102	3
11	18	1
3	4	1
75	75	3
80	81	1
47	56	1
70	100	1
102	102	1
119	121	1
129	130	1
91	107	1
74	106	2
98	99	2
31	32	3
3	3	4
111	111	2
2	5	1
84	84	2
9	10	1
95	107	1
98	113	2
116	117	1
76	89	1
15	15	1
100	115	1
100	117	1
21	33	1
122	122	3
95	95	1
111	123	2
92	92	3
127	127	2
47	53	1
1	1	1
94	109	1
42	42	2
106	110	2
1	18	1
50	50	2
24	24	1
115	118	2
83	83	2
48	48	3
59	60	2
90	117	1
5	21	1
64	71	1
93	106	1
111	120	3
65	65	4
117	118	1
49	50	2
97	97	1
25	26	1
0	4	2
11	13	1
22	22	3
118	128	1
71	79	2
127	133	1
82	82	1
27	27	2
39	39	2
71	86	1
9	9	2
44	44	2
114	130	1
15	17	2
58	81	1
112	122	1
64	79	1
109	109	2
132	132	3
2	29	2
108	108	1
28	29	1
62	69	1
99	100	1
97	108	1
75	77	1
2	3	1
83	84	1
70	71	2
12	12	1
73	74	1
63	65	1
114	114	1
45	45	1
76	96	1
18	19	1
106	106	1
34	34	1
51	55	1
99	99	1
55	108	1
76	77	1
112	117	1
7	9	1
50	52	1
91	91	1
96	111	1
94	94	1
28	28	1
14	47	1
115	115	4
78	99	1
116	119	1
126	126	1
44	53	1
124	125	2
58	72	1
45	51	1
86	86	2
24	26	1
57	72	1
128	128	1
107	107	1
120	132	1
9	21	1
85	85	1
127	130	1
55	67	1
71	82	1
124	129	2
41	62	1
71	75	1
113	114	2
107	111	1
45	47	1
97	111	1
5	11	1
25	25	1
77	77	2
99	108	1
23	24	1
60	61	1
32	33	1
51	53	1
47	47	1
61	85	1
63	64	1
113	113	1
26	26	1
56	56	2
74	74	1
71	73	1
82	85	1
113	123	2
113	125	1
115	117	1
96	96	1
88	98	1
72	72	1
39	49	1
48	51	1
53	53	1
129	129	1
101	119	1
116	133	1
120	133	1
87	99	1
40	40	1
105	114	1
97	113	1
79	79	1
115	122	1
58	68	1
130	130	3
56	65	1
54	54	2
121	129	1
3	22	1
87	94	1
6	7	1
0	5	1
117	117	1
20	29	1
74	95	1
67	67	1
116	131	1
126	127	1
78	88	1
75	104	1
62	66	1
122	124	1
51	52	1
110	119	1
88	95	1
103	123	1
123	125	1
76	76	2
6	18	1
114	115	1
17	33	1
43	43	1
15	18	1
57	69	1
64	65	1
94	104	1
73	73	2
45	52	1
101	105	1
115	130	1
52	61	1
93	95	1
67	69	1
5	6	1
116	129	1
105	110	1
7	41	1
11	11	1
64	75	1
103	106	1
104	105	1
64	87	1
106	121	1
64	67	1
113	122	1
121	121	1
68	76	1
23	26	1
32	50	1
86	89	1
23	27	1
9	20	1
81	84	1
112	118	1
27	31	1
