109	110	1
19	21	2
162	164	2
167	167	4
150	166	1
18	23	2
147	147	1
139	139	2
8	50	1
22	22	6
137	137	1
4	4	3
40	40	1
78	78	2
135	136	1
21	21	3
25	25	1
96	97	2
149	149	1
120	121	1
45	45	2
109	109	2
160	160	2
157	158	2
156	156	2
24	24	3
16	17	2
68	68	1
106	106	2
155	164	1
33	33	4
134	135	1
43	43	2
48	48	1
39	39	3
115	115	2
131	132	1
11	11	5
125	125	5
133	133	2
73	73	1
141	148	1
47	47	3
168	168	3
2	2	1
34	34	1
3	3	4
12	45	1
41	41	3
127	127	2
87	88	1
17	19	1
77	77	2
166	167	1
50	51	3
77	82	1
113	113	1
26	26	5
74	74	1
27	27	1
36	36	1
163	164	1
16	16	2
12	62	1
143	143	1
98	141	1
82	82	2
165	165	2
20	20	2
161	161	1
8	8	1
154	154	1
7	7	3
114	114	2
91	92	1
18	18	1
155	156	1
170	170	1
11	105	1
140	140	2
144	145	2
14	15	2
163	165	2
139	154	1
53	55	1
112	114	2
12	13	2
103	103	2
9	9	2
144	144	1
117	119	1
154	164	1
53	53	2
163	163	1
68	77	2
105	106	2
35	43	1
99	99	1
46	46	2
54	54	2
51	51	2
36	40	1
136	136	1
144	146	1
83	83	1
24	134	1
47	48	1
2	156	1
135	135	1
150	150	1
1	1	3
86	86	1
19	19	1
14	52	1
131	131	2
116	118	1
91	91	2
167	168	1
56	56	2
148	150	2
5	5	1
122	164	1
162	162	1
96	96	7
79	79	3
85	86	2
72	81	1
117	130	1
12	12	1
80	80	3
158	162	2
84	84	1
144	161	1
50	50	3
160	168	1
55	78	1
69	70	1
44	45	1
22	23	1
115	124	1
164	164	1
164	165	1
119	119	2
120	122	1
142	142	2
128	128	2
153	154	2
24	73	1
146	146	2
100	100	1
122	151	1
6	6	1
136	158	1
151	152	1
112	117	1
148	148	1
118	149	1
151	151	1
110	111	1
66	66	1
41	42	1
63	65	1
88	88	1
166	166	2
17	17	1
52	74	1
142	143	1
144	164	1
149	150	1
35	35	2
14	16	1
20	72	1
116	116	2
75	75	1
158	158	3
87	87	1
45	49	2
71	71	1
17	20	1
101	106	1
23	23	1
112	112	1
80	81	1
92	92	1
62	62	1
49	57	1
84	117	1
51	68	1
93	95	1
94	127	1
101	101	1
13	13	2
15	16	1
89	90	1
70	70	1
129	130	1
44	44	1
3	37	1
132	132	1
84	85	1
150	151	1
20	46	1
0	0	1
