56	56	7
94	94	7
36	36	8
71	71	13
25	25	11
53	53	4
52	52	8
82	82	4
68	68	13
62	62	6
67	67	7
60	61	1
79	79	10
91	92	3
70	70	8
40	40	11
43	43	7
35	40	1
45	58	1
64	64	10
75	83	1
77	77	14
91	100	1
40	72	1
50	50	4
66	66	8
93	93	8
78	78	11
62	63	1
32	32	3
34	58	1
33	33	8
89	89	16
26	26	13
44	44	7
20	23	1
98	98	10
68	69	3
80	95	2
79	80	3
24	26	2
52	56	2
48	49	1
92	92	8
24	24	1
76	77	3
47	53	1
34	34	8
83	84	1
60	60	7
87	101	1
96	96	15
54	54	12
75	80	1
27	27	8
29	35	2
25	26	2
101	101	4
69	70	1
26	27	3
41	41	11
44	59	1
81	81	13
85	85	6
81	82	4
75	75	18
91	91	10
29	29	9
69	69	5
41	42	3
87	87	4
99	99	4
28	28	6
33	34	2
39	39	5
20	57	2
45	45	8
80	84	1
55	55	3
84	84	2
53	54	2
86	86	8
97	98	2
53	56	1
87	88	3
24	50	1
35	35	4
37	37	1
51	52	11
32	33	3
38	38	6
67	68	3
27	29	1
50	51	1
58	58	2
58	59	3
46	47	3
73	84	1
38	39	1
75	76	2
55	56	2
42	43	1
65	65	7
61	61	7
90	101	1
73	73	2
57	59	1
89	101	2
48	48	6
60	80	3
21	22	1
80	81	2
97	97	5
100	100	9
86	87	6
88	88	2
74	77	1
42	42	5
99	101	1
80	80	7
22	22	3
23	93	1
31	33	1
35	41	1
95	97	3
77	79	1
46	48	3
95	95	4
66	68	1
20	20	1
24	25	3
95	100	1
51	51	13
52	53	1
31	39	1
76	76	4
92	93	2
77	78	2
35	52	2
86	88	1
57	57	9
49	49	8
30	30	1
99	100	4
45	47	1
90	90	3
23	25	2
44	74	1
47	47	3
98	99	3
96	97	3
61	92	1
40	41	1
50	52	1
63	63	4
82	83	2
46	46	3
67	70	1
31	31	2
59	59	4
71	72	1
95	96	1
23	38	1
74	74	1
62	69	1
61	62	1
92	100	1
70	87	1
20	22	1
95	98	2
22	23	2
49	50	3
44	73	1
27	28	2
28	36	1
48	50	1
76	81	1
85	89	1
50	66	2
43	44	1
40	43	2
48	100	1
60	68	1
47	48	1
36	40	1
38	78	1
45	51	1
85	86	1
89	90	1
57	88	1
23	23	1
96	101	1
100	101	1
34	39	1
