164	164	3
72	73	2
126	126	5
62	126	1
11	11	6
13	31	2
75	76	1
179	179	6
9	9	5
132	133	6
18	18	5
27	28	2
14	14	9
2	2	7
120	120	2
158	160	3
86	86	3
82	82	7
108	108	5
52	53	5
134	134	8
44	44	6
176	176	13
131	132	8
41	42	1
175	175	6
154	164	1
22	31	1
136	136	8
162	162	9
35	35	14
120	140	1
20	33	1
33	33	7
156	157	2
34	34	6
122	122	8
92	92	4
17	17	6
132	132	11
66	66	4
35	59	1
81	81	9
54	61	1
104	107	1
31	31	20
154	156	4
110	110	4
55	55	4
78	78	5
123	123	4
138	138	9
15	15	12
71	71	3
81	111	2
54	54	7
93	93	5
135	135	4
113	114	5
59	59	9
130	148	1
54	122	1
117	117	8
3	3	12
102	114	1
140	140	5
3	4	4
6	11	1
24	24	6
146	163	1
61	65	1
8	9	4
102	143	1
42	43	3
40	40	9
20	20	4
141	141	6
4	17	1
139	140	2
55	149	2
96	96	4
8	31	1
10	10	5
6	6	5
173	173	14
87	87	7
1	4	1
10	54	1
121	132	1
36	36	14
173	175	1
137	137	7
107	107	4
91	116	1
170	170	2
92	122	1
3	5	4
145	157	1
73	73	6
55	56	6
129	129	4
88	88	7
51	51	2
154	154	9
17	19	1
7	34	1
42	42	4
21	21	9
43	43	11
34	36	2
124	124	2
100	100	3
131	131	10
37	38	1
17	45	1
98	98	5
7	36	1
143	143	6
26	31	2
114	114	8
105	106	1
83	85	1
77	79	1
16	17	1
112	131	1
3	25	2
172	173	3
18	19	3
27	30	1
72	72	6
163	163	5
161	161	6
67	67	6
83	83	7
50	51	1
38	38	12
51	52	2
75	75	12
153	153	7
160	161	4
43	89	1
133	158	1
106	113	1
88	89	1
1	1	4
119	119	6
57	61	1
5	5	12
57	67	1
37	37	6
61	61	7
60	73	2
23	23	6
153	173	1
150	163	2
127	127	5
148	160	2
141	148	2
143	158	1
36	37	2
19	19	6
142	142	6
165	174	2
9	10	1
178	179	3
12	12	8
10	11	2
36	45	1
63	64	1
149	149	9
8	8	13
152	163	1
128	128	5
171	171	14
113	116	1
50	59	1
42	46	1
56	56	9
180	180	3
2	4	3
147	147	1
67	79	1
6	7	6
38	42	2
133	133	8
74	94	1
87	89	1
50	62	1
123	125	3
174	174	3
133	134	3
144	144	6
150	150	11
60	60	5
158	158	4
5	6	3
132	135	1
50	50	7
9	17	1
156	174	2
114	129	1
124	142	1
103	103	4
102	102	7
115	118	2
109	109	5
51	127	1
110	111	2
55	63	2
39	39	8
42	44	4
74	75	2
106	108	1
44	45	1
26	26	2
125	125	5
78	98	2
76	77	2
151	154	2
58	58	1
148	148	4
21	23	1
120	123	2
76	76	4
55	62	1
173	174	1
99	108	1
1	37	1
53	53	6
140	151	1
149	158	1
29	30	2
3	9	1
57	68	1
113	113	3
26	28	1
73	80	1
60	62	2
75	87	2
22	22	3
38	80	2
136	141	1
62	63	2
83	84	2
178	178	6
7	9	1
91	91	6
159	161	1
96	97	5
104	105	1
62	86	1
118	118	2
87	88	1
67	68	3
139	139	4
145	146	1
165	165	4
167	178	1
160	160	7
154	155	6
100	118	1
156	164	1
16	16	4
80	80	6
77	77	9
19	24	2
13	14	1
105	114	2
71	72	3
32	34	2
168	168	3
10	16	2
62	62	3
126	159	2
84	87	1
156	156	3
2	6	1
1	7	1
93	97	1
85	87	1
51	85	2
105	105	2
80	81	1
143	144	1
126	128	1
6	10	1
87	106	1
32	32	7
26	27	1
13	13	7
137	170	1
112	112	5
123	130	1
15	18	1
23	27	1
32	35	3
92	113	3
45	45	8
64	64	8
175	176	2
98	99	4
166	178	1
19	31	1
28	28	3
94	95	1
145	147	1
86	90	1
64	65	1
169	170	3
95	95	5
0	0	3
12	21	1
96	98	2
25	35	1
9	11	2
114	116	1
8	11	1
152	152	5
89	89	4
77	78	6
158	161	2
61	67	1
78	94	2
134	135	1
107	109	1
52	52	4
4	23	1
53	56	2
58	59	1
37	39	1
110	112	2
93	101	3
41	41	5
84	84	4
91	93	3
16	27	1
14	15	3
115	116	3
128	143	1
30	37	1
86	89	1
145	145	5
103	136	1
18	20	2
107	112	1
65	66	3
138	141	2
79	79	5
85	97	1
56	65	1
19	21	1
104	104	2
174	175	4
55	130	1
32	38	1
120	126	1
81	115	1
12	23	1
65	65	2
179	180	2
57	57	3
96	113	1
1	11	1
84	86	1
167	168	2
2	36	1
93	116	2
106	106	5
87	90	1
7	10	2
108	114	1
0	1	1
21	44	2
37	41	1
25	25	5
22	24	3
45	162	1
9	16	2
25	27	2
168	177	1
15	41	1
8	13	2
121	121	2
16	23	1
11	13	4
52	54	1
11	14	3
96	99	1
111	111	3
46	55	1
86	102	1
6	24	1
55	92	1
138	139	1
163	174	1
140	154	1
33	34	1
62	92	2
97	97	3
63	83	1
164	167	1
145	149	1
159	159	5
142	143	1
9	21	1
58	87	2
76	78	1
101	104	1
72	139	2
154	159	1
117	123	1
140	141	1
28	159	1
78	79	1
32	132	1
97	101	2
43	45	2
16	22	2
172	172	8
163	166	1
3	6	2
111	116	1
33	39	1
128	129	3
61	64	2
101	102	1
8	58	1
64	129	2
113	118	1
1	16	1
136	142	2
98	107	1
120	128	1
137	140	2
10	137	1
63	63	2
6	22	2
178	180	2
22	59	1
135	136	1
157	157	2
15	17	2
125	145	2
97	113	1
85	85	2
166	166	3
132	139	1
167	167	6
130	130	4
24	29	1
15	24	1
151	152	1
29	40	1
74	74	7
113	115	3
10	13	1
1	9	1
164	165	1
157	158	2
111	115	1
77	85	1
15	16	2
29	29	2
8	12	1
126	133	1
19	22	2
67	72	1
23	24	1
13	28	1
8	17	1
136	168	1
94	148	1
81	83	1
9	34	1
57	59	2
156	167	1
17	30	1
105	107	2
94	98	2
12	13	1
42	49	1
153	170	1
54	134	1
113	130	1
4	12	1
12	14	1
139	150	3
133	149	1
16	37	1
169	169	5
32	41	1
148	156	1
133	157	1
65	85	1
51	57	1
12	174	1
2	5	1
1	3	1
63	66	1
90	90	2
89	93	1
50	53	1
12	29	1
60	64	1
88	96	1
4	5	1
163	164	2
147	148	1
41	97	1
33	41	1
49	50	1
88	90	2
134	140	1
70	95	1
51	55	1
14	26	1
33	36	1
25	31	1
17	35	1
8	37	1
110	121	1
4	115	1
125	147	1
98	105	1
10	32	1
100	120	1
117	118	1
146	146	4
2	17	2
54	72	1
82	86	1
21	30	1
177	177	3
156	162	1
13	19	3
92	93	1
112	159	1
57	75	1
56	58	1
158	162	1
25	50	2
28	39	1
75	82	1
135	138	2
110	119	1
57	72	1
16	172	1
107	120	1
89	101	1
68	68	3
130	143	1
90	106	1
99	102	1
120	131	2
177	180	1
36	127	1
98	102	1
87	160	1
127	128	1
101	101	1
84	85	1
114	168	2
104	106	1
92	124	1
155	156	2
168	170	1
14	42	1
121	125	1
42	53	1
120	146	1
151	162	1
145	158	1
91	96	1
144	159	1
16	18	2
37	73	1
95	133	1
73	81	1
53	54	2
6	30	1
58	62	1
64	95	2
144	146	2
55	72	1
125	132	1
55	57	1
19	20	2
135	150	1
155	157	1
38	39	2
29	127	1
8	25	1
137	142	1
167	172	1
81	114	1
4	39	1
95	115	1
90	91	2
13	17	1
5	14	2
61	68	1
60	122	2
31	32	1
18	21	1
32	39	2
4	4	4
74	79	1
144	145	1
11	16	1
152	157	2
94	94	2
162	163	1
118	163	1
14	36	1
56	60	1
97	120	1
33	35	1
10	12	2
30	38	1
123	124	3
59	61	1
120	121	1
98	103	1
89	90	2
85	102	1
121	128	1
116	130	2
22	28	1
73	74	3
150	158	1
143	157	1
80	85	1
125	140	1
29	31	1
12	27	1
8	21	1
24	25	1
51	58	1
3	13	1
150	160	1
109	110	1
99	99	3
116	116	2
56	57	1
139	141	1
81	125	1
159	160	1
13	21	1
35	37	1
139	157	3
163	167	1
10	38	1
3	14	1
150	170	1
22	23	2
8	15	1
67	70	1
72	94	1
118	119	1
79	80	1
127	156	1
38	56	1
22	40	1
15	22	1
34	35	2
17	23	1
107	114	1
59	101	1
112	113	1
7	52	1
80	83	1
89	99	1
7	7	1
144	154	1
106	122	1
27	27	1
27	31	1
169	171	1
158	168	1
147	154	1
66	84	1
65	68	1
6	37	1
85	91	1
126	138	1
46	52	1
65	96	2
56	80	1
115	117	1
155	158	1
146	159	2
10	17	1
129	132	1
80	132	1
39	40	1
102	112	1
103	122	1
44	82	1
147	166	1
45	46	2
4	30	1
148	152	1
5	43	1
79	98	1
102	117	1
157	159	1
54	71	1
28	94	1
81	105	1
81	82	1
35	36	2
103	113	1
84	116	1
52	98	1
55	78	1
126	142	1
146	167	1
126	127	1
168	174	1
136	140	1
119	120	1
152	153	2
103	105	1
76	138	1
95	96	1
105	123	1
151	151	2
135	139	1
158	167	1
35	52	1
167	169	1
166	170	1
89	94	1
130	131	1
88	94	1
75	88	1
58	82	1
101	111	1
14	38	1
17	29	1
103	106	1
85	125	1
5	7	1
148	153	1
66	67	1
149	152	1
9	15	1
105	129	1
10	14	1
21	40	1
107	108	1
4	32	1
53	60	2
74	91	1
97	116	1
54	55	1
124	125	1
37	44	1
123	135	1
87	103	1
