44	52	1
184	202	2
155	155	6
19	38	1
216	216	6
118	118	3
28	29	1
212	212	1
40	41	3
212	246	1
43	43	7
75	75	2
29	29	6
211	211	4
63	196	1
198	198	2
54	54	1
10	10	2
37	37	7
202	203	2
61	62	2
150	150	7
48	77	1
60	66	2
207	207	7
156	160	1
75	81	1
151	151	5
75	76	2
227	227	8
170	172	1
180	192	1
30	30	5
104	105	1
224	224	4
217	217	4
95	96	4
41	41	5
69	69	4
36	36	6
52	52	3
79	79	4
220	220	5
9	19	1
218	219	4
192	192	3
198	213	2
154	201	2
195	198	2
248	248	2
246	246	3
244	245	3
197	197	4
100	101	1
90	90	1
46	47	2
220	236	1
159	159	2
209	209	2
231	231	4
4	79	1
222	223	1
194	194	4
110	110	6
73	80	1
205	205	7
199	199	5
8	8	6
203	203	6
201	224	2
179	183	1
16	17	2
190	190	1
56	56	1
154	169	1
154	154	2
181	181	6
16	16	2
112	112	5
183	194	1
2	4	1
185	198	1
191	191	3
181	205	2
182	182	6
186	197	2
187	187	4
71	71	9
39	39	4
218	220	2
236	246	2
88	88	2
50	50	2
212	231	2
225	225	6
87	89	2
99	99	2
230	230	7
24	24	3
93	173	1
45	45	2
243	245	1
13	14	2
214	214	2
200	220	1
67	87	1
84	84	2
180	180	5
35	35	5
185	199	1
201	201	8
76	235	1
17	17	1
119	226	1
61	61	1
29	30	2
202	202	3
231	245	2
182	183	1
112	113	1
4	37	1
114	114	10
236	236	2
182	201	1
218	229	2
48	171	1
92	92	6
53	53	4
184	184	3
166	166	7
34	34	5
94	94	4
175	202	1
198	248	2
229	230	1
95	95	2
67	113	2
165	165	7
219	222	1
247	247	4
64	71	1
57	57	4
181	182	1
177	190	3
164	236	1
218	218	2
229	229	3
25	25	5
51	51	9
210	210	2
27	27	2
66	66	2
106	107	1
0	0	1
49	49	1
170	215	1
32	32	4
197	219	2
163	164	2
101	101	1
163	163	2
109	109	4
46	51	1
6	6	5
49	50	1
206	206	5
117	117	10
37	38	2
158	158	3
81	82	2
155	156	2
172	172	3
221	221	7
179	225	1
171	171	3
19	54	1
170	170	3
22	22	3
15	15	3
82	84	1
33	33	5
176	178	1
167	167	6
35	167	1
178	178	6
14	14	2
179	179	2
147	147	1
240	247	1
23	23	2
244	244	7
169	169	3
113	113	3
1	1	4
109	110	1
232	232	3
165	166	4
89	89	2
176	176	3
168	176	1
79	80	3
226	227	2
186	188	1
172	175	1
2	3	1
9	10	2
216	217	2
88	107	2
11	11	2
177	248	2
177	177	3
18	18	4
77	77	2
175	176	2
164	164	5
95	99	1
38	38	3
111	112	1
90	108	1
221	222	2
178	179	2
207	220	1
199	221	1
14	49	1
169	170	3
240	241	1
62	62	4
233	235	2
222	239	1
35	36	3
194	195	1
110	111	1
227	243	1
85	85	5
47	47	3
52	61	1
115	221	2
8	9	1
204	204	9
46	46	2
235	235	2
3	3	4
20	44	1
68	69	1
163	171	1
47	200	2
234	234	2
14	15	1
215	217	2
179	180	2
119	119	1
28	28	6
6	10	1
234	235	1
96	98	1
192	193	2
161	204	1
26	26	3
168	169	1
90	92	1
215	215	3
21	21	3
235	244	1
179	189	1
21	25	1
18	19	1
86	86	3
3	230	1
21	23	1
245	245	3
185	185	5
168	174	1
24	25	1
173	173	4
222	222	6
202	212	1
229	237	1
41	43	1
200	201	1
178	192	1
26	156	1
49	96	1
156	156	1
233	246	1
160	160	4
238	239	1
169	192	2
46	64	1
5	5	6
12	15	1
175	175	3
117	119	1
38	39	3
176	198	1
146	228	1
239	240	2
189	190	2
55	56	2
20	21	1
208	216	2
198	200	1
188	190	1
145	147	1
76	84	1
7	48	1
28	31	1
168	173	1
74	74	1
61	90	1
166	228	1
172	245	1
19	19	2
217	220	1
101	109	1
219	219	2
153	155	1
166	167	3
210	211	2
182	249	1
204	207	1
102	102	3
115	115	2
55	55	4
76	79	1
174	174	1
44	44	2
224	225	4
87	90	1
31	31	3
223	223	1
59	59	4
224	226	1
97	97	3
60	60	3
145	145	3
67	231	1
171	190	1
158	159	1
82	83	1
173	203	1
18	43	1
208	213	1
33	39	1
230	231	2
4	4	1
144	145	1
225	226	1
186	186	3
178	214	1
150	218	1
163	181	2
101	105	1
237	239	1
210	220	1
193	195	1
8	62	1
7	7	1
41	205	1
76	89	1
78	78	1
32	33	2
153	153	2
76	110	1
16	43	1
186	194	1
120	145	1
8	41	1
20	33	2
3	34	1
196	196	2
212	213	2
81	106	1
4	5	1
59	61	1
167	168	1
226	243	1
40	40	2
74	75	1
162	183	1
42	42	5
220	247	1
56	232	1
12	12	3
159	224	1
242	242	2
200	218	1
168	168	4
181	186	1
231	233	2
172	173	1
243	243	2
208	209	2
189	191	1
170	186	1
112	146	1
65	65	2
45	46	2
220	241	1
152	153	1
221	237	1
175	178	1
29	117	1
103	103	1
237	237	2
20	20	1
215	219	1
82	82	5
73	76	1
29	118	1
62	63	1
152	152	1
227	228	1
113	114	1
9	15	1
176	225	1
168	195	1
159	169	1
70	70	1
35	45	1
76	76	1
167	173	1
68	68	2
14	26	1
233	242	1
204	205	1
45	204	1
233	233	2
48	48	2
243	244	1
100	100	1
28	33	1
44	46	1
108	108	2
66	68	1
238	246	1
167	172	1
182	217	1
26	52	1
96	96	1
107	107	1
193	193	1
238	248	1
188	188	2
199	217	1
172	174	1
179	193	1
88	90	1
213	214	2
185	203	1
249	249	1
175	221	2
185	186	1
42	111	1
42	168	1
180	181	1
105	105	2
5	6	1
116	116	2
212	235	1
173	176	1
177	216	1
52	53	1
84	85	1
114	115	1
190	192	1
184	186	1
6	225	1
233	234	4
236	238	1
68	84	1
165	212	1
57	64	1
98	98	1
195	237	1
6	33	1
51	59	1
64	64	2
111	111	3
44	48	1
207	208	1
174	246	1
228	228	2
10	52	1
213	213	2
146	146	1
160	161	1
92	93	1
195	195	1
12	65	1
14	171	1
186	187	1
72	72	1
231	236	1
76	95	1
162	164	1
162	162	1
173	200	1
22	39	1
180	191	2
1	8	1
223	224	1
229	248	1
53	167	1
171	200	2
71	75	1
240	240	1
54	55	1
219	220	1
212	226	1
53	54	1
187	199	2
226	245	1
81	84	1
118	119	1
120	120	1
232	235	1
153	154	1
200	247	1
171	172	1
117	165	1
9	9	1
172	211	1
17	18	1
114	117	1
102	103	1
61	66	1
89	165	1
205	206	1
226	226	1
9	45	1
2	2	1
46	48	1
8	16	1
201	204	1
60	150	1
161	161	1
81	81	1
22	31	1
94	95	1
156	202	1
177	189	1
24	67	1
31	37	1
169	182	1
87	104	1
238	238	1
211	212	1
239	239	1
8	20	1
232	233	1
8	26	1
