177	177	3
116	125	1
111	111	4
86	86	1
10	38	1
88	150	1
79	79	4
149	149	2
133	133	4
107	107	1
23	23	2
150	150	4
36	36	2
28	30	1
71	173	1
148	148	3
145	145	3
168	169	3
140	140	3
122	126	1
0	1	1
132	132	2
128	129	1
160	160	1
112	112	2
56	56	1
1	1	3
143	144	1
10	13	1
100	125	2
26	27	1
116	121	1
102	108	1
77	78	1
56	82	1
78	78	2
155	155	2
133	174	2
123	124	2
139	139	5
53	53	1
128	128	3
106	106	1
29	29	3
127	127	2
116	119	2
61	63	1
62	62	2
13	14	1
154	156	1
97	97	1
179	179	1
153	153	2
139	145	2
41	41	2
159	160	1
57	61	1
96	97	3
54	54	2
22	24	3
83	83	2
67	95	2
39	40	2
146	147	1
4	4	1
42	42	3
39	53	2
61	61	2
63	63	3
81	112	1
135	135	2
14	16	2
149	150	1
159	159	3
89	89	4
90	126	1
90	109	1
31	32	1
31	36	3
3	3	3
171	171	2
117	118	1
72	72	1
97	147	1
116	116	1
124	129	1
31	31	1
32	32	3
172	172	2
98	98	2
65	81	1
5	41	2
179	180	1
178	178	2
149	153	1
173	173	5
10	10	4
28	28	1
122	125	1
131	131	1
122	122	1
141	141	3
86	87	2
129	129	2
19	20	1
142	142	1
100	100	1
90	108	1
138	138	3
108	108	2
33	33	1
73	92	1
74	75	2
23	38	1
6	6	3
86	140	1
139	140	1
12	15	1
8	9	1
180	180	1
109	109	2
123	123	2
79	107	1
85	85	1
117	119	1
29	30	1
80	80	2
11	11	2
93	93	1
130	130	1
151	162	1
166	166	1
32	34	1
71	71	3
118	170	1
59	59	1
51	58	1
132	150	1
115	115	1
20	20	1
18	18	2
104	104	1
65	65	1
175	175	2
64	96	1
163	167	1
9	9	1
154	169	1
134	134	2
174	174	3
56	57	1
82	82	1
43	45	1
70	70	2
22	22	2
132	138	2
104	143	1
40	40	1
119	119	1
81	81	2
84	84	2
164	166	1
44	44	1
18	20	2
66	67	1
62	63	1
35	35	2
55	55	1
151	151	2
134	137	1
156	157	1
124	124	1
150	158	1
168	168	1
15	20	1
115	124	1
154	154	1
76	76	1
165	165	1
31	35	1
96	96	1
121	121	1
143	146	1
27	27	1
67	68	1
176	176	2
93	111	1
2	2	3
144	144	1
30	31	1
177	178	1
108	109	1
88	88	1
58	85	1
157	157	1
66	66	1
99	101	1
126	126	1
161	162	1
175	176	1
104	105	1
14	14	1
7	7	1
5	5	2
43	96	2
81	83	1
64	78	1
68	68	2
33	43	1
75	75	1
92	100	1
152	153	1
34	34	1
26	28	1
60	60	1
113	115	1
16	16	1
30	30	1
151	152	2
43	43	1
162	177	1
114	122	1
89	95	1
68	80	1
64	65	1
99	125	1
26	38	1
