79	94	1
100	100	2
68	69	1
83	102	2
0	112	3
19	25	1
68	68	2
72	72	9
95	96	3
34	34	5
56	64	1
93	93	2
86	127	1
48	48	4
22	25	1
104	110	1
104	104	3
59	75	1
112	116	1
129	129	2
7	7	5
10	10	3
50	50	4
97	97	5
78	79	1
32	33	1
130	130	4
116	116	2
56	57	5
3	3	5
110	110	3
17	17	2
77	77	4
103	103	1
121	121	5
53	53	2
130	131	4
23	24	2
105	110	1
114	114	5
6	6	9
79	79	4
119	120	1
19	31	1
54	54	4
4	4	4
44	44	3
27	27	5
23	23	4
98	98	3
122	122	4
112	112	6
74	80	1
60	128	1
41	41	4
111	111	1
80	80	1
47	47	3
94	119	1
82	83	1
89	91	1
102	102	6
117	117	9
113	113	7
76	77	1
14	14	4
32	32	2
114	116	1
20	21	2
12	54	2
129	130	2
89	89	2
72	75	1
14	25	1
96	96	6
28	31	1
49	57	1
63	65	2
99	99	4
132	132	1
33	33	2
26	31	1
118	120	1
77	78	1
120	120	2
18	24	1
26	26	4
60	61	3
58	59	1
114	123	1
126	126	4
39	39	4
85	87	1
55	55	3
62	130	1
49	50	1
40	41	1
53	115	1
92	106	1
107	108	2
6	7	1
72	102	1
28	28	2
69	83	1
15	22	1
123	123	2
72	73	1
24	24	3
79	80	3
13	13	3
108	110	1
51	54	1
87	87	2
15	96	2
81	81	4
52	52	3
19	19	1
97	98	1
115	115	2
63	63	4
77	83	1
127	127	4
51	51	4
29	29	2
110	132	1
104	105	1
75	81	1
18	18	3
49	49	5
62	64	1
69	71	1
88	88	2
78	78	1
45	45	1
128	129	1
119	119	2
52	53	2
92	128	1
44	45	2
33	34	1
85	85	4
58	114	1
14	15	1
107	107	2
131	131	3
93	120	1
22	55	1
86	86	4
73	73	2
62	62	1
76	81	1
0	0	2
128	128	4
109	110	2
110	111	1
45	69	1
21	21	1
15	16	1
126	131	1
118	121	1
66	67	2
75	75	2
101	102	1
61	61	2
111	112	1
74	74	1
43	44	1
33	103	1
56	56	4
65	65	3
49	56	1
54	55	2
32	34	1
45	96	3
100	101	1
46	46	4
82	82	1
67	91	1
65	70	1
124	124	2
89	90	2
67	68	1
91	93	1
16	40	1
83	86	1
5	6	1
15	15	2
84	84	2
13	18	1
63	64	2
95	95	2
94	94	1
59	83	1
69	69	4
89	98	1
109	109	3
24	25	1
16	16	1
92	92	2
17	18	1
25	25	2
58	77	1
57	57	1
67	67	1
91	92	1
43	43	2
94	95	1
64	65	2
66	102	1
89	92	1
48	49	1
97	99	1
17	30	1
12	12	2
30	30	1
55	56	1
122	123	1
101	101	4
1	1	1
31	33	2
86	87	2
70	70	2
64	66	1
71	71	1
2	116	1
125	125	1
41	44	1
71	97	1
114	120	1
60	62	1
79	97	1
20	20	1
86	88	1
26	27	1
108	108	4
39	92	1
81	82	2
104	118	1
76	76	1
99	126	1
48	122	1
82	97	1
5	5	2
74	102	1
106	106	1
57	94	1
56	104	1
11	11	1
92	93	1
75	76	1
87	96	1
83	83	2
13	22	1
15	20	1
84	86	1
71	72	1
66	66	1
42	44	1
57	58	2
105	105	1
45	48	1
38	39	1
40	43	1
124	125	1
68	82	1
29	30	1
6	120	1
105	106	1
19	21	1
0	122	1
79	86	1
19	20	1
2	3	2
31	31	1
84	85	1
7	45	1
17	32	1
102	114	1
70	72	1
72	74	1
8	123	1
49	99	1
38	38	1
78	103	1
115	118	1
54	69	1
114	115	1
59	59	1
59	60	1
96	100	1
2	113	1
27	28	1
