133	133	3
74	74	3
6	6	6
18	18	5
94	94	5
118	118	3
114	115	4
42	42	3
110	123	1
15	15	4
17	48	1
86	86	5
46	46	4
90	90	3
26	29	1
35	35	3
20	20	4
59	119	1
103	104	2
107	107	5
64	64	10
34	34	7
77	77	4
27	49	1
56	57	2
84	84	4
12	69	1
99	99	2
3	3	2
48	50	1
101	101	4
89	93	1
38	38	3
125	125	5
106	106	4
31	31	2
66	66	10
121	121	6
34	72	1
21	21	3
43	43	5
64	108	2
134	134	8
75	75	4
27	27	2
105	105	2
99	100	3
76	76	3
28	28	3
103	103	7
86	87	2
44	44	8
72	73	1
73	73	8
78	78	5
19	19	5
58	58	3
65	65	6
60	77	1
108	108	2
24	26	1
26	26	2
10	10	4
97	97	3
33	33	3
126	126	4
60	60	3
2	2	6
115	116	1
57	57	4
4	65	1
111	111	3
49	49	1
131	131	4
130	130	3
127	128	4
8	10	1
73	108	1
37	37	3
61	61	5
91	91	1
23	24	3
59	59	1
27	28	2
4	5	1
104	106	4
17	17	4
87	89	1
11	100	1
96	99	1
118	119	2
78	79	4
119	119	4
95	95	6
12	12	6
81	101	1
101	102	2
112	112	5
56	56	4
7	8	3
33	44	1
88	88	4
63	63	3
87	106	1
43	48	2
78	115	1
77	107	1
95	96	1
93	93	4
47	47	3
9	10	1
5	5	9
122	122	5
9	9	3
129	129	2
38	39	2
33	74	1
26	28	2
70	70	2
109	110	4
11	11	3
128	128	3
56	58	1
121	123	1
45	45	2
12	44	1
69	95	1
0	0	5
80	80	1
102	102	5
98	98	3
31	32	1
116	117	2
83	85	1
120	120	2
40	40	1
38	97	1
80	81	1
32	33	2
129	130	1
55	55	2
68	69	3
105	122	1
17	18	3
97	98	2
28	32	1
110	112	1
44	128	1
12	15	1
117	117	5
41	106	1
75	76	1
62	62	6
36	36	5
85	108	1
87	87	3
71	71	3
69	69	1
94	133	1
82	83	1
38	43	1
107	130	1
23	25	2
45	95	1
45	57	3
120	123	1
112	113	3
96	101	1
46	47	1
132	132	3
12	34	1
13	44	1
77	79	2
0	2	1
17	28	1
37	42	1
4	4	1
109	109	1
7	82	1
41	42	1
8	8	2
96	96	2
124	128	1
123	128	1
5	9	1
58	86	1
96	98	1
85	86	1
132	133	1
114	127	1
107	111	1
51	54	1
32	32	2
39	40	2
87	88	3
14	81	1
39	39	2
58	122	1
123	124	2
88	89	1
6	7	1
4	43	1
130	131	1
6	47	1
0	66	1
40	41	2
107	122	1
44	94	2
7	7	1
124	130	1
40	43	1
68	68	3
61	62	1
67	68	1
14	121	1
25	134	2
67	67	1
119	120	2
71	77	2
48	95	1
23	23	1
128	129	1
74	75	1
63	64	1
82	82	2
127	127	1
79	103	2
123	123	2
124	124	2
127	129	1
64	65	1
22	22	2
79	83	1
114	131	1
18	45	1
33	62	1
47	64	1
72	72	3
62	64	1
85	133	1
83	83	1
106	118	1
125	126	2
17	33	1
23	26	1
35	43	1
56	96	1
60	61	1
105	111	1
104	107	1
110	111	1
80	82	2
79	109	1
68	70	1
93	94	1
65	66	1
77	78	1
8	9	1
95	107	2
15	16	2
89	91	1
85	88	1
32	43	1
58	82	1
23	28	1
98	103	2
17	43	1
89	89	1
88	98	2
20	87	1
103	128	1
59	77	1
69	70	1
49	50	1
41	41	1
85	85	1
115	115	1
84	86	1
126	131	2
104	105	2
73	74	1
80	132	1
59	60	1
110	110	1
32	36	1
78	82	1
13	14	1
29	29	1
16	16	2
0	1	1
14	15	1
96	97	1
1	1	3
10	46	1
19	34	1
116	116	1
19	35	2
123	126	1
83	102	1
22	26	1
99	122	1
102	126	1
66	68	1
5	77	1
58	76	1
24	25	1
97	99	1
10	35	1
62	71	1
16	17	1
94	107	1
22	24	1
98	101	1
10	45	1
48	48	1
85	125	1
87	92	1
28	29	1
7	13	1
55	58	1
12	59	1
87	94	1
25	25	1
44	93	1
128	132	1
23	82	1
51	81	1
