54	54	2
38	39	2
91	91	26
82	86	2
53	56	1
42	42	5
53	53	8
36	36	3
54	55	2
35	36	3
102	103	1
43	43	8
64	64	7
63	63	3
98	99	1
28	28	5
113	113	7
79	79	8
105	105	4
85	85	3
77	77	8
50	50	5
53	55	1
94	94	5
44	47	1
32	32	5
114	114	8
90	93	5
47	48	3
73	73	4
86	86	4
26	26	7
92	92	19
113	114	1
69	69	5
90	91	12
52	52	1
59	60	1
68	68	6
104	104	2
22	22	7
53	90	1
45	45	1
23	51	2
90	90	10
89	90	1
111	111	6
51	51	4
57	57	3
36	96	1
87	87	2
21	23	1
99	99	4
34	34	2
50	51	4
46	46	10
65	65	5
75	75	7
81	90	6
82	82	3
78	78	7
77	95	1
108	108	14
66	67	1
103	103	4
71	71	6
27	27	3
101	101	3
30	30	14
96	96	5
37	39	1
111	114	1
69	70	1
107	107	3
37	38	2
98	98	2
44	44	4
44	95	2
95	96	3
55	55	2
91	92	10
81	81	11
21	21	1
106	106	6
105	106	2
109	109	4
33	33	2
105	108	1
68	91	1
76	76	5
80	81	3
60	60	5
81	91	6
104	107	1
100	101	1
85	86	3
47	47	1
92	93	4
54	56	1
93	94	2
84	85	6
56	57	2
99	101	1
26	98	1
88	88	6
95	95	1
97	97	4
93	93	10
69	71	1
67	67	3
63	66	1
23	23	5
56	56	1
48	49	1
82	85	1
59	59	4
61	61	3
58	58	2
63	64	1
74	75	2
71	72	2
62	62	3
87	88	2
80	101	1
31	31	6
101	103	1
44	66	1
109	110	1
115	115	1
46	47	2
76	107	1
72	72	6
42	43	1
44	62	1
102	102	6
103	104	4
22	42	2
22	33	1
29	29	4
38	38	4
74	74	4
20	20	2
83	83	3
49	49	1
56	58	1
80	80	4
84	87	1
22	25	1
66	66	4
70	70	3
45	49	1
46	52	1
73	74	3
63	67	1
22	29	1
89	89	5
37	37	6
102	104	1
21	40	1
35	58	1
55	56	3
54	57	3
35	112	1
68	69	1
82	84	2
92	108	1
31	50	1
96	97	1
94	95	2
21	22	1
31	96	1
48	48	3
40	51	1
85	87	1
103	105	1
91	95	1
61	62	4
69	77	1
36	37	1
53	54	1
67	68	2
81	82	1
26	27	2
67	87	1
43	44	1
23	28	1
24	24	2
91	93	1
93	108	1
55	98	1
29	30	1
53	76	1
112	112	2
41	41	3
108	109	2
72	94	1
79	80	1
51	52	1
78	79	3
39	39	1
84	86	1
43	96	1
71	73	1
57	68	1
40	40	2
40	41	1
91	108	1
87	92	1
58	59	1
57	60	1
69	73	1
36	89	1
60	109	2
32	33	1
62	67	1
30	31	1
80	103	1
39	40	1
64	71	1
68	90	1
59	89	1
59	84	1
48	80	1
25	25	1
60	98	1
91	97	1
107	109	1
24	25	1
61	64	1
60	92	1
97	98	1
48	84	1
92	94	1
61	72	1
70	72	1
35	59	1
85	92	1
81	93	1
99	100	1
82	83	1
26	28	1
22	27	1
100	100	1
69	86	1
76	77	1
34	36	1
37	40	1
53	60	1
67	92	1
