105	107	1
49	49	5
29	29	2
95	95	4
115	115	2
27	46	1
28	28	3
31	32	1
22	22	4
59	62	1
70	70	4
13	13	4
56	56	6
47	71	1
109	110	1
133	133	2
50	51	5
5	5	3
80	106	1
71	71	5
51	51	3
100	129	2
1	27	1
117	117	5
45	68	1
113	115	1
4	5	1
44	44	2
4	4	4
65	84	1
131	131	4
86	87	3
52	91	1
113	114	4
91	126	1
98	98	4
89	89	5
58	58	3
118	118	6
107	107	5
128	128	3
87	96	3
30	30	4
52	86	1
31	31	4
49	50	1
87	90	1
44	61	1
104	104	6
92	92	5
8	24	1
34	34	1
111	111	6
110	111	1
30	58	1
50	50	1
40	48	1
97	97	3
8	8	2
94	94	3
58	59	2
20	20	3
33	33	5
85	90	2
73	73	2
30	31	1
60	60	1
3	3	3
107	131	1
43	43	2
80	80	3
40	40	4
15	38	1
49	57	2
99	99	2
100	100	1
57	58	1
87	89	3
26	26	2
102	102	3
132	132	2
62	128	1
54	58	1
63	63	2
32	32	2
125	129	2
121	121	3
7	7	1
71	96	1
80	81	1
64	90	1
0	1	1
42	42	1
54	92	1
15	39	1
21	21	6
42	62	1
9	9	1
108	108	4
104	105	4
79	79	1
39	43	1
114	114	5
28	34	1
79	80	1
83	96	1
109	109	4
1	1	5
59	85	1
107	124	1
41	41	5
77	77	1
5	6	1
80	89	1
63	68	1
40	42	1
28	29	1
124	125	4
125	125	4
118	120	1
38	41	1
107	117	1
92	93	1
129	129	5
53	53	3
66	66	2
42	43	1
45	45	1
76	76	2
46	53	1
91	93	1
28	74	1
6	8	1
55	55	2
39	42	1
90	90	3
2	2	2
13	14	2
91	125	1
88	89	1
12	12	1
105	130	1
81	82	1
48	48	3
88	88	1
83	83	1
106	106	1
65	94	2
85	98	1
58	62	1
52	52	2
16	30	1
113	123	1
67	67	2
100	114	3
59	59	2
15	15	1
71	77	1
54	54	2
87	87	2
83	106	1
29	30	1
92	125	1
126	127	3
123	131	1
39	39	2
85	85	1
46	46	2
18	29	1
25	25	1
20	21	1
4	74	1
100	126	1
124	130	1
98	128	1
18	31	1
78	81	1
62	90	1
75	75	1
12	13	1
58	91	1
62	63	1
94	95	2
48	49	1
124	124	3
123	124	1
67	72	1
72	72	2
57	57	2
114	115	1
51	52	2
76	77	1
24	24	2
78	90	1
103	103	1
62	62	1
127	127	1
91	105	1
76	124	1
127	128	1
18	19	1
23	24	1
69	70	1
65	65	2
64	84	1
76	114	1
38	38	1
105	105	4
91	91	4
1	49	1
66	67	1
45	69	1
47	47	2
70	77	1
111	116	1
123	123	1
41	64	1
100	102	1
87	88	1
79	91	1
68	68	1
66	79	2
97	98	1
74	74	1
80	116	1
86	88	1
55	72	1
116	116	1
12	26	1
70	120	1
101	101	2
10	10	1
119	119	1
27	27	1
122	122	1
43	44	1
106	107	1
38	39	1
