34	34	2
81	81	5
39	42	1
68	68	1
92	93	2
64	65	1
72	73	1
90	91	3
96	96	2
39	39	3
99	99	4
85	86	1
41	41	4
22	95	1
52	52	5
28	28	4
63	64	1
73	73	2
46	96	1
49	70	1
71	102	1
75	92	1
48	48	3
88	88	1
24	24	1
46	46	3
33	33	2
93	93	6
60	68	1
37	37	3
73	74	2
20	20	3
110	110	4
19	19	1
64	64	1
22	22	5
43	52	1
62	68	1
92	92	8
106	108	2
82	83	2
37	62	2
103	106	3
85	85	1
71	72	1
50	111	1
91	91	12
27	28	1
51	107	1
101	101	6
86	86	1
83	83	8
109	109	1
73	96	4
101	107	1
85	88	1
65	69	1
92	94	1
26	28	3
111	112	1
74	75	3
89	89	3
38	38	1
84	94	1
63	63	4
80	81	3
62	62	2
108	108	7
26	26	3
74	104	1
90	90	8
114	114	1
110	111	1
80	82	2
53	53	3
102	102	4
113	113	2
106	107	3
61	63	1
20	22	1
80	80	3
31	31	3
70	70	2
75	75	4
73	98	1
57	57	1
81	91	4
104	108	1
41	64	1
48	49	2
47	47	2
103	105	3
30	30	2
32	32	2
42	42	1
83	85	1
24	51	3
56	56	3
36	37	1
79	84	1
96	97	1
58	69	1
23	23	1
55	55	1
111	111	4
29	29	2
43	43	1
105	106	2
52	113	1
84	86	1
87	88	1
77	77	1
99	107	1
76	108	1
23	42	1
98	98	2
23	47	2
86	91	1
50	50	1
51	85	1
44	44	3
25	40	1
27	27	3
91	92	4
56	58	1
21	21	4
43	58	1
105	105	1
69	69	3
76	77	4
92	97	2
34	35	1
31	32	1
85	91	1
103	108	1
81	90	2
83	84	2
20	21	1
62	97	1
78	78	1
74	90	1
66	66	1
47	48	2
99	100	1
50	51	1
60	61	1
26	60	1
72	93	1
95	95	2
57	59	1
24	52	1
91	93	2
45	45	2
105	107	1
79	96	1
65	65	1
76	76	2
79	79	1
54	54	1
70	94	1
65	66	1
57	88	1
46	80	1
43	44	1
23	24	1
81	103	1
39	40	1
81	102	1
21	43	1
107	107	1
70	73	1
104	105	1
111	113	1
72	72	1
84	84	1
19	53	1
29	30	1
81	93	1
74	74	2
97	97	1
106	106	1
54	56	1
67	68	1
28	30	1
58	59	1
36	36	1
