23	24	1
75	75	3
109	109	4
49	49	1
25	30	2
50	69	2
11	11	4
70	70	3
77	77	2
82	82	7
80	96	1
116	116	1
72	72	3
60	61	1
103	103	1
117	117	2
3	4	1
0	2	2
78	78	4
80	80	6
32	33	1
5	5	4
99	99	4
48	48	1
37	38	1
54	54	3
47	52	1
83	83	2
59	60	1
30	30	3
126	126	4
120	120	4
59	81	1
28	72	1
91	91	2
21	23	2
1	1	6
21	44	1
67	67	4
110	110	3
61	80	2
83	84	2
21	21	3
129	129	5
63	63	1
113	116	4
66	66	4
85	85	1
72	81	1
14	15	1
119	119	2
112	113	2
52	52	4
6	6	6
132	132	3
22	22	2
43	43	3
92	92	1
23	23	3
65	66	1
44	44	2
102	103	1
73	73	2
123	123	3
33	34	2
65	65	2
79	79	2
17	28	1
113	114	1
13	13	4
86	86	3
94	94	2
97	98	1
9	12	1
81	81	5
104	104	3
98	98	2
17	18	2
33	33	1
80	81	1
91	119	1
81	88	1
17	99	1
130	130	2
45	45	4
122	122	2
64	67	1
15	16	1
83	86	1
20	20	2
26	28	1
82	98	1
56	56	4
128	128	3
35	45	1
13	14	1
87	87	3
61	61	2
21	22	3
4	13	1
109	111	1
50	50	2
67	68	3
58	59	2
1	3	2
121	121	1
86	87	3
4	4	1
15	17	1
45	47	1
85	86	1
71	71	7
27	72	1
1	63	2
71	79	1
106	106	1
57	57	1
3	3	3
112	112	3
70	88	2
3	32	1
105	112	1
22	28	1
63	64	1
82	83	1
5	14	1
84	84	2
9	10	1
37	37	1
131	131	3
76	76	3
55	55	3
36	37	1
62	62	4
118	118	1
12	13	1
64	64	1
54	55	2
46	80	1
56	58	1
28	28	3
102	102	1
56	59	1
59	59	2
9	19	1
18	18	2
69	69	1
31	31	2
58	68	1
81	82	1
131	133	1
114	114	2
80	106	1
55	58	2
114	125	2
100	100	1
9	9	1
60	60	1
79	120	1
54	57	1
79	80	1
15	15	2
0	0	3
101	102	2
46	46	1
84	85	1
76	119	1
93	94	1
127	129	1
34	34	2
83	85	1
34	35	1
25	25	2
115	115	3
62	75	1
30	32	1
101	101	3
70	71	1
116	125	1
29	29	2
95	96	2
42	42	1
20	23	1
55	65	1
125	125	1
15	66	1
54	61	1
77	80	1
125	126	2
53	54	1
78	82	1
17	17	1
20	24	1
6	7	1
43	44	1
88	88	1
88	118	1
80	122	1
8	8	1
97	97	1
68	68	4
105	105	1
66	67	2
133	133	1
50	77	1
14	14	1
10	10	1
26	26	1
77	79	1
49	61	1
24	25	1
124	125	1
56	57	1
126	127	1
80	85	1
107	107	1
120	123	1
44	48	1
7	7	1
108	129	1
114	131	1
49	50	1
119	120	1
