90	90	1
91	92	2
86	87	3
6	6	4
9	9	5
79	79	5
34	37	1
76	97	1
76	78	1
3	3	2
130	131	1
120	125	2
22	22	5
47	49	4
43	44	3
84	84	5
1	2	1
57	59	2
14	14	4
127	127	1
32	32	4
68	68	4
124	124	1
105	105	7
67	69	1
113	113	4
71	80	2
82	92	1
22	35	1
12	12	4
80	80	9
113	114	2
103	103	4
15	16	1
65	65	4
85	85	5
45	45	5
108	108	2
60	61	1
94	94	4
104	104	3
4	4	6
19	20	2
112	112	5
82	82	7
115	115	5
13	62	1
61	62	4
5	5	4
36	36	4
74	74	3
86	86	2
117	127	1
72	72	8
50	50	5
61	61	5
78	78	5
93	93	2
10	44	1
16	16	6
10	10	5
107	107	3
134	134	2
11	11	5
18	19	3
44	44	2
42	42	1
129	130	1
29	29	4
91	91	2
24	24	2
115	116	2
75	94	1
36	37	1
58	59	2
17	18	2
89	89	4
26	26	5
72	78	1
48	48	1
2	7	1
13	13	3
58	58	2
111	111	2
116	123	1
47	85	2
0	2	2
129	129	2
63	63	6
100	100	2
23	80	1
62	63	3
102	102	3
9	10	1
119	122	1
60	60	6
49	62	1
20	49	1
31	31	7
24	47	1
84	85	6
57	60	1
33	33	1
25	25	9
67	67	2
87	87	3
58	67	1
60	75	1
14	15	1
133	133	5
109	117	2
130	135	1
105	133	1
54	55	1
23	23	2
19	19	3
97	120	1
45	51	1
67	78	1
71	72	1
103	104	2
66	66	2
53	53	4
106	107	1
28	29	2
69	70	1
26	27	2
18	21	1
75	75	3
130	130	3
76	76	4
21	21	1
81	82	1
73	73	4
64	65	3
24	30	1
12	13	1
76	80	1
54	54	1
14	17	1
57	58	3
24	26	1
23	27	1
13	14	1
106	106	3
85	87	1
65	118	1
5	34	1
110	110	1
55	57	2
120	120	1
43	43	2
27	56	1
52	55	1
49	49	4
82	83	3
5	14	1
117	118	2
71	71	4
22	23	2
52	54	2
64	69	1
66	68	1
52	52	4
11	12	2
27	27	2
1	1	2
97	115	1
116	116	1
68	69	1
26	61	1
37	38	1
76	77	2
108	110	1
55	55	4
112	113	2
35	35	3
122	122	2
77	77	3
127	129	1
73	77	2
97	97	1
69	69	2
70	70	3
43	66	1
128	128	1
49	50	2
8	8	3
24	33	1
17	17	3
72	73	2
34	34	3
30	31	2
56	56	5
75	80	1
83	83	2
99	99	4
75	76	2
0	0	3
3	5	1
120	121	1
95	104	1
109	109	1
90	117	2
116	119	1
95	100	1
107	108	2
73	100	2
112	114	1
119	119	2
125	125	4
70	93	1
5	13	1
135	135	1
0	1	2
70	71	2
5	43	1
62	62	2
10	11	1
7	7	2
2	2	2
7	11	1
105	106	1
12	14	1
30	30	2
95	95	2
49	52	1
59	59	1
114	114	2
57	57	1
44	45	2
94	97	1
78	79	1
67	68	2
38	38	1
37	37	1
115	120	1
7	8	2
65	66	3
48	84	1
12	30	1
57	107	1
123	125	1
108	113	1
92	93	1
118	118	1
121	121	1
98	98	1
125	126	1
21	23	2
101	102	1
14	16	2
119	120	1
7	9	1
123	123	1
29	97	1
99	111	1
115	117	1
95	96	1
64	64	2
65	69	1
35	36	1
48	50	1
30	42	1
10	56	1
95	134	1
128	129	1
11	13	2
84	87	1
16	17	1
59	60	1
92	92	1
26	57	1
90	118	1
67	117	1
33	34	1
