28	29	1
48	48	7
198	199	3
198	198	7
102	104	1
233	233	5
28	28	9
239	239	8
121	121	11
182	182	8
105	106	3
157	157	12
242	242	6
225	226	3
120	121	4
180	180	7
62	63	2
137	138	4
147	183	1
150	152	3
84	85	1
217	217	6
219	219	9
114	121	1
204	204	4
140	140	4
155	158	2
62	62	3
151	154	1
66	104	1
69	159	1
88	96	2
241	241	6
4	4	3
12	35	1
4	18	1
16	17	2
129	129	8
70	96	2
194	194	3
177	178	2
150	151	1
13	13	8
162	163	4
138	138	8
29	30	5
213	215	3
84	84	5
101	106	1
165	167	3
167	176	1
41	41	6
182	183	3
172	172	8
24	24	9
64	64	7
148	148	4
143	149	1
55	55	5
137	146	1
86	170	1
127	127	8
85	96	1
10	10	7
179	200	1
176	178	1
72	72	13
155	157	2
56	56	6
201	201	3
158	158	10
224	225	3
216	227	1
216	217	2
209	209	4
23	29	2
173	201	1
201	204	1
106	106	11
184	184	5
173	174	7
23	40	1
3	6	2
66	66	4
34	34	4
193	193	4
120	159	1
85	85	8
11	11	8
189	190	2
27	27	8
159	159	8
206	206	8
150	150	8
241	242	1
181	207	1
177	177	2
70	71	2
234	235	1
183	201	2
85	86	4
174	174	8
8	8	9
108	108	8
235	235	3
67	67	6
111	111	10
228	231	1
168	190	1
39	39	9
88	88	5
136	175	1
115	117	4
86	86	4
211	224	2
136	136	8
114	114	5
24	37	1
109	118	1
31	33	2
228	228	4
232	232	4
24	32	2
6	7	3
103	105	3
170	170	8
221	222	3
0	0	9
144	146	1
232	238	1
40	42	3
153	153	3
81	81	6
106	107	2
49	50	3
236	238	2
64	72	1
183	183	15
4	19	1
155	156	3
167	169	3
24	174	1
197	199	1
237	237	7
11	21	1
70	70	6
151	151	6
58	59	1
199	199	5
146	148	2
175	176	1
195	196	2
167	213	2
102	102	7
38	38	10
223	223	4
21	21	5
173	175	2
19	19	7
178	178	8
120	120	8
155	155	10
170	171	3
56	60	1
30	32	1
192	193	3
186	186	4
214	214	5
3	3	10
8	206	1
161	162	3
73	74	2
196	220	1
90	95	1
30	30	8
1	1	2
47	47	7
209	210	1
188	188	9
165	165	6
191	191	6
122	122	4
33	114	1
88	89	1
236	237	3
184	187	3
68	68	7
29	29	4
24	25	6
175	177	2
144	147	2
98	163	1
171	172	7
179	179	10
128	136	1
206	207	3
9	10	3
145	146	6
221	221	5
197	197	3
220	220	3
169	200	1
42	42	10
43	44	2
168	169	3
175	175	11
31	39	1
67	68	3
119	119	9
35	55	2
211	211	4
205	205	3
26	26	9
128	129	3
50	61	1
122	123	2
76	84	1
15	23	1
152	152	7
20	20	4
139	160	2
49	64	1
73	73	9
5	5	4
142	142	6
76	76	3
74	113	1
129	130	4
233	234	2
22	23	5
118	119	2
198	202	1
39	238	1
159	178	1
185	185	1
184	204	1
107	107	6
75	78	2
174	175	1
108	109	2
156	188	2
47	68	1
102	103	4
98	179	1
104	104	4
162	192	1
118	118	2
193	194	2
226	226	1
141	142	2
236	236	8
145	145	3
48	74	2
54	84	1
43	43	5
185	187	2
54	54	5
34	146	1
99	130	1
218	218	6
195	195	5
137	137	12
136	149	1
46	47	2
152	155	1
65	102	2
9	25	1
45	45	9
105	105	5
183	187	2
100	101	1
174	183	1
53	53	4
59	86	1
113	120	3
147	147	7
110	118	3
138	144	1
101	101	8
21	22	1
9	9	12
201	211	1
27	28	2
30	130	1
205	233	3
166	166	9
122	125	1
117	118	3
47	54	2
135	178	2
142	184	1
51	164	2
40	62	1
70	99	2
156	157	6
105	110	1
191	202	2
0	15	1
173	173	4
199	209	1
17	17	1
75	75	6
32	66	3
69	69	8
169	171	1
44	44	8
71	71	4
180	181	1
11	12	5
7	8	4
39	70	2
49	53	1
154	154	5
26	27	3
111	136	1
72	73	3
56	89	2
134	134	3
148	168	1
64	65	8
56	57	1
29	57	1
100	235	1
96	96	1
166	168	1
180	199	1
165	168	1
80	80	6
34	37	1
196	196	2
160	170	2
37	54	1
15	46	1
8	9	3
231	231	2
200	200	4
229	230	3
212	214	1
228	229	3
80	81	2
213	214	1
71	72	5
74	75	3
134	140	1
7	7	6
238	238	3
123	123	2
65	67	2
135	135	13
59	60	2
177	208	1
176	177	4
29	70	1
113	191	1
68	101	1
169	169	7
154	156	3
164	164	6
33	55	1
26	61	1
199	202	1
36	36	6
130	130	5
66	126	3
83	83	2
25	26	2
31	31	6
113	113	4
133	133	8
116	132	2
6	6	5
10	225	1
121	136	1
176	176	3
57	57	6
138	149	1
72	74	1
175	188	1
74	239	1
157	205	1
51	51	6
30	146	1
189	189	3
116	117	4
66	68	2
97	97	8
37	171	1
187	187	6
98	98	3
179	180	2
12	45	1
32	32	6
139	140	3
110	172	1
201	202	5
10	25	2
95	95	2
174	176	1
77	78	3
37	38	4
53	54	3
222	222	1
0	48	1
238	239	1
61	179	1
217	218	1
227	227	9
56	59	1
106	125	1
178	208	1
14	164	1
191	192	2
240	242	1
99	99	8
146	146	9
148	182	1
144	162	1
174	188	1
34	35	5
126	127	2
175	231	1
114	117	2
168	168	4
101	187	1
51	56	1
141	179	2
226	227	3
156	202	1
203	204	2
167	167	4
120	127	1
2	7	2
202	202	6
6	234	1
59	59	2
14	16	1
201	203	1
177	182	1
39	42	1
14	14	4
141	141	4
76	80	1
128	128	3
103	103	3
109	109	4
98	99	3
154	155	5
137	144	1
37	37	4
104	106	1
138	140	2
160	160	6
180	186	1
58	61	1
142	143	5
18	21	1
68	72	1
46	46	5
78	78	3
144	144	3
170	174	1
215	231	2
22	22	1
234	234	2
160	161	1
65	66	4
14	15	2
57	58	5
53	63	1
143	144	1
169	170	3
146	147	1
163	163	5
96	98	1
185	186	2
161	161	3
61	61	2
203	203	2
10	224	1
128	175	1
82	84	2
77	77	4
47	232	1
122	173	1
225	225	5
88	102	1
153	168	1
160	177	1
74	74	7
154	157	1
161	163	1
55	59	2
175	178	1
192	196	2
18	23	1
224	224	6
2	2	1
7	15	1
125	125	1
15	15	4
204	207	2
215	215	2
140	143	1
153	158	1
122	128	1
129	200	1
120	124	2
46	71	1
51	53	4
50	50	3
82	82	5
12	36	1
145	220	2
112	172	1
11	29	1
205	206	1
170	172	1
23	23	7
12	14	1
136	153	1
187	211	1
107	187	2
14	104	1
38	39	1
190	190	3
75	77	2
169	178	2
167	174	1
2	3	1
25	28	2
130	136	1
12	43	1
169	172	1
13	41	1
164	166	1
75	84	1
189	225	2
39	102	1
86	183	1
159	161	3
187	188	3
188	190	1
98	102	1
7	105	1
152	159	1
7	21	1
40	40	3
8	20	2
139	139	4
230	230	2
114	119	1
208	219	1
171	171	11
199	217	1
151	170	1
127	179	2
224	231	1
60	62	1
144	173	1
119	120	2
162	162	7
127	138	1
31	32	1
221	237	2
69	139	1
79	79	2
67	83	1
115	123	1
65	72	1
230	231	2
132	133	1
84	158	1
221	229	2
71	88	1
30	64	1
111	112	1
210	210	5
184	185	1
96	100	1
28	45	1
33	42	1
34	147	1
35	36	1
10	44	1
62	64	1
42	43	2
32	33	2
99	111	1
172	219	2
122	133	1
21	23	1
190	232	1
185	188	1
147	150	3
219	232	1
21	25	1
163	165	2
132	172	1
166	167	2
142	149	1
23	159	1
61	122	2
240	240	4
192	208	1
6	152	2
20	22	1
196	210	2
85	109	1
211	212	1
24	31	1
31	38	4
49	49	5
25	25	2
108	110	1
66	67	1
65	65	4
60	60	2
3	194	1
129	136	1
131	131	6
152	174	1
178	202	2
235	237	2
170	176	1
78	79	3
122	131	1
124	124	2
172	203	3
12	12	8
66	171	1
212	212	4
211	225	1
1	207	1
199	200	1
37	49	1
113	152	1
116	116	5
48	101	1
6	180	2
21	184	1
47	85	1
69	88	2
48	50	1
81	95	1
167	168	2
182	184	1
219	238	2
198	201	1
107	116	1
53	56	1
128	132	1
34	59	2
5	6	2
1	25	1
208	220	1
114	115	1
44	45	2
227	229	1
39	169	1
63	68	1
64	216	1
208	208	5
147	148	3
203	232	2
182	188	3
200	210	1
201	208	1
229	231	1
123	124	2
136	137	1
31	45	1
133	159	1
140	141	2
131	137	2
204	205	1
198	227	1
117	117	4
158	174	2
175	232	1
11	172	1
53	165	1
108	119	1
45	47	2
23	205	1
100	100	3
207	207	4
181	182	1
0	10	2
239	240	3
99	102	1
8	11	1
51	52	1
126	126	3
106	157	2
46	70	1
160	192	1
38	54	1
3	8	1
156	156	3
106	120	1
179	184	1
54	55	2
18	18	2
101	131	2
28	68	2
144	145	2
74	78	1
152	188	1
72	234	1
71	75	3
115	116	1
205	208	3
22	36	1
86	89	1
13	14	1
38	44	2
208	209	2
46	62	1
178	204	1
121	122	1
43	63	1
227	228	2
14	23	2
152	183	1
76	79	1
198	207	1
8	157	1
212	225	1
48	68	1
112	176	1
39	60	1
67	77	1
142	145	1
63	63	2
56	75	1
153	157	1
2	17	1
20	36	1
99	119	1
99	129	1
0	206	1
119	138	1
169	174	1
23	180	1
137	169	1
39	48	2
15	64	1
128	135	1
171	201	1
37	61	1
38	59	1
151	165	1
81	82	1
28	99	1
91	95	1
143	145	1
64	88	1
31	127	1
109	114	1
120	122	1
176	183	1
63	64	1
35	35	1
149	150	1
153	154	2
137	159	1
105	108	1
15	16	3
181	181	5
18	46	2
160	162	2
140	142	1
32	60	1
166	209	1
42	47	1
14	18	1
70	175	2
115	115	1
61	62	2
2	14	1
212	213	1
124	125	2
125	127	1
23	38	3
0	29	1
39	171	3
132	149	2
73	217	1
143	143	2
187	201	1
218	219	1
62	124	1
152	173	1
116	118	1
23	126	1
38	60	1
129	173	1
39	145	1
188	189	2
219	234	1
204	236	1
12	15	1
145	218	1
108	120	1
152	158	1
10	62	1
58	63	1
10	15	1
106	134	1
30	44	1
207	220	1
129	155	1
20	59	1
186	213	1
67	71	1
13	33	1
126	134	1
8	17	1
118	137	1
29	58	1
103	104	1
190	191	3
3	206	1
52	53	3
193	222	1
58	58	3
86	99	1
173	198	1
140	156	1
104	105	1
33	33	3
127	133	2
76	77	1
83	84	1
189	191	1
163	164	1
30	31	1
214	216	1
213	225	1
3	7	1
136	152	3
163	182	1
221	223	1
17	18	2
42	48	1
171	173	1
193	195	1
23	131	1
15	17	1
135	158	1
174	219	1
47	48	1
57	60	1
50	224	1
157	158	1
53	68	1
159	160	1
185	190	1
215	216	2
229	229	3
68	162	1
3	175	1
159	165	1
45	237	2
201	216	1
182	211	1
192	192	4
216	231	1
0	17	1
102	149	1
12	42	1
27	233	1
102	106	1
54	58	1
149	151	1
10	11	1
169	191	1
216	216	4
63	71	1
136	139	1
149	149	4
17	32	1
56	79	1
110	115	1
19	215	1
68	69	1
13	19	1
7	206	1
16	18	1
197	210	1
11	16	1
133	134	1
55	63	1
183	184	1
201	224	1
5	234	1
204	208	1
121	139	1
45	46	1
29	31	1
72	170	1
43	69	1
228	230	1
162	208	1
135	175	1
34	55	1
9	176	1
43	88	1
4	6	1
209	211	1
164	165	1
35	104	2
102	121	1
84	88	1
153	187	1
125	126	1
41	42	3
10	204	1
153	156	1
0	8	2
38	58	1
17	19	1
146	183	1
6	36	1
198	200	2
171	175	1
112	112	2
145	151	1
114	174	1
127	145	2
19	179	1
19	35	1
11	15	1
71	85	1
157	190	1
103	114	1
41	57	1
45	62	1
37	119	1
107	108	1
200	205	2
172	173	2
0	1	1
83	205	1
128	131	1
196	197	1
152	170	1
23	25	1
40	60	1
65	68	2
54	61	1
173	206	1
74	77	2
136	177	1
235	236	1
67	95	1
1	3	1
232	235	1
103	107	1
190	196	1
127	128	1
48	53	1
194	212	1
165	166	1
4	5	1
218	232	1
25	32	1
194	195	1
96	109	1
84	102	1
20	128	1
148	150	1
67	145	1
63	65	1
37	42	1
54	85	1
10	21	1
154	158	1
190	230	1
113	170	1
210	227	1
50	82	1
113	134	1
81	84	1
41	58	1
167	171	1
48	54	1
29	142	1
50	51	1
189	207	1
121	128	2
47	106	1
73	113	1
197	209	1
2	6	1
80	85	1
84	125	1
3	5	2
109	110	1
169	173	1
30	232	1
119	121	1
196	198	1
81	157	1
134	150	1
205	207	1
36	37	1
27	30	1
135	138	1
168	180	1
33	36	1
4	7	1
124	127	1
5	47	1
214	215	1
144	197	1
126	136	1
137	152	1
35	40	1
41	123	1
44	180	1
27	67	1
180	200	1
152	200	1
45	72	1
131	135	1
65	71	1
184	195	1
16	16	1
145	170	1
