96	156	3
132	132	3
24	25	1
127	127	5
129	130	1
54	54	1
18	18	2
82	82	4
102	103	1
124	124	6
129	129	2
37	38	1
138	138	4
144	148	1
97	98	2
93	142	2
21	21	9
28	28	3
68	69	2
55	55	3
72	72	3
108	125	1
120	120	6
119	119	4
125	125	8
33	33	7
9	9	2
67	68	4
9	11	1
126	126	6
107	107	5
29	31	1
147	147	8
93	141	2
66	93	1
135	135	4
116	116	1
152	152	1
62	63	1
22	22	2
6	6	6
25	25	4
150	150	6
49	49	7
10	10	3
25	27	1
20	21	1
153	154	2
44	45	2
99	99	4
131	131	4
141	141	3
101	101	5
111	133	1
86	92	2
16	16	1
98	98	6
77	77	5
100	100	6
71	71	13
98	99	1
31	31	6
46	46	2
90	90	5
123	123	9
11	12	1
94	95	2
25	148	1
86	86	4
91	91	5
78	78	4
104	149	1
106	106	7
2	158	2
15	19	1
85	85	3
86	88	2
134	134	6
12	32	2
67	67	1
105	106	3
156	157	2
7	31	1
40	41	4
105	105	5
130	132	1
40	40	5
38	38	4
69	69	4
64	64	2
80	81	2
65	65	3
144	144	4
146	146	3
158	158	7
107	110	2
39	40	3
134	138	1
152	157	1
118	119	2
118	118	5
84	84	2
133	133	2
120	121	2
22	23	2
132	134	1
44	44	4
90	114	1
75	112	1
83	84	2
41	42	3
111	112	2
145	145	6
45	46	1
46	47	1
88	91	2
139	139	7
116	135	1
70	71	1
12	12	6
86	124	1
121	123	2
65	68	1
123	126	1
16	17	1
112	113	3
70	70	5
17	17	3
41	41	2
155	155	9
34	39	1
73	74	1
73	73	6
128	128	4
8	9	3
95	95	4
140	140	4
50	51	2
138	139	2
4	4	3
109	109	9
30	31	2
67	69	1
110	112	1
136	136	8
149	150	1
6	7	2
135	136	1
142	142	3
27	27	2
110	110	4
95	131	1
113	114	4
116	117	1
120	123	1
18	50	1
134	137	1
156	156	3
119	120	3
80	107	1
29	94	2
150	151	2
33	42	1
108	111	4
81	83	1
38	42	1
39	42	1
135	137	2
112	112	5
5	5	3
132	133	4
8	8	2
90	94	1
97	131	1
46	95	1
157	157	7
42	42	2
43	43	2
45	45	6
108	108	3
40	150	1
104	111	1
80	80	1
149	149	4
117	117	9
108	109	4
146	148	1
6	150	1
15	16	2
134	135	1
75	95	1
142	143	1
26	27	1
131	132	4
19	19	2
7	8	3
52	52	3
137	137	4
8	10	1
115	116	2
104	104	2
15	17	1
110	111	2
35	42	1
28	29	1
56	65	1
146	147	2
87	87	3
9	10	2
75	98	1
130	130	4
68	68	4
31	33	1
32	32	4
151	151	7
116	142	1
137	139	1
53	53	3
143	143	3
114	114	2
35	35	1
92	92	2
104	105	2
119	137	2
67	71	1
15	15	1
98	101	1
20	20	4
145	146	3
24	24	4
153	153	2
47	47	4
26	26	4
30	30	4
36	47	1
104	106	1
61	61	1
80	109	1
155	156	1
143	144	2
69	84	1
20	27	1
81	82	3
84	85	1
112	116	1
127	141	1
89	89	2
2	2	1
120	136	1
103	103	3
77	112	1
91	92	1
31	50	1
71	85	1
93	93	3
147	148	1
94	145	1
100	101	1
113	113	2
131	138	1
128	151	2
142	147	1
11	14	1
96	96	4
48	49	2
103	104	1
40	46	1
14	14	2
115	115	4
7	7	3
56	56	4
17	119	1
148	148	3
79	81	1
87	90	2
121	121	2
123	125	2
3	3	2
26	44	1
139	140	2
79	79	2
19	49	1
75	75	2
86	89	1
14	15	2
109	111	2
83	83	1
84	92	3
88	88	3
99	100	1
0	0	1
112	114	1
29	95	1
122	122	3
50	55	1
29	29	1
36	36	2
13	35	2
111	113	2
139	141	1
49	51	1
120	122	1
21	97	1
0	100	2
73	75	1
104	112	1
76	76	1
64	116	1
1	1	2
113	115	1
111	111	4
51	51	3
1	2	1
50	50	3
117	118	1
140	141	2
154	155	1
127	128	1
7	151	1
97	97	1
19	20	1
18	36	1
13	14	1
64	65	1
154	154	2
116	118	1
97	110	1
0	1	1
66	66	3
34	35	1
128	129	1
48	52	2
81	81	1
106	107	2
25	26	1
48	48	1
41	68	1
79	123	1
41	43	1
122	141	1
94	94	2
70	82	1
47	50	1
88	89	2
68	120	1
152	153	1
78	80	1
114	115	2
82	97	1
24	97	1
158	159	1
138	140	1
70	98	1
123	134	1
23	23	1
12	20	1
2	3	1
93	116	1
157	158	1
151	152	1
12	18	1
83	87	1
153	158	1
11	11	2
136	137	1
13	33	1
25	39	1
39	149	1
121	122	2
79	80	1
81	84	1
138	142	1
29	77	1
149	154	1
112	120	1
117	123	1
71	72	1
