114	114	6
14	14	3
129	130	2
34	34	2
44	44	3
108	108	2
29	29	4
101	101	8
48	48	4
90	91	1
125	125	7
8	8	6
124	124	4
127	127	5
6	13	1
13	14	2
121	122	1
10	10	2
107	125	1
64	64	3
57	58	1
113	113	3
71	71	3
15	21	1
92	93	1
58	58	3
73	74	2
46	46	2
4	4	6
110	110	4
87	87	1
12	12	2
36	36	3
35	35	3
0	0	3
57	57	3
92	92	6
0	65	1
9	9	3
27	29	1
3	44	1
116	116	3
15	15	3
32	33	1
72	72	4
66	67	1
119	125	1
86	86	1
118	118	5
56	84	1
41	41	1
2	44	1
20	22	1
107	107	7
103	104	1
48	50	1
134	134	4
131	133	1
103	105	2
45	45	6
128	128	4
109	109	3
110	111	2
111	111	4
76	76	3
71	72	3
16	16	1
73	73	2
100	101	1
44	45	2
43	43	1
68	68	3
92	101	1
98	98	8
11	11	5
26	30	2
120	122	2
47	47	2
107	111	1
94	94	3
7	7	3
12	13	2
98	99	1
31	31	3
132	132	2
76	77	2
105	109	1
5	13	1
117	117	2
6	6	2
125	129	1
81	81	2
38	38	1
131	132	2
1	2	2
20	20	3
123	123	2
23	23	1
83	83	3
88	88	3
128	129	1
42	42	1
35	41	1
93	94	5
93	101	1
125	130	1
18	18	3
98	134	1
82	82	5
119	119	3
85	90	1
24	25	2
80	83	2
3	3	2
60	60	4
64	65	1
129	129	2
33	33	3
27	28	2
59	59	2
133	133	2
65	65	5
36	43	1
100	108	2
70	71	1
102	102	2
109	122	1
120	120	8
62	62	3
36	51	1
126	127	1
108	109	1
115	115	2
27	27	6
66	66	2
9	10	1
112	112	2
2	2	3
67	67	2
103	103	3
89	89	3
11	14	1
99	101	1
104	106	1
30	30	1
46	47	2
85	85	1
7	86	1
94	95	2
68	69	2
35	36	2
22	25	1
1	1	3
102	123	1
79	80	1
132	133	3
82	86	1
10	14	1
70	70	4
84	84	1
93	130	1
36	39	1
22	22	3
11	12	2
50	50	2
82	115	1
72	73	1
10	27	1
95	119	1
32	32	4
19	19	2
100	100	1
49	49	2
121	121	2
69	69	2
5	5	3
48	49	1
131	131	1
84	91	1
85	86	1
130	130	2
114	116	1
83	92	1
99	100	2
40	42	1
95	96	1
61	61	3
7	37	1
74	74	1
37	37	1
100	111	1
28	31	1
28	30	1
83	116	1
113	114	3
80	80	2
87	89	1
30	31	1
78	114	1
111	115	1
126	126	1
23	25	1
39	41	1
26	26	1
13	13	1
7	11	1
5	16	1
81	82	1
40	41	1
56	56	1
126	131	1
104	104	1
63	63	1
63	64	1
43	44	1
96	97	1
108	113	1
118	119	1
130	133	1
75	75	1
102	103	1
59	94	1
82	116	1
90	90	1
78	79	1
4	13	1
91	91	1
6	7	1
4	57	1
105	105	1
125	126	1
109	111	1
97	97	1
115	116	1
84	85	1
43	57	1
