126	127	3
66	66	2
103	122	1
120	120	3
79	79	7
62	62	5
97	97	3
0	0	5
7	7	3
39	44	1
39	39	4
0	32	1
4	34	1
91	91	3
60	60	5
108	108	3
61	77	2
35	36	2
20	21	2
117	118	1
65	68	2
100	101	2
20	20	5
17	17	2
129	129	1
134	134	3
5	5	2
21	21	2
26	29	2
0	2	1
58	58	3
56	58	1
27	27	1
2	2	3
127	127	4
69	69	5
42	42	4
40	43	1
26	28	1
126	126	5
74	74	3
123	123	5
35	35	4
85	115	1
78	102	1
116	116	5
71	72	2
29	30	1
130	130	3
96	101	2
119	119	3
12	12	4
68	68	5
44	44	6
15	15	5
128	128	3
28	29	1
103	103	2
36	36	2
7	129	1
115	116	1
91	111	2
92	95	1
100	118	1
54	122	1
85	100	1
32	32	2
100	100	2
40	40	5
34	34	3
46	46	3
93	95	1
18	18	4
14	15	2
117	117	4
133	133	6
27	31	1
89	123	1
57	58	2
81	81	2
70	70	6
123	126	2
38	39	2
82	82	4
122	122	4
42	84	3
14	19	1
39	115	1
24	26	2
80	80	5
5	111	1
99	99	2
133	134	3
64	65	2
105	106	1
47	58	1
76	76	1
98	99	1
101	101	2
121	121	4
6	6	2
26	27	2
98	101	4
103	104	1
112	112	3
75	75	4
8	8	4
31	31	1
125	126	2
37	37	1
23	23	8
10	13	2
92	92	3
59	59	1
121	131	1
12	124	1
43	43	1
106	106	1
33	34	2
78	78	7
132	132	6
26	26	3
115	115	5
64	64	6
11	11	5
31	35	1
30	30	3
102	102	1
13	119	1
38	38	5
113	131	1
57	57	4
107	107	2
93	94	1
118	118	3
105	111	1
25	25	2
18	65	1
63	121	1
94	116	1
5	12	1
41	42	1
35	44	1
8	9	3
84	84	4
13	13	5
73	73	2
31	48	1
94	94	3
77	77	2
17	34	1
34	45	1
69	70	2
18	28	1
20	29	1
37	45	1
113	114	3
10	10	3
6	85	1
48	49	1
85	85	1
62	76	1
9	10	2
98	102	1
90	91	2
22	22	3
88	112	1
13	35	1
132	133	1
109	109	3
2	9	1
56	56	1
40	42	1
71	123	1
45	45	3
4	27	1
65	65	3
61	61	1
3	4	1
94	95	1
73	74	1
63	63	5
68	70	1
2	3	1
71	130	1
109	120	1
11	19	1
1	12	1
44	45	1
100	105	1
88	102	1
3	3	2
61	107	1
124	124	1
9	9	1
83	83	1
116	118	1
4	14	1
102	103	1
125	125	1
121	123	1
114	114	2
90	90	1
111	112	1
87	122	1
104	104	1
97	119	1
34	35	1
103	105	2
60	62	1
55	56	1
9	16	1
89	91	1
10	11	1
4	6	1
132	134	1
15	128	1
100	120	1
48	48	1
29	29	1
76	85	2
89	96	1
76	77	1
110	130	1
1	33	1
20	41	1
9	14	1
105	107	1
91	105	1
4	4	3
112	113	1
4	5	1
111	122	1
119	120	1
14	14	2
96	97	1
16	17	1
131	131	1
89	89	1
28	30	2
22	23	1
118	119	1
33	33	1
12	46	1
108	109	1
35	39	1
71	71	1
114	133	1
111	111	1
10	14	1
24	24	2
67	67	1
11	70	1
86	89	2
80	83	1
37	40	1
27	28	2
8	11	1
85	86	1
93	127	1
109	110	1
17	42	1
20	22	1
108	123	1
97	99	1
18	35	1
42	114	1
86	109	1
77	78	1
126	129	1
93	93	1
6	129	1
22	30	1
87	87	1
57	63	1
78	134	1
44	118	1
113	124	1
94	100	1
95	95	2
58	88	1
55	85	1
58	59	1
12	14	1
