49	50	1
50	50	1
8	8	10
22	22	6
108	108	3
33	33	3
95	96	2
41	41	3
20	20	3
62	71	1
23	23	3
121	121	2
90	90	2
74	74	7
30	30	7
47	47	2
60	61	2
130	130	3
118	118	1
13	13	3
131	131	4
98	98	4
133	135	3
97	97	2
82	96	1
129	131	1
75	79	1
59	59	2
94	117	1
110	110	3
75	75	4
82	84	1
90	91	1
121	129	1
129	129	3
77	77	2
11	37	1
103	103	5
82	82	2
14	16	3
8	21	1
142	142	1
136	138	1
28	28	3
135	140	2
128	128	2
131	132	2
29	29	7
38	38	3
79	79	3
85	87	1
1	1	3
65	65	5
32	32	5
76	78	2
3	3	4
53	53	1
56	56	2
102	103	2
68	68	3
40	41	1
113	113	3
77	79	1
42	42	5
58	58	2
16	16	4
24	24	2
92	92	2
78	107	1
135	139	2
89	89	2
48	49	2
36	37	1
141	141	5
77	78	2
95	95	3
76	82	1
73	73	3
116	116	1
123	123	6
112	113	2
100	127	1
115	115	2
66	66	2
91	91	3
144	144	6
134	134	2
11	11	6
47	64	1
134	135	1
9	43	1
88	89	2
61	102	1
117	117	2
85	90	1
57	57	1
105	105	2
83	95	1
98	142	1
26	26	3
83	83	3
6	10	1
87	87	2
14	14	2
51	107	1
54	55	1
138	139	1
119	119	3
41	49	2
10	11	1
120	120	3
96	96	1
70	70	2
80	80	6
96	117	1
135	135	3
31	31	3
72	121	1
59	119	1
84	85	1
133	133	4
88	88	1
13	14	2
62	62	2
128	129	5
48	48	7
67	67	3
55	58	1
28	29	1
37	106	2
82	86	1
116	117	2
64	65	2
135	136	1
32	71	1
89	112	1
64	64	1
53	54	1
126	130	1
0	1	1
136	136	4
6	6	3
122	123	1
37	38	1
60	60	2
138	138	7
21	48	1
61	61	2
115	116	2
111	111	1
104	104	3
102	102	4
145	145	1
35	35	1
20	41	1
4	4	2
109	109	2
52	52	4
132	132	1
40	97	1
114	116	2
139	139	3
125	125	4
120	121	2
43	43	1
49	49	2
53	55	1
79	80	1
9	9	1
50	51	3
140	140	5
40	40	1
113	114	1
107	107	5
21	21	3
100	142	1
51	52	1
105	106	2
25	25	2
12	23	1
36	36	2
124	124	3
135	138	3
78	78	1
3	6	1
101	101	3
123	124	1
24	25	1
33	36	2
2	2	2
69	69	3
118	119	1
121	123	2
8	28	1
75	82	1
125	126	3
86	87	1
76	76	1
132	135	1
125	141	1
34	34	1
107	108	1
81	81	2
111	112	1
128	131	1
27	27	4
71	74	2
97	98	1
11	84	1
130	131	1
55	55	4
140	141	2
126	126	1
49	56	1
65	66	1
106	106	2
91	92	2
99	100	2
80	105	1
80	81	1
122	122	1
92	108	1
15	16	1
49	67	1
86	86	1
1	18	2
76	77	2
134	140	1
33	37	1
71	71	2
8	9	1
124	126	1
84	92	1
115	134	1
22	23	1
111	114	2
10	10	1
93	93	2
85	86	1
72	72	1
92	95	1
18	18	1
136	139	1
146	146	1
58	59	1
97	99	1
0	0	1
96	140	1
56	74	1
43	63	1
109	135	1
37	37	1
93	131	1
16	17	1
88	90	1
59	107	1
127	129	1
28	90	1
6	19	1
42	43	2
29	33	1
74	81	1
9	107	2
98	141	1
136	137	1
36	39	1
20	21	1
121	126	1
36	111	1
73	74	1
10	41	1
55	95	1
43	47	1
74	123	1
36	43	1
30	96	1
68	70	1
124	125	1
106	139	1
19	20	1
127	127	1
