148	148	6
147	148	1
189	192	2
103	103	1
68	68	2
30	76	1
135	135	4
47	47	4
141	141	2
12	38	1
32	32	2
7	7	1
143	150	1
1	7	2
112	112	3
155	155	3
104	111	1
147	147	1
189	190	1
19	19	4
31	31	6
153	153	1
16	65	1
8	8	1
132	133	2
188	188	3
5	9	2
171	171	2
24	26	1
17	121	1
178	189	1
85	137	1
74	86	1
142	142	4
18	19	2
138	138	1
78	78	3
170	170	3
16	177	1
4	8	1
123	125	2
156	156	1
167	167	3
25	26	1
49	49	3
185	185	1
134	134	1
24	24	2
58	59	1
169	169	2
74	75	2
114	145	1
113	113	2
3	3	5
34	35	1
72	72	2
182	182	2
131	131	1
102	102	1
60	60	1
54	109	1
178	190	1
49	52	1
14	72	1
140	140	1
44	184	1
54	97	1
109	115	1
9	9	1
10	87	1
122	123	1
26	26	3
68	81	1
143	143	3
123	123	1
28	29	1
8	9	2
152	186	1
175	175	1
20	21	1
79	79	3
133	133	2
0	188	1
143	146	2
144	146	1
42	42	3
10	10	2
59	59	1
22	23	1
12	12	3
36	36	1
82	83	1
28	28	1
125	125	2
1	2	1
55	55	1
161	163	2
23	23	1
6	6	1
10	14	1
32	33	2
84	84	1
29	61	1
14	14	2
29	29	2
62	63	1
105	105	1
37	37	1
156	186	1
98	98	2
172	175	1
62	62	3
169	191	1
165	166	1
55	56	1
54	54	2
21	21	1
137	139	1
5	6	5
4	37	1
43	43	1
177	177	2
25	36	2
13	13	1
121	122	1
50	50	1
163	180	1
172	172	2
16	38	1
24	30	1
22	22	1
45	100	1
16	23	2
183	183	2
64	72	1
37	38	1
151	171	1
191	191	1
149	184	1
158	159	1
44	179	1
72	73	1
53	53	1
143	145	1
197	197	1
40	40	2
190	190	1
104	104	1
0	47	1
113	168	1
63	63	1
170	171	2
39	39	2
13	52	1
162	162	2
184	184	3
34	34	2
52	52	1
145	145	2
11	11	3
4	12	1
108	108	2
164	169	2
192	192	2
79	89	1
109	110	1
20	20	1
80	83	1
46	127	1
124	124	1
16	16	2
95	96	1
154	155	1
150	150	1
152	159	1
41	41	2
179	179	1
187	188	1
108	109	1
76	76	1
35	35	1
61	75	1
126	126	2
193	193	1
65	65	1
161	174	1
181	182	1
150	171	1
157	158	1
32	45	1
163	163	1
173	173	1
81	81	1
25	28	1
56	56	1
176	176	1
159	159	1
180	189	1
194	194	1
18	18	1
30	36	1
30	30	2
186	186	1
3	21	2
48	48	1
155	186	1
131	133	1
90	90	1
25	25	1
77	77	1
17	21	1
152	155	1
27	28	1
187	189	1
107	130	1
70	70	1
102	107	1
168	191	1
127	127	1
171	172	1
42	72	1
23	69	1
64	64	1
51	108	2
160	160	1
130	131	1
46	46	1
31	70	1
52	55	1
58	61	1
70	71	1
176	177	1
83	137	1
124	125	1
121	121	1
149	149	1
35	68	1
2	2	1
164	164	1
