207	207	3
45	45	2
129	148	1
129	129	1
40	55	2
49	126	1
14	23	2
27	27	4
114	126	1
103	103	6
47	47	2
38	38	7
29	29	2
97	241	1
27	28	1
121	161	1
200	238	2
118	155	1
134	134	1
142	142	1
41	41	1
172	172	3
225	225	1
233	233	2
229	232	1
154	154	1
178	181	1
188	188	1
145	145	2
113	113	2
170	170	4
217	220	1
40	54	1
49	49	2
163	163	1
152	152	1
173	173	2
76	76	1
120	120	1
180	180	1
2	2	3
195	200	1
106	107	1
184	184	4
9	33	1
145	146	2
111	111	1
148	151	2
33	37	1
196	196	1
71	71	1
214	215	1
30	61	3
217	217	1
34	35	4
70	70	5
126	149	1
153	154	2
137	137	1
144	146	1
104	104	1
127	145	1
163	173	1
160	161	3
78	78	2
52	73	1
121	121	3
149	155	1
154	155	1
85	85	3
164	164	4
10	10	4
151	164	1
43	43	3
194	200	1
0	21	3
158	158	3
106	109	1
20	20	1
150	153	1
106	118	2
64	64	1
217	218	1
60	60	3
102	102	1
186	187	1
187	187	2
205	206	1
39	39	1
27	41	1
185	187	1
15	49	1
131	145	2
61	62	1
210	229	2
146	162	1
133	133	2
26	26	1
171	171	2
239	239	2
223	223	1
230	234	1
150	152	2
203	203	1
75	75	4
225	227	2
208	208	1
179	180	1
5	14	1
28	47	2
37	38	2
166	166	3
186	186	2
57	57	1
86	86	1
40	41	2
13	196	1
4	12	1
211	211	1
230	230	1
136	146	1
72	81	1
34	34	2
160	171	1
148	148	2
46	46	1
18	34	2
238	238	1
135	135	4
163	172	1
168	187	1
106	189	1
82	82	3
160	193	2
136	136	1
152	153	1
17	17	2
35	36	1
26	27	1
16	38	1
147	147	1
72	73	1
96	96	2
51	51	1
159	159	3
35	35	1
167	168	1
101	123	1
175	175	2
170	196	1
144	160	1
88	88	1
39	40	1
214	216	1
66	66	2
119	119	1
127	127	3
83	106	1
206	230	1
153	153	4
64	126	1
116	116	3
192	192	1
160	160	2
101	102	1
212	212	1
165	165	2
100	100	3
164	175	1
120	121	1
176	176	3
43	54	1
117	117	1
1	21	1
28	28	1
18	18	1
158	175	1
68	68	3
230	233	1
152	172	1
191	191	2
121	131	1
236	236	1
96	97	1
56	56	1
30	30	3
5	153	1
115	115	1
70	74	1
231	231	4
190	190	1
7	23	1
122	122	1
16	16	2
6	6	1
65	65	1
105	105	1
0	0	4
51	54	1
121	127	1
12	12	3
55	55	2
74	74	1
76	77	1
158	159	1
201	201	2
178	178	2
69	69	1
0	3	1
22	31	1
174	192	1
71	219	1
7	7	2
138	138	1
130	137	1
62	62	4
22	183	1
107	108	1
170	185	1
25	25	1
18	20	1
8	8	2
59	60	1
98	99	1
12	15	1
2	98	1
118	118	1
154	157	1
210	213	1
149	149	2
160	240	1
155	160	1
60	149	1
5	5	1
25	62	2
63	63	3
228	228	2
197	209	1
35	194	3
69	73	1
216	229	2
15	20	1
80	84	2
107	107	1
19	19	1
67	106	1
99	99	2
150	150	2
139	162	3
110	128	1
177	177	3
232	233	1
58	71	1
231	240	2
155	157	2
156	156	5
191	193	1
32	32	2
185	199	1
32	37	1
221	224	1
6	41	1
58	68	1
97	97	1
9	9	2
56	77	1
236	241	1
119	138	1
1	3	1
164	165	1
205	212	1
182	183	1
13	14	1
80	80	1
197	197	1
72	72	1
177	199	1
28	30	1
33	33	3
140	140	1
179	189	1
151	151	2
28	44	1
216	216	1
59	59	2
136	139	1
179	179	1
38	56	1
17	25	1
60	72	1
134	146	1
63	115	1
147	148	1
211	213	1
115	125	1
24	33	1
83	83	1
149	163	1
53	53	2
139	141	1
219	219	1
138	179	1
58	76	1
155	155	1
185	202	1
79	81	1
33	188	1
175	176	2
40	49	1
40	40	3
130	167	1
44	74	2
3	3	1
20	62	1
51	62	1
21	21	1
24	24	1
207	222	1
47	69	2
11	11	1
42	47	1
62	63	1
182	182	1
68	76	1
67	67	1
49	51	1
97	101	1
105	118	1
54	54	1
153	160	1
166	179	1
4	7	1
161	162	1
42	42	1
111	120	1
36	37	1
24	25	1
143	176	1
165	170	1
112	112	1
80	148	2
215	217	1
184	185	1
123	123	1
229	229	1
217	242	1
39	58	1
169	188	1
213	213	1
201	203	1
64	76	1
3	5	2
169	169	1
192	197	1
147	151	1
140	165	1
221	221	1
201	217	1
33	34	1
222	222	1
185	185	2
69	76	1
172	175	1
177	178	1
30	42	1
169	170	1
197	199	1
48	49	1
174	174	1
143	158	1
188	189	1
77	77	1
161	163	1
38	71	1
70	83	1
212	224	1
52	63	1
50	50	1
128	132	1
138	143	1
