167	168	4
157	157	4
29	30	5
184	186	1
98	98	4
30	31	4
155	155	6
164	164	6
58	58	4
139	139	7
115	117	1
0	0	6
32	33	2
186	186	7
24	48	2
69	69	5
81	83	2
23	149	1
5	5	2
207	220	1
64	64	3
144	145	1
206	218	3
68	68	7
35	36	6
153	157	4
65	65	4
159	159	4
53	106	1
204	206	2
188	195	2
58	61	1
141	142	2
182	182	7
71	71	4
206	227	1
15	15	2
10	32	1
84	84	5
77	77	4
47	48	2
165	165	3
49	49	4
191	199	1
29	29	12
2	7	2
201	201	5
34	34	6
23	23	5
27	27	7
181	181	3
112	112	1
25	25	4
124	125	10
9	9	1
139	143	1
73	73	4
142	143	2
67	67	2
85	242	1
52	53	1
176	177	1
117	117	3
46	46	8
103	103	6
191	197	1
166	166	2
203	204	1
22	81	3
224	224	4
148	148	5
162	182	2
155	157	3
40	41	6
6	7	2
210	213	1
18	19	1
236	236	2
35	35	3
186	187	2
102	127	4
156	157	3
181	183	1
147	149	1
102	102	4
242	242	2
213	213	1
171	171	10
76	78	2
6	6	1
234	234	3
223	223	5
199	199	4
133	133	4
217	217	3
200	202	1
63	63	2
188	188	4
153	153	5
150	150	5
105	126	1
128	133	1
237	237	2
224	226	2
121	121	3
190	190	1
157	178	1
173	173	6
59	60	3
31	32	4
230	231	2
136	136	4
47	47	5
34	36	1
113	178	2
145	145	2
0	2	1
116	117	1
101	102	3
86	105	1
207	208	2
172	172	8
142	142	2
121	124	1
7	7	7
109	137	2
76	76	8
239	239	3
3	7	1
115	126	1
170	170	1
20	42	1
177	178	3
149	149	3
123	123	7
195	195	3
232	232	1
12	14	2
175	177	1
61	62	1
192	200	2
10	10	4
107	109	2
15	20	2
18	18	6
202	231	1
83	83	1
42	58	1
179	179	8
168	168	6
61	71	1
82	83	3
30	30	2
26	26	3
116	116	1
99	99	8
41	41	2
163	163	5
98	99	1
125	126	2
202	202	5
60	60	3
7	8	3
196	196	1
124	124	4
147	147	2
5	22	1
155	156	2
175	175	3
17	17	7
70	70	8
39	39	7
25	203	1
72	72	3
240	240	2
104	104	2
187	187	3
45	45	2
208	208	2
206	217	1
19	19	5
23	108	3
72	73	2
69	70	1
152	152	3
135	135	3
162	162	3
163	167	1
36	36	2
125	125	4
66	66	4
156	162	3
55	55	1
197	206	1
126	126	4
185	185	6
53	187	1
78	79	1
205	205	2
46	47	1
133	184	1
28	171	1
28	29	1
17	84	2
220	220	1
132	145	2
60	69	1
24	24	5
74	74	2
128	129	1
30	64	1
50	50	6
113	113	5
217	232	1
139	140	2
200	200	6
61	193	1
111	112	1
40	40	5
39	60	1
32	61	2
197	197	3
238	239	1
136	137	2
51	51	5
233	233	4
132	133	2
128	128	6
140	140	2
234	235	1
170	171	2
32	32	4
187	200	2
25	45	1
214	215	1
177	177	3
9	177	1
61	61	3
176	176	1
4	5	1
37	37	7
140	142	1
8	8	5
194	194	3
127	127	5
14	36	1
54	169	1
145	146	2
234	236	1
179	181	2
187	188	1
143	160	3
156	156	4
118	118	3
85	85	4
1	1	4
44	45	3
101	101	3
182	185	1
13	13	2
133	167	1
158	159	1
104	105	3
15	19	1
22	22	5
134	134	3
196	197	1
12	23	2
177	237	1
175	178	1
64	67	1
138	139	1
118	187	1
203	203	1
37	220	1
5	18	1
135	169	1
34	154	1
180	180	3
16	16	2
210	210	3
167	177	1
159	181	1
154	157	1
79	80	1
75	78	1
21	23	2
140	141	3
12	13	2
109	109	2
42	42	1
205	206	2
23	152	1
150	162	2
95	156	1
159	177	2
220	221	1
117	118	1
229	229	4
131	238	1
121	127	1
200	230	1
233	234	1
114	114	1
140	161	1
27	29	1
110	111	2
221	221	4
196	199	1
222	222	2
171	172	1
2	2	3
11	11	4
119	119	6
192	192	2
182	183	1
197	242	1
119	121	2
59	82	1
119	157	1
178	178	3
61	69	2
11	15	1
54	170	2
73	74	2
211	211	3
216	216	1
160	160	4
49	53	1
17	42	1
154	154	1
221	222	1
81	81	1
158	158	5
15	16	1
212	212	2
183	183	2
85	119	1
151	154	1
85	106	1
158	188	1
206	233	1
31	31	5
147	194	1
153	154	1
123	124	1
3	4	2
214	216	1
79	79	4
43	43	3
154	155	5
7	23	1
39	125	1
49	50	2
171	175	1
33	37	2
208	227	1
198	198	2
156	165	2
188	189	1
206	206	1
159	160	2
151	151	2
144	144	1
193	196	2
181	182	1
89	89	2
194	213	1
33	42	1
130	130	2
67	68	2
59	59	1
52	52	1
172	173	1
52	57	2
34	35	1
188	190	3
9	219	2
20	196	1
180	182	1
174	174	1
57	59	1
150	157	1
46	63	1
56	57	1
23	33	1
65	69	3
144	147	1
37	38	1
146	160	1
96	96	1
139	141	1
61	85	2
33	33	2
145	160	1
33	34	1
104	183	1
79	117	1
82	82	2
164	165	1
97	97	2
201	230	1
14	14	2
120	128	1
39	59	1
69	71	1
19	36	1
17	223	2
6	53	3
170	175	1
209	216	2
161	161	2
2	188	1
45	46	3
19	21	1
110	110	2
18	41	1
95	101	1
113	119	1
60	71	1
227	227	4
106	106	4
122	123	2
24	113	1
104	114	1
180	181	1
112	169	1
27	28	1
151	152	1
60	61	1
39	42	2
1	2	2
201	218	2
137	137	2
203	219	2
80	80	3
104	161	1
167	167	3
56	56	3
136	145	1
178	179	1
145	152	1
12	12	3
134	137	1
169	175	2
63	80	1
114	140	1
3	13	1
33	81	1
38	44	1
11	30	2
120	120	3
27	46	2
26	28	2
26	47	1
21	21	4
226	226	1
103	104	1
20	20	1
101	110	1
179	184	1
53	53	1
113	167	1
173	174	3
208	217	1
112	119	1
81	104	1
3	8	2
64	65	2
28	30	2
4	22	1
38	39	1
122	146	1
52	82	1
241	241	1
107	107	1
124	181	1
138	151	1
34	155	1
225	225	3
64	70	2
144	166	1
15	17	1
135	137	1
185	186	1
176	178	1
2	3	2
103	113	1
211	212	1
61	63	1
37	47	1
50	51	2
190	191	2
54	55	1
152	153	1
0	1	1
222	223	1
189	192	1
152	158	1
211	227	1
62	80	1
143	147	1
231	231	3
70	71	1
219	219	2
48	53	1
63	75	2
38	38	1
14	208	1
63	87	1
5	51	2
88	120	1
229	230	1
65	98	1
59	201	1
74	75	1
191	202	1
19	20	1
16	32	3
107	108	2
71	74	1
88	88	1
20	23	1
143	144	1
145	178	1
48	50	1
111	170	1
118	119	1
3	3	1
28	172	1
107	123	1
238	241	1
194	195	2
105	105	1
68	69	1
213	214	2
54	187	1
3	16	2
48	48	1
192	201	1
36	37	1
156	180	1
139	191	2
137	138	1
166	168	1
108	108	2
81	82	1
122	122	2
191	205	1
150	152	1
169	169	2
204	204	1
123	153	2
172	177	1
13	229	1
204	205	1
171	220	1
44	44	2
13	14	1
32	36	2
191	191	2
160	161	1
118	122	1
146	146	1
129	129	1
183	185	1
193	193	1
228	228	2
235	236	1
39	48	1
33	56	1
69	75	1
159	169	1
27	69	1
82	84	1
65	67	1
182	188	1
122	127	1
138	138	1
117	127	1
116	118	1
184	184	1
33	55	1
226	227	1
28	28	2
23	50	1
33	48	2
66	67	1
181	235	1
161	162	1
84	178	1
62	84	1
55	59	1
21	25	1
113	118	1
99	101	1
107	121	1
112	113	1
97	177	1
22	108	1
209	210	1
174	175	1
161	164	1
18	48	1
57	58	1
103	105	1
65	68	1
114	115	1
61	106	1
100	100	1
171	173	1
31	86	1
231	235	1
38	219	1
144	179	1
86	86	1
222	224	1
78	78	1
209	209	1
156	175	1
133	137	1
