89	89	2
8	8	5
0	0	3
107	108	2
17	17	1
85	86	1
152	154	3
121	121	3
98	129	1
53	54	2
47	47	3
17	21	1
151	151	8
23	24	2
105	105	6
131	131	7
81	81	6
44	44	2
45	45	5
128	128	9
64	105	5
44	45	1
119	119	4
12	138	1
139	139	5
113	113	3
101	101	7
92	93	3
68	142	1
23	139	1
77	77	4
84	84	3
62	62	3
97	97	6
113	114	1
127	127	6
7	8	1
49	51	2
112	112	9
91	112	2
121	123	1
7	7	6
124	124	5
158	158	7
156	156	7
79	80	1
48	48	3
117	117	1
132	132	6
107	127	1
133	133	5
68	83	1
155	155	10
71	77	1
99	99	3
106	106	4
21	21	6
66	71	1
148	148	8
150	150	3
111	111	4
27	27	6
12	12	3
134	136	2
137	137	3
26	26	3
90	96	3
63	63	3
91	111	1
138	152	1
147	148	1
95	95	3
98	131	1
1	1	3
116	116	1
124	125	1
103	104	2
136	137	1
84	112	1
43	43	7
108	108	2
2	2	2
117	122	1
23	23	3
138	141	2
86	86	6
157	158	1
135	135	3
83	86	1
96	96	5
109	109	4
100	100	7
27	48	2
24	24	2
20	20	3
93	93	3
110	110	1
114	115	1
93	111	2
129	150	2
0	3	1
140	140	5
31	32	4
93	116	1
135	143	1
91	97	2
142	143	1
37	38	4
141	141	6
85	94	3
64	64	3
10	10	3
22	22	1
40	42	4
6	6	2
13	13	7
118	120	1
119	120	1
85	85	1
154	155	2
16	16	4
78	108	1
136	136	6
30	30	2
126	126	4
32	32	2
81	82	1
140	142	1
129	129	2
144	146	2
17	20	1
146	147	2
8	32	1
108	116	2
107	107	5
11	32	3
66	66	2
80	80	3
92	92	4
4	135	1
72	101	1
149	149	2
67	67	6
50	50	1
90	90	2
132	133	2
143	143	3
91	91	4
32	51	1
118	118	5
94	95	2
130	151	2
37	37	1
92	130	1
55	57	1
35	36	2
2	7	1
47	50	2
70	70	1
106	156	1
68	68	1
33	34	1
67	140	1
65	91	1
3	140	2
145	147	3
116	127	1
109	111	1
104	104	2
126	127	2
38	38	3
76	76	1
64	87	1
85	95	1
120	120	2
75	75	3
13	15	1
115	115	2
79	79	2
19	88	1
130	131	4
113	115	1
91	133	1
11	12	1
99	105	1
10	31	1
66	86	1
32	38	2
117	134	1
85	87	1
121	157	1
140	148	1
71	112	1
70	71	2
11	11	2
91	92	1
147	147	2
117	118	4
106	150	1
123	123	2
116	120	1
6	158	1
122	122	2
31	31	2
40	41	1
88	89	2
141	142	1
17	41	1
73	73	1
106	131	2
23	157	2
39	40	1
154	154	7
39	39	1
19	21	1
128	150	1
8	69	1
91	105	1
123	134	1
155	157	1
18	18	1
13	16	2
102	102	3
96	123	1
4	4	2
29	51	1
4	134	2
127	138	1
17	18	1
31	135	2
114	114	2
132	157	1
120	121	1
112	113	1
33	33	1
5	6	2
112	138	1
125	125	3
115	116	1
78	78	4
142	142	4
122	124	1
40	40	2
138	140	1
134	135	1
9	89	1
20	21	1
82	82	3
86	87	1
117	120	1
19	20	1
146	146	1
71	71	5
149	151	1
134	134	3
16	50	1
153	153	1
29	29	2
135	152	1
145	158	1
51	52	1
79	84	1
91	122	1
32	36	1
65	65	1
35	43	1
105	106	2
16	22	1
25	25	4
67	68	4
46	46	1
123	137	1
117	119	1
138	138	2
32	35	1
106	128	2
151	157	1
45	100	1
24	25	1
136	138	1
28	28	1
87	88	1
94	109	2
103	140	1
109	113	1
34	34	2
92	126	1
19	134	1
144	144	1
110	113	2
91	123	1
3	4	2
87	87	1
102	150	1
7	26	1
148	149	1
73	105	2
18	19	1
76	83	2
123	124	1
42	42	1
130	130	1
95	98	1
121	122	1
90	111	1
53	56	1
105	158	1
11	135	1
135	136	2
157	157	3
8	55	1
73	142	1
8	149	1
15	15	1
134	144	1
106	127	1
48	49	1
28	50	1
75	106	2
14	15	1
99	104	1
99	100	1
78	79	1
84	116	1
90	91	1
138	151	1
82	87	1
48	50	1
159	159	1
85	90	1
93	131	1
29	42	1
84	105	1
145	145	1
54	54	1
106	107	1
110	116	1
94	94	1
103	105	1
153	154	1
49	57	1
88	88	1
115	144	1
36	36	1
12	32	1
158	159	1
144	145	1
37	44	1
86	110	1
134	137	1
140	141	1
86	94	1
5	5	1
