79	79	5
92	93	2
98	98	7
39	130	1
48	103	1
27	27	5
148	148	15
145	146	6
105	106	2
142	142	8
124	124	3
147	147	8
132	132	9
49	49	2
9	15	2
67	67	4
86	116	2
104	104	8
96	96	4
5	23	1
87	87	4
45	45	6
38	55	1
102	104	1
124	125	6
99	99	7
119	119	4
144	144	2
143	150	1
115	119	1
114	114	6
151	152	5
18	39	1
78	87	1
152	152	3
133	134	2
28	45	1
136	137	3
44	45	2
63	107	1
29	29	4
128	128	6
151	151	10
48	50	1
25	25	4
133	133	2
89	90	2
64	94	1
16	19	1
30	33	1
70	70	3
127	127	15
149	150	3
146	146	10
143	143	7
15	15	6
94	94	8
158	158	4
16	18	3
17	17	11
134	134	7
81	85	2
137	137	7
123	123	6
108	108	5
102	133	1
79	80	3
92	92	10
80	83	1
93	109	3
39	40	1
141	141	10
112	115	2
137	139	2
38	38	6
42	42	6
32	32	2
117	125	1
85	85	7
125	126	2
21	62	1
88	89	6
131	133	1
71	71	8
123	133	1
142	145	2
33	55	1
125	125	5
10	10	6
16	16	3
88	88	1
3	138	1
112	112	4
20	20	4
157	157	6
131	131	8
120	124	1
117	119	1
91	91	6
131	153	2
29	30	1
77	77	8
110	119	1
41	41	4
136	136	5
18	25	1
82	83	1
93	94	3
116	140	1
22	22	2
80	81	2
90	90	11
126	126	8
126	127	2
64	64	4
101	101	3
78	78	3
130	130	7
35	106	1
13	14	2
105	105	13
98	100	3
150	150	9
157	158	2
118	142	3
97	97	7
12	35	1
106	106	4
155	156	1
120	121	2
121	121	5
30	30	3
51	54	2
28	29	3
34	34	2
156	156	4
46	62	1
36	36	6
103	104	2
4	4	4
83	91	1
71	122	2
47	47	6
33	33	1
103	103	3
69	69	3
70	71	4
123	125	2
117	117	7
107	107	7
91	117	1
27	28	1
66	66	6
113	113	3
28	28	5
31	139	1
51	51	3
113	115	2
118	124	1
73	156	1
23	23	3
118	119	3
96	120	1
138	138	11
90	150	1
84	84	3
139	139	6
12	12	3
115	115	3
40	42	1
6	6	2
73	73	6
154	155	8
97	99	2
7	7	5
65	65	4
107	108	1
93	93	4
9	9	2
119	120	4
14	14	4
37	37	3
95	96	1
134	136	2
141	143	1
80	82	2
53	53	1
34	109	2
47	56	1
155	155	2
88	107	1
3	3	3
46	46	6
9	10	1
148	151	1
111	112	3
112	143	2
34	44	1
118	120	2
17	18	3
87	89	1
55	55	4
45	47	3
92	96	2
134	138	1
109	109	3
118	118	3
22	43	1
117	118	2
134	146	1
80	80	4
14	15	1
116	135	2
95	105	1
104	122	1
24	24	5
122	122	3
110	110	7
17	45	1
29	39	1
63	94	1
77	78	2
5	5	5
95	119	1
135	137	1
63	64	4
99	100	1
64	99	1
12	89	1
0	0	5
57	58	1
47	147	1
141	148	1
127	134	1
96	153	1
68	87	1
98	102	1
7	22	2
127	148	1
16	17	1
37	40	1
6	13	1
63	63	1
75	82	1
13	42	1
130	131	4
68	68	3
39	95	2
95	120	2
71	74	1
8	137	1
49	50	1
36	37	1
108	116	1
114	121	1
39	39	4
120	144	1
78	149	1
122	146	2
81	82	3
116	120	1
65	130	1
32	33	1
120	133	1
153	153	3
22	23	1
154	154	1
88	91	2
115	116	3
145	147	3
50	51	2
85	86	1
22	92	1
115	145	1
139	148	1
107	158	1
124	140	1
140	141	5
134	147	2
97	120	1
106	150	1
135	136	1
110	121	1
1	1	2
111	114	2
95	95	5
119	154	1
43	43	6
64	116	1
44	44	5
63	89	2
141	142	2
23	24	1
15	17	3
132	140	1
7	11	1
11	11	4
91	111	1
106	107	4
134	149	1
117	145	2
16	22	1
69	92	1
21	21	2
121	122	5
42	44	2
36	40	1
47	48	3
158	159	1
108	117	1
18	18	3
66	67	3
33	34	1
42	126	1
133	140	1
7	30	1
116	116	6
131	132	3
119	143	1
109	122	1
112	121	1
135	135	3
140	140	4
125	143	1
10	127	1
35	35	1
77	106	1
79	82	1
89	89	5
27	29	2
83	85	1
83	106	1
106	135	1
91	110	1
144	145	3
62	63	2
42	55	1
25	39	2
14	33	1
26	26	3
31	32	1
111	111	3
144	149	1
129	129	3
104	138	1
132	133	3
19	37	1
32	139	1
91	93	2
102	102	1
124	145	1
6	14	1
8	39	1
103	150	1
135	140	1
51	91	1
24	25	3
82	94	1
92	106	2
134	135	2
70	99	1
137	138	1
50	50	4
105	155	1
2	108	1
100	100	1
11	13	1
112	113	1
8	12	1
135	138	1
132	138	1
86	86	2
52	93	1
137	144	1
145	145	7
108	110	1
32	39	1
118	122	1
57	83	1
62	110	1
12	31	1
139	140	1
75	75	1
124	135	1
148	152	1
73	74	1
131	149	2
97	139	1
108	109	1
66	71	2
12	90	1
67	88	2
6	7	1
76	76	1
66	69	1
118	121	1
144	146	2
5	6	1
66	72	1
123	126	1
20	37	1
44	51	1
44	73	1
48	48	1
83	83	2
67	68	1
41	52	1
57	61	1
8	11	1
87	118	1
120	139	1
20	21	1
82	82	1
96	103	1
25	29	1
11	34	2
119	132	1
127	138	2
20	22	1
64	79	2
134	137	1
123	127	1
96	97	1
31	31	2
56	56	1
114	117	1
120	120	3
10	35	1
116	141	1
116	153	1
63	84	1
47	70	1
54	54	2
18	20	3
33	35	1
121	157	1
119	122	1
7	8	1
54	55	1
10	11	1
114	137	1
98	99	1
97	128	1
91	92	2
2	2	1
52	52	1
72	73	2
13	13	2
96	138	1
27	51	1
44	55	1
70	110	1
47	55	1
86	146	1
108	119	1
123	124	2
40	81	1
24	39	1
39	43	2
153	154	1
114	116	1
102	103	1
76	99	1
112	116	1
8	23	1
28	55	1
72	72	1
19	19	2
117	120	2
8	8	3
24	27	1
84	105	1
87	109	1
114	115	1
129	130	1
29	50	1
42	43	1
3	75	1
137	142	1
40	40	1
97	149	1
11	90	1
149	149	1
6	44	1
133	151	1
127	152	1
87	92	1
96	104	1
85	109	1
114	133	1
126	134	1
11	19	1
67	69	1
159	159	1
35	52	1
139	157	1
77	101	1
127	128	1
65	66	1
116	130	1
65	128	1
1	2	1
111	137	1
90	91	1
119	136	1
156	158	1
