153	153	1
65	70	1
90	116	1
189	189	2
167	168	1
129	140	2
166	166	4
10	15	2
22	79	1
102	102	1
5	5	3
178	178	3
127	127	4
157	157	2
27	27	3
182	182	3
48	48	2
188	188	3
55	55	2
28	28	1
54	54	2
5	38	2
155	155	1
59	59	2
10	11	2
99	101	1
35	35	2
140	140	3
182	189	1
100	106	1
78	78	1
144	144	4
76	95	2
110	110	2
124	125	3
98	98	2
7	7	1
126	149	1
172	173	1
40	40	1
57	57	4
141	141	1
10	10	4
138	138	4
106	121	1
73	73	3
60	60	1
14	14	2
23	23	3
122	122	1
142	142	3
41	41	2
55	123	1
86	87	1
23	47	2
140	146	1
144	145	2
10	13	2
134	159	1
136	136	1
80	111	1
96	124	1
113	127	1
115	115	6
146	146	2
134	150	1
65	65	1
190	190	4
110	159	1
149	150	1
124	126	1
126	127	2
170	172	1
74	95	1
92	94	1
181	182	2
25	39	1
22	22	2
11	12	1
99	99	1
169	169	1
7	8	1
25	27	1
81	127	1
88	88	3
53	103	2
143	143	2
19	19	2
91	91	1
107	155	1
5	152	1
9	11	1
168	176	1
136	137	1
150	150	1
117	117	1
63	63	4
131	152	1
33	77	1
156	158	1
132	132	1
153	169	1
114	114	1
153	154	1
134	134	1
135	135	1
77	77	3
68	73	2
129	145	1
126	126	1
115	125	2
146	147	1
68	68	2
100	103	1
65	94	1
70	70	1
2	2	1
48	56	1
121	149	1
105	105	3
37	37	2
114	126	1
109	109	1
152	152	2
65	66	1
42	44	1
89	89	2
108	126	1
23	41	1
64	64	2
156	156	2
167	167	1
138	139	1
84	84	4
180	180	2
79	79	1
26	26	1
74	75	1
133	135	1
34	35	1
66	66	1
55	56	1
1	87	1
118	118	1
80	80	1
72	73	2
74	74	1
78	80	1
28	35	1
63	64	1
0	185	1
178	180	1
84	85	1
100	109	1
125	125	2
134	136	2
67	88	1
31	35	1
43	46	1
158	158	1
184	184	1
0	114	1
155	164	1
127	147	1
111	155	1
29	29	1
21	22	1
21	21	2
45	45	1
72	72	2
12	81	1
114	148	1
1	1	3
170	170	1
59	97	2
137	138	2
133	133	1
151	151	1
26	42	1
83	83	1
123	123	1
58	58	1
36	37	1
180	182	1
56	79	1
156	159	1
78	128	1
11	190	1
149	149	1
186	186	1
165	165	1
13	14	1
56	57	1
179	181	1
171	176	1
141	151	1
90	95	1
111	111	1
81	81	1
121	121	1
27	31	2
30	32	1
95	95	1
30	31	1
53	54	1
109	110	1
115	118	1
94	96	1
96	96	1
130	135	1
76	76	1
2	152	1
42	79	1
41	45	1
173	173	1
39	39	1
171	171	1
164	164	1
32	35	1
177	179	1
52	52	1
25	26	1
77	88	1
91	112	1
6	7	1
32	32	1
18	18	1
