27	27	1
89	90	2
158	159	1
129	129	2
56	89	1
50	50	1
53	97	1
43	44	1
85	86	2
38	38	6
36	37	1
8	9	1
164	164	4
0	7	1
11	47	1
145	145	3
122	127	1
158	158	3
106	106	1
112	116	1
47	48	1
41	41	3
50	159	2
168	169	1
4	4	3
169	169	1
39	39	3
27	37	3
151	151	2
28	28	2
80	80	3
15	15	2
107	107	5
140	147	2
105	105	3
142	142	3
49	49	4
67	67	1
2	3	2
139	139	4
146	146	2
147	148	3
120	120	2
160	160	1
44	44	1
135	137	1
84	84	2
12	47	2
143	164	1
83	83	1
45	45	2
50	67	1
47	47	1
71	71	2
136	136	5
52	52	2
5	10	1
19	20	2
3	3	2
89	89	3
44	45	3
16	16	3
34	34	3
24	24	1
102	102	1
43	43	1
163	163	3
159	160	2
162	164	1
14	14	6
68	68	1
130	130	3
22	23	2
152	152	5
48	57	1
151	152	1
101	102	4
33	35	1
154	154	1
14	15	1
98	98	1
167	167	1
17	18	2
150	153	1
159	159	1
20	21	3
25	85	1
116	150	1
46	73	1
10	57	2
112	113	1
38	39	2
139	140	1
35	35	1
122	122	2
162	163	1
144	146	1
82	82	1
33	33	2
120	162	1
137	137	2
125	126	1
169	170	2
40	40	1
41	44	2
24	25	4
63	63	2
139	157	1
74	74	5
117	118	2
21	164	1
153	154	1
149	150	1
120	122	1
156	157	1
25	25	2
90	90	4
164	165	1
150	151	1
39	49	1
87	88	3
94	94	1
126	126	1
141	141	2
154	155	1
165	165	2
76	159	1
156	165	1
155	156	2
119	119	1
81	81	1
132	132	1
114	114	2
85	85	2
25	86	1
25	27	1
116	127	1
54	54	1
41	42	2
1	2	2
5	5	3
113	114	3
66	69	1
20	167	1
7	7	3
161	161	1
144	145	2
114	116	1
80	81	1
143	157	1
138	138	1
123	125	1
135	136	1
48	50	1
22	49	1
107	108	1
13	13	2
134	135	1
62	103	1
139	160	1
57	57	1
11	102	1
125	130	1
155	155	1
70	70	3
88	88	1
133	133	2
9	9	1
26	43	1
7	10	1
120	123	1
147	150	1
66	67	1
48	48	2
78	78	1
55	55	1
91	91	1
26	26	2
17	89	1
87	87	2
47	57	1
36	36	1
156	156	2
125	125	1
2	2	2
77	112	1
53	53	1
110	111	1
93	93	2
73	108	2
17	17	4
6	112	1
100	100	3
96	97	2
144	164	1
115	116	1
65	65	1
13	36	1
11	12	1
57	80	1
37	37	4
109	109	1
147	147	1
116	116	1
157	158	1
84	100	1
10	10	2
111	112	1
128	129	2
100	106	1
27	28	1
121	121	2
157	157	1
152	154	1
15	16	1
103	104	1
7	20	1
40	69	1
66	66	2
53	55	1
71	72	1
161	166	1
0	0	1
96	96	1
86	87	1
84	103	1
101	101	1
43	90	1
95	96	1
19	21	1
136	162	1
0	2	1
142	162	1
33	109	1
64	64	1
151	156	1
134	134	1
23	64	1
48	49	1
3	164	1
