18	18	4
42	43	2
6	6	3
7	7	10
0	1	1
19	19	7
44	45	6
33	33	16
69	69	3
72	73	2
6	7	3
73	73	5
75	76	2
64	64	3
47	48	1
31	31	6
62	63	1
57	57	7
32	34	1
56	57	1
21	21	7
44	55	2
41	41	1
23	23	2
4	4	7
65	65	5
3	9	1
9	12	1
2	2	9
61	61	4
9	9	6
34	43	2
39	68	1
25	27	2
8	13	1
28	30	1
30	30	4
18	19	3
25	25	2
22	22	10
67	67	1
4	5	3
47	63	3
8	9	6
66	66	2
68	68	4
39	64	2
32	32	16
27	27	3
43	43	3
45	45	5
35	38	1
40	40	5
8	21	1
33	34	1
38	39	1
53	53	1
34	34	4
29	42	1
53	56	1
8	8	4
0	9	1
44	44	7
43	75	1
35	35	3
44	47	1
5	5	4
34	39	1
8	20	2
36	36	5
76	76	2
13	13	5
9	10	5
22	23	3
4	10	2
35	36	5
48	48	5
56	56	2
46	46	6
34	35	4
53	55	1
9	22	1
47	47	4
55	55	3
29	31	2
19	33	1
54	54	5
60	72	1
32	38	1
25	34	1
12	12	4
3	8	1
3	5	2
43	60	1
37	37	8
57	58	2
40	41	1
34	42	1
77	77	4
0	0	5
36	38	3
39	39	1
51	70	1
74	75	2
38	38	4
23	32	1
30	31	2
29	48	1
1	2	2
27	38	2
2	3	4
10	10	4
73	74	2
68	69	4
1	1	3
31	68	1
26	26	6
28	29	4
31	35	1
59	59	3
51	51	2
70	71	1
33	59	1
60	60	4
11	11	2
12	34	3
3	4	2
32	33	1
50	51	2
29	30	1
75	75	2
44	53	1
72	74	1
24	39	1
50	50	1
53	54	1
3	3	5
19	20	1
65	66	3
25	28	1
46	47	1
64	65	2
52	52	3
20	20	9
72	72	3
29	34	2
67	68	2
62	62	2
71	71	2
39	40	2
31	32	1
24	24	2
1	4	1
29	33	1
29	29	4
61	62	3
27	39	1
45	47	1
24	26	2
22	51	1
19	61	1
54	55	1
51	52	2
27	29	1
74	74	1
2	6	1
20	21	1
28	28	3
21	76	1
60	77	1
66	67	1
49	52	1
49	73	1
37	39	2
28	32	1
42	46	1
43	46	1
23	28	1
37	49	1
49	49	1
43	44	2
55	56	1
49	50	1
4	28	1
11	18	1
15	15	1
45	46	1
11	12	1
52	53	1
23	45	2
28	57	1
28	33	2
13	14	1
0	3	1
40	48	1
63	63	2
26	27	1
58	58	2
29	43	1
23	29	1
10	12	1
71	72	1
24	25	2
42	42	1
5	6	1
70	70	1
10	11	1
49	51	1
4	6	1
21	33	1
59	60	1
