21	23	1
162	162	3
33	35	1
80	80	2
137	137	5
135	135	2
112	112	4
22	22	1
81	81	1
102	103	1
140	140	3
93	93	1
38	38	3
58	58	2
39	41	1
39	70	1
6	6	2
39	40	1
90	90	2
113	115	2
124	124	1
32	32	1
33	33	2
167	167	2
39	39	1
9	11	3
59	62	1
148	149	2
158	158	2
91	125	3
87	87	2
2	24	1
66	67	1
15	19	3
0	0	1
180	180	4
9	10	1
111	111	4
16	16	1
31	32	2
57	57	2
106	106	3
76	77	2
10	16	1
44	51	1
154	156	2
77	77	2
153	154	1
21	25	1
66	66	1
139	139	3
55	55	2
54	54	1
84	84	1
27	27	3
53	53	2
18	18	3
24	24	3
67	106	1
156	156	5
2	2	4
8	8	3
144	144	2
178	178	2
15	17	2
120	120	4
34	34	2
114	154	1
30	30	1
134	168	1
90	126	1
67	67	2
123	146	3
40	40	3
141	145	1
20	20	1
153	158	1
104	104	1
147	148	1
29	31	1
169	169	2
152	156	1
136	136	2
57	58	1
93	125	1
134	134	3
106	116	1
141	141	4
103	105	1
168	169	2
82	93	1
126	126	2
109	109	1
92	92	1
95	170	1
17	18	1
76	76	2
31	41	1
94	99	1
159	159	1
72	74	2
43	43	3
19	19	1
125	126	1
148	148	3
91	91	3
12	16	1
117	117	4
73	176	1
14	21	1
157	157	2
140	148	1
44	45	1
138	155	2
67	80	1
80	90	1
125	157	1
23	23	4
107	116	1
113	113	1
129	130	1
52	53	1
110	111	1
86	86	1
79	80	2
136	157	1
168	168	2
161	161	1
142	145	2
128	128	1
30	42	1
153	153	2
133	134	2
164	164	2
78	79	2
63	63	1
59	63	1
60	60	3
90	94	1
171	171	2
124	125	1
152	152	1
11	11	2
31	31	2
147	158	1
75	75	1
155	155	1
102	104	1
37	37	1
119	163	1
71	71	1
97	100	1
50	50	1
135	149	1
11	12	1
18	35	1
118	120	1
83	84	2
6	36	1
114	114	2
60	61	1
135	136	1
29	30	1
160	163	1
174	174	1
103	103	2
42	42	2
78	177	1
2	25	1
175	175	3
129	129	2
90	92	1
142	143	2
41	42	1
54	56	1
144	147	2
79	131	1
74	74	2
119	155	1
133	133	2
17	17	1
163	163	1
151	151	1
52	59	1
158	161	1
101	111	1
4	4	2
132	132	3
29	29	1
121	121	1
43	166	1
131	131	1
5	5	1
128	129	1
41	41	1
26	26	1
32	33	1
11	13	2
149	149	2
14	14	2
19	20	1
79	79	2
36	36	2
9	9	2
179	179	1
119	119	1
64	64	1
59	59	1
143	144	2
2	16	1
102	102	1
43	44	1
166	166	1
152	155	1
111	130	1
140	157	1
113	114	1
23	24	1
18	37	1
130	130	1
154	162	1
16	17	1
78	78	1
45	45	3
15	16	1
85	85	1
134	149	1
115	115	1
49	50	1
140	141	2
127	129	2
44	44	1
64	65	1
6	39	1
55	56	1
72	145	1
89	89	1
26	35	1
122	125	1
10	10	1
14	32	1
94	95	1
131	148	1
103	104	1
107	107	1
122	122	1
173	174	1
33	34	1
28	28	1
4	5	1
114	115	1
65	66	1
38	39	1
32	35	1
105	105	1
146	146	1
138	138	1
134	135	1
99	100	1
