140	140	5
74	75	2
27	27	4
42	42	9
101	104	2
77	77	5
105	129	1
137	137	6
159	159	5
25	27	1
151	152	2
124	125	2
102	104	2
51	51	6
79	79	3
36	36	5
108	109	2
34	41	1
46	46	2
100	108	1
169	169	9
44	52	1
5	6	2
43	43	11
7	10	3
85	85	2
91	91	4
2	2	5
16	16	6
14	14	7
48	51	1
144	162	3
37	37	10
97	156	2
166	166	5
105	105	10
106	106	1
12	12	5
140	152	1
134	134	7
98	98	4
120	120	5
91	152	2
69	71	3
55	55	2
148	160	1
120	150	1
4	4	9
78	79	2
41	41	11
136	136	8
24	24	7
116	147	1
100	101	2
67	68	5
155	156	4
70	70	2
47	51	1
142	142	6
125	125	2
45	46	1
71	71	8
154	155	4
73	73	5
138	157	1
121	121	3
9	10	1
150	150	6
87	88	1
80	83	1
114	114	5
153	154	3
45	45	9
44	44	6
167	167	6
22	22	3
14	111	2
40	40	9
112	112	8
26	26	7
66	66	2
128	145	1
152	152	6
124	124	2
132	133	3
139	139	5
87	87	2
111	111	4
112	116	2
137	143	1
130	131	3
128	128	3
50	50	6
78	78	8
109	109	5
147	147	7
38	38	9
110	110	2
127	127	2
93	100	2
9	9	4
103	104	2
47	49	1
26	35	1
152	153	5
49	49	8
168	169	2
3	3	3
35	35	4
84	84	3
151	157	2
164	164	6
27	35	1
170	170	4
133	133	5
65	65	3
20	20	3
163	163	6
90	91	1
37	40	2
115	115	6
113	113	3
69	69	3
52	71	1
134	136	1
78	94	1
122	122	3
116	127	1
35	36	1
95	95	3
105	107	2
1	1	11
54	82	1
158	158	5
157	157	8
134	158	1
93	128	1
75	96	1
86	86	6
71	73	1
143	143	8
119	145	2
139	160	1
163	164	4
55	73	1
67	67	2
112	114	1
131	131	4
142	162	1
50	51	2
39	39	5
161	161	8
33	33	1
123	123	6
151	151	3
23	23	7
70	170	1
55	56	2
160	160	5
92	92	2
117	117	8
120	122	1
37	107	1
144	145	2
84	164	2
72	91	1
168	168	6
83	107	1
14	15	6
126	126	4
26	27	1
138	158	1
123	124	1
20	21	2
91	103	1
140	141	1
44	110	1
34	34	2
146	146	6
113	146	1
21	22	1
145	145	6
75	78	1
24	25	2
93	94	1
7	131	2
25	26	2
28	37	2
56	56	3
36	37	1
129	147	1
52	52	6
18	18	6
92	96	2
106	136	1
41	42	4
135	135	4
138	138	3
85	120	1
12	46	2
47	47	9
165	165	1
0	0	8
119	125	1
106	151	3
119	163	2
53	55	1
64	64	2
104	104	3
155	155	3
53	54	4
40	41	4
107	107	3
149	162	1
27	28	1
86	87	1
99	121	1
156	156	4
20	22	2
95	128	1
129	129	2
8	8	4
18	19	1
16	49	1
145	152	2
144	144	4
143	144	3
76	112	1
100	100	4
130	132	1
116	117	3
82	90	1
83	84	4
127	130	1
141	142	1
19	23	2
131	132	2
43	44	2
146	153	2
88	88	3
62	67	2
104	105	1
38	39	3
6	6	4
15	15	5
109	159	1
98	123	1
102	102	2
112	127	1
153	153	4
66	70	1
162	162	5
39	41	1
127	132	1
99	99	1
164	166	3
38	40	1
89	89	4
3	4	4
82	82	2
97	97	4
134	135	1
77	79	1
57	57	2
54	55	1
108	108	7
128	146	1
55	101	1
37	38	2
119	151	1
139	140	2
112	126	1
13	13	4
100	105	1
165	166	1
38	137	1
149	150	1
68	69	1
169	170	2
132	132	2
17	18	3
15	16	4
166	169	2
21	21	2
140	142	1
28	28	4
5	5	5
96	97	1
95	97	1
68	107	1
48	48	1
5	160	1
83	83	2
98	104	1
137	138	2
118	118	6
126	127	1
6	148	2
8	9	1
64	66	1
8	19	1
73	74	2
81	82	4
47	53	1
156	165	1
44	108	1
20	158	1
75	75	1
7	7	4
11	11	1
2	170	1
80	81	1
151	166	1
162	169	1
126	129	2
102	132	1
121	122	2
19	22	2
131	143	1
151	167	1
65	66	2
6	7	1
67	69	1
18	57	1
168	170	1
127	157	2
126	138	1
96	96	8
17	17	3
97	108	1
127	164	2
76	76	2
81	84	1
69	81	1
129	130	5
48	49	1
52	139	1
19	19	3
35	37	1
135	137	1
37	39	1
53	53	1
119	119	1
129	144	1
155	162	2
91	93	3
72	72	1
0	47	1
92	95	1
90	90	3
125	128	1
162	163	1
51	52	1
42	43	4
148	148	3
160	161	1
130	130	4
64	113	1
121	126	1
101	101	2
39	40	3
105	106	1
46	51	1
122	123	1
66	81	1
97	98	1
21	25	1
12	51	1
89	91	1
76	77	2
51	107	1
72	75	1
23	51	1
85	88	1
110	138	1
38	149	1
149	149	3
44	45	5
10	17	1
7	11	1
129	154	1
110	111	1
79	88	1
117	118	1
150	161	1
53	56	1
76	78	1
94	104	1
93	93	2
78	82	1
37	49	1
68	68	3
36	47	1
104	134	1
99	119	1
91	100	1
158	160	1
10	10	3
148	149	1
65	93	1
2	44	1
157	159	1
94	95	1
103	103	2
106	138	1
87	95	1
61	61	1
58	58	2
2	7	1
151	154	1
50	164	1
151	170	1
86	99	1
25	46	1
107	108	1
84	108	1
125	126	2
1	17	1
141	141	1
148	168	1
110	168	1
25	25	3
89	90	1
157	158	1
88	96	1
4	39	2
71	72	1
95	99	1
150	157	1
14	28	1
142	157	1
84	85	1
167	168	2
99	100	2
1	125	1
24	43	1
104	106	1
76	88	1
109	150	1
147	148	2
9	55	1
97	99	1
125	132	1
47	65	1
159	160	1
152	162	1
10	45	1
99	120	1
70	148	1
7	73	1
79	94	1
109	110	1
41	154	1
163	166	1
80	80	1
7	36	1
57	72	1
137	157	1
69	84	1
65	103	1
113	117	1
41	43	1
84	157	1
113	133	1
42	106	1
54	54	1
1	2	2
116	119	1
15	37	1
102	152	1
11	12	1
126	155	1
7	9	1
43	45	1
62	63	1
16	18	1
79	154	1
159	168	1
