132	132	2
101	101	2
103	104	3
125	125	3
129	129	3
128	128	6
104	106	1
17	17	6
14	15	1
55	55	1
26	26	4
133	133	4
121	121	1
95	112	1
27	27	3
14	14	5
67	67	1
63	63	3
59	88	1
67	68	2
21	21	7
86	87	1
15	15	6
77	79	1
7	15	2
69	69	4
124	124	1
86	108	2
1	1	1
60	60	3
120	121	1
134	134	7
127	128	2
108	111	3
117	117	5
24	24	4
20	20	6
84	84	3
122	122	1
93	94	1
60	61	2
1	2	1
36	44	1
35	42	1
66	66	3
100	100	4
118	118	5
7	7	3
72	72	4
13	13	2
31	56	2
17	18	1
116	116	1
80	81	3
77	77	7
74	74	2
13	14	2
97	98	3
71	71	3
18	18	8
97	97	1
91	92	1
81	81	5
30	30	4
12	14	1
10	118	2
123	123	6
127	127	2
108	108	3
28	29	1
88	102	1
113	113	3
12	12	2
96	99	1
68	69	1
19	19	4
43	43	4
78	78	4
40	43	1
33	33	2
82	82	3
84	106	1
115	115	2
63	67	1
122	126	1
122	127	2
123	124	1
114	114	3
75	75	3
56	56	5
5	20	1
94	94	9
46	46	3
83	83	4
8	14	1
24	25	2
39	39	3
28	28	6
95	95	2
111	111	5
58	61	1
93	93	2
87	87	4
47	47	2
28	32	1
37	39	1
45	45	4
86	100	1
96	96	2
95	96	1
2	2	3
24	26	2
64	65	2
30	32	1
1	46	1
65	65	4
78	79	1
131	133	2
66	76	1
119	134	1
128	130	1
91	91	2
16	16	1
130	130	4
100	102	1
107	107	3
25	25	3
73	74	2
8	71	1
57	59	1
2	12	1
103	103	2
66	77	1
57	57	2
115	116	1
73	86	2
27	31	1
5	46	1
61	61	1
31	36	1
59	59	3
62	62	1
96	98	2
32	32	2
44	44	1
29	29	1
99	100	1
126	131	1
105	105	3
3	4	1
36	38	1
68	111	2
99	99	4
5	5	4
92	93	3
14	33	1
121	122	1
15	16	1
113	116	1
88	101	1
84	103	1
96	128	1
74	75	1
96	121	1
119	119	4
82	93	1
96	108	1
9	11	1
5	6	1
51	51	1
108	130	1
70	70	2
92	92	4
109	109	1
2	63	1
68	107	1
9	35	1
23	23	2
8	8	3
35	35	2
72	73	1
126	126	2
88	88	1
48	48	3
9	10	1
89	91	1
41	41	2
95	122	1
45	46	1
50	50	2
85	86	2
70	71	2
102	102	2
58	58	2
107	133	1
7	8	1
120	120	1
40	40	1
90	90	4
112	113	1
11	11	1
36	41	1
77	78	1
131	131	2
10	10	1
31	32	2
86	86	3
98	98	1
27	44	1
104	104	2
109	110	1
37	37	1
63	74	1
22	22	3
116	119	1
128	134	1
24	27	1
108	109	1
26	50	1
14	45	1
6	32	1
114	116	1
34	34	3
25	26	1
90	91	1
80	80	2
112	112	2
40	78	1
95	104	1
6	6	1
119	120	1
119	126	2
109	111	1
4	116	1
29	30	1
12	13	1
9	9	1
55	56	1
62	64	1
35	36	1
106	106	1
47	93	1
79	81	1
6	14	1
46	47	1
76	76	1
125	126	1
82	106	1
58	65	1
118	120	1
127	130	1
7	38	1
95	100	1
96	100	1
68	68	1
57	62	1
21	36	1
22	50	1
27	92	1
21	23	1
27	109	1
0	0	1
13	70	1
110	110	1
104	105	1
33	34	1
20	45	1
38	38	2
42	42	1
31	31	2
79	80	1
104	131	1
5	13	1
124	125	1
61	120	1
