58	59	1
68	69	1
83	83	8
30	31	1
8	8	5
53	54	7
0	0	5
64	64	5
24	24	10
3	3	9
85	85	11
59	59	7
65	65	7
59	76	1
32	32	2
74	74	4
69	69	4
10	10	15
10	28	1
48	48	7
58	81	1
7	7	4
50	50	2
12	13	4
53	53	2
31	31	3
22	22	10
47	48	2
77	78	1
13	13	8
50	83	1
81	82	1
28	28	7
23	23	10
48	54	1
25	26	3
82	82	6
22	56	1
17	17	6
78	78	7
72	77	2
9	9	7
62	62	3
78	80	1
86	87	1
46	46	4
47	47	2
83	84	4
87	87	8
51	51	5
89	89	13
6	6	13
11	11	9
2	2	8
80	80	11
26	27	2
24	27	1
56	56	11
81	81	14
21	27	1
15	15	8
27	87	1
58	58	3
68	68	6
49	49	8
62	63	6
4	4	3
65	82	1
79	79	6
8	9	3
20	20	8
50	51	3
73	73	8
86	86	4
2	47	1
7	8	2
84	84	8
59	61	2
80	81	1
5	5	4
70	70	4
46	58	1
61	83	1
14	14	8
60	62	1
13	16	1
67	67	10
55	56	4
19	20	2
72	74	1
12	12	5
16	16	2
72	72	5
63	65	1
27	27	9
75	75	7
19	19	5
25	25	10
63	63	2
57	57	6
10	11	2
1	1	12
88	88	5
66	67	1
66	66	6
88	89	4
18	18	2
52	53	2
75	86	1
47	81	1
56	74	1
63	82	1
71	71	4
30	30	3
55	55	3
11	75	1
9	10	1
8	19	1
33	81	2
54	54	4
26	26	7
51	80	1
57	58	5
52	52	4
71	72	3
74	77	1
3	28	1
51	75	1
48	51	2
76	76	7
30	53	3
84	85	3
0	1	3
1	2	2
13	14	3
61	61	3
19	28	1
64	65	2
15	16	2
67	68	1
34	34	1
20	21	1
21	21	3
90	90	1
6	12	1
13	20	1
13	72	1
77	77	3
72	81	2
59	64	1
83	87	1
21	22	2
54	57	1
5	6	1
56	68	1
82	87	1
34	53	1
6	7	1
26	28	1
6	26	1
60	61	2
26	55	1
59	60	2
78	79	2
24	25	1
47	51	2
2	9	1
30	57	1
46	48	1
54	68	1
14	16	1
27	48	1
23	24	1
85	87	1
78	82	2
29	29	1
77	83	1
8	26	1
59	75	1
75	77	1
52	59	3
29	30	1
65	66	1
34	35	3
18	20	2
33	77	1
48	49	2
79	80	1
72	73	1
3	4	1
60	60	1
31	32	1
34	52	1
54	87	1
50	84	1
35	35	1
22	23	1
49	50	1
57	68	2
2	29	1
67	85	1
57	78	1
55	78	1
58	67	1
17	18	1
69	70	1
6	17	1
50	82	1
85	86	1
82	84	1
51	76	1
9	13	1
71	85	1
87	89	1
