163	167	2
42	42	4
38	50	2
17	17	1
15	16	1
180	180	2
86	120	1
87	87	5
51	52	4
93	94	2
146	146	2
5	6	2
80	80	2
130	167	1
164	170	1
79	79	2
55	55	2
133	136	1
172	180	1
38	38	7
63	63	4
14	14	4
146	147	1
178	178	2
34	34	2
4	4	3
85	85	4
60	103	1
62	83	1
56	56	2
8	8	4
23	24	2
65	65	3
91	91	1
7	7	4
170	170	3
42	43	2
36	36	5
133	133	7
33	33	4
2	3	5
64	64	7
43	61	2
167	167	8
61	61	1
147	147	2
122	122	4
154	154	5
148	180	2
143	143	2
92	96	2
76	76	1
73	74	2
137	149	1
35	123	1
81	86	1
87	101	1
140	140	5
156	157	1
96	98	1
173	173	3
95	95	2
166	166	4
57	58	1
115	115	5
26	29	2
36	37	1
94	94	4
13	14	1
46	46	1
37	38	2
144	146	1
129	129	3
29	29	5
37	37	3
28	84	1
158	159	2
139	139	1
177	179	1
24	25	1
168	168	2
5	5	3
68	68	2
30	30	3
131	131	5
172	172	5
70	71	1
43	43	6
22	22	1
39	112	1
156	156	5
112	114	1
3	3	5
71	71	3
169	171	3
20	20	3
96	96	3
123	124	1
122	134	1
81	81	3
19	19	2
145	146	2
164	164	3
109	109	1
67	67	3
87	115	1
58	59	1
26	27	3
73	73	4
159	160	1
108	109	2
18	18	5
6	7	2
89	89	3
121	121	2
92	92	3
43	60	1
26	26	2
139	140	2
3	4	1
33	59	1
4	6	3
16	16	1
162	162	2
176	176	9
112	112	2
132	133	2
99	101	2
135	137	1
45	45	3
100	100	4
132	132	13
126	126	2
1	1	3
66	66	1
28	29	1
138	139	1
54	55	3
34	35	2
111	111	4
159	161	1
142	142	3
153	154	3
95	103	2
133	149	2
153	153	4
11	11	2
88	90	1
152	152	1
174	174	6
54	54	1
110	110	1
1	2	2
163	163	1
34	134	1
94	109	2
95	107	1
74	74	1
101	101	6
11	41	1
53	53	1
40	42	1
44	51	1
171	171	4
10	10	3
0	7	1
152	167	1
86	86	1
6	6	4
157	167	1
32	120	1
27	28	1
33	57	2
124	156	1
142	143	3
94	95	3
133	134	1
9	32	1
13	13	2
133	135	2
44	64	1
10	31	2
175	175	2
96	97	1
104	104	1
149	171	2
160	162	1
146	162	1
55	56	1
25	25	1
39	40	1
153	166	1
113	114	1
52	54	1
24	24	1
27	27	3
12	12	2
97	98	1
151	154	1
41	41	3
179	179	5
32	37	1
116	116	4
112	132	1
0	0	1
169	169	2
167	170	1
115	140	1
113	113	1
90	90	1
126	152	1
58	58	2
71	72	3
50	50	2
29	32	1
141	141	3
97	104	3
62	62	3
25	26	2
39	39	3
137	137	2
35	35	3
114	114	2
142	160	1
85	87	2
154	158	1
116	117	2
118	119	1
42	44	1
93	113	2
98	102	2
81	88	1
28	31	1
2	4	1
127	127	2
32	33	1
82	82	2
148	148	3
118	118	2
14	17	1
160	161	1
175	176	2
141	142	1
174	175	1
125	125	1
52	94	1
93	93	1
88	88	1
54	77	1
16	19	1
87	93	1
8	39	2
172	173	1
128	142	1
120	120	3
124	126	1
148	149	1
150	150	6
98	107	1
31	31	2
83	83	2
18	20	1
32	32	4
100	102	1
59	60	1
123	123	2
125	157	1
130	130	1
94	114	1
54	74	1
145	145	1
121	122	2
136	136	3
150	170	1
158	158	2
88	89	1
44	45	2
91	104	1
143	151	1
36	93	1
90	120	1
122	126	1
79	80	2
34	42	1
117	118	2
59	59	1
92	103	1
33	40	1
52	52	3
29	30	1
159	159	2
149	149	3
9	9	1
97	97	3
40	41	3
57	57	2
108	108	2
30	32	1
34	122	1
12	16	1
101	106	1
40	40	1
177	177	1
7	8	1
51	51	1
166	167	1
124	124	2
83	85	1
84	84	2
77	78	1
86	87	1
101	113	1
114	117	1
72	76	1
107	107	1
105	105	1
56	59	1
150	171	1
138	138	1
149	150	1
131	139	1
62	63	1
160	163	1
72	72	1
112	123	1
77	77	1
78	78	3
153	156	1
9	10	1
98	100	1
154	156	1
102	103	1
15	25	1
97	107	1
134	134	2
149	158	1
141	158	1
11	13	1
53	54	1
22	24	1
44	44	1
19	20	1
104	105	1
135	135	1
178	179	1
87	88	1
90	93	1
119	120	1
155	155	1
161	161	1
109	111	1
158	167	1
