102	102	5
96	96	2
35	35	5
115	115	2
39	42	1
38	41	1
23	23	2
98	98	4
4	39	1
43	43	2
90	91	2
126	126	2
61	61	1
18	26	1
77	77	1
100	139	1
57	59	1
116	118	2
142	142	3
133	133	3
47	82	1
145	145	2
130	130	4
33	34	2
79	79	2
67	68	3
129	129	3
143	143	2
120	120	4
64	64	1
34	34	4
134	134	1
62	62	3
66	66	2
21	21	3
99	99	3
87	87	4
110	111	2
25	26	1
104	108	2
3	4	1
70	70	4
33	33	2
106	106	2
10	29	2
4	110	2
11	11	4
97	97	5
129	143	1
103	103	2
23	112	1
67	96	1
47	47	3
83	83	2
96	117	2
63	68	3
82	82	2
60	60	1
108	108	3
47	70	1
114	114	3
112	114	1
5	5	1
48	81	2
135	137	1
47	85	1
53	53	3
58	58	3
90	115	1
19	19	3
70	71	1
35	36	1
106	139	1
121	121	1
15	15	3
77	78	3
41	67	1
105	105	1
49	50	1
8	8	6
124	125	3
90	124	2
69	76	1
98	106	1
52	52	2
50	53	2
76	85	1
70	79	1
135	135	6
49	49	2
80	80	2
30	102	1
37	37	1
10	10	2
78	78	1
111	111	4
134	140	1
107	120	1
50	60	1
54	54	1
127	127	2
126	128	1
132	132	6
20	20	3
60	66	1
71	72	2
31	68	1
32	69	1
58	80	1
40	40	1
102	125	1
81	84	2
76	84	2
75	80	1
101	101	2
51	55	1
57	57	3
112	112	2
51	53	1
51	52	1
75	109	1
54	58	2
1	1	4
113	113	2
67	101	1
58	60	1
16	18	1
144	144	1
47	79	1
116	117	2
104	104	3
122	122	3
63	63	2
20	25	3
108	110	2
65	70	1
24	24	4
109	109	3
50	68	1
4	5	1
22	22	2
0	1	1
64	65	1
5	35	1
125	125	3
97	98	1
90	94	1
121	122	1
27	102	1
32	33	1
6	6	2
140	140	3
119	119	1
99	134	1
111	114	1
118	118	1
117	134	1
11	22	1
18	18	2
104	116	1
39	39	1
93	93	2
104	111	1
4	4	1
31	31	1
109	111	1
89	92	1
42	42	1
101	134	2
51	51	5
60	67	2
26	26	2
90	90	2
78	79	2
123	123	2
74	75	1
14	14	1
33	36	1
74	74	1
128	128	3
88	92	1
104	117	2
56	95	1
16	16	1
103	138	1
126	127	2
94	106	1
61	63	2
128	140	1
28	28	3
72	73	1
17	17	4
13	31	1
25	25	2
128	130	1
54	57	1
29	29	2
113	137	1
83	84	1
131	134	2
18	19	1
81	82	1
18	20	1
108	109	1
110	110	2
65	66	1
86	96	1
139	139	2
118	119	1
14	16	3
9	10	2
95	95	2
9	17	1
117	117	2
97	102	1
38	38	2
146	146	1
24	61	1
27	30	1
71	71	2
137	137	1
41	41	1
94	94	1
136	139	1
1	8	1
79	80	1
104	105	1
27	27	1
116	131	1
13	13	2
70	89	1
9	9	1
98	103	1
32	32	1
97	132	1
91	91	1
89	89	1
27	29	1
48	48	1
137	138	1
92	94	2
88	89	1
116	134	1
136	136	1
70	75	1
4	13	1
61	66	1
115	116	1
119	121	1
78	80	2
60	83	1
28	131	1
140	142	1
131	131	1
116	116	1
36	36	2
54	55	1
72	72	2
73	81	1
85	85	1
32	64	1
115	119	2
56	56	1
67	82	1
23	25	2
61	67	1
124	124	1
125	141	1
47	86	1
105	106	1
16	36	1
24	39	1
69	79	1
84	84	1
113	138	1
6	37	1
91	93	1
130	141	1
133	140	1
