66	66	6
11	14	2
77	77	4
55	55	1
36	36	5
65	65	1
35	35	1
70	70	3
19	19	5
91	92	2
65	66	1
68	68	1
90	98	1
75	108	2
87	87	3
113	113	4
93	93	2
101	101	1
73	74	1
6	7	1
133	133	3
125	125	2
122	122	1
24	24	1
95	100	2
60	60	5
62	62	2
19	32	1
83	84	2
32	47	1
70	71	1
99	99	1
5	5	2
5	9	1
69	69	3
80	82	1
110	110	2
59	59	5
128	128	2
127	127	2
103	104	2
114	116	1
91	91	3
12	12	2
111	112	2
25	26	1
28	29	1
11	11	5
57	85	2
106	106	2
4	7	1
86	107	1
59	92	2
64	64	1
117	117	2
31	60	1
55	56	3
121	122	1
134	134	3
9	30	1
28	28	1
8	42	2
76	120	2
50	50	1
88	90	1
6	6	2
110	111	1
121	121	2
8	8	5
75	119	1
27	27	1
78	78	3
47	57	1
12	16	1
83	83	1
57	57	1
31	56	1
34	34	3
73	73	3
10	10	2
43	43	2
45	45	3
16	21	1
96	97	2
122	129	1
4	10	1
85	85	5
94	94	1
94	95	2
47	47	2
104	107	1
27	28	2
25	28	1
79	80	1
23	23	1
61	61	5
75	75	2
29	59	1
116	116	5
46	46	2
129	129	1
15	15	4
130	132	1
81	82	1
131	131	1
20	27	1
35	39	1
86	117	1
12	18	1
67	67	1
87	92	1
4	93	1
20	20	1
67	68	1
7	31	3
130	130	3
57	58	1
37	37	2
78	111	1
117	119	1
4	4	4
63	63	1
111	113	1
81	127	1
89	92	1
102	102	2
29	30	2
100	101	1
86	97	1
128	129	2
0	64	1
40	41	1
2	3	1
30	30	2
104	105	1
4	5	2
49	49	2
31	33	1
108	108	3
82	111	1
62	63	1
24	25	1
6	41	1
18	60	1
58	58	2
120	121	1
33	33	1
24	26	1
20	31	1
7	7	2
112	112	1
115	116	1
96	98	2
81	81	1
78	80	1
15	16	1
74	76	1
98	100	1
103	127	1
13	123	1
16	16	1
6	36	1
11	12	1
39	39	1
120	120	1
26	26	1
12	14	1
34	59	1
13	13	4
118	118	2
1	3	1
74	74	1
105	105	1
107	107	2
124	124	1
85	124	1
42	42	1
123	126	1
72	72	1
98	98	1
79	82	1
77	129	1
35	43	1
58	59	1
96	123	1
119	119	1
71	72	1
111	111	1
