42	42	8
139	139	7
146	146	9
153	153	6
99	100	2
110	111	3
23	30	1
52	52	4
141	148	1
111	112	3
85	86	2
114	114	5
155	155	8
126	126	6
102	102	3
98	98	6
115	120	1
36	36	5
151	151	6
89	90	1
158	158	8
118	119	5
135	137	2
45	49	3
135	135	8
132	132	8
16	16	5
107	107	2
83	83	8
131	131	5
76	76	2
116	133	2
135	149	2
26	27	1
129	130	1
33	33	4
69	69	8
106	140	1
77	104	1
105	106	3
111	111	5
143	143	4
94	94	5
14	34	1
82	82	6
10	10	3
142	142	2
20	20	5
115	115	7
89	116	1
133	133	1
113	114	1
41	42	1
11	12	4
108	108	2
142	143	2
106	106	3
100	100	5
125	125	2
123	123	4
68	69	4
56	57	1
90	90	2
8	27	1
127	127	14
117	117	5
25	31	3
111	120	1
132	139	1
50	70	1
97	97	2
110	110	4
156	157	1
150	150	8
134	134	9
142	148	1
11	11	1
67	68	2
123	124	1
148	150	2
156	156	2
48	49	2
34	34	6
141	141	8
19	20	3
144	144	2
105	105	11
104	105	1
81	81	8
79	79	3
118	118	11
8	11	1
62	62	1
44	44	4
40	40	4
13	13	1
122	148	1
25	139	2
8	8	2
17	19	2
48	48	2
40	41	2
86	86	6
38	39	3
64	78	1
3	3	2
88	89	2
88	88	4
106	107	2
129	129	7
121	142	1
134	135	1
18	18	1
25	25	4
88	90	2
130	130	6
120	120	7
65	127	1
109	109	4
128	128	6
28	28	4
113	113	6
116	116	4
96	115	2
133	134	2
137	138	1
157	158	4
138	138	5
84	132	1
124	124	5
139	150	1
148	148	3
136	137	1
126	146	1
55	55	2
133	138	1
117	119	1
119	119	4
145	145	1
93	105	1
53	53	2
9	11	2
80	80	4
78	78	2
72	73	1
2	145	2
23	24	2
131	139	2
115	116	1
66	66	1
27	102	1
150	151	3
84	84	3
115	118	3
26	26	3
6	36	1
130	131	3
24	24	1
65	65	2
29	70	1
112	112	7
84	94	1
122	122	4
8	76	1
70	70	6
90	91	1
20	21	1
137	137	3
149	156	1
139	140	4
9	18	1
91	91	2
56	56	1
6	44	1
39	39	3
46	46	4
21	22	2
15	32	2
43	44	1
78	84	1
152	153	2
154	154	3
47	68	1
29	29	4
142	155	1
124	125	2
148	149	3
85	85	1
0	0	2
149	149	3
67	67	4
86	87	1
135	136	2
77	77	5
141	143	1
112	130	1
120	121	2
80	81	1
55	56	3
71	71	4
6	6	5
140	141	2
109	110	2
7	106	2
17	20	2
22	22	2
51	51	2
99	99	5
131	137	1
92	95	1
38	38	1
152	152	4
89	89	7
110	112	1
114	115	1
151	153	1
15	15	3
126	127	1
99	129	1
30	30	1
25	50	1
87	87	3
1	1	1
19	19	1
78	81	1
95	95	3
157	157	3
83	85	1
147	147	5
14	14	1
55	107	1
50	50	2
158	159	1
47	47	2
70	120	1
146	147	2
121	121	5
46	47	1
79	80	3
17	17	1
130	158	1
27	100	2
28	30	1
77	113	1
133	153	2
67	69	1
51	52	1
124	127	1
93	93	3
31	31	2
125	126	2
45	47	1
52	53	1
74	74	1
18	20	1
144	146	1
9	9	2
13	41	1
100	105	1
112	113	1
151	152	1
121	122	2
75	75	5
136	136	2
33	41	1
128	129	2
22	23	1
134	143	1
116	117	1
43	48	1
142	145	1
106	129	1
101	101	4
140	140	3
25	27	1
5	103	1
138	139	3
42	43	2
80	82	1
91	95	1
153	154	3
114	120	1
112	117	1
101	106	1
13	14	1
52	54	1
147	155	1
21	21	1
111	152	1
18	19	3
29	30	1
108	109	4
112	119	1
49	49	2
123	125	1
64	127	1
71	98	1
103	103	1
144	148	2
144	145	1
108	120	1
119	122	1
91	158	1
77	80	1
111	135	1
141	142	1
33	34	1
98	99	1
85	87	1
10	11	1
6	8	1
66	70	1
107	120	1
111	113	1
45	45	1
63	63	2
57	57	2
27	27	1
41	41	1
150	153	1
12	12	1
2	2	1
42	44	1
65	67	1
37	37	1
145	148	1
91	93	1
69	70	1
50	51	1
107	108	1
147	159	1
4	4	1
86	94	1
112	114	1
119	120	1
7	7	2
54	55	1
120	123	1
117	137	1
144	147	1
73	73	1
71	72	1
81	87	1
31	36	1
104	104	1
92	93	2
57	67	1
129	152	1
90	116	1
140	158	1
131	132	1
7	11	1
65	66	1
93	95	1
44	45	1
5	5	1
149	154	1
69	98	1
6	27	1
31	39	2
133	141	1
96	123	1
127	139	1
23	23	1
145	146	1
70	131	1
8	10	2
12	16	1
101	105	1
4	104	1
81	82	1
95	96	2
118	120	1
8	12	1
80	83	1
69	72	1
84	85	1
87	89	2
145	147	1
92	92	1
115	119	1
134	136	1
91	106	1
95	97	1
7	72	1
68	68	1
82	83	1
145	153	1
73	106	1
117	118	1
104	130	1
100	129	1
31	38	1
79	94	1
55	67	1
64	64	1
