72	72	2
7	7	3
147	169	2
78	78	2
94	94	1
57	57	6
10	10	3
100	107	1
89	89	1
20	22	1
18	18	3
105	105	1
45	47	1
17	97	1
27	28	1
115	115	2
20	20	1
63	64	1
16	16	2
162	162	4
23	23	1
52	52	3
88	88	2
81	81	2
3	3	3
155	155	5
83	148	1
157	158	2
36	36	4
8	10	2
45	170	1
5	6	1
39	39	3
126	127	1
82	82	1
168	168	2
45	45	3
14	14	5
41	41	4
125	125	2
86	86	2
11	11	3
85	86	2
5	37	1
21	22	3
19	65	1
106	107	2
65	83	1
99	100	2
65	67	1
56	56	4
96	97	2
138	138	5
13	13	4
64	64	2
34	34	4
6	6	4
76	76	1
157	157	2
124	125	2
148	149	3
15	15	2
90	105	1
169	170	1
47	47	4
73	74	2
133	133	3
141	141	3
13	14	2
3	4	1
9	9	2
146	146	6
143	143	1
169	169	2
128	129	3
147	147	3
137	137	3
103	104	1
146	148	1
49	49	4
44	44	4
27	27	5
134	134	2
110	149	1
94	112	1
147	148	1
72	73	2
20	26	1
145	145	1
160	160	2
114	128	1
162	164	1
80	82	1
83	83	2
82	83	2
141	153	1
164	164	6
2	18	1
7	11	3
91	106	1
5	5	2
0	0	1
163	163	4
156	161	1
57	85	1
25	25	4
18	46	1
50	50	1
8	27	1
26	79	1
154	154	3
152	152	4
38	39	1
164	165	1
3	17	1
101	101	3
89	99	2
111	111	1
129	129	1
38	38	5
136	136	5
1	2	2
5	7	1
21	48	1
0	5	1
87	87	3
163	164	2
149	167	1
78	79	2
23	24	3
19	19	3
121	121	1
2	2	4
56	57	2
131	131	2
152	153	2
98	99	2
159	159	1
91	92	3
10	24	1
158	158	2
92	92	3
46	46	2
136	137	1
5	11	1
99	99	2
140	140	3
49	51	1
90	90	3
62	62	2
33	33	1
153	153	1
112	112	1
18	23	3
46	136	1
117	117	1
123	125	1
68	68	1
94	115	1
148	148	3
69	69	2
113	113	1
17	49	1
37	42	1
144	144	2
22	104	1
49	50	1
160	162	1
139	164	1
47	143	1
156	156	3
116	116	1
12	13	1
77	77	1
21	113	1
115	142	1
105	123	1
25	147	1
4	7	2
4	4	2
12	12	1
45	46	2
139	143	1
137	161	1
73	111	1
160	166	1
167	169	1
123	123	2
45	148	1
43	43	2
118	119	1
25	106	1
139	140	1
71	71	2
12	20	1
130	130	2
34	35	1
97	97	1
140	167	1
118	118	2
77	78	1
6	11	1
147	157	1
102	103	1
26	27	1
166	166	1
128	128	2
39	40	1
11	54	1
8	127	1
0	1	2
157	167	1
82	94	1
68	86	1
40	40	3
80	80	1
163	167	1
167	167	1
155	156	2
159	160	1
132	133	1
76	79	1
19	20	1
17	19	2
148	167	1
18	19	1
11	14	2
161	162	1
127	127	1
165	166	1
53	53	1
107	109	1
10	52	1
65	65	1
3	104	1
135	135	2
119	122	1
107	110	1
92	98	1
155	163	1
47	48	1
85	85	2
115	116	1
47	154	1
170	170	1
42	42	1
93	93	1
118	142	1
20	21	1
113	141	2
83	88	1
114	114	2
86	87	2
144	145	1
109	109	3
150	150	1
155	157	1
43	90	1
126	126	1
130	152	1
140	141	1
11	37	1
5	130	1
97	98	1
46	47	1
27	37	1
152	162	1
22	23	1
