51	51	4
18	19	1
136	136	1
71	139	1
163	163	1
52	52	3
161	161	2
165	165	2
22	24	1
7	7	2
134	134	2
125	126	2
122	123	2
6	6	1
146	148	3
142	142	1
166	166	4
22	23	1
34	34	6
10	10	2
137	147	1
103	103	2
87	99	1
39	40	1
87	104	1
104	104	3
47	50	1
145	145	3
53	53	2
4	169	1
14	14	3
168	168	7
75	75	1
74	74	4
135	135	2
2	2	4
19	19	1
116	158	1
113	168	1
139	158	1
36	36	1
8	10	1
136	153	1
15	15	2
92	96	1
105	109	1
151	152	2
72	79	1
86	87	1
151	151	2
54	55	1
105	112	1
35	35	4
24	24	3
72	72	3
144	144	6
92	92	2
130	130	2
15	21	1
103	105	1
133	134	1
0	170	1
13	14	1
48	49	1
35	37	1
81	81	1
123	124	1
10	11	1
7	11	1
13	13	2
57	57	2
37	37	2
3	3	5
131	131	2
20	20	1
2	9	1
119	120	2
39	39	2
62	62	1
50	51	1
68	79	1
85	85	1
23	23	3
44	56	1
131	161	1
167	168	1
112	112	2
96	96	4
139	143	1
111	111	2
11	11	2
128	128	1
138	138	3
162	164	1
12	12	2
66	67	1
14	16	1
4	7	3
20	132	1
152	152	3
165	166	1
99	109	1
91	91	2
44	45	1
15	46	1
76	76	1
71	71	1
16	119	1
8	8	1
159	159	3
18	48	1
16	16	1
20	22	2
144	146	1
162	162	2
2	100	1
67	68	1
43	43	2
44	44	1
133	133	3
92	98	1
64	64	2
68	69	1
93	93	1
136	137	1
105	105	1
42	42	4
135	136	2
146	160	1
18	23	1
56	56	3
90	97	1
146	159	1
158	158	2
148	148	4
164	164	2
13	27	1
143	143	1
18	158	2
156	157	1
114	115	1
101	101	2
73	73	2
72	91	1
80	80	1
146	146	1
10	149	1
12	17	2
94	94	2
78	78	5
99	99	1
106	107	1
79	79	1
55	69	1
49	51	2
160	160	2
9	19	2
98	98	1
40	40	1
115	123	1
47	47	1
147	147	1
150	150	2
102	102	3
147	150	1
155	156	1
40	41	1
80	82	1
110	110	3
106	106	1
50	69	1
25	25	1
77	78	1
130	145	1
160	167	1
54	54	1
46	46	1
70	71	1
65	65	1
82	104	2
126	126	1
46	50	1
72	73	2
134	143	1
42	43	1
19	24	2
17	18	1
64	92	1
157	157	1
18	18	1
163	166	1
105	160	1
49	49	1
53	75	1
142	150	1
17	25	1
69	109	1
3	6	1
0	1	1
80	100	1
115	115	1
151	160	1
104	123	1
117	133	1
95	96	1
57	62	1
8	19	1
41	41	2
87	88	1
141	141	1
45	147	1
129	129	1
76	90	1
144	156	2
127	127	1
6	7	1
118	131	1
106	108	1
16	53	2
120	122	1
103	104	1
109	109	1
164	165	1
84	159	1
0	0	1
95	95	2
38	38	2
132	155	1
93	94	1
137	137	1
83	89	2
50	63	1
28	35	1
86	88	1
56	105	1
160	161	1
118	118	1
147	148	1
150	151	1
3	4	1
40	53	1
65	95	1
55	55	1
66	66	1
149	149	1
7	8	1
154	154	1
64	95	1
37	38	1
69	69	1
27	27	1
10	162	1
