102	104	1
114	115	3
101	101	6
122	122	6
115	115	8
10	11	1
113	113	7
133	133	13
81	81	5
112	112	5
102	102	9
38	126	1
79	80	7
140	140	8
96	96	13
9	9	5
111	112	5
108	108	5
123	131	1
12	12	1
105	105	3
83	83	4
99	99	6
35	35	6
125	125	9
110	111	6
138	138	4
132	132	6
135	136	1
34	38	1
137	137	5
97	124	2
139	139	8
79	102	1
128	128	5
102	103	2
32	32	4
124	124	7
33	33	6
100	100	9
19	19	5
12	15	1
97	98	3
86	86	5
95	95	3
34	34	4
14	14	3
134	134	6
89	90	2
4	27	1
6	6	3
3	3	4
93	93	6
31	32	1
15	15	4
90	90	2
72	73	2
109	119	1
104	106	1
94	94	9
130	130	6
91	91	3
20	20	4
120	120	3
129	129	10
111	111	4
121	121	4
123	123	7
2	2	10
37	37	5
3	4	2
27	27	2
131	131	7
109	110	2
103	104	3
108	117	2
88	88	3
118	120	1
11	13	2
7	7	2
117	117	3
109	113	1
15	16	1
133	134	6
72	74	1
109	111	2
120	121	1
82	82	2
100	124	2
107	107	6
38	38	7
126	126	5
75	91	1
84	88	1
119	119	6
13	13	5
5	5	8
2	14	3
98	99	2
76	102	2
4	4	4
134	135	5
112	113	2
75	94	2
6	7	2
4	20	2
94	98	1
126	129	1
127	127	3
2	4	2
17	17	5
77	77	1
16	17	1
101	102	2
78	78	6
109	109	2
86	88	3
10	12	1
135	135	8
2	13	1
136	136	5
71	102	1
100	101	1
118	118	6
74	74	6
72	72	4
89	89	2
97	97	6
126	127	2
114	114	10
72	76	1
103	105	1
130	131	4
110	110	3
75	78	1
106	107	1
96	97	4
127	128	1
105	108	1
116	116	4
131	132	1
37	107	1
138	139	1
74	75	1
92	93	2
73	73	4
112	116	1
103	103	3
76	76	3
85	86	1
75	75	2
118	119	5
122	125	1
4	5	1
27	28	1
128	139	1
9	13	1
80	88	1
84	85	2
102	108	1
120	122	1
32	33	1
112	136	1
133	138	1
73	111	1
37	124	2
28	31	1
98	98	5
100	126	1
43	43	1
108	109	1
107	108	3
1	1	2
75	128	1
76	77	2
91	97	1
12	13	1
4	28	1
103	107	1
132	133	3
94	96	1
79	79	3
97	101	1
71	94	1
116	117	2
117	118	2
75	102	1
130	132	1
121	122	2
8	8	2
129	130	1
130	140	1
87	87	2
119	122	2
91	125	1
11	19	1
104	104	2
35	36	1
80	80	4
2	7	1
33	34	1
98	109	1
95	96	1
79	90	1
86	87	1
16	16	2
2	5	1
94	100	1
36	36	2
26	37	1
104	109	1
34	35	1
5	6	1
88	89	1
75	101	1
36	37	1
111	123	1
7	13	1
78	90	1
71	71	2
104	105	1
18	18	2
14	15	1
84	84	1
17	19	1
112	124	1
136	138	2
86	110	1
0	1	1
17	18	1
102	107	1
16	103	1
0	0	1
98	126	1
139	140	1
73	76	1
