133	133	3
99	100	1
99	99	4
73	73	4
136	137	2
28	29	2
59	59	5
123	129	2
54	54	2
61	75	1
56	80	1
139	139	2
56	56	3
18	18	4
60	138	1
129	129	3
40	41	2
54	55	1
135	135	4
138	138	5
95	96	2
85	117	1
29	29	3
142	142	4
49	49	7
100	100	3
17	18	1
117	117	3
140	140	2
76	77	1
79	106	1
33	47	1
18	43	1
116	117	3
72	73	1
8	9	3
34	72	1
118	118	4
8	8	1
72	72	1
97	97	7
67	104	1
25	72	2
130	130	3
84	84	2
141	141	4
126	126	7
17	17	3
5	5	4
109	110	2
127	127	2
62	62	3
131	131	3
80	81	1
74	74	4
134	134	5
3	32	3
59	71	1
24	24	3
61	68	1
81	81	5
111	111	2
47	48	1
69	70	3
16	17	1
55	55	4
104	106	1
17	48	1
4	4	2
1	2	1
103	103	2
13	14	1
113	115	1
2	2	4
67	67	3
59	101	1
24	32	1
15	61	1
123	125	1
71	72	1
30	61	1
69	69	2
26	26	1
137	137	1
32	32	1
142	143	1
15	15	4
52	53	3
64	64	2
52	62	1
39	39	2
80	80	2
94	94	3
1	1	4
48	48	2
20	59	1
110	110	3
0	22	2
31	31	4
50	50	4
74	100	2
87	116	2
65	65	3
63	64	1
0	0	2
91	94	1
66	66	7
58	58	8
87	87	5
93	135	2
83	83	3
33	33	3
21	21	2
75	75	4
88	88	4
71	138	1
29	33	1
91	91	3
128	130	3
123	124	2
124	124	7
71	71	5
33	60	1
95	98	1
114	114	2
95	140	1
119	119	2
9	37	1
71	74	1
94	135	1
134	141	1
125	125	3
6	6	6
74	86	1
95	95	3
23	24	3
86	86	2
101	102	1
28	108	1
128	128	2
61	61	4
77	77	2
96	96	3
9	9	1
2	38	1
124	125	3
37	37	2
27	27	1
90	90	3
109	109	4
21	22	2
11	11	1
119	121	1
77	114	2
24	25	2
120	120	2
18	19	5
25	74	1
89	89	3
25	25	2
81	84	1
39	50	1
76	76	3
52	52	1
70	70	1
76	119	1
132	132	4
40	145	1
60	64	1
85	85	2
135	137	2
102	102	2
106	106	3
62	63	2
3	3	2
79	80	1
23	23	3
140	141	2
32	49	1
51	52	1
3	10	1
92	94	2
87	107	2
55	56	1
28	28	2
22	22	2
67	68	1
94	97	1
68	68	2
94	96	1
91	101	1
135	136	1
26	27	2
144	145	1
128	143	1
91	92	1
121	121	2
123	123	3
99	101	1
51	51	2
104	104	3
141	142	3
52	56	2
79	79	2
82	82	1
97	119	1
94	95	1
80	87	1
10	10	1
79	83	1
143	144	1
13	13	3
90	125	1
98	98	1
143	143	1
31	49	1
20	20	5
36	36	1
32	41	1
65	69	1
57	57	4
2	61	1
53	53	1
73	74	3
32	36	1
35	36	1
90	91	1
94	126	1
87	89	2
78	78	3
47	59	1
20	27	1
39	66	1
58	72	1
118	119	2
122	122	2
113	113	2
59	66	1
14	16	1
134	135	1
77	80	1
137	138	2
30	30	1
116	122	1
121	122	1
83	88	1
93	106	1
129	133	1
16	16	2
81	90	1
5	6	1
116	120	1
145	145	1
42	42	1
101	141	1
78	79	1
19	19	1
33	34	1
126	127	1
5	13	1
54	64	1
74	126	1
110	121	1
108	108	1
31	32	1
132	136	1
35	35	2
108	110	1
41	41	2
0	41	1
39	126	1
12	12	3
105	113	1
68	69	1
39	81	1
54	63	1
42	48	1
92	139	1
145	146	1
19	49	1
87	88	1
101	101	1
117	118	1
128	129	3
34	34	1
80	125	1
112	112	1
91	106	1
27	56	1
108	116	1
12	13	1
82	118	1
63	63	2
92	92	1
82	83	1
109	112	1
60	60	1
