173	176	1
172	211	1
5	6	2
169	181	1
182	184	2
5	11	3
181	181	1
24	37	1
34	36	1
191	243	1
185	212	1
238	238	1
39	41	3
49	55	3
175	175	1
161	165	1
231	234	1
203	203	3
225	230	1
8	8	2
10	15	2
85	85	3
152	166	1
148	152	1
199	199	2
46	46	4
160	160	3
167	177	1
205	213	1
96	115	1
153	153	1
94	94	2
226	228	1
37	38	1
8	9	1
174	200	1
19	24	2
235	235	2
0	4	2
77	83	1
27	27	3
21	21	2
233	236	1
63	97	1
237	237	3
46	48	1
110	119	1
210	211	2
187	187	1
151	179	1
10	14	1
175	176	1
195	197	1
18	19	1
21	22	2
5	8	2
30	34	1
65	70	1
54	60	1
191	192	1
156	156	1
8	10	2
101	200	1
81	81	2
197	240	1
37	37	1
229	232	1
193	194	1
33	34	1
211	211	2
243	243	2
68	70	2
55	59	1
26	26	2
210	212	1
162	193	1
79	92	1
68	87	1
32	34	1
47	66	1
89	91	2
117	118	1
54	54	1
199	231	1
28	35	1
20	29	1
107	107	3
7	45	1
100	110	1
52	54	1
145	170	1
166	171	1
113	114	3
233	237	2
2	28	1
120	120	1
37	45	1
185	189	2
234	234	1
174	180	2
194	199	1
48	93	1
212	213	1
6	6	4
101	107	3
34	56	2
162	167	1
68	68	1
44	71	1
228	231	1
180	187	1
238	243	1
65	68	4
82	85	1
17	18	2
239	241	1
115	116	2
118	119	2
202	202	1
200	202	1
207	239	1
41	46	2
91	107	1
171	183	1
31	31	2
247	247	2
71	73	2
237	244	1
161	163	1
197	237	1
170	184	1
30	35	1
20	30	1
43	48	2
20	20	3
70	111	1
158	158	1
194	195	1
5	5	1
107	118	2
49	63	1
170	173	1
17	23	1
102	106	1
116	116	1
207	208	1
167	172	2
197	199	1
83	83	2
158	184	1
41	42	1
184	218	1
175	182	1
58	82	1
109	110	1
176	178	1
222	223	1
7	8	1
6	10	1
223	223	1
57	77	1
111	113	3
163	163	2
178	179	1
95	99	2
57	57	1
101	114	1
24	32	1
5	43	1
12	17	2
42	42	1
182	200	1
14	30	1
242	242	1
45	49	1
201	226	1
63	67	1
231	239	1
23	23	3
171	171	1
84	84	1
223	224	1
194	224	3
239	244	1
62	67	1
77	77	1
166	169	1
4	6	1
120	145	1
189	203	1
172	175	1
68	69	1
44	44	2
216	218	3
56	58	1
36	45	1
201	204	1
156	168	1
28	31	2
153	179	2
55	65	1
99	101	2
113	117	2
198	199	2
61	62	1
30	48	2
87	89	1
20	25	3
37	71	1
29	31	1
50	93	2
36	40	2
216	217	1
219	227	1
241	242	2
209	210	1
226	234	1
23	68	2
70	103	1
117	117	3
179	181	1
28	28	2
200	204	1
221	223	1
155	155	1
212	222	1
169	176	1
4	24	1
110	113	1
7	7	2
30	30	3
32	73	1
178	180	1
154	173	1
209	209	3
41	72	1
215	216	1
215	230	1
197	201	1
169	199	1
162	162	1
112	113	3
172	172	1
165	165	2
174	185	1
236	245	1
185	185	1
109	119	1
233	233	1
184	186	1
201	210	1
29	34	1
35	67	1
225	229	2
44	56	1
240	242	1
44	52	1
9	20	1
78	82	1
28	58	1
14	14	1
111	119	1
236	236	2
196	213	1
15	61	1
16	47	1
215	247	1
84	85	2
224	226	1
229	229	1
11	16	1
211	212	1
111	111	1
194	202	2
242	245	3
229	230	1
158	183	1
220	225	1
216	216	3
165	170	1
196	199	1
53	54	1
200	201	1
20	27	1
224	228	1
103	103	1
150	150	1
103	105	1
41	57	1
226	227	1
166	172	2
186	186	2
245	248	1
114	115	1
43	43	1
40	40	2
215	220	1
183	183	2
234	237	1
60	63	1
239	240	3
51	51	1
37	40	1
178	188	1
50	75	1
167	179	1
8	47	1
231	232	1
178	178	1
26	51	1
116	119	1
165	167	1
229	237	1
22	22	2
186	192	1
199	207	1
226	238	1
199	204	1
166	208	1
78	78	1
84	88	2
201	215	1
36	38	1
230	246	1
222	222	1
235	237	1
186	202	1
182	182	2
11	11	3
75	91	1
237	238	2
189	191	1
180	183	1
2	35	1
51	79	1
168	169	1
212	215	1
246	246	2
71	74	1
159	160	1
41	48	1
214	216	1
106	119	1
33	33	2
221	221	2
67	67	1
54	58	1
15	52	1
238	246	1
71	89	1
8	14	1
9	46	1
33	35	1
26	30	1
59	59	2
85	105	1
21	23	1
92	94	1
184	194	2
172	176	1
114	117	1
223	225	1
207	207	1
3	12	1
145	145	1
195	232	1
244	244	1
20	36	2
184	227	1
88	88	1
219	219	1
78	110	1
158	170	1
204	204	1
240	241	1
200	237	1
176	176	1
119	120	2
153	154	1
18	18	1
88	99	2
66	69	1
234	239	1
8	46	1
177	177	1
48	67	1
209	213	1
193	198	1
225	231	1
204	206	1
18	46	1
37	47	1
184	185	1
14	21	1
38	40	1
108	113	1
1	2	1
220	220	2
246	247	3
200	211	1
108	111	1
211	225	1
115	119	1
63	71	1
210	213	1
214	214	1
206	206	1
241	246	1
78	84	1
53	70	1
46	54	1
224	224	1
50	53	1
195	237	1
72	77	1
79	79	1
189	224	1
191	191	2
228	228	1
15	16	1
170	170	1
64	67	1
162	191	1
17	19	1
214	218	1
37	43	1
196	237	2
153	183	1
78	85	1
156	157	1
66	74	1
203	213	1
98	116	1
10	40	1
200	200	1
75	79	2
169	174	1
63	63	2
238	241	1
159	163	1
82	82	1
181	184	1
32	33	1
86	86	1
163	164	1
217	217	2
20	21	1
153	159	1
244	247	1
38	73	1
233	248	1
91	110	1
190	194	1
34	37	1
156	162	1
8	18	1
151	176	1
101	105	1
45	91	1
153	191	1
46	56	1
158	174	1
76	92	1
100	100	1
197	197	2
221	225	1
177	201	1
183	190	1
232	232	1
212	217	1
4	21	1
191	236	1
10	10	1
31	32	1
56	61	1
76	76	1
43	46	1
50	50	1
85	106	1
23	24	1
106	106	1
159	159	1
205	207	1
34	42	1
212	214	1
236	239	1
59	83	1
41	43	1
163	174	1
58	58	1
73	79	1
