95	95	3
28	28	5
22	22	2
33	33	4
98	98	2
110	110	2
0	0	2
96	96	5
79	79	1
37	37	7
81	83	3
67	69	1
109	109	2
41	41	4
8	8	7
27	96	1
10	10	9
90	91	2
102	102	3
137	137	3
65	65	2
115	116	2
21	40	2
130	130	8
142	142	1
129	129	1
112	115	1
31	32	1
91	91	1
126	126	3
73	73	1
142	143	3
27	91	1
69	70	1
53	53	1
11	11	5
100	100	2
16	16	2
108	108	2
103	103	4
14	14	2
32	33	2
99	99	3
27	27	2
48	49	2
49	49	3
77	78	2
2	2	1
75	77	2
135	135	3
62	92	1
38	38	1
62	98	1
22	23	1
141	141	3
93	93	2
35	35	1
61	97	1
116	116	2
129	131	1
25	75	1
144	144	2
139	140	1
32	32	1
21	21	2
4	13	3
111	111	2
125	125	4
20	20	5
55	57	1
59	59	1
89	89	1
15	15	1
61	90	1
61	62	2
42	42	3
118	119	1
138	138	2
26	26	1
134	134	2
115	115	2
49	52	1
71	72	1
29	29	3
109	110	1
55	55	1
104	104	3
17	18	1
47	48	1
18	71	1
1	1	3
101	101	2
49	50	1
25	26	2
54	55	1
145	145	3
87	120	1
83	85	2
107	107	1
20	21	1
123	123	1
25	37	1
104	106	1
131	131	2
66	66	3
23	40	1
39	39	1
59	61	1
55	56	1
64	64	1
128	128	2
50	51	1
102	126	2
23	50	1
87	87	2
146	146	1
68	72	1
18	18	2
130	131	2
56	56	1
29	30	2
140	141	1
85	85	1
140	140	3
96	103	1
23	41	1
34	34	2
78	78	2
121	123	1
17	38	2
70	70	2
80	80	1
101	103	1
100	125	1
139	139	2
31	31	1
23	23	4
68	68	1
88	90	1
106	106	1
81	81	3
38	39	1
58	58	2
92	92	1
97	97	1
72	72	2
95	101	1
24	64	1
8	9	1
40	40	1
77	77	1
118	118	2
1	2	2
121	122	1
83	88	1
9	9	1
121	121	1
18	19	2
77	127	1
127	127	1
108	109	2
114	114	1
87	96	1
12	12	1
144	145	1
104	120	1
16	33	1
16	17	1
106	108	1
8	41	1
34	35	2
15	124	1
63	63	1
107	140	1
84	84	1
14	15	1
50	50	1
107	109	1
24	24	1
75	107	1
120	121	1
69	69	1
119	119	1
94	94	1
117	120	1
20	95	1
137	139	1
133	133	1
