93	97	2
73	73	4
37	37	6
71	71	3
29	30	1
26	27	3
129	129	6
63	63	6
128	129	3
1	2	3
66	66	9
83	83	3
133	133	3
24	43	1
29	29	3
91	91	6
15	21	2
22	22	7
53	54	2
134	134	2
8	9	1
52	52	5
23	23	3
74	74	5
25	26	1
45	45	2
132	133	1
57	58	5
5	6	1
111	111	5
83	84	3
77	77	7
120	121	1
109	109	4
14	15	2
10	11	2
85	85	5
97	98	1
84	84	3
36	36	6
99	100	2
98	99	2
5	5	6
72	72	11
19	19	2
2	2	3
119	119	5
95	99	1
87	87	8
82	82	8
122	123	1
84	86	1
88	89	2
26	26	4
3	4	1
28	62	2
69	70	2
13	50	1
104	104	8
6	7	1
28	28	5
68	68	3
16	18	1
31	32	2
64	64	6
21	21	5
46	47	2
132	134	1
61	82	2
81	81	2
63	70	2
23	24	2
16	16	2
12	12	3
117	117	3
80	80	9
119	120	1
107	107	4
114	114	2
96	96	1
54	55	2
33	33	4
11	50	1
11	11	5
60	60	3
42	53	1
132	132	2
121	123	1
51	59	1
48	48	8
71	89	1
94	95	2
94	94	4
0	0	8
4	4	3
92	96	1
88	93	2
44	44	5
124	124	1
24	25	1
30	30	6
35	35	3
20	21	5
101	101	1
60	61	5
50	50	8
62	64	1
56	69	1
38	38	1
84	85	1
13	13	4
19	20	2
27	32	1
77	78	3
96	100	1
59	90	1
76	76	5
0	1	1
79	80	4
65	65	2
101	133	2
6	11	1
135	135	2
92	118	1
17	17	4
34	37	1
70	79	1
9	9	7
7	7	3
10	10	5
43	43	10
79	79	7
25	25	2
1	1	7
122	122	7
89	89	3
34	35	2
21	22	2
31	31	4
20	20	2
75	75	2
69	69	12
113	113	2
124	125	3
48	49	2
121	122	1
123	124	3
3	3	4
109	111	1
125	131	1
57	57	3
47	65	1
128	128	2
35	36	5
36	37	1
59	60	3
11	26	1
86	86	3
73	74	1
81	82	1
65	66	3
78	78	8
95	95	3
90	91	2
112	115	1
118	118	2
89	90	3
59	59	5
92	92	1
9	10	3
116	116	1
90	90	4
77	113	1
7	8	3
45	72	1
108	116	2
87	88	2
106	111	1
32	32	1
71	74	1
78	85	1
18	18	5
120	120	4
65	87	1
24	24	8
100	100	2
88	124	1
113	116	1
121	121	2
57	59	2
127	127	6
23	47	1
61	62	2
49	49	4
56	61	1
56	56	1
102	102	3
66	68	1
55	55	1
45	71	1
97	99	1
8	8	2
67	68	2
70	70	3
49	70	1
121	125	1
11	15	1
108	108	3
126	126	1
70	105	1
87	92	1
76	81	1
98	115	1
53	56	1
118	120	1
110	110	1
64	65	1
65	80	1
11	23	1
28	57	1
73	91	1
112	112	1
78	79	1
64	82	1
47	47	2
106	106	1
98	101	1
100	101	1
69	95	1
125	125	2
18	23	1
7	10	1
58	58	1
28	32	1
61	61	3
66	67	1
55	56	2
130	131	1
28	38	1
62	62	2
43	44	1
33	34	5
108	109	1
32	64	1
14	14	2
6	6	1
30	35	2
106	107	1
59	64	1
46	46	1
28	30	1
82	111	1
77	118	1
127	130	1
24	29	2
23	25	1
37	38	1
80	112	1
100	121	2
54	56	2
50	59	3
123	123	1
25	52	1
57	60	1
67	67	1
107	108	1
103	104	3
99	99	1
54	54	4
36	64	1
11	12	1
84	116	1
97	97	2
88	88	1
59	62	1
115	115	1
63	87	1
6	25	1
85	86	1
21	23	1
93	93	1
86	87	2
33	47	1
114	126	1
101	102	1
42	42	1
44	77	1
93	116	2
7	15	1
23	30	1
27	27	1
75	80	1
16	22	1
15	33	1
114	115	1
65	71	1
87	110	1
80	85	1
80	81	1
70	73	1
22	23	1
62	118	1
124	133	1
17	18	1
44	102	1
