114	115	2
134	135	1
133	133	18
122	122	4
114	114	3
11	11	3
91	91	6
2	19	1
135	135	6
131	131	5
115	116	1
99	100	3
101	101	6
71	71	5
123	123	4
0	0	3
96	96	5
94	94	5
109	109	4
100	126	1
100	100	2
121	121	4
77	80	1
15	15	1
128	129	1
75	75	2
95	97	1
126	126	6
96	123	2
8	8	2
103	103	5
125	125	4
133	134	5
137	137	3
32	35	2
127	127	6
117	117	3
119	120	1
31	32	1
140	140	3
90	90	1
93	96	4
0	1	1
108	108	2
124	125	1
89	89	2
128	128	7
132	140	1
129	130	4
19	19	1
100	123	3
126	128	1
81	84	1
111	123	3
116	117	1
111	111	6
37	38	2
132	132	5
85	86	1
115	115	4
134	134	8
104	107	1
71	118	1
113	114	2
81	85	1
71	72	2
74	102	1
1	1	3
33	33	3
104	104	2
75	76	2
72	72	3
82	82	3
98	98	6
132	133	2
119	119	4
102	102	8
99	99	4
102	103	3
139	139	3
130	130	6
37	37	3
98	99	1
96	97	1
136	136	5
117	123	1
87	87	4
18	18	2
139	140	1
135	136	2
16	16	2
131	134	1
100	101	2
95	96	1
125	126	1
117	126	1
100	103	2
129	129	4
110	113	1
82	102	2
124	124	1
73	73	1
38	38	4
37	129	1
4	4	2
95	95	3
112	112	4
103	108	2
17	18	1
4	5	2
113	113	2
36	36	3
94	130	1
34	34	6
98	136	1
112	113	1
119	122	1
1	9	1
116	116	5
117	118	2
89	90	1
79	79	1
81	82	2
17	17	1
138	140	1
110	110	2
117	119	1
107	108	1
35	36	1
105	105	1
74	75	2
93	94	2
6	6	2
81	81	2
18	19	1
94	116	1
91	124	1
5	5	2
118	118	1
77	78	1
7	7	1
120	120	1
105	109	1
104	121	2
74	77	1
84	84	2
108	109	1
107	107	2
74	74	3
33	36	2
84	85	2
96	108	1
138	138	1
71	97	1
3	3	2
80	81	1
114	116	1
80	102	1
35	35	1
93	93	1
36	37	1
86	86	1
27	27	1
109	117	1
71	89	1
104	120	2
88	88	1
72	73	1
117	120	1
106	106	1
8	9	1
118	120	1
10	11	1
86	87	1
9	9	1
123	130	1
98	115	1
78	79	1
3	4	1
7	9	1
90	104	1
99	114	1
