95	104	2
4	5	1
22	25	1
53	54	2
30	32	1
89	89	1
64	64	8
12	12	4
17	24	1
35	35	5
62	62	2
33	33	6
75	76	1
93	93	1
77	97	1
19	31	1
57	57	1
21	21	5
59	59	2
21	25	2
31	78	2
57	78	1
52	52	4
0	12	1
84	84	3
61	65	1
51	51	2
0	0	4
36	36	3
87	87	6
73	73	7
126	126	1
7	20	1
97	99	2
1	1	4
84	87	1
25	35	1
115	115	5
52	55	1
130	130	2
132	134	1
112	112	2
12	14	1
130	132	1
119	120	1
126	129	1
69	69	2
78	80	1
5	6	1
75	82	2
85	87	2
63	63	6
74	74	6
17	17	3
77	78	1
111	111	2
79	112	1
83	85	1
73	82	1
67	73	1
78	78	4
72	72	9
79	79	6
42	42	1
21	31	1
82	82	4
3	3	3
26	26	5
104	104	5
128	128	3
4	8	1
86	86	4
85	86	1
119	119	4
56	56	4
54	61	1
85	85	2
44	65	1
34	37	1
91	105	1
28	28	2
56	62	2
14	14	4
9	9	3
113	115	1
47	48	2
105	105	1
84	86	1
43	44	5
13	13	3
123	123	1
16	33	2
23	24	1
23	23	6
110	110	2
55	56	1
114	126	1
98	98	1
113	113	4
8	21	1
5	5	4
45	63	2
49	49	1
43	43	2
7	7	1
84	91	1
10	10	1
88	88	2
71	71	4
29	35	1
114	118	1
116	118	2
63	65	1
125	126	2
124	124	1
103	104	1
92	105	1
42	90	1
1	24	1
127	128	1
114	115	1
16	16	2
108	110	1
64	65	1
80	80	7
96	97	3
71	72	2
122	122	1
54	68	1
16	60	1
66	66	1
45	45	5
31	33	1
121	121	3
112	117	1
26	34	1
79	80	2
15	17	1
29	74	2
49	52	1
4	4	3
6	6	1
8	14	3
31	37	2
50	50	1
68	68	4
122	125	1
84	85	3
72	74	1
11	19	1
65	66	2
76	86	1
109	118	2
81	81	3
65	68	1
72	80	1
2	2	1
11	11	5
131	132	2
62	64	1
22	22	2
133	133	2
86	87	2
129	129	2
56	65	1
24	28	1
73	74	2
8	8	2
116	117	1
47	47	1
108	108	2
18	60	1
61	61	2
101	101	1
25	25	2
7	8	2
11	21	1
109	109	3
90	90	1
75	77	1
128	133	1
92	92	3
31	49	1
85	98	1
44	44	1
59	61	3
75	85	2
75	75	1
26	35	1
14	15	1
15	18	1
77	77	4
10	11	3
116	116	1
54	63	1
70	70	1
131	131	1
44	45	1
91	91	2
24	24	2
65	71	1
1	5	2
20	20	1
11	22	1
23	25	1
74	75	1
54	54	1
53	53	3
130	131	1
65	70	1
95	95	1
117	117	1
107	107	1
83	83	2
93	96	1
22	23	1
86	90	2
124	133	1
117	126	2
68	69	1
15	15	1
57	59	1
72	73	1
69	91	1
67	74	1
76	76	1
114	114	1
22	46	1
85	125	1
67	67	1
61	80	1
58	59	1
60	60	2
91	92	1
106	106	2
66	68	1
21	23	1
54	55	1
35	38	1
107	109	1
5	7	1
63	98	1
47	81	1
63	79	2
92	98	1
55	55	1
94	94	2
120	120	1
100	102	1
0	1	1
92	93	1
6	18	1
6	10	1
80	81	1
6	7	2
63	64	1
106	110	1
3	12	1
27	28	1
68	73	1
12	13	1
134	134	1
33	34	1
19	19	1
54	71	1
38	55	1
57	68	1
34	35	1
78	79	1
63	66	1
37	38	1
