76	76	3
87	88	3
61	65	1
100	100	2
59	59	4
21	21	3
9	10	4
7	7	5
11	11	4
28	72	1
77	77	2
50	52	1
0	0	3
58	59	3
59	65	1
50	51	2
3	6	1
91	91	2
65	71	2
56	56	4
129	129	2
52	76	1
95	95	1
35	38	1
80	80	1
38	38	4
92	92	2
58	58	3
29	29	5
98	98	2
49	49	2
83	83	6
65	65	5
108	108	2
27	27	2
97	99	1
87	87	1
30	31	1
81	81	3
33	33	2
17	17	5
25	97	1
6	6	4
47	77	1
23	23	3
86	87	2
122	124	1
108	109	1
2	2	8
52	52	2
86	86	4
60	60	1
125	125	1
123	123	2
97	97	4
25	26	1
85	86	1
53	53	3
63	63	3
135	135	1
31	48	1
42	67	1
25	25	4
83	84	3
44	44	5
80	90	1
70	70	4
120	120	7
47	47	2
126	126	2
55	56	2
16	16	7
16	25	2
24	24	5
75	75	2
68	68	5
33	34	2
28	29	2
45	45	3
13	13	4
59	80	1
13	14	1
73	73	3
121	121	3
102	103	2
130	131	2
72	72	6
3	3	3
11	17	1
67	67	2
113	113	6
58	60	1
5	5	3
123	125	1
105	105	2
54	54	4
35	35	4
131	131	3
79	79	3
1	1	2
52	54	1
4	4	2
2	3	1
25	99	1
61	66	1
74	74	2
80	81	2
127	130	1
66	86	1
32	32	3
18	18	2
77	78	2
112	112	3
106	107	2
21	22	1
14	14	5
124	124	1
71	72	3
49	54	1
34	34	2
63	88	2
57	57	3
36	36	1
26	26	1
82	82	5
37	67	1
128	128	2
62	64	1
22	22	1
30	30	3
101	101	1
104	105	1
63	64	1
109	109	1
127	127	1
12	14	1
58	85	2
53	54	3
96	96	1
103	127	1
29	30	2
4	5	1
48	48	1
121	122	1
76	77	2
50	79	1
129	130	1
99	100	1
19	20	1
57	58	1
61	61	2
71	71	3
70	120	1
69	70	1
74	75	2
42	43	2
94	95	1
15	21	1
55	55	1
82	86	1
89	89	1
25	27	1
27	28	1
50	50	2
16	32	1
60	81	1
82	111	1
62	77	1
90	90	1
84	84	6
9	9	3
12	12	2
65	81	1
16	18	1
64	65	1
123	124	2
85	85	3
59	61	1
118	118	1
95	96	1
43	50	1
31	31	1
83	117	1
107	107	1
55	57	1
134	134	1
53	68	1
28	28	2
35	36	1
18	19	1
82	83	1
20	20	2
69	71	1
110	110	1
1	4	1
64	64	1
78	78	1
8	8	2
116	116	1
42	42	1
108	114	1
96	97	1
99	99	1
115	115	1
13	128	1
10	10	1
103	103	1
119	120	1
27	34	1
3	5	1
31	32	1
69	106	1
105	112	1
43	43	1
52	53	1
78	90	1
88	88	1
56	58	1
