77	77	3
118	118	2
58	59	2
31	32	3
97	97	2
0	0	4
57	58	2
131	131	1
71	77	1
43	44	1
57	57	5
30	31	2
99	99	1
94	125	2
15	16	1
32	32	2
7	7	5
124	124	4
130	130	2
67	85	1
76	104	1
17	18	1
104	104	3
66	66	1
68	94	1
83	84	1
75	102	1
100	100	1
91	91	2
11	11	2
119	119	4
26	26	1
115	117	1
80	96	1
21	21	1
44	44	1
111	111	3
94	94	5
80	80	3
29	32	2
114	119	1
98	98	2
51	51	3
86	87	2
1	1	2
85	85	1
84	85	1
102	102	1
48	48	3
116	116	1
123	123	1
122	122	2
86	86	2
23	23	2
118	120	1
25	27	1
43	43	1
49	49	2
42	51	2
18	19	1
64	64	2
89	90	1
133	133	3
6	6	1
92	92	1
89	89	1
70	72	1
96	96	1
34	34	1
128	130	2
15	15	2
42	42	3
13	13	1
112	112	4
121	121	5
54	54	2
125	125	4
19	24	1
37	37	1
108	109	2
63	64	1
96	98	1
10	10	1
91	129	1
46	46	1
29	47	1
27	27	1
22	22	2
98	99	1
71	71	3
56	56	1
113	121	1
50	53	1
31	31	2
114	115	1
24	24	2
30	30	1
75	75	4
28	29	2
55	55	1
83	83	2
91	95	1
103	103	2
110	111	3
130	132	1
25	25	4
21	45	1
113	114	1
59	60	1
12	13	1
11	12	1
107	107	1
31	122	1
106	106	1
95	95	2
25	26	1
115	115	2
82	82	1
53	53	2
52	52	1
27	29	2
67	68	1
99	100	1
90	90	1
87	100	1
97	98	1
129	129	1
9	9	2
76	77	2
63	63	2
73	73	1
104	105	1
126	126	2
69	69	1
67	67	1
128	128	1
62	62	1
24	62	1
21	22	1
113	118	1
110	110	1
108	124	1
127	127	2
60	61	1
40	40	1
29	43	1
48	72	1
93	100	1
7	8	1
115	119	1
101	101	2
132	133	1
55	56	1
93	101	1
109	109	2
83	92	1
70	70	2
14	14	1
120	120	3
33	78	1
81	81	1
41	64	1
114	114	1
4	5	1
116	117	1
95	96	1
23	28	1
79	80	1
57	93	1
47	58	1
83	94	1
50	50	1
87	88	1
58	58	1
49	50	1
12	12	1
105	105	1
8	9	1
97	99	1
56	65	1
