6	6	2
139	139	5
64	125	1
125	125	4
0	37	1
106	106	4
46	47	2
27	27	7
0	0	1
58	58	1
62	62	2
102	102	2
17	18	2
29	29	4
30	95	3
1	1	5
131	133	1
105	106	2
41	41	3
91	91	2
29	31	1
132	133	1
56	99	1
94	94	4
97	98	1
127	130	3
76	76	1
9	9	3
127	127	3
25	28	1
71	73	1
50	50	1
73	73	4
26	26	4
134	134	6
23	24	2
67	67	4
108	109	1
74	75	3
133	133	3
127	129	1
69	69	1
85	86	1
74	74	2
123	123	2
2	6	2
108	110	2
138	139	1
43	66	1
31	32	2
38	38	4
104	104	3
103	103	6
66	66	2
18	18	3
60	60	3
12	30	1
4	5	3
123	124	3
116	116	3
145	145	3
146	146	1
121	121	2
111	112	2
127	131	1
118	139	1
18	26	2
99	99	2
64	64	1
59	78	1
49	49	3
20	20	4
78	78	1
94	95	1
130	131	1
40	41	1
108	108	1
51	52	1
110	140	2
3	3	1
57	57	2
34	35	1
38	39	1
30	30	1
110	125	2
130	140	1
95	96	2
67	68	3
131	132	1
109	109	3
87	116	1
42	43	1
83	85	1
96	96	1
65	65	2
93	108	2
59	59	1
51	51	1
1	17	1
130	130	3
61	62	1
69	89	2
115	115	2
122	139	1
56	56	3
126	126	2
6	22	1
107	107	2
10	10	1
67	124	1
122	122	2
22	22	3
111	111	3
15	48	1
63	65	2
34	36	1
48	48	1
83	83	1
135	135	1
35	35	2
110	110	3
37	38	1
56	70	1
128	128	1
80	80	1
53	53	1
19	19	3
142	143	2
82	120	1
119	120	1
31	31	1
87	87	3
96	98	1
83	96	1
102	103	1
8	9	1
144	144	4
124	124	2
98	98	3
85	104	1
47	47	2
36	72	1
15	25	1
71	72	1
132	132	5
108	113	1
55	55	2
110	117	1
39	70	1
42	42	1
118	118	1
56	57	1
113	114	2
15	15	1
42	50	1
96	97	1
138	138	2
19	20	1
117	117	2
91	122	1
140	140	1
13	13	1
68	81	1
82	82	2
61	105	2
103	121	1
38	70	1
11	11	1
112	114	1
23	23	1
37	37	2
101	101	2
75	75	2
58	59	1
90	90	1
95	97	1
97	97	2
32	47	1
128	131	1
118	135	1
71	71	3
39	39	1
38	53	1
32	32	2
86	87	1
52	52	1
13	16	1
136	136	3
128	129	1
61	74	1
133	141	1
128	130	1
10	97	2
66	67	1
40	40	2
28	28	2
2	2	1
110	139	1
21	21	2
12	99	1
145	146	1
86	95	1
137	139	1
93	93	1
86	86	1
53	54	1
80	81	1
129	129	1
105	105	1
2	37	1
112	113	1
4	23	1
144	146	1
140	141	1
25	25	1
106	108	1
33	37	1
48	49	1
57	73	1
23	26	1
64	65	1
38	40	1
27	48	1
92	94	1
43	43	1
104	105	1
73	79	1
81	81	1
72	72	1
