84	84	4
122	122	5
43	43	5
139	139	3
68	96	2
100	100	3
16	17	1
123	123	8
92	94	1
117	117	4
138	138	2
85	123	1
27	27	5
15	16	1
66	72	1
5	33	1
29	45	2
130	130	2
36	36	1
85	141	1
20	21	3
112	115	2
33	33	1
128	129	3
118	118	5
137	137	4
97	130	1
1	1	6
121	121	1
49	49	2
135	144	1
78	78	1
155	156	2
121	137	1
120	130	1
7	8	1
88	110	1
79	79	5
15	17	1
81	81	4
88	89	1
127	127	2
120	120	5
18	20	1
40	40	2
134	137	1
69	82	1
42	42	2
88	88	2
144	144	3
72	72	2
149	149	3
131	131	6
156	157	3
91	92	2
14	153	1
64	77	1
4	4	2
109	109	4
66	98	1
3	3	4
66	128	1
78	82	1
43	44	1
93	93	2
119	135	2
144	147	1
8	11	1
2	2	1
147	152	2
70	70	2
13	14	2
129	129	1
128	128	1
69	69	3
62	62	1
21	21	1
15	15	4
103	152	1
89	123	1
112	112	4
55	87	2
87	88	1
101	101	3
19	101	1
70	84	1
158	158	2
137	141	1
109	110	4
44	44	4
1	2	1
121	122	1
134	134	3
128	130	2
108	110	3
80	142	1
123	127	1
114	114	2
112	138	1
119	147	1
116	117	1
155	155	2
120	131	2
134	145	1
7	7	1
144	145	4
5	5	2
88	117	1
106	124	2
154	154	7
56	100	1
53	53	2
156	156	2
99	99	3
55	100	2
131	132	1
84	85	2
90	158	1
136	136	2
110	111	3
117	120	1
65	73	1
81	82	3
145	145	4
77	79	2
124	125	1
9	9	2
50	51	1
94	94	1
102	102	2
31	31	3
8	8	2
15	153	1
20	150	1
148	148	7
146	147	1
83	83	1
19	19	2
12	86	1
73	73	4
3	4	2
63	63	2
87	132	1
92	93	3
67	70	2
85	85	4
119	119	1
11	12	1
113	114	1
106	128	1
124	124	2
129	131	1
136	145	1
123	126	1
104	104	2
21	40	2
151	151	3
106	106	3
32	126	1
86	87	2
110	114	1
75	112	1
8	9	2
68	69	1
29	31	1
125	125	5
71	71	2
110	110	4
7	152	1
91	91	1
20	20	2
28	29	1
66	66	2
157	157	4
93	94	2
48	48	1
148	149	2
95	111	1
150	150	4
115	115	3
79	137	2
98	98	2
13	13	1
133	154	1
33	37	1
66	67	1
30	36	1
65	65	2
103	104	1
108	108	3
127	128	2
6	148	1
28	28	1
77	77	2
38	38	1
126	126	3
47	47	1
90	105	3
80	151	1
92	140	1
88	90	1
92	98	2
155	158	2
46	46	6
2	106	2
22	26	1
24	24	1
125	126	2
107	107	1
134	136	1
150	151	1
52	82	1
28	31	1
16	16	2
45	47	1
124	126	4
96	96	3
22	45	1
118	119	1
17	19	1
77	91	1
144	146	2
112	113	1
87	87	2
26	27	1
36	37	1
21	22	1
106	122	1
115	141	1
22	22	2
132	153	1
16	151	1
112	153	1
38	39	1
54	54	1
54	153	1
111	155	1
139	140	2
141	143	1
26	26	2
147	147	3
5	66	1
68	68	3
63	64	1
67	67	2
150	153	1
106	120	1
31	47	1
143	143	1
84	126	3
114	127	1
145	146	1
126	135	1
3	48	1
4	5	1
64	64	1
131	134	1
140	140	1
19	23	1
75	79	1
82	87	2
20	151	1
75	75	1
114	115	1
30	30	1
142	142	2
82	90	1
123	124	1
82	82	1
81	85	1
72	73	1
41	43	2
81	120	1
50	50	2
5	23	1
78	88	2
78	90	2
85	87	1
78	79	1
151	156	1
12	34	1
54	55	1
56	75	1
89	117	1
119	120	1
68	152	1
108	109	1
90	90	1
121	153	1
35	35	1
47	48	1
111	111	1
21	42	1
86	86	1
154	157	1
10	42	2
87	126	1
132	132	1
29	30	1
33	34	1
141	141	2
92	92	1
94	96	1
56	56	2
12	12	1
56	61	1
154	156	1
29	29	1
3	71	1
17	17	1
12	15	1
25	25	2
75	106	1
146	146	1
96	97	1
85	86	1
64	107	1
96	114	1
21	35	1
104	123	1
