192	193	2
213	214	1
17	17	6
70	80	1
65	65	9
39	40	2
44	44	5
63	63	8
120	144	1
240	240	4
227	227	4
108	108	3
25	25	3
188	189	1
82	82	2
101	101	4
53	53	1
51	51	4
28	46	2
223	226	1
10	10	13
201	202	2
237	238	1
10	20	3
57	57	3
162	162	7
226	226	5
195	214	1
30	31	7
151	151	9
247	248	4
22	22	9
109	109	13
116	116	8
167	167	8
156	156	9
16	16	6
0	0	2
205	205	3
48	87	2
224	224	5
200	200	5
145	145	3
203	203	4
186	187	4
31	31	7
170	170	6
52	52	5
18	18	12
180	181	1
214	214	9
243	243	2
61	65	1
60	61	2
224	225	4
29	41	1
61	61	5
239	247	1
7	7	2
32	32	8
183	183	1
42	42	6
109	110	1
242	243	2
37	37	7
71	71	6
74	78	1
150	150	4
21	22	1
213	213	8
159	159	6
68	68	4
54	54	8
206	206	4
161	161	3
157	157	5
175	175	4
111	111	10
36	36	9
112	112	6
56	56	8
13	14	4
68	70	3
70	70	3
119	119	6
46	46	10
48	49	2
50	50	4
238	239	4
60	168	1
238	238	4
110	110	6
51	223	1
154	154	4
219	219	5
9	203	1
85	87	1
59	63	1
245	245	7
93	114	1
246	246	2
119	120	2
169	169	4
61	62	2
155	155	3
173	173	5
4	57	2
223	223	10
11	11	9
221	223	1
213	217	2
64	169	1
38	38	8
12	12	10
222	222	4
179	207	3
191	191	4
187	188	1
196	213	2
199	199	6
221	222	2
38	47	2
243	245	1
55	55	5
185	185	3
208	209	2
41	41	5
97	102	1
35	36	1
113	114	2
233	234	2
237	239	1
79	80	1
184	184	4
31	45	2
79	84	1
19	19	5
234	234	7
28	28	12
242	242	5
163	163	5
7	19	1
17	29	1
95	100	1
51	52	2
247	247	7
95	95	2
204	204	5
43	43	9
118	118	4
81	81	4
243	244	6
94	94	8
12	26	2
49	50	2
231	231	3
168	168	2
49	49	2
241	241	5
68	69	1
4	4	5
117	117	8
77	77	3
248	248	2
47	47	5
15	15	6
100	100	2
28	36	1
200	213	1
23	23	3
24	24	8
163	164	6
9	9	4
33	34	1
168	212	1
207	213	1
244	247	1
198	198	3
215	240	2
73	74	6
220	220	3
98	98	3
177	177	5
33	33	3
22	23	1
30	30	7
94	100	1
34	37	2
235	235	7
65	101	1
230	231	1
74	75	2
106	107	1
62	63	2
69	69	1
171	171	5
16	21	1
172	173	2
96	96	2
72	72	2
64	67	1
100	117	1
236	245	1
215	219	1
24	25	2
182	183	1
240	241	2
209	209	8
34	34	5
175	178	1
185	186	2
26	26	4
232	232	8
166	167	2
225	225	4
212	230	1
25	30	1
187	187	3
193	194	2
186	189	2
233	233	3
174	201	1
97	97	2
20	20	6
164	165	1
192	192	4
216	217	2
51	55	3
237	237	6
194	195	1
207	207	8
95	96	2
244	244	1
212	245	1
5	5	3
71	78	1
44	46	1
212	212	6
120	120	2
180	180	1
8	67	1
86	86	7
152	152	4
2	2	3
18	20	1
166	166	6
73	80	1
244	245	1
32	54	1
216	240	1
160	160	3
217	217	3
60	60	3
199	218	1
87	117	1
40	40	3
184	197	2
160	178	1
48	48	4
28	38	2
210	210	5
198	238	2
90	90	5
47	48	1
79	81	1
153	153	4
7	120	1
182	193	1
176	176	3
227	234	1
92	92	3
167	174	1
73	73	3
21	21	6
187	189	2
67	77	1
32	33	1
165	165	4
186	198	1
178	178	4
147	147	2
183	184	2
43	52	1
34	35	1
190	200	1
45	46	2
214	215	4
200	222	1
208	208	4
57	58	1
37	38	1
38	39	1
8	9	3
18	71	1
221	221	3
3	3	8
17	18	1
179	180	1
48	52	1
67	155	1
179	179	3
195	208	1
216	218	1
80	80	6
69	248	1
71	75	2
228	228	2
101	102	2
14	14	5
87	89	1
188	188	3
73	75	1
174	180	1
50	68	1
27	28	1
168	184	1
83	83	3
58	58	1
172	172	6
165	171	1
26	27	2
27	27	6
85	86	2
8	8	4
213	234	1
84	84	1
67	67	5
181	214	2
200	201	2
93	94	1
93	116	1
173	174	1
6	6	4
112	113	3
93	93	3
218	218	4
48	70	2
2	3	1
86	95	1
239	239	2
165	167	1
171	178	1
171	220	1
47	50	1
241	242	1
194	194	7
203	207	1
196	196	4
197	197	3
193	200	1
85	85	2
29	70	1
162	172	1
78	83	1
186	186	3
114	114	4
59	59	2
26	65	1
48	238	1
1	1	5
35	35	4
230	230	4
39	167	1
221	232	1
71	85	1
31	44	1
47	93	2
167	168	2
89	109	1
102	102	1
5	6	4
184	185	2
15	17	1
107	107	7
150	151	2
78	85	1
13	13	1
217	220	2
164	164	2
223	224	2
204	205	1
209	216	1
160	161	2
225	226	4
198	199	1
193	195	1
46	114	1
47	63	1
211	211	4
158	159	1
35	153	2
115	115	1
9	10	1
112	116	1
168	169	1
181	181	1
100	101	1
46	110	1
208	231	1
212	232	1
18	19	1
19	20	1
245	246	1
202	202	3
105	105	1
114	169	2
189	192	2
29	30	3
53	168	1
175	182	1
53	150	1
3	4	1
167	192	1
89	90	2
201	247	1
84	85	1
94	116	1
182	182	1
67	78	1
111	200	1
236	236	3
28	29	1
232	246	1
104	104	1
167	226	1
79	79	2
191	192	2
15	16	2
55	65	2
60	83	1
146	146	2
99	99	5
157	178	2
113	113	2
106	106	1
248	249	1
160	176	2
77	81	1
24	53	1
239	240	2
29	29	3
18	48	1
82	105	1
211	236	2
174	174	2
235	245	2
15	185	1
157	176	1
229	229	4
45	45	5
54	178	1
189	190	2
74	85	1
70	71	2
78	78	1
30	35	1
174	213	1
6	47	2
70	96	1
22	24	1
204	226	1
60	77	1
159	160	1
175	176	1
162	193	1
71	79	1
43	44	1
175	177	1
195	209	1
163	165	1
233	237	1
171	186	1
181	182	1
5	232	1
212	223	1
216	216	1
30	32	1
75	82	1
195	195	1
215	216	1
173	196	1
152	153	1
54	55	1
55	58	2
87	100	1
86	234	1
212	213	1
24	43	1
189	189	1
236	238	1
215	215	2
27	118	1
155	161	2
101	103	1
201	201	1
214	248	1
94	95	1
229	234	1
117	153	1
226	228	2
166	171	1
1	113	2
22	25	1
45	93	1
197	198	1
181	228	1
214	216	1
219	236	1
93	165	1
12	110	1
78	79	1
4	239	1
69	70	1
65	117	1
231	232	1
158	158	1
17	19	2
38	205	2
9	20	1
54	59	1
59	85	1
28	30	1
54	149	1
217	218	1
25	26	1
75	76	1
149	149	1
49	70	1
113	116	1
76	92	1
81	82	1
215	241	1
158	162	1
179	199	1
66	67	1
169	173	1
34	206	1
28	32	1
211	212	1
162	163	1
29	54	1
87	87	1
66	234	1
59	60	1
51	63	1
21	26	1
246	248	1
62	168	1
77	82	1
238	240	1
