89	89	1
42	44	1
28	43	1
47	48	1
35	35	3
50	51	3
91	94	1
21	21	2
120	120	1
121	121	2
123	123	2
15	15	8
149	150	2
45	53	1
74	74	4
82	82	1
64	64	5
130	141	1
2	2	7
74	75	1
104	105	1
65	78	1
38	38	2
118	121	1
128	129	1
118	118	3
137	159	2
85	85	3
25	25	7
34	34	6
167	167	1
146	152	2
127	128	1
65	65	2
164	164	2
143	147	1
21	65	1
141	141	6
15	27	1
150	150	8
90	95	1
41	41	6
27	27	9
158	158	6
11	12	1
93	93	2
26	26	1
1	1	4
74	77	1
130	153	1
8	9	2
69	69	3
128	128	5
0	1	1
148	148	2
7	7	6
63	79	1
119	119	6
68	97	2
142	145	2
71	81	1
92	94	1
44	46	1
0	46	1
170	170	3
168	168	2
2	6	1
17	17	2
126	126	2
140	155	1
45	45	1
69	70	3
13	13	6
123	124	3
91	91	2
39	39	1
57	57	1
163	164	1
113	113	4
133	133	5
149	149	2
76	76	5
53	54	1
54	55	1
152	153	2
134	134	4
78	78	2
56	56	2
122	130	1
87	153	1
110	110	4
94	95	1
143	143	4
63	63	3
13	15	2
35	36	1
45	80	2
37	37	7
156	156	2
159	159	1
65	75	1
127	127	2
57	61	1
44	45	1
105	105	2
3	4	2
94	97	1
6	73	1
65	66	3
87	88	2
139	166	1
88	88	3
144	144	6
157	157	4
12	12	4
54	54	3
67	129	1
41	43	1
166	166	3
81	82	2
101	101	2
102	102	4
22	22	6
9	17	1
41	42	1
135	160	1
46	86	1
43	44	2
10	12	1
86	87	1
36	36	4
97	98	2
145	147	1
100	100	1
111	111	1
161	161	3
77	133	1
99	103	2
56	108	1
75	77	1
86	86	4
14	14	4
118	123	1
99	100	1
153	156	1
107	107	1
169	169	2
146	146	3
16	16	2
48	48	4
71	71	1
33	34	1
37	72	1
160	160	4
37	38	1
112	112	1
117	118	1
22	23	2
102	114	1
6	6	2
15	16	2
128	156	1
129	154	1
152	152	1
46	71	1
126	137	1
163	167	1
33	33	1
5	5	1
119	120	1
130	155	1
95	95	3
19	19	1
83	91	1
115	133	1
6	111	1
138	144	1
2	3	1
124	124	4
37	83	1
77	78	1
153	153	2
132	132	3
6	12	1
154	163	1
111	118	2
79	116	1
17	157	2
24	24	2
117	120	1
18	19	2
108	108	3
16	28	1
55	55	1
52	58	1
46	46	2
6	13	1
8	17	1
68	68	4
155	158	1
105	108	1
127	150	1
109	109	2
165	165	4
23	23	2
5	6	1
14	15	1
117	117	1
63	68	1
88	89	3
39	40	3
139	140	1
95	110	1
57	58	1
0	2	1
139	139	1
12	102	1
11	15	2
78	103	2
155	155	2
12	48	1
147	147	1
137	137	5
154	154	4
10	47	1
5	40	1
70	70	1
129	129	1
37	71	1
9	9	2
142	142	2
91	93	1
115	117	2
43	43	3
141	161	1
15	26	1
91	105	2
145	153	1
73	84	1
43	87	1
87	87	3
18	18	1
130	134	1
73	73	1
129	151	1
111	158	1
135	135	1
20	20	2
24	25	1
142	143	1
1	2	1
167	168	1
163	163	1
18	70	1
162	163	1
147	159	2
118	134	1
42	42	4
125	125	1
122	126	1
92	92	3
104	104	1
1	76	1
10	10	1
101	152	1
155	157	1
16	51	1
38	39	1
49	50	1
64	79	1
20	113	1
17	135	1
49	66	1
155	156	1
16	17	1
10	21	1
40	40	2
121	125	1
162	162	2
102	141	1
78	130	2
151	151	3
152	160	1
125	139	1
4	5	2
90	90	3
125	137	1
144	145	1
111	112	1
48	54	1
152	168	1
72	80	1
119	130	2
36	38	1
125	157	1
69	80	1
113	115	1
108	109	1
122	122	3
8	10	1
0	0	1
73	91	1
53	53	1
77	77	1
102	123	1
92	93	2
124	142	1
84	85	1
140	157	1
94	162	1
33	38	1
154	155	1
47	56	1
22	24	1
98	99	1
130	151	1
91	166	1
135	136	1
148	149	1
138	147	1
4	123	1
141	142	1
3	5	2
3	3	1
52	52	1
164	165	1
100	108	1
67	67	1
160	166	2
101	106	1
44	44	1
161	164	1
62	102	1
79	111	1
79	79	1
137	138	1
37	42	1
15	17	1
4	4	1
138	138	1
12	13	1
122	123	1
85	129	1
73	76	1
46	47	1
125	128	1
