12	12	5
158	158	3
31	31	6
153	153	1
172	172	2
176	176	2
73	73	2
112	112	2
17	18	1
90	90	3
46	46	2
85	85	1
179	179	4
124	141	2
136	136	2
8	18	1
2	3	2
113	135	1
126	126	3
115	137	1
102	103	2
13	14	2
157	158	1
26	26	1
69	69	1
74	76	1
166	166	1
132	133	2
111	111	1
165	165	4
109	109	3
157	196	1
56	62	2
177	185	1
1	2	2
180	180	2
48	48	1
47	48	1
25	25	4
193	193	3
181	182	1
197	197	1
98	98	2
71	71	1
177	192	1
17	17	5
9	33	3
79	79	1
103	104	1
77	86	1
14	14	4
87	87	1
24	26	2
11	11	3
59	60	2
64	64	1
75	75	1
139	172	1
2	6	1
28	28	3
69	99	2
169	169	2
105	107	1
129	130	1
3	23	2
99	99	3
185	185	4
170	170	5
115	115	2
1	23	1
89	89	2
136	152	1
44	48	1
117	118	1
78	102	1
52	53	2
154	160	1
71	72	1
157	157	2
15	15	3
186	187	1
16	18	1
152	152	1
65	66	2
56	56	4
135	135	1
189	189	3
17	33	1
176	178	1
130	130	1
191	191	2
51	51	2
21	28	1
74	75	2
43	43	4
194	194	3
160	160	2
186	186	2
57	105	1
184	184	1
23	23	1
164	180	1
8	8	1
53	57	2
88	88	2
167	169	1
48	128	1
167	167	2
19	22	1
143	143	2
139	140	1
47	47	3
140	170	1
155	156	2
108	108	2
38	39	3
9	106	2
4	29	1
132	146	1
40	40	1
20	20	1
158	159	2
145	157	1
67	67	3
173	173	3
6	6	3
7	7	4
38	161	2
72	96	1
155	171	1
167	194	1
117	117	1
61	80	1
183	186	1
155	157	1
37	37	2
147	147	2
78	80	1
54	68	1
1	21	1
138	139	1
116	116	1
139	157	1
107	107	1
110	111	2
55	55	1
76	76	3
24	25	1
44	127	1
182	191	1
18	18	1
165	192	2
23	27	1
82	82	2
48	50	1
183	183	1
6	18	1
150	150	4
176	194	1
38	38	2
114	114	1
151	151	2
139	175	1
144	144	2
145	145	1
13	47	1
121	121	1
167	181	1
10	13	1
169	194	1
101	101	1
159	159	2
83	84	1
155	155	1
30	30	4
188	191	1
57	57	1
164	167	1
185	186	1
36	36	1
95	97	1
149	150	1
189	190	1
146	146	1
173	174	1
140	140	1
192	192	2
149	149	2
163	168	1
4	4	3
74	74	1
189	195	1
22	22	1
187	188	1
64	66	1
100	101	1
39	39	1
164	164	2
137	137	2
163	163	2
171	171	2
81	81	1
24	24	1
42	42	1
175	175	1
106	115	1
6	17	1
0	2	1
40	42	1
168	174	1
16	16	1
38	48	1
110	127	1
2	29	1
151	152	1
54	54	1
165	181	1
168	168	2
45	45	1
4	8	1
159	160	1
2	2	2
107	108	1
55	67	1
161	161	1
178	180	1
68	68	3
70	70	1
29	29	1
13	13	1
5	5	1
7	191	1
110	110	1
3	4	1
44	113	1
144	145	1
21	21	1
148	148	1
14	15	1
138	138	2
77	77	1
162	163	1
165	168	1
182	182	1
5	33	1
115	117	1
141	152	1
77	78	1
13	149	1
64	65	1
78	82	1
34	34	1
29	30	2
19	19	1
4	33	1
162	181	1
4	28	1
20	21	1
45	47	1
96	104	1
32	32	1
68	79	1
64	93	1
125	125	1
184	185	1
35	35	1
129	129	1
5	8	1
18	39	1
161	162	1
8	22	1
30	31	1
60	60	1
190	190	1
146	151	1
15	32	1
122	122	1
2	22	1
165	173	1
59	96	1
128	133	1
24	27	1
182	183	1
177	193	1
94	97	1
142	143	1
