13	14	4
101	120	1
73	73	1
121	121	11
184	184	3
169	169	5
142	143	3
119	119	2
11	12	2
130	130	4
85	85	6
123	123	4
1	3	1
91	91	9
81	82	1
151	170	1
58	60	2
171	172	5
94	94	3
105	105	7
153	153	3
113	113	7
42	43	2
54	54	5
10	10	4
125	125	7
172	174	1
139	139	5
137	138	3
177	177	3
110	111	6
143	143	2
158	158	2
180	180	3
119	120	1
11	23	1
79	80	2
71	71	4
43	44	1
133	134	1
76	76	3
27	86	1
142	144	1
173	174	2
111	111	3
116	117	2
23	23	6
115	115	2
46	47	3
83	83	2
15	70	1
181	181	4
72	72	6
63	63	5
42	42	8
156	156	10
97	97	2
176	176	5
96	97	2
149	149	4
115	117	1
71	73	1
73	116	3
75	75	3
142	155	1
14	71	1
94	95	1
190	190	8
150	160	1
147	148	2
63	65	2
145	145	3
122	122	5
61	66	2
59	61	2
28	30	2
6	7	4
151	151	4
13	13	8
129	129	3
16	16	3
39	40	1
127	128	1
124	124	4
53	53	2
2	2	6
114	114	3
45	46	3
3	3	6
96	100	2
107	114	1
99	99	5
162	162	5
13	41	1
66	66	4
148	152	1
109	109	4
159	160	2
88	89	2
104	104	1
21	21	3
1	1	3
19	19	2
95	120	1
9	10	1
44	85	1
67	68	2
36	37	2
185	185	9
70	70	4
175	181	3
102	102	5
118	118	4
166	169	1
20	20	2
125	126	1
65	65	3
17	17	2
38	38	1
107	107	6
0	0	2
39	39	3
0	1	1
171	171	5
118	120	1
134	139	1
164	189	3
83	85	3
93	97	1
108	108	5
0	41	1
1	77	1
6	24	1
30	43	2
155	160	2
146	146	6
79	81	1
117	117	4
112	113	1
89	89	2
14	14	4
92	98	1
152	152	2
76	77	2
91	93	2
13	32	1
187	187	4
178	179	2
58	59	2
35	35	3
149	156	2
135	135	2
18	19	5
137	137	3
111	129	1
40	40	3
33	34	2
74	123	1
114	117	2
23	44	3
110	141	1
6	6	4
177	178	1
177	180	2
10	11	1
141	141	3
172	172	7
166	166	5
23	48	2
163	163	1
7	7	3
150	150	3
159	190	1
186	186	5
74	74	5
155	155	2
146	147	1
28	34	1
151	184	1
62	62	5
131	131	2
48	68	2
27	27	3
13	44	1
15	16	5
160	160	1
67	67	4
14	70	1
47	47	3
49	68	1
10	13	1
48	85	1
54	90	1
28	28	1
88	88	3
103	103	5
178	178	4
82	82	4
180	181	1
92	93	3
78	109	2
122	123	1
32	33	2
6	23	1
61	61	1
152	170	1
11	11	7
186	187	4
13	15	1
126	127	2
153	154	1
114	125	1
38	71	1
10	23	2
8	8	5
74	75	2
33	33	4
64	87	1
112	112	1
128	129	1
168	168	3
113	130	1
173	173	7
165	165	2
174	175	1
96	96	5
68	69	1
55	55	4
157	158	1
44	48	2
16	17	2
143	144	3
31	34	1
8	39	1
121	123	1
87	130	1
182	182	1
167	167	2
86	86	6
19	20	1
99	100	2
17	18	1
92	102	1
115	118	1
37	37	3
100	129	1
152	153	1
11	18	2
130	131	2
156	157	1
4	25	1
159	159	1
167	168	2
148	156	1
176	178	1
116	116	4
87	89	1
7	84	1
156	165	1
78	78	2
106	106	2
4	4	1
146	174	1
146	151	1
102	130	1
166	177	1
144	146	1
21	23	1
38	39	1
17	27	1
159	164	1
86	88	2
21	22	3
147	147	4
93	93	1
171	181	1
175	175	2
68	68	1
174	174	4
164	164	3
100	100	2
111	142	1
60	60	1
58	58	3
29	29	2
25	25	2
157	157	2
189	189	1
45	45	2
114	115	1
24	24	4
188	189	1
33	35	1
138	166	1
130	143	1
111	112	1
36	36	1
57	63	1
64	70	1
58	62	1
9	9	2
77	77	1
58	107	1
24	37	1
56	56	3
95	95	3
114	121	1
30	30	2
112	154	1
136	136	3
134	151	3
126	126	1
36	46	1
129	130	1
116	118	2
175	176	2
143	158	1
140	141	2
106	108	1
73	87	1
59	59	1
46	46	2
169	186	1
37	42	1
154	154	2
18	36	1
111	120	1
168	169	1
2	3	2
17	28	1
52	53	1
140	140	1
10	38	1
177	179	1
179	181	2
113	119	1
138	138	3
72	74	1
16	28	1
0	85	1
109	110	2
148	148	2
93	94	1
98	99	1
23	27	1
180	183	1
63	64	1
84	84	1
139	158	2
77	88	1
65	83	1
23	32	1
26	47	1
29	30	1
7	25	1
44	44	2
163	164	2
134	145	1
183	183	1
23	49	1
54	64	1
20	67	1
188	188	5
170	170	1
24	33	1
54	56	1
34	35	2
57	57	1
163	184	1
92	92	2
49	49	1
141	144	1
22	22	2
102	103	1
26	26	3
5	5	2
55	56	1
73	88	1
175	177	1
48	48	3
66	67	1
5	17	1
92	104	1
71	72	1
119	150	1
17	19	2
132	132	1
25	35	1
65	68	2
100	101	1
87	87	1
175	186	1
100	103	1
12	12	2
160	164	2
25	48	1
93	100	1
41	41	5
121	126	1
110	110	1
142	165	1
100	123	1
30	167	1
75	76	1
37	38	1
133	133	1
97	99	1
55	88	1
90	90	4
3	4	1
138	146	2
153	187	1
110	144	1
12	16	1
124	125	2
167	169	1
34	34	1
89	90	1
57	109	1
31	32	1
14	41	1
139	145	1
153	155	1
59	60	1
35	36	1
89	113	1
113	117	1
150	155	1
26	53	1
181	183	1
185	186	1
125	168	1
7	8	1
98	98	2
99	101	1
27	28	1
5	28	1
34	66	1
174	177	1
95	97	1
140	166	1
113	120	1
65	66	2
61	62	1
79	79	2
7	48	1
18	18	1
32	32	1
101	102	1
10	17	1
149	150	1
108	139	1
101	101	1
47	58	1
182	183	1
116	131	1
174	180	1
154	156	1
159	185	1
118	121	1
91	92	1
90	102	1
144	157	1
25	37	1
