234	234	6
40	46	1
22	40	1
191	191	2
173	173	7
8	152	1
203	227	1
14	30	1
220	248	2
206	206	1
108	108	4
190	191	1
221	221	5
166	166	7
25	25	5
160	160	2
67	67	2
172	172	3
245	245	5
229	229	7
97	98	1
3	4	1
243	243	6
4	9	1
212	212	9
213	246	1
81	81	3
209	209	10
187	233	1
197	198	1
33	33	11
174	175	1
216	216	6
17	18	4
224	224	2
217	219	1
199	199	7
93	93	4
230	230	4
87	87	1
17	17	5
39	40	1
44	44	12
246	246	3
227	227	6
34	34	12
57	57	3
75	78	1
161	162	2
22	22	2
18	18	8
226	226	3
111	111	6
12	30	3
76	76	4
169	171	1
39	39	3
27	27	8
20	20	9
196	197	3
54	54	5
194	194	5
43	43	12
179	180	3
55	55	2
226	228	1
84	86	2
97	99	1
170	208	1
145	145	6
158	158	4
218	218	6
9	37	2
197	197	4
18	19	1
21	21	6
207	214	1
155	155	3
233	234	3
47	47	10
113	113	10
61	61	1
202	202	10
53	110	1
12	32	1
219	240	1
22	23	1
32	42	1
29	30	2
51	51	6
222	222	6
244	244	6
240	240	2
6	6	2
38	46	1
152	152	4
231	231	8
248	248	5
26	27	3
26	26	6
168	168	4
80	82	2
177	177	7
238	238	5
224	225	7
48	48	5
183	183	7
118	118	7
114	115	1
20	21	2
207	208	1
231	245	2
65	246	1
113	114	4
213	222	1
14	14	6
93	95	1
120	120	4
28	28	5
187	187	3
201	201	4
43	45	1
15	15	8
5	10	1
39	205	1
210	211	1
178	178	6
37	202	1
49	49	3
57	63	1
167	167	6
146	146	2
52	52	4
236	237	4
41	41	8
96	98	2
88	88	4
117	117	8
78	79	2
110	110	6
11	29	1
58	58	2
211	211	3
150	150	2
29	29	6
159	159	2
75	76	1
30	30	8
36	36	5
86	86	3
70	70	3
35	35	8
213	213	6
179	179	3
213	227	1
109	109	6
100	101	2
27	28	1
163	163	3
196	196	5
184	184	7
207	207	2
215	217	1
191	192	2
164	164	4
38	38	5
63	63	2
2	29	1
116	116	5
183	184	1
157	157	4
114	114	2
164	184	2
77	80	1
54	55	2
1	1	3
157	158	1
199	201	3
101	101	1
205	226	1
235	237	1
65	65	2
40	40	8
9	9	2
180	181	2
167	202	1
189	189	2
242	243	1
78	82	1
174	174	6
204	204	11
192	192	10
190	190	1
228	228	11
175	175	2
5	5	7
176	179	2
7	27	1
169	169	6
237	237	5
215	215	6
18	20	2
115	115	6
2	5	1
56	57	1
144	206	1
209	219	1
15	25	1
182	226	1
241	241	4
178	187	1
113	116	1
14	15	2
85	85	5
90	90	4
3	3	2
183	203	2
165	165	3
86	87	1
61	76	1
46	46	5
185	185	1
49	50	3
176	177	1
181	181	8
37	37	5
239	239	11
36	37	2
5	34	2
35	36	1
203	203	4
171	179	2
14	166	1
89	89	4
161	161	3
83	84	1
96	96	5
10	10	8
11	11	6
0	40	1
66	66	4
49	74	2
176	176	2
200	200	2
227	228	2
238	239	2
85	86	1
99	101	1
180	180	4
69	96	1
188	188	2
192	193	2
88	101	1
153	153	3
219	219	4
180	182	1
191	198	1
80	80	2
8	8	4
118	150	1
71	95	3
153	155	1
69	69	3
24	24	7
30	31	1
205	205	3
223	223	6
182	182	3
225	225	4
247	247	3
186	186	1
94	94	3
242	242	4
115	116	1
156	156	1
169	194	1
233	233	5
225	236	2
165	174	1
78	78	3
119	119	3
160	161	2
59	60	3
14	32	2
211	243	1
60	71	1
17	160	1
230	234	1
79	82	1
16	16	5
107	108	1
237	238	1
68	68	6
170	170	5
193	193	8
29	34	1
92	92	7
214	215	1
213	235	1
48	59	1
32	38	1
211	212	1
55	56	1
91	91	2
4	4	4
212	230	1
49	66	1
212	231	1
173	178	1
110	111	1
104	105	1
240	248	1
145	149	1
12	15	2
167	201	1
37	44	1
198	198	2
45	46	1
32	116	1
19	19	5
4	5	4
219	245	1
13	14	2
51	63	1
199	200	1
32	33	1
200	226	1
50	62	2
5	62	1
185	186	2
94	145	1
217	217	1
162	162	4
154	155	2
42	42	5
111	112	1
208	208	5
31	32	1
174	212	1
215	240	1
115	206	1
116	117	1
22	24	1
31	31	3
92	160	1
149	180	1
23	23	6
59	169	2
118	119	1
200	201	3
209	213	1
216	237	1
32	32	5
204	205	1
53	53	4
232	232	1
99	100	2
67	212	1
42	43	2
7	7	5
116	154	2
56	72	2
64	65	1
27	119	1
196	220	1
78	113	1
214	214	2
224	226	1
27	42	1
194	195	1
98	99	1
165	177	1
158	181	1
77	77	2
190	196	1
50	50	5
60	60	1
223	229	1
247	248	1
23	31	1
118	144	1
56	96	2
207	245	1
39	114	2
177	178	1
240	241	3
225	226	1
185	200	1
100	100	2
117	118	1
52	53	3
95	96	1
16	26	1
94	95	3
202	204	1
32	161	1
47	64	1
173	175	1
228	229	2
244	246	1
150	153	1
150	210	1
236	241	1
210	218	1
65	68	2
81	83	1
193	194	3
91	100	1
160	226	1
73	74	2
6	8	1
151	151	3
80	84	1
61	63	1
232	234	2
201	224	1
109	110	2
214	230	1
244	245	1
163	164	2
175	180	1
6	33	1
238	241	1
21	23	1
232	233	2
173	174	1
195	196	2
92	109	1
202	203	1
201	228	1
59	171	1
209	229	1
57	223	1
72	75	1
91	92	1
99	105	1
29	31	1
60	61	1
97	97	3
237	247	1
61	66	1
20	41	1
10	11	3
4	229	1
37	38	1
41	45	1
211	236	1
55	57	1
66	84	1
226	236	1
47	52	1
221	223	2
0	19	1
71	75	2
235	235	1
112	112	2
5	6	2
84	113	2
227	236	1
176	186	1
56	56	2
213	219	1
91	97	1
192	196	1
64	101	2
69	107	1
2	2	1
9	11	1
79	98	1
63	84	1
95	95	2
44	111	1
59	67	1
195	197	1
201	220	1
12	12	3
224	245	1
165	166	2
19	20	1
108	115	1
162	164	1
217	218	1
70	167	2
70	73	1
231	234	1
161	167	1
75	75	1
26	226	2
40	41	1
152	183	1
154	156	1
45	45	2
221	233	1
213	217	1
236	236	2
33	51	1
34	35	1
231	232	1
38	39	3
107	107	2
158	168	1
236	248	1
16	38	1
1	3	1
28	29	1
147	173	1
1	45	1
172	199	1
84	84	4
208	223	1
8	9	1
229	231	1
112	205	1
101	114	1
234	244	1
40	154	1
197	203	1
172	173	3
223	224	1
211	234	1
42	47	1
157	167	1
68	88	1
164	169	1
53	229	1
220	220	1
51	65	1
172	179	1
50	51	1
60	74	1
55	61	1
187	188	1
79	79	1
45	53	1
150	227	1
198	199	2
241	242	2
89	90	2
162	165	2
94	111	1
154	154	2
165	214	1
206	211	1
84	85	1
78	84	1
57	58	1
189	192	1
102	103	1
212	213	1
1	19	1
167	181	1
162	199	1
162	167	1
84	106	1
29	44	1
2	33	1
194	198	1
179	195	1
218	219	1
70	71	1
62	62	1
226	246	1
229	247	1
169	210	1
209	243	1
182	193	1
190	210	1
195	195	3
62	64	1
93	94	1
167	192	1
48	66	1
175	176	1
65	67	1
168	169	1
216	217	2
7	9	1
222	238	1
6	7	1
170	174	1
172	218	1
144	162	1
71	87	1
101	227	1
186	221	1
59	61	1
171	171	1
8	36	1
241	244	1
112	114	1
153	156	1
74	75	1
191	194	1
150	174	1
109	120	1
171	173	1
210	210	1
108	119	1
23	24	1
229	235	1
248	249	1
21	22	1
192	195	1
146	170	1
81	85	1
79	80	1
