190	192	2
6	6	1
62	62	1
10	10	5
19	36	1
36	36	3
127	127	5
0	0	1
182	182	4
1	1	2
28	29	1
107	107	4
46	46	1
0	23	1
147	147	3
41	186	1
63	63	4
132	160	1
45	46	2
177	178	3
155	155	4
166	166	4
43	43	4
143	143	2
151	151	5
37	71	1
44	44	3
148	148	1
130	157	1
40	44	1
29	30	2
135	135	3
59	59	1
29	29	1
116	160	1
55	55	3
3	3	4
192	192	2
189	189	3
47	47	5
165	188	1
34	34	6
23	23	7
37	37	4
156	169	1
103	103	2
134	135	1
128	128	3
115	115	1
85	86	3
137	138	1
187	187	4
9	9	7
142	142	2
30	187	1
180	180	5
153	153	1
178	178	1
39	39	1
132	133	3
105	106	2
27	28	3
127	128	1
73	185	1
132	140	1
71	71	1
131	131	1
188	189	4
82	82	1
67	69	1
174	174	1
106	117	1
64	64	4
33	33	8
25	25	4
69	179	1
167	168	1
185	185	1
32	33	1
117	144	1
126	127	3
68	68	4
52	52	1
175	175	4
191	191	3
30	30	5
160	160	1
138	138	2
152	152	4
70	71	2
12	12	5
23	33	1
57	128	1
26	27	1
131	132	3
161	161	3
9	11	1
122	122	2
143	145	2
2	2	2
61	62	2
34	35	2
28	28	3
5	5	2
20	21	2
40	40	1
185	186	1
95	96	3
42	42	2
78	79	1
50	50	1
196	196	3
130	138	1
21	28	2
94	94	4
62	66	1
168	168	5
124	124	1
163	192	1
33	36	2
191	192	1
4	6	1
68	86	1
40	41	4
66	67	1
9	17	2
152	153	1
106	133	2
66	66	2
85	85	1
123	123	1
4	4	8
112	112	1
101	102	2
26	26	5
142	143	1
149	149	3
63	64	2
99	107	1
150	150	5
24	24	1
145	145	3
64	150	1
86	87	1
89	89	2
23	80	1
139	140	2
159	160	2
170	172	2
130	130	1
65	65	2
106	107	1
25	181	1
192	193	1
157	157	3
183	183	1
116	116	1
117	119	1
193	193	2
40	186	1
8	8	5
73	73	2
99	99	2
96	96	3
31	31	4
144	145	1
19	19	2
45	170	1
83	83	3
190	191	2
186	186	2
15	15	2
53	53	1
28	30	1
61	61	3
184	185	1
41	73	1
143	144	1
70	70	2
161	162	1
61	70	2
163	164	1
68	77	1
154	154	1
6	7	1
141	146	1
134	191	1
138	183	1
141	141	3
49	49	1
93	93	1
72	72	1
33	151	1
54	55	1
174	175	4
164	176	1
57	57	1
165	187	1
51	51	1
140	140	2
167	167	5
125	125	2
181	182	1
60	60	2
18	18	4
104	160	1
15	16	2
42	45	1
105	163	1
132	132	2
13	13	2
21	29	1
158	158	1
162	163	1
184	186	2
7	7	4
114	149	1
119	119	1
81	81	1
144	144	1
41	42	4
56	56	1
87	87	1
179	180	1
17	18	2
110	111	2
67	67	1
46	47	1
59	61	1
164	164	1
10	20	1
173	173	2
48	52	1
41	41	2
169	170	1
117	117	1
17	17	3
64	65	1
153	185	1
69	81	1
10	71	1
116	146	1
143	150	2
25	29	1
113	113	1
88	88	3
188	188	3
60	61	2
14	14	3
35	35	2
20	33	1
24	25	1
130	131	1
75	75	2
172	172	2
102	102	1
114	145	1
32	38	1
25	36	1
100	101	1
135	192	1
33	38	1
69	87	1
110	110	1
99	144	1
171	171	2
170	171	2
46	48	1
112	122	1
146	146	2
114	114	1
126	126	2
120	120	2
119	120	1
79	80	1
163	163	1
142	178	1
1	159	1
90	99	1
46	71	1
27	27	2
175	188	1
98	98	1
21	79	2
146	179	1
175	176	2
179	181	1
83	85	1
173	174	1
108	110	1
194	194	3
169	169	1
172	173	2
30	31	1
111	111	1
77	122	1
59	134	1
184	184	1
28	129	1
21	22	1
156	156	1
38	39	1
176	176	1
102	103	1
38	38	1
22	23	1
44	45	2
77	78	1
139	139	1
76	79	1
111	154	2
86	95	1
62	63	1
14	15	1
155	176	1
115	131	1
100	100	1
48	48	2
174	176	1
162	162	1
159	159	2
13	43	1
169	172	1
0	36	1
0	1	1
148	150	1
177	177	1
102	104	1
145	192	1
