99	101	3
143	145	2
164	165	6
159	171	1
130	131	4
25	25	3
11	11	10
32	32	3
30	31	3
150	150	9
121	170	1
83	84	3
63	63	5
93	111	2
147	147	8
29	29	10
123	123	6
116	116	10
120	121	2
124	125	3
10	10	11
16	16	3
38	38	8
20	22	2
5	5	8
130	130	3
122	160	2
141	142	1
131	131	5
81	82	2
126	159	1
76	76	7
146	146	2
174	174	12
55	65	2
92	101	1
173	173	7
172	172	6
3	3	4
8	8	6
94	95	1
71	94	1
50	50	4
161	162	4
77	77	3
17	19	1
1	1	7
126	141	1
105	105	8
18	19	2
98	98	2
36	37	2
108	109	3
116	117	1
166	166	3
117	117	2
130	142	2
25	42	2
33	33	7
126	126	7
52	52	4
100	100	6
154	154	5
53	54	2
117	118	2
139	139	5
6	31	2
55	89	1
163	164	4
163	163	6
66	66	2
167	168	3
63	64	2
62	63	2
133	133	3
41	41	5
22	22	11
15	15	10
20	26	1
1	67	1
94	94	7
161	161	2
132	175	1
45	45	6
154	155	4
169	169	9
82	83	4
120	120	6
4	4	6
112	112	5
153	153	6
97	129	1
84	84	4
134	135	2
115	148	1
158	162	1
126	127	2
101	101	2
56	66	1
11	34	1
149	150	4
56	57	1
113	114	2
2	2	8
148	148	6
40	41	4
30	35	3
152	152	7
127	145	1
73	74	1
120	154	1
42	42	6
35	35	8
25	28	1
62	62	3
32	84	1
95	95	9
124	132	1
158	158	5
129	143	1
177	177	4
53	53	2
149	174	1
50	53	2
87	88	1
14	14	7
19	22	2
160	160	1
171	171	1
118	118	5
97	107	1
169	171	2
6	6	4
151	157	1
5	11	1
65	65	2
173	174	3
8	9	1
121	121	4
97	97	5
105	106	2
78	78	5
73	73	3
3	4	3
116	118	3
32	53	1
179	180	3
115	115	5
89	89	3
11	27	2
6	7	5
14	34	2
39	40	2
43	45	1
19	19	6
13	14	1
2	3	2
5	6	5
155	160	2
124	148	1
80	80	4
156	156	4
67	67	4
133	147	2
105	117	1
99	99	4
101	102	1
20	20	4
70	70	2
44	45	3
93	93	2
126	130	1
152	153	2
74	74	2
132	132	4
4	10	1
29	35	1
140	140	6
29	30	2
23	23	4
71	73	1
111	111	3
139	140	3
128	128	7
138	138	4
121	135	3
128	131	1
96	97	7
11	12	4
149	149	5
106	106	7
56	56	2
77	78	1
49	50	4
40	42	1
79	85	1
157	158	1
126	148	1
176	176	4
17	18	3
85	87	1
11	33	2
159	159	3
117	120	2
145	145	5
143	144	6
140	145	1
129	130	4
43	43	7
25	27	3
10	11	2
97	98	3
82	82	3
150	159	1
135	135	5
163	165	1
103	103	3
9	11	1
122	122	4
136	136	5
119	119	6
26	27	5
66	67	4
4	9	1
170	170	5
142	148	1
22	23	2
7	10	1
107	107	6
18	18	2
127	128	1
125	148	1
61	63	1
177	178	3
128	129	2
39	39	5
109	109	4
35	42	1
124	124	4
26	26	4
106	107	3
118	119	1
82	87	2
36	43	1
85	98	2
68	90	1
9	27	1
119	120	1
19	40	1
94	102	1
157	157	2
96	125	1
77	120	2
59	59	3
98	101	2
96	96	6
144	145	3
168	168	4
65	83	1
133	134	1
141	171	1
148	151	1
168	169	2
30	30	6
83	83	3
153	154	1
13	13	3
9	9	8
167	167	5
118	120	2
154	156	2
123	124	3
76	77	3
44	44	7
159	161	2
58	58	5
78	80	1
114	114	2
165	166	2
21	21	8
74	75	3
138	139	4
18	23	2
99	100	1
60	61	1
28	29	1
15	16	2
8	52	1
71	71	2
98	100	1
21	23	1
30	40	1
144	144	8
38	54	1
3	141	1
79	79	2
61	61	4
67	68	1
31	31	1
142	142	4
102	102	2
151	153	2
133	174	2
60	63	1
121	124	1
17	17	3
178	178	4
159	170	1
145	146	1
127	144	1
110	110	2
162	162	2
90	107	1
146	147	1
150	154	1
179	179	4
148	149	2
83	87	2
172	175	2
157	167	1
53	65	2
12	12	1
150	151	2
162	163	3
92	92	3
59	60	1
37	67	1
22	24	1
35	36	1
90	90	4
115	116	3
151	165	1
7	8	1
137	137	3
125	125	4
7	7	3
54	54	2
41	42	1
42	46	1
37	37	2
127	129	2
33	34	1
155	156	2
43	44	1
90	100	1
144	146	1
52	53	2
103	104	1
127	161	1
28	28	2
132	176	1
60	60	3
11	13	4
64	64	1
36	36	4
150	174	1
53	57	1
3	9	1
76	80	1
59	62	2
37	57	1
49	63	1
141	143	1
128	151	1
141	141	2
134	136	1
99	104	1
114	119	2
79	82	1
88	88	2
25	26	1
93	110	1
139	174	1
20	21	1
97	101	1
142	145	1
85	86	1
132	158	2
132	133	1
23	33	1
11	32	1
136	138	1
154	157	1
133	172	1
38	39	2
104	105	1
84	87	1
111	112	1
94	109	1
67	76	1
93	104	1
132	172	1
98	130	1
72	72	3
83	86	2
107	108	1
130	147	1
97	102	1
55	55	2
154	161	1
143	143	2
36	39	2
12	19	1
44	61	1
55	155	1
129	129	2
100	114	1
2	38	1
18	44	1
134	149	1
51	51	3
58	60	2
85	85	2
120	124	1
19	20	1
12	52	1
98	118	3
127	127	2
155	155	1
127	158	1
105	107	1
67	71	1
5	36	1
85	90	2
134	137	1
52	64	1
56	58	1
17	27	1
40	40	2
78	79	2
120	140	1
58	59	1
74	177	1
87	87	2
95	96	1
3	6	1
25	43	1
135	136	1
27	27	1
157	164	1
84	85	1
13	16	1
86	87	1
15	23	1
114	131	1
152	154	1
115	135	1
162	164	1
87	93	1
82	101	1
108	108	2
137	138	1
75	78	1
24	24	1
115	150	1
150	175	1
64	65	1
147	156	1
151	151	3
5	10	1
43	61	1
81	108	1
157	171	1
158	159	2
27	28	1
8	11	1
28	57	1
130	173	1
90	102	1
165	165	1
31	32	1
57	57	1
65	66	1
172	173	1
46	52	1
126	128	1
145	169	1
109	110	1
37	53	1
82	99	1
7	21	1
104	104	1
113	113	1
86	86	1
19	44	1
24	30	1
97	103	1
135	175	2
102	111	1
133	158	1
35	41	1
55	64	1
131	132	1
83	109	1
164	164	1
20	43	1
152	155	1
162	167	1
58	88	1
121	140	1
51	52	1
80	81	1
92	94	1
91	91	1
115	123	1
112	124	1
15	17	1
