4	4	6
79	79	8
80	80	2
25	25	5
139	139	1
61	61	4
59	60	1
47	47	9
70	70	2
74	151	1
129	129	3
132	135	1
21	90	1
34	35	1
48	86	2
142	143	8
181	181	4
111	112	2
151	151	4
107	107	10
150	157	1
5	5	4
108	108	2
166	174	1
101	101	4
83	83	5
24	24	3
178	179	1
124	124	2
6	10	1
29	30	1
166	166	4
150	151	2
145	145	4
182	182	3
23	23	3
99	99	3
22	22	7
123	127	2
89	89	2
156	176	1
65	149	1
74	77	1
186	186	7
176	176	4
96	96	6
180	180	2
66	67	4
81	81	2
140	140	3
74	74	4
66	66	5
130	130	2
131	153	1
110	110	1
34	34	2
32	36	1
183	183	3
109	109	2
15	15	4
35	36	3
151	174	3
44	44	2
143	145	1
18	20	2
126	126	4
179	179	3
95	95	4
152	152	4
73	75	1
6	6	3
154	155	1
35	35	4
10	10	3
32	32	5
60	61	1
70	71	2
77	84	2
55	55	1
63	89	1
165	165	2
77	78	2
76	76	3
172	172	3
170	170	5
171	172	1
28	28	5
18	18	8
11	12	3
7	7	6
172	173	5
175	175	2
143	143	5
31	32	1
17	46	1
157	157	6
8	8	4
76	78	1
43	44	6
155	177	2
178	178	2
102	102	1
0	0	3
12	41	1
106	139	1
127	145	2
55	57	2
113	144	1
141	142	1
21	21	2
71	71	3
96	110	1
65	65	4
188	188	5
2	2	5
53	55	1
20	55	1
72	106	1
14	66	2
24	89	1
121	122	2
131	133	1
145	149	2
33	66	2
28	29	2
30	30	5
133	136	1
134	160	1
38	38	6
17	18	3
150	150	3
148	148	3
99	113	3
179	180	2
94	96	3
92	94	1
171	177	1
154	154	5
25	44	1
125	126	1
153	153	3
40	40	4
119	120	2
181	182	4
174	174	3
9	9	2
62	62	5
153	154	1
113	113	4
178	180	1
158	160	1
157	159	1
122	128	1
136	181	1
164	164	3
0	1	1
104	104	9
57	57	3
4	25	1
138	138	4
83	84	1
128	128	4
54	56	2
122	123	2
33	33	4
12	12	4
127	128	2
72	73	1
26	26	4
48	87	1
9	36	1
56	56	2
164	170	1
61	62	1
118	128	2
75	75	2
118	118	4
174	180	2
64	64	3
70	120	3
64	65	1
97	111	1
173	173	2
45	45	4
80	89	1
117	119	1
135	135	4
91	91	3
120	121	1
114	128	1
20	26	1
67	67	1
116	118	1
53	56	1
19	19	5
79	110	1
148	160	1
105	138	1
104	105	2
151	152	1
63	63	4
11	11	6
122	126	1
88	88	2
12	13	1
162	165	1
39	39	3
158	158	2
93	94	3
172	183	1
120	128	1
98	98	1
189	189	2
27	34	1
187	188	2
43	46	3
131	131	3
115	118	1
175	178	1
135	138	2
141	141	2
184	185	3
97	98	2
85	85	1
5	25	2
109	110	2
68	68	1
16	16	6
41	41	2
53	53	5
159	159	4
13	13	3
118	156	1
37	38	2
134	135	2
132	132	2
142	144	1
132	133	1
37	37	2
144	144	1
20	21	1
161	171	1
47	49	1
164	165	1
66	68	1
101	103	1
171	171	2
42	43	2
108	130	1
57	172	1
159	160	1
77	77	1
63	64	3
187	187	2
131	132	1
117	118	1
171	173	2
28	32	1
31	31	2
67	68	1
103	103	1
73	73	1
56	76	1
87	87	3
54	55	2
59	65	1
19	43	1
41	88	1
91	92	2
168	168	2
164	167	1
114	143	2
72	72	2
185	185	2
76	77	1
44	45	1
66	150	1
158	159	1
29	29	4
36	37	3
31	33	1
24	32	1
82	140	1
98	100	2
86	87	2
98	114	1
79	80	2
127	127	3
28	33	1
119	147	1
176	177	3
97	118	1
33	34	1
146	146	3
86	86	3
58	58	1
140	151	1
163	187	1
116	116	2
143	144	1
163	165	1
43	43	1
130	131	3
181	183	1
92	93	1
18	36	2
135	136	1
48	48	2
78	79	2
125	125	2
58	59	2
136	136	2
155	159	1
47	53	1
60	60	1
95	96	1
36	36	1
3	3	1
100	116	1
152	153	2
66	84	2
82	82	2
75	122	1
93	93	1
10	11	2
170	181	1
63	83	1
92	92	1
75	76	1
62	99	1
14	14	4
92	108	1
20	36	1
54	54	2
84	127	1
27	31	1
85	91	1
123	144	1
112	115	1
155	180	1
61	79	1
100	106	1
183	184	1
93	115	1
84	84	2
153	159	1
94	94	1
145	148	1
169	170	1
167	169	1
46	46	1
106	107	1
167	172	1
105	106	1
97	113	1
90	92	1
119	119	2
20	20	1
22	23	2
106	106	2
169	169	1
157	158	1
130	165	1
105	105	2
71	135	1
161	161	1
21	22	1
81	99	1
10	25	2
66	149	1
68	69	2
87	89	1
122	122	1
41	90	1
82	83	1
24	38	1
167	167	2
96	106	1
16	17	1
74	75	1
26	115	1
97	97	3
137	138	1
113	147	2
33	35	1
69	70	1
42	42	2
132	160	1
131	136	1
144	147	1
163	164	1
15	16	2
145	147	1
160	160	2
23	40	1
117	186	1
45	46	2
75	86	1
115	167	1
180	181	2
19	20	2
134	136	1
57	58	1
84	85	1
10	36	1
190	190	1
61	93	2
60	139	1
32	33	1
5	6	1
53	54	1
38	39	1
27	27	1
24	29	1
177	178	1
18	92	1
124	125	1
25	27	1
47	48	1
20	42	1
168	181	1
144	149	1
18	32	1
123	123	1
163	163	2
101	102	1
103	160	1
155	155	1
162	171	1
62	63	1
148	149	1
149	172	1
32	45	1
114	114	1
156	181	1
136	140	1
71	85	1
78	106	1
116	167	1
103	104	1
27	110	1
156	156	1
123	125	1
90	90	1
1	1	2
120	120	1
110	111	1
87	90	1
144	189	1
121	121	1
30	31	1
73	74	1
58	89	1
64	108	1
60	62	1
104	106	1
173	174	1
134	134	1
97	114	1
21	93	1
123	124	1
76	79	1
87	88	1
108	117	1
144	148	1
126	127	1
118	119	1
23	24	1
13	14	2
102	103	1
23	41	1
130	140	1
56	68	1
20	44	1
