16	17	2
108	111	1
124	124	14
124	138	1
95	95	2
1	2	2
24	54	1
90	112	1
125	126	5
121	122	1
34	34	3
3	3	10
38	38	7
5	5	4
20	21	3
96	131	1
37	37	3
51	51	5
25	25	5
138	144	1
127	127	10
130	154	2
16	16	6
21	21	4
84	84	10
8	39	1
70	70	11
157	157	6
117	141	1
73	100	1
156	158	1
113	135	2
92	94	1
76	76	1
117	118	4
156	156	9
131	131	6
103	103	3
104	148	1
86	86	3
133	133	9
111	140	1
142	143	2
82	125	1
81	83	2
17	17	6
84	110	2
8	14	4
49	49	9
85	158	1
148	148	8
148	149	2
68	68	1
109	109	9
98	98	4
67	68	3
36	36	5
48	48	6
123	123	10
81	84	1
27	28	2
80	81	5
99	99	7
109	112	1
45	45	3
103	104	3
40	42	1
104	104	11
116	130	1
146	146	6
96	97	1
111	111	6
23	39	1
86	87	1
116	116	5
134	135	3
106	106	1
93	108	1
11	36	1
118	118	5
131	134	2
139	148	2
150	152	1
35	35	2
46	48	1
79	109	2
139	139	8
92	128	1
42	44	2
41	41	7
126	133	2
94	94	15
37	88	1
91	112	1
134	154	2
135	136	1
117	117	3
140	143	2
62	62	3
42	43	2
8	30	1
125	125	4
112	112	6
82	83	5
22	22	2
94	98	1
137	137	5
146	147	6
117	138	1
105	105	4
39	40	2
48	55	3
12	15	1
135	135	9
5	6	2
101	102	1
154	155	5
13	122	1
10	10	4
147	147	5
44	142	1
128	129	1
22	23	1
144	144	12
92	93	1
29	31	2
118	119	4
155	155	3
0	0	1
84	90	2
129	129	9
152	153	2
104	105	4
102	106	1
127	140	2
30	30	6
158	158	9
149	149	1
7	7	7
91	91	7
100	100	4
28	30	3
131	151	1
117	123	1
69	75	2
53	54	1
143	143	6
21	56	1
67	71	2
114	114	4
139	140	5
134	134	5
86	91	1
92	92	3
102	102	7
56	95	1
4	6	2
20	20	8
133	134	5
124	125	1
23	25	3
16	93	1
138	138	7
75	75	3
44	44	5
27	27	6
33	33	7
42	50	1
13	36	1
40	44	1
101	101	6
62	64	1
154	154	3
75	76	2
119	119	3
17	33	1
132	141	1
120	120	5
107	124	1
19	19	3
96	96	5
69	69	5
112	148	2
83	88	1
107	108	2
109	110	1
110	110	2
28	28	4
50	62	1
26	138	1
75	116	1
90	93	2
137	141	3
66	71	1
39	44	1
109	111	2
80	84	1
125	144	1
18	19	3
136	146	1
79	95	2
54	56	1
108	110	2
109	156	1
10	29	1
46	46	10
31	110	1
123	138	1
141	141	8
40	51	1
10	42	1
108	115	2
131	150	1
85	85	2
9	9	8
17	135	3
121	136	1
16	21	3
130	130	4
32	36	1
88	88	3
32	38	1
68	69	2
42	42	5
131	133	2
22	31	1
83	83	5
130	131	8
66	92	2
12	32	2
100	101	3
27	65	1
55	55	4
15	17	1
15	15	7
29	30	2
33	51	1
151	151	5
8	8	8
39	39	4
47	47	5
91	116	1
73	73	5
71	71	8
4	148	1
136	138	1
43	45	2
77	83	1
75	80	1
2	2	2
126	142	1
53	53	2
101	133	1
113	119	1
122	122	7
141	144	1
108	108	7
110	120	2
67	72	1
132	133	6
92	108	1
83	84	7
97	97	4
136	136	6
115	115	3
84	86	1
25	36	3
67	67	3
86	90	2
104	106	1
104	138	1
105	110	1
37	42	1
121	133	1
129	151	1
66	66	6
51	54	1
105	129	1
7	8	2
142	156	1
117	120	1
19	49	1
155	157	1
69	70	2
137	158	1
14	14	1
77	116	1
64	70	1
17	30	1
4	9	1
43	44	4
85	96	1
92	111	1
157	158	2
18	35	2
77	148	1
22	35	2
12	25	2
18	18	4
108	113	1
139	144	1
61	71	1
110	112	3
9	12	2
24	73	1
19	20	2
121	121	8
84	87	1
15	19	1
135	138	1
55	65	3
139	141	1
113	113	7
153	153	5
124	135	1
114	115	1
26	26	2
6	7	1
25	27	2
3	10	1
81	82	2
40	41	1
115	116	1
83	89	1
52	52	3
41	46	1
113	120	2
40	156	1
22	50	1
132	132	5
84	85	4
93	93	3
142	144	1
70	106	1
56	61	1
130	133	1
128	134	1
78	82	5
65	65	4
131	132	1
28	33	2
110	111	5
137	149	1
48	51	1
92	101	1
87	87	4
37	41	1
6	73	1
107	138	1
99	155	2
93	94	3
12	143	4
9	34	2
50	55	1
68	77	1
11	12	2
76	77	1
150	151	2
113	145	1
142	142	6
96	127	1
84	96	1
45	50	1
115	145	2
68	108	1
47	48	3
19	21	2
72	72	2
107	148	1
82	88	1
79	87	1
87	89	1
19	31	1
71	79	2
128	128	6
39	41	1
115	117	2
129	130	3
151	153	1
99	103	2
90	90	5
120	137	1
16	33	2
147	148	2
55	96	1
82	87	1
152	152	4
38	39	1
3	24	2
77	78	2
42	152	2
89	91	1
91	92	1
11	13	1
102	151	1
79	85	1
23	156	1
50	51	1
51	52	1
1	1	1
91	98	3
5	28	1
89	89	2
54	88	1
69	71	1
10	38	1
116	117	2
76	86	1
113	114	1
17	23	1
141	142	1
82	82	4
145	152	1
78	86	1
84	91	1
56	56	2
78	79	2
119	133	1
50	56	2
24	25	1
113	116	1
118	123	1
119	138	1
143	150	1
150	150	3
127	129	1
85	86	1
126	151	1
22	39	1
0	23	1
82	93	1
44	45	1
140	140	6
14	17	2
145	148	1
124	148	1
153	154	2
20	33	1
110	115	2
95	97	1
3	32	1
144	146	1
126	127	2
124	132	1
23	43	1
130	136	1
63	63	1
145	153	1
55	56	1
140	144	1
91	119	1
48	90	1
77	82	1
142	150	1
117	154	1
95	99	1
80	80	3
105	106	2
71	107	1
70	120	1
24	24	1
141	156	1
104	132	2
21	28	3
64	96	1
92	95	1
151	156	1
154	158	1
137	138	2
79	79	3
21	25	1
3	13	1
47	61	1
95	133	1
39	46	1
129	149	1
45	47	1
137	139	1
32	33	1
82	90	1
4	14	1
129	156	1
34	41	2
25	26	1
105	121	1
108	135	1
145	145	4
67	75	1
103	127	1
11	11	2
106	107	1
5	44	2
77	77	2
71	98	2
78	78	4
78	91	1
107	107	2
6	6	3
38	42	1
91	96	1
141	149	1
47	119	1
12	31	2
28	107	1
9	15	1
86	107	1
12	30	1
31	36	1
93	127	1
4	45	1
140	146	1
86	95	1
32	39	1
40	47	1
4	4	1
11	22	1
115	118	1
98	99	1
152	158	1
145	146	2
97	104	1
23	36	1
145	155	1
126	126	4
113	144	1
95	100	1
52	54	1
98	101	1
122	148	1
32	32	1
107	109	1
22	32	1
63	79	1
44	55	1
117	150	1
16	25	1
107	111	1
131	138	1
17	21	1
31	41	1
9	10	1
34	42	2
132	135	1
130	139	1
31	31	1
90	92	1
26	27	1
88	89	4
64	64	1
18	37	1
34	40	1
33	34	1
25	31	1
114	119	1
92	105	1
69	120	2
124	126	2
54	54	1
112	114	1
119	121	1
72	73	1
111	130	1
49	90	1
79	80	1
108	121	1
94	97	1
142	153	1
82	95	1
64	77	1
29	49	1
121	125	1
122	123	2
129	132	1
113	118	1
12	13	1
151	152	1
2	7	1
83	93	1
12	12	1
64	71	1
28	37	1
149	150	3
93	135	1
118	121	1
119	120	2
127	132	1
130	141	1
68	86	1
20	29	1
149	152	1
9	11	1
14	23	1
126	140	1
112	117	1
85	95	1
77	91	1
54	112	1
13	14	1
67	117	1
116	118	1
50	50	2
29	29	1
66	67	1
67	69	1
110	135	1
37	119	2
10	22	1
95	96	2
41	66	1
43	43	1
42	49	1
113	134	1
26	33	1
77	135	1
20	25	1
127	134	1
29	36	1
3	52	1
138	156	1
7	16	1
109	113	1
83	109	1
154	157	1
63	109	1
8	42	1
19	109	1
123	124	1
103	108	1
89	90	1
2	16	1
11	34	1
79	82	1
135	137	1
65	89	1
118	150	1
73	91	1
37	38	1
127	138	1
30	32	1
78	88	1
41	43	1
49	52	1
23	23	1
105	109	1
16	47	1
129	131	1
8	11	1
125	141	1
144	149	1
16	19	1
87	141	1
24	27	1
54	55	1
4	35	1
