163	163	3
105	105	1
54	55	1
62	66	2
24	49	1
42	46	1
167	167	2
181	181	1
5	5	1
122	122	3
40	40	6
115	125	1
18	19	3
15	46	1
39	39	4
60	63	2
63	64	1
77	77	3
76	76	1
14	14	3
27	27	1
109	110	1
158	158	5
65	101	1
130	131	2
1	1	3
172	173	2
55	55	1
184	184	1
160	184	1
6	6	6
142	144	2
81	81	1
157	157	1
7	7	2
110	110	2
88	88	2
10	36	2
91	94	1
120	120	1
64	64	1
11	12	2
90	90	1
162	163	1
145	145	2
13	14	1
52	52	1
180	181	2
182	183	1
110	123	1
142	165	1
14	15	1
60	62	1
91	93	1
41	41	3
186	187	3
11	11	2
123	123	2
3	3	2
148	148	4
54	54	2
86	89	1
38	38	1
166	168	4
103	103	4
109	178	1
78	82	1
134	134	2
159	159	1
123	126	2
26	26	3
46	46	2
158	159	1
33	33	1
81	111	1
7	72	1
82	83	1
31	31	2
14	45	2
38	39	2
117	124	1
100	100	4
94	95	1
121	125	2
169	180	1
149	149	1
144	170	1
112	112	1
168	172	1
135	142	1
150	150	1
10	20	1
106	106	2
141	141	2
96	98	1
104	105	1
45	92	1
102	102	4
133	133	1
174	175	1
44	45	1
140	146	2
111	112	2
157	158	2
162	169	1
68	68	2
109	109	1
139	139	1
57	57	3
178	178	2
147	183	1
0	1	1
96	96	1
139	155	2
43	43	3
171	171	1
9	9	3
112	149	1
31	32	1
44	44	1
66	66	1
47	47	2
108	150	1
152	158	2
128	140	1
62	72	1
140	140	3
60	60	1
101	101	1
95	95	2
122	169	1
113	113	2
137	137	1
86	86	2
25	38	1
71	71	2
129	136	1
161	162	1
176	176	1
61	61	1
125	125	2
62	62	2
75	75	1
80	80	1
125	126	1
161	166	1
151	159	1
142	142	1
82	82	2
136	137	1
114	115	1
131	131	2
130	143	1
169	186	1
73	73	3
25	25	2
30	30	1
129	129	1
164	172	1
177	177	1
99	99	2
8	106	1
130	138	1
70	105	1
111	163	1
185	185	2
15	38	1
67	113	2
111	111	1
135	135	1
59	61	2
114	129	1
98	98	1
116	117	2
106	109	1
129	174	1
81	82	1
83	84	1
175	177	1
187	187	1
87	88	2
151	151	1
94	98	1
0	0	1
21	21	1
162	162	1
140	144	1
18	18	1
74	75	1
36	44	1
48	48	1
55	79	1
55	161	2
89	89	1
121	166	1
95	173	1
174	183	1
103	111	1
124	124	1
143	144	2
30	32	1
126	141	1
141	142	1
41	42	1
8	8	1
11	29	1
152	152	1
65	66	1
118	118	1
140	153	1
39	74	1
34	35	2
131	134	1
130	130	1
144	144	1
163	165	1
45	45	1
126	126	1
19	20	1
130	133	1
154	154	1
169	170	1
93	93	2
179	179	2
24	32	2
2	3	1
175	175	1
110	146	1
116	116	1
36	36	1
141	143	1
20	20	1
74	74	2
60	80	2
91	104	1
70	92	1
129	130	1
155	155	1
72	96	1
156	158	1
168	168	1
161	161	1
103	148	1
15	15	1
186	186	1
6	7	1
170	185	1
94	94	1
