48	54	1
87	139	1
124	124	4
65	65	2
8	8	5
67	69	1
18	18	2
106	106	4
44	45	5
145	145	7
108	138	3
108	109	1
23	23	6
3	131	1
105	116	2
66	66	1
133	135	2
5	5	5
20	20	2
43	43	3
77	77	4
115	147	2
117	128	1
41	41	1
49	49	3
38	40	2
120	122	2
62	111	1
137	140	3
123	129	1
133	133	2
94	97	2
100	100	5
11	11	5
6	6	3
75	75	1
55	55	2
149	149	7
71	71	3
74	74	2
120	136	1
129	129	4
142	143	3
126	127	2
62	86	1
41	70	1
153	153	2
28	29	2
72	72	2
51	52	2
64	68	1
130	132	3
12	21	1
100	101	2
143	144	2
134	135	2
17	31	1
15	21	1
15	27	3
127	127	1
110	110	4
18	19	2
21	21	4
41	42	1
117	117	1
135	135	4
53	53	2
48	48	2
19	19	5
114	114	4
128	128	3
32	35	1
44	44	3
24	24	2
75	85	1
22	23	1
15	15	3
63	63	2
125	125	3
129	149	2
64	64	2
129	135	2
34	34	2
31	107	1
6	30	1
39	39	4
147	148	2
136	136	1
85	86	2
29	74	2
69	84	2
18	32	1
86	91	2
105	148	1
34	55	1
16	23	1
151	151	2
121	121	3
45	62	1
44	93	1
62	62	1
115	117	1
31	31	2
104	104	2
54	119	1
126	126	3
136	137	1
131	131	2
115	115	4
117	122	2
102	102	1
122	122	7
16	118	1
96	96	1
138	138	2
36	41	1
119	130	1
56	57	1
35	41	1
74	96	1
66	67	1
86	87	1
103	109	1
87	87	1
114	122	1
111	111	1
113	113	3
43	44	1
33	34	2
49	120	1
16	16	2
139	139	3
20	143	1
70	72	1
40	40	3
80	94	1
140	141	2
3	3	1
72	73	3
142	142	1
10	11	1
93	93	2
14	14	2
7	7	3
72	101	1
19	20	1
38	38	3
13	22	2
87	127	1
130	130	1
109	113	1
79	125	1
47	47	7
121	148	1
141	141	4
54	55	1
113	127	1
35	36	3
66	75	1
29	39	1
148	148	3
90	90	1
9	9	1
57	57	1
96	104	1
26	27	1
96	130	1
81	84	1
37	52	1
120	124	1
83	83	5
118	118	2
3	7	1
35	35	3
102	103	1
132	133	1
7	18	1
45	45	2
54	54	2
71	73	2
101	110	1
143	147	1
46	46	4
72	108	1
68	68	3
108	142	1
66	81	1
29	30	1
85	85	2
78	81	1
52	52	1
33	33	1
83	84	1
27	57	1
102	123	1
13	13	1
21	29	1
110	128	2
131	133	1
53	54	1
40	48	1
4	4	2
22	31	1
146	146	3
98	98	2
112	112	2
142	144	1
102	109	1
99	99	3
80	81	1
118	125	1
99	100	1
130	134	1
105	105	2
18	37	1
64	65	1
98	104	1
13	16	1
132	132	2
4	6	1
7	9	1
11	48	1
94	94	1
20	29	1
133	134	2
140	140	1
17	17	2
86	89	1
112	114	1
86	86	2
15	20	1
44	49	2
82	83	1
107	109	1
148	149	1
104	117	1
96	98	1
150	151	1
10	31	1
150	150	1
43	50	1
101	101	1
20	84	1
138	147	1
2	2	1
111	137	1
111	130	1
83	85	1
56	56	1
38	42	2
106	122	1
132	137	1
54	117	1
74	81	1
88	94	1
144	144	1
45	46	1
62	93	1
147	147	3
95	95	3
115	128	1
93	94	1
94	125	1
22	22	2
97	98	1
69	75	1
67	68	3
97	97	2
95	117	2
80	125	1
64	67	1
17	18	1
19	30	1
107	140	1
84	84	2
77	83	1
129	131	1
111	131	1
15	17	2
66	109	1
134	134	2
133	139	1
28	35	1
12	12	1
57	58	1
151	152	1
154	154	2
45	110	1
16	19	1
9	103	1
70	70	2
51	51	1
44	46	1
34	35	2
28	28	1
123	123	1
137	137	2
14	41	1
7	8	1
133	137	1
131	132	1
12	25	1
66	79	1
49	53	1
31	32	1
25	25	1
143	145	1
117	123	1
100	102	1
42	49	1
113	121	1
74	80	1
94	95	1
83	94	1
131	150	1
104	108	1
124	134	1
124	141	1
