6	6	3
79	79	1
2	2	2
61	61	1
74	74	3
86	88	2
145	145	3
114	114	3
18	19	2
142	142	2
178	178	2
86	86	2
131	131	2
90	93	1
130	130	4
175	175	1
119	119	1
45	45	3
20	21	1
165	165	2
165	166	2
37	37	6
144	154	1
19	21	1
168	169	2
33	33	2
140	141	1
34	34	1
14	14	3
153	157	1
40	40	3
23	24	1
96	96	2
147	156	1
73	95	1
54	54	4
75	75	4
62	62	2
75	133	1
15	23	3
104	126	3
91	113	1
32	33	2
78	79	1
146	146	2
29	30	2
28	28	3
39	39	4
77	78	1
52	54	1
91	91	1
16	17	1
129	130	2
136	136	1
12	12	2
49	50	1
174	174	1
62	96	1
37	46	1
64	64	1
135	135	4
106	107	3
134	134	1
43	43	2
52	52	1
92	92	1
129	129	2
67	67	1
56	56	3
91	92	1
107	107	2
80	80	3
158	158	1
124	127	1
110	111	2
10	11	1
154	154	1
84	84	1
15	17	1
44	44	3
177	178	1
75	94	2
167	167	1
139	141	1
150	150	2
144	144	4
27	28	1
53	55	1
32	32	3
123	150	1
116	116	2
102	102	1
141	141	1
12	22	2
1	1	2
78	78	4
126	171	1
176	176	1
13	13	6
5	6	2
143	144	1
90	96	1
81	86	1
77	77	1
97	98	1
95	95	6
172	172	1
122	148	1
10	10	2
81	82	1
112	114	1
82	82	1
147	148	1
55	55	1
147	164	1
169	170	2
112	112	2
14	15	1
81	81	1
11	19	1
104	105	1
72	88	1
15	129	1
24	24	1
4	4	1
66	95	2
26	29	1
65	65	2
33	41	1
114	115	1
102	121	2
179	179	1
53	53	3
95	115	1
131	171	1
133	133	1
68	68	1
16	130	1
162	162	2
13	17	1
30	30	1
173	173	1
161	161	1
118	150	1
169	169	1
31	31	1
141	145	1
18	18	3
139	139	2
35	35	1
139	140	1
125	131	1
98	100	1
168	168	2
162	163	1
148	163	1
151	154	3
72	72	1
23	27	1
161	162	1
118	138	1
171	171	1
177	177	1
133	134	1
88	88	2
108	111	1
60	60	1
9	9	4
73	145	2
149	149	2
108	108	1
153	154	2
109	109	1
2	3	1
36	36	1
164	167	1
66	67	1
120	123	1
157	158	2
86	87	1
136	137	1
83	84	1
88	132	1
126	167	1
40	41	1
18	31	1
97	97	1
151	152	2
95	96	1
21	22	1
132	132	1
137	176	2
145	146	1
44	45	1
36	37	1
3	3	1
19	19	1
115	115	1
27	27	1
118	118	1
110	126	1
159	160	1
115	116	1
148	148	2
111	111	1
121	122	2
99	101	2
125	125	1
85	86	1
121	121	1
70	71	1
102	104	2
42	62	1
21	27	2
64	66	1
100	100	1
7	17	1
157	173	1
109	110	1
158	159	1
50	50	1
93	93	1
7	29	1
166	166	1
142	143	1
89	89	1
67	68	1
95	112	1
71	173	1
106	106	1
156	156	1
90	90	1
26	30	1
