89	89	1
61	62	2
44	69	1
68	68	2
152	153	1
23	23	5
10	10	3
140	141	1
116	116	4
129	130	1
114	114	1
221	222	1
0	1	4
5	5	1
50	50	1
74	74	1
68	69	1
153	153	2
233	238	1
96	96	2
102	103	2
141	141	2
29	29	1
60	60	2
58	58	2
240	240	3
48	48	3
88	88	1
120	120	1
54	54	2
16	16	3
158	158	2
185	188	2
67	80	1
30	31	1
157	157	5
25	25	3
176	180	1
45	47	2
40	40	2
172	172	2
191	191	2
225	225	3
164	165	2
111	111	4
16	20	1
153	178	1
174	175	2
163	167	1
164	164	2
65	68	1
169	169	2
147	147	2
111	112	1
178	190	1
27	27	5
55	55	1
39	39	3
78	78	3
113	120	1
162	162	1
8	16	1
174	176	1
37	37	1
174	174	3
175	176	1
18	224	1
102	102	2
13	13	2
173	173	3
26	26	5
202	204	1
161	161	1
217	218	1
20	20	6
170	170	4
69	69	2
133	133	2
121	121	5
85	85	5
58	60	1
127	130	1
63	63	1
162	166	1
234	234	1
159	159	4
171	225	1
109	112	2
8	8	1
36	54	1
98	98	4
151	151	3
88	89	3
107	107	2
138	143	1
1	1	1
17	17	2
98	99	2
154	155	1
139	140	2
108	108	2
4	4	1
139	139	1
70	70	1
133	182	1
206	217	2
22	23	1
231	231	1
191	192	2
123	124	2
163	163	1
239	239	1
148	150	1
212	215	1
204	204	3
166	166	1
193	197	1
53	53	1
118	124	1
237	237	1
160	160	1
106	122	1
241	241	1
5	6	1
64	86	1
100	100	1
38	238	1
58	59	1
125	125	1
126	127	1
166	192	3
170	171	1
12	38	2
128	129	1
113	113	2
205	206	1
232	232	3
18	20	1
177	177	1
12	12	1
28	28	2
116	142	1
11	11	3
21	22	2
101	102	2
116	117	1
30	30	2
95	101	1
32	36	1
9	9	1
50	51	1
178	178	1
161	186	1
193	193	1
151	156	1
161	165	1
43	43	1
3	3	2
183	183	2
73	129	1
235	235	1
99	99	1
33	35	1
150	152	1
161	167	2
110	129	1
72	72	2
6	34	1
171	172	1
32	32	1
102	112	1
135	135	5
124	124	2
192	192	1
179	179	2
185	185	3
213	215	1
173	177	1
73	73	1
33	33	2
35	35	2
127	128	2
219	219	1
7	9	1
226	227	1
95	95	1
156	156	2
159	191	1
15	47	1
123	165	1
135	149	1
134	134	1
129	129	1
112	112	1
140	140	2
97	97	3
59	59	1
171	171	2
187	229	1
227	230	1
168	181	1
119	119	1
15	15	1
184	185	1
194	194	1
136	136	1
65	66	1
81	82	1
7	8	1
90	114	1
212	212	2
203	203	1
128	144	1
184	184	1
32	55	1
187	214	1
19	19	1
183	184	1
78	125	1
71	71	1
153	155	1
176	176	3
149	151	1
6	7	1
181	182	1
197	197	1
96	97	1
47	47	1
183	213	1
46	46	2
56	57	1
116	125	1
158	159	2
233	233	1
137	138	1
49	49	1
47	71	1
65	65	1
144	144	2
9	32	1
230	230	1
104	122	1
56	63	1
180	180	1
150	150	2
187	206	1
238	238	1
1	23	1
156	157	1
128	157	1
126	126	1
62	62	2
123	150	1
109	109	1
122	122	2
144	148	1
181	181	1
38	138	1
75	89	1
3	4	1
26	27	1
105	105	1
44	54	1
178	179	2
124	183	1
231	233	1
155	158	1
40	53	1
29	43	1
101	129	1
0	0	1
128	128	1
16	23	1
44	55	1
175	175	1
158	168	1
31	32	2
