143	143	5
95	106	1
54	54	4
55	74	1
129	132	2
90	90	2
17	17	5
38	54	1
49	66	1
29	29	2
129	129	5
81	108	1
123	123	2
48	48	3
41	41	3
67	67	6
58	58	6
38	38	3
42	42	3
4	5	1
131	132	2
103	103	5
144	144	4
53	53	1
118	138	1
140	140	10
3	4	4
102	102	8
104	105	4
72	72	3
23	23	4
107	107	3
29	30	2
47	47	5
106	106	1
1	28	1
77	77	2
117	117	4
59	98	1
132	132	7
85	85	1
37	38	1
97	97	6
50	51	6
54	95	1
110	110	4
105	105	2
96	96	4
98	106	1
81	104	1
3	3	4
121	121	3
73	74	2
55	57	1
34	39	1
61	61	7
98	99	2
127	129	1
134	134	4
86	86	3
60	60	6
27	28	2
25	25	5
98	98	4
128	128	7
95	95	4
101	101	4
71	79	1
142	143	2
24	24	4
142	142	4
86	109	1
91	93	1
1	1	3
85	110	1
72	74	1
26	26	5
65	66	2
62	62	2
0	1	1
16	16	3
33	33	2
58	65	1
56	56	1
65	65	1
116	117	4
132	133	1
53	54	2
126	126	13
22	22	9
81	91	1
51	51	2
56	64	1
30	30	6
93	93	1
133	133	7
30	31	2
91	91	3
11	11	8
73	73	4
39	39	4
136	137	1
136	136	2
0	0	5
108	109	2
109	109	3
122	122	2
112	113	4
5	5	3
144	145	1
49	50	1
105	135	1
88	88	5
82	83	3
116	135	1
80	82	1
28	28	10
77	79	2
55	56	2
9	20	1
36	52	1
144	146	1
76	77	2
49	62	1
123	126	1
120	120	1
87	92	1
68	117	2
64	65	5
63	63	3
18	18	4
84	84	1
141	142	2
49	49	1
41	128	1
76	76	2
138	138	3
55	55	3
131	131	2
62	65	1
68	68	3
116	116	1
145	145	2
19	126	1
3	6	1
113	115	2
139	139	2
124	125	2
79	79	1
96	97	1
12	13	1
50	57	2
51	52	4
2	6	1
94	94	4
105	106	1
55	59	1
63	80	1
38	39	1
53	57	1
52	52	2
140	141	1
100	100	4
59	59	2
130	130	4
2	2	4
13	13	5
104	107	2
74	74	4
115	115	2
17	18	2
37	37	4
135	140	2
97	98	4
67	68	3
127	127	2
109	115	1
10	30	1
112	115	1
120	121	1
27	27	5
82	85	1
140	143	1
87	89	1
0	20	2
124	124	2
118	119	1
5	26	1
73	116	1
12	12	2
99	99	6
1	2	2
86	87	2
18	26	1
115	137	1
76	79	1
42	145	1
119	119	1
113	113	1
114	115	2
55	58	1
21	98	2
39	76	1
10	11	3
136	140	2
83	83	1
131	134	1
52	57	2
19	19	3
59	60	1
128	132	1
18	20	3
88	115	2
79	80	1
14	14	3
74	97	1
31	31	2
12	79	1
92	94	1
27	124	1
43	47	1
19	20	2
68	73	1
14	36	1
137	138	1
146	146	2
34	34	3
4	4	1
32	32	3
115	118	2
125	131	1
16	34	1
106	136	1
119	120	2
40	40	1
48	50	1
18	19	2
141	141	4
105	109	3
87	96	1
128	131	1
36	37	1
2	42	1
123	125	1
63	65	1
75	75	2
137	137	5
81	81	3
78	78	1
55	100	1
70	70	2
87	87	1
84	113	1
95	124	1
43	43	2
1	22	1
10	10	2
110	123	1
117	118	1
106	133	1
17	67	1
57	73	1
69	69	2
80	100	1
111	118	1
89	108	1
54	60	1
62	74	1
18	27	1
115	117	1
40	41	2
0	27	1
33	34	1
84	85	2
20	27	1
29	47	1
17	19	1
104	104	4
87	91	1
135	136	1
67	71	2
24	37	1
80	80	1
89	89	2
143	144	1
102	103	1
101	102	1
62	63	2
85	137	1
6	19	1
61	71	1
99	101	2
2	3	2
30	75	1
35	47	1
8	8	2
111	113	1
27	121	1
13	23	2
67	106	3
123	129	1
64	117	1
79	82	1
4	36	1
18	23	1
64	64	1
35	35	1
130	131	2
118	118	1
82	82	1
114	117	1
78	79	1
12	68	1
25	30	1
120	131	1
65	69	1
66	66	1
127	130	1
128	133	1
0	9	1
125	125	2
77	93	1
117	134	1
77	122	1
133	140	1
4	34	2
135	135	1
133	141	1
48	73	1
50	55	1
15	15	1
29	81	1
75	76	1
119	122	1
40	42	1
72	73	1
52	60	1
112	112	1
39	43	1
102	106	1
95	96	1
61	133	1
123	124	3
73	82	1
74	105	1
3	37	1
47	56	1
57	57	1
82	86	1
36	36	1
23	24	1
25	26	1
133	134	1
20	21	1
47	60	1
