99	99	2
105	105	3
96	96	5
2	6	2
102	102	4
43	43	5
123	123	3
105	107	3
28	30	1
128	128	3
106	106	3
58	59	3
78	82	1
95	98	1
59	67	1
0	0	5
53	53	7
16	17	3
122	122	3
92	108	1
133	133	4
79	81	3
115	115	3
79	79	1
32	32	6
89	91	1
46	46	3
59	59	3
58	58	3
108	108	4
86	86	1
8	9	2
117	117	8
111	111	2
48	105	1
13	14	4
115	119	1
30	32	2
113	113	1
2	2	1
125	125	2
29	67	1
15	15	4
88	88	3
57	58	1
44	44	2
126	127	1
94	94	1
47	47	6
25	25	3
97	99	2
82	82	2
114	114	3
44	82	1
107	131	1
53	56	1
49	49	3
105	106	1
107	107	8
109	109	6
85	86	3
119	123	1
18	19	2
89	89	1
57	57	2
78	78	2
38	38	4
106	129	1
5	5	3
130	131	4
13	16	1
124	124	6
26	26	3
43	44	2
29	31	1
44	55	1
30	31	1
98	99	1
2	11	1
33	34	1
68	68	4
115	116	1
69	69	2
63	63	5
48	48	4
33	33	2
16	21	1
104	109	1
120	120	4
85	89	2
14	14	1
60	62	1
75	75	2
5	6	1
108	110	1
32	42	1
24	24	1
54	54	2
82	86	1
97	110	1
40	42	4
6	16	1
101	102	1
40	48	1
120	125	3
69	70	1
117	118	1
131	131	4
53	111	1
59	61	1
27	47	1
3	3	1
67	79	1
70	92	1
124	125	1
30	30	2
39	39	3
112	112	3
106	130	2
86	95	1
66	66	1
126	126	3
106	107	3
27	27	3
110	110	4
29	30	2
123	124	3
118	118	4
99	104	1
130	130	3
73	73	3
105	127	2
50	50	4
94	95	2
97	98	1
51	51	2
118	119	1
127	127	3
26	29	1
92	94	1
92	92	3
77	77	2
92	118	2
83	88	2
46	55	1
53	54	2
98	98	2
117	125	1
1	1	1
72	72	2
119	119	1
101	101	1
48	49	2
75	88	2
116	117	1
31	32	1
60	75	1
70	70	1
4	28	1
46	47	1
81	99	1
34	34	1
42	45	1
81	82	3
6	6	2
121	121	5
73	74	1
85	85	1
95	108	1
59	60	1
64	76	1
43	47	1
18	18	2
77	79	1
74	74	1
113	114	1
112	117	1
107	115	1
17	19	1
88	91	1
78	81	1
49	50	1
55	55	4
75	84	1
24	40	1
31	54	1
54	111	1
29	29	1
31	31	1
74	87	1
13	25	1
60	78	1
3	4	1
103	103	2
6	7	2
61	73	1
66	104	1
56	66	1
16	16	1
52	52	1
46	48	1
7	7	2
123	126	1
116	119	1
7	122	1
4	6	1
63	98	1
67	67	2
7	13	1
87	87	1
120	131	1
27	39	1
122	123	1
67	68	2
52	59	1
17	29	1
76	76	1
110	123	1
129	129	1
33	41	1
91	108	1
33	80	1
17	17	1
56	56	2
113	116	1
110	111	1
42	47	2
54	55	1
104	105	1
103	105	1
61	61	1
3	5	1
26	33	1
1	12	1
28	28	1
68	69	1
100	100	2
22	24	1
10	11	1
19	19	1
27	49	1
24	43	1
63	65	1
119	131	1
84	88	2
90	90	1
112	113	1
91	91	1
125	128	1
54	59	1
97	112	1
90	91	1
4	4	2
15	17	1
70	76	1
1	2	1
45	48	1
13	30	1
9	9	1
109	110	1
70	87	1
97	97	1
96	99	1
82	88	1
