71	71	6
19	19	1
86	88	1
29	29	7
72	72	4
49	108	1
48	48	6
14	14	2
119	119	7
70	71	5
102	102	7
123	123	14
114	115	3
74	75	2
53	53	11
60	61	4
93	93	7
94	94	3
77	95	1
109	109	11
50	52	1
131	131	11
18	27	3
113	113	9
123	132	1
40	40	7
10	11	2
67	68	4
65	65	13
105	105	3
58	59	6
91	92	1
34	34	4
8	8	5
76	92	1
23	49	2
55	92	1
80	81	2
99	101	3
51	51	6
125	125	13
84	84	1
107	107	8
127	127	7
118	119	1
75	79	1
66	72	1
77	77	9
51	52	2
68	69	4
16	16	2
130	131	2
17	18	7
55	58	2
73	74	3
74	97	2
65	66	1
6	6	6
86	91	3
115	116	5
91	91	7
19	21	2
80	80	7
121	121	8
92	94	1
71	88	1
43	43	4
57	57	3
54	54	11
68	68	6
104	105	4
56	57	5
87	88	4
41	41	4
2	2	6
32	32	5
130	130	11
27	29	1
126	126	5
96	97	3
25	29	1
70	106	1
25	25	3
15	16	5
23	23	6
109	110	3
90	90	8
112	112	10
0	0	7
3	4	2
4	4	5
99	99	7
61	61	3
81	81	3
59	66	2
28	32	1
92	92	8
116	116	3
125	127	1
99	103	2
75	75	4
9	10	2
132	132	5
52	95	2
123	124	3
21	23	1
100	100	5
57	106	1
24	25	1
129	129	10
127	129	4
106	107	5
82	83	1
21	46	1
25	27	4
51	121	1
27	28	4
128	128	8
42	42	2
96	105	2
28	29	2
90	94	2
56	109	1
39	45	1
62	62	8
110	110	4
52	113	1
52	57	1
31	31	4
52	52	11
45	46	1
47	47	6
52	53	2
89	101	1
122	123	2
116	117	2
101	101	5
67	83	1
24	24	7
76	76	3
43	44	3
94	95	5
58	58	2
53	54	2
63	63	3
97	106	1
114	114	4
83	106	2
106	106	5
126	128	4
110	112	1
26	26	8
33	33	5
70	70	4
127	128	2
126	129	1
76	77	5
43	63	1
128	129	2
37	37	2
46	46	7
4	6	1
109	112	1
70	116	1
100	101	3
98	98	3
18	18	6
133	133	7
82	86	1
0	48	2
2	3	4
83	83	3
129	130	1
73	103	1
56	56	6
122	122	5
33	45	1
55	55	7
104	104	8
57	121	2
107	115	1
20	21	2
97	98	3
69	69	11
32	34	2
95	131	1
27	27	5
18	19	1
67	67	1
83	85	3
30	30	10
90	106	1
31	40	1
32	37	1
79	126	1
20	20	7
54	55	2
118	118	3
113	114	5
111	111	11
114	116	1
58	66	2
118	123	1
12	12	5
117	118	2
23	27	1
5	5	5
105	106	4
77	91	2
110	111	4
64	64	4
113	120	1
85	86	2
98	99	3
73	76	1
94	108	1
28	51	1
7	7	7
46	75	1
45	74	1
9	9	2
28	28	2
21	21	5
122	130	1
85	87	2
84	85	2
2	5	1
90	91	1
55	56	2
75	76	3
108	108	7
92	95	1
95	95	6
102	103	4
54	56	2
97	97	4
3	3	6
74	115	2
77	83	1
73	73	4
111	112	1
49	49	4
114	120	1
22	23	1
84	88	2
108	118	1
115	117	2
94	111	1
79	82	1
49	110	1
22	22	3
13	13	3
95	96	1
74	74	5
120	120	9
115	115	5
102	105	3
4	5	2
81	128	1
85	85	4
59	59	3
41	69	1
66	117	2
68	97	1
51	110	2
87	87	1
78	78	5
108	114	1
15	15	4
102	130	1
93	94	3
58	83	1
29	31	1
30	32	1
93	121	1
51	120	1
39	108	1
2	6	2
80	82	1
103	106	1
19	31	1
10	10	2
28	46	1
23	25	1
60	79	1
75	92	2
42	48	1
49	50	1
81	82	4
69	110	1
25	44	1
68	83	2
14	15	2
66	66	2
93	95	1
77	89	2
89	90	3
77	125	1
23	28	1
70	117	2
12	13	2
53	111	1
100	103	1
64	81	1
13	26	1
60	60	7
11	23	1
46	48	1
100	130	1
76	94	1
98	100	2
112	117	1
27	31	1
99	100	4
89	89	3
16	17	2
41	46	1
109	111	1
105	128	1
10	13	2
125	126	4
112	121	1
47	119	1
48	49	2
19	42	1
96	103	1
86	87	3
52	112	1
21	22	2
50	50	4
78	79	3
29	30	2
58	65	2
60	81	1
50	111	1
19	27	1
23	30	1
92	93	1
41	43	1
19	20	1
79	79	3
108	109	1
78	87	1
32	33	2
66	70	1
50	109	1
92	113	1
73	88	1
63	66	1
59	63	1
10	48	1
102	131	1
89	127	1
63	64	1
66	68	1
69	70	4
72	75	1
88	92	2
33	50	1
49	62	1
16	18	1
45	45	2
131	132	3
45	47	1
38	66	1
66	67	1
117	119	1
50	57	1
100	125	1
120	124	1
77	88	2
17	17	1
124	124	3
10	23	1
70	85	1
126	127	4
79	80	1
80	115	1
103	103	1
52	66	1
87	102	1
56	76	1
49	63	1
27	57	2
48	69	1
101	124	1
77	104	1
9	12	1
102	104	2
41	74	1
106	111	1
70	76	1
42	71	1
59	60	2
39	40	1
57	111	1
7	49	1
125	132	1
11	12	2
109	129	2
66	107	1
77	78	2
32	42	1
74	78	1
97	125	1
17	39	3
81	84	1
50	51	2
11	11	3
30	39	1
106	131	1
88	88	2
1	1	1
110	124	1
57	58	1
39	107	2
101	127	2
49	56	1
31	34	1
73	80	1
41	47	1
29	39	1
93	107	1
95	106	1
71	99	1
61	65	1
112	122	1
67	81	1
16	42	1
86	99	1
91	114	1
8	9	1
38	38	1
53	112	2
60	65	1
127	130	1
88	89	1
63	91	1
72	73	2
107	108	1
85	88	1
44	47	1
25	30	1
110	132	1
23	24	1
94	100	1
117	117	3
52	92	1
10	12	1
91	95	1
32	92	1
78	126	1
41	45	1
26	32	1
57	102	1
32	54	1
71	81	1
0	2	1
9	13	1
96	98	1
48	71	1
8	51	1
30	40	1
53	94	1
82	82	1
102	127	1
69	118	1
111	121	1
62	92	1
108	119	1
14	17	1
49	133	1
5	9	1
124	129	1
25	34	1
94	124	1
22	49	1
78	103	1
71	80	1
118	133	1
46	95	1
66	96	1
44	44	1
29	47	1
40	45	1
79	103	1
47	48	2
109	121	1
1	3	1
100	102	1
76	93	1
71	74	1
72	106	1
40	107	1
64	65	2
124	125	1
18	31	1
83	84	1
76	83	1
39	39	1
13	14	1
