54	55	3
58	58	7
70	70	4
93	93	7
66	66	6
23	24	1
53	53	5
73	73	9
59	59	1
63	63	7
89	89	4
69	91	1
98	99	3
57	57	5
95	95	5
46	46	3
101	101	6
91	101	1
39	39	3
74	74	8
36	36	5
83	83	3
96	96	4
33	33	3
99	100	2
42	43	2
56	56	2
95	97	3
62	63	1
71	71	1
71	73	2
41	42	1
34	35	1
95	96	4
65	65	5
69	69	9
29	58	2
44	44	5
47	50	1
48	48	2
28	39	1
34	45	1
32	32	2
67	68	1
39	40	3
45	45	7
87	99	1
77	78	1
101	102	4
55	55	4
34	34	7
43	44	1
41	41	2
74	75	3
79	79	3
43	43	4
35	99	1
75	75	8
67	67	6
93	97	1
94	94	1
71	72	1
61	62	3
81	81	4
62	91	2
40	40	3
43	82	1
30	30	1
38	38	3
81	82	1
66	67	2
98	98	6
62	62	3
68	71	1
27	27	1
87	88	2
96	97	1
86	86	3
90	91	1
40	91	1
68	68	4
77	77	6
52	52	5
100	100	5
59	83	1
35	36	1
49	49	3
63	101	1
93	100	2
88	88	2
72	72	2
23	27	1
64	64	8
71	88	1
69	72	1
86	88	2
55	56	1
89	95	1
47	47	2
60	63	1
37	37	3
26	39	1
75	77	1
28	28	2
60	60	2
42	42	4
102	102	1
94	95	1
24	25	3
59	62	2
63	64	1
25	46	1
52	55	1
92	92	7
68	69	1
47	62	2
22	23	1
22	25	2
34	39	1
90	90	6
50	52	2
41	50	1
26	26	2
70	93	1
27	35	4
88	95	2
84	84	5
58	60	2
82	82	1
43	65	1
56	102	1
31	31	4
99	99	2
71	83	1
29	29	1
80	80	6
76	76	3
49	87	1
46	48	1
87	87	1
45	56	1
34	38	1
78	78	4
33	51	1
58	59	1
50	51	1
65	78	1
65	77	1
25	26	1
27	28	2
49	55	1
97	98	1
33	34	2
76	82	1
40	51	1
41	51	1
79	80	3
72	102	1
53	101	1
66	68	1
23	23	1
46	47	1
37	38	1
23	25	2
80	81	3
96	99	1
61	61	3
46	54	1
20	35	1
40	41	1
50	91	1
92	93	1
91	91	1
37	98	1
29	30	1
59	60	1
85	85	5
51	51	5
93	95	1
54	54	1
49	95	1
59	85	1
50	95	1
22	22	1
30	100	2
36	38	1
97	97	2
24	24	1
45	54	1
78	89	2
25	25	1
25	36	1
73	74	2
27	60	1
64	89	1
69	70	1
37	52	1
89	92	1
57	58	1
86	87	1
35	39	2
