55	102	1
50	50	2
41	41	3
51	57	1
43	43	6
52	53	2
127	127	3
143	159	2
179	179	3
113	121	1
33	33	5
6	6	7
13	13	3
13	14	2
14	41	2
12	13	3
0	0	2
166	166	2
23	33	1
170	170	3
3	73	1
114	115	2
176	176	2
157	157	2
81	81	4
31	31	3
171	171	2
73	74	2
43	54	2
149	149	3
88	88	2
175	175	2
131	131	5
180	180	5
139	139	7
163	164	1
140	147	1
99	99	4
111	138	1
61	65	2
161	161	1
53	78	1
42	45	3
37	56	1
78	78	2
142	142	2
11	12	3
63	63	1
98	100	1
123	123	4
77	80	1
53	174	1
151	169	2
3	4	1
136	136	3
144	146	3
116	117	2
29	30	1
31	32	3
37	37	2
10	10	6
19	22	1
168	168	2
159	159	6
102	102	2
2	3	1
57	57	3
22	24	1
94	117	1
51	51	2
93	93	2
124	124	1
105	105	3
156	156	4
142	145	1
32	32	6
85	85	3
140	154	2
91	93	1
118	134	1
40	82	2
167	168	2
133	139	2
18	46	1
150	150	5
36	36	3
15	15	3
126	128	1
35	35	8
170	171	1
129	167	1
85	86	1
5	33	1
30	30	1
108	108	2
31	40	1
72	72	2
74	74	1
35	36	2
90	90	1
92	92	1
9	9	2
14	14	4
18	18	3
153	153	5
125	125	1
17	17	2
29	29	2
2	5	1
169	171	2
128	129	1
32	61	1
64	65	1
138	138	2
94	109	1
89	118	1
58	58	2
113	113	3
126	127	1
154	155	1
102	103	1
44	44	1
149	150	2
7	7	3
88	94	1
151	152	1
40	40	4
152	153	1
70	132	1
132	132	1
102	127	1
174	174	4
132	159	1
151	151	3
81	82	1
122	122	3
12	12	1
104	104	2
128	128	1
27	40	1
162	162	2
42	42	4
28	28	4
166	168	1
133	133	6
163	169	1
56	56	3
38	39	1
130	130	4
123	124	1
62	63	1
119	120	1
44	45	1
0	4	2
16	44	1
18	19	2
119	119	4
9	17	1
61	61	3
126	126	1
5	5	4
68	68	1
167	167	1
123	157	1
3	32	1
21	22	1
10	138	1
16	24	1
39	39	1
2	2	5
84	84	2
134	136	1
25	25	3
115	116	2
4	4	1
61	63	1
114	114	1
71	71	3
173	174	1
169	169	4
55	56	1
158	158	2
143	158	1
114	129	1
67	178	1
145	146	1
37	74	1
172	172	2
123	125	1
6	7	1
134	134	2
8	9	1
145	145	3
95	95	2
101	101	1
144	161	1
109	111	1
137	137	2
55	55	1
19	19	3
154	154	1
138	139	2
65	65	2
142	171	1
3	16	1
65	85	1
25	26	2
88	89	1
21	21	1
45	45	1
154	156	1
90	98	2
178	179	2
40	44	1
155	155	4
36	37	1
104	130	1
30	35	1
27	29	1
78	90	1
112	114	1
144	144	4
120	120	1
38	38	1
160	170	2
1	1	2
40	41	1
152	152	1
10	32	1
1	2	1
90	94	1
158	159	1
41	42	1
131	153	1
118	120	1
156	158	1
142	159	1
112	112	2
83	83	2
10	11	1
3	3	1
106	106	2
157	163	1
64	64	2
178	178	2
126	145	1
31	37	1
159	161	1
86	86	2
111	132	1
17	18	1
139	140	1
125	143	1
140	140	1
42	112	1
3	5	1
167	170	1
126	130	1
96	96	1
62	87	1
23	23	1
63	109	1
106	109	1
90	95	1
141	141	1
135	135	2
17	42	1
134	137	1
75	76	1
125	126	2
146	146	1
13	27	1
7	8	1
97	97	2
63	102	1
110	110	1
129	129	1
67	80	1
160	160	2
143	143	1
53	53	1
18	20	1
173	173	1
34	36	1
66	66	1
119	146	1
27	27	1
159	160	1
92	119	1
79	82	1
14	25	1
120	121	1
95	96	1
39	40	1
88	115	1
31	35	1
59	59	1
125	148	1
65	72	1
167	178	1
121	121	1
54	54	2
121	122	1
143	153	1
153	156	1
162	164	1
176	178	1
37	171	1
77	110	1
72	73	1
53	55	1
82	82	1
6	10	1
53	54	1
101	105	1
165	166	1
144	152	1
115	139	1
91	91	1
106	107	1
73	73	1
