11	12	2
46	65	1
45	52	1
148	148	3
125	126	1
57	57	2
38	39	4
133	133	5
46	67	1
81	81	3
39	41	1
134	134	1
33	33	3
104	122	2
48	48	7
131	131	5
38	38	2
129	148	2
100	100	3
30	30	2
72	72	2
37	37	3
75	75	1
103	107	1
105	126	2
65	65	5
7	7	4
98	98	2
10	10	3
146	146	1
68	69	1
31	35	1
96	96	2
81	83	1
115	115	4
101	102	2
136	137	1
20	23	1
34	35	1
13	13	5
138	138	3
110	111	1
65	67	1
3	7	1
12	22	1
37	38	1
135	138	1
76	76	3
73	73	2
3	3	1
41	41	3
84	84	1
106	107	1
39	39	4
127	127	3
131	132	2
55	55	1
47	47	3
64	65	1
101	101	1
102	103	1
80	80	2
72	90	2
90	90	1
11	11	3
16	17	1
149	149	4
55	56	1
123	123	3
129	149	1
129	129	3
143	143	2
94	95	1
14	14	3
124	132	1
111	111	3
35	36	1
106	106	2
94	94	2
68	68	1
21	23	1
12	12	1
142	144	1
19	19	3
107	114	2
25	51	1
62	63	2
138	139	1
18	18	2
105	118	3
108	109	2
14	30	1
45	45	3
103	105	3
118	118	2
71	71	1
43	43	1
54	54	1
130	131	3
95	95	1
93	93	1
28	28	1
77	77	2
90	93	1
13	27	1
57	58	1
49	50	2
151	151	1
130	130	2
125	125	3
15	15	3
82	82	3
104	105	2
49	49	2
46	46	3
43	44	1
63	65	1
124	124	4
144	147	1
33	34	2
122	122	1
117	117	3
17	17	3
21	21	1
140	140	3
20	20	2
100	107	1
117	130	1
69	69	1
137	138	2
112	113	1
18	19	1
36	36	1
3	5	1
104	104	1
130	135	2
5	10	1
44	53	1
140	141	1
100	103	1
24	25	1
22	43	1
138	143	1
56	56	1
82	83	1
75	96	1
113	114	1
74	131	1
144	145	2
67	67	1
73	103	1
9	9	1
129	130	1
44	45	1
154	154	3
130	133	1
77	78	1
139	139	1
150	150	3
127	128	1
137	143	1
120	120	2
147	148	2
81	104	1
140	148	1
30	31	2
3	18	1
135	135	2
119	119	2
40	77	1
74	132	1
20	38	1
102	107	1
72	99	1
70	70	2
101	103	1
53	53	1
72	73	1
13	14	1
68	71	1
146	147	1
27	27	1
136	136	1
42	43	1
25	26	2
111	112	1
8	8	1
102	102	2
110	110	1
14	15	1
99	99	1
97	98	1
153	153	2
78	78	1
86	90	1
107	107	3
144	148	1
24	40	1
126	126	1
141	143	1
114	114	2
121	121	1
21	22	1
66	67	1
92	92	1
87	87	1
137	137	1
32	136	1
7	9	1
2	65	1
126	127	1
131	133	1
108	108	1
24	30	1
75	76	1
26	26	2
106	109	1
104	112	1
32	33	1
3	8	1
13	18	1
