9	9	3
89	89	3
27	27	5
21	25	1
173	173	4
127	127	2
1	1	2
118	148	1
100	103	1
176	176	6
45	86	1
38	38	3
137	137	2
41	81	1
169	169	2
23	23	3
38	39	2
136	136	2
15	15	5
149	149	7
52	54	1
152	152	2
59	97	1
109	109	3
53	60	1
43	43	3
140	140	2
112	112	2
135	135	3
116	116	2
39	40	1
82	87	2
23	25	1
73	75	1
158	172	2
57	57	3
71	72	2
87	87	2
65	65	1
178	178	5
165	169	1
51	93	1
176	177	1
43	77	1
83	86	2
11	13	1
24	37	1
17	18	1
8	8	3
111	111	3
134	149	1
116	117	2
166	167	4
122	125	1
168	168	2
7	17	1
150	150	2
64	65	2
2	66	1
138	175	1
97	97	3
68	173	1
174	174	1
170	170	2
133	133	1
160	166	2
128	131	1
6	7	1
113	114	1
134	134	4
132	132	4
126	130	1
131	131	2
100	100	3
3	4	4
70	70	2
33	33	1
142	142	1
44	45	1
56	57	1
91	91	3
169	171	1
94	95	1
5	5	1
63	64	1
144	145	2
39	39	2
150	151	1
135	145	1
131	132	2
67	120	1
163	173	1
81	90	1
36	36	1
146	146	3
43	65	1
84	88	2
16	24	1
68	149	2
74	75	1
81	81	1
13	13	4
42	43	2
163	168	2
99	99	2
51	51	2
55	79	1
17	17	1
0	0	2
71	71	3
29	33	1
163	163	2
37	37	2
116	127	1
163	165	1
91	94	1
68	68	6
78	78	6
77	77	1
84	84	1
149	154	1
29	30	2
73	73	3
74	74	2
160	161	1
118	118	1
154	154	1
52	53	1
55	55	2
22	25	2
32	32	5
61	61	1
159	159	2
123	123	2
146	155	1
8	9	1
20	35	1
20	20	2
60	60	3
159	163	1
152	168	1
94	100	1
25	26	2
82	84	1
67	139	1
121	122	1
59	59	1
162	170	1
156	156	1
112	113	1
27	35	1
111	114	1
55	61	1
165	165	1
50	51	1
9	16	2
10	10	3
164	165	2
118	119	1
73	110	1
146	170	1
117	117	2
124	124	1
132	141	1
95	112	1
30	31	2
129	129	1
147	148	1
16	16	1
63	63	2
171	171	2
3	3	1
80	80	1
12	12	1
65	66	1
64	87	1
139	139	3
15	18	1
19	20	1
23	24	1
150	154	1
128	128	2
53	55	1
93	93	2
81	173	1
160	160	1
53	54	1
166	166	2
151	151	1
20	21	1
102	110	1
86	86	1
79	79	2
92	92	1
106	107	1
164	164	1
124	125	1
167	167	1
83	83	1
107	107	2
59	63	1
72	72	1
122	122	5
157	168	1
144	144	2
67	67	1
116	119	1
21	21	1
42	42	1
86	87	1
61	68	1
19	32	1
106	119	1
60	61	1
7	7	2
154	159	1
12	98	1
172	172	2
138	138	1
148	168	1
122	171	2
134	135	1
129	157	1
85	85	1
117	118	1
103	103	1
91	92	1
25	25	1
113	156	1
53	53	2
141	141	2
123	124	1
89	90	1
152	153	1
130	148	1
96	112	1
115	115	1
40	40	1
150	172	1
7	16	1
56	77	1
67	72	1
13	14	1
149	159	1
4	10	1
2	3	1
107	109	1
66	66	1
145	145	2
94	94	1
114	114	1
157	172	1
115	116	1
75	75	2
134	138	1
2	2	1
14	14	1
14	15	1
22	40	1
46	50	1
126	127	1
26	37	1
140	160	1
145	146	1
97	114	1
76	76	1
105	107	1
90	90	1
41	41	1
128	130	1
33	43	1
109	110	1
139	168	1
22	22	1
157	161	1
149	153	1
66	139	1
170	171	1
