165	165	4
219	219	5
186	192	1
246	249	1
89	89	3
19	19	1
27	30	1
177	177	2
9	9	4
65	184	1
156	156	3
173	173	2
146	146	2
189	190	2
178	189	1
240	245	1
198	198	4
50	52	1
103	105	1
169	171	1
69	86	1
29	29	5
17	17	2
109	111	1
204	204	3
53	76	2
112	112	6
28	180	2
94	94	4
6	196	2
58	58	2
223	223	5
218	240	1
50	50	5
246	246	2
215	215	4
165	176	2
174	201	1
196	247	3
8	8	2
184	196	1
65	65	4
96	97	2
13	13	1
151	160	1
51	110	1
91	93	2
214	214	2
7	7	2
51	51	6
5	5	8
116	144	1
59	59	4
98	98	2
82	88	1
145	145	2
224	245	1
238	238	3
110	120	1
168	172	1
64	70	1
118	118	2
27	27	2
219	220	3
214	224	1
86	88	1
208	208	2
200	200	5
84	84	1
180	181	2
239	239	2
66	66	2
197	214	2
11	12	1
46	116	1
209	237	1
172	173	3
111	121	2
113	113	2
80	80	1
150	150	3
31	212	1
242	242	4
49	49	4
49	66	1
50	69	2
91	91	1
194	201	1
106	187	1
2	2	1
155	156	1
21	21	4
1	37	1
154	204	1
114	115	1
90	90	5
11	11	3
233	244	1
153	153	2
221	221	2
217	218	1
54	54	2
44	44	2
228	228	5
11	32	1
232	244	1
240	241	3
145	147	2
193	193	3
30	31	4
237	237	5
94	97	1
170	172	1
164	164	4
192	192	3
192	193	2
100	112	2
120	149	1
202	214	2
110	112	1
25	25	1
237	238	1
55	55	3
5	7	1
28	38	1
107	108	3
116	116	3
12	12	4
56	57	2
205	226	3
86	96	1
235	235	1
37	44	1
9	89	2
223	247	1
49	61	1
163	163	2
106	106	2
31	31	2
9	10	1
165	166	2
71	71	1
45	102	1
231	233	1
9	12	1
111	112	1
7	8	2
208	209	2
236	236	4
172	172	2
233	247	1
16	21	1
151	151	4
222	222	2
201	201	4
24	32	2
187	187	4
208	240	1
165	209	1
215	217	2
245	246	3
229	244	1
187	195	1
33	34	2
171	172	3
248	248	5
75	76	1
73	74	1
42	42	6
220	220	2
205	205	2
221	222	2
213	215	1
52	66	1
194	195	1
178	201	2
156	159	1
240	240	2
47	47	3
33	112	1
193	196	1
206	206	1
95	95	2
210	210	3
7	14	2
89	91	1
38	39	4
46	47	2
203	203	2
170	170	5
232	232	3
10	11	3
33	33	3
167	167	3
244	244	2
80	104	1
104	185	1
17	18	1
38	58	1
172	174	1
213	246	1
30	38	1
69	69	4
171	191	1
230	230	3
46	62	1
196	196	3
14	14	6
34	34	2
188	188	3
227	227	1
96	96	1
218	218	3
169	169	1
185	185	2
179	179	3
142	226	3
109	109	6
32	68	1
186	186	3
217	234	2
11	17	1
233	233	4
113	116	1
197	197	1
50	51	2
70	70	4
174	174	1
88	96	1
48	67	1
86	235	1
241	241	5
242	246	1
157	158	1
70	71	1
0	227	1
115	115	6
226	226	2
14	53	1
171	171	2
15	15	4
225	225	1
164	174	1
25	41	1
155	182	1
152	153	1
176	176	2
111	111	3
152	152	1
114	121	1
28	28	3
155	155	1
16	22	2
236	239	2
79	82	1
20	43	1
114	114	1
46	46	4
147	147	2
115	116	4
208	225	1
163	167	1
41	41	2
30	30	2
12	112	1
184	187	1
182	183	2
229	229	1
194	194	1
190	191	2
18	18	2
119	119	3
218	219	1
194	208	1
77	78	2
90	144	1
162	183	1
54	90	1
25	52	1
97	105	1
209	209	3
162	162	2
199	199	3
52	52	3
57	80	1
196	197	1
110	110	1
89	92	2
30	44	1
117	117	2
103	103	1
84	118	1
59	60	2
87	87	4
163	164	1
32	32	4
183	183	3
195	195	1
177	190	2
159	236	1
32	64	1
104	107	1
35	49	2
211	211	2
100	108	2
88	88	2
60	60	2
234	234	2
24	24	1
15	36	1
64	64	2
203	204	1
156	175	1
48	68	1
45	45	1
32	48	1
79	96	2
47	58	2
35	210	2
168	183	2
41	42	1
71	72	4
55	56	1
106	111	1
166	168	1
154	154	1
56	70	1
185	186	3
53	53	2
237	245	1
40	40	1
216	216	3
113	115	1
181	181	2
0	41	1
26	27	1
41	44	1
79	80	2
168	201	1
76	82	2
60	61	2
74	77	1
97	113	1
229	237	1
17	22	1
180	180	2
182	182	1
217	217	3
72	74	2
20	20	1
176	177	1
17	26	1
57	85	1
61	61	1
46	79	1
102	102	2
115	145	1
191	201	1
78	78	2
15	19	1
210	211	2
43	53	1
241	245	1
111	113	1
57	57	3
210	244	1
83	84	1
193	214	1
185	221	1
52	64	1
245	245	2
202	203	1
26	165	1
172	183	1
154	155	1
166	166	1
35	37	2
161	161	2
117	118	2
59	61	1
232	233	1
185	204	1
92	92	2
209	211	1
58	68	1
25	38	1
173	191	1
53	54	2
235	240	1
39	47	1
39	39	1
86	86	1
52	100	1
92	115	1
47	227	1
15	44	1
99	107	1
113	114	3
78	232	1
214	222	2
239	240	1
47	59	1
211	212	1
103	104	1
1	86	1
241	242	1
23	23	3
87	89	1
149	149	3
228	234	2
226	245	1
83	83	1
191	191	2
26	26	1
37	38	1
164	165	3
226	228	1
34	52	1
37	37	1
151	154	1
49	50	1
19	45	1
234	235	1
224	224	3
172	178	1
111	231	1
10	10	2
24	25	1
38	38	1
165	167	1
91	92	1
168	169	1
97	99	1
51	52	1
44	54	1
160	160	2
19	24	1
181	186	1
96	98	1
24	31	1
43	43	1
82	106	1
198	218	1
172	213	1
226	227	2
225	226	1
31	41	1
42	43	1
13	18	1
105	107	1
86	98	1
159	177	1
99	99	1
183	185	1
99	101	1
56	56	1
212	212	1
169	170	1
48	48	1
47	57	1
1	26	1
234	236	1
247	247	1
157	157	1
11	27	1
208	211	1
195	196	1
228	229	1
16	234	1
198	216	1
100	100	1
54	64	1
188	198	1
149	150	1
35	35	1
1	1	1
219	221	1
51	76	1
161	166	1
220	233	1
103	106	1
184	226	1
197	219	1
12	46	1
207	212	1
184	185	1
197	216	1
12	25	1
81	81	1
181	203	1
91	181	1
20	21	1
