50	51	2
177	177	1
118	119	1
123	123	2
183	183	4
170	171	3
98	150	1
154	154	2
56	65	2
119	120	2
183	184	1
126	126	3
155	156	1
156	167	1
43	43	5
160	180	1
123	124	1
63	107	1
44	44	3
0	34	1
10	10	3
119	119	2
87	87	1
20	21	5
88	88	3
20	33	1
161	161	1
9	10	5
135	136	1
146	148	1
162	162	2
26	28	2
41	41	4
152	152	1
163	163	5
52	196	1
12	12	2
185	185	2
15	15	4
186	186	3
13	14	3
39	40	2
131	131	2
120	120	3
29	29	5
155	179	2
167	167	2
118	118	1
16	17	4
119	142	3
7	26	1
105	105	1
76	78	1
18	19	1
12	13	2
72	72	1
35	35	5
162	179	1
19	19	1
140	140	3
184	184	7
134	134	3
193	194	2
45	45	6
11	33	1
172	172	2
102	103	1
5	8	1
26	26	1
22	22	1
69	69	2
46	46	5
70	71	1
53	54	2
90	90	2
21	21	2
71	75	1
102	105	1
159	159	1
26	27	1
106	106	3
16	18	1
3	4	1
177	193	2
129	129	2
181	182	1
151	152	3
163	165	1
145	145	1
138	138	2
40	73	1
135	135	2
158	158	5
63	130	1
190	190	5
74	74	2
143	143	3
46	54	1
160	187	1
122	140	1
181	181	2
155	155	1
24	24	6
52	52	4
142	142	3
11	12	3
0	9	1
114	114	2
72	73	1
156	156	6
141	141	4
53	53	3
37	37	1
117	117	2
132	133	2
171	171	4
58	58	2
8	8	2
66	67	1
95	97	1
17	18	1
143	157	1
109	111	1
49	50	1
196	196	1
168	169	1
39	45	1
182	182	3
194	194	7
172	177	1
136	139	1
2	2	2
59	59	1
174	175	1
192	192	2
17	17	3
160	160	1
4	4	3
9	9	3
57	58	1
139	140	1
26	31	1
28	30	1
38	38	3
191	191	2
116	116	2
14	14	3
188	189	2
85	86	1
33	33	3
23	23	4
18	18	2
157	157	3
188	188	4
0	4	1
7	7	4
0	3	1
136	136	1
133	133	3
153	153	1
57	57	2
67	67	2
130	130	3
54	55	1
175	176	2
25	25	2
58	59	1
161	165	1
36	36	5
144	145	1
0	0	1
104	104	1
151	151	1
193	193	2
123	152	1
192	193	2
44	45	1
124	124	2
169	176	1
17	36	1
166	169	1
13	13	2
122	122	1
71	71	1
87	135	1
42	43	1
77	77	1
176	176	1
107	107	1
27	27	3
23	24	1
34	34	2
173	177	3
78	83	1
165	167	1
38	42	1
31	31	5
100	100	3
127	127	2
196	197	1
47	48	1
14	36	1
127	140	1
4	9	1
82	85	1
20	20	2
47	47	1
124	140	1
147	147	2
65	65	3
165	165	1
32	32	1
68	68	2
6	6	1
107	108	2
55	55	1
178	178	1
55	56	2
60	66	1
97	107	1
22	23	1
50	50	1
116	117	1
128	128	2
141	185	1
10	11	1
62	62	1
115	115	1
11	13	1
169	169	1
180	180	1
158	185	1
70	70	2
132	154	1
53	193	1
139	139	2
179	181	1
144	144	1
125	125	2
148	159	1
140	141	1
143	146	1
98	142	1
161	162	1
142	186	1
12	33	1
157	158	2
6	8	1
77	78	1
33	35	1
11	11	1
5	5	2
143	148	1
11	37	1
145	185	1
71	101	1
51	51	2
83	84	1
121	121	1
97	97	1
63	63	1
30	31	2
149	149	1
29	30	1
132	132	2
195	196	1
28	28	2
168	178	1
147	148	1
20	24	1
157	166	1
112	112	1
29	31	1
135	183	1
71	72	1
40	40	1
137	138	1
166	174	1
27	34	1
197	197	1
99	99	1
9	15	1
113	113	1
