128	146	2
137	137	5
164	165	2
108	108	1
123	123	3
118	119	6
104	104	6
49	49	8
46	47	3
144	157	2
13	13	2
156	156	3
19	23	1
116	140	1
91	93	1
37	40	1
112	146	1
42	42	5
15	15	1
18	20	3
39	40	6
85	85	1
64	67	1
159	159	4
41	169	1
73	73	1
16	19	1
10	23	1
101	101	3
99	99	5
131	131	4
144	158	2
111	111	3
153	153	1
46	49	1
137	169	1
150	158	1
163	163	5
41	41	1
119	119	5
33	33	2
90	90	4
124	164	1
127	127	2
155	155	2
157	157	4
106	107	1
164	164	6
12	122	1
18	19	2
39	109	1
11	12	6
158	158	5
14	14	10
25	25	2
50	50	7
143	144	1
91	91	2
65	68	1
8	9	1
12	12	4
105	105	1
6	6	3
42	43	1
77	78	3
125	126	6
62	85	2
126	126	3
62	62	1
144	168	1
3	3	6
19	19	3
135	136	1
0	6	2
46	46	4
144	144	3
12	49	1
147	149	1
35	35	6
150	150	2
38	45	1
69	69	2
117	168	3
36	36	4
165	165	1
103	104	2
96	96	2
132	145	1
120	136	1
102	102	3
143	143	2
136	136	2
106	125	1
100	111	1
7	7	2
48	49	2
63	63	3
13	14	2
16	47	2
14	29	2
122	132	1
8	134	1
51	54	1
28	28	1
44	45	2
38	38	5
74	75	3
14	17	1
22	22	4
89	89	3
64	64	3
93	93	1
44	44	3
39	58	1
39	39	3
75	76	1
72	75	1
47	87	1
133	133	4
161	161	3
146	146	2
13	138	2
7	139	1
167	167	4
170	170	2
27	27	4
117	124	1
24	24	3
66	66	3
120	121	1
154	154	2
166	166	3
17	17	4
98	100	1
79	79	3
36	108	1
129	129	1
53	53	1
116	116	2
7	20	1
90	97	1
152	167	2
74	74	4
133	153	2
4	5	4
58	58	1
113	114	4
147	169	1
11	11	3
140	140	2
135	137	1
120	120	3
151	161	1
14	43	1
72	73	1
57	57	3
86	86	1
92	92	4
0	11	1
162	162	3
83	83	2
37	37	6
114	114	2
15	51	1
108	126	1
14	15	1
145	165	1
11	47	1
162	163	2
84	84	1
169	170	1
139	139	5
14	27	1
42	160	2
145	146	1
70	70	1
128	128	5
127	129	1
100	101	1
12	13	1
130	131	1
120	122	2
9	9	3
108	109	2
151	151	2
48	58	1
54	54	1
163	164	2
148	148	2
100	103	1
138	139	1
41	158	1
8	8	3
16	17	1
93	120	1
68	68	1
54	157	1
121	121	1
120	152	1
26	26	5
146	165	1
46	58	1
58	67	2
98	98	6
88	134	1
116	117	1
107	109	2
7	19	1
106	132	1
34	35	1
43	43	2
65	66	2
117	122	1
101	107	2
10	10	3
18	18	1
21	21	3
1	11	1
41	43	1
55	55	1
18	48	1
17	18	1
93	95	1
127	131	1
132	140	1
148	149	1
166	169	1
110	110	3
72	117	1
2	3	2
125	149	2
166	167	1
139	162	1
45	45	4
169	169	2
160	160	3
40	40	2
168	170	2
139	140	3
92	96	1
6	150	1
135	140	1
168	168	1
19	20	1
122	125	1
1	1	1
118	118	2
78	78	3
0	0	2
115	115	2
20	22	1
25	74	1
20	20	2
117	117	1
63	66	1
52	52	2
131	132	3
142	142	2
132	144	1
123	124	1
47	47	1
165	166	1
145	145	4
125	125	1
56	76	1
40	170	1
57	62	1
81	94	1
26	27	1
82	83	2
35	37	1
149	149	1
123	166	1
17	24	2
103	103	2
65	105	1
133	152	1
77	80	1
117	152	1
90	108	1
79	95	2
107	107	3
160	166	1
124	125	1
116	119	2
105	136	1
152	152	1
113	113	1
75	75	1
3	139	1
16	16	2
34	34	4
134	135	1
139	142	2
154	163	1
56	56	1
45	46	1
50	55	2
99	100	1
161	162	2
106	106	1
101	140	1
132	133	1
98	114	1
86	126	1
168	169	1
146	147	1
136	150	1
116	136	1
106	130	1
130	130	1
3	16	1
80	80	1
66	67	1
134	134	2
93	94	1
119	143	1
5	5	1
77	77	1
158	160	1
3	4	1
157	164	1
89	97	1
115	143	1
71	71	2
107	108	1
125	134	1
86	113	1
46	48	1
85	87	1
63	65	1
78	79	1
2	2	1
91	92	1
18	119	1
94	94	1
81	81	2
50	54	1
95	95	1
112	112	1
119	124	1
161	163	1
144	145	1
135	135	4
51	51	1
67	67	1
138	140	1
153	160	1
76	77	1
96	115	2
46	70	1
52	62	1
82	85	1
4	4	1
50	73	1
15	16	2
62	63	1
63	64	1
6	7	1
27	85	1
9	10	1
6	25	1
48	48	1
1	25	1
126	127	1
73	106	1
23	23	1
55	56	1
7	8	1
2	16	1
100	102	1
110	111	1
124	124	1
154	155	1
65	65	1
100	131	1
55	62	1
66	70	1
73	74	1
138	138	1
125	166	1
122	122	1
67	96	1
