51	53	3
95	95	8
129	129	9
21	27	1
51	51	5
124	124	10
66	66	5
128	128	8
50	50	4
42	42	5
105	105	9
88	88	14
53	53	10
88	91	2
55	55	4
15	17	2
106	106	6
132	132	2
71	71	8
77	77	5
104	104	10
25	25	4
120	120	13
126	128	1
54	54	16
67	92	2
86	88	1
49	55	1
74	82	1
4	4	7
87	87	2
32	33	1
79	81	4
112	112	4
48	48	7
110	110	8
68	68	4
70	70	5
30	30	3
27	27	4
14	14	9
100	100	7
118	118	14
73	74	5
15	40	1
105	106	1
131	131	12
79	79	9
105	108	1
104	127	1
106	107	1
88	92	1
116	116	11
5	5	5
115	132	1
84	84	5
89	89	7
33	33	8
3	3	7
58	59	3
69	69	9
10	10	3
104	106	1
82	128	1
3	4	3
62	63	2
97	97	3
47	80	1
67	68	4
107	108	1
43	43	8
41	41	6
28	29	1
29	52	1
78	78	5
12	12	3
98	98	9
57	57	11
81	82	2
81	81	3
0	0	4
22	40	1
40	40	5
83	85	3
81	83	1
93	93	7
16	16	2
77	78	6
90	90	7
108	108	11
23	23	2
57	62	1
64	66	1
74	74	4
7	7	3
24	24	4
73	73	3
125	125	9
51	52	2
9	10	1
4	5	2
47	47	13
26	27	1
107	107	6
123	123	7
56	56	10
46	46	7
102	104	2
89	90	2
25	60	1
47	49	1
80	80	2
80	81	2
47	121	2
121	121	16
101	103	3
83	83	6
102	106	2
62	117	2
115	116	2
111	112	1
3	6	2
22	23	3
49	49	8
42	43	2
58	64	1
11	79	1
38	38	3
130	130	10
114	114	7
66	108	2
19	19	3
114	118	1
21	22	7
26	114	1
22	22	3
109	109	11
93	94	1
59	59	2
78	86	1
34	40	1
29	30	6
79	80	1
119	119	7
122	122	8
131	132	6
45	45	5
103	103	6
11	11	3
8	9	3
133	133	7
1	1	2
70	76	2
27	46	1
102	102	7
128	130	1
127	127	12
14	15	3
4	6	1
115	115	15
85	85	7
115	128	1
32	113	1
97	98	1
99	99	8
71	73	1
38	41	1
1	76	1
22	24	2
37	41	2
101	101	6
113	114	1
102	125	1
117	117	6
28	30	1
9	9	1
129	131	1
79	88	1
69	71	2
61	61	5
64	64	4
108	111	2
114	116	1
87	89	1
117	118	3
32	34	3
62	62	8
94	96	2
44	44	8
58	63	1
72	84	1
110	111	1
52	53	3
23	24	4
49	51	1
72	73	1
124	125	1
52	52	5
128	129	3
63	63	4
107	110	2
71	90	1
104	131	1
97	102	1
8	8	4
50	52	1
26	26	4
18	20	1
49	122	1
90	91	2
60	60	5
44	46	1
86	86	3
43	45	1
126	126	3
43	100	1
68	69	2
72	72	5
50	53	1
27	28	1
73	75	1
65	65	3
82	82	6
77	81	2
31	31	2
96	97	1
58	58	2
76	76	6
109	110	2
56	110	1
78	79	2
13	13	2
72	74	2
28	28	6
40	44	3
73	89	2
111	111	5
18	21	1
116	117	1
92	92	4
59	97	1
113	113	9
67	67	5
39	39	2
123	133	1
47	48	1
77	133	1
96	105	1
33	57	1
28	108	1
60	62	2
29	29	2
69	70	2
84	85	3
96	96	2
20	22	2
19	58	2
52	110	1
25	26	3
15	15	4
53	70	1
58	60	3
2	14	1
29	33	1
64	65	2
47	77	1
99	100	1
126	127	3
45	47	2
91	91	7
121	125	1
113	122	1
80	102	1
48	49	1
71	103	1
17	20	1
69	76	2
53	54	3
78	82	1
94	94	4
59	62	1
75	83	1
65	84	1
129	130	1
70	72	1
15	28	1
6	6	4
7	9	1
2	3	1
85	88	2
41	58	1
20	20	3
5	6	2
68	79	1
44	45	2
88	90	1
51	76	1
65	66	2
60	61	2
100	102	1
39	41	1
75	76	1
15	32	1
95	108	1
85	89	1
23	42	1
18	18	2
39	63	1
91	96	2
45	46	1
76	77	1
78	81	1
26	113	1
91	98	1
18	19	2
46	116	1
43	63	1
69	107	1
118	119	1
61	62	1
1	2	1
83	84	1
61	74	1
66	85	1
91	92	1
28	47	1
106	108	1
27	59	1
71	102	1
66	93	2
2	2	1
49	64	1
34	34	1
3	5	1
26	38	2
59	60	1
47	94	1
112	121	1
20	21	1
75	75	3
31	71	1
123	124	2
95	96	1
77	86	1
54	123	1
66	67	1
113	115	1
12	14	2
43	44	1
65	68	1
38	45	1
119	120	1
42	89	1
49	53	1
105	107	1
131	133	1
54	55	2
21	21	1
57	66	1
37	38	1
102	107	1
13	14	1
53	118	1
30	60	1
48	93	1
6	32	1
38	39	1
84	88	1
41	42	1
93	125	1
40	41	1
22	25	1
28	58	1
27	29	1
92	93	1
130	132	1
13	29	1
