56	56	5
63	64	1
99	101	1
120	120	2
100	104	1
132	132	3
90	90	2
83	84	2
84	84	5
29	29	2
52	54	3
87	87	3
4	4	4
35	46	1
9	10	1
5	5	6
101	102	2
63	63	6
109	111	1
108	108	1
80	80	5
127	128	4
15	16	1
77	78	5
79	79	4
111	112	1
85	86	1
122	123	2
73	73	2
44	44	1
74	76	1
81	81	2
64	69	1
48	48	3
105	115	1
91	92	1
43	44	1
20	20	3
27	28	2
86	89	1
24	53	1
101	101	3
100	100	5
12	12	7
44	45	1
14	14	2
130	130	2
124	125	2
64	64	2
74	74	6
70	70	2
55	56	1
55	57	1
106	106	2
121	121	2
122	122	5
72	73	1
54	55	3
38	38	1
72	72	6
70	71	1
124	124	3
8	9	1
118	118	1
6	6	5
35	38	2
16	16	2
69	69	3
94	94	3
3	5	1
91	91	2
47	47	5
32	32	1
76	76	3
102	102	3
12	13	2
107	108	1
83	85	1
106	107	3
42	43	1
62	70	2
8	8	5
35	35	1
66	66	3
25	26	1
60	61	1
129	133	2
50	50	3
76	79	2
31	32	2
62	63	2
85	85	4
79	82	1
61	61	4
119	119	3
131	131	1
52	52	3
77	77	5
49	50	3
22	22	1
131	132	2
3	3	3
69	71	1
31	31	1
119	120	1
104	104	3
43	43	3
132	133	3
73	74	1
45	45	5
19	21	1
36	36	1
50	60	1
7	7	1
38	53	1
30	30	4
135	135	1
23	24	2
60	60	1
54	54	1
22	24	1
55	55	2
61	94	1
34	34	2
130	131	2
26	53	1
37	37	3
64	92	1
53	53	2
86	91	1
0	0	1
57	57	1
129	130	1
103	103	2
33	33	1
86	86	4
71	71	3
13	94	1
24	24	1
117	117	1
1	2	1
69	70	1
93	94	1
56	58	1
59	60	1
2	10	1
26	26	1
126	126	2
20	24	1
58	58	3
24	26	1
88	88	1
134	134	1
62	62	2
82	83	1
127	127	2
45	46	1
11	12	2
59	59	2
107	111	1
49	63	1
120	121	1
108	109	2
112	112	1
49	53	1
13	15	1
46	47	1
95	95	1
82	82	3
5	21	1
113	113	1
29	53	1
86	87	2
30	31	1
23	23	4
18	18	1
83	83	2
78	79	1
1	4	2
56	69	1
64	68	1
114	115	1
56	68	1
65	65	1
53	54	1
22	23	2
115	115	2
96	96	1
1	5	1
111	111	1
13	13	4
50	71	2
23	44	1
99	99	1
68	68	1
110	110	1
7	119	1
133	133	1
16	18	1
129	129	1
68	70	1
15	15	2
85	87	1
49	49	2
126	127	1
52	53	2
97	97	1
78	84	1
71	98	1
84	85	1
1	3	1
6	7	1
10	109	1
128	128	2
48	50	1
21	21	1
107	107	1
115	116	1
10	10	1
114	114	1
92	92	1
47	108	1
75	80	1
128	129	1
