15	41	1
125	125	1
123	124	1
1	30	3
61	62	1
83	84	2
140	140	4
38	38	2
120	125	1
16	32	1
25	25	5
121	121	1
117	117	1
1	38	2
83	85	1
32	32	2
30	101	1
131	131	2
128	130	1
80	80	2
58	58	5
35	35	2
68	68	2
63	63	2
119	120	2
11	96	1
30	30	4
85	85	1
2	67	2
122	123	1
8	8	2
16	16	3
53	53	3
93	119	1
129	130	4
104	134	1
21	21	2
41	41	2
113	113	4
54	95	1
19	19	1
10	10	3
20	20	3
74	133	1
136	136	4
99	99	4
135	137	3
17	29	1
35	36	2
67	71	1
51	62	1
56	56	3
49	49	3
62	63	3
128	128	2
108	108	1
18	28	1
32	59	1
64	71	1
33	33	2
3	4	1
84	122	1
42	42	1
97	141	1
144	144	2
40	62	1
102	102	2
97	97	1
87	88	2
57	57	2
129	129	2
61	61	4
134	134	2
77	90	1
138	138	1
47	48	1
116	116	1
54	54	1
137	138	1
141	142	2
50	50	2
60	75	1
102	103	2
105	106	1
93	95	1
82	112	1
91	91	4
39	113	1
135	135	1
132	132	1
90	90	2
70	70	1
8	9	1
109	111	1
70	75	1
23	36	1
128	129	3
106	108	1
60	77	2
73	73	4
28	28	1
29	29	3
133	134	1
63	79	1
4	4	5
133	133	1
120	120	1
57	59	1
62	62	1
117	134	3
31	58	1
37	38	1
78	78	1
2	2	4
65	65	1
71	82	1
122	122	2
111	113	1
143	143	3
84	85	2
15	15	4
100	100	2
14	14	1
123	123	1
34	34	4
97	98	1
19	24	3
59	87	1
79	79	1
36	65	1
53	109	1
6	6	1
139	140	1
139	139	2
37	65	1
21	29	1
47	47	2
115	138	1
17	17	5
75	82	1
104	140	2
1	1	2
110	110	1
76	77	1
113	133	1
71	71	2
122	134	1
24	113	1
57	99	1
71	73	1
70	133	2
145	145	2
13	13	1
142	142	2
5	5	2
64	86	1
125	126	2
105	107	1
69	109	1
127	127	1
36	36	1
31	32	1
116	136	1
51	52	1
54	55	1
26	27	1
21	65	1
60	65	1
127	130	3
104	117	1
26	26	3
27	27	4
83	83	1
1	29	1
135	138	1
43	43	2
8	19	1
91	93	1
90	92	1
126	138	1
39	79	1
61	64	1
112	113	1
8	20	1
73	74	1
119	137	1
96	96	1
113	119	1
102	140	1
85	86	1
115	115	2
82	90	1
22	22	1
3	3	1
64	64	1
16	34	1
11	27	1
33	34	1
0	2	1
124	124	1
39	42	1
89	89	4
74	74	1
145	146	1
33	62	1
86	86	2
118	140	1
13	50	1
82	85	1
14	35	1
58	66	1
102	128	1
130	131	1
113	114	1
35	42	1
126	141	1
107	131	1
98	107	1
60	60	1
37	40	1
106	133	1
78	79	1
137	137	2
142	143	1
71	79	1
43	47	1
128	135	1
50	76	1
94	94	1
52	52	1
98	98	1
84	84	1
126	126	1
37	37	1
86	92	1
130	130	1
65	66	1
117	136	1
38	41	1
35	68	1
9	9	1
23	34	1
88	89	1
