25	25	12
74	74	4
15	15	14
242	242	5
109	109	4
10	10	14
57	57	8
47	47	6
10	15	2
156	157	1
26	26	8
45	45	4
119	120	3
186	186	10
234	234	12
201	201	17
51	51	16
179	185	3
12	12	7
225	225	4
245	245	5
175	212	2
9	10	3
228	228	9
155	155	8
32	47	1
89	89	2
36	36	7
9	9	6
95	100	2
12	13	1
194	194	9
6	7	5
197	197	7
182	182	8
225	237	1
114	114	7
221	222	4
11	17	1
6	6	6
158	158	4
236	237	2
92	92	9
3	5	2
50	51	1
164	165	1
241	241	12
59	59	3
170	171	3
164	164	4
205	205	12
113	113	6
226	226	6
111	111	8
101	109	1
68	75	1
43	43	7
235	235	6
184	207	2
244	244	8
178	178	5
196	214	2
7	245	1
214	214	4
237	237	4
55	230	1
172	172	5
234	247	1
18	18	5
219	220	4
239	239	3
220	231	1
1	1	4
65	65	7
173	173	8
84	84	2
231	231	11
154	154	9
26	28	1
3	3	6
145	165	1
2	2	7
90	90	7
211	212	4
182	183	1
219	219	3
43	44	4
232	233	1
51	52	5
212	213	1
19	19	10
191	193	1
179	197	1
28	28	13
168	168	7
86	86	2
152	181	1
213	213	7
172	173	3
38	38	10
11	11	2
12	16	2
185	192	1
204	204	14
169	170	2
107	107	7
200	215	1
87	119	1
112	113	1
181	201	1
44	53	1
59	60	3
88	88	4
57	79	1
40	40	6
24	24	6
165	179	2
3	246	3
229	230	7
73	73	2
24	25	4
101	101	3
62	76	1
44	44	8
117	117	5
27	27	10
48	51	1
175	175	10
50	50	6
30	31	4
233	233	5
49	60	1
110	243	1
65	66	1
201	213	1
19	25	2
118	170	1
200	200	6
110	111	4
100	100	6
52	53	5
91	91	6
95	95	6
52	68	2
46	51	2
33	33	9
222	224	1
227	227	10
167	167	9
160	160	9
210	210	4
150	150	5
195	195	8
156	156	8
37	37	7
152	217	1
152	152	4
29	30	2
94	94	7
77	79	1
80	80	4
53	59	1
80	81	1
185	185	4
39	39	8
115	115	4
214	215	1
83	86	1
67	67	9
175	176	1
146	213	3
179	179	4
22	22	6
61	62	2
188	188	6
28	29	1
162	162	9
185	186	2
116	116	6
70	73	1
21	22	2
34	34	8
207	207	10
220	220	3
77	77	5
41	41	9
62	82	2
223	223	4
68	69	5
172	199	2
169	172	2
66	71	1
93	93	5
192	194	2
80	102	2
97	97	3
67	70	1
235	248	1
106	108	2
88	89	3
185	210	1
31	32	4
184	191	1
187	211	1
79	79	3
235	244	1
102	103	2
1	229	2
153	154	4
26	27	3
181	185	1
60	60	3
7	212	1
214	216	2
209	211	1
66	67	4
96	96	5
74	88	1
164	166	2
176	176	4
206	206	5
208	211	2
234	235	1
110	110	7
171	172	2
213	214	3
15	16	2
191	191	3
93	168	1
20	20	8
161	161	5
221	221	3
180	180	5
85	87	1
202	202	9
53	53	10
245	246	2
224	225	3
176	179	1
78	162	1
21	21	12
166	166	11
212	227	1
170	170	3
208	208	9
55	55	9
183	183	10
60	65	2
34	235	1
241	244	1
229	229	5
224	224	4
31	31	4
162	167	1
61	61	3
191	192	1
78	78	6
181	181	6
198	198	3
91	93	2
117	119	2
70	76	1
14	14	4
168	169	5
177	177	4
161	162	3
217	217	4
236	240	1
199	199	3
102	115	1
243	243	2
202	203	1
184	185	4
6	249	1
32	32	2
166	197	1
49	59	1
224	231	1
165	165	4
4	4	8
48	48	12
81	115	3
39	40	1
49	49	3
169	171	1
117	118	5
231	232	2
218	231	2
211	211	3
239	242	1
93	100	2
25	26	3
0	0	2
157	157	4
247	248	2
75	75	4
157	158	1
54	54	8
179	180	4
202	230	1
30	30	10
81	82	3
62	62	3
29	29	5
1	113	2
230	230	2
61	179	1
223	236	1
17	17	8
11	12	3
91	92	1
103	103	2
189	189	8
237	248	1
145	145	2
159	159	3
7	16	1
208	238	1
170	184	1
16	21	1
189	190	4
185	244	1
184	184	7
49	50	3
197	199	1
154	225	1
241	242	1
188	189	1
19	20	1
150	235	1
212	212	7
167	168	1
94	179	1
97	99	1
188	190	3
190	190	4
179	203	1
42	43	1
198	209	1
46	46	12
17	36	1
37	38	2
246	246	6
49	146	1
118	118	7
62	200	1
176	177	1
44	45	2
160	180	1
36	46	1
99	99	5
78	100	1
98	98	1
16	16	9
57	58	2
236	239	1
218	219	2
213	233	2
33	35	1
173	174	3
85	85	2
232	239	1
210	211	2
71	74	2
96	98	3
23	23	7
232	232	5
57	77	1
19	24	1
174	174	5
202	245	1
177	183	1
54	55	3
192	193	3
3	19	1
87	101	1
109	110	1
5	12	2
192	195	1
22	23	1
84	85	1
6	246	1
70	70	2
114	115	1
73	74	2
68	68	7
156	180	1
216	217	3
185	196	1
207	212	1
68	208	1
85	93	1
101	117	1
219	224	1
76	76	5
171	171	5
163	163	3
217	218	1
173	179	1
17	112	1
34	35	4
20	179	1
51	63	2
19	22	1
168	186	1
93	95	2
61	65	1
112	112	7
46	109	1
27	31	1
56	56	3
9	229	1
35	37	1
218	218	3
196	197	2
196	196	2
215	215	3
236	236	5
106	107	2
109	111	2
3	6	1
64	64	2
151	151	6
10	11	1
54	226	1
208	214	2
17	18	2
78	80	1
91	231	1
191	195	2
178	179	2
163	213	1
200	201	4
113	115	1
165	167	2
177	178	1
181	186	1
65	70	1
42	78	1
3	4	1
12	19	1
82	83	1
17	20	1
6	36	2
14	27	1
155	162	1
76	77	1
146	147	1
119	119	7
167	173	1
165	166	2
102	102	2
222	222	3
218	221	1
155	156	3
2	154	2
203	204	2
41	42	4
8	8	7
100	101	1
84	109	2
88	90	1
70	237	2
109	113	1
83	83	3
163	164	2
121	121	1
171	174	1
203	230	1
47	55	1
201	224	1
218	226	1
195	197	1
101	102	1
190	191	1
21	32	1
35	153	1
229	244	1
159	193	1
87	87	5
51	67	1
107	111	2
40	73	1
41	68	1
228	235	1
26	32	1
209	212	1
89	91	1
100	110	1
220	221	1
74	89	1
30	151	1
181	182	1
82	82	2
232	242	1
240	248	2
204	228	1
45	150	1
83	85	2
162	165	1
169	169	2
186	187	1
190	192	1
48	87	1
162	166	1
63	211	1
7	211	2
226	227	1
154	155	2
63	63	2
5	5	4
12	159	1
195	196	2
27	38	2
167	181	1
21	36	1
69	69	1
16	220	1
115	116	1
193	194	6
154	156	2
216	216	2
39	45	1
163	178	1
235	236	1
31	160	1
8	9	3
225	226	2
194	195	1
35	35	1
246	248	1
225	235	1
207	213	1
102	106	1
203	212	2
47	65	1
60	61	2
223	244	2
153	195	1
67	68	2
145	150	1
32	54	1
103	104	1
203	203	4
36	40	2
176	182	2
4	7	1
159	160	2
23	25	1
60	69	1
204	229	1
47	85	1
164	175	1
27	54	1
9	11	1
93	112	2
192	216	2
69	70	2
108	108	2
248	249	2
209	209	6
29	31	2
105	106	1
110	114	1
205	206	1
10	117	1
162	163	1
66	66	2
223	235	1
53	93	2
77	78	1
40	41	1
153	153	5
5	246	1
25	226	1
240	240	4
38	50	1
23	159	1
6	226	1
241	243	1
51	53	1
47	230	1
2	247	1
236	246	2
168	171	1
156	162	1
48	49	1
72	72	1
213	246	1
166	170	1
5	67	1
89	90	1
120	120	1
243	244	1
6	8	1
185	189	1
175	178	1
69	71	2
178	209	1
62	74	1
238	239	1
112	235	1
169	198	1
33	55	1
236	245	1
19	36	1
55	155	1
113	114	2
33	166	1
86	96	1
9	28	1
38	161	1
202	212	1
217	237	1
81	81	3
22	35	1
193	193	3
59	62	1
230	231	1
145	161	1
6	224	1
72	73	1
217	219	2
52	52	1
38	39	2
174	176	1
7	7	2
178	213	2
2	3	2
21	24	1
201	212	1
158	184	1
114	117	1
94	100	1
28	202	1
207	218	1
192	192	1
73	86	1
184	243	1
201	202	1
33	46	1
31	54	1
156	174	1
208	209	3
168	170	1
225	247	1
166	167	1
171	173	1
199	200	2
233	234	2
11	31	1
24	201	1
14	20	1
194	211	1
193	210	1
238	238	2
9	203	1
40	231	1
147	147	2
71	71	2
187	188	3
8	10	1
36	37	1
149	150	1
224	244	1
187	187	2
22	151	1
240	244	1
35	63	1
237	238	1
207	210	1
211	220	1
98	99	1
55	87	1
23	28	1
42	42	1
159	164	2
222	235	1
239	240	1
204	207	1
159	168	1
153	184	1
242	244	1
153	173	1
143	173	1
107	108	1
104	104	1
181	193	1
216	218	1
162	171	1
158	170	1
87	88	1
53	92	1
4	5	1
199	211	1
29	36	1
67	77	1
46	65	1
212	214	1
4	6	1
70	90	1
180	229	1
103	105	1
96	207	1
68	180	1
1	2	1
202	205	1
231	234	1
168	189	1
89	99	1
165	169	1
69	72	1
26	38	1
180	185	1
159	174	1
158	197	1
61	204	1
197	211	1
104	105	1
180	181	1
41	46	1
16	17	1
193	198	1
85	94	1
4	16	1
215	217	1
