15	15	4
169	169	2
41	41	3
114	114	2
66	69	2
64	64	4
106	106	2
19	19	1
42	42	2
133	133	2
32	32	4
112	112	2
143	159	1
103	103	2
10	10	4
60	60	2
20	20	2
4	6	3
42	187	1
194	194	2
180	180	2
65	65	2
26	26	1
115	115	2
157	157	4
52	52	6
140	140	2
151	151	4
13	15	1
109	109	1
184	184	4
13	13	4
189	190	1
131	131	4
39	40	1
49	49	2
152	159	1
125	125	1
19	21	1
67	171	1
100	100	4
96	96	1
63	63	3
178	178	1
3	8	1
62	67	1
5	5	4
53	53	1
24	24	2
50	50	2
7	7	3
136	136	1
168	182	2
94	94	1
18	29	1
88	88	1
150	150	1
104	104	1
48	48	1
124	124	1
26	30	1
5	6	2
102	106	2
45	45	4
33	33	4
113	113	1
47	47	3
187	187	3
20	21	1
172	173	2
72	72	3
28	30	1
35	36	1
106	107	2
8	8	3
179	179	1
137	138	1
167	178	1
18	18	2
186	194	1
35	35	3
167	167	1
62	62	1
123	138	1
154	154	1
159	160	1
189	189	4
69	69	1
60	140	1
12	12	4
116	116	2
4	4	4
25	25	5
23	28	2
141	143	1
30	31	1
46	46	3
164	166	3
139	139	2
79	79	1
177	177	1
134	135	2
14	14	1
118	118	1
67	68	2
173	174	3
171	171	1
178	179	1
47	48	1
168	173	1
40	41	1
146	148	1
149	149	1
172	172	2
59	59	1
111	111	2
70	70	2
126	132	1
39	39	2
148	153	1
5	8	1
42	43	1
40	65	1
175	175	1
118	182	2
174	174	3
34	34	1
141	141	2
83	85	1
126	126	3
93	93	1
31	31	3
37	38	1
36	36	3
142	144	1
186	187	1
11	11	2
88	97	1
37	37	2
70	71	2
9	10	1
176	178	1
80	82	2
179	184	2
66	66	2
12	40	1
187	193	1
40	40	2
15	16	2
54	56	1
121	124	2
44	44	1
5	9	1
107	159	1
146	167	1
74	74	1
162	162	1
148	159	1
27	27	1
43	43	4
193	193	2
54	54	2
21	21	2
3	3	2
121	121	1
51	52	1
16	16	1
31	32	1
184	196	1
27	28	2
132	133	1
17	17	1
55	55	1
61	61	1
186	186	1
2	2	1
191	191	3
131	133	2
151	196	1
117	117	3
22	22	2
132	132	1
183	183	1
61	62	1
165	168	1
161	181	1
25	29	1
123	123	1
2	191	1
78	78	1
140	141	1
40	62	1
178	185	1
144	144	1
192	192	1
76	77	1
145	145	1
81	84	2
28	31	1
137	137	1
170	170	1
134	134	1
81	82	1
12	187	2
1	35	1
111	130	2
57	57	1
107	108	1
126	185	1
196	196	1
122	122	1
177	178	1
84	84	1
48	49	1
168	168	1
139	140	2
85	85	1
86	87	1
32	33	1
20	31	1
185	185	1
121	122	1
142	143	1
10	150	1
159	159	1
117	118	1
193	194	1
190	192	1
8	9	1
182	183	1
104	105	1
73	73	2
22	30	1
87	87	1
185	186	1
142	142	2
23	23	1
151	152	1
35	67	1
29	29	1
75	93	1
148	148	1
40	43	1
