102	123	2
12	127	1
126	131	1
5	5	5
83	103	1
23	23	1
54	54	2
138	139	1
106	113	1
114	114	2
43	45	1
4	13	1
142	146	2
72	72	3
109	109	5
150	150	4
101	113	1
43	43	1
104	104	1
4	4	3
75	86	1
49	49	2
62	63	2
16	16	2
37	37	2
29	33	1
44	46	1
116	116	4
57	57	2
133	133	1
136	136	3
15	55	1
12	12	2
91	95	1
125	125	1
12	13	1
83	83	2
110	110	1
72	73	2
86	87	1
42	42	3
61	61	1
144	144	3
142	142	2
8	10	2
64	64	2
103	103	1
25	25	3
66	66	2
112	114	1
149	149	2
53	118	3
41	41	3
108	108	1
145	145	2
28	28	3
50	50	2
79	80	1
18	18	1
115	115	3
100	100	1
8	8	2
21	45	2
119	119	1
80	118	1
63	66	1
10	125	1
54	57	1
75	75	3
62	116	1
6	7	1
15	16	2
94	94	1
102	102	1
46	46	1
73	73	1
96	96	1
132	132	2
33	33	3
15	15	2
129	131	1
21	21	2
151	153	1
48	53	1
30	30	1
20	44	1
130	148	1
34	34	1
134	149	1
10	132	1
81	115	1
80	80	1
26	27	2
99	99	1
39	39	2
97	97	1
87	87	1
126	126	1
130	133	1
11	12	3
6	6	2
127	128	1
124	137	1
139	139	2
144	146	1
124	124	1
56	125	1
92	95	2
55	55	2
139	140	1
70	100	1
90	91	1
153	154	2
49	53	1
53	73	3
141	141	3
38	43	1
67	67	2
75	76	2
130	132	1
153	153	1
32	32	1
137	137	4
83	86	2
45	46	1
152	152	2
33	35	1
43	44	1
7	7	1
85	119	1
145	146	2
53	54	1
79	84	1
87	88	1
26	32	2
81	118	1
101	122	1
20	20	1
123	123	1
34	35	1
98	98	1
11	11	1
27	28	3
130	130	1
64	108	1
86	86	2
73	76	1
31	31	1
79	79	2
73	84	1
70	70	1
77	108	1
129	130	1
5	8	1
120	120	2
24	39	1
121	121	1
131	133	1
10	19	1
13	52	2
24	24	2
112	112	1
123	124	1
107	107	1
118	119	1
128	134	1
17	17	1
9	9	1
29	116	1
11	17	1
81	82	1
6	46	1
151	151	1
82	83	1
5	22	1
13	15	1
38	39	1
14	14	1
19	19	1
88	93	1
123	138	1
5	7	1
154	154	1
47	48	1
13	13	1
69	69	1
51	52	1
38	42	1
