64	64	4
154	154	3
73	76	2
70	70	5
86	87	2
83	83	3
32	32	3
151	152	1
141	141	5
20	20	1
136	136	2
38	39	2
102	102	2
29	29	2
116	121	1
62	86	1
113	115	1
87	88	1
110	113	2
47	47	3
147	148	2
4	5	1
94	94	2
72	72	3
100	123	1
41	52	1
114	114	2
7	8	4
57	57	2
132	132	3
48	49	3
146	146	3
43	43	2
152	152	5
119	119	2
112	112	4
93	93	3
135	135	3
18	151	1
108	108	3
38	38	8
53	53	5
142	146	1
145	145	1
113	113	6
138	138	3
104	105	1
87	87	6
105	113	1
147	147	2
20	21	2
39	153	1
45	45	2
31	31	2
6	8	1
127	127	1
148	148	2
117	117	4
45	72	2
126	126	2
77	78	3
52	100	1
88	88	2
5	5	2
67	76	1
56	97	2
23	23	1
111	117	1
123	129	1
30	30	3
150	151	1
13	15	3
107	114	1
11	11	2
96	96	1
150	150	3
38	126	1
130	130	3
42	42	2
40	129	2
82	82	3
148	149	1
46	46	2
77	77	3
69	69	3
121	122	1
24	24	3
65	65	6
39	39	5
86	86	1
36	36	5
151	151	4
116	117	1
7	7	1
75	75	4
15	16	2
73	73	2
101	101	1
128	128	3
22	22	2
14	14	2
110	111	2
47	152	1
137	137	1
52	74	1
74	87	1
81	107	1
104	104	4
95	95	1
109	109	3
105	105	2
133	133	2
32	33	2
95	99	1
37	37	1
107	107	2
81	81	2
28	28	3
69	70	2
18	18	1
149	149	3
38	41	1
12	18	1
38	128	1
153	153	2
71	71	2
14	95	1
71	72	1
21	21	2
41	41	4
119	134	1
116	116	3
52	52	1
147	150	1
120	122	1
2	2	3
19	19	4
144	144	2
8	8	2
92	92	2
45	46	1
57	97	1
86	102	1
53	54	2
33	147	1
15	15	3
87	93	1
70	99	1
67	67	2
48	48	1
66	66	3
10	35	1
123	128	1
99	100	1
16	24	2
80	85	1
12	32	1
115	125	1
103	114	1
49	51	1
13	13	2
118	118	2
38	40	1
40	40	3
67	69	1
67	68	1
98	98	4
132	133	1
103	104	1
51	97	2
117	118	1
63	64	1
49	82	1
37	38	2
149	151	1
131	132	1
3	121	1
96	97	1
125	125	1
12	12	1
4	41	1
36	42	1
68	68	3
48	129	1
99	99	1
17	17	2
30	108	1
26	32	1
46	49	1
82	83	1
79	79	3
121	121	1
28	29	1
49	49	2
100	100	2
23	24	1
129	131	1
5	6	2
31	34	1
96	99	1
136	137	2
30	96	1
142	142	1
25	28	1
22	23	1
35	36	1
145	148	2
65	66	1
86	88	1
114	122	1
19	20	1
117	122	1
4	4	2
55	55	1
83	84	1
80	80	1
138	147	2
54	54	1
107	109	1
135	150	1
25	26	1
25	25	1
3	38	1
49	77	1
79	109	1
35	35	1
45	71	1
16	16	1
18	19	1
8	25	1
81	83	1
10	10	1
38	130	1
129	129	1
134	150	1
62	63	1
40	47	1
21	23	1
42	43	1
8	81	1
10	11	1
49	133	1
141	142	1
113	122	1
129	130	1
107	118	1
127	128	1
