11	12	1
78	78	2
18	72	1
103	104	1
89	89	2
133	140	1
78	79	1
81	81	1
28	28	1
8	8	2
52	53	1
111	139	1
156	158	1
114	114	1
59	59	2
172	184	1
121	122	2
157	170	2
86	127	1
166	166	2
53	53	1
10	151	1
100	100	4
169	169	2
186	186	2
163	163	2
5	5	2
2	2	4
36	38	1
87	93	1
1	1	2
3	10	3
181	181	1
84	106	2
145	145	1
152	152	2
18	18	2
159	159	1
107	107	1
130	171	1
168	168	2
149	151	1
76	76	1
6	6	6
174	178	1
162	187	1
101	101	2
154	154	1
42	43	1
157	157	2
155	155	1
16	16	2
104	104	1
38	76	1
109	127	1
105	105	3
57	85	1
102	102	3
111	112	2
96	96	2
94	94	2
166	167	3
173	182	1
135	135	1
138	144	2
75	118	1
43	44	1
33	88	1
148	149	1
97	100	1
149	152	1
4	5	2
188	190	1
57	58	1
82	96	1
170	175	1
121	121	2
95	101	1
132	133	1
141	141	1
145	170	1
88	99	1
73	73	1
36	36	1
183	183	1
150	151	1
77	77	1
185	185	1
122	122	4
57	57	3
146	149	1
153	154	1
88	88	1
39	39	2
144	145	1
177	177	1
114	119	1
86	95	1
26	26	2
13	13	3
48	48	2
25	38	1
124	124	1
76	93	1
178	178	1
183	184	2
142	142	1
108	127	1
135	136	1
187	187	1
138	138	1
189	190	1
58	58	2
90	100	1
4	81	1
96	97	1
43	43	2
15	85	1
92	93	1
58	59	1
126	127	1
108	108	1
60	60	2
56	56	2
117	118	1
116	135	1
123	123	1
87	87	2
190	190	1
109	109	1
177	182	1
32	35	1
74	74	1
164	164	1
130	134	1
84	84	2
70	70	2
10	47	1
176	176	1
47	47	2
111	111	2
167	167	1
75	75	1
4	4	2
188	188	1
10	11	1
32	33	1
8	19	1
24	24	1
46	48	1
93	93	1
119	131	1
182	183	2
143	144	1
63	79	1
173	175	1
72	72	1
38	38	2
130	131	1
153	153	1
66	84	1
73	74	2
118	120	1
184	184	1
66	67	2
171	171	2
163	164	1
129	129	2
130	133	1
3	3	1
21	21	1
41	55	1
32	32	1
107	108	1
144	169	2
16	20	2
98	98	1
101	102	1
91	93	1
167	176	4
62	65	1
147	164	1
160	160	1
166	168	1
133	133	2
189	189	1
12	13	1
48	110	1
109	110	1
139	151	1
71	71	1
185	187	1
12	12	1
20	21	1
146	147	1
160	161	1
113	113	1
183	187	1
151	151	1
22	22	1
36	53	1
126	126	1
22	23	1
85	85	1
7	7	1
45	45	1
120	122	1
166	187	1
39	181	1
147	147	1
29	29	1
42	42	2
87	95	1
38	187	1
40	40	1
106	106	1
86	88	1
167	168	1
59	70	1
