43	44	1
27	27	7
71	126	1
59	59	3
146	148	1
34	34	3
1	1	3
29	31	1
159	159	3
29	32	1
83	84	2
17	17	3
143	163	3
19	83	1
88	88	2
177	177	3
83	83	2
124	143	1
48	48	1
163	163	3
164	164	2
130	130	2
0	0	1
20	20	2
154	171	2
193	194	1
167	167	3
5	8	5
4	12	1
193	193	2
11	11	2
180	181	2
168	168	2
102	103	2
55	60	1
45	45	4
145	145	1
167	169	1
46	46	4
10	11	2
180	180	3
96	96	4
32	32	4
25	26	4
189	189	4
59	62	1
185	185	5
51	51	1
172	181	1
65	66	1
152	153	3
6	180	1
134	134	2
174	176	3
173	173	1
115	115	2
142	142	2
129	129	2
22	22	1
184	184	3
163	164	1
63	65	2
11	45	1
22	35	2
145	146	1
123	123	1
6	48	2
16	16	4
60	60	2
154	154	1
147	147	1
114	114	2
153	153	3
20	21	2
124	124	1
179	183	2
8	8	5
170	191	1
156	158	1
76	77	1
143	144	1
27	29	1
192	192	2
71	71	4
178	178	1
31	31	3
77	79	1
183	183	1
118	121	1
7	7	3
41	42	1
121	153	1
117	118	2
55	55	2
160	170	1
30	30	2
28	28	2
33	33	3
78	80	1
19	30	1
5	5	2
80	83	1
4	6	1
22	23	2
18	18	2
8	187	2
160	169	1
18	19	3
103	106	1
66	66	1
94	94	1
49	49	1
170	171	1
148	177	1
63	64	2
139	139	2
1	27	2
40	41	2
143	143	4
144	149	1
35	36	1
188	188	2
53	129	2
150	150	2
133	133	2
145	159	1
12	13	1
160	160	1
37	37	2
96	99	1
20	85	2
168	169	3
187	196	1
68	68	3
97	97	2
184	185	1
119	119	1
14	14	2
140	140	2
26	27	1
24	33	1
26	26	3
81	82	3
89	89	1
83	86	1
77	77	1
122	122	1
169	170	2
38	38	4
68	78	1
121	154	1
143	145	1
2	3	2
100	134	1
29	30	1
119	120	2
44	44	1
90	90	1
29	70	1
23	25	1
161	161	1
23	180	1
100	100	2
14	65	1
12	197	1
0	1	1
117	120	2
165	176	1
121	121	1
78	78	1
50	50	2
102	102	1
105	105	1
31	32	1
188	193	1
98	110	1
63	63	1
132	133	1
89	186	1
25	25	1
164	165	1
5	101	2
191	191	1
156	157	1
2	4	1
148	150	1
131	132	1
23	23	2
2	28	1
181	181	1
148	187	2
195	195	1
149	150	1
150	151	2
169	180	1
170	170	2
39	40	2
178	185	1
76	76	2
171	171	1
80	80	1
0	2	1
73	73	1
13	47	1
194	194	1
95	114	1
17	20	1
104	104	1
165	173	1
110	111	2
127	128	1
34	35	1
46	47	1
151	151	2
28	34	1
146	146	1
37	100	1
56	56	1
33	38	1
40	40	1
152	152	1
110	143	1
175	180	1
167	170	1
5	28	1
188	191	1
2	2	2
31	46	1
70	72	1
185	186	1
42	43	1
128	128	1
190	192	1
11	12	1
133	134	2
93	101	1
157	157	1
21	22	3
138	138	1
184	194	1
25	43	1
103	103	1
21	21	1
76	79	1
11	72	1
71	121	1
3	3	1
39	39	1
6	189	2
65	65	1
49	50	1
1	2	1
4	46	1
13	31	1
24	26	1
135	135	1
109	109	1
88	90	1
176	178	1
45	49	1
176	176	1
115	177	1
194	195	1
161	164	1
158	170	1
10	10	1
149	177	1
174	174	1
22	88	1
169	183	1
54	54	1
72	72	1
100	101	1
162	164	1
142	143	1
16	36	1
37	38	1
178	188	1
4	4	2
100	102	1
85	86	1
116	120	1
30	31	1
179	191	1
173	175	1
28	29	1
83	89	1
196	196	1
149	149	1
3	4	1
179	182	1
34	36	1
112	196	1
