56	56	7
14	14	2
230	230	4
118	118	5
42	43	2
5	6	1
209	209	1
168	168	1
176	176	4
144	203	1
193	194	2
190	190	1
20	20	4
93	94	1
4	4	4
97	97	4
8	8	5
57	62	1
112	112	3
156	156	4
205	206	1
226	227	1
244	245	1
165	165	11
45	45	2
160	160	3
7	7	3
95	95	6
244	244	5
241	241	9
238	238	4
14	15	1
235	236	1
190	215	2
99	99	4
58	58	1
225	226	1
171	171	4
19	19	6
174	174	2
110	110	7
153	153	2
80	80	3
34	34	5
47	60	1
227	227	4
163	166	1
37	37	3
111	111	4
204	204	4
25	25	2
170	170	5
103	107	2
157	157	1
191	191	2
226	226	5
109	109	6
113	113	6
172	173	1
66	66	1
54	54	1
224	224	3
223	224	1
57	57	4
236	236	4
150	150	3
242	242	4
158	180	1
10	10	3
52	109	1
216	217	1
91	91	2
33	34	2
31	35	1
196	196	1
33	35	2
49	56	1
109	110	1
43	44	2
234	234	5
44	44	1
240	241	3
49	63	1
152	152	3
185	197	2
50	221	2
151	151	2
167	167	5
172	176	1
119	119	1
237	238	1
155	155	4
169	180	1
21	21	4
223	225	1
36	36	4
207	207	4
18	18	5
201	231	1
179	180	2
24	24	4
164	164	3
84	108	1
222	222	3
219	219	11
65	201	1
176	177	1
172	172	5
213	213	5
108	108	2
169	169	2
50	68	1
203	203	3
84	98	1
38	38	6
166	166	4
237	237	3
22	22	1
40	40	4
40	41	2
214	214	1
158	169	1
15	15	2
166	167	2
227	228	3
171	173	2
205	205	4
116	116	5
102	116	1
205	229	1
95	115	1
181	181	1
61	61	3
81	82	4
179	179	4
46	204	1
240	240	2
99	101	1
74	75	2
69	69	1
241	247	1
115	115	3
55	85	1
82	84	1
71	81	1
70	70	1
194	247	1
183	185	1
116	118	1
221	222	3
43	43	2
192	193	1
201	201	4
30	30	2
186	207	1
51	51	2
120	120	5
96	99	1
189	189	2
32	33	1
12	22	1
175	175	2
92	92	1
229	229	5
67	67	1
196	197	2
202	202	5
94	213	1
77	77	2
161	161	2
87	87	3
158	158	3
221	221	1
49	49	2
211	211	3
71	72	2
71	86	1
229	230	2
76	78	2
175	225	1
23	23	4
185	186	2
90	102	1
72	81	1
49	74	1
228	231	1
197	197	4
79	79	1
186	187	1
217	248	1
114	114	1
199	200	1
216	216	2
31	31	4
147	147	2
186	186	1
223	223	1
24	25	1
53	53	2
48	244	1
103	103	1
113	114	1
178	178	2
117	144	1
100	100	1
188	211	1
12	12	1
245	245	3
85	85	1
27	27	5
249	249	2
18	41	1
0	1	1
33	150	1
2	5	1
33	33	1
55	55	3
167	184	2
200	200	2
223	231	1
212	213	1
218	219	2
15	28	2
2	2	2
81	83	2
66	236	1
4	5	2
239	240	1
238	240	1
242	243	1
67	168	1
54	55	4
236	241	2
23	27	1
230	231	2
160	167	1
234	235	1
46	46	1
65	65	3
203	206	2
42	42	1
26	26	3
88	88	2
182	182	2
22	23	1
110	117	1
175	176	2
101	101	2
170	216	1
10	35	1
194	196	1
69	76	1
97	99	1
188	189	3
204	205	3
0	6	1
117	117	1
52	53	1
5	5	1
163	163	2
228	228	1
210	210	3
203	230	4
206	206	1
88	89	2
12	32	1
168	176	1
86	86	1
41	41	3
107	107	2
188	198	1
248	248	2
235	235	5
11	11	2
212	212	1
208	209	1
118	120	1
225	225	2
58	59	1
55	57	1
52	52	3
71	71	2
231	235	1
86	96	1
84	84	1
208	208	2
97	98	1
239	239	1
144	144	1
68	68	3
73	73	3
149	181	1
32	43	1
247	248	2
247	249	1
72	73	1
60	60	2
167	207	1
97	108	1
57	58	1
232	232	1
229	231	1
6	6	1
9	36	1
177	177	1
164	178	1
87	88	1
48	48	1
12	14	1
236	237	1
213	214	1
246	246	2
14	23	2
28	28	1
90	91	1
39	39	1
101	118	1
187	188	1
212	214	3
187	187	1
96	97	1
183	183	5
49	50	1
55	59	1
186	229	1
48	177	1
14	16	1
183	211	1
180	180	2
163	164	2
198	198	1
16	16	1
144	145	1
50	50	1
195	195	1
29	29	1
198	199	1
113	145	1
78	78	1
243	244	1
215	215	1
17	17	1
89	116	1
233	233	1
210	211	1
31	32	1
158	159	1
188	190	1
202	226	1
1	1	1
165	168	1
242	248	1
41	42	1
48	120	1
173	182	1
237	240	1
151	152	1
91	92	1
112	113	1
14	28	1
1	6	1
94	95	1
32	32	2
244	249	1
218	218	1
118	119	1
63	63	1
185	206	1
192	198	1
102	103	1
51	64	1
79	80	1
48	55	1
194	194	1
246	247	1
88	118	2
76	220	1
44	143	1
10	36	1
35	35	1
51	173	1
74	74	1
