132	132	5
34	34	4
1	2	4
136	141	2
77	91	2
118	118	4
33	33	1
34	35	1
101	101	2
149	149	6
44	44	2
155	155	12
73	102	1
126	126	5
143	146	1
75	105	1
24	24	5
75	75	4
18	144	2
107	107	9
98	104	1
91	94	1
52	52	1
35	37	1
81	81	4
137	137	6
120	155	1
115	115	1
122	122	4
23	24	2
104	104	3
124	124	4
35	70	2
69	72	1
80	82	3
87	87	4
80	80	4
116	116	3
22	22	2
138	138	3
133	133	6
152	152	8
40	40	5
114	114	5
108	116	1
121	121	10
36	36	7
135	137	5
150	150	3
68	68	5
17	54	1
71	105	1
156	156	7
95	95	6
105	105	7
87	89	1
85	85	2
37	38	4
65	67	2
147	147	3
13	50	1
101	158	1
127	128	1
55	55	4
78	78	8
147	148	1
8	8	5
140	141	1
86	86	7
7	8	2
1	1	1
13	14	1
26	27	1
48	49	3
83	83	3
110	124	1
99	99	7
79	84	1
108	108	6
78	79	4
25	25	3
110	110	3
71	157	1
95	132	1
42	42	2
127	135	1
91	91	2
129	129	9
39	40	4
5	5	4
139	139	7
44	95	1
65	65	3
82	82	3
24	71	1
39	39	4
127	133	1
61	105	1
39	71	1
131	131	5
38	38	6
2	2	9
133	134	2
132	156	1
134	136	1
155	156	3
122	138	1
11	12	1
136	136	4
56	56	1
23	23	3
92	92	2
146	147	5
78	122	1
79	83	4
77	79	1
34	41	2
98	98	6
51	51	7
54	55	2
71	71	7
2	3	1
142	142	5
8	156	2
113	113	5
100	105	1
128	128	5
148	148	7
103	103	3
134	138	3
33	34	3
28	83	1
157	157	5
77	93	2
128	155	1
29	132	1
18	18	3
4	4	6
9	10	3
52	95	1
73	73	5
117	119	1
107	111	1
103	105	1
86	95	1
118	141	1
30	30	7
92	107	2
100	101	2
10	13	1
4	105	2
113	114	2
130	130	1
123	123	3
136	137	4
21	21	3
145	145	3
120	121	1
43	55	1
143	143	3
139	140	2
94	94	5
53	138	1
117	135	1
81	82	2
141	141	10
117	117	3
79	80	1
151	152	2
112	120	2
102	102	4
90	91	3
80	81	1
69	69	6
22	51	1
63	63	1
140	157	3
46	46	3
111	111	5
86	92	3
63	81	1
150	151	3
28	147	1
121	132	1
13	13	5
123	124	3
31	31	2
50	50	5
39	50	1
25	26	3
121	122	3
41	41	5
41	42	4
134	135	5
77	77	3
142	143	1
134	134	6
127	130	1
18	19	2
26	71	1
7	7	2
126	127	3
64	64	4
135	136	1
28	116	1
67	68	3
128	139	1
131	133	2
119	119	2
93	93	4
107	139	1
131	132	2
12	22	1
107	142	1
108	109	2
110	116	1
84	84	1
107	108	3
158	158	6
56	63	1
20	145	1
112	121	2
21	24	1
21	135	1
112	117	2
107	145	1
151	151	4
109	144	1
8	87	1
28	29	1
86	88	1
132	134	1
6	7	1
47	48	1
51	52	1
67	67	4
43	47	1
43	43	2
63	84	1
46	47	2
10	10	3
26	26	1
39	56	1
129	131	2
4	7	1
140	140	10
48	48	1
0	0	5
116	117	3
109	122	2
12	18	1
36	106	2
130	131	1
13	17	1
51	61	1
116	145	1
95	119	1
70	71	1
79	79	2
73	75	2
89	90	1
19	19	2
46	49	1
109	157	1
15	15	4
11	18	1
145	148	1
99	131	1
20	20	2
113	120	1
112	112	1
124	126	2
122	123	4
120	125	1
110	111	1
127	127	3
146	156	1
149	154	1
144	146	1
45	47	1
88	88	4
100	100	3
63	147	1
69	104	1
70	91	1
42	48	1
114	115	2
66	71	1
45	46	1
106	106	1
154	154	4
135	135	5
73	74	1
96	96	3
82	84	1
43	45	1
14	14	2
113	116	1
120	120	4
14	25	1
77	78	1
55	56	1
151	153	1
2	5	1
129	130	2
16	16	4
102	103	1
110	132	1
28	98	1
25	151	1
117	133	1
44	45	1
129	153	1
95	96	2
109	111	1
141	142	2
37	37	2
105	106	1
32	33	1
42	128	1
129	151	1
96	98	1
70	70	2
104	105	1
31	32	2
3	4	1
79	117	1
88	107	1
144	144	1
26	28	1
63	64	3
90	90	7
28	28	3
46	52	1
84	85	1
144	145	2
3	3	2
14	15	3
10	11	1
68	71	1
16	84	2
8	9	2
89	116	1
73	133	1
109	109	2
18	29	1
112	114	1
4	5	1
72	72	1
139	158	2
137	138	1
127	155	1
120	140	1
153	154	1
131	152	1
148	157	2
28	90	1
134	140	1
124	125	1
87	102	1
153	156	1
6	6	2
97	150	1
152	157	1
65	106	1
64	106	1
81	83	2
159	159	1
68	70	1
69	70	2
117	144	1
73	79	2
91	92	2
118	120	1
15	16	1
27	27	2
137	146	1
106	108	1
93	111	1
28	66	1
108	112	1
97	97	2
132	133	1
65	66	1
83	87	1
97	158	1
29	29	1
99	104	1
56	144	1
57	57	2
125	125	1
30	31	1
128	131	1
87	91	1
66	66	1
134	141	1
12	32	1
49	52	1
106	151	1
109	110	1
89	93	1
87	88	2
156	157	1
42	43	1
104	143	1
75	107	1
9	9	2
49	49	1
52	53	1
111	113	1
77	128	1
138	139	1
103	104	1
24	25	1
146	146	1
17	17	2
108	117	1
114	117	1
108	111	1
83	122	1
22	25	1
23	25	1
127	153	1
36	47	1
5	6	1
100	129	1
12	15	1
79	85	1
67	71	1
62	63	1
38	112	1
18	22	1
46	50	1
76	76	1
153	153	1
149	150	1
