149	149	7
64	64	6
233	234	1
127	171	1
122	122	4
173	173	7
71	71	7
174	174	5
208	208	4
186	186	2
187	188	3
47	47	7
4	4	4
223	223	2
37	38	2
214	214	2
51	51	5
57	57	4
56	56	3
102	102	11
172	175	1
176	176	7
159	181	1
3	3	4
189	190	1
51	52	2
29	29	4
18	19	2
175	175	3
167	168	2
102	103	1
107	107	5
192	192	2
119	119	1
13	14	3
138	180	1
230	231	1
125	125	1
20	171	1
184	184	5
86	86	7
20	177	1
99	106	1
55	55	4
62	62	9
107	161	1
34	34	3
24	25	1
45	45	4
208	209	2
168	168	2
8	8	4
42	43	2
201	202	4
235	235	2
60	61	1
76	76	4
161	161	4
98	98	7
209	209	2
105	105	5
106	106	3
191	191	4
36	36	4
27	27	7
11	11	8
31	31	1
65	65	3
45	46	1
200	224	2
196	196	1
120	120	3
144	144	3
170	171	3
1	1	3
214	215	3
180	180	2
105	107	1
24	24	3
164	166	2
159	159	6
163	163	4
48	54	1
33	33	4
170	170	5
113	113	5
179	181	1
107	168	1
181	181	2
84	84	4
72	73	1
103	103	3
5	5	1
124	125	2
84	115	1
197	197	2
79	79	4
32	33	3
63	63	3
82	82	7
171	171	5
128	129	2
42	42	5
132	132	1
141	141	2
242	242	3
184	186	1
204	204	2
67	67	5
127	127	3
44	45	2
163	164	1
60	62	1
166	166	4
194	195	3
108	108	2
33	85	1
55	56	2
229	229	2
178	178	3
59	59	8
148	148	4
211	212	2
145	145	1
7	7	5
77	78	3
23	23	4
113	122	1
200	225	1
134	134	2
100	100	6
124	124	1
126	127	1
41	42	1
57	58	2
152	152	2
146	148	1
203	203	3
58	58	3
168	169	4
52	53	1
143	154	1
66	67	3
157	186	1
228	230	1
71	76	1
182	182	3
130	130	4
32	44	1
28	70	2
26	26	3
230	230	4
205	205	4
1	3	3
99	99	4
121	122	2
154	155	5
115	115	3
42	45	1
11	15	1
33	34	1
46	47	1
218	218	2
68	68	2
85	85	7
179	179	2
196	197	1
210	210	6
25	46	2
16	16	4
234	235	1
20	23	1
65	66	4
174	234	2
225	225	3
121	126	1
137	138	2
41	41	1
75	75	3
113	120	1
61	61	1
27	100	2
123	123	6
142	142	4
74	74	2
63	64	1
222	222	4
7	8	1
15	15	4
138	139	1
158	158	2
202	203	1
66	68	1
121	121	5
197	215	2
112	112	2
203	204	1
168	184	3
70	70	2
220	220	3
25	62	1
241	241	1
115	117	2
21	22	1
121	139	1
46	46	6
77	77	2
198	200	1
28	28	5
193	194	1
155	155	4
98	99	1
154	156	3
133	133	2
204	205	1
12	13	1
6	206	2
173	174	2
142	179	1
154	154	4
219	220	1
156	157	1
62	63	2
228	228	3
161	185	1
61	62	2
35	36	3
96	97	1
2	2	2
139	140	3
81	81	2
153	153	4
165	165	2
3	206	1
116	117	2
69	69	5
152	157	2
201	201	1
212	213	1
3	38	1
157	157	6
89	89	4
220	223	2
216	217	2
166	185	2
143	164	1
147	147	5
118	118	4
54	55	4
171	172	1
17	17	2
189	189	4
172	173	1
207	207	2
34	124	1
179	180	2
113	115	2
39	39	5
155	156	1
233	233	6
64	65	1
160	160	2
80	82	1
72	75	1
60	60	4
99	100	4
19	19	4
75	78	2
117	118	2
48	48	4
49	49	2
122	135	1
32	85	1
128	128	1
237	237	3
0	3	2
38	38	3
157	158	1
153	154	3
152	153	4
133	134	1
139	139	3
20	20	5
214	216	1
140	141	1
4	6	2
133	148	1
112	177	2
156	156	1
10	10	5
173	234	1
190	220	1
187	187	3
16	137	1
167	167	4
43	58	1
238	238	1
150	151	3
18	18	1
46	49	1
56	57	1
141	142	3
37	37	3
169	169	5
172	172	1
240	240	2
18	49	1
127	128	1
180	181	3
3	31	1
146	146	2
165	167	1
9	9	2
72	72	6
101	101	4
88	88	4
163	165	1
160	161	2
134	148	1
66	66	4
140	140	2
19	22	1
160	170	1
168	178	1
67	68	1
38	75	1
119	135	1
73	73	3
217	217	3
119	131	1
121	130	1
212	214	1
171	173	1
8	9	3
100	101	3
220	221	2
14	14	1
97	97	2
221	221	3
145	157	1
12	146	2
183	183	4
150	150	6
114	114	2
44	85	2
180	188	1
85	122	2
122	127	1
33	54	2
160	169	1
151	151	4
25	25	2
163	166	1
143	161	1
36	37	2
12	12	1
0	14	1
177	177	2
44	46	1
188	188	1
134	159	1
111	111	3
169	170	2
2	3	1
79	80	1
118	119	1
185	187	1
28	37	1
105	106	2
21	21	3
138	138	2
34	36	1
162	162	3
65	76	1
29	70	1
226	227	2
143	143	3
17	39	1
115	116	3
225	227	1
152	156	1
137	140	2
80	80	1
39	43	1
171	219	1
14	19	1
169	173	1
78	78	3
145	146	1
106	128	2
7	178	1
58	59	1
211	213	1
226	229	1
27	28	1
174	175	1
21	23	1
71	72	2
138	162	1
122	151	1
241	242	1
136	183	1
104	104	3
226	226	1
25	206	1
4	5	1
54	86	1
62	65	1
29	30	1
164	186	1
30	31	2
121	149	1
43	228	1
81	82	1
205	206	1
22	23	1
16	22	1
26	29	1
7	9	1
202	230	1
129	170	2
116	116	1
118	147	1
39	40	2
231	233	1
30	30	3
206	206	2
153	169	1
103	105	1
159	162	1
10	25	1
54	54	5
161	184	1
231	231	3
50	51	2
148	152	1
177	178	2
157	172	1
156	179	1
135	148	1
182	183	1
24	60	1
29	38	1
185	186	1
13	209	1
162	179	1
191	192	1
80	81	3
197	214	1
234	234	1
129	129	2
45	47	1
53	53	3
183	184	1
206	218	1
135	218	1
3	128	1
128	132	2
68	84	1
222	223	1
227	228	1
157	183	1
164	165	1
236	237	1
96	96	1
213	214	2
173	201	1
122	149	1
32	37	1
239	239	1
198	198	2
136	136	1
83	83	2
194	196	1
131	131	2
19	20	2
126	126	1
14	15	1
121	158	1
12	106	1
83	168	1
149	215	1
40	40	1
13	13	1
108	109	1
210	211	1
49	82	1
17	18	1
144	145	1
190	190	1
54	85	1
134	146	1
3	75	2
35	35	1
107	135	1
10	11	1
162	163	1
195	195	1
30	111	1
109	109	1
135	177	1
192	218	1
124	143	1
178	198	1
215	216	1
114	115	1
123	161	1
16	17	1
