15	15	4
62	62	1
131	165	1
42	42	3
17	47	2
92	92	1
18	18	6
37	37	6
44	44	1
93	93	1
136	137	3
140	140	1
108	108	4
45	45	3
83	83	1
35	36	1
8	10	3
38	143	1
121	121	1
0	159	2
105	106	1
34	34	3
170	170	2
80	104	1
57	66	1
166	167	2
152	152	1
21	23	2
91	91	1
167	167	1
145	145	4
147	164	1
148	158	1
16	16	2
57	57	2
123	124	1
125	129	1
40	40	3
82	82	1
140	141	2
72	72	6
4	4	5
38	38	1
109	109	2
120	128	1
23	23	4
64	77	2
149	167	2
5	5	2
148	148	1
36	36	2
143	161	1
155	155	1
92	101	1
121	127	1
104	104	4
66	66	2
91	94	2
116	116	2
13	47	1
138	166	1
119	119	2
116	139	2
113	113	1
125	125	2
122	122	1
88	108	1
5	34	1
99	104	2
89	89	3
0	0	1
86	86	2
120	120	2
96	96	2
39	39	6
6	7	1
149	149	3
38	63	1
35	35	1
167	168	1
87	87	3
14	14	2
137	137	2
1	2	1
83	88	1
47	49	1
74	74	2
150	169	1
50	65	1
104	123	2
125	127	3
53	54	2
135	135	2
121	141	1
12	12	2
11	17	1
130	131	1
8	16	1
127	127	3
20	24	2
72	80	1
76	80	1
150	154	1
10	10	1
58	58	1
40	41	2
144	144	2
168	168	3
91	93	1
38	67	1
88	111	1
83	86	1
41	41	2
106	106	3
56	56	2
21	21	2
49	52	1
13	49	1
85	85	1
73	73	1
55	55	2
142	142	2
69	87	1
163	163	3
146	146	1
123	141	1
10	49	1
162	163	2
57	63	1
158	158	1
37	38	1
132	133	1
5	11	1
153	154	1
44	68	1
126	153	1
145	146	1
48	48	2
142	143	1
43	43	2
78	79	1
26	109	1
152	153	1
2	3	2
107	108	1
50	54	1
50	64	1
7	7	1
69	157	2
123	145	1
97	97	1
76	76	1
18	49	1
166	166	2
151	151	2
20	20	1
6	6	2
154	154	2
14	15	2
78	78	2
162	165	1
160	164	1
11	11	2
12	13	1
121	146	1
110	110	1
65	69	1
103	103	1
9	9	1
56	57	1
5	145	1
162	162	1
79	79	2
50	50	1
66	72	3
116	117	1
52	52	1
139	153	1
154	162	1
94	94	2
114	115	1
75	75	3
141	141	2
159	159	2
88	88	1
109	111	1
4	5	1
161	161	1
124	129	1
135	136	1
70	70	2
115	116	1
129	165	1
43	44	2
117	127	2
3	158	1
24	39	1
28	28	1
89	106	2
164	164	1
90	90	1
25	25	1
101	101	1
7	68	1
128	144	1
156	156	2
53	53	1
12	15	1
90	117	1
1	1	2
17	17	2
157	169	1
77	81	1
64	65	1
126	152	1
150	155	1
3	12	1
39	40	1
151	162	1
164	165	1
101	102	1
165	165	2
137	138	1
6	56	1
157	157	1
99	100	2
27	27	1
53	56	1
97	106	1
111	116	1
153	153	1
134	160	1
2	43	1
26	26	1
92	104	1
15	16	1
71	71	1
19	19	1
8	8	1
42	43	2
18	48	1
147	148	1
67	71	1
144	163	1
75	77	1
100	100	1
95	96	1
131	131	1
84	84	1
135	150	1
