22	35	1
188	188	2
56	57	1
194	194	2
61	61	2
153	193	1
173	174	4
24	24	1
48	48	5
173	173	2
67	68	1
161	161	4
175	191	1
95	95	1
31	31	2
62	62	1
159	159	5
44	44	1
69	69	1
112	113	2
3	3	3
144	144	5
1	2	1
96	96	4
86	86	2
118	118	3
188	189	1
11	13	1
21	21	4
5	5	4
7	7	5
15	33	3
97	97	2
178	187	1
129	129	2
100	100	1
25	26	4
125	130	1
34	34	5
186	188	2
41	78	1
143	147	2
179	179	5
169	185	1
25	25	3
41	42	3
182	182	1
165	165	2
70	70	2
60	64	2
24	31	1
42	45	1
45	52	1
146	146	3
152	152	3
13	13	7
158	158	2
80	86	1
33	33	2
196	196	3
50	51	2
102	102	2
4	5	4
119	136	1
174	174	2
156	156	3
186	186	2
29	29	3
170	170	1
54	54	1
180	182	1
163	175	1
2	28	1
98	98	1
11	11	4
72	72	2
27	27	1
45	45	1
6	8	2
59	64	2
144	145	1
9	9	4
74	75	1
12	12	1
189	190	2
28	28	2
68	68	4
76	81	2
72	182	1
134	135	2
17	17	3
11	53	1
14	14	1
103	103	1
6	6	4
45	46	1
137	138	1
21	32	1
163	163	2
113	114	1
124	124	1
10	10	3
16	16	4
4	4	3
96	98	1
94	94	1
121	121	2
23	23	4
155	155	1
18	18	6
87	87	3
29	30	1
157	157	2
101	103	2
53	54	2
150	169	1
162	164	1
1	1	4
181	182	1
185	185	2
161	164	1
40	40	6
107	107	1
20	20	2
4	24	1
89	99	1
5	8	1
135	165	1
130	131	1
26	27	3
74	76	5
166	166	2
141	142	1
35	35	3
188	190	2
15	24	1
55	55	1
39	40	4
193	193	1
108	125	1
5	7	1
38	38	4
180	180	2
47	47	1
192	192	2
79	79	2
24	26	2
63	109	1
99	99	2
27	31	1
104	106	1
95	98	1
177	177	3
2	2	1
191	191	2
36	36	1
111	111	3
109	110	1
71	71	2
139	139	1
140	157	1
104	104	2
32	33	3
104	117	1
2	22	1
137	137	3
31	35	1
149	171	1
188	192	1
141	141	2
164	164	1
81	81	3
37	37	5
16	17	1
144	147	1
183	183	2
31	32	1
78	85	1
59	59	1
53	53	3
134	134	1
60	62	1
67	67	1
26	26	4
81	82	1
28	30	1
133	137	2
190	190	1
195	195	2
44	46	2
45	142	1
12	47	1
138	138	1
27	179	2
24	28	1
177	191	1
143	143	2
193	194	1
9	195	1
20	100	2
160	162	1
131	131	1
58	58	2
154	154	1
24	25	2
80	80	1
197	197	1
19	21	1
149	149	2
184	184	2
122	122	1
70	73	2
2	26	1
176	176	2
162	165	1
78	78	1
75	75	1
108	109	1
169	191	1
168	168	1
33	36	1
115	115	2
55	56	1
148	148	2
160	160	1
17	18	2
9	13	1
38	47	1
153	153	2
9	20	1
96	177	1
8	9	1
98	99	1
63	63	2
15	15	2
182	183	1
34	35	1
159	160	2
43	44	1
46	170	1
127	129	1
39	43	1
132	132	2
22	22	2
35	36	1
163	164	1
0	0	1
19	20	2
187	187	1
178	178	1
194	195	1
118	119	1
30	31	1
14	15	1
126	127	1
46	46	1
122	196	1
146	175	1
9	10	1
7	19	1
76	177	1
3	24	1
51	51	1
175	175	1
105	106	1
17	24	1
128	128	1
5	38	1
147	148	1
154	158	1
8	8	1
196	197	1
44	196	2
42	42	1
114	114	1
166	167	1
189	189	1
18	19	1
192	193	1
52	52	1
49	196	1
150	150	1
12	13	2
15	47	1
36	166	1
169	169	1
148	154	1
167	168	1
73	73	1
39	39	3
126	126	1
143	146	1
110	145	1
67	182	1
167	169	1
89	89	1
22	32	1
125	126	1
171	172	1
174	175	1
94	95	1
3	4	1
6	32	1
32	83	1
43	196	1
185	186	1
