56	56	16
28	29	3
47	47	10
55	55	6
68	69	3
94	96	3
69	77	1
118	119	4
51	52	5
109	110	3
61	61	10
80	80	4
102	127	1
133	133	6
57	57	5
50	51	1
10	11	3
93	102	1
42	60	1
80	102	1
77	77	9
114	128	1
125	125	15
111	116	3
102	104	3
63	71	1
94	120	1
107	115	2
118	118	6
97	97	6
97	128	1
72	75	1
129	129	7
112	113	2
3	3	7
54	54	6
54	118	1
18	18	4
65	65	6
110	110	8
92	127	1
11	15	1
15	16	1
119	119	11
73	73	4
53	53	9
40	46	1
30	30	7
102	131	1
123	124	3
113	113	12
24	34	1
83	83	10
46	54	3
112	112	10
58	58	8
21	21	3
1	3	1
22	22	5
99	99	4
6	8	1
96	96	7
100	100	6
5	11	1
56	67	1
39	41	3
69	69	7
46	46	7
14	14	7
75	75	5
41	67	1
64	64	5
117	121	1
40	40	6
108	108	14
90	90	6
81	83	1
64	66	2
5	6	2
67	67	4
13	13	7
58	59	3
107	107	11
125	127	5
38	39	4
121	122	2
14	19	1
29	29	5
108	110	1
59	59	5
122	123	1
104	105	2
90	99	1
28	31	3
95	103	1
66	66	4
84	86	1
88	88	5
32	32	5
6	6	10
31	32	2
57	58	2
60	60	3
1	28	1
107	116	1
80	81	5
126	127	3
89	89	6
127	127	5
74	74	4
58	64	1
61	62	2
79	103	3
110	112	3
68	68	10
122	122	7
86	86	6
7	7	4
74	76	1
52	52	16
132	132	7
97	98	2
111	111	9
25	25	9
121	125	1
111	133	1
33	33	3
95	95	10
99	102	1
61	68	1
102	102	9
92	92	4
20	20	4
121	121	9
67	70	1
16	16	4
73	76	1
84	85	2
2	6	1
69	70	3
87	90	1
75	76	4
24	32	1
48	50	1
98	128	2
10	10	6
107	117	1
4	4	3
0	1	2
43	43	6
0	0	5
93	93	10
79	79	5
115	116	3
85	85	2
77	89	1
70	70	5
41	41	3
49	49	11
21	42	2
60	75	2
38	40	1
75	81	1
118	120	1
60	62	1
82	104	1
95	97	1
104	104	4
104	110	1
34	104	1
14	18	1
104	106	2
128	128	8
16	19	1
72	72	1
76	76	4
100	103	2
19	20	2
14	23	1
48	49	5
116	116	6
18	29	1
67	68	3
34	34	4
77	104	1
39	39	3
2	2	3
24	26	1
65	66	1
111	112	1
96	125	1
126	126	6
73	74	1
82	86	3
131	131	4
123	123	11
71	74	1
125	126	3
85	88	1
38	38	2
103	103	3
48	56	2
74	108	2
92	95	1
80	113	1
59	61	4
46	71	1
65	68	2
63	64	1
27	27	6
117	120	1
58	62	2
0	2	1
62	75	1
113	131	1
34	46	1
26	26	6
83	104	1
41	42	4
85	86	1
45	46	2
112	117	2
49	55	1
45	45	7
120	121	1
41	45	1
71	72	2
32	34	3
24	24	7
28	66	2
46	47	1
119	123	1
124	124	8
30	57	2
120	126	1
106	125	1
117	125	1
93	130	2
91	92	2
53	54	3
115	115	3
114	114	10
112	115	1
42	42	13
108	109	4
3	4	4
61	72	1
87	99	1
47	96	1
25	26	3
20	45	1
31	39	1
80	84	1
124	125	1
109	112	1
39	44	1
6	11	1
130	130	4
15	45	1
95	130	1
105	105	5
41	43	1
50	50	7
6	7	4
71	71	2
57	69	1
58	60	3
120	120	10
106	110	1
54	56	1
91	93	1
114	116	4
116	117	1
11	12	1
98	98	2
92	94	1
6	10	1
98	100	1
94	94	5
106	108	1
72	77	1
49	56	1
100	104	1
119	120	1
66	67	2
130	131	2
109	125	1
71	82	1
57	67	1
87	91	2
117	117	9
91	91	3
23	23	3
74	89	1
124	131	1
81	82	1
72	73	2
1	1	2
102	103	2
47	48	2
28	28	2
85	87	2
52	54	1
42	45	1
11	11	4
51	113	1
51	51	5
92	117	1
61	66	1
73	125	2
75	79	1
107	108	1
63	63	2
81	81	2
15	15	4
59	60	1
19	21	1
44	44	5
64	79	1
9	9	2
121	129	1
123	125	1
69	93	1
111	120	1
122	130	1
55	56	3
124	129	1
27	28	2
65	75	1
102	105	1
62	93	1
1	110	1
84	84	2
44	69	2
99	101	1
109	119	1
52	53	2
4	12	1
29	30	2
113	119	1
48	78	1
0	117	1
78	80	2
98	101	1
96	100	1
101	101	4
12	12	4
17	17	2
70	71	5
20	28	1
22	25	1
62	82	1
42	48	1
37	44	2
124	132	1
67	73	1
57	64	1
102	128	1
105	120	1
101	107	2
109	109	7
33	66	1
13	15	1
87	88	1
77	88	2
107	121	1
33	44	3
119	129	1
33	34	2
85	90	1
89	101	1
108	126	1
16	17	2
28	33	1
74	130	1
62	62	3
48	48	1
88	108	1
87	87	5
101	106	1
8	23	2
110	111	2
78	78	3
66	70	1
99	100	1
58	76	1
107	118	1
83	84	3
93	94	2
127	130	1
8	9	1
45	49	1
58	71	1
127	128	1
26	54	1
12	32	1
25	50	1
49	54	1
46	48	1
7	8	1
93	104	2
106	107	1
118	123	1
113	114	2
54	59	1
17	23	1
88	89	1
87	125	1
69	96	1
27	42	1
124	130	1
25	72	1
82	82	1
86	87	1
82	85	1
27	123	1
32	33	1
38	41	1
106	106	2
26	27	2
67	69	1
77	103	1
109	130	1
42	44	2
108	118	1
118	121	1
15	20	1
18	26	1
121	124	1
54	55	1
132	133	1
22	31	1
86	88	1
31	31	2
19	19	1
63	119	1
51	64	2
11	13	1
55	123	1
129	133	1
115	119	1
76	77	1
110	122	1
103	105	1
72	74	1
9	10	1
62	68	1
43	50	1
2	13	1
2	8	1
91	94	1
79	90	1
105	108	1
25	57	1
59	62	1
84	99	1
72	108	1
27	30	1
50	52	1
115	118	1
92	102	1
62	86	1
83	88	1
13	22	1
30	75	1
62	73	1
101	103	1
90	93	1
93	132	1
60	61	1
110	131	1
5	5	3
82	87	1
97	105	1
73	82	1
32	45	1
0	24	1
104	109	1
8	8	1
109	116	1
10	32	1
119	121	1
92	114	1
113	115	1
33	38	1
20	59	1
106	122	1
29	31	1
66	84	1
99	108	1
91	99	1
28	34	1
70	80	1
59	65	1
74	91	1
