46	46	13
66	82	1
192	193	2
45	45	9
54	54	2
13	13	10
42	43	2
79	80	2
63	88	1
183	183	2
167	167	3
153	154	2
176	176	8
48	49	3
34	35	3
44	44	11
83	83	3
126	127	2
37	37	3
9	44	2
5	5	4
67	67	10
43	43	6
166	166	2
184	184	6
82	83	2
128	131	1
42	42	13
114	118	1
175	175	2
142	142	4
56	56	6
48	48	7
4	45	1
50	50	10
16	17	3
0	0	2
26	26	3
186	196	1
10	10	13
121	121	2
121	167	1
62	63	3
34	34	6
195	195	6
59	61	2
143	143	3
76	76	3
94	95	3
40	41	4
6	6	2
13	14	3
174	175	2
32	33	4
15	55	1
85	143	1
87	88	1
35	35	6
147	147	2
39	39	4
94	97	2
126	126	6
164	164	4
148	149	2
119	119	1
51	51	10
80	80	4
94	96	1
80	81	1
4	4	5
55	55	4
168	168	2
85	118	1
25	25	7
59	135	1
71	71	8
22	25	1
6	8	3
78	87	1
186	193	1
87	140	2
71	72	3
85	86	2
37	84	1
140	140	7
70	70	5
186	186	2
132	132	2
58	58	4
88	89	1
189	189	2
9	9	6
73	73	4
97	97	1
30	30	3
69	69	5
153	153	1
49	50	2
128	139	1
116	116	2
19	19	4
194	194	9
127	127	3
146	147	3
108	111	1
133	133	1
52	53	3
24	31	1
77	77	3
99	99	1
182	187	1
130	130	2
1	1	5
18	22	1
47	47	7
61	62	1
53	53	8
29	29	2
134	134	3
54	55	2
15	15	3
12	13	1
154	154	3
120	120	1
185	185	4
3	7	1
39	63	1
10	11	3
196	196	3
56	57	4
33	33	7
179	179	3
72	72	6
122	122	2
32	32	7
67	69	2
14	14	7
38	38	9
6	36	1
77	78	4
83	84	2
79	79	4
82	82	4
2	2	3
55	56	2
115	115	4
178	179	1
41	59	1
47	48	3
135	135	4
100	101	2
17	19	1
14	15	1
19	22	1
21	21	2
66	66	4
172	176	1
141	142	2
160	160	2
10	133	1
160	166	1
5	13	1
2	23	1
170	172	2
140	141	1
46	133	1
93	94	1
23	23	4
16	69	1
123	123	1
177	184	1
175	176	3
151	177	1
68	68	4
60	60	4
33	34	1
67	70	1
61	61	1
191	192	1
53	54	2
152	153	1
8	9	3
181	182	2
170	170	3
52	56	1
113	113	1
22	23	2
24	25	2
27	27	6
181	181	3
59	59	2
131	131	2
11	12	1
67	79	2
12	51	2
24	24	5
31	31	6
185	186	5
40	40	7
101	115	1
187	188	2
172	175	1
16	135	1
128	128	5
38	172	1
38	39	4
16	18	1
63	64	1
16	16	1
50	51	2
73	75	1
120	122	1
95	95	2
58	59	2
56	107	1
38	73	1
74	74	3
39	60	1
64	64	5
17	17	2
40	42	3
43	44	2
144	144	1
134	135	1
11	11	1
100	100	2
169	169	5
188	188	2
20	20	3
32	39	1
162	162	1
144	147	1
196	197	1
41	62	2
134	136	1
181	193	2
32	76	1
96	103	1
72	75	2
0	17	1
171	171	1
81	81	2
105	106	1
35	97	1
163	163	2
3	3	5
88	88	3
1	4	1
21	45	1
5	6	2
1	20	1
0	74	1
13	60	2
193	194	1
19	66	1
86	86	2
19	20	1
4	5	2
62	62	4
34	178	3
44	101	1
4	6	3
21	23	2
19	21	1
30	31	2
150	151	2
180	181	1
157	157	1
104	104	3
26	27	1
25	101	2
36	162	1
54	56	4
150	152	2
190	190	2
3	35	1
112	113	1
70	71	2
73	76	2
133	136	2
97	115	1
172	172	4
57	57	3
165	187	3
52	52	3
4	11	1
8	8	3
136	136	2
34	36	1
110	111	1
33	71	1
114	114	1
49	49	5
66	68	1
25	147	1
81	89	2
6	41	1
34	162	1
20	21	2
60	61	1
94	94	1
49	51	1
66	67	2
81	82	4
82	84	1
150	156	1
197	197	6
81	143	1
107	107	2
71	75	1
78	95	1
39	41	1
124	124	1
105	105	1
151	151	3
89	90	3
41	41	2
7	7	1
124	141	2
23	25	2
102	102	1
149	149	3
125	125	2
35	117	1
42	60	1
180	180	2
5	31	1
2	3	1
10	15	1
155	155	1
122	123	2
193	193	1
27	155	1
24	33	1
50	52	1
103	103	3
96	96	1
177	177	1
191	191	4
160	161	1
14	48	1
195	197	1
161	181	1
84	89	1
46	141	1
158	158	2
9	33	1
77	79	1
55	146	1
46	48	1
98	99	1
146	146	3
46	127	1
24	26	1
45	46	1
76	77	2
68	69	1
1	2	3
136	137	2
61	63	1
185	194	1
170	171	1
150	150	1
29	31	1
63	63	2
37	45	1
186	195	1
4	9	1
10	39	1
30	32	2
156	156	1
188	190	1
50	183	1
161	183	1
109	110	1
65	71	1
11	20	1
52	133	1
132	133	1
109	109	1
105	148	1
74	75	1
18	143	1
42	58	1
19	67	1
1	25	1
23	24	2
72	73	1
143	145	3
47	126	1
162	163	1
11	16	2
139	148	1
18	19	2
7	8	2
74	76	2
31	32	3
126	128	1
117	117	1
12	12	2
112	112	1
67	68	2
59	60	1
98	98	1
160	167	1
106	108	1
78	82	1
101	105	1
185	193	1
69	76	2
41	42	1
155	183	1
78	79	2
22	22	1
163	164	1
65	68	1
9	10	1
8	28	1
161	164	1
32	71	2
145	146	2
87	87	1
73	74	1
156	194	1
65	65	1
93	93	1
173	173	1
118	118	1
40	51	1
56	60	1
75	80	1
25	26	2
69	70	2
178	178	1
168	169	2
102	105	1
18	18	2
142	143	1
5	64	1
44	45	2
11	14	1
1	31	1
1	28	1
190	192	1
89	89	1
35	36	1
165	166	1
78	78	1
23	29	1
9	11	1
38	40	1
154	156	1
13	38	1
111	111	2
5	8	1
81	86	1
172	173	1
110	110	1
159	160	1
149	154	1
125	137	1
12	132	1
173	174	1
188	191	1
28	28	1
0	2	1
118	119	1
15	71	1
72	186	1
97	173	1
53	57	1
33	35	1
21	22	1
151	152	1
159	159	1
176	181	1
113	114	1
24	32	1
36	36	2
160	182	1
84	84	1
137	137	1
170	176	1
93	101	1
15	16	1
103	109	1
94	107	1
114	115	1
