29	29	7
40	41	3
72	72	3
16	16	3
147	147	5
121	123	1
14	31	1
145	145	3
149	152	2
84	84	2
35	35	9
121	121	3
89	89	3
136	136	2
194	196	2
3	113	1
135	135	3
180	180	7
26	27	3
138	138	1
122	122	2
11	12	3
156	156	1
16	17	1
165	165	1
34	34	5
197	197	1
148	164	1
88	89	2
42	42	3
25	26	1
195	195	3
174	175	3
46	46	3
155	155	4
20	20	4
53	53	5
26	26	4
50	50	2
164	164	4
44	44	6
183	183	2
27	27	6
18	35	1
150	151	1
13	32	1
143	161	1
118	118	1
148	148	2
2	28	1
178	186	3
38	38	4
55	55	2
187	187	2
129	129	1
118	138	1
144	145	2
194	195	1
95	96	1
7	26	1
73	74	2
74	75	1
143	144	3
141	141	3
168	168	3
123	123	2
154	155	1
78	166	1
24	24	5
109	111	1
22	26	1
45	46	2
82	83	2
11	11	4
45	47	1
181	181	2
47	170	1
177	177	1
27	29	1
47	47	3
31	31	2
42	184	1
176	176	1
101	101	2
176	179	2
2	2	4
60	61	2
153	154	1
9	9	3
72	179	1
170	170	1
6	8	3
190	190	2
189	192	3
41	41	5
13	13	2
171	171	2
19	19	3
157	158	2
113	113	3
8	24	2
166	166	1
159	159	5
154	154	4
173	173	2
150	150	1
160	160	4
130	130	3
116	117	1
137	138	1
32	47	1
77	77	6
50	51	2
182	182	1
157	157	3
131	131	2
195	196	1
143	157	1
1	1	4
3	7	2
175	175	2
144	144	3
17	36	3
186	186	6
21	21	5
34	37	1
155	157	1
108	108	2
97	99	2
167	179	1
71	71	2
70	73	1
94	95	3
158	158	2
140	191	1
2	6	1
9	10	1
12	12	3
32	32	3
88	88	2
0	1	3
181	189	1
43	183	1
137	137	1
158	159	1
25	25	1
77	78	2
51	51	2
119	119	4
149	149	2
124	131	1
14	15	1
133	133	6
17	18	2
22	23	1
71	72	1
30	30	2
196	197	1
9	41	1
125	127	2
150	176	1
35	36	2
8	8	2
15	15	2
152	153	1
190	192	1
43	44	1
100	100	2
102	102	2
2	30	1
76	76	3
133	134	1
143	143	3
32	33	2
174	174	2
111	111	1
2	114	1
7	16	1
83	83	1
178	178	1
16	32	1
96	96	2
194	194	3
70	70	4
29	30	2
18	18	4
153	153	1
30	31	1
132	132	3
179	179	2
163	165	1
163	164	1
19	28	1
23	24	1
105	105	2
9	37	1
37	37	3
45	49	1
33	159	1
17	20	1
42	52	1
169	188	1
14	14	1
98	98	1
7	7	3
43	43	1
192	192	1
152	152	3
19	36	1
174	176	1
82	82	1
134	135	1
67	67	1
5	5	2
161	161	2
28	28	2
40	40	5
179	182	1
47	48	1
189	189	1
61	61	2
49	49	2
161	162	2
163	195	1
185	196	1
136	151	2
188	188	3
169	176	1
112	160	1
32	112	1
117	117	1
112	113	2
17	21	1
128	132	1
18	22	1
21	22	2
149	156	1
157	160	1
85	87	1
96	97	1
36	68	2
112	118	1
17	17	2
6	6	1
192	193	1
140	140	1
23	23	1
33	113	1
22	22	3
139	139	1
118	119	1
99	99	3
109	109	2
171	186	1
7	8	2
160	163	2
128	128	2
94	94	2
138	195	1
162	162	1
80	81	2
55	196	1
114	114	1
0	0	4
24	73	1
113	122	2
43	196	1
72	73	1
11	139	1
121	122	1
172	172	1
34	35	3
163	163	1
9	170	1
151	166	1
116	116	1
153	161	2
84	86	4
114	115	1
88	110	1
59	59	2
58	58	2
10	10	1
110	118	1
196	196	3
193	193	2
136	137	1
39	39	2
45	45	2
142	142	1
95	95	1
42	43	1
146	146	3
105	106	2
169	169	1
36	37	1
3	3	1
0	2	1
9	11	1
122	141	1
42	130	1
4	4	4
168	176	1
84	85	1
72	190	1
89	111	1
64	65	1
21	89	1
36	36	1
125	131	1
89	90	1
141	142	1
79	79	1
66	69	1
62	62	1
4	5	1
185	185	1
142	155	1
25	37	1
165	166	1
97	97	1
65	171	2
173	174	1
175	178	1
106	106	1
178	182	1
95	97	1
10	13	1
178	180	1
6	7	1
3	17	1
22	27	1
162	166	1
11	13	1
176	177	1
