92	93	2
67	68	1
168	169	1
14	14	7
145	146	1
95	95	2
6	6	4
124	124	5
68	69	2
140	142	1
86	145	1
144	168	1
169	169	8
149	150	4
162	163	3
67	69	1
161	161	8
167	167	3
41	41	7
15	15	4
86	86	3
137	138	1
143	143	9
26	26	2
130	130	2
99	107	2
164	164	5
44	45	2
160	160	3
88	105	3
122	124	1
83	83	2
90	90	7
4	12	1
144	165	1
165	166	1
5	7	5
111	112	2
100	100	4
54	54	4
40	40	10
4	4	7
20	24	1
159	159	4
70	71	3
108	108	5
87	89	1
91	131	1
87	87	4
107	107	1
147	147	2
127	127	3
22	23	5
138	140	2
5	25	1
5	5	10
39	39	7
52	52	8
76	76	5
126	126	5
14	15	2
141	141	5
99	99	2
70	70	1
119	119	1
15	27	1
169	170	1
11	12	1
10	10	4
23	133	1
108	109	4
67	67	2
129	130	2
24	24	3
123	147	1
49	51	1
120	121	2
138	139	1
73	73	1
13	14	2
58	89	1
98	99	2
26	27	1
46	46	1
139	139	5
120	157	2
1	2	2
7	7	3
0	0	3
11	11	6
134	134	3
106	106	2
46	142	2
21	22	2
163	164	3
18	18	4
133	133	4
114	114	4
82	82	3
112	112	4
9	10	2
144	144	6
45	46	2
98	98	4
72	72	4
42	42	6
118	118	6
36	108	2
72	78	2
21	21	3
3	4	1
114	116	3
158	158	6
149	149	4
115	136	1
19	19	4
15	166	1
125	139	3
81	81	3
96	96	2
21	24	4
138	142	1
23	23	2
146	160	1
77	77	4
94	94	2
38	38	4
35	35	9
39	40	2
13	157	1
66	69	1
102	102	4
47	47	3
56	126	2
153	154	4
45	45	3
110	111	2
88	89	1
152	152	4
80	80	2
141	143	1
57	63	1
109	109	7
23	101	1
127	156	1
117	118	2
27	27	4
152	153	3
53	53	3
128	129	3
36	36	4
122	122	1
82	83	2
136	138	1
43	43	12
150	150	3
146	146	7
128	128	2
22	22	5
100	118	1
20	21	3
9	51	1
72	73	1
138	138	4
63	76	1
72	108	2
116	116	3
100	101	1
64	91	1
148	148	5
92	92	4
164	165	1
79	80	1
154	154	4
49	49	5
71	80	1
142	142	3
136	137	2
119	141	3
36	38	1
147	148	4
63	71	1
6	7	1
145	166	2
1	1	5
63	65	3
127	128	2
5	12	1
105	105	1
163	163	5
107	110	1
65	66	3
6	47	1
56	56	4
66	66	2
140	151	1
139	164	1
139	145	1
48	48	3
168	168	6
34	35	1
14	43	1
78	79	1
9	20	2
8	8	5
82	102	2
106	143	1
103	104	3
106	130	1
85	85	2
37	37	2
159	160	1
9	9	2
48	51	1
18	19	2
131	131	1
116	117	1
89	89	3
128	156	1
140	140	1
156	156	3
152	156	1
84	84	2
89	107	1
25	25	3
69	69	1
73	79	2
84	85	3
17	17	3
139	140	1
155	160	1
97	111	1
136	159	2
18	20	1
58	100	1
75	101	1
151	151	4
51	51	4
88	88	4
135	136	1
101	102	4
44	44	4
155	155	3
151	157	1
55	55	2
20	20	2
41	42	2
12	12	4
28	28	4
158	161	1
143	150	1
134	135	2
144	145	1
6	25	3
139	142	1
74	74	1
111	111	4
8	9	2
73	74	1
16	16	2
22	69	1
15	16	4
137	137	4
12	13	2
45	64	1
71	71	2
132	132	4
13	13	2
121	121	2
57	70	1
33	33	3
78	82	1
34	34	2
71	72	1
43	44	2
126	127	1
5	6	2
113	113	4
101	146	1
97	98	2
121	123	1
145	145	5
106	107	1
33	42	1
136	136	3
154	165	1
89	90	1
114	127	2
4	13	2
90	112	1
158	169	1
166	166	1
2	2	4
7	11	2
144	170	1
101	101	1
76	117	1
78	118	1
24	25	2
16	49	1
142	143	2
94	96	1
51	52	1
55	56	2
3	25	1
123	123	3
120	120	1
85	88	1
91	91	5
0	2	1
138	157	1
17	18	1
64	64	1
157	157	3
121	134	1
115	116	5
129	134	2
134	139	1
151	158	1
110	110	4
85	86	1
8	10	1
11	150	1
40	136	1
135	135	6
131	133	1
14	158	1
154	155	1
43	111	1
81	100	1
6	119	1
128	142	1
69	70	2
142	151	1
14	16	1
74	98	1
161	162	1
0	1	2
162	164	1
2	3	1
74	76	2
76	79	1
3	3	5
136	164	1
35	36	1
148	167	1
140	141	1
125	126	2
115	115	1
9	11	2
155	166	1
79	118	2
42	43	1
110	169	1
11	20	1
162	165	1
170	170	2
3	5	2
65	73	1
80	81	1
165	165	3
158	159	2
149	159	1
97	97	1
97	143	3
113	114	2
91	110	1
130	155	1
152	162	1
162	162	3
21	26	1
22	24	1
97	99	1
45	47	1
7	10	1
104	104	1
50	56	2
155	156	1
137	139	1
52	53	1
40	41	1
75	82	1
110	120	1
79	79	1
54	143	1
79	84	2
15	17	1
153	153	1
93	95	1
140	143	1
119	137	1
75	113	1
90	97	1
122	142	1
79	106	1
91	95	1
95	97	1
123	128	1
11	14	1
21	52	1
72	75	1
147	151	2
57	57	2
114	146	1
21	23	1
11	84	1
92	103	1
93	102	1
39	47	1
53	56	1
42	44	1
143	147	1
65	65	1
80	82	1
138	141	1
50	50	1
81	82	2
157	159	1
103	103	1
56	57	1
10	11	1
94	112	1
83	91	1
143	148	1
6	12	1
116	121	1
119	120	1
106	111	1
127	129	1
130	131	1
159	168	1
117	117	1
62	62	1
94	95	1
12	17	1
129	129	1
126	144	1
