214	215	2
178	178	9
16	17	3
35	36	3
172	203	2
163	165	2
240	240	5
16	16	7
134	134	4
145	145	10
77	77	4
114	114	3
202	202	6
101	101	5
0	0	5
171	172	1
95	98	2
26	26	6
197	235	1
137	138	2
145	146	1
119	119	3
122	158	2
184	184	7
18	18	7
63	63	6
81	81	3
195	196	3
238	238	4
149	160	4
46	46	8
222	230	1
7	39	1
4	6	3
7	12	2
40	42	3
127	127	6
2	2	13
175	202	2
63	64	2
159	160	2
26	113	2
161	161	6
98	98	7
79	79	8
85	85	11
153	153	9
107	107	5
183	187	1
208	208	4
163	164	2
166	198	1
44	44	2
103	103	7
164	164	7
113	114	2
44	179	2
209	231	1
156	156	6
78	78	9
170	173	1
235	235	3
115	115	4
17	198	2
19	19	5
137	143	1
169	169	2
178	215	2
47	47	6
176	176	5
71	71	6
11	11	7
123	123	4
175	175	8
74	74	8
45	59	1
126	126	3
139	139	8
205	206	4
31	31	9
184	187	4
178	180	2
58	58	7
48	48	3
146	148	4
60	60	6
17	17	6
128	153	1
224	224	3
199	199	7
70	71	1
135	136	4
205	233	2
13	15	3
59	60	6
14	14	12
119	135	1
37	37	6
129	129	4
24	43	1
131	144	1
63	80	2
171	171	6
70	72	2
54	55	2
73	73	3
113	113	9
224	225	4
122	122	6
42	42	5
148	149	3
51	52	3
68	77	2
104	137	1
97	97	3
86	86	5
80	81	3
137	137	7
40	41	1
218	232	1
7	8	4
217	218	3
159	159	9
17	19	3
151	151	8
14	133	2
217	217	4
170	170	10
146	146	6
28	28	5
184	186	3
103	104	4
72	72	5
28	97	1
225	225	6
65	65	6
109	109	3
203	203	7
161	163	1
179	182	1
107	116	1
34	35	4
216	233	1
221	221	2
45	72	1
199	202	1
115	127	2
219	219	2
181	187	3
189	189	8
116	116	7
207	207	3
5	6	2
125	137	3
200	201	1
130	130	4
222	231	3
51	51	1
207	208	2
48	49	5
102	102	4
127	128	5
12	50	1
1	1	5
124	124	6
4	175	1
161	184	1
60	62	1
191	191	1
211	230	1
228	230	2
223	223	2
167	167	8
232	232	6
166	180	1
38	69	1
100	102	1
18	19	3
35	35	4
70	70	4
7	7	9
5	18	1
59	59	4
125	126	1
206	206	4
25	157	1
74	219	1
221	223	1
37	38	2
41	57	1
177	188	1
108	123	1
145	149	2
174	174	8
242	242	5
183	183	3
83	83	4
61	61	6
53	53	8
135	135	4
162	162	7
172	172	8
68	69	2
19	22	3
117	123	1
174	175	2
104	104	4
138	141	1
220	223	2
168	169	2
25	25	5
39	132	1
38	198	1
58	60	4
177	177	8
211	211	1
135	205	1
157	157	5
214	214	3
234	236	1
3	7	2
138	150	1
33	37	1
64	69	2
157	158	2
88	88	5
24	24	6
200	240	2
160	186	1
159	161	1
130	154	3
21	21	5
98	137	1
149	149	3
181	189	1
120	169	1
10	10	7
207	219	1
223	235	2
204	204	4
152	158	2
117	117	4
4	12	1
15	15	7
4	21	4
126	162	2
201	201	2
45	46	2
4	4	4
173	173	9
65	86	2
126	152	1
188	214	2
55	55	7
54	54	5
23	23	5
203	206	1
64	64	6
135	168	1
155	155	5
25	38	1
80	106	1
22	24	2
71	73	2
121	122	1
138	138	8
52	53	3
17	182	2
198	198	5
196	197	1
30	30	11
140	140	6
13	13	4
160	160	2
95	95	3
144	151	1
12	114	1
47	149	1
120	120	5
121	121	6
187	187	12
36	36	5
39	39	6
78	240	1
40	148	1
34	34	4
210	213	1
56	66	2
29	31	1
22	23	2
84	84	8
62	62	6
199	241	2
107	173	1
25	26	2
2	6	1
41	42	4
76	77	1
11	12	2
182	182	5
21	34	1
209	209	2
56	70	1
9	9	6
169	172	2
161	183	1
28	78	1
131	131	2
136	136	5
231	237	1
20	25	2
218	242	1
10	15	3
38	38	5
115	116	3
221	222	1
106	106	7
12	12	3
230	230	4
100	100	3
39	51	1
21	157	1
80	83	1
230	231	1
158	158	9
108	109	3
167	168	4
61	135	2
22	22	8
82	82	3
34	55	1
104	107	1
68	68	5
192	215	1
12	67	1
115	151	2
24	25	3
18	66	1
102	103	1
5	8	2
165	165	4
193	193	5
206	225	1
197	198	2
218	218	3
48	53	2
170	204	2
181	181	2
168	168	7
185	185	5
170	177	1
69	69	6
99	99	1
38	95	1
20	38	1
103	106	1
182	219	1
172	234	1
2	3	4
66	145	1
48	84	1
0	43	1
108	151	1
121	183	1
150	150	5
10	222	1
8	8	5
47	67	1
75	75	4
89	107	1
227	227	2
49	49	1
222	222	1
159	180	1
12	66	1
152	152	5
76	76	3
175	214	2
210	210	2
19	20	2
62	120	1
175	183	1
236	237	2
79	81	1
166	168	1
154	154	4
41	41	3
5	5	6
126	127	3
199	201	1
196	196	3
235	237	2
149	153	1
67	67	2
212	212	1
215	215	5
206	220	1
3	3	7
74	75	1
173	174	3
91	91	1
56	56	7
52	52	2
100	103	1
24	46	1
55	75	3
108	108	6
181	185	1
128	128	2
12	13	3
33	33	8
190	197	1
46	47	1
180	180	4
105	105	2
0	1	1
169	171	2
123	125	3
188	188	2
29	29	9
146	165	1
152	188	1
6	21	1
50	80	1
152	153	3
47	48	2
232	238	1
123	144	1
112	112	1
11	13	1
120	130	1
91	121	1
205	229	1
161	162	2
177	187	1
160	161	2
165	187	1
143	143	2
27	27	7
191	203	1
177	242	1
115	117	2
208	219	1
142	142	2
108	133	2
136	152	1
57	57	4
137	144	1
205	205	3
147	147	3
129	130	1
190	190	1
158	188	1
75	171	1
117	150	1
185	187	1
38	39	1
166	166	4
37	47	2
77	78	1
5	19	1
22	81	1
240	242	2
132	160	1
44	73	1
139	142	2
104	144	1
69	70	2
154	155	7
46	160	2
178	179	2
6	6	2
192	192	3
112	113	1
159	178	1
188	213	1
12	21	1
117	119	1
0	32	1
153	155	2
140	141	3
163	163	1
45	45	4
210	211	2
147	151	1
78	80	1
174	182	1
66	66	5
3	9	1
187	213	1
118	118	3
116	144	1
231	231	7
169	170	1
129	234	2
149	150	2
103	195	1
85	113	2
226	226	1
219	234	1
142	144	1
20	20	4
28	167	1
53	54	2
80	84	4
140	178	1
114	132	1
203	236	1
104	105	1
49	51	1
228	228	1
140	163	1
66	67	2
193	199	1
79	80	2
118	120	1
133	162	1
130	131	1
96	97	1
133	133	3
26	238	1
84	162	1
125	125	3
41	53	1
234	234	3
144	147	1
15	122	1
116	117	1
76	80	2
11	173	1
66	68	1
18	154	2
140	153	1
146	154	1
149	164	1
29	98	1
33	34	1
10	38	1
10	27	1
47	184	1
18	34	2
21	41	1
101	102	2
9	11	2
9	10	2
175	176	2
46	66	1
139	163	1
127	178	1
164	165	1
166	169	1
179	179	2
12	32	1
105	106	1
141	141	2
68	80	1
186	187	4
21	156	1
108	110	1
118	119	1
18	60	1
34	36	2
173	176	2
122	139	1
147	148	1
190	191	1
238	242	2
134	161	1
186	186	4
142	143	2
107	108	1
150	161	1
55	98	1
98	99	2
136	154	1
51	81	1
136	171	1
216	216	2
132	132	1
125	155	1
154	179	1
233	234	2
73	74	1
162	163	1
152	157	1
199	236	1
19	151	1
105	207	1
206	213	2
18	22	2
22	41	1
7	189	1
116	126	1
64	65	1
50	77	1
148	148	2
195	195	1
22	58	1
111	112	2
61	88	1
136	137	1
161	164	1
48	67	1
29	66	1
121	128	1
180	182	1
181	213	1
159	173	1
101	109	1
105	120	1
12	53	1
170	175	1
119	182	1
21	58	1
108	134	1
147	163	1
17	199	2
81	82	2
81	84	1
122	206	1
109	120	1
2	26	1
39	80	1
25	39	1
45	69	1
121	130	1
179	181	1
36	65	1
71	72	1
140	149	1
30	129	1
111	159	1
140	142	2
155	156	1
190	219	1
190	228	1
59	80	1
107	126	1
85	114	1
180	183	2
109	111	1
49	50	1
152	155	1
17	18	1
128	135	1
162	186	1
143	174	1
213	213	1
156	157	2
193	195	2
8	9	1
198	199	1
103	108	1
241	241	2
10	43	1
235	236	2
13	53	1
57	58	1
133	135	1
70	73	1
139	140	1
29	30	1
192	193	1
185	186	1
20	65	1
170	171	1
178	192	1
32	32	1
239	239	2
189	210	1
222	223	1
165	174	1
45	63	1
89	89	1
202	230	1
50	50	1
184	185	2
97	121	1
65	74	1
215	216	1
56	57	3
27	28	2
150	151	1
218	219	1
15	119	1
80	80	3
43	43	3
135	177	2
1	7	1
208	233	1
229	230	1
32	33	2
7	23	1
13	14	1
151	154	1
8	26	1
21	23	1
20	138	2
160	171	1
99	126	1
203	219	1
50	51	1
35	78	1
153	158	1
160	168	1
204	206	1
124	134	1
171	191	1
44	45	1
127	160	1
129	135	1
3	31	1
126	165	1
141	152	1
135	146	1
113	136	1
68	169	1
27	42	2
146	149	1
1	5	1
97	130	1
128	159	1
45	85	1
198	202	1
151	160	2
16	119	1
76	78	1
204	235	1
58	59	1
220	228	1
162	164	1
143	166	1
158	165	1
172	182	2
12	14	1
204	233	1
24	69	1
36	49	1
24	75	1
39	42	1
102	106	1
10	12	1
173	187	1
120	170	1
119	144	1
199	211	1
112	152	1
121	148	1
0	59	1
111	111	1
13	199	1
238	239	1
50	59	1
18	168	1
9	23	1
0	45	1
189	190	1
206	230	1
172	236	1
26	27	1
14	185	1
144	145	1
205	207	1
103	105	2
27	43	1
14	76	1
11	121	1
145	151	1
23	58	1
83	118	1
175	218	1
60	106	1
113	128	1
13	34	1
39	73	1
50	58	1
40	200	1
43	44	1
196	200	1
164	189	1
134	137	1
197	200	1
31	32	1
56	108	1
51	82	1
58	67	1
160	180	1
123	150	1
237	237	1
10	217	1
183	186	1
167	181	1
139	158	1
200	200	1
