25	26	6
28	28	4
71	71	6
27	27	11
79	79	21
24	24	20
63	64	4
51	51	16
88	89	3
77	77	17
12	12	10
89	89	6
13	13	11
0	0	10
26	26	10
15	15	5
4	8	2
11	11	10
23	24	3
9	9	12
10	19	1
1	1	10
55	73	2
65	72	1
50	50	9
17	17	9
10	11	2
55	55	4
61	62	3
6	6	7
3	3	14
81	89	1
70	70	7
85	85	19
30	31	2
82	82	19
19	19	9
30	67	1
57	66	1
16	16	3
25	69	1
5	5	10
58	59	5
76	76	13
64	64	6
66	66	17
52	52	5
47	47	8
88	88	4
61	61	6
21	21	7
87	87	18
78	78	12
2	2	4
23	81	1
57	57	3
51	53	1
29	29	5
19	21	1
23	26	2
19	20	5
5	6	5
25	27	3
9	10	2
69	69	7
72	84	1
66	72	1
53	53	12
78	80	2
80	80	17
72	72	8
81	82	4
54	55	1
0	1	1
75	75	9
50	53	4
8	16	1
10	10	12
47	69	1
82	83	9
49	49	6
54	61	1
32	80	1
23	67	2
48	48	11
14	14	6
62	62	5
67	67	11
7	7	11
86	87	5
54	54	11
71	72	2
83	83	11
78	81	4
53	66	3
19	24	1
62	63	2
84	84	23
4	4	13
3	5	1
5	13	2
51	65	1
59	66	1
17	74	1
22	24	1
67	68	3
64	65	3
7	13	1
81	81	13
26	56	1
70	83	1
60	61	3
20	27	1
3	4	3
68	68	7
8	8	9
53	55	2
26	27	1
55	56	2
47	48	4
32	32	2
65	65	11
20	20	1
47	77	1
30	30	5
74	74	5
65	80	1
63	65	3
56	56	5
86	86	9
7	8	1
47	55	1
67	70	2
75	76	1
65	66	3
51	60	1
34	34	8
58	58	5
10	47	1
13	25	2
70	71	2
31	33	2
48	49	1
56	57	3
22	23	3
60	60	7
61	66	2
6	8	2
31	31	5
52	59	2
17	18	1
13	20	1
71	74	1
29	30	1
54	67	1
59	59	7
50	52	1
75	78	2
90	90	4
6	7	1
53	54	6
78	86	1
4	10	2
75	84	1
10	68	1
57	58	2
13	17	1
50	68	1
48	68	1
23	23	1
11	15	2
47	49	1
63	63	7
8	9	3
15	16	2
5	46	1
73	82	1
6	20	2
35	35	1
68	69	3
14	15	1
56	84	1
56	85	1
83	84	1
27	28	3
73	73	10
81	88	3
22	22	3
72	74	1
59	65	1
53	57	1
46	46	2
79	82	1
80	81	2
85	88	1
24	69	1
5	9	1
10	87	1
48	50	1
6	30	1
87	88	1
48	67	1
49	50	2
62	82	1
25	25	4
1	2	3
46	64	1
75	82	1
5	79	1
71	90	1
47	57	1
79	80	3
3	19	1
72	73	3
79	85	1
50	74	1
85	86	1
50	58	2
50	78	1
24	66	1
53	56	2
48	55	1
11	12	1
12	14	1
89	90	2
11	67	1
30	66	1
12	13	2
66	79	1
81	83	2
17	27	1
1	15	1
55	57	1
47	66	1
34	35	2
74	75	3
9	26	1
31	58	1
6	17	2
58	77	1
57	85	1
77	83	2
21	22	1
50	51	2
56	73	1
16	17	2
80	82	1
48	76	1
20	22	1
68	83	1
47	58	1
30	47	1
63	66	1
73	74	2
31	79	1
9	17	1
57	73	1
61	63	1
28	29	1
76	77	2
61	79	1
8	12	1
6	13	1
17	19	1
11	14	2
74	83	1
34	82	1
48	82	1
18	18	1
59	60	3
74	78	1
50	66	2
3	13	1
28	89	1
7	12	1
62	71	1
8	10	1
80	83	1
5	71	1
63	78	1
66	67	1
0	30	1
11	20	1
56	58	1
58	68	1
84	85	1
46	47	1
21	27	1
73	77	1
70	77	1
50	75	1
72	85	1
5	7	1
20	31	1
61	83	1
11	85	1
71	79	1
69	70	1
4	5	1
