56	56	2
155	157	1
76	76	3
148	148	1
96	96	2
6	7	1
133	135	1
10	11	3
78	124	1
17	17	2
53	53	2
112	112	1
7	7	2
15	15	3
138	139	3
3	3	2
105	126	1
4	6	1
5	7	1
155	155	2
164	164	2
70	70	1
105	105	1
6	14	1
80	106	2
164	166	1
162	162	1
157	157	1
105	106	1
36	36	1
8	49	1
2	22	1
114	115	3
106	106	1
42	167	1
130	130	5
19	19	2
33	33	3
142	142	2
43	43	3
149	149	2
34	34	2
38	92	2
54	55	1
154	166	2
142	145	1
136	136	3
72	72	1
102	102	1
6	6	4
50	50	3
119	122	1
16	16	3
127	127	3
45	45	3
14	26	1
118	158	1
168	168	4
88	88	2
37	37	2
71	71	1
124	124	5
35	35	1
46	47	3
79	80	2
68	70	2
57	63	2
10	10	4
27	27	7
154	154	1
26	27	1
169	169	3
107	108	2
11	13	1
14	14	4
41	111	1
27	149	1
147	148	1
120	120	1
168	169	1
64	64	3
2	11	1
126	126	2
83	84	1
139	139	8
108	108	1
121	122	1
169	170	1
158	167	1
134	134	1
41	47	2
90	90	1
118	119	2
41	41	2
159	167	1
46	169	2
93	93	1
19	50	1
91	96	1
19	20	1
118	118	2
5	5	4
44	45	2
46	49	1
95	119	1
12	12	1
113	113	2
12	112	1
20	21	2
138	155	1
13	49	1
51	51	2
123	123	1
162	164	1
104	104	2
90	91	2
159	159	5
156	156	2
135	135	2
33	138	1
107	159	1
21	45	1
13	13	1
158	158	1
39	76	1
8	10	1
110	147	1
106	108	1
138	164	1
39	39	2
80	90	1
93	118	1
97	97	2
91	92	1
65	67	2
11	11	1
165	165	2
49	49	3
25	25	3
45	46	1
8	12	1
126	136	1
46	46	2
100	100	4
42	43	1
101	102	1
85	86	1
111	111	1
8	8	1
2	5	1
44	44	1
9	10	1
141	142	1
140	140	1
19	33	1
47	53	1
34	35	1
116	157	1
54	54	2
3	27	1
49	50	2
141	161	1
125	125	1
147	147	1
135	136	1
101	101	4
27	34	1
101	107	1
83	85	1
130	132	1
23	23	3
78	81	1
110	110	1
20	25	1
84	84	1
105	134	1
57	57	1
96	97	1
144	144	3
43	111	1
18	18	3
148	163	1
55	55	1
69	71	1
94	94	1
133	136	1
138	138	1
132	132	2
161	162	2
36	37	1
76	88	1
125	126	1
74	91	1
164	165	1
43	74	1
22	22	1
146	147	1
83	122	2
39	65	1
2	2	1
121	121	1
95	96	1
92	92	1
0	0	1
1	1	2
120	143	2
52	52	2
5	6	1
127	128	1
4	4	1
40	40	2
142	143	1
28	28	1
111	117	1
151	151	1
67	67	1
153	153	1
107	158	2
42	42	1
100	101	1
38	38	1
132	133	1
113	154	1
19	21	1
90	107	1
73	73	1
133	133	1
9	9	1
144	158	1
126	134	1
35	36	1
125	135	1
149	159	1
105	118	1
