29	29	4
94	94	5
105	105	1
114	114	3
131	131	2
74	125	3
33	33	3
54	54	5
85	85	2
61	61	4
112	112	4
126	127	1
123	124	2
109	109	4
106	106	4
54	109	1
24	24	3
66	130	2
104	106	1
23	39	1
67	68	1
33	34	2
93	94	1
24	25	1
58	59	3
50	50	3
41	41	4
82	82	4
31	31	1
81	81	2
98	98	2
42	42	2
126	126	2
73	128	1
59	60	1
49	49	3
34	39	1
55	56	1
19	19	3
80	80	2
1	1	1
3	3	2
55	55	3
76	76	2
115	115	3
15	15	8
124	124	2
65	66	1
104	107	2
33	48	1
98	99	1
59	63	2
96	98	1
43	83	1
0	0	2
122	122	3
130	131	1
96	96	5
113	114	1
45	103	1
130	130	6
44	44	3
99	99	1
116	116	2
50	132	1
69	69	5
68	68	2
127	127	4
104	105	2
82	83	1
88	88	1
108	108	4
71	71	2
65	129	1
48	48	2
70	70	3
121	121	2
128	129	1
23	23	2
102	102	2
1	4	1
66	69	1
77	77	2
93	110	1
92	92	1
69	70	1
43	85	1
112	113	1
6	6	2
118	118	3
44	79	1
7	7	1
78	78	1
110	111	1
94	124	1
13	22	1
45	46	1
39	40	2
66	66	3
0	6	2
58	78	2
72	74	1
2	3	1
100	100	2
96	105	2
46	96	1
89	89	3
24	34	1
91	92	1
120	120	1
22	23	2
51	51	5
97	99	4
105	106	2
4	4	6
72	73	1
63	71	1
66	67	4
78	81	1
52	52	1
114	116	1
101	102	1
45	45	3
5	5	1
43	43	2
121	122	2
115	116	1
107	107	2
9	9	2
82	85	1
50	131	2
64	78	1
104	104	3
61	62	1
86	87	1
46	46	2
22	22	2
24	30	1
98	105	1
4	113	1
59	59	2
14	14	2
127	128	1
90	90	1
97	97	3
94	95	2
38	38	3
100	102	1
114	120	1
26	56	1
13	14	1
120	121	1
67	69	2
48	49	1
61	75	2
68	69	1
32	33	1
30	30	1
66	85	1
27	27	2
73	74	1
50	53	1
53	53	1
110	110	2
101	101	1
11	12	1
78	79	1
51	69	1
34	49	1
109	119	2
123	123	2
41	43	1
64	64	2
72	72	2
119	119	2
32	58	1
99	126	1
67	67	2
54	113	1
57	57	1
51	52	1
73	90	1
95	95	1
10	10	1
128	128	1
132	132	1
78	128	1
70	71	1
65	70	1
122	123	1
31	39	1
56	56	3
27	56	1
126	128	1
83	83	2
68	91	1
76	83	1
26	26	1
79	79	1
97	98	1
74	74	1
82	84	1
103	103	1
131	132	2
17	39	1
32	32	2
87	87	1
104	123	2
109	110	1
51	53	1
86	88	1
58	72	1
70	72	1
58	75	1
105	107	1
49	50	1
76	77	1
63	63	1
113	113	1
16	16	1
