40	42	1
40	40	4
124	126	1
48	48	5
66	69	1
51	52	1
42	42	4
30	30	3
35	38	1
95	95	5
3	3	2
104	104	2
100	105	1
54	54	4
11	12	1
67	67	2
78	79	2
18	19	1
135	137	1
43	45	4
17	17	6
125	125	1
34	34	4
117	119	3
94	94	5
9	24	1
106	108	2
45	45	8
97	99	1
7	13	1
44	44	2
68	70	1
56	56	4
32	32	3
35	76	1
31	32	2
21	22	3
57	57	4
4	4	4
128	128	3
58	58	1
95	96	4
134	134	6
32	53	1
34	35	2
53	53	3
11	11	8
72	72	3
107	108	2
80	80	5
109	109	4
14	14	2
137	137	5
52	53	2
3	8	3
131	131	2
97	98	1
144	145	3
22	22	3
16	16	5
68	68	7
134	138	2
111	122	1
136	136	6
110	110	4
29	30	2
77	78	2
10	10	3
20	65	1
54	55	3
153	153	7
74	80	1
31	31	3
151	151	5
136	144	1
132	132	1
86	105	1
75	75	4
30	33	1
23	23	5
144	144	5
106	106	8
38	38	5
128	129	2
76	86	2
103	103	4
81	81	2
82	97	1
33	33	4
114	114	2
7	33	1
9	9	3
79	79	2
39	43	1
135	135	3
93	94	3
65	67	3
125	132	2
148	148	2
61	65	1
106	125	1
42	58	2
47	47	4
148	150	1
44	51	1
73	102	3
35	37	1
11	67	1
127	127	3
122	122	6
85	85	7
25	25	5
138	138	7
81	82	1
127	148	1
129	129	5
5	7	3
41	138	1
12	12	1
107	137	2
15	31	1
7	7	3
81	84	2
105	105	2
51	51	4
48	51	2
110	137	1
86	90	2
43	43	9
109	150	1
46	46	4
5	5	4
148	149	3
146	146	2
2	21	1
21	25	1
82	94	1
39	39	5
62	66	1
69	123	1
22	23	3
140	145	1
65	71	1
30	38	1
15	16	4
123	132	3
64	64	2
82	82	4
117	117	5
13	13	5
108	111	1
113	113	6
125	127	1
25	39	1
138	142	1
15	15	3
141	145	1
152	153	1
104	108	2
106	114	1
84	84	4
24	27	2
26	46	2
11	19	2
72	74	1
70	70	3
101	102	1
21	21	5
9	10	2
83	84	3
139	139	4
87	87	3
102	102	6
107	110	1
119	119	3
72	73	1
74	76	1
126	126	2
111	111	3
120	138	1
3	9	1
41	46	3
63	63	2
24	24	2
28	28	4
105	111	1
25	34	1
142	142	4
95	99	1
29	34	1
107	109	1
79	88	1
112	131	2
46	73	1
133	134	1
129	132	1
65	65	3
109	118	1
24	26	1
99	99	1
130	138	1
88	88	2
140	143	1
10	17	2
64	73	3
16	23	1
50	54	1
10	132	1
74	74	2
6	137	1
116	116	4
17	18	1
18	18	3
12	25	1
128	131	2
125	128	1
68	71	1
34	36	2
63	64	1
83	88	1
73	73	4
23	25	1
36	36	3
149	151	2
76	76	2
151	152	1
6	6	1
39	56	1
131	134	2
10	11	2
131	150	1
112	112	2
113	116	1
31	38	1
154	154	1
140	140	2
115	126	1
54	64	1
118	118	3
30	67	1
38	40	1
48	49	1
30	31	2
152	152	5
117	149	1
100	101	2
93	100	2
37	37	5
33	36	1
98	98	4
35	64	2
79	82	1
6	10	1
133	133	5
140	146	1
98	105	1
118	119	1
126	128	1
23	31	1
50	50	2
28	121	1
122	148	2
105	110	1
42	44	1
46	48	1
108	114	1
15	19	1
114	150	1
98	99	2
4	5	3
117	121	1
129	130	1
63	71	1
107	119	1
41	42	5
11	132	1
77	118	1
33	81	1
62	62	2
32	34	1
3	4	1
8	8	1
72	82	1
19	20	2
17	22	1
69	85	1
102	122	1
108	108	4
69	69	2
69	108	1
126	144	2
145	145	3
78	81	1
42	43	2
102	103	1
153	154	1
102	111	1
115	116	2
145	146	4
78	78	3
33	34	1
73	98	1
143	143	2
2	2	1
56	57	2
65	102	1
136	137	2
29	29	4
127	128	1
102	135	1
19	29	1
130	130	1
56	75	1
22	31	1
35	35	1
150	153	1
13	14	1
5	6	1
94	95	1
12	138	1
14	15	1
13	22	1
103	106	1
19	39	1
39	40	1
35	36	1
63	101	1
113	114	2
141	141	2
85	90	1
63	132	1
96	98	2
3	21	1
86	107	1
83	83	1
93	93	3
50	53	1
124	129	1
12	13	1
15	34	1
146	148	1
25	29	1
9	39	1
86	93	1
80	106	1
121	121	1
46	88	1
14	35	1
70	77	1
47	87	1
130	151	1
102	113	2
96	96	1
7	9	2
107	153	1
23	30	1
139	143	1
82	83	1
86	86	1
107	107	4
64	65	1
111	121	1
51	64	1
124	150	1
27	27	3
24	42	2
80	81	1
78	92	1
61	63	1
123	123	1
61	141	1
84	85	1
26	28	1
25	26	1
100	102	1
100	100	1
125	139	2
71	102	1
39	45	1
104	106	1
77	77	2
127	130	1
45	46	1
57	97	1
132	146	1
42	103	1
81	88	1
149	149	3
8	19	1
26	33	1
112	144	1
123	124	1
30	66	1
82	115	1
45	50	1
139	145	1
97	111	2
73	96	1
11	15	1
144	146	1
115	115	1
119	129	1
75	80	1
80	83	1
10	33	1
138	139	1
19	19	1
112	113	1
5	8	1
51	55	1
96	106	1
38	39	1
150	150	1
95	103	1
73	74	1
7	17	1
122	132	1
87	96	1
28	34	1
97	126	1
141	142	1
142	146	1
63	67	1
10	15	1
132	135	1
82	96	1
33	40	1
120	120	1
130	134	1
101	122	1
97	97	2
147	148	1
79	91	1
73	76	1
33	37	1
46	50	1
31	54	1
92	94	1
71	71	1
40	43	1
77	80	1
101	101	1
4	6	1
95	109	1
87	116	1
31	77	1
40	82	1
111	117	1
72	78	1
15	109	1
66	77	1
121	124	1
16	51	1
117	118	1
61	74	1
10	14	1
131	148	1
117	125	1
36	40	1
110	116	1
48	53	1
62	63	1
40	54	1
96	110	1
93	96	1
71	77	1
37	38	1
53	55	1
95	101	1
62	79	2
15	96	1
68	69	1
40	50	1
50	52	1
34	41	1
41	43	1
65	105	1
55	55	1
134	135	1
26	32	1
120	127	1
20	21	1
113	125	1
9	38	1
75	76	1
