183	183	2
6	6	8
22	153	1
197	197	10
57	58	6
226	236	1
208	208	9
170	170	12
235	235	9
185	185	15
17	17	8
39	39	7
100	109	2
172	199	1
165	166	6
157	157	9
246	246	3
78	119	1
99	99	6
169	169	5
38	38	16
71	74	1
233	235	1
177	177	14
54	54	7
223	223	6
247	247	7
6	7	2
83	105	2
247	248	3
115	116	2
52	53	2
27	27	5
245	245	15
49	49	9
43	43	8
240	240	7
28	30	1
153	153	6
159	159	8
151	151	9
236	236	6
238	238	5
221	222	4
89	90	4
238	248	2
164	201	1
21	22	1
189	189	5
34	34	6
181	182	3
203	203	4
77	77	5
212	212	13
108	176	1
200	200	9
226	226	2
50	51	4
214	214	7
232	234	1
49	50	5
39	151	1
21	21	6
1	1	4
58	58	2
239	239	7
18	18	13
223	231	1
106	175	1
87	87	3
215	217	2
4	4	14
94	94	7
4	5	2
15	15	12
211	211	12
195	195	3
230	246	1
235	243	1
19	19	7
219	219	10
43	53	1
88	100	1
11	11	5
36	45	2
168	174	1
41	48	2
210	211	3
88	105	2
151	153	1
154	154	12
183	186	1
98	99	5
62	62	3
193	193	6
81	81	2
204	204	9
24	24	5
221	226	1
231	231	7
66	66	3
101	110	1
79	79	1
158	158	2
54	55	2
150	158	1
40	40	2
62	221	1
228	228	7
188	188	4
205	205	9
221	221	8
95	101	1
171	172	6
26	26	11
209	211	1
8	42	2
207	207	14
157	162	1
192	192	6
73	73	2
164	164	9
0	0	2
187	187	3
21	45	1
12	12	9
199	199	6
22	22	15
60	72	1
8	14	1
45	46	1
161	161	5
7	7	5
42	42	9
237	239	3
102	102	2
118	152	1
152	156	1
59	63	1
209	209	8
86	86	8
59	59	5
103	103	3
89	89	9
23	28	2
240	244	2
3	3	8
70	70	6
47	47	7
229	230	4
48	48	12
238	247	1
218	218	7
68	69	3
201	201	7
114	114	6
145	145	3
192	193	1
29	29	8
234	235	3
19	42	1
55	55	8
54	58	1
115	115	4
80	84	1
232	249	2
186	186	8
100	119	2
82	83	2
218	248	1
208	209	1
72	72	4
167	226	1
44	44	7
155	155	7
161	171	1
216	218	3
5	5	13
37	37	12
8	45	1
14	17	2
68	70	1
213	218	5
55	56	2
183	205	1
70	74	1
167	167	8
94	95	2
176	177	3
27	160	1
85	85	4
212	223	1
32	32	9
2	2	5
214	215	3
175	175	9
95	95	6
163	197	2
16	28	2
184	184	5
45	45	8
226	227	5
57	72	2
183	214	2
65	65	6
52	52	10
2	5	3
14	14	8
241	241	11
237	237	6
225	225	10
159	165	1
71	72	4
78	85	2
29	30	4
120	120	4
110	110	9
246	249	1
150	156	2
42	46	1
8	207	1
223	237	1
230	230	8
61	61	3
43	52	2
217	239	1
152	152	8
164	177	1
144	145	2
96	98	2
85	87	1
25	25	9
224	225	4
56	167	1
84	85	1
177	182	2
74	97	1
29	63	1
166	166	6
37	38	1
57	57	4
28	28	6
199	218	1
224	224	8
191	191	5
5	34	1
17	19	2
3	4	1
107	108	1
106	106	6
213	226	1
172	172	6
182	184	2
21	205	1
119	119	6
74	75	1
90	184	1
145	147	1
176	211	1
88	88	8
20	20	5
65	66	2
33	150	2
179	179	7
243	243	5
191	200	1
41	41	6
82	107	1
115	156	1
176	176	4
235	236	1
67	67	4
159	161	2
13	15	1
106	107	1
54	114	1
181	183	1
10	11	2
16	16	8
113	113	5
200	212	3
3	36	1
158	184	2
85	178	1
87	172	1
210	210	9
86	87	3
8	10	2
198	199	5
88	98	2
42	44	1
56	59	1
69	69	4
168	168	4
109	109	8
32	33	2
244	244	7
215	215	5
98	98	5
100	100	1
237	238	3
4	50	1
78	79	1
161	192	2
28	35	1
38	44	3
8	11	1
192	235	1
161	181	1
33	66	1
51	51	6
85	86	1
236	240	2
32	39	1
53	53	6
240	241	2
234	234	7
209	244	4
184	205	1
242	243	1
10	17	1
93	93	3
182	182	8
181	181	12
23	23	9
213	213	3
237	242	2
111	111	7
48	50	2
46	46	9
96	96	5
180	180	3
188	192	1
60	62	1
217	217	10
116	116	5
10	10	10
78	78	7
216	216	5
196	196	7
39	40	1
74	74	4
2	3	2
149	174	1
7	24	2
53	168	1
232	233	1
184	185	5
233	247	1
232	238	3
70	118	1
239	244	1
32	54	2
169	170	1
76	76	9
165	165	8
119	120	1
17	70	1
212	213	4
241	243	2
215	231	1
171	171	7
168	169	2
211	225	1
220	220	10
171	178	1
9	9	12
166	200	1
183	184	4
65	67	1
178	202	1
76	79	1
158	159	2
77	86	2
19	22	2
118	200	1
201	203	1
6	34	1
180	181	3
203	205	2
29	44	1
161	165	2
234	238	3
72	73	2
229	229	8
168	227	1
150	150	8
155	156	1
91	92	1
54	76	3
209	210	1
80	86	1
157	184	1
90	91	1
69	70	1
64	65	2
160	160	7
60	61	2
170	172	3
101	102	1
166	170	1
56	56	5
77	113	1
65	94	1
221	225	1
4	6	1
100	108	1
112	112	6
44	45	1
235	237	1
198	198	7
25	26	2
151	152	1
116	120	1
200	235	3
232	246	1
91	91	3
17	49	1
213	215	3
44	207	1
10	16	1
183	203	1
243	246	1
232	232	7
17	28	1
62	63	2
147	176	1
64	64	5
178	178	5
166	167	1
231	234	3
81	82	2
47	67	1
156	227	1
72	100	1
11	26	1
71	83	1
188	209	1
203	204	6
86	88	1
105	105	3
213	224	1
190	191	1
118	118	6
194	195	1
32	34	1
238	242	2
18	40	1
219	220	1
220	241	3
173	175	1
191	192	3
10	157	1
173	174	2
62	69	2
57	60	1
86	101	1
50	50	3
204	230	1
8	34	1
75	93	1
227	227	8
35	35	8
190	190	5
232	237	1
150	157	1
159	179	1
196	211	1
31	31	4
35	36	2
36	36	13
189	190	4
145	150	2
14	15	4
68	97	1
15	20	1
60	154	1
185	200	1
179	180	2
33	33	5
5	6	1
31	32	1
163	163	4
47	48	3
214	237	1
24	26	1
155	230	1
50	104	1
230	235	1
166	204	1
6	24	1
74	110	1
174	213	1
56	57	3
193	198	1
45	50	2
182	183	2
23	24	4
189	192	1
200	208	1
34	42	1
211	230	1
92	94	1
163	166	1
5	9	1
211	212	5
174	176	1
186	192	2
15	245	1
236	244	2
171	198	1
67	87	1
80	80	3
112	113	3
208	223	1
185	188	1
51	57	2
193	195	2
167	168	2
222	249	1
202	202	6
230	231	1
165	213	1
118	119	1
13	13	2
54	68	1
215	216	1
76	78	1
30	30	9
169	172	1
174	175	2
42	43	2
206	206	2
20	21	1
73	74	1
49	77	1
195	196	1
201	224	1
245	246	2
194	194	7
25	48	2
217	218	2
235	246	1
105	107	3
27	28	3
46	47	1
243	244	2
26	27	2
44	228	1
90	99	1
99	100	1
186	188	2
3	54	1
20	46	1
42	45	1
173	173	3
61	74	2
177	209	1
175	181	1
158	160	1
156	156	6
178	179	4
117	117	7
227	233	1
117	118	2
59	75	1
72	75	1
109	164	1
94	108	1
114	145	1
53	54	2
78	223	2
36	41	1
186	210	1
202	225	1
92	92	2
184	225	1
223	224	3
4	249	1
228	230	1
211	213	1
116	117	1
233	233	6
231	233	2
109	110	1
228	229	2
197	203	1
102	105	1
52	78	1
67	70	1
23	32	1
172	178	2
248	248	4
225	231	1
206	207	2
185	186	1
101	104	1
180	198	2
53	113	1
14	66	1
24	35	1
11	32	1
197	198	4
21	35	1
232	240	1
38	39	1
235	245	1
55	57	2
174	174	5
85	90	1
40	71	1
234	240	1
60	60	2
199	200	1
213	214	3
154	155	1
83	84	1
35	41	2
71	93	1
194	200	1
108	108	5
156	231	1
93	94	2
27	29	1
18	19	1
41	63	1
46	71	1
71	98	1
76	77	1
239	242	1
85	180	1
53	167	1
216	217	3
146	146	2
172	174	1
162	163	1
34	38	1
68	71	1
61	84	1
70	72	1
149	149	1
88	95	1
217	241	1
173	202	1
156	157	1
191	197	1
183	185	1
39	47	1
79	81	1
107	107	4
201	202	1
214	236	1
227	228	2
71	75	1
33	235	1
194	211	1
104	104	3
167	220	1
80	81	1
12	17	1
71	71	1
63	105	1
102	104	2
178	181	1
40	41	1
214	216	2
12	15	1
75	75	1
174	186	1
219	231	2
80	82	2
172	186	1
170	171	3
195	197	2
52	233	1
112	114	3
87	88	1
165	167	1
24	27	1
156	178	1
165	196	1
15	247	1
68	68	1
186	237	1
179	181	1
183	202	2
228	231	1
80	99	1
49	62	1
165	181	1
8	9	1
183	189	1
151	167	1
160	180	1
5	7	1
55	62	1
48	68	1
163	225	1
50	58	2
96	100	1
90	90	1
156	159	1
162	162	3
207	210	1
223	227	1
222	222	4
67	88	1
216	222	1
97	97	1
186	191	2
236	237	1
112	117	2
190	218	1
37	39	1
38	145	1
193	194	1
215	220	1
221	232	1
70	71	2
242	244	1
202	208	2
55	58	1
47	57	1
187	188	1
166	197	1
144	144	1
90	94	1
200	209	1
12	35	1
33	34	2
93	227	1
166	173	1
67	68	1
52	182	1
103	104	1
199	202	1
192	211	1
43	44	1
236	238	1
96	114	1
226	228	1
83	85	1
59	68	1
180	182	2
16	23	1
220	224	1
78	86	1
58	60	1
22	32	1
204	205	1
211	220	1
7	229	1
107	112	1
186	190	1
183	208	1
6	52	1
45	155	1
167	169	1
58	103	1
63	65	1
55	76	2
84	87	1
167	200	2
175	176	1
71	85	1
29	39	1
77	78	1
150	151	2
96	99	1
236	243	1
53	64	1
210	242	1
7	10	1
172	173	1
224	235	1
164	167	1
200	204	1
235	238	1
171	219	1
2	60	1
209	213	1
16	67	1
241	244	1
91	93	1
9	44	1
31	46	1
101	101	1
101	106	1
7	8	1
94	101	1
29	35	1
63	93	1
69	95	1
109	113	1
187	189	1
199	220	1
10	156	1
8	8	2
205	206	1
58	63	1
157	176	1
85	194	1
114	115	1
113	118	1
49	88	1
82	82	1
233	239	1
167	196	1
33	39	1
84	92	1
84	84	1
25	71	1
52	74	1
179	182	1
4	215	1
55	70	1
190	196	1
153	159	1
88	111	1
63	235	1
229	233	1
177	178	1
59	60	1
50	54	1
30	31	1
198	218	1
7	25	2
0	36	1
11	12	1
44	166	1
21	92	1
208	232	1
9	10	1
0	4	1
46	53	2
92	109	1
112	115	1
22	26	1
67	249	1
93	100	1
212	225	1
220	221	1
77	84	1
43	46	1
50	69	1
16	193	1
20	23	1
22	27	1
214	247	1
15	16	1
193	199	1
