84	85	2
3	14	1
132	132	3
5	16	1
8	8	4
27	59	2
36	36	3
18	23	1
135	136	1
88	88	4
15	15	6
11	57	1
127	127	2
27	28	1
171	171	2
50	50	2
79	80	1
135	135	3
14	43	1
9	9	1
43	43	5
168	168	4
87	101	2
100	100	4
38	53	1
40	61	1
172	174	1
34	34	1
152	152	3
4	36	1
102	102	2
32	33	2
22	22	5
141	149	1
126	126	3
29	38	1
166	167	3
142	142	1
130	130	4
71	71	2
82	83	1
34	35	2
92	92	5
65	67	1
116	116	1
157	157	2
141	150	1
87	87	3
145	145	2
167	167	2
3	15	1
104	121	2
151	151	4
51	51	3
177	177	2
154	156	2
126	128	2
22	23	4
71	76	1
27	27	4
64	65	1
126	149	1
26	26	7
163	163	2
25	25	6
180	180	1
77	77	1
61	61	2
145	154	2
35	40	2
46	59	1
12	12	3
84	84	3
109	113	1
62	62	3
41	41	2
21	23	1
81	81	3
13	13	1
122	122	3
115	170	1
78	134	2
138	138	3
1	1	4
56	90	1
150	150	6
165	166	2
166	166	4
79	79	2
5	5	4
176	177	2
114	114	1
101	114	2
40	42	1
3	3	4
40	40	2
141	141	3
19	35	1
38	39	1
179	179	2
129	130	1
42	42	2
102	109	1
105	116	1
91	92	1
29	29	2
84	101	2
2	2	2
21	22	1
153	153	4
170	170	5
103	103	2
63	63	2
12	28	1
123	123	3
56	56	2
35	35	5
54	54	3
124	124	4
83	101	1
96	96	3
156	157	1
133	133	2
64	64	3
65	66	1
165	165	4
115	161	1
80	80	1
110	110	2
58	58	5
96	104	1
133	137	1
160	160	2
11	13	2
139	139	1
4	4	3
85	87	1
174	174	3
117	117	4
3	86	1
152	154	1
153	155	1
87	90	1
81	82	1
160	162	1
8	9	1
24	24	1
171	172	2
44	45	1
16	17	2
121	121	1
86	86	2
118	118	1
109	111	1
31	31	3
60	60	3
65	65	2
49	49	1
108	108	1
173	173	2
151	154	2
131	133	1
46	46	2
161	161	2
78	78	1
112	112	2
58	60	1
101	101	3
143	144	1
30	30	2
159	162	1
3	7	2
14	14	4
53	55	1
11	11	5
175	176	1
134	134	3
2	3	3
23	25	1
38	43	1
75	75	3
68	68	1
132	133	1
109	109	2
97	103	2
119	120	1
168	172	1
100	101	1
140	140	1
115	118	1
83	84	3
6	6	1
52	55	1
85	86	2
141	142	1
130	141	2
82	82	1
91	91	3
162	162	2
143	143	2
31	37	1
16	16	1
159	159	1
105	106	1
57	58	1
123	124	2
83	83	1
34	38	1
18	18	2
149	149	2
80	81	1
123	167	1
54	55	2
89	89	2
37	37	1
55	55	1
25	26	1
125	125	2
89	90	1
12	36	1
105	105	1
85	85	1
8	18	1
86	90	1
106	106	2
68	70	1
145	146	1
52	54	1
13	15	2
111	111	1
5	6	1
12	164	1
131	131	2
99	100	1
121	122	2
11	20	1
116	117	1
8	19	1
162	163	1
178	178	1
148	148	2
17	18	2
56	57	1
115	115	1
157	167	1
45	45	2
138	142	1
169	170	2
55	56	1
72	72	1
33	33	1
36	37	1
3	18	1
169	169	2
34	52	1
107	169	1
54	80	1
98	99	1
59	67	1
57	57	1
32	32	2
66	66	2
40	68	1
107	109	1
73	74	1
53	53	1
88	132	1
104	105	1
78	79	1
176	176	1
73	76	1
20	20	1
127	145	1
27	29	1
16	27	1
52	63	1
94	94	1
38	38	1
31	32	1
72	132	1
139	140	2
25	31	1
108	169	1
3	4	1
154	155	1
150	151	1
45	46	1
112	145	1
126	127	1
39	39	1
107	129	1
96	99	1
74	76	1
155	156	1
19	20	1
114	117	1
80	88	1
