12	12	10
193	193	4
56	56	2
71	71	2
160	191	1
173	173	4
169	171	1
176	176	5
100	142	1
7	7	6
6	6	3
15	15	5
47	47	4
168	193	1
0	0	1
121	122	2
141	142	2
45	45	8
101	101	3
188	189	3
22	22	2
165	166	2
97	97	2
144	144	5
133	133	3
40	40	5
136	137	1
18	18	5
157	157	3
112	112	6
113	134	1
72	72	2
190	190	7
50	51	1
37	38	2
145	145	3
178	178	7
121	121	3
25	25	4
142	179	1
122	122	7
64	65	1
14	156	1
159	159	6
150	155	2
9	9	10
43	43	5
189	192	1
170	172	2
45	69	2
184	184	6
95	95	1
66	66	2
35	36	5
3	30	1
75	75	1
28	28	2
84	90	1
134	134	1
171	176	1
48	49	1
85	86	5
31	31	9
123	180	2
13	13	5
16	183	1
21	21	2
188	188	4
194	194	6
161	162	1
35	35	2
143	168	1
141	141	5
150	150	6
180	180	2
80	80	2
20	21	5
172	172	3
110	110	2
4	39	1
43	69	1
48	127	2
155	156	1
10	10	3
24	32	1
94	94	1
106	106	3
82	82	2
99	114	2
99	99	3
114	115	3
159	160	1
4	47	1
100	123	1
190	192	1
27	28	4
162	162	1
14	14	9
34	34	5
181	182	2
83	83	1
2	2	4
33	33	11
37	37	2
64	66	1
52	124	1
30	30	3
5	5	3
197	197	3
5	6	3
38	39	4
115	177	1
165	168	2
152	152	4
4	8	1
24	25	1
185	185	5
151	151	1
74	76	1
3	3	4
84	84	1
71	72	2
38	38	4
126	126	5
20	20	1
130	130	3
117	171	1
23	23	5
4	5	4
127	127	2
61	61	3
41	41	2
155	155	8
107	107	2
67	67	1
131	133	1
102	102	2
140	141	1
182	182	3
20	38	1
19	19	4
102	104	3
195	197	1
89	89	2
39	43	1
156	156	4
63	64	2
100	101	1
123	123	1
177	177	4
134	135	1
167	191	1
146	159	3
25	26	1
179	180	2
146	146	2
49	197	1
192	192	3
107	130	2
165	165	1
157	165	1
16	17	3
64	107	1
108	108	6
21	22	1
120	121	1
181	181	1
160	168	1
11	11	4
17	17	4
74	88	1
11	12	4
62	63	2
174	176	1
8	8	2
160	160	2
137	158	1
195	195	2
125	126	1
142	142	1
28	29	1
70	70	4
0	1	3
189	190	1
23	27	1
115	118	1
191	192	2
135	135	4
88	88	1
132	138	1
44	44	5
9	38	2
100	100	3
49	49	4
196	196	1
128	128	4
158	158	2
45	46	2
130	131	1
153	153	3
40	42	1
9	37	1
193	194	2
98	98	2
147	159	1
47	154	1
1	26	1
10	37	1
89	120	1
27	27	1
60	60	2
112	113	1
96	97	1
124	124	2
136	136	2
147	149	1
57	58	1
167	167	3
68	68	4
161	161	1
69	70	2
178	182	1
31	32	1
85	85	1
109	110	1
63	63	5
196	197	3
164	165	1
174	175	2
5	7	1
166	177	2
39	45	1
76	76	1
143	143	6
23	24	2
10	11	2
25	47	2
13	15	1
154	154	3
150	151	3
115	115	5
177	179	2
43	45	1
140	140	2
156	197	1
139	142	2
144	146	1
165	173	1
18	66	1
1	1	1
3	4	2
145	146	2
194	195	1
164	164	3
132	132	1
86	86	1
13	14	1
138	193	1
27	36	1
55	56	1
87	87	1
4	4	3
116	116	1
53	53	2
58	58	3
0	24	1
147	147	2
69	69	2
30	31	1
166	166	4
105	105	1
169	169	4
36	36	2
39	39	2
131	131	2
144	191	1
186	186	4
192	194	1
183	183	4
11	15	1
55	55	2
103	103	2
24	24	2
187	187	1
54	55	1
46	46	1
167	168	1
151	163	1
149	161	1
163	163	2
170	171	2
170	176	1
50	50	3
148	148	1
96	96	2
1	2	1
163	164	3
179	179	1
57	57	1
19	22	2
147	180	1
26	27	1
152	155	1
31	67	1
109	109	2
139	139	2
114	114	2
151	152	1
25	37	1
35	178	1
16	16	2
174	174	2
74	75	1
179	183	2
116	117	1
119	119	1
76	79	1
12	101	1
32	33	1
109	137	1
162	163	1
113	113	1
138	139	1
67	68	1
8	30	1
168	169	1
166	167	1
157	159	1
42	42	2
185	186	2
9	32	1
11	36	1
160	193	1
85	88	1
58	61	1
29	29	1
139	152	1
3	5	1
142	143	1
137	137	2
40	41	1
76	82	1
74	74	1
48	48	2
54	54	2
41	42	2
143	145	1
54	56	1
143	144	1
88	89	1
32	34	1
77	85	1
78	78	1
108	130	1
78	84	1
106	116	1
9	16	1
119	142	2
147	160	1
102	103	1
19	68	1
0	80	1
175	175	1
134	152	1
29	30	1
25	28	1
167	192	1
33	34	1
59	59	1
17	18	1
148	149	1
102	106	1
15	16	1
175	190	1
174	190	1
61	63	1
23	25	1
41	43	1
57	127	1
19	20	1
170	170	1
52	52	1
155	194	1
149	149	1
178	179	1
132	133	1
