23	25	1
75	76	3
84	84	2
71	71	3
51	51	10
107	107	10
89	89	4
104	104	8
97	100	1
123	123	4
31	31	9
65	65	4
131	131	3
120	120	4
29	29	7
38	38	2
58	58	2
87	87	6
104	127	2
121	122	5
17	21	1
47	47	3
8	10	4
67	67	5
24	24	7
53	53	8
112	116	1
115	115	10
114	116	3
92	92	5
30	30	5
111	111	6
52	53	3
79	79	2
99	99	5
100	101	3
31	64	1
109	109	4
15	15	5
111	131	3
94	98	1
104	105	3
26	27	2
108	108	4
45	45	5
65	115	1
105	105	9
106	106	8
30	97	1
2	2	3
5	5	3
69	69	4
124	132	1
68	68	3
34	34	2
29	30	2
56	56	6
17	17	5
64	64	4
88	89	2
128	128	7
112	112	11
54	54	3
14	14	2
59	59	1
55	55	4
117	117	5
77	79	1
16	19	1
111	120	2
11	11	4
33	33	3
4	4	9
118	118	4
86	88	2
93	93	5
24	26	1
5	6	1
110	110	2
63	63	4
8	9	3
20	132	2
39	39	6
77	77	6
66	66	3
99	101	1
76	92	1
41	41	5
99	125	1
105	107	2
12	23	1
80	96	1
116	121	1
70	76	1
25	25	2
33	34	3
48	48	2
12	12	4
98	98	6
42	72	2
78	78	3
59	98	1
79	80	1
53	54	1
52	54	1
82	82	4
124	124	4
44	44	4
126	126	5
1	121	1
86	87	1
67	68	1
106	123	1
44	123	1
16	41	1
40	40	3
69	122	2
74	77	1
123	130	1
110	124	1
113	113	3
85	88	2
65	68	1
32	32	1
102	103	2
119	119	6
46	46	3
123	124	1
95	98	1
107	108	2
80	80	5
27	27	1
70	70	2
116	116	3
128	129	2
1	1	4
61	61	3
32	33	4
19	21	1
98	128	1
72	74	3
67	131	1
71	125	2
48	58	3
114	115	3
122	123	1
83	85	1
3	3	3
81	81	5
133	133	2
43	43	2
56	83	1
0	1	1
75	75	2
2	110	1
62	80	2
110	123	1
129	129	5
3	4	2
28	72	1
50	50	2
71	76	2
20	20	5
101	101	2
96	104	2
41	42	1
76	76	3
124	125	1
28	29	2
26	26	1
60	60	3
0	0	2
94	94	3
71	72	1
100	100	2
95	128	1
132	132	1
23	23	3
7	7	5
72	72	2
74	128	1
63	92	1
57	58	1
90	94	1
130	130	2
102	102	3
122	122	2
67	103	1
69	70	1
95	129	1
2	11	1
49	49	2
109	124	1
18	21	2
121	121	4
20	21	2
90	90	4
116	117	2
83	83	1
102	125	3
78	81	1
60	89	1
45	103	1
44	45	1
80	81	1
19	19	1
98	99	1
101	105	1
93	94	1
114	114	3
127	128	1
15	16	1
56	57	2
92	93	2
78	86	1
62	66	1
97	97	2
109	110	1
82	99	1
99	128	1
25	26	2
58	59	1
41	43	1
41	44	1
77	102	1
69	75	1
1	2	2
108	114	1
84	97	1
50	52	2
33	61	1
17	20	1
47	48	2
49	53	1
104	106	1
21	32	1
131	132	1
3	5	1
32	94	1
43	45	1
96	96	1
13	13	2
42	43	1
61	75	1
94	95	3
22	23	1
26	55	1
121	130	2
57	57	2
74	75	1
110	112	1
103	103	2
89	91	1
51	52	1
73	73	3
88	94	1
45	55	1
105	124	1
95	95	4
90	91	1
105	106	2
8	8	2
95	96	1
30	33	1
77	78	2
74	74	3
83	84	2
117	119	1
2	3	1
21	21	2
110	111	2
46	47	1
103	104	1
85	89	1
16	17	2
106	107	2
72	73	1
84	102	2
67	69	1
68	69	1
127	127	2
42	69	1
52	52	1
78	79	1
49	50	1
115	116	1
125	125	1
62	63	1
43	80	1
2	5	1
22	27	1
42	42	1
130	131	1
113	114	1
126	127	1
22	22	1
99	103	1
70	127	1
85	86	1
108	131	1
55	56	1
96	127	1
34	39	1
64	65	1
6	6	1
