5	5	2
113	113	4
65	86	1
16	20	1
3	3	5
6	7	2
46	50	1
64	82	1
50	50	7
54	55	4
94	96	1
76	105	1
35	51	1
83	84	2
81	81	3
17	29	1
1	37	1
129	129	3
1	45	1
43	43	2
123	135	2
38	53	1
72	72	7
90	90	2
0	0	3
23	23	3
56	59	1
1	2	3
57	57	2
29	29	3
98	98	1
60	60	1
81	82	1
2	2	3
19	128	2
61	61	2
79	79	2
1	1	2
54	83	1
2	26	2
87	87	2
63	65	1
65	65	3
102	102	1
119	119	2
52	52	2
100	101	2
64	65	2
60	106	1
134	134	3
94	94	1
105	105	1
79	80	1
77	78	1
28	28	4
27	27	4
64	64	4
34	35	3
115	115	1
55	68	1
88	88	1
78	79	1
44	44	1
79	93	1
82	83	1
12	12	4
30	30	2
16	16	1
82	82	2
126	126	4
43	80	1
6	6	1
20	66	2
19	21	1
78	78	1
44	45	1
135	135	6
86	86	5
120	122	1
18	18	2
121	121	3
89	96	1
68	84	1
17	17	1
124	126	1
85	85	2
77	97	1
62	63	1
43	45	2
70	70	2
62	133	1
98	99	1
80	81	1
123	124	1
27	30	1
38	54	1
132	132	2
7	7	2
71	73	1
75	76	1
69	69	3
103	104	1
72	73	1
126	130	1
86	90	1
128	128	1
28	29	2
47	47	4
58	58	2
97	97	1
3	25	1
4	12	1
33	34	1
73	75	1
66	78	1
49	50	1
54	54	2
91	91	1
25	34	1
42	43	1
61	62	2
55	55	3
124	125	1
54	58	1
76	78	1
56	56	2
104	104	3
75	78	1
57	58	2
10	10	3
6	14	1
98	128	1
63	63	3
133	133	1
67	67	2
95	102	1
32	33	1
18	32	1
74	74	2
4	4	2
44	48	1
19	19	3
59	60	1
125	125	1
111	113	1
80	80	2
84	86	1
77	80	1
71	72	1
45	45	2
100	105	1
72	76	1
88	101	1
129	131	1
8	8	2
106	107	1
130	130	2
55	102	1
116	118	1
9	9	1
73	73	1
103	103	1
122	122	3
71	71	4
119	120	1
128	129	1
11	11	1
110	110	1
95	99	1
109	109	4
75	75	2
97	100	1
20	20	3
30	31	1
17	18	1
56	62	1
111	112	2
49	79	1
21	60	1
24	25	1
25	25	1
2	4	1
121	125	1
107	132	1
133	134	1
20	21	1
35	36	1
127	127	1
32	35	2
8	23	1
62	62	1
53	55	1
106	108	1
118	118	2
34	34	1
57	60	1
9	26	1
28	52	1
23	25	1
123	123	2
24	24	1
126	127	1
21	21	1
59	59	1
6	21	1
37	37	2
61	73	1
76	76	1
115	125	1
85	90	1
70	81	1
53	56	1
82	84	1
44	80	1
68	68	1
131	131	1
62	93	1
112	112	1
76	79	1
106	106	2
55	60	1
74	80	1
132	133	1
33	33	1
108	108	2
73	74	1
27	33	1
14	14	1
15	15	1
101	121	1
