36	38	1
106	106	2
27	27	3
9	9	4
115	116	1
140	140	8
48	49	1
36	36	1
89	89	2
35	36	2
42	43	3
51	51	2
3	4	2
4	4	6
119	119	3
17	17	2
1	80	1
111	149	1
168	168	4
8	8	2
140	141	2
150	150	6
130	160	1
103	104	2
127	128	1
82	83	2
43	43	3
138	138	3
120	120	1
102	104	2
128	128	3
112	151	2
42	42	2
2	2	2
16	16	2
155	155	5
5	5	5
74	75	1
122	122	2
41	41	2
112	112	1
28	28	1
165	165	1
150	151	2
170	170	5
13	13	2
77	77	3
10	15	2
108	109	1
20	22	1
85	87	1
102	103	2
77	78	2
109	109	4
53	119	1
108	108	5
162	163	3
158	158	4
97	98	2
161	165	1
97	97	3
44	44	2
157	157	7
103	120	1
26	27	2
149	150	1
15	15	3
86	86	1
85	85	1
10	11	1
56	56	2
159	159	1
119	131	1
37	37	4
13	16	1
52	52	2
153	154	1
43	44	1
98	99	1
155	156	1
12	24	1
99	99	1
154	156	1
8	9	1
138	140	1
23	23	2
117	117	2
125	125	1
113	170	1
6	8	1
113	169	2
147	147	2
53	64	1
87	87	1
126	127	1
53	122	1
124	125	1
12	12	1
34	34	3
147	148	2
86	87	3
37	38	1
96	98	1
126	129	1
129	129	2
86	91	1
94	95	2
53	149	1
38	38	4
92	95	1
148	148	1
87	95	1
123	123	1
122	123	1
48	48	1
11	11	1
138	163	1
111	111	4
116	122	1
129	154	2
151	151	1
10	10	2
10	17	1
84	85	2
123	125	1
97	132	2
7	49	1
122	131	1
118	118	1
80	80	1
75	75	3
52	120	1
81	82	1
88	97	1
21	22	2
113	114	1
85	88	1
126	157	1
15	20	1
156	157	2
57	97	1
39	39	3
64	64	2
46	46	2
5	17	1
65	67	1
82	82	2
130	165	1
143	143	2
116	116	1
164	165	1
148	161	1
121	121	1
36	37	1
126	126	4
63	63	2
7	7	1
69	70	1
101	105	1
103	103	1
107	147	1
27	28	1
40	40	1
98	133	1
50	50	2
119	122	1
88	88	2
152	155	1
99	146	1
26	26	1
80	81	1
45	52	1
21	25	1
114	141	1
7	18	1
88	89	1
139	139	2
157	161	1
134	134	2
114	116	1
46	48	1
132	138	1
146	147	1
130	145	1
11	25	1
54	54	1
144	144	1
96	96	1
18	19	1
149	149	1
66	67	1
133	133	1
17	21	1
4	5	1
55	55	1
146	146	2
16	52	1
130	130	1
62	72	1
14	15	2
53	73	1
20	24	1
87	88	1
163	163	1
135	135	1
73	73	1
8	10	1
127	129	1
159	160	1
120	126	1
10	79	1
90	90	1
110	110	1
12	15	1
161	163	1
49	49	1
90	109	1
13	135	1
94	98	1
160	160	1
143	146	1
78	78	1
18	18	2
69	69	1
121	122	1
13	14	2
44	45	1
72	73	1
169	169	1
110	112	1
101	101	1
161	161	1
84	84	1
161	162	1
127	127	1
84	86	1
88	105	1
65	78	1
120	131	1
18	25	1
21	24	1
156	156	1
36	150	1
79	79	1
24	24	1
129	152	1
