52	52	9
128	131	1
99	99	7
127	127	11
8	8	8
93	113	1
126	126	8
108	109	4
70	71	2
51	51	13
26	26	11
107	108	3
24	26	1
73	79	2
31	31	7
28	29	4
32	32	14
78	78	9
111	111	15
120	120	16
63	63	13
70	70	11
23	23	16
11	11	7
47	83	1
71	71	10
88	88	7
43	43	15
29	29	9
44	45	1
117	117	13
105	105	13
124	124	15
90	90	9
65	68	1
111	113	2
86	88	5
60	63	3
0	0	9
128	128	9
110	110	10
122	122	7
56	56	16
109	109	15
61	61	12
103	103	20
46	46	7
96	96	12
94	95	4
38	39	3
68	68	4
22	22	3
4	9	2
45	45	10
50	50	14
115	115	13
59	62	1
62	63	5
1	1	11
63	80	2
94	94	12
15	15	13
85	86	4
79	98	1
72	72	7
63	64	6
40	42	3
107	107	8
60	60	8
98	99	4
122	123	3
112	112	13
114	117	2
129	129	9
104	104	22
4	4	9
74	74	16
6	6	6
14	14	11
108	108	11
89	91	4
26	28	2
29	92	1
113	117	1
98	98	12
46	47	5
79	79	9
30	30	15
0	22	1
56	57	1
49	54	1
29	30	3
3	51	2
95	96	5
129	130	2
38	38	4
121	122	3
6	7	3
67	67	12
56	93	1
28	31	1
5	5	5
73	74	5
100	100	12
90	91	3
130	130	10
123	123	10
95	123	2
102	103	4
99	100	8
132	132	14
13	13	7
2	2	10
54	55	2
106	107	3
79	80	4
119	119	9
82	82	4
20	20	8
20	21	4
57	57	13
116	116	7
93	94	4
71	78	1
52	53	6
88	90	2
131	131	12
92	93	5
82	88	1
84	84	6
105	125	3
49	50	8
34	34	7
126	128	2
87	88	7
113	113	11
69	77	2
66	66	12
65	65	8
106	106	9
93	93	13
74	78	1
11	12	4
15	30	1
10	10	6
28	28	6
33	33	4
95	95	13
15	63	1
89	90	3
87	92	1
93	107	1
41	42	5
121	121	15
110	120	1
15	68	2
101	101	14
25	25	4
131	132	5
127	130	1
18	20	2
109	110	4
3	3	11
58	87	1
76	77	6
8	23	2
77	77	6
60	61	1
92	92	6
87	87	6
58	79	1
86	86	3
39	39	7
118	120	2
30	39	2
102	102	6
44	44	10
112	122	2
77	78	2
13	28	1
29	33	1
83	83	7
56	58	1
12	12	7
17	17	5
44	73	1
83	104	1
58	58	8
44	62	1
89	89	11
114	114	13
107	119	2
49	49	7
15	16	1
18	33	1
16	18	2
55	55	3
21	21	6
75	80	1
76	76	4
47	47	10
91	91	14
50	52	1
48	56	1
7	7	5
47	48	7
14	15	5
3	6	1
72	73	3
96	104	1
84	91	1
76	80	3
64	64	6
124	125	3
64	68	1
84	88	1
29	95	2
54	54	9
74	76	5
18	21	4
110	111	4
10	11	3
90	92	1
39	40	2
69	70	4
12	25	1
69	69	6
77	102	1
87	130	1
83	84	3
112	113	1
98	100	3
88	91	1
80	81	2
46	72	1
86	87	2
81	81	8
10	12	1
73	73	9
85	85	6
31	32	5
92	111	1
76	110	1
34	38	1
88	89	3
48	48	12
48	117	1
48	49	4
90	95	1
117	118	2
127	128	4
72	77	1
115	116	2
112	120	1
106	117	1
67	68	4
14	30	1
20	30	1
58	59	1
48	64	1
102	104	1
51	52	1
95	119	2
62	62	8
4	8	1
65	102	1
75	76	5
38	90	1
38	66	1
114	121	1
118	131	1
14	56	1
119	126	1
123	130	2
125	125	15
53	53	11
33	34	2
99	105	1
28	104	1
97	98	3
119	129	1
130	131	6
91	92	1
1	2	3
104	105	2
22	23	2
2	5	1
111	112	1
78	91	1
8	63	1
24	24	5
48	118	2
0	3	2
42	44	1
38	44	1
50	51	4
61	82	1
63	70	1
80	80	4
46	85	1
103	104	1
9	9	2
0	1	3
125	132	1
43	44	4
113	116	3
132	133	1
78	84	1
107	130	1
77	86	1
40	41	1
49	53	3
71	72	3
129	132	2
56	89	1
110	118	1
48	92	1
41	41	5
16	16	11
105	107	1
54	108	2
51	124	1
68	92	1
78	79	2
95	130	1
16	44	1
44	47	3
97	97	3
113	114	4
15	99	1
37	38	1
41	59	1
18	34	1
19	129	2
5	7	1
126	127	5
118	118	12
27	27	5
71	95	1
82	83	3
107	132	1
89	98	1
49	104	1
32	68	1
75	75	4
89	101	1
125	128	1
114	131	1
62	77	2
25	26	2
109	117	1
53	54	1
49	117	1
42	42	4
19	19	4
71	73	4
23	24	2
116	119	1
45	66	1
30	34	1
94	98	1
70	95	1
4	22	1
83	85	1
10	32	1
109	122	2
0	27	1
119	120	3
22	29	2
49	55	2
12	49	2
50	112	1
104	110	1
26	27	1
58	85	1
24	25	3
92	125	1
64	65	3
78	82	1
41	44	2
80	92	1
94	107	1
77	93	2
38	40	2
92	99	1
19	22	1
39	67	3
10	48	1
16	40	1
96	98	1
101	102	3
115	119	1
28	95	1
32	57	1
101	103	1
26	31	2
30	31	3
81	82	1
31	41	1
127	133	1
18	18	2
55	95	1
122	132	1
18	19	2
48	68	1
19	20	5
82	101	1
111	121	1
125	127	1
7	8	1
59	59	3
91	93	1
38	91	1
67	69	1
120	121	2
100	102	1
105	106	3
69	76	1
42	43	3
33	43	2
128	130	3
3	5	1
98	110	1
68	69	1
47	70	1
92	94	1
47	75	1
47	117	1
12	92	1
57	94	1
23	47	1
116	120	1
92	133	1
34	44	1
45	46	1
109	132	2
7	16	1
64	69	1
61	102	1
48	75	1
50	53	1
40	40	3
48	94	1
101	104	2
53	120	1
72	90	1
9	10	2
57	76	2
81	84	1
97	128	2
13	14	2
60	62	1
115	122	1
25	34	1
48	66	1
71	76	2
125	126	1
80	82	1
85	88	1
31	33	1
114	125	1
45	47	1
80	125	1
82	84	1
4	5	1
19	27	1
92	106	1
96	97	1
80	102	1
39	63	1
96	108	1
59	74	3
55	56	1
80	83	1
15	22	1
114	116	1
76	116	1
84	85	2
97	99	1
54	62	1
100	101	1
76	92	1
95	124	1
46	118	1
89	94	2
109	111	1
59	73	1
59	61	1
5	6	1
30	90	1
104	130	1
90	126	2
123	131	1
42	47	1
123	124	2
32	51	1
109	124	1
29	45	1
27	28	1
83	88	2
17	18	1
60	68	1
73	81	1
85	89	1
13	15	1
12	13	1
73	102	1
91	99	1
96	115	1
91	96	1
78	81	1
74	75	1
23	32	1
0	4	1
58	61	1
62	64	1
10	31	1
97	100	1
78	86	1
61	83	1
46	62	1
23	27	1
49	66	1
2	66	1
58	90	1
41	43	1
116	117	1
92	123	1
92	115	1
42	70	1
44	48	1
102	107	1
16	17	2
13	26	1
55	130	1
57	58	1
8	10	3
63	66	1
42	45	1
133	133	1
84	130	1
93	108	1
57	68	1
51	108	1
26	54	1
105	124	1
72	74	1
23	54	1
41	78	1
7	57	1
118	119	2
64	107	1
66	91	1
8	9	1
53	122	1
28	30	1
83	98	1
