116	116	2
3	3	4
82	82	1
25	25	2
142	142	4
12	12	8
114	114	5
105	160	2
62	63	5
18	20	1
48	49	3
56	56	4
3	4	2
108	108	2
151	154	2
69	70	2
8	8	2
106	107	3
167	167	2
136	136	6
89	89	2
105	145	1
70	70	1
76	76	2
10	10	5
126	161	1
67	67	2
42	42	13
150	155	1
154	154	4
11	12	4
91	91	3
105	105	1
137	138	2
17	17	4
117	117	3
73	73	2
160	160	4
133	133	2
151	151	7
125	133	1
164	164	7
120	120	3
52	52	3
28	28	2
129	130	1
12	13	4
112	112	4
149	150	1
119	148	2
113	114	2
149	149	6
36	36	3
100	114	1
126	126	1
0	2	1
15	15	6
19	19	8
80	80	6
133	153	1
109	109	1
100	105	3
26	41	2
161	161	5
106	106	2
64	79	1
126	155	4
100	146	1
6	6	5
114	115	3
9	9	3
35	35	9
15	139	2
141	141	1
41	41	4
63	75	1
147	148	1
43	43	3
153	154	3
84	84	8
155	156	1
95	117	2
56	57	1
65	65	1
38	39	2
87	88	1
87	87	3
83	83	4
117	141	2
6	7	2
107	108	1
99	100	1
166	166	6
111	111	1
152	154	3
79	79	2
91	92	2
66	66	2
13	13	3
125	125	7
37	37	6
25	26	3
0	1	1
147	147	1
133	140	2
169	169	3
150	150	8
117	165	1
49	49	4
156	158	1
45	45	1
132	132	2
140	141	3
130	130	2
138	138	8
47	47	7
163	164	1
17	19	1
53	53	1
41	42	1
11	11	8
4	11	1
90	90	2
56	74	1
5	5	5
111	112	1
62	102	5
162	165	3
134	134	3
35	36	2
166	167	1
44	46	1
101	102	1
146	146	4
168	168	2
64	111	1
153	155	2
78	78	1
158	159	3
90	91	2
16	124	1
93	93	4
17	109	2
45	57	2
145	145	5
144	144	3
20	21	3
50	67	1
63	64	2
57	57	3
125	126	1
16	50	1
163	163	1
137	137	7
8	16	1
118	161	2
33	33	2
57	58	1
38	38	4
106	108	2
168	169	1
25	38	3
157	157	2
5	11	3
2	2	1
94	131	1
17	112	2
123	123	5
147	155	1
119	125	2
76	77	2
54	54	2
7	7	2
135	135	3
101	114	1
24	24	2
82	83	2
23	24	2
88	88	5
44	45	1
158	158	2
170	170	4
44	44	1
88	89	1
39	39	5
107	111	1
116	134	1
101	130	1
49	51	1
165	165	7
65	66	1
14	16	1
64	105	1
69	69	2
94	94	1
39	93	1
122	122	1
47	48	1
7	8	1
131	133	1
116	139	1
71	71	3
138	139	1
131	131	3
77	78	1
126	127	1
21	21	1
20	20	3
27	27	4
119	119	3
38	71	2
50	51	2
6	10	2
10	16	1
122	123	3
162	162	2
21	22	1
23	23	2
84	85	1
51	99	1
155	155	1
34	34	2
118	118	2
113	113	1
56	58	1
94	130	1
105	106	3
117	155	1
26	38	2
7	10	5
16	42	1
13	14	2
110	111	2
118	119	1
47	49	1
5	10	1
167	168	1
15	134	1
0	0	1
26	28	1
16	16	1
147	149	2
22	22	2
119	142	2
161	167	1
73	74	2
140	140	4
103	104	1
145	146	1
135	139	1
141	142	1
107	147	1
23	98	1
3	5	2
161	164	1
94	95	1
72	73	1
131	164	1
48	48	2
75	76	1
49	50	1
68	70	1
51	51	4
137	164	2
143	147	1
68	68	3
92	92	1
169	170	1
153	153	2
36	38	2
161	162	1
143	143	4
121	122	1
121	121	1
93	95	1
165	166	3
148	149	2
73	111	1
151	155	1
124	124	1
13	170	1
107	107	1
50	50	2
150	151	1
4	135	1
48	55	1
110	110	1
73	97	1
148	148	4
64	64	1
100	125	1
142	143	1
19	23	1
128	129	1
96	96	2
119	143	1
126	151	1
64	65	1
46	46	2
143	145	1
28	110	1
44	108	2
7	113	1
4	4	3
135	141	1
5	136	1
146	147	1
117	140	1
159	159	3
42	43	1
37	38	1
20	44	1
40	93	1
101	104	1
51	106	1
126	152	1
74	75	1
156	156	1
134	159	1
123	143	1
129	129	1
40	40	1
10	11	1
95	95	2
72	72	1
45	46	1
56	76	1
55	55	1
163	166	1
100	101	1
37	105	1
139	145	1
135	140	1
68	83	1
74	74	1
0	139	1
81	83	1
139	139	1
134	138	1
3	11	1
24	41	1
7	11	1
85	85	1
73	150	1
103	103	1
109	149	1
26	26	1
89	90	1
67	74	1
96	98	1
18	18	1
124	125	1
105	130	1
53	106	1
99	120	1
11	13	1
