129	129	3
30	84	1
100	100	4
140	141	1
116	117	1
15	16	1
16	22	1
132	133	2
133	134	2
43	43	2
106	112	1
38	39	1
106	127	1
115	138	1
101	102	1
108	110	1
109	111	1
83	84	3
67	67	2
1	2	3
116	123	1
53	53	1
116	151	1
32	32	2
102	102	2
8	16	1
132	132	2
148	148	2
33	45	1
81	109	1
11	15	1
145	146	1
156	156	1
142	143	1
135	137	1
70	70	1
146	146	9
134	134	3
6	73	1
40	41	1
105	105	2
153	154	2
135	135	4
62	62	2
130	130	5
90	120	1
124	126	1
115	115	3
0	0	3
36	45	2
109	109	1
92	105	1
98	98	2
46	47	1
125	126	3
87	87	2
18	18	3
83	87	1
6	6	1
126	126	1
24	110	1
17	17	2
11	54	1
112	112	2
144	145	6
3	5	3
44	45	1
131	131	2
127	134	1
80	80	1
30	30	4
27	28	1
88	119	1
46	46	5
50	51	1
7	7	1
37	38	1
109	110	1
144	144	4
11	11	1
82	82	6
7	38	2
84	86	2
16	107	1
68	68	2
66	66	2
37	136	1
54	54	1
22	22	2
128	128	4
106	107	2
117	137	1
128	132	1
19	19	2
27	36	1
84	123	2
125	125	1
2	4	1
139	139	3
73	74	1
72	106	1
41	41	2
39	40	1
30	67	1
149	150	1
121	121	4
79	79	2
85	86	1
140	140	4
118	118	3
32	36	1
86	88	1
107	107	3
69	71	1
99	99	7
13	14	1
95	116	1
106	106	2
71	132	1
138	140	1
30	87	1
137	137	2
44	44	1
1	29	1
5	5	2
132	134	2
16	16	1
149	149	2
30	90	1
117	118	2
124	124	1
90	92	2
91	91	2
110	110	3
81	81	4
114	114	2
28	28	4
119	119	2
35	36	1
39	71	1
19	46	1
65	65	1
29	29	1
150	150	2
147	147	3
90	90	2
0	104	1
155	155	3
12	12	1
6	7	1
157	158	1
108	108	1
39	39	1
77	111	2
153	153	2
93	93	2
131	132	1
86	86	1
116	116	1
138	152	1
47	52	1
34	34	3
128	153	1
50	50	2
4	66	1
89	89	3
120	120	2
88	88	1
134	140	1
80	85	1
66	67	1
97	97	1
73	73	2
132	149	1
34	42	1
125	127	1
91	92	1
142	147	1
158	158	2
117	121	1
104	105	1
45	48	1
87	90	1
118	119	1
96	100	1
23	28	1
73	115	1
96	121	1
48	49	1
145	145	2
123	123	3
45	45	2
82	110	1
20	22	1
45	51	1
8	9	1
128	129	1
9	20	1
95	95	2
112	123	1
5	73	1
118	120	1
111	111	2
70	71	1
11	13	1
35	54	1
42	62	1
107	108	1
23	40	1
123	125	1
117	138	1
4	5	2
4	4	2
70	130	1
118	136	1
10	10	1
26	27	1
31	31	1
141	141	2
119	120	1
49	49	1
24	28	1
109	113	1
71	71	1
42	45	1
52	52	1
134	135	2
27	43	1
101	128	1
48	50	1
109	123	1
4	101	1
24	24	1
79	80	1
155	157	1
26	26	1
8	30	1
22	110	1
51	52	1
53	54	1
143	148	1
20	21	1
2	71	1
148	149	1
151	151	1
108	117	1
120	121	1
152	152	1
97	114	1
76	77	1
49	50	1
69	70	1
116	119	1
23	23	1
48	48	1
2	2	1
26	39	1
113	113	1
