28	29	2
20	20	2
135	135	3
128	142	1
38	38	2
68	91	1
39	59	1
98	98	3
117	129	1
132	132	5
131	131	4
118	118	6
84	84	1
122	122	1
123	128	1
140	140	8
91	109	1
124	124	4
78	78	4
1	6	1
8	8	9
51	51	1
34	40	1
120	123	2
123	123	2
47	51	1
21	21	3
118	120	1
91	95	1
87	88	1
49	59	1
16	34	2
74	75	1
65	71	1
82	82	2
56	56	9
29	29	4
93	94	2
97	98	5
26	27	2
48	48	2
18	18	2
114	146	1
50	51	2
80	86	1
100	101	2
32	32	4
62	62	2
28	28	3
139	140	1
103	103	3
60	60	3
50	58	1
54	54	4
110	110	3
80	80	2
35	35	4
52	52	1
97	97	5
124	125	2
85	85	2
22	22	2
105	135	1
91	91	3
86	86	4
133	133	3
43	43	1
75	97	1
115	117	1
120	120	1
70	71	1
93	93	2
98	111	1
3	5	1
59	59	2
89	89	3
62	65	1
63	63	1
103	118	1
87	89	1
55	55	4
51	52	4
112	117	1
119	119	1
72	72	1
95	95	3
129	129	2
64	64	2
11	11	2
125	125	2
38	39	1
10	11	1
12	23	1
30	30	4
73	74	4
65	79	2
114	114	2
115	115	1
94	94	3
37	37	1
4	4	1
129	142	2
12	12	2
75	77	1
116	116	3
10	10	4
143	143	1
111	112	2
48	49	1
106	141	1
105	105	2
74	74	1
104	119	1
142	142	1
66	66	4
139	139	6
23	24	2
130	131	2
119	133	1
14	14	2
30	32	1
82	85	1
19	19	2
25	26	1
99	99	1
47	48	1
31	31	1
134	135	2
100	100	2
29	43	1
60	120	2
112	114	1
61	61	3
113	113	1
42	42	2
30	33	1
74	92	1
27	27	1
4	5	4
55	56	1
69	69	2
87	110	1
35	36	2
58	58	1
51	86	1
1	1	1
106	106	1
71	90	1
26	26	2
41	41	2
68	68	1
49	49	1
101	102	2
54	55	1
127	130	1
70	76	2
146	146	1
6	6	1
76	77	1
126	126	3
112	112	1
10	34	1
100	142	1
15	15	2
83	83	1
88	88	2
103	141	1
130	130	1
137	138	1
29	30	1
29	33	1
111	111	2
34	35	1
100	104	1
38	41	1
3	3	1
67	77	1
72	73	2
101	101	1
41	42	2
15	24	1
56	72	1
145	146	1
94	95	1
24	24	1
12	20	1
40	40	2
102	103	1
110	142	1
69	70	1
48	56	1
102	102	1
49	90	1
25	25	2
73	102	1
26	35	1
56	57	1
90	90	3
43	69	1
90	92	1
137	137	1
107	107	2
81	105	1
141	141	1
104	105	1
64	77	1
76	76	1
17	91	1
13	13	1
79	79	1
123	124	1
73	73	2
104	113	1
67	67	1
120	121	1
107	108	1
69	87	1
18	19	1
128	133	1
63	92	1
2	2	1
91	117	1
91	106	1
140	144	1
16	62	1
128	129	1
134	134	1
127	127	1
132	136	1
53	57	1
18	33	1
75	75	1
57	57	1
31	32	1
2	3	1
118	142	1
58	59	1
136	138	1
144	144	2
2	15	1
4	25	1
16	16	1
47	65	1
111	123	1
34	34	1
96	96	1
132	135	1
79	80	1
13	36	1
23	25	1
71	71	1
145	145	1
16	33	1
39	39	1
20	21	1
5	5	1
40	48	1
117	125	1
16	123	1
