39	39	1
185	185	6
182	182	2
137	137	1
105	105	4
81	81	3
169	169	2
183	183	4
18	21	1
79	81	3
59	62	1
177	177	2
113	154	1
32	34	1
138	138	3
75	79	1
189	189	1
89	89	1
65	65	1
114	115	1
69	71	1
54	54	1
94	94	1
48	56	2
154	154	6
113	113	4
99	99	1
113	119	1
61	79	2
95	99	2
22	22	2
87	151	2
71	146	1
71	72	2
92	94	2
6	6	2
155	155	2
48	48	2
153	153	2
18	20	1
38	57	1
97	97	2
87	87	2
177	180	2
100	100	2
45	46	1
152	152	3
170	172	1
123	123	2
141	141	2
109	109	1
55	55	7
5	5	2
12	13	1
4	4	4
171	176	1
107	116	2
131	131	2
84	84	4
68	68	4
114	114	2
9	9	1
27	28	1
92	93	1
55	56	2
73	73	1
129	129	2
167	167	2
71	71	4
135	137	2
10	15	2
101	105	1
76	76	2
60	61	1
3	3	1
10	13	1
15	30	1
101	102	2
62	62	2
78	78	1
33	74	1
64	66	1
26	48	1
120	120	1
25	25	1
164	175	4
122	122	1
64	80	1
169	170	1
175	180	1
24	41	1
111	111	1
159	159	1
119	119	2
143	143	2
182	183	1
160	164	2
77	77	2
65	68	1
175	175	1
171	172	1
117	117	1
178	178	2
56	56	2
166	166	1
54	57	1
154	155	1
167	169	1
107	114	1
150	150	2
28	28	1
56	88	1
22	24	1
10	10	2
85	85	3
40	48	1
148	148	2
122	151	1
140	153	1
127	127	3
88	122	2
141	186	1
58	58	3
92	92	1
129	131	3
12	12	2
63	63	3
63	64	1
88	88	2
97	98	1
53	53	2
24	25	3
44	75	2
33	34	1
62	75	1
25	72	1
129	139	2
109	110	1
181	182	1
41	42	1
108	108	2
80	83	1
29	29	1
113	115	1
170	175	1
176	180	1
17	154	1
38	38	2
101	101	1
110	110	2
188	189	1
3	56	1
104	104	1
11	22	1
99	100	1
126	127	1
66	82	1
111	112	1
73	75	1
91	92	3
2	2	3
132	162	1
91	91	1
9	10	1
70	86	2
147	147	4
66	68	1
83	83	2
55	150	1
15	33	1
115	117	3
121	121	1
134	134	1
111	182	1
57	57	1
157	158	1
186	186	1
165	165	2
23	23	2
112	114	1
162	164	1
179	179	1
91	93	1
129	130	1
139	155	1
75	83	1
156	158	1
66	105	1
26	26	1
173	173	1
23	36	1
54	79	1
59	87	1
116	149	1
17	17	3
100	147	1
66	66	2
96	96	1
68	71	2
43	44	1
132	136	1
6	7	1
107	107	2
28	29	1
14	23	1
31	31	1
35	36	1
7	7	1
13	67	1
124	124	1
85	88	1
42	42	1
36	37	1
144	157	1
106	106	1
176	176	1
160	163	1
135	135	1
179	182	1
60	60	1
58	63	1
84	85	1
148	149	1
167	175	1
62	63	1
71	96	1
72	72	1
133	133	2
122	125	1
174	174	1
130	130	1
161	161	1
116	117	1
128	128	1
34	34	1
84	90	1
177	178	1
156	156	1
61	62	1
46	47	1
24	24	1
14	14	1
174	175	1
134	138	1
31	35	1
15	15	1
99	128	1
108	109	1
55	57	1
