227	227	2
195	195	2
80	80	4
214	215	3
14	14	2
105	105	2
15	15	4
38	38	2
47	47	3
160	161	3
12	12	5
49	49	3
236	237	1
102	103	2
60	60	3
182	182	3
31	47	3
110	110	3
162	162	3
59	59	2
203	203	3
19	19	1
34	40	2
191	192	1
34	34	3
76	113	1
73	88	1
32	33	1
237	238	3
116	116	1
184	185	1
20	21	1
241	241	1
41	41	2
169	171	1
228	229	3
17	18	4
76	77	3
41	42	2
21	47	1
22	23	1
240	240	2
171	171	2
90	91	1
3	5	1
103	210	1
186	195	2
172	174	1
30	31	1
202	202	3
183	183	4
215	215	1
175	175	3
93	93	2
16	16	1
62	63	1
5	7	2
228	228	3
185	185	3
185	246	1
170	171	1
157	157	2
21	21	3
174	174	1
229	229	2
212	212	7
199	199	2
68	68	2
29	154	1
78	79	1
207	207	2
100	100	1
4	4	6
178	229	1
177	177	3
193	193	1
39	39	4
44	44	2
234	234	2
247	247	1
231	231	1
166	167	1
161	161	2
33	155	1
214	214	1
61	62	2
79	82	1
121	121	1
184	214	1
57	61	1
57	57	1
189	192	1
19	45	1
80	91	1
189	190	2
20	151	1
9	9	3
93	94	1
79	79	1
237	237	2
28	28	5
158	197	1
172	173	1
26	26	3
155	155	4
95	95	4
151	151	2
176	176	3
71	77	2
65	69	1
175	176	1
80	119	1
54	55	2
180	180	1
110	115	1
111	111	4
184	184	3
170	178	1
82	83	2
96	96	3
52	53	1
213	213	2
211	211	1
88	88	2
109	109	3
165	224	1
17	19	1
174	182	1
220	221	1
222	222	2
15	16	1
19	20	2
187	187	1
4	5	1
201	202	3
33	33	3
177	178	1
55	61	1
20	25	1
203	204	1
172	172	2
7	7	2
229	230	2
19	152	1
221	222	1
65	65	1
168	168	3
213	214	2
71	223	1
186	186	2
65	100	1
38	40	1
217	217	3
224	224	2
107	107	2
36	36	2
87	90	1
239	239	1
210	211	1
246	246	1
219	219	2
20	20	5
6	6	1
72	72	2
185	209	1
172	225	2
54	113	1
24	226	1
218	218	1
46	225	2
111	147	1
87	89	1
25	25	3
2	2	3
71	73	1
245	245	2
216	239	2
170	170	2
62	62	1
16	232	1
54	85	1
238	238	1
169	185	1
179	229	2
92	93	2
192	194	2
200	220	1
198	198	2
83	94	1
11	11	2
193	196	2
182	192	1
80	82	1
165	165	2
10	10	1
32	32	2
150	150	3
8	8	1
65	76	2
223	223	2
230	230	3
105	106	1
52	169	1
208	208	3
66	66	3
190	192	1
87	88	2
113	113	2
160	160	1
28	30	1
118	118	1
22	22	3
232	232	3
46	46	1
181	181	1
190	191	2
114	114	2
3	6	1
120	120	1
30	30	2
33	34	2
17	17	1
215	217	1
187	188	2
169	170	2
192	193	1
204	204	3
43	43	2
196	196	2
85	85	1
102	102	1
200	200	2
115	117	1
187	195	1
84	84	2
104	105	1
159	159	1
168	169	1
209	212	1
190	190	1
117	118	1
178	178	1
154	154	1
212	219	2
89	89	1
211	213	1
86	86	2
3	208	1
56	87	1
79	173	1
58	58	1
97	97	1
54	54	1
3	3	1
40	40	1
165	176	1
57	63	1
66	67	1
36	37	1
197	238	1
220	230	1
117	117	2
166	166	1
169	169	1
193	209	1
35	36	1
215	216	1
193	215	1
29	29	1
179	179	1
45	46	1
18	18	1
163	164	1
170	191	1
96	98	1
52	244	1
24	25	1
189	189	2
186	189	1
56	162	1
69	69	1
92	92	2
42	42	1
1	1	1
190	197	1
93	110	1
87	87	1
53	54	1
164	232	1
193	198	1
226	226	1
64	64	1
56	57	1
180	200	1
31	31	1
231	235	1
71	72	2
220	220	2
173	173	1
169	179	1
241	242	1
210	238	1
83	84	1
216	218	1
238	239	1
194	195	2
204	205	1
29	30	1
47	48	1
76	78	1
106	107	1
96	97	1
5	5	1
74	74	1
151	152	1
21	22	1
16	17	1
209	238	1
44	156	1
70	70	1
164	168	1
70	71	1
35	35	1
153	153	1
64	75	1
119	119	1
181	182	1
226	228	1
90	90	1
193	195	1
156	182	1
29	119	1
