74	75	1
34	34	2
89	91	1
120	142	1
6	7	2
136	136	4
160	166	2
105	105	2
136	137	1
43	43	4
10	10	3
7	10	1
108	108	2
118	121	2
99	99	5
35	112	1
116	116	2
151	151	4
39	39	3
17	17	4
71	76	2
40	169	1
2	2	2
141	142	1
89	89	2
42	42	1
170	170	3
28	138	1
67	67	1
55	56	1
143	143	1
129	129	2
91	92	1
19	19	5
25	140	2
123	123	3
44	159	1
129	141	1
77	78	1
150	150	4
7	7	2
134	134	5
154	155	2
144	144	2
35	35	4
108	112	1
139	139	2
104	104	1
149	149	2
21	51	1
45	45	2
25	25	3
8	9	3
50	50	1
48	48	2
158	158	2
126	140	1
122	138	2
166	166	4
97	97	3
138	138	4
34	35	1
81	81	3
96	145	1
113	144	1
76	76	1
141	141	1
38	148	1
51	52	2
99	105	4
88	130	1
64	91	1
57	57	1
19	80	1
156	156	3
12	12	6
96	103	2
147	147	5
26	27	1
68	85	1
27	27	4
157	170	2
145	145	1
164	164	2
99	100	1
28	28	2
49	49	2
0	40	2
42	43	2
34	170	1
44	44	3
36	36	3
55	55	1
40	40	1
101	125	1
92	92	3
91	91	2
75	100	1
5	5	2
14	15	2
15	71	1
96	97	1
64	64	5
42	65	1
159	159	3
73	78	1
16	16	3
14	14	4
77	77	2
137	137	6
144	167	1
114	116	1
160	160	2
138	139	1
92	99	1
62	75	1
11	17	1
50	78	2
18	45	2
4	4	1
25	26	1
48	51	1
128	129	1
92	93	1
94	94	1
23	23	3
114	115	2
41	44	1
137	150	1
162	162	4
137	155	1
83	83	1
166	169	1
13	13	3
36	111	1
69	69	1
15	15	2
90	114	1
120	128	2
90	134	1
163	163	1
118	119	1
18	21	1
67	68	1
169	169	2
1	1	2
136	147	1
54	54	1
110	111	1
119	134	2
3	6	1
3	3	5
76	78	1
79	79	2
101	118	1
133	133	1
18	18	2
73	73	2
120	120	1
63	64	2
2	41	1
157	161	2
11	11	4
94	96	2
53	53	1
13	74	1
72	72	2
88	88	1
168	170	1
27	105	2
140	166	1
17	18	1
86	86	5
46	58	1
154	154	1
78	92	2
20	21	1
88	89	2
122	122	1
47	47	1
21	24	1
46	46	4
51	51	2
38	38	3
148	148	3
125	125	3
160	170	1
82	140	1
16	26	1
106	107	1
126	142	1
152	152	3
37	37	2
40	47	1
157	157	1
69	75	1
75	75	1
161	161	2
126	126	1
98	98	1
132	140	1
136	156	1
80	106	1
156	157	1
93	93	1
116	121	2
78	78	2
55	65	1
20	20	1
89	90	1
2	7	1
123	147	1
49	110	1
22	22	2
109	115	1
35	36	1
10	11	2
6	6	2
163	165	1
91	135	1
8	8	3
138	151	1
128	128	1
9	9	1
132	132	2
6	10	1
153	154	1
74	74	1
113	113	1
34	36	1
64	69	1
40	45	1
65	66	1
113	119	1
20	23	1
102	115	1
11	13	1
112	113	2
145	169	1
107	107	1
66	66	1
111	111	1
102	102	1
38	39	1
109	116	1
144	157	1
62	78	1
118	137	1
1	115	1
117	117	1
12	13	3
64	81	1
158	159	1
13	76	1
103	103	1
131	131	1
110	117	1
103	104	1
121	121	1
140	140	1
56	56	2
135	143	1
162	164	2
22	46	1
93	103	1
70	71	1
41	41	1
95	96	1
87	87	2
114	114	1
130	130	3
24	47	1
100	100	1
37	38	1
140	141	1
88	135	1
23	50	1
106	106	1
124	124	1
57	76	1
95	122	1
10	170	1
76	106	1
112	112	1
56	99	1
118	139	1
109	119	1
115	116	2
143	146	1
