193	195	2
188	207	1
44	47	1
236	236	2
84	84	4
150	150	6
43	51	1
176	176	1
80	80	2
2	2	1
62	65	1
178	182	1
104	104	2
206	216	1
227	237	1
155	157	1
8	9	2
182	182	3
169	170	1
85	86	3
117	143	1
62	70	1
182	190	1
187	188	1
4	10	2
61	65	2
18	18	3
148	149	2
56	57	1
86	89	4
154	154	6
73	109	3
180	183	2
167	182	2
133	135	1
188	191	1
234	234	1
125	125	4
50	54	1
164	164	4
4	16	1
226	226	4
4	4	2
37	48	1
171	175	1
30	46	1
1	21	1
151	153	2
210	210	2
98	98	1
77	77	1
161	165	1
161	176	3
64	64	2
157	157	2
139	148	1
181	183	1
138	157	1
26	26	2
132	159	1
8	10	3
227	229	2
133	137	1
206	208	1
10	11	2
219	219	2
117	141	1
101	101	2
129	137	1
115	115	1
54	54	3
34	70	1
166	169	1
37	47	1
15	16	2
125	138	1
42	42	1
56	56	3
15	15	2
27	27	2
171	171	2
196	210	1
32	32	3
173	198	1
63	64	3
172	172	3
172	173	1
136	137	2
82	82	5
72	72	1
162	163	1
44	45	1
133	145	1
158	166	2
138	173	1
155	155	2
140	141	2
231	238	1
46	49	5
238	242	1
68	69	1
16	17	1
242	243	1
164	170	1
50	50	2
223	223	2
175	203	1
155	165	1
196	200	1
118	129	1
117	125	1
124	154	2
10	10	2
74	75	1
139	139	2
142	152	1
3	3	3
116	126	1
160	160	5
222	238	2
162	162	1
81	88	3
166	172	1
217	218	1
41	181	5
176	179	3
232	233	1
215	229	1
16	16	1
200	200	2
100	100	1
114	115	1
97	108	2
118	126	1
159	159	1
104	105	1
234	237	1
71	84	1
33	53	1
0	14	1
185	185	1
0	10	1
184	184	1
163	164	2
48	106	1
236	239	2
45	63	1
185	193	1
168	168	3
223	235	1
3	11	1
137	138	2
112	114	1
154	157	1
145	164	1
169	183	2
235	235	1
50	60	1
27	31	1
7	35	1
168	169	1
28	28	2
52	53	1
152	152	6
67	76	3
115	116	1
29	29	1
195	195	4
209	220	1
36	36	2
116	116	1
102	103	2
185	201	1
71	75	2
11	18	3
159	167	1
129	129	2
138	145	1
27	33	2
70	77	1
134	138	1
144	162	1
73	78	1
69	70	1
65	76	1
4	15	2
181	181	2
140	140	2
122	128	1
198	217	1
28	31	1
167	180	1
135	137	1
166	167	1
14	26	1
52	52	1
32	50	1
51	67	1
169	169	2
60	62	1
168	182	3
132	138	2
239	239	1
157	197	1
145	145	1
29	36	3
221	234	1
126	126	2
55	70	1
168	170	1
235	239	1
152	172	2
178	178	2
9	10	2
19	35	1
177	177	1
145	146	1
241	241	1
174	174	1
172	174	1
13	13	1
124	124	1
38	38	1
167	167	1
128	146	1
188	190	1
3	6	1
74	86	1
230	239	1
105	118	2
192	194	1
36	38	1
161	188	1
4	6	4
8	23	2
37	37	6
21	21	3
199	205	1
13	26	2
100	109	1
16	27	1
114	119	1
76	78	3
1	10	1
235	236	1
117	118	1
142	143	2
43	50	1
10	12	1
170	170	1
230	235	1
67	78	2
36	44	1
222	232	2
163	166	1
37	53	1
23	35	3
233	233	2
195	213	1
66	66	1
161	178	2
161	173	1
2	21	1
183	187	1
80	84	1
60	61	2
107	123	1
0	25	1
205	206	1
99	99	1
75	86	1
149	149	1
10	16	1
172	197	1
152	158	1
167	169	1
156	156	1
135	135	3
169	180	1
179	179	1
164	165	1
196	202	1
1	12	1
217	233	1
10	15	1
205	207	1
105	106	1
4	5	1
218	218	1
12	12	3
105	105	1
18	22	1
76	81	1
210	212	1
85	85	3
193	193	1
165	165	2
97	97	2
198	201	1
0	0	2
158	174	1
205	218	1
217	222	1
150	155	1
151	156	1
86	86	3
82	89	1
176	186	1
185	199	1
134	137	1
215	224	1
146	167	1
106	106	1
83	83	1
169	177	1
76	91	1
55	56	1
202	231	1
37	38	1
108	110	1
20	23	1
44	51	1
2	7	1
46	46	1
20	26	1
47	72	1
229	229	1
100	101	1
163	187	1
192	192	1
198	198	1
109	131	1
75	81	1
130	130	1
11	16	2
46	47	1
27	40	1
168	183	1
85	88	1
158	176	2
43	53	1
97	99	1
114	139	1
168	178	1
196	209	1
34	35	1
71	71	1
214	218	1
186	186	1
177	188	1
223	242	1
40	50	1
8	14	1
183	185	1
123	151	2
48	48	1
42	44	1
117	121	1
171	176	1
19	20	2
91	91	1
160	180	1
40	52	1
144	154	1
119	119	1
191	192	2
19	34	1
26	33	1
170	182	1
153	159	1
108	108	1
193	201	1
128	128	1
225	236	1
34	34	1
27	38	1
110	110	1
121	122	1
65	65	2
151	154	1
110	123	1
147	147	1
0	27	1
219	240	1
7	17	1
175	175	1
144	144	2
78	78	1
19	21	1
100	102	1
133	133	2
111	119	1
77	79	1
5	5	1
23	23	1
170	185	1
29	37	1
44	52	1
41	42	1
161	180	1
74	74	1
17	39	1
136	136	1
215	215	1
8	16	1
173	173	1
161	161	1
159	160	1
159	161	1
173	185	1
6	31	1
123	137	1
45	45	1
53	55	1
3	40	1
72	83	1
135	151	2
16	36	1
70	169	1
107	122	1
76	76	1
218	220	1
194	194	1
13	34	1
68	68	1
151	163	1
205	217	1
155	156	1
7	18	1
44	46	1
151	157	1
125	137	1
163	174	1
2	20	1
155	160	1
120	142	1
148	150	1
126	127	1
210	232	1
175	176	1
97	102	1
146	154	1
5	16	1
176	182	1
7	7	1
30	31	1
31	32	1
102	105	1
73	74	1
155	171	1
120	131	1
18	49	1
142	142	1
81	81	1
225	225	1
217	224	1
202	219	1
8	22	1
64	65	1
194	195	1
173	186	1
24	30	1
134	151	1
196	198	1
218	219	1
74	76	1
116	140	1
205	205	1
103	105	1
