134	134	11
173	173	10
15	15	8
4	4	5
115	118	2
87	89	1
44	44	5
0	64	2
55	55	6
17	19	1
10	10	8
87	87	6
25	26	1
55	80	1
152	152	7
137	137	5
126	126	7
113	113	3
90	90	7
88	88	4
121	170	1
56	56	9
95	96	1
160	162	1
65	66	1
43	46	1
87	116	1
131	141	3
72	72	12
167	168	3
112	113	1
110	111	1
54	173	1
56	61	1
178	178	4
105	105	2
61	61	4
32	33	3
9	17	1
24	29	2
23	23	5
91	91	5
111	111	2
149	149	6
15	16	1
125	125	4
80	169	1
74	75	2
41	41	8
154	154	9
126	145	1
163	164	4
172	172	8
73	73	6
70	72	2
71	71	4
45	45	1
147	147	5
93	93	3
171	171	6
80	81	1
162	163	1
68	90	1
162	162	1
37	37	9
159	159	6
143	143	3
131	132	3
53	56	1
22	22	6
114	114	2
79	79	6
6	10	1
123	123	2
25	25	3
145	145	8
58	111	1
81	81	5
21	22	2
67	67	7
3	3	5
161	161	4
32	32	5
44	46	2
148	172	1
28	28	2
124	124	7
101	101	3
31	31	4
44	112	1
180	180	6
176	176	7
62	64	5
62	62	6
121	121	8
122	122	5
140	140	3
6	7	1
70	71	1
16	16	8
65	65	4
33	33	7
42	93	1
63	86	1
169	169	5
115	119	1
37	41	1
132	132	5
98	122	1
18	18	2
36	36	4
138	138	5
135	136	1
170	171	3
154	164	1
157	163	1
35	50	1
26	26	3
148	148	7
36	39	1
136	136	5
94	95	4
133	133	7
96	96	7
130	145	3
27	27	1
93	94	2
122	145	1
108	110	2
23	25	3
52	52	5
24	24	1
175	176	2
160	160	4
174	174	6
2	2	7
106	106	3
17	17	3
23	46	2
95	95	6
136	137	1
12	92	2
51	51	5
29	29	1
50	50	4
6	6	3
81	82	2
79	81	1
99	115	1
80	80	3
12	39	1
159	162	1
30	30	5
168	168	7
54	54	3
39	39	3
82	117	1
22	23	4
76	76	5
73	74	2
61	132	1
177	177	2
25	30	1
14	14	3
31	32	3
150	180	1
150	150	5
5	5	6
157	157	5
1	1	4
13	19	1
119	140	2
28	29	2
112	112	4
141	141	4
102	102	4
76	77	2
175	179	1
110	110	7
99	100	2
35	35	2
63	66	1
89	89	3
61	79	2
173	175	1
92	92	2
158	169	2
171	172	3
62	63	2
34	34	8
66	66	6
54	55	1
151	151	6
8	8	3
146	170	1
149	176	1
43	43	3
6	39	1
1	168	1
164	166	1
106	127	2
32	43	2
158	158	2
59	96	1
165	167	1
42	43	1
129	140	2
163	167	2
12	99	1
85	85	2
43	44	3
95	102	1
130	130	3
61	64	1
10	13	1
125	146	1
0	0	8
161	163	1
170	170	5
82	82	3
59	59	2
157	158	5
60	61	1
7	7	2
95	125	2
142	142	5
35	36	2
62	112	1
18	33	1
49	51	1
150	152	2
166	167	1
3	4	1
115	136	1
77	77	5
64	65	4
141	151	1
38	38	3
164	164	2
23	50	1
13	64	1
109	109	1
11	11	2
116	117	1
34	35	3
138	149	1
108	108	2
108	114	1
119	119	4
90	120	1
144	163	1
13	13	12
137	138	1
99	99	1
39	43	2
64	64	1
4	5	1
126	162	1
56	57	1
11	12	2
128	128	2
42	42	1
84	86	1
96	125	1
131	149	2
153	153	4
84	84	4
134	135	2
75	77	1
115	115	3
127	132	1
104	106	2
54	66	1
156	157	1
131	140	1
27	28	1
54	56	1
175	175	2
163	163	2
66	81	2
19	32	1
19	20	2
59	91	1
25	45	1
133	176	2
126	132	2
11	13	4
19	19	1
40	40	6
118	151	1
83	114	1
167	167	3
108	109	2
56	58	1
10	12	1
159	163	1
125	126	4
118	118	2
129	160	1
92	93	2
139	139	6
4	11	1
64	103	1
144	144	3
57	74	1
80	89	1
129	129	3
66	74	1
126	171	1
168	169	1
53	53	5
57	61	1
54	65	1
56	65	1
127	127	1
84	87	1
105	127	1
177	178	1
24	26	1
156	156	3
75	75	1
117	126	2
107	136	1
101	106	1
32	34	1
58	88	2
144	162	1
40	43	2
158	159	1
25	28	2
146	146	2
21	21	1
51	59	1
33	107	1
78	78	2
10	11	1
88	89	1
59	78	1
168	171	1
100	128	1
61	83	1
54	86	1
120	121	1
126	129	1
157	171	1
127	169	1
81	108	2
119	120	4
165	166	1
52	60	2
97	97	2
139	140	1
53	60	1
13	15	2
33	37	1
86	86	2
167	179	1
15	23	1
52	82	1
70	70	1
139	149	1
150	151	1
80	87	1
126	127	1
142	143	2
29	30	1
55	61	1
18	20	1
154	155	2
8	30	1
119	156	1
74	94	1
43	51	1
84	120	1
144	145	3
86	118	1
98	98	3
34	38	2
7	9	1
0	1	3
90	94	3
55	81	1
170	172	2
25	51	1
164	165	1
87	93	1
117	117	1
136	161	1
155	156	3
141	159	1
50	51	1
37	180	1
114	149	1
2	11	1
125	130	1
131	131	2
71	74	1
32	72	1
154	170	1
20	21	1
166	166	6
64	95	1
140	152	1
126	150	1
101	128	1
50	83	1
12	13	1
44	45	1
53	54	1
39	40	1
77	81	1
127	131	1
172	173	1
61	63	3
158	160	1
109	111	1
10	42	1
35	39	1
43	60	1
16	20	1
179	179	3
20	22	2
132	168	1
60	60	2
73	148	1
9	9	2
68	68	1
4	13	1
104	105	3
2	4	1
77	78	3
19	23	1
153	172	1
60	87	1
68	71	1
63	63	3
135	172	1
58	142	1
0	6	1
81	137	1
132	133	1
118	120	1
123	124	1
33	64	1
102	105	2
20	20	1
146	165	1
94	96	1
111	112	1
17	31	1
122	169	1
70	78	1
118	121	1
102	103	1
125	143	1
67	68	1
148	159	1
153	160	2
143	144	1
96	119	1
23	24	1
41	42	1
57	114	1
148	151	2
33	34	1
105	107	1
116	116	1
16	21	1
118	142	1
26	29	1
167	169	1
139	178	1
1	2	1
147	148	1
16	17	1
5	106	1
89	90	1
19	21	1
108	115	1
13	14	1
90	149	1
122	138	1
12	12	1
112	127	1
140	141	1
114	115	2
10	14	1
13	32	1
107	107	1
135	168	1
111	147	1
121	125	1
146	156	1
155	169	1
142	158	1
107	109	1
138	180	1
44	110	1
169	170	1
116	120	1
58	58	1
86	88	1
4	33	1
90	141	1
28	50	1
134	138	1
24	27	1
143	145	2
28	33	1
31	34	1
137	139	1
18	50	1
49	49	1
129	130	1
1	173	1
10	110	1
60	88	1
