63	63	7
26	26	2
88	90	3
58	78	2
81	81	3
84	84	2
91	91	4
33	34	3
99	99	3
93	93	4
63	64	1
89	90	2
61	61	8
103	104	1
92	92	4
34	34	3
39	39	6
86	86	3
52	53	1
94	94	4
22	52	1
57	57	4
27	28	1
84	85	1
56	56	6
100	107	1
20	20	3
60	61	3
21	21	6
105	105	3
32	32	7
50	54	1
28	28	4
20	21	2
55	55	1
51	71	1
68	68	6
51	53	2
47	48	2
82	83	2
72	72	4
51	51	2
49	49	4
71	71	4
33	33	5
45	46	2
70	70	3
101	101	3
59	59	3
57	68	1
98	98	4
25	28	2
81	82	3
104	104	5
78	78	6
37	76	1
45	45	6
42	45	1
86	87	1
57	58	2
21	22	3
58	59	1
76	76	5
50	65	1
76	77	3
52	52	4
25	96	1
67	67	4
30	32	1
26	27	1
69	69	7
90	90	6
46	46	2
36	37	2
61	62	2
23	23	5
82	84	1
88	88	3
67	73	2
85	85	2
101	102	2
83	83	2
64	65	1
23	24	1
29	29	5
74	75	2
66	66	1
65	65	4
67	68	1
77	77	4
75	75	4
51	80	1
59	76	1
48	48	4
48	53	1
99	100	1
37	37	4
25	50	1
24	24	4
38	38	5
48	50	2
21	24	2
81	100	2
32	58	1
27	27	3
30	30	3
44	44	3
62	62	1
97	98	1
37	67	1
23	35	2
19	19	1
43	44	2
89	89	2
54	79	1
73	74	1
43	46	3
42	43	2
94	95	2
106	107	1
58	64	1
53	53	2
29	61	1
25	41	1
31	31	3
37	95	1
53	97	2
94	97	1
84	86	2
47	47	3
95	95	6
31	52	2
43	43	1
21	50	1
102	103	2
64	64	4
68	69	2
80	84	1
100	100	3
41	44	1
50	61	1
29	30	1
79	79	1
69	96	1
73	75	1
92	94	1
51	55	2
30	33	1
25	26	1
52	56	1
50	50	3
22	36	1
57	59	1
31	32	3
54	60	1
24	25	1
20	50	1
76	105	1
28	30	2
60	60	4
97	97	5
24	29	1
102	102	3
80	80	2
35	35	4
21	78	2
25	25	1
96	103	1
65	75	1
96	96	1
74	74	3
73	73	1
33	45	1
95	96	1
82	82	1
107	107	1
87	87	2
63	65	1
59	104	1
91	92	1
71	105	1
37	71	1
79	83	1
83	100	1
103	103	3
87	88	1
32	38	1
22	22	1
58	60	1
29	46	1
41	41	1
37	38	1
40	62	1
40	41	1
50	66	1
51	52	1
61	89	1
85	86	1
98	99	1
106	106	1
36	59	1
49	54	1
34	35	1
104	105	1
56	69	1
80	82	1
58	69	1
48	49	1
90	91	1
41	42	1
83	85	1
105	107	1
20	23	1
36	36	2
22	33	1
54	62	1
83	84	1
24	31	1
71	106	1
