130	130	8
82	82	3
88	88	7
104	104	3
138	139	1
71	101	1
98	98	5
78	78	3
10	12	2
109	109	4
104	106	2
135	135	11
132	132	8
130	131	3
102	102	6
139	139	3
140	140	3
125	125	7
92	98	2
107	107	1
75	77	5
118	118	6
106	107	3
113	113	3
138	138	4
132	133	4
86	86	5
121	122	1
100	100	7
72	72	3
18	18	3
128	128	3
100	101	5
137	137	2
101	101	4
82	83	2
84	106	1
101	104	1
99	100	1
101	102	1
14	14	4
129	129	8
89	93	1
116	126	1
133	133	29
2	2	4
93	94	1
114	114	5
92	92	2
79	122	1
33	36	2
34	34	4
79	80	3
78	115	1
114	115	2
71	72	2
38	38	3
111	114	1
104	105	2
3	6	1
7	8	1
8	8	1
132	139	2
0	0	3
77	83	1
131	131	3
36	36	2
37	37	5
19	19	1
120	120	4
97	114	1
119	119	2
111	125	1
95	95	8
105	107	1
123	123	7
13	13	1
124	136	1
75	79	2
20	20	1
9	10	3
81	82	1
33	33	1
104	113	1
37	38	3
116	116	5
97	115	1
111	123	1
99	99	2
127	127	3
35	35	4
74	74	4
16	16	2
97	97	2
33	38	1
96	116	1
91	91	1
94	95	1
111	134	2
122	122	4
97	98	1
126	126	2
32	32	1
4	4	2
1	1	1
94	94	2
3	7	1
0	1	1
80	86	1
90	90	3
76	76	1
77	77	3
95	96	3
89	89	3
105	106	2
125	126	2
73	73	3
123	125	2
33	35	1
105	105	2
126	131	1
80	80	4
112	112	1
134	135	1
15	15	2
82	85	1
134	134	6
94	133	2
98	102	1
108	108	3
34	35	2
96	97	1
79	79	1
124	124	1
115	115	3
121	121	2
75	76	1
76	77	1
90	93	2
10	11	5
133	134	1
81	81	2
103	103	1
104	117	1
124	126	1
113	133	1
89	90	3
36	37	1
83	84	1
6	7	1
80	84	2
35	36	1
136	136	2
83	85	1
108	109	1
38	90	1
96	96	2
117	117	3
3	4	1
106	106	1
87	87	1
83	83	1
110	110	1
5	5	1
115	118	2
113	114	1
2	20	1
88	110	1
111	111	1
109	110	1
86	93	1
103	120	1
71	71	1
92	93	1
79	101	1
129	130	1
72	103	1
81	86	1
83	86	1
11	12	2
75	88	1
14	15	1
127	129	1
85	86	1
104	107	1
118	119	1
44	44	1
139	140	1
101	111	1
27	27	1
3	3	1
6	6	1
111	112	1
