79	79	2
27	27	2
53	98	2
77	77	3
17	17	2
113	113	1
195	195	2
141	141	2
20	20	3
187	187	2
5	36	1
132	133	1
143	143	1
15	15	3
160	161	2
197	197	1
196	196	3
8	34	1
159	159	2
194	194	3
26	26	2
100	100	1
43	43	7
70	71	1
7	7	2
50	50	5
104	105	1
179	179	2
46	46	3
1	3	2
28	29	1
95	109	1
74	90	1
125	131	1
38	38	8
6	6	1
170	172	1
69	69	1
133	137	1
93	94	1
8	8	1
184	184	2
44	44	3
28	28	1
27	28	1
109	116	1
181	181	2
33	33	2
160	162	1
188	188	2
4	4	4
24	24	2
121	121	1
104	104	1
142	142	3
171	176	1
110	110	1
18	18	2
161	166	1
42	42	2
39	39	2
149	149	1
119	121	1
190	192	1
34	114	1
147	148	1
142	182	2
76	76	1
4	37	1
159	179	3
72	94	1
179	193	1
62	62	4
114	114	1
82	87	1
64	64	1
32	33	5
62	80	2
82	82	1
37	37	4
105	105	1
172	176	1
141	142	1
63	63	2
89	89	1
3	4	1
118	118	1
23	23	3
168	168	1
47	47	8
15	16	3
192	192	4
120	120	1
9	9	6
171	171	2
151	151	1
64	65	1
185	186	1
188	190	1
41	41	2
145	146	1
22	22	1
12	12	5
25	25	1
24	28	1
125	126	1
78	78	1
68	68	1
174	176	1
36	36	1
137	189	1
120	133	1
119	119	2
112	113	1
29	31	1
102	102	1
130	131	1
157	157	1
72	72	1
133	133	2
0	1	1
45	45	3
13	49	1
155	155	4
73	73	1
137	137	1
5	5	2
43	44	1
31	31	1
48	48	2
142	143	1
16	42	2
81	84	2
170	170	2
13	13	1
127	127	2
74	88	1
30	30	1
173	175	2
144	145	1
150	150	1
63	86	1
9	47	3
38	77	1
146	146	1
128	128	2
59	59	1
17	22	1
123	124	1
34	35	1
162	162	1
98	98	1
7	8	1
96	96	1
168	179	1
1	1	1
142	148	1
40	40	4
121	122	1
32	36	1
70	70	1
18	22	2
152	153	1
29	29	1
167	167	2
194	196	1
19	19	1
193	193	2
195	196	1
132	155	1
101	101	3
116	117	2
117	117	1
14	14	1
120	121	2
138	139	2
42	43	3
182	182	1
132	149	1
190	190	1
29	30	1
61	61	1
97	111	1
83	83	1
55	59	1
125	127	1
28	74	1
108	109	1
171	172	1
61	64	1
167	187	2
3	3	1
157	176	1
180	180	1
32	32	3
107	107	1
153	153	1
167	168	1
66	66	1
151	152	1
57	57	1
106	106	1
81	82	1
22	23	1
54	54	1
94	95	1
51	51	1
56	56	1
135	135	1
165	165	1
136	142	1
44	45	1
35	35	4
96	105	1
34	36	1
82	89	1
191	191	1
111	117	1
140	140	1
55	55	1
168	169	1
54	57	1
130	130	1
55	56	1
30	31	1
109	109	1
100	105	1
176	176	1
192	193	1
179	180	1
156	156	1
178	178	2
34	34	1
94	94	1
86	87	1
9	59	1
11	12	1
81	81	1
66	67	1
139	139	1
1	21	1
183	183	1
166	191	1
167	185	1
87	100	1
160	172	1
39	131	1
150	152	1
6	23	1
6	32	1
160	160	1
11	11	1
