173	173	4
30	30	2
138	138	8
135	137	1
108	108	1
14	14	8
153	153	5
23	25	2
123	123	5
129	129	7
152	171	1
39	39	4
11	12	2
168	168	6
98	98	5
160	160	2
38	38	5
72	75	3
143	157	1
77	77	3
171	171	8
119	143	1
157	157	4
105	105	2
116	167	1
133	133	6
5	6	6
125	125	3
65	66	1
62	84	1
41	41	5
82	94	1
154	172	2
6	6	6
65	65	8
25	26	2
131	146	2
156	156	3
40	40	8
150	150	6
8	18	1
143	143	2
84	85	3
116	123	1
96	121	2
6	10	1
102	102	7
28	28	2
145	145	11
158	158	8
13	22	4
5	56	2
165	169	1
59	60	5
126	126	3
19	36	1
116	116	3
125	135	1
153	154	1
102	121	1
27	27	5
153	176	1
126	127	1
67	68	1
128	128	4
141	141	5
14	26	1
139	139	7
132	132	9
77	122	1
136	136	6
89	91	1
166	166	10
92	93	1
31	31	5
103	104	1
178	178	3
162	162	6
90	90	4
62	95	1
135	136	3
64	64	6
42	42	12
18	20	2
24	25	3
5	31	1
68	68	1
31	32	2
44	44	5
9	10	4
62	90	1
144	148	1
168	170	2
159	159	7
79	79	5
93	95	2
142	145	1
4	25	2
103	103	5
9	18	1
19	19	5
152	152	3
176	176	8
1	38	1
139	140	3
78	78	4
53	55	2
22	22	2
110	111	3
31	33	2
175	176	3
148	149	4
12	12	9
94	98	3
168	175	1
72	74	1
112	112	4
161	161	3
74	75	1
2	3	3
57	57	1
175	175	2
88	102	1
118	118	5
109	109	5
112	130	2
151	152	5
67	67	10
71	71	7
115	115	3
56	57	1
24	24	1
26	26	2
165	166	1
134	134	2
147	147	6
26	27	2
33	33	6
29	29	3
39	40	5
37	37	11
53	71	1
159	171	1
90	126	1
142	142	9
58	58	5
52	55	1
18	18	5
110	110	1
117	117	7
96	96	7
160	163	1
77	87	1
172	172	5
135	150	1
165	167	2
3	3	6
10	43	1
113	114	1
86	88	2
109	131	1
173	178	2
164	164	2
8	8	8
32	56	2
139	142	1
108	109	1
11	11	8
167	168	4
11	17	3
44	45	3
135	135	5
82	85	1
97	97	5
60	94	1
169	169	5
114	150	1
127	147	2
94	94	6
72	72	5
101	101	1
90	131	1
0	0	2
21	35	1
21	23	1
91	91	6
145	149	1
146	146	5
53	56	1
144	144	4
73	73	4
139	150	1
5	5	7
111	111	4
114	115	1
164	165	1
2	2	5
84	84	2
141	144	1
59	86	1
95	95	1
55	55	5
94	116	1
114	117	1
76	76	3
89	89	3
140	140	5
9	9	5
52	52	3
87	87	7
8	16	1
134	140	1
177	177	5
163	163	6
43	44	2
56	56	2
60	61	1
41	58	1
99	101	1
61	61	2
66	68	1
145	146	2
159	160	1
98	119	1
62	62	3
170	170	4
36	86	1
94	96	1
131	148	2
154	154	6
93	110	1
95	158	2
4	4	2
66	82	3
43	43	4
60	60	3
147	170	1
1	1	5
98	126	1
16	16	3
114	128	2
10	10	4
138	147	1
137	137	6
137	141	1
25	25	3
88	88	2
17	17	2
170	171	1
86	86	3
119	119	3
80	80	5
103	156	1
10	11	2
161	163	2
131	131	4
41	67	1
42	70	1
137	149	2
22	28	2
92	109	1
17	72	1
5	9	1
3	4	2
172	180	1
3	12	1
36	36	2
154	157	1
85	85	1
55	56	3
7	24	1
75	75	5
129	130	3
77	81	1
164	166	1
60	73	1
151	151	4
147	148	1
153	156	1
121	121	4
149	149	7
58	59	1
95	118	1
75	78	1
50	60	1
38	40	1
122	126	1
67	107	1
130	148	2
129	143	1
10	38	1
141	142	2
82	84	1
57	91	1
134	135	1
138	180	1
161	162	1
59	59	5
174	175	1
61	65	1
154	174	1
107	107	3
99	99	2
25	50	2
35	44	1
140	146	2
104	104	1
21	21	2
34	34	2
19	58	2
92	92	3
38	39	1
100	100	4
40	41	1
127	127	3
9	26	1
55	76	1
154	173	1
29	30	2
20	57	2
149	154	2
136	153	1
65	123	1
24	66	1
152	153	1
136	159	1
122	122	4
55	88	1
81	81	4
93	93	8
13	13	3
103	105	1
61	63	1
112	134	1
10	74	1
120	120	5
54	55	1
117	124	1
142	162	1
56	67	2
83	83	3
75	76	1
125	154	1
118	133	1
121	122	2
37	38	3
34	37	1
15	15	1
140	141	1
61	79	1
100	140	1
135	174	1
23	24	3
8	9	2
114	123	1
144	164	1
6	9	1
103	169	1
111	140	1
171	173	1
61	80	1
126	129	2
98	137	1
157	162	1
120	130	1
64	71	2
66	67	3
72	76	1
66	66	1
112	129	1
155	155	3
24	43	1
176	177	1
65	67	1
23	26	1
171	174	2
123	125	2
22	25	1
148	148	4
61	81	1
126	131	2
152	158	2
118	120	1
40	43	1
163	165	1
20	20	1
87	107	1
129	156	1
76	87	1
100	120	1
111	116	1
85	89	1
14	15	2
179	179	4
132	174	1
95	122	2
25	37	1
32	32	4
5	18	1
82	82	4
115	116	1
136	155	1
116	142	1
23	30	1
123	145	1
8	22	1
135	161	1
112	125	1
119	120	1
77	110	1
30	156	1
7	18	1
124	124	1
22	24	1
125	126	1
167	167	2
96	97	1
122	123	2
86	119	2
154	169	1
131	150	1
52	60	2
27	30	2
165	165	1
72	73	1
157	170	1
87	89	1
3	5	2
16	34	2
20	22	1
49	92	2
143	146	1
31	36	1
113	113	2
84	108	1
128	129	1
6	29	1
117	131	2
77	118	1
63	63	2
140	142	1
7	21	1
106	106	2
114	114	2
112	132	1
142	143	3
74	74	1
16	27	2
143	162	1
54	81	1
12	13	3
84	86	1
19	21	1
159	170	2
28	30	2
8	31	1
147	161	2
1	3	1
115	130	2
13	16	1
172	173	1
91	92	1
165	170	1
116	134	1
50	57	1
162	163	1
27	29	2
151	159	1
125	128	1
115	157	1
105	107	1
105	130	1
52	53	1
70	71	3
71	74	1
82	95	1
106	107	2
71	72	1
16	17	2
52	54	1
177	178	1
122	133	1
73	79	1
9	11	1
140	151	1
122	130	1
131	132	2
157	179	1
149	163	1
58	87	1
167	170	1
158	159	4
91	96	1
53	54	1
60	64	1
168	169	2
131	160	1
150	157	1
130	130	3
175	179	1
89	130	1
133	150	1
156	157	1
130	131	1
109	110	1
168	176	1
19	53	2
53	59	1
70	70	1
9	42	1
50	50	2
118	125	1
33	34	1
35	35	2
51	51	1
120	148	1
39	41	1
137	172	1
20	38	1
174	174	2
42	43	1
23	28	1
171	177	1
7	25	1
31	55	1
111	113	1
27	28	1
150	153	1
86	90	1
124	125	1
41	42	1
79	80	1
85	108	1
22	33	1
11	20	1
91	93	1
147	151	1
128	152	1
141	143	1
163	177	1
172	176	1
168	174	1
163	167	1
166	167	1
98	108	1
15	27	1
120	123	1
36	38	1
138	139	1
103	120	1
11	15	1
170	172	1
36	43	1
126	147	1
24	30	1
126	128	1
77	95	1
40	82	1
19	20	1
82	87	1
29	35	1
70	80	1
153	169	1
86	92	1
99	100	1
13	15	1
67	82	1
26	28	1
113	119	1
163	168	1
59	92	1
52	56	1
89	107	1
101	103	1
81	82	1
83	84	1
107	108	1
132	133	1
92	97	1
117	146	1
112	122	1
76	77	1
147	157	1
85	88	1
96	98	1
