60	60	3
62	62	2
53	53	4
82	87	1
114	114	6
127	127	5
104	104	4
44	46	1
180	182	1
42	42	3
86	107	1
53	71	1
120	120	4
154	157	1
64	68	1
24	24	9
35	35	3
145	145	4
142	142	4
42	43	4
166	174	1
59	63	2
89	89	4
143	143	1
157	165	1
138	138	3
86	90	2
85	86	1
71	71	6
83	83	3
137	137	5
93	93	4
104	115	1
136	155	2
150	161	1
32	32	4
6	6	7
164	165	2
151	184	1
80	80	2
36	36	6
94	95	4
23	24	1
5	77	4
28	29	2
74	74	7
37	54	2
68	69	2
75	75	5
123	152	1
184	184	1
55	55	6
188	188	6
82	82	5
5	5	3
170	174	3
111	138	1
132	132	4
174	174	4
122	164	1
29	30	2
138	149	1
36	37	5
23	35	1
8	8	5
25	25	4
153	153	9
65	66	2
95	106	1
155	157	1
25	29	1
165	166	3
173	174	1
156	156	6
109	110	3
90	91	1
155	155	7
123	124	1
21	21	4
91	96	1
101	101	3
1	1	5
22	22	3
182	183	1
13	14	2
13	13	2
15	15	6
130	133	1
10	10	5
58	58	2
174	181	1
119	119	4
147	153	1
71	72	4
140	140	6
103	103	2
189	189	1
112	112	2
133	133	2
185	186	2
0	4	2
80	84	1
102	104	2
46	46	5
151	182	2
88	88	3
183	183	7
136	136	2
125	132	3
171	172	3
159	178	1
26	26	4
45	45	5
187	190	1
79	79	1
65	65	3
187	187	2
43	43	2
40	44	1
116	116	2
62	65	2
124	124	8
110	110	3
163	180	1
149	149	2
68	91	2
131	131	2
180	181	2
173	173	5
169	170	2
139	139	8
146	170	1
94	94	3
59	64	2
26	29	1
54	54	3
181	186	1
100	119	1
118	118	6
129	146	1
123	129	2
57	57	6
127	152	1
87	87	7
126	130	1
106	143	1
90	90	5
133	154	1
108	108	5
11	12	3
168	168	3
128	128	6
108	165	1
175	183	2
181	188	2
74	75	1
86	88	1
122	122	5
112	129	1
166	166	3
12	12	4
1	24	1
121	121	6
89	100	2
2	2	2
56	56	2
63	63	2
37	37	9
26	27	2
125	125	7
129	129	6
156	158	1
41	41	6
20	21	1
52	85	3
146	146	6
78	78	2
88	120	1
177	178	1
120	124	1
128	129	1
128	131	1
156	159	1
130	136	1
61	63	1
72	73	2
102	107	1
18	18	3
123	123	1
76	76	3
120	123	1
53	66	1
158	166	1
58	59	3
137	149	2
91	91	3
82	84	1
83	84	1
179	180	5
7	7	6
95	95	4
109	109	2
86	111	1
122	123	1
155	173	1
3	6	2
178	179	3
130	134	1
4	4	4
176	176	6
101	102	2
37	53	1
3	3	5
132	165	1
70	90	1
39	39	5
77	79	1
63	65	1
179	179	2
171	171	4
58	64	1
149	190	1
35	37	1
19	20	1
150	152	2
5	21	1
20	20	4
174	187	1
186	186	4
158	158	3
25	48	2
73	73	2
38	38	4
131	182	2
152	153	2
143	178	1
144	144	5
12	22	1
48	48	1
153	154	1
78	120	1
119	120	1
167	168	4
163	163	1
112	118	1
111	111	5
107	113	1
42	44	1
171	174	2
29	29	2
159	159	4
107	107	5
69	70	2
168	169	2
142	144	1
90	92	2
134	137	2
34	37	1
62	85	1
63	64	3
135	135	2
149	157	1
149	151	1
152	185	1
17	17	4
80	82	1
153	184	1
20	24	1
184	185	3
86	86	1
169	169	2
30	30	3
62	64	1
126	128	1
13	41	2
76	116	1
14	16	1
25	73	1
189	190	1
185	185	3
10	25	2
28	28	6
106	106	3
148	186	1
118	119	2
80	87	1
67	68	1
174	175	2
33	46	1
137	139	1
188	190	2
134	136	2
108	130	3
58	60	1
144	166	1
128	151	1
11	13	1
15	26	1
67	81	1
154	154	7
92	92	1
30	124	1
86	89	1
87	88	3
152	152	2
146	147	1
75	100	2
111	123	1
14	14	4
148	154	1
92	94	1
90	105	1
66	66	2
15	33	1
96	96	5
101	114	1
0	1	1
104	106	1
178	178	2
114	148	1
151	151	6
127	132	1
148	149	3
81	81	5
78	98	1
178	182	1
85	85	4
186	187	1
85	91	1
115	116	2
104	120	1
21	22	3
23	23	1
175	175	4
66	67	1
44	45	2
156	157	2
113	114	1
67	95	1
153	186	1
143	173	1
113	113	6
4	5	1
176	177	1
151	156	2
147	171	2
100	103	1
85	103	1
109	113	1
48	54	1
135	166	1
170	170	3
17	19	1
129	186	2
100	100	2
190	190	2
76	100	1
7	8	1
16	39	1
31	32	3
82	89	1
91	92	1
58	146	1
111	115	1
120	140	1
134	135	1
96	122	1
64	105	1
93	94	3
127	148	1
125	128	1
148	150	1
98	98	4
167	167	2
24	25	2
111	146	2
74	76	1
115	115	1
43	58	1
105	105	3
126	138	2
93	108	1
10	11	1
181	181	1
178	189	1
134	134	1
47	47	5
170	172	1
24	27	1
147	147	3
120	133	1
106	109	1
120	122	2
164	166	1
36	59	1
99	109	1
33	33	4
19	19	3
88	90	1
18	20	2
129	154	1
148	148	1
93	95	1
120	188	1
143	147	1
31	31	1
169	177	1
63	66	3
6	7	1
182	182	2
58	84	1
162	162	1
79	80	2
54	101	1
102	102	2
147	155	1
166	169	1
57	84	2
146	148	1
167	170	1
53	54	1
141	141	2
151	169	1
68	68	2
32	33	1
99	99	2
114	134	1
6	15	1
17	22	1
55	56	2
64	70	1
178	186	1
71	74	2
138	148	1
159	183	1
62	63	3
130	130	2
155	156	2
76	77	1
59	60	2
131	132	1
78	79	1
75	80	1
166	167	1
149	169	1
4	23	1
141	142	1
142	143	1
84	84	3
153	169	1
9	9	1
153	164	1
128	139	1
91	93	1
145	156	1
125	126	1
1	3	1
13	22	1
90	103	1
34	35	1
168	179	1
77	77	3
126	127	1
94	111	1
16	16	2
91	95	1
115	132	1
113	115	2
180	180	2
85	107	1
83	87	1
30	31	1
0	0	3
35	44	2
101	107	1
37	38	1
34	34	1
77	89	1
183	185	1
27	28	1
8	15	1
115	164	1
33	34	2
146	174	1
118	140	1
40	40	1
172	172	2
25	71	1
139	141	2
117	117	1
16	35	1
121	145	2
13	23	1
34	43	1
110	111	1
52	52	1
160	161	1
87	121	1
126	126	2
137	145	1
174	179	1
141	169	2
97	97	2
54	55	1
125	135	1
63	67	1
103	117	1
150	188	1
28	40	1
80	83	1
164	173	1
67	92	1
41	56	1
16	17	3
96	100	1
26	37	1
143	144	2
18	108	1
38	40	1
158	160	1
163	177	1
116	117	3
17	18	1
125	171	1
60	62	1
25	38	1
59	61	1
119	129	1
36	41	2
57	58	1
172	173	2
39	41	1
82	83	1
18	60	1
130	131	1
93	110	1
148	158	1
165	165	3
56	78	1
67	67	1
83	88	1
85	90	1
17	78	1
159	160	1
171	175	1
119	134	1
132	133	1
11	11	2
127	137	1
124	128	1
109	119	1
88	89	1
61	62	1
84	99	1
70	71	1
184	189	1
175	176	1
23	26	1
8	56	1
106	114	1
56	77	1
14	44	1
164	164	1
83	146	1
172	182	1
58	61	1
117	118	1
169	174	1
104	105	1
68	79	1
144	146	1
56	76	1
149	150	1
