59	60	1
40	40	5
98	98	5
108	109	2
109	109	3
10	11	2
131	156	1
40	63	2
170	170	4
121	121	2
90	90	6
45	171	1
139	139	1
57	62	1
87	87	4
154	154	4
19	19	1
85	85	5
56	56	3
163	177	1
142	142	4
62	63	2
88	89	3
81	81	4
141	141	1
137	138	1
156	156	3
73	73	5
35	35	2
132	132	2
117	117	1
89	118	1
153	153	4
112	112	4
71	75	1
36	61	1
137	137	3
78	79	2
88	88	4
82	105	1
116	117	2
96	96	2
104	104	6
18	19	1
110	110	2
178	178	1
64	64	3
8	9	1
143	144	2
94	128	1
148	148	4
36	36	6
177	178	3
13	15	1
37	150	2
150	171	1
82	86	2
51	51	2
131	131	2
159	159	6
179	179	5
113	113	2
2	2	2
25	28	1
71	72	1
38	38	5
41	41	5
123	123	5
124	124	1
68	72	1
10	10	6
37	173	1
153	154	2
39	39	4
38	43	1
137	173	1
79	80	3
165	167	1
169	170	1
12	12	2
42	42	5
75	75	5
162	162	5
12	14	1
138	138	3
135	136	3
150	154	1
125	126	1
94	101	1
133	140	1
82	82	3
76	126	2
43	58	1
130	171	1
126	149	2
100	101	2
118	118	3
157	158	2
130	131	1
174	174	2
157	157	3
67	67	3
52	52	3
23	23	1
150	150	3
14	18	1
131	132	2
76	76	5
8	43	2
78	78	4
122	162	1
101	101	2
60	60	3
3	3	3
145	150	1
37	38	3
14	14	3
87	89	1
45	57	1
114	115	2
137	156	1
160	160	1
152	152	3
102	108	1
153	155	1
145	145	6
94	98	1
65	65	5
161	161	2
133	133	6
140	164	1
103	103	1
171	172	2
26	26	2
136	136	1
22	22	1
149	149	4
41	112	1
127	128	1
55	71	1
164	167	1
74	74	2
62	62	2
89	116	1
144	144	2
111	114	1
9	10	2
68	68	3
172	173	2
155	155	2
54	55	3
15	23	1
132	133	1
3	5	1
6	6	5
1	36	1
44	45	4
106	106	3
43	43	2
14	16	1
149	150	4
76	77	2
142	143	2
52	54	2
118	119	1
56	112	1
111	112	1
11	58	1
130	130	6
106	107	2
66	66	1
79	79	2
61	61	3
173	173	5
151	166	1
95	95	4
168	169	1
155	166	1
81	84	1
9	9	1
29	40	1
84	85	4
175	176	1
171	171	3
105	105	2
78	125	2
28	31	2
59	59	1
54	54	3
83	128	1
82	84	1
108	108	7
53	53	3
88	90	1
43	44	1
74	77	1
57	111	1
123	125	1
5	6	1
161	162	1
51	71	1
41	63	2
119	120	2
146	156	1
139	140	1
126	126	3
77	78	3
175	175	2
27	29	2
55	66	1
126	127	1
166	167	2
135	135	5
167	168	4
27	31	1
163	168	1
111	111	1
121	122	3
31	31	1
2	4	2
57	58	2
124	162	1
163	164	1
118	150	2
76	80	1
166	166	1
52	53	1
153	168	1
120	120	1
25	25	1
176	176	2
34	50	1
90	98	1
7	7	3
32	32	4
67	68	1
41	61	1
122	127	1
134	135	1
109	111	1
86	86	2
73	75	2
140	140	2
50	51	1
43	174	1
93	93	2
42	43	1
19	20	1
131	145	1
162	163	2
169	171	2
7	35	1
34	34	1
141	142	1
112	113	1
55	55	1
116	125	2
55	56	1
113	123	1
163	163	2
62	66	1
39	41	1
53	72	1
127	130	1
64	89	2
158	159	1
115	116	1
169	169	1
32	36	1
94	97	1
27	28	1
147	147	1
90	91	1
140	141	1
15	15	1
133	134	1
99	100	1
27	32	1
3	32	1
24	26	1
23	35	1
163	171	1
146	146	3
75	76	1
164	166	1
134	137	1
39	40	1
107	107	3
135	137	1
38	173	1
115	115	1
123	151	2
28	28	1
145	149	1
14	26	1
71	71	2
65	67	1
2	5	1
92	92	1
7	14	1
28	30	1
7	34	1
136	141	1
122	148	1
2	3	2
145	163	1
143	143	1
70	70	1
49	49	1
120	121	1
144	145	1
70	71	1
171	175	1
136	137	1
24	42	1
177	177	2
17	19	1
93	94	1
122	125	1
119	119	1
1	2	1
32	33	1
90	118	1
13	23	1
96	97	1
127	127	1
25	26	1
77	77	1
27	27	2
70	72	1
116	116	2
139	141	1
42	113	1
102	142	1
13	14	1
72	72	2
150	151	1
15	16	2
16	16	1
63	93	2
105	106	1
99	99	1
30	30	1
133	135	1
40	41	2
38	60	1
145	147	1
17	17	1
150	155	1
72	73	1
21	21	1
158	158	1
5	5	1
63	92	1
8	8	1
