105	105	3
75	75	4
32	32	1
77	77	5
123	123	4
90	90	2
73	73	1
13	14	1
86	86	4
104	105	2
98	98	4
88	89	1
134	134	6
7	7	5
97	97	4
128	129	5
83	83	6
138	140	1
37	37	8
133	133	10
108	108	4
7	10	3
132	132	5
6	7	1
139	139	1
121	122	2
86	108	1
113	113	6
124	124	4
12	12	2
101	102	3
35	35	4
7	13	1
122	122	4
125	126	1
130	130	2
71	126	1
38	38	3
2	3	2
85	86	1
128	139	3
102	102	1
101	101	6
115	115	5
112	112	2
95	96	1
1	1	3
95	117	1
124	125	2
15	15	5
93	93	6
116	116	2
110	110	3
79	79	1
81	84	2
37	38	1
138	138	5
84	84	2
127	127	1
85	85	2
118	118	2
81	85	1
19	19	1
7	8	1
92	92	2
8	8	3
110	112	2
83	85	2
119	121	1
114	114	2
2	2	6
9	9	4
107	107	2
125	125	4
15	16	1
71	71	2
108	109	1
11	12	1
132	133	2
140	140	5
109	111	2
100	100	11
87	87	1
89	89	4
128	128	2
138	139	2
103	103	2
106	108	1
14	14	4
96	97	1
88	88	3
77	78	1
120	121	2
110	116	2
94	133	1
112	114	1
90	115	1
16	17	1
82	82	2
27	28	1
104	107	1
137	137	4
72	72	3
117	117	4
131	131	2
76	77	2
34	35	1
104	104	3
35	36	2
75	76	1
94	137	3
120	120	2
80	86	1
8	9	1
133	135	1
116	123	1
6	6	2
95	95	3
78	83	1
96	96	1
36	36	2
27	27	2
107	109	1
11	11	3
78	86	1
93	94	2
37	95	1
103	104	1
139	140	1
112	113	1
117	123	1
102	103	1
125	127	1
37	116	1
34	34	3
126	127	1
116	117	1
99	99	3
37	124	1
115	116	1
91	93	1
91	91	2
137	138	1
119	120	1
91	92	1
106	107	1
111	111	1
121	121	3
126	126	2
108	118	1
85	113	1
114	115	2
133	134	3
17	18	1
117	119	2
94	94	3
33	33	3
126	128	1
89	90	3
128	130	1
83	118	1
74	74	1
34	36	1
78	78	1
129	130	2
99	124	1
77	81	1
119	119	1
127	133	1
80	80	1
86	87	1
18	18	1
73	74	1
80	81	1
89	91	1
0	0	1
132	134	1
1	13	1
13	13	2
104	106	1
26	26	1
87	88	1
120	122	2
113	118	1
135	136	1
106	106	1
77	114	1
112	116	1
130	131	1
32	33	1
