27	29	3
59	59	1
104	104	2
63	64	2
67	69	1
30	30	2
116	117	4
23	24	1
3	3	1
16	17	2
107	107	2
69	81	2
7	7	2
105	106	3
87	88	2
32	32	3
127	128	2
57	57	3
21	21	1
75	75	3
71	71	4
99	99	3
12	12	3
11	12	2
78	79	3
4	4	1
0	0	2
2	2	2
19	21	1
83	83	3
41	41	3
98	98	4
23	25	2
113	113	2
122	122	4
116	116	2
25	25	4
109	109	3
26	27	1
5	6	2
116	119	1
55	55	4
53	86	2
53	53	5
25	26	3
70	70	7
105	107	1
88	88	1
82	88	2
28	28	3
5	5	3
45	113	2
67	92	1
65	65	2
63	76	1
92	92	4
41	42	1
74	74	2
52	52	1
94	105	1
82	92	2
24	24	1
97	97	2
76	81	1
65	79	1
50	50	4
72	72	2
84	87	1
58	60	1
63	83	1
21	29	1
8	8	4
18	18	2
110	111	2
52	130	1
82	83	2
86	86	3
82	96	1
128	128	4
96	96	1
23	23	1
87	87	2
38	38	3
103	103	3
118	118	5
127	127	1
101	101	4
94	125	1
68	68	2
58	61	1
58	101	1
98	99	2
33	33	3
110	110	3
90	91	2
115	115	4
54	54	1
89	89	1
125	125	4
50	51	1
17	17	5
77	94	2
100	107	1
110	117	1
126	126	3
47	47	4
11	11	4
48	48	3
105	105	1
8	9	1
112	112	1
6	48	3
34	57	1
76	76	5
108	108	6
101	105	3
65	66	2
121	121	2
27	28	2
13	28	1
94	97	1
12	13	1
3	4	2
60	61	2
56	56	1
27	30	1
19	22	1
4	5	2
66	96	1
7	8	1
129	129	4
23	27	1
69	94	2
45	45	1
61	62	2
26	26	1
53	55	1
131	132	1
99	100	2
75	76	1
95	95	4
16	16	1
51	51	5
29	29	2
45	71	1
73	91	1
44	44	2
14	15	2
14	18	1
7	48	1
115	116	1
84	84	2
27	27	2
46	46	1
69	69	4
94	94	2
82	82	2
38	39	1
122	123	1
76	77	1
51	52	1
114	114	2
123	123	1
81	81	3
31	32	2
65	92	1
90	92	1
131	131	2
86	103	1
12	93	1
106	115	2
79	80	3
11	25	2
111	130	1
31	31	1
99	101	2
2	3	1
102	127	1
98	101	1
22	22	1
60	63	1
60	84	1
77	77	1
128	129	2
1	3	1
119	119	3
69	70	1
19	19	1
62	62	3
92	93	1
21	22	1
53	109	1
49	69	2
102	102	1
106	106	1
42	66	2
87	104	1
129	130	1
19	20	1
124	124	2
108	110	1
93	132	1
66	66	2
110	113	2
63	63	2
67	68	1
106	108	1
39	39	1
75	98	1
78	78	1
49	94	1
93	93	1
100	101	1
41	44	1
40	40	1
80	81	1
100	100	1
118	119	1
