118	146	1
79	84	2
105	107	1
106	106	4
5	5	2
123	123	5
142	157	1
134	138	2
29	101	2
88	89	1
24	135	1
96	96	1
82	88	3
25	25	2
37	37	1
101	101	6
11	12	1
47	47	2
105	106	2
110	116	2
32	36	2
133	134	1
137	137	2
139	139	5
120	152	1
132	134	1
95	95	3
4	142	2
150	150	9
132	132	2
64	64	2
114	114	2
96	97	1
101	115	3
77	139	1
82	82	2
104	104	4
108	109	4
27	27	4
62	62	1
118	144	3
9	9	3
26	26	3
142	158	1
24	24	2
119	134	2
108	110	1
108	108	1
67	67	4
84	86	2
93	94	2
131	131	4
116	138	1
116	116	6
87	87	1
19	20	1
48	48	3
134	134	4
115	124	2
70	70	1
99	99	2
81	81	1
117	117	4
122	125	1
107	107	1
104	111	1
102	102	3
75	75	2
153	158	1
131	133	2
68	68	3
2	2	2
115	115	1
143	143	1
79	79	1
119	140	1
73	73	3
158	158	2
152	153	1
80	80	1
14	103	1
78	78	2
19	21	1
156	159	1
15	15	2
22	22	1
31	31	2
138	138	3
73	149	1
126	126	5
158	159	1
141	141	4
21	21	1
149	149	1
91	115	1
132	133	1
7	7	2
112	113	1
42	54	1
140	148	1
129	129	3
125	125	3
91	91	2
127	131	1
93	93	1
135	137	3
3	3	1
1	2	1
32	32	2
96	140	1
119	119	3
105	131	1
20	20	1
8	38	1
127	139	1
127	127	1
36	36	1
152	155	2
95	96	3
6	30	1
105	105	2
136	136	3
148	156	2
103	103	1
24	25	1
84	95	1
91	92	3
145	145	2
114	117	1
86	87	2
4	4	1
89	89	2
142	142	3
148	148	3
152	152	3
81	83	1
114	115	1
117	118	1
155	156	1
50	64	1
17	17	1
44	44	1
109	109	1
50	50	2
78	136	1
26	27	1
93	96	1
18	18	1
79	80	1
118	145	1
110	110	2
112	127	1
80	81	1
123	127	1
87	137	1
18	78	1
38	38	2
102	104	1
113	113	1
150	151	1
85	91	1
43	43	2
24	156	1
130	130	1
92	92	2
121	121	2
134	137	1
136	137	1
93	95	2
71	71	1
102	103	1
122	122	1
101	149	1
144	144	2
39	40	1
46	46	3
131	134	1
125	126	1
120	120	2
119	120	1
155	155	2
68	97	2
87	111	1
133	133	1
65	65	1
86	120	1
157	157	3
100	100	2
119	126	1
106	107	1
86	86	1
80	111	1
153	155	1
140	140	2
75	76	2
77	77	1
51	51	1
94	118	1
97	103	1
69	69	2
144	146	1
27	123	1
10	16	1
157	158	1
147	147	1
55	142	1
121	144	1
111	111	1
128	130	1
50	52	1
118	119	1
33	49	2
140	141	1
1	1	2
66	66	3
159	159	1
61	61	1
78	79	1
7	38	2
123	125	1
2	3	1
131	138	1
6	6	1
115	116	1
138	139	2
103	105	1
85	85	1
73	74	1
151	152	1
53	53	1
156	156	2
104	108	1
85	120	1
146	147	1
39	39	1
87	88	1
121	133	1
77	136	1
77	86	2
42	50	1
45	47	1
57	57	1
18	20	1
128	150	1
30	30	1
14	14	1
45	45	1
35	35	1
22	23	1
1	5	1
80	83	1
102	117	1
66	68	1
135	135	1
38	39	1
33	36	1
