56	56	4
128	128	3
169	169	4
9	33	1
111	118	1
165	166	5
91	93	1
165	165	6
78	78	9
5	5	16
133	133	11
49	49	3
147	147	5
104	104	3
163	163	7
24	24	3
96	96	5
170	171	3
41	115	1
151	151	2
66	80	1
110	110	5
91	92	5
42	42	7
171	171	9
101	101	4
74	96	1
105	105	4
6	6	6
75	75	8
118	118	3
40	40	10
85	85	4
2	2	4
160	161	1
96	131	2
8	9	3
139	139	8
151	154	1
175	176	2
164	164	1
132	132	6
23	27	1
176	176	9
23	25	2
34	34	4
6	17	1
101	106	1
157	158	4
38	38	6
105	107	1
138	139	2
21	21	1
50	84	1
1	37	1
116	116	4
14	14	5
125	154	2
174	174	11
64	64	3
109	109	5
121	122	3
131	131	4
93	96	1
9	9	2
101	102	1
154	156	1
135	135	7
143	143	4
132	176	3
19	22	1
112	112	5
124	124	4
140	140	6
114	114	4
127	127	3
173	173	6
95	95	11
54	149	1
21	27	1
117	117	6
4	6	1
100	126	1
113	113	5
56	58	1
79	79	8
52	52	4
77	77	4
131	149	1
78	139	2
68	68	6
120	120	8
89	98	1
17	29	1
144	145	3
87	118	2
92	93	1
7	10	2
59	62	4
78	173	1
126	127	3
98	120	1
63	63	5
147	153	1
77	79	1
80	80	8
1	2	3
74	106	1
57	57	4
83	84	2
117	118	2
74	74	9
177	177	3
22	22	5
20	20	2
159	160	1
89	102	1
175	175	7
90	90	3
106	127	1
138	138	8
113	114	2
140	152	1
80	175	1
135	136	2
24	27	3
71	71	9
82	98	1
158	158	5
155	155	6
160	160	2
17	38	2
13	20	1
31	31	7
114	142	1
43	44	2
110	111	7
41	42	5
180	180	7
133	135	1
134	134	5
130	145	1
64	80	2
122	134	1
68	79	1
30	30	5
45	45	4
94	94	8
36	36	8
126	126	5
156	157	3
143	168	1
154	154	5
36	37	3
25	28	1
103	104	3
13	19	1
141	141	10
0	0	4
11	14	1
28	28	2
122	124	2
121	124	2
4	57	1
13	13	3
123	123	4
9	10	2
10	33	1
14	25	1
6	31	1
25	25	2
74	126	2
62	62	3
58	105	3
159	159	6
44	46	1
67	67	4
103	103	4
58	91	1
10	12	1
52	112	1
23	34	1
92	92	4
27	27	4
108	125	1
43	43	8
93	115	1
155	157	1
108	175	2
58	60	4
22	27	2
134	137	1
157	157	5
155	156	3
16	16	6
22	31	1
98	101	1
126	136	1
167	167	7
7	19	1
4	4	3
149	153	1
152	152	7
168	168	7
97	98	2
68	72	1
149	150	2
87	88	3
89	89	2
66	83	1
52	88	1
131	132	4
41	41	5
179	179	5
58	59	2
86	93	1
35	35	3
133	134	3
107	110	1
146	146	8
64	74	1
154	155	2
3	35	1
148	148	6
59	59	7
17	17	3
33	33	9
113	147	1
127	128	1
59	92	1
110	149	1
150	151	3
106	106	7
128	151	1
23	24	2
32	62	1
123	124	2
4	9	2
100	101	5
136	136	7
137	137	9
25	27	1
16	32	1
31	33	2
130	131	2
44	44	5
129	129	6
65	66	1
75	176	2
131	133	1
39	39	7
99	99	4
68	114	1
88	88	3
37	38	2
78	118	1
52	60	1
0	34	1
78	79	1
107	107	2
124	125	1
102	102	3
179	180	1
142	142	5
10	173	1
113	125	1
162	167	1
104	105	3
37	37	8
40	43	1
2	4	1
149	149	5
59	61	1
3	4	1
127	130	3
106	107	3
29	29	3
109	152	1
25	46	1
7	7	5
57	58	4
86	103	1
24	25	3
55	55	1
133	169	2
166	166	2
156	158	1
79	80	2
7	8	2
54	54	7
73	73	2
7	29	1
71	78	1
72	73	1
30	149	1
145	146	2
170	170	5
113	128	1
156	156	5
115	115	3
144	146	2
66	66	2
28	29	2
146	147	1
100	110	1
88	89	1
108	108	2
23	23	3
111	111	3
8	21	2
123	127	1
80	82	1
84	84	4
26	26	2
129	130	4
145	153	1
50	51	4
104	106	1
38	39	3
19	27	1
30	41	1
143	144	1
3	3	3
71	72	1
74	75	1
171	172	1
138	140	1
143	166	1
168	170	1
140	143	1
77	137	1
126	145	2
162	162	4
24	31	1
50	50	2
148	162	1
66	110	4
12	12	4
19	19	1
104	108	1
18	18	5
160	163	1
83	136	1
148	157	1
10	11	2
111	113	3
89	96	1
18	31	1
111	116	1
86	98	2
81	81	6
147	157	1
33	44	1
5	6	3
8	8	3
92	111	1
123	125	1
18	19	1
61	65	1
95	114	1
25	29	1
0	1	2
55	56	2
32	32	4
76	179	1
140	179	1
2	3	1
63	66	1
76	77	2
14	15	1
29	31	2
125	125	3
120	148	1
108	148	2
167	168	3
130	133	1
119	119	1
26	27	2
153	153	2
147	154	1
97	97	1
83	129	1
13	14	1
137	139	1
164	166	1
100	100	2
38	40	1
61	90	2
103	108	1
112	126	1
144	144	2
54	135	1
23	29	1
10	14	1
139	173	1
60	90	1
22	24	1
103	105	2
53	53	2
8	27	1
123	140	1
39	40	2
125	126	1
53	59	1
5	8	1
12	33	1
93	93	2
111	112	1
76	76	4
118	141	1
87	108	1
43	79	1
131	175	1
25	26	3
98	100	1
8	30	1
30	31	1
89	100	2
4	43	1
161	161	2
60	60	5
58	58	1
13	16	1
108	131	1
4	5	2
51	51	2
64	97	1
142	145	3
98	129	1
32	33	1
138	145	2
109	110	1
40	41	1
1	14	1
173	174	1
71	81	1
168	171	1
52	76	3
72	72	2
52	150	1
52	53	1
120	158	1
62	63	1
134	135	1
127	129	1
175	177	1
73	76	1
85	161	1
160	168	1
79	139	1
139	140	1
150	150	4
19	20	1
87	90	1
124	151	1
67	135	1
96	111	1
88	106	1
3	170	2
89	90	1
53	54	1
10	10	2
115	118	1
38	170	1
153	167	1
65	65	1
64	65	1
164	165	1
88	109	1
121	123	1
174	175	2
152	154	1
90	95	2
138	149	1
176	177	1
54	63	1
173	175	1
9	13	1
6	24	1
80	91	1
7	18	1
113	115	1
0	105	1
154	171	1
125	129	1
97	101	1
118	153	1
61	62	2
132	133	1
37	75	2
24	28	2
130	130	1
156	179	1
91	91	3
30	33	1
51	98	1
11	12	1
74	76	1
77	78	2
1	1	2
83	103	1
50	89	1
31	32	1
57	108	1
34	37	1
116	118	1
144	167	1
91	125	1
109	111	1
26	30	1
98	99	1
136	137	1
60	82	1
163	167	1
121	121	1
105	106	1
108	112	1
172	172	3
35	36	2
6	39	1
149	172	1
27	45	1
9	144	1
161	163	1
119	120	3
158	159	1
86	87	1
114	115	2
122	122	1
63	64	1
43	52	1
90	91	1
26	28	1
161	162	1
145	163	1
83	85	1
90	92	2
110	115	1
178	178	2
31	72	1
86	86	1
127	151	1
96	97	1
94	130	1
142	144	1
112	171	1
72	134	1
16	23	1
145	145	2
83	86	1
59	60	1
14	35	1
167	170	1
15	15	1
95	96	1
146	155	1
14	18	1
22	32	1
151	153	1
23	26	1
82	82	1
101	103	1
86	117	1
42	108	1
28	44	1
108	110	1
58	93	1
117	125	1
104	112	1
61	61	1
120	128	1
52	56	1
55	57	1
83	88	1
44	45	1
68	90	1
56	64	1
145	158	1
171	174	1
10	167	1
120	122	1
71	73	1
46	61	1
61	64	1
178	179	1
152	153	1
