57	57	4
129	129	2
62	63	2
8	8	6
159	159	4
99	99	2
83	83	1
91	91	6
68	68	1
167	167	2
44	44	5
38	55	1
10	11	2
138	139	1
12	24	1
131	131	4
24	24	4
116	116	3
67	67	2
22	22	3
147	147	3
115	153	1
94	94	3
148	148	3
97	98	4
155	156	2
86	87	1
120	142	1
135	136	1
4	4	2
45	70	1
82	82	4
13	84	1
123	123	4
42	42	6
148	170	1
116	123	1
157	157	4
52	52	2
81	81	2
74	74	1
149	158	1
65	67	1
132	132	6
167	169	1
40	40	1
49	49	4
66	66	1
20	20	1
126	126	2
85	85	3
15	154	1
35	35	5
9	9	3
20	84	1
125	160	1
55	55	3
23	76	2
65	80	1
115	115	2
130	130	5
153	153	1
57	66	1
1	105	1
132	153	1
124	124	5
137	148	1
103	103	2
0	2	1
117	117	2
11	51	1
78	79	3
36	36	3
149	149	4
153	154	2
49	62	1
168	168	2
149	157	2
127	156	1
73	74	1
11	12	1
98	98	1
162	165	1
92	95	1
81	82	1
16	82	1
41	41	5
78	96	1
6	7	2
166	167	2
38	38	4
105	106	2
122	122	2
88	158	1
70	70	3
169	170	3
154	156	1
170	170	3
45	45	4
155	155	4
112	113	1
108	136	1
18	18	3
54	58	1
47	48	3
78	78	3
113	114	1
71	73	1
37	37	3
50	50	1
158	158	4
150	151	2
80	95	1
134	134	2
91	117	1
13	18	1
150	150	6
51	56	1
43	43	5
69	69	2
116	125	1
39	52	1
93	96	1
47	47	1
107	107	1
136	137	1
156	156	3
144	147	1
21	22	1
76	77	1
162	169	1
164	164	5
108	108	2
71	71	3
120	120	2
20	21	1
169	169	2
110	110	2
39	45	1
142	144	1
154	154	1
3	3	4
120	122	1
21	21	1
69	71	1
152	156	1
7	7	3
34	34	2
38	39	1
121	121	2
39	39	3
13	13	3
100	100	1
10	137	1
140	141	1
93	93	1
134	150	1
54	54	2
145	145	1
106	147	1
116	130	1
7	10	1
109	109	1
25	25	2
14	14	2
18	19	1
133	134	1
164	165	1
11	11	2
121	124	2
46	72	1
85	86	1
91	92	1
162	162	3
88	88	1
94	96	1
119	135	1
0	1	1
56	56	1
5	5	4
102	102	1
65	68	1
51	51	3
119	119	2
97	121	2
152	153	2
144	157	1
142	143	1
2	2	1
17	18	1
8	9	2
119	152	2
121	123	1
138	166	1
158	159	1
23	23	2
12	163	1
46	46	1
114	114	2
38	51	1
56	154	1
123	125	1
20	41	1
65	65	5
138	138	2
53	54	1
85	98	1
53	55	1
36	37	1
26	26	2
118	119	1
89	89	1
97	99	1
166	166	3
48	49	1
112	112	1
111	111	2
95	95	1
41	137	2
144	144	3
136	136	2
26	27	2
90	90	2
37	41	1
134	142	1
105	105	3
101	102	1
75	75	1
139	140	1
105	113	1
58	62	2
47	49	1
111	128	1
17	20	1
11	165	1
15	44	1
128	133	1
27	27	3
73	73	2
15	15	2
161	161	1
8	10	1
86	126	1
51	52	1
135	135	2
50	117	2
57	64	1
56	152	1
104	104	1
137	143	1
48	48	2
168	169	1
77	79	1
111	127	1
18	20	1
165	165	2
16	16	2
52	151	1
113	113	3
3	13	1
57	69	1
62	83	1
49	50	1
147	164	1
95	96	1
142	142	1
130	132	1
85	100	1
109	110	1
87	87	1
84	84	1
147	167	1
98	99	1
80	84	1
92	110	1
57	63	1
76	76	1
43	44	1
96	98	1
74	75	1
108	111	2
119	120	1
12	12	3
26	123	1
64	84	1
72	73	1
2	3	2
44	45	1
106	106	2
9	49	1
160	160	3
139	139	1
22	56	1
102	103	1
104	106	1
57	70	1
92	94	1
0	56	1
28	28	1
117	118	1
123	124	1
68	116	1
3	25	1
128	128	1
109	125	1
19	19	1
129	131	1
123	128	1
8	46	1
139	141	1
141	141	1
34	35	1
145	165	1
141	142	1
152	152	1
161	162	1
33	33	1
131	132	1
