65	65	3
25	27	3
30	55	2
137	137	4
34	36	1
68	99	1
104	109	1
96	101	1
25	25	3
19	19	5
20	20	6
89	90	1
119	122	1
111	112	1
139	139	3
97	97	3
91	116	1
23	24	2
42	42	4
83	111	1
54	54	5
127	127	3
77	77	1
115	115	3
72	72	5
30	30	3
22	22	5
78	78	3
60	61	1
105	105	2
13	13	5
29	29	2
125	126	2
37	37	4
142	142	9
51	51	2
62	63	2
91	91	1
77	118	1
75	75	3
52	52	3
101	102	2
8	8	4
26	26	3
121	121	4
89	89	3
101	144	1
60	60	1
16	17	1
1	1	4
43	43	1
21	21	2
140	140	6
64	68	3
66	66	5
111	111	2
70	70	4
34	34	6
85	85	2
81	81	3
137	139	2
4	5	2
5	14	2
55	55	3
58	59	2
126	126	2
129	131	2
79	79	1
17	38	1
86	86	2
56	69	2
127	129	2
107	111	1
66	69	3
35	47	2
50	62	1
11	11	4
24	56	1
90	121	1
71	71	5
23	23	3
17	30	2
133	134	2
34	35	2
54	59	1
103	141	1
100	100	2
109	109	1
104	120	1
2	2	1
94	94	3
103	142	1
94	121	1
6	6	1
30	53	1
13	15	2
58	58	3
39	39	4
15	17	3
120	120	4
84	84	4
18	18	7
83	83	1
10	10	3
6	8	2
64	64	2
63	63	2
101	125	1
22	41	2
98	100	1
107	108	1
81	132	1
134	134	7
85	91	1
91	92	1
40	41	1
87	88	1
132	132	2
123	123	3
113	113	3
31	31	1
92	92	2
23	102	2
70	121	1
14	14	6
124	142	1
25	26	1
81	118	1
106	106	2
137	138	2
41	127	1
34	43	1
67	67	5
73	73	3
3	4	1
92	97	1
130	130	4
88	88	2
71	72	1
32	32	2
101	101	1
48	49	1
87	90	1
5	42	1
13	32	2
78	112	1
107	107	2
31	32	2
74	74	2
124	124	2
87	87	1
15	15	1
1	8	1
12	13	1
41	42	1
12	37	1
78	84	1
66	121	1
59	59	3
3	3	3
109	116	1
112	114	1
56	56	3
134	139	1
131	132	2
14	16	1
95	95	5
9	9	3
1	13	1
109	110	1
91	114	1
98	98	2
72	73	1
104	104	4
5	5	3
24	24	2
81	133	2
118	118	2
139	140	2
135	135	2
119	119	3
8	9	1
13	63	2
144	144	5
58	66	1
77	104	1
48	48	2
123	124	1
16	32	1
122	122	1
91	93	2
67	68	1
30	32	1
93	93	3
90	114	1
38	38	2
99	101	1
27	42	1
110	110	1
57	57	1
61	61	2
143	143	1
88	89	2
41	41	1
105	107	1
131	141	1
47	56	1
122	123	1
102	103	2
79	84	1
10	11	2
92	93	1
128	128	2
33	33	1
4	4	1
106	107	1
16	16	3
35	36	1
47	47	1
82	104	1
116	116	1
64	65	1
30	39	1
125	125	1
96	97	1
17	66	1
33	34	2
116	117	1
3	43	1
55	62	1
51	83	1
16	36	1
49	49	1
136	136	2
13	14	1
65	70	1
110	116	1
88	90	1
53	53	1
131	133	1
62	62	1
117	117	2
66	67	1
28	28	1
50	50	1
114	134	1
81	82	1
112	112	1
78	79	2
129	140	1
144	145	1
116	118	1
82	115	1
90	113	1
114	115	1
115	116	1
64	66	1
124	126	1
143	144	1
138	138	1
114	116	2
114	114	1
135	141	1
145	145	1
104	115	1
19	20	1
