87	87	3
103	104	3
23	117	2
14	15	1
188	189	2
80	80	2
53	53	4
57	57	4
130	138	1
17	22	1
54	55	1
53	55	1
153	153	4
77	99	1
104	104	3
7	7	6
110	110	3
175	175	3
108	122	1
27	98	1
125	126	1
65	65	4
44	45	5
172	172	3
22	22	2
161	161	1
86	86	1
18	18	2
149	149	3
152	152	2
89	89	2
37	38	2
160	160	1
45	45	4
69	71	1
109	110	2
112	121	2
37	74	1
136	136	2
119	148	2
10	25	1
170	186	1
114	114	2
138	139	1
101	101	3
78	78	5
0	0	2
14	16	1
60	61	1
127	173	1
106	138	1
186	186	3
24	24	3
27	56	1
59	59	2
179	180	2
96	110	2
118	167	2
147	147	4
26	77	1
85	85	3
58	58	4
119	119	4
74	75	1
129	129	2
3	3	8
145	183	3
96	108	2
146	146	4
136	137	2
146	183	1
130	130	7
38	39	1
155	159	1
28	29	1
126	126	2
90	90	4
151	151	2
114	116	2
117	117	3
61	61	2
79	185	1
166	182	2
48	48	5
27	27	3
108	108	4
150	167	1
63	64	1
109	172	1
122	166	1
127	127	2
79	79	3
12	152	1
28	28	1
186	187	1
173	173	3
117	167	2
168	168	1
88	88	3
154	154	4
121	121	3
91	91	1
127	130	2
55	55	3
187	187	1
21	21	2
123	153	2
83	85	1
120	166	1
95	110	1
114	161	1
5	5	3
54	54	4
165	166	2
47	48	1
139	139	4
39	39	2
73	73	4
80	81	1
130	141	1
183	184	1
112	112	2
6	7	1
156	157	1
18	150	1
83	83	2
33	37	1
44	58	1
117	118	1
44	47	2
80	117	1
57	81	1
70	105	1
99	99	1
116	117	2
26	26	3
96	97	1
53	56	1
36	36	3
4	4	3
32	32	1
16	17	3
11	11	2
131	131	1
142	175	1
133	133	1
23	23	3
185	185	5
95	96	1
174	175	1
71	71	1
141	141	6
120	121	2
26	42	2
30	30	1
106	106	2
46	46	1
184	184	1
116	118	1
97	98	1
138	138	4
141	151	1
107	108	1
68	68	4
25	25	1
188	188	2
64	65	1
87	95	2
81	84	1
137	176	1
169	169	1
21	22	2
76	76	1
27	28	2
47	47	3
98	99	2
82	83	1
132	148	2
171	172	1
142	142	3
147	187	1
155	155	4
98	98	3
167	167	1
44	44	1
8	71	1
17	17	1
135	137	1
77	78	1
176	176	2
120	150	1
16	24	1
178	179	4
151	153	1
118	118	1
158	158	1
21	66	1
12	12	2
20	20	1
122	122	3
110	120	1
52	53	1
56	56	3
28	30	2
16	21	2
78	85	1
170	170	3
111	111	4
42	49	1
147	182	2
95	95	1
120	120	1
166	166	2
123	183	2
38	82	1
146	180	1
23	122	1
46	67	1
128	128	1
32	35	2
36	37	2
94	94	2
105	105	2
157	157	2
164	164	1
140	141	1
32	43	2
47	83	1
123	125	1
13	13	1
31	32	1
77	77	4
66	66	1
6	6	1
2	2	2
55	82	1
37	37	3
32	33	2
86	113	2
31	33	1
122	124	1
66	67	1
118	178	1
8	8	10
149	150	2
73	74	1
114	115	1
70	70	1
27	29	1
76	89	2
107	107	1
190	190	2
67	67	4
42	42	3
84	84	1
172	173	2
92	94	1
31	36	2
90	91	1
36	38	1
148	180	1
96	98	1
16	16	2
52	57	1
124	127	1
129	182	1
124	163	1
10	10	1
110	184	1
114	125	1
85	135	1
15	16	3
1	1	1
59	61	1
5	38	1
40	57	1
19	19	2
150	151	1
175	179	1
116	130	1
165	165	1
96	117	1
59	95	1
131	133	1
29	29	1
159	159	1
104	135	1
42	101	1
65	90	1
110	112	1
78	86	1
118	127	1
97	100	1
134	134	1
81	86	1
112	113	1
17	85	1
160	163	1
43	44	1
102	102	1
91	92	1
75	85	1
41	41	1
38	38	1
135	135	1
4	5	1
93	93	1
146	147	1
149	163	1
92	92	2
109	109	1
121	122	1
109	164	1
31	31	1
39	74	1
9	10	1
136	172	1
159	160	1
60	62	1
119	120	1
26	111	1
115	149	1
124	128	1
177	178	2
152	153	1
41	141	1
181	181	1
183	183	1
24	37	1
81	81	1
21	33	1
