193	193	1
167	170	1
13	14	1
21	55	1
153	157	1
5	18	1
122	127	2
171	190	1
190	190	1
59	60	2
27	27	8
219	219	2
49	49	3
152	153	1
2	2	1
84	98	2
19	19	2
227	228	1
31	31	1
184	185	2
179	180	2
14	34	1
219	221	2
168	168	2
6	6	2
74	100	1
85	85	1
115	118	2
219	242	1
28	28	2
223	223	1
33	38	1
73	74	1
224	233	1
31	32	3
67	67	3
157	157	4
182	183	2
176	177	1
194	201	1
187	187	2
71	72	2
154	159	1
158	159	1
167	167	6
181	181	1
202	202	5
236	236	2
170	170	6
153	153	1
77	77	4
180	181	2
25	28	2
217	218	1
111	183	1
16	59	1
177	177	2
137	138	1
184	211	1
53	53	1
16	16	3
78	79	1
224	224	1
128	128	2
172	172	1
130	131	2
22	23	4
80	80	2
188	205	1
74	74	1
162	182	2
160	160	2
99	100	1
137	143	1
120	120	3
200	200	4
235	236	1
121	121	4
5	5	1
46	47	2
73	113	1
42	43	1
174	174	6
13	13	1
62	64	1
220	220	1
145	148	1
169	169	4
60	63	1
95	236	1
33	33	1
196	205	1
17	22	1
32	71	1
39	62	1
11	12	1
62	62	2
192	192	1
188	215	1
126	127	1
198	208	1
221	222	2
118	204	1
142	142	2
63	131	1
101	101	1
17	17	4
105	105	2
44	71	1
119	198	1
13	137	1
129	129	2
18	52	3
225	225	2
211	211	2
76	76	1
145	145	1
21	40	1
21	21	1
95	95	1
19	210	1
156	156	1
171	172	1
12	12	3
14	14	5
70	86	1
229	229	1
146	147	1
10	10	2
26	27	1
144	152	2
16	60	1
48	199	1
203	203	2
86	86	1
194	196	1
62	102	1
149	149	4
123	154	1
17	49	1
235	235	1
223	224	1
209	209	1
152	152	3
60	60	1
151	151	2
217	232	1
13	16	1
238	238	2
4	4	2
47	54	1
111	111	2
136	139	1
103	131	1
138	143	1
78	78	1
114	122	1
137	139	2
195	196	1
132	132	1
66	66	2
47	48	1
100	101	1
26	26	4
186	186	3
136	136	2
162	162	1
207	210	1
83	83	1
161	163	1
16	40	2
3	3	1
228	228	1
66	103	2
109	109	1
18	19	1
216	216	1
157	162	1
208	208	2
152	167	1
24	37	1
30	33	1
75	78	1
238	239	1
48	48	2
70	70	1
2	7	2
126	126	1
25	25	2
75	75	2
115	115	2
11	11	3
143	170	1
197	197	3
138	138	1
42	192	1
156	166	1
160	217	1
6	7	1
240	240	2
121	145	1
169	176	1
3	5	1
100	100	1
117	118	1
204	205	1
232	232	4
52	53	1
131	132	1
23	23	2
123	123	1
64	71	1
114	208	1
177	179	1
1	1	1
194	194	2
80	81	1
139	139	1
175	175	2
141	142	1
55	55	3
180	183	2
239	240	1
185	186	1
81	81	3
165	165	1
20	20	3
182	184	1
207	207	1
102	105	1
217	217	2
233	234	1
141	141	1
164	165	1
54	150	1
42	42	2
69	173	1
108	178	1
82	82	3
152	185	1
28	97	3
166	168	1
106	107	1
9	10	1
38	38	1
103	105	1
135	136	3
177	178	1
84	84	1
58	58	1
176	176	3
117	117	2
114	114	1
180	180	2
150	151	3
114	115	1
32	32	1
170	171	1
12	104	1
69	69	1
169	170	1
224	232	1
191	191	1
122	124	1
114	116	1
125	125	1
234	239	1
156	212	1
9	9	4
173	175	1
18	40	1
181	210	1
225	227	1
6	9	1
104	105	1
68	68	1
197	234	1
119	119	1
152	161	1
220	225	1
64	65	1
207	208	1
150	150	2
173	178	1
157	159	1
144	144	1
179	179	1
113	127	1
14	27	1
47	51	1
198	209	1
8	13	1
71	174	1
201	201	1
177	193	1
139	141	1
230	230	2
110	110	1
78	99	1
46	46	2
241	241	2
36	37	1
9	11	2
146	146	1
158	158	1
220	222	1
131	131	1
147	147	2
122	123	1
124	124	1
108	108	1
233	239	1
22	22	1
137	137	1
58	61	1
64	68	1
172	175	1
114	144	1
21	42	2
163	178	1
158	203	1
86	101	1
61	61	1
50	50	1
7	7	1
15	31	1
159	159	1
205	209	1
54	55	1
183	186	1
205	205	1
51	51	2
220	221	1
118	118	1
158	181	1
185	185	1
148	148	1
122	122	1
170	172	1
31	35	1
0	0	2
66	68	1
242	242	1
73	73	2
98	98	1
220	236	1
239	239	1
44	70	1
201	220	1
128	172	1
47	47	1
211	214	1
73	85	1
49	55	1
68	169	1
119	120	1
96	96	1
25	26	1
3	23	1
85	86	1
159	174	1
36	36	1
64	64	1
47	62	1
54	54	1
88	103	1
103	103	1
173	173	1
0	20	1
143	143	1
15	37	1
149	158	1
204	206	1
164	167	1
10	11	1
67	68	2
113	136	1
171	171	1
5	6	1
28	223	1
119	121	1
56	56	1
32	33	1
1	212	1
155	156	1
213	213	1
113	113	1
111	112	1
124	154	1
218	233	1
17	205	1
51	80	1
64	128	1
161	161	1
101	159	1
40	41	1
165	167	1
112	112	1
202	240	1
136	137	1
72	72	1
8	15	1
209	210	1
147	155	1
122	129	1
57	57	1
108	109	1
80	82	1
14	17	1
