106	106	1
48	48	6
152	152	4
9	9	2
85	85	4
11	11	8
33	33	6
213	213	5
202	202	6
46	46	6
12	12	8
211	211	5
119	119	4
106	107	1
38	40	2
19	19	3
238	238	3
180	180	9
236	236	4
233	233	8
161	161	5
184	184	2
227	227	7
225	226	3
82	82	4
86	101	2
194	195	1
91	92	2
243	243	5
185	192	4
247	247	6
66	66	5
248	249	1
89	89	2
49	221	1
56	64	2
46	47	3
223	223	3
165	165	7
78	119	2
197	211	1
205	205	7
220	220	4
176	177	4
162	162	10
65	65	4
203	204	3
47	47	5
170	170	10
162	163	1
157	157	10
31	36	2
214	214	3
199	199	3
26	26	8
198	198	5
83	83	3
48	49	1
22	22	6
71	72	2
167	183	1
160	167	1
30	31	3
114	114	6
8	20	1
190	191	3
162	165	1
44	44	15
36	36	6
150	167	1
30	30	6
57	57	1
181	181	9
156	156	10
21	21	3
168	247	1
240	240	6
111	111	3
177	177	3
93	93	1
68	78	1
185	185	5
51	117	1
188	189	1
183	183	8
38	38	4
49	49	7
76	78	1
200	201	2
186	187	1
25	26	2
113	113	8
190	190	2
25	25	6
74	74	3
231	231	4
164	164	6
90	95	1
218	218	2
180	184	2
87	101	1
235	237	1
167	173	1
169	169	2
69	69	7
5	5	4
98	98	1
7	7	7
117	117	7
210	210	3
115	116	2
195	196	3
40	40	9
159	159	5
86	86	5
226	226	5
20	21	2
195	197	1
212	212	4
64	64	6
4	4	5
72	73	3
166	166	10
44	45	2
29	90	1
85	87	1
246	246	2
6	6	5
110	110	6
165	184	1
37	37	11
23	24	2
177	215	1
118	118	5
94	94	8
182	198	1
92	101	2
101	101	5
7	46	1
154	154	5
34	34	6
239	240	4
84	90	1
242	242	1
167	168	1
10	10	10
89	95	1
222	241	1
230	230	5
71	95	1
235	235	4
209	237	3
57	58	1
8	8	5
179	180	1
207	207	7
216	216	3
202	246	1
23	70	1
224	224	3
201	201	2
197	197	4
96	97	1
14	15	2
38	161	1
35	35	3
208	208	5
115	115	1
161	167	2
55	55	4
229	229	2
95	98	2
94	154	2
16	181	1
3	3	5
100	100	5
167	200	2
105	105	3
79	79	4
31	31	12
182	204	1
175	176	2
109	109	2
155	155	5
165	180	1
34	35	2
40	41	2
218	219	2
39	39	2
54	54	4
196	196	1
160	160	3
76	77	1
65	67	1
167	244	1
62	63	2
67	67	5
191	209	1
62	112	2
203	203	2
78	220	1
167	167	7
219	219	6
42	42	3
23	23	5
164	192	1
58	60	2
61	62	2
55	66	2
218	237	2
103	103	1
43	43	5
215	215	5
207	208	1
49	50	2
217	218	5
29	29	6
239	239	4
178	178	3
182	182	4
186	186	3
97	97	3
20	20	8
24	24	5
68	68	7
200	200	1
208	209	2
198	199	1
53	54	1
72	72	3
21	22	2
52	53	1
84	202	2
195	195	3
69	83	1
210	238	1
182	183	1
28	28	8
173	173	3
144	145	2
221	221	3
56	65	2
189	233	1
41	41	3
166	181	1
204	205	1
244	245	2
72	99	1
62	62	2
163	164	1
1	145	1
71	75	2
84	85	1
90	111	1
225	225	6
90	119	1
186	209	2
166	190	3
30	80	1
18	18	3
194	194	2
8	180	1
58	58	3
236	241	2
32	32	9
150	151	2
161	162	2
80	105	1
237	237	2
147	147	1
187	188	2
205	206	1
175	178	1
152	157	1
60	60	2
78	222	1
150	154	1
171	172	3
116	116	2
231	234	1
109	113	1
219	236	1
166	167	2
61	61	5
151	151	1
35	52	1
165	169	1
206	206	2
212	213	1
230	231	2
162	189	1
41	43	1
91	91	1
203	206	2
146	146	1
200	212	2
163	163	4
22	23	1
4	5	2
49	240	1
93	95	1
75	75	5
154	155	1
237	240	2
59	59	5
159	194	1
55	67	1
108	108	2
214	231	1
75	76	2
82	86	2
61	207	1
36	156	1
107	107	5
39	154	1
34	154	1
27	27	3
169	173	2
185	186	1
204	204	3
51	53	1
168	214	1
16	21	1
51	54	1
17	207	1
241	242	3
174	180	1
45	45	5
70	71	1
185	191	1
190	192	1
77	77	3
72	81	2
16	16	3
17	17	3
178	179	1
95	117	1
168	172	1
249	249	2
153	153	3
0	1	1
109	111	1
232	232	8
217	217	1
174	176	2
84	84	4
180	212	1
168	169	1
228	229	1
59	60	1
119	230	1
7	8	1
180	181	2
188	199	1
9	204	1
202	203	1
66	69	1
6	7	2
168	168	4
73	73	3
70	70	1
243	244	1
1	1	6
209	209	2
183	208	1
193	193	4
219	232	2
42	43	1
10	25	1
58	66	1
150	150	5
234	235	5
4	234	1
81	81	2
47	184	3
241	241	3
43	44	3
53	55	1
157	177	2
219	224	1
1	2	1
64	65	1
26	27	1
226	230	1
175	175	4
210	211	1
28	29	1
111	112	3
0	3	1
29	30	2
211	212	2
45	46	1
184	185	1
77	99	2
38	47	1
15	18	1
234	234	3
95	95	3
42	59	1
235	236	2
192	193	1
168	173	1
153	154	2
216	221	2
10	24	1
214	223	1
38	39	1
189	192	1
24	183	2
105	106	1
11	38	1
35	47	1
102	105	1
114	115	1
232	233	1
69	71	1
156	161	1
11	59	1
205	211	1
229	230	1
107	108	3
177	179	1
196	220	1
99	99	1
74	75	2
187	187	6
110	113	1
237	239	1
196	197	1
159	160	2
172	172	2
245	245	1
2	3	1
66	77	1
58	62	1
53	53	7
108	110	1
172	173	1
189	190	2
242	244	1
238	241	1
239	242	1
51	159	1
112	112	1
244	244	1
181	205	2
50	50	2
176	176	2
15	16	3
80	88	1
72	74	1
174	174	1
160	234	1
54	55	1
171	171	1
52	52	3
208	214	1
30	37	1
80	83	2
87	95	1
192	192	1
23	25	1
238	248	1
63	63	1
51	51	1
51	52	1
202	224	1
223	236	1
144	144	1
25	54	1
160	169	1
188	188	1
178	181	1
194	215	1
168	193	1
29	46	2
91	108	1
167	224	1
15	15	2
113	114	1
197	198	1
23	36	1
19	45	1
221	225	1
78	89	1
48	114	1
35	36	1
29	204	1
162	185	1
95	96	2
80	81	1
222	222	2
201	204	1
105	107	1
165	191	1
78	78	1
220	221	1
185	223	1
206	234	1
215	216	1
193	194	1
36	45	1
37	38	1
27	158	1
228	231	1
96	96	1
71	71	2
166	186	1
220	223	2
10	12	1
174	247	1
87	102	1
88	104	1
113	151	1
11	111	1
177	190	1
29	237	1
225	229	1
76	76	2
220	224	1
26	33	1
119	120	1
120	120	1
56	56	2
85	86	1
52	110	1
182	184	1
87	90	1
213	214	3
104	107	1
179	234	1
102	104	1
33	35	1
17	18	2
55	85	1
180	190	1
73	74	1
121	121	1
75	216	1
181	182	2
90	90	3
204	224	1
33	109	1
198	210	2
176	236	1
10	20	1
65	207	1
228	228	1
9	10	1
152	153	1
171	183	1
60	66	1
98	100	1
217	233	1
39	40	1
53	66	1
92	92	2
179	211	1
194	197	1
47	50	1
202	205	1
221	223	2
56	66	1
170	171	1
181	183	1
189	189	1
200	247	1
225	236	1
10	11	1
93	121	1
92	95	1
193	195	1
49	84	1
51	160	1
80	82	1
197	212	1
199	232	1
56	88	1
219	220	1
34	195	1
53	196	1
174	175	1
88	88	1
37	153	1
20	47	1
205	213	1
92	93	1
49	75	1
186	188	1
224	225	1
157	168	1
169	170	1
14	14	1
120	180	1
