37	37	1
50	58	1
81	82	2
46	67	1
104	105	3
19	19	7
98	99	3
107	132	2
40	40	1
123	123	1
38	40	2
67	110	2
107	108	2
108	108	1
78	79	1
99	99	3
83	106	1
48	48	1
89	89	4
59	62	1
129	129	1
49	49	1
54	54	5
65	66	3
40	42	1
33	33	6
87	87	3
61	62	3
133	133	4
76	77	3
63	63	2
104	104	3
104	123	1
127	127	8
55	55	2
105	107	1
105	106	3
98	98	3
26	26	3
38	38	2
27	27	1
76	76	3
30	40	1
34	34	1
116	117	5
45	45	1
38	39	2
44	44	4
41	41	1
65	65	3
67	67	4
20	21	1
59	59	4
73	75	1
114	114	5
123	132	1
130	130	3
67	68	2
76	111	2
53	108	1
87	103	1
42	42	3
112	113	1
99	100	1
72	72	3
86	97	2
108	109	1
84	102	1
74	74	2
23	29	1
2	2	2
111	111	1
112	112	5
23	24	1
132	132	1
128	128	4
47	47	3
11	11	1
105	105	5
17	20	1
103	103	2
97	98	1
66	66	6
52	52	2
86	86	1
83	92	1
13	15	2
84	84	3
120	120	1
124	124	2
81	81	3
82	82	3
41	46	1
85	85	1
58	58	3
60	61	2
4	4	1
15	15	2
82	91	1
16	16	2
13	13	3
2	3	1
41	62	1
41	42	1
72	73	1
22	22	2
60	60	1
86	88	1
70	70	3
51	132	1
55	56	2
48	112	1
64	64	2
109	109	3
7	49	1
6	6	1
33	76	1
113	114	1
62	63	1
125	125	3
69	69	1
118	120	1
53	53	2
80	82	2
106	106	1
39	39	3
32	32	2
12	30	1
117	117	3
94	94	3
18	18	2
96	96	2
26	42	1
30	48	2
106	118	1
60	62	2
92	94	1
50	50	1
119	120	4
80	80	1
66	67	3
2	5	1
18	20	1
102	102	1
95	133	1
95	101	1
23	23	2
43	43	1
46	46	1
117	122	1
119	119	1
51	51	1
106	107	1
53	54	1
68	68	2
91	91	3
96	97	1
7	7	3
115	118	2
61	61	2
31	32	1
120	121	2
93	128	1
49	56	2
43	62	1
68	107	1
113	113	2
107	107	2
100	101	1
73	77	1
125	127	1
73	73	2
71	71	1
25	27	1
10	10	1
104	106	1
45	46	1
74	75	1
39	69	1
24	24	1
70	76	1
49	68	1
131	131	2
63	64	1
101	101	1
44	60	1
91	92	1
80	81	1
1	1	1
57	57	1
54	55	1
83	84	1
16	42	2
95	95	1
122	122	1
87	88	1
79	80	1
83	83	1
77	77	1
101	105	1
0	0	1
25	25	1
116	116	1
97	101	1
