25	25	11
27	28	4
26	26	10
142	142	7
16	16	5
146	146	3
174	174	2
49	49	4
97	98	2
179	195	1
57	138	1
170	188	1
49	50	2
1	1	6
170	184	1
162	162	5
113	143	1
166	166	5
128	128	3
168	168	8
143	143	8
138	150	1
56	99	1
113	113	5
6	6	5
112	112	5
163	166	1
0	8	3
161	166	2
194	194	6
14	14	11
160	160	6
19	75	1
7	7	9
135	148	2
133	134	3
161	191	1
63	63	2
171	181	1
56	57	2
38	40	1
4	4	12
182	182	4
43	54	1
55	55	7
188	190	1
121	121	5
87	88	1
192	192	7
171	171	2
123	133	1
78	79	2
135	135	5
152	194	1
108	110	1
122	122	7
106	106	3
110	138	1
30	30	10
147	147	5
181	183	1
46	46	5
93	93	4
143	144	2
103	107	1
40	40	3
164	169	2
160	193	1
10	10	9
37	41	1
10	11	2
34	36	3
5	5	14
189	192	1
139	150	1
31	68	1
13	13	13
32	66	1
171	194	1
19	19	9
9	9	8
99	99	4
28	30	3
12	14	1
149	175	1
177	177	4
159	190	1
139	139	10
107	129	1
6	8	1
51	51	4
17	17	5
52	52	5
53	54	3
161	179	1
125	127	1
85	86	3
30	31	4
140	140	9
177	186	2
46	47	4
150	150	7
165	166	5
117	118	2
87	87	3
3	3	9
187	187	4
41	44	2
151	151	7
179	179	6
100	101	2
28	28	6
26	27	4
38	39	1
101	101	5
18	19	2
105	150	1
45	45	9
90	117	2
47	48	3
135	136	1
190	190	6
172	172	5
97	97	3
7	8	5
180	181	4
185	186	4
32	32	4
185	185	11
180	180	6
86	115	1
107	111	1
1	15	1
88	88	3
36	36	6
100	100	6
2	3	3
168	188	1
33	33	9
65	65	5
63	67	1
184	184	5
156	156	3
77	77	4
115	115	2
94	94	3
181	181	7
138	138	5
38	38	10
20	20	6
141	141	5
21	21	8
35	35	8
0	0	8
12	29	1
39	44	1
84	84	1
112	152	1
186	186	6
157	178	1
56	62	2
164	165	1
43	56	1
11	15	2
149	149	7
152	152	5
160	167	1
136	138	1
152	153	3
24	24	5
64	64	4
169	169	7
3	4	3
54	147	2
104	104	3
113	114	1
73	73	5
157	158	5
112	119	1
148	148	4
170	170	6
69	70	1
175	183	1
60	61	5
46	72	1
132	132	2
168	169	2
8	25	1
174	176	1
83	85	2
126	127	1
29	31	1
173	174	2
98	98	2
157	174	1
197	197	5
96	102	1
1	3	1
27	27	5
31	32	2
100	108	1
68	86	1
58	72	1
51	68	1
22	22	5
141	184	2
172	178	3
62	63	1
33	47	1
6	7	1
170	171	1
118	132	1
8	9	1
6	26	1
11	11	5
157	157	6
39	42	1
70	70	3
93	99	1
39	40	3
120	120	3
130	130	2
19	23	1
6	178	2
182	183	4
48	48	6
8	32	1
99	140	5
1	2	3
167	167	6
169	170	5
11	38	1
8	8	4
29	29	3
43	127	1
54	62	1
175	179	1
39	76	1
1	4	1
50	66	1
145	166	1
155	155	6
59	59	2
72	74	1
1	41	2
72	113	1
195	195	2
159	159	2
124	125	1
30	114	1
170	195	1
7	25	2
42	42	8
105	106	1
186	187	3
4	5	3
146	149	1
167	191	2
143	154	1
160	161	3
158	182	1
39	41	1
167	168	1
173	173	5
100	117	2
41	43	1
62	62	2
79	80	1
126	126	4
81	83	1
35	43	1
5	19	1
2	4	2
137	137	3
7	22	1
83	89	1
37	37	10
159	160	1
5	7	1
33	101	1
168	180	1
171	195	1
124	124	3
58	58	2
40	134	1
12	12	4
68	180	1
18	33	1
144	145	1
72	72	6
61	61	2
154	154	8
23	23	7
193	193	8
59	61	3
111	112	1
189	189	1
52	66	1
57	57	3
178	178	5
24	27	2
191	191	8
76	78	1
40	42	1
109	109	4
28	29	3
34	37	2
68	68	1
0	1	5
55	70	1
17	25	2
36	52	2
163	163	4
117	134	1
18	118	1
117	117	2
138	146	1
70	71	2
145	145	3
65	90	1
4	45	1
29	30	1
29	34	1
27	29	2
114	115	2
69	71	1
161	172	2
192	193	3
76	76	2
53	53	2
3	8	1
13	34	2
89	89	3
21	23	1
25	31	1
12	23	1
119	119	2
39	39	3
12	13	2
6	31	2
17	31	2
82	82	1
98	100	1
30	88	1
191	192	2
169	187	1
196	196	3
181	184	2
131	131	2
165	188	1
108	108	6
81	94	1
83	84	3
149	161	1
6	163	1
54	54	2
177	178	2
165	167	2
30	66	1
150	177	1
176	176	1
100	122	1
152	155	1
133	141	1
183	184	1
136	137	1
67	67	7
112	118	2
124	139	1
44	44	4
57	124	1
75	75	1
14	23	2
8	27	1
32	59	1
104	118	1
13	14	2
116	117	1
90	90	1
107	107	4
103	103	3
80	93	1
157	189	1
115	116	1
141	142	1
153	153	3
61	114	1
76	120	1
169	191	1
59	84	1
31	31	4
77	79	1
56	100	1
23	26	1
181	182	1
95	104	1
27	60	1
50	50	1
11	12	1
18	18	5
41	41	3
127	127	1
24	72	1
8	30	1
69	69	3
93	98	1
31	99	1
165	193	2
133	138	1
43	45	3
17	18	1
164	164	3
173	192	1
107	109	1
119	121	1
73	87	1
158	170	1
186	188	1
180	182	1
162	171	1
127	128	1
34	34	1
133	133	4
75	77	1
94	96	2
16	23	1
7	26	1
119	120	2
158	176	1
121	169	1
136	136	4
68	69	1
133	137	1
88	89	1
17	114	1
158	186	1
93	167	1
156	157	2
58	85	1
151	163	1
109	111	1
34	40	2
118	118	2
15	24	1
12	18	1
32	33	3
17	37	1
12	15	1
67	79	1
156	170	1
152	170	1
11	34	1
42	43	1
157	182	1
101	102	1
125	125	2
142	169	1
189	190	1
20	21	2
2	33	1
148	164	1
146	148	3
15	15	2
99	100	1
71	71	1
63	65	1
151	182	1
50	52	1
177	179	1
146	147	3
66	66	4
155	156	2
47	47	4
150	151	1
45	46	2
33	34	1
116	118	2
40	41	3
135	137	1
74	75	1
183	186	1
83	83	1
169	186	1
159	196	1
18	43	1
86	86	1
57	58	2
16	18	1
144	179	1
194	195	1
5	74	1
56	133	1
39	154	1
116	116	2
155	171	2
56	56	1
51	57	1
182	193	1
158	180	1
141	185	2
23	31	2
1	32	1
4	10	1
162	164	1
35	37	1
142	155	2
43	43	2
143	170	1
129	129	6
31	40	1
193	194	1
85	85	2
34	35	1
53	55	2
162	184	1
44	47	1
86	97	1
111	111	1
1	7	3
132	133	1
174	175	2
52	127	1
33	153	2
172	197	1
23	25	1
175	175	1
122	123	1
155	162	1
21	22	2
96	96	2
19	34	1
17	62	1
14	15	3
134	137	1
2	30	1
22	23	1
28	32	2
158	158	3
20	154	1
102	105	1
9	23	1
5	13	1
69	76	1
123	123	4
21	30	1
13	39	1
144	161	1
62	65	1
114	114	1
32	37	1
110	110	1
137	155	1
110	147	1
178	179	1
196	197	2
99	117	1
123	159	1
10	20	1
19	20	2
3	25	1
2	2	1
54	56	1
107	114	1
30	32	1
126	134	1
151	152	1
54	55	1
28	34	1
130	131	1
139	159	1
174	189	1
45	58	1
81	81	2
67	69	1
11	16	1
58	84	2
58	81	1
15	20	1
19	70	1
139	140	1
161	161	1
159	161	1
167	179	1
173	175	1
75	76	1
188	188	2
68	87	1
169	174	1
74	74	1
57	59	1
176	191	1
131	132	1
150	152	1
58	63	1
45	65	1
80	80	2
64	65	1
78	78	2
4	6	1
119	133	1
5	32	2
57	108	1
183	183	1
33	37	1
188	189	1
110	137	1
127	152	1
100	115	1
9	11	1
136	147	1
6	25	1
162	189	1
9	71	1
79	79	2
53	68	1
55	109	1
139	148	1
138	172	1
145	146	1
24	25	1
16	29	1
146	156	1
153	183	1
16	42	1
27	38	1
20	32	1
151	179	1
0	21	1
145	147	1
66	69	1
138	139	1
173	176	1
84	85	1
100	118	1
0	2	1
37	38	1
187	188	1
168	172	1
120	121	1
121	123	1
76	77	1
6	20	1
155	158	1
31	75	1
16	17	1
111	157	1
151	154	1
84	113	1
14	152	1
96	97	1
104	114	1
129	130	1
24	26	1
83	86	1
140	156	1
4	32	1
