58	58	2
18	25	1
59	61	3
28	28	7
15	15	5
6	6	2
39	40	2
75	75	4
107	107	6
25	32	2
43	115	1
76	76	6
27	27	3
44	60	1
34	34	3
80	80	3
90	94	1
57	106	1
32	32	3
120	120	5
68	69	1
2	13	1
11	27	2
126	130	2
61	61	3
73	73	5
66	67	1
1	13	2
70	71	5
69	69	6
9	54	1
115	115	6
42	115	1
56	56	7
68	68	2
51	51	2
30	30	5
13	13	2
58	101	1
26	45	3
90	91	2
3	3	6
76	77	2
8	52	2
116	117	1
124	125	4
85	88	1
120	127	1
109	109	2
29	31	2
29	29	3
33	45	1
77	78	1
46	46	2
62	63	4
91	101	1
55	55	4
117	117	5
16	16	2
116	118	1
88	90	3
126	129	2
56	72	1
130	130	5
43	48	1
25	27	2
64	65	2
43	44	1
99	99	5
58	63	1
38	39	2
129	130	1
93	93	3
122	122	4
65	73	2
42	45	4
71	81	1
111	111	5
130	132	3
71	72	1
111	115	1
79	79	1
62	62	2
69	72	1
116	116	4
121	121	6
71	71	7
58	62	1
55	70	1
12	13	1
88	91	4
107	109	1
59	59	2
100	102	2
92	92	3
97	98	2
84	86	1
63	64	1
34	39	1
72	74	1
39	41	1
91	129	1
4	5	3
10	11	1
25	25	3
113	113	3
89	89	1
48	48	4
17	18	2
110	111	1
123	123	8
88	88	2
86	87	3
44	45	2
17	24	1
5	5	3
44	49	1
14	14	3
25	28	1
125	125	4
132	132	4
2	126	2
125	127	2
18	18	3
23	24	3
95	105	1
119	124	1
5	13	1
11	16	3
108	108	4
24	24	2
42	42	2
8	8	1
112	113	1
77	77	2
63	63	3
103	103	2
104	105	1
107	116	1
17	21	1
120	124	1
43	43	4
2	2	1
93	124	1
40	40	1
81	81	2
41	44	2
72	76	1
17	17	3
7	121	1
67	67	2
38	41	2
59	74	1
28	29	2
58	60	1
82	82	2
57	63	1
50	51	3
15	21	1
0	0	1
38	38	2
128	128	2
50	50	2
20	20	3
28	53	1
52	52	4
110	110	5
90	93	1
76	83	1
101	129	1
32	33	1
104	114	1
13	16	1
12	12	2
64	64	2
66	66	2
54	54	3
122	125	2
101	125	1
96	98	2
79	80	1
108	117	1
100	100	3
119	120	1
117	121	1
92	130	1
9	113	1
104	104	3
24	93	1
96	96	2
51	52	1
26	26	1
73	75	1
31	31	1
96	99	1
23	40	1
95	95	2
7	7	3
129	129	2
118	118	1
90	90	4
125	128	1
107	110	1
44	47	1
3	31	1
20	29	1
122	124	1
85	86	1
88	89	2
65	127	2
50	58	1
119	119	2
72	72	1
18	21	2
80	92	2
114	122	1
78	81	1
72	86	1
4	4	2
26	27	1
53	53	1
102	105	3
47	47	2
41	43	3
42	43	1
65	67	3
124	124	1
10	33	1
15	18	1
82	93	2
113	117	1
111	116	1
126	126	2
82	103	1
42	49	1
65	66	3
44	44	1
57	57	3
61	73	1
91	99	1
23	43	1
45	46	2
72	94	1
98	107	2
65	72	1
60	62	1
104	112	1
46	76	2
14	21	1
95	104	1
41	47	1
114	114	1
100	107	1
10	10	3
92	129	1
53	54	1
112	112	3
77	116	2
70	70	4
55	112	1
94	106	1
84	85	1
65	69	1
95	96	1
1	1	1
85	85	1
79	85	1
69	70	1
89	96	1
103	105	1
0	9	1
78	84	1
3	5	1
82	83	1
23	23	1
27	56	1
127	127	1
65	74	1
52	54	1
22	23	1
47	76	2
131	132	1
72	73	1
131	131	1
105	107	1
21	30	1
49	49	2
116	120	1
101	101	1
106	106	1
97	97	1
45	48	1
45	45	1
107	108	1
115	116	1
61	63	1
96	102	1
86	86	1
109	112	1
63	74	1
80	104	1
26	48	1
103	111	1
27	28	1
105	105	1
85	87	1
78	89	2
123	124	1
56	104	1
67	69	1
11	19	1
56	110	1
94	94	2
133	133	1
41	41	2
109	110	1
78	78	1
58	66	1
24	29	1
33	34	1
