94	96	1
92	92	12
121	121	6
87	87	8
54	54	15
38	38	6
31	32	6
28	29	2
142	144	1
20	97	2
125	125	15
73	84	1
39	40	4
64	65	3
13	13	11
17	17	13
6	6	11
73	83	2
22	28	2
94	125	1
48	55	3
137	138	5
128	129	7
126	139	1
123	123	7
81	82	1
140	140	21
21	21	11
72	72	8
30	31	2
16	16	9
122	123	7
59	67	1
19	19	25
105	105	11
117	117	10
126	126	17
39	39	4
67	67	11
4	5	3
52	71	1
6	62	1
68	68	9
49	49	16
5	24	2
98	98	4
138	138	11
12	24	1
86	97	1
3	3	6
113	115	1
105	107	2
125	131	2
93	118	1
27	28	3
65	66	3
32	32	9
141	141	10
110	116	2
83	83	9
62	62	8
114	114	6
13	34	1
77	78	6
132	132	17
107	135	1
40	40	7
112	137	3
8	8	14
58	58	11
101	101	7
20	20	9
130	130	10
4	4	10
133	133	12
104	108	1
47	52	1
104	132	1
129	141	1
74	123	1
33	33	11
112	113	1
76	78	1
3	6	2
24	24	18
37	54	1
62	64	4
47	47	13
30	30	9
138	139	3
23	23	11
133	135	2
2	2	9
55	55	6
35	36	5
99	99	8
134	134	15
71	122	1
76	76	10
102	104	1
72	104	1
109	109	7
23	24	3
34	34	10
111	111	5
128	128	16
20	21	6
8	9	4
91	91	13
8	40	1
9	9	6
102	102	11
95	96	8
31	31	12
129	140	3
118	118	24
70	72	3
53	53	9
139	139	19
18	18	13
12	12	1
60	104	1
112	112	10
42	50	2
10	11	2
35	35	6
62	63	6
21	91	1
76	77	3
114	119	2
1	2	3
51	58	1
91	92	3
104	104	9
89	92	1
110	111	2
94	94	5
99	100	8
52	52	4
85	85	8
144	144	12
76	79	2
124	124	9
24	31	1
75	75	6
146	146	5
70	70	3
27	42	2
107	107	13
65	65	9
127	127	7
139	140	2
145	145	10
34	35	3
41	41	14
64	64	4
22	22	5
30	33	2
2	3	3
135	137	1
20	81	1
82	95	1
73	73	6
15	104	1
87	106	1
63	63	9
100	100	7
75	122	1
99	111	1
19	20	2
142	145	1
78	78	9
14	14	8
66	66	9
133	134	4
81	81	8
68	72	1
14	34	2
131	131	6
22	27	2
136	138	3
69	72	1
140	141	4
117	139	1
3	4	3
73	74	4
97	97	6
49	51	1
129	129	14
89	118	1
4	6	1
96	96	10
33	43	1
1	1	7
42	124	1
89	90	3
66	71	1
103	103	12
14	29	1
5	5	12
12	19	1
9	25	1
113	113	8
14	15	1
87	90	2
48	48	12
120	120	7
82	83	2
54	55	4
116	116	3
51	51	4
71	72	2
73	75	4
102	124	1
59	81	1
24	26	2
93	94	4
88	88	4
27	32	2
28	28	8
61	61	7
64	83	2
43	43	11
15	16	2
95	95	6
5	6	3
73	87	2
86	86	7
21	22	3
0	11	1
0	0	4
96	97	2
135	135	7
115	117	3
115	115	7
107	126	1
106	107	3
42	42	5
83	84	2
79	79	11
62	75	1
118	119	3
49	52	5
67	68	2
84	84	4
10	10	12
110	143	1
116	117	6
87	88	2
115	122	2
82	82	7
58	71	2
11	22	1
3	13	2
129	130	3
13	37	3
108	108	3
32	34	2
11	11	13
56	56	8
20	29	2
72	73	2
55	59	1
110	110	7
1	11	1
70	138	1
103	133	1
125	142	1
115	121	1
76	80	1
142	142	4
73	105	2
80	132	1
90	90	10
57	57	8
92	135	1
127	131	3
67	103	1
75	76	2
108	128	1
24	47	1
53	66	1
117	118	3
16	33	1
124	142	1
35	43	1
33	34	5
112	114	3
100	101	3
135	136	5
78	102	1
90	91	4
130	133	1
100	144	1
80	83	1
89	89	4
93	93	7
38	39	2
21	27	2
124	136	2
49	104	1
36	36	9
96	100	3
125	128	1
24	25	3
115	119	2
29	37	2
106	141	2
103	105	5
91	94	2
11	34	1
18	19	5
119	140	1
12	42	1
104	105	3
132	138	2
62	66	1
23	40	1
66	67	3
56	64	1
60	60	8
93	110	1
91	93	1
106	106	6
61	67	1
59	59	2
136	136	6
58	67	1
32	33	5
27	27	8
38	40	2
131	132	4
57	84	3
59	62	1
25	39	1
111	112	1
52	93	1
80	81	2
61	74	2
27	40	1
49	67	1
67	74	1
95	141	1
126	133	1
6	141	2
80	90	1
29	30	3
26	26	8
22	41	1
77	77	6
90	107	2
15	71	1
20	27	1
53	56	2
16	17	2
59	80	1
9	10	3
34	50	1
121	122	3
33	35	2
30	47	1
98	99	3
28	41	1
59	92	1
97	98	3
60	77	1
55	85	2
12	65	1
14	43	1
116	126	1
72	96	1
79	82	1
28	95	1
59	60	2
75	105	1
26	62	1
135	138	1
26	27	4
18	33	1
35	70	2
112	138	1
29	29	5
102	103	2
74	74	13
90	93	1
141	142	7
128	130	2
8	91	1
119	119	6
18	98	1
53	54	2
81	106	1
52	53	4
30	37	1
62	130	1
143	143	7
126	127	3
131	142	1
22	130	1
10	82	1
71	71	5
102	106	1
50	85	2
130	146	1
48	132	1
92	94	1
90	92	2
122	122	5
17	19	1
84	85	1
33	41	1
29	38	2
125	130	1
70	71	2
47	48	1
130	132	1
107	109	1
97	144	1
6	8	1
19	35	1
61	85	1
25	25	8
111	121	1
127	130	1
68	69	3
23	25	1
29	60	1
132	133	1
3	33	1
67	72	1
23	49	1
120	121	3
105	106	4
26	59	1
123	133	1
28	32	1
48	59	2
80	80	5
71	125	1
132	135	2
68	78	1
8	18	1
114	117	1
76	85	1
0	1	1
18	38	1
80	106	1
47	50	3
94	95	1
80	94	1
91	138	1
49	50	2
48	52	2
102	141	1
99	101	2
126	129	2
85	109	1
50	50	2
69	90	1
114	129	1
42	48	1
8	41	1
61	90	1
21	25	2
116	131	1
68	86	2
108	140	2
130	140	4
106	127	1
17	18	2
32	61	1
60	144	1
88	89	3
78	79	4
87	123	1
55	58	1
53	58	1
71	105	1
55	63	1
108	109	4
80	124	1
50	52	1
23	26	1
13	38	1
96	98	1
2	10	1
69	69	3
26	28	1
70	121	1
134	135	4
59	61	1
83	85	2
22	23	1
136	139	1
39	41	2
97	101	1
25	26	2
73	94	1
32	39	1
6	14	1
11	37	1
117	124	1
61	62	1
8	27	1
74	106	1
91	118	1
56	102	1
32	48	1
80	133	1
33	36	1
1	27	1
22	29	1
15	15	6
97	126	1
123	124	3
29	42	1
70	94	1
85	86	1
74	76	1
85	120	2
105	125	1
145	146	1
91	124	1
65	69	1
77	117	1
143	145	1
79	80	3
96	114	1
133	140	1
73	77	1
95	126	1
93	96	1
69	75	1
58	59	4
73	85	1
70	73	1
137	137	3
85	123	1
37	37	8
25	43	1
42	91	1
97	111	1
105	131	1
90	116	1
95	104	1
122	137	2
38	99	1
127	139	1
3	16	1
113	114	1
16	71	1
106	108	2
65	77	1
86	110	1
60	61	2
8	29	3
115	118	1
48	49	2
6	139	1
27	128	1
63	66	1
50	69	1
136	137	1
50	51	1
11	21	1
42	125	1
137	139	2
1	10	1
75	77	1
42	54	1
60	62	1
68	74	1
8	19	1
70	74	1
104	111	1
87	91	1
55	56	1
87	92	1
107	108	2
97	99	1
31	36	1
78	127	1
117	119	2
60	79	1
51	52	1
38	48	1
50	72	1
48	66	1
14	114	1
70	85	1
15	35	1
90	120	1
66	68	1
62	80	1
15	81	1
124	131	1
16	42	1
56	57	1
71	89	1
114	115	1
0	21	1
124	125	1
69	70	1
132	136	1
24	27	1
10	101	1
37	38	2
142	143	1
105	115	1
2	6	1
34	36	2
40	41	1
21	81	1
131	134	1
143	144	1
104	116	1
6	29	1
83	132	1
52	56	1
56	72	1
84	108	1
134	140	1
47	60	1
86	87	1
16	19	1
96	107	1
74	78	1
85	121	1
28	66	1
6	37	1
94	114	1
103	107	1
10	19	1
101	116	1
63	111	1
106	125	1
54	57	1
61	77	1
50	53	1
9	48	1
68	97	1
0	2	1
41	42	1
75	78	1
57	90	1
77	87	1
50	81	1
9	12	1
40	56	1
97	125	1
68	75	1
92	112	1
20	143	1
52	54	1
110	114	1
42	47	1
61	63	1
74	75	1
89	93	1
8	10	2
109	139	1
124	128	1
15	31	1
128	131	1
83	104	1
103	104	1
19	75	1
68	71	1
84	88	1
74	124	1
111	132	1
17	131	1
6	21	1
85	89	1
63	79	1
92	93	1
115	116	1
