96	96	2
13	13	5
72	72	3
102	102	3
103	103	2
56	56	7
14	14	4
140	140	4
165	165	5
28	28	4
157	159	1
132	132	4
150	170	2
135	138	1
149	170	1
104	105	1
0	155	1
33	33	3
72	73	2
40	40	7
46	138	1
45	45	4
17	17	4
127	127	2
20	36	2
18	18	5
43	43	8
111	130	3
150	157	1
42	42	4
94	158	1
91	92	1
19	19	2
156	166	1
126	126	5
5	5	7
129	129	6
65	67	1
48	48	1
93	96	1
12	12	7
22	22	3
108	108	3
85	85	3
14	26	3
98	98	4
16	16	5
116	116	8
138	138	7
114	122	1
40	41	2
160	160	6
35	35	3
92	92	3
47	48	5
3	3	3
51	52	1
139	140	1
84	84	6
170	170	1
1	2	2
139	139	4
143	143	4
10	10	6
167	167	7
82	82	5
21	162	1
161	161	6
86	87	3
0	26	1
147	147	7
34	35	2
27	27	7
88	88	3
78	82	1
6	7	1
146	148	2
15	15	5
144	148	2
113	113	4
54	54	4
136	136	5
34	34	6
149	149	3
82	83	1
137	157	1
158	158	8
112	118	3
39	39	9
157	157	8
47	47	3
91	111	1
0	1	1
157	158	2
99	100	4
134	134	8
117	128	1
4	36	1
23	23	2
9	9	3
5	11	1
145	145	5
155	157	3
164	164	3
140	146	2
150	150	6
156	157	2
141	142	3
125	130	1
67	69	1
54	55	4
138	139	1
73	73	2
92	95	1
51	65	2
151	151	5
96	98	2
130	130	2
77	78	3
134	148	1
41	41	2
124	125	1
54	56	2
90	97	1
15	16	2
37	37	3
55	56	2
46	46	5
20	24	1
3	4	2
119	120	1
134	135	2
24	25	1
142	143	1
26	26	6
109	109	3
6	12	1
109	110	1
155	156	1
152	152	4
127	128	3
133	133	2
26	27	1
52	52	3
159	160	2
151	152	1
47	51	1
93	93	3
20	21	3
35	36	2
125	125	3
156	165	1
98	104	2
103	129	1
46	134	2
65	65	2
6	10	1
123	128	1
81	96	1
143	144	1
79	79	4
114	114	3
117	143	1
166	166	5
124	128	1
136	138	1
158	160	1
80	80	3
106	106	3
94	94	3
133	154	1
41	42	3
18	21	1
99	99	3
117	118	2
142	142	1
21	158	1
66	66	1
121	122	1
8	8	3
81	101	2
115	121	1
155	155	5
50	50	4
74	74	1
13	15	2
7	7	6
25	28	1
25	25	5
120	122	2
144	144	3
14	137	2
135	135	2
93	97	2
122	131	1
1	1	5
36	36	4
147	157	1
146	146	4
20	20	2
95	95	2
6	117	1
75	86	1
137	138	1
154	154	3
107	107	3
45	49	1
151	161	1
112	112	3
68	119	1
100	104	1
10	11	2
90	120	1
25	27	1
64	64	3
11	15	1
46	48	1
161	162	1
152	154	1
143	146	1
116	118	1
11	11	5
156	156	2
4	43	1
117	117	1
135	157	1
70	70	1
47	50	1
148	148	2
120	120	1
119	119	1
15	38	2
112	113	1
162	163	3
62	75	1
155	164	1
22	24	1
51	54	1
25	91	1
62	62	2
53	53	1
51	53	1
14	34	2
51	51	3
38	38	8
13	150	1
154	155	3
76	76	2
66	67	3
10	25	1
111	111	3
6	6	2
49	53	1
76	85	1
124	124	1
137	137	1
47	49	1
53	57	1
10	13	1
36	37	2
161	166	2
55	55	5
15	136	1
118	118	2
146	155	1
148	168	1
168	169	1
131	134	1
119	126	1
45	46	2
89	89	2
37	43	1
24	24	2
2	2	2
20	26	1
126	137	1
81	81	1
121	127	1
130	131	2
71	107	1
0	2	1
114	134	1
120	123	1
133	142	1
0	0	2
87	88	1
114	142	1
56	85	1
163	166	1
55	146	1
24	39	1
63	63	2
7	10	1
49	51	2
163	163	2
40	159	1
153	153	3
3	71	1
4	14	1
135	137	2
2	18	1
163	164	2
23	24	1
140	152	1
19	141	1
159	159	4
71	72	2
164	167	1
98	102	1
48	51	1
123	132	1
42	168	1
67	78	1
111	118	1
80	82	1
169	169	3
71	71	1
105	106	1
162	162	3
128	128	1
21	21	2
9	10	2
72	79	1
39	40	1
118	120	1
2	42	1
11	12	1
12	13	1
49	56	1
16	89	1
154	156	1
8	46	1
131	133	1
85	86	1
110	125	1
70	90	1
105	122	1
158	159	1
77	77	1
168	168	1
148	155	1
101	102	1
110	134	1
92	94	1
39	112	1
91	91	2
16	148	1
151	156	1
110	110	2
16	51	1
123	123	1
83	84	1
161	163	1
90	90	1
136	137	2
5	7	1
145	162	1
131	131	2
36	83	1
138	144	1
47	56	1
116	139	1
115	115	1
15	18	1
68	68	1
69	70	1
135	161	1
19	23	2
146	147	1
16	18	1
122	122	1
136	152	1
25	41	2
111	119	1
137	152	1
63	64	1
145	146	1
63	70	1
69	71	1
100	105	2
74	78	2
42	43	1
134	163	1
77	79	1
52	53	1
49	50	1
71	84	1
117	126	1
86	131	1
76	84	1
133	156	1
164	166	1
24	55	1
52	71	1
143	147	1
144	147	1
139	151	1
37	38	1
86	88	1
10	149	1
7	11	1
98	99	1
116	153	1
91	132	1
71	80	1
162	166	1
47	66	1
50	51	1
