55	55	3
196	196	1
23	23	5
113	113	4
29	29	3
69	69	2
114	114	4
228	228	1
39	40	1
137	137	3
0	54	1
49	49	3
229	235	1
105	108	3
158	158	6
116	117	2
240	240	3
10	10	1
26	26	3
120	121	1
157	158	2
12	12	3
9	65	1
234	234	2
92	105	1
208	208	4
112	112	3
130	191	1
209	210	1
219	219	1
109	109	1
200	200	3
160	160	1
25	33	1
198	198	2
7	8	2
120	120	1
170	170	3
159	159	3
174	174	8
227	227	2
108	108	5
173	173	1
142	144	1
183	194	1
228	230	1
222	222	1
38	39	1
27	27	3
166	176	1
180	181	1
61	62	1
163	168	1
70	70	1
106	115	1
96	120	1
67	67	1
224	225	1
153	155	1
4	5	1
139	139	1
173	238	2
144	144	1
155	156	1
58	60	1
52	55	2
164	164	1
183	183	3
114	120	1
182	182	1
29	235	2
11	11	1
85	85	2
2	2	2
121	121	2
153	153	1
159	175	1
168	168	3
20	20	3
162	166	1
101	101	4
13	13	2
84	85	1
62	62	2
181	195	1
97	130	2
5	5	2
166	166	7
88	88	1
171	171	3
6	6	3
122	125	2
28	28	1
34	38	1
19	19	2
99	99	2
157	157	4
115	118	2
65	65	2
232	232	1
200	201	1
213	213	1
152	152	5
193	193	2
220	220	3
153	156	1
73	73	1
130	131	1
113	114	2
65	68	1
46	46	1
80	82	1
37	182	1
217	217	5
154	154	3
74	75	1
122	122	1
31	31	2
190	190	3
33	33	2
184	185	1
58	61	1
139	151	2
75	89	1
10	43	2
225	229	1
133	133	2
216	216	4
18	19	1
197	215	1
233	233	5
150	150	1
169	170	2
196	197	1
198	213	1
63	63	3
191	217	1
200	216	1
66	67	1
186	186	3
149	149	3
99	100	1
8	192	1
175	175	1
223	223	1
100	100	2
44	44	2
163	164	1
75	75	3
151	153	1
154	156	1
110	110	1
102	102	1
198	201	1
30	30	3
3	16	2
138	138	2
78	79	2
211	211	1
127	184	2
238	238	2
23	199	2
80	80	1
3	3	1
156	156	1
103	149	1
71	71	1
27	241	1
146	147	1
98	98	1
185	188	2
184	184	1
171	172	2
241	242	2
2	5	1
76	79	1
204	204	3
101	102	1
7	23	1
20	24	1
208	216	1
121	128	1
225	225	1
159	190	1
112	239	1
21	22	1
47	47	1
98	99	1
184	188	1
58	58	2
78	80	2
146	151	2
152	158	1
25	26	1
68	68	1
128	128	3
146	146	2
180	180	1
44	45	1
181	181	2
114	169	1
130	236	1
187	190	1
59	59	1
203	203	2
16	16	3
210	210	1
194	194	1
193	194	2
37	38	1
6	23	1
120	122	1
175	176	1
119	119	2
128	184	2
50	54	1
127	128	1
235	235	1
132	133	1
126	126	1
202	202	1
161	161	2
76	76	1
132	149	1
62	64	1
15	102	1
97	239	1
45	45	2
104	106	1
136	136	1
138	142	1
172	172	2
239	239	2
22	22	1
151	151	1
72	73	1
122	123	1
190	191	1
103	103	1
96	97	1
117	119	1
43	43	1
40	57	1
83	83	1
229	229	1
111	113	1
135	136	2
99	121	1
168	169	1
141	141	1
59	88	1
169	169	1
66	66	1
163	186	1
167	167	1
237	242	1
120	159	1
230	233	1
129	155	1
59	60	1
9	10	1
32	37	1
106	122	1
45	78	1
6	15	1
61	61	2
13	14	1
116	118	1
178	178	1
1	50	1
74	74	1
171	174	1
128	159	1
21	21	1
173	220	1
192	192	1
114	122	1
203	204	1
7	7	1
97	97	1
176	178	1
145	145	2
231	231	1
133	143	1
132	132	1
101	136	1
85	86	1
25	25	1
9	9	1
206	225	1
