73	74	1
42	42	3
16	20	1
61	62	4
112	113	4
28	31	1
5	23	1
25	25	1
88	88	4
102	103	2
47	47	2
84	84	4
109	109	2
69	71	1
111	112	2
76	109	1
116	116	2
43	43	1
49	49	2
53	53	5
55	55	2
73	82	1
93	94	2
32	32	2
112	112	2
89	90	1
93	93	1
124	124	3
129	129	3
88	89	2
96	101	1
89	89	3
58	89	1
44	44	3
48	48	3
60	61	1
118	118	1
107	123	1
41	41	2
94	94	2
115	116	1
117	117	3
113	114	1
24	28	2
115	117	1
77	77	2
95	105	1
21	21	1
91	91	2
110	110	1
131	131	2
45	45	1
106	107	1
64	64	3
6	6	3
98	100	1
125	125	2
76	79	1
128	128	1
48	110	1
123	124	1
72	72	1
96	96	4
3	4	1
11	11	2
110	111	2
107	107	2
3	3	1
73	81	1
92	93	2
1	24	1
7	7	2
30	31	1
111	111	5
130	130	3
52	52	2
82	98	1
31	32	1
92	97	1
16	19	1
115	115	1
97	97	3
54	55	1
51	56	1
60	60	1
17	17	2
126	127	1
126	126	1
50	50	2
103	103	1
83	96	1
39	39	1
39	43	1
118	119	2
96	99	2
58	84	1
58	77	1
10	11	2
67	67	1
113	113	2
63	65	1
23	24	3
80	80	1
75	75	5
90	91	4
59	60	1
68	68	2
66	66	1
123	123	2
80	81	1
77	81	1
54	54	2
26	26	3
9	49	1
84	85	3
101	101	1
109	110	1
82	91	1
26	39	1
92	92	1
96	97	1
86	86	3
15	15	2
100	100	2
1	1	1
43	44	1
80	98	1
27	27	2
113	119	1
82	82	1
83	84	1
16	17	1
5	5	1
10	10	1
85	86	1
2	24	1
127	127	1
31	31	1
15	20	1
12	12	1
26	27	1
58	58	1
43	45	1
122	122	1
42	80	1
23	23	1
129	131	1
133	133	2
12	30	1
46	47	1
121	121	2
106	106	1
65	65	1
74	74	1
113	133	1
77	125	1
94	105	1
65	69	2
18	33	1
63	63	1
87	87	1
46	46	1
42	43	1
32	42	1
104	105	1
8	55	1
4	6	1
51	52	1
52	53	1
81	81	1
95	95	1
48	114	1
24	24	1
69	69	2
107	109	1
61	61	1
83	83	1
97	100	1
90	90	1
67	68	1
8	8	1
108	108	1
61	63	1
78	78	1
74	75	1
79	80	1
45	46	1
40	44	1
