17	18	2
24	24	3
163	212	1
179	179	3
55	61	1
51	175	2
201	201	4
66	66	3
44	44	5
80	119	1
179	212	3
208	208	5
156	156	8
59	64	1
78	193	1
4	34	1
213	213	2
66	109	1
100	105	1
175	176	3
91	92	2
158	159	1
210	210	3
214	214	3
82	82	3
225	225	4
12	12	2
16	44	1
236	244	2
159	168	4
40	40	9
73	73	1
10	11	2
95	95	2
190	191	1
78	78	3
237	237	2
193	244	1
188	188	2
164	164	1
51	51	1
47	85	1
65	65	2
185	186	2
57	57	4
186	186	4
71	85	3
187	224	1
108	108	1
177	178	2
28	28	9
182	182	4
94	94	6
202	229	1
23	23	4
247	247	4
44	200	1
6	8	1
213	214	1
93	95	2
239	248	2
222	222	2
61	62	2
49	233	1
70	70	2
221	237	1
98	98	2
160	160	3
231	231	5
230	234	2
166	166	5
24	45	1
31	32	1
168	168	1
23	24	2
17	36	2
111	111	1
206	207	2
7	7	3
221	221	2
158	158	1
23	41	1
109	111	1
229	229	1
240	240	2
117	117	5
101	101	4
110	110	4
10	10	1
8	8	2
147	147	1
171	193	1
234	234	3
167	203	1
172	174	1
151	151	3
154	154	4
28	55	1
70	79	1
89	100	1
38	38	3
28	154	1
171	171	2
205	205	2
17	27	1
97	97	1
231	235	1
62	62	3
218	219	1
96	96	1
120	120	2
61	61	1
211	212	1
8	156	1
25	25	4
28	29	1
173	173	2
184	184	4
6	6	8
178	232	1
22	22	7
210	224	2
235	249	1
203	204	1
20	53	1
63	76	2
37	38	1
11	16	1
4	4	3
174	174	3
16	16	3
86	86	3
11	11	4
180	180	1
228	228	3
30	30	1
18	18	1
49	85	1
19	19	4
192	192	2
2	2	2
112	112	3
223	234	1
239	239	2
79	82	1
1	1	3
54	54	1
114	114	3
101	113	1
41	41	2
92	92	5
159	159	2
49	50	1
100	100	1
109	109	4
150	150	3
187	190	2
61	90	1
91	91	1
208	209	4
85	85	3
39	39	2
15	15	2
81	83	1
246	246	1
238	240	2
232	236	1
106	107	1
36	36	4
242	243	3
219	232	1
57	89	1
214	215	1
244	244	1
32	32	3
210	228	1
48	48	3
11	18	2
50	50	1
218	220	2
189	189	1
48	50	2
27	27	9
183	183	2
43	43	3
47	47	3
68	68	2
44	46	3
224	228	1
96	97	1
176	183	1
226	226	1
177	219	1
2	6	1
222	247	1
165	172	2
242	244	1
33	33	3
26	26	2
87	87	1
69	69	1
117	118	1
33	35	1
238	239	2
170	170	3
77	78	2
22	31	3
197	197	2
52	52	2
187	187	2
202	227	1
55	56	3
39	147	1
199	200	1
86	88	1
118	118	2
68	69	1
212	212	4
20	20	4
176	178	1
243	243	3
84	90	1
177	177	2
8	9	1
179	181	1
219	219	1
193	211	1
179	180	1
73	74	1
6	244	1
14	15	1
76	76	1
230	230	1
226	228	1
34	34	4
196	236	1
42	202	1
173	175	1
42	42	2
111	120	1
100	169	1
21	21	2
187	211	2
204	204	1
196	214	1
9	10	1
172	172	5
64	65	2
109	110	1
93	93	3
45	45	3
117	162	1
220	245	1
59	59	3
105	107	1
78	85	1
40	41	1
223	223	5
83	83	2
82	83	1
58	58	2
55	55	1
236	239	1
89	89	2
6	16	1
90	91	1
248	248	1
90	90	2
178	178	1
238	238	1
200	200	2
115	115	3
219	247	1
16	165	1
29	30	1
31	31	4
181	181	1
162	227	1
174	176	1
26	230	1
184	185	1
13	13	1
9	9	4
237	239	1
237	249	1
176	185	1
75	75	1
55	230	1
60	77	2
175	177	1
62	65	1
226	245	1
223	245	1
12	37	2
19	20	1
239	240	1
200	224	2
37	37	2
245	246	2
52	53	1
241	241	1
18	19	1
56	57	1
179	214	1
235	235	1
53	53	1
195	195	1
157	157	1
65	67	1
236	236	5
65	224	1
215	233	1
22	27	1
36	53	1
187	188	1
85	87	2
162	211	2
183	184	1
220	220	1
116	116	2
121	145	1
162	167	1
99	100	1
112	114	1
163	192	2
153	155	1
175	175	1
216	216	1
225	237	1
84	84	1
220	221	1
155	155	1
197	208	1
114	115	1
202	203	1
85	105	1
167	167	1
12	14	1
217	218	1
162	173	1
202	202	2
199	199	1
233	233	1
20	40	1
39	41	1
32	35	1
3	3	2
215	216	1
151	168	1
81	84	1
108	109	1
17	17	1
173	178	1
229	232	1
193	215	1
106	168	1
7	225	1
19	53	1
29	29	3
38	46	1
165	167	1
173	174	1
230	231	1
193	195	1
233	235	1
33	34	1
195	230	1
160	227	1
22	23	1
241	245	1
227	227	1
47	48	1
215	215	1
160	161	1
12	40	1
176	177	1
225	236	1
80	80	1
52	203	1
38	39	1
41	42	1
62	66	1
72	72	1
161	161	1
73	75	1
162	162	1
173	179	1
114	203	2
192	234	1
186	209	1
201	211	1
203	203	2
221	247	1
183	186	1
88	104	1
47	53	1
10	203	1
212	244	1
200	201	1
172	175	1
113	113	1
79	79	2
58	166	1
65	66	1
185	205	1
206	206	1
55	66	1
198	198	1
205	207	1
36	37	1
30	31	1
168	171	1
39	40	1
49	72	1
160	167	1
191	192	1
159	163	1
159	160	1
101	117	1
109	144	1
26	27	1
207	245	1
186	188	1
187	199	1
194	194	1
79	80	1
152	152	1
6	12	1
240	242	1
