167	168	1
133	133	4
139	139	3
143	145	1
89	89	5
19	21	1
83	88	4
39	40	1
35	35	3
15	15	2
66	66	5
54	54	3
79	79	5
80	80	2
92	93	2
106	106	2
176	179	2
10	10	3
40	40	3
103	111	1
140	141	3
109	165	1
170	171	2
160	162	2
77	77	2
24	24	2
23	24	1
149	149	3
25	25	1
0	0	5
124	124	2
173	173	7
72	75	1
176	176	4
65	65	1
3	3	3
100	101	2
154	163	1
52	61	1
37	37	1
128	128	1
145	145	2
95	95	1
165	167	1
31	31	3
5	5	2
24	28	1
6	40	1
53	53	2
151	161	1
87	87	3
16	16	2
129	129	3
119	119	2
67	67	1
109	109	3
105	105	3
11	35	2
57	57	1
138	143	1
80	86	1
15	20	1
90	90	6
93	93	2
143	144	2
98	98	1
146	146	1
123	124	1
41	41	3
11	13	1
87	92	1
14	14	1
97	100	1
43	43	4
2	4	2
4	4	2
101	101	1
148	148	2
163	163	1
72	72	2
114	114	1
13	13	3
40	41	2
17	42	1
23	23	2
171	171	2
162	162	1
28	28	1
32	79	2
103	142	1
30	30	4
50	50	1
109	111	1
121	121	2
142	142	3
1	2	2
6	6	5
36	37	2
137	167	1
89	91	3
81	82	1
64	64	6
136	136	3
52	52	1
161	162	1
138	138	6
117	117	2
126	126	3
61	87	2
132	132	3
102	103	2
161	161	1
59	59	1
5	6	2
34	38	1
11	11	1
126	149	1
17	21	1
7	9	1
78	78	3
140	165	3
126	171	1
121	125	1
107	107	4
96	96	2
147	147	1
120	120	3
91	93	1
88	111	1
129	169	1
55	55	2
53	72	1
116	116	1
38	38	3
103	104	1
135	136	2
44	44	1
124	150	1
20	27	1
26	28	1
61	63	1
172	172	2
122	145	1
65	66	1
81	81	1
76	76	2
92	92	4
112	131	2
2	28	1
18	18	1
4	5	1
155	161	1
104	105	2
155	155	1
12	12	2
43	44	1
73	74	2
13	21	1
84	85	2
73	73	1
138	141	1
148	149	1
68	68	1
14	40	1
9	9	1
8	10	1
59	60	1
76	77	1
24	25	1
131	150	1
175	175	1
63	64	2
168	168	1
102	104	1
104	104	1
137	137	2
157	157	1
157	158	1
53	75	1
170	170	1
94	95	1
142	145	1
26	27	1
147	148	1
32	32	1
27	31	2
111	115	1
153	153	2
131	132	1
150	150	3
166	166	1
83	83	1
99	100	1
44	45	2
154	171	1
125	125	2
90	118	1
2	43	1
154	154	3
2	2	1
3	4	2
148	157	1
74	75	1
31	32	1
178	178	1
26	26	2
38	54	1
165	165	1
59	67	1
140	140	1
118	122	1
158	158	2
2	3	1
169	169	2
80	81	1
39	39	1
112	112	2
51	52	1
65	74	1
60	60	1
66	67	2
160	161	1
62	62	1
91	97	1
91	91	2
151	151	1
61	61	3
86	87	1
144	144	1
15	16	1
115	115	1
21	21	1
156	157	1
159	159	2
131	131	1
124	125	1
122	122	1
49	49	1
152	152	1
54	55	1
164	165	1
34	53	1
33	33	1
151	155	1
56	57	1
111	114	1
54	70	1
122	123	1
17	127	1
179	179	1
160	160	1
149	173	1
153	154	1
123	123	1
108	109	1
180	180	1
59	73	1
174	175	1
24	26	2
50	51	1
141	141	1
165	166	1
163	164	1
5	8	1
149	170	1
