61	61	2
46	46	2
158	159	1
5	5	6
10	11	2
116	117	1
145	145	1
42	42	2
96	142	1
33	33	4
4	4	3
56	56	2
38	49	1
49	49	3
138	138	2
151	151	1
161	161	3
63	63	3
73	73	6
65	65	1
21	57	1
32	51	1
159	162	1
81	81	2
92	120	2
132	132	2
76	161	1
124	125	1
77	78	2
22	30	1
171	171	8
97	119	2
16	31	2
50	50	1
153	153	6
109	109	2
133	168	1
96	96	1
84	85	1
13	13	4
55	55	1
120	120	3
147	148	1
76	79	2
103	103	4
80	137	1
89	121	1
15	22	1
9	12	1
29	29	1
94	94	2
96	115	1
101	101	4
39	39	4
88	89	2
133	134	1
111	111	1
11	14	1
77	77	5
103	104	1
138	159	1
1	1	1
82	83	2
27	28	1
139	139	3
61	62	1
14	37	4
30	40	1
110	110	1
143	143	1
173	173	4
167	167	1
76	76	2
180	180	3
79	79	2
169	169	3
123	124	3
78	81	2
141	141	5
162	162	2
0	1	1
169	172	3
16	16	2
161	162	1
11	12	1
160	160	2
74	75	2
45	45	2
41	43	1
132	133	1
139	180	2
36	108	1
30	30	4
89	101	1
68	68	1
136	151	1
18	18	1
170	175	1
163	163	3
28	28	3
97	97	5
122	122	1
13	14	1
17	18	1
60	61	1
44	44	3
130	130	1
12	12	1
82	117	2
121	123	1
144	144	2
31	31	4
7	9	1
57	64	1
62	84	1
105	129	1
66	137	1
9	9	2
65	66	3
10	10	3
98	101	1
118	118	2
84	90	1
37	38	2
147	147	2
163	164	2
154	154	1
121	122	1
73	74	2
131	131	5
55	56	2
54	65	1
84	84	1
159	159	4
132	135	1
17	17	1
36	36	1
156	162	1
28	35	1
62	83	2
12	13	1
8	9	1
88	91	1
43	43	1
175	175	2
40	40	2
7	7	3
20	20	1
133	153	3
86	87	1
2	33	1
25	25	3
134	140	2
52	52	1
6	6	2
89	89	2
14	36	1
82	82	4
83	83	1
18	19	1
134	134	3
19	30	1
115	115	2
150	150	1
54	55	2
39	41	1
50	51	1
178	178	3
49	62	2
0	0	2
142	142	2
114	114	3
105	124	2
71	71	2
75	75	1
166	166	1
25	26	2
161	164	1
26	29	1
177	177	1
111	113	2
41	42	1
113	115	1
92	92	1
125	125	1
26	27	1
158	171	1
51	52	1
21	22	1
158	158	1
72	72	1
60	60	1
35	35	1
86	94	1
133	133	3
168	169	1
113	114	1
111	112	1
106	106	2
66	66	2
108	120	1
78	78	3
55	58	1
98	129	1
90	90	2
95	95	1
152	152	2
149	150	1
117	117	1
81	131	1
42	60	2
86	86	1
62	62	1
146	147	1
32	32	3
136	137	1
30	46	1
129	129	1
4	7	2
145	148	1
57	57	1
141	147	1
170	170	1
67	107	1
11	23	1
2	3	1
124	124	1
154	162	2
1	81	1
52	106	1
120	121	1
54	54	1
143	145	1
32	161	1
116	161	3
156	174	2
42	43	1
55	80	1
83	113	1
6	7	2
167	168	1
37	43	1
64	64	1
127	127	1
102	102	1
169	175	1
27	27	2
93	93	1
88	88	1
20	30	1
3	13	1
32	34	1
76	112	1
108	109	1
128	128	1
19	19	1
95	96	1
103	115	1
100	100	1
107	107	1
159	167	1
115	117	1
145	180	1
108	108	1
98	98	1
149	149	1
34	34	1
93	111	1
22	25	1
123	123	1
176	176	2
172	173	1
155	155	1
4	26	1
89	106	1
33	51	1
107	128	1
145	146	1
2	2	1
15	16	1
38	38	1
107	110	1
87	87	1
