68	82	1
131	131	6
93	93	3
67	67	5
14	18	1
48	48	2
81	81	4
88	90	1
117	118	1
51	51	3
143	144	1
27	28	1
10	10	3
73	73	3
95	95	2
97	97	2
91	91	1
87	87	4
74	74	3
49	49	4
117	117	3
60	60	3
59	59	3
36	36	2
123	123	2
98	108	1
15	16	2
135	135	4
49	91	1
125	125	2
124	130	1
117	120	1
106	106	2
62	63	3
15	29	1
58	61	1
100	100	1
104	104	3
105	110	1
136	136	2
42	42	2
143	143	3
37	37	3
63	63	1
76	80	1
61	91	2
18	18	4
128	133	4
69	69	5
118	118	3
109	112	1
132	132	4
105	107	1
71	72	3
53	53	1
70	70	1
60	63	4
9	9	3
21	21	1
109	109	4
14	14	1
64	66	1
122	123	1
118	140	1
57	57	2
47	48	1
62	62	2
37	99	1
135	136	3
58	59	2
85	85	2
102	103	1
75	75	2
11	11	2
19	19	2
34	35	3
138	140	1
13	13	1
24	118	1
54	54	3
103	103	3
43	62	1
115	118	1
96	96	1
33	33	3
120	121	1
79	134	1
82	101	1
79	79	2
83	84	1
126	126	2
129	132	1
24	24	1
50	50	3
30	31	1
89	89	2
96	126	2
98	101	1
129	139	1
55	55	1
123	124	1
41	42	1
93	107	2
128	129	5
55	56	1
74	86	1
105	108	1
146	146	1
127	132	3
2	26	1
54	90	1
129	129	1
8	8	2
133	134	1
122	122	2
134	140	1
2	2	3
10	21	3
20	20	1
114	114	1
49	62	1
28	28	4
130	130	2
41	41	2
99	99	2
25	25	2
50	55	2
20	102	1
88	88	2
2	4	1
141	141	1
15	15	3
110	123	1
64	64	4
105	106	1
112	113	1
40	40	4
133	133	1
35	35	1
17	17	3
120	120	1
65	65	2
4	26	1
140	140	3
22	22	1
93	94	2
28	30	1
101	133	1
24	104	1
128	130	2
27	38	1
59	62	1
142	142	2
79	80	1
27	27	3
108	108	3
111	111	1
121	122	1
53	55	1
19	20	1
139	139	1
0	48	1
144	145	1
26	27	1
118	120	1
66	67	1
34	34	1
77	77	1
113	116	1
54	55	2
101	102	1
63	66	2
2	34	1
76	79	1
74	80	1
128	128	1
29	29	3
87	92	1
60	99	1
98	98	2
105	105	2
56	56	1
77	79	1
130	144	1
128	132	1
19	47	1
106	107	1
113	115	1
1	1	1
38	38	1
137	137	2
84	85	1
134	134	1
39	40	2
58	110	1
6	6	1
121	130	1
102	102	1
80	80	1
83	83	1
22	28	1
88	98	1
84	84	1
16	16	1
47	47	1
14	17	1
43	120	1
32	33	2
31	32	1
110	112	1
91	124	1
119	119	1
8	19	1
126	127	1
3	4	1
70	82	1
67	104	1
139	140	2
20	21	1
47	59	1
117	133	1
71	71	1
14	31	1
66	73	1
138	139	1
3	24	1
86	86	1
61	61	1
110	120	1
13	14	1
6	26	1
