83	83	2
117	117	2
89	89	3
14	14	3
103	103	1
99	99	2
53	53	1
114	114	3
126	126	3
26	26	4
149	150	1
121	121	2
130	130	2
156	157	1
60	60	1
6	6	4
131	131	1
78	78	2
68	68	2
17	17	1
186	186	1
15	18	1
144	149	2
79	79	5
189	189	1
157	158	2
0	0	4
163	163	1
48	48	6
139	175	1
180	180	1
164	164	2
107	107	1
168	170	1
13	47	1
154	154	3
100	101	3
110	111	1
91	91	3
123	123	2
23	31	1
8	8	2
97	97	1
56	56	2
33	34	2
30	32	1
141	154	1
177	185	1
38	38	3
18	19	1
85	85	1
144	144	3
25	25	1
106	107	2
45	46	1
7	7	3
179	179	3
28	32	1
26	27	1
23	35	3
73	73	1
138	138	2
139	139	2
60	62	1
94	94	1
155	158	2
118	118	1
102	115	1
81	151	1
86	86	3
169	170	1
55	55	2
126	128	1
74	75	2
15	16	1
176	177	1
10	10	1
96	96	2
159	160	1
33	33	2
2	2	2
103	108	2
76	77	1
170	170	1
136	137	1
39	39	1
140	140	3
176	176	2
145	145	1
110	110	1
113	116	1
159	165	1
130	131	1
148	150	1
45	45	1
4	5	2
160	161	1
84	84	1
89	170	1
181	182	1
141	141	5
155	155	2
130	139	1
84	168	2
150	174	1
72	72	1
106	106	1
46	46	2
71	71	1
169	169	1
20	20	2
185	185	3
54	54	3
38	40	1
112	112	3
48	74	1
77	77	3
75	152	1
128	128	2
167	167	2
35	36	1
56	57	2
171	172	1
173	174	3
57	57	2
95	95	1
151	151	3
18	18	2
173	173	1
168	168	3
75	99	1
129	139	1
72	80	1
129	130	1
108	108	2
90	90	1
27	27	1
22	22	1
20	21	1
57	58	1
94	171	2
127	127	1
122	123	1
119	140	1
134	134	2
100	100	1
16	17	1
189	190	1
66	66	1
81	81	2
53	54	1
70	70	1
80	81	1
174	174	1
168	169	1
33	45	1
57	117	1
90	91	1
125	125	1
186	187	1
105	105	1
8	23	2
44	74	1
148	148	1
24	24	1
160	187	1
64	67	1
159	187	1
151	152	1
19	19	1
174	175	1
1	2	1
119	143	1
78	79	1
136	174	1
40	40	1
159	159	1
28	29	1
67	67	1
88	170	1
47	164	1
190	190	1
129	129	2
9	9	1
16	16	1
23	26	1
136	136	1
182	183	1
164	167	1
6	25	1
23	27	1
38	106	1
181	189	1
180	186	1
177	186	1
167	168	1
124	124	2
120	144	1
57	62	1
28	28	1
109	109	1
133	133	1
