129	129	2
167	169	4
95	101	1
128	128	2
153	153	4
80	153	2
96	119	1
90	98	2
76	76	2
154	157	1
8	8	3
99	99	1
137	137	5
100	101	1
159	159	1
142	151	1
20	21	1
158	158	3
112	125	1
126	126	2
150	161	1
64	64	1
123	126	1
13	14	2
50	54	3
64	66	1
23	25	1
117	120	2
150	150	3
10	11	1
68	68	2
142	144	1
47	47	4
95	133	1
13	26	1
151	157	1
55	55	7
157	160	1
79	104	2
47	79	1
107	107	5
54	54	1
7	7	2
20	53	2
168	169	4
168	168	5
14	14	2
23	23	2
143	155	1
129	158	1
44	44	2
103	105	1
48	48	5
124	130	1
169	169	2
131	134	1
116	167	1
11	12	1
135	163	2
139	140	1
25	51	1
48	49	1
140	144	2
19	22	1
6	7	3
1	1	2
107	136	1
124	124	1
11	11	2
137	139	2
21	24	1
38	38	2
167	170	4
98	99	1
145	147	2
15	15	6
0	0	2
40	116	1
44	64	1
143	146	1
139	139	3
154	156	1
145	145	2
37	37	3
141	141	4
42	42	4
134	136	1
3	5	1
73	74	1
52	52	2
75	75	2
144	145	1
101	125	1
125	125	4
69	69	1
13	13	4
17	138	1
46	46	2
17	19	3
74	75	2
71	71	2
88	89	2
165	165	2
4	6	1
113	114	1
149	149	4
105	105	2
156	156	6
141	143	1
6	147	1
150	160	1
69	72	2
170	170	3
22	22	3
82	82	3
3	100	1
163	164	2
90	95	1
7	9	1
98	98	1
140	141	1
20	20	2
143	150	1
116	116	1
26	26	4
87	90	1
39	39	3
5	20	1
115	115	3
110	122	1
102	102	2
84	84	1
16	25	1
110	110	2
73	73	2
47	48	2
3	3	2
134	134	1
6	6	4
42	43	1
98	102	1
45	45	2
155	159	1
49	50	1
83	84	1
140	143	1
161	161	1
66	67	2
21	21	4
8	9	2
119	121	1
89	89	2
17	20	3
89	91	1
82	83	1
160	160	3
81	81	1
138	139	1
65	77	1
166	167	1
151	152	2
49	49	1
109	168	1
12	12	1
7	44	1
9	9	1
153	158	3
149	151	2
139	142	1
111	114	1
19	19	3
2	120	1
117	118	1
58	62	1
142	142	2
103	106	2
152	153	1
155	165	1
129	130	1
42	45	1
157	158	1
39	45	1
5	5	3
144	169	1
3	15	1
50	50	2
26	36	1
72	72	1
134	154	1
107	108	1
139	159	1
35	35	1
101	101	1
117	117	1
137	141	1
94	94	4
100	126	1
124	126	1
41	41	4
107	110	1
162	162	1
127	152	1
7	10	1
50	69	1
108	108	1
40	41	1
16	16	1
92	92	2
111	113	1
51	51	2
126	130	1
130	130	1
23	49	1
135	135	1
140	140	1
40	40	2
104	116	1
138	138	3
68	121	1
131	131	2
153	164	1
94	114	3
83	83	1
95	97	1
160	168	1
152	152	1
85	88	2
76	78	1
97	99	1
33	33	1
138	144	1
0	10	1
91	105	2
38	39	1
155	155	1
135	136	1
18	18	2
34	34	3
25	28	1
95	95	1
127	127	1
104	118	1
16	18	1
2	6	1
169	170	1
159	160	1
115	123	1
146	167	2
97	97	1
78	78	1
100	160	1
3	108	1
137	149	1
27	28	1
70	70	1
66	86	1
68	70	1
57	57	2
111	111	1
4	112	1
2	2	1
36	36	2
132	150	1
68	97	1
77	77	1
46	49	1
95	96	1
25	44	1
166	166	1
46	170	1
106	106	2
80	80	1
118	118	1
91	91	1
85	85	3
2	110	1
115	116	1
109	118	1
161	162	3
87	87	1
84	130	1
90	90	1
3	43	1
163	163	4
133	133	1
119	140	1
112	168	1
104	106	1
73	76	1
104	104	1
146	154	1
139	158	1
10	12	2
88	88	2
27	27	3
126	127	1
137	138	1
123	123	1
23	24	1
89	90	1
5	6	1
144	144	1
85	87	1
143	143	1
4	90	1
111	147	1
154	155	1
11	45	1
155	156	1
103	103	1
105	107	1
91	93	1
151	151	1
88	91	1
22	23	1
49	54	1
127	128	1
51	54	1
19	21	1
158	166	1
102	103	1
76	101	1
9	10	1
11	105	1
146	149	1
12	135	1
24	137	1
24	44	1
135	142	1
120	125	1
6	25	1
17	18	1
164	164	1
7	8	1
