176	180	1
248	248	1
220	220	2
82	82	6
234	234	5
23	23	4
111	116	1
91	91	2
16	16	1
183	183	3
9	10	1
112	112	5
237	238	1
206	207	1
58	58	2
85	97	2
207	207	2
88	88	1
199	199	2
61	61	1
76	77	3
53	53	2
43	43	3
57	57	2
172	172	1
119	119	1
40	40	2
198	198	1
208	208	2
105	105	2
233	244	2
162	162	2
150	154	1
28	28	3
12	12	1
224	224	1
55	55	3
228	228	2
216	216	5
32	32	4
228	229	3
241	241	5
8	8	2
77	79	1
195	195	3
46	47	1
154	155	1
30	30	2
63	63	1
90	110	2
44	44	2
48	48	6
81	83	2
229	229	2
80	83	2
7	156	1
2	23	1
226	226	5
71	72	1
238	239	2
111	111	4
72	72	2
26	26	4
219	219	3
35	35	3
163	166	1
230	232	1
178	194	1
239	239	2
21	24	1
29	30	1
180	204	1
1	1	3
24	24	1
46	46	2
210	211	2
181	208	1
191	191	1
226	227	2
150	245	1
224	226	1
49	50	1
185	185	3
60	60	2
41	41	3
154	154	4
175	176	2
117	117	1
237	239	3
209	232	1
210	216	2
156	156	3
196	207	1
163	209	1
103	103	2
73	73	2
221	228	1
180	180	1
171	171	2
44	45	2
12	48	1
7	7	1
160	160	1
71	102	1
102	104	1
69	69	1
31	31	2
106	106	1
71	71	3
66	99	1
47	47	4
25	26	1
85	117	1
167	167	6
153	153	2
92	92	1
173	174	1
241	247	1
76	76	1
62	62	3
27	27	2
79	79	1
213	213	1
67	90	1
163	198	1
95	101	1
240	240	5
161	184	1
181	184	1
191	192	2
8	113	2
243	243	4
116	119	1
21	21	3
162	185	1
5	230	1
221	221	1
235	235	1
181	181	3
215	215	4
177	177	4
90	94	1
147	152	1
184	184	1
82	83	3
233	233	1
217	217	3
176	176	1
97	98	2
232	232	2
50	76	2
44	52	1
200	200	4
3	226	1
170	170	2
159	159	1
110	110	2
46	234	2
201	201	4
208	214	1
54	59	1
201	202	1
57	59	1
89	89	1
114	114	2
33	61	1
64	64	3
32	38	1
38	38	3
13	14	1
238	238	2
208	243	1
235	242	1
72	82	1
212	212	1
46	68	2
115	115	2
163	164	1
4	4	2
225	226	1
53	152	1
19	20	1
14	15	2
236	236	2
240	242	1
87	87	2
2	2	2
30	34	1
229	231	1
157	157	1
227	227	1
26	45	1
45	45	2
29	29	1
104	105	1
186	186	2
28	32	1
242	242	2
32	33	1
66	66	1
22	22	4
4	18	1
42	42	1
193	193	1
51	51	2
190	192	2
177	190	1
4	5	1
180	196	1
176	190	1
225	239	1
67	110	1
53	54	1
32	87	1
50	243	1
26	40	1
65	65	1
49	49	2
200	202	1
194	196	1
203	203	2
76	78	3
197	197	2
244	244	1
71	115	1
209	209	1
34	34	1
116	117	2
25	25	1
187	187	1
24	225	1
214	214	2
202	202	2
98	98	1
43	44	2
247	247	2
194	218	1
15	15	1
36	36	2
182	183	1
223	242	1
218	219	1
46	203	1
14	14	1
43	90	1
227	230	1
156	157	1
111	113	1
231	232	2
46	93	1
22	23	1
77	77	3
165	165	1
214	216	1
224	234	1
144	144	1
81	81	2
72	80	1
40	52	1
113	114	1
21	22	2
51	152	1
39	40	1
152	163	1
52	52	1
3	35	1
109	109	1
11	16	1
100	100	2
104	104	1
19	19	1
116	116	3
159	176	1
209	242	1
95	182	1
147	226	1
58	76	1
184	207	1
113	113	1
247	248	1
212	213	2
246	246	1
209	238	1
70	70	1
240	248	1
225	225	1
147	156	1
198	246	1
196	196	1
73	82	1
17	39	2
75	76	1
84	85	1
8	9	1
222	233	1
86	87	1
3	229	1
90	90	1
164	190	1
196	210	1
107	108	1
205	205	1
48	97	1
175	177	1
54	54	2
166	206	1
20	31	1
52	110	1
187	188	1
204	204	1
115	117	1
103	108	1
35	41	1
6	7	1
87	90	1
5	30	1
199	232	1
114	115	1
18	18	1
213	217	1
82	95	1
164	165	1
190	190	1
69	74	1
