22	23	1
79	79	1
88	88	2
104	113	1
46	47	1
22	22	4
82	84	1
72	72	2
36	36	1
152	152	2
103	111	2
151	151	2
9	26	2
48	52	1
65	65	2
116	116	2
81	83	1
109	109	2
9	83	1
150	151	1
3	7	1
87	94	1
72	73	1
149	149	3
20	21	1
93	94	1
47	48	3
100	100	2
121	121	3
3	152	1
77	77	5
132	132	2
7	9	1
145	147	1
129	130	1
39	39	2
8	8	2
145	145	2
52	100	1
121	137	2
30	30	4
96	109	1
124	124	4
50	73	1
117	149	1
122	148	1
74	75	3
134	134	6
110	128	2
11	11	3
4	5	1
141	141	2
57	57	3
101	104	1
47	47	3
70	70	3
137	137	2
108	109	2
55	56	1
117	130	1
143	144	3
30	141	1
29	29	2
24	24	4
5	5	2
8	32	1
63	63	1
16	16	4
140	140	1
107	107	2
106	106	2
78	81	1
32	32	1
109	110	2
144	144	1
98	99	1
17	38	1
104	104	1
139	139	1
110	110	1
84	85	2
73	73	1
81	81	4
33	36	1
48	48	6
137	144	3
42	42	3
17	19	2
138	148	1
114	117	2
134	149	2
147	148	1
28	29	1
147	147	1
112	113	1
99	100	1
144	146	3
14	15	2
51	52	1
53	53	4
88	104	2
118	118	3
150	150	3
80	87	1
68	73	1
21	23	1
11	38	1
50	53	1
128	128	1
8	9	1
94	96	2
138	138	1
97	97	2
113	120	1
43	44	1
94	105	1
13	15	3
3	5	1
148	148	2
69	70	1
71	71	1
106	113	1
10	10	1
19	22	2
68	68	2
28	28	1
88	89	1
129	129	3
93	99	1
15	77	1
4	6	1
35	36	1
41	41	1
105	105	3
65	66	1
45	46	2
126	126	1
45	45	2
29	141	1
121	122	1
136	136	2
23	122	1
22	25	2
97	99	1
77	106	1
136	144	1
106	109	1
125	126	1
24	31	1
62	62	1
9	10	1
84	87	1
153	153	1
98	101	1
146	146	1
50	50	1
48	49	1
43	43	2
110	116	1
24	25	2
101	101	2
40	40	2
119	119	3
83	83	1
6	9	1
19	21	1
113	113	3
90	96	1
63	64	1
114	120	1
31	70	1
52	53	2
75	78	1
21	25	1
31	31	1
19	24	1
108	128	1
110	115	1
72	79	1
66	67	2
87	87	1
37	39	1
18	19	1
124	143	2
125	125	1
111	111	1
93	97	2
44	107	1
107	109	1
7	7	1
42	43	1
82	82	1
66	66	1
13	135	1
135	136	1
95	97	1
12	12	2
3	3	2
103	110	1
137	139	1
112	112	1
130	131	2
135	135	2
12	13	1
117	118	1
131	131	3
122	122	1
14	14	2
95	96	1
154	154	1
64	66	1
35	35	1
96	96	1
26	26	2
87	92	1
30	34	1
114	114	1
9	9	2
105	109	1
81	82	1
17	37	1
19	19	1
39	40	1
51	51	1
107	108	1
96	146	1
117	117	1
85	85	2
55	99	1
132	137	1
146	147	1
64	67	1
62	64	1
58	58	1
76	82	1
79	118	1
41	96	1
10	11	1
144	147	1
75	75	1
13	13	1
64	64	1
108	110	1
123	123	2
44	133	1
42	45	1
19	23	1
49	49	1
83	84	1
44	44	1
133	133	1
134	138	1
133	134	1
