0	0	9
60	61	4
71	73	2
120	120	5
39	39	11
168	168	23
23	23	28
111	112	1
20	20	9
133	169	1
102	102	5
67	68	3
40	42	1
3	4	1
195	197	2
46	46	17
94	94	3
58	59	2
36	37	7
17	63	1
4	21	1
167	168	2
21	80	2
43	43	14
19	19	19
110	110	9
159	162	3
187	187	11
17	40	1
69	72	1
169	177	1
11	12	7
89	90	1
147	169	1
167	167	15
145	145	6
17	41	2
140	140	10
181	193	1
94	97	2
134	194	1
33	35	2
5	5	17
55	56	2
25	25	14
5	21	1
37	37	26
9	10	1
123	124	2
146	146	13
43	44	8
188	188	8
143	143	9
38	119	1
53	53	12
20	22	2
29	29	9
18	18	15
51	51	8
153	153	7
42	43	8
99	99	14
171	171	8
11	11	17
49	49	9
150	150	9
8	8	12
88	106	1
151	170	1
131	131	7
159	159	14
144	144	12
18	19	6
4	4	12
12	12	13
24	38	1
184	184	14
26	27	10
67	67	7
156	157	2
165	165	5
24	24	12
139	141	3
137	137	8
17	17	13
50	50	6
30	30	15
19	20	3
65	65	7
41	41	8
63	65	2
124	124	8
58	58	5
166	166	6
45	45	21
145	160	1
68	68	11
22	22	13
40	40	14
155	155	11
136	136	9
84	84	5
13	70	1
1	7	6
62	64	1
1	2	9
134	135	5
13	13	20
56	58	1
32	37	2
38	38	16
136	160	1
36	36	16
45	46	6
89	89	5
176	189	1
182	182	13
128	128	8
59	65	1
147	147	10
30	31	9
187	189	1
174	181	1
152	154	1
193	193	12
169	169	9
31	71	1
171	183	1
5	6	4
174	176	2
14	14	19
71	71	10
134	156	1
39	56	1
125	126	2
141	141	15
2	2	19
141	142	1
105	105	5
119	119	9
11	33	1
15	16	4
37	38	3
118	118	4
44	178	1
154	154	17
10	57	1
63	75	1
82	85	1
64	71	1
123	151	1
171	172	5
44	44	17
158	162	3
42	42	10
86	86	3
69	69	12
186	194	2
96	96	5
134	134	7
116	116	7
15	15	14
121	121	8
34	35	9
16	17	4
156	156	14
115	116	1
137	138	2
58	60	2
170	170	6
113	113	4
193	194	4
53	125	1
197	197	11
133	134	2
7	7	13
11	169	1
133	133	8
181	181	9
74	74	3
151	152	2
9	88	1
10	10	12
186	186	13
32	32	17
3	3	21
27	79	1
23	24	3
43	47	1
183	184	2
125	131	1
189	189	8
150	160	1
0	2	2
15	44	2
64	65	1
109	109	7
48	49	4
6	6	10
34	34	17
62	62	3
55	55	2
194	194	5
179	191	1
148	148	5
108	125	1
147	150	2
35	36	4
127	151	1
152	152	5
4	132	1
114	114	8
172	172	6
29	33	2
180	180	7
173	173	13
158	159	6
138	138	12
174	174	9
17	21	1
141	151	1
185	185	16
12	13	3
79	114	1
126	128	1
86	94	1
150	151	4
190	191	2
64	64	6
111	111	5
102	103	4
11	15	2
176	176	9
159	164	2
172	190	1
44	142	1
48	48	7
99	112	1
122	122	5
104	104	1
47	72	1
26	26	7
31	31	13
161	161	5
10	11	4
102	104	2
25	31	2
33	197	1
9	15	1
33	33	17
21	29	1
29	31	1
163	165	4
56	57	1
177	177	12
61	62	3
83	89	2
13	14	4
87	87	8
54	54	8
9	177	1
36	39	2
137	147	1
107	107	8
115	115	4
87	88	6
131	194	2
171	184	2
104	105	4
57	57	7
178	178	6
108	108	8
88	89	1
29	30	6
21	21	13
45	69	2
108	109	3
40	41	12
1	1	9
149	160	1
143	144	3
138	194	1
47	48	2
61	61	6
24	25	8
194	195	6
84	86	1
173	174	1
112	119	1
117	117	5
5	31	1
5	24	2
123	123	5
158	158	17
149	149	7
164	165	2
59	59	5
0	1	4
72	72	9
162	163	1
179	179	5
48	118	1
157	157	10
173	175	2
80	80	4
170	172	1
149	178	1
187	188	4
45	130	1
157	158	2
192	192	11
154	193	1
178	192	2
100	100	8
183	183	11
41	42	4
47	47	7
9	9	16
15	24	2
149	150	1
7	8	8
24	26	2
28	28	4
37	73	1
32	36	3
139	139	12
127	127	10
81	84	1
20	21	2
42	44	1
139	170	1
99	102	1
170	183	2
176	180	1
103	106	1
59	60	1
169	170	4
17	188	1
41	44	2
160	161	4
39	40	2
43	187	1
66	66	10
17	128	1
27	28	4
135	135	4
53	191	1
146	149	3
162	181	1
112	112	10
35	35	11
38	58	1
59	88	1
164	164	10
13	43	2
161	162	4
66	71	2
143	146	2
11	14	2
10	14	1
113	124	2
130	130	5
118	119	5
17	18	3
165	166	3
4	20	1
132	132	2
147	154	1
46	47	8
162	162	4
75	77	1
60	60	6
67	98	2
126	129	2
186	193	1
162	165	1
76	76	2
143	176	1
30	36	1
125	125	5
4	11	2
24	27	1
31	120	2
20	26	1
160	160	8
23	41	1
142	143	3
138	149	1
7	30	1
96	109	2
137	160	1
181	182	6
196	196	14
31	32	5
163	163	7
74	76	3
66	100	1
40	152	1
5	16	1
178	179	4
4	24	1
85	96	1
1	3	2
70	71	2
83	85	1
94	96	1
41	72	1
49	50	1
19	21	1
162	164	1
29	36	1
33	37	3
58	80	1
32	33	3
156	195	1
14	15	3
33	136	4
146	151	1
43	45	1
159	172	1
13	39	1
11	19	1
160	170	1
154	157	2
2	3	6
129	129	5
51	52	1
86	89	1
70	70	5
163	169	1
5	9	1
151	151	8
191	191	3
158	160	3
23	26	2
13	72	1
12	45	1
106	106	1
97	98	2
76	81	1
126	126	3
52	107	1
146	148	3
56	56	5
167	179	1
144	190	2
38	43	1
47	69	1
190	190	12
168	192	1
166	167	1
191	192	2
14	42	1
171	188	1
120	122	1
6	8	2
28	36	3
87	89	1
52	52	8
195	196	2
44	46	2
14	47	1
107	158	1
62	63	2
20	24	1
9	58	1
61	105	2
175	175	1
73	73	8
103	103	4
37	43	1
66	70	1
77	77	3
100	139	1
16	62	1
164	166	1
118	150	2
176	177	8
69	70	3
154	172	1
93	93	3
44	197	2
14	44	1
160	194	1
16	188	1
59	61	1
117	120	1
19	23	2
155	165	1
44	123	1
156	186	1
88	88	2
173	192	1
28	29	8
82	82	4
146	147	3
1	24	1
183	185	1
113	114	1
58	125	1
73	98	1
98	99	2
186	187	2
97	97	4
33	65	3
171	177	1
21	155	1
53	129	1
142	142	5
109	111	2
44	45	4
10	15	1
138	196	1
16	16	5
134	136	1
31	38	1
3	86	1
81	82	3
25	27	1
15	45	1
0	11	1
185	191	1
137	139	3
174	175	3
17	34	1
79	79	4
21	28	1
15	139	1
165	167	2
6	38	1
151	195	2
66	67	2
49	65	1
13	38	2
159	176	1
181	187	1
105	106	1
157	168	2
114	139	2
99	139	1
120	197	2
8	19	1
71	110	1
148	165	1
21	22	2
182	183	8
195	195	5
10	170	1
117	118	3
30	32	2
96	102	3
3	28	2
63	78	1
31	36	1
3	34	1
20	31	1
31	33	2
73	87	2
8	31	1
54	55	2
144	146	1
182	193	1
6	104	1
8	9	1
132	135	1
27	27	7
61	70	1
112	114	3
115	152	1
5	14	1
144	145	2
110	111	2
44	85	2
144	159	2
78	79	3
12	16	1
44	47	2
56	62	1
136	142	1
101	101	1
59	129	1
115	122	1
45	47	1
122	149	3
25	41	1
120	121	2
34	181	1
85	86	1
76	77	1
116	152	1
129	130	3
28	30	1
37	69	1
61	63	1
185	186	4
168	182	2
25	33	1
63	63	6
57	58	1
15	155	1
16	39	2
170	171	1
39	43	1
26	28	1
18	35	1
81	85	1
93	94	1
169	171	2
45	153	1
166	195	1
27	29	1
28	32	3
53	54	1
124	125	2
42	119	1
101	106	2
96	100	1
122	123	2
19	35	1
108	113	1
188	189	3
23	25	2
48	53	1
101	104	1
109	148	1
124	129	1
11	127	1
12	39	1
17	43	1
147	161	1
19	25	1
143	145	1
51	122	2
62	66	1
102	105	1
136	137	3
78	80	2
167	185	1
14	65	1
45	48	1
15	37	1
0	6	1
23	36	1
16	32	1
179	180	2
87	119	1
35	37	1
121	122	2
179	182	1
145	146	2
8	60	1
157	171	1
72	73	1
129	134	1
38	42	1
11	46	2
158	174	1
173	191	1
136	158	3
25	26	3
161	165	2
96	97	1
137	145	1
100	101	1
100	169	1
71	72	4
143	167	1
98	98	6
4	32	1
164	173	1
10	16	1
119	120	2
103	140	2
124	131	1
184	196	1
147	148	1
22	24	1
11	170	1
160	171	1
63	121	2
164	179	1
22	25	1
101	107	1
148	155	1
160	162	1
83	83	4
142	160	2
47	185	1
85	85	2
109	110	1
26	66	1
10	12	2
175	176	2
93	99	1
34	85	1
23	53	1
107	108	1
76	78	2
192	193	1
113	125	1
63	66	1
10	20	2
138	171	1
3	19	1
12	44	1
52	57	1
148	149	1
98	101	1
5	40	2
73	74	1
167	172	1
112	144	1
178	181	1
146	162	1
143	161	2
95	95	2
19	24	1
6	7	4
79	168	1
84	118	1
5	8	3
159	160	1
85	88	1
184	186	1
179	189	1
67	69	1
54	56	1
133	141	1
154	191	1
177	183	1
182	191	2
107	113	1
107	122	1
167	177	1
158	178	1
105	112	1
142	172	1
166	177	1
14	38	1
7	25	1
9	42	2
82	83	1
189	191	1
81	81	3
8	26	2
122	196	1
176	192	1
133	142	1
71	99	2
71	101	1
163	168	1
50	51	2
1	6	1
149	155	2
31	39	1
190	192	1
94	95	1
5	45	1
10	44	1
11	72	1
26	37	1
101	110	1
7	28	1
168	173	1
140	152	1
142	145	1
196	197	1
58	69	1
64	66	1
129	157	1
84	87	1
39	124	1
11	36	1
127	142	1
167	182	1
38	73	1
27	30	2
66	72	1
9	37	1
21	23	1
95	97	2
9	142	1
59	196	1
95	96	2
115	178	1
8	10	1
7	175	1
46	122	1
61	134	1
71	193	1
22	35	1
82	87	1
80	81	3
126	127	1
163	175	1
55	67	1
20	33	1
114	168	1
96	116	1
62	70	1
26	38	1
15	17	1
132	133	2
4	6	1
60	125	1
69	71	1
27	41	1
169	183	1
173	181	1
143	172	1
133	165	1
111	116	1
151	159	1
36	143	1
75	75	1
135	138	1
22	190	1
189	192	1
175	177	1
10	65	1
118	166	1
107	112	1
152	153	1
33	45	1
112	131	1
0	8	2
35	39	1
25	47	1
149	176	1
161	164	1
4	33	1
18	68	1
58	72	1
10	122	1
4	5	1
36	197	1
129	137	1
103	105	1
162	179	2
181	192	1
75	76	1
154	155	1
177	178	1
108	110	1
120	123	1
38	39	1
63	64	1
13	52	1
156	160	1
20	38	1
5	25	1
36	38	1
10	85	1
157	160	1
53	58	1
43	135	1
15	33	2
20	23	1
18	23	1
104	122	1
157	169	1
64	70	1
16	21	1
63	71	1
35	78	1
127	129	1
22	28	1
28	31	2
138	139	1
34	36	1
86	90	1
122	141	1
157	182	1
167	175	1
94	99	1
113	115	1
184	185	1
116	149	1
122	150	1
46	49	1
9	11	1
163	164	1
170	194	1
185	187	1
49	123	1
142	156	1
12	73	1
110	113	1
176	178	1
139	140	1
114	115	1
118	120	1
