33	33	1
11	11	2
8	16	1
18	23	1
84	87	1
5	6	1
83	83	2
53	53	2
119	119	5
103	104	1
111	112	2
63	140	1
69	69	2
65	65	4
93	137	1
105	109	1
125	125	1
9	9	1
93	104	1
10	10	4
134	134	1
45	45	4
39	39	8
118	118	6
138	138	5
8	9	2
48	48	6
39	40	1
106	108	3
78	78	1
145	145	5
73	74	2
16	26	1
22	22	2
113	114	1
23	23	2
124	124	1
96	96	5
150	150	5
54	54	4
106	114	1
124	125	1
99	99	3
126	126	2
115	145	1
15	15	4
43	43	3
38	39	1
26	26	2
24	37	1
68	69	1
64	67	2
11	12	2
113	121	1
149	149	1
128	137	3
41	43	1
25	29	1
147	148	2
2	2	3
77	77	3
103	106	3
114	141	1
7	8	1
107	107	6
20	20	3
154	154	2
153	153	2
57	57	2
14	15	1
128	128	4
135	147	2
123	123	2
19	35	2
69	84	1
67	67	2
21	21	4
78	80	2
95	105	1
77	114	1
132	133	2
50	50	3
70	71	3
141	143	1
77	79	2
18	18	1
94	94	2
141	146	1
105	105	1
44	44	2
36	37	1
116	117	1
95	97	1
4	4	1
78	79	2
70	121	1
40	40	2
75	85	3
47	47	3
44	135	2
50	51	1
13	15	3
108	108	2
30	30	1
142	142	3
46	46	2
85	85	2
12	12	4
139	139	1
108	109	3
143	143	2
82	85	3
152	152	3
19	19	2
150	151	2
114	114	1
75	93	1
70	122	1
125	127	2
64	64	1
84	84	2
70	102	1
63	64	2
100	101	1
24	24	2
97	98	1
109	113	2
118	130	1
74	83	1
111	113	1
135	135	4
136	136	3
23	122	1
81	81	1
115	115	2
72	75	2
64	65	1
10	20	1
133	135	1
29	118	1
107	108	3
5	121	2
66	66	2
115	116	1
148	148	2
11	42	1
62	63	2
52	52	2
49	49	1
66	76	1
6	6	1
133	133	4
38	73	1
11	21	1
130	130	1
127	127	1
14	14	1
36	41	2
48	153	1
26	27	1
46	47	1
98	103	1
113	139	1
22	27	1
63	63	3
6	35	1
147	147	1
54	56	1
119	121	2
13	13	2
38	38	2
68	68	2
106	106	1
17	37	1
20	31	1
72	131	1
17	17	3
22	24	1
107	109	1
25	26	1
85	86	1
5	5	2
116	116	1
120	120	3
72	73	1
132	132	2
36	36	1
74	74	1
131	131	4
26	111	1
32	32	2
67	68	2
140	140	1
35	35	1
54	55	1
10	12	1
37	37	1
106	107	5
31	31	1
24	54	1
86	86	1
41	41	1
23	24	1
27	29	1
76	103	1
65	69	1
123	124	1
129	129	1
61	61	1
110	117	2
36	111	1
73	89	1
19	22	1
72	72	1
69	71	2
33	35	1
103	103	2
143	144	1
87	88	1
56	117	1
18	19	1
77	78	1
101	102	1
100	100	1
73	84	1
109	109	1
97	99	1
19	20	1
76	83	1
104	104	1
47	123	1
40	41	1
27	27	1
133	145	1
34	34	1
21	22	1
62	62	1
13	17	1
151	151	3
145	146	1
102	102	1
58	72	1
35	36	1
86	87	1
126	127	1
66	74	1
109	114	1
81	82	1
130	147	1
125	128	1
28	28	1
121	121	1
127	128	1
57	58	1
15	16	2
37	39	1
25	25	1
