175	185	1
95	95	3
137	138	1
157	157	1
14	14	5
148	148	2
109	111	2
167	168	1
41	41	5
133	138	1
72	72	3
28	28	1
14	24	1
37	37	2
169	169	1
139	172	1
153	153	2
129	169	4
33	34	1
116	116	1
156	159	1
135	135	2
35	35	3
151	165	1
140	140	3
186	186	2
98	98	2
106	106	3
136	136	1
91	93	2
83	83	3
14	22	1
146	188	1
67	68	2
86	94	1
20	21	1
68	146	1
104	104	2
15	15	3
154	155	2
138	144	1
95	96	1
60	85	1
94	94	2
53	128	3
57	58	1
32	34	1
183	183	2
97	97	1
26	27	1
145	145	3
129	129	3
146	146	2
134	140	1
65	67	1
82	82	1
106	128	3
143	148	1
28	29	1
77	77	1
26	26	2
161	163	1
19	19	2
173	181	1
171	172	1
40	40	2
78	78	2
103	103	2
152	153	1
80	80	4
92	93	1
7	7	1
108	110	2
110	110	4
13	13	4
117	145	1
25	25	1
53	53	4
180	181	1
94	96	1
4	4	2
152	152	1
47	47	1
114	146	1
29	29	3
139	139	3
77	84	2
108	108	2
76	76	4
58	58	1
3	3	1
28	30	4
21	21	1
43	43	1
124	124	1
106	107	2
135	145	1
72	73	2
136	137	1
57	69	1
54	55	2
54	54	3
173	173	2
185	185	3
74	74	1
57	57	1
178	178	2
134	134	5
180	180	3
118	118	1
39	40	1
164	164	3
10	11	2
36	37	1
108	111	1
19	20	2
38	38	3
134	135	2
89	89	3
11	43	1
100	100	2
70	70	1
153	154	1
177	178	1
21	23	1
28	111	1
151	152	1
56	56	2
87	94	1
166	169	1
111	128	1
146	187	1
146	169	1
155	155	1
189	189	3
155	166	1
73	73	3
144	144	2
47	48	1
120	120	1
130	130	6
77	78	1
105	106	1
23	24	1
166	166	1
171	171	4
121	121	2
68	68	2
159	159	1
128	128	1
178	180	1
122	123	1
46	48	1
27	27	1
55	120	1
58	68	1
45	45	1
48	48	2
174	174	1
84	84	4
123	123	1
22	22	3
102	102	1
169	175	1
148	149	1
141	141	1
151	151	1
140	141	1
0	1	1
55	55	2
177	177	2
117	117	1
88	148	1
181	181	2
16	16	2
142	142	1
21	22	1
18	24	1
36	41	2
169	170	1
156	156	1
70	122	1
73	139	1
87	119	1
111	111	2
129	154	1
143	143	1
9	57	1
175	175	3
24	24	1
82	85	1
129	137	1
64	64	1
5	5	2
27	33	1
41	42	1
36	36	1
30	32	1
89	92	1
160	160	2
15	183	1
88	89	1
137	137	2
112	112	1
52	53	1
3	8	1
107	108	1
9	16	1
114	114	1
181	182	1
125	125	1
39	41	1
23	23	1
74	76	1
122	122	2
27	28	1
188	189	1
96	96	2
113	113	2
131	131	1
11	11	2
71	71	1
185	186	2
74	75	1
172	172	1
113	114	1
67	67	2
92	92	1
58	61	1
73	91	1
59	59	1
43	45	1
10	10	2
87	87	1
10	26	1
96	97	1
168	168	1
17	17	3
126	126	2
103	104	1
167	167	1
54	58	1
2	3	1
119	138	1
56	96	1
164	166	1
18	18	1
49	130	1
184	184	2
59	63	1
72	122	1
11	59	1
22	23	1
44	45	1
81	81	2
66	66	1
10	27	1
139	187	1
12	12	1
56	57	1
55	57	1
85	85	1
