172	172	4
166	166	2
226	226	2
228	228	1
15	15	2
162	162	2
29	29	4
168	169	1
14	15	4
159	159	3
32	33	2
43	43	4
15	16	3
32	32	2
76	76	1
106	106	1
163	163	2
118	118	3
155	155	3
178	182	1
10	10	2
224	225	3
235	235	2
205	205	2
80	81	1
121	121	2
71	71	1
188	188	2
200	200	1
201	201	1
39	39	3
11	11	3
168	168	3
7	8	1
241	242	1
161	165	1
103	122	2
123	123	4
26	26	3
120	120	3
114	114	4
96	97	1
31	58	2
24	24	2
63	63	3
156	157	4
19	19	3
152	152	1
179	180	1
33	33	1
28	28	3
21	21	1
185	186	2
184	185	2
76	81	1
99	99	1
30	232	1
61	62	1
60	128	1
43	44	3
148	149	1
115	123	1
215	215	2
146	147	1
230	230	2
210	210	2
53	53	2
71	72	1
4	4	2
175	175	5
170	171	1
202	202	2
236	236	1
203	203	1
81	84	3
167	169	1
174	175	1
70	70	3
170	173	1
72	72	3
3	4	1
55	55	3
79	79	3
45	45	1
180	183	1
150	151	2
169	169	2
82	82	1
125	125	1
49	71	1
209	209	1
155	156	3
218	223	1
142	143	2
25	25	1
21	22	1
221	221	2
24	25	2
95	95	3
204	204	1
102	127	1
231	231	4
113	113	3
223	223	4
196	227	1
171	171	4
68	68	2
9	9	3
128	128	3
180	181	1
89	99	1
176	176	4
75	82	1
137	144	1
28	29	1
156	156	2
181	181	1
141	151	1
116	117	3
107	108	2
160	160	1
59	59	1
54	54	2
14	18	3
154	155	1
15	25	1
13	156	1
105	129	2
86	86	2
171	175	2
184	184	3
8	8	1
103	103	1
56	56	1
204	216	1
52	80	2
73	73	2
76	79	1
56	59	1
12	12	1
200	204	1
149	149	2
176	183	1
118	119	1
109	109	1
164	165	1
31	31	5
145	145	3
174	174	1
190	190	1
146	146	1
136	136	1
30	30	2
1	2	1
8	200	2
0	22	1
46	46	1
137	139	2
118	192	1
1	23	1
37	180	1
34	34	2
180	180	2
153	155	1
173	173	3
237	237	1
45	111	1
136	142	1
230	231	1
191	191	1
102	111	1
221	223	1
64	64	1
101	101	1
134	135	1
163	164	2
48	48	2
20	20	1
132	132	2
215	216	1
33	110	1
135	140	1
70	71	1
186	186	2
135	135	3
163	167	1
77	80	1
182	182	1
105	105	1
155	160	1
66	66	1
100	100	2
42	42	1
118	193	1
232	232	1
84	84	1
61	61	4
134	134	1
6	8	1
38	62	1
177	177	2
179	179	2
115	116	1
140	141	1
18	49	2
7	205	1
60	60	1
105	111	2
212	212	1
0	12	1
149	152	1
51	53	2
115	159	1
154	163	1
207	207	1
137	137	1
194	196	1
202	203	1
111	113	1
80	80	1
144	144	1
102	102	1
111	111	2
62	82	1
130	130	2
72	83	1
85	85	1
152	153	1
194	195	1
165	167	1
151	151	4
236	237	1
103	114	1
64	65	1
179	187	1
112	113	2
20	36	1
0	1	1
22	22	1
49	49	1
192	192	1
122	122	1
54	108	2
98	98	1
214	214	3
129	129	1
40	41	1
105	128	1
14	14	1
14	21	1
225	226	1
104	106	1
186	187	1
156	166	1
52	152	1
218	218	1
43	61	1
140	142	1
144	145	1
55	61	1
38	180	1
139	139	1
47	48	1
149	178	1
238	238	1
58	58	1
168	172	1
29	30	1
40	40	1
193	230	1
74	74	1
72	75	1
161	161	2
122	124	1
10	23	1
195	195	1
65	68	1
109	127	1
75	85	1
0	0	1
116	116	1
165	179	1
195	199	1
153	153	1
38	38	1
217	217	1
163	165	1
160	161	1
1	1	1
127	127	1
175	178	1
73	78	1
47	47	1
