51	51	8
184	186	2
61	94	1
173	177	2
175	175	7
53	53	3
29	29	9
189	189	2
231	231	8
234	234	6
202	213	1
247	247	7
213	213	5
153	154	2
214	214	5
78	166	1
63	231	1
223	223	3
224	224	5
166	166	6
170	170	12
201	201	5
34	34	6
184	200	2
33	33	5
16	161	1
39	39	6
154	154	5
240	240	5
47	48	1
162	162	6
113	144	1
229	229	9
60	60	4
219	219	12
97	97	2
42	42	3
67	72	1
54	227	1
68	78	1
232	232	12
92	92	1
36	47	6
90	221	1
71	71	2
171	171	7
200	200	9
153	159	1
245	245	7
43	44	2
147	147	2
206	207	5
147	225	1
22	22	7
22	23	1
27	28	4
3	23	1
187	187	3
25	26	2
229	244	1
38	38	7
146	147	1
78	78	5
29	158	1
99	100	1
209	209	9
117	117	7
97	98	2
60	61	1
202	202	4
15	15	7
7	7	7
168	168	6
173	176	3
187	188	4
218	218	8
199	199	6
153	153	1
83	107	1
101	101	6
174	174	7
71	72	1
112	114	1
192	197	1
64	64	5
215	217	1
216	216	7
52	52	8
100	105	1
98	98	5
113	116	3
37	37	7
107	107	5
69	70	2
185	185	9
66	67	1
8	8	7
54	54	7
155	155	7
108	108	8
79	79	5
244	244	5
41	49	1
217	217	4
220	220	11
100	103	1
186	187	5
44	44	3
154	155	4
30	30	4
184	184	6
189	191	2
25	25	5
57	59	3
182	182	4
183	183	11
46	46	6
118	118	7
56	56	9
194	194	3
157	157	2
247	249	3
166	175	2
241	242	1
165	171	2
173	173	10
55	61	1
241	241	4
71	73	2
102	118	1
41	43	1
5	18	1
85	85	5
90	90	2
144	145	1
162	163	2
146	159	1
16	235	2
239	239	3
227	227	3
3	3	4
43	43	10
228	228	9
150	150	8
219	225	1
155	156	1
59	59	3
175	178	1
215	215	5
167	167	5
219	221	2
21	21	5
176	176	7
77	77	5
102	103	2
49	49	5
236	236	6
23	23	7
36	36	8
212	212	9
89	89	3
169	169	5
51	184	1
38	51	2
186	202	1
68	90	1
152	153	2
207	208	5
191	193	1
84	112	1
42	174	1
93	151	1
12	12	6
208	234	1
172	172	9
243	244	2
42	44	2
242	242	5
51	52	1
181	182	3
176	186	1
167	168	3
231	232	1
152	152	7
54	71	3
36	38	1
50	50	2
205	205	3
222	224	1
8	28	1
16	40	1
182	183	3
29	234	1
203	203	6
225	226	1
157	171	2
163	163	10
64	70	1
208	209	1
74	75	2
58	59	1
228	230	1
170	171	3
18	18	5
212	224	1
80	80	4
65	65	6
202	203	1
19	19	13
99	99	2
10	34	1
46	54	1
68	68	4
120	120	2
221	221	5
35	222	2
40	41	1
40	40	5
204	205	2
52	53	2
199	209	1
61	61	5
63	65	1
111	112	3
160	161	1
164	164	5
207	207	4
76	80	1
158	158	6
241	244	3
26	26	2
50	51	3
71	82	2
62	62	3
4	4	8
4	5	3
246	246	6
7	14	1
169	171	2
197	197	2
109	149	2
198	214	1
238	238	10
66	163	1
204	204	5
178	179	4
179	179	6
38	39	3
23	24	2
89	92	1
54	55	2
229	231	2
34	41	1
226	226	7
20	116	1
74	81	1
179	180	3
17	17	3
244	247	1
18	20	1
237	240	1
76	76	6
70	76	1
48	48	4
235	235	10
80	106	1
31	32	3
68	87	1
85	97	1
14	14	5
190	190	5
225	225	7
73	176	1
85	86	5
208	208	4
112	112	7
53	76	2
117	119	1
192	193	2
84	84	2
22	43	3
163	177	1
35	37	1
157	180	1
31	31	5
213	215	3
172	176	1
178	178	5
236	245	2
113	113	6
79	82	1
75	100	1
185	190	2
82	84	2
237	237	11
67	245	1
64	88	1
116	117	2
209	233	1
15	27	1
209	246	1
144	200	2
186	186	8
158	160	3
96	97	1
248	248	6
47	47	10
193	196	1
218	219	4
39	44	1
5	20	1
211	212	4
86	89	1
63	64	3
73	73	2
110	110	6
181	181	2
109	110	1
11	11	4
209	224	1
230	231	4
193	193	1
210	223	1
191	194	1
214	215	1
74	74	6
222	222	7
1	1	4
230	235	1
95	209	1
245	246	1
45	46	2
35	39	1
3	4	2
64	77	1
71	74	1
95	95	2
86	91	1
175	176	2
34	61	1
16	37	1
163	167	3
45	45	6
35	116	1
52	60	1
85	87	2
94	95	4
155	202	1
224	225	3
53	95	1
197	198	3
188	188	4
233	244	1
243	243	5
28	28	6
235	237	2
89	101	1
241	245	2
177	177	9
102	102	5
111	111	8
3	37	1
165	184	2
87	89	2
10	10	3
206	206	4
91	91	3
34	35	1
208	238	1
115	115	7
11	14	1
16	18	2
80	81	2
185	186	5
19	20	2
83	83	3
225	248	1
69	69	6
116	116	3
181	183	3
31	155	2
51	68	1
221	223	1
163	164	4
27	27	5
107	108	1
217	222	1
194	196	3
54	59	1
243	248	1
37	38	1
62	72	1
20	20	12
2	2	5
167	176	1
15	18	1
28	29	2
32	33	3
41	157	1
101	102	2
42	154	1
1	3	1
209	216	1
47	59	1
150	161	1
63	63	2
17	19	1
66	195	1
211	211	2
196	196	2
20	23	1
11	26	1
35	234	1
50	54	1
188	192	2
211	218	2
48	66	1
14	19	1
89	90	2
231	243	1
5	5	8
190	191	2
174	176	1
210	214	1
105	105	1
217	218	3
200	220	1
2	3	3
195	195	3
187	195	1
7	8	2
16	16	5
114	114	5
216	217	4
199	203	1
176	189	2
150	151	2
163	223	1
105	119	2
74	82	1
182	207	1
175	204	1
119	119	5
162	173	2
86	87	1
202	214	1
117	118	1
237	239	1
175	184	1
77	80	2
99	159	1
157	175	1
50	63	2
144	204	2
162	179	1
235	236	2
151	151	7
199	221	2
49	50	5
200	201	1
237	245	1
191	192	3
86	100	1
189	190	1
211	233	1
100	109	1
55	56	1
161	161	3
71	75	1
196	218	1
31	47	1
233	234	2
109	109	2
209	239	1
93	208	1
17	33	1
96	96	5
169	184	1
68	84	1
57	60	1
31	154	1
198	219	1
118	120	1
203	224	2
197	202	1
203	204	2
194	222	1
177	199	1
210	210	6
209	211	1
35	35	4
75	76	1
185	188	1
26	244	1
186	192	1
108	114	1
81	98	1
8	18	1
165	169	1
121	153	1
26	27	1
10	11	2
4	7	1
228	231	1
213	220	1
242	248	2
32	32	3
223	225	1
59	60	1
173	179	1
165	166	1
110	144	1
82	82	3
214	219	2
54	56	1
78	80	1
112	115	1
155	180	1
72	72	2
57	74	1
246	247	4
230	230	4
220	225	1
146	146	2
162	164	1
11	15	2
155	160	1
205	206	1
164	187	1
202	244	1
16	207	1
221	222	2
145	146	1
170	172	1
69	76	1
30	34	1
188	198	1
215	219	1
67	68	2
57	58	1
217	236	1
24	24	6
160	160	2
75	77	1
36	75	1
153	158	1
18	19	1
217	219	1
231	234	1
87	87	2
159	162	2
113	115	1
234	235	3
156	182	1
157	241	1
113	114	4
88	88	3
177	178	1
93	93	3
50	58	1
218	225	1
62	67	1
67	70	1
200	203	1
44	45	1
66	66	2
197	204	1
106	120	1
58	58	6
209	220	1
192	194	1
187	189	1
37	39	1
1	33	1
9	112	1
79	80	2
156	184	1
180	181	1
35	36	2
44	53	1
48	234	1
240	241	1
93	153	2
29	30	1
190	222	1
165	165	4
5	29	1
223	233	1
208	224	1
180	201	1
5	60	1
166	176	2
188	221	1
72	73	1
35	226	1
76	78	2
165	173	1
106	106	2
93	95	1
66	100	1
9	9	5
193	195	1
77	85	1
213	228	1
55	55	1
78	83	1
241	243	2
233	233	6
238	239	2
93	94	2
62	63	1
65	72	1
188	190	1
74	76	2
4	229	1
237	244	1
43	45	2
174	184	1
226	229	1
171	172	3
214	220	2
151	164	1
156	156	2
215	233	1
224	226	1
228	244	2
55	59	1
64	65	1
167	182	2
57	57	2
76	165	1
173	187	1
31	35	1
48	55	2
32	203	1
101	117	1
78	84	1
54	76	1
34	77	1
67	91	1
6	29	1
41	63	1
232	246	1
78	81	2
169	211	1
57	72	1
50	52	1
6	6	5
67	67	1
40	43	1
159	159	3
41	41	1
7	37	1
119	235	1
237	238	4
5	6	1
42	43	2
114	115	1
236	237	2
229	230	1
198	198	4
170	188	1
7	93	1
199	200	5
53	67	1
18	33	1
156	167	1
102	146	1
205	224	1
179	197	1
5	237	1
74	90	1
181	207	1
228	229	1
209	242	2
8	15	1
213	217	1
47	49	1
100	100	1
158	169	1
215	243	1
145	145	2
90	91	2
8	20	2
174	177	1
14	48	1
0	195	1
166	167	1
76	77	1
27	167	1
7	44	1
53	64	1
176	177	1
39	40	1
199	214	1
221	227	1
65	68	1
66	74	2
217	237	1
61	244	1
20	28	1
67	90	1
200	207	1
26	43	1
15	31	1
4	49	1
108	119	1
220	228	1
229	232	1
46	52	1
106	107	2
236	242	1
200	241	1
202	246	1
156	159	1
160	162	1
70	70	1
234	236	2
36	53	1
183	184	1
175	185	1
197	214	1
87	101	1
68	244	2
66	71	1
173	174	1
73	75	1
65	171	1
85	107	1
80	86	1
86	86	1
42	64	1
65	76	1
20	153	1
11	92	1
77	79	1
191	191	1
207	226	1
30	32	1
103	103	1
73	80	1
87	88	1
7	10	1
182	206	1
10	15	1
52	91	1
204	241	1
218	242	1
12	20	1
110	116	1
105	107	1
94	100	1
78	82	1
171	176	1
65	101	1
22	32	1
79	86	1
184	224	1
157	184	1
65	92	1
33	35	1
75	90	2
199	237	1
51	173	1
197	219	1
9	22	1
67	244	1
204	230	1
15	113	1
67	73	1
38	67	1
192	192	4
118	119	2
17	18	1
188	189	1
54	66	1
168	169	1
221	228	1
100	101	1
212	214	1
186	220	1
182	213	1
59	63	1
46	63	1
16	26	1
222	237	1
201	202	1
180	180	1
92	95	1
78	85	1
96	103	1
175	181	1
202	231	1
159	170	2
219	242	2
218	236	1
6	8	2
84	234	1
156	161	1
48	53	1
28	32	1
52	71	1
68	110	1
164	211	1
187	237	1
163	194	1
82	83	1
244	245	1
213	214	3
193	194	2
88	91	1
212	227	1
210	215	1
194	195	1
91	110	1
209	212	1
48	50	1
233	247	1
86	92	1
204	231	1
64	204	1
197	216	1
198	218	1
62	65	1
224	239	1
94	118	1
202	206	1
36	37	1
196	199	1
145	147	1
13	13	1
34	50	1
62	73	1
100	108	1
204	219	1
165	183	1
