79	80	2
29	42	1
94	94	5
25	26	1
91	91	6
38	38	5
149	149	7
90	91	2
29	29	2
24	119	2
36	37	1
81	81	1
113	113	3
125	125	5
126	136	1
154	154	2
34	34	7
90	90	7
106	106	5
2	2	2
2	3	1
78	78	3
80	81	3
95	96	1
11	12	1
117	117	3
37	38	1
111	111	7
27	27	3
67	67	6
86	86	2
127	127	5
87	87	5
151	151	4
4	24	2
146	146	5
119	120	6
135	135	3
140	140	3
134	134	6
128	129	3
68	68	3
96	96	3
154	155	3
7	8	3
136	136	4
82	82	4
18	18	2
138	138	6
79	87	1
120	122	1
31	36	1
123	123	3
129	129	8
69	69	4
132	147	3
12	12	3
50	50	1
26	29	1
104	104	7
128	148	2
121	121	1
88	89	3
101	102	1
66	66	3
94	95	2
40	40	8
22	22	1
133	138	1
151	152	4
53	53	5
1	2	1
114	114	4
131	140	2
152	152	8
147	147	4
132	132	2
44	44	3
121	122	3
11	42	2
70	70	5
31	31	3
56	94	1
105	105	3
82	89	1
120	121	2
114	115	4
77	77	4
100	101	2
51	51	4
141	141	5
118	118	9
49	51	1
83	83	2
108	112	1
100	100	2
32	33	1
9	9	1
63	64	2
139	140	2
110	111	2
142	143	2
135	136	1
72	72	1
68	71	1
131	131	2
124	124	4
123	125	3
103	103	4
80	82	1
95	97	1
0	105	1
46	46	4
72	73	2
137	137	3
47	47	6
148	148	6
136	139	1
124	125	3
128	128	1
157	157	5
101	101	2
97	97	1
15	15	3
85	85	2
7	7	3
71	71	2
20	22	2
113	114	2
28	69	1
11	21	1
77	127	1
131	143	1
28	29	2
0	0	3
34	35	2
0	27	1
73	73	2
6	23	2
107	134	2
5	5	3
48	49	2
21	21	2
99	99	4
19	19	3
150	150	3
10	42	2
50	151	2
130	130	3
49	49	3
46	108	1
82	83	1
141	148	3
4	4	4
144	148	2
98	98	3
62	63	1
158	158	5
26	26	3
45	46	1
93	93	2
53	55	1
8	8	3
64	94	1
7	10	1
123	124	1
123	127	1
57	57	1
44	45	1
75	140	1
35	35	2
36	36	3
52	54	1
115	115	1
40	41	2
79	91	1
39	39	4
139	139	2
119	137	1
126	126	1
109	109	2
84	85	1
23	131	1
13	16	1
6	6	2
146	147	1
32	32	1
129	130	4
96	97	2
20	20	3
110	110	2
119	119	2
23	23	3
31	32	2
16	17	1
156	156	1
126	144	1
107	133	1
63	63	2
109	110	1
88	88	3
118	119	4
104	105	1
23	24	1
61	94	1
133	133	4
0	1	1
3	3	1
108	108	2
95	95	1
111	126	1
125	126	1
128	130	1
36	133	1
6	150	1
73	152	1
130	131	1
31	39	1
154	156	1
97	98	2
10	20	1
94	96	1
78	114	1
47	50	1
52	53	2
64	111	1
107	107	4
116	116	3
117	118	2
126	131	1
128	131	1
110	121	1
48	48	1
115	117	1
131	132	2
122	125	1
145	145	2
92	92	1
56	56	1
122	122	1
144	144	5
143	143	1
65	65	1
135	138	2
30	64	1
12	13	1
75	75	2
67	69	1
2	128	1
43	43	1
145	148	2
103	105	1
25	27	1
92	93	1
155	155	4
104	132	1
3	4	1
11	11	2
99	100	1
13	13	1
42	44	1
7	29	1
77	136	1
15	16	2
14	14	1
82	86	1
55	55	2
115	125	1
26	27	1
8	9	1
32	137	1
49	53	1
17	18	1
29	30	1
148	159	1
24	37	1
132	134	1
106	107	1
148	149	1
41	41	1
119	122	1
127	132	1
132	133	1
42	42	1
32	39	1
126	143	1
120	120	1
89	90	1
64	92	2
76	76	1
38	39	1
95	113	1
35	36	1
51	52	1
46	47	1
85	86	1
157	158	1
87	88	1
98	129	1
153	153	1
103	104	1
