150	150	6
116	116	4
44	44	1
0	0	1
136	136	3
4	4	2
31	31	3
100	100	1
158	158	4
32	32	2
75	75	1
33	33	3
3	3	5
97	97	4
109	125	1
30	30	6
65	111	1
29	29	3
16	16	3
71	71	2
22	22	1
91	95	2
142	142	6
154	154	8
112	117	1
12	13	1
93	93	3
43	43	5
141	142	1
117	117	2
123	127	1
105	131	1
27	27	5
39	39	2
73	73	2
128	128	3
95	95	4
24	24	2
47	47	3
125	126	2
138	138	5
103	104	1
130	130	7
51	144	1
116	141	1
92	92	2
132	132	4
105	105	7
42	42	2
153	153	1
90	90	3
49	49	1
87	115	1
94	94	4
107	107	2
141	141	1
13	16	1
101	102	1
127	127	4
122	123	1
96	153	1
139	139	6
85	86	1
83	84	1
134	134	2
113	114	3
67	67	2
83	108	1
108	110	2
6	6	1
119	119	1
9	9	3
101	101	4
151	151	3
149	149	3
151	152	1
11	11	1
107	108	2
125	125	3
140	140	5
120	122	1
12	12	2
137	137	4
116	118	1
56	56	3
144	145	1
52	52	1
41	41	2
82	82	4
1	1	2
91	91	2
23	23	3
135	135	3
21	22	1
2	2	2
48	48	1
121	121	2
10	10	1
25	25	2
117	118	1
84	84	1
99	100	1
24	144	1
51	51	3
83	86	2
79	79	1
120	143	1
152	152	4
25	66	1
67	68	1
66	67	1
26	26	2
131	131	3
148	148	1
129	129	2
120	120	2
53	53	1
119	142	3
88	88	2
121	122	2
22	23	2
144	144	2
72	72	1
14	14	1
10	11	1
9	17	1
157	157	2
98	98	3
38	38	1
133	134	1
7	7	1
30	31	2
118	119	1
68	68	2
155	155	2
132	156	1
127	128	1
5	5	1
87	87	4
55	55	1
40	40	1
70	70	2
111	111	3
124	124	1
109	115	1
93	95	1
77	77	4
87	90	1
118	118	2
133	133	3
11	12	1
14	16	1
91	92	2
93	106	1
65	65	1
71	72	1
102	102	1
15	65	1
145	145	1
25	27	1
50	50	2
38	39	1
16	19	1
108	108	2
112	112	2
81	81	3
67	69	1
139	155	2
109	109	2
34	34	1
98	99	1
96	97	1
19	19	1
92	111	1
57	57	1
147	147	1
99	99	1
63	63	1
92	95	1
108	137	1
40	41	1
69	69	1
92	93	1
47	53	1
113	113	2
46	46	1
91	113	1
21	21	2
83	94	1
24	25	2
119	120	1
86	93	1
134	138	1
105	106	1
152	153	1
95	97	1
77	78	1
19	33	1
123	123	1
131	132	1
109	123	1
8	33	1
105	140	1
69	92	1
33	48	1
111	112	1
128	129	1
22	47	1
114	114	1
95	103	1
