25	25	13
153	164	1
190	190	9
20	20	7
10	13	1
28	30	4
138	138	3
14	15	3
42	42	2
184	184	12
188	189	3
17	22	1
93	94	1
21	21	5
152	152	11
29	29	1
46	46	3
171	171	4
103	103	13
13	13	10
187	187	4
144	148	2
78	78	6
148	166	1
125	125	5
87	88	1
146	146	8
97	98	1
140	140	9
79	81	2
136	136	4
22	23	2
48	48	5
138	139	1
98	103	1
122	151	1
32	35	1
83	83	2
147	148	1
7	7	7
110	110	9
174	174	13
175	175	6
74	74	5
19	20	1
24	24	6
38	39	3
47	48	2
184	186	1
40	106	1
28	28	2
18	31	1
165	165	2
37	37	5
149	151	1
71	72	3
17	17	3
6	6	7
118	118	3
170	170	6
154	154	9
147	147	7
188	188	6
181	182	3
153	153	6
93	93	2
132	134	2
137	138	2
96	97	3
23	74	1
71	71	8
185	185	5
120	120	3
110	123	3
88	95	2
139	178	2
134	135	2
107	108	1
15	15	4
2	2	11
155	155	4
82	82	3
95	95	5
116	118	1
67	102	1
17	18	1
42	48	1
15	16	3
160	160	3
47	47	6
61	65	1
32	32	3
164	164	3
79	79	7
174	184	2
99	100	4
32	155	1
123	123	6
163	164	5
106	106	7
109	110	5
178	178	5
59	59	4
180	180	3
22	22	4
37	42	1
87	95	2
6	7	2
18	19	1
117	140	1
82	83	2
76	76	7
165	183	1
80	82	1
59	61	1
119	119	3
101	101	5
121	121	5
27	27	3
145	145	7
23	23	2
19	19	3
123	148	1
128	148	1
94	94	2
80	81	3
47	124	1
16	16	5
89	89	6
104	105	3
99	99	6
21	22	1
58	59	2
177	189	1
158	158	7
44	68	1
112	117	1
84	140	1
70	71	1
184	185	3
164	167	1
10	11	1
114	114	4
124	124	9
151	185	1
127	127	4
39	75	1
36	46	1
30	30	2
130	167	2
171	172	1
4	5	3
189	190	1
4	185	1
173	173	2
43	43	3
183	183	2
86	86	4
145	150	1
143	143	5
96	146	1
12	20	1
92	94	2
19	178	1
98	98	3
1	2	2
56	56	5
151	151	4
153	155	1
128	154	1
52	52	1
8	8	6
129	129	5
31	33	1
38	38	7
80	80	2
37	38	1
135	177	1
0	10	1
72	74	2
142	145	2
114	116	1
157	158	1
101	105	2
20	22	1
90	90	2
4	4	7
89	120	1
122	124	1
15	165	1
45	45	4
122	126	2
4	9	1
122	122	2
103	119	2
148	151	1
58	58	2
77	78	1
101	102	2
75	75	3
84	85	2
41	41	6
176	176	4
64	69	1
186	186	12
69	69	2
14	14	3
47	85	3
133	133	2
150	169	1
119	120	1
107	125	1
0	0	7
10	26	2
11	11	2
73	73	5
189	189	2
6	185	1
96	96	5
16	33	1
26	27	1
100	101	1
61	61	3
46	47	2
97	97	4
34	34	4
137	137	2
26	26	4
169	173	1
5	5	7
112	112	6
102	120	1
128	128	6
106	120	2
3	3	4
147	166	1
113	114	2
144	144	4
77	77	7
159	164	1
42	43	1
181	183	1
164	165	4
12	12	4
145	146	2
110	174	1
113	113	5
122	136	1
172	189	1
81	83	1
174	175	2
65	66	4
40	40	7
144	145	1
87	130	2
44	47	2
111	111	1
13	37	1
7	140	1
61	64	4
139	141	1
5	16	1
33	33	1
80	141	1
43	44	3
9	23	1
151	154	1
9	9	2
53	53	5
27	44	1
134	137	2
166	166	4
155	170	1
9	10	4
164	178	1
54	76	1
18	18	2
10	10	6
173	174	2
142	142	2
35	36	1
153	154	2
143	144	4
64	64	1
98	100	1
48	53	1
54	55	1
12	53	1
52	53	1
181	189	3
32	33	3
68	120	1
5	6	3
167	170	1
68	68	2
5	170	1
63	64	1
73	74	2
117	117	3
39	39	9
84	84	4
98	99	2
88	106	1
78	79	1
34	35	1
25	41	2
112	113	1
76	77	2
81	81	5
140	142	1
25	26	3
156	156	4
130	134	1
124	125	3
155	156	1
179	180	5
110	111	2
34	37	1
182	182	2
105	105	6
130	130	6
92	92	3
3	4	1
158	183	1
111	112	2
177	178	2
38	143	1
139	157	1
91	99	1
88	88	3
117	118	2
76	130	2
85	86	2
104	104	1
187	189	1
15	41	1
39	54	1
24	25	2
118	119	3
35	59	1
141	183	2
65	69	1
0	1	2
60	76	1
100	100	1
85	85	2
109	141	1
57	57	5
142	163	1
177	179	1
154	155	6
54	54	2
36	37	4
6	160	1
98	104	3
140	145	1
48	144	1
185	186	1
42	44	1
159	159	6
112	114	2
159	160	2
23	53	1
44	44	3
28	35	2
123	128	1
84	99	2
63	63	4
23	24	2
26	42	3
66	67	3
42	45	2
144	168	1
180	184	2
73	76	1
139	146	3
133	157	1
131	131	2
111	113	1
53	57	1
48	85	1
11	36	1
104	106	1
0	29	1
170	186	1
150	150	2
32	37	2
109	111	1
126	127	1
148	149	2
35	44	1
163	163	4
55	55	5
125	126	1
141	154	1
11	12	1
57	88	1
10	24	1
114	118	1
133	156	1
6	12	1
148	148	2
60	63	1
169	170	4
16	17	2
56	86	1
90	92	1
116	116	2
11	98	1
60	60	1
126	141	1
70	70	3
169	169	4
81	111	1
162	162	2
122	123	1
45	125	1
89	109	1
167	167	1
33	48	1
111	132	1
56	75	1
115	141	1
122	154	1
139	139	5
133	134	1
34	36	1
105	107	1
90	107	1
157	157	2
5	184	1
111	117	1
67	90	2
133	158	1
76	115	1
29	32	1
97	104	1
183	184	2
8	23	1
54	57	1
64	68	1
25	75	1
141	141	2
108	109	2
72	72	2
79	89	1
112	148	1
23	28	1
13	14	3
119	124	1
138	165	1
78	146	1
68	79	1
115	119	1
89	107	2
93	95	1
152	187	1
147	149	1
169	188	1
62	65	1
149	149	4
2	3	1
60	62	1
37	187	1
142	148	1
153	185	1
79	85	1
102	102	1
177	177	2
108	108	4
31	36	1
10	21	1
47	66	1
1	1	1
123	137	1
13	27	1
85	103	1
107	107	3
85	96	1
12	34	1
65	65	1
74	75	1
28	145	1
128	151	1
61	63	1
22	28	1
102	103	2
166	167	1
167	168	1
86	88	1
109	109	2
92	93	2
71	73	2
176	177	1
61	97	1
175	178	1
94	95	1
164	184	1
181	181	2
24	175	1
26	48	1
166	169	2
77	96	1
129	130	2
152	160	1
0	143	1
35	35	1
144	152	1
5	35	1
83	109	1
24	76	1
143	145	1
110	119	1
170	173	1
29	34	1
35	41	1
168	170	1
114	115	2
106	110	1
103	106	1
148	176	1
126	126	2
26	38	1
66	66	1
14	18	1
146	148	1
129	142	1
81	146	1
100	105	1
6	78	1
178	179	1
149	164	1
77	80	1
67	67	3
179	179	1
91	94	1
23	37	1
186	189	1
32	34	2
115	115	1
75	123	2
3	24	1
88	89	1
150	161	1
135	138	1
4	39	1
146	183	1
97	103	1
116	135	1
84	103	1
46	67	1
58	63	1
30	31	1
168	168	1
89	95	1
60	72	1
40	48	1
103	109	1
73	185	1
4	184	1
127	129	1
126	128	1
124	189	1
155	166	1
54	60	1
144	175	1
102	104	1
135	135	1
44	45	1
175	177	1
156	165	1
16	20	1
112	161	1
70	90	1
139	170	1
101	104	1
123	124	1
37	39	1
27	29	1
167	183	1
36	36	1
89	146	1
164	174	1
168	172	1
180	182	1
67	68	1
61	78	1
87	87	1
2	75	1
134	134	1
180	183	1
91	91	1
33	44	1
120	121	1
140	141	1
