72	103	1
87	87	2
31	31	4
12	13	4
109	109	2
9	9	2
70	110	1
110	113	1
7	31	1
40	40	3
98	99	2
96	141	1
132	132	1
95	95	2
112	120	2
70	70	2
42	42	4
73	73	2
59	59	1
102	102	2
89	109	1
0	42	2
86	86	2
56	56	4
141	141	2
111	111	4
2	2	1
65	65	2
98	98	4
18	18	2
63	65	1
115	121	1
124	141	1
76	84	1
69	69	1
126	126	2
40	91	1
101	120	1
54	134	2
121	121	2
143	143	1
127	127	2
101	101	1
30	77	1
65	85	1
66	66	1
55	55	1
47	91	2
120	120	1
17	22	1
81	81	1
122	122	2
54	55	3
140	140	1
24	34	1
127	128	1
62	68	1
61	61	1
1	1	1
64	70	3
35	36	1
15	15	2
136	136	1
142	143	2
28	28	3
136	139	2
37	75	1
110	110	2
80	80	2
125	125	1
51	92	1
107	107	1
10	10	2
135	135	2
38	38	1
64	64	4
72	72	2
33	33	2
16	16	1
124	124	5
35	58	1
88	109	1
84	85	1
58	62	1
115	116	1
105	105	1
123	123	3
92	113	1
89	90	1
96	98	1
60	61	1
29	29	3
22	42	2
56	112	1
64	69	1
48	52	1
129	136	3
124	129	1
90	90	1
58	59	1
36	36	2
32	34	1
35	35	4
93	108	1
108	108	2
68	68	1
141	144	1
104	105	1
93	93	2
93	94	2
24	26	2
49	108	1
53	77	1
113	113	2
57	57	1
77	77	1
11	15	1
0	0	2
2	41	2
30	30	1
117	118	1
32	32	1
41	100	1
23	23	2
59	68	1
62	131	2
120	139	2
6	6	1
68	103	1
21	136	1
66	117	1
81	82	1
72	132	1
69	94	1
78	78	1
67	68	2
43	43	1
95	141	1
33	73	1
111	137	1
131	131	1
108	123	1
134	134	1
144	144	1
8	8	1
82	133	1
142	144	1
24	25	1
68	91	1
37	74	2
11	11	1
61	124	1
103	110	1
13	15	1
146	146	2
59	60	1
70	76	1
77	79	1
21	37	1
92	103	1
70	115	2
139	140	1
79	79	1
139	139	2
37	37	1
26	27	1
133	133	1
13	17	1
80	109	1
131	133	1
118	118	1
51	51	1
57	68	1
142	142	1
123	124	1
18	21	1
38	40	1
11	144	1
4	17	1
109	119	1
112	112	1
71	119	1
60	60	1
74	74	1
115	115	1
75	75	1
32	72	1
113	114	2
1	2	1
34	35	1
3	5	1
89	89	1
20	21	1
96	99	1
94	96	1
74	82	1
70	104	1
87	88	1
