149	149	1
39	39	3
153	153	4
2	2	2
11	14	1
84	84	2
152	169	2
28	28	1
91	91	5
22	26	1
69	83	1
21	21	3
137	139	2
168	168	1
109	109	1
38	38	1
133	141	1
82	82	1
26	27	1
65	65	2
36	36	3
12	19	1
148	148	3
96	97	2
167	167	4
23	23	4
13	13	2
106	116	2
12	13	1
155	170	1
145	146	1
72	75	3
162	170	1
46	46	4
145	145	2
7	17	1
144	157	1
15	23	1
96	106	2
10	41	1
104	107	1
22	22	4
100	106	2
76	76	2
68	69	3
156	156	3
67	75	1
7	12	1
50	50	5
28	38	1
153	154	2
53	54	1
118	135	1
0	6	1
75	75	1
37	37	1
70	70	2
152	152	3
11	11	1
25	25	1
81	91	1
86	115	1
82	95	1
73	75	1
134	134	4
111	132	2
40	51	1
140	155	1
137	140	2
10	13	1
114	120	2
13	20	3
90	105	1
34	50	1
156	162	2
143	147	1
41	41	2
1	157	1
15	27	1
35	35	3
40	40	3
87	87	2
41	43	1
144	144	4
119	129	1
56	157	1
143	143	2
162	164	2
166	166	1
139	161	2
82	94	2
24	46	1
161	162	1
146	163	2
37	41	1
40	42	2
89	89	2
69	69	1
78	83	1
122	122	1
151	151	1
71	78	1
165	166	1
44	44	4
2	3	5
15	15	1
161	161	3
52	52	1
67	70	1
94	96	1
50	51	2
159	161	2
97	97	3
92	101	1
150	170	1
76	81	1
63	65	1
35	37	1
143	144	2
159	164	1
169	169	1
164	165	1
90	90	3
54	65	1
122	139	1
24	24	2
136	137	2
11	17	1
44	52	3
161	163	1
108	119	1
42	58	1
125	125	1
47	58	2
5	5	2
126	126	3
6	10	1
141	161	1
55	56	1
135	140	1
140	140	2
127	127	1
27	28	2
142	144	1
104	104	1
135	146	1
27	27	3
16	16	2
157	157	4
3	12	3
47	47	1
6	11	2
73	89	1
113	118	1
83	83	1
160	160	1
158	158	2
76	90	1
149	154	1
139	140	3
20	20	5
87	102	2
67	80	1
81	109	1
23	24	1
106	111	2
36	42	1
63	64	1
150	150	1
118	155	1
118	129	1
2	11	2
95	101	1
45	47	1
98	110	1
49	51	1
120	120	1
94	94	3
158	159	1
12	17	1
121	121	2
136	145	2
136	156	1
94	95	2
112	115	2
128	128	2
19	35	1
108	108	3
143	145	2
15	50	1
138	142	1
49	50	1
77	84	1
116	140	1
48	54	1
74	85	1
156	165	1
11	12	3
146	146	1
138	138	1
122	129	1
149	165	3
48	50	1
155	155	1
64	64	1
72	72	1
7	14	1
42	45	1
132	132	1
107	107	1
97	99	1
45	90	1
7	10	2
5	10	1
115	115	1
91	102	1
68	111	1
155	156	1
117	125	1
163	163	1
70	71	2
79	80	1
4	5	2
99	103	1
1	1	1
105	106	1
14	14	3
132	158	1
4	10	1
40	43	1
90	94	2
9	9	2
120	121	1
118	137	1
157	158	1
86	90	1
141	145	2
19	21	1
147	147	1
22	23	1
61	73	1
73	85	1
81	81	1
145	151	1
0	4	1
98	98	1
88	100	1
157	163	1
110	110	1
51	51	2
48	69	1
123	148	1
36	37	1
64	116	1
116	117	2
41	42	1
49	49	2
117	134	1
38	39	1
57	67	1
35	42	1
82	100	1
78	78	2
38	49	1
159	159	1
124	124	2
154	166	1
136	136	1
7	9	2
67	72	1
100	113	1
5	14	1
9	22	1
26	34	1
136	139	1
157	160	1
75	91	1
71	76	1
154	155	2
56	62	1
124	125	1
139	153	1
47	49	1
28	34	1
110	111	1
118	120	1
40	41	2
107	109	1
106	119	1
120	126	1
8	28	1
139	139	1
148	149	1
139	149	1
114	114	1
137	149	1
132	145	1
150	151	1
101	114	1
142	146	1
57	64	1
165	165	1
98	99	1
135	149	1
83	84	2
130	150	1
0	13	1
6	6	1
100	100	1
68	88	1
127	137	1
123	127	1
129	131	1
28	35	1
147	148	1
115	126	1
140	152	1
62	62	1
49	52	1
6	9	1
130	133	1
43	46	1
86	86	1
105	120	1
93	93	1
128	133	1
53	53	1
83	89	1
1	14	1
10	48	1
76	97	1
116	116	1
95	103	1
54	55	1
6	7	1
5	17	1
51	67	1
132	133	1
146	150	1
146	147	1
