128	128	3
39	43	2
105	105	4
163	163	2
11	13	1
4	4	3
156	157	1
29	29	1
149	150	1
21	21	2
44	44	1
72	72	3
147	147	2
20	20	1
78	79	2
135	135	3
2	4	1
44	46	1
17	17	5
152	167	1
43	43	3
185	185	2
14	14	5
123	124	1
146	160	1
158	158	2
29	31	1
172	173	1
10	12	1
1	7	1
15	15	1
64	64	4
13	13	1
70	70	2
142	142	1
176	176	2
130	130	2
25	28	1
49	49	1
69	70	1
12	12	1
162	162	1
110	110	2
186	186	1
196	196	1
188	189	3
4	42	1
27	27	2
124	124	1
111	111	1
41	41	1
63	64	1
105	106	1
62	66	1
26	26	1
193	193	5
79	86	1
2	33	1
127	129	2
70	71	1
30	31	1
122	122	2
75	75	1
40	40	2
3	3	1
21	22	1
83	83	1
134	134	2
140	182	1
33	33	2
45	46	1
145	146	1
59	60	1
124	125	1
59	59	1
22	23	1
166	166	2
31	32	3
18	18	2
133	133	2
17	41	1
188	190	2
31	31	1
102	102	2
182	182	1
44	45	1
111	112	1
42	42	4
16	16	1
165	167	1
20	23	1
120	120	1
32	32	1
37	150	1
24	77	1
15	16	1
155	155	1
50	112	1
46	46	2
120	121	1
0	0	3
71	71	1
1	1	1
114	159	1
48	48	2
36	70	1
140	140	2
170	170	1
150	150	1
153	153	1
169	169	1
144	145	1
164	164	1
175	175	1
67	85	1
117	117	1
167	170	1
125	125	1
3	41	1
178	178	1
98	99	1
52	52	2
81	81	1
6	6	1
98	98	2
186	187	1
168	168	2
108	139	1
100	100	3
47	47	4
169	196	1
186	188	1
179	180	1
0	5	1
2	2	1
45	45	2
190	190	1
36	41	1
63	63	1
143	143	2
127	127	3
66	66	1
157	157	2
100	135	2
142	143	1
123	123	2
114	134	1
173	175	1
173	173	1
54	54	1
149	160	1
141	141	1
132	179	1
13	51	1
11	14	1
84	85	1
9	9	1
116	158	1
197	197	1
65	65	1
36	37	2
3	32	1
113	113	3
11	11	1
34	34	1
141	142	1
74	74	2
13	14	2
156	178	1
121	123	1
88	103	1
183	183	1
67	67	2
33	43	1
5	5	1
167	168	1
61	63	1
174	175	1
85	85	1
152	176	1
176	177	1
191	191	1
43	44	1
177	177	1
140	141	2
167	169	2
175	189	1
94	102	1
114	114	1
115	115	1
38	38	2
23	23	2
126	126	1
170	172	1
137	137	1
114	115	1
14	15	2
159	159	1
139	186	1
10	11	1
180	180	1
8	8	1
16	122	1
17	18	1
154	156	1
166	167	1
11	33	1
51	52	1
139	139	1
9	15	1
146	146	1
37	37	1
12	13	1
106	116	1
41	42	1
53	53	1
6	8	1
24	154	1
95	97	1
112	114	1
27	28	1
119	119	1
