168	169	1
143	143	4
90	90	1
34	44	1
151	152	3
13	13	2
100	119	2
86	86	6
121	121	1
52	52	2
91	91	3
169	169	2
63	63	2
36	36	2
145	148	1
126	126	2
108	113	3
67	67	3
170	170	5
144	184	1
6	6	5
84	86	1
142	142	2
57	57	3
21	21	2
112	128	1
65	65	5
94	94	1
30	30	1
167	167	3
3	3	3
32	33	4
102	103	1
16	38	1
174	174	6
116	117	1
116	120	1
114	114	6
96	99	1
68	71	1
32	32	5
88	90	1
185	187	1
110	110	2
18	19	1
177	184	1
22	38	1
149	153	1
165	165	1
28	28	3
82	82	4
81	81	7
187	187	5
147	153	1
134	134	3
151	151	6
93	94	1
128	136	1
84	84	5
148	149	3
141	145	1
165	168	1
185	185	2
182	182	2
27	35	1
11	23	2
39	39	3
138	138	4
177	177	4
73	81	2
129	129	5
57	71	2
75	75	6
89	90	1
44	45	2
19	19	5
45	45	2
87	87	6
148	175	1
18	18	8
92	92	1
39	40	1
177	181	1
61	61	1
85	86	1
157	157	3
79	80	3
115	115	3
96	96	4
139	144	1
95	95	3
149	149	5
76	80	2
88	88	6
14	14	5
94	96	1
70	70	4
137	137	1
110	122	1
180	180	4
38	41	1
128	128	4
35	43	1
129	132	4
131	131	2
125	129	2
41	43	1
21	33	1
66	68	1
41	42	1
141	168	2
185	186	3
138	145	2
0	11	2
120	120	1
20	28	1
46	47	1
105	105	1
135	135	2
127	152	2
151	178	1
170	172	1
190	190	4
173	173	3
127	127	2
26	26	3
97	98	2
165	187	1
149	150	2
64	116	1
107	110	1
74	75	1
118	118	4
123	129	1
115	116	1
5	5	3
60	61	1
152	153	3
9	15	1
155	163	3
40	40	1
53	81	1
72	96	1
81	82	1
68	68	4
184	184	3
42	42	1
14	15	1
90	92	2
55	55	3
143	180	1
130	132	3
69	72	1
79	82	1
130	130	3
159	183	1
12	12	2
171	171	3
48	56	1
142	149	1
48	48	1
146	166	2
165	167	1
74	78	1
135	137	1
98	98	2
188	190	2
145	145	3
58	58	2
38	38	3
11	12	1
133	147	1
7	48	1
150	150	2
146	146	2
112	115	1
178	178	1
167	177	1
155	157	1
66	95	3
26	39	1
180	186	3
81	91	1
163	164	1
101	102	4
158	159	1
132	133	2
77	78	2
43	43	2
189	190	1
176	178	2
118	133	1
166	167	1
106	106	2
7	7	2
141	185	1
114	149	1
167	168	4
150	151	2
5	22	1
182	184	1
168	168	2
134	155	1
160	169	1
136	136	3
54	55	2
183	183	1
105	109	1
72	74	1
106	119	1
23	23	3
148	151	1
87	97	2
79	79	1
138	179	1
180	181	2
53	105	1
100	100	2
106	109	1
90	94	1
166	184	1
12	18	1
65	76	1
186	186	3
25	26	2
109	109	2
181	182	1
44	46	2
70	72	1
20	143	1
99	107	1
99	102	1
16	17	1
97	123	1
41	41	2
4	8	1
167	181	1
141	141	1
72	85	1
159	165	1
130	139	1
5	10	1
141	142	1
139	139	2
179	180	1
26	30	1
130	131	1
72	72	2
121	123	1
128	135	2
83	91	1
70	125	1
24	25	1
135	162	1
166	166	2
29	31	1
119	119	2
96	97	3
88	89	1
170	179	1
155	155	3
110	118	1
56	56	3
54	62	1
99	100	1
108	108	2
141	147	1
0	0	1
101	103	1
1	1	1
97	100	1
147	147	1
85	91	1
149	151	2
119	120	1
64	78	2
122	123	1
139	156	1
152	152	1
76	78	1
104	104	3
85	90	1
124	125	1
79	128	1
153	153	1
55	82	1
25	25	2
66	66	3
80	80	1
6	7	2
110	111	1
179	179	1
183	186	1
55	89	1
25	37	1
173	176	1
79	83	1
156	182	1
143	157	1
176	189	2
125	126	1
40	42	2
121	127	1
178	179	1
175	181	1
8	8	2
158	180	1
101	101	1
46	46	2
104	133	1
31	41	1
85	88	1
145	150	2
74	74	2
108	114	2
99	109	1
92	93	1
162	162	1
172	172	3
77	77	1
31	38	1
95	99	1
114	134	1
126	127	2
180	182	1
79	95	1
31	33	1
45	46	2
104	107	2
66	75	1
56	57	2
83	92	1
149	168	1
149	159	1
72	80	1
98	99	1
126	135	1
150	156	1
156	156	2
89	154	1
116	118	1
53	55	1
99	99	4
122	154	1
133	135	2
0	33	1
95	96	1
155	185	1
61	62	1
102	107	1
167	171	2
146	150	1
163	167	1
154	157	1
135	139	1
126	139	1
66	67	1
127	141	1
156	158	1
38	39	1
116	125	1
154	154	2
9	10	1
175	175	1
144	188	1
107	107	2
0	1	1
33	34	1
45	48	1
53	54	2
142	143	1
15	15	2
122	127	1
122	122	2
111	111	3
75	78	1
57	58	1
16	26	1
146	174	1
83	89	1
107	116	1
112	112	1
27	38	1
132	132	1
22	22	1
96	100	1
121	122	1
158	168	1
34	34	1
170	183	1
16	16	1
121	128	1
97	97	2
142	147	1
184	187	1
62	62	1
156	165	1
170	185	1
78	78	1
163	163	1
92	96	1
68	73	1
155	166	1
175	177	1
93	112	1
64	64	1
117	117	1
77	79	1
141	148	1
21	23	1
42	48	1
93	106	1
151	154	1
16	22	1
92	97	1
171	180	1
128	180	1
155	178	1
165	174	1
91	92	1
106	117	1
