95	95	9
90	91	2
98	98	7
136	136	8
3	3	5
140	140	11
131	131	10
133	133	31
84	86	1
102	102	8
106	106	3
120	120	7
9	10	1
72	73	3
113	113	3
94	99	2
134	135	3
94	94	4
115	115	3
138	138	9
72	72	4
125	126	5
8	8	3
132	132	5
107	107	8
139	139	5
97	98	2
35	35	8
100	100	6
82	82	5
9	15	1
76	77	4
27	28	1
90	117	1
16	16	4
74	81	1
105	105	3
110	110	8
130	130	6
103	103	5
111	111	6
32	32	10
36	36	4
74	74	6
14	14	1
123	123	14
126	126	7
119	120	3
130	132	2
122	123	1
125	125	10
114	118	1
4	6	1
111	118	1
124	124	10
8	10	1
7	7	4
80	80	3
76	76	2
80	91	1
101	101	6
17	17	2
9	9	3
37	37	10
96	96	11
117	117	9
102	103	3
102	108	3
129	129	8
81	81	5
88	88	2
94	96	1
128	128	4
137	137	7
99	107	1
99	99	5
12	12	3
116	116	14
94	126	1
118	118	7
98	100	2
79	87	1
114	115	3
81	87	2
100	130	3
96	111	2
102	115	1
119	119	7
132	134	2
73	73	6
105	120	1
112	112	8
92	92	3
75	75	2
113	121	2
1	1	7
131	134	1
11	17	1
108	117	2
134	134	9
18	18	1
91	91	4
89	89	4
127	127	6
123	131	2
89	90	5
2	2	4
72	96	2
92	94	2
26	26	1
16	17	2
8	16	1
135	135	11
108	110	2
90	90	7
78	78	4
11	12	1
34	34	5
104	105	2
17	99	1
71	100	1
109	109	5
130	131	2
19	19	5
83	106	2
95	96	2
85	86	2
97	97	9
93	93	7
77	77	3
33	34	2
126	127	1
111	115	1
84	84	2
8	9	4
108	114	1
9	12	1
5	5	4
137	138	2
96	98	1
36	37	3
130	133	1
94	100	1
116	117	3
86	86	3
38	38	4
35	36	2
79	102	1
121	122	2
138	139	1
116	123	1
114	114	7
128	130	2
118	119	3
107	108	2
121	121	8
132	137	1
109	110	1
9	20	1
127	129	1
108	109	4
13	13	1
112	117	1
87	87	2
100	115	1
104	104	2
126	129	1
104	124	1
95	127	1
128	140	1
77	78	2
94	97	1
77	106	1
15	15	2
123	130	1
96	124	1
1	2	2
87	88	1
12	14	1
77	94	1
76	78	1
118	120	1
79	112	2
103	108	1
108	108	1
106	107	2
77	117	1
71	71	1
101	125	1
84	85	1
133	134	2
88	90	1
100	101	1
85	88	1
10	11	2
4	4	4
85	85	4
120	122	2
1	14	1
78	79	1
5	19	1
6	6	1
28	28	1
88	94	2
75	76	2
123	124	3
95	132	1
6	7	1
122	122	4
0	1	1
27	27	2
110	119	1
127	137	1
20	20	1
101	102	2
82	83	1
79	88	1
81	83	2
120	121	3
26	27	1
112	114	1
111	126	1
18	19	1
84	107	1
81	85	1
73	74	1
15	16	1
15	17	1
116	124	1
88	100	1
79	79	2
81	82	1
88	89	2
2	3	1
107	109	1
89	91	1
