97	97	6
8	9	2
51	51	3
83	84	1
28	28	3
108	108	1
140	143	2
38	38	2
151	156	1
111	112	2
15	15	2
40	40	3
142	144	4
136	166	2
113	123	1
24	25	1
158	159	3
53	55	2
42	42	3
90	108	1
52	52	3
160	161	2
81	81	4
15	16	5
169	169	3
105	105	3
72	74	2
49	49	4
160	160	3
112	113	3
17	73	1
146	146	4
129	129	1
144	150	2
8	8	3
152	153	4
126	126	2
151	151	3
17	18	1
140	163	2
130	130	2
4	4	3
157	157	2
129	130	2
152	152	3
68	68	4
21	21	3
1	1	3
53	56	1
120	120	2
160	167	1
159	159	2
121	121	6
79	80	1
150	150	2
110	110	2
5	5	2
10	10	4
136	136	4
44	44	6
141	142	2
100	136	1
88	89	3
57	63	1
33	33	1
71	71	1
83	105	1
67	67	1
157	163	1
167	167	3
140	156	2
146	147	2
15	27	1
155	155	4
122	122	1
164	164	2
78	79	1
70	70	1
25	25	2
22	87	1
97	121	1
136	137	2
153	154	3
72	72	4
86	86	3
149	149	2
3	3	2
34	34	2
142	142	4
91	91	1
130	131	3
165	166	2
141	141	6
103	103	1
93	93	3
140	144	2
161	161	3
65	66	4
75	75	1
139	151	2
137	139	1
73	73	5
123	123	4
131	131	2
14	14	4
91	99	1
102	104	2
1	2	1
154	155	1
76	142	1
82	82	2
13	24	1
166	166	6
132	132	2
158	160	1
89	89	2
83	91	1
47	49	1
43	43	2
98	98	2
48	49	1
81	82	3
27	27	6
98	103	1
96	131	1
51	64	1
7	7	1
106	106	1
66	67	2
3	5	1
42	44	1
18	18	8
86	87	1
144	144	3
66	66	1
118	119	1
118	118	2
41	69	2
36	42	1
36	36	2
50	51	1
35	35	1
162	162	1
85	112	1
76	76	2
139	139	6
93	94	1
163	163	2
25	26	2
10	147	1
143	143	2
168	169	1
68	69	1
0	0	1
48	48	2
92	102	1
65	65	1
168	168	3
169	170	4
125	125	3
39	39	3
137	158	2
149	151	1
120	121	1
55	55	2
155	156	1
2	2	2
101	128	1
10	46	1
37	37	2
121	146	1
85	85	1
74	75	1
6	6	2
62	65	1
138	138	3
125	147	1
98	133	1
80	80	1
44	45	3
49	75	1
45	46	1
41	41	3
50	50	4
140	140	5
119	119	2
112	112	3
57	57	3
5	6	2
112	170	1
83	83	2
127	127	1
7	8	1
4	6	2
19	19	3
39	40	1
145	146	3
9	9	2
99	101	1
23	23	1
26	26	1
123	125	1
128	128	2
61	61	1
67	78	1
143	165	1
20	20	2
78	91	1
79	92	1
148	160	1
47	47	3
22	22	3
145	145	2
62	62	1
88	109	1
167	169	2
52	53	2
79	79	2
71	72	1
125	126	2
164	165	1
77	81	1
124	124	1
19	38	1
64	64	2
24	24	3
123	163	1
96	96	2
162	163	1
20	25	2
78	78	3
86	126	1
12	12	1
19	20	2
34	35	1
132	134	1
7	10	1
13	13	1
87	87	1
72	145	1
142	152	1
7	161	1
27	28	1
119	120	1
99	99	1
54	54	1
56	68	1
135	135	1
58	58	1
79	95	1
133	133	1
20	22	1
123	137	2
91	105	1
83	148	1
111	111	1
149	150	1
114	116	1
90	90	3
81	91	1
117	130	1
117	117	1
63	63	1
19	24	1
76	107	2
55	56	1
85	86	3
147	148	2
8	10	1
138	141	1
104	104	1
117	118	1
42	43	1
69	82	1
69	69	1
62	63	1
107	107	1
137	137	1
37	38	1
109	110	1
109	116	1
92	156	1
139	142	1
156	156	1
141	145	1
0	27	1
53	53	1
10	131	1
104	128	1
22	23	1
4	5	1
90	107	1
115	115	1
100	125	1
62	64	1
4	148	1
159	168	1
113	130	1
94	95	1
114	114	1
116	127	1
134	142	1
5	86	1
82	85	1
