2	37	1
139	140	1
123	124	1
240	240	1
18	18	3
182	182	2
37	55	1
144	144	3
133	133	2
136	136	2
169	170	1
46	46	2
107	107	1
49	52	1
95	95	3
189	189	4
179	190	1
52	52	2
225	225	1
165	167	1
160	161	1
61	62	1
167	168	1
59	59	1
163	163	2
187	187	4
64	64	4
70	73	1
53	155	1
188	189	3
63	64	1
169	169	5
215	215	1
84	84	3
61	61	4
56	56	2
209	210	1
65	65	3
125	126	3
52	53	2
51	51	1
24	44	2
49	50	1
231	231	3
6	7	3
18	58	2
168	169	1
129	129	5
202	203	1
2	2	3
176	176	1
66	66	3
173	174	1
202	202	3
69	85	1
207	208	1
236	236	2
33	33	2
14	14	3
85	85	3
29	29	3
149	200	1
210	210	2
15	215	1
204	204	1
146	149	1
11	11	4
21	21	1
174	174	5
180	185	1
68	68	2
197	197	2
22	22	2
77	77	2
104	104	2
1	1	1
162	162	3
24	25	1
133	134	1
183	187	1
174	175	1
223	223	2
106	106	3
34	34	1
209	217	1
207	207	1
218	218	1
0	0	2
72	72	2
172	172	1
55	55	2
98	99	1
113	113	3
6	6	2
142	142	1
222	222	1
103	103	2
220	220	2
209	209	3
39	39	3
40	40	3
177	177	4
28	28	3
73	73	2
134	134	1
178	178	4
49	83	1
216	216	4
67	67	2
20	20	2
170	171	2
28	64	1
147	147	2
36	36	3
228	228	1
69	69	1
74	74	3
23	23	2
47	47	1
97	101	1
200	200	2
132	161	1
169	171	1
137	137	1
195	196	2
203	203	1
145	146	2
206	207	1
12	13	1
209	216	1
105	105	2
120	120	3
76	76	2
134	135	1
96	96	1
102	102	1
170	172	2
5	5	1
65	66	1
71	72	3
156	156	1
34	36	1
48	48	1
26	26	3
199	200	1
56	57	1
214	214	1
130	130	1
127	127	3
157	157	3
171	171	1
28	29	2
30	31	1
152	153	1
16	16	3
117	117	1
182	183	1
219	219	2
9	10	2
149	177	2
120	121	2
18	19	1
60	60	1
221	222	1
131	134	1
32	32	1
66	86	1
196	196	1
214	216	2
150	151	2
27	27	2
181	182	1
138	138	1
217	217	1
85	86	1
72	73	1
19	21	1
197	199	1
175	187	1
118	154	1
35	35	2
129	131	1
122	122	1
159	160	1
10	61	1
0	5	1
148	162	1
111	111	1
13	13	3
135	152	1
186	186	2
4	4	4
162	169	2
54	54	2
3	12	2
198	198	2
183	183	1
184	184	2
3	7	1
154	154	2
39	40	1
70	70	1
101	102	1
37	46	1
19	19	1
135	135	1
35	81	2
169	172	1
181	181	1
7	39	1
38	38	2
46	74	2
41	41	1
3	43	1
152	152	1
168	171	1
126	138	1
17	20	2
232	232	3
118	118	1
211	211	1
168	168	1
64	66	1
138	144	1
197	198	2
213	216	1
160	160	4
236	237	1
166	168	1
45	46	1
21	41	1
40	52	1
76	77	1
100	101	1
17	17	3
170	170	1
145	145	5
63	63	2
53	53	1
180	228	1
58	58	2
42	42	1
37	76	1
75	80	2
81	81	2
59	76	1
139	189	1
153	157	1
179	179	1
108	114	1
165	165	1
237	237	2
12	14	1
222	223	1
37	80	1
40	41	1
178	179	2
116	116	2
191	196	2
101	101	1
143	145	2
24	162	1
70	71	1
174	176	1
226	227	1
47	88	1
50	50	1
200	201	1
38	53	1
107	108	1
58	59	1
2	3	1
137	163	1
187	224	1
46	47	1
43	43	2
206	219	1
45	45	1
150	150	2
181	210	1
34	35	1
223	224	1
59	117	1
66	67	1
129	130	1
157	161	1
71	71	1
177	178	1
121	121	1
200	225	1
43	44	1
159	159	1
162	172	1
83	83	1
80	80	1
48	102	1
87	88	1
217	218	1
134	160	1
202	204	1
30	30	1
8	8	1
54	55	1
3	9	1
4	6	1
132	133	1
176	177	1
95	96	1
227	227	1
79	79	1
49	49	1
192	192	2
146	146	1
205	205	1
