85	86	1
31	32	1
92	108	2
23	23	4
92	92	13
90	93	2
97	97	6
24	25	1
89	91	1
22	24	1
62	65	1
98	100	1
75	76	1
81	81	6
104	104	1
42	42	6
108	108	7
43	43	2
45	45	4
90	90	13
38	38	2
81	90	1
21	21	3
78	78	8
101	101	4
97	98	1
74	75	2
93	93	4
90	91	6
39	39	2
42	45	1
21	27	1
30	32	1
95	95	3
26	26	2
80	80	4
107	110	1
63	65	1
35	35	3
91	91	9
101	102	6
25	25	3
54	54	2
28	28	2
106	106	4
66	68	2
32	40	1
69	71	3
51	51	2
74	74	4
113	113	2
22	23	4
34	34	3
70	71	2
81	85	1
105	106	2
54	79	1
78	79	2
37	90	1
37	37	1
29	30	2
65	65	2
91	92	3
68	70	1
29	29	2
58	59	2
78	106	2
30	31	3
24	24	1
59	66	1
63	63	1
67	70	2
55	55	5
107	109	1
47	48	1
68	68	1
71	71	5
98	98	2
46	48	1
44	44	1
61	66	1
76	77	1
59	59	1
48	48	1
108	109	2
91	108	3
42	52	1
81	93	2
22	22	4
60	67	1
50	51	2
110	110	2
93	95	1
115	115	1
49	49	1
50	50	2
112	112	1
103	103	3
52	52	1
100	100	3
109	109	2
53	80	1
46	51	2
102	104	2
102	102	2
46	46	2
34	36	1
61	68	1
54	55	6
41	43	1
85	85	5
22	110	2
34	80	1
92	93	2
73	75	1
60	79	1
35	36	3
94	107	1
70	70	2
58	60	1
34	35	2
44	52	1
86	86	2
74	82	1
79	109	2
77	78	1
107	107	1
27	27	2
107	108	2
52	67	1
66	66	1
23	25	1
81	83	1
114	115	1
79	110	1
103	104	1
31	31	2
94	94	5
73	74	3
48	49	2
57	57	1
43	60	1
40	40	3
44	66	1
36	36	2
34	67	1
94	108	3
72	72	2
111	111	2
55	56	2
73	73	1
71	72	2
82	83	4
35	59	1
62	62	1
75	75	2
72	74	1
96	96	2
105	108	1
32	32	1
58	58	4
100	101	1
100	109	1
69	69	1
21	23	1
61	62	2
70	74	2
19	19	1
114	114	1
64	84	1
98	99	1
20	21	1
89	89	2
83	83	1
75	103	1
69	85	1
88	98	1
41	42	1
87	103	1
53	53	1
42	46	1
84	84	2
68	92	1
33	33	1
83	91	1
71	77	2
88	91	1
80	81	1
96	109	1
91	93	1
90	92	1
20	20	1
85	88	1
87	87	1
82	82	1
56	56	1
69	77	1
41	41	1
61	74	1
42	48	1
47	47	1
51	52	1
43	44	1
39	88	1
19	20	1
31	90	1
63	64	1
74	108	1
76	76	1
85	90	1
