51	52	1
146	146	3
117	117	2
44	44	7
112	112	2
131	131	1
156	156	4
115	115	1
15	16	2
148	148	1
81	81	1
107	108	1
154	154	3
43	68	1
51	51	3
99	126	2
164	164	4
56	56	3
1	1	1
142	142	1
151	151	3
155	157	1
93	93	1
35	42	1
13	13	5
152	153	2
56	72	1
76	76	1
54	70	1
138	143	1
150	150	3
11	12	1
18	26	2
127	134	1
136	136	2
157	157	3
8	51	1
42	42	3
169	169	2
12	12	2
127	128	1
107	107	3
159	159	4
41	41	5
161	161	4
113	113	1
4	4	2
89	89	1
92	92	1
75	78	2
79	80	2
50	50	3
166	167	1
158	158	5
49	50	1
137	137	2
62	62	1
111	111	1
103	104	3
70	72	1
128	130	1
78	79	3
35	35	5
100	103	1
63	72	1
21	21	1
144	144	3
133	160	1
64	68	1
37	37	3
137	138	3
115	116	2
70	70	2
18	18	2
44	45	2
140	170	1
18	20	1
21	22	1
163	163	3
98	98	1
66	69	1
3	6	1
160	160	3
125	125	1
42	43	4
137	149	1
100	100	2
126	126	2
124	124	6
38	38	5
34	34	1
149	149	3
24	51	3
97	99	1
22	22	1
121	121	1
54	54	1
113	131	2
129	129	2
115	117	2
68	68	2
121	122	1
49	49	2
66	66	1
15	15	4
40	40	2
25	25	6
44	68	1
6	7	1
122	125	1
139	143	3
90	90	2
12	22	1
90	91	1
139	139	3
46	46	2
142	165	1
85	91	1
67	85	1
64	69	1
152	155	2
104	105	1
112	113	1
39	40	3
133	133	1
122	122	2
119	133	1
20	23	1
64	64	3
100	125	1
133	134	2
88	88	2
131	132	2
10	10	4
46	47	1
25	149	1
48	48	2
167	167	3
91	91	2
57	58	1
132	132	2
69	91	1
17	17	2
103	103	1
144	157	1
20	20	1
6	8	2
119	125	2
154	157	1
14	15	2
20	21	1
75	77	1
126	130	1
49	56	1
47	47	2
140	154	1
36	36	1
130	156	1
148	159	1
74	97	1
125	126	2
55	55	3
86	86	3
19	19	2
47	49	1
101	126	2
155	155	1
108	108	4
134	134	1
50	51	1
142	143	1
119	119	2
114	157	1
74	74	2
152	154	1
52	52	3
5	170	1
145	151	1
75	152	1
111	140	1
165	166	1
102	104	1
94	94	1
16	16	1
25	27	1
14	14	3
46	49	2
57	57	1
129	159	1
80	94	1
137	164	1
43	43	1
73	112	1
45	45	2
3	3	1
135	135	1
95	95	1
118	118	1
7	7	2
53	53	1
166	166	1
12	13	1
87	87	1
76	77	1
16	17	1
144	147	1
170	170	3
105	105	3
13	14	1
144	162	1
147	147	3
154	155	1
69	69	1
54	67	1
86	90	1
78	78	1
16	24	1
43	44	3
39	48	1
3	4	1
58	88	1
148	149	1
11	11	2
165	165	1
77	78	1
146	147	1
27	53	1
38	41	1
121	123	2
143	143	2
145	145	1
99	99	1
83	83	1
1	2	1
134	148	1
140	140	1
57	84	1
81	115	1
72	72	3
130	131	1
114	114	1
91	93	1
136	144	1
164	165	1
74	124	1
119	122	1
91	94	1
36	37	1
73	73	1
53	57	1
94	95	1
127	129	1
26	26	1
109	109	1
120	143	1
9	9	1
104	104	1
65	65	1
110	111	1
101	102	1
97	97	1
2	2	1
92	93	1
18	19	1
128	129	1
135	167	1
47	53	1
