86	86	2
110	110	1
38	39	2
187	187	2
52	52	2
4	5	1
26	26	2
246	246	3
58	75	1
53	166	2
156	160	1
153	153	1
66	113	1
220	231	2
74	74	1
244	244	1
25	26	1
79	178	1
201	201	4
152	152	1
240	240	2
199	199	4
34	34	2
202	202	3
2	2	1
68	68	3
213	213	1
186	186	2
35	35	3
9	9	3
214	214	4
235	242	2
47	48	3
192	192	1
217	221	1
7	7	4
92	92	2
227	227	7
47	47	3
63	77	3
25	25	1
215	247	1
229	229	1
217	217	1
99	99	2
172	172	1
245	245	3
51	51	2
167	173	1
220	220	4
175	175	2
36	36	2
220	221	3
226	226	3
241	241	2
162	163	1
111	112	1
120	120	1
65	65	4
60	60	1
50	50	2
100	100	2
208	208	1
185	209	1
56	56	1
156	156	3
211	224	1
220	244	1
6	7	2
239	239	2
209	209	3
82	82	1
114	114	3
107	107	2
21	21	2
89	89	1
11	11	3
180	180	2
65	75	1
221	222	4
70	70	2
37	37	2
111	111	3
162	200	1
230	230	3
171	171	1
71	72	1
155	203	2
95	95	1
164	164	1
6	220	1
78	78	1
144	145	2
178	178	2
92	93	1
173	180	1
211	211	6
48	48	5
150	150	1
77	176	1
147	147	1
162	162	2
21	24	1
154	154	1
99	100	1
237	237	1
8	8	3
103	103	2
35	36	1
172	175	1
9	14	1
170	191	1
62	62	1
23	23	5
236	236	1
191	191	1
6	219	1
218	218	1
213	229	2
231	231	3
44	45	1
42	42	1
93	117	1
109	179	1
247	248	1
30	30	5
231	232	1
109	113	1
157	157	2
92	109	2
29	29	2
181	181	2
162	168	1
4	168	1
246	247	2
206	207	2
100	109	1
94	108	1
4	192	1
5	5	2
219	219	3
170	170	2
179	179	1
75	170	1
172	196	1
183	183	2
228	230	1
222	222	2
204	204	1
117	180	1
59	202	1
216	216	2
55	55	1
47	67	2
117	117	1
38	38	3
33	33	2
155	155	3
200	200	2
16	46	1
186	189	2
106	106	2
91	209	2
180	182	1
2	3	2
10	32	1
233	233	1
169	170	1
165	165	1
149	150	1
177	177	3
23	24	2
235	235	3
76	76	1
104	105	1
165	166	1
69	177	1
158	158	2
236	241	1
71	88	1
1	1	1
43	44	1
18	18	5
51	66	1
190	197	1
204	213	1
115	115	1
160	161	1
221	242	1
46	47	1
96	96	1
177	179	1
209	223	1
81	81	2
198	198	1
85	102	1
14	14	1
98	117	1
238	238	1
8	10	2
42	229	1
101	113	1
67	67	1
99	104	1
117	118	1
39	39	2
232	245	1
172	185	1
234	234	2
206	206	3
240	242	1
30	31	2
52	53	3
179	180	1
223	225	1
79	80	2
197	197	5
6	6	1
232	240	1
90	180	1
40	40	1
22	22	2
1	57	1
109	235	1
69	69	1
77	77	1
228	228	2
87	87	3
16	16	3
172	173	1
68	156	2
32	32	2
212	212	2
225	225	1
119	119	2
21	23	1
145	146	1
40	41	2
31	31	3
223	223	2
121	121	1
6	232	1
12	12	2
45	45	1
225	226	1
23	27	1
173	173	2
215	217	1
105	107	1
64	64	2
90	90	1
51	184	1
198	199	1
193	194	1
39	40	1
43	150	1
181	183	1
102	102	2
189	209	2
167	203	1
88	88	1
234	244	1
82	86	1
16	27	1
105	105	2
39	44	1
80	80	1
109	109	2
18	20	1
78	178	2
48	49	1
214	215	1
62	66	1
1	15	1
21	29	1
195	195	1
175	178	1
72	72	1
108	149	2
109	116	1
217	218	1
161	161	2
193	196	1
29	31	1
186	187	1
78	247	1
184	184	1
189	191	1
194	195	1
53	53	1
58	58	1
83	83	1
188	208	1
227	228	1
97	98	2
189	190	1
212	213	1
118	120	1
151	151	1
145	145	1
199	200	1
224	229	1
235	243	1
188	190	2
231	241	1
243	243	1
19	19	2
243	246	1
238	240	1
29	30	1
37	38	1
56	57	1
185	203	1
169	171	2
77	179	1
12	47	1
163	163	1
233	246	1
226	227	1
36	41	1
216	217	1
18	19	1
175	176	1
42	43	1
112	112	1
205	205	1
165	197	1
45	46	1
201	205	1
50	54	1
165	183	1
59	60	1
4	4	1
24	32	1
90	100	1
110	111	1
22	156	1
108	108	1
163	164	1
20	20	2
193	195	1
55	56	1
