69	69	5
94	94	2
45	46	1
145	145	4
15	18	1
105	105	4
122	123	6
13	13	2
130	130	4
125	125	5
70	70	5
96	97	1
2	2	5
20	46	2
157	157	3
87	87	5
137	137	3
29	30	1
146	146	3
123	123	2
92	92	4
116	121	2
109	111	1
91	91	3
32	32	2
87	88	2
25	45	2
131	138	2
22	140	1
117	117	1
143	143	4
68	68	3
64	64	3
76	92	2
124	124	1
154	155	3
26	26	1
77	77	5
67	67	5
54	55	3
78	78	2
28	28	1
73	73	3
8	8	2
29	29	3
71	71	4
140	141	1
152	152	2
141	141	4
158	158	4
151	152	6
156	157	2
80	82	1
56	58	1
27	29	1
79	80	2
142	142	3
116	145	3
151	151	5
139	139	6
35	36	1
155	156	1
51	51	2
133	133	4
155	155	5
136	136	10
55	67	1
106	106	4
22	23	2
67	68	1
84	86	1
129	130	4
99	100	1
36	36	1
115	126	2
140	140	4
80	84	1
42	42	2
1	1	2
132	132	4
62	62	2
52	52	3
50	50	2
139	140	3
128	128	3
119	134	1
112	115	1
44	44	5
104	104	1
22	22	3
121	121	2
18	18	1
127	127	5
118	118	6
37	95	1
117	118	1
77	81	1
96	96	1
128	133	1
3	4	1
66	68	1
54	54	1
156	158	3
122	122	3
103	103	4
73	100	1
56	56	3
67	71	1
106	107	1
92	93	2
66	66	3
112	112	7
116	116	2
143	145	1
38	38	1
23	23	3
100	100	3
27	27	3
40	40	2
36	106	1
1	2	1
21	21	2
45	45	4
120	127	1
131	131	5
138	138	2
106	111	1
16	16	1
153	153	4
98	133	1
69	97	1
55	56	1
97	97	2
98	98	3
55	55	1
86	86	2
90	90	1
101	102	2
109	110	1
83	83	2
93	95	1
12	12	2
88	118	1
102	102	1
117	121	1
6	6	3
115	140	1
149	149	4
125	126	2
68	71	1
98	151	1
81	81	2
57	61	2
47	47	3
146	147	2
133	156	1
101	101	1
124	126	1
65	65	4
110	110	2
64	108	1
5	42	1
44	45	1
30	30	2
38	39	5
79	79	1
24	104	1
48	50	1
36	42	1
48	49	3
123	124	1
145	146	2
108	108	1
13	15	1
99	99	2
31	31	1
67	138	1
104	105	1
70	71	2
139	156	1
75	75	1
92	99	1
4	5	2
72	105	1
126	126	2
30	31	1
119	119	1
148	148	2
137	138	2
152	154	1
113	115	2
15	15	1
4	4	2
33	33	3
139	144	2
39	40	2
82	82	1
46	49	1
147	147	4
144	144	3
105	106	1
153	154	2
113	113	2
138	140	1
10	10	1
46	47	1
98	131	1
101	155	1
111	111	5
150	150	2
78	89	1
116	120	1
72	73	1
129	129	1
115	115	2
0	1	2
151	153	1
16	36	1
91	107	1
105	117	2
66	158	1
135	138	1
35	35	1
119	120	1
46	46	1
25	25	1
0	0	1
114	114	2
131	133	1
121	142	1
51	53	1
7	30	1
13	30	1
132	153	1
48	48	1
107	119	1
85	86	2
81	126	1
95	95	1
73	101	1
109	122	1
154	154	2
7	7	2
20	20	1
15	17	1
7	70	1
2	103	1
78	79	1
41	41	1
67	70	1
84	85	1
78	119	1
148	149	1
24	24	1
69	70	1
101	130	1
33	34	1
156	156	1
76	106	1
107	108	1
137	142	1
87	110	1
2	3	1
131	140	1
45	47	1
71	73	1
7	8	1
77	80	1
