89	127	1
96	96	4
121	121	2
86	89	3
117	125	1
75	88	1
78	82	2
0	7	1
48	48	3
76	129	1
65	65	2
75	77	2
71	71	7
13	14	2
4	4	1
99	99	2
41	41	1
69	69	2
46	46	1
28	28	3
119	119	4
76	85	1
92	93	1
79	80	2
94	94	4
103	103	4
122	123	2
25	25	1
2	2	1
129	129	1
108	108	3
93	93	1
49	49	2
39	39	3
128	128	5
91	91	4
59	60	1
43	43	1
116	117	2
107	108	1
64	103	1
101	101	2
50	50	3
66	71	1
73	73	3
80	82	1
90	91	2
110	110	4
80	81	1
86	87	2
9	106	1
90	90	2
86	91	2
126	126	1
21	24	2
54	54	4
45	45	3
96	103	1
52	69	1
15	16	1
51	51	2
60	60	2
52	52	1
54	56	1
34	34	1
59	59	2
117	117	2
27	31	1
73	74	1
87	87	5
25	56	1
113	119	2
120	120	3
124	124	2
22	22	2
44	45	2
45	47	1
95	95	1
119	120	1
80	80	2
31	31	1
48	49	1
44	44	3
113	113	2
57	57	1
77	83	1
83	83	3
2	122	2
77	96	2
70	70	3
14	14	1
90	125	1
131	131	1
13	33	1
23	28	1
127	128	2
74	75	1
68	68	3
92	92	2
97	97	3
8	8	1
64	68	2
62	62	1
38	40	1
115	116	1
38	38	2
84	84	2
61	61	1
107	107	3
91	93	1
19	19	1
109	109	2
83	85	1
26	28	1
51	52	3
40	41	1
116	116	1
122	122	2
26	30	1
85	88	2
63	92	2
65	67	1
30	30	2
51	54	1
67	67	1
1	108	1
58	58	1
72	72	1
44	46	2
88	88	2
114	115	1
85	92	1
101	125	2
132	132	1
56	56	1
115	115	2
1	1	2
114	114	2
42	42	4
100	100	1
78	84	1
55	56	1
32	32	1
61	62	1
7	7	1
26	26	3
87	89	1
67	92	2
57	129	1
130	130	2
82	82	1
128	130	1
66	95	1
67	107	1
114	118	1
99	100	1
24	24	1
112	112	1
55	55	2
84	85	1
104	104	1
33	91	1
106	115	1
102	102	3
61	91	1
62	64	1
66	108	1
53	53	3
72	76	1
80	83	1
76	76	1
3	3	1
38	39	1
67	71	1
118	120	1
125	126	1
85	85	1
27	27	1
12	12	1
89	89	1
6	6	1
84	109	1
25	30	1
1	7	1
66	66	1
75	75	1
10	11	1
46	47	1
126	130	1
93	118	1
90	97	1
125	125	1
133	133	1
29	40	1
106	130	1
63	63	1
11	27	1
