120	121	1
72	74	1
91	91	3
86	87	1
137	137	1
102	102	2
1	10	1
5	5	3
77	77	5
99	108	1
82	82	2
58	59	2
62	123	1
18	18	4
103	114	2
98	99	1
70	76	1
16	16	2
63	63	1
35	35	2
96	96	1
133	133	1
131	134	1
123	127	2
56	56	1
33	37	1
68	70	1
83	83	2
111	113	1
16	35	1
85	85	1
67	67	2
70	71	4
73	73	4
25	25	5
20	20	7
89	89	2
33	33	5
49	49	1
86	102	1
97	97	2
34	35	2
96	99	1
31	33	1
107	107	1
75	75	3
62	62	2
40	41	1
109	109	3
36	36	2
86	93	2
70	88	2
122	131	1
41	41	4
38	38	9
60	60	2
2	2	2
64	65	1
27	28	1
59	59	2
112	116	1
117	123	1
134	134	3
33	34	3
119	129	1
8	8	1
35	64	1
118	118	1
86	86	1
58	58	1
23	23	1
124	124	4
101	102	2
34	34	2
4	4	2
117	118	1
17	22	1
13	13	1
115	115	2
140	140	1
93	93	2
132	132	4
74	74	2
74	99	1
4	16	3
29	30	1
68	84	1
24	24	2
80	80	2
57	57	1
28	28	2
101	101	3
64	64	4
104	104	4
114	114	2
83	89	1
81	82	1
84	84	2
29	29	2
50	67	1
138	139	1
129	129	3
68	68	1
65	66	2
104	119	1
142	142	2
37	38	1
81	105	1
40	40	2
131	132	2
127	127	2
78	79	2
91	92	1
136	137	1
34	36	1
72	87	2
123	123	1
138	138	1
90	107	1
30	30	2
132	137	1
55	55	1
61	61	1
19	25	1
70	84	1
122	123	1
39	39	3
108	109	1
105	105	5
87	87	1
111	111	2
68	96	1
60	84	1
120	134	1
93	94	1
76	77	3
145	145	2
113	113	4
6	6	1
19	21	1
43	43	1
50	50	2
60	77	1
81	81	3
33	35	1
92	92	1
22	22	4
70	70	2
3	15	1
31	31	2
75	76	2
90	90	1
39	94	1
10	10	2
90	91	1
47	49	2
117	117	4
41	144	1
66	81	1
75	78	1
122	122	4
65	88	1
139	140	1
51	51	1
31	36	1
31	47	1
104	105	2
103	103	2
42	42	2
77	111	1
31	32	3
51	52	1
52	52	2
125	125	1
3	3	1
55	61	1
120	120	1
9	139	1
118	119	1
19	19	1
142	143	1
110	111	1
119	137	1
141	141	2
18	19	2
71	91	1
107	108	1
27	27	1
100	100	1
80	81	1
35	65	1
106	110	1
99	144	1
116	129	1
95	104	1
32	32	1
91	141	1
2	26	1
10	37	1
24	25	1
88	90	1
106	138	1
131	131	2
119	119	3
141	145	1
92	93	1
121	121	1
16	17	1
110	118	1
11	11	2
79	79	1
48	74	1
85	90	1
73	74	1
60	61	1
128	128	1
99	100	1
18	20	1
13	16	1
1	9	1
29	37	1
61	62	1
38	145	1
48	57	1
137	138	1
103	125	1
106	106	2
135	135	1
76	76	1
55	85	1
31	67	1
88	88	1
112	112	1
60	121	1
139	139	2
50	71	1
36	37	1
120	138	1
23	30	1
23	75	1
71	84	1
20	22	1
53	53	1
53	56	1
48	48	1
96	97	1
47	112	1
25	30	1
49	50	3
6	55	1
22	23	1
37	134	1
8	9	1
92	114	1
134	136	1
49	68	1
71	71	1
90	122	1
127	131	1
15	145	1
