67	67	6
13	13	13
76	76	10
85	86	4
83	83	9
16	16	2
6	13	1
48	49	1
52	55	1
26	27	2
24	24	6
1	1	7
60	60	6
23	23	12
18	18	2
22	22	3
21	23	1
74	74	8
88	88	4
54	54	6
62	62	6
70	70	4
12	12	4
35	62	1
88	89	5
48	48	8
30	31	1
46	48	4
3	69	1
55	73	1
61	61	3
80	80	12
65	65	6
82	82	15
50	75	2
66	70	1
62	65	1
69	69	7
17	19	1
86	86	6
46	49	2
12	55	1
3	20	2
56	56	6
87	88	2
20	20	5
58	68	2
74	75	4
55	56	7
58	58	14
63	63	5
77	77	7
27	27	6
81	81	10
68	75	1
3	3	9
10	10	7
26	26	5
28	28	10
21	22	2
11	11	12
2	2	3
7	7	9
52	52	7
15	15	5
81	85	1
85	85	7
61	75	1
32	82	2
75	75	5
72	73	1
25	25	5
51	51	5
7	8	4
89	89	12
69	71	3
19	22	2
52	63	1
15	21	2
4	13	2
4	25	1
67	70	1
24	27	1
58	61	2
66	66	7
78	79	1
59	63	1
69	82	1
2	3	3
4	4	9
63	64	2
87	87	5
77	80	1
57	57	13
55	55	7
50	50	6
57	58	2
0	1	2
30	30	8
60	66	2
12	13	1
34	34	2
17	17	3
79	80	4
58	62	1
49	77	1
26	28	4
52	61	2
60	63	2
53	82	1
5	5	1
8	8	5
73	73	13
84	84	15
67	68	3
9	13	1
17	55	1
74	86	1
62	64	2
3	4	2
64	65	3
55	67	1
29	30	2
0	0	7
72	72	5
24	25	2
31	31	3
56	57	1
64	64	8
60	61	4
78	78	4
14	14	5
46	46	5
73	78	1
21	30	1
11	12	1
19	19	8
25	26	1
47	47	2
1	2	2
81	82	1
48	72	1
80	83	1
23	24	3
68	69	1
28	29	1
68	89	1
86	87	1
75	76	1
49	49	9
68	68	3
80	85	1
52	59	1
24	54	2
74	87	2
31	33	2
10	13	2
29	29	4
6	72	1
9	9	4
1	3	1
24	28	1
83	86	1
65	66	1
53	70	1
63	66	1
11	23	2
73	79	2
71	72	1
79	79	8
53	54	2
6	6	2
71	71	2
73	74	3
50	77	1
8	13	1
5	6	3
10	11	3
85	87	2
78	80	2
21	25	1
47	50	1
63	65	1
72	74	1
13	46	1
13	14	2
48	50	2
54	56	1
6	7	2
25	47	1
50	51	3
57	70	1
73	80	1
22	77	1
79	85	1
55	60	1
3	8	1
47	67	1
20	22	1
51	55	1
35	35	2
79	81	1
77	83	1
5	7	2
34	51	1
25	27	1
76	77	1
27	66	1
54	72	2
2	11	1
57	79	1
12	22	1
7	27	1
70	72	1
90	90	2
33	78	1
7	9	1
78	82	2
87	89	1
83	84	3
18	47	1
59	60	1
62	67	1
8	12	1
67	69	1
14	15	1
56	68	2
54	55	1
15	18	1
53	76	1
50	57	1
19	20	2
18	27	1
20	21	1
54	79	1
75	77	1
19	27	1
61	65	1
69	70	1
12	16	1
8	10	1
66	75	1
81	84	1
5	8	1
59	69	1
55	80	1
34	52	1
23	27	1
69	72	1
82	83	2
14	30	1
15	19	2
72	87	1
30	71	1
69	74	1
5	10	1
70	74	1
68	77	1
21	27	1
18	19	1
59	59	1
21	21	2
8	9	1
26	30	1
48	73	1
27	89	1
46	47	1
47	81	1
27	81	1
30	35	1
0	9	1
49	53	1
