245	246	1
44	181	1
178	178	2
10	11	2
28	30	1
116	116	1
21	21	4
56	56	2
245	245	5
6	6	2
82	82	1
53	55	1
39	111	1
209	209	2
61	61	2
175	176	2
57	58	1
67	70	1
32	33	3
207	207	2
42	42	1
163	164	2
204	204	7
181	204	1
62	62	3
158	173	1
111	111	1
247	247	3
38	38	4
112	112	6
172	177	1
51	57	1
234	234	5
35	35	5
2	34	2
146	146	1
202	202	2
11	11	4
213	220	2
237	237	2
98	98	2
75	75	1
205	205	4
164	165	1
59	59	4
24	24	5
159	159	3
9	9	2
19	19	2
213	236	1
220	220	2
4	4	3
113	113	5
232	232	2
37	37	3
207	218	1
70	75	1
156	156	2
222	224	2
199	199	3
227	227	2
43	88	1
91	91	2
158	162	1
100	100	3
31	31	4
78	224	1
45	45	3
229	229	5
170	171	2
20	20	4
41	43	1
27	27	5
219	220	1
32	32	1
42	204	1
237	239	2
16	16	2
80	81	1
12	12	2
216	216	2
1	1	1
203	203	3
12	205	1
76	82	1
41	42	1
59	84	2
106	106	3
10	10	5
25	66	1
40	65	1
179	179	1
56	57	1
167	167	2
161	161	5
228	228	2
52	52	3
95	95	1
89	89	1
90	90	3
57	57	3
38	39	1
211	227	1
202	206	1
5	227	1
201	201	5
212	212	1
241	243	1
99	99	2
63	63	2
17	17	3
43	43	3
174	174	3
11	205	1
53	53	6
163	163	1
22	26	1
223	224	3
21	28	1
227	228	1
5	11	1
183	183	5
36	92	1
162	163	2
23	23	5
155	155	3
151	151	3
65	66	1
93	93	2
42	154	1
169	169	2
201	224	1
96	98	1
166	166	4
69	69	2
15	16	1
80	80	1
22	22	3
39	202	1
93	160	3
50	50	2
144	145	1
150	150	3
197	197	2
165	241	1
106	107	1
213	213	3
200	200	1
75	76	2
145	154	1
78	85	1
203	207	2
156	161	1
15	22	1
110	110	3
48	48	1
192	193	1
230	230	3
154	154	2
61	62	1
248	249	1
3	3	1
39	39	4
68	68	4
173	173	3
210	236	1
30	30	3
89	90	1
228	229	3
188	188	3
71	71	2
48	49	1
28	28	1
117	118	2
2	2	1
65	65	2
108	108	1
10	28	1
239	239	1
235	236	1
42	44	1
74	74	1
165	165	1
59	60	1
187	225	1
46	78	1
223	225	1
33	58	1
200	206	1
40	41	2
196	197	2
96	96	3
176	176	1
213	217	1
14	14	1
160	174	1
29	29	2
8	16	2
175	175	1
41	41	2
63	66	1
47	171	1
26	26	3
40	50	1
226	226	1
220	223	1
54	55	1
67	68	1
95	100	1
119	119	1
166	167	1
70	70	2
28	29	1
7	35	1
208	214	1
54	54	1
232	234	1
79	79	1
162	162	1
98	99	1
221	221	2
197	198	1
144	166	1
63	90	1
47	48	2
25	25	2
223	243	1
202	203	1
94	94	2
34	34	1
67	67	2
203	204	1
214	214	2
85	85	1
47	47	1
210	210	2
233	234	1
198	198	1
196	196	1
46	46	1
177	177	1
31	32	1
72	73	1
215	215	1
168	168	3
165	210	1
73	74	1
92	92	2
114	115	1
107	108	1
164	164	1
114	117	1
195	195	1
170	170	1
104	105	1
238	238	1
196	199	1
52	85	1
209	211	1
18	18	1
201	202	1
184	236	1
154	155	1
200	228	1
7	19	2
157	157	1
82	96	1
174	182	1
182	183	1
202	204	1
179	180	1
78	84	1
210	211	1
64	64	1
242	242	1
231	233	1
104	104	1
18	37	1
224	224	1
69	75	1
40	40	2
16	33	1
22	228	1
219	221	1
183	184	1
241	241	1
180	180	1
3	4	1
204	205	1
10	33	1
76	76	1
115	115	1
236	241	1
187	187	1
171	178	1
204	247	1
118	118	1
248	248	1
23	25	1
223	223	1
87	87	1
95	99	1
150	151	1
112	118	1
12	31	1
177	178	1
46	55	1
88	89	1
110	111	1
225	225	1
244	244	1
174	230	1
39	40	1
159	160	1
77	77	2
