129	129	13
4	4	5
152	152	9
87	118	1
140	140	19
1	1	4
88	88	5
21	21	6
86	86	9
146	146	13
130	130	11
147	147	11
110	110	5
141	142	7
124	125	2
34	34	3
12	13	3
71	109	1
37	37	5
106	107	3
133	133	5
118	118	10
109	110	2
106	106	9
116	117	5
39	44	2
53	53	6
141	143	1
107	107	7
50	64	1
11	12	1
146	147	10
91	92	4
40	41	3
121	121	7
65	66	2
100	100	3
138	138	11
35	35	5
144	144	8
81	82	2
2	99	1
111	112	1
115	115	5
127	127	10
140	141	3
135	140	1
101	101	6
119	136	4
65	65	3
43	43	9
105	105	13
30	30	10
38	38	2
2	2	6
22	22	5
117	118	2
136	144	1
136	136	8
67	68	2
93	94	1
110	142	2
8	19	1
122	125	3
123	139	1
25	55	1
3	4	1
123	123	3
114	114	4
16	38	1
105	138	1
20	21	3
68	77	1
116	119	2
122	122	4
70	70	4
24	36	1
73	73	6
107	149	1
29	29	8
116	116	11
120	120	9
23	23	4
131	131	13
16	16	9
134	134	13
124	137	1
44	44	8
56	56	4
15	15	2
148	148	12
150	150	17
71	71	2
13	13	1
137	137	3
154	154	9
111	111	7
23	73	2
112	113	3
99	99	5
128	128	10
54	54	9
13	14	1
41	41	4
141	148	2
145	145	5
112	112	4
108	120	2
83	83	6
153	158	1
121	123	1
156	156	9
10	10	1
36	36	7
62	62	1
67	69	2
132	133	2
112	139	1
33	38	1
87	87	5
6	6	4
50	50	1
73	132	1
29	147	1
126	126	6
0	0	3
91	143	2
149	149	10
124	124	4
20	20	4
26	26	6
151	152	2
3	3	2
64	75	2
39	41	1
151	151	14
16	23	1
46	46	4
104	105	2
48	48	7
135	135	7
11	11	6
107	134	1
126	143	1
142	142	7
0	1	1
31	35	1
104	104	10
31	31	10
144	147	2
93	95	1
121	138	1
155	155	5
95	95	4
115	120	2
25	28	1
131	132	3
107	127	2
148	149	4
39	39	5
33	33	3
70	78	1
121	122	2
133	139	2
35	36	1
131	134	2
27	132	1
93	93	2
71	119	1
14	142	1
106	127	2
70	80	1
98	98	10
117	140	2
109	109	4
40	43	2
45	45	5
138	139	5
16	95	1
139	139	14
49	68	1
153	154	1
28	34	1
5	5	5
135	137	3
145	146	11
77	77	5
157	157	7
52	53	3
12	12	2
138	140	4
87	88	5
18	19	2
103	103	4
77	79	2
143	143	1
6	36	1
17	18	2
71	92	1
110	112	1
71	72	1
140	148	1
116	135	1
81	81	5
76	76	2
129	139	4
88	92	2
7	7	4
94	94	4
91	91	6
21	47	1
24	24	3
113	113	2
144	145	3
144	146	2
49	52	1
134	139	3
135	136	6
120	121	1
45	139	1
117	117	9
24	25	2
111	118	1
47	47	1
137	138	6
119	119	7
90	91	2
73	157	2
28	28	4
9	9	3
147	153	1
28	53	1
134	142	1
123	124	6
141	141	4
51	51	3
90	90	5
128	129	3
42	149	2
152	153	2
73	130	1
131	141	1
68	132	1
31	46	1
32	35	1
38	50	1
42	42	1
79	80	2
65	98	1
49	49	3
75	75	3
134	137	2
82	82	2
92	92	3
128	139	1
133	134	6
42	43	3
87	125	1
13	106	1
8	8	2
132	132	4
141	144	3
129	140	1
114	115	3
87	97	1
143	152	1
54	55	2
26	35	1
85	121	1
139	141	1
97	98	1
153	153	6
145	147	3
97	148	1
150	151	2
39	78	1
80	81	1
43	54	1
141	147	1
66	66	1
29	119	1
158	158	6
27	27	4
142	148	1
33	37	1
45	56	1
84	120	1
23	32	1
39	40	2
122	135	1
38	57	1
84	85	1
116	129	1
106	123	1
14	14	6
137	143	1
8	12	2
65	95	1
107	108	2
14	18	1
13	105	1
24	29	1
125	126	1
5	6	1
102	102	2
1	2	2
17	17	2
33	36	1
70	71	1
11	13	2
108	108	4
139	148	1
7	45	2
3	69	1
105	106	1
133	148	1
69	71	2
62	63	2
131	133	2
34	40	2
41	122	1
85	87	1
80	80	1
82	109	1
55	56	1
96	96	2
8	11	2
113	114	2
15	17	1
104	106	1
129	130	4
44	51	1
131	142	1
124	154	1
57	94	1
133	152	1
83	85	1
15	16	1
96	97	1
1	22	2
21	38	1
142	145	1
125	125	7
90	116	1
158	159	1
129	133	1
67	67	2
26	33	1
118	135	1
30	65	2
116	127	1
0	45	1
14	15	4
20	43	1
123	126	1
83	118	1
0	139	1
66	91	1
130	150	1
130	134	1
131	135	1
136	137	4
139	152	1
48	49	1
17	19	1
105	139	1
63	63	1
77	105	1
99	155	1
32	32	2
33	34	3
121	146	1
136	141	1
140	142	2
64	64	3
114	117	2
45	46	1
57	61	1
112	116	1
21	135	1
115	116	2
28	99	1
113	115	3
28	29	1
148	152	1
116	120	1
92	95	1
35	47	1
71	91	1
22	42	1
132	158	1
31	33	2
108	131	1
50	51	3
97	97	1
106	112	1
148	150	1
120	132	1
80	119	1
112	131	1
66	106	1
106	129	1
87	91	1
137	139	2
37	40	2
8	47	2
104	123	1
38	39	1
139	140	2
125	140	1
31	43	1
55	63	1
114	121	1
85	86	3
25	25	1
114	118	1
84	84	2
28	120	1
55	55	3
139	149	1
18	22	1
4	5	1
139	155	2
108	111	1
75	127	1
78	78	1
128	134	1
81	94	1
112	114	1
39	45	2
106	158	1
117	124	1
113	136	1
67	147	1
13	15	1
78	84	1
119	120	1
26	55	1
36	37	2
140	156	1
128	148	1
32	50	1
86	91	2
113	117	1
126	127	1
83	84	1
69	70	1
106	128	1
149	154	1
73	107	1
85	85	2
85	93	1
19	19	1
23	24	1
110	111	1
136	145	1
105	107	1
39	142	1
123	142	1
147	148	1
61	113	1
107	140	1
17	20	1
135	157	1
27	49	1
46	47	1
53	69	1
101	139	1
65	80	1
107	135	1
86	96	1
124	142	1
149	150	1
78	80	1
79	79	1
108	110	1
84	116	1
31	47	1
8	10	1
131	156	1
86	87	1
72	72	1
69	116	1
73	75	1
109	111	1
