31	31	4
95	97	1
85	92	1
32	32	4
74	74	15
73	74	2
66	66	9
80	81	2
58	58	7
34	34	4
93	94	2
29	59	1
91	91	6
102	102	2
59	59	5
71	72	1
46	46	7
43	90	1
39	39	3
40	40	6
35	36	4
29	29	3
50	50	5
98	98	11
88	88	7
47	47	6
65	65	13
72	72	4
62	62	8
78	78	9
80	92	1
60	61	1
89	89	12
94	95	1
33	33	7
55	55	4
64	64	5
96	96	4
63	63	7
53	53	7
73	73	8
38	38	8
86	95	1
28	28	2
63	64	3
91	92	2
68	68	9
52	53	1
86	86	9
100	100	8
25	25	3
69	69	6
85	85	7
31	41	1
70	70	5
99	99	3
61	61	3
66	74	1
79	79	3
41	41	8
42	42	9
89	90	3
101	102	3
97	97	5
82	82	5
79	80	2
44	44	7
49	78	1
43	43	6
27	27	7
22	22	2
67	68	2
80	80	9
71	71	7
94	96	1
52	85	1
52	52	7
72	90	2
35	35	9
86	87	4
37	37	6
23	23	1
48	48	11
35	50	1
83	83	8
56	73	1
86	88	5
75	76	1
38	52	3
58	70	1
24	25	2
56	56	5
64	65	2
57	57	5
67	67	9
59	68	1
54	54	5
49	49	5
59	60	5
77	77	4
40	74	2
70	72	2
100	101	1
96	97	3
52	55	1
26	28	1
51	92	1
69	70	2
55	56	2
84	84	9
47	48	1
76	76	6
69	74	1
37	47	1
48	49	2
58	59	1
96	99	2
55	93	1
60	60	4
27	61	1
51	51	4
95	95	2
36	38	1
87	99	1
45	45	2
74	75	1
94	94	10
94	97	2
35	37	1
81	81	11
50	51	5
77	82	1
52	93	2
43	73	1
48	70	1
27	29	2
26	26	9
75	75	8
49	50	2
26	60	2
24	24	2
53	55	1
52	80	1
90	90	7
56	58	1
93	93	5
78	79	1
51	52	1
29	30	1
37	38	2
44	45	3
22	70	1
87	87	1
31	34	1
92	92	10
89	102	1
99	100	3
58	75	1
54	55	1
26	27	2
46	48	1
65	75	1
92	93	2
84	89	1
61	62	1
57	77	1
36	36	3
101	101	3
62	66	1
86	89	2
57	101	1
51	90	1
22	23	2
27	60	1
65	72	1
77	83	1
95	99	1
50	56	1
35	38	1
40	41	2
97	98	3
53	54	2
88	89	1
95	101	1
20	24	1
74	79	1
86	93	1
37	97	1
41	42	2
38	40	3
45	47	1
43	44	1
84	92	1
81	82	2
45	51	2
62	63	1
41	44	1
94	98	1
28	29	1
62	96	1
30	30	2
61	63	1
59	61	1
85	89	1
36	37	1
22	46	1
23	51	1
95	96	1
67	74	1
31	33	1
34	61	1
42	43	1
85	86	1
61	79	1
79	83	1
27	28	1
80	82	1
29	90	1
