37	37	4
100	100	1
57	85	1
179	179	2
176	176	6
147	147	2
137	168	2
42	58	1
169	169	1
139	140	1
133	133	2
26	26	2
145	145	1
119	120	3
131	132	2
39	40	1
3	4	1
115	116	1
31	31	1
151	151	2
55	57	1
153	153	3
38	50	1
155	155	2
148	170	1
32	32	3
132	132	5
89	89	3
105	107	1
74	74	3
134	134	4
24	28	1
102	110	1
164	164	2
122	122	1
87	87	2
159	172	2
66	66	1
121	121	2
133	134	1
134	136	1
172	172	2
43	43	1
165	166	1
116	117	2
20	21	1
150	156	1
93	93	2
65	66	1
116	127	1
103	103	1
41	41	1
173	174	1
44	44	1
55	133	1
87	96	1
5	34	1
177	178	3
158	159	1
112	112	3
175	175	6
159	164	1
96	97	1
24	29	1
98	99	1
168	168	3
117	117	2
26	43	1
150	150	2
123	124	2
130	137	1
97	119	1
74	75	1
113	114	1
172	173	1
126	128	1
104	104	2
122	171	1
40	40	1
10	10	3
145	147	1
40	51	1
103	124	1
125	125	1
99	99	1
75	75	2
14	16	2
53	53	1
92	92	2
158	161	1
4	4	3
53	55	1
164	165	1
136	138	2
174	174	2
8	8	1
136	171	1
171	171	2
136	136	3
102	102	1
18	18	1
84	85	1
33	33	2
81	104	1
61	61	4
13	13	1
16	16	1
35	35	3
95	95	3
26	30	1
9	9	2
142	142	1
137	137	1
39	39	2
148	148	2
108	108	2
21	21	1
111	111	1
16	17	1
108	109	2
59	59	2
19	35	2
30	30	1
56	82	2
27	31	1
3	3	1
5	5	1
55	73	1
80	81	1
35	36	1
24	24	1
145	146	1
78	79	1
77	78	2
141	141	3
79	79	1
161	161	1
120	120	1
63	64	2
11	11	2
173	173	3
78	95	1
68	68	1
128	130	1
65	65	2
103	105	1
80	133	1
159	159	3
142	150	1
74	131	1
129	129	2
3	5	1
143	144	1
2	2	1
9	10	1
146	146	1
12	12	1
6	89	1
82	87	1
113	113	1
140	140	1
101	123	1
167	167	1
57	57	2
118	125	1
22	30	1
42	42	1
118	118	1
132	140	1
41	42	1
143	143	1
14	14	2
100	101	2
0	4	1
152	152	1
67	68	1
61	110	1
149	159	1
81	82	1
138	139	1
32	33	2
76	98	1
56	57	2
56	56	2
86	87	1
162	162	2
131	131	1
25	27	1
67	67	1
24	26	1
30	42	1
19	20	1
52	53	1
158	160	1
160	161	1
154	154	1
18	42	1
72	73	1
72	72	1
11	13	1
