174	177	1
138	139	1
185	185	6
186	186	8
58	58	2
13	14	1
48	48	3
20	21	1
11	21	1
149	149	1
151	151	6
66	69	1
106	106	2
128	128	4
7	8	5
98	98	2
173	173	6
178	179	1
56	56	2
172	172	1
111	112	1
106	107	3
140	141	1
112	115	1
73	73	5
121	121	2
15	15	3
133	133	3
25	25	13
183	190	1
104	105	2
188	189	3
133	142	1
7	7	3
11	131	2
135	146	1
74	74	2
147	147	3
108	109	2
46	46	5
152	160	1
149	151	2
117	117	1
109	110	3
103	106	1
82	83	2
108	120	1
59	59	2
110	110	1
2	2	3
8	95	1
45	46	1
3	23	1
79	79	4
35	36	1
131	131	3
12	12	3
32	48	2
34	34	1
150	150	2
34	35	1
55	70	1
93	145	1
129	129	3
62	63	2
36	48	1
185	186	2
178	178	2
77	77	1
93	93	3
138	138	3
159	160	2
82	82	2
20	20	2
85	119	1
66	66	2
58	61	1
0	54	1
159	159	1
7	26	1
118	134	1
123	158	3
86	86	1
44	44	2
155	178	1
58	59	2
103	148	1
123	155	1
11	11	2
8	8	1
101	103	2
24	24	4
18	21	1
177	177	5
71	71	2
39	39	3
35	35	1
166	166	4
3	3	3
37	37	1
105	107	3
142	142	3
53	53	2
96	96	4
190	190	2
10	13	2
153	153	1
104	115	1
184	185	2
152	152	3
179	179	1
27	27	6
83	83	4
160	160	2
22	22	3
0	0	2
105	120	2
6	6	4
76	76	2
21	22	1
5	5	1
38	38	2
136	136	4
109	109	1
127	127	2
19	19	3
59	61	1
39	75	2
139	144	1
120	139	1
135	139	1
102	103	1
107	107	2
67	67	3
144	144	1
15	16	1
84	84	1
46	93	1
14	14	2
86	133	1
26	32	1
90	91	1
112	112	1
70	70	5
136	137	1
37	109	1
188	188	3
116	119	1
189	189	3
21	23	2
48	58	1
5	6	2
18	18	2
158	158	2
140	140	1
90	94	1
21	21	3
103	104	4
187	187	2
163	163	1
120	120	2
68	68	3
156	156	1
134	161	1
12	60	2
119	119	2
167	168	2
128	160	1
106	109	1
5	18	1
124	124	2
43	44	1
84	85	2
171	173	1
11	13	1
137	137	1
100	100	3
17	18	1
97	97	2
82	84	1
45	45	3
169	169	2
182	183	1
139	139	4
108	108	1
96	136	1
66	67	1
11	23	1
177	178	2
119	122	1
155	155	2
40	40	4
10	10	2
21	27	1
141	150	1
67	68	1
92	101	1
188	190	2
154	154	5
60	61	1
155	169	1
148	148	3
102	107	1
7	42	1
91	93	1
123	123	1
20	24	1
168	168	4
125	171	1
99	99	2
72	73	1
13	15	1
57	57	3
72	74	1
4	4	1
60	60	4
159	169	1
65	66	3
88	88	2
138	152	1
158	159	2
107	109	1
158	164	1
29	29	1
117	118	1
103	119	1
90	90	2
54	54	1
133	134	1
170	170	2
130	130	1
145	146	1
122	122	2
175	185	1
111	123	1
183	183	2
94	97	1
164	164	2
94	99	1
133	182	1
96	99	1
149	158	1
41	48	1
157	158	1
135	147	1
55	56	2
96	105	1
112	117	1
32	35	1
102	102	1
134	166	1
2	3	1
103	103	2
16	36	1
83	178	1
84	118	1
42	43	2
113	115	1
60	63	2
18	20	1
104	134	1
80	80	1
171	171	1
55	55	3
147	159	1
58	80	1
171	175	1
143	143	1
92	92	2
12	13	1
134	134	1
4	5	1
145	145	1
10	12	2
40	41	3
87	87	3
174	174	2
107	162	1
88	109	1
22	28	1
16	16	2
165	165	1
57	58	1
114	115	2
181	183	2
149	150	1
19	26	1
27	30	1
124	155	1
26	38	1
179	182	1
32	32	1
41	41	2
160	167	1
70	92	1
88	89	1
135	168	1
17	17	2
164	165	1
146	146	2
180	182	1
107	108	1
113	114	1
63	65	1
111	111	3
93	121	1
11	12	1
148	150	1
26	37	1
175	175	2
144	153	1
30	35	2
180	180	1
111	178	1
12	21	1
93	100	1
75	75	1
181	181	1
171	172	1
28	29	1
158	167	1
171	174	1
124	125	1
79	80	1
87	88	1
116	117	1
42	42	1
10	11	1
80	81	1
143	144	2
96	97	1
29	30	1
184	184	2
118	118	1
176	177	1
26	26	1
178	180	1
117	134	1
164	175	2
154	165	1
175	188	1
99	112	1
26	28	2
150	187	1
72	72	3
81	87	1
132	132	1
125	126	1
127	128	1
153	154	1
92	94	1
116	116	1
155	156	1
91	92	1
138	145	1
154	155	2
114	114	1
175	177	1
115	116	1
183	184	1
81	81	1
122	155	1
186	187	1
64	64	1
64	105	1
43	43	1
62	62	2
130	132	1
100	101	1
0	21	1
142	144	1
115	131	1
89	89	1
52	53	1
16	27	1
94	116	1
99	100	1
70	72	1
