168	169	1
80	81	1
237	237	3
144	145	2
27	28	2
115	115	1
6	17	1
234	234	2
46	47	1
66	66	1
230	230	2
5	5	1
179	179	2
207	208	1
100	101	2
20	62	2
81	82	1
68	75	1
19	19	2
186	187	3
62	63	3
0	0	1
138	172	1
208	208	2
25	61	2
117	123	1
118	118	2
121	121	1
203	208	1
13	13	2
28	28	3
224	224	1
220	220	1
116	117	1
186	236	1
184	184	4
160	160	1
8	9	2
48	49	1
159	159	5
22	22	6
125	125	4
203	203	2
5	6	3
40	41	2
128	128	3
12	12	2
173	173	1
77	80	1
68	68	5
20	20	3
53	53	2
16	16	2
127	127	1
120	120	4
163	163	1
76	77	1
124	125	3
22	23	1
25	45	1
139	139	1
157	175	1
97	112	1
133	133	1
148	148	1
65	65	3
6	58	1
177	204	4
211	211	1
153	153	3
119	119	3
27	27	2
123	126	1
10	38	1
191	191	2
50	53	2
59	59	1
11	12	1
192	192	1
119	120	2
20	38	1
149	155	1
113	120	1
69	69	2
108	109	2
184	205	1
200	200	1
39	39	1
42	43	1
162	163	3
220	221	1
143	163	1
54	55	1
164	164	4
138	138	2
181	181	2
177	177	1
149	149	2
218	218	3
2	2	3
204	206	1
11	15	1
136	136	1
23	58	1
233	233	1
152	152	2
16	36	1
17	17	4
89	89	1
3	3	1
190	190	2
203	204	1
137	141	1
165	165	3
161	161	1
80	80	1
73	92	1
52	53	1
140	150	1
79	79	2
227	227	2
72	72	5
206	216	1
28	29	1
49	50	1
181	205	1
6	22	1
121	172	1
217	217	2
111	112	1
126	147	1
131	131	5
204	204	2
196	196	2
103	103	1
151	151	6
107	108	2
162	162	2
109	109	1
207	207	1
35	35	3
82	82	1
21	58	2
167	167	2
7	58	2
175	176	1
145	146	2
147	147	5
116	116	3
122	123	2
21	21	1
104	104	3
50	50	1
56	57	1
144	144	2
211	213	2
39	44	1
62	64	1
124	127	1
199	199	1
37	38	1
31	31	1
149	158	1
221	221	1
8	8	3
9	9	1
173	174	1
119	172	1
46	46	4
182	182	2
150	150	4
221	222	2
4	4	1
125	126	2
51	52	1
115	117	1
16	31	1
129	129	1
222	222	1
48	60	1
102	102	2
185	186	1
231	232	1
82	83	2
199	200	1
151	188	1
215	215	2
182	184	1
170	171	2
56	56	1
95	95	1
184	186	1
98	98	1
3	5	1
219	231	1
87	111	1
34	34	3
116	125	1
25	26	2
167	227	1
108	138	1
158	158	1
37	56	2
178	238	2
158	233	2
134	134	4
44	45	1
115	150	1
176	176	3
169	169	2
44	66	1
37	37	1
195	195	1
54	54	2
183	191	1
9	20	1
159	183	1
44	46	1
154	154	1
242	242	1
6	227	1
178	179	2
25	234	1
15	16	2
14	14	2
21	22	1
22	35	1
62	62	1
241	242	1
45	45	2
42	208	1
42	42	1
172	172	1
74	74	1
96	97	1
172	173	1
194	194	1
67	72	1
2	17	1
146	187	1
81	81	1
2	235	1
114	114	2
115	116	1
45	46	1
159	201	1
47	47	1
169	190	1
15	15	1
150	151	1
18	35	2
125	141	1
182	203	1
38	38	1
121	122	1
141	141	2
146	146	1
14	40	1
58	58	1
240	240	1
140	141	1
10	10	1
106	106	1
178	209	1
131	174	1
19	20	1
7	8	1
148	155	1
193	197	2
24	25	2
198	200	1
109	160	1
171	171	2
188	190	2
26	46	1
23	227	1
125	158	1
35	36	1
37	182	1
173	175	1
4	5	1
66	194	1
128	146	1
123	147	1
44	44	1
174	174	1
184	185	1
175	178	1
126	136	1
29	69	1
48	48	1
29	30	1
198	198	1
48	225	1
28	30	1
47	48	1
157	158	1
183	204	1
27	237	1
125	167	1
61	62	1
123	123	1
67	67	1
121	136	1
78	78	1
0	1	1
174	177	1
75	76	1
224	230	1
172	242	1
26	27	1
9	178	1
84	84	1
164	165	1
23	34	1
155	156	1
55	69	1
