102	109	2
119	122	2
103	112	1
110	110	5
6	7	4
68	75	1
38	43	3
43	43	4
10	14	3
15	51	3
72	75	2
33	33	3
42	42	2
71	73	3
115	115	2
50	50	3
22	23	1
72	92	1
30	30	3
99	101	1
93	93	2
112	114	1
33	34	2
24	24	3
64	65	1
116	143	1
85	87	1
122	122	2
105	105	1
96	96	2
107	107	1
142	143	1
131	132	1
73	77	1
95	99	1
79	79	2
72	81	1
145	147	2
98	143	1
114	114	1
58	117	1
127	127	1
112	113	2
121	121	5
112	137	2
11	45	1
69	70	2
106	115	2
136	136	3
146	146	1
68	81	2
123	126	1
129	130	1
34	62	1
45	52	2
113	137	1
123	123	2
106	106	1
110	136	3
49	50	2
39	39	4
75	75	1
24	124	1
23	42	1
54	55	1
69	69	1
31	31	1
132	133	1
24	120	1
145	145	1
92	132	1
76	76	2
53	54	1
25	26	2
20	39	2
137	137	2
50	64	1
133	133	1
36	36	5
138	138	1
81	81	2
104	109	2
32	33	1
128	141	1
80	80	1
13	15	3
106	114	1
32	32	3
140	140	1
26	26	2
101	101	1
5	5	2
99	99	2
69	79	2
78	78	1
107	108	1
139	139	1
55	55	2
6	6	1
19	21	1
96	99	1
84	84	1
58	67	2
48	48	2
97	99	2
119	149	1
79	80	2
71	129	1
119	120	1
133	134	1
116	117	1
22	22	2
7	8	3
68	95	1
128	128	3
13	13	2
72	72	1
119	119	1
148	148	1
21	21	1
140	148	1
45	58	1
67	79	1
74	78	1
110	114	1
6	26	1
12	30	1
149	149	3
32	34	2
63	63	2
135	135	1
6	19	1
38	38	1
95	124	2
67	67	1
129	129	2
108	108	1
11	12	1
153	153	1
63	65	1
21	33	1
43	45	1
73	73	2
74	76	1
116	116	3
147	147	1
124	129	1
141	141	1
13	14	2
126	126	2
77	77	2
86	98	1
53	69	1
92	95	1
82	82	1
125	125	1
137	141	1
57	57	1
53	53	1
86	86	1
48	64	1
103	103	2
17	120	1
66	66	1
104	105	1
124	124	1
104	114	1
35	93	1
138	139	1
51	51	1
65	75	1
131	138	1
142	142	1
138	145	1
106	107	2
29	32	1
135	149	1
41	42	1
111	137	1
69	75	1
35	35	1
22	40	1
101	102	1
9	10	1
118	119	1
144	144	2
148	149	1
85	85	2
109	109	1
7	7	1
10	11	1
75	79	1
31	32	1
35	36	1
61	94	1
143	143	2
20	24	1
19	33	1
9	46	1
115	117	1
120	123	1
58	58	1
56	56	2
95	97	1
14	14	2
8	8	1
20	20	1
70	70	1
110	112	1
57	64	1
10	10	1
130	130	1
9	9	2
5	25	1
83	87	1
27	30	1
34	35	1
23	23	1
16	16	1
14	20	1
68	68	1
74	74	1
