48	81	1
52	52	5
21	22	1
75	75	4
22	22	7
79	79	4
60	60	10
23	88	2
78	80	1
2	3	3
80	81	5
84	85	3
23	23	3
27	27	6
54	54	7
65	65	11
78	79	6
21	21	5
29	29	2
68	69	1
48	59	2
68	68	6
4	4	8
86	86	6
66	66	4
72	72	8
30	30	8
47	49	1
58	58	7
67	67	10
48	48	9
86	87	2
24	24	6
14	14	6
76	80	1
33	33	1
51	52	5
69	70	3
49	49	5
51	51	4
64	65	6
25	26	7
26	26	5
5	17	1
3	84	1
12	12	10
59	59	7
47	47	11
73	73	17
17	57	1
81	81	10
66	79	2
3	3	11
64	64	10
6	52	2
70	70	7
0	0	3
46	47	5
21	23	1
69	69	9
82	82	7
19	21	1
57	65	1
56	56	12
84	84	20
76	76	5
2	2	4
63	63	8
53	53	5
8	8	9
50	50	10
23	24	3
7	7	7
87	87	5
75	76	1
6	6	8
71	71	7
85	85	16
23	69	1
25	25	6
61	61	9
13	25	1
5	5	8
4	28	1
17	17	10
82	83	3
57	66	1
50	82	1
31	31	6
28	28	3
88	88	5
78	78	5
63	66	2
80	80	6
9	9	3
48	49	3
33	55	1
74	74	4
29	30	1
90	90	1
74	75	2
10	12	2
58	61	1
55	55	5
58	59	2
50	51	3
57	58	1
11	11	9
59	61	1
20	21	1
58	71	1
57	57	7
10	10	4
65	66	4
20	20	3
50	53	2
77	77	7
11	12	1
64	66	1
52	64	1
20	71	1
12	13	1
18	19	1
70	71	2
59	60	1
66	67	1
63	65	4
58	60	1
15	15	1
22	26	1
67	68	3
46	46	2
19	19	3
63	64	1
31	66	1
61	62	2
24	25	1
4	84	1
55	56	2
74	83	1
83	83	4
57	84	1
83	84	1
52	54	1
48	50	3
34	51	1
1	1	4
15	16	1
1	58	1
6	56	1
25	27	1
62	62	2
9	22	1
13	13	6
71	85	1
60	61	2
22	24	1
48	53	2
6	8	1
53	55	2
7	77	1
54	66	1
54	55	1
12	75	1
80	83	1
5	26	1
62	64	1
77	78	2
54	56	2
34	34	2
88	89	1
16	16	1
19	20	4
2	16	2
60	63	2
18	28	1
8	10	1
12	14	1
26	27	1
49	50	1
20	22	1
66	83	1
89	89	3
6	20	1
5	6	2
50	57	1
59	62	1
79	80	1
69	90	1
9	10	1
55	57	1
32	32	1
35	35	1
85	86	1
49	51	1
55	61	1
52	66	1
