154	156	1
33	33	6
24	24	2
80	81	1
107	107	2
90	90	2
133	133	1
162	162	2
71	71	2
15	16	2
15	15	2
63	63	2
117	117	3
71	72	3
133	134	1
139	139	4
106	107	3
174	174	2
34	56	1
21	21	2
7	9	1
2	2	3
83	83	4
76	76	4
79	79	5
90	91	2
56	61	1
98	98	1
67	67	4
42	43	1
77	77	2
149	149	2
145	145	2
37	37	6
138	138	3
130	130	1
132	132	1
91	91	1
57	63	1
134	134	7
125	125	3
141	141	3
169	169	3
149	150	1
167	168	2
171	171	2
58	59	1
143	143	2
6	10	1
141	145	3
36	36	5
61	61	5
57	57	2
180	180	2
153	153	2
113	113	2
95	95	2
168	168	2
83	99	1
112	114	1
116	116	2
144	146	1
93	93	1
55	55	2
124	124	2
12	13	2
4	5	2
103	115	1
88	88	3
179	179	2
29	29	2
113	114	1
53	75	1
140	141	1
1	1	5
52	52	2
90	92	1
32	40	2
129	130	1
122	122	1
171	172	1
11	11	1
13	13	4
11	19	1
134	179	1
127	130	1
39	41	1
136	137	1
44	44	1
23	23	3
132	134	1
176	176	3
12	15	1
43	43	3
6	6	3
173	173	1
126	126	2
140	140	3
38	38	6
37	38	2
163	163	3
179	180	1
0	0	3
50	50	1
35	35	2
12	12	2
178	178	1
40	40	1
68	70	1
150	150	2
108	108	2
170	170	1
131	131	4
164	167	1
67	68	1
5	5	4
98	107	1
49	49	1
81	81	1
137	148	1
144	145	1
165	165	3
2	4	1
92	95	1
92	93	1
74	112	1
152	152	2
53	55	1
11	13	1
156	161	1
31	37	1
17	17	3
110	113	1
104	105	3
87	87	2
143	146	1
28	30	3
16	16	3
3	3	2
68	68	1
132	149	1
103	107	1
31	32	2
36	37	3
135	135	4
82	82	1
102	105	1
109	109	1
86	86	2
78	79	4
128	128	2
106	106	3
53	68	1
120	120	2
73	91	1
67	71	1
61	88	1
120	121	1
154	154	2
157	159	1
153	156	1
41	41	3
177	177	4
42	79	1
115	115	1
38	55	1
54	54	1
162	163	1
163	165	1
41	53	1
3	4	2
15	19	1
80	89	1
147	147	1
131	142	1
142	143	1
115	144	2
125	148	1
90	94	1
62	63	1
51	51	1
11	76	1
32	32	1
127	127	3
3	17	1
59	62	1
26	44	1
167	167	2
117	127	1
119	119	1
97	98	2
111	144	1
74	74	1
172	172	1
123	123	1
60	60	2
76	121	1
130	131	1
111	125	1
97	101	2
127	150	1
64	64	1
109	110	1
107	109	1
164	165	1
66	81	2
122	123	1
123	125	1
158	158	1
139	148	1
121	124	1
173	174	1
57	58	2
18	19	1
80	80	2
158	169	1
10	10	1
33	34	1
18	18	1
17	18	1
156	156	2
14	14	2
25	25	1
175	175	2
75	75	2
53	54	2
78	78	1
136	136	2
96	104	2
98	101	1
121	121	1
73	75	1
70	71	1
97	97	1
33	65	2
59	59	2
20	20	1
26	26	1
82	87	1
34	34	3
19	19	2
26	42	1
62	64	1
66	66	1
41	45	1
97	161	1
22	25	1
20	21	1
109	113	1
84	84	1
65	65	1
123	124	1
114	115	1
155	155	1
95	102	1
83	84	1
100	100	1
112	112	1
158	162	1
108	109	1
46	46	1
26	30	1
159	159	1
41	43	1
8	12	2
72	72	1
133	136	1
118	119	1
4	12	1
5	35	1
29	35	1
55	65	1
98	99	1
28	28	1
172	176	1
9	14	1
