47	70	1
46	47	1
56	60	1
8	8	4
33	45	1
110	111	3
2	4	1
43	47	1
109	109	2
80	80	5
18	18	1
1	2	1
64	64	3
92	92	2
133	133	7
86	86	6
11	11	3
99	99	4
62	62	1
37	37	2
52	52	4
73	73	3
123	123	2
126	126	3
4	4	1
15	15	1
36	36	2
6	6	2
124	125	1
124	124	3
72	75	1
131	131	4
68	68	2
104	105	2
95	95	2
32	32	2
33	33	3
97	132	1
112	131	1
79	79	3
105	116	1
56	59	4
65	69	1
35	35	5
102	102	3
97	97	1
100	101	1
66	66	2
111	111	1
16	16	3
28	28	1
53	67	1
94	94	2
65	65	2
57	57	4
73	81	2
71	76	1
120	121	1
33	34	1
119	120	1
71	71	2
79	114	1
67	67	1
55	55	2
1	1	4
52	57	2
107	107	1
75	75	2
17	17	5
129	129	1
104	104	2
128	132	1
56	56	1
105	106	2
108	109	1
83	83	4
112	112	4
13	34	1
73	97	1
127	127	1
27	29	2
78	78	5
85	85	1
112	113	1
74	74	1
23	23	2
61	62	1
103	103	1
33	35	1
86	87	1
26	26	1
5	13	1
69	69	3
3	4	2
106	110	1
5	5	4
59	60	1
2	3	1
95	97	1
25	25	2
80	86	1
95	96	2
26	27	2
38	43	2
65	68	1
74	75	1
96	96	1
11	12	1
64	66	1
84	84	4
43	43	1
48	48	2
107	119	1
50	96	1
120	120	1
107	113	1
104	115	1
13	13	3
22	22	3
6	9	1
105	105	2
112	132	1
35	38	1
114	114	2
54	58	1
117	122	1
8	9	1
65	72	1
44	44	1
65	66	1
27	27	2
6	15	1
72	72	3
29	47	1
25	26	1
61	71	1
9	20	1
5	30	1
79	80	1
53	59	1
46	69	1
122	122	2
78	79	1
5	11	1
12	13	1
21	21	1
0	6	1
58	58	2
63	63	4
61	78	1
31	31	2
87	87	2
30	30	1
10	10	2
50	50	1
67	69	1
96	116	1
67	68	1
8	11	1
50	52	1
19	19	1
101	102	1
84	85	3
28	101	1
3	3	1
82	82	1
20	20	1
46	46	1
13	49	1
71	73	1
57	59	1
49	49	3
13	125	1
5	80	1
52	53	1
76	100	1
70	84	1
65	82	1
126	130	1
98	98	1
49	50	1
5	6	1
87	90	1
73	75	1
36	37	1
130	130	1
93	93	1
77	114	1
65	74	1
55	56	1
97	121	1
71	105	1
2	2	1
106	106	2
60	60	1
19	20	1
94	105	1
99	101	1
42	42	1
5	43	1
23	25	1
