126	126	4
61	63	1
73	73	7
121	124	4
107	107	4
98	100	2
110	118	1
71	86	1
75	75	2
108	122	1
59	59	3
75	90	1
110	123	2
8	8	2
15	15	1
114	114	7
86	87	1
95	95	2
26	27	1
78	78	1
122	122	1
96	109	2
99	116	1
77	83	1
123	124	2
112	112	2
12	13	1
85	85	2
77	90	1
44	44	3
88	90	2
131	131	4
68	77	3
18	27	2
10	11	2
69	70	1
37	37	1
88	102	1
11	11	2
32	45	1
92	107	1
38	38	1
104	104	3
107	108	1
130	131	1
134	134	1
69	74	3
39	39	2
56	57	2
19	19	2
92	95	2
30	31	2
108	109	1
79	79	2
118	118	2
26	43	2
126	132	1
105	106	1
112	127	1
64	69	1
39	40	3
20	20	2
118	119	1
44	49	1
35	42	2
117	117	2
72	90	1
108	110	1
71	71	2
107	114	1
90	107	2
72	72	2
100	100	2
7	7	1
127	127	4
74	77	1
98	105	1
130	130	1
80	80	4
58	58	2
17	17	1
10	93	1
110	111	2
103	103	1
110	110	1
100	116	1
27	27	1
87	87	1
50	50	2
6	6	2
22	22	1
81	81	1
18	18	3
57	57	2
125	128	1
35	38	1
24	25	2
55	57	1
55	55	2
28	48	1
92	92	1
83	84	1
118	131	1
85	86	2
87	88	1
13	27	1
34	36	1
96	96	1
88	103	2
83	98	1
5	5	1
117	134	1
129	129	1
29	29	1
108	129	1
102	107	1
83	83	1
14	16	1
113	114	2
21	21	3
62	63	1
28	28	1
60	60	2
103	105	1
0	13	1
109	109	2
59	60	2
68	72	1
87	105	1
111	118	1
62	62	1
90	100	1
78	79	1
33	46	1
1	2	1
42	42	1
76	85	1
34	49	1
124	128	1
66	76	1
127	130	1
80	107	1
63	68	2
122	128	1
17	33	1
10	25	1
31	32	1
65	77	1
60	64	1
94	111	1
81	87	1
26	26	2
47	48	1
100	101	1
96	105	1
113	125	1
3	3	1
123	123	4
24	27	1
116	124	1
122	126	1
94	115	1
93	98	1
33	33	1
116	117	2
10	10	1
91	91	1
102	105	1
74	75	1
15	24	1
115	115	1
69	69	1
11	72	1
5	15	1
37	43	1
82	84	1
45	67	1
5	7	2
127	128	1
46	46	1
59	63	1
18	19	1
104	116	1
76	77	2
85	87	2
24	49	1
133	133	1
107	115	1
98	114	2
2	11	1
97	97	1
103	120	1
30	43	1
61	82	1
77	78	1
28	31	1
132	133	1
124	133	1
122	123	1
26	134	1
14	14	2
117	120	1
130	134	1
63	67	1
10	16	1
77	91	1
32	40	1
12	12	1
104	120	1
60	71	1
113	113	1
17	18	1
63	97	1
7	8	1
10	94	1
109	110	1
73	74	1
58	66	1
30	42	1
115	134	1
125	129	1
9	11	1
38	48	1
113	120	1
117	133	1
119	119	1
47	47	1
11	28	1
94	95	1
74	74	2
78	82	1
128	128	1
22	37	1
9	16	1
28	44	1
121	125	1
90	90	1
121	121	1
74	98	1
