33	33	3
78	78	10
45	45	1
123	123	4
28	28	3
121	121	1
63	83	1
72	72	7
13	13	4
73	73	2
2	2	7
84	85	4
86	110	2
49	50	3
55	56	2
63	63	6
16	16	3
67	68	1
108	108	3
86	86	4
121	122	1
89	90	1
79	79	4
43	43	2
72	77	1
75	75	9
64	64	4
26	28	1
124	124	1
19	19	1
104	104	2
86	111	1
115	130	1
13	30	2
78	79	3
66	66	2
122	123	1
50	75	2
38	38	1
85	85	2
47	47	2
102	135	1
66	70	2
73	75	1
1	1	1
60	84	1
80	81	1
63	64	1
81	81	1
73	74	2
123	124	1
19	20	1
52	52	2
65	80	1
6	6	1
7	11	1
82	82	6
131	133	1
82	86	3
106	107	1
126	127	1
74	96	2
98	98	2
91	92	3
43	70	1
83	83	3
128	129	1
93	93	2
49	49	5
76	77	3
11	11	3
80	80	7
30	30	2
48	48	1
27	27	2
59	59	1
76	76	5
34	34	1
5	5	4
1	2	2
50	50	7
14	14	1
43	47	1
135	135	1
27	28	2
89	92	3
54	54	3
106	112	1
45	52	2
9	10	2
28	35	1
91	91	1
32	32	3
129	129	1
62	63	1
111	112	1
25	115	1
57	59	3
16	35	1
53	53	2
14	31	2
61	81	1
70	71	2
27	43	2
66	69	1
54	56	1
53	69	1
30	100	1
94	94	2
50	60	1
101	101	4
21	21	2
26	26	3
50	56	2
7	7	1
21	24	1
105	105	6
127	127	2
52	54	1
15	15	3
115	115	1
112	112	3
109	109	3
116	116	1
74	74	3
122	122	2
110	110	1
79	88	1
97	100	1
53	54	1
58	78	1
11	33	1
11	12	1
6	26	1
89	91	1
70	79	1
107	107	2
97	101	1
92	93	2
118	134	1
118	135	1
20	20	2
62	64	1
31	31	2
65	65	1
78	82	1
26	128	1
125	132	1
54	57	1
44	44	2
3	3	1
102	102	1
114	114	1
29	29	1
0	0	1
37	37	1
13	14	1
31	33	1
71	71	2
108	117	1
90	90	4
29	30	1
22	23	1
97	104	1
117	117	3
55	55	1
75	76	1
128	128	2
130	130	1
112	130	1
56	56	1
49	52	1
69	69	2
125	135	1
87	87	4
61	62	1
53	60	1
83	86	1
99	99	1
106	106	1
77	77	1
126	126	1
52	79	1
76	82	1
120	120	1
82	84	1
84	84	1
72	76	1
103	104	1
47	72	1
24	25	1
12	15	1
62	62	1
22	22	1
116	118	1
86	87	1
36	36	1
54	58	1
58	58	1
77	79	2
10	21	1
65	66	1
17	17	1
61	61	1
23	75	1
5	19	1
16	17	1
35	37	1
89	89	1
92	92	1
109	110	1
34	35	1
88	89	1
12	12	1
45	51	1
5	101	1
62	86	1
96	96	1
78	88	1
