21	21	6
84	118	1
110	110	9
75	75	2
215	215	2
59	59	6
170	170	6
23	23	1
248	248	2
73	73	4
115	115	3
235	235	6
172	173	1
202	202	3
67	68	1
9	9	7
195	195	6
183	183	5
25	26	3
186	188	1
56	57	2
36	36	3
71	71	5
214	214	12
116	116	4
18	18	2
111	112	3
238	240	1
230	230	7
37	152	2
188	188	6
74	75	1
196	196	1
175	180	1
203	203	7
30	30	7
184	184	4
181	181	6
3	11	2
223	235	2
151	152	2
20	20	5
39	39	4
51	51	1
6	6	7
15	16	1
101	101	4
90	91	1
246	246	5
219	219	9
97	97	2
172	177	1
232	232	7
205	206	1
53	53	3
208	209	2
41	41	8
49	49	8
228	228	5
199	199	5
177	177	6
232	246	1
175	176	3
104	104	3
108	108	2
167	167	2
190	196	1
15	15	3
79	84	1
7	32	1
233	243	1
179	179	4
82	82	1
205	205	13
160	160	3
197	231	1
117	118	1
180	180	6
171	171	6
204	204	10
233	246	2
222	222	3
46	46	6
188	190	2
48	48	7
227	227	5
220	220	8
97	98	1
90	90	2
5	49	1
10	10	8
44	44	6
43	43	8
213	213	7
168	169	2
156	156	4
197	235	1
55	55	1
47	48	1
24	25	1
161	161	6
2	2	2
14	14	5
65	66	2
189	189	1
2	6	1
64	64	4
172	172	5
44	110	1
157	157	6
27	27	8
210	210	5
50	57	2
33	35	1
42	42	2
162	162	6
196	198	1
173	173	1
12	13	2
92	92	3
187	189	1
77	77	3
153	185	1
218	242	1
185	185	3
168	168	6
107	107	4
3	4	1
102	105	1
218	237	1
243	244	1
187	187	4
229	229	9
195	196	1
93	161	2
71	76	1
188	219	1
236	236	3
16	16	4
200	241	1
240	240	5
26	26	3
81	82	1
225	225	8
112	112	5
191	192	3
49	50	1
111	111	4
78	97	1
184	185	2
69	69	5
53	54	1
154	154	2
169	172	2
227	231	1
244	244	4
100	100	3
3	3	3
67	67	4
44	158	1
14	16	2
186	190	1
96	103	2
186	238	2
61	223	1
216	217	3
109	109	8
74	74	3
59	64	1
20	34	1
5	6	3
153	153	7
56	56	3
167	169	1
211	219	1
22	22	5
19	20	2
204	227	1
218	219	1
117	119	3
177	178	2
184	186	1
220	247	1
200	200	5
71	73	1
200	236	2
242	243	2
8	45	1
8	9	2
82	83	1
94	94	2
25	25	3
159	159	7
87	94	1
95	96	1
196	197	2
75	76	2
99	99	3
37	37	4
171	177	1
43	44	1
231	247	1
207	207	5
206	206	2
154	192	2
199	211	2
32	157	2
4	11	1
240	242	2
51	55	1
212	212	2
194	194	1
186	186	4
184	213	1
178	218	2
24	206	1
216	216	1
84	84	3
200	214	1
47	47	8
83	84	3
32	32	4
46	65	1
12	12	6
78	78	4
91	91	2
163	164	2
3	5	1
79	79	3
178	179	1
5	5	6
178	178	3
211	211	6
182	182	2
203	205	1
38	47	2
63	64	1
245	245	4
218	238	1
66	66	4
52	52	5
234	234	3
7	7	4
105	106	1
14	20	1
33	65	1
238	238	1
43	119	2
94	118	1
27	32	4
114	114	3
221	221	4
212	226	1
81	83	2
47	54	1
197	197	5
222	223	2
234	245	2
166	167	3
38	38	9
211	212	2
93	94	1
207	211	1
65	203	1
61	63	1
116	117	5
9	29	2
58	58	7
118	118	3
227	228	1
45	45	4
165	165	6
224	225	3
233	233	7
15	114	1
95	95	3
105	105	2
74	85	3
80	85	1
93	93	1
184	208	1
72	72	2
31	32	1
208	208	3
191	191	7
96	97	1
235	236	2
208	210	1
72	74	1
24	154	1
11	12	3
17	18	3
31	31	5
112	113	3
169	219	1
241	241	5
232	233	2
4	6	1
103	103	1
193	217	1
226	226	3
158	158	3
33	33	3
84	85	1
63	63	6
117	117	4
240	241	2
160	204	1
224	224	9
195	198	1
48	190	2
77	102	1
32	35	1
14	200	1
76	222	1
29	33	1
35	35	2
192	207	1
96	96	1
176	176	5
28	28	7
236	246	1
4	245	1
47	67	1
40	40	6
119	119	2
41	45	1
189	191	2
145	151	1
62	69	1
7	8	1
16	242	1
152	217	1
2	8	1
167	201	1
8	8	3
85	86	1
195	216	1
183	184	2
1	16	1
118	119	1
77	78	1
40	41	2
65	65	4
52	61	1
218	218	5
208	211	1
11	11	3
239	239	1
60	79	1
225	244	1
155	169	1
18	147	1
173	192	1
46	51	1
151	151	2
54	54	4
195	218	1
147	147	3
5	8	1
169	173	1
193	210	1
41	42	2
193	199	1
111	145	1
69	87	1
241	242	4
36	201	1
44	245	1
247	247	4
52	53	1
17	203	1
200	218	1
19	19	3
78	79	1
108	109	1
240	243	1
64	229	1
44	53	1
117	180	1
106	106	1
80	81	2
232	238	1
205	208	1
168	171	1
8	21	1
243	243	2
201	201	6
91	92	1
155	156	1
192	192	3
226	228	1
110	113	1
157	171	1
107	108	1
173	184	1
115	152	1
194	195	3
68	68	3
115	116	1
230	237	1
213	217	2
81	101	1
102	103	1
209	209	5
172	174	1
169	169	1
45	46	3
57	58	2
181	182	2
61	65	1
89	100	2
223	223	6
200	201	2
226	227	1
63	70	1
35	36	1
237	247	1
193	215	1
170	219	1
2	3	1
209	237	1
81	81	1
85	85	1
163	185	2
21	22	2
237	237	1
164	172	1
88	101	1
157	180	1
5	178	1
236	237	1
24	24	1
55	230	1
68	70	1
172	176	1
218	239	1
32	147	1
165	184	1
198	221	1
34	34	4
76	223	1
10	11	2
241	243	1
228	232	1
86	88	2
166	184	1
230	232	2
9	26	1
190	190	1
194	197	1
3	57	1
204	206	2
237	239	1
198	198	1
145	145	1
17	38	1
29	29	3
162	226	1
193	212	1
104	105	2
57	62	1
86	86	1
12	16	1
98	98	3
146	146	3
36	44	1
197	198	1
13	24	1
54	55	1
69	70	1
29	30	1
215	216	1
88	88	2
224	244	1
6	7	3
71	72	3
153	154	1
206	224	1
214	218	1
231	231	1
157	178	1
47	51	1
176	180	1
247	248	1
215	238	1
213	219	1
64	76	1
165	201	1
66	71	1
172	185	1
89	109	1
62	62	1
103	104	1
18	19	1
30	31	1
163	215	1
71	113	2
59	183	1
181	214	1
151	214	1
196	235	1
89	89	2
55	234	2
9	10	1
22	23	1
169	170	2
203	204	2
193	195	1
242	242	4
38	39	1
31	33	1
164	164	1
150	150	2
48	50	1
178	190	1
8	25	1
51	58	1
211	229	1
27	28	1
180	225	1
40	55	1
36	40	1
59	68	1
57	57	2
17	17	1
185	196	1
64	96	1
186	222	1
79	83	1
170	188	1
185	186	2
170	171	1
2	9	1
77	103	1
217	218	1
3	7	1
157	165	3
161	162	1
203	212	1
44	235	1
160	164	1
234	235	1
202	203	1
76	76	1
144	144	1
42	43	1
238	239	1
70	71	1
175	175	2
212	232	1
109	117	1
235	237	1
49	82	1
70	77	1
158	160	1
225	226	1
33	225	1
114	115	1
32	33	1
176	182	1
193	193	2
27	46	1
232	234	1
226	230	1
26	28	1
1	1	1
34	112	1
198	217	1
171	176	1
203	211	1
231	232	1
74	244	1
66	68	1
194	204	1
179	180	4
171	198	1
202	230	1
192	193	1
210	211	1
16	29	1
81	97	1
170	177	1
63	162	1
178	214	1
120	144	1
100	101	1
61	61	1
232	241	1
244	246	1
55	85	1
51	52	1
57	85	1
103	105	1
52	208	1
196	217	1
195	197	2
199	200	1
163	163	1
50	85	1
246	247	1
28	29	1
182	230	1
144	154	1
144	145	1
201	202	1
60	68	1
87	87	1
67	86	1
78	85	2
188	196	1
113	118	1
71	90	1
42	118	1
198	199	1
74	89	1
207	209	1
102	102	1
232	235	1
186	196	1
46	47	2
75	88	1
17	22	1
80	93	1
113	113	1
44	45	1
178	180	1
217	217	1
61	62	1
25	52	1
166	166	1
50	50	1
