88	88	2
44	44	3
12	15	1
2	4	1
57	57	6
10	33	2
116	116	3
150	150	4
170	170	2
140	140	2
32	32	2
80	80	4
6	7	2
55	55	4
24	24	2
36	36	3
171	171	1
133	134	1
4	4	6
50	50	3
114	114	1
66	66	3
124	125	1
53	55	2
39	39	3
1	1	1
161	161	4
73	73	4
147	147	3
39	41	1
134	134	3
135	136	1
64	64	4
87	87	5
105	107	1
23	24	1
28	28	3
3	3	7
41	43	1
15	16	1
2	2	5
30	30	7
68	68	2
15	17	2
159	159	3
148	148	2
173	173	3
85	86	1
5	53	1
28	29	2
110	110	2
56	56	2
11	11	2
172	172	5
27	27	5
16	16	4
121	121	2
11	13	1
141	141	2
127	127	4
124	124	1
75	133	1
3	4	4
79	79	3
11	12	2
133	157	2
169	169	1
44	45	2
132	132	3
143	143	4
154	154	3
148	149	1
146	148	3
56	57	1
96	96	1
75	75	2
20	41	1
26	26	5
170	171	2
92	110	1
89	90	1
127	163	1
2	3	2
31	31	1
78	80	1
149	149	3
98	98	3
164	164	2
60	61	3
117	118	1
25	26	1
139	139	5
15	15	2
180	180	1
120	121	2
59	60	1
104	104	1
84	97	1
8	8	2
94	94	3
49	49	2
93	93	4
33	33	2
102	135	3
111	111	3
177	177	2
174	174	5
18	18	2
160	160	2
118	119	1
158	158	2
102	103	1
58	97	1
8	9	1
151	151	4
163	163	2
37	63	1
135	135	2
149	167	2
6	6	4
0	0	3
118	121	1
31	35	1
16	17	1
15	35	2
4	13	2
159	169	1
67	67	3
119	121	1
95	96	2
176	176	1
58	59	2
74	74	2
19	22	1
145	169	1
117	117	1
52	52	1
142	142	1
59	59	1
34	34	2
129	130	2
5	5	3
14	14	2
18	24	1
54	55	2
18	19	1
78	78	3
81	82	2
87	88	2
72	72	1
113	113	3
120	120	1
128	128	1
113	114	1
130	131	1
77	78	1
136	139	1
82	85	2
24	25	1
85	115	1
19	20	2
104	105	1
119	122	1
40	40	3
20	34	1
178	178	2
157	157	4
88	90	2
97	97	1
136	136	2
82	82	1
35	36	1
132	133	2
1	10	1
66	68	1
72	79	1
177	178	2
146	146	3
9	9	1
119	123	1
163	165	2
85	87	1
145	158	1
43	43	1
90	94	1
133	133	2
84	84	1
42	42	4
158	159	1
145	156	1
80	124	1
8	32	1
168	169	2
51	89	1
23	23	1
13	18	1
101	101	3
0	1	1
99	113	1
63	63	1
123	123	1
77	77	1
60	60	1
77	112	1
162	170	1
17	38	1
173	174	1
107	107	1
33	34	1
40	41	1
40	85	1
125	125	2
110	129	1
71	71	1
88	89	1
5	32	1
61	62	1
18	28	1
154	159	1
146	147	1
17	17	1
38	38	2
12	14	1
134	136	1
179	179	1
138	138	1
51	104	1
12	13	1
44	85	1
41	41	1
40	42	1
43	44	1
89	89	1
109	109	1
167	167	1
103	105	1
53	61	1
3	15	1
90	90	1
137	137	1
13	13	1
80	81	1
144	144	1
79	89	1
135	140	1
73	74	1
115	157	1
108	109	1
160	161	1
137	138	1
118	132	1
108	108	1
53	104	1
82	93	2
118	120	1
103	103	1
