99	99	6
80	80	2
117	117	3
42	45	2
94	94	5
120	120	7
111	111	5
80	86	1
25	25	5
110	113	2
45	45	1
106	106	6
102	104	2
49	68	1
59	60	3
42	49	1
11	11	2
0	0	3
7	7	2
23	23	6
115	117	1
89	89	2
112	113	4
92	92	11
66	80	1
109	109	6
122	122	5
2	55	1
44	81	1
121	122	1
58	125	2
91	91	2
105	131	1
40	45	1
97	97	7
71	71	6
116	116	7
58	76	1
17	24	1
30	31	2
54	114	2
62	62	5
78	78	7
50	51	3
24	24	3
133	133	3
58	59	1
57	96	1
33	33	5
131	131	6
52	52	5
70	71	1
56	56	5
111	113	2
29	30	3
26	26	4
94	117	1
49	116	1
124	124	8
22	22	5
68	68	6
98	104	1
65	69	2
68	69	1
113	115	1
112	112	6
64	64	4
53	111	1
25	26	2
15	16	1
76	76	3
84	84	2
3	3	1
104	104	8
89	90	2
51	53	1
38	38	5
48	48	6
81	91	1
58	58	6
76	77	3
106	107	4
101	105	2
47	47	6
128	128	5
77	84	1
125	125	4
67	67	4
126	126	6
74	75	2
31	31	5
7	8	2
107	107	3
101	101	3
74	74	3
70	108	1
70	70	4
53	53	2
108	108	2
132	132	6
90	90	4
59	59	2
127	127	5
119	119	7
96	96	1
93	93	2
29	29	2
42	42	2
60	99	1
114	114	5
41	41	4
72	72	3
110	110	3
44	47	1
117	129	2
30	30	3
113	113	12
10	10	3
30	39	1
17	17	3
58	114	3
71	72	1
72	77	1
129	129	6
113	122	2
8	8	3
56	114	1
87	89	1
18	19	2
12	12	1
118	118	5
118	129	1
64	80	1
77	77	3
43	43	1
15	15	1
103	104	1
93	124	1
123	123	4
64	65	1
46	76	1
59	61	1
81	81	4
4	5	3
5	5	3
18	18	6
91	93	1
19	19	3
22	107	1
22	48	1
72	75	2
55	55	4
55	59	1
77	78	2
71	76	1
99	101	3
75	77	1
100	101	3
98	99	2
21	22	1
40	116	1
34	34	1
21	24	1
80	82	1
103	127	2
99	119	2
118	119	1
114	115	3
105	119	1
42	46	2
21	32	1
66	67	2
43	44	1
100	103	1
48	107	1
79	79	3
103	117	1
23	76	1
77	112	1
10	26	1
53	54	1
103	103	4
105	105	4
18	30	2
114	129	1
34	38	1
52	59	1
23	89	1
1	94	1
49	110	1
3	110	1
50	50	6
57	57	3
61	61	3
94	125	2
73	73	2
27	27	2
13	13	1
130	132	1
65	68	1
7	9	1
79	97	1
45	49	1
41	42	1
40	41	2
55	62	1
69	104	1
131	132	3
55	77	2
108	112	1
49	49	3
66	66	3
121	121	3
42	67	1
102	102	2
63	63	7
73	75	1
93	95	1
59	127	1
95	96	1
110	131	1
84	97	1
10	28	1
103	109	1
95	110	1
71	94	1
97	98	4
69	69	3
86	86	3
85	85	4
83	98	1
78	82	2
91	128	1
110	111	2
41	75	1
51	51	4
90	94	1
79	80	2
1	3	2
98	100	1
126	128	3
54	54	6
32	32	2
114	116	1
75	90	1
98	98	3
73	101	1
83	107	1
63	103	1
88	89	1
69	77	1
87	87	1
75	75	4
46	47	2
92	93	1
40	47	2
93	132	2
114	118	1
82	93	1
65	66	2
21	48	1
9	9	1
129	131	1
28	58	1
60	87	1
73	97	1
44	45	1
121	126	1
65	65	1
96	97	2
90	120	1
94	96	1
83	114	1
104	105	2
60	60	3
40	52	1
40	70	1
44	44	1
66	100	2
85	86	1
60	61	2
89	105	1
16	20	1
113	114	2
53	62	1
78	103	1
130	130	5
130	133	1
12	48	1
39	39	1
23	32	1
28	28	3
17	18	2
96	131	1
66	85	1
49	50	1
21	21	1
95	95	3
43	71	1
28	30	1
48	49	1
28	56	1
68	71	1
44	66	1
122	123	1
67	70	1
118	120	1
78	100	1
75	76	1
117	119	1
22	24	1
51	68	1
64	67	1
96	115	1
111	112	1
22	23	1
42	68	1
0	19	2
119	120	1
22	26	1
104	106	1
87	96	1
40	44	1
85	95	1
115	115	2
101	103	1
52	53	2
38	40	1
16	16	1
121	123	1
39	40	1
73	90	1
50	53	2
51	115	1
4	4	2
59	62	1
100	120	1
8	33	1
100	118	1
103	130	1
72	74	1
42	65	1
101	115	1
118	131	1
130	131	1
8	111	1
100	100	3
91	92	1
16	32	1
82	82	1
76	81	1
107	108	1
54	59	1
88	88	1
24	58	1
127	128	1
28	76	1
80	101	1
74	83	1
30	33	1
2	6	1
9	10	1
120	121	1
109	121	1
70	75	1
86	87	1
83	84	1
12	69	1
54	69	1
