45	45	1
169	169	4
57	65	1
162	162	2
41	155	1
12	12	3
96	96	4
42	42	2
80	80	4
3	160	2
112	112	2
100	100	2
147	147	1
43	43	3
160	164	1
98	100	1
68	69	1
24	24	1
9	9	1
76	76	2
113	114	2
101	120	1
91	127	1
10	11	1
17	17	1
123	141	1
81	81	2
143	143	2
40	41	2
147	149	1
38	39	1
25	49	2
64	64	2
139	139	1
84	89	1
83	84	1
161	161	4
56	56	3
23	23	2
153	153	1
150	150	2
21	21	1
159	159	3
166	167	1
28	28	4
162	163	1
27	27	2
1	5	2
54	54	1
156	156	6
155	155	1
55	55	1
22	164	1
160	160	2
79	79	3
99	99	4
144	144	4
57	62	1
141	142	1
53	53	1
90	90	1
37	38	1
146	160	1
110	110	2
79	103	1
52	52	1
138	164	2
129	129	1
165	166	1
41	41	1
115	145	1
145	148	2
127	127	1
121	137	2
112	114	1
19	19	1
86	86	3
121	121	1
5	5	1
8	10	1
22	22	1
92	135	1
105	134	1
57	67	1
7	25	1
26	26	2
107	108	1
26	66	1
141	141	4
25	25	1
23	24	3
87	87	1
42	166	1
43	157	1
48	54	1
132	132	1
117	117	2
156	164	1
137	137	5
71	87	1
57	57	1
7	7	1
142	142	2
64	67	1
1	1	1
123	123	1
146	163	1
62	62	1
101	101	2
37	56	1
40	40	2
71	71	1
145	145	1
164	164	2
131	134	2
11	13	2
76	81	1
86	94	1
27	50	1
158	158	1
78	101	1
163	163	2
44	44	2
104	104	1
160	161	1
38	51	1
51	51	1
58	100	1
38	38	1
14	15	1
47	47	3
137	142	2
19	91	1
138	139	1
13	53	1
125	125	2
98	98	1
37	37	4
144	151	1
115	144	1
113	113	2
4	14	2
141	144	1
20	20	1
94	94	2
131	131	1
49	54	1
21	22	1
157	158	1
14	96	1
36	37	1
69	114	1
130	131	1
50	51	1
109	155	1
8	9	1
109	109	1
22	165	1
159	160	1
0	0	2
170	170	1
103	103	1
131	163	1
47	53	1
51	133	1
138	138	2
144	156	1
110	137	1
149	150	1
55	76	1
83	83	1
85	94	1
128	131	1
2	2	1
157	160	1
34	34	1
153	164	1
167	167	1
35	35	1
123	135	1
114	114	1
9	10	1
43	44	2
136	136	1
27	28	1
1	3	1
95	96	1
0	25	2
49	49	2
143	155	2
34	35	1
64	66	1
107	107	1
144	149	1
119	119	1
119	121	1
72	72	1
