104	104	5
100	154	1
26	54	2
71	71	5
40	41	1
159	166	1
128	128	1
189	190	1
21	21	8
41	47	1
146	146	3
184	184	5
110	112	1
24	24	2
176	177	1
38	38	3
126	183	1
85	85	4
123	187	1
58	58	1
174	175	1
89	89	2
139	139	2
99	99	1
77	78	1
33	34	2
133	139	1
143	143	5
77	77	2
131	138	2
94	103	1
95	95	1
129	129	2
113	113	1
142	142	3
44	44	2
151	151	1
117	118	3
1	1	2
24	36	1
70	70	1
0	44	1
83	84	1
100	100	4
46	46	3
109	109	2
179	180	2
72	73	1
168	168	4
85	88	1
100	101	2
140	140	2
64	65	1
84	152	2
58	73	1
130	130	1
115	115	1
186	186	3
188	188	3
167	167	4
121	177	1
148	155	1
32	32	3
145	145	4
61	61	1
76	76	1
178	178	2
105	105	4
16	16	3
113	114	2
103	106	1
8	8	3
153	153	3
72	72	1
79	79	1
45	45	3
117	117	4
158	159	1
43	43	5
78	78	3
134	136	1
73	75	1
111	150	1
56	56	2
2	2	2
31	34	1
91	91	1
77	88	1
156	156	2
126	127	4
87	87	3
83	83	2
126	128	1
111	111	1
174	174	3
116	142	2
164	164	2
158	158	1
81	81	1
61	62	1
14	42	1
92	94	1
26	26	1
179	187	1
155	159	4
25	26	2
133	134	1
175	176	1
66	66	3
37	37	1
80	80	2
147	151	1
173	173	1
38	40	2
27	28	2
134	138	1
155	155	2
166	168	1
19	20	1
97	98	1
25	25	1
9	9	2
48	48	2
177	179	1
14	14	2
141	142	1
57	57	2
139	140	1
14	16	1
86	151	1
21	24	1
20	20	3
98	98	1
75	75	2
39	40	1
89	93	1
184	185	2
110	110	2
23	23	2
19	34	2
129	130	1
2	144	1
102	104	1
172	172	1
0	0	1
136	137	1
87	89	1
92	92	1
108	109	2
181	182	2
60	60	2
122	122	1
112	119	1
30	47	1
41	41	3
147	147	2
135	138	2
123	123	2
68	68	1
140	150	1
152	153	2
55	56	1
5	6	1
177	177	3
72	95	1
107	107	2
95	101	2
57	73	1
68	172	1
18	18	3
46	48	1
131	152	1
164	166	2
82	83	2
27	42	2
67	67	1
3	3	1
119	119	1
13	13	3
13	14	1
129	136	2
21	22	1
4	5	2
133	136	1
52	52	1
103	108	1
44	45	1
106	114	1
112	113	1
42	44	1
27	27	1
181	190	1
115	117	1
61	67	1
10	10	4
152	152	3
20	21	1
55	55	1
149	149	1
124	125	1
152	154	1
188	189	1
109	110	2
172	189	2
96	96	1
127	127	1
172	173	1
187	187	1
68	69	1
6	7	2
82	82	1
4	4	1
47	47	1
178	182	1
137	157	1
2	3	2
86	86	1
156	157	1
2	4	1
131	131	1
108	108	1
160	161	1
67	71	1
114	117	1
7	7	1
159	159	2
175	175	1
26	32	1
88	88	1
150	150	1
36	37	1
178	179	1
136	136	1
148	148	1
176	176	1
6	6	2
75	76	1
125	125	1
116	118	1
41	42	1
57	74	1
43	44	1
176	190	1
35	35	1
15	32	1
102	108	1
120	120	2
35	36	1
89	104	1
95	121	1
106	108	1
17	17	1
190	190	2
90	91	1
53	53	1
54	54	1
5	5	2
85	87	1
16	32	1
65	66	1
112	112	1
0	2	1
57	75	1
