194	195	1
81	81	5
41	41	8
78	78	4
218	218	6
85	85	4
29	29	8
202	202	9
35	35	6
93	93	3
20	20	5
37	37	5
27	36	1
225	225	4
104	104	2
214	215	5
72	72	4
211	211	9
169	170	2
214	214	3
67	68	1
26	27	1
60	61	3
30	30	2
207	207	7
41	42	1
159	165	1
18	18	9
216	217	5
174	174	7
23	23	8
39	39	7
183	211	1
1	1	4
183	183	9
227	227	6
178	181	1
172	177	1
117	117	5
161	162	1
6	27	1
187	188	1
179	181	1
208	208	4
81	82	3
12	15	1
198	199	4
6	7	1
115	171	1
241	241	4
215	220	1
225	226	3
30	42	1
107	107	2
152	176	1
157	157	7
55	55	7
49	53	1
235	235	2
162	181	1
229	229	4
25	30	2
105	105	2
151	151	8
31	31	3
237	237	10
44	44	7
245	246	5
180	180	2
85	92	1
241	247	1
10	10	6
22	22	10
169	169	6
2	2	5
32	32	10
78	83	1
82	82	1
24	24	6
82	86	2
195	196	3
28	28	5
55	109	1
231	231	3
60	60	4
172	172	5
172	175	1
104	108	1
226	230	1
156	156	8
87	87	3
239	240	1
74	79	1
232	232	8
73	73	2
26	26	6
170	170	6
106	106	4
186	186	5
70	71	2
164	164	5
155	155	5
113	114	2
209	209	5
115	115	3
16	16	7
161	236	1
245	245	6
246	246	3
238	240	1
224	224	6
51	52	2
33	36	2
224	225	3
114	114	5
49	49	2
224	229	1
178	178	4
100	109	2
103	104	1
69	103	1
20	23	1
165	165	3
183	184	1
213	227	1
0	1	4
47	47	12
193	193	3
149	150	3
34	36	1
185	186	3
205	211	1
83	83	2
69	82	2
35	52	1
216	216	5
7	8	4
112	112	8
79	80	2
215	216	3
227	228	1
26	45	1
21	21	7
77	77	3
203	203	6
193	194	2
75	101	1
221	221	6
206	206	1
4	5	3
6	6	2
111	116	3
25	228	1
166	210	2
225	228	2
218	219	2
109	117	2
97	97	1
170	171	4
14	14	6
98	98	6
50	59	1
100	100	3
201	202	1
59	62	1
186	192	1
230	231	4
196	196	2
6	231	2
174	182	1
80	80	6
189	190	1
53	53	8
15	16	1
52	61	1
158	158	2
70	75	1
248	248	3
220	220	6
7	7	2
73	74	4
164	165	1
161	161	5
157	160	1
211	225	1
95	95	3
64	66	3
43	44	2
34	34	7
94	94	6
69	69	6
59	59	4
166	194	1
16	17	1
59	100	1
51	51	1
76	76	2
108	115	1
54	55	1
199	199	1
66	77	1
11	11	3
228	228	2
198	198	4
21	28	1
4	4	6
102	146	2
247	247	2
215	215	3
150	151	1
1	39	1
233	239	1
9	19	1
234	234	2
232	240	1
46	46	4
184	184	4
31	44	1
173	174	3
88	98	1
162	162	5
19	19	6
197	207	1
17	17	6
103	103	3
204	204	5
201	208	1
33	35	2
118	119	5
217	221	2
86	98	1
4	49	3
36	39	2
58	58	3
40	40	2
202	231	1
215	217	1
80	82	1
99	99	3
88	145	2
96	97	2
167	167	5
162	163	2
60	68	1
215	219	2
106	107	2
9	9	3
154	154	2
92	92	4
173	200	1
42	48	2
235	237	1
233	233	5
226	232	1
44	224	1
118	118	4
231	233	1
179	179	1
213	213	4
101	101	1
42	49	1
56	56	2
238	238	2
110	110	3
45	45	9
230	230	5
54	69	1
159	159	2
87	168	1
189	189	4
38	247	1
170	186	2
187	193	1
85	90	1
49	50	1
211	235	1
51	235	1
82	89	1
161	181	1
50	50	4
212	243	1
54	54	3
220	227	1
10	15	1
213	214	2
241	242	4
239	239	4
6	226	2
111	118	2
47	55	1
217	217	5
235	236	2
216	219	1
99	102	1
50	161	2
178	179	1
29	30	7
3	3	4
249	249	2
231	235	1
184	186	2
186	189	1
13	13	1
230	236	1
194	194	5
146	147	1
119	119	2
90	93	1
100	181	2
1	2	1
247	249	1
14	15	2
153	154	1
176	176	2
1	35	2
219	220	1
8	10	2
36	37	1
55	57	1
109	109	1
61	61	4
169	173	1
143	143	1
33	33	4
219	219	5
239	241	1
1	5	2
235	239	1
205	205	4
222	222	6
191	191	2
223	225	3
172	173	1
38	38	7
91	91	4
210	218	1
150	150	3
49	94	1
71	71	4
84	87	2
89	162	1
34	37	1
186	187	1
37	38	3
194	199	1
24	25	3
30	36	1
116	116	3
181	181	5
174	175	1
228	230	1
92	93	1
28	184	2
166	175	2
47	56	1
109	118	1
34	223	1
244	248	1
247	248	1
205	207	2
157	161	2
65	65	3
3	4	1
42	69	1
170	190	1
47	52	1
238	241	1
79	86	2
75	75	5
52	54	2
163	163	5
64	64	2
32	109	1
213	217	1
196	241	1
67	69	1
36	63	1
63	75	1
170	176	1
96	96	4
115	116	4
152	152	1
39	40	1
84	84	3
240	240	4
174	186	1
175	184	1
60	62	1
192	195	2
195	195	4
145	145	3
215	232	1
30	31	1
25	25	5
24	26	4
9	242	1
54	91	1
182	192	1
108	108	1
35	51	1
57	59	2
171	186	2
167	212	1
181	192	1
28	29	2
74	74	1
23	32	1
201	203	1
46	49	2
12	12	6
75	81	1
15	15	3
110	111	2
210	216	1
236	236	4
190	190	5
240	241	2
62	66	1
86	86	2
199	212	1
202	229	1
32	33	1
19	23	2
104	107	1
8	9	4
90	91	1
82	84	2
90	90	1
27	31	1
27	28	2
7	16	1
33	34	2
219	239	1
114	115	3
244	244	5
151	249	1
41	52	1
166	174	1
167	208	1
19	20	3
176	184	1
83	86	1
58	59	2
198	239	1
102	102	2
199	201	2
6	46	1
6	11	1
174	176	2
220	222	1
39	45	1
229	231	2
182	182	2
212	213	2
223	224	1
243	247	1
24	28	1
236	244	2
163	165	1
227	231	1
212	212	8
35	54	1
52	52	2
113	113	4
86	108	1
104	105	2
58	60	1
242	242	3
97	101	2
211	212	1
171	172	1
210	210	3
220	224	1
27	27	5
84	90	1
20	21	1
91	100	1
195	198	1
34	43	2
74	82	1
7	29	1
111	111	6
57	57	2
94	202	1
156	160	1
158	164	2
230	235	1
3	15	1
32	36	1
188	188	2
168	169	3
162	185	1
21	22	2
30	32	1
171	171	4
188	225	1
99	100	1
184	185	2
228	229	3
42	42	3
192	192	2
109	110	2
53	59	1
88	88	4
76	81	1
166	199	2
200	200	4
32	44	1
19	25	1
168	168	7
200	241	1
177	177	2
159	226	1
76	77	3
67	67	1
39	42	1
191	225	2
10	12	1
50	56	1
198	214	1
42	51	1
48	48	1
203	207	1
62	62	2
192	214	1
201	206	1
233	238	1
11	17	1
43	43	2
61	72	2
42	43	2
203	204	1
35	46	1
162	232	1
25	31	1
91	97	1
66	67	1
53	226	2
9	14	1
97	98	2
197	200	1
200	211	1
239	247	1
158	162	2
85	86	1
64	68	1
166	171	1
70	70	2
6	12	1
96	98	1
185	188	1
198	207	1
67	76	1
66	66	1
175	175	2
171	182	1
45	46	3
49	171	1
47	50	2
70	74	1
225	235	1
3	93	1
200	207	1
84	92	1
223	223	1
175	176	3
207	208	2
88	96	1
212	215	2
236	247	1
211	248	1
201	247	1
209	222	1
147	147	2
173	177	1
40	42	1
35	53	1
69	70	2
210	211	1
25	26	1
144	144	1
44	172	1
220	240	1
10	11	1
196	218	1
166	166	2
65	66	1
172	192	1
234	235	1
18	19	2
98	102	1
195	224	1
47	91	1
169	186	1
17	33	1
185	200	1
90	92	1
197	199	1
163	164	2
69	102	1
167	168	1
36	36	1
158	169	1
147	202	1
197	197	2
152	153	5
214	219	1
220	228	1
59	60	1
188	193	2
160	160	1
177	208	1
160	162	1
171	178	1
78	82	1
17	43	1
195	209	1
207	215	1
172	195	1
47	48	1
153	153	5
174	220	1
85	94	1
89	90	1
16	220	1
158	184	1
239	244	1
226	226	2
173	173	1
25	161	1
180	181	1
243	243	1
68	69	1
24	155	1
11	12	1
101	106	1
56	100	1
36	52	1
228	234	1
218	220	1
38	39	1
165	180	1
209	224	1
5	5	2
219	228	1
197	226	1
3	5	1
201	201	1
243	244	1
179	186	1
74	102	1
79	79	1
203	225	1
186	194	1
185	185	3
233	234	1
171	185	1
44	227	1
151	152	1
35	36	2
162	167	1
185	193	1
174	177	1
40	46	1
63	63	2
64	73	1
120	120	2
201	207	1
34	35	1
191	193	1
33	156	1
87	94	1
34	184	1
53	58	1
187	187	2
206	213	1
2	9	1
87	97	1
88	101	1
167	182	1
194	196	1
217	218	1
48	50	1
57	63	1
174	189	1
183	185	1
168	172	1
89	89	1
186	222	1
244	246	1
65	149	1
215	233	1
85	87	1
8	8	1
165	168	1
18	22	1
205	213	1
167	183	1
6	25	1
1	28	1
22	23	1
25	191	1
149	149	1
160	161	1
185	189	1
109	112	1
38	41	1
219	222	1
37	54	1
160	163	1
177	187	1
