17	17	6
122	122	5
11	19	1
91	91	8
71	71	1
102	102	4
103	103	3
13	13	4
64	64	2
18	19	3
116	116	2
118	118	3
1	1	3
41	41	3
131	131	4
97	126	1
124	124	3
87	87	3
38	39	1
128	131	2
11	11	4
102	103	2
74	75	3
54	54	2
93	93	1
26	26	2
122	123	4
6	6	2
53	53	3
121	122	2
18	105	2
72	72	4
67	68	2
112	112	1
103	104	1
83	85	1
12	13	1
51	51	2
71	83	1
49	49	4
70	70	2
63	69	1
99	100	2
14	14	6
42	42	3
26	129	1
49	50	2
144	145	2
2	4	1
133	134	4
9	9	5
22	22	4
51	52	2
41	48	2
102	125	1
39	39	1
2	2	5
88	88	1
55	96	2
128	128	4
10	10	4
105	132	1
29	29	4
40	40	5
133	133	3
16	16	1
112	135	1
30	31	1
36	37	4
22	28	1
30	48	1
97	97	2
27	27	5
96	96	3
135	135	3
20	21	1
59	59	4
103	124	1
130	140	1
83	83	2
66	83	2
81	81	3
23	23	6
23	55	1
69	78	2
85	85	2
3	5	3
101	105	1
63	68	1
75	75	3
10	125	1
30	93	1
74	74	3
130	133	1
99	131	1
127	143	2
98	98	4
138	138	1
18	37	1
87	92	1
98	141	1
76	77	1
75	76	3
146	146	2
129	129	6
9	125	1
13	14	1
79	79	5
49	51	1
143	143	1
101	129	1
36	48	1
108	108	1
90	90	4
82	93	2
77	77	3
27	28	1
96	98	1
57	58	1
52	52	4
56	56	6
83	84	3
77	83	1
14	16	2
106	106	4
37	37	6
91	92	1
114	115	1
31	122	1
120	120	2
3	4	1
131	136	1
130	130	3
139	139	5
6	20	1
125	125	6
132	132	1
78	79	1
18	18	1
86	86	4
82	82	1
140	140	1
103	142	1
104	134	1
30	30	3
31	32	1
119	120	2
103	117	1
59	60	1
4	5	3
134	134	2
129	130	1
34	35	1
5	5	2
130	134	1
2	3	1
68	68	2
60	122	1
118	126	1
77	78	1
8	8	4
123	123	1
130	131	1
50	50	2
61	61	1
131	133	2
85	87	1
89	109	3
21	21	6
69	70	2
144	144	4
62	63	2
100	101	1
60	60	2
94	94	2
73	73	1
26	27	3
62	70	1
107	107	4
24	69	2
35	35	2
50	51	1
21	22	1
127	128	3
33	33	3
11	21	1
76	79	1
105	123	2
101	101	1
66	68	2
8	131	1
14	15	1
77	79	1
73	75	1
101	102	1
62	64	1
141	141	3
29	56	1
59	77	1
110	135	2
62	62	1
3	3	3
65	71	1
89	89	1
13	93	1
120	127	1
79	115	1
107	109	1
25	116	2
24	24	1
58	59	1
48	48	1
103	126	1
9	47	2
79	80	1
84	114	1
105	121	1
32	49	1
110	113	1
139	140	1
115	116	1
28	28	2
38	38	2
17	105	2
31	51	1
84	115	2
63	63	2
70	91	1
80	89	1
78	78	1
145	145	2
31	33	1
137	137	1
53	63	1
87	89	2
128	129	2
145	146	1
41	107	1
6	9	1
25	25	2
20	20	1
89	112	1
142	142	1
59	61	1
117	137	1
23	67	1
111	111	1
22	23	1
70	71	1
109	109	1
30	33	1
80	80	2
140	141	1
130	138	1
33	65	1
67	69	2
51	66	1
20	39	1
57	57	1
31	75	1
10	11	1
95	95	1
73	93	1
114	114	1
60	65	1
8	9	1
31	31	1
58	58	1
56	57	1
11	42	1
29	96	1
126	126	1
61	62	1
104	110	1
88	92	1
134	136	1
98	99	2
13	60	1
85	111	1
105	106	1
17	18	1
49	53	1
54	56	1
105	105	1
65	72	1
35	36	1
62	66	1
119	119	1
86	114	1
84	84	1
117	120	1
75	78	1
128	130	1
104	121	1
99	99	1
84	135	1
107	136	1
104	104	1
43	65	1
86	110	1
108	109	1
116	119	1
94	95	1
23	24	1
55	71	1
82	116	1
121	132	1
76	76	1
18	57	1
