19	19	1
143	143	2
125	125	6
103	104	1
93	94	3
54	54	4
65	65	2
110	110	4
55	56	1
48	52	1
23	23	5
68	68	5
109	109	5
79	79	3
9	9	4
87	87	3
74	76	1
25	27	2
121	121	5
131	131	2
24	24	2
64	64	2
11	11	2
130	133	2
35	42	1
59	59	5
113	115	1
34	36	1
16	16	8
82	82	4
70	71	1
105	107	1
33	42	2
74	74	3
0	8	1
73	73	2
58	58	5
10	10	8
48	48	2
41	41	1
146	146	1
53	53	3
62	63	1
115	115	3
38	38	4
33	59	1
0	0	2
18	18	4
128	129	1
123	123	5
140	140	2
36	36	3
56	56	5
135	135	5
140	141	2
99	99	4
125	126	1
37	37	2
88	117	2
17	26	1
132	132	7
17	17	7
20	20	3
107	107	4
22	22	7
22	25	1
93	93	5
72	72	6
100	100	5
81	81	4
104	104	2
76	76	2
13	15	1
136	136	6
58	66	2
51	52	1
1	1	1
53	54	1
36	37	2
130	130	3
121	122	4
80	86	1
54	143	1
43	43	2
73	105	3
89	90	2
142	142	4
17	117	2
131	133	1
117	117	3
104	106	2
15	15	5
34	34	4
26	26	5
25	25	1
63	63	3
46	46	2
128	128	6
31	31	3
105	105	2
108	108	3
50	50	3
104	107	2
48	54	1
33	33	6
133	136	1
66	109	1
108	109	2
118	119	3
126	126	4
76	77	2
88	88	3
127	127	5
49	49	5
88	89	1
94	94	2
130	131	1
29	29	1
61	61	5
130	134	1
20	21	2
48	53	1
8	10	1
97	98	1
141	141	2
92	111	1
25	47	1
3	23	2
112	113	3
77	78	1
97	97	4
16	17	1
75	75	1
80	80	9
119	119	2
100	103	1
78	78	3
27	27	2
35	35	1
3	31	1
65	66	1
84	84	2
57	57	2
138	138	1
92	94	2
59	63	1
51	51	2
28	28	2
25	34	1
116	116	3
118	118	3
90	90	4
71	71	4
42	58	1
88	90	1
8	8	1
60	60	6
134	134	3
57	58	1
5	18	1
124	124	1
37	40	1
137	138	1
5	37	1
120	121	2
101	101	4
49	54	2
91	121	2
103	103	3
143	144	1
13	13	3
145	145	1
118	122	1
5	5	3
96	101	1
73	90	1
111	112	5
38	42	1
67	68	1
105	106	1
59	112	1
116	117	1
12	13	1
19	20	2
34	43	1
71	72	2
98	100	1
62	101	1
124	125	3
32	32	5
141	142	3
13	14	1
115	117	2
21	21	4
112	112	3
89	89	4
133	133	1
70	70	3
55	55	3
3	4	3
42	42	2
126	127	3
80	88	1
62	64	1
69	80	1
92	92	2
87	88	1
59	72	1
131	132	1
118	135	1
47	47	1
118	120	1
102	102	2
40	41	1
27	29	1
98	98	1
75	76	2
24	26	1
59	60	1
62	62	1
98	99	1
37	38	1
85	85	1
63	64	1
4	4	2
144	144	1
104	105	2
90	91	1
50	51	1
24	25	1
39	39	2
139	139	1
18	31	1
71	106	1
94	96	2
111	111	1
67	67	2
24	111	1
123	124	1
32	33	1
38	41	1
38	104	1
21	26	1
103	125	1
92	93	1
101	103	1
96	107	1
122	122	1
101	141	1
9	10	1
35	36	1
86	86	1
91	91	1
6	6	1
3	3	1
116	118	1
2	2	1
40	40	2
32	39	1
28	49	1
114	115	1
15	16	1
56	87	1
28	30	1
113	113	1
107	127	1
70	75	1
49	50	1
29	30	1
91	117	1
69	69	1
21	116	1
96	97	1
54	58	1
30	80	1
69	70	1
144	145	1
1	2	1
95	99	1
17	19	1
30	36	1
67	91	1
136	139	1
107	126	1
107	108	1
125	140	1
120	120	1
66	66	1
91	92	1
