113	113	7
168	169	2
178	178	6
67	68	1
170	170	7
230	231	1
116	116	2
61	72	1
223	223	6
85	85	5
104	117	1
8	9	3
66	66	2
57	58	1
25	25	4
152	187	3
200	216	1
81	81	4
68	68	2
29	29	4
102	128	3
30	105	1
16	16	4
173	174	2
222	222	1
3	209	1
7	7	4
239	239	3
174	174	6
157	196	1
171	171	2
190	190	8
109	180	1
10	10	3
158	177	4
163	163	5
86	86	5
59	59	3
107	143	1
36	36	4
60	60	3
160	169	3
145	145	3
106	106	3
208	208	2
128	128	4
102	102	4
229	230	1
165	179	2
169	169	6
212	212	2
101	101	6
75	106	1
28	236	1
227	228	1
110	130	1
171	172	4
175	175	4
19	19	1
141	142	1
199	226	2
66	67	5
109	109	1
139	141	1
181	181	3
128	145	3
30	30	2
134	134	4
140	141	3
139	142	1
202	216	1
60	73	1
72	73	1
189	190	1
22	22	4
20	23	1
193	199	1
105	105	1
62	64	1
177	177	3
15	21	1
98	98	6
38	38	6
158	170	1
217	217	4
69	69	4
100	100	2
120	120	1
28	28	6
112	112	2
13	13	3
9	10	2
74	109	1
20	20	4
207	208	2
227	227	2
141	143	1
70	70	5
79	79	2
111	111	3
9	43	1
176	176	4
37	37	5
218	218	5
219	219	4
33	33	5
44	86	1
88	89	1
57	57	2
103	103	4
191	197	4
127	127	7
188	188	2
185	185	4
146	146	4
165	165	2
185	188	1
124	155	1
133	133	2
106	127	1
15	78	2
153	153	2
19	20	4
64	65	2
15	16	1
99	99	5
211	212	1
173	173	3
141	141	2
28	237	1
40	40	2
213	213	2
145	146	2
183	184	2
64	68	1
41	41	1
188	189	2
32	32	3
71	72	2
210	210	2
108	169	1
153	155	1
78	104	1
149	149	5
121	121	4
226	227	1
71	71	4
122	152	1
154	155	1
215	215	3
73	73	2
194	194	2
161	182	1
192	192	2
74	75	1
227	230	1
65	190	1
73	111	1
161	161	4
82	82	1
43	43	4
75	75	1
157	185	1
146	148	2
9	9	3
203	203	4
71	171	1
178	179	1
122	122	2
151	151	1
217	218	1
27	27	8
23	34	1
50	52	1
13	14	1
109	135	2
184	184	2
120	131	1
95	118	1
204	204	4
108	158	1
131	131	1
34	36	2
7	161	1
135	135	1
10	11	1
142	143	3
117	117	1
184	199	1
117	126	1
34	35	1
11	242	1
180	182	1
135	136	4
51	51	1
5	5	4
166	167	3
214	214	2
225	225	2
172	172	2
47	47	5
187	187	4
203	204	1
231	231	3
177	179	1
235	236	1
107	153	2
120	152	1
115	115	2
65	66	1
18	22	1
138	150	1
150	150	3
42	236	1
14	14	1
69	70	1
220	222	1
43	44	1
81	83	1
108	108	3
2	209	2
127	136	1
201	202	1
193	195	1
48	48	4
54	55	3
54	54	3
107	107	1
160	160	2
54	78	1
68	209	1
191	191	2
165	166	2
214	215	3
44	45	1
165	169	1
163	164	1
241	241	1
189	189	1
15	15	3
18	21	2
103	104	1
119	119	2
138	138	2
42	46	3
49	50	2
238	238	3
204	205	1
154	154	4
164	177	1
65	65	2
91	91	1
18	18	1
129	129	2
24	24	6
191	192	1
54	95	1
45	45	2
62	62	3
140	140	2
61	61	2
32	38	1
137	137	1
123	123	1
12	12	2
107	108	4
152	173	1
141	177	1
99	100	1
180	181	1
33	196	2
197	197	1
242	242	4
95	115	2
143	143	3
239	240	1
114	126	1
8	8	1
186	186	4
11	25	1
196	196	1
205	228	1
87	87	1
233	233	1
31	31	4
161	162	1
154	187	1
26	26	2
128	129	1
183	183	1
2	3	2
152	152	2
169	170	2
104	104	1
153	154	1
54	150	1
159	159	2
202	202	1
216	216	3
63	180	1
72	111	1
200	202	1
44	44	3
147	147	2
109	183	1
164	165	1
111	173	2
34	34	1
138	139	3
27	28	1
103	105	1
16	44	1
162	162	3
5	8	1
61	176	1
5	6	3
179	179	2
80	80	2
53	54	1
221	222	1
42	45	1
35	35	3
3	3	2
6	6	1
191	208	1
198	199	1
33	38	1
205	234	1
10	43	1
168	168	2
164	167	1
224	224	1
43	45	1
206	206	1
80	84	1
6	7	1
115	116	1
184	185	1
200	200	2
192	208	1
100	102	2
122	127	1
224	231	2
11	11	1
65	68	1
236	236	1
97	97	3
141	189	1
75	76	1
17	17	2
62	70	1
183	192	1
144	150	1
187	188	2
52	52	2
65	236	1
185	186	2
162	163	1
96	96	1
45	46	2
64	64	2
179	180	1
234	238	1
58	60	1
21	21	1
158	178	1
230	230	4
53	119	1
148	148	2
58	61	1
28	238	1
24	46	1
30	32	1
95	114	1
63	71	1
133	134	1
160	179	1
234	234	2
192	193	1
78	78	1
158	158	1
63	63	2
121	122	1
240	241	1
139	140	1
13	223	1
28	30	2
38	234	1
88	102	1
11	12	1
22	35	1
57	61	1
55	55	1
145	157	1
157	157	1
142	147	1
15	20	1
67	223	1
128	152	1
108	146	1
9	15	1
207	207	1
33	37	1
186	187	1
180	180	1
169	204	1
46	46	2
156	177	1
25	27	1
107	119	1
164	164	1
108	155	1
55	56	1
17	115	1
172	178	1
226	226	1
116	119	1
170	178	1
196	215	1
51	53	1
4	5	1
77	91	1
168	205	1
199	202	1
157	158	1
154	156	1
123	125	1
26	181	1
35	36	1
221	221	2
132	132	1
37	38	1
79	81	1
96	97	1
228	228	1
46	236	1
123	124	1
193	196	1
12	24	1
3	12	1
146	147	1
195	195	1
161	167	1
42	43	1
211	211	1
144	144	1
