131	131	2
39	39	4
56	56	3
97	97	1
4	51	1
6	77	1
107	108	1
10	11	1
103	103	2
71	71	1
98	98	1
101	101	2
2	2	2
75	75	1
137	137	1
53	54	1
40	41	1
127	127	2
138	139	1
104	104	3
58	87	1
105	107	1
78	79	2
115	117	1
52	89	1
130	130	1
146	146	1
100	100	3
34	35	1
13	13	3
67	68	2
105	123	1
140	140	1
88	92	1
72	73	1
0	0	1
49	62	1
42	43	1
0	2	1
103	106	1
42	42	1
80	80	2
124	141	1
102	103	1
32	35	1
113	138	1
115	132	1
77	78	1
111	111	1
61	61	1
48	48	3
75	79	1
99	100	2
41	41	3
97	99	1
94	96	3
55	55	1
62	62	3
93	93	1
124	124	1
78	78	3
32	32	1
3	4	1
110	110	1
116	118	1
90	107	1
145	145	3
104	132	1
65	79	1
134	134	2
74	74	3
4	4	3
69	90	1
29	61	1
54	55	1
127	128	1
10	10	3
8	8	3
38	38	4
32	33	1
27	28	1
1	2	1
95	96	2
125	125	3
92	92	1
61	62	1
88	90	1
91	91	1
76	92	1
142	142	3
53	75	1
66	77	1
27	27	1
33	35	1
43	43	1
93	96	1
145	146	1
16	17	2
33	102	1
67	67	1
17	18	1
104	116	1
37	41	1
67	100	1
88	88	1
31	32	1
139	139	1
23	23	1
117	117	1
105	122	1
58	72	1
136	137	1
69	70	1
58	58	3
47	47	1
29	30	1
49	52	1
49	107	1
9	9	1
111	122	1
56	57	1
11	66	1
70	70	3
17	37	1
107	107	1
98	143	1
57	57	1
82	82	1
11	11	2
99	99	2
28	29	2
134	135	1
52	82	1
59	59	2
113	114	1
25	55	1
121	137	1
5	5	1
128	128	1
118	118	1
73	73	1
19	22	1
19	93	1
36	90	1
90	90	1
106	106	2
17	17	1
101	141	1
23	25	1
93	94	1
30	30	1
52	52	1
82	84	1
101	102	1
20	20	3
35	40	1
109	109	1
14	14	1
6	6	2
50	50	2
81	81	1
114	114	2
17	27	1
23	75	1
121	123	1
65	83	1
53	66	1
19	19	1
124	126	1
34	34	1
133	137	1
139	140	1
141	141	2
29	29	1
33	37	1
101	144	1
86	86	1
65	65	1
112	113	1
5	21	1
5	6	1
116	117	1
19	23	2
17	22	1
121	121	1
124	125	1
97	98	1
18	19	1
84	84	2
31	72	1
75	83	1
37	40	1
114	115	1
115	118	1
116	123	1
1	48	1
114	120	1
39	40	1
