84	84	3
112	112	4
110	110	8
86	86	7
82	127	3
42	42	6
108	108	3
50	50	2
103	131	1
114	114	3
123	123	2
130	130	4
154	154	7
70	70	2
89	89	1
141	142	2
78	78	2
142	142	2
91	91	1
17	17	2
108	111	1
37	37	2
135	137	1
68	68	5
117	117	7
136	137	1
54	54	4
98	98	3
4	4	3
133	133	4
46	46	5
80	80	4
145	145	5
22	22	2
95	96	2
32	43	2
107	111	2
140	141	2
30	30	3
92	92	6
11	12	2
45	45	4
7	7	3
157	157	8
21	21	5
158	158	2
103	104	1
26	139	1
12	16	1
118	123	3
3	3	2
82	82	2
68	69	2
21	25	1
44	44	4
131	132	3
8	9	1
84	86	2
109	111	1
44	45	1
128	128	3
17	39	1
155	155	9
93	93	2
1	2	2
124	124	3
135	138	1
47	47	6
67	67	2
20	20	2
105	105	5
17	18	2
122	123	4
152	152	3
85	86	2
24	25	1
119	119	3
41	42	1
128	138	1
43	43	4
32	32	3
94	94	4
80	117	2
139	139	6
137	138	4
18	18	3
131	131	7
156	157	1
77	77	5
134	134	4
104	104	5
145	148	1
25	26	2
151	151	6
111	111	10
28	96	1
143	145	2
143	143	3
129	130	1
87	96	1
123	124	1
113	120	1
64	64	1
150	150	6
151	153	1
141	148	2
137	146	1
120	123	1
87	87	4
83	84	1
10	25	1
139	148	2
150	156	2
145	146	4
40	41	2
9	9	1
153	155	1
69	69	3
106	112	2
64	88	2
125	128	1
23	23	5
103	152	1
119	133	2
137	137	7
25	25	3
99	99	2
102	102	2
47	49	1
83	83	2
146	146	2
155	156	2
14	15	4
3	4	1
144	156	1
35	63	1
114	115	1
33	33	1
40	40	4
144	144	2
122	125	1
68	131	1
67	134	1
55	55	2
81	82	1
126	126	3
73	73	5
156	156	6
65	80	3
16	16	4
124	125	2
18	40	2
153	153	5
67	70	1
49	49	2
78	79	4
139	140	1
34	34	5
53	53	2
121	121	4
106	129	1
112	118	1
43	45	1
76	76	1
33	42	2
101	101	3
75	142	1
119	142	2
1	26	1
38	38	2
77	86	1
36	66	1
13	14	3
135	135	8
5	5	2
93	94	2
40	45	1
55	119	1
37	55	1
100	105	1
113	113	6
116	119	1
24	24	5
95	95	1
72	72	1
105	128	1
116	116	3
118	118	2
70	71	1
82	115	1
85	124	1
79	80	1
108	110	2
90	90	2
131	133	2
125	125	3
117	125	1
120	120	4
83	85	3
140	140	6
96	98	1
128	130	1
29	29	1
10	11	1
81	83	1
131	138	1
87	141	1
103	103	2
150	151	3
109	110	2
67	68	3
37	45	1
62	64	1
28	135	1
62	62	1
85	85	5
109	109	1
0	1	1
93	108	2
141	141	1
26	26	3
130	139	1
10	10	1
31	31	1
147	147	1
92	139	1
49	121	1
138	138	5
50	51	2
8	31	1
96	96	3
106	116	1
112	116	1
102	156	1
6	6	7
154	155	1
95	104	1
37	38	1
130	133	1
126	131	1
127	140	1
121	123	2
12	12	2
28	28	2
122	122	7
70	72	2
127	127	7
132	132	2
123	131	1
124	127	1
71	71	2
111	112	1
19	21	1
144	145	3
118	135	1
142	153	1
149	149	1
63	81	1
64	105	2
75	76	1
94	105	1
1	1	3
126	127	2
41	41	1
78	80	2
19	19	1
64	66	1
107	107	3
104	105	1
124	126	1
127	128	1
8	12	2
28	29	1
129	129	3
30	31	1
148	148	5
43	50	1
88	88	2
24	128	1
9	10	2
101	104	1
96	102	1
65	65	1
37	50	1
75	75	3
51	51	3
92	134	1
7	25	1
98	105	2
77	125	1
110	111	1
38	39	1
37	46	1
87	88	1
42	44	1
106	117	1
115	115	1
53	54	1
15	19	1
108	109	3
37	111	1
100	100	2
73	74	1
27	30	1
133	134	2
116	123	1
136	136	1
88	92	1
64	153	2
24	27	1
115	135	1
30	64	1
113	114	1
36	37	1
48	126	1
66	67	1
12	13	1
112	113	2
27	27	2
100	101	1
123	139	1
46	77	1
48	48	2
130	131	1
120	121	1
92	93	1
22	23	1
92	97	1
98	104	1
13	15	1
93	95	1
116	133	1
96	97	1
79	82	1
27	28	1
152	153	1
158	159	1
14	14	1
31	50	2
47	52	1
156	158	1
35	35	1
86	103	1
80	81	1
13	41	1
143	147	1
63	63	1
106	106	2
47	48	1
22	26	1
41	46	1
33	35	1
36	36	1
30	50	1
16	36	1
19	20	1
104	129	1
121	122	1
133	136	1
48	50	1
52	79	1
98	99	1
2	3	1
56	56	1
44	68	1
96	133	1
45	75	1
6	39	1
136	143	1
148	149	1
0	0	2
106	107	1
109	114	1
52	83	2
16	136	1
106	139	1
51	52	1
112	144	1
11	19	1
8	8	1
11	36	1
11	11	1
45	47	1
40	52	1
79	79	1
64	134	1
