87	87	2
88	88	3
109	110	2
46	47	2
111	111	2
61	64	1
151	151	4
141	148	2
4	4	3
80	80	4
158	158	1
86	86	2
5	48	2
169	171	1
188	188	2
97	98	2
13	13	2
112	113	2
121	122	2
184	185	2
0	0	2
61	62	3
179	179	1
177	181	1
165	166	1
134	140	1
57	68	1
10	10	3
25	25	9
7	8	1
124	124	5
140	165	3
4	185	1
76	76	2
19	19	2
56	56	4
117	117	2
188	189	3
78	79	2
185	185	4
121	121	9
88	101	1
123	123	5
117	118	2
189	190	1
173	174	2
178	178	5
2	2	7
75	75	3
116	116	1
79	122	1
155	168	1
104	125	1
136	136	4
46	46	1
182	182	4
162	177	1
55	55	9
109	111	1
103	103	3
108	124	2
44	44	2
44	46	2
139	166	1
152	153	1
24	25	2
108	108	4
97	97	3
143	143	6
31	31	1
161	161	2
64	84	1
40	40	2
101	102	1
123	124	1
100	100	1
146	146	3
181	181	3
122	123	2
56	57	2
82	82	3
84	84	4
26	26	5
93	94	3
81	81	4
74	74	3
67	81	1
62	62	1
120	120	1
149	150	3
77	77	1
47	47	1
72	73	2
176	176	2
190	190	1
169	183	1
134	137	1
17	18	1
185	186	1
187	187	6
43	43	1
130	135	1
38	39	1
68	69	2
159	183	1
61	61	6
30	32	2
175	175	6
169	169	3
171	172	1
113	114	1
155	155	3
140	145	1
58	58	2
134	155	1
7	174	2
96	96	3
95	106	2
170	170	2
27	71	1
73	73	1
154	154	4
32	34	3
90	94	1
172	173	1
94	94	2
156	156	2
125	125	1
80	81	5
65	66	1
32	32	5
153	153	4
87	88	1
28	28	4
182	183	1
2	144	1
42	42	3
151	172	2
30	33	2
189	189	4
164	186	1
122	122	3
7	7	2
39	77	1
134	134	2
110	110	1
18	18	2
27	73	1
29	70	1
39	75	1
74	75	2
57	57	2
178	181	1
20	23	1
114	114	3
13	29	1
41	42	1
111	112	5
130	130	2
101	101	2
27	31	1
42	71	1
39	87	1
168	172	1
89	111	1
115	115	1
59	87	2
105	148	1
180	181	1
56	96	1
139	147	1
144	144	4
65	65	1
91	105	1
14	16	1
174	175	1
53	53	4
124	128	1
127	127	4
172	172	4
145	145	5
67	68	3
124	134	2
150	150	1
134	135	1
4	77	1
102	103	1
130	131	1
140	141	2
26	155	1
71	77	1
159	159	3
148	148	3
29	33	1
71	71	3
115	152	1
126	127	1
77	85	1
129	131	1
0	1	2
22	22	3
29	29	2
19	21	1
66	66	2
98	98	1
73	99	2
91	91	3
128	184	1
130	132	1
48	74	1
99	99	2
164	164	2
18	20	1
41	47	1
107	108	1
139	139	7
83	83	2
180	180	2
141	141	2
30	35	1
18	38	1
102	102	1
148	152	1
97	106	2
42	58	1
105	106	1
25	48	1
76	123	1
52	52	2
118	118	1
93	93	1
120	122	2
45	45	2
140	183	1
171	171	1
113	113	2
119	121	1
140	140	2
109	139	1
23	75	1
104	104	4
65	98	1
15	15	2
16	16	3
28	31	1
112	112	1
181	184	1
135	135	1
76	77	1
48	48	2
6	6	4
132	133	1
6	7	1
54	54	3
177	178	1
9	10	1
157	157	2
116	118	1
101	114	1
37	37	3
100	113	2
64	66	1
78	85	1
80	91	1
142	142	3
9	9	1
104	105	1
71	89	1
176	179	2
34	35	1
129	129	3
34	47	1
24	24	1
26	74	2
68	68	2
179	181	1
80	82	1
62	63	1
17	68	1
29	30	1
27	27	1
177	177	2
164	165	1
156	158	1
95	95	2
16	17	2
6	10	1
28	33	1
5	5	1
100	109	2
151	174	1
23	24	1
85	85	1
58	66	1
138	181	1
47	73	1
169	189	1
79	79	2
153	160	1
38	38	2
37	38	1
39	39	4
52	85	1
11	11	1
167	176	1
44	53	1
103	104	1
173	178	1
106	150	1
88	140	1
122	141	1
61	63	2
174	174	2
135	145	1
72	107	1
151	155	1
141	142	1
105	105	1
17	17	2
9	79	1
72	72	1
92	100	1
12	25	1
146	166	1
119	126	2
142	146	2
33	33	1
41	41	1
48	49	1
116	179	1
115	139	2
28	37	1
31	32	1
47	48	1
8	8	1
57	71	1
106	109	1
127	152	1
147	147	1
153	154	1
183	183	3
89	89	1
1	1	1
39	76	1
20	20	1
31	33	1
63	63	4
8	32	1
152	152	1
17	30	1
138	138	2
98	126	1
37	40	1
91	94	1
35	37	1
12	12	1
60	62	1
63	87	1
15	88	1
77	86	1
168	168	2
24	27	1
157	158	2
129	132	1
53	54	1
175	176	1
3	3	3
24	41	1
147	154	1
95	96	1
107	107	1
132	156	1
68	81	1
59	61	1
65	68	1
168	182	1
48	53	1
98	156	1
99	120	1
53	86	1
139	163	1
121	134	1
71	81	1
66	68	1
178	179	1
41	46	1
6	37	1
62	69	1
184	184	1
43	46	1
187	189	1
79	99	1
173	173	2
25	86	1
160	162	1
77	95	1
103	121	1
12	32	1
39	40	1
17	58	1
34	34	1
13	15	1
14	19	1
126	126	1
167	173	1
143	159	1
123	140	1
