193	193	8
170	183	1
128	128	3
43	43	5
163	189	2
197	197	6
73	73	5
19	19	12
38	39	1
179	179	6
78	78	1
37	37	13
139	139	3
195	196	4
181	181	3
68	68	1
5	5	11
17	17	8
7	7	4
176	176	7
50	50	3
59	82	1
6	8	1
31	61	2
133	133	1
36	37	2
155	155	5
33	34	3
25	26	2
11	11	6
123	124	2
26	30	1
28	29	3
45	46	2
186	186	7
22	22	3
84	84	3
56	56	5
171	193	1
32	32	9
25	25	5
54	54	3
1	22	2
101	101	2
14	45	1
109	109	2
47	47	8
187	187	5
170	193	1
6	168	1
137	139	1
141	150	1
12	12	3
182	182	3
80	80	2
169	170	1
40	40	4
49	49	10
150	152	1
2	3	2
65	65	3
108	108	1
34	36	3
129	129	6
46	46	4
168	190	1
140	141	1
105	106	4
105	105	3
14	14	3
158	158	8
184	184	8
16	16	7
22	26	1
75	75	3
33	33	9
30	30	4
37	183	1
194	194	6
42	43	1
10	10	4
27	27	2
84	87	1
35	35	4
8	8	4
53	53	7
100	100	2
135	135	3
4	4	7
0	40	1
39	39	9
21	24	2
95	98	1
57	58	2
4	29	2
57	57	1
141	141	4
59	59	4
9	9	3
81	81	1
172	175	2
148	149	2
156	156	7
103	105	1
89	89	1
164	164	4
177	177	3
15	57	1
196	196	2
140	140	4
124	124	3
189	191	2
143	143	1
170	170	5
22	23	1
70	73	1
136	137	1
17	108	1
186	187	1
15	31	1
4	26	1
166	188	1
60	60	1
42	138	2
144	144	2
29	29	4
178	178	1
124	125	1
117	117	4
144	145	2
46	47	1
42	42	6
93	97	1
182	183	3
142	169	2
146	146	3
72	72	1
172	193	1
171	172	1
165	169	1
51	51	2
153	189	1
142	142	7
150	150	2
108	112	1
182	192	1
183	196	1
185	186	1
196	197	2
28	28	6
153	172	1
10	15	1
79	99	1
16	17	2
152	156	1
2	23	1
73	108	1
169	169	3
52	52	7
9	69	1
166	166	2
166	189	1
150	196	1
183	184	2
61	61	3
190	190	5
125	125	4
160	169	3
33	39	1
121	121	4
114	150	1
157	158	1
141	142	1
11	12	4
170	186	1
154	154	2
151	151	1
172	172	4
59	84	1
26	143	1
20	20	4
163	163	5
62	62	1
15	15	6
24	27	1
38	38	7
179	180	1
45	45	4
35	36	4
4	130	1
2	2	4
103	111	1
171	171	7
143	144	3
166	181	1
160	160	1
25	31	1
79	79	3
114	143	2
85	85	3
29	30	2
21	21	4
129	183	1
141	195	1
37	38	3
73	110	2
69	71	2
104	104	2
192	193	2
108	109	2
172	174	1
150	151	1
80	81	1
145	145	1
184	187	1
12	13	1
96	96	1
106	107	1
4	105	1
173	174	2
184	185	2
191	191	3
12	14	1
152	152	2
4	8	1
165	165	1
161	161	3
182	194	2
67	68	1
24	24	3
114	114	2
161	162	4
36	36	4
167	167	3
72	77	1
121	122	1
119	120	1
132	133	1
30	86	1
169	184	1
96	97	1
13	13	7
132	132	2
166	190	1
27	29	1
153	155	1
49	50	1
17	21	1
60	61	1
3	3	2
15	16	1
118	118	1
7	8	1
166	168	1
112	112	3
0	108	2
99	142	1
185	185	3
173	173	1
156	157	2
149	166	1
29	31	1
34	35	2
172	176	1
175	177	1
97	101	1
4	106	1
149	149	3
112	139	1
123	123	2
43	44	2
127	128	1
187	188	2
23	25	1
5	39	1
82	82	1
34	34	4
70	70	2
179	181	1
152	188	1
16	34	1
61	63	2
98	98	3
87	139	1
148	148	3
75	76	1
23	23	2
113	113	1
0	1	4
27	28	2
34	62	1
38	40	2
21	181	1
55	55	5
138	140	1
51	64	1
0	0	3
60	63	1
181	182	1
20	21	3
193	194	2
149	171	2
189	190	3
76	79	1
107	107	3
123	125	1
126	127	1
131	131	1
66	66	2
151	152	1
125	194	1
15	17	1
8	37	1
44	44	1
58	58	4
44	45	2
31	31	1
1	2	1
41	41	1
88	88	1
127	127	2
40	42	1
155	159	1
4	103	1
19	30	1
72	73	1
1	29	1
87	87	1
138	139	2
22	31	1
83	83	1
52	59	1
2	37	1
71	71	3
162	162	1
5	8	1
161	174	1
129	138	1
10	11	1
47	160	1
97	97	1
137	168	1
26	26	1
175	175	3
183	183	1
151	161	1
157	157	2
159	161	1
68	69	1
36	39	1
115	115	3
195	195	1
55	59	1
6	25	1
120	120	2
40	41	2
154	191	2
164	166	1
3	4	1
60	74	1
99	101	1
6	6	2
23	28	1
188	189	1
0	18	1
135	137	1
168	169	1
150	181	1
178	182	1
142	176	2
4	5	1
77	86	1
126	126	1
0	27	1
134	138	1
13	31	1
167	168	1
66	179	1
120	166	1
129	133	1
143	145	1
133	160	1
76	77	1
133	134	2
188	188	3
189	189	2
77	88	1
6	7	1
110	168	2
139	140	1
106	106	2
48	48	1
171	182	1
76	76	1
53	58	1
99	99	2
109	110	1
132	164	1
32	33	2
34	39	1
55	64	1
9	72	1
4	17	1
176	177	1
167	190	1
137	137	1
188	192	1
23	24	1
35	37	1
64	64	1
99	100	1
155	186	1
157	159	1
1	1	2
14	15	1
159	160	2
32	73	1
160	167	1
13	15	1
15	185	1
102	102	1
135	136	2
19	21	1
0	29	1
18	19	1
102	103	1
101	111	1
69	69	1
127	151	1
48	49	1
25	45	1
37	51	1
59	61	1
76	78	1
150	160	1
192	192	1
114	115	1
93	113	1
