108	108	5
35	35	2
82	83	1
144	146	3
130	134	1
74	74	3
132	133	2
175	175	2
61	68	3
120	120	2
112	112	3
117	118	3
121	121	2
54	54	1
115	119	1
3	3	5
11	12	2
190	190	1
61	64	1
170	173	2
179	179	2
75	75	2
155	156	3
83	84	2
18	19	1
173	173	1
137	137	2
17	24	1
87	87	1
45	47	1
118	118	6
55	55	2
5	5	2
171	173	1
97	97	2
48	48	8
1	1	2
38	38	5
88	88	1
183	183	2
14	15	3
144	153	1
110	111	2
47	47	1
43	43	3
109	109	5
141	151	1
119	119	4
159	159	1
97	98	2
131	136	1
134	135	1
31	31	2
157	157	4
19	19	1
106	106	3
8	8	3
169	188	1
133	133	3
131	132	2
16	16	3
166	168	1
145	145	4
96	96	4
174	174	3
78	78	4
106	107	2
75	77	1
16	23	1
14	14	2
57	57	4
164	187	1
6	6	9
56	56	3
117	117	2
142	144	2
78	82	1
4	4	5
138	138	2
132	134	2
37	37	2
64	125	1
99	99	2
128	128	3
75	78	2
4	127	2
178	178	4
130	141	1
71	72	2
177	177	1
1	2	2
147	155	1
10	10	5
184	184	5
17	17	3
37	42	1
116	119	2
13	13	6
23	23	3
143	144	3
129	129	2
83	83	1
87	120	1
130	136	1
106	113	1
84	88	1
24	24	2
18	31	1
139	139	5
109	127	1
131	131	1
95	95	2
78	154	1
84	84	2
103	103	2
33	33	2
163	164	1
154	155	2
38	42	1
48	49	1
141	141	4
45	48	2
79	79	4
93	93	2
44	44	3
140	140	2
72	72	5
171	171	2
71	73	1
149	149	2
12	12	1
181	182	2
2	3	1
14	20	1
187	187	5
108	113	1
188	188	6
76	76	3
40	40	2
71	71	4
96	98	1
62	65	1
142	142	2
53	53	6
63	63	1
61	61	2
27	27	3
39	39	1
16	27	1
70	96	1
33	35	1
46	46	2
63	65	3
80	80	3
45	45	1
170	170	1
112	113	1
141	142	2
109	110	2
90	90	3
84	110	1
150	152	1
29	30	1
85	125	1
142	143	1
57	72	1
185	185	2
2	7	2
24	48	1
47	175	1
130	130	2
10	13	1
111	111	1
92	92	3
59	92	1
17	18	3
85	85	2
58	58	4
144	158	1
148	150	2
172	173	3
155	155	1
86	86	1
57	88	2
82	82	4
116	116	1
159	186	1
26	33	1
124	147	1
133	135	1
22	22	1
113	113	1
140	141	2
92	145	1
80	133	1
146	150	1
167	168	1
75	76	1
104	104	1
132	146	1
139	151	1
150	150	5
140	142	1
88	89	3
110	110	2
0	0	1
133	134	2
21	24	1
41	41	1
169	170	2
178	179	2
68	68	3
21	23	1
149	150	1
69	71	1
68	69	1
60	62	2
47	48	1
101	102	1
173	188	1
9	10	2
82	88	1
11	11	2
53	54	2
24	25	2
15	15	2
160	183	1
143	150	1
152	152	2
67	68	1
124	124	3
178	187	1
97	120	1
161	161	2
72	73	1
107	107	5
156	156	3
160	160	4
130	131	1
125	125	3
127	127	2
102	126	1
176	176	4
57	99	1
114	114	2
4	5	2
24	53	1
35	36	1
135	135	2
45	46	1
26	26	3
85	87	2
30	35	1
187	188	1
93	104	1
119	120	1
95	99	1
165	165	1
105	105	2
167	167	2
115	115	2
134	139	1
140	166	1
7	7	2
37	40	1
73	73	3
86	124	1
101	101	1
98	106	2
40	55	1
169	169	1
41	42	1
156	158	1
123	123	2
134	134	3
104	105	1
151	151	1
172	180	1
87	99	2
78	110	1
90	130	1
126	126	1
159	183	1
126	127	2
61	126	1
95	100	2
99	107	1
60	68	1
121	173	1
89	122	1
11	47	1
147	168	1
59	59	2
44	48	1
164	165	1
20	20	4
91	95	1
92	94	1
10	11	1
140	174	1
90	123	1
153	184	1
171	180	1
76	77	1
147	147	2
43	44	2
90	91	1
148	178	1
135	140	1
186	186	1
80	81	1
149	183	1
59	62	2
81	84	1
114	123	1
140	154	1
116	155	1
91	94	1
78	79	1
52	58	1
70	70	2
132	145	1
182	182	1
13	15	1
164	164	2
2	73	1
105	106	3
138	139	1
142	165	1
143	143	2
85	99	1
18	32	1
122	122	2
25	26	1
36	37	2
100	100	1
65	70	2
61	62	1
44	47	1
147	148	1
56	57	1
17	28	1
85	119	1
112	116	1
138	160	1
59	104	1
89	92	1
21	21	1
130	132	1
146	151	1
85	103	1
2	2	2
93	94	1
36	36	1
10	12	1
54	100	1
124	129	1
5	10	1
176	177	1
71	74	1
23	24	1
132	132	1
57	77	1
177	180	1
40	41	1
62	68	1
28	28	1
146	148	1
12	43	1
105	111	1
153	153	1
162	162	1
84	85	1
176	179	1
52	52	2
137	154	1
13	17	1
10	105	1
27	29	1
138	162	1
95	96	1
89	90	1
156	176	1
172	172	1
