145	161	1
150	151	2
38	38	2
47	47	3
45	45	6
71	72	1
39	39	5
187	188	3
32	32	6
98	107	1
24	24	3
174	174	1
96	96	1
138	138	2
11	11	3
144	144	1
46	46	3
102	103	1
166	188	1
8	8	3
40	41	2
41	41	2
143	145	1
121	122	2
75	75	5
37	37	2
64	70	1
69	69	3
150	150	5
189	189	4
67	67	4
178	178	3
12	12	2
97	97	2
87	87	2
38	39	1
8	185	1
34	34	2
123	123	2
196	196	1
122	180	1
153	178	1
59	59	2
60	71	1
16	17	2
102	106	2
176	176	2
25	25	1
101	119	1
14	14	3
36	39	1
66	66	2
16	16	2
63	63	1
121	123	2
143	143	1
30	30	1
10	11	1
43	44	1
127	127	2
188	188	1
73	83	2
29	30	3
86	89	1
7	7	2
141	141	3
172	173	4
49	49	2
10	10	3
183	186	1
124	124	3
27	28	2
28	28	1
72	72	1
194	194	3
8	33	2
13	13	6
40	40	2
18	18	3
139	139	6
159	159	3
192	192	2
39	63	1
15	15	4
36	37	3
4	4	1
119	119	3
27	39	1
108	109	2
62	127	1
19	19	2
42	42	3
107	107	2
85	85	1
9	10	1
180	180	2
175	175	1
169	171	1
190	192	1
5	5	1
142	142	1
115	115	5
65	69	1
116	116	1
145	145	3
64	64	2
9	11	1
79	80	1
43	43	5
9	12	1
125	125	1
52	52	1
170	177	1
169	187	1
168	169	1
156	156	2
62	62	1
32	44	1
14	138	1
120	120	1
124	125	1
27	27	1
162	162	1
193	193	1
1	8	1
2	2	1
31	32	1
155	155	2
19	22	1
177	179	1
166	167	1
184	184	1
148	181	1
142	154	1
1	1	3
33	33	1
78	78	3
53	54	1
44	45	1
169	170	1
9	40	1
156	171	1
173	173	1
32	45	3
0	0	1
172	183	1
44	44	1
21	22	1
20	21	1
36	36	1
56	69	1
159	160	2
104	104	1
178	179	1
126	126	2
157	159	1
16	24	1
58	58	2
140	140	1
153	153	1
34	36	1
63	72	1
86	115	1
81	85	1
172	177	1
148	148	2
0	19	1
53	53	2
182	182	2
130	170	1
28	30	1
89	89	1
191	191	1
176	177	1
59	140	1
187	191	1
79	79	2
179	179	1
106	107	1
177	177	1
190	190	1
163	164	1
169	169	2
80	80	2
100	101	1
158	160	1
83	83	1
93	96	2
121	121	1
168	168	1
130	130	2
34	68	1
29	29	1
98	100	1
0	46	1
68	73	1
158	159	1
54	110	1
51	51	1
12	196	1
117	117	1
99	131	1
186	186	1
149	150	1
152	175	1
142	143	1
