74	74	4
93	93	8
75	75	4
128	129	1
29	30	5
123	123	6
72	72	8
31	38	1
4	4	4
127	127	2
78	79	2
38	38	1
45	45	7
0	0	6
131	131	2
118	118	9
112	115	2
32	38	3
117	117	4
96	96	3
126	126	2
23	27	1
106	109	1
13	13	3
101	101	4
8	77	1
128	128	4
27	27	3
90	90	4
63	63	9
43	43	3
27	34	3
88	88	1
41	41	1
29	29	3
95	95	3
5	5	3
102	133	2
107	124	1
81	81	2
111	112	1
73	73	5
26	27	3
106	106	5
79	79	3
7	7	2
41	43	1
65	65	3
83	90	2
14	17	1
12	12	4
45	59	1
102	121	1
39	40	2
107	107	2
122	124	1
8	10	1
8	8	4
5	45	1
94	120	1
133	134	2
130	130	1
27	28	5
58	59	1
116	119	1
15	17	1
35	76	1
100	109	1
121	121	2
4	5	2
86	87	1
82	82	4
113	113	1
15	18	1
16	19	2
11	12	2
8	15	1
134	134	4
68	68	3
64	64	8
57	57	9
35	35	1
70	70	2
83	83	4
25	25	4
91	91	3
31	31	3
7	13	1
122	122	6
104	105	4
22	43	1
39	39	2
78	78	4
120	120	2
85	85	2
47	47	5
67	71	2
114	114	2
65	66	1
59	59	5
24	26	1
77	77	2
33	34	2
109	110	2
11	15	1
41	46	2
90	91	1
0	3	2
16	16	2
66	66	7
11	11	5
60	60	4
27	30	1
14	15	1
9	9	3
3	6	2
79	83	2
59	60	4
119	119	2
112	113	4
102	102	1
99	103	1
28	29	1
20	21	2
106	108	1
75	76	2
55	56	2
116	116	5
64	68	1
23	26	1
30	30	3
101	102	2
110	110	2
102	116	1
40	40	5
6	6	3
108	114	1
37	38	1
21	30	1
37	43	1
116	130	1
102	103	1
109	109	3
124	126	2
69	69	8
85	100	1
51	60	1
32	33	4
100	100	2
94	114	1
59	125	1
36	37	1
108	121	2
42	42	2
10	10	2
32	112	1
98	98	2
47	64	1
11	13	1
22	22	2
2	2	5
45	62	1
19	19	1
82	83	1
14	14	2
80	80	1
51	55	2
70	74	2
8	12	1
77	83	1
90	95	2
48	50	2
103	103	1
62	62	3
54	54	1
123	124	1
12	46	2
92	92	2
82	86	1
66	67	3
87	87	3
39	80	1
36	38	1
62	73	2
12	13	2
36	58	1
25	29	2
17	17	2
99	99	3
20	20	2
46	46	3
48	48	1
125	125	2
31	32	1
25	27	1
7	15	2
91	92	3
116	117	1
26	33	2
17	33	2
5	61	1
24	24	3
79	81	1
22	25	1
17	18	1
43	78	1
127	131	1
108	108	2
73	76	1
36	36	3
119	120	1
19	20	1
13	23	1
114	116	1
34	34	2
34	35	2
6	7	1
21	21	3
117	118	1
2	3	1
38	40	1
8	11	1
44	46	1
91	98	1
132	132	2
107	113	1
64	65	1
81	124	1
132	133	2
28	28	1
131	133	1
55	55	1
103	109	1
13	60	1
29	31	1
19	21	1
49	49	1
0	5	1
108	110	1
70	75	1
46	69	2
97	97	1
28	131	1
94	118	1
106	116	1
79	80	2
83	101	1
78	100	1
94	94	1
0	38	1
117	124	1
107	115	1
26	26	1
111	111	1
84	84	1
90	126	1
10	13	1
57	59	1
83	95	1
61	61	2
58	58	2
104	104	1
86	88	1
21	25	1
120	121	1
62	64	1
18	18	3
40	43	1
40	44	1
58	61	1
63	69	1
33	46	1
15	15	3
37	37	1
76	76	2
16	17	1
40	41	1
10	11	2
19	33	1
95	102	1
104	108	1
60	61	1
25	26	1
56	56	1
20	25	1
9	16	1
33	33	1
44	44	1
84	127	1
44	70	1
124	125	1
35	36	1
21	38	1
121	129	1
82	114	1
71	71	1
66	68	1
95	111	1
128	130	1
31	50	1
102	105	1
119	128	1
10	12	1
16	18	1
78	82	1
28	36	1
36	42	1
90	100	1
23	24	1
103	107	1
77	93	1
88	128	1
88	89	1
93	102	1
120	130	1
111	118	1
32	32	2
129	129	2
63	71	1
27	36	1
41	42	1
33	45	1
41	48	1
