45	45	2
27	27	4
70	70	4
108	108	5
75	85	1
99	99	5
70	92	1
56	56	5
2	2	2
80	80	3
47	64	1
27	28	3
46	46	5
23	30	2
5	5	1
120	120	5
86	86	2
98	99	2
44	44	4
133	133	1
92	108	1
79	88	3
4	5	1
6	6	3
23	24	1
42	66	1
16	17	1
116	116	4
16	16	3
117	117	5
113	113	4
115	115	2
103	104	1
86	88	1
101	106	1
88	89	2
43	124	1
46	107	1
76	76	2
93	93	3
72	73	2
97	97	3
94	94	3
130	130	1
83	84	1
39	39	2
73	99	2
97	101	1
70	71	1
61	62	2
64	73	1
7	7	3
87	88	2
5	11	2
97	98	2
74	74	3
13	13	2
62	62	2
64	64	5
23	23	1
3	10	2
88	88	2
96	115	1
73	73	3
75	75	1
24	25	1
90	90	4
79	79	1
111	111	6
115	117	1
54	54	2
29	29	2
94	95	2
50	50	3
34	96	1
55	55	2
44	62	1
112	112	1
132	132	3
67	67	3
104	104	3
57	57	3
126	127	2
65	66	3
69	100	1
70	94	2
126	126	2
47	65	1
32	32	3
9	9	2
118	118	3
68	68	2
98	98	3
66	66	2
77	77	4
32	34	1
128	130	2
72	102	3
15	15	1
103	105	1
131	131	3
124	124	4
65	65	2
42	42	4
97	99	1
125	125	1
41	42	1
87	96	1
109	109	2
51	51	2
53	53	2
96	96	3
85	85	3
48	95	1
28	31	2
52	53	2
11	21	1
14	24	1
60	61	2
69	69	1
74	94	1
107	107	2
67	69	1
22	22	1
112	113	1
122	122	1
119	120	2
79	80	2
3	6	2
82	84	1
20	21	1
114	114	4
92	92	2
13	14	1
81	81	3
26	51	1
79	86	1
66	67	1
104	105	1
85	86	2
45	77	1
71	72	1
92	95	1
7	8	1
8	8	1
42	96	1
127	127	2
106	106	3
52	52	1
119	127	1
88	91	1
74	76	1
85	93	1
87	87	2
47	47	2
121	121	4
12	13	1
71	71	1
100	101	1
84	101	1
20	20	1
128	128	4
48	48	2
46	64	1
76	88	1
19	19	3
82	82	2
49	49	2
105	106	1
0	0	2
72	72	2
119	119	3
31	31	2
43	43	1
103	103	2
79	103	1
109	118	1
25	25	2
113	115	1
38	38	1
121	131	1
23	26	1
101	101	1
72	74	1
83	83	2
58	66	1
95	95	1
24	24	1
41	41	1
34	42	1
64	65	1
102	102	1
4	4	3
91	92	1
57	58	1
33	47	1
81	82	1
129	129	1
58	59	1
84	84	1
1	1	1
7	111	1
39	40	1
9	30	1
30	30	1
100	102	1
96	102	1
129	130	1
112	115	1
72	76	1
34	34	2
71	107	1
106	107	1
33	39	1
115	116	2
40	42	1
9	10	1
10	10	1
71	81	1
110	110	1
15	100	1
77	97	1
18	18	1
