7	29	1
26	45	2
133	133	1
73	73	3
159	159	2
66	66	3
13	13	2
113	114	2
63	63	4
132	132	3
25	25	2
21	21	1
13	24	1
121	145	1
145	145	3
142	143	1
166	166	1
58	59	1
46	46	1
161	162	3
119	146	1
89	136	1
129	129	3
163	163	2
114	125	1
90	90	1
128	128	1
9	9	5
71	71	1
150	151	1
24	24	1
41	41	3
97	97	1
94	94	1
139	139	2
24	27	1
54	54	2
148	152	1
86	144	2
86	86	4
109	109	2
26	29	1
24	44	1
149	150	1
3	4	1
8	8	2
167	167	3
170	171	4
126	135	2
99	110	3
147	148	1
26	26	3
160	164	1
65	65	2
77	77	1
153	154	1
121	122	1
141	141	4
6	31	1
78	79	2
120	128	1
169	169	3
2	2	1
142	142	2
30	30	2
53	53	1
57	57	2
137	137	1
36	36	1
146	147	2
63	125	1
152	153	1
39	138	1
33	33	2
165	168	1
29	30	1
52	63	1
120	146	1
127	145	4
51	51	2
32	32	4
87	87	4
96	96	3
134	134	4
146	152	1
2	4	2
57	61	1
143	144	1
136	138	1
121	121	2
155	155	1
98	180	1
38	38	3
98	123	1
167	168	2
16	28	2
52	80	1
119	120	1
159	160	1
33	55	1
95	95	1
0	131	1
161	161	1
123	151	1
53	54	1
92	93	1
17	18	1
158	158	1
3	3	1
3	20	2
6	23	1
130	142	1
157	157	1
124	124	3
31	31	1
0	123	1
107	117	1
156	156	1
71	87	1
28	29	1
160	161	1
6	9	1
128	131	1
144	144	2
10	14	1
93	93	1
39	40	3
148	148	1
163	167	1
19	20	1
57	58	1
67	68	1
154	157	1
168	168	3
103	103	1
26	44	1
2	11	1
119	119	2
27	27	1
171	174	1
72	149	1
25	28	1
10	38	1
93	113	1
10	29	1
56	56	1
8	9	1
135	135	2
72	73	4
4	32	2
28	28	2
104	104	1
10	10	1
62	64	1
164	164	2
98	98	1
127	127	1
88	89	1
5	5	2
9	11	1
86	87	1
63	113	2
1	1	2
16	16	1
173	173	1
82	85	1
140	162	1
84	88	1
42	43	1
17	17	1
35	91	1
15	36	1
83	83	1
147	147	1
161	164	1
40	40	1
42	42	3
178	178	1
35	120	1
65	82	2
2	3	1
126	126	2
61	63	1
149	149	1
176	176	1
124	149	1
29	29	1
61	61	1
92	94	1
78	78	1
122	122	1
93	95	1
101	106	2
154	154	1
14	14	1
87	100	1
61	62	1
97	100	1
108	115	1
121	127	1
59	59	1
7	7	1
118	118	1
120	120	1
95	98	1
140	140	1
27	30	1
127	128	1
6	6	1
21	23	2
18	44	1
169	170	1
60	60	1
8	45	1
116	121	1
12	13	1
176	177	1
4	8	1
45	45	1
28	42	1
112	115	1
136	168	1
112	112	1
62	62	1
171	171	1
91	120	1
132	168	1
87	89	1
148	149	1
118	121	1
51	57	1
15	24	1
111	111	1
