66	66	1
144	144	5
13	13	6
97	97	4
19	19	8
55	55	3
26	27	2
82	82	4
109	109	5
30	30	7
135	135	2
1	1	4
76	76	6
114	138	1
128	128	2
118	118	6
40	40	3
42	42	4
111	111	3
94	94	2
38	38	3
32	33	1
104	121	1
73	74	2
89	89	2
143	143	5
56	67	1
102	102	4
87	88	1
129	130	1
126	126	2
114	127	1
18	18	2
118	119	2
87	90	1
133	134	1
136	136	7
27	27	7
38	53	1
91	91	6
6	6	1
9	26	1
26	26	4
98	99	1
32	32	2
69	69	3
0	9	1
31	31	5
136	137	2
82	110	2
64	116	1
86	117	1
98	98	5
13	14	2
0	27	1
129	129	2
34	34	3
123	124	1
127	127	5
133	133	2
83	84	4
65	66	1
73	73	2
96	96	4
6	12	1
140	141	1
29	29	5
107	108	1
13	15	2
116	116	3
117	117	3
36	37	1
4	4	4
0	0	1
57	57	2
70	70	3
5	5	3
60	60	3
138	139	1
48	48	5
125	125	5
72	72	5
22	96	1
88	119	1
40	76	2
140	140	3
113	113	4
61	61	5
49	49	5
125	126	3
68	71	2
78	78	3
142	143	4
141	141	3
3	4	2
134	134	5
33	33	6
72	75	1
41	41	1
122	122	2
30	61	1
124	125	4
95	95	4
141	142	3
100	101	2
118	120	1
79	84	1
58	59	3
55	56	1
0	1	1
1	80	2
27	28	2
90	103	1
130	133	1
53	54	2
80	80	5
2	3	2
100	141	1
68	68	5
104	104	3
21	21	5
87	89	2
15	38	1
132	134	1
19	20	3
9	97	1
139	139	3
123	123	1
9	9	2
15	16	1
131	131	3
12	13	2
145	146	1
20	21	3
142	142	1
103	103	5
54	54	1
75	75	3
136	138	1
34	35	1
86	92	1
85	85	2
36	36	1
88	88	4
122	123	3
53	53	4
54	55	4
66	74	1
66	70	1
64	64	2
48	49	2
108	108	2
60	62	2
22	42	1
11	11	2
98	144	1
102	103	1
30	67	1
124	124	3
25	140	1
90	91	1
104	107	1
39	40	2
113	115	3
20	20	7
70	71	2
117	123	1
66	67	3
12	12	1
75	76	2
112	112	3
25	94	1
37	38	1
49	51	1
41	56	1
132	133	1
90	90	2
105	117	1
108	124	1
125	141	1
65	65	2
52	78	2
118	137	1
28	28	7
62	62	6
87	87	3
14	14	3
113	116	1
138	138	2
39	41	1
57	58	2
90	116	1
2	2	1
126	127	2
79	79	3
56	92	1
132	132	3
52	52	2
21	96	1
109	139	1
41	42	1
22	22	2
102	121	1
99	99	2
10	10	1
24	24	1
75	92	2
90	104	1
86	86	2
121	123	1
83	83	1
64	65	2
8	9	1
37	37	1
55	90	1
118	131	3
8	8	1
77	77	1
88	89	1
5	6	1
59	59	4
71	86	1
111	117	1
120	120	3
34	36	2
58	58	4
124	126	1
89	90	2
128	131	1
144	145	1
109	110	1
91	92	1
85	110	1
48	82	1
104	119	1
80	85	1
83	85	1
130	130	1
127	138	1
93	93	2
9	10	1
77	78	2
90	94	1
104	105	1
1	10	1
112	113	3
3	3	2
55	57	1
40	41	1
23	31	1
22	41	1
86	108	2
135	139	1
74	74	3
53	58	1
14	15	1
50	50	1
16	16	1
35	36	2
56	56	1
24	52	1
128	130	1
63	63	2
129	133	1
115	118	1
15	15	3
69	79	1
67	67	2
72	81	1
65	69	1
100	102	1
47	47	1
49	52	1
3	88	1
10	11	1
64	66	1
79	80	1
68	69	1
61	62	1
19	23	1
14	35	1
70	124	1
121	124	1
58	77	1
119	119	1
134	135	1
96	98	1
115	117	1
127	128	1
134	136	1
114	137	1
120	121	1
50	59	1
58	81	1
106	117	1
23	23	1
110	116	1
35	35	1
81	81	1
23	24	1
104	110	1
29	30	1
