51	51	2
68	68	4
34	52	1
101	102	2
33	34	1
34	34	1
41	41	2
37	39	2
77	81	2
43	43	4
64	64	5
32	32	3
67	67	6
37	40	1
30	65	2
92	92	2
98	106	1
27	27	5
65	65	10
86	87	1
49	50	3
23	58	2
37	37	4
78	81	1
64	78	1
63	63	5
33	52	1
79	79	3
55	55	9
76	76	6
63	85	1
49	98	1
50	50	5
55	58	1
44	44	8
43	46	1
98	99	2
27	29	2
90	90	8
96	96	7
107	107	3
51	78	1
78	78	5
42	43	3
69	69	11
55	56	5
98	98	2
24	55	1
53	53	11
39	99	2
68	71	1
34	36	2
91	102	1
66	67	2
30	30	2
35	45	1
30	52	2
62	89	1
74	74	4
65	68	1
63	84	1
42	45	2
35	49	1
59	59	2
71	71	5
55	59	2
52	52	2
42	42	3
96	106	1
94	94	7
30	70	2
52	55	1
68	102	1
22	22	4
82	88	3
67	68	1
101	101	4
97	97	5
29	41	1
62	63	2
84	84	2
24	24	4
50	61	1
39	41	1
75	75	1
21	31	1
23	23	6
81	81	6
100	100	6
68	69	2
47	47	1
54	55	1
92	93	1
70	71	3
87	87	3
40	47	1
67	83	1
48	49	2
91	91	2
39	39	4
32	34	1
27	28	1
61	62	2
23	35	1
29	30	2
60	61	3
47	49	2
57	57	4
40	42	2
54	56	2
48	48	2
58	77	1
84	85	2
89	89	4
46	51	1
58	58	1
95	95	3
53	98	1
39	61	1
36	36	3
26	26	2
45	45	1
82	89	1
30	31	2
39	55	1
69	101	1
93	93	4
53	54	3
104	104	3
87	91	1
56	56	1
20	20	2
29	79	1
103	103	2
53	67	1
103	105	1
70	70	4
88	89	1
76	77	2
50	65	1
62	62	3
79	80	3
28	28	3
49	49	2
22	93	1
45	56	1
72	72	2
105	105	1
37	65	1
85	85	2
31	45	1
29	29	1
54	58	1
66	66	3
99	99	4
60	60	5
102	102	1
80	80	1
32	33	2
40	53	1
82	82	2
44	58	1
22	23	1
66	73	1
77	103	1
64	105	1
21	22	1
36	37	2
80	81	3
102	103	1
90	91	2
46	46	4
97	99	1
94	100	1
21	21	3
56	57	2
74	75	1
21	23	1
54	54	1
33	33	1
83	83	1
87	88	1
77	78	1
50	51	1
93	94	2
78	100	1
71	73	1
65	72	1
57	59	1
25	25	2
40	40	1
86	86	1
73	73	1
34	50	1
94	96	1
65	70	1
29	45	1
72	73	1
26	28	1
25	34	1
69	72	1
51	59	1
22	76	1
88	88	1
77	77	1
85	86	1
87	90	1
102	104	1
92	105	1
20	60	1
93	95	1
88	91	1
89	90	2
77	90	1
