150	150	3
105	105	2
137	137	7
142	153	2
90	90	7
124	124	7
164	165	2
39	41	2
90	106	1
118	118	2
152	154	3
165	165	6
128	128	7
130	130	2
16	16	3
98	115	1
135	136	3
152	152	2
85	86	1
155	155	9
38	39	6
144	151	1
36	37	1
34	35	4
154	154	9
76	76	4
138	138	9
113	155	2
43	44	4
21	23	1
102	102	4
46	47	3
112	115	3
42	42	7
166	166	7
7	7	7
26	26	3
12	16	2
162	162	10
53	53	5
163	163	11
149	149	3
145	145	7
152	153	6
123	123	3
57	62	2
54	54	3
137	139	2
120	120	7
149	161	2
23	23	10
48	48	7
10	12	3
168	169	4
99	116	1
106	106	8
89	90	1
86	87	3
41	41	5
100	100	4
9	25	1
66	67	1
163	164	3
105	153	3
15	15	8
39	39	13
96	98	2
145	146	3
95	96	2
49	49	6
159	160	3
83	83	3
131	144	1
155	157	2
107	107	5
95	95	3
113	131	1
143	147	1
27	27	5
138	139	1
82	83	1
147	147	5
50	50	7
77	80	1
28	28	1
52	53	1
46	46	2
139	139	9
120	121	3
81	81	7
104	105	3
8	9	6
92	92	2
112	131	1
43	43	6
133	133	6
133	141	2
21	22	2
9	9	2
47	50	1
154	163	1
121	121	4
14	26	1
34	34	5
108	108	3
53	72	2
4	4	6
113	113	3
134	134	5
158	159	4
142	142	4
80	80	2
151	158	3
103	104	1
109	109	6
77	77	2
97	97	6
66	66	4
148	160	1
105	135	2
101	101	3
14	14	6
47	47	6
25	37	2
22	22	4
15	43	1
112	112	7
56	56	1
149	160	1
44	45	3
85	91	1
73	73	3
71	71	3
125	125	3
88	88	3
122	122	8
136	137	2
16	50	1
19	19	1
139	141	3
69	73	1
153	153	8
78	79	3
62	63	2
164	164	5
137	138	3
146	146	5
1	39	2
40	40	7
0	5	1
74	75	2
135	159	1
71	97	1
6	6	4
144	144	7
2	2	3
151	151	8
33	34	1
57	58	1
63	63	6
67	67	4
16	68	1
92	96	1
24	24	3
111	111	3
3	3	6
73	74	2
117	120	2
70	70	8
18	19	4
11	11	8
12	13	2
127	127	5
81	82	5
52	52	5
72	72	4
14	15	1
5	5	6
144	145	1
53	56	1
22	23	5
46	74	1
64	66	1
88	89	2
23	24	2
90	91	2
18	18	4
78	81	1
51	51	5
57	57	3
91	91	3
94	94	2
97	98	1
139	155	1
87	100	1
10	22	1
114	114	3
147	162	1
167	167	9
115	115	6
149	157	1
74	147	1
159	159	3
10	10	4
137	159	1
135	135	3
37	37	6
135	137	3
51	77	1
5	11	2
90	151	1
79	80	1
160	160	4
25	25	6
155	156	2
156	156	5
138	159	1
97	99	1
12	12	7
108	110	1
79	83	1
151	157	2
20	20	2
41	42	3
77	83	1
35	159	2
141	141	8
88	90	1
123	152	1
12	15	1
96	131	1
53	54	1
129	130	2
136	136	5
157	157	5
111	112	1
101	105	1
120	122	1
4	137	1
161	161	6
0	0	1
45	45	4
113	114	1
58	58	3
104	104	4
72	73	3
100	105	3
14	49	1
116	116	2
42	43	2
100	101	2
11	12	3
46	56	1
168	168	5
64	64	2
151	153	1
157	158	1
143	143	5
1	1	7
91	105	1
96	96	1
116	138	1
17	133	1
21	21	12
54	55	1
148	148	2
82	93	2
47	48	1
126	143	1
88	100	1
169	169	7
16	161	2
66	68	1
154	155	2
16	17	3
44	44	3
124	125	2
89	89	3
84	84	2
134	138	1
158	158	2
65	67	1
161	163	2
167	168	2
148	159	1
153	156	1
141	142	2
36	36	8
119	119	1
75	75	2
125	128	2
55	55	3
48	50	2
15	89	1
47	49	2
86	92	1
134	140	1
146	147	1
85	113	1
17	18	3
54	156	1
117	118	2
28	46	1
8	12	1
88	140	1
25	50	1
121	122	2
6	7	1
76	77	2
37	38	1
107	136	1
13	13	1
132	132	6
2	3	1
45	85	1
115	156	1
12	114	1
1	2	1
65	66	2
105	140	2
64	73	1
4	15	1
74	74	1
103	103	4
65	65	3
120	140	1
82	82	4
63	64	1
16	20	1
35	35	5
49	50	4
35	36	1
67	77	2
50	136	1
111	113	1
39	57	1
107	108	1
136	138	1
4	6	1
74	98	2
50	51	1
126	126	3
144	147	1
24	25	2
75	80	1
9	10	1
33	33	1
90	97	1
141	152	1
119	120	2
118	119	1
114	120	1
132	133	1
106	111	2
92	95	1
62	87	1
147	148	1
145	147	1
165	166	1
24	89	1
140	140	2
64	65	2
131	131	3
100	134	1
144	146	2
66	89	1
90	136	1
19	21	1
83	86	1
99	99	3
125	126	1
126	137	1
111	118	1
129	129	1
86	86	4
87	88	1
138	147	1
25	68	1
83	99	1
103	105	1
117	117	1
47	52	1
153	154	2
116	117	2
48	49	1
0	1	4
126	127	2
6	51	1
84	90	2
18	23	1
115	124	1
53	68	1
8	142	1
46	72	1
98	98	1
10	87	1
111	132	1
123	132	1
146	165	1
102	103	2
17	17	3
117	119	2
27	41	1
20	25	1
137	148	1
127	131	1
38	139	1
85	88	1
123	128	1
169	170	1
113	157	1
64	118	1
54	65	1
122	147	1
10	11	2
40	41	1
118	159	1
108	109	2
39	40	1
46	52	1
140	149	1
44	46	1
127	128	1
47	61	1
94	113	1
110	110	3
13	14	1
118	122	1
69	69	1
119	159	1
3	4	3
160	161	1
117	123	1
112	113	1
112	114	1
132	134	1
71	94	1
85	85	1
102	104	1
39	149	1
104	129	1
151	152	1
74	89	1
150	151	1
3	6	1
62	62	1
26	111	1
145	156	1
57	94	1
6	12	1
101	103	1
147	158	1
93	93	2
74	110	1
160	169	1
83	85	1
87	87	2
95	97	1
27	36	1
87	95	1
16	169	1
25	45	1
150	160	1
36	38	1
134	135	2
3	38	1
4	18	1
15	41	1
98	99	1
8	161	1
68	69	2
127	129	1
22	24	1
79	81	1
77	96	1
33	115	1
130	157	1
114	115	1
121	133	1
64	68	1
100	114	1
88	136	1
81	110	1
38	38	1
73	85	1
93	104	1
170	170	1
139	140	1
106	107	1
83	84	1
14	85	1
