129	162	1
147	147	1
25	25	2
77	78	1
45	45	3
71	71	4
17	18	4
19	31	2
15	15	3
30	30	2
127	141	1
150	150	2
41	41	2
53	59	1
91	92	4
118	118	2
141	141	3
34	53	1
169	169	3
124	124	1
154	154	2
94	94	2
28	115	1
99	100	2
177	177	1
114	114	3
1	1	3
6	6	2
103	103	1
37	37	1
85	85	2
140	140	3
27	31	3
179	180	2
36	36	2
172	172	3
41	42	2
14	14	2
43	52	1
168	169	1
91	91	1
28	28	5
97	97	6
151	153	1
137	138	3
10	41	1
130	141	1
158	158	5
132	132	5
90	95	1
55	80	1
151	154	4
84	84	3
7	20	1
167	168	1
99	99	2
176	176	5
137	137	1
59	62	4
84	85	1
38	38	1
170	170	2
3	3	1
102	103	1
124	125	1
65	70	2
111	111	2
7	7	1
138	138	2
8	8	3
33	33	2
133	138	1
123	123	2
80	80	2
65	66	1
165	167	1
125	125	2
54	56	1
4	4	3
18	27	1
159	159	1
66	67	1
12	13	2
126	126	1
83	83	2
164	164	4
63	63	1
115	115	2
15	23	1
40	40	2
149	150	1
122	122	2
50	52	1
10	10	1
136	136	2
61	61	1
153	153	1
42	42	2
70	70	2
173	173	3
60	72	1
80	84	1
112	154	1
61	105	1
161	161	2
70	131	3
32	39	1
89	95	1
38	39	1
82	82	1
10	131	1
112	153	1
45	46	2
66	66	1
37	44	2
5	5	1
132	133	1
17	17	2
139	139	4
65	65	3
107	108	2
145	149	1
44	44	1
24	30	1
78	159	1
88	88	1
62	62	1
96	125	1
86	104	2
143	144	1
162	163	2
58	89	1
73	73	2
108	111	2
27	32	1
28	44	1
157	158	1
79	79	2
19	19	1
91	112	1
58	58	2
20	22	1
98	99	1
107	107	3
32	33	1
73	75	1
164	165	1
178	178	1
16	23	1
67	67	1
95	95	2
94	95	2
153	154	1
126	127	1
123	150	1
72	77	1
103	105	1
114	118	1
39	57	1
26	91	2
142	142	3
105	106	1
52	60	1
121	121	2
13	13	3
99	101	1
149	149	2
81	81	1
37	39	1
20	21	1
9	9	3
156	156	2
25	27	1
116	118	1
131	131	2
134	134	2
99	118	1
117	121	2
57	57	1
152	152	2
42	43	1
68	68	2
147	148	1
104	106	1
99	117	1
106	106	1
161	164	1
76	76	1
110	110	1
171	171	3
104	105	1
104	130	1
159	160	1
120	150	1
52	62	1
11	13	1
22	26	1
87	89	1
134	135	1
56	56	1
113	113	2
12	15	1
75	76	2
34	34	2
87	88	1
130	131	1
52	53	2
19	20	1
15	45	1
158	159	1
61	66	1
60	60	1
58	82	1
59	59	1
96	98	1
144	161	2
162	162	1
83	84	1
180	180	2
133	134	1
100	101	1
124	126	1
157	157	2
146	146	2
95	96	1
2	2	1
112	114	1
50	51	1
109	121	1
175	175	1
34	35	1
117	118	1
119	120	1
58	60	1
179	179	1
64	104	1
96	96	1
144	144	1
121	122	1
80	81	1
133	133	1
95	102	1
35	35	1
10	11	1
151	151	1
18	18	1
144	145	1
89	90	1
0	0	1
148	148	1
143	145	1
32	32	1
129	129	1
0	1	1
93	93	1
163	163	1
33	45	1
145	145	1
142	145	1
