94	94	3
12	12	3
41	41	3
134	134	1
188	190	1
5	6	2
19	19	2
28	28	2
65	65	3
158	158	3
171	171	4
164	164	1
44	44	2
1	3	2
16	16	4
131	131	1
67	67	2
122	157	1
3	4	1
172	176	1
26	26	1
19	21	1
40	40	3
103	103	1
177	194	1
109	110	1
20	20	2
152	153	2
25	31	1
94	98	1
162	162	1
138	152	1
11	12	1
107	123	1
159	159	4
135	135	1
165	165	1
140	140	3
110	112	2
130	130	1
1	2	1
152	152	2
47	47	1
43	43	1
146	146	2
176	176	1
12	45	1
82	82	2
160	175	1
113	123	1
13	13	2
82	85	1
29	30	1
144	145	2
15	15	1
44	45	1
37	37	2
147	188	1
1	1	6
31	193	1
186	189	1
21	22	1
127	127	1
39	39	1
130	131	2
110	110	1
173	174	1
54	55	1
174	174	1
43	194	1
15	38	2
32	32	2
35	95	2
193	193	3
35	35	4
18	18	1
106	106	4
136	136	2
69	123	1
64	66	1
181	182	1
34	35	1
164	165	1
55	55	1
124	124	2
137	137	1
156	157	1
10	10	3
173	173	2
143	145	1
125	125	2
167	167	2
137	159	1
116	117	1
4	4	2
60	60	1
168	168	5
131	138	1
26	59	1
11	11	1
119	122	1
151	151	2
9	9	1
60	62	1
10	11	1
76	76	5
6	8	1
175	181	1
168	182	1
24	24	3
100	122	2
90	90	1
0	1	1
98	99	1
34	36	2
63	85	1
70	70	1
4	6	2
31	31	2
170	170	2
160	160	2
192	192	1
28	29	1
58	58	1
121	124	1
51	51	3
59	59	2
2	20	1
187	187	2
38	40	1
185	185	3
179	179	1
167	182	1
65	66	1
63	63	3
62	62	1
25	26	1
82	87	1
85	85	1
155	166	1
117	117	1
4	25	1
174	181	2
194	194	1
25	25	5
114	121	1
112	112	1
7	25	2
147	147	2
56	56	1
169	170	1
182	182	1
112	142	1
14	14	2
79	79	2
2	22	1
48	48	2
154	154	1
106	114	1
79	89	1
130	142	1
118	118	4
62	70	2
13	48	1
182	183	1
181	181	1
97	97	1
155	155	2
178	186	1
38	41	1
39	41	1
71	73	1
70	72	1
189	189	1
99	119	1
177	188	1
0	0	3
181	186	1
45	45	2
133	184	1
165	185	2
145	145	2
83	83	2
195	195	1
45	46	2
134	135	1
174	176	1
87	87	1
183	184	2
57	57	1
112	143	1
138	139	1
30	34	1
88	88	1
38	38	1
25	41	1
149	161	1
30	30	1
101	105	1
19	172	1
22	22	1
36	36	1
31	33	1
22	26	1
180	180	1
22	23	1
61	61	2
97	98	1
80	87	1
13	32	1
185	193	1
188	189	1
57	170	1
111	111	2
9	10	2
190	190	1
50	50	1
142	142	1
169	169	1
167	186	1
58	61	1
33	33	1
64	65	1
88	89	1
23	40	1
177	177	1
6	7	2
5	5	1
159	182	1
186	186	1
23	23	1
2	192	1
94	95	1
49	49	1
123	123	1
119	119	1
71	71	1
188	191	1
129	129	1
46	46	1
149	149	1
154	166	1
72	72	1
15	16	1
39	42	1
12	13	1
73	73	1
69	69	1
27	28	1
