116	116	1
88	88	5
125	125	6
10	11	1
120	120	2
8	9	2
24	24	11
19	164	1
37	37	13
19	19	4
168	168	4
40	41	1
53	53	2
3	3	5
150	151	6
19	20	1
142	143	1
76	95	1
20	21	2
154	154	7
18	19	2
43	43	5
6	6	7
104	104	2
143	143	6
91	92	2
139	139	4
17	17	1
42	44	1
15	15	5
14	14	3
12	12	4
15	16	2
41	42	3
153	153	1
101	103	1
148	149	2
138	138	4
117	127	1
158	158	4
155	155	4
10	10	6
44	52	1
42	42	5
109	109	5
126	126	4
135	135	5
112	112	5
139	140	2
99	99	8
119	125	3
156	156	4
113	113	2
44	44	4
0	1	2
41	41	6
18	128	2
21	21	7
73	73	8
49	51	1
97	100	3
54	54	2
161	161	4
46	46	2
131	131	4
134	134	3
117	118	1
11	11	4
93	94	2
132	133	1
146	158	1
151	151	6
160	160	5
43	158	1
70	70	1
15	158	1
159	160	1
87	88	2
46	47	2
8	8	2
18	21	1
34	34	6
89	90	4
81	81	2
35	35	3
18	23	2
39	39	5
146	146	4
28	28	3
90	90	3
76	77	5
80	81	1
51	52	2
123	123	1
166	166	6
48	48	4
149	149	6
38	38	3
27	27	3
58	79	2
82	83	3
119	119	3
152	153	1
118	119	2
94	95	2
132	153	1
163	166	1
89	89	3
86	89	1
84	84	2
168	169	1
107	107	4
12	166	1
98	98	2
106	106	5
116	117	1
155	156	2
102	102	2
79	80	2
2	2	2
80	102	1
140	140	2
5	5	4
52	52	4
162	163	1
65	65	3
144	144	9
40	40	2
36	36	3
50	54	1
4	4	1
134	169	1
117	141	2
62	63	2
169	169	3
118	118	5
87	87	2
130	130	1
13	15	1
132	135	1
167	167	2
101	108	1
122	132	1
137	137	5
159	159	8
124	125	2
25	26	1
11	111	1
13	13	2
77	79	1
18	18	3
39	41	1
12	104	1
132	132	1
52	53	2
20	25	1
144	145	3
157	157	7
45	45	5
37	38	1
54	55	3
67	67	1
15	39	1
140	142	1
7	11	1
144	165	1
136	136	5
161	163	2
146	164	1
46	53	1
91	96	1
168	170	1
51	51	4
56	56	3
4	78	1
38	110	1
93	95	1
83	83	1
26	26	5
39	40	2
6	7	1
12	125	2
102	103	2
35	36	1
162	162	4
117	117	3
100	101	1
13	35	1
24	44	1
64	73	1
112	149	2
139	164	1
76	76	2
27	28	1
149	150	1
111	112	2
152	152	3
36	37	1
80	80	1
25	25	6
133	134	1
74	86	1
75	75	2
145	164	1
98	103	1
95	97	1
119	136	1
0	0	3
110	110	1
146	166	1
57	57	2
47	47	2
118	132	1
16	16	5
23	23	1
93	97	1
148	148	3
20	23	1
107	108	1
106	107	2
143	144	1
15	27	1
38	39	1
18	49	1
146	147	1
20	24	1
79	79	2
150	150	4
1	1	1
138	159	1
114	115	1
13	111	1
101	101	4
108	109	2
44	45	2
115	115	2
80	91	1
48	123	1
124	124	1
17	18	1
55	55	1
138	164	1
64	75	1
7	7	1
13	14	1
82	82	2
142	142	1
21	22	1
10	12	1
130	132	1
114	114	2
101	102	3
93	93	2
147	160	1
121	121	2
117	163	1
14	158	1
108	108	2
91	91	3
49	49	1
3	4	1
76	84	2
99	100	2
27	119	1
96	97	1
14	15	1
84	89	1
54	133	1
169	170	2
145	145	1
92	94	1
62	71	1
64	64	2
11	12	1
64	71	1
143	166	1
141	144	1
71	72	1
25	125	1
11	151	1
73	84	1
163	163	3
164	164	1
125	126	1
8	165	1
140	164	1
122	128	2
56	57	1
161	162	1
89	118	1
141	164	1
28	108	1
113	153	1
151	161	1
9	9	3
28	111	1
122	122	1
22	22	1
118	120	1
71	71	1
103	103	1
170	170	1
33	33	2
147	147	2
3	34	1
90	91	1
90	107	1
92	126	1
77	78	1
19	23	1
10	110	1
77	77	1
105	106	1
122	123	1
91	97	1
94	96	1
156	157	1
161	168	1
