56	56	3
32	32	7
112	113	1
54	54	11
115	116	2
38	38	5
233	233	6
4	4	2
100	100	4
17	17	3
149	149	1
193	195	2
40	41	4
39	39	7
194	233	1
164	164	3
212	212	3
18	19	3
84	89	1
33	34	1
68	68	1
245	245	6
178	178	3
217	217	2
216	216	4
244	245	1
80	81	1
176	226	1
199	200	1
12	42	1
117	117	3
73	102	1
60	62	1
7	7	4
73	77	2
162	185	1
179	179	4
57	66	2
12	12	4
48	48	3
232	232	3
10	11	2
41	41	1
155	155	7
225	225	3
27	27	3
48	65	1
228	228	6
112	119	1
43	44	2
192	195	1
191	192	1
163	169	1
112	112	3
42	42	6
240	244	1
14	14	3
238	239	3
201	201	6
65	65	2
191	191	1
166	171	1
46	47	2
202	203	1
115	118	1
16	17	1
153	154	3
179	237	1
19	19	4
227	230	1
66	66	3
21	36	1
47	47	3
160	160	3
60	61	2
59	62	2
187	190	2
102	107	1
22	22	1
173	173	6
224	224	3
150	150	1
55	55	3
113	113	1
19	20	3
95	240	1
161	161	4
23	23	2
227	227	3
181	181	3
157	157	3
197	197	2
120	120	1
53	166	1
158	185	2
186	186	3
60	89	1
8	8	2
3	61	1
104	105	2
163	185	1
1	1	2
190	213	2
170	170	2
244	244	6
48	49	5
45	45	5
95	95	1
51	51	8
184	184	5
187	193	1
6	34	1
170	185	2
192	193	2
20	20	2
40	40	2
174	174	2
209	222	1
222	222	3
36	36	3
58	58	2
53	53	2
157	224	1
229	229	1
5	34	1
103	103	2
200	201	1
106	106	1
240	240	3
59	59	2
211	211	4
162	162	1
88	99	2
248	248	1
98	107	1
234	234	2
62	62	1
75	75	3
64	64	5
178	179	1
114	114	3
200	210	1
99	99	1
69	69	2
105	107	2
173	174	2
69	91	1
25	52	1
219	238	1
29	29	2
227	228	3
86	86	2
28	33	1
44	44	4
229	237	2
26	26	4
71	71	3
52	179	1
49	49	4
179	200	1
165	165	3
195	200	2
73	73	1
244	246	2
158	190	1
67	67	1
20	31	1
85	94	1
54	91	2
170	200	1
169	169	2
18	20	2
72	107	1
88	89	1
187	242	1
199	199	2
101	183	2
190	191	2
87	88	2
202	226	1
83	83	3
52	52	1
167	202	1
41	42	2
93	93	3
15	15	4
30	30	3
9	9	2
77	78	1
110	111	1
82	83	1
30	52	1
52	100	2
57	58	2
177	177	2
224	233	1
218	219	2
91	92	2
52	53	3
207	207	6
247	247	2
213	213	4
81	81	2
22	26	1
188	190	1
25	26	1
29	30	1
200	222	1
31	31	1
192	192	2
68	70	1
187	187	1
53	100	1
163	164	3
67	78	2
237	237	2
13	13	2
52	67	1
227	233	1
246	246	2
179	180	1
89	89	1
191	194	1
105	105	3
115	182	1
103	105	1
35	37	1
211	214	1
202	235	1
70	92	1
216	218	1
187	188	1
184	186	1
84	116	1
215	232	1
79	79	1
230	231	1
42	110	1
96	96	1
39	40	1
76	105	1
27	45	1
50	50	1
18	47	2
60	60	1
166	166	2
163	171	1
114	115	1
235	235	6
109	109	1
241	241	3
236	240	1
51	52	3
11	151	1
111	114	2
221	221	2
76	76	1
175	175	3
51	91	1
25	25	1
75	76	1
105	106	1
167	167	2
57	60	1
184	192	1
33	33	3
190	190	1
61	61	1
164	166	1
201	207	1
176	181	1
102	102	3
94	94	1
77	77	2
183	184	1
188	193	1
50	51	1
230	230	4
223	223	2
182	207	1
7	8	2
156	156	4
34	34	1
182	182	3
204	204	2
214	219	1
171	171	2
177	213	1
186	191	1
73	105	2
95	100	1
205	205	2
117	118	2
189	189	2
194	194	1
80	80	1
19	206	1
37	47	1
68	69	1
176	224	2
9	15	2
7	16	1
21	21	1
74	74	2
7	9	1
2	3	1
15	16	2
6	6	3
241	244	1
71	72	1
188	188	3
110	110	1
10	52	1
180	180	2
183	215	1
110	118	1
195	196	1
189	190	1
23	43	2
220	226	1
210	210	2
14	15	1
116	116	3
98	109	1
222	223	2
196	196	1
54	247	1
104	104	2
47	48	1
13	14	1
101	101	1
45	46	1
84	84	1
66	68	1
167	223	1
203	203	2
153	153	1
115	115	1
2	7	1
193	221	1
93	109	1
208	208	3
203	228	1
188	189	1
228	229	2
188	192	1
190	195	1
29	31	1
185	220	1
38	53	1
118	119	1
16	28	1
197	198	1
109	185	1
162	209	1
76	77	3
64	200	1
204	205	2
215	248	1
88	107	1
18	21	1
159	164	1
198	211	2
193	193	2
37	37	1
107	107	1
76	79	1
214	221	1
17	18	2
219	219	1
78	85	2
7	31	1
63	64	2
63	63	1
157	168	1
231	231	1
119	119	2
92	93	1
222	242	1
20	24	1
20	25	1
168	168	2
168	169	1
176	177	2
238	238	1
220	222	1
225	228	1
158	209	1
108	120	1
205	224	1
198	198	1
209	209	1
11	150	1
39	41	1
74	82	1
154	154	1
60	64	1
245	246	1
200	200	2
98	99	1
22	207	1
104	106	1
179	199	1
195	197	1
6	7	1
183	183	1
85	87	1
90	90	1
15	51	1
177	178	2
236	236	1
52	91	1
179	185	1
155	228	1
27	28	1
225	235	1
179	234	1
182	205	1
70	70	1
200	233	1
28	28	1
164	188	1
53	180	1
202	202	1
209	214	1
214	214	2
234	235	1
200	214	1
227	246	1
59	61	1
215	217	1
195	195	1
16	16	1
115	117	1
