155	156	3
7	130	1
104	104	1
81	83	1
87	87	2
44	129	1
83	132	1
6	6	4
115	115	3
92	93	1
23	23	2
138	138	2
107	107	4
77	77	1
41	43	1
86	107	1
33	33	2
55	55	2
108	109	2
101	101	5
119	142	1
47	47	2
123	146	1
43	43	2
5	152	1
13	16	1
113	113	4
121	137	3
89	89	1
131	132	1
72	129	1
117	123	2
91	91	1
112	140	1
145	145	2
85	85	4
152	152	4
68	68	1
31	132	2
132	134	1
55	56	1
22	28	3
5	5	1
54	54	3
121	121	2
30	31	1
95	96	2
105	105	2
135	135	7
111	111	2
65	65	2
15	15	1
72	72	1
91	93	1
114	141	1
90	91	4
32	36	1
108	124	3
25	26	1
148	148	2
24	24	4
79	79	2
93	93	3
52	53	1
48	48	1
150	150	7
50	52	1
61	145	1
57	57	1
158	158	5
30	30	3
51	51	1
100	100	3
33	39	1
155	155	4
120	137	2
76	76	1
150	151	1
9	9	3
27	92	1
157	159	1
38	42	1
7	7	1
56	66	1
122	122	2
106	139	1
127	151	1
29	29	1
36	36	3
25	25	2
120	120	4
40	43	2
95	95	1
29	33	2
27	119	1
38	54	2
141	141	2
130	130	1
128	128	5
91	92	2
84	84	2
21	45	2
81	82	2
19	31	1
62	62	1
26	27	1
1	100	1
116	117	2
99	100	2
103	103	1
32	33	2
124	128	1
106	106	4
139	139	2
31	32	1
151	151	4
156	156	3
98	98	1
67	70	1
92	92	3
97	97	1
123	124	1
125	125	2
127	127	1
65	131	1
30	47	1
107	108	1
99	99	2
80	80	2
110	110	2
107	112	1
118	118	1
42	42	2
88	134	2
124	124	5
136	136	3
129	129	2
47	50	1
34	34	2
94	94	2
1	50	2
43	66	1
35	36	1
90	90	1
32	69	1
85	108	1
49	50	1
123	123	2
40	40	2
146	147	3
70	71	1
13	31	1
130	131	3
75	102	1
40	55	2
45	52	1
125	126	1
145	149	1
86	108	1
68	79	1
154	154	1
86	86	2
116	132	1
137	148	3
71	71	3
24	26	1
37	37	1
106	107	1
78	79	2
84	119	1
99	151	1
109	110	3
152	154	1
142	142	1
36	69	1
39	43	1
98	139	1
154	155	1
21	41	1
145	146	1
1	2	1
51	62	1
91	96	1
27	28	1
41	41	1
131	133	1
44	44	3
117	119	1
22	22	1
0	0	1
69	69	1
121	148	1
40	41	1
112	112	3
24	28	1
140	140	2
136	137	1
64	66	1
52	52	1
145	147	1
15	16	1
17	153	1
8	11	1
42	43	3
77	84	1
96	96	1
17	20	1
71	72	1
29	43	1
126	144	1
102	156	2
33	37	1
76	92	1
2	2	3
64	64	1
115	125	1
21	143	1
144	144	1
75	75	2
112	143	1
39	41	1
108	108	2
46	82	1
1	1	1
18	31	1
16	16	1
132	138	1
26	95	1
137	147	1
27	27	1
19	19	1
28	28	1
8	9	1
82	83	1
137	145	1
119	123	1
50	50	1
77	90	1
73	73	2
116	116	1
108	117	1
20	20	2
69	97	1
20	35	1
121	126	1
129	130	1
120	127	1
98	156	1
67	71	1
18	18	1
103	122	1
69	78	1
97	98	1
31	67	1
120	121	1
108	125	1
88	89	1
113	116	1
128	152	1
132	152	1
14	14	1
115	117	1
93	136	1
93	96	1
29	138	1
32	32	1
143	143	1
153	156	1
