3	4	7
57	57	4
126	130	1
65	98	3
117	117	6
17	17	4
6	6	11
124	139	2
3	10	2
50	50	4
68	68	7
143	145	4
137	138	5
103	103	3
31	31	7
152	152	3
27	27	2
142	175	1
95	99	1
107	131	2
173	173	5
29	29	2
166	166	4
150	150	8
10	14	1
98	99	4
104	133	1
102	103	5
61	61	8
38	38	7
112	112	4
87	143	1
5	5	7
108	121	1
126	140	1
148	148	8
55	60	2
125	130	2
149	149	8
81	87	2
175	176	5
65	65	8
113	113	3
157	157	5
104	104	4
20	20	4
5	6	3
84	107	1
24	29	3
54	96	2
170	171	5
151	151	5
134	134	8
142	142	8
56	73	1
81	81	2
11	11	10
132	133	1
98	98	1
121	122	2
142	147	1
26	28	2
82	82	2
119	120	4
80	122	1
89	90	3
53	53	3
137	137	6
107	146	1
111	112	1
51	51	6
131	131	11
7	60	2
1	91	1
141	141	7
150	151	2
98	173	1
28	29	4
121	121	10
56	57	2
15	35	1
58	58	9
162	170	1
41	43	4
96	96	7
139	139	8
5	71	1
122	125	1
61	63	2
143	143	3
149	174	1
94	94	5
141	142	1
153	167	1
1	1	6
176	176	6
148	176	1
6	7	4
13	15	1
32	32	6
143	147	1
90	90	5
14	15	3
8	45	1
165	166	3
78	78	4
122	122	2
58	88	2
175	175	3
131	158	1
12	16	2
111	111	8
131	172	1
126	127	1
5	12	1
109	110	2
163	171	1
125	126	1
154	157	1
155	155	4
29	39	1
83	84	3
73	78	1
52	55	1
108	108	2
101	103	1
50	51	4
147	147	3
124	124	7
75	76	3
123	123	4
2	2	8
43	44	2
138	149	2
158	169	1
127	127	7
73	154	1
4	26	1
62	64	1
92	93	3
126	126	5
105	105	2
85	86	5
111	126	1
36	36	9
152	153	2
102	104	1
26	27	3
40	42	3
131	157	1
29	34	1
135	135	5
126	165	1
72	73	2
118	125	1
4	24	1
102	102	1
94	95	3
136	143	2
88	88	4
83	107	1
89	148	1
6	9	3
42	42	8
40	40	10
115	116	2
158	158	4
24	24	2
145	146	3
34	34	8
120	120	4
87	87	4
37	38	2
142	143	5
118	118	2
127	130	2
153	153	12
41	42	5
133	133	8
17	19	2
55	73	1
136	138	1
10	17	1
53	56	1
112	131	1
20	23	1
64	98	2
6	10	1
117	120	1
144	145	1
81	122	1
91	94	2
150	153	2
63	63	1
8	30	1
169	169	1
101	101	4
104	113	1
8	8	6
112	115	1
61	90	2
97	98	2
92	92	6
3	3	3
81	82	3
167	167	3
126	169	1
55	96	2
165	168	1
11	35	1
161	161	5
132	145	1
98	132	2
149	158	1
56	96	3
130	130	8
140	140	7
87	89	1
149	154	1
99	100	4
27	35	1
146	146	7
136	137	2
86	87	1
178	178	4
180	180	3
75	75	6
73	73	7
54	54	7
56	56	5
164	164	2
10	10	12
80	80	9
22	22	3
157	158	4
3	25	1
53	54	2
109	127	1
72	72	5
23	27	1
10	27	1
55	88	1
156	156	5
13	42	3
22	24	3
6	11	3
42	179	1
116	117	4
159	159	4
88	111	2
154	156	2
24	27	2
31	52	1
105	106	1
15	16	2
77	78	4
60	61	1
143	157	1
119	119	5
106	106	2
154	162	2
109	109	3
37	61	2
38	39	3
18	20	1
135	157	1
12	40	1
86	86	4
98	102	1
114	114	3
37	37	11
168	168	9
12	13	3
40	65	1
134	138	4
64	64	4
0	0	7
107	107	3
8	44	1
66	149	1
132	132	5
130	154	1
165	165	1
28	28	4
19	45	1
44	45	3
56	61	1
41	41	7
86	89	1
173	176	1
169	172	2
171	171	3
99	99	2
59	59	5
160	160	4
145	145	5
151	152	3
62	93	1
91	115	1
9	10	3
43	93	2
9	23	1
79	79	5
115	148	2
76	77	4
14	17	2
16	41	1
61	97	2
14	65	1
116	134	2
130	131	3
22	25	1
138	138	9
137	140	1
23	23	7
13	13	9
93	94	2
22	23	1
45	45	2
73	74	2
31	32	4
60	60	4
96	159	1
114	125	1
173	175	2
105	107	1
66	66	4
29	30	2
7	7	5
151	157	1
39	41	3
149	150	3
80	81	2
91	145	1
7	33	1
116	120	2
39	52	1
64	65	2
31	33	1
25	29	1
93	106	2
163	164	2
1	27	1
61	62	2
35	138	1
23	25	1
95	95	5
167	168	2
174	174	5
77	77	2
144	157	2
147	148	2
6	15	1
1	115	1
172	174	1
166	167	5
122	145	1
75	136	1
39	39	6
14	14	3
52	90	1
36	37	1
25	28	1
19	21	2
91	92	2
77	114	1
52	73	1
28	32	1
9	9	5
160	162	1
55	55	5
21	21	1
155	158	1
12	12	5
93	93	3
22	26	1
35	36	3
8	20	1
75	77	3
162	172	2
62	62	7
33	33	5
103	105	2
43	45	2
120	124	2
26	51	1
169	170	1
57	58	1
58	62	2
96	138	1
15	15	2
83	83	2
167	171	1
23	29	1
74	74	6
74	75	2
134	135	1
65	81	1
146	147	2
80	88	1
19	19	3
130	158	1
142	149	1
160	161	1
71	71	10
148	149	4
44	44	4
106	148	1
152	154	1
130	132	2
170	170	1
125	125	5
20	21	3
128	129	2
129	130	5
115	118	1
8	29	1
124	125	1
82	85	1
154	154	3
163	169	1
67	67	4
16	16	4
179	180	4
174	175	1
27	33	3
30	30	2
12	17	2
163	163	2
3	31	1
124	129	1
110	110	8
136	136	6
70	70	2
17	43	1
55	56	1
7	42	1
17	20	1
126	154	1
85	85	1
26	26	5
71	72	3
66	68	1
10	41	1
172	172	10
19	64	1
102	132	2
106	107	3
58	87	1
145	156	1
96	98	1
40	43	1
16	17	1
117	162	1
84	84	2
127	154	2
114	170	1
129	144	1
25	25	2
8	9	3
3	35	2
141	154	1
157	159	1
87	92	1
118	119	3
165	178	1
164	169	1
42	90	1
136	167	1
43	43	3
0	13	1
137	159	1
156	168	1
89	106	1
1	29	1
10	11	1
88	90	2
169	171	2
125	128	1
176	178	1
37	68	1
142	148	1
76	76	4
94	111	1
52	84	1
128	130	1
143	144	5
118	120	2
1	55	1
4	4	5
42	43	3
99	101	2
94	96	1
45	53	1
158	163	1
21	22	2
127	128	1
16	61	1
167	174	1
5	29	1
5	173	1
79	81	1
2	3	3
137	157	1
179	179	3
30	31	1
135	136	1
8	41	1
72	76	1
136	166	1
144	146	1
96	97	1
146	148	1
62	63	1
39	40	2
75	80	1
172	173	1
173	174	3
0	72	1
125	146	1
60	67	1
170	172	1
67	96	2
98	178	1
144	144	6
87	145	2
10	22	2
131	132	4
103	104	2
105	110	1
107	120	1
23	28	1
110	111	1
135	137	1
155	156	1
117	118	1
10	116	1
112	171	2
162	162	2
7	9	1
112	114	1
60	62	1
79	80	1
142	145	1
134	171	1
17	18	3
67	92	1
113	115	1
154	176	1
78	79	2
18	18	4
27	31	2
4	29	1
52	80	1
2	38	1
1	60	1
116	118	1
149	175	1
135	167	1
15	22	1
5	39	1
119	121	2
76	78	1
97	97	1
96	121	1
151	154	1
59	67	1
36	41	1
151	160	1
72	108	1
28	30	1
165	167	1
6	40	1
82	83	1
36	166	1
55	80	1
129	129	3
143	151	1
115	117	1
61	91	1
168	169	1
1	31	1
158	159	1
113	116	1
123	124	1
56	176	2
159	160	2
16	18	1
11	13	2
83	106	1
177	179	1
74	78	1
118	140	1
39	57	1
12	22	2
71	73	1
11	14	1
64	67	1
81	95	1
0	11	1
52	94	1
51	93	1
90	94	2
166	168	1
87	93	1
67	72	1
138	139	1
175	177	1
124	155	1
116	116	1
118	158	1
86	90	1
66	67	1
24	59	1
100	115	1
60	64	1
115	115	2
94	113	1
24	25	1
5	10	1
18	19	1
121	126	1
32	34	1
0	36	1
144	158	1
108	109	2
20	39	1
107	109	1
1	6	1
149	179	1
90	147	1
5	34	1
11	12	1
25	26	1
88	89	1
8	24	1
58	61	1
103	107	1
86	88	1
161	162	3
160	163	1
59	60	1
74	177	1
12	19	1
99	110	1
139	140	1
164	167	1
85	87	1
67	93	1
36	77	1
111	119	1
7	8	1
118	156	1
14	18	1
156	158	1
89	89	2
111	131	1
17	89	1
49	49	1
118	173	1
122	127	1
80	173	1
140	144	2
124	142	1
19	20	1
35	35	1
61	64	1
141	173	1
54	67	1
18	61	1
100	102	1
4	11	1
75	104	1
147	149	1
117	119	1
10	16	1
0	71	1
73	81	1
52	52	1
7	68	1
9	43	1
128	128	1
131	168	1
117	148	1
123	125	1
28	52	1
8	42	1
7	34	1
130	168	1
81	84	1
109	111	1
100	172	1
110	148	1
153	154	1
122	124	1
87	148	1
25	44	1
52	53	1
143	149	1
127	141	1
126	128	1
