21	27	1
20	191	1
12	12	6
26	26	4
13	66	2
42	42	4
185	185	2
57	57	1
121	122	1
167	167	2
95	96	1
58	62	2
73	100	2
143	155	1
174	175	1
6	6	4
40	42	1
30	30	1
58	58	1
122	122	2
154	154	3
39	39	3
123	123	3
71	71	2
7	8	1
196	196	2
177	177	3
159	159	2
13	13	1
157	158	2
3	3	1
68	68	2
99	99	2
28	29	1
26	34	1
45	58	1
149	149	2
15	15	4
151	151	1
188	188	2
113	113	1
180	180	1
129	138	3
37	38	2
105	106	1
5	8	1
24	26	1
13	43	1
28	30	2
185	186	1
108	108	3
187	196	1
187	187	2
76	76	2
19	21	1
14	14	2
87	87	2
168	168	1
50	51	1
35	35	2
47	48	2
156	172	1
4	5	2
55	56	1
150	150	3
181	181	2
193	193	2
71	184	1
46	47	2
33	40	2
64	64	3
150	186	1
151	153	1
71	72	3
33	33	3
15	29	1
139	139	1
182	186	1
9	9	1
60	63	1
135	135	1
186	186	1
103	105	1
12	52	1
178	178	1
77	78	2
175	175	2
170	170	3
40	40	3
150	185	1
46	46	2
7	7	1
132	132	1
172	183	1
51	51	1
31	33	1
52	52	3
85	86	1
155	155	4
11	11	1
141	193	1
78	78	1
30	34	1
150	174	2
119	119	2
184	184	1
124	125	2
64	65	1
34	35	1
88	90	1
76	84	1
8	19	1
47	52	1
20	20	2
167	168	1
23	25	1
12	16	1
54	63	1
41	41	1
59	60	1
27	27	1
126	127	1
172	177	1
101	101	1
173	174	1
156	158	1
40	54	1
34	58	1
23	24	2
47	47	4
147	176	1
178	179	1
45	45	2
112	112	1
192	193	1
106	127	1
96	96	1
48	49	1
170	185	1
161	164	1
61	61	1
25	25	4
69	69	1
183	183	4
36	36	1
142	150	1
97	97	1
178	193	1
160	160	2
128	128	1
119	120	1
133	133	1
72	72	1
115	142	1
130	130	1
10	11	1
72	83	1
24	25	1
195	195	3
132	144	2
187	189	1
78	101	1
38	38	1
0	5	1
21	21	1
9	12	1
79	79	1
145	145	2
2	2	1
110	110	1
108	153	1
20	34	1
95	95	1
20	25	1
139	172	1
115	115	1
29	46	1
193	196	1
77	77	1
54	54	2
158	158	1
156	156	1
141	142	1
169	171	1
10	10	1
84	84	1
140	140	1
184	185	1
59	62	1
197	197	1
149	166	1
194	194	1
162	162	1
84	102	1
1	4	1
139	176	1
79	80	2
172	178	1
31	31	1
85	85	1
115	116	1
18	18	1
44	46	1
94	96	1
171	172	1
146	162	1
17	18	1
171	181	1
61	193	2
1	7	2
196	197	1
74	74	1
39	44	1
3	9	1
73	73	1
14	21	1
113	146	1
69	70	1
39	67	1
176	191	1
152	152	2
50	65	1
183	184	1
138	138	1
98	106	1
54	62	1
125	127	1
118	119	1
142	142	1
1	3	1
79	98	1
176	176	1
192	192	1
189	189	1
0	0	1
7	23	1
