82	82	6
51	85	2
86	86	5
67	67	4
59	63	1
8	8	2
21	22	1
24	24	4
85	85	2
9	9	8
89	89	3
10	33	1
66	66	7
87	88	1
52	52	7
79	82	1
31	31	9
7	10	1
88	89	1
9	10	1
48	48	5
3	4	1
80	84	1
33	33	2
73	73	5
13	13	3
11	11	8
27	31	1
6	17	2
48	49	1
62	63	5
7	11	2
57	58	1
71	87	1
70	71	2
69	69	7
77	77	8
81	81	8
49	49	3
68	68	3
70	73	2
80	80	4
19	19	4
85	86	2
72	73	1
79	79	7
27	27	7
26	27	2
74	74	6
72	80	1
56	57	6
78	78	3
26	26	9
1	2	3
73	84	2
20	20	7
12	29	1
69	71	1
84	84	4
54	55	1
75	75	3
63	64	2
23	23	5
60	61	3
49	62	1
25	28	1
56	56	4
25	26	2
71	76	1
62	65	3
65	65	7
76	82	1
87	87	3
7	9	1
83	83	6
5	11	1
54	54	5
71	71	4
79	84	1
1	1	3
2	3	2
62	62	3
6	84	1
84	85	1
55	77	1
51	51	10
47	54	1
34	34	3
7	8	5
47	47	3
55	55	7
60	60	2
10	10	2
20	27	1
2	6	1
51	52	2
14	14	3
12	49	1
23	24	2
12	12	2
20	25	2
68	85	2
11	73	1
24	27	1
75	84	1
0	0	6
30	30	4
10	24	1
6	21	1
56	60	1
59	60	1
75	77	2
19	20	2
15	16	2
88	88	2
76	85	2
61	63	1
71	74	1
80	81	1
63	63	1
2	14	1
46	48	1
2	2	2
12	17	1
69	75	1
58	58	2
0	1	1
61	61	3
4	11	1
4	5	1
76	76	2
53	53	5
56	71	2
6	6	3
7	23	1
68	71	1
80	82	2
5	19	2
2	4	2
57	57	3
72	72	3
84	86	1
82	85	1
78	82	1
64	64	3
2	25	1
55	73	1
25	25	3
68	80	1
54	66	2
6	49	1
35	35	2
0	9	1
70	70	2
74	77	2
26	72	1
19	25	1
48	67	1
50	50	5
62	64	3
58	75	1
17	17	2
48	64	1
28	28	2
5	5	3
20	21	1
49	51	1
63	68	1
3	14	2
4	6	1
25	80	1
58	64	1
7	7	4
68	69	3
78	79	1
76	78	1
32	32	1
47	79	1
46	61	1
16	16	2
58	66	1
50	61	1
5	6	1
55	57	4
3	3	3
64	67	1
22	22	3
4	4	4
11	15	1
78	80	1
7	83	1
12	74	1
52	77	1
3	8	1
58	60	1
66	76	1
9	11	2
8	9	2
88	90	1
64	76	2
60	62	1
22	23	1
23	25	1
25	27	1
50	54	1
49	66	1
21	21	1
72	86	1
49	50	1
52	74	1
83	87	1
54	61	1
65	67	1
55	56	1
86	87	1
67	70	1
1	10	1
63	70	1
87	89	1
15	15	2
29	29	1
30	31	1
30	69	1
74	76	1
53	57	1
17	79	1
79	80	1
30	87	1
17	19	2
14	16	1
35	78	1
68	70	1
76	83	2
24	25	1
14	20	1
20	22	1
52	60	1
82	84	1
82	83	1
59	65	1
13	18	1
