180	180	1
162	162	4
213	245	1
237	237	5
24	25	3
26	26	2
116	117	2
208	209	1
231	231	1
245	246	1
165	210	1
192	192	3
190	194	1
219	219	3
2	211	1
160	160	2
211	211	4
78	78	1
9	230	1
40	40	3
95	195	1
68	71	1
4	4	1
69	69	1
162	191	1
242	245	1
77	77	5
32	32	5
92	92	1
59	60	1
244	244	3
228	228	1
239	240	1
110	110	1
35	204	1
14	14	2
207	207	4
2	2	1
162	180	4
150	150	4
8	228	1
93	167	1
21	21	2
203	203	3
103	103	1
239	239	2
185	185	2
229	229	2
107	107	2
104	107	1
245	245	3
50	50	1
209	219	1
99	99	2
97	97	1
205	226	1
172	173	3
222	222	3
117	118	1
52	53	1
248	248	1
55	55	2
62	93	1
212	212	2
185	188	1
74	98	1
65	71	1
166	166	1
53	53	4
235	235	1
46	203	1
91	91	1
61	83	1
185	187	2
221	221	1
209	209	2
56	59	2
182	182	2
39	39	1
240	240	1
231	240	1
60	78	1
46	84	1
90	97	1
67	67	2
176	176	4
177	199	1
238	241	1
116	120	2
207	224	1
218	219	1
217	217	2
54	220	1
49	58	1
200	200	1
55	67	1
158	160	3
84	84	2
156	161	1
195	195	2
118	118	1
66	66	3
108	108	3
194	197	1
232	232	3
38	41	2
35	35	3
47	47	2
175	175	1
109	110	2
74	75	1
106	106	2
54	54	2
171	211	1
238	240	1
206	212	1
173	173	1
155	155	3
233	233	1
214	215	1
76	76	1
60	63	1
156	157	1
42	42	2
178	180	1
34	35	1
37	155	2
181	183	1
15	15	1
19	19	2
88	88	1
100	100	1
168	188	1
104	104	1
82	82	1
228	229	2
64	65	1
36	36	2
236	236	3
10	228	2
64	74	1
197	197	1
168	171	1
80	80	2
242	242	1
104	105	1
238	238	1
28	167	1
161	161	2
45	45	1
45	155	1
30	111	1
193	201	1
20	21	2
113	114	1
205	211	1
52	52	4
76	81	1
19	21	1
46	109	1
6	6	1
87	87	2
27	40	1
178	178	4
38	38	3
48	55	1
202	202	1
105	105	2
145	145	2
117	120	1
28	28	4
208	208	2
152	152	2
175	181	1
212	221	1
1	229	2
218	218	1
49	49	1
175	176	1
64	64	1
44	44	1
225	240	1
59	88	1
69	70	1
109	109	2
179	231	1
169	169	2
27	27	2
90	90	1
29	29	2
177	177	2
189	189	1
51	65	1
169	208	1
118	119	1
96	98	1
214	214	3
196	208	1
159	159	1
196	196	3
197	199	2
52	179	1
24	26	2
102	103	1
242	243	1
208	216	1
224	245	1
162	183	1
11	11	2
176	177	1
33	33	2
201	201	2
187	188	1
241	241	3
151	151	1
31	110	1
41	41	1
46	167	2
249	249	1
8	28	1
49	50	2
61	61	1
186	186	1
47	49	1
193	194	1
15	161	1
184	184	2
45	93	1
95	96	1
187	189	2
157	157	2
240	241	1
183	183	1
206	206	1
237	239	1
106	108	1
11	150	1
247	247	1
176	190	1
146	147	1
172	190	1
167	167	1
198	198	2
85	85	1
229	231	1
68	68	2
174	179	1
81	82	1
56	57	1
201	202	1
186	190	1
113	113	1
190	192	1
210	211	1
73	73	3
112	112	1
153	153	2
199	199	1
178	191	1
38	45	1
9	10	1
57	57	1
204	204	1
116	116	1
224	224	2
26	39	1
217	228	1
198	199	1
203	213	1
205	205	2
174	217	1
8	10	1
1	158	1
2	7	1
181	181	1
177	191	1
59	59	1
62	76	1
98	99	1
171	172	1
214	224	1
47	77	1
28	36	1
43	43	1
95	100	1
50	163	1
2	20	1
156	156	1
25	28	1
16	16	1
150	154	1
169	170	1
53	54	1
63	83	1
8	8	1
36	45	1
238	239	1
79	81	1
161	163	1
119	120	1
