37	37	4
84	85	8
21	21	10
125	125	2
62	76	1
74	75	1
71	71	10
8	8	5
6	6	8
73	99	2
18	19	1
114	114	8
31	33	3
130	130	11
17	17	4
103	104	2
114	131	2
64	64	9
73	74	3
33	33	8
7	8	2
132	133	1
80	80	19
118	118	7
61	61	14
14	14	9
110	111	1
3	3	10
73	73	14
23	23	5
81	81	6
93	93	5
20	21	2
50	71	2
127	127	10
115	115	7
134	134	8
105	105	3
13	14	4
115	119	1
20	20	3
126	127	3
54	68	1
117	118	2
65	66	4
62	62	4
0	4	1
126	126	7
57	58	3
63	63	10
32	32	7
132	132	4
116	116	7
59	59	5
52	52	3
86	86	8
116	118	1
12	62	1
51	51	1
46	51	2
104	104	7
68	68	6
129	131	1
26	26	11
43	43	10
128	128	4
59	84	1
91	91	8
69	69	11
71	72	2
108	109	4
125	126	2
65	65	8
130	131	2
88	88	4
70	70	11
1	1	6
50	50	9
10	10	5
79	79	10
124	125	4
3	4	4
101	101	4
87	88	2
33	50	2
2	3	2
55	55	7
79	80	4
1	2	1
21	22	3
60	61	4
16	32	1
92	92	9
34	34	1
58	59	2
120	120	7
1	3	2
45	45	11
52	58	1
55	59	2
2	47	1
37	39	1
5	5	7
67	69	1
89	89	1
15	15	14
94	95	1
116	129	2
30	32	1
24	24	7
62	63	3
58	58	7
99	99	7
66	66	5
7	7	5
118	130	1
76	76	10
67	67	12
28	28	13
75	75	4
53	53	13
9	9	4
44	44	10
88	93	2
35	35	3
107	107	4
75	79	1
30	30	8
2	45	1
76	93	2
94	94	7
128	129	3
2	2	6
110	117	1
59	60	4
116	122	1
91	106	1
35	113	1
72	73	4
72	72	9
29	31	1
49	50	3
54	54	4
55	58	1
87	87	7
8	21	3
112	112	3
2	44	1
0	0	5
20	66	1
54	55	2
27	27	2
11	11	9
90	90	8
65	67	3
100	100	5
106	116	1
98	102	2
119	119	6
46	48	1
12	29	2
64	66	1
83	83	9
52	54	3
109	109	3
49	49	3
52	53	2
110	110	1
123	123	5
44	45	5
53	54	4
19	19	4
19	24	1
112	114	2
25	28	1
13	13	8
98	98	4
34	35	3
12	12	6
133	134	2
106	106	2
55	56	7
131	131	4
113	113	3
96	96	4
17	122	1
119	120	1
78	78	7
113	114	1
133	133	6
79	105	1
75	77	1
77	77	11
29	30	1
50	65	1
5	102	1
117	117	4
102	102	9
31	31	9
33	34	3
121	125	1
58	66	2
77	90	1
16	16	10
70	71	2
60	86	1
103	119	1
12	13	2
22	22	4
29	29	8
77	79	1
4	4	4
20	24	1
60	80	1
61	63	1
43	45	1
111	111	6
60	122	1
46	46	2
60	65	1
86	88	1
97	97	4
129	129	4
86	87	5
61	89	1
122	122	3
48	48	3
16	74	2
56	56	6
4	5	2
5	12	1
83	113	1
78	128	1
70	116	1
59	125	1
59	62	1
60	60	3
14	22	1
103	103	5
17	18	2
59	79	2
116	127	1
85	85	4
94	120	1
124	124	2
97	98	1
131	132	2
35	114	1
101	126	2
75	80	1
8	10	2
76	80	1
112	113	4
66	104	1
47	93	1
36	37	1
82	85	3
9	10	2
85	86	1
7	17	1
74	74	6
108	108	3
20	42	1
82	83	3
8	31	1
119	127	1
0	1	1
70	96	1
130	132	1
108	110	2
100	101	1
88	92	1
36	36	4
93	94	2
99	100	1
83	85	1
76	77	3
84	84	6
16	24	3
68	69	2
66	68	1
47	47	4
30	31	1
33	36	1
86	107	1
21	29	1
27	28	2
72	75	1
111	116	1
10	11	1
7	15	2
56	57	1
24	119	1
19	20	3
43	44	3
71	104	2
5	6	1
48	63	1
89	91	1
0	33	1
118	119	2
74	104	1
94	98	2
48	80	1
66	69	1
3	6	1
18	23	1
111	112	1
18	18	4
84	92	1
107	110	1
102	104	1
46	47	1
77	78	3
45	81	1
122	123	1
57	57	1
128	131	1
25	25	2
15	16	3
64	65	3
80	81	1
60	79	1
14	123	1
47	50	1
4	27	1
56	107	1
65	71	1
75	76	2
114	121	2
66	67	1
82	84	2
33	68	1
120	121	1
121	121	2
53	55	1
7	9	1
25	42	1
79	82	1
31	32	3
106	119	1
25	32	1
67	68	1
83	87	1
82	114	1
91	92	1
63	64	1
6	17	1
67	89	1
54	82	2
129	130	1
71	81	1
52	79	1
54	59	1
82	82	4
76	127	1
22	23	1
70	134	1
27	29	1
24	25	1
1	47	1
118	128	1
72	81	1
16	18	1
94	100	2
98	121	1
106	111	1
3	51	1
74	80	1
95	95	1
83	84	1
65	68	1
82	108	1
30	89	1
66	86	1
57	61	1
54	56	1
47	48	1
76	78	1
8	11	1
15	34	1
50	62	1
92	103	1
106	107	1
115	124	1
52	60	1
86	90	1
5	30	1
55	57	1
43	86	1
113	116	1
