13	13	4
8	35	2
3	31	2
177	177	1
133	134	1
82	92	1
81	81	4
120	120	3
141	141	2
2	2	2
94	94	3
158	158	3
4	11	2
71	71	2
23	24	2
122	126	1
60	60	3
151	151	1
3	3	2
135	135	3
176	176	3
115	116	4
7	7	4
36	37	2
102	102	2
41	41	1
67	81	1
122	148	1
82	94	1
131	131	3
139	139	3
127	127	3
32	32	1
88	134	1
44	44	3
59	59	1
158	160	1
155	155	5
9	22	1
165	165	4
142	142	4
4	4	1
38	38	2
7	14	1
129	129	1
8	19	1
20	20	3
9	26	1
104	104	1
85	113	1
3	4	1
108	108	1
123	123	1
151	154	1
74	75	1
96	137	1
157	157	3
74	150	1
5	6	1
31	40	2
37	37	1
174	174	3
107	107	1
117	117	2
128	154	1
59	62	1
73	73	4
27	45	1
12	12	3
173	173	2
57	57	3
161	162	3
159	160	1
25	25	2
103	103	2
97	97	3
137	137	1
152	152	3
35	35	3
66	66	1
169	169	1
112	112	1
54	66	1
70	72	1
34	39	1
34	34	2
132	132	1
16	16	1
22	22	1
3	24	2
146	146	1
138	138	3
75	75	1
141	149	1
92	92	1
180	180	2
105	105	2
143	152	1
6	6	1
12	28	1
133	133	2
7	9	1
95	95	1
4	7	1
96	96	2
166	166	3
10	10	1
2	10	1
53	54	1
130	130	1
91	113	2
8	8	1
36	36	1
139	140	1
1	2	2
7	28	1
174	178	2
15	15	2
29	29	1
134	169	2
100	110	1
21	25	1
58	58	2
122	122	1
62	86	1
63	121	1
5	5	2
14	14	1
167	170	1
79	79	1
150	150	2
96	97	1
80	81	1
15	21	1
86	87	2
76	112	1
118	160	1
43	43	1
4	5	1
77	77	1
88	88	2
143	143	1
44	67	1
61	87	1
134	134	1
17	17	1
26	27	2
109	109	1
35	50	1
9	19	1
38	50	1
52	52	1
148	149	1
9	9	1
162	163	1
165	166	1
111	111	2
100	160	1
92	118	1
39	40	1
84	84	1
17	18	1
132	178	1
20	23	1
99	101	2
140	140	2
168	168	1
10	22	1
98	100	1
68	68	1
149	149	1
131	139	1
156	168	1
19	27	1
138	143	2
57	83	1
15	58	1
19	25	1
159	175	1
37	40	1
63	114	1
53	53	2
119	129	1
74	74	1
157	161	1
91	97	1
156	158	1
0	0	1
128	128	1
96	101	1
145	148	1
160	162	1
140	143	1
23	45	1
113	117	2
73	180	1
16	169	1
72	72	1
128	129	1
115	115	1
94	112	1
51	51	1
159	159	2
40	40	1
23	28	1
160	163	1
33	34	1
62	62	1
44	45	1
82	82	1
135	172	1
163	164	1
164	164	1
50	62	1
32	41	1
55	55	2
55	171	1
134	143	1
82	86	1
113	113	1
126	126	1
171	179	1
155	156	1
99	99	1
25	26	1
124	124	1
33	33	1
153	158	1
91	91	1
114	170	1
22	23	1
38	43	1
66	67	1
