111	190	1
44	44	3
59	77	1
24	25	1
125	125	4
95	124	1
100	127	1
183	183	2
73	90	1
53	66	1
36	36	2
72	76	1
16	19	2
89	89	3
105	105	3
122	122	2
58	58	1
188	188	3
164	164	5
19	20	2
20	20	1
113	121	1
126	126	2
12	38	2
62	62	1
43	43	2
4	4	4
71	71	5
46	60	1
35	35	1
44	46	1
0	0	2
93	93	3
85	85	3
71	72	2
81	82	1
135	140	1
97	97	1
110	110	3
186	187	2
119	119	1
55	56	1
53	53	3
25	25	1
80	80	4
81	81	1
179	182	1
119	120	1
87	88	1
100	100	2
168	168	2
145	145	4
78	97	1
186	186	4
99	112	2
75	84	1
77	77	4
18	33	1
112	120	1
97	101	1
78	78	3
57	57	4
131	132	2
86	86	3
17	17	4
141	164	1
17	19	1
90	90	1
158	159	1
128	128	2
79	79	2
88	90	1
171	175	1
68	68	1
121	121	2
148	148	3
102	104	1
86	113	2
115	115	4
147	154	1
160	160	2
8	8	3
163	164	1
25	26	1
90	96	1
34	43	1
2	2	1
10	11	1
92	92	1
62	67	2
157	158	2
114	115	1
61	61	1
171	171	2
1	10	1
146	146	4
12	33	1
11	17	1
182	183	2
120	120	1
145	146	4
34	34	4
54	58	1
66	68	2
14	23	1
114	114	2
107	121	1
133	133	2
107	120	1
85	86	1
166	166	2
76	76	2
64	64	1
32	32	1
161	162	1
156	156	2
5	5	1
1	23	2
17	25	1
90	92	2
65	89	1
113	113	2
19	19	3
107	107	1
45	46	1
112	112	1
109	109	1
7	181	1
80	81	2
175	175	1
122	129	2
167	168	1
68	73	1
135	135	4
31	31	2
58	105	1
96	97	3
187	188	1
21	21	1
170	170	3
137	137	1
83	100	1
169	169	2
143	143	2
174	174	3
109	120	2
7	7	3
61	63	1
1	1	2
36	47	1
177	177	2
167	167	2
62	82	1
56	56	2
187	187	6
15	33	1
11	34	1
37	37	2
109	139	2
143	156	1
87	95	1
170	187	1
79	80	1
125	137	1
69	84	1
140	140	1
83	83	3
27	28	1
126	138	1
128	139	1
20	54	1
45	45	2
30	36	1
154	155	1
170	171	1
114	117	1
182	182	1
32	45	1
94	94	1
6	7	2
156	157	1
178	179	2
143	179	1
13	14	4
138	145	1
180	181	1
62	83	1
87	87	2
16	16	1
64	97	1
65	66	1
43	44	1
114	116	1
122	123	1
173	183	1
94	95	1
118	118	1
123	124	2
105	138	1
54	56	1
110	111	1
151	152	1
139	155	1
144	145	1
24	24	3
92	104	1
163	173	1
162	162	1
3	3	1
55	55	1
109	119	2
91	92	1
86	87	1
144	144	1
38	39	1
131	131	2
23	23	2
157	157	2
184	184	1
139	139	3
26	26	1
189	189	3
101	108	1
90	91	1
106	109	1
158	158	1
103	113	2
128	129	1
95	96	2
84	84	3
96	106	1
22	24	1
102	105	1
135	136	1
159	159	2
83	88	1
83	86	1
88	88	1
94	138	1
39	103	1
11	11	1
141	160	1
99	99	1
22	23	1
30	31	3
87	111	1
6	6	1
65	65	2
47	47	1
187	190	1
1	26	1
102	102	4
167	170	1
67	67	1
63	66	1
175	177	2
155	155	1
14	15	1
48	48	3
121	122	1
105	111	1
63	73	2
131	168	1
73	73	1
74	79	2
148	154	1
143	169	1
60	68	1
91	101	1
59	59	1
46	46	1
81	109	2
134	134	1
116	116	3
38	38	1
178	180	2
153	154	1
149	149	1
9	10	1
10	23	1
134	135	1
130	132	1
28	38	1
5	9	1
131	141	1
1	40	1
148	153	1
147	148	1
63	63	2
138	140	1
85	180	1
11	12	1
60	104	1
75	75	1
59	73	1
124	127	1
168	169	1
102	164	1
173	186	1
165	175	1
127	128	1
29	45	1
31	36	1
108	108	1
103	104	1
151	151	1
176	177	2
119	140	1
124	125	1
121	156	1
144	147	1
31	38	1
174	175	1
149	179	1
7	8	1
126	128	1
26	34	1
19	22	1
29	102	1
111	118	1
99	100	1
142	171	1
22	22	1
130	134	1
129	129	2
120	124	1
13	13	1
48	87	1
188	189	1
12	13	1
11	46	1
176	190	1
171	173	1
161	161	1
38	48	1
18	18	1
125	162	1
32	33	1
100	122	1
83	84	1
60	60	1
90	113	1
135	178	1
121	124	1
127	146	1
158	180	1
99	103	1
54	77	1
29	32	1
23	24	1
