5	5	1
108	108	5
101	101	2
107	120	2
61	61	2
65	65	4
29	30	1
12	12	1
9	9	4
113	113	3
75	75	8
113	124	1
120	120	2
37	37	3
41	41	1
119	119	1
94	111	1
1	1	2
106	106	2
115	115	2
59	60	3
114	114	4
32	59	1
82	82	1
111	111	4
20	20	2
60	61	2
131	131	4
122	124	1
16	34	1
86	86	3
94	94	3
104	106	2
117	117	3
77	117	1
94	95	2
71	71	1
68	68	3
72	73	1
74	74	1
124	124	4
24	24	1
75	76	3
15	16	1
125	125	2
27	29	1
54	54	1
92	93	1
77	77	2
33	33	1
111	118	1
110	110	3
23	23	4
48	96	3
41	111	1
7	7	1
45	45	1
59	59	1
81	103	1
36	44	1
128	128	1
36	42	2
34	61	1
128	129	3
73	73	7
131	132	2
83	83	1
10	10	2
70	70	3
89	89	3
88	89	2
118	119	1
27	30	1
61	62	1
101	104	1
125	126	1
120	123	1
51	54	1
134	134	4
127	128	1
96	98	1
16	16	3
64	66	1
20	28	1
99	99	1
11	12	4
64	64	1
47	59	1
14	15	3
62	82	1
91	91	1
76	76	2
38	39	2
19	19	3
28	32	1
100	115	2
29	29	1
85	86	1
81	81	2
64	65	1
132	132	1
14	14	1
7	8	2
13	34	1
129	130	1
69	69	3
92	92	1
66	66	2
19	33	1
121	121	2
57	57	5
12	110	1
127	127	1
31	31	1
48	48	1
72	72	3
45	47	1
67	67	3
83	84	1
26	26	1
81	82	2
56	56	2
63	63	2
84	85	2
44	61	2
102	102	1
60	60	1
112	113	1
73	74	1
40	40	3
78	78	1
55	56	1
39	39	1
87	87	1
15	15	2
27	44	1
8	8	1
21	42	1
31	101	1
23	24	1
56	109	1
119	124	1
129	129	2
61	82	1
84	87	1
116	116	1
121	122	1
91	132	1
39	42	1
100	123	1
80	82	1
28	29	1
36	43	1
130	130	1
42	42	3
96	96	2
51	56	1
18	18	1
7	10	1
27	27	1
32	32	3
126	126	1
3	6	1
76	77	1
25	40	1
77	78	1
3	3	1
109	109	1
104	105	1
47	47	2
112	133	1
58	59	1
24	25	1
87	88	2
97	97	1
120	124	2
32	91	1
35	43	1
20	30	1
56	106	1
102	107	1
86	130	1
74	93	1
94	98	1
16	19	1
104	132	1
81	92	1
19	34	1
109	111	1
19	59	1
18	47	1
88	88	1
11	11	1
25	25	1
122	122	1
105	105	1
