150	150	7
36	36	3
61	61	1
97	97	1
40	40	2
166	167	5
30	30	5
98	99	2
185	185	6
39	58	1
32	32	6
0	3	2
100	101	1
54	55	1
62	62	3
128	128	2
9	9	4
14	14	5
166	169	1
8	8	6
66	114	1
19	22	1
166	166	1
138	151	1
65	65	1
4	69	1
119	119	4
16	16	4
190	191	1
172	172	1
136	157	1
53	53	3
132	132	3
64	65	1
83	84	2
53	55	1
179	187	1
195	195	2
141	141	5
100	100	6
160	168	1
12	12	9
158	158	2
88	88	1
13	13	3
46	46	2
51	51	3
176	176	2
15	171	1
45	45	6
90	90	1
37	39	1
63	75	1
190	190	1
36	37	1
52	52	2
158	167	1
71	71	2
17	17	3
32	38	1
39	64	1
44	44	3
69	70	1
86	86	1
142	142	4
39	40	1
141	142	1
43	43	5
172	174	1
181	181	2
175	175	3
87	87	2
0	4	3
62	64	1
57	57	3
10	10	3
160	160	3
180	180	4
12	13	3
10	12	3
184	184	7
19	19	2
21	21	1
24	25	3
33	33	5
154	154	5
155	155	3
35	35	2
197	197	4
165	178	1
126	126	1
1	8	1
26	26	3
43	127	2
18	20	1
37	38	1
47	47	1
24	27	1
11	11	6
56	56	1
46	48	1
29	29	1
147	147	1
118	120	1
4	5	2
106	106	2
140	140	3
39	39	5
144	157	1
125	126	2
124	125	1
117	117	2
178	178	1
88	89	1
130	131	1
48	48	3
156	156	2
174	174	1
173	173	2
7	7	2
107	108	1
113	118	1
34	34	1
58	58	3
109	110	1
38	38	4
132	140	1
50	50	4
176	177	1
9	10	1
4	4	1
114	119	2
122	123	1
38	39	1
183	194	2
102	103	1
134	136	1
193	193	6
80	80	1
118	118	2
131	131	2
17	18	2
133	134	2
10	14	1
165	167	1
25	25	2
40	59	1
46	60	1
146	147	2
15	15	2
135	136	1
7	8	1
95	96	1
54	99	1
152	152	1
174	175	2
93	93	1
3	3	3
152	153	1
139	139	2
41	41	1
180	181	1
134	135	1
149	167	1
42	42	5
159	170	1
67	67	1
37	51	1
156	157	2
65	133	2
122	122	1
143	143	2
194	194	1
170	170	2
185	186	1
84	84	1
10	49	1
34	35	1
14	53	1
27	27	3
187	189	1
98	98	3
17	20	1
24	24	2
56	123	1
29	30	1
137	137	2
176	178	1
132	133	1
26	27	4
169	182	1
138	138	3
138	194	1
18	18	1
73	73	1
59	60	1
182	182	3
81	81	1
113	197	1
128	129	1
4	8	1
2	2	1
84	85	1
170	194	1
23	23	1
103	103	1
195	196	2
41	70	1
186	191	1
9	11	1
142	150	1
124	124	2
104	104	1
187	187	2
87	137	1
161	161	2
150	151	1
121	121	2
95	102	1
159	193	1
39	41	1
128	138	1
168	178	1
171	172	1
146	146	1
112	112	3
113	113	1
117	118	1
183	183	1
11	184	1
162	164	2
0	2	1
42	43	1
186	189	1
161	162	1
95	103	1
165	168	1
47	48	1
184	185	1
14	15	1
41	42	3
155	156	1
149	149	3
185	196	1
5	6	1
31	31	1
139	140	2
158	159	1
125	125	1
115	115	1
124	127	1
5	5	1
60	81	1
183	184	1
16	19	1
4	171	1
5	186	1
81	83	1
144	145	1
95	95	1
6	6	1
83	83	1
101	113	1
99	99	1
188	191	1
56	60	1
184	196	1
179	181	1
182	183	1
151	152	1
74	74	1
3	6	1
136	136	1
137	185	1
191	191	1
85	87	1
59	59	1
68	68	1
121	122	1
157	157	1
120	120	1
32	115	1
49	49	2
134	134	1
116	117	1
32	33	1
27	28	1
101	101	1
145	153	1
