61	62	3
173	174	2
183	183	2
145	148	3
165	165	2
71	71	4
179	179	1
55	137	1
102	105	1
175	175	2
158	163	1
147	163	1
5	17	1
134	134	1
11	11	7
16	16	5
143	144	2
141	184	1
117	118	1
163	163	3
51	51	2
49	49	3
69	69	2
80	83	2
114	115	1
115	115	1
152	153	1
197	197	1
4	4	2
109	111	1
107	108	2
166	167	2
136	136	1
89	148	1
49	50	2
94	94	2
140	142	1
10	72	1
178	178	1
111	111	1
155	155	3
167	167	2
46	46	3
103	104	2
16	152	1
149	152	2
80	87	1
136	178	1
35	35	7
135	136	1
65	77	2
95	95	1
26	36	1
138	169	1
63	63	4
22	22	2
55	55	1
2	3	3
15	40	2
174	174	3
146	156	1
158	159	2
14	14	3
127	128	1
46	47	1
59	65	3
123	123	1
134	181	1
124	124	3
73	73	2
102	157	2
113	134	4
173	173	2
96	96	1
39	39	5
24	24	4
131	132	1
168	168	4
156	158	1
40	41	2
13	72	1
171	171	2
71	72	1
67	67	1
157	158	2
121	121	3
0	0	5
116	116	1
29	35	1
88	89	2
154	164	1
44	44	5
89	89	1
23	47	1
88	88	1
54	58	1
38	39	1
136	165	1
126	127	1
180	180	3
160	160	3
4	7	1
44	45	2
151	151	1
190	190	1
18	18	3
13	13	5
196	197	1
63	64	1
12	39	2
142	142	1
42	42	4
8	8	3
143	143	1
8	73	1
105	105	1
23	81	1
35	36	2
9	9	6
195	195	2
60	80	1
98	99	1
157	161	1
28	31	1
3	3	3
110	110	1
177	181	1
19	19	1
43	43	2
172	172	3
60	60	3
162	162	2
138	143	1
84	84	4
5	5	2
101	134	1
103	103	3
112	112	2
182	182	2
185	185	7
30	30	4
145	145	2
158	158	1
191	192	3
146	148	2
2	2	2
111	131	1
98	103	1
1	1	1
166	166	4
34	37	1
66	66	2
41	41	3
104	105	1
27	32	1
9	73	1
125	125	2
28	74	1
120	163	2
33	34	1
9	195	2
60	62	2
190	191	2
20	20	3
100	122	1
68	68	2
149	149	4
81	81	1
146	146	3
6	22	1
88	90	1
161	161	1
85	85	2
150	156	2
3	5	2
80	82	2
18	31	1
52	52	1
27	27	2
1	2	2
140	140	4
7	194	1
181	181	2
178	179	1
40	40	1
174	175	2
78	79	1
65	65	1
24	70	2
189	190	2
23	25	1
6	7	1
193	193	1
57	79	1
147	147	2
166	173	1
127	127	1
61	65	1
135	135	1
53	55	1
26	26	1
109	109	2
45	45	2
161	189	1
81	82	2
20	70	1
130	130	2
97	97	2
86	86	1
118	119	1
194	194	3
90	90	1
143	145	2
77	78	1
112	148	1
18	19	3
79	86	1
156	156	1
26	35	3
0	31	1
124	142	1
23	23	2
59	59	1
18	21	1
131	131	3
48	48	3
22	23	2
153	153	1
27	34	1
62	63	1
159	189	1
94	95	4
15	16	2
32	32	3
164	166	1
29	29	3
8	31	1
83	84	1
28	28	2
79	79	1
139	140	1
78	78	3
21	21	1
98	98	1
25	26	2
62	62	1
51	52	1
15	18	1
1	3	1
34	36	1
17	31	1
17	17	4
4	9	1
144	149	1
26	38	1
0	7	2
50	50	1
9	11	1
157	172	1
47	47	2
45	46	1
189	189	3
128	128	2
187	190	1
79	83	1
187	187	3
169	178	1
153	163	1
132	140	1
111	130	1
172	173	1
117	149	1
120	156	1
99	100	1
52	53	2
75	75	2
57	58	1
102	106	1
129	129	2
138	139	1
3	7	1
150	150	1
111	112	2
186	186	1
34	34	4
104	104	1
184	184	1
162	166	1
82	82	2
26	75	1
122	182	1
141	141	1
182	183	1
16	17	2
73	74	1
32	33	1
0	2	1
118	118	1
160	188	1
102	102	2
169	169	2
3	4	1
192	193	1
10	10	1
157	157	2
44	46	1
24	31	1
82	86	1
184	185	1
196	196	2
158	188	1
149	156	1
168	190	1
27	35	1
164	164	1
100	100	1
93	96	1
37	37	1
50	51	1
113	143	1
27	33	1
18	20	1
159	159	1
169	191	1
57	57	1
53	53	2
25	37	1
139	139	1
7	73	1
77	77	1
127	152	1
31	32	1
113	193	1
157	163	1
152	152	1
12	72	1
4	73	1
31	31	2
56	105	1
169	170	1
74	74	1
5	8	1
39	72	1
183	184	1
101	101	1
159	162	1
6	6	1
154	159	1
1	28	1
141	156	1
117	117	1
76	78	1
19	22	1
4	5	1
38	38	1
4	11	1
147	148	1
10	32	1
120	164	1
160	174	1
16	19	1
54	105	1
15	47	1
42	43	1
57	72	1
134	157	1
