20	25	1
49	50	1
218	219	2
166	175	2
28	29	1
6	6	2
17	18	5
153	154	2
208	208	2
113	114	1
222	222	1
208	210	1
46	52	1
162	162	4
20	20	3
204	204	6
215	215	2
170	189	2
181	181	5
247	248	1
25	26	2
42	42	2
235	237	3
29	30	4
214	214	6
55	78	2
236	238	2
101	101	3
170	170	5
230	231	1
35	36	1
11	14	1
117	117	3
208	209	1
155	155	4
168	168	3
185	185	4
22	23	1
72	72	2
11	11	1
15	15	4
233	233	3
145	145	3
21	21	2
109	109	2
62	152	1
210	210	3
209	244	1
248	248	1
226	227	1
76	88	1
165	165	3
7	7	4
16	31	1
156	156	3
29	31	1
19	19	2
84	84	5
159	170	1
58	58	2
81	86	2
232	232	5
212	212	3
80	80	4
1	1	1
56	56	4
120	120	1
62	63	1
30	100	1
59	60	2
179	179	1
9	10	1
91	94	1
209	209	4
219	219	3
66	66	1
191	192	1
221	221	1
52	52	1
228	228	3
99	100	1
219	220	2
94	94	1
238	238	1
209	210	1
186	188	1
16	16	5
247	247	3
74	74	1
59	59	3
92	110	2
197	197	1
167	220	1
40	40	3
183	205	1
205	205	1
244	245	3
96	96	2
166	182	1
90	90	2
111	112	1
152	152	2
146	146	3
10	10	3
32	32	2
14	14	1
45	45	1
112	112	2
102	102	2
150	151	1
8	8	2
175	178	1
163	164	1
26	180	2
187	187	3
15	245	1
69	69	2
241	241	3
186	197	1
100	101	1
186	186	2
105	105	2
43	43	4
95	95	2
4	8	1
231	231	1
9	11	1
212	237	1
211	212	2
49	49	2
31	31	5
9	9	2
24	24	2
54	54	2
89	92	1
24	25	2
38	88	1
202	203	1
225	225	4
225	226	1
229	234	1
50	50	2
112	114	1
55	55	1
18	229	1
195	195	2
176	176	3
30	30	2
4	4	4
44	44	2
3	6	1
159	159	1
178	178	1
223	223	2
39	46	1
174	179	1
237	243	1
119	119	3
102	103	1
21	230	1
230	230	3
229	229	3
12	12	4
201	201	2
97	97	2
220	220	3
239	239	1
63	63	1
5	5	1
84	85	1
60	60	4
183	192	1
109	110	1
37	43	1
220	225	1
16	39	2
200	201	1
34	35	1
78	78	1
79	81	1
81	96	1
151	151	3
106	106	1
197	201	1
146	147	2
158	158	4
3	4	2
218	218	2
181	183	1
169	170	1
37	38	1
227	227	2
192	192	1
31	32	2
54	55	2
2	2	4
53	61	1
193	193	2
179	200	1
116	116	5
165	181	1
215	216	1
48	89	1
83	164	1
6	7	1
37	37	1
35	35	1
112	117	1
89	89	2
157	216	1
209	211	1
24	39	1
59	61	1
226	228	1
79	80	1
162	163	2
76	76	1
1	3	1
152	178	1
234	234	1
183	183	1
114	114	1
83	83	1
53	53	1
91	92	1
160	246	1
27	28	1
216	216	3
46	47	1
188	188	1
96	97	1
110	111	1
17	17	2
191	193	1
166	166	1
172	184	1
235	236	2
22	158	1
240	241	1
170	219	1
190	190	2
52	54	1
234	235	1
245	245	2
179	234	1
224	224	4
171	171	3
239	240	1
35	39	1
82	82	1
14	16	1
237	238	2
115	115	3
197	198	2
246	246	1
47	47	2
12	37	1
217	217	2
175	175	2
207	207	4
236	236	2
177	177	1
64	65	1
38	38	2
28	28	2
64	64	1
16	146	1
18	20	1
189	190	1
217	218	1
86	86	1
80	82	1
71	71	1
182	182	1
103	103	1
47	55	1
175	176	1
27	45	1
219	221	1
189	194	1
200	214	1
211	213	1
217	237	2
195	210	1
90	92	2
60	62	2
57	57	1
149	149	1
204	205	1
241	243	1
208	221	1
161	162	1
160	160	2
40	41	1
206	206	1
72	75	1
243	244	1
111	111	1
213	214	1
10	15	1
65	65	1
186	187	1
198	198	1
213	213	1
71	75	2
48	244	1
191	191	2
34	34	1
169	169	1
29	29	1
226	235	1
107	107	2
197	214	1
92	92	1
168	171	1
154	154	1
211	211	1
63	64	1
15	16	1
113	115	1
212	231	1
155	181	1
48	58	1
13	14	1
10	19	1
240	242	1
11	12	1
203	203	1
206	207	1
238	248	1
72	73	1
208	219	1
87	87	2
104	105	1
21	22	1
199	199	1
0	10	1
189	189	1
50	51	1
165	166	1
48	48	1
13	24	1
189	191	1
33	45	1
215	232	1
26	30	1
150	150	1
173	179	1
240	240	1
51	58	1
121	121	1
25	28	1
115	116	1
219	242	1
145	146	1
47	245	1
36	36	1
163	165	1
42	226	1
185	186	1
100	100	1
