115	115	2
107	107	4
87	87	2
68	93	2
106	107	1
78	131	2
7	19	1
16	16	3
10	10	3
121	121	2
104	106	2
126	126	2
63	63	2
45	45	1
109	109	2
101	101	2
9	9	2
110	111	1
30	31	1
46	46	4
113	114	2
121	123	2
23	124	1
132	133	2
85	85	6
65	65	6
41	41	2
106	106	3
133	133	2
7	7	2
108	108	2
26	26	2
100	100	3
62	62	6
44	44	2
57	62	1
91	91	2
40	40	3
16	36	1
91	133	1
42	42	3
73	73	1
21	21	2
18	18	2
12	12	2
27	27	6
4	9	1
75	75	2
92	92	3
125	125	2
37	37	6
129	130	1
40	41	2
117	117	5
2	2	3
24	25	1
35	36	2
113	113	5
121	122	1
82	83	2
61	61	4
76	134	1
80	80	1
88	89	2
71	71	1
24	24	1
102	102	2
59	59	2
100	101	1
130	130	5
90	127	1
110	110	2
105	113	1
41	42	1
14	14	1
6	6	3
86	86	1
87	104	2
94	94	4
99	99	2
49	55	1
119	119	1
85	125	1
8	20	1
78	123	1
14	15	2
64	65	2
32	33	1
87	89	2
55	55	1
37	39	1
90	90	3
19	19	1
50	50	2
15	16	1
124	124	1
0	0	1
17	35	1
70	70	1
48	48	4
103	103	2
79	82	1
65	70	1
4	4	3
29	30	1
114	114	2
99	109	1
30	33	1
111	111	2
27	32	1
68	68	2
97	97	3
82	105	1
113	121	1
105	105	1
98	98	1
56	56	1
120	122	3
114	115	2
31	31	3
84	84	1
72	72	2
17	18	2
39	39	2
26	29	2
64	64	2
95	124	1
57	57	1
123	123	2
132	132	1
118	118	5
134	134	1
90	102	1
88	88	3
73	75	1
83	83	1
86	96	1
66	67	2
57	58	2
32	32	2
97	98	1
108	126	1
35	35	3
8	8	3
112	112	1
33	33	2
23	23	1
112	114	1
54	55	1
69	70	1
3	4	1
98	100	1
47	47	1
105	106	1
79	79	1
102	112	1
82	82	1
89	89	1
81	84	1
76	76	2
22	72	1
28	31	1
32	117	2
25	26	1
58	59	2
43	44	1
76	77	1
58	58	1
30	30	1
86	87	1
103	104	1
123	124	1
59	129	2
78	78	2
74	74	1
129	129	1
5	5	1
69	69	1
22	26	1
114	119	2
55	56	1
95	125	1
67	67	1
92	95	1
31	43	1
60	60	1
120	120	2
124	133	1
34	35	1
24	26	1
13	13	1
66	66	2
23	25	1
29	39	1
51	51	1
95	95	1
93	94	1
79	80	1
78	93	1
38	43	1
24	124	1
44	45	1
18	19	1
19	20	1
40	60	1
38	38	1
111	121	2
14	89	1
128	131	1
37	40	1
131	131	1
8	9	1
43	101	1
20	68	1
28	89	1
1	6	1
117	118	1
125	126	1
81	109	1
77	77	1
