27	27	1
123	123	1
113	113	1
26	58	1
22	22	1
85	86	2
30	30	1
10	11	3
33	33	2
45	45	7
37	37	1
36	36	1
49	72	1
15	21	1
66	67	2
70	72	1
65	65	4
2	2	2
108	108	5
16	16	4
74	74	2
85	85	4
22	32	1
32	32	1
83	83	2
33	34	1
8	10	2
73	73	4
126	126	1
53	53	2
36	37	1
72	72	7
44	44	1
78	79	1
78	80	2
21	21	1
79	79	4
42	42	2
55	55	1
67	68	1
59	60	1
56	58	1
68	68	2
66	85	1
27	28	2
20	20	3
116	116	4
8	9	2
62	65	1
63	63	2
98	98	1
21	22	2
66	69	1
28	28	3
78	78	3
80	103	1
28	29	1
110	110	4
9	9	3
91	91	2
127	127	4
58	58	1
132	132	3
4	4	1
133	133	3
86	86	1
65	66	1
81	127	1
108	112	1
8	8	2
44	45	1
52	53	1
11	12	2
6	33	1
54	54	1
63	66	1
72	73	1
71	71	3
123	124	1
94	94	2
103	103	1
135	135	1
105	105	2
74	75	2
76	79	2
129	129	1
25	25	1
103	104	1
84	84	2
35	69	2
104	124	1
107	107	2
77	77	1
52	58	3
125	125	1
3	4	1
124	124	1
10	19	1
90	90	2
10	10	2
13	13	4
75	75	3
104	104	1
17	17	1
4	6	1
54	58	1
88	120	1
4	5	2
12	12	4
121	122	1
121	121	1
24	24	1
49	65	2
62	62	2
100	100	1
100	101	1
109	110	1
7	11	1
69	69	3
88	88	1
14	14	2
29	31	1
50	71	2
38	38	2
15	16	1
55	56	1
26	26	2
18	18	1
63	127	1
62	95	1
120	120	2
34	34	1
31	31	1
45	46	1
61	62	1
50	50	1
127	129	1
59	83	1
48	48	1
128	128	1
90	96	1
15	15	1
56	56	2
43	53	1
68	84	1
0	0	2
95	95	1
102	102	1
1	1	1
6	6	1
83	85	1
118	120	1
53	54	2
5	5	3
59	59	2
6	15	1
122	122	1
64	64	1
56	57	1
43	43	1
62	64	1
119	119	1
14	15	1
42	45	1
117	117	1
76	76	1
113	126	1
22	23	1
20	38	1
67	67	1
80	81	1
80	80	1
70	70	1
104	134	1
130	130	1
63	64	1
50	62	1
59	61	1
35	35	1
87	87	1
67	69	1
130	131	1
104	105	1
115	115	1
