80	144	1
123	127	1
100	100	4
96	132	1
121	121	3
3	4	2
8	10	2
40	40	2
102	102	4
142	144	1
15	37	1
28	28	3
65	66	1
86	93	2
143	143	4
152	152	1
10	10	2
86	86	3
44	45	1
31	31	3
117	117	8
131	132	2
121	147	1
96	96	3
86	111	2
3	3	4
34	34	3
147	147	4
26	26	3
104	105	3
81	82	3
108	110	1
44	44	3
134	135	2
101	101	4
129	129	4
49	49	3
50	52	1
127	128	1
116	143	1
95	102	1
121	122	2
54	80	2
13	13	2
137	137	3
70	70	4
143	145	1
93	94	3
70	71	1
158	158	4
31	63	1
55	117	1
139	156	1
2	56	1
148	149	3
141	145	1
116	116	2
110	110	3
132	132	3
92	93	1
14	15	1
73	138	2
80	80	6
33	33	3
19	20	1
124	124	2
84	111	2
119	122	2
71	105	2
111	111	6
38	38	2
45	86	1
94	94	1
37	37	2
62	88	1
14	14	1
21	41	1
102	103	1
131	131	6
144	144	4
137	139	1
94	116	2
140	140	2
22	23	1
127	155	1
62	62	2
78	78	2
155	155	1
75	75	4
146	153	1
3	38	1
21	22	1
148	156	2
135	135	2
45	46	2
79	82	2
65	103	2
11	36	1
141	141	6
139	140	1
48	125	1
2	2	1
38	39	1
27	27	2
47	51	1
121	141	1
120	120	2
117	126	1
72	72	1
136	146	2
81	126	1
157	157	1
50	51	1
84	107	1
33	34	1
106	106	1
67	68	3
11	11	1
127	127	4
124	126	1
133	133	3
35	48	1
134	134	4
67	70	2
15	15	2
146	146	5
130	130	1
64	64	1
85	87	1
27	37	1
88	122	1
37	71	1
35	36	2
103	103	3
91	91	4
22	152	1
151	152	1
146	147	1
41	41	3
123	124	1
109	121	1
115	115	3
50	50	2
149	158	1
90	90	2
20	20	2
135	136	1
137	138	1
122	122	5
81	81	2
148	159	1
87	87	1
11	14	1
105	105	3
97	142	1
109	114	3
1	1	1
150	154	1
65	102	2
82	82	2
66	91	1
61	126	1
121	128	1
139	139	1
98	98	4
88	88	4
114	125	1
13	34	2
57	57	1
123	123	2
88	90	1
85	109	1
156	156	2
154	154	3
55	64	1
131	154	1
118	146	1
82	83	1
138	138	3
7	24	2
21	25	1
74	74	2
34	48	2
79	146	1
15	51	1
16	16	1
32	51	1
16	17	2
0	0	1
101	102	1
13	14	1
78	108	1
47	47	2
67	97	1
24	24	5
9	13	1
77	88	1
46	93	1
145	145	2
142	142	3
80	145	1
22	22	3
111	112	2
79	79	2
149	150	1
120	140	1
43	43	4
4	5	3
136	136	1
53	54	2
75	92	1
92	92	2
72	73	1
85	86	1
84	114	1
85	85	2
112	120	1
89	94	1
135	148	1
153	153	2
112	112	2
114	115	2
46	47	1
9	9	1
118	120	1
95	95	5
94	95	2
93	93	1
116	117	1
103	104	1
82	85	1
83	83	2
113	115	1
78	84	1
12	12	2
90	91	2
150	150	2
97	102	1
19	52	1
119	119	2
110	114	1
119	120	2
145	146	1
77	77	1
98	101	1
107	138	1
126	137	1
42	47	1
113	114	1
52	52	2
151	151	1
101	140	1
36	36	1
29	128	1
128	128	1
51	51	2
127	148	1
15	94	1
35	38	1
94	121	1
40	54	1
118	123	1
78	79	1
50	55	1
108	115	2
69	121	1
123	145	1
26	37	1
69	70	1
98	129	1
148	148	1
88	113	1
124	146	1
89	89	1
8	16	1
49	54	1
125	125	1
17	18	1
133	134	2
115	116	1
76	76	1
99	99	1
39	112	1
23	26	1
140	141	1
62	63	1
126	126	2
108	109	1
118	135	1
69	86	1
89	95	1
128	131	1
1	2	1
63	63	1
42	42	1
4	4	2
65	65	1
138	142	1
114	114	2
124	125	1
81	83	1
111	142	1
71	71	1
152	155	1
44	151	1
68	68	1
88	94	1
135	158	1
32	32	1
78	89	1
92	103	1
65	89	1
110	111	1
95	97	1
24	25	1
