116	116	1
34	34	8
162	164	1
18	21	1
197	197	4
176	176	5
3	3	3
101	101	4
163	168	2
100	101	1
193	193	6
14	14	7
105	105	2
73	73	1
39	40	3
142	156	1
124	125	1
86	86	3
75	75	1
29	35	1
124	124	2
155	155	1
144	144	5
19	22	1
47	47	6
181	182	1
149	153	1
135	135	3
18	18	5
122	128	1
166	190	1
33	33	4
165	165	2
172	172	3
82	86	1
196	196	2
43	43	5
9	19	1
139	139	2
45	45	4
160	163	3
36	37	1
134	135	2
22	22	3
98	99	1
145	145	1
12	12	2
5	40	1
40	40	5
84	85	2
162	165	1
179	180	1
38	42	2
5	21	1
156	186	1
23	24	2
19	19	4
160	160	1
2	7	2
188	188	5
28	29	1
83	84	1
30	30	3
127	127	2
177	177	2
127	155	1
18	22	2
142	142	2
171	171	5
162	162	3
173	173	1
147	178	1
74	74	3
38	47	2
31	31	1
67	67	2
52	53	2
13	13	2
11	11	4
9	9	4
111	118	2
45	46	2
26	27	1
37	37	2
158	166	2
194	194	2
10	16	1
0	1	3
27	27	8
50	50	5
147	147	2
51	51	1
190	191	1
83	87	2
46	46	4
17	17	2
111	111	2
176	178	1
54	55	1
8	9	1
43	44	2
175	176	1
188	189	3
110	116	2
25	26	1
63	63	1
0	2	2
4	4	3
156	156	3
66	66	1
0	0	2
109	113	2
14	45	1
141	142	1
19	192	1
15	15	1
129	129	3
28	31	2
124	171	1
128	128	2
63	65	1
107	143	2
1	2	1
138	138	1
42	42	5
104	104	3
96	102	1
67	68	2
116	118	1
169	180	1
132	133	1
136	136	1
144	159	1
186	186	3
167	169	2
187	188	1
157	170	2
110	115	3
4	5	2
18	19	1
62	63	1
168	168	1
7	7	1
137	137	1
112	112	1
112	115	2
140	140	2
170	170	2
164	164	3
55	55	3
158	176	1
76	78	1
59	59	2
139	159	1
83	86	1
115	115	1
130	131	1
125	128	1
161	161	2
103	103	2
71	73	2
37	39	1
158	158	2
108	108	3
189	189	1
5	5	2
83	85	2
38	38	5
6	21	2
20	20	3
114	114	2
181	181	2
10	10	2
184	185	2
112	132	1
153	153	2
106	144	1
140	141	2
72	72	2
102	115	1
111	112	1
100	100	1
33	37	1
44	56	1
122	122	2
61	61	2
30	31	5
58	126	1
57	58	1
82	83	1
154	154	4
4	37	2
41	42	1
195	195	5
3	24	1
36	40	1
177	178	3
18	24	1
147	148	1
151	151	1
32	32	3
69	70	1
52	52	2
119	150	1
9	10	1
180	180	2
28	28	2
36	36	1
190	190	2
120	179	1
35	35	2
97	97	2
122	184	2
96	98	1
166	166	1
143	146	1
182	186	2
99	101	1
171	172	1
182	193	1
54	54	3
121	149	2
44	44	4
147	149	1
168	187	1
6	6	1
41	62	1
45	48	1
184	184	1
24	24	1
128	129	1
56	56	1
45	47	1
102	102	1
6	7	2
112	133	1
49	49	1
186	187	1
31	32	1
79	79	1
172	173	1
167	170	1
16	17	1
93	97	1
196	197	1
57	57	2
38	39	1
11	19	1
182	182	1
183	183	2
62	81	1
68	70	1
159	159	1
132	132	1
99	99	1
67	87	1
11	24	2
158	159	2
39	39	1
29	29	2
165	180	1
56	62	1
1	1	1
43	125	1
19	20	1
61	169	1
120	121	1
171	187	1
4	39	1
163	163	1
13	15	1
74	75	1
26	26	3
79	80	1
6	18	1
94	94	1
169	181	1
142	143	1
149	151	1
64	64	1
125	183	1
80	80	1
78	78	1
105	106	1
169	186	1
158	180	1
42	43	1
187	187	1
155	176	1
94	96	1
10	72	1
170	181	1
27	28	1
175	175	1
107	112	1
154	155	1
