55	66	1
59	59	3
179	179	4
135	157	1
37	37	8
153	153	6
157	157	6
92	93	1
67	67	5
82	82	2
19	19	4
36	37	1
81	133	1
17	19	1
7	33	1
122	122	3
172	174	1
22	23	3
144	144	4
33	33	9
36	36	7
108	108	5
56	124	2
27	27	2
55	55	2
160	163	1
87	87	2
39	105	1
33	34	1
33	37	1
131	131	8
83	83	3
129	129	5
160	160	3
67	85	1
98	128	2
171	172	2
117	118	1
19	20	2
61	96	1
49	50	4
50	50	3
152	155	3
178	178	8
52	53	3
49	49	1
151	151	4
132	175	1
25	41	1
76	76	9
41	41	4
133	148	1
64	64	5
44	44	4
121	121	6
5	18	1
71	71	8
20	20	1
34	34	2
58	58	5
163	163	9
10	10	7
141	141	9
110	110	2
97	97	4
22	25	1
90	91	1
31	31	3
53	54	2
72	72	2
159	159	1
151	153	3
146	147	1
139	139	4
21	21	7
163	170	1
112	115	2
83	84	2
55	56	3
21	23	3
138	138	3
153	156	1
93	93	5
7	7	3
176	176	4
132	132	3
140	140	4
123	123	7
133	133	5
43	51	1
168	168	4
11	16	4
106	145	1
155	155	3
102	103	1
128	128	4
135	138	1
91	97	1
51	97	1
57	94	1
107	107	2
58	146	1
113	116	3
29	32	1
80	81	4
165	165	3
74	74	3
97	98	1
173	173	2
156	156	2
116	116	4
124	124	1
62	62	2
63	87	2
180	180	3
145	145	6
11	23	1
115	116	1
141	145	1
103	115	1
10	33	3
13	13	1
8	39	1
115	115	5
5	6	5
78	78	1
64	86	1
127	127	3
153	154	1
132	151	1
15	44	1
61	61	4
85	85	5
157	158	4
94	94	8
12	12	4
143	150	1
12	27	1
42	42	7
66	67	2
123	124	1
132	158	2
86	86	2
133	134	1
59	62	1
125	125	3
165	166	2
160	169	2
92	111	2
161	161	2
134	134	1
35	35	4
116	117	2
157	162	1
88	88	6
106	106	3
18	37	1
12	13	2
28	28	4
178	180	1
155	162	1
167	167	2
175	175	5
15	52	1
147	147	4
34	88	1
119	119	3
109	115	1
25	27	2
172	172	5
89	89	4
15	15	5
1	35	3
126	126	3
58	59	4
142	161	1
146	146	3
36	153	1
96	96	3
31	36	1
95	95	5
113	120	1
73	73	4
143	143	6
37	38	3
111	111	1
118	139	1
96	100	1
43	43	2
27	28	1
131	132	2
118	118	2
122	123	1
88	97	1
3	3	3
38	38	4
65	65	2
166	167	2
148	148	3
18	20	2
84	84	5
45	45	4
11	11	3
16	16	3
54	54	1
174	175	3
8	8	3
53	53	1
85	97	1
1	17	1
162	162	3
125	126	1
4	4	3
14	14	2
26	27	1
30	30	2
4	7	3
60	60	3
177	178	1
102	133	1
56	57	1
32	33	2
117	117	5
139	178	1
160	165	1
138	145	1
165	167	1
24	24	4
149	149	5
166	166	5
78	79	1
169	179	1
11	26	2
81	81	4
121	157	1
3	145	1
17	24	1
76	77	2
124	127	1
118	121	2
106	107	1
125	142	1
112	126	2
87	89	2
43	44	1
90	92	1
63	63	2
8	16	1
16	17	2
13	56	1
142	142	2
65	74	1
171	171	5
28	64	1
136	136	7
5	5	3
0	0	3
113	114	1
104	106	2
40	40	2
80	104	1
177	177	1
16	51	1
60	61	1
75	76	2
102	102	4
172	173	1
121	122	1
77	77	4
78	178	1
39	40	1
154	158	1
0	1	1
18	19	1
135	136	1
132	139	1
60	123	1
76	81	1
18	51	1
160	170	1
25	25	5
105	120	1
27	29	1
112	112	2
9	9	1
89	125	1
98	98	1
41	42	1
152	152	2
35	43	1
31	33	1
49	59	1
100	101	1
130	131	1
17	17	1
18	18	6
174	174	4
28	40	1
57	57	2
52	52	2
150	150	1
99	144	1
152	153	1
3	32	1
23	45	1
4	5	1
29	29	3
126	167	1
104	104	3
66	66	2
21	25	1
138	139	1
115	135	1
2	2	4
26	28	1
137	158	1
16	33	1
98	110	1
123	154	1
15	45	1
147	161	1
44	59	1
6	96	1
124	126	1
91	91	2
31	32	1
59	88	1
105	105	2
144	146	1
159	173	1
114	115	1
56	56	1
10	11	2
33	41	1
9	61	1
15	29	1
1	30	1
22	35	1
79	79	1
59	101	1
75	75	3
70	70	1
110	114	1
112	127	1
107	113	1
133	135	1
41	46	1
29	36	1
18	43	1
95	96	1
132	149	1
39	39	4
5	14	2
156	159	1
54	124	1
105	139	1
6	6	2
170	170	6
4	8	1
154	154	1
13	38	1
24	45	1
90	90	1
142	143	1
173	174	1
32	32	1
150	151	1
61	65	1
40	41	1
81	162	1
23	25	1
79	80	1
57	58	1
154	156	1
6	60	1
139	154	1
134	135	1
120	120	1
53	123	1
149	150	2
65	71	1
72	73	1
113	113	3
38	39	1
103	103	1
13	22	1
119	122	1
5	57	1
137	137	1
143	144	2
103	148	1
11	14	1
0	117	1
132	153	1
61	62	1
75	77	2
60	72	1
23	23	1
22	37	1
71	73	1
24	25	1
56	111	1
89	97	1
123	147	1
82	83	1
4	15	1
101	108	1
126	144	1
104	140	1
160	161	1
158	158	3
73	77	1
168	170	1
129	130	1
109	109	2
88	89	1
54	79	1
114	117	1
128	129	1
62	67	1
21	31	1
178	179	1
160	162	2
2	4	1
3	24	1
108	149	1
67	68	1
16	24	1
139	140	1
25	29	1
126	127	1
54	74	1
10	60	1
98	111	1
97	130	1
10	13	1
15	58	1
156	167	1
6	34	1
15	16	1
169	169	2
168	169	1
83	85	1
118	119	1
3	7	1
130	130	1
7	8	1
125	144	1
21	30	1
145	148	1
13	15	1
28	29	1
141	151	1
1	1	1
65	119	1
65	68	1
78	114	1
101	101	1
10	17	1
65	66	1
