124	124	5
97	97	5
162	163	1
43	43	6
31	31	2
2	2	1
56	61	1
80	82	1
136	146	1
217	217	2
117	117	1
26	201	1
183	183	2
145	145	2
76	84	1
19	19	2
37	37	5
28	45	2
82	82	2
155	155	1
68	68	2
144	144	3
232	236	1
113	113	3
64	64	2
166	166	1
73	80	1
224	224	2
112	238	1
201	201	3
167	169	2
130	131	2
89	89	1
57	58	1
115	118	2
165	165	1
178	178	1
25	26	2
185	185	1
61	61	7
143	148	1
69	69	4
172	180	1
191	191	2
184	185	2
84	84	4
33	33	5
133	133	3
21	23	2
143	144	2
209	211	1
13	15	1
112	113	2
25	25	1
48	48	2
182	182	2
226	226	1
184	184	3
6	6	2
140	140	2
56	56	3
146	157	1
177	177	1
0	10	1
116	116	1
31	41	1
174	174	3
21	21	2
141	156	1
107	107	2
103	103	3
150	150	3
115	152	1
158	158	1
155	156	3
105	236	1
176	177	1
100	104	1
49	49	1
30	30	3
220	220	5
65	65	3
159	182	1
161	161	2
63	63	3
81	82	4
46	47	1
60	60	2
134	134	2
180	180	4
177	180	1
105	105	4
168	168	2
9	9	7
164	182	1
46	46	2
51	53	1
117	188	1
117	118	1
73	73	1
156	156	3
106	106	1
221	221	2
242	242	2
187	233	1
120	120	4
24	24	1
45	45	4
176	176	1
164	176	1
17	23	1
172	172	4
159	160	2
71	71	3
79	81	1
79	147	1
15	37	1
108	108	6
85	85	2
171	171	3
8	8	2
54	54	3
130	135	1
143	143	1
137	137	2
238	238	6
74	74	6
17	17	2
162	167	1
18	20	1
40	42	1
32	32	1
192	193	2
166	183	1
37	61	3
138	139	1
195	195	3
164	183	1
51	54	2
58	58	2
23	49	1
82	83	2
171	172	3
201	230	1
214	223	1
4	4	1
219	219	2
162	162	3
202	202	1
166	179	1
151	151	2
121	121	2
149	151	1
29	29	1
47	48	1
215	215	3
63	91	1
206	206	3
159	159	1
5	9	2
8	9	2
198	218	1
103	105	1
137	138	1
211	211	2
115	115	3
126	126	1
11	32	1
65	68	1
11	39	1
187	187	1
99	99	2
15	15	1
173	173	5
76	76	1
96	96	2
163	183	1
196	196	2
230	230	1
113	121	1
163	164	4
104	105	1
77	153	1
234	234	1
115	116	1
84	85	1
65	66	1
35	36	1
154	155	1
54	204	1
20	20	1
30	43	1
215	227	1
208	208	1
11	11	2
218	218	2
31	36	1
164	167	1
165	166	1
55	55	2
98	98	2
49	50	1
199	199	1
112	178	1
48	49	2
3	3	1
152	152	7
38	38	1
204	205	1
232	232	2
88	88	1
87	87	1
203	204	1
223	224	1
169	169	2
150	151	4
18	54	1
204	204	1
193	193	1
137	142	1
157	158	1
72	72	3
52	53	2
4	53	1
50	50	1
80	83	1
214	215	1
53	53	1
135	152	1
3	172	1
180	183	1
175	177	1
103	108	1
156	157	1
66	68	1
157	157	2
241	241	1
105	179	1
8	177	2
123	124	2
192	223	1
198	201	3
62	62	2
126	127	1
103	104	1
75	77	1
142	157	1
122	122	2
212	212	1
135	136	1
160	162	2
153	154	1
153	153	2
239	239	1
86	86	1
116	118	1
230	231	1
164	164	3
28	29	2
8	15	1
143	167	1
83	84	1
46	144	1
135	135	1
42	42	2
189	199	1
10	10	1
12	28	1
153	157	1
141	143	1
26	26	1
44	44	1
154	156	1
205	205	1
209	215	1
193	194	1
237	238	1
223	228	1
3	7	1
39	44	1
190	218	1
56	57	1
128	239	1
114	153	1
227	227	1
4	5	1
15	16	1
71	72	1
175	175	1
13	13	1
33	36	1
191	216	1
153	207	1
76	78	1
117	163	1
221	229	1
118	118	1
186	187	1
47	47	1
70	70	1
