66	66	7
92	92	3
113	113	3
64	65	3
15	15	3
48	48	1
46	46	5
91	92	2
105	106	2
118	118	4
3	5	1
58	59	2
100	100	3
26	26	2
40	40	6
18	19	2
101	128	1
93	94	1
81	82	3
25	26	1
33	33	4
93	93	4
75	75	1
72	72	6
80	82	2
121	121	6
104	114	1
63	63	2
9	9	3
24	26	1
104	104	3
104	133	1
115	115	3
94	94	4
98	98	2
59	59	6
48	49	1
88	91	2
123	123	4
0	5	1
85	85	4
68	68	3
40	68	1
87	87	3
30	30	5
19	49	1
97	99	2
5	5	2
28	70	1
92	124	1
101	101	3
84	84	2
124	124	3
82	82	3
120	120	4
119	119	2
70	72	1
76	76	4
42	48	1
42	43	1
10	10	2
24	24	2
96	99	1
101	105	1
86	86	2
29	29	3
52	52	3
78	81	1
108	108	3
38	43	1
105	105	6
52	53	1
41	45	2
60	61	4
64	64	2
61	61	4
99	99	2
115	116	2
45	45	2
55	55	2
130	130	3
34	37	1
75	76	1
65	65	4
98	105	1
51	51	1
85	95	1
115	118	1
131	131	2
42	55	1
49	49	1
44	45	2
38	38	1
0	0	1
63	65	1
112	112	4
2	2	1
117	117	6
61	62	2
93	111	1
82	83	1
58	70	1
109	109	3
102	102	3
97	101	1
54	106	1
81	81	5
23	23	4
111	112	1
54	54	2
114	114	6
25	25	3
86	88	2
12	13	1
121	122	3
14	49	1
63	124	1
83	83	2
117	118	1
85	129	1
17	17	1
97	97	3
50	50	3
26	27	1
106	123	1
56	56	3
46	57	1
39	39	1
31	31	4
13	13	2
56	122	1
98	99	1
73	73	1
112	114	1
99	102	3
128	128	1
20	21	1
62	62	3
95	95	2
132	132	2
110	110	5
101	125	1
8	9	1
126	130	1
60	62	1
70	89	1
53	54	1
34	34	1
8	8	1
96	96	1
109	110	1
104	124	1
88	127	1
91	91	4
28	28	4
80	81	1
18	18	1
31	96	1
103	103	4
6	7	1
92	93	2
92	94	1
125	125	5
71	100	1
70	70	2
44	44	4
32	32	2
57	57	1
80	80	1
67	67	1
133	133	1
62	63	2
1	1	2
40	84	2
58	58	2
71	71	4
97	98	1
79	79	4
70	71	2
3	3	1
68	74	1
131	132	1
111	111	1
29	31	1
27	27	3
82	84	1
59	94	1
100	101	1
6	6	3
107	107	2
31	32	2
126	127	1
69	69	2
104	105	1
129	129	1
97	103	1
59	61	1
57	58	1
53	53	1
92	95	1
116	116	1
91	125	1
56	57	1
22	22	3
78	78	2
118	119	1
49	93	1
20	20	2
124	125	2
43	44	1
126	126	1
89	89	1
47	47	2
63	100	1
90	92	2
106	106	1
96	97	1
42	42	1
122	123	1
84	85	1
55	66	1
47	48	2
59	62	1
82	95	1
130	131	1
89	106	1
11	12	1
27	32	1
92	132	1
99	101	1
102	125	1
32	51	1
127	127	1
77	77	2
127	128	1
40	75	1
125	126	1
51	52	1
69	112	1
77	78	1
93	124	1
1	3	1
20	22	1
75	82	1
7	7	1
3	4	1
102	103	1
70	100	1
22	24	1
91	99	1
85	88	1
