128	128	3
94	94	3
42	42	4
99	124	1
18	20	1
91	103	3
138	138	2
97	97	2
24	25	1
90	117	3
6	6	2
2	2	1
13	122	3
82	82	1
53	54	1
28	28	2
24	24	2
123	123	3
14	14	1
51	63	1
103	103	3
11	100	1
114	114	1
63	64	3
108	128	1
9	28	2
90	90	1
48	63	1
134	134	1
49	49	2
141	141	3
109	111	1
93	94	3
129	129	1
120	123	1
69	78	1
16	62	1
77	79	4
130	130	4
114	132	1
126	126	2
58	58	3
30	55	1
136	137	2
57	57	2
10	10	1
17	25	2
66	66	4
87	87	2
40	40	1
100	101	1
16	16	2
104	104	3
140	140	4
10	67	1
41	41	4
8	8	6
57	82	1
31	31	2
99	99	2
58	60	1
43	43	2
114	115	1
111	111	1
97	108	1
55	75	1
25	26	1
47	57	1
128	139	1
88	114	1
101	101	2
67	67	2
29	29	2
59	59	2
120	120	1
133	138	1
92	93	2
62	82	2
20	130	1
132	132	1
124	124	1
142	142	2
20	23	2
26	26	2
37	37	4
22	22	2
145	145	2
18	38	1
131	131	3
72	75	1
58	59	1
95	96	1
129	130	2
18	18	2
86	117	2
23	110	2
51	54	1
91	91	2
11	11	2
92	92	1
8	29	1
100	100	3
5	5	3
59	60	3
124	125	1
62	62	2
51	80	1
69	72	1
118	118	1
140	141	1
96	96	1
144	144	2
124	126	2
135	136	2
10	27	1
42	68	1
51	52	1
125	143	1
90	91	1
122	123	1
47	47	1
27	27	1
70	70	3
79	79	1
146	146	1
98	98	1
63	63	1
23	23	1
60	60	2
87	116	1
33	39	1
68	68	1
143	143	1
83	83	1
110	110	2
70	90	1
123	125	2
22	23	1
16	64	1
127	129	1
36	36	1
49	50	1
136	136	1
103	143	1
74	74	1
130	132	1
72	72	1
96	103	1
108	108	2
107	108	1
98	99	1
61	61	1
13	14	1
12	18	1
85	85	1
21	21	4
80	81	1
9	9	1
14	112	1
111	116	1
117	119	1
91	126	1
126	127	1
116	117	2
1	21	1
144	145	1
5	13	1
42	43	1
4	6	1
34	35	1
74	75	1
102	102	2
50	51	1
112	113	1
125	125	2
37	38	1
62	65	1
35	35	1
31	77	1
2	120	1
61	62	1
38	38	1
52	53	1
87	119	2
77	78	1
77	88	1
119	119	1
9	104	2
48	65	1
42	62	2
50	50	1
117	126	1
133	133	2
37	59	1
54	54	1
23	31	1
17	41	1
105	108	1
134	140	1
48	48	1
105	115	1
56	128	1
55	74	1
32	35	1
43	46	1
55	55	1
65	77	2
115	116	1
80	101	1
105	120	1
68	82	1
73	73	1
89	89	1
