70	71	3
67	68	2
71	71	5
10	10	1
127	129	1
50	50	6
97	97	4
25	77	1
61	61	7
85	85	7
55	59	1
53	53	2
79	79	9
71	72	2
20	20	2
113	123	1
9	9	6
69	70	4
12	12	3
104	104	2
121	121	8
34	34	4
73	73	3
65	65	3
35	35	4
10	19	1
94	94	6
43	43	2
82	85	1
80	80	2
24	48	1
20	21	1
135	135	1
23	74	1
99	99	3
92	92	3
82	84	3
124	126	1
74	74	5
90	117	1
90	90	2
119	120	2
7	7	3
100	102	1
77	77	3
27	27	1
21	21	3
88	88	4
26	27	2
28	31	2
78	78	5
59	59	2
33	34	2
19	20	1
79	80	1
55	56	1
94	95	2
105	105	2
87	87	8
133	133	2
105	112	1
56	59	2
61	62	1
26	26	2
47	49	1
27	28	3
94	104	1
34	35	1
44	44	4
82	82	3
13	14	1
58	59	2
60	62	1
37	38	2
93	94	2
0	70	1
133	134	2
30	30	7
75	75	5
25	25	1
53	54	1
95	95	1
46	54	1
15	15	2
4	4	2
101	102	1
132	133	1
63	63	3
76	102	1
46	46	1
55	55	4
18	18	2
127	127	3
16	16	1
5	5	6
108	108	2
23	24	1
119	119	2
84	111	1
5	24	1
17	17	2
86	87	1
43	52	2
96	104	1
64	71	1
72	72	4
111	112	4
101	101	1
111	111	2
70	70	3
17	18	2
22	22	4
96	96	3
3	3	8
33	33	4
1	1	4
29	29	1
100	100	2
44	46	2
3	4	2
49	50	1
16	18	1
112	130	1
13	13	3
32	33	2
134	134	3
60	60	4
77	78	1
105	125	1
50	70	1
124	124	1
62	116	1
58	58	3
4	92	1
125	125	2
6	6	4
113	113	1
114	115	1
84	84	1
36	36	2
57	68	1
132	132	2
37	37	2
0	0	1
63	64	1
2	2	3
67	67	5
116	116	1
13	15	2
24	25	3
103	104	1
62	62	1
64	64	2
22	23	1
102	102	1
44	45	1
105	126	1
112	115	3
77	88	1
81	81	5
123	123	1
114	114	4
112	112	4
66	66	2
7	15	1
134	135	1
109	117	1
45	45	3
49	49	1
54	54	1
76	76	3
2	3	1
11	11	1
110	110	1
10	11	1
73	74	1
6	7	4
55	60	1
57	58	1
36	38	1
52	52	1
31	31	2
8	8	2
23	23	3
64	81	1
25	27	1
32	32	1
83	85	1
105	106	1
45	46	1
6	76	1
18	45	1
1	2	2
121	126	1
118	118	2
69	69	1
18	26	2
107	107	3
36	37	1
27	44	1
36	39	1
81	86	1
83	83	2
108	110	1
125	133	1
129	129	3
77	81	1
76	93	1
66	69	1
25	34	1
15	16	1
120	120	1
66	68	2
9	10	1
7	11	1
89	90	1
8	25	1
64	65	1
52	59	1
117	118	1
87	88	1
49	51	1
84	87	1
104	105	1
55	57	1
61	78	1
85	86	1
78	79	1
71	79	1
54	55	1
54	59	1
19	19	1
86	86	1
99	101	1
103	103	1
108	111	1
