96	98	1
56	56	11
53	53	6
30	44	1
83	96	2
92	92	8
121	121	11
88	88	3
1	2	3
22	39	1
57	58	1
120	120	5
101	101	6
42	42	4
100	104	1
114	114	12
112	112	7
83	83	6
47	47	6
113	113	4
122	122	12
58	58	3
129	130	3
127	130	1
132	132	5
106	106	6
68	68	5
102	105	1
106	107	5
80	80	2
95	95	4
60	60	6
9	9	2
94	94	7
117	117	15
110	110	10
111	111	10
50	50	4
28	28	6
58	62	2
63	63	4
61	63	1
24	24	9
90	96	1
2	2	7
45	45	8
55	56	3
44	44	8
68	69	3
65	65	7
116	116	8
64	74	1
103	103	12
48	49	5
114	115	2
97	97	3
68	77	1
78	90	1
102	103	5
70	71	4
7	7	4
20	22	1
46	46	3
62	62	11
104	104	16
113	115	1
55	55	8
70	70	3
69	69	3
126	126	10
25	25	5
31	32	2
71	72	2
79	79	5
114	118	3
62	65	1
42	43	4
94	95	1
77	77	3
3	3	4
31	31	2
65	66	2
104	114	1
11	12	2
33	34	1
34	34	5
100	101	2
57	57	6
118	118	4
119	120	4
71	71	8
72	72	7
107	107	3
1	1	6
72	75	1
6	7	1
18	33	1
0	0	3
12	12	4
85	85	2
30	30	5
20	20	1
51	55	3
53	117	1
47	48	3
53	110	2
29	29	10
100	100	5
54	54	9
21	21	1
67	117	2
13	13	4
125	125	8
130	130	8
95	106	2
96	96	3
101	103	1
115	115	6
32	33	2
108	109	4
65	67	2
124	125	4
118	120	2
34	76	1
105	107	2
26	26	13
28	58	1
7	8	1
41	42	2
109	111	1
105	105	8
124	124	9
93	93	5
81	81	2
28	46	1
108	108	1
39	39	8
56	122	1
16	16	3
5	5	5
133	133	4
107	108	2
78	78	6
49	49	4
43	43	5
51	51	7
73	74	1
33	33	5
90	90	6
50	66	2
39	41	1
51	52	1
38	38	1
119	119	7
115	116	3
19	19	3
123	124	1
128	128	4
11	11	4
2	3	4
76	77	1
16	30	1
15	15	4
18	18	4
32	32	4
80	83	2
77	86	1
50	51	1
78	79	3
121	122	2
61	62	2
93	94	3
67	77	1
99	130	2
4	5	3
120	122	1
39	40	4
102	102	2
128	129	3
78	93	1
84	84	2
86	86	2
76	76	3
92	120	1
127	127	5
48	48	6
59	59	3
99	100	2
104	105	2
92	94	2
15	19	2
78	81	1
50	54	1
70	95	1
51	108	1
66	66	11
98	98	4
82	82	6
84	114	1
82	84	1
42	79	1
40	40	2
89	89	1
8	12	1
114	116	2
64	64	2
52	52	6
109	109	6
88	89	3
40	41	3
41	41	2
109	115	1
8	8	3
49	118	1
67	67	3
31	52	1
60	61	2
39	61	1
31	46	1
90	91	1
57	76	1
48	77	2
93	96	1
97	99	1
73	73	6
126	128	1
82	83	1
22	22	4
131	132	2
10	11	2
69	106	1
51	70	1
45	47	1
91	91	4
116	117	2
13	14	1
64	65	1
17	17	3
74	75	1
81	82	1
75	75	1
132	133	1
114	120	1
104	107	1
74	74	3
48	57	1
4	4	3
28	76	1
92	93	3
27	28	2
99	99	3
6	6	3
23	24	2
126	127	2
18	27	1
83	91	1
123	123	4
83	84	1
111	112	2
52	53	1
101	102	1
119	121	1
109	114	1
23	23	2
85	86	3
24	64	1
60	101	2
110	111	1
30	31	1
108	112	1
39	44	1
50	57	1
12	13	1
46	47	2
47	51	2
80	81	2
56	131	2
39	43	1
83	85	2
50	52	1
66	67	1
58	59	4
77	79	1
98	101	1
105	108	1
25	32	1
28	29	2
25	62	1
62	101	1
45	46	2
118	119	2
18	22	1
17	20	1
75	77	1
81	103	1
82	87	1
14	32	1
97	98	2
31	62	1
17	42	2
78	87	1
81	85	1
61	61	3
89	130	1
92	126	1
49	57	1
10	10	3
4	54	1
71	100	1
49	50	1
90	100	1
89	98	1
25	48	1
80	101	1
81	99	1
72	74	1
82	90	1
109	110	2
69	72	1
129	129	2
19	24	1
104	110	1
21	23	1
90	92	1
26	32	1
74	92	1
47	56	1
58	66	1
9	10	1
125	131	1
131	131	4
68	125	1
3	5	1
111	116	1
5	6	1
46	48	1
49	51	1
117	119	1
68	72	1
27	48	1
81	83	1
85	87	1
56	76	1
116	118	1
42	58	1
112	113	1
38	40	1
127	128	1
24	33	1
24	31	1
21	64	2
83	92	1
24	25	1
98	99	1
85	89	1
64	66	1
23	96	1
39	79	1
29	30	1
5	110	1
124	132	1
75	91	1
14	116	2
85	99	1
28	30	1
71	76	1
62	115	1
47	84	1
