94	130	1
168	169	1
6	7	1
70	70	2
68	68	1
87	89	1
110	110	3
14	15	3
33	58	2
124	124	2
175	175	3
151	151	1
109	109	1
165	165	1
158	158	1
145	145	4
87	151	1
147	147	3
74	74	4
23	23	3
148	148	1
17	17	2
106	106	8
136	136	1
56	84	2
128	175	1
95	96	1
108	108	2
15	15	4
36	36	1
181	182	1
90	90	2
122	140	1
96	96	2
0	0	2
185	186	1
97	97	2
184	184	2
40	48	2
128	128	1
71	71	2
146	147	2
127	127	1
134	136	1
129	129	5
131	133	2
10	22	1
139	140	1
82	82	2
123	123	4
7	8	2
109	110	1
189	189	4
9	9	2
188	189	2
6	6	1
122	123	2
152	152	2
3	3	1
122	122	4
16	17	1
26	71	1
160	160	2
21	22	1
153	154	1
108	139	1
80	80	1
177	177	3
2	2	2
174	174	2
116	117	1
150	152	1
12	22	1
169	170	1
42	43	2
176	176	4
59	59	1
157	157	4
1	2	3
86	87	1
53	53	1
102	103	1
81	81	2
169	169	3
81	82	3
56	57	3
57	57	3
85	85	1
150	150	1
183	183	7
35	46	1
100	101	1
20	20	1
106	147	1
37	41	2
69	69	1
188	188	1
149	149	1
171	171	2
180	181	1
185	185	2
45	45	1
44	46	1
55	56	1
75	75	2
61	62	1
11	11	1
4	4	1
178	179	2
26	26	1
112	112	2
119	139	2
129	139	1
23	25	1
124	128	1
28	28	1
141	141	2
16	16	1
89	89	1
148	151	1
157	159	1
128	146	1
173	173	1
100	102	2
12	12	3
48	57	1
170	170	1
55	55	3
106	108	1
79	80	1
146	146	2
64	64	2
20	21	2
139	139	2
154	154	2
146	148	1
138	138	1
78	78	1
43	44	1
5	5	4
52	52	1
119	174	1
92	92	1
133	138	1
174	177	1
182	183	1
105	105	4
125	147	1
97	98	1
137	139	1
41	41	1
21	23	2
29	29	1
164	164	2
126	127	1
56	56	3
90	92	1
44	45	1
108	153	1
33	68	1
158	177	1
113	113	1
88	146	1
126	184	2
135	135	1
77	77	2
0	1	3
14	14	1
155	155	1
124	126	1
33	57	1
98	104	1
85	100	1
122	187	1
23	175	1
172	172	2
186	187	2
135	136	1
17	44	1
99	99	2
7	7	1
130	132	1
18	19	1
99	100	1
32	32	2
82	86	1
187	188	2
13	13	4
8	8	1
166	166	2
4	5	1
156	156	1
29	30	1
129	177	1
104	104	1
158	160	1
3	4	1
152	153	1
48	48	2
55	57	1
177	179	1
25	54	1
107	108	1
31	31	1
181	181	1
36	53	1
153	153	1
103	103	1
90	91	1
84	85	1
67	67	1
93	116	1
72	75	1
19	19	1
41	53	1
108	152	1
66	67	1
65	65	1
151	187	1
