2	2	3
88	90	1
112	112	2
141	141	8
56	56	4
104	104	2
124	124	4
135	136	2
37	38	1
116	127	1
127	128	6
110	110	2
103	103	4
74	83	1
51	52	1
50	52	3
83	84	1
1	20	1
36	36	3
131	131	6
74	75	1
109	120	1
89	100	2
83	85	2
31	64	2
24	39	1
120	130	4
0	1	1
25	26	3
60	60	3
95	96	4
64	64	5
73	73	5
129	133	2
23	26	2
74	74	3
35	36	2
13	13	2
22	22	8
21	21	3
138	138	5
39	39	4
37	41	1
64	67	2
38	38	6
75	75	2
85	88	1
41	66	4
26	26	2
129	129	2
103	130	3
145	145	3
133	136	2
42	48	2
130	130	4
99	141	1
18	18	6
9	9	4
127	130	1
94	113	1
77	77	3
30	30	2
12	19	1
133	133	3
81	118	1
63	64	3
71	71	3
104	116	1
69	69	1
123	138	1
117	117	3
142	142	5
28	28	5
144	145	2
93	101	2
132	140	1
70	87	1
14	16	1
20	28	3
75	90	1
56	60	1
94	94	4
89	92	1
111	138	1
113	117	1
108	109	1
23	23	3
11	16	1
25	25	6
118	130	1
35	37	1
100	100	5
143	144	2
64	78	1
87	95	1
86	90	1
91	91	2
21	22	2
130	131	4
110	121	1
49	51	1
37	37	3
24	24	5
16	16	1
31	31	2
30	55	1
115	115	3
52	80	1
118	132	2
35	35	3
39	48	1
48	48	3
65	65	1
54	54	2
126	127	2
138	139	3
80	80	2
57	57	2
99	142	1
61	77	1
115	116	5
139	141	3
102	102	1
132	141	1
25	27	1
114	116	1
66	66	3
105	121	1
20	25	1
2	89	1
97	97	5
135	135	5
62	62	4
61	81	2
67	67	4
37	87	1
121	128	1
98	98	2
0	6	1
87	87	3
95	125	1
111	111	4
23	24	1
135	144	1
81	81	3
28	30	4
128	128	5
107	116	1
61	63	1
122	126	1
36	37	1
61	67	2
1	1	1
142	143	1
26	27	2
3	3	2
105	105	4
139	139	2
32	37	1
24	31	1
133	134	3
59	84	1
143	146	1
57	60	1
144	144	5
19	21	1
59	59	2
110	142	1
47	51	1
122	125	1
104	111	1
123	123	1
88	91	1
107	107	2
96	97	2
60	62	1
19	19	2
10	10	3
70	72	1
4	8	2
140	141	1
35	39	2
52	53	3
11	11	3
61	61	4
20	29	1
56	57	2
117	134	2
134	142	2
101	106	1
143	143	2
6	9	1
16	25	2
73	96	1
74	123	1
125	125	4
88	89	3
136	137	2
76	76	3
90	90	2
20	26	1
51	83	1
92	95	1
62	64	1
87	88	1
96	114	2
22	56	2
123	135	1
5	5	1
123	125	1
41	42	2
115	119	1
66	69	1
70	89	1
121	125	1
46	47	2
130	134	1
85	85	1
77	80	1
61	66	1
95	104	1
8	9	1
139	140	2
105	139	1
129	131	1
136	136	4
137	138	1
64	66	1
34	34	2
127	127	4
66	67	1
48	52	1
2	5	1
63	63	1
134	134	4
58	59	2
27	29	1
116	120	1
122	122	3
6	6	3
49	49	3
49	54	2
40	41	2
84	137	1
42	42	2
62	63	1
141	142	1
61	62	1
39	42	1
50	51	1
99	101	1
4	4	3
140	140	5
57	58	1
74	91	1
132	132	4
116	117	1
5	32	2
92	92	2
32	64	3
89	89	3
14	15	1
137	137	3
91	115	1
93	93	1
41	48	1
27	28	3
128	129	1
117	120	1
37	39	1
54	58	1
58	72	1
59	60	1
79	79	1
4	6	1
99	124	1
85	86	1
121	121	2
16	17	1
35	40	1
58	58	3
72	127	1
122	123	1
103	106	1
119	120	1
75	77	1
9	21	1
137	139	1
36	54	1
128	130	1
47	47	1
29	41	1
131	142	1
15	15	2
132	133	1
31	33	1
19	20	1
13	40	1
115	117	1
0	0	1
29	32	1
5	16	1
142	145	1
83	83	2
73	79	2
65	66	1
15	17	2
53	57	1
61	64	1
117	143	1
69	82	1
105	111	2
112	114	1
59	63	1
17	17	1
73	74	2
119	129	1
4	72	1
82	86	1
109	124	2
23	42	1
10	17	1
14	14	3
116	116	1
136	138	2
116	118	1
55	56	1
49	50	1
56	71	2
12	13	2
6	11	1
34	37	1
75	76	1
27	27	4
87	109	1
68	69	2
139	144	1
33	33	2
24	35	1
18	31	1
84	85	1
78	83	1
124	126	1
106	106	2
91	95	1
17	19	1
49	60	1
61	103	1
29	29	1
51	51	1
57	91	1
66	97	1
91	92	2
43	43	1
31	56	2
106	125	1
5	34	1
96	96	1
57	67	1
107	126	1
126	126	2
90	94	1
123	129	1
23	38	1
62	76	1
10	11	1
108	108	2
70	70	2
8	8	2
21	23	1
55	60	1
47	48	1
55	55	1
49	56	2
113	121	1
32	32	2
141	146	1
6	33	1
20	107	1
59	72	1
40	40	1
20	21	1
139	145	1
34	36	1
99	100	2
88	88	1
64	65	1
93	96	1
104	112	1
128	131	1
54	55	1
118	118	1
113	122	1
129	139	2
106	119	1
67	74	1
101	101	4
4	53	1
97	100	1
93	103	1
41	58	1
98	102	1
114	114	1
71	72	1
119	123	1
109	112	1
1	67	1
111	113	1
53	63	1
60	69	1
107	109	1
123	137	1
90	95	1
29	30	1
77	79	1
42	102	1
104	105	1
5	6	1
80	84	1
67	103	1
79	91	2
63	65	1
61	68	1
43	47	1
116	125	1
73	75	1
77	78	1
50	50	1
113	113	1
142	144	1
41	41	1
112	122	1
109	109	1
145	146	1
133	139	1
78	79	1
26	30	1
121	122	1
119	119	1
120	120	1
53	53	1
