119	120	1
139	140	2
130	130	6
150	150	3
46	46	2
23	23	3
42	43	3
15	16	1
28	28	2
103	103	2
109	110	2
139	139	2
81	81	6
136	136	3
123	126	1
99	100	1
105	105	1
133	138	2
153	153	1
131	132	1
111	111	3
92	95	1
89	95	1
83	84	1
151	151	2
104	104	2
123	124	2
156	156	3
121	133	2
154	155	3
126	127	1
98	98	3
138	138	5
102	102	1
2	101	1
90	90	6
24	25	3
78	80	1
157	157	3
142	142	3
24	24	2
7	65	1
122	123	1
25	155	1
126	126	3
91	92	1
22	22	2
36	36	2
140	141	2
11	11	2
3	4	4
28	86	1
12	12	5
158	158	2
137	138	3
73	73	4
88	88	3
98	150	1
133	133	5
68	68	1
91	91	1
79	79	2
55	55	1
92	128	1
6	30	1
140	140	2
41	41	1
148	148	3
75	75	2
41	42	1
65	72	2
16	34	1
18	19	3
138	140	1
33	34	5
57	57	1
115	120	2
33	33	2
13	18	1
79	82	1
141	143	1
4	5	4
135	137	2
95	96	3
112	112	3
155	155	5
29	30	2
29	29	1
149	149	2
127	127	4
17	17	3
45	45	2
101	101	3
1	2	1
70	71	1
154	154	2
123	127	1
9	10	1
133	139	1
129	130	1
95	116	1
89	91	1
6	21	1
89	89	2
53	86	2
92	116	2
107	107	6
106	106	1
95	95	1
65	66	3
14	15	2
30	30	3
38	39	1
142	143	1
35	35	1
17	19	1
48	48	2
8	9	1
93	95	1
143	143	3
131	131	2
27	27	2
121	121	1
99	99	1
128	128	3
5	32	1
4	4	1
86	97	1
63	64	1
139	155	1
115	115	1
10	10	1
64	77	1
149	150	1
29	65	1
152	152	3
26	98	4
25	25	3
132	134	1
64	64	2
66	67	1
91	116	1
121	122	1
81	84	1
76	96	2
134	134	2
146	146	1
18	18	2
122	135	1
3	3	3
5	5	1
117	117	2
39	39	4
103	104	1
11	39	1
142	144	2
91	107	1
44	44	1
135	155	1
78	82	2
3	157	1
94	94	1
119	119	6
123	125	2
1	1	2
37	38	1
80	81	2
144	145	1
5	73	1
82	82	1
125	126	2
117	119	2
92	92	1
92	106	1
69	70	1
89	109	1
107	111	1
155	158	1
135	135	3
24	105	1
129	151	2
56	56	3
85	85	2
122	122	2
151	152	1
8	11	1
51	51	1
86	86	1
55	56	1
47	51	1
69	69	2
44	50	1
140	148	1
145	146	1
54	54	1
114	115	1
117	145	1
84	84	2
137	137	1
123	123	1
90	91	1
112	113	1
17	18	1
158	159	1
129	129	1
138	139	1
66	129	1
43	43	1
136	137	1
125	125	1
7	8	1
104	105	2
116	140	1
96	107	1
87	109	1
76	77	1
108	109	1
120	120	2
67	68	1
4	55	1
66	66	1
144	144	1
93	93	1
84	134	1
21	21	1
96	147	1
52	93	1
44	66	1
96	111	1
109	114	1
100	100	1
87	87	1
118	119	1
141	141	1
14	14	1
47	47	1
41	53	1
72	104	1
0	137	1
118	141	1
65	65	1
91	140	1
52	52	1
97	98	1
118	118	1
7	36	1
104	120	1
92	111	1
2	3	1
85	86	1
147	148	1
