21	33	1
48	48	3
109	109	8
56	63	2
67	67	4
118	118	4
186	186	3
30	39	3
146	146	3
20	20	4
214	221	2
225	225	8
129	130	3
40	41	1
57	81	2
27	28	4
101	101	5
74	74	9
147	147	4
156	157	2
45	45	6
22	22	3
169	169	9
124	124	3
160	188	1
115	115	4
165	179	1
32	53	1
192	224	1
72	72	3
221	222	2
171	171	13
160	160	6
134	134	4
198	198	8
102	102	8
85	85	10
121	121	4
39	39	11
40	40	5
100	198	1
6	6	2
86	100	1
120	120	4
185	187	1
233	233	2
137	138	2
69	69	6
96	96	4
20	55	1
184	185	2
68	68	8
19	60	1
173	173	6
172	173	4
123	124	2
15	200	1
59	59	2
122	122	2
86	86	5
149	189	1
188	188	7
3	4	1
170	171	2
130	130	4
96	113	1
24	24	5
116	116	6
170	170	6
219	220	1
113	113	5
161	161	4
81	81	8
145	149	1
230	231	1
176	176	3
106	127	1
24	26	1
177	177	6
18	18	4
49	49	2
135	135	4
10	10	4
156	180	1
232	232	4
107	118	1
216	216	2
152	152	6
145	145	3
149	150	1
55	59	1
240	240	4
61	61	3
235	235	3
30	30	5
172	172	5
126	126	6
78	78	3
119	119	7
27	102	1
180	180	11
33	38	1
122	136	1
45	72	1
64	66	1
1	8	1
151	151	6
150	150	9
42	102	1
84	84	5
200	201	2
125	125	7
210	210	6
181	181	3
160	161	3
214	215	2
183	183	8
23	48	1
38	39	1
163	184	1
212	212	4
239	239	1
131	131	3
163	163	7
138	138	5
194	195	1
25	29	1
209	210	1
203	204	1
149	153	3
70	70	9
196	196	3
182	182	6
100	100	5
133	173	2
26	238	1
17	18	2
164	164	6
28	28	8
176	235	1
230	230	6
43	54	1
43	43	5
136	136	5
34	34	6
7	9	1
167	167	7
154	154	5
48	62	1
7	7	5
237	237	3
42	42	5
219	219	9
100	174	1
41	42	1
15	15	5
47	47	9
48	55	2
39	40	2
192	196	2
143	150	1
124	163	1
25	25	3
27	217	1
61	62	1
13	15	1
5	5	4
184	186	2
106	106	5
19	19	2
119	131	1
145	146	4
149	159	1
15	205	2
29	29	3
132	134	1
7	8	2
241	242	2
220	222	2
53	53	3
52	52	1
96	97	2
30	32	3
187	187	4
236	239	2
60	60	6
188	196	1
153	153	5
143	186	1
184	184	3
205	207	1
180	195	1
223	224	3
223	223	7
199	199	3
173	174	1
114	115	2
227	227	6
65	65	11
170	177	1
122	201	1
26	63	1
127	134	1
208	208	3
68	86	1
169	187	1
206	206	3
190	190	5
167	168	3
142	164	1
112	112	2
10	86	1
217	233	1
113	119	1
108	108	3
12	207	1
20	21	2
17	17	4
119	135	1
126	146	1
60	61	3
236	237	3
126	128	1
26	203	1
51	54	1
33	33	4
107	220	2
206	208	2
134	158	1
138	139	1
88	176	1
38	38	5
218	218	1
58	58	1
120	131	1
69	96	1
109	172	1
171	172	1
98	98	2
238	239	1
23	23	4
105	108	1
14	14	1
131	191	3
191	239	2
227	229	1
25	30	1
234	235	1
179	183	1
159	161	3
181	182	4
185	185	1
133	133	3
125	127	3
51	52	3
217	217	4
103	103	4
63	64	1
178	178	6
63	63	3
193	193	3
34	52	1
12	12	1
207	207	3
62	62	3
99	102	1
103	104	1
3	3	3
162	163	1
120	172	1
117	118	1
168	168	10
44	69	1
242	242	2
174	177	1
11	11	7
2	2	4
105	105	4
156	156	3
143	143	3
225	238	1
204	204	4
191	197	2
76	79	2
197	197	2
213	213	4
164	165	1
88	88	2
58	59	4
183	187	1
190	230	1
11	42	1
128	172	1
200	200	2
61	64	3
133	134	2
97	97	5
37	37	5
177	178	1
14	137	2
24	25	2
159	159	2
145	197	1
166	166	3
16	16	2
51	51	3
13	80	2
178	179	1
80	83	3
3	7	1
222	222	1
155	156	1
128	128	5
143	145	1
53	206	1
71	71	4
179	179	1
81	83	2
196	228	1
54	55	3
78	80	2
183	184	1
136	137	1
233	239	2
120	121	2
202	202	3
205	205	5
4	49	1
72	105	1
26	26	2
15	16	2
16	56	1
37	54	1
187	222	2
64	65	3
54	54	3
23	24	1
155	155	2
3	39	1
109	217	1
174	174	6
162	162	2
212	213	1
176	177	5
210	225	1
121	135	1
32	32	1
83	90	1
10	11	1
217	218	1
76	78	1
175	175	5
109	170	1
192	195	1
75	77	2
147	148	2
76	131	2
30	31	2
39	54	1
137	137	1
119	134	1
27	27	6
146	149	1
79	82	1
226	226	4
187	198	1
64	64	2
139	139	2
36	36	1
144	145	1
140	141	1
198	230	2
66	75	1
77	78	1
7	56	1
104	104	1
159	160	1
175	182	1
194	194	1
27	171	1
11	54	2
86	99	2
153	155	1
9	9	4
231	232	1
191	192	1
35	36	1
114	114	5
5	6	3
182	211	1
150	154	2
21	22	2
73	73	2
124	125	2
1	1	4
168	169	2
1	2	2
158	158	6
66	80	1
140	140	2
0	0	2
114	120	1
16	17	1
46	46	6
160	176	2
12	13	3
55	76	1
20	136	1
31	31	3
4	4	2
106	167	1
6	21	1
89	89	1
17	19	1
38	43	2
110	110	2
23	60	1
171	240	1
150	151	2
29	159	1
129	129	2
106	108	1
176	234	2
63	68	1
33	37	1
54	170	1
111	114	1
55	55	3
232	233	1
66	66	3
3	12	1
174	175	2
46	98	1
75	75	4
238	238	4
139	166	1
229	230	1
214	214	2
220	220	2
6	7	2
163	164	1
109	127	2
192	192	4
2	20	1
199	200	2
210	211	1
42	57	1
211	225	1
39	64	1
118	119	4
185	186	2
65	68	1
15	145	1
3	38	1
44	44	5
34	35	2
198	208	1
32	39	1
95	148	2
8	8	2
25	233	1
58	60	1
211	214	1
101	159	1
102	104	1
113	114	1
61	68	1
64	231	1
154	188	1
119	127	1
201	201	1
141	141	2
83	83	2
211	213	2
52	67	1
0	1	1
71	107	1
35	35	3
76	76	2
206	235	1
6	139	1
179	182	3
153	181	1
12	15	2
191	191	4
203	203	4
6	39	1
174	191	1
69	100	1
122	150	1
151	152	1
4	5	2
198	205	1
173	178	1
124	127	2
102	110	2
209	212	2
193	194	2
173	175	2
21	21	1
50	57	1
70	97	1
44	45	1
86	87	1
111	113	1
196	197	1
1	55	1
65	66	1
40	42	1
108	109	1
37	85	1
121	145	1
215	215	1
42	242	1
133	140	1
115	116	1
166	193	1
81	82	1
145	179	1
141	165	1
59	83	3
228	228	2
95	134	1
4	6	2
168	182	1
144	181	1
140	146	1
17	20	1
217	228	2
22	23	1
224	224	1
241	241	2
37	53	2
70	73	1
211	224	1
114	128	1
37	38	1
28	42	1
157	157	2
235	237	2
138	143	1
108	185	1
157	184	1
27	29	1
139	141	1
73	96	2
211	211	1
11	43	1
123	123	1
103	204	1
229	229	1
75	83	1
159	176	1
154	192	1
130	131	1
234	234	1
158	183	1
13	13	1
79	79	3
209	209	3
153	167	1
29	31	1
46	88	1
166	167	2
58	62	1
143	182	1
192	197	2
48	49	1
149	168	1
121	134	1
192	220	1
102	131	1
24	60	1
210	212	1
15	39	1
179	218	1
149	151	1
3	20	1
142	163	1
240	242	1
105	135	1
145	178	1
32	43	1
85	86	1
77	77	1
50	122	1
222	225	2
99	100	1
188	189	1
127	179	1
65	83	1
50	51	1
12	16	1
165	165	1
159	169	1
202	203	1
209	220	1
42	59	1
196	213	1
8	9	1
106	168	1
125	126	1
154	180	1
42	58	1
57	57	1
196	207	1
116	117	1
29	30	1
95	95	1
120	122	1
52	53	1
131	135	1
128	131	1
22	31	1
104	110	1
136	141	1
201	232	1
28	171	1
224	228	1
34	40	1
138	140	1
197	198	1
86	113	1
50	80	1
225	226	1
160	162	1
2	8	1
23	35	1
169	190	1
102	175	1
21	23	1
59	60	1
26	27	1
25	96	1
33	42	1
103	158	1
21	24	1
6	8	1
105	180	1
70	71	1
56	62	1
125	156	1
101	128	1
42	64	1
82	82	1
214	227	1
15	20	1
24	39	1
160	200	1
