142	142	2
81	82	1
52	52	4
30	30	2
173	173	2
29	30	2
51	51	1
14	14	1
178	179	1
126	127	3
79	79	2
74	75	1
45	45	1
154	154	1
80	86	1
23	24	2
86	87	2
163	163	1
151	158	2
149	149	3
171	180	2
105	105	1
83	84	2
60	60	2
146	146	1
167	167	1
103	103	4
115	127	1
61	62	2
132	132	3
44	44	4
78	78	1
104	104	3
4	4	2
168	170	1
64	64	1
148	148	1
98	100	1
108	112	1
172	172	4
80	93	1
14	37	1
43	44	2
61	61	2
165	170	1
151	151	4
79	82	1
25	25	3
152	157	1
93	97	1
109	110	1
112	112	2
21	21	1
3	4	1
97	97	2
91	91	1
91	92	2
112	131	1
153	153	1
125	126	1
9	9	2
32	32	1
76	77	1
127	127	1
160	160	2
89	89	1
31	33	1
7	8	1
54	54	2
36	36	2
37	37	1
22	35	1
118	118	4
41	41	2
1	1	2
93	94	1
137	137	1
179	179	2
157	157	1
15	64	1
96	96	3
36	159	1
168	169	1
125	125	2
114	114	2
11	12	1
8	9	2
72	72	3
169	169	3
167	169	2
6	17	2
122	131	1
110	110	2
112	148	1
27	34	1
117	117	3
6	6	1
121	121	3
52	68	1
31	31	2
168	168	1
129	129	1
3	11	1
118	141	1
115	116	1
86	86	2
133	133	2
38	38	2
140	140	2
111	112	1
82	82	2
63	64	1
167	172	1
43	60	1
12	12	1
114	115	1
156	168	1
80	82	1
2	16	1
151	168	1
104	108	1
26	27	1
76	78	1
166	167	1
149	150	2
157	162	1
56	79	1
159	161	1
59	65	1
159	159	2
77	77	2
56	58	1
20	21	1
109	109	2
42	43	1
118	127	1
22	52	2
15	58	1
59	61	1
141	142	3
126	147	1
140	141	3
27	28	2
100	100	1
35	51	2
153	158	1
37	38	1
169	170	1
165	167	1
10	10	4
27	27	2
17	27	2
73	73	1
52	56	1
58	58	1
81	81	4
7	9	1
101	101	1
139	139	4
162	162	2
5	5	1
139	169	1
14	15	1
158	158	2
112	115	1
156	156	2
92	94	1
86	94	1
87	90	1
177	177	2
93	93	2
49	50	1
54	71	1
138	172	1
81	85	1
2	2	1
99	99	2
22	26	1
103	104	1
86	92	1
169	171	1
131	179	1
152	152	2
3	3	1
163	164	2
104	105	1
21	23	2
0	0	1
11	13	1
55	71	1
95	95	1
53	53	2
13	13	1
20	22	2
108	108	2
107	107	2
28	32	1
106	106	1
35	35	2
17	25	1
85	86	1
80	80	2
13	37	1
102	102	1
138	139	1
3	20	1
119	121	1
134	134	2
176	176	2
128	129	1
141	141	1
58	59	1
39	39	1
150	150	1
164	164	2
126	126	1
120	120	1
34	34	2
18	18	1
76	76	1
57	57	1
24	29	1
55	55	1
28	29	1
158	159	2
135	150	1
62	63	2
20	20	1
36	56	1
147	147	1
124	126	1
24	56	1
118	119	2
173	174	1
71	71	1
40	61	2
127	128	1
50	88	1
125	132	1
64	65	1
121	123	1
121	130	1
53	67	1
39	43	1
102	103	1
175	175	1
83	83	1
22	22	2
90	90	1
133	141	1
56	56	1
43	43	1
68	68	1
33	33	1
