117	117	2
118	126	1
73	127	2
148	150	1
108	109	3
67	106	1
140	140	2
27	82	1
13	13	3
70	70	3
124	124	2
116	116	6
27	39	1
104	106	1
130	130	2
55	64	1
123	141	3
20	20	3
118	118	2
45	45	2
113	113	2
133	133	4
92	92	1
9	10	2
10	10	1
68	68	1
38	38	2
71	71	5
31	31	2
152	152	2
12	31	1
121	124	1
123	123	2
51	55	1
32	33	1
148	148	4
130	131	1
103	106	1
128	138	1
19	42	2
67	67	2
138	138	1
100	100	3
95	95	5
87	88	2
85	88	1
31	32	2
87	98	1
90	90	4
44	44	2
66	106	2
130	132	1
108	108	4
16	16	1
124	129	1
131	132	3
27	29	2
96	134	1
93	112	1
73	101	1
96	97	1
80	82	1
141	141	3
77	97	1
45	46	1
2	2	2
107	108	1
52	52	5
34	52	1
139	140	2
151	151	4
20	22	1
137	137	1
3	3	5
92	94	3
129	156	1
63	63	1
99	100	1
126	150	1
1	1	2
85	86	1
158	158	2
34	34	1
114	114	1
64	67	1
63	64	2
145	147	3
95	111	2
4	24	1
129	130	1
36	36	4
155	157	1
157	157	2
2	99	1
80	84	1
149	149	2
91	105	1
18	50	1
106	106	3
139	139	2
129	129	3
37	37	2
24	25	1
24	24	2
157	159	2
152	156	1
83	90	1
46	46	4
99	99	4
107	107	4
30	30	4
125	125	2
98	99	2
155	156	1
80	80	3
35	36	2
121	121	2
39	39	1
147	147	4
115	115	1
43	43	6
22	22	2
14	16	1
76	77	1
120	120	4
47	48	2
140	148	1
154	155	1
156	156	2
24	140	1
126	126	2
65	67	1
87	87	2
120	128	1
134	134	1
131	133	1
13	14	1
50	51	1
135	136	3
109	110	1
132	132	1
75	75	1
47	47	2
155	155	3
153	154	3
91	91	2
124	148	1
50	50	3
41	41	3
41	42	1
23	23	2
83	84	2
120	122	3
49	53	1
146	146	1
150	150	4
7	26	1
98	98	4
66	66	2
85	85	1
78	78	3
5	5	1
0	0	3
95	137	1
117	119	3
34	35	2
55	56	1
132	134	3
97	101	1
111	136	1
106	107	2
103	103	4
150	151	1
105	107	1
91	93	2
156	158	2
110	110	2
133	134	2
26	36	1
11	11	2
36	47	1
67	68	1
22	23	1
79	79	3
133	135	1
108	111	2
124	125	1
77	77	2
67	108	1
26	26	1
129	135	1
126	127	1
51	71	1
97	97	1
5	13	2
109	118	1
76	97	1
46	48	1
34	36	1
93	107	1
113	114	1
55	55	1
144	147	1
17	115	1
111	112	1
70	71	1
83	83	2
111	113	1
19	22	2
27	28	1
36	70	1
46	49	2
119	123	1
119	119	1
138	145	1
18	18	2
19	20	2
105	105	1
127	127	4
33	33	1
76	82	1
26	27	1
116	117	1
36	50	1
84	97	1
63	76	1
30	47	1
110	111	1
134	135	2
3	4	1
135	141	1
69	69	4
81	92	1
44	45	2
78	106	1
143	146	1
83	87	1
146	148	1
109	109	2
153	155	1
52	54	1
53	53	1
93	93	3
27	27	1
50	53	1
8	11	1
17	18	1
82	82	1
112	112	1
8	8	1
73	73	1
28	28	3
78	91	1
128	128	3
119	121	1
109	111	1
95	97	1
96	96	1
114	118	1
97	98	1
18	52	1
3	5	1
94	94	1
149	157	1
43	158	1
37	39	1
105	106	2
18	34	1
110	115	1
119	120	1
64	83	1
30	32	1
145	148	1
111	111	2
144	145	1
114	116	1
83	86	1
144	144	1
15	18	1
65	65	1
80	81	1
0	1	1
44	66	1
143	145	1
126	137	1
51	51	1
40	51	2
21	21	1
131	156	1
3	24	1
