156	156	2
65	65	4
55	55	4
88	88	1
137	137	4
174	174	2
167	168	1
130	131	1
66	67	3
150	150	1
41	41	4
90	90	3
150	154	2
147	151	1
38	38	2
151	151	1
90	91	1
21	22	1
107	107	1
35	35	5
131	131	2
71	139	1
142	143	1
95	95	2
161	170	1
10	10	1
95	96	1
5	138	1
43	43	5
120	120	2
117	117	2
78	78	4
44	44	1
40	40	6
92	92	5
117	118	1
104	104	2
11	11	1
178	179	1
56	56	1
179	179	1
76	76	2
39	39	3
99	127	1
126	175	2
171	172	2
5	5	5
28	29	2
2	2	2
119	129	1
124	124	2
152	153	1
162	162	2
65	70	1
17	17	4
154	155	1
132	132	4
177	177	2
19	19	1
169	169	2
134	134	1
45	45	6
54	54	3
59	60	1
178	178	1
59	90	1
168	168	2
126	126	3
68	68	2
124	156	1
152	152	1
154	154	2
20	20	1
163	163	8
101	101	2
3	75	1
172	173	1
0	0	2
51	86	2
20	21	2
15	15	1
84	87	1
79	79	3
6	6	3
31	35	1
123	139	2
113	113	2
81	82	2
82	82	1
109	109	1
3	3	1
49	49	1
37	37	2
127	127	1
17	40	2
120	121	1
149	149	2
42	42	3
12	12	1
135	135	1
73	133	1
142	169	2
23	24	1
63	63	1
60	60	2
41	42	2
62	133	1
117	143	1
129	130	1
33	67	1
166	167	1
130	130	1
25	25	1
72	72	1
52	126	1
121	148	1
140	141	1
159	159	1
4	4	3
132	133	1
7	21	1
167	167	2
138	138	1
170	171	1
92	96	1
176	176	3
179	180	1
97	100	1
111	111	1
8	42	2
77	77	2
15	26	1
146	147	1
93	94	1
118	119	1
155	157	2
118	118	2
5	21	1
116	116	1
102	102	1
31	31	2
107	169	2
148	148	1
127	131	1
40	45	1
93	93	1
18	19	1
157	157	1
159	163	1
140	140	3
39	40	1
68	86	1
61	88	3
157	171	2
85	85	1
28	28	1
42	43	1
129	129	1
60	61	1
144	144	2
106	106	2
147	147	3
165	166	1
105	122	1
91	91	2
96	96	2
32	33	2
42	83	1
128	128	1
173	173	1
16	86	1
168	169	2
150	168	1
52	110	1
153	153	1
126	159	1
130	169	1
146	146	1
40	42	1
119	120	1
94	94	1
160	164	1
99	100	1
24	24	1
52	52	1
84	85	1
77	138	2
122	158	1
123	124	1
117	124	1
143	153	1
31	32	1
11	30	1
35	36	1
8	13	1
56	66	1
133	133	1
96	115	1
144	145	1
14	14	2
23	26	1
75	75	1
59	59	2
112	112	1
61	61	1
30	31	1
145	145	1
13	13	1
59	63	1
173	178	1
121	121	1
125	125	1
29	147	1
132	134	2
87	107	2
148	155	1
8	9	1
139	158	1
123	143	1
4	39	1
34	34	1
143	143	1
102	111	1
136	136	1
155	155	1
57	57	1
70	71	1
102	108	1
32	38	1
26	26	1
71	72	1
92	93	1
59	61	1
170	170	1
3	16	1
