12	39	1
149	159	1
144	144	2
117	117	1
72	72	1
10	44	3
6	6	1
64	65	2
21	21	2
145	163	2
59	84	1
152	152	2
5	5	4
156	156	6
58	58	3
101	103	2
101	107	1
159	159	2
6	9	1
133	136	2
182	186	1
28	29	1
170	172	1
102	102	2
162	177	1
69	69	2
15	31	1
56	74	1
59	70	1
57	57	2
13	13	2
35	35	2
94	109	2
137	139	1
186	186	2
39	39	2
54	55	1
187	189	1
23	32	2
33	33	2
162	166	2
15	15	4
84	84	1
77	90	1
37	38	1
183	183	4
125	126	1
45	45	4
34	35	1
158	159	1
163	169	2
37	39	1
106	106	3
32	34	1
5	28	1
141	141	3
197	197	1
6	16	2
127	127	1
108	118	1
119	119	2
12	14	1
180	180	1
59	59	1
128	128	5
174	176	2
109	110	2
5	40	1
25	31	1
181	182	1
23	183	2
44	45	1
144	148	1
189	190	2
61	67	1
122	142	1
151	151	3
192	192	4
8	8	2
135	169	1
43	43	2
23	31	2
80	83	2
74	104	2
135	135	6
52	53	1
2	2	1
189	189	1
13	14	2
166	170	1
39	40	1
94	105	1
173	173	2
44	44	7
32	32	1
23	27	3
46	46	3
12	12	1
34	36	3
121	125	1
194	194	2
16	30	1
24	30	1
123	123	4
166	167	2
100	100	1
25	29	2
35	36	1
160	160	2
82	84	1
33	45	1
87	87	2
155	155	1
168	168	1
147	164	1
44	49	1
181	181	1
4	9	1
154	159	1
194	196	1
36	36	3
101	127	1
115	121	1
169	169	1
105	105	3
37	46	1
85	85	1
174	175	2
7	7	2
12	20	1
16	17	1
181	192	1
21	28	2
148	158	1
177	178	1
94	94	1
194	195	1
170	170	2
98	130	1
42	42	1
172	173	1
5	15	1
120	120	3
37	44	1
3	7	1
137	137	3
38	38	2
153	153	1
0	4	1
25	25	2
119	122	1
66	82	1
173	174	1
55	56	1
157	178	1
165	165	1
53	63	1
67	68	2
37	37	2
133	133	3
127	128	1
83	140	1
168	169	1
7	181	1
31	43	1
186	188	1
161	161	2
192	193	1
178	180	1
100	102	1
48	48	1
143	144	1
186	190	2
159	182	1
1	27	1
52	52	1
0	2	2
121	122	1
155	156	1
158	169	1
167	167	1
100	113	1
134	136	1
123	124	2
195	195	1
16	16	1
159	177	2
20	20	1
139	139	1
116	116	1
12	13	2
1	1	1
126	127	1
31	31	1
112	112	1
177	177	1
64	64	1
17	28	1
23	34	1
155	185	1
27	31	1
42	53	1
47	47	1
4	4	2
5	10	1
130	130	1
118	123	1
50	50	2
63	63	2
29	29	1
21	62	1
23	23	2
109	109	1
120	121	1
9	14	1
162	163	1
82	86	1
10	11	1
136	136	1
184	187	1
6	20	1
82	83	1
48	49	1
26	26	1
8	38	1
22	22	1
26	27	1
129	129	2
138	138	3
162	164	2
25	26	1
78	80	1
164	164	1
157	176	1
111	113	1
108	108	1
24	24	1
150	150	1
146	153	1
145	145	1
156	158	1
13	59	1
48	50	1
88	89	1
60	60	1
161	175	1
10	10	1
74	75	1
176	180	1
175	175	1
176	179	1
29	32	1
118	118	1
78	82	1
15	33	1
103	106	1
11	11	1
36	37	1
2	3	1
151	176	1
138	139	1
14	16	1
166	188	1
193	193	1
24	44	1
50	51	1
152	153	1
11	22	1
147	149	1
190	190	1
34	34	2
149	174	1
5	11	1
73	73	1
179	180	1
95	110	1
97	100	1
30	30	1
2	4	1
98	100	1
36	46	1
187	187	1
154	154	1
187	192	1
32	47	1
63	65	1
166	166	1
182	182	1
147	161	1
40	40	1
