79	80	7
11	11	7
83	83	9
30	30	10
27	27	10
86	87	2
59	60	3
67	67	11
23	23	12
13	13	7
29	29	3
49	49	13
15	15	14
73	74	1
84	84	21
23	24	5
47	53	1
85	85	14
84	85	3
7	7	7
10	10	12
28	28	6
59	59	5
65	66	3
1	1	12
69	69	7
54	54	8
78	78	7
80	80	10
8	8	9
73	73	7
50	50	10
74	74	7
66	66	6
62	62	4
76	77	3
79	79	25
51	64	1
17	17	11
89	89	10
66	67	3
14	14	3
75	75	3
1	4	1
6	6	6
78	81	2
22	24	1
77	77	8
86	86	3
5	5	8
2	2	7
68	75	1
59	61	2
22	22	7
80	85	1
87	88	2
68	68	9
21	21	6
58	77	1
26	26	8
76	76	4
71	71	3
53	53	4
15	16	2
48	58	1
20	20	9
63	67	2
81	81	13
7	8	7
77	83	1
82	82	8
67	68	2
3	3	8
78	80	2
61	61	5
19	19	6
47	47	10
78	83	2
57	57	7
70	71	2
6	17	1
65	65	5
25	25	12
0	0	9
56	56	7
72	74	2
51	75	2
24	24	14
31	31	3
55	55	7
13	14	1
70	70	7
57	77	1
52	52	10
78	79	3
35	35	2
6	55	1
15	21	1
60	60	5
29	30	2
32	60	1
52	82	3
21	22	4
88	88	4
55	84	1
85	86	2
17	26	2
59	62	1
49	50	5
48	57	1
82	83	3
58	58	3
63	63	1
18	22	1
27	28	3
72	72	6
57	85	1
1	11	1
5	7	1
69	70	2
69	87	1
87	87	8
83	84	3
68	69	2
26	27	1
6	24	1
46	46	1
24	25	2
9	9	5
4	4	6
64	64	1
47	49	1
58	59	2
51	53	1
3	4	2
33	34	1
71	72	2
63	64	1
61	62	1
88	89	1
23	25	2
13	26	1
90	90	4
10	11	2
6	20	1
34	34	2
32	32	1
58	60	1
49	65	1
72	73	2
51	82	1
52	83	2
56	57	4
65	73	1
81	84	3
51	52	1
16	16	1
2	8	1
48	48	2
71	73	2
51	51	1
12	12	2
54	66	2
6	9	2
56	74	1
8	9	2
20	22	1
30	58	1
51	77	1
6	27	1
47	48	1
74	75	1
48	49	1
17	18	1
55	56	1
62	65	1
33	51	1
19	86	1
28	29	2
50	53	1
28	30	1
13	16	1
55	78	1
25	48	1
57	67	1
2	3	1
11	16	1
64	66	1
72	77	1
75	81	1
4	67	1
0	1	1
48	66	1
53	55	1
80	81	1
30	31	1
73	76	1
24	27	1
