56	56	1
31	31	4
31	124	1
117	117	9
94	94	7
90	91	1
71	71	4
23	23	7
133	133	4
93	95	1
17	18	2
36	36	5
12	12	5
95	95	2
13	13	3
119	119	8
78	78	3
77	78	2
5	32	1
62	62	3
108	108	4
2	2	4
68	68	8
134	134	8
40	40	2
18	18	3
86	86	7
34	34	3
94	95	5
76	77	3
109	109	8
3	3	4
1	1	2
38	38	2
31	43	3
28	30	1
17	19	1
7	7	6
113	113	3
98	98	4
101	101	2
86	94	1
43	44	3
42	42	3
62	63	1
110	110	6
118	118	4
56	60	1
47	47	6
93	93	2
116	116	6
111	111	4
96	96	8
32	38	1
20	20	1
91	91	1
99	99	3
35	36	4
133	134	3
125	125	8
41	42	2
48	50	1
5	5	5
75	75	4
34	35	2
27	29	1
81	81	2
4	4	5
49	50	1
115	115	3
94	110	2
85	98	2
127	127	3
8	8	5
33	45	1
88	89	2
5	116	2
26	26	1
114	114	6
100	109	2
76	76	3
17	74	1
126	126	7
10	10	2
12	13	1
121	121	4
95	96	1
27	27	3
44	46	3
123	124	3
35	47	1
15	15	6
11	11	6
76	86	2
23	30	1
9	9	2
120	120	5
122	122	6
70	70	7
14	14	2
81	85	1
106	106	5
6	6	3
28	28	5
88	88	3
82	83	1
27	28	1
30	30	2
29	31	1
65	67	1
131	132	1
100	102	1
81	82	4
21	21	3
59	59	4
129	129	3
79	97	1
97	97	2
131	134	1
124	124	5
72	72	3
29	30	1
92	92	2
72	118	1
33	34	2
55	56	2
17	17	7
17	108	1
43	59	1
46	46	2
0	0	2
91	122	2
113	116	1
45	45	2
72	73	1
29	29	1
35	39	1
75	85	1
130	130	4
90	90	4
132	132	5
102	102	3
73	73	3
87	87	4
85	86	2
97	98	3
85	88	1
108	109	1
50	50	2
27	56	1
45	46	2
64	64	4
33	33	4
124	126	1
103	103	5
5	8	1
9	10	2
63	63	2
96	129	1
6	22	2
26	42	1
108	110	1
100	100	5
61	61	3
37	37	3
13	14	3
107	107	1
24	24	2
84	84	1
80	81	2
127	132	1
105	106	1
19	19	5
23	28	2
63	77	1
16	16	4
79	81	1
111	113	1
67	67	4
51	60	1
1	2	3
35	35	1
17	31	1
4	5	1
111	112	4
114	115	1
103	106	1
79	83	1
93	94	3
60	95	1
23	36	1
122	123	3
48	48	1
124	129	1
44	48	1
27	32	1
121	122	1
1	69	1
69	70	1
26	27	2
112	112	6
102	111	1
10	11	1
4	6	1
60	93	1
79	79	4
83	85	1
123	123	3
3	95	1
109	121	1
125	130	2
111	117	1
65	66	1
30	31	2
126	128	2
88	99	1
22	22	3
123	127	1
39	55	1
57	57	1
12	16	1
88	96	1
15	45	1
103	105	1
32	32	2
47	57	1
40	51	1
4	30	1
94	123	1
43	50	1
15	20	1
113	114	1
120	124	3
132	133	2
105	105	1
124	134	1
49	49	2
82	87	1
39	39	2
115	116	2
74	74	2
59	60	1
86	87	1
130	131	1
83	83	1
44	44	2
32	110	1
94	108	1
78	102	1
34	93	1
85	92	1
35	96	1
121	132	1
59	68	2
78	81	2
20	43	1
26	29	1
128	128	2
15	17	1
74	75	1
37	38	1
7	132	1
87	88	1
100	101	1
16	18	1
77	77	2
7	26	2
128	129	1
17	34	1
58	58	1
68	69	1
83	86	1
119	120	1
20	21	2
36	37	1
43	43	1
82	82	2
7	34	1
72	117	1
91	92	2
32	33	1
112	117	1
33	69	1
25	55	1
131	131	1
25	25	1
1	111	1
98	100	2
108	133	1
90	128	1
75	77	1
8	32	1
125	126	1
25	26	1
41	41	1
54	54	1
75	76	1
24	25	1
69	69	1
81	84	1
96	97	1
92	97	1
6	11	1
104	105	1
81	91	1
6	20	1
66	66	1
