25	45	1
89	90	1
51	51	1
21	23	2
162	165	1
15	16	3
3	3	6
168	168	2
84	85	1
132	132	3
15	15	3
131	131	4
159	159	2
27	27	2
25	110	1
143	143	5
139	139	4
158	165	1
43	43	4
121	121	1
163	163	6
12	25	1
76	76	2
42	90	1
107	148	2
72	72	3
99	99	5
161	161	3
132	155	2
107	130	1
20	21	1
167	167	2
153	153	4
68	71	1
39	39	2
90	99	1
90	109	1
16	16	1
71	71	3
13	13	4
107	107	3
162	163	2
138	138	5
43	84	1
90	90	2
137	141	1
42	168	2
37	37	2
40	40	5
14	14	2
55	56	1
165	166	1
17	17	4
47	47	2
108	110	1
19	19	2
21	24	2
74	74	4
147	149	1
108	108	4
3	4	1
13	14	2
169	169	1
41	42	1
93	95	2
117	117	3
116	117	1
158	158	3
140	146	1
45	45	2
5	5	2
147	157	1
120	120	3
46	46	2
112	114	1
131	132	1
86	86	1
157	158	2
6	6	4
84	84	2
102	104	1
22	22	4
21	21	1
123	124	1
150	150	2
8	10	2
109	129	1
110	119	1
35	36	2
14	15	1
36	36	5
109	110	1
9	9	2
135	135	2
38	41	1
25	25	2
136	137	1
112	117	2
113	113	3
167	168	1
149	149	4
122	152	1
109	109	3
11	11	4
35	35	3
117	136	1
156	156	3
118	118	3
164	166	1
67	67	1
36	41	1
141	142	1
118	119	1
28	39	2
53	53	2
170	170	2
111	111	1
101	101	2
162	162	1
134	155	1
40	47	1
48	48	2
115	141	2
160	160	2
56	64	1
58	58	1
110	110	6
122	122	2
83	83	2
34	35	1
151	151	3
7	7	1
147	148	1
72	103	2
1	1	2
133	134	1
148	148	2
18	20	1
7	25	1
114	128	1
139	170	1
41	41	6
145	145	1
165	165	3
136	136	1
39	40	1
69	70	1
122	124	1
155	155	2
34	34	4
27	28	2
6	10	1
113	114	1
93	94	1
40	41	1
117	118	3
130	130	2
43	44	1
11	12	1
73	111	1
127	128	1
49	52	2
101	103	1
57	71	1
13	26	1
143	148	1
57	57	1
152	152	1
72	80	1
10	10	1
55	55	1
70	70	1
147	147	2
155	160	1
123	123	1
75	75	1
24	50	1
101	105	1
142	142	1
85	86	1
50	50	1
45	80	1
139	161	1
100	100	1
105	105	3
111	112	1
49	49	2
88	88	1
68	68	2
102	102	1
8	8	1
18	19	1
13	170	1
151	154	1
129	129	1
20	25	2
78	101	1
95	96	1
127	129	1
56	56	1
156	159	1
111	116	1
17	18	1
53	70	1
143	144	1
22	23	1
0	0	1
28	28	1
