72	73	3
69	70	3
61	64	1
146	146	2
104	105	3
183	184	3
191	195	1
132	179	1
40	40	5
139	139	2
133	162	1
45	55	1
57	58	1
10	234	1
139	145	1
11	55	1
88	88	1
167	168	4
26	26	9
4	4	1
39	39	2
138	138	2
63	63	2
208	210	1
61	70	2
174	174	5
170	171	1
84	84	2
231	231	3
78	78	2
204	204	2
143	143	2
127	127	3
165	167	2
8	8	2
140	187	1
62	73	1
20	20	1
222	226	1
184	216	2
74	74	2
113	113	3
101	101	2
158	158	2
168	169	1
182	193	1
7	7	2
213	231	1
154	154	3
153	168	1
32	32	5
221	221	1
61	139	1
58	58	4
173	173	5
176	176	3
165	165	3
191	191	1
173	182	1
30	171	1
24	64	1
234	234	3
72	72	5
63	64	1
84	85	2
149	149	6
216	216	5
40	42	1
174	175	1
145	145	2
9	9	4
185	186	1
218	218	3
160	160	2
148	162	1
25	25	1
28	85	1
133	133	3
144	145	2
203	204	2
230	231	2
113	160	1
195	195	2
57	57	3
97	97	2
78	79	2
4	17	1
157	157	3
187	187	4
119	119	3
64	64	1
99	99	2
182	182	4
139	141	1
39	59	1
18	20	1
154	155	3
184	184	4
121	122	1
179	179	4
151	151	1
172	172	3
70	70	4
163	185	1
160	165	2
89	89	1
80	85	1
104	104	3
214	215	1
100	100	4
240	240	3
198	198	3
187	198	1
123	164	2
73	73	7
233	235	1
5	5	2
66	68	1
75	82	1
185	187	1
12	32	1
135	135	3
177	178	2
17	54	1
51	53	1
35	35	1
77	157	1
21	21	2
12	12	2
175	176	1
108	139	1
151	162	1
241	241	1
50	50	1
39	42	1
199	199	1
65	65	4
169	169	5
69	69	2
149	166	2
11	11	3
52	53	1
122	122	4
202	202	1
112	130	1
126	126	2
3	4	1
225	225	2
152	152	2
185	185	2
180	181	2
136	175	2
6	6	2
30	30	2
48	55	1
125	125	1
107	107	2
60	61	1
0	119	1
82	83	1
131	135	1
18	42	1
68	68	4
28	29	2
105	105	2
200	201	1
237	237	4
150	151	1
83	84	1
15	15	2
181	184	1
0	0	2
174	237	1
136	139	1
163	164	1
238	241	1
229	229	1
239	239	1
181	181	2
168	168	4
74	85	2
128	128	3
242	242	2
34	34	4
206	240	1
33	33	4
163	163	2
148	151	1
36	36	2
71	71	2
178	178	1
149	150	2
14	14	2
167	169	4
155	155	1
234	235	1
231	233	1
113	120	1
122	149	1
138	144	1
218	236	1
164	183	1
54	54	1
71	72	3
154	167	2
76	76	1
3	126	2
46	46	4
28	28	3
134	135	1
111	111	1
104	116	1
16	17	1
16	16	1
23	23	4
17	17	2
193	195	1
228	228	4
60	60	3
191	237	2
75	79	1
20	39	1
108	125	1
137	138	1
153	155	1
158	159	1
80	80	1
75	80	1
134	134	1
156	157	2
180	183	1
55	55	1
166	168	1
77	81	1
27	27	4
45	46	1
2	2	1
230	230	1
101	102	2
143	148	1
77	77	2
191	209	1
136	136	3
188	188	1
201	201	1
203	203	1
96	96	4
12	16	1
217	217	2
109	135	1
218	233	1
125	152	1
46	131	1
235	237	1
13	15	1
220	221	1
175	175	1
16	20	1
226	226	3
219	219	2
149	161	1
182	187	1
220	220	2
171	178	1
67	67	2
52	52	1
114	152	1
151	163	1
37	37	1
3	3	1
177	177	3
197	197	1
117	117	2
18	23	1
12	21	2
18	161	1
217	227	1
137	143	1
118	118	3
3	32	1
209	210	1
5	6	1
222	225	1
127	201	1
20	160	1
226	227	2
189	189	1
137	160	1
10	10	1
108	204	1
121	121	2
120	144	1
133	138	1
168	183	1
147	147	2
170	170	1
62	62	5
38	39	3
66	66	2
166	166	1
13	55	1
118	121	1
123	163	1
180	180	4
161	161	1
38	38	2
61	62	1
179	227	1
171	171	3
61	61	2
203	218	1
3	21	3
183	226	1
102	129	1
26	28	3
167	167	1
80	81	1
235	235	1
113	114	3
44	44	2
74	86	1
12	24	1
110	110	2
22	22	1
37	47	1
111	112	2
2	3	1
102	102	3
17	18	1
150	150	1
132	132	1
108	108	3
196	196	1
25	46	1
208	209	1
166	169	1
11	64	1
209	209	1
152	153	1
176	177	1
202	239	1
103	104	1
232	232	1
114	114	2
42	42	2
183	183	3
137	144	1
156	205	1
88	128	1
19	38	1
130	130	1
126	127	2
48	48	1
41	48	1
15	28	1
15	20	1
0	15	1
104	138	1
48	179	2
218	231	1
221	222	1
4	5	1
163	165	1
45	62	1
135	157	1
27	68	1
109	109	1
71	73	1
22	23	2
125	156	1
45	45	2
186	186	1
43	43	1
174	176	1
115	115	2
241	242	1
102	103	2
36	37	1
224	225	1
6	7	1
134	146	1
23	24	1
167	188	1
45	47	1
156	156	1
164	164	1
103	136	1
51	51	2
39	40	1
211	229	1
160	162	1
38	42	1
147	150	1
197	198	1
144	183	1
30	224	1
236	238	1
10	128	1
129	134	1
210	210	1
76	77	2
142	149	1
120	121	1
227	228	1
129	129	2
55	59	2
44	45	2
158	162	1
58	61	1
138	167	1
29	158	1
54	56	1
40	73	1
160	169	1
19	40	1
133	135	1
143	144	1
159	159	1
220	228	1
205	205	2
53	53	2
28	86	1
120	120	1
236	239	1
31	31	1
16	74	2
146	147	1
85	85	2
9	20	1
133	149	1
211	228	1
164	165	1
131	131	1
160	176	1
19	19	1
47	47	1
79	79	1
132	134	1
153	153	1
119	140	1
211	211	1
158	177	1
200	200	1
49	146	1
110	122	1
190	191	1
56	57	1
109	110	1
119	120	1
178	179	1
189	209	1
124	124	1
9	47	1
74	113	1
174	199	1
123	125	1
