17	25	1
94	97	1
21	21	3
113	113	2
46	47	2
64	64	2
129	129	3
24	24	2
69	69	3
7	7	2
126	126	3
73	73	12
72	72	5
26	26	1
7	31	1
81	81	1
102	102	2
52	52	2
24	25	1
54	55	1
82	82	1
12	32	2
49	50	1
49	49	4
130	130	1
97	97	3
27	28	3
60	60	2
12	12	2
81	82	2
95	95	2
86	86	1
52	53	1
84	131	1
43	43	4
59	63	1
67	67	2
77	80	2
60	61	3
105	105	2
43	45	1
37	37	3
112	113	2
13	16	2
104	104	3
114	114	2
35	95	1
98	102	1
84	84	7
61	62	1
45	47	2
108	110	1
74	91	1
83	84	3
89	89	2
78	78	3
56	56	2
23	23	1
117	117	4
126	130	1
2	2	2
25	26	2
38	38	1
99	99	2
100	100	1
112	112	1
55	56	1
34	34	3
115	116	2
48	48	3
131	132	2
77	77	4
0	0	2
121	122	1
4	79	1
68	68	1
4	5	1
26	133	1
44	44	2
111	113	1
28	28	2
122	122	2
27	27	2
128	128	1
119	119	3
7	76	1
115	115	2
21	22	2
54	54	2
115	131	1
45	45	1
57	57	1
80	80	3
119	120	1
53	55	1
50	50	1
64	65	2
98	98	2
124	132	1
33	50	1
59	59	1
83	111	2
5	30	1
5	5	1
16	17	1
62	62	3
90	91	3
126	127	1
1	1	2
72	73	1
77	78	1
110	110	1
70	79	2
4	4	2
105	115	1
111	111	1
61	61	2
124	124	3
127	128	1
7	8	1
25	25	2
7	16	3
29	29	2
56	58	1
1	8	1
120	120	1
106	106	1
131	131	1
87	88	1
38	73	1
53	53	2
56	62	1
8	8	1
75	75	3
31	31	1
26	129	1
71	72	1
33	33	1
3	3	2
89	90	1
79	79	2
17	105	1
58	67	1
85	85	3
62	67	1
134	134	1
6	6	1
47	86	1
121	121	2
31	56	1
108	108	1
0	102	1
35	135	1
91	92	1
31	33	1
19	19	1
56	67	1
3	30	1
66	66	1
55	55	1
14	14	1
13	13	1
35	61	1
36	36	1
93	93	1
52	63	1
20	20	1
123	133	1
107	108	1
35	35	2
22	22	1
15	22	1
75	76	1
13	14	1
107	115	1
92	117	1
74	74	1
103	103	1
7	34	1
56	60	2
26	27	1
65	65	1
18	21	1
56	64	1
74	105	1
109	110	1
119	122	1
59	60	1
66	67	1
71	71	1
90	90	1
