9	119	1
124	124	2
21	22	3
91	91	2
95	95	4
45	46	3
72	72	5
70	71	1
125	126	2
59	59	1
112	112	7
86	86	3
97	97	2
32	32	4
113	113	5
119	119	6
2	130	1
69	70	1
26	100	1
73	73	7
117	117	13
13	29	1
12	111	1
34	115	1
126	134	1
66	67	2
1	2	1
125	125	4
89	91	1
8	8	10
61	76	1
44	44	7
75	75	2
46	47	1
89	115	1
132	132	4
65	65	6
93	99	1
20	21	2
86	134	1
74	75	2
38	58	1
57	58	1
94	119	1
118	118	5
18	46	1
134	134	3
113	116	1
71	72	1
120	123	3
14	14	2
98	98	1
23	23	1
115	115	1
31	31	5
81	81	2
79	80	3
67	67	6
78	78	2
84	84	2
10	10	3
77	77	6
36	37	1
24	25	2
73	74	1
103	103	2
108	108	1
72	113	1
69	69	11
105	106	1
20	20	3
28	30	1
4	4	2
56	56	5
60	60	8
85	86	3
82	84	1
1	70	1
17	17	2
126	126	2
27	29	1
1	44	1
18	19	3
70	70	4
104	114	1
64	64	10
55	80	2
75	82	1
47	47	9
133	133	2
15	114	1
10	14	2
43	44	1
15	15	3
83	85	1
99	123	1
96	96	3
34	34	3
73	75	1
83	115	1
63	63	10
38	38	2
33	33	1
71	71	2
110	110	1
62	62	4
85	121	1
97	100	1
12	13	2
42	78	1
64	66	1
129	129	2
113	124	1
19	28	1
2	2	4
60	61	1
21	27	1
85	85	4
92	92	3
86	121	1
7	7	2
127	127	3
58	58	3
23	26	1
72	74	2
107	107	3
46	69	1
103	105	1
95	127	2
109	109	3
116	116	2
28	28	2
67	68	1
120	122	1
99	99	1
12	12	5
66	66	6
25	79	1
16	116	1
18	74	1
90	91	2
18	27	1
61	61	7
57	57	3
54	55	3
101	101	1
64	65	4
17	19	1
9	9	3
120	120	3
44	45	1
16	16	1
27	27	1
36	36	3
4	5	2
111	111	7
83	84	1
41	41	3
55	55	3
45	45	5
86	111	1
88	91	1
63	64	2
72	73	3
86	116	1
20	43	1
67	125	1
77	78	1
121	123	1
37	37	3
94	95	1
30	31	2
79	109	1
39	39	3
43	43	2
123	123	3
84	85	2
108	110	1
6	6	2
35	35	2
102	102	2
122	122	2
46	46	4
62	86	2
65	66	1
40	40	1
128	128	4
95	97	2
5	5	2
10	11	1
93	93	2
58	59	1
68	68	7
101	115	1
3	3	4
110	112	1
130	132	1
47	93	1
37	39	1
130	133	1
83	89	2
2	15	1
60	126	1
85	89	1
35	36	1
0	0	1
96	97	1
105	105	1
62	63	1
43	45	1
18	18	4
99	128	1
56	57	1
11	11	2
121	122	2
97	99	2
41	42	1
116	126	1
103	127	2
57	66	2
114	115	1
114	114	5
87	87	1
6	36	1
110	124	1
130	130	1
101	103	2
5	6	2
76	76	1
79	79	1
128	132	1
1	1	2
110	111	1
80	80	1
104	104	2
16	17	1
102	108	1
29	30	2
126	130	1
12	96	2
18	34	1
62	75	1
13	33	1
123	124	3
55	81	1
54	88	1
114	117	1
64	67	1
94	94	1
78	80	1
96	100	1
21	21	2
29	29	5
43	46	1
103	104	1
95	101	2
19	19	3
91	92	1
132	133	1
32	126	1
0	11	1
30	44	1
78	82	1
105	128	1
74	74	1
100	100	1
9	13	1
36	40	1
82	85	1
100	123	1
67	73	1
12	62	2
8	9	1
121	121	1
131	133	1
131	132	1
57	114	1
130	134	1
55	60	1
100	121	1
26	27	1
2	43	1
34	35	1
32	78	1
68	69	1
27	32	1
1	35	1
4	13	1
20	132	1
111	112	1
122	128	1
114	126	1
83	83	1
78	79	1
82	82	1
113	114	1
75	125	1
98	110	1
20	22	1
127	128	1
24	24	1
85	87	1
66	71	1
15	16	1
32	34	1
29	31	1
36	39	1
