139	139	2
38	38	4
26	26	2
13	14	1
35	37	1
84	84	1
104	113	1
128	128	2
118	118	1
9	50	1
130	160	1
47	47	5
97	97	2
80	80	2
90	90	2
58	58	2
64	64	1
94	114	2
71	73	1
150	150	1
144	144	3
11	11	3
49	49	3
14	15	1
11	12	2
3	160	2
14	14	3
155	155	1
145	146	1
159	159	2
39	39	6
104	104	4
48	48	1
23	23	2
76	76	1
50	50	5
124	126	1
1	2	1
142	142	3
10	10	3
110	110	2
163	163	2
9	9	2
77	78	1
152	152	5
87	87	2
42	42	2
149	149	1
18	25	1
1	1	2
0	0	5
105	105	4
119	119	1
156	156	5
3	3	2
126	126	2
170	170	2
109	109	2
120	120	1
8	8	3
158	158	2
146	146	5
34	34	3
12	12	2
123	124	1
112	114	1
70	70	1
95	95	3
53	53	1
45	45	5
42	50	1
91	91	1
132	133	3
168	168	2
75	103	1
66	67	2
68	111	1
135	135	4
55	55	1
91	94	2
100	100	3
124	124	1
22	22	4
138	139	1
70	71	1
69	69	2
40	41	2
78	78	1
158	159	1
44	44	3
73	73	2
6	6	2
129	129	1
164	164	1
47	64	1
7	8	1
68	68	4
113	114	1
132	156	1
145	145	5
37	37	4
75	98	1
71	71	3
151	151	1
25	25	2
4	4	3
112	113	1
89	90	1
96	98	1
36	36	3
126	141	1
65	65	2
83	89	1
43	43	2
66	66	1
157	158	3
46	46	1
135	151	1
154	154	1
138	140	1
164	165	1
13	41	1
15	15	1
21	22	2
49	125	1
74	74	1
76	78	1
63	64	1
93	102	1
43	44	1
56	56	2
145	156	1
107	107	1
127	145	1
100	105	1
162	163	1
114	118	1
51	51	2
11	13	1
141	141	1
116	124	1
162	162	5
91	92	1
12	13	2
111	111	2
167	168	1
114	114	2
51	55	2
116	122	1
117	123	1
6	8	1
5	5	1
23	72	1
134	134	1
7	7	2
135	136	1
63	66	1
155	156	2
47	49	1
24	39	1
166	167	1
24	25	2
91	101	2
14	16	1
92	92	2
139	143	2
103	104	1
24	24	1
41	41	4
124	127	1
169	169	1
150	151	1
91	125	1
40	40	2
49	127	2
163	166	1
90	91	1
153	153	1
52	52	1
75	75	1
64	66	1
169	170	1
42	43	1
18	19	1
88	121	1
21	21	1
17	17	2
103	103	3
3	11	1
124	160	1
13	13	1
151	170	1
153	166	1
2	84	1
78	82	1
82	107	1
155	157	1
2	2	1
8	168	1
160	161	1
81	81	1
93	93	1
113	144	1
163	164	1
4	26	1
131	155	1
154	155	1
160	160	1
55	56	1
88	88	1
149	155	1
22	23	1
138	138	1
33	34	1
106	106	2
129	152	1
46	125	1
76	91	1
139	167	1
58	75	1
159	161	1
162	164	1
122	122	1
148	148	1
112	112	1
147	147	1
85	85	1
64	74	1
101	112	1
47	50	1
117	117	1
20	50	1
67	68	1
99	100	1
142	143	1
