69	75	1
132	132	2
143	143	1
8	15	1
135	135	5
53	55	1
87	88	1
131	140	1
26	27	3
79	80	2
141	149	1
24	34	1
116	116	1
101	111	1
100	100	5
86	88	1
127	127	7
73	73	2
117	117	2
96	97	1
151	151	4
36	47	1
111	112	4
111	113	2
48	48	4
155	158	1
71	71	1
123	123	1
3	4	1
31	39	2
127	149	1
43	44	1
81	86	2
61	62	2
11	12	1
41	41	5
136	136	6
65	65	2
137	139	2
77	93	2
139	158	2
56	56	2
95	96	2
159	159	1
99	99	2
77	78	1
85	85	3
75	75	2
75	88	2
32	34	1
0	13	1
118	133	1
104	105	3
66	82	1
28	30	3
114	114	4
80	81	1
5	5	1
37	47	1
24	24	1
106	141	1
103	112	1
128	135	1
32	32	1
37	50	3
70	70	4
131	131	5
153	153	1
30	36	1
113	134	1
128	130	1
10	10	2
139	139	1
30	42	1
158	158	4
3	14	1
152	152	2
41	49	1
110	112	1
124	142	2
124	133	2
19	21	1
128	139	1
73	102	1
130	135	1
63	63	3
152	153	1
122	122	1
138	139	2
98	99	1
69	84	3
122	138	1
70	71	1
13	17	2
148	150	3
94	94	3
73	79	2
1	11	1
67	96	1
124	150	1
131	135	1
82	95	1
89	106	2
105	106	1
147	154	1
49	90	1
35	35	1
82	82	1
64	64	3
21	31	2
87	89	2
124	126	1
120	120	2
44	44	1
47	48	1
152	155	1
151	152	1
30	32	1
128	137	1
147	156	1
21	32	1
23	23	1
144	156	1
145	145	2
155	155	1
51	54	2
124	124	1
43	57	1
15	15	1
113	113	2
126	140	1
35	48	1
145	148	1
51	52	2
18	51	2
137	143	1
7	19	1
121	134	1
1	1	1
19	30	1
106	106	2
52	79	1
145	146	1
93	121	2
119	121	1
22	25	1
76	86	1
78	83	1
82	96	1
38	47	1
136	153	1
148	148	2
99	109	2
34	34	7
29	46	1
29	29	1
0	4	2
133	133	4
16	17	2
126	126	1
30	30	2
33	66	1
126	139	1
147	147	2
115	115	3
76	77	2
90	93	1
11	11	2
24	31	1
105	120	1
111	123	1
21	21	1
111	111	1
67	67	4
80	141	2
34	36	1
18	52	1
146	147	1
108	117	1
39	49	2
105	105	2
14	30	1
82	92	1
98	98	3
62	62	2
124	125	1
40	41	1
69	73	1
115	122	1
43	43	5
0	3	1
38	38	2
111	118	2
80	86	1
71	77	1
138	138	4
86	86	1
157	157	1
35	37	1
95	112	1
122	123	1
100	103	1
130	138	1
19	19	3
150	151	2
66	88	2
53	53	1
85	92	1
2	19	1
36	38	1
14	14	3
25	27	1
53	54	1
140	140	2
45	47	1
109	123	1
10	28	1
13	13	1
106	110	1
70	97	1
112	112	1
90	90	1
38	39	2
5	12	2
37	37	1
109	124	1
140	141	1
70	86	1
71	80	1
116	117	3
106	111	2
37	53	1
2	15	1
115	119	1
21	22	1
26	44	1
154	155	1
87	112	1
111	114	2
78	108	1
153	155	1
71	96	1
108	108	2
75	85	2
40	53	1
34	39	1
148	149	2
113	115	1
44	45	3
78	92	1
140	158	1
48	56	1
41	43	1
54	56	1
95	95	1
154	154	3
127	130	1
142	142	2
101	101	1
117	131	1
26	26	1
94	96	1
80	80	1
28	29	1
82	83	1
47	47	1
51	51	1
69	85	1
94	98	1
100	101	1
96	96	1
6	6	2
87	97	1
141	141	1
110	111	1
112	135	1
103	103	1
146	146	1
6	65	1
66	70	1
68	68	1
91	91	1
83	92	1
23	35	1
112	129	1
83	91	1
142	143	1
37	46	1
131	148	1
3	11	1
33	33	2
9	9	2
97	118	1
54	54	2
44	46	1
110	110	1
67	71	1
20	21	1
28	28	1
16	18	1
49	56	1
52	52	1
89	90	1
132	136	1
36	46	1
15	41	3
86	92	1
100	107	1
151	155	1
148	151	1
84	84	1
37	45	1
90	95	1
134	134	2
19	20	1
134	150	1
118	136	1
2	2	2
46	46	1
49	49	1
119	136	1
65	70	1
146	149	1
72	72	1
63	64	1
23	49	1
118	143	1
114	118	1
95	102	1
134	148	1
109	109	1
121	125	1
150	154	1
120	125	1
31	31	1
69	81	1
1	18	1
78	89	1
43	55	1
16	16	1
104	104	1
121	122	1
111	129	1
93	94	1
44	55	1
129	129	1
115	125	1
144	145	1
35	36	1
77	77	1
12	16	1
93	93	1
