71	71	1
105	105	1
75	75	10
31	51	1
38	38	2
34	34	8
61	63	2
65	72	1
62	62	4
73	73	7
37	37	7
20	20	3
89	89	4
52	52	8
43	43	1
97	103	2
57	70	1
51	58	2
43	44	4
81	90	1
61	61	3
83	84	1
26	34	1
83	87	1
82	85	1
64	64	1
50	50	4
65	65	2
80	80	6
60	60	2
65	101	2
73	77	1
23	23	9
100	100	4
97	98	3
84	88	1
66	66	3
21	21	5
53	53	4
50	100	1
98	98	3
56	58	1
63	64	1
28	28	1
45	45	4
38	39	2
48	48	2
93	94	2
74	74	4
77	77	6
35	36	1
90	90	1
96	96	2
86	86	2
58	58	3
74	103	1
29	29	2
59	59	4
50	51	3
72	72	3
36	92	1
56	56	5
70	71	1
103	103	8
41	41	5
82	83	1
60	79	1
52	54	2
75	76	1
31	31	5
24	25	1
68	68	2
39	39	2
68	76	1
23	35	1
54	61	1
31	32	1
77	78	2
82	82	1
83	83	2
40	40	4
54	54	3
99	99	2
25	26	2
58	81	2
41	44	1
67	67	3
78	78	4
94	94	3
24	24	5
41	42	2
102	102	4
101	101	3
70	70	3
63	63	1
92	92	5
32	53	1
81	81	4
78	79	1
46	46	2
102	103	2
59	63	1
57	57	2
39	60	1
69	69	6
25	25	3
64	72	1
42	42	2
43	79	1
27	27	3
72	73	1
29	30	1
100	102	1
78	90	1
63	67	2
104	104	1
55	55	5
25	54	1
54	107	1
66	78	1
58	79	1
41	45	1
22	22	1
102	104	2
81	104	1
51	52	1
47	47	2
62	64	1
24	45	1
26	27	1
32	96	1
84	85	1
76	77	2
64	91	1
92	93	1
23	50	2
103	104	1
35	35	1
95	95	2
51	51	1
65	92	1
93	93	2
49	49	3
83	86	1
68	105	2
37	82	1
23	105	1
60	62	1
48	49	1
33	33	2
79	79	2
33	50	1
32	40	1
25	51	1
56	57	2
33	34	1
60	90	1
84	86	1
87	88	1
34	36	1
56	75	2
66	67	3
36	36	1
51	61	1
65	88	1
98	99	1
55	68	1
67	91	1
54	58	1
44	48	1
39	40	1
101	102	1
65	81	1
46	47	1
37	39	1
53	54	1
22	28	1
57	58	1
94	95	1
27	28	1
100	101	2
43	45	1
40	52	1
59	60	1
73	81	1
76	76	1
57	60	1
90	91	1
66	68	1
104	105	1
54	67	1
66	81	1
71	73	1
62	86	1
26	26	1
36	39	1
