113	113	1
28	28	1
125	126	1
62	63	3
77	95	1
172	172	1
151	151	4
34	34	1
10	14	1
86	86	1
131	131	1
20	20	2
155	155	1
122	122	1
124	159	1
36	36	2
25	25	2
25	40	1
174	183	1
2	2	1
53	54	2
57	68	2
111	112	2
89	89	1
154	164	2
183	184	1
187	187	2
178	178	1
109	111	1
34	35	1
150	165	1
107	107	1
47	47	3
4	4	1
77	78	1
125	125	1
147	148	1
72	73	1
4	5	1
82	113	1
27	27	2
42	42	3
155	165	1
87	87	1
15	170	2
149	149	1
118	118	1
126	130	1
158	158	3
84	85	1
183	183	1
147	147	1
6	7	1
12	12	1
25	38	2
108	109	1
82	82	1
70	72	1
85	85	2
164	164	2
41	62	2
59	65	1
125	165	1
79	79	1
23	23	3
84	84	1
88	88	2
134	134	2
57	57	1
184	184	2
142	150	1
129	129	5
128	128	1
82	151	1
8	8	2
124	125	1
100	100	1
131	138	2
190	190	1
58	69	1
112	113	1
171	171	1
146	146	3
146	147	1
150	150	3
101	105	1
112	112	1
161	161	1
5	13	1
139	139	4
23	71	1
132	132	1
83	110	1
6	6	3
63	63	2
39	39	2
78	78	1
26	29	1
16	16	1
64	64	1
53	87	1
5	5	1
115	118	1
75	75	2
140	141	1
169	170	1
48	54	1
81	82	1
176	176	2
109	109	3
140	140	2
167	167	1
98	98	1
5	41	1
124	124	1
41	56	1
139	186	1
130	131	2
151	154	1
87	112	1
87	88	2
19	23	1
7	7	1
133	134	1
120	121	1
160	164	1
162	166	1
19	19	1
57	63	1
65	66	1
29	29	1
104	104	1
148	150	2
59	59	1
44	44	1
30	30	1
95	95	1
161	163	1
117	117	2
41	41	1
123	128	1
187	188	1
80	153	1
152	153	1
126	126	1
175	176	1
129	151	1
54	54	2
1	1	1
15	15	1
166	166	1
61	62	1
9	9	1
17	17	1
178	186	1
37	37	1
101	102	1
119	121	1
0	3	1
181	184	1
152	152	1
160	163	1
160	160	1
67	67	1
94	156	1
76	76	1
11	12	1
119	144	1
77	77	1
100	106	1
43	44	1
25	34	1
55	55	1
106	107	1
33	33	1
97	97	1
96	99	1
95	105	1
115	115	1
144	173	1
10	10	1
156	157	1
142	145	1
65	95	1
