135	135	1
103	113	1
45	46	1
99	149	1
112	114	1
160	160	9
13	47	1
110	110	4
22	49	1
105	105	2
14	14	1
19	19	1
75	75	3
17	17	3
136	136	4
97	125	1
38	38	1
92	92	1
108	108	4
16	16	4
157	157	6
69	69	2
82	83	1
158	159	1
115	115	1
154	155	2
135	148	1
94	95	1
18	18	2
38	39	2
130	130	7
154	165	1
6	16	2
41	41	6
10	10	3
47	48	1
138	151	1
114	116	1
143	145	2
34	35	2
2	2	2
95	95	4
112	112	3
153	154	2
13	14	1
42	42	4
9	10	2
124	124	3
8	8	6
133	133	4
151	151	1
8	9	1
147	147	3
3	3	6
146	163	2
13	45	1
65	65	1
55	58	1
93	93	2
151	152	1
26	27	1
22	22	1
50	50	2
53	53	2
25	25	3
67	67	3
48	49	3
125	126	1
33	33	2
14	45	1
97	99	4
28	105	1
146	146	3
155	155	3
20	27	1
129	145	1
144	144	3
12	147	2
36	36	2
125	147	1
1	2	2
134	134	2
126	136	1
142	142	2
46	46	3
6	6	2
143	143	4
122	126	1
61	63	1
74	74	1
37	37	6
128	141	1
102	103	3
44	45	2
150	150	5
50	51	1
111	148	1
139	139	2
0	6	1
6	7	2
66	66	1
147	167	1
121	152	1
27	27	5
94	94	2
13	13	10
148	148	2
83	83	1
11	11	2
41	42	1
9	9	3
0	5	1
34	34	3
90	90	2
101	103	1
88	89	1
63	63	1
110	113	1
54	55	1
145	145	5
99	100	4
127	127	1
144	145	2
161	163	3
8	136	1
96	98	1
72	72	3
23	23	1
148	149	1
80	83	1
159	160	1
96	96	1
85	93	1
45	45	2
111	129	1
133	134	2
164	164	4
156	156	2
129	129	2
11	12	3
144	153	1
98	98	2
51	51	3
137	160	1
128	163	1
15	16	1
99	136	1
18	20	1
112	140	1
76	76	1
52	52	1
118	119	1
123	124	1
99	99	3
83	141	1
49	50	2
169	169	5
102	129	1
161	161	2
100	100	2
5	167	1
170	170	2
148	156	1
95	96	1
7	10	2
56	57	1
20	20	1
62	62	1
167	168	1
120	121	2
68	83	2
167	167	6
0	14	1
47	47	1
85	86	2
2	15	1
159	159	1
142	143	1
155	157	1
166	166	1
73	73	2
84	84	1
152	152	1
35	35	3
67	68	1
140	166	1
131	131	1
77	81	1
120	125	1
109	121	1
78	79	1
80	80	2
165	165	3
88	100	1
76	77	2
119	125	1
4	4	5
166	167	3
127	131	2
113	150	1
149	149	1
39	40	1
15	15	4
138	140	1
10	13	1
111	112	2
119	119	2
71	72	2
152	163	1
147	148	1
102	104	1
163	163	2
106	106	2
141	142	1
49	49	2
137	154	1
16	51	1
19	20	2
91	91	1
141	141	3
39	39	4
136	139	1
44	93	1
86	86	2
154	154	2
132	132	1
137	137	1
4	6	1
47	66	1
117	117	1
125	125	2
140	140	1
3	76	1
7	13	2
5	5	6
149	158	1
0	1	1
104	116	1
153	153	2
38	158	1
146	164	1
53	56	1
79	79	2
16	17	1
49	139	1
101	102	1
140	141	3
131	148	1
35	108	1
107	107	2
89	120	1
79	98	1
113	113	1
72	81	1
40	40	2
85	85	1
53	73	1
92	98	1
82	82	1
46	50	1
169	170	1
106	107	1
2	4	1
128	128	2
5	6	1
73	84	1
137	138	1
138	139	2
81	104	1
70	70	1
48	48	3
120	120	1
17	18	2
103	103	1
143	144	1
71	71	1
58	107	1
161	170	1
78	78	1
136	155	1
43	52	1
129	130	1
154	161	1
138	138	3
47	49	1
19	76	1
4	5	1
110	126	1
125	128	1
83	84	1
0	0	1
152	153	1
70	142	1
133	153	1
108	125	1
11	13	1
8	13	1
118	121	1
15	35	1
118	118	2
97	104	1
54	54	2
124	132	1
148	159	1
7	14	1
123	123	1
7	7	1
65	92	1
63	64	1
15	33	1
151	168	1
28	28	2
76	80	1
111	140	1
127	128	2
26	28	1
43	43	1
111	111	1
82	98	1
130	133	1
56	56	1
116	116	1
9	162	1
40	86	1
64	64	1
81	81	1
89	89	1
164	166	1
158	158	1
162	164	1
14	18	1
