151	151	2
155	156	3
15	15	7
18	37	1
113	113	2
148	166	1
67	67	2
119	119	1
128	130	2
47	49	2
80	80	4
167	167	5
106	107	1
41	41	7
22	24	1
24	24	4
69	69	1
116	117	1
7	7	1
117	118	1
51	51	2
91	91	2
13	14	4
39	39	2
87	87	1
28	28	3
96	142	1
82	83	1
125	135	1
22	22	2
146	146	6
148	148	6
152	152	1
13	26	1
49	49	3
27	28	1
42	42	7
50	50	2
44	44	6
152	153	3
79	79	2
14	14	3
165	165	1
151	152	4
159	159	1
10	27	3
135	140	2
110	111	1
120	121	1
141	142	1
130	157	2
83	83	3
28	110	1
46	46	1
147	147	4
83	84	1
91	92	2
81	81	2
140	140	2
79	82	1
53	53	2
26	26	2
80	81	2
74	75	1
125	126	1
136	139	2
139	142	1
26	53	1
9	9	1
37	37	3
135	153	1
123	123	3
166	166	3
160	160	2
43	43	5
2	2	3
26	27	2
111	111	5
136	157	1
128	128	1
21	22	1
88	89	1
158	159	1
71	71	1
23	23	2
71	93	1
58	82	1
140	146	1
77	102	1
124	154	1
138	138	8
8	8	1
111	112	3
157	157	1
107	107	4
148	149	2
93	99	2
166	167	2
101	135	1
129	130	1
108	140	2
135	151	1
10	10	1
84	84	4
168	168	2
124	124	1
157	166	1
9	21	1
112	112	1
17	25	1
125	125	1
119	120	2
33	33	2
42	43	1
63	63	2
40	40	3
158	158	1
9	145	1
4	4	5
137	137	2
74	74	1
116	127	1
113	120	2
8	10	2
73	75	1
97	127	2
117	119	3
131	131	1
108	108	3
1	1	1
149	149	3
145	146	1
8	9	2
164	164	1
137	139	2
34	34	5
90	90	3
49	85	1
14	15	2
0	1	2
45	48	2
52	52	1
64	64	1
65	65	1
148	167	1
25	27	1
0	17	1
75	75	2
126	126	3
77	77	3
81	82	1
79	134	1
6	7	3
105	105	1
92	92	1
12	118	2
134	160	1
70	71	2
68	81	1
110	110	3
135	135	2
13	13	1
10	12	1
139	151	1
154	154	2
144	144	2
17	19	1
72	72	2
0	0	2
114	115	2
109	111	1
103	103	3
136	140	1
162	162	2
97	97	1
17	26	1
159	160	1
15	21	1
48	50	1
12	12	2
102	103	1
13	119	1
74	105	3
142	142	3
155	155	2
113	115	1
143	143	2
65	67	1
115	115	1
93	93	1
48	49	1
17	20	1
35	35	1
53	55	1
38	39	1
132	134	1
136	142	1
53	83	1
16	34	1
45	111	1
35	36	1
109	109	1
142	156	1
48	58	1
45	45	1
139	139	1
140	157	1
127	127	1
153	156	1
94	95	1
57	57	1
100	101	1
164	165	1
120	120	2
3	3	3
76	76	1
6	6	1
78	79	1
103	104	1
130	130	1
97	99	1
16	25	2
101	105	1
85	85	1
141	145	1
169	169	1
3	76	1
145	145	1
161	161	2
147	148	1
20	80	1
126	127	1
92	95	1
170	170	2
121	121	1
92	93	1
64	66	1
39	40	2
47	56	1
11	12	1
168	169	1
27	40	1
95	95	1
144	147	1
150	150	1
160	166	1
84	89	1
117	146	1
23	24	1
155	157	1
115	136	1
116	116	1
142	145	1
162	164	1
