92	93	2
79	79	5
150	150	3
58	59	2
145	145	3
28	28	4
116	116	4
47	47	5
203	203	3
247	247	3
160	163	1
161	161	1
209	209	6
224	225	1
31	31	3
90	90	2
114	114	2
15	16	3
67	67	3
246	246	2
105	105	1
246	247	1
232	232	4
235	235	3
177	178	1
82	83	2
24	32	1
236	236	1
40	40	2
197	237	2
195	195	1
117	117	6
175	176	1
71	195	1
211	224	1
81	81	1
47	52	2
9	31	1
158	158	4
28	32	1
213	213	3
154	154	3
54	54	3
155	156	3
200	200	6
228	228	1
177	177	2
245	245	1
7	7	2
23	42	2
5	5	2
47	48	2
14	14	5
183	183	1
212	212	4
220	220	5
62	109	2
42	42	4
79	82	2
201	202	1
203	204	3
48	51	1
37	37	2
170	171	2
58	58	2
22	22	4
239	239	3
201	201	1
70	70	2
94	94	1
81	84	2
226	226	2
230	231	1
49	49	2
109	109	5
215	215	1
24	24	4
160	161	1
59	59	2
119	120	1
147	147	1
18	19	3
65	84	1
215	217	3
21	23	1
65	66	1
3	4	2
20	21	2
95	149	1
155	155	4
84	84	3
71	71	1
29	29	2
15	15	1
159	162	1
64	65	1
167	226	1
87	92	1
232	233	2
55	55	3
156	161	1
9	9	2
237	240	3
213	214	3
169	169	1
26	26	2
237	237	2
224	224	3
53	53	5
28	29	1
241	242	3
30	31	2
210	211	1
48	49	1
38	38	2
188	193	2
202	202	2
34	35	2
41	42	1
225	225	2
41	41	3
73	73	3
47	53	1
206	206	2
6	6	4
17	17	5
30	30	5
105	169	1
16	16	2
74	74	1
109	185	1
29	224	1
89	159	1
95	97	1
174	174	3
183	207	1
78	79	1
180	180	1
165	165	2
192	212	2
244	244	1
226	227	1
156	180	1
160	160	1
75	75	2
78	78	3
108	120	1
198	199	1
168	169	4
229	229	5
21	21	2
10	10	1
211	211	3
110	112	1
50	50	1
156	156	2
190	190	1
119	119	3
175	175	3
52	52	3
230	234	1
82	82	1
149	149	1
95	100	1
205	206	1
207	207	3
229	230	3
228	234	1
199	199	3
172	173	1
36	37	1
221	222	1
26	27	1
48	48	2
205	205	4
39	39	1
204	204	1
81	180	1
223	223	4
54	85	2
69	88	1
33	33	2
32	32	3
44	44	4
6	7	1
187	187	1
222	223	2
91	91	2
146	147	1
208	208	1
216	216	1
92	92	2
201	213	1
4	4	3
106	106	1
34	34	1
162	235	1
206	230	1
230	230	3
193	193	1
206	207	1
87	87	1
164	164	1
167	167	1
244	245	1
150	229	1
101	101	1
19	19	4
238	240	1
180	181	2
9	40	2
212	224	1
234	236	1
151	153	1
165	166	2
49	50	1
231	231	4
25	25	4
236	243	1
216	217	1
38	39	1
107	108	1
109	110	2
107	107	2
168	168	2
35	35	1
218	218	1
23	23	1
39	227	1
222	222	3
51	53	1
49	244	1
115	115	1
169	247	1
242	242	2
182	182	1
35	36	3
1	1	2
158	189	1
171	208	1
65	65	1
173	173	1
239	240	1
153	153	2
224	235	1
97	97	2
11	11	2
212	213	1
191	196	1
45	45	2
171	171	1
36	36	3
10	11	1
95	95	2
33	34	1
164	176	1
163	163	1
159	159	1
192	192	1
89	89	1
171	194	1
180	240	2
100	207	1
91	201	1
180	204	1
44	204	1
112	112	1
197	197	1
238	238	1
184	184	1
183	184	1
13	13	1
210	210	1
167	169	1
87	88	1
162	162	2
78	95	1
170	170	1
2	2	2
3	3	1
186	200	1
69	70	1
166	181	2
110	110	1
118	118	1
158	163	1
241	241	1
178	181	1
200	201	1
46	46	1
14	15	1
68	68	2
96	96	1
27	28	1
182	183	1
20	86	1
245	246	1
99	108	1
56	57	1
188	219	1
31	44	1
69	69	1
21	114	1
194	244	1
76	77	1
15	20	1
64	64	1
62	62	1
181	181	1
157	173	1
166	166	1
61	85	1
93	94	1
