31	31	4
20	20	5
95	97	1
6	6	5
191	191	3
118	118	4
174	174	6
36	36	7
132	132	3
47	47	4
186	194	1
47	48	2
13	13	7
11	46	1
169	169	8
14	14	6
186	186	6
186	187	2
190	190	2
42	71	1
39	40	2
83	84	3
176	177	4
55	55	3
33	33	4
161	189	1
125	125	1
105	105	2
176	191	1
93	115	2
43	44	3
8	8	5
117	118	2
68	68	4
107	119	2
179	179	9
66	67	1
104	104	4
10	12	1
50	51	1
114	114	3
95	95	2
155	155	8
154	154	1
167	176	2
171	171	5
156	193	3
143	160	1
103	105	2
189	189	4
21	23	2
157	167	1
4	7	2
196	196	10
36	37	3
111	111	4
46	46	12
167	168	1
7	7	6
192	192	5
49	49	4
64	79	1
88	88	1
35	36	3
157	157	2
171	172	1
142	150	5
181	181	7
179	182	1
28	28	3
61	61	5
99	99	1
162	166	1
120	161	2
66	66	2
79	80	5
185	185	6
87	87	2
168	168	11
130	130	6
193	193	5
5	21	2
8	27	1
176	178	3
41	41	5
25	25	6
22	23	2
103	106	3
181	182	1
166	166	2
26	27	1
145	146	2
135	135	2
174	175	2
23	25	1
109	111	1
139	139	6
40	40	4
16	33	1
178	178	6
172	174	1
40	41	4
97	98	3
3	4	2
134	170	1
110	111	2
37	38	3
37	37	9
158	172	2
26	179	1
144	144	6
69	69	8
85	85	2
64	65	4
105	141	1
24	24	6
106	106	4
157	189	1
183	183	4
1	1	5
116	116	4
129	129	3
195	195	3
23	23	7
108	141	1
189	190	2
30	31	1
184	184	4
34	34	6
187	187	2
143	143	3
74	74	4
5	6	2
112	112	4
114	117	1
76	77	5
146	147	3
145	145	6
28	29	3
140	160	2
141	141	3
63	63	2
119	119	2
66	86	1
168	169	4
45	45	1
115	115	2
151	151	3
193	194	2
14	15	2
160	160	1
140	140	4
43	43	4
11	112	1
74	76	1
46	47	2
124	124	2
137	159	1
136	136	1
134	134	5
3	23	1
12	14	2
120	121	2
39	39	4
158	166	1
5	5	6
31	32	3
169	172	1
29	89	1
185	186	4
19	19	4
11	72	1
148	148	3
172	172	3
159	165	2
35	35	3
38	39	1
21	21	4
0	1	3
94	164	2
32	32	3
27	27	3
58	58	2
26	68	3
17	19	1
14	39	2
146	146	3
95	108	1
153	153	3
108	108	2
162	162	5
117	117	5
175	175	3
139	140	3
24	26	1
145	149	1
26	26	3
54	54	5
20	38	1
177	178	1
4	20	1
121	122	2
16	16	2
112	143	1
24	38	1
59	59	5
13	46	1
180	180	4
127	127	4
152	153	1
109	118	2
78	79	2
124	140	1
149	152	1
22	24	1
25	26	3
99	117	1
144	173	2
155	156	6
50	53	1
165	167	2
10	10	8
142	142	4
101	101	2
144	145	1
12	12	1
70	70	1
110	110	2
138	138	4
188	189	3
152	152	3
113	151	2
22	22	5
108	143	3
67	67	1
17	17	3
136	137	1
9	9	2
86	87	2
118	123	1
157	179	1
118	146	1
124	125	2
93	94	3
2	4	1
2	34	1
149	185	1
188	188	5
176	176	2
19	36	1
6	7	2
170	186	1
40	42	1
195	196	2
122	123	2
122	122	2
151	159	1
3	3	2
94	94	4
173	176	1
36	79	1
125	126	1
182	182	3
62	62	3
87	88	3
123	124	2
40	62	1
164	164	2
100	124	4
55	113	1
24	28	3
79	81	1
38	38	3
158	159	3
73	75	1
142	143	1
2	2	4
71	71	1
48	48	3
147	147	5
127	156	1
27	30	1
33	34	2
184	186	1
114	115	2
170	177	1
113	119	1
80	80	3
3	35	2
149	160	1
150	177	1
9	15	1
18	19	1
156	157	1
53	53	3
175	176	3
94	103	1
60	84	1
161	162	2
31	39	1
107	107	1
94	110	1
44	44	6
4	4	4
79	79	2
58	64	1
4	30	1
131	131	2
25	67	1
190	191	4
11	11	2
118	121	2
2	3	1
137	164	1
24	27	1
128	128	4
5	7	1
126	126	1
60	65	1
4	21	1
111	115	1
154	158	1
160	161	3
156	156	2
98	98	2
150	150	2
192	193	1
15	16	1
159	159	2
77	77	5
194	194	4
101	108	2
162	163	1
97	97	2
170	171	1
40	73	1
170	170	1
123	125	1
136	139	2
112	113	3
174	176	1
143	145	2
72	72	3
32	63	1
169	171	1
158	161	1
115	119	1
163	176	1
186	191	1
158	188	1
100	105	1
152	183	1
178	179	1
94	95	1
73	73	1
39	44	1
20	21	3
30	30	1
162	164	2
78	78	2
29	29	1
33	38	2
137	160	1
173	173	5
100	195	1
23	29	1
80	81	2
9	10	1
100	122	1
11	12	2
185	187	1
23	24	1
160	193	1
134	139	1
101	102	2
177	177	1
180	181	1
64	87	1
135	139	1
57	57	2
32	122	1
44	139	1
33	57	1
100	157	2
194	195	3
73	74	2
181	183	1
87	113	1
130	133	1
6	8	1
191	192	2
187	191	1
179	180	1
121	121	3
102	103	1
17	25	1
64	64	1
137	137	2
82	82	2
62	71	2
68	74	1
31	36	1
136	174	1
102	104	2
21	33	1
130	138	1
101	181	1
165	166	2
150	151	1
108	119	1
86	86	1
159	160	1
100	125	1
113	125	1
45	46	1
106	109	1
95	99	1
63	64	1
165	165	1
161	161	2
90	90	1
10	11	1
15	15	2
83	83	1
163	163	1
185	196	2
6	23	1
23	26	1
136	193	1
65	115	1
1	2	1
155	187	1
115	141	1
9	21	1
71	73	1
109	110	1
54	55	1
64	115	1
71	72	1
51	51	1
158	158	1
76	76	1
34	35	2
139	157	1
60	60	1
96	98	1
0	0	1
113	149	1
149	158	1
23	31	1
2	47	1
177	186	1
113	120	1
52	52	1
143	144	1
185	194	1
149	150	1
133	133	2
55	134	1
147	148	1
27	28	1
175	182	1
83	88	2
166	180	1
62	76	1
33	47	1
84	84	1
56	56	1
54	56	1
96	96	1
141	172	1
3	8	1
44	45	1
184	185	1
154	155	1
163	164	1
