100	119	1
83	167	3
179	179	5
30	30	3
128	128	5
20	20	3
98	174	1
208	219	2
1	31	1
69	69	3
61	68	1
105	105	6
164	165	2
153	153	2
224	224	4
141	141	1
53	53	1
58	58	3
11	24	1
205	205	4
149	169	1
2	6	1
219	235	1
141	142	1
174	174	2
178	178	4
228	228	2
173	173	2
136	136	2
21	21	1
106	106	3
122	122	4
138	168	2
31	31	2
65	65	2
217	217	3
85	85	4
102	103	1
79	79	3
232	232	2
48	48	2
208	208	2
121	121	1
185	186	1
82	82	3
34	34	2
52	52	2
116	117	3
139	162	2
70	138	1
26	70	1
136	145	1
137	137	2
148	151	1
146	187	1
123	139	1
113	120	2
212	212	3
168	184	1
162	162	2
13	13	1
239	239	2
73	73	3
176	177	2
84	103	2
80	81	1
109	109	1
166	168	2
181	183	1
181	182	1
220	221	1
17	17	4
102	102	2
166	166	4
211	213	1
100	100	1
44	44	3
119	139	1
104	104	1
29	29	2
56	57	2
176	206	1
88	88	1
116	116	2
68	68	2
127	127	2
124	127	3
42	42	1
3	36	1
3	3	5
158	158	2
134	134	1
28	28	1
165	165	2
187	190	1
209	211	2
133	184	1
58	84	1
179	180	3
120	120	3
47	55	1
137	156	1
4	7	1
153	154	3
65	67	1
0	18	1
17	18	1
1	23	2
123	123	3
144	146	1
170	171	2
204	205	1
156	156	2
130	130	1
32	47	1
159	159	1
117	137	2
139	143	1
20	38	3
12	12	3
240	240	2
19	19	3
9	10	1
216	216	1
137	158	2
22	40	2
219	219	2
124	124	1
18	41	1
117	118	2
83	83	1
226	227	1
182	182	4
86	170	1
3	19	2
235	235	1
198	198	4
214	214	1
20	23	1
160	161	1
59	59	1
169	169	3
70	70	4
84	123	1
199	226	1
150	150	4
167	168	2
62	62	2
74	74	6
86	99	1
60	61	1
15	15	4
19	34	1
111	111	1
177	177	2
72	72	1
78	78	2
126	127	1
134	150	2
43	55	1
67	67	1
160	160	2
126	126	1
123	143	1
49	57	1
17	220	1
190	190	1
71	73	2
25	25	2
237	237	3
220	223	1
56	56	2
11	11	3
195	196	1
45	45	3
1	2	1
66	67	1
157	157	2
123	124	1
57	60	2
57	57	4
50	50	2
151	152	1
193	194	1
227	227	1
191	191	2
235	236	4
162	163	1
41	143	2
103	104	1
57	58	1
55	55	5
5	6	1
211	211	1
43	43	2
211	231	2
199	199	1
61	86	2
72	97	1
141	187	1
133	134	1
45	62	1
37	37	1
7	7	2
0	42	2
26	26	3
155	155	3
155	168	1
27	28	1
16	29	1
18	18	2
32	32	1
46	46	2
114	114	2
197	197	1
145	169	1
14	19	1
130	131	1
55	56	1
2	2	2
175	175	1
77	78	1
71	218	1
188	192	1
230	230	2
54	55	1
38	56	1
191	193	1
16	20	1
140	142	2
135	152	1
47	62	1
202	202	3
57	59	1
237	238	1
126	135	1
108	114	1
38	38	1
71	71	1
73	76	1
168	168	1
170	183	1
184	185	2
40	40	1
64	64	1
103	106	1
77	83	1
96	217	1
143	143	1
4	4	3
35	36	2
104	134	1
186	186	4
104	105	1
227	229	1
206	206	1
161	161	2
112	112	1
145	145	4
133	133	3
97	136	2
171	171	1
146	146	1
222	222	2
151	151	2
27	27	1
63	63	2
86	86	1
21	43	1
21	36	1
163	164	3
157	158	1
242	242	3
197	212	1
70	73	1
44	45	1
62	64	2
85	103	1
138	138	1
51	53	2
0	0	1
149	149	2
59	60	1
207	207	2
76	76	1
36	53	1
164	164	3
50	51	2
110	110	1
233	233	1
2	3	1
47	48	1
61	61	2
151	167	1
74	97	1
225	226	1
209	216	1
196	209	1
96	103	1
12	13	2
155	156	1
29	30	1
152	152	1
215	216	1
195	195	1
150	152	1
125	126	1
10	11	1
142	142	1
140	185	1
187	187	1
202	236	1
2	42	1
228	232	1
69	70	1
2	35	2
162	164	1
16	16	1
148	163	1
49	49	2
124	125	1
67	78	2
125	162	1
99	101	1
99	99	1
234	234	1
40	43	1
8	8	2
4	5	2
174	191	1
70	171	1
239	241	1
191	196	1
192	192	1
38	176	1
170	170	3
101	102	2
115	116	1
149	150	1
103	105	1
167	187	1
124	157	1
5	5	1
14	14	1
172	172	1
150	151	1
140	149	1
209	209	1
60	60	1
183	183	1
76	123	1
216	217	1
192	193	1
68	170	1
125	125	1
6	6	2
180	182	1
32	37	1
8	9	1
192	218	1
33	33	1
204	204	1
130	159	1
95	95	1
70	196	1
156	157	1
190	191	1
193	196	1
49	53	1
129	129	1
161	164	1
166	167	1
