76	76	2
91	93	2
101	101	11
80	80	7
98	98	6
91	91	21
25	25	5
29	29	6
21	22	3
112	112	5
96	96	5
81	81	6
21	41	2
31	31	6
95	95	9
90	90	13
34	34	2
44	112	1
54	54	8
85	88	2
99	99	8
102	103	2
56	59	2
110	110	5
90	92	2
47	47	6
37	37	7
98	111	1
99	112	1
88	88	3
78	81	1
59	59	4
92	92	6
27	27	2
78	79	1
92	93	1
109	109	3
64	66	2
60	76	1
45	45	1
74	75	5
39	40	3
24	64	1
82	85	2
93	93	6
51	51	8
38	55	1
43	43	4
81	90	3
66	79	1
100	100	3
105	106	1
109	110	2
57	58	3
34	36	1
81	86	1
44	44	3
76	85	1
32	33	1
64	64	1
82	84	2
53	53	5
97	98	1
36	36	5
107	107	1
40	40	3
39	39	5
37	56	2
28	51	1
21	21	5
66	66	2
38	38	3
49	100	1
90	91	7
98	107	1
40	52	1
72	72	2
114	114	2
70	70	1
44	45	3
24	24	7
59	60	1
42	42	2
52	55	1
106	110	1
106	106	4
19	19	3
47	49	3
97	97	4
113	113	5
87	87	4
87	88	1
20	73	1
63	63	4
23	52	1
30	30	2
75	75	2
59	78	1
66	78	1
71	71	1
28	29	1
81	91	3
60	60	2
110	111	1
33	41	1
61	61	4
94	94	3
33	33	3
74	74	2
49	49	5
29	30	1
43	44	1
104	104	2
68	68	2
49	50	1
64	67	1
76	78	1
91	92	4
41	41	3
84	84	1
21	53	1
32	92	1
48	109	1
72	85	1
108	108	5
85	107	1
69	71	1
48	48	3
51	52	5
100	101	2
31	32	1
46	46	7
58	58	2
78	78	4
22	22	5
111	111	7
93	108	1
23	23	4
99	101	1
83	83	3
74	78	1
106	107	1
45	49	1
73	73	3
58	59	1
27	28	1
79	92	1
27	41	1
37	48	1
81	92	3
67	67	2
61	63	2
32	32	3
82	82	2
85	87	1
100	103	1
77	77	5
21	44	2
87	93	1
96	98	2
81	93	1
46	99	1
53	54	3
61	62	1
38	39	1
89	109	2
104	105	1
33	60	1
58	83	1
79	79	4
77	102	1
21	26	1
50	51	2
26	27	1
56	57	1
96	107	1
89	91	1
46	47	1
40	96	1
29	31	3
63	70	1
77	86	1
104	106	1
102	102	6
103	103	1
91	108	1
112	113	1
65	65	1
90	93	2
98	99	1
45	98	1
57	57	1
35	35	3
55	55	2
82	105	1
53	60	1
45	46	1
26	26	2
93	98	1
70	93	1
93	94	1
101	104	1
27	37	1
54	59	1
28	44	1
69	69	1
48	98	1
28	60	1
22	45	1
46	100	1
105	105	1
77	94	1
99	100	1
24	25	1
24	98	1
108	109	1
80	83	1
37	43	1
20	75	1
60	61	1
37	38	1
55	58	1
62	62	1
50	50	1
89	89	1
105	107	1
96	110	1
31	95	1
45	47	1
52	52	1
82	83	1
23	51	1
89	93	1
34	35	1
65	66	1
22	25	1
