6	21	1
62	62	1
37	38	1
114	114	4
196	198	2
10	10	4
192	194	2
222	222	2
159	159	5
53	67	1
182	182	5
14	14	2
27	31	2
53	53	4
221	221	2
117	119	1
43	43	8
184	185	1
57	57	2
87	90	1
119	119	3
229	229	2
109	172	1
211	211	2
50	50	7
196	220	2
181	181	2
107	107	2
203	203	5
166	176	1
200	200	8
241	243	1
175	175	2
57	58	2
153	165	1
179	189	1
210	215	1
184	184	1
47	47	2
8	8	2
37	37	1
45	47	2
51	63	1
39	41	1
185	185	3
73	73	3
46	48	1
164	164	3
74	89	1
201	202	2
52	52	2
244	244	5
183	184	2
99	99	1
36	36	2
51	51	4
55	55	2
151	226	1
63	85	1
23	24	3
67	67	1
30	31	3
238	238	3
230	230	6
46	47	1
165	165	2
70	82	1
9	10	1
234	235	1
204	211	1
195	209	1
116	117	1
235	235	2
6	6	3
146	146	2
89	89	2
215	215	5
200	201	2
120	120	1
171	171	3
197	197	2
198	198	1
91	91	1
92	101	1
9	9	4
50	63	1
184	205	2
33	39	3
197	215	1
214	217	1
11	11	2
100	100	1
29	30	2
156	157	1
149	149	1
79	80	1
231	232	1
221	232	1
50	53	1
49	51	1
171	173	1
156	156	3
12	12	4
192	207	1
204	207	2
94	107	3
219	219	3
206	207	2
220	234	2
152	152	2
173	195	2
34	34	3
186	186	1
233	233	2
45	45	4
17	17	2
69	69	1
150	154	1
237	237	5
214	214	5
95	97	1
65	67	1
61	62	1
207	207	1
227	227	8
33	43	1
59	59	5
205	221	1
32	32	9
209	210	1
84	107	1
10	25	1
229	230	1
63	160	1
231	231	4
62	64	1
89	118	1
24	25	2
24	24	2
42	42	3
167	168	2
157	157	3
82	83	2
48	52	1
177	177	3
240	241	3
186	195	1
35	35	2
63	63	3
85	85	4
54	58	2
74	77	1
65	69	1
216	220	1
88	88	1
30	30	4
223	241	1
172	173	2
199	199	2
220	221	1
164	193	1
238	239	3
235	239	1
239	239	1
221	233	1
162	162	5
242	242	3
111	111	2
194	194	1
12	16	1
201	201	3
245	247	1
61	61	2
22	22	2
236	236	1
145	145	3
70	70	2
227	229	1
74	114	1
43	44	1
99	101	1
15	16	1
108	108	1
26	26	6
7	7	2
47	49	1
29	29	3
166	168	5
54	65	1
170	170	1
60	60	1
188	188	2
91	92	1
29	48	1
45	150	3
153	216	1
87	89	1
150	150	4
218	221	1
147	147	3
221	222	1
220	223	1
202	202	4
74	74	1
71	72	2
158	158	1
187	188	2
245	245	3
81	81	2
64	64	1
1	1	1
10	11	1
3	4	2
93	103	1
87	87	4
32	33	1
197	202	1
229	247	1
30	43	2
234	247	1
197	218	2
35	41	1
212	213	1
25	26	1
110	110	1
183	203	2
213	213	1
49	52	1
110	111	1
55	92	1
32	43	1
102	110	1
68	68	3
27	27	1
232	232	3
174	175	1
198	200	2
6	10	1
97	97	2
174	174	1
205	205	2
66	118	2
60	73	2
175	176	2
18	19	1
92	93	1
33	33	2
101	102	1
246	246	1
66	66	2
115	115	3
65	65	1
168	168	2
192	192	1
15	15	4
70	85	1
112	112	2
150	151	1
95	245	1
12	151	1
104	104	1
230	232	1
102	103	1
165	166	1
151	151	1
58	58	1
75	79	1
155	156	1
16	17	2
94	95	2
92	92	1
28	28	3
213	215	1
214	216	1
178	211	1
54	55	1
216	216	1
87	92	1
116	116	1
220	220	5
197	214	1
84	84	2
46	161	1
176	181	1
160	160	3
48	48	3
241	242	3
95	95	2
172	172	1
117	117	1
4	4	2
189	192	1
101	116	1
3	5	1
23	23	2
103	103	1
164	165	1
111	112	2
64	65	2
60	61	1
171	177	1
93	93	1
169	169	4
40	40	6
226	228	2
197	219	1
77	77	4
227	228	1
166	167	2
87	88	1
183	185	1
176	176	3
152	155	1
212	212	2
177	180	1
71	71	1
179	179	2
70	71	1
155	155	1
161	161	1
171	214	1
237	238	2
163	163	1
166	166	2
158	160	1
20	27	1
183	183	1
167	169	1
193	194	1
223	223	2
40	41	1
104	107	1
172	176	1
31	31	1
243	243	2
230	234	1
178	179	1
32	38	1
17	19	1
101	101	1
21	21	3
109	110	1
28	29	1
95	100	1
118	119	1
106	107	1
220	229	1
84	86	1
20	20	1
5	5	3
19	19	1
105	105	1
46	46	1
2	2	2
78	106	1
21	22	1
65	156	1
151	171	1
37	57	1
17	61	1
225	225	1
168	169	1
96	97	1
196	196	1
157	158	1
213	214	1
82	99	1
247	247	1
26	31	1
6	7	2
208	208	1
108	120	1
211	213	1
46	54	1
204	204	2
210	218	1
75	82	1
70	78	1
21	55	1
185	186	1
81	104	1
56	57	1
183	209	1
29	32	1
78	81	1
66	68	1
44	44	1
197	199	1
33	34	1
232	239	1
103	105	1
63	64	1
84	85	1
102	102	1
19	31	1
170	172	1
199	209	1
168	172	1
237	240	1
70	75	1
187	187	1
55	59	1
117	118	1
65	66	1
178	182	1
193	193	1
39	39	1
18	18	1
70	74	1
20	21	1
37	45	1
28	33	1
202	204	1
39	40	1
181	183	1
27	29	1
55	56	1
