175	175	2
101	101	2
84	84	3
139	139	4
0	1	1
143	145	3
3	3	1
52	52	3
59	62	1
55	61	1
107	107	1
120	121	1
71	71	2
93	94	3
88	88	1
75	75	1
158	158	5
122	122	2
130	163	1
87	87	2
42	42	2
76	76	2
25	26	1
130	130	3
136	136	3
106	106	1
100	101	2
32	32	3
37	37	3
116	143	1
135	136	2
103	126	1
77	79	2
16	17	1
88	95	2
29	30	1
81	81	2
56	66	1
113	143	1
79	138	1
21	21	2
133	133	3
78	141	1
12	22	1
84	85	2
24	24	3
132	132	1
57	143	1
119	121	1
147	152	1
58	58	3
82	83	1
151	152	1
145	146	1
6	14	1
97	97	2
53	53	1
174	174	2
127	128	2
173	176	1
34	163	1
173	174	1
37	39	1
80	80	1
6	36	1
55	82	1
153	153	1
129	129	2
145	145	2
97	130	1
125	125	1
1	1	1
25	25	4
90	92	1
121	121	1
176	176	4
57	57	2
169	169	3
154	154	2
59	59	2
117	117	1
91	91	1
142	145	1
11	41	1
110	111	2
65	65	2
38	38	3
163	167	1
160	160	2
14	15	2
65	67	1
18	18	2
36	36	2
97	105	1
41	41	2
115	115	2
85	86	2
134	162	1
61	107	1
15	15	4
155	155	1
9	25	1
97	106	1
95	95	2
23	40	1
28	29	1
171	173	1
161	161	1
4	4	2
92	99	1
59	61	1
120	133	1
81	82	1
7	18	1
81	131	1
40	40	1
35	35	1
147	148	1
43	43	1
171	172	2
109	109	1
170	170	3
83	83	1
141	141	2
123	123	1
104	104	4
111	113	1
34	42	1
24	26	1
102	104	1
102	103	1
62	103	2
155	156	1
11	16	2
46	74	1
172	172	1
26	29	1
127	127	2
70	71	1
115	116	1
22	22	2
88	145	2
20	44	1
150	150	2
7	7	1
38	41	1
13	15	1
148	148	1
96	122	3
112	117	1
71	72	1
18	33	1
168	168	2
92	92	2
19	19	1
142	142	1
122	146	1
92	100	1
150	168	1
104	106	1
11	11	1
120	120	1
76	80	3
54	54	3
59	92	1
51	51	3
137	137	1
9	21	1
64	65	1
6	6	2
12	12	1
34	34	1
162	167	1
8	8	1
114	114	2
149	153	1
52	91	1
144	144	1
14	14	1
130	131	1
37	52	1
129	130	1
39	154	1
41	152	1
111	112	2
3	4	1
119	124	2
176	180	1
29	29	2
78	139	1
31	49	1
62	62	1
164	167	1
178	178	1
85	85	1
18	19	1
64	77	1
140	148	1
45	45	1
116	116	2
150	151	1
73	73	1
134	137	1
2	10	1
151	151	2
78	78	1
82	82	1
74	79	1
30	31	2
98	120	1
11	40	2
23	27	1
59	91	1
97	122	2
170	171	1
79	80	1
31	31	3
56	56	1
99	99	2
163	163	1
128	128	1
1	32	1
8	11	1
146	148	1
66	66	2
102	102	1
71	74	1
165	165	1
33	35	1
65	66	1
67	67	2
131	131	1
136	168	1
171	171	1
158	159	1
118	118	1
8	12	1
126	126	1
99	144	1
157	157	1
24	27	1
50	51	1
90	90	1
86	86	1
103	103	1
