47	49	1
0	0	1
19	19	3
66	70	1
113	130	1
29	31	2
69	87	2
130	131	1
8	8	1
67	83	2
54	66	1
82	82	1
1	2	1
45	50	1
34	37	2
61	64	2
12	12	2
116	117	1
13	16	1
105	108	1
73	73	3
2	2	2
49	49	3
53	63	1
120	121	2
18	20	1
25	27	2
25	26	1
60	64	1
72	73	3
28	35	1
95	102	1
90	104	1
61	62	1
46	68	1
1	1	2
66	66	1
4	28	1
75	81	1
95	101	1
4	5	1
92	101	1
52	59	1
15	21	1
112	114	1
4	24	1
127	132	2
56	60	1
10	11	1
80	85	1
56	61	1
90	97	2
52	53	2
19	34	1
86	88	2
43	61	1
106	108	1
132	134	1
71	84	1
3	5	2
79	84	1
85	105	1
129	129	1
77	111	1
21	36	1
22	22	2
35	38	1
71	72	1
82	86	1
97	98	1
74	76	2
18	18	1
78	79	1
6	32	1
108	108	1
60	72	1
60	62	1
59	63	1
9	9	1
67	89	1
123	124	2
115	118	1
32	32	3
77	79	3
71	74	1
127	127	1
35	36	1
52	52	1
76	102	1
71	76	1
50	54	1
82	83	2
76	76	2
33	37	1
90	108	1
102	102	1
56	56	1
14	15	1
118	118	1
47	67	1
54	55	1
70	72	1
119	120	1
118	120	1
69	85	1
60	68	1
94	95	2
116	124	1
86	86	2
2	6	1
94	97	1
55	81	2
85	86	1
63	63	1
9	10	2
59	61	1
118	119	1
101	101	1
84	85	2
111	113	1
53	57	1
87	89	1
10	10	1
8	9	1
86	132	1
114	114	1
122	123	1
42	43	3
132	132	1
130	130	1
65	67	1
13	13	1
75	78	1
35	37	1
53	55	2
64	64	2
13	38	1
18	19	2
43	44	1
84	89	1
52	54	1
101	102	1
91	94	1
90	91	1
61	63	2
69	69	2
66	69	1
16	17	2
110	117	1
72	95	1
72	72	2
93	94	1
89	90	2
71	71	2
79	79	1
11	11	1
54	56	1
98	99	1
99	100	1
58	70	1
62	66	1
87	87	1
112	113	1
95	110	1
54	91	1
129	130	1
48	65	1
33	33	1
24	25	1
116	122	1
120	120	1
109	109	1
121	126	1
45	48	1
64	77	1
21	22	1
92	116	2
79	80	1
80	82	1
19	35	1
38	38	1
98	102	1
134	134	1
50	59	1
48	48	1
1	8	1
60	87	1
97	97	1
14	14	1
81	81	2
65	75	1
34	38	1
78	80	1
30	30	1
25	25	1
53	54	1
67	67	1
131	132	1
1	11	1
83	87	1
43	43	2
95	100	1
80	80	1
43	53	1
69	70	1
70	86	1
61	94	1
73	75	1
22	24	1
42	54	1
