113	115	1
1	1	9
113	113	10
92	93	2
84	85	1
68	86	1
2	2	3
77	78	3
133	133	7
107	107	4
135	136	2
141	153	1
26	26	3
73	74	2
136	136	11
62	62	5
158	158	6
7	7	2
40	41	3
55	71	1
122	122	8
46	54	1
157	158	3
12	12	3
70	123	1
146	146	9
69	69	5
138	142	2
54	54	6
68	68	4
149	155	2
135	135	5
18	20	1
67	69	2
91	91	3
118	118	5
94	95	4
108	108	4
0	1	2
49	49	3
84	84	4
120	120	3
79	79	8
41	56	1
3	3	7
110	111	6
110	110	4
93	93	8
8	8	4
97	97	6
25	25	6
77	80	1
132	137	1
43	43	4
34	34	4
79	80	4
77	77	3
41	41	6
41	46	1
73	73	7
33	33	10
32	33	2
78	78	10
61	87	1
21	23	3
120	137	1
70	132	1
40	40	6
146	147	6
130	154	1
148	148	5
47	47	5
140	140	5
114	136	1
115	115	8
123	136	1
157	157	15
138	139	2
154	154	4
93	132	3
84	86	2
95	95	8
117	117	5
127	128	4
79	82	3
104	105	6
38	38	4
155	156	1
149	149	3
87	88	1
39	39	1
85	87	1
63	70	2
155	155	6
22	22	4
87	87	1
18	19	1
69	100	1
77	92	1
106	107	2
134	135	1
75	91	2
55	69	2
104	104	2
101	101	6
106	106	5
145	145	3
151	151	6
112	112	3
90	90	10
89	89	7
20	21	2
144	146	3
39	158	1
49	93	1
114	114	3
123	127	2
85	86	2
107	110	3
30	30	4
134	137	2
46	46	2
57	57	1
75	75	4
42	42	4
152	157	2
78	124	1
36	84	1
28	28	4
131	131	4
114	121	2
3	102	1
100	127	1
105	105	10
135	140	1
21	35	1
77	89	1
12	135	2
19	19	3
21	21	9
44	44	2
96	96	4
107	138	3
36	37	1
111	112	3
144	144	5
138	138	7
123	124	1
100	100	8
11	43	1
15	17	2
137	137	8
81	81	2
6	6	4
82	84	2
82	88	1
139	140	2
22	26	2
29	29	3
121	121	4
76	111	1
24	24	5
73	100	3
24	33	2
119	119	3
40	42	1
56	56	3
82	82	2
108	121	1
66	66	1
123	123	6
11	111	1
66	70	3
64	64	1
145	147	2
138	154	1
150	150	5
56	71	2
85	89	1
151	152	3
45	46	1
134	134	9
109	109	8
12	15	1
79	141	2
13	14	2
50	50	10
124	124	6
107	117	1
105	133	1
148	149	2
4	4	2
67	68	4
116	116	4
132	147	1
113	114	5
134	143	1
76	107	1
86	87	4
140	142	1
136	137	3
149	154	1
6	66	1
122	130	1
40	48	1
37	141	1
67	67	3
113	122	2
132	132	4
92	126	1
20	20	3
147	147	8
34	35	1
16	16	6
156	157	2
98	98	8
92	92	2
144	145	2
103	117	1
23	23	4
119	122	1
31	31	2
71	71	2
109	113	1
126	135	2
152	152	3
128	129	2
139	139	3
70	70	5
154	155	3
116	134	1
86	86	3
130	132	1
70	71	3
111	111	4
81	82	1
22	25	1
36	36	3
50	55	2
120	135	1
17	50	1
128	142	1
36	38	1
116	117	2
89	90	1
23	36	1
99	100	2
134	139	1
98	158	1
124	125	3
83	84	4
11	11	1
51	54	1
49	90	1
44	71	1
88	124	1
83	83	3
112	113	2
6	56	1
10	55	1
139	142	2
7	8	1
140	153	1
153	155	1
40	46	1
155	159	1
99	99	5
17	17	4
1	2	4
105	106	2
10	10	2
48	55	2
100	101	2
51	51	2
130	130	6
156	156	3
128	128	8
143	143	5
7	21	1
80	81	1
119	120	2
98	131	1
107	123	1
16	20	2
120	121	2
103	103	4
119	142	1
78	79	3
10	106	1
134	138	1
140	141	3
85	110	1
103	104	1
39	92	1
88	125	1
129	129	3
150	151	3
44	45	1
49	51	1
123	125	1
30	64	1
141	141	2
55	55	1
25	28	1
19	42	2
108	144	1
22	28	1
137	147	1
71	135	1
12	13	3
95	96	1
101	103	1
23	24	1
7	9	1
46	50	1
124	143	1
141	143	2
112	114	1
153	153	7
141	142	2
114	143	1
130	131	4
63	63	1
9	14	1
20	23	1
17	33	1
89	147	1
78	83	1
152	153	1
126	126	3
66	67	1
83	86	1
127	127	7
37	37	4
24	25	1
108	109	2
16	17	2
138	144	1
17	18	2
132	133	1
31	32	1
78	89	1
20	73	1
18	18	2
96	97	2
3	152	1
5	6	3
128	145	1
152	154	3
8	9	1
114	125	1
113	119	1
123	144	1
42	71	1
27	45	1
22	39	1
98	101	2
52	52	1
142	142	2
52	53	2
28	52	1
130	148	2
27	29	1
32	32	1
2	104	1
97	139	1
116	127	1
17	23	1
154	158	1
13	13	2
34	123	1
102	104	2
87	127	1
156	158	1
21	22	1
129	130	2
29	31	1
77	91	1
128	153	1
118	122	1
102	102	3
45	45	1
46	49	1
3	4	1
80	80	4
95	127	1
117	118	1
87	136	1
90	121	1
98	99	3
120	124	1
76	77	1
17	57	1
14	14	1
105	112	1
38	43	2
115	146	1
46	47	1
107	111	1
95	128	1
142	143	2
56	57	1
12	33	1
91	114	1
2	4	1
50	51	1
10	31	1
37	84	2
120	128	1
122	141	1
132	140	1
116	119	1
93	94	1
69	71	1
53	53	1
51	53	2
91	110	1
68	104	1
152	155	1
87	113	1
30	31	1
149	150	2
120	152	1
125	125	2
153	154	1
48	49	1
35	35	1
132	134	1
68	79	1
108	111	1
4	5	1
13	43	1
117	131	1
48	48	1
52	54	1
127	141	1
158	159	2
13	17	1
111	135	1
109	146	1
42	46	1
90	94	2
37	75	1
91	108	1
110	112	1
91	97	1
106	134	1
7	46	1
106	111	2
67	70	1
67	98	1
43	45	2
42	48	1
154	156	1
6	8	1
90	91	2
68	69	1
38	40	1
32	44	1
113	116	1
33	35	1
42	43	1
123	141	1
80	134	1
64	68	1
145	155	1
19	40	1
75	76	1
77	110	1
40	57	1
117	132	2
150	153	1
110	113	1
101	138	1
19	31	1
109	145	1
115	120	1
27	27	1
15	16	1
29	30	1
131	132	1
148	151	1
122	123	1
110	138	1
79	88	1
5	5	1
18	34	1
88	88	1
24	27	1
124	142	1
17	61	1
155	158	1
148	154	1
108	113	1
123	126	1
80	127	1
28	44	1
10	11	1
87	116	1
