164	164	6
178	178	2
175	175	5
189	189	1
96	96	2
166	166	4
117	117	3
4	4	4
102	103	1
68	68	4
13	14	2
76	77	2
106	107	2
127	127	2
171	171	3
129	154	1
62	62	1
104	104	2
74	74	2
110	111	1
16	16	4
79	79	6
40	40	7
129	153	1
8	8	2
140	140	3
29	31	2
29	30	1
59	63	1
21	21	4
16	41	1
6	6	3
41	42	1
103	103	4
185	185	5
72	72	3
66	66	5
120	121	3
27	30	1
175	176	1
122	123	1
147	147	1
41	41	1
124	124	6
146	146	2
83	83	5
16	18	3
54	54	4
0	8	1
145	145	1
22	22	4
158	159	1
184	184	3
159	159	4
99	99	4
17	17	4
32	32	1
0	0	8
181	181	4
44	44	2
146	147	3
143	143	2
72	73	1
102	102	2
95	115	1
155	156	2
119	119	3
146	148	1
62	63	2
77	77	2
11	12	3
81	81	1
30	30	3
20	20	1
67	91	1
31	31	3
145	146	3
154	154	3
152	152	2
173	173	3
83	84	4
38	38	5
106	106	1
26	26	5
168	169	1
130	154	1
7	7	6
80	80	2
60	75	1
123	123	3
109	110	3
3	3	2
10	11	1
37	122	2
101	101	1
155	155	3
183	184	1
5	5	4
120	120	1
142	142	1
139	139	5
126	138	1
88	88	1
111	112	6
61	61	2
126	127	1
188	188	3
115	145	1
1	2	1
76	76	5
85	166	1
48	73	1
86	86	2
163	164	2
151	151	3
182	182	1
1	109	1
83	110	1
140	151	1
121	121	1
24	24	3
36	36	1
137	137	1
56	56	7
107	107	1
178	180	1
103	123	1
35	35	2
38	41	1
150	150	2
141	143	1
179	179	2
47	47	4
26	39	1
97	98	3
22	23	2
142	143	1
123	124	2
187	187	2
52	52	3
85	85	1
25	25	3
88	89	1
56	57	2
12	16	1
180	181	3
186	186	4
176	177	1
12	12	2
23	24	1
100	100	3
179	180	1
23	23	2
64	65	2
158	158	1
87	88	4
108	163	1
149	149	1
180	180	1
60	61	2
183	183	3
42	47	1
18	18	1
74	75	1
57	57	5
94	94	2
91	95	1
34	122	1
130	130	3
87	87	3
177	177	1
122	122	4
106	159	1
107	171	1
175	184	1
91	94	1
48	144	1
131	131	1
140	186	1
37	46	1
128	139	1
59	60	1
115	119	1
71	72	2
31	35	1
9	9	1
120	125	1
58	62	2
158	160	1
78	78	4
47	48	1
112	112	1
71	71	1
113	114	1
149	152	1
73	73	1
161	161	1
95	96	1
169	169	1
8	78	2
31	32	1
13	15	1
18	21	1
144	144	1
53	53	2
42	43	1
148	148	3
1	1	1
113	128	1
56	81	1
159	164	2
80	82	1
30	31	1
67	67	2
118	118	2
126	126	2
3	4	1
68	95	1
190	190	3
5	6	1
91	92	2
164	165	2
152	153	1
154	184	1
116	117	1
100	110	1
38	39	1
172	172	1
10	10	2
48	48	3
19	20	1
125	125	2
2	2	1
18	22	1
119	145	1
15	16	1
149	150	1
21	22	1
18	19	1
98	98	2
78	79	1
87	89	1
39	39	4
28	30	2
58	58	1
108	170	1
91	91	3
134	137	1
55	55	2
6	7	1
28	29	1
25	75	1
80	81	1
61	68	1
16	17	1
155	173	1
55	56	1
186	187	1
26	48	1
156	181	1
56	75	1
92	92	1
124	126	1
84	84	1
54	74	1
2	3	1
79	80	1
70	71	1
113	113	2
175	181	1
127	128	1
29	29	1
138	138	1
33	34	1
90	111	1
116	116	2
132	133	1
46	47	1
174	174	2
110	110	1
151	160	1
14	43	1
27	33	1
73	75	1
21	25	1
89	114	1
89	89	1
75	75	1
73	74	1
84	85	1
156	156	1
63	65	1
27	29	1
7	8	1
56	76	1
156	157	1
32	41	1
114	114	1
