214	217	1
96	96	2
54	54	4
80	81	1
23	23	3
42	42	2
220	223	2
202	202	5
167	168	1
193	194	2
43	43	7
162	162	4
12	15	2
166	221	1
226	226	3
9	9	3
66	66	2
18	18	3
204	204	10
154	154	3
61	61	3
53	230	1
79	81	4
109	109	2
48	75	1
11	11	5
26	26	3
161	161	3
52	52	3
52	205	1
160	160	2
93	93	1
114	114	2
179	179	4
170	170	4
46	46	3
11	15	1
176	177	1
7	7	5
92	230	2
213	213	1
54	55	1
118	118	7
35	36	1
6	6	2
40	41	1
68	79	1
28	29	3
246	246	1
91	92	1
165	165	1
175	175	1
36	36	2
182	182	5
173	177	1
94	95	2
110	110	3
50	50	2
35	35	2
211	235	1
234	234	3
200	200	3
17	17	2
201	201	1
177	190	1
24	24	2
181	181	3
54	61	1
60	60	1
21	29	2
74	77	1
240	240	1
197	197	3
79	89	1
221	222	2
155	155	1
77	79	1
243	243	2
207	207	4
44	44	2
87	89	1
1	35	1
205	206	1
236	236	6
45	45	7
64	183	1
121	121	1
224	225	2
110	111	1
212	212	2
216	218	2
144	145	1
147	147	1
227	227	2
14	228	1
3	4	2
208	209	1
43	44	2
208	208	3
63	184	2
38	38	3
215	215	3
22	22	8
97	97	1
180	180	1
92	92	3
118	119	3
36	37	1
44	92	1
41	41	3
40	40	2
28	28	4
25	25	5
222	223	3
80	86	1
223	223	5
72	75	3
199	200	1
107	107	3
224	224	2
215	216	1
76	76	2
94	94	1
188	188	2
25	156	1
59	59	1
237	240	1
35	116	2
198	198	1
159	159	2
63	63	1
0	0	1
203	218	2
75	75	1
209	209	3
88	88	1
114	115	4
85	85	4
211	218	1
111	111	9
175	176	2
147	151	1
225	226	3
219	220	4
117	117	3
65	100	1
66	116	1
53	53	2
77	77	1
111	112	1
82	82	3
158	158	2
166	166	1
185	185	3
56	167	1
101	101	2
37	37	2
64	64	3
201	212	1
32	32	4
18	19	1
21	21	1
69	70	2
113	113	3
233	234	1
211	211	1
171	172	1
237	237	2
91	110	1
10	11	1
42	43	1
20	20	2
94	120	1
19	19	4
106	107	2
57	57	2
204	205	2
85	145	1
98	98	2
210	210	2
212	213	2
206	206	2
153	154	1
151	151	3
45	113	1
4	4	2
196	196	2
112	112	4
162	163	2
197	200	1
239	242	1
68	69	1
166	167	1
16	34	1
85	86	1
45	54	1
16	16	1
231	231	3
205	205	3
229	230	2
244	244	1
156	156	3
3	3	1
27	27	2
61	63	1
179	185	1
54	117	1
238	238	3
208	220	1
91	91	2
43	226	1
89	89	2
193	195	1
188	189	2
219	248	1
177	177	2
47	47	1
184	185	1
50	100	1
187	189	2
2	5	1
178	181	1
50	58	1
34	34	3
185	186	1
30	31	2
103	103	1
14	14	2
10	10	1
232	232	2
92	228	1
153	153	3
213	219	1
74	74	2
77	96	1
220	220	1
103	106	1
58	58	1
169	171	1
116	116	2
37	38	1
219	219	1
182	201	1
75	77	1
191	225	1
178	192	1
198	199	1
86	87	1
203	203	2
21	22	1
102	102	1
51	51	2
242	248	1
99	99	1
67	68	1
244	245	1
10	181	1
33	33	2
144	144	1
51	52	2
59	90	1
17	20	1
2	2	1
71	74	1
240	241	1
214	218	2
28	33	1
221	221	2
216	216	2
175	208	1
7	8	1
96	97	1
17	24	1
214	215	1
247	247	1
161	226	1
203	204	2
73	73	1
52	155	1
238	239	1
78	81	1
71	71	1
178	178	1
171	171	1
119	119	1
19	21	1
184	193	1
155	215	1
5	5	2
65	65	3
194	194	1
1	11	1
89	90	1
177	209	1
199	199	2
188	190	1
232	239	2
106	106	1
186	192	1
102	104	1
8	8	2
184	197	1
51	78	1
157	157	1
222	222	2
31	32	1
42	44	1
17	31	1
40	95	1
236	237	1
191	194	1
193	193	1
196	237	1
39	39	1
161	181	1
216	219	1
55	55	1
176	176	1
195	196	1
201	215	1
15	15	1
90	90	1
241	244	1
45	118	1
20	112	1
233	236	1
16	19	1
218	219	2
12	152	1
6	91	1
235	245	1
76	78	1
174	174	1
6	7	2
26	27	1
71	75	1
95	95	2
60	70	1
167	167	1
223	224	1
231	235	1
184	184	1
67	67	1
168	168	1
74	75	1
109	110	1
170	239	1
163	163	1
214	214	1
6	44	1
18	25	1
61	62	1
71	72	1
149	149	1
180	181	1
52	206	1
30	30	1
170	172	1
