12	14	1
98	100	1
102	102	4
98	99	2
87	87	4
107	107	4
133	133	5
95	96	2
131	131	3
127	127	4
13	13	6
87	95	3
17	17	2
47	47	3
3	118	2
34	35	3
85	86	1
42	42	3
17	34	2
109	109	3
73	73	5
26	26	3
125	130	2
126	126	4
91	91	3
16	16	6
30	30	5
92	92	4
68	69	1
72	72	2
59	59	2
82	120	2
97	98	1
104	105	4
3	3	2
11	11	6
105	105	2
1	119	1
51	51	1
113	124	1
36	36	3
17	35	3
23	24	4
6	107	1
66	66	4
6	7	1
78	78	3
118	119	1
10	60	1
59	60	1
105	106	5
37	37	1
3	4	1
8	8	2
114	114	1
62	63	3
28	29	1
132	132	3
116	116	2
57	58	1
48	129	1
107	108	4
81	81	1
74	76	2
32	32	5
27	28	1
94	94	5
63	63	2
115	115	3
83	84	4
113	113	4
102	103	1
115	116	1
19	19	3
103	103	2
43	57	1
60	60	4
35	44	1
29	29	4
101	102	2
106	106	3
88	88	1
121	121	2
5	5	4
57	60	1
19	36	1
61	61	6
43	44	3
14	14	1
84	84	2
1	75	1
1	64	1
25	25	1
77	77	1
83	83	3
4	4	6
69	69	3
15	16	2
81	84	1
95	95	4
134	134	1
44	44	2
110	110	4
119	119	6
43	56	2
41	41	2
114	115	1
75	75	3
11	12	2
32	50	1
86	87	1
86	104	2
78	79	1
122	122	2
79	79	2
81	82	2
120	120	2
68	68	4
71	71	1
22	23	1
70	70	3
48	48	2
100	102	2
96	97	1
31	31	3
56	56	3
6	6	2
123	123	2
128	128	2
82	82	2
112	112	3
35	36	1
76	76	3
20	23	1
77	93	1
16	123	2
69	70	1
130	130	2
35	102	1
7	7	2
118	118	1
33	33	2
47	111	1
33	44	1
86	86	4
43	43	2
94	134	1
45	45	3
96	96	3
9	10	1
99	99	4
40	41	3
22	22	2
129	129	2
35	35	4
86	93	1
74	74	2
78	120	1
16	37	2
21	22	3
97	97	1
44	59	1
15	15	1
110	128	1
15	17	2
125	125	2
9	9	2
63	65	1
1	1	1
76	77	1
84	121	1
104	104	1
32	36	1
92	93	3
116	130	1
113	117	1
97	132	1
108	111	1
46	47	1
85	121	2
80	82	1
58	122	1
23	91	1
108	108	1
93	93	2
65	65	1
41	42	1
25	105	2
76	123	1
23	26	1
73	74	1
84	122	1
4	118	1
90	91	1
2	2	2
73	119	1
110	127	1
5	59	1
26	27	1
9	11	1
91	92	1
57	59	1
12	13	1
28	44	1
115	127	1
18	18	2
67	67	2
79	94	1
21	21	1
20	20	3
81	132	1
124	124	1
35	45	1
64	64	2
108	109	2
80	81	1
63	75	1
84	133	1
0	0	3
19	21	1
111	111	3
127	128	1
97	126	1
58	58	1
70	71	2
90	90	3
15	38	1
10	10	2
119	120	1
56	57	1
36	47	1
90	106	1
101	101	1
95	133	2
87	88	1
120	121	1
25	26	1
132	133	1
96	98	1
98	98	1
36	40	1
120	123	1
124	134	1
39	39	1
57	57	1
112	113	1
130	131	1
7	35	1
103	133	1
16	55	1
80	80	1
18	20	1
113	115	2
34	34	1
121	122	1
38	39	1
64	65	1
37	38	1
112	124	1
42	43	1
