108	138	1
106	106	5
87	87	1
102	102	2
3	3	6
136	137	2
9	9	8
15	15	7
2	2	8
84	84	1
69	90	1
90	91	1
27	27	6
153	153	5
126	133	2
42	42	10
97	97	5
17	51	1
43	43	7
101	132	1
86	87	3
11	11	8
44	46	2
155	155	7
5	5	6
87	158	1
14	14	7
77	77	3
58	58	2
20	21	5
163	166	1
121	121	3
13	13	4
110	111	2
103	104	3
64	78	1
104	104	5
39	39	3
148	159	1
21	22	2
81	81	3
79	137	1
66	67	1
90	90	7
38	86	1
97	98	1
152	152	1
96	96	2
26	26	3
107	107	4
163	163	5
19	19	6
35	35	8
111	119	1
48	49	2
167	167	4
72	72	1
116	118	2
5	6	2
126	126	4
97	99	1
46	48	2
1	1	7
53	72	1
122	122	3
8	9	3
103	103	2
120	133	1
16	16	3
138	139	1
158	158	11
45	45	10
109	109	5
1	2	4
79	80	3
74	115	1
169	169	3
46	47	3
138	138	3
101	123	1
10	10	8
79	79	7
6	7	2
2	34	1
169	170	2
139	140	2
82	82	3
149	149	6
83	83	4
127	127	3
44	160	1
108	109	4
129	149	1
13	16	2
139	139	5
86	86	3
91	91	6
151	160	2
62	66	1
45	139	1
71	71	8
154	155	5
48	48	2
68	74	2
19	47	2
25	121	1
69	79	1
126	160	1
123	151	2
130	130	6
18	18	2
85	88	2
15	144	1
94	94	2
138	162	2
53	142	1
142	152	2
137	137	8
17	18	3
164	164	2
67	69	1
136	136	6
88	95	1
74	111	1
34	35	4
127	131	1
78	114	2
62	62	2
51	51	7
19	21	2
142	144	2
74	75	2
112	112	2
76	76	1
75	75	1
69	69	4
134	147	1
125	125	1
151	151	5
115	115	3
87	88	4
161	165	1
162	162	4
94	95	1
157	157	4
6	6	3
16	17	1
9	10	3
24	24	1
88	88	5
7	7	6
4	4	7
40	40	6
89	89	5
111	112	2
150	151	1
107	108	4
144	162	1
15	16	1
44	44	7
127	129	1
12	116	1
128	129	2
1	85	1
28	28	3
78	78	3
8	8	3
168	168	1
133	134	2
150	150	6
113	113	3
165	165	7
9	22	1
37	50	1
128	128	2
151	152	2
101	104	1
155	157	1
64	64	2
58	85	1
142	169	1
147	147	4
116	116	1
142	142	2
68	69	4
20	20	3
49	49	7
106	107	3
156	156	8
71	80	1
144	144	4
159	159	3
12	12	7
51	64	1
57	82	1
36	36	2
100	101	2
141	141	3
102	103	1
100	147	1
17	17	8
22	22	4
14	15	1
170	170	1
77	78	3
26	27	1
134	136	1
93	93	6
21	95	1
98	98	2
93	98	1
71	100	1
13	14	1
97	110	1
91	95	1
157	158	1
63	63	2
118	128	1
145	148	2
15	24	2
73	73	1
55	55	5
23	23	3
54	54	3
21	23	1
110	110	3
58	62	2
52	52	2
160	161	3
46	46	4
133	161	1
7	12	1
19	45	1
143	143	3
118	118	5
164	165	2
86	103	1
105	109	2
81	82	1
146	148	2
147	149	1
74	74	3
119	149	1
154	166	1
125	126	1
150	157	1
5	13	1
129	129	5
53	53	1
80	80	2
145	145	5
154	154	3
135	135	4
73	76	1
122	142	1
46	143	1
50	50	4
134	138	1
134	135	1
126	139	1
0	1	2
24	25	1
67	67	4
76	78	1
47	49	1
83	112	1
152	154	1
134	134	2
69	75	1
46	49	1
155	156	1
161	161	2
34	34	3
141	142	2
133	136	1
151	158	1
65	66	2
17	41	1
11	14	1
45	48	1
121	122	2
69	101	1
108	108	2
84	85	1
134	160	1
159	168	1
90	92	1
160	160	5
165	168	1
140	141	1
37	37	4
106	110	1
100	100	2
118	130	1
75	81	1
8	48	1
70	82	1
168	169	2
105	114	1
144	145	1
77	79	1
148	150	3
56	56	1
129	130	1
14	154	1
123	123	2
131	170	1
144	163	1
42	43	2
152	153	1
39	46	1
162	163	2
74	84	1
139	161	3
1	48	1
3	33	1
131	131	5
55	56	1
119	120	1
101	101	1
44	45	1
101	102	2
131	146	1
105	105	3
151	155	1
92	94	1
150	154	1
154	157	1
105	106	1
116	138	1
18	19	3
133	133	1
64	66	1
47	47	5
66	72	1
120	121	1
69	72	2
147	155	2
132	132	4
114	114	5
36	39	1
122	123	1
123	126	1
36	37	1
131	163	1
45	49	1
20	22	1
95	98	1
23	25	1
92	155	2
132	134	2
16	43	1
112	114	1
36	44	1
84	89	1
28	34	1
33	34	1
70	72	1
85	85	1
135	161	1
96	97	1
64	67	1
91	110	1
21	24	1
104	105	1
55	57	1
161	162	1
33	33	1
16	44	1
68	68	1
41	41	1
4	11	1
130	133	1
119	119	1
148	162	1
143	148	1
120	122	1
94	98	1
39	40	1
131	136	1
40	42	1
23	24	2
134	163	1
153	154	1
146	162	1
146	152	1
66	66	2
18	113	1
153	162	1
122	146	1
65	65	1
159	160	1
11	13	1
50	51	1
144	147	1
134	139	1
55	68	1
10	20	1
105	144	1
57	57	1
100	161	1
54	55	1
118	129	1
20	38	1
148	148	1
89	91	1
49	50	1
130	131	1
135	136	1
15	158	1
124	163	1
118	119	2
148	166	1
8	10	1
149	150	1
69	108	1
16	26	1
7	10	1
16	86	1
124	124	2
57	63	1
124	139	1
25	25	1
117	117	1
