2	3	1
154	154	3
24	25	1
150	150	1
99	117	1
57	57	2
27	29	2
105	115	1
113	113	4
99	99	3
45	45	2
152	152	4
39	39	2
71	71	3
74	74	2
122	122	3
55	55	3
46	47	2
9	9	4
8	8	2
47	47	3
128	128	4
44	44	1
110	110	2
138	139	1
117	117	5
25	25	5
86	100	1
85	87	1
151	151	3
148	148	3
136	137	4
123	123	4
129	130	2
147	148	1
14	77	1
133	138	1
36	39	1
110	115	1
91	93	4
10	10	3
53	53	4
147	149	1
49	50	3
55	56	1
39	153	1
4	4	1
31	32	1
41	41	2
35	36	1
29	29	2
81	81	1
91	92	1
72	79	1
32	32	3
82	82	1
116	117	3
31	37	2
93	94	1
82	83	2
93	95	1
78	78	2
144	145	1
42	68	1
153	153	4
150	151	3
62	63	1
13	13	3
105	125	1
117	122	1
87	88	3
14	14	3
111	112	1
112	113	1
96	96	2
146	146	4
94	94	4
98	98	3
91	98	1
76	76	4
54	55	1
101	102	1
24	24	3
20	39	1
130	145	3
140	140	1
108	108	3
73	73	2
129	131	2
106	122	1
79	84	1
135	138	1
11	11	3
79	79	5
21	21	2
74	87	1
28	29	2
140	149	1
112	112	2
118	119	1
97	99	1
25	26	1
23	23	7
43	44	1
12	12	2
38	38	1
125	125	2
114	114	2
7	7	2
52	52	2
138	138	3
143	143	2
106	132	1
139	148	1
84	84	3
33	34	2
8	17	1
15	15	2
17	17	2
106	106	1
111	111	3
132	132	4
111	114	2
149	150	1
42	43	1
64	64	3
3	3	5
126	126	1
123	129	1
51	56	1
85	85	4
17	18	2
67	67	1
86	86	3
21	85	1
129	129	3
48	56	1
87	87	2
99	115	1
86	113	1
95	95	2
58	58	2
96	98	1
107	114	1
109	109	1
149	149	3
134	134	1
25	117	1
92	105	1
53	56	1
55	78	1
13	15	1
56	56	4
47	48	1
20	20	2
104	105	1
106	115	1
134	135	1
49	49	2
102	102	2
133	133	3
123	124	2
9	10	3
68	68	1
38	39	1
36	36	2
31	46	1
124	124	1
67	106	2
37	37	2
121	122	1
77	77	1
142	142	1
138	141	1
83	83	2
3	6	1
141	141	1
8	9	2
39	40	2
127	141	1
106	131	1
44	45	1
12	13	1
100	100	1
131	131	2
102	103	1
5	6	1
27	45	1
42	42	2
137	145	1
126	128	1
61	62	1
6	37	1
136	136	4
137	137	1
103	103	3
54	54	1
68	128	1
100	119	1
147	147	3
53	54	2
137	143	1
132	133	1
27	27	1
19	19	1
18	18	4
51	52	1
145	146	2
38	40	1
130	130	1
101	105	1
11	27	1
144	144	2
84	139	1
33	33	2
35	35	2
50	53	1
86	87	2
56	57	1
98	100	1
64	66	1
72	72	1
103	105	2
18	19	1
145	149	1
89	105	2
19	21	1
145	145	1
38	69	1
12	68	1
65	65	1
130	133	1
69	69	1
16	138	1
15	16	1
70	70	1
73	74	2
85	100	1
55	62	1
111	120	1
122	123	1
97	97	3
40	40	2
23	31	1
84	85	1
121	121	1
24	41	1
6	7	1
109	139	1
50	50	1
62	62	1
131	147	1
104	104	1
142	144	1
6	6	1
107	107	1
122	131	1
135	135	2
7	41	1
119	134	1
58	79	2
93	98	1
66	93	1
107	108	1
61	66	1
120	120	1
4	5	3
96	99	1
107	116	1
70	118	1
127	127	1
119	119	1
10	27	1
16	16	1
116	116	1
40	54	1
