115	115	3
94	111	1
125	126	2
97	98	2
72	73	2
109	109	6
37	38	1
111	111	3
119	119	7
129	129	5
95	95	6
20	20	2
97	97	2
134	134	8
33	33	1
79	80	1
0	11	2
118	118	3
125	125	6
78	78	5
86	88	2
107	108	1
107	117	1
75	75	8
111	112	3
17	17	4
91	91	7
103	104	2
130	131	1
120	122	2
87	87	6
106	106	4
133	133	11
72	72	3
130	130	4
139	140	1
11	12	2
107	107	1
84	84	2
14	14	5
124	125	2
118	119	1
131	131	2
117	117	6
6	8	2
114	116	1
13	16	2
98	98	2
128	129	2
120	120	4
138	138	2
123	132	1
137	138	3
126	126	3
4	4	3
32	32	1
127	127	1
90	90	3
123	123	4
74	75	2
120	121	1
101	107	1
7	9	3
80	80	3
35	35	3
136	138	1
91	101	1
37	37	3
121	121	4
38	38	3
34	34	2
116	116	11
119	121	1
100	100	5
104	104	5
110	111	3
19	20	1
106	107	1
112	112	4
18	19	1
105	105	3
6	6	2
0	0	3
101	102	2
112	113	1
122	122	2
8	8	3
88	88	1
74	77	1
87	122	1
71	100	1
28	31	2
132	132	4
130	136	1
17	19	1
96	96	3
19	19	4
96	139	1
37	71	1
15	15	6
18	18	1
108	108	2
117	119	1
123	125	2
109	122	1
101	101	4
27	27	1
1	1	3
139	139	1
136	137	1
89	89	3
79	107	1
123	133	1
77	77	3
11	11	3
17	18	2
126	130	2
93	93	3
94	96	1
116	123	1
90	94	1
87	117	1
76	100	2
114	115	2
1	6	1
78	85	1
0	10	1
102	102	6
121	122	1
104	116	1
87	88	2
35	36	1
95	96	4
112	117	1
109	110	1
79	79	3
140	140	4
73	74	2
71	73	1
12	19	1
123	124	2
3	4	2
106	120	1
83	83	2
83	85	2
137	137	1
69	69	1
16	16	3
36	36	2
38	111	1
124	124	1
5	5	1
126	128	1
128	130	1
110	110	4
113	113	2
81	81	1
76	76	2
125	130	1
93	124	1
92	92	2
90	114	1
4	14	1
87	121	1
71	72	1
71	71	4
105	106	1
2	2	5
13	102	1
133	134	3
85	85	1
104	105	2
36	37	1
3	3	2
106	112	1
105	107	1
75	77	1
89	94	1
90	123	1
81	103	2
77	79	1
11	17	1
12	12	1
88	89	1
126	127	1
126	131	1
131	132	1
100	137	1
72	95	1
129	130	1
119	120	4
81	82	1
103	103	4
7	8	1
106	118	1
87	111	1
13	13	2
105	108	1
6	7	1
108	109	2
107	127	1
74	74	1
99	99	1
92	93	1
91	97	1
104	128	1
33	34	1
104	106	1
73	73	1
135	135	1
74	79	1
107	114	1
1	2	1
77	78	1
7	7	1
79	84	1
111	122	1
90	139	1
17	20	1
