13	15	1
154	154	7
225	225	5
49	49	4
105	106	1
196	197	2
218	218	4
151	151	3
211	211	1
219	219	3
86	86	6
45	54	1
29	32	1
221	221	5
2	5	1
209	209	7
205	205	5
106	106	1
65	65	2
87	238	1
203	207	1
26	26	2
50	59	3
198	201	1
74	75	1
39	39	3
56	56	4
62	63	1
39	190	3
235	235	3
22	22	2
107	107	1
178	185	1
152	153	1
117	120	1
18	18	5
5	5	5
4	46	1
55	57	1
172	172	6
173	173	2
111	111	4
42	42	2
165	178	3
69	73	1
58	58	2
175	175	6
111	112	2
102	105	1
201	211	2
3	4	2
208	208	2
118	118	4
29	30	1
94	94	1
97	98	2
245	245	3
166	166	1
192	192	2
170	171	1
31	31	4
30	30	9
16	16	2
164	164	4
191	191	2
213	220	2
114	114	3
110	110	10
157	206	1
156	156	2
27	27	3
146	160	1
183	183	3
234	234	5
117	117	4
76	77	2
19	153	4
223	223	3
237	237	4
10	10	4
117	118	1
15	15	4
188	188	4
169	171	1
208	209	1
72	72	2
176	177	4
43	43	4
50	51	2
29	179	3
199	199	1
220	221	1
4	4	6
37	37	5
68	99	1
206	206	1
180	181	2
32	33	1
49	238	1
112	112	2
113	113	1
231	231	3
8	22	1
216	218	2
147	152	1
219	222	1
237	241	1
22	26	2
20	20	4
234	237	1
187	188	2
227	227	5
181	181	2
34	35	2
233	233	3
199	200	2
81	82	1
110	111	2
47	47	5
46	46	5
213	213	4
205	206	2
87	96	3
47	48	1
230	234	1
146	153	2
206	212	1
45	235	2
204	205	1
218	219	2
241	244	1
14	44	1
193	194	2
184	184	4
168	168	2
203	229	1
85	85	2
194	194	2
44	44	2
7	7	3
181	182	2
204	204	5
6	40	2
202	227	1
120	120	1
229	229	7
30	31	1
1	15	1
207	207	5
38	38	4
197	197	2
24	24	2
220	220	2
46	52	1
157	157	3
104	104	3
112	115	1
242	242	3
233	246	1
216	237	2
198	218	1
100	101	2
89	89	1
105	172	2
189	217	1
78	83	1
216	216	2
10	11	1
223	245	1
60	81	1
210	211	2
188	217	1
63	63	1
173	182	1
26	27	1
60	60	3
213	214	5
233	234	2
169	169	2
102	217	1
109	109	2
222	222	1
101	165	2
41	41	1
146	155	1
40	42	1
237	238	2
240	240	8
186	186	6
118	119	1
115	115	3
201	201	3
220	236	2
16	44	1
237	240	2
78	78	2
218	222	1
84	85	1
193	199	1
153	153	1
161	180	1
41	206	1
1	2	5
238	238	2
6	38	1
14	14	2
163	174	1
101	103	1
119	119	2
179	180	1
165	166	1
73	74	3
214	214	4
232	232	5
40	40	1
75	76	3
55	56	2
180	231	1
49	240	3
159	159	4
170	170	2
3	5	2
236	237	5
158	159	1
102	102	1
167	167	3
189	219	1
28	28	2
189	189	3
102	106	1
168	172	1
198	198	2
108	164	1
166	174	1
77	78	2
69	69	1
180	180	2
73	73	1
168	169	2
246	247	2
102	104	1
6	6	3
162	162	4
36	39	1
59	84	1
55	112	1
32	32	2
165	165	3
84	112	2
44	53	1
241	241	2
85	108	1
67	91	2
200	200	4
231	233	1
44	45	1
204	222	1
216	222	1
35	35	2
248	248	2
61	62	1
116	117	1
21	35	1
217	217	4
224	224	2
114	115	1
185	185	3
181	197	1
103	103	1
49	50	2
212	212	1
53	68	1
48	48	2
115	116	1
21	21	2
176	176	2
89	90	2
99	99	1
40	41	1
82	84	1
19	19	2
177	177	1
8	8	2
29	29	2
177	242	1
245	247	1
103	119	1
6	16	1
174	224	1
9	10	2
102	103	1
95	248	1
244	244	3
217	237	3
49	58	1
147	147	2
17	18	1
38	39	2
228	228	3
240	241	4
226	226	1
195	220	1
155	211	1
208	218	1
112	114	1
237	248	1
186	187	1
37	38	1
209	218	1
96	106	1
114	116	1
235	237	1
236	236	2
100	118	2
155	155	2
94	95	1
24	26	1
187	187	1
100	100	2
8	10	1
209	232	1
172	194	1
158	158	2
93	93	3
113	117	1
88	106	1
182	183	1
1	16	1
46	63	1
81	86	1
39	156	1
78	79	1
223	224	2
157	159	1
105	107	3
173	214	1
91	91	1
50	98	1
239	239	1
10	227	2
112	113	3
72	78	1
56	58	1
243	243	3
154	155	2
4	17	1
203	234	1
3	6	1
212	213	1
34	34	4
9	9	2
178	179	1
50	56	1
50	50	3
238	240	1
64	64	2
42	43	1
178	216	1
51	61	1
220	222	1
88	90	2
105	108	1
57	58	1
242	243	1
5	6	2
21	22	1
76	76	2
46	47	1
61	61	1
159	163	1
190	191	1
109	110	1
88	239	1
166	183	1
55	55	3
17	17	1
194	195	1
180	183	1
52	52	1
178	178	1
169	222	1
13	13	1
201	202	1
232	233	1
156	202	1
163	163	1
98	98	1
22	205	1
46	233	1
33	33	2
50	239	1
203	203	2
211	218	1
72	218	1
172	173	1
18	112	1
107	163	1
18	33	1
219	238	1
15	16	1
32	157	1
220	244	1
184	185	1
32	43	1
239	240	2
241	243	1
162	178	1
54	54	1
219	237	1
171	245	1
184	247	1
1	1	2
195	197	1
10	17	1
168	222	1
101	102	1
209	213	1
27	38	1
215	215	1
180	182	1
182	211	1
225	226	2
221	242	1
3	3	1
108	108	1
23	24	1
188	244	1
174	183	1
235	247	1
55	85	1
230	231	1
216	217	1
76	115	1
205	208	1
56	83	1
36	40	1
238	239	1
8	9	1
110	113	1
150	155	1
175	177	1
33	154	1
217	239	1
79	79	1
42	229	1
196	218	1
13	14	1
68	69	1
238	241	1
179	179	1
36	36	1
12	34	1
82	86	1
209	219	1
86	144	1
178	238	1
