56	58	1
7	26	1
111	111	1
132	133	2
24	24	1
65	65	1
54	55	2
122	122	4
115	124	1
49	49	2
3	3	3
95	95	1
39	39	1
12	12	1
78	78	3
154	154	3
34	34	3
15	16	1
73	151	2
64	65	1
70	70	3
25	27	1
139	139	1
109	109	1
43	43	3
16	16	2
69	69	1
55	56	2
133	133	3
40	40	3
3	37	1
38	38	2
85	112	1
96	97	1
117	117	3
83	117	1
98	98	1
70	71	1
123	123	4
139	141	2
138	138	3
144	145	2
109	131	1
7	7	2
62	62	2
41	41	3
96	96	1
151	151	2
148	148	2
142	143	2
143	146	1
81	81	3
99	99	3
68	68	1
116	116	1
132	132	2
66	111	1
66	67	1
127	139	1
77	78	2
99	126	1
84	84	1
124	124	1
25	26	1
56	56	1
126	145	1
63	82	1
131	150	3
46	47	1
119	119	1
80	85	1
73	73	2
8	8	2
35	121	1
87	126	2
109	110	1
38	39	1
25	35	3
25	123	1
102	102	2
15	15	4
32	32	2
117	130	1
79	79	2
76	78	1
131	131	1
65	75	1
116	128	1
76	105	1
13	123	2
67	67	1
152	152	1
100	128	1
48	48	1
147	148	3
141	141	2
43	44	2
99	110	1
30	31	2
36	36	1
27	27	1
120	121	2
96	99	1
30	30	2
56	57	1
23	23	1
95	121	1
141	144	1
25	25	1
29	33	1
83	83	1
2	3	1
35	83	1
3	54	1
40	44	1
137	138	1
128	131	2
74	102	1
110	110	1
62	89	1
19	120	1
153	153	1
85	85	1
21	21	2
50	50	1
18	19	1
134	134	1
20	20	1
23	24	1
45	46	1
106	106	1
126	126	1
106	107	1
135	135	1
67	71	1
121	121	1
29	29	1
115	116	1
4	6	1
35	35	1
13	13	2
147	147	1
127	128	1
28	28	1
94	97	1
74	74	1
105	131	1
11	11	2
138	139	2
64	69	1
129	153	1
16	25	1
93	94	1
10	10	1
101	101	1
20	22	1
135	150	1
92	97	1
45	45	1
53	53	1
116	140	1
35	80	1
107	107	1
69	73	1
111	116	1
126	141	1
140	151	1
5	34	1
81	82	1
74	81	1
125	125	1
127	127	1
37	37	1
5	5	1
104	138	1
139	142	1
48	53	1
136	137	1
108	128	1
17	24	1
84	108	1
82	82	1
108	129	1
149	150	1
19	20	1
117	139	1
118	119	1
22	24	1
125	147	1
77	150	1
86	99	1
47	47	1
11	15	1
129	129	1
34	35	1
72	72	1
129	133	1
56	154	1
