83	83	4
86	103	1
45	45	3
111	111	3
112	112	6
14	34	2
119	119	1
77	77	2
129	129	1
57	116	2
91	91	2
64	116	1
71	71	2
67	67	1
104	104	1
79	86	1
65	65	3
26	26	2
97	97	6
85	85	3
22	22	2
66	66	2
34	34	1
57	57	3
130	130	4
58	88	1
59	60	1
120	120	1
132	132	3
119	121	1
34	42	1
14	21	1
92	92	4
107	108	1
128	128	1
5	5	1
59	61	1
72	72	3
59	72	2
93	93	1
46	46	6
104	105	2
123	123	5
42	42	2
43	45	1
49	49	3
126	126	2
16	16	1
131	131	3
20	20	2
100	104	1
113	115	1
72	73	1
27	28	2
122	123	1
32	32	1
27	39	1
78	101	1
113	113	5
117	117	3
86	86	1
109	109	5
0	1	1
54	62	2
62	62	1
64	64	3
87	107	1
60	103	2
118	118	4
80	94	1
101	102	1
33	86	1
97	98	1
64	78	1
128	129	1
29	39	1
112	113	1
51	51	2
31	49	1
65	130	2
72	74	1
89	89	3
30	30	1
29	29	1
23	23	2
12	13	2
88	96	1
100	107	1
116	116	2
125	125	1
124	124	1
110	110	3
56	56	3
18	21	1
58	92	1
115	130	1
48	48	2
108	108	1
50	50	1
44	58	1
49	52	1
96	96	1
31	31	1
28	28	3
11	12	1
53	53	2
94	94	1
64	129	1
38	57	1
22	23	1
80	80	2
59	59	2
3	48	1
39	40	1
71	92	1
115	115	2
13	16	1
122	122	2
78	86	1
25	25	3
44	44	1
75	75	1
10	10	1
27	27	1
17	29	1
103	103	1
15	33	1
96	98	1
23	26	1
15	34	1
24	24	1
74	74	1
81	81	1
47	47	1
2	2	1
68	68	2
55	55	1
78	129	1
73	73	3
27	29	1
60	62	1
13	13	1
110	111	1
90	91	1
18	19	1
99	99	1
106	107	1
133	133	1
81	85	1
101	101	1
105	105	1
99	101	1
87	115	1
0	0	1
106	106	1
3	3	1
102	103	1
90	90	2
121	121	2
62	63	1
114	116	1
70	70	1
64	65	1
85	91	1
90	129	1
40	70	1
6	57	1
60	60	1
2	5	1
87	87	1
41	42	1
124	125	1
84	84	2
18	26	1
66	96	1
37	79	1
69	69	1
65	66	1
98	102	1
43	48	1
49	116	1
105	106	1
19	19	1
39	39	1
122	124	1
54	55	1
40	40	1
93	94	1
86	99	1
86	107	1
