181	181	1
146	146	1
141	141	3
40	40	3
31	31	3
118	118	3
166	166	5
24	25	1
124	124	1
4	4	3
157	162	2
196	196	3
56	114	1
14	14	2
122	122	2
35	35	2
76	76	2
29	29	3
0	0	3
25	25	1
23	37	1
73	74	1
154	157	1
132	132	2
151	151	2
49	49	3
37	37	4
114	115	1
78	79	1
125	125	3
4	5	1
55	55	5
41	41	1
151	156	1
78	80	1
58	58	3
158	158	3
159	159	2
191	192	2
45	46	2
100	100	1
107	107	1
160	160	1
68	68	2
65	66	2
183	185	1
16	172	1
61	61	1
178	179	3
62	63	4
110	110	1
3	3	2
180	180	1
162	164	1
94	97	1
43	44	2
47	47	5
56	56	2
21	22	1
88	88	2
27	27	4
75	75	2
21	21	2
177	177	1
60	60	1
1	30	1
142	183	1
27	28	2
9	9	3
30	30	3
74	74	3
26	26	3
19	143	1
144	144	1
44	44	3
121	122	1
142	143	1
42	42	5
80	86	1
23	23	1
131	182	1
163	165	1
74	110	1
18	18	4
10	10	3
178	178	1
70	70	7
12	13	1
35	36	1
83	83	1
163	166	1
0	30	1
163	163	3
8	29	3
113	149	1
196	197	1
179	179	1
79	80	1
183	183	1
22	22	1
156	156	1
192	192	3
7	7	4
163	168	1
147	147	1
89	89	2
96	96	2
181	182	1
195	195	1
124	125	3
94	95	1
121	121	2
64	64	3
173	173	5
79	90	1
139	139	1
70	71	2
104	104	1
53	54	1
159	165	1
50	196	1
172	174	1
115	115	1
128	128	1
97	98	1
145	145	2
7	9	1
121	182	2
85	85	1
71	71	1
170	170	5
191	191	4
17	23	1
80	90	1
45	45	3
102	102	1
166	168	1
161	162	1
190	190	7
168	168	1
189	189	1
60	146	1
65	65	1
97	97	1
1	24	1
174	175	1
47	50	2
7	8	1
24	161	1
44	46	1
187	187	2
127	133	1
152	152	1
119	119	2
193	194	1
150	150	2
0	8	1
141	157	1
132	169	1
126	127	2
28	28	2
6	8	1
13	13	3
77	77	1
185	185	1
154	154	2
181	189	1
6	6	2
143	178	1
34	34	3
5	28	1
51	51	3
96	102	1
50	50	1
16	16	2
44	45	1
147	158	1
6	16	1
176	179	1
137	149	1
40	41	2
59	60	1
152	153	1
40	47	1
94	94	1
127	127	1
193	193	1
159	160	1
112	148	1
5	5	2
38	56	1
89	90	1
145	168	1
112	149	1
11	11	1
21	27	1
1	2	1
57	58	1
22	23	1
18	19	1
36	36	3
138	138	3
13	14	2
57	133	2
148	148	1
16	17	2
75	76	2
40	114	1
83	85	1
43	136	1
39	39	1
8	9	1
174	174	1
105	105	1
73	73	2
62	62	1
99	100	1
146	162	1
0	1	1
176	176	1
17	32	1
164	166	1
77	81	1
33	33	1
40	71	1
12	12	1
188	188	1
17	17	1
59	59	1
7	22	1
115	116	1
126	126	1
0	34	1
142	156	1
136	137	1
172	172	2
175	175	2
99	99	1
20	20	1
79	84	2
20	142	1
1	1	1
19	20	1
20	27	1
46	47	1
154	155	1
54	56	1
87	87	1
188	189	1
48	48	1
20	25	1
141	142	1
5	32	1
79	79	1
194	194	1
158	181	1
73	114	1
171	171	1
32	37	1
145	148	1
27	29	1
38	38	1
155	155	1
102	106	1
57	65	1
