95	95	3
148	168	2
152	152	5
55	55	1
16	16	1
107	108	2
126	126	2
97	133	1
181	181	3
76	77	1
105	105	3
26	26	2
6	40	1
181	182	1
116	118	1
21	42	1
114	114	2
148	173	1
93	113	1
98	118	5
131	136	1
41	41	3
75	79	1
124	126	1
173	173	5
85	85	1
71	72	2
78	100	1
65	65	2
28	29	1
2	5	2
100	100	1
67	67	1
93	93	1
46	46	2
134	139	1
67	68	1
63	63	2
87	87	2
137	138	1
102	107	1
97	115	1
24	24	2
164	164	3
72	72	1
169	169	1
17	26	1
102	102	2
189	189	2
64	102	1
89	89	2
98	125	1
19	19	3
140	184	1
95	124	1
154	154	2
146	152	1
103	104	1
80	86	4
79	87	1
0	0	3
135	135	1
153	153	1
100	123	1
178	178	2
173	176	1
145	148	1
140	141	1
182	182	2
4	5	1
130	149	1
55	65	1
58	58	2
113	131	1
126	128	2
62	62	1
108	121	2
8	37	1
8	8	1
44	47	1
42	43	1
47	47	2
186	187	1
32	48	1
187	190	1
190	190	2
46	63	2
100	124	1
10	12	1
2	2	2
150	180	1
159	159	2
114	117	1
108	129	1
79	85	1
141	141	2
101	101	3
141	142	1
82	82	2
1	1	1
44	45	1
115	115	1
122	122	1
11	63	1
75	153	2
163	163	1
138	156	1
179	180	2
59	66	3
185	186	2
99	99	1
3	3	1
4	4	3
76	76	1
97	97	2
159	176	1
141	155	1
24	39	1
160	160	3
33	33	3
168	169	1
177	177	1
44	44	2
78	78	3
116	116	2
54	54	2
137	148	1
94	94	2
112	112	2
89	106	1
129	153	1
36	36	3
38	38	2
76	106	1
39	39	3
17	17	1
115	117	1
54	72	1
128	128	1
175	175	3
148	180	2
78	80	2
19	21	1
68	68	2
165	165	3
174	174	3
117	117	1
110	110	3
115	118	1
17	29	1
70	87	1
127	128	1
74	77	1
150	150	4
116	117	1
176	176	1
11	11	1
88	89	2
113	113	3
7	7	1
71	123	1
75	103	1
129	134	2
80	152	1
98	122	1
158	158	2
0	25	2
41	42	1
177	188	1
1	2	1
12	12	3
146	166	1
25	26	1
73	73	3
132	136	1
74	74	1
108	108	1
109	109	1
35	36	1
34	56	1
92	92	4
61	71	1
184	184	1
14	14	2
54	76	1
76	80	1
138	138	2
57	57	1
75	141	1
44	46	1
106	106	1
90	91	1
60	60	1
13	13	1
156	157	1
180	188	1
99	100	1
83	83	3
59	60	1
55	68	1
66	70	1
24	47	1
107	127	1
27	27	1
2	54	1
166	182	1
121	121	1
142	164	1
150	172	1
80	135	1
43	44	2
8	15	2
107	107	2
121	122	1
61	64	1
62	64	1
109	110	2
45	45	1
116	142	1
164	182	1
90	90	1
146	184	1
140	140	1
188	188	1
75	125	1
92	94	1
76	123	1
56	57	1
180	181	1
37	37	2
9	14	1
139	139	1
146	186	1
33	35	1
30	30	1
167	167	2
149	149	1
36	62	1
68	69	1
29	30	1
18	19	1
43	45	1
21	47	1
148	148	1
76	154	1
98	98	2
179	181	1
9	9	1
146	146	1
23	47	1
44	49	1
134	135	2
122	123	1
169	187	1
19	20	1
34	36	1
6	6	1
103	103	1
59	59	1
3	4	1
47	48	1
81	86	1
42	42	1
