84	122	2
130	130	5
79	79	1
31	31	1
152	154	1
122	122	2
175	176	1
14	14	2
117	117	3
108	122	1
134	174	1
111	111	1
147	147	3
56	56	2
141	141	1
39	93	2
9	9	4
88	88	1
155	156	1
127	131	2
123	123	3
87	87	1
155	155	4
95	118	1
157	159	1
148	148	2
67	124	1
66	135	1
111	128	1
117	122	1
0	1	2
1	1	2
75	75	3
172	172	3
26	26	1
109	109	3
2	2	2
117	120	4
61	64	2
44	44	3
140	140	2
159	159	1
26	27	2
60	60	3
77	77	1
149	150	3
21	21	1
59	60	1
44	45	1
37	38	3
32	33	1
127	127	3
27	27	1
66	66	2
144	144	2
168	168	2
127	128	4
163	165	1
153	153	1
35	35	5
165	165	4
146	146	1
61	65	1
121	121	1
23	51	1
138	138	1
25	25	2
99	100	2
5	14	1
40	45	1
15	15	3
130	131	1
5	5	4
29	29	3
28	28	2
114	115	3
116	116	3
119	120	2
40	40	3
37	39	1
59	87	1
124	124	1
7	7	1
22	22	1
111	127	1
23	25	1
12	37	1
137	137	3
95	109	1
45	92	2
115	115	2
80	81	2
163	163	5
97	97	4
33	33	2
38	38	2
135	136	2
11	11	2
108	108	2
72	73	2
150	170	1
132	132	1
61	62	2
71	71	1
66	68	1
91	91	1
114	130	1
67	67	3
92	92	1
41	41	3
37	37	1
160	160	1
21	23	2
45	45	3
20	21	3
63	105	1
111	157	1
43	43	2
95	117	1
16	17	2
18	21	1
20	20	2
93	93	3
151	151	1
46	46	1
176	176	2
82	85	1
125	125	1
61	61	1
59	59	1
158	158	2
30	30	4
141	145	1
54	74	1
36	40	3
34	53	2
42	43	2
0	0	1
132	133	1
142	142	1
39	39	1
4	4	2
154	156	1
17	18	1
74	75	1
10	10	1
161	162	2
23	24	1
134	134	3
6	6	1
51	51	1
134	136	1
164	166	1
139	141	1
65	65	3
62	62	1
22	24	1
43	139	1
178	178	2
131	131	4
83	83	2
159	167	1
135	135	1
145	147	1
89	89	2
173	173	2
101	101	1
162	162	3
32	40	1
115	116	1
86	86	3
90	103	1
170	170	2
64	64	2
171	171	1
98	99	1
113	113	2
112	112	2
73	73	4
52	52	1
89	90	2
36	36	1
51	88	1
169	169	1
28	29	2
119	119	3
42	44	1
167	167	1
149	149	3
154	154	1
145	146	1
115	117	1
83	85	1
36	139	1
33	34	1
37	75	1
128	128	1
8	15	1
133	133	4
84	123	1
11	19	1
53	55	1
12	13	2
108	109	1
100	100	1
152	153	1
145	145	1
9	21	1
174	174	1
32	32	1
177	177	1
152	152	1
154	155	1
68	68	1
58	59	2
59	61	1
6	10	1
40	41	1
152	164	1
141	142	1
72	72	1
40	93	1
29	59	1
91	92	1
151	152	1
119	131	1
77	115	1
165	166	1
91	93	1
137	138	1
103	104	1
74	80	1
39	41	1
36	133	1
78	78	1
2	4	1
103	103	2
73	133	1
126	126	1
16	25	1
82	82	1
131	147	1
37	76	1
105	105	1
129	129	1
136	175	1
42	42	1
144	145	1
67	68	1
110	110	1
115	125	1
9	41	1
7	32	1
18	29	1
146	170	1
136	136	1
55	55	1
117	118	1
143	160	1
114	114	1
153	157	1
58	61	1
3	3	1
136	138	1
166	167	1
104	105	1
