41	46	1
91	91	14
90	91	7
47	47	5
80	84	1
88	96	1
35	57	1
78	78	4
53	62	1
57	59	1
32	32	4
37	37	4
43	45	1
52	52	3
69	69	1
45	45	1
92	92	6
77	77	5
31	32	2
69	104	2
94	94	2
90	90	10
47	78	1
88	92	1
44	49	1
46	46	1
49	49	4
26	28	1
55	55	2
68	104	1
38	38	3
81	81	3
29	30	1
105	107	2
40	41	1
48	48	3
100	100	2
110	110	5
106	106	4
113	113	1
31	31	1
76	76	5
98	98	1
89	91	2
85	88	2
109	110	2
104	104	2
61	93	1
56	57	1
95	95	5
53	74	1
55	56	2
30	45	1
42	43	1
29	50	2
77	78	1
74	82	1
109	109	3
23	23	2
91	92	4
90	98	1
54	54	4
52	53	2
47	48	3
90	92	2
97	97	6
67	67	4
27	27	3
26	26	3
60	114	1
96	97	2
93	93	8
60	109	1
94	95	2
35	35	2
40	42	1
60	60	3
74	75	1
92	93	2
69	76	1
68	68	2
103	103	1
89	89	3
27	28	3
24	24	1
111	111	2
103	105	2
25	25	2
80	80	4
64	67	3
70	71	1
31	75	1
24	26	3
23	27	2
37	38	1
75	77	1
85	87	1
53	53	2
71	71	3
73	73	3
51	51	1
88	89	1
21	21	1
88	94	1
20	46	1
88	88	2
81	83	1
44	44	1
71	84	2
41	41	3
53	101	1
62	62	2
61	61	2
114	114	1
46	47	1
75	75	2
37	49	1
80	83	1
112	113	1
85	85	1
105	108	2
88	90	1
22	22	2
32	33	2
86	87	1
71	72	1
84	84	3
83	86	1
97	100	1
99	99	5
59	59	2
52	73	1
96	96	3
107	107	4
61	69	3
54	57	1
108	109	2
96	111	1
29	29	2
101	102	1
79	79	1
75	91	1
72	74	1
54	74	1
59	60	1
49	99	1
42	98	1
108	108	1
43	73	2
87	92	1
82	84	1
74	86	1
84	89	2
19	30	2
42	44	1
61	62	1
76	77	3
25	27	1
58	58	1
77	79	1
63	84	1
99	100	2
90	93	1
62	66	1
68	80	1
105	106	1
42	73	1
78	79	1
39	40	3
101	101	2
30	30	1
22	36	1
65	80	1
25	96	1
43	43	2
32	86	1
93	97	1
60	61	1
107	110	1
29	31	1
32	66	2
28	98	1
56	56	1
40	51	1
36	36	1
28	28	1
102	102	2
44	48	2
105	105	2
66	66	2
61	63	1
83	89	1
41	42	1
27	51	1
62	63	1
72	77	1
23	34	1
33	33	1
87	107	1
35	36	1
93	108	1
34	34	1
82	86	1
48	56	1
53	54	1
39	39	2
91	93	1
42	42	4
81	90	2
36	64	1
67	68	1
96	113	1
34	54	1
51	52	1
61	74	2
22	25	1
40	40	1
38	39	1
82	82	1
58	82	1
100	101	1
63	63	1
81	93	1
56	59	1
66	82	1
84	85	1
86	86	1
60	63	1
50	50	1
21	22	1
31	53	1
61	77	1
41	74	1
25	115	1
40	88	1
85	86	1
