2	2	6
184	184	3
19	19	2
118	126	1
56	57	1
22	31	1
151	164	2
84	84	5
94	98	1
102	108	2
186	186	4
27	27	4
157	157	3
62	64	1
64	65	1
96	96	1
83	83	1
80	80	1
39	39	2
156	157	1
160	164	1
97	98	2
80	81	1
113	113	3
16	16	2
121	121	2
53	53	2
149	166	1
86	86	3
149	149	1
149	150	4
20	20	2
40	40	2
58	58	2
146	147	2
122	122	2
129	129	1
124	125	1
65	70	1
170	184	1
181	181	3
20	24	1
53	55	2
82	85	1
23	23	2
76	76	3
91	94	2
106	108	1
91	92	3
27	30	1
94	96	2
18	18	2
98	98	4
6	53	1
115	115	3
43	44	1
68	69	2
22	22	4
190	190	5
89	89	4
140	140	3
47	47	2
150	150	1
92	143	1
126	128	1
125	125	1
22	26	2
13	45	1
172	173	3
165	165	1
164	184	1
70	97	1
83	84	1
84	140	1
188	190	1
170	189	2
160	167	3
38	38	5
6	6	1
117	117	2
74	80	1
171	172	1
13	13	2
154	170	2
179	179	3
114	125	2
23	44	1
31	115	1
87	87	2
159	159	3
131	131	1
151	185	1
70	71	1
115	138	1
145	145	2
74	75	1
75	75	1
171	171	2
153	153	1
156	156	1
77	77	2
17	17	4
99	106	1
65	65	2
172	172	1
151	151	1
177	177	1
17	23	1
128	128	1
178	184	1
141	141	1
142	142	1
122	125	1
57	57	1
133	133	1
148	148	4
88	88	3
169	169	1
3	3	2
154	154	1
126	126	1
19	20	1
163	167	2
92	92	1
16	54	1
54	54	2
31	31	1
105	105	1
55	55	1
103	110	1
28	30	1
85	86	1
45	45	2
168	168	1
147	147	2
124	124	1
156	174	1
44	110	1
12	12	2
178	178	2
4	5	2
116	116	1
183	189	1
78	78	3
110	122	1
173	177	1
9	9	1
180	183	2
189	189	4
134	134	3
78	94	1
108	120	1
158	158	2
5	75	1
144	145	2
88	89	2
72	72	1
131	135	1
186	187	1
111	111	4
21	21	1
25	25	3
112	112	2
104	104	2
159	163	1
140	154	1
48	48	3
69	70	1
176	176	1
90	90	2
10	12	1
166	166	2
26	27	1
93	93	2
64	64	2
17	18	2
55	57	1
25	38	1
63	63	2
79	79	1
70	70	1
185	186	1
26	26	1
164	164	1
5	5	3
130	130	1
110	110	1
143	144	1
152	152	3
183	183	1
163	163	1
79	80	1
97	97	3
155	156	1
42	42	2
118	119	1
18	19	1
28	28	1
36	94	2
104	107	1
132	132	1
88	96	1
146	160	1
59	93	1
101	104	1
165	182	1
76	109	1
84	85	1
173	173	1
187	188	1
30	32	1
138	138	3
8	8	1
100	100	1
182	182	2
157	158	1
81	81	1
32	33	1
45	46	1
29	35	1
180	181	1
153	184	1
4	4	1
146	146	3
74	74	2
77	78	1
167	167	1
106	106	2
79	109	1
56	56	1
188	188	1
108	108	1
90	94	1
184	185	1
67	67	1
159	160	1
123	139	1
185	185	2
127	129	1
65	100	1
71	72	2
101	101	2
183	184	1
97	150	1
175	175	1
65	66	1
105	108	2
37	38	1
23	24	1
1	1	1
63	65	1
117	118	2
153	155	1
159	189	1
95	95	1
40	82	1
179	180	1
106	107	1
145	152	1
65	71	1
43	43	1
164	183	1
162	162	1
127	128	1
24	24	1
176	178	1
178	180	1
68	71	1
7	7	2
57	58	1
62	63	1
78	81	1
142	143	1
99	99	1
12	13	1
35	35	1
178	179	1
33	34	1
16	60	1
4	6	1
62	62	1
175	183	1
99	100	1
0	0	1
