42	44	1
174	175	1
147	147	4
172	173	3
37	37	1
131	131	2
35	41	1
72	78	1
52	81	2
123	123	2
14	14	2
30	31	1
26	26	2
52	65	1
53	53	1
139	139	7
83	83	1
106	106	2
88	89	2
145	145	1
87	87	1
9	9	2
80	81	3
134	134	3
176	176	1
125	145	1
74	75	1
79	93	1
151	153	2
102	103	1
142	142	6
36	36	6
140	140	2
32	53	1
137	137	2
6	19	1
67	67	4
126	126	5
155	155	1
143	143	1
132	132	2
113	122	1
88	88	2
17	17	3
2	102	2
118	119	1
11	25	1
165	166	2
29	29	1
120	154	1
74	78	1
91	91	1
33	34	1
42	42	2
144	145	1
33	90	1
2	2	1
91	92	1
28	34	1
126	143	1
156	156	1
150	153	1
68	70	1
82	82	1
157	157	3
122	122	1
177	177	1
153	153	1
14	38	1
24	27	1
67	76	1
94	94	3
162	163	2
55	55	2
107	107	1
170	170	3
75	75	2
151	171	1
124	124	1
123	159	1
7	7	1
19	19	1
168	171	1
32	32	1
81	84	3
18	19	1
52	52	1
13	13	1
179	179	2
168	168	1
3	3	1
138	149	1
117	117	2
127	128	1
120	120	1
158	178	1
61	61	2
8	8	1
63	63	2
71	71	1
124	145	1
169	169	3
122	157	1
149	149	4
11	37	1
104	114	1
40	41	2
68	68	1
31	33	1
83	85	1
19	20	1
167	167	1
104	105	3
173	173	4
10	10	2
34	34	1
65	74	2
136	136	2
163	164	1
50	50	3
24	25	1
14	40	1
150	150	2
23	26	1
137	138	1
138	138	1
108	111	1
37	38	3
77	78	1
54	54	3
123	124	2
171	173	1
119	119	1
5	5	3
22	24	3
52	54	1
90	90	1
73	87	1
151	151	1
43	43	1
36	42	1
146	147	1
10	27	1
40	40	2
129	129	1
90	112	1
26	27	2
95	95	1
115	118	1
159	162	2
0	1	1
64	64	1
104	104	2
78	79	1
112	112	2
43	44	1
6	35	1
56	56	1
93	93	1
114	115	1
146	146	1
171	171	2
123	144	1
62	62	1
149	150	1
91	93	1
172	172	1
12	32	1
71	72	1
139	153	1
81	81	1
159	169	1
16	16	2
107	110	1
86	86	1
42	129	1
161	161	1
72	72	2
79	79	1
74	74	2
18	42	1
90	92	1
60	60	1
110	112	1
116	117	1
99	99	3
115	115	3
40	114	1
21	23	1
126	144	1
57	57	1
84	84	1
89	90	1
41	41	1
144	144	1
159	165	1
20	23	1
130	131	1
45	45	1
101	101	1
85	85	1
44	45	1
38	41	1
78	78	1
76	77	1
118	153	1
103	103	1
59	59	1
175	175	1
180	180	1
95	133	1
164	165	1
169	170	1
7	8	1
97	98	1
38	38	1
122	158	1
