50	50	7
123	123	4
71	73	1
89	89	1
18	20	1
49	49	5
57	57	2
24	24	4
72	77	1
100	100	1
21	21	2
34	34	7
25	50	1
91	93	1
25	25	3
91	92	2
112	113	3
98	98	7
31	32	3
88	89	2
109	109	4
74	74	2
38	45	1
31	31	1
46	47	3
69	95	1
104	105	5
107	107	4
125	125	6
61	61	2
31	62	1
89	100	2
16	16	2
10	11	1
117	117	5
99	99	3
127	127	3
90	90	2
59	60	1
126	128	1
19	19	3
106	106	3
45	45	4
58	59	3
110	110	2
77	77	1
72	74	2
65	65	2
124	124	4
67	67	4
65	66	3
93	93	2
108	108	2
34	67	2
88	88	2
25	27	1
81	83	2
96	96	2
29	110	1
80	100	1
38	38	3
103	103	6
23	29	1
47	47	4
101	101	7
49	92	1
54	54	6
131	131	2
78	83	1
130	130	3
48	48	2
129	129	6
72	72	5
104	104	1
78	79	1
43	43	5
27	28	2
126	126	4
121	121	2
43	44	2
32	33	1
70	70	3
52	52	3
94	94	1
62	63	1
118	118	2
102	102	1
59	59	2
23	24	1
23	23	1
64	64	4
7	7	2
113	113	2
77	99	1
79	79	3
42	42	1
111	111	4
41	65	2
20	42	1
107	108	1
68	68	6
87	88	2
75	77	1
92	92	4
122	122	3
121	122	2
127	128	1
128	131	1
40	40	2
98	115	2
21	22	3
11	19	1
73	73	2
56	56	1
11	11	3
20	20	4
120	120	2
93	94	3
13	13	2
27	27	1
60	61	1
126	127	1
19	25	1
113	116	1
91	91	1
69	69	2
8	27	1
103	104	1
66	67	2
84	84	2
132	132	3
17	18	1
75	75	1
9	10	4
111	112	1
106	107	2
116	116	2
38	85	2
16	17	1
43	81	1
54	55	1
15	15	1
39	66	1
14	14	2
118	119	2
62	62	1
32	32	2
25	26	2
27	29	1
10	10	3
45	46	1
8	9	1
33	33	3
2	2	3
116	117	1
25	29	1
86	90	1
26	29	1
75	76	2
51	51	1
58	118	1
22	55	1
19	21	1
85	85	1
33	34	1
72	75	1
120	123	1
30	30	2
112	112	1
26	26	3
99	101	1
20	22	1
72	76	1
115	116	3
48	56	1
9	9	2
119	119	2
83	83	3
82	83	1
5	5	7
29	44	1
115	115	2
17	17	1
29	30	2
44	44	1
76	76	2
114	114	2
88	90	1
15	19	1
104	106	2
75	79	1
105	105	3
1	1	1
127	130	2
54	72	1
68	104	1
101	102	1
22	22	1
133	133	2
37	37	1
42	43	1
109	110	1
41	42	2
46	54	1
81	82	4
100	101	2
77	78	1
128	128	2
29	29	2
30	31	1
41	74	1
72	73	1
95	95	2
66	66	2
53	120	1
70	71	1
59	118	1
72	80	1
6	6	1
7	27	1
79	80	1
38	46	1
110	114	1
102	103	1
125	127	1
39	39	1
110	112	1
18	19	1
112	121	1
71	71	2
26	54	1
41	41	2
108	115	1
122	123	1
84	86	1
112	114	1
15	42	1
52	57	1
45	54	1
42	73	1
97	98	1
45	53	1
69	96	1
39	40	1
43	64	1
83	85	1
69	102	1
81	81	1
44	55	1
