90	90	2
151	151	2
112	117	1
26	32	1
118	118	1
112	112	3
100	100	6
26	39	3
93	94	1
32	32	3
67	69	3
131	132	1
2	2	2
131	137	1
131	131	4
125	125	6
11	13	1
69	132	1
149	149	1
81	85	3
44	44	5
24	24	1
124	125	2
87	87	3
157	157	3
27	28	3
132	132	2
124	126	1
138	138	3
69	118	2
134	157	1
106	107	1
28	29	2
97	97	3
39	40	1
139	139	3
122	137	1
22	24	2
143	143	1
110	110	2
114	124	1
150	150	2
23	23	3
103	103	3
32	54	2
127	151	1
75	76	2
42	42	1
146	146	1
6	7	1
23	24	1
105	105	4
136	136	2
83	89	1
86	87	1
117	120	1
83	83	1
47	47	3
27	27	1
20	42	2
29	29	1
114	114	2
132	133	3
62	79	1
65	65	3
13	13	2
121	121	4
151	152	1
128	154	1
67	68	2
104	106	2
55	55	5
67	67	2
99	99	1
28	28	2
20	20	3
114	123	2
148	149	2
4	4	3
116	116	4
124	124	3
89	95	1
104	104	1
73	73	4
50	50	6
14	14	2
156	156	2
130	133	1
46	46	3
35	35	1
84	119	1
127	127	3
113	113	4
137	137	4
89	89	1
19	34	3
17	18	1
49	52	1
98	98	1
157	158	1
39	39	1
30	30	1
120	120	2
69	69	3
123	123	3
4	5	1
117	118	1
154	154	1
133	133	5
111	111	2
31	32	1
54	54	1
45	45	1
56	56	3
74	74	1
66	66	2
37	37	2
41	77	1
77	77	2
24	51	1
96	97	1
101	101	2
1	1	2
17	19	1
115	116	1
43	43	1
114	115	2
22	22	1
42	43	1
135	135	5
128	128	3
79	79	2
36	36	1
119	122	1
15	16	1
136	137	1
31	31	1
69	81	1
64	64	1
17	35	1
80	81	2
115	115	2
138	153	1
71	71	1
118	119	1
141	141	1
140	151	2
158	158	2
120	121	1
150	154	1
53	53	1
90	91	1
12	12	2
62	88	1
38	45	1
132	139	1
98	103	1
155	155	2
49	61	1
111	116	1
82	82	1
49	49	1
78	79	1
108	108	2
124	146	1
20	21	1
118	124	1
41	55	1
144	145	1
35	148	1
86	86	2
90	116	2
94	109	1
54	55	1
48	48	2
81	82	1
122	122	2
107	107	1
127	133	1
142	157	1
152	152	1
68	69	1
84	84	1
80	80	2
93	110	1
155	156	1
142	142	1
122	148	1
16	17	1
55	78	1
35	39	1
144	144	1
93	93	1
102	102	1
117	157	1
138	152	1
56	64	1
10	103	1
13	76	1
40	42	1
120	140	1
125	127	1
129	156	1
3	3	1
113	121	1
154	155	1
52	57	1
73	74	1
65	137	1
16	16	1
109	109	1
63	63	1
