19	45	1
7	9	1
76	76	2
85	85	1
17	17	2
97	99	1
54	75	1
82	82	3
32	33	1
16	16	2
103	104	2
19	19	3
9	9	2
145	146	2
98	98	6
63	63	1
53	67	2
96	102	1
136	136	2
81	81	2
127	127	1
67	79	1
106	107	1
134	134	2
38	38	4
125	128	2
62	62	2
154	154	4
44	44	2
110	111	1
151	151	4
68	104	1
71	118	1
147	148	1
105	105	3
55	55	1
130	131	1
119	119	1
144	144	1
121	141	1
70	70	3
137	139	1
11	21	1
125	141	1
97	97	1
107	108	2
43	44	1
135	135	1
149	150	3
123	123	1
109	109	3
80	83	1
40	40	5
30	30	2
8	9	2
107	109	2
65	65	3
114	115	1
6	7	2
131	133	1
53	53	5
35	37	1
36	36	2
130	130	6
79	96	1
144	145	1
140	140	1
83	83	1
42	42	2
13	15	1
146	146	3
139	139	5
88	94	1
5	5	2
3	3	1
113	124	1
69	69	1
97	117	1
104	104	4
126	126	2
27	32	1
96	96	3
142	148	2
66	67	4
141	142	2
117	119	1
105	108	1
25	34	1
128	137	1
109	112	1
110	113	1
120	125	1
113	113	1
45	46	1
10	11	1
42	144	1
108	110	1
71	74	1
31	31	1
33	33	2
69	70	2
24	24	1
106	114	1
114	114	1
72	76	3
133	133	3
55	94	1
84	89	1
94	94	2
64	66	1
20	22	1
71	71	2
140	141	1
123	137	1
140	148	1
10	10	3
129	130	2
90	90	2
92	92	2
85	87	1
102	102	2
25	25	1
48	48	1
128	128	1
84	93	1
145	147	1
48	49	1
122	122	2
109	111	1
145	145	1
6	6	2
119	121	1
123	125	1
103	106	1
126	134	1
125	125	1
57	57	1
34	34	1
150	150	1
143	143	1
141	143	1
7	7	1
15	16	1
138	138	1
132	132	2
22	22	3
142	146	1
23	23	1
67	67	1
6	8	1
135	137	1
30	32	1
26	132	2
117	117	2
31	100	1
79	128	1
115	115	1
3	17	1
110	110	2
37	38	1
11	12	1
26	26	2
27	28	1
8	8	1
40	44	1
21	66	1
128	129	1
106	129	1
129	131	1
110	112	1
19	24	1
108	108	1
57	63	1
99	99	1
94	109	1
12	13	2
41	43	1
45	45	1
21	22	1
49	51	1
5	15	1
52	52	1
47	48	1
118	118	1
111	111	1
65	67	1
20	21	1
93	93	1
85	86	1
107	107	1
100	101	1
35	35	1
108	109	1
108	112	1
96	97	1
56	56	1
29	29	1
120	120	1
6	114	1
80	80	1
136	137	1
4	5	1
125	127	1
123	124	1
19	20	1
