8	8	2
3	3	1
56	56	5
17	17	4
133	134	4
83	84	2
80	102	1
4	4	1
27	28	1
77	77	1
107	107	2
3	5	1
71	90	1
96	129	1
24	31	1
72	73	3
27	40	1
37	38	2
41	81	3
129	129	4
76	78	1
37	37	3
125	125	1
35	36	2
135	135	4
69	121	1
69	71	1
53	53	2
95	95	3
117	118	2
93	93	1
67	84	2
47	47	2
63	63	2
78	80	1
81	105	1
136	136	2
26	26	3
74	74	3
61	61	2
11	11	6
2	2	2
97	98	2
116	116	5
99	99	1
119	119	2
110	124	1
52	55	1
71	96	1
49	49	1
9	9	3
57	57	5
139	139	1
102	102	2
68	70	1
65	66	1
18	18	2
64	65	2
39	77	1
127	127	4
77	92	1
29	29	7
15	57	3
1	1	3
117	141	3
106	106	1
117	117	2
101	101	1
86	91	1
72	91	2
31	32	2
95	96	1
90	90	1
86	96	1
64	98	1
111	111	1
136	138	1
21	25	1
115	138	1
36	76	1
94	94	1
105	117	1
91	118	1
62	76	2
142	142	2
19	19	2
111	112	3
69	69	4
58	58	2
31	33	2
84	84	1
15	132	1
62	62	3
87	87	1
39	39	6
30	30	1
78	90	1
136	140	2
119	134	1
106	107	1
33	78	2
33	43	1
91	92	1
31	121	1
75	75	5
50	50	2
79	79	3
21	21	5
48	48	2
71	72	3
18	19	2
20	20	2
133	133	2
98	98	2
78	78	2
19	20	1
135	137	1
26	124	1
0	119	2
11	21	1
92	106	1
103	103	3
119	120	2
125	141	1
81	144	1
35	77	1
55	56	1
140	140	4
115	139	1
103	143	1
38	38	1
5	132	2
92	93	1
99	101	1
30	31	2
68	69	1
100	143	1
145	145	1
92	92	2
137	139	1
134	134	1
10	118	1
132	132	1
123	127	1
76	76	1
73	73	2
133	140	1
64	64	1
74	75	1
55	68	1
104	119	2
0	0	1
15	16	1
51	51	1
15	15	1
95	97	1
27	29	1
72	80	1
59	80	1
13	13	2
65	65	1
42	42	1
106	125	1
6	6	1
112	129	1
53	64	1
93	94	1
49	50	1
128	128	1
36	49	1
23	119	1
143	143	1
59	59	1
77	78	2
48	49	1
107	116	1
55	57	1
73	74	1
55	55	1
106	110	2
138	139	1
14	14	1
120	121	1
130	131	1
3	43	1
87	89	1
105	105	2
103	110	1
85	85	1
10	10	2
104	114	1
80	80	2
35	35	1
22	22	3
71	124	1
49	51	1
91	91	2
82	82	2
71	91	1
124	124	1
107	108	2
14	16	1
70	70	1
20	21	1
128	129	1
63	65	1
100	100	1
71	87	1
104	104	1
54	54	1
2	6	1
85	86	1
110	111	1
