131	131	3
6	6	9
8	8	4
42	43	4
75	75	6
98	98	6
97	97	4
25	25	7
28	28	5
15	17	1
3	3	10
84	85	2
124	125	2
2	2	9
11	11	6
100	100	12
66	67	1
36	36	5
27	27	3
29	29	7
86	87	3
104	104	2
44	54	1
71	71	12
91	91	3
24	36	2
82	82	6
74	74	5
20	52	1
43	43	5
58	58	3
68	81	1
130	130	2
119	119	3
49	49	8
125	125	2
19	19	8
50	51	2
60	134	3
35	35	6
106	106	8
121	121	4
49	52	2
128	129	1
131	132	1
8	10	1
20	25	2
108	109	1
82	100	1
7	8	8
31	31	7
134	135	1
108	108	5
105	111	1
76	103	2
1	1	2
105	123	1
50	50	6
9	10	3
54	55	3
93	94	1
120	120	2
76	101	2
73	73	6
44	44	4
76	76	12
127	127	3
12	13	4
86	91	1
32	32	5
70	78	2
30	30	7
133	133	9
102	102	2
35	36	7
96	96	1
70	71	1
57	57	3
77	77	14
23	23	6
84	84	6
76	78	3
64	64	11
92	117	1
16	17	2
5	5	9
49	51	1
72	80	2
52	74	1
17	76	2
70	70	7
64	65	2
81	82	1
10	10	3
118	118	5
13	14	2
62	62	6
8	123	1
43	47	1
48	48	2
91	117	1
95	95	4
0	0	4
102	103	3
76	79	1
123	131	1
12	12	8
87	87	12
43	130	1
32	33	5
113	113	9
71	72	3
58	60	1
8	118	1
114	114	3
9	11	2
54	59	3
52	52	2
134	134	1
5	121	1
26	26	9
71	73	1
109	109	4
123	123	2
80	80	14
59	59	4
69	80	2
28	70	1
3	5	3
111	111	3
85	127	1
68	68	6
21	24	1
115	115	1
4	4	5
54	57	1
69	69	6
72	72	10
77	78	6
19	32	1
111	134	1
78	79	2
89	89	2
44	87	1
125	126	2
127	129	2
70	79	1
4	13	1
120	121	2
93	95	1
7	21	2
62	102	1
24	27	1
57	58	2
49	50	5
75	79	1
63	63	9
68	69	3
42	42	2
66	66	3
99	104	1
94	98	3
88	88	1
117	117	5
93	93	3
57	59	1
83	83	5
69	70	3
60	61	1
32	34	2
6	11	1
54	54	5
118	130	1
20	43	3
7	7	7
84	91	1
16	16	6
55	55	3
18	22	1
61	61	6
99	100	3
112	113	2
110	110	4
62	63	2
132	133	1
60	60	6
82	87	1
45	50	1
74	114	1
22	23	2
111	121	1
67	67	3
63	67	1
53	53	9
86	86	7
111	115	1
92	93	1
13	13	4
36	42	1
116	117	2
19	20	4
3	134	1
4	5	1
24	24	2
21	21	4
16	19	1
24	25	2
85	85	4
61	62	1
11	12	3
7	78	1
71	76	1
15	23	1
89	91	1
46	50	2
62	64	3
131	133	3
83	85	1
72	73	3
112	127	1
47	50	1
77	79	3
20	20	2
7	29	2
22	22	4
82	83	2
35	131	1
17	87	2
69	87	1
62	82	4
6	13	1
94	94	1
100	109	1
90	90	4
57	86	2
132	132	3
60	87	1
12	30	1
124	124	3
9	20	2
67	69	3
107	107	1
59	60	1
2	3	2
70	80	1
64	71	1
133	134	1
7	11	2
128	128	2
122	122	5
77	103	1
45	45	6
106	131	2
35	65	1
106	108	1
53	54	1
84	127	2
105	105	4
108	117	1
90	92	1
129	129	3
29	44	1
54	60	1
11	17	1
47	47	1
79	80	2
18	21	2
5	12	1
112	114	1
65	68	1
27	82	1
88	95	1
115	116	1
126	126	3
75	76	2
23	45	4
66	69	1
89	90	2
130	132	1
37	38	2
95	97	1
32	87	2
95	111	2
73	74	4
124	134	1
104	105	1
81	81	5
4	6	1
11	119	1
20	36	1
4	15	1
52	67	1
14	14	3
29	52	1
50	52	1
12	119	1
90	91	1
86	123	1
96	114	1
69	78	1
52	63	1
63	64	2
43	44	2
21	22	3
99	103	1
54	68	1
8	77	1
3	4	1
14	95	3
15	15	4
17	17	4
71	94	1
94	105	1
100	101	1
78	113	1
19	82	1
112	112	3
19	54	1
64	70	1
79	115	1
65	79	1
43	79	1
52	56	1
19	21	1
21	29	2
37	37	1
94	97	1
5	6	1
52	58	2
89	92	2
30	34	1
64	69	1
105	115	1
65	65	1
55	110	1
92	111	1
8	9	3
113	127	1
65	70	1
0	1	1
23	24	3
101	101	1
25	26	2
70	73	1
66	75	1
10	11	1
79	79	1
4	10	2
93	130	1
4	100	1
8	11	1
63	133	1
119	120	1
79	81	1
24	35	1
55	59	1
99	101	1
74	75	1
20	24	1
78	78	3
27	29	1
91	95	1
115	133	1
20	21	1
104	126	1
8	20	1
23	28	2
55	56	2
127	128	1
65	76	1
67	82	2
52	53	1
33	67	1
5	86	1
3	10	1
65	66	2
18	18	2
6	7	3
15	16	3
45	51	1
112	115	1
30	32	1
125	131	1
33	34	1
2	4	1
31	32	1
28	29	1
104	112	1
38	55	1
38	38	1
113	132	1
116	118	3
97	99	1
32	73	1
56	56	3
14	118	1
112	129	1
83	116	1
29	42	1
11	23	1
14	15	1
73	96	1
11	14	1
69	77	1
3	17	1
106	130	1
16	32	1
108	111	1
9	9	1
33	33	2
129	130	1
57	90	1
52	61	1
63	75	1
44	45	1
4	98	1
122	124	1
64	80	1
30	44	2
10	63	1
81	86	1
103	103	1
75	100	1
61	78	1
0	123	1
54	65	1
48	77	1
88	99	1
22	113	1
64	68	1
52	57	1
123	124	1
81	89	1
27	131	1
6	22	1
111	114	1
66	68	1
22	79	1
70	72	1
34	34	1
56	129	1
57	108	1
49	53	1
71	88	1
6	120	1
83	84	1
3	46	1
11	65	1
105	122	1
63	94	1
106	107	1
81	130	1
135	135	1
30	43	1
13	19	1
56	107	1
8	12	1
36	56	1
