148	148	8
72	73	1
133	133	8
52	55	1
95	96	2
41	41	3
105	106	7
114	114	3
127	137	3
105	105	6
108	112	3
95	97	1
57	57	1
124	124	2
110	111	2
128	148	1
78	78	1
117	121	1
139	139	7
124	146	1
120	120	5
123	124	1
37	37	3
30	50	1
23	23	2
35	35	3
88	88	4
138	138	11
72	117	1
45	45	2
133	141	1
86	86	7
16	16	4
93	93	2
125	126	2
9	11	3
139	140	6
98	98	7
92	105	1
113	113	3
42	42	3
112	112	7
132	137	1
140	140	8
132	132	6
137	143	1
71	86	1
108	111	1
136	144	1
29	37	1
67	70	2
118	120	1
153	153	8
154	154	3
92	92	4
129	139	2
116	116	2
129	129	7
55	55	2
95	95	4
8	8	1
141	154	1
9	9	2
142	143	2
150	150	9
6	6	3
149	149	8
99	99	5
131	131	5
138	140	2
156	157	1
55	64	1
103	103	2
142	142	8
152	152	5
54	55	2
138	139	5
22	22	1
110	110	2
47	47	2
127	156	1
26	26	5
40	40	2
16	50	1
43	43	3
148	156	1
52	54	2
123	125	2
127	127	11
3	4	1
32	33	2
125	125	3
130	130	6
39	40	3
157	158	2
75	105	1
136	136	6
63	64	1
152	153	1
106	106	6
126	126	7
4	4	3
99	100	1
68	68	5
27	27	4
109	110	2
12	16	1
131	133	1
130	151	2
23	24	1
54	54	1
28	29	1
66	71	1
118	119	2
39	39	1
101	101	2
75	75	3
71	139	1
100	101	1
134	134	6
77	116	1
67	67	2
121	121	3
143	143	1
82	82	2
29	29	5
137	138	4
141	141	9
128	128	4
50	50	5
77	77	6
67	69	1
155	156	1
64	64	1
82	83	2
94	94	4
117	117	4
104	104	3
80	80	1
135	155	1
148	149	2
127	130	1
89	89	1
158	158	4
71	71	5
104	105	3
122	123	1
103	106	1
107	112	2
126	130	2
116	119	2
144	145	1
109	112	1
13	64	1
17	17	1
37	38	1
129	132	1
30	30	2
38	39	2
77	103	1
147	147	4
156	156	4
56	56	1
84	84	3
135	140	3
155	155	3
91	91	4
1	2	2
63	81	1
146	146	2
95	98	1
46	47	2
120	121	1
119	119	4
135	135	6
67	68	1
135	152	1
90	90	1
121	135	1
83	84	1
107	111	1
111	112	1
144	144	4
129	150	2
148	150	1
28	28	4
142	145	2
130	131	3
16	18	1
66	66	3
33	33	1
119	143	1
45	51	1
79	79	1
88	89	3
112	120	1
3	3	2
153	154	1
32	32	2
131	148	3
93	109	1
8	9	3
41	42	2
113	114	2
11	29	1
27	42	1
45	47	2
132	133	2
70	70	1
71	72	3
78	81	1
80	81	1
89	90	1
97	97	2
129	131	4
103	104	1
134	135	2
88	91	1
36	91	1
65	65	2
77	97	1
65	140	1
73	74	1
87	87	2
62	62	4
10	39	1
51	51	2
2	3	1
2	2	2
108	124	2
71	75	1
127	128	1
151	151	2
15	15	3
136	137	2
73	73	2
107	107	2
115	115	4
117	118	1
17	46	1
22	23	3
137	140	1
146	148	1
135	137	1
119	120	2
138	146	1
24	24	3
44	45	2
34	37	1
48	48	2
86	87	1
7	7	2
76	97	1
121	122	1
74	101	1
81	81	1
84	86	1
87	130	1
101	131	1
53	110	1
92	117	2
50	131	1
137	137	5
42	46	1
21	21	1
118	118	1
5	7	1
157	157	3
122	122	2
19	19	1
108	108	1
141	142	1
44	44	1
14	14	2
107	151	1
97	98	1
129	130	1
74	74	1
135	148	1
127	148	1
43	44	2
123	123	1
94	114	1
11	49	1
128	129	2
89	91	1
70	107	1
119	121	2
140	156	1
107	143	1
18	18	3
85	87	1
132	140	1
100	100	2
12	12	1
112	116	1
48	49	1
146	147	1
102	103	1
113	115	1
67	91	1
16	17	1
55	81	1
12	13	1
72	72	1
36	36	2
137	147	1
71	120	1
26	27	1
71	91	1
135	146	1
79	116	2
80	119	1
47	49	1
132	155	1
77	92	1
25	25	3
114	115	3
105	134	2
25	29	1
134	145	2
89	121	1
20	21	1
51	56	1
53	54	2
85	85	1
34	34	1
126	142	2
106	139	1
158	159	1
108	120	1
145	147	1
123	127	1
147	148	1
109	109	1
83	86	1
17	18	1
4	23	1
23	39	1
69	132	1
79	81	1
141	152	1
133	134	1
99	103	1
145	145	1
26	92	1
136	138	1
77	79	1
46	48	1
4	44	1
1	1	1
31	151	1
106	107	1
76	76	1
13	14	1
24	25	1
95	114	1
139	155	1
116	117	1
42	119	1
43	49	1
