91	96	1
190	190	3
6	55	1
128	128	1
141	141	4
30	30	1
108	108	4
20	20	1
48	52	2
89	163	1
83	83	2
114	115	3
171	171	3
127	127	4
94	95	1
34	34	3
90	127	1
94	94	3
47	47	3
0	6	1
17	17	4
39	48	1
26	31	1
4	37	1
153	153	4
69	71	1
23	24	1
164	164	2
14	14	5
73	74	1
48	48	7
111	133	1
178	178	4
32	32	2
59	59	2
102	104	3
35	35	2
66	68	4
163	163	2
112	112	4
91	91	4
114	114	3
121	121	7
86	86	5
8	8	2
109	110	2
94	115	1
58	58	2
103	150	1
120	149	2
110	166	2
116	116	3
20	21	1
95	99	3
81	81	3
22	22	2
32	34	1
167	168	1
174	174	1
166	167	1
61	61	2
111	131	1
187	187	3
12	12	4
79	79	5
82	83	1
67	67	5
27	30	2
168	169	1
170	170	1
116	149	2
88	88	2
149	149	2
93	93	2
133	141	1
117	118	1
164	165	2
38	40	1
97	97	1
18	19	1
179	181	1
123	127	1
113	113	3
138	138	3
33	33	1
53	53	3
15	15	6
21	21	1
23	23	2
155	155	3
144	144	3
3	3	3
4	7	1
5	5	3
96	97	2
133	133	2
138	142	2
101	102	1
59	60	2
124	125	2
112	131	1
124	124	2
25	39	1
93	94	2
85	85	9
90	91	2
11	15	1
4	4	4
80	80	2
98	98	2
120	120	2
110	110	2
92	92	2
131	131	2
97	101	1
27	34	1
157	158	3
176	177	1
43	43	5
169	170	1
155	156	1
175	175	3
26	26	3
133	134	1
153	175	1
121	122	4
18	20	1
114	127	1
60	61	1
13	13	2
57	57	3
71	72	1
52	52	1
85	88	1
145	145	2
157	159	1
67	68	1
119	135	1
106	106	2
19	19	4
131	132	1
155	178	1
180	180	2
55	57	2
53	128	1
10	10	5
39	39	2
72	72	1
87	89	1
17	18	2
126	126	2
86	87	2
135	135	3
119	119	1
31	35	1
71	85	1
147	147	2
169	169	1
152	153	1
76	76	1
152	154	1
70	70	1
15	16	1
104	105	3
102	107	1
130	130	2
63	174	1
122	128	1
89	89	1
74	80	1
106	164	2
69	69	3
152	152	2
127	128	2
33	65	1
182	182	2
55	55	1
75	75	5
140	140	3
57	146	1
42	42	1
177	177	1
154	154	1
119	120	1
28	44	1
179	179	1
5	6	3
187	188	2
130	132	4
138	139	2
40	40	1
123	123	4
68	68	1
166	166	2
175	177	1
183	183	1
101	101	1
36	37	1
37	37	2
184	185	1
116	117	1
41	53	1
157	157	2
137	138	2
156	156	4
68	71	1
102	103	1
96	126	1
82	82	1
174	175	2
75	76	2
111	111	6
95	95	2
27	28	1
64	64	3
6	6	1
34	35	1
150	150	1
65	65	4
90	90	1
6	76	1
1	85	1
71	75	1
136	136	1
127	151	1
106	108	1
106	107	2
78	85	1
74	78	1
83	94	2
58	59	2
10	12	1
100	100	2
57	140	1
159	159	1
189	190	1
134	136	1
45	45	2
104	109	1
69	70	1
44	44	1
79	80	1
129	130	1
24	24	1
125	170	1
172	172	2
184	186	1
66	66	1
96	96	1
76	106	1
118	118	1
83	84	1
136	150	1
128	184	1
177	190	1
120	131	1
28	28	3
1	83	1
56	56	2
41	41	2
84	85	1
141	142	1
120	125	1
27	47	1
126	147	1
112	113	1
102	102	2
125	125	1
28	29	1
74	74	2
148	151	1
77	77	3
29	29	1
62	62	1
129	129	1
36	36	2
130	182	1
74	82	1
179	183	1
115	116	1
130	131	1
60	60	1
161	164	1
184	184	2
149	150	1
34	62	1
124	127	2
129	175	1
139	141	1
72	93	1
27	27	1
68	141	1
17	25	1
173	173	1
159	160	1
26	32	1
120	121	1
188	188	1
105	105	2
171	172	1
124	126	1
11	13	1
134	137	2
143	143	2
132	133	1
60	62	1
73	73	1
181	181	1
104	104	1
151	169	1
80	81	1
2	2	1
19	149	1
141	147	1
94	98	1
52	175	1
79	123	1
137	137	1
134	134	1
54	55	1
60	65	1
4	44	1
11	11	1
38	38	1
97	100	1
91	92	1
180	181	1
116	119	1
163	164	1
25	37	1
7	7	1
111	143	1
165	165	1
