108	109	2
11	11	5
46	46	2
78	78	5
152	152	5
71	71	3
106	124	1
48	49	1
118	118	7
7	32	1
105	105	5
129	129	2
147	147	6
23	23	3
144	145	1
124	124	5
9	38	1
105	108	1
65	65	3
64	64	1
17	21	1
117	117	1
129	131	2
41	43	1
53	54	2
21	21	4
56	57	4
50	50	3
16	16	4
142	142	2
27	27	4
40	41	1
12	12	3
111	112	2
21	28	1
36	56	1
32	32	5
44	54	2
110	110	6
75	75	1
2	2	1
128	128	1
14	14	2
18	19	2
4	7	1
42	42	3
70	70	3
133	133	3
2	7	2
153	153	7
77	77	3
143	144	2
5	7	1
28	30	2
32	83	1
99	115	1
38	38	2
56	63	1
132	132	3
113	145	2
44	44	2
103	106	1
20	20	2
6	6	3
110	111	2
113	135	1
31	51	2
73	73	1
98	98	1
39	39	4
101	106	1
122	122	1
95	96	1
94	94	2
100	118	1
42	45	1
66	66	3
35	35	5
135	136	2
69	69	4
134	135	1
68	68	2
102	102	2
131	132	2
139	139	4
120	120	4
90	110	1
34	36	1
134	152	2
149	149	6
97	98	1
32	37	2
25	38	1
34	35	1
21	27	2
108	108	2
13	13	6
78	95	1
85	85	1
52	52	3
95	130	1
124	126	1
4	4	1
48	48	6
24	24	2
136	136	2
26	26	3
100	140	1
100	100	2
130	132	2
114	114	2
13	48	2
72	73	1
38	39	1
128	129	1
11	12	1
66	67	1
89	128	1
102	122	1
45	45	7
3	9	2
131	131	4
17	32	1
10	24	2
134	134	3
127	127	3
75	76	2
122	151	1
121	121	4
17	17	6
119	119	4
14	34	2
100	115	1
98	114	1
105	111	1
47	48	1
25	43	1
41	42	2
48	71	1
20	21	2
64	65	2
40	42	1
143	143	1
92	92	1
79	79	1
63	63	1
72	72	2
57	57	2
143	146	1
53	53	3
64	96	1
64	99	1
32	35	1
112	112	2
23	31	1
123	123	3
136	137	1
20	23	1
120	121	2
100	101	1
15	15	2
18	18	1
9	30	1
25	35	1
85	86	2
9	9	3
149	150	2
41	41	3
125	128	1
137	137	2
83	83	2
83	84	1
82	83	1
75	80	1
40	43	1
40	40	4
24	51	1
17	23	2
55	55	1
109	110	2
118	131	1
150	150	3
45	68	2
43	46	1
87	88	1
10	17	2
113	114	1
92	93	1
44	118	1
124	150	1
97	97	3
102	103	1
8	8	1
123	128	1
109	109	3
3	6	1
69	76	1
144	144	1
43	43	2
31	31	2
71	73	1
38	48	1
109	111	1
102	114	1
62	62	1
22	23	2
136	145	1
107	108	2
79	80	1
144	147	1
100	119	1
138	138	2
150	151	1
28	31	1
27	29	1
19	20	1
90	90	1
70	122	1
103	105	1
141	142	1
54	132	1
43	44	1
103	104	1
36	36	3
13	15	1
112	130	1
5	5	1
53	63	1
24	44	1
67	67	2
151	151	2
16	17	2
81	93	1
3	33	1
20	114	1
99	99	1
49	50	1
33	34	2
116	116	1
31	32	1
51	65	1
88	88	1
75	77	1
15	16	1
18	31	1
81	83	1
76	76	2
148	148	1
106	131	1
147	148	1
99	102	1
7	7	2
34	34	1
126	126	1
101	124	1
74	74	1
104	105	1
41	120	2
37	37	1
65	68	1
71	74	1
67	85	1
150	152	1
129	130	1
41	132	1
133	134	1
123	124	1
29	30	1
99	118	1
17	31	1
45	120	1
56	67	1
21	35	1
111	111	2
130	130	1
54	54	1
82	82	1
70	71	1
146	146	1
100	109	1
39	40	1
65	70	1
56	68	1
3	10	1
56	107	1
108	123	1
100	110	1
17	18	1
144	146	1
80	81	1
37	49	1
27	30	1
57	63	1
3	4	1
