23	23	6
77	79	1
62	62	3
72	72	8
77	77	4
122	122	5
3	3	13
9	10	2
19	20	3
127	129	1
38	65	1
64	64	9
56	58	1
57	58	5
3	5	3
25	26	4
112	112	8
45	52	1
67	67	7
114	114	8
44	58	1
130	130	3
55	55	3
18	20	1
13	13	4
16	37	1
71	71	11
47	47	2
46	70	1
63	63	7
5	5	8
52	52	4
105	105	9
18	18	1
95	99	1
112	128	2
111	111	5
54	70	2
28	79	1
82	86	3
113	113	5
12	12	6
10	11	3
106	107	2
118	119	1
30	63	1
59	60	3
105	112	1
83	85	1
104	105	1
59	68	1
128	128	3
98	99	1
62	63	4
30	69	1
97	97	5
93	109	1
119	121	1
6	7	3
11	11	3
83	86	1
17	17	8
45	53	1
127	127	5
73	75	1
111	113	1
110	127	1
94	94	3
38	38	2
26	30	2
2	2	4
90	91	2
33	33	7
108	108	4
82	82	7
57	57	7
106	106	5
33	69	2
122	123	1
115	115	5
43	56	3
48	48	5
123	129	1
112	114	3
131	131	3
52	55	1
51	52	1
126	131	1
15	17	2
96	118	1
10	24	3
69	69	10
108	110	1
81	81	4
120	120	7
107	107	2
19	19	3
19	36	1
49	49	5
4	28	1
4	4	2
104	104	3
61	62	2
106	128	1
61	61	5
79	81	1
10	10	5
93	94	1
8	10	1
79	79	4
13	94	2
132	132	1
129	129	4
126	126	3
12	35	3
97	113	1
76	76	6
44	44	6
0	0	2
61	63	2
121	121	3
55	58	1
99	104	1
56	57	2
121	124	1
14	22	1
109	109	5
64	72	1
7	8	6
103	103	5
62	74	1
85	86	2
51	51	1
64	81	2
80	130	1
78	92	1
16	36	1
16	16	5
74	75	3
31	31	3
43	52	1
25	25	2
118	118	6
66	68	1
100	103	1
7	9	1
6	6	3
117	118	2
102	103	1
21	35	1
53	55	1
22	22	3
124	125	1
2	3	1
70	70	5
75	75	5
72	73	2
5	38	2
65	65	3
11	65	1
85	85	4
59	59	3
1	49	1
14	15	2
110	111	1
73	95	2
75	78	2
45	50	2
56	56	3
45	45	4
123	123	4
43	43	4
100	115	1
58	135	1
133	133	2
52	54	2
48	74	1
32	35	1
44	52	1
102	102	3
90	118	1
64	86	2
27	27	6
73	74	1
73	103	1
54	55	5
15	77	1
73	73	3
1	2	2
17	18	3
124	126	1
9	9	3
37	37	2
36	66	1
27	45	1
60	71	1
80	80	5
42	44	2
16	17	2
119	119	4
65	67	1
68	68	4
63	90	1
95	100	1
35	35	3
8	35	3
25	33	1
4	5	1
96	127	1
98	101	2
23	24	1
95	95	1
69	71	2
44	55	1
70	71	2
61	73	1
83	83	4
1	1	5
84	101	1
116	116	3
75	124	1
65	69	1
26	26	5
34	34	1
79	80	1
96	97	1
64	93	2
110	110	1
58	59	2
11	12	2
107	110	1
28	28	2
98	98	1
3	4	3
8	8	5
50	52	1
87	88	3
23	53	1
90	90	3
107	109	1
77	78	1
26	83	1
99	99	1
100	100	1
87	87	2
60	60	1
28	64	1
21	22	4
95	123	1
2	4	1
47	48	1
15	15	5
50	50	6
130	131	1
69	94	2
36	36	5
25	32	1
74	80	2
24	25	1
93	93	2
48	59	1
66	67	1
75	127	1
83	84	3
68	107	1
8	9	1
32	32	3
28	32	1
64	73	1
74	74	3
62	64	1
135	135	1
131	132	1
115	116	1
62	88	1
94	95	1
50	77	1
120	121	2
58	85	1
67	68	1
91	91	3
92	129	1
14	14	2
12	14	1
1	22	2
54	54	2
91	108	1
49	50	4
29	29	1
117	117	1
64	82	1
89	89	3
7	7	4
20	21	2
77	106	1
124	124	2
74	79	1
78	78	2
53	53	1
114	115	1
30	35	1
33	35	2
43	57	1
91	92	1
5	7	1
33	34	1
34	35	2
21	21	1
25	37	2
65	68	1
27	38	1
101	123	1
5	24	2
60	64	2
30	73	1
86	86	1
80	88	1
22	23	1
3	37	1
37	38	1
30	30	3
63	75	1
34	42	1
112	115	1
14	17	1
94	105	3
42	42	1
134	134	1
43	65	1
56	63	1
128	130	1
85	107	1
84	102	2
114	125	1
58	58	1
51	79	2
86	87	3
47	49	1
84	84	2
55	60	1
29	62	1
84	85	2
45	46	1
15	22	1
3	24	1
58	60	1
50	69	1
82	83	2
13	28	1
16	31	1
86	107	1
22	34	1
102	119	1
92	92	1
131	133	1
89	90	1
21	29	1
99	100	2
125	125	1
18	52	1
101	101	1
63	71	1
79	83	2
24	24	1
75	80	1
64	68	1
67	91	1
43	45	1
76	77	1
7	37	1
43	49	1
8	34	1
66	69	1
70	76	1
107	124	1
26	28	2
121	123	1
7	11	1
68	69	1
64	69	1
14	16	1
57	61	1
69	82	1
59	63	1
89	91	1
96	99	2
62	65	1
23	25	1
36	68	1
95	96	1
64	83	1
113	114	1
71	72	1
126	127	1
86	90	1
36	37	1
71	76	1
65	79	1
4	7	1
