82	95	1
11	11	1
74	78	2
0	0	3
76	76	2
120	120	3
15	21	1
10	10	2
124	124	2
109	109	1
118	147	1
140	140	2
121	121	2
36	37	1
24	25	1
141	141	4
15	16	1
8	8	5
88	88	2
159	167	1
7	7	4
43	63	1
60	61	1
154	156	1
76	137	1
86	87	1
44	44	4
150	150	2
39	39	6
145	145	1
107	108	2
9	10	2
65	82	1
40	40	3
161	161	1
148	149	1
162	162	2
62	63	2
16	34	1
45	45	1
4	4	3
34	34	2
169	169	4
63	64	1
30	59	1
16	90	2
131	132	2
112	131	2
14	32	1
9	9	3
34	35	2
154	154	1
6	6	6
61	61	3
7	10	1
37	37	4
122	126	1
55	55	5
101	101	3
41	63	1
16	16	5
72	175	1
107	107	1
53	53	2
127	129	1
104	108	1
75	76	1
154	155	2
176	176	4
105	105	3
72	72	2
163	163	1
127	178	1
143	143	2
146	146	2
103	103	3
31	31	4
144	144	3
71	72	1
67	68	1
11	15	1
36	36	3
94	94	3
125	125	1
139	139	3
165	165	2
81	82	1
176	178	1
95	95	4
35	38	1
180	180	1
27	30	3
144	145	1
18	26	1
41	41	2
55	56	1
66	66	2
147	148	2
33	33	1
168	169	1
132	133	2
35	37	1
68	71	1
153	154	1
171	171	2
134	134	2
15	15	1
170	170	2
56	58	1
171	172	1
126	135	4
156	156	2
120	121	1
53	54	3
91	91	1
71	71	4
158	159	2
135	135	1
67	67	2
113	113	2
85	85	1
110	110	3
104	107	1
128	154	1
37	149	1
19	19	1
82	82	1
133	133	1
149	149	1
130	130	2
1	1	1
162	163	2
161	162	1
75	78	1
64	64	1
25	27	1
42	43	1
156	157	2
116	130	1
63	63	2
131	131	3
3	3	2
8	9	1
39	40	1
86	117	1
97	97	1
73	73	2
25	25	1
12	13	1
32	32	2
96	96	2
160	161	1
93	94	1
35	36	2
5	5	1
38	39	2
99	99	2
66	67	1
34	53	1
5	7	1
88	115	2
128	145	1
179	179	1
136	136	3
0	1	1
85	86	1
34	60	1
60	60	1
139	140	1
16	31	1
21	22	2
37	38	1
143	145	1
28	28	1
132	132	1
128	130	1
105	109	1
23	23	1
36	52	1
75	75	1
51	51	1
122	153	1
23	27	1
78	137	1
53	63	1
35	35	1
90	90	1
7	26	1
102	102	1
10	25	1
86	169	1
173	173	1
50	51	1
63	99	1
174	174	3
79	79	1
178	178	1
11	102	1
22	23	1
172	172	1
9	16	1
106	106	1
167	169	1
159	159	1
167	168	1
98	102	1
54	67	1
57	57	1
163	164	1
25	28	1
45	49	1
4	42	1
84	85	1
138	139	1
103	119	1
171	174	1
52	52	1
143	144	1
150	169	1
2	2	1
98	98	1
52	56	1
153	153	1
74	74	1
43	43	1
54	54	1
124	125	1
152	152	1
110	112	1
78	90	1
152	156	1
121	151	1
115	116	1
57	58	1
114	167	1
107	116	1
92	92	1
61	62	1
89	171	1
