104	104	1
50	51	3
61	61	2
132	132	5
30	31	2
60	60	3
138	138	3
131	131	4
4	6	2
77	77	3
10	10	8
15	15	6
91	96	1
128	129	1
29	29	4
20	21	2
66	67	3
135	135	5
27	37	2
38	47	1
107	107	6
139	139	4
89	93	1
127	128	4
111	111	5
105	106	1
140	141	2
62	69	1
71	71	3
94	133	1
32	32	4
50	50	3
79	79	3
76	77	1
112	112	5
77	78	1
33	56	1
143	143	3
113	117	1
133	133	2
50	52	2
66	71	1
10	11	2
67	67	4
142	142	5
34	37	1
113	113	2
88	106	1
141	141	4
9	15	1
13	14	3
116	116	3
127	127	10
38	38	6
23	67	1
0	22	1
28	28	4
57	72	1
64	64	3
119	120	2
21	21	3
100	101	2
106	108	1
17	18	1
120	121	3
11	133	1
145	145	8
89	89	4
114	114	4
1	23	1
132	140	1
124	124	9
136	137	3
39	40	2
115	115	3
59	61	1
111	116	1
75	75	1
97	97	6
53	102	1
18	19	1
120	120	5
59	59	4
129	129	9
88	89	1
36	49	1
83	83	2
62	106	1
119	127	3
24	24	2
105	105	6
27	27	5
107	109	1
5	6	2
25	25	1
62	98	1
41	41	6
53	53	4
70	70	4
95	102	2
16	16	3
13	19	1
126	126	5
57	57	1
115	117	1
12	124	1
42	42	2
30	30	3
104	127	1
33	34	2
11	54	1
66	66	1
53	55	1
2	2	4
111	127	2
49	49	4
84	84	3
137	140	1
22	22	2
1	1	4
115	116	1
106	106	3
34	34	4
62	62	3
123	123	7
122	122	5
28	29	2
58	58	1
86	87	1
70	82	1
69	70	3
26	42	1
109	109	2
98	98	3
102	103	2
121	121	2
69	69	4
102	130	1
22	26	1
90	90	6
32	63	2
6	6	2
40	40	2
108	109	3
73	73	4
108	112	1
96	96	1
87	91	1
99	99	1
87	131	1
126	133	1
128	130	3
63	65	3
86	86	2
49	50	2
101	101	3
136	136	1
23	62	1
82	86	2
23	23	7
95	97	1
31	32	5
43	43	1
102	102	3
128	133	1
87	103	1
114	115	1
41	82	2
20	41	1
17	37	2
135	139	1
68	68	2
13	13	3
134	135	3
100	100	3
36	36	3
140	140	7
37	52	2
49	71	2
122	123	5
32	59	1
104	126	1
129	130	1
51	51	1
141	142	1
20	20	4
111	126	2
19	19	4
58	59	1
79	80	1
123	124	1
116	119	2
82	83	1
88	88	1
130	130	1
68	69	1
23	61	1
48	48	5
37	48	1
9	9	6
82	135	1
82	82	2
93	94	2
84	85	4
135	136	2
18	20	2
119	123	1
52	52	2
63	63	3
114	118	1
73	74	2
133	134	1
61	66	2
134	134	2
84	88	2
119	126	1
32	57	1
8	20	1
87	88	1
31	31	4
53	70	1
116	131	1
53	56	1
118	118	3
40	53	1
33	33	3
55	55	3
26	27	1
137	138	1
54	54	2
85	96	1
37	37	2
42	62	1
13	64	1
62	100	1
128	128	1
76	76	1
18	18	3
13	30	1
84	133	1
47	58	1
118	135	1
87	107	1
35	35	1
78	78	1
103	103	1
119	119	3
101	129	2
144	144	3
72	72	1
80	125	2
105	107	2
137	137	2
116	121	3
90	91	3
105	115	1
9	10	1
60	65	1
92	92	3
64	65	1
22	24	1
64	88	1
113	115	1
35	36	1
0	1	1
8	9	1
138	139	1
89	92	1
146	146	1
4	73	1
10	98	1
75	79	1
82	98	1
87	89	2
23	24	1
15	133	1
30	124	1
66	129	1
60	80	1
14	14	1
113	122	1
11	11	3
64	66	1
113	114	1
85	85	1
2	3	1
75	77	1
108	131	1
118	130	1
86	138	1
57	100	1
80	80	2
43	62	2
3	3	1
0	2	1
5	5	3
107	108	1
25	87	1
110	110	1
22	25	1
48	49	1
69	73	1
30	33	1
56	56	1
65	65	1
50	104	1
96	100	1
105	140	1
81	81	1
131	135	1
109	110	2
31	75	1
125	126	1
25	61	1
74	75	1
66	69	1
65	84	1
83	105	1
131	134	1
18	21	1
0	0	1
94	94	2
95	95	1
118	120	1
11	99	1
90	93	1
120	126	1
119	133	1
39	39	1
90	103	1
49	52	1
27	47	1
128	134	1
39	41	1
100	127	1
6	49	1
47	47	2
53	59	1
19	20	1
116	140	1
38	41	1
124	125	1
101	102	1
6	73	1
17	17	1
38	54	1
95	96	1
54	55	1
47	48	1
75	132	1
72	127	1
132	135	1
26	28	1
