162	162	4
143	159	1
145	146	2
55	55	1
79	79	6
41	41	6
64	64	7
100	115	2
132	132	2
166	169	3
12	137	1
118	119	5
107	111	2
52	57	2
155	155	7
112	112	4
80	80	4
146	146	4
84	84	2
134	134	9
54	54	3
52	88	2
94	94	1
66	67	3
117	117	1
145	145	5
77	77	4
4	96	1
16	148	1
122	122	5
83	83	1
121	122	3
57	57	2
15	16	3
114	114	4
13	13	3
35	41	1
118	150	1
108	116	2
170	170	5
71	71	4
5	25	2
39	40	3
72	74	4
3	3	7
83	85	1
116	120	5
47	105	1
165	165	3
17	17	3
75	77	1
34	34	6
161	161	4
16	16	3
111	111	6
1	1	4
19	50	2
8	8	3
163	163	3
39	39	3
5	11	1
132	149	1
115	115	3
22	22	2
137	137	4
46	69	1
18	19	1
158	159	2
147	147	2
9	9	6
109	109	2
162	163	4
112	114	1
151	154	1
28	28	2
49	51	1
91	94	1
152	152	1
96	96	5
91	92	3
99	105	1
66	66	3
159	161	1
164	164	5
90	90	4
47	48	1
87	101	1
0	1	1
100	100	3
86	87	5
12	17	2
72	72	2
124	124	5
25	25	5
26	26	4
146	147	1
44	47	2
110	110	5
118	118	2
44	44	3
160	166	2
150	150	2
8	10	1
143	164	1
67	67	1
10	10	2
45	45	2
84	97	1
148	148	2
6	7	1
15	15	4
126	127	2
12	12	4
63	63	3
98	99	3
19	23	2
159	159	5
76	76	5
98	98	3
129	129	4
20	25	2
49	57	3
91	93	2
86	86	2
49	53	1
136	136	3
142	142	2
51	51	3
110	135	3
19	19	6
22	105	1
138	144	1
89	89	3
88	88	5
2	17	1
38	38	4
102	102	3
152	154	3
36	38	2
87	89	1
143	144	1
151	157	1
91	119	1
157	157	5
11	11	5
127	127	2
27	27	4
33	33	4
99	99	3
36	36	5
169	170	1
158	158	3
103	103	4
143	147	1
7	12	3
14	14	4
89	90	2
26	27	2
72	86	1
38	137	1
49	49	4
120	120	1
106	106	1
111	113	1
0	41	1
92	93	1
46	46	3
44	46	2
119	119	3
76	77	2
34	35	4
145	152	2
38	40	1
46	58	1
136	137	1
101	101	2
133	163	2
130	131	1
87	88	1
126	131	2
126	126	5
91	91	2
135	155	1
95	95	2
143	157	1
72	116	1
107	107	3
154	154	9
136	140	1
49	55	1
43	43	7
0	0	2
90	91	1
78	78	2
20	21	2
121	121	1
81	81	2
75	75	1
65	65	3
134	164	1
97	97	2
93	94	2
135	136	3
16	43	1
130	130	5
113	113	2
13	14	2
66	93	2
73	73	2
117	118	2
131	131	5
24	26	1
56	56	2
128	156	1
151	151	5
168	168	4
61	62	1
50	50	2
169	169	2
65	69	1
17	46	1
83	104	1
116	119	1
45	47	2
48	49	4
138	138	2
67	71	1
51	71	1
4	4	3
85	85	5
70	70	3
133	156	1
111	139	1
125	126	2
63	70	1
44	45	5
17	22	1
46	47	1
132	134	1
139	139	5
100	107	2
156	156	2
86	96	1
69	70	1
97	98	1
139	153	2
2	2	5
92	94	2
62	62	3
65	79	1
131	140	1
40	40	2
160	169	3
42	42	1
112	113	2
109	117	1
47	47	3
21	21	2
103	104	2
111	158	1
17	47	1
41	42	2
144	156	1
108	110	1
81	82	1
106	107	1
137	139	1
65	66	1
167	167	1
153	153	1
71	95	1
2	4	1
122	132	1
97	119	1
3	5	1
143	143	2
72	77	5
0	64	1
96	98	1
20	20	2
42	43	2
78	79	1
53	53	3
141	141	3
80	83	1
108	108	6
160	160	3
52	80	1
39	162	1
144	144	2
98	122	1
146	157	1
139	140	1
159	169	1
27	67	1
136	143	1
23	23	2
137	140	1
82	82	1
80	81	1
105	108	1
48	48	2
97	134	1
148	149	3
13	39	1
88	94	1
107	108	2
133	133	1
92	92	3
53	55	1
135	135	1
128	129	1
154	157	1
77	79	2
3	4	3
125	125	2
98	102	1
132	133	1
20	23	1
10	12	1
72	75	1
15	27	1
51	52	1
50	51	1
7	7	3
17	21	1
144	146	1
14	15	1
99	100	1
161	162	1
19	142	1
70	116	1
74	74	3
153	156	1
37	38	1
163	164	2
142	162	1
45	46	1
95	99	1
128	128	2
58	62	1
72	76	1
93	93	1
137	138	1
143	165	1
22	23	2
104	104	1
86	88	1
105	105	2
160	161	1
6	6	1
10	36	1
96	97	1
50	65	1
166	167	1
25	26	1
166	166	1
101	166	1
38	39	2
69	69	1
153	162	2
127	129	1
114	115	1
56	58	1
20	28	1
106	157	1
69	74	1
57	66	1
16	19	1
72	100	1
146	148	1
116	117	1
53	135	1
58	63	1
34	53	1
135	148	1
155	156	2
11	138	1
162	165	1
89	119	1
52	52	2
14	44	1
74	75	1
87	95	1
0	26	1
138	139	1
144	145	1
16	17	1
58	66	1
149	149	1
94	102	1
4	6	1
84	108	1
79	89	1
17	56	1
5	7	1
139	164	1
52	69	1
37	37	1
143	149	1
159	160	1
136	147	1
35	35	1
81	94	1
163	165	1
114	117	1
9	153	1
22	24	2
15	44	1
140	140	1
20	52	1
160	164	1
74	80	1
68	69	1
96	99	1
95	96	1
