80	80	2
13	15	1
100	100	3
30	30	2
129	130	3
21	21	1
123	135	1
32	33	2
11	11	2
146	154	1
2	5	1
25	25	1
130	130	2
131	131	6
138	138	5
4	5	2
8	9	1
123	123	2
31	31	2
28	28	2
107	125	3
39	48	1
141	141	2
102	102	2
40	40	2
21	23	1
14	14	3
25	50	1
140	141	1
124	127	2
130	149	2
11	12	1
44	44	4
136	136	1
87	87	2
82	82	2
139	139	2
112	115	1
67	67	3
47	109	1
137	137	3
45	109	1
110	110	4
126	126	4
127	128	2
134	134	1
71	102	3
40	41	1
48	48	3
68	68	1
135	147	1
12	12	1
9	9	1
13	16	1
120	121	1
17	17	3
108	141	3
126	144	1
150	150	3
12	18	1
26	29	2
114	132	1
10	17	1
44	48	5
108	124	1
85	85	4
63	63	1
39	40	1
50	50	1
43	43	5
3	5	2
38	50	1
151	151	2
38	65	1
124	124	2
17	18	1
25	121	1
69	69	3
24	24	4
125	125	3
34	36	1
15	16	3
81	83	1
90	96	1
25	104	1
53	55	1
99	99	1
55	55	2
133	133	2
106	118	2
95	113	1
117	138	1
39	39	2
39	44	1
54	54	2
24	25	1
53	68	1
4	4	1
26	26	1
23	37	1
67	136	1
42	68	3
112	112	1
73	74	1
154	154	1
57	63	1
25	51	1
15	15	3
83	83	3
97	97	1
118	119	1
64	64	4
122	123	1
6	6	2
144	145	1
92	92	1
115	116	1
104	115	1
19	19	2
80	81	1
42	42	1
153	153	1
103	104	2
62	63	1
106	106	1
77	77	4
146	147	1
122	122	1
13	13	2
89	89	1
79	79	1
96	115	1
123	124	4
49	49	2
32	32	3
55	56	5
23	38	2
119	123	1
47	48	1
33	35	1
96	98	1
92	122	1
38	38	1
111	113	1
23	23	2
29	57	1
10	11	1
43	44	2
65	65	1
11	128	1
75	84	1
3	7	1
11	14	2
22	23	1
128	128	1
18	19	1
65	66	1
86	86	1
94	94	2
64	65	1
96	99	2
45	45	3
49	51	1
105	105	1
146	146	2
111	111	1
57	57	2
53	53	1
94	96	1
97	98	1
125	127	1
81	82	2
13	17	1
47	52	1
41	42	1
107	107	1
113	137	1
32	49	1
129	129	1
132	132	1
143	143	2
16	16	1
87	94	1
109	109	1
86	87	1
5	6	1
87	93	1
128	154	2
12	132	1
83	140	1
90	90	1
5	33	1
27	28	1
101	102	1
132	147	1
144	144	1
52	65	1
7	10	1
74	74	1
36	36	1
117	122	1
95	96	1
56	56	1
34	34	1
97	99	2
99	114	1
83	141	1
20	20	1
50	51	1
40	153	1
76	76	2
111	115	1
103	103	1
45	101	1
2	3	1
104	105	1
10	37	1
109	130	1
70	100	2
40	53	1
136	137	1
121	122	1
18	18	1
131	148	1
143	145	1
74	75	1
152	153	1
86	94	1
102	109	1
7	7	1
66	67	1
120	130	1
11	18	1
111	112	1
9	10	1
123	131	1
141	142	1
120	120	1
37	37	1
