27	34	3
45	45	7
68	69	1
95	98	1
91	92	5
15	45	1
1	1	1
19	19	9
67	68	2
38	38	6
121	133	1
121	121	4
70	70	8
0	0	7
57	57	10
51	55	4
86	86	5
25	25	5
20	21	1
36	82	2
16	16	5
92	125	2
103	103	4
78	86	1
101	102	2
33	33	4
77	77	5
122	129	2
7	8	2
47	59	2
10	10	8
122	122	5
131	131	4
36	36	6
126	127	1
65	65	9
101	101	6
110	110	7
49	51	1
105	125	1
3	3	5
19	38	1
111	111	2
118	119	5
74	74	6
88	88	4
25	26	2
8	18	1
5	6	3
113	113	2
47	47	5
31	32	3
46	47	6
108	109	1
110	116	1
98	98	7
95	96	1
35	35	5
128	129	2
5	5	2
80	81	3
109	110	2
104	104	7
90	90	4
82	83	1
102	103	1
18	18	4
42	43	3
119	120	1
108	121	1
94	94	5
97	133	1
120	120	5
29	30	4
21	23	2
58	58	5
89	92	1
112	112	5
121	122	4
13	37	1
42	42	5
82	85	1
126	126	8
14	15	2
8	14	1
81	84	1
20	20	2
44	47	1
77	78	2
20	25	1
24	25	3
85	114	1
81	81	4
83	84	1
67	67	4
21	21	7
31	31	5
18	76	1
14	14	6
119	119	4
112	114	1
112	113	4
29	31	3
127	127	3
40	40	4
82	82	3
87	122	3
21	22	4
11	11	3
15	15	8
106	106	4
92	92	3
98	102	1
43	43	8
87	87	2
32	50	2
57	58	2
16	46	3
64	64	9
102	125	1
86	87	1
90	92	1
11	13	4
134	134	3
9	10	2
85	86	2
132	132	6
129	129	4
118	118	3
128	128	5
61	61	3
23	27	2
128	131	1
73	73	4
95	97	2
82	114	2
36	43	1
50	50	3
16	18	1
115	116	2
37	40	1
109	109	3
64	65	2
95	106	1
55	55	3
87	88	2
27	28	1
83	83	3
91	91	4
76	77	2
84	84	5
133	133	4
97	97	7
32	32	7
96	96	4
96	97	2
88	132	2
46	46	4
102	105	1
107	109	2
56	58	2
16	17	2
40	49	1
55	56	2
131	132	4
101	107	1
27	35	1
95	107	1
78	79	1
44	44	8
108	110	1
22	22	5
63	63	3
30	31	2
56	57	1
30	30	2
33	36	2
78	134	2
71	71	5
33	34	1
130	131	1
73	76	1
76	76	3
97	104	1
18	19	1
105	107	1
27	32	1
124	125	1
87	105	1
2	2	6
67	73	1
4	14	1
72	117	2
115	115	6
69	69	5
96	127	2
39	39	5
114	115	2
27	41	1
68	68	4
39	42	1
125	126	1
90	91	1
114	114	3
79	79	3
6	6	5
66	66	7
0	1	1
59	59	2
41	42	3
8	8	4
84	104	2
125	125	2
9	9	3
24	24	2
17	79	1
27	27	5
23	23	2
30	41	1
56	56	3
8	9	2
34	34	3
58	59	2
10	11	2
93	110	2
13	13	2
98	103	1
107	107	7
4	4	2
75	75	1
124	124	5
84	85	2
24	27	1
100	101	2
59	60	1
132	133	2
123	124	1
120	121	1
81	101	1
99	100	2
100	100	2
61	112	1
12	12	6
28	28	3
78	78	2
16	45	1
111	112	2
47	48	1
32	76	1
41	41	4
117	117	4
45	112	1
75	114	1
93	95	1
103	107	1
90	109	1
49	49	2
5	66	1
122	128	1
130	130	5
58	85	1
13	15	1
14	46	2
66	67	2
44	118	1
11	12	1
95	95	1
38	39	1
77	83	1
41	51	1
105	112	1
59	83	1
29	29	2
100	102	1
116	117	1
123	125	1
96	99	1
82	84	2
15	16	2
40	41	4
97	98	1
90	128	1
106	128	1
78	82	1
61	86	2
122	123	2
17	17	3
80	80	3
22	27	2
12	35	1
79	80	2
87	96	1
19	20	1
43	57	1
5	16	1
72	72	4
79	81	2
85	85	4
47	49	1
116	116	1
81	83	1
19	105	1
35	43	1
89	89	2
97	99	2
26	27	1
129	131	1
121	131	1
26	26	2
13	14	1
48	48	1
70	74	1
23	24	1
105	105	1
106	127	1
110	111	3
17	18	2
35	36	1
98	100	1
123	126	1
90	93	1
10	77	1
44	45	1
60	60	3
22	23	3
102	102	3
30	50	1
105	111	1
31	49	1
94	114	1
37	37	1
72	96	1
65	66	1
21	131	1
93	93	1
107	108	1
93	123	1
7	7	1
108	108	1
6	8	1
56	60	1
29	39	1
62	62	1
103	104	1
91	93	1
126	128	1
31	76	1
58	74	1
89	105	1
54	55	1
5	13	1
36	37	1
3	4	1
11	14	1
36	76	1
