121	121	2
18	19	4
68	74	1
38	38	1
123	123	3
110	110	2
74	101	1
74	82	2
115	123	3
70	71	1
12	12	2
17	18	1
66	66	3
137	137	5
104	105	2
51	51	2
117	118	1
138	138	4
49	49	3
75	88	1
118	118	3
90	91	3
29	29	2
99	125	1
47	47	3
104	104	7
5	5	4
23	24	1
91	91	6
64	64	4
52	54	2
74	75	1
80	83	2
54	55	1
93	113	1
1	49	2
25	25	6
68	82	1
59	59	3
71	73	1
96	117	1
11	11	2
108	113	2
39	39	1
24	24	2
25	26	4
20	20	3
35	132	1
146	146	1
13	13	1
18	18	4
40	40	1
26	26	4
143	144	1
57	57	2
78	78	4
72	72	1
64	65	1
34	34	4
34	39	1
15	43	1
82	91	1
124	125	2
81	81	3
76	76	3
131	131	2
105	105	3
21	21	3
141	141	5
62	62	3
40	41	2
145	145	3
67	67	2
136	136	3
72	75	1
17	17	2
84	84	4
15	16	2
35	35	4
83	83	2
110	121	1
37	37	4
111	112	1
96	96	3
144	144	2
75	81	2
99	99	3
101	102	1
66	84	1
27	27	4
106	108	1
31	39	1
75	78	2
69	69	1
123	135	3
129	129	3
49	70	1
129	130	2
136	138	2
32	33	1
100	120	2
68	103	1
142	142	1
133	133	2
133	135	1
112	112	2
106	106	4
34	37	2
142	143	2
36	37	1
3	54	1
3	3	4
13	29	2
49	52	1
92	94	2
99	100	1
91	110	1
6	6	4
63	63	1
33	33	2
47	48	1
137	138	3
28	29	2
68	68	3
32	32	2
95	96	2
36	38	2
17	106	1
50	50	1
43	43	2
113	113	2
93	94	1
48	48	2
103	103	7
13	14	2
70	104	1
70	70	3
28	59	1
93	93	3
8	9	1
125	125	2
85	89	2
140	141	1
53	55	1
120	120	2
1	1	3
29	30	3
30	30	5
31	31	5
119	119	6
49	50	2
57	130	1
105	107	2
10	10	1
96	110	1
124	124	3
53	63	1
75	75	3
96	99	1
42	48	1
27	58	1
68	108	1
135	135	4
22	22	1
108	108	3
41	42	2
108	109	1
2	3	1
2	2	2
9	9	1
101	106	1
89	90	2
56	61	1
43	47	2
114	115	2
73	73	1
111	111	1
58	59	1
117	117	2
65	65	2
67	101	1
56	56	3
119	120	1
102	102	4
128	128	1
82	84	1
126	127	1
92	92	1
132	138	1
73	74	1
105	106	1
33	38	1
74	103	2
99	127	1
98	98	1
74	74	3
79	79	1
34	47	1
36	36	3
60	63	1
23	77	1
35	36	2
86	87	1
56	130	1
107	109	1
83	85	1
113	119	1
84	85	1
97	97	1
41	41	2
61	61	1
90	90	2
96	108	2
14	15	1
94	94	1
114	114	1
79	80	1
38	123	1
33	36	1
105	108	1
116	116	2
111	114	1
28	28	3
76	78	1
16	24	1
109	109	1
14	14	1
64	85	2
61	107	1
38	39	1
58	58	1
58	105	1
16	16	1
120	131	2
122	122	1
61	63	2
141	142	1
30	52	1
77	77	2
126	126	2
85	85	2
101	101	1
80	80	1
134	135	2
12	41	2
61	62	1
139	140	1
131	134	1
59	109	1
93	139	1
136	137	1
143	143	3
54	134	1
102	117	1
87	87	1
51	54	1
55	73	1
22	113	1
125	126	1
139	139	1
77	78	1
94	95	1
23	23	1
52	52	1
128	131	1
8	18	1
118	120	1
127	127	1
61	91	1
123	124	1
