153	154	2
77	77	7
49	52	1
2	99	1
140	147	1
150	151	2
91	91	7
133	134	2
121	126	2
14	14	3
129	129	11
135	135	10
81	81	5
33	33	4
113	113	1
120	120	7
117	118	4
79	81	3
54	54	2
0	0	5
130	131	5
106	148	1
158	158	8
149	149	12
123	123	9
9	147	2
10	10	11
148	148	12
6	6	5
139	139	11
46	47	3
22	22	4
26	65	1
34	85	1
10	52	1
117	117	6
125	126	3
72	72	3
3	99	2
8	39	1
107	111	3
138	138	13
110	142	1
122	123	2
28	28	5
111	138	1
67	67	3
152	152	6
137	137	12
80	80	5
87	90	2
105	105	7
133	133	10
131	133	4
130	130	10
46	46	7
144	144	5
128	129	3
156	156	8
30	35	1
108	109	5
107	107	8
3	3	5
126	126	4
93	95	2
38	38	2
84	84	4
68	68	7
90	90	10
143	143	5
45	45	3
40	40	3
86	91	1
116	116	5
119	119	7
27	27	3
131	131	10
121	121	9
151	153	1
44	44	6
31	32	2
66	66	6
4	6	1
31	52	1
116	117	1
63	84	1
89	89	2
21	22	9
122	136	3
112	113	2
106	107	1
65	65	6
87	87	4
153	153	4
85	85	4
127	127	12
66	126	1
15	17	4
48	49	1
132	132	10
122	125	1
145	145	6
118	118	11
132	133	4
137	138	3
142	143	2
49	49	4
87	124	2
86	88	3
87	88	1
154	154	9
93	94	1
87	89	3
150	150	8
134	136	1
11	11	4
103	103	9
96	96	10
116	121	2
140	140	7
84	90	1
124	144	1
112	119	1
155	155	6
120	149	1
24	24	6
12	12	2
139	154	2
7	7	5
19	21	2
152	153	7
89	90	1
137	155	1
37	37	4
8	83	1
1	1	4
54	65	5
137	141	1
125	125	6
44	45	2
110	110	4
32	33	1
30	30	8
146	146	5
122	126	3
79	79	3
134	138	1
146	147	3
70	98	1
106	106	8
0	105	2
19	19	1
135	144	1
43	43	2
52	52	2
129	155	1
66	139	1
35	35	5
69	69	8
71	107	1
99	99	12
84	92	1
134	140	2
50	50	5
5	5	7
18	18	4
101	128	1
155	156	2
1	6	1
111	111	17
35	38	1
134	134	12
126	127	1
68	69	2
20	23	1
64	64	7
142	142	2
20	20	3
104	132	1
145	150	1
13	31	1
116	118	2
78	78	4
121	136	1
100	100	6
104	105	4
2	4	1
92	138	1
34	34	7
131	135	2
112	112	10
98	129	1
92	111	1
81	141	1
56	56	3
17	51	1
65	66	2
102	103	1
8	9	1
52	53	2
141	141	9
51	51	4
151	151	3
111	116	1
98	104	2
109	109	5
85	90	1
41	41	5
66	68	1
98	98	8
32	32	7
97	97	5
144	145	4
112	116	1
88	89	3
2	26	1
70	70	7
15	15	6
121	122	2
150	153	1
70	103	1
115	116	2
118	121	1
2	2	3
19	20	2
84	88	1
11	17	3
95	95	5
122	122	6
139	140	7
73	128	2
90	92	1
101	101	5
121	137	1
109	116	1
45	75	1
36	134	1
121	124	1
107	112	1
29	29	2
86	127	1
13	13	4
75	75	7
94	156	2
104	106	1
83	83	2
0	1	1
71	73	1
71	71	5
157	157	8
4	4	5
115	115	5
129	130	5
72	151	1
79	145	1
81	82	3
133	156	2
82	84	1
136	136	16
110	111	2
104	104	4
108	108	8
91	92	3
122	147	1
70	93	1
16	16	3
136	137	1
92	92	4
39	39	3
147	156	1
4	5	1
86	86	2
87	94	1
123	143	1
73	75	2
90	93	1
104	114	1
138	139	1
122	146	1
128	128	9
73	73	8
93	93	5
92	97	1
27	28	2
53	53	2
135	155	1
121	158	1
92	93	4
42	42	5
6	7	1
25	25	3
114	114	4
95	148	1
81	118	1
10	45	1
65	67	1
116	120	2
63	63	2
102	102	2
14	38	1
47	47	4
67	68	2
55	55	1
147	150	1
74	74	1
149	150	1
148	149	1
95	96	2
131	132	2
53	54	3
63	64	1
21	21	2
109	111	1
145	146	4
121	142	3
117	136	1
108	111	1
94	94	5
17	19	1
25	47	1
36	36	4
17	17	2
93	97	1
70	114	1
68	76	1
67	69	4
137	146	1
10	11	2
113	114	2
11	18	2
42	65	1
88	88	2
135	136	1
25	26	2
149	154	1
6	75	1
124	125	1
76	76	1
75	76	1
23	123	1
9	10	2
107	108	3
56	96	1
64	100	1
52	54	2
17	52	1
26	26	4
149	152	1
111	112	1
51	53	1
149	151	1
69	105	1
86	87	3
131	143	2
129	157	2
123	134	1
85	86	1
78	80	1
103	105	3
45	47	1
112	127	1
35	43	1
72	131	1
105	128	1
138	140	1
100	101	1
34	48	1
6	103	1
109	112	1
105	107	2
24	34	1
143	146	1
154	155	1
92	98	1
23	23	2
128	134	1
112	120	1
24	33	1
48	48	1
75	112	2
109	110	1
97	98	3
116	132	1
78	79	1
90	138	1
11	53	1
83	115	1
3	4	2
117	120	2
50	51	3
108	113	1
24	25	2
68	75	1
18	19	1
38	65	1
143	152	1
134	137	1
120	131	2
124	124	3
23	24	1
36	37	1
13	17	1
113	118	1
140	155	1
30	31	1
127	158	2
142	149	1
77	83	1
87	93	1
116	150	1
157	158	2
159	159	1
84	85	1
136	147	1
140	141	3
156	157	1
68	71	1
111	139	1
116	143	1
8	8	3
80	81	3
26	55	1
25	111	1
117	119	2
86	93	1
82	82	1
140	143	1
18	20	2
81	83	1
15	67	1
106	110	1
40	41	2
20	21	2
22	24	1
147	147	3
3	28	1
3	10	1
127	138	1
112	150	1
86	112	1
7	8	1
66	76	1
91	105	1
126	135	1
73	101	1
145	147	2
42	43	1
96	97	1
2	100	1
51	54	1
147	148	1
73	74	2
64	127	1
91	93	1
9	9	1
62	78	1
67	91	1
2	5	1
72	73	2
16	20	1
154	157	1
0	47	1
13	16	1
69	93	1
125	127	2
77	97	1
57	57	1
140	149	1
43	47	1
136	141	1
42	50	1
91	139	2
80	110	1
9	53	1
80	82	1
119	141	1
21	148	1
69	76	1
116	124	2
98	123	1
83	84	1
26	44	1
124	126	1
113	115	1
87	96	1
29	43	1
98	155	1
81	86	1
98	107	1
1	2	1
42	47	1
136	145	1
117	141	1
56	90	1
56	57	1
36	38	1
42	144	1
28	29	2
67	154	1
108	144	1
26	27	2
127	142	1
158	159	1
19	35	1
17	21	1
100	106	1
128	140	1
31	33	1
117	143	1
88	123	1
32	38	1
145	155	1
82	83	1
130	135	1
23	29	1
