170	171	3
159	161	1
38	50	1
5	5	3
144	144	2
148	149	1
168	168	6
2	3	4
129	129	1
25	28	1
15	15	4
148	148	2
34	34	2
139	139	2
143	143	3
9	9	5
13	13	6
138	138	4
87	87	1
146	146	3
56	57	1
147	147	6
10	36	1
80	80	3
5	11	1
4	4	4
13	16	2
160	160	2
54	55	1
90	90	1
143	144	1
11	11	4
132	132	2
14	23	1
67	79	1
123	123	2
176	176	4
12	12	3
113	114	2
124	158	2
65	72	2
175	176	2
59	59	2
82	82	2
8	8	2
50	50	2
177	177	2
115	146	1
159	167	2
109	111	1
119	119	2
154	154	4
174	174	2
74	74	4
32	32	4
107	107	2
76	76	2
112	112	2
54	81	1
136	136	2
7	9	1
65	65	4
104	104	2
110	110	6
23	23	1
141	150	1
64	64	2
33	33	4
52	52	3
79	79	3
93	93	5
19	19	2
151	153	1
7	7	2
150	150	5
163	163	2
73	73	4
97	97	3
104	106	1
41	41	1
45	45	2
10	10	4
36	36	5
103	124	1
17	18	1
142	142	2
87	89	2
5	15	1
117	117	6
35	36	2
36	40	1
168	169	2
53	53	4
90	95	3
83	89	1
30	32	1
153	153	3
159	159	8
178	178	5
6	7	2
40	43	2
180	180	2
15	16	1
120	120	2
169	171	1
11	13	1
122	133	1
158	159	3
38	38	2
44	44	2
24	25	1
118	129	1
27	40	1
75	75	5
56	94	2
140	140	1
127	127	3
90	94	1
166	178	1
83	83	1
31	31	3
153	154	3
109	112	1
135	135	1
44	45	1
67	67	2
63	63	1
131	131	2
109	119	1
77	78	1
26	27	1
83	91	1
66	67	2
95	95	2
5	137	1
115	115	7
112	115	1
73	80	1
98	100	1
166	166	1
23	24	2
83	85	1
32	33	1
145	145	3
91	91	3
134	134	1
149	149	3
60	60	1
161	162	1
158	158	1
124	124	1
8	44	1
113	113	3
4	18	1
35	108	2
75	76	2
161	161	1
92	109	1
122	122	3
172	173	1
61	61	2
54	54	4
132	135	1
37	37	1
151	151	2
163	167	1
29	29	3
28	28	1
137	137	2
83	84	2
62	62	1
152	152	1
121	122	1
144	147	1
94	132	1
128	140	1
42	42	3
156	156	1
14	14	3
118	118	3
57	83	1
165	166	3
91	121	1
7	16	1
51	51	2
134	135	2
165	165	1
71	71	2
94	130	1
94	94	1
99	100	1
16	21	1
25	26	1
110	112	1
147	148	2
1	1	4
108	111	1
52	53	1
15	22	1
60	64	2
131	134	1
123	125	1
55	55	3
154	164	2
139	140	1
112	142	1
128	128	1
149	162	1
109	109	2
98	143	1
133	172	1
0	0	2
136	174	1
167	168	1
95	104	2
39	39	1
85	85	4
6	6	2
112	114	1
128	130	1
169	169	1
30	30	1
14	15	1
81	82	1
2	5	1
109	136	1
36	37	1
164	166	1
106	106	1
68	134	1
22	24	1
114	114	1
100	152	1
80	81	1
179	179	1
74	75	1
155	155	2
162	162	1
178	179	1
58	59	1
115	119	1
26	26	2
16	16	1
151	152	1
96	98	1
142	143	1
152	155	1
89	89	1
92	94	1
8	9	1
113	129	1
95	102	1
171	171	3
88	88	1
10	14	1
136	137	1
52	88	1
141	141	1
103	106	1
21	21	1
26	29	2
3	4	1
150	151	1
78	78	1
164	164	1
118	126	1
144	145	1
108	108	2
14	44	1
28	29	1
123	146	1
25	25	1
130	131	1
68	71	1
85	91	1
55	56	2
108	109	1
72	73	1
16	17	1
17	17	1
100	159	1
6	26	1
109	128	1
32	63	3
154	167	1
57	57	2
84	84	1
86	86	1
126	126	1
103	103	1
106	107	1
103	105	1
152	161	1
95	96	1
92	103	1
102	103	1
29	143	1
71	77	1
154	155	1
149	150	1
125	125	1
116	116	1
170	170	1
172	172	2
89	94	1
77	82	1
25	27	1
92	92	1
100	122	1
96	96	1
45	84	1
148	150	2
22	22	1
15	45	1
87	90	1
129	144	1
157	157	1
173	174	1
101	101	1
121	121	1
11	32	1
72	72	1
83	86	1
173	173	1
20	22	1
61	62	1
159	173	1
9	25	1
4	37	1
18	19	1
2	2	1
24	29	1
171	172	1
