89	90	1
98	98	4
94	94	11
72	79	1
67	67	9
59	59	5
77	77	5
62	62	8
29	29	3
24	24	5
30	31	2
81	81	5
27	27	5
39	39	1
36	45	3
84	84	6
37	37	1
50	50	9
60	61	1
95	98	3
53	53	5
71	72	1
30	32	1
64	64	5
40	85	1
72	73	1
78	78	6
20	26	1
72	75	1
85	85	4
91	95	1
96	96	4
61	61	5
40	40	2
85	88	1
28	56	2
28	28	5
48	48	4
63	64	2
36	40	1
31	51	2
35	35	7
70	70	6
78	83	1
53	55	1
63	63	3
51	51	5
93	93	7
83	83	10
86	87	1
93	94	3
79	79	9
84	85	1
46	53	2
47	53	1
60	60	7
28	36	1
52	52	7
43	46	1
44	59	2
30	30	1
22	22	4
88	88	5
68	69	4
42	56	1
33	41	1
57	57	7
42	42	2
50	63	3
82	83	1
46	49	2
40	42	2
57	58	2
58	58	8
65	65	4
74	90	1
39	40	3
92	92	8
34	34	4
31	32	2
91	91	9
51	70	1
57	60	1
60	70	1
99	99	6
83	84	1
38	40	2
45	45	3
73	77	1
35	41	1
74	74	6
55	56	1
38	39	2
48	49	3
76	76	5
71	81	1
24	25	1
55	55	3
77	79	3
47	47	3
25	25	4
100	100	4
73	74	2
29	37	1
22	26	2
61	62	1
23	23	1
101	101	4
71	78	2
58	60	2
20	22	1
66	67	2
40	83	1
88	94	1
54	54	2
66	90	3
77	90	1
37	38	3
100	102	1
31	54	1
70	72	2
66	66	2
32	34	2
22	97	1
89	89	3
49	49	3
43	43	2
95	102	1
58	83	1
90	90	6
76	80	1
48	98	1
73	73	4
50	55	2
71	95	1
46	51	1
31	58	1
57	90	2
33	33	5
55	59	1
38	38	2
53	54	2
57	59	1
66	70	1
41	41	6
87	88	2
36	36	1
67	68	1
21	21	1
71	71	4
44	44	2
81	82	3
100	101	1
37	39	1
26	26	2
25	27	1
36	37	1
44	45	4
64	65	3
48	54	1
91	93	1
61	65	1
59	65	1
42	54	2
59	61	2
31	96	1
43	44	1
35	81	2
74	91	1
52	53	1
87	87	4
41	43	2
34	77	1
50	64	1
69	78	1
45	47	1
48	51	1
33	58	1
38	47	1
79	81	1
98	99	1
74	76	1
79	80	3
25	26	2
92	94	1
55	98	1
68	68	2
58	101	1
63	67	1
32	32	3
72	72	5
72	96	1
42	44	1
77	78	1
76	78	1
41	42	1
37	53	1
74	75	2
95	96	1
34	36	1
59	60	1
33	42	1
54	55	1
81	84	1
70	76	1
22	28	1
70	71	2
69	69	4
38	49	1
91	92	3
23	24	1
93	95	1
84	88	1
33	34	1
97	97	1
75	82	1
71	77	1
41	57	1
26	76	1
86	86	4
26	27	1
74	83	1
65	66	2
35	39	1
58	65	1
35	36	1
47	88	1
54	84	1
87	99	1
55	68	1
75	75	1
80	80	2
54	56	1
49	52	1
24	87	1
52	55	1
56	59	1
83	89	1
49	51	1
46	46	1
83	86	1
71	100	1
56	57	1
30	82	1
84	89	2
95	95	3
92	93	1
98	100	1
74	77	1
61	66	1
101	102	1
82	89	1
83	100	1
56	56	1
50	53	1
97	98	1
31	33	1
40	41	2
86	88	1
50	52	1
66	78	1
44	85	1
39	49	1
31	31	1
53	58	1
88	89	1
56	95	1
66	72	1
41	64	1
33	40	1
36	55	1
97	101	1
84	86	2
91	94	1
56	58	1
45	49	1
94	96	1
68	70	1
