8	8	1
170	173	2
19	19	2
10	42	1
34	90	2
113	113	7
80	80	3
138	142	1
125	125	2
149	179	1
6	6	3
40	40	5
83	84	3
100	100	2
67	69	1
85	85	2
59	60	2
87	87	2
108	109	1
156	156	1
146	147	2
61	61	2
11	12	3
182	182	2
153	185	1
108	108	3
47	47	5
101	101	2
23	24	1
184	184	4
58	96	1
158	158	2
13	13	3
10	10	3
2	2	3
23	23	4
39	39	3
22	22	1
134	137	1
183	183	1
149	149	7
169	169	1
34	55	1
146	146	3
1	1	3
94	94	2
107	108	1
15	34	1
68	122	1
84	84	1
143	146	1
173	173	1
33	33	1
60	60	2
170	170	5
185	185	1
127	127	5
138	157	1
113	146	2
174	174	1
84	90	2
68	76	1
170	174	1
179	180	1
71	72	1
138	138	1
138	163	2
22	24	1
111	113	1
46	47	2
109	110	3
98	113	1
20	20	3
140	144	1
33	34	1
15	15	2
40	48	1
54	55	1
126	126	4
89	99	2
48	48	2
145	145	3
95	95	1
19	20	2
136	136	4
29	29	2
143	144	1
78	142	1
174	175	1
64	90	1
16	16	1
85	86	1
12	16	1
154	166	1
66	66	1
55	55	1
171	173	1
88	88	1
31	36	1
43	44	1
99	99	3
56	77	1
123	140	1
132	133	1
104	104	3
151	185	1
58	84	1
143	143	2
92	93	1
155	155	3
142	142	3
96	98	2
99	103	1
172	172	2
30	30	2
29	30	1
190	190	1
4	4	2
14	14	6
42	42	3
91	96	1
0	0	3
56	56	2
97	97	3
96	96	1
5	5	5
79	79	4
91	91	1
54	54	4
154	158	1
154	154	2
15	16	2
25	25	2
120	120	1
46	58	2
95	101	1
21	24	1
115	115	5
188	189	2
77	78	3
24	24	4
180	189	1
134	134	2
71	71	3
159	159	2
10	14	1
89	89	2
130	134	1
85	88	1
8	9	2
18	18	1
90	95	1
92	99	1
118	119	1
73	109	1
117	117	2
77	89	1
181	182	2
62	62	2
26	26	3
38	38	3
70	70	2
171	171	1
20	21	2
179	179	1
163	163	2
180	181	1
126	128	3
120	124	2
119	150	1
114	133	1
159	160	1
147	147	1
128	128	1
65	65	1
43	43	1
82	83	2
35	88	3
97	101	2
151	151	3
111	111	1
181	181	2
28	28	3
177	177	1
90	90	2
141	141	3
128	131	1
27	30	1
140	141	1
103	103	3
14	15	2
103	139	1
9	10	1
71	100	1
188	188	1
144	144	1
131	131	2
94	105	1
15	20	1
157	166	1
97	120	1
27	33	1
81	124	1
173	174	1
98	98	1
13	25	1
78	79	1
33	36	1
35	35	2
116	117	1
114	114	4
153	153	2
73	74	1
133	133	1
127	147	2
100	128	1
122	122	1
121	122	1
69	69	1
53	54	1
80	164	2
164	164	1
57	57	1
123	123	1
167	168	1
37	37	3
86	95	1
39	47	1
140	140	2
2	6	1
43	63	1
79	80	1
72	72	2
118	118	1
13	48	1
109	109	2
79	185	1
83	83	3
70	82	1
2	3	1
87	105	1
10	19	1
171	172	1
144	145	1
61	66	1
86	87	1
174	185	1
115	117	1
130	130	2
128	141	1
17	17	2
152	152	1
176	188	2
78	78	1
91	93	2
43	45	1
42	43	1
76	76	2
25	39	1
11	11	1
178	178	2
184	190	1
33	37	1
39	40	1
88	89	1
37	39	1
110	110	4
41	41	2
68	68	2
7	7	1
132	132	2
119	119	1
175	175	1
80	84	1
41	42	1
58	58	2
106	123	1
30	31	1
43	46	1
86	86	1
73	108	1
126	139	1
5	6	1
189	189	1
77	79	1
175	176	1
44	44	1
186	186	1
82	82	1
168	168	2
32	32	1
1	9	1
35	36	1
31	149	1
18	19	1
24	64	1
170	171	1
140	146	1
109	111	1
74	74	1
129	130	1
55	56	1
145	159	1
107	107	1
187	188	1
156	158	1
52	52	1
37	40	1
131	138	1
184	185	1
72	87	1
11	25	1
183	184	1
131	179	1
111	133	1
10	17	1
34	34	1
151	152	1
126	149	1
10	13	1
136	137	1
40	41	1
150	150	1
140	153	1
