124	124	1
109	111	2
186	191	1
108	123	2
14	14	3
84	87	2
73	112	1
188	190	1
23	24	2
94	95	1
149	149	2
45	45	8
76	77	1
22	22	2
35	79	1
155	182	1
158	158	4
10	10	2
13	13	5
190	190	4
65	66	1
156	158	1
34	34	2
12	12	2
128	128	1
54	54	3
67	67	1
48	48	7
57	57	2
6	7	2
20	21	1
114	115	1
133	133	2
2	2	3
100	122	1
182	183	1
51	51	4
19	19	3
48	52	1
86	87	3
9	9	2
26	28	2
84	85	1
104	104	1
166	166	2
175	176	1
194	194	3
167	178	1
164	165	1
113	113	2
186	186	5
58	58	2
163	163	1
52	52	6
37	37	2
43	43	4
122	135	1
170	171	1
101	101	4
136	155	1
9	172	1
49	49	1
148	148	3
170	170	2
83	83	1
72	72	3
119	120	1
7	36	1
160	173	1
120	120	1
38	38	6
147	147	2
68	111	1
154	154	3
34	36	2
1	3	1
183	183	2
178	187	1
145	145	2
81	81	1
110	122	1
171	171	3
137	137	3
144	145	2
77	78	1
182	182	1
25	25	1
31	59	1
159	159	2
137	138	1
180	180	4
172	172	2
33	33	2
42	42	3
69	69	2
155	158	1
127	127	3
67	88	2
66	88	1
62	63	1
41	41	1
5	65	2
115	116	2
39	39	1
18	19	2
139	140	2
32	32	1
162	162	1
193	193	1
5	5	2
46	46	2
174	174	2
141	141	1
109	110	1
74	90	1
28	28	1
189	190	2
169	169	2
43	47	1
23	30	1
181	182	1
187	191	1
125	125	3
60	132	2
161	161	2
153	156	1
167	171	1
184	184	2
130	130	2
102	103	2
1	1	2
169	170	1
106	106	1
3	3	3
11	25	2
31	31	4
6	27	2
167	167	2
126	126	1
97	98	1
183	184	1
47	48	1
126	127	1
152	152	2
57	128	2
6	41	1
36	136	1
177	177	1
180	181	4
21	22	1
141	196	1
6	6	3
4	10	1
7	8	1
123	123	3
25	135	1
40	41	1
8	15	1
178	178	4
148	149	1
33	88	1
121	162	1
21	35	1
150	150	1
15	15	1
100	100	1
187	187	2
156	157	1
9	23	1
117	118	1
35	35	1
37	39	1
26	27	2
44	45	1
40	40	1
156	159	1
25	154	1
185	185	1
165	166	2
160	160	2
8	182	1
23	31	1
189	189	1
157	157	1
15	186	1
120	121	1
38	42	1
0	1	1
29	29	1
168	168	2
173	173	1
71	71	1
70	71	1
121	121	1
121	124	2
27	29	1
63	71	1
50	50	1
138	140	1
197	197	2
143	144	1
115	115	1
186	187	1
95	100	1
125	126	1
75	76	1
172	190	1
176	176	1
10	11	1
151	151	1
76	76	1
107	107	1
18	20	1
25	35	1
23	23	1
18	18	1
59	59	2
154	157	1
23	36	1
104	107	1
73	73	1
60	60	1
11	11	1
36	36	1
178	188	1
165	165	1
9	10	1
111	111	1
177	178	1
164	164	1
140	140	2
180	187	1
55	68	1
