90	90	2
124	124	2
131	131	2
132	132	1
98	101	1
3	3	2
153	153	7
161	165	1
59	59	2
94	94	1
113	117	1
9	9	2
127	127	1
162	162	4
173	173	1
164	166	1
31	32	1
140	142	1
42	101	1
52	52	2
40	41	1
91	115	1
51	51	3
58	58	5
158	171	1
96	96	1
123	126	1
101	104	1
84	84	1
173	176	1
81	82	2
29	29	2
172	172	1
2	2	3
77	78	1
125	173	1
98	103	2
76	76	4
149	149	3
148	149	2
19	40	1
106	107	3
75	75	1
92	92	1
144	144	4
134	134	3
68	68	1
139	139	4
160	162	1
37	61	2
135	135	4
99	99	3
94	98	1
21	21	2
112	143	1
136	136	2
128	128	1
117	127	1
139	140	1
178	178	2
150	150	4
124	125	2
33	33	3
164	164	1
126	154	1
79	79	3
76	86	1
123	125	1
8	15	1
176	176	5
141	162	1
80	134	1
114	118	1
8	21	1
32	32	3
60	60	2
71	71	4
165	165	1
140	140	4
72	74	1
138	138	1
125	126	1
88	88	1
27	27	1
101	106	1
102	103	2
179	179	1
59	60	1
41	41	1
141	141	3
89	90	1
24	24	1
6	7	2
158	158	3
41	42	1
55	55	3
61	61	2
125	125	2
34	34	1
142	143	1
58	59	1
30	30	2
18	20	1
122	127	1
74	74	1
101	101	1
93	93	3
91	106	1
109	109	1
154	155	1
103	104	1
123	123	1
8	8	1
153	154	2
84	85	1
128	159	1
3	7	1
142	142	1
3	5	1
110	128	1
104	104	1
143	144	3
93	107	1
110	110	1
58	165	1
95	95	1
147	147	1
160	160	1
33	35	1
1	1	1
145	145	2
7	7	2
139	141	1
148	148	1
112	144	1
2	3	3
33	41	1
116	116	1
38	38	1
171	171	1
152	152	1
130	130	1
156	157	1
121	121	1
11	11	2
43	43	1
79	81	1
170	170	2
140	141	1
78	111	1
92	93	2
35	35	2
111	130	2
89	89	1
50	50	1
15	46	1
19	19	1
65	66	1
138	139	1
135	179	1
154	154	2
56	56	2
67	84	1
1	6	1
26	27	2
117	117	1
174	174	3
134	137	1
125	135	1
121	127	1
106	106	1
161	161	1
29	51	1
10	10	1
133	179	1
79	80	1
172	173	1
82	82	1
150	151	1
108	123	1
115	115	2
56	57	1
15	19	1
151	151	1
86	86	1
73	73	1
57	57	2
6	19	1
94	95	1
122	122	1
112	112	1
147	167	1
177	177	2
143	143	2
98	98	1
156	156	1
108	108	1
39	39	1
75	76	1
8	10	1
74	175	1
166	168	1
107	107	1
67	67	1
18	24	1
27	28	1
149	150	1
14	14	1
26	26	1
163	167	2
89	92	1
52	53	1
11	14	1
58	60	1
99	107	1
38	39	1
63	65	1
129	129	1
129	149	1
16	16	1
71	119	1
102	102	1
26	31	1
97	98	1
102	177	1
107	108	1
81	86	1
126	126	1
4	5	1
126	178	1
72	72	1
1	53	1
152	153	1
74	98	1
103	105	1
25	33	1
1	2	1
139	148	1
142	145	1
54	54	1
134	138	1
42	50	1
100	103	1
170	174	1
