34	34	2
104	104	4
220	220	10
18	19	2
72	73	1
8	8	5
138	175	1
95	106	1
57	57	5
124	124	4
16	16	7
133	133	1
116	116	1
27	75	1
14	104	3
30	30	8
118	118	3
143	143	2
191	191	2
144	144	5
139	140	2
144	147	1
178	178	3
11	11	2
99	99	1
240	240	4
161	181	1
13	15	1
237	237	1
174	185	1
153	153	3
101	101	4
2	45	3
82	82	3
99	100	1
149	149	4
151	151	5
19	19	7
80	80	1
53	53	4
233	233	4
20	21	2
124	125	2
98	99	1
232	232	4
106	106	4
103	103	2
54	54	5
226	227	3
203	203	2
176	176	1
197	220	1
225	225	3
150	219	1
126	141	1
25	25	2
111	204	1
157	157	3
39	217	2
162	165	1
239	239	1
165	165	3
179	183	1
163	163	7
155	155	2
22	22	1
86	175	1
145	145	1
210	210	2
33	33	5
14	14	4
121	121	4
154	154	3
168	182	1
26	26	5
231	231	4
164	164	1
185	186	2
137	137	5
60	60	2
157	158	1
1	1	3
153	154	4
177	181	1
189	190	1
7	7	6
18	22	1
162	184	1
113	121	1
63	63	2
159	159	3
217	217	4
134	176	1
18	36	3
27	27	3
117	117	1
214	215	1
192	192	2
48	48	6
205	206	1
147	163	1
31	31	3
33	36	1
5	6	1
12	12	5
179	180	4
223	223	1
129	145	1
169	169	5
72	96	1
142	143	1
99	113	1
186	221	1
162	163	1
184	184	2
173	173	6
37	38	1
74	74	1
150	150	2
215	215	2
173	174	2
73	73	3
236	236	2
55	55	1
179	179	2
166	166	2
183	190	1
205	213	2
182	183	2
158	159	1
28	28	6
84	84	4
199	199	3
39	39	3
183	187	1
135	135	2
204	216	1
124	126	1
139	139	3
161	167	2
146	146	2
61	61	1
148	149	1
81	81	2
40	144	1
197	197	1
96	96	4
182	182	2
2	2	4
180	180	5
63	84	2
68	68	3
136	165	1
152	152	4
111	111	2
159	160	1
230	231	1
161	168	3
33	39	2
187	188	4
126	126	6
227	229	1
123	151	1
30	31	1
17	17	5
167	179	2
48	73	1
186	186	3
161	161	3
108	108	3
125	126	2
136	138	1
220	222	3
75	75	4
156	156	5
40	41	2
162	162	4
67	68	1
187	187	2
148	148	4
58	60	1
3	3	4
134	134	3
64	65	1
121	122	1
200	200	2
228	228	2
236	237	1
77	78	2
11	12	2
190	192	2
238	238	3
125	125	5
165	180	1
20	20	5
114	114	2
29	30	3
167	167	2
241	241	2
85	85	1
24	230	1
23	23	2
98	98	2
74	75	2
24	24	2
159	172	1
75	108	1
86	88	1
149	161	2
210	211	1
45	45	1
205	205	3
37	37	2
67	67	2
50	50	1
142	142	7
49	236	1
177	177	1
15	15	1
234	234	3
119	120	1
122	122	2
209	223	1
118	146	1
154	161	2
61	62	2
27	28	1
128	128	1
198	198	2
152	159	2
89	89	1
144	145	1
175	187	1
227	227	3
167	177	1
188	188	2
162	167	2
167	168	1
142	147	1
46	46	4
216	216	4
17	52	1
44	67	1
221	221	1
183	184	2
156	157	2
113	113	2
155	186	1
56	56	3
188	190	1
147	147	2
152	201	2
171	171	3
103	111	2
175	175	2
209	209	1
44	44	3
77	77	1
100	108	1
47	47	5
228	230	1
172	172	3
10	10	4
101	103	2
12	60	1
69	69	3
140	165	1
80	83	1
48	60	1
160	161	1
166	167	1
36	36	1
155	174	1
158	158	2
152	158	2
35	36	2
189	200	1
97	97	2
51	51	3
207	207	1
135	146	1
9	9	1
8	219	1
181	181	1
91	127	1
45	46	2
154	209	1
5	5	2
29	29	1
130	134	1
59	59	1
95	96	1
192	230	1
41	41	1
211	211	1
168	168	3
25	45	1
139	143	1
235	237	1
149	151	1
158	161	1
174	174	2
58	59	1
158	170	1
129	129	1
103	138	1
98	113	1
163	165	1
43	43	2
108	137	1
227	230	1
60	63	1
4	18	1
152	153	1
32	32	2
16	31	1
150	151	2
196	197	1
201	202	1
123	123	2
90	91	1
112	113	1
184	187	1
155	164	1
162	188	1
199	200	1
207	208	1
141	141	1
20	23	1
157	166	1
195	196	1
22	23	1
0	0	4
107	107	3
7	34	1
172	188	1
196	196	1
136	137	1
64	64	3
84	85	1
181	207	1
104	105	1
163	181	1
178	180	1
113	178	1
33	34	2
115	115	3
152	176	1
155	156	1
140	140	1
218	218	1
117	118	1
137	150	1
138	140	1
179	184	1
62	66	1
186	187	1
198	199	1
66	66	1
71	71	1
165	166	1
17	40	1
120	120	1
75	76	1
202	203	1
212	213	1
51	52	1
210	213	1
219	220	1
130	130	2
40	40	3
213	213	1
28	47	1
47	48	1
143	148	1
4	5	1
171	178	1
123	125	1
175	177	1
18	21	1
63	64	1
49	49	1
135	136	1
109	136	1
229	229	1
218	219	1
194	196	1
155	158	1
127	127	3
73	99	1
225	227	2
144	208	1
6	6	2
160	175	1
76	76	1
102	102	2
190	190	2
235	235	1
38	38	1
95	95	1
161	162	1
186	188	1
118	140	1
229	230	1
226	228	1
164	186	1
183	183	1
143	144	1
202	202	1
24	107	1
102	128	1
17	39	1
183	185	1
150	160	1
3	7	1
65	65	1
33	178	1
194	194	1
202	217	1
128	174	1
242	242	1
155	165	1
136	184	1
153	182	1
71	133	1
120	139	1
187	213	1
205	208	1
70	71	1
176	177	1
103	104	1
214	222	1
219	219	1
