119	119	2
36	36	4
155	156	1
146	146	3
158	158	3
42	42	1
14	14	8
67	67	4
6	44	1
66	67	1
72	72	1
100	100	1
137	137	1
58	58	2
151	178	1
132	160	2
27	28	1
183	183	3
21	21	2
12	12	2
28	29	1
24	31	1
8	30	1
0	0	2
100	107	1
9	10	4
186	186	4
64	65	1
143	143	1
25	25	2
55	55	2
174	176	1
188	189	1
0	2	1
181	182	1
160	160	2
127	127	5
20	20	3
40	40	3
31	32	1
38	71	1
4	4	1
12	13	1
131	195	1
9	9	4
103	103	2
182	182	2
68	70	1
84	84	1
18	22	1
28	30	1
116	117	1
169	196	1
38	38	2
5	195	1
45	46	1
187	188	3
113	113	1
7	7	1
144	145	1
45	45	2
140	141	1
39	45	1
18	18	3
17	17	4
152	152	3
121	121	3
123	123	2
109	109	1
16	17	1
150	150	1
34	34	2
2	2	3
13	14	1
170	170	1
144	144	1
33	36	1
141	195	1
14	15	1
99	132	2
192	192	2
116	116	1
175	175	1
165	166	1
142	149	1
134	134	1
162	166	1
13	13	1
37	37	3
174	175	1
144	146	1
196	196	2
152	179	1
0	1	1
33	57	1
36	37	1
114	115	2
33	33	1
179	180	1
74	74	2
3	3	1
81	82	2
188	188	1
159	179	1
6	8	1
22	22	2
149	149	3
35	35	2
138	138	2
53	53	2
95	95	1
5	5	4
62	62	1
5	9	1
39	39	1
180	181	1
34	155	2
157	157	2
93	99	1
185	186	1
142	142	2
43	43	2
194	194	2
167	167	1
44	44	3
173	173	2
178	179	1
50	101	1
15	17	1
177	184	1
181	181	1
155	157	1
33	34	2
60	60	2
184	184	1
64	77	1
52	57	1
110	111	1
108	109	1
120	120	2
94	95	1
99	115	1
154	155	1
161	162	1
63	63	1
102	103	1
139	139	2
69	88	1
79	80	1
11	11	3
98	99	1
161	161	1
55	56	2
127	128	1
24	33	1
167	191	1
171	171	1
25	26	1
66	66	1
157	158	1
21	22	1
40	62	2
137	139	1
141	168	1
25	172	1
10	68	1
76	76	2
167	170	1
138	158	1
169	169	1
27	27	2
14	193	2
1	1	1
101	102	1
23	34	1
114	114	3
98	98	1
56	56	1
11	13	1
24	24	1
159	180	1
156	156	1
130	132	1
65	65	1
104	105	1
140	140	1
11	12	2
160	161	1
3	67	1
38	39	1
176	176	1
139	157	1
26	27	1
142	150	1
8	32	1
34	36	1
74	75	1
129	129	1
61	61	2
99	100	1
95	103	1
141	142	2
6	6	1
59	59	1
9	44	1
38	179	1
133	171	1
9	11	1
185	185	1
112	138	1
30	30	2
47	47	2
131	194	1
157	179	1
4	5	1
31	31	1
49	49	1
151	169	1
162	162	1
88	172	1
159	159	1
70	70	1
83	83	1
143	148	1
57	57	1
151	152	1
107	108	1
16	157	1
169	186	1
111	111	1
170	186	1
52	52	1
56	60	1
24	29	1
5	14	1
68	68	1
26	26	1
32	47	1
67	68	1
125	125	1
77	77	1
15	15	1
165	165	1
69	70	1
41	41	1
190	190	1
