89	89	1
126	127	2
80	80	5
127	127	6
121	121	6
125	126	4
16	17	4
86	86	9
144	152	1
149	149	4
39	39	7
185	186	2
26	29	1
82	82	13
154	154	8
173	173	8
6	77	1
44	44	2
24	24	9
71	71	5
75	75	6
91	126	2
109	110	4
125	125	4
78	78	10
17	23	1
40	40	8
178	181	1
129	129	12
3	3	5
144	166	1
150	150	8
65	65	3
156	156	5
74	76	3
155	156	4
137	138	3
16	16	4
67	67	5
36	36	4
86	87	2
130	140	3
41	41	7
48	48	9
62	62	5
115	115	3
88	88	6
123	125	1
168	168	6
120	120	7
69	71	1
174	174	9
159	160	6
90	91	1
17	17	15
177	177	5
18	25	1
101	103	1
76	76	5
87	87	6
95	96	1
137	137	4
89	146	1
187	187	8
53	53	6
132	132	3
95	124	2
57	57	5
96	102	1
77	77	7
5	5	5
145	145	3
135	149	1
43	43	4
54	55	1
119	146	1
10	11	4
110	111	3
32	32	5
66	66	2
93	94	4
184	184	6
26	26	7
27	72	1
103	184	1
19	20	7
79	79	5
42	42	6
138	138	5
121	134	1
141	148	1
6	6	7
11	11	3
1	1	10
10	13	1
97	97	5
23	23	5
153	153	8
123	123	8
42	44	2
122	125	1
108	108	6
104	108	1
21	22	1
107	111	1
73	73	5
128	145	2
74	74	5
63	63	3
7	7	10
151	151	6
65	73	2
27	27	2
106	106	2
140	140	10
71	77	2
144	146	1
38	83	1
95	100	1
96	96	7
167	168	2
156	167	1
70	70	4
0	0	8
26	38	2
68	68	7
176	181	1
155	157	3
155	155	3
16	20	2
148	150	1
148	187	1
148	148	6
124	125	1
176	177	2
185	185	8
124	132	1
53	54	3
141	141	2
92	94	2
43	47	1
20	20	6
159	159	3
8	8	6
147	149	2
114	114	4
154	166	1
47	47	8
82	83	1
164	166	1
4	5	2
100	100	7
82	153	1
65	66	2
11	22	3
73	74	3
21	21	3
98	100	1
34	35	1
12	12	5
30	30	7
188	189	2
15	15	8
189	189	4
108	109	2
175	175	3
76	84	1
130	138	1
31	31	4
156	158	4
162	167	1
175	177	1
164	164	9
116	116	2
34	34	7
137	139	2
178	178	2
29	33	1
70	72	2
186	187	2
2	2	7
71	72	4
22	22	8
27	28	3
99	99	6
142	142	8
179	179	10
59	59	7
145	164	1
78	84	3
146	146	3
37	37	4
45	45	8
158	158	2
59	65	1
37	38	4
122	122	8
147	148	3
169	169	2
89	129	1
103	103	6
55	56	3
178	187	1
15	16	2
62	63	1
183	183	11
153	155	1
35	35	3
21	27	2
124	124	6
107	107	4
14	14	5
4	4	7
113	115	1
171	172	1
104	106	2
30	45	1
15	17	1
93	107	1
72	72	2
23	24	1
81	81	7
103	104	2
73	92	1
19	28	1
36	38	2
59	64	1
139	139	3
110	110	6
119	140	1
120	135	1
163	163	2
102	102	3
155	179	1
56	56	8
122	126	1
29	29	3
130	132	1
2	3	1
72	92	1
126	126	6
182	182	2
165	165	2
46	46	2
10	25	2
129	183	1
116	117	2
21	36	1
76	78	2
78	99	1
113	140	1
77	83	1
95	95	6
11	12	1
77	79	1
168	170	1
76	146	2
17	19	1
54	56	2
119	119	1
67	68	1
84	84	5
18	22	2
129	131	1
186	186	6
4	6	1
154	155	2
89	90	1
136	136	2
133	133	3
81	83	1
62	65	1
5	6	5
175	180	1
88	89	1
60	60	3
189	190	1
86	88	1
0	1	1
166	166	2
91	91	3
57	61	1
33	33	3
158	166	1
130	130	7
35	37	1
54	54	1
130	131	1
172	172	3
134	134	2
58	58	3
146	148	2
17	26	1
96	101	1
76	111	1
10	10	6
132	133	2
112	112	3
164	165	3
56	57	4
114	115	2
58	108	2
98	130	1
188	188	4
183	190	1
85	86	1
20	22	2
134	142	1
38	38	9
93	126	3
29	30	3
142	144	1
68	74	1
113	113	6
19	19	2
131	131	4
14	22	1
172	173	2
72	73	3
186	189	1
165	166	2
31	33	1
143	143	4
111	119	2
25	88	1
142	143	3
181	182	1
118	125	1
64	64	2
111	113	1
140	152	1
157	159	2
18	20	5
57	58	1
7	122	1
83	84	3
176	176	5
70	102	1
144	169	2
129	130	2
34	36	1
123	124	1
5	7	1
150	151	1
83	83	4
55	55	1
104	112	1
25	25	3
183	184	1
100	101	1
59	60	1
60	80	1
32	37	1
18	18	2
37	44	1
9	39	1
173	174	1
157	157	2
74	78	1
57	89	2
77	82	2
110	139	1
55	134	2
140	142	1
85	85	3
82	106	1
118	124	1
18	19	1
55	78	2
147	147	3
122	123	1
149	150	3
37	57	2
10	89	1
166	170	1
147	159	1
20	25	1
47	48	1
53	99	1
27	37	1
110	140	1
94	94	5
157	158	2
132	142	1
136	138	1
56	77	1
20	36	2
13	13	2
119	120	1
140	141	5
109	109	4
37	39	2
8	122	1
12	13	3
91	92	1
76	77	1
98	98	3
131	132	1
170	184	2
103	107	1
56	68	1
58	64	2
31	35	1
78	79	1
128	129	2
108	110	1
111	111	2
152	152	2
178	180	1
171	171	3
153	169	2
22	26	1
2	74	2
55	88	1
22	44	1
44	47	1
58	59	1
148	156	1
106	127	1
64	65	3
20	23	1
79	126	1
30	31	1
68	125	1
107	108	3
118	118	1
24	36	1
59	63	1
167	170	1
38	39	1
69	69	1
127	128	1
142	151	1
130	133	1
134	135	2
175	176	2
20	21	2
131	133	1
128	140	1
108	147	1
17	18	2
61	61	1
18	21	1
115	116	1
187	190	2
53	68	1
89	109	1
6	57	1
96	98	2
148	149	1
170	170	2
152	154	2
24	48	1
44	68	1
32	33	1
154	182	1
91	93	1
110	127	1
144	144	5
172	174	1
146	147	1
71	103	1
120	125	1
139	140	1
104	104	1
90	93	1
95	106	2
90	95	1
170	171	1
84	86	1
93	127	2
184	185	2
151	152	1
42	43	1
44	46	1
141	142	1
139	152	1
55	57	2
52	53	1
109	111	1
137	169	1
169	175	1
102	104	1
152	153	1
82	84	1
90	90	2
156	157	1
78	82	1
54	69	1
30	34	2
62	75	2
58	93	2
176	188	2
77	80	1
55	89	1
117	117	2
20	43	1
60	61	1
42	164	1
153	154	1
118	119	1
96	99	1
136	140	1
177	178	1
66	67	1
106	151	1
30	33	1
24	25	1
88	126	1
120	121	1
184	186	1
104	111	1
79	80	2
3	4	1
144	160	1
89	93	1
54	89	1
114	135	1
88	110	1
160	183	1
154	158	1
174	176	1
35	36	2
89	103	1
144	145	1
180	181	1
31	36	1
167	174	1
75	76	1
58	61	1
160	160	2
55	99	1
96	100	1
142	170	1
12	164	1
176	182	1
91	94	1
180	180	1
144	151	1
104	126	1
48	52	1
33	35	1
114	141	1
130	134	1
66	70	1
144	153	1
44	45	1
53	96	1
76	83	1
179	180	1
54	71	1
150	159	1
14	58	1
150	164	1
8	39	1
103	109	1
138	139	1
133	135	1
45	46	1
123	170	1
5	23	1
12	17	1
128	128	1
53	80	1
93	93	1
157	167	1
24	27	1
100	103	1
11	13	1
