186	187	2
160	162	1
99	100	1
126	127	1
230	230	5
32	32	4
156	187	1
141	143	1
101	101	3
30	65	1
106	106	2
56	57	1
169	170	1
164	215	1
105	105	3
0	24	2
166	166	7
162	215	1
173	175	1
50	50	2
158	158	4
187	187	4
202	202	2
25	25	4
124	124	5
115	118	1
233	234	2
3	18	1
177	177	5
171	172	3
120	120	5
169	182	1
103	119	1
115	115	2
55	55	1
25	131	2
201	201	2
18	18	1
11	11	3
182	182	2
125	126	1
173	173	3
128	136	1
49	49	1
140	147	1
123	124	1
160	171	2
76	83	1
105	107	1
46	46	4
20	25	1
107	107	1
76	77	1
171	171	3
105	109	1
22	22	4
137	138	2
30	30	4
223	225	1
121	121	1
32	135	2
45	45	2
146	148	1
119	119	1
160	160	2
198	198	1
223	223	1
238	239	1
104	174	1
88	88	5
122	122	5
128	128	1
36	40	1
149	150	2
122	123	1
106	107	1
232	234	1
169	169	2
17	17	2
21	21	3
180	192	1
60	62	2
164	167	2
15	15	3
108	108	2
178	200	1
1	1	1
136	136	2
214	215	2
82	82	1
1	2	1
234	234	2
12	13	1
241	241	2
22	37	1
19	19	4
27	174	1
114	140	2
0	0	6
163	163	2
83	84	1
216	227	2
72	88	1
53	53	3
20	20	1
21	23	2
0	1	1
185	185	2
177	178	1
8	10	1
36	36	2
62	62	3
160	161	2
206	206	2
70	71	3
138	139	2
113	113	5
165	165	2
226	226	2
232	232	2
204	206	2
59	59	1
9	9	4
135	135	4
226	229	1
170	171	2
212	229	3
143	164	1
123	123	2
10	11	1
29	31	1
104	104	3
56	56	2
98	98	3
71	71	3
150	150	2
77	77	1
72	72	2
203	204	2
154	155	3
51	155	2
174	174	2
186	186	3
49	51	1
158	159	2
86	86	1
25	31	1
107	108	1
238	238	4
161	161	4
205	237	1
102	173	1
128	203	1
76	85	1
41	41	3
213	213	3
30	72	1
6	6	2
221	221	3
69	70	2
60	60	1
223	224	1
137	139	1
40	40	6
24	38	1
138	156	1
76	76	1
140	140	1
180	180	1
154	154	3
172	172	4
145	152	1
219	219	1
208	209	1
26	28	1
205	213	1
39	55	2
47	64	1
133	133	2
207	207	2
167	184	2
48	60	1
217	218	1
52	52	1
102	102	1
11	15	1
126	126	4
29	29	3
109	109	1
5	7	2
195	197	1
188	188	1
76	78	1
211	211	2
209	209	2
48	48	1
162	162	4
222	223	1
70	70	3
143	151	1
38	38	1
96	96	1
3	7	1
42	54	4
60	115	2
75	77	1
191	192	1
214	214	2
33	33	2
37	55	1
50	51	1
75	76	2
81	81	1
1	21	1
113	114	2
137	137	4
100	100	2
18	19	1
9	232	1
146	146	2
141	141	3
18	182	1
67	138	1
32	136	1
156	156	1
33	49	1
12	12	2
13	14	1
26	26	3
197	197	3
39	39	2
201	206	1
155	156	2
23	129	1
2	3	1
176	177	1
67	67	3
163	215	2
243	243	1
81	82	4
185	186	2
226	230	1
27	99	1
231	231	2
55	56	2
127	128	1
54	136	1
67	80	2
43	43	2
32	33	2
179	179	1
44	66	2
149	157	1
147	147	1
192	196	1
183	183	2
51	214	2
205	241	1
103	103	1
129	133	3
29	32	1
137	140	1
10	10	2
143	144	1
30	31	1
20	21	1
159	159	1
175	176	1
37	37	1
84	84	2
12	55	2
25	30	1
75	84	1
96	101	1
47	48	1
176	176	2
28	46	1
8	8	2
21	22	1
58	58	2
152	152	1
182	183	1
68	68	1
16	23	1
153	153	2
27	70	1
131	131	3
180	183	2
146	160	1
189	189	1
130	130	1
178	180	1
101	102	1
64	64	1
212	213	1
7	8	1
168	168	2
110	110	1
161	162	1
118	118	2
184	188	1
61	62	2
40	41	1
79	79	1
60	61	1
13	13	1
146	182	1
2	2	3
105	126	1
14	14	1
148	148	1
66	66	1
43	65	1
120	128	1
167	182	1
193	193	2
199	215	1
16	25	1
47	47	1
2	19	1
35	35	3
65	66	1
225	225	1
51	51	1
17	44	1
175	175	2
124	126	1
31	120	1
31	63	1
170	170	2
37	38	1
5	6	2
104	107	1
33	136	1
234	235	1
78	78	2
144	144	1
155	155	1
226	227	1
184	184	2
129	129	1
230	231	1
237	237	1
0	173	1
5	5	1
104	105	1
52	54	1
178	178	2
67	115	1
150	223	1
84	196	1
80	118	1
153	182	1
74	129	1
79	80	1
199	221	1
80	81	1
127	127	2
54	85	1
183	184	1
149	149	1
191	191	1
23	23	1
31	33	1
7	7	1
3	4	1
139	140	1
215	215	1
145	146	2
18	162	1
130	131	1
228	229	1
190	191	1
3	5	1
17	33	1
27	27	1
0	167	1
168	192	1
4	5	1
134	134	1
114	118	1
85	85	1
4	6	1
74	74	1
65	65	1
1	166	1
26	64	1
44	44	1
216	216	1
151	151	1
64	65	1
51	53	1
4	4	1
216	217	1
