175	175	4
236	236	1
185	186	2
230	230	4
88	170	1
190	190	1
227	230	2
82	82	2
74	75	2
50	50	4
80	80	3
23	23	4
171	195	1
237	247	2
107	108	2
7	8	1
118	118	7
197	197	4
181	181	4
195	195	2
183	245	1
234	234	3
180	180	4
221	232	1
39	39	3
111	112	4
108	108	3
51	51	2
21	21	6
186	186	4
47	47	6
45	45	3
213	226	1
34	35	1
179	179	4
194	194	2
107	114	3
169	169	4
10	15	1
15	15	1
18	245	1
119	119	6
61	61	3
91	91	4
245	245	3
240	240	4
212	212	10
231	234	1
112	112	4
188	188	3
213	214	1
41	41	2
48	67	1
207	207	3
92	92	4
229	229	2
163	164	2
34	34	7
109	109	3
19	19	4
241	241	3
35	37	3
214	235	1
214	214	4
155	155	1
24	25	1
46	168	2
107	107	8
44	44	4
211	214	1
146	147	1
161	161	2
202	202	4
67	67	3
83	85	2
59	60	1
55	55	1
170	188	2
246	246	4
6	7	2
33	33	10
22	22	2
179	180	3
189	189	2
158	159	1
30	30	3
248	248	3
84	85	2
212	234	1
56	56	1
28	29	1
228	228	10
220	220	7
102	102	3
203	203	9
21	22	1
82	85	1
244	244	5
116	117	3
190	192	1
195	196	1
220	223	1
6	8	1
215	215	2
219	219	4
186	187	1
2	8	2
68	68	1
57	57	5
166	166	3
43	43	7
104	106	1
193	193	2
85	85	2
171	172	1
64	66	1
183	205	1
210	210	2
48	48	2
239	241	1
204	204	3
201	201	7
38	38	3
35	35	3
184	185	1
37	37	5
28	28	4
13	13	1
222	223	2
31	31	3
58	58	4
199	200	1
152	152	2
12	12	8
174	196	1
243	243	3
82	108	1
173	186	1
177	177	1
76	76	1
79	82	2
54	55	2
237	238	2
187	187	2
182	224	2
183	184	2
146	166	1
222	239	1
242	242	3
99	99	2
185	211	1
225	232	1
162	175	1
26	26	4
215	221	1
231	231	2
53	93	1
232	232	4
225	240	1
75	82	1
53	54	1
11	15	1
90	90	1
59	59	1
164	165	1
87	87	1
168	168	3
10	10	2
37	45	1
205	205	5
95	95	2
72	73	2
196	196	2
61	245	2
89	170	2
211	222	1
44	45	3
81	81	3
47	52	2
224	224	4
11	14	1
42	62	2
42	42	2
199	199	2
40	40	4
227	227	2
16	52	2
84	84	4
176	176	3
181	188	1
217	217	4
243	244	1
215	216	1
211	211	2
76	77	2
239	240	2
174	202	1
76	78	1
198	198	2
8	8	1
158	158	3
34	162	1
176	200	1
216	217	2
155	156	1
236	237	1
221	221	1
111	111	3
160	160	4
232	238	1
24	24	3
200	201	1
237	237	4
81	104	2
2	2	1
17	111	1
95	97	2
65	65	1
45	46	2
53	59	1
238	238	2
235	235	2
193	210	1
193	194	1
53	53	2
174	175	1
38	47	1
120	219	1
32	32	3
159	176	1
14	14	2
151	151	1
162	162	6
81	83	2
225	225	1
101	101	2
46	47	1
247	249	3
25	25	1
113	155	1
242	243	1
185	185	3
113	113	1
67	98	1
201	212	1
65	67	1
16	16	2
110	246	1
11	11	5
223	223	4
238	240	1
1	2	1
232	233	4
17	17	5
201	247	1
149	149	1
117	117	1
115	115	2
71	71	2
212	213	1
89	91	1
27	27	3
63	92	1
208	212	1
174	192	2
213	213	6
180	181	1
208	214	1
226	226	2
186	189	1
22	227	1
182	183	1
216	216	3
194	196	1
79	83	2
52	53	2
206	208	1
6	6	5
171	204	1
14	15	1
184	184	2
87	88	1
3	4	1
231	235	1
52	52	1
6	230	1
73	105	1
187	188	2
48	50	1
217	218	1
157	157	2
49	49	3
163	165	1
110	110	4
156	156	2
77	79	2
95	96	1
55	56	1
86	86	2
213	215	1
7	7	1
63	84	1
234	236	1
209	212	1
164	164	2
18	18	1
91	92	1
217	224	1
116	116	1
9	9	4
93	93	2
78	80	1
27	35	1
32	40	1
218	219	1
182	182	1
225	226	1
174	226	1
144	145	1
56	84	1
244	245	1
174	193	1
183	223	2
118	119	1
88	194	1
4	217	1
27	229	1
77	77	1
58	60	1
105	106	1
159	160	2
87	89	1
106	106	1
207	208	2
74	74	2
245	246	2
186	194	1
200	247	1
62	62	2
154	154	3
222	222	1
208	208	1
96	97	1
209	211	1
4	228	1
176	178	1
64	64	3
153	155	1
186	188	1
16	155	1
8	155	1
57	66	1
172	187	1
206	206	1
165	165	1
181	184	1
46	46	1
237	239	1
71	72	2
172	172	4
33	47	1
217	219	3
18	19	1
200	213	1
75	75	1
1	1	1
115	116	1
173	175	1
5	5	1
100	100	1
200	200	1
214	215	1
192	233	1
220	221	1
157	175	1
114	114	1
69	69	1
183	183	2
41	42	2
20	21	1
215	218	1
173	173	1
94	97	1
202	203	1
82	83	1
192	193	1
152	153	1
78	78	1
4	4	1
70	88	1
176	179	1
221	222	1
247	248	1
181	182	1
233	233	1
168	169	1
118	231	1
175	197	1
74	107	1
94	100	1
247	247	1
200	209	1
20	20	1
178	178	1
31	43	1
228	229	1
43	44	1
206	236	1
188	197	1
192	192	1
227	229	1
53	246	1
1	225	1
