59	74	1
41	41	5
37	59	1
62	62	8
8	10	2
61	65	2
33	33	17
9	10	4
10	10	12
6	6	14
9	9	10
68	68	8
70	71	7
77	77	4
56	56	2
0	0	10
57	58	1
6	57	1
37	37	6
49	49	6
29	30	4
5	6	8
51	71	1
3	8	1
62	63	3
29	42	1
61	61	7
46	46	7
24	24	23
37	38	7
50	50	3
36	36	11
68	70	2
67	68	6
61	62	4
75	76	4
3	3	10
48	48	6
31	31	17
25	25	12
21	21	21
63	63	7
26	26	10
64	64	5
39	39	7
29	31	5
28	28	9
13	13	12
52	54	3
25	27	5
3	21	2
5	5	16
20	20	14
44	44	6
34	35	6
51	51	11
62	65	1
40	68	1
38	58	1
35	38	3
28	29	8
2	3	4
12	12	10
32	32	20
21	73	1
60	61	2
22	22	18
60	60	4
32	37	1
49	50	5
46	47	2
57	57	1
8	8	26
70	70	8
26	27	7
19	20	5
32	33	5
34	43	1
2	2	16
27	27	13
38	38	11
55	56	2
23	23	18
30	32	3
59	59	3
54	54	5
20	23	1
28	59	1
25	28	3
0	1	3
42	43	1
76	76	4
23	30	1
34	34	23
7	7	11
7	8	9
23	24	2
55	55	5
24	36	1
0	3	1
64	65	1
66	72	1
55	57	1
0	13	1
1	1	10
52	52	7
75	75	1
11	11	11
18	18	3
34	39	1
4	5	4
43	52	1
19	19	9
52	53	4
24	25	9
66	67	1
21	22	4
33	55	1
73	73	4
71	71	3
50	72	1
30	30	12
46	78	1
3	6	1
28	35	1
25	26	4
29	29	8
60	65	1
14	20	1
49	51	1
38	50	2
50	51	2
10	11	4
2	7	1
1	3	2
43	56	1
72	73	2
4	4	10
47	48	1
59	60	3
45	45	6
43	72	1
12	13	2
8	11	1
37	58	2
52	55	2
40	40	6
61	76	1
54	55	4
58	58	6
8	9	2
69	69	4
37	39	3
7	10	1
42	59	1
2	8	1
36	38	1
40	48	1
26	29	1
75	77	2
43	43	5
25	35	1
62	67	1
18	19	4
42	61	1
44	45	1
54	76	1
42	42	1
35	35	7
72	74	2
47	47	4
69	70	1
1	6	2
63	64	2
67	67	5
33	34	2
1	2	1
0	2	1
8	19	1
21	23	2
65	65	5
9	12	2
59	61	2
5	14	1
27	28	2
7	9	1
53	53	4
43	48	1
43	44	1
35	37	1
11	12	3
39	40	2
35	42	1
30	31	3
61	73	1
18	33	1
51	52	3
6	14	1
31	32	3
36	39	1
72	72	4
48	57	1
38	40	2
25	56	2
58	62	1
2	19	1
39	41	1
21	29	1
11	24	1
2	12	1
2	11	1
68	71	1
33	74	1
13	29	1
38	39	3
57	68	1
60	63	1
61	66	2
1	8	1
41	42	1
30	36	1
6	11	1
74	74	2
2	13	1
57	59	1
14	14	2
38	71	1
76	77	1
39	67	1
4	21	1
46	57	1
3	4	1
6	29	1
66	69	1
7	11	1
3	5	1
58	63	1
33	38	1
62	64	1
28	33	1
21	24	1
14	28	1
56	59	1
22	23	2
30	39	1
68	69	1
30	35	1
20	29	1
45	46	1
9	18	1
2	34	1
4	8	1
40	62	1
36	58	1
36	37	2
47	52	1
34	37	1
2	24	1
31	33	1
27	55	1
8	24	1
1	21	1
66	68	1
61	72	1
33	45	1
36	49	1
58	60	1
0	9	1
71	72	1
42	74	1
22	27	1
0	33	1
18	74	1
13	14	1
1	7	1
57	61	1
35	39	1
26	36	1
