77	79	1
12	39	1
8	8	5
136	137	3
192	192	5
57	58	1
72	72	3
139	164	1
95	95	2
171	173	2
158	160	1
15	15	4
82	86	1
22	41	1
236	236	2
166	166	5
227	227	3
84	153	1
71	71	1
188	188	5
224	230	1
220	220	2
46	46	3
130	130	3
150	151	2
147	147	1
13	13	1
208	208	2
16	16	3
233	233	1
9	9	3
102	103	1
100	100	2
210	210	1
74	74	4
48	62	1
40	41	4
174	174	6
132	133	2
70	71	2
125	125	1
140	146	2
217	217	4
39	39	4
77	77	1
16	20	1
138	138	4
30	30	1
0	0	3
75	75	3
101	101	3
192	196	2
6	179	1
166	183	1
41	51	2
184	184	3
128	129	2
121	121	3
58	58	5
237	237	3
80	89	1
23	24	1
136	136	2
110	110	2
99	99	1
129	129	1
202	202	2
74	238	1
230	230	1
27	27	7
238	238	2
122	137	1
18	18	2
54	54	4
101	120	1
167	169	1
173	173	5
210	212	1
84	95	2
113	113	6
171	171	2
172	173	1
222	222	2
67	67	4
19	230	2
175	176	1
186	186	3
53	59	1
88	88	1
114	114	1
82	82	2
101	102	2
162	162	1
69	69	4
242	242	2
29	30	4
69	71	2
68	85	1
52	105	1
183	183	1
194	195	2
19	19	3
202	217	1
167	167	7
158	158	4
150	150	3
155	155	3
81	82	4
25	25	1
225	225	2
12	13	1
85	85	5
38	55	2
180	181	1
26	26	5
202	204	1
98	100	1
62	65	1
2	2	6
152	220	2
142	168	1
46	52	3
15	16	3
133	133	1
188	203	1
181	184	1
83	83	2
65	66	1
45	45	6
123	123	4
2	16	1
66	89	2
50	50	1
201	201	3
181	183	1
23	23	2
17	231	1
71	177	1
178	178	1
118	125	1
102	192	1
213	214	1
1	2	1
153	153	4
219	219	2
5	5	1
55	55	3
79	79	1
30	31	1
66	79	1
37	37	2
124	127	1
187	187	4
98	111	1
203	203	1
7	55	1
177	177	3
7	7	3
178	179	2
159	160	2
40	51	1
120	128	3
156	157	3
128	128	3
182	183	4
2	35	1
17	18	2
120	171	1
68	95	1
139	139	1
172	172	2
74	78	1
156	168	1
62	63	1
64	64	3
135	135	3
165	166	1
49	57	1
199	199	1
112	120	1
191	191	1
158	169	2
164	164	2
109	109	2
58	59	1
154	156	2
68	69	1
223	224	1
166	168	1
29	111	2
65	65	3
86	86	1
138	154	1
128	138	1
219	223	1
165	165	1
62	62	5
58	61	2
20	21	1
52	54	1
143	143	2
175	175	1
63	63	4
3	21	3
31	31	2
30	89	1
70	70	3
47	47	2
100	101	2
1	1	1
136	170	1
122	122	1
154	154	2
151	151	4
41	41	4
18	40	1
169	169	1
148	151	1
141	141	2
5	6	1
146	146	1
11	11	3
236	241	1
80	80	1
205	207	1
180	180	2
17	17	1
6	6	3
122	123	2
195	196	4
68	105	1
8	12	1
21	32	2
176	177	2
204	206	1
143	144	1
149	149	2
158	159	2
211	226	1
107	139	1
173	174	1
167	183	1
122	157	1
168	168	3
186	187	1
129	130	1
140	140	1
198	199	1
73	73	5
49	49	1
220	222	1
147	154	1
213	213	2
180	182	1
51	52	1
211	212	1
45	62	1
143	153	1
118	118	1
84	86	1
160	160	2
76	78	1
152	152	1
198	200	1
161	161	1
157	196	1
50	79	1
42	44	2
134	146	1
179	179	1
69	70	1
98	98	1
10	37	1
38	38	1
119	127	1
148	164	1
208	228	1
181	182	2
152	171	1
56	62	1
161	162	1
135	137	2
103	103	1
35	35	1
42	42	1
4	4	1
113	114	1
199	204	1
170	170	1
78	78	3
180	187	1
28	28	2
15	17	1
182	182	3
21	21	1
10	10	2
76	76	1
167	168	2
115	115	2
158	175	1
144	147	1
86	95	1
13	16	1
5	8	1
78	83	1
190	191	1
150	169	1
144	152	1
107	107	2
166	167	1
96	100	1
137	137	1
205	205	2
183	187	1
104	105	1
89	89	1
126	127	1
106	160	1
52	53	2
84	84	1
217	218	2
12	17	2
42	145	1
1	3	1
44	45	1
196	196	1
105	105	2
190	190	1
84	215	1
135	136	1
176	176	1
168	169	2
119	133	1
6	35	1
145	145	1
96	114	1
170	203	1
51	51	2
188	189	1
137	143	1
227	228	1
152	153	1
0	20	1
179	190	1
226	227	1
30	111	1
18	36	1
198	198	1
66	66	1
169	170	2
200	224	1
56	57	1
22	22	1
129	148	1
26	27	1
147	148	1
45	46	1
142	143	1
49	66	1
185	187	1
43	43	1
210	211	1
52	52	1
160	183	1
187	188	1
116	116	1
112	113	1
216	218	1
172	177	1
148	172	1
102	102	1
38	42	1
48	48	1
131	131	2
181	197	1
56	56	1
208	224	1
120	120	1
37	38	1
186	190	1
106	184	1
207	207	1
145	146	1
126	126	1
12	12	2
46	65	1
34	34	1
107	108	1
59	59	1
29	29	1
83	134	1
108	108	1
134	134	1
163	180	1
156	172	1
148	148	1
197	198	1
221	221	1
63	64	1
25	29	1
193	195	1
181	181	1
103	185	1
36	36	1
134	135	1
239	239	1
4	5	1
175	194	1
235	235	1
