19	19	4
78	78	3
50	50	3
9	10	6
121	121	3
24	24	4
104	121	1
115	115	3
30	30	6
52	52	1
13	23	1
123	123	5
86	86	4
133	133	4
82	82	2
9	16	1
36	36	4
116	116	2
12	12	3
18	18	3
71	75	1
79	79	5
71	98	2
15	15	5
31	31	5
14	14	2
60	60	4
8	8	3
88	88	4
93	94	1
124	131	1
127	131	3
55	55	2
45	45	5
73	73	6
5	5	1
56	86	2
119	120	2
11	11	4
114	115	1
52	54	1
134	134	4
4	16	1
109	109	2
89	89	2
130	130	2
32	32	7
62	64	1
70	75	1
104	104	3
117	120	2
44	61	1
132	132	3
80	81	1
107	113	1
122	122	2
8	10	2
83	83	3
66	68	1
5	81	1
23	23	3
83	84	2
45	46	1
31	32	2
64	64	3
99	100	2
21	21	7
99	99	5
70	102	1
47	47	5
55	60	1
2	16	1
79	81	4
70	80	1
77	77	4
127	128	1
85	85	3
66	67	1
71	71	7
16	16	5
91	91	3
8	9	2
106	107	1
0	0	4
69	116	2
92	92	2
112	118	1
86	88	1
44	44	3
62	62	6
71	72	2
119	119	2
116	118	1
34	34	2
70	70	4
102	112	1
81	81	3
97	97	2
67	116	1
93	93	1
100	100	4
76	76	3
3	3	7
62	65	2
7	7	6
57	58	1
3	5	1
10	21	1
25	25	5
87	87	5
75	75	3
52	83	1
57	57	3
65	65	2
50	51	1
15	17	2
82	83	2
43	43	3
92	93	1
120	120	3
126	126	9
87	88	2
21	35	1
118	118	2
108	108	2
19	21	1
13	13	3
58	58	3
35	35	5
76	79	2
72	72	2
47	50	1
63	63	4
104	125	1
1	10	1
6	6	4
28	28	6
63	89	2
79	96	1
28	36	1
19	20	4
130	131	1
1	1	2
61	61	3
31	132	2
102	102	4
55	56	1
1	6	1
50	104	1
21	108	1
1	4	1
48	49	1
113	113	2
67	67	2
109	110	1
44	45	1
36	37	1
11	21	1
53	78	1
64	110	2
86	90	2
107	108	2
86	97	2
74	75	1
4	6	1
77	78	4
73	75	1
43	44	1
50	111	1
2	2	4
62	86	2
96	113	1
122	123	1
26	28	1
80	80	2
29	65	1
88	97	1
74	74	2
33	33	3
72	79	1
111	112	1
11	24	1
83	85	1
111	111	2
27	28	2
48	94	1
62	63	1
26	27	3
128	128	1
53	54	1
35	36	1
21	23	1
59	60	1
27	27	2
115	116	1
57	63	1
30	102	1
84	85	2
112	112	1
28	30	1
56	57	1
106	106	3
125	126	1
15	16	2
103	103	1
29	29	1
68	68	2
62	80	1
30	32	1
59	59	4
29	31	1
61	62	1
111	119	1
61	69	1
2	26	1
49	49	2
5	21	1
54	82	2
55	57	1
101	101	1
8	22	1
33	35	1
17	17	3
106	111	2
70	115	1
26	26	4
20	20	1
10	10	1
91	92	1
62	127	1
1	3	1
107	107	1
79	95	1
98	102	1
7	8	1
61	64	1
55	58	1
18	43	1
67	68	1
129	129	3
96	96	2
44	52	1
73	74	1
66	66	1
62	106	1
131	132	1
63	118	1
74	98	1
8	97	2
63	69	2
105	105	1
3	4	1
110	110	1
18	21	1
37	37	1
12	35	2
1	25	1
24	25	3
77	79	1
20	21	1
0	14	1
70	93	1
127	127	2
52	65	1
69	96	1
64	89	1
107	118	1
104	105	1
67	104	1
117	117	2
50	82	1
10	11	1
22	22	1
84	84	1
74	76	1
53	53	1
126	135	1
78	79	1
22	25	1
49	50	1
65	67	1
