111	111	5
78	78	3
109	109	6
57	58	2
55	55	4
79	79	4
77	77	3
68	94	1
114	114	4
48	48	3
93	93	9
74	74	3
110	110	5
56	57	1
92	92	5
61	61	3
64	66	1
102	102	4
97	97	4
50	51	1
97	98	1
66	67	2
91	91	12
99	99	8
75	75	6
45	48	1
96	97	2
46	46	9
71	71	3
79	80	1
41	47	1
58	62	4
88	88	1
72	72	3
91	92	6
19	20	2
90	90	7
49	73	2
58	58	2
78	79	1
58	59	1
31	31	4
53	57	1
30	30	1
60	60	1
44	101	1
101	101	2
91	93	1
62	77	1
20	20	3
53	56	1
96	96	3
106	106	2
68	69	3
52	53	1
99	101	1
48	103	1
47	49	2
62	106	1
90	103	1
62	64	2
59	75	1
106	109	2
80	89	1
69	71	1
66	66	4
70	70	1
108	109	2
104	104	2
41	42	1
107	107	3
94	94	8
37	37	1
62	107	1
95	95	6
94	99	2
28	28	2
39	39	7
54	83	1
24	24	3
66	79	1
76	78	1
26	26	2
36	36	2
27	27	4
30	48	1
76	76	7
81	81	4
100	101	2
68	68	4
30	32	1
29	48	1
21	23	1
41	69	1
80	83	2
108	108	9
69	69	5
89	89	2
71	75	2
42	42	3
33	59	1
98	98	5
52	52	4
22	43	1
92	108	1
56	63	1
44	45	1
90	91	5
34	34	2
69	70	1
54	54	2
60	62	1
22	22	4
68	92	2
57	57	2
64	65	1
50	50	3
81	91	5
30	31	1
35	36	1
25	25	3
103	106	1
47	91	1
42	52	1
28	41	2
112	112	2
44	44	2
32	36	2
92	93	3
69	95	1
74	107	1
83	91	1
21	25	1
22	23	1
41	99	1
70	71	1
62	63	1
86	86	3
42	47	1
43	43	3
80	80	4
44	48	1
77	103	2
67	92	1
85	108	1
85	86	1
65	67	1
62	62	2
53	60	1
51	51	3
68	72	1
103	105	4
94	113	1
92	95	2
93	108	2
101	109	1
45	45	1
99	112	1
29	29	6
35	35	2
91	108	2
33	33	1
81	84	1
21	21	4
36	59	1
93	94	1
66	86	1
32	32	2
90	92	1
38	40	1
51	52	1
82	83	1
23	23	1
75	76	2
48	113	1
113	113	3
61	63	1
55	56	1
59	96	1
87	89	1
33	96	1
72	75	1
80	81	3
38	38	1
87	88	5
32	33	1
75	108	1
60	66	1
56	59	1
57	59	1
94	98	1
75	79	1
84	84	1
100	100	3
21	99	1
64	64	3
59	60	2
110	112	1
45	51	1
27	49	1
62	110	1
79	87	1
26	27	1
26	45	1
101	102	1
36	43	1
54	75	1
29	49	1
68	73	1
83	83	2
41	52	1
57	87	1
23	24	1
25	53	2
53	53	1
19	35	1
40	40	2
35	54	1
61	62	1
48	49	2
66	72	1
84	86	1
53	55	1
40	41	2
85	88	1
19	36	1
82	82	2
102	103	1
82	84	1
102	105	1
76	80	1
47	54	1
103	107	1
94	95	1
79	88	1
43	44	1
85	104	1
67	101	1
54	90	1
102	108	2
59	59	1
103	104	1
64	105	1
74	75	1
73	74	1
71	73	1
67	67	2
39	40	1
94	108	1
56	83	1
