55	55	3
22	22	14
29	30	3
102	103	3
35	35	5
113	113	2
50	50	6
99	101	1
24	43	1
31	31	5
49	57	3
19	19	1
75	76	1
34	34	8
115	115	8
145	145	6
28	28	6
0	2	1
24	24	7
15	15	5
102	130	3
91	91	2
37	37	7
136	138	3
4	13	2
23	51	2
85	118	1
37	99	1
9	9	2
30	30	6
103	104	2
59	59	5
140	142	1
93	114	2
31	34	1
54	68	1
128	128	1
87	89	3
70	70	6
35	57	1
110	111	2
94	113	2
92	92	6
23	29	2
64	64	6
14	16	6
141	142	2
38	38	4
106	106	3
23	23	7
23	24	3
146	146	1
113	134	1
99	99	3
40	40	7
49	49	1
40	41	1
94	118	1
113	114	2
28	41	1
91	112	2
112	112	4
90	90	2
143	143	3
4	4	5
93	93	5
144	144	1
92	95	1
46	47	1
112	113	4
128	129	3
13	13	3
14	80	2
20	25	1
0	0	1
54	55	1
55	56	1
87	88	2
125	125	2
72	72	7
9	10	3
130	130	3
83	83	5
92	93	4
61	61	1
105	105	4
142	142	6
110	126	1
27	27	6
6	6	5
34	53	2
62	62	1
139	141	1
127	128	3
120	120	8
75	77	1
47	49	1
134	134	10
25	27	1
91	93	1
113	115	1
54	56	3
133	133	6
120	121	2
82	82	4
17	61	1
19	21	1
66	66	7
79	111	1
60	60	2
129	129	5
82	83	1
118	119	3
122	126	1
15	16	1
141	141	3
49	64	1
32	33	4
97	97	3
114	138	1
83	104	1
86	107	1
69	73	1
18	19	2
92	103	1
62	82	1
26	26	3
13	113	1
12	13	1
63	63	1
111	111	5
80	80	5
84	85	2
66	76	1
1	26	1
104	118	2
54	125	1
56	56	6
122	122	5
98	98	4
88	89	1
15	34	2
60	71	1
33	37	3
135	135	10
54	54	2
88	90	1
8	8	5
33	111	1
87	133	1
53	53	6
47	51	1
131	131	2
50	51	3
118	136	1
82	97	1
20	129	1
25	25	4
101	101	5
126	126	7
73	73	1
39	39	5
118	118	3
67	68	3
96	129	1
21	97	1
3	4	2
86	86	4
51	65	1
27	28	1
96	98	2
103	103	2
119	120	1
108	139	1
85	89	1
39	67	1
20	20	4
57	57	2
3	108	1
38	103	2
59	61	1
17	23	1
96	99	1
21	21	4
91	120	2
121	121	3
122	123	1
106	109	2
26	41	2
79	79	1
116	119	1
60	79	1
33	33	5
138	139	1
17	42	2
116	117	1
126	133	1
94	102	2
118	120	1
14	15	7
119	137	1
125	129	1
9	29	1
78	80	1
134	135	1
0	30	1
94	94	2
34	49	1
116	116	3
135	141	4
59	70	2
81	81	3
96	96	2
106	107	2
76	76	3
80	81	1
75	75	6
19	20	3
135	136	2
9	119	1
87	117	2
29	29	3
94	103	1
82	124	1
136	136	1
114	120	1
134	138	2
127	131	1
77	77	2
34	37	1
48	48	5
18	18	2
89	89	6
71	72	2
101	116	1
131	132	2
138	138	4
2	2	4
139	139	6
84	84	2
114	115	1
55	57	1
127	127	2
141	143	2
1	21	1
81	82	2
109	111	1
1	1	3
11	11	7
89	132	1
135	138	3
74	78	2
112	116	1
72	82	1
19	127	1
42	42	2
87	87	2
130	131	3
137	138	3
0	21	1
28	67	1
58	59	2
137	139	1
51	51	1
65	65	1
49	52	2
76	82	1
61	66	1
64	65	2
129	130	2
104	104	4
101	103	1
57	59	2
94	127	2
108	109	1
33	38	1
82	104	1
33	35	4
140	140	2
140	143	1
108	115	1
145	146	2
68	68	3
110	110	3
37	55	1
95	95	3
20	21	2
102	123	1
24	26	1
91	92	2
78	78	2
114	139	2
128	141	1
123	123	5
124	124	7
0	28	1
2	6	2
38	47	1
89	91	1
3	5	1
41	42	2
107	130	1
38	52	1
121	131	1
67	67	1
8	20	1
56	142	1
60	61	1
71	71	2
71	73	1
113	139	1
103	121	1
119	124	1
89	90	2
61	71	1
27	83	1
0	1	1
19	131	2
70	136	2
64	98	1
100	101	1
19	26	1
35	39	1
86	87	1
135	139	1
14	62	1
8	10	1
52	53	1
82	107	1
24	25	1
8	12	1
10	10	2
108	125	1
51	64	1
94	131	1
51	52	2
33	47	1
38	48	1
124	125	1
113	138	1
76	80	1
32	32	2
29	42	2
52	52	3
100	100	2
18	23	1
78	79	1
101	102	1
69	69	2
118	122	1
126	127	2
20	34	1
142	143	1
69	70	1
50	65	1
136	137	2
119	119	3
65	72	1
40	67	1
53	59	1
37	73	1
2	7	1
34	69	1
33	56	1
35	36	1
113	123	1
66	73	1
17	22	2
41	60	1
70	105	1
64	84	1
54	59	2
96	97	2
131	133	1
11	17	2
129	144	1
25	107	1
37	38	1
133	134	1
56	58	1
17	17	1
51	54	1
112	115	1
33	36	1
41	41	3
43	43	1
117	118	1
137	137	2
78	82	1
78	85	1
85	88	1
27	31	1
61	73	1
2	4	1
4	6	1
36	37	1
81	87	1
14	104	1
12	32	1
74	74	2
84	87	1
108	112	1
92	141	2
139	140	1
83	84	1
132	132	2
65	69	1
8	9	1
79	80	1
107	108	1
66	70	1
68	73	1
58	58	1
47	47	2
1	3	1
133	142	1
30	41	1
3	3	2
17	40	1
47	71	1
53	72	1
39	41	1
107	110	2
60	65	1
14	14	1
127	135	1
116	118	1
38	62	1
37	49	1
121	122	1
132	133	1
79	90	1
39	51	1
74	75	1
21	29	1
102	102	1
96	100	1
8	99	1
86	136	1
65	85	1
2	17	1
104	105	1
66	71	1
52	123	1
77	120	1
1	62	1
73	80	1
117	117	1
24	32	1
109	110	1
52	58	1
14	50	1
90	91	1
94	110	1
70	71	2
1	42	1
122	136	1
35	70	1
23	41	1
109	109	1
16	16	1
42	114	1
12	12	1
17	33	1
129	131	1
105	111	1
94	95	1
80	98	1
93	102	1
121	123	1
