16	17	3
121	121	4
81	84	1
36	36	7
93	93	3
104	104	6
18	18	4
132	132	8
20	20	1
94	94	6
133	134	2
126	126	5
140	140	14
102	102	5
101	101	7
33	33	6
8	8	2
104	109	3
32	32	3
77	77	2
96	96	5
110	110	4
106	106	6
16	18	1
71	80	1
3	3	1
80	80	4
16	16	2
91	130	1
118	118	3
7	9	1
130	132	2
133	133	8
37	115	1
131	131	5
37	37	3
114	114	5
13	13	2
109	109	3
13	14	2
76	76	4
94	114	1
102	112	1
106	108	1
36	37	2
34	34	2
135	135	9
113	114	2
1	1	2
98	98	6
12	12	1
121	122	1
130	131	1
117	117	4
0	0	2
100	133	2
124	124	6
89	89	2
3	4	2
78	78	2
111	111	2
86	86	3
72	72	1
83	85	3
123	124	1
101	116	1
100	100	5
138	138	4
122	122	5
136	136	6
116	116	7
119	120	4
80	115	2
79	90	1
123	123	5
126	127	1
34	35	1
92	92	3
97	98	2
111	115	2
139	139	3
86	115	1
125	125	1
84	84	1
69	84	4
107	108	1
73	73	4
75	99	1
125	126	3
109	110	2
127	127	4
75	101	1
6	6	2
137	138	1
115	116	1
35	35	1
84	89	1
130	130	8
78	100	2
127	129	2
131	139	2
73	74	1
89	98	1
119	119	4
134	135	1
91	91	1
27	38	1
1	5	1
93	94	1
115	115	5
82	118	2
102	103	1
104	105	1
137	137	4
128	128	2
105	108	1
74	75	2
73	102	1
100	123	1
101	126	1
107	116	1
134	134	2
118	122	1
118	119	1
96	126	1
85	85	2
80	103	1
105	105	2
105	106	1
19	19	2
88	116	1
128	129	2
10	12	2
101	102	1
74	74	1
132	133	2
87	88	2
111	113	1
100	125	2
120	120	3
88	89	1
96	97	1
138	139	2
10	10	2
115	126	1
87	87	1
92	94	2
12	15	2
80	91	1
99	99	1
108	112	1
114	115	1
112	113	1
120	122	1
38	38	3
129	129	2
8	15	1
71	71	2
32	33	1
2	2	1
111	124	1
9	9	1
112	112	1
17	17	2
98	100	1
8	9	2
26	37	1
86	89	1
100	134	1
27	32	1
104	107	1
81	82	1
11	20	1
15	15	1
105	107	1
113	123	1
17	18	1
8	11	1
94	98	1
136	137	1
97	97	1
82	82	1
100	130	1
87	112	1
125	136	1
94	95	1
95	139	2
109	113	1
111	112	1
120	123	1
98	132	1
35	36	1
15	16	2
94	128	1
84	86	1
81	81	1
