10	48	1
54	54	1
53	53	4
89	89	3
95	96	4
119	119	5
115	116	2
78	81	1
86	87	1
123	123	11
121	121	3
124	124	8
95	95	4
57	57	3
11	11	3
75	88	1
22	23	2
56	56	7
63	63	4
30	30	4
85	87	1
104	104	2
127	127	3
129	130	2
78	78	1
34	34	1
70	70	2
83	84	1
49	49	4
123	124	3
108	108	5
14	14	5
45	61	1
10	11	1
129	129	2
91	91	4
51	51	3
52	52	6
120	120	3
87	87	1
25	25	5
54	63	1
16	18	2
67	67	2
15	15	1
49	69	2
109	110	2
41	41	3
16	16	1
56	57	1
88	88	3
92	92	6
86	86	2
40	41	2
85	85	5
42	42	4
96	96	6
69	70	2
131	131	2
101	101	1
27	32	2
107	107	2
83	83	2
113	113	3
126	127	1
26	26	2
100	100	1
79	80	1
109	113	1
115	115	3
76	76	2
103	103	6
62	71	1
75	75	3
1	1	1
90	130	1
68	68	2
58	58	2
102	102	5
73	73	2
21	21	2
117	117	4
112	112	2
72	72	2
74	74	2
6	6	4
126	126	2
77	123	1
94	94	1
114	116	1
43	43	2
27	29	2
64	64	1
17	19	1
18	38	2
127	128	1
109	109	1
91	92	1
44	45	3
61	61	1
93	94	2
48	48	2
116	117	3
112	113	2
50	50	1
28	131	1
118	118	4
39	39	4
122	122	3
23	23	2
117	118	1
92	104	3
89	90	1
3	3	2
84	90	1
99	99	2
38	44	1
18	18	2
22	22	2
25	108	2
132	132	2
81	86	1
41	42	2
66	66	2
38	38	2
59	61	1
60	60	3
110	112	2
8	8	3
47	47	3
61	77	2
45	46	2
10	10	3
131	132	1
125	125	1
1	117	1
84	126	1
20	20	1
80	81	1
130	130	3
82	82	1
99	100	1
114	114	2
44	44	1
65	67	1
55	109	1
98	99	2
92	99	1
62	62	2
101	102	1
12	12	2
83	88	2
59	62	2
64	88	1
124	130	1
81	81	3
43	45	1
120	121	2
33	34	2
88	89	1
2	2	1
29	29	2
7	7	1
26	95	1
9	10	2
46	47	1
105	106	2
65	66	1
110	110	2
87	88	1
39	80	1
121	132	1
84	85	1
24	24	2
0	1	1
105	105	1
80	80	3
17	17	1
45	45	1
32	32	2
5	5	2
5	6	1
106	106	2
128	128	2
111	111	3
121	122	2
23	33	1
77	77	1
86	88	1
112	114	1
31	125	1
124	125	2
98	98	2
82	84	1
33	33	1
9	9	1
30	31	1
40	40	2
46	64	1
53	54	1
100	104	1
133	133	1
71	72	1
62	63	1
4	4	1
48	55	1
77	92	1
3	5	1
80	83	1
32	106	1
82	83	1
