83	84	2
6	36	2
16	16	2
87	87	3
35	35	5
24	24	6
61	61	2
93	93	3
33	33	1
72	72	4
103	105	1
114	115	2
88	99	1
31	31	2
0	1	2
59	59	6
55	55	1
92	92	6
96	96	3
65	65	4
1	2	1
72	73	3
107	112	2
10	10	2
70	70	2
90	91	2
39	40	3
122	122	5
95	95	1
48	48	1
57	122	2
109	110	2
11	11	8
111	111	4
120	120	2
68	69	3
17	17	3
35	124	1
95	96	1
43	43	3
13	13	4
81	81	6
97	97	3
101	101	4
107	107	3
0	0	3
112	112	3
34	34	2
97	98	3
2	9	1
23	24	2
23	23	2
7	7	6
109	109	3
100	100	2
124	124	3
26	26	3
4	33	1
93	94	3
84	84	2
104	132	1
128	128	4
128	131	1
59	64	1
62	62	2
23	27	1
32	33	1
76	76	7
21	23	1
64	64	8
57	58	1
8	37	2
126	126	6
101	127	1
71	72	3
85	85	2
46	46	3
76	77	1
79	79	2
63	63	3
86	86	5
34	45	1
47	47	6
59	60	2
82	83	1
59	62	1
78	126	1
1	1	7
99	100	1
110	111	2
1	7	1
37	39	1
91	91	4
121	121	6
98	98	3
15	16	1
22	22	4
69	69	5
12	70	1
14	36	1
115	115	4
132	132	2
81	106	1
81	82	1
132	133	1
90	90	1
94	95	1
14	19	2
38	39	2
42	42	3
79	80	2
83	83	4
110	110	2
82	82	3
21	129	1
78	96	1
37	38	1
86	89	1
80	80	2
7	8	1
36	36	2
37	40	1
20	20	1
103	103	2
28	28	1
114	114	3
49	55	1
55	56	3
30	30	5
32	32	1
25	40	1
124	129	1
14	14	1
63	116	1
39	81	1
60	60	1
104	105	3
62	93	1
104	104	3
88	88	1
41	42	4
71	71	3
74	74	4
130	130	1
34	35	1
3	113	1
94	94	4
74	101	1
85	126	1
86	87	1
40	40	3
2	3	1
37	37	2
64	65	1
75	76	4
61	62	1
40	41	2
108	108	1
105	109	1
0	66	1
3	3	2
47	64	1
58	58	2
77	77	1
128	129	1
18	19	1
130	133	1
18	18	3
100	101	2
32	102	1
111	112	1
11	12	1
71	76	1
73	124	1
117	118	1
73	73	2
27	27	3
4	45	1
56	56	2
27	43	1
45	45	1
87	91	1
15	15	2
102	105	1
19	19	2
12	12	2
117	120	1
108	120	2
119	119	4
36	39	2
49	49	1
105	105	3
127	127	1
71	73	2
16	48	1
6	6	1
48	88	2
82	102	1
7	37	1
42	43	2
50	50	2
106	107	1
30	32	1
96	100	1
83	126	1
82	106	1
39	80	1
21	21	1
24	25	2
80	128	1
131	131	3
5	13	1
126	129	1
81	83	1
110	121	1
57	57	1
5	44	1
30	31	1
36	44	1
107	114	1
56	57	1
22	23	1
21	22	1
5	5	1
45	46	1
26	27	2
116	116	1
48	87	1
66	66	2
25	56	1
6	15	2
117	117	1
44	44	2
77	100	1
102	104	1
41	41	1
106	121	1
74	79	1
125	125	1
20	21	1
