105	119	1
37	125	1
177	177	3
192	192	2
160	161	2
196	196	3
127	127	6
125	125	3
168	168	3
156	157	3
83	83	2
10	10	3
188	188	2
179	179	7
141	141	1
128	128	1
36	36	5
70	70	1
50	50	3
24	25	2
110	110	2
148	187	1
21	21	5
14	14	9
61	62	1
13	13	7
119	119	4
100	112	1
151	151	1
171	171	3
88	89	1
9	12	1
17	19	1
52	52	1
131	132	2
120	120	2
149	156	1
34	34	8
81	81	3
150	150	2
140	140	5
147	160	1
67	67	2
44	45	2
84	84	2
2	8	1
109	109	1
22	22	3
19	19	3
23	186	1
64	64	2
83	103	2
61	61	1
140	150	3
7	8	1
31	31	4
12	12	2
88	88	2
173	174	3
197	197	1
66	86	2
166	167	3
116	116	3
168	171	2
172	172	2
41	41	6
179	180	1
6	6	2
7	7	1
13	14	2
161	166	1
48	48	3
95	97	1
189	189	1
9	50	1
1	3	2
23	28	1
1	2	1
178	178	2
55	55	1
30	30	1
43	136	1
4	9	3
10	11	1
114	114	1
142	143	1
167	167	3
28	28	5
157	157	1
132	132	3
94	94	1
1	1	7
162	162	4
190	190	3
43	44	1
148	152	1
131	131	2
138	150	1
40	40	1
121	121	2
123	123	2
77	77	1
127	151	1
11	12	2
191	192	1
157	158	2
32	32	1
183	184	1
8	9	1
159	160	1
69	69	3
124	125	1
42	42	2
68	68	4
137	137	2
3	3	3
159	164	1
18	18	2
13	132	1
71	71	1
82	82	1
122	123	1
44	44	2
45	45	2
171	179	1
52	56	3
62	62	2
75	76	1
89	89	2
24	24	5
181	181	1
153	153	2
115	115	1
163	164	1
135	136	1
167	169	1
100	100	2
2	2	3
16	16	3
184	184	2
74	74	1
8	37	1
11	134	1
138	138	1
8	16	1
26	28	1
38	41	1
192	193	2
47	47	2
10	151	2
174	175	1
108	108	1
58	58	2
23	23	1
112	112	1
20	20	1
26	26	2
41	42	2
39	40	1
87	100	1
11	11	3
158	158	2
9	9	2
55	131	1
15	15	2
101	101	1
125	127	1
8	8	4
119	177	1
153	187	1
124	124	1
144	144	1
147	147	1
125	126	1
143	157	1
194	194	2
76	78	1
38	38	1
79	79	1
25	25	1
144	145	1
122	122	3
176	177	1
168	193	1
12	13	1
143	143	2
72	72	1
170	172	2
139	150	1
182	182	3
44	63	1
183	183	1
0	3	1
187	187	2
67	98	1
57	57	1
152	152	1
147	148	1
163	163	3
193	194	1
0	26	1
187	191	1
56	59	1
104	104	1
173	173	2
169	169	1
195	195	2
138	152	1
176	176	2
41	71	2
164	164	2
156	156	1
39	39	2
102	102	1
53	53	2
103	103	2
85	86	1
195	197	2
20	30	1
95	95	1
26	74	1
51	51	1
1	29	1
136	136	1
168	191	1
4	4	1
27	29	1
102	103	1
175	175	1
188	189	1
73	74	1
118	118	1
27	28	1
17	17	2
33	38	1
109	111	1
179	181	1
33	36	1
40	41	1
49	49	1
157	159	1
66	69	1
39	43	1
165	166	1
126	126	1
69	71	1
177	190	1
67	68	1
34	37	1
48	49	1
9	14	1
69	72	1
133	134	1
145	145	1
160	160	2
138	147	1
148	174	1
114	122	1
155	155	1
112	152	1
73	73	1
180	181	1
27	27	1
149	177	1
109	110	1
53	54	1
79	108	2
162	164	1
106	116	1
136	167	1
35	35	1
79	81	1
33	44	1
155	156	1
1	7	1
134	134	1
117	181	1
0	0	1
23	35	1
49	50	1
20	36	1
124	132	1
169	180	1
139	139	1
174	174	1
171	187	1
24	30	1
143	144	1
142	142	1
130	141	1
171	182	1
185	186	1
28	29	1
46	46	1
2	7	1
172	173	1
161	161	1
165	165	1
