186	186	2
196	196	4
55	56	2
56	56	2
194	194	4
153	153	2
98	98	3
43	43	4
39	39	3
191	191	2
175	178	1
0	3	1
164	166	2
16	17	3
9	10	3
34	34	3
161	161	2
75	75	2
38	38	3
10	10	8
1	1	5
175	175	2
173	173	2
99	100	2
50	50	3
122	122	7
21	21	3
37	37	2
17	17	2
139	139	3
101	101	4
143	143	4
151	171	1
37	83	1
26	26	3
138	138	3
42	42	5
181	182	2
29	29	2
11	11	4
70	70	2
142	142	3
23	115	2
95	95	3
162	162	2
64	64	3
97	97	2
14	45	1
69	69	1
192	192	3
149	157	1
22	23	2
107	108	1
27	27	3
119	119	2
158	182	2
9	9	5
25	27	2
160	160	1
33	33	7
174	175	1
160	167	3
184	189	1
127	127	1
146	146	2
19	22	1
53	69	1
153	154	1
151	152	1
177	177	2
182	182	3
157	157	2
65	65	3
145	146	3
71	72	1
190	190	1
169	193	1
112	112	1
73	73	1
170	171	1
10	57	1
61	193	1
180	181	4
4	6	1
156	156	3
7	160	1
23	23	2
159	170	1
33	37	1
173	174	1
113	114	1
155	157	1
14	14	3
10	49	1
46	46	3
24	24	5
77	77	4
150	150	2
174	176	1
21	67	1
78	78	1
89	89	1
110	112	1
47	47	4
6	18	1
76	76	1
9	28	1
4	4	2
178	189	1
8	8	2
39	40	1
32	32	2
5	6	2
142	149	1
13	37	1
12	12	1
187	188	2
113	123	1
186	187	1
32	33	1
160	162	1
48	48	1
172	174	1
143	148	3
158	187	1
123	123	2
184	185	1
83	84	1
79	86	1
2	2	2
121	150	2
24	25	1
178	178	1
81	81	1
142	171	2
176	185	1
189	189	1
57	57	1
155	155	5
133	133	2
184	196	2
154	154	3
141	141	2
26	31	1
144	176	1
108	110	1
20	21	2
88	89	1
176	176	1
97	98	1
4	5	2
148	150	2
40	40	1
30	30	4
100	100	2
167	181	1
140	144	1
34	35	2
179	192	1
31	31	2
176	180	1
121	122	1
102	102	2
23	24	1
4	14	2
85	87	2
189	190	2
49	52	1
80	81	1
7	7	3
16	16	3
17	21	1
18	18	2
85	85	1
128	128	1
19	19	6
63	65	1
11	12	2
28	29	1
165	165	1
94	94	2
115	115	2
34	74	1
126	126	3
155	170	1
145	147	1
187	187	2
152	152	1
10	134	1
137	139	1
76	77	1
37	38	1
44	44	1
15	185	1
168	168	2
98	99	1
126	128	1
41	41	1
103	105	1
14	42	2
117	118	4
185	185	5
40	41	1
123	128	2
136	139	1
193	193	6
86	86	2
66	68	1
59	59	2
136	136	1
89	90	1
24	26	1
63	94	1
107	107	2
147	147	2
183	183	1
154	180	1
130	130	1
43	44	1
0	0	1
53	53	2
38	39	1
144	144	1
42	194	2
180	191	1
47	124	1
124	124	1
129	131	1
65	71	1
20	23	1
155	156	1
120	149	1
27	30	1
142	143	3
150	151	1
59	112	1
29	30	1
23	25	1
180	180	2
135	135	1
78	79	3
146	148	1
146	158	1
71	71	1
17	40	1
65	66	1
3	9	1
74	74	1
35	35	2
144	145	1
67	70	1
164	164	1
99	99	1
109	110	2
148	148	1
69	84	1
174	192	1
122	128	1
101	115	1
137	137	1
85	86	1
125	125	1
80	80	1
68	68	1
30	31	2
190	192	1
168	169	2
28	59	1
20	20	1
170	172	1
18	19	1
115	146	1
139	140	1
118	118	1
169	169	2
10	12	1
96	97	1
171	172	1
33	38	1
118	119	1
7	24	1
108	108	1
171	171	1
162	164	1
38	137	1
114	114	2
131	131	1
79	79	1
13	13	2
197	197	1
151	151	1
31	73	1
63	64	1
188	188	2
158	193	1
67	67	1
67	69	1
156	157	1
5	5	1
6	30	1
78	107	1
60	60	1
178	179	1
143	144	1
60	62	1
1	17	1
166	166	1
9	24	1
58	58	1
59	62	1
159	162	1
