2	2	7
145	148	3
176	176	2
139	140	2
97	97	3
80	80	2
134	135	1
29	29	6
0	0	8
119	119	5
143	143	4
75	76	1
174	174	5
170	184	1
122	123	3
115	117	1
146	147	4
4	11	1
5	5	3
62	62	4
120	120	2
89	157	1
98	101	2
158	159	2
186	186	7
25	25	6
181	181	3
138	139	2
31	31	9
7	7	6
137	137	3
21	23	1
68	70	1
9	10	3
187	187	7
4	4	11
49	49	9
163	167	1
13	13	13
68	68	7
194	194	6
176	177	3
106	106	2
34	34	8
2	3	2
149	149	4
45	45	6
14	14	7
19	19	11
179	179	5
148	148	5
183	183	7
42	42	11
3	5	1
185	185	4
22	23	4
11	53	2
167	167	6
136	136	5
131	131	4
162	163	3
183	184	1
36	41	2
123	123	5
58	58	3
27	27	1
16	17	3
179	193	2
46	46	8
6	6	5
176	178	1
158	158	3
133	138	1
52	107	2
1	5	1
134	134	7
57	57	4
26	26	9
53	54	2
18	19	2
87	87	3
192	192	5
155	156	1
154	155	1
162	162	2
8	8	12
78	83	1
184	184	10
41	41	6
20	22	1
28	78	1
138	138	2
3	8	2
0	1	1
23	27	1
35	36	4
80	86	2
185	186	2
64	66	1
195	195	7
113	113	2
36	37	1
104	104	5
49	51	1
161	161	5
159	159	11
4	28	1
117	117	3
142	143	1
12	12	11
147	147	5
40	40	7
184	187	1
9	9	8
25	29	1
155	155	3
15	15	7
20	20	3
142	142	6
40	43	1
38	38	13
70	75	1
32	33	2
1	3	1
102	103	1
167	187	2
54	54	3
179	180	1
169	169	8
182	182	3
128	128	3
102	102	1
156	156	8
94	110	2
155	177	1
141	141	6
88	157	1
1	1	8
124	124	3
121	121	5
78	79	1
64	64	5
23	23	9
3	3	6
139	197	2
47	47	10
19	23	1
26	28	1
163	163	3
28	29	2
31	41	3
12	13	1
66	69	1
95	95	4
60	60	1
16	16	5
159	182	1
43	43	7
172	172	5
96	115	1
169	171	2
88	88	2
191	191	4
36	36	3
24	25	3
162	180	1
143	148	1
6	23	1
189	189	4
150	150	8
74	74	3
5	32	1
81	81	3
196	196	5
127	128	1
13	125	1
153	153	5
166	166	4
20	21	3
66	67	1
50	129	1
34	35	2
45	140	1
171	171	3
6	8	1
52	57	1
136	137	1
175	181	1
132	132	1
170	170	3
185	197	1
89	89	1
130	138	2
145	145	2
52	52	6
173	174	3
126	126	3
104	105	1
132	134	1
12	33	2
33	36	1
5	6	4
180	181	3
165	165	3
69	112	1
178	181	2
101	101	2
47	48	3
87	138	1
1	4	1
27	28	1
51	51	4
5	9	2
93	130	1
161	174	1
10	12	1
50	50	4
118	118	1
24	24	6
146	146	2
135	135	2
79	82	1
79	80	2
111	111	1
0	2	7
72	72	5
147	150	2
144	144	4
101	136	1
108	108	3
163	164	1
67	68	1
175	175	3
95	96	1
158	160	1
168	168	3
143	172	1
35	35	2
19	20	4
125	125	1
65	65	3
18	18	6
24	26	1
10	10	10
105	105	3
21	21	5
3	19	2
177	177	6
93	126	2
76	76	3
133	133	2
43	45	1
151	154	1
169	170	2
32	32	6
9	138	1
179	181	1
120	121	4
161	162	2
39	39	5
63	63	4
138	141	2
28	28	2
123	124	2
110	135	1
118	119	3
20	23	1
0	30	1
151	151	5
162	172	1
1	2	1
22	22	5
7	22	2
11	15	1
162	165	1
83	86	2
17	37	1
106	107	2
197	197	7
76	77	2
41	81	1
67	67	3
21	22	2
11	11	7
44	125	1
144	190	1
136	139	1
31	32	1
141	158	1
178	178	3
168	180	1
9	37	2
62	81	1
96	102	1
184	185	2
129	129	1
6	14	2
83	83	4
84	84	1
134	160	1
114	172	1
46	47	1
42	43	1
5	7	2
84	85	1
7	8	2
9	14	1
90	110	1
20	44	1
108	151	1
94	95	1
121	122	2
46	53	1
12	37	2
98	133	1
64	71	1
96	96	3
188	188	3
43	55	1
133	150	1
157	157	2
77	82	1
137	174	1
115	115	1
127	197	1
10	15	1
27	29	1
177	178	1
93	95	1
112	112	4
68	82	1
69	69	2
96	97	3
100	101	1
127	131	1
118	154	1
175	178	1
61	64	1
114	162	1
182	183	2
130	132	1
153	156	1
190	190	6
48	48	2
33	33	6
116	116	2
167	169	1
100	100	3
4	153	1
50	51	1
68	69	1
111	118	1
191	193	1
132	133	1
160	160	3
29	36	1
140	140	4
171	172	2
71	73	1
177	179	1
155	175	1
180	180	4
186	193	1
114	114	1
191	192	1
170	171	2
50	85	1
25	28	1
71	71	1
152	152	2
155	157	1
4	196	1
152	153	2
157	164	1
35	168	1
72	73	1
10	11	1
17	17	5
69	70	2
10	157	1
37	38	1
188	190	2
139	149	1
131	196	1
59	59	1
5	183	1
52	53	2
113	114	1
105	106	1
57	60	1
34	36	1
164	166	1
10	45	1
37	37	5
127	127	2
55	55	3
16	18	1
13	14	1
174	178	1
44	122	1
139	139	2
53	57	1
31	152	1
20	65	1
114	115	2
32	37	1
44	45	1
29	30	3
56	73	1
154	154	2
166	167	1
77	81	1
11	139	1
118	121	1
24	37	1
9	42	1
43	47	1
99	119	1
62	82	1
60	77	1
98	99	1
59	65	1
152	154	2
192	193	1
5	38	1
6	7	2
4	5	3
58	59	1
193	193	2
57	66	1
40	41	1
4	25	1
184	197	1
16	33	1
110	110	2
101	107	1
175	180	1
185	194	1
182	186	3
116	118	1
70	70	1
99	100	3
124	142	1
122	122	2
137	178	2
57	58	1
154	176	1
95	101	1
12	45	1
3	4	1
166	168	1
194	195	1
71	141	1
54	69	1
157	170	1
13	15	1
2	7	1
112	114	1
38	160	1
36	40	1
19	176	1
172	182	1
21	25	1
178	179	2
66	66	3
30	31	1
4	24	1
38	40	1
9	19	1
137	138	1
30	35	1
124	125	1
115	121	1
53	53	1
173	175	1
147	148	2
0	3	1
51	52	1
20	24	1
165	166	1
46	49	1
150	151	1
131	132	1
39	40	1
171	183	1
85	85	1
171	185	1
140	141	1
14	15	2
107	108	1
58	60	1
61	61	1
73	74	1
103	104	1
174	175	2
109	109	1
83	84	1
15	31	1
102	116	1
168	169	1
125	129	1
45	46	1
172	174	1
52	197	1
179	182	1
4	16	1
174	176	1
24	27	1
173	173	1
40	42	1
82	82	1
157	161	1
160	167	1
134	195	1
15	33	1
175	179	1
151	152	1
7	18	1
32	45	1
175	188	1
37	42	1
179	188	1
