83	88	1
68	70	3
33	33	3
26	42	1
81	81	8
37	37	4
91	91	22
86	104	1
58	58	2
32	32	6
65	82	1
56	58	1
90	91	12
49	50	3
99	99	6
19	24	1
93	93	13
47	80	1
27	27	4
21	67	1
52	52	5
103	104	2
74	74	5
24	36	1
107	107	4
103	106	1
19	20	2
74	97	1
36	39	1
46	96	1
43	43	6
101	101	11
26	26	7
22	22	5
25	25	4
71	107	1
24	25	3
65	65	1
67	68	1
78	113	1
55	57	1
57	58	2
78	80	5
91	93	5
41	78	1
61	63	1
30	30	4
49	90	1
59	59	4
31	31	3
71	71	3
67	67	3
31	32	2
84	84	1
87	88	1
90	90	13
34	35	4
44	44	3
73	73	5
48	48	4
48	49	2
37	43	2
37	39	3
62	64	1
59	60	1
89	89	3
92	93	4
29	30	1
81	82	2
35	36	3
95	96	2
33	40	1
22	23	3
31	65	1
113	113	8
40	40	4
45	46	2
50	51	4
87	87	1
28	28	6
35	35	5
30	32	1
80	107	1
90	93	3
91	92	12
78	78	4
46	46	2
39	40	1
97	98	1
55	55	1
41	41	6
106	106	3
52	53	2
27	100	1
81	91	5
79	80	1
101	102	2
50	50	1
59	85	2
99	113	1
21	25	1
42	45	1
103	111	1
50	52	2
64	70	1
94	94	1
104	106	3
36	37	2
53	53	1
42	43	3
82	83	2
47	48	1
64	64	4
64	65	2
97	97	4
71	109	1
104	104	3
104	105	4
53	57	1
54	58	2
52	60	1
110	110	2
41	100	1
34	34	5
92	92	18
76	77	2
47	61	1
26	40	3
68	90	1
29	47	1
89	91	1
98	103	2
58	62	1
57	78	1
89	92	2
39	39	2
88	89	1
32	67	2
45	114	1
34	73	1
49	52	1
69	69	3
100	100	4
29	46	1
33	46	3
40	41	3
82	85	3
80	80	2
86	92	2
104	107	1
63	69	1
98	98	8
26	28	1
23	24	4
42	42	3
39	78	1
21	27	1
81	90	2
28	31	1
87	89	1
92	97	1
51	52	3
81	93	3
95	95	5
87	108	2
109	110	2
39	67	1
54	54	5
83	112	1
108	109	1
56	56	2
30	46	3
86	87	1
47	47	1
72	72	2
67	70	1
49	49	2
61	64	1
105	107	2
75	75	3
30	31	2
66	79	1
27	29	1
95	99	2
36	40	2
106	110	2
68	68	2
92	94	2
82	84	1
70	70	2
103	109	1
22	67	1
95	98	1
101	111	1
71	72	2
83	84	1
102	103	1
102	102	6
66	66	1
43	73	1
49	51	1
56	57	1
20	23	1
89	93	1
98	111	3
87	90	1
53	54	1
50	99	1
27	28	2
105	105	1
26	27	1
60	60	1
37	38	2
111	111	3
64	97	2
65	67	3
90	95	1
85	89	1
47	50	2
29	29	1
35	74	1
88	88	2
20	24	1
85	85	2
21	22	2
108	108	2
20	20	3
51	51	2
61	62	2
86	111	1
38	38	2
78	100	1
106	107	1
54	55	1
80	90	1
92	108	4
75	91	1
51	108	1
49	70	1
27	49	2
114	114	3
20	22	1
33	41	1
24	35	1
79	93	1
32	42	1
99	108	1
40	48	1
103	103	4
44	75	2
49	67	2
49	88	1
112	112	2
88	91	1
45	45	2
24	24	1
33	35	2
51	100	1
83	83	1
87	102	1
80	81	3
99	100	2
76	76	1
27	48	1
36	44	1
44	53	1
30	42	2
93	108	1
33	52	2
29	99	1
58	59	4
81	113	1
74	76	3
59	108	1
53	56	1
41	42	1
37	40	1
36	36	2
44	45	3
95	111	2
23	29	1
77	77	3
62	62	3
36	74	1
73	80	1
43	48	1
109	109	3
76	101	1
40	75	1
44	77	1
94	95	1
85	113	1
104	109	1
24	67	1
52	111	1
111	112	1
107	109	1
31	49	1
86	102	1
57	57	1
98	104	1
60	79	1
36	38	1
100	107	1
68	69	2
40	76	1
81	85	1
42	103	1
90	92	1
51	99	1
84	85	1
89	97	1
28	29	1
50	69	1
30	41	1
73	92	2
33	37	1
23	73	1
52	113	1
72	91	1
49	77	1
19	96	1
62	69	1
47	81	1
46	47	1
25	26	1
51	107	1
77	78	1
94	98	1
45	59	1
