3	49	1
225	225	5
177	178	2
152	152	3
7	7	8
104	104	6
211	211	8
186	188	2
47	47	4
23	23	7
17	19	1
230	230	2
241	241	3
36	39	1
48	48	5
205	206	1
209	210	1
232	232	8
118	118	6
116	117	2
153	153	3
116	116	3
192	192	2
245	245	13
45	45	7
32	32	9
37	37	10
183	207	1
20	20	5
194	194	3
215	215	5
69	69	3
25	25	5
177	177	6
66	66	6
11	11	4
218	218	1
9	9	3
35	35	12
86	97	2
239	239	4
77	77	1
15	15	4
194	195	3
198	199	3
111	111	3
208	208	3
242	243	1
199	200	2
222	222	5
99	100	1
66	93	1
8	8	2
207	208	1
247	247	4
85	211	1
51	55	1
227	228	2
7	17	1
228	230	2
204	204	4
101	108	2
113	117	1
68	68	2
174	184	1
241	244	1
171	171	1
68	86	1
88	88	6
50	50	5
70	70	2
201	202	3
27	32	1
217	218	3
249	249	1
113	113	2
87	95	1
69	98	1
94	94	2
38	38	1
212	212	3
14	14	3
97	97	4
210	210	4
81	84	1
29	29	4
100	100	1
65	66	2
200	200	7
73	75	1
5	64	1
193	194	5
216	216	4
246	247	1
153	154	2
4	4	7
81	81	4
156	156	7
49	49	5
208	209	3
224	224	1
114	114	6
42	42	6
240	240	3
79	79	1
54	54	6
187	208	1
24	24	2
105	105	3
28	28	4
18	18	5
170	170	3
197	200	1
150	154	1
33	33	5
65	65	3
3	5	1
16	16	2
187	187	4
6	182	1
234	234	5
181	181	5
194	221	1
172	172	4
159	159	4
28	41	1
89	90	1
164	164	4
195	219	1
205	205	3
56	56	3
206	231	3
99	106	1
76	76	3
81	83	1
120	145	1
87	109	2
110	111	1
5	5	3
38	39	2
189	189	5
115	116	2
4	5	3
30	38	1
41	41	6
145	145	2
198	220	1
157	158	1
223	223	5
163	164	1
219	219	2
1	1	3
105	107	1
63	65	2
26	26	8
215	216	1
187	190	1
36	37	1
175	175	7
203	204	2
42	43	1
57	58	4
119	121	2
176	176	2
237	238	1
184	211	2
24	25	1
238	238	6
109	109	4
12	12	2
174	174	1
195	195	3
113	115	2
120	120	2
195	198	1
220	221	1
81	82	2
193	213	1
207	207	5
213	214	4
152	153	1
66	67	1
29	30	1
91	91	2
60	67	1
80	84	1
10	21	1
92	92	2
216	242	1
84	179	1
206	207	1
80	81	1
98	98	2
229	229	3
51	51	2
41	42	5
248	248	1
179	179	2
232	233	1
27	27	4
144	144	4
162	162	3
43	43	3
112	112	5
199	215	4
33	35	2
180	180	2
101	101	2
59	60	2
100	109	1
53	53	6
167	173	1
34	34	5
227	227	3
182	183	2
155	155	7
44	44	4
19	20	1
198	198	5
36	36	2
224	226	1
106	107	2
171	172	1
82	85	1
61	61	3
9	10	5
178	179	1
237	239	1
87	100	2
38	87	1
117	118	2
160	162	1
203	203	3
241	242	2
237	240	1
149	149	2
168	168	1
39	47	1
184	184	6
43	46	1
201	212	2
217	217	4
169	169	4
237	237	4
196	196	3
10	10	2
183	184	2
89	104	1
93	93	3
8	22	1
6	6	4
190	247	1
4	6	1
155	156	1
228	228	6
105	106	1
178	178	1
3	3	2
119	119	5
197	197	2
52	52	7
74	74	1
21	22	1
39	40	2
31	31	1
95	95	2
17	17	3
117	117	2
108	111	1
87	87	3
225	232	1
191	191	3
17	53	1
198	200	2
71	75	3
219	220	1
171	186	1
151	151	3
173	173	4
112	115	1
36	160	1
200	201	3
176	177	2
166	166	4
211	212	3
193	208	1
115	145	1
220	220	2
23	25	1
110	110	4
35	36	1
229	230	1
62	63	2
168	169	4
63	64	2
213	213	7
214	214	6
31	32	2
202	202	2
175	176	2
7	9	2
108	108	2
19	19	6
85	85	2
163	163	3
201	201	3
242	242	1
78	81	1
158	158	3
173	175	1
165	192	1
22	22	2
27	41	1
157	157	4
195	196	1
43	44	1
40	40	6
34	35	1
165	165	2
99	99	3
2	3	1
59	59	2
67	67	1
208	211	1
78	78	1
79	80	3
89	158	1
199	199	5
201	229	1
201	206	1
193	195	1
89	89	2
240	241	2
104	105	2
82	83	1
27	151	1
197	231	1
167	167	4
160	160	3
83	84	1
77	78	2
150	151	3
206	206	2
209	209	4
186	186	4
39	39	3
91	92	2
182	182	4
57	57	4
115	115	3
175	190	1
75	75	1
46	52	2
106	106	2
185	186	2
154	155	1
224	225	1
150	150	2
200	214	1
113	166	1
59	71	1
112	113	1
160	161	1
70	71	1
217	219	1
71	71	2
216	243	1
93	100	1
8	9	2
32	206	1
3	47	1
190	190	1
1	47	1
31	202	1
246	246	1
54	57	1
107	108	1
180	181	1
188	188	1
98	100	1
244	244	3
61	62	1
236	242	1
163	192	1
51	52	1
168	200	1
221	221	2
86	87	1
241	243	1
6	44	1
165	175	1
147	147	1
233	235	1
192	193	1
63	63	2
225	226	2
185	185	1
32	34	1
66	155	1
58	59	1
30	30	3
183	183	1
7	8	1
195	221	1
243	244	2
18	19	2
29	31	1
82	82	2
214	215	2
188	189	2
233	234	2
226	226	3
158	159	1
2	2	3
107	107	3
55	55	1
48	91	1
186	189	1
62	62	1
161	166	1
193	193	1
193	198	2
114	115	1
234	243	1
73	73	1
90	92	2
25	26	1
92	93	1
33	34	1
6	7	1
162	165	1
233	233	1
188	217	1
154	154	2
30	111	1
96	96	1
221	222	2
26	27	1
205	209	1
90	158	1
118	119	1
181	183	1
58	58	1
218	219	1
86	86	1
54	55	1
204	205	1
17	20	1
95	96	1
89	106	1
46	46	1
40	45	1
144	145	1
207	211	1
231	231	1
84	85	1
235	236	1
47	52	1
110	112	1
