0	9	1
45	46	1
141	141	4
58	58	6
113	113	3
36	37	2
53	55	3
38	38	9
144	144	2
0	0	11
23	26	1
171	172	2
39	39	8
138	138	2
90	90	5
96	96	5
184	184	10
98	98	3
140	147	2
116	116	6
189	189	3
14	19	1
107	107	3
95	95	1
109	110	3
29	31	3
134	146	1
62	62	4
79	79	3
71	71	8
175	176	2
126	126	11
86	86	7
77	77	5
45	45	4
177	178	1
37	38	3
101	102	3
151	151	4
154	154	8
151	174	2
2	2	9
141	148	1
88	139	1
164	164	5
94	94	4
44	45	1
60	60	3
34	35	3
132	133	2
123	166	1
132	132	1
59	59	3
120	120	3
88	89	5
81	82	5
155	155	5
168	190	3
117	117	2
6	6	5
138	166	2
0	24	1
176	176	7
109	160	2
93	94	1
146	146	11
67	68	1
90	91	1
8	9	1
112	112	2
110	110	4
8	10	1
16	42	2
145	145	4
1	3	1
36	36	5
168	168	5
27	27	4
173	173	3
10	10	5
12	12	4
169	169	4
6	16	4
85	85	4
66	82	1
28	28	4
99	99	2
176	181	1
63	99	3
40	77	2
17	20	1
130	130	5
104	107	2
170	173	3
46	46	3
76	79	1
10	23	2
18	18	1
88	119	2
13	13	6
123	123	3
66	66	2
73	74	3
185	186	2
24	24	7
144	145	1
152	152	3
56	56	6
84	84	3
148	169	1
108	108	7
104	123	1
139	139	2
22	34	1
168	169	3
183	183	3
20	20	2
2	3	2
75	98	3
35	35	3
182	182	4
151	155	1
83	83	7
128	129	4
91	97	1
116	128	1
103	136	1
100	100	2
19	20	2
39	55	2
26	27	1
156	156	5
41	41	5
84	100	1
89	106	1
21	21	2
8	8	6
5	5	5
22	23	3
111	112	3
72	73	1
186	186	4
32	32	2
25	25	5
92	93	2
154	155	2
124	153	1
97	97	3
11	11	2
18	20	4
30	30	7
76	110	1
140	140	9
11	12	5
4	7	3
134	134	2
48	48	4
181	189	1
127	127	2
181	182	3
26	26	1
1	1	3
158	159	2
75	92	1
115	148	1
115	115	3
82	82	4
15	35	1
105	105	5
153	153	7
31	35	3
146	147	5
174	175	1
85	86	1
174	177	2
130	174	2
63	69	1
122	122	2
102	102	3
47	48	4
89	186	1
76	183	1
99	100	2
94	95	1
164	167	1
134	135	5
166	168	2
122	153	1
163	164	2
75	76	2
1	2	3
19	28	3
187	188	4
170	170	3
109	109	1
88	88	1
16	16	3
182	183	1
57	57	5
4	5	2
76	76	1
149	149	3
103	145	1
54	88	2
186	187	1
38	56	1
147	147	3
41	46	1
151	184	2
41	42	2
85	139	1
30	141	1
120	126	1
140	141	4
65	65	1
67	67	3
7	172	1
20	21	1
0	1	1
180	180	1
106	107	2
17	18	2
36	118	1
116	119	1
79	110	1
129	129	4
99	130	1
125	125	4
72	72	3
119	119	1
136	137	2
53	53	5
120	121	1
43	43	5
16	17	1
184	189	2
133	134	1
133	138	1
63	63	2
27	28	2
118	118	7
7	39	1
70	169	1
3	3	5
10	15	1
94	129	1
71	72	1
93	93	1
174	174	2
187	187	4
64	64	4
33	33	3
158	167	1
88	140	1
122	123	4
78	79	1
96	99	1
124	126	1
115	131	1
86	146	1
172	174	1
89	89	7
111	148	3
74	99	1
185	185	5
66	67	2
89	103	1
130	131	3
159	159	4
115	117	2
1	127	1
37	37	3
114	115	1
122	152	1
34	34	5
22	22	3
20	44	1
70	71	4
83	86	1
5	128	1
183	184	1
173	186	1
169	171	1
79	185	2
19	19	4
77	78	2
82	83	1
0	11	1
112	117	1
132	137	2
40	40	4
61	61	2
31	34	1
107	108	1
77	146	1
135	137	1
106	106	2
124	124	2
148	150	1
166	181	1
188	188	5
177	181	1
121	121	4
32	42	1
136	136	1
31	31	2
8	40	1
13	87	1
164	166	2
163	163	3
29	30	1
43	58	2
120	123	1
47	47	2
166	166	2
62	64	1
142	142	1
87	87	4
12	14	1
179	179	3
19	34	1
7	7	4
73	73	1
130	168	2
102	104	2
97	100	1
178	179	2
37	40	1
142	144	1
128	128	2
144	184	1
164	165	1
152	153	3
143	144	1
52	52	1
171	171	2
117	119	1
55	55	4
66	68	1
103	103	3
17	21	1
92	116	1
148	148	1
143	143	1
171	176	1
87	90	1
27	37	1
3	6	1
91	101	1
20	29	1
143	149	1
168	171	1
134	149	1
65	81	1
44	46	1
15	15	2
14	14	3
172	172	4
55	56	1
112	113	1
118	126	1
124	125	1
150	150	3
168	172	1
34	72	2
47	68	1
81	81	5
94	107	1
17	17	1
131	131	1
102	121	1
74	81	1
139	140	2
179	188	1
149	150	1
137	137	1
75	75	3
163	170	1
85	110	1
108	112	2
38	89	1
154	163	1
19	22	1
70	70	2
107	160	1
63	65	4
121	149	1
135	136	1
93	95	1
171	182	1
58	60	1
178	178	1
90	98	1
120	133	1
135	138	2
110	147	2
60	63	1
138	157	1
44	44	2
28	29	1
80	81	1
16	20	1
175	175	3
169	170	1
95	98	1
96	97	3
27	36	1
62	72	3
157	157	1
98	99	1
96	140	1
68	71	1
8	16	1
5	19	1
58	63	1
142	147	1
92	92	1
31	53	1
111	111	1
160	163	1
28	72	1
39	185	2
27	29	1
92	162	1
44	125	2
98	114	1
17	36	1
138	164	1
137	165	1
137	139	2
73	81	2
40	41	1
160	167	2
25	47	1
31	32	1
32	35	1
55	127	1
30	31	1
112	157	1
181	181	1
100	101	1
126	173	1
105	156	1
142	143	1
0	46	2
94	128	1
103	106	1
159	160	1
42	42	1
68	109	1
94	123	1
58	67	1
30	33	1
9	9	1
158	158	2
35	101	1
97	98	1
130	164	1
167	168	3
64	164	1
81	142	1
13	16	1
141	180	1
150	175	1
138	177	1
33	36	1
86	87	1
62	125	1
46	47	1
118	139	1
147	166	1
108	172	1
47	89	1
67	87	1
172	173	1
80	80	4
4	4	3
125	131	1
110	111	2
107	111	1
10	11	1
16	54	1
114	114	2
184	186	1
125	135	1
152	186	1
8	38	1
108	109	1
81	107	1
54	78	1
0	85	1
133	133	1
126	127	1
40	81	1
140	164	1
100	110	1
173	190	1
11	21	1
77	100	1
104	120	1
11	20	1
18	47	1
100	103	1
149	179	1
76	121	1
27	32	1
124	136	1
97	102	1
130	143	1
155	159	1
29	29	1
68	82	1
15	16	1
43	135	1
184	188	1
122	166	1
87	92	1
82	165	1
126	128	1
5	7	1
96	102	1
160	183	1
83	109	1
178	182	1
134	137	1
79	81	1
