4	4	2
132	157	1
166	167	3
17	42	1
82	82	1
133	138	2
95	95	1
102	135	2
96	134	2
123	123	4
86	86	3
155	156	1
17	17	4
144	146	1
133	178	2
21	30	1
31	32	5
71	91	1
80	80	1
146	146	2
78	78	2
178	180	1
79	119	1
27	30	2
61	61	2
28	94	1
152	152	1
103	103	1
169	170	1
7	130	1
69	70	1
151	189	2
5	28	1
126	149	2
105	105	2
98	98	3
177	181	1
0	17	1
46	46	3
40	40	4
146	147	1
138	164	1
115	142	1
76	76	1
55	55	2
36	36	1
136	158	1
173	173	2
34	34	1
59	60	1
18	22	3
133	134	2
108	108	1
125	125	2
105	138	1
150	162	1
71	92	1
14	27	1
184	184	3
88	89	1
43	44	1
144	159	1
163	177	1
157	181	1
167	167	1
31	31	2
54	119	2
42	49	1
115	125	1
110	110	1
37	37	2
77	77	2
6	6	3
174	174	2
185	186	1
143	148	2
42	42	1
151	151	1
134	167	1
125	127	1
13	13	1
67	67	2
157	183	1
169	169	1
110	114	1
44	44	1
90	90	2
66	67	1
140	140	1
157	158	1
84	154	1
89	89	4
137	137	1
100	100	2
104	104	2
166	166	1
79	79	2
27	31	1
12	12	2
136	136	1
63	63	2
6	7	1
96	96	4
23	23	1
127	128	1
169	185	1
92	150	1
63	94	1
153	170	1
79	100	1
138	162	2
98	100	1
56	56	4
24	24	2
74	109	2
19	19	1
135	135	1
13	19	1
189	189	2
107	119	1
53	56	1
28	31	2
148	148	2
126	127	1
60	65	1
142	148	1
153	153	1
81	81	1
10	15	2
38	38	2
2	2	2
20	35	1
44	45	1
129	160	1
73	85	1
65	94	1
134	149	1
144	144	1
188	188	1
58	59	2
139	151	1
157	190	1
140	144	1
116	116	1
135	136	1
26	27	1
152	167	1
144	145	1
121	121	1
159	164	1
15	15	1
137	173	1
138	138	1
190	190	1
70	94	1
71	96	1
18	19	1
85	85	1
54	54	1
93	93	1
90	104	1
92	92	1
5	6	1
116	119	1
11	28	1
109	109	1
30	30	1
59	59	1
70	71	3
154	154	1
68	84	1
187	188	1
39	39	2
10	10	1
46	47	1
47	47	1
150	151	1
141	142	1
66	66	1
187	187	1
178	178	1
171	175	1
107	107	2
164	166	1
78	124	1
14	14	2
6	32	2
113	118	1
129	140	1
129	153	1
23	25	1
30	31	1
20	21	1
16	16	2
75	75	1
144	188	1
25	26	1
25	46	1
117	117	1
165	166	1
173	178	1
182	186	1
71	73	1
153	154	1
6	71	1
20	20	1
147	172	1
127	127	1
96	130	1
7	8	1
91	91	1
106	106	1
112	112	1
145	157	1
168	180	1
168	169	1
155	190	1
178	182	1
130	130	1
74	114	1
68	68	1
52	52	1
