36	36	5
63	63	1
166	166	2
13	13	4
123	123	1
47	47	8
144	145	3
178	178	3
38	138	1
30	32	1
44	55	1
100	111	2
21	21	5
31	31	4
32	45	1
29	30	3
147	155	2
9	9	5
141	141	3
170	171	2
76	76	2
15	18	1
30	30	4
131	132	1
48	49	1
171	171	4
42	42	9
160	160	4
152	153	2
33	34	1
20	22	1
174	174	4
36	40	1
19	19	7
98	100	2
52	52	5
161	161	3
182	182	4
108	112	2
104	106	1
159	159	5
54	54	4
65	66	1
101	101	4
146	157	1
33	33	3
119	136	1
94	94	4
81	88	1
9	10	2
99	99	1
20	20	8
158	160	2
176	176	2
62	134	1
171	193	1
50	50	3
37	37	6
147	173	1
28	28	3
26	26	3
29	29	5
193	193	2
122	122	3
46	46	7
186	187	2
192	193	1
174	189	1
51	51	3
10	12	1
146	165	1
197	197	1
16	16	2
170	193	2
32	32	4
3	4	3
27	28	4
168	193	1
1	2	2
54	70	1
2	2	6
168	168	1
88	90	1
29	137	1
183	183	6
55	56	1
139	141	1
10	50	1
87	88	1
101	105	1
119	120	2
138	170	2
23	23	4
141	196	1
11	11	4
83	85	2
187	192	1
44	44	1
7	7	6
176	177	2
57	57	3
116	116	1
144	144	4
0	0	3
177	177	2
106	106	3
31	32	1
43	44	2
87	87	4
114	114	2
189	191	1
142	143	1
97	97	1
161	182	1
167	167	1
195	195	6
14	14	2
188	189	1
41	41	6
6	67	1
16	41	1
17	25	2
53	54	1
122	151	1
2	4	2
43	43	6
105	105	2
65	65	1
112	113	2
49	49	4
146	147	1
43	46	1
115	137	2
165	165	1
38	38	5
6	55	1
5	6	2
4	170	1
24	25	1
54	55	2
29	35	1
138	138	2
114	147	1
78	80	2
35	35	4
162	162	1
173	173	1
157	158	3
24	24	5
10	10	4
69	100	1
50	51	1
42	44	1
22	23	4
139	139	2
158	159	3
53	53	1
19	24	1
140	140	3
151	151	1
6	6	4
180	180	2
25	26	1
184	184	4
54	87	2
36	37	3
171	194	1
74	74	2
89	89	3
95	96	1
98	99	3
179	183	1
124	126	1
145	146	1
111	111	2
126	126	3
0	1	1
39	124	1
51	52	2
98	98	3
55	130	1
4	4	1
187	187	1
45	45	2
17	23	1
27	27	3
13	126	1
70	70	3
152	152	1
172	191	1
47	134	1
3	30	1
15	15	1
181	182	1
27	30	1
54	56	1
173	190	1
194	194	3
18	20	3
5	5	1
108	109	1
84	85	1
188	192	3
185	185	1
60	71	1
120	149	1
83	102	1
31	37	2
188	188	2
133	133	1
40	40	1
8	186	1
30	88	1
81	81	1
172	172	2
71	79	1
129	129	1
155	155	3
191	192	1
169	193	1
34	36	1
6	12	1
20	21	1
142	142	3
136	175	1
21	23	2
76	83	1
139	169	1
23	24	1
153	154	1
0	40	1
0	3	1
191	191	3
28	31	1
25	25	1
174	175	2
68	68	1
47	48	1
180	181	1
86	86	1
167	168	1
163	164	2
109	111	2
178	187	1
150	182	1
114	153	1
58	58	2
158	158	3
120	120	1
138	171	1
3	3	1
118	121	1
187	194	1
28	30	1
192	192	1
150	150	1
178	179	1
44	152	1
145	161	2
52	63	1
98	116	2
35	39	1
15	16	1
15	123	1
5	21	1
73	74	1
65	85	1
10	14	1
157	157	3
118	118	1
19	21	1
153	193	1
127	128	1
10	171	1
64	65	1
37	38	1
112	112	1
60	106	1
22	105	1
163	167	1
85	85	2
189	190	1
153	153	2
134	134	1
32	33	1
48	48	1
8	8	1
120	146	1
50	52	1
69	69	1
179	179	1
15	108	1
19	39	1
155	156	1
176	178	1
115	115	1
124	124	1
31	43	1
179	180	1
17	17	1
98	103	1
55	55	1
37	76	1
0	30	1
170	170	2
79	80	1
169	169	2
141	155	2
70	74	1
12	12	1
68	82	1
126	128	2
60	60	1
114	122	1
75	131	1
190	190	1
107	108	1
107	107	1
39	40	2
62	63	1
34	34	1
97	98	2
61	62	1
167	169	2
136	183	1
97	102	1
40	53	1
173	174	1
41	45	1
117	117	1
121	121	1
193	195	1
156	156	2
181	181	3
135	137	2
147	148	1
176	182	1
60	62	1
146	146	2
41	42	1
27	29	1
4	33	1
145	158	1
26	27	1
89	103	1
28	29	1
145	145	1
18	18	1
108	108	1
157	192	1
40	42	1
74	120	1
25	31	1
0	18	1
4	151	1
113	120	1
13	14	1
115	167	1
190	191	1
96	96	1
168	178	1
101	108	1
3	41	1
142	183	1
