121	142	1
109	109	4
25	26	3
72	73	1
5	5	3
24	24	3
11	12	4
58	59	2
172	172	3
155	155	5
89	89	3
146	153	1
177	179	2
167	167	1
167	186	2
180	180	2
4	4	1
186	186	2
187	187	2
118	118	1
44	44	5
184	184	3
80	80	2
161	162	1
79	79	5
6	6	5
74	74	3
48	48	2
158	158	2
165	165	2
174	175	1
6	27	1
121	122	2
136	136	1
183	183	5
27	29	1
169	169	3
38	38	3
125	125	1
28	29	2
148	148	1
159	159	3
182	188	2
24	86	1
87	88	2
99	115	1
127	127	3
41	55	2
101	102	3
138	138	1
176	176	4
31	35	1
59	59	1
26	78	1
166	166	3
161	161	1
4	5	1
98	99	2
153	153	1
120	120	4
28	28	1
25	83	1
103	103	1
20	30	1
144	144	3
130	132	2
33	34	1
39	40	1
142	144	2
35	37	1
190	190	1
37	126	1
42	45	1
45	45	4
10	17	1
130	131	1
185	185	4
17	21	1
44	46	2
95	95	3
160	160	2
42	131	1
54	54	5
127	139	1
30	30	3
127	152	1
188	188	3
180	181	1
16	16	2
146	151	1
172	175	1
77	78	3
72	72	1
136	137	1
160	161	1
106	106	2
181	181	4
149	149	2
102	102	2
10	10	4
66	108	1
42	42	3
77	90	2
88	89	1
70	112	1
151	151	1
18	85	1
56	56	2
20	20	2
82	82	2
8	8	3
38	39	2
113	119	1
36	37	3
125	130	1
46	46	3
14	14	2
57	57	2
87	87	1
99	119	1
1	69	1
104	105	1
43	44	1
92	93	1
188	190	2
99	109	2
116	137	1
19	19	1
34	34	1
122	122	2
3	3	1
46	63	1
73	97	1
74	113	1
152	154	1
141	141	2
111	111	1
18	18	4
40	40	2
82	83	1
177	177	3
49	49	1
189	190	1
118	126	1
88	97	2
7	7	2
91	93	1
17	18	1
30	35	2
59	61	1
107	113	1
163	163	1
6	10	1
52	52	1
61	61	3
53	75	2
43	65	1
74	76	1
86	86	1
189	189	2
41	57	2
130	133	2
131	131	2
126	126	1
33	37	1
130	157	1
41	41	1
98	98	2
21	21	1
86	87	2
145	147	1
104	110	1
93	93	4
137	137	1
157	159	1
62	63	2
129	166	2
58	58	1
30	31	1
43	43	1
83	83	4
19	20	1
159	172	1
103	107	1
75	76	1
5	71	2
158	160	1
28	32	1
33	33	1
152	153	1
171	171	1
168	170	1
129	129	4
178	179	1
98	112	1
97	97	3
157	157	3
17	17	2
170	170	2
90	91	1
3	82	1
119	119	3
89	90	1
11	30	1
85	85	3
92	92	2
134	138	1
58	62	2
60	60	2
35	53	1
24	72	1
170	183	1
63	64	1
109	127	1
61	63	2
156	156	2
36	61	1
25	25	2
139	139	2
96	97	1
54	89	1
147	147	2
124	124	3
17	26	1
36	36	1
173	173	3
39	39	3
169	174	1
67	67	1
112	177	1
65	65	1
110	110	3
74	75	1
26	26	2
106	148	1
149	187	1
29	34	1
12	21	1
10	26	1
142	142	1
121	126	1
140	145	1
182	182	2
150	171	1
140	141	2
134	142	1
175	175	1
120	129	1
64	64	1
99	113	1
84	85	1
146	146	2
30	32	1
135	138	1
179	180	1
141	190	1
114	115	4
16	19	1
2	3	1
77	131	1
17	38	1
136	139	1
35	36	1
115	115	2
0	0	3
21	30	2
62	62	1
6	123	1
37	37	1
71	71	2
100	103	1
137	184	1
89	111	1
66	67	3
120	136	1
47	47	2
131	132	1
66	66	2
10	22	1
169	173	1
121	121	4
40	41	1
48	110	1
176	177	1
153	154	1
152	155	1
106	154	1
167	169	1
31	31	2
19	22	1
133	135	1
154	154	1
58	100	1
176	179	1
13	67	1
95	99	1
156	159	1
77	77	1
171	173	1
114	114	1
59	145	1
27	97	1
78	83	1
11	11	1
100	100	1
104	131	1
22	22	2
93	95	1
41	42	1
164	184	2
80	81	1
15	15	2
4	17	1
152	152	2
175	176	1
56	57	1
179	179	1
29	30	1
10	11	1
95	104	1
113	150	1
22	23	1
16	28	1
84	88	1
105	106	2
113	113	1
135	135	1
74	78	1
145	145	1
76	76	1
86	88	1
24	42	1
104	114	1
106	111	1
137	138	2
61	66	1
99	99	1
112	112	1
129	139	1
68	71	1
105	105	1
7	8	1
164	165	1
12	12	1
150	165	1
75	75	2
66	105	1
96	101	1
164	164	1
124	189	1
140	140	1
79	81	1
77	99	1
33	36	1
11	54	1
160	165	1
125	133	1
107	107	1
0	1	1
146	147	1
5	42	1
60	73	1
103	114	1
38	102	1
