149	149	8
16	16	13
176	176	5
124	125	1
171	171	4
19	24	1
102	103	1
21	21	5
24	24	11
27	28	2
151	152	2
21	22	3
129	129	2
39	55	1
138	138	8
13	13	7
85	87	1
116	116	2
187	187	1
5	5	4
131	140	1
170	170	5
44	44	9
26	28	1
150	156	1
50	50	3
164	164	2
158	160	1
94	97	1
28	30	4
100	102	3
36	36	13
193	193	5
128	133	1
166	166	7
93	94	1
34	35	5
158	158	7
173	173	4
191	191	2
73	73	3
20	24	1
134	134	2
190	194	1
151	151	4
160	160	3
30	30	4
142	142	3
67	67	2
149	152	1
72	72	3
10	10	6
159	179	1
192	192	5
9	128	2
17	17	3
32	32	7
142	146	2
38	38	8
163	164	3
0	1	2
185	186	2
142	143	3
2	2	7
174	174	2
168	168	7
87	88	1
49	49	2
132	132	3
165	168	1
46	46	5
19	19	6
117	144	1
35	35	6
108	156	3
135	135	8
165	165	5
7	8	2
160	181	1
146	146	7
10	11	1
192	194	1
14	15	5
130	130	3
37	37	5
90	90	1
50	51	1
30	31	3
124	124	5
137	137	2
23	23	8
27	32	1
45	45	8
144	144	5
25	25	5
47	54	1
148	148	1
24	25	3
87	156	2
106	107	1
88	88	3
80	80	2
111	111	3
163	165	1
81	84	1
64	64	6
39	39	3
29	29	4
145	155	2
6	19	2
176	177	2
71	73	1
141	142	2
42	42	5
59	59	4
169	182	1
22	25	3
118	120	1
189	189	5
69	69	4
167	178	1
3	3	11
15	15	5
175	175	2
98	99	3
95	95	1
127	127	5
23	24	3
170	193	1
7	76	2
25	39	1
132	133	3
154	179	2
105	137	1
131	131	4
27	27	6
196	196	4
56	152	1
8	8	5
125	125	4
94	94	5
53	53	5
190	190	7
89	89	3
104	106	1
143	144	1
115	115	2
83	83	1
28	28	6
7	7	6
52	197	2
33	142	2
117	117	2
24	37	1
157	157	1
143	143	3
108	110	1
186	186	4
154	155	1
145	145	5
184	184	3
99	100	1
106	106	2
70	81	1
74	77	1
169	169	7
14	14	4
25	28	1
123	123	1
169	170	1
18	18	9
6	8	1
4	39	1
76	76	3
65	71	1
3	191	1
97	98	1
16	17	2
71	71	1
69	72	1
19	20	1
182	183	1
114	114	2
138	141	1
110	111	3
63	64	1
12	12	4
39	40	1
125	126	1
79	99	1
60	61	4
4	8	1
25	36	1
154	154	3
68	68	5
43	43	4
40	41	4
43	44	2
197	197	3
2	7	1
65	65	2
156	156	3
119	119	2
45	101	1
179	186	1
85	85	2
57	57	1
34	34	8
133	134	2
161	163	1
183	184	1
172	172	9
40	42	1
95	101	1
172	191	1
67	68	1
75	75	1
44	184	1
67	88	1
22	24	1
108	109	1
150	150	2
70	70	5
185	185	4
178	178	7
167	168	2
109	109	1
113	113	1
186	187	2
153	158	1
87	87	4
14	38	1
38	39	2
40	40	1
144	145	3
86	86	2
66	67	1
47	48	1
149	150	3
18	24	4
161	161	4
33	33	8
9	11	1
79	85	2
13	15	2
52	52	4
51	51	4
139	139	2
76	99	1
120	121	1
181	182	1
146	147	2
181	181	3
157	158	2
137	138	2
114	115	1
16	20	1
9	9	2
160	191	1
111	112	1
140	140	3
112	113	1
4	103	1
122	123	1
1	8	1
100	100	3
20	22	3
74	75	1
174	193	1
195	195	1
97	101	1
159	160	1
102	102	2
167	192	2
10	196	1
100	101	1
49	51	1
190	191	2
179	181	2
77	99	1
136	136	7
120	141	1
55	187	1
78	78	3
32	46	1
37	38	1
17	119	1
61	62	1
26	35	1
14	53	1
11	11	3
118	118	1
177	177	5
176	178	2
123	131	1
1	1	4
93	93	1
165	167	1
101	101	3
19	40	1
71	72	1
0	0	3
81	82	1
153	153	2
159	159	3
177	179	1
147	147	2
17	18	2
179	179	1
29	30	2
167	174	1
60	64	1
39	57	1
48	48	2
3	22	1
122	122	2
72	73	2
108	108	2
183	183	3
31	37	1
78	86	1
141	141	6
19	25	1
20	20	5
128	177	1
47	47	3
75	76	1
172	173	1
21	94	1
42	43	1
61	61	2
155	156	2
32	33	1
179	180	2
107	108	1
175	177	1
25	27	1
25	26	2
41	66	1
37	53	1
169	173	2
153	174	1
25	38	1
182	182	3
0	15	1
172	177	1
180	182	1
31	31	2
170	185	1
147	148	2
49	50	1
166	173	2
4	5	2
41	56	1
110	113	1
15	16	1
163	166	2
117	118	2
34	147	1
195	196	1
94	137	1
77	77	1
57	129	2
180	180	1
100	141	1
36	37	1
5	17	1
2	3	1
153	154	1
165	173	1
172	176	1
188	188	3
6	7	3
47	49	1
169	191	1
156	157	1
41	41	5
3	24	1
22	22	2
146	148	1
189	190	1
188	190	1
194	194	3
166	167	1
116	118	1
95	96	1
8	9	2
96	96	1
82	82	1
163	163	2
129	130	1
167	170	1
88	89	2
95	97	1
192	193	2
164	181	1
104	104	1
106	108	1
5	6	1
14	71	1
113	114	1
26	26	3
63	63	1
62	81	1
150	151	1
126	126	3
175	176	1
11	13	1
170	171	1
160	163	1
161	169	1
135	139	1
43	55	1
27	31	1
33	34	2
134	135	1
54	187	1
6	6	3
8	15	1
35	36	1
47	133	1
167	167	2
152	183	1
136	154	1
84	85	1
68	70	1
23	28	1
194	195	1
37	40	1
15	29	1
139	140	1
149	156	1
171	172	1
171	177	1
53	54	2
19	34	1
19	22	1
38	58	1
59	60	1
26	27	1
120	120	1
51	52	1
94	155	1
161	164	1
41	87	1
83	86	1
28	35	1
12	13	1
156	163	1
40	46	1
36	38	1
36	63	1
123	124	1
153	156	1
106	180	1
99	99	1
160	172	1
173	174	1
147	149	1
174	175	1
18	26	1
178	190	1
174	178	1
41	47	1
54	60	1
119	120	1
17	27	1
161	168	1
9	10	1
42	66	1
184	185	1
17	38	1
166	189	1
8	34	1
110	110	1
12	38	1
17	35	1
