1	2	2
40	133	1
100	121	1
55	55	2
22	80	1
88	89	1
56	57	1
65	65	3
34	47	1
133	133	3
32	32	1
48	48	1
16	57	1
116	116	1
45	45	4
23	25	1
37	37	4
67	67	2
23	23	2
63	116	1
31	32	2
82	82	2
38	39	1
74	74	1
112	112	1
50	133	1
60	61	2
40	40	2
27	36	1
76	77	2
9	9	3
88	109	1
110	131	1
26	26	2
102	105	1
85	85	4
83	129	1
101	109	2
81	96	1
94	112	2
63	63	3
90	90	1
33	78	1
51	51	1
101	129	1
41	42	1
13	14	1
41	43	1
22	31	2
122	122	4
130	130	1
6	6	1
15	15	1
38	38	1
132	132	2
87	87	2
42	43	1
58	58	1
31	34	2
19	19	2
121	121	2
96	126	2
93	93	1
115	115	1
128	129	1
123	124	2
42	42	4
34	43	1
75	75	1
124	129	2
84	85	4
44	44	1
37	49	1
34	36	1
107	110	1
46	46	2
24	25	2
130	132	1
48	49	2
128	128	2
19	20	1
25	25	2
27	27	3
34	34	4
57	57	1
16	16	2
59	77	1
36	38	1
37	39	1
109	109	1
33	65	1
70	70	2
68	69	1
39	40	2
44	75	1
17	17	2
41	41	2
106	106	1
94	94	3
8	8	3
62	63	1
108	112	1
99	99	1
115	122	1
18	44	1
72	77	1
55	80	1
127	127	3
68	93	1
119	119	2
4	4	1
102	102	1
57	76	1
32	44	1
98	101	1
67	68	1
121	132	1
12	12	3
81	83	2
43	44	1
39	39	1
98	127	1
2	11	1
81	81	1
118	118	1
21	21	1
103	104	1
50	50	1
73	73	1
117	117	4
43	43	2
68	68	1
83	83	1
113	124	1
131	132	1
59	59	1
10	10	1
40	41	1
46	47	1
87	88	1
18	47	1
66	66	2
72	72	1
118	134	1
72	74	1
121	122	1
1	1	1
113	125	1
14	14	1
74	76	1
101	101	1
108	127	1
78	85	2
114	114	1
14	15	1
43	126	1
126	126	1
71	72	1
44	45	1
18	18	1
17	94	1
128	130	1
123	123	1
28	29	1
70	71	1
96	97	1
31	31	1
82	130	1
106	109	1
7	7	1
115	116	1
28	30	1
29	29	1
3	3	1
27	28	1
60	70	1
25	26	1
89	126	1
56	58	1
39	43	1
12	94	1
113	113	1
83	86	1
60	60	1
20	20	1
81	99	1
105	110	1
94	95	1
61	61	1
13	13	1
64	72	1
110	110	1
93	112	1
