140	140	2
13	13	2
147	147	3
7	7	4
37	172	1
4	6	3
115	117	1
38	39	1
161	176	1
145	145	2
178	215	1
55	55	3
128	128	2
78	78	2
8	33	2
71	72	1
163	199	2
152	153	1
234	234	2
51	81	1
117	117	2
150	151	1
152	152	2
124	125	1
96	96	1
6	6	2
221	221	4
14	17	2
116	116	4
17	17	2
207	209	1
8	20	2
214	214	2
64	64	2
168	169	3
180	180	4
26	26	5
10	10	4
4	14	1
143	148	1
157	157	1
104	104	1
137	179	2
15	15	2
57	57	1
3	3	3
18	18	2
18	19	1
51	52	4
191	219	3
4	4	3
238	238	5
75	75	2
135	135	4
71	71	3
69	113	1
73	73	2
15	16	2
4	226	1
30	30	2
231	231	1
19	20	2
136	136	5
126	126	5
185	185	5
233	237	2
14	14	3
183	183	1
178	183	2
119	135	1
12	12	3
160	190	1
153	162	1
141	159	1
71	73	2
221	223	1
75	78	1
206	206	5
36	129	2
41	59	1
11	42	1
84	85	2
47	47	3
11	11	1
44	45	5
161	166	2
232	241	1
38	38	4
65	65	5
171	198	1
22	23	1
18	23	2
166	169	2
131	131	2
20	20	2
142	143	3
233	233	1
171	175	2
207	207	1
124	124	3
8	8	3
37	37	4
120	121	1
219	219	1
239	239	3
188	188	5
139	140	1
172	172	1
16	16	5
74	74	4
40	40	4
27	178	1
226	227	2
217	218	3
29	206	2
36	37	1
86	86	2
75	76	1
152	158	1
48	62	1
154	154	1
209	210	2
99	101	1
39	39	3
166	166	3
107	113	1
154	155	3
121	121	3
107	108	1
116	122	1
24	24	4
25	25	4
125	125	6
101	159	1
158	160	1
210	211	1
195	195	3
155	182	2
32	32	2
205	206	1
22	35	1
79	79	1
241	241	2
160	160	6
123	123	1
5	5	1
53	53	4
110	110	1
24	25	1
24	26	1
166	167	1
154	184	1
50	52	1
77	80	1
99	170	1
180	207	2
153	153	1
184	184	2
228	228	4
65	67	1
52	53	1
168	168	5
13	14	1
39	61	2
139	142	2
190	190	2
102	102	2
37	59	1
9	9	3
198	198	2
167	198	1
76	76	3
123	124	2
23	24	1
205	205	4
29	31	1
122	122	1
105	106	1
177	178	2
19	34	1
218	219	1
49	49	3
24	68	1
130	135	1
108	113	1
190	191	1
59	59	6
240	242	1
189	190	2
97	97	2
28	160	1
181	182	1
130	130	2
173	173	1
182	182	1
178	178	1
40	41	1
148	148	2
222	222	1
62	86	1
141	141	2
41	41	2
43	43	1
19	19	2
18	20	1
8	39	1
175	178	1
161	161	1
212	213	1
130	149	1
60	60	2
175	175	4
150	150	4
180	182	1
137	139	1
137	137	3
128	129	1
186	187	4
10	31	1
224	226	1
23	23	3
54	54	5
140	141	1
189	222	1
9	55	1
56	56	2
69	69	3
184	187	2
200	202	1
207	208	1
227	230	1
154	168	1
185	187	1
193	193	5
34	35	1
240	240	8
178	198	1
165	167	1
99	99	3
204	206	1
22	51	1
96	97	2
184	186	1
98	98	2
148	149	2
158	159	2
88	88	4
103	103	1
24	219	1
133	133	2
58	124	1
6	36	1
179	179	2
45	88	1
81	124	1
35	35	1
114	114	4
148	154	1
80	80	4
127	127	2
180	185	1
58	60	4
192	193	1
199	200	2
34	34	3
214	216	2
203	204	2
138	138	2
169	169	2
167	168	2
55	75	1
228	230	3
186	186	4
185	186	4
171	173	1
7	8	1
158	158	1
1	2	1
105	105	1
57	58	1
152	159	1
76	79	1
120	120	3
224	224	2
146	148	1
164	164	3
11	33	1
193	227	1
182	183	1
146	189	1
64	65	1
10	85	1
3	5	1
89	89	3
85	86	1
237	237	2
143	217	1
165	183	1
70	70	3
192	195	1
42	43	1
49	50	1
223	223	1
31	31	2
18	21	1
115	118	1
151	152	2
146	147	1
189	189	2
108	117	1
21	192	1
19	35	2
217	217	1
81	81	1
0	0	1
163	186	1
100	100	1
181	181	2
200	200	1
179	180	1
185	188	1
177	177	2
50	59	1
68	68	3
111	112	1
138	140	1
196	196	3
66	69	1
215	221	1
50	50	1
113	158	2
60	61	1
83	103	1
29	29	1
76	83	1
26	44	1
215	216	1
11	20	1
97	98	1
226	226	1
180	181	2
112	128	1
106	106	2
42	42	3
67	68	1
172	173	1
235	236	2
142	145	1
66	115	1
162	162	2
84	84	1
146	185	2
161	163	2
31	33	2
44	109	1
100	101	1
122	123	3
126	127	2
192	192	1
62	62	1
63	63	1
22	22	1
151	161	1
13	108	1
236	236	1
193	194	1
172	187	1
100	102	1
161	164	1
147	148	1
216	216	1
70	84	1
20	25	1
144	144	1
229	229	1
191	192	1
225	228	1
175	176	1
43	44	1
78	108	1
129	129	1
189	206	1
159	159	2
5	6	1
149	169	1
26	32	1
213	214	1
149	152	1
232	232	1
101	101	1
33	33	1
67	67	1
68	73	1
66	66	2
28	29	1
85	85	1
8	12	1
225	225	1
124	126	1
187	204	1
19	54	1
28	28	2
96	127	1
12	25	1
171	190	1
165	166	1
66	76	1
103	104	1
122	130	1
109	109	1
28	178	1
149	151	1
220	220	1
153	157	1
163	178	1
28	30	1
156	156	1
21	23	1
109	110	1
6	165	1
203	203	1
3	10	1
158	170	1
64	85	1
103	105	1
151	151	1
156	158	1
21	50	1
11	215	1
212	212	1
117	118	1
64	96	1
213	213	1
221	222	1
14	19	1
166	184	1
46	46	1
