138	138	1
90	90	2
67	67	1
3	3	1
60	60	1
16	16	2
10	10	1
42	42	2
111	136	1
137	138	4
106	106	3
85	86	1
29	29	2
141	141	1
73	74	1
74	74	1
121	121	3
131	132	2
61	103	1
89	89	2
141	142	1
37	37	1
54	54	1
99	99	2
70	70	2
31	32	1
109	109	4
101	101	2
21	21	2
139	139	4
59	129	1
39	39	1
5	5	1
23	23	1
20	20	4
135	138	1
97	97	2
26	26	2
30	32	1
66	66	4
67	68	3
38	39	1
26	27	2
130	130	2
132	132	2
49	52	1
13	16	1
17	20	1
123	124	1
36	40	3
127	127	4
10	11	2
65	113	1
115	115	1
79	105	1
27	27	8
105	108	2
105	105	2
80	98	2
51	51	1
62	62	3
6	6	1
84	85	1
133	133	4
81	88	1
55	55	4
81	81	2
69	74	2
76	77	1
69	69	4
125	125	2
103	110	1
63	118	1
23	27	2
136	139	1
49	49	1
123	123	1
56	56	4
33	33	2
100	102	1
2	2	1
72	84	1
6	9	1
121	122	1
144	144	2
94	95	1
53	57	2
64	66	1
105	119	1
72	72	1
72	111	1
104	104	1
100	100	4
134	134	2
1	1	1
71	71	3
124	124	3
40	47	1
140	140	1
17	38	1
106	107	1
92	92	1
115	117	2
103	103	3
107	108	2
93	94	2
22	23	1
137	137	1
35	36	2
131	131	5
79	79	1
50	68	1
4	5	2
76	108	1
96	97	1
88	89	1
34	34	1
96	96	1
112	113	1
43	43	1
124	134	1
91	92	1
115	116	1
140	141	1
73	90	2
49	56	1
82	83	1
75	76	1
62	63	1
52	60	3
66	69	1
86	86	1
84	84	1
101	102	1
136	136	1
80	80	1
39	41	1
56	65	1
69	77	1
126	126	5
0	0	3
80	85	1
128	129	1
47	47	1
118	139	1
114	114	2
107	133	1
91	94	1
87	87	1
30	30	1
99	125	1
129	129	2
53	53	2
11	11	2
71	72	1
104	105	1
77	111	1
116	116	1
51	52	1
22	22	1
77	79	1
58	60	1
75	77	1
112	136	1
82	82	1
30	38	1
22	27	1
48	49	1
117	117	1
113	114	1
4	4	1
13	14	1
113	113	1
60	131	1
13	13	1
58	59	1
104	109	1
114	115	1
131	139	1
38	38	1
108	108	1
98	99	1
142	143	1
91	106	1
117	141	1
