159	160	1
177	177	4
159	159	2
96	96	1
64	64	5
100	100	3
120	120	2
161	161	3
43	44	1
121	121	2
200	200	1
209	210	2
206	206	3
172	238	1
33	184	1
0	0	2
25	25	3
140	141	2
195	213	2
39	43	1
19	21	1
43	43	1
171	171	3
136	136	3
47	54	1
59	59	1
104	105	2
122	122	2
124	125	1
221	224	1
207	207	2
220	220	2
14	15	1
1	1	5
42	55	2
69	69	1
229	229	1
218	218	2
162	162	2
174	174	2
132	136	1
163	166	2
135	135	2
155	155	2
164	164	5
98	98	2
23	136	1
138	138	1
197	198	1
102	102	1
28	28	2
158	158	2
163	181	1
163	165	1
136	198	1
99	99	1
229	230	1
2	19	1
186	186	3
69	73	1
137	138	3
63	63	1
166	166	1
141	141	1
56	56	2
179	185	1
160	160	2
71	114	1
180	180	3
7	7	3
231	232	1
42	54	2
103	106	1
134	134	1
32	33	2
67	67	1
16	16	4
3	3	2
20	20	1
73	73	2
12	12	2
103	105	1
126	127	1
21	21	1
150	150	1
123	123	1
175	175	1
184	184	1
47	47	3
193	195	2
144	144	3
24	240	2
185	185	4
55	55	1
226	227	2
169	170	3
196	197	2
156	157	1
63	64	2
174	237	2
75	75	3
62	62	2
139	143	1
227	228	1
57	57	2
238	238	2
117	118	2
42	42	1
186	187	1
55	62	1
199	200	1
35	36	1
134	150	1
120	172	1
144	146	2
155	183	1
178	178	2
181	182	1
72	72	2
165	165	1
198	198	2
83	83	2
71	71	1
147	148	1
151	151	1
26	239	1
208	213	1
10	11	1
149	150	3
224	224	2
40	41	1
129	129	3
180	181	2
159	167	1
181	198	1
76	78	1
10	10	1
68	178	3
104	104	3
195	195	2
197	197	1
103	103	1
179	179	3
235	235	1
50	50	3
9	30	1
236	237	1
13	13	1
26	27	1
9	9	1
8	101	2
74	74	2
66	66	2
31	31	1
46	46	2
88	88	2
112	112	1
108	108	1
152	152	2
234	234	2
33	34	1
38	235	1
98	100	1
162	182	2
39	65	1
48	54	1
11	234	1
156	156	3
1	4	1
78	80	1
216	217	1
15	15	3
36	36	1
45	45	1
19	20	2
132	132	1
0	15	1
148	148	2
56	59	1
219	219	2
173	173	3
204	211	1
239	239	1
80	80	2
82	82	1
192	192	3
84	84	2
54	80	1
130	130	1
68	79	1
201	202	1
188	188	2
126	126	1
198	203	1
180	210	1
207	213	2
73	84	1
171	172	1
225	225	1
122	127	1
40	40	1
53	53	4
228	229	1
41	66	1
125	125	1
167	167	1
127	127	1
183	183	1
89	100	1
36	159	1
154	154	1
113	114	1
220	235	2
119	119	1
132	134	1
100	113	1
123	167	1
84	85	1
241	241	2
138	139	1
85	85	1
185	186	1
23	23	1
208	208	1
111	111	1
221	221	1
19	19	1
1	108	1
196	196	1
33	33	1
66	68	2
101	101	1
29	29	1
209	209	2
60	63	1
114	115	1
194	194	1
150	151	1
190	190	2
2	2	3
115	117	1
196	204	1
152	153	1
39	232	1
210	211	1
110	110	1
133	134	1
106	109	1
211	212	1
68	78	1
41	41	1
61	62	1
142	143	1
212	212	2
117	117	1
176	176	1
113	113	1
38	38	2
205	206	1
193	193	1
54	55	1
232	233	1
165	166	1
64	203	1
58	146	1
88	97	1
109	109	1
71	72	1
58	177	1
179	180	1
6	14	1
222	223	1
237	237	1
27	27	1
54	54	2
223	223	2
48	49	1
65	70	1
39	39	1
215	215	1
34	51	1
225	226	1
176	178	1
68	68	1
224	230	2
26	241	1
168	168	1
29	236	1
61	61	1
211	211	1
17	17	1
230	232	1
146	146	1
11	20	1
204	204	1
74	136	1
235	237	1
21	22	1
46	47	1
137	137	1
32	32	1
6	6	1
107	107	1
228	230	1
133	133	1
210	210	1
142	142	1
152	167	1
143	144	1
211	213	1
191	191	1
86	86	1
236	236	1
65	65	1
196	206	1
