98	98	2
6	6	3
27	27	1
77	78	3
5	84	1
62	62	1
97	97	2
116	116	1
45	45	1
91	92	2
138	170	2
73	110	1
4	4	1
183	183	5
13	13	1
74	74	5
122	122	1
55	55	1
18	36	2
149	149	1
106	107	1
24	24	7
154	154	4
151	151	1
30	45	2
124	157	3
82	82	2
129	129	3
53	53	3
100	113	1
122	133	1
73	74	2
48	48	1
98	112	1
143	143	3
125	125	1
131	131	2
182	183	1
173	174	1
189	190	4
114	130	1
38	38	2
16	23	1
35	35	1
179	179	2
133	134	1
37	37	1
152	152	2
184	184	1
100	101	2
12	13	1
167	169	1
6	7	3
46	46	2
130	133	1
87	87	2
61	61	1
72	72	2
20	20	2
107	141	1
5	164	1
60	60	1
106	106	3
10	41	1
8	8	2
96	96	3
10	12	2
156	156	3
163	163	1
144	144	3
25	25	3
129	132	1
168	168	3
134	165	1
114	114	3
131	132	2
179	189	1
123	153	1
59	59	1
90	91	1
11	11	1
28	28	1
33	33	2
17	17	3
180	181	1
132	134	2
171	172	1
2	3	1
115	115	2
25	26	3
183	184	2
128	174	1
73	73	1
177	179	1
26	26	5
135	136	1
68	68	2
18	18	1
110	110	1
84	84	4
188	188	2
177	178	1
150	150	1
39	39	2
108	108	1
134	142	1
29	34	1
88	88	5
103	103	1
168	170	1
126	126	3
155	155	2
73	125	1
153	153	1
52	52	1
178	178	1
7	7	2
67	67	1
158	159	1
12	14	1
81	81	3
57	57	3
57	78	1
41	44	1
105	106	1
58	61	2
28	29	1
54	55	2
89	132	1
15	15	4
128	128	1
124	124	1
100	100	1
29	29	2
10	39	1
82	83	1
148	148	2
55	58	1
109	109	2
173	173	1
32	101	1
182	182	1
171	173	2
14	14	3
41	42	1
141	147	1
66	66	1
13	81	1
124	125	1
169	188	1
155	170	1
183	188	1
23	24	1
78	78	1
85	85	1
5	5	1
2	2	1
40	40	1
41	41	1
39	62	1
17	20	1
102	108	1
160	160	1
42	43	1
87	88	1
12	12	1
124	170	1
175	176	1
161	163	1
141	141	1
101	102	2
137	138	1
36	37	1
172	172	1
176	176	1
74	75	1
13	15	1
190	190	1
31	45	1
123	123	1
167	167	1
5	153	1
134	134	1
154	155	1
30	33	2
95	143	1
61	62	1
121	134	1
0	1	1
148	150	1
36	39	1
129	131	1
69	71	1
43	44	1
56	57	1
64	65	1
189	189	1
127	127	1
