86	92	2
92	92	10
32	32	3
67	67	10
60	60	9
42	42	9
82	83	1
35	35	9
40	40	13
68	68	9
57	57	9
69	71	1
86	86	9
50	50	5
79	79	11
44	57	2
77	77	12
64	64	7
88	88	10
46	46	3
93	102	2
56	56	5
59	59	5
76	76	1
45	48	1
35	36	1
45	45	6
79	81	1
66	66	11
101	101	6
29	29	7
46	48	1
91	91	14
41	41	11
65	66	4
82	82	5
36	37	2
93	93	4
28	28	3
25	27	1
24	24	2
35	52	1
40	45	1
49	49	5
98	98	4
80	80	12
48	48	8
87	87	6
58	58	7
43	43	8
53	98	3
95	99	1
83	83	4
28	29	1
90	91	3
63	63	7
71	71	1
81	89	1
94	94	5
96	96	9
29	31	2
36	36	4
86	87	2
91	92	3
73	73	8
27	27	10
54	54	3
81	81	11
75	75	9
44	90	1
33	33	11
99	99	5
62	63	1
53	54	3
44	44	3
81	102	1
62	62	2
46	47	3
54	55	6
24	54	1
26	26	4
94	98	2
65	65	7
72	92	1
23	34	1
84	84	4
68	69	2
48	49	4
90	90	3
100	101	2
69	69	8
80	92	3
97	97	5
52	52	8
78	78	5
39	56	1
67	68	1
47	48	2
63	65	1
83	84	1
96	98	2
39	51	1
55	63	2
100	100	5
46	59	1
97	99	1
74	74	9
79	80	5
95	95	6
70	70	5
95	97	1
28	43	1
38	40	1
30	57	1
40	56	1
88	93	1
51	51	6
75	76	1
57	76	1
69	70	1
71	72	2
69	81	1
53	53	8
36	38	3
72	72	9
95	98	1
82	101	1
31	58	1
74	75	1
55	55	6
86	100	1
59	60	2
39	39	5
102	102	1
89	89	9
72	96	1
73	74	1
31	31	4
48	50	2
34	34	4
96	100	2
70	88	1
61	61	4
55	56	1
46	56	1
22	22	4
55	85	1
42	43	1
35	38	1
88	89	2
58	59	1
66	67	2
92	93	1
77	80	2
75	79	1
72	73	1
25	26	1
85	86	1
27	29	1
58	60	1
29	59	1
85	85	6
60	61	2
55	76	1
36	86	1
80	81	2
71	73	1
28	45	1
20	55	1
37	37	3
55	58	1
73	91	1
22	47	2
88	100	2
31	33	1
63	66	1
38	38	3
78	81	1
49	50	2
34	90	1
40	41	1
70	89	1
21	22	1
97	98	2
95	96	1
93	96	2
64	74	1
28	34	1
88	101	1
26	46	1
26	27	1
76	77	2
45	98	1
84	88	1
91	99	1
76	92	1
50	95	1
37	55	1
99	100	1
46	53	1
88	90	1
101	102	1
34	35	1
23	25	1
25	40	1
57	75	1
96	97	1
98	99	2
63	64	1
71	98	1
39	40	1
48	54	1
47	47	1
20	21	1
25	25	2
77	78	1
28	38	1
28	50	1
20	22	1
64	65	1
65	67	1
93	95	1
62	67	1
89	99	1
37	52	1
44	45	1
