109	109	3
227	228	2
172	172	7
181	181	7
51	51	3
111	112	2
43	43	1
95	95	5
216	216	4
93	109	2
183	183	5
237	237	4
5	5	5
224	224	6
210	210	5
234	234	3
61	61	3
227	227	6
90	110	2
23	23	7
114	114	10
61	69	1
175	178	1
177	188	2
20	20	6
208	236	1
169	172	1
90	90	1
221	221	6
223	223	6
96	96	4
48	48	3
205	205	7
28	29	2
157	158	1
174	174	4
109	117	1
44	44	13
36	36	9
31	31	3
213	214	3
68	68	4
115	115	5
18	18	2
12	12	3
86	88	3
202	202	3
190	190	1
64	246	1
178	179	1
240	245	1
30	30	8
54	54	5
172	245	1
74	82	3
163	163	4
221	236	1
110	110	6
59	59	5
193	193	4
68	69	1
51	52	4
40	52	1
169	169	3
2	5	2
82	107	1
175	175	8
57	57	3
166	166	5
215	216	3
91	91	2
98	103	1
172	174	3
26	26	4
55	61	1
153	153	2
165	165	5
195	195	4
229	230	2
41	41	4
32	34	2
88	88	5
48	50	1
63	64	1
207	246	1
218	220	1
4	4	2
11	11	5
187	187	4
93	161	1
1	1	4
32	32	6
239	239	2
210	222	1
200	226	1
98	98	7
175	207	1
18	20	1
7	7	4
69	69	5
112	117	1
50	50	3
49	49	5
88	89	3
207	207	3
75	77	1
187	221	2
185	185	4
53	53	2
232	232	5
67	67	2
39	39	5
33	33	5
47	47	3
235	235	3
111	111	3
178	178	6
114	115	1
38	38	6
189	189	3
203	203	4
24	24	10
222	222	5
116	117	1
64	66	1
25	25	6
44	45	1
213	213	3
89	89	2
100	101	2
238	240	3
167	167	3
76	76	7
226	226	7
201	201	4
78	78	2
8	218	1
199	219	1
106	106	2
233	244	1
221	222	3
32	33	1
161	161	1
14	37	2
225	231	1
99	99	7
58	58	6
214	214	7
189	193	2
9	51	1
6	6	1
182	182	5
58	80	1
155	155	5
150	150	5
157	183	1
77	79	2
57	169	2
93	93	2
233	236	2
14	14	8
187	189	1
36	113	1
154	156	3
168	168	3
113	113	4
206	206	3
199	200	3
152	152	2
218	222	1
25	28	1
28	28	3
164	164	4
84	84	3
45	45	4
179	179	3
159	160	1
55	55	4
83	83	2
46	62	1
30	31	1
180	195	1
62	63	1
154	154	8
15	54	1
208	208	2
177	177	3
229	229	1
177	187	1
175	176	4
209	209	4
48	49	2
214	219	1
96	97	3
112	112	5
52	114	1
72	75	2
160	160	5
16	16	3
183	184	1
75	75	4
162	162	2
167	176	1
199	199	6
187	188	3
185	186	1
104	104	4
6	224	1
43	153	1
236	237	1
218	218	2
2	2	2
240	240	8
118	118	4
7	67	1
34	73	2
34	34	7
156	156	7
209	210	1
104	108	1
7	112	1
237	240	1
209	246	1
211	211	4
193	200	1
206	207	1
230	230	3
61	76	1
215	215	5
212	213	3
40	41	1
162	178	1
170	170	2
82	82	2
27	27	3
157	157	2
17	18	1
110	111	1
163	191	1
179	223	1
95	164	3
195	197	1
180	235	2
184	184	4
159	174	1
244	244	3
218	240	1
115	116	1
17	17	2
22	22	5
230	232	1
189	190	1
21	21	4
242	243	2
228	228	3
35	36	1
9	9	3
160	175	1
56	62	1
146	147	2
243	243	3
150	157	1
37	37	2
100	100	3
19	20	1
105	106	1
186	234	1
9	25	1
50	243	1
15	16	2
60	60	3
102	120	1
186	187	2
200	200	1
40	40	2
191	191	3
16	47	1
172	173	4
170	193	3
55	191	2
167	172	1
42	42	3
231	231	2
42	43	1
35	35	5
188	188	1
176	176	8
33	202	1
66	66	4
211	220	1
146	149	1
71	155	1
248	248	1
146	146	1
48	107	1
211	212	1
192	195	1
52	52	4
201	205	1
26	27	1
247	248	4
113	114	2
158	158	2
94	94	2
210	213	1
116	161	3
11	15	1
15	15	4
78	79	1
34	35	4
72	72	3
48	65	1
226	227	1
7	8	1
57	60	1
70	71	1
48	95	1
92	182	1
19	42	1
170	171	1
247	247	4
239	240	1
42	48	1
19	21	2
49	50	2
196	196	2
173	179	1
204	204	8
73	73	1
112	113	1
51	54	1
217	222	3
225	235	1
24	25	1
41	46	1
215	217	1
233	233	3
151	153	1
107	107	1
168	169	2
174	188	1
65	244	1
240	241	2
199	239	1
8	207	1
174	185	1
77	77	2
54	59	2
211	216	1
212	229	1
162	163	1
56	56	2
10	63	1
52	53	1
105	105	2
35	70	1
92	156	1
166	202	1
167	189	1
195	196	2
94	95	2
115	181	1
29	29	2
245	246	1
64	64	1
225	229	2
82	83	3
28	31	2
231	232	1
110	147	1
192	192	1
171	209	1
44	51	1
245	245	1
55	223	1
67	68	1
234	244	1
104	106	1
151	151	1
150	221	1
37	38	1
222	223	1
23	24	2
175	181	1
96	99	1
65	68	1
31	47	1
249	249	1
150	155	2
6	7	3
238	239	1
3	3	3
48	76	1
231	236	2
169	171	1
242	242	1
41	42	1
90	115	1
59	247	1
71	72	1
6	54	1
147	147	1
237	238	1
92	118	1
188	190	2
145	145	2
86	86	2
219	219	1
230	231	3
215	231	1
184	203	1
60	105	1
232	233	1
158	159	2
7	226	1
10	10	2
19	19	3
220	220	4
55	56	2
205	236	1
63	203	1
214	222	1
8	9	1
41	45	1
108	108	1
162	164	1
163	164	1
66	231	1
60	61	1
198	231	1
79	102	1
219	220	1
190	191	3
2	3	1
209	221	1
193	194	2
150	151	1
30	33	1
214	246	1
12	15	2
152	153	1
76	77	1
52	54	1
194	197	1
246	246	1
43	80	1
90	91	1
106	108	1
217	217	3
10	11	1
35	42	1
49	83	1
109	164	1
171	171	1
87	88	1
2	4	1
152	171	1
157	184	1
81	83	1
170	183	1
10	15	1
188	189	1
102	102	2
105	107	1
46	46	1
2	229	1
81	81	1
201	202	1
212	212	1
57	58	1
214	215	1
241	241	1
239	243	1
80	82	1
234	235	1
86	87	1
218	219	1
156	157	1
11	227	1
210	238	1
36	66	1
180	180	1
104	110	1
48	77	1
116	116	1
191	192	1
198	199	1
237	239	1
164	166	1
102	105	1
224	226	1
