169	169	4
153	160	2
98	102	1
7	8	1
2	40	1
155	155	2
137	137	3
122	123	1
17	18	2
102	102	2
121	121	6
39	39	3
95	95	3
47	72	2
143	177	3
14	22	1
4	4	1
177	177	4
48	84	2
26	26	1
115	156	1
138	138	2
0	0	1
150	150	3
146	146	1
69	96	1
71	74	1
17	78	2
48	48	1
189	189	1
110	110	2
41	41	2
38	38	3
16	16	1
71	75	1
2	2	1
103	106	1
10	10	5
40	41	1
176	176	3
79	79	2
177	180	1
14	17	1
58	58	2
25	55	1
100	100	3
113	113	1
129	129	2
58	60	1
131	169	1
131	138	1
80	80	1
5	5	3
119	119	2
184	184	3
161	162	2
12	13	1
190	190	1
148	148	2
67	67	2
155	156	2
84	123	2
63	63	1
105	105	2
126	147	1
152	153	2
74	74	1
27	61	1
31	31	2
141	141	3
4	68	1
42	42	3
156	156	2
58	59	1
94	96	1
176	177	1
175	176	1
158	158	3
97	118	1
160	190	1
147	147	1
25	25	5
7	7	2
114	114	2
109	127	1
30	32	1
91	91	2
124	124	2
103	109	1
76	76	1
21	44	2
148	152	1
31	32	2
187	187	1
68	68	2
73	74	1
133	134	1
136	139	1
95	111	2
106	106	1
2	129	1
149	166	3
20	24	1
160	160	1
47	52	1
6	7	2
181	182	1
136	136	2
53	54	2
188	188	2
61	61	2
71	72	4
10	24	1
12	12	2
45	58	1
6	6	2
46	47	1
90	90	1
153	153	2
83	119	1
67	90	1
134	174	1
129	130	1
182	182	1
89	106	1
136	173	1
122	122	1
168	174	1
77	77	2
16	24	1
66	69	1
36	45	1
96	98	1
150	158	1
45	71	1
76	100	1
66	66	1
111	169	1
65	65	1
53	96	1
129	147	1
131	131	1
152	173	1
112	112	2
66	68	1
124	146	1
120	120	1
156	178	1
63	67	1
118	118	1
146	147	1
135	170	3
170	184	1
7	25	1
62	62	1
36	38	1
72	72	1
152	169	1
126	126	1
119	169	1
75	75	1
18	18	2
20	20	1
95	109	1
19	20	1
94	138	1
101	101	1
61	62	1
149	149	1
165	186	1
106	108	1
86	89	2
126	144	1
6	74	1
83	83	1
125	142	1
156	181	2
109	109	1
134	136	1
9	25	1
154	154	1
166	170	1
27	46	2
103	104	1
20	21	1
91	92	1
152	152	1
97	97	1
103	103	1
121	143	1
188	190	1
149	188	1
65	68	1
139	151	1
124	127	1
130	135	1
17	20	1
167	167	1
77	79	2
11	19	1
184	185	1
78	82	1
10	11	1
170	170	1
179	182	1
41	42	1
40	77	1
28	36	1
144	144	1
82	96	1
121	136	1
139	165	1
9	15	1
15	15	1
70	70	1
92	92	1
29	29	1
89	89	1
151	151	1
154	155	1
9	9	1
