182	182	6
32	32	4
140	140	4
56	151	2
0	21	1
127	127	9
161	162	2
26	26	1
19	19	4
116	117	1
120	120	3
128	177	2
41	41	7
27	27	5
100	100	1
71	72	1
9	9	7
128	128	1
170	170	11
43	43	8
77	77	1
170	171	2
47	195	2
196	196	2
60	60	2
48	48	2
112	112	8
20	21	2
113	113	2
66	67	1
42	42	3
177	177	5
51	51	3
38	38	5
155	193	1
136	138	1
35	35	4
89	89	3
2	2	2
52	52	6
45	45	11
46	47	1
6	6	4
197	197	7
102	106	1
162	164	1
176	176	6
39	39	3
122	122	3
159	159	3
44	44	3
163	166	1
1	1	5
30	31	1
185	185	4
67	67	4
114	114	3
72	72	3
1	2	2
143	143	2
148	157	1
55	55	3
23	35	1
5	5	8
53	53	5
10	10	11
71	71	2
16	44	1
3	3	4
21	21	5
103	103	2
13	13	5
144	145	1
164	164	1
8	15	2
106	115	2
33	33	3
187	187	4
102	102	2
150	150	4
11	12	1
23	24	4
147	147	4
194	194	6
15	15	3
36	36	9
121	122	1
160	160	5
20	20	9
126	126	1
162	167	3
119	136	1
4	5	2
189	189	3
41	43	1
174	174	7
123	123	4
62	62	2
108	108	1
64	66	2
156	194	1
24	24	4
4	38	1
56	56	4
69	69	2
76	76	1
37	38	3
162	162	3
104	104	3
73	73	1
51	52	2
167	167	3
28	29	2
63	63	3
135	135	3
179	179	3
173	173	7
139	139	6
161	163	2
196	197	3
115	115	3
18	18	2
16	33	1
187	188	1
134	135	1
29	30	1
57	59	1
188	189	1
9	10	2
30	30	4
160	161	2
171	172	1
125	125	1
94	94	3
29	29	3
145	145	2
154	154	1
35	36	2
133	133	3
16	16	1
47	47	7
124	124	2
60	63	1
5	45	1
17	17	3
195	197	2
101	101	3
171	171	3
37	37	8
163	176	3
181	181	4
178	190	1
82	82	1
155	155	4
7	7	5
34	35	1
17	18	2
9	133	1
48	49	1
28	28	10
0	20	1
49	49	6
136	136	2
64	64	4
110	111	1
40	41	3
180	180	2
186	186	3
137	137	3
94	113	1
172	172	4
38	52	1
59	59	2
74	74	3
109	132	1
191	191	3
193	193	2
85	137	2
45	69	1
175	175	4
0	3	1
28	157	1
134	134	4
32	37	2
8	8	4
46	46	5
158	193	1
139	151	1
58	58	5
149	150	1
25	27	2
18	22	4
65	70	1
164	165	1
18	19	3
16	17	2
24	29	1
68	68	2
113	114	2
61	62	3
129	197	1
127	128	1
11	11	1
40	54	1
41	42	2
39	40	1
19	20	2
119	144	1
148	173	1
93	112	1
82	83	1
84	97	1
116	116	1
4	4	1
152	152	2
71	100	1
2	10	1
166	166	2
124	125	2
5	25	1
5	7	1
102	103	2
190	190	1
107	107	2
184	185	1
33	36	1
7	36	1
74	88	1
14	14	2
95	95	1
12	12	8
133	142	1
156	156	2
98	98	2
151	156	1
122	160	1
50	50	3
110	110	3
167	190	1
116	118	1
20	22	1
165	165	1
25	35	1
119	119	1
141	141	4
26	28	1
130	197	1
54	113	1
45	46	1
130	131	1
25	25	2
167	168	1
181	182	1
174	175	1
29	34	1
131	132	1
79	83	1
0	0	1
44	70	1
85	86	1
60	65	1
9	24	1
190	192	1
25	30	1
188	188	1
179	180	2
22	22	3
194	195	1
165	166	1
103	104	2
185	186	2
99	99	3
12	15	1
184	184	4
8	107	1
144	144	1
34	82	1
182	183	2
108	109	1
118	118	4
126	127	1
146	146	1
183	183	2
34	34	1
11	20	1
141	142	2
153	155	1
2	3	1
35	40	1
89	114	1
26	34	1
106	106	2
80	84	1
157	159	2
40	43	1
118	139	1
9	32	1
153	153	1
76	77	1
176	177	1
8	9	1
87	87	1
35	37	1
25	28	1
41	47	1
73	95	1
39	76	2
132	132	1
94	95	1
53	54	1
20	37	1
138	138	4
22	23	2
23	53	1
8	24	1
22	35	1
11	170	1
81	81	2
14	185	1
6	7	1
149	181	1
173	176	1
16	20	2
17	19	1
88	88	1
93	95	3
14	15	1
36	37	2
110	121	1
195	195	2
44	45	1
56	157	1
100	101	1
98	99	1
50	51	1
175	176	1
38	39	1
169	169	3
58	81	2
78	78	2
143	145	1
141	177	1
162	165	1
112	113	1
5	169	1
122	158	1
129	129	2
11	185	1
168	169	1
146	148	1
13	14	1
148	148	2
122	123	1
16	171	1
113	118	1
57	57	1
79	81	1
99	108	1
158	158	3
32	33	1
192	193	1
161	161	2
117	117	2
36	42	1
105	111	1
7	8	1
16	41	2
43	44	1
178	179	1
4	9	1
178	178	1
33	45	2
172	175	1
90	90	1
70	70	1
75	75	1
189	190	1
160	167	1
37	130	1
96	96	1
31	31	1
151	171	1
178	180	1
38	45	1
33	38	1
146	147	1
121	121	1
173	174	2
151	164	1
154	155	1
86	86	1
40	40	1
10	31	1
11	171	1
