135	135	4
110	110	1
115	122	1
71	71	3
124	143	1
73	80	1
7	7	2
99	99	1
19	19	2
61	62	2
122	122	2
164	167	1
64	64	1
56	56	1
1	1	3
96	109	1
54	88	1
40	43	2
79	82	1
72	72	1
151	151	4
27	27	1
14	14	3
37	38	1
81	82	1
23	23	1
159	160	2
78	78	5
52	68	1
43	43	3
158	159	2
13	13	2
147	147	4
171	171	3
33	42	1
164	165	3
131	150	1
28	33	1
102	102	2
148	148	3
160	160	5
94	94	2
111	123	1
52	52	1
5	36	1
101	106	1
111	145	3
119	119	1
126	126	4
32	32	4
26	26	3
172	172	3
34	45	1
139	139	4
132	132	5
6	7	1
6	6	2
98	98	1
67	67	1
137	137	6
22	28	1
95	95	3
157	178	1
152	152	6
105	113	2
146	167	1
177	177	2
151	154	1
116	116	1
55	76	1
10	13	2
25	25	5
108	108	1
146	146	5
113	113	2
26	35	1
24	37	3
171	180	1
33	35	4
169	169	2
16	16	4
9	9	4
87	87	2
30	31	2
2	2	1
10	10	4
66	67	2
157	177	1
150	150	1
157	157	5
145	145	3
3	15	1
56	57	2
159	159	2
144	144	2
166	166	2
125	125	5
4	7	1
141	141	6
22	24	1
142	142	4
5	5	2
85	98	1
59	88	2
60	66	1
179	180	1
103	111	2
163	167	1
55	55	2
29	31	1
104	111	1
156	156	1
27	28	1
92	104	1
155	155	1
165	166	1
111	111	3
128	130	1
123	123	3
30	30	4
65	78	1
117	117	3
8	22	1
123	124	2
75	75	2
17	17	3
105	106	2
0	8	2
36	36	1
107	107	3
171	173	1
63	85	1
37	37	2
81	81	1
132	148	1
31	31	4
5	6	5
32	33	1
154	170	1
28	31	1
136	136	1
170	170	1
111	113	2
105	105	2
153	169	1
127	128	1
42	42	3
50	50	4
149	149	5
62	62	2
22	23	1
129	154	1
65	66	2
54	54	1
39	41	2
139	140	1
8	82	1
59	60	1
18	19	1
179	179	2
131	132	2
38	38	1
59	59	3
174	175	1
76	77	2
121	121	2
176	176	2
94	114	1
173	173	3
149	151	1
34	34	3
80	80	2
16	17	1
130	146	1
103	103	3
60	84	1
157	168	1
153	153	2
89	91	2
63	84	2
1	32	1
53	53	2
130	142	2
21	21	1
156	157	1
169	170	1
2	4	1
62	91	1
128	128	2
115	156	1
163	164	1
152	153	3
74	74	1
64	66	1
176	177	1
115	116	1
43	44	1
0	0	1
3	3	4
37	44	1
140	172	2
109	109	2
57	91	1
33	33	2
174	174	2
113	124	1
12	13	2
8	18	1
1	2	1
85	88	1
117	118	1
66	72	1
9	10	1
90	94	1
100	100	1
68	73	2
29	45	2
1	8	1
118	118	3
113	114	1
90	91	1
11	45	1
157	158	2
152	154	2
63	102	1
84	84	1
161	161	1
90	112	3
12	12	1
153	163	1
168	168	2
7	14	1
83	86	1
162	170	1
177	179	1
96	96	2
79	80	1
39	39	2
57	59	1
60	61	2
60	60	1
149	177	1
87	100	1
152	161	1
110	117	1
65	65	1
127	127	3
106	128	1
61	61	1
144	157	1
63	63	2
143	143	3
11	31	1
43	45	1
104	104	1
26	28	1
26	27	1
108	124	1
93	112	1
24	24	1
44	44	1
38	39	1
11	12	2
73	74	1
143	145	1
12	15	1
52	58	1
177	178	1
14	15	1
3	8	1
59	68	1
54	64	1
83	100	1
127	141	1
132	142	1
178	178	1
49	50	1
162	167	2
74	76	1
103	108	1
163	163	1
17	18	1
27	32	1
86	93	1
101	101	2
113	115	1
158	158	1
51	51	1
86	107	1
87	94	1
50	51	1
103	110	1
77	77	1
6	52	1
10	11	1
85	85	1
28	28	1
107	114	1
112	112	1
24	25	1
15	15	1
63	64	1
45	45	3
34	36	1
159	172	1
53	81	1
72	125	1
66	85	1
82	110	1
76	76	1
92	92	1
145	154	1
84	85	1
134	134	1
35	35	1
41	41	1
73	73	1
147	149	1
30	57	1
175	175	1
8	9	1
41	42	1
116	117	1
118	119	1
15	59	1
13	28	1
2	14	1
8	8	1
55	56	1
57	57	1
39	42	1
161	166	1
90	90	1
4	5	1
91	91	1
32	34	1
57	77	1
154	174	1
