118	119	4
10	10	8
97	97	7
87	87	2
21	21	7
17	17	2
77	78	1
50	50	3
30	38	1
49	49	3
132	134	3
135	135	4
118	136	1
129	129	5
109	109	5
100	101	2
71	71	7
79	79	4
71	75	1
143	143	6
69	86	2
63	64	1
95	95	8
111	131	1
140	141	2
135	140	1
90	92	1
145	145	5
87	90	2
133	133	4
26	26	7
36	38	1
3	23	2
9	38	1
118	118	4
89	89	3
136	141	1
13	13	6
68	68	3
31	32	7
15	15	9
113	140	2
18	18	8
39	39	2
71	145	1
121	121	4
49	50	4
56	57	2
3	4	1
111	111	4
20	40	1
49	51	2
29	29	10
71	73	1
91	95	2
95	96	1
132	139	1
38	39	2
42	42	6
135	137	3
131	132	1
130	130	1
130	140	1
101	101	4
96	96	5
113	113	4
112	112	4
77	77	2
120	120	3
110	110	3
30	30	6
142	146	1
134	137	2
104	107	1
8	8	6
123	123	12
97	98	1
120	124	1
94	94	7
80	83	1
66	66	5
11	11	9
99	99	7
22	25	3
118	129	1
75	80	1
28	28	8
144	144	8
37	71	2
50	52	2
100	100	2
75	75	7
13	16	2
60	62	2
131	131	3
2	2	3
57	58	2
84	84	4
82	85	2
117	130	1
119	119	6
92	93	3
17	19	1
115	115	3
25	25	8
64	65	3
12	12	2
57	57	2
41	41	5
0	53	1
104	110	1
117	122	1
128	129	4
108	111	1
103	103	4
131	133	1
37	37	3
110	116	1
140	140	7
58	58	4
40	41	1
47	47	1
129	132	2
91	91	3
139	139	5
138	139	1
58	70	1
27	27	10
87	101	1
67	126	1
0	2	2
99	101	1
62	63	4
115	116	3
19	19	7
33	38	1
124	124	4
126	126	3
88	120	1
74	74	7
122	122	2
40	87	1
1	1	5
24	24	4
12	18	1
48	48	3
34	36	4
127	132	1
133	136	1
31	31	5
142	142	7
70	70	3
107	107	5
80	80	3
34	37	1
87	88	1
5	71	2
9	17	1
90	90	2
143	144	3
83	117	1
94	95	1
87	89	1
16	17	1
0	22	3
38	38	3
23	23	6
61	61	4
102	102	3
18	42	1
115	132	1
86	95	1
117	117	2
124	125	3
114	114	4
63	63	5
14	66	1
2	30	1
115	131	1
108	132	2
105	105	2
85	85	1
22	48	1
41	42	3
128	130	4
84	87	2
107	108	2
90	91	2
104	104	2
51	52	2
133	137	1
3	3	3
117	120	1
137	137	2
60	60	3
133	134	1
62	62	5
2	3	1
95	97	1
98	98	4
11	27	1
52	52	2
4	5	3
22	22	5
111	116	1
93	94	3
20	20	3
14	14	4
73	73	3
121	135	1
141	143	1
127	128	1
112	118	1
74	81	1
103	109	1
139	140	2
83	85	1
60	64	2
67	67	5
32	32	2
106	107	1
9	12	1
59	60	1
125	125	2
123	126	1
64	66	2
43	73	1
6	6	1
43	74	1
43	43	2
0	1	1
1	5	1
64	64	3
32	33	4
106	106	3
126	127	2
19	20	1
58	71	1
82	106	1
4	4	5
75	76	2
96	97	1
67	68	4
130	134	1
5	5	2
98	105	1
56	56	3
116	116	1
109	110	2
117	118	1
80	114	1
30	54	1
34	34	2
55	56	1
9	103	1
81	108	1
15	56	1
133	135	1
57	87	1
8	22	1
20	21	1
46	47	1
3	6	2
17	23	1
76	93	2
128	128	4
113	115	2
59	68	1
144	146	1
18	19	1
55	55	1
103	125	1
115	122	1
130	131	1
104	105	1
32	34	1
15	16	2
108	131	1
129	133	1
76	107	1
51	51	1
134	134	4
136	136	6
103	106	1
40	40	3
0	54	1
81	82	1
16	16	5
83	83	3
20	22	1
17	18	1
69	69	4
36	36	2
76	77	1
74	106	2
141	141	3
108	141	1
110	124	1
127	127	1
99	115	2
17	39	1
88	88	2
26	27	2
92	129	1
58	67	1
116	117	2
35	35	1
70	72	1
33	33	1
120	126	1
21	22	2
50	54	1
0	6	2
133	138	2
20	25	1
73	104	1
15	24	1
78	78	1
23	28	1
137	138	1
138	138	3
82	82	2
87	133	1
53	53	1
11	22	1
146	146	1
57	83	2
50	66	2
61	97	1
106	117	1
120	127	1
21	25	3
23	25	1
69	77	1
118	120	1
74	104	1
93	93	1
81	116	1
125	128	1
92	92	3
131	143	1
63	66	1
87	108	1
81	87	1
114	119	3
32	62	1
76	76	2
74	102	1
134	135	1
102	105	1
126	133	1
75	108	1
91	92	2
54	55	1
142	143	1
98	99	1
23	24	1
107	109	1
75	78	1
55	59	3
63	83	1
114	115	3
107	131	1
141	146	2
84	85	2
81	81	2
132	132	1
113	114	1
72	72	1
130	133	1
132	133	1
102	103	2
71	72	1
37	38	1
48	66	1
23	26	1
86	86	1
59	59	1
61	77	1
92	94	1
55	70	1
54	54	1
106	108	1
86	106	1
9	9	1
110	111	1
67	69	1
103	104	1
80	86	1
114	141	1
56	94	1
135	136	1
13	40	1
96	123	1
55	129	1
119	121	1
72	73	1
53	55	1
100	110	1
86	87	1
56	86	1
6	22	1
129	138	1
49	81	1
33	107	1
41	64	1
120	121	1
4	23	1
30	86	1
59	81	1
109	133	1
63	77	1
0	0	1
87	93	1
0	11	1
23	47	1
52	61	1
49	107	1
34	35	1
39	53	1
101	102	1
23	58	1
25	26	1
65	65	1
8	9	1
10	34	1
93	131	1
