112	114	1
62	62	1
3	4	1
123	123	2
62	63	2
34	35	3
127	129	1
21	53	1
34	34	5
119	120	1
63	77	1
7	22	2
117	117	2
92	108	1
68	68	2
42	42	1
112	130	3
7	8	3
53	90	1
118	118	1
52	103	1
86	86	3
97	98	4
82	82	4
93	94	2
132	132	1
30	31	1
53	53	2
119	119	2
24	24	2
35	35	2
115	115	2
59	59	1
52	52	2
21	21	3
35	36	1
32	32	3
105	111	1
127	131	1
70	70	2
6	6	2
80	80	5
78	78	5
31	31	2
5	28	1
3	5	1
126	126	1
76	76	6
120	121	1
124	126	1
14	14	1
79	80	2
49	50	2
120	127	1
90	90	1
55	56	1
96	96	1
12	12	1
84	85	1
64	65	1
36	54	1
43	43	2
66	68	1
25	27	1
116	116	1
79	79	5
63	63	1
102	102	3
113	114	1
13	14	1
54	54	1
30	114	1
2	2	1
1	1	2
89	92	1
5	6	1
74	75	1
77	78	2
60	60	1
50	50	5
18	22	2
104	105	1
49	49	2
31	32	1
31	33	1
61	62	2
107	110	1
111	111	1
110	110	2
133	133	4
84	84	4
60	61	1
59	65	1
69	69	2
70	71	1
121	121	2
53	55	3
64	64	3
73	73	8
57	58	1
106	110	1
29	29	4
125	126	1
27	28	1
128	129	1
69	70	3
87	87	5
132	133	2
124	125	2
112	112	4
45	45	1
67	67	3
25	87	2
3	13	1
100	100	3
109	110	1
75	75	3
25	86	1
76	98	2
128	128	1
19	34	1
57	57	1
135	135	1
9	9	1
36	59	1
94	94	3
72	72	2
4	26	1
105	105	1
111	112	1
101	101	1
33	33	2
24	27	1
58	62	1
33	45	1
25	25	3
74	74	3
3	73	1
18	25	1
6	88	1
5	5	2
16	16	1
47	61	1
16	24	1
86	87	2
65	65	2
127	127	2
26	26	2
75	76	1
97	97	1
30	30	1
44	69	1
120	120	1
19	19	1
124	124	2
15	16	1
43	76	1
134	135	1
77	77	1
88	88	2
0	0	3
99	99	1
44	44	1
129	129	1
103	105	1
62	75	1
109	109	1
5	7	1
89	89	1
25	26	1
71	71	1
23	23	1
130	131	1
46	101	1
54	55	2
116	119	1
15	15	2
24	25	1
103	103	1
95	95	1
20	20	1
113	113	1
70	80	1
58	58	2
62	76	1
70	105	1
90	92	1
71	72	1
28	96	1
9	10	1
54	57	1
4	4	1
125	125	1
53	54	1
