64	65	2
9	22	1
213	213	3
84	84	3
248	248	6
236	245	1
198	199	2
40	40	5
44	46	1
189	189	4
232	232	5
27	27	10
43	43	7
215	215	5
5	5	5
178	179	1
31	31	6
32	32	7
33	33	3
200	200	6
48	48	5
233	233	3
172	213	1
12	12	4
165	166	4
56	57	2
23	23	5
115	117	1
69	74	1
94	94	5
246	246	2
102	106	1
73	78	2
150	151	1
190	192	1
209	209	5
224	224	3
231	231	4
56	56	1
17	17	2
47	47	2
210	211	3
220	233	1
208	209	5
43	65	1
237	237	6
154	154	4
244	245	1
22	22	9
205	205	5
226	226	3
238	240	2
173	173	4
32	33	3
241	241	4
108	108	3
38	38	3
102	102	1
16	16	8
10	51	1
116	116	8
84	94	2
28	28	8
210	210	4
218	219	1
119	119	3
9	9	12
171	171	3
52	92	1
162	162	5
112	112	6
2	2	7
73	75	2
214	215	2
197	197	2
91	91	5
172	172	3
230	230	1
222	222	5
72	72	1
219	219	2
78	78	6
84	85	1
85	108	1
179	179	7
244	244	6
4	4	7
236	237	1
204	204	8
67	67	4
156	156	4
14	14	6
55	55	5
62	63	2
53	53	3
151	151	4
229	229	5
222	248	1
107	107	2
203	203	6
58	58	3
92	98	1
212	212	10
193	193	3
241	244	1
44	44	7
18	18	7
223	223	5
65	65	3
91	92	1
34	35	2
60	60	4
58	61	2
119	120	1
189	190	3
236	236	5
247	247	8
199	242	1
235	235	4
243	243	3
110	110	4
187	189	4
10	10	4
182	182	6
79	81	1
40	41	2
38	39	4
159	204	1
157	157	8
152	152	3
61	61	2
210	213	1
29	30	4
57	57	5
93	94	1
168	168	6
80	81	2
112	114	2
155	155	7
216	216	2
113	113	8
234	234	10
184	184	5
94	95	2
29	100	1
207	207	4
208	208	7
152	153	1
98	101	1
204	205	4
105	106	3
106	106	6
243	244	2
199	199	6
110	111	4
249	249	1
165	165	6
117	117	4
6	6	5
211	212	5
163	217	1
175	176	2
24	24	3
201	201	8
72	75	2
93	93	3
23	37	2
120	120	2
33	34	2
224	228	1
25	26	1
114	115	1
150	152	2
26	26	4
57	58	2
57	60	1
111	111	4
181	181	3
217	217	3
191	191	3
108	109	1
35	35	6
175	175	7
6	31	1
197	198	5
227	234	1
113	114	1
98	98	6
94	234	1
195	195	2
202	212	2
29	29	9
75	166	1
90	90	4
157	159	4
28	29	2
67	68	1
104	104	2
173	182	1
225	227	1
51	52	4
194	194	4
188	209	2
56	119	1
163	164	2
45	45	5
62	62	1
232	238	3
107	108	1
158	158	5
13	13	1
170	171	1
229	230	3
232	233	2
153	159	1
172	173	1
100	100	1
102	117	1
225	225	2
19	19	6
115	119	1
20	20	8
214	214	8
47	48	1
185	185	3
149	152	1
170	170	3
42	42	3
1	1	4
218	218	4
238	238	2
156	157	2
212	213	1
227	227	3
239	239	2
18	19	1
67	71	1
184	185	2
35	164	2
86	86	2
181	183	1
96	97	1
195	197	1
70	70	4
164	248	1
223	224	2
206	207	1
16	17	1
168	175	2
183	184	2
41	42	3
156	160	1
184	208	1
53	54	3
245	245	3
89	166	2
109	109	3
37	37	3
173	174	1
66	66	2
6	10	1
188	190	1
171	197	1
161	161	3
160	160	2
200	210	1
51	51	4
75	75	1
42	112	1
213	219	1
202	202	7
8	8	3
198	207	1
34	34	4
221	221	3
99	99	2
91	189	1
54	54	1
36	36	6
169	169	3
97	101	1
177	177	5
117	118	1
101	101	5
80	80	1
220	220	4
218	247	1
198	200	1
3	4	1
156	159	1
183	183	3
19	22	2
92	92	2
219	241	1
89	89	3
12	36	1
217	218	2
59	59	1
83	83	4
232	234	1
207	208	1
46	46	1
164	164	4
60	62	1
11	12	1
95	96	1
96	99	3
37	38	1
72	76	1
107	109	1
171	187	1
206	206	6
11	11	3
35	36	1
19	20	1
163	163	3
12	13	1
65	66	1
39	40	2
85	86	2
50	59	1
49	49	5
203	205	1
227	229	1
27	28	2
153	153	6
1	58	1
21	22	4
105	105	2
165	167	1
176	176	8
192	192	6
69	69	2
28	36	2
46	93	2
44	45	2
179	180	1
224	225	2
180	235	2
91	188	1
95	97	1
187	188	1
96	96	2
159	160	2
145	147	1
159	159	3
21	21	2
88	89	2
68	68	4
66	67	2
177	178	2
70	101	1
86	101	1
97	97	2
196	202	1
178	214	1
202	203	3
15	15	2
219	220	2
179	200	2
164	166	1
71	71	5
75	76	3
3	5	1
60	61	1
181	204	1
146	146	2
4	5	2
247	248	1
242	242	5
233	247	1
28	34	1
19	42	1
3	3	1
211	213	1
103	118	1
25	25	2
106	107	1
187	187	3
242	243	2
243	247	2
48	49	1
69	71	2
58	162	1
240	240	1
92	101	1
27	43	1
162	163	1
23	27	1
201	202	2
221	222	1
198	198	1
59	60	1
0	21	1
151	152	1
215	236	1
79	80	2
247	249	1
166	166	1
23	32	1
70	85	1
39	156	2
176	185	1
169	171	2
114	114	2
167	168	2
118	118	2
190	190	3
150	213	1
227	228	1
42	158	1
28	30	1
231	232	1
30	30	3
84	87	1
192	219	1
103	103	1
239	240	2
26	27	2
88	88	2
184	213	1
57	115	1
55	172	1
25	43	1
171	172	1
54	57	1
222	223	1
0	0	2
95	99	1
95	95	2
210	217	1
198	224	1
100	166	1
215	231	1
10	37	1
88	95	2
223	231	1
64	64	1
166	168	1
46	47	1
2	6	1
233	236	1
192	193	1
160	161	1
86	87	2
146	147	1
15	16	1
200	201	2
159	203	1
46	211	1
115	115	2
76	76	1
182	200	1
201	207	1
78	79	1
112	113	1
239	241	1
68	91	1
67	70	1
85	85	1
57	71	1
233	234	2
89	90	1
189	191	1
171	174	1
87	87	1
12	14	1
54	67	1
188	188	2
25	226	1
81	82	2
82	83	1
90	93	1
26	63	1
113	115	1
92	97	1
71	76	1
75	92	1
163	165	1
49	50	1
181	225	1
196	196	2
5	7	1
164	165	2
27	112	1
10	120	1
111	121	1
7	7	1
77	77	1
61	62	1
213	214	1
155	156	1
52	53	1
44	65	1
43	44	1
30	89	1
63	63	3
170	172	1
221	240	1
90	91	1
145	145	1
199	208	1
48	70	1
41	92	1
228	228	1
14	15	1
71	74	1
50	51	1
10	75	1
50	50	1
219	237	1
41	41	1
214	236	1
77	192	1
33	35	1
92	191	1
11	156	1
173	178	1
30	31	1
109	110	1
22	24	1
185	198	1
180	180	1
178	178	1
40	151	1
182	183	1
76	95	1
197	201	1
183	211	1
72	74	1
49	88	1
237	239	1
27	153	1
2	39	1
2	9	1
181	182	1
1	2	1
52	184	1
226	227	1
