20	22	1
35	35	8
151	172	1
213	214	3
55	56	2
109	109	5
9	28	2
8	8	4
180	181	4
73	73	1
42	42	4
171	171	4
192	194	1
203	203	7
12	12	13
196	198	1
14	33	1
77	78	3
221	221	9
111	111	9
112	231	1
15	18	2
96	96	4
241	242	4
20	20	11
209	210	4
218	218	6
38	38	8
197	200	3
181	181	4
242	242	4
105	106	4
205	205	11
217	217	6
74	74	2
240	240	9
176	176	8
179	180	2
81	81	5
14	14	4
15	16	2
244	244	6
193	193	6
241	244	1
211	245	1
147	147	3
214	215	3
105	105	3
238	238	7
159	159	5
18	18	10
27	27	6
4	14	1
42	43	1
24	25	3
164	165	3
22	22	4
222	222	8
242	243	2
3	3	7
39	204	1
235	237	1
241	241	7
6	6	5
26	26	6
153	153	2
230	230	5
238	239	3
45	45	3
151	211	1
19	31	1
93	94	3
71	71	4
177	177	8
19	46	1
167	167	10
163	163	7
49	72	2
76	88	1
186	190	1
84	96	1
116	119	1
239	239	7
24	24	3
214	214	7
228	228	5
32	32	5
40	40	9
180	228	1
70	70	3
2	2	7
163	175	1
172	176	1
235	239	1
237	239	1
187	187	4
166	166	2
196	196	4
56	209	1
64	65	3
192	192	8
236	238	1
89	243	1
234	235	5
174	174	7
201	201	5
227	227	5
107	107	12
43	44	4
74	75	1
101	101	6
71	77	1
199	199	9
177	178	5
193	194	2
44	45	1
175	175	7
157	157	1
231	231	9
54	54	2
178	178	5
172	172	8
200	200	7
20	90	1
162	162	5
235	236	4
8	11	1
67	67	2
218	220	1
174	225	2
80	88	1
22	23	4
51	51	3
248	248	6
48	48	6
79	81	2
160	160	4
236	236	9
92	92	5
227	228	1
77	86	1
100	201	1
112	112	7
103	103	1
209	209	3
165	167	1
190	193	3
195	195	3
240	241	2
177	199	1
198	198	3
35	37	2
225	225	10
173	173	9
75	75	4
85	85	3
156	156	4
191	197	2
187	192	1
32	205	1
92	109	1
17	18	1
238	240	1
197	197	4
47	48	4
41	41	8
116	116	7
202	203	1
188	189	3
212	212	6
106	107	1
208	208	8
229	229	2
223	223	5
233	233	4
96	97	1
204	225	1
190	190	6
80	80	2
194	194	5
98	98	3
207	229	1
165	182	1
117	117	5
116	117	2
188	192	3
84	90	1
118	119	3
34	34	5
69	69	7
234	234	4
185	185	3
150	150	6
170	170	8
240	243	1
46	46	4
230	231	2
8	9	3
50	77	1
154	156	1
47	47	6
11	11	5
190	192	2
156	157	1
165	205	1
232	232	3
237	237	9
227	229	1
202	204	1
37	39	1
104	105	2
168	194	1
15	15	6
76	77	3
111	161	1
215	215	7
165	168	2
23	23	7
221	222	4
186	186	6
28	32	1
164	164	6
12	14	1
37	37	6
33	33	4
67	68	1
94	94	5
39	40	1
220	220	4
21	21	2
226	227	2
168	203	1
213	213	10
183	183	4
222	223	1
58	90	2
90	93	1
165	165	1
119	119	8
110	110	13
233	244	1
23	32	2
71	143	1
27	39	1
112	113	3
198	222	1
204	211	1
84	84	4
216	217	3
175	234	1
211	211	3
16	16	8
82	82	3
49	49	5
168	212	1
45	230	1
7	8	2
18	37	2
235	235	2
104	104	1
41	116	1
159	160	1
203	204	2
198	212	1
245	245	6
65	65	5
86	88	1
113	119	1
17	17	3
25	25	7
53	53	10
157	158	1
155	158	1
210	211	4
60	60	4
30	30	4
28	28	7
0	23	1
95	95	6
168	168	4
46	54	1
11	12	1
198	200	1
216	218	2
206	206	3
227	231	1
40	41	2
180	183	1
202	202	8
68	222	2
49	51	1
185	187	1
30	31	3
247	247	5
31	31	3
243	243	2
184	184	8
81	91	1
5	5	2
194	195	4
210	210	3
53	93	1
151	151	5
174	175	1
29	29	6
70	107	1
88	92	2
93	145	1
88	89	1
64	66	1
173	178	1
59	62	1
66	66	4
157	194	2
51	61	1
168	195	1
233	234	4
46	226	1
225	235	1
216	216	1
233	236	1
18	19	1
45	219	1
247	248	3
177	189	1
52	52	4
55	65	3
23	41	1
58	58	5
79	79	4
68	68	4
220	239	1
188	188	1
219	243	1
174	176	1
144	144	2
49	50	1
67	71	3
10	10	7
56	56	3
72	74	1
176	177	3
228	229	3
114	163	1
179	179	2
1	1	5
83	83	3
39	212	1
46	204	1
9	9	3
87	87	4
204	204	3
170	171	2
171	224	2
163	171	1
43	43	5
49	79	1
36	40	2
7	7	5
151	152	1
65	90	1
178	179	2
50	50	5
114	114	2
90	245	3
28	29	1
109	110	1
92	93	2
246	246	4
223	224	2
223	235	1
118	118	7
59	63	1
57	57	5
54	55	4
55	55	3
236	237	1
193	197	1
191	222	2
161	162	1
4	5	4
238	247	1
78	96	1
38	39	2
68	69	1
200	201	1
63	63	6
58	60	1
182	206	1
90	90	2
115	116	1
7	57	1
239	240	2
34	245	1
56	58	2
155	155	5
190	191	5
191	191	1
3	160	1
53	54	2
45	102	1
11	169	1
181	184	2
14	15	3
237	241	2
55	235	1
84	85	2
224	225	1
169	169	3
4	228	1
177	198	1
185	197	2
196	218	1
59	60	1
99	99	3
184	214	1
113	113	2
219	220	1
187	189	1
63	89	1
217	219	1
182	182	7
94	95	1
162	235	1
61	61	2
224	224	2
171	172	1
205	207	1
150	174	1
5	6	1
65	66	1
224	241	1
213	246	1
31	41	1
102	102	4
176	195	1
50	51	2
180	180	2
90	247	1
152	152	4
62	89	1
182	183	2
168	226	2
23	26	1
161	161	1
29	30	2
83	87	2
232	233	2
72	72	3
107	197	1
48	64	1
36	37	3
13	13	1
173	176	1
79	80	3
7	151	1
40	47	1
175	176	1
172	173	1
229	230	4
35	41	1
15	44	1
103	106	1
7	235	1
73	75	1
185	201	1
180	198	1
188	190	1
31	32	1
166	188	1
182	185	1
151	153	3
26	27	2
169	179	2
208	209	2
27	157	1
225	226	1
33	35	2
215	216	2
167	206	1
208	215	1
6	7	3
158	158	2
160	161	2
101	102	1
7	53	1
81	82	3
191	219	1
88	88	1
4	4	3
110	212	1
226	226	1
15	40	1
63	224	1
196	197	2
97	97	2
35	36	2
77	99	2
154	154	6
115	115	2
202	213	1
212	214	1
152	153	1
56	66	1
76	99	1
245	246	2
216	219	1
38	44	1
47	51	1
153	159	2
19	19	4
63	65	1
58	59	1
56	57	3
65	202	1
170	215	1
168	205	1
59	59	1
193	195	1
169	171	2
25	26	1
211	214	1
100	100	1
13	14	1
9	10	2
185	200	1
70	74	1
86	87	2
97	98	2
223	236	1
79	200	1
187	198	1
171	225	1
93	93	2
6	11	1
36	36	3
85	86	3
203	207	1
243	244	1
64	64	1
103	104	1
80	82	1
121	121	1
48	219	1
71	76	1
48	52	1
61	74	2
101	171	1
42	63	1
216	237	1
218	219	2
209	223	1
207	207	2
69	70	1
95	96	2
150	198	1
146	147	1
30	43	1
21	70	1
58	62	1
89	89	1
62	68	1
200	211	1
173	174	2
217	240	1
89	104	1
211	222	1
237	238	2
166	167	1
173	201	1
198	208	1
21	29	1
208	230	1
108	108	2
110	151	1
76	76	2
56	59	1
167	236	1
195	196	2
89	90	2
85	112	1
72	75	1
47	52	1
82	83	1
231	234	1
71	73	1
197	210	1
168	179	1
156	173	1
82	85	1
9	12	1
114	115	1
37	38	2
7	33	1
199	215	1
215	231	1
27	41	1
220	223	1
169	205	1
118	144	1
45	82	1
150	151	1
60	65	1
44	44	2
217	218	1
115	119	1
33	47	1
84	89	1
26	209	1
67	92	2
61	78	1
165	191	1
83	101	1
197	224	1
63	64	1
200	219	1
219	219	1
31	46	1
51	202	1
83	84	1
171	187	1
162	163	1
91	101	1
91	91	1
104	153	1
50	221	1
19	45	1
60	62	1
55	210	1
166	208	1
60	61	1
189	189	1
65	92	1
45	47	1
1	9	1
62	63	1
4	12	1
28	40	1
168	171	1
36	206	1
30	42	1
78	103	1
146	150	1
185	186	1
57	171	1
78	78	1
34	35	1
215	220	1
195	199	1
167	207	1
52	53	1
217	220	1
189	191	1
211	247	1
146	146	2
74	118	1
192	193	1
178	209	1
33	235	1
211	249	1
214	231	1
78	97	1
119	120	1
76	171	2
194	201	1
22	24	1
168	193	1
174	211	1
206	207	1
232	235	1
199	200	1
236	242	2
33	34	1
12	26	1
57	211	1
233	248	1
61	63	1
28	30	1
248	249	1
73	74	1
204	205	1
235	246	1
233	242	1
96	248	1
86	86	1
183	213	2
208	217	1
243	247	1
95	208	1
201	234	1
162	165	1
57	58	1
207	211	1
230	233	1
45	53	1
12	40	1
174	179	1
121	145	1
190	198	1
207	208	1
70	89	1
62	62	1
