42	56	1
74	106	3
3	3	4
74	150	2
50	52	2
54	54	5
29	29	1
110	114	2
42	46	1
62	62	3
22	22	3
74	119	1
99	99	7
122	122	3
104	104	8
58	58	1
121	121	4
11	42	1
89	89	1
92	93	4
43	43	2
96	96	3
70	70	4
22	23	3
154	154	2
17	17	4
147	147	3
146	146	4
78	100	1
26	26	1
42	42	4
21	23	1
106	110	1
46	46	6
114	115	1
123	130	1
133	149	1
61	61	2
107	107	2
23	41	1
14	14	5
133	133	6
16	17	3
20	21	2
45	45	1
55	55	1
101	101	2
67	67	2
12	16	1
128	128	1
28	28	2
108	108	2
37	37	3
21	21	5
104	105	1
16	46	1
132	132	2
74	75	2
16	16	1
122	140	1
118	118	3
78	78	2
49	50	1
136	136	2
120	120	3
121	128	2
38	38	4
146	147	1
152	152	2
4	7	1
81	85	2
109	109	2
111	114	2
49	49	2
24	25	2
73	75	1
117	129	1
18	18	3
29	113	1
128	129	1
115	116	1
10	10	6
143	143	1
141	141	3
30	30	1
128	143	1
43	46	1
42	118	1
151	151	2
119	119	2
112	112	3
12	14	2
50	50	2
63	63	3
15	18	1
30	31	1
144	148	1
73	73	1
109	110	1
109	128	1
39	39	2
32	32	2
57	58	2
54	55	1
143	145	1
31	31	3
37	38	2
83	83	1
100	101	1
99	117	1
69	69	5
62	64	1
6	16	2
140	140	1
87	90	2
54	115	1
82	82	1
100	119	1
75	75	2
17	18	3
93	97	1
104	113	1
121	122	3
53	53	3
31	44	2
40	58	1
98	98	2
144	145	1
66	66	3
33	36	1
23	27	1
67	100	2
77	78	2
4	4	4
81	81	1
56	56	4
68	69	2
14	15	2
138	138	1
103	103	5
142	144	1
38	54	1
28	32	1
99	139	1
150	152	1
38	40	2
141	142	2
127	128	1
135	135	5
72	72	4
113	113	2
36	100	1
100	135	1
124	127	1
36	36	1
42	43	1
84	84	1
41	43	1
25	64	1
67	94	1
105	105	1
20	20	3
134	149	1
6	6	1
151	152	1
96	111	1
142	142	1
125	125	2
7	12	2
40	40	1
102	102	4
117	117	4
116	117	1
23	135	1
12	13	1
114	127	1
37	63	1
47	47	3
53	72	1
90	91	2
123	123	4
153	153	2
25	30	1
23	23	2
63	86	1
68	68	1
145	145	1
147	149	3
77	79	1
148	149	3
49	55	1
124	124	1
95	97	2
48	48	1
77	116	1
11	11	1
34	34	1
86	87	1
94	96	1
119	128	1
130	130	2
53	56	2
103	134	1
30	49	2
27	27	1
38	39	3
105	107	1
98	99	1
76	76	1
5	5	3
29	32	2
73	74	1
8	26	1
122	137	1
8	8	3
100	100	1
63	66	1
54	110	1
87	88	1
139	139	1
99	118	1
113	114	2
149	149	1
122	123	1
25	25	3
136	137	1
103	104	1
97	110	1
104	114	1
123	141	1
123	136	1
45	46	1
127	127	1
15	15	1
134	134	1
19	19	2
76	77	1
11	30	1
80	81	1
13	14	1
12	12	2
27	28	1
31	35	1
24	24	1
88	88	1
110	111	1
33	33	1
26	27	1
67	73	1
79	80	1
114	114	1
110	110	1
51	53	1
92	121	1
44	45	1
70	71	1
148	148	1
95	104	1
96	110	1
96	141	1
106	106	1
85	85	1
122	127	1
140	141	1
66	67	1
49	56	1
23	25	1
55	110	1
115	115	1
93	145	1
13	13	1
136	147	1
30	35	1
131	131	1
85	86	1
5	34	1
102	119	1
4	10	1
123	131	1
5	11	1
10	11	1
