3	28	1
102	102	5
93	93	9
0	0	2
110	110	3
120	120	8
67	81	1
78	85	4
106	114	1
1	1	2
68	81	1
45	45	4
24	24	2
103	103	8
82	82	5
103	129	1
11	11	5
55	56	3
130	130	3
67	68	2
85	87	1
40	40	3
68	68	3
114	114	6
3	3	5
55	55	6
107	107	5
44	44	5
80	80	6
58	61	1
111	112	1
123	123	8
91	91	3
122	122	10
43	43	5
5	5	3
67	67	3
77	77	11
22	22	4
21	21	2
79	91	1
116	116	7
125	125	5
52	52	7
75	75	6
61	67	3
113	118	2
56	56	11
85	90	1
118	118	5
0	3	3
112	115	3
127	127	6
17	18	1
131	132	1
13	13	2
91	94	1
98	98	6
42	46	3
57	57	6
88	88	6
93	98	1
4	28	1
101	101	2
95	95	7
92	93	3
90	100	1
47	47	8
46	46	5
86	86	9
128	129	2
72	72	1
84	92	1
62	68	1
28	105	1
46	53	3
78	78	5
60	62	2
67	72	3
5	6	1
22	24	2
66	66	6
128	130	1
29	33	1
7	7	4
72	75	1
4	4	4
61	61	2
69	69	5
118	120	1
27	29	1
65	66	2
96	102	1
72	73	2
13	14	1
3	5	2
14	14	2
131	131	4
96	96	4
59	59	1
72	85	1
79	79	5
90	90	5
42	42	10
77	79	2
58	58	6
128	128	5
61	62	1
41	44	1
1	14	1
54	54	7
119	119	2
126	127	3
103	104	3
64	64	2
129	130	7
112	112	9
57	59	2
63	63	4
53	53	4
71	71	3
100	129	1
116	118	2
15	15	1
106	106	4
73	73	2
92	92	4
12	14	2
66	68	1
122	127	1
96	111	1
120	121	6
99	106	1
109	109	2
19	19	1
90	91	1
63	67	2
90	95	1
49	49	4
19	20	1
21	25	1
117	118	2
59	75	1
11	52	1
78	84	1
20	20	4
23	23	2
115	117	1
11	27	2
32	32	2
78	79	3
21	22	2
124	131	1
76	82	1
107	114	1
104	104	6
104	107	1
51	54	3
77	78	5
115	116	2
39	47	1
81	99	1
93	120	1
6	9	1
9	94	1
110	121	1
65	75	1
126	132	1
82	83	1
127	129	3
45	47	2
123	124	2
30	30	2
16	16	4
129	129	4
8	8	3
9	12	1
14	15	1
9	14	1
133	133	3
118	119	1
41	41	2
81	81	3
121	121	4
93	112	1
29	31	2
76	76	8
73	79	2
92	130	1
28	28	4
48	48	4
32	34	1
45	75	1
99	99	7
65	76	2
73	78	2
126	126	5
3	4	4
124	125	2
77	80	2
17	17	3
64	80	1
63	83	1
91	92	1
81	82	3
15	27	1
25	26	1
9	10	2
70	70	5
99	100	2
12	12	2
113	119	1
121	133	1
29	34	1
112	114	2
62	62	2
51	51	5
34	34	2
94	94	6
33	33	3
58	59	2
26	27	2
132	132	4
39	51	1
72	74	2
45	49	1
104	112	1
94	100	1
6	6	4
47	54	1
74	79	2
54	59	1
1	2	5
111	120	2
74	82	1
16	24	2
71	84	1
39	48	1
54	56	2
125	127	1
95	98	2
53	57	1
26	31	1
97	97	5
46	93	2
108	108	5
107	110	1
105	105	2
119	122	1
119	121	2
64	69	1
32	42	1
56	57	1
25	25	3
42	43	1
84	84	4
113	113	3
85	88	1
5	26	1
59	61	3
119	125	1
75	77	1
53	63	1
26	26	4
31	47	1
113	115	2
109	120	1
58	71	1
81	83	1
87	90	1
70	71	1
74	80	1
93	106	1
90	92	1
107	131	1
122	123	2
15	21	1
58	62	1
39	39	3
38	41	1
113	114	2
46	65	1
89	89	6
38	38	3
101	102	2
110	111	2
85	86	1
31	31	2
91	98	1
109	112	2
119	120	1
12	30	3
53	54	2
108	126	1
10	10	2
106	107	1
30	31	2
60	61	1
82	85	1
0	57	1
120	127	1
16	19	1
107	108	2
102	103	2
83	91	1
63	66	1
0	14	1
78	82	1
110	122	1
121	122	2
111	114	1
92	94	1
92	104	1
2	2	4
115	121	1
102	114	1
94	95	2
60	60	3
66	72	1
124	124	2
20	58	1
99	101	1
132	133	1
66	124	1
74	75	1
58	63	1
88	91	1
51	52	1
49	53	1
65	65	2
97	99	1
107	120	1
87	88	2
12	47	1
129	131	1
107	118	1
95	102	1
44	45	2
51	53	1
9	39	1
130	131	1
19	26	1
61	75	1
28	30	1
29	29	3
104	109	1
79	80	3
116	117	2
95	96	1
100	100	2
80	86	1
19	33	1
45	65	1
83	84	2
34	39	1
85	85	4
27	27	1
97	98	1
83	83	2
69	70	2
83	94	1
91	128	1
127	131	1
42	45	1
73	76	1
117	119	1
113	129	1
52	55	1
127	133	1
86	87	1
23	34	1
73	83	2
117	117	3
116	120	1
59	64	1
105	130	2
73	85	1
113	117	1
125	130	1
127	128	2
50	51	2
27	28	1
102	124	1
11	13	1
125	128	1
24	25	1
52	53	1
91	129	1
123	131	1
98	109	1
5	8	1
58	64	1
66	101	1
44	72	1
25	125	1
75	86	1
64	66	1
50	50	2
80	94	1
94	117	1
39	63	1
28	55	1
17	19	1
21	24	1
13	60	1
46	47	1
68	69	1
30	32	1
18	18	1
14	33	1
87	87	1
54	55	1
34	40	1
92	96	1
57	76	1
111	115	1
45	56	1
93	94	2
73	74	1
32	46	1
17	20	1
24	28	1
95	100	1
1	8	1
63	65	1
94	98	1
107	112	1
108	110	1
109	110	1
28	31	1
107	109	1
95	121	1
86	88	1
67	80	1
98	107	1
114	127	1
105	106	1
27	30	1
104	105	1
84	85	1
74	74	1
108	118	1
91	106	1
62	76	1
105	120	1
23	24	1
66	90	1
94	104	1
1	4	1
10	55	1
100	101	1
