45	45	7
7	69	1
108	108	2
54	54	6
53	53	4
82	85	3
43	43	11
34	38	2
49	49	13
13	14	2
74	74	7
5	5	3
83	83	7
60	60	2
17	17	1
52	62	2
65	65	4
61	61	5
2	24	1
77	115	2
1	43	1
104	104	5
33	33	8
62	65	1
7	52	2
63	84	1
13	15	1
43	45	1
15	15	4
50	50	8
77	77	6
64	64	8
115	115	2
119	119	3
72	72	7
52	52	4
81	81	5
111	111	1
75	100	2
105	105	5
32	32	6
94	94	3
114	114	4
129	129	3
30	30	3
20	20	5
93	93	1
55	59	2
74	75	1
82	82	6
23	23	5
70	71	3
126	127	2
117	117	2
127	127	4
84	84	4
16	16	8
130	130	3
10	11	1
80	80	8
61	62	1
84	85	6
2	4	2
4	4	2
53	54	2
19	20	1
8	8	2
121	121	3
17	18	1
119	124	1
77	79	2
102	102	3
89	96	1
91	115	2
10	10	3
34	34	2
63	63	5
35	35	4
79	79	5
72	73	3
0	0	3
5	7	1
6	6	3
68	87	1
70	70	7
133	133	3
73	73	7
126	126	3
37	53	1
3	4	3
103	103	4
12	12	2
97	97	3
16	17	2
14	14	5
58	86	1
62	62	3
7	8	1
13	33	1
68	69	2
87	87	5
22	28	1
90	90	3
6	8	1
12	14	1
56	57	4
50	51	1
31	32	2
132	132	1
109	110	1
48	48	2
109	118	1
65	66	3
64	88	1
0	1	1
119	121	2
50	93	1
97	113	1
125	125	2
1	3	1
27	27	2
79	89	1
76	80	1
134	134	2
123	124	1
73	81	1
15	18	1
69	106	1
29	29	1
6	7	3
31	31	1
75	75	8
99	100	3
9	9	3
79	80	1
66	66	2
66	81	1
22	23	1
8	10	1
11	12	1
122	124	1
78	78	5
76	76	6
27	28	4
13	21	1
110	110	1
26	26	2
101	101	4
25	25	1
103	104	2
82	84	1
85	85	1
69	70	1
92	92	3
98	114	1
47	91	1
57	57	4
63	64	3
34	36	1
11	11	2
106	106	6
27	124	1
18	19	3
30	31	1
93	114	1
24	24	3
98	98	2
69	69	1
65	67	2
67	68	1
34	44	1
2	3	1
58	58	2
7	7	3
86	86	3
3	3	3
71	71	2
16	29	2
0	27	1
29	32	1
123	123	1
75	76	2
56	59	1
66	67	2
14	31	1
67	67	3
17	28	1
45	94	2
56	56	2
65	72	1
2	2	2
86	87	3
88	88	1
20	21	1
16	20	1
25	49	2
9	10	1
91	113	1
59	59	1
25	26	1
28	132	1
58	59	1
21	22	2
109	109	1
22	22	3
44	90	1
99	99	3
81	82	1
11	15	1
54	56	3
94	95	1
96	96	2
2	75	1
62	80	1
0	29	1
3	7	1
18	22	1
77	78	1
72	75	1
62	63	1
8	54	1
18	18	2
61	78	1
12	13	1
68	86	1
89	89	2
112	114	1
127	128	3
3	102	1
59	60	1
19	19	1
13	13	1
47	47	1
124	124	1
44	44	3
131	131	2
120	121	1
35	37	1
18	20	1
107	107	3
44	45	1
93	96	1
55	56	3
100	100	1
37	38	1
52	53	2
107	130	1
42	43	1
128	128	2
62	70	1
42	44	1
4	5	1
135	135	2
63	83	1
3	6	1
76	79	1
108	111	2
49	50	1
95	95	1
24	25	1
117	118	1
116	116	1
52	92	1
82	83	1
126	128	1
