63	64	2
55	68	1
97	97	8
82	82	2
39	41	2
33	34	1
54	54	6
34	34	3
89	89	2
42	44	2
20	42	2
48	49	2
23	23	9
25	25	2
79	79	5
43	44	2
70	70	4
42	43	1
30	30	1
106	106	4
52	52	3
101	101	5
37	37	7
99	105	1
52	83	1
94	94	7
39	45	2
59	59	3
23	24	1
46	48	2
95	97	2
66	67	1
49	49	3
85	85	3
25	27	1
49	107	1
31	31	5
99	100	1
58	58	3
65	65	3
28	33	1
45	53	1
55	55	3
105	105	2
71	72	2
78	79	1
96	96	5
29	30	1
53	53	5
39	39	1
73	82	1
51	51	4
88	89	2
56	56	3
88	88	3
40	41	3
98	99	2
95	95	8
78	82	1
41	59	1
60	60	1
94	96	1
36	37	2
54	55	1
89	101	3
92	97	1
36	49	1
40	46	1
22	50	1
62	64	2
21	21	4
70	71	1
38	39	2
87	88	2
47	67	1
76	76	3
99	99	3
75	75	4
61	61	2
64	64	2
68	68	4
66	66	7
102	103	4
28	29	2
100	101	1
25	34	1
43	43	1
33	33	5
56	57	1
71	71	1
92	92	4
78	78	5
79	83	1
65	70	1
77	77	7
29	29	6
33	91	1
60	80	2
67	67	3
91	92	2
82	83	1
64	65	1
104	104	3
73	73	3
98	98	2
21	23	1
35	35	4
22	22	1
74	76	1
87	87	2
97	99	1
77	78	1
68	72	1
65	88	1
38	46	1
89	90	3
85	90	1
101	105	1
55	96	2
55	59	1
59	90	2
26	26	3
30	78	1
98	102	1
91	91	2
62	63	1
55	56	4
100	100	2
78	83	1
24	24	3
103	104	1
89	97	1
27	33	2
55	89	1
74	74	3
44	45	1
103	103	3
106	107	1
21	31	1
54	79	1
38	49	1
69	72	2
91	97	1
30	59	1
40	47	1
62	87	2
81	81	2
63	63	3
72	73	2
73	100	2
37	53	1
64	67	2
58	93	1
52	86	1
45	67	1
71	78	1
75	76	2
92	94	2
87	96	1
57	57	1
24	25	1
60	92	1
30	51	1
67	90	1
74	75	1
55	81	2
62	62	2
39	40	1
96	97	1
25	26	1
28	28	1
50	50	2
25	57	1
58	59	1
44	44	1
48	48	1
62	68	1
97	101	1
47	47	2
61	62	1
69	91	1
46	46	2
90	90	1
56	96	1
34	50	1
28	30	1
93	93	1
52	58	1
58	60	1
92	93	1
65	66	1
56	65	1
29	59	1
41	41	1
86	88	1
93	104	1
90	91	1
44	61	1
72	72	1
73	77	1
72	88	1
56	95	1
68	93	1
107	107	1
76	104	1
27	28	1
52	76	1
41	52	1
60	81	1
67	76	1
85	86	1
91	93	1
45	47	1
27	27	1
102	102	1
59	81	1
52	53	1
84	88	1
34	41	1
71	94	1
100	105	1
53	57	1
61	64	1
