113	114	6
122	123	1
107	112	2
70	70	7
119	119	4
57	57	2
157	157	6
118	119	2
105	106	2
84	86	1
151	151	8
17	43	1
84	84	4
72	72	4
55	55	5
121	121	3
45	46	2
26	27	1
2	2	8
20	20	5
3	3	7
25	25	4
25	27	1
130	130	9
131	131	7
99	99	8
66	66	8
106	153	2
119	120	6
131	132	3
117	117	11
127	127	11
124	124	4
27	27	7
81	111	1
121	141	4
154	155	4
73	73	13
3	22	1
3	96	2
28	29	3
139	139	9
113	122	1
30	30	10
39	40	3
112	112	6
88	89	8
154	154	7
12	35	1
8	8	6
29	29	6
144	144	3
33	34	1
31	31	6
155	155	9
131	153	1
7	7	3
48	48	2
78	121	2
100	100	13
78	94	1
30	36	2
139	151	1
158	158	11
72	73	2
73	127	1
24	24	4
137	137	4
6	6	5
24	25	1
57	61	1
64	64	3
91	91	7
126	126	8
39	39	4
142	142	6
1	1	11
65	65	4
0	0	6
9	9	4
101	101	7
52	52	6
149	149	3
36	36	6
25	26	3
87	87	9
41	41	4
89	89	4
108	108	7
91	92	3
102	102	4
156	156	6
7	8	3
10	10	7
98	107	1
50	82	1
21	21	6
69	108	2
3	24	2
132	132	13
129	130	3
96	96	3
85	86	4
137	138	2
78	78	4
22	139	2
91	95	1
34	86	1
77	77	3
36	37	1
120	149	1
46	47	3
29	30	2
69	69	5
44	44	4
109	113	1
0	158	1
75	92	1
3	4	4
66	68	1
36	105	1
122	122	4
23	23	3
40	40	6
45	45	5
46	46	4
71	71	6
150	150	9
75	75	8
33	33	3
67	67	6
114	119	2
74	74	1
88	88	3
105	105	11
36	39	2
153	153	6
97	97	5
108	109	6
37	37	5
148	148	11
36	86	2
81	81	3
7	36	2
8	138	2
108	137	1
130	131	5
77	84	1
68	68	4
120	133	1
118	118	7
158	159	1
16	16	5
145	145	2
144	145	5
49	49	2
12	15	3
88	122	1
99	100	2
83	135	1
140	141	1
116	135	2
111	111	5
8	9	3
129	129	11
9	51	1
92	92	1
116	138	1
82	82	3
11	11	6
57	68	1
17	18	1
106	106	5
80	81	3
117	120	4
135	135	3
11	37	1
6	23	1
40	41	3
116	116	4
110	111	2
128	128	5
21	70	2
138	138	6
8	38	1
85	85	7
30	129	2
30	38	1
4	4	4
104	105	2
51	52	5
38	38	3
8	40	1
105	134	1
147	147	5
132	134	1
5	5	5
103	107	1
115	115	5
88	90	3
122	135	1
79	80	2
76	76	4
94	110	1
73	74	1
62	62	2
134	137	2
154	156	2
13	14	3
141	148	1
26	26	7
42	51	1
14	14	2
113	115	2
136	137	3
72	158	1
120	120	8
118	124	1
140	140	11
133	140	1
0	3	1
87	112	1
4	5	1
141	141	7
96	97	2
43	43	4
35	104	1
153	157	1
107	107	7
15	17	1
93	94	2
87	88	4
140	142	2
43	45	1
126	142	1
43	44	1
107	126	1
71	72	2
92	95	1
97	98	2
67	70	1
92	94	1
34	34	3
24	75	1
82	94	1
146	147	3
124	135	1
98	98	5
152	152	3
63	64	1
29	133	1
121	134	1
25	75	1
54	55	1
18	21	1
121	123	2
40	48	1
129	150	2
135	138	2
13	13	4
134	136	2
15	15	4
81	83	1
146	146	3
30	32	1
111	134	1
128	142	1
86	86	2
32	61	1
107	139	1
74	75	1
41	46	1
41	47	2
26	112	1
148	149	2
99	151	1
126	133	1
134	134	7
50	50	3
85	87	1
64	67	1
28	28	3
13	52	1
54	64	1
136	136	5
16	17	1
51	53	1
117	119	1
88	115	1
104	104	3
83	85	1
77	80	2
29	52	1
133	133	6
107	157	1
112	113	2
12	40	1
80	80	3
12	12	5
139	153	2
66	98	2
101	150	1
67	138	1
84	90	2
90	90	2
75	90	1
119	147	1
90	91	2
95	105	1
116	121	1
79	79	3
14	35	1
147	148	2
33	89	1
12	54	4
75	76	1
32	32	7
30	132	1
145	146	2
152	153	1
77	78	2
108	110	2
77	107	1
94	96	1
70	142	2
97	116	1
79	114	1
132	142	1
7	55	2
127	139	1
73	86	1
32	143	2
127	158	1
28	55	1
45	87	3
91	112	1
155	156	1
132	133	3
108	111	1
22	22	4
42	42	4
30	31	2
28	68	1
116	119	1
17	17	1
69	131	1
97	101	2
67	141	1
109	111	1
102	103	1
107	108	2
123	124	1
113	117	1
123	123	4
119	140	1
97	128	1
99	136	1
26	130	1
32	50	1
94	122	1
114	114	5
56	56	1
104	144	1
89	90	1
84	96	1
21	50	1
18	18	2
86	93	1
35	35	1
24	26	2
112	119	1
77	92	1
132	137	1
62	87	1
113	121	1
139	140	1
143	143	4
88	95	2
67	68	1
80	82	1
16	22	1
8	135	2
46	48	2
23	24	2
18	56	1
113	119	1
138	140	1
156	157	3
31	55	1
85	95	1
79	83	1
20	21	1
120	148	1
111	115	2
98	127	1
14	15	1
93	93	3
133	134	1
41	48	1
110	110	5
103	103	6
79	115	1
122	126	1
80	85	1
109	109	1
98	131	1
105	128	1
54	54	2
32	33	1
135	158	1
90	121	2
63	117	1
19	19	1
67	69	1
131	133	2
142	147	2
128	135	1
29	37	2
1	30	1
138	139	1
134	135	1
107	145	1
114	115	1
93	116	3
73	93	1
129	132	1
78	136	1
127	134	1
48	50	1
11	13	1
77	113	2
62	63	1
84	107	1
10	42	1
78	79	1
91	117	1
135	136	2
48	68	1
95	95	1
96	108	1
132	158	1
87	120	1
124	137	1
37	38	1
121	137	1
12	21	1
23	71	1
142	145	1
136	143	1
55	65	1
76	81	1
18	19	2
47	47	2
113	137	1
31	32	1
44	45	1
70	71	2
69	70	1
69	133	1
48	52	1
88	141	1
114	141	1
94	109	2
132	146	1
125	125	1
49	53	1
126	127	2
93	115	1
120	126	1
39	47	1
121	122	1
127	128	2
22	23	1
80	92	1
125	144	1
109	118	1
151	152	1
43	127	1
37	131	1
76	96	1
68	71	1
141	142	1
25	30	1
135	137	1
19	20	1
77	81	1
110	131	1
96	145	1
119	122	1
77	86	1
20	34	1
11	12	1
92	116	1
150	151	2
98	99	1
91	128	1
120	137	1
12	30	1
18	20	1
141	151	1
20	50	1
5	72	1
120	121	1
53	53	1
84	94	1
140	148	1
79	81	1
131	149	1
11	19	1
103	105	1
2	97	1
18	43	1
78	80	1
115	117	1
73	158	1
118	121	1
22	26	1
128	149	1
108	134	1
56	67	1
10	12	1
