13	13	2
48	48	3
197	197	2
72	72	3
16	16	3
141	141	3
187	189	1
43	43	2
152	152	2
3	3	3
64	70	2
185	186	1
158	158	2
32	37	2
24	25	2
108	109	1
175	181	2
123	124	2
183	183	3
193	193	2
110	111	2
69	69	2
160	160	1
10	10	4
30	30	3
182	183	4
131	131	2
173	173	3
181	182	1
57	57	1
162	162	1
156	156	3
27	27	1
103	103	1
130	150	2
95	95	1
18	18	1
138	138	3
180	180	1
194	194	3
11	11	1
143	162	1
8	32	1
127	127	1
178	178	2
34	34	1
163	164	1
80	81	1
41	41	5
122	123	1
116	117	1
43	44	2
114	114	1
26	26	2
12	12	2
124	128	1
118	119	1
164	164	2
20	25	1
67	68	2
196	196	3
46	47	4
40	41	1
88	88	1
58	59	1
162	163	1
138	153	1
143	143	3
146	146	1
20	22	1
195	195	2
130	130	1
34	35	1
172	172	4
84	86	1
62	62	3
188	188	1
187	188	3
109	109	3
45	125	1
195	196	1
40	40	3
78	80	2
3	28	2
8	8	2
158	178	1
147	160	1
173	174	1
140	140	3
126	126	1
26	28	1
24	24	2
120	120	2
42	42	3
148	148	2
36	36	3
181	181	1
63	64	1
111	112	1
33	33	2
87	87	2
46	46	2
2	2	1
142	142	5
7	31	1
184	186	2
116	116	1
81	83	2
43	57	1
47	47	2
17	26	1
3	25	3
157	158	1
32	36	1
96	96	1
167	167	2
170	186	2
192	192	2
53	53	1
1	1	1
154	155	1
105	105	2
5	8	1
15	15	2
44	45	1
95	97	1
122	122	2
48	49	2
28	31	1
14	14	2
58	61	1
15	16	1
180	181	2
37	37	2
37	38	1
157	157	2
39	43	1
188	189	1
156	169	1
35	35	1
150	151	1
0	31	1
3	38	1
99	100	1
111	135	1
38	56	1
14	15	1
163	167	1
39	39	1
144	144	1
138	151	1
187	193	1
147	159	1
169	170	1
33	36	1
25	25	3
61	65	1
80	80	2
112	112	1
82	82	1
3	4	1
119	123	1
4	193	1
38	38	1
185	185	2
60	60	1
29	29	1
20	20	1
73	73	1
16	69	2
95	96	2
174	175	2
69	81	1
128	132	1
39	40	2
169	169	1
7	8	1
65	66	1
11	12	1
110	110	1
38	39	2
28	29	2
155	156	1
67	67	1
126	128	1
32	32	1
113	113	1
168	168	1
121	121	2
36	56	2
70	70	1
142	143	1
179	179	2
166	166	1
0	5	1
83	83	1
151	151	1
88	150	1
170	170	1
86	87	1
85	89	1
179	182	1
51	51	1
2	3	1
22	22	1
110	122	1
182	182	2
112	113	2
134	139	1
135	135	1
37	42	1
61	64	1
161	165	1
9	9	3
189	189	1
172	177	1
56	56	2
68	68	2
194	195	1
79	79	1
178	182	1
5	5	1
115	115	1
25	53	1
181	191	1
163	166	1
57	58	1
174	174	2
101	101	1
0	2	1
23	24	1
66	67	1
177	178	1
54	54	1
193	194	1
37	46	1
147	147	1
167	168	1
13	184	1
131	132	1
171	172	1
142	147	1
143	157	1
137	159	1
58	58	1
30	31	1
133	133	1
159	159	1
6	6	1
