82	85	2
108	108	2
32	32	4
93	93	1
74	74	2
55	55	3
44	44	2
0	0	1
131	132	3
123	128	1
63	63	2
9	9	2
101	101	3
88	103	1
103	103	2
119	119	2
17	18	1
102	104	1
19	19	2
77	112	1
130	130	3
30	30	2
2	2	4
78	86	1
114	116	1
5	8	1
35	35	6
18	18	2
39	39	3
132	132	2
114	114	1
118	118	3
129	133	1
15	19	1
61	61	4
67	68	3
35	43	1
81	82	1
87	87	2
9	47	1
67	67	4
28	28	2
31	31	1
21	51	1
45	45	3
72	72	2
109	109	4
37	37	1
3	4	1
111	111	2
15	16	1
130	134	2
111	112	1
91	104	1
62	63	1
13	13	1
110	110	4
129	129	3
16	16	3
58	58	3
86	86	1
128	128	2
8	8	2
131	131	1
12	32	1
1	3	1
99	100	1
106	108	2
113	113	3
113	114	1
7	7	2
129	130	1
117	117	2
60	60	1
106	106	3
126	129	1
91	91	1
115	115	2
95	101	1
62	62	3
46	46	2
4	104	1
83	93	1
33	59	2
37	38	1
11	13	2
92	128	1
109	127	1
4	4	1
120	121	1
77	93	1
17	17	1
68	68	3
60	61	1
22	22	1
93	94	1
43	43	2
125	125	8
27	27	1
19	21	1
36	36	3
5	6	1
75	75	3
47	116	1
90	90	3
97	97	1
39	90	1
50	50	3
25	25	3
34	34	2
92	92	1
121	122	3
9	11	1
56	58	1
79	79	1
46	71	1
122	122	1
56	60	1
3	3	2
74	76	1
134	134	2
87	99	1
21	90	1
80	86	1
15	15	1
22	23	2
72	73	1
71	72	2
26	26	3
11	11	1
69	116	1
49	49	1
64	64	2
120	120	3
96	96	1
56	56	1
14	14	2
12	12	1
84	89	2
100	101	1
77	77	1
14	16	1
66	67	1
106	107	1
85	86	1
96	97	1
84	84	1
99	99	1
40	42	1
42	42	2
34	35	1
126	126	1
98	98	1
97	109	1
78	122	1
65	65	2
4	7	1
132	133	1
79	80	1
5	5	1
27	31	2
95	111	1
91	92	1
73	73	1
45	100	1
76	76	1
88	109	1
23	23	1
61	62	1
32	94	1
112	112	2
87	88	1
125	126	1
64	65	1
133	133	1
93	126	1
1	69	1
80	84	1
20	21	1
18	35	1
50	80	1
116	117	1
99	103	1
76	79	1
112	123	1
98	99	1
69	70	1
123	124	1
99	101	1
90	107	1
85	85	1
59	60	1
86	88	1
32	33	1
94	95	1
85	87	1
122	124	1
1	1	1
105	105	1
105	111	1
103	104	1
95	95	1
