143	143	3
112	112	3
188	188	3
143	146	1
157	157	4
59	61	1
6	7	1
82	109	1
5	5	3
153	153	6
104	105	2
44	46	1
125	125	1
145	145	3
187	190	1
21	32	1
71	95	1
74	77	1
75	75	3
26	26	2
140	145	1
178	178	2
7	25	1
124	159	2
181	182	1
23	24	1
17	17	5
135	136	1
4	4	1
10	11	2
47	47	2
28	30	2
98	98	2
129	129	1
185	185	1
70	70	2
34	43	2
64	64	2
45	45	2
12	12	4
56	56	2
82	82	1
163	163	4
186	188	1
92	92	1
10	10	3
22	23	2
108	108	2
9	22	1
42	44	1
172	172	3
189	189	2
65	67	3
171	171	1
6	23	1
104	104	1
55	56	1
182	183	1
43	45	2
109	110	2
87	109	3
158	166	2
108	109	1
153	154	2
21	43	2
122	133	1
2	2	3
28	31	1
19	22	1
13	13	2
25	25	8
76	76	2
95	99	1
40	41	2
148	156	1
60	60	3
0	0	2
74	74	1
165	165	3
19	21	2
169	169	2
97	98	2
53	85	1
75	79	1
180	181	3
55	55	3
125	126	3
12	13	2
156	156	3
179	180	2
150	158	1
164	187	1
147	148	1
94	94	1
141	141	5
119	119	4
28	29	2
17	42	1
127	127	3
41	41	3
177	179	1
115	148	1
34	34	3
18	18	3
176	185	1
139	140	1
147	164	1
27	28	2
90	90	7
18	21	1
53	55	1
61	61	2
75	76	2
120	120	3
54	54	1
93	142	2
58	59	3
7	7	1
118	118	2
52	52	3
81	81	4
57	87	3
85	85	2
103	152	1
13	15	1
0	1	1
149	186	1
43	44	1
115	115	3
86	92	2
70	72	1
19	29	2
156	157	1
38	38	1
157	159	2
117	117	2
29	32	2
97	97	1
130	130	3
76	79	1
96	99	2
4	13	1
148	148	4
16	16	4
144	155	1
80	80	1
149	149	1
135	135	2
87	88	2
79	86	1
46	46	2
95	103	1
70	109	1
126	126	4
111	111	2
171	172	1
8	8	3
66	66	3
95	145	1
130	131	2
138	186	1
95	166	2
29	35	1
159	163	1
23	23	3
152	152	2
101	105	2
150	188	1
89	89	4
176	176	3
58	61	1
160	186	1
66	67	2
27	27	4
187	187	7
52	88	2
139	139	3
113	113	2
142	145	1
3	3	2
186	186	4
140	140	2
17	57	1
68	117	1
127	128	2
27	33	2
54	55	2
34	37	1
9	42	1
25	35	1
48	48	3
107	107	2
29	29	3
89	122	2
19	19	5
155	186	1
34	36	1
87	87	3
144	145	1
96	100	1
102	167	1
128	140	2
174	174	2
43	43	2
44	44	6
96	166	1
114	138	1
131	132	1
61	62	2
14	14	3
75	77	2
79	79	2
13	184	1
96	102	1
105	105	2
181	181	3
163	173	1
164	166	1
24	24	4
11	11	4
103	103	1
104	112	1
81	86	1
121	121	4
188	190	1
33	34	2
33	33	1
54	63	1
76	77	2
173	173	3
159	159	3
124	124	1
95	98	1
156	177	1
93	94	1
21	21	2
80	123	1
63	63	1
182	182	1
167	168	6
158	158	2
84	84	2
101	102	1
185	186	2
184	184	4
122	122	5
113	156	2
128	152	1
132	136	1
72	80	1
39	39	2
99	128	1
113	116	1
36	36	1
88	88	1
134	134	1
11	34	1
155	178	1
59	60	1
77	77	2
154	154	1
77	79	1
85	86	1
78	78	1
57	57	1
152	153	2
26	34	1
5	16	1
83	83	3
110	110	2
119	147	3
53	106	2
114	114	1
177	178	1
101	101	3
106	106	2
58	58	1
63	82	1
41	44	1
67	105	2
160	160	1
116	117	1
57	84	1
77	78	1
135	137	1
180	180	2
112	146	2
37	57	1
103	139	1
11	13	1
89	90	1
91	93	1
109	109	2
37	37	2
9	9	2
40	48	1
105	107	2
93	115	1
58	64	1
75	106	1
19	45	3
183	183	2
137	137	2
22	47	1
93	93	1
10	27	1
109	142	1
95	159	1
151	153	1
172	173	1
68	110	1
81	115	1
58	63	1
30	38	2
100	140	1
120	154	1
155	155	2
117	121	1
150	150	1
147	147	3
164	164	2
103	170	1
168	169	6
21	46	1
92	93	1
26	48	1
8	54	1
68	90	1
151	151	2
40	40	2
106	107	1
124	125	1
177	181	1
91	94	1
166	169	1
31	31	1
111	117	1
168	172	1
25	26	2
154	186	1
88	89	1
23	85	1
18	20	1
30	30	1
17	21	1
128	159	1
164	173	1
123	124	1
190	190	1
99	100	2
187	189	1
16	17	1
132	151	1
86	86	2
122	123	1
174	186	1
150	190	1
32	32	1
81	90	1
129	144	1
124	133	2
170	170	1
66	68	1
20	33	1
123	123	1
80	81	1
53	53	4
189	190	1
60	64	1
146	147	1
169	170	1
62	62	2
86	106	1
142	146	1
78	80	1
72	73	1
83	85	1
57	64	1
86	153	1
99	99	2
158	164	1
135	180	1
117	118	1
34	35	1
128	135	2
127	187	1
102	161	1
17	43	1
138	138	3
136	137	1
146	146	1
17	26	1
150	157	1
66	88	1
128	130	1
27	31	2
142	142	1
32	34	1
20	21	1
23	56	2
31	34	1
69	69	1
17	18	1
123	141	1
112	114	1
120	122	1
99	103	1
100	100	1
69	70	1
95	97	1
104	145	1
160	163	1
6	6	1
98	111	1
100	103	1
100	102	2
132	164	1
112	118	1
48	49	1
46	47	1
116	116	1
167	169	1
157	158	1
101	136	1
131	136	1
28	28	1
47	48	1
130	133	1
125	135	1
177	177	1
164	165	1
