128	129	4
29	29	3
82	83	1
122	122	2
132	133	1
143	143	2
148	151	1
8	9	2
80	81	1
60	61	2
34	34	3
74	80	1
61	61	5
81	81	2
7	8	1
41	45	1
175	175	2
12	13	1
31	31	1
68	109	1
168	168	4
93	93	5
43	43	2
56	57	1
35	45	2
141	141	2
38	38	2
169	169	7
166	166	3
152	152	4
22	25	1
12	42	2
84	84	2
103	103	5
21	40	1
168	169	2
128	128	2
104	104	2
175	178	1
159	159	1
70	134	1
88	88	1
138	138	4
66	73	1
29	85	1
99	106	1
111	111	1
160	160	3
8	8	3
32	32	1
178	179	1
17	18	1
104	105	1
57	57	3
25	28	1
22	22	2
76	76	3
98	101	1
42	42	3
113	114	2
33	33	5
24	50	1
115	115	2
28	28	7
51	58	1
65	65	2
144	144	2
112	112	1
157	157	8
18	19	2
78	108	2
130	149	1
50	50	2
5	6	1
41	42	2
51	51	1
174	175	1
3	4	2
7	173	1
114	114	5
127	158	1
146	146	1
63	63	2
52	64	1
108	108	1
88	102	2
167	167	4
118	120	1
12	12	3
34	39	3
4	15	1
86	86	1
77	78	2
9	9	3
105	110	1
85	95	1
87	87	1
73	118	2
49	63	1
82	84	1
21	21	2
55	55	4
74	74	1
27	29	2
107	107	1
162	163	1
18	18	1
96	96	2
131	131	2
2	2	4
172	172	2
42	46	1
15	33	1
154	154	3
133	133	2
13	13	1
53	53	3
171	171	3
127	128	1
154	155	2
73	73	2
103	104	2
101	101	2
126	126	3
176	176	5
23	23	2
132	156	1
130	130	2
145	150	1
110	111	1
74	115	1
124	124	3
15	15	3
77	77	2
174	174	2
116	116	2
131	173	1
167	168	2
7	32	2
154	162	1
151	170	1
158	158	1
92	92	1
27	28	3
90	90	2
62	67	1
54	72	1
7	7	2
163	170	1
65	94	1
26	28	1
83	127	1
113	113	2
95	119	2
30	30	1
24	24	3
17	17	2
35	58	1
90	94	1
10	31	3
101	107	1
137	137	1
54	66	1
148	150	1
86	87	2
152	153	1
150	150	2
36	37	3
91	92	1
117	136	1
7	10	1
4	4	4
147	148	1
106	141	1
28	30	2
76	78	1
40	41	2
113	121	1
34	35	2
103	109	1
121	124	1
90	93	1
18	21	2
94	94	1
156	156	3
171	174	1
85	86	1
138	139	1
170	170	2
0	90	2
14	15	1
18	25	1
125	144	1
172	173	2
6	43	1
116	124	1
173	173	2
129	129	1
68	68	1
40	40	1
53	80	1
6	64	2
101	102	1
78	78	2
132	132	4
107	164	1
6	8	1
12	41	1
118	118	1
92	93	1
49	49	1
37	38	2
27	27	3
26	39	1
143	164	1
31	42	1
120	123	1
49	83	1
25	49	1
94	95	1
165	166	1
102	102	2
52	53	1
147	147	1
97	97	1
82	87	1
58	61	1
110	110	2
0	1	1
169	180	2
120	120	1
165	165	1
15	16	1
149	149	2
98	110	1
115	128	1
10	13	1
100	101	2
177	177	1
163	164	1
139	139	1
51	62	1
65	66	1
11	58	1
104	145	2
11	11	1
132	159	1
106	106	1
44	45	1
19	44	1
59	65	1
16	16	2
16	17	1
100	106	2
12	121	1
156	157	1
44	62	1
45	45	1
72	75	1
145	145	1
66	66	1
62	62	1
64	64	1
24	30	1
35	35	1
143	144	1
52	81	1
140	141	1
98	100	1
14	14	1
2	10	1
147	151	1
1	67	1
142	142	1
165	169	1
127	130	1
3	3	1
155	155	1
172	174	1
107	119	1
151	152	2
102	135	1
88	114	1
153	163	1
40	57	1
68	89	1
41	41	1
35	42	1
136	136	2
10	43	1
160	161	1
59	63	1
127	127	1
109	113	1
3	15	1
158	168	1
146	149	1
117	117	1
137	180	1
11	12	1
71	71	1
65	67	2
96	115	2
26	101	1
143	146	1
36	36	1
52	52	1
42	43	1
3	54	1
24	39	1
24	25	1
83	84	1
109	116	1
107	143	1
89	101	1
132	176	1
140	150	1
152	170	1
96	100	1
80	80	1
