50	70	1
110	110	5
86	86	5
22	58	2
33	33	5
159	160	1
147	147	2
69	69	1
130	156	2
10	40	1
49	49	2
51	51	7
169	169	3
42	42	3
86	87	2
126	126	2
150	161	1
56	56	4
149	149	5
115	115	4
40	40	4
113	114	3
170	170	3
168	168	3
114	114	9
83	83	3
129	132	2
105	105	2
142	142	7
26	26	3
131	131	7
156	159	1
109	109	6
143	147	1
146	149	1
165	165	4
66	97	1
11	13	2
169	170	1
111	111	5
17	56	2
155	164	2
156	168	1
78	83	4
78	79	2
119	120	3
140	164	1
12	15	4
2	24	1
36	36	7
14	14	6
134	134	5
127	127	6
102	102	4
6	7	1
63	66	2
4	4	8
16	20	1
156	156	10
112	114	1
24	24	5
62	65	1
7	7	6
137	137	10
162	162	7
39	39	5
96	97	2
94	94	4
144	144	4
151	151	8
93	98	1
159	159	6
28	28	3
167	167	3
141	141	5
3	4	1
92	92	2
10	22	1
45	119	1
68	68	4
15	15	4
161	161	5
157	157	7
96	96	4
154	154	4
9	9	13
168	169	3
80	82	1
35	35	4
152	152	4
116	116	4
88	129	1
64	83	2
102	164	2
86	94	2
132	137	3
103	106	2
101	101	7
13	42	1
77	77	6
115	116	3
134	138	1
162	166	3
34	35	3
98	98	3
2	26	1
137	166	1
0	0	11
46	46	4
139	139	3
160	160	7
164	164	3
21	21	3
160	161	1
25	25	3
133	142	1
93	115	2
53	82	2
157	160	1
82	82	1
149	150	1
153	154	2
62	63	2
106	106	3
140	140	6
119	119	3
115	163	1
75	86	1
22	22	5
43	43	4
130	151	1
70	152	1
97	99	1
127	129	4
13	15	2
26	27	1
148	150	1
92	150	1
76	76	2
99	125	2
128	128	1
20	90	1
130	131	1
11	12	1
81	81	1
43	49	1
146	153	1
130	130	1
88	88	5
166	166	5
98	99	3
55	55	3
140	142	1
101	102	2
157	170	2
129	129	4
84	85	1
45	52	2
34	40	1
99	129	1
122	124	2
48	53	2
41	41	4
45	45	10
74	74	5
158	158	4
1	1	5
84	115	1
3	5	2
124	140	2
152	156	1
2	7	1
21	24	4
110	138	1
161	168	2
47	48	4
53	55	2
90	92	1
83	150	1
93	93	5
12	13	2
17	25	1
49	52	1
140	145	4
3	3	5
118	137	1
146	147	1
150	150	6
47	52	1
112	158	1
162	164	1
145	146	1
52	54	1
106	111	1
39	152	1
42	44	1
143	143	2
0	2	2
40	41	6
163	163	5
112	135	2
76	77	2
91	91	2
33	35	1
5	6	3
75	96	2
85	85	4
48	51	1
50	50	2
166	167	3
142	153	1
44	46	2
5	5	4
145	145	5
23	49	1
110	111	1
98	121	1
19	19	4
144	155	1
24	75	1
107	111	2
155	155	4
42	64	2
118	118	3
114	119	1
20	20	5
52	52	5
132	133	1
107	107	2
56	83	2
48	48	4
63	63	2
7	159	1
2	2	1
164	165	2
65	65	1
44	45	6
163	165	1
67	68	1
155	157	3
43	44	1
91	92	1
50	56	1
163	164	2
125	151	1
64	95	1
16	51	1
14	26	1
100	157	1
66	66	2
7	10	1
71	73	1
121	130	1
57	64	1
90	125	1
90	93	2
69	72	1
34	34	3
44	44	3
165	166	1
12	12	2
112	112	3
56	79	2
24	25	3
50	54	1
114	115	1
10	10	3
114	145	2
62	62	1
148	151	2
152	153	1
112	157	2
25	105	1
113	126	1
120	121	1
17	17	4
144	148	1
73	73	1
43	56	1
121	138	1
36	37	2
37	38	1
15	16	3
133	133	2
37	142	2
84	84	1
120	126	1
73	78	2
81	82	1
37	37	6
132	134	1
3	15	1
54	55	3
56	62	1
104	104	3
118	155	1
80	80	2
107	108	3
71	74	1
155	156	2
136	149	1
7	8	3
110	113	1
86	88	2
57	57	2
78	78	2
14	15	2
52	53	3
97	97	8
23	24	2
155	166	1
68	73	1
134	135	2
75	75	4
12	50	1
155	161	2
8	9	2
22	23	3
18	18	1
148	149	1
39	40	4
74	75	1
116	154	2
19	46	1
125	150	2
136	136	3
117	118	3
161	162	3
45	46	2
123	123	5
6	50	1
95	96	1
48	55	1
97	98	1
47	47	3
25	28	1
52	83	1
0	14	1
56	80	2
124	153	1
121	122	2
3	39	1
4	5	3
154	155	2
65	69	2
23	23	1
62	120	1
11	16	1
150	163	1
116	131	1
156	158	1
79	82	1
72	72	4
79	79	1
22	25	1
68	89	1
131	150	1
100	128	2
43	138	1
124	124	2
136	139	2
13	14	2
53	54	1
70	131	1
99	99	3
116	118	1
94	95	2
18	24	2
97	127	1
134	147	1
128	130	3
83	87	1
38	70	1
153	153	1
136	137	1
58	58	2
117	152	1
157	158	1
124	144	3
50	52	1
49	56	1
71	71	2
119	134	1
78	84	1
151	156	1
5	14	1
68	110	2
49	50	1
138	138	4
20	21	2
112	138	1
83	84	1
66	98	1
140	143	1
96	98	1
70	70	2
80	84	1
54	54	1
72	90	1
87	104	1
144	151	2
147	149	1
107	125	1
158	159	1
89	101	1
91	105	1
123	125	1
113	113	2
151	170	1
52	56	2
105	140	1
2	21	1
93	97	1
87	87	2
64	66	1
17	19	1
135	136	2
18	22	1
114	121	1
13	13	4
17	18	1
139	140	2
56	57	1
123	124	1
62	103	2
74	78	1
65	68	1
152	162	2
149	151	1
100	105	1
87	118	1
154	158	1
40	42	1
13	26	1
8	10	2
1	7	1
17	21	1
137	139	1
50	51	1
139	148	1
8	8	1
89	89	1
159	169	1
106	148	1
75	123	1
77	78	2
108	108	3
126	130	1
106	114	1
69	71	1
1	4	1
11	11	2
106	113	1
3	24	1
126	127	1
146	146	3
73	132	1
149	166	1
53	56	1
124	132	1
119	152	1
34	49	1
34	149	2
18	20	1
100	101	1
140	154	1
116	129	1
6	16	1
96	126	1
120	120	3
4	52	1
119	136	1
16	16	3
6	12	2
7	44	1
48	49	1
132	132	3
130	157	1
102	105	1
18	19	1
35	40	1
58	63	1
46	48	2
121	125	1
38	39	1
145	147	1
86	101	1
137	138	2
25	26	1
157	167	1
10	69	1
97	100	1
163	166	1
84	106	1
103	104	1
62	77	1
91	93	1
100	102	1
75	79	1
34	39	1
118	132	1
87	89	1
19	22	1
160	164	1
54	62	1
105	107	1
73	74	1
124	155	1
39	43	1
90	136	1
135	135	1
0	11	1
38	38	2
89	90	2
21	27	1
138	139	1
109	111	1
6	25	1
131	137	1
66	69	1
21	22	1
6	6	1
160	162	1
101	127	1
82	86	1
138	140	1
100	100	1
87	131	1
145	164	1
94	97	1
114	133	2
90	90	2
167	168	1
123	157	1
11	41	1
102	120	1
133	158	1
104	124	1
48	98	1
10	49	1
27	27	1
68	69	1
121	123	1
111	119	1
117	119	1
126	157	1
52	73	1
16	38	1
118	120	1
74	89	1
38	73	1
126	128	1
20	56	1
64	67	1
72	77	1
63	67	1
27	49	1
84	111	1
72	78	1
105	106	1
