124	126	4
239	239	4
168	169	1
49	209	1
179	180	2
83	83	1
41	41	3
145	146	2
135	135	2
63	69	1
64	65	2
230	230	1
171	172	1
97	159	2
241	242	1
85	85	4
127	127	3
86	86	1
10	10	2
169	169	3
218	218	2
47	47	2
80	80	1
155	155	1
223	223	2
103	104	2
27	27	5
139	139	3
17	17	1
149	152	1
8	237	1
152	152	2
134	135	1
18	18	3
7	7	3
51	51	1
34	34	1
105	105	3
24	24	2
44	44	1
172	172	3
45	46	1
220	220	1
25	32	1
148	148	1
18	22	1
155	156	2
176	176	2
204	207	1
7	162	1
72	72	4
12	12	3
117	119	1
224	224	2
100	100	3
113	113	1
200	200	1
37	37	2
75	75	1
214	214	4
149	150	1
150	150	3
120	120	4
165	165	1
23	23	2
58	58	2
171	171	3
174	174	1
85	160	1
132	132	1
105	106	1
1	1	4
115	116	1
160	177	1
158	158	5
64	85	2
206	206	1
31	31	4
181	181	3
55	55	3
232	233	1
42	54	1
170	170	4
191	191	2
109	110	1
84	84	3
71	71	2
53	55	1
75	79	2
168	168	2
237	237	1
70	70	1
99	100	1
225	232	1
134	134	1
43	44	3
11	11	2
72	83	2
22	22	1
96	138	1
198	199	1
46	47	2
130	130	1
240	240	1
3	3	1
205	205	2
136	138	2
125	126	3
135	136	2
144	144	2
232	232	1
159	160	1
25	25	1
157	157	3
88	88	2
7	9	2
114	118	1
183	183	1
12	16	1
49	50	3
15	22	1
37	74	1
178	178	2
25	29	2
203	203	2
163	177	1
136	136	2
178	187	1
20	20	2
119	119	3
146	146	1
172	173	1
204	204	1
75	107	1
192	192	1
19	19	2
57	57	1
24	25	3
185	186	1
24	30	1
184	185	2
112	113	1
234	234	2
138	138	2
52	52	1
84	187	1
6	9	1
147	147	1
233	234	2
127	128	2
162	162	2
160	173	1
186	186	1
183	200	1
3	12	1
165	166	1
237	238	1
128	128	1
239	240	1
74	78	1
15	62	1
14	14	1
20	22	1
151	152	1
189	189	2
241	241	1
60	60	1
121	121	1
137	137	1
121	131	3
14	16	1
48	58	1
26	26	1
106	106	3
75	80	2
207	208	2
118	118	2
85	96	1
221	221	2
166	166	2
99	99	1
13	14	1
141	141	1
12	13	1
159	159	1
39	39	1
144	157	1
53	53	2
235	235	2
114	159	1
229	229	1
149	149	3
209	209	2
215	215	1
242	242	2
66	68	1
195	195	1
81	81	1
125	125	1
68	68	1
129	130	2
169	170	2
134	145	1
42	62	1
16	63	1
11	12	1
74	74	1
18	21	1
161	161	2
237	241	1
180	180	3
9	9	1
74	75	1
103	103	1
133	133	1
167	168	1
61	63	1
170	171	3
51	52	1
119	135	1
45	45	2
197	197	1
213	215	2
185	200	1
121	128	1
50	50	2
200	202	2
104	105	1
61	61	1
210	210	1
196	196	1
7	8	1
188	189	2
82	84	1
146	147	1
40	40	1
100	101	1
78	79	1
15	16	1
82	83	2
122	135	1
62	62	1
173	173	1
97	97	4
29	30	1
145	145	1
60	206	2
16	16	1
95	96	1
29	32	1
33	33	1
126	126	1
26	45	1
6	162	1
63	63	1
8	232	1
102	102	1
140	140	1
20	38	1
108	110	1
58	62	1
142	142	1
144	145	1
4	5	1
79	79	2
226	226	1
11	15	1
20	220	1
43	43	1
56	56	2
39	70	1
67	187	1
147	150	1
65	68	1
47	203	1
187	187	1
235	237	1
127	145	1
162	178	1
231	233	1
51	54	1
222	222	1
208	208	1
59	59	1
98	98	2
177	177	1
106	157	1
111	111	2
171	200	1
193	194	1
162	176	1
199	199	1
134	139	1
19	20	1
144	147	1
38	38	1
170	173	1
137	138	2
227	227	1
151	151	1
4	14	1
225	225	1
80	85	1
114	114	1
228	230	1
187	188	1
96	97	1
64	72	1
171	178	1
190	190	1
122	122	1
124	124	1
199	205	1
48	50	1
186	188	1
31	210	1
46	46	1
66	66	1
39	42	1
