40	40	4
143	144	1
140	182	1
191	193	1
2	30	1
115	117	1
164	164	2
166	167	1
139	139	4
173	173	3
191	192	1
19	19	3
119	119	2
151	152	2
107	149	1
28	178	1
8	8	3
24	24	1
101	101	2
49	49	2
135	136	2
126	128	1
172	172	3
1	1	6
166	168	1
116	116	2
168	169	2
191	191	1
145	161	2
14	45	1
149	149	4
9	10	1
155	155	5
33	54	2
158	158	4
20	36	1
63	63	4
13	183	1
66	66	2
94	94	1
100	100	5
41	41	1
150	151	1
182	183	4
2	7	1
153	153	5
157	157	4
159	159	1
34	34	3
13	13	5
150	193	1
195	195	1
37	37	7
140	140	1
147	160	1
151	178	1
141	141	4
176	176	1
108	108	2
170	170	3
109	109	1
184	184	3
166	176	1
119	141	1
79	84	1
72	72	2
120	120	1
160	161	2
177	178	2
144	144	2
159	163	1
44	44	4
79	80	1
161	162	2
130	191	1
4	4	5
79	131	1
3	3	4
162	163	2
151	151	3
183	183	5
189	189	2
139	140	3
114	114	2
1	30	1
43	185	1
39	128	1
36	37	2
137	137	1
32	32	4
131	131	1
58	59	1
122	122	1
108	111	1
25	30	1
33	33	2
64	107	1
146	148	2
156	156	2
25	26	1
19	25	1
4	5	1
21	22	2
149	172	1
22	22	4
144	174	1
161	161	1
162	164	1
10	11	2
3	4	1
26	27	1
181	182	1
7	7	2
103	103	1
18	18	5
180	180	3
132	133	1
179	182	1
7	155	1
28	28	4
95	97	1
9	9	4
182	182	2
13	14	1
186	186	2
53	53	2
22	23	1
35	36	2
64	66	1
3	26	1
64	191	1
148	148	3
119	139	2
118	133	1
34	36	1
38	38	3
48	49	1
143	178	1
105	197	1
47	47	3
5	5	2
29	30	1
2	25	1
168	168	1
80	85	1
39	39	2
128	128	2
23	32	1
152	153	1
5	8	1
71	73	1
61	69	1
187	187	2
97	98	2
76	78	1
197	197	1
157	158	1
165	167	2
145	145	1
5	6	1
70	76	1
12	33	1
5	12	1
97	97	2
36	36	1
45	46	1
43	43	5
141	197	1
177	193	1
190	191	1
110	114	2
176	181	1
96	97	1
54	74	1
43	60	1
179	179	2
185	185	3
45	45	2
46	46	2
151	157	1
112	113	1
85	86	3
53	119	1
123	123	2
170	177	1
35	35	1
169	169	2
73	75	1
171	171	4
101	104	1
115	119	1
142	142	2
194	194	1
52	71	1
74	75	1
67	79	1
163	163	1
156	195	1
0	2	1
42	42	1
158	161	1
9	152	1
193	194	2
154	160	2
96	96	2
115	115	2
10	10	1
59	61	1
196	196	1
176	179	1
81	82	1
83	83	2
175	176	1
93	96	1
85	85	1
52	52	4
63	64	1
2	17	1
26	26	2
64	65	1
104	106	2
103	106	1
167	175	1
17	17	3
138	139	1
5	9	1
133	157	1
21	21	2
50	50	2
111	111	2
5	22	1
170	171	2
12	12	3
38	39	2
51	51	2
178	179	1
166	166	2
113	113	1
14	171	1
154	156	1
11	126	1
174	176	1
192	193	1
187	189	1
16	134	1
164	166	2
18	21	1
183	184	3
0	8	1
13	25	1
15	15	2
126	126	2
173	175	1
19	20	2
179	180	1
33	88	1
63	114	1
98	98	1
26	28	1
108	123	1
171	172	1
64	64	1
126	127	1
146	146	1
150	166	1
60	64	1
69	69	1
2	2	1
61	62	1
11	12	1
62	63	1
177	179	1
102	102	1
59	59	1
53	58	1
194	195	1
47	185	1
1	16	1
33	36	1
137	138	1
95	96	1
0	26	1
48	48	2
177	183	1
150	156	1
149	171	1
169	191	1
167	169	1
49	57	1
160	160	1
5	142	1
27	28	1
54	54	1
138	138	3
179	184	1
193	193	1
171	185	1
59	60	1
186	193	1
159	160	1
33	37	1
150	150	1
167	167	1
20	21	1
93	123	1
24	187	1
155	156	1
31	31	1
142	143	1
134	135	1
25	31	1
46	47	1
82	82	1
30	31	1
37	38	1
41	43	1
58	58	1
6	7	1
80	83	2
100	136	1
0	1	1
180	193	1
93	97	1
1	2	1
34	64	1
161	163	1
190	190	1
152	152	1
18	34	1
15	180	1
147	147	1
101	107	1
14	14	2
59	78	1
143	143	1
188	188	2
140	181	1
163	167	1
22	35	1
103	104	1
73	74	1
62	62	1
79	79	1
29	29	1
41	42	1
84	85	1
188	189	1
117	135	1
31	36	1
