152	152	7
115	122	3
116	116	7
154	155	2
111	111	2
67	67	4
98	98	11
70	71	3
70	70	5
141	141	8
3	3	5
93	93	6
4	4	6
75	76	1
99	99	5
1	2	3
141	153	1
104	104	5
88	88	3
114	114	6
6	6	1
99	100	3
33	35	2
89	89	4
116	120	3
124	125	6
43	43	2
71	71	10
154	154	10
19	19	2
11	11	4
142	142	4
102	102	3
18	18	4
79	79	11
81	81	4
70	75	1
50	68	1
84	84	5
113	115	1
35	36	1
94	94	3
62	62	5
113	114	3
50	51	4
126	127	3
9	141	1
68	68	10
125	127	1
107	157	2
37	38	3
42	42	2
71	98	2
25	25	3
22	22	3
8	8	2
52	53	5
108	108	7
24	47	1
7	11	2
39	40	1
116	143	1
134	135	1
114	115	1
155	155	5
28	31	2
109	109	8
96	96	2
145	147	1
109	110	2
21	21	4
54	54	4
120	134	1
78	78	3
153	153	2
156	156	12
128	128	3
130	130	3
150	150	6
106	107	3
38	40	1
133	133	9
65	65	4
20	40	1
48	48	3
40	41	4
37	39	1
79	81	1
127	127	5
36	37	4
46	46	5
138	138	9
106	106	5
77	77	8
2	3	1
47	47	3
88	89	5
95	96	2
35	35	3
27	103	1
131	131	6
34	38	1
9	9	3
33	33	5
82	109	1
80	80	4
133	139	1
25	26	2
35	38	1
12	16	1
134	134	2
20	39	1
132	132	4
112	112	6
107	107	3
129	130	2
26	26	5
24	24	4
147	148	1
32	32	3
9	31	1
125	126	1
81	86	2
136	136	9
43	63	1
97	97	1
132	133	3
66	97	1
137	152	1
3	4	2
135	135	3
115	115	6
38	43	2
62	63	2
87	87	4
91	91	8
30	30	7
130	158	1
137	137	4
128	138	1
95	95	6
113	123	1
114	117	1
151	153	1
33	34	1
118	118	6
39	104	1
12	14	2
104	105	2
131	132	2
112	117	1
73	105	1
36	36	4
40	40	4
51	51	3
56	56	7
123	124	2
100	100	9
123	123	8
52	52	2
122	123	2
81	82	2
27	27	5
7	7	2
124	124	7
108	109	5
125	125	5
11	12	2
30	31	3
91	93	1
11	23	1
65	139	1
23	23	4
49	51	1
15	15	2
13	13	9
147	147	3
140	141	2
34	34	9
94	95	1
144	144	9
134	137	2
132	137	1
93	97	1
76	77	2
129	138	1
109	113	1
45	45	2
105	105	8
12	13	3
63	63	4
19	46	1
82	82	3
66	66	2
157	157	5
158	158	3
120	120	6
122	122	6
117	119	1
1	1	5
120	128	1
137	138	5
24	25	3
140	140	6
134	136	1
155	157	1
134	144	2
148	149	3
25	27	1
92	94	1
146	146	4
92	93	1
129	129	5
143	143	3
150	152	2
43	150	2
117	117	4
90	112	1
64	92	1
121	125	1
152	154	1
149	149	3
70	102	1
96	97	5
80	84	1
117	118	1
126	126	2
19	45	1
116	133	2
21	22	2
90	90	2
72	72	1
131	152	2
10	41	1
3	30	1
9	10	1
42	63	1
64	64	2
16	18	1
2	100	1
29	106	1
110	111	3
69	92	1
50	50	2
44	44	4
105	118	1
50	52	2
21	35	1
29	155	1
109	119	1
141	143	1
37	37	2
146	147	3
20	21	1
48	50	1
108	122	1
12	135	1
84	85	3
34	35	1
0	0	3
16	17	3
31	34	1
112	113	2
90	92	1
142	143	2
2	2	1
17	18	3
139	139	4
71	73	1
113	116	1
119	120	1
31	31	2
144	146	1
42	61	1
40	62	2
41	41	6
83	83	4
149	150	1
87	88	1
112	116	1
22	45	2
151	151	1
69	70	2
103	103	3
115	137	1
25	53	1
17	17	1
45	47	2
121	122	1
119	119	4
152	155	1
90	107	1
93	94	1
90	91	1
85	86	2
3	6	2
144	148	2
67	70	1
29	29	5
126	136	1
57	57	2
128	137	1
97	158	1
128	142	1
78	79	2
20	25	1
92	106	1
117	121	1
133	140	2
69	69	3
135	137	1
134	142	1
73	73	1
131	133	1
150	153	1
7	41	1
48	49	2
19	20	4
90	108	1
5	150	1
116	121	1
5	5	3
28	29	1
8	22	1
114	147	1
43	65	1
31	44	1
136	147	1
67	104	1
111	113	1
120	131	2
155	158	2
32	34	1
154	156	1
111	151	1
145	145	4
136	141	1
16	16	3
22	51	1
10	10	1
26	45	1
44	45	1
37	86	1
12	12	4
137	145	1
53	54	1
28	104	1
42	43	3
38	38	1
49	49	2
98	104	1
52	61	1
31	33	1
27	47	1
105	106	1
11	19	1
79	83	1
55	56	2
28	28	2
134	138	1
9	19	1
121	121	1
140	153	1
127	153	1
129	154	1
63	117	2
93	112	1
107	109	1
120	123	1
86	88	1
11	123	1
20	84	1
8	93	1
140	148	1
20	20	2
43	151	1
86	86	2
42	91	1
36	51	1
84	90	1
25	40	1
39	39	1
22	31	1
98	103	1
143	148	1
120	148	1
92	92	3
80	108	1
113	113	2
10	11	1
20	22	2
5	151	1
51	55	1
82	83	1
145	146	1
14	14	2
121	141	1
15	16	1
148	150	1
119	122	1
85	85	2
89	91	1
9	40	1
28	157	2
133	134	1
99	103	1
80	81	1
17	21	2
80	107	1
75	77	1
0	1	1
1	44	1
136	144	1
49	57	1
101	101	1
66	96	1
76	76	1
55	55	1
71	72	1
106	108	1
84	106	1
91	92	1
28	45	1
87	111	1
111	112	2
34	49	1
115	116	1
125	147	1
150	151	2
34	147	1
66	67	1
110	136	1
62	64	1
16	42	1
4	157	1
27	28	1
148	148	1
152	153	1
86	90	1
2	36	1
39	41	1
53	53	1
15	53	1
