158	158	3
0	2	2
6	46	1
149	149	2
117	123	1
153	153	2
82	82	3
126	140	1
108	108	4
128	128	11
132	133	2
87	143	1
102	102	1
15	16	1
5	5	6
74	92	1
3	3	7
71	71	6
19	22	1
154	154	6
156	156	6
130	132	1
48	48	6
114	114	6
152	152	15
39	39	2
148	148	4
89	111	1
163	164	3
122	122	3
163	163	5
64	64	3
11	12	2
161	161	5
27	41	1
6	6	4
22	22	2
98	98	5
40	50	1
19	128	3
159	159	6
69	138	1
34	34	5
105	105	1
24	24	4
41	41	1
114	119	2
135	135	5
125	130	2
67	67	1
38	38	5
42	42	4
35	35	3
132	132	5
18	81	1
17	69	1
13	13	5
16	16	5
160	160	5
127	127	2
167	167	4
37	37	7
145	153	2
138	143	2
25	25	11
170	170	9
159	160	2
139	164	1
11	49	1
139	139	7
81	104	1
148	149	4
17	17	3
56	70	1
114	163	1
44	45	2
140	147	1
0	0	6
112	112	10
86	86	2
103	103	6
94	94	2
70	70	3
20	20	3
134	135	1
57	57	2
113	113	4
126	127	2
16	18	2
47	47	8
141	141	4
26	26	4
64	65	1
97	97	4
114	115	2
19	19	3
4	4	2
98	99	1
1	1	3
92	92	5
158	159	1
139	149	1
142	142	3
145	147	1
76	76	3
164	164	4
64	67	1
133	133	3
126	141	1
75	75	7
107	108	2
27	27	4
131	131	7
137	155	1
55	56	1
8	8	6
3	4	1
145	145	9
18	18	4
43	43	4
50	51	1
121	121	3
85	85	6
155	155	5
99	100	3
123	123	2
138	138	3
121	123	2
13	14	5
12	12	4
81	121	1
158	160	1
15	15	4
111	111	4
107	150	1
63	64	2
2	16	1
145	146	1
162	163	2
15	18	2
125	140	1
164	165	3
165	165	3
86	123	1
44	44	4
126	126	3
101	101	3
92	99	1
63	69	2
148	151	1
115	115	3
87	88	2
150	150	3
96	96	5
91	92	1
65	65	3
46	46	6
39	40	1
91	91	5
71	72	1
53	57	1
147	147	5
74	93	1
28	28	2
45	51	1
155	156	1
34	35	2
33	33	1
168	168	5
120	120	2
119	119	6
168	169	2
103	104	2
75	79	1
54	62	2
110	110	4
74	95	3
114	117	3
78	82	1
149	151	1
24	25	2
114	155	1
83	97	1
130	131	1
19	49	2
71	73	1
23	23	2
14	14	4
105	106	2
13	118	7
130	130	4
45	45	4
129	129	2
77	77	1
153	154	5
7	7	5
80	80	3
97	100	1
49	49	3
143	167	1
166	166	3
104	104	3
45	58	1
115	116	1
162	162	5
139	150	2
2	3	3
117	117	1
100	105	1
98	123	1
120	124	2
139	155	5
49	50	2
72	110	2
3	166	1
157	157	1
78	80	2
79	79	3
2	2	2
53	53	2
0	42	1
84	149	2
109	110	2
164	166	1
118	118	2
116	117	2
62	64	2
26	35	1
123	124	2
84	84	3
36	36	1
72	72	3
9	10	2
48	49	5
25	27	1
14	15	2
9	9	4
137	137	2
145	155	1
75	76	2
73	73	2
90	90	2
1	2	2
166	167	1
135	161	1
134	134	3
90	159	3
86	116	1
0	1	3
107	107	1
142	143	2
1	4	2
100	100	2
112	116	2
160	161	1
52	87	2
10	10	6
20	21	1
143	162	2
77	80	2
139	140	2
5	8	1
81	128	1
85	86	1
56	57	1
83	85	1
94	96	1
153	155	1
11	11	6
69	69	1
63	63	2
40	40	5
88	88	1
146	152	1
81	81	2
18	108	1
128	129	2
85	87	2
75	82	2
102	141	1
121	133	1
144	144	3
140	161	2
93	94	1
87	87	3
169	169	2
69	72	1
116	119	1
136	136	3
152	154	1
74	79	1
105	135	2
127	166	2
99	118	1
94	95	1
10	16	1
143	143	1
123	156	1
151	151	1
22	23	2
144	145	2
127	162	1
70	71	1
72	74	1
55	55	1
58	62	2
112	113	2
125	125	1
46	47	1
140	152	1
127	128	2
102	105	1
54	55	2
37	40	2
140	142	1
68	71	1
140	141	1
18	19	1
122	123	2
102	104	1
47	48	3
146	146	5
35	38	1
139	142	1
123	143	1
37	38	2
91	170	1
73	85	1
21	21	4
156	157	1
40	113	1
86	122	1
149	155	1
55	90	1
90	91	3
12	13	1
103	128	1
141	165	1
53	136	1
140	140	2
169	170	1
85	138	1
75	98	1
4	5	1
138	139	2
101	102	2
34	107	1
36	38	1
7	21	1
83	83	1
47	51	1
73	137	1
17	18	1
63	75	1
50	50	3
6	20	1
139	141	1
107	111	1
65	67	1
45	49	1
163	167	1
157	161	1
54	54	3
129	131	2
7	9	1
69	70	2
78	79	1
37	41	1
43	52	1
80	105	1
83	134	1
100	102	1
142	163	1
157	162	2
120	121	1
92	93	1
109	109	1
118	126	1
131	132	1
153	156	2
52	130	1
91	119	2
43	158	1
124	142	1
91	93	1
143	159	1
64	66	1
64	72	1
140	143	1
75	90	1
83	84	1
93	95	1
44	49	1
20	22	1
152	155	1
106	106	1
67	69	2
120	122	1
155	165	1
131	142	1
69	134	1
122	143	1
21	23	1
57	133	1
51	51	1
88	117	1
132	136	1
99	119	1
93	100	1
133	163	1
16	17	1
57	62	1
49	52	1
79	82	1
98	103	1
64	69	1
95	96	2
104	105	1
89	97	1
155	163	1
108	109	1
116	116	1
161	162	1
148	156	1
9	51	1
157	168	1
33	35	1
11	16	1
26	27	1
47	49	1
122	145	1
