83	83	2
16	67	1
134	134	5
55	55	14
178	178	4
61	61	4
148	148	6
121	121	3
114	114	6
3	14	3
152	152	7
160	160	5
33	33	8
35	35	7
116	117	2
154	161	1
11	14	1
168	168	6
173	173	5
135	136	1
62	63	4
110	119	1
76	77	2
81	82	3
20	20	4
171	173	2
38	38	14
0	0	4
104	104	6
142	142	8
149	150	1
50	52	4
63	64	1
157	157	3
156	156	3
111	111	2
67	176	1
87	87	4
0	1	2
42	42	10
164	166	2
151	154	1
141	141	9
90	90	7
29	29	3
161	161	6
12	12	6
6	6	6
39	40	4
10	37	1
21	40	1
114	116	1
65	82	1
2	2	2
93	93	3
60	60	7
169	169	5
136	136	4
92	92	3
162	162	4
77	78	1
155	155	4
131	131	9
116	116	5
165	165	5
154	154	9
1	1	4
72	72	1
122	122	3
149	149	5
178	179	1
78	78	2
110	110	5
115	115	6
99	100	4
124	126	1
34	34	4
63	63	2
76	76	2
41	63	1
111	138	2
107	118	2
85	85	2
64	110	1
56	56	6
106	106	3
41	42	2
4	4	4
14	17	1
10	10	9
147	147	3
11	11	4
19	20	4
113	114	2
96	118	1
153	154	1
90	91	1
25	25	4
5	52	1
77	77	6
119	119	2
135	135	4
146	146	6
80	80	6
5	5	4
12	40	2
176	176	4
108	108	2
163	168	1
16	25	1
119	120	2
150	159	1
60	61	3
150	150	11
168	170	1
71	71	3
92	113	1
17	18	2
16	16	5
145	146	2
126	126	5
164	164	7
86	86	7
1	5	2
173	174	1
127	127	6
101	101	3
153	157	1
51	57	1
159	159	5
179	179	3
145	145	11
160	161	3
136	171	1
105	105	3
73	98	1
31	54	1
94	94	3
67	68	1
22	24	1
31	31	3
122	138	1
92	119	1
57	63	1
22	41	1
8	8	3
102	102	7
123	128	1
100	100	6
26	27	1
12	44	1
104	105	3
5	37	1
37	37	4
150	175	1
108	109	1
59	59	4
141	176	1
18	19	3
44	45	3
36	36	4
32	34	1
96	113	2
174	174	4
132	132	11
14	14	6
147	148	1
126	139	2
136	137	1
14	72	2
66	66	6
40	41	3
165	166	1
9	10	1
51	51	5
58	59	1
89	89	6
145	154	3
112	112	6
142	150	1
131	175	1
73	74	1
153	161	1
103	103	4
82	134	1
137	138	2
165	167	1
15	15	2
53	53	4
166	167	3
170	171	2
41	41	4
75	76	2
99	99	3
139	139	9
37	38	7
113	113	4
144	144	10
180	180	1
115	118	1
9	12	2
32	52	1
127	166	1
57	58	2
98	135	1
120	120	5
158	158	3
156	166	1
65	65	4
3	4	7
20	33	1
4	40	1
86	89	1
163	171	1
118	119	1
74	75	1
9	13	2
142	143	1
18	18	2
111	112	1
125	126	3
85	94	3
153	153	4
167	168	2
5	170	1
43	43	6
141	145	1
170	170	4
174	175	2
24	29	2
49	49	1
111	123	1
109	147	1
98	100	2
51	83	1
26	30	1
86	91	1
133	133	5
128	128	1
118	118	1
110	147	1
29	101	1
25	26	2
117	118	3
156	162	1
1	41	2
151	175	1
18	45	1
158	173	1
18	22	2
140	140	3
106	107	1
111	144	1
137	139	1
143	143	4
131	149	1
81	81	3
42	43	2
5	8	1
43	63	1
138	179	1
123	124	5
112	113	2
114	145	1
9	9	5
137	137	2
118	120	1
67	67	4
85	87	2
126	128	2
86	87	2
115	154	3
22	45	1
52	52	3
10	14	1
75	88	1
163	163	3
179	180	4
113	147	1
109	110	2
27	27	6
61	112	1
60	108	1
171	171	2
124	124	3
30	30	5
151	151	5
16	56	1
108	122	1
41	61	1
101	105	2
140	141	3
154	155	2
39	39	3
10	68	1
107	107	4
98	104	1
117	117	1
102	107	1
40	40	2
125	125	4
79	79	1
56	57	3
151	152	2
43	61	1
23	24	2
17	17	4
12	41	1
104	118	1
100	104	1
20	22	1
19	19	3
157	158	2
102	103	1
54	55	4
27	28	1
62	135	1
10	32	1
91	128	1
21	42	1
79	80	2
11	40	1
32	32	5
81	86	1
54	75	1
172	172	3
76	80	1
62	62	1
74	78	1
176	177	2
163	164	1
43	44	1
2	14	2
131	133	1
109	112	1
131	150	2
156	161	1
71	78	1
143	145	1
98	98	4
162	163	1
107	108	1
64	64	4
22	22	1
134	135	1
102	114	1
46	59	1
5	41	3
75	75	2
131	159	2
131	139	1
157	170	1
96	104	1
149	173	1
62	83	1
103	106	1
142	176	1
33	38	1
121	122	2
118	149	1
33	34	1
20	23	1
130	153	1
85	91	1
28	28	2
72	73	1
146	147	5
82	85	1
116	118	1
66	67	2
103	104	1
114	115	1
112	134	1
20	40	2
126	170	1
50	50	3
11	35	1
140	157	1
159	162	1
112	130	1
144	166	1
92	104	1
102	110	1
108	123	1
104	136	1
141	150	1
114	162	1
74	74	2
152	169	1
132	159	1
31	32	2
6	37	1
164	165	1
49	92	1
127	128	2
80	81	2
16	50	1
140	174	1
100	101	2
7	15	3
7	7	3
82	82	1
175	175	3
150	151	1
13	13	4
24	24	1
82	84	3
27	31	1
138	149	2
50	51	2
29	30	1
7	8	2
73	73	1
77	80	1
167	167	4
56	59	1
174	179	1
22	23	1
28	31	1
8	29	1
130	130	1
45	45	2
1	6	1
133	134	2
120	131	1
54	54	2
12	29	1
43	59	1
32	53	1
4	28	1
3	3	1
8	9	1
94	110	1
95	96	1
54	82	1
42	89	1
84	85	1
103	130	1
92	114	1
92	94	1
126	133	2
6	14	1
144	160	1
11	25	1
103	125	1
54	60	1
85	86	1
167	172	1
147	151	1
96	96	1
100	126	1
20	24	1
66	73	1
94	95	4
134	139	1
5	17	1
76	82	1
97	98	1
16	17	1
5	10	1
109	109	2
24	27	1
150	153	1
145	150	1
101	102	3
177	177	1
142	153	1
125	167	2
138	138	2
98	111	1
123	123	2
114	117	1
103	123	1
6	9	1
23	25	1
64	83	1
118	127	1
154	156	1
66	80	1
11	32	1
125	169	1
129	130	1
32	33	1
88	88	2
84	117	2
84	147	1
91	92	1
111	145	1
44	44	1
55	60	1
49	50	1
10	11	1
151	164	1
124	128	1
97	97	3
13	14	1
65	72	1
87	94	1
123	125	1
43	45	1
68	136	1
71	95	1
5	16	1
145	176	2
173	176	1
167	170	1
95	95	1
79	137	1
115	148	1
31	169	1
87	88	1
96	106	1
122	124	1
5	36	1
36	38	1
35	40	1
127	129	1
89	126	1
45	96	1
37	55	1
134	137	1
11	38	1
171	174	1
171	172	1
91	97	1
1	36	1
161	162	1
158	169	1
89	90	1
98	112	1
58	89	1
5	6	1
10	15	1
141	148	1
129	129	1
92	93	1
34	39	1
68	68	1
119	122	1
95	121	1
94	150	1
82	83	1
43	49	1
157	161	1
174	178	1
28	58	1
168	169	1
115	117	1
70	70	1
93	98	1
115	122	1
53	71	1
163	165	1
122	148	1
