138	138	11
41	41	6
135	135	9
148	148	20
122	122	10
113	113	14
98	98	13
108	111	2
95	95	7
108	109	9
29	29	9
157	157	10
42	43	2
133	133	6
115	115	10
154	154	11
106	151	1
102	102	5
93	96	1
104	104	3
46	46	11
2	2	8
151	151	13
40	56	1
127	127	7
73	73	12
27	29	1
105	105	12
77	77	6
107	107	13
34	141	2
51	51	5
139	139	15
0	0	8
111	116	2
100	105	2
1	100	1
110	110	11
10	10	9
67	67	7
104	142	1
109	147	1
132	132	12
131	131	18
52	52	6
48	49	10
137	148	1
70	70	9
28	28	10
145	145	4
117	117	12
78	95	1
109	109	14
116	116	11
17	17	6
141	141	12
83	83	4
43	43	12
82	84	2
15	49	1
148	154	1
19	19	6
10	11	2
63	63	9
136	136	17
144	147	1
73	139	1
147	147	9
145	146	4
137	137	15
49	49	4
102	103	3
67	70	1
10	31	1
25	25	8
100	100	7
18	18	13
106	106	11
86	86	15
125	125	10
39	40	2
31	31	9
124	124	5
48	48	5
135	136	2
28	39	1
134	134	6
7	7	6
44	44	8
89	89	8
29	103	1
24	130	1
53	53	8
140	140	13
112	115	1
34	34	5
77	78	1
87	108	1
155	155	10
114	114	13
67	75	1
88	89	3
4	4	5
40	40	6
110	112	1
102	130	1
66	66	8
86	87	8
108	108	3
56	56	6
68	84	1
24	37	1
35	35	7
5	5	7
24	24	7
9	15	1
78	78	16
91	92	2
11	11	7
52	57	2
13	14	3
38	38	6
153	153	9
111	112	3
80	81	4
27	27	7
146	146	8
120	121	3
44	45	3
142	156	1
124	125	4
130	130	11
9	33	1
105	106	5
96	96	7
32	32	13
138	139	3
149	149	6
101	103	1
28	36	2
15	17	1
92	96	1
143	143	5
79	79	8
91	106	1
126	136	2
111	111	7
36	36	9
120	120	9
70	106	1
23	23	7
123	123	11
84	85	2
3	3	6
55	55	6
5	69	2
150	150	12
142	142	5
12	13	2
121	121	11
9	9	5
47	47	7
49	51	1
113	116	1
14	14	7
85	89	1
122	123	3
117	119	1
155	156	4
85	116	1
103	103	8
18	19	5
127	139	1
137	138	3
144	146	3
84	84	4
72	98	1
118	118	8
113	115	9
109	110	4
111	115	1
33	46	1
1	1	2
145	148	1
93	93	9
69	121	1
156	158	4
114	115	6
55	56	2
34	41	2
39	39	3
108	110	3
69	69	10
22	22	6
90	94	1
107	140	1
121	122	5
17	18	2
85	94	1
39	42	2
99	99	14
50	50	4
134	135	1
70	81	1
15	15	13
90	91	2
13	13	2
12	31	1
152	152	5
67	69	2
87	89	1
133	134	3
119	131	2
126	126	7
91	91	6
42	42	10
93	118	1
121	123	3
112	112	8
17	99	2
16	16	4
52	55	2
110	122	3
125	126	4
81	81	9
80	80	5
145	147	2
131	133	1
0	134	1
51	52	1
14	15	3
157	158	1
65	65	4
83	93	1
136	144	2
46	47	3
100	102	1
27	66	1
68	68	8
47	48	2
136	137	1
43	70	1
158	158	7
104	105	2
25	47	2
118	137	1
47	77	1
116	117	3
126	134	2
67	141	1
10	51	1
118	119	4
109	113	1
111	123	1
77	79	1
71	71	12
40	41	4
90	90	4
113	114	5
110	115	2
72	72	5
144	144	6
56	62	3
92	92	7
17	50	1
150	152	1
24	26	1
45	45	4
79	80	2
75	75	6
101	101	7
74	74	1
47	49	1
93	94	1
119	120	2
143	149	2
78	105	1
107	108	2
37	70	1
120	138	1
94	94	5
26	98	1
30	30	5
113	134	1
82	83	4
62	62	5
129	130	3
8	12	1
38	39	1
77	91	1
69	148	1
116	126	2
103	111	2
128	128	5
83	84	1
68	107	2
88	88	8
142	143	5
50	51	7
70	121	1
124	126	2
29	102	1
119	119	8
36	37	2
117	118	2
156	156	5
9	12	1
72	73	1
14	34	1
67	68	2
123	125	2
20	21	2
151	152	1
54	55	4
141	142	1
123	124	5
12	12	5
8	8	3
54	54	4
19	49	1
64	127	1
14	145	1
111	113	1
131	155	1
79	94	2
85	85	4
87	87	15
118	122	1
154	155	4
129	129	5
72	131	2
50	93	1
84	86	1
18	20	1
149	150	2
156	157	3
32	40	1
78	90	2
34	35	1
83	85	1
45	100	1
69	70	1
15	146	1
83	137	1
33	33	2
106	107	3
8	11	2
27	28	1
68	69	2
107	121	1
16	17	1
129	131	1
6	6	3
118	121	1
100	101	1
69	77	2
77	80	1
16	148	1
97	97	6
128	138	1
106	111	1
12	32	2
81	89	1
99	152	1
70	105	2
20	20	2
35	107	1
144	145	1
2	120	1
115	117	1
158	159	2
95	96	3
15	16	1
135	138	1
78	80	3
124	137	1
20	55	1
130	133	1
8	10	1
98	142	2
129	156	1
78	83	1
14	50	1
155	157	1
82	82	4
96	117	1
49	81	1
75	157	1
152	153	1
36	69	1
95	116	1
108	123	1
18	122	2
52	53	2
21	21	5
103	142	1
24	95	2
106	140	1
150	155	1
26	27	1
146	147	4
68	90	2
81	90	1
91	93	1
93	95	1
133	138	1
26	26	6
77	140	1
23	24	3
100	103	2
97	149	1
120	127	1
3	36	1
119	134	1
28	30	1
95	118	1
37	37	5
119	157	2
134	147	1
9	10	2
16	134	1
7	32	1
24	97	1
65	66	1
99	100	1
139	140	3
86	92	1
133	137	1
46	49	1
79	87	1
94	95	2
57	57	2
67	71	1
52	76	1
73	75	2
81	82	1
127	138	1
126	127	1
41	49	1
62	114	1
75	116	2
70	110	1
85	144	1
62	63	1
53	54	1
49	50	1
84	108	1
12	15	1
87	90	1
89	94	1
2	99	2
4	22	1
104	106	2
31	95	1
45	68	1
95	120	1
135	137	2
14	16	1
3	70	1
101	128	1
73	103	1
28	29	2
115	145	1
3	4	2
112	120	1
89	90	1
151	155	2
23	47	2
37	81	1
22	128	2
86	118	1
115	116	2
120	126	2
77	119	1
31	36	1
93	114	1
107	113	1
153	154	1
44	84	1
131	132	2
128	140	1
36	43	1
114	116	1
127	148	1
47	54	1
23	36	1
144	148	1
23	25	1
35	36	1
67	72	1
68	71	1
11	20	1
112	114	1
75	77	1
122	125	1
98	129	1
10	42	1
43	47	1
21	22	1
14	41	1
91	97	1
96	149	1
7	8	2
79	82	1
71	131	1
46	144	1
105	129	1
147	148	1
127	141	1
8	9	1
78	79	1
22	127	1
94	98	1
86	89	1
115	118	1
103	104	1
38	80	1
34	124	1
119	121	1
0	1	1
76	77	1
111	120	1
35	42	1
41	42	1
77	90	1
1	2	1
20	53	1
85	86	1
65	105	1
11	14	1
22	28	1
43	119	1
85	143	1
49	62	1
