136	137	1
79	79	1
152	156	1
179	191	1
11	13	1
117	117	2
144	144	3
137	137	2
71	71	2
136	136	1
151	151	1
68	68	3
48	48	4
184	184	2
61	61	4
23	25	1
43	43	7
9	9	2
31	138	2
27	36	1
193	193	2
124	124	1
138	138	2
32	32	3
52	52	4
100	114	1
1	1	2
141	196	1
161	189	1
149	149	4
25	25	3
194	194	4
142	142	2
36	37	2
5	16	1
122	122	1
191	191	3
0	0	2
184	185	2
43	183	1
144	145	1
64	66	1
126	126	1
70	70	2
121	121	1
38	38	3
13	13	1
100	100	2
181	181	3
65	65	3
108	110	1
51	51	1
33	33	4
173	174	1
3	3	7
146	159	2
162	162	6
8	9	2
112	112	4
110	110	1
115	116	2
155	167	1
111	112	2
165	189	1
147	147	5
26	26	1
37	37	3
167	167	1
159	181	1
47	48	1
30	30	2
111	111	1
109	109	3
0	2	1
139	139	1
131	140	2
145	145	2
187	187	3
134	150	1
163	164	1
135	135	1
10	10	3
89	89	1
49	49	1
152	153	2
140	140	5
37	60	1
159	160	1
31	31	1
56	56	1
13	14	1
20	21	2
22	27	1
186	186	2
23	23	1
134	134	3
172	172	1
28	30	2
75	75	2
78	78	1
4	14	1
16	16	3
35	35	2
57	57	1
20	20	3
4	4	1
23	24	1
165	165	1
46	46	1
21	21	1
22	23	1
165	166	3
42	42	2
11	11	3
75	76	1
8	12	1
17	18	1
143	143	2
129	129	1
174	174	2
45	45	2
108	108	3
6	7	1
94	96	1
123	133	1
29	30	1
147	188	1
15	15	1
69	71	1
98	124	1
18	38	1
6	143	2
196	197	1
28	28	1
102	105	1
17	17	2
54	56	1
15	16	1
83	84	2
47	47	2
29	89	2
107	130	1
26	27	1
190	190	2
172	182	1
168	174	1
58	60	1
40	40	2
142	152	1
15	20	1
71	72	1
78	79	1
64	64	1
154	193	1
14	14	1
158	159	1
131	138	1
55	140	1
6	6	1
140	141	1
24	25	1
184	196	1
175	175	2
59	59	1
183	183	2
4	9	1
45	46	1
41	42	1
8	8	1
18	39	1
103	104	1
106	107	1
43	196	1
168	169	1
152	152	1
157	157	3
168	168	1
158	158	1
145	155	1
195	195	2
195	196	1
5	5	1
74	74	1
3	192	1
62	86	1
186	193	1
47	128	1
192	192	1
97	103	1
106	106	1
73	74	1
155	155	2
179	180	1
167	168	2
144	159	1
75	85	1
41	41	1
29	36	1
188	189	1
118	118	1
20	32	2
72	77	1
95	96	1
9	11	1
150	150	1
156	156	1
36	36	1
182	183	1
196	196	1
34	35	1
148	172	1
125	125	1
70	71	1
94	94	1
178	178	1
152	169	1
7	7	1
170	172	1
113	114	1
30	31	1
22	24	1
142	194	1
