221	221	3
48	48	4
147	147	3
119	119	1
21	21	4
161	161	3
185	186	1
3	3	7
79	80	3
150	150	9
103	105	1
36	37	2
61	61	1
54	54	4
47	47	5
28	28	3
66	66	9
179	180	6
234	234	2
174	178	1
85	128	1
166	185	1
133	134	3
46	54	1
110	110	1
154	154	3
19	19	2
164	164	6
74	128	1
228	229	1
107	108	2
0	1	3
224	224	2
59	59	7
122	122	4
162	162	2
67	73	1
166	168	2
146	146	2
10	20	1
187	188	3
170	179	1
123	124	6
208	208	5
4	4	9
211	212	1
10	10	3
142	142	3
220	220	2
121	121	3
99	99	3
28	128	2
68	68	5
176	176	5
51	51	1
145	145	6
134	134	4
50	50	3
242	242	4
2	2	2
150	160	1
140	141	3
71	74	2
218	218	4
230	230	4
49	49	2
67	119	1
17	200	1
116	116	3
33	39	1
65	65	6
29	29	3
130	149	1
40	40	6
179	185	2
211	211	3
138	150	1
183	231	2
49	51	1
35	36	1
109	109	3
190	197	1
80	81	3
36	36	3
128	128	4
65	70	3
174	174	3
164	168	1
172	233	1
86	86	8
102	130	1
81	82	1
8	122	1
0	0	2
44	45	1
72	72	3
241	241	5
199	199	4
42	53	2
219	219	5
8	8	11
57	57	9
223	223	4
55	58	1
3	6	1
155	155	7
215	230	1
106	106	3
170	202	1
116	185	1
150	151	6
26	55	1
118	118	4
228	228	3
114	114	3
183	183	5
99	177	1
70	70	5
105	106	2
158	158	4
195	213	1
58	82	1
144	157	2
64	64	3
45	46	1
70	120	2
3	8	1
73	73	3
137	137	5
44	113	1
168	168	6
37	70	1
74	74	5
24	25	1
151	167	1
27	28	1
148	148	6
167	167	4
78	78	3
53	53	3
130	131	2
48	50	2
159	159	4
1	1	6
34	35	1
15	16	3
114	118	2
63	64	2
29	123	1
144	144	4
81	83	3
217	218	1
183	207	2
34	34	6
115	115	5
87	87	1
71	72	1
127	132	1
74	242	2
171	173	1
19	150	1
197	197	3
105	105	3
167	178	2
91	91	1
50	58	1
84	84	7
207	207	1
40	127	1
107	107	1
144	162	1
58	59	3
219	233	1
9	10	4
169	169	5
116	117	3
10	24	1
173	173	5
71	118	1
152	152	3
27	27	9
137	162	1
170	171	2
63	63	4
111	111	2
169	170	1
79	161	1
113	113	7
170	170	3
140	140	1
154	155	4
177	177	4
156	156	9
57	58	1
9	64	1
152	153	2
8	224	1
70	172	1
157	158	1
215	215	1
139	139	1
163	164	1
7	7	5
26	26	5
9	9	3
153	153	2
31	31	5
56	58	1
143	163	2
159	160	4
239	242	1
62	85	2
175	175	3
20	21	3
123	123	4
53	54	2
69	191	1
134	136	1
83	83	7
196	196	5
136	136	2
102	153	1
85	85	5
201	201	1
47	70	1
178	178	8
67	67	5
117	123	1
229	229	4
148	149	2
75	75	2
114	129	1
17	19	1
216	216	2
114	136	1
136	137	1
33	33	3
38	38	3
46	46	4
171	171	2
150	163	2
23	35	1
235	235	3
62	62	2
162	166	1
236	236	4
73	79	1
125	127	1
179	179	5
135	135	5
66	67	3
22	23	2
173	176	1
20	20	1
160	169	3
207	208	1
30	55	1
127	128	2
226	226	6
189	191	1
17	17	1
95	95	3
102	102	3
199	203	1
131	138	2
240	240	2
171	217	1
204	204	1
233	233	2
100	100	2
52	52	1
169	187	1
184	185	3
25	176	1
99	100	1
160	196	1
214	214	1
119	120	2
12	12	2
3	171	1
88	127	1
173	174	1
142	143	1
231	231	3
98	98	6
224	225	2
39	43	1
159	179	2
11	12	2
156	158	1
200	201	2
10	44	1
39	39	3
112	112	1
42	49	1
37	37	3
32	32	1
69	69	3
109	110	1
213	213	2
219	220	1
189	189	2
201	202	1
101	120	1
95	158	1
43	47	1
80	100	1
27	70	1
80	83	1
96	109	1
47	61	1
53	59	3
204	231	1
96	97	1
208	218	1
23	71	1
47	52	1
14	14	3
85	86	4
9	11	2
18	19	1
19	20	1
62	64	1
16	16	4
28	46	1
104	104	2
127	127	1
181	181	4
171	172	2
73	141	1
200	200	1
203	218	2
38	42	2
47	48	2
61	71	2
11	11	2
233	236	1
138	138	4
43	43	4
33	34	2
186	187	1
182	183	1
54	79	2
113	114	2
127	138	1
166	166	3
160	160	4
217	233	2
133	143	3
218	233	1
186	205	1
156	157	2
55	55	4
22	22	2
17	20	1
59	60	2
74	75	1
184	186	2
13	14	2
6	6	2
186	186	3
78	79	2
61	170	1
152	154	1
195	195	1
21	38	1
143	143	1
79	79	2
226	227	2
125	125	2
25	74	1
20	109	1
192	204	1
29	30	1
206	206	1
225	225	2
126	126	4
14	155	1
210	212	2
206	207	2
212	212	2
133	167	1
238	238	4
60	61	1
144	178	1
71	71	4
131	132	1
31	46	1
153	174	1
41	41	2
82	83	1
24	24	2
143	152	1
77	139	1
135	136	1
139	140	1
72	112	1
18	20	1
155	158	1
5	7	1
234	238	1
147	187	1
73	145	1
76	76	2
24	26	2
128	129	1
16	24	1
155	175	2
1	5	1
141	141	3
164	165	1
124	126	2
97	111	1
175	198	1
25	25	1
203	203	2
113	116	1
111	112	1
77	77	1
37	44	1
120	120	2
217	217	3
11	15	1
103	103	1
53	60	3
161	166	1
129	129	2
158	159	1
180	183	1
182	182	2
194	196	1
31	47	1
73	105	1
52	53	1
201	230	1
159	171	1
194	227	1
3	9	1
42	42	1
149	150	1
22	66	1
209	227	1
151	151	2
2	39	1
193	195	1
40	63	1
215	216	1
16	223	1
50	56	1
77	78	1
23	65	1
188	189	1
156	162	1
185	185	2
172	172	4
166	183	1
180	180	2
149	152	1
119	136	1
134	135	2
119	234	1
10	11	2
76	80	1
29	42	1
30	32	1
22	40	1
39	54	1
87	105	1
135	152	1
194	194	2
137	138	1
236	237	1
56	56	4
108	109	1
80	84	1
139	141	1
75	139	1
146	147	2
204	208	1
6	51	1
221	222	1
30	30	3
82	82	5
187	187	2
9	16	2
190	190	1
175	178	1
98	99	1
13	13	2
32	33	1
107	117	1
101	101	1
46	198	2
205	207	1
17	41	1
198	198	1
135	176	1
129	201	1
185	207	1
176	178	1
65	66	2
79	81	1
29	88	1
128	172	1
189	202	1
42	70	1
67	129	1
161	165	1
132	132	2
216	217	1
202	202	1
143	145	1
238	239	1
148	166	1
46	63	1
130	130	1
30	114	1
88	106	1
45	45	1
194	195	1
5	118	1
46	80	1
60	60	2
97	97	1
198	233	1
92	92	1
237	237	1
143	144	1
15	15	2
162	163	1
18	18	1
124	125	1
160	178	1
181	183	1
6	151	1
149	149	2
129	174	1
108	133	1
48	224	1
233	234	1
69	114	1
239	239	2
181	182	1
107	127	1
17	18	1
55	57	1
203	206	1
3	58	1
21	23	1
211	213	1
195	227	1
193	193	1
25	26	1
128	130	1
55	66	1
109	113	1
123	125	1
68	144	1
58	60	1
159	170	1
203	240	1
69	70	2
12	14	1
53	134	1
64	65	1
7	15	1
54	58	1
232	232	1
29	37	1
22	107	1
83	84	1
133	133	1
187	199	1
166	180	1
129	130	1
191	191	1
183	186	1
11	24	1
117	140	1
168	182	1
144	158	1
62	63	1
192	196	1
181	185	1
205	205	1
28	170	1
9	32	1
21	22	1
147	148	1
62	72	1
51	52	1
18	65	1
109	114	1
