17	17	2
218	220	1
241	241	4
186	186	2
170	170	3
208	208	8
214	214	2
222	222	4
45	46	1
195	195	1
111	111	6
159	159	3
112	112	4
104	104	1
228	228	3
84	84	2
229	229	5
0	45	1
24	24	2
168	168	4
94	95	2
26	26	2
182	182	1
188	188	4
14	31	1
76	76	1
237	238	3
15	15	5
56	57	1
117	117	1
213	213	3
172	172	3
236	236	2
61	214	1
69	69	2
6	7	2
234	235	9
102	103	3
183	184	3
163	163	3
36	53	1
194	194	1
157	157	2
11	11	2
187	187	4
188	189	2
109	110	1
91	91	4
0	2	1
81	83	1
58	58	3
199	199	5
9	39	1
238	238	2
37	37	2
162	167	1
70	71	2
233	233	3
16	16	6
145	145	1
2	11	1
224	224	2
54	160	1
216	216	3
156	156	3
117	145	1
25	26	3
66	66	2
242	243	1
237	237	2
23	23	8
27	52	2
179	179	2
40	41	2
145	148	1
68	93	1
174	177	2
8	10	1
38	39	1
39	40	1
39	39	2
164	179	1
85	85	6
30	32	1
43	43	2
229	230	3
183	233	1
51	51	5
50	50	3
210	211	3
37	38	2
212	212	1
153	153	3
245	245	4
215	215	1
70	70	3
186	209	1
190	196	2
230	230	3
48	48	3
170	171	1
49	49	6
79	80	1
109	109	4
218	222	1
33	34	1
85	95	1
96	98	1
52	52	4
202	202	5
53	93	3
27	27	5
191	203	1
239	239	2
81	81	2
5	7	1
196	196	2
98	99	1
83	86	1
164	164	4
207	207	2
7	7	6
102	102	5
59	60	2
12	12	1
46	46	4
239	240	1
55	58	1
191	192	1
181	182	1
55	55	1
49	60	1
177	177	4
210	217	1
29	31	1
60	60	2
78	94	1
200	200	4
69	70	1
175	175	4
77	80	1
73	73	2
169	215	1
211	211	3
217	217	2
22	22	3
248	248	4
85	86	1
151	151	2
206	206	2
41	42	2
5	6	1
159	164	1
65	65	3
233	234	1
7	15	2
168	169	1
99	107	1
38	38	8
95	99	1
242	242	4
108	108	2
215	218	1
177	178	1
223	223	1
219	220	1
174	174	1
34	34	5
164	169	2
110	110	4
12	33	1
2	6	1
99	99	2
162	162	1
69	86	1
48	68	1
219	219	4
180	181	2
70	160	1
151	152	1
18	18	4
28	29	1
7	8	1
71	71	4
69	71	1
68	68	3
63	63	3
50	51	2
48	58	1
184	184	3
198	218	2
208	209	1
35	35	4
204	204	2
4	5	1
31	32	1
154	154	4
169	172	1
226	226	3
186	193	1
209	209	3
180	180	4
191	191	2
202	205	2
235	235	5
223	224	2
90	115	1
192	196	1
15	16	5
227	227	3
14	14	2
182	235	1
36	42	1
80	84	1
95	95	2
176	176	2
21	21	3
195	196	1
18	21	1
32	32	2
8	36	1
51	52	1
167	167	2
32	230	1
82	86	1
9	10	2
88	89	1
98	98	2
160	162	1
114	114	2
152	152	3
2	3	2
119	119	1
100	100	1
78	78	2
247	247	1
8	8	1
221	221	2
54	78	1
192	192	2
163	164	2
118	118	1
217	218	1
12	47	1
181	181	4
4	4	5
61	61	5
194	220	1
69	88	1
197	197	2
31	31	3
202	203	1
49	57	2
47	47	1
82	88	2
169	176	1
40	109	1
45	45	1
25	25	3
195	240	1
225	226	4
120	120	1
71	72	1
160	160	2
78	80	1
33	33	1
75	75	2
57	89	1
52	71	2
44	46	1
215	216	1
205	205	2
21	22	1
96	96	1
189	189	1
56	56	3
165	169	2
47	48	1
82	82	1
244	244	3
187	189	4
98	102	1
3	3	1
240	240	3
92	92	3
10	10	2
162	165	1
95	96	2
171	171	5
70	86	1
243	244	1
51	85	1
30	30	2
225	225	1
189	192	1
117	118	1
232	232	3
185	185	1
220	220	5
240	242	1
173	173	1
183	183	2
56	97	2
110	111	2
29	30	1
241	242	2
198	200	2
158	158	3
19	19	2
81	82	1
200	201	3
54	54	4
40	40	2
114	115	2
31	33	1
62	64	1
224	235	1
62	156	1
185	186	1
71	86	1
147	147	1
53	54	1
106	106	1
76	100	1
178	184	1
226	241	1
26	103	1
79	83	1
53	53	1
90	90	2
5	5	3
172	173	1
75	76	1
215	233	1
246	247	2
103	103	1
41	41	1
201	201	2
239	248	1
166	200	1
150	150	2
220	242	1
42	50	1
118	119	1
70	159	1
96	99	1
160	161	2
6	12	1
165	165	1
28	28	2
113	114	1
62	62	1
20	20	2
246	246	2
101	101	1
59	59	1
191	200	1
42	43	1
120	144	1
237	246	1
81	94	1
75	202	1
93	94	1
47	53	1
10	11	1
167	169	1
100	108	1
209	210	1
107	108	2
43	49	2
77	78	1
43	44	1
68	69	1
117	158	2
224	225	1
8	11	1
14	229	1
23	27	1
203	205	1
245	246	1
32	33	1
59	201	1
119	120	1
8	9	1
194	195	1
89	89	1
218	218	1
231	232	1
150	151	1
63	247	1
50	57	1
95	97	1
77	77	1
42	49	1
210	210	1
46	47	1
50	58	1
90	116	1
226	228	1
115	116	1
78	84	1
120	145	1
221	248	1
149	149	1
47	166	1
103	104	1
103	105	1
14	22	1
71	98	1
48	57	1
