9	202	1
215	217	1
168	169	3
182	182	7
209	209	13
104	104	1
34	34	12
24	24	14
13	14	6
200	200	7
194	217	2
10	37	1
68	68	9
165	165	10
22	43	2
178	178	10
203	203	20
33	34	2
69	69	5
230	231	1
198	199	3
213	213	2
8	36	1
170	170	10
58	58	10
29	29	8
153	153	8
207	207	10
224	224	9
219	219	16
158	159	2
220	220	8
32	32	13
88	88	5
189	189	9
189	191	1
193	199	2
38	38	16
55	55	3
21	150	1
85	91	1
46	46	13
49	49	13
23	23	13
178	179	4
109	109	8
177	177	7
198	201	1
31	31	17
183	183	12
211	211	10
77	77	5
4	71	1
58	94	1
20	20	20
174	182	1
179	179	7
99	99	5
246	246	6
164	164	6
88	89	2
249	249	1
114	114	7
201	201	15
51	154	1
189	190	3
90	90	6
65	65	5
98	98	6
45	45	9
75	98	1
176	179	2
206	212	1
204	204	10
237	239	2
224	225	2
21	21	6
175	175	11
9	10	2
112	112	7
2	6	1
48	112	1
56	56	12
203	226	1
39	39	18
26	26	20
196	196	10
208	208	8
216	216	8
208	209	4
6	6	8
18	18	15
181	181	12
85	85	5
85	151	1
56	57	2
86	86	5
187	187	6
107	107	11
241	242	3
116	116	13
112	113	1
80	83	1
98	99	4
166	167	3
219	220	1
167	167	5
47	47	7
95	96	2
239	239	4
113	113	6
37	37	16
22	22	9
10	21	1
26	28	1
70	102	1
111	153	1
59	61	1
87	179	1
172	178	1
234	234	9
151	151	8
59	60	7
15	16	5
150	150	5
51	90	1
204	206	2
53	53	9
101	101	7
19	20	5
95	95	4
102	102	4
4	5	5
31	32	4
42	42	10
211	212	2
160	160	10
115	115	9
193	220	1
50	50	11
185	185	9
5	48	3
207	209	1
15	15	11
172	173	2
240	240	9
92	93	2
110	110	17
7	12	1
44	44	13
234	235	3
218	219	6
54	54	9
169	170	1
214	214	10
30	33	2
70	70	6
170	172	1
152	152	5
247	247	13
157	157	7
233	233	6
222	223	3
163	164	6
159	159	3
248	248	5
11	11	11
57	58	1
114	145	2
79	79	7
82	82	6
228	229	2
25	25	6
57	61	1
36	36	12
163	163	9
51	70	1
52	54	1
49	81	1
198	198	5
80	80	3
197	198	2
25	26	3
89	91	2
168	168	10
74	78	1
169	169	4
242	242	6
62	67	1
228	228	6
4	184	1
61	248	2
172	175	3
25	33	1
207	236	1
188	188	7
42	44	1
221	221	10
70	94	1
146	146	5
183	186	1
19	19	7
2	2	8
64	64	8
216	217	5
42	178	1
61	61	3
161	162	2
108	108	9
167	168	4
54	55	2
15	82	1
87	87	10
193	194	1
197	197	9
166	166	9
78	79	2
164	166	2
10	44	1
173	173	10
232	232	7
76	244	1
17	17	9
58	73	1
105	106	2
10	11	1
52	87	4
16	28	1
244	244	9
97	98	5
156	156	15
68	69	5
62	242	1
93	93	5
245	245	6
43	43	21
208	212	1
225	225	8
91	91	2
212	212	4
21	76	1
95	179	1
213	214	3
182	183	1
117	117	9
218	218	5
71	71	4
166	181	1
154	154	8
33	37	1
175	176	6
41	41	6
118	118	8
241	241	6
12	12	8
60	60	5
236	240	1
15	60	1
181	182	4
161	161	6
230	230	7
52	52	10
13	13	1
121	121	1
3	3	5
94	94	10
217	218	3
55	57	3
223	223	8
150	205	1
10	10	12
73	73	4
28	29	6
215	215	10
235	235	13
87	101	2
35	36	5
103	104	3
159	183	2
176	176	13
40	40	11
33	33	10
3	65	2
96	107	1
97	119	1
169	235	1
4	4	6
49	50	3
30	30	10
215	218	2
212	246	1
210	221	1
81	81	7
106	107	2
75	75	5
171	171	6
5	5	9
54	65	1
207	211	1
34	35	2
18	19	3
195	196	2
81	85	5
26	38	1
158	158	8
7	7	2
51	51	11
174	174	8
184	192	1
64	66	1
207	222	2
10	230	1
184	184	3
110	115	1
202	228	1
65	68	1
202	202	6
16	16	7
195	195	4
59	59	8
217	217	8
187	188	3
97	97	2
105	105	2
76	76	8
231	231	15
226	227	3
2	3	1
57	57	7
185	186	2
10	12	1
113	114	2
219	237	1
4	49	1
110	192	1
194	195	4
69	96	2
208	237	1
119	119	7
76	78	3
73	78	1
171	174	2
173	174	1
183	192	1
86	87	2
81	83	1
41	42	1
231	233	2
35	35	4
30	31	1
227	228	5
30	77	1
169	183	1
83	83	5
226	226	5
27	27	13
78	91	2
168	173	1
4	17	1
4	61	1
55	67	2
238	239	6
74	74	5
89	90	2
191	191	1
40	41	3
237	245	1
171	173	1
229	230	1
8	8	7
214	226	2
7	33	1
208	214	1
84	84	2
114	115	3
63	63	6
157	158	1
70	85	2
162	162	6
180	180	7
56	58	1
243	243	3
174	175	3
28	28	8
48	60	1
30	112	2
99	100	1
95	97	2
236	249	2
71	73	2
193	208	2
73	75	1
193	193	7
227	227	6
44	90	1
192	197	1
15	37	1
186	186	6
187	189	3
208	210	2
96	177	1
179	180	1
72	72	2
24	97	1
100	100	5
67	67	6
61	62	2
242	243	1
48	49	2
112	115	1
71	72	3
246	247	2
165	230	1
175	177	2
170	171	2
158	163	1
14	14	5
21	36	1
52	53	3
58	87	1
35	69	1
3	4	1
33	35	2
184	186	1
23	24	2
11	39	2
194	194	1
187	190	1
198	200	2
51	52	3
37	49	1
227	235	1
43	44	4
111	111	5
175	178	1
31	33	1
120	144	1
85	109	1
80	81	2
171	172	1
44	45	2
22	23	2
162	163	3
73	74	2
234	244	1
27	229	1
17	18	2
232	233	2
69	73	1
104	105	1
110	111	3
245	246	2
197	223	1
243	244	2
78	78	8
9	83	1
32	146	1
43	47	1
109	110	3
108	109	2
201	202	5
68	99	2
238	238	4
55	59	1
59	67	1
78	85	1
1	36	1
94	95	2
23	26	1
229	229	5
180	181	1
162	167	1
58	67	1
40	145	2
51	61	1
74	237	1
12	35	1
206	206	3
158	169	1
9	9	4
78	87	2
172	172	2
1	1	2
34	39	1
224	246	1
190	190	1
199	199	6
75	76	1
222	222	4
204	227	1
96	96	4
9	37	1
210	215	1
187	233	1
120	120	5
38	40	1
155	155	5
163	217	1
48	62	1
93	94	1
180	191	1
218	234	1
48	48	4
152	153	3
92	92	3
46	61	2
162	192	1
91	92	1
116	117	2
56	149	1
209	238	2
198	220	1
174	212	1
187	192	1
56	73	1
192	193	1
73	81	1
24	166	1
188	191	1
150	151	2
236	237	3
167	183	1
28	206	1
236	236	4
38	39	6
205	207	1
70	78	1
24	41	1
217	220	1
60	61	1
48	73	1
118	119	2
225	226	1
80	82	1
20	21	1
185	208	1
195	210	1
237	237	4
156	157	1
210	210	4
111	119	1
174	179	1
29	206	1
96	97	2
230	245	1
16	36	1
225	247	1
214	216	3
3	60	1
53	54	1
155	228	2
223	241	1
161	163	1
49	51	1
11	19	2
48	50	3
194	211	1
184	220	1
79	80	1
12	14	1
84	97	1
215	219	1
11	48	1
96	99	2
74	77	3
19	150	1
184	185	2
7	36	1
81	82	2
36	40	1
196	198	1
100	101	2
168	200	1
75	226	1
115	183	1
94	100	1
45	46	1
26	82	1
66	66	3
86	239	1
78	84	1
116	119	1
72	74	1
17	26	3
68	85	1
32	33	1
46	47	4
187	239	1
38	42	1
51	86	1
175	213	1
65	66	2
72	73	3
234	236	1
9	11	1
77	78	2
57	67	1
15	33	1
26	27	2
66	174	1
49	83	1
237	238	3
5	83	1
97	103	1
32	155	1
219	243	1
240	241	2
147	147	3
204	205	1
212	214	1
70	95	2
69	70	1
167	169	1
51	114	1
21	22	3
190	191	1
185	191	1
173	178	1
235	236	1
183	222	2
14	15	2
3	53	1
199	200	1
210	213	1
18	59	2
0	0	1
144	144	1
170	186	2
51	54	1
210	211	2
160	173	1
151	154	1
162	164	1
192	194	1
195	207	1
29	30	3
218	220	1
155	156	1
177	179	2
37	39	1
203	204	1
31	37	1
36	54	1
162	171	1
48	61	1
75	78	1
18	49	1
215	216	1
230	246	1
3	7	1
213	229	1
186	208	1
48	80	1
21	23	1
164	232	1
188	190	1
62	62	1
227	234	1
57	63	1
214	215	2
11	27	1
50	51	1
180	182	1
98	152	1
18	22	1
60	62	1
51	113	1
89	89	1
205	205	7
79	84	1
13	153	1
221	222	1
16	55	1
64	65	1
35	71	1
168	203	1
114	116	1
1	33	1
27	98	1
23	40	1
42	43	2
111	112	1
58	89	2
32	36	1
93	100	1
31	147	1
6	7	1
36	37	1
78	86	1
0	1	1
198	214	1
221	225	1
70	71	1
165	247	1
165	166	1
153	198	1
12	21	1
93	113	1
5	6	1
45	57	1
37	84	1
161	213	1
209	210	1
186	211	1
156	207	1
20	77	1
86	238	1
84	85	1
54	62	1
145	145	1
16	25	1
63	66	1
7	212	1
186	210	1
192	192	2
54	90	1
164	165	1
162	211	1
39	40	1
214	238	1
201	243	1
163	233	1
176	180	1
167	178	1
96	98	1
104	119	1
