75	97	2
65	65	9
64	64	4
81	81	2
0	0	4
75	100	1
29	29	6
27	33	1
72	72	14
61	61	2
12	12	8
54	54	2
5	5	6
124	124	4
6	7	2
25	25	7
122	122	2
10	10	4
108	108	4
20	20	5
31	31	5
135	135	1
48	48	4
98	98	3
53	53	5
131	131	4
86	86	6
84	84	9
79	79	10
75	75	5
62	62	6
38	71	1
49	49	5
22	22	4
114	114	3
90	90	3
69	69	9
76	93	1
16	16	6
55	70	1
52	52	4
1	1	7
93	93	2
57	59	1
4	45	1
80	81	2
60	60	4
6	100	1
18	18	3
89	89	4
104	104	8
30	31	2
96	96	7
0	8	1
125	125	4
4	126	1
73	73	7
132	133	1
46	75	1
70	70	5
49	50	4
114	115	3
55	55	1
91	92	2
56	57	3
82	83	2
102	102	4
90	91	2
127	127	1
17	17	3
68	68	3
35	35	4
75	79	1
11	11	6
119	119	3
79	82	1
87	87	5
33	33	6
44	44	6
28	29	2
78	78	8
82	85	1
83	83	3
112	112	6
113	113	4
121	121	6
3	3	9
104	105	1
99	99	4
52	53	2
101	101	5
118	119	3
118	118	1
85	85	3
97	97	4
57	91	1
7	8	1
37	37	2
30	30	8
28	28	4
13	73	1
91	91	1
6	6	4
50	50	9
47	64	1
7	7	3
93	94	3
70	79	2
80	80	7
23	23	6
133	133	5
19	19	3
14	15	1
92	113	2
36	36	2
45	45	5
9	9	5
76	77	2
123	124	2
21	21	3
82	82	6
61	62	2
76	76	4
24	24	3
36	37	2
55	56	1
26	42	2
92	92	3
89	90	1
71	71	4
113	114	1
62	65	2
17	49	1
132	132	6
59	59	5
47	48	2
27	28	2
122	123	2
55	59	1
83	87	2
119	120	2
72	73	2
96	108	1
74	74	5
119	124	1
70	102	1
8	8	3
67	67	6
46	46	2
43	43	2
16	24	1
76	79	2
15	15	2
71	73	1
109	109	1
73	115	1
100	100	4
0	2	1
32	32	5
63	63	3
4	4	6
70	71	2
126	128	1
4	5	2
53	65	1
53	60	1
120	120	2
82	89	1
52	61	1
6	18	1
13	14	1
42	42	1
130	130	2
57	58	3
107	108	2
21	31	1
88	88	3
105	106	1
103	103	1
71	72	2
63	101	1
0	47	1
47	49	1
133	134	1
2	3	2
21	22	1
134	134	1
53	78	2
116	117	2
57	57	1
3	31	2
65	70	1
84	86	1
58	58	4
3	4	1
74	75	1
69	70	2
4	50	1
14	14	3
8	20	1
34	35	2
82	98	1
97	98	1
55	57	1
90	120	1
84	85	2
76	101	1
53	54	4
77	77	2
35	37	1
105	105	5
26	26	1
101	102	1
110	110	2
127	128	1
33	34	3
132	135	1
20	23	1
126	126	2
47	122	2
109	110	1
48	59	2
110	111	1
83	85	1
52	81	1
16	58	1
56	56	2
111	112	3
77	78	2
106	106	1
77	83	1
61	89	1
9	20	1
22	23	2
34	34	2
115	115	1
54	56	1
125	132	1
64	65	1
11	18	1
33	69	1
27	27	3
13	13	4
117	118	1
128	128	2
35	36	1
129	129	2
103	105	1
59	60	2
67	68	1
66	67	1
49	79	1
125	126	2
30	34	1
67	69	1
62	63	3
82	84	1
13	23	1
127	130	1
116	116	1
56	59	1
43	47	1
112	113	1
71	93	1
120	121	1
73	80	1
16	18	1
83	84	2
92	94	1
12	13	1
7	11	1
69	92	1
45	82	1
65	67	1
6	9	1
99	100	1
61	94	1
