37	42	1
155	155	3
72	80	1
65	91	1
5	5	7
112	121	2
117	117	4
27	27	2
72	72	1
128	128	3
12	30	1
101	102	2
7	7	9
19	30	1
84	85	2
28	28	2
32	126	1
163	165	1
90	94	1
169	174	1
36	59	1
172	172	2
114	118	1
61	62	1
173	173	5
1	1	2
95	95	1
167	168	1
48	48	4
3	3	1
54	55	1
108	108	2
166	167	1
184	184	4
47	48	2
82	82	1
54	54	2
46	47	3
90	90	3
37	37	3
27	31	1
145	173	2
190	190	1
11	11	5
34	34	3
98	98	2
44	45	1
22	60	2
122	123	3
39	39	1
58	59	1
6	6	2
85	153	1
186	186	3
4	4	4
145	147	1
59	74	1
170	170	2
57	63	2
123	134	1
19	23	1
25	25	2
148	160	1
63	63	2
124	124	6
8	8	2
140	140	1
121	121	2
114	114	5
103	103	3
96	96	2
146	146	3
70	70	4
57	57	4
103	143	1
119	120	1
21	166	1
105	109	1
14	14	7
170	185	1
129	171	2
89	89	4
16	37	1
53	53	4
181	182	2
14	16	1
58	58	3
74	78	1
177	180	2
16	17	1
125	126	1
142	145	1
135	136	2
102	104	1
134	134	3
174	178	2
81	81	2
42	43	1
3	56	1
116	116	3
71	75	1
110	139	1
30	30	2
134	146	1
106	113	2
109	109	4
111	111	4
171	171	2
92	94	1
91	91	3
184	185	1
21	21	6
182	182	2
9	9	1
187	187	5
175	176	1
123	123	1
177	183	1
157	159	1
160	162	1
166	169	1
92	93	2
15	15	6
49	49	2
128	133	1
11	29	3
55	55	4
17	155	1
48	68	1
78	79	4
105	105	2
45	45	2
75	75	2
36	36	4
154	155	1
174	174	1
33	33	1
2	2	4
6	7	3
183	184	1
12	12	3
76	76	2
143	143	2
171	173	1
20	20	2
41	41	3
0	5	1
176	176	1
29	31	1
116	119	1
107	132	1
135	135	1
57	81	1
178	178	1
2	40	1
107	107	3
164	189	1
129	154	1
68	68	2
166	183	1
148	151	1
63	64	1
185	185	2
104	107	1
94	95	1
33	35	1
78	78	5
101	101	3
148	148	3
125	150	1
65	65	1
177	177	2
110	110	3
113	113	3
126	126	1
38	38	4
27	29	1
36	37	2
153	153	2
80	80	2
19	19	2
100	105	1
83	84	1
161	161	2
118	118	3
44	44	2
61	63	2
179	180	1
100	100	2
89	153	1
100	122	1
19	20	1
60	61	2
151	175	1
43	43	2
178	180	1
128	179	1
46	46	3
132	133	2
40	40	4
55	56	2
149	151	1
106	107	2
155	160	1
108	109	2
79	79	2
157	158	3
140	141	1
125	125	3
151	151	3
54	64	1
22	22	1
75	76	3
41	60	1
26	29	1
171	172	2
26	26	1
109	110	2
180	180	1
142	180	1
164	164	3
164	167	1
132	132	1
166	166	1
160	160	1
124	186	2
149	149	1
178	183	1
85	85	1
120	121	1
139	157	1
189	190	1
54	106	1
137	189	1
162	163	1
144	145	1
116	156	1
4	6	1
68	74	1
68	89	1
145	151	2
141	141	3
107	142	1
73	74	1
83	83	2
22	25	1
90	91	2
127	127	2
112	112	1
166	171	1
120	120	2
32	35	1
120	122	2
130	131	1
16	16	3
102	102	2
87	87	3
31	31	2
104	104	2
168	170	1
154	154	3
165	177	1
152	152	2
136	138	1
114	125	1
22	23	3
100	103	1
48	49	1
85	103	2
116	118	1
4	26	1
108	120	1
163	163	1
85	169	1
10	10	2
132	135	1
155	156	1
61	61	4
149	159	1
130	130	1
159	159	1
144	144	1
25	39	1
110	163	1
156	157	2
56	56	2
66	66	1
78	104	1
152	153	2
102	103	1
18	18	3
42	42	2
96	97	2
127	128	1
24	24	1
8	99	1
87	88	2
77	77	2
13	14	1
41	42	1
156	156	2
16	54	1
158	160	1
137	138	3
142	143	2
131	180	1
170	186	1
133	133	1
86	93	1
188	190	2
100	112	1
91	94	1
177	181	1
43	44	1
137	139	1
89	90	1
115	137	1
16	20	1
164	166	1
146	148	1
150	150	4
81	82	2
5	24	1
35	47	1
128	143	1
56	71	1
173	174	1
106	109	1
10	14	1
56	57	1
164	165	1
99	99	3
86	87	1
21	23	1
135	137	1
108	158	1
86	86	3
67	68	1
104	105	1
99	104	1
119	122	2
111	112	1
82	83	1
4	35	2
13	15	1
0	0	2
171	175	1
73	73	2
83	110	1
32	32	2
144	147	1
130	135	1
84	84	2
93	93	2
176	177	2
18	41	1
81	85	1
147	149	1
38	48	1
180	181	1
157	162	1
26	37	1
88	88	1
92	92	1
0	2	1
94	99	1
24	25	1
167	167	1
23	44	1
61	65	1
71	154	1
4	5	1
142	142	1
12	13	1
189	189	1
131	179	1
74	76	2
42	47	1
141	146	1
129	129	1
124	151	1
153	160	1
56	70	1
25	183	1
154	162	1
71	73	1
105	141	1
44	46	1
130	133	1
114	128	1
93	94	2
169	169	1
159	160	2
64	64	1
81	109	1
70	71	1
65	67	1
34	35	1
75	186	1
87	164	1
33	34	2
76	77	1
165	173	1
137	137	2
27	28	1
100	121	1
128	166	1
122	139	1
32	34	1
58	60	1
158	158	2
167	169	1
11	18	1
139	159	1
60	70	1
11	27	1
29	30	1
133	134	1
156	159	1
17	17	1
13	13	1
54	99	1
29	36	1
66	68	1
77	79	1
94	94	1
150	169	1
96	101	1
37	53	1
168	168	1
100	130	1
120	154	1
