70	70	6
68	85	1
85	85	6
33	33	4
16	16	5
73	73	9
32	32	3
14	14	4
127	127	2
16	18	3
7	7	4
60	61	2
117	118	2
18	18	4
22	22	3
87	87	3
92	92	4
37	37	2
114	114	5
48	48	2
2	71	1
82	85	1
72	73	4
10	11	2
58	61	1
67	67	5
54	54	8
36	36	2
76	79	3
61	61	5
98	98	5
93	93	4
72	72	10
108	109	1
62	63	1
55	55	4
85	87	4
83	83	2
69	69	7
23	23	3
16	17	4
8	8	4
8	9	1
82	82	7
121	121	5
52	60	1
102	103	2
57	57	2
96	97	2
62	62	9
26	26	5
70	71	4
18	19	1
27	33	2
104	104	3
29	29	6
128	128	1
6	6	4
95	95	6
84	84	3
5	5	2
86	117	1
125	125	1
3	3	4
71	71	10
79	79	13
9	9	1
102	102	2
4	4	3
83	84	2
21	21	5
44	44	3
80	80	10
63	63	3
123	123	3
10	10	5
50	73	1
110	110	2
87	91	1
112	112	2
66	66	3
60	60	4
35	35	4
20	20	3
81	81	6
90	90	2
129	129	4
73	74	3
97	98	4
42	53	1
57	58	2
106	106	2
16	24	1
74	74	7
89	93	1
67	90	1
59	59	1
49	50	3
35	37	1
122	122	2
19	19	2
51	51	5
116	116	4
97	97	2
82	89	1
101	101	3
45	45	1
43	43	5
0	2	1
100	100	4
75	75	3
124	124	2
19	20	1
50	50	2
18	24	1
21	22	1
84	107	1
103	103	2
113	114	1
42	42	2
28	28	2
120	120	4
135	135	2
11	12	1
21	23	1
13	13	4
105	112	1
69	70	1
43	44	3
105	105	5
11	11	2
25	25	5
102	104	1
2	2	4
15	25	1
28	48	2
108	112	1
58	68	1
58	58	4
31	31	2
53	53	3
49	49	6
28	47	1
64	64	4
27	27	2
110	111	2
29	32	1
76	76	4
46	46	1
12	12	6
132	132	2
90	91	2
112	114	3
17	17	1
24	24	3
30	30	2
77	77	3
68	68	4
117	117	2
52	52	1
62	64	1
130	131	3
42	87	1
7	34	1
101	114	1
107	107	1
78	78	1
118	118	1
122	126	1
75	76	2
111	112	1
1	79	1
65	79	1
47	47	1
43	45	1
29	30	1
55	56	1
65	66	1
86	86	1
64	65	2
54	60	1
32	114	1
134	134	2
74	85	1
111	127	1
95	98	2
99	99	2
117	127	1
79	80	2
13	14	1
126	130	1
96	96	2
126	127	5
134	135	1
13	75	1
65	65	2
112	126	1
0	0	1
116	118	1
26	77	1
56	56	3
133	134	1
48	49	1
92	93	1
0	5	1
3	4	2
93	98	1
1	1	2
53	59	1
125	126	2
55	57	2
34	34	1
64	102	1
95	97	1
94	94	1
104	123	1
34	52	1
77	78	1
55	58	1
68	69	1
108	114	1
124	129	1
126	126	1
18	21	1
85	86	1
71	102	1
54	64	1
88	88	1
80	94	1
20	21	1
27	28	1
29	95	1
121	130	1
15	15	1
87	117	1
103	104	1
21	25	1
119	119	1
131	131	1
106	117	1
64	82	1
132	133	1
89	90	1
22	32	1
