235	235	2
39	39	4
14	14	3
10	42	1
234	234	6
226	226	3
6	6	3
155	155	3
102	102	1
229	229	3
79	80	3
209	209	2
59	59	2
217	217	2
43	43	3
62	62	3
115	115	2
175	175	3
89	168	1
28	29	1
30	30	2
115	118	1
184	184	2
0	0	2
59	60	2
101	101	1
183	184	2
216	216	1
45	45	4
236	236	5
110	110	5
159	159	2
192	192	1
32	33	1
172	245	1
169	169	1
185	185	1
9	41	1
216	217	1
17	17	3
210	219	1
203	203	1
59	93	1
15	16	1
200	200	3
204	204	1
51	51	3
47	47	5
167	167	4
10	10	5
154	154	3
163	163	3
71	72	1
147	147	2
156	156	3
224	224	2
166	166	3
38	38	6
50	56	2
179	179	1
180	182	1
22	22	4
58	58	3
40	40	1
212	213	2
113	113	4
25	25	5
190	190	2
18	19	4
49	56	1
163	164	3
7	7	3
244	244	3
91	91	1
31	33	1
112	113	2
36	36	3
240	240	4
158	159	2
70	86	1
92	92	2
245	245	3
165	165	1
144	150	1
23	23	5
27	27	2
109	109	3
225	225	2
39	221	1
39	40	1
212	231	1
151	151	2
145	145	1
113	114	1
237	237	4
182	182	1
36	39	1
71	71	2
20	20	6
171	171	1
68	68	1
60	60	1
34	35	2
81	81	1
6	22	1
33	33	2
211	211	1
29	30	2
228	228	3
202	227	2
7	211	1
199	199	3
7	176	2
102	103	2
72	72	1
87	88	1
1	1	3
29	29	3
171	172	1
158	188	1
24	24	2
161	161	2
85	87	2
49	49	1
62	112	1
44	44	2
44	46	1
118	118	2
18	18	2
48	48	2
120	120	3
218	218	1
235	237	1
37	37	2
29	113	5
186	210	1
196	197	1
146	147	2
26	27	3
42	43	2
26	26	3
11	11	5
30	31	3
183	205	1
50	50	1
112	112	3
57	58	1
236	237	1
193	196	1
194	194	3
172	172	2
97	103	1
217	239	1
224	246	1
6	154	1
93	93	1
202	203	1
224	225	1
8	8	4
32	32	1
214	215	1
34	34	3
117	118	1
96	96	1
95	95	1
247	247	1
218	220	1
64	64	1
210	210	1
70	76	1
38	113	1
11	15	1
105	105	2
207	208	1
68	71	1
226	229	2
210	237	1
4	61	2
80	81	1
233	239	2
12	12	2
2	2	1
200	201	1
160	160	2
162	197	1
86	86	1
197	198	1
31	117	1
70	85	1
184	201	1
47	48	2
55	55	2
167	168	1
169	171	1
59	195	1
233	233	4
83	83	2
170	170	1
229	230	2
99	99	3
61	61	3
221	221	4
193	193	1
181	181	4
8	9	2
58	59	1
219	219	1
53	53	1
169	209	1
4	5	1
183	204	2
162	162	1
83	84	1
21	21	2
53	178	2
195	196	1
107	108	3
188	189	1
220	238	1
246	247	1
14	15	1
188	190	1
201	201	1
89	177	1
184	219	1
191	192	1
232	232	2
180	181	2
35	40	1
231	232	1
77	77	1
173	174	2
42	42	4
15	15	2
211	212	1
209	244	1
107	107	3
154	155	1
100	100	2
35	35	1
175	176	1
22	23	1
70	75	1
52	52	1
46	46	1
62	94	1
233	235	1
41	41	2
27	110	1
108	108	1
201	211	1
17	19	1
174	175	1
227	227	2
76	76	1
96	99	1
171	191	1
98	105	1
152	152	1
63	64	2
227	229	1
180	200	1
247	248	1
237	244	1
54	55	1
218	219	3
90	90	1
49	50	1
208	208	2
66	66	1
65	65	1
78	78	1
54	54	2
212	212	1
51	65	1
82	82	1
52	192	1
145	147	1
226	233	1
223	234	2
31	31	1
178	178	2
94	94	1
80	86	1
5	31	1
46	51	1
63	63	1
5	5	1
206	206	2
98	98	1
188	188	1
153	154	1
90	154	1
9	31	1
110	111	1
3	3	1
49	60	1
11	22	1
19	21	1
70	70	1
164	165	1
64	100	1
91	92	1
248	248	1
236	245	1
160	173	1
117	117	1
215	218	1
238	238	1
111	111	1
246	246	1
45	76	1
17	60	1
150	151	1
87	87	2
180	209	1
157	157	1
158	158	1
178	179	1
186	186	1
43	44	2
183	213	2
75	89	1
174	174	1
79	79	1
2	42	1
192	193	1
189	189	1
78	81	1
61	66	1
202	202	1
183	185	1
69	69	1
223	223	1
179	180	1
231	231	1
45	67	1
114	114	1
215	247	1
205	229	1
193	194	1
54	92	1
33	54	1
