127	127	3
42	185	2
36	36	3
63	131	1
84	89	1
137	137	1
191	191	3
86	86	5
6	7	1
105	107	1
124	124	1
12	13	1
62	62	2
93	93	1
144	178	2
173	174	2
196	196	3
147	149	1
171	172	1
141	141	1
176	176	3
71	71	2
145	145	2
177	177	3
69	70	2
30	30	1
150	150	3
39	39	5
60	60	1
95	95	5
157	158	2
144	181	1
35	35	1
157	167	1
5	5	3
8	25	1
187	191	1
161	162	2
169	169	3
158	159	1
67	70	1
189	191	1
185	185	2
26	26	3
18	19	2
24	28	1
14	14	2
63	65	1
195	195	1
146	147	3
56	56	1
105	106	1
112	112	2
23	31	1
44	46	2
31	84	2
148	148	2
141	142	1
46	46	3
126	126	2
144	144	3
94	94	2
1	1	1
162	163	2
135	136	2
37	37	3
37	193	1
74	74	2
44	44	7
13	14	1
155	156	1
38	38	5
65	65	1
34	35	1
76	76	1
21	21	3
47	47	2
143	143	1
193	193	3
181	182	1
41	42	1
62	140	3
28	29	2
135	135	2
121	121	1
17	178	1
131	132	1
181	192	1
167	168	1
4	5	2
9	9	6
102	104	1
186	186	2
72	72	2
2	2	2
115	115	2
179	180	3
65	110	1
1	2	2
189	190	1
133	133	1
138	138	3
119	125	1
138	139	1
188	188	1
181	181	1
170	170	5
133	170	1
13	13	3
101	101	1
163	163	1
11	12	1
8	8	1
26	28	1
50	50	2
41	41	2
130	130	2
63	64	3
19	19	4
72	73	1
98	103	1
57	57	1
161	161	5
122	124	3
159	173	1
176	178	1
106	110	1
33	46	1
106	148	1
113	113	1
140	150	1
32	177	1
171	171	2
100	100	1
85	85	2
166	166	1
162	175	1
147	147	2
189	189	1
3	3	2
42	42	2
170	193	1
194	194	2
9	12	1
99	99	1
180	180	2
84	84	2
45	45	1
77	80	1
12	12	3
159	159	1
29	29	2
187	187	2
42	43	2
117	117	1
86	109	1
73	73	1
131	131	1
49	49	1
192	193	1
28	28	1
45	46	1
152	152	1
107	107	2
57	124	2
147	156	1
187	188	1
8	30	1
162	162	3
43	43	4
17	28	1
11	11	2
101	104	1
54	54	1
12	196	1
59	59	3
19	33	1
22	27	2
144	168	1
54	56	1
164	164	1
15	16	1
115	160	1
142	142	1
9	186	1
187	193	1
0	9	1
10	10	4
33	140	1
119	120	1
14	39	1
16	16	1
169	170	1
147	148	1
24	24	1
125	125	1
192	192	2
158	158	3
155	155	2
82	82	2
81	81	1
16	176	1
71	72	1
149	150	1
109	109	3
29	179	1
38	39	1
18	18	1
140	140	1
24	25	1
122	122	2
168	168	1
174	190	1
161	165	1
87	87	1
84	85	1
157	157	1
61	61	2
63	132	1
40	55	1
40	40	3
165	165	2
69	69	1
61	176	1
153	156	1
11	25	1
160	160	2
27	27	1
123	124	1
149	149	1
188	189	2
95	96	1
9	185	1
31	31	5
123	123	1
179	179	2
66	66	1
20	20	1
75	75	1
9	10	1
190	191	2
6	6	1
79	79	1
27	29	1
78	78	1
1	28	1
71	76	1
106	106	1
103	109	1
139	139	2
32	32	2
22	22	3
17	20	1
190	190	1
56	61	1
110	110	1
68	68	1
143	145	1
34	34	1
152	154	1
142	156	1
19	34	1
144	146	1
140	153	1
7	7	2
37	43	1
51	51	2
8	26	1
186	193	1
64	64	1
180	181	1
55	55	1
102	103	1
175	175	1
35	80	1
97	103	1
154	155	2
168	169	2
10	11	1
67	68	1
149	151	1
104	104	2
33	33	1
88	89	1
164	188	1
4	6	1
5	6	1
22	36	1
51	52	1
142	178	1
11	16	1
58	58	1
17	18	1
63	63	1
