9	9	4
124	124	1
113	113	4
33	33	3
100	100	2
18	19	1
100	119	1
19	19	2
56	57	4
45	45	4
97	97	1
102	108	1
82	85	1
0	0	4
110	111	1
127	127	1
16	34	1
88	88	2
127	128	1
29	33	1
80	82	2
60	60	2
109	133	1
80	81	4
119	120	1
59	59	4
119	119	4
111	112	1
78	114	1
108	108	2
69	69	4
35	35	5
122	123	2
131	131	5
50	50	1
128	128	1
73	73	2
37	49	1
107	111	1
61	61	3
17	17	2
43	43	5
106	109	1
84	84	3
21	21	5
104	104	1
18	18	2
98	98	2
15	69	2
75	85	1
64	65	1
13	14	1
74	74	3
28	28	2
27	27	3
63	63	4
31	32	1
112	112	4
76	76	3
133	133	1
114	116	2
117	117	6
101	106	2
107	108	1
119	124	1
6	6	3
5	6	4
24	27	1
70	70	3
87	87	5
5	71	2
106	106	1
65	65	1
113	114	1
26	26	3
71	71	1
85	86	1
33	34	2
85	85	2
109	109	2
105	126	1
79	86	1
14	14	2
9	10	2
75	75	2
9	36	1
15	15	2
51	55	1
77	77	2
94	94	1
36	77	1
42	42	1
105	105	2
41	42	1
51	56	2
111	111	2
20	20	4
20	23	1
116	116	3
3	3	2
117	118	1
48	49	1
99	99	1
80	80	2
94	95	2
129	130	2
110	110	1
29	58	1
82	82	3
87	89	1
34	34	2
56	82	1
76	117	1
28	30	1
3	10	1
68	68	1
120	123	1
43	44	2
58	60	1
64	64	1
93	93	1
75	76	1
107	130	1
38	60	1
107	107	2
6	8	2
25	25	1
19	83	2
128	131	1
34	119	1
75	116	1
97	98	2
71	72	1
59	60	2
134	134	1
30	30	1
69	70	1
1	1	1
112	125	1
29	29	1
2	46	1
22	94	1
15	16	1
40	40	3
60	113	1
73	117	1
96	96	1
2	75	1
14	17	1
113	116	1
12	71	1
7	8	1
96	97	1
79	79	1
32	32	1
31	31	1
97	99	1
38	48	1
4	4	3
12	12	1
55	58	2
67	67	1
91	91	1
118	118	1
35	51	1
5	5	1
44	44	1
66	66	1
13	13	1
123	123	1
22	22	1
115	115	1
85	87	1
125	125	2
66	67	1
102	103	1
78	78	1
112	113	1
102	102	1
23	24	1
58	58	1
16	16	2
24	39	1
49	50	1
2	2	2
89	89	2
120	120	1
32	58	1
113	124	1
57	57	1
19	20	1
115	116	1
83	83	1
130	130	1
114	114	1
73	74	1
83	85	1
123	126	1
93	98	1
124	125	1
101	101	1
122	122	1
25	26	1
23	30	1
11	11	1
