77	79	1
2	3	1
175	175	7
21	22	1
224	224	2
161	168	3
173	173	1
15	15	2
56	56	2
55	55	2
158	159	2
102	113	1
22	22	2
103	103	2
28	85	1
29	31	1
3	48	2
225	228	1
120	121	1
55	58	2
17	60	1
61	63	1
68	73	2
29	29	7
61	61	1
53	53	3
37	38	3
49	49	2
171	173	1
69	70	1
141	141	2
83	83	1
134	137	1
19	19	4
218	218	5
208	235	1
5	18	2
103	217	2
37	84	1
179	179	6
64	65	1
116	116	3
96	97	2
157	175	2
27	27	2
102	102	2
228	228	1
163	166	3
42	70	2
240	240	2
90	118	1
33	33	2
0	0	3
198	217	2
216	224	1
68	68	4
1	48	1
9	9	5
214	214	1
107	107	1
28	28	1
206	206	1
118	118	2
47	47	2
234	234	1
80	104	1
130	130	1
241	242	3
29	89	1
75	76	1
215	215	1
174	175	1
42	42	4
17	145	2
145	145	3
179	180	1
21	21	1
11	17	2
64	64	3
97	97	1
7	7	2
155	196	1
166	177	1
198	198	2
68	74	1
149	218	1
35	42	1
85	85	3
6	6	1
37	90	1
219	219	1
182	182	1
199	199	2
19	53	1
43	236	1
9	24	1
1	1	2
133	141	1
205	205	1
151	151	3
129	129	2
61	62	1
89	113	1
82	82	1
62	62	1
163	165	1
173	174	1
216	217	1
165	180	1
23	46	1
134	134	1
184	185	2
3	3	3
3	23	1
58	60	1
135	135	2
104	104	3
230	230	2
60	60	1
157	161	1
66	66	2
189	189	1
168	183	2
74	74	1
170	179	1
209	209	1
149	149	1
139	184	1
86	86	2
85	86	2
176	210	3
144	145	1
31	88	1
59	80	1
138	138	2
168	168	1
161	161	3
21	23	2
149	158	1
142	190	1
164	168	1
62	79	1
203	203	1
20	54	1
81	81	4
24	69	1
104	156	1
21	108	1
221	222	1
4	5	1
138	154	1
33	60	1
174	174	3
127	127	3
166	166	1
20	101	1
203	228	1
117	117	2
239	239	3
160	188	1
24	25	1
44	44	2
163	179	1
125	125	1
159	159	2
40	41	1
165	183	1
113	113	2
196	196	1
148	148	2
4	36	1
44	69	1
2	42	1
160	161	1
50	82	1
119	119	3
163	163	1
79	79	2
183	183	2
171	171	2
58	225	1
83	107	1
157	183	1
115	116	1
128	128	2
105	105	1
23	49	2
115	134	2
47	73	1
21	72	1
16	16	3
186	186	2
220	221	1
229	229	2
134	167	1
239	241	1
137	138	1
164	184	1
115	115	2
172	172	2
158	158	1
133	137	1
213	227	1
108	109	2
137	157	1
184	184	1
122	122	2
56	181	1
203	227	1
235	235	1
170	176	2
112	112	2
12	20	1
158	216	1
84	84	1
3	62	1
180	180	4
134	142	1
70	70	2
178	178	1
176	177	1
237	237	1
65	65	2
14	14	2
69	241	2
124	124	2
14	23	1
63	63	1
185	185	2
129	130	1
153	153	2
73	73	3
28	239	1
124	140	1
107	123	1
2	2	2
9	10	1
41	41	3
211	212	1
14	21	2
106	127	1
89	178	1
4	33	1
180	191	1
59	59	1
10	60	1
23	53	1
212	212	1
20	20	1
69	69	2
226	230	2
124	164	1
18	18	1
173	175	1
218	238	1
98	105	1
131	135	1
13	13	1
9	30	1
110	111	1
54	54	1
145	146	1
167	167	1
98	101	1
193	193	2
40	116	1
188	188	1
44	45	1
18	19	1
66	105	1
154	194	1
234	238	1
169	169	2
107	108	1
5	5	1
0	32	1
4	141	1
157	157	2
181	181	1
7	49	1
173	179	2
14	34	1
154	183	1
111	217	1
66	68	1
191	191	1
28	171	1
134	141	1
146	146	1
125	156	1
43	69	1
192	192	1
121	121	1
164	193	1
55	56	1
180	182	1
123	123	1
152	152	1
123	124	1
139	142	1
196	197	1
15	160	1
