55	55	3
193	193	3
166	166	3
37	37	6
46	46	5
182	182	1
33	33	5
116	116	6
184	215	1
202	203	2
57	57	2
76	76	8
52	52	8
226	226	3
31	31	7
52	92	2
91	91	2
213	214	1
63	63	3
175	176	1
117	117	5
119	119	4
66	66	2
225	225	3
208	208	7
72	72	2
147	147	1
234	234	4
114	114	6
39	54	1
21	21	3
26	26	7
32	32	4
71	71	2
213	213	7
235	235	5
118	118	5
14	14	7
73	75	1
236	236	3
211	211	8
43	44	4
150	150	4
108	108	1
87	90	1
26	27	1
190	190	3
40	40	4
6	231	3
216	217	1
95	95	5
86	87	2
59	59	6
25	25	5
235	236	1
12	150	1
191	191	5
20	21	2
64	65	1
27	27	3
77	83	1
179	179	4
211	212	3
6	6	3
94	144	2
29	30	3
229	229	6
19	19	2
224	224	3
112	112	2
113	113	5
33	35	1
8	10	1
208	209	5
50	50	2
53	95	1
3	3	3
202	209	3
43	43	2
82	85	1
186	186	2
185	214	1
12	12	1
76	78	1
42	42	6
63	65	2
74	74	2
51	51	7
198	199	3
212	213	2
8	11	2
76	77	1
92	92	3
8	8	4
162	162	4
90	90	3
204	204	6
80	80	2
172	173	2
62	62	1
171	172	4
79	80	2
221	221	3
230	230	5
164	164	4
222	222	4
163	165	1
232	238	1
107	107	2
187	188	2
164	177	1
167	167	1
179	180	3
41	43	1
176	176	4
221	222	4
44	44	4
77	85	1
221	238	2
154	154	9
65	65	4
156	156	3
181	228	1
184	184	7
23	23	3
153	153	4
145	145	1
227	228	2
60	99	1
181	182	5
23	26	1
201	201	6
29	29	4
188	188	2
194	194	1
189	198	1
72	84	1
62	67	1
65	66	2
50	61	1
51	180	1
5	5	3
15	15	3
173	174	3
224	225	1
66	68	1
110	110	6
85	85	2
48	48	7
215	215	3
3	4	2
194	195	3
231	231	3
154	226	2
23	24	1
238	239	2
41	42	2
68	68	1
6	7	2
61	61	1
218	218	1
214	214	3
228	228	6
68	70	1
215	217	1
67	67	2
230	231	1
241	242	3
57	66	2
195	196	1
49	49	3
199	200	1
77	77	3
36	37	1
110	174	1
197	197	5
42	93	2
18	18	2
111	111	3
75	76	2
37	91	3
56	56	1
171	171	5
177	177	3
170	171	2
212	212	5
185	185	4
27	28	1
1	1	5
28	28	2
152	152	1
89	89	3
207	207	7
115	116	2
180	180	5
157	157	1
60	60	3
19	42	1
78	78	2
165	165	3
213	223	1
213	236	1
38	38	3
32	38	1
168	191	1
243	244	2
223	223	6
10	10	4
181	181	5
97	97	1
39	91	2
241	246	1
85	86	1
233	248	1
69	70	2
20	20	2
184	214	1
197	198	3
160	160	1
216	219	1
58	58	2
87	89	1
70	70	2
18	43	1
244	244	8
248	248	4
241	241	1
159	172	1
88	89	1
194	198	1
183	183	3
187	187	1
88	88	2
178	179	2
145	156	2
84	85	2
29	31	1
156	157	1
101	101	1
95	98	1
15	17	1
213	230	1
109	109	5
218	219	3
230	235	1
205	205	2
231	243	2
209	209	1
164	185	1
73	73	2
160	186	1
24	24	4
23	28	1
54	54	1
82	82	1
216	216	2
20	42	1
35	35	2
212	247	1
22	22	3
67	68	1
200	201	2
192	193	2
193	194	2
17	17	3
186	200	1
199	199	3
60	75	1
220	220	3
28	29	2
72	74	1
45	46	3
166	167	1
100	100	1
93	94	1
101	115	1
114	115	1
49	64	1
106	106	1
219	220	1
176	177	2
243	243	1
169	169	4
47	111	1
115	203	2
47	48	3
164	165	1
182	183	1
195	195	3
192	237	1
52	180	2
245	245	3
75	75	2
186	187	1
217	217	4
157	165	1
206	206	1
171	184	3
113	114	1
23	45	1
163	166	1
19	40	1
173	173	6
242	242	5
227	227	3
184	185	1
215	216	3
21	22	3
165	166	1
183	201	1
48	112	2
180	181	1
103	104	2
143	143	1
202	205	1
53	54	1
237	240	1
41	41	1
246	246	1
110	167	2
238	238	3
12	152	1
4	5	2
193	211	1
115	115	1
240	241	1
17	21	1
39	39	2
203	211	1
116	117	1
55	57	1
34	34	2
163	163	1
233	234	2
237	238	3
209	211	2
169	176	1
158	158	5
233	233	2
78	105	2
7	7	2
94	95	2
219	219	3
240	240	1
169	197	1
2	2	1
104	104	2
232	233	3
237	237	2
168	168	4
9	9	2
222	236	1
2	30	1
96	108	1
42	43	1
175	175	2
39	41	1
10	11	2
13	15	1
58	63	2
222	223	1
203	203	3
66	71	1
200	200	1
158	172	1
227	229	1
151	151	3
89	102	1
26	29	1
25	26	1
81	81	1
157	158	1
3	36	1
74	75	1
172	172	2
24	25	2
21	182	1
196	197	1
41	93	2
153	154	1
196	196	1
45	45	3
6	227	2
210	210	2
87	87	2
200	204	2
95	120	1
202	202	1
8	40	1
36	36	2
161	161	2
86	86	1
49	99	1
47	50	1
242	243	2
4	234	1
104	118	1
52	110	1
178	217	1
215	234	1
109	165	1
179	225	2
192	194	1
11	11	7
18	19	1
184	212	1
111	112	1
175	213	1
181	226	1
185	188	1
239	240	1
62	63	1
234	235	3
48	52	1
222	235	1
23	146	1
54	61	1
3	230	1
54	55	2
94	94	2
61	69	1
214	235	1
64	64	1
182	226	1
215	219	2
66	67	2
220	241	1
38	39	2
168	169	1
217	218	1
120	120	1
99	99	1
166	202	1
34	35	1
224	245	1
4	4	3
167	202	1
168	194	1
109	211	1
4	7	1
22	23	1
40	41	1
76	89	1
231	233	1
247	247	1
106	163	1
238	240	1
53	53	1
40	78	1
9	38	1
47	47	1
51	52	1
62	90	1
112	113	1
198	200	1
184	225	1
180	182	1
221	234	1
189	189	2
247	249	1
30	30	1
155	205	1
181	183	1
71	72	1
226	227	1
75	106	1
110	111	1
22	146	1
146	147	1
217	237	1
14	53	1
144	144	1
