141	141	1
23	23	2
5	5	5
52	53	2
8	8	3
184	184	2
14	14	3
154	154	3
163	172	2
124	124	5
54	54	3
132	132	1
188	188	3
0	1	1
167	179	1
33	33	6
164	173	1
181	181	3
183	183	2
33	34	3
77	108	2
16	16	1
151	151	3
177	178	1
165	167	3
34	34	4
143	143	1
0	0	3
127	127	1
99	100	2
32	41	1
171	171	1
165	166	1
20	28	1
95	95	1
2	24	1
0	3	3
57	105	1
4	4	1
191	191	1
70	72	1
24	47	2
40	67	2
42	42	5
86	191	1
137	138	1
9	186	2
52	52	1
3	3	1
59	59	2
61	63	1
167	171	1
3	7	2
42	168	1
102	104	1
194	194	1
31	43	1
12	12	3
115	115	1
24	24	1
41	42	1
131	131	1
13	14	2
97	97	3
58	58	5
49	49	1
33	38	1
74	74	4
19	19	3
70	87	1
183	184	1
48	48	3
9	9	4
53	53	2
102	102	1
107	108	2
180	189	1
167	172	1
16	173	1
7	7	3
174	174	1
19	28	2
126	127	1
173	190	1
74	89	1
10	14	1
45	49	1
12	46	2
41	41	4
8	28	1
58	127	1
11	12	1
6	33	1
36	36	2
60	60	1
1	31	2
38	38	1
2	2	2
42	43	2
48	49	1
121	132	1
17	32	1
51	51	2
180	180	1
184	185	1
176	176	1
108	108	3
126	137	1
15	37	1
45	45	3
123	123	1
176	177	1
40	40	1
140	140	3
107	107	1
193	193	7
73	74	2
118	118	1
136	137	2
80	87	1
185	185	1
117	118	3
121	121	1
186	186	2
161	161	1
26	26	3
19	21	1
89	89	3
35	36	1
166	166	3
99	99	2
14	39	1
69	69	2
17	41	1
27	27	2
95	102	1
19	26	1
64	66	1
85	113	1
27	29	1
128	128	1
175	178	1
195	195	1
18	19	1
38	50	1
34	35	1
175	188	1
49	138	1
60	128	1
146	146	1
85	106	1
53	56	1
132	133	1
196	196	1
39	43	1
10	10	1
30	30	2
121	122	2
21	30	1
15	142	1
67	103	1
190	190	1
79	80	1
11	11	1
42	67	1
139	139	2
4	8	1
50	50	1
68	68	1
31	32	1
73	112	1
165	165	1
172	172	3
107	117	2
43	43	2
36	37	1
120	146	1
166	189	1
164	164	1
13	13	1
18	27	2
46	47	2
30	31	2
150	152	1
18	30	1
84	85	1
137	137	1
135	187	1
124	125	1
130	130	1
15	16	1
142	142	1
76	83	1
22	22	1
47	47	1
85	85	1
44	44	1
3	31	1
169	169	2
149	149	1
155	155	2
83	84	1
181	182	1
114	114	1
154	155	1
10	12	1
144	144	1
17	17	2
135	140	1
116	173	1
166	168	1
22	24	1
154	178	1
122	170	1
25	26	1
156	156	1
160	160	1
161	164	1
195	196	1
20	20	1
45	47	1
64	64	1
46	46	1
88	90	1
