172	172	5
163	164	1
11	15	3
55	55	4
102	127	1
169	187	1
57	57	3
173	173	1
236	236	2
179	180	1
219	219	1
152	152	3
237	239	1
231	231	2
19	19	2
38	38	4
225	225	2
32	32	4
56	56	1
3	3	3
119	120	3
58	58	2
49	53	2
10	10	4
207	220	1
166	166	2
31	31	7
15	20	1
6	7	2
220	231	1
240	240	2
34	35	1
138	138	1
121	122	1
177	177	5
235	236	1
98	99	1
169	169	2
146	183	1
122	149	1
26	26	3
132	132	2
96	97	2
49	50	2
7	7	3
61	61	4
12	12	1
74	74	7
78	79	2
237	237	3
169	174	1
139	142	2
239	239	2
108	133	1
31	126	1
174	175	1
136	136	2
51	51	1
201	201	2
71	71	2
29	29	1
142	143	2
169	171	1
27	27	2
30	30	8
178	178	4
185	185	1
35	36	1
154	155	1
3	39	1
170	171	1
8	8	5
212	228	1
168	168	2
159	175	1
13	14	1
131	131	1
108	109	1
146	146	3
224	224	1
68	68	3
231	232	1
184	186	2
70	70	2
108	123	1
40	41	1
80	80	2
42	96	1
167	167	3
165	166	1
18	18	2
157	157	2
32	200	1
212	212	1
85	85	2
216	216	2
151	151	2
111	111	1
196	196	1
208	209	2
15	43	1
183	187	1
221	224	1
20	20	3
47	47	1
135	135	1
171	171	1
72	72	3
121	121	1
0	0	1
15	15	1
41	41	1
169	170	2
241	241	2
30	33	1
158	158	2
142	142	3
135	139	1
12	31	2
34	36	1
190	190	1
0	8	1
39	39	3
154	154	2
234	239	1
9	10	1
123	123	2
27	28	1
74	75	2
174	178	1
60	60	2
11	12	1
100	100	2
72	78	1
36	53	2
65	65	1
24	24	2
44	44	1
218	218	1
11	36	1
102	102	3
242	242	3
150	151	2
228	228	1
156	156	1
132	135	1
97	185	1
171	201	2
88	122	1
117	117	1
116	117	1
115	151	1
4	5	2
113	113	3
162	164	1
45	45	1
195	195	1
137	137	1
144	145	1
67	67	2
27	68	1
233	241	1
116	116	1
68	230	2
53	53	2
23	23	1
65	66	1
43	46	1
102	105	1
192	192	1
1	5	3
119	127	1
11	43	1
65	68	1
238	238	1
48	48	1
76	79	2
212	213	1
216	218	1
145	148	1
230	231	1
79	80	1
139	146	1
99	100	1
153	157	1
30	31	1
231	235	1
160	160	2
57	171	1
36	36	2
11	11	3
138	139	1
144	146	1
65	70	1
1	1	1
202	202	3
183	183	1
153	153	1
22	34	1
136	137	1
124	124	1
143	143	1
232	232	1
73	73	1
107	108	1
126	127	2
182	199	1
37	37	4
61	62	1
164	164	1
75	75	1
69	71	1
84	104	1
95	95	1
236	237	1
199	199	3
153	154	1
233	234	1
162	162	1
205	206	1
130	130	1
133	134	1
161	161	1
55	96	1
100	118	1
64	65	1
180	182	1
106	106	1
77	77	1
9	9	1
80	81	1
46	99	1
102	103	3
230	230	1
144	144	2
55	106	1
167	169	1
135	182	1
16	16	1
33	33	1
99	99	1
229	229	1
205	205	1
102	196	1
21	21	1
114	145	1
65	130	1
135	136	1
63	64	1
20	24	1
120	122	1
177	178	1
42	42	1
147	147	1
62	62	1
136	143	1
46	46	1
123	125	1
155	155	1
175	175	1
158	159	1
3	16	1
150	150	1
167	168	1
84	85	1
191	191	1
127	127	1
115	116	1
187	187	1
61	66	1
129	136	1
97	97	2
180	180	1
153	155	1
69	70	1
188	224	1
63	67	1
114	115	2
22	23	1
163	163	1
40	56	1
223	223	1
134	135	1
200	201	1
189	190	1
211	211	1
120	120	1
229	230	1
69	69	1
54	69	1
133	137	1
109	109	1
164	165	1
149	149	1
198	198	1
188	188	1
75	79	1
122	122	1
13	13	1
149	150	1
228	229	1
