113	113	7
225	239	1
191	192	7
57	57	3
56	56	4
11	11	7
245	246	2
171	171	3
117	117	3
145	145	3
214	214	4
49	95	1
43	44	1
242	243	2
242	242	6
232	232	4
28	28	6
43	43	6
226	226	6
202	203	2
228	228	5
102	102	3
218	218	2
60	60	2
48	51	1
14	14	10
160	160	4
187	189	1
52	52	3
223	223	3
76	106	2
172	173	2
182	182	6
35	35	2
101	101	4
47	47	10
241	243	1
220	244	3
40	40	7
174	174	7
47	206	1
22	22	5
246	246	5
174	211	1
100	100	3
222	242	2
155	155	7
20	20	7
178	178	3
26	26	9
204	230	1
164	165	1
233	234	2
38	38	7
159	159	4
25	236	1
110	110	3
92	93	1
175	177	1
209	209	4
54	55	4
151	152	1
46	46	9
163	164	4
180	180	7
200	201	3
86	96	1
244	244	11
101	103	2
25	26	2
38	41	2
119	119	3
208	222	1
151	179	1
5	7	1
3	92	1
215	216	4
183	183	4
240	242	1
151	153	3
33	33	8
163	165	4
40	63	2
52	206	1
44	85	1
39	39	10
85	85	4
50	68	1
235	236	1
160	161	1
163	170	1
224	224	7
220	222	2
8	9	2
61	61	1
94	95	1
186	196	1
29	29	7
97	98	2
90	91	1
53	53	4
231	231	5
75	75	3
44	44	10
116	116	5
237	239	4
30	30	5
150	151	4
172	172	4
169	172	2
17	17	6
203	203	7
176	193	1
55	55	2
186	186	2
23	24	1
18	21	1
211	212	2
199	221	1
167	185	2
94	149	1
162	162	4
164	176	1
76	77	3
24	24	2
230	230	3
152	152	3
212	213	1
39	41	1
188	193	1
55	112	1
37	37	4
229	229	8
50	51	4
16	18	1
173	173	3
28	29	2
183	190	1
95	95	5
51	235	1
171	199	1
32	32	6
189	190	3
177	178	2
21	48	1
93	93	2
21	22	4
105	105	1
240	241	2
47	48	2
202	202	6
82	82	4
50	50	5
62	62	5
153	153	5
37	38	3
214	240	1
1	1	4
163	163	6
168	180	1
15	15	4
235	235	3
181	205	1
162	172	1
12	12	2
225	225	3
219	219	5
6	6	7
176	178	3
151	151	4
78	87	1
177	177	6
144	144	2
70	70	2
64	64	2
38	39	2
248	248	4
72	73	1
239	242	2
98	99	1
168	168	2
81	82	2
38	151	1
5	5	4
31	32	4
175	176	1
114	114	7
93	116	1
174	183	1
8	8	3
170	170	1
14	15	2
57	82	1
209	217	2
184	184	7
165	165	3
65	65	5
158	159	1
154	154	5
217	217	4
217	247	1
181	181	3
149	149	1
13	222	1
36	36	4
169	170	1
162	163	1
78	78	2
198	198	3
44	53	1
208	208	5
210	210	6
37	161	1
183	184	2
213	213	4
230	245	1
9	10	2
2	145	2
25	25	1
247	247	7
88	88	3
198	200	1
236	238	1
45	45	10
221	238	1
5	6	1
240	240	3
162	201	1
229	230	4
197	198	1
76	105	1
204	204	3
199	199	6
53	54	1
21	21	4
169	171	3
169	169	3
170	177	1
26	27	1
234	236	1
171	172	1
96	96	2
201	201	5
109	109	3
231	232	1
65	228	1
93	118	1
90	90	4
201	202	2
167	167	7
26	52	1
175	175	6
213	246	2
162	184	1
156	156	2
52	54	1
238	238	4
241	241	4
147	147	3
38	49	1
18	18	5
180	184	1
200	200	6
84	86	1
42	43	2
24	61	2
84	84	1
238	239	1
191	191	3
23	23	7
187	190	1
41	41	7
3	4	3
227	227	4
203	206	1
188	188	5
77	77	3
112	112	2
76	76	3
193	208	1
44	45	1
3	3	4
102	172	1
186	191	2
76	86	1
67	67	5
46	244	1
187	187	2
1	6	1
159	165	1
244	245	2
79	80	3
39	40	2
207	226	2
218	220	2
188	190	2
10	10	8
175	178	1
46	47	1
42	42	3
16	16	3
59	68	1
207	207	1
214	248	1
81	83	1
87	87	7
195	195	3
94	94	6
192	225	1
203	248	1
176	176	2
73	75	1
7	7	4
2	2	1
194	196	2
23	205	2
238	240	1
20	22	1
233	233	1
2	52	1
30	205	1
60	91	1
59	59	6
19	19	5
91	119	1
185	185	1
179	180	2
49	50	3
159	179	1
12	13	1
210	233	1
239	240	2
166	169	1
225	236	2
118	118	1
86	86	4
209	210	1
34	34	1
192	194	1
72	72	2
49	52	1
224	225	1
104	104	1
231	235	2
15	151	2
245	245	3
183	232	1
7	8	1
51	51	4
193	196	1
31	31	4
201	230	1
92	92	4
51	66	1
215	240	2
249	249	2
211	211	5
243	243	4
199	208	1
70	77	2
245	247	1
216	216	3
78	183	1
6	53	1
187	188	1
204	226	1
111	111	4
48	48	2
238	241	1
94	205	1
157	157	2
49	49	4
211	246	1
185	189	2
222	222	2
2	4	2
174	175	3
68	84	1
89	89	3
105	106	2
72	105	1
71	89	1
205	206	1
7	34	1
193	197	2
224	236	1
38	40	2
19	20	2
174	185	1
99	99	2
81	89	1
236	236	2
170	195	1
2	6	1
246	247	1
235	240	1
244	247	1
40	44	2
166	166	3
70	101	1
179	179	4
46	51	1
56	57	2
168	169	1
182	183	1
80	114	1
197	197	2
66	66	3
165	194	1
239	239	2
48	62	1
222	223	1
160	162	1
242	244	1
69	98	1
100	101	1
113	115	1
28	44	2
116	118	1
61	109	1
150	150	1
57	59	1
215	242	1
85	95	1
81	81	1
13	13	1
212	212	2
53	65	2
3	233	1
54	54	2
68	68	1
37	149	1
27	27	7
208	245	1
43	47	1
78	79	1
101	102	1
154	155	1
79	81	1
157	158	1
43	227	1
39	45	1
216	217	2
100	118	1
48	61	2
207	240	1
169	213	1
161	167	1
9	9	1
213	239	1
51	236	1
27	30	1
194	194	1
196	196	1
234	235	2
189	189	1
75	80	1
42	116	1
146	167	1
61	62	2
177	209	1
56	74	1
2	3	1
33	35	1
85	86	1
190	190	1
168	171	1
164	164	3
155	181	1
50	205	1
120	120	1
202	234	1
8	15	1
174	244	1
203	204	1
161	162	2
243	244	3
207	228	1
202	205	1
75	76	1
184	185	1
193	193	1
4	4	3
200	232	1
168	181	1
220	220	1
34	203	1
98	101	1
61	63	1
87	94	1
27	45	1
109	111	1
52	233	1
216	238	1
108	109	2
58	58	1
234	234	1
236	237	1
108	108	1
40	113	1
77	81	1
165	189	1
24	25	1
64	180	1
56	105	1
106	107	1
166	167	2
210	211	1
63	65	1
237	240	1
48	74	1
64	65	2
106	108	1
12	19	1
154	161	1
10	162	1
3	203	1
215	241	1
213	214	1
215	232	1
186	216	2
8	33	1
61	70	1
197	231	1
80	80	2
18	19	1
206	206	1
153	181	1
161	161	1
118	119	1
162	186	1
186	188	1
36	202	1
147	167	2
120	144	1
75	84	1
60	61	1
144	145	1
180	182	1
74	74	1
65	78	1
39	153	1
190	192	1
69	69	2
19	43	1
214	217	1
107	107	2
114	117	1
198	199	2
115	115	1
163	178	1
47	53	1
96	107	1
7	231	1
205	246	1
164	188	1
173	174	1
111	162	1
99	100	1
40	41	1
153	154	1
77	78	1
178	184	1
162	164	1
36	38	1
76	78	1
165	196	1
70	71	1
54	110	1
67	68	1
64	182	1
171	180	1
167	198	1
237	238	1
25	27	1
151	165	1
32	33	1
204	229	1
237	241	1
74	76	1
73	73	1
64	66	1
208	209	1
221	221	1
4	167	1
101	149	1
80	82	1
97	97	1
199	225	1
11	12	1
63	64	1
173	183	1
61	110	1
164	177	1
226	227	1
8	16	1
228	229	1
116	117	1
171	183	1
