217	217	1
124	124	3
77	78	1
21	21	3
10	11	1
20	37	2
193	208	1
83	83	2
61	64	3
104	104	4
179	179	3
183	183	2
223	223	1
180	180	3
137	137	6
8	158	1
159	159	1
32	46	1
45	70	1
220	223	1
67	67	2
142	142	5
37	52	1
13	13	3
173	173	4
55	65	1
185	185	3
37	37	4
1	1	2
115	116	2
190	190	2
236	239	1
139	139	2
175	175	3
145	145	1
50	57	1
17	20	1
165	165	3
173	175	1
54	56	1
155	156	2
53	57	1
101	128	1
38	38	1
53	53	2
59	61	1
153	154	1
148	148	3
174	174	5
84	84	3
14	19	1
6	19	1
76	77	3
29	45	1
179	186	2
120	121	1
82	83	2
155	155	3
0	216	2
22	22	4
35	49	1
2	3	2
162	162	3
127	127	4
0	10	1
29	104	1
114	115	1
170	170	2
184	187	1
220	220	3
220	238	1
239	239	3
237	237	1
27	29	2
34	34	3
148	156	1
174	175	2
212	228	1
80	80	3
115	117	1
27	27	3
116	116	2
177	177	3
31	31	4
8	9	1
114	119	1
213	214	2
85	85	3
154	154	3
12	150	2
121	121	3
144	144	2
128	128	2
160	160	3
108	108	2
189	189	2
228	228	2
37	51	1
111	112	1
145	146	2
31	62	1
123	123	2
169	169	4
140	140	4
36	37	1
134	135	1
21	23	2
164	164	2
46	46	4
2	36	1
23	36	1
238	238	3
149	149	3
151	151	4
21	39	1
97	97	1
49	49	8
144	155	1
171	178	3
193	193	1
166	167	2
72	72	3
1	8	1
75	75	2
188	194	2
235	235	1
35	37	1
113	114	1
10	10	2
2	162	1
236	237	2
119	119	1
186	186	3
190	228	1
34	35	1
54	55	2
76	76	3
131	131	3
104	105	1
182	182	1
212	214	1
79	80	2
203	203	2
36	242	1
65	65	2
30	236	1
4	4	6
19	19	1
133	133	2
142	147	1
10	45	2
4	18	1
152	152	3
223	224	1
33	33	1
148	168	1
113	113	1
12	85	1
73	74	1
186	190	1
106	106	3
162	181	1
130	130	4
46	47	3
27	28	1
149	154	1
161	161	4
26	26	3
191	200	1
44	51	1
157	158	1
149	152	1
205	205	1
144	147	2
28	28	2
127	130	1
3	3	2
61	61	1
215	215	2
104	116	1
118	142	1
135	135	2
44	71	1
80	84	1
194	196	1
184	185	1
16	17	2
11	11	2
149	157	1
180	182	2
106	122	1
55	56	2
62	84	1
154	157	1
102	136	1
211	211	3
133	187	1
200	200	1
150	211	1
20	47	1
171	219	1
79	79	2
95	106	1
235	237	1
172	172	5
70	70	2
70	72	1
77	80	1
125	128	1
141	151	2
229	240	2
51	52	1
221	221	2
42	42	4
109	113	1
44	56	1
10	38	2
35	50	2
220	228	1
64	64	4
71	72	1
181	185	1
128	140	1
240	240	3
138	138	2
60	60	3
45	45	4
5	6	2
78	79	1
215	216	1
11	27	1
56	56	3
151	171	2
126	183	2
144	148	1
163	164	1
68	70	1
44	44	1
187	213	1
118	118	3
0	0	5
66	68	2
233	233	1
130	206	2
14	33	1
129	129	3
0	15	1
0	7	1
77	101	1
11	15	1
102	105	1
129	130	2
181	181	1
66	103	2
122	125	1
137	138	1
29	30	2
180	195	1
78	78	1
53	56	1
108	109	2
191	225	1
43	44	1
125	125	1
13	14	1
62	62	1
40	51	1
59	88	1
39	72	1
116	131	1
150	150	2
115	138	1
210	211	1
57	57	2
99	102	1
82	82	2
156	187	1
122	129	1
157	215	1
43	43	1
104	124	1
66	70	1
26	128	1
140	141	2
167	167	1
150	151	2
133	199	1
8	32	1
54	59	2
184	186	1
58	59	1
29	29	4
153	187	1
102	102	2
135	159	1
193	195	1
151	157	1
201	201	2
201	206	1
74	74	1
226	227	1
166	166	1
129	131	1
105	105	2
0	14	1
176	176	2
74	75	1
69	69	3
209	209	2
186	187	1
128	238	1
41	41	1
7	158	1
142	143	1
134	134	2
20	36	2
143	143	1
117	138	1
199	227	1
165	166	1
229	229	1
56	60	2
7	9	1
36	36	2
50	50	1
148	149	1
158	159	1
23	23	3
3	20	1
173	174	1
74	170	1
112	112	1
120	120	1
171	171	2
42	43	1
197	217	1
96	96	1
30	30	2
164	166	1
140	162	1
115	115	1
38	102	1
47	47	2
207	207	1
126	126	1
54	71	2
157	157	1
2	2	1
76	80	1
8	8	1
219	220	1
110	110	1
196	216	1
153	153	3
64	65	1
39	39	1
7	8	1
86	86	2
146	151	1
178	178	1
43	64	1
43	127	1
116	117	1
9	25	1
19	22	1
103	171	1
236	236	1
235	242	1
9	9	2
125	126	2
242	242	2
127	128	1
136	136	1
137	139	1
241	241	2
123	126	1
131	132	1
81	81	2
133	136	1
177	201	1
45	89	1
63	65	1
9	27	1
188	230	1
21	49	1
15	15	1
40	40	1
66	67	1
18	21	2
98	103	1
144	146	1
205	208	1
52	53	1
141	142	1
41	42	1
181	188	1
210	210	1
116	155	2
103	103	2
37	61	1
122	151	1
207	208	1
153	161	1
18	27	1
61	132	1
206	206	1
177	180	1
217	218	1
197	197	2
59	59	1
99	99	1
32	32	1
113	118	1
219	219	1
183	186	1
180	187	1
20	20	1
218	228	1
136	143	1
168	171	1
111	179	1
55	223	1
228	230	1
170	184	1
68	75	1
2	14	1
140	142	1
88	88	1
76	85	1
58	85	1
212	212	1
71	71	1
141	143	1
61	75	1
232	232	1
179	182	1
135	148	1
226	226	1
4	6	1
135	198	1
73	73	1
203	219	1
214	214	1
61	65	1
14	14	1
7	27	1
12	12	1
204	238	1
136	160	1
141	141	1
209	210	1
34	56	1
97	98	1
139	183	1
169	175	1
85	86	1
