14	16	1
94	94	2
146	146	2
52	52	4
38	38	4
166	204	1
63	63	1
113	113	5
36	37	1
175	220	1
232	245	2
197	200	1
231	231	4
116	117	1
223	223	4
23	23	3
44	44	7
228	246	1
224	224	2
106	225	1
57	65	1
19	19	5
64	64	4
112	112	7
164	164	3
114	115	2
185	185	3
1	36	1
28	28	1
246	246	1
48	50	3
85	86	2
193	196	1
211	211	4
169	169	4
5	41	1
175	175	3
242	242	7
192	193	1
215	239	2
176	202	2
81	83	1
154	154	5
203	203	3
198	198	2
229	230	4
233	241	1
12	12	4
177	177	4
153	153	2
176	176	2
181	214	1
49	50	1
55	55	1
183	183	6
31	31	6
181	182	1
41	42	1
212	212	2
9	9	5
81	81	2
177	184	1
162	169	1
201	201	6
190	196	3
80	82	2
4	4	5
93	93	7
209	209	4
194	196	1
225	225	3
38	39	1
217	217	3
208	212	2
79	81	1
96	96	2
238	238	3
34	35	2
71	71	7
34	34	5
33	145	2
5	5	2
83	83	1
67	67	2
82	82	1
166	166	4
210	215	1
47	47	8
32	32	6
195	210	2
110	110	3
215	215	2
186	188	1
167	167	4
65	65	4
194	194	3
234	234	5
150	150	3
37	38	3
78	78	3
4	5	4
189	247	1
235	235	6
214	214	8
184	231	1
67	85	1
111	111	2
161	161	4
99	99	2
188	188	2
240	240	1
174	174	3
115	115	5
77	78	1
21	21	1
190	190	3
60	115	1
212	213	1
76	77	1
235	249	1
247	247	6
237	238	2
178	178	3
221	221	5
109	109	2
6	6	3
108	108	2
245	246	1
101	101	3
213	213	3
40	41	3
24	25	5
171	171	2
87	87	4
58	58	2
208	231	1
222	222	2
238	239	1
19	20	1
29	29	4
97	98	1
21	37	1
207	207	4
88	88	2
33	33	7
226	226	5
51	51	1
60	64	1
20	20	1
248	248	1
172	172	3
101	102	1
25	25	2
155	155	4
156	156	2
191	197	1
11	11	4
236	238	1
179	179	3
46	227	1
30	30	4
157	157	2
59	59	1
34	113	1
17	18	1
164	165	2
57	59	1
180	180	2
58	66	2
56	56	3
194	195	1
68	69	1
16	16	4
98	99	1
8	8	5
210	210	4
97	97	3
220	220	2
224	225	1
241	241	4
41	155	1
2	6	1
100	101	1
208	208	1
162	162	4
200	200	6
218	218	1
62	62	3
99	100	1
84	84	1
2	2	1
174	200	1
146	152	1
49	49	1
85	85	2
205	206	2
51	61	1
244	244	1
94	100	1
184	184	3
151	151	2
168	171	1
27	27	3
47	61	1
57	57	4
104	104	2
119	119	3
56	57	1
15	15	4
75	76	1
159	159	2
10	167	1
60	60	3
18	18	2
68	68	3
30	31	1
77	77	2
45	45	1
228	228	2
204	205	1
48	48	3
21	22	2
112	114	1
75	75	4
114	114	4
194	199	1
54	54	1
158	158	2
71	73	1
89	89	3
87	88	1
227	228	1
192	199	2
239	239	3
53	53	3
229	229	2
48	49	1
197	197	2
219	219	3
86	86	1
224	236	1
170	172	1
155	227	1
226	227	1
26	26	1
61	61	2
170	170	1
213	214	1
207	208	1
100	100	3
69	72	1
176	213	1
162	163	1
118	118	4
24	24	1
198	199	1
149	149	1
50	71	1
160	160	2
233	233	2
147	147	1
243	243	1
46	46	2
189	191	1
198	216	1
179	213	1
161	162	1
37	37	6
205	205	2
64	65	1
193	194	1
236	237	1
112	113	4
180	181	2
236	241	2
179	220	1
92	94	1
36	36	1
182	182	1
157	158	1
28	30	1
17	17	1
216	216	1
79	79	1
241	242	2
14	14	1
113	202	1
7	7	3
242	244	1
168	169	1
78	81	1
76	76	4
206	206	1
195	195	2
86	89	1
160	161	2
227	227	2
8	64	1
230	246	2
66	66	1
199	199	2
10	11	1
233	234	1
35	35	1
189	189	1
89	109	1
90	90	1
86	87	2
198	200	2
116	116	1
165	200	1
90	91	1
166	167	2
185	186	2
103	107	1
168	168	1
166	168	1
33	35	1
174	184	1
181	181	1
245	245	1
118	145	1
41	52	1
215	240	1
236	244	1
229	246	1
117	117	1
81	82	1
208	209	1
84	105	1
186	186	1
107	107	2
41	41	1
33	34	1
3	3	2
210	219	1
95	110	1
72	73	1
205	207	1
197	214	1
53	54	1
232	232	1
56	119	1
208	210	1
106	106	1
119	145	1
217	223	1
165	166	1
203	204	1
76	78	1
53	235	1
22	22	1
165	165	1
10	226	1
47	50	1
55	57	1
98	98	1
79	82	1
113	114	1
217	218	1
159	172	1
91	91	1
152	153	1
40	40	2
246	247	1
163	164	1
42	43	1
237	237	1
145	145	1
63	64	1
117	118	1
4	7	1
230	230	1
72	72	1
173	173	1
49	51	1
66	67	1
194	198	1
5	7	1
42	42	1
178	179	1
201	230	1
74	74	1
198	222	1
