28	28	7
1	20	2
8	8	10
1	74	1
38	38	3
34	34	14
1	1	6
13	13	5
27	28	5
32	32	9
1	2	5
36	36	9
25	25	5
10	10	8
27	27	3
75	75	6
72	74	2
55	61	2
60	60	3
64	64	1
24	32	1
28	29	4
73	75	1
7	7	5
76	76	4
52	54	1
23	24	4
51	51	4
5	5	10
33	67	1
24	24	17
2	2	5
43	43	8
20	50	1
36	38	2
26	28	3
33	34	5
41	41	4
21	21	4
27	35	1
54	55	3
58	59	2
35	35	6
39	41	1
30	31	1
42	42	1
31	32	4
48	50	1
60	73	1
38	41	2
52	52	2
19	19	8
62	64	1
9	9	3
34	75	1
23	29	1
57	59	2
31	31	4
11	11	7
2	20	1
22	23	6
1	3	2
33	54	2
35	36	8
22	22	7
10	20	3
35	60	1
54	54	5
24	25	4
48	48	3
45	45	6
62	66	2
36	61	1
6	6	11
69	69	5
36	37	3
2	7	1
12	13	1
50	50	5
46	46	2
25	26	2
73	73	3
8	20	2
8	21	1
43	59	1
24	27	1
72	73	2
69	70	1
39	39	3
56	56	5
42	58	2
3	3	6
65	66	1
61	63	1
34	61	1
77	77	2
27	32	1
29	29	3
53	53	1
22	30	2
57	57	5
44	44	2
7	8	1
4	5	2
71	72	1
72	72	2
23	23	5
60	61	1
60	74	1
12	12	4
68	70	2
52	53	2
21	26	1
59	72	1
12	20	2
49	50	2
57	58	1
5	6	2
43	45	2
44	54	3
33	33	11
7	22	1
19	46	2
58	58	3
30	50	1
59	59	2
28	73	1
43	55	1
74	74	2
55	56	1
39	42	1
23	48	1
26	26	1
37	39	2
35	77	2
25	71	1
8	29	1
20	20	1
55	55	3
40	41	1
62	70	2
13	35	1
9	10	2
30	32	1
0	0	2
71	71	2
5	8	1
77	78	1
26	27	3
24	30	1
76	77	1
56	74	1
35	40	1
47	47	2
4	62	1
70	71	1
67	69	1
25	27	1
2	5	1
11	12	2
7	23	2
28	32	3
47	48	3
34	35	2
41	42	1
66	67	3
37	37	2
33	53	1
33	59	1
13	14	1
32	33	1
9	54	1
36	39	2
27	31	1
67	67	1
33	72	1
4	4	2
50	51	1
70	70	3
43	46	1
46	47	2
37	38	2
69	71	1
66	68	1
52	66	1
68	69	1
35	37	1
9	19	1
6	19	2
30	30	2
52	56	1
29	30	1
6	7	1
61	71	1
52	61	1
4	8	1
23	47	1
60	67	1
49	49	2
3	7	1
7	10	1
34	39	1
50	53	1
22	25	1
3	4	1
1	7	1
4	6	2
21	22	2
10	21	2
46	55	1
71	73	1
44	45	1
25	28	1
64	65	1
43	54	1
10	11	1
63	63	1
59	75	1
2	3	1
59	68	1
35	59	1
66	66	1
27	30	1
0	2	1
74	75	1
