102	102	3
28	98	1
126	131	1
38	38	2
21	21	2
28	28	3
100	100	5
24	24	1
120	120	3
131	131	2
133	137	2
110	112	1
13	23	1
105	105	2
52	52	2
59	60	2
22	22	4
60	60	3
82	82	5
100	101	1
73	73	3
127	127	2
56	56	4
141	141	3
124	124	8
134	139	1
116	132	2
50	79	1
48	48	2
63	63	3
49	50	1
30	30	4
48	61	1
114	114	1
143	143	2
136	136	3
129	129	4
43	43	2
34	34	3
90	90	1
52	53	4
92	92	1
74	75	2
111	112	1
121	123	2
62	62	5
99	99	5
95	106	1
113	115	2
94	109	2
0	1	1
132	132	2
139	139	2
58	58	2
5	5	2
80	80	1
15	15	3
54	54	1
101	101	3
66	67	1
95	103	1
91	92	2
7	12	1
87	91	1
79	79	1
134	134	1
26	42	1
107	107	4
137	138	2
23	23	1
140	140	1
1	1	3
77	84	2
43	64	1
27	27	2
29	39	1
142	143	2
19	21	2
80	85	1
18	18	1
63	94	1
109	109	2
124	136	2
35	52	1
29	29	3
130	131	1
144	144	3
24	71	1
133	135	1
26	26	1
38	48	2
67	67	1
3	4	2
109	110	1
11	11	5
121	121	3
104	104	3
62	96	1
57	90	2
71	74	1
142	142	1
55	56	1
9	9	2
38	49	1
118	133	2
98	118	1
5	6	1
135	136	1
32	32	1
30	31	1
9	10	2
26	41	1
75	75	2
128	130	1
27	74	1
69	71	1
57	129	1
103	103	3
86	91	1
145	146	1
128	128	1
73	90	1
20	20	2
4	4	3
122	123	1
98	98	2
53	53	1
112	112	3
145	145	3
81	96	1
77	77	3
124	141	1
103	104	1
41	41	3
141	142	1
47	47	1
68	68	2
106	106	4
26	27	1
92	93	3
13	13	3
87	93	1
116	116	1
113	113	1
87	90	1
25	25	2
54	55	1
69	72	1
116	117	3
57	57	2
65	65	1
10	10	2
76	77	1
84	85	1
14	37	1
107	128	1
118	119	2
59	78	1
123	125	1
81	81	3
47	80	1
12	12	1
56	74	1
125	125	4
71	71	1
133	133	2
17	17	2
123	124	2
3	3	3
125	126	1
114	115	1
112	113	1
78	80	1
93	93	1
87	87	2
72	77	1
84	86	1
27	100	1
39	39	1
72	73	1
2	2	2
85	85	2
128	129	1
96	122	1
119	119	1
32	47	1
36	115	1
31	35	1
124	125	1
94	115	1
35	35	1
126	126	2
30	100	1
40	41	1
119	128	1
77	80	1
36	62	1
28	38	1
15	16	1
119	120	1
1	2	1
17	18	2
8	8	2
61	61	2
55	60	1
90	91	1
74	74	1
64	67	1
86	106	1
111	122	1
31	31	1
14	16	1
95	95	1
73	74	1
75	76	1
14	14	1
37	37	1
91	91	1
0	0	1
101	102	1
36	81	1
65	66	1
37	62	2
14	15	1
97	103	1
115	115	1
32	33	1
