42	42	5
157	160	1
14	15	5
114	114	1
155	155	4
30	30	3
44	44	5
38	38	5
154	155	2
106	106	2
2	2	3
76	77	2
131	131	1
33	60	1
10	12	1
33	33	1
6	189	1
12	12	2
47	47	2
34	34	3
136	137	3
135	135	2
64	64	2
183	183	2
41	41	2
13	66	1
186	186	1
31	31	3
66	66	1
83	83	5
194	194	1
176	176	6
19	19	5
4	38	3
51	52	3
77	77	2
133	140	1
40	40	2
18	19	1
19	21	1
185	194	1
39	39	4
192	192	3
71	71	2
131	132	1
59	59	1
34	35	2
172	173	2
134	134	2
56	59	1
110	111	1
35	37	1
71	72	2
166	166	2
16	16	4
110	110	2
132	132	1
80	192	1
37	38	1
157	157	1
187	190	1
40	168	2
187	187	5
130	131	5
119	152	1
4	5	3
24	27	1
6	6	3
10	10	3
149	149	2
15	15	4
19	23	2
93	93	1
144	145	1
33	35	1
62	64	1
124	125	1
23	24	2
102	102	1
72	72	1
3	5	1
25	25	4
5	7	1
180	180	2
197	197	5
188	190	1
164	167	2
132	133	3
101	101	4
16	24	1
37	37	3
156	156	4
133	133	2
191	191	1
13	43	1
50	99	1
58	58	2
178	178	3
108	108	2
9	10	1
184	184	1
19	35	1
53	53	2
140	140	1
122	122	1
17	17	6
48	48	2
95	97	1
43	43	3
96	97	2
52	52	1
35	35	4
139	139	3
107	107	2
33	37	1
127	128	1
7	7	3
26	27	1
70	71	2
46	46	2
5	5	4
168	168	1
138	138	2
17	115	1
109	182	1
2	4	1
116	116	1
54	54	5
117	117	1
35	36	2
157	158	2
181	182	2
18	18	3
170	177	1
32	32	1
68	68	1
129	129	2
56	58	1
181	181	5
99	99	1
14	14	1
167	167	1
139	150	1
150	150	1
143	143	1
16	37	1
23	23	2
4	4	2
183	196	1
152	152	2
80	81	1
34	36	1
153	154	1
40	41	1
7	8	2
174	174	2
98	100	2
26	29	1
32	36	1
170	171	1
103	103	1
167	168	2
0	1	2
145	169	1
124	124	2
169	169	2
153	153	1
128	129	2
27	27	2
159	159	1
137	137	3
67	67	3
185	186	2
145	145	2
118	118	4
25	28	1
172	172	3
182	182	2
39	43	1
175	188	1
57	59	1
57	57	2
83	85	1
140	141	1
16	38	1
24	24	3
70	70	1
15	16	1
113	161	2
125	126	1
33	69	1
126	126	1
149	181	1
115	115	1
28	28	2
9	9	1
13	14	1
45	169	1
62	63	1
10	13	1
131	134	1
60	60	2
158	159	1
56	56	1
32	94	1
137	159	1
6	39	2
189	189	2
17	38	2
11	11	1
15	17	1
8	30	1
33	34	1
28	29	1
174	190	1
33	47	1
112	112	1
169	186	1
118	149	1
146	146	1
12	13	1
15	45	1
123	123	1
87	88	1
191	192	1
121	121	1
111	168	1
26	26	1
63	66	1
39	40	1
101	104	1
3	40	1
172	187	1
148	148	1
58	59	1
147	147	1
0	0	3
0	23	1
162	190	1
57	58	1
155	183	1
6	18	1
49	57	1
141	142	1
177	177	1
160	160	1
3	4	2
1	26	1
5	37	1
62	66	1
41	180	1
155	156	1
13	13	1
152	153	1
111	112	1
120	148	1
20	192	1
5	39	1
109	109	1
43	44	1
11	12	1
105	105	1
85	85	1
