109	109	2
80	81	1
16	24	1
46	46	5
35	57	1
20	21	1
128	128	4
37	38	3
21	21	8
11	11	4
153	153	1
19	19	6
43	44	1
87	88	2
50	50	2
93	93	1
30	37	1
100	101	2
99	99	1
116	117	2
97	97	3
105	105	3
53	53	5
149	150	1
55	55	2
51	51	2
94	101	1
2	2	1
148	148	2
146	146	3
16	20	1
94	135	1
3	3	4
72	73	1
115	116	1
69	69	3
106	106	2
56	62	1
43	43	4
149	149	3
8	8	2
68	102	1
153	154	2
63	63	2
137	137	3
17	17	3
87	87	1
92	92	1
76	102	2
33	33	2
117	117	1
135	135	3
64	119	1
16	55	1
54	55	1
35	38	2
72	72	2
75	102	1
120	120	1
41	41	2
132	132	2
132	133	1
112	112	3
123	129	1
15	38	1
122	123	1
3	4	2
107	139	1
53	54	1
42	42	3
64	64	1
40	41	2
3	18	1
44	44	3
42	43	1
121	121	3
78	78	2
16	18	1
101	101	1
7	8	2
75	76	2
107	108	1
18	18	5
23	23	6
130	131	1
24	25	2
76	77	1
123	123	5
150	150	1
50	71	2
145	147	1
57	57	1
109	139	1
90	90	1
122	153	1
49	49	2
126	127	1
146	147	2
10	10	2
100	118	1
144	144	2
147	148	1
56	57	2
31	40	2
15	15	2
116	116	4
14	14	2
4	4	2
16	16	4
33	34	3
34	34	5
44	70	1
111	113	1
5	5	2
25	25	1
133	133	2
18	24	1
85	85	2
7	7	3
76	83	1
32	36	1
127	127	1
53	68	1
135	136	2
113	114	2
14	24	1
102	107	1
98	98	2
27	28	1
102	102	1
131	131	1
98	99	1
106	113	1
131	138	1
44	47	1
62	62	1
142	147	1
50	51	1
2	128	1
47	47	1
96	99	1
29	30	3
73	73	2
124	124	2
84	86	1
29	29	1
133	134	1
45	57	1
150	151	1
93	96	1
44	46	1
18	43	1
75	75	1
20	20	2
5	6	1
65	65	1
31	32	2
16	39	2
118	123	1
32	33	2
103	105	2
79	79	1
107	107	1
99	100	2
106	114	1
133	138	1
38	38	1
72	76	1
36	36	1
39	39	1
15	24	1
39	48	1
64	65	1
7	9	1
13	13	1
152	152	1
96	97	2
10	11	1
129	132	1
142	144	2
48	48	1
68	68	2
118	122	1
48	49	2
124	127	1
66	67	1
63	64	1
12	12	3
68	69	1
9	9	2
84	84	1
122	124	1
49	50	1
41	42	1
94	100	2
38	39	1
80	82	1
121	136	1
104	104	1
104	105	1
136	136	3
24	39	1
18	19	1
100	103	1
141	141	1
24	24	1
71	71	1
129	129	1
16	150	1
102	138	1
16	25	1
15	17	1
36	37	1
118	118	1
11	110	1
86	86	2
116	119	1
101	102	1
129	136	2
121	122	1
8	9	1
44	45	1
100	100	1
67	68	1
12	14	1
103	104	1
67	67	2
46	64	1
139	139	1
45	45	1
75	77	1
126	126	1
66	66	1
79	82	1
103	103	1
111	111	1
30	30	1
115	115	1
13	24	1
23	24	1
37	43	1
144	145	1
129	133	1
14	29	1
8	12	1
15	16	1
40	40	1
