73	74	2
121	121	5
97	142	1
6	7	4
120	120	3
147	147	7
2	4	1
25	28	1
139	139	2
92	92	6
157	157	3
84	85	2
67	96	1
53	54	1
109	111	3
90	90	3
71	132	1
150	152	1
85	85	3
130	130	5
125	126	4
11	11	3
51	52	2
61	61	2
151	151	6
10	11	1
136	137	1
106	107	1
36	36	1
70	103	1
122	122	4
105	105	2
19	19	2
141	141	5
101	101	3
1	1	2
21	30	1
8	8	4
120	138	1
137	137	6
109	110	1
95	95	6
79	79	5
78	78	3
85	86	1
36	81	2
3	3	3
53	53	2
119	147	1
134	135	1
80	80	1
148	148	4
155	155	1
113	113	4
112	112	6
114	115	2
133	142	1
115	116	3
141	157	1
0	1	1
158	158	3
85	118	1
114	114	1
13	14	1
3	4	2
110	110	1
75	75	6
145	145	4
142	148	2
8	9	1
37	37	2
47	47	3
131	150	1
43	43	4
33	33	7
0	0	3
98	130	1
109	109	2
81	81	3
150	150	10
100	100	5
99	99	4
41	52	1
135	135	4
63	63	3
113	115	2
87	104	1
158	159	1
87	89	1
125	138	1
94	95	2
132	156	1
130	133	2
72	73	1
15	15	1
49	51	1
96	96	4
148	151	1
103	104	1
49	49	1
55	55	2
154	155	1
101	116	1
117	117	4
87	108	1
107	107	2
29	67	1
111	117	1
68	68	4
153	153	1
88	88	1
94	108	1
118	118	4
64	67	1
84	93	3
69	69	3
128	152	1
87	90	1
129	129	6
87	87	2
119	119	2
122	123	1
18	18	4
108	126	2
85	88	1
12	12	1
118	121	1
22	144	1
108	111	1
124	125	1
77	78	1
75	104	1
83	91	1
155	158	1
78	79	3
116	116	1
151	154	2
139	140	2
115	115	2
70	96	1
50	50	2
144	144	1
86	120	1
31	31	1
156	156	3
123	145	1
111	111	4
142	147	1
124	124	6
67	67	2
70	70	2
133	138	1
77	77	1
82	83	2
124	127	1
16	16	1
81	115	1
131	134	2
87	88	1
83	112	1
44	44	2
28	65	1
126	127	1
29	35	1
29	29	2
79	84	1
140	140	2
98	98	7
21	21	3
84	84	1
54	55	2
119	135	1
56	56	4
127	127	1
83	84	1
72	76	1
38	39	1
138	138	1
22	22	1
45	45	5
127	128	2
70	90	1
3	30	1
122	147	1
144	145	1
150	151	1
71	90	1
97	139	1
108	112	2
17	17	1
112	113	1
123	123	4
131	133	1
91	91	3
47	51	1
48	50	1
26	68	1
71	71	2
24	149	1
93	93	1
140	141	1
78	112	1
128	128	4
13	13	2
13	50	1
137	138	1
136	136	3
131	131	4
48	48	1
71	87	1
131	156	1
126	126	4
10	47	2
108	127	2
30	30	1
68	93	1
2	2	1
50	64	1
154	154	3
107	112	1
65	66	1
64	77	1
41	54	1
118	124	1
97	128	1
26	26	3
25	26	1
116	131	1
4	4	2
22	48	1
13	46	1
49	56	2
62	62	1
132	133	1
83	85	1
103	125	1
5	5	2
86	86	2
135	138	1
107	126	1
27	28	1
120	121	2
7	8	1
152	153	1
47	48	1
140	142	2
69	70	1
25	25	1
66	66	2
101	102	1
117	126	1
24	26	1
103	103	1
97	97	1
124	126	1
123	126	1
12	13	2
39	50	1
28	28	2
125	125	2
110	112	1
100	101	1
106	106	1
123	125	1
157	158	1
66	104	1
65	65	1
63	64	1
23	23	1
82	86	1
38	38	2
43	45	1
156	157	1
24	24	1
73	73	1
39	39	3
143	143	1
64	91	1
47	57	1
156	158	1
139	141	1
75	92	1
92	93	1
43	44	1
10	10	1
132	132	1
108	125	1
110	127	1
25	68	1
28	29	1
148	154	2
52	52	1
106	111	2
117	118	1
12	40	1
152	152	1
33	44	1
142	152	1
111	112	1
7	31	1
123	124	1
40	40	1
94	94	2
146	146	1
94	104	1
64	66	1
123	153	1
36	105	1
42	42	1
128	139	2
33	40	1
0	5	1
133	134	1
154	158	1
8	19	1
138	140	1
36	39	1
52	140	1
55	73	1
142	145	1
52	54	1
76	92	1
89	89	1
110	111	1
79	86	1
112	137	1
142	142	1
85	111	1
9	9	1
109	127	1
0	6	1
41	41	1
121	143	1
111	116	1
42	43	2
119	140	1
66	91	1
20	20	1
104	104	1
