83	83	2
113	113	4
129	140	2
71	78	1
156	156	2
142	152	1
100	100	4
73	73	4
7	7	6
21	27	1
25	25	3
93	133	1
99	99	4
95	96	3
17	17	2
150	151	3
75	98	1
136	136	5
71	90	1
140	140	6
6	6	2
120	120	3
16	16	4
81	81	1
144	144	3
24	24	4
35	51	4
96	96	5
55	56	2
158	158	4
40	40	1
76	76	3
6	32	1
50	52	1
118	118	3
142	142	3
135	136	1
13	13	2
139	141	1
1	2	2
115	125	1
139	139	5
100	107	1
139	152	1
3	3	6
133	133	5
87	116	1
101	101	7
25	26	1
118	119	2
112	112	2
65	65	2
69	72	1
82	121	1
114	115	2
92	92	1
90	93	2
77	98	1
154	155	1
126	137	1
2	50	2
70	70	1
34	46	1
4	44	1
119	136	1
133	155	1
135	135	8
95	95	1
123	123	5
152	152	7
113	114	1
138	138	5
82	82	1
14	28	1
8	8	2
109	109	3
35	39	1
97	98	1
0	0	3
151	152	1
53	69	1
132	132	4
70	71	1
56	56	2
131	131	3
145	148	2
103	104	2
84	84	3
120	121	2
122	147	1
142	143	4
69	69	2
111	111	1
41	41	1
63	63	3
106	138	1
78	80	1
98	99	1
48	52	1
38	39	1
155	156	1
99	103	1
155	157	1
50	50	3
67	67	2
36	50	1
68	68	2
148	148	5
6	157	1
17	26	1
86	116	1
27	28	1
157	158	3
126	135	1
140	152	1
21	21	3
83	94	2
52	52	2
106	107	1
56	145	1
51	52	1
126	127	1
103	105	1
153	153	1
49	49	2
94	94	4
44	45	1
117	117	1
111	112	3
70	77	1
91	91	8
42	42	6
137	137	6
121	121	3
108	109	2
24	132	1
129	129	4
15	49	1
75	75	2
52	53	2
64	64	3
94	95	1
1	159	2
106	106	3
88	89	1
6	22	2
115	115	2
146	146	4
144	148	1
35	35	3
86	106	1
126	126	1
122	122	2
48	48	1
130	130	6
93	94	2
154	154	4
4	4	3
131	133	1
43	77	1
125	125	2
104	104	3
128	128	8
31	31	1
147	147	3
135	149	1
82	89	1
143	143	2
144	147	1
45	47	1
149	149	3
117	136	1
18	44	1
155	155	8
5	157	2
151	151	1
87	114	1
93	93	2
39	39	1
77	77	2
29	30	2
118	142	2
128	129	4
19	21	1
138	156	1
138	140	1
143	145	1
30	45	1
100	150	1
125	126	1
127	127	4
128	130	1
5	44	2
111	157	1
5	5	3
9	9	1
75	132	1
140	142	1
29	65	1
92	95	1
105	105	5
86	86	6
22	22	1
88	108	1
107	107	4
132	133	1
53	53	1
119	120	2
121	126	2
150	150	3
103	103	3
122	123	1
98	98	2
23	154	1
79	79	2
147	148	1
108	111	1
93	112	1
145	145	3
64	77	1
94	109	1
102	103	1
87	87	2
34	34	1
127	130	1
47	49	1
18	18	1
132	141	1
20	20	2
96	97	1
124	124	2
76	80	1
141	142	1
148	153	1
22	29	1
31	54	1
116	142	1
89	89	3
46	46	1
1	1	3
156	157	1
135	137	5
89	105	1
116	116	1
33	33	1
129	156	1
65	100	1
32	67	1
29	29	1
78	78	1
90	90	1
108	108	2
141	141	5
14	14	2
12	41	1
57	121	1
123	135	1
55	55	1
32	32	3
18	20	1
119	119	1
88	88	1
94	138	2
26	26	2
109	110	1
66	66	2
18	52	1
158	159	2
110	137	1
144	145	1
136	146	1
142	144	1
128	139	2
30	31	1
105	112	1
15	16	1
51	51	2
107	108	1
157	157	2
128	157	1
121	148	2
68	70	1
28	28	1
30	30	2
36	42	2
81	82	1
155	158	2
114	114	1
45	45	2
50	51	1
136	158	1
134	134	2
137	138	1
69	119	1
72	72	1
139	140	1
121	122	1
132	139	1
84	85	2
44	44	2
75	76	1
71	71	1
54	55	1
33	34	1
11	11	1
134	135	1
133	159	1
12	12	1
2	3	3
110	111	1
43	48	1
69	70	1
138	142	1
22	23	1
24	29	1
123	125	1
110	121	1
92	143	1
15	15	1
25	55	1
130	133	1
26	44	1
146	147	1
43	43	1
112	127	1
32	44	1
23	23	1
71	92	1
94	112	1
112	116	1
116	120	1
86	94	1
85	85	1
