151	152	4
5	5	8
17	27	1
190	193	2
5	9	2
170	170	4
162	162	4
178	178	5
87	89	1
137	148	1
83	84	2
188	188	5
173	178	2
96	96	2
102	102	5
179	180	1
156	156	9
3	3	9
175	192	1
108	109	1
160	160	5
156	159	1
187	187	5
176	181	2
139	157	1
197	197	10
63	187	2
153	155	1
9	10	3
7	7	13
132	181	2
179	179	2
48	196	1
65	67	2
20	20	8
132	132	4
159	159	6
177	178	1
0	0	9
151	157	1
37	37	6
35	36	2
38	43	1
100	100	1
1	8	1
114	114	5
155	162	1
93	93	2
30	35	1
154	155	4
15	16	3
163	163	2
140	140	4
54	189	1
195	195	4
135	136	5
26	26	4
17	17	2
40	40	9
31	32	4
118	123	2
13	24	1
193	193	8
27	29	2
63	64	3
138	157	1
11	21	1
28	36	3
70	70	5
101	101	1
148	161	1
71	72	1
111	112	3
19	19	4
85	86	5
23	48	1
114	118	1
141	143	1
44	45	3
28	28	4
41	41	11
57	58	1
146	148	2
39	40	4
116	116	2
32	32	3
31	31	7
120	135	1
131	131	3
10	10	13
39	39	4
163	164	2
72	72	1
133	143	1
16	17	3
117	123	1
147	147	3
59	59	3
55	55	6
13	32	1
46	47	3
178	179	4
0	2	3
121	122	1
19	22	1
167	178	1
84	87	1
6	7	3
58	58	3
29	33	1
124	124	2
38	38	12
159	167	3
137	143	1
172	174	1
48	48	3
164	164	1
30	30	14
47	47	12
184	184	7
61	64	1
54	79	1
149	151	1
139	139	6
59	70	2
133	134	2
162	169	1
45	134	1
190	190	3
26	33	2
2	20	1
21	21	5
153	178	1
14	41	1
141	141	9
22	22	10
144	144	5
13	14	3
30	51	1
64	64	4
180	180	6
191	191	6
136	138	1
24	73	1
153	153	3
77	77	2
100	101	1
119	119	7
135	135	1
6	6	8
63	67	1
24	24	5
38	46	1
18	25	2
171	171	5
142	142	7
51	55	1
41	44	1
43	43	7
153	191	1
71	77	1
39	41	2
108	121	2
151	154	1
66	66	4
44	44	8
68	68	1
53	53	2
27	28	4
14	15	3
174	194	1
187	188	1
155	157	3
93	98	1
11	13	1
11	11	6
188	192	1
21	22	2
24	25	2
10	11	3
23	23	8
112	112	3
42	42	6
180	182	1
16	16	7
4	5	3
67	67	4
183	183	6
24	27	1
61	75	2
74	87	1
23	24	2
136	137	1
139	143	2
15	15	8
43	44	6
1	1	4
165	165	3
11	12	4
82	83	2
168	169	1
177	177	3
23	36	1
82	82	5
82	87	1
130	148	1
62	132	1
23	33	1
71	75	2
48	49	1
127	130	1
196	196	5
73	73	4
156	195	1
75	82	1
8	32	1
130	130	4
138	138	5
13	13	5
43	47	1
38	159	1
9	149	1
194	194	5
65	66	1
45	45	3
14	20	1
47	83	1
138	144	2
8	8	4
8	31	1
183	184	2
165	166	1
35	35	3
14	141	3
1	7	4
8	9	2
30	31	3
78	79	2
151	151	4
16	32	3
99	99	4
0	1	1
4	4	4
182	183	5
94	94	4
110	110	2
95	96	2
2	2	6
14	14	2
161	164	1
46	46	5
19	30	1
152	153	1
145	146	3
78	78	5
83	85	2
88	115	1
104	104	2
43	46	2
164	166	2
109	109	5
185	192	1
189	190	1
183	196	1
26	27	1
21	31	2
9	46	1
16	39	1
52	53	1
160	167	1
118	143	2
22	23	3
129	129	2
174	174	1
41	42	3
113	135	1
69	69	1
33	42	1
31	34	2
188	193	2
150	150	5
3	24	1
71	71	1
167	167	4
34	36	3
67	178	1
26	52	1
105	106	1
159	162	2
181	183	2
58	61	1
62	63	1
186	186	5
189	189	6
109	110	2
108	108	2
159	181	1
56	56	2
134	134	5
68	69	2
5	6	2
185	193	1
9	9	6
147	148	2
192	193	1
170	177	1
103	103	1
110	138	1
4	17	2
34	34	2
173	173	4
49	184	1
38	45	1
127	127	3
18	18	4
49	50	2
117	117	1
164	177	1
144	162	1
79	178	1
45	126	1
81	81	1
166	168	1
146	147	1
148	149	1
9	13	1
105	105	1
61	61	4
195	196	1
134	135	2
165	167	1
2	3	3
153	154	1
12	70	1
56	60	1
47	48	2
169	185	2
17	32	1
176	180	1
9	34	2
113	113	1
123	123	2
63	63	4
18	20	1
185	186	2
19	47	1
60	60	1
118	118	5
5	40	1
128	128	4
9	11	1
6	17	1
1	31	1
62	65	1
143	150	1
143	143	2
51	51	1
12	13	2
105	155	1
40	44	1
19	20	2
56	59	1
28	31	1
37	38	1
86	89	1
147	150	1
173	179	1
182	182	2
169	169	1
29	29	8
85	85	1
157	158	1
180	181	2
119	120	2
192	192	4
141	142	2
167	175	1
120	120	1
87	87	3
165	170	1
52	58	1
42	47	1
48	197	1
48	195	1
141	151	1
45	54	1
86	86	2
45	62	1
161	187	2
70	104	1
88	88	2
40	41	4
79	79	4
42	43	2
146	146	1
138	139	2
16	41	1
61	62	1
127	149	1
103	104	2
32	33	3
33	33	5
51	53	1
111	118	1
164	192	1
185	185	2
140	150	3
29	35	2
88	103	1
170	171	2
145	147	2
123	126	1
64	89	1
54	54	1
161	161	4
114	115	1
122	122	7
156	183	1
99	108	1
166	166	2
20	21	2
64	67	1
129	196	1
5	26	1
150	177	1
23	30	3
154	154	6
18	22	1
31	51	1
125	125	2
77	81	1
25	37	1
0	42	1
161	162	1
193	194	1
30	36	1
94	95	1
34	35	2
176	176	2
150	152	1
72	75	1
144	145	2
192	194	1
37	44	1
9	32	1
137	137	2
155	155	2
106	106	2
12	12	2
65	65	3
130	131	1
148	148	2
10	15	1
174	190	1
126	126	2
98	98	1
130	132	1
175	182	1
149	169	1
160	171	1
58	59	1
151	169	1
60	72	1
73	87	1
165	175	1
181	181	5
146	175	2
18	23	1
175	175	4
136	136	2
50	51	1
49	49	5
128	131	1
83	83	1
27	27	4
188	191	1
0	7	1
115	138	1
170	172	1
99	100	1
138	155	2
161	169	2
112	154	1
58	65	1
111	111	1
169	178	1
31	33	1
57	62	1
28	30	2
184	185	2
8	42	1
140	143	1
187	191	2
149	149	2
188	190	1
9	18	1
23	34	1
121	121	1
52	52	4
57	57	2
2	4	1
24	32	1
94	98	1
63	71	2
12	14	1
53	122	1
14	18	1
3	157	1
135	140	1
59	63	1
10	37	1
127	128	2
8	30	1
108	113	1
9	55	1
68	83	1
25	26	2
190	197	1
94	97	1
103	105	1
192	195	1
67	68	2
141	144	1
168	168	2
94	109	1
80	80	1
2	18	1
27	37	1
132	133	1
2	19	1
145	157	1
16	38	1
20	84	1
29	53	1
56	62	1
172	173	2
183	186	1
15	17	1
34	42	1
4	35	1
9	42	1
14	23	2
33	38	1
1	2	2
182	185	1
142	147	1
156	163	1
109	111	2
77	78	1
148	156	1
6	13	1
60	62	2
28	29	1
2	30	1
82	109	1
171	183	1
20	37	1
84	84	1
83	86	1
2	6	1
161	165	1
146	154	1
158	158	2
5	28	1
113	116	1
169	171	1
164	169	1
193	195	1
95	97	1
80	82	1
11	40	1
93	100	1
50	52	1
84	86	1
2	192	1
131	162	1
142	143	2
83	94	1
178	193	1
105	121	1
15	24	1
20	22	2
138	140	1
23	25	1
157	157	2
42	46	1
150	155	1
137	138	2
129	134	1
186	187	1
7	8	2
78	83	1
153	173	1
22	25	1
23	26	1
102	106	2
115	117	1
189	194	1
55	189	1
154	156	2
190	191	1
176	183	1
181	188	1
97	98	2
113	119	2
99	101	1
163	178	1
93	94	1
12	32	1
98	99	2
4	8	1
191	194	1
41	68	1
153	179	1
3	6	1
5	8	1
117	121	1
35	51	1
184	189	1
172	172	1
157	185	1
176	177	1
36	36	2
115	124	1
151	158	1
159	182	1
89	89	1
184	192	1
115	115	1
174	182	1
33	40	1
45	137	1
149	150	1
107	119	1
188	189	1
12	15	1
19	26	1
140	141	1
156	175	1
19	25	1
50	54	1
107	107	1
71	76	2
66	72	1
160	162	1
44	71	1
6	8	1
117	118	1
17	19	1
137	139	1
83	89	1
110	111	1
40	144	1
20	26	1
82	88	1
116	117	1
149	154	1
4	14	2
67	69	1
135	138	1
102	103	1
52	63	1
18	21	1
72	87	1
31	46	1
122	142	1
14	21	1
159	171	1
17	71	1
135	167	1
156	157	1
3	8	1
13	25	1
64	66	1
168	173	1
38	44	1
119	145	1
160	180	1
172	177	1
173	175	1
38	39	1
84	89	1
159	173	1
152	178	1
158	181	1
89	90	1
154	161	1
166	175	1
142	145	1
79	80	1
13	17	1
167	168	1
