120	120	10
72	72	3
127	128	1
47	47	4
104	104	3
114	114	8
97	99	3
0	0	3
94	94	4
27	27	8
107	107	3
57	57	12
65	65	9
66	67	1
116	116	7
57	89	1
70	70	6
50	50	8
51	57	1
13	13	6
19	19	4
45	45	9
98	99	2
78	79	4
110	110	6
34	58	1
24	24	3
50	51	2
62	63	2
72	73	2
88	91	2
109	109	7
68	68	1
33	33	3
119	119	11
106	107	1
73	73	2
113	113	5
98	98	5
69	69	6
15	17	2
92	92	1
112	112	6
23	23	5
74	74	2
24	25	1
116	133	1
118	129	1
7	7	4
101	101	11
51	51	4
129	129	4
12	12	3
121	121	4
2	2	4
46	46	6
112	118	1
86	88	3
25	25	6
20	21	1
43	43	3
60	60	2
117	117	3
31	31	6
80	80	7
8	9	1
49	49	7
90	90	3
67	67	4
10	11	3
76	76	2
40	41	2
91	91	8
83	83	7
1	1	3
96	96	2
41	41	7
43	44	4
33	44	1
55	55	4
118	119	1
129	130	3
9	51	1
56	56	3
62	62	2
3	3	1
54	54	5
9	9	1
101	105	1
7	50	1
59	59	3
16	25	1
16	16	4
118	118	3
7	53	2
67	91	1
39	39	3
88	90	2
100	100	2
78	80	1
22	22	3
21	21	2
106	106	7
102	102	1
33	42	1
48	53	1
52	53	4
126	126	3
6	7	1
99	99	2
103	103	5
58	58	1
48	49	1
14	15	2
124	124	5
21	23	1
80	127	1
85	86	1
65	99	1
129	131	2
77	77	3
116	118	1
29	29	8
113	116	1
123	123	4
81	129	1
115	115	2
50	110	1
38	38	2
117	119	1
105	105	2
49	133	2
87	89	1
100	101	1
97	97	7
39	41	1
125	125	5
16	20	1
66	66	5
5	5	3
83	88	1
101	102	3
107	108	1
27	28	1
128	128	4
32	32	3
68	69	2
31	32	3
0	1	1
86	86	2
93	94	2
83	89	1
26	29	2
48	48	5
30	30	2
66	100	1
34	114	2
53	53	7
128	129	1
97	98	2
3	11	2
52	52	5
91	93	1
16	17	2
78	78	4
133	133	5
62	67	2
89	89	6
111	111	6
44	90	1
20	20	2
67	69	2
25	26	1
44	44	2
14	14	5
83	93	1
67	68	3
105	107	1
82	82	3
60	61	1
42	42	4
76	118	2
84	87	1
116	117	5
66	68	1
51	54	1
8	31	1
53	54	1
11	11	2
4	5	2
64	64	2
2	112	1
6	50	1
112	120	1
95	95	3
127	127	4
83	84	2
26	26	5
63	63	7
108	108	4
34	44	1
97	100	1
127	129	1
106	117	1
71	71	2
94	95	1
90	91	1
69	90	1
19	29	1
7	11	1
0	57	1
10	10	3
92	93	2
82	83	1
75	75	3
76	108	1
55	56	1
112	114	1
88	88	5
93	93	4
108	109	1
62	77	1
110	112	1
99	101	1
12	13	1
132	132	2
43	59	3
117	118	1
6	6	2
81	81	2
72	77	2
40	40	2
80	92	1
69	100	1
58	59	1
46	49	1
80	83	1
57	104	1
105	106	1
40	42	1
22	24	1
122	122	5
18	18	2
84	85	1
56	57	2
93	131	1
11	25	1
104	105	1
125	126	2
8	8	1
85	88	1
113	119	1
28	46	1
79	79	1
63	64	2
61	65	1
64	83	1
47	48	2
42	44	2
18	21	1
81	82	1
13	14	1
130	130	1
110	115	1
45	46	1
121	122	1
63	124	1
84	84	1
28	29	1
131	131	2
62	64	1
120	132	1
53	120	1
88	89	2
130	131	1
18	27	1
12	19	1
87	87	1
18	20	1
41	45	1
85	95	1
54	101	1
85	85	2
124	125	2
113	114	1
58	83	1
49	51	1
110	111	1
77	78	1
126	127	1
113	115	2
115	118	1
119	129	1
106	118	1
115	116	2
69	107	1
69	70	1
19	26	1
89	96	1
29	44	1
65	105	1
109	110	1
64	69	1
82	91	1
24	70	1
42	43	1
76	77	1
126	128	1
18	19	1
80	82	1
59	61	1
85	89	1
80	81	1
58	63	1
123	125	1
15	18	1
4	13	1
71	72	1
47	49	1
45	47	1
68	92	1
91	92	1
15	15	1
86	87	1
9	11	1
