90	90	1
74	81	1
52	52	2
74	91	1
62	62	2
97	98	2
100	100	5
2	2	1
24	24	2
51	51	4
14	14	3
38	38	1
29	29	3
63	63	4
39	40	2
64	65	1
97	97	2
46	46	2
72	78	1
18	19	2
57	57	4
16	16	1
113	113	6
23	24	2
85	96	2
9	9	1
27	27	3
13	59	1
41	41	2
74	74	3
0	0	1
19	19	2
22	22	2
92	93	2
131	131	4
65	65	2
102	102	2
26	26	2
130	131	1
129	129	3
56	56	2
24	25	1
79	94	1
17	20	1
53	53	1
112	130	1
42	42	2
61	62	1
87	87	4
126	126	4
52	105	1
43	43	2
105	105	3
76	127	1
127	127	6
75	82	1
115	115	4
53	57	2
76	76	1
104	105	4
71	71	3
48	48	2
84	84	2
58	60	1
43	62	1
123	123	1
107	107	3
110	110	6
128	128	4
121	121	3
119	119	3
92	92	1
55	55	2
34	52	1
72	77	1
89	97	1
106	106	1
83	83	2
22	56	3
44	45	4
59	61	1
31	33	2
63	101	1
49	49	3
81	82	2
70	104	1
109	109	2
114	114	2
87	88	1
16	65	1
120	120	4
47	53	1
47	48	1
130	130	1
70	70	1
50	50	2
122	122	2
84	88	2
28	28	2
83	96	1
11	11	3
93	93	3
67	67	3
114	115	1
101	101	2
44	44	5
69	69	4
4	4	2
117	118	1
131	132	1
72	82	1
66	66	3
98	98	2
58	59	2
72	72	1
21	21	2
46	56	2
73	73	1
110	111	1
1	1	2
127	128	1
19	21	1
77	83	1
44	68	1
34	34	3
78	78	1
46	47	3
108	117	1
10	10	3
77	78	1
45	46	1
3	3	2
92	129	1
81	81	1
88	89	1
40	100	1
82	82	2
96	96	2
73	77	1
13	24	1
124	124	3
18	18	1
86	90	1
112	112	1
23	23	2
98	99	2
75	75	2
13	14	1
55	56	1
18	70	1
111	111	1
74	92	1
38	39	1
64	64	1
42	77	1
87	91	1
15	101	1
106	107	1
78	79	1
32	51	1
54	54	1
20	20	3
33	102	1
113	114	1
39	39	1
45	45	1
54	55	1
14	18	1
18	20	1
59	60	1
94	95	1
31	31	1
4	5	1
51	104	1
32	32	1
71	80	1
111	113	1
99	100	1
61	61	1
29	30	1
120	121	1
67	68	1
79	80	1
99	103	1
12	25	1
0	1	1
