114	115	3
116	140	1
104	106	1
157	157	4
150	150	3
149	149	6
36	36	1
158	158	6
158	159	1
21	21	5
79	80	3
42	43	1
42	106	1
146	147	2
8	8	2
23	34	2
28	54	1
100	100	3
145	146	3
112	112	5
43	43	2
92	92	1
24	107	1
131	131	6
118	118	3
98	98	5
140	140	5
38	38	3
125	125	3
9	10	1
8	10	1
62	62	2
2	2	2
152	152	7
34	64	2
97	97	4
68	68	3
63	64	2
111	111	1
130	130	4
108	110	2
116	116	2
79	79	4
21	31	2
106	106	7
137	138	2
40	40	2
6	6	4
55	55	2
46	46	3
80	81	1
73	73	6
131	132	1
70	118	3
147	147	3
69	70	1
127	128	2
77	77	1
64	64	3
67	68	1
137	137	4
15	15	1
147	148	2
44	45	4
133	133	5
111	124	1
114	114	4
91	116	1
71	71	5
99	99	6
96	96	4
110	110	3
78	79	1
128	128	5
101	101	4
93	97	1
11	11	3
141	141	4
3	4	1
24	24	3
94	94	2
81	81	2
105	105	2
45	45	2
123	126	1
62	63	1
63	63	4
155	155	6
84	84	2
104	104	8
157	158	3
126	127	1
125	126	2
116	150	1
23	23	1
37	37	2
70	77	1
83	83	2
91	92	1
4	126	1
132	134	2
122	122	3
38	39	1
31	135	1
129	133	1
32	32	1
26	26	1
94	95	2
22	23	2
67	67	3
121	122	2
152	154	1
99	141	3
70	70	3
87	87	3
132	132	5
24	26	1
41	41	6
40	54	1
136	136	3
12	12	1
34	34	1
14	14	1
120	139	1
32	98	1
82	83	3
119	119	2
126	133	1
106	107	2
69	69	1
66	67	1
56	57	1
154	154	2
44	44	2
68	69	2
110	116	1
107	107	1
156	156	2
129	130	1
5	106	1
132	139	1
91	101	1
148	150	1
138	138	2
136	142	1
7	7	2
119	135	1
123	123	2
103	103	1
75	75	1
33	33	1
124	124	2
145	147	2
9	20	1
12	86	1
108	109	1
27	27	1
25	92	1
148	149	1
49	49	2
135	135	2
115	116	2
15	37	1
123	125	2
133	134	1
122	123	1
36	91	1
56	56	2
148	148	3
79	94	2
64	83	2
111	112	1
29	30	2
3	3	2
65	65	2
17	18	1
124	133	2
96	97	1
132	148	1
29	32	2
22	22	2
71	132	1
39	50	1
35	35	1
66	66	2
115	142	1
10	10	1
93	93	3
103	104	2
15	16	1
26	29	1
86	87	1
113	114	2
95	96	2
111	153	2
4	5	1
124	127	1
25	29	1
72	72	1
61	61	1
17	21	1
17	142	1
107	112	2
116	138	1
30	30	3
5	5	3
88	89	1
120	120	2
11	12	1
21	33	1
25	26	1
113	123	1
121	121	1
1	1	2
48	49	1
40	42	1
17	17	1
124	125	1
96	152	1
91	91	1
13	13	1
76	76	2
29	29	1
143	143	2
126	126	2
108	136	1
50	51	1
85	85	1
75	98	1
154	155	1
64	100	1
50	50	1
127	127	2
52	53	1
48	52	1
122	144	1
123	124	2
132	133	1
139	141	1
24	25	1
120	152	1
90	91	1
131	150	2
47	47	1
49	151	1
75	140	1
127	148	1
89	89	1
127	130	1
64	67	1
6	10	1
151	151	1
98	111	1
71	133	1
13	37	1
142	142	2
52	55	1
52	52	2
31	31	2
92	107	1
123	142	1
145	149	1
23	25	1
26	100	1
140	141	1
127	138	1
40	41	1
134	134	2
18	18	2
40	56	1
72	150	1
110	111	1
117	117	1
155	156	1
139	139	2
68	137	1
23	27	1
138	148	1
46	48	1
57	57	1
111	126	1
144	145	1
70	71	1
92	95	1
145	145	1
84	113	1
28	28	1
24	27	1
78	78	1
107	133	1
48	48	1
19	19	1
45	48	1
136	137	1
115	152	1
37	89	1
66	69	1
124	144	1
10	11	1
135	136	1
20	50	1
