181	181	14
22	22	16
15	21	1
18	18	12
198	214	1
231	231	11
175	175	6
223	223	2
241	241	5
226	226	8
73	73	6
189	189	7
229	229	12
218	219	4
23	23	22
11	44	2
52	52	10
111	112	2
7	7	15
70	95	1
180	180	4
36	36	6
161	161	7
225	226	5
156	157	2
96	96	5
75	98	2
14	14	13
216	219	5
8	43	1
167	208	2
178	179	3
57	58	5
39	39	13
193	194	4
221	221	6
107	107	2
114	114	16
182	182	12
236	236	11
177	177	8
48	246	3
47	47	10
61	62	3
166	166	21
67	76	1
81	84	3
116	117	5
100	101	1
17	116	1
244	245	1
42	42	10
190	190	9
216	216	6
21	21	16
38	38	11
194	194	7
39	91	1
29	53	1
11	11	19
163	163	12
25	25	13
171	184	1
211	211	14
101	105	1
17	17	5
51	223	1
53	53	9
99	99	7
69	71	1
175	211	1
16	27	1
219	219	5
112	112	6
80	115	1
221	222	4
50	244	1
214	217	1
205	231	1
203	204	8
216	242	1
214	215	1
109	109	11
35	35	11
72	72	7
71	75	1
173	173	5
217	217	6
147	147	3
3	3	9
200	200	12
55	56	1
175	191	1
5	5	8
96	97	4
50	230	1
205	205	13
92	93	5
14	15	5
105	106	2
192	192	10
176	176	9
175	176	2
19	19	13
61	61	3
172	172	9
204	205	6
90	91	1
94	121	1
1	1	5
121	121	1
202	202	9
218	218	5
179	179	4
48	48	5
208	209	4
186	186	8
87	87	5
33	33	8
63	63	7
237	237	6
165	167	1
164	180	1
36	54	1
195	196	3
214	214	11
20	23	1
89	118	1
56	64	1
91	91	4
62	63	3
178	178	5
224	224	4
58	60	1
168	168	10
207	207	19
149	149	4
201	201	13
245	246	9
2	2	5
97	97	4
26	26	12
75	77	1
39	156	1
212	212	10
180	181	3
100	100	7
247	247	11
204	204	13
20	20	13
61	112	1
178	185	2
151	152	1
246	247	3
90	90	12
239	239	6
27	27	10
76	155	1
169	169	8
6	6	6
177	178	2
189	191	1
31	32	1
214	232	1
34	34	12
37	37	7
50	86	1
68	200	1
59	63	1
20	21	6
162	165	2
86	86	5
161	228	1
64	64	8
200	212	1
160	160	6
155	156	2
12	12	12
1	2	2
50	50	7
213	236	1
228	229	8
208	241	2
55	219	1
181	182	3
32	32	15
174	174	9
23	24	4
10	28	1
7	38	1
199	237	1
159	159	12
223	245	1
182	213	2
236	241	2
118	118	11
40	40	5
162	214	2
19	26	1
183	183	8
163	165	1
215	217	1
176	177	4
51	55	2
15	16	3
58	58	7
106	106	4
29	32	1
220	247	2
166	167	6
77	78	5
146	147	1
234	235	7
245	245	3
48	223	1
162	171	1
37	246	1
32	37	1
150	150	9
95	95	9
42	44	1
165	165	12
34	45	1
113	113	8
194	230	1
233	233	5
52	89	1
164	164	6
85	85	8
157	157	5
215	215	3
53	54	2
170	170	6
229	230	2
153	153	11
180	213	1
76	77	2
66	113	1
167	167	10
220	220	12
56	57	1
46	155	1
68	70	2
169	170	4
28	28	12
242	242	5
42	43	3
190	191	6
206	206	5
0	8	2
212	213	2
205	225	1
225	225	8
243	243	4
111	113	2
209	209	9
144	145	1
232	233	2
65	65	6
60	89	1
227	227	7
203	203	8
191	214	1
240	241	5
175	178	2
84	84	3
97	98	4
10	10	12
105	105	5
244	244	8
191	191	9
213	213	4
176	179	1
37	38	1
94	113	1
9	9	12
225	230	1
40	41	2
66	66	5
215	216	2
63	90	1
176	197	1
41	236	1
43	44	7
202	212	1
100	206	1
46	46	6
164	165	2
62	62	6
55	57	1
31	204	1
208	208	14
210	211	3
118	119	1
162	162	7
47	48	3
244	246	1
81	81	4
185	185	4
165	172	2
15	15	8
44	44	7
8	8	6
24	28	2
43	43	18
12	38	1
4	5	5
101	101	5
213	222	4
107	169	1
30	30	8
182	184	1
241	248	1
154	154	7
94	94	10
156	156	9
27	28	1
65	247	1
150	151	3
230	230	8
56	56	6
10	11	2
61	87	1
77	77	4
34	35	4
158	158	10
197	197	8
109	110	2
78	79	1
247	249	1
99	169	1
36	37	4
55	55	12
73	74	3
8	22	1
98	99	3
79	79	6
153	154	1
59	60	1
227	228	4
196	196	1
88	88	5
249	249	1
71	71	4
60	61	1
102	103	4
45	45	17
234	234	11
198	198	9
31	31	11
195	231	1
95	96	1
49	50	1
19	20	1
89	89	4
24	24	10
181	183	2
222	222	9
158	159	2
110	110	14
155	155	6
73	75	2
99	108	2
185	200	1
49	102	2
60	60	5
68	68	3
154	155	1
116	116	10
238	239	3
187	190	1
4	4	11
17	39	1
72	94	2
67	75	1
67	67	7
38	39	7
93	93	5
32	224	1
203	205	1
59	59	9
193	195	2
62	67	1
163	164	2
199	199	5
93	94	1
107	115	1
191	192	2
5	70	1
41	41	11
219	236	1
70	70	3
46	116	1
224	226	1
221	232	1
6	7	6
183	184	3
8	228	2
232	232	8
171	171	9
101	102	1
51	51	7
7	174	1
54	54	6
26	155	1
158	178	1
108	113	1
75	76	4
227	229	2
206	207	2
66	195	1
179	180	1
20	221	1
16	16	8
162	231	2
29	30	3
93	117	1
120	145	1
69	69	6
69	70	2
5	30	1
94	95	4
71	73	1
150	154	2
235	243	1
3	4	1
168	184	1
156	161	1
114	115	3
205	211	1
92	203	1
247	248	1
89	90	1
41	42	2
193	193	7
145	145	1
94	108	1
211	236	1
37	117	1
50	69	1
33	34	3
67	101	1
203	207	1
80	80	3
111	111	8
174	175	1
104	104	2
10	227	1
4	7	1
175	185	1
29	29	4
235	235	6
183	231	1
24	25	1
226	228	2
51	54	1
219	225	1
21	22	3
228	245	1
211	220	1
54	55	5
57	57	4
32	233	1
240	240	8
78	78	3
218	248	2
115	115	5
110	111	1
12	23	1
188	190	2
228	228	5
26	27	3
210	219	1
69	80	1
223	231	1
95	97	1
5	227	1
239	241	2
56	85	1
32	33	3
82	82	2
159	160	2
169	171	2
74	75	1
98	98	4
45	46	2
179	185	1
246	246	7
37	39	1
96	101	2
99	101	2
102	102	4
11	15	1
207	231	1
155	160	1
13	13	3
8	10	1
103	103	2
184	184	9
194	195	2
238	238	4
237	240	1
47	113	1
85	100	1
41	112	1
119	119	6
185	186	1
240	245	2
233	248	1
71	77	3
151	153	1
8	9	3
172	215	1
15	226	1
248	248	4
146	146	3
86	87	2
216	217	1
87	90	2
47	63	1
109	173	1
5	75	1
165	233	1
27	31	1
186	187	2
57	59	2
27	37	1
80	119	1
192	193	4
184	185	2
167	183	1
25	229	1
89	93	1
78	84	1
48	85	1
76	86	1
32	53	1
24	37	1
235	236	3
226	233	1
59	62	2
44	45	1
171	207	1
117	117	3
67	68	4
184	194	2
174	182	2
211	212	2
242	243	2
12	160	1
241	242	2
3	5	1
73	76	1
165	219	1
89	222	1
107	108	2
163	177	1
15	183	1
58	59	1
201	229	1
168	169	3
106	108	2
151	151	3
31	38	1
40	118	1
50	99	1
120	120	3
32	154	1
92	92	1
187	225	1
162	163	2
210	210	1
236	238	1
166	227	1
213	214	5
162	184	1
170	171	4
21	29	1
227	233	1
224	246	1
51	53	1
231	245	2
96	104	1
145	179	1
220	234	3
12	27	1
217	218	4
195	232	1
9	26	1
200	223	1
72	73	1
161	203	1
81	86	1
100	181	1
152	152	3
235	237	1
210	214	1
192	195	1
182	183	1
235	246	1
7	8	1
172	174	1
87	89	2
112	113	1
41	144	1
205	212	1
210	216	1
32	36	1
165	227	1
186	191	1
238	240	2
155	167	1
212	230	1
62	200	1
48	51	2
176	185	1
65	243	1
91	92	2
9	10	2
20	27	1
171	185	2
184	195	1
46	47	1
105	209	1
172	173	2
157	160	1
31	33	1
39	212	1
198	199	1
9	12	1
51	52	3
2	7	1
188	188	3
182	233	1
185	221	2
78	85	2
196	201	1
205	206	1
166	197	1
217	219	1
47	53	1
106	107	1
36	43	1
174	176	1
225	246	1
189	190	2
186	189	1
66	67	2
32	155	1
195	197	1
187	187	2
79	87	1
202	207	1
113	114	2
160	161	2
195	195	1
87	88	2
76	76	2
173	175	1
157	158	1
168	178	1
109	170	2
150	155	1
120	144	1
191	196	1
155	161	2
55	75	1
212	227	1
194	196	1
75	75	3
179	196	1
173	174	2
232	243	1
194	234	1
5	7	1
79	81	2
191	211	1
39	40	1
154	156	1
101	104	1
66	85	1
76	107	1
220	241	1
84	96	1
248	249	2
33	44	1
49	49	3
49	244	1
223	225	1
193	196	1
219	244	3
68	110	1
115	116	1
119	120	2
63	64	2
51	179	2
79	80	1
117	118	1
201	243	1
23	231	1
85	86	3
197	198	2
52	87	1
222	223	1
96	115	1
17	158	1
167	168	1
93	171	1
172	189	2
51	58	2
199	248	1
28	54	1
26	43	1
24	152	1
81	83	1
92	113	1
233	249	1
166	209	1
240	242	1
47	62	1
40	202	1
75	101	1
161	224	1
231	232	1
200	236	1
10	12	1
164	198	1
227	231	1
158	193	1
8	15	1
52	53	2
63	77	2
228	244	1
15	29	1
79	82	1
80	84	1
164	167	1
63	76	1
1	25	1
47	51	1
1	206	1
186	188	1
28	29	1
212	236	2
233	234	1
75	78	1
40	43	1
1	29	1
34	236	1
53	58	1
17	18	2
88	89	1
213	247	1
45	117	1
194	197	1
219	237	1
80	81	1
225	235	1
11	12	2
108	108	1
45	61	1
8	112	1
85	87	1
207	246	1
76	179	1
79	85	1
99	100	1
223	242	1
0	0	1
222	234	1
70	90	1
174	226	1
214	224	1
168	185	1
208	213	1
206	214	1
215	221	1
61	101	1
181	184	1
181	195	1
209	210	2
8	40	1
202	203	1
189	192	1
50	209	1
215	218	1
208	240	1
112	236	1
0	19	1
209	225	1
9	65	1
174	179	1
213	215	1
164	170	1
51	246	1
13	14	1
159	163	1
50	208	1
82	86	1
201	202	1
162	164	1
158	171	1
70	72	1
165	229	1
