72	93	1
3	3	7
113	113	5
48	48	8
115	116	2
97	98	3
42	42	6
90	91	2
72	72	8
93	93	6
72	92	1
136	136	4
101	102	1
128	128	5
29	29	7
34	84	1
55	66	2
34	36	3
77	77	3
49	63	2
67	67	6
50	50	5
119	119	7
105	105	3
62	63	2
125	125	9
84	84	4
59	59	4
32	32	6
142	142	4
54	55	5
27	27	7
84	86	1
86	86	4
104	104	4
127	127	2
53	53	7
41	41	6
4	4	4
111	113	3
70	80	3
56	56	8
58	58	6
79	85	1
124	124	8
90	90	9
10	10	2
0	62	1
138	138	4
116	116	5
89	90	2
101	103	1
71	85	1
25	25	3
76	76	1
85	85	4
37	37	9
8	8	7
128	130	3
121	121	3
129	132	1
96	96	3
127	130	1
123	126	2
137	137	5
24	35	2
50	61	2
80	80	6
103	140	2
27	28	1
125	142	1
94	94	6
123	124	2
98	98	6
9	9	1
43	43	3
66	66	7
126	126	7
88	104	2
21	21	3
97	97	10
60	60	6
112	119	2
71	87	2
120	120	3
38	38	10
95	141	2
63	63	3
115	115	5
17	18	1
22	23	2
5	5	4
57	57	3
81	81	5
141	141	5
12	15	1
128	129	4
31	32	4
24	25	1
105	134	1
35	62	1
74	81	3
111	111	3
40	40	4
24	24	4
88	109	1
139	139	5
109	110	3
88	88	3
74	74	6
15	15	3
101	101	4
6	6	5
117	135	1
120	138	1
97	110	1
71	72	3
47	47	2
94	123	1
102	102	5
104	110	1
0	1	4
64	64	5
88	89	1
83	83	5
14	15	1
56	74	2
111	139	1
18	23	2
95	95	10
112	112	1
40	112	1
2	31	1
68	68	3
1	2	1
124	125	1
99	100	1
23	23	3
61	120	1
22	22	4
96	130	1
106	106	1
23	31	1
8	22	1
11	11	6
52	52	6
81	106	2
75	88	2
48	66	2
20	20	10
65	66	2
56	58	1
38	39	1
75	76	2
114	114	1
110	110	3
16	16	3
70	107	1
75	77	3
79	79	5
118	118	4
78	79	1
108	108	3
56	59	1
31	43	1
114	135	1
51	51	4
139	140	2
3	4	2
127	128	2
74	126	3
109	109	1
74	86	1
144	145	1
107	107	3
98	108	2
26	26	5
70	71	2
71	71	8
69	69	4
96	97	3
93	94	2
17	17	2
110	111	3
125	130	1
144	144	5
100	100	5
121	122	1
24	73	1
130	130	3
28	28	5
61	62	1
60	61	1
51	52	1
35	36	2
18	18	4
89	89	2
53	71	3
89	92	1
135	137	2
34	34	4
83	84	3
122	122	6
99	99	5
74	104	1
121	129	2
91	102	1
64	102	1
66	67	1
117	117	1
67	97	1
135	135	6
75	75	3
137	139	1
134	134	3
55	55	4
88	90	2
127	131	1
117	118	1
136	137	1
129	130	3
97	99	1
132	132	5
40	41	2
97	106	1
98	110	1
5	6	2
32	39	1
60	75	1
142	143	2
76	79	1
13	14	1
16	18	1
61	61	6
57	61	2
114	115	2
37	40	1
68	99	1
127	132	1
100	131	1
64	65	7
55	56	1
65	65	3
77	78	1
20	21	1
52	53	1
41	42	1
89	116	1
131	131	3
37	100	1
57	65	1
74	82	1
24	138	2
136	138	4
35	35	6
23	30	1
70	70	4
10	11	2
123	123	2
26	27	1
103	103	3
95	96	1
104	105	2
80	93	1
87	90	1
114	116	1
54	54	5
1	1	2
131	134	1
83	85	1
77	79	1
130	131	1
91	91	5
79	80	2
73	73	1
87	114	1
128	141	1
41	56	1
74	91	2
69	70	2
145	145	3
53	54	2
3	19	1
52	58	1
11	103	1
47	69	1
92	94	2
36	36	4
95	105	2
124	139	1
14	36	1
43	69	1
133	134	2
82	82	2
41	117	1
25	27	1
82	107	1
129	129	2
122	123	2
100	103	1
121	127	1
72	79	1
30	30	1
78	80	1
60	67	1
31	31	3
100	141	1
78	78	3
58	59	1
73	107	1
49	49	3
50	51	1
23	47	1
119	121	1
58	61	1
86	109	1
141	142	1
6	48	1
95	98	1
9	28	1
107	140	2
28	130	1
62	81	1
72	81	1
39	39	2
66	69	1
62	62	2
123	136	1
118	120	1
11	104	1
143	143	2
15	16	1
91	94	1
5	24	1
38	57	1
5	31	1
1	37	1
4	17	1
93	140	1
37	62	1
113	116	1
42	104	1
86	110	1
126	131	1
102	103	2
74	103	1
84	85	1
19	48	1
28	29	2
146	146	1
56	62	1
93	98	1
71	84	1
67	70	1
121	138	1
105	106	1
76	77	2
2	22	1
84	104	1
19	19	2
106	131	1
145	146	1
64	92	1
33	33	2
71	73	1
50	52	1
26	144	1
66	104	1
92	93	1
0	0	2
131	132	1
51	53	1
34	66	1
97	129	1
80	91	1
72	109	1
37	38	1
143	144	2
36	37	1
35	65	1
126	141	1
9	102	1
121	123	1
55	117	1
33	35	1
34	35	1
59	68	1
73	93	1
140	140	3
16	23	1
33	41	1
95	124	1
106	134	1
22	28	1
39	124	1
134	135	1
101	107	1
29	51	1
126	127	1
112	113	1
68	69	1
103	104	1
1	21	1
113	114	1
57	59	1
51	66	1
127	133	1
