120	120	2
46	49	2
42	44	3
139	139	5
107	107	2
147	159	1
93	104	1
1	2	3
46	46	4
27	27	3
135	135	2
168	168	1
36	36	4
76	79	3
55	56	1
1	1	4
163	166	1
76	76	4
112	114	1
26	26	1
166	166	1
155	155	2
44	68	1
96	101	2
154	154	4
14	14	5
48	48	4
82	83	1
122	152	1
2	168	1
148	148	1
5	5	2
73	73	1
70	70	4
161	161	2
91	91	3
116	116	2
46	47	1
42	42	3
54	55	1
82	149	1
112	150	1
2	158	1
8	9	2
159	159	3
52	53	1
73	99	1
4	4	3
123	123	1
130	130	3
69	70	1
20	37	1
24	24	2
158	158	1
79	79	4
162	162	3
27	28	3
141	141	2
10	10	4
122	130	1
147	147	2
70	108	1
129	129	2
44	47	1
107	110	2
13	44	1
134	134	1
98	103	1
46	54	1
0	0	2
34	35	1
90	90	1
110	110	3
140	140	1
64	65	1
48	49	1
105	105	3
43	43	3
169	169	2
164	164	1
70	71	1
160	161	3
104	104	2
39	41	2
53	54	1
79	163	1
81	116	1
78	78	1
123	127	1
6	6	5
99	146	2
136	136	2
57	57	2
11	12	4
136	143	2
38	110	1
106	106	1
139	158	2
45	45	3
9	9	2
18	20	1
3	128	1
96	117	1
72	72	2
53	53	3
119	120	1
129	153	1
11	13	1
146	152	1
14	148	1
138	138	1
133	134	2
67	68	1
149	149	2
38	38	3
52	57	3
13	13	6
12	12	1
87	87	3
4	5	2
127	128	1
146	146	3
136	137	1
47	50	1
142	142	2
108	108	2
6	47	1
15	15	3
85	153	1
78	92	1
80	80	1
102	102	1
8	8	1
115	115	2
163	164	1
54	54	2
126	127	1
6	16	1
21	21	1
13	14	1
112	112	3
77	78	1
168	169	1
55	55	1
137	137	1
66	128	1
85	89	1
140	164	1
40	40	1
64	112	1
47	55	1
126	128	1
131	131	1
101	101	1
168	170	1
145	145	2
97	99	1
2	9	1
124	124	1
80	86	1
133	136	2
128	129	1
69	69	1
49	54	1
71	71	1
163	163	2
41	41	2
89	110	1
9	18	1
56	56	1
137	159	1
152	152	4
111	112	1
165	165	2
82	82	2
151	152	1
7	13	3
118	119	1
19	19	1
89	89	1
79	91	2
129	169	1
88	88	2
25	25	1
74	74	1
84	85	1
8	10	1
57	62	1
103	103	1
49	49	2
98	101	1
44	44	3
33	33	2
119	119	1
99	99	2
84	84	1
122	122	2
156	156	1
8	12	1
121	121	1
71	80	1
45	47	1
67	69	1
87	100	1
89	156	1
144	144	1
119	158	1
22	22	2
23	23	3
69	118	1
129	154	1
39	39	1
117	119	1
10	47	1
66	66	2
11	11	1
104	105	1
18	18	2
117	154	1
37	37	1
170	170	2
103	104	2
44	45	1
162	163	1
96	96	2
62	62	1
147	148	1
111	111	1
3	3	1
93	93	1
67	67	1
35	90	1
110	111	1
155	156	1
16	50	1
97	97	1
47	52	1
1	169	1
85	85	1
20	20	1
139	140	1
18	46	1
125	125	1
