50	50	3
20	20	2
80	80	5
72	72	5
200	200	3
85	85	3
190	216	2
39	39	4
178	178	2
49	49	7
124	142	1
161	168	1
208	208	3
175	175	5
106	107	1
195	208	2
67	67	3
164	165	2
14	14	9
48	54	2
11	11	2
240	241	1
197	201	1
50	81	1
185	185	2
160	169	2
164	164	7
201	201	4
24	24	6
60	60	3
127	127	5
198	201	1
172	172	5
153	153	3
206	206	1
155	155	5
142	142	4
173	173	4
188	192	1
18	21	1
188	188	4
112	112	3
174	175	3
227	227	4
180	180	2
135	135	3
68	69	3
162	187	1
57	57	2
31	31	3
64	64	3
0	38	1
212	212	2
35	41	1
169	169	2
180	181	1
170	170	4
62	62	4
128	129	2
214	215	2
209	218	1
172	174	1
54	54	5
126	126	3
141	141	2
39	40	1
155	158	1
11	13	1
196	199	1
104	105	2
186	186	4
157	158	4
126	127	3
66	66	1
73	84	1
96	148	3
18	19	1
37	38	5
138	145	2
72	78	2
236	239	2
241	241	2
29	33	1
234	234	2
237	238	2
171	172	1
219	220	1
2	2	4
182	188	2
177	177	7
116	116	4
160	160	3
10	15	1
64	65	1
53	72	2
187	190	1
100	101	1
211	213	1
59	60	1
46	53	1
222	222	4
18	18	7
15	15	5
226	226	5
49	50	3
40	40	2
156	159	1
217	217	3
104	147	1
229	229	2
171	171	5
40	45	1
41	41	6
4	6	2
38	38	4
203	233	2
218	218	1
141	143	1
29	29	2
47	56	1
7	8	1
13	13	3
7	11	1
115	115	2
169	172	2
26	26	5
194	194	3
213	213	3
44	79	1
105	105	5
148	148	2
178	182	1
108	115	1
12	33	1
28	28	4
39	58	1
119	130	1
143	143	4
26	112	1
206	208	1
2	21	1
3	8	2
118	135	1
69	69	3
80	83	1
78	78	6
183	206	1
33	33	4
15	16	1
0	0	5
80	85	1
150	150	8
124	124	3
163	164	2
178	179	1
183	188	1
45	48	2
58	62	1
63	63	5
32	32	4
157	157	3
137	141	3
110	110	1
7	7	2
200	206	1
121	121	2
12	12	1
52	53	1
26	28	1
203	204	1
162	162	1
185	186	1
168	168	7
99	99	3
113	119	2
43	43	3
84	84	3
139	139	2
6	6	1
208	232	1
27	86	1
52	52	4
108	140	1
44	45	1
102	102	2
140	141	4
145	145	3
10	25	1
240	240	1
131	204	1
23	45	2
125	155	1
193	194	1
5	5	1
163	165	2
66	68	1
38	75	1
63	64	2
158	158	6
117	117	1
199	199	2
131	131	2
122	145	2
233	233	4
19	180	1
152	163	1
36	37	2
211	216	1
136	136	3
105	120	1
112	176	1
89	91	1
137	138	1
57	58	1
100	100	4
119	119	4
47	47	4
68	68	1
59	67	1
242	242	6
134	134	4
103	135	1
8	8	3
109	114	1
53	78	2
75	228	1
42	42	7
235	238	1
8	9	1
101	101	4
9	13	1
156	157	1
9	9	6
148	164	1
208	209	1
190	190	3
169	183	1
168	171	1
35	35	4
122	123	1
182	182	4
154	154	2
96	104	1
61	96	1
25	25	1
123	123	2
86	86	4
129	129	2
187	187	2
183	183	1
61	62	2
37	43	1
36	116	2
154	156	1
165	165	2
20	108	1
71	72	1
39	41	1
179	183	1
138	138	5
4	5	2
17	21	1
193	193	1
161	163	1
107	107	1
14	15	1
199	200	3
9	50	1
10	45	1
46	47	2
168	185	1
161	199	1
181	181	3
44	44	2
111	234	1
73	75	1
130	134	1
80	103	1
49	60	2
108	108	2
202	202	2
125	130	1
150	153	2
80	81	1
159	173	1
204	215	1
146	146	4
61	63	1
17	17	1
236	238	1
199	205	1
184	185	1
64	71	1
75	75	2
130	141	1
0	11	1
7	9	2
219	219	2
76	79	2
179	182	3
221	221	1
146	147	1
159	159	2
153	161	1
119	128	2
213	226	1
76	76	3
68	76	1
123	124	2
115	138	1
236	236	2
0	8	1
55	55	1
70	70	5
131	135	2
57	63	1
11	12	1
103	103	5
161	161	3
197	197	1
147	147	1
152	165	1
210	210	1
118	118	1
61	86	1
224	226	1
24	39	1
183	184	4
172	173	1
175	183	3
27	28	2
1	18	1
174	181	2
67	84	1
1	23	1
120	120	2
149	151	1
19	23	1
44	61	1
115	119	1
167	168	2
170	171	2
3	20	1
111	145	1
68	82	1
224	224	1
223	223	3
139	142	1
73	73	3
30	30	4
74	74	2
38	46	1
109	124	1
78	80	1
216	217	2
181	182	2
0	9	2
48	48	5
68	130	1
2	8	1
1	2	1
204	204	1
114	115	2
58	58	2
226	227	1
174	174	4
108	110	1
152	153	1
150	152	1
192	196	1
173	179	1
128	128	3
175	176	1
59	59	1
107	108	1
51	51	4
27	112	1
231	232	1
152	155	1
226	228	1
27	88	1
77	77	2
196	196	1
13	14	2
2	6	1
56	56	1
3	178	2
120	123	2
47	55	2
161	182	1
135	150	1
83	99	1
170	172	2
42	54	1
206	210	1
50	52	1
2	3	1
150	151	1
195	195	2
70	85	1
122	126	1
164	172	1
131	241	1
71	71	1
23	24	1
79	79	4
5	7	1
101	102	1
115	117	2
176	176	1
236	237	2
234	236	1
149	152	1
58	60	1
138	139	1
205	205	1
133	134	1
103	104	2
152	152	3
128	179	1
109	109	1
120	124	1
65	66	1
153	176	1
11	47	1
118	148	1
217	218	1
69	75	1
235	235	1
3	4	1
3	3	2
21	21	1
113	114	1
8	11	1
204	213	1
211	211	1
61	61	1
66	74	1
140	150	1
198	206	1
1	8	1
128	144	3
54	113	1
230	230	3
111	118	1
237	237	4
213	214	1
158	159	1
136	141	1
115	122	1
16	16	3
79	84	1
2	4	1
141	147	1
133	133	1
165	175	1
105	157	1
42	43	1
186	187	2
23	23	2
102	119	1
121	122	1
122	122	1
45	46	1
182	186	1
202	208	1
37	64	2
149	177	2
83	83	3
28	29	1
218	220	1
28	44	1
118	119	2
186	188	1
168	177	1
35	126	2
40	44	1
166	171	1
53	53	2
25	27	1
27	122	1
127	128	3
104	108	1
148	220	1
105	127	1
153	168	1
36	41	1
184	184	1
127	135	1
46	74	1
7	185	1
21	23	1
147	148	1
67	72	1
231	231	1
166	166	1
127	137	1
79	83	1
19	19	2
192	198	1
177	191	2
169	171	1
127	173	1
125	126	1
10	10	3
9	231	1
104	104	1
36	36	3
62	63	1
101	104	1
9	44	1
142	157	1
19	150	1
82	83	1
164	166	1
47	69	1
196	200	1
144	144	2
60	61	2
28	45	1
49	52	1
225	228	1
121	127	1
47	66	1
113	113	3
111	111	1
55	56	1
199	212	1
97	97	1
143	163	1
32	38	1
11	46	1
24	25	1
209	220	1
130	166	1
153	159	1
50	56	1
4	18	1
176	177	1
111	122	1
209	210	1
24	32	1
32	219	1
221	222	1
232	232	1
232	240	1
228	229	1
25	29	2
102	153	1
29	30	2
175	179	1
156	156	1
151	151	2
151	168	1
105	123	1
179	179	3
143	145	1
180	188	1
148	149	2
149	149	2
55	62	1
131	203	1
8	19	1
225	226	1
89	110	1
26	27	2
151	156	1
115	127	1
193	225	1
39	45	1
134	135	1
1	1	2
116	123	1
46	102	1
95	100	1
69	73	1
179	180	1
89	234	1
65	65	1
140	140	1
188	189	1
194	196	1
116	119	1
96	96	1
33	121	1
81	88	1
183	186	2
27	27	1
135	140	1
44	46	1
120	134	1
147	151	1
128	130	1
189	189	1
95	128	1
115	125	1
214	214	1
179	186	1
2	30	1
32	33	1
162	163	1
158	170	1
197	200	1
238	238	1
181	183	1
180	187	1
239	239	1
229	235	1
230	231	1
208	241	1
145	177	1
60	78	1
169	174	1
13	20	1
129	134	1
63	88	1
