21	21	6
126	126	3
109	109	5
111	111	9
102	102	5
15	15	8
44	45	1
64	64	6
59	59	3
4	4	1
111	131	1
58	68	1
12	12	4
54	54	14
76	76	8
42	42	4
0	0	3
49	49	6
87	88	1
123	123	7
66	111	1
27	27	6
121	121	5
28	28	6
2	27	1
97	97	1
128	128	3
58	59	2
113	113	5
58	72	2
13	14	1
44	44	9
51	51	5
124	124	10
130	130	9
69	69	3
69	72	1
46	46	3
108	109	1
57	58	3
131	131	7
14	14	2
67	115	1
29	32	1
120	120	11
108	108	5
78	79	3
24	24	6
55	56	2
125	125	4
113	114	1
81	81	4
2	2	4
6	6	6
43	43	9
1	77	4
117	118	1
15	17	1
62	62	4
51	117	1
48	48	5
65	65	1
59	61	2
57	57	6
33	33	5
1	65	1
54	57	2
93	93	5
75	75	7
52	52	7
79	81	3
98	98	3
75	76	1
32	32	4
21	27	1
78	81	2
114	117	1
107	107	8
55	60	2
111	112	2
74	74	1
0	1	2
17	17	4
115	115	5
26	26	4
10	10	2
47	48	2
74	77	1
64	85	2
47	47	5
60	60	5
52	105	1
118	118	4
9	9	1
91	91	7
101	104	1
71	72	3
100	101	2
126	128	2
45	45	4
94	102	1
119	119	3
113	124	1
39	39	2
92	92	4
104	104	10
91	92	1
79	79	1
103	103	6
96	96	8
56	56	4
110	110	10
11	11	3
55	121	1
65	78	1
39	56	1
118	119	1
71	71	3
106	106	7
78	80	3
86	86	1
127	127	4
124	125	2
13	33	1
82	100	1
45	46	2
112	112	3
56	57	3
98	99	1
58	58	3
123	124	4
31	31	6
88	104	1
53	53	2
34	39	1
22	23	2
80	80	2
40	41	2
114	114	5
77	77	1
88	88	3
65	66	1
55	119	1
126	127	1
25	25	3
89	89	3
70	70	4
95	98	1
52	53	1
19	19	2
29	30	1
100	100	6
83	83	7
45	65	2
40	132	1
83	102	1
49	51	2
116	116	7
132	132	3
103	128	1
105	105	1
22	30	1
115	116	2
121	122	5
10	11	2
88	92	1
95	95	7
108	118	1
117	117	3
43	54	1
101	101	7
77	102	1
68	68	3
73	80	1
93	96	1
38	38	3
1	50	2
30	74	1
70	109	1
130	131	2
93	128	1
85	87	1
90	90	1
81	128	2
40	40	2
66	67	1
84	89	1
41	41	2
46	69	1
1	1	2
16	17	1
69	83	1
99	99	3
63	63	4
106	107	2
18	23	1
42	43	1
8	69	1
3	3	2
7	7	5
28	30	2
59	77	1
120	121	2
104	107	1
18	20	1
99	100	1
77	106	1
88	99	1
61	75	1
129	130	4
94	99	1
46	59	2
23	26	1
86	87	1
5	5	4
31	33	1
13	46	1
95	122	1
8	9	1
82	82	3
81	86	1
39	40	2
47	65	1
11	12	2
41	43	1
44	65	2
31	120	1
43	75	1
30	30	2
12	89	1
42	99	1
42	55	1
104	106	1
92	129	1
94	94	2
85	85	2
28	29	1
25	26	2
65	83	1
104	105	1
73	74	3
65	118	2
3	5	1
116	117	1
83	91	1
30	33	1
30	31	1
84	84	2
61	61	1
105	117	1
90	126	1
115	117	1
23	24	1
78	78	1
117	121	1
16	16	1
102	129	1
62	80	1
80	81	1
8	53	1
133	133	1
28	31	2
101	102	1
74	76	1
49	50	1
93	94	2
53	54	2
79	84	1
29	29	2
97	98	3
60	63	1
32	114	1
122	122	1
89	91	1
67	69	1
60	61	1
114	115	1
8	56	1
122	123	1
67	67	1
2	50	1
118	125	1
110	119	1
63	133	1
105	124	1
37	38	1
119	120	1
101	103	1
58	62	1
58	63	1
48	93	1
63	85	1
10	13	1
53	93	1
31	56	1
66	68	1
38	79	1
96	97	2
72	75	1
50	116	1
128	129	2
81	103	1
53	57	1
89	96	1
50	50	2
127	128	2
13	13	1
109	110	1
19	24	1
9	10	1
88	97	1
61	62	1
33	41	1
57	68	1
27	28	1
83	84	1
31	34	1
73	73	1
117	132	1
129	129	1
32	33	1
98	100	1
33	55	1
