36	37	1
87	87	4
114	115	1
16	16	2
46	46	4
113	117	1
127	127	2
85	85	4
58	58	3
102	102	6
63	63	6
38	42	1
110	128	1
82	82	4
131	132	5
98	98	3
115	115	6
103	103	5
33	43	2
96	96	5
8	8	7
66	67	2
66	66	2
100	101	3
110	110	3
70	71	2
1	68	1
29	29	3
114	114	7
123	123	6
2	2	4
100	102	2
26	31	1
65	65	3
123	124	2
124	124	3
28	28	1
35	35	4
92	92	3
131	131	8
89	89	1
43	44	1
21	23	1
73	73	6
72	72	4
19	19	4
0	0	2
73	74	2
83	83	2
30	31	2
115	117	1
126	129	1
122	122	1
45	119	3
10	10	5
7	7	6
45	134	1
81	84	1
90	90	3
61	61	2
116	116	5
115	116	1
103	105	1
125	126	3
81	101	1
27	27	3
12	12	3
37	37	4
69	69	1
60	60	2
88	88	1
23	25	2
35	82	2
22	36	1
18	18	3
79	79	5
6	44	1
106	106	2
97	97	1
105	105	2
60	61	3
92	93	2
11	59	2
16	18	1
19	36	2
113	113	13
94	96	1
107	107	2
104	109	2
74	75	2
44	45	1
70	70	4
77	77	2
78	78	2
20	20	2
110	111	1
62	62	2
42	42	5
35	46	1
76	76	4
49	50	2
15	15	5
81	81	2
31	46	1
9	9	7
33	33	3
112	112	3
26	40	1
45	45	5
0	1	1
86	98	2
74	74	2
99	100	2
55	91	1
57	58	5
37	39	1
74	119	1
112	113	2
126	126	3
11	12	1
22	37	1
68	68	2
102	121	1
57	57	2
101	101	4
28	29	2
54	54	1
102	107	1
40	40	2
1	1	4
24	25	3
111	111	3
120	120	3
82	102	3
5	5	2
125	125	4
118	118	1
26	26	2
24	37	1
95	96	1
94	94	7
47	81	1
80	80	2
50	50	1
80	84	1
44	44	2
8	9	1
24	26	1
23	23	3
134	134	5
43	43	2
56	56	2
30	32	1
48	81	2
107	128	1
85	104	1
22	22	1
67	67	3
48	48	2
106	128	1
104	106	1
64	64	3
94	95	1
21	25	1
10	12	1
102	105	2
109	109	1
17	18	1
44	46	1
39	39	1
127	129	1
75	76	1
126	128	2
75	75	6
25	26	1
117	117	3
47	47	1
58	59	1
13	14	2
20	21	1
4	4	3
114	117	1
32	32	3
26	29	2
85	86	1
83	100	1
11	11	3
64	65	1
21	21	2
32	33	1
86	86	1
39	40	1
124	125	1
132	133	1
34	76	1
93	95	1
114	116	1
107	108	1
95	95	2
87	98	1
71	71	2
62	64	1
78	79	1
28	32	2
36	36	2
117	118	2
76	78	1
39	83	1
45	46	2
102	123	1
101	122	1
119	119	4
6	95	1
35	43	1
29	131	2
72	73	1
79	87	1
19	20	1
41	41	1
79	83	1
118	120	1
99	99	1
12	13	2
63	64	1
107	109	1
27	35	1
50	83	1
38	39	2
84	84	2
6	6	1
105	111	1
129	130	1
22	25	2
20	36	2
57	59	1
80	81	1
55	55	1
17	17	2
82	83	1
56	57	1
34	44	1
18	20	2
3	3	2
38	38	1
20	23	1
103	104	1
105	106	1
94	134	1
13	13	2
68	69	1
119	120	2
93	94	1
15	20	1
85	102	1
108	108	1
31	42	1
33	38	1
94	120	1
116	117	1
80	82	1
69	70	1
133	134	1
91	95	1
10	11	1
24	24	1
121	131	1
