162	165	1
51	51	4
2	2	9
145	145	7
125	146	1
6	6	6
93	96	1
128	130	3
38	38	5
160	160	7
141	142	2
6	126	1
24	65	1
90	123	1
103	103	1
124	124	2
179	179	2
17	17	3
41	41	9
156	157	1
5	6	4
58	63	2
95	96	1
59	124	1
142	167	2
36	36	5
67	67	5
121	122	2
102	102	3
174	174	4
101	102	2
15	15	6
119	146	1
53	60	1
128	131	1
16	16	6
59	59	10
43	43	5
146	146	7
54	63	2
13	13	5
62	62	3
81	81	4
28	28	3
84	85	1
97	97	8
132	132	3
50	50	4
14	17	3
46	50	1
90	90	7
176	176	3
66	66	6
61	61	5
89	89	5
76	78	2
14	16	1
166	167	1
135	135	3
57	63	1
152	152	7
140	140	5
65	65	3
84	84	3
8	8	7
58	58	3
34	34	4
123	124	4
1	3	2
158	159	2
16	17	3
178	178	3
150	151	2
22	24	3
128	128	8
50	51	4
9	9	2
141	141	5
125	125	4
134	134	3
100	144	2
150	150	4
74	74	3
142	142	3
3	4	1
5	5	3
4	13	1
15	17	1
127	127	7
104	104	1
1	1	4
89	121	1
103	106	1
11	12	4
168	168	9
73	75	1
35	35	7
166	171	1
56	56	3
43	44	3
37	37	3
97	98	3
123	123	4
139	139	4
27	28	2
135	136	2
18	19	1
154	154	4
166	166	5
87	87	9
98	98	3
75	75	5
100	102	1
71	71	8
115	151	1
114	128	1
81	90	2
86	87	1
129	130	3
7	8	3
40	40	9
92	92	4
168	169	1
103	128	1
79	81	1
123	159	1
95	95	4
112	129	1
148	148	3
3	40	1
109	110	2
140	168	3
33	34	3
29	30	3
130	130	4
24	24	2
101	106	1
76	77	1
72	72	4
75	76	2
32	32	3
164	164	5
172	172	4
106	107	2
100	100	5
155	155	3
88	112	1
56	60	3
83	109	1
3	3	8
55	55	7
110	110	4
170	170	4
63	63	1
67	68	1
83	83	1
13	14	4
57	58	1
118	120	2
101	101	9
99	101	1
98	143	1
158	158	4
149	149	10
125	165	2
38	39	1
31	31	6
81	82	3
66	132	1
170	171	1
176	179	1
149	150	1
137	139	1
77	78	2
108	109	1
30	30	6
121	121	2
144	144	2
151	160	1
66	70	1
117	148	1
68	68	1
143	143	1
59	61	3
10	10	6
92	93	4
23	24	2
157	159	2
93	93	1
162	162	1
54	54	2
25	40	2
28	29	3
88	88	5
151	158	1
165	165	4
52	52	2
108	108	3
167	167	5
156	156	3
31	32	1
159	159	7
103	111	2
142	149	1
23	23	4
103	104	2
77	77	5
96	97	2
117	117	7
6	27	2
33	33	5
128	146	1
171	171	4
120	120	2
148	151	2
132	133	1
111	111	4
176	177	1
119	130	1
37	38	2
27	38	1
114	142	2
126	126	4
118	118	7
26	28	2
123	125	2
171	172	1
6	41	2
60	61	1
133	134	3
0	1	1
53	54	2
42	42	4
14	14	4
136	136	5
125	127	2
82	90	3
64	64	3
39	79	1
80	172	1
80	80	3
99	100	1
147	151	2
22	23	2
180	180	4
81	115	1
153	154	1
79	79	2
82	93	1
151	152	2
173	173	7
41	42	1
128	163	3
94	94	6
116	139	1
83	107	1
50	63	1
10	13	2
22	22	4
21	28	1
161	161	2
78	78	1
155	158	1
49	99	1
134	135	1
172	175	1
12	13	1
19	22	1
129	129	1
152	160	1
101	110	2
25	28	2
153	158	1
31	34	1
39	39	1
77	80	1
156	160	1
19	53	1
11	11	5
177	177	4
14	66	1
147	147	3
60	60	2
78	79	3
89	90	1
114	148	1
114	114	3
122	122	3
12	12	2
154	156	1
34	43	1
88	126	1
106	106	1
136	139	1
10	14	1
80	81	3
154	155	1
107	111	2
160	162	2
53	57	1
74	75	2
91	92	3
53	53	1
141	147	1
116	143	1
7	40	1
20	20	1
130	131	2
25	27	1
112	112	5
174	175	1
108	110	1
11	30	1
45	45	3
127	128	1
4	4	5
31	40	1
101	107	1
157	158	1
60	79	1
76	76	2
115	132	1
65	71	1
169	171	2
9	32	1
67	82	1
125	126	1
161	162	1
14	68	2
137	173	1
116	124	2
112	116	1
111	112	1
43	52	2
85	85	1
70	70	2
53	65	1
157	157	4
27	27	1
42	52	1
4	31	1
29	29	5
2	3	1
83	85	1
0	132	1
156	170	2
116	118	3
122	139	1
133	177	1
37	42	1
142	145	1
17	65	1
70	71	1
52	89	1
159	160	1
12	14	1
0	0	2
156	159	1
117	118	1
44	44	2
23	35	1
162	169	1
160	161	2
19	20	1
15	39	1
93	114	1
19	180	1
161	166	1
10	30	1
72	73	1
154	160	1
88	113	1
156	158	1
151	151	2
1	5	1
15	40	1
85	95	2
24	119	2
113	114	2
23	29	1
73	73	5
29	31	1
103	107	1
56	90	1
29	32	1
59	63	1
57	57	1
66	135	1
131	131	3
141	159	1
114	116	1
164	165	2
92	94	1
141	149	1
75	132	1
81	126	1
165	167	1
21	21	1
87	94	1
163	165	1
133	135	1
59	91	1
116	116	2
104	109	1
103	105	1
163	164	3
63	168	1
82	82	1
94	135	1
50	57	1
86	86	2
5	28	1
39	41	1
20	21	1
137	172	1
79	93	1
169	169	3
55	57	1
153	153	1
120	174	1
91	93	2
138	138	1
7	12	1
56	58	1
18	44	1
143	144	1
9	12	1
7	7	1
94	102	1
131	171	1
127	129	1
10	11	1
30	35	1
19	21	1
86	107	1
87	91	1
17	21	1
73	74	1
157	161	1
96	109	1
90	95	1
133	133	2
145	146	1
115	115	1
112	114	2
124	126	1
131	140	1
65	95	1
89	126	1
115	117	1
130	170	1
119	123	1
18	20	1
153	156	1
6	7	1
167	168	1
113	113	1
12	30	1
20	22	1
35	59	1
65	86	1
79	80	1
26	27	1
12	24	1
39	40	1
119	142	1
89	91	1
126	127	2
83	97	1
18	18	1
119	119	1
52	65	1
105	111	1
111	128	1
72	74	1
120	142	1
137	176	1
7	25	1
140	141	1
96	133	1
