23	150	1
21	23	1
160	160	4
233	233	2
206	206	3
207	207	5
11	11	4
55	55	4
107	107	5
156	156	2
88	89	1
194	194	3
92	100	2
174	174	2
38	38	4
169	169	3
16	16	4
208	209	1
234	236	1
177	177	6
221	221	3
64	93	1
195	195	1
23	23	3
225	225	7
6	7	2
30	30	4
44	44	4
51	178	1
28	92	1
192	193	2
31	33	1
236	236	1
77	77	3
52	78	1
173	173	3
55	227	1
225	226	1
48	48	2
33	33	3
27	109	1
53	54	3
5	58	1
112	112	4
205	205	1
248	248	2
41	41	2
118	118	5
162	162	2
7	7	2
8	9	3
212	212	3
53	226	1
162	163	1
66	66	1
193	196	2
153	154	1
28	28	1
51	51	5
31	31	1
39	39	4
101	102	1
182	182	1
6	6	3
87	88	1
43	44	6
111	112	1
47	47	2
241	241	4
164	164	1
115	115	1
150	150	3
212	234	1
222	222	1
4	4	5
230	231	2
214	214	3
101	108	2
224	225	2
53	53	1
104	104	1
237	238	2
170	187	1
18	19	1
40	42	1
76	89	1
204	204	3
25	25	5
202	203	2
242	244	1
2	4	1
161	165	2
110	110	3
97	97	2
158	193	1
236	237	2
179	179	1
50	50	2
42	42	1
192	214	1
189	192	1
244	244	1
67	68	1
55	71	2
52	52	3
168	171	1
101	101	1
9	54	1
153	153	2
9	20	1
61	61	4
29	29	2
178	183	1
2	38	1
68	68	1
220	226	1
172	173	1
166	166	2
245	246	1
208	208	2
230	230	6
86	88	1
81	81	2
37	37	2
19	19	1
224	224	3
232	232	2
184	184	5
211	211	1
54	54	2
54	71	2
27	27	2
237	237	2
85	85	5
62	62	3
201	201	1
45	45	3
29	30	1
94	94	3
48	57	1
170	171	1
38	39	3
179	226	1
35	35	1
243	243	1
5	6	1
48	179	1
8	8	3
157	158	1
169	170	1
13	14	2
112	115	2
228	228	4
213	213	2
186	186	3
18	18	2
197	207	1
167	168	1
210	210	2
149	149	1
151	152	2
165	167	1
14	14	3
155	155	2
60	60	1
217	217	3
82	82	3
78	78	1
10	11	1
183	184	2
105	106	2
10	218	1
192	195	2
170	172	1
36	36	1
26	26	3
117	117	3
76	76	3
32	33	1
238	247	1
189	189	3
83	87	1
229	229	3
151	151	2
70	71	1
197	214	1
79	79	2
93	93	1
14	30	1
192	192	3
116	117	1
69	71	1
20	20	1
181	181	1
203	224	1
203	203	3
32	32	2
15	16	1
87	87	2
231	231	2
185	199	1
152	153	1
51	52	1
17	18	1
52	53	1
202	202	1
88	88	2
197	216	1
105	105	1
143	143	1
172	172	1
62	63	1
198	198	2
2	2	3
22	22	1
178	179	2
63	63	1
80	80	1
182	202	1
240	241	1
96	97	2
98	99	1
86	86	1
46	55	1
238	240	1
65	207	1
48	49	1
184	185	1
68	71	1
5	59	2
39	44	1
197	197	3
9	9	1
176	187	1
152	152	3
191	191	2
215	233	1
189	191	1
52	178	1
217	219	1
233	234	2
234	235	1
170	205	1
80	81	1
233	235	1
64	64	1
238	238	3
188	188	2
176	176	1
166	168	1
176	177	1
111	111	1
74	74	2
226	226	1
180	180	2
33	35	1
106	107	1
67	110	1
170	188	1
246	247	1
194	196	1
234	234	1
200	200	1
75	88	1
178	181	1
144	144	1
110	111	1
120	120	1
55	202	1
193	205	1
60	61	2
191	192	1
84	234	1
59	151	1
165	168	1
196	196	1
58	58	1
4	5	1
228	229	1
164	165	1
179	211	1
57	57	2
74	75	1
3	3	2
206	211	1
9	10	1
239	239	1
185	197	1
3	40	1
215	216	1
178	178	2
70	70	1
73	74	1
218	222	1
72	72	1
147	147	1
36	37	1
175	176	1
81	83	1
242	242	1
185	186	1
145	145	1
116	116	1
186	187	1
177	209	1
86	90	1
155	161	1
43	43	2
76	178	1
99	99	1
178	209	1
109	109	1
