157	157	2
19	19	3
26	29	1
36	36	2
163	163	2
159	159	1
5	6	2
30	32	1
29	30	1
144	144	2
72	72	2
25	137	1
16	16	3
41	41	3
106	106	2
155	156	1
98	109	1
107	108	2
54	54	1
58	130	1
182	182	3
186	186	1
152	186	1
37	37	3
126	126	1
3	4	1
6	8	1
157	194	1
177	178	2
2	31	3
17	17	2
74	137	1
25	25	2
19	22	1
65	66	1
131	140	1
51	52	1
193	197	1
16	62	1
32	164	1
165	181	1
139	139	4
21	21	2
128	129	2
53	53	5
185	186	2
59	152	2
192	192	3
184	184	2
22	23	1
147	148	1
2	29	1
135	135	2
195	195	1
10	10	3
177	177	4
4	4	2
171	172	4
174	175	1
156	157	1
43	43	1
1	2	1
112	112	2
34	65	1
100	100	1
22	22	4
45	45	7
185	195	2
134	134	3
10	154	1
18	18	2
26	26	1
125	125	2
55	78	1
105	106	1
187	187	2
163	164	1
116	116	1
133	156	2
160	169	2
181	181	1
7	7	2
3	6	1
15	15	4
3	3	3
57	57	2
191	192	1
180	184	2
172	172	1
32	32	5
103	103	2
148	148	2
89	89	1
149	150	1
47	47	5
149	149	1
165	179	1
154	154	2
145	145	1
35	35	1
8	8	2
60	60	2
71	71	2
2	2	1
143	143	1
156	156	1
11	12	1
119	119	3
77	77	1
171	171	3
36	37	1
165	165	1
55	56	1
142	142	1
48	48	1
120	139	1
55	55	1
45	184	1
140	140	1
180	180	1
161	164	1
61	61	1
168	168	1
70	70	1
187	188	1
189	189	3
128	128	1
93	97	1
62	62	1
6	6	2
69	97	1
126	127	1
52	52	1
50	50	1
130	130	2
147	147	1
9	9	1
14	38	1
11	11	3
168	169	1
38	38	1
191	191	2
68	68	1
51	51	1
101	101	2
12	52	1
155	155	1
73	73	1
67	71	1
3	31	1
158	160	1
165	170	1
123	123	1
151	193	1
173	174	1
55	81	1
122	123	1
30	30	1
104	104	1
23	23	1
152	153	1
86	86	1
190	190	1
126	170	1
114	114	1
96	97	1
138	138	1
151	151	2
174	176	1
27	27	1
175	175	1
20	26	1
34	34	1
14	14	1
27	32	1
185	185	1
11	167	1
8	9	1
107	107	1
12	53	1
50	51	1
188	188	1
178	178	1
153	153	1
5	5	1
67	82	1
28	29	1
69	69	1
184	193	1
166	189	1
79	79	1
