130	130	9
126	126	3
110	112	2
102	102	6
72	72	7
125	126	1
123	123	4
134	135	2
122	128	1
97	98	2
80	80	2
108	108	6
135	135	7
137	137	1
116	119	1
119	123	1
124	124	4
76	78	2
127	128	2
77	77	4
128	130	2
107	107	7
27	32	2
5	5	1
133	133	14
93	93	4
129	129	13
6	8	1
91	91	2
118	118	5
28	28	3
9	10	1
135	136	1
33	36	1
131	134	1
101	101	7
125	125	6
32	32	2
112	112	3
107	111	1
127	127	4
76	77	2
9	11	1
13	13	6
126	127	1
115	115	9
114	114	6
82	82	3
77	111	1
103	104	2
97	97	4
99	100	1
104	105	2
16	16	3
79	79	5
113	113	7
83	89	1
17	20	1
138	138	3
89	97	1
7	8	3
120	122	1
116	116	6
2	3	3
140	140	4
18	18	3
34	36	1
20	20	1
7	12	1
106	106	7
74	74	2
124	125	3
13	15	1
134	134	8
93	94	1
114	115	1
111	128	1
133	134	2
111	111	7
8	15	1
93	101	1
35	35	4
101	114	2
94	94	2
3	11	1
132	132	5
96	96	4
107	109	1
114	128	1
83	83	8
119	124	2
103	139	1
110	111	3
131	131	3
85	85	4
108	109	2
125	128	1
12	12	2
104	116	1
4	5	1
123	127	1
128	129	2
14	15	2
96	122	1
87	87	3
96	104	1
121	123	2
3	3	1
76	76	2
71	98	3
19	19	3
15	17	2
136	139	2
106	114	2
117	118	2
110	127	1
129	130	2
97	101	1
117	117	5
71	71	5
37	37	10
18	19	1
1	1	4
0	0	2
15	16	1
85	99	3
89	91	1
127	138	1
90	91	1
0	14	1
34	34	6
119	119	5
103	103	2
33	34	2
1	3	1
92	96	2
136	136	2
104	104	5
10	12	1
86	86	3
100	127	1
109	109	7
89	89	2
71	102	1
103	112	2
86	88	1
118	120	1
95	95	5
104	108	2
99	101	1
5	10	1
102	110	1
85	91	1
110	110	7
76	118	1
87	92	1
105	107	2
37	38	1
5	7	1
17	17	3
107	108	2
125	137	1
113	120	1
3	4	1
85	87	2
84	103	1
130	132	1
139	139	2
71	72	3
10	11	2
95	96	1
115	118	2
75	75	2
81	81	3
2	4	1
94	95	1
38	38	5
0	7	2
134	136	1
19	20	1
99	108	1
74	75	1
70	71	1
85	119	1
101	127	1
134	139	1
105	105	4
73	94	1
5	6	1
140	141	1
98	108	1
133	138	1
111	113	1
78	132	1
12	15	1
88	88	4
11	11	4
111	130	1
3	5	2
87	88	3
86	89	1
104	106	2
84	84	2
0	2	1
94	138	1
105	124	1
118	124	1
111	115	2
2	2	2
98	99	2
100	100	1
88	89	2
15	15	2
33	33	3
105	117	1
107	110	2
111	116	1
81	85	1
114	127	2
113	114	1
6	12	3
6	10	1
7	7	1
0	11	1
106	113	1
128	128	5
10	10	2
108	112	1
121	122	1
73	74	1
123	124	1
110	115	1
136	137	1
4	13	1
106	109	1
114	129	1
101	102	1
6	6	2
113	118	1
96	98	1
120	121	1
85	89	1
85	108	1
75	81	1
139	140	2
118	119	1
78	79	1
129	132	1
83	84	1
78	78	1
4	4	3
115	116	2
91	127	1
90	114	1
111	112	3
120	123	1
119	120	1
108	116	1
116	118	1
95	117	1
92	92	2
32	109	1
120	120	2
31	31	1
125	129	1
1	2	1
9	16	2
125	127	1
109	111	1
123	129	1
97	128	1
112	125	1
78	86	1
0	1	1
75	77	1
121	121	1
73	75	1
82	121	1
98	120	1
33	35	1
99	99	1
71	127	1
133	136	1
38	94	1
85	101	1
136	138	1
122	122	1
124	126	1
122	123	1
27	27	1
123	134	1
104	123	1
73	77	1
115	126	1
82	87	1
114	121	1
80	81	1
94	98	1
14	14	1
114	136	1
116	134	1
108	124	1
9	9	1
79	81	1
17	19	1
111	133	1
