203	203	1
236	236	3
191	191	3
114	114	1
48	48	3
106	108	1
22	184	1
247	247	4
41	41	4
184	185	1
45	45	4
62	62	4
108	109	1
155	155	3
10	27	1
169	169	3
225	225	5
43	43	2
36	37	2
228	229	3
23	23	6
102	103	2
44	44	1
237	237	3
107	114	1
75	90	1
32	32	6
234	234	5
2	33	1
29	30	1
192	192	2
158	158	3
80	105	1
71	79	2
175	175	2
84	85	1
116	116	3
235	235	5
212	214	1
36	41	2
229	240	1
45	101	2
72	74	1
217	219	1
36	36	5
220	220	5
201	202	1
87	87	2
80	82	2
120	120	1
1	2	1
86	87	1
150	155	1
184	184	2
114	120	1
20	20	4
60	60	1
177	208	2
26	26	1
215	217	1
28	28	3
6	30	1
189	189	1
1	1	3
39	39	5
25	37	1
97	98	1
178	178	3
16	16	1
23	24	1
15	15	3
8	8	5
196	196	4
109	117	1
185	185	1
169	170	2
201	201	2
58	62	1
108	108	2
22	22	2
191	197	2
35	35	4
95	96	1
197	198	2
99	99	3
165	165	3
187	187	1
5	229	1
95	95	1
154	154	1
18	18	5
46	46	2
239	239	2
15	16	2
37	37	2
155	156	1
68	186	1
60	78	1
221	221	2
226	226	1
243	243	2
76	78	1
70	74	1
180	180	1
71	82	1
70	85	2
8	9	1
153	153	3
56	56	2
227	227	2
53	53	2
12	12	4
30	30	3
85	85	2
2	2	2
159	183	1
17	17	1
11	16	1
240	240	1
110	110	5
49	49	3
43	44	1
110	111	4
4	5	1
209	213	1
180	184	1
112	112	6
170	171	1
211	226	2
83	83	1
238	239	1
14	14	2
93	120	2
217	236	1
233	234	2
216	218	1
70	70	3
222	227	1
10	10	2
106	116	1
59	61	1
222	222	2
76	76	3
1	30	1
232	232	3
183	183	2
214	214	1
100	100	2
229	229	2
219	219	2
201	203	2
234	236	1
82	82	3
230	246	2
172	213	1
86	86	1
168	169	3
117	145	1
54	54	1
47	48	2
169	179	1
215	215	1
230	230	1
195	211	1
63	64	1
26	27	1
44	203	2
79	79	2
151	229	1
5	5	1
78	80	1
50	50	2
151	201	1
29	29	1
151	151	3
209	209	2
34	34	1
57	57	1
166	166	3
34	35	1
74	74	1
91	93	2
69	93	1
233	233	3
37	230	1
188	247	1
26	43	1
208	236	1
9	9	2
245	245	2
6	7	1
3	3	1
176	179	1
175	187	2
46	47	1
78	78	2
30	184	1
102	102	2
31	32	1
72	72	2
38	92	1
31	47	1
9	10	1
213	214	3
10	24	2
91	120	1
211	211	1
6	6	2
8	27	1
67	70	1
191	192	2
88	88	1
61	61	2
109	110	1
190	191	2
19	19	2
231	231	3
195	197	1
188	189	1
40	41	3
162	162	2
11	11	2
198	198	1
90	91	1
10	15	1
64	64	1
230	245	2
224	224	4
218	218	3
52	53	1
5	183	1
208	211	4
120	145	1
101	101	1
231	233	1
78	90	1
221	241	1
21	21	3
84	84	2
160	160	2
179	208	1
98	98	3
24	24	2
207	207	1
38	46	1
165	166	1
93	97	1
168	168	1
3	6	1
19	20	3
33	33	3
189	190	1
53	54	1
199	199	1
173	174	1
246	246	2
119	119	1
163	163	2
223	223	3
19	34	1
4	4	1
176	176	4
109	109	3
195	195	1
170	170	2
175	185	1
3	32	2
115	116	1
183	184	1
14	15	2
16	47	1
204	204	1
63	75	1
55	55	2
63	63	1
229	246	1
27	146	1
31	31	1
223	247	1
97	97	1
69	69	1
60	64	1
172	173	1
92	201	1
67	67	1
49	50	1
105	105	1
89	89	1
202	202	1
29	182	1
214	217	1
182	182	2
66	66	2
65	65	2
93	100	2
161	204	1
0	0	1
71	73	1
208	208	1
244	244	1
167	167	2
164	164	2
118	119	1
173	179	1
19	42	1
177	177	3
68	69	2
59	59	1
172	179	1
175	179	1
169	173	1
210	211	1
69	70	1
147	182	1
216	216	1
37	226	1
163	164	1
55	57	1
187	188	1
156	203	1
12	17	1
156	204	1
107	108	1
71	71	1
9	23	1
221	222	2
57	58	1
55	56	1
161	168	1
157	226	1
241	242	1
87	90	1
218	219	2
230	231	1
228	228	1
75	75	1
146	146	1
167	220	1
222	223	1
238	240	1
179	189	1
186	187	1
152	152	1
10	16	1
51	65	1
244	245	1
235	242	1
37	40	1
159	159	1
104	104	1
226	227	1
73	74	1
200	200	1
181	212	1
146	147	1
68	68	1
