167	167	1
131	131	4
119	155	1
132	133	1
152	152	5
161	161	4
0	1	1
13	14	1
178	178	3
17	187	2
16	16	5
151	152	1
126	127	1
18	18	4
128	128	3
45	45	2
193	193	4
122	122	2
153	153	1
132	193	1
9	9	6
42	42	5
125	158	1
0	0	4
34	34	1
36	36	3
50	50	1
173	175	1
119	119	2
23	32	1
29	29	2
170	170	2
15	16	2
12	12	1
134	135	3
7	7	1
31	31	5
196	196	4
49	50	2
14	32	1
140	141	2
154	154	4
6	7	1
20	20	3
134	156	1
52	52	4
4	4	2
66	66	1
26	36	3
37	38	5
11	12	1
6	9	2
157	158	6
113	139	1
49	49	1
19	19	2
21	21	2
16	17	2
194	194	1
70	75	1
137	143	1
47	47	3
100	104	1
4	13	1
175	177	1
4	10	1
98	99	1
27	27	3
138	138	3
129	129	1
10	10	4
165	165	3
14	14	5
162	162	1
118	119	1
99	116	3
190	190	4
192	192	3
32	71	1
190	191	1
155	155	1
47	185	1
149	149	2
178	179	1
165	167	2
61	61	3
1	1	1
88	89	1
71	71	3
44	44	3
146	146	1
168	168	1
161	164	1
13	13	3
124	124	3
9	127	1
3	4	1
97	98	1
33	33	1
166	167	1
151	155	1
99	99	1
99	100	2
127	128	1
136	136	2
120	120	2
140	140	1
2	3	1
38	38	1
122	156	1
60	61	1
184	184	2
6	8	3
130	130	4
55	55	1
28	29	1
43	43	2
87	87	2
124	125	1
145	146	1
197	197	1
179	179	1
170	184	1
37	37	4
73	73	2
26	26	2
17	28	1
54	54	1
116	116	1
17	18	1
180	182	1
169	194	1
169	169	1
15	15	1
47	151	2
12	32	1
182	183	2
188	190	1
104	120	1
7	170	1
39	40	3
57	57	2
131	151	1
22	23	1
112	113	2
117	117	1
143	145	2
39	53	2
12	24	1
181	182	1
142	142	1
51	51	1
123	155	1
115	118	1
5	8	1
41	41	1
96	96	2
8	8	1
48	48	1
45	46	1
68	68	3
148	150	1
183	183	2
171	171	1
14	42	1
24	191	3
79	79	1
35	35	2
32	32	3
32	35	1
158	158	1
40	40	2
53	54	1
166	166	1
147	147	2
109	109	2
53	53	2
137	137	1
47	123	1
141	141	1
185	185	2
174	174	1
177	177	1
25	31	1
3	3	2
1	2	1
40	41	1
100	100	1
4	5	1
146	149	1
150	150	2
22	25	1
0	3	1
186	186	1
14	24	1
144	144	1
172	176	2
31	32	1
6	6	2
105	105	2
63	97	1
122	124	1
133	133	1
69	70	1
5	5	1
95	96	1
121	150	1
163	163	1
101	101	1
24	24	1
97	99	1
25	25	1
149	150	1
142	150	1
141	142	1
172	172	1
38	184	1
31	64	1
7	8	1
178	182	1
173	176	1
56	56	1
35	63	1
33	36	1
65	65	1
151	151	1
115	115	1
17	17	1
111	111	1
108	112	1
182	182	2
192	193	1
20	21	1
187	187	1
83	88	1
168	169	1
188	188	1
57	58	1
26	27	1
187	190	1
