77	109	1
95	120	1
46	46	3
69	117	1
28	28	4
41	41	3
43	43	3
39	40	1
127	128	1
18	20	1
63	63	2
39	39	3
54	56	1
6	6	4
62	78	1
23	24	2
66	67	1
53	53	5
40	46	1
49	52	2
61	63	1
102	104	1
94	94	3
120	120	3
108	108	6
93	93	3
10	11	2
116	116	3
7	7	1
77	80	1
97	99	2
118	118	3
27	28	1
41	42	1
91	92	3
64	64	1
44	44	2
57	58	1
114	114	2
25	25	2
52	53	2
29	29	1
106	106	5
86	86	2
69	69	3
50	50	2
92	92	2
82	86	1
117	117	3
73	129	1
125	130	1
51	52	1
75	75	4
97	97	2
109	109	2
88	98	1
71	71	2
99	100	1
89	89	3
95	95	2
75	88	1
111	111	8
89	91	1
19	31	1
126	128	1
84	84	1
33	33	2
50	69	2
115	115	3
125	125	3
15	34	1
75	113	1
19	22	1
42	42	2
51	51	2
70	70	2
48	48	4
121	121	1
25	26	3
95	130	1
81	84	1
2	48	1
85	114	1
75	76	1
77	77	1
60	80	1
27	66	1
96	123	1
60	62	1
85	85	2
81	82	1
4	4	1
73	73	1
12	52	1
62	62	1
129	129	1
113	113	7
55	55	3
120	122	1
112	112	2
84	117	1
58	58	2
71	132	1
84	86	1
82	87	1
31	31	3
100	101	1
55	58	1
93	105	1
74	75	1
91	125	1
107	107	2
114	124	1
122	122	2
40	45	1
132	133	1
95	129	1
29	30	1
104	104	1
61	66	1
12	12	2
26	26	1
131	131	1
45	46	1
96	96	2
49	49	7
117	118	2
57	57	4
56	56	3
126	126	2
124	124	4
91	91	3
28	29	4
113	116	1
110	110	3
19	19	3
127	127	2
110	113	1
13	13	1
85	98	1
5	31	1
130	130	4
4	5	1
65	65	1
100	102	1
40	43	1
5	5	2
39	64	1
22	22	2
104	117	1
110	112	2
60	60	1
51	68	1
98	98	2
31	32	2
119	119	2
113	114	1
121	131	1
61	61	1
105	105	3
23	23	2
107	110	1
72	74	1
97	98	1
11	11	1
129	131	1
69	118	1
83	83	3
108	125	1
107	108	1
76	124	1
123	123	2
25	49	1
94	95	1
47	47	1
59	97	1
90	90	2
81	87	1
80	81	1
8	8	1
103	103	2
32	92	1
99	99	1
27	27	1
102	118	1
108	124	1
38	39	1
19	34	1
40	40	2
74	74	1
7	28	1
3	3	1
86	89	1
102	102	1
14	63	1
116	117	1
120	121	1
52	52	4
16	16	1
111	113	1
42	56	1
132	132	2
108	126	1
67	67	1
76	77	2
133	133	1
68	68	2
13	15	1
28	66	1
8	65	2
105	113	1
98	100	1
26	28	1
84	88	1
1	1	1
18	31	1
114	125	1
124	125	1
3	24	1
33	70	1
131	132	1
47	107	1
6	54	1
128	128	1
58	63	1
8	123	1
42	43	1
85	96	1
2	4	1
80	80	1
72	73	1
