134	134	11
52	52	4
124	125	2
133	133	3
2	2	5
106	106	10
24	25	1
127	127	9
54	55	2
1	1	5
152	152	6
126	126	4
3	3	2
121	121	6
54	111	1
123	123	3
79	79	10
8	137	1
7	43	1
146	146	4
87	87	7
86	86	7
38	39	2
108	108	6
105	105	7
54	54	2
11	12	2
148	148	7
141	141	3
13	13	4
83	85	2
115	115	4
154	154	6
110	110	7
111	111	8
96	97	2
117	117	6
118	118	6
51	52	2
31	51	1
44	45	2
17	22	1
67	67	2
113	113	2
50	50	3
77	108	1
130	135	1
14	14	4
91	92	2
21	21	4
89	89	5
11	11	3
139	139	8
156	156	7
6	6	2
119	119	2
62	62	3
69	69	4
3	71	2
117	141	1
158	158	4
51	55	1
106	107	1
116	116	7
91	97	1
99	99	9
43	45	2
75	75	6
150	151	1
124	127	2
69	70	4
100	100	5
65	65	5
20	20	4
132	132	3
109	109	2
140	140	9
55	127	1
32	56	1
48	48	4
135	149	2
4	6	1
77	78	2
120	121	1
29	107	1
149	149	3
82	121	1
110	124	1
129	130	3
150	150	8
138	139	3
124	124	6
38	38	4
114	114	4
97	97	7
93	93	2
46	46	3
79	86	1
42	43	1
107	108	1
42	42	5
128	128	2
123	136	2
122	124	1
102	103	2
129	129	13
8	8	5
18	68	1
154	155	2
103	103	6
40	49	1
31	32	1
40	40	2
109	110	3
51	53	6
111	112	4
105	106	1
37	37	1
12	120	1
82	86	1
56	148	1
22	22	4
6	91	1
131	131	5
85	90	1
27	27	2
97	98	2
63	68	1
134	137	1
143	146	2
98	98	5
108	110	1
148	149	2
123	124	3
82	154	1
12	12	1
128	129	1
66	66	4
41	41	3
110	111	1
80	80	2
151	151	6
70	70	4
55	65	1
157	157	5
44	44	3
92	92	3
119	134	1
77	77	5
107	107	4
99	100	2
73	73	3
115	116	2
3	4	3
28	28	5
91	91	5
68	69	1
118	141	1
130	130	5
83	84	4
75	85	3
146	147	1
40	42	1
56	56	2
101	101	3
41	42	1
99	159	1
138	142	1
136	136	1
8	31	1
71	122	1
67	69	2
64	64	3
82	82	1
65	66	3
127	128	1
28	29	2
142	142	4
132	135	1
95	96	1
96	113	1
137	137	3
29	29	2
9	10	2
21	50	1
40	90	1
94	94	1
75	148	1
140	141	1
99	150	1
50	51	3
0	1	1
26	26	5
21	22	1
85	87	1
51	77	1
127	132	1
42	45	2
82	84	1
102	102	1
153	153	3
19	19	3
117	142	1
47	47	1
120	120	2
25	25	4
70	110	1
4	4	3
20	34	1
122	144	1
88	88	4
7	137	1
82	83	3
77	113	1
15	17	1
30	30	3
67	68	1
81	85	1
156	157	2
93	94	3
23	23	3
151	152	2
93	95	2
57	57	1
90	90	5
122	137	1
138	138	3
32	36	1
73	74	2
109	122	1
32	32	3
88	95	2
67	120	1
116	119	1
81	119	1
123	126	1
108	113	2
8	11	2
113	147	1
71	71	3
24	24	4
53	53	5
35	64	1
66	69	1
98	99	1
71	97	1
17	17	2
96	96	4
25	133	1
84	84	2
6	44	1
90	91	1
145	145	1
43	43	2
81	83	1
5	24	1
39	57	1
115	135	1
111	141	1
29	133	1
33	85	2
109	111	2
20	21	1
35	40	1
19	24	2
135	135	3
34	34	3
129	131	1
45	45	3
33	33	2
108	126	1
23	24	2
7	7	1
81	82	1
31	31	3
153	156	1
88	90	1
88	89	2
123	125	1
87	88	1
37	51	1
78	81	1
66	68	1
127	140	1
144	144	2
138	154	1
73	130	1
37	38	1
118	119	1
155	155	4
28	69	1
155	156	1
34	52	1
5	5	2
67	82	1
50	54	1
2	3	1
0	0	2
121	126	1
20	43	1
136	146	2
84	90	1
75	76	1
129	133	1
134	138	1
80	81	1
100	158	1
29	30	1
114	115	2
11	147	1
125	125	2
39	40	1
6	8	1
120	123	1
29	37	1
23	26	1
63	107	1
52	54	2
65	141	1
67	79	1
87	90	1
30	31	1
137	138	1
124	136	1
144	145	1
83	83	2
27	28	1
81	81	1
96	108	1
69	71	1
136	143	1
14	18	1
78	78	1
100	101	1
80	106	1
93	137	1
132	152	1
56	84	1
36	36	1
3	29	1
123	138	1
108	111	2
41	48	1
18	18	1
143	143	2
145	147	1
147	147	2
79	82	1
70	71	1
72	73	1
145	146	1
31	33	1
22	23	1
133	134	1
140	148	1
72	72	1
13	14	1
136	137	1
33	34	1
89	111	1
66	67	1
95	98	1
117	118	1
11	15	1
84	86	1
116	128	1
26	36	1
78	79	1
45	46	1
31	40	1
101	103	1
98	127	1
139	140	1
150	154	1
130	131	1
131	132	1
76	76	1
20	55	1
117	136	1
35	35	1
56	57	1
12	16	1
