138	138	2
103	103	2
28	28	4
134	134	6
111	111	4
74	74	3
100	143	1
25	26	1
64	64	1
102	103	1
56	56	4
80	80	3
104	104	3
122	122	1
35	35	1
20	21	1
133	133	2
128	128	4
29	29	2
128	130	3
92	92	2
41	41	3
144	144	2
118	118	2
67	67	3
59	59	4
127	127	3
49	53	3
9	9	2
97	100	1
60	63	2
3	3	7
11	11	3
129	129	1
31	31	3
69	69	2
104	120	1
20	20	3
6	6	2
37	38	1
99	101	1
139	139	1
142	142	1
94	94	1
146	146	1
92	121	2
106	106	3
62	62	4
83	83	2
66	66	1
63	64	4
2	2	2
69	71	1
127	131	1
110	111	1
99	100	1
6	30	1
119	119	2
141	141	1
75	92	1
50	50	3
123	123	3
34	34	2
139	140	2
106	107	1
88	88	1
19	19	2
32	32	2
78	80	1
10	10	2
91	91	2
0	130	2
131	131	4
30	30	4
29	94	1
40	40	2
140	140	6
77	78	2
101	102	1
77	77	1
98	99	1
48	48	3
61	61	2
63	63	2
81	82	2
38	53	1
99	99	3
116	116	2
105	105	2
121	121	1
114	114	3
34	35	2
70	70	1
85	85	1
8	9	2
19	20	1
103	133	2
127	130	2
55	56	1
133	140	1
136	137	1
64	78	2
127	133	1
134	137	1
103	125	2
124	141	1
13	39	1
124	133	1
91	101	1
10	142	1
145	145	1
4	5	1
26	26	2
120	122	2
76	76	1
145	146	1
82	82	1
123	124	2
10	18	1
122	123	2
107	107	2
132	132	1
100	100	1
109	110	1
16	42	1
113	113	1
12	12	1
73	73	1
88	89	2
125	125	2
143	143	2
74	80	1
38	40	1
36	38	3
58	58	1
24	24	1
110	110	2
101	101	2
39	39	1
117	117	3
90	90	1
126	126	2
108	108	1
5	5	2
70	71	1
67	88	1
79	80	1
86	86	1
5	19	1
23	23	1
36	36	1
53	53	1
130	130	2
64	65	1
97	97	1
100	129	1
38	38	2
125	126	1
27	27	2
118	121	1
36	39	1
0	0	3
53	55	1
124	124	3
96	125	1
105	106	1
22	23	1
35	36	1
128	129	1
54	54	1
23	33	1
95	95	3
1	118	1
138	139	1
55	55	2
86	134	1
98	98	1
140	141	1
76	78	2
79	79	1
66	107	1
115	138	1
131	133	2
125	128	1
66	71	1
124	125	1
66	67	1
3	5	1
102	102	1
111	118	1
21	21	1
5	24	1
133	135	1
22	30	1
16	16	1
19	103	1
23	30	1
81	96	1
109	109	1
1	116	1
