118	119	1
108	108	1
97	98	2
74	74	1
20	20	2
62	62	2
42	42	4
16	19	1
16	16	3
46	47	1
131	131	3
34	34	2
29	29	2
115	126	1
117	117	3
128	128	3
17	17	2
114	114	6
6	27	2
108	121	1
111	111	4
21	21	4
73	113	2
79	89	1
39	39	2
110	110	2
24	25	1
66	66	1
60	60	2
86	86	2
58	58	3
76	76	1
68	69	1
95	95	1
38	38	4
103	103	3
68	68	2
88	90	1
8	8	1
100	100	3
79	83	1
83	83	2
39	42	1
131	133	2
18	19	1
119	119	3
16	17	2
104	104	4
130	130	3
109	109	3
121	121	1
40	42	3
79	80	2
32	32	3
79	79	2
30	30	1
48	57	1
121	122	1
16	43	1
29	30	2
2	2	1
73	74	2
33	33	2
120	120	4
75	75	4
94	110	1
80	80	4
132	133	5
85	86	1
66	68	1
12	13	1
23	23	2
103	128	1
77	78	2
57	57	1
59	59	1
51	51	1
45	45	3
96	96	1
15	15	2
91	100	1
87	105	2
9	10	1
37	37	3
10	11	1
102	107	1
103	126	1
7	7	2
126	128	1
57	83	1
87	91	1
116	116	3
85	85	1
103	104	1
78	94	1
121	125	1
28	29	1
30	31	1
36	37	1
17	18	1
112	115	1
32	33	1
13	14	1
127	127	1
94	94	2
78	78	2
36	36	1
44	44	3
88	88	1
11	11	1
132	132	2
23	24	1
96	97	1
105	126	2
89	90	1
81	81	3
80	89	1
93	93	1
56	57	2
84	87	1
40	40	3
113	115	1
28	28	1
100	102	1
84	84	2
27	27	4
34	41	1
87	88	1
8	10	1
72	73	1
55	55	1
35	36	1
106	106	2
44	45	1
71	72	1
126	126	2
13	13	1
45	47	1
82	82	1
112	129	1
12	31	1
122	123	1
112	112	2
41	41	1
90	90	1
25	30	1
18	18	1
133	133	2
50	55	1
61	61	1
64	64	3
128	129	1
97	99	1
103	105	1
88	91	1
32	34	2
69	69	2
34	40	1
43	44	1
0	0	1
1	1	1
93	94	1
105	105	1
70	70	1
96	100	1
114	116	1
104	105	1
10	10	1
130	131	1
22	23	1
129	129	1
21	22	1
92	92	2
4	4	1
134	134	1
49	88	1
66	67	1
71	71	1
87	87	2
25	29	1
129	131	1
98	98	1
97	97	1
107	107	1
43	134	1
79	81	1
95	96	1
