37	99	2
76	76	5
88	91	1
5	8	2
18	18	6
105	105	4
80	86	1
118	118	4
138	138	9
96	96	8
116	117	3
135	138	1
35	35	6
129	129	8
117	117	5
9	11	3
123	123	11
32	32	2
7	7	6
11	12	4
10	10	2
81	81	7
112	112	7
104	104	8
79	79	3
125	125	3
108	127	1
38	38	7
6	7	5
133	133	25
37	38	7
132	134	1
39	102	1
112	115	4
135	139	1
34	34	8
13	13	9
96	106	2
126	127	2
104	112	1
103	105	2
82	87	3
98	104	1
133	134	3
128	128	3
127	127	5
94	96	1
124	129	1
103	103	5
139	139	7
138	139	2
31	34	1
82	82	3
3	3	1
132	132	10
6	6	2
98	98	5
97	97	2
118	120	2
104	106	1
94	94	4
113	117	1
121	122	4
79	104	2
136	136	1
114	135	1
11	13	3
134	134	8
12	12	5
101	135	1
131	132	1
1	1	4
102	110	1
100	101	2
5	6	1
126	126	12
73	73	4
102	102	4
103	104	2
114	115	3
130	130	9
80	80	1
99	100	1
34	35	1
115	115	3
127	139	1
83	83	4
123	124	6
135	136	4
104	119	2
78	78	6
137	138	2
15	18	2
19	20	2
124	124	5
127	133	2
110	111	3
122	122	11
17	17	7
105	107	1
119	119	6
100	100	5
86	89	2
71	71	8
75	75	4
123	128	2
72	72	3
9	9	1
134	135	4
90	94	1
128	131	2
87	87	5
111	115	2
27	27	2
1	17	1
19	19	2
122	123	1
8	8	1
82	86	1
106	111	2
136	138	1
134	136	4
112	114	1
127	131	1
88	101	1
109	109	2
9	10	1
89	95	2
0	5	1
3	4	1
100	111	1
106	109	2
77	77	7
93	96	2
14	16	1
6	12	1
113	120	2
33	34	2
102	103	1
110	113	1
85	87	2
112	113	2
131	131	7
114	116	2
127	138	1
127	136	2
17	18	2
73	79	1
93	93	7
0	0	2
91	91	5
16	16	7
133	135	1
84	86	1
108	117	2
88	88	1
131	136	1
125	133	2
135	135	4
4	5	1
139	140	1
87	119	1
36	36	3
7	14	1
99	99	5
111	111	5
118	121	1
119	120	5
140	140	5
116	127	1
104	105	6
92	92	4
108	110	1
106	106	3
116	128	1
121	121	3
134	140	1
85	85	3
103	106	1
136	137	2
116	116	8
101	103	2
95	112	2
95	95	5
123	127	1
118	119	1
73	77	1
90	90	3
33	33	3
118	126	1
122	125	1
129	140	1
125	126	2
101	101	4
38	74	2
121	126	1
89	93	1
131	133	2
0	3	2
110	110	2
121	123	1
120	120	4
73	74	1
79	80	1
113	113	4
74	74	6
4	11	1
132	135	1
127	132	1
82	108	1
73	140	1
101	130	1
75	78	1
109	119	1
6	8	1
93	94	2
7	17	1
112	118	1
108	109	1
34	37	1
137	140	1
17	19	1
9	12	1
97	138	2
93	102	1
84	84	1
93	125	1
27	33	1
110	116	1
132	138	2
128	136	2
5	5	3
86	86	2
1	2	1
122	124	1
102	106	1
28	28	1
109	121	3
37	37	4
106	118	1
107	107	7
8	16	2
83	91	1
91	95	1
77	80	1
93	100	1
36	37	2
8	13	1
101	112	1
78	82	1
91	129	1
118	122	1
110	130	1
38	71	1
14	19	1
80	81	1
108	108	2
109	110	1
32	96	2
83	86	1
91	112	1
20	20	2
120	123	1
72	73	3
79	81	1
111	112	2
114	121	1
129	133	1
89	89	2
77	82	1
98	105	1
124	125	4
31	32	1
110	138	1
81	82	2
130	132	1
78	86	1
109	111	1
116	118	1
83	89	1
107	111	1
15	15	1
35	36	2
89	94	1
115	126	1
85	93	1
2	2	2
4	4	3
77	78	1
122	127	1
71	100	1
113	114	1
127	137	1
101	102	1
1	12	1
76	78	1
1	14	1
7	8	2
81	85	1
126	139	1
117	122	1
78	79	1
95	96	1
82	88	1
11	17	1
133	138	1
79	110	1
14	15	1
102	112	1
115	119	1
95	132	1
83	85	1
128	129	2
130	131	1
130	134	1
129	130	1
82	119	1
105	106	2
13	14	2
116	122	1
105	113	1
127	128	1
90	91	1
1	5	1
74	77	1
7	10	1
83	110	1
130	133	2
11	11	1
83	84	1
137	137	1
114	120	1
90	98	1
1	11	1
98	114	1
104	116	1
124	130	1
92	94	1
133	140	1
15	19	1
110	114	1
33	37	1
96	98	1
