26	26	2
84	85	2
29	29	1
36	36	2
11	33	1
115	115	2
84	114	1
2	2	1
132	132	1
24	41	1
114	116	2
82	82	2
48	50	1
74	76	1
69	69	6
61	61	5
62	62	2
119	120	2
75	75	2
33	34	1
77	85	1
39	42	1
102	133	1
30	30	1
64	64	3
119	119	5
66	66	2
111	111	1
56	58	1
23	30	2
71	71	2
36	38	1
37	40	1
129	130	3
124	125	1
31	31	4
89	89	2
9	9	5
6	6	1
60	60	1
15	28	1
88	88	1
104	106	2
63	63	2
40	44	1
33	33	2
63	64	1
17	17	3
134	134	2
14	15	2
101	101	3
25	25	1
11	11	1
34	63	1
112	118	2
27	27	3
107	107	1
34	35	3
96	102	1
39	39	1
74	74	2
10	17	1
117	117	1
16	17	2
81	81	1
96	100	1
18	18	5
47	47	4
45	45	3
105	113	1
103	104	2
5	5	3
68	68	1
46	46	2
41	41	2
125	126	5
132	133	2
56	56	1
117	118	2
25	26	2
77	78	1
31	32	1
65	65	6
12	19	1
103	103	3
47	48	3
123	123	2
127	127	1
13	19	2
59	59	3
60	61	3
118	119	1
103	105	1
32	33	2
122	122	2
100	100	2
11	12	1
8	8	3
130	131	1
86	102	2
21	21	2
19	19	2
35	35	3
118	118	1
93	94	3
59	60	3
113	113	3
5	33	1
37	39	1
80	81	1
38	38	2
90	90	2
84	84	1
120	120	2
20	20	3
113	114	1
130	133	1
10	10	3
109	109	3
57	57	3
121	121	1
80	80	2
112	113	3
123	126	1
118	123	1
76	76	2
32	32	1
21	29	1
81	109	1
78	82	1
112	112	2
110	110	1
67	67	1
42	42	1
0	0	2
102	102	1
58	58	2
77	118	1
3	3	2
87	88	1
13	13	2
61	62	1
15	32	1
83	83	2
124	124	1
7	7	1
81	82	1
73	73	1
92	92	2
104	127	1
10	11	1
24	26	1
68	69	1
14	29	1
4	4	1
78	122	1
40	42	1
72	72	1
115	116	2
22	47	1
78	78	2
82	86	1
23	25	1
119	122	1
99	99	3
37	37	1
79	79	1
20	21	1
34	36	1
130	130	2
96	97	1
101	102	1
15	15	1
34	34	1
58	59	1
116	116	1
19	20	1
78	79	1
97	98	1
38	39	1
113	125	1
48	48	1
13	29	1
122	129	1
3	4	1
42	50	1
70	71	1
