169	169	3
17	17	2
96	98	2
131	132	3
2	2	6
25	48	1
187	187	5
134	135	3
157	157	2
31	36	1
170	170	4
4	4	3
87	88	3
104	104	7
83	84	2
99	99	3
25	25	5
124	124	6
101	101	2
128	190	1
43	43	3
96	97	3
68	96	1
135	150	1
153	153	5
5	5	7
156	156	2
90	91	3
145	145	4
133	169	1
121	122	1
64	66	1
78	78	4
76	140	1
103	112	1
144	144	2
179	179	3
122	124	2
24	25	3
125	125	7
19	22	1
141	144	1
76	76	5
15	17	2
38	39	2
68	108	1
81	82	2
102	102	3
3	3	2
63	78	1
137	137	1
49	49	3
44	47	1
180	182	2
74	75	1
88	88	3
57	58	1
123	175	1
28	28	1
56	110	1
109	109	2
124	126	1
85	85	3
155	155	5
150	150	6
13	14	2
67	67	2
130	130	4
152	153	2
74	74	5
33	33	4
79	122	1
47	47	4
31	31	1
90	97	1
113	113	5
11	11	5
164	164	4
77	139	1
26	26	5
13	13	3
94	94	4
165	168	1
29	30	1
45	62	1
185	185	5
101	102	1
57	57	3
17	20	2
108	108	2
14	14	3
26	38	1
40	40	1
128	128	7
59	59	1
10	10	3
189	190	2
100	100	5
144	145	1
160	160	2
104	105	2
97	97	3
94	111	2
46	46	2
56	56	2
29	29	2
58	58	1
138	138	4
117	118	2
42	42	2
64	67	3
133	136	1
117	117	2
30	30	2
55	55	8
147	178	1
71	71	11
60	60	4
105	106	1
130	131	3
186	186	5
28	29	1
105	105	1
189	189	1
82	84	3
106	106	5
127	128	1
99	100	1
45	46	1
35	35	1
87	104	2
177	179	2
87	87	2
0	0	7
126	129	1
180	181	1
87	89	1
18	18	3
7	7	2
64	64	2
155	167	1
79	81	1
147	147	5
178	184	1
10	14	1
123	139	2
12	12	4
123	123	3
81	83	1
94	95	1
138	139	2
114	114	4
39	77	1
178	178	4
80	187	2
153	187	1
7	8	2
139	139	1
63	106	1
32	32	2
112	121	1
84	85	2
61	65	1
170	187	1
52	55	1
95	95	1
148	148	4
29	31	1
177	178	1
152	152	3
142	143	3
175	177	1
154	155	3
133	133	1
169	170	1
181	181	2
120	120	2
190	190	1
23	23	3
42	138	1
39	40	3
121	121	3
70	108	2
131	131	3
131	133	2
32	33	2
134	134	2
55	56	3
61	61	3
169	172	2
77	77	7
78	185	1
122	122	3
69	99	1
83	129	1
47	48	1
12	13	1
164	166	2
15	15	4
142	142	2
10	80	1
168	168	1
119	119	2
90	90	2
72	72	5
174	176	1
91	93	2
167	167	2
98	104	1
65	67	2
42	43	1
166	166	1
58	67	1
55	68	1
184	184	3
37	37	3
22	22	2
115	116	1
68	100	1
71	137	1
106	109	1
102	103	1
100	122	2
1	1	2
79	79	4
180	180	1
175	184	1
48	48	7
148	149	1
11	16	1
159	160	2
176	177	2
17	25	1
86	86	3
146	146	1
112	112	3
32	44	1
79	80	2
35	36	1
64	65	1
129	129	10
128	141	1
39	53	1
60	111	1
41	41	3
68	69	1
135	135	2
105	107	1
1	3	1
82	188	1
126	159	1
157	159	1
8	8	1
174	175	1
135	136	1
72	108	1
155	175	1
5	6	1
141	142	1
93	93	3
27	28	1
75	75	3
38	38	1
156	174	1
126	126	2
165	165	2
137	147	1
62	64	3
125	176	1
54	54	3
82	128	1
111	147	1
109	110	1
1	2	1
173	173	1
57	87	1
179	181	1
171	171	1
4	5	3
61	62	1
16	16	1
118	118	4
39	39	5
36	36	1
166	167	1
127	127	4
84	84	2
110	112	1
41	42	1
89	93	1
81	81	2
107	108	1
65	65	2
124	125	1
137	154	1
153	154	1
187	188	1
166	168	1
68	68	2
110	121	2
153	159	1
73	75	1
17	24	1
110	119	1
7	40	1
65	69	1
167	168	1
63	79	1
103	104	1
75	76	2
120	122	1
140	140	1
86	87	1
128	160	1
6	7	1
110	185	1
156	157	1
20	21	2
66	67	2
11	13	2
188	188	3
80	80	2
44	44	1
28	138	1
122	171	1
175	187	1
18	19	1
70	144	2
0	1	1
158	158	1
5	18	1
116	116	1
43	133	1
174	174	1
23	24	1
92	93	1
14	15	1
71	107	1
5	55	1
160	165	1
65	66	1
183	184	1
103	103	2
161	163	1
110	111	1
127	147	1
100	104	1
56	66	1
111	111	1
86	88	1
58	107	1
128	129	1
110	110	1
97	98	1
34	34	1
136	139	1
80	119	1
93	94	1
175	175	3
15	16	1
10	11	1
87	130	1
98	98	1
87	140	1
81	130	1
153	185	1
9	9	1
154	154	1
130	140	1
149	149	1
146	147	1
115	115	1
89	113	1
106	107	1
82	82	1
32	35	1
143	143	1
128	174	1
24	24	1
6	6	1
151	155	1
104	111	1
38	78	1
72	73	1
