32	34	2
81	81	2
119	119	5
111	111	3
77	77	1
30	33	1
49	49	1
108	108	3
113	113	3
87	88	1
90	96	1
25	46	1
58	122	1
22	23	1
44	46	1
60	60	1
16	16	1
50	50	2
16	17	1
108	110	2
58	58	2
117	117	3
103	103	3
72	106	1
83	83	1
10	10	1
94	94	3
130	131	4
42	43	1
121	121	2
127	130	1
123	124	2
70	70	2
67	67	2
113	120	1
102	102	1
13	14	1
88	88	2
55	70	2
51	51	1
79	79	1
120	120	2
58	61	3
56	56	4
109	109	2
93	119	1
82	92	1
73	73	2
63	78	2
63	63	1
130	130	2
112	112	4
13	21	1
78	97	2
110	111	3
44	44	2
23	26	1
128	129	1
96	97	1
69	69	2
131	131	1
107	107	2
72	72	3
65	92	1
45	45	1
132	132	3
129	129	2
44	45	1
120	121	1
51	52	2
86	88	1
78	79	1
20	20	2
73	74	1
76	112	1
52	52	1
109	110	2
32	32	1
76	76	1
5	5	4
30	31	1
106	106	2
58	59	3
12	13	1
126	126	3
127	128	2
59	62	1
62	76	1
53	57	1
25	26	1
3	3	2
115	115	2
6	6	2
84	84	1
18	19	1
99	125	1
61	62	1
113	114	1
75	75	1
124	124	1
58	60	1
57	57	5
15	22	1
2	2	2
42	42	1
6	57	1
23	23	1
70	71	1
110	110	1
18	18	3
62	62	1
114	114	3
16	19	2
116	117	1
58	91	1
54	54	1
125	125	1
91	91	1
28	28	2
122	122	1
93	93	1
101	101	1
29	29	4
43	80	1
82	82	2
89	89	2
101	102	1
99	99	1
128	128	1
73	101	1
74	74	1
23	24	1
56	122	1
27	28	1
123	123	3
114	115	1
4	25	1
102	105	1
96	96	1
95	98	1
92	93	1
9	10	1
65	115	1
67	68	1
98	99	1
50	121	1
88	90	1
29	45	1
12	12	1
95	107	1
68	73	1
94	96	1
85	85	1
6	7	1
83	85	1
80	80	1
17	17	1
32	33	1
10	46	1
53	53	1
102	103	1
19	19	1
34	43	1
104	105	1
25	25	3
86	86	1
55	55	1
21	31	1
34	34	1
14	14	1
79	80	1
102	124	2
72	94	1
118	129	1
76	77	1
76	80	1
84	98	1
15	17	2
64	65	1
95	95	1
81	84	1
123	130	1
8	8	1
55	56	1
