53	53	2
44	44	6
23	26	1
1	17	1
146	166	1
3	9	1
51	51	3
135	136	2
178	178	7
71	73	2
36	36	3
136	138	1
51	52	3
225	225	1
121	122	6
73	73	4
20	20	3
160	160	5
23	25	1
230	231	4
13	15	1
139	160	3
220	221	1
234	242	1
44	46	2
116	116	2
100	101	1
162	173	1
7	130	1
38	43	2
80	80	2
71	71	4
62	63	3
152	154	1
123	168	1
18	18	4
4	7	1
44	60	2
146	146	5
160	169	3
167	168	3
4	4	4
24	33	2
12	12	7
128	128	8
62	64	1
106	131	1
3	3	2
7	8	5
209	209	1
99	102	1
33	122	1
167	167	5
124	124	9
152	152	3
8	8	3
228	229	1
146	147	1
29	29	2
150	150	8
52	53	2
40	41	2
41	41	4
30	95	1
97	97	5
17	17	4
21	42	1
65	65	4
149	157	1
86	106	1
216	216	4
241	241	4
37	40	1
130	136	1
157	157	4
163	163	3
182	187	1
118	118	1
74	82	1
174	202	1
177	177	6
63	76	1
10	11	2
72	73	2
171	171	7
84	85	2
84	125	1
194	194	2
190	201	2
239	239	5
6	6	3
66	84	1
154	155	3
49	49	2
121	121	2
162	164	1
148	150	1
129	136	2
180	180	10
33	33	3
26	26	7
115	116	1
147	147	5
55	80	1
154	156	1
149	149	5
155	156	2
103	103	1
35	36	1
118	120	1
95	95	2
134	134	2
72	72	13
17	25	1
37	38	1
176	176	5
171	172	3
209	213	1
49	50	4
149	152	2
172	173	2
200	200	5
9	20	2
187	189	1
57	57	8
138	138	5
102	103	5
79	79	6
32	44	1
157	164	1
133	134	3
96	109	2
4	30	3
186	186	2
32	32	3
126	137	1
46	46	4
122	128	2
28	31	1
113	113	4
74	74	6
176	177	3
198	223	1
106	106	3
101	101	7
10	10	4
74	75	3
11	20	1
31	32	2
115	115	4
230	230	2
62	75	2
127	127	3
86	153	1
39	40	1
107	110	1
58	59	1
168	208	1
47	48	1
20	33	1
68	75	1
153	153	4
144	150	2
56	56	6
114	142	2
75	76	2
242	242	5
104	104	2
35	50	2
42	42	6
70	72	1
174	174	3
13	48	1
55	55	2
114	114	2
188	188	8
162	162	3
18	19	1
45	45	8
23	23	2
189	223	1
96	96	2
102	102	3
161	161	4
83	84	2
50	52	1
226	227	3
212	213	2
205	205	3
211	212	5
229	229	7
169	169	3
54	55	8
64	64	7
59	108	1
22	22	9
27	27	3
226	226	1
40	40	5
115	142	2
189	190	1
234	239	1
175	175	5
68	68	2
173	173	1
168	183	2
202	202	4
189	189	2
98	98	2
201	201	2
229	230	2
88	88	4
240	240	1
129	129	2
85	95	1
0	9	1
20	42	1
216	217	1
158	158	3
58	79	1
183	187	1
16	23	1
151	151	5
63	63	6
123	123	6
12	36	1
110	110	2
192	203	3
164	164	6
205	210	1
234	236	1
233	238	2
9	38	2
139	139	2
218	218	4
25	47	1
219	220	3
206	206	4
188	189	2
154	154	5
207	207	2
221	221	3
187	187	2
120	120	3
120	146	1
113	128	2
34	35	4
1	7	2
54	54	6
202	231	1
69	69	3
184	186	1
125	181	1
0	0	3
78	78	4
204	204	3
50	50	3
43	70	1
34	49	2
198	198	5
151	154	1
132	179	1
66	68	2
235	235	1
85	85	4
23	37	1
155	163	1
185	185	2
69	86	1
63	82	2
139	158	2
83	83	5
100	136	3
217	217	3
75	79	1
42	74	1
32	132	1
148	158	1
55	74	2
43	43	6
193	194	1
175	176	2
150	158	1
142	143	3
161	162	2
100	100	1
45	46	1
217	218	6
75	75	5
198	211	1
162	172	1
156	156	5
30	30	3
168	168	4
5	18	1
52	52	2
130	131	1
21	21	2
117	118	3
133	179	3
233	233	4
137	175	2
142	142	4
174	175	1
0	11	1
38	44	1
165	186	2
159	160	1
19	19	4
122	129	1
219	234	1
2	2	3
126	126	2
119	119	5
156	192	1
117	117	1
68	76	1
150	175	1
185	186	6
74	78	1
121	159	1
109	110	3
200	238	1
20	22	2
165	168	2
166	166	1
103	108	1
17	42	1
107	129	1
151	188	2
146	200	1
11	11	6
186	187	5
9	9	2
141	143	2
179	179	2
163	199	1
143	143	5
123	124	2
111	111	1
111	113	1
32	33	1
140	140	4
81	81	7
42	45	1
53	57	1
50	59	1
16	18	1
194	195	3
16	16	4
141	141	3
13	21	1
30	39	1
224	224	3
152	153	2
84	84	3
184	185	4
102	120	1
224	225	1
57	78	1
86	86	5
112	113	1
33	67	1
216	228	1
180	183	1
28	46	1
202	203	3
159	178	1
98	105	1
200	221	2
191	200	2
116	124	2
78	79	2
10	15	2
184	184	6
79	81	1
122	122	2
61	160	1
114	122	1
39	39	2
20	21	2
7	15	1
188	200	1
174	179	1
65	66	3
136	136	3
190	190	3
216	241	2
34	41	1
113	114	2
133	158	1
237	237	4
152	197	1
217	236	2
156	165	1
199	201	1
6	7	1
67	67	2
0	72	1
47	47	6
219	219	2
165	165	4
160	171	2
105	105	4
36	51	2
66	66	1
2	3	2
0	1	1
8	10	1
122	123	1
185	191	1
39	64	1
108	129	1
227	227	3
194	197	1
39	48	1
110	119	1
196	196	2
69	205	2
14	51	2
197	236	2
48	48	2
156	157	3
100	109	1
155	155	4
144	144	3
187	188	1
6	18	1
203	203	1
4	13	1
159	159	2
3	7	1
149	150	2
13	13	1
120	123	2
104	116	2
162	163	2
135	168	1
11	67	1
112	112	2
208	223	2
214	214	3
222	223	2
182	182	4
145	145	4
131	131	1
102	104	1
221	223	1
73	74	1
197	202	1
158	169	1
148	173	1
176	188	1
150	151	3
215	216	2
209	217	1
53	54	2
71	99	1
140	142	1
5	5	1
128	136	1
221	222	2
80	83	1
33	34	1
153	159	1
137	137	1
31	31	2
155	207	1
191	207	1
99	100	2
31	140	1
222	222	4
225	232	1
185	188	1
223	223	1
33	37	1
82	83	3
159	161	1
87	87	1
38	62	1
80	84	1
145	150	1
179	200	1
103	104	2
62	62	6
182	183	1
86	202	1
128	152	1
168	169	3
22	144	1
78	136	2
144	148	1
208	219	1
101	103	1
193	193	1
147	150	1
213	213	1
21	224	1
3	5	1
110	113	1
115	148	1
27	235	1
162	171	1
170	171	1
171	219	1
128	145	1
86	218	1
193	195	1
164	182	1
55	62	1
157	162	1
12	34	1
125	182	1
60	60	1
58	61	1
161	163	1
5	6	2
149	151	1
144	145	1
199	199	2
104	107	1
73	86	2
125	125	3
108	136	1
140	141	1
238	238	1
37	64	1
159	175	1
21	179	1
164	169	1
125	176	1
96	108	1
138	139	1
178	187	1
100	119	1
68	72	1
120	122	1
78	80	1
12	32	1
183	186	1
149	159	2
231	232	1
102	110	1
191	194	1
85	107	2
160	161	1
131	174	1
68	85	1
223	228	1
52	54	1
233	235	1
150	162	1
133	133	2
223	232	1
59	60	1
99	101	1
99	99	2
1	8	1
192	192	1
33	36	1
71	72	2
137	138	3
122	127	2
54	82	1
163	165	1
64	75	1
113	118	1
3	11	1
162	215	1
109	109	4
171	174	1
220	223	1
138	175	1
53	56	1
194	229	1
179	180	1
129	131	1
134	136	1
237	239	1
97	113	1
4	5	1
130	130	1
220	222	1
34	34	1
60	80	1
17	23	1
43	172	1
198	209	1
66	67	2
70	70	2
197	197	1
228	228	1
198	216	1
7	7	3
60	62	1
232	233	1
85	86	1
15	15	7
12	38	1
58	58	3
61	61	1
214	216	1
170	170	1
57	83	2
128	129	2
68	71	2
195	196	2
234	240	2
197	198	2
205	207	1
125	147	1
25	25	1
180	181	1
15	16	3
45	71	1
31	42	1
10	43	1
177	178	3
189	193	1
39	65	1
207	213	1
82	82	3
181	182	1
230	240	1
4	6	1
79	80	3
3	58	1
192	193	1
11	12	1
23	50	1
118	122	1
25	45	1
207	219	1
135	135	1
169	170	2
168	180	1
0	237	1
106	108	1
125	140	1
80	81	1
160	187	1
31	37	1
48	49	1
28	29	1
102	114	1
33	35	1
177	216	2
124	127	1
8	12	1
124	125	1
164	170	1
1	1	1
38	38	2
144	146	1
161	166	1
150	152	2
42	144	1
1	24	1
138	141	1
1	62	1
23	48	1
225	226	2
15	18	1
147	148	1
108	130	1
14	14	1
183	184	1
90	90	1
31	236	1
127	150	1
169	178	1
158	160	1
172	172	1
89	89	1
212	229	1
10	38	1
165	182	1
74	105	1
185	187	1
234	235	1
37	37	1
137	139	1
181	187	1
160	177	1
125	142	1
181	181	1
204	207	2
158	168	1
78	134	1
148	148	1
40	56	1
67	84	1
8	220	1
107	107	2
40	50	1
217	219	1
118	119	1
129	130	1
163	188	1
55	82	1
231	231	1
115	117	1
65	69	1
117	124	1
220	225	1
147	151	1
116	117	2
22	24	1
235	239	1
161	164	1
8	44	1
195	195	1
212	212	1
33	39	1
56	57	1
28	28	1
178	184	1
77	77	1
81	83	1
150	178	1
133	136	1
128	172	1
158	161	1
163	164	2
89	106	1
22	50	1
3	12	1
154	157	1
120	128	1
125	126	1
210	211	1
215	215	1
143	148	1
39	50	1
20	24	1
157	161	1
175	177	2
34	36	1
132	132	1
70	100	1
32	68	1
5	22	1
75	120	1
