219	219	2
3	3	3
90	90	4
236	239	3
89	90	4
242	242	9
191	191	3
190	196	1
77	77	4
29	30	2
55	55	6
43	43	7
185	185	4
198	200	1
17	19	4
194	194	1
30	30	4
157	157	5
7	10	1
57	67	2
79	82	1
110	110	3
78	78	2
33	94	1
189	189	4
112	112	3
92	92	3
183	192	2
88	96	1
200	201	1
197	198	3
182	184	2
79	87	1
38	38	7
26	26	5
241	241	12
229	229	7
50	59	1
4	4	8
158	178	1
98	99	3
45	45	7
156	235	2
64	64	2
114	114	7
69	69	4
159	159	2
107	115	1
47	47	2
33	33	4
187	187	3
227	227	4
107	107	5
234	235	3
168	168	7
234	244	2
151	151	6
4	18	1
172	172	3
216	216	6
56	62	1
236	241	1
198	198	3
185	186	1
113	113	8
177	178	1
56	61	2
92	93	1
213	241	1
82	82	3
19	19	7
58	60	1
186	186	3
164	164	6
37	37	2
214	236	1
59	175	1
190	191	3
160	160	4
237	237	5
27	27	7
95	204	1
31	31	7
89	89	2
222	222	7
95	95	3
220	220	6
64	65	2
16	16	3
204	205	1
171	171	5
207	207	4
80	80	6
21	41	1
145	145	2
226	226	4
178	190	3
235	235	3
197	197	6
177	195	2
42	224	1
208	208	2
22	23	2
15	84	1
121	165	1
60	60	4
14	14	4
40	154	1
175	175	5
173	200	2
24	42	1
103	119	1
209	209	4
215	240	1
193	193	3
199	200	1
106	108	1
224	224	2
230	230	7
172	173	2
162	168	1
176	177	1
10	10	3
31	33	1
80	81	3
84	84	2
81	102	1
225	225	4
162	213	1
166	166	2
23	23	5
44	44	8
62	74	1
180	180	3
40	41	3
94	95	2
44	62	1
32	52	1
119	119	1
111	111	5
246	246	3
99	100	2
154	154	3
77	78	2
119	120	1
171	172	2
72	74	2
38	39	1
117	118	1
212	223	2
79	79	2
11	11	7
8	8	5
213	220	2
35	111	2
23	30	1
199	199	9
161	161	1
109	109	4
182	183	2
244	244	4
78	79	2
70	75	1
165	165	8
213	214	1
47	54	3
182	182	10
75	213	1
91	91	4
49	49	3
108	108	2
117	117	6
163	163	5
1	1	3
217	238	1
71	71	3
58	59	2
33	35	2
201	201	7
56	71	1
116	116	2
19	43	1
204	204	4
189	190	1
87	89	1
183	183	3
22	22	6
211	211	3
212	214	3
196	196	4
35	35	3
232	233	3
189	191	1
195	195	1
71	119	1
167	175	1
190	190	3
226	229	1
50	71	1
166	167	2
9	9	4
233	233	5
242	243	1
200	200	5
53	53	4
8	45	1
247	247	4
77	163	1
32	38	1
46	46	3
213	213	3
44	65	1
192	193	3
6	6	3
57	57	3
20	21	1
153	154	2
214	215	1
32	32	4
236	236	3
15	15	4
41	41	2
98	98	2
75	75	2
223	223	7
218	218	7
202	202	1
203	203	1
22	25	2
188	188	3
20	20	9
7	7	7
48	58	1
233	236	1
62	62	2
59	59	3
174	176	1
94	94	5
96	98	1
168	207	1
231	231	5
68	68	5
183	185	1
4	57	1
28	28	1
147	147	4
214	214	3
96	115	1
61	61	1
184	185	1
5	5	3
53	54	1
188	218	1
157	160	1
162	162	4
158	159	1
200	236	2
219	242	1
182	185	1
248	248	2
36	36	6
234	239	1
178	178	4
69	237	1
48	57	1
32	209	1
88	88	2
215	232	2
151	154	1
177	177	3
11	19	1
103	103	3
212	213	2
78	85	1
106	106	3
165	166	1
240	240	2
195	196	2
17	18	1
75	173	2
18	18	5
227	234	1
66	66	4
219	238	2
181	181	4
243	243	3
99	101	1
9	169	1
24	46	1
243	248	1
249	249	1
17	17	5
90	94	1
226	228	1
31	167	2
52	52	2
245	246	1
34	34	7
158	176	1
92	160	1
186	208	1
32	150	3
247	248	2
85	85	3
163	185	1
5	222	2
54	54	5
50	51	1
86	86	1
156	156	3
212	212	5
168	183	1
99	99	2
118	119	1
152	157	1
89	172	1
210	210	2
202	203	1
87	99	2
181	188	1
205	208	1
51	52	1
51	51	1
173	173	2
205	205	4
216	217	1
102	104	1
147	151	1
94	98	1
191	192	4
93	100	2
5	198	2
102	103	1
25	25	3
226	227	1
216	218	2
218	243	1
193	194	1
175	234	1
26	27	2
29	33	1
56	58	1
179	180	1
218	242	1
246	247	2
16	27	1
146	147	1
167	167	2
176	178	1
18	20	2
192	192	2
161	162	3
12	16	1
221	238	1
84	107	1
42	42	3
58	227	1
33	249	1
116	117	2
219	236	1
233	234	2
100	101	2
118	118	4
56	241	1
56	88	1
194	195	2
110	173	2
184	184	2
39	39	1
5	6	1
58	67	1
99	115	1
14	18	1
5	146	1
224	236	1
156	157	1
234	234	3
187	188	1
65	65	2
12	205	1
46	47	2
9	212	1
116	118	1
41	47	1
69	228	1
191	209	1
59	61	1
187	190	1
9	10	1
217	242	1
191	198	1
80	105	1
67	117	1
11	20	1
100	100	1
182	219	2
146	146	1
150	150	3
242	246	1
239	239	2
212	219	1
186	187	1
167	168	3
95	99	1
67	83	1
13	13	1
69	70	2
215	216	1
165	168	1
68	71	3
74	116	1
23	230	1
169	169	1
9	37	1
151	172	1
76	76	1
221	222	2
47	93	1
210	211	3
8	9	1
70	70	3
232	232	2
168	169	2
169	171	1
152	152	2
209	219	1
50	56	1
214	216	1
216	221	1
228	228	3
233	248	1
1	161	1
97	115	1
50	50	3
25	29	1
172	174	1
85	87	1
217	218	1
27	28	1
0	1	1
45	168	1
182	233	1
14	35	1
66	171	1
172	223	1
175	176	1
76	77	1
163	164	2
240	244	1
67	67	1
58	119	1
108	109	1
104	105	1
111	112	1
97	105	1
93	93	2
194	215	1
47	160	2
220	247	1
180	181	1
162	185	1
182	220	1
175	181	1
180	182	1
96	96	1
49	55	1
91	101	1
210	214	1
10	12	1
215	215	1
158	158	2
188	190	1
41	43	1
56	57	1
40	40	1
24	25	1
205	207	1
48	48	1
212	226	1
194	235	1
149	151	1
168	200	1
198	199	1
55	56	1
240	243	2
190	192	1
75	76	4
229	230	1
33	110	1
52	53	1
81	83	1
78	98	1
106	114	1
71	171	1
107	108	1
109	110	1
206	235	1
95	96	1
238	239	1
21	21	1
115	115	2
12	12	1
57	58	1
21	22	1
120	144	1
30	34	1
75	176	1
43	47	1
73	73	1
50	63	1
153	153	1
11	12	1
162	201	1
27	117	1
63	63	1
202	207	1
236	247	1
159	202	1
61	63	1
223	224	1
168	187	1
245	245	2
240	247	1
159	209	1
168	180	1
193	197	1
54	172	1
1	185	1
103	108	1
222	237	1
216	241	1
47	109	1
174	174	1
236	243	1
162	163	1
65	207	1
34	40	1
59	116	1
23	25	1
58	58	1
84	85	1
208	228	1
152	158	1
65	67	1
105	105	1
174	175	1
105	108	1
18	19	1
72	72	1
