142	142	3
129	129	7
43	43	3
154	156	1
23	23	2
147	147	7
86	92	1
119	119	4
80	82	2
3	46	1
45	47	1
75	75	3
87	87	1
155	155	3
148	148	6
78	79	1
75	98	1
18	18	2
44	44	4
52	53	1
67	67	2
45	45	2
122	122	2
145	145	3
117	120	2
1	1	1
149	156	2
132	132	2
101	101	4
3	3	3
17	19	1
5	5	3
105	120	1
57	57	1
68	68	2
55	55	2
94	118	1
2	45	1
156	156	1
94	94	2
78	78	4
112	112	1
67	68	1
29	82	1
113	113	2
131	132	5
136	144	1
66	67	1
10	10	3
149	149	2
137	143	1
40	41	1
82	87	1
152	152	1
81	86	3
42	49	1
76	76	1
29	29	2
142	146	1
106	106	4
13	16	1
150	150	3
93	93	2
123	123	1
135	151	1
32	32	3
114	114	1
24	36	1
140	140	1
74	156	1
91	148	1
111	111	2
158	158	3
25	28	2
57	92	1
27	86	1
110	110	2
104	123	1
139	149	1
10	23	1
66	66	2
87	88	2
62	62	2
27	27	2
98	99	1
2	2	3
36	37	1
17	17	2
51	51	2
112	126	1
126	126	1
8	8	2
65	65	3
105	106	2
73	73	1
107	129	1
65	66	1
97	97	2
131	131	2
77	77	2
63	63	2
71	107	1
116	116	2
143	143	1
92	96	1
144	145	2
86	86	1
30	30	2
7	8	1
151	151	3
128	128	5
95	96	1
64	77	1
86	91	1
145	147	1
24	139	1
133	133	1
135	142	1
127	127	3
121	130	1
0	0	4
142	143	1
29	31	1
123	124	1
121	123	2
98	98	3
101	104	1
18	19	2
118	118	1
20	21	1
39	43	1
146	147	1
112	131	1
15	49	1
148	149	1
24	25	1
66	75	1
25	26	1
88	88	1
12	12	1
15	15	1
92	95	1
138	139	2
103	103	4
20	63	1
119	120	3
83	96	1
93	112	1
107	107	1
34	34	1
121	121	3
29	37	1
77	78	1
90	121	1
97	152	1
33	33	6
137	146	1
90	93	1
142	148	1
104	104	3
99	99	2
139	139	4
40	40	4
5	6	1
53	53	1
137	137	1
147	148	1
111	133	1
83	84	2
141	142	1
115	121	1
7	7	2
39	39	1
129	148	1
95	106	1
54	55	1
92	127	1
123	143	1
108	109	1
105	116	1
88	90	1
38	38	1
125	126	1
49	126	1
157	157	2
47	47	2
6	6	1
22	22	4
69	96	1
96	96	1
21	21	1
11	11	1
36	36	1
4	4	1
4	151	1
142	152	1
117	118	2
138	138	1
96	97	1
144	146	1
143	144	2
109	109	1
119	133	1
56	56	1
129	158	1
127	130	2
77	79	1
31	32	1
8	10	1
113	114	1
107	142	1
96	139	1
49	49	1
115	126	1
136	137	1
118	119	1
87	112	1
79	79	2
141	141	1
38	44	1
50	56	1
42	43	1
149	151	1
92	92	1
72	72	1
14	14	1
89	89	1
68	69	1
83	83	1
100	100	2
34	47	1
138	140	1
28	28	1
116	117	1
118	121	1
86	87	1
83	93	1
116	138	1
102	102	1
122	123	1
89	120	1
16	16	1
108	110	1
