124	125	2
15	16	1
80	80	3
104	142	1
41	41	3
16	22	2
142	142	3
130	130	8
127	127	4
79	94	1
145	145	1
103	103	6
41	48	2
98	99	2
47	47	6
45	45	4
127	134	1
81	81	1
15	47	1
105	114	3
84	84	5
154	154	3
44	48	2
64	64	5
43	48	1
137	137	4
83	102	1
147	147	2
132	132	4
112	112	2
116	121	2
100	100	7
37	38	2
123	126	1
26	28	1
9	81	1
40	40	3
70	77	1
85	85	7
99	99	3
58	58	3
26	26	4
141	141	4
25	25	1
33	33	4
87	120	1
12	96	2
56	57	1
54	56	1
78	105	1
35	35	1
21	21	10
102	102	5
34	35	3
75	93	1
150	150	3
138	138	6
62	63	4
38	44	2
113	117	1
20	23	1
68	81	1
61	62	1
64	65	2
5	5	3
75	75	3
65	65	2
2	4	1
85	110	1
41	44	1
97	97	2
9	10	1
131	131	7
118	124	1
27	33	1
5	100	1
78	79	3
134	134	1
6	6	3
82	82	3
16	16	3
99	100	1
18	25	2
87	101	1
86	87	1
19	151	1
32	33	2
118	118	3
98	98	6
13	13	9
31	39	1
101	102	1
21	37	2
83	84	3
124	124	6
4	22	1
146	146	4
95	95	3
131	136	2
148	148	3
90	122	1
36	36	2
109	109	5
143	144	2
19	20	1
29	29	4
42	42	3
43	43	2
114	121	1
126	128	4
35	36	2
77	79	2
80	82	2
23	23	2
28	28	3
105	105	5
124	131	1
126	127	1
39	39	7
48	49	1
151	151	4
87	87	4
102	114	1
23	24	1
63	67	1
143	143	4
76	80	1
83	83	1
50	50	4
111	121	1
24	26	2
29	44	1
17	19	1
103	140	1
20	20	4
7	21	1
44	44	3
138	144	1
120	120	2
129	129	4
121	121	2
74	76	1
92	92	5
136	137	2
116	116	3
153	154	2
123	125	2
119	121	2
79	85	1
22	22	3
44	45	2
152	152	3
18	21	1
7	14	1
77	78	1
123	123	2
6	28	1
73	117	2
70	117	1
46	48	1
90	90	2
100	106	1
40	46	2
53	53	5
126	139	1
14	40	1
85	87	1
93	93	1
117	125	1
77	77	4
104	104	6
26	27	2
31	37	1
151	152	1
86	86	4
153	153	1
142	143	1
56	64	1
113	132	3
54	54	3
105	113	1
114	114	1
57	57	4
27	27	1
139	139	6
130	134	2
88	88	5
20	21	1
37	37	2
141	142	2
23	31	1
122	122	2
29	30	5
115	121	1
101	101	1
11	12	2
100	105	1
13	41	1
75	78	2
128	128	1
33	34	1
135	138	1
106	111	1
49	49	4
144	144	2
16	17	1
94	94	1
4	38	1
74	74	4
17	17	4
10	10	5
66	73	1
113	115	1
14	14	1
93	100	1
97	99	1
23	40	1
39	45	1
48	48	1
67	67	1
4	4	6
38	71	1
54	55	2
94	95	1
31	31	1
106	108	2
50	56	1
85	86	1
53	54	1
18	49	1
21	43	1
127	137	1
38	38	2
12	12	3
147	149	1
24	31	1
94	104	1
111	111	1
46	109	1
17	24	1
28	38	1
149	149	2
95	101	2
25	38	1
107	112	1
140	142	1
139	145	1
138	149	2
40	41	1
3	6	1
139	140	4
139	142	2
68	68	2
141	144	1
8	8	5
25	31	1
56	63	1
140	144	1
133	133	3
103	105	1
75	79	1
119	122	1
85	112	1
109	117	2
30	32	1
104	110	1
32	32	2
66	66	4
95	98	1
137	147	1
83	85	2
107	107	3
79	79	2
74	90	2
126	126	1
96	114	1
84	85	1
97	101	1
19	26	1
65	66	1
10	13	1
2	31	1
62	68	1
64	115	1
76	76	2
63	64	1
108	108	5
108	114	1
98	126	1
70	70	2
128	132	1
48	51	1
64	78	1
6	8	1
4	29	1
112	113	1
15	41	1
75	84	1
6	7	3
108	110	1
30	30	2
129	130	2
123	124	1
81	82	1
106	106	1
82	92	1
27	46	1
87	114	1
17	51	1
30	41	1
72	82	1
117	126	1
101	116	1
29	35	1
42	55	1
75	76	1
121	128	1
19	21	1
3	9	1
96	96	2
72	73	1
107	114	1
13	17	1
32	36	1
87	121	1
147	148	1
18	19	3
33	51	1
20	26	1
78	78	2
111	127	1
80	83	1
98	100	1
55	55	1
104	105	1
117	122	1
51	110	1
17	18	1
3	3	1
24	24	2
90	115	1
117	117	2
19	37	1
123	132	1
88	94	3
20	29	1
91	91	2
127	128	1
83	87	1
105	139	1
142	145	1
63	63	1
21	30	1
68	69	1
73	78	1
131	132	1
94	106	1
88	93	1
102	107	1
107	108	2
69	69	1
63	70	1
122	128	1
15	21	1
31	33	2
144	147	1
93	94	1
111	112	1
74	84	1
66	121	1
7	15	1
113	113	1
108	109	1
17	20	1
127	146	1
8	28	1
135	145	1
47	77	1
99	123	1
7	7	2
17	38	1
5	7	1
56	77	1
84	87	1
93	97	1
62	82	1
19	50	1
42	43	1
38	43	2
62	76	1
9	9	1
13	15	1
19	25	1
102	104	1
51	53	1
104	126	2
132	133	1
134	140	1
67	80	1
106	132	1
121	151	1
110	111	1
101	148	2
38	40	1
137	138	1
111	115	1
69	154	1
111	114	1
51	76	1
51	52	1
30	31	1
136	136	1
122	141	1
29	36	1
34	34	1
133	148	1
50	122	1
73	86	1
129	132	1
39	47	1
26	29	1
34	41	1
55	62	1
131	137	1
102	103	1
100	135	1
21	23	1
83	104	1
25	39	1
31	35	1
