115	115	3
88	89	1
123	123	3
6	6	5
90	91	1
99	99	1
49	49	4
101	102	1
12	12	3
130	130	5
55	55	2
34	40	2
45	46	1
105	119	1
4	4	4
112	112	2
100	100	3
115	116	1
66	66	4
16	16	1
58	73	1
110	111	1
62	62	4
84	85	2
73	73	1
109	110	1
70	70	4
89	90	1
72	72	4
105	105	3
122	122	7
5	52	2
62	123	2
101	101	2
23	23	1
131	131	6
31	31	3
22	84	1
88	95	1
43	44	1
119	120	1
45	62	1
62	74	1
29	29	3
133	133	2
59	59	3
108	108	3
6	8	2
94	94	3
102	102	4
60	60	3
71	71	4
55	121	1
114	114	2
68	68	2
32	32	3
3	3	4
69	72	2
119	119	3
61	116	1
50	50	3
117	118	1
42	42	1
80	80	4
63	64	2
34	47	1
48	49	1
11	11	2
3	15	1
51	51	2
5	5	3
47	47	1
46	47	1
53	53	7
97	97	5
72	90	1
61	61	2
78	78	2
78	79	5
25	25	1
32	33	1
12	21	1
125	125	2
2	2	1
73	74	2
86	88	1
57	76	1
63	101	1
110	110	6
100	104	1
14	14	1
120	120	2
33	33	2
77	114	1
93	93	2
8	8	1
126	127	1
41	42	1
113	113	2
63	74	1
126	126	5
48	48	3
79	79	3
57	57	1
120	121	1
7	7	3
74	74	3
111	111	1
82	94	1
97	103	1
110	121	1
98	98	1
91	93	1
8	9	1
80	81	1
104	104	4
60	61	1
98	100	1
46	46	1
40	42	1
101	103	2
15	19	1
73	77	2
11	12	2
124	124	4
48	95	1
31	34	2
92	92	2
117	117	4
77	78	1
56	56	2
26	26	3
61	62	1
114	128	1
97	130	1
95	95	2
41	84	1
10	10	1
28	28	1
114	117	1
84	87	1
116	117	1
17	66	1
107	107	5
1	2	1
86	86	1
69	69	1
34	34	1
22	22	1
47	63	1
53	54	2
93	94	2
6	26	1
67	67	1
44	44	1
132	132	3
2	32	1
43	43	2
110	132	1
56	57	1
97	98	3
103	103	3
13	13	2
63	63	3
127	127	1
76	100	1
7	8	1
34	49	1
15	15	2
87	88	2
43	58	1
85	86	1
118	133	2
93	120	1
81	87	1
75	75	2
45	45	1
1	3	1
44	73	1
85	87	1
69	71	1
23	71	1
113	114	2
44	46	1
64	64	1
26	29	1
17	17	1
52	113	1
127	128	1
50	51	1
118	118	2
106	106	2
121	122	1
127	130	1
84	84	1
126	128	1
31	69	1
30	31	1
101	112	1
96	96	1
89	89	1
52	52	1
129	130	1
40	40	1
3	48	1
128	130	1
94	102	1
76	76	1
64	66	1
39	40	1
27	27	2
75	77	1
21	89	1
47	48	1
83	83	1
16	17	1
53	107	1
63	113	1
88	88	1
22	29	1
123	124	1
130	131	1
89	91	1
24	24	1
91	91	1
49	56	1
105	106	1
108	109	1
109	113	1
62	63	1
38	62	1
82	82	1
