79	80	3
74	74	7
172	174	1
40	40	2
175	175	6
161	161	5
33	33	6
144	145	4
140	140	3
86	86	5
25	25	5
144	144	3
18	19	1
165	166	2
19	19	2
229	229	5
51	51	4
11	12	1
22	22	4
190	191	2
123	201	1
61	61	3
179	185	1
10	178	1
154	155	3
184	184	4
108	108	3
9	9	8
159	160	2
203	204	1
12	37	1
42	42	4
50	50	3
136	136	5
163	179	2
159	159	2
103	103	4
120	120	1
180	181	2
189	209	1
145	146	1
100	174	1
107	134	1
25	26	3
43	43	6
20	60	1
233	234	2
7	7	4
57	69	1
80	82	1
51	52	1
56	57	2
103	105	1
191	192	2
67	68	3
202	231	1
142	142	5
24	26	1
178	179	1
20	20	4
238	238	6
85	85	4
32	48	2
30	31	1
239	239	2
135	136	1
75	109	1
135	141	2
5	6	3
6	7	1
58	175	1
186	186	5
53	59	2
36	36	4
197	197	4
70	70	8
101	101	3
38	86	1
47	47	4
64	68	1
34	34	4
167	167	1
14	119	1
39	39	3
114	114	5
159	161	1
175	176	2
136	137	1
141	141	2
128	128	5
157	157	2
181	181	4
16	16	4
158	158	7
5	34	1
68	69	1
172	172	6
26	26	5
121	121	3
193	194	2
129	129	2
2	2	3
97	97	5
8	40	1
146	146	1
150	151	1
209	209	4
81	82	4
69	69	6
12	12	5
150	150	6
122	126	2
20	39	1
237	237	2
106	106	5
64	64	8
171	172	1
88	88	5
179	179	3
111	112	1
65	66	2
29	29	4
48	48	5
27	27	7
164	164	1
163	163	3
127	127	4
44	44	4
176	216	1
46	46	3
143	143	2
199	199	3
174	174	5
146	161	1
74	80	2
184	202	1
28	28	4
17	17	1
76	76	6
142	148	1
112	112	1
102	102	4
200	200	1
45	45	5
242	242	2
151	164	2
148	154	1
168	168	4
8	23	1
215	215	3
149	149	3
123	123	3
148	148	4
147	147	1
46	55	1
28	29	2
170	170	7
230	230	1
197	198	1
96	96	2
167	168	4
109	109	3
14	14	1
37	108	1
49	49	3
122	122	3
68	68	9
84	85	2
136	178	2
139	159	2
161	162	2
24	24	4
23	23	4
9	24	1
192	192	2
191	191	3
83	83	1
210	214	2
204	206	2
4	4	4
7	16	2
146	149	1
177	188	1
60	63	1
18	168	1
76	77	3
75	75	3
177	178	1
71	71	2
62	63	3
183	187	1
116	128	1
117	129	2
118	118	4
234	234	2
29	64	1
50	51	1
169	199	1
66	67	1
8	9	3
189	228	1
35	36	1
224	224	3
227	227	3
163	197	2
37	38	4
155	156	2
3	176	3
118	153	1
196	196	2
115	237	1
104	104	1
139	143	1
193	195	2
174	175	1
117	125	2
176	176	3
217	217	3
49	52	1
54	54	1
153	153	3
136	174	1
73	73	3
188	208	1
113	172	1
38	102	1
192	196	2
13	15	3
126	126	2
130	175	1
113	113	9
37	37	3
56	56	4
160	160	4
202	202	1
4	7	1
195	214	1
139	158	1
21	23	1
62	62	6
32	33	2
166	167	2
52	53	2
228	229	1
113	114	1
8	8	2
169	201	1
57	58	1
31	32	1
139	140	1
29	30	2
160	174	1
158	159	1
102	103	1
74	86	2
223	223	3
1	1	2
46	47	2
165	181	1
18	18	3
32	32	2
63	63	4
71	100	1
0	0	8
15	15	2
130	130	2
210	221	1
31	31	5
173	177	2
201	203	1
80	80	5
138	138	2
196	197	1
128	207	1
162	162	1
184	186	2
173	173	8
3	5	1
215	216	2
170	172	1
5	7	2
11	11	6
154	154	3
169	169	4
241	241	3
9	10	1
187	187	1
59	59	2
149	151	1
89	89	1
7	21	3
182	182	3
222	223	2
177	177	3
65	68	1
63	142	1
178	178	5
224	225	1
65	65	3
123	182	1
83	108	1
81	84	1
171	171	2
30	35	1
34	36	3
175	179	1
236	236	6
59	60	5
180	184	1
72	85	2
143	147	2
78	79	1
109	111	1
72	72	2
58	83	1
59	82	1
53	53	3
207	219	1
209	210	2
149	174	1
21	21	3
107	117	1
125	125	2
155	155	6
85	220	1
55	58	1
20	23	1
47	72	1
107	123	1
180	180	3
81	83	1
99	99	2
105	108	1
89	95	1
105	106	1
186	187	1
188	188	2
3	3	1
163	164	2
173	176	1
29	37	1
169	170	3
154	157	1
175	187	1
170	171	2
137	199	1
60	60	2
40	49	2
131	132	1
119	119	4
119	128	1
218	218	2
179	180	2
212	213	1
13	17	1
173	174	3
166	166	5
162	164	1
95	96	1
72	73	1
183	188	1
150	168	2
6	6	2
13	13	4
139	139	3
33	88	1
140	141	1
164	165	3
48	63	1
154	156	1
62	76	1
180	205	1
198	198	1
1	2	2
55	62	2
223	224	1
182	196	1
181	191	1
159	171	1
33	122	1
199	208	1
11	106	1
225	225	2
225	226	1
18	36	1
134	134	2
203	203	1
76	163	1
12	15	1
20	21	1
164	176	1
82	82	2
185	185	4
44	69	1
224	231	1
84	84	2
208	210	2
68	103	1
55	201	1
156	157	1
58	58	2
4	21	1
182	183	2
17	37	1
38	38	2
156	156	2
232	232	1
39	42	1
116	116	4
114	115	1
218	233	1
219	219	1
33	36	1
222	224	1
134	139	1
85	96	1
39	57	1
102	105	1
198	219	2
9	223	2
124	125	1
13	14	1
124	124	1
23	151	1
36	38	1
84	147	1
47	61	1
152	152	2
128	129	1
50	52	1
76	79	2
183	183	1
105	105	4
107	107	2
117	118	1
154	158	1
123	124	2
107	154	1
15	113	1
216	218	1
211	211	1
49	50	2
19	20	2
10	10	4
123	170	1
0	1	1
112	236	1
121	137	1
48	64	1
4	6	2
133	201	1
142	143	1
117	117	2
191	217	1
103	176	1
205	205	1
99	172	1
63	227	1
31	52	1
119	120	1
57	57	1
141	143	2
105	107	1
206	233	1
169	203	1
38	75	1
208	208	2
18	20	1
121	122	1
220	220	2
21	22	1
188	226	1
151	151	2
69	235	1
201	232	1
233	233	1
45	46	1
70	95	1
12	17	2
190	190	2
133	134	1
35	35	1
130	166	1
12	162	1
227	228	1
19	21	1
64	232	1
69	70	1
58	59	1
211	212	2
232	233	1
55	55	2
231	231	1
150	165	1
77	78	1
143	153	1
46	48	1
163	165	1
11	15	1
36	53	1
86	171	1
152	153	1
8	96	1
20	152	1
148	149	1
195	195	2
89	240	1
168	169	1
57	82	1
16	39	1
214	223	1
61	231	1
226	226	1
39	101	1
109	179	1
171	174	1
10	218	1
204	204	2
125	127	1
165	165	2
151	156	1
189	189	3
228	228	1
139	144	1
160	162	1
126	169	1
236	238	2
40	125	1
201	201	1
81	103	1
137	140	1
214	214	1
235	235	2
165	179	1
143	166	1
191	203	1
125	126	1
71	111	1
137	137	1
212	212	1
120	170	1
78	78	1
12	20	1
196	220	1
117	119	1
151	153	1
47	48	1
184	185	1
96	235	1
68	78	1
78	133	1
129	176	1
80	81	1
122	129	1
114	119	1
52	56	1
181	182	1
104	138	1
124	126	1
11	46	1
26	102	1
14	19	1
25	31	1
4	19	1
74	85	1
77	77	1
67	67	2
1	16	1
68	196	1
194	194	1
224	234	1
164	205	1
75	173	1
120	178	1
191	194	1
31	51	1
47	54	1
82	83	1
16	23	1
17	24	1
5	5	1
107	108	1
166	188	1
206	206	1
130	131	1
131	133	1
102	129	1
3	24	1
135	135	1
201	202	1
