17	17	2
38	38	2
210	210	2
208	208	3
209	209	2
62	69	2
210	214	1
167	167	2
199	200	1
231	231	5
159	159	2
14	246	1
214	214	3
204	204	3
182	182	3
223	223	2
93	94	1
37	37	3
242	243	1
196	196	2
24	52	1
169	187	1
27	27	2
157	157	2
30	30	1
46	94	1
201	201	2
206	206	1
85	85	3
164	164	4
109	109	2
184	212	2
160	174	1
184	184	4
58	58	2
45	45	1
24	24	1
176	177	2
213	213	2
185	186	2
19	20	1
14	14	3
2	8	2
239	240	2
19	19	1
188	189	2
246	246	2
160	160	3
38	94	1
118	120	1
209	241	3
23	23	3
5	5	4
105	105	2
237	237	1
221	221	3
31	33	1
205	205	1
67	67	1
166	167	1
6	7	1
151	151	1
112	112	2
204	205	2
229	229	4
81	82	1
233	233	3
192	192	1
22	22	2
195	195	3
236	246	1
15	16	1
52	236	1
69	70	1
57	232	1
179	179	2
200	200	1
233	234	1
211	212	3
102	103	1
19	38	1
71	107	1
232	233	1
84	84	1
238	238	1
74	74	1
90	90	2
211	213	1
163	164	1
86	86	1
230	230	1
35	146	1
206	207	1
177	177	2
216	221	1
150	151	1
15	15	3
3	3	4
240	240	3
161	161	1
44	114	1
81	83	1
6	9	1
211	211	2
21	22	1
217	217	2
208	212	1
183	183	2
49	50	1
224	224	4
71	72	1
79	79	2
170	171	1
120	120	4
173	173	1
43	43	3
175	175	3
156	156	2
220	220	1
40	40	1
32	32	2
33	33	1
31	31	2
3	6	3
214	229	1
24	26	1
57	242	1
18	18	2
34	35	2
243	243	3
180	180	2
111	111	1
236	236	2
52	52	3
178	189	1
182	183	1
234	234	2
23	93	1
66	66	2
48	48	1
150	150	1
183	241	1
86	95	2
220	222	2
147	147	2
241	241	3
215	228	1
218	219	1
46	46	3
27	155	1
227	227	1
92	92	1
1	1	1
12	15	1
13	13	1
210	211	2
232	232	1
41	205	1
68	70	1
155	155	1
41	41	3
238	240	1
209	231	1
88	88	1
116	183	1
237	242	1
221	222	1
21	37	2
235	235	1
214	235	2
54	54	2
216	222	1
192	197	1
171	171	1
206	244	1
55	55	3
57	57	3
49	49	3
76	76	2
165	180	1
202	202	1
234	235	1
7	7	1
239	239	2
188	188	2
42	48	1
194	209	1
107	107	2
69	69	2
4	4	1
225	225	1
30	32	2
101	101	1
217	218	1
68	69	2
163	163	2
166	166	1
117	117	3
165	165	1
215	215	1
172	181	1
9	9	2
162	164	1
114	115	1
219	219	3
162	162	1
167	168	1
201	231	1
220	235	1
222	223	1
216	216	2
95	95	1
194	200	1
245	245	2
185	185	1
183	184	1
5	6	2
41	43	1
194	194	2
117	182	1
2	2	1
68	68	4
69	102	1
98	108	1
201	205	1
230	235	1
208	220	1
181	182	1
162	179	1
81	81	1
82	82	1
75	76	1
154	169	1
33	54	1
186	186	1
77	77	2
228	228	2
199	199	1
171	176	1
228	229	1
163	178	1
6	6	1
64	64	1
61	61	1
203	204	1
196	197	1
80	82	1
115	115	1
209	214	1
209	216	1
29	52	1
15	18	1
42	42	4
33	34	1
107	120	1
110	115	1
35	35	2
8	8	2
31	52	1
172	173	1
91	92	1
2	23	1
193	193	1
197	210	1
74	75	1
170	185	1
248	249	1
99	99	1
114	114	2
111	114	1
191	191	2
49	77	1
2	3	1
0	0	1
11	12	1
39	246	1
216	217	1
170	170	2
43	90	1
201	227	1
162	163	1
209	210	2
212	213	1
213	214	1
216	218	1
212	214	1
26	26	1
119	119	1
101	115	1
29	29	1
34	48	1
59	77	2
213	231	1
221	224	1
99	100	1
38	39	1
63	64	1
92	95	1
244	244	2
171	182	1
189	192	1
184	234	1
70	70	1
109	113	1
14	15	1
22	46	1
192	193	1
226	227	1
113	113	1
169	169	1
191	192	1
47	47	1
102	102	1
42	50	1
190	190	1
93	166	1
152	152	1
187	187	1
170	180	1
248	248	1
153	157	1
26	59	1
