31	75	1
74	74	10
40	56	1
68	68	7
7	7	15
1	14	1
56	56	10
42	48	2
45	45	7
9	9	4
34	34	6
72	72	6
49	49	5
48	48	5
5	7	2
59	60	2
35	38	1
41	41	12
61	61	7
70	70	4
59	59	3
73	73	11
33	47	1
71	71	3
38	38	8
52	53	7
75	78	2
19	20	1
17	17	3
42	42	9
67	70	3
58	72	1
50	52	2
69	69	7
76	76	5
40	40	10
5	5	5
28	28	4
27	27	15
79	79	5
73	74	3
51	51	3
53	55	1
77	77	13
48	51	1
31	32	1
61	62	2
60	74	1
49	54	1
31	31	10
53	54	6
37	38	5
73	75	2
47	47	4
46	46	8
66	67	4
3	4	3
55	55	10
8	8	9
11	11	5
27	28	1
39	40	1
37	37	11
36	36	2
14	14	3
1	1	4
12	21	1
21	21	4
54	55	2
70	71	3
57	57	6
78	78	9
50	50	6
12	12	4
39	46	1
62	62	3
60	61	1
68	69	1
41	42	2
75	76	2
65	66	2
6	6	11
80	80	4
78	80	4
3	3	8
2	2	2
60	60	6
39	39	2
39	62	1
75	75	8
4	4	7
67	68	2
36	37	2
65	65	6
35	35	6
42	43	3
54	66	1
50	51	1
29	29	6
64	64	3
57	63	1
0	3	1
16	16	5
29	31	1
57	58	1
54	54	6
49	53	1
4	5	1
40	68	2
20	20	2
13	13	5
53	53	4
33	33	5
43	43	5
9	10	2
26	26	5
52	52	6
40	44	1
38	39	3
32	33	3
1	2	1
25	27	1
15	15	3
25	53	1
32	32	6
37	41	1
67	67	5
10	10	4
26	27	1
49	63	1
55	74	1
30	30	5
25	25	2
2	5	1
10	11	3
13	14	1
6	7	1
15	41	1
25	26	1
57	71	1
38	62	1
54	70	1
61	66	1
13	58	1
35	36	1
56	57	3
26	73	1
2	3	2
66	66	3
67	69	1
10	16	1
58	59	1
33	34	1
47	71	1
62	63	1
38	40	1
55	56	1
74	75	1
12	13	1
21	22	1
63	63	3
59	73	1
47	56	1
28	47	1
49	50	1
42	45	2
29	30	2
34	45	1
58	58	2
27	60	1
44	44	1
18	18	1
0	1	1
53	56	1
25	75	1
66	73	1
11	21	1
29	78	1
19	19	1
14	15	1
67	78	1
43	56	1
70	72	1
69	70	2
27	76	1
45	51	1
41	48	1
32	35	1
49	68	1
63	64	2
49	52	1
46	47	1
66	72	1
16	18	1
51	52	1
57	78	1
27	65	1
64	65	1
56	66	1
71	72	1
61	74	1
