44	45	1
134	134	3
81	115	1
15	15	2
103	109	1
29	33	1
116	117	4
52	52	2
71	71	3
7	7	4
0	1	1
65	65	6
39	39	2
2	2	2
36	36	4
140	140	2
105	105	1
108	108	2
39	40	1
102	104	1
51	51	2
156	156	4
57	62	1
105	106	4
107	107	3
104	104	3
50	54	1
66	66	1
94	94	1
111	112	1
121	121	2
136	136	1
142	142	6
38	83	2
158	158	6
49	49	5
34	35	1
137	138	2
152	152	3
64	64	3
101	101	4
117	117	3
134	143	1
113	113	2
131	131	1
99	99	1
28	28	2
91	91	3
141	141	2
79	79	1
69	126	1
126	126	3
144	144	2
21	21	2
17	17	1
120	120	1
37	37	3
70	72	1
16	33	1
23	23	2
131	134	1
106	106	4
155	155	3
32	32	2
150	150	2
80	82	1
148	148	1
104	105	1
65	66	1
109	109	2
116	116	6
11	14	1
156	157	1
77	78	2
37	38	1
76	106	1
67	85	1
132	132	3
130	130	1
126	127	3
88	126	1
138	138	4
124	125	1
67	140	1
76	77	1
124	124	1
139	139	3
92	103	1
27	28	2
5	5	2
17	18	1
147	148	2
83	84	1
28	31	1
121	133	1
114	116	1
107	110	1
73	73	5
25	25	1
97	97	2
16	16	2
68	70	1
22	22	2
36	38	1
43	47	1
103	107	2
55	55	3
135	135	3
110	111	1
70	116	1
20	21	2
26	26	1
26	27	1
41	41	1
24	24	5
145	145	1
69	125	1
144	146	1
27	36	1
106	107	2
135	136	2
97	112	1
110	120	1
115	117	2
102	102	2
22	42	1
128	128	4
62	63	1
22	47	1
108	110	2
135	137	1
118	118	4
30	30	1
81	81	1
129	129	1
65	105	1
73	75	1
43	43	3
120	121	2
29	31	2
16	22	1
43	44	2
39	84	1
96	96	1
29	29	1
46	46	1
90	90	1
110	116	1
31	31	2
98	98	2
16	45	2
2	5	1
149	150	2
40	42	2
67	67	1
149	149	2
84	84	3
36	42	1
82	83	1
53	54	1
16	51	1
44	44	1
70	70	1
86	87	1
112	137	1
80	81	1
10	10	1
107	108	1
151	151	2
95	95	1
63	64	2
39	77	1
127	132	1
131	132	2
115	116	1
92	92	2
45	45	2
120	144	1
18	20	1
103	103	2
18	18	1
78	79	1
68	85	1
124	127	1
84	96	1
111	134	1
117	144	1
115	115	1
52	54	1
87	87	1
84	95	1
19	19	1
82	82	1
9	19	1
65	75	1
136	137	1
48	52	1
28	29	1
139	151	1
7	16	1
20	22	1
16	120	1
135	156	1
4	4	1
27	50	1
24	25	1
127	127	1
128	129	1
79	118	1
140	141	1
118	119	1
121	122	1
37	66	1
50	50	1
114	115	1
2	3	1
