119	119	5
108	109	1
142	142	10
123	123	7
105	105	6
76	77	4
38	72	2
112	112	5
36	36	7
94	95	3
61	62	1
88	90	1
72	73	3
22	22	14
145	145	6
64	64	3
137	137	8
56	57	4
34	34	5
140	140	8
34	35	3
104	119	1
59	60	1
82	83	1
63	63	4
25	37	1
133	133	4
38	38	7
13	48	1
75	75	5
41	41	4
106	106	11
117	117	11
27	27	8
130	130	5
20	20	11
48	48	8
94	108	1
53	53	3
114	114	1
57	57	5
56	56	8
61	98	1
78	80	2
117	119	1
40	41	2
116	139	1
50	66	2
61	61	8
58	58	6
33	33	6
88	88	4
110	113	1
109	109	4
143	143	6
138	138	7
96	97	5
129	130	3
9	9	5
86	91	1
54	54	2
77	78	2
23	23	5
71	72	1
76	84	2
101	102	1
37	37	9
1	1	11
100	100	4
94	94	7
29	30	2
98	98	9
2	2	11
118	139	2
97	98	2
91	91	7
132	132	8
57	91	1
29	29	15
62	62	7
17	18	2
54	55	4
66	95	3
42	42	11
104	120	1
10	10	8
115	115	4
0	0	6
73	73	3
92	93	1
57	65	1
55	55	7
72	72	5
58	59	3
1	2	2
118	118	5
39	40	1
76	76	3
128	128	9
47	48	1
77	77	3
140	141	5
78	78	7
130	131	2
36	43	2
1	10	3
92	92	7
102	103	3
74	74	3
17	17	10
110	110	4
5	5	6
104	104	8
82	86	1
131	132	4
38	100	1
122	122	5
31	31	4
39	39	2
96	96	7
87	87	4
89	90	1
114	135	1
67	68	2
60	60	2
79	82	1
104	105	6
62	81	1
50	51	3
32	33	2
95	95	5
59	59	3
110	115	1
104	109	1
29	41	1
16	17	1
51	72	1
4	4	7
99	99	3
2	67	2
68	68	5
124	124	5
115	132	1
80	110	2
126	134	2
6	18	1
30	31	1
102	102	6
99	100	1
103	103	5
89	89	7
42	43	4
8	8	8
131	136	1
3	16	1
117	118	1
101	101	7
47	50	1
136	137	2
27	142	1
135	135	9
18	18	2
83	84	2
128	129	3
29	40	2
51	51	3
108	108	3
121	121	4
93	93	8
125	125	6
71	73	2
25	25	9
12	36	1
32	32	6
141	141	7
121	124	1
131	140	1
85	85	3
66	67	2
16	16	3
107	108	3
38	41	3
59	107	1
14	14	5
59	124	1
80	80	5
23	81	1
66	103	2
28	28	3
116	135	1
33	39	1
26	26	3
124	125	2
131	131	7
80	81	1
23	25	1
109	110	1
26	55	1
31	32	1
110	121	2
3	3	5
98	142	1
13	16	1
91	94	3
21	98	1
6	6	5
21	21	6
24	24	4
100	106	1
88	89	2
66	66	7
4	6	1
113	114	1
2	3	2
141	142	1
11	11	7
71	71	3
107	107	6
115	118	1
119	139	1
52	65	1
129	129	8
124	126	2
139	139	2
5	19	1
103	106	1
28	29	1
107	110	1
113	113	2
59	62	2
55	59	1
106	128	1
95	96	1
73	82	1
63	65	1
83	83	1
84	85	2
64	70	1
144	144	3
55	98	1
13	13	2
50	50	3
37	38	3
125	126	2
144	146	1
20	21	1
87	89	1
117	134	1
69	91	4
64	65	1
62	63	2
70	96	1
17	23	1
68	120	1
95	97	1
111	114	1
49	49	4
21	27	2
31	33	1
105	106	1
64	66	2
98	99	2
115	116	4
82	82	2
33	37	1
39	59	1
118	135	1
23	27	1
126	127	1
79	80	3
52	52	4
137	139	3
136	139	3
0	1	1
97	97	5
66	85	1
91	103	2
88	127	1
136	136	2
15	15	7
131	134	1
134	134	2
65	65	2
99	103	2
82	112	1
33	49	1
22	23	2
87	88	2
17	37	1
126	126	3
85	107	1
23	40	1
145	146	2
35	36	2
33	35	2
118	120	1
57	129	1
127	127	3
59	61	1
99	124	2
126	142	1
106	146	1
81	81	2
35	35	3
59	63	3
40	40	4
4	5	3
105	117	2
22	144	1
142	143	4
66	102	1
111	116	2
51	52	1
69	69	6
114	118	1
133	136	1
66	68	1
124	130	2
56	79	1
127	128	1
30	95	1
90	90	3
108	112	1
96	102	1
27	97	1
68	104	1
55	78	1
74	95	1
30	30	2
87	91	1
66	87	1
47	80	2
103	128	1
67	67	6
58	81	3
134	135	2
61	93	1
19	19	2
129	133	1
50	60	2
123	142	1
68	69	1
102	125	1
82	88	1
114	127	1
0	2	1
71	80	1
51	70	1
55	56	2
55	76	1
15	16	2
110	111	1
120	120	1
18	19	2
35	37	1
54	66	1
64	77	1
26	38	1
12	12	1
62	64	1
12	57	1
111	112	2
48	49	2
27	28	1
15	34	1
2	27	2
136	138	1
70	70	2
61	116	1
53	101	1
8	9	1
105	112	1
65	89	1
70	72	1
65	66	1
118	128	1
69	70	1
76	88	1
28	48	1
101	142	2
111	113	1
22	98	1
47	47	5
13	70	1
73	93	1
90	104	1
84	84	2
26	27	1
3	25	2
53	83	1
53	55	1
53	54	1
90	132	1
86	86	3
76	78	1
13	14	1
81	113	1
28	67	1
74	75	3
23	41	1
86	87	1
115	120	3
144	145	1
74	124	1
103	107	1
6	37	1
21	97	1
138	139	2
123	125	1
61	64	1
21	22	1
24	25	1
79	79	1
61	74	1
116	116	1
70	71	1
118	141	1
57	61	1
11	20	1
13	15	1
49	53	1
128	130	1
87	92	1
20	77	1
82	104	1
88	123	1
17	34	1
38	48	1
0	19	1
125	131	1
62	89	1
75	76	1
74	80	1
3	24	1
12	13	2
2	6	1
52	64	1
4	40	1
50	52	1
23	82	1
123	124	1
121	134	1
118	119	1
74	119	1
93	94	1
127	142	1
15	33	1
104	112	1
65	71	1
