161	161	3
86	86	1
16	17	2
116	144	1
113	113	1
77	77	1
166	167	2
65	65	1
162	162	3
102	112	1
144	147	1
136	140	3
136	143	1
111	111	1
84	85	3
45	45	2
168	168	3
39	39	2
9	9	1
149	150	1
10	11	1
67	67	2
157	157	2
12	50	1
85	85	1
38	39	1
50	50	2
14	24	1
47	85	1
158	158	2
134	134	2
57	141	1
79	79	2
140	142	1
49	49	3
120	121	1
165	165	1
156	156	2
141	141	2
150	150	3
144	145	1
120	120	2
98	98	1
109	109	1
136	167	1
16	16	1
131	131	1
2	2	1
120	122	1
47	52	1
49	51	1
142	142	3
121	121	1
6	13	2
97	97	2
90	97	1
57	64	1
11	13	2
122	145	2
119	119	2
170	170	4
110	110	1
148	148	2
132	132	2
37	108	2
74	75	2
17	38	1
48	49	2
108	111	1
95	99	1
142	144	1
155	156	2
62	62	4
123	125	1
117	117	3
151	151	4
56	56	2
34	34	1
91	99	1
41	41	2
115	142	2
33	33	1
88	88	2
113	118	2
107	110	1
137	137	3
35	35	5
114	115	4
87	87	1
4	4	5
144	144	1
13	13	4
135	135	3
64	64	2
21	21	3
117	123	1
2	158	2
114	116	1
107	107	2
117	119	1
10	10	6
166	166	5
160	167	2
130	130	1
132	151	1
37	37	1
1	2	2
19	19	5
47	48	1
20	20	2
169	169	4
46	46	2
38	38	1
152	156	1
26	26	1
139	139	2
93	93	2
46	47	1
78	78	1
152	154	1
83	83	2
167	168	1
163	163	1
130	131	1
27	28	1
102	114	1
143	143	4
7	7	1
95	95	1
46	118	3
164	165	2
72	72	1
10	13	1
140	140	1
106	106	1
22	22	3
164	166	1
136	137	1
28	28	2
149	149	1
18	56	1
63	63	1
160	168	1
18	18	1
54	54	1
119	120	1
11	12	2
97	98	1
17	17	2
126	126	1
102	102	1
70	77	1
74	76	1
65	66	1
155	161	1
122	122	2
153	154	1
81	81	2
65	141	1
138	138	1
87	97	1
39	40	3
91	91	1
56	76	1
116	116	2
35	36	3
86	87	1
88	89	1
45	138	1
152	152	4
110	136	1
94	94	2
12	13	2
47	47	1
136	136	2
42	42	2
101	101	1
155	157	1
139	149	1
128	128	1
122	124	1
77	78	1
129	129	1
55	55	1
87	88	1
152	155	1
6	6	1
5	5	1
52	52	3
114	114	2
103	103	1
155	155	2
74	77	1
10	12	1
158	159	2
148	149	1
15	15	1
159	159	3
112	142	1
75	76	1
125	137	1
113	115	1
140	141	1
126	127	1
44	44	2
26	28	1
159	169	1
125	125	1
118	118	2
42	43	2
3	3	2
84	84	2
101	105	1
134	147	1
23	23	1
132	142	2
46	165	1
106	107	1
41	42	1
125	126	1
90	90	1
50	51	1
0	1	1
146	146	1
147	147	1
73	74	1
122	123	1
22	50	1
85	87	1
80	82	1
153	153	1
73	73	1
40	40	1
27	27	1
21	24	1
57	58	1
45	49	1
27	34	1
167	167	1
91	94	1
36	36	1
130	158	1
