11	11	3
1	2	1
148	148	4
140	140	5
95	95	2
7	11	1
131	131	2
1	3	2
15	16	1
83	84	1
146	147	1
90	90	2
71	72	1
162	162	4
18	18	2
36	36	7
92	93	1
14	14	4
15	52	2
110	133	1
105	106	1
67	67	4
111	136	1
40	40	2
105	157	1
49	50	1
17	18	2
45	45	7
43	43	5
64	64	1
121	121	2
155	158	3
139	141	1
105	105	2
38	108	3
76	114	1
6	6	2
27	27	4
169	169	3
56	56	2
151	151	4
110	110	4
157	158	1
170	170	4
155	156	2
89	90	1
153	153	1
160	160	4
111	111	4
5	5	2
21	77	1
15	68	1
135	135	4
94	94	2
7	135	3
90	160	2
140	141	2
0	0	1
68	74	1
58	76	1
138	139	3
135	136	3
50	69	1
13	14	2
145	146	3
117	117	2
116	116	2
114	114	1
80	80	2
70	70	3
157	157	3
38	38	5
3	14	1
46	46	1
12	12	6
152	154	2
73	119	1
161	161	1
143	143	2
18	19	1
149	149	1
91	95	1
112	157	1
34	34	3
42	42	3
55	94	1
121	122	2
63	63	2
39	46	1
85	85	1
123	124	1
16	16	4
24	24	2
120	121	1
52	56	1
21	21	1
48	48	4
26	27	1
3	3	2
146	146	3
81	82	2
81	102	1
136	136	1
1	119	1
139	148	1
130	131	1
158	158	2
20	20	3
23	23	2
69	69	1
113	113	2
37	42	2
22	24	1
52	52	3
4	4	5
152	152	2
166	166	4
34	35	1
133	133	2
155	163	2
2	2	3
28	28	1
112	112	2
139	139	3
138	138	2
77	80	1
86	87	1
25	25	1
93	94	1
89	111	1
100	100	3
13	13	2
127	131	1
24	152	1
126	128	1
167	167	2
126	126	2
39	40	2
147	147	4
56	150	1
122	122	1
84	84	1
1	1	3
124	124	1
140	143	1
83	83	2
144	152	1
130	130	3
82	83	1
157	170	1
21	22	1
109	109	4
123	123	1
117	124	2
35	35	3
1	4	2
142	142	2
71	73	1
122	151	1
19	19	2
134	149	1
107	107	1
132	132	2
87	87	2
108	109	1
55	55	2
22	23	1
162	166	1
166	167	1
143	144	1
133	134	1
117	156	1
73	73	2
10	14	2
57	62	1
115	116	2
26	26	3
120	120	2
82	105	2
141	141	1
40	42	2
49	49	2
161	162	2
145	147	1
139	149	1
144	144	2
137	137	1
10	88	2
51	51	2
106	106	2
99	99	1
129	129	2
106	137	1
7	15	1
162	164	1
109	110	1
102	103	1
50	51	1
67	72	1
37	37	4
44	44	1
125	126	1
17	17	1
56	71	1
14	159	1
44	47	1
86	89	1
103	103	1
154	154	2
97	97	2
41	41	1
68	71	2
136	137	1
143	146	1
156	156	1
119	148	1
7	7	2
22	22	2
55	81	1
50	50	1
88	88	2
100	136	1
139	142	1
100	104	1
151	152	1
8	8	1
42	43	1
20	21	1
86	86	2
3	36	1
105	111	1
84	85	1
165	165	1
53	56	1
81	81	2
4	5	1
153	155	1
99	132	1
124	125	1
74	126	1
53	53	2
76	76	1
163	163	2
15	26	1
54	57	1
124	133	1
8	9	1
110	111	2
50	52	1
147	149	1
168	168	3
83	86	1
157	159	1
109	135	1
19	23	1
17	99	1
44	46	1
19	21	1
131	162	1
98	98	1
82	88	1
0	10	1
12	13	2
33	33	1
104	104	1
72	72	1
47	48	1
51	84	1
47	47	1
21	80	1
68	68	1
79	86	1
39	39	1
52	53	1
10	20	1
168	169	1
18	46	1
69	70	1
147	148	1
164	165	1
66	66	1
115	126	1
5	6	1
43	44	1
57	57	1
0	1	1
99	103	1
26	43	1
151	163	1
47	66	1
