104	124	1
128	130	1
33	35	2
127	127	6
50	51	1
48	67	1
5	5	3
42	43	1
26	26	5
12	12	1
131	131	1
21	21	1
135	135	3
73	75	1
142	142	1
0	0	1
117	117	2
48	51	1
76	77	2
91	91	1
11	11	1
62	63	1
14	14	1
20	20	1
96	96	3
98	98	1
50	50	2
6	26	1
58	102	1
93	94	1
120	121	1
53	53	1
55	55	1
71	72	1
101	101	1
64	64	1
127	130	1
85	85	1
137	139	1
83	84	1
42	53	1
134	134	3
129	130	1
22	22	3
10	10	3
136	136	3
95	96	1
34	34	3
24	34	1
141	141	1
82	82	1
12	25	1
103	103	1
132	132	2
115	115	3
124	124	4
32	36	1
69	69	3
87	88	1
108	108	2
87	111	1
98	100	1
19	20	1
36	37	2
88	90	1
67	68	1
144	144	2
113	113	3
118	132	1
31	55	1
38	40	1
22	23	1
84	118	1
132	133	2
38	38	1
35	35	2
126	126	1
49	49	1
121	121	1
74	91	2
19	19	3
40	40	2
1	2	2
73	73	2
53	54	2
23	24	1
70	72	1
100	100	2
57	58	2
65	66	1
116	116	1
111	111	1
36	36	1
129	129	2
8	9	1
38	39	1
18	37	1
34	36	1
42	42	1
104	105	1
87	87	1
113	128	1
35	36	3
15	37	1
92	92	3
37	37	1
21	26	2
28	28	3
58	58	1
52	56	1
77	78	1
82	96	2
30	32	1
63	69	2
138	139	1
134	141	1
25	70	1
82	92	1
56	56	1
47	47	2
31	33	1
68	68	1
40	55	1
66	68	1
64	82	1
39	39	2
32	34	1
16	16	1
14	17	2
119	119	3
115	120	1
106	137	1
54	82	1
72	72	3
61	61	2
62	62	1
47	52	1
31	37	1
79	80	2
34	35	1
137	138	1
110	111	1
32	55	1
39	53	2
101	127	1
120	120	1
96	98	1
140	140	1
95	95	1
81	105	1
90	117	1
109	109	1
105	105	2
139	140	1
24	47	1
106	120	1
106	125	1
81	87	1
19	25	1
133	134	1
24	35	1
81	81	1
93	93	1
80	81	2
4	4	2
110	114	1
78	79	1
59	89	1
70	129	1
24	24	1
33	33	1
118	122	1
51	52	1
110	110	1
54	54	1
56	58	1
51	63	1
4	33	1
139	141	1
98	99	2
144	145	1
