100	103	1
87	91	2
26	26	2
2	2	4
122	134	1
5	5	5
102	102	1
14	14	3
22	22	4
158	158	2
53	53	1
29	29	5
134	134	3
58	58	1
138	145	1
23	23	2
106	106	6
76	76	3
159	187	1
142	143	3
9	10	2
60	61	2
47	58	1
19	20	4
95	96	1
35	37	2
99	99	2
29	31	1
153	153	1
55	57	1
135	135	2
140	140	1
79	79	3
158	176	1
151	151	2
77	81	1
41	41	3
174	175	3
132	132	1
96	111	1
13	31	2
143	143	5
115	116	1
105	105	4
68	99	1
157	157	5
62	63	2
170	170	7
72	72	5
72	73	3
139	139	4
12	21	1
85	85	3
157	176	2
164	164	3
19	21	1
36	36	4
180	180	3
83	83	2
155	157	1
166	168	1
124	127	1
54	54	6
118	118	2
138	138	1
20	26	1
147	148	2
120	120	3
75	76	1
137	138	3
173	173	5
146	146	5
95	95	2
60	65	1
150	150	2
68	68	3
187	188	1
64	108	1
177	183	1
145	145	1
138	152	1
22	28	1
80	80	1
178	180	1
96	107	1
167	167	2
77	77	2
48	49	2
90	90	1
176	177	2
45	46	3
166	166	1
74	75	2
138	139	2
108	108	3
72	119	2
107	118	1
175	175	2
78	78	5
129	129	4
179	182	1
27	27	6
8	8	4
4	5	1
44	46	2
115	115	2
189	190	1
72	75	1
2	3	1
154	155	2
181	190	1
110	110	4
57	57	8
162	162	1
173	174	1
74	113	1
60	70	1
180	182	1
186	186	4
130	132	1
3	3	6
167	168	4
187	189	2
36	37	2
116	116	3
98	101	1
126	126	1
53	54	1
135	136	2
136	139	1
93	93	3
141	175	1
20	21	3
24	24	1
82	82	4
131	131	5
101	101	1
31	31	1
77	78	2
124	124	3
152	152	3
22	24	3
145	146	1
21	22	1
95	99	2
93	94	3
107	110	1
110	111	1
12	23	1
16	17	1
38	38	2
172	172	3
21	32	1
127	128	1
133	134	1
113	113	1
89	89	1
49	127	1
25	25	4
184	185	2
187	187	3
121	122	3
109	111	1
114	115	2
116	117	1
6	6	2
119	156	1
118	119	4
81	81	3
178	183	2
139	170	1
108	152	1
98	98	4
85	109	2
47	48	1
125	125	5
49	89	1
62	62	2
127	147	2
59	67	1
119	119	1
91	91	3
186	187	3
185	185	1
103	103	2
144	171	1
142	155	1
181	181	2
107	154	1
97	97	3
75	75	3
18	18	1
171	172	2
1	2	2
169	169	4
4	4	7
177	177	2
164	165	3
42	42	2
169	170	2
43	43	1
0	0	2
97	98	1
176	176	2
135	141	2
93	95	1
9	9	1
125	127	1
16	16	1
109	109	3
11	11	2
61	62	1
151	184	1
12	14	1
82	83	2
82	85	1
26	28	1
148	150	2
59	59	1
91	94	1
171	171	4
18	19	1
104	113	1
109	175	2
117	117	2
30	90	1
67	68	1
16	27	1
79	80	1
64	65	1
116	118	1
149	149	3
103	104	2
123	123	2
183	184	2
152	169	2
13	13	1
156	157	1
86	86	3
115	129	1
109	110	1
165	165	2
178	178	2
52	52	3
101	102	2
122	130	1
117	119	1
87	151	1
38	87	2
54	74	1
182	182	4
82	87	2
180	188	2
153	174	1
55	55	3
90	96	2
29	36	1
20	34	1
37	46	1
154	154	2
7	7	2
112	112	2
108	109	1
137	137	1
158	177	1
25	38	1
39	39	2
141	172	1
96	96	4
120	166	1
17	17	1
122	135	1
118	148	1
136	136	2
141	141	1
27	88	1
62	66	2
57	60	1
122	123	2
168	177	1
70	70	1
19	19	1
171	173	1
190	190	1
74	74	1
89	130	1
119	120	1
6	106	1
37	37	1
142	142	2
160	160	1
151	154	2
14	22	1
72	88	1
32	33	2
128	129	1
25	41	1
144	144	3
96	97	2
28	29	1
79	81	1
60	109	1
133	133	1
104	104	1
29	30	1
159	166	1
174	186	2
179	179	2
33	34	1
2	74	1
144	147	1
84	87	1
37	189	1
155	155	1
125	171	1
184	184	1
178	190	1
107	108	1
112	113	1
26	48	1
20	20	1
22	34	1
123	134	1
65	65	1
100	100	2
14	15	1
165	169	1
129	151	1
35	36	2
27	34	1
100	148	1
73	73	2
88	89	2
10	13	1
83	84	1
40	41	1
38	39	2
143	145	1
103	152	1
28	30	1
124	148	1
118	171	1
17	31	1
136	137	1
76	77	1
162	163	1
22	46	1
69	70	1
160	178	1
41	48	1
155	187	1
134	135	1
100	157	1
71	71	2
133	168	2
177	182	1
48	48	1
84	84	1
31	35	1
114	114	3
126	128	1
174	174	2
73	79	1
0	10	1
67	67	1
156	156	2
2	4	2
105	112	1
22	23	1
182	183	1
28	34	1
130	130	2
42	46	1
122	161	1
129	144	1
65	66	1
120	139	1
131	135	1
183	185	1
10	12	1
25	26	1
54	56	1
131	133	1
104	105	1
28	28	1
183	183	1
169	171	1
115	117	1
177	178	1
12	12	1
92	94	1
102	115	1
96	152	1
94	94	1
30	93	1
87	88	1
56	56	1
175	177	1
55	56	1
18	47	1
11	22	1
