136	158	2
161	161	1
178	178	6
220	224	2
164	164	4
175	175	3
231	231	1
114	122	1
5	6	1
47	47	7
182	182	3
105	105	2
172	172	5
24	24	6
114	130	1
106	106	2
97	97	3
184	217	1
59	59	5
134	135	2
171	176	1
179	179	2
166	167	2
166	169	1
153	153	5
160	160	7
108	109	3
45	45	2
102	102	4
120	120	3
180	180	3
123	124	5
222	222	4
166	183	1
170	170	6
82	84	3
123	123	1
147	155	3
60	60	2
214	214	3
85	85	8
40	57	1
129	144	2
242	242	1
134	134	3
135	135	6
85	98	1
167	180	2
7	7	3
68	69	2
125	127	2
156	156	3
117	162	1
190	190	2
158	159	1
5	5	2
155	155	6
74	74	9
151	151	3
50	95	1
73	74	1
121	121	4
149	149	6
59	61	1
156	157	2
141	142	2
129	129	2
29	29	6
30	75	1
157	157	2
168	168	8
52	52	1
144	144	2
136	190	1
185	185	2
157	158	2
195	229	1
202	202	3
77	77	5
139	140	1
161	162	5
22	23	2
125	125	4
68	122	1
27	28	2
211	214	2
156	166	1
20	20	3
188	188	4
171	172	2
63	63	3
18	18	2
200	201	3
70	70	4
240	240	2
44	44	3
10	10	4
65	85	1
201	201	2
64	64	3
160	177	2
117	117	2
200	200	2
70	74	1
44	45	5
177	177	3
4	4	1
35	35	7
136	136	6
165	165	6
5	7	1
115	116	1
11	11	4
218	218	3
12	12	2
178	188	1
83	83	3
177	178	4
80	84	1
213	213	1
37	37	3
104	104	1
46	86	1
123	136	1
187	187	2
51	95	1
167	169	1
218	221	1
148	148	1
18	19	4
39	39	6
163	164	2
46	62	1
38	44	3
54	54	3
150	150	1
69	69	6
34	34	2
212	212	2
76	77	1
188	189	2
208	208	2
38	39	1
98	100	1
72	72	2
119	119	3
27	27	4
174	174	5
66	66	4
227	227	4
66	68	1
52	54	2
61	61	5
133	157	1
62	104	1
135	137	1
39	43	1
55	55	4
112	112	2
34	35	1
145	146	3
219	219	3
32	32	4
17	17	5
184	184	3
138	139	2
69	74	1
209	209	1
154	161	2
78	78	4
71	71	3
58	58	3
170	190	1
83	84	2
124	124	5
137	137	3
167	168	2
164	165	1
31	189	1
62	62	3
28	28	8
88	88	4
181	181	5
158	158	2
241	241	1
169	169	8
27	205	1
163	166	2
66	80	1
163	163	6
84	88	2
104	105	1
169	170	1
97	101	1
154	154	2
138	138	4
3	24	1
98	99	1
241	242	1
186	187	1
81	83	1
126	126	1
29	31	1
33	34	1
136	176	1
40	40	5
107	107	6
13	33	3
223	224	1
39	40	2
79	79	1
140	141	1
137	160	1
53	53	9
149	150	3
175	176	1
37	211	2
2	2	2
46	46	3
208	231	1
8	8	2
96	121	1
65	68	1
163	184	1
29	30	1
77	79	1
160	163	2
38	38	2
194	194	1
39	74	1
198	203	1
28	62	1
216	217	1
173	178	2
32	33	4
210	213	1
158	174	4
43	43	1
239	239	3
44	88	1
57	186	1
145	147	1
36	36	4
56	56	2
136	137	1
6	6	5
199	199	1
139	142	1
129	131	1
167	167	4
159	159	7
71	218	1
217	223	1
217	218	3
189	189	2
75	75	2
28	70	1
48	49	2
187	188	1
45	46	1
109	111	1
208	216	1
150	162	2
105	106	1
181	182	1
13	13	1
186	186	3
152	152	2
164	185	2
58	64	1
76	79	1
176	176	2
28	29	1
70	71	1
217	217	2
23	25	1
72	241	1
160	166	1
139	139	2
0	1	1
144	145	1
200	217	1
54	65	1
135	158	1
0	10	1
180	181	3
100	100	1
106	109	2
143	143	3
141	141	1
61	62	1
102	105	3
131	131	2
132	132	2
16	17	1
173	173	3
136	138	2
23	40	1
12	15	1
95	95	3
207	207	2
145	145	6
73	99	2
207	208	1
68	68	3
50	52	1
15	220	1
106	107	1
32	44	2
133	133	2
203	217	1
47	85	1
159	173	1
73	73	5
108	142	1
178	180	1
107	149	1
3	6	1
72	170	1
82	83	2
98	98	2
158	163	1
142	142	2
65	65	2
216	218	1
21	21	2
166	166	2
187	197	1
71	72	1
91	91	1
162	177	2
67	68	1
101	144	1
163	181	1
17	36	1
14	223	1
6	7	1
146	146	2
239	240	1
127	127	3
170	171	2
62	65	1
50	51	2
86	86	2
25	25	4
238	238	6
171	179	1
140	140	1
237	237	4
19	19	4
173	174	2
77	78	1
22	22	2
12	17	1
11	46	1
147	147	3
199	214	1
55	70	1
158	187	1
132	134	1
236	236	2
50	50	1
16	16	2
126	134	1
188	190	1
68	158	1
108	152	1
96	96	1
172	173	2
51	51	1
122	122	4
64	65	1
19	34	1
63	65	3
233	234	2
144	165	1
177	179	2
33	33	2
48	85	1
164	186	1
214	215	1
71	221	1
118	118	1
113	113	3
218	219	1
225	225	2
76	82	1
42	42	2
109	110	1
178	179	2
205	205	1
233	239	1
67	67	1
96	101	1
207	225	1
69	70	4
39	69	1
79	81	1
55	58	1
220	221	1
229	229	1
137	148	1
159	164	1
44	105	1
226	231	1
15	17	1
137	138	1
107	108	1
34	78	1
151	182	1
52	53	2
154	155	1
39	58	1
0	0	1
2	4	1
55	112	1
23	23	2
51	52	1
206	209	1
154	181	1
98	129	1
41	41	1
192	192	1
17	18	1
192	195	1
221	221	1
49	49	1
81	85	1
49	51	1
84	84	3
79	82	1
23	24	1
204	204	3
26	26	2
15	16	1
13	15	2
68	88	2
62	63	1
0	20	1
116	116	1
38	43	1
142	143	1
194	197	1
103	105	1
16	42	1
206	206	1
198	198	1
140	176	1
196	197	1
25	46	1
127	128	1
47	99	1
238	240	1
110	125	1
15	20	1
181	185	1
40	56	1
13	14	1
224	224	1
128	128	1
9	10	1
143	144	2
209	214	1
120	122	1
184	185	1
163	165	2
58	65	1
103	115	1
133	162	1
159	160	1
167	181	1
146	147	1
72	103	1
31	31	2
31	69	1
80	80	2
197	197	3
37	38	1
185	210	1
123	126	1
175	236	1
66	67	1
4	6	1
101	101	3
14	14	2
57	57	2
9	207	1
41	42	1
206	207	2
35	237	1
111	129	1
233	233	1
71	220	1
204	206	2
60	66	1
81	81	1
58	60	1
236	237	1
167	184	1
234	234	1
26	99	1
15	15	1
1	3	1
31	63	2
175	177	1
20	83	1
122	123	1
30	30	1
78	79	1
48	48	3
171	171	1
182	183	1
226	226	1
154	157	1
11	12	1
73	198	1
119	120	1
72	73	1
63	64	1
191	218	1
220	220	1
3	3	1
210	210	1
112	119	1
4	5	1
114	114	1
86	97	1
217	241	1
14	15	1
7	8	1
136	162	1
210	227	1
179	180	1
191	195	1
200	230	1
176	177	1
116	117	1
152	158	1
