68	68	10
81	81	7
92	94	1
41	44	5
20	26	1
76	77	5
40	40	7
60	60	6
39	57	1
97	97	6
63	63	6
83	89	2
86	88	6
61	80	1
95	97	1
67	67	14
73	73	6
79	79	9
54	54	3
59	59	8
50	55	1
29	29	7
45	47	1
52	56	1
57	58	1
95	96	6
100	100	3
77	77	3
35	48	3
33	33	5
59	61	1
56	56	6
87	88	4
53	53	4
95	95	7
48	48	6
78	78	4
75	90	1
43	43	8
37	37	2
83	83	4
73	74	1
52	77	1
101	101	4
30	30	3
85	85	6
90	90	7
71	71	7
51	51	8
91	92	6
76	76	7
88	98	2
57	57	6
69	69	2
27	27	9
31	31	8
95	98	2
60	73	2
65	65	3
92	92	9
45	45	6
33	70	1
46	46	8
37	39	1
96	96	9
93	99	1
80	81	1
66	68	1
89	89	12
98	98	8
92	93	4
22	22	3
64	64	8
67	68	1
39	40	1
93	93	5
42	69	2
100	101	1
44	44	7
93	100	1
66	75	2
70	72	1
84	91	1
76	80	2
66	66	9
92	98	2
28	28	2
95	102	1
34	34	5
41	42	3
34	35	2
38	38	4
53	54	3
44	45	2
41	64	3
33	34	1
36	91	1
86	98	1
70	73	2
61	61	8
72	73	3
93	96	4
34	67	1
99	99	3
23	23	1
36	36	2
102	102	2
82	82	2
37	43	1
94	94	8
74	74	10
39	79	1
81	89	1
99	100	4
26	26	6
39	39	2
70	70	8
58	58	4
75	75	5
34	50	1
80	80	6
91	91	7
62	62	4
35	36	4
32	32	1
50	50	7
67	81	1
41	43	1
46	48	5
35	39	1
87	87	4
64	65	2
79	80	1
86	86	2
90	91	1
36	37	2
61	62	1
67	85	1
84	84	3
48	50	1
90	101	2
85	89	2
42	66	1
51	80	1
90	92	1
35	35	3
89	92	1
42	42	5
36	40	1
72	72	4
28	29	1
41	41	4
56	57	2
93	95	3
20	71	1
68	70	1
83	84	2
23	69	1
93	94	5
88	88	3
27	28	3
49	52	1
65	66	3
69	72	1
22	24	1
55	55	5
22	84	1
35	38	2
74	75	1
22	70	1
86	101	1
49	50	1
25	29	1
68	74	1
24	24	3
34	71	1
85	86	3
85	101	1
66	67	2
46	50	1
53	55	2
88	89	2
73	75	2
69	71	1
59	64	1
59	60	2
59	89	1
67	82	2
61	88	1
70	71	1
26	55	1
67	69	1
57	77	1
31	39	1
66	69	1
24	25	1
78	84	1
81	82	1
29	30	1
68	69	3
60	81	1
39	53	1
22	55	1
72	96	1
71	98	1
25	25	2
50	52	1
67	77	2
87	92	1
25	26	1
44	63	1
40	41	1
71	72	1
35	37	1
63	80	1
31	32	1
69	89	1
39	52	2
65	77	1
45	96	1
71	95	1
52	52	2
25	27	1
57	62	1
33	36	1
41	90	1
40	42	1
58	60	1
41	66	1
64	74	1
85	99	1
22	26	1
22	23	1
51	93	1
97	98	1
45	48	1
51	52	1
82	83	1
81	83	1
47	52	1
44	51	1
35	88	1
91	97	1
56	58	1
101	102	1
49	49	1
35	52	1
