199	199	2
106	106	2
70	74	1
11	28	1
223	223	3
82	93	2
208	220	1
24	24	3
54	55	1
85	85	2
164	175	1
197	208	1
204	224	1
103	112	1
165	174	1
187	187	2
47	55	2
10	10	3
51	57	4
116	117	3
216	216	1
217	218	3
53	53	4
3	246	1
66	66	1
203	203	2
91	91	1
190	203	2
204	204	3
233	233	9
37	54	3
110	112	2
163	164	2
47	54	2
224	224	2
98	104	1
22	22	4
12	12	2
227	227	2
25	27	1
189	192	2
66	97	1
71	94	3
205	210	1
180	181	2
15	29	1
50	65	1
109	116	1
47	49	1
205	208	2
7	192	1
212	212	3
183	183	1
221	221	2
231	235	1
36	43	3
237	237	2
99	116	2
156	158	2
245	245	2
55	55	2
206	207	2
30	38	1
230	230	2
15	171	1
21	28	2
222	222	2
31	42	2
197	201	2
190	193	2
3	3	3
18	20	1
71	72	2
1	2	1
20	20	3
8	8	3
175	181	1
166	166	1
203	207	1
154	155	4
226	226	1
231	233	2
14	14	2
191	194	1
9	11	1
185	191	2
23	23	1
59	79	3
177	177	1
20	31	1
176	176	2
108	108	3
158	158	2
117	118	3
147	147	1
5	7	2
155	155	2
226	235	1
96	96	3
241	241	4
11	11	3
35	44	1
182	182	3
106	109	2
152	164	1
231	245	1
224	233	1
169	169	1
186	204	1
179	179	2
156	156	3
44	45	1
37	37	4
115	115	1
197	197	3
186	186	1
6	17	1
167	167	2
22	23	1
168	168	4
171	171	2
100	100	3
84	84	2
38	39	2
211	211	2
209	217	1
113	115	1
36	36	1
7	14	1
152	155	1
166	183	1
241	242	1
39	41	1
118	118	2
238	242	1
57	59	1
245	248	1
72	72	2
79	90	1
180	182	1
228	228	2
74	76	1
181	181	2
185	185	1
37	165	1
163	175	1
61	74	2
38	38	3
229	229	5
34	34	1
170	171	1
19	19	3
80	80	1
112	116	1
32	32	2
211	223	1
188	202	1
4	5	5
205	205	1
172	182	1
61	61	3
230	232	1
236	236	2
161	164	2
25	25	5
68	68	2
59	59	4
114	114	1
235	237	2
42	42	1
187	188	2
192	199	1
46	63	1
9	10	1
244	244	3
159	159	2
146	146	1
87	90	3
221	236	1
178	178	3
182	201	1
117	119	4
167	172	1
86	89	1
54	54	1
178	179	1
97	108	1
76	85	1
17	22	2
221	222	1
24	37	2
169	173	1
151	151	4
224	228	1
234	236	1
224	236	2
180	195	1
221	224	1
200	202	1
28	39	1
78	98	1
204	218	3
42	49	1
28	28	2
117	120	4
238	244	3
169	180	1
76	106	1
62	76	1
159	208	1
11	12	3
163	163	1
56	61	1
10	18	1
9	20	2
20	27	1
164	166	1
101	103	1
48	61	1
182	183	2
192	192	3
16	24	1
223	236	1
16	25	1
18	217	2
240	240	2
35	35	1
87	92	2
29	29	1
220	225	1
190	192	1
211	213	2
201	203	1
19	28	3
51	52	1
213	213	2
39	39	2
44	55	1
161	162	2
169	205	1
31	32	2
30	30	3
244	245	1
112	112	1
168	176	1
35	37	2
206	206	3
38	54	1
53	54	2
172	177	1
186	198	1
223	234	1
192	203	1
197	200	1
11	18	1
96	100	2
243	246	1
76	84	1
207	208	2
207	219	2
19	218	1
198	199	1
1	5	2
3	4	4
115	117	2
156	165	1
246	247	2
45	46	1
82	95	1
65	65	2
6	6	1
37	49	1
93	93	1
172	173	1
115	120	2
209	209	2
153	156	1
62	68	1
225	225	4
176	179	1
237	247	1
181	186	3
52	52	2
31	33	1
89	108	2
31	31	1
158	163	1
172	183	1
160	173	2
202	204	1
163	179	2
7	7	2
202	202	1
43	43	2
25	182	1
222	224	1
188	188	1
153	153	2
52	53	2
160	160	3
45	49	1
50	52	1
208	218	1
213	228	1
100	105	2
223	237	1
111	120	1
175	183	1
67	67	1
181	198	2
200	201	2
103	103	1
227	241	1
212	223	1
10	19	2
18	19	2
70	73	1
15	222	1
205	207	1
191	216	1
97	107	3
75	80	1
214	214	1
117	117	2
247	247	2
109	110	1
231	231	3
42	51	1
149	153	1
195	195	1
209	215	1
89	95	1
4	11	1
42	43	2
34	35	1
197	198	1
193	195	1
94	97	1
26	38	1
99	99	2
227	237	1
174	175	1
60	60	1
156	168	1
167	168	1
174	176	1
77	77	2
22	32	1
33	35	3
32	49	1
187	199	2
57	57	2
6	15	1
25	33	1
170	170	3
95	111	1
163	173	1
72	90	1
215	217	1
90	90	2
154	154	2
107	107	1
28	38	1
171	185	1
200	215	1
115	116	1
218	245	1
245	249	1
203	236	1
82	92	1
45	45	1
190	202	1
226	227	1
175	176	2
1	247	1
211	224	1
178	193	1
220	235	1
1	243	1
212	224	1
84	88	1
184	184	2
222	233	1
199	207	1
71	101	1
0	0	1
52	65	1
179	181	1
56	57	2
205	209	2
50	61	1
44	44	2
63	63	1
238	240	1
174	186	1
15	16	1
230	231	1
96	110	1
67	78	1
74	98	1
56	56	1
2	5	1
5	5	1
11	23	1
212	221	1
165	165	1
111	111	3
111	119	1
79	79	2
119	119	1
88	89	2
62	62	1
9	14	1
47	47	2
165	173	1
180	201	1
25	234	1
229	233	1
7	18	1
163	167	1
175	182	1
18	23	1
53	57	1
0	242	1
67	98	1
194	206	1
198	198	1
212	227	1
10	11	1
8	12	1
41	42	1
168	172	1
18	38	2
215	215	1
201	218	1
89	89	1
164	170	1
210	210	1
225	240	1
33	33	2
150	152	2
78	101	1
97	111	1
227	240	1
91	94	1
111	112	1
109	109	1
201	201	1
46	61	1
199	225	1
233	242	1
17	27	2
42	50	1
73	88	1
208	214	1
113	113	1
231	232	1
233	234	1
158	165	1
75	76	1
60	183	1
146	156	1
212	226	1
51	51	1
83	107	1
65	69	1
42	44	1
2	4	1
113	114	1
6	193	1
232	233	1
22	28	1
45	56	1
65	66	1
215	247	1
2	3	1
38	47	1
107	119	1
32	40	1
237	238	1
171	188	1
227	238	1
239	239	1
220	220	1
21	39	1
179	192	1
81	81	1
35	41	1
82	86	1
2	6	1
172	181	1
226	229	1
