92	92	3
72	73	1
50	50	3
33	34	3
135	137	4
70	71	2
37	38	1
111	112	2
47	81	1
138	138	2
63	63	3
94	98	2
56	56	2
92	142	1
129	129	1
75	76	2
53	53	1
98	98	2
2	9	1
102	102	2
38	38	1
93	94	3
33	33	2
90	90	3
58	58	2
142	142	3
78	79	2
128	128	3
64	64	1
59	59	1
117	118	2
41	41	3
39	39	2
59	123	2
79	79	1
13	14	1
97	97	2
113	113	1
99	100	1
23	23	1
121	123	1
73	96	1
122	122	2
131	139	1
119	119	2
82	82	2
132	132	4
80	81	1
139	139	3
101	102	2
64	69	2
8	41	2
42	43	1
116	116	4
90	93	3
48	60	1
52	78	1
91	91	2
80	80	2
78	78	2
36	36	1
143	143	3
128	133	1
52	74	2
62	62	2
22	23	2
31	31	2
39	40	1
108	108	2
124	124	3
12	12	2
130	135	1
37	57	1
42	42	1
109	109	2
123	123	2
96	96	1
110	110	1
91	97	1
15	16	1
66	68	1
1	1	2
125	125	3
64	65	1
121	122	1
60	62	1
104	133	1
127	127	1
41	51	1
71	71	2
57	62	1
26	116	1
76	77	1
74	81	1
95	96	1
30	37	1
140	140	2
96	98	2
87	89	1
23	24	1
55	82	1
70	70	1
8	9	2
20	20	1
87	91	1
105	141	1
21	21	1
130	130	1
72	72	1
73	90	2
81	81	1
60	60	2
76	76	1
104	105	1
50	125	1
107	108	1
77	77	1
145	145	1
4	16	1
62	65	1
53	79	1
60	61	1
61	61	3
28	28	1
134	134	2
135	135	1
99	145	1
75	75	1
63	65	1
29	30	2
73	73	1
93	93	1
22	22	1
27	27	1
35	35	1
81	131	2
63	64	1
94	94	1
118	118	1
73	74	2
110	131	1
84	85	1
133	134	1
9	9	2
141	141	2
97	143	1
30	64	1
97	98	2
19	19	1
51	51	1
89	89	1
12	13	1
48	48	1
34	35	1
55	55	1
127	131	1
112	132	1
1	4	1
0	0	1
68	69	1
30	30	1
58	59	1
104	113	1
95	95	1
13	31	1
116	117	1
54	54	1
131	131	1
86	86	1
69	69	1
66	66	1
34	34	1
56	57	1
16	60	1
93	109	1
17	17	1
88	88	1
32	37	1
15	15	1
18	18	1
137	138	1
