165	177	1
41	41	10
102	103	3
39	176	1
92	92	6
180	199	1
231	231	7
152	152	5
26	27	3
107	108	2
201	228	1
38	39	3
46	46	8
195	195	6
30	30	8
218	218	5
200	200	7
119	119	3
224	233	1
160	160	10
33	33	7
199	199	3
156	156	12
40	115	1
99	99	4
168	169	3
225	225	5
38	38	12
119	199	1
40	40	5
15	165	1
206	206	6
227	227	12
155	155	9
221	222	1
169	184	1
190	190	7
189	189	3
202	202	5
90	90	5
157	157	4
150	151	4
187	225	1
22	23	2
32	32	15
205	205	11
237	237	5
0	0	4
102	102	4
193	196	4
47	47	9
5	5	10
94	94	8
62	80	1
56	58	1
36	37	1
11	11	10
34	34	10
12	12	12
14	15	1
8	16	2
237	240	2
7	7	5
107	107	12
10	11	4
50	71	1
6	12	1
16	16	9
19	19	5
117	117	4
2	2	2
150	150	5
164	165	1
80	80	2
163	163	3
181	181	8
115	120	2
8	8	8
175	175	10
31	31	12
204	204	9
96	96	6
50	63	1
182	182	10
118	118	9
52	52	6
28	147	1
193	193	4
39	39	2
62	62	9
15	15	6
53	53	7
10	17	1
212	214	2
20	50	1
228	229	2
234	234	6
192	192	7
121	121	2
169	169	5
173	174	2
210	215	1
187	188	2
209	209	3
94	96	1
170	209	1
196	196	8
20	20	8
236	236	8
56	86	1
186	186	4
111	111	4
84	84	2
11	12	4
59	59	4
46	47	2
7	8	1
74	75	2
182	183	1
76	76	2
145	145	5
28	32	1
66	66	4
77	77	4
198	199	3
15	16	4
231	235	1
243	244	4
56	56	6
220	220	10
112	113	2
79	79	3
36	36	6
219	237	1
228	228	5
2	3	3
85	85	5
45	227	1
170	170	9
6	6	8
232	249	2
220	222	2
169	171	3
190	191	5
173	173	7
245	245	4
81	82	1
27	28	2
211	246	1
222	222	1
9	117	1
90	95	1
67	67	9
28	28	5
4	5	5
48	174	1
4	4	8
14	59	1
151	151	3
50	54	1
234	235	2
37	41	3
24	24	7
194	214	1
35	35	6
118	170	1
159	159	2
198	198	4
116	116	2
25	33	2
61	61	6
229	230	5
24	52	2
44	44	9
48	48	6
22	22	12
197	197	7
222	225	1
120	120	2
71	80	1
183	183	3
153	153	5
164	166	1
71	71	5
158	168	1
55	70	1
245	247	1
101	104	3
32	115	1
243	243	6
186	187	3
39	226	1
12	19	2
168	168	6
208	233	4
44	45	4
40	41	6
29	29	4
21	31	2
55	61	1
216	216	4
86	86	6
248	248	1
18	18	10
87	87	3
71	73	1
171	178	2
58	58	3
61	100	1
110	110	9
95	113	3
230	230	5
203	205	2
224	226	1
44	52	1
33	34	1
1	1	4
108	108	3
113	113	6
49	50	4
210	225	1
26	204	1
34	35	1
175	228	1
10	10	14
203	203	6
35	36	4
166	166	5
58	59	1
101	109	1
223	223	5
54	54	5
159	185	1
112	112	5
226	226	12
229	229	4
87	105	1
17	23	1
45	45	12
89	89	3
191	193	1
12	39	1
106	106	4
53	59	1
93	97	2
238	238	3
193	194	4
201	201	9
169	170	3
167	167	5
113	117	1
114	115	5
64	64	5
247	247	7
92	95	1
72	75	1
174	174	3
71	74	1
14	61	1
17	18	3
161	161	5
26	26	4
31	179	1
114	114	5
224	224	9
27	27	7
215	216	4
238	239	2
57	246	1
43	43	3
198	200	1
17	17	5
180	181	1
194	194	4
108	109	1
241	242	3
158	158	3
210	210	2
186	225	1
66	248	1
187	187	2
98	99	4
63	63	4
7	26	1
179	197	2
212	212	6
112	204	1
73	73	6
87	99	1
208	209	3
184	192	1
198	241	2
88	88	5
93	93	5
60	60	3
202	204	1
62	81	2
173	192	1
239	239	1
109	109	5
37	37	7
103	103	1
100	100	3
14	14	2
54	62	1
178	178	9
72	72	3
154	156	1
42	42	7
87	91	1
172	175	1
246	246	9
209	210	2
214	214	10
175	183	2
105	105	3
63	64	1
219	219	3
220	224	1
92	93	4
159	160	1
33	38	2
162	163	1
237	238	4
16	153	1
89	107	1
20	21	2
9	9	10
8	11	1
179	179	6
162	162	7
41	43	1
83	83	4
220	245	1
59	60	1
97	98	3
71	72	2
176	176	2
74	74	4
172	172	4
213	214	3
231	234	1
78	237	1
177	177	3
21	21	3
65	65	2
120	143	1
114	116	1
28	44	1
27	118	2
164	164	4
50	50	5
57	60	1
159	193	1
97	97	5
223	246	1
3	3	7
64	65	2
9	155	2
19	155	1
91	92	2
105	106	3
9	10	1
213	213	9
212	223	1
91	91	4
236	246	1
181	182	2
28	29	2
69	107	1
99	101	4
70	70	4
53	100	1
159	163	2
240	240	5
52	53	1
115	115	5
184	184	6
200	236	1
232	232	3
24	228	1
215	215	2
79	80	3
101	102	3
160	173	1
207	233	1
1	8	1
98	98	7
39	167	1
30	31	2
61	64	1
102	104	2
115	156	1
1	16	1
45	46	2
157	196	1
33	116	1
227	229	1
54	63	1
68	99	1
9	17	1
82	82	1
33	37	2
199	233	1
17	43	2
86	87	2
53	204	1
8	26	2
110	111	2
55	55	4
198	216	1
235	236	2
242	242	3
147	147	2
25	25	5
171	173	1
30	227	1
204	228	1
94	95	1
174	175	2
194	196	1
65	89	1
233	233	6
68	68	5
35	43	1
225	233	1
175	176	2
180	180	6
96	97	1
29	34	1
176	179	2
78	81	1
113	114	2
242	243	5
166	167	2
51	51	5
6	153	1
168	171	1
187	212	2
154	154	5
171	239	1
48	65	1
21	38	1
203	232	2
202	203	4
89	90	4
54	85	1
185	185	4
204	205	1
12	18	2
209	240	1
234	248	1
110	204	1
241	241	2
215	239	1
85	95	1
163	164	4
206	207	2
107	109	1
163	195	1
48	50	1
196	219	1
208	208	1
117	118	3
156	160	1
184	212	3
161	203	1
35	182	2
156	157	1
158	192	2
95	95	2
214	248	1
162	169	1
211	248	1
215	217	1
1	22	1
189	191	3
2	6	1
23	23	4
18	34	2
162	166	1
25	65	1
25	26	4
178	179	5
167	171	1
3	6	1
195	196	1
172	173	1
225	226	1
69	69	1
16	110	1
19	20	1
34	37	1
42	112	1
231	246	1
78	156	1
19	21	1
171	171	4
188	188	3
218	219	2
244	244	2
69	85	1
33	92	1
61	65	1
189	192	1
182	200	1
79	82	1
82	83	1
230	236	1
224	234	1
42	43	2
226	228	1
181	201	1
156	184	1
183	214	1
175	212	1
189	213	1
103	106	1
208	234	2
150	155	1
217	217	1
247	248	3
76	84	1
53	76	1
73	74	1
58	61	1
197	198	1
48	49	1
165	165	4
6	8	1
166	233	1
8	10	1
187	190	2
28	161	1
38	43	2
213	219	1
18	224	1
162	180	1
116	117	1
207	207	2
211	211	2
204	207	1
221	221	3
219	221	1
104	104	1
49	49	1
78	83	2
49	75	1
239	240	1
32	33	4
149	149	2
101	101	2
5	7	2
224	225	2
26	31	1
32	47	1
67	84	1
38	228	1
185	186	1
8	9	1
109	110	1
231	241	1
87	89	1
93	175	1
32	34	1
170	186	3
86	88	1
3	43	1
61	62	1
42	204	1
2	36	1
188	198	1
34	113	1
8	15	1
11	24	1
18	245	1
10	18	1
205	207	1
33	115	1
38	203	1
67	68	1
67	156	1
48	61	1
114	240	1
93	95	1
41	44	1
18	153	1
37	203	1
163	174	1
90	92	1
52	54	1
36	38	1
47	48	1
100	121	1
212	228	2
32	113	1
75	77	1
185	197	1
70	72	1
1	2	1
207	213	1
94	99	1
160	202	1
22	172	1
72	98	1
76	78	1
176	192	1
32	235	1
172	186	1
21	22	1
21	24	1
14	201	1
29	30	1
19	203	1
102	107	1
103	104	1
178	224	1
97	106	1
194	195	1
23	228	1
51	64	2
190	192	1
165	166	1
78	87	1
191	191	1
87	109	1
81	81	1
173	197	1
103	105	1
187	199	1
86	98	1
59	61	1
98	105	2
221	223	1
177	223	1
118	172	1
52	109	1
12	16	1
10	12	1
172	192	1
75	75	1
223	229	1
91	109	1
67	78	1
78	82	1
184	185	1
71	102	1
33	35	1
236	248	1
200	206	1
1	32	1
1	167	1
207	212	1
193	195	1
78	78	1
68	104	1
61	82	1
27	29	1
102	105	1
69	86	1
189	217	1
192	193	1
3	4	1
202	205	1
167	168	1
163	177	1
53	60	1
220	223	1
202	217	1
16	19	1
209	236	1
211	212	1
174	176	1
87	112	1
32	206	1
104	105	1
172	174	1
212	213	1
9	154	1
158	159	1
55	65	1
79	81	1
52	65	1
62	64	1
61	172	1
65	66	2
3	42	1
74	76	1
32	150	1
172	177	1
70	71	1
70	103	1
14	38	1
188	189	1
195	199	1
43	44	1
79	100	1
80	81	1
115	212	1
227	228	1
37	229	1
48	55	1
58	84	1
157	198	1
203	204	1
16	243	1
187	232	1
