155	155	1
60	62	1
168	168	4
221	225	1
11	11	4
204	224	1
5	14	1
61	61	2
79	102	2
40	40	2
102	103	1
94	94	2
198	198	6
22	22	2
96	96	1
215	231	3
161	161	1
104	112	1
49	51	1
208	210	1
115	116	2
20	20	4
221	221	3
167	202	1
211	211	6
60	61	2
218	218	1
199	199	1
101	101	4
9	9	3
44	44	4
237	239	3
232	232	2
20	31	2
8	25	1
217	217	2
166	166	2
46	46	2
35	35	1
186	186	3
202	202	6
241	241	3
205	219	1
108	108	3
183	183	1
58	58	1
184	185	4
83	83	2
229	229	2
201	201	2
48	68	1
37	40	1
59	226	1
23	23	7
62	63	1
76	107	2
194	194	2
226	227	3
220	220	3
39	231	1
183	184	2
227	227	5
70	75	2
240	241	2
16	16	4
44	55	1
147	161	1
52	52	3
32	32	5
178	178	3
216	216	1
180	198	1
50	56	1
154	176	1
218	219	2
107	107	3
31	31	3
186	187	1
212	212	3
206	206	2
88	88	1
36	36	2
117	117	2
112	112	3
160	160	3
152	154	1
51	51	1
59	59	2
67	84	1
39	43	1
163	174	1
208	231	1
227	234	1
156	157	1
48	169	1
118	119	2
209	214	1
170	170	3
154	154	3
238	248	1
59	172	1
171	172	2
190	191	2
84	84	3
178	184	1
220	221	1
18	18	5
192	195	2
116	117	1
191	193	2
88	89	1
57	57	1
178	188	1
239	243	3
47	47	4
217	242	1
246	246	4
152	152	4
242	242	2
47	201	2
209	209	1
53	67	1
193	193	3
190	193	1
15	15	6
164	179	1
160	177	1
35	39	1
236	236	2
191	213	1
56	56	2
29	29	2
67	68	1
7	7	2
68	69	2
30	51	1
69	75	1
208	214	1
207	207	6
168	169	2
111	111	3
42	42	1
201	226	1
93	101	1
88	93	1
115	115	1
118	150	1
10	10	2
19	19	3
33	34	1
189	189	2
116	116	3
237	237	2
11	12	3
184	184	2
224	225	2
38	39	1
22	23	1
54	62	1
26	27	2
173	174	1
158	158	2
152	166	1
231	246	2
63	76	1
89	90	1
76	79	1
222	223	1
45	45	4
56	57	1
176	200	1
55	55	1
5	5	2
227	228	4
10	11	1
105	105	1
238	238	1
162	165	2
190	203	1
4	247	1
214	216	2
184	201	1
98	103	1
10	22	1
205	205	4
187	187	1
182	196	1
102	102	1
153	154	1
181	203	1
32	45	1
213	219	1
87	87	2
59	61	1
54	55	1
12	43	1
200	200	3
21	24	2
32	33	2
92	92	4
114	114	2
24	25	1
50	50	3
10	243	1
241	242	1
165	194	1
169	170	1
6	20	1
195	195	3
14	233	1
230	230	2
244	245	2
248	248	4
175	175	1
3	3	1
9	10	1
188	188	3
30	30	1
232	233	2
201	209	1
200	201	1
185	244	1
51	53	1
181	181	3
185	196	1
51	52	3
211	227	1
25	25	1
151	153	1
43	43	3
41	41	1
221	243	1
23	24	1
48	49	1
190	190	4
229	247	3
167	172	1
8	8	3
104	104	3
38	40	4
5	7	1
65	66	4
3	21	1
162	174	1
218	233	2
197	197	2
1	1	1
206	207	2
117	118	1
107	109	1
213	213	1
154	156	1
176	191	3
193	194	2
63	66	1
47	66	1
149	149	1
175	213	1
4	4	2
203	204	1
196	196	1
66	67	1
75	75	4
191	221	2
210	211	1
221	222	1
219	223	3
24	38	1
113	115	1
37	38	1
51	231	1
78	85	1
194	195	1
219	229	1
110	110	4
175	176	2
39	40	2
30	31	1
238	239	2
61	167	1
165	165	2
65	65	3
11	26	2
172	219	1
239	241	1
214	214	3
189	197	1
37	114	1
91	114	1
37	37	2
185	185	1
71	71	1
95	95	2
71	74	1
93	93	1
213	215	1
216	232	1
28	28	2
177	178	1
245	245	1
74	104	1
53	53	2
237	238	1
177	179	1
215	216	1
55	57	1
73	73	2
180	201	1
161	162	1
235	235	1
157	185	1
3	35	1
75	94	1
14	231	1
244	244	1
71	73	2
185	229	1
70	70	1
7	8	1
104	105	1
177	177	1
42	57	1
192	192	2
110	111	1
180	194	1
242	243	1
96	97	1
33	33	2
212	213	1
69	71	1
102	117	1
72	72	4
156	156	1
223	223	2
222	222	1
66	91	1
169	200	1
247	247	1
172	172	1
70	73	1
75	81	1
109	109	3
60	68	1
53	55	1
184	189	1
226	226	1
12	12	3
179	181	1
39	39	1
69	69	1
214	234	1
225	243	1
177	182	1
24	24	2
26	93	1
176	178	1
208	208	2
217	224	1
4	7	1
219	234	1
158	165	1
70	176	1
28	32	1
226	233	1
70	100	1
170	172	1
97	99	1
224	226	1
229	230	1
204	204	1
59	166	1
75	162	1
85	85	1
15	16	1
79	79	2
81	86	2
79	119	1
212	234	1
223	231	1
206	228	1
34	39	1
219	241	1
100	100	1
217	219	1
109	110	2
75	100	1
198	235	1
98	98	1
199	210	1
183	222	1
81	82	1
41	53	1
99	100	1
149	161	1
27	27	1
62	62	2
193	215	1
212	223	1
218	232	1
13	18	1
176	176	1
19	20	1
203	205	1
169	226	1
240	240	1
78	78	1
179	180	1
11	25	1
76	76	1
28	230	1
46	155	1
188	189	1
81	81	1
221	238	1
86	86	1
177	191	1
17	210	1
40	41	1
6	6	1
182	182	1
179	179	1
18	19	1
213	224	1
78	102	1
38	38	2
231	231	1
90	179	1
220	239	1
23	33	1
181	182	1
0	39	1
233	236	1
78	84	1
226	245	1
166	185	1
182	183	1
120	120	1
26	26	1
205	245	1
105	106	1
173	173	1
150	150	1
212	244	1
234	235	1
153	153	1
48	51	1
67	73	1
91	187	1
67	67	1
14	15	1
26	40	1
1	214	1
