70	70	2
120	120	4
40	41	2
116	116	1
134	135	1
32	32	2
54	54	1
107	107	2
233	233	4
55	58	1
136	136	4
234	234	1
131	131	3
146	146	3
47	47	1
169	169	1
214	214	6
39	39	2
178	178	1
226	228	1
166	166	1
21	43	1
125	176	1
135	136	2
110	120	1
169	170	1
206	206	1
86	86	6
12	13	2
162	163	1
172	172	2
59	59	1
228	228	1
103	103	1
104	104	3
35	36	1
60	60	2
12	176	1
69	69	5
10	10	2
16	16	5
1	3	2
217	217	2
167	176	1
26	26	3
125	125	2
224	224	1
160	164	2
186	186	2
235	239	2
232	235	2
72	72	2
3	4	1
141	141	2
158	158	3
138	138	1
139	143	1
167	167	6
164	164	2
160	161	2
8	9	1
21	23	3
167	168	4
81	81	1
122	122	4
12	15	1
151	151	3
210	211	2
107	108	2
170	170	1
38	38	1
219	220	2
19	19	2
41	41	1
180	180	2
50	50	3
149	149	2
148	148	2
112	113	3
13	13	1
18	225	1
148	167	1
86	174	1
23	23	3
207	209	2
209	209	1
10	176	1
14	18	2
235	236	3
2	8	1
208	208	1
51	51	1
174	174	3
127	127	1
55	55	2
119	119	2
15	15	3
48	67	1
49	49	2
5	6	1
21	21	2
43	43	5
212	222	2
128	128	4
217	223	1
109	109	1
30	31	1
171	171	1
73	73	2
105	128	1
184	188	1
84	84	1
104	116	1
202	202	2
58	58	5
156	156	2
78	79	1
111	111	2
170	171	1
121	121	2
102	102	3
198	198	2
157	158	2
21	53	1
214	216	2
184	185	1
7	7	2
133	133	1
114	114	2
22	22	1
130	130	1
144	144	2
40	42	1
182	182	3
186	187	1
142	142	4
129	129	2
184	184	1
123	123	4
39	102	1
176	235	1
133	142	2
162	162	1
114	115	1
184	186	3
40	43	1
196	196	1
58	59	2
24	24	2
9	10	1
3	34	1
42	43	1
7	13	1
181	181	1
113	113	6
3	3	2
81	82	1
106	106	1
182	210	3
9	174	1
62	63	2
179	179	3
28	28	1
203	203	1
121	240	1
25	25	5
176	177	1
38	106	1
2	54	1
66	68	2
196	230	1
196	219	2
137	138	1
4	4	1
205	205	1
160	192	1
26	27	1
65	65	3
100	100	2
133	143	1
175	175	1
211	212	1
122	123	1
181	182	2
238	238	1
45	46	2
135	135	2
61	61	2
117	117	2
177	177	1
197	197	2
241	241	1
160	187	1
133	161	1
11	11	1
115	116	1
200	200	1
199	231	1
189	210	1
216	216	1
0	0	1
191	191	1
20	23	1
15	31	1
132	132	1
124	125	1
149	158	1
101	101	2
194	195	1
182	183	1
150	153	1
146	160	1
5	5	2
220	222	1
221	222	1
3	8	1
85	85	2
220	220	2
195	196	1
140	140	1
70	71	1
102	106	1
70	85	2
154	163	1
55	61	1
229	229	1
105	105	1
155	155	1
134	134	1
55	73	1
206	207	1
74	74	1
45	53	1
75	75	1
9	9	1
195	195	1
51	52	1
162	167	1
106	122	1
115	115	1
116	117	1
112	112	1
241	242	1
126	136	1
168	179	1
124	127	1
27	27	1
175	205	1
152	152	1
157	157	1
179	180	1
27	28	1
73	88	1
37	37	1
154	155	1
115	173	1
34	34	2
15	161	1
128	131	1
50	52	1
203	204	1
165	165	1
48	50	1
220	224	1
185	186	1
239	239	1
64	64	1
131	137	1
226	226	1
52	52	1
121	122	1
225	225	1
9	122	1
46	46	1
157	159	1
62	62	1
150	150	2
14	19	1
231	231	1
122	127	1
24	25	1
180	181	1
29	29	1
80	80	1
