163	163	9
46	46	5
133	133	6
149	150	2
103	103	4
70	70	3
127	156	2
95	96	2
103	104	4
128	129	1
144	150	1
139	139	2
78	78	3
79	80	3
161	161	9
113	118	3
34	34	9
49	49	3
24	24	4
40	40	8
14	14	5
20	24	1
2	2	5
39	41	3
148	166	2
74	74	4
138	143	1
163	165	2
168	168	5
107	135	1
127	127	4
93	93	2
88	88	10
44	44	7
142	142	3
155	155	5
65	65	1
16	16	9
116	116	3
13	14	1
95	95	1
75	76	1
106	106	7
116	166	1
67	67	7
6	7	2
25	25	5
35	35	2
80	80	6
166	166	5
150	160	1
64	65	2
97	97	8
8	8	6
12	23	1
76	76	6
119	119	4
3	20	1
34	35	3
5	5	10
142	145	1
135	135	2
121	121	4
7	10	1
17	17	10
52	56	1
145	145	5
22	23	1
151	159	1
96	96	3
94	95	2
19	19	6
116	132	3
158	158	5
51	68	3
161	162	4
107	107	1
51	51	1
108	109	1
11	11	3
72	72	2
23	23	7
10	10	6
162	163	3
123	152	1
105	106	3
101	101	2
125	144	1
16	17	2
18	18	6
138	138	6
21	21	3
129	129	9
49	57	2
116	117	3
137	137	9
33	33	1
50	50	9
165	165	3
55	55	2
152	152	4
36	36	6
43	43	7
90	90	4
167	167	5
120	121	1
13	13	7
2	3	3
77	77	2
164	166	3
139	141	1
138	140	1
48	48	2
2	7	1
54	54	1
71	83	1
73	73	2
48	53	3
5	13	2
162	162	4
37	37	3
124	124	6
85	85	2
53	105	1
155	156	2
45	45	4
6	6	4
161	164	1
64	66	1
110	110	3
41	41	5
133	135	1
129	145	1
111	112	2
147	147	7
4	13	2
107	108	1
164	165	3
74	77	3
146	146	2
116	118	1
108	108	3
92	92	3
149	149	5
141	155	1
69	69	2
7	7	5
7	11	2
45	50	1
154	154	1
1	1	9
84	85	2
1	139	1
123	123	2
4	7	1
55	58	1
102	102	3
9	9	6
38	38	2
101	152	1
90	91	2
105	105	3
130	130	5
109	109	2
144	145	1
78	79	1
54	55	2
39	39	3
84	84	1
126	127	2
18	88	1
62	63	2
17	18	2
45	56	1
113	113	2
54	80	2
106	107	3
158	159	1
120	120	5
68	68	2
47	49	3
23	25	1
120	142	1
66	66	3
98	98	1
153	153	3
168	170	1
77	79	1
87	87	2
33	35	2
118	120	2
126	126	4
4	4	6
99	137	1
110	119	1
128	132	2
159	159	5
111	111	2
154	155	2
6	8	1
4	6	2
49	56	1
12	12	5
58	58	3
132	132	3
141	142	3
57	57	2
89	89	6
56	93	2
42	52	1
134	134	5
91	91	6
27	27	5
102	104	2
53	53	3
109	113	1
5	7	2
25	28	1
43	44	2
42	43	1
97	116	1
139	143	1
8	19	1
82	82	2
42	42	3
136	136	3
169	169	2
150	154	1
53	54	1
48	75	1
156	156	3
99	123	1
55	93	1
15	15	1
14	15	2
10	23	1
73	76	1
137	138	2
4	5	1
150	150	3
157	157	3
87	88	3
119	143	1
148	154	1
152	165	1
151	151	2
91	100	1
129	130	1
151	155	1
70	71	1
148	149	2
11	12	2
47	104	1
125	155	1
26	27	1
54	57	2
103	152	1
92	93	2
144	148	1
169	170	1
86	87	2
63	63	2
51	134	1
140	140	4
143	144	2
12	14	1
49	50	1
66	133	1
136	138	2
78	94	1
25	27	3
113	132	1
127	128	2
28	37	1
159	166	1
52	52	3
170	170	2
8	9	1
151	163	1
62	62	2
20	21	2
99	99	4
92	101	1
78	95	1
37	38	2
68	112	1
80	83	1
142	155	1
148	151	1
125	125	3
160	160	4
110	125	1
140	164	2
131	131	1
164	164	3
19	22	2
86	86	3
147	151	1
81	82	1
150	151	1
129	160	1
147	148	1
22	22	2
160	161	1
34	69	1
123	144	1
144	170	1
15	16	2
83	83	1
118	151	1
2	4	1
74	76	1
112	125	1
107	149	1
47	47	2
64	64	3
79	79	2
27	28	1
3	3	3
106	108	2
71	105	1
39	40	3
141	141	1
81	81	1
149	160	1
102	149	1
143	143	3
111	161	1
168	169	1
44	91	1
63	66	1
116	165	1
24	50	1
146	162	1
138	139	1
134	135	1
22	146	2
23	24	1
109	160	1
93	94	1
103	113	1
126	128	1
156	163	1
33	34	1
126	155	2
62	78	1
153	154	1
48	49	2
83	84	2
1	2	2
5	6	1
99	149	1
42	44	1
68	69	1
78	80	2
6	160	1
117	117	4
71	71	1
91	98	1
3	6	1
13	49	1
69	70	1
28	28	1
100	100	1
122	122	1
12	13	1
94	94	1
143	145	1
16	51	1
65	66	1
89	90	2
151	152	1
20	20	3
127	153	1
35	36	2
72	82	1
56	56	2
121	122	2
71	107	1
10	11	1
131	136	1
138	158	1
44	79	1
69	71	1
114	117	1
161	168	1
84	86	1
128	128	2
47	48	1
14	131	1
74	116	1
27	39	1
