6	7	3
176	191	1
43	44	5
166	166	2
53	197	1
179	179	4
64	69	1
101	101	3
13	13	4
63	114	1
28	80	1
143	143	4
47	47	2
3	20	1
105	117	1
5	6	3
157	157	2
188	188	1
78	78	1
140	140	6
34	34	11
44	114	1
124	124	2
155	155	5
149	149	6
32	32	1
11	11	4
23	77	1
19	19	6
59	60	2
50	50	3
168	168	3
163	164	2
133	196	1
135	135	3
2	3	1
85	85	3
37	37	4
68	68	2
10	46	2
99	99	1
139	139	4
81	81	4
82	83	1
182	187	1
155	156	2
41	41	11
10	11	1
116	118	3
81	82	1
142	142	2
26	26	5
137	137	1
160	160	6
14	36	1
102	116	1
166	167	1
120	123	1
15	17	1
189	189	1
20	20	7
4	4	6
55	55	1
0	3	1
119	119	4
12	12	2
21	21	2
10	10	4
96	96	3
4	5	2
102	111	1
128	128	1
196	196	2
159	159	5
38	39	2
5	5	2
146	147	2
43	47	1
109	109	2
28	28	3
58	100	1
195	197	1
169	176	3
87	88	1
131	131	6
130	133	2
103	103	2
184	184	3
51	101	1
41	47	1
24	37	1
39	40	2
31	31	7
104	104	3
22	23	2
192	192	3
16	17	4
25	25	6
156	156	3
195	195	3
101	102	5
45	45	4
17	18	3
55	94	1
31	37	1
171	171	7
109	111	1
156	187	1
11	13	1
176	177	3
138	138	3
12	38	2
26	27	3
61	61	2
46	46	3
78	79	2
42	42	3
44	44	5
117	117	2
21	22	1
196	197	1
88	89	2
27	28	2
77	116	2
62	62	2
182	183	2
38	42	1
58	58	1
77	117	2
172	172	7
155	187	1
185	185	4
72	72	5
138	139	2
134	134	1
148	148	3
64	113	1
29	30	3
165	166	4
63	64	1
0	0	1
42	43	1
112	113	1
187	187	3
191	193	2
177	178	2
160	166	2
133	133	2
177	177	4
183	186	2
6	6	1
185	186	3
61	63	1
193	193	3
181	181	2
8	8	3
59	59	1
36	36	5
24	25	1
136	136	3
48	48	2
152	152	4
30	30	5
162	162	1
112	112	1
64	64	1
42	87	1
183	183	3
179	180	5
165	165	3
1	2	1
145	148	1
4	148	3
57	100	1
18	18	3
61	62	3
153	153	2
97	100	1
125	125	3
151	151	2
150	150	2
141	141	4
141	185	1
9	9	1
56	56	3
190	190	1
178	178	1
153	154	2
180	181	2
190	193	1
145	145	1
100	101	1
22	22	1
53	53	2
16	16	3
100	100	2
41	42	1
12	13	1
24	24	1
65	65	2
58	115	2
121	123	3
111	111	5
40	41	1
28	32	2
73	73	3
155	157	2
170	170	7
74	74	1
55	126	1
8	9	2
40	40	5
114	115	1
43	43	2
124	125	1
160	161	3
71	132	1
52	106	2
117	118	1
169	183	1
146	146	3
135	140	1
122	122	1
71	72	2
163	163	2
137	138	1
158	158	2
95	95	2
15	34	1
14	14	2
175	176	1
97	97	1
182	186	1
7	7	1
139	140	1
14	33	1
109	110	1
177	179	1
20	34	2
60	60	1
123	123	1
3	3	5
24	38	1
56	57	1
35	36	2
74	87	1
133	134	1
191	191	1
170	171	3
83	85	2
130	130	1
38	38	3
17	17	5
51	126	1
86	86	1
51	51	1
174	174	1
134	193	1
164	165	1
89	90	1
15	15	3
55	101	1
169	169	2
158	165	1
3	30	2
0	25	2
38	141	1
154	155	1
69	69	2
2	2	2
60	61	1
9	10	3
17	19	1
142	152	1
152	153	1
161	161	1
18	19	2
175	175	1
158	159	1
37	38	1
54	54	1
176	176	3
45	46	3
190	191	1
133	171	1
23	41	1
66	66	2
47	48	1
161	164	1
147	147	2
167	167	1
98	98	1
113	113	3
121	122	2
29	29	1
94	95	2
30	36	1
93	93	1
15	16	1
79	80	2
128	129	1
127	127	2
24	26	1
79	84	1
52	197	1
24	76	1
21	34	1
154	154	2
4	8	1
15	178	1
149	150	1
39	39	2
41	80	1
30	39	1
182	182	2
145	146	1
172	193	1
149	156	1
126	126	3
65	101	1
179	183	1
60	65	1
38	40	1
4	6	1
110	110	1
24	32	1
194	197	1
110	116	1
178	179	1
30	32	1
89	89	2
74	88	1
23	23	1
27	27	1
123	129	1
83	84	1
20	28	1
34	36	1
6	43	1
7	8	1
118	118	1
49	50	1
94	94	1
173	173	2
176	194	1
186	186	1
188	189	1
88	88	1
53	103	1
106	107	1
67	67	2
33	33	2
187	188	1
150	186	1
35	35	2
132	132	1
22	26	1
13	14	1
51	127	1
194	194	1
183	197	1
142	143	1
16	33	1
131	133	1
115	119	1
157	171	1
11	24	1
137	176	1
164	164	1
22	36	1
144	144	1
161	163	1
1	1	1
71	137	1
83	83	1
172	173	1
169	172	1
2	7	1
71	136	1
55	100	1
57	115	1
161	162	1
