130	130	4
32	34	2
149	149	6
135	142	1
18	22	2
74	86	2
117	118	1
78	78	8
135	156	1
68	82	1
7	23	1
89	122	1
88	88	8
58	61	1
101	104	3
88	89	3
47	47	4
172	173	3
105	105	7
155	172	2
14	15	4
136	137	1
109	114	1
104	104	5
98	98	5
147	147	4
71	71	3
2	2	11
182	182	4
169	171	1
155	167	1
26	41	1
116	116	4
16	39	1
34	36	1
5	5	8
140	140	7
189	190	2
185	185	4
102	124	1
152	152	6
63	63	5
25	25	6
129	140	1
151	153	1
100	104	2
131	135	1
114	114	5
55	56	4
164	178	1
175	176	2
77	83	2
131	134	1
167	169	2
45	45	6
173	173	10
166	167	2
88	147	1
57	79	1
45	46	2
118	120	2
22	22	8
15	15	8
124	124	5
123	123	9
43	43	8
83	83	3
183	183	7
27	29	2
96	96	5
110	122	3
37	44	2
56	57	2
13	13	9
134	164	1
106	106	10
53	53	10
112	118	1
85	87	2
174	174	3
160	160	2
161	179	1
147	158	1
100	113	1
153	153	6
107	146	1
39	40	3
56	56	8
101	106	3
80	80	4
101	102	4
120	136	1
66	70	1
112	115	1
85	95	1
108	119	2
90	90	7
103	103	8
8	22	2
167	168	2
7	7	10
114	130	2
116	157	1
131	131	6
88	108	1
165	173	2
67	67	7
18	19	3
31	34	1
113	113	2
109	111	2
186	187	1
125	127	1
86	86	5
120	139	3
18	91	1
89	90	1
38	38	8
144	150	1
35	38	1
82	83	2
166	169	1
17	17	7
57	57	6
21	21	7
10	10	3
153	173	1
75	76	2
73	73	3
27	27	4
16	20	1
62	63	2
122	122	7
93	96	3
36	36	3
24	24	4
182	183	2
33	35	4
43	47	1
40	40	5
13	35	1
79	79	2
35	35	9
121	133	1
165	166	1
97	105	1
93	93	4
73	74	3
6	14	4
87	87	4
171	171	5
89	89	4
154	154	7
48	48	5
103	124	1
24	40	1
112	123	1
187	187	10
149	170	1
113	114	1
187	189	2
87	90	1
89	101	1
160	175	1
183	184	4
95	95	7
18	18	3
26	26	4
118	118	1
161	162	1
101	108	1
158	160	2
81	84	1
63	69	1
38	39	4
111	112	1
128	128	7
91	164	2
90	109	1
68	69	2
6	7	3
139	139	10
137	137	3
88	142	1
135	135	1
13	37	1
107	107	3
152	153	4
81	125	1
53	54	1
73	141	1
89	91	2
39	39	7
159	164	2
4	4	10
56	74	1
35	42	2
66	66	1
11	53	1
75	75	7
157	157	2
100	137	1
87	128	1
139	141	1
127	152	1
115	119	1
142	142	3
149	157	4
41	45	1
150	158	2
112	112	5
63	127	1
122	135	1
92	92	3
129	139	1
119	119	3
188	188	8
4	5	2
23	42	1
185	186	3
6	6	7
111	111	6
87	113	1
108	108	4
109	129	1
184	186	1
166	174	2
41	42	2
0	38	1
44	44	3
159	168	1
55	55	7
5	6	3
165	165	6
72	74	2
64	64	4
127	150	1
81	83	1
173	174	1
109	109	7
98	99	1
102	102	3
130	132	3
31	47	2
35	36	4
135	137	1
93	133	1
142	150	1
52	52	2
167	167	5
171	173	2
42	42	5
31	31	4
74	74	3
44	47	1
107	108	2
12	12	4
82	82	8
155	155	10
142	144	1
54	54	8
177	177	3
30	38	4
163	177	1
62	62	4
8	8	3
176	176	4
122	123	3
170	170	3
28	29	4
69	69	3
72	95	1
147	148	2
144	151	1
127	128	3
124	140	1
151	151	5
25	33	1
148	148	4
42	43	1
157	164	2
157	158	3
24	63	2
29	32	1
176	178	3
34	34	4
150	150	1
2	8	1
171	188	1
126	169	2
149	150	2
85	113	1
173	177	1
66	113	1
16	16	3
68	68	5
63	64	2
66	68	2
145	146	2
150	179	1
117	153	1
71	74	2
31	127	2
41	41	8
0	2	2
25	26	1
19	35	1
162	162	2
100	114	1
144	188	1
129	129	2
121	122	2
102	103	1
101	101	11
41	47	2
61	61	6
141	141	1
168	170	1
19	19	3
11	182	1
114	136	1
7	19	1
43	44	3
156	158	1
147	190	1
102	105	2
84	84	2
125	149	1
124	128	1
6	76	1
78	139	1
14	14	3
108	109	2
188	189	4
120	122	1
65	66	2
116	120	2
10	22	1
77	79	1
18	27	1
19	32	1
150	152	1
144	144	4
175	175	3
6	39	1
143	150	1
136	143	1
126	128	1
159	159	5
76	103	1
114	117	1
104	133	1
78	85	1
148	156	1
186	186	4
178	178	3
67	77	1
64	91	2
134	136	2
133	133	2
96	103	1
46	46	2
60	64	1
130	134	2
176	177	4
151	157	1
183	187	1
29	29	2
168	169	1
31	33	1
85	85	2
141	155	1
104	105	4
147	186	1
110	115	1
89	92	1
10	13	2
138	157	1
157	159	1
80	81	2
90	104	1
137	143	1
3	3	8
14	20	1
22	24	1
142	143	2
45	49	1
10	11	2
87	110	1
70	163	1
72	72	4
120	120	2
23	129	1
59	60	3
137	144	1
14	16	2
3	9	1
160	166	2
25	27	2
174	177	1
16	38	2
33	33	4
145	145	9
94	94	8
96	97	3
163	165	2
58	58	2
27	33	1
100	100	3
141	158	2
12	13	2
78	83	1
169	169	5
123	139	2
172	181	2
18	21	1
115	116	4
32	32	2
123	125	2
168	189	1
120	121	1
15	17	2
107	127	1
122	126	1
46	58	1
74	76	1
20	26	1
122	124	4
172	177	1
174	175	3
82	88	1
128	145	1
166	166	5
136	149	1
23	47	1
188	190	3
60	60	4
41	48	1
8	20	3
97	97	2
76	76	4
13	16	2
90	91	2
94	123	1
163	173	2
33	47	1
99	99	2
144	145	1
30	30	4
134	137	2
47	48	1
180	180	3
35	59	1
27	28	1
115	127	1
101	133	1
103	106	1
58	62	1
94	108	1
153	154	2
17	82	2
164	168	1
17	27	1
77	77	3
146	146	3
13	36	1
20	28	1
131	168	1
10	35	1
163	164	1
12	20	1
71	108	1
126	126	3
65	86	2
27	79	1
5	22	2
56	60	1
189	189	2
23	23	7
105	106	1
93	100	2
16	26	2
4	13	1
9	15	1
155	175	1
28	34	1
28	30	1
20	21	1
123	145	1
90	92	2
78	106	1
125	125	3
150	151	2
32	46	1
55	57	5
157	180	1
171	172	2
141	145	1
110	110	5
10	14	1
27	67	1
110	111	1
36	37	1
0	74	2
76	87	1
26	48	1
1	2	4
102	128	1
7	57	1
61	68	1
164	164	4
29	61	1
7	15	1
118	119	1
0	3	1
48	52	1
15	18	2
99	129	1
88	91	1
18	102	1
90	94	1
151	152	1
64	77	1
106	107	1
102	115	1
31	32	4
132	134	2
79	81	1
28	28	6
96	109	1
62	90	1
134	134	3
22	47	1
40	61	1
121	121	2
96	108	1
153	184	1
59	59	5
30	43	1
18	33	1
113	125	1
76	79	1
6	41	1
87	114	1
21	22	1
2	3	1
119	122	2
19	22	2
70	70	3
11	23	1
55	74	1
54	77	1
91	93	3
87	88	3
0	0	4
143	153	1
17	21	1
168	168	1
121	127	1
161	163	1
37	37	2
79	82	1
181	181	3
179	180	1
184	184	5
131	133	3
38	40	1
11	11	5
91	97	1
138	172	1
112	117	2
40	151	1
48	71	2
58	86	1
124	133	1
146	160	2
158	158	4
144	146	2
69	78	1
177	179	2
110	117	1
81	81	2
116	118	1
16	17	1
172	190	2
1	37	1
129	146	1
173	175	2
17	18	1
40	42	1
24	27	1
99	100	1
100	101	1
159	160	3
98	103	1
159	163	1
125	130	1
179	179	2
64	68	1
6	38	1
37	57	1
115	115	5
44	45	1
12	14	1
128	130	1
84	167	1
93	95	1
120	127	1
103	163	1
69	84	1
89	95	1
1	1	3
1	6	1
57	59	1
65	75	1
163	163	1
65	65	4
58	132	1
177	180	1
91	91	3
17	37	1
30	57	1
93	137	2
19	20	2
114	115	1
23	35	1
138	143	1
92	93	2
136	136	3
119	132	1
185	189	1
182	185	1
177	178	1
84	85	1
113	142	1
144	155	1
131	166	1
25	40	1
97	98	1
117	117	1
15	16	2
138	138	2
6	10	1
180	181	1
66	77	1
131	148	1
88	144	1
94	95	1
73	94	1
132	148	1
119	174	1
123	129	1
13	42	1
12	18	1
90	99	1
59	61	2
30	31	1
92	94	2
91	94	1
130	135	2
15	36	1
78	82	1
8	42	2
94	98	1
140	173	1
58	67	1
61	65	1
83	84	2
21	84	1
137	157	1
164	165	1
127	127	4
128	129	1
53	60	1
58	80	1
30	45	1
6	80	1
125	136	1
68	76	1
119	129	1
177	189	1
141	169	1
76	77	1
83	96	1
181	187	1
79	80	1
3	39	1
172	172	2
70	71	1
60	62	1
139	147	1
55	78	1
113	130	1
24	25	1
130	133	2
96	100	1
35	40	1
124	126	1
74	87	1
68	89	1
106	126	1
26	37	1
5	30	1
182	184	1
106	108	1
122	125	1
48	164	1
179	190	1
79	96	1
139	140	1
44	92	1
54	86	1
96	139	1
135	180	1
32	40	1
54	55	1
121	124	1
6	40	1
66	82	1
148	168	1
127	136	1
94	104	1
142	172	1
0	16	1
106	152	1
124	125	1
85	89	1
22	23	1
20	32	1
148	157	1
77	107	1
13	34	1
13	28	1
0	1	1
85	91	1
143	144	1
169	170	1
62	92	1
78	152	1
138	187	1
137	142	1
147	152	1
35	39	1
13	40	1
190	190	2
34	35	1
118	122	1
16	25	1
69	71	1
33	37	1
143	143	2
132	132	1
123	124	1
102	106	1
58	64	1
108	128	1
107	125	1
66	81	1
38	42	1
12	33	1
119	153	1
137	138	1
133	135	2
110	154	1
84	140	1
58	126	1
0	4	1
60	61	1
52	53	1
155	181	1
178	179	1
159	170	1
126	171	1
181	182	2
98	121	1
125	126	1
155	170	1
105	107	1
16	18	1
136	146	1
3	6	1
3	15	1
28	31	1
170	179	1
62	85	1
106	117	1
107	116	1
91	105	1
71	73	1
74	95	1
110	129	1
11	13	1
141	151	1
185	187	1
86	87	1
123	131	1
156	180	1
