110	110	5
102	102	4
45	80	1
6	6	1
0	1	1
49	49	3
45	45	2
116	116	1
52	52	1
29	79	1
97	97	2
67	67	1
17	17	2
73	73	4
115	115	2
113	116	2
30	30	2
126	132	1
59	59	2
71	71	1
17	18	1
72	72	5
88	88	3
1	1	4
7	18	1
128	128	1
101	101	1
83	83	4
111	126	1
123	123	3
61	61	5
21	77	1
105	106	1
25	25	1
14	23	3
101	102	2
134	135	1
98	98	6
11	11	3
37	37	1
5	5	5
119	119	4
82	82	9
35	35	2
105	120	1
16	16	3
1	2	1
6	135	1
7	7	2
68	68	4
80	81	2
20	20	4
134	134	2
83	91	1
86	86	5
130	130	1
82	84	1
34	47	1
125	125	2
23	23	1
32	34	2
29	32	1
10	10	3
63	63	5
43	43	4
24	25	2
7	8	1
87	87	6
58	66	1
50	50	2
70	70	4
97	99	1
78	90	1
27	27	2
58	58	2
131	131	4
107	107	2
58	59	2
52	53	1
83	85	2
5	13	2
96	96	4
66	68	2
99	99	3
0	17	1
110	111	1
36	36	3
9	10	1
76	76	4
55	56	1
7	11	2
91	97	1
72	73	2
100	100	2
3	3	2
57	58	1
55	55	1
99	100	2
57	57	1
9	9	5
81	82	1
49	50	2
89	89	3
44	74	1
118	118	3
53	57	1
9	23	1
18	18	1
45	47	2
7	13	1
54	54	1
69	69	1
29	29	2
69	70	2
3	5	1
75	75	4
21	23	1
21	22	3
78	78	2
113	113	1
103	104	1
124	124	3
62	62	3
109	118	1
111	111	1
74	74	4
86	87	1
114	114	1
103	103	1
76	91	1
95	95	2
55	59	1
85	86	1
78	86	1
4	4	1
112	113	1
58	90	1
14	14	1
22	22	2
53	53	1
105	105	2
62	63	1
87	93	1
56	57	3
6	7	1
19	53	1
105	111	1
23	61	1
64	86	1
84	86	1
83	84	1
13	13	1
28	78	1
52	63	1
85	91	1
85	129	2
124	134	1
80	80	4
44	47	1
93	119	1
133	133	2
123	124	1
132	132	1
21	21	2
59	61	1
38	38	1
46	74	2
81	81	2
108	110	1
19	20	1
120	124	1
89	90	1
106	119	1
106	106	1
26	26	2
126	126	1
25	27	1
37	38	1
33	33	2
69	83	1
34	34	1
59	60	1
61	96	1
8	8	1
129	129	1
118	120	1
109	109	2
77	78	1
65	65	1
45	48	1
79	80	2
34	35	3
52	55	1
109	128	1
102	104	1
79	79	2
64	64	1
64	65	1
13	17	1
63	64	1
77	85	1
30	61	1
61	62	1
120	120	1
106	133	1
2	2	1
102	103	1
93	93	1
85	85	2
77	77	1
114	127	1
28	30	1
19	19	1
65	130	1
84	84	1
12	12	1
91	91	1
19	56	1
42	44	1
127	127	1
58	61	1
47	47	1
60	60	1
13	14	1
45	75	1
52	58	1
80	105	1
15	15	1
112	112	1
