116	117	2
82	82	1
10	10	6
26	27	3
135	135	3
27	27	4
22	33	1
32	32	1
33	33	4
15	17	2
119	119	2
63	63	4
3	3	2
76	76	5
35	35	9
69	71	1
78	78	2
1	35	2
44	44	4
94	95	1
121	122	2
106	109	2
2	2	2
61	64	2
53	54	1
22	23	1
96	96	2
69	69	6
119	120	1
84	85	1
92	94	1
104	126	1
7	10	1
49	49	4
86	86	1
63	64	1
60	65	1
8	29	1
33	36	1
18	19	1
114	114	4
22	22	1
72	79	2
8	8	1
12	12	3
43	69	1
77	77	4
131	131	1
93	93	1
67	90	1
4	4	3
61	62	1
129	130	1
55	55	2
67	67	2
127	128	1
30	31	1
71	71	4
61	61	3
59	59	2
64	64	3
105	105	2
17	17	1
24	24	3
126	126	4
132	132	1
6	6	3
118	118	2
21	34	1
74	80	1
30	32	1
25	33	1
73	73	6
29	37	1
47	47	1
18	34	1
42	42	1
7	7	3
62	62	2
95	95	2
20	20	1
97	98	1
74	75	2
80	80	1
118	119	1
130	130	1
60	61	3
30	30	3
127	127	1
1	28	1
94	94	2
21	21	4
34	35	1
85	85	2
36	36	2
112	112	2
1	1	1
16	16	3
87	87	3
108	112	1
100	100	4
93	94	1
57	57	1
26	32	1
71	88	1
90	95	1
15	15	4
77	78	2
113	113	1
79	80	1
98	99	1
73	74	1
52	52	3
60	60	1
133	133	1
62	63	1
14	14	2
48	49	1
46	70	1
11	11	3
74	74	3
58	59	1
49	65	1
102	102	1
55	56	1
115	115	1
110	117	1
117	117	1
114	115	1
23	24	1
50	50	2
21	33	1
99	100	1
76	77	1
70	70	2
18	18	1
91	128	1
0	0	1
90	90	1
99	99	1
14	21	1
28	28	1
8	9	1
123	123	1
9	10	1
124	124	2
106	106	2
57	58	1
5	5	1
4	5	1
54	55	1
75	75	1
29	29	1
122	122	1
83	83	1
54	54	2
103	104	1
25	25	1
52	88	2
65	65	1
37	37	1
79	79	1
11	12	1
123	124	2
50	80	2
91	111	2
103	103	1
26	26	1
53	58	1
50	52	1
4	100	2
119	121	1
43	44	1
34	34	1
100	101	1
3	4	1
54	59	1
94	105	1
44	45	1
69	70	1
52	54	1
84	84	1
91	109	1
66	69	1
58	76	1
