240	240	4
49	50	3
32	32	2
59	59	3
12	12	5
166	166	3
165	165	3
212	214	2
79	86	1
88	88	4
57	57	2
79	80	3
43	43	1
243	243	1
45	46	5
171	171	2
210	210	2
21	23	1
185	185	2
69	72	1
202	202	2
79	83	1
117	117	3
111	111	3
194	194	3
155	166	1
195	195	5
61	61	3
65	66	1
245	245	3
175	176	1
19	19	4
85	85	3
21	21	5
208	209	3
90	91	2
28	28	1
46	46	2
53	54	1
239	239	1
72	73	1
36	36	1
71	71	1
213	221	1
118	119	1
231	231	5
193	194	1
31	31	1
48	49	1
25	25	1
237	240	2
55	87	1
103	119	1
235	246	1
63	64	5
81	85	1
24	25	4
37	234	1
159	159	1
40	113	1
175	175	4
13	14	1
101	104	1
152	152	1
225	225	1
25	26	1
47	85	1
176	176	1
188	189	4
201	202	3
190	195	2
169	169	2
105	105	1
174	174	2
14	15	1
50	51	1
97	98	3
213	214	1
89	90	2
146	146	1
20	20	2
5	5	4
200	200	4
221	222	1
24	24	1
17	17	2
76	76	3
74	74	1
17	18	2
0	0	2
96	97	2
113	114	2
26	27	2
52	53	2
119	119	2
234	234	3
34	34	4
177	177	3
72	72	3
172	173	2
199	217	1
11	11	2
172	172	3
248	248	4
27	59	1
38	38	1
208	208	1
68	68	6
83	83	5
101	108	1
33	33	4
110	110	2
184	184	2
186	186	4
60	238	1
54	54	3
94	97	1
4	4	3
164	164	2
155	155	1
213	213	2
238	238	3
201	201	2
145	145	1
167	167	3
19	226	1
217	218	1
47	47	4
237	237	4
187	187	4
45	234	1
46	244	1
186	187	3
187	189	1
53	53	1
26	26	3
15	15	3
171	184	1
22	23	1
95	95	5
70	71	1
222	223	2
101	102	1
220	221	1
113	116	2
50	56	1
35	35	3
28	29	1
18	165	1
1	7	1
19	163	1
56	72	1
94	181	1
215	217	3
238	240	1
71	72	2
182	182	3
192	194	3
75	76	2
94	176	1
36	37	1
214	214	2
171	172	1
221	221	3
236	237	1
108	108	1
226	226	1
9	9	1
48	48	2
67	76	1
241	241	3
53	55	2
104	105	1
86	86	2
217	217	2
63	63	1
94	95	1
109	109	1
27	27	2
198	199	2
51	51	2
233	233	2
209	209	1
209	240	1
94	100	1
151	151	1
70	70	1
76	77	2
58	58	2
205	207	1
200	205	2
244	244	2
39	39	2
18	247	1
244	246	1
199	199	2
57	58	1
116	117	2
23	24	2
168	168	1
67	67	2
177	178	1
81	81	1
170	171	1
10	10	1
56	56	1
22	22	3
195	198	1
89	246	1
164	184	1
87	87	3
69	70	3
163	164	1
218	219	2
173	173	3
57	79	1
44	44	2
70	89	1
98	118	1
34	38	1
34	35	2
113	113	1
107	107	3
92	92	1
212	219	1
191	202	1
231	246	1
154	155	1
41	41	1
31	59	1
99	99	1
70	72	1
230	230	1
189	190	1
6	6	1
2	3	1
106	107	1
96	96	2
192	192	1
84	84	1
72	173	1
228	231	1
83	85	1
85	86	1
204	204	1
80	80	1
224	225	1
206	207	2
105	171	1
15	169	1
207	207	1
177	190	1
231	232	1
219	219	2
68	69	2
52	52	1
2	8	2
178	179	1
91	92	1
206	206	2
79	244	2
11	19	1
192	196	1
238	239	1
163	163	1
9	10	2
17	19	1
110	111	2
59	63	1
40	41	1
215	215	4
168	171	1
31	32	1
226	227	1
216	216	1
229	229	1
224	224	1
4	49	1
179	180	1
241	242	1
101	101	1
179	191	2
221	242	1
223	223	1
3	5	2
64	64	2
14	14	2
170	172	1
112	112	1
41	43	1
18	19	1
32	33	1
103	103	1
157	157	1
240	241	2
182	183	2
236	236	1
215	216	2
197	197	1
60	60	2
203	204	1
150	150	1
98	99	1
91	91	2
72	104	1
96	98	1
246	246	1
41	42	1
217	219	1
94	94	1
82	82	1
186	195	1
102	178	1
71	87	1
147	147	1
211	211	2
198	200	1
175	177	1
110	181	1
164	185	1
100	101	1
74	75	2
225	226	1
219	243	1
190	190	1
111	112	1
218	220	1
219	220	1
176	177	1
8	8	1
21	54	1
160	182	1
183	183	1
229	230	1
97	186	1
55	55	1
160	161	1
194	198	1
177	216	1
104	120	1
193	193	1
20	53	1
237	242	1
