89	90	3
119	120	1
69	75	1
26	26	3
72	72	1
12	12	4
108	109	1
18	18	2
114	114	5
48	112	1
20	20	2
47	47	8
66	66	1
24	24	3
132	132	4
9	9	1
114	115	3
47	74	1
48	48	5
27	27	2
32	32	5
129	130	1
81	81	2
43	43	4
50	50	3
93	95	2
21	43	1
46	46	3
10	11	1
102	104	3
91	91	3
92	92	4
51	51	3
113	113	1
65	67	1
85	86	1
52	53	1
121	121	7
101	102	1
105	105	3
7	7	2
67	67	3
109	109	7
125	125	4
112	112	1
54	111	2
125	127	2
56	56	9
111	119	1
111	111	2
116	116	5
53	56	1
111	114	1
106	107	2
54	54	6
25	26	1
11	11	1
75	77	2
23	23	3
106	106	4
55	55	3
5	5	4
8	10	1
126	128	1
39	42	1
123	123	4
104	104	6
94	101	1
85	85	1
112	114	1
16	16	2
124	124	4
125	131	1
96	96	3
69	69	2
41	44	1
123	133	1
99	99	3
130	130	1
25	28	1
116	117	1
110	110	3
50	52	1
76	77	1
57	57	3
3	120	1
12	48	1
31	32	4
12	114	1
122	122	4
100	100	1
64	64	3
38	39	2
71	71	4
52	109	1
84	84	1
93	94	1
59	59	2
29	29	1
42	43	1
83	84	1
106	108	1
52	52	2
68	69	2
104	107	1
73	74	1
118	118	3
104	105	1
61	61	1
58	85	1
90	90	3
89	89	1
88	88	1
13	48	1
21	33	1
39	39	2
67	70	3
3	3	1
99	100	1
109	121	1
76	76	1
65	125	1
58	58	2
63	69	1
1	2	1
117	119	1
63	64	2
124	125	1
74	74	1
98	98	2
129	129	2
30	30	1
132	133	1
86	87	1
27	28	1
120	120	4
15	16	1
69	124	1
58	98	1
117	117	1
127	127	1
70	96	1
0	0	1
82	82	1
107	107	2
2	2	3
80	80	1
69	70	1
46	47	1
46	48	1
86	86	1
102	102	1
58	63	1
95	95	1
117	118	1
1	1	1
131	131	3
65	65	1
45	45	1
122	133	1
119	119	1
59	61	1
19	19	1
123	124	1
49	50	2
28	28	1
31	31	1
108	108	1
68	68	1
49	65	1
63	63	1
1	58	1
1	57	1
15	30	1
63	126	1
25	25	1
115	115	1
82	83	1
1	51	1
55	70	1
13	13	1
15	15	1
