30	43	2
123	124	2
154	154	4
54	116	1
106	107	5
156	156	2
124	140	1
82	82	2
42	43	2
30	30	4
0	0	2
134	134	6
70	70	4
122	124	1
138	149	1
91	91	3
91	92	1
115	115	3
78	80	1
98	131	1
133	133	3
131	131	7
146	146	4
87	87	3
21	21	6
112	112	2
128	128	7
109	109	1
72	72	1
83	153	1
140	140	4
85	85	1
13	14	1
51	53	1
38	38	2
14	14	1
43	43	1
83	83	1
138	138	3
17	17	1
16	16	4
148	148	6
125	125	2
4	4	4
148	149	1
64	64	3
96	96	1
142	142	3
122	137	1
135	135	2
149	158	1
105	134	1
78	82	1
24	24	4
103	103	2
41	41	2
84	85	3
33	33	2
155	155	2
124	124	2
31	31	1
67	68	1
119	119	5
45	45	2
144	145	1
123	130	1
30	31	1
138	142	1
25	25	1
108	110	2
86	86	3
106	106	2
36	36	5
117	117	4
154	155	1
77	77	2
98	98	3
81	81	4
105	105	1
75	76	1
22	30	1
123	123	3
13	34	1
13	15	1
11	11	2
77	80	2
10	10	2
76	77	1
137	137	5
28	28	1
126	126	4
114	114	2
79	80	1
118	118	4
50	50	1
116	116	2
108	118	2
122	122	4
127	127	3
8	8	2
136	142	1
73	73	5
146	156	1
103	104	1
95	95	4
148	158	1
107	108	1
94	94	1
1	2	2
39	119	1
65	65	5
107	107	4
95	131	1
101	101	6
152	154	1
23	23	1
120	142	1
43	45	2
151	151	4
37	37	1
5	5	1
19	19	2
121	121	2
136	136	1
67	71	2
47	47	2
99	99	3
84	110	1
144	144	1
151	154	1
49	49	1
129	129	5
55	56	1
151	152	1
55	55	1
37	38	1
92	97	1
28	39	1
47	52	1
81	82	1
84	112	1
69	69	2
4	30	1
92	92	1
105	154	1
84	86	1
121	124	1
4	5	1
134	141	1
82	83	2
88	88	4
3	3	2
138	141	1
80	80	3
125	141	2
75	75	1
31	53	1
93	94	1
8	9	2
23	24	1
12	12	2
144	146	1
158	159	2
132	135	1
99	156	1
117	120	1
153	153	2
84	84	1
100	100	1
98	129	1
51	52	1
119	120	1
101	104	1
111	112	2
35	35	1
108	109	1
44	44	3
40	50	1
2	3	2
8	12	1
143	143	3
102	106	1
127	128	2
150	152	2
48	49	1
141	148	1
14	15	1
63	64	1
78	79	3
108	108	1
107	138	1
141	141	2
22	23	1
54	54	1
99	100	1
137	138	2
22	22	1
117	119	1
81	92	1
40	76	1
92	107	1
52	52	1
134	136	1
136	137	1
41	54	1
54	55	1
104	104	2
52	53	1
47	55	2
78	83	2
130	131	1
135	136	1
9	9	1
18	54	2
108	111	1
26	27	1
132	133	3
122	126	1
113	113	1
10	11	1
97	97	1
79	79	1
128	136	2
112	113	1
40	40	1
71	71	2
28	49	1
77	107	1
32	32	1
14	34	1
106	130	1
39	39	1
106	154	1
134	137	1
32	33	1
102	102	1
131	141	1
129	130	1
134	154	1
30	32	1
132	132	1
120	134	1
77	97	1
128	139	1
99	101	1
42	42	1
113	114	1
14	17	1
97	98	1
124	138	1
113	115	2
36	38	1
28	29	1
32	40	1
20	36	1
50	51	1
110	110	1
29	29	1
83	84	1
15	20	2
158	158	1
104	105	1
22	99	1
63	83	1
134	143	2
124	125	1
134	157	1
21	33	1
68	68	1
5	6	1
88	90	1
19	34	1
140	141	1
120	133	1
135	137	1
130	132	1
133	153	1
111	114	1
7	7	1
121	130	1
73	158	1
26	26	1
