112	112	6
66	66	3
12	12	2
97	98	2
44	44	3
80	90	1
115	118	1
14	14	2
21	22	1
29	30	2
92	99	1
115	115	9
132	132	5
62	62	4
118	118	6
99	99	5
117	122	1
41	41	2
110	111	1
49	49	3
108	110	1
52	52	3
107	107	8
68	68	2
133	133	4
109	109	5
80	81	1
109	121	1
130	131	1
114	114	3
48	48	4
53	53	3
121	121	5
40	43	1
51	51	4
100	101	2
98	98	3
72	76	2
83	88	2
43	44	3
128	128	4
8	8	1
63	63	1
21	26	1
103	103	3
76	76	3
18	18	1
111	111	8
57	57	7
88	88	4
50	51	1
90	92	2
67	68	3
92	101	1
119	119	2
62	63	2
65	65	5
117	117	7
129	130	3
56	56	3
97	97	1
71	122	1
14	40	1
101	101	7
34	34	5
95	96	1
40	126	1
25	25	2
77	77	4
23	24	2
86	86	2
53	110	2
69	69	4
122	124	1
89	91	3
3	3	2
59	59	1
15	15	2
124	124	10
90	90	4
64	64	4
116	118	1
79	84	1
46	48	1
59	60	3
115	116	1
96	96	3
13	13	2
120	120	5
26	26	3
110	110	3
112	114	1
50	52	1
17	17	2
116	116	5
54	54	5
61	62	1
107	108	2
46	46	2
21	33	1
123	123	6
0	0	1
0	1	1
23	23	3
122	123	2
55	55	5
1	1	1
78	86	1
65	67	1
122	122	4
89	92	1
105	106	3
132	133	2
12	17	2
113	119	1
40	45	1
43	43	3
77	83	1
130	130	2
100	100	1
16	16	3
94	107	1
64	65	1
50	50	1
131	131	3
60	60	2
81	81	2
21	21	3
86	90	2
106	106	1
1	3	1
65	85	2
38	38	1
24	25	1
104	104	3
49	56	2
75	75	2
68	71	1
68	69	1
123	124	1
70	70	1
125	125	5
19	19	1
95	116	1
74	130	1
129	129	3
100	109	1
78	79	1
115	117	1
5	8	1
25	27	3
42	60	1
49	69	1
48	124	1
102	102	3
8	9	1
118	120	1
105	105	3
80	80	1
113	114	1
32	33	1
5	5	3
126	127	3
32	32	1
85	85	1
56	57	2
27	66	1
124	125	4
106	107	2
129	131	1
91	117	1
123	125	1
72	72	2
93	93	3
88	103	1
75	84	1
24	24	2
49	50	1
124	129	1
10	10	1
73	81	1
89	89	1
47	47	2
58	58	2
17	38	1
28	28	1
87	101	1
73	75	3
127	128	1
52	53	1
46	47	1
20	21	1
6	7	2
45	61	1
33	33	1
9	10	1
51	112	1
108	108	2
38	40	1
42	42	1
118	119	2
125	127	1
27	29	1
73	85	1
113	113	2
92	92	2
71	72	1
64	114	1
9	9	3
87	87	1
11	12	1
70	80	1
83	83	1
40	125	1
30	30	1
93	94	1
14	15	1
1	2	1
29	29	1
78	80	1
91	93	1
44	45	1
94	94	2
92	93	1
79	79	2
58	59	1
57	58	1
2	2	1
76	77	1
55	57	1
109	110	1
86	87	1
37	38	1
71	71	1
18	19	1
57	112	1
60	61	1
26	27	1
61	61	1
54	114	1
