44	44	4
52	52	6
83	83	2
73	73	3
66	107	4
124	124	13
63	114	1
113	113	6
69	69	6
98	98	3
97	97	3
68	68	3
14	130	1
88	90	2
107	107	3
53	53	7
110	110	5
127	127	5
117	117	6
66	68	2
93	93	4
13	23	2
133	133	3
107	108	1
15	16	3
61	61	8
48	53	1
126	126	6
86	86	10
48	48	9
1	21	1
44	92	1
125	125	5
24	24	3
122	123	2
78	79	4
119	119	6
28	34	3
17	43	2
126	128	2
108	108	6
81	85	2
95	118	4
18	18	2
11	11	1
50	50	6
81	82	2
87	87	3
104	104	8
49	51	3
55	56	2
89	89	7
77	84	1
60	61	2
60	60	5
3	7	1
79	79	5
45	45	6
79	84	1
18	20	1
26	27	1
28	31	3
43	91	1
31	32	1
111	111	8
110	113	1
83	91	1
86	91	1
113	114	2
99	100	1
19	20	1
28	29	3
47	52	1
117	119	1
49	49	9
70	73	1
105	105	7
23	24	2
128	128	5
111	112	2
65	90	1
132	133	1
40	84	1
43	44	2
79	81	2
73	74	2
8	8	1
39	39	3
59	59	3
129	129	2
115	116	3
70	72	2
50	51	1
114	114	5
92	94	1
87	91	2
19	62	1
57	122	1
126	130	1
117	118	2
40	77	1
84	84	3
4	4	3
74	75	1
97	98	4
42	47	1
54	54	4
64	65	2
115	115	5
120	120	5
122	122	4
30	34	1
98	129	1
13	13	4
56	108	1
69	71	2
85	86	2
123	124	3
96	96	5
90	91	4
71	131	1
28	64	1
15	15	4
100	100	3
63	63	4
5	5	4
51	58	1
40	42	1
99	99	7
10	24	1
77	77	3
26	26	3
66	104	1
126	127	3
46	51	2
76	76	3
70	118	2
18	19	1
49	53	1
81	81	3
4	5	2
47	47	1
71	74	2
80	82	1
33	56	1
40	40	2
104	105	5
116	117	5
92	96	1
95	95	2
10	11	2
66	66	3
101	103	2
103	103	6
59	62	1
102	103	1
108	110	1
109	119	1
32	60	1
131	132	2
13	130	1
124	125	1
19	19	2
72	72	3
96	97	1
128	129	1
109	110	3
55	55	1
32	33	3
121	121	7
132	132	5
86	88	1
62	66	1
7	7	1
68	71	1
94	94	1
23	23	4
113	116	1
75	75	3
34	75	1
104	117	1
67	67	6
19	76	1
79	87	1
32	32	2
82	103	1
65	67	1
105	106	3
64	64	1
56	56	2
16	17	4
92	92	3
29	32	1
43	43	3
6	6	4
108	128	3
63	65	1
116	116	2
100	104	1
22	25	1
112	113	1
120	121	2
109	109	8
2	2	2
74	74	5
131	131	3
32	34	1
88	88	3
46	46	3
98	100	1
110	132	1
14	15	1
59	73	2
53	54	1
68	80	1
1	1	2
91	92	2
123	123	2
106	106	7
101	102	1
100	102	1
127	129	1
122	128	1
78	78	1
45	78	1
32	52	1
80	86	1
22	23	1
38	38	2
16	39	1
46	89	1
73	96	1
72	97	1
9	131	1
75	115	1
58	58	3
119	121	1
92	102	1
45	46	1
47	48	2
111	121	2
106	122	1
118	119	1
90	96	1
68	73	1
85	85	1
51	51	3
91	91	2
9	53	1
108	109	1
125	129	1
39	63	1
44	83	1
94	95	3
72	79	1
46	55	1
94	102	1
82	82	4
42	43	1
83	85	1
26	29	1
103	127	2
96	98	2
88	89	3
45	49	1
93	104	2
124	133	1
41	42	2
50	52	1
27	31	1
92	95	2
19	32	1
97	99	2
30	30	1
101	101	1
21	41	1
0	3	1
14	14	2
57	110	1
87	88	2
96	99	1
120	123	2
68	116	2
110	111	2
33	57	1
15	130	1
108	117	1
0	0	1
76	89	1
26	33	1
64	89	2
27	27	4
52	53	2
26	32	1
102	102	1
49	104	1
56	76	1
11	12	1
63	76	1
33	33	2
39	41	1
112	112	2
12	13	1
110	120	2
41	41	1
73	88	1
130	131	2
51	52	3
7	8	1
65	74	1
73	78	2
72	73	2
95	106	1
110	124	1
69	96	1
22	22	2
108	124	1
108	122	1
5	11	1
70	71	2
46	47	1
42	74	1
69	124	1
46	50	1
85	106	2
34	34	2
69	70	1
48	49	2
18	38	1
30	31	1
30	69	1
75	77	1
71	71	2
106	107	1
62	63	1
114	115	1
29	33	2
93	106	1
4	6	1
81	90	1
48	104	1
124	128	1
20	20	1
127	128	2
90	90	3
116	120	1
130	130	2
63	81	1
66	69	1
60	63	1
71	94	1
84	99	1
44	80	1
86	102	1
14	122	1
82	84	1
125	128	2
76	77	1
9	9	1
89	91	1
45	51	1
63	64	1
65	65	3
45	48	1
83	84	1
118	118	1
42	42	1
23	33	1
129	130	1
60	72	1
89	106	1
32	66	1
12	12	1
79	80	1
88	91	1
72	76	1
40	43	1
70	70	1
30	48	1
75	76	1
45	66	1
123	128	1
110	123	1
14	16	1
46	63	1
10	10	1
57	92	1
76	106	1
28	28	1
11	24	1
43	86	1
