123	124	1
33	33	2
182	182	2
160	179	1
44	44	3
67	68	1
83	83	1
10	37	2
166	168	2
178	178	2
125	125	2
156	156	4
122	122	4
67	67	2
153	153	2
101	101	1
4	5	1
17	17	4
12	12	5
41	41	3
20	20	1
36	36	4
48	48	3
187	188	3
163	164	2
130	130	2
172	172	2
191	191	4
139	170	1
145	148	2
149	149	1
58	58	3
10	10	5
187	187	3
146	146	2
81	81	3
46	46	4
18	21	1
193	193	4
142	142	2
160	160	1
183	183	3
18	18	1
194	194	2
38	38	3
97	102	1
104	114	2
11	12	1
23	23	4
19	19	2
160	187	1
14	14	3
50	50	2
71	72	2
137	152	2
35	35	1
145	146	2
104	105	1
43	43	4
21	24	1
34	34	1
133	133	2
63	63	3
37	37	5
40	40	3
163	163	2
29	29	2
184	195	1
23	32	1
145	145	3
9	9	10
114	114	2
165	168	1
9	138	1
122	123	1
25	25	3
5	5	2
188	189	1
124	124	1
179	179	1
22	22	3
6	6	2
157	157	1
60	60	3
54	54	2
1	1	1
10	11	1
192	192	1
171	172	1
169	169	4
47	47	1
42	42	3
45	47	3
136	136	1
53	53	1
118	120	2
64	64	2
158	159	1
71	71	1
186	186	1
192	193	2
57	57	2
121	121	3
183	184	2
32	32	1
69	71	1
8	8	1
111	111	2
105	105	1
51	51	1
5	6	3
70	70	2
31	31	4
70	87	1
127	127	2
24	134	1
56	56	1
100	100	2
118	118	1
44	45	1
69	70	1
3	3	1
24	24	1
79	81	1
26	26	1
45	45	3
69	77	1
119	119	1
17	19	1
0	0	1
151	176	1
7	8	3
159	160	2
141	141	5
15	15	4
4	4	3
191	192	1
178	179	1
10	38	1
134	134	1
20	31	2
140	140	2
62	62	1
108	108	1
61	61	1
7	7	3
69	136	1
171	171	1
144	190	1
117	118	1
99	99	1
68	68	2
9	10	1
152	152	1
155	155	1
120	121	1
129	129	1
15	16	1
160	161	3
123	123	1
113	113	3
112	112	2
16	17	1
23	24	1
73	136	1
39	45	1
11	11	1
43	44	1
59	59	1
168	168	3
33	69	1
132	132	1
14	111	1
30	30	1
32	33	1
69	69	2
40	41	2
3	6	1
110	112	1
26	30	1
182	183	1
193	195	1
43	52	1
105	106	1
102	176	2
138	138	1
110	111	1
51	52	2
170	170	1
157	170	1
184	184	1
13	14	1
158	167	1
52	52	2
155	156	1
70	99	1
5	25	1
89	89	1
112	137	1
173	173	2
27	102	1
132	133	1
76	90	1
18	25	1
173	174	1
133	140	1
193	194	1
9	42	1
196	196	1
195	195	2
14	40	1
183	197	1
64	65	1
149	160	1
155	185	1
107	107	1
12	15	1
0	3	1
160	162	1
175	186	1
49	49	1
152	153	1
17	194	1
100	142	1
27	27	2
59	60	1
188	192	1
102	104	1
172	174	1
94	94	1
144	144	1
51	59	1
95	95	1
139	139	1
6	7	1
150	150	1
24	25	1
148	190	1
152	155	1
170	194	1
150	159	1
