42	42	1
187	187	2
37	37	9
65	65	2
170	170	4
25	25	6
142	193	2
4	4	3
13	13	2
175	175	4
21	67	2
14	15	1
142	152	1
193	193	3
138	155	1
18	18	4
53	53	6
187	193	1
149	149	3
113	119	1
67	68	2
54	59	1
190	190	2
133	133	2
143	143	5
11	11	3
33	47	2
43	43	4
157	157	5
6	6	2
35	78	1
10	47	1
52	56	1
12	12	3
155	164	1
21	24	1
52	52	1
125	125	1
29	29	6
159	159	3
193	194	3
177	177	6
68	68	4
51	53	1
164	192	2
105	105	2
109	111	3
63	64	1
119	136	1
26	34	1
152	152	1
156	156	2
17	17	4
112	113	1
102	103	4
163	163	1
161	161	2
145	146	1
57	57	1
171	171	3
23	23	2
4	41	1
67	72	1
58	59	2
133	197	1
15	15	4
78	78	1
139	140	2
171	185	1
183	183	5
8	42	1
125	197	1
159	161	1
164	164	4
182	182	2
148	148	1
89	89	1
82	85	1
7	19	1
10	28	1
128	128	5
153	153	2
0	3	1
177	197	1
127	127	2
158	158	4
155	156	1
99	112	1
186	186	1
135	135	2
44	45	2
56	56	2
36	36	4
176	177	3
69	69	2
10	130	1
99	139	1
129	129	1
9	9	2
70	195	1
138	138	1
10	11	2
51	111	1
36	76	1
94	94	1
58	58	2
35	35	3
165	165	1
151	151	3
19	19	2
3	27	2
2	2	4
142	183	1
165	168	1
61	63	1
46	47	1
4	9	1
59	59	2
135	136	1
194	194	7
180	191	1
197	197	4
20	20	3
176	176	1
132	133	1
34	35	2
179	182	1
14	129	1
47	47	2
41	156	1
175	188	1
169	169	3
11	12	1
28	28	7
74	74	3
3	3	4
39	41	2
162	172	1
33	33	2
35	68	1
141	141	1
14	16	1
100	100	3
51	51	1
153	165	1
119	120	1
184	184	1
77	77	1
188	188	4
154	155	1
1	1	1
83	86	2
147	148	2
109	110	1
192	192	3
142	142	3
160	160	2
41	107	1
34	34	4
19	24	1
155	155	3
130	130	1
181	181	2
3	4	1
69	108	1
172	173	2
118	118	1
9	10	2
107	108	1
110	143	1
151	187	1
126	127	3
7	7	2
27	28	3
126	126	1
58	60	2
119	119	4
44	44	1
38	38	2
147	147	2
140	140	3
16	17	1
158	159	3
192	193	2
103	162	1
24	24	4
80	80	2
46	46	3
26	27	1
66	69	1
38	39	3
57	58	1
122	122	3
87	87	1
180	181	1
108	113	2
117	118	2
151	152	1
141	169	1
142	143	1
48	48	2
63	131	1
19	21	1
167	167	3
157	158	1
59	61	1
186	187	1
98	121	1
30	31	1
134	134	1
76	77	1
98	98	2
114	114	2
79	79	2
122	123	1
123	124	1
113	113	1
38	185	1
180	180	2
16	16	1
168	168	1
185	185	2
137	137	2
179	179	1
97	105	1
70	71	1
44	46	1
15	33	1
105	108	1
0	1	2
71	73	1
152	153	1
189	189	2
134	186	1
101	101	1
30	30	1
97	100	1
100	150	1
20	31	1
28	29	1
180	182	1
58	65	1
13	64	1
158	177	1
132	132	2
6	8	1
110	110	2
25	27	1
72	72	1
45	46	1
39	39	1
17	19	1
5	5	2
75	76	1
171	172	1
132	143	1
138	139	1
162	162	1
22	22	3
84	85	1
95	95	1
85	86	1
146	166	1
123	123	1
2	3	2
83	84	1
32	32	1
103	103	2
171	178	1
96	96	1
96	141	1
14	14	1
40	41	1
188	189	1
22	94	1
31	31	3
26	36	1
28	31	1
178	178	1
172	172	1
18	21	1
139	139	1
187	190	1
171	189	1
102	102	2
168	173	1
63	191	1
174	175	2
137	167	1
136	136	1
40	40	3
46	77	1
7	8	1
33	37	1
36	38	1
166	166	1
98	142	1
13	14	1
160	162	1
136	137	1
3	5	1
101	105	1
95	97	1
82	82	1
3	36	1
10	13	1
3	68	1
64	64	1
121	121	1
164	165	1
5	6	1
74	75	1
163	167	1
72	73	1
134	136	1
115	115	1
100	125	1
54	55	1
146	146	1
119	121	1
0	0	1
112	112	1
47	48	1
141	183	1
6	7	1
103	120	1
113	115	1
