25	25	5
165	165	2
24	24	3
138	139	2
13	13	5
109	109	1
160	160	4
140	141	2
154	154	3
50	50	4
119	119	1
73	73	1
132	132	3
158	158	4
0	0	1
90	90	2
6	6	5
117	118	3
35	35	5
41	41	4
115	156	2
138	138	3
125	125	1
76	108	1
71	71	5
162	163	2
76	76	1
83	83	2
148	157	1
147	147	2
166	166	5
153	153	2
149	151	1
21	21	5
12	12	1
100	100	2
142	142	3
40	40	6
142	144	2
14	14	3
47	47	4
163	164	4
133	133	3
137	147	1
14	15	1
129	129	1
4	4	2
140	140	3
50	51	1
62	65	1
66	66	1
89	89	1
17	17	4
95	96	1
115	115	1
11	45	1
106	106	3
90	127	1
80	80	2
144	144	1
113	113	2
37	37	2
57	67	1
18	18	4
42	43	2
124	124	5
81	81	1
150	158	1
44	45	3
146	147	1
151	151	3
68	68	2
134	134	3
47	51	1
120	122	1
43	43	4
89	90	1
8	8	1
34	35	1
143	143	2
70	70	1
15	15	2
113	155	1
18	19	1
69	69	2
156	157	1
6	7	3
22	22	3
170	170	3
24	25	2
49	49	1
96	96	2
87	88	2
127	127	1
150	150	2
20	22	1
88	89	1
169	169	2
159	159	1
145	145	4
73	92	1
150	151	2
5	5	2
152	152	3
52	52	2
65	68	1
148	168	1
45	45	3
156	156	1
146	146	1
139	139	2
13	14	1
113	114	1
116	154	2
121	132	1
87	89	1
74	74	1
122	122	1
80	83	2
21	22	1
52	116	1
168	170	1
104	131	1
155	155	2
3	3	2
120	133	1
44	44	4
36	36	3
56	56	1
20	20	3
118	118	1
131	132	1
86	86	4
46	46	2
108	108	1
1	1	4
99	135	1
149	149	1
152	153	1
131	153	1
163	163	1
140	165	1
135	135	3
147	148	3
136	136	1
162	162	1
103	104	2
7	7	3
161	161	4
45	70	2
144	145	2
164	165	1
84	85	1
103	103	1
79	79	1
163	165	1
169	170	2
107	112	1
107	107	1
27	27	1
157	157	1
128	129	1
9	10	1
167	167	2
150	169	1
28	28	1
93	97	1
147	155	1
164	164	1
2	2	2
42	42	2
103	131	1
109	110	1
102	102	1
22	23	3
148	149	1
168	168	2
69	70	2
67	67	1
137	138	1
47	49	1
121	121	2
45	46	1
66	67	1
9	9	1
38	38	1
71	149	1
51	51	1
136	137	2
56	58	1
110	110	4
98	98	1
19	101	1
14	43	1
131	131	1
80	100	1
5	6	1
128	128	1
19	19	1
74	122	1
23	50	1
88	88	1
49	51	1
158	159	1
28	138	1
41	43	1
137	137	2
39	39	1
120	120	1
102	129	1
23	23	1
16	20	1
82	99	1
12	17	1
91	91	2
23	24	1
100	104	1
153	157	1
4	42	1
158	161	1
81	93	1
129	130	1
99	99	1
154	155	1
134	135	1
153	154	1
8	16	1
10	10	1
