179	181	1
167	168	1
10	14	3
145	145	7
49	49	2
53	58	1
172	172	6
115	115	4
22	23	1
5	5	5
24	24	4
117	119	1
182	183	1
29	29	5
99	100	1
70	70	4
165	166	1
170	170	7
190	190	4
34	64	1
94	98	1
11	11	5
97	97	2
98	98	3
8	8	6
113	113	2
113	114	2
48	48	6
121	135	2
26	27	5
28	28	5
173	174	2
46	46	8
12	12	8
106	106	7
34	35	6
35	36	2
84	84	3
52	52	3
20	24	1
24	26	2
64	64	2
65	65	2
181	181	5
152	152	3
25	25	5
68	68	6
88	88	3
133	134	1
151	184	2
10	12	1
39	133	1
83	84	1
60	195	1
191	192	2
142	142	5
18	19	3
117	117	2
44	44	11
149	150	1
15	15	3
0	0	7
169	170	1
94	94	3
80	82	1
25	64	1
39	39	6
19	19	4
9	54	1
180	182	1
105	105	3
61	61	5
20	23	1
79	79	2
39	41	3
38	67	1
35	35	4
165	165	2
128	128	3
104	104	3
50	51	1
176	176	4
27	30	1
5	27	2
34	36	1
21	21	5
11	39	2
46	48	2
110	126	2
175	194	1
15	71	1
22	24	1
10	10	6
37	37	9
119	132	1
28	29	4
103	113	1
183	183	3
116	121	3
154	154	4
43	43	9
120	188	1
32	32	4
50	52	1
104	106	1
114	114	9
59	59	4
151	151	5
25	85	1
28	30	1
27	27	4
7	8	2
193	193	4
83	83	1
60	60	2
146	148	1
71	71	2
100	110	1
34	34	7
3	3	4
134	135	1
38	62	1
45	45	4
72	72	7
38	38	11
166	167	1
16	41	1
171	186	1
69	69	2
136	136	3
40	40	5
171	171	3
149	149	3
10	11	4
102	108	1
155	158	1
31	31	2
128	129	1
1	3	1
0	1	4
16	16	2
85	86	1
2	2	6
131	144	1
88	89	2
139	139	3
55	55	5
158	158	4
20	21	3
9	16	1
120	121	2
121	187	1
25	60	1
194	194	3
153	154	1
6	6	1
45	46	2
121	121	3
47	47	6
14	14	6
177	177	3
164	167	1
116	117	2
159	159	5
142	143	2
22	22	7
51	51	6
42	43	2
36	36	1
67	68	3
125	126	2
13	13	3
183	184	1
197	197	4
15	159	1
132	132	2
86	86	2
99	156	2
138	139	1
174	174	2
147	147	4
153	153	3
164	164	1
166	166	1
82	82	2
41	42	2
108	108	3
194	195	1
23	25	1
85	85	5
27	28	4
192	192	2
188	188	3
94	108	2
56	56	6
67	67	1
151	172	1
156	180	1
129	129	1
140	140	3
144	176	1
104	111	1
195	195	2
161	161	5
156	156	1
9	9	7
33	33	5
5	8	1
63	63	2
66	73	1
63	64	3
186	186	3
17	17	2
176	177	1
100	100	2
192	193	1
186	194	1
123	149	1
168	168	2
130	130	5
57	57	1
61	187	1
20	20	1
29	31	1
26	28	1
150	151	2
41	41	2
0	2	1
188	189	3
77	78	2
87	90	1
180	181	1
58	58	2
161	162	2
118	118	2
13	185	1
186	193	1
178	178	3
109	110	1
135	137	3
1	1	5
103	104	2
18	18	2
136	137	1
62	62	5
191	191	1
50	50	5
54	54	5
125	125	4
138	138	5
4	5	3
150	150	1
96	103	1
140	142	2
123	135	1
163	163	4
135	136	3
119	143	2
31	81	1
160	161	1
90	90	2
99	99	3
189	190	1
94	97	2
71	112	1
19	23	1
9	10	1
184	184	1
102	106	3
128	142	1
94	95	1
162	162	2
26	26	2
180	180	2
130	142	1
57	58	1
28	32	1
60	191	1
141	141	1
122	123	1
74	74	3
114	117	1
166	190	1
44	115	1
152	159	2
123	124	3
148	159	1
2	24	1
70	119	1
123	123	1
62	192	1
138	160	1
59	60	1
96	96	1
119	119	4
18	165	1
53	53	2
60	61	1
185	196	1
157	158	1
95	97	1
95	95	3
109	118	1
187	187	3
7	7	3
131	132	2
3	4	3
98	99	3
79	81	1
170	171	1
186	190	1
94	127	1
65	67	1
67	69	1
111	111	1
89	89	1
159	168	1
102	102	2
47	57	1
23	23	3
168	169	2
110	110	1
137	138	1
124	124	3
27	29	1
112	112	3
100	124	1
34	85	1
120	120	1
37	38	2
46	47	3
107	107	3
75	84	2
42	42	3
27	36	2
146	146	2
87	87	1
62	135	1
66	67	1
190	191	4
127	128	1
158	164	1
129	152	1
9	27	1
148	168	2
101	101	1
131	131	2
181	182	1
149	152	1
105	113	1
34	39	1
72	101	1
107	112	1
174	175	1
182	182	2
8	30	1
18	26	1
69	87	1
164	166	1
12	99	1
179	179	1
106	107	1
111	120	1
40	42	1
87	107	1
169	186	1
161	166	1
154	156	1
48	52	2
78	82	1
157	157	3
16	42	1
103	103	1
16	40	1
130	150	1
8	9	1
3	19	1
5	9	1
75	75	1
173	175	1
168	174	1
193	195	1
116	116	1
109	137	1
160	160	1
187	188	2
167	167	1
1	7	2
23	31	1
196	196	1
59	67	1
71	73	1
143	143	1
172	176	1
66	88	1
135	135	2
178	179	1
185	185	1
111	135	1
134	140	1
134	134	2
73	73	1
27	33	1
127	127	1
11	61	1
73	79	1
76	81	1
156	165	1
12	54	1
177	182	1
13	65	1
30	30	1
57	65	1
21	25	1
177	178	2
29	67	1
146	147	1
139	140	1
41	43	1
66	66	1
47	48	1
87	89	1
178	189	1
61	68	1
126	126	1
151	152	1
156	179	1
155	180	1
61	189	1
