77	80	3
91	91	13
98	98	6
32	32	6
50	51	2
37	38	1
67	79	1
102	106	2
31	31	6
91	92	11
88	88	3
52	53	5
34	34	1
67	67	2
36	37	6
80	83	1
99	99	3
38	38	13
90	91	10
93	93	17
59	60	2
71	73	1
20	60	2
110	111	2
111	111	4
21	21	5
112	112	3
52	52	7
35	81	1
63	64	2
108	108	6
113	113	2
90	108	3
90	90	8
72	72	1
65	65	2
101	103	3
26	26	5
63	66	3
91	93	6
30	31	3
40	40	4
47	98	1
97	97	4
102	102	9
90	92	4
83	100	2
81	90	3
30	30	7
81	81	6
45	45	5
47	47	6
76	76	3
62	63	3
48	49	1
48	100	1
82	82	2
36	36	3
80	97	2
25	25	6
56	56	1
20	21	1
100	100	2
93	108	4
39	58	1
53	53	4
39	72	1
71	90	1
25	26	1
92	108	2
30	95	1
76	77	3
69	82	2
41	41	6
42	42	5
53	57	1
87	88	3
81	93	4
41	97	1
35	35	1
62	62	4
43	43	2
97	98	3
46	46	3
29	29	7
100	101	4
90	93	1
77	77	3
27	27	4
110	110	7
47	49	1
33	33	4
83	83	3
56	82	1
48	48	9
73	113	2
88	89	1
53	61	1
57	58	1
98	100	1
109	109	3
19	19	4
103	104	1
109	110	2
84	84	2
92	93	3
64	65	2
63	72	1
103	103	1
42	110	2
61	62	1
45	96	1
41	42	2
82	89	1
105	105	3
23	23	3
44	46	1
81	92	2
68	68	2
22	24	1
54	57	3
98	114	1
95	109	1
93	96	1
47	72	2
66	67	1
103	107	1
42	66	2
81	91	3
64	64	4
101	107	1
89	90	2
24	61	1
94	94	2
22	23	2
68	69	1
59	59	3
108	109	1
77	78	2
101	101	2
74	74	3
44	47	1
93	94	1
30	49	1
69	69	2
43	44	1
24	98	2
41	99	2
37	37	2
76	87	1
47	102	1
29	50	1
67	71	1
97	102	1
24	24	3
80	80	1
92	92	5
78	79	1
28	29	2
60	60	5
92	94	1
53	55	3
43	78	1
49	49	3
29	98	1
41	53	1
70	72	1
106	107	2
20	20	1
73	73	2
81	84	1
99	101	1
57	63	1
87	87	3
97	111	1
47	93	1
66	80	1
95	95	6
43	66	1
22	22	6
82	83	1
75	75	3
66	66	1
38	39	1
61	81	1
28	28	2
89	108	1
96	98	1
39	39	4
44	45	1
78	78	2
46	95	1
65	70	2
94	103	1
47	48	1
101	102	1
77	79	1
29	30	2
54	54	4
67	76	2
45	46	2
79	79	2
91	108	1
82	84	1
90	94	1
104	104	2
110	112	1
53	73	1
59	61	3
35	36	1
27	47	1
94	95	2
66	78	1
57	98	1
55	91	1
67	68	1
44	65	1
20	89	1
44	69	1
112	113	1
27	28	2
46	47	1
79	85	1
44	44	3
98	111	1
87	90	1
61	63	1
95	103	1
104	105	1
66	87	1
56	58	1
69	94	1
30	46	1
80	82	1
65	66	1
21	25	1
48	71	1
81	83	1
102	110	1
20	26	1
58	59	1
42	59	1
53	114	1
95	96	1
30	41	1
32	51	1
76	78	1
39	40	1
111	112	1
75	76	1
28	30	1
64	74	1
63	63	1
