4	16	2
5	6	5
34	35	2
66	66	5
29	29	3
36	36	6
36	55	2
56	56	4
60	60	7
5	7	1
63	65	3
30	30	4
67	68	1
8	8	3
49	50	1
28	28	5
0	0	4
77	77	3
49	49	5
72	72	7
38	38	7
52	52	5
76	76	3
43	43	3
28	29	1
36	37	1
72	73	2
62	63	1
64	64	4
61	73	2
50	50	5
48	49	1
58	58	1
33	35	2
50	55	1
2	2	3
54	54	4
7	7	2
31	31	3
28	31	1
59	62	1
13	14	2
32	32	8
50	52	1
14	14	6
65	65	2
54	55	3
46	46	6
34	42	2
58	59	2
57	57	4
17	21	2
55	55	6
55	56	2
27	27	4
37	37	7
3	4	1
37	39	1
12	12	5
74	74	4
30	32	1
33	40	2
64	65	2
42	42	10
26	26	8
29	48	1
59	59	1
15	26	1
35	36	2
41	41	7
49	53	1
39	39	6
33	34	2
47	47	3
33	49	1
27	30	2
31	49	1
40	40	6
73	76	1
73	73	4
31	32	1
65	66	3
75	76	1
27	29	1
69	69	6
35	35	6
8	10	1
5	5	4
51	52	1
56	57	2
32	54	1
67	67	3
37	40	1
32	35	1
4	4	2
79	79	2
11	11	3
25	25	1
10	10	4
59	63	2
3	3	2
39	49	1
16	16	2
48	48	1
64	70	2
9	9	2
44	61	1
19	19	4
17	17	4
62	62	2
56	59	2
56	60	1
47	62	2
1	4	1
27	33	1
68	69	1
53	53	3
80	80	2
6	7	2
70	70	4
66	75	1
44	46	1
14	15	2
40	42	1
33	33	2
69	74	1
8	9	3
68	68	3
44	45	1
41	42	1
1	1	2
47	48	1
69	70	1
66	67	2
1	76	1
63	64	4
57	58	2
61	61	1
51	51	1
78	78	3
62	64	3
65	67	1
55	64	1
52	54	1
67	74	1
27	28	1
53	55	1
71	71	3
55	57	1
20	20	1
6	6	3
73	74	2
25	26	1
50	51	2
63	63	1
34	34	2
75	75	2
30	42	1
57	59	1
13	20	1
52	53	1
60	61	1
52	70	2
34	73	1
5	19	1
39	40	2
45	45	3
26	28	1
51	63	1
32	33	1
46	47	1
56	67	1
40	43	1
40	49	1
57	60	1
76	77	1
34	46	1
57	79	1
45	57	1
61	62	1
17	18	1
48	61	1
30	31	2
28	57	1
4	5	2
15	15	1
16	47	1
33	61	1
26	27	1
50	53	1
58	61	1
81	81	1
27	40	1
39	41	1
18	18	1
67	70	1
72	76	2
56	64	1
74	77	1
66	73	2
34	40	1
7	10	1
56	61	1
71	72	1
