77	77	6
14	14	6
51	65	1
179	179	8
162	162	2
145	145	5
36	36	5
74	74	6
92	93	1
9	9	3
163	163	3
151	151	5
76	81	1
113	113	5
152	154	1
98	98	3
56	56	5
37	100	1
13	13	5
63	63	2
127	127	3
86	87	1
168	168	7
112	112	3
136	136	4
100	100	4
110	133	2
140	140	9
20	20	2
32	38	1
139	139	6
133	133	5
164	164	2
157	158	2
99	100	1
1	2	1
175	176	1
146	165	1
179	180	1
120	166	1
114	179	1
12	12	2
125	125	5
107	107	5
180	180	4
171	171	5
135	136	1
22	23	3
177	177	2
18	41	1
52	61	3
76	76	6
28	30	1
64	65	1
85	85	3
149	150	4
160	160	5
110	124	2
120	120	5
80	80	1
75	75	4
17	27	1
80	81	2
119	119	3
137	137	2
112	119	2
154	155	1
1	3	1
116	116	3
96	96	5
41	43	2
143	143	5
115	147	1
159	163	1
38	38	5
45	45	5
114	114	4
122	123	1
147	148	1
65	68	1
138	138	8
88	88	7
22	22	3
110	111	1
115	115	1
149	149	6
1	1	7
26	27	2
54	66	1
6	6	4
175	175	2
35	102	2
150	150	5
99	119	1
45	51	1
76	77	3
4	4	4
154	154	3
116	117	1
59	61	4
114	115	2
63	64	2
89	89	4
111	112	3
78	79	1
177	178	1
77	78	1
53	53	4
23	25	1
60	60	3
54	54	2
142	142	6
106	129	1
122	122	2
29	29	2
17	17	4
37	37	6
130	130	6
2	6	1
163	168	1
31	31	3
113	114	1
127	128	1
89	112	1
10	10	3
117	119	1
11	11	4
126	127	1
113	146	3
169	172	2
64	64	5
36	38	1
166	167	1
102	102	4
152	161	2
128	128	1
132	138	1
71	72	1
39	39	5
176	176	6
129	129	2
35	98	1
95	109	1
119	120	2
97	103	1
115	145	1
132	133	4
21	23	2
104	105	2
93	100	1
5	14	1
97	98	1
103	107	2
18	18	3
126	130	1
41	41	7
96	102	2
3	11	1
18	19	4
167	167	1
133	134	1
72	180	1
135	135	4
17	24	1
106	106	3
90	90	3
131	150	1
117	117	3
100	124	1
164	167	1
140	141	1
65	81	1
81	82	2
110	110	2
43	43	5
83	83	2
50	51	2
123	125	1
66	66	3
173	174	1
53	66	1
139	140	2
71	71	1
97	101	1
32	33	4
27	27	5
73	73	7
79	79	4
32	32	1
42	42	6
81	81	3
65	65	5
70	94	1
171	172	3
97	97	2
112	170	2
13	14	1
23	23	5
40	40	5
141	141	6
128	141	2
140	156	1
30	30	1
23	24	3
2	55	1
174	174	4
36	43	1
111	111	2
25	31	1
102	118	1
55	56	4
96	140	1
28	45	1
157	157	2
0	0	3
93	94	1
98	99	1
109	110	2
10	14	1
7	8	2
124	124	5
120	121	2
144	144	4
92	92	4
88	89	2
60	61	1
49	49	2
77	134	1
112	114	1
77	94	1
158	158	4
16	16	1
148	148	5
153	153	2
7	7	3
94	94	2
8	8	2
95	95	4
62	63	2
35	35	3
152	152	1
63	114	1
33	33	6
154	156	1
40	56	1
87	89	2
129	130	2
21	21	1
152	153	1
173	173	4
96	114	1
178	178	3
57	57	5
132	132	6
120	127	1
75	137	1
19	24	1
54	67	1
100	105	1
8	9	1
78	78	2
118	118	5
11	13	2
33	45	1
9	11	2
84	84	2
93	93	2
51	52	2
16	38	2
121	143	1
25	113	1
88	90	1
9	28	1
147	147	4
121	124	1
56	57	1
58	58	2
86	102	1
102	115	3
7	32	1
4	20	1
52	52	2
34	34	1
123	123	1
116	121	1
36	147	1
166	168	1
145	171	1
152	166	1
165	165	2
98	101	1
68	138	1
109	114	1
61	87	1
7	10	1
83	86	1
108	108	2
68	89	1
85	138	1
91	97	1
3	3	2
90	98	1
6	21	1
2	2	4
151	159	1
83	93	1
170	170	3
44	45	1
132	142	2
15	15	2
155	156	1
68	68	5
131	167	1
38	40	1
61	62	1
132	174	1
110	167	1
29	30	1
18	27	2
143	145	1
87	88	1
25	25	1
61	61	2
134	134	1
91	119	1
28	28	2
42	45	2
24	24	3
51	51	2
145	148	1
106	120	1
172	172	5
74	173	1
24	26	1
4	16	2
42	55	1
55	148	1
10	11	1
121	121	2
61	64	1
43	65	1
58	60	1
165	167	1
34	35	2
18	28	1
20	24	1
31	44	2
149	171	1
15	21	1
91	99	1
37	169	1
100	159	1
63	84	1
90	93	1
49	50	1
169	171	2
124	129	1
146	146	1
8	10	1
19	30	2
105	106	1
55	55	2
4	26	1
100	101	1
176	179	2
23	27	1
123	126	2
155	170	1
137	138	1
22	45	1
125	131	1
126	128	1
99	99	1
2	4	1
57	58	1
42	43	2
13	59	1
129	166	1
19	59	1
141	168	1
41	42	1
17	25	1
163	170	1
101	104	1
21	24	1
160	165	1
50	50	3
109	109	2
7	9	1
108	109	1
97	124	1
73	74	1
109	131	1
99	101	1
23	28	1
16	26	1
148	149	2
59	59	2
39	40	2
86	86	1
169	170	1
52	65	1
18	24	1
146	167	1
101	101	1
28	44	1
19	22	1
41	44	1
144	163	1
148	151	1
67	67	1
163	164	2
59	60	1
55	71	1
56	67	1
33	135	2
66	102	2
61	96	1
112	141	1
11	12	1
32	34	1
125	147	1
54	55	1
44	44	1
76	137	1
128	129	1
62	62	2
76	180	1
151	153	1
3	4	1
135	137	1
58	82	1
19	19	1
88	91	1
3	16	1
104	110	1
101	105	1
75	76	1
90	114	1
125	128	1
165	166	1
8	35	1
151	160	1
118	124	1
159	161	1
25	26	1
104	107	1
0	1	1
