240	241	1
187	187	6
27	28	1
4	4	2
113	113	4
71	71	3
65	65	3
170	171	3
161	161	1
136	183	1
144	144	3
171	190	1
19	19	3
13	13	2
155	156	2
20	20	3
164	164	2
78	78	3
124	125	2
100	100	3
232	232	1
81	81	2
172	175	1
150	151	1
7	7	2
9	11	3
32	33	2
143	144	1
33	33	5
124	168	1
36	36	4
169	170	2
20	62	1
5	20	1
217	217	1
116	117	2
178	183	1
179	183	1
178	178	3
162	163	4
85	85	3
11	11	1
69	69	3
38	39	1
210	210	1
167	167	1
224	224	4
8	60	2
15	15	3
104	104	4
71	205	1
3	4	1
120	120	1
151	167	1
78	79	2
143	143	4
44	191	1
18	18	2
0	0	1
55	58	1
133	133	2
8	8	6
241	241	4
6	7	1
23	24	1
174	174	2
207	207	1
161	181	1
87	87	1
88	88	2
116	116	2
137	137	1
70	70	2
179	179	3
3	3	3
136	141	1
200	200	2
21	22	1
209	210	1
134	135	2
15	17	1
182	182	2
126	127	1
125	126	1
12	12	3
83	83	2
23	23	3
37	37	4
91	235	2
54	55	1
175	175	1
44	66	1
211	212	2
226	226	3
130	130	3
141	141	1
86	86	5
224	225	1
234	234	2
57	57	5
233	233	4
177	178	3
189	189	2
95	95	3
134	134	3
129	129	3
17	17	1
173	174	1
146	158	1
64	64	3
29	29	2
121	239	1
173	173	3
184	187	1
229	229	1
59	60	3
181	220	1
1	2	1
122	122	2
148	148	5
139	139	1
77	79	1
145	145	1
142	143	1
76	78	1
227	227	1
232	233	1
127	127	1
138	138	1
225	232	1
140	140	1
231	232	2
43	43	4
180	180	2
242	242	1
60	60	3
26	39	1
118	118	1
31	36	1
188	220	1
49	49	3
53	53	5
132	149	1
122	128	1
45	47	1
46	85	1
223	223	1
16	16	6
29	30	2
36	38	1
25	25	4
51	51	1
16	30	1
102	102	5
128	196	1
165	165	1
221	221	2
193	194	2
107	107	3
53	57	1
10	10	3
40	40	1
9	31	1
45	46	2
167	230	1
184	186	2
52	58	2
201	201	4
118	119	1
58	60	1
119	119	3
27	27	6
170	203	1
114	114	2
47	47	5
23	64	3
19	20	1
46	235	1
28	28	5
74	78	1
219	219	3
103	103	4
160	177	1
46	46	3
72	76	1
24	33	1
162	164	1
197	197	1
218	218	3
181	181	3
135	135	3
51	52	2
154	155	1
35	59	2
2	2	1
0	231	2
103	104	1
191	197	1
45	45	3
191	191	1
6	6	3
47	172	1
122	127	3
96	132	1
121	149	1
213	213	3
56	56	1
159	159	4
177	188	1
107	108	3
173	175	2
54	54	2
156	157	2
231	231	3
150	150	3
99	99	2
158	158	3
71	231	1
149	150	1
101	101	2
106	106	2
74	75	2
165	182	1
157	157	2
41	41	2
98	98	2
24	24	3
55	55	2
8	10	1
169	169	3
119	122	1
33	51	1
154	154	1
1	1	3
38	38	3
96	178	1
62	62	2
7	8	1
118	127	1
35	36	1
196	196	2
22	22	1
100	101	1
237	237	2
4	9	1
166	166	2
205	206	1
202	202	1
156	162	1
126	126	1
179	180	1
211	217	1
147	148	1
84	84	2
215	215	4
123	123	4
203	203	2
29	31	2
128	128	1
223	224	1
176	176	1
9	9	2
71	72	1
79	84	1
21	23	2
8	21	1
42	42	1
10	11	3
162	162	1
98	99	2
116	118	2
72	73	1
172	172	2
149	152	1
228	228	1
181	182	1
105	105	2
180	183	1
79	79	3
44	46	1
28	30	1
6	8	1
124	124	1
121	122	2
186	186	1
152	187	1
41	42	1
228	231	1
150	164	1
1	209	1
0	3	1
164	184	1
200	208	1
178	179	1
32	32	1
149	149	1
49	50	1
190	191	1
0	2	1
63	63	1
125	125	3
74	74	1
168	168	1
122	172	1
75	76	1
192	192	1
134	161	1
102	103	1
214	214	1
55	102	1
184	185	2
45	62	1
138	180	1
140	143	1
35	35	1
157	158	1
81	83	1
204	207	2
136	152	1
164	165	2
161	176	1
67	67	2
158	162	1
14	14	1
51	57	1
37	38	1
110	110	1
39	58	1
80	83	1
19	22	1
44	44	1
221	222	1
80	81	1
117	117	1
235	235	2
147	147	1
66	66	1
99	237	1
31	31	2
137	138	1
10	54	1
61	61	1
18	20	1
18	19	1
182	199	1
160	160	2
57	58	2
138	139	1
238	239	1
227	230	1
145	146	1
135	161	1
152	152	1
72	72	1
26	26	1
124	126	1
220	220	1
121	121	1
38	70	1
73	225	1
4	5	1
102	237	1
153	153	1
2	4	1
48	48	1
156	156	1
183	183	1
236	236	1
76	101	1
163	165	1
73	73	1
75	85	1
141	142	1
77	84	1
