6	75	1
135	136	3
152	152	4
148	149	2
135	159	1
59	59	6
109	114	1
4	13	2
142	174	1
5	5	4
146	146	1
152	153	3
0	6	1
58	58	6
60	61	3
84	107	2
11	14	1
81	118	1
66	66	4
172	172	4
11	11	3
179	180	1
155	156	6
142	142	3
34	131	1
148	148	7
9	37	1
139	139	4
160	161	3
96	118	1
73	74	3
86	93	1
152	155	1
113	144	1
154	156	2
8	8	4
169	169	9
0	0	5
74	74	3
124	156	1
111	111	6
34	102	1
17	86	1
102	102	2
140	140	6
177	177	4
132	138	1
5	6	3
123	124	3
166	166	7
133	139	1
23	23	5
75	75	5
178	178	4
163	164	1
109	157	1
39	55	1
90	93	2
122	122	2
144	145	3
52	53	3
19	19	3
107	107	7
174	175	2
31	31	4
113	113	4
173	173	4
60	60	6
50	50	7
136	137	3
26	26	2
63	63	7
36	38	3
119	152	2
49	50	3
82	82	5
93	93	2
16	16	3
104	106	1
108	112	1
76	77	2
159	159	5
60	103	2
167	168	3
1	1	6
132	137	1
180	180	4
16	17	3
111	113	1
94	133	2
36	36	4
59	60	1
103	103	2
2	2	4
141	141	8
98	99	1
71	73	1
10	113	1
34	34	5
76	76	5
158	158	4
7	7	8
89	92	1
171	171	5
9	9	5
55	55	3
65	101	1
21	25	1
45	45	7
17	17	6
174	174	5
75	76	4
161	161	5
156	156	5
107	123	1
4	4	3
140	141	2
45	46	2
65	65	4
169	172	1
151	151	6
115	126	1
160	162	4
113	116	1
123	125	3
98	128	1
120	120	5
97	97	2
88	93	1
118	118	4
77	119	1
137	137	6
124	124	4
117	117	4
3	3	4
133	133	4
39	41	1
37	37	6
150	150	7
17	32	1
141	142	2
133	137	1
6	10	3
15	39	2
107	108	1
64	64	4
136	136	3
0	75	1
43	43	6
116	116	5
135	135	5
44	45	2
78	78	2
37	38	3
61	61	8
40	141	1
115	115	4
109	118	1
42	43	1
165	166	2
60	139	1
70	71	1
107	129	1
43	90	1
85	86	2
10	72	2
111	116	1
78	79	3
34	42	1
10	10	8
132	134	1
109	109	5
67	67	4
51	92	1
12	12	5
41	42	2
56	56	3
151	156	1
73	73	7
2	3	6
101	126	1
40	40	4
42	87	1
21	45	1
88	131	1
96	96	6
160	164	2
147	147	7
138	138	4
13	16	2
162	162	4
164	165	1
130	142	2
120	123	2
134	134	3
94	95	1
89	90	1
165	165	2
13	13	2
142	148	1
83	83	4
147	153	1
92	93	1
53	53	5
177	178	2
4	45	1
179	179	8
87	99	1
36	37	1
166	167	2
37	73	2
37	39	3
157	157	4
102	153	1
62	62	2
25	45	1
105	106	2
85	106	1
159	160	1
46	85	1
1	5	3
58	59	2
157	158	2
66	67	2
35	36	1
144	144	2
117	119	2
107	135	1
89	95	2
127	127	2
82	89	3
175	176	1
158	160	1
165	170	3
65	68	1
121	144	1
18	24	1
128	129	3
63	87	1
95	95	4
157	169	1
171	176	2
32	43	1
81	89	2
42	44	2
156	165	1
163	163	3
25	25	3
54	82	1
105	109	1
146	147	2
27	28	1
32	32	5
176	176	6
171	173	2
170	170	5
21	21	3
104	168	1
12	13	1
175	175	1
68	68	1
105	107	1
66	96	1
64	65	1
143	143	3
0	1	2
3	77	1
123	123	3
17	42	1
22	23	2
149	149	4
94	98	1
106	106	5
130	130	3
59	156	1
2	6	1
118	130	1
31	33	1
18	19	4
63	72	1
80	139	1
33	44	1
102	103	2
29	31	2
158	169	1
23	24	3
24	24	4
33	33	5
116	117	1
74	77	1
77	77	5
129	130	1
89	89	2
131	131	1
122	155	1
118	119	3
60	110	3
11	13	1
85	85	1
18	29	1
79	79	3
111	145	1
162	163	3
153	153	4
125	125	3
95	96	3
61	122	1
14	14	2
61	64	1
24	25	2
8	25	1
32	73	2
119	121	1
172	174	1
151	152	3
155	160	1
45	49	1
109	110	2
152	169	1
99	100	1
6	6	4
5	11	1
35	35	1
105	127	1
119	119	3
164	168	1
121	122	1
52	55	1
145	155	3
52	54	1
136	142	1
109	111	2
75	77	2
132	132	4
13	15	1
71	104	1
136	162	1
129	129	3
164	164	2
29	129	1
80	80	2
19	20	1
63	64	2
113	123	1
167	167	2
119	147	2
161	162	1
134	135	2
108	108	2
42	42	6
60	97	1
28	28	3
143	155	3
7	13	1
67	96	1
110	121	1
33	34	1
27	27	1
128	151	1
103	104	2
51	51	2
30	30	3
100	101	1
92	92	4
4	22	1
16	34	1
131	177	1
44	44	2
33	42	1
77	78	1
39	40	2
8	58	1
93	117	1
39	42	2
158	159	3
43	44	1
172	177	1
115	122	1
20	21	1
132	133	1
160	160	3
88	88	3
128	128	2
57	58	1
37	55	1
59	61	2
155	155	4
52	52	3
60	96	1
10	23	2
39	43	1
104	108	1
136	148	1
15	44	1
43	93	1
178	179	2
54	61	1
7	32	1
94	94	2
111	120	1
168	169	1
8	9	2
149	150	1
59	92	1
116	119	1
83	85	3
54	55	2
15	19	1
73	75	1
94	118	1
32	33	3
142	145	1
62	63	2
154	154	2
105	105	2
84	84	1
86	107	1
160	163	1
18	18	3
100	100	3
122	126	1
167	171	1
93	102	1
66	97	1
171	174	1
125	156	1
137	141	1
25	28	1
55	56	1
112	131	1
90	90	2
87	87	1
124	125	2
4	7	1
86	86	1
72	77	1
17	18	2
101	116	1
113	114	2
75	81	1
17	21	1
108	109	1
167	173	1
126	126	3
168	170	1
16	75	1
125	155	1
45	90	1
42	57	1
51	97	1
15	15	3
122	128	1
81	81	3
25	36	1
145	145	1
91	93	1
173	174	1
61	90	1
169	170	2
115	145	1
144	146	1
6	15	1
133	134	2
38	38	2
110	154	1
55	70	2
42	93	1
34	38	1
168	168	3
10	11	1
143	161	1
20	20	1
103	106	1
11	19	1
127	129	1
145	148	2
68	82	1
127	128	1
49	58	1
145	157	1
14	25	1
152	156	2
10	14	1
14	15	1
62	84	1
112	112	1
58	81	1
62	64	1
31	35	1
13	49	1
126	134	1
165	167	1
116	120	1
71	71	2
37	98	1
142	146	1
88	89	1
153	154	1
44	75	1
86	89	1
101	101	1
30	33	1
53	56	2
35	44	1
157	160	1
130	167	1
45	97	1
114	114	1
17	102	1
102	147	1
58	62	1
169	171	1
113	125	1
23	25	1
95	141	1
118	124	1
53	85	1
177	179	1
170	175	1
19	42	1
91	92	1
23	28	1
117	120	1
135	140	1
143	144	1
10	33	1
93	101	1
41	41	1
126	127	1
5	43	1
5	66	1
59	106	1
54	54	1
70	108	1
29	39	1
7	8	1
39	39	1
67	68	1
25	40	1
3	4	1
53	54	1
100	103	1
