17	17	8
10	10	2
6	7	7
14	14	10
44	44	23
34	34	21
37	39	3
38	38	21
54	54	7
40	40	13
23	23	8
49	49	11
22	44	1
2	2	11
56	56	15
35	35	13
50	50	12
39	39	11
32	32	13
40	41	9
11	12	2
7	7	9
1	1	8
53	54	8
33	33	12
51	51	15
18	18	5
23	31	1
49	50	2
25	25	5
53	53	7
11	11	8
4	4	18
30	61	1
58	58	7
48	48	16
18	24	2
24	24	10
13	13	9
42	43	1
49	56	2
47	48	6
30	30	15
12	12	4
24	25	2
62	62	9
42	44	1
61	61	10
9	10	4
22	23	4
56	57	8
13	18	1
45	46	2
59	59	12
15	15	6
19	19	8
48	49	5
8	8	6
33	44	2
60	60	8
55	55	22
33	34	2
9	9	13
47	47	10
31	31	14
5	5	8
46	46	12
23	24	3
43	43	14
30	36	2
20	20	4
16	17	2
57	57	20
50	55	1
50	52	3
44	45	4
16	16	2
0	32	2
29	29	1
6	12	1
37	37	12
30	31	6
20	22	1
2	4	2
15	16	4
46	47	2
40	42	1
15	17	1
45	48	2
42	42	11
31	55	1
1	2	4
45	45	11
6	6	7
36	36	11
20	21	5
39	40	3
8	10	2
12	14	1
52	52	8
56	58	1
34	46	1
3	3	5
41	46	1
0	0	4
58	59	4
39	41	2
22	25	1
43	49	1
61	62	3
31	32	7
47	50	1
9	37	1
49	51	1
21	21	1
22	22	3
41	43	1
52	54	2
55	56	3
5	6	5
41	41	11
54	55	1
36	43	1
0	3	1
50	51	3
13	14	1
41	42	1
36	37	3
54	58	2
17	18	4
21	22	1
3	43	1
55	57	1
42	57	1
31	40	2
43	45	1
57	58	2
52	57	1
45	47	1
12	13	1
24	31	1
7	51	1
35	36	2
22	53	1
34	35	2
2	37	1
38	39	4
13	30	1
52	55	1
50	56	1
9	18	2
37	38	3
36	40	1
46	50	1
5	32	1
4	23	1
6	8	2
35	37	1
21	24	1
31	49	2
9	11	1
8	9	8
60	61	1
7	8	2
17	19	1
32	33	3
50	59	1
49	59	1
42	50	1
41	57	1
34	37	1
19	41	1
8	22	1
18	19	4
16	54	1
14	16	1
17	57	1
53	55	1
14	15	2
49	60	1
10	16	2
3	4	2
37	54	1
24	38	1
51	52	1
3	33	2
19	55	1
40	51	1
49	57	1
35	40	1
13	17	1
30	32	1
53	60	1
38	40	1
5	8	1
43	48	1
17	24	1
29	37	1
37	43	1
34	57	2
29	50	1
2	3	1
51	61	1
13	20	1
52	53	1
