133	133	3
79	80	6
97	97	2
25	25	7
46	46	3
127	127	7
2	2	10
72	72	11
154	154	14
180	180	9
4	5	1
190	190	6
110	110	13
152	160	1
138	138	5
18	18	8
100	100	5
136	136	4
35	36	4
111	111	18
90	90	9
89	89	6
182	182	13
59	87	1
21	21	5
3	3	7
130	130	4
36	36	9
74	74	7
84	84	9
101	101	5
153	153	7
149	149	12
147	147	6
125	170	1
120	120	9
68	68	13
142	142	5
25	78	1
64	64	3
135	136	5
108	108	4
28	30	2
98	98	7
175	175	7
142	145	1
170	170	14
17	17	4
10	10	5
102	102	2
134	134	7
35	35	2
28	34	2
26	37	3
116	116	4
173	173	6
58	58	8
188	190	3
166	166	5
41	41	5
59	59	6
15	15	7
97	98	5
113	113	6
20	37	1
85	85	10
151	152	1
186	186	8
39	39	5
99	99	6
185	185	8
177	177	8
171	172	3
29	29	2
82	82	6
82	146	1
139	139	4
11	11	11
139	141	1
157	157	7
189	189	8
148	150	2
28	28	10
13	13	6
134	139	1
96	96	3
148	148	7
6	6	14
66	67	2
56	56	4
29	30	3
119	119	5
132	133	3
104	111	1
171	171	8
164	164	6
188	188	19
5	37	1
115	116	3
65	65	6
122	137	1
68	93	2
140	141	3
157	158	5
33	35	1
14	14	5
114	116	1
55	55	7
112	112	10
32	32	3
122	122	10
25	34	2
27	27	6
134	149	2
114	114	9
149	150	5
42	43	4
152	178	1
123	123	7
43	60	1
41	42	3
148	149	2
150	150	9
152	152	12
105	107	2
174	174	8
178	181	1
79	79	11
113	114	1
1	1	9
91	92	2
173	174	5
165	165	6
68	71	1
169	169	10
44	45	2
130	135	2
71	71	5
87	89	1
120	122	1
107	108	3
16	16	6
11	12	6
143	143	4
182	183	2
179	179	5
43	43	15
130	131	1
129	129	10
77	77	11
111	170	2
27	35	1
88	89	4
22	23	5
31	35	2
106	150	1
10	15	1
103	107	1
87	90	5
0	0	8
65	67	1
156	156	10
26	26	6
175	176	6
166	168	1
126	126	2
95	95	7
159	159	7
80	81	2
119	122	2
78	79	3
8	8	5
146	146	6
120	178	1
162	163	1
28	29	4
4	8	2
40	40	5
110	113	1
107	111	1
167	167	7
146	186	1
122	123	1
129	145	1
183	183	7
70	70	6
134	156	1
93	93	7
112	113	2
10	12	1
17	25	3
78	78	11
41	89	1
135	135	4
28	33	1
87	87	2
108	109	1
57	64	1
74	99	1
176	176	11
11	107	1
38	38	3
2	111	1
70	72	1
105	105	8
61	61	3
103	124	1
178	178	4
9	13	1
24	24	8
151	151	9
169	170	3
54	54	5
45	45	3
20	20	8
84	85	4
145	145	3
23	23	2
181	181	5
75	75	4
22	22	4
18	21	2
73	73	4
129	132	2
52	52	1
187	189	1
14	16	1
111	112	5
136	137	5
134	147	1
10	13	1
31	33	6
55	56	3
65	66	2
76	152	2
0	3	2
158	173	1
125	125	9
82	106	1
88	120	1
62	87	1
41	52	2
109	148	1
72	83	1
94	94	6
7	7	8
48	48	10
187	188	4
57	103	2
49	49	1
154	167	1
42	90	1
128	128	12
103	103	3
5	5	9
81	105	1
29	35	2
161	161	2
104	116	1
80	80	4
83	83	11
168	168	4
86	86	4
187	187	10
158	158	7
96	124	2
99	100	3
60	60	1
132	135	3
131	131	3
145	149	1
121	121	9
117	117	6
93	94	3
13	15	1
25	26	1
24	25	3
46	48	1
84	95	1
33	33	8
12	13	2
155	182	1
185	186	3
130	136	1
127	128	2
129	141	1
89	159	1
115	115	4
180	181	3
152	153	2
90	129	1
30	30	5
73	101	1
155	155	3
42	55	2
110	145	1
69	70	3
97	99	1
91	91	1
15	17	2
20	101	1
119	120	3
92	93	1
26	30	1
34	59	1
81	82	1
90	143	1
101	103	2
4	169	1
91	95	1
160	161	2
174	177	1
186	187	2
184	184	4
141	141	11
124	125	3
108	125	1
57	57	5
12	14	1
153	154	2
131	132	4
6	7	4
62	62	6
122	124	1
73	74	2
86	172	1
58	61	2
67	67	4
12	33	1
45	46	1
130	138	1
18	20	2
172	173	4
102	122	1
96	156	1
98	99	1
19	19	6
113	152	1
12	12	1
105	121	1
38	76	1
141	144	2
134	135	1
99	113	1
183	184	2
23	171	1
47	47	6
183	188	1
134	141	1
99	121	1
58	71	1
137	179	1
166	167	3
176	183	1
106	106	9
165	166	1
189	190	2
29	179	1
85	112	1
61	114	1
24	125	2
97	131	1
149	162	2
46	47	2
21	22	3
116	118	2
96	121	1
76	134	1
59	62	2
81	81	1
124	124	3
77	78	2
40	81	1
84	123	1
35	37	1
113	124	1
37	55	1
137	137	6
76	76	4
75	83	1
72	74	2
69	69	2
87	88	2
154	155	3
63	65	2
135	143	1
13	14	4
75	170	1
22	24	1
17	54	1
53	53	6
107	107	3
118	121	1
34	34	2
176	177	2
79	81	1
71	72	1
21	27	1
172	174	3
64	98	2
115	119	1
36	37	1
17	20	2
23	37	1
74	87	1
102	103	2
104	130	1
21	28	1
104	104	3
118	118	6
66	66	7
101	102	3
62	118	1
100	133	1
99	111	1
3	4	2
30	32	1
5	116	1
100	102	2
85	146	1
32	90	1
64	65	1
45	48	1
9	10	1
97	100	1
131	134	1
34	35	3
58	59	1
32	33	1
184	190	1
63	134	1
68	73	1
104	106	1
149	167	1
179	181	2
118	126	1
181	183	1
114	115	2
100	104	1
25	124	1
83	84	3
136	158	1
168	175	1
33	36	1
115	118	1
53	54	2
104	112	1
88	88	3
60	61	2
104	117	1
72	73	3
148	164	2
34	60	1
144	144	5
163	163	2
165	172	1
42	42	3
26	84	1
155	157	1
130	132	2
27	28	1
151	159	1
37	37	3
65	97	2
54	57	1
145	181	2
20	35	1
111	115	1
72	100	1
31	31	3
29	31	1
58	85	1
45	47	3
47	48	2
159	166	1
61	62	1
167	169	1
40	80	1
116	117	2
72	87	1
154	160	1
9	9	2
71	92	1
134	136	1
121	142	2
70	87	1
40	41	1
184	185	1
172	172	2
80	152	1
158	170	1
153	173	2
80	127	1
140	140	4
160	163	1
23	24	2
19	23	1
38	39	1
129	140	2
59	60	2
160	160	3
101	130	1
174	175	3
92	92	3
74	142	2
95	156	2
89	90	1
73	91	1
15	24	1
166	169	1
127	178	1
109	109	5
101	125	1
38	127	1
67	114	2
41	96	1
18	22	2
15	16	1
1	2	1
141	142	2
85	86	1
19	24	1
181	190	1
26	27	2
54	55	2
21	126	1
60	63	1
110	115	1
27	29	1
147	173	1
9	16	1
113	155	1
63	63	5
10	157	1
121	130	1
174	179	1
123	175	1
58	60	1
124	127	1
52	61	1
96	103	1
111	113	1
27	45	1
57	58	2
133	134	2
4	7	1
132	141	1
20	46	1
167	168	4
120	128	1
104	132	1
24	43	1
129	166	2
118	119	2
168	181	1
11	18	1
81	83	1
24	26	1
109	110	1
164	166	1
172	189	2
44	63	1
34	176	1
185	187	1
106	122	1
156	170	1
62	64	1
83	128	1
43	59	1
158	183	1
171	173	2
177	178	1
130	142	2
127	158	1
148	151	1
129	151	1
159	185	1
137	138	3
16	31	1
70	71	1
121	157	1
43	45	1
136	138	1
178	180	2
138	168	1
179	180	1
67	68	1
63	84	1
130	148	1
117	118	1
88	92	1
86	116	1
14	15	1
154	173	1
88	117	1
86	111	1
112	155	1
22	46	1
53	57	1
123	151	2
4	4	2
66	130	1
146	148	1
110	123	1
155	172	1
119	139	1
84	135	1
124	148	1
127	132	1
33	34	1
48	57	1
60	70	1
18	29	1
164	165	2
26	78	1
19	22	1
72	128	1
5	6	1
105	122	1
155	185	1
30	31	1
106	107	1
90	116	1
144	146	1
11	19	1
82	83	1
9	15	1
178	179	1
181	182	1
146	178	1
104	138	1
91	126	1
68	98	1
177	180	1
145	146	1
58	62	1
63	64	1
121	136	1
2	3	1
27	34	1
66	68	1
115	126	1
22	171	1
10	37	1
18	30	1
144	180	1
174	187	1
44	46	1
38	74	1
138	155	1
