201	202	2
178	178	5
47	48	1
176	176	7
47	47	6
40	40	14
201	201	12
71	76	2
171	171	10
65	65	10
41	41	11
81	81	3
236	236	12
216	217	3
155	155	9
25	25	6
113	113	12
76	76	11
220	220	10
223	229	1
231	231	6
193	194	5
240	241	2
43	43	10
60	60	8
159	159	9
15	19	3
52	52	5
59	59	6
228	228	15
109	229	2
184	184	8
234	234	9
14	18	2
166	166	10
190	190	7
222	223	3
221	222	4
77	78	4
113	119	1
206	212	2
186	186	8
170	170	10
146	146	5
209	209	5
37	37	10
245	245	21
197	197	4
213	214	6
183	183	12
13	14	3
167	167	11
32	32	12
198	200	4
174	175	2
29	31	2
218	218	6
187	187	4
75	76	3
154	155	7
162	162	6
194	199	1
197	218	1
26	26	8
224	241	2
219	220	6
179	195	2
174	174	5
185	186	3
80	82	3
24	24	7
151	151	13
180	180	7
78	117	2
14	14	11
224	224	9
19	19	16
244	244	14
214	241	2
161	161	8
65	66	8
96	96	6
153	153	11
243	243	5
10	11	2
232	238	1
203	203	7
38	39	10
15	46	1
91	91	5
15	16	7
63	63	6
12	12	8
76	77	2
226	226	11
108	108	8
100	100	5
10	46	1
76	106	1
152	152	8
226	227	3
26	154	2
208	208	15
173	177	1
45	45	4
76	78	2
26	27	3
234	235	3
49	50	2
171	172	4
207	207	8
29	29	8
31	31	15
52	53	3
107	107	5
23	23	17
172	173	3
179	179	8
169	169	4
147	147	2
156	156	5
153	204	1
3	164	1
18	18	14
244	245	2
47	214	1
222	222	5
58	59	1
160	160	10
51	246	1
211	212	5
193	193	11
6	6	9
22	22	11
232	232	7
214	214	15
225	225	8
198	198	6
33	33	11
18	19	3
25	26	3
118	118	6
92	93	2
177	214	2
44	45	2
7	7	13
46	181	1
77	77	10
99	99	7
8	8	12
227	227	4
64	64	11
64	67	1
15	15	9
39	40	3
223	244	2
5	6	4
104	105	2
199	199	7
248	248	7
94	94	7
225	226	3
58	58	7
11	12	4
55	55	14
82	82	3
42	43	4
189	189	2
33	34	3
84	84	7
172	172	7
66	66	3
235	235	10
107	108	2
204	204	7
119	119	6
71	71	5
237	237	8
20	20	4
241	241	8
53	53	13
36	36	11
10	10	9
219	219	12
39	39	12
90	90	9
32	33	4
106	106	7
69	70	4
154	154	9
159	183	1
197	212	1
17	17	10
71	72	2
175	175	17
206	206	4
21	21	7
95	95	6
243	247	1
50	50	4
211	227	1
111	111	7
110	110	8
48	48	8
94	95	5
166	184	1
76	88	1
208	235	1
46	46	14
89	110	2
208	209	5
70	201	1
59	60	3
193	195	2
213	213	9
165	165	7
113	114	2
84	88	1
89	90	4
11	11	11
240	247	2
60	61	2
85	85	2
217	217	7
161	162	2
239	239	6
34	34	9
211	211	4
216	239	1
72	72	3
233	233	10
244	246	2
233	234	2
173	183	2
86	86	3
30	47	1
159	211	1
34	35	2
94	113	2
2	2	5
27	27	5
114	114	12
207	208	2
30	30	7
237	238	2
169	227	1
109	109	10
101	103	1
230	231	3
112	112	9
75	75	6
162	168	1
95	118	1
166	167	2
179	180	4
117	117	8
202	203	2
230	230	7
44	44	11
110	225	1
185	245	1
157	213	1
165	166	4
180	210	1
179	200	1
221	223	1
9	9	10
29	202	2
115	115	5
165	167	2
179	193	3
49	49	5
205	205	2
118	119	1
181	182	1
182	200	1
213	241	3
31	32	2
29	91	1
234	236	1
61	61	4
26	87	1
83	83	4
174	181	1
19	20	2
223	223	8
208	242	1
168	227	1
44	109	1
221	221	5
171	173	2
82	83	1
40	41	2
104	104	2
215	215	7
198	212	1
3	3	4
109	114	1
218	219	2
1	230	1
150	150	5
234	244	2
5	152	1
28	29	3
35	35	11
198	199	2
43	44	5
78	78	6
28	28	6
1	2	2
212	212	7
67	104	1
54	54	8
162	176	1
69	74	1
84	103	1
80	81	7
9	10	1
188	191	2
27	28	4
62	87	3
68	83	1
92	92	4
8	25	1
112	115	1
202	227	3
208	236	2
211	229	1
101	102	1
48	53	1
5	5	9
160	161	4
116	116	13
181	230	2
200	201	2
31	168	1
210	233	1
243	246	1
162	163	1
63	67	1
164	165	3
173	174	2
74	82	1
57	73	3
168	179	2
63	65	1
93	94	3
38	38	9
181	189	1
191	194	1
231	244	1
33	42	3
215	216	3
101	101	5
221	238	1
78	87	1
51	68	2
216	216	1
181	181	8
19	202	2
246	246	3
53	54	2
182	182	5
55	109	1
212	213	1
247	247	7
150	229	1
62	62	5
210	211	3
98	98	5
89	89	3
150	161	1
174	184	1
37	54	2
21	22	5
14	48	1
159	214	1
194	197	1
26	110	1
29	30	1
50	51	4
120	120	3
42	42	11
193	196	2
60	70	1
4	5	5
15	17	1
202	230	1
7	11	2
238	238	3
164	216	1
17	23	1
25	46	1
57	57	5
198	234	1
100	101	2
63	64	2
20	21	4
91	95	2
88	89	2
25	34	1
209	233	1
191	192	2
164	164	3
21	27	1
194	195	2
69	69	3
239	240	1
146	147	3
200	200	5
87	87	2
155	227	1
168	168	6
163	164	2
227	229	2
73	73	4
244	247	1
238	240	1
209	211	1
9	29	1
169	170	2
51	51	8
218	236	1
59	61	2
55	56	3
230	243	1
209	245	1
46	53	1
74	74	2
173	181	1
176	177	3
116	119	1
159	220	1
116	117	1
180	181	2
70	70	3
99	100	1
171	244	3
210	210	1
183	207	1
38	40	1
42	44	1
157	159	1
67	203	1
156	175	1
173	173	8
184	185	1
193	228	2
8	9	3
4	4	8
86	103	1
195	195	2
160	226	1
93	93	3
6	16	3
52	54	1
91	229	1
54	55	3
233	237	1
56	57	1
65	93	1
21	111	1
24	25	1
7	42	1
242	243	3
159	160	2
55	65	1
68	84	1
188	188	3
168	219	1
204	246	1
64	65	5
154	231	1
164	188	1
87	101	1
182	184	2
63	76	1
49	77	2
172	181	1
223	241	2
71	75	2
235	236	3
213	229	2
145	145	6
184	235	1
73	74	1
117	118	3
42	54	1
155	183	1
213	228	1
92	146	1
152	157	1
229	229	2
41	94	1
68	68	6
36	37	1
102	146	1
207	234	1
197	198	1
72	73	4
105	106	2
183	204	1
159	239	1
94	96	1
191	191	1
223	225	2
22	24	1
49	65	1
74	75	1
37	38	1
87	89	1
181	183	2
1	1	5
177	177	5
112	114	1
145	157	1
77	108	1
35	36	3
14	15	3
208	244	1
79	79	2
38	48	1
26	155	1
97	97	1
112	113	1
216	240	1
230	246	1
61	62	2
231	234	3
65	68	1
15	160	1
157	157	3
173	185	1
55	57	1
184	213	2
189	232	1
163	163	6
184	192	1
168	169	3
232	243	1
183	184	1
226	236	2
106	108	1
33	245	1
185	192	2
192	225	1
194	196	1
213	244	1
32	117	1
227	228	2
95	116	1
197	213	2
203	204	4
151	156	1
243	244	2
155	161	1
23	147	1
54	110	2
223	224	2
108	109	1
95	97	1
50	223	2
35	37	1
56	56	4
158	158	1
109	110	3
95	96	1
165	183	1
220	223	1
37	47	1
93	95	1
191	245	1
30	31	2
202	202	5
103	103	1
49	72	1
93	109	1
192	199	1
81	104	1
91	107	3
177	178	1
31	37	1
52	166	1
169	180	2
81	82	1
12	13	1
100	147	1
55	64	1
233	236	1
219	237	1
163	220	2
186	188	1
71	97	1
179	182	1
182	224	1
204	221	1
28	153	1
197	214	1
12	14	1
72	208	1
23	24	2
173	180	1
24	43	1
67	67	4
67	109	1
169	171	1
247	248	2
162	167	1
157	246	1
191	222	1
51	53	1
19	22	1
231	232	1
27	55	1
35	54	1
238	239	4
82	85	1
5	8	1
10	12	1
237	239	1
171	186	1
120	145	2
9	19	1
209	210	2
167	217	1
178	179	4
204	205	1
88	88	3
192	195	1
194	219	1
68	70	1
64	182	1
2	246	1
176	178	1
245	246	2
165	170	1
32	45	1
62	63	2
199	227	1
176	179	1
115	118	1
156	203	1
12	60	1
70	78	1
177	222	1
102	102	4
212	220	1
66	67	1
169	249	1
12	18	1
152	154	1
86	107	1
205	206	1
185	193	1
11	32	1
233	247	1
70	100	1
72	118	1
223	227	1
215	219	1
105	105	2
110	111	1
107	115	1
192	198	1
152	166	1
152	153	3
213	236	1
218	240	1
19	54	1
53	55	1
50	57	1
240	240	1
6	7	1
33	236	1
185	185	3
185	233	1
51	113	1
162	175	1
175	181	1
22	23	1
196	198	1
7	40	1
226	228	1
98	99	2
157	158	1
214	233	1
155	245	1
167	173	1
6	8	1
84	85	1
63	200	1
235	246	2
24	32	1
145	164	1
166	171	1
158	159	1
48	51	1
2	6	1
194	210	1
231	246	1
97	98	1
220	240	2
46	47	1
155	156	1
176	188	1
202	208	1
47	54	1
237	247	1
172	178	2
62	91	2
54	90	1
56	217	1
78	81	1
61	84	1
20	32	1
228	229	1
57	58	2
229	230	2
172	244	2
210	217	1
151	179	1
66	78	1
28	38	1
236	237	1
160	168	1
28	150	2
46	51	2
199	200	1
27	161	1
151	152	1
48	50	1
202	205	1
163	170	1
15	18	1
183	185	1
111	114	1
19	23	1
197	199	1
167	180	1
79	84	1
3	146	1
166	174	1
58	60	1
186	189	2
10	160	1
225	244	1
15	25	1
59	65	1
2	3	2
196	230	1
230	234	1
112	151	1
59	230	1
26	78	1
16	16	3
249	249	1
207	212	1
149	150	1
224	225	1
47	53	1
187	188	2
190	191	1
57	60	2
50	54	1
110	113	1
3	4	1
80	80	1
111	112	1
186	191	1
196	196	1
82	84	1
37	45	1
242	242	1
205	224	1
220	221	1
68	89	1
51	67	1
88	119	1
64	229	1
208	245	1
87	88	1
207	214	1
60	69	1
19	42	1
18	54	1
189	191	1
186	187	1
48	76	1
75	99	1
206	230	1
213	221	1
176	193	1
41	77	1
90	154	1
51	63	1
220	241	1
245	247	1
101	109	1
3	20	1
48	55	1
172	227	1
192	209	1
92	111	1
