118	124	1
10	28	1
41	41	1
130	130	1
142	143	2
143	143	5
63	63	2
144	144	3
70	71	1
104	104	2
7	7	1
80	80	2
108	113	1
77	77	5
26	26	2
120	121	3
94	94	4
70	70	5
74	98	1
80	81	1
154	154	1
29	48	1
96	96	3
155	155	1
93	94	4
17	17	2
12	12	1
62	62	1
66	66	1
98	103	3
115	127	1
92	92	4
95	95	1
108	112	1
149	149	2
108	111	1
124	125	1
123	141	1
7	10	2
16	17	1
5	5	3
98	98	7
45	45	1
24	24	3
50	50	2
21	21	2
7	20	3
113	115	1
67	70	1
55	55	3
148	148	3
157	157	4
153	153	2
119	146	1
115	115	2
17	19	2
126	126	2
66	86	1
25	26	1
67	67	1
152	152	5
124	124	3
54	55	1
22	22	3
100	100	3
121	121	2
92	93	1
119	119	3
39	40	2
137	148	2
144	146	1
4	4	3
84	104	1
147	147	2
67	77	1
0	0	1
22	131	1
75	75	4
34	36	2
86	86	1
69	86	1
145	146	2
41	42	3
108	108	2
138	150	2
139	139	3
69	71	1
136	136	1
39	50	1
93	93	3
102	106	1
81	81	3
135	137	1
130	155	1
116	116	2
125	125	2
145	145	3
23	23	2
98	130	1
13	13	1
38	39	2
99	99	3
80	119	2
37	37	2
80	85	1
14	14	2
134	134	2
31	31	2
131	131	2
100	101	1
121	122	2
20	22	2
85	87	1
136	141	1
30	30	1
91	91	1
156	156	1
7	26	1
80	132	2
123	137	1
105	120	1
77	78	1
101	101	1
102	103	1
97	104	1
123	123	3
114	115	2
97	97	1
158	158	1
105	106	1
103	103	1
34	57	1
33	34	1
36	36	2
105	105	4
127	133	1
144	157	2
150	150	2
129	129	1
33	33	2
107	127	1
126	135	1
131	132	2
16	16	1
35	36	1
12	22	1
97	99	1
46	46	2
56	56	1
144	145	2
28	28	1
108	110	1
71	71	1
111	113	1
90	90	1
25	25	1
3	3	1
105	107	1
132	132	1
68	68	3
128	128	2
77	79	1
28	29	1
154	157	1
4	149	1
108	109	4
20	21	1
94	113	1
52	53	1
116	117	1
117	142	1
66	70	1
65	65	1
15	15	1
120	120	1
110	112	1
78	90	1
151	151	2
2	3	2
32	47	1
48	48	1
141	141	1
106	155	1
2	2	1
32	32	1
116	150	1
133	133	1
78	85	1
71	129	1
143	149	1
146	146	1
15	18	1
8	10	1
96	99	1
29	29	1
118	119	1
152	153	1
105	110	2
85	85	2
137	137	1
13	51	1
154	155	1
79	80	1
79	82	1
84	84	1
145	147	1
98	155	1
10	11	1
37	41	1
155	158	1
140	140	1
