157	158	1
8	8	4
179	179	4
169	169	2
46	65	2
4	4	4
84	84	3
68	68	5
222	222	1
79	81	2
30	30	2
182	182	1
153	153	2
87	91	1
239	241	2
99	102	1
189	189	2
114	115	1
104	106	1
174	174	6
15	16	1
175	203	2
235	235	6
32	32	4
200	200	5
173	208	1
110	110	4
181	181	4
216	240	1
96	96	1
227	227	2
214	240	1
170	170	7
223	224	2
241	241	8
55	55	3
176	176	3
58	68	2
88	88	4
214	217	1
221	221	4
191	191	2
48	50	1
217	217	4
95	96	4
45	45	5
27	28	1
64	64	2
243	243	7
5	5	6
118	118	4
112	112	2
173	173	2
169	170	5
35	35	4
83	83	1
216	216	1
64	65	3
67	70	2
97	98	2
168	169	5
32	38	1
225	225	1
220	220	5
146	147	1
203	203	3
48	48	4
144	177	2
111	111	4
229	229	3
218	218	7
95	99	2
177	178	1
213	220	2
236	236	7
186	186	11
176	177	3
214	214	6
237	237	1
77	77	2
22	23	1
244	244	6
86	86	1
190	190	3
29	29	1
232	233	1
47	47	3
19	19	2
66	66	2
73	73	3
164	186	1
78	94	1
59	60	1
230	230	3
151	151	4
146	146	2
195	196	1
26	26	5
69	69	3
7	7	8
56	56	3
212	212	10
240	240	6
2	79	2
167	167	5
79	82	3
204	204	2
219	219	3
21	21	1
232	243	1
246	246	3
9	9	2
226	226	2
38	38	4
216	217	5
26	53	1
156	160	1
159	159	4
238	238	3
78	83	1
211	235	1
234	235	1
3	3	4
235	236	1
208	208	3
30	145	2
12	12	2
158	158	4
36	36	4
150	150	1
44	45	3
40	40	1
210	210	7
195	195	4
53	53	5
117	117	3
197	197	4
37	37	3
109	109	8
81	81	2
224	224	3
40	54	1
168	191	1
215	238	1
56	108	1
166	166	4
175	214	1
87	87	2
54	54	4
20	30	2
97	107	2
158	183	1
99	99	4
210	219	1
98	98	1
24	24	6
21	64	1
57	57	4
29	30	3
96	97	2
162	162	4
183	200	1
91	95	1
201	201	2
215	242	1
46	46	5
33	33	3
56	89	1
217	218	3
17	17	4
106	106	1
6	6	7
209	210	4
86	89	1
78	78	5
60	61	1
215	215	4
65	87	2
231	232	2
169	191	1
76	81	1
92	92	3
15	27	1
113	113	2
198	199	2
145	145	3
226	245	1
244	246	1
26	32	1
27	27	3
51	65	2
71	72	2
85	85	3
155	156	1
228	229	1
194	195	1
177	177	6
28	32	1
58	58	4
205	205	1
184	184	4
108	108	7
172	173	1
22	22	1
53	145	1
57	59	3
245	245	2
10	10	3
71	78	1
108	109	2
207	211	1
209	209	6
25	26	2
196	196	2
48	91	1
216	224	2
83	106	1
49	49	3
165	165	7
2	2	4
39	39	3
35	36	1
231	231	4
160	160	2
185	185	5
213	245	1
214	215	1
80	81	3
163	164	3
61	61	5
206	206	3
187	187	2
165	166	2
217	219	2
78	79	2
201	207	1
178	178	1
65	66	1
235	241	1
234	234	7
225	246	1
202	202	6
15	15	3
102	105	1
49	51	1
181	205	1
215	249	1
31	31	3
172	184	1
232	232	2
208	209	2
63	63	1
34	42	1
239	239	2
159	187	1
198	198	3
20	20	2
74	74	2
49	66	2
168	212	1
62	63	1
157	157	4
30	31	3
201	202	1
50	52	1
88	101	1
119	120	1
85	97	1
207	207	6
172	172	4
76	101	1
223	223	3
191	192	3
114	114	3
249	249	1
90	90	3
95	95	1
20	62	1
65	65	2
89	89	2
229	230	1
47	162	1
183	184	2
77	78	1
213	213	2
181	246	1
26	36	3
101	101	7
94	94	2
179	203	1
58	59	1
191	193	2
164	164	1
182	227	2
202	213	1
56	68	1
161	162	1
34	34	2
17	204	1
46	47	1
185	187	1
70	70	2
188	189	1
197	198	1
3	236	1
53	54	1
156	156	1
85	86	1
171	195	1
73	74	1
178	186	1
28	28	2
195	240	2
1	1	1
192	192	2
71	84	1
104	104	1
111	225	1
193	193	1
247	248	1
215	216	2
50	50	4
206	228	1
186	188	1
240	247	1
16	16	1
238	244	1
109	113	1
107	107	1
163	163	2
211	211	3
18	19	1
188	188	2
80	105	1
168	208	1
75	80	1
152	152	1
54	244	1
75	75	2
4	5	1
157	159	1
183	183	3
44	44	2
236	241	1
210	211	2
187	191	1
119	119	3
34	225	1
59	59	1
2	8	1
171	171	1
116	117	1
120	120	1
42	42	1
200	207	1
68	80	1
199	208	1
179	180	2
42	43	1
55	56	2
168	170	1
240	241	1
94	166	1
33	41	1
33	36	1
76	76	1
48	62	1
56	57	1
228	228	3
100	100	1
41	46	1
78	80	1
194	196	1
242	242	2
168	168	1
180	206	1
155	155	2
244	248	1
118	119	1
67	67	1
102	107	1
247	247	4
52	52	1
159	185	1
82	86	2
31	32	1
18	44	1
163	165	1
96	108	1
99	100	1
210	230	1
171	228	1
189	191	1
25	25	1
51	51	2
211	247	1
71	92	1
23	23	1
33	34	1
194	194	1
60	60	1
210	220	1
226	227	1
173	216	1
22	156	1
26	43	1
11	11	3
32	33	1
194	218	1
180	180	2
235	246	1
224	225	1
55	68	1
209	220	1
175	175	1
220	221	1
41	41	1
64	226	1
215	219	1
62	62	1
193	195	2
176	192	1
116	116	5
104	107	1
236	237	1
91	117	1
48	49	1
171	208	1
150	153	1
28	51	2
203	204	1
144	145	1
43	44	1
167	229	1
79	80	1
228	245	1
87	109	1
67	71	1
101	117	1
158	159	1
178	182	1
170	198	1
212	220	1
2	224	1
184	185	1
21	24	1
101	109	1
43	43	2
90	100	1
117	119	1
71	116	1
58	71	1
102	104	1
93	93	1
230	231	1
186	187	1
153	154	1
90	92	1
199	199	1
165	171	1
233	234	1
212	230	1
40	47	1
72	73	1
170	171	1
55	95	1
29	31	1
90	91	1
85	100	1
68	70	1
79	79	1
59	61	1
16	203	1
115	115	2
10	155	1
107	118	1
171	174	1
