15	15	3
25	25	3
144	144	1
25	26	1
144	145	1
151	151	2
131	131	2
17	20	1
32	43	2
128	131	1
134	134	3
7	39	2
21	21	1
97	97	2
124	136	2
1	1	2
63	63	4
43	43	2
31	32	2
32	32	2
13	13	3
97	124	2
2	2	3
52	52	1
57	59	1
106	106	6
99	125	2
27	27	2
12	12	3
28	42	1
155	155	2
10	21	2
163	163	3
75	75	2
173	174	2
5	5	1
57	58	2
173	173	3
80	80	3
50	50	2
129	129	2
89	95	1
114	114	2
68	73	1
79	79	1
102	102	2
15	16	2
114	118	1
56	56	2
73	73	3
50	51	1
148	148	3
41	49	1
135	135	1
90	93	1
28	28	2
151	152	1
55	101	2
136	136	3
11	11	4
35	35	3
65	65	2
73	75	1
55	56	1
122	122	1
172	173	2
24	24	4
118	153	1
95	95	1
165	165	2
179	180	1
148	169	1
108	109	1
31	31	1
130	131	2
18	18	6
40	49	2
93	93	2
45	45	1
96	103	1
46	46	2
60	93	1
84	84	3
72	73	1
120	121	1
90	90	2
18	72	1
163	164	1
27	33	1
28	45	1
28	29	1
40	41	1
6	6	4
18	23	1
115	115	1
57	57	3
138	138	1
53	53	1
117	117	2
77	77	2
94	95	1
137	138	1
103	136	2
64	64	1
59	59	2
10	10	3
21	25	1
139	139	1
164	164	2
19	19	3
126	133	1
107	107	2
53	65	1
11	12	2
128	128	1
37	45	1
179	179	1
43	54	1
89	90	1
111	111	4
142	143	1
83	84	3
174	175	1
154	154	1
157	157	2
55	55	1
140	141	1
108	139	1
150	167	1
134	135	2
145	147	1
38	38	2
17	18	2
39	40	2
171	171	2
30	30	3
119	119	1
141	141	2
166	166	1
84	107	1
0	5	1
84	86	1
22	22	4
126	126	1
92	95	1
170	170	2
161	162	2
176	176	1
172	172	1
168	168	2
2	3	1
65	77	2
81	81	1
72	141	1
52	84	1
100	114	1
125	150	1
90	92	1
71	71	3
86	86	1
10	11	1
6	50	1
90	105	1
34	34	2
168	169	1
22	24	1
3	3	3
100	100	2
88	88	2
103	107	2
137	137	3
143	168	1
25	37	1
125	125	2
30	52	1
108	108	2
140	140	1
19	21	1
174	174	4
27	40	1
178	178	2
158	158	2
22	63	1
11	13	1
23	24	1
61	131	1
130	139	1
8	8	3
169	169	3
152	170	1
41	42	1
106	107	1
67	68	3
118	118	2
132	132	2
72	74	2
37	38	1
134	145	1
167	167	2
23	23	1
175	176	1
79	86	1
91	91	2
5	7	1
100	101	2
9	9	3
117	157	1
103	108	1
121	121	2
82	82	1
43	61	1
76	77	1
162	162	1
34	107	1
141	167	1
98	98	1
60	60	1
82	99	1
94	111	1
139	141	1
142	142	3
15	21	1
54	54	1
25	39	1
74	74	1
80	86	1
145	146	1
34	36	1
68	68	1
160	161	2
135	136	1
83	83	1
8	10	1
180	180	1
105	105	1
25	169	1
42	42	3
16	16	1
150	150	1
152	152	1
165	170	1
33	37	1
9	10	2
125	163	1
149	149	1
14	32	1
9	28	1
78	78	1
99	100	1
7	7	2
49	50	1
109	148	1
72	72	1
122	126	1
140	167	1
131	132	1
20	45	1
64	65	1
169	170	1
26	26	2
27	28	2
4	5	1
126	141	1
149	169	1
133	133	1
33	33	1
153	153	1
143	143	1
71	72	1
132	139	1
40	40	1
147	147	1
14	14	1
