29	29	21
46	47	1
12	21	1
162	162	16
34	37	1
63	63	12
173	190	1
37	37	10
76	76	10
220	220	8
69	69	7
56	56	13
201	201	7
124	125	4
145	146	3
121	121	11
88	88	15
180	180	9
2	2	10
168	168	16
149	150	3
154	155	3
49	51	4
45	45	18
199	199	5
185	186	3
133	134	5
67	144	1
191	191	7
47	62	1
61	61	8
105	105	9
6	6	13
32	127	1
161	161	13
167	167	22
211	211	3
71	72	3
28	65	1
187	187	11
33	219	2
154	154	17
203	234	2
62	62	10
151	151	14
225	226	8
119	139	1
232	232	11
105	130	1
151	168	1
234	234	6
109	109	9
113	114	2
164	164	12
184	186	5
202	202	8
81	81	8
197	198	2
204	205	2
234	236	1
218	218	7
69	73	1
74	102	1
45	46	5
138	139	3
199	217	1
18	20	4
42	42	16
11	11	11
177	178	8
236	236	8
129	160	1
83	83	9
68	69	2
9	24	2
100	100	11
70	70	10
165	187	1
8	8	16
225	225	5
27	32	1
150	150	15
129	129	9
159	186	1
30	30	10
60	60	17
55	55	13
158	169	3
127	172	1
128	136	2
76	77	6
165	183	1
169	169	16
183	183	9
9	9	10
126	126	8
107	108	2
212	213	5
214	216	1
11	65	1
96	115	1
176	176	12
192	199	1
14	18	1
78	78	10
150	157	1
3	10	2
29	237	1
133	143	2
99	99	9
37	41	1
39	44	1
176	177	4
1	207	1
44	45	4
0	1	5
17	17	12
5	5	7
229	230	6
151	154	1
180	181	5
131	131	2
81	85	1
39	46	1
172	172	23
149	149	18
57	57	8
137	137	12
165	165	4
195	195	6
147	147	12
15	15	12
22	22	11
188	188	10
161	164	1
221	221	5
28	28	9
105	107	1
51	51	8
62	65	1
217	217	14
95	95	3
84	84	11
145	145	12
137	148	1
65	88	3
211	225	2
182	182	11
42	167	1
21	21	10
237	237	7
72	72	13
2	6	1
116	117	5
7	8	3
113	113	14
119	135	1
103	104	5
222	222	4
204	213	1
213	215	2
3	3	9
160	176	2
197	197	12
19	19	13
159	159	6
186	186	12
153	158	1
22	23	4
101	102	5
85	85	13
171	191	1
169	171	1
47	47	7
204	204	7
3	229	1
54	63	1
7	7	7
144	161	3
184	187	4
233	236	2
212	214	2
49	49	10
151	153	2
120	127	1
13	15	4
146	146	8
157	180	2
115	116	5
216	216	14
81	82	5
237	238	4
191	220	1
157	157	11
221	222	3
162	165	1
134	160	1
214	215	5
155	155	5
152	152	17
15	16	3
58	58	8
86	86	10
53	55	1
181	181	18
80	82	3
215	217	1
9	232	1
174	175	6
141	142	6
71	71	19
178	178	17
128	128	15
36	36	9
46	46	13
158	158	18
7	9	1
115	115	9
29	70	1
120	120	12
168	176	1
108	155	1
164	166	1
186	187	5
8	16	1
121	182	1
105	190	1
66	66	16
23	23	11
59	59	9
13	22	2
108	149	1
31	45	1
76	85	1
154	159	1
234	235	7
1	2	2
130	130	10
115	143	1
134	134	6
15	20	2
27	27	13
20	20	13
80	80	9
21	56	1
39	60	1
150	154	2
199	209	1
192	192	4
133	133	10
132	133	5
47	53	1
146	149	4
1	1	12
73	74	2
43	43	4
176	203	1
116	116	6
59	60	1
102	103	5
220	221	1
73	77	2
82	84	1
152	233	1
206	206	7
39	40	2
185	185	8
32	32	5
13	14	4
148	148	13
23	34	1
184	184	20
140	140	5
101	174	1
111	116	2
175	178	1
163	163	6
182	183	1
38	40	1
193	196	3
175	175	8
123	123	9
136	136	8
239	242	1
240	240	7
102	102	11
62	63	3
125	126	2
153	180	1
184	190	3
37	38	5
126	127	3
107	124	1
198	198	6
75	75	11
127	145	1
58	59	2
242	242	7
65	65	8
169	170	6
138	138	7
227	230	1
180	182	3
33	74	1
214	214	6
73	75	2
64	65	4
16	16	10
98	98	4
33	183	2
9	219	2
48	50	1
79	79	14
9	10	3
24	25	4
101	101	13
205	227	1
207	215	1
148	168	1
180	183	2
19	20	3
112	113	4
107	172	1
10	10	8
144	144	8
77	78	7
26	26	15
2	3	5
193	193	2
179	218	2
110	110	2
136	137	2
128	129	4
41	41	14
137	138	4
198	216	1
151	184	1
208	208	8
67	67	11
166	167	4
193	229	1
3	4	2
33	33	9
103	107	2
4	4	11
51	52	3
171	171	17
117	126	1
139	142	3
103	103	10
194	209	1
217	224	1
0	23	1
153	153	10
173	175	1
40	40	9
143	143	8
188	189	1
47	48	3
118	118	13
125	125	6
123	124	5
224	225	2
14	14	8
18	36	1
139	140	5
123	126	2
17	18	3
179	180	5
234	237	1
122	122	7
141	141	11
68	68	7
76	78	2
178	180	1
119	119	10
32	226	1
43	73	1
61	219	2
64	75	1
132	172	2
140	143	1
89	89	3
156	157	5
13	13	10
225	229	1
40	41	4
162	181	2
48	49	3
16	52	1
213	213	5
24	26	1
158	172	1
26	102	1
135	135	7
190	216	1
106	106	6
158	174	2
173	173	22
130	131	2
25	25	8
56	57	5
34	34	6
166	166	11
106	120	1
17	20	2
160	160	14
68	236	1
142	142	4
165	168	2
178	181	1
104	104	10
97	97	13
38	38	16
8	88	1
218	219	4
55	78	1
18	18	8
235	235	4
21	22	6
157	162	2
83	136	1
26	45	2
187	206	1
231	231	9
224	224	10
175	177	5
44	44	5
160	161	4
226	227	6
4	6	2
39	42	3
110	183	1
101	177	1
159	169	1
0	15	1
73	174	1
152	192	1
32	33	3
57	59	1
36	197	1
233	233	5
220	225	1
64	64	8
150	162	1
182	227	1
50	56	1
194	197	1
8	9	4
72	183	1
74	75	5
170	234	2
108	108	7
73	73	10
156	156	9
32	156	1
105	147	1
228	228	7
39	39	6
190	190	7
199	200	3
71	128	1
155	157	1
35	35	2
232	238	1
0	159	1
33	35	4
54	54	12
74	74	18
172	203	1
238	238	4
127	127	8
103	105	4
117	117	4
172	173	5
155	156	5
34	35	2
33	38	1
70	73	1
217	218	6
193	194	4
158	159	4
239	241	1
4	229	1
160	166	1
191	194	2
145	147	1
70	71	4
36	82	1
12	12	7
35	36	4
212	212	7
143	151	1
169	196	1
82	82	4
35	166	1
174	176	3
43	176	1
225	227	1
52	52	7
186	188	1
143	147	2
3	231	1
140	141	2
231	232	1
205	205	5
26	242	2
157	165	1
24	120	1
153	154	5
200	200	8
58	116	1
83	166	1
225	230	1
228	231	1
239	239	5
65	70	1
105	124	1
174	174	10
143	144	2
168	187	3
179	192	1
0	0	4
53	53	5
198	199	3
115	118	2
105	109	2
184	208	1
229	229	8
55	58	3
111	112	1
183	184	2
72	73	3
123	125	1
31	31	8
16	17	3
50	67	2
47	128	1
209	210	9
47	66	1
146	166	1
161	169	1
33	45	2
177	177	13
181	231	1
28	39	1
45	231	1
147	148	6
236	239	1
41	230	1
88	158	2
124	124	7
121	122	5
29	38	1
111	111	4
64	69	2
111	129	1
12	230	1
12	15	1
158	163	2
49	54	1
75	80	2
152	230	1
85	86	2
164	165	7
210	210	7
80	81	5
31	73	1
101	171	2
124	126	4
240	241	2
31	32	7
51	53	2
235	236	2
97	120	1
50	51	2
200	201	4
42	153	1
232	233	2
133	191	1
34	36	3
179	179	11
43	44	8
33	34	3
120	128	1
38	48	1
6	7	3
78	81	1
125	127	3
182	216	1
207	207	6
194	194	4
36	78	1
196	208	1
43	48	1
32	46	2
44	183	1
63	233	2
37	46	1
96	96	3
208	209	1
49	81	1
226	226	7
139	139	8
119	120	2
74	145	1
195	196	1
109	112	1
181	182	1
142	143	1
144	146	1
162	163	1
78	79	2
112	112	3
30	39	1
29	30	4
22	50	2
12	41	1
230	230	4
56	63	3
158	170	1
19	61	1
38	55	1
33	37	1
49	161	1
47	86	2
209	230	1
160	230	1
23	24	5
215	216	2
26	27	5
14	49	1
21	51	1
12	190	1
238	239	3
170	177	1
14	23	1
104	127	2
143	176	1
154	157	1
41	59	1
127	128	2
241	242	1
15	36	1
161	179	1
228	235	1
9	17	2
203	203	4
130	136	1
109	110	1
185	187	1
183	187	2
39	55	3
53	54	2
24	28	1
39	47	2
154	200	1
152	162	2
178	179	3
2	180	1
146	147	1
77	81	2
173	174	4
149	151	1
119	136	1
123	145	1
88	104	1
108	152	1
114	114	7
133	137	1
111	220	1
206	209	1
158	205	1
55	74	1
66	68	1
101	118	1
71	74	1
126	133	1
187	201	2
83	108	1
147	163	1
198	203	2
191	219	1
31	37	2
32	70	1
233	240	1
102	118	1
219	219	6
181	183	1
222	223	1
15	18	2
170	170	3
107	107	6
28	96	1
52	53	3
171	172	2
61	62	5
146	178	1
69	74	1
160	162	1
15	21	1
50	50	9
54	60	3
77	77	3
190	191	3
62	64	1
211	212	1
88	135	1
196	196	2
85	113	3
163	164	2
10	11	2
96	129	2
132	132	1
33	228	1
6	30	1
84	95	1
15	38	2
157	158	5
118	119	3
74	76	1
138	143	1
161	162	6
84	175	1
44	128	1
77	79	4
153	160	2
209	215	1
184	185	4
116	118	2
201	204	2
136	150	2
134	147	1
129	130	2
24	24	8
96	97	5
114	115	1
69	110	1
126	136	1
47	120	1
165	182	1
36	37	2
159	167	1
45	67	1
137	139	1
207	208	3
6	18	1
81	83	1
161	166	1
11	69	1
11	12	2
85	173	1
215	218	1
67	164	1
12	19	1
103	108	1
54	58	4
68	83	1
198	200	1
174	230	1
66	67	3
8	19	1
98	99	3
58	60	3
15	25	1
239	240	1
35	52	1
223	223	4
12	20	1
209	209	2
227	227	5
233	243	1
77	82	1
189	189	3
3	7	1
126	134	2
159	208	2
163	165	1
42	152	1
160	178	1
108	148	1
99	100	4
189	190	2
80	115	1
139	141	2
227	237	1
91	121	1
135	136	2
215	215	3
5	6	6
112	174	1
146	169	1
46	55	1
8	37	1
34	180	1
2	55	1
40	48	1
12	13	3
48	48	1
141	154	1
59	84	1
67	68	1
177	179	1
143	146	2
75	76	1
62	70	1
5	166	1
152	159	1
22	60	2
49	50	1
13	34	1
79	80	2
32	47	2
149	173	2
83	84	2
32	38	1
18	127	1
204	206	1
12	50	1
209	212	1
65	68	3
125	147	1
205	206	1
192	193	1
46	74	1
31	33	1
18	19	3
166	180	2
134	232	1
27	28	5
51	56	1
26	32	1
203	204	2
109	154	1
201	218	1
27	74	1
96	103	1
123	129	2
33	170	1
26	71	1
24	29	1
192	198	1
147	149	1
168	169	2
236	237	2
158	181	1
26	47	1
99	207	1
159	160	1
146	174	1
13	48	2
77	84	1
1	16	1
29	32	1
241	241	2
29	47	1
120	121	4
215	230	1
53	83	2
8	24	1
150	151	4
139	147	1
78	80	1
41	42	1
134	136	2
39	80	1
84	100	1
86	144	2
159	190	2
61	120	1
54	55	2
67	159	1
134	159	1
137	143	1
103	106	1
67	78	1
3	8	1
142	146	1
2	15	1
152	158	1
140	146	2
213	214	1
161	163	2
111	134	1
149	169	1
37	48	1
220	224	1
142	147	1
16	65	1
99	111	1
49	56	1
11	63	1
152	169	1
26	194	1
0	9	1
171	207	1
50	228	1
212	215	1
4	181	1
29	31	2
70	99	1
83	125	1
5	192	2
109	129	1
101	202	1
32	34	1
117	118	3
10	25	2
30	31	6
80	83	1
139	186	1
175	176	2
80	87	1
148	149	1
218	224	1
30	78	1
138	152	1
148	150	1
46	64	1
106	110	1
3	6	1
161	180	1
100	175	1
99	172	1
162	205	1
24	39	1
137	145	1
230	231	1
11	29	1
17	34	1
121	148	1
30	32	1
44	184	1
80	101	1
12	42	1
166	179	1
174	202	1
7	17	1
23	51	1
106	174	1
167	204	1
104	166	1
17	37	1
215	227	1
72	145	1
11	15	1
73	78	1
235	237	1
8	157	1
117	161	1
46	114	2
170	171	1
72	85	1
10	20	1
20	21	1
68	115	1
166	168	2
97	106	1
33	36	2
6	23	1
0	71	2
31	172	1
151	221	2
55	162	1
128	145	1
38	120	1
47	170	1
210	211	1
45	63	1
163	225	1
50	103	1
4	5	2
165	166	3
228	230	2
14	15	3
115	117	2
167	168	1
127	200	1
15	158	1
119	167	1
3	32	1
218	238	1
225	231	1
159	175	1
60	117	1
154	162	1
194	195	1
183	213	1
101	106	1
219	220	3
236	240	1
7	12	1
168	181	1
125	158	2
140	159	1
73	97	1
78	149	1
100	174	1
220	222	1
102	114	1
202	238	1
137	163	1
202	203	1
96	122	1
24	54	1
31	78	1
63	65	2
9	69	2
29	46	1
15	134	1
29	33	1
202	210	1
195	216	1
151	152	2
192	196	2
10	16	1
12	17	1
81	102	1
33	42	1
123	155	1
160	180	1
7	198	1
109	134	1
202	218	1
82	83	1
105	127	1
50	71	1
145	183	1
146	148	1
74	86	1
38	43	1
34	61	1
38	39	1
32	71	1
153	173	1
42	231	1
62	71	2
23	54	1
187	188	1
1	34	2
4	127	1
72	76	1
149	156	1
40	57	1
170	183	1
50	54	1
146	180	1
2	71	1
215	225	1
189	210	1
32	35	1
223	230	1
40	153	1
13	49	1
50	53	1
76	83	2
21	33	1
167	184	1
24	152	1
154	156	1
190	220	1
165	167	1
102	109	3
13	221	1
104	115	1
127	136	1
15	19	1
143	154	1
58	61	1
163	166	1
25	207	1
62	73	1
31	39	1
163	167	1
197	217	1
121	149	1
169	195	1
169	187	2
24	62	1
114	137	1
69	70	2
65	67	1
200	216	1
1	182	2
71	237	1
20	37	1
151	155	1
75	79	1
84	105	1
122	152	1
45	49	1
168	178	1
155	163	1
160	202	1
10	31	1
194	196	1
136	139	1
46	119	1
40	51	1
24	180	1
219	233	2
85	88	1
44	63	1
35	37	1
39	43	1
141	144	1
128	130	1
197	209	1
88	234	1
160	169	1
165	190	2
181	184	1
151	167	1
148	152	1
6	13	1
128	172	2
30	45	2
46	109	1
127	153	1
49	85	1
148	161	2
17	161	1
42	44	1
131	160	1
63	218	1
78	230	1
139	150	1
11	32	1
56	60	1
209	226	1
76	186	1
148	182	1
216	234	1
117	142	1
26	208	1
63	85	1
1	149	1
198	201	1
206	207	1
5	56	1
106	107	1
57	58	1
49	52	1
195	197	1
68	207	2
53	101	1
155	167	1
55	62	1
35	53	1
22	163	1
49	201	1
105	106	1
38	79	1
138	156	1
36	54	1
75	78	1
9	28	1
226	229	1
88	89	1
74	83	1
119	174	1
71	174	1
108	109	1
139	239	1
27	75	1
108	129	1
152	168	1
25	71	1
144	145	1
200	211	1
106	126	1
144	154	1
72	81	1
28	44	1
86	87	1
219	234	1
187	211	1
54	196	1
218	233	1
97	98	1
133	169	1
128	159	1
225	236	1
104	105	1
30	33	1
10	43	1
52	78	1
16	41	1
27	29	1
199	229	1
43	65	1
220	232	1
42	58	1
26	29	1
144	151	1
124	154	1
169	183	1
143	165	1
96	98	1
60	62	1
156	158	1
17	128	1
24	47	1
134	135	1
55	56	1
0	231	1
238	240	1
72	144	1
67	116	1
95	109	1
189	213	1
187	190	1
8	23	1
