152	152	2
16	43	1
225	225	4
212	236	1
236	236	3
8	8	3
43	45	1
110	110	2
9	9	5
9	10	1
35	35	3
59	59	1
207	241	1
59	232	1
50	62	1
54	54	3
171	171	2
44	45	3
48	48	2
110	111	2
25	25	7
28	28	1
30	30	2
227	227	4
19	19	3
33	34	1
60	177	1
210	210	2
77	86	1
221	222	2
197	197	2
162	163	1
85	85	4
195	195	2
11	11	2
51	51	3
155	155	3
44	44	5
95	95	5
12	12	1
49	49	4
237	237	1
205	205	3
244	244	2
53	53	4
186	186	2
20	20	1
185	185	5
235	241	1
59	61	2
66	66	2
12	152	1
209	209	6
27	27	2
206	207	2
228	229	2
226	231	1
40	40	2
175	202	1
66	196	1
60	63	2
150	150	2
38	38	8
151	151	1
226	226	4
34	34	3
98	103	1
17	34	1
45	45	4
115	115	3
197	219	1
52	52	3
173	173	3
102	105	2
79	79	2
65	65	3
246	247	1
219	219	1
114	114	1
154	156	1
55	209	1
111	111	6
69	69	1
234	234	6
120	120	1
117	117	3
26	26	1
105	106	1
89	89	2
53	54	1
39	39	4
109	109	2
63	63	1
216	217	3
7	7	4
223	223	2
83	83	1
87	88	1
70	70	4
106	108	1
184	202	2
69	102	1
16	16	3
17	17	1
113	114	2
202	203	3
183	183	1
232	234	1
74	74	2
184	184	2
220	220	2
223	224	1
95	96	1
61	62	3
58	58	3
203	203	3
116	116	4
24	25	1
184	212	2
218	218	3
202	202	1
230	230	3
233	233	2
19	20	1
172	172	1
167	167	2
201	201	2
34	35	2
190	190	1
97	97	1
101	107	1
42	42	2
219	245	1
213	213	3
222	223	2
18	18	2
181	181	3
47	47	2
97	98	2
74	75	2
71	71	1
5	100	1
56	56	3
183	184	4
118	118	2
233	234	1
149	150	1
196	196	5
72	72	1
194	198	1
93	93	2
31	32	1
66	82	1
231	231	3
45	112	1
10	28	1
92	92	3
199	199	3
204	204	3
113	113	1
44	112	2
39	40	1
197	198	2
241	241	2
2	2	3
196	199	2
154	155	1
192	192	1
228	228	2
12	40	1
246	246	4
4	5	3
68	70	1
3	3	3
90	92	2
212	213	2
195	199	1
77	78	1
57	58	1
10	10	3
200	200	4
223	229	1
37	37	3
165	165	3
151	152	1
238	239	2
174	174	4
215	215	1
15	41	1
169	176	1
221	221	1
232	232	5
238	238	2
179	179	2
14	15	1
170	170	4
121	121	2
1	2	1
108	108	3
149	149	1
51	59	2
166	166	3
59	64	1
3	43	1
32	32	3
14	14	1
31	31	2
182	182	1
55	56	1
167	205	1
109	118	1
103	103	2
182	227	1
150	151	1
19	28	2
67	67	2
206	206	1
87	89	1
57	57	2
219	220	1
181	182	1
220	226	1
226	227	2
38	152	1
67	69	1
114	115	2
88	89	1
189	192	1
78	78	3
194	194	2
200	211	1
177	177	1
178	178	1
48	51	1
31	36	1
3	4	1
205	206	1
212	212	2
168	168	1
185	192	1
5	5	1
81	81	1
52	53	2
36	36	1
176	176	4
223	236	1
164	165	1
214	214	1
227	230	1
235	235	1
43	44	3
162	162	1
6	54	1
60	61	2
201	202	1
161	162	1
41	41	1
65	66	1
64	65	1
83	85	2
76	76	1
243	243	1
6	6	1
191	192	1
68	68	1
208	208	2
24	24	3
168	172	1
189	190	1
80	81	1
112	112	2
43	43	3
186	198	1
46	46	3
175	175	1
26	27	1
158	158	1
165	166	3
156	156	1
163	163	1
65	91	1
177	178	1
164	164	1
18	28	1
160	160	2
62	62	1
61	176	1
174	175	1
48	219	1
157	157	1
54	55	1
89	90	2
145	145	1
58	61	1
168	184	1
152	153	1
218	219	1
75	75	1
214	219	1
49	218	1
186	210	1
211	211	1
23	23	2
197	199	1
207	207	1
33	33	1
4	4	1
70	76	1
221	223	1
224	224	1
224	225	1
247	248	1
119	119	1
45	111	1
96	97	1
214	235	1
67	68	1
45	180	1
14	53	1
224	226	1
