158	158	4
31	33	3
228	228	1
176	176	1
97	97	1
68	69	1
63	63	1
103	103	2
54	55	1
89	89	1
0	1	1
52	53	2
28	28	2
101	101	2
150	150	6
99	102	1
148	148	3
217	217	2
159	159	2
124	124	1
24	25	1
147	147	2
159	179	1
175	177	1
203	204	1
76	76	2
143	143	3
150	151	3
60	60	2
81	81	2
68	68	1
230	230	1
140	142	1
191	195	1
113	113	6
10	10	3
166	168	1
197	197	1
21	67	1
142	142	1
3	7	1
178	178	4
169	170	1
171	171	3
137	167	1
227	227	2
160	160	3
242	242	4
65	108	1
206	216	2
183	185	1
152	161	1
73	73	2
9	9	2
151	151	3
20	20	1
155	156	1
219	219	5
12	15	1
153	157	2
222	222	1
240	240	1
145	145	3
154	154	4
116	116	1
211	211	2
137	138	2
139	139	4
46	46	2
169	171	1
163	163	1
117	117	2
35	35	2
156	186	1
10	43	1
211	212	1
40	40	3
125	126	3
124	125	2
179	179	3
161	169	1
3	3	3
138	139	1
18	18	1
175	203	1
24	24	1
170	174	1
210	210	2
220	220	2
85	97	1
156	156	2
88	98	1
213	213	1
177	178	1
27	234	1
11	16	2
225	227	2
181	181	2
214	214	2
190	192	3
61	84	1
130	130	3
179	187	1
169	169	4
85	86	2
21	24	1
99	106	1
192	192	1
204	232	2
63	64	1
239	239	1
209	209	1
229	230	1
147	148	1
1	25	1
119	119	2
141	165	1
107	107	2
194	199	1
165	166	1
16	16	1
47	47	4
25	25	6
43	231	1
100	100	2
54	54	1
169	179	1
221	222	1
152	156	1
184	187	1
106	108	1
84	84	2
78	78	2
159	160	2
168	168	2
75	75	2
106	106	1
123	125	1
177	177	4
136	136	2
185	186	1
44	241	1
161	161	1
58	58	4
51	51	2
46	47	1
95	97	1
0	0	2
48	48	1
11	12	2
187	188	1
128	128	1
241	241	1
55	84	1
30	32	1
108	108	1
54	61	1
71	72	1
179	180	3
69	69	1
184	211	1
164	179	2
153	184	1
203	203	1
231	233	1
70	72	1
133	134	1
137	189	1
26	26	1
14	21	2
225	225	1
34	34	2
64	64	2
225	226	1
202	202	1
180	184	1
62	62	1
186	186	3
109	109	2
116	117	1
42	42	2
6	6	1
190	190	1
110	110	1
166	182	1
241	242	2
118	172	1
132	132	1
74	74	2
125	125	1
112	242	1
173	173	1
122	142	2
105	106	1
111	113	1
70	71	1
205	205	2
130	235	1
145	149	1
3	232	1
188	189	1
36	36	1
113	119	1
119	137	1
194	194	1
15	21	1
70	70	2
19	21	1
187	187	2
82	83	1
76	78	1
227	228	1
0	16	1
7	7	1
185	187	2
25	45	2
150	167	1
15	15	4
158	159	1
120	120	1
140	140	2
85	85	2
183	183	1
218	218	1
125	127	2
194	195	1
160	203	4
155	157	2
37	37	3
142	197	1
49	50	2
44	45	1
215	227	1
188	188	1
74	75	1
215	215	2
12	13	1
55	101	1
5	6	2
177	196	2
133	133	1
234	234	1
222	224	1
200	200	2
161	163	1
30	30	2
56	57	2
167	167	1
44	54	1
139	158	1
172	172	2
130	134	1
67	67	1
34	36	1
117	188	1
229	229	1
38	52	1
191	191	1
184	185	1
170	170	3
165	165	1
215	216	1
31	32	1
102	106	1
6	7	1
95	219	1
54	86	1
65	65	2
149	158	1
52	52	4
165	167	1
174	174	2
2	4	1
138	140	1
30	58	1
230	231	1
144	144	2
114	114	1
122	123	1
30	46	1
20	55	1
149	150	1
205	233	2
37	39	1
33	33	1
208	228	2
73	74	1
118	119	1
80	84	1
66	67	1
196	196	1
8	8	1
212	228	1
157	157	1
44	44	1
240	241	1
172	177	1
222	223	2
127	127	1
118	152	1
184	186	1
57	57	2
22	22	1
146	146	1
135	162	1
224	224	1
45	240	1
180	181	1
10	11	1
82	82	1
197	205	1
126	135	1
219	220	1
149	151	2
209	212	1
10	31	1
7	8	1
123	123	1
104	104	2
119	136	1
72	72	1
186	188	1
46	70	1
75	76	1
12	177	1
205	206	1
44	178	1
183	184	1
191	202	1
41	41	1
125	193	1
180	183	1
12	39	1
49	49	2
152	159	1
43	43	1
103	134	1
207	207	1
117	118	1
151	161	1
217	218	1
146	179	1
141	149	1
54	60	1
11	85	1
201	202	1
48	51	1
208	208	1
45	45	1
212	213	1
145	197	1
179	181	1
129	129	1
113	114	1
171	172	1
135	135	1
122	122	1
