216	237	1
174	232	1
37	37	6
47	47	3
52	52	4
66	67	1
181	181	5
39	39	2
177	177	8
209	209	4
221	221	3
222	223	1
244	244	2
29	113	1
180	182	1
36	36	12
8	8	8
168	171	1
187	187	6
82	83	3
79	85	1
223	223	7
208	208	4
183	184	5
239	239	1
81	81	4
16	16	5
184	224	1
111	111	4
171	171	3
240	240	5
210	210	1
194	194	3
10	10	7
32	92	1
77	77	4
31	31	4
95	179	1
191	232	1
11	11	8
27	28	2
106	106	2
38	38	7
220	220	4
190	191	1
53	53	7
41	207	1
34	34	5
195	195	7
207	207	7
59	59	5
217	217	6
74	75	2
40	40	7
118	119	3
229	229	3
90	90	5
204	204	6
203	203	4
11	15	1
18	18	5
207	227	2
191	191	5
50	51	1
231	231	6
49	76	1
62	63	2
147	147	2
198	211	1
114	114	3
69	69	3
31	110	1
215	215	5
4	4	3
109	109	6
72	73	2
116	117	2
238	238	7
25	25	9
227	228	1
46	46	9
218	218	4
188	188	5
215	248	1
34	35	5
222	243	1
4	7	2
63	90	1
186	186	6
42	43	3
222	222	6
200	208	1
180	198	1
30	30	10
110	110	4
27	27	7
194	196	3
205	205	8
211	212	3
100	100	2
197	210	1
5	5	9
24	24	1
201	201	6
203	204	3
162	162	3
33	33	5
246	246	4
65	66	5
41	41	5
26	26	6
88	88	5
230	230	8
32	32	5
211	214	1
197	200	2
63	63	10
232	232	6
219	219	6
202	202	5
225	225	5
183	183	8
248	248	2
42	163	1
182	182	6
49	50	3
175	175	7
78	93	2
1	2	3
96	102	1
153	153	3
7	7	3
90	99	2
151	151	3
169	169	5
196	197	3
159	164	1
2	3	1
86	86	3
68	68	6
169	171	1
22	22	3
112	112	9
199	199	8
165	165	6
159	163	1
219	224	1
163	163	6
245	245	3
193	212	1
154	154	6
29	29	9
145	145	3
107	107	6
66	66	4
185	215	1
39	40	1
233	233	2
223	228	1
42	42	6
72	72	1
4	5	1
52	53	6
40	41	1
22	34	1
40	168	1
173	174	1
6	6	5
193	194	1
189	190	4
65	65	3
0	1	1
84	84	3
5	6	1
185	185	3
235	236	2
2	2	4
227	227	7
174	205	1
192	195	1
24	25	2
184	186	2
96	97	7
172	229	1
117	117	9
206	206	2
60	60	1
103	103	1
191	195	1
175	208	1
224	224	6
85	87	1
226	227	2
152	152	2
159	200	2
58	149	1
241	242	1
165	169	1
247	247	6
36	37	3
20	20	4
55	154	1
226	226	7
36	44	1
51	52	4
54	54	6
51	173	1
89	89	4
174	209	1
201	220	2
194	208	1
85	85	3
51	51	2
44	44	2
163	200	1
28	28	6
92	92	2
21	21	4
115	115	2
208	214	2
156	156	2
206	207	3
154	204	1
167	167	5
58	58	3
163	219	1
45	45	4
180	180	6
209	217	1
37	79	1
183	190	1
196	196	5
216	217	1
35	35	9
216	216	2
118	118	4
214	214	3
208	210	1
162	213	1
207	211	1
95	96	1
23	23	2
152	153	1
84	85	2
21	22	3
85	116	1
175	176	2
38	46	1
75	76	2
241	241	1
204	229	1
86	87	1
69	70	2
11	12	2
191	197	1
237	237	4
168	226	1
102	104	1
213	213	2
192	193	1
119	119	10
2	4	4
149	149	1
76	76	2
187	192	1
235	237	1
170	170	5
79	82	2
20	34	2
13	13	2
45	46	3
218	233	1
214	216	3
10	22	1
57	57	3
29	116	2
101	101	2
9	9	4
2	32	2
23	24	3
161	161	3
234	234	5
91	93	2
114	115	1
15	15	3
202	205	1
167	207	1
74	76	1
167	180	2
92	181	1
225	226	2
233	234	3
165	166	1
61	61	1
177	185	2
171	213	1
237	241	1
168	201	1
211	221	1
184	184	1
43	68	2
106	108	2
42	165	1
212	212	3
98	99	1
180	186	1
219	222	1
174	174	4
50	50	2
177	178	2
185	209	1
172	207	1
228	228	9
214	234	1
79	79	2
102	103	2
27	47	1
190	247	2
243	243	3
17	17	2
55	56	1
39	145	1
70	70	2
56	56	7
164	164	4
242	243	1
56	57	1
199	218	1
38	39	3
43	44	3
235	235	1
173	173	2
183	193	1
169	170	2
241	248	1
109	150	1
178	178	2
9	11	2
58	77	2
19	19	4
10	65	1
87	87	4
37	38	1
150	150	2
14	14	5
191	208	1
117	118	3
229	230	2
86	89	1
112	114	2
102	102	3
108	108	1
186	188	3
64	64	1
230	244	1
170	171	2
105	105	2
42	204	1
82	82	1
234	235	2
110	111	4
49	49	5
204	205	3
113	113	3
101	102	2
43	43	2
8	205	1
212	213	1
171	193	1
54	55	3
47	48	1
241	249	1
95	95	2
111	112	2
44	46	1
76	77	2
179	179	1
62	62	1
216	240	1
180	195	1
185	225	1
236	245	2
169	226	1
53	54	1
159	159	1
229	231	1
0	0	2
160	160	2
159	178	2
96	96	1
164	165	2
91	209	1
55	55	5
169	176	1
237	238	2
221	222	2
85	86	3
168	168	3
78	88	2
176	178	4
193	193	3
113	147	1
91	91	2
99	99	1
7	8	2
178	179	1
201	246	1
185	186	2
90	92	1
15	50	1
20	207	2
189	246	1
12	12	2
44	101	1
27	65	1
176	176	4
115	117	1
64	66	1
107	108	2
182	183	4
13	14	1
106	109	1
211	211	1
40	52	1
12	243	1
192	192	5
79	80	2
198	198	3
18	20	1
174	195	1
19	20	3
64	96	1
191	198	1
194	195	1
48	48	3
71	71	2
1	242	1
47	230	3
108	109	2
163	166	1
183	185	1
166	167	1
34	244	1
78	94	1
172	172	2
24	26	1
6	51	1
159	190	1
59	116	1
149	150	1
38	40	2
44	45	3
43	150	1
200	200	2
8	234	2
204	231	1
236	237	1
172	223	1
67	110	1
186	187	2
192	196	1
36	42	1
85	93	1
175	184	1
197	247	1
209	210	1
14	15	2
31	32	2
78	78	2
73	73	2
3	3	4
34	85	1
205	212	1
215	241	1
112	115	1
167	181	1
185	234	1
30	31	1
166	201	1
46	54	1
61	62	2
49	116	1
97	97	1
157	157	2
190	190	1
17	21	1
211	229	1
72	77	1
237	244	1
197	197	1
187	191	1
166	166	2
87	90	1
91	101	1
238	239	1
48	50	1
174	224	1
179	189	1
226	236	1
189	189	1
75	75	2
197	198	1
36	155	1
55	57	1
117	119	1
11	38	1
91	92	1
87	89	1
6	15	1
68	75	1
99	100	1
176	177	1
93	93	1
38	71	1
164	186	1
21	23	1
216	225	1
48	49	1
201	204	1
23	31	1
47	78	1
81	82	1
159	194	1
120	120	1
209	243	1
95	98	1
182	228	1
9	162	1
227	245	1
41	162	1
49	51	1
91	100	1
75	108	1
71	74	1
41	43	1
191	192	1
178	180	1
201	202	2
27	29	1
146	146	1
144	145	1
23	28	1
51	77	1
158	159	1
58	84	1
3	6	1
29	31	1
219	221	1
22	23	2
86	102	1
18	205	1
8	9	1
110	113	1
239	241	1
1	1	1
106	107	1
15	62	1
6	226	1
154	155	1
90	176	1
49	229	1
114	116	1
40	46	1
110	145	1
207	222	1
156	162	1
59	60	1
98	98	1
79	83	1
28	45	1
245	246	1
46	47	1
26	27	1
33	34	1
211	224	1
48	51	1
232	239	1
12	17	1
200	201	1
92	173	1
