64	64	9
57	58	3
29	29	5
48	48	3
20	20	1
50	50	6
52	52	5
74	75	4
92	92	5
74	74	9
60	60	7
56	56	4
51	52	1
88	95	1
31	31	4
44	44	8
53	53	4
43	43	4
33	33	4
63	63	13
50	60	1
54	55	1
35	35	2
96	96	7
66	66	5
78	78	5
87	87	2
57	57	4
59	59	7
69	69	8
91	93	1
61	61	2
53	54	2
40	40	6
68	88	1
90	90	10
27	27	5
65	66	5
36	36	2
65	65	4
27	29	1
80	80	6
67	67	7
58	61	1
50	51	2
93	93	2
78	81	1
24	25	2
72	72	5
38	39	2
88	102	1
93	96	1
25	26	2
96	97	3
49	50	5
81	83	1
44	45	1
51	51	4
36	38	2
94	95	3
25	25	1
58	59	4
36	37	2
42	42	9
31	32	2
45	96	1
60	61	1
28	29	1
91	91	7
34	61	1
94	97	2
72	74	1
77	77	5
66	67	2
63	64	8
54	100	1
73	73	2
70	70	5
26	26	1
36	53	1
46	46	6
88	89	3
71	71	4
41	41	7
95	96	1
79	79	2
29	30	2
52	85	1
58	85	1
54	98	1
40	85	2
76	76	12
41	60	2
101	102	1
97	100	1
61	62	1
44	89	1
58	58	13
37	38	4
75	76	2
75	102	1
55	55	1
50	98	1
23	29	1
38	38	6
75	75	4
39	39	4
34	34	3
68	68	6
97	97	3
83	83	3
100	100	3
31	44	1
47	47	3
81	81	6
99	100	2
56	57	2
97	98	1
84	88	1
48	54	1
27	59	2
84	84	3
25	35	2
46	88	1
49	72	1
87	88	1
79	80	1
90	93	1
62	62	5
22	22	1
95	95	4
71	102	1
46	47	4
27	28	2
78	80	1
86	86	3
101	101	2
63	90	1
72	93	1
82	90	1
70	71	1
66	68	1
33	34	2
80	90	1
40	41	1
52	53	2
24	24	1
30	30	1
27	37	1
35	37	1
92	102	1
58	64	2
81	85	1
49	49	3
89	89	1
42	43	3
85	85	2
77	78	1
33	59	1
35	42	1
87	91	1
40	51	1
34	35	1
73	100	1
57	78	1
99	99	2
73	86	1
54	54	2
86	87	2
93	94	1
35	40	1
47	48	1
89	90	2
31	49	1
23	35	1
70	97	1
57	85	1
91	92	2
67	82	1
51	57	1
83	89	1
65	90	1
69	89	1
62	98	1
94	94	2
67	68	2
37	39	1
68	90	1
53	99	1
98	98	1
100	102	1
23	25	1
73	92	2
38	86	1
38	40	1
40	56	1
41	58	1
28	28	2
33	36	1
88	88	1
48	49	1
57	74	1
81	82	1
70	83	1
61	63	1
87	102	1
