86	86	4
164	164	8
96	97	3
92	119	1
27	27	3
112	113	2
70	71	1
108	142	1
124	174	2
90	108	1
109	109	7
71	73	1
176	178	1
155	155	10
178	178	4
73	81	1
105	108	4
81	82	1
44	45	1
134	134	5
154	154	3
78	80	1
157	159	1
24	24	8
54	85	2
102	102	3
95	98	1
190	190	3
78	86	1
25	25	5
138	155	1
88	88	6
54	54	5
101	102	3
164	187	2
130	131	2
186	186	7
144	175	1
183	184	4
20	20	5
16	16	4
119	119	5
4	8	1
31	45	1
53	53	4
17	18	2
39	39	3
89	89	5
11	149	1
149	149	5
97	119	1
90	91	2
89	103	1
148	178	1
132	133	1
127	127	5
131	133	4
82	82	2
146	146	6
93	93	3
145	148	1
163	170	1
100	109	1
65	67	3
139	139	2
12	12	2
79	79	5
73	73	2
89	104	2
78	78	5
80	80	4
180	180	2
103	107	1
100	100	4
1	1	2
35	35	3
90	111	2
29	42	3
0	0	2
127	144	1
170	170	7
119	142	1
98	98	8
126	126	5
19	19	3
14	15	2
123	185	1
93	94	2
77	129	2
22	22	5
133	134	1
40	40	9
107	121	1
43	43	5
87	113	3
127	129	1
78	153	1
42	43	4
84	84	4
25	36	1
98	99	1
45	45	6
120	120	3
90	94	1
176	176	3
110	110	7
35	42	1
18	18	1
0	1	1
67	67	3
187	187	4
123	124	2
30	30	1
116	122	1
7	184	1
42	44	1
116	116	3
112	139	1
30	31	2
141	141	4
35	36	1
90	109	3
56	56	3
106	106	6
72	72	2
129	129	10
174	177	1
34	34	3
95	95	6
16	17	3
184	184	6
108	175	2
153	153	3
75	75	5
133	133	1
169	169	6
119	120	2
122	122	4
104	140	1
15	24	1
168	169	1
65	65	2
9	9	2
109	110	2
105	105	7
122	123	7
36	74	1
160	161	1
36	36	2
176	177	1
8	8	4
142	142	3
124	124	2
182	182	3
20	21	1
48	48	2
62	62	2
185	185	4
68	68	4
121	138	1
139	188	1
156	156	2
166	174	1
95	97	2
100	103	1
68	69	2
101	101	4
157	181	2
99	100	1
19	44	1
4	5	2
15	85	1
33	34	1
136	136	6
13	13	3
13	30	1
4	4	11
41	42	1
12	13	2
23	23	1
92	92	3
138	138	8
140	140	4
157	158	2
174	174	2
100	118	1
97	100	1
170	172	1
154	155	2
19	69	1
71	72	2
111	113	1
186	187	3
61	66	2
148	148	2
59	59	1
95	108	1
177	177	6
156	180	1
31	31	3
2	2	4
91	91	5
10	10	9
90	104	1
77	77	2
13	156	3
152	153	5
6	48	1
55	55	5
157	164	1
88	89	4
45	46	4
113	113	2
28	35	1
63	63	5
159	159	3
16	44	1
44	46	2
41	43	1
183	185	1
152	152	3
26	122	1
78	82	1
188	188	6
99	99	5
161	161	3
175	179	1
172	172	1
83	84	1
7	7	1
18	22	1
178	179	2
2	3	5
79	154	1
6	6	6
140	143	1
28	34	1
165	165	2
27	31	1
158	158	2
177	181	2
139	140	1
174	183	1
77	78	2
151	152	3
83	83	4
42	42	2
148	149	3
87	88	2
139	153	1
94	95	1
171	171	1
13	16	1
38	39	2
147	147	6
3	3	4
81	81	4
44	44	5
96	100	1
108	135	1
68	83	1
121	121	4
103	103	3
161	181	1
64	65	1
58	60	1
59	93	1
73	88	1
42	57	3
57	60	1
11	12	3
39	40	1
112	112	5
57	77	2
180	181	1
18	19	1
38	40	1
67	149	1
156	177	1
15	15	1
78	79	4
150	150	3
38	55	1
42	151	1
129	130	1
85	85	3
32	37	1
141	158	1
179	179	3
90	90	3
19	21	2
21	21	2
71	74	1
57	57	2
87	87	3
25	57	1
117	145	1
185	186	2
166	173	1
137	137	3
37	45	1
34	36	3
129	187	1
6	8	1
177	179	1
37	41	1
34	39	1
141	142	1
105	147	2
173	185	1
171	172	2
183	183	2
26	48	1
11	11	2
97	98	2
30	42	1
158	162	1
37	37	3
71	89	1
86	87	3
38	38	4
175	175	3
41	41	6
26	64	1
143	143	2
145	145	4
92	94	1
80	81	2
14	23	2
10	11	1
57	66	1
114	156	2
58	58	2
88	111	1
145	146	1
114	114	2
4	6	2
77	128	1
130	132	3
173	173	3
10	15	2
118	118	5
144	151	1
19	45	1
154	185	1
18	21	1
156	158	1
28	29	2
37	152	1
33	35	1
4	128	1
29	29	3
40	128	1
5	5	5
14	187	1
75	83	1
117	133	1
113	128	1
74	74	3
171	185	1
84	86	1
156	173	1
140	152	1
130	138	1
10	14	2
80	82	1
141	170	1
109	111	1
75	76	2
142	143	1
22	24	1
71	71	1
37	77	1
107	107	1
11	13	2
125	159	1
94	94	2
104	104	3
108	108	5
85	111	1
18	20	1
100	137	1
10	152	1
40	54	2
27	36	1
158	159	2
87	89	2
103	104	2
180	182	1
15	48	1
108	110	1
118	144	1
128	128	2
178	183	2
26	38	1
41	57	1
21	37	2
17	159	2
56	75	1
164	166	3
116	118	1
60	63	1
10	150	1
52	52	2
39	57	2
96	96	4
140	141	1
133	135	1
130	141	1
121	137	1
145	177	2
142	176	1
71	108	1
159	167	2
120	121	1
131	132	1
46	46	3
28	46	1
31	32	1
154	170	2
160	160	3
15	55	1
181	182	1
116	117	2
167	170	2
42	60	1
54	55	1
47	47	3
162	187	1
32	32	1
167	168	2
2	7	1
12	14	1
154	159	3
130	130	2
125	128	1
76	77	2
106	112	2
104	121	1
168	168	3
127	151	1
131	131	3
76	76	2
189	189	1
61	73	1
139	160	1
73	130	1
104	108	1
111	151	1
24	151	2
137	138	3
167	167	3
154	184	1
84	85	1
128	131	1
164	182	1
135	184	1
66	67	1
188	189	2
26	26	1
34	139	1
58	75	1
139	141	1
162	162	2
126	128	2
130	146	1
25	40	1
118	119	1
96	99	1
166	166	2
181	181	1
144	174	1
2	152	1
156	157	1
96	98	1
27	35	1
181	183	1
108	124	1
126	127	2
164	167	1
149	150	1
164	165	2
76	123	1
69	70	1
101	104	2
80	111	1
91	100	1
74	145	1
73	74	1
160	175	1
0	33	1
156	190	1
184	189	1
42	75	1
123	127	1
125	126	1
127	146	1
46	47	1
115	137	1
8	9	1
27	28	1
151	151	1
66	68	1
123	123	1
24	25	1
7	40	1
17	23	1
78	88	1
114	131	1
28	28	2
178	180	1
83	99	1
184	186	1
97	97	2
76	82	1
119	144	1
67	68	1
5	120	1
172	173	2
150	151	1
169	171	1
112	114	1
144	144	1
33	33	1
102	121	1
155	156	2
102	103	1
64	64	1
10	22	1
110	113	1
136	139	1
139	146	2
18	49	1
110	111	1
53	54	1
115	116	1
119	121	1
29	64	1
108	145	1
27	29	2
131	158	1
56	57	1
22	86	1
63	64	1
149	180	1
81	129	1
120	130	1
74	75	1
87	90	1
38	48	1
68	77	2
132	156	1
135	135	1
153	154	1
130	143	1
9	12	1
178	184	1
58	94	1
21	22	1
131	134	1
14	14	1
137	140	1
30	34	1
107	141	1
104	106	1
5	24	1
10	13	1
138	139	1
80	83	1
16	21	1
62	63	1
74	111	1
124	127	1
101	122	1
16	110	1
66	97	1
88	173	1
37	46	1
26	130	1
189	190	1
47	151	1
