136	137	7
123	123	9
156	156	11
89	89	8
119	120	5
157	157	18
121	144	1
55	55	6
51	51	3
10	19	1
20	46	2
92	92	16
75	158	1
16	20	4
71	71	19
42	56	1
124	124	17
84	108	1
7	7	14
141	141	16
33	33	11
40	41	8
102	102	8
112	113	2
82	82	17
132	132	14
56	67	1
51	52	3
66	66	8
8	30	1
131	133	5
51	55	3
70	70	16
137	139	2
85	86	2
84	84	14
110	110	5
154	155	6
122	122	9
30	30	14
90	90	8
127	128	4
26	28	3
153	153	12
90	91	3
32	34	1
95	97	3
93	93	20
114	115	8
3	3	9
107	107	21
95	96	4
83	83	8
103	127	1
109	109	9
20	20	10
73	73	13
101	101	16
36	36	22
62	117	1
0	0	8
88	88	15
38	38	11
83	84	9
78	84	2
82	83	6
117	117	14
29	29	6
17	39	2
115	136	1
100	102	2
146	147	7
130	130	15
139	140	10
73	74	2
23	24	11
51	53	3
115	116	7
135	148	1
69	154	2
120	120	13
148	149	2
34	34	10
134	134	18
108	109	8
97	98	5
86	110	1
52	52	5
135	136	7
5	5	9
127	127	22
131	132	5
117	118	4
159	159	1
110	117	1
144	144	10
137	137	20
54	54	5
112	112	18
136	136	14
156	157	5
116	116	23
135	155	1
39	41	1
24	26	4
155	155	16
0	1	4
70	157	1
115	115	12
131	131	17
11	46	1
5	6	5
64	64	8
77	77	8
75	75	14
121	145	1
23	23	12
75	104	1
56	56	7
0	2	4
109	115	2
47	148	1
96	96	15
86	87	3
130	131	1
97	97	8
101	102	2
113	113	10
75	155	1
135	137	3
67	67	10
130	140	1
148	148	14
95	95	13
9	52	1
71	132	1
128	132	2
109	110	7
13	13	8
112	117	1
138	138	10
39	39	16
150	155	1
126	126	14
106	107	7
152	152	12
86	86	8
112	125	2
134	135	10
108	127	1
44	44	12
88	89	4
86	89	1
121	124	1
128	128	22
35	35	12
87	87	9
145	146	5
124	125	8
65	66	4
18	18	7
84	85	4
129	129	16
99	99	9
111	111	11
25	26	2
94	95	2
111	112	4
139	139	9
121	122	5
110	119	1
105	105	16
3	29	2
28	30	1
69	70	6
49	49	8
80	117	1
105	107	2
118	118	13
137	138	9
135	135	12
132	133	8
144	145	8
72	72	6
62	63	1
44	55	1
121	121	14
106	106	13
141	147	1
145	145	13
22	48	1
6	22	2
150	151	3
69	69	11
31	86	1
30	75	2
21	22	4
149	149	15
28	28	6
142	142	14
17	17	5
119	119	11
79	79	8
43	54	2
1	1	13
96	129	2
116	117	1
76	100	1
147	147	12
43	43	8
122	123	3
32	33	1
87	107	1
80	80	11
84	92	1
128	129	4
158	158	20
138	139	6
45	45	17
106	128	1
79	81	3
29	104	2
133	133	12
22	22	10
91	103	3
42	42	11
98	98	14
150	150	18
14	33	1
41	41	4
6	23	1
94	94	10
110	127	1
6	6	9
151	156	1
155	156	8
91	107	1
37	38	8
25	25	9
4	4	12
85	85	9
113	114	2
118	134	1
113	121	1
41	50	1
68	69	5
133	151	1
117	127	2
133	134	11
119	133	1
107	114	1
116	119	2
12	12	8
143	143	12
64	127	1
22	106	1
77	92	2
117	120	2
19	19	6
20	142	1
50	51	8
75	76	1
65	65	11
100	100	15
82	84	2
14	14	10
3	7	1
75	102	1
138	153	1
44	45	2
119	141	2
46	46	13
2	2	3
104	111	3
107	110	1
42	43	4
103	103	8
111	125	1
43	98	1
47	47	10
104	104	15
38	39	6
149	150	3
15	15	13
126	127	4
117	119	2
56	57	2
66	105	1
6	45	1
48	49	3
139	150	1
10	12	1
92	94	2
91	117	1
27	152	1
111	127	1
10	142	2
21	118	1
11	11	3
91	91	10
112	142	1
39	43	1
52	53	2
129	149	1
107	149	1
10	11	4
70	71	5
141	154	1
26	37	2
142	143	3
48	48	7
16	37	1
96	97	4
55	56	2
91	106	1
20	39	1
138	140	2
27	99	1
77	85	1
16	16	9
67	68	2
79	80	7
46	126	1
37	40	1
25	28	3
3	4	3
83	111	2
68	68	12
31	31	8
140	140	20
109	111	1
80	81	1
102	105	1
20	22	1
109	113	2
110	112	3
15	16	1
77	78	2
29	35	2
12	35	2
40	40	9
46	50	1
31	50	1
125	125	3
81	82	5
154	154	17
33	52	1
53	55	1
55	64	2
147	148	3
143	147	1
19	21	1
79	82	4
8	8	10
4	154	1
50	64	2
70	83	1
148	157	1
123	147	2
125	126	6
56	79	1
53	53	4
118	119	3
102	148	1
67	132	1
81	85	1
81	81	5
107	108	2
121	146	1
78	78	5
33	34	4
101	104	1
153	154	4
47	48	2
2	3	3
123	132	2
30	95	1
140	141	3
129	130	5
144	146	2
131	134	1
146	146	10
70	106	1
76	95	1
108	108	10
102	142	1
7	8	5
26	26	12
118	137	1
123	126	1
67	156	1
30	65	1
18	27	1
121	147	1
71	134	1
19	48	3
114	114	9
65	91	1
36	37	4
36	80	1
50	50	4
132	151	1
148	156	1
32	36	2
151	152	2
28	73	1
84	86	1
78	80	1
112	115	2
83	85	2
132	134	1
129	140	1
104	105	8
32	32	10
22	26	2
113	115	4
70	105	2
105	158	1
157	158	2
110	125	1
33	68	1
118	141	1
28	134	1
125	145	1
73	99	2
145	148	1
142	153	2
70	110	1
111	137	2
125	146	1
135	141	1
54	80	1
37	37	9
128	139	3
25	129	1
108	110	3
24	24	12
26	27	1
143	145	2
77	84	2
20	52	1
90	95	1
21	21	6
155	157	3
131	154	3
62	62	5
118	120	6
64	140	1
35	36	2
66	104	2
90	155	1
56	61	2
103	104	6
123	124	3
66	135	1
82	86	2
105	131	2
82	118	1
67	69	3
100	101	1
78	88	1
51	108	1
9	9	2
8	10	1
88	112	1
128	138	1
119	134	2
11	14	1
91	121	1
50	73	1
77	140	2
142	147	1
98	99	4
23	25	1
45	54	1
33	38	3
104	132	1
78	90	1
31	32	4
64	68	2
63	63	5
85	144	1
116	133	2
45	48	1
128	133	1
14	15	3
145	147	6
152	154	2
108	143	1
120	123	1
7	152	1
87	93	1
77	108	1
18	19	4
9	21	1
131	137	1
92	140	1
15	17	2
133	142	1
103	116	1
128	150	3
78	83	2
71	152	1
152	155	1
89	93	1
32	43	1
42	83	1
109	136	1
34	36	1
67	70	1
110	111	5
36	47	2
151	151	14
135	143	2
23	49	1
28	50	1
41	42	2
75	130	1
121	137	1
19	20	4
80	84	1
1	2	4
143	148	3
120	121	6
142	150	1
125	147	1
104	106	1
10	10	4
8	137	1
7	12	1
122	154	1
116	134	1
108	131	1
117	143	1
105	106	3
49	51	1
114	135	1
8	141	1
29	71	1
116	154	1
91	92	3
93	120	2
23	26	1
140	152	1
98	156	2
120	122	1
48	57	2
68	107	2
152	153	5
104	135	1
17	141	2
23	132	1
78	79	4
104	157	1
99	100	2
112	141	1
101	148	1
158	159	1
44	70	1
82	96	1
94	110	1
77	105	1
30	33	1
141	144	1
104	119	1
75	156	2
116	131	1
21	47	1
55	130	1
37	42	3
16	98	1
85	87	1
96	98	1
139	156	1
93	94	3
6	135	1
109	123	1
109	121	1
103	105	1
34	35	2
37	138	1
92	97	1
22	23	7
116	156	1
151	155	1
57	57	3
122	144	1
18	55	1
48	50	2
123	125	2
5	156	1
50	55	1
72	75	1
84	93	2
12	106	1
80	88	1
8	11	1
17	19	1
141	142	2
35	97	1
26	71	1
76	82	1
30	104	1
101	128	1
97	130	1
84	120	1
66	67	2
120	156	2
120	141	2
114	137	2
106	151	1
111	115	1
92	152	2
127	134	1
75	97	1
93	128	1
130	139	1
134	137	2
4	5	2
70	87	2
24	44	1
31	33	1
76	76	4
105	120	1
29	54	1
128	140	1
70	120	1
27	116	2
12	14	1
12	13	1
139	148	1
26	134	1
63	110	1
18	89	1
12	39	2
35	147	1
143	144	1
20	21	4
100	105	1
120	143	4
103	106	2
100	104	1
33	144	1
81	84	1
70	156	1
125	135	1
112	129	1
136	140	1
90	139	2
34	57	1
42	45	1
102	158	1
97	116	2
128	134	1
4	43	1
66	73	1
27	27	1
121	148	1
84	147	1
71	106	1
99	102	2
18	120	1
56	72	1
87	90	1
45	105	1
91	148	1
43	104	1
50	67	1
149	156	1
133	140	1
63	64	1
137	140	2
68	101	1
92	95	1
108	121	1
28	32	2
92	93	1
63	91	1
89	90	2
23	104	1
136	142	2
133	152	1
57	65	1
129	131	1
16	18	1
122	145	1
49	50	1
69	119	1
21	28	1
106	132	1
119	148	1
28	147	1
115	129	1
130	138	1
143	146	1
73	103	2
150	156	1
39	159	1
88	90	1
128	153	1
106	110	1
111	122	1
73	75	1
116	127	1
3	38	1
74	74	1
54	55	2
120	135	1
7	112	1
19	49	1
111	133	1
121	126	1
31	44	1
113	127	1
8	9	1
129	156	1
11	13	1
131	135	1
49	56	1
33	51	1
16	45	1
123	143	1
18	20	1
41	43	1
23	98	1
69	150	1
108	113	1
48	56	1
108	114	1
27	28	2
65	105	1
72	73	1
13	16	1
7	98	1
66	79	1
41	51	1
102	103	1
131	152	1
2	4	2
46	47	1
50	54	1
108	115	1
45	47	2
55	78	1
5	25	1
48	66	1
4	25	1
42	44	1
66	69	1
131	139	1
53	54	1
98	158	1
111	119	1
51	105	1
93	95	2
25	51	1
17	18	1
28	39	1
87	88	2
76	131	1
9	11	1
46	61	1
85	121	1
106	152	1
123	153	1
122	136	1
71	72	1
45	111	1
74	100	1
65	131	1
134	141	1
39	50	1
123	140	1
11	20	1
108	111	1
113	118	1
107	134	1
124	127	1
12	15	1
10	33	2
121	136	1
30	35	1
96	142	1
73	96	1
13	14	1
108	112	1
134	139	1
22	25	1
38	42	1
82	141	1
25	30	1
79	94	1
138	145	2
105	132	1
94	96	1
109	145	1
77	82	1
2	27	1
45	65	1
34	53	1
69	143	1
10	32	1
93	96	1
77	91	1
77	115	1
5	28	1
26	73	1
68	71	1
10	42	1
112	127	1
24	25	1
68	78	1
33	40	1
24	131	1
115	141	1
106	111	1
135	149	1
30	50	1
29	44	1
107	136	1
111	121	1
15	56	1
29	32	1
90	109	1
37	51	1
137	141	1
109	112	1
30	47	1
