30	30	3
136	136	2
171	171	9
36	36	2
145	145	1
127	127	3
10	10	5
84	84	2
39	39	2
13	13	2
144	144	2
44	44	3
95	95	5
57	62	1
133	134	2
20	20	4
163	163	1
59	59	3
160	160	1
32	32	3
87	87	3
51	51	4
141	141	1
165	165	4
101	128	3
78	78	3
137	137	7
3	18	1
22	46	1
98	98	3
134	136	1
143	143	5
104	104	3
33	33	6
64	64	2
126	126	1
168	168	3
116	116	2
50	50	7
99	100	2
12	12	3
72	72	5
146	165	1
102	124	1
65	65	3
143	163	2
123	123	4
106	106	3
74	74	2
67	68	1
118	118	3
17	41	2
56	56	4
133	133	2
176	176	4
124	124	2
65	66	4
156	156	1
92	93	1
170	171	4
115	116	2
80	82	1
119	119	3
87	102	1
111	111	4
121	122	1
3	5	3
117	162	3
88	121	1
154	154	5
7	7	3
9	12	1
146	146	3
31	31	2
11	12	1
71	72	4
145	163	2
31	45	1
153	153	3
6	10	1
98	129	1
140	140	3
85	104	1
68	68	3
153	156	1
154	157	1
132	132	1
108	108	3
85	85	2
0	0	2
67	67	2
96	96	1
93	93	2
142	142	4
173	173	4
24	24	2
100	101	2
17	17	5
52	74	1
62	62	1
54	54	2
105	105	1
42	42	1
57	58	1
144	145	1
16	21	1
178	179	2
87	93	1
89	98	1
73	76	1
122	122	2
31	39	1
90	91	1
112	119	2
63	93	1
154	155	5
3	3	3
159	159	1
6	7	2
170	170	5
167	168	2
9	9	5
179	179	2
140	154	1
62	63	1
157	157	1
67	108	1
135	136	3
79	79	3
2	2	2
172	173	1
86	87	1
152	152	1
123	126	2
37	38	3
60	61	2
136	172	2
4	6	1
14	16	2
82	104	2
64	113	1
115	115	5
28	28	3
66	103	1
97	144	2
119	120	1
169	169	4
161	161	2
86	86	4
25	25	2
109	109	1
114	114	1
66	66	3
112	115	2
171	175	1
8	9	1
57	90	1
6	6	2
41	41	1
103	103	2
76	77	2
0	39	3
136	137	1
23	23	1
16	16	1
99	128	2
55	55	6
149	149	1
131	131	1
150	150	2
2	16	1
158	158	1
14	33	1
65	93	1
174	174	2
128	129	1
86	99	1
26	26	3
11	33	1
90	94	1
37	43	1
94	95	1
178	178	3
167	167	6
10	11	1
12	33	3
120	120	1
38	38	2
138	138	2
52	52	3
149	150	3
87	89	1
29	29	3
143	165	1
16	17	1
152	155	1
29	45	1
72	93	1
89	89	1
35	35	1
58	58	2
5	6	1
94	146	1
84	86	2
126	128	1
75	75	1
77	77	1
20	21	1
18	18	2
7	21	1
153	157	3
19	19	1
49	49	1
63	63	2
101	101	1
2	42	2
123	162	2
148	148	6
37	37	2
90	92	1
61	61	4
100	102	1
52	89	1
118	119	1
112	112	4
11	115	3
57	57	3
1	2	1
94	94	1
116	152	1
162	164	2
7	8	1
83	86	1
177	178	1
156	158	1
97	97	1
58	63	1
151	168	1
42	52	1
129	150	1
141	142	1
12	13	1
107	107	1
131	132	2
86	88	1
175	175	2
53	53	2
129	129	3
1	1	1
117	117	3
2	5	2
145	146	2
74	75	1
11	39	1
172	172	2
118	149	1
58	61	1
139	180	1
115	118	1
116	118	1
177	177	1
107	109	1
125	125	1
8	11	1
12	15	1
113	113	1
79	139	1
135	135	1
107	108	1
127	131	1
81	81	1
173	174	1
25	26	1
31	32	3
14	14	1
137	138	1
73	77	2
88	88	1
123	130	1
77	78	1
110	118	1
1	6	1
119	163	1
42	44	3
71	71	2
27	27	1
99	127	2
139	140	1
86	89	1
0	21	1
117	118	1
121	121	2
34	34	2
56	60	1
55	76	1
75	79	1
57	64	1
168	169	1
63	110	1
82	86	1
147	147	1
83	88	1
80	80	1
11	11	2
20	23	1
71	73	1
31	34	1
102	102	1
70	70	1
162	162	1
180	180	1
136	140	1
166	166	1
142	144	1
56	57	1
2	3	1
26	108	1
79	112	1
125	132	1
63	87	1
8	86	1
1	17	1
7	33	1
7	50	1
91	91	1
134	135	1
139	139	1
23	25	1
130	130	1
114	143	1
77	95	1
8	8	1
143	145	1
81	86	1
61	64	1
21	106	1
151	152	1
104	105	1
77	81	1
160	161	1
82	82	1
109	114	1
17	18	1
