66	66	3
81	110	1
112	112	1
106	106	6
21	21	3
32	32	3
103	130	1
53	53	4
49	66	1
118	121	1
102	102	6
9	10	1
82	82	3
15	30	1
14	14	3
94	94	4
137	137	2
82	111	2
133	137	1
67	86	1
117	120	1
56	59	1
81	81	4
72	73	2
97	97	1
3	3	3
38	48	1
83	84	1
80	108	1
54	55	1
20	20	6
2	17	2
54	54	4
35	37	1
133	134	2
11	11	5
95	100	1
22	22	3
146	146	1
74	81	1
2	3	1
4	4	8
125	125	5
41	41	4
0	0	3
98	98	3
78	79	1
30	30	3
54	81	2
120	122	1
141	141	4
112	113	2
40	40	8
90	90	4
34	34	4
109	109	4
113	127	1
118	136	2
4	50	2
43	43	3
23	95	1
111	116	1
9	9	7
62	63	1
120	139	1
91	91	7
37	37	3
77	77	5
122	122	2
136	136	3
19	20	2
88	89	1
47	47	2
13	14	4
60	60	5
5	72	1
54	56	1
140	140	2
138	138	2
123	123	2
70	70	2
121	121	7
125	127	1
123	127	1
14	15	2
39	50	1
65	88	2
110	111	2
113	117	1
115	115	2
51	51	3
111	111	3
23	27	2
127	135	1
64	64	3
10	10	2
24	27	2
18	18	4
38	38	8
26	26	3
73	73	1
15	15	3
63	63	4
88	90	3
128	128	5
87	87	4
120	128	2
20	21	3
36	36	4
129	129	2
96	97	4
79	90	1
83	85	2
10	23	1
61	61	2
78	78	1
27	105	1
139	139	4
60	62	2
2	36	1
63	64	3
91	92	2
135	136	1
116	116	2
110	110	2
127	127	2
79	81	1
6	6	2
36	37	1
100	100	2
37	38	1
84	84	3
128	131	2
77	105	1
57	74	1
23	26	1
67	67	1
19	19	3
60	61	1
116	131	1
58	59	1
68	141	1
78	112	1
65	65	3
114	117	1
145	145	1
117	117	3
145	146	1
95	95	2
76	77	1
52	52	1
65	66	1
3	20	1
16	16	4
10	17	1
37	55	1
118	119	2
127	128	1
110	116	1
128	129	2
25	25	2
62	62	3
74	74	2
110	114	1
75	77	1
131	131	1
107	107	4
68	72	1
121	132	1
144	144	2
15	16	2
72	72	2
59	59	1
42	42	2
80	80	4
134	134	3
30	42	1
104	104	1
102	129	1
130	130	3
8	8	4
68	69	1
80	103	1
75	90	2
33	33	1
52	53	2
38	55	1
29	29	2
75	105	1
55	84	1
99	100	1
124	124	5
118	118	3
13	13	1
18	47	2
35	35	1
86	87	1
66	85	1
34	36	1
10	39	1
135	135	2
128	132	1
51	52	1
93	93	1
70	71	2
24	24	4
138	139	1
47	64	1
67	68	1
114	114	2
55	55	1
60	75	1
71	71	1
4	5	1
41	43	1
2	5	1
104	116	2
87	95	1
89	90	1
17	17	2
137	138	2
50	50	1
69	69	2
111	121	1
79	93	1
121	122	1
142	143	1
112	117	1
76	76	5
8	10	1
140	141	2
42	43	1
71	73	1
61	75	1
97	114	1
90	92	1
141	142	2
126	126	4
80	81	2
23	23	3
82	83	2
107	108	1
51	70	1
142	142	1
130	131	2
105	105	2
17	18	2
96	99	1
80	88	2
31	31	1
90	124	1
60	86	1
49	50	1
79	79	1
22	67	1
96	96	2
39	39	2
16	34	2
47	54	1
27	27	2
13	15	1
55	65	1
143	144	1
72	104	2
133	133	1
129	130	1
124	125	1
139	140	1
88	108	1
82	91	1
58	58	1
116	117	1
62	64	1
31	33	1
2	2	1
86	122	1
43	71	1
91	96	1
61	100	2
56	57	1
119	133	1
35	54	1
101	144	1
120	121	1
49	49	2
134	136	1
119	119	2
68	87	1
55	98	1
99	99	1
96	98	1
101	101	2
40	42	1
40	41	1
64	65	1
23	24	2
0	19	1
132	132	1
99	140	1
67	69	1
48	78	1
88	88	2
112	124	1
23	32	1
24	47	1
57	61	1
109	110	1
38	41	1
77	78	1
57	58	1
52	54	1
10	107	1
105	122	1
83	87	1
83	83	1
90	91	1
81	82	1
19	21	1
119	120	1
127	133	1
108	109	1
110	113	1
32	33	1
25	26	1
93	125	1
50	51	1
48	48	1
1	1	1
102	103	1
84	85	1
79	110	1
10	11	1
134	135	1
62	80	1
75	76	1
5	5	1
0	1	1
143	143	1
59	121	1
108	108	1
18	21	1
54	101	1
56	106	1
40	57	1
