55	56	6
178	179	1
166	166	5
4	4	9
43	61	1
35	35	12
160	161	1
3	3	11
188	188	8
134	134	4
7	7	10
139	139	9
64	64	1
10	10	15
176	177	7
85	86	2
116	116	6
44	44	8
167	169	1
196	196	7
5	6	2
131	132	2
191	191	3
76	76	5
150	150	7
37	65	1
19	19	4
137	188	2
27	27	15
170	171	5
25	25	9
0	2	1
82	82	11
55	55	6
160	160	5
54	54	5
30	30	14
154	154	11
161	161	6
21	22	3
21	40	1
29	29	8
27	80	1
33	33	16
62	62	7
97	97	9
100	100	3
40	40	13
25	26	3
185	185	10
41	41	17
42	43	2
42	42	8
180	181	1
157	157	8
47	48	3
151	151	6
155	155	7
24	55	1
153	153	11
43	43	7
113	113	2
13	13	6
140	177	1
65	65	3
71	145	1
143	143	11
6	6	2
119	119	7
176	176	3
152	152	5
141	151	1
165	165	6
77	81	1
4	186	3
28	28	8
148	148	10
109	110	2
54	56	1
141	141	10
0	0	4
24	25	3
102	105	3
18	18	9
99	109	1
12	12	8
128	128	7
53	53	9
151	152	3
106	108	1
171	171	12
104	104	3
88	89	5
70	72	1
95	97	1
36	36	8
112	113	2
66	66	2
124	124	7
27	28	2
169	169	11
20	63	2
51	51	4
83	84	3
132	132	6
38	59	1
177	178	2
5	8	1
81	81	5
120	120	4
154	155	3
159	159	11
112	112	5
121	121	7
158	158	7
11	11	9
111	141	1
120	121	2
57	58	2
17	18	4
17	17	4
115	115	5
9	15	2
174	174	3
99	122	2
108	108	6
14	15	2
9	9	13
146	146	2
58	58	8
82	85	1
157	158	1
42	44	3
105	105	2
101	101	3
107	107	3
29	31	1
181	181	7
187	187	11
112	143	1
1	2	6
118	118	5
109	109	3
127	128	2
1	1	6
193	193	2
196	197	2
27	34	1
194	194	10
119	183	1
175	175	5
168	188	1
131	131	4
88	112	1
159	160	4
21	21	6
85	95	1
0	7	1
14	14	10
15	15	2
48	48	8
14	17	1
163	166	1
192	193	4
172	181	1
106	106	6
20	21	4
64	65	2
149	149	10
85	85	6
40	42	1
59	59	6
178	178	8
125	127	1
137	145	1
123	123	6
30	153	1
83	83	3
138	138	12
147	147	8
41	69	2
117	117	3
179	180	3
140	140	4
80	80	2
84	84	3
5	5	10
98	103	1
39	39	4
179	179	7
76	77	2
186	191	1
144	145	4
167	183	1
112	183	1
24	24	6
38	38	12
167	167	5
73	118	1
16	16	5
125	125	3
141	168	1
191	193	1
143	144	2
103	103	5
86	86	3
195	195	5
49	58	1
115	117	1
162	164	1
139	140	2
114	114	3
60	124	1
23	23	12
163	163	8
73	135	1
67	67	2
190	190	4
36	41	1
29	33	1
99	100	2
168	168	10
96	97	2
111	189	1
151	178	1
183	183	7
31	31	10
43	171	3
79	79	3
173	173	6
127	127	3
145	146	2
174	175	1
75	75	1
2	35	1
9	32	2
135	135	12
121	123	1
185	193	1
72	72	8
26	26	8
180	180	8
152	155	1
142	142	4
185	186	4
110	120	1
8	8	6
167	168	2
19	20	3
164	167	2
189	189	5
56	56	4
73	73	5
64	88	1
41	42	2
35	36	3
173	180	2
163	164	5
189	190	2
40	170	2
142	172	1
29	30	2
32	32	12
141	142	3
158	159	2
22	22	5
45	113	1
172	172	6
72	73	2
186	186	4
143	179	1
153	155	3
142	177	1
192	192	6
30	31	4
145	168	1
7	8	3
11	12	5
164	166	1
144	144	3
6	31	2
130	130	6
133	133	7
145	148	2
46	46	5
171	180	1
128	129	1
21	24	2
54	55	3
155	171	1
98	99	1
4	8	3
141	143	1
20	20	7
170	170	4
57	57	8
109	155	2
0	14	1
67	96	2
17	20	2
68	68	3
6	7	4
40	41	4
80	81	3
145	145	5
2	2	6
129	129	7
176	178	2
88	100	1
136	158	2
128	197	1
104	106	2
60	63	1
123	127	1
4	34	1
33	36	3
45	45	9
99	124	1
159	189	1
50	50	1
34	34	6
183	184	3
120	147	1
10	185	1
50	51	2
34	35	4
1	5	1
113	122	1
89	89	5
53	58	1
151	194	1
88	88	2
155	180	1
45	46	2
114	116	2
126	126	4
38	139	1
149	151	3
164	164	7
23	24	2
122	123	3
182	182	5
3	6	1
155	159	1
24	27	4
115	118	1
120	148	1
74	74	3
146	147	2
20	187	1
147	148	2
165	169	1
110	157	1
137	137	5
170	177	1
98	98	7
112	196	2
56	166	1
107	108	3
133	134	2
1	34	1
172	173	1
68	81	1
34	37	1
49	49	5
51	53	1
65	72	1
32	33	1
2	25	1
197	197	1
77	87	1
70	70	1
20	77	1
37	37	8
52	52	5
19	76	1
169	170	2
44	127	1
195	196	3
118	119	2
61	61	3
4	5	1
156	156	5
43	44	1
165	166	3
26	27	1
146	148	2
104	105	2
4	11	1
25	28	1
174	177	2
40	126	1
121	122	4
33	37	1
95	95	4
130	156	1
174	176	1
53	59	1
63	63	3
153	157	2
122	122	4
61	148	1
62	64	1
63	127	1
148	169	3
27	31	1
94	95	3
40	69	1
90	90	2
113	114	2
153	169	1
94	94	2
39	42	1
136	138	1
72	123	1
94	99	1
10	11	3
21	41	1
124	131	2
89	95	1
147	162	1
152	153	1
166	167	1
162	162	3
56	61	1
125	126	1
142	143	2
157	169	1
184	184	7
189	192	3
4	7	1
186	189	1
193	194	2
25	27	1
32	37	1
49	57	1
154	167	1
16	17	2
108	111	1
69	72	2
68	73	1
66	67	1
74	75	1
19	22	1
161	162	1
47	47	5
132	152	1
48	50	1
46	47	1
182	183	3
173	174	2
71	71	1
157	162	2
97	134	1
79	80	1
149	153	1
110	111	1
110	110	2
130	132	1
126	128	1
23	34	2
69	69	3
149	150	2
105	132	1
25	35	1
159	165	1
8	41	1
85	89	1
39	40	2
186	194	1
69	70	2
170	192	2
4	6	1
140	141	3
19	21	1
171	172	1
163	167	1
0	168	1
113	160	1
103	104	1
151	161	1
28	29	1
119	120	1
195	197	1
187	188	1
5	30	1
77	77	1
150	151	1
107	133	1
116	118	1
20	23	1
31	33	1
15	41	1
9	73	1
13	51	2
66	113	1
177	177	5
33	155	1
102	102	3
82	83	1
153	154	2
142	153	1
93	94	1
83	85	1
18	78	1
136	136	2
171	177	2
188	189	1
190	192	1
97	186	1
168	169	1
185	195	1
113	115	1
82	90	1
25	54	1
135	139	1
51	52	1
154	170	1
155	156	1
93	97	1
181	182	2
76	89	1
33	39	1
8	9	2
190	191	1
103	158	1
164	165	1
100	119	1
163	190	1
164	172	1
53	54	1
34	36	1
122	156	1
145	147	1
60	60	2
165	167	2
17	44	1
177	187	1
23	170	1
50	55	1
96	96	1
159	167	1
41	43	1
191	192	1
51	54	1
58	59	1
2	189	1
34	76	1
29	78	1
175	176	1
163	165	1
87	87	2
0	29	1
54	64	1
4	32	1
15	16	1
158	178	1
30	32	1
32	120	1
111	111	1
8	20	1
14	178	1
79	81	1
10	16	1
78	79	1
98	144	1
6	8	1
114	115	1
81	82	1
112	145	1
2	3	1
84	188	1
62	68	1
38	43	1
8	67	1
87	97	1
117	118	1
173	176	1
3	7	1
171	186	1
13	197	1
79	82	1
109	120	1
131	155	1
52	53	1
0	1	1
6	173	1
58	61	1
13	14	1
71	72	1
160	178	1
133	138	1
49	50	1
135	160	1
147	169	1
3	8	1
34	113	1
137	147	1
62	63	1
130	171	1
120	123	1
8	48	1
85	148	1
87	88	1
59	186	1
41	46	1
24	31	1
105	107	1
100	101	1
40	46	1
44	45	1
85	87	1
162	166	1
10	157	1
111	121	1
31	161	1
104	111	1
15	47	1
