58	59	1
63	63	7
25	25	4
7	9	2
50	51	1
45	64	1
73	73	5
16	16	7
0	121	1
13	15	1
7	7	5
87	87	7
112	115	1
31	33	1
83	83	8
35	35	4
58	58	3
78	85	2
88	88	3
61	62	2
57	57	9
95	96	3
82	82	4
4	4	3
53	53	6
32	32	3
47	47	2
49	49	4
107	108	1
85	87	1
55	55	6
86	86	1
13	14	4
91	91	5
50	50	7
3	48	1
3	97	1
6	68	1
107	116	2
83	113	2
59	60	6
71	72	1
62	62	1
21	21	4
26	26	3
36	36	3
85	85	6
74	74	7
75	80	1
70	70	4
52	52	2
131	131	2
59	59	6
3	3	6
116	116	3
45	63	3
10	10	3
103	103	3
52	54	1
24	24	7
47	62	1
56	56	6
110	110	4
64	65	3
110	114	1
116	118	1
64	64	10
123	123	4
100	103	2
36	38	2
129	129	2
53	71	1
134	134	3
97	105	1
79	79	6
111	111	2
69	70	4
66	92	1
83	92	2
112	120	1
19	20	1
14	14	5
57	58	3
5	5	3
50	52	2
104	104	6
67	68	3
71	71	3
98	98	2
103	104	1
34	34	3
52	81	1
75	75	3
66	66	2
0	0	6
67	67	3
43	43	6
8	9	3
54	59	1
65	66	2
28	28	4
29	30	1
47	50	2
53	54	4
80	80	9
77	78	4
9	9	5
88	96	2
67	78	1
37	38	4
23	24	1
69	69	2
97	97	4
6	6	13
95	95	3
94	95	1
2	2	2
22	22	2
132	132	4
45	45	5
67	77	1
93	93	3
1	1	4
99	99	4
77	79	2
60	87	2
83	86	1
113	113	1
94	94	2
63	64	1
72	72	6
77	77	3
8	8	2
109	109	6
107	107	5
8	61	1
111	112	4
61	77	1
9	11	1
52	62	1
133	135	1
89	89	1
91	92	1
86	87	3
29	29	5
49	50	3
21	33	1
101	108	1
12	35	1
61	85	1
55	78	1
105	105	2
60	62	2
90	90	4
38	44	1
15	15	2
3	5	1
120	120	3
29	74	2
8	23	1
67	69	2
54	54	4
92	92	4
79	80	3
58	84	1
74	76	2
13	13	5
23	23	6
19	19	4
124	125	2
100	100	1
56	69	1
73	75	1
12	13	4
42	43	2
68	69	7
82	83	3
118	118	2
104	112	1
83	84	1
58	60	1
105	106	2
106	110	2
10	11	4
33	34	2
30	30	2
85	93	2
100	102	1
78	78	4
21	22	1
6	11	1
14	15	3
70	79	1
110	111	1
11	11	5
76	76	3
50	63	1
112	114	2
76	79	1
12	12	4
108	112	1
99	100	2
3	4	3
13	25	1
50	75	1
54	55	1
50	96	1
113	114	1
17	17	1
6	14	2
125	125	2
108	108	2
108	110	1
75	76	3
54	56	1
2	75	1
81	81	4
91	117	1
5	6	1
31	31	1
66	77	1
42	42	2
106	106	2
36	37	4
57	60	1
65	65	3
121	121	2
52	53	1
74	75	1
90	91	4
134	135	1
121	122	1
28	29	3
82	84	1
7	22	1
60	86	1
28	35	1
47	119	1
6	32	1
102	102	2
101	101	3
96	96	2
133	133	2
132	133	1
78	84	1
73	74	2
27	27	3
128	128	2
76	78	1
101	102	1
62	114	1
62	77	1
77	82	1
109	111	2
48	48	2
2	3	1
116	123	1
65	71	1
56	57	1
43	95	1
58	66	1
21	24	1
122	122	1
112	112	3
117	117	2
43	72	1
61	61	3
49	65	2
53	56	1
76	80	1
14	26	1
115	115	2
106	119	2
18	19	1
45	96	1
122	123	2
61	114	1
68	68	3
55	56	1
26	53	1
10	79	1
37	52	1
53	55	1
20	26	1
120	121	1
0	33	1
54	84	2
83	107	1
124	124	1
33	33	1
60	60	4
93	94	1
7	8	1
0	1	2
22	35	1
64	83	1
18	18	2
104	105	1
50	76	1
84	86	1
107	111	1
4	5	2
114	115	1
23	52	1
84	84	1
44	44	1
50	86	1
53	57	1
114	114	1
77	81	1
8	10	1
27	29	1
118	119	1
20	20	1
36	54	1
130	132	1
5	52	1
112	113	1
94	105	1
86	118	1
78	79	1
72	73	1
5	97	1
84	85	1
63	65	1
73	99	1
