87	88	1
44	50	1
48	48	5
86	87	4
101	101	4
77	77	8
34	38	1
35	35	5
37	37	3
42	44	1
64	64	3
38	45	1
39	88	1
79	80	5
49	49	4
97	97	3
51	88	1
78	96	1
66	66	6
61	61	2
81	92	4
86	86	2
67	68	2
44	44	4
54	56	1
84	84	4
36	38	1
51	68	1
63	64	3
70	70	3
79	79	2
63	63	6
92	92	9
91	91	5
65	65	4
27	27	1
28	28	1
81	81	2
33	33	4
35	38	1
39	39	4
77	78	2
94	94	3
45	61	1
91	92	3
27	28	1
92	93	3
74	75	1
25	25	4
56	57	2
96	96	2
51	71	2
36	36	8
36	37	2
71	71	2
84	94	1
41	90	1
40	41	2
33	35	1
68	68	8
26	26	3
78	78	2
88	88	1
40	40	2
86	89	1
43	65	1
38	38	5
50	50	3
24	24	2
38	56	1
95	95	2
50	51	2
35	50	1
52	52	4
85	85	4
69	70	3
98	99	4
22	27	1
87	94	1
93	99	1
87	87	5
55	56	1
75	83	2
67	96	1
76	78	1
48	60	1
47	47	2
60	60	3
50	64	2
78	79	1
21	27	1
59	59	3
86	91	1
91	96	2
59	65	1
83	85	1
28	32	1
46	47	4
60	80	1
72	73	3
41	41	6
68	69	1
93	93	3
50	85	1
74	74	4
47	50	1
59	66	1
69	69	4
46	46	2
52	66	1
43	44	1
82	82	1
53	53	3
31	33	1
55	85	1
80	80	5
99	101	1
43	43	2
22	73	1
58	58	5
42	58	2
88	89	2
99	99	2
39	45	1
26	29	1
76	77	1
75	96	3
42	42	2
51	52	4
81	83	2
80	81	1
73	73	4
48	58	1
98	98	3
21	49	1
68	101	2
67	67	2
32	32	1
26	27	1
45	57	1
22	85	1
74	78	1
29	29	4
57	100	1
85	94	2
84	88	1
57	101	1
62	62	3
31	48	1
89	89	3
35	49	1
33	34	1
45	89	1
40	44	1
26	30	1
87	92	1
72	72	2
54	54	4
88	94	1
46	50	1
22	47	1
31	31	2
31	40	1
90	90	3
22	28	1
45	49	1
30	35	1
55	102	1
60	79	1
43	91	1
39	40	1
75	75	3
57	71	1
26	28	2
51	51	4
45	50	1
83	99	1
102	102	1
30	58	1
82	86	1
93	98	1
71	74	2
23	25	1
53	54	3
44	45	1
89	98	1
92	100	1
83	83	2
95	101	1
22	22	3
100	100	1
28	30	1
93	94	1
63	68	1
41	75	1
67	74	1
33	36	1
62	63	1
57	57	3
47	49	1
68	81	2
46	65	1
66	67	2
64	83	1
76	76	2
75	92	1
100	102	1
40	45	1
34	36	1
55	55	1
24	33	1
51	77	1
25	46	1
85	93	1
35	40	1
36	54	1
80	83	1
25	27	1
83	84	1
88	92	1
49	50	1
66	77	1
61	92	1
31	60	1
