114	114	3
146	146	2
48	48	4
19	19	1
108	109	4
154	154	6
17	17	7
35	35	3
36	37	2
111	111	6
157	161	1
134	135	1
103	104	4
76	79	2
4	5	1
162	162	3
14	14	8
25	117	1
107	107	2
90	90	9
16	16	3
11	11	1
149	149	3
68	68	2
130	131	1
135	135	2
136	136	3
142	142	8
34	50	1
130	130	2
144	144	8
97	97	4
6	7	1
101	117	2
18	19	5
67	67	2
125	162	1
85	165	1
2	2	5
71	80	1
121	122	3
45	45	4
21	22	4
112	114	1
129	129	3
9	9	2
84	84	3
38	38	2
85	85	6
150	157	2
160	161	2
26	26	9
53	53	5
42	42	7
169	169	2
0	0	5
107	108	1
24	24	6
6	6	3
94	94	2
48	49	5
16	79	2
113	128	2
21	21	4
143	146	1
13	47	1
139	142	1
93	165	1
77	77	1
53	64	1
34	35	2
73	73	2
39	39	5
115	115	3
20	119	1
150	160	1
65	67	1
2	25	1
22	22	5
34	34	3
25	25	1
12	13	1
143	143	1
147	147	2
157	158	1
58	66	2
48	50	1
13	13	4
70	70	4
155	156	1
88	88	2
37	37	5
150	151	1
123	167	2
133	135	2
162	165	1
40	40	5
22	23	3
39	168	1
141	141	5
151	152	2
66	67	2
64	67	1
152	153	3
63	64	1
1	1	6
68	79	3
10	11	2
83	83	3
78	79	2
128	128	2
167	168	1
123	123	1
2	6	1
67	82	1
93	93	1
63	63	1
137	138	3
35	41	2
44	44	3
41	41	6
11	12	3
100	102	2
121	124	2
91	91	2
68	70	1
112	112	3
151	169	1
23	23	2
161	161	5
167	167	3
96	96	3
7	25	1
133	134	2
27	27	3
155	157	3
145	146	1
165	165	2
51	51	4
39	40	3
87	87	6
105	105	1
139	139	4
166	170	1
54	55	1
140	140	3
110	110	4
153	154	3
119	126	1
36	38	2
102	102	2
105	161	1
130	169	1
147	168	2
2	58	1
83	85	2
117	118	3
132	132	3
119	119	3
35	37	1
164	164	9
82	92	1
82	82	2
24	56	1
97	98	1
117	141	1
78	78	1
69	69	1
113	113	2
108	117	1
49	49	1
16	26	1
115	116	1
106	163	2
64	65	4
3	28	2
91	92	2
88	91	1
116	148	2
147	148	3
25	119	1
79	142	2
149	150	2
41	42	3
19	21	1
64	64	3
55	56	1
76	78	1
158	158	2
93	94	4
160	160	3
162	163	2
128	139	1
5	5	3
168	168	4
18	18	1
145	145	6
168	169	1
156	157	1
74	75	1
155	155	2
56	56	4
125	125	1
116	116	1
142	148	2
98	102	1
69	70	2
112	146	1
119	150	1
170	170	4
112	148	1
88	89	1
72	73	1
136	148	1
108	108	1
4	4	4
50	50	5
101	101	2
119	135	1
27	28	1
157	157	2
28	38	1
14	47	1
72	72	2
19	20	1
35	109	1
36	36	2
44	52	1
104	104	2
144	145	2
141	145	1
137	137	4
16	63	1
90	91	1
70	146	2
152	152	2
156	166	2
126	127	3
117	139	1
91	97	1
134	148	1
124	124	2
10	38	1
10	13	1
8	8	4
77	78	1
98	99	5
117	154	1
20	20	2
27	138	1
1	45	1
122	122	2
28	28	1
26	28	1
121	127	1
159	159	4
43	43	2
2	3	4
101	118	1
99	108	1
5	111	2
76	170	2
113	114	1
112	133	1
7	58	1
1	2	1
84	85	1
165	166	1
15	16	2
16	51	1
99	99	3
167	169	1
3	3	3
131	132	1
85	87	1
76	80	2
75	75	2
144	148	1
86	87	2
134	134	2
24	25	1
98	98	2
110	111	2
10	18	1
92	92	2
89	89	4
26	137	1
143	147	1
149	159	1
153	153	4
101	105	2
52	53	1
21	66	1
47	47	2
150	150	2
162	164	1
14	34	1
118	118	2
115	130	1
57	57	2
163	163	1
114	115	1
19	27	1
119	120	1
69	84	1
14	15	1
35	36	2
54	54	2
101	103	1
21	99	1
91	99	1
48	132	1
43	52	1
142	143	1
12	12	3
111	139	1
158	168	1
71	71	1
40	41	1
72	165	1
25	26	2
114	116	1
122	165	1
33	33	1
128	129	2
104	122	1
37	40	1
10	10	3
3	4	1
62	67	1
42	137	1
120	120	1
57	62	2
100	100	1
166	166	1
161	162	1
64	96	2
127	127	3
37	38	1
12	56	1
49	58	1
109	111	1
54	78	1
129	144	1
116	156	1
18	23	2
159	160	1
136	143	1
13	162	1
17	110	1
139	140	1
15	15	2
11	98	2
10	15	1
71	78	1
105	125	1
103	103	2
156	156	1
5	42	1
65	65	2
17	18	1
164	165	1
22	53	1
140	160	1
124	125	2
97	118	1
66	66	1
56	58	1
109	110	1
63	66	1
80	81	1
140	141	1
104	143	1
135	136	2
7	7	4
118	119	1
44	137	1
95	96	2
138	138	2
50	51	1
90	118	1
39	148	1
133	142	1
89	110	1
66	72	1
8	9	2
129	130	1
146	147	1
73	88	1
33	34	1
14	135	1
130	150	1
114	117	1
92	93	1
62	165	1
102	104	1
131	131	1
72	115	1
140	154	1
46	69	1
126	126	1
79	80	1
49	51	1
118	157	1
138	142	1
57	63	1
138	139	1
100	101	1
61	147	1
135	158	1
46	46	1
