3	3	3
32	32	2
126	126	3
58	84	1
106	110	2
58	59	1
71	71	5
124	124	3
43	43	3
82	91	1
129	130	2
83	84	3
73	75	1
130	130	6
72	72	5
3	4	2
54	56	2
63	63	4
18	33	1
17	17	2
87	107	2
66	66	3
6	6	4
65	65	4
92	113	2
30	30	3
23	24	4
61	88	1
7	7	3
64	67	1
44	44	4
67	67	1
25	26	2
63	79	1
11	11	3
119	119	2
79	79	5
1	2	6
65	88	1
90	90	2
121	121	3
5	5	1
106	106	3
82	84	1
80	80	1
1	1	2
73	74	2
0	0	3
53	53	2
68	68	6
133	133	3
65	68	3
35	77	1
56	60	1
19	20	3
5	25	1
25	25	5
81	82	1
19	19	2
73	73	5
134	134	3
87	87	2
27	43	1
14	20	2
59	59	4
61	69	2
117	117	1
115	131	1
122	122	3
30	45	1
34	34	4
47	47	4
105	105	2
131	131	1
102	102	1
65	91	2
52	52	1
54	55	1
77	77	2
60	69	1
57	57	4
78	78	5
133	134	2
14	15	1
113	114	2
74	74	4
96	96	1
105	120	1
15	15	2
33	73	2
60	61	2
115	115	1
100	100	2
48	48	1
86	87	1
60	68	1
23	23	4
38	38	1
28	29	2
111	111	4
53	82	2
47	121	1
37	37	1
28	28	4
83	83	5
108	108	3
45	45	2
120	127	1
45	47	6
75	76	1
85	85	6
27	45	2
81	86	1
54	54	2
116	116	3
14	14	4
49	49	2
29	29	1
4	4	2
85	89	1
50	50	1
61	64	1
93	100	1
13	13	1
2	2	6
87	109	1
6	34	1
43	44	1
118	119	1
31	31	1
119	131	1
64	64	2
52	89	1
63	64	2
101	101	1
123	123	2
113	113	2
77	79	1
33	36	1
48	95	1
46	46	1
103	104	1
77	78	1
57	59	1
125	125	1
62	62	3
58	58	3
26	43	1
6	7	1
82	82	2
59	61	1
27	27	2
72	102	1
71	77	1
54	59	3
38	76	1
65	66	1
99	99	1
105	133	1
70	70	2
55	57	2
44	45	1
47	70	1
3	25	1
53	54	1
61	61	2
88	88	2
121	122	1
12	12	6
65	69	1
84	84	1
19	21	1
64	68	1
60	86	1
127	130	1
62	77	1
54	57	1
24	24	4
114	118	1
55	55	2
66	67	1
45	74	1
62	94	1
22	22	1
110	110	1
90	112	2
27	30	1
124	125	1
70	72	1
79	94	1
16	16	3
109	110	1
91	113	1
11	12	1
70	79	1
81	81	1
65	80	1
49	50	2
28	79	1
69	69	1
69	70	1
23	132	1
78	79	1
116	118	1
76	76	1
71	76	1
74	75	1
108	130	1
135	135	1
4	7	1
36	36	1
50	98	1
130	131	1
12	13	2
20	21	1
24	133	1
71	73	1
66	82	1
31	32	2
96	97	2
117	118	1
18	18	1
89	104	1
36	37	1
4	14	1
20	20	1
89	89	1
