28	29	6
135	135	6
163	163	9
107	108	2
75	75	6
73	73	16
64	66	1
43	43	4
10	10	11
172	173	2
139	139	6
63	63	9
42	42	5
34	34	4
179	179	7
99	99	3
114	115	2
93	93	4
26	26	6
151	151	5
25	30	1
64	90	3
178	178	6
2	2	13
18	35	1
132	132	6
171	171	8
39	40	4
35	35	10
132	133	5
118	142	1
149	149	8
119	154	1
88	88	4
173	174	4
65	65	6
163	164	2
173	175	1
177	177	5
111	111	7
25	25	5
175	175	8
8	9	5
5	5	12
136	136	9
90	90	1
113	113	11
154	154	5
25	26	4
107	107	3
99	101	2
174	175	2
174	174	8
118	119	3
28	28	3
57	57	5
8	10	1
75	77	3
74	74	5
109	148	1
158	158	6
89	90	2
165	166	4
123	123	8
18	24	2
41	81	1
7	8	2
100	100	5
124	124	9
127	150	1
159	159	6
13	13	6
40	40	6
14	14	7
68	108	1
8	8	6
85	85	5
56	56	4
82	82	6
76	78	2
134	134	12
168	168	2
125	125	6
79	79	4
25	28	3
162	162	3
165	165	4
39	41	3
108	109	3
105	157	1
21	21	2
57	58	1
158	159	4
77	77	5
131	132	1
128	128	4
171	172	3
180	180	5
7	7	6
126	127	2
7	34	1
148	148	10
92	92	5
19	21	2
38	38	13
61	80	1
27	27	2
65	78	1
36	36	10
32	32	12
120	122	1
23	24	3
3	3	10
22	30	1
108	108	3
139	140	1
110	111	3
32	33	4
33	33	10
55	55	7
67	67	6
129	129	7
58	58	6
97	97	9
141	141	10
86	86	4
98	99	2
161	161	3
11	12	7
4	4	4
41	41	7
0	1	4
84	84	3
157	157	5
176	176	6
133	133	3
23	23	1
98	98	8
80	80	11
5	42	2
144	144	4
145	149	2
89	89	9
0	0	4
10	11	3
5	6	2
1	1	6
71	71	4
11	26	1
29	29	5
95	95	11
106	106	2
21	25	1
142	143	5
62	62	5
59	65	1
140	140	10
94	94	4
37	37	7
59	59	8
143	143	11
20	23	1
63	65	4
25	35	1
64	64	10
80	102	1
140	151	2
122	122	4
43	65	1
120	121	1
54	54	3
30	30	3
92	93	4
22	23	1
97	110	1
14	15	2
83	85	3
14	62	1
142	142	7
110	110	5
16	16	8
145	145	13
91	91	7
61	61	5
130	130	1
0	36	1
144	167	1
51	51	3
121	122	1
12	13	2
147	147	4
12	12	5
178	179	1
137	137	9
112	145	2
42	65	1
58	59	1
134	135	3
12	32	1
100	151	4
78	78	5
157	158	2
156	156	3
145	146	1
76	76	6
19	19	8
126	126	4
116	116	3
128	129	2
172	172	2
103	103	3
110	121	1
43	52	1
110	140	1
160	160	4
19	22	2
137	138	1
24	25	3
173	173	6
60	60	8
97	121	1
49	51	2
116	123	1
80	133	1
153	153	9
74	120	1
127	131	2
38	39	3
3	6	1
122	123	1
152	152	9
97	102	1
106	107	2
150	171	1
131	131	6
24	40	2
56	65	1
147	148	2
149	150	2
154	156	2
170	170	11
83	84	3
116	146	1
16	17	2
101	101	4
155	155	8
167	167	4
120	124	1
103	104	3
172	179	1
35	44	1
103	105	2
12	15	2
50	50	3
104	104	2
57	67	1
78	81	1
31	31	5
11	11	6
96	96	3
29	30	3
159	171	1
118	118	4
151	158	3
96	97	2
94	98	1
159	162	1
80	81	1
150	150	4
63	64	1
6	43	1
169	169	4
119	149	1
76	176	2
120	128	1
74	135	1
45	46	1
6	6	4
18	20	2
52	64	2
66	67	2
160	162	2
44	44	3
9	9	4
24	44	1
110	118	1
17	17	6
159	168	1
127	128	1
22	29	2
72	72	5
89	124	1
103	120	1
58	62	1
66	75	1
160	161	1
82	83	2
145	158	2
64	65	2
40	41	2
81	81	8
130	142	1
70	70	1
175	176	5
99	147	1
179	180	1
95	101	1
157	161	1
66	66	4
137	139	1
33	35	1
39	39	4
81	126	1
6	8	2
18	18	4
96	99	1
121	123	1
102	102	3
105	121	1
27	37	1
15	20	1
109	114	1
22	22	3
132	141	1
29	132	1
43	44	2
119	119	2
56	57	1
170	171	1
6	15	1
130	131	6
97	98	2
8	15	1
57	86	1
5	31	2
92	103	1
133	176	2
128	137	1
5	14	1
67	68	1
134	136	1
153	169	1
33	34	2
115	115	2
56	58	1
142	148	1
41	42	3
27	36	1
54	67	1
112	129	1
130	162	1
17	28	2
36	37	1
155	156	1
20	20	1
77	142	1
18	19	1
109	110	1
117	118	2
15	15	4
65	68	1
13	42	2
146	146	2
38	63	1
109	116	1
52	52	4
44	87	1
29	33	1
111	130	1
77	78	1
122	174	1
112	114	1
49	50	1
112	115	1
12	16	1
55	89	1
44	45	1
148	149	1
121	121	2
2	13	1
5	61	1
89	101	1
112	139	1
154	159	2
45	45	2
148	167	1
138	180	1
154	174	1
31	33	2
54	75	1
53	54	1
107	109	1
101	119	2
94	96	1
125	131	1
100	101	1
58	60	2
88	125	1
132	137	1
83	83	1
35	46	1
86	125	1
79	138	1
6	7	2
21	22	1
39	43	1
104	105	3
94	102	1
7	16	1
176	179	1
114	114	2
27	30	2
50	51	2
138	168	1
168	171	2
83	86	1
59	60	2
109	109	4
1	38	1
163	165	2
129	161	1
145	168	1
95	115	1
39	61	1
158	162	2
5	25	1
127	130	1
17	20	1
134	159	1
66	85	1
148	153	1
3	59	1
68	68	3
67	71	1
27	29	1
5	28	1
111	178	1
115	118	1
99	103	1
134	138	1
127	127	1
56	81	1
87	93	1
99	100	1
12	59	1
158	167	1
120	120	2
94	131	1
9	10	1
6	87	1
49	58	1
0	32	1
90	114	2
153	154	2
24	49	1
33	36	1
125	126	2
80	104	2
105	106	1
148	172	1
2	4	1
81	82	1
91	105	1
138	138	3
61	62	1
142	146	1
169	171	1
50	116	1
42	43	2
79	87	1
152	156	1
82	91	1
105	125	1
23	33	1
5	11	1
57	80	1
5	110	1
107	126	1
64	87	1
85	93	1
74	75	1
135	136	3
164	165	1
89	94	1
11	14	1
94	95	1
24	26	1
117	117	2
147	174	1
54	61	1
78	90	1
87	89	1
105	105	2
50	87	1
75	76	3
113	115	1
37	77	1
3	38	1
51	83	1
24	29	1
124	125	1
86	88	1
120	139	1
55	56	1
13	25	1
87	87	1
91	92	1
35	117	1
152	155	1
104	106	1
95	130	1
145	167	1
74	90	1
99	119	1
7	32	1
104	128	1
34	35	2
143	154	1
26	28	1
25	46	1
11	37	1
101	107	1
65	131	1
61	85	1
66	90	1
39	44	1
3	4	1
109	115	1
116	117	1
52	53	1
156	157	1
37	39	1
2	3	1
101	105	1
28	50	1
149	151	1
61	65	1
119	120	1
63	66	1
76	79	1
135	156	1
60	66	1
126	154	1
38	53	1
1	37	1
33	41	1
131	141	1
142	169	1
51	62	1
103	125	1
131	133	1
177	178	1
91	114	1
68	72	1
86	87	1
