150	150	2
48	54	2
163	166	1
90	149	1
106	108	1
52	52	1
95	95	1
153	153	3
141	141	2
137	138	1
8	47	1
137	137	6
2	3	1
142	144	1
97	123	1
166	166	1
96	96	2
63	64	2
132	133	2
49	49	5
140	140	4
10	10	5
156	156	2
128	129	2
48	49	2
164	165	1
125	126	1
21	24	1
81	96	1
86	86	2
24	24	4
17	112	2
110	137	2
102	102	1
103	103	3
130	130	3
48	53	2
142	142	1
56	56	2
18	18	4
71	71	1
86	87	1
85	116	1
155	155	5
25	164	1
23	23	4
165	166	1
90	90	1
46	47	2
15	15	1
116	116	1
126	126	2
68	83	1
91	93	2
45	45	3
7	7	2
37	37	1
109	137	2
9	9	2
48	51	1
37	38	1
67	68	3
94	94	1
20	22	1
84	84	1
98	99	2
83	83	4
40	40	2
138	138	4
158	158	4
8	8	1
157	158	1
34	34	1
127	140	1
131	131	3
160	160	1
169	169	4
62	62	1
14	14	4
55	55	1
137	140	1
76	85	1
0	1	1
68	93	1
21	21	1
5	5	2
38	38	1
92	96	2
93	93	2
25	26	1
50	50	1
27	27	1
39	40	1
124	124	5
65	66	2
19	20	1
41	71	1
143	143	4
91	94	2
11	12	1
16	17	1
168	168	2
39	39	1
151	151	2
46	46	4
116	117	2
19	21	1
47	51	1
38	39	2
139	139	2
121	121	4
82	82	1
51	58	1
115	127	1
119	119	1
91	91	2
111	111	1
100	100	2
3	3	1
107	107	1
74	74	2
51	92	1
40	71	1
138	139	2
2	2	2
19	51	2
118	118	3
114	114	1
1	1	1
68	68	2
13	13	2
165	165	3
96	98	2
8	10	1
115	115	1
110	110	1
6	7	2
101	102	1
167	167	1
95	97	1
158	160	1
148	149	1
138	141	2
105	112	1
144	146	2
107	108	4
82	101	1
72	78	1
11	11	2
99	106	1
138	142	1
88	88	2
4	5	1
68	69	1
89	89	1
80	116	1
119	120	2
118	119	1
26	26	1
170	170	1
98	98	1
148	150	1
129	129	2
64	64	2
128	128	2
131	135	1
66	66	3
96	97	2
6	13	2
93	94	2
152	152	3
147	147	1
139	151	2
102	104	1
131	132	1
44	44	1
62	64	1
149	149	2
18	19	3
84	85	1
25	55	1
113	114	1
154	155	1
127	127	1
108	147	1
103	164	1
144	144	1
111	158	1
130	131	1
0	0	2
76	76	1
151	155	1
108	108	2
12	14	1
15	21	1
97	97	2
101	101	1
85	85	3
76	77	1
136	136	1
154	154	1
99	100	2
25	25	2
109	110	1
157	157	2
113	115	1
161	161	2
78	79	1
15	16	1
112	112	1
133	133	1
44	45	2
129	154	1
43	43	1
80	162	1
64	66	1
8	15	1
42	42	2
27	52	1
94	95	1
122	122	1
113	141	1
109	121	1
8	9	2
162	165	1
118	134	1
81	81	1
104	104	2
12	47	2
113	113	1
133	134	1
115	116	1
87	97	1
56	92	1
153	154	1
12	13	1
71	167	1
76	79	1
118	166	1
159	159	1
6	6	3
103	146	1
146	147	2
102	103	1
52	53	1
124	125	1
169	170	1
135	135	3
99	99	2
81	82	1
13	17	1
100	106	1
144	145	1
99	108	2
12	12	1
40	41	1
53	53	1
95	96	1
144	155	1
41	122	1
162	166	1
167	168	1
41	41	1
160	169	1
164	164	1
10	22	1
105	105	2
65	65	2
121	123	1
127	131	1
0	2	1
145	145	1
87	89	1
78	80	1
143	145	1
67	67	1
163	163	2
78	78	1
19	19	1
21	23	1
12	51	1
89	125	1
142	152	1
97	100	1
13	49	1
122	123	1
117	117	1
115	121	1
72	85	1
77	77	1
135	138	1
34	35	1
9	10	1
154	157	2
80	80	1
