39	43	1
215	215	6
77	77	4
55	55	12
66	68	2
220	220	10
27	27	9
121	121	13
46	74	1
218	218	1
56	56	12
14	14	6
219	220	2
118	140	1
8	12	1
47	47	5
15	16	2
201	227	2
159	165	1
231	231	8
179	184	1
103	123	1
114	115	1
57	57	5
134	155	1
98	234	2
69	69	6
136	146	4
60	60	7
184	184	7
76	79	1
157	157	14
75	160	1
29	29	4
95	95	7
185	185	3
3	3	5
155	155	7
181	181	5
40	40	10
120	120	6
15	15	6
154	155	4
81	81	5
219	219	10
207	207	2
36	36	5
210	225	1
103	104	2
186	187	3
145	146	5
10	10	6
191	191	6
101	101	7
42	42	5
52	52	2
193	195	3
10	86	2
182	182	9
170	220	1
112	121	2
39	39	7
9	10	2
108	108	10
54	85	3
136	136	8
2	2	8
142	142	3
124	125	2
64	179	1
123	126	2
167	168	9
127	127	5
162	163	4
38	44	2
190	191	1
171	171	7
150	150	6
96	97	2
184	185	2
5	5	2
24	24	11
193	194	2
163	164	3
206	206	11
58	59	3
125	126	2
47	54	2
5	66	1
11	13	1
146	147	5
31	78	2
162	164	1
52	155	1
148	148	4
20	20	6
80	81	1
101	120	1
158	182	1
162	162	9
150	151	6
107	108	6
6	6	2
66	86	1
135	135	10
165	165	8
199	200	1
65	66	2
192	192	5
128	128	13
125	127	2
66	66	4
49	49	5
33	34	3
160	161	5
63	63	5
59	59	1
140	140	5
168	169	2
136	219	1
163	163	12
146	146	6
152	153	3
67	67	7
38	38	12
144	144	7
105	106	3
152	155	2
30	30	6
96	96	4
173	173	6
166	166	11
133	147	1
208	221	1
23	23	7
151	151	8
62	62	9
35	86	1
44	44	9
131	131	7
175	175	9
159	159	12
119	119	14
222	223	2
161	161	8
84	84	10
21	23	1
140	141	3
16	16	9
217	217	5
16	17	2
59	60	1
38	53	2
126	126	4
76	76	6
65	169	1
170	173	2
171	172	1
227	227	4
74	74	11
123	123	4
25	25	10
183	183	4
11	11	2
168	168	6
183	184	1
180	180	7
228	228	6
100	100	6
235	235	8
139	139	4
210	210	4
104	105	6
73	73	10
8	8	8
32	37	1
233	241	1
188	188	6
11	32	2
65	171	1
223	223	4
164	164	5
158	159	4
68	68	6
113	113	5
159	160	1
143	143	1
43	43	7
129	129	12
33	33	4
54	54	8
38	47	1
197	197	6
16	22	1
169	169	5
177	177	8
210	227	2
202	202	6
238	239	3
174	175	4
3	10	1
152	152	8
156	156	9
106	161	1
65	70	1
200	224	1
141	141	2
9	9	8
186	186	4
46	46	8
56	66	1
86	86	10
107	107	5
0	23	1
25	176	1
24	27	1
154	154	8
168	199	1
124	124	2
12	12	10
85	86	2
6	196	3
137	167	1
109	114	1
10	11	2
165	171	1
234	234	5
108	110	1
241	241	1
106	106	3
32	32	5
105	105	6
175	176	5
64	64	5
17	17	7
197	198	1
173	178	1
104	104	7
105	152	1
85	102	1
212	212	4
215	216	5
112	120	2
179	179	11
46	203	1
51	52	4
15	30	2
158	158	11
117	117	8
214	214	2
129	148	1
105	173	1
136	137	1
19	19	1
74	111	1
133	134	1
239	239	7
122	122	6
86	96	1
70	70	6
33	168	1
131	132	1
26	26	8
85	85	10
172	200	1
138	139	3
137	137	7
236	236	3
118	118	9
97	97	6
115	115	4
211	224	1
109	109	7
71	95	3
140	143	1
185	186	2
46	62	1
240	240	10
48	48	5
51	51	4
222	222	3
111	111	4
195	195	5
229	229	3
236	237	1
200	204	2
175	177	2
134	134	3
126	133	1
210	211	2
20	21	1
35	35	4
98	98	5
34	34	12
233	233	2
13	13	3
7	8	4
34	35	4
65	65	7
12	13	1
50	51	3
160	160	4
31	33	1
61	61	8
31	31	5
67	68	1
59	79	1
193	193	3
170	170	7
62	64	1
39	42	2
183	196	1
27	46	1
156	157	5
25	219	1
57	67	1
44	45	1
210	217	1
38	43	1
49	50	2
195	229	1
75	75	4
158	188	1
211	211	4
25	26	1
153	157	1
130	145	1
99	99	6
201	201	1
150	153	1
198	199	2
209	209	2
17	18	2
129	150	1
123	125	3
191	193	2
171	173	1
194	194	2
201	202	1
96	113	1
4	4	6
152	158	1
45	45	6
216	216	1
176	176	7
142	147	2
178	178	5
208	219	1
79	79	2
116	118	1
175	191	1
174	176	1
105	136	1
132	133	3
226	226	4
102	160	1
28	59	1
218	219	3
167	167	10
67	85	1
0	3	1
200	230	1
98	99	1
3	62	1
70	71	3
89	89	1
28	32	2
221	221	5
18	19	2
53	53	4
21	21	9
205	205	4
11	88	2
111	112	1
127	128	1
1	20	1
54	55	1
192	220	2
143	166	1
212	213	1
200	200	1
116	116	1
225	226	1
149	166	1
2	52	1
106	127	1
202	239	1
28	63	1
71	74	1
224	224	5
3	49	1
102	103	1
7	7	5
129	130	2
14	15	2
31	39	1
1	4	1
24	38	1
149	150	3
153	153	8
54	61	1
22	22	4
193	196	1
141	142	4
64	189	1
30	139	1
115	168	1
60	69	1
18	18	3
96	99	1
223	224	1
182	184	2
2	3	2
120	121	2
83	83	2
68	69	1
19	57	1
132	132	2
29	30	5
122	123	1
77	78	2
119	129	1
168	177	2
130	130	2
140	153	1
37	37	8
198	198	2
238	238	4
201	217	1
157	165	1
59	78	1
204	206	2
213	213	1
176	179	1
234	237	1
114	114	1
190	190	2
122	153	1
45	46	2
127	138	1
24	44	2
30	45	1
123	124	2
138	138	7
36	53	1
99	113	1
111	128	1
241	242	2
4	5	2
71	76	1
76	102	3
160	163	1
199	199	6
88	88	6
41	41	2
239	240	2
204	204	3
0	0	3
121	127	1
145	145	2
11	12	1
230	230	1
172	172	4
1	1	2
58	58	4
38	59	2
166	167	2
3	7	2
137	166	1
24	25	1
103	103	5
98	101	1
237	237	3
208	208	2
26	73	1
168	176	1
147	147	3
8	13	2
177	178	1
187	187	4
225	229	2
27	232	1
128	152	1
20	47	2
3	34	1
228	229	3
86	88	2
102	102	10
62	71	1
101	121	1
3	5	1
137	138	2
189	189	3
52	221	1
3	11	1
7	41	1
63	84	1
106	107	1
234	235	2
30	31	3
23	50	1
125	125	1
61	62	1
170	171	2
221	222	1
2	224	1
233	242	1
145	149	1
191	200	1
126	141	1
219	232	1
211	213	3
26	27	2
79	80	1
131	135	1
32	33	3
184	187	1
135	150	1
31	61	1
174	174	4
155	185	1
168	183	1
224	225	2
0	214	1
124	162	1
162	183	1
169	171	1
135	169	2
42	65	1
114	118	1
180	188	1
121	122	1
134	151	1
160	169	1
209	210	1
153	170	1
221	229	1
167	209	1
233	234	1
133	133	3
179	181	2
97	98	1
102	161	1
56	57	3
234	242	1
139	141	2
59	83	1
7	80	1
42	63	1
43	69	1
10	25	1
79	159	1
221	226	1
63	82	1
135	144	1
217	218	3
201	230	2
155	156	3
200	201	1
171	183	2
158	179	1
113	173	1
134	137	1
100	145	1
172	173	3
98	203	1
225	230	1
168	186	1
134	140	1
2	14	1
174	232	1
66	67	2
209	213	1
154	162	1
33	39	1
82	83	1
0	15	1
211	230	2
149	149	5
28	28	4
142	166	1
72	72	2
18	33	1
173	174	1
5	225	1
214	215	2
43	55	1
32	102	1
225	225	2
109	170	1
47	64	1
80	80	5
179	180	1
101	106	1
220	222	1
114	161	1
153	187	2
170	218	1
138	167	2
188	190	2
164	167	1
169	170	1
232	232	1
26	174	1
173	201	1
38	39	2
182	183	3
118	119	1
71	71	1
50	53	1
62	88	1
85	97	1
73	74	1
101	102	1
77	79	1
129	135	1
116	117	2
230	231	2
106	120	1
79	81	1
151	152	2
136	138	1
46	47	1
122	124	1
153	156	1
8	33	1
10	43	1
157	179	1
135	149	2
75	149	1
109	111	1
0	8	2
167	181	1
164	165	2
82	82	4
151	169	2
54	145	1
134	135	1
79	84	1
102	104	3
3	6	1
206	207	1
136	174	1
47	55	1
29	31	1
86	191	1
192	223	1
28	29	1
187	208	1
98	200	1
78	108	1
161	162	1
48	54	1
117	119	1
75	77	1
108	109	1
129	134	1
28	61	2
234	240	1
157	167	1
127	173	1
171	174	2
31	32	1
97	203	1
134	144	1
5	6	1
80	158	1
195	196	2
119	158	1
6	188	2
118	129	1
64	73	1
126	146	1
113	119	1
192	193	1
27	146	1
96	153	1
115	175	1
139	173	1
159	188	1
216	217	1
37	82	1
153	154	2
177	179	1
204	205	1
24	61	1
38	61	1
155	162	1
202	240	1
190	202	1
34	36	3
232	240	1
139	144	1
62	63	1
38	48	1
184	186	1
23	24	1
200	206	1
39	179	1
140	142	1
173	175	1
25	31	1
72	73	2
115	117	1
192	230	1
12	16	1
121	171	1
172	177	1
169	172	1
21	54	1
130	165	1
129	159	1
10	15	1
208	227	1
44	70	1
68	74	1
234	236	1
132	147	1
208	220	1
168	173	1
208	216	1
112	112	1
207	208	1
53	56	1
0	53	1
26	236	1
215	223	2
13	17	1
2	215	1
100	111	1
35	36	1
61	79	1
80	83	1
40	41	1
143	144	1
146	148	1
165	166	1
6	19	1
169	199	1
11	37	1
166	180	1
74	75	1
20	64	1
144	152	1
89	235	1
123	150	1
154	166	1
0	217	1
