83	83	2
118	118	7
103	125	1
97	97	6
24	24	11
94	94	4
95	96	2
51	101	1
31	32	2
73	75	1
30	30	3
131	131	5
117	119	1
61	62	1
87	87	1
41	55	1
123	123	6
108	108	3
115	115	6
117	117	4
75	75	4
52	110	2
70	70	3
10	11	1
79	79	3
32	33	2
89	89	1
128	128	5
72	73	1
101	101	1
99	101	1
130	130	4
3	5	2
99	100	2
78	84	2
96	96	3
89	90	1
39	40	1
98	98	3
3	4	1
69	69	3
62	62	9
9	9	1
47	48	1
49	49	9
45	88	1
40	40	6
75	77	1
89	91	2
78	79	2
62	63	3
60	61	4
104	104	4
31	34	1
58	58	7
27	27	3
124	124	3
8	8	3
101	107	3
102	102	3
11	12	1
15	16	1
98	99	2
74	95	1
132	132	2
71	73	1
76	76	3
122	122	2
119	119	6
76	79	2
5	10	2
1	1	7
23	25	2
17	18	1
63	63	3
71	71	3
42	43	1
56	56	3
25	25	5
44	88	1
90	90	4
22	66	1
18	29	1
113	113	5
44	44	3
33	33	7
22	22	3
53	56	1
59	62	1
110	111	1
63	94	1
48	49	3
109	109	4
0	7	1
77	77	1
67	67	4
59	59	3
58	72	2
66	67	1
55	83	1
28	28	4
84	84	3
117	125	1
93	93	2
95	130	1
46	48	2
114	114	5
133	133	2
90	103	1
54	55	1
55	68	1
1	6	1
41	41	2
126	127	3
85	85	5
66	66	6
72	72	3
64	64	1
46	47	2
121	122	1
106	106	1
51	114	1
45	45	3
91	93	1
112	112	2
68	109	2
125	125	2
121	121	3
130	131	4
60	62	2
0	0	3
50	50	2
69	70	1
101	112	2
95	95	4
38	80	1
41	62	1
68	68	6
23	24	1
43	43	3
120	121	2
106	107	2
116	116	3
12	14	1
87	89	2
2	2	1
95	100	1
82	84	1
50	51	1
105	105	2
53	53	4
54	108	1
55	55	4
58	103	1
111	111	1
47	47	1
78	78	1
105	130	1
73	73	4
72	79	1
92	106	1
60	60	4
125	130	1
58	59	1
22	98	1
107	113	2
104	123	1
92	130	1
2	3	3
79	89	1
92	109	1
127	127	1
40	41	2
19	20	1
67	94	1
27	28	1
3	3	1
118	124	1
103	103	4
100	100	2
16	16	1
65	93	1
105	106	1
15	15	4
69	72	1
27	30	1
108	131	1
102	129	1
97	98	1
78	91	2
32	32	3
77	78	2
85	102	1
71	92	1
6	6	4
79	80	1
52	52	2
21	22	1
24	25	1
65	66	1
80	103	1
74	122	1
10	49	2
115	116	1
115	118	1
79	85	2
57	101	1
67	68	2
26	26	2
21	21	2
51	51	1
126	126	3
96	101	1
5	5	2
60	83	1
65	125	1
11	11	3
118	119	1
74	74	2
96	126	1
54	54	2
63	98	1
101	102	1
30	31	1
123	124	1
53	122	1
65	65	1
112	125	1
10	10	1
74	75	1
67	128	2
18	21	1
14	14	1
38	39	1
60	125	1
57	57	1
7	7	1
76	104	1
50	104	1
91	91	1
4	4	2
30	34	1
34	34	1
6	7	1
99	102	1
46	46	2
98	100	1
88	89	2
91	92	1
126	128	1
28	29	1
127	128	2
48	48	1
69	80	1
99	99	1
42	42	3
94	95	1
117	118	1
40	80	1
107	107	1
39	39	1
84	85	1
97	101	1
58	70	1
114	115	1
21	58	1
18	19	1
104	105	1
26	67	1
97	99	1
124	125	1
110	110	1
31	31	1
119	120	1
129	129	1
94	129	1
