219	219	1
7	8	2
198	198	4
113	113	1
24	24	2
54	54	4
62	62	1
221	222	1
22	22	1
19	19	3
67	67	1
153	153	3
191	191	2
229	229	2
47	71	1
96	96	3
200	200	2
109	161	1
160	160	9
65	65	3
30	31	1
8	9	2
206	206	3
9	159	1
123	125	4
102	102	2
201	202	1
165	166	3
117	117	2
29	29	3
170	170	2
159	159	3
13	13	3
50	53	1
163	182	2
11	11	3
226	227	4
227	227	2
174	174	2
71	71	3
25	25	3
135	136	1
161	161	1
9	29	2
89	89	1
21	23	2
141	141	2
187	187	4
182	182	4
30	43	1
33	33	1
157	157	2
195	195	1
75	121	1
152	159	2
88	128	1
103	104	1
129	198	1
128	128	6
136	137	2
158	158	2
100	100	3
157	161	1
148	148	2
126	126	1
28	28	2
77	77	1
121	121	2
183	184	1
213	214	1
145	145	1
243	243	2
209	230	1
38	222	1
51	51	2
118	118	2
103	115	1
9	9	7
96	97	2
20	20	2
178	178	2
109	109	3
70	112	1
73	73	2
16	119	1
216	216	3
185	187	3
7	7	3
196	196	1
14	14	3
106	106	3
187	189	1
123	151	2
82	82	2
224	225	3
44	45	1
65	68	1
157	158	1
55	55	2
23	23	2
220	223	1
168	168	3
12	13	1
29	43	1
205	216	1
38	38	2
70	70	2
114	119	2
26	27	3
4	6	1
181	181	3
49	66	1
143	148	1
49	50	3
185	185	2
66	66	1
168	175	2
236	236	1
202	202	2
88	88	1
47	47	7
4	4	2
69	69	2
120	120	3
149	149	5
112	113	1
101	102	3
115	141	1
214	222	1
239	239	1
18	19	2
76	76	3
205	207	1
52	53	1
235	237	1
75	84	1
12	16	1
174	178	1
2	224	2
26	26	3
160	162	1
2	2	2
127	128	1
44	100	1
178	191	1
22	41	1
114	115	1
157	180	1
136	136	1
41	149	1
213	213	4
150	150	2
20	39	2
216	224	1
60	68	1
147	147	1
212	212	1
8	8	3
16	16	2
44	44	4
154	154	1
3	3	1
80	84	1
74	75	1
128	172	2
155	159	2
173	173	3
218	218	5
68	69	2
137	137	2
30	41	1
99	99	1
4	8	2
47	206	1
23	75	1
239	240	1
233	233	2
72	73	1
210	210	1
70	120	1
108	109	2
132	134	2
70	72	1
180	180	2
111	111	1
149	150	2
207	207	3
146	146	2
12	21	1
39	39	2
119	122	1
173	174	3
158	159	1
122	122	3
159	160	1
15	16	1
85	85	2
48	48	1
151	151	1
174	175	1
166	169	1
34	34	1
3	16	1
15	15	1
63	69	1
62	85	1
188	210	1
217	218	1
113	178	1
164	164	2
37	38	1
122	123	1
160	206	1
10	10	2
40	40	1
84	127	1
85	86	1
10	11	1
48	49	1
207	208	1
185	186	2
2	150	1
184	184	1
30	58	1
45	45	3
176	176	4
179	179	1
127	127	1
12	14	1
124	151	1
171	171	2
234	234	1
46	46	1
12	12	2
199	199	1
70	71	1
17	17	1
64	65	2
56	60	1
8	39	1
33	34	1
190	190	1
240	240	1
114	114	1
24	70	1
66	67	1
132	132	1
27	27	2
214	214	2
139	140	1
81	104	1
81	81	2
23	24	1
36	38	1
204	204	1
83	83	1
108	108	1
130	130	1
6	7	1
238	238	1
30	47	1
109	110	1
34	36	2
223	223	1
0	22	1
121	152	1
212	213	1
18	18	1
117	137	1
20	228	1
36	37	1
43	62	1
237	237	2
80	80	1
103	103	3
54	55	2
147	149	1
105	131	1
83	85	1
163	165	1
155	155	1
183	196	1
7	34	1
32	68	1
211	211	1
31	33	1
189	190	1
224	224	1
3	5	1
61	62	1
77	79	1
124	125	1
43	43	1
105	168	1
133	134	1
66	74	1
36	36	1
142	142	1
58	59	1
154	155	1
134	169	1
72	72	2
128	198	1
113	114	1
116	117	1
86	86	2
143	143	1
144	161	1
56	56	1
241	241	1
215	215	1
206	216	1
150	151	1
138	138	1
62	64	1
153	154	1
177	177	2
135	135	2
73	106	1
67	68	1
119	119	1
187	188	1
79	80	1
116	118	1
109	111	1
155	160	1
83	84	1
186	188	1
11	12	1
165	165	1
11	16	1
217	231	1
180	185	1
61	61	1
146	148	1
101	101	1
162	187	1
172	172	1
41	41	1
162	198	1
34	35	1
68	68	1
181	220	1
166	166	1
131	131	1
169	169	1
175	175	1
228	228	1
174	242	1
125	125	1
231	236	1
