109	109	3
87	87	2
53	53	7
84	84	5
140	141	1
63	63	1
101	101	1
119	128	1
70	70	4
142	142	1
9	9	2
138	149	2
11	24	1
81	81	2
117	141	1
125	127	1
56	56	2
13	14	2
27	27	2
64	64	2
102	102	1
30	56	1
66	66	1
24	24	2
135	135	3
17	17	5
11	12	1
13	18	1
21	21	1
57	58	1
118	118	1
96	96	2
71	71	4
94	94	2
109	122	1
110	110	2
68	69	1
37	37	1
145	146	1
102	103	1
20	20	1
150	151	2
114	114	4
68	68	2
34	36	2
12	12	2
93	93	1
77	110	2
75	76	2
30	33	1
31	31	2
130	134	1
106	106	3
63	67	1
142	144	1
105	113	1
148	148	2
40	40	2
43	43	1
38	38	4
54	54	2
23	23	3
103	149	1
152	152	1
78	79	1
13	13	3
10	10	3
90	92	1
36	41	1
82	83	1
36	36	2
92	92	1
91	136	1
65	65	8
147	147	2
48	48	3
129	129	1
132	132	2
142	145	2
117	147	1
27	45	1
5	5	1
62	62	1
91	95	1
80	112	3
122	122	5
17	18	1
63	98	1
4	17	2
125	126	1
100	100	2
130	130	5
22	23	1
28	28	2
126	128	2
97	98	1
104	104	1
138	138	1
153	154	2
4	8	1
141	141	2
133	133	2
76	79	1
74	74	2
88	88	1
126	139	1
35	36	1
123	123	1
24	25	2
76	92	1
54	101	1
129	131	2
7	14	2
4	4	1
111	111	1
107	107	3
105	105	1
81	82	1
153	153	1
2	148	1
95	96	1
122	123	3
25	25	2
115	115	1
77	77	2
11	11	2
33	35	1
28	29	1
73	73	1
98	98	1
143	143	2
128	129	3
33	34	2
16	16	1
20	62	2
23	24	1
97	97	1
117	124	1
27	30	1
18	18	1
46	46	1
112	112	2
31	32	2
104	105	2
19	30	1
113	113	2
146	147	2
126	126	2
119	119	1
144	144	2
130	131	2
35	35	1
35	83	2
47	47	1
141	144	1
35	80	2
99	99	1
116	140	3
85	86	1
29	29	1
108	109	1
45	50	1
25	82	1
149	149	1
5	6	1
21	27	1
14	15	1
125	125	1
116	129	1
8	8	1
62	64	1
131	131	2
9	39	1
134	138	1
67	67	2
62	103	1
2	3	1
112	129	1
55	56	1
77	78	1
139	139	2
83	84	1
150	150	4
6	6	2
14	23	1
82	116	1
62	142	1
41	41	1
108	108	2
136	136	1
47	48	1
6	9	2
116	116	1
72	72	1
75	79	1
9	24	1
70	109	1
8	9	2
32	32	2
68	73	1
146	146	1
73	106	1
87	98	1
104	113	1
122	124	1
83	139	1
56	57	1
71	73	1
129	132	1
45	45	1
51	51	2
48	50	1
42	42	1
29	30	1
17	30	1
22	22	1
18	19	2
106	108	1
126	127	1
83	85	1
134	134	1
72	75	1
38	39	1
62	66	1
83	83	1
70	71	1
103	103	1
108	110	1
117	118	1
