78	80	3
13	13	1
81	81	3
21	22	1
99	158	2
83	113	1
55	55	6
114	115	3
75	75	3
118	136	1
105	105	8
3	3	3
83	84	1
115	115	8
106	107	1
131	131	6
68	68	2
95	95	4
141	141	2
42	42	1
66	66	1
155	155	5
53	53	2
97	133	2
150	150	5
51	52	4
129	129	2
73	73	4
112	147	1
147	148	1
121	121	4
24	24	2
129	138	1
85	86	3
31	31	4
146	146	3
63	63	1
140	146	1
120	120	4
66	71	1
143	143	2
151	153	1
83	83	2
125	125	5
3	4	2
123	123	1
32	34	1
38	38	3
158	158	7
134	135	1
67	92	1
25	26	1
22	67	1
139	140	2
92	92	5
37	44	1
18	18	1
16	16	1
26	28	1
131	132	4
122	122	2
137	138	2
94	127	1
128	128	1
48	49	2
41	41	1
120	132	1
34	34	1
112	115	1
139	139	1
46	54	1
130	138	1
116	116	4
27	27	2
69	95	2
48	48	3
80	81	2
104	104	3
6	6	5
154	155	2
130	130	3
111	139	1
20	44	1
37	37	3
118	119	1
87	87	2
67	67	5
97	140	2
70	71	2
106	106	3
107	107	3
142	158	1
90	91	1
106	140	1
4	135	1
9	9	3
9	19	1
128	138	2
135	135	4
4	4	3
22	22	3
14	47	1
100	100	3
115	121	2
111	111	1
10	10	2
6	38	1
85	85	1
103	104	4
140	140	2
82	83	1
27	30	1
114	114	2
30	30	2
70	70	6
78	79	1
7	7	2
111	119	1
44	45	2
90	90	1
14	14	2
117	117	6
120	133	1
46	46	3
79	79	3
94	94	3
112	121	2
66	101	1
30	31	2
128	137	1
145	145	2
126	126	3
127	131	1
65	65	4
8	45	2
17	17	1
31	41	3
109	110	3
47	49	2
63	125	1
25	25	3
136	137	2
101	152	1
108	110	2
97	97	2
149	149	2
127	127	2
8	11	1
36	36	3
46	48	1
91	105	1
118	118	4
23	25	1
57	57	1
156	156	1
8	8	1
13	14	2
143	146	1
130	150	1
36	105	1
138	138	1
29	29	1
23	65	3
151	151	1
80	80	5
87	117	1
150	151	1
69	131	1
19	20	3
97	106	1
77	78	1
124	124	3
105	111	1
147	147	2
137	137	4
18	19	1
108	111	3
39	75	1
103	103	1
108	123	1
80	83	1
153	156	1
102	102	1
109	109	1
11	11	1
140	155	1
86	86	2
26	26	3
144	144	1
110	110	3
134	137	1
63	69	1
27	28	2
121	122	4
87	91	3
105	125	1
33	33	2
131	134	1
69	71	1
126	127	1
146	147	2
153	154	2
128	150	1
29	30	2
28	65	1
137	141	1
42	80	1
78	90	1
152	153	3
113	119	1
35	87	2
10	11	1
79	92	1
36	55	1
54	55	1
44	107	1
154	154	3
87	88	1
142	143	1
12	13	1
56	56	1
54	54	1
52	52	2
9	10	2
111	113	1
48	66	1
112	112	1
39	39	1
108	137	1
0	27	1
69	69	2
50	50	2
45	45	2
144	147	1
3	8	2
5	5	2
98	99	1
74	75	1
115	156	1
67	68	1
99	99	2
53	54	2
132	134	1
45	47	1
113	113	3
140	141	1
127	139	1
96	97	2
23	23	1
96	96	2
115	122	1
76	134	1
77	77	1
51	53	1
116	119	1
85	94	1
38	103	1
7	8	1
57	62	2
112	129	1
94	97	1
130	132	1
8	15	1
84	85	1
101	101	1
107	113	1
118	120	1
115	116	1
78	78	1
71	71	2
35	36	2
129	130	1
50	51	1
148	148	2
47	47	1
142	142	1
99	103	1
27	31	1
18	22	1
99	100	1
119	122	1
49	54	1
98	98	2
73	74	1
119	120	1
44	44	1
106	132	1
24	25	1
117	118	1
19	19	1
20	35	1
36	87	1
105	148	1
93	95	1
88	89	1
103	129	1
70	148	1
51	51	1
88	119	1
124	126	1
65	70	1
145	146	1
66	67	1
62	62	1
17	19	1
91	101	1
20	21	1
30	38	1
66	75	1
125	126	1
53	56	1
