126	126	2
134	134	5
120	122	1
96	125	2
152	154	1
86	86	2
37	37	3
7	50	1
76	76	3
166	166	4
138	139	1
42	42	6
117	117	1
90	90	2
136	138	1
73	73	1
27	27	3
33	33	2
70	70	4
43	43	4
22	23	1
130	142	1
102	117	1
4	4	2
24	25	2
17	144	1
55	56	2
66	70	1
116	116	3
88	155	1
100	103	1
133	134	3
1	1	3
43	44	1
147	147	3
92	93	2
150	151	1
15	15	4
111	111	4
44	45	1
91	91	1
23	23	1
121	166	1
151	151	2
48	50	1
71	79	1
22	24	1
109	109	5
6	6	2
34	34	2
155	155	3
49	49	4
10	10	4
46	46	2
48	48	1
112	116	1
112	119	3
157	157	6
66	67	1
22	22	5
44	44	1
36	37	1
141	141	1
47	55	1
168	168	3
36	36	5
99	100	1
170	170	3
117	118	1
167	168	2
112	130	1
4	28	1
16	16	2
80	80	2
63	64	1
163	164	1
162	163	2
8	8	3
127	127	2
139	161	2
137	137	2
146	147	1
51	51	2
26	26	3
45	45	1
91	107	1
52	52	1
136	159	1
122	122	5
101	101	1
71	80	1
130	131	2
136	136	2
12	12	3
76	79	1
9	9	1
8	10	3
129	136	1
55	55	1
101	102	1
71	71	3
17	146	1
25	25	1
75	75	2
3	3	3
78	78	2
11	11	1
134	151	1
82	82	1
139	139	3
19	19	1
164	164	4
93	93	2
139	166	1
105	105	2
102	103	1
155	166	1
112	112	1
143	143	2
145	145	3
1	87	1
119	119	3
64	78	1
99	103	1
34	150	1
125	126	1
62	62	1
46	51	1
94	99	1
137	156	1
71	121	1
20	22	2
14	15	2
65	83	1
159	159	2
13	13	2
114	122	1
11	13	1
0	0	1
161	161	2
16	18	1
58	64	1
41	147	1
133	133	1
8	23	1
137	138	1
132	134	1
77	79	1
41	73	1
5	5	1
85	85	1
140	140	2
56	56	3
41	41	4
21	21	3
56	157	1
158	159	1
78	79	1
73	74	1
52	57	1
10	24	2
40	40	2
18	22	1
4	5	2
35	35	2
120	121	1
106	108	1
138	138	3
168	169	1
22	69	1
21	22	1
92	94	1
152	153	2
145	157	1
69	69	4
140	162	1
155	156	3
91	92	1
47	47	1
15	170	1
158	158	1
153	155	1
144	144	3
137	155	1
114	114	2
104	105	1
83	84	1
2	3	2
48	65	1
144	145	1
153	153	1
111	113	2
119	125	1
18	18	2
118	139	2
106	107	2
28	28	2
118	126	1
125	129	1
2	2	1
35	150	1
64	100	1
15	18	1
34	36	1
14	26	1
14	35	1
169	170	1
5	21	1
41	42	1
42	43	1
8	9	1
109	110	1
104	106	2
71	111	1
85	113	1
7	7	3
99	99	1
98	98	1
167	167	1
18	27	1
15	16	1
90	91	1
131	143	1
148	148	1
100	100	1
103	103	1
152	155	1
26	89	1
126	129	1
20	20	2
135	154	1
108	148	1
157	158	1
131	131	1
8	162	1
124	126	1
169	169	1
17	17	1
3	13	1
54	54	1
162	162	1
162	165	1
100	101	1
126	132	1
135	169	1
13	14	1
130	130	1
151	166	1
160	160	1
11	16	1
88	88	1
38	41	1
