72	72	2
162	166	1
12	12	4
171	171	6
233	233	2
195	195	1
156	158	2
223	223	1
160	160	2
115	115	4
157	157	1
106	106	6
113	113	9
30	30	1
2	2	2
173	173	4
50	50	2
189	189	2
61	61	5
116	118	2
190	190	2
99	172	1
186	187	4
10	10	1
234	234	2
174	176	2
69	70	2
51	56	1
44	44	1
198	198	5
65	65	4
143	152	2
239	239	4
181	182	1
109	109	4
180	190	1
11	11	2
10	129	1
225	225	1
121	121	3
168	168	5
43	47	1
144	145	2
152	155	1
166	166	4
188	188	4
216	217	2
47	47	7
37	37	2
46	46	1
134	134	2
147	182	1
136	136	6
146	146	2
238	238	1
192	192	3
163	164	2
149	149	3
3	3	3
68	68	1
15	15	3
69	69	1
185	185	3
22	22	3
152	152	4
43	45	1
76	76	1
114	114	2
173	174	3
26	26	6
224	228	1
232	232	3
155	155	4
28	29	2
163	163	2
151	152	1
43	43	4
107	107	2
204	205	1
139	139	4
45	45	2
124	124	2
228	228	1
179	179	1
4	5	1
19	20	1
163	175	1
105	105	4
119	119	1
201	201	4
219	219	3
150	150	1
170	172	1
112	120	1
95	95	2
200	200	4
20	22	2
145	198	1
235	235	1
4	4	1
111	112	1
73	73	1
224	230	1
145	146	3
114	117	2
183	183	1
188	189	1
203	203	2
153	153	4
161	162	1
74	85	1
3	4	1
167	193	2
128	131	1
48	48	1
165	165	4
2	6	1
206	206	1
86	86	3
122	123	1
100	100	3
134	138	1
175	175	3
85	172	1
0	0	5
32	33	2
62	62	2
172	172	6
74	75	3
31	31	6
127	131	1
65	71	1
144	144	4
176	177	3
155	156	2
174	175	3
220	220	1
148	148	1
208	217	1
7	7	2
36	36	1
161	161	2
47	68	1
20	20	2
28	28	4
174	174	3
209	209	2
55	61	1
164	165	2
3	9	1
143	143	2
210	210	1
194	195	1
170	171	1
167	174	1
158	158	2
120	121	1
10	15	1
43	65	1
133	133	1
2	3	1
130	130	1
89	89	2
70	96	1
242	242	1
227	227	3
180	180	2
135	135	4
167	167	4
183	185	1
55	55	2
213	213	1
159	159	3
7	8	2
46	68	1
191	191	3
22	109	1
116	139	2
75	175	1
98	98	3
184	187	1
77	77	3
142	142	1
19	19	1
39	42	1
85	85	1
212	212	1
37	39	4
202	202	2
240	240	2
186	186	3
117	118	2
102	102	1
165	166	1
221	221	4
196	196	1
106	115	2
207	210	1
208	208	1
197	199	1
46	47	1
114	115	2
97	97	3
162	170	1
82	82	1
38	39	2
42	42	2
104	104	4
27	27	1
24	25	1
156	156	1
136	157	1
9	9	4
192	193	1
241	241	4
35	36	1
54	54	1
141	141	1
103	103	2
201	217	1
44	46	1
101	101	2
13	14	1
172	173	1
196	200	1
6	7	2
177	177	3
59	98	1
17	30	1
239	240	2
5	5	1
162	162	1
185	186	1
142	143	1
158	175	1
49	49	1
184	184	2
72	73	1
25	25	2
10	11	1
200	216	2
112	112	1
48	49	1
125	125	1
14	14	2
230	231	1
23	23	2
159	176	1
55	95	1
155	180	2
236	237	1
50	51	1
56	56	1
160	173	1
45	95	2
66	66	1
15	38	1
75	75	1
154	156	1
58	59	1
116	116	2
6	6	2
195	196	1
39	39	2
81	81	1
24	74	1
26	129	1
162	169	1
46	62	1
182	182	1
145	145	3
34	34	1
158	160	1
203	232	1
241	242	1
204	207	1
12	15	1
228	238	1
99	99	1
186	188	2
52	52	1
164	164	2
232	233	1
54	60	1
236	236	3
145	179	1
106	107	1
83	83	1
29	29	1
169	169	2
75	99	1
111	111	1
170	170	2
55	56	1
136	146	1
102	169	1
195	201	1
170	191	1
193	193	1
158	159	2
129	129	1
178	178	1
4	49	1
183	201	1
179	190	1
44	65	1
70	95	1
95	96	1
8	9	1
190	191	1
4	6	1
131	134	1
51	52	1
175	179	1
10	100	1
16	17	1
226	226	2
209	210	1
16	16	2
187	187	1
18	41	1
182	183	1
30	46	1
102	147	1
138	155	1
63	64	1
169	170	1
141	142	1
55	71	1
64	69	1
200	201	1
136	138	1
183	202	1
37	38	1
35	35	3
151	151	1
107	127	1
143	151	1
229	230	1
217	217	2
224	224	1
118	118	1
51	51	1
35	49	1
166	169	1
115	118	1
11	15	1
39	51	1
137	137	1
127	127	1
159	170	1
181	183	1
3	5	1
16	36	1
146	159	1
70	71	1
200	219	1
