113	145	1
100	100	3
105	106	4
122	122	3
138	139	2
148	148	2
84	85	2
24	24	1
135	137	1
107	107	4
97	98	3
77	78	3
128	128	4
51	52	1
21	21	2
124	136	1
111	112	1
129	129	7
88	90	2
64	64	3
133	137	3
15	17	2
112	112	3
114	114	6
9	9	4
4	4	8
82	82	2
66	69	1
39	47	1
119	144	1
76	77	1
23	24	2
57	84	1
68	126	1
25	26	1
19	19	4
130	133	4
26	26	4
24	47	2
96	96	6
15	16	2
36	36	1
146	146	4
85	85	2
34	34	1
52	52	2
88	112	3
2	2	3
69	69	3
49	49	2
68	68	3
107	108	1
29	29	2
126	126	2
80	80	5
121	122	4
128	129	2
137	137	4
38	39	2
103	103	2
150	150	1
55	55	4
151	151	2
20	47	1
56	57	1
38	38	4
71	71	1
108	108	5
24	46	1
68	69	3
45	47	1
92	95	1
105	105	5
32	32	2
79	79	3
136	136	1
89	90	2
138	138	6
46	46	5
96	97	1
153	153	1
20	20	2
8	9	5
104	105	1
28	28	2
110	112	1
54	54	1
2	3	1
131	134	2
145	145	3
102	103	2
142	142	2
23	23	2
130	131	1
53	132	1
1	30	1
90	102	2
154	154	3
106	107	2
89	111	1
70	98	1
40	40	4
83	83	2
149	149	1
81	81	2
145	146	1
42	42	2
8	8	3
1	1	2
88	89	4
126	127	1
67	68	2
35	35	1
101	101	2
46	49	1
140	140	5
108	109	2
115	115	5
90	90	1
63	63	1
77	111	1
92	92	2
5	102	1
51	51	3
30	30	3
48	49	1
107	111	1
123	124	3
4	36	1
126	145	1
125	125	3
41	41	4
31	46	1
13	13	5
97	97	2
135	136	1
75	75	2
2	157	1
17	17	2
20	53	2
116	129	1
90	111	1
31	153	1
98	99	1
20	21	2
156	158	4
127	127	3
123	123	3
125	126	2
27	27	2
16	21	1
142	145	1
109	111	1
124	124	5
21	145	1
95	95	3
110	110	1
76	76	3
47	47	2
143	143	2
66	101	1
112	113	3
78	78	2
94	94	1
15	15	3
18	27	3
135	135	3
66	66	1
57	57	1
117	117	1
81	82	1
50	52	1
30	31	1
85	108	2
148	151	1
44	44	2
120	121	1
66	67	2
56	56	3
152	152	3
32	39	1
112	114	1
87	87	1
158	158	1
54	55	2
8	12	1
103	104	2
131	131	2
94	122	2
118	118	2
33	33	2
109	109	1
0	0	1
0	3	1
84	84	1
88	88	1
62	62	1
139	139	1
92	106	1
39	39	3
13	15	2
93	93	1
45	45	2
72	72	1
4	5	1
18	18	1
147	148	1
0	124	1
153	154	1
144	144	1
116	119	1
12	12	1
16	16	2
122	126	1
3	3	3
117	118	1
65	88	1
5	5	1
63	89	1
151	152	1
99	99	1
105	110	1
83	84	1
49	52	1
46	48	1
22	50	1
33	49	1
115	116	1
119	121	1
20	27	1
48	48	2
10	13	1
28	36	1
134	134	1
42	47	2
155	155	2
71	108	1
44	141	1
9	10	1
98	98	1
50	50	2
1	2	1
113	119	1
5	103	1
2	27	1
129	130	1
102	153	1
29	31	1
18	45	1
31	31	2
40	44	1
130	130	1
75	119	1
25	25	1
70	70	3
116	116	1
42	43	1
39	64	1
18	19	1
137	145	1
78	116	1
157	157	2
43	43	1
89	89	1
121	121	2
53	55	1
110	123	1
96	107	1
99	128	1
64	65	1
77	91	1
29	30	1
123	125	1
10	11	1
119	145	1
14	14	1
95	97	1
73	75	1
5	13	1
13	14	2
80	83	1
141	141	1
23	152	1
87	88	1
73	73	1
