106	107	2
18	18	4
132	134	1
73	73	5
27	28	1
108	108	3
84	85	1
75	75	4
85	85	5
10	10	7
111	112	6
94	99	1
85	92	1
104	104	3
34	34	7
20	20	7
90	93	2
86	86	7
45	45	4
76	76	2
45	46	2
78	78	5
119	119	13
130	130	5
122	122	2
58	58	1
102	102	2
48	48	3
127	127	3
39	39	1
118	118	2
11	11	6
68	68	7
6	6	3
41	42	2
118	120	1
9	9	6
4	6	1
94	94	1
126	126	9
133	133	4
82	82	7
5	5	6
120	121	4
109	109	2
73	75	1
14	14	2
105	105	3
59	59	2
70	70	5
57	57	7
44	44	3
36	36	5
103	105	3
96	96	2
43	43	4
6	31	1
21	21	2
1	2	1
42	42	4
12	12	3
123	129	1
17	17	3
3	46	2
116	116	3
0	0	4
68	107	1
56	93	1
130	131	1
113	113	7
8	8	1
125	125	3
30	30	2
123	123	11
67	67	4
95	96	2
31	36	1
92	92	2
128	128	4
97	98	3
79	79	3
68	119	1
65	65	4
86	122	1
86	87	2
102	109	1
46	46	5
63	64	1
79	80	2
57	58	2
1	1	1
128	131	1
101	102	1
69	69	5
25	25	1
7	7	4
29	30	1
83	83	3
22	22	3
66	66	5
127	129	1
106	106	4
116	117	1
2	11	2
64	64	4
115	115	1
18	19	1
120	120	4
64	76	1
46	47	2
49	50	1
106	127	2
95	95	2
9	10	1
33	33	4
125	126	2
33	59	1
107	108	2
126	128	3
129	130	3
116	129	1
47	47	6
56	57	2
61	61	4
28	28	2
41	41	2
77	77	4
2	2	3
102	103	1
24	25	1
121	127	1
100	100	4
27	27	2
72	72	4
16	16	3
3	3	3
32	32	5
118	119	1
34	36	1
35	35	3
36	45	1
62	118	1
110	111	2
104	121	1
81	81	2
35	36	1
112	114	1
61	62	1
107	113	1
101	103	1
74	74	4
18	30	2
38	62	2
66	71	1
29	29	2
87	87	5
12	13	1
26	26	3
17	18	2
121	121	2
85	118	1
132	132	2
110	133	1
115	128	1
27	47	1
15	16	2
83	85	2
115	129	1
91	93	2
73	74	3
111	111	7
117	126	2
113	114	1
123	124	2
75	77	1
6	7	3
11	12	1
34	38	1
99	99	6
59	85	2
85	122	1
110	116	1
20	21	1
38	38	1
92	93	1
124	124	4
107	116	1
96	97	2
98	98	1
58	60	1
128	130	1
8	15	2
12	14	1
77	78	2
23	26	1
64	65	1
88	88	2
44	46	1
2	3	1
117	117	2
111	116	1
107	121	1
108	111	1
56	56	4
89	90	1
131	132	1
112	112	3
23	23	2
107	107	3
113	117	1
81	120	1
51	55	1
63	63	4
131	131	3
24	85	1
119	120	1
76	77	1
79	83	1
4	4	4
97	99	1
3	63	1
78	116	1
57	90	1
134	134	6
24	24	2
100	101	1
114	116	1
99	115	1
50	82	1
90	91	1
114	117	1
43	48	1
17	43	1
16	17	1
128	132	1
120	123	1
29	50	2
108	109	3
34	35	1
109	110	1
97	111	1
32	35	1
90	90	1
31	32	1
20	22	2
114	129	1
101	101	3
3	93	1
78	79	1
0	68	1
117	118	1
91	91	1
40	40	1
19	20	2
12	16	1
31	31	1
14	15	2
87	89	2
34	47	1
121	123	1
55	55	1
104	106	1
15	15	2
18	34	1
4	9	1
114	114	1
35	45	1
59	112	1
5	6	1
60	60	1
129	129	1
4	5	1
103	106	1
102	124	1
112	113	1
19	19	1
54	55	1
68	69	1
130	133	1
93	93	1
85	107	1
86	95	1
75	76	1
6	41	1
79	81	1
39	41	1
116	126	1
32	43	1
99	100	1
38	39	1
103	104	1
82	83	1
84	84	1
7	14	1
