220	222	1
232	233	3
87	113	1
205	206	2
222	223	2
213	214	3
95	180	1
241	242	1
214	214	9
218	218	4
195	195	5
190	190	2
179	189	1
186	186	7
24	24	6
79	79	2
53	53	10
208	209	4
150	150	9
207	207	4
16	16	4
226	226	11
72	72	1
160	160	4
76	76	2
231	231	2
40	41	3
177	177	7
166	167	2
49	49	5
197	219	1
179	179	9
55	90	2
23	23	5
86	93	1
31	31	12
151	151	6
55	55	10
71	71	6
38	38	7
233	236	1
169	184	1
52	53	2
75	75	4
214	243	1
153	153	4
180	181	3
221	222	3
34	231	1
112	112	4
7	34	1
25	25	3
39	40	2
187	236	1
91	91	7
245	246	3
194	196	2
69	69	5
87	87	3
18	18	9
230	230	5
209	209	2
45	45	9
88	88	8
54	54	5
42	43	2
18	19	1
58	58	6
203	203	7
196	209	1
99	99	4
206	206	5
111	111	8
32	91	1
232	232	3
194	214	1
28	28	6
193	195	2
19	36	1
220	220	9
223	223	6
9	9	7
212	212	10
215	215	7
69	70	1
63	63	9
224	225	1
187	191	1
185	185	5
182	186	1
173	176	2
116	116	4
19	19	8
238	238	3
84	85	3
181	181	2
212	213	2
237	237	4
27	27	5
224	224	5
196	196	2
38	39	5
117	117	5
40	40	6
176	178	3
42	42	3
42	167	1
78	78	4
110	110	6
95	95	4
172	172	8
6	6	3
189	196	1
85	86	1
2	2	1
120	120	3
51	71	1
101	101	3
235	235	2
12	227	1
68	68	4
41	41	5
83	86	1
241	246	1
117	153	1
231	237	1
60	60	5
5	5	3
32	33	4
182	182	7
157	157	6
29	30	3
193	197	1
50	50	6
35	35	4
94	95	2
102	102	4
52	92	1
116	117	1
60	104	1
244	244	5
239	239	6
26	27	2
43	43	8
173	173	3
198	198	6
44	44	7
240	240	5
174	175	1
189	238	1
238	239	1
60	61	1
92	92	6
193	200	2
1	1	5
229	229	7
236	237	1
171	171	8
197	234	1
176	176	8
106	107	2
158	158	2
52	52	6
98	98	8
32	32	6
27	161	1
11	11	12
193	193	4
69	72	3
47	47	9
36	46	1
211	235	1
21	21	4
94	94	3
107	107	6
44	235	1
101	102	2
217	217	2
236	236	2
156	156	5
85	85	5
14	14	6
106	106	5
179	181	1
198	199	2
49	244	1
64	64	8
100	100	2
74	96	2
188	191	1
113	114	4
180	180	2
87	89	1
56	58	1
22	22	9
233	233	8
55	56	2
168	168	4
168	171	1
217	232	1
227	227	4
11	26	1
211	211	6
156	160	1
208	208	6
55	77	1
170	170	4
34	34	7
65	65	4
199	222	1
214	245	1
223	244	1
162	162	3
10	10	2
66	66	2
100	109	1
103	105	1
82	83	6
164	200	1
214	215	2
186	188	1
46	231	1
110	111	1
8	8	3
56	56	3
244	245	3
68	69	1
197	235	1
30	116	2
109	109	6
201	204	1
48	70	1
222	244	1
17	17	3
72	73	3
20	20	7
200	200	4
15	44	1
7	7	5
163	164	2
48	59	1
210	210	4
186	187	3
213	217	2
28	32	1
163	163	4
119	119	5
3	33	1
67	67	4
15	15	2
12	12	7
243	244	4
16	19	1
216	217	1
183	183	6
14	15	1
62	62	1
204	204	2
215	239	1
114	114	2
188	188	6
90	112	1
96	96	4
242	242	3
36	234	1
90	94	1
175	175	5
214	231	1
4	23	1
154	160	1
236	238	1
115	117	2
65	67	1
168	188	1
180	237	1
193	194	5
63	65	1
233	234	2
189	245	1
150	151	3
221	221	1
109	110	2
181	202	1
155	155	4
79	80	3
61	62	3
225	226	1
33	34	1
47	61	1
24	26	1
243	243	4
51	51	3
108	108	4
89	119	1
113	113	5
165	165	4
68	70	1
238	240	1
227	228	1
36	36	7
45	46	1
225	225	7
154	154	2
237	240	1
50	80	1
179	180	1
170	199	3
192	242	2
64	78	1
218	219	2
18	40	1
165	166	1
118	118	4
8	15	1
97	99	1
189	191	2
174	174	6
57	57	3
91	92	1
147	147	2
30	31	2
83	83	1
59	59	4
167	214	1
187	187	1
182	207	1
105	106	1
171	189	1
52	207	2
160	161	2
65	70	1
207	208	2
182	197	1
175	201	1
45	245	1
167	167	3
226	230	2
97	98	3
69	81	2
206	207	2
45	47	1
222	222	3
5	21	2
172	173	1
178	179	2
218	221	1
105	105	1
24	117	1
164	164	2
197	238	1
205	205	5
60	68	2
209	219	1
76	78	1
169	169	3
5	232	1
37	37	4
33	33	6
36	41	1
46	47	1
19	35	1
75	77	1
164	193	2
224	230	2
247	247	2
77	77	5
199	214	1
201	201	2
146	147	1
90	90	9
185	230	1
228	229	1
169	171	1
219	242	1
113	160	1
82	238	1
188	190	1
145	203	1
36	53	1
25	41	1
180	197	1
48	219	1
197	197	2
180	201	1
154	155	1
90	93	1
93	93	3
164	165	1
239	241	1
96	98	3
48	48	3
51	52	1
27	28	3
228	228	1
96	97	1
24	114	1
246	246	3
62	86	2
89	89	2
26	26	3
178	178	2
237	243	1
49	50	2
24	36	1
11	21	1
237	238	1
167	211	1
72	74	1
77	202	1
4	5	3
219	223	1
78	79	2
177	178	3
184	185	1
179	185	1
151	204	1
9	10	3
25	27	1
50	97	1
86	86	3
3	5	2
212	220	1
80	171	1
149	230	1
118	119	1
178	199	2
54	55	2
159	160	2
185	201	1
68	165	1
12	15	1
114	115	2
104	104	1
10	227	1
204	205	2
20	21	1
29	29	3
17	21	1
84	84	1
145	145	4
161	161	3
189	190	1
84	236	1
116	145	1
10	11	1
146	146	1
85	93	1
231	232	1
39	39	1
102	103	1
184	184	3
10	17	2
211	234	1
51	59	1
232	242	1
6	7	1
100	101	1
176	200	1
213	213	3
8	161	1
166	230	1
63	64	2
213	222	1
216	216	2
50	60	1
184	219	1
190	213	1
63	182	1
50	95	1
46	46	2
82	82	2
234	235	2
241	241	1
31	32	1
16	20	1
54	68	1
168	169	1
91	106	1
167	168	1
70	74	2
112	113	1
214	218	1
208	236	1
21	39	1
78	104	1
68	172	1
209	228	1
5	233	1
77	78	1
40	112	1
78	86	1
30	30	2
197	198	1
184	225	1
53	54	1
48	50	1
34	64	1
100	168	1
156	157	1
208	211	1
169	221	1
25	151	1
248	248	1
63	68	1
239	240	1
23	203	1
71	108	1
157	159	1
28	29	1
98	107	1
1	35	2
54	63	1
236	241	1
115	115	2
189	189	2
232	234	1
29	112	1
208	241	1
43	44	1
48	49	1
63	91	1
105	107	1
96	112	1
6	8	1
191	192	1
163	170	1
162	163	1
166	166	1
152	152	2
27	174	1
61	61	1
152	167	1
66	84	1
179	204	1
36	42	1
76	77	1
191	191	2
215	218	1
79	82	1
78	153	1
73	73	2
199	199	3
207	241	1
32	202	1
81	83	1
3	4	1
91	110	1
47	48	1
234	234	2
62	162	1
46	51	1
157	164	1
219	221	1
182	236	1
179	201	1
233	242	1
71	76	1
188	192	1
214	246	1
94	96	1
57	58	1
229	230	2
3	3	1
217	221	1
16	63	1
21	22	1
166	193	1
200	201	2
11	23	1
81	82	1
83	94	1
38	101	1
245	245	1
91	111	1
57	171	1
71	72	1
235	236	1
11	12	1
184	223	1
77	79	1
9	11	1
156	202	1
171	172	2
24	28	1
64	75	1
173	195	1
143	149	1
173	205	1
8	36	1
249	249	1
77	95	1
47	168	1
12	19	1
