67	68	1
89	96	1
175	176	3
128	147	2
71	71	3
159	162	4
131	162	1
113	113	2
56	57	2
118	118	2
153	163	1
130	130	3
15	27	1
123	124	2
9	24	1
108	108	4
22	22	1
127	149	1
158	158	2
152	152	1
93	93	3
130	131	2
5	5	2
145	146	2
146	146	2
9	9	7
6	6	5
112	133	1
110	115	1
111	112	2
122	126	1
22	26	1
55	55	3
8	9	3
11	11	1
3	4	1
21	22	1
142	142	3
72	72	5
177	178	2
4	5	1
128	128	3
89	89	2
37	38	1
110	129	1
28	28	3
101	101	2
79	79	3
140	140	1
29	29	1
97	97	4
163	163	3
88	101	1
8	23	1
108	112	2
167	167	2
163	168	1
14	14	3
155	155	1
91	91	1
79	80	1
53	53	1
109	147	1
142	166	1
127	127	3
116	118	2
143	144	1
118	119	1
139	139	2
74	74	1
148	148	4
31	31	3
123	123	2
66	67	1
43	43	3
34	34	2
67	67	2
7	10	1
136	136	2
53	54	3
174	174	1
2	2	3
95	95	1
45	45	2
159	160	1
180	180	3
4	18	1
68	68	1
75	75	2
121	157	1
138	138	4
36	36	3
125	133	2
95	96	1
160	160	2
18	18	2
64	64	3
120	157	3
122	122	1
1	1	1
104	105	1
120	121	1
59	59	1
106	106	1
81	81	1
93	94	1
149	153	1
60	60	2
131	131	2
103	115	1
56	56	2
112	112	1
32	33	1
26	26	2
116	116	2
139	142	1
94	94	1
154	154	1
2	33	1
78	78	3
7	9	1
119	161	1
38	38	3
91	107	1
157	157	1
83	84	1
132	132	2
164	167	1
170	171	1
86	86	1
178	179	1
141	149	1
165	165	2
119	119	3
41	41	2
20	20	1
73	74	1
106	107	1
5	24	1
121	121	3
80	80	3
104	106	1
42	42	1
131	142	2
91	102	1
62	90	1
51	51	1
97	100	1
66	66	1
62	63	1
173	173	1
57	57	1
52	52	2
109	134	1
144	178	2
44	44	2
7	7	2
109	109	2
22	24	1
175	175	2
58	84	1
99	99	1
133	134	1
78	137	1
12	12	2
114	115	1
88	88	2
35	35	5
135	135	4
103	135	1
84	84	1
161	161	3
2	15	1
21	21	1
118	135	1
38	67	1
59	66	1
168	168	1
44	49	1
16	29	1
133	133	1
107	108	2
114	119	1
166	167	1
100	100	1
89	98	1
169	169	1
73	73	2
115	116	1
38	39	1
96	96	2
129	129	3
105	105	3
166	166	2
178	178	1
161	162	1
10	32	1
123	126	1
76	76	3
135	136	1
102	102	1
92	92	1
13	17	1
162	163	1
0	0	1
125	125	1
88	96	1
138	139	1
59	60	1
127	129	1
173	174	1
90	90	1
25	45	1
149	158	1
162	162	1
124	124	2
82	88	1
113	114	1
157	158	1
9	31	1
70	115	2
146	148	1
9	132	1
139	140	1
145	145	1
104	104	2
164	166	1
168	169	3
80	81	1
30	31	1
115	115	1
8	8	1
10	10	1
82	82	1
5	6	2
4	23	1
122	124	1
39	39	1
171	172	1
35	40	1
4	4	1
179	179	1
104	108	1
72	76	1
81	82	1
120	120	1
