49	49	4
112	121	1
34	34	2
102	105	1
113	113	9
77	77	6
130	131	2
126	126	4
127	128	1
112	113	2
107	108	2
76	76	5
81	81	4
52	53	3
129	133	2
80	81	1
1	1	7
73	74	4
13	14	1
29	29	2
45	46	2
124	124	7
43	58	2
55	55	2
131	131	2
99	99	3
81	82	3
84	87	1
60	60	1
26	26	1
102	102	7
133	133	2
47	47	2
111	111	5
68	117	1
91	131	2
17	17	2
63	63	3
48	52	1
72	72	3
125	125	4
72	73	1
48	48	4
128	128	6
118	119	1
82	82	3
57	57	5
119	119	7
52	52	7
47	83	1
25	125	1
84	84	1
50	50	1
71	80	2
18	18	2
87	89	1
126	127	2
66	75	1
107	107	2
65	65	4
39	42	1
40	40	3
116	116	4
131	132	1
132	132	2
13	15	2
89	90	2
51	51	4
62	62	2
92	121	1
73	73	4
114	114	3
33	46	1
51	53	1
118	118	1
56	56	12
74	74	3
89	89	5
51	52	2
3	4	1
115	116	3
112	112	4
69	69	3
37	40	1
8	8	1
123	123	5
93	130	1
113	115	1
82	91	1
42	44	3
86	86	4
25	27	1
15	16	1
87	88	2
46	46	3
98	98	1
11	12	1
102	125	2
121	121	3
31	31	2
31	56	1
105	105	3
63	88	2
42	116	1
100	100	3
109	111	1
28	29	1
104	104	3
130	130	1
70	71	1
50	52	1
75	75	1
14	14	1
82	84	2
68	68	2
52	94	1
109	109	2
120	120	2
94	109	1
101	103	3
83	84	2
117	117	3
41	44	1
33	33	4
115	115	1
42	62	1
106	132	1
113	116	1
102	128	1
1	2	1
69	76	1
110	111	1
97	101	1
67	67	2
28	28	1
83	83	4
48	60	1
69	72	2
58	58	4
58	60	1
125	130	1
96	97	1
76	93	1
70	70	5
3	6	1
95	96	2
31	32	1
32	32	1
71	98	1
90	115	1
3	3	2
78	78	1
113	120	2
5	5	3
11	11	1
96	96	1
101	101	1
105	106	1
54	54	4
98	103	1
23	24	1
19	19	2
56	57	1
25	106	1
121	122	2
76	80	1
64	65	1
94	94	3
93	95	1
7	7	2
79	79	2
80	80	1
95	95	4
23	23	1
91	91	1
59	59	3
110	110	3
97	97	1
88	88	3
27	27	2
117	119	2
58	62	2
127	127	1
30	32	1
5	48	1
61	62	1
15	15	1
67	68	1
32	33	1
106	115	1
109	112	1
40	41	1
108	108	3
58	59	1
16	16	3
106	106	4
93	93	3
93	94	1
114	115	1
122	122	1
71	92	1
119	130	1
53	111	1
60	61	3
25	25	1
46	47	3
62	63	2
54	108	1
47	110	1
6	25	1
129	129	2
114	116	1
89	95	1
53	53	2
66	66	2
116	117	1
48	63	1
33	43	1
90	91	1
39	39	1
38	39	1
85	89	1
115	117	2
39	40	1
0	0	1
29	30	1
7	32	1
22	23	1
10	11	1
34	47	1
5	49	1
54	122	1
99	100	2
75	89	1
46	57	1
98	129	1
9	9	1
15	17	1
1	25	1
122	133	1
96	105	1
78	83	1
65	122	1
71	72	1
30	30	1
86	87	1
85	86	1
119	120	1
125	129	1
10	10	2
100	101	1
92	92	1
104	106	1
97	98	1
96	98	1
94	97	1
67	75	1
95	121	1
76	91	1
76	79	1
111	112	1
103	103	1
2	2	1
10	71	1
86	88	1
79	82	1
37	38	1
4	5	1
58	68	1
32	40	1
47	48	1
74	78	1
