25	25	2
163	163	2
7	7	5
50	51	1
168	168	2
167	167	4
22	22	6
137	155	2
89	89	2
152	153	1
56	56	7
97	100	1
26	26	1
44	45	3
18	18	2
93	95	1
42	42	1
33	33	2
8	9	2
146	165	1
81	81	1
40	40	1
92	92	1
161	161	3
77	77	2
136	137	2
162	162	4
11	11	5
91	96	1
128	129	2
16	16	2
129	153	1
15	15	2
158	158	3
72	72	3
10	21	1
34	34	3
150	150	5
80	80	1
0	0	3
109	109	5
113	114	1
14	14	2
85	85	2
169	170	2
131	151	1
155	156	1
3	4	2
4	170	1
83	83	3
25	26	1
112	112	2
161	162	1
53	54	2
156	156	4
129	130	1
161	164	1
7	140	2
13	13	3
149	149	2
65	65	2
70	70	1
89	111	1
155	161	1
100	102	1
114	114	3
75	75	1
117	157	1
38	38	4
91	91	3
62	63	2
46	51	1
153	153	2
53	55	2
145	163	3
116	117	2
74	90	1
84	84	1
117	117	1
88	88	3
47	47	2
138	150	1
93	93	1
19	19	3
39	136	1
20	20	5
160	160	5
36	36	1
157	157	5
136	136	4
46	69	2
139	144	1
140	140	1
101	120	1
147	147	6
53	99	1
155	155	2
107	108	2
164	165	1
27	27	4
90	91	1
38	39	1
134	134	2
153	154	1
107	107	3
46	46	4
99	100	1
127	128	2
118	118	2
164	166	1
104	118	2
12	12	5
73	73	2
133	133	4
9	9	2
129	149	1
34	137	1
105	105	1
127	127	3
57	57	5
110	110	3
146	150	1
126	133	2
140	141	1
43	43	2
17	17	2
67	67	1
98	99	1
42	109	1
94	94	2
36	37	2
135	135	1
97	117	1
79	81	2
39	149	1
27	28	1
45	168	1
110	111	1
162	164	1
61	62	1
155	157	1
24	24	3
128	128	1
101	101	3
97	97	3
114	115	1
100	101	1
165	165	2
45	45	2
108	109	1
35	35	5
6	6	2
36	41	1
13	105	1
19	51	1
170	170	2
68	68	1
41	42	1
49	50	2
123	123	2
146	146	1
10	10	1
151	151	2
138	138	1
152	164	1
79	80	2
65	82	1
58	100	1
131	131	3
127	152	1
130	130	2
143	143	2
102	132	1
12	13	1
136	154	1
141	141	1
139	140	2
37	37	5
100	100	4
83	85	1
125	125	1
116	116	2
68	69	1
126	126	1
152	152	2
51	51	4
77	78	2
78	78	1
49	49	3
162	166	1
156	158	1
8	8	1
106	106	2
154	154	2
119	120	1
130	131	1
64	64	1
132	134	2
74	74	1
148	148	1
110	135	1
85	87	1
89	108	1
39	39	1
108	108	1
94	95	1
22	24	1
93	97	1
79	82	1
61	82	1
167	168	1
145	154	1
99	99	2
42	45	1
119	119	1
82	82	1
111	111	1
42	43	1
159	161	1
158	161	1
4	28	1
41	41	1
90	90	1
71	71	1
5	5	1
20	125	1
109	110	1
14	16	1
81	82	1
159	167	1
14	15	2
17	18	1
84	85	1
35	150	1
166	166	1
52	53	1
98	133	1
56	67	1
146	162	1
36	150	1
49	56	1
5	6	1
101	119	1
51	52	1
23	23	1
127	132	1
10	20	1
124	124	1
144	144	1
77	81	1
101	125	1
75	76	1
