75	76	2
86	86	2
99	99	2
91	91	11
41	42	1
101	103	1
97	103	1
62	78	2
47	59	1
41	41	4
59	59	2
44	77	1
25	25	11
111	111	5
82	83	1
32	32	4
98	98	8
24	24	5
88	88	1
56	56	2
68	69	1
56	58	2
82	95	1
25	108	1
109	109	4
54	58	2
91	93	5
21	21	3
83	95	1
50	67	1
47	48	1
108	108	5
81	91	5
94	94	2
64	64	2
106	107	1
103	103	3
61	67	1
59	78	1
102	102	3
106	106	1
93	93	10
92	92	8
34	35	1
35	35	3
71	71	2
48	49	1
114	115	1
33	33	7
42	42	5
58	59	1
83	96	1
79	79	2
85	87	1
76	77	3
104	105	2
85	89	2
81	92	2
75	75	3
86	93	1
45	47	1
70	70	1
104	104	2
91	92	9
36	36	4
54	79	1
79	101	1
89	92	1
81	85	1
90	93	2
42	51	1
89	89	1
66	66	3
28	95	1
30	30	10
61	98	1
45	45	3
69	94	2
95	95	7
52	52	2
39	39	4
67	67	2
69	98	1
82	85	2
62	65	1
105	108	1
95	111	1
72	72	1
101	102	5
80	80	3
90	91	5
90	90	14
23	23	2
28	29	1
62	62	2
24	25	1
111	112	1
89	91	2
34	34	5
22	31	1
107	107	2
86	101	2
84	84	3
101	101	2
46	46	2
96	97	3
57	57	1
34	36	2
101	113	1
76	76	1
113	114	1
48	73	1
86	90	1
112	112	1
28	28	2
33	52	1
103	110	1
69	69	3
87	87	1
96	96	7
113	113	3
31	47	2
100	100	5
78	78	2
42	111	3
51	51	3
81	90	2
108	111	1
81	81	5
90	92	2
47	51	1
47	47	3
32	36	1
25	26	1
108	110	2
79	97	1
72	85	1
109	111	1
19	19	2
54	55	5
79	80	1
49	50	1
27	27	3
38	61	2
42	50	1
50	51	1
38	40	1
63	69	1
70	71	3
92	93	1
93	94	3
20	21	1
23	32	1
48	48	4
49	82	1
50	50	2
46	47	1
61	64	3
83	84	1
38	38	3
82	84	2
56	57	1
37	72	1
62	63	1
30	50	1
114	114	1
63	65	1
104	107	1
52	96	2
53	53	1
34	39	1
81	93	1
40	40	1
74	74	3
32	37	1
44	44	2
53	54	1
95	96	2
95	98	1
77	96	2
109	110	1
81	94	1
67	68	2
102	103	1
39	40	1
110	110	7
37	38	1
22	22	2
84	86	1
22	23	1
73	76	1
61	61	1
105	106	2
45	77	1
59	60	1
104	110	1
69	83	2
62	66	1
45	75	1
26	26	2
36	37	1
77	77	1
60	60	2
85	85	1
63	66	1
21	92	1
38	39	1
27	114	1
74	78	1
77	89	1
58	58	1
93	95	1
55	55	2
99	114	1
20	20	1
36	38	1
52	97	1
26	27	1
43	64	1
76	78	1
82	82	3
35	36	1
88	102	1
65	66	1
68	68	2
63	87	1
63	70	1
42	48	1
78	83	1
65	69	1
74	75	1
51	52	1
72	73	1
46	101	1
30	31	1
43	43	1
79	86	1
69	70	1
92	94	1
43	100	1
31	36	1
67	78	1
36	39	1
81	82	1
55	56	1
102	105	1
61	62	1
87	99	1
88	95	1
