186	186	3
136	137	1
97	136	2
28	28	1
134	134	1
28	170	2
155	156	1
173	173	2
51	51	1
52	52	3
42	43	1
14	14	3
13	13	2
194	194	7
54	54	2
157	157	3
114	114	2
195	196	1
189	190	4
44	44	2
4	6	2
4	4	3
147	148	2
127	127	1
29	29	2
140	141	2
3	3	1
31	31	2
108	109	2
57	57	1
160	160	1
1	1	2
32	153	1
32	34	1
169	182	1
18	18	4
33	52	1
38	38	5
96	96	2
40	40	2
193	193	1
162	162	1
151	152	3
5	5	1
135	135	7
20	20	3
2	3	2
14	15	1
14	69	1
139	139	1
195	195	1
11	11	2
98	98	1
45	45	3
48	48	1
126	127	3
177	177	1
72	72	1
53	53	2
168	168	1
144	145	2
167	167	1
16	16	5
107	107	2
173	174	1
7	8	1
121	121	1
98	111	1
142	142	4
12	15	1
196	196	1
66	66	1
125	125	2
155	155	1
185	185	2
141	141	2
6	8	1
39	39	3
146	146	1
47	47	4
157	158	1
71	192	1
32	169	1
121	127	1
56	84	1
180	181	1
102	103	2
153	158	3
61	70	1
27	27	3
34	35	1
46	46	5
172	172	4
128	128	1
165	165	2
128	134	1
89	90	1
24	71	1
185	186	1
105	107	1
108	108	1
117	118	2
172	174	2
11	14	1
2	2	1
160	182	2
99	101	2
19	19	1
69	69	1
56	56	1
22	24	1
109	110	1
86	86	4
72	82	1
136	136	1
168	176	1
36	36	4
44	122	1
109	109	1
172	178	1
152	152	1
37	37	3
123	124	1
169	170	1
68	68	4
43	44	1
29	30	1
3	9	1
24	48	1
55	57	1
167	185	1
35	35	1
32	32	1
170	184	2
161	161	1
7	26	2
26	27	1
99	99	1
178	179	1
8	8	3
104	104	1
37	38	1
29	31	1
116	116	1
30	31	1
101	101	1
10	10	3
187	187	3
133	133	1
111	112	1
5	8	1
166	166	1
6	6	1
122	122	1
145	145	1
33	33	2
107	108	1
46	57	1
24	24	4
190	190	2
12	12	2
111	111	1
150	150	2
103	103	1
46	47	1
42	42	2
22	23	1
23	23	1
21	21	1
9	9	1
110	110	1
11	16	2
31	32	1
97	97	1
128	136	1
129	130	2
81	81	2
189	191	1
28	30	1
15	15	1
43	43	2
84	96	1
84	84	1
9	10	2
62	62	1
8	175	1
179	187	1
16	17	3
40	65	1
156	157	1
25	25	1
98	99	1
0	0	1
167	177	1
20	21	2
187	188	2
140	140	1
40	90	1
4	19	1
11	12	1
28	32	1
76	78	1
99	193	1
176	177	1
174	174	1
18	19	1
138	138	1
184	185	1
147	147	1
127	170	1
36	37	1
183	183	1
182	182	1
28	29	1
151	168	1
197	197	1
94	94	1
50	50	2
179	182	1
154	154	1
95	97	1
128	129	1
12	13	1
179	179	1
164	166	1
45	51	1
98	110	1
95	96	1
178	178	2
74	74	1
166	185	1
48	126	1
10	43	1
128	155	1
70	70	1
5	7	1
0	15	1
127	128	1
164	164	2
35	36	1
171	171	1
170	172	1
63	68	1
159	159	1
16	70	1
189	189	1
167	181	1
50	58	1
160	161	1
3	15	1
10	14	1
95	95	1
15	44	1
103	104	1
155	159	1
