177	177	1
50	50	7
186	186	7
195	195	3
79	79	3
40	41	3
25	25	3
175	176	1
131	191	1
18	18	1
40	40	2
48	48	4
9	9	13
84	84	5
93	154	1
147	147	3
43	43	6
98	98	3
73	73	3
4	39	1
33	33	5
17	25	2
171	171	1
45	45	6
177	187	2
10	14	3
103	103	3
77	81	1
127	127	5
193	193	4
4	5	1
10	10	6
38	39	3
196	197	3
88	88	4
126	126	1
49	50	2
132	133	1
110	110	1
74	74	1
125	125	2
16	17	1
88	139	1
0	7	1
108	111	1
35	35	6
138	138	2
111	111	3
136	137	1
94	108	1
42	42	3
37	57	1
124	124	2
4	4	1
77	77	1
46	46	3
187	187	3
57	57	5
19	19	6
143	143	6
196	196	6
52	52	3
191	192	1
167	167	2
99	139	1
116	117	1
173	174	1
136	151	1
170	170	3
154	173	1
23	24	2
187	188	2
107	108	2
96	96	1
193	194	2
144	144	3
148	162	1
140	140	3
56	56	3
16	16	4
154	155	2
51	139	1
24	77	1
26	27	1
62	65	1
41	41	4
109	109	2
2	2	2
183	184	1
137	138	1
5	5	5
130	132	1
1	2	4
176	178	1
96	109	2
142	142	4
126	127	2
18	19	2
1	1	2
146	146	3
49	129	1
37	82	1
190	190	3
133	133	3
171	172	1
34	36	2
158	163	1
8	8	2
3	3	3
180	189	1
113	114	1
156	171	1
181	185	1
101	101	2
34	34	3
65	65	2
153	154	1
29	29	3
26	26	1
12	12	4
100	137	1
82	82	1
36	48	1
194	194	7
22	23	5
63	63	2
107	107	1
39	39	2
112	112	2
5	6	1
81	81	1
38	38	2
47	47	4
74	78	1
189	189	1
14	46	2
39	40	1
14	14	4
73	112	2
197	197	1
37	41	1
165	167	1
14	57	1
0	0	1
94	96	1
156	156	3
153	153	1
173	193	2
44	44	1
178	179	1
83	83	2
123	123	2
176	176	3
23	26	2
178	178	3
7	8	1
128	129	1
30	68	1
15	15	5
150	150	2
18	25	1
185	186	1
152	152	4
8	9	1
49	51	1
86	87	2
87	88	2
115	123	1
7	7	1
10	12	1
123	131	1
181	181	2
22	22	7
25	26	1
22	26	1
37	37	2
13	13	5
51	51	2
164	165	1
168	168	1
114	123	1
115	115	3
135	135	1
182	182	2
11	183	1
68	68	2
13	56	1
39	192	1
134	134	3
134	163	1
155	156	1
170	171	2
86	86	1
6	41	2
12	13	2
182	185	1
148	148	3
5	19	1
67	68	1
17	17	3
160	160	1
13	46	2
106	106	1
136	136	4
33	34	1
72	72	6
150	185	1
6	7	1
170	172	1
128	128	3
100	100	1
23	23	1
154	174	1
53	167	1
41	42	3
20	20	1
97	148	1
151	151	3
9	14	1
166	167	2
157	157	2
113	127	1
109	110	4
5	8	1
19	39	1
100	124	1
32	32	3
76	76	2
16	37	1
21	21	1
93	93	2
71	71	1
172	172	1
155	155	4
179	180	1
161	163	1
24	26	1
119	119	3
39	41	1
122	122	1
183	183	3
106	118	1
36	36	2
70	70	1
97	97	2
118	118	3
101	106	1
26	30	1
71	72	1
168	180	2
111	113	1
33	53	1
61	70	1
61	61	1
156	157	1
62	62	1
62	87	1
122	153	1
53	53	2
194	195	1
37	40	2
25	32	1
159	160	1
192	192	2
143	146	1
191	191	1
61	74	1
108	108	2
55	55	1
154	154	2
157	160	1
11	42	1
145	190	1
42	43	1
180	180	2
56	61	1
121	121	2
161	161	1
99	116	1
143	144	2
21	23	1
27	29	1
130	130	1
113	113	1
141	141	1
147	148	1
161	162	1
20	47	1
14	39	1
64	64	1
153	182	1
20	46	1
30	31	1
173	173	1
11	11	1
28	36	1
24	47	1
54	54	1
28	28	1
184	184	1
119	124	1
145	153	1
75	158	1
116	116	1
47	48	2
178	185	1
106	107	1
179	179	1
175	175	1
28	76	1
67	78	1
29	33	1
13	14	1
112	132	1
14	15	1
89	89	1
53	139	1
159	159	1
99	99	1
49	49	1
150	151	1
