170	170	3
72	128	1
12	12	2
23	23	3
10	10	9
9	11	2
112	113	1
15	16	2
160	160	2
66	76	2
14	14	5
13	13	5
83	83	4
113	169	1
76	76	1
137	137	1
59	123	2
55	55	2
95	99	2
142	142	7
9	49	1
35	35	3
46	46	2
192	193	1
139	142	1
47	52	1
194	194	2
186	187	1
150	150	1
11	13	2
2	5	2
148	148	1
18	21	1
2	19	1
26	26	4
17	17	7
6	7	1
18	19	1
137	138	1
1	1	4
33	33	6
82	83	3
42	101	1
86	102	2
139	139	5
46	52	1
22	23	2
57	58	1
149	149	2
165	165	5
172	172	3
1	2	2
38	39	1
50	53	1
100	100	2
121	122	4
136	136	4
81	81	1
158	159	2
102	106	1
33	52	1
142	169	1
146	146	2
113	113	1
162	163	1
134	134	4
118	118	3
180	181	1
33	65	1
22	29	3
126	126	2
0	2	1
160	189	2
93	107	1
192	192	1
177	178	1
167	186	1
65	74	1
167	173	1
197	197	2
55	63	3
178	178	3
43	43	4
19	19	1
53	138	1
87	87	3
176	176	3
98	98	3
27	27	3
44	44	9
128	128	5
144	175	1
186	186	4
133	171	1
123	123	5
140	180	1
12	185	2
25	25	6
22	22	5
152	152	1
190	193	1
193	194	1
72	72	2
157	157	2
34	34	1
161	161	2
122	122	4
52	52	5
24	25	3
173	173	1
10	40	1
37	60	1
11	25	1
136	137	1
102	102	2
89	89	1
109	109	2
107	148	1
0	3	1
184	184	1
179	180	1
30	30	3
152	175	1
107	108	1
42	42	4
25	106	2
68	68	1
2	6	1
11	11	5
196	196	4
18	23	1
193	193	3
37	37	1
39	44	1
58	58	3
31	32	1
45	45	7
146	147	1
115	119	1
99	99	5
0	0	2
17	20	2
39	41	2
47	58	1
133	133	4
144	144	1
117	167	1
177	177	1
40	42	1
180	180	2
8	19	1
1	6	2
111	111	2
3	3	3
15	15	5
44	127	1
2	25	1
175	175	2
121	121	2
65	65	3
40	41	3
124	125	2
16	16	1
61	61	1
56	56	2
176	178	1
100	112	1
6	8	1
156	156	4
53	61	1
168	173	1
9	9	6
48	48	2
41	41	2
65	80	1
7	36	1
151	151	2
138	183	1
47	47	1
5	5	4
18	29	1
54	55	3
20	39	1
32	39	2
94	94	2
145	148	2
69	69	3
88	90	1
8	8	1
20	21	1
116	166	1
31	31	1
81	82	1
71	71	4
28	30	4
41	42	2
28	28	5
39	39	1
66	87	1
114	118	1
130	130	7
101	141	1
145	145	1
102	103	1
106	106	2
190	190	2
73	94	2
100	121	1
44	46	2
103	104	1
52	57	1
171	182	1
120	120	3
161	188	1
152	155	1
88	88	1
63	63	2
21	22	1
142	157	1
172	173	1
9	10	1
73	74	2
86	93	1
121	185	1
44	45	1
86	86	1
24	24	1
73	73	1
159	160	2
34	149	1
4	4	2
188	188	1
135	135	1
8	10	1
9	45	1
64	107	1
174	174	2
110	110	2
60	60	2
127	142	1
64	138	1
78	78	1
50	72	1
178	187	1
104	104	1
57	57	2
8	9	1
159	159	2
2	2	3
151	155	1
54	62	1
101	107	1
138	140	1
125	125	1
20	20	4
172	182	1
195	197	1
5	15	1
149	178	1
47	127	1
38	38	1
90	90	1
181	182	1
20	24	1
7	7	2
141	141	3
22	26	1
63	123	1
84	85	1
143	143	1
141	142	1
21	21	2
163	166	1
183	183	2
37	64	1
54	54	2
176	187	1
22	24	1
174	176	1
6	6	2
18	24	1
48	49	1
53	125	1
3	4	1
145	146	1
10	11	2
136	138	2
66	66	1
167	168	2
138	138	1
75	99	1
107	107	2
190	191	1
191	191	1
147	147	1
64	64	2
9	13	2
34	35	1
29	35	1
105	144	1
28	29	1
169	169	2
7	22	1
173	174	1
165	188	1
95	95	2
108	108	1
115	115	1
32	44	2
131	131	1
11	12	1
70	73	1
19	21	1
179	179	1
45	46	1
168	169	1
60	63	1
125	129	1
119	147	1
11	29	1
34	36	1
112	112	1
38	47	1
23	72	1
182	182	1
110	111	1
16	166	1
46	47	1
135	137	2
119	119	1
138	141	1
124	170	1
165	171	1
94	97	1
0	7	1
164	164	2
142	143	3
114	114	1
150	151	1
144	145	1
8	18	1
122	123	1
23	175	1
4	23	1
116	116	1
188	190	1
43	44	1
153	153	1
116	121	1
182	184	1
40	40	1
107	110	1
11	32	1
65	67	1
32	32	1
79	80	1
147	150	1
39	42	1
83	85	1
49	125	1
14	52	1
155	155	1
8	86	1
165	179	1
12	24	1
29	29	1
49	49	1
99	107	1
185	185	1
78	79	1
134	135	1
152	153	1
4	16	1
123	143	1
132	138	1
70	71	1
7	33	1
79	79	1
119	121	1
41	57	1
95	105	1
5	6	1
64	66	1
140	140	1
3	31	1
90	98	1
163	165	1
17	32	1
17	18	1
