10	10	2
9	40	1
46	94	1
41	42	1
40	40	4
127	127	2
31	31	1
169	171	2
57	57	5
175	184	1
80	80	2
53	54	2
16	17	1
167	168	2
45	71	1
172	172	2
72	73	3
7	7	3
93	94	1
152	152	2
27	28	1
156	159	1
183	186	2
85	85	3
37	37	2
78	78	3
184	184	2
148	148	2
176	177	1
11	11	1
174	174	4
115	120	1
96	96	3
48	48	1
8	8	1
94	94	2
6	6	3
76	76	2
12	12	5
136	136	2
153	153	1
107	108	3
136	137	1
139	139	3
77	77	3
179	179	3
2	109	1
41	127	2
163	186	1
31	32	2
139	162	1
176	176	2
57	83	1
4	4	1
30	31	1
103	103	1
170	186	1
166	166	1
117	118	1
181	181	1
100	100	1
185	185	2
9	26	1
114	174	2
70	70	3
170	170	3
109	142	1
65	68	1
178	179	1
39	39	2
154	154	2
168	170	1
134	134	2
138	138	1
138	164	1
90	90	3
122	122	3
124	125	1
83	83	3
26	32	1
172	173	1
123	124	1
121	121	1
82	82	1
39	85	1
54	55	1
149	176	1
55	55	1
23	24	1
156	156	1
109	110	1
81	81	2
116	154	1
3	3	2
101	101	1
107	112	1
106	119	1
175	175	1
13	15	1
27	27	1
104	106	1
153	154	1
83	84	1
124	124	3
14	22	1
108	108	3
66	67	2
188	188	3
144	147	2
58	58	2
105	105	1
157	159	2
110	110	4
45	99	1
1	1	1
13	13	1
36	36	1
22	22	1
112	112	2
26	47	1
82	83	2
26	26	1
147	147	3
146	157	1
151	151	1
24	24	3
39	40	2
130	130	2
41	150	1
67	67	3
41	88	1
102	107	1
160	160	1
86	86	1
129	130	1
102	102	1
145	179	1
127	129	1
128	128	2
159	187	1
61	62	1
164	189	1
79	81	1
129	147	1
47	47	1
165	165	2
126	126	1
129	129	2
35	36	1
97	97	1
29	30	1
143	143	2
73	86	1
16	16	1
178	180	1
144	186	1
38	38	1
142	142	1
76	126	1
126	128	1
178	178	1
72	72	1
63	63	4
184	186	1
60	64	1
157	165	1
73	73	2
136	138	1
22	24	1
144	144	1
9	112	1
84	84	1
188	189	2
146	146	3
148	157	1
105	121	1
18	18	1
158	158	1
95	99	1
155	165	1
154	155	2
140	153	1
121	122	1
172	181	1
63	65	1
17	17	2
182	182	1
107	121	1
74	74	2
53	53	1
156	157	1
72	117	1
96	101	1
38	39	2
49	49	1
100	101	1
6	109	1
106	113	1
79	79	1
108	136	1
114	116	1
131	132	1
190	190	1
142	150	2
141	141	1
21	46	1
163	163	1
42	150	1
82	84	1
41	41	1
180	182	1
112	125	1
114	115	1
114	114	1
119	122	1
162	162	1
125	125	1
57	61	1
113	114	1
19	107	1
175	176	1
67	68	1
35	49	1
187	187	1
70	99	1
42	42	1
71	71	1
120	123	1
142	174	1
56	73	1
46	46	1
134	153	1
19	19	1
111	111	1
5	5	1
28	32	1
88	89	1
169	169	1
56	56	1
78	99	1
104	104	1
