74	114	1
77	95	1
123	123	3
39	40	1
24	24	3
94	102	1
65	65	5
4	4	1
32	32	1
20	20	5
42	42	2
63	63	3
101	101	4
107	107	1
128	129	1
62	64	1
18	18	4
45	45	5
76	77	3
116	117	2
24	27	1
79	80	4
41	79	1
8	8	4
30	30	4
115	115	4
12	13	2
2	63	2
112	112	3
126	129	2
91	92	2
110	110	2
28	28	1
37	37	3
35	36	2
120	120	5
15	16	2
117	117	3
17	17	6
85	85	1
84	127	1
36	48	2
78	93	1
66	66	1
100	100	2
14	15	1
9	9	2
58	58	3
70	71	1
68	68	3
114	116	1
132	133	2
15	15	1
124	134	1
90	90	2
39	39	2
130	130	4
117	118	1
131	132	1
46	46	2
82	82	2
124	124	3
34	45	1
40	40	2
37	39	1
126	130	1
26	26	2
17	18	1
105	107	1
21	21	2
70	70	3
134	134	5
0	0	2
80	81	1
126	126	2
35	35	1
7	8	2
10	15	1
30	32	1
27	37	1
107	108	1
13	13	1
96	102	2
66	111	2
131	131	4
27	28	1
113	113	1
97	97	3
55	55	1
1	92	2
56	56	2
6	6	3
69	70	5
31	31	3
45	46	2
1	1	2
37	38	3
81	82	1
105	106	1
60	60	1
33	43	1
77	77	1
118	118	2
69	69	2
132	132	6
29	30	1
126	127	1
64	64	1
70	94	1
34	34	2
49	49	1
80	80	2
72	107	2
19	19	2
61	62	1
77	93	1
75	76	1
15	23	1
113	117	3
15	24	1
16	16	1
75	75	1
121	121	1
65	70	1
41	43	1
97	99	1
97	98	1
82	95	1
41	41	1
32	33	1
86	133	1
133	133	1
83	92	1
29	29	2
21	22	1
1	58	2
41	64	1
103	103	1
47	77	1
5	6	1
84	85	1
59	59	1
26	92	2
83	84	1
5	5	2
41	42	1
1	2	1
106	106	1
5	35	1
103	131	1
72	72	1
69	125	1
83	96	1
25	26	1
49	56	1
10	10	1
44	45	1
119	119	1
89	90	1
83	90	1
95	100	1
19	32	1
121	126	1
82	96	1
61	74	2
50	50	1
72	73	1
3	63	1
67	67	1
57	93	1
102	102	2
2	62	1
74	94	1
109	129	1
111	111	1
98	98	1
105	105	1
127	127	3
27	33	1
44	44	2
47	115	1
82	99	1
22	22	2
11	29	1
38	38	2
71	77	1
57	57	1
125	133	1
11	11	1
3	3	1
104	104	1
114	114	2
125	126	1
131	133	1
76	76	1
2	2	1
110	124	1
37	41	1
10	11	1
92	93	1
37	40	1
57	58	1
32	63	1
47	47	1
108	123	1
23	24	1
28	36	1
34	47	1
125	125	1
43	44	1
95	95	1
31	32	1
7	25	1
25	27	1
51	51	1
13	47	1
94	95	1
78	82	1
70	72	1
104	106	1
103	104	1
2	3	1
18	33	1
48	48	1
12	15	1
129	129	1
45	117	1
