27	27	1
123	123	11
37	37	8
131	131	6
120	122	1
87	87	2
7	7	2
129	129	5
80	80	2
105	105	2
102	102	5
109	109	5
34	34	5
104	106	2
88	89	1
132	132	4
120	120	1
72	72	2
133	133	14
77	78	1
119	119	3
16	16	2
125	125	5
117	118	3
95	95	6
138	138	9
124	124	6
1	1	1
86	86	2
82	84	2
100	101	4
88	88	4
36	36	3
108	112	1
72	100	1
135	136	2
90	90	2
79	114	2
135	135	5
131	134	1
101	102	2
140	140	8
71	71	3
5	6	1
66	75	1
117	117	5
119	123	1
2	2	4
11	11	3
138	139	2
135	140	1
121	121	5
98	98	10
81	81	2
100	100	8
127	127	4
15	16	2
35	35	3
99	99	2
72	77	1
111	113	2
101	101	12
113	118	1
110	110	5
118	118	3
20	20	1
82	82	4
94	94	3
91	124	1
115	115	2
134	134	5
110	111	3
33	33	4
26	32	1
127	136	1
139	139	7
137	137	6
37	38	1
128	128	3
100	125	1
96	96	3
115	116	1
116	116	6
127	128	1
106	109	1
100	114	2
16	17	4
7	8	1
75	76	2
129	130	2
109	110	1
118	119	2
73	81	1
105	106	2
38	38	3
91	91	2
84	84	2
108	111	1
71	72	1
78	78	2
94	132	1
96	98	1
122	122	4
132	139	1
74	74	1
111	111	1
133	137	1
123	125	1
73	73	3
82	90	2
77	82	1
114	124	1
103	103	6
83	83	2
93	128	1
73	74	2
136	138	2
125	128	1
97	97	2
18	19	1
96	127	1
94	100	2
19	20	1
76	79	1
106	106	1
81	91	1
127	133	1
3	5	1
114	114	5
36	37	1
4	5	1
73	116	1
121	122	3
112	112	4
85	85	1
123	124	1
38	123	1
107	107	2
4	4	3
92	92	2
1	3	1
124	125	1
123	132	1
126	126	3
18	18	2
12	12	1
93	94	2
102	103	1
11	14	1
114	115	1
14	14	1
113	117	1
5	5	1
94	115	1
34	35	2
86	100	1
75	114	1
89	89	1
33	35	1
19	19	1
104	104	2
95	123	1
89	90	1
79	79	2
17	17	1
136	136	2
96	100	1
127	130	1
116	124	1
113	113	2
6	7	1
76	80	1
98	101	2
95	96	1
77	77	1
79	98	1
92	96	1
80	94	1
125	126	1
101	126	1
117	119	1
17	18	1
112	114	1
83	106	1
9	10	1
136	137	1
98	127	1
102	122	1
7	9	1
127	131	1
112	117	1
128	129	1
111	124	1
37	95	1
9	9	1
97	124	1
98	99	1
139	140	1
