220	220	9
176	176	8
227	228	1
106	106	3
163	163	6
199	199	6
200	204	1
235	235	12
56	56	8
52	52	5
62	62	6
218	218	6
152	152	6
183	183	11
37	37	12
170	170	5
211	211	11
116	116	4
203	227	2
44	48	1
156	214	1
178	205	1
117	117	9
74	74	7
27	27	13
225	227	4
177	177	7
21	21	13
153	153	5
62	68	1
198	209	2
233	234	8
54	54	11
168	168	11
166	168	1
11	11	17
192	212	1
230	230	9
34	34	4
214	240	1
46	46	7
100	101	2
192	223	1
80	98	3
2	2	6
18	18	9
3	5	2
187	190	2
63	63	5
25	25	4
69	69	3
88	94	2
91	115	1
197	197	12
18	19	7
203	203	10
108	110	1
167	168	4
229	229	6
79	86	1
52	53	3
208	208	10
64	75	2
238	239	4
30	30	8
84	84	5
45	45	8
85	94	2
157	158	2
237	239	4
241	241	18
14	15	4
48	49	2
23	23	14
204	204	9
149	149	3
179	179	6
187	188	1
98	98	3
184	184	7
165	165	4
246	246	5
101	101	6
40	40	7
183	184	1
27	31	1
231	232	1
2	6	1
209	209	12
226	226	11
9	24	1
217	217	5
17	17	8
48	48	8
31	31	13
231	231	9
236	236	4
225	225	12
227	227	13
47	49	1
32	32	10
162	184	1
7	26	1
234	234	9
204	206	1
201	201	12
151	151	8
208	209	3
189	189	4
20	21	4
110	113	1
174	198	1
39	39	10
26	26	7
225	237	2
4	5	3
82	83	1
173	173	9
19	19	11
175	176	1
178	183	1
64	65	2
31	182	1
110	110	10
199	205	1
1	1	5
205	206	2
100	100	7
199	200	3
37	53	1
95	95	5
109	116	2
83	84	3
173	174	2
58	58	7
16	16	8
91	91	4
109	109	13
171	190	1
214	215	4
200	200	9
60	60	8
248	248	6
15	15	11
9	10	4
45	226	1
145	145	4
212	212	15
89	89	9
224	224	13
192	192	3
198	198	7
31	32	4
240	240	2
170	176	2
71	71	3
186	187	3
190	190	4
49	50	3
44	44	10
162	162	8
5	5	7
190	191	1
215	237	1
158	159	2
115	115	5
88	88	7
20	23	1
229	230	3
42	42	8
245	245	5
64	64	7
164	164	8
20	20	11
22	22	6
91	92	3
86	87	3
51	51	7
197	224	1
156	156	11
157	159	1
28	28	17
34	48	1
215	218	3
243	244	3
191	222	1
210	210	3
188	188	4
10	10	13
231	247	1
240	241	3
12	12	5
6	6	8
172	172	8
32	36	2
187	187	1
242	244	2
178	178	7
196	197	2
113	121	1
236	244	1
206	207	1
41	41	6
29	32	2
8	52	1
237	238	7
82	92	1
63	66	2
223	223	13
16	17	2
20	34	1
70	70	6
207	237	1
78	100	1
61	62	3
61	90	1
35	63	1
35	35	12
150	150	8
67	68	1
178	179	1
232	233	3
95	176	1
112	112	3
30	31	3
68	246	1
102	102	1
93	93	3
213	213	6
161	161	5
52	114	1
82	82	3
174	174	3
195	195	1
240	247	1
182	182	11
113	113	5
26	27	4
210	211	1
198	199	3
159	159	5
113	116	1
87	91	1
95	96	3
29	29	9
30	156	1
32	40	1
170	172	1
152	153	2
61	99	2
188	189	3
213	214	9
147	147	5
71	72	2
232	232	9
69	108	1
95	173	1
171	171	6
6	8	3
215	216	2
169	169	7
166	166	7
27	28	2
19	20	5
220	222	2
163	165	1
7	8	1
238	238	6
222	222	3
245	246	11
66	165	1
155	157	1
57	57	6
50	190	1
38	39	2
111	116	1
249	249	2
172	175	2
155	155	4
52	65	1
100	235	1
43	43	11
194	220	1
83	83	2
202	203	1
58	60	1
92	92	4
108	109	1
197	198	2
48	57	1
101	102	1
166	167	2
221	229	2
10	11	2
219	219	8
68	69	2
160	160	4
151	180	1
244	244	6
199	217	1
158	158	3
24	151	2
86	86	2
147	154	1
72	73	1
39	56	1
37	54	1
90	91	7
207	209	1
239	239	2
32	33	3
176	244	1
81	81	2
219	220	2
59	59	7
68	68	8
186	189	2
177	178	2
186	186	10
183	205	1
183	212	2
214	214	9
223	224	3
110	145	2
11	12	4
55	55	7
89	90	1
116	117	2
114	114	3
76	77	3
92	116	3
53	53	9
63	162	1
233	233	5
180	207	1
72	94	1
185	185	13
202	202	5
9	9	4
17	18	3
187	189	1
33	33	10
85	85	7
193	193	3
37	38	4
229	231	1
16	52	1
201	247	1
6	26	1
36	36	9
73	73	4
247	247	5
31	108	1
110	246	1
24	24	9
87	87	4
97	100	2
35	224	1
92	113	1
80	80	2
236	240	1
49	49	7
90	90	4
28	29	2
67	67	7
182	183	1
6	17	1
172	229	1
32	35	1
8	8	6
115	116	4
66	66	5
15	236	1
48	65	1
93	94	3
200	201	3
29	30	7
56	107	2
157	177	1
165	166	2
35	36	6
63	68	1
47	47	4
169	171	1
53	54	3
205	205	4
107	115	1
6	7	4
162	168	2
32	38	1
119	119	5
242	242	7
72	74	1
216	216	4
110	111	3
65	65	7
167	175	2
94	100	1
111	111	6
191	200	1
242	243	1
215	247	1
248	249	1
215	215	8
231	236	2
38	38	6
200	213	1
150	151	1
230	235	1
96	96	2
53	204	1
41	54	1
16	31	1
241	243	1
12	182	1
62	63	5
202	224	1
207	207	5
151	155	1
118	118	4
97	97	4
176	219	2
183	201	1
14	20	1
14	14	4
193	196	3
102	103	2
180	212	2
162	163	2
172	188	1
21	22	1
56	57	5
191	191	6
44	46	1
7	7	6
42	203	1
82	84	1
65	66	1
57	58	2
239	241	2
204	225	1
212	229	1
232	239	1
157	157	5
159	160	2
216	242	1
22	77	1
24	117	1
118	119	1
61	61	2
63	65	1
228	245	1
79	80	2
50	50	2
182	184	1
4	4	6
231	233	1
44	45	1
38	118	1
84	86	1
95	104	1
25	30	1
114	115	3
52	206	2
144	145	2
89	102	1
120	120	5
101	105	1
41	42	1
181	181	4
218	219	2
19	21	1
20	26	1
191	199	1
214	219	1
237	237	2
92	117	2
117	118	1
186	188	1
99	99	4
219	222	1
58	59	2
71	107	1
167	182	1
175	175	6
64	66	1
107	108	4
171	172	5
89	96	1
94	95	1
12	15	1
243	245	1
179	181	1
70	78	1
58	236	1
183	224	1
48	202	1
90	92	1
170	171	3
74	75	2
76	76	5
51	117	1
14	205	1
165	202	1
206	206	3
183	206	1
11	45	1
213	215	1
216	217	2
60	75	1
221	222	2
155	210	3
167	174	2
67	109	1
92	93	1
231	234	1
110	117	2
79	83	2
167	167	11
243	243	1
111	112	2
84	118	1
20	60	1
204	214	1
158	160	1
209	210	3
0	1	1
57	65	1
78	86	2
44	114	1
188	209	1
14	23	1
201	202	1
94	94	3
77	78	4
200	247	1
47	92	1
107	107	4
166	222	1
208	246	1
85	86	2
46	69	1
15	16	2
23	36	1
234	235	2
164	179	1
55	201	1
83	96	1
179	197	1
35	57	1
46	63	1
235	236	2
79	79	2
228	229	1
109	111	4
103	103	2
83	88	1
47	48	1
170	181	1
48	72	1
63	89	1
181	209	1
97	98	2
174	199	1
236	237	1
73	102	1
110	116	1
88	89	2
86	119	1
154	155	3
53	229	1
3	4	2
185	186	1
221	221	5
226	227	1
50	189	2
197	208	1
209	231	2
18	205	2
228	228	6
108	108	1
181	201	2
42	43	4
71	86	1
165	214	1
112	113	3
185	187	1
185	221	1
154	154	5
105	106	1
196	196	2
239	240	1
62	66	1
77	77	2
77	90	2
190	192	1
58	61	1
179	180	3
39	40	2
28	32	1
217	218	1
26	35	1
117	228	1
240	248	1
69	99	1
209	220	1
40	59	1
171	215	1
151	154	1
155	185	1
75	75	3
194	195	2
195	196	1
158	163	1
36	37	1
15	111	1
113	114	2
113	115	1
105	105	1
9	15	1
227	230	1
212	213	3
75	76	2
203	204	3
54	78	1
171	173	1
232	236	1
84	85	1
183	204	1
155	163	1
1	2	1
186	191	1
145	165	1
157	169	1
150	165	1
232	238	1
228	231	1
207	248	1
84	96	1
46	47	3
214	227	1
198	222	1
196	216	1
43	44	2
247	248	2
101	110	1
67	71	1
51	52	2
221	223	1
8	201	1
195	232	1
212	228	2
235	244	1
34	237	1
76	105	1
55	65	2
45	114	1
178	187	1
51	54	1
166	171	1
214	218	1
168	170	1
207	213	1
207	244	1
51	199	1
72	72	1
214	216	1
47	225	1
78	87	1
17	35	1
67	69	1
231	244	1
81	103	2
26	179	1
176	177	1
160	161	2
165	175	1
22	33	1
52	219	1
63	69	1
68	204	1
190	197	1
64	67	1
97	116	1
79	84	2
239	242	1
13	14	4
189	190	2
54	66	1
180	180	2
26	55	2
198	201	1
115	203	1
184	228	1
230	231	1
24	25	1
224	225	1
215	241	1
165	233	1
3	3	2
43	114	1
221	239	1
92	119	1
198	219	1
45	46	1
42	109	1
55	57	1
2	3	1
213	220	1
8	42	1
64	94	1
201	225	1
57	62	1
197	200	1
104	109	2
108	115	1
37	113	1
97	99	1
232	242	1
34	61	1
217	239	1
55	56	1
191	192	2
81	82	1
196	242	1
51	55	1
201	213	1
236	238	1
49	57	1
19	32	1
156	157	2
9	13	1
104	104	1
113	143	1
184	185	1
224	228	1
66	92	1
150	194	1
54	55	1
53	160	1
96	188	1
36	201	1
21	32	1
86	88	1
201	211	1
219	237	1
224	234	1
115	119	2
61	69	1
63	246	1
204	246	1
14	35	1
20	111	1
60	71	1
34	49	1
66	93	1
2	4	1
109	110	2
66	71	1
53	55	1
219	243	1
202	212	1
119	246	1
222	249	1
180	182	1
52	54	1
17	19	1
28	158	1
120	153	1
45	111	1
104	105	1
100	106	1
85	87	1
176	178	1
10	14	1
87	89	1
221	224	1
214	226	1
178	226	1
66	68	1
195	209	1
165	200	1
172	179	1
80	82	1
162	164	1
11	202	1
78	82	1
175	244	1
192	243	1
178	180	1
48	55	1
172	173	1
178	222	1
189	221	1
163	164	1
211	247	1
164	214	1
102	106	1
