112	112	2
71	71	10
74	74	8
106	107	2
70	76	1
66	66	12
44	50	1
110	113	1
119	119	5
73	102	1
98	98	5
26	28	3
81	81	2
110	110	4
104	104	5
5	5	4
29	29	7
60	60	4
100	101	2
49	49	2
84	85	1
101	101	4
89	90	2
11	12	3
111	111	4
33	34	1
63	81	1
35	49	1
127	127	4
43	43	8
99	99	2
68	69	1
102	102	5
57	59	2
15	17	1
47	49	2
45	50	1
132	132	3
24	25	3
86	86	4
18	19	1
135	135	2
65	69	1
75	81	1
50	50	12
79	79	6
106	106	7
44	44	6
43	62	1
73	74	2
12	12	3
65	65	3
25	25	2
129	129	2
33	33	3
75	75	4
62	62	7
121	121	2
93	93	5
92	92	6
28	45	2
123	124	1
36	62	1
125	130	1
96	96	5
35	35	5
48	48	4
24	24	5
52	56	2
62	63	2
59	59	3
33	38	1
100	100	4
77	79	2
77	77	5
26	27	4
45	95	1
43	44	1
90	90	7
47	47	5
52	72	1
45	108	1
38	38	3
42	42	2
86	90	3
68	68	2
64	64	7
53	68	1
1	1	5
0	3	1
72	72	5
10	10	4
109	109	2
124	124	3
46	51	2
30	31	2
52	52	4
11	11	2
35	44	3
73	73	10
31	31	4
63	63	3
60	64	1
14	14	4
55	55	3
28	28	3
9	10	3
85	86	2
133	133	3
89	89	1
43	46	1
54	58	2
125	126	2
114	114	1
76	76	6
69	69	3
4	5	2
36	36	3
7	7	5
87	88	1
51	70	1
49	50	2
16	69	1
79	80	1
105	105	4
87	87	2
88	88	2
15	21	1
85	85	2
133	134	1
59	60	3
61	61	6
75	79	1
64	65	2
37	37	2
50	52	1
134	134	2
82	82	7
19	19	1
19	22	1
81	83	1
71	72	2
17	49	2
45	45	5
53	54	3
71	96	1
3	3	5
18	18	4
115	116	1
13	13	4
57	58	2
80	80	6
15	15	5
17	17	2
117	117	1
91	92	1
80	81	1
122	122	3
70	71	2
16	16	3
7	32	1
8	8	3
28	44	1
78	78	4
12	50	1
97	98	1
5	6	1
70	70	4
20	20	3
53	55	1
126	126	1
23	23	2
53	53	3
74	75	1
2	3	1
91	91	4
103	103	1
54	55	1
61	78	2
123	123	3
21	21	4
0	2	1
9	9	2
2	2	5
76	108	1
124	134	1
128	128	2
0	52	1
130	130	4
47	72	1
6	7	2
34	34	2
116	118	1
83	117	1
118	118	1
52	53	1
120	120	3
27	60	1
65	66	2
27	27	2
22	35	1
4	7	1
38	74	1
84	84	2
75	76	2
59	68	1
78	79	1
67	67	2
98	101	1
65	70	1
57	67	1
3	4	1
14	15	1
58	58	4
95	95	1
93	94	1
34	35	1
19	21	1
94	94	3
103	104	1
26	26	1
125	127	1
14	99	1
6	6	4
53	65	1
56	56	2
32	32	2
131	131	2
56	69	1
30	30	2
65	75	1
105	111	1
79	109	1
14	29	1
44	45	1
96	97	2
59	61	1
86	97	1
81	92	1
54	61	1
54	68	2
98	115	1
31	32	1
80	114	1
125	125	3
9	20	1
126	127	2
14	45	1
3	35	1
0	1	1
115	131	1
87	117	1
89	114	1
71	73	1
15	19	1
76	79	1
121	124	1
72	73	1
55	58	1
54	54	1
69	85	3
55	56	2
83	86	1
130	131	1
35	62	1
13	30	1
5	11	1
62	64	1
60	61	1
126	131	1
0	0	1
64	108	1
81	88	1
129	130	1
