21	21	4
164	165	2
99	101	1
146	152	1
1	39	1
56	56	1
149	149	1
151	151	3
76	76	3
4	4	3
90	90	2
76	77	3
15	17	1
98	98	2
117	118	1
77	79	1
159	168	2
82	82	4
33	33	1
16	16	3
18	23	1
80	114	1
8	8	2
44	45	2
48	48	4
20	22	1
92	92	2
169	169	9
112	112	3
78	79	3
150	151	2
43	43	5
133	133	4
47	47	4
12	12	1
48	63	2
21	24	1
51	51	5
27	28	1
167	167	6
57	58	1
110	110	2
20	56	1
17	17	6
38	42	1
12	23	1
153	153	3
70	78	1
1	1	5
81	112	1
116	124	1
72	72	3
42	42	4
55	55	2
6	6	1
94	95	3
27	27	2
52	52	3
91	91	1
3	3	1
117	117	1
11	15	1
26	26	2
130	131	2
62	69	1
81	81	1
125	126	1
7	7	3
107	107	2
17	21	1
72	79	1
126	126	4
74	74	3
0	0	2
158	158	3
109	109	4
114	116	2
128	129	2
45	45	1
142	142	1
153	154	1
56	69	1
95	95	5
154	154	6
162	163	1
5	11	1
108	108	1
14	15	1
86	86	4
140	141	1
10	69	1
67	67	2
114	114	4
162	162	1
54	63	1
64	65	1
141	141	5
113	114	1
118	118	3
24	25	3
96	96	5
166	166	3
91	93	1
145	146	1
51	52	1
119	119	4
144	144	1
68	68	6
138	138	4
148	148	3
155	155	4
1	2	1
125	125	2
75	75	1
76	78	1
132	152	1
18	19	2
147	148	1
120	120	2
10	10	3
106	106	5
20	68	1
165	165	3
128	128	2
102	103	1
35	42	1
38	38	4
161	161	3
133	134	1
146	154	1
97	97	2
11	11	3
53	53	3
79	79	1
70	70	3
16	19	2
37	37	2
3	4	2
101	101	1
88	90	1
100	100	1
134	134	5
72	78	2
50	50	4
69	69	1
124	124	2
44	44	3
88	88	1
124	125	1
105	105	1
139	139	4
8	9	1
141	148	1
124	127	1
38	88	2
25	46	1
164	164	6
10	24	1
35	35	5
15	15	2
156	156	2
123	124	2
37	47	1
26	49	1
127	129	2
17	19	2
37	38	2
129	130	1
73	73	1
123	151	1
159	159	2
64	64	1
128	142	2
111	111	2
25	26	1
109	111	1
137	137	4
58	67	1
54	55	2
103	103	1
40	40	5
109	110	1
131	131	1
87	102	1
87	87	2
163	163	4
87	97	1
54	56	1
24	26	2
129	131	2
36	107	1
157	157	3
130	130	2
40	41	1
128	140	1
119	120	3
103	104	1
37	39	1
160	160	3
7	111	1
6	11	1
123	126	1
49	49	2
1	25	1
78	85	1
142	152	1
140	144	1
90	91	1
21	22	1
9	48	1
23	23	1
139	140	1
139	142	1
20	21	1
154	156	1
108	109	2
136	137	1
7	101	1
143	157	1
126	127	2
16	25	1
153	155	2
93	93	1
81	121	2
77	78	1
2	25	1
9	9	2
117	131	1
137	140	1
20	20	1
54	61	1
45	46	1
18	50	1
33	35	1
11	12	2
89	169	1
140	140	2
148	150	1
123	123	1
4	5	1
143	143	1
146	146	1
121	121	1
98	99	1
66	75	2
92	93	2
138	153	1
79	80	1
113	113	1
86	133	1
86	135	1
13	13	1
153	156	1
112	114	1
0	6	1
83	107	1
84	84	1
50	51	1
62	62	1
117	151	1
22	23	1
47	48	1
145	145	1
129	129	2
102	105	1
39	39	2
63	63	1
79	91	1
93	95	1
147	147	1
25	44	1
107	108	1
78	78	1
58	58	1
52	53	1
94	94	1
115	115	2
13	127	1
137	138	1
83	87	1
93	94	1
71	71	1
19	19	1
150	150	1
22	22	1
53	160	1
82	102	1
119	136	1
154	155	1
63	66	1
48	49	1
46	46	1
89	89	1
144	145	1
82	84	1
