61	61	6
151	158	2
137	138	1
3	3	2
159	160	1
147	152	1
35	35	1
169	171	1
113	113	2
109	109	1
102	102	2
39	39	4
28	38	1
141	141	3
154	154	2
165	165	1
80	80	2
177	180	1
74	74	1
137	180	1
78	78	3
121	121	1
142	142	4
174	174	5
52	54	2
17	17	1
160	160	3
80	81	2
37	38	2
13	13	3
166	166	2
38	102	1
101	111	2
119	119	2
116	116	2
126	127	1
122	122	1
129	131	1
76	77	2
106	106	4
131	131	5
8	9	2
147	147	2
138	138	4
10	31	2
133	133	3
5	5	2
94	94	4
114	130	1
11	16	1
86	86	2
158	160	2
78	177	1
52	74	1
54	54	2
100	100	6
33	34	1
112	112	2
93	93	2
56	56	3
34	34	2
179	179	2
180	180	3
161	161	5
10	142	1
23	23	5
168	168	2
77	77	3
110	110	1
65	65	2
153	153	2
45	45	4
152	162	2
134	134	5
4	4	4
107	107	2
15	32	1
127	127	3
1	63	1
88	88	3
20	20	2
23	24	1
140	141	4
140	140	1
11	11	3
132	132	4
12	13	1
8	8	4
176	176	4
57	57	2
38	38	3
158	158	3
173	173	3
87	87	2
3	4	1
130	131	2
31	31	2
52	53	2
143	143	1
10	10	7
103	105	1
36	36	2
50	53	1
108	108	2
90	94	3
172	173	1
113	135	2
54	55	3
24	28	2
9	9	2
40	40	1
45	46	2
148	149	1
37	90	1
99	147	1
30	55	1
114	114	3
170	171	1
89	89	1
118	151	1
16	17	3
91	92	1
123	125	1
26	26	4
115	116	2
155	155	2
18	20	2
124	125	1
33	33	5
42	43	1
171	171	3
129	129	3
116	145	1
123	124	1
105	105	2
107	112	1
135	135	1
137	137	2
15	15	1
111	126	1
115	118	1
75	76	1
27	28	1
106	107	3
99	129	1
32	61	1
1	1	1
75	75	1
149	149	3
22	22	2
37	40	1
26	57	1
111	111	1
33	44	1
101	101	5
159	159	4
167	167	4
32	32	1
156	156	1
150	150	3
139	139	1
170	170	2
26	28	1
120	120	3
163	163	1
117	118	2
105	106	1
136	138	1
24	25	1
7	8	1
76	112	1
11	13	1
90	90	1
61	62	1
91	91	2
18	28	1
52	56	1
92	93	1
25	41	1
124	124	2
137	140	1
103	103	2
96	96	1
52	52	1
53	53	1
84	84	2
17	19	1
63	63	1
79	79	3
110	111	1
121	124	1
20	23	1
98	114	1
81	96	1
0	76	1
84	87	2
136	136	1
25	25	1
71	71	2
97	97	1
93	142	1
102	114	1
145	146	1
51	51	1
73	73	1
99	100	1
100	106	1
105	119	1
102	112	1
148	148	1
16	16	1
74	76	1
107	116	1
165	166	4
155	156	1
62	90	1
18	18	1
70	70	1
83	83	1
157	157	3
7	7	2
25	30	1
50	50	2
128	148	1
137	139	1
56	57	1
165	167	1
40	42	1
126	126	1
5	9	1
60	89	1
28	28	2
42	42	1
29	29	1
166	167	1
64	64	2
21	63	1
31	37	1
54	82	1
96	107	1
105	118	1
58	74	1
64	90	2
143	144	1
22	23	1
53	54	1
74	86	1
9	31	1
98	98	1
117	117	1
134	179	1
146	146	2
5	6	1
30	30	1
142	152	1
98	145	1
145	145	1
39	42	1
125	125	1
104	104	1
55	60	1
144	146	1
64	93	1
3	30	1
154	156	1
129	130	1
122	150	1
121	122	1
97	147	1
21	22	1
153	154	1
94	95	1
2	5	1
125	152	1
153	169	1
59	59	2
67	68	1
72	72	1
113	114	1
89	111	1
61	79	1
122	123	1
49	49	1
7	74	1
131	133	1
128	155	1
58	60	1
120	159	1
174	176	1
145	148	1
134	136	1
0	0	1
88	89	1
126	133	1
72	73	1
154	163	1
43	43	1
97	111	1
