198	198	1
75	75	3
10	16	1
39	40	1
113	113	6
223	225	2
50	50	2
52	52	3
229	230	2
32	32	3
42	45	1
158	158	1
36	37	1
24	25	1
26	40	1
231	231	7
156	156	3
16	16	5
207	207	2
191	191	4
109	109	4
31	31	5
10	154	1
186	186	2
193	216	1
172	173	1
151	151	7
194	195	1
22	22	4
60	60	1
70	90	1
190	190	5
4	4	5
10	10	6
58	58	6
41	41	4
29	157	1
238	241	1
17	17	3
8	8	2
77	77	2
202	206	1
177	177	1
168	184	1
242	242	2
85	85	2
80	98	1
12	12	1
20	22	1
110	110	7
204	204	3
33	33	2
7	7	4
234	234	3
203	203	4
159	159	2
241	241	2
45	45	7
26	26	2
20	20	4
182	183	2
198	200	1
236	237	2
51	51	1
208	208	3
35	35	2
80	80	1
247	247	2
89	89	6
235	235	5
180	181	1
68	68	3
55	55	5
179	179	5
229	229	5
77	99	1
180	180	1
215	216	1
240	247	1
118	119	1
8	9	2
200	200	1
179	182	1
62	62	4
21	25	2
246	246	5
162	162	3
218	218	5
9	9	7
27	27	2
102	119	1
168	168	2
29	29	1
5	5	1
114	114	5
202	202	3
15	15	2
38	38	3
73	99	1
32	151	1
207	229	1
210	210	3
58	90	1
168	169	5
4	5	1
67	67	5
118	118	2
157	157	4
154	154	3
10	11	2
40	41	1
35	37	2
17	21	3
32	33	2
24	24	2
166	166	5
85	101	4
28	28	2
48	48	3
20	30	1
217	218	2
181	181	2
101	101	2
165	165	2
37	38	2
155	156	1
51	115	1
65	65	1
36	36	4
14	14	3
220	220	4
160	160	2
57	58	2
11	12	1
46	202	1
34	34	2
25	225	1
178	178	5
91	91	1
92	101	1
39	39	3
185	185	3
111	111	4
89	91	1
59	60	2
172	172	4
193	193	3
66	67	1
170	170	5
168	180	1
115	115	6
228	228	4
57	59	2
171	171	3
230	230	6
87	87	1
161	161	2
219	219	7
62	64	1
58	60	1
170	171	2
2	7	1
120	144	1
80	83	2
61	61	2
185	214	1
8	10	1
57	57	2
157	180	1
238	240	1
64	64	2
117	117	1
211	211	2
173	174	2
26	27	1
176	177	1
244	245	1
224	224	2
237	237	1
165	178	1
9	147	1
148	149	1
226	226	4
174	174	2
48	50	1
234	249	1
53	63	1
16	17	1
176	176	3
82	82	3
37	37	5
236	236	5
201	202	3
40	150	1
15	16	1
91	93	1
95	95	1
110	111	1
103	105	1
47	47	3
201	245	1
194	194	4
53	53	4
188	188	1
46	46	1
94	95	2
184	184	1
1	1	2
220	221	2
167	226	1
108	108	1
194	196	1
164	170	2
195	221	2
56	56	2
188	191	1
94	94	2
240	240	2
222	237	1
115	116	1
175	175	3
6	6	5
150	150	4
232	233	1
98	98	2
7	33	1
47	64	3
27	29	1
65	66	3
114	115	3
9	10	1
51	53	2
2	2	3
68	69	1
37	44	1
165	166	1
233	234	2
240	241	2
71	71	2
21	21	1
56	241	1
50	62	1
227	229	1
192	192	3
185	197	1
211	241	1
245	245	5
64	181	1
164	164	4
188	189	1
42	42	3
73	73	1
206	207	1
30	30	1
163	163	1
92	92	3
23	23	3
76	77	2
75	92	1
169	169	4
19	19	2
40	40	2
54	54	1
222	239	1
169	174	1
95	96	1
186	218	1
189	189	2
201	201	4
180	220	1
56	172	1
169	170	1
69	70	1
25	26	2
36	38	1
117	198	1
44	45	1
175	181	1
187	188	2
203	204	2
182	182	2
43	43	1
70	75	1
115	153	1
59	59	2
6	7	1
160	185	1
113	114	1
60	77	1
50	178	1
25	25	2
175	178	1
14	19	1
171	172	1
202	235	1
248	248	1
29	231	1
22	40	1
205	205	2
61	62	1
64	92	2
101	118	1
100	100	1
77	78	1
183	205	1
112	112	2
86	86	1
86	87	1
233	235	1
219	220	1
173	173	1
223	223	4
192	193	1
75	76	3
104	104	1
196	221	1
91	92	2
178	179	1
243	243	1
227	227	2
20	153	1
190	191	1
21	22	1
116	116	6
71	73	1
227	228	2
108	109	1
76	78	1
66	66	2
214	214	2
62	213	1
153	153	1
44	44	3
65	67	1
103	103	1
185	186	1
212	241	1
46	47	1
163	164	1
189	190	1
62	118	1
230	231	1
29	31	1
235	236	1
183	183	1
232	232	1
105	105	1
173	178	1
161	162	1
57	68	1
88	89	1
11	11	2
14	17	1
49	60	1
231	232	1
83	83	1
209	209	2
1	2	1
238	238	1
61	85	1
235	237	1
206	235	1
61	70	1
78	81	1
38	39	1
168	185	1
88	88	1
81	81	1
152	153	1
11	32	1
57	62	1
183	184	1
208	209	1
98	99	1
184	186	1
186	242	1
71	75	1
32	157	1
209	236	1
3	3	1
210	211	1
149	149	1
99	99	1
72	73	1
74	75	1
164	178	1
213	213	2
