137	137	2
33	53	1
152	152	4
139	139	4
23	23	3
146	146	5
148	148	2
126	126	2
143	143	3
32	34	3
147	147	3
7	7	2
109	109	5
90	115	1
18	19	5
42	42	3
69	69	4
136	154	1
73	73	3
130	130	2
87	87	3
24	25	1
105	107	1
132	143	2
38	38	3
11	11	3
31	31	3
107	107	1
83	83	2
15	15	1
28	28	2
78	79	2
18	18	3
14	14	2
25	28	2
3	3	2
31	34	1
17	17	6
13	13	2
135	135	4
71	71	4
114	124	1
77	77	2
132	132	4
67	67	5
6	6	3
130	136	2
12	12	2
36	38	1
87	92	1
124	151	1
97	108	2
47	47	3
119	120	3
63	66	1
70	70	2
78	78	1
114	114	3
118	118	7
104	104	2
93	93	3
13	65	1
81	81	4
47	64	1
39	39	4
40	43	1
121	122	1
149	149	3
12	40	1
74	74	4
131	132	2
66	79	1
99	100	2
51	57	1
105	105	2
113	132	1
10	46	1
11	14	2
28	29	1
106	135	1
92	92	2
24	24	5
73	74	1
63	65	1
113	119	1
30	71	1
46	51	1
62	62	2
45	46	1
129	130	1
50	51	1
21	26	1
7	10	3
25	30	1
120	120	5
4	4	2
102	102	4
106	106	6
137	138	3
30	46	1
136	136	2
63	64	1
24	36	1
65	67	1
34	35	2
103	104	2
25	31	1
100	100	2
115	115	2
112	112	2
19	46	1
124	125	1
144	145	2
10	10	3
85	86	1
100	104	2
98	98	2
14	15	1
31	35	1
43	47	1
141	142	1
150	151	1
107	110	1
145	152	2
77	78	1
95	95	2
40	75	1
112	119	1
84	84	3
143	148	1
99	99	6
11	12	2
79	79	1
35	57	1
121	128	1
109	113	1
44	44	6
119	119	2
102	103	2
134	134	2
5	5	3
81	88	1
113	113	2
122	122	5
22	25	1
129	132	1
146	147	1
21	21	3
64	65	1
131	131	6
70	72	1
137	143	2
96	97	1
34	36	1
50	50	3
108	108	2
75	75	1
144	144	3
103	106	4
49	49	4
88	88	1
110	126	1
86	110	1
35	35	2
4	51	1
99	102	1
38	42	1
117	118	1
2	2	1
94	96	1
25	26	1
21	23	1
38	40	1
35	36	1
75	78	1
57	57	1
108	110	1
133	133	3
120	133	1
121	121	4
139	141	1
65	77	1
11	150	2
31	42	1
20	23	2
128	151	1
19	19	3
150	150	1
14	38	1
22	23	3
113	114	1
28	63	1
45	86	1
72	79	1
23	43	1
40	40	4
122	123	1
97	97	3
48	102	1
111	111	2
44	45	1
54	54	1
37	116	2
71	120	1
103	107	1
153	153	2
45	45	4
32	32	4
77	79	1
27	73	2
124	124	1
27	28	1
8	19	2
16	16	6
37	37	3
29	30	1
41	41	2
43	46	1
97	98	2
109	149	2
22	43	1
14	23	2
48	67	1
34	34	1
138	145	1
65	69	1
128	128	1
86	87	2
81	86	1
39	40	1
142	150	1
64	94	1
86	86	3
127	144	1
131	133	1
138	143	1
4	7	1
66	82	1
72	72	2
117	117	2
63	63	1
21	66	1
138	138	3
128	137	1
68	68	2
149	150	1
87	90	1
105	115	1
96	98	1
140	140	2
64	64	1
138	140	1
110	110	1
38	39	1
86	88	1
133	154	1
85	101	2
85	92	1
10	11	1
48	48	1
104	112	1
57	63	1
132	136	1
118	119	1
150	153	1
123	138	2
30	31	1
111	113	1
17	149	2
9	9	2
142	142	1
62	65	2
20	20	3
104	135	1
138	139	1
145	147	1
123	123	3
6	7	1
33	37	1
33	33	1
86	121	1
11	15	1
62	64	2
18	20	1
33	43	1
38	77	1
21	22	1
32	57	1
19	28	1
63	108	1
140	141	1
34	50	1
103	105	1
44	70	1
26	27	2
100	117	1
26	26	1
129	129	2
22	29	2
47	52	1
81	82	2
132	133	2
35	56	1
15	16	2
22	33	1
66	66	1
12	13	1
12	16	1
67	80	1
17	21	1
126	127	1
96	96	2
65	65	1
46	46	2
23	32	1
110	111	1
115	116	1
66	95	1
120	121	1
10	76	1
33	42	1
82	98	1
88	108	1
5	8	1
92	121	1
123	149	1
131	137	1
125	125	1
45	87	1
55	55	1
101	101	2
152	153	1
55	73	1
110	145	1
43	45	1
83	92	1
19	27	1
85	85	1
22	22	1
48	129	1
43	43	2
117	136	1
118	123	1
64	72	1
101	102	1
121	125	1
5	25	1
154	154	3
95	96	1
142	144	1
37	39	1
19	20	1
38	69	1
9	36	1
5	6	2
128	132	1
151	151	1
34	56	1
149	154	1
7	51	1
87	88	1
92	96	1
26	36	1
90	90	1
68	71	1
56	56	3
35	37	1
27	27	1
104	137	1
108	133	1
130	148	1
4	6	1
64	84	1
119	124	1
48	49	1
36	37	1
101	134	1
8	11	1
73	99	1
