101	126	1
7	7	2
75	104	1
109	109	4
37	38	2
135	135	6
101	101	6
132	133	3
101	112	1
132	132	6
119	121	2
112	112	8
93	94	4
100	100	12
136	137	2
32	32	4
97	97	5
89	90	2
111	111	5
107	107	6
102	102	8
133	133	22
120	121	2
77	77	6
101	102	3
97	98	3
87	87	5
37	37	9
8	9	1
104	108	2
123	131	1
94	135	1
0	2	1
90	90	7
95	95	4
86	86	3
4	5	2
120	120	7
78	103	1
89	89	5
119	122	2
130	131	1
133	134	8
97	99	3
33	34	2
85	86	1
101	131	1
11	13	4
126	126	2
92	92	5
113	113	9
105	105	5
127	127	6
2	3	4
9	10	1
20	20	3
119	119	10
128	128	7
100	101	2
93	126	1
94	110	1
127	128	1
1	1	9
104	104	5
27	27	5
123	123	8
129	129	6
117	117	13
35	35	11
11	11	2
108	108	4
136	136	5
117	119	2
37	113	1
131	131	11
26	37	1
19	19	4
38	38	7
125	125	2
19	20	1
96	96	4
122	123	5
117	118	2
33	33	9
80	86	1
34	34	6
79	79	1
121	121	6
73	106	2
124	124	5
18	19	3
99	128	1
80	80	5
34	35	2
1	2	3
35	36	3
94	94	7
104	105	1
103	104	4
126	127	3
137	137	5
76	82	1
72	72	3
0	1	2
134	134	5
10	10	2
2	2	2
123	124	2
37	134	2
91	140	1
76	77	1
107	108	2
19	34	1
130	130	8
74	74	6
139	139	3
114	114	11
114	115	1
36	37	3
82	86	1
71	71	4
98	98	7
81	81	4
96	99	1
114	116	1
128	129	2
18	20	3
6	6	5
116	117	2
81	85	2
14	15	1
86	88	2
115	126	1
37	72	2
27	32	1
111	139	1
138	139	2
140	140	4
131	134	1
16	16	3
95	115	2
5	5	3
82	83	2
14	14	3
75	102	2
115	115	9
123	127	1
131	133	3
116	116	7
137	138	3
90	138	1
106	106	3
101	116	1
5	6	1
28	32	2
84	84	1
139	140	1
15	15	4
93	93	4
111	116	1
1	19	1
7	8	2
118	119	2
73	73	3
74	79	1
135	140	1
103	114	2
99	124	1
11	12	2
81	86	1
10	11	1
16	17	3
83	84	2
125	126	3
82	84	1
97	134	1
103	109	1
82	82	1
75	79	1
113	114	2
99	99	2
13	13	3
99	100	2
81	82	2
115	116	2
122	122	3
109	110	1
116	119	2
84	85	1
105	107	1
110	112	1
9	9	2
83	83	1
110	111	1
102	103	1
36	36	1
12	12	1
130	139	1
96	115	1
75	76	1
125	128	1
75	75	2
98	99	1
138	138	4
131	140	2
131	136	1
79	80	3
81	83	2
13	15	1
74	77	1
134	135	1
74	75	2
116	140	1
0	0	1
37	74	2
12	13	1
74	103	1
110	110	2
105	106	1
108	112	1
85	85	2
94	96	3
75	88	1
86	87	2
124	125	1
86	96	1
121	122	3
108	115	1
96	139	1
120	122	2
106	107	2
71	72	2
96	97	2
78	78	1
118	123	1
98	100	1
123	130	1
33	36	1
88	88	4
78	106	1
5	14	1
74	108	2
108	109	2
88	119	1
37	125	1
93	95	2
17	17	1
127	129	1
94	95	1
33	37	2
93	127	1
107	110	1
5	9	1
95	96	1
109	113	1
134	136	1
81	87	1
81	104	1
103	103	2
87	88	1
108	110	1
120	124	1
9	12	1
5	19	1
117	122	1
18	18	1
91	91	3
4	4	1
72	124	1
68	81	1
115	125	1
8	8	1
3	4	1
117	123	1
91	93	1
84	86	1
106	109	1
3	3	1
76	76	1
118	118	1
104	122	1
132	138	1
118	121	1
131	132	1
