97	97	2
18	19	1
3	5	1
1	23	1
61	61	2
124	131	1
86	90	1
12	12	3
127	127	3
112	115	1
70	70	4
80	80	2
68	68	5
76	76	3
105	105	1
52	52	1
74	77	1
126	126	7
93	94	3
41	41	4
122	122	2
17	17	3
59	64	1
0	1	1
133	134	3
41	48	1
140	140	2
115	115	5
8	8	2
81	81	2
131	131	4
30	30	3
107	111	1
139	139	3
90	90	4
63	63	3
28	41	1
11	11	9
13	13	4
37	37	2
23	23	6
106	106	7
71	71	1
85	85	3
2	2	4
66	93	2
128	130	2
92	92	4
104	112	1
101	142	1
10	96	1
19	19	6
31	31	2
124	124	7
79	79	2
59	62	2
72	72	3
66	67	1
48	48	2
134	135	6
142	142	2
57	67	1
28	30	1
62	62	1
135	135	4
60	60	2
140	141	2
119	120	1
130	130	2
103	103	3
91	117	1
110	110	3
136	138	1
133	133	5
108	108	2
29	29	3
129	129	4
136	136	1
75	75	3
84	84	3
143	143	2
50	50	4
117	117	5
125	125	4
30	33	1
82	82	5
4	66	1
13	16	1
87	88	1
36	36	5
87	109	1
72	85	1
109	110	2
22	22	3
74	124	2
60	61	1
58	59	1
53	53	2
4	33	1
80	121	1
105	136	1
101	101	2
31	39	3
129	130	1
15	43	1
118	118	3
107	107	2
137	138	4
37	39	1
112	114	2
26	26	3
127	138	2
96	97	2
55	55	8
111	111	1
25	25	4
3	4	1
98	98	4
15	15	2
144	145	2
95	96	1
133	135	1
9	9	5
39	39	7
92	93	1
126	127	4
88	89	2
25	26	2
128	129	2
70	87	1
90	92	1
93	93	1
5	5	2
113	114	1
120	120	2
66	75	1
107	142	1
18	18	6
103	140	2
74	74	2
66	66	2
27	30	1
49	52	1
99	99	1
145	146	1
42	42	3
39	40	1
126	129	1
17	19	1
2	3	1
132	132	2
15	17	2
64	70	3
85	86	1
106	125	1
0	10	1
39	88	1
34	36	1
123	123	3
40	40	1
75	88	1
89	110	1
132	133	2
38	41	1
87	87	2
137	139	1
14	15	1
35	35	1
94	94	2
121	122	2
20	20	2
53	88	2
113	115	1
37	38	1
136	137	1
134	134	2
72	76	1
36	39	1
38	38	2
67	67	2
86	125	2
91	91	3
121	121	3
91	92	1
64	64	3
49	49	1
78	78	1
135	140	1
78	79	3
95	95	4
123	124	1
58	64	1
123	130	1
113	118	1
61	62	1
144	144	1
71	74	1
99	101	1
18	33	1
68	76	1
118	119	1
138	139	1
119	139	1
128	128	4
75	81	2
85	120	1
12	34	2
0	0	2
127	128	2
8	9	1
56	57	1
123	131	1
22	23	1
114	116	1
22	27	1
62	63	2
55	56	1
119	119	2
12	38	1
16	16	2
101	102	1
18	35	1
33	33	4
64	65	1
141	141	1
86	86	1
104	107	1
47	47	1
17	33	1
88	88	1
134	136	1
103	113	1
67	68	2
116	116	1
82	83	1
58	58	1
24	24	3
15	67	1
31	32	1
56	56	2
77	77	1
99	100	1
88	92	1
115	118	1
103	104	1
57	57	1
94	122	1
13	32	1
57	58	1
49	74	1
62	105	1
116	125	1
3	3	2
83	83	1
10	10	1
75	76	1
85	105	1
14	14	2
131	132	1
87	92	1
21	21	1
75	109	1
115	131	1
111	141	1
27	126	1
65	65	1
97	123	1
125	126	1
106	107	1
98	123	1
59	59	1
109	109	1
87	90	1
67	131	1
106	129	1
43	43	1
88	90	1
11	21	1
55	99	1
52	53	1
1	62	1
25	27	1
102	102	1
51	52	1
2	6	1
1	1	1
