107	107	1
160	160	3
195	195	3
185	185	3
55	73	2
73	73	3
153	153	1
80	95	2
51	51	3
179	179	3
45	46	4
33	66	1
29	29	1
85	85	1
5	182	3
123	177	1
82	82	3
132	132	1
33	33	1
106	118	1
136	141	4
196	196	3
170	186	1
188	188	1
81	81	1
71	71	1
20	23	1
35	35	2
141	141	3
145	145	2
94	95	2
149	149	4
168	168	2
44	44	2
60	60	1
46	46	2
72	72	2
19	19	2
173	173	1
178	178	1
135	142	2
190	191	2
125	125	1
46	56	1
191	192	1
88	88	1
160	184	1
24	24	2
182	183	1
124	124	2
104	104	1
109	109	1
115	165	1
83	83	1
140	140	2
1	3	1
18	18	2
48	48	4
5	193	1
190	190	3
38	38	4
21	153	2
30	31	2
122	123	1
93	93	1
138	138	4
16	16	2
132	147	1
20	20	3
130	130	1
192	192	2
124	141	1
65	65	1
123	124	1
14	14	5
42	42	4
99	99	2
40	40	1
183	183	2
34	35	1
36	37	2
115	136	1
117	117	1
59	72	1
0	1	1
22	22	1
47	47	9
148	150	1
43	44	2
173	174	1
129	169	1
45	45	2
187	187	4
10	13	1
114	115	1
82	83	1
26	26	4
66	66	2
28	30	1
53	194	2
155	155	2
60	61	1
73	80	1
162	162	1
176	176	4
27	29	3
109	110	1
94	94	3
57	194	1
151	151	2
169	169	4
12	14	1
39	40	3
180	181	3
20	21	6
165	165	2
4	32	1
151	152	1
7	7	1
193	193	2
12	47	1
17	58	2
25	27	2
122	122	3
131	132	1
71	72	1
18	30	1
17	17	3
108	140	1
170	171	1
142	143	2
170	184	1
10	10	6
13	13	2
133	133	2
90	90	1
194	194	1
43	43	2
182	182	1
71	73	1
101	105	1
40	42	1
153	155	1
94	104	1
41	41	3
25	25	2
186	186	2
22	40	1
86	86	1
57	58	1
150	150	2
143	146	1
19	24	2
1	40	1
78	90	1
121	121	2
160	161	1
37	37	1
97	97	1
149	170	1
118	183	1
14	15	2
31	31	2
11	11	4
52	126	2
9	9	2
5	26	1
172	173	1
52	87	1
189	189	1
159	162	1
145	146	1
70	70	2
6	24	1
161	176	1
13	14	1
56	80	1
175	179	2
112	115	1
80	80	1
0	60	1
115	148	1
69	69	1
184	184	1
25	26	1
95	95	2
115	115	2
132	171	1
2	3	1
164	164	1
107	113	1
54	64	2
146	146	1
29	31	1
79	89	2
4	20	1
5	5	2
55	135	1
50	50	2
88	195	1
64	65	1
149	163	1
159	159	1
32	32	2
132	148	1
18	24	1
78	96	1
170	182	1
29	30	3
157	157	1
113	113	1
94	137	1
180	180	1
38	43	1
121	153	1
112	112	2
9	10	3
18	33	1
156	156	1
111	111	1
34	67	1
55	55	1
16	24	1
61	69	1
20	24	1
26	27	1
89	90	2
61	61	2
139	139	1
129	129	1
142	149	1
172	176	1
118	118	2
194	195	1
8	8	1
25	43	1
88	89	1
30	68	1
159	178	1
46	47	1
119	127	1
110	110	2
166	166	1
104	105	1
52	52	3
12	58	1
171	171	1
23	25	1
183	191	1
142	142	1
126	126	1
12	13	1
33	36	1
4	14	1
119	180	2
33	34	1
18	19	1
166	167	2
8	55	1
23	23	1
174	177	1
157	176	1
62	70	1
172	172	1
181	181	1
44	45	1
96	96	1
148	148	1
4	5	1
53	53	1
4	4	2
28	29	1
174	174	1
70	83	1
140	153	1
57	57	1
15	15	2
21	192	1
120	130	1
184	195	1
165	166	1
95	97	1
17	19	1
28	28	1
87	87	1
35	36	1
61	64	1
43	52	1
36	36	1
79	79	1
27	27	1
134	141	1
56	56	1
