12	14	2
78	79	1
30	31	1
173	173	5
89	89	7
23	23	3
22	22	6
100	100	8
32	35	1
154	159	1
98	98	4
155	155	3
131	134	1
157	158	2
132	138	1
134	136	2
151	151	7
147	148	1
85	85	4
42	42	1
134	135	2
141	142	2
87	87	4
11	13	3
105	105	2
101	101	6
178	178	4
40	40	5
186	186	3
103	123	1
68	68	4
118	118	7
40	41	1
124	124	5
188	188	4
186	187	2
14	15	1
169	170	2
37	38	1
5	5	5
54	124	1
129	185	1
20	21	2
128	128	3
103	103	2
6	6	5
56	56	5
107	107	3
172	172	5
169	169	1
131	147	2
125	127	1
64	111	1
57	57	6
123	123	6
93	93	3
37	37	2
48	48	6
61	171	1
25	25	6
81	81	3
131	135	1
27	27	4
39	40	3
10	10	7
140	151	1
46	46	3
90	121	1
143	143	6
111	112	4
149	149	4
45	45	5
28	28	1
71	71	3
21	22	1
128	148	1
162	163	1
16	16	4
102	102	4
14	20	1
134	137	1
9	13	1
146	146	1
52	53	1
6	7	2
96	96	2
69	87	1
36	36	2
175	175	3
65	65	3
135	135	3
139	139	7
99	122	1
57	79	1
140	140	3
12	46	2
130	130	1
35	35	4
182	182	2
52	52	2
119	122	1
125	126	3
126	127	1
114	114	5
167	167	6
95	108	1
118	119	1
30	46	2
162	162	1
85	89	1
188	190	1
122	124	1
150	189	1
86	90	1
67	67	5
90	94	2
130	132	1
146	159	1
95	95	3
178	184	1
109	109	4
119	119	2
137	179	1
19	24	1
157	157	4
145	146	1
43	43	1
83	83	6
84	85	2
70	70	2
137	142	1
34	34	3
59	59	2
153	153	4
37	95	2
156	156	2
15	15	4
72	72	4
14	14	7
112	121	2
160	162	1
140	183	1
7	7	2
57	58	1
58	77	1
141	158	1
128	141	1
96	97	2
58	59	1
15	23	1
132	132	2
100	121	1
83	84	3
130	135	1
44	44	2
64	64	3
31	31	1
47	99	1
117	117	1
152	152	4
176	184	1
24	27	1
39	39	4
133	133	4
141	175	1
79	80	1
145	145	3
80	80	3
13	13	4
185	188	1
146	147	2
86	110	1
58	91	1
6	48	2
19	28	1
0	0	6
116	119	1
150	177	1
143	181	1
108	108	1
114	120	2
131	132	3
41	41	1
166	166	4
140	146	1
160	170	1
99	99	3
22	34	1
143	158	1
138	138	1
158	159	2
126	141	1
90	90	3
39	52	1
0	1	4
165	165	2
164	164	3
53	58	1
115	115	2
10	29	1
176	176	3
79	79	3
76	76	4
111	113	1
13	36	1
171	172	2
77	77	7
53	55	1
82	82	4
90	96	1
115	125	1
64	65	1
141	141	4
60	60	1
93	96	1
136	136	5
185	185	4
77	83	1
35	68	1
91	92	2
84	84	2
152	187	1
26	55	1
116	148	1
18	20	1
27	28	2
188	189	4
94	95	1
173	175	1
174	174	4
19	20	1
72	73	1
126	126	1
85	87	1
176	182	1
163	164	1
85	98	1
168	168	2
90	97	1
38	38	5
19	19	1
159	160	2
170	170	3
65	67	2
107	108	1
175	176	2
63	63	3
184	184	2
177	177	1
20	22	1
150	150	4
35	46	1
167	169	1
117	121	2
7	56	1
92	93	1
154	154	3
144	144	3
151	152	2
66	66	4
171	171	3
11	14	1
181	181	1
8	9	1
28	29	2
92	92	1
35	36	1
106	106	1
60	94	1
33	47	1
139	164	2
105	106	1
111	111	2
74	74	2
24	24	2
104	105	1
91	91	3
108	111	1
42	43	1
27	30	1
26	31	1
2	2	5
86	88	1
113	113	3
90	91	1
45	54	1
48	57	1
116	117	1
104	104	2
30	33	2
17	17	3
86	86	4
136	138	1
165	167	1
63	64	3
54	118	1
142	142	2
129	129	3
33	33	1
81	82	1
185	187	1
78	78	3
1	2	1
98	99	1
107	115	1
49	49	1
26	26	2
27	33	1
78	108	1
189	189	3
75	75	3
68	85	1
18	18	3
149	150	1
122	122	2
14	138	2
181	184	1
25	40	2
95	96	1
11	12	1
15	16	1
158	173	1
134	134	3
17	19	1
68	69	1
113	160	1
118	141	1
29	29	1
31	35	1
121	136	1
156	167	1
136	137	2
71	73	1
166	167	1
75	76	1
137	138	2
120	120	2
109	110	3
178	179	1
138	139	1
32	41	1
137	137	1
29	67	1
101	102	1
88	88	2
86	156	1
142	157	1
11	11	3
36	85	1
5	7	1
18	36	1
187	187	2
100	101	1
180	180	1
45	47	1
41	54	1
121	121	2
60	93	1
175	178	2
110	110	1
13	17	1
142	146	1
32	33	1
19	26	1
148	148	1
172	180	1
140	142	1
118	120	1
76	78	1
157	167	1
53	103	1
156	158	2
184	185	1
168	169	1
58	58	1
128	129	2
62	64	1
182	183	1
39	55	1
150	173	1
36	37	2
129	130	3
43	44	2
136	142	1
80	82	1
12	12	1
101	187	1
100	102	1
21	21	4
38	39	1
25	26	1
54	74	1
38	40	1
61	61	1
32	32	1
160	163	1
12	176	1
160	164	1
180	181	1
121	134	1
39	49	1
159	159	1
121	122	1
73	73	4
125	125	2
133	137	1
141	143	2
146	148	1
117	118	2
174	175	2
13	47	1
2	5	1
31	36	1
62	63	1
24	25	3
88	104	1
121	123	1
154	155	1
78	82	1
156	157	1
127	147	1
31	32	1
21	32	1
113	130	1
84	86	1
54	54	1
126	183	1
36	71	1
53	53	1
73	140	1
28	31	1
130	131	1
8	89	1
87	106	1
125	128	1
66	67	1
89	108	1
85	129	1
119	166	1
74	77	1
54	55	1
42	44	1
33	34	1
7	8	1
130	136	1
179	179	1
164	166	1
57	77	1
60	61	1
71	72	1
129	146	1
97	98	1
87	172	1
28	80	1
158	158	1
115	116	1
67	136	1
118	157	1
137	148	1
92	114	1
99	100	1
8	8	1
38	43	1
110	139	1
175	184	1
94	94	1
