162	162	4
16	52	1
19	19	5
8	9	2
21	24	1
9	9	5
15	43	2
134	135	1
159	159	2
2	2	5
153	153	6
80	80	6
102	102	3
21	22	1
128	128	7
51	51	3
98	98	3
85	102	2
169	169	5
17	54	1
70	70	5
146	146	3
39	149	1
114	114	3
11	11	6
14	14	8
33	34	3
165	165	3
150	150	6
126	126	7
84	85	1
77	78	1
62	63	3
108	108	4
168	169	3
163	165	1
42	42	2
94	97	3
95	116	1
86	103	2
17	112	1
157	157	8
43	43	9
88	90	2
69	70	1
161	161	4
85	85	4
16	16	3
81	81	4
160	160	7
140	143	2
18	18	1
96	96	2
18	19	2
142	143	3
148	148	7
158	158	6
82	83	3
53	53	5
134	134	5
35	35	8
107	107	3
111	123	1
117	153	1
105	106	1
132	152	1
143	157	2
36	36	15
8	8	4
136	137	4
106	106	4
54	54	3
119	119	3
147	148	1
64	64	4
0	2	2
17	17	3
91	99	1
131	168	2
4	158	1
90	90	4
132	132	3
138	138	7
124	127	1
170	170	2
15	126	1
48	50	2
5	14	1
41	41	6
0	0	5
144	170	1
94	94	2
122	122	7
39	167	1
133	133	2
6	6	7
139	139	3
13	14	4
123	123	6
48	49	1
12	12	4
4	4	2
149	149	5
48	165	1
20	20	3
145	145	2
11	12	2
156	157	1
74	75	2
50	50	4
111	111	5
136	154	1
55	56	2
127	127	3
140	140	5
16	138	2
73	73	4
88	88	1
46	46	6
108	109	2
22	22	4
159	161	1
40	40	3
159	160	2
99	99	5
44	45	1
76	76	3
162	165	2
112	112	2
151	151	6
89	89	1
120	120	3
100	124	1
12	49	1
74	80	2
47	47	4
145	146	1
63	79	1
117	117	4
21	25	2
21	21	3
49	49	2
154	154	1
83	86	1
102	103	1
70	99	1
73	83	1
140	141	2
142	142	6
45	45	6
10	49	2
6	7	2
147	147	1
122	123	1
105	105	4
65	66	3
7	8	2
66	164	1
153	155	1
125	125	5
141	141	1
149	159	1
96	97	1
130	130	3
75	76	1
71	71	5
93	94	1
5	26	1
82	82	2
27	28	2
109	147	1
91	91	2
71	96	1
95	101	1
37	38	2
53	55	2
49	50	2
12	48	1
36	37	1
125	164	1
110	110	2
89	90	1
122	125	1
28	28	1
12	13	1
156	156	4
113	113	1
15	15	4
10	10	2
114	153	1
56	56	2
168	168	5
33	33	3
17	18	2
3	3	3
7	16	3
88	89	3
5	5	2
100	112	2
25	25	4
11	49	1
12	106	1
149	150	1
93	93	2
72	73	1
35	36	1
96	111	1
26	27	3
26	26	4
1	1	2
155	157	1
6	26	1
47	51	2
124	124	2
150	151	3
90	106	2
117	118	5
118	121	1
48	51	1
74	90	1
67	68	1
151	153	1
7	7	2
123	125	1
103	104	1
39	160	1
155	155	2
47	88	1
161	164	1
107	109	1
137	137	12
86	150	1
63	75	1
101	101	1
132	153	1
96	98	1
86	100	1
39	40	1
47	56	1
34	35	1
57	57	2
80	83	1
166	166	2
84	84	5
107	111	1
87	87	6
144	145	1
12	18	1
45	47	1
42	160	2
86	86	3
36	42	1
56	69	1
70	82	2
132	133	2
160	169	1
84	127	1
92	92	1
34	34	5
119	120	1
27	27	4
140	164	3
12	144	2
45	46	1
33	39	1
3	16	1
56	82	1
112	113	1
120	121	2
121	126	1
68	69	1
71	72	1
78	78	3
143	143	4
74	112	1
51	52	2
90	140	1
114	116	1
154	156	1
13	36	1
131	131	2
74	74	2
152	152	1
69	69	3
56	57	2
99	117	1
127	129	1
83	84	1
16	129	2
35	41	1
38	38	4
43	44	3
153	154	1
87	153	2
52	52	4
87	89	1
24	24	4
14	54	1
37	37	3
57	71	1
39	39	2
135	135	3
62	62	1
162	163	3
14	15	1
44	44	4
78	79	2
135	139	2
157	158	1
138	139	2
27	35	1
93	117	1
115	115	2
73	95	1
163	163	1
11	25	1
79	79	1
90	144	1
13	13	4
84	87	1
41	69	1
100	101	1
42	43	1
101	117	1
164	164	1
66	79	1
154	155	1
95	95	1
23	23	2
120	152	1
13	15	1
83	83	2
119	131	1
24	25	2
115	117	1
39	109	1
81	100	1
101	103	1
128	129	1
63	63	2
41	108	1
64	76	1
111	130	1
11	43	1
9	25	1
154	157	1
13	16	1
4	5	1
72	72	1
136	136	1
5	11	1
77	89	1
69	71	1
151	166	1
159	164	1
155	156	1
66	67	2
141	162	1
85	88	1
111	112	1
119	125	1
162	164	1
121	121	3
94	95	1
141	143	1
64	72	1
110	111	1
154	166	1
52	56	1
7	10	1
119	135	1
106	107	1
164	165	1
66	85	1
168	170	1
51	76	1
25	26	1
166	167	1
1	3	1
20	90	1
39	139	1
146	148	2
122	124	1
7	138	1
143	144	1
56	64	2
107	108	1
114	117	1
47	49	1
22	23	2
40	170	1
10	40	1
73	76	1
74	76	1
36	90	1
84	89	1
11	13	1
24	114	1
101	102	1
97	97	2
19	145	1
97	99	1
38	40	1
145	155	1
9	10	1
20	23	1
125	126	1
93	100	1
167	167	1
71	73	1
97	98	1
129	141	1
53	58	1
89	105	1
75	75	1
119	126	1
112	157	1
118	118	1
144	144	1
76	101	1
0	28	1
51	70	1
19	23	1
