34	35	1
35	35	2
125	125	6
8	9	1
152	152	2
124	124	3
73	73	2
145	146	3
127	127	3
121	121	6
24	24	2
78	78	2
56	56	2
135	136	1
19	19	5
108	108	4
28	29	1
45	46	1
135	150	1
53	53	2
54	54	1
131	131	2
12	12	3
138	147	1
84	84	4
77	77	2
32	32	2
30	30	3
39	39	5
97	97	5
7	7	3
80	81	1
139	142	1
13	84	1
42	42	5
10	12	1
116	117	1
9	9	6
32	34	1
3	9	1
16	31	1
14	31	1
14	15	1
139	140	2
8	8	4
37	40	1
42	43	2
139	139	5
47	47	4
64	65	2
21	21	2
153	153	1
123	124	3
124	128	1
87	87	2
67	67	2
17	17	5
137	138	1
113	114	1
129	129	2
4	4	7
51	96	2
62	63	1
25	26	1
11	11	6
21	23	1
27	30	2
123	123	3
31	38	2
105	105	2
99	99	4
16	16	1
8	15	1
81	81	2
125	126	1
105	116	1
51	52	1
95	95	1
126	127	2
95	96	1
34	34	4
94	113	2
134	135	2
114	114	3
53	54	1
127	128	2
80	80	1
104	104	1
57	57	4
133	133	5
71	74	2
126	126	2
106	107	1
38	39	1
144	144	5
98	99	2
96	96	2
70	70	2
98	98	2
90	90	2
83	84	1
67	77	2
12	17	1
123	128	2
79	79	1
66	66	4
13	13	2
109	109	2
38	38	6
137	137	1
64	79	1
77	78	1
137	139	1
49	49	1
102	123	2
115	115	2
99	108	1
132	132	3
22	45	2
30	33	1
69	70	1
75	75	3
102	102	1
128	128	2
90	93	1
106	120	1
103	115	1
112	112	2
110	126	1
142	143	2
134	134	2
77	123	1
24	109	3
63	93	1
71	120	1
111	146	2
23	23	2
25	110	2
138	138	1
89	94	1
126	128	2
107	107	1
92	92	1
85	85	3
110	110	5
27	27	2
43	43	2
124	125	1
75	97	1
125	128	1
14	14	3
50	50	4
86	92	1
22	22	2
24	133	2
116	116	3
7	18	1
82	82	1
13	14	1
138	139	1
35	36	3
33	35	1
24	33	1
27	31	2
136	136	2
84	85	1
28	32	1
63	122	1
45	45	3
151	151	4
136	138	2
13	46	1
72	72	2
23	24	1
68	68	1
149	149	1
122	122	4
83	83	4
109	123	1
80	87	1
100	102	1
46	46	4
86	87	1
63	66	1
147	147	1
23	26	1
146	146	1
14	16	2
148	148	3
36	36	4
150	150	3
114	115	1
82	84	1
85	87	1
7	9	1
37	37	3
3	145	2
117	117	1
66	67	2
18	19	1
40	40	1
51	54	1
104	132	1
42	127	1
51	51	2
40	45	2
103	104	1
73	85	1
119	119	2
147	148	1
41	132	1
104	105	1
40	41	2
115	117	1
136	137	1
44	44	2
96	108	1
67	68	1
65	65	2
51	53	1
33	94	1
20	21	1
130	131	1
62	65	2
102	118	1
117	137	1
139	141	1
69	69	1
123	125	1
111	111	1
55	55	2
7	8	1
4	36	3
30	142	1
20	42	1
129	133	1
101	101	3
80	82	1
41	41	1
74	74	1
18	18	2
129	130	1
107	108	1
100	113	1
97	98	1
75	76	1
145	145	2
37	99	1
30	31	1
6	22	1
136	149	1
106	106	1
89	90	1
131	132	2
96	97	1
90	91	1
94	94	1
69	119	1
50	53	1
46	118	1
15	23	1
98	104	1
108	110	1
29	30	2
42	132	1
134	151	1
47	154	1
26	26	1
38	108	1
46	135	1
81	82	2
9	10	1
6	6	1
52	53	1
25	25	1
140	141	1
75	86	1
67	120	1
125	127	1
118	118	1
127	133	1
23	109	1
79	85	1
66	85	1
70	122	1
93	114	1
25	27	1
74	75	1
