99	99	6
79	154	1
134	134	5
66	66	3
18	18	4
118	125	1
0	0	6
90	101	1
23	23	14
49	49	5
1	1	5
53	82	1
72	72	2
141	165	1
117	117	3
148	148	8
4	5	3
58	75	1
14	140	1
39	39	7
25	25	6
44	44	10
14	14	7
46	46	5
101	105	1
170	170	9
37	37	4
140	161	1
89	107	1
79	79	5
111	111	4
66	67	2
73	73	5
137	137	8
88	88	5
22	22	3
138	139	4
4	15	2
93	168	1
71	129	2
107	107	4
149	150	2
101	104	3
158	159	2
52	52	6
83	83	6
84	85	3
13	57	1
164	165	3
54	54	3
125	125	6
107	110	2
21	22	3
18	47	1
87	91	1
44	45	3
17	18	5
6	6	8
45	45	5
144	144	6
116	141	1
48	49	4
16	49	1
37	158	1
147	147	5
26	27	1
73	74	1
110	111	3
98	98	3
158	158	4
15	15	6
87	87	4
81	82	4
86	86	5
157	157	6
104	104	7
51	52	2
146	146	9
13	14	3
91	92	1
103	103	2
2	26	1
24	24	7
106	106	5
169	170	1
77	78	4
8	24	2
138	142	1
34	34	2
155	157	1
62	62	4
51	51	5
49	56	1
86	87	1
136	136	7
139	160	1
152	152	4
161	161	5
39	40	5
138	138	6
48	48	3
17	19	1
103	130	1
90	105	2
36	36	5
109	109	2
3	4	3
76	76	1
119	119	8
125	158	1
106	107	4
12	13	3
155	155	9
156	157	1
71	101	2
147	169	1
4	4	6
79	80	1
17	17	3
129	129	6
64	65	2
126	130	1
66	70	2
156	156	8
46	47	2
26	26	5
154	154	6
115	116	1
70	89	1
149	166	1
139	139	6
150	157	1
7	7	4
27	41	1
50	50	3
82	125	1
35	35	5
8	10	1
15	43	1
40	40	7
3	3	3
2	2	2
160	160	4
105	139	1
128	128	7
133	135	1
142	142	2
118	159	1
27	27	5
115	129	3
80	80	6
63	63	2
141	142	1
38	38	3
7	166	1
85	85	5
23	24	1
49	50	1
136	156	1
101	101	3
82	82	1
136	139	1
8	8	5
9	9	2
21	50	1
122	122	4
11	57	1
66	68	1
19	23	1
44	57	1
15	16	3
56	56	4
132	134	1
166	166	3
19	20	1
133	133	7
140	156	1
87	169	4
69	70	2
121	121	3
110	110	3
142	143	2
112	135	2
8	11	2
79	136	1
6	47	2
119	125	1
86	102	1
118	118	7
47	47	4
64	71	2
74	78	1
33	35	1
100	122	1
88	89	4
159	160	2
102	102	1
10	19	1
126	126	2
16	38	1
132	133	1
151	152	3
167	167	6
26	50	1
154	155	2
145	145	6
12	12	6
5	6	2
136	157	2
71	71	5
55	55	2
127	127	5
3	13	1
20	132	1
73	75	1
119	150	1
162	162	5
163	163	4
20	53	1
121	147	2
150	150	4
143	143	7
41	41	4
164	164	8
21	21	8
10	10	10
157	158	2
68	69	4
100	101	1
125	132	1
130	143	1
120	120	1
133	134	1
42	42	4
122	123	1
66	129	1
38	39	1
76	80	1
146	166	1
148	159	1
90	109	2
67	85	1
137	164	1
18	19	3
58	58	2
78	79	3
162	163	1
79	86	3
11	87	1
33	34	1
111	112	3
34	35	1
105	105	6
65	68	2
11	20	1
11	12	6
81	81	2
13	13	4
167	168	4
139	143	1
96	111	1
23	39	1
120	122	1
129	130	1
0	7	1
70	75	1
119	157	1
100	100	1
53	53	3
62	67	1
5	5	3
130	139	1
3	10	1
151	151	5
141	141	4
113	113	4
124	124	5
11	11	4
92	93	2
99	100	2
140	141	2
114	114	1
129	134	1
70	79	1
100	118	1
129	152	2
21	24	1
11	13	3
130	154	2
127	130	1
160	161	1
140	145	1
123	123	4
152	154	1
90	138	1
108	109	2
161	163	2
53	100	1
130	130	1
155	156	2
91	91	3
72	73	1
20	24	1
16	36	1
150	158	1
92	96	1
0	8	1
93	94	2
131	133	2
16	44	1
46	56	1
14	26	1
19	19	3
134	135	2
95	95	2
149	149	3
99	113	1
140	142	1
17	117	1
140	140	1
64	64	2
113	118	1
112	112	3
69	69	2
151	163	1
102	104	1
38	126	1
110	131	1
119	126	1
143	149	1
153	154	1
90	90	2
47	52	1
169	169	5
43	43	5
51	120	1
0	12	1
151	162	1
19	78	2
131	131	1
34	43	1
108	108	2
134	151	1
92	92	2
121	123	1
67	79	1
19	52	1
50	82	1
74	74	3
47	48	1
166	167	1
38	135	1
55	65	1
0	1	1
145	148	1
5	11	1
20	21	2
161	162	1
165	165	2
114	127	1
124	126	1
5	41	1
16	16	2
94	95	1
101	103	1
168	168	3
10	12	1
51	97	1
120	141	1
21	154	1
78	78	2
42	157	1
90	125	1
139	140	5
28	28	1
119	121	1
159	167	1
46	48	1
82	83	1
83	86	2
44	46	1
130	138	1
142	155	1
20	25	1
77	77	2
145	152	1
139	147	2
118	163	1
45	46	3
118	119	2
9	154	1
124	125	2
48	87	1
94	94	2
2	3	1
46	71	1
64	70	2
89	89	5
117	131	1
27	28	1
97	134	1
50	51	2
53	54	2
39	91	1
14	108	2
90	91	1
120	123	2
122	125	1
147	148	2
85	86	1
92	94	2
107	108	1
70	70	2
73	76	1
155	169	1
97	97	2
163	164	3
129	137	1
89	137	1
101	102	1
22	23	2
141	146	1
132	132	2
159	159	1
112	113	1
47	54	1
136	160	1
116	150	1
24	25	2
126	140	1
93	93	2
4	17	1
6	27	1
76	105	1
39	41	1
129	142	1
144	153	1
162	164	1
109	164	1
14	16	1
14	15	1
137	138	2
136	137	3
139	154	1
129	133	1
7	8	1
19	47	1
116	116	1
75	75	1
128	142	1
68	68	1
56	57	1
139	144	1
42	43	2
151	154	1
121	139	1
143	147	1
155	158	1
89	90	2
144	163	1
27	137	1
14	125	1
8	9	3
51	56	2
7	49	1
168	169	1
116	144	2
47	51	1
132	154	1
115	115	1
114	120	1
67	69	2
43	147	1
12	149	1
94	104	1
24	136	1
163	165	1
152	153	1
15	68	1
97	98	3
135	135	1
1	2	2
105	116	1
10	11	2
106	130	1
54	55	1
153	153	3
13	28	1
12	15	1
156	163	1
146	151	1
48	63	1
96	99	1
125	126	1
16	24	1
45	71	1
56	163	1
100	132	1
18	20	1
135	160	1
83	106	1
25	139	2
79	100	1
97	99	1
2	4	1
102	126	1
17	21	1
148	166	1
72	74	1
138	140	1
161	166	1
49	76	1
130	152	1
20	138	1
126	139	1
12	40	1
49	53	1
21	70	1
64	69	1
120	124	1
132	139	1
87	88	1
2	43	1
