129	129	1
155	155	4
19	19	5
160	160	3
93	93	2
111	111	2
15	15	4
154	160	2
113	113	6
57	57	4
166	166	3
46	46	2
74	74	1
126	126	3
3	3	3
48	97	1
90	90	2
55	55	1
159	159	2
135	143	3
71	110	1
116	116	2
157	157	1
134	136	1
88	88	2
25	25	2
163	163	2
23	24	1
151	151	1
14	14	2
156	157	1
90	100	1
149	149	4
26	26	2
156	156	2
12	12	2
70	70	3
42	42	3
34	34	1
77	77	1
118	121	2
10	10	1
152	152	1
33	33	1
114	115	1
17	53	3
134	134	2
133	133	1
6	22	1
97	111	1
112	112	3
158	158	3
93	94	1
13	13	3
81	84	2
135	136	4
145	145	4
97	97	5
137	165	1
0	1	1
37	37	3
103	104	2
141	142	1
38	38	3
16	16	3
134	135	1
8	8	1
38	100	1
69	69	2
6	7	2
154	154	6
124	124	2
84	84	2
143	143	4
111	116	1
142	162	1
106	106	4
146	146	1
90	109	1
58	62	1
132	132	1
103	105	1
71	73	1
105	106	1
2	14	1
18	19	1
66	67	1
80	81	1
8	159	1
168	168	3
101	102	1
1	3	2
1	1	2
73	73	2
169	169	1
23	23	1
110	110	4
118	123	1
153	153	3
107	167	1
150	151	2
47	47	3
0	0	1
44	45	1
135	135	2
25	41	2
35	35	1
43	44	1
104	105	2
148	148	2
100	100	2
136	149	2
163	166	1
153	154	1
72	73	1
169	170	1
161	161	2
76	80	3
51	51	2
4	4	1
17	17	5
92	121	1
125	125	1
37	41	1
144	144	3
2	2	4
80	80	2
22	63	1
75	75	2
45	45	3
139	164	1
104	104	1
33	35	2
110	111	1
6	6	3
131	132	3
20	20	2
19	22	1
37	38	2
21	21	1
106	107	2
41	41	3
117	117	3
167	167	3
18	18	1
133	135	1
9	9	2
40	40	3
75	81	1
132	147	1
37	39	2
142	143	2
38	70	1
115	124	1
154	156	1
19	158	1
157	165	1
164	165	1
62	63	1
45	56	1
9	10	1
85	85	1
137	138	1
4	6	1
101	101	2
66	66	1
136	136	1
162	162	1
54	66	1
37	149	1
139	139	1
37	44	1
76	77	1
49	101	1
155	168	1
5	5	2
135	164	1
83	83	1
74	111	1
86	87	1
12	13	2
91	91	1
4	44	1
109	109	3
165	165	1
45	47	1
13	14	1
1	2	2
124	127	1
21	24	1
51	82	1
7	25	1
88	156	1
4	5	1
161	163	1
138	157	1
144	145	1
98	98	1
48	49	1
126	127	1
108	170	1
162	165	1
48	48	1
163	165	1
88	89	1
67	90	1
85	86	1
157	166	1
11	11	2
87	87	1
126	154	2
96	96	1
108	108	1
83	84	1
36	37	1
137	137	2
140	140	1
52	52	1
73	78	2
62	62	1
67	67	1
71	72	1
153	170	1
151	164	1
66	88	1
68	109	1
47	49	1
56	56	1
8	9	1
133	137	2
49	135	1
143	144	1
91	119	1
115	116	1
4	20	1
133	143	1
