129	129	3
34	34	3
90	90	1
111	111	3
88	89	1
102	102	3
139	139	6
110	111	3
133	134	3
37	37	3
130	130	8
101	101	1
127	127	3
138	139	2
106	106	4
124	125	2
107	107	8
134	135	1
26	26	1
126	126	8
100	100	5
122	123	1
15	16	2
115	115	7
0	13	1
5	5	2
111	112	2
32	34	2
122	122	6
113	114	3
118	118	3
80	87	3
140	140	4
117	117	4
120	122	3
105	105	4
76	76	3
132	133	1
0	0	2
110	112	1
134	136	1
104	107	1
4	14	1
84	84	1
93	97	1
132	132	3
125	125	2
83	83	1
133	133	8
81	81	1
93	93	3
15	17	1
97	97	5
27	32	1
121	121	6
9	17	1
7	8	1
135	136	1
116	116	7
81	82	2
87	87	2
94	94	4
3	4	3
124	124	4
14	15	1
115	117	1
114	114	4
107	108	1
45	75	1
135	135	4
108	112	1
80	119	1
98	98	2
32	33	1
101	111	1
110	110	3
79	79	2
35	35	2
108	109	1
86	87	3
82	82	4
32	32	1
123	123	3
137	138	1
19	19	4
137	137	2
136	136	2
88	88	6
125	128	1
128	128	6
104	122	1
120	121	2
119	119	3
7	7	2
95	96	4
1	7	1
13	14	1
104	105	1
80	80	1
134	134	6
104	104	2
38	38	3
15	15	2
27	27	1
2	2	2
96	96	1
33	34	1
77	77	2
31	32	1
119	121	1
7	9	1
138	138	1
137	139	1
113	113	5
103	108	1
77	88	2
95	97	2
4	4	3
118	120	2
109	109	1
3	3	2
95	95	3
89	127	1
106	111	1
131	131	5
84	85	1
123	124	4
18	18	1
0	9	1
94	95	3
101	123	1
121	122	1
106	107	1
73	73	1
16	17	1
74	77	1
17	17	1
112	112	1
89	89	1
1	2	1
71	71	1
99	128	1
37	125	2
87	107	1
6	6	1
9	9	1
73	74	1
128	129	1
81	85	1
42	68	1
26	34	1
91	91	1
33	33	1
82	104	1
75	75	1
107	114	1
14	14	1
92	92	1
103	104	1
4	6	1
120	120	1
86	86	2
116	117	1
74	74	1
90	124	1
36	36	1
119	120	1
85	85	1
125	126	1
140	141	1
18	19	1
113	115	1
100	101	1
