44	45	2
30	30	2
204	205	1
213	213	2
227	227	1
6	7	2
19	19	7
179	180	3
22	25	1
47	47	3
28	28	6
18	18	2
56	56	2
53	53	4
70	101	1
200	200	4
232	233	2
38	39	3
243	244	2
4	4	4
29	29	5
33	41	1
104	105	1
201	201	3
38	38	3
66	67	1
12	12	5
219	219	2
241	241	5
22	22	3
237	239	1
221	222	1
63	63	3
247	247	3
59	59	5
218	218	1
224	224	5
66	66	2
244	245	1
43	43	5
154	154	2
71	71	3
156	161	2
11	11	7
190	191	1
175	175	4
27	39	1
41	41	2
226	226	3
21	21	3
43	157	1
198	198	3
203	203	2
44	44	2
229	229	3
154	158	2
35	35	3
190	192	1
119	120	1
116	116	5
101	101	1
46	54	1
237	237	2
150	150	5
178	179	1
110	112	1
217	217	2
24	24	2
47	51	2
155	156	2
77	78	1
2	2	2
177	186	1
243	246	2
25	26	3
68	68	2
216	217	3
27	27	3
171	171	3
230	230	1
204	204	8
199	199	4
167	167	3
205	206	1
85	85	4
14	14	4
90	90	5
94	94	4
212	212	3
70	74	1
183	201	1
108	108	1
205	205	3
48	48	2
160	182	1
55	55	3
80	80	1
188	190	2
180	180	4
3	3	4
114	114	6
165	165	3
9	9	4
76	77	2
246	246	3
25	149	1
17	18	1
89	89	2
202	202	2
17	19	1
72	74	1
245	246	2
181	202	2
181	183	1
98	98	1
216	218	1
186	212	2
110	110	5
53	54	1
166	166	3
7	42	1
112	116	1
39	39	3
45	45	5
236	236	4
186	187	3
240	244	1
21	22	1
95	95	2
151	151	4
33	33	6
170	232	1
186	188	1
195	197	1
201	228	1
178	178	1
84	84	3
3	7	1
183	183	6
107	107	6
240	240	2
66	232	1
26	26	3
208	208	4
115	115	4
214	231	1
51	111	2
46	53	2
192	192	3
17	17	3
31	32	2
168	179	1
183	211	2
65	65	2
51	51	1
234	235	1
220	220	2
172	173	1
238	239	1
181	181	3
5	7	1
68	76	1
177	177	2
174	178	2
88	88	2
76	208	1
96	97	1
208	209	2
182	182	3
15	15	3
34	34	4
8	8	1
20	20	4
200	222	1
160	160	4
157	157	2
59	88	1
168	168	1
152	153	1
23	35	1
204	226	1
197	197	2
225	225	1
157	158	2
92	229	2
205	226	1
32	40	1
7	7	2
57	58	1
203	204	1
168	189	1
202	203	1
5	93	2
50	50	1
42	42	2
167	206	1
159	159	2
210	210	3
244	244	4
72	72	1
183	204	1
150	162	1
77	77	3
233	233	2
242	242	2
82	105	1
226	227	2
48	109	1
59	60	1
230	231	2
76	76	1
192	241	2
195	196	4
219	240	1
211	211	3
231	233	1
87	114	1
165	200	2
175	176	1
10	10	1
164	164	3
73	73	2
163	164	1
222	223	1
222	222	1
176	177	2
153	154	1
75	76	2
154	155	1
152	152	1
153	153	2
52	68	1
18	19	1
231	231	2
162	162	1
190	209	1
180	200	1
88	89	1
34	41	1
5	6	1
220	237	1
46	46	2
224	228	1
37	37	1
57	57	2
214	216	1
81	81	1
61	61	2
87	87	1
99	101	1
52	53	2
11	52	1
19	20	2
5	5	2
7	8	2
168	169	1
175	178	1
186	186	1
113	115	1
44	100	1
27	28	1
171	201	2
234	238	1
240	241	1
207	207	1
201	202	1
62	62	4
207	245	1
23	23	1
209	209	2
57	80	1
171	186	1
64	64	3
156	157	2
208	213	1
156	156	2
196	196	3
100	100	2
26	43	1
207	226	2
102	102	2
14	16	1
100	101	1
158	158	2
114	115	1
155	155	2
91	91	1
97	98	1
85	145	1
179	189	1
232	232	2
78	84	2
84	92	1
146	146	1
174	174	2
184	207	2
15	19	1
92	92	2
184	184	2
1	1	3
97	97	1
67	86	1
102	104	1
17	204	1
207	208	2
28	35	1
206	206	1
60	60	1
7	41	1
21	27	1
6	6	1
71	76	1
234	234	2
74	74	3
153	197	1
75	75	1
31	31	2
63	173	1
62	100	1
206	207	1
214	244	1
56	57	1
215	215	1
191	192	2
15	42	1
190	190	1
169	169	1
93	94	1
175	201	1
40	40	2
191	194	1
211	242	1
173	187	1
86	86	1
118	159	1
238	238	1
85	95	1
211	245	1
15	16	1
109	109	2
163	163	1
219	249	1
185	186	1
208	241	2
57	60	1
89	90	1
2	153	1
174	210	1
102	103	1
23	24	1
89	106	1
14	15	1
219	220	1
59	61	1
187	191	1
96	96	1
97	99	1
15	26	1
183	188	1
245	245	2
37	38	1
147	147	1
93	93	1
78	78	1
219	221	1
213	226	3
112	112	2
55	242	1
227	228	1
103	105	2
2	94	1
173	173	1
10	53	1
224	231	1
110	150	1
163	191	1
25	112	1
67	67	1
168	171	1
17	167	1
215	217	1
47	100	1
213	229	1
68	95	1
42	44	1
207	235	1
28	29	1
70	70	2
179	179	1
152	185	1
197	198	1
170	171	1
27	29	1
188	188	1
114	146	1
54	54	1
