153	153	4
111	111	5
95	97	1
142	142	1
91	91	2
29	29	3
129	130	1
158	158	3
5	5	3
145	145	1
127	127	5
148	148	4
99	99	6
123	123	3
104	104	1
84	84	2
36	40	2
99	100	1
94	94	2
133	134	1
96	104	2
49	49	3
117	117	1
121	121	3
50	50	2
36	36	3
26	26	2
114	115	1
27	27	4
64	64	1
151	151	2
101	101	3
109	110	1
42	51	1
118	119	1
93	119	1
154	154	4
71	72	1
22	22	4
122	122	2
106	106	5
140	141	2
105	105	4
156	156	3
73	73	4
88	88	2
8	8	3
6	6	3
150	156	1
83	83	2
96	96	2
107	107	3
141	146	1
143	143	1
25	25	1
136	136	3
72	72	4
140	140	2
13	13	1
135	141	2
1	1	2
98	98	3
111	112	1
120	153	1
118	118	2
109	118	1
65	65	1
73	98	1
125	125	2
53	53	1
119	120	3
144	146	1
45	46	2
129	129	4
113	121	1
33	34	1
18	18	2
155	155	3
43	43	2
33	44	1
112	115	1
157	157	2
152	154	1
133	133	1
128	128	5
57	57	1
138	139	1
68	119	1
30	30	3
82	82	2
20	20	1
100	100	1
139	142	1
23	25	1
56	56	1
75	75	4
21	51	1
2	2	2
132	132	3
122	148	1
16	16	1
120	134	1
7	7	1
51	67	1
25	107	1
63	64	1
144	144	2
81	82	1
76	77	1
19	34	1
146	146	2
87	118	1
87	87	1
124	124	2
76	76	4
106	150	1
47	47	1
103	103	2
95	112	1
78	78	1
5	6	1
39	55	1
62	137	1
62	62	2
96	142	1
23	23	2
125	126	1
152	152	2
70	70	2
131	131	2
99	128	1
14	14	1
150	151	2
152	153	1
149	151	1
86	87	1
157	158	1
42	42	1
3	4	1
68	68	1
129	139	1
130	130	3
33	39	1
53	54	1
33	33	2
96	97	2
54	54	1
1	2	1
116	124	1
126	135	1
118	120	1
97	98	1
113	115	2
135	136	1
120	120	1
114	114	1
31	31	1
3	3	2
89	111	1
90	90	1
55	91	1
137	137	1
73	99	1
147	147	1
67	67	4
133	151	1
133	135	1
94	95	1
0	0	1
116	141	1
89	89	1
92	112	1
112	113	1
95	95	1
111	136	1
39	39	1
70	71	1
41	41	1
62	63	1
53	55	1
122	123	1
134	137	1
127	128	1
24	24	1
92	95	1
