132	163	2
111	111	2
20	21	1
100	100	1
49	49	3
69	71	1
34	35	2
93	120	1
143	143	3
80	82	1
9	9	2
43	43	3
108	119	1
64	64	5
44	47	1
166	166	1
14	14	3
6	7	1
151	151	2
26	26	5
81	81	3
145	146	1
135	136	1
125	143	1
73	73	2
146	146	5
152	155	1
90	90	2
150	159	1
86	86	1
73	74	1
66	68	1
70	77	1
139	139	4
70	70	4
142	147	1
21	22	1
82	125	1
113	113	2
137	138	1
22	152	1
66	133	1
16	16	1
160	160	2
51	83	2
144	167	1
131	131	1
69	69	2
121	121	1
47	47	2
76	76	4
92	92	2
13	27	1
5	6	1
62	91	1
138	138	1
55	56	1
76	79	2
108	108	4
102	114	1
144	145	1
135	144	1
123	123	1
98	99	1
58	58	1
154	154	4
94	95	1
110	110	2
148	148	2
158	158	4
44	134	1
137	137	3
100	104	1
124	129	1
129	133	1
11	12	1
117	117	2
47	63	1
138	139	1
2	2	1
66	69	1
28	28	1
134	141	1
33	33	1
149	150	2
89	89	3
40	41	1
5	5	3
107	109	1
93	93	2
151	169	1
130	130	2
24	24	1
22	146	1
162	165	1
152	153	2
72	72	1
20	20	1
135	135	1
147	148	1
158	169	1
6	39	1
129	129	1
145	145	2
44	44	3
74	74	2
70	80	1
95	95	1
119	119	1
150	150	2
122	122	1
136	136	1
39	41	1
139	140	1
38	38	1
64	67	1
161	161	1
15	15	4
123	125	1
34	34	1
71	71	2
84	168	1
14	15	1
140	141	1
109	109	2
150	160	2
168	168	1
3	3	3
62	62	2
106	106	1
170	170	1
35	35	1
7	7	2
128	128	1
18	18	1
57	57	1
130	157	1
114	115	1
12	12	1
136	139	1
98	98	1
87	89	1
125	125	1
136	137	1
156	156	1
72	163	1
57	128	1
37	37	3
140	140	1
107	107	2
153	167	2
66	66	1
27	27	1
120	121	1
164	165	2
134	135	1
85	101	1
109	119	1
42	42	1
149	170	1
88	88	1
74	75	1
168	169	1
159	159	1
112	113	1
85	85	2
11	11	3
94	94	1
91	93	1
133	133	4
139	145	1
165	165	1
163	163	1
114	152	1
98	102	1
109	167	1
164	164	3
72	94	1
17	17	1
163	166	1
48	54	1
4	4	1
15	16	2
10	38	1
135	137	1
54	54	1
169	169	2
129	130	1
55	55	1
79	79	1
121	122	1
138	160	1
162	163	1
36	36	1
13	13	1
140	153	1
96	96	1
145	165	1
21	21	1
154	156	1
