141	141	3
153	153	2
42	43	3
98	98	3
159	159	5
152	152	3
72	85	3
45	45	4
76	78	1
3	43	1
107	108	2
23	23	5
22	23	5
139	139	2
84	84	7
7	7	6
37	38	2
153	154	2
41	41	3
134	136	1
148	148	5
84	89	1
127	127	3
76	77	2
161	161	2
131	137	2
130	137	1
9	9	2
56	76	1
25	25	4
97	97	3
103	103	2
155	157	2
19	19	2
47	47	3
101	122	1
124	124	5
1	2	3
159	160	3
102	102	8
118	118	3
0	0	10
117	156	1
44	44	4
15	15	4
37	109	1
37	37	10
149	149	5
69	71	1
12	12	2
50	57	2
134	166	1
161	170	1
3	3	6
170	170	5
133	133	6
142	142	6
12	28	1
16	23	1
15	16	3
108	108	3
123	123	1
27	27	2
15	46	1
62	62	3
160	167	1
36	45	2
15	134	1
117	151	1
101	101	2
12	21	1
7	8	2
4	4	3
129	139	1
149	150	1
149	152	2
161	162	2
133	147	1
11	15	1
10	15	1
132	132	4
14	51	1
140	140	4
22	22	3
129	154	1
82	83	3
113	118	2
4	10	2
136	155	1
14	101	1
111	116	1
157	166	2
150	150	11
155	155	5
164	167	1
163	163	1
2	140	1
13	13	5
158	159	3
4	150	1
2	10	1
3	4	2
28	28	5
88	89	1
24	24	4
114	114	1
150	165	1
36	44	1
147	147	2
81	83	3
143	143	3
96	97	4
56	108	1
76	76	1
135	136	2
93	93	2
50	50	4
86	95	2
8	8	4
163	164	1
39	39	6
139	140	5
165	165	2
120	134	2
110	110	4
23	52	2
9	20	1
21	21	4
16	16	4
167	169	1
40	40	7
86	101	1
35	35	6
162	165	3
108	111	1
168	169	1
129	129	2
157	159	1
109	123	1
10	10	1
26	26	9
154	163	1
37	44	4
64	64	6
33	41	1
25	45	1
102	105	1
135	135	4
79	84	1
15	44	2
34	35	2
115	127	1
106	108	1
123	124	2
127	128	1
42	45	1
33	33	3
99	104	1
86	86	3
167	167	7
125	147	2
10	12	2
53	55	2
146	151	1
11	11	3
140	155	2
144	144	4
55	56	1
164	168	1
131	146	1
62	64	1
161	163	2
34	36	1
136	136	2
40	41	2
137	137	3
83	83	2
78	78	1
49	49	4
48	49	3
90	125	1
6	6	3
82	82	3
131	131	9
11	12	2
98	100	1
101	112	1
49	148	1
70	83	1
26	27	5
104	112	1
71	71	2
151	151	7
2	137	1
8	9	1
162	163	1
168	168	5
51	51	1
4	16	1
132	133	1
129	133	1
46	77	1
42	107	1
3	9	1
164	164	4
72	72	1
80	87	1
21	24	1
4	5	1
46	47	1
73	73	3
86	100	1
145	145	6
26	42	1
94	94	1
154	155	2
105	105	5
14	26	1
5	5	5
10	11	1
67	67	4
13	14	2
91	97	1
113	113	4
120	120	2
38	38	4
141	143	2
27	158	1
20	20	5
137	138	2
132	170	1
43	43	8
75	77	1
55	55	2
38	44	1
154	159	1
135	170	1
87	87	3
80	80	3
152	162	1
166	166	2
20	64	1
19	20	1
13	148	2
134	135	1
18	40	1
147	148	1
17	17	3
57	64	1
36	36	6
43	51	1
117	118	3
158	158	3
146	148	1
132	139	1
74	75	2
89	90	2
138	139	7
160	160	1
163	165	1
138	138	2
89	89	1
8	14	1
158	160	2
116	117	1
111	115	1
154	154	6
2	2	2
157	157	5
133	166	1
72	84	1
12	16	1
150	151	2
6	17	2
17	45	2
101	102	3
141	142	2
107	107	3
69	77	2
69	69	1
14	42	1
41	106	1
70	79	1
126	126	1
64	65	2
107	136	1
22	40	1
100	100	1
35	42	1
45	46	2
128	146	2
159	169	1
167	168	1
166	167	1
33	34	1
56	56	5
91	100	1
6	19	2
158	169	1
1	1	2
122	159	1
134	134	2
116	116	3
149	162	1
91	91	2
116	143	1
157	158	6
52	52	2
71	112	1
65	67	1
38	80	1
101	104	1
34	34	1
128	128	3
52	54	3
22	28	1
78	79	2
99	99	4
53	53	2
11	14	1
42	42	4
130	130	4
102	104	1
46	53	1
1	7	1
91	101	1
69	70	2
121	121	3
148	155	1
119	130	1
119	119	4
88	98	1
0	1	3
1	120	1
144	145	1
38	45	1
24	25	2
23	24	4
132	137	1
55	67	1
130	140	1
77	94	1
103	104	1
4	38	1
152	153	1
125	125	1
164	165	1
105	107	1
77	77	3
66	74	1
112	112	3
70	70	2
88	88	1
0	12	1
13	45	1
156	156	5
49	50	1
151	154	1
50	58	1
25	26	4
87	133	2
147	150	1
26	28	1
104	109	1
4	6	1
169	169	3
100	118	1
93	105	1
1	155	1
114	127	1
50	52	1
86	142	1
109	110	1
14	16	1
130	138	1
37	90	2
79	79	3
128	141	2
65	66	2
54	54	1
81	82	2
50	148	1
72	76	1
57	57	1
74	109	1
90	90	1
10	76	1
118	152	1
12	19	1
94	99	1
64	66	1
79	148	1
92	93	1
24	33	1
129	131	1
44	46	1
148	149	1
14	14	7
7	14	1
7	15	1
106	106	1
46	56	2
21	23	2
86	89	1
46	46	1
137	169	1
110	111	1
82	86	1
106	107	1
126	130	1
83	91	1
162	162	2
82	102	1
39	40	2
7	24	1
14	20	1
154	165	1
104	104	1
145	146	1
20	22	2
135	137	2
56	58	1
41	42	1
21	22	1
131	140	1
149	158	2
115	115	3
74	74	1
146	154	1
109	109	2
12	22	1
68	68	1
74	85	2
156	168	1
73	74	1
145	155	1
12	13	1
40	108	1
53	71	1
122	122	1
128	129	1
146	163	1
20	40	1
102	103	1
90	91	1
143	152	2
4	14	1
2	164	1
84	85	1
118	120	1
85	85	1
109	118	1
75	76	1
10	77	1
143	144	1
18	19	1
57	62	1
116	124	1
129	149	1
126	159	1
152	159	1
101	103	1
81	86	1
143	148	1
79	80	1
71	89	2
159	165	1
5	23	1
8	12	1
119	120	1
52	55	1
48	48	2
153	156	1
114	118	1
6	9	1
71	72	1
123	125	1
91	92	1
156	160	1
25	41	1
90	118	1
48	50	1
104	107	1
