125	126	1
139	139	4
88	90	2
30	37	1
110	111	1
50	50	2
9	12	1
48	48	6
83	85	4
21	21	2
141	141	1
38	38	10
17	120	1
28	28	1
94	94	1
97	97	2
11	30	1
10	10	3
27	28	1
135	135	4
150	150	1
114	114	3
15	17	2
68	69	2
9	71	2
76	76	2
45	57	1
13	13	4
137	137	3
136	136	2
45	45	3
149	149	1
33	37	1
106	106	4
45	46	2
17	19	1
28	32	3
107	117	1
153	153	4
21	24	1
95	104	1
54	54	2
19	19	3
15	141	1
27	41	2
13	41	1
96	99	1
103	103	4
25	25	4
3	3	1
129	129	1
24	24	2
132	132	2
22	23	2
29	30	1
22	24	1
68	68	1
148	148	1
80	83	1
49	49	4
117	118	1
125	125	2
13	37	1
123	133	1
9	9	2
123	123	1
67	67	1
71	71	3
33	35	1
14	14	2
18	19	1
41	41	2
106	108	1
19	23	2
32	33	4
33	33	1
27	27	2
47	47	3
129	134	1
45	53	1
12	12	2
51	74	1
101	102	3
109	109	3
113	113	3
75	77	1
90	90	1
11	11	1
64	111	1
115	116	2
38	39	3
117	117	6
65	65	4
87	87	1
70	117	1
126	146	1
78	78	1
27	42	1
11	12	1
131	131	1
47	48	1
55	56	1
70	70	5
102	103	2
51	51	1
45	95	1
86	113	1
64	64	2
95	97	1
83	83	2
124	124	2
144	149	1
27	30	1
142	143	1
145	145	1
99	99	3
55	117	2
75	78	1
66	66	2
86	108	1
12	44	1
102	102	1
93	93	2
108	108	1
107	131	1
131	135	1
58	58	1
72	72	2
107	107	1
140	140	1
57	57	1
134	134	1
15	16	1
34	34	1
102	123	1
12	15	1
121	122	2
55	55	3
44	44	3
5	7	1
48	65	1
53	53	4
44	46	1
67	69	1
80	80	1
145	148	1
16	23	1
31	32	2
50	51	1
132	134	1
88	88	1
151	151	1
118	118	3
80	133	1
33	34	2
121	144	1
37	37	2
37	39	1
108	109	1
40	40	1
51	52	1
122	122	2
119	149	1
83	96	1
16	16	1
154	154	1
64	66	1
108	119	1
96	98	1
80	136	1
56	58	1
81	82	1
104	136	2
126	126	2
34	35	2
44	77	1
30	31	1
129	130	1
46	49	1
100	103	1
35	35	1
19	74	1
27	29	1
47	150	1
105	105	1
119	119	1
72	76	2
116	116	1
67	68	1
73	73	2
5	5	1
100	109	1
142	142	1
4	4	1
80	82	1
37	41	1
25	26	1
25	124	1
107	108	1
127	127	1
124	125	1
143	143	1
105	114	1
17	17	1
65	105	1
76	79	1
10	11	1
19	20	1
133	133	1
96	96	2
107	119	1
130	130	2
141	143	2
140	142	1
55	149	1
23	23	1
15	15	1
6	6	2
4	8	1
112	112	1
153	154	1
99	104	1
75	75	1
42	43	1
41	46	1
146	147	1
7	8	1
52	52	1
151	152	3
101	101	1
128	128	1
43	44	1
54	55	1
65	66	1
39	39	1
73	74	1
36	36	1
62	62	1
46	46	1
49	71	1
39	40	1
125	127	1
24	25	1
61	61	1
147	147	1
143	144	1
73	75	1
