126	127	1
40	40	8
173	175	2
18	29	1
168	168	7
54	54	4
28	28	1
112	112	3
80	116	1
30	30	5
109	111	1
3	3	4
183	184	2
145	173	1
36	36	3
185	186	2
160	160	8
94	95	2
11	11	7
190	190	2
75	75	2
187	187	2
33	33	5
32	37	1
114	114	1
53	53	4
177	187	1
115	121	1
173	173	4
85	135	1
137	150	1
14	14	4
41	41	3
167	169	1
167	167	1
81	82	1
156	187	1
38	38	2
128	128	8
10	11	2
20	20	3
51	51	1
28	30	2
31	32	3
18	18	3
182	194	1
141	141	4
132	132	4
7	8	2
131	132	2
64	64	3
35	35	6
127	127	7
120	120	3
41	66	1
196	197	3
32	33	1
159	159	5
26	27	3
58	58	4
83	125	1
0	1	2
9	9	3
10	54	1
178	181	1
177	177	4
10	85	1
44	44	4
160	172	1
164	164	1
40	178	1
8	8	2
22	23	3
34	36	1
83	83	1
80	81	1
32	32	6
106	106	2
179	182	1
47	47	8
19	27	1
180	180	4
125	125	5
129	171	1
26	30	3
12	12	8
163	164	2
174	176	1
89	89	2
122	122	6
132	175	1
82	82	1
132	139	1
161	164	1
44	184	1
71	71	1
5	196	1
142	143	5
123	123	1
50	51	2
44	45	2
14	52	1
22	25	2
182	183	1
21	24	1
93	116	1
159	160	2
141	142	2
5	5	4
4	4	5
63	63	2
178	178	2
138	194	1
43	43	2
197	197	4
179	179	2
176	176	1
129	129	2
51	52	1
27	27	6
147	148	1
78	78	3
25	42	1
52	52	5
21	23	2
186	186	1
172	172	3
193	193	4
17	17	4
183	186	1
184	184	3
26	26	5
100	107	1
174	175	1
87	101	1
182	190	1
45	46	2
45	45	8
130	130	4
58	119	1
194	194	2
22	22	2
66	66	4
11	65	1
156	186	1
101	101	2
84	84	2
146	179	1
84	86	2
66	76	1
181	181	2
16	17	1
110	110	2
128	137	1
163	163	1
154	154	3
102	105	1
132	133	1
44	185	1
23	24	3
57	57	5
192	192	1
157	157	5
150	151	3
121	131	1
48	48	5
19	20	3
0	4	1
5	6	3
6	11	1
121	137	2
73	73	1
100	100	2
49	49	2
94	94	5
168	169	3
76	76	2
69	70	1
4	5	3
167	175	1
9	11	2
156	156	1
145	148	1
149	160	1
170	194	1
74	80	1
124	124	4
5	41	1
178	179	1
62	62	2
46	46	5
39	40	1
93	93	1
76	78	4
105	105	2
34	37	1
19	19	5
37	65	1
42	42	7
60	60	2
142	142	4
160	164	2
88	89	1
182	182	1
133	133	4
195	195	6
11	15	1
107	107	3
66	68	2
99	99	2
12	71	1
6	23	1
134	134	3
169	169	2
113	113	2
151	151	3
130	131	2
172	173	1
97	97	1
9	10	1
39	39	5
103	103	1
191	191	2
31	31	4
144	148	1
80	80	2
59	61	1
185	185	1
43	44	2
143	149	1
90	94	1
112	138	2
37	37	7
54	56	1
160	163	1
189	190	1
1	1	4
5	20	2
34	34	3
34	35	1
28	55	1
158	167	2
102	103	1
118	136	2
3	5	1
134	155	1
109	109	2
196	196	2
135	135	2
45	126	2
157	177	2
182	186	3
50	50	5
96	97	2
188	188	2
65	65	3
121	121	5
2	2	1
3	19	1
0	2	1
149	149	1
140	167	1
61	61	2
16	23	1
152	156	2
124	128	2
180	181	2
70	70	2
72	73	2
17	20	1
29	30	5
139	139	3
11	14	2
158	158	1
138	139	1
148	148	2
192	193	3
8	187	2
35	85	2
153	153	1
24	24	1
193	194	2
64	65	1
98	98	2
133	134	1
101	123	1
86	106	1
56	57	1
9	39	1
113	177	1
176	178	1
46	47	1
0	0	5
7	7	2
182	192	1
40	41	1
20	21	3
147	147	1
35	103	1
191	192	1
179	180	3
177	178	2
142	151	1
181	189	1
104	104	1
36	37	2
42	141	1
95	95	1
17	18	3
149	150	1
94	100	1
130	177	1
14	32	1
183	183	4
21	22	1
2	3	1
171	171	4
152	153	1
169	170	3
150	150	4
15	15	3
166	166	1
165	170	1
37	38	1
13	195	1
118	118	1
13	13	2
56	56	2
16	16	2
12	38	1
17	33	1
176	186	1
4	187	3
37	55	1
24	25	1
145	145	5
144	144	2
74	74	1
127	128	2
12	13	1
101	105	1
19	32	1
124	197	1
26	34	1
173	176	1
10	10	3
24	26	1
54	59	1
138	138	2
103	105	1
80	85	1
15	24	1
141	183	1
162	162	1
136	145	1
122	126	1
184	185	1
171	176	1
185	196	1
143	143	4
3	4	2
73	79	1
96	110	2
160	161	2
55	56	1
188	189	1
31	36	2
0	8	3
86	87	1
47	48	2
70	71	1
81	81	1
32	146	1
57	126	1
138	140	1
150	160	1
30	31	1
87	87	2
101	121	1
40	42	1
151	152	1
174	174	3
157	158	1
29	32	1
161	163	3
190	192	1
121	150	1
52	53	1
79	79	2
55	55	2
150	168	1
27	28	1
124	196	1
33	34	1
111	111	2
4	25	2
152	152	1
165	178	1
34	72	1
6	7	1
116	116	1
165	169	1
75	194	1
155	156	1
62	105	1
188	190	1
155	155	2
75	81	1
171	172	1
1	2	1
16	39	1
6	8	1
9	44	1
137	137	1
86	90	1
125	126	1
170	170	1
26	31	1
137	156	1
58	65	1
167	193	1
25	26	1
42	44	1
172	186	1
42	45	1
73	74	1
68	81	1
80	82	1
32	34	1
100	105	1
165	165	1
183	194	1
102	102	1
70	72	1
126	126	1
140	140	2
56	70	1
153	154	1
146	154	1
39	70	1
6	31	1
62	64	1
150	154	1
29	29	1
124	125	1
25	25	1
131	133	1
119	119	1
23	23	2
13	131	1
13	14	1
109	137	1
84	113	1
195	196	1
9	13	1
77	79	1
101	115	1
4	38	1
89	161	1
96	96	1
49	186	1
29	31	1
108	116	1
35	36	1
67	67	1
121	122	1
