143	143	2
30	106	2
144	144	3
90	90	3
101	101	2
122	122	4
28	28	3
20	20	2
59	61	1
106	140	2
132	132	2
65	65	1
37	37	4
73	73	1
120	120	2
145	145	2
118	138	1
52	52	2
102	102	1
11	11	4
62	62	1
76	76	3
141	142	1
128	128	1
17	41	1
4	4	1
84	113	1
57	57	2
113	114	1
135	139	1
35	43	1
48	48	2
119	119	4
5	5	1
109	133	2
0	1	3
2	11	2
66	67	1
77	77	2
83	108	1
106	134	2
13	13	2
30	30	1
95	96	1
81	83	1
31	31	1
39	40	2
51	62	2
63	63	1
112	118	1
128	129	2
4	14	1
34	34	1
67	71	1
74	81	1
31	32	1
41	42	1
71	72	2
53	60	1
27	40	1
3	3	1
0	0	2
68	125	1
96	102	2
54	56	1
16	17	2
32	32	1
127	128	1
136	136	1
111	111	3
94	94	3
23	23	1
26	26	2
122	123	2
57	62	1
10	10	1
82	82	1
97	97	2
41	41	1
101	103	1
135	136	1
88	88	2
57	79	1
133	133	3
117	139	1
59	59	1
112	122	1
25	25	4
66	141	1
126	126	1
3	4	1
101	142	1
106	107	1
29	29	1
51	69	2
19	19	1
64	69	1
1	1	1
36	36	3
59	62	1
35	37	1
73	94	1
106	133	1
85	85	1
113	118	1
59	125	1
70	72	1
5	6	1
129	140	1
107	107	1
30	87	1
125	125	2
139	139	2
141	141	2
121	121	2
118	123	1
8	41	2
98	98	1
30	33	1
37	38	1
70	70	2
2	2	1
35	35	2
28	29	1
140	140	2
110	111	1
80	80	1
51	84	1
93	94	1
137	137	1
131	131	1
86	88	1
27	28	2
49	49	2
74	99	1
120	123	1
106	106	1
142	142	1
9	9	2
75	99	1
78	79	1
101	130	1
80	81	1
88	93	2
117	124	1
115	115	1
18	18	1
95	136	1
26	27	1
35	36	1
8	18	1
127	127	1
76	81	1
66	69	1
106	139	1
42	42	1
87	87	1
50	68	1
76	77	1
94	106	1
74	74	1
29	74	1
105	105	2
71	73	1
54	54	1
91	103	1
121	123	1
98	99	1
61	61	2
17	17	1
99	100	1
29	47	1
40	40	1
33	33	1
124	126	1
132	133	1
19	61	1
118	119	1
100	121	1
62	66	1
6	22	1
