7	7	5
109	109	2
86	86	5
23	23	2
27	133	2
46	119	1
134	134	2
66	66	10
10	10	6
4	5	3
115	115	5
123	128	1
118	118	5
125	125	3
33	33	4
113	117	1
109	110	2
85	101	1
78	78	4
36	36	2
46	46	7
92	92	1
130	130	6
42	42	3
96	96	2
21	21	2
5	5	4
127	127	4
45	47	1
119	120	1
21	22	1
59	68	1
48	48	2
25	25	2
71	71	2
126	132	1
123	123	3
85	85	6
70	70	1
116	116	6
76	76	4
107	107	4
132	132	1
113	113	4
61	61	5
44	45	1
34	77	1
82	82	7
11	11	6
63	63	8
30	31	3
23	25	1
27	27	8
33	43	1
104	104	2
51	55	1
5	43	1
106	106	3
90	90	7
72	72	2
112	113	5
41	41	2
80	80	2
131	131	4
101	101	5
12	12	9
8	8	3
73	73	8
96	100	1
107	134	1
62	62	4
84	84	2
89	96	1
19	20	3
94	94	6
58	59	2
3	3	7
66	67	3
56	57	3
29	29	2
22	25	1
106	114	1
17	17	3
67	67	4
15	15	3
35	35	4
100	105	1
101	123	1
32	32	2
122	130	1
99	99	3
38	111	1
19	19	3
65	66	1
58	58	5
91	91	5
69	69	5
81	81	2
18	18	2
34	34	3
39	55	1
60	92	2
102	122	1
28	83	1
97	97	2
5	41	1
15	17	2
93	105	2
133	134	1
20	20	2
74	74	3
121	121	4
18	72	1
122	122	1
79	81	1
28	86	2
56	56	2
129	129	4
13	13	7
96	107	1
123	129	1
7	8	2
126	126	4
9	9	7
8	9	1
7	16	1
110	114	1
10	11	3
120	121	1
16	17	2
2	2	3
114	119	1
83	83	3
86	113	1
72	73	1
16	16	2
15	95	1
57	57	4
13	15	1
133	133	4
26	28	2
12	13	3
99	109	1
112	112	7
111	111	5
37	38	1
25	26	1
126	129	2
36	38	1
64	64	5
87	87	3
122	123	1
4	4	1
38	40	2
95	95	2
128	128	2
125	126	2
6	6	3
20	22	1
8	33	1
88	89	1
79	80	1
65	65	3
32	33	1
74	75	1
110	134	3
17	59	1
106	107	3
26	26	2
61	62	1
118	129	2
85	113	1
105	105	1
124	124	4
44	111	1
45	45	4
46	47	1
117	119	1
128	129	1
126	128	2
75	76	1
130	134	1
14	14	3
75	75	4
39	80	1
47	47	2
55	55	2
8	32	1
112	122	1
100	100	4
11	12	1
119	119	4
94	102	1
84	100	2
68	68	3
34	35	1
103	104	2
98	98	1
19	31	1
78	79	1
1	70	1
38	41	1
18	119	1
132	133	1
12	34	1
64	65	1
24	24	2
20	23	1
110	110	3
90	91	2
102	128	1
45	69	1
123	124	2
70	72	1
112	114	1
2	47	1
22	22	1
121	132	1
111	117	1
116	125	1
84	88	1
25	31	1
32	60	1
40	40	2
121	126	1
27	28	2
86	87	1
29	30	2
33	34	1
87	113	1
115	116	1
26	27	1
93	128	2
48	50	2
90	109	1
28	28	2
0	0	2
84	86	1
103	105	1
77	77	1
16	120	1
86	100	2
91	96	1
23	24	1
8	19	1
76	77	1
114	114	1
76	134	1
3	4	1
102	120	1
79	82	1
71	72	1
120	120	1
93	93	1
104	105	1
62	71	1
44	44	4
102	102	1
102	103	1
11	19	1
38	38	2
1	61	1
30	30	2
50	50	1
11	49	1
69	70	1
41	42	1
56	118	1
0	1	1
108	109	2
60	62	1
108	108	1
102	107	1
8	13	1
88	91	1
12	129	1
95	101	1
47	61	1
107	108	1
98	99	1
63	64	1
36	44	1
17	77	1
89	90	1
35	47	1
31	32	1
10	18	1
