80	81	1
126	126	1
57	93	1
144	144	1
102	103	2
64	69	2
113	116	1
150	151	1
44	45	3
146	146	6
99	99	2
140	140	2
62	62	2
82	82	2
41	74	1
113	113	2
137	137	3
136	136	3
98	98	4
47	47	7
76	76	1
27	27	1
159	159	2
17	38	1
151	151	4
16	16	1
168	169	2
83	83	1
165	165	4
41	42	2
43	43	1
142	142	4
164	164	2
118	118	3
42	42	1
103	103	2
49	50	1
167	167	3
90	90	3
167	168	1
15	15	1
81	81	3
88	88	1
6	42	2
12	12	5
22	22	3
166	166	3
84	89	1
56	97	1
143	147	3
157	157	7
79	92	2
11	11	2
55	55	2
128	129	2
131	131	3
21	24	1
134	134	2
39	39	3
51	51	4
84	84	2
143	143	2
51	52	1
163	164	2
57	62	1
3	3	5
50	50	3
15	16	2
139	139	1
162	162	3
147	148	1
10	10	4
0	16	1
37	37	3
48	48	2
67	67	2
106	135	2
87	98	1
153	156	1
95	137	1
18	19	1
33	33	1
162	164	1
127	127	2
80	83	1
22	47	1
5	5	1
124	144	1
20	75	1
71	72	3
108	108	2
110	110	1
18	20	1
160	160	1
110	111	1
22	113	1
69	69	1
72	72	1
91	91	1
155	155	2
119	119	1
108	158	1
14	14	1
36	36	5
6	11	1
2	2	1
75	97	1
153	153	4
6	6	1
20	21	2
56	56	1
25	25	2
85	99	2
125	125	2
164	166	2
74	76	1
113	130	1
76	79	1
117	117	1
14	15	1
115	116	1
0	0	2
4	4	2
148	148	3
49	111	2
92	92	2
6	20	1
53	71	1
168	168	1
141	141	1
89	89	1
33	34	1
156	156	2
129	129	1
96	96	1
100	107	1
80	80	1
19	19	2
8	12	1
68	68	2
128	128	1
157	158	2
28	28	2
124	124	2
39	40	1
46	52	1
138	138	1
154	154	2
78	79	1
111	111	1
141	142	1
160	163	1
77	77	1
26	26	1
45	45	1
136	137	2
135	135	2
91	130	1
125	131	1
53	53	1
87	88	1
88	89	1
105	109	1
63	76	1
100	100	1
143	144	1
70	70	1
8	8	2
133	165	1
119	122	1
135	140	1
154	158	1
7	7	1
158	159	1
98	103	1
65	65	1
7	10	1
65	67	1
158	158	1
161	161	1
96	97	1
5	6	1
19	37	1
69	90	1
18	18	1
94	136	1
95	96	1
9	47	1
42	43	1
53	65	1
1	1	2
23	23	2
55	161	1
0	168	1
34	34	2
13	13	1
6	7	1
3	47	1
101	105	1
46	46	1
81	82	1
93	96	2
37	38	1
105	105	2
118	119	1
11	51	1
8	9	1
147	147	1
24	47	1
116	116	1
120	122	1
38	63	1
132	132	1
96	117	1
153	154	1
52	53	1
159	160	1
