114	115	5
81	81	4
51	54	1
58	114	1
45	45	1
107	107	4
8	8	3
28	41	2
94	94	4
30	30	1
84	85	1
6	6	1
34	45	2
4	4	4
56	123	1
39	39	2
76	76	3
67	67	2
46	46	2
103	107	1
7	115	1
102	102	5
71	71	1
116	116	7
114	114	1
127	127	4
119	122	1
20	35	1
47	73	1
74	74	4
124	124	2
83	83	2
134	134	2
47	47	4
65	65	4
32	32	1
15	16	3
114	131	1
34	34	5
96	96	4
7	7	3
25	26	1
62	62	6
7	8	1
2	71	1
12	95	2
23	23	1
40	40	2
120	120	8
86	86	3
133	133	2
48	49	1
72	73	1
125	126	1
124	125	2
101	101	2
81	123	1
91	92	1
27	27	3
119	124	1
119	119	6
64	64	1
113	116	2
19	19	2
44	44	4
10	10	2
96	98	1
66	66	3
19	27	1
123	123	2
80	80	1
131	132	2
71	72	1
110	110	2
42	42	2
23	24	1
88	98	1
100	100	1
35	35	3
4	5	4
63	63	5
120	121	1
29	30	2
121	121	2
117	125	1
37	37	2
25	27	1
75	75	2
41	42	3
28	43	1
82	82	1
3	3	3
109	109	1
123	124	1
83	87	1
60	61	3
87	87	2
28	28	3
58	58	2
76	77	1
77	78	1
0	0	4
117	117	5
59	61	1
90	91	1
112	112	3
115	116	3
41	41	1
85	85	1
106	106	1
14	14	2
113	113	4
77	77	4
19	20	1
32	33	1
89	129	1
31	31	4
93	94	2
74	112	1
69	69	3
77	117	1
41	43	1
126	126	2
13	13	1
84	84	4
9	10	2
118	118	3
58	90	1
61	86	1
78	119	1
119	120	1
23	25	1
111	111	1
115	123	1
103	132	1
16	16	2
63	64	1
132	132	3
5	11	1
113	129	1
104	104	1
15	15	1
120	125	1
103	103	2
6	21	1
105	107	1
73	119	1
17	17	2
132	133	1
3	36	1
48	50	1
29	29	1
98	98	2
105	105	1
24	26	1
13	22	1
18	22	1
115	115	1
121	122	1
73	73	1
129	132	1
112	130	1
102	104	1
68	68	1
69	70	1
111	112	1
59	59	1
5	5	2
40	43	1
79	81	1
33	33	1
64	65	1
124	126	1
78	82	3
21	23	1
100	101	1
125	130	1
118	119	1
130	132	1
72	72	1
56	58	1
23	41	1
85	86	1
44	57	1
17	18	1
40	42	2
88	88	1
94	111	1
57	57	2
82	83	1
130	130	1
122	122	1
86	87	1
97	98	1
76	86	1
74	125	1
93	101	1
5	9	1
96	100	1
61	61	1
34	71	1
13	33	1
65	66	1
6	41	1
107	118	1
46	73	1
83	85	1
28	30	1
6	7	1
