58	65	1
85	101	1
21	21	2
57	57	3
152	152	3
185	185	2
151	151	1
126	151	1
121	122	1
95	95	2
159	159	2
74	75	1
169	169	1
66	66	2
101	101	4
10	11	1
156	156	1
140	140	2
181	181	2
79	79	3
75	75	3
120	155	1
94	94	2
6	6	6
44	45	1
82	82	3
25	26	1
102	103	1
0	10	1
164	164	1
138	139	1
108	108	2
66	67	1
155	184	1
35	36	1
147	147	1
5	7	1
39	77	2
26	27	1
175	178	1
4	6	1
91	91	3
11	14	3
130	130	3
155	155	3
52	52	2
110	123	2
106	121	1
112	112	5
4	144	1
90	90	1
83	83	1
166	166	2
43	43	2
37	37	1
130	133	2
132	135	1
1	1	3
173	185	1
114	115	1
171	173	1
15	15	3
159	183	2
2	2	7
38	38	1
165	165	2
147	172	2
4	4	2
134	134	2
61	63	1
124	125	2
80	87	2
103	103	2
56	56	1
64	65	2
19	19	1
144	145	1
157	178	1
36	36	1
162	162	1
19	86	1
106	108	2
145	145	5
88	91	1
22	22	2
64	64	2
29	32	1
53	53	2
83	119	1
52	54	1
178	178	1
7	7	1
129	131	1
61	73	1
184	184	2
153	153	3
28	28	1
187	187	1
10	55	1
42	44	1
112	114	1
175	175	1
68	68	1
87	107	1
5	6	1
17	17	2
131	132	1
176	177	1
76	76	1
168	168	1
34	35	2
16	144	1
65	68	2
134	135	1
168	169	1
67	67	2
176	176	2
21	56	1
125	125	2
20	84	1
42	42	1
54	55	1
137	138	1
146	146	2
48	48	5
128	135	1
97	112	1
84	85	2
22	23	1
60	62	1
90	93	1
5	5	2
153	154	1
101	110	1
79	82	1
188	188	2
86	86	1
174	174	1
87	87	2
45	45	2
180	182	1
31	32	1
14	114	1
28	30	1
18	18	3
105	105	2
107	107	1
39	39	1
59	101	2
114	114	1
138	138	1
33	33	1
101	102	1
49	49	1
31	37	1
123	154	1
24	24	1
80	80	2
132	134	3
142	142	1
148	155	1
116	116	1
115	120	1
12	12	1
65	65	1
55	95	1
54	54	1
47	48	1
47	76	1
145	146	1
0	0	1
164	165	1
59	59	1
48	49	1
72	72	1
98	98	2
57	67	1
149	149	2
110	113	1
29	148	1
167	168	2
178	180	1
183	186	1
174	175	1
176	178	1
186	186	1
96	96	1
151	170	1
134	172	1
3	3	1
92	92	1
88	88	2
73	73	1
188	189	1
100	106	1
32	32	1
25	41	2
180	180	1
93	94	1
109	110	1
29	29	1
180	183	1
120	122	1
28	32	1
91	115	1
93	93	2
27	30	1
127	128	1
1	16	1
139	155	1
118	118	1
113	113	1
81	81	1
23	23	1
77	78	1
55	56	1
65	71	1
30	30	1
185	188	1
63	63	1
177	182	1
