150	150	3
245	245	4
108	109	1
35	35	3
152	212	1
189	192	1
60	60	2
109	109	2
187	187	4
215	238	1
180	180	5
200	200	1
193	193	3
17	17	2
101	110	2
87	89	1
201	206	1
210	210	4
15	15	4
90	90	2
56	57	1
112	167	3
190	190	2
77	79	1
34	34	3
233	233	3
218	219	2
55	60	1
29	30	2
248	248	1
71	71	2
174	174	3
232	232	5
38	38	5
68	87	2
64	64	3
50	50	2
220	239	1
77	77	2
116	116	1
3	3	2
215	215	2
242	243	1
223	223	2
65	66	1
211	211	1
103	116	4
54	54	1
239	239	2
44	45	2
184	184	2
78	78	1
7	7	2
235	235	2
165	165	3
220	241	1
110	111	1
59	185	2
187	188	3
13	14	1
211	213	1
176	177	3
110	110	8
83	86	1
85	87	1
237	237	3
156	156	4
63	63	2
203	242	1
167	167	3
166	166	2
32	32	1
28	28	2
236	236	2
164	164	3
181	181	4
19	20	1
104	104	1
218	218	7
50	210	1
221	239	2
90	91	1
5	57	1
52	52	2
19	19	3
213	213	2
26	27	1
193	200	1
179	179	2
47	52	2
221	234	1
196	222	1
109	110	2
212	222	1
241	243	1
12	15	1
43	43	2
231	241	2
12	12	3
199	199	2
222	235	1
100	101	1
238	238	1
202	220	1
218	228	1
107	107	1
193	195	1
101	101	2
231	231	2
1	2	1
39	39	1
11	11	4
218	244	1
78	85	3
118	118	1
52	67	1
195	197	3
52	110	1
170	170	2
79	90	1
204	204	5
212	212	1
99	100	1
9	9	2
209	224	1
113	113	2
221	222	1
193	194	1
3	5	1
168	168	1
20	20	1
37	147	1
64	92	1
53	53	4
22	83	1
237	238	1
179	180	1
160	161	1
172	176	2
42	43	1
29	29	4
93	95	1
68	68	4
182	191	1
113	115	2
214	215	1
154	155	1
224	225	1
48	50	1
167	168	1
55	55	1
181	212	1
189	189	2
215	216	1
115	115	1
204	205	1
162	162	2
234	234	2
44	44	6
181	208	1
146	147	1
73	73	1
169	214	1
3	6	2
226	226	4
189	191	1
245	246	5
160	160	1
112	112	4
155	155	1
183	186	1
153	155	2
190	192	2
49	49	2
185	186	2
42	111	1
169	169	2
213	224	1
67	68	1
242	242	2
182	208	1
5	5	2
36	36	2
26	26	1
3	25	1
188	188	1
219	243	1
159	159	1
157	166	1
21	21	1
151	152	1
63	65	1
152	153	2
189	190	2
59	60	1
222	222	1
152	152	1
219	220	1
192	192	1
23	23	2
59	59	2
175	181	1
1	1	2
82	82	1
220	221	1
24	24	1
31	31	2
225	226	1
80	80	1
171	174	1
171	207	1
94	94	1
10	10	3
219	219	1
201	201	1
176	176	2
94	95	1
197	198	3
69	70	2
157	179	2
158	158	1
202	202	1
163	163	1
182	182	2
111	111	3
210	211	2
95	99	1
55	56	2
86	86	1
185	185	6
51	51	1
61	62	1
198	199	2
27	27	1
8	9	2
242	248	1
46	65	1
116	117	1
172	173	1
144	145	1
216	217	1
164	166	1
160	203	1
47	48	1
164	165	1
186	190	1
241	241	3
102	102	1
73	171	1
62	62	1
75	85	1
119	119	1
179	203	1
226	241	1
117	117	2
246	246	2
208	211	1
108	112	1
109	118	1
171	171	1
10	53	1
48	48	1
79	172	1
171	201	1
179	201	1
72	73	2
226	227	1
74	74	1
217	217	1
96	96	2
2	2	1
178	208	1
93	93	1
228	229	1
111	112	1
100	100	1
5	6	1
115	181	1
48	49	1
104	114	1
206	206	2
150	155	1
61	61	2
172	172	1
153	153	3
106	108	1
244	244	1
32	33	2
89	89	2
75	77	1
32	45	1
194	197	1
182	200	1
70	160	1
78	89	1
244	245	1
216	218	1
25	25	2
36	147	1
205	206	1
8	8	1
47	64	2
18	18	1
76	77	1
224	224	1
213	214	1
195	195	1
175	175	1
113	114	2
216	216	1
41	42	1
170	172	1
225	225	1
120	120	1
39	40	1
163	164	1
175	202	1
114	183	1
192	248	1
6	6	1
76	76	1
199	238	1
145	204	1
33	33	1
173	186	1
15	16	1
51	92	1
201	203	1
214	234	1
17	18	1
238	239	1
199	200	1
197	197	1
