94	94	2
8	8	4
174	174	2
79	79	2
84	84	4
122	123	2
40	42	1
139	140	1
4	7	1
53	53	3
109	110	3
124	124	3
43	48	1
71	72	2
99	99	2
61	62	2
76	76	5
166	167	2
173	173	3
43	43	5
13	13	2
70	70	1
113	125	1
47	47	4
179	180	1
159	164	1
65	66	1
90	90	2
111	114	1
116	116	1
99	103	1
10	10	4
162	163	4
102	116	1
10	11	2
125	136	2
107	107	3
175	176	3
155	185	1
131	131	1
138	138	1
38	39	1
136	138	1
79	81	1
26	38	1
67	67	3
154	154	1
109	155	1
117	117	2
120	120	6
77	77	3
66	66	3
170	172	1
142	142	2
80	87	2
115	115	9
12	19	1
156	158	1
88	89	3
113	113	4
69	69	1
38	38	3
24	27	1
21	22	1
19	20	1
59	61	1
41	42	2
19	19	4
85	87	1
46	72	1
184	184	8
178	178	5
21	21	2
127	127	1
39	39	4
20	23	1
37	37	3
26	26	3
177	177	3
56	57	4
33	37	1
88	88	3
7	7	6
56	56	4
188	189	3
91	91	1
127	146	1
98	98	4
107	112	1
71	116	1
140	140	4
28	29	1
180	180	3
33	35	1
147	147	1
31	38	1
66	100	1
14	14	1
54	54	3
68	68	5
110	110	7
78	79	3
132	132	1
176	176	3
48	48	5
30	33	3
46	48	1
16	139	1
104	104	8
107	108	1
164	164	2
35	36	1
122	128	1
185	185	7
28	28	3
2	2	4
135	149	1
181	181	1
171	173	2
145	145	3
82	82	3
30	30	2
15	15	4
27	27	5
34	34	1
109	109	5
28	30	2
55	55	4
54	55	1
83	83	1
134	136	1
136	136	2
3	3	3
123	125	2
118	118	3
73	73	5
118	150	1
10	15	2
10	12	4
1	1	2
90	91	3
12	12	4
16	16	2
87	88	1
139	139	1
110	152	1
149	151	1
95	99	2
6	6	5
106	148	1
170	171	2
4	6	2
97	98	1
114	116	1
82	83	1
20	20	1
119	175	1
105	105	3
55	68	1
165	165	1
142	143	1
57	75	1
134	134	1
158	158	1
2	3	1
4	4	4
190	190	2
126	126	1
78	78	5
169	169	1
9	9	2
36	36	3
42	42	4
114	114	1
135	135	2
24	24	3
171	171	2
172	172	4
114	115	1
97	100	1
84	85	2
0	0	7
65	65	1
9	10	1
15	142	1
110	113	1
22	23	3
123	123	4
101	101	3
29	29	1
1	2	1
87	87	4
111	111	2
152	155	1
128	128	2
187	187	5
103	104	2
136	139	1
81	81	6
116	117	2
170	186	1
157	157	3
10	32	1
48	83	1
141	141	2
188	188	3
108	108	1
64	67	2
37	38	2
115	117	1
149	149	2
17	190	1
5	5	3
59	59	1
121	135	1
130	130	1
143	145	2
160	165	1
170	170	3
71	71	5
70	71	3
45	45	1
167	167	3
57	57	3
40	40	3
41	48	1
173	174	2
9	29	1
89	107	1
122	154	1
159	159	4
125	165	1
126	127	2
17	42	2
23	33	1
12	13	1
34	35	2
24	25	1
15	16	1
130	167	3
44	44	2
156	156	3
79	80	1
61	61	4
144	144	1
146	147	1
29	46	1
134	137	1
125	125	6
62	62	2
78	89	1
18	18	1
167	169	1
26	54	1
91	96	1
106	106	1
179	179	1
88	92	1
120	139	2
92	114	1
71	105	1
154	160	1
72	72	3
75	75	2
148	148	2
28	31	2
21	23	1
78	84	1
53	54	1
39	40	2
108	112	1
94	95	3
131	132	2
33	33	2
47	48	1
81	84	1
5	28	1
46	46	2
62	71	1
77	78	1
99	100	2
121	121	1
121	125	1
89	89	4
23	23	1
18	42	2
151	152	1
25	26	2
132	144	1
82	104	1
152	154	1
152	153	2
99	110	1
96	97	1
58	62	1
92	92	3
178	179	1
178	180	1
74	76	1
71	76	1
17	18	1
91	92	1
129	129	1
93	93	1
89	91	1
152	152	3
40	48	1
20	21	2
10	33	1
106	107	1
25	25	1
133	133	1
100	100	2
36	47	1
137	157	1
100	101	1
4	5	1
78	95	1
60	60	1
149	178	1
21	34	1
66	68	2
182	182	1
160	160	2
13	139	1
146	146	1
112	114	1
90	92	1
86	86	2
123	129	1
11	11	1
97	97	2
141	142	1
135	136	2
184	186	1
155	155	1
156	182	1
97	104	1
122	122	1
151	155	1
186	186	1
147	184	1
87	126	1
117	119	1
85	85	1
103	103	1
166	166	2
164	179	2
72	73	1
119	120	1
49	53	1
102	102	1
143	143	2
10	22	1
43	45	1
145	146	1
31	32	1
77	89	1
65	67	1
40	74	1
28	32	1
143	144	1
27	28	1
171	177	1
178	183	1
68	91	1
95	95	1
97	115	1
58	58	1
181	182	1
52	71	1
5	6	1
151	151	1
3	55	1
140	141	1
183	184	1
121	130	1
113	118	1
18	22	1
77	80	1
6	7	1
0	146	1
40	55	1
