137	138	2
35	35	5
31	31	3
92	92	1
108	108	4
115	115	2
70	71	2
13	13	3
49	50	1
99	99	5
3	3	2
113	113	4
41	41	2
15	37	1
57	57	1
128	143	1
14	14	3
103	104	1
17	17	1
29	30	1
121	121	2
33	33	2
122	123	1
122	122	4
53	53	2
112	112	5
110	111	1
114	114	1
133	133	4
127	127	1
118	118	4
85	85	4
73	73	4
61	68	1
62	63	1
130	133	2
141	141	3
78	79	2
20	27	1
55	56	4
52	52	4
6	6	1
77	78	1
104	104	3
37	38	1
111	112	2
111	114	1
86	130	1
56	56	1
63	64	1
127	129	1
89	89	2
24	35	1
38	38	2
18	19	1
91	91	2
144	145	1
35	37	2
57	60	1
145	145	3
90	90	1
33	34	1
130	143	1
23	23	2
90	92	1
28	28	2
10	12	1
3	4	1
103	103	2
54	54	2
5	32	1
36	36	1
5	5	3
117	124	1
123	124	2
15	31	1
114	115	3
71	83	2
101	101	1
35	47	1
84	84	2
66	108	1
59	76	1
15	15	2
92	93	1
58	58	2
21	21	3
139	139	1
134	134	4
142	143	1
10	10	2
87	87	2
136	136	1
132	132	2
37	37	3
143	144	1
68	97	1
62	69	2
47	59	1
42	43	3
125	125	1
32	32	2
86	86	1
128	128	1
20	81	3
38	61	1
4	4	1
1	1	4
93	93	1
98	98	3
103	106	1
119	122	2
118	119	3
140	140	1
113	114	2
142	142	1
39	79	1
12	12	2
104	115	2
67	67	1
66	66	3
72	72	1
34	34	3
108	109	1
124	125	1
61	61	2
9	10	1
41	48	1
70	70	2
106	107	1
130	134	1
62	67	1
59	61	1
16	16	1
101	102	1
119	119	2
75	75	1
9	9	3
62	78	1
59	59	2
29	29	2
120	121	1
88	88	1
111	111	1
4	9	1
14	24	1
129	129	1
63	65	1
50	51	1
82	97	1
124	127	1
38	39	1
126	126	2
135	135	1
19	19	1
121	137	1
118	139	1
87	88	1
42	42	3
68	68	1
58	59	3
138	138	2
76	76	1
49	51	1
74	74	1
74	80	1
20	20	2
32	33	1
73	86	2
25	26	1
47	50	2
2	2	1
77	77	2
49	52	1
27	27	1
95	95	2
131	131	1
68	90	1
91	92	2
97	98	1
64	64	1
125	126	1
143	143	1
40	40	1
41	42	1
107	107	3
82	96	1
50	52	2
51	52	1
120	120	1
87	136	1
138	140	1
83	83	1
137	137	2
39	39	1
71	72	1
135	137	1
36	37	1
74	75	1
69	86	1
88	118	1
136	137	2
130	130	1
21	22	1
83	84	1
107	111	1
119	139	1
95	96	1
8	8	1
109	109	1
0	0	1
43	48	1
102	106	1
50	50	1
22	22	1
65	85	1
