86	86	1
27	27	5
12	12	7
23	23	2
13	13	5
139	139	7
91	102	2
106	106	9
72	73	6
31	31	2
89	90	3
33	47	1
103	103	4
88	89	5
51	51	6
41	41	2
109	109	2
49	53	1
79	80	5
67	67	4
32	32	6
131	131	5
23	24	3
88	88	3
37	37	4
5	5	4
35	35	6
74	140	1
92	120	2
68	72	1
8	27	2
16	16	6
38	81	1
65	65	2
111	111	1
55	97	1
122	122	7
85	85	4
74	74	4
68	95	1
30	30	1
95	95	2
73	73	4
93	93	3
37	42	1
101	102	2
101	101	7
124	124	8
28	28	2
19	19	5
134	134	4
109	120	1
143	143	2
29	39	1
86	87	2
98	106	1
24	24	7
29	33	2
133	133	7
135	136	1
52	52	7
14	15	1
72	72	3
100	101	2
135	135	1
1	1	4
48	48	3
64	64	7
69	91	1
34	35	5
140	140	2
112	113	2
84	84	3
43	43	2
60	85	1
53	53	8
71	71	3
115	115	2
109	110	2
96	125	2
126	126	6
60	60	4
62	64	2
42	42	7
4	4	6
80	88	1
30	33	1
9	9	6
15	16	2
127	130	2
15	15	6
111	114	3
11	11	5
85	92	1
20	20	8
119	120	1
35	36	1
61	61	4
79	79	7
22	22	3
40	47	1
34	34	3
116	123	2
26	27	1
136	141	1
75	75	4
38	38	6
97	98	1
104	106	1
132	132	6
5	24	1
2	2	8
3	3	7
6	15	1
6	38	2
8	8	2
50	52	2
77	80	3
141	141	7
123	124	1
50	92	1
84	107	1
135	139	1
58	82	1
125	125	3
92	93	1
55	74	1
19	20	2
18	18	2
134	139	3
111	113	1
65	75	2
14	14	4
107	108	1
32	34	2
144	144	3
144	145	2
7	8	2
121	122	2
71	91	1
69	70	1
64	65	3
72	82	1
17	17	7
118	118	6
15	52	2
79	85	1
78	87	1
52	53	1
74	103	1
50	51	2
56	56	2
114	117	1
110	110	1
30	42	1
28	29	2
77	79	2
123	125	1
138	138	6
121	121	2
66	67	2
136	136	2
108	110	1
81	81	3
108	108	2
96	97	4
118	120	2
94	95	4
36	79	1
20	21	3
128	129	1
127	128	1
89	89	3
6	6	3
136	137	4
13	52	1
90	90	3
69	69	3
128	128	4
99	100	1
82	83	4
9	10	3
107	107	2
3	4	4
130	133	3
115	116	3
25	25	2
70	70	3
121	123	2
126	127	5
96	96	11
116	117	1
21	21	4
88	90	1
91	91	2
33	33	4
99	99	1
4	13	2
104	105	2
75	88	1
47	49	4
10	10	3
42	43	1
63	63	4
96	99	1
62	63	1
1	42	1
22	23	1
68	68	4
64	74	1
40	40	3
110	120	1
54	54	3
67	104	1
17	22	1
93	94	1
130	130	2
14	121	1
57	71	1
127	131	1
82	82	4
97	97	5
49	50	1
49	49	3
94	94	4
3	29	2
0	0	2
77	78	1
59	60	3
92	92	1
33	34	1
116	130	1
145	145	1
77	77	1
102	103	2
68	69	3
104	120	1
16	46	1
104	104	4
112	112	4
106	140	1
131	135	1
25	26	2
31	35	1
8	11	1
78	79	3
65	66	1
39	39	2
123	139	1
125	126	2
133	135	1
116	122	3
60	61	1
34	36	2
114	114	3
86	91	1
140	141	2
8	9	1
47	47	3
13	28	1
54	55	1
82	129	1
57	58	3
25	131	1
66	69	1
83	83	3
63	64	1
73	86	1
13	17	1
72	102	1
117	117	2
67	68	1
62	62	1
68	73	1
114	115	4
83	84	2
65	134	1
31	32	3
129	133	1
75	106	1
71	74	1
10	20	1
80	91	1
129	129	3
86	125	1
32	110	1
53	54	1
37	38	1
74	75	1
92	105	1
57	59	1
3	13	1
30	68	1
123	123	2
55	57	2
116	132	1
63	65	1
53	55	2
40	41	2
102	102	1
41	47	1
51	52	1
17	20	1
33	48	1
57	92	2
93	118	1
50	71	1
66	94	1
29	30	6
37	97	1
80	85	2
100	100	2
80	81	2
9	21	1
111	122	1
140	143	2
128	130	1
143	144	2
59	59	3
122	123	2
4	15	1
9	41	1
60	95	2
66	66	2
71	72	1
76	76	2
124	125	1
80	80	4
55	91	1
118	119	2
131	132	2
38	91	1
13	15	1
70	71	2
98	98	2
55	55	2
75	76	1
16	32	2
113	114	1
59	94	1
58	58	1
1	2	3
120	120	2
105	105	1
65	69	1
50	98	1
117	120	1
98	141	1
137	137	2
50	50	1
110	115	1
97	99	1
146	146	1
108	109	1
107	109	1
111	138	1
61	82	1
121	125	1
19	35	1
31	110	1
53	106	1
56	74	1
32	33	1
26	26	1
8	142	1
32	35	1
77	110	1
6	19	2
128	141	1
18	37	1
35	78	1
145	146	1
41	42	1
105	106	1
36	36	2
68	74	1
36	39	1
141	142	1
6	99	1
55	80	3
137	138	2
40	61	1
120	121	1
117	139	1
87	87	1
2	6	1
38	40	1
139	140	2
98	99	1
56	71	1
112	134	1
134	135	1
136	138	1
20	22	1
30	66	1
113	113	1
133	134	1
91	103	2
91	105	1
127	127	1
53	68	1
129	130	1
133	137	1
49	108	1
39	80	1
87	88	1
18	35	1
84	85	1
