60	60	3
6	6	4
45	45	1
128	128	2
3	5	1
103	103	7
91	101	1
42	42	3
106	106	4
72	74	1
40	40	3
124	125	1
120	120	11
101	101	4
57	104	2
56	56	5
26	26	3
126	128	1
28	29	2
57	57	6
113	114	1
95	95	2
46	47	1
47	48	2
114	131	1
81	81	2
4	4	3
60	63	1
102	102	5
104	104	4
94	94	2
2	3	1
63	63	3
65	66	2
46	46	4
116	116	3
102	103	1
124	124	4
122	122	4
69	70	1
119	119	5
93	93	7
133	133	2
125	125	2
46	48	1
74	74	5
110	110	6
80	80	6
64	64	1
96	129	1
114	114	6
29	45	2
132	133	1
39	40	1
88	88	2
50	50	4
19	20	2
24	24	7
85	86	1
132	132	3
11	11	2
92	93	1
30	30	2
95	96	2
78	81	1
24	25	1
58	62	1
49	50	1
108	109	2
115	117	1
106	107	4
46	54	1
127	127	3
59	99	2
115	116	1
51	51	3
84	84	1
118	118	5
38	45	1
109	121	1
14	16	1
66	67	1
15	15	3
20	20	1
2	2	3
82	100	1
55	114	1
67	67	2
34	34	1
61	61	3
105	105	6
28	28	3
10	10	3
113	113	3
62	62	1
129	129	1
77	77	2
93	94	2
94	106	1
42	43	1
78	78	3
115	115	3
76	76	5
97	99	2
109	109	6
19	28	2
80	83	1
76	98	2
53	53	2
77	78	1
7	8	1
86	88	1
43	44	2
82	83	1
55	56	2
82	82	4
13	48	2
25	25	4
3	3	2
14	14	2
90	90	3
121	121	10
123	123	5
59	62	1
86	86	3
107	107	2
58	58	3
48	48	3
92	92	4
87	87	2
83	103	1
19	19	2
68	88	1
53	118	1
99	129	1
23	23	2
111	111	2
100	100	1
72	75	1
88	90	1
21	23	1
50	64	1
69	69	1
5	5	1
87	106	1
75	75	4
39	39	5
130	130	4
71	71	5
29	29	3
127	128	1
16	18	1
122	123	3
112	112	6
79	82	1
47	47	4
130	131	1
38	38	2
79	79	1
61	62	1
41	41	2
96	97	1
69	71	1
108	108	5
89	89	2
109	110	3
9	10	1
78	97	2
0	0	2
96	96	1
73	73	2
13	14	1
117	117	2
18	18	1
68	68	4
97	98	2
1	1	2
68	78	1
28	30	1
19	32	2
22	28	1
117	118	2
12	13	2
56	57	2
17	17	1
59	59	3
23	71	1
72	72	2
12	12	2
32	32	1
91	91	1
48	62	1
52	52	2
64	65	1
27	27	1
126	126	1
80	101	1
42	48	1
63	66	1
54	54	3
95	102	1
13	13	3
30	34	1
71	72	1
80	81	1
105	122	1
58	61	1
50	133	1
77	79	1
21	21	1
29	39	1
76	77	1
67	68	1
8	10	1
97	97	2
22	23	1
99	100	1
62	77	1
107	108	1
99	99	4
116	117	1
58	59	1
49	55	1
93	102	1
33	33	1
97	106	1
4	5	1
31	43	1
74	114	1
125	126	1
99	119	1
5	6	1
51	68	1
45	47	1
110	111	1
7	7	1
100	101	1
16	16	1
86	114	1
