55	120	1
139	141	3
110	112	1
54	54	3
127	128	2
43	43	2
136	136	4
97	97	6
14	41	1
9	9	5
76	78	1
106	106	1
74	85	2
46	46	7
137	137	2
126	139	3
49	49	6
15	28	2
73	73	6
66	86	1
64	64	2
106	114	1
124	124	5
30	30	5
14	15	1
129	129	4
131	131	7
23	23	4
88	88	1
114	114	4
111	140	1
38	39	4
95	95	1
13	13	8
39	39	4
146	146	2
124	125	3
6	6	1
96	99	1
148	150	2
62	97	1
122	122	2
117	117	3
97	113	1
137	140	1
128	128	3
94	96	2
151	151	1
69	80	1
32	32	3
55	55	5
38	57	1
28	29	2
4	4	4
36	36	4
112	113	2
111	111	3
127	129	1
112	112	2
10	16	2
78	78	3
24	24	2
95	99	1
141	141	1
12	13	2
34	122	1
110	110	4
139	139	2
113	113	4
18	18	3
57	57	2
98	99	1
2	2	1
14	14	3
10	11	2
19	23	1
123	123	4
147	147	3
53	54	1
113	117	2
5	5	4
18	24	1
50	51	3
8	9	1
135	135	2
18	19	1
37	53	1
87	99	2
77	77	4
87	87	1
10	17	1
51	51	1
55	57	1
95	96	1
65	69	1
22	23	4
38	38	2
81	86	1
73	74	2
136	140	1
52	52	1
84	84	1
78	127	1
49	50	2
9	31	1
16	16	2
32	33	1
134	134	4
96	96	1
56	56	2
72	73	1
63	78	1
69	70	1
93	95	1
118	118	6
54	55	3
53	53	1
72	72	4
67	67	1
3	6	1
126	126	1
70	71	1
38	52	1
138	138	1
15	15	3
43	44	2
47	47	4
134	135	1
115	115	1
72	82	2
64	65	4
11	11	4
94	94	1
33	33	2
125	133	1
53	73	1
33	121	1
74	74	1
35	36	1
19	19	5
41	41	2
48	48	1
30	37	1
123	132	1
102	102	3
70	70	1
138	140	1
44	44	3
129	130	3
124	153	1
28	39	1
146	147	1
90	92	1
113	114	2
124	148	1
32	76	1
51	53	1
44	71	1
42	42	2
8	8	4
68	68	5
58	83	1
67	68	1
3	3	2
121	121	4
79	79	2
104	104	1
97	105	1
93	116	1
107	108	1
11	39	2
116	116	2
26	33	2
31	31	2
25	26	1
125	128	1
123	124	2
149	149	3
20	20	2
50	50	1
69	78	1
125	126	1
93	94	1
123	150	1
120	120	1
58	58	1
145	146	2
75	76	1
103	103	2
122	130	1
4	16	2
94	95	1
48	53	1
75	75	1
98	104	1
105	107	1
138	139	1
82	87	1
12	12	1
90	94	1
21	21	3
130	130	2
119	120	1
80	80	1
103	115	1
140	141	1
98	98	1
144	144	2
78	83	1
84	93	1
97	104	2
121	124	1
143	143	1
110	119	1
118	152	1
117	130	1
145	145	2
119	119	1
103	107	1
120	121	1
40	53	1
91	92	1
62	63	1
63	66	1
132	132	2
131	132	1
91	96	1
30	38	1
45	81	1
94	97	1
54	122	1
85	86	1
68	78	1
142	144	1
13	40	1
74	75	1
53	136	1
143	148	1
81	84	1
81	81	1
92	95	1
76	76	1
56	121	1
11	76	1
121	122	1
66	66	2
69	69	3
7	7	1
70	77	1
28	28	2
85	85	1
40	51	1
17	17	2
110	111	1
75	86	1
99	99	1
93	93	1
86	86	1
62	62	1
148	148	2
9	10	1
55	121	1
107	118	1
108	108	1
71	71	1
109	110	1
136	138	1
35	35	1
124	128	1
133	133	1
125	146	1
73	114	1
22	22	1
40	40	1
92	99	1
26	38	1
103	113	1
141	143	1
85	87	1
95	97	1
65	65	1
27	28	1
144	147	1
109	109	1
115	116	1
11	29	1
66	77	1
138	141	1
