98	98	9
108	108	6
109	117	2
123	123	10
133	138	1
87	88	3
104	106	4
131	132	2
135	135	9
2	2	4
124	125	3
32	32	2
37	37	7
108	111	3
130	130	6
102	110	2
113	113	7
77	118	1
138	138	2
117	119	3
105	105	4
95	95	4
99	99	5
104	105	1
4	4	3
76	76	1
114	114	7
109	109	8
131	131	6
106	106	1
134	134	4
137	138	3
125	126	2
133	134	1
104	104	4
91	91	6
88	108	1
102	102	4
133	133	16
90	90	3
2	3	5
103	104	2
10	10	2
100	102	1
79	79	2
74	75	2
121	129	1
81	105	1
83	83	1
89	89	4
75	75	7
100	101	4
77	85	1
81	81	4
71	89	1
136	136	5
90	93	1
119	121	2
116	116	10
132	132	6
8	8	2
7	7	1
107	115	1
5	6	3
87	87	9
5	5	1
129	129	4
78	113	1
108	109	3
118	118	6
112	112	6
96	96	7
73	73	4
76	77	1
72	101	1
85	85	3
38	38	5
80	89	1
103	103	2
3	3	3
100	107	1
101	101	4
124	124	7
6	6	3
101	118	2
111	111	5
15	19	1
16	16	2
71	71	3
89	90	1
140	140	6
38	112	1
19	19	6
112	114	3
136	139	1
121	122	1
117	117	5
120	120	4
10	12	1
94	94	3
9	19	1
18	18	4
128	128	10
37	38	3
119	119	4
107	107	4
94	95	3
78	78	6
82	83	3
136	137	2
109	112	5
94	136	1
36	36	2
97	98	1
74	74	3
115	115	1
139	140	2
80	94	1
84	85	1
75	76	1
119	120	2
121	121	1
11	11	2
129	140	1
13	13	1
14	14	5
13	14	2
110	110	4
2	4	1
81	117	2
78	79	1
99	123	1
80	107	1
116	118	1
118	123	2
122	129	1
103	117	1
137	139	1
34	35	1
131	140	1
118	119	2
123	129	1
15	15	2
85	88	1
88	88	7
77	77	6
106	111	2
111	112	1
123	130	1
16	19	2
96	100	1
74	103	2
93	93	4
133	135	1
91	93	1
104	114	1
126	126	5
97	128	1
0	0	1
34	34	1
92	93	2
11	12	1
106	107	2
0	2	1
77	104	1
12	12	1
128	129	4
100	131	1
74	80	1
100	100	2
139	139	7
122	122	2
115	117	2
92	92	2
123	124	1
76	98	1
107	108	3
0	5	1
127	127	2
137	137	3
83	84	3
104	107	1
17	17	2
1	1	4
3	16	1
125	135	1
102	103	1
97	97	1
129	130	3
80	83	1
118	129	1
14	20	1
122	123	3
94	100	1
121	123	1
112	116	1
120	121	1
83	113	1
125	129	2
105	106	4
72	73	2
17	18	1
27	32	1
120	122	1
114	115	1
116	123	1
80	80	1
71	80	1
125	125	1
0	7	1
12	13	1
109	111	1
108	116	1
81	82	1
72	75	1
116	117	2
108	119	1
99	124	1
112	118	1
115	118	1
73	113	1
100	126	1
132	133	1
128	133	1
126	129	1
130	131	1
110	111	2
115	125	1
14	15	2
114	117	1
118	122	1
94	133	2
110	112	1
113	120	1
1	4	1
107	109	1
131	137	1
90	94	1
38	107	1
87	111	1
72	88	1
35	35	1
95	100	1
33	33	1
110	123	1
101	120	1
132	135	1
7	9	1
110	120	1
80	134	1
84	84	2
3	18	1
13	15	1
79	82	1
119	134	1
101	111	1
73	104	1
102	104	1
104	108	1
126	130	1
