15	15	9
95	104	1
162	162	9
68	68	5
32	32	7
154	155	3
25	25	8
149	149	13
14	17	1
116	123	1
5	6	9
94	94	8
18	19	6
135	135	6
174	174	10
148	148	13
141	141	3
80	80	6
50	50	5
134	134	18
160	161	2
83	83	9
172	172	12
0	1	1
150	150	13
139	139	10
25	30	1
106	120	1
35	35	10
51	51	8
24	25	2
67	85	1
74	74	6
4	4	12
103	103	7
7	33	1
40	40	1
93	94	1
36	36	6
73	73	6
84	98	1
117	149	2
84	85	2
8	9	5
40	42	2
65	65	3
42	157	1
17	17	5
137	137	5
127	130	2
97	97	11
138	138	8
107	107	4
125	125	8
33	33	7
8	8	9
113	113	2
30	30	5
171	171	10
82	82	6
132	132	11
28	68	1
18	21	3
5	127	1
131	131	7
44	45	4
44	44	9
81	81	6
133	134	4
71	71	11
15	45	1
166	166	5
89	89	11
31	31	11
158	158	6
56	56	9
11	11	14
50	51	1
111	111	4
104	104	5
20	22	4
117	117	7
159	162	1
141	142	2
176	176	9
18	18	9
168	168	6
95	95	7
145	145	15
164	165	1
142	143	7
27	27	4
101	101	10
126	158	1
177	177	6
27	28	1
62	63	4
29	29	7
35	37	1
164	164	4
151	153	4
93	93	6
115	132	1
27	29	1
37	37	8
122	122	10
42	42	10
52	52	5
26	28	3
140	140	5
156	156	6
142	142	13
56	65	1
38	38	7
133	133	2
10	31	1
16	16	11
87	88	2
167	172	1
95	96	1
34	34	8
73	90	1
32	37	1
153	153	6
100	100	5
22	22	7
7	8	1
19	21	1
75	75	5
137	139	1
160	160	8
169	169	9
72	72	7
119	122	2
160	162	4
102	102	11
26	26	9
76	76	9
92	92	4
61	63	1
147	161	2
39	39	7
87	87	6
130	130	4
150	151	1
144	146	2
115	115	7
45	46	1
32	33	5
121	121	4
116	116	5
57	57	9
9	9	9
0	0	7
28	42	1
20	23	2
28	29	1
79	80	2
5	7	8
28	44	1
35	36	1
7	10	1
38	45	1
55	55	6
17	21	1
63	63	8
179	179	11
5	5	8
128	146	1
135	136	4
105	105	4
1	1	7
96	96	9
159	159	6
175	175	3
26	171	1
65	66	5
163	165	2
167	168	2
115	116	2
147	156	1
64	64	10
109	157	1
76	77	3
49	63	2
43	43	4
2	14	1
138	139	2
91	91	8
39	40	4
121	145	2
106	106	5
41	41	11
24	24	5
96	100	2
14	14	8
112	112	4
144	144	3
92	93	6
146	147	2
50	52	2
58	58	5
111	112	2
112	113	2
3	156	1
103	136	1
170	170	5
36	37	3
165	166	4
88	112	1
12	13	4
2	2	13
108	108	4
90	91	1
52	114	1
45	45	6
155	155	4
1	102	1
151	151	4
143	145	1
82	85	3
61	61	5
126	126	6
77	80	2
138	168	1
22	39	1
122	143	1
12	12	8
84	140	1
103	116	2
130	149	1
4	5	1
66	66	6
67	67	4
165	165	6
140	141	1
145	168	1
54	54	6
105	122	1
14	15	1
19	43	1
167	167	9
25	28	1
10	10	9
156	159	1
39	90	3
157	157	9
161	161	3
143	143	6
154	156	1
10	75	1
10	14	2
6	7	3
42	44	1
132	138	1
59	59	8
6	6	11
27	40	1
2	156	2
92	94	3
116	117	3
72	77	1
18	20	4
77	78	2
40	41	2
85	85	5
7	9	3
42	43	2
88	88	4
110	110	4
40	43	2
102	136	1
173	174	2
145	156	1
170	171	3
119	119	5
98	98	2
172	177	1
89	90	2
60	61	3
22	24	1
20	31	1
23	23	5
12	40	1
163	163	6
25	26	1
39	43	1
3	3	12
52	56	1
146	146	3
21	22	4
145	154	2
85	87	2
157	158	3
55	140	1
152	152	1
161	162	2
19	20	6
72	73	3
169	170	1
111	115	2
63	64	2
177	178	2
154	161	1
78	79	1
101	102	3
160	165	4
133	138	1
99	100	2
151	159	1
20	20	5
126	127	4
163	164	5
154	157	1
10	12	2
146	166	2
149	169	2
123	123	12
2	3	5
136	136	2
98	129	1
178	178	8
37	38	3
60	142	1
164	166	2
99	101	1
61	82	1
13	13	7
153	157	2
90	90	6
83	91	1
132	134	1
80	81	2
113	114	2
5	12	1
70	70	3
23	28	1
0	74	1
32	71	1
65	85	1
86	89	1
124	125	3
83	84	2
79	79	7
118	139	1
33	34	3
78	78	4
58	61	1
99	99	6
57	62	4
65	103	1
99	109	1
15	16	3
134	149	1
3	4	3
126	130	2
117	119	1
14	16	1
11	14	1
103	104	1
9	12	2
102	106	1
45	49	1
120	120	6
18	33	1
121	127	1
34	37	1
36	42	1
10	11	4
51	52	2
79	121	2
123	124	5
173	173	7
11	13	2
74	75	1
119	121	1
117	118	1
82	92	1
147	148	2
131	132	2
55	56	3
87	91	1
53	53	1
39	41	2
102	103	2
104	105	3
26	27	2
1	2	1
115	117	1
90	98	1
63	85	1
34	71	1
55	175	1
86	86	4
97	98	1
13	24	1
129	135	1
22	23	3
11	170	1
20	73	1
8	15	1
137	177	1
73	145	1
105	106	5
1	126	1
19	19	2
167	171	1
165	170	1
112	122	1
61	102	1
59	61	1
40	44	1
84	84	8
3	36	1
21	21	3
118	127	1
68	134	1
174	176	2
71	95	1
19	23	1
2	5	1
95	103	1
85	86	3
109	153	1
154	154	3
124	134	1
103	107	1
129	130	3
25	125	1
144	162	3
17	18	1
1	95	2
28	33	1
58	59	4
74	76	1
24	35	2
78	94	1
108	109	4
128	128	1
17	71	1
77	119	1
65	109	1
91	93	1
118	119	2
34	36	1
61	62	1
166	167	1
107	112	1
7	7	6
146	153	1
28	28	6
107	108	3
57	103	1
169	171	1
124	136	2
56	78	1
18	22	1
94	95	3
127	129	2
52	53	2
81	86	2
111	118	1
130	148	1
124	124	3
32	54	1
62	62	1
177	180	1
153	155	1
110	113	1
52	63	1
153	154	1
39	67	1
98	99	2
111	121	1
134	135	3
158	168	1
109	152	1
172	173	3
38	43	2
129	129	4
33	75	2
30	31	1
56	57	2
66	85	1
38	39	2
141	148	1
111	113	1
14	170	2
52	64	1
28	30	1
157	160	1
43	55	1
136	137	2
114	114	1
118	118	2
13	32	1
127	179	1
158	159	1
80	132	2
29	31	1
143	147	1
148	156	1
162	164	2
151	152	1
168	178	1
84	86	1
139	140	4
65	140	3
11	36	1
148	149	1
120	121	1
83	86	2
32	38	1
143	144	1
3	75	1
155	156	1
6	9	1
127	127	3
96	98	1
5	38	1
20	33	1
71	72	1
126	131	1
33	38	1
10	38	1
53	66	1
109	116	1
143	146	1
35	52	1
83	85	1
147	147	3
122	158	1
170	173	1
43	44	2
0	61	1
86	87	2
1	31	1
101	110	1
53	54	1
40	56	1
127	128	2
103	106	3
81	145	1
137	153	1
89	157	1
12	24	1
100	101	1
1	125	1
150	157	1
90	92	1
155	161	1
42	49	1
98	102	1
33	39	1
41	43	1
31	58	1
26	30	2
109	109	1
64	65	1
86	112	1
115	153	1
31	33	1
14	54	1
134	136	2
95	98	1
148	154	1
98	108	1
0	90	1
78	80	1
36	56	1
178	179	1
81	82	1
65	81	1
93	135	1
60	60	4
128	129	1
108	167	1
73	97	1
46	46	1
160	163	1
39	52	1
123	145	1
77	77	2
18	29	1
82	83	1
116	118	1
165	167	1
38	66	1
102	115	1
31	32	1
45	83	1
116	143	1
149	157	1
31	35	1
80	84	1
132	133	2
36	38	1
112	114	2
49	52	1
89	98	1
103	115	1
152	154	1
27	42	1
146	155	1
74	88	1
157	159	1
153	175	1
49	49	1
118	158	1
131	138	1
