33	33	2
10	10	3
115	122	2
65	65	2
131	176	1
42	42	4
166	167	2
117	117	2
160	162	1
129	129	1
32	45	1
139	141	1
27	28	1
115	115	2
160	160	6
129	146	2
6	76	2
1	67	1
61	64	1
3	5	1
90	90	3
81	84	1
51	51	1
141	163	1
30	30	1
74	74	1
25	25	1
119	122	1
115	157	1
174	174	1
67	67	1
14	23	1
138	138	3
11	11	2
58	58	1
103	104	2
168	172	1
44	45	1
147	147	2
33	39	2
159	159	1
117	123	1
38	38	1
166	166	3
125	125	3
93	105	1
163	164	1
132	150	2
3	3	1
59	59	1
79	79	1
39	39	2
83	83	1
25	26	1
41	41	2
98	100	1
142	143	2
8	9	2
111	114	1
31	31	2
122	122	2
140	141	2
9	9	3
58	62	1
91	91	1
11	35	1
104	109	1
3	4	1
82	100	2
88	112	1
124	124	1
120	120	1
14	33	1
56	56	5
71	71	1
139	139	5
114	114	2
127	130	2
85	111	3
76	78	1
12	12	2
166	170	1
158	159	1
10	11	1
5	7	2
20	20	1
8	8	1
45	46	1
37	37	1
133	133	3
109	110	4
78	80	2
54	54	1
15	15	2
105	105	2
116	118	1
30	31	1
97	97	2
94	94	1
153	153	3
61	67	1
106	106	1
61	61	3
86	111	1
126	128	1
104	112	1
172	172	1
165	167	1
171	172	4
127	127	1
24	24	2
17	17	2
115	120	1
92	92	1
15	16	1
88	89	1
102	102	1
126	126	1
75	79	1
133	134	1
124	125	1
131	131	4
132	157	1
133	151	2
157	157	2
21	21	2
173	173	1
14	14	1
24	25	2
156	167	1
27	31	1
136	136	2
99	102	1
83	85	1
148	148	2
102	103	2
130	130	5
57	57	2
179	180	1
23	23	2
86	86	1
151	151	1
32	71	1
6	6	1
19	19	1
10	40	1
99	99	1
33	43	1
163	163	1
120	121	1
52	66	1
23	24	1
137	175	1
118	118	2
22	24	1
110	125	1
53	53	2
161	162	1
73	137	1
145	146	1
60	60	1
45	45	2
101	101	2
123	160	2
143	147	1
52	53	1
103	105	1
72	72	1
50	59	1
112	112	1
2	2	1
78	79	1
146	164	1
56	57	1
89	108	1
144	145	1
61	63	1
176	176	1
96	96	1
1	1	1
116	116	1
50	62	1
159	160	1
145	149	1
141	145	1
132	132	1
107	109	1
29	29	1
10	27	1
75	75	1
137	159	1
156	159	2
134	134	2
51	67	1
98	98	2
73	73	1
26	26	1
89	97	1
137	137	1
109	109	2
81	81	2
165	165	2
86	88	1
27	27	1
150	153	1
138	139	1
96	97	1
113	114	1
98	99	1
143	144	1
177	180	1
52	54	1
51	89	1
154	154	1
5	18	1
115	159	1
143	143	1
156	156	1
137	149	1
91	93	1
121	121	1
111	118	1
82	82	1
139	173	1
33	34	1
9	40	1
130	153	1
104	104	1
55	71	1
43	54	1
