9	11	2
149	149	3
5	9	1
10	43	1
52	52	3
114	114	2
141	148	1
151	152	2
50	50	2
172	172	4
126	127	2
84	84	3
45	45	3
132	132	6
102	102	1
135	135	3
153	153	4
88	88	3
3	75	1
10	10	4
97	98	1
162	162	3
26	33	1
82	83	1
41	42	1
120	121	1
27	27	1
168	168	3
15	15	7
116	118	1
130	131	2
139	139	3
155	155	3
54	54	1
101	104	1
3	3	3
143	145	1
29	31	1
12	12	2
173	173	8
32	32	3
3	20	1
91	92	3
6	6	5
90	110	2
95	95	4
60	60	1
157	158	2
88	89	4
95	97	1
94	95	2
116	116	3
58	59	4
12	13	1
127	164	1
138	138	2
143	143	3
90	91	1
22	23	1
103	103	2
158	159	1
175	175	4
58	58	2
6	43	1
86	94	1
117	118	1
78	78	1
83	84	3
103	106	1
74	75	4
168	169	2
40	40	1
164	166	3
121	124	1
97	97	3
55	55	3
144	144	3
115	115	3
55	65	1
73	74	1
19	21	1
21	23	2
23	23	2
57	57	2
39	63	1
169	169	3
8	8	4
62	62	3
133	133	3
133	151	1
141	158	1
25	25	2
67	67	1
80	80	1
147	169	1
53	53	1
19	19	3
1	1	3
8	9	1
102	103	2
134	134	9
109	109	5
163	164	3
131	131	2
28	30	1
23	24	2
134	138	2
126	126	4
142	143	1
34	34	2
70	70	1
115	116	1
80	81	1
125	142	2
2	2	2
91	91	3
36	36	2
127	127	2
165	165	2
18	18	5
139	141	2
22	22	1
125	127	2
66	66	2
140	144	1
43	44	2
3	15	1
108	108	3
171	171	3
11	11	2
7	8	1
129	130	2
129	129	2
153	154	3
81	82	1
26	58	2
166	170	1
130	130	1
19	20	2
166	166	2
6	27	1
15	17	1
150	152	1
56	57	1
150	150	6
154	154	3
85	93	1
113	113	1
118	118	1
107	108	2
60	65	1
113	114	3
161	161	2
7	7	1
60	82	1
107	107	2
35	35	1
4	40	1
179	179	1
21	21	1
3	103	2
94	94	3
111	111	5
39	40	1
157	157	3
157	163	1
127	130	1
11	13	1
96	97	1
100	100	5
87	87	2
146	147	1
120	120	4
158	158	3
122	122	3
133	158	2
37	40	1
95	98	2
89	102	1
88	96	1
119	119	1
79	79	2
35	36	2
118	119	1
105	106	2
2	156	1
62	63	1
112	112	7
147	147	2
131	134	1
77	138	1
75	75	2
93	93	1
38	38	3
171	172	1
65	78	2
4	18	1
147	166	2
66	68	1
134	149	1
9	16	1
170	170	3
115	144	1
81	81	3
153	174	2
121	122	1
30	30	2
148	148	2
68	68	2
3	56	1
135	136	1
26	26	1
116	117	1
128	129	2
39	43	1
16	28	1
92	160	1
3	5	2
167	167	2
64	87	1
37	37	3
105	105	3
46	49	1
39	39	1
71	72	1
74	126	1
34	43	1
156	159	1
25	26	1
43	46	1
28	31	1
150	169	2
30	41	1
7	11	1
104	105	1
145	145	3
123	123	2
108	115	1
56	56	1
162	163	1
126	128	1
0	5	1
61	63	1
44	44	1
42	42	3
2	10	1
38	39	1
88	90	1
176	176	3
164	165	1
16	32	1
144	170	1
159	170	1
43	63	1
43	43	2
143	147	1
140	142	2
142	142	2
72	72	2
39	42	2
13	13	2
56	58	1
110	110	2
163	165	1
29	29	2
162	165	1
103	104	1
30	31	2
90	106	1
141	149	1
24	25	1
9	9	1
90	90	1
77	77	1
127	128	1
108	109	1
145	148	1
40	108	1
33	56	2
104	104	1
36	37	1
63	64	1
140	140	1
90	94	1
180	180	2
65	66	2
161	162	1
57	59	1
52	53	1
101	101	1
98	98	1
89	89	1
166	167	1
95	169	1
82	82	1
64	80	1
0	0	1
56	67	1
89	110	1
5	18	1
12	36	1
97	115	1
92	92	3
59	60	1
100	114	1
99	99	1
5	5	2
79	80	1
5	100	1
153	168	1
174	174	1
150	155	2
14	14	1
99	114	1
152	152	1
76	76	1
133	134	2
16	39	1
12	30	1
15	30	1
117	117	2
148	170	1
144	163	1
1	3	1
112	132	1
132	134	1
36	39	1
154	155	1
96	96	1
137	137	1
81	84	1
17	26	1
63	63	1
21	22	1
41	41	3
17	18	1
62	86	1
61	64	1
23	42	1
15	16	1
20	20	1
98	99	1
31	31	2
113	115	1
122	123	1
93	112	1
147	148	1
41	43	1
84	85	1
82	118	1
83	83	1
18	21	1
6	28	1
77	80	1
132	133	1
97	128	1
92	98	1
141	141	1
