14	15	3
33	34	2
11	37	1
73	74	1
63	68	1
17	17	7
118	119	1
95	96	4
140	140	4
139	139	4
67	68	2
23	27	1
33	33	1
8	10	1
27	28	1
150	150	1
88	100	1
76	79	1
115	116	2
12	12	3
70	70	7
56	56	2
26	27	1
14	14	2
13	13	2
62	63	1
100	100	4
36	36	7
34	34	2
110	110	3
10	12	1
53	53	5
55	55	3
112	112	2
96	114	2
20	23	1
19	19	3
78	78	2
70	80	2
23	23	5
144	144	6
149	149	4
7	21	2
123	124	1
131	132	2
128	129	1
47	47	3
28	28	3
69	84	2
89	108	2
119	119	4
103	103	3
26	26	3
40	40	2
129	148	2
138	138	4
63	64	1
37	40	3
30	122	1
145	145	1
24	24	1
83	83	1
113	113	5
94	103	1
29	29	5
117	118	1
147	147	4
32	32	2
77	77	3
42	42	4
101	101	2
111	111	1
123	125	1
52	52	3
131	131	2
89	97	1
4	4	5
75	76	2
78	79	2
74	75	1
45	45	7
64	78	2
50	50	1
18	19	4
137	137	5
133	133	5
113	122	1
48	54	1
38	38	2
66	67	3
126	126	2
30	30	3
42	50	1
75	77	2
4	5	2
10	10	3
149	150	2
65	65	5
80	80	4
19	23	3
14	16	1
32	33	2
20	24	2
31	35	1
12	17	1
18	18	4
154	154	3
87	87	4
93	95	1
128	128	1
73	73	2
118	118	3
107	107	2
143	146	1
14	17	1
7	7	2
101	103	2
100	150	1
137	148	1
11	18	1
116	140	1
71	71	2
70	86	1
147	148	1
75	75	5
85	85	2
68	68	3
32	34	1
84	84	2
46	46	1
125	125	2
15	36	1
13	19	1
135	135	1
130	130	1
122	122	4
26	87	1
20	20	2
86	86	2
8	8	3
109	110	1
105	105	4
21	22	2
44	45	1
93	93	1
85	86	1
6	6	2
102	102	2
5	5	1
74	77	1
127	127	1
124	124	1
98	98	4
120	120	3
44	49	1
129	129	2
90	92	1
25	25	3
108	111	1
152	152	1
8	34	1
45	46	1
25	29	1
6	10	1
114	114	2
68	75	1
81	82	1
108	108	2
107	108	1
31	31	3
123	128	2
58	58	1
94	102	1
81	81	1
136	136	3
42	43	1
75	107	1
98	99	2
130	132	1
61	61	1
132	132	2
9	15	1
12	34	1
38	71	1
145	146	1
13	15	2
68	70	1
134	148	1
79	80	1
44	44	2
142	146	1
86	87	2
134	134	2
9	9	2
34	36	1
111	113	3
2	2	1
27	27	2
107	128	1
21	21	1
5	6	1
79	79	1
24	31	1
130	137	1
12	13	1
39	39	1
69	75	1
68	87	1
94	94	2
116	116	1
108	153	1
6	12	1
82	82	2
22	22	1
24	65	1
112	113	2
127	128	2
35	36	3
153	153	2
116	122	1
11	11	1
48	49	1
138	145	1
102	103	1
19	150	1
124	127	3
99	99	1
125	127	1
112	114	1
125	138	1
109	109	2
50	52	1
36	37	1
139	140	1
20	118	1
69	69	1
143	143	2
38	39	1
25	28	1
11	128	1
101	122	1
57	57	1
10	11	1
149	151	1
101	123	1
19	20	1
115	115	2
15	32	1
24	64	1
41	41	1
14	29	1
108	137	1
65	87	1
117	117	1
26	29	1
136	137	1
40	53	1
17	19	1
84	130	1
37	37	1
150	151	2
78	80	1
67	67	1
94	104	1
51	51	1
72	73	1
95	95	1
39	48	1
132	142	1
15	16	1
125	126	1
21	29	1
97	99	1
141	141	1
141	143	1
103	104	1
34	146	1
142	143	1
106	106	1
