169	169	3
137	137	1
150	150	1
25	25	7
69	69	3
67	67	3
170	170	6
194	194	1
152	155	1
126	127	1
157	158	2
33	33	3
37	37	4
174	174	1
99	99	2
98	99	1
14	139	1
185	185	2
85	85	2
123	123	3
17	36	1
160	161	1
12	12	3
105	105	1
26	27	1
156	156	2
191	191	2
34	34	3
83	83	2
1	2	2
39	39	2
72	72	2
94	146	1
29	30	4
67	68	2
45	45	7
165	186	1
36	36	7
187	189	1
98	98	3
87	87	3
19	19	3
126	126	3
163	164	1
153	153	2
190	190	2
128	129	1
166	166	3
119	119	3
64	64	2
49	49	1
121	121	2
44	44	5
141	141	2
13	13	3
175	175	2
138	138	1
168	168	1
38	135	1
115	115	1
46	46	3
88	90	1
26	26	3
149	152	1
138	169	1
27	27	1
120	120	2
43	43	3
107	109	1
0	1	2
56	56	1
76	76	2
143	143	1
178	186	1
11	11	3
184	184	3
173	174	1
38	38	3
40	41	3
1	1	3
187	188	1
197	197	1
185	186	1
21	23	1
39	40	2
100	100	3
94	94	2
16	18	2
62	62	2
157	157	2
51	51	1
114	114	1
146	146	4
23	33	1
66	66	1
112	139	1
173	175	2
155	156	1
181	181	3
178	179	1
154	154	1
68	69	1
193	194	2
14	14	6
23	23	2
26	28	1
30	30	1
29	29	1
149	149	3
25	40	2
0	2	1
121	157	1
145	145	3
158	158	2
11	12	1
40	40	3
111	111	1
18	18	1
136	137	1
96	96	2
67	107	1
166	182	1
88	88	2
151	177	1
2	2	2
6	31	1
11	13	1
17	19	1
193	193	3
47	47	2
4	4	2
107	108	1
70	70	1
103	103	2
5	5	1
172	182	1
12	38	1
110	111	1
16	17	1
114	115	1
161	161	1
195	195	1
117	117	2
39	72	1
7	8	2
186	186	1
107	107	2
183	183	2
186	194	1
24	33	1
68	68	1
4	17	2
147	147	1
168	174	1
178	178	1
9	11	1
48	48	2
128	128	2
35	35	3
29	32	1
66	88	1
47	52	1
136	138	2
151	151	2
101	105	1
28	31	1
159	159	1
60	60	3
28	38	2
45	46	1
7	36	1
64	115	1
106	146	1
95	97	1
146	147	1
9	9	2
150	151	1
32	33	1
157	178	1
139	140	2
93	93	1
4	5	1
86	86	2
59	63	1
187	187	2
42	42	5
15	15	1
141	142	1
8	41	1
90	90	1
135	135	1
95	95	1
149	151	1
169	170	2
69	70	1
24	42	1
21	22	1
54	54	1
113	114	1
160	160	2
158	159	1
169	187	2
6	6	1
123	124	1
10	10	1
36	37	1
124	125	1
59	60	1
46	47	1
78	78	2
172	174	1
42	177	1
61	88	1
186	187	1
183	184	2
184	196	1
162	162	1
173	192	1
15	43	1
74	75	1
7	7	1
42	70	1
155	155	1
51	52	1
75	77	1
133	134	1
57	57	2
125	125	1
172	172	1
20	21	1
9	32	1
129	129	1
152	152	1
10	25	1
132	132	1
74	74	1
127	127	1
36	191	1
182	182	1
171	171	1
15	20	1
50	50	1
1	7	1
32	32	1
43	44	1
148	148	1
8	8	1
22	23	1
194	195	1
20	24	1
141	144	1
78	81	1
173	181	1
144	145	1
65	65	1
