45	45	2
102	124	2
110	110	2
111	112	2
18	18	2
25	25	5
71	99	2
15	16	2
102	123	2
4	4	1
92	115	1
43	45	1
62	62	2
75	76	1
85	85	2
43	43	3
55	57	2
46	46	2
108	108	4
34	34	1
85	86	3
123	128	2
12	12	2
121	121	2
83	84	1
17	17	1
77	106	1
78	78	1
76	76	6
5	10	1
135	135	1
147	148	4
128	128	3
110	111	2
79	80	2
131	132	2
31	49	1
40	40	3
84	84	3
51	51	2
142	142	1
149	150	1
30	31	1
74	74	4
20	20	2
37	50	1
21	21	4
77	77	2
44	47	2
69	70	3
93	93	1
112	112	4
135	150	1
63	64	2
5	5	2
31	32	2
138	141	2
133	133	1
71	71	1
107	107	3
114	114	1
130	131	2
41	43	1
130	130	2
37	38	1
49	49	2
51	55	2
123	124	2
106	108	1
42	42	2
125	125	3
104	104	2
13	13	5
86	86	2
103	103	1
97	97	2
118	118	3
41	47	1
9	38	1
6	81	2
95	95	4
106	106	1
139	139	2
48	48	1
6	8	1
151	151	1
39	40	4
87	87	1
125	126	1
116	116	3
79	79	2
95	97	1
152	152	1
11	11	1
106	107	1
65	67	1
16	16	1
118	119	1
42	51	1
153	153	2
143	145	1
27	29	1
8	8	2
81	83	2
146	146	3
6	6	1
66	66	2
13	18	1
64	65	1
133	134	1
15	15	1
128	130	2
7	7	2
141	154	2
105	105	3
101	105	1
64	64	2
141	141	2
147	147	1
119	119	1
29	29	3
10	10	1
111	111	2
67	67	2
125	139	1
144	145	2
150	150	2
145	146	2
39	39	2
132	132	2
42	43	1
24	24	2
73	74	1
100	100	2
97	98	1
24	30	1
123	123	2
95	96	1
118	138	1
107	109	1
14	14	3
57	57	3
23	24	1
35	36	1
75	75	1
102	112	1
54	54	2
47	51	1
70	70	4
9	9	3
82	82	1
27	28	1
122	122	1
145	145	2
117	118	1
96	96	1
127	128	2
94	97	1
150	152	1
35	35	1
71	72	1
152	153	1
80	80	1
63	63	2
51	52	1
122	135	1
46	51	1
116	117	1
124	124	2
49	53	1
154	154	1
10	11	1
108	109	1
90	90	2
72	75	1
106	111	1
124	126	1
112	114	1
5	6	1
56	56	1
115	126	1
137	137	1
69	69	1
11	16	1
48	49	1
126	127	1
83	83	1
79	81	1
19	19	1
65	65	1
81	81	2
138	138	1
27	27	1
13	14	1
143	143	1
52	52	1
94	94	1
22	22	1
100	101	1
